Name: Magnolia grandiflora
Type: vegetation
Class: Tree
Genus: Magnolia
Species: grandiflora
Sample No.: JPL182
Owner: JPL
Wavelength Range: VSWIR
Origin: 34.12854; -118.1149; WGS84
Collection Date: 10/3/2016
Description: Samples were collected at the Huntington Garden in San Marino California as part of a JPL Subcontract studying HyTES imagery. Samples were taken to JPL and processed within 48 hours of collection. The same leaves were processed in the Nicolet and then measured using the ASD.
Measurement: Bidirectional reflectance
First Column: X
Second Column: Y
X Units: Wavelength (micrometer)
Y Units: Reflectance (percentage)
First X Value: 0.35
Last X Value: 2.5
Number of X Values: 2151
Additional Information: vegetation.tree.magnolia.grandiflora.vswir.jpl182.jpl.asd.ancillary.txt

 0.3500	 3.5400
 0.3510	 3.5240
 0.3520	 3.4650
 0.3530	 3.3860
 0.3540	 3.3430
 0.3550	 3.4640
 0.3560	 3.4220
 0.3570	 3.2910
 0.3580	 3.3290
 0.3590	 3.4300
 0.3600	 3.4340
 0.3610	 3.3370
 0.3620	 3.3600
 0.3630	 3.2940
 0.3640	 3.2330
 0.3650	 3.2770
 0.3660	 3.2940
 0.3670	 3.3160
 0.3680	 3.3090
 0.3690	 3.2110
 0.3700	 3.2070
 0.3710	 3.2560
 0.3720	 3.2920
 0.3730	 3.2590
 0.3740	 3.1580
 0.3750	 3.1170
 0.3760	 3.2240
 0.3770	 3.1950
 0.3780	 3.1860
 0.3790	 3.2080
 0.3800	 3.1450
 0.3810	 3.1490
 0.3820	 3.1990
 0.3830	 3.2320
 0.3840	 3.1410
 0.3850	 3.1260
 0.3860	 3.1510
 0.3870	 3.1190
 0.3880	 3.1460
 0.3890	 3.1460
 0.3900	 3.1100
 0.3910	 3.1180
 0.3920	 3.0980
 0.3930	 3.0760
 0.3940	 3.0820
 0.3950	 3.1130
 0.3960	 3.0940
 0.3970	 3.0400
 0.3980	 3.0080
 0.3990	 3.0240
 0.4000	 3.0230
 0.4010	 2.9950
 0.4020	 3.0120
 0.4030	 3.0200
 0.4040	 3.0130
 0.4050	 2.9980
 0.4060	 2.9920
 0.4070	 2.9860
 0.4080	 2.9830
 0.4090	 2.9880
 0.4100	 2.9850
 0.4110	 2.9670
 0.4120	 2.9480
 0.4130	 2.9640
 0.4140	 2.9590
 0.4150	 2.9480
 0.4160	 2.9570
 0.4170	 2.9560
 0.4180	 2.9500
 0.4190	 2.9500
 0.4200	 2.9710
 0.4210	 2.9680
 0.4220	 2.9630
 0.4230	 2.9760
 0.4240	 2.9920
 0.4250	 3.0020
 0.4260	 3.0060
 0.4270	 3.0080
 0.4280	 3.0170
 0.4290	 3.0330
 0.4300	 3.0500
 0.4310	 3.0560
 0.4320	 3.0660
 0.4330	 3.0820
 0.4340	 3.1030
 0.4350	 3.1110
 0.4360	 3.1260
 0.4370	 3.1440
 0.4380	 3.1430
 0.4390	 3.1530
 0.4400	 3.1730
 0.4410	 3.1940
 0.4420	 3.2040
 0.4430	 3.2140
 0.4440	 3.2230
 0.4450	 3.2320
 0.4460	 3.2360
 0.4470	 3.2490
 0.4480	 3.2670
 0.4490	 3.2670
 0.4500	 3.2750
 0.4510	 3.2880
 0.4520	 3.2980
 0.4530	 3.3090
 0.4540	 3.3140
 0.4550	 3.3180
 0.4560	 3.3280
 0.4570	 3.3300
 0.4580	 3.3330
 0.4590	 3.3420
 0.4600	 3.3500
 0.4610	 3.3510
 0.4620	 3.3480
 0.4630	 3.3470
 0.4640	 3.3490
 0.4650	 3.3460
 0.4660	 3.3410
 0.4670	 3.3540
 0.4680	 3.3520
 0.4690	 3.3450
 0.4700	 3.3440
 0.4710	 3.3450
 0.4720	 3.3480
 0.4730	 3.3520
 0.4740	 3.3520
 0.4750	 3.3440
 0.4760	 3.3410
 0.4770	 3.3450
 0.4780	 3.3460
 0.4790	 3.3450
 0.4800	 3.3440
 0.4810	 3.3420
 0.4820	 3.3460
 0.4830	 3.3520
 0.4840	 3.3540
 0.4850	 3.3540
 0.4860	 3.3610
 0.4870	 3.3650
 0.4880	 3.3600
 0.4890	 3.3640
 0.4900	 3.3790
 0.4910	 3.3950
 0.4920	 3.3990
 0.4930	 3.4090
 0.4940	 3.4230
 0.4950	 3.4350
 0.4960	 3.4430
 0.4970	 3.4620
 0.4980	 3.4850
 0.4990	 3.5040
 0.5000	 3.5340
 0.5010	 3.5600
 0.5020	 3.5840
 0.5030	 3.6180
 0.5040	 3.6460
 0.5050	 3.6810
 0.5060	 3.7310
 0.5070	 3.7790
 0.5080	 3.8290
 0.5090	 3.8830
 0.5100	 3.9470
 0.5110	 4.0100
 0.5120	 4.0820
 0.5130	 4.1650
 0.5140	 4.2550
 0.5150	 4.3460
 0.5160	 4.4450
 0.5170	 4.5560
 0.5180	 4.6670
 0.5190	 4.7910
 0.5200	 4.9230
 0.5210	 5.0520
 0.5220	 5.1850
 0.5230	 5.3240
 0.5240	 5.4650
 0.5250	 5.6070
 0.5260	 5.7430
 0.5270	 5.8720
 0.5280	 5.9950
 0.5290	 6.1110
 0.5300	 6.2230
 0.5310	 6.3300
 0.5320	 6.4260
 0.5330	 6.5130
 0.5340	 6.5920
 0.5350	 6.6630
 0.5360	 6.7220
 0.5370	 6.7750
 0.5380	 6.8250
 0.5390	 6.8680
 0.5400	 6.9070
 0.5410	 6.9370
 0.5420	 6.9620
 0.5430	 6.9870
 0.5440	 7.0120
 0.5450	 7.0360
 0.5460	 7.0580
 0.5470	 7.0770
 0.5480	 7.0940
 0.5490	 7.1090
 0.5500	 7.1240
 0.5510	 7.1330
 0.5520	 7.1350
 0.5530	 7.1260
 0.5540	 7.1090
 0.5550	 7.0820
 0.5560	 7.0420
 0.5570	 6.9920
 0.5580	 6.9350
 0.5590	 6.8720
 0.5600	 6.8030
 0.5610	 6.7290
 0.5620	 6.6500
 0.5630	 6.5690
 0.5640	 6.4880
 0.5650	 6.4040
 0.5660	 6.3160
 0.5670	 6.2240
 0.5680	 6.1340
 0.5690	 6.0430
 0.5700	 5.9520
 0.5710	 5.8600
 0.5720	 5.7630
 0.5730	 5.6690
 0.5740	 5.5820
 0.5750	 5.5030
 0.5760	 5.4280
 0.5770	 5.3550
 0.5780	 5.2850
 0.5790	 5.2170
 0.5800	 5.1560
 0.5810	 5.1030
 0.5820	 5.0570
 0.5830	 5.0190
 0.5840	 4.9820
 0.5850	 4.9460
 0.5860	 4.9100
 0.5870	 4.8810
 0.5880	 4.8560
 0.5890	 4.8280
 0.5900	 4.7960
 0.5910	 4.7680
 0.5920	 4.7450
 0.5930	 4.7200
 0.5940	 4.6980
 0.5950	 4.6780
 0.5960	 4.6570
 0.5970	 4.6360
 0.5980	 4.6200
 0.5990	 4.6050
 0.6000	 4.5900
 0.6010	 4.5740
 0.6020	 4.5590
 0.6030	 4.5430
 0.6040	 4.5160
 0.6050	 4.4880
 0.6060	 4.4580
 0.6070	 4.4250
 0.6080	 4.3900
 0.6090	 4.3540
 0.6100	 4.3210
 0.6110	 4.2930
 0.6120	 4.2570
 0.6130	 4.2190
 0.6140	 4.1820
 0.6150	 4.1470
 0.6160	 4.1140
 0.6170	 4.0820
 0.6180	 4.0530
 0.6190	 4.0270
 0.6200	 4.0050
 0.6210	 3.9860
 0.6220	 3.9700
 0.6230	 3.9530
 0.6240	 3.9390
 0.6250	 3.9280
 0.6260	 3.9190
 0.6270	 3.9110
 0.6280	 3.9040
 0.6290	 3.8980
 0.6300	 3.8920
 0.6310	 3.8850
 0.6320	 3.8770
 0.6330	 3.8670
 0.6340	 3.8520
 0.6350	 3.8360
 0.6360	 3.8190
 0.6370	 3.7950
 0.6380	 3.7690
 0.6390	 3.7420
 0.6400	 3.7140
 0.6410	 3.6880
 0.6420	 3.6570
 0.6430	 3.6220
 0.6440	 3.5950
 0.6450	 3.5640
 0.6460	 3.5350
 0.6470	 3.5120
 0.6480	 3.4920
 0.6490	 3.4730
 0.6500	 3.4530
 0.6510	 3.4370
 0.6520	 3.4260
 0.6530	 3.4150
 0.6540	 3.4040
 0.6550	 3.3920
 0.6560	 3.3780
 0.6570	 3.3620
 0.6580	 3.3470
 0.6590	 3.3280
 0.6600	 3.3090
 0.6610	 3.2920
 0.6620	 3.2750
 0.6630	 3.2600
 0.6640	 3.2480
 0.6650	 3.2390
 0.6660	 3.2300
 0.6670	 3.2250
 0.6680	 3.2250
 0.6690	 3.2280
 0.6700	 3.2350
 0.6710	 3.2450
 0.6720	 3.2580
 0.6730	 3.2760
 0.6740	 3.2960
 0.6750	 3.3170
 0.6760	 3.3430
 0.6770	 3.3700
 0.6780	 3.4030
 0.6790	 3.4410
 0.6800	 3.4790
 0.6810	 3.5230
 0.6820	 3.5680
 0.6830	 3.6120
 0.6840	 3.6590
 0.6850	 3.7100
 0.6860	 3.7660
 0.6870	 3.8260
 0.6880	 3.8910
 0.6890	 3.9690
 0.6900	 4.0650
 0.6910	 4.1830
 0.6920	 4.3290
 0.6930	 4.5080
 0.6940	 4.7250
 0.6950	 4.9850
 0.6960	 5.2920
 0.6970	 5.6490
 0.6980	 6.0590
 0.6990	 6.5170
 0.7000	 7.0260
 0.7010	 7.5810
 0.7020	 8.1760
 0.7030	 8.8040
 0.7040	 9.4610
 0.7050	10.1450
 0.7060	10.8530
 0.7070	11.5820
 0.7080	12.3310
 0.7090	13.1030
 0.7100	13.9000
 0.7110	14.7190
 0.7120	15.5600
 0.7130	16.4240
 0.7140	17.3120
 0.7150	18.2210
 0.7160	19.1490
 0.7170	20.0980
 0.7180	21.0650
 0.7190	22.0470
 0.7200	23.0400
 0.7210	24.0400
 0.7220	25.0460
 0.7230	26.0540
 0.7240	27.0590
 0.7250	28.0580
 0.7260	29.0470
 0.7270	30.0210
 0.7280	30.9760
 0.7290	31.9090
 0.7300	32.8180
 0.7310	33.7010
 0.7320	34.5570
 0.7330	35.3820
 0.7340	36.1740
 0.7350	36.9350
 0.7360	37.6590
 0.7370	38.3460
 0.7380	38.9980
 0.7390	39.6160
 0.7400	40.1980
 0.7410	40.7440
 0.7420	41.2540
 0.7430	41.7290
 0.7440	42.1680
 0.7450	42.5750
 0.7460	42.9520
 0.7470	43.2980
 0.7480	43.6150
 0.7490	43.9050
 0.7500	44.1690
 0.7510	44.4090
 0.7520	44.6270
 0.7530	44.8260
 0.7540	45.0050
 0.7550	45.1680
 0.7560	45.3170
 0.7570	45.4490
 0.7580	45.5690
 0.7590	45.6790
 0.7600	45.7780
 0.7610	45.8640
 0.7620	45.9430
 0.7630	46.0120
 0.7640	46.0710
 0.7650	46.1280
 0.7660	46.1770
 0.7670	46.2190
 0.7680	46.2600
 0.7690	46.2950
 0.7700	46.3240
 0.7710	46.3500
 0.7720	46.3740
 0.7730	46.3950
 0.7740	46.4150
 0.7750	46.4350
 0.7760	46.4540
 0.7770	46.4710
 0.7780	46.4880
 0.7790	46.5040
 0.7800	46.5190
 0.7810	46.5340
 0.7820	46.5490
 0.7830	46.5640
 0.7840	46.5760
 0.7850	46.5880
 0.7860	46.6000
 0.7870	46.6100
 0.7880	46.6230
 0.7890	46.6350
 0.7900	46.6420
 0.7910	46.6500
 0.7920	46.6600
 0.7930	46.6690
 0.7940	46.6760
 0.7950	46.6870
 0.7960	46.6960
 0.7970	46.7020
 0.7980	46.7070
 0.7990	46.7140
 0.8000	46.7220
 0.8010	46.7290
 0.8020	46.7300
 0.8030	46.7360
 0.8040	46.7430
 0.8050	46.7450
 0.8060	46.7480
 0.8070	46.7520
 0.8080	46.7570
 0.8090	46.7630
 0.8100	46.7670
 0.8110	46.7720
 0.8120	46.7780
 0.8130	46.7800
 0.8140	46.7840
 0.8150	46.7880
 0.8160	46.7890
 0.8170	46.7970
 0.8180	46.8030
 0.8190	46.8090
 0.8200	46.8140
 0.8210	46.8190
 0.8220	46.8250
 0.8230	46.8340
 0.8240	46.8440
 0.8250	46.8510
 0.8260	46.8550
 0.8270	46.8590
 0.8280	46.8650
 0.8290	46.8690
 0.8300	46.8740
 0.8310	46.8820
 0.8320	46.8910
 0.8330	46.8980
 0.8340	46.9050
 0.8350	46.9140
 0.8360	46.9250
 0.8370	46.9370
 0.8380	46.9500
 0.8390	46.9590
 0.8400	46.9710
 0.8410	46.9830
 0.8420	46.9970
 0.8430	47.0120
 0.8440	47.0280
 0.8450	47.0420
 0.8460	47.0560
 0.8470	47.0660
 0.8480	47.0790
 0.8490	47.0920
 0.8500	47.1020
 0.8510	47.1150
 0.8520	47.1310
 0.8530	47.1450
 0.8540	47.1570
 0.8550	47.1660
 0.8560	47.1760
 0.8570	47.1870
 0.8580	47.2010
 0.8590	47.2130
 0.8600	47.2250
 0.8610	47.2350
 0.8620	47.2410
 0.8630	47.2520
 0.8640	47.2620
 0.8650	47.2690
 0.8660	47.2800
 0.8670	47.2910
 0.8680	47.3010
 0.8690	47.3070
 0.8700	47.3090
 0.8710	47.3160
 0.8720	47.3260
 0.8730	47.3320
 0.8740	47.3370
 0.8750	47.3460
 0.8760	47.3560
 0.8770	47.3590
 0.8780	47.3630
 0.8790	47.3690
 0.8800	47.3750
 0.8810	47.3790
 0.8820	47.3830
 0.8830	47.3860
 0.8840	47.3900
 0.8850	47.3970
 0.8860	47.3980
 0.8870	47.3950
 0.8880	47.3950
 0.8890	47.3980
 0.8900	47.3990
 0.8910	47.4000
 0.8920	47.4040
 0.8930	47.4040
 0.8940	47.4040
 0.8950	47.4030
 0.8960	47.4030
 0.8970	47.4040
 0.8980	47.4010
 0.8990	47.3970
 0.9000	47.3980
 0.9010	47.3990
 0.9020	47.3980
 0.9030	47.3960
 0.9040	47.3960
 0.9050	47.3990
 0.9060	47.3980
 0.9070	47.3910
 0.9080	47.3850
 0.9090	47.3820
 0.9100	47.3820
 0.9110	47.3830
 0.9120	47.3790
 0.9130	47.3740
 0.9140	47.3700
 0.9150	47.3650
 0.9160	47.3600
 0.9170	47.3540
 0.9180	47.3450
 0.9190	47.3340
 0.9200	47.3330
 0.9210	47.3260
 0.9220	47.3110
 0.9230	47.2940
 0.9240	47.2820
 0.9250	47.2690
 0.9260	47.2530
 0.9270	47.2350
 0.9280	47.2110
 0.9290	47.1890
 0.9300	47.1670
 0.9310	47.1380
 0.9320	47.1120
 0.9330	47.0870
 0.9340	47.0590
 0.9350	47.0270
 0.9360	46.9930
 0.9370	46.9590
 0.9380	46.9250
 0.9390	46.8820
 0.9400	46.8470
 0.9410	46.8070
 0.9420	46.7570
 0.9430	46.7110
 0.9440	46.6650
 0.9450	46.6150
 0.9460	46.5550
 0.9470	46.4890
 0.9480	46.4190
 0.9490	46.3500
 0.9500	46.2820
 0.9510	46.2040
 0.9520	46.1200
 0.9530	46.0320
 0.9540	45.9450
 0.9550	45.8640
 0.9560	45.7780
 0.9570	45.6950
 0.9580	45.6280
 0.9590	45.5600
 0.9600	45.4940
 0.9610	45.4350
 0.9620	45.3870
 0.9630	45.3390
 0.9640	45.2940
 0.9650	45.2560
 0.9660	45.2250
 0.9670	45.1930
 0.9680	45.1720
 0.9690	45.1570
 0.9700	45.1360
 0.9710	45.1180
 0.9720	45.1020
 0.9730	45.0850
 0.9740	45.0670
 0.9750	45.0510
 0.9760	45.0380
 0.9770	45.0250
 0.9780	45.0070
 0.9790	45.0050
 0.9800	45.0170
 0.9810	45.0260
 0.9820	45.0160
 0.9830	45.0160
 0.9840	45.0260
 0.9850	45.0400
 0.9860	45.0520
 0.9870	45.0730
 0.9880	45.0910
 0.9890	45.1020
 0.9900	45.1040
 0.9910	45.1050
 0.9920	45.1320
 0.9930	45.1670
 0.9940	45.1830
 0.9950	45.2170
 0.9960	45.2340
 0.9970	45.2450
 0.9980	45.2730
 0.9990	45.2960
 1.0000	45.3220
 1.0010	44.7190
 1.0020	44.7450
 1.0030	44.7740
 1.0040	44.8080
 1.0050	44.8410
 1.0060	44.8740
 1.0070	44.9080
 1.0080	44.9400
 1.0090	44.9700
 1.0100	45.0010
 1.0110	45.0310
 1.0120	45.0630
 1.0130	45.0960
 1.0140	45.1300
 1.0150	45.1660
 1.0160	45.1980
 1.0170	45.2320
 1.0180	45.2640
 1.0190	45.2960
 1.0200	45.3310
 1.0210	45.3620
 1.0220	45.3900
 1.0230	45.4220
 1.0240	45.4540
 1.0250	45.4850
 1.0260	45.5180
 1.0270	45.5490
 1.0280	45.5790
 1.0290	45.6090
 1.0300	45.6410
 1.0310	45.6700
 1.0320	45.6970
 1.0330	45.7180
 1.0340	45.7450
 1.0350	45.7720
 1.0360	45.7990
 1.0370	45.8290
 1.0380	45.8540
 1.0390	45.8730
 1.0400	45.8960
 1.0410	45.9190
 1.0420	45.9410
 1.0430	45.9650
 1.0440	45.9850
 1.0450	46.0030
 1.0460	46.0200
 1.0470	46.0370
 1.0480	46.0530
 1.0490	46.0700
 1.0500	46.0860
 1.0510	46.1000
 1.0520	46.1150
 1.0530	46.1290
 1.0540	46.1400
 1.0550	46.1540
 1.0560	46.1700
 1.0570	46.1820
 1.0580	46.1920
 1.0590	46.2040
 1.0600	46.2130
 1.0610	46.2230
 1.0620	46.2340
 1.0630	46.2430
 1.0640	46.2510
 1.0650	46.2580
 1.0660	46.2620
 1.0670	46.2680
 1.0680	46.2750
 1.0690	46.2820
 1.0700	46.2860
 1.0710	46.2910
 1.0720	46.2940
 1.0730	46.2930
 1.0740	46.2940
 1.0750	46.2990
 1.0760	46.3000
 1.0770	46.2970
 1.0780	46.2960
 1.0790	46.2940
 1.0800	46.2910
 1.0810	46.2900
 1.0820	46.2870
 1.0830	46.2810
 1.0840	46.2750
 1.0850	46.2680
 1.0860	46.2620
 1.0870	46.2550
 1.0880	46.2480
 1.0890	46.2390
 1.0900	46.2290
 1.0910	46.2190
 1.0920	46.2090
 1.0930	46.1970
 1.0940	46.1850
 1.0950	46.1720
 1.0960	46.1570
 1.0970	46.1430
 1.0980	46.1310
 1.0990	46.1170
 1.1000	46.1030
 1.1010	46.0870
 1.1020	46.0710
 1.1030	46.0530
 1.1040	46.0340
 1.1050	46.0160
 1.1060	45.9970
 1.1070	45.9770
 1.1080	45.9570
 1.1090	45.9390
 1.1100	45.9190
 1.1110	45.8970
 1.1120	45.8750
 1.1130	45.8530
 1.1140	45.8270
 1.1150	45.8010
 1.1160	45.7730
 1.1170	45.7440
 1.1180	45.7100
 1.1190	45.6750
 1.1200	45.6350
 1.1210	45.5940
 1.1220	45.5490
 1.1230	45.4970
 1.1240	45.4420
 1.1250	45.3790
 1.1260	45.3080
 1.1270	45.2300
 1.1280	45.1480
 1.1290	45.0550
 1.1300	44.9530
 1.1310	44.8400
 1.1320	44.7170
 1.1330	44.5840
 1.1340	44.4400
 1.1350	44.2880
 1.1360	44.1290
 1.1370	43.9590
 1.1380	43.7810
 1.1390	43.5970
 1.1400	43.4060
 1.1410	43.2150
 1.1420	43.0190
 1.1430	42.8200
 1.1440	42.6230
 1.1450	42.4220
 1.1460	42.2300
 1.1470	42.0400
 1.1480	41.8580
 1.1490	41.6780
 1.1500	41.5090
 1.1510	41.3450
 1.1520	41.1910
 1.1530	41.0450
 1.1540	40.9100
 1.1550	40.7830
 1.1560	40.6640
 1.1570	40.5560
 1.1580	40.4570
 1.1590	40.3650
 1.1600	40.2810
 1.1610	40.2050
 1.1620	40.1340
 1.1630	40.0680
 1.1640	40.0060
 1.1650	39.9490
 1.1660	39.8960
 1.1670	39.8490
 1.1680	39.8100
 1.1690	39.7680
 1.1700	39.7280
 1.1710	39.6900
 1.1720	39.6520
 1.1730	39.6170
 1.1740	39.5850
 1.1750	39.5530
 1.1760	39.5180
 1.1770	39.4850
 1.1780	39.4500
 1.1790	39.4150
 1.1800	39.3810
 1.1810	39.3470
 1.1820	39.3130
 1.1830	39.2810
 1.1840	39.2480
 1.1850	39.2170
 1.1860	39.1850
 1.1870	39.1530
 1.1880	39.1240
 1.1890	39.0950
 1.1900	39.0700
 1.1910	39.0490
 1.1920	39.0300
 1.1930	39.0140
 1.1940	38.9990
 1.1950	38.9860
 1.1960	38.9750
 1.1970	38.9670
 1.1980	38.9610
 1.1990	38.9610
 1.2000	38.9630
 1.2010	38.9680
 1.2020	38.9770
 1.2030	38.9870
 1.2040	38.9990
 1.2050	39.0140
 1.2060	39.0320
 1.2070	39.0540
 1.2080	39.0770
 1.2090	39.1020
 1.2100	39.1270
 1.2110	39.1530
 1.2120	39.1810
 1.2130	39.2110
 1.2140	39.2400
 1.2150	39.2730
 1.2160	39.3100
 1.2170	39.3440
 1.2180	39.3800
 1.2190	39.4180
 1.2200	39.4570
 1.2210	39.4950
 1.2220	39.5320
 1.2230	39.5710
 1.2240	39.6110
 1.2250	39.6490
 1.2260	39.6900
 1.2270	39.7300
 1.2280	39.7660
 1.2290	39.8030
 1.2300	39.8390
 1.2310	39.8740
 1.2320	39.9100
 1.2330	39.9460
 1.2340	39.9800
 1.2350	40.0100
 1.2360	40.0410
 1.2370	40.0710
 1.2380	40.1010
 1.2390	40.1320
 1.2400	40.1640
 1.2410	40.1930
 1.2420	40.2210
 1.2430	40.2490
 1.2440	40.2750
 1.2450	40.3000
 1.2460	40.3260
 1.2470	40.3510
 1.2480	40.3750
 1.2490	40.3990
 1.2500	40.4220
 1.2510	40.4430
 1.2520	40.4650
 1.2530	40.4840
 1.2540	40.5030
 1.2550	40.5230
 1.2560	40.5380
 1.2570	40.5530
 1.2580	40.5680
 1.2590	40.5810
 1.2600	40.5940
 1.2610	40.6040
 1.2620	40.6150
 1.2630	40.6230
 1.2640	40.6280
 1.2650	40.6330
 1.2660	40.6370
 1.2670	40.6400
 1.2680	40.6380
 1.2690	40.6350
 1.2700	40.6300
 1.2710	40.6220
 1.2720	40.6140
 1.2730	40.6050
 1.2740	40.5960
 1.2750	40.5870
 1.2760	40.5740
 1.2770	40.5610
 1.2780	40.5460
 1.2790	40.5280
 1.2800	40.5080
 1.2810	40.4880
 1.2820	40.4640
 1.2830	40.4390
 1.2840	40.4110
 1.2850	40.3820
 1.2860	40.3510
 1.2870	40.3180
 1.2880	40.2840
 1.2890	40.2460
 1.2900	40.2050
 1.2910	40.1620
 1.2920	40.1140
 1.2930	40.0650
 1.2940	40.0120
 1.2950	39.9560
 1.2960	39.9000
 1.2970	39.8410
 1.2980	39.7770
 1.2990	39.7110
 1.3000	39.6420
 1.3010	39.5700
 1.3020	39.4940
 1.3030	39.4160
 1.3040	39.3320
 1.3050	39.2440
 1.3060	39.1520
 1.3070	39.0550
 1.3080	38.9560
 1.3090	38.8540
 1.3100	38.7460
 1.3110	38.6360
 1.3120	38.5200
 1.3130	38.3990
 1.3140	38.2750
 1.3150	38.1490
 1.3160	38.0170
 1.3170	37.8820
 1.3180	37.7420
 1.3190	37.5990
 1.3200	37.4500
 1.3210	37.2950
 1.3220	37.1380
 1.3230	36.9770
 1.3240	36.8110
 1.3250	36.6450
 1.3260	36.4760
 1.3270	36.3020
 1.3280	36.1230
 1.3290	35.9400
 1.3300	35.7560
 1.3310	35.5710
 1.3320	35.3830
 1.3330	35.1960
 1.3340	35.0070
 1.3350	34.8170
 1.3360	34.6270
 1.3370	34.4360
 1.3380	34.2470
 1.3390	34.0590
 1.3400	33.8710
 1.3410	33.6880
 1.3420	33.5070
 1.3430	33.3260
 1.3440	33.1480
 1.3450	32.9700
 1.3460	32.7910
 1.3470	32.6180
 1.3480	32.4470
 1.3490	32.2800
 1.3500	32.1170
 1.3510	31.9540
 1.3520	31.7930
 1.3530	31.6340
 1.3540	31.4740
 1.3550	31.3160
 1.3560	31.1580
 1.3570	30.9960
 1.3580	30.8350
 1.3590	30.6700
 1.3600	30.5000
 1.3610	30.3270
 1.3620	30.1470
 1.3630	29.9610
 1.3640	29.7690
 1.3650	29.5670
 1.3660	29.3590
 1.3670	29.1410
 1.3680	28.9100
 1.3690	28.6670
 1.3700	28.4060
 1.3710	28.1310
 1.3720	27.8390
 1.3730	27.5260
 1.3740	27.1980
 1.3750	26.8480
 1.3760	26.4740
 1.3770	26.0760
 1.3780	25.6500
 1.3790	25.1990
 1.3800	24.7230
 1.3810	24.2180
 1.3820	23.6940
 1.3830	23.1460
 1.3840	22.5790
 1.3850	21.9890
 1.3860	21.3890
 1.3870	20.7650
 1.3880	20.1450
 1.3890	19.5160
 1.3900	18.8810
 1.3910	18.2560
 1.3920	17.6320
 1.3930	17.0100
 1.3940	16.4010
 1.3950	15.7970
 1.3960	15.2090
 1.3970	14.6400
 1.3980	14.0900
 1.3990	13.5670
 1.4000	13.0660
 1.4010	12.5860
 1.4020	12.1320
 1.4030	11.6990
 1.4040	11.2910
 1.4050	10.9080
 1.4060	10.5470
 1.4070	10.2120
 1.4080	 9.8980
 1.4090	 9.6020
 1.4100	 9.3290
 1.4110	 9.0730
 1.4120	 8.8360
 1.4130	 8.6150
 1.4140	 8.4090
 1.4150	 8.2210
 1.4160	 8.0460
 1.4170	 7.8820
 1.4180	 7.7320
 1.4190	 7.5910
 1.4200	 7.4590
 1.4210	 7.3370
 1.4220	 7.2220
 1.4230	 7.1160
 1.4240	 7.0180
 1.4250	 6.9250
 1.4260	 6.8400
 1.4270	 6.7610
 1.4280	 6.6890
 1.4290	 6.6210
 1.4300	 6.5590
 1.4310	 6.5000
 1.4320	 6.4460
 1.4330	 6.3960
 1.4340	 6.3510
 1.4350	 6.3090
 1.4360	 6.2710
 1.4370	 6.2370
 1.4380	 6.2050
 1.4390	 6.1760
 1.4400	 6.1500
 1.4410	 6.1270
 1.4420	 6.1060
 1.4430	 6.0880
 1.4440	 6.0730
 1.4450	 6.0590
 1.4460	 6.0480
 1.4470	 6.0390
 1.4480	 6.0300
 1.4490	 6.0240
 1.4500	 6.0190
 1.4510	 6.0160
 1.4520	 6.0150
 1.4530	 6.0150
 1.4540	 6.0160
 1.4550	 6.0190
 1.4560	 6.0250
 1.4570	 6.0330
 1.4580	 6.0440
 1.4590	 6.0560
 1.4600	 6.0710
 1.4610	 6.0890
 1.4620	 6.1100
 1.4630	 6.1340
 1.4640	 6.1600
 1.4650	 6.1890
 1.4660	 6.2220
 1.4670	 6.2570
 1.4680	 6.2980
 1.4690	 6.3410
 1.4700	 6.3870
 1.4710	 6.4380
 1.4720	 6.4900
 1.4730	 6.5440
 1.4740	 6.6020
 1.4750	 6.6620
 1.4760	 6.7250
 1.4770	 6.7910
 1.4780	 6.8580
 1.4790	 6.9280
 1.4800	 6.9990
 1.4810	 7.0710
 1.4820	 7.1460
 1.4830	 7.2230
 1.4840	 7.3030
 1.4850	 7.3850
 1.4860	 7.4670
 1.4870	 7.5510
 1.4880	 7.6350
 1.4890	 7.7200
 1.4900	 7.8070
 1.4910	 7.8960
 1.4920	 7.9860
 1.4930	 8.0790
 1.4940	 8.1720
 1.4950	 8.2670
 1.4960	 8.3620
 1.4970	 8.4590
 1.4980	 8.5560
 1.4990	 8.6550
 1.5000	 8.7540
 1.5010	 8.8560
 1.5020	 8.9580
 1.5030	 9.0610
 1.5040	 9.1640
 1.5050	 9.2670
 1.5060	 9.3720
 1.5070	 9.4780
 1.5080	 9.5840
 1.5090	 9.6910
 1.5100	 9.7990
 1.5110	 9.9060
 1.5120	10.0150
 1.5130	10.1220
 1.5140	10.2310
 1.5150	10.3390
 1.5160	10.4470
 1.5170	10.5570
 1.5180	10.6670
 1.5190	10.7760
 1.5200	10.8870
 1.5210	10.9960
 1.5220	11.1040
 1.5230	11.2140
 1.5240	11.3220
 1.5250	11.4320
 1.5260	11.5410
 1.5270	11.6490
 1.5280	11.7580
 1.5290	11.8660
 1.5300	11.9740
 1.5310	12.0810
 1.5320	12.1880
 1.5330	12.2940
 1.5340	12.4000
 1.5350	12.5070
 1.5360	12.6130
 1.5370	12.7180
 1.5380	12.8230
 1.5390	12.9270
 1.5400	13.0310
 1.5410	13.1360
 1.5420	13.2410
 1.5430	13.3450
 1.5440	13.4490
 1.5450	13.5510
 1.5460	13.6540
 1.5470	13.7560
 1.5480	13.8580
 1.5490	13.9590
 1.5500	14.0590
 1.5510	14.1580
 1.5520	14.2580
 1.5530	14.3570
 1.5540	14.4550
 1.5550	14.5530
 1.5560	14.6500
 1.5570	14.7460
 1.5580	14.8420
 1.5590	14.9360
 1.5600	15.0310
 1.5610	15.1240
 1.5620	15.2170
 1.5630	15.3100
 1.5640	15.4020
 1.5650	15.4930
 1.5660	15.5830
 1.5670	15.6720
 1.5680	15.7600
 1.5690	15.8490
 1.5700	15.9360
 1.5710	16.0250
 1.5720	16.1130
 1.5730	16.2010
 1.5740	16.2880
 1.5750	16.3740
 1.5760	16.4590
 1.5770	16.5430
 1.5780	16.6260
 1.5790	16.7100
 1.5800	16.7930
 1.5810	16.8770
 1.5820	16.9590
 1.5830	17.0410
 1.5840	17.1230
 1.5850	17.2040
 1.5860	17.2840
 1.5870	17.3650
 1.5880	17.4440
 1.5890	17.5240
 1.5900	17.6020
 1.5910	17.6810
 1.5920	17.7600
 1.5930	17.8370
 1.5940	17.9160
 1.5950	17.9940
 1.5960	18.0700
 1.5970	18.1470
 1.5980	18.2240
 1.5990	18.3000
 1.6000	18.3750
 1.6010	18.4480
 1.6020	18.5200
 1.6030	18.5920
 1.6040	18.6650
 1.6050	18.7370
 1.6060	18.8090
 1.6070	18.8790
 1.6080	18.9480
 1.6090	19.0150
 1.6100	19.0800
 1.6110	19.1450
 1.6120	19.2080
 1.6130	19.2690
 1.6140	19.3310
 1.6150	19.3900
 1.6160	19.4480
 1.6170	19.5050
 1.6180	19.5600
 1.6190	19.6140
 1.6200	19.6660
 1.6210	19.7180
 1.6220	19.7690
 1.6230	19.8220
 1.6240	19.8770
 1.6250	19.9300
 1.6260	19.9830
 1.6270	20.0370
 1.6280	20.0910
 1.6290	20.1450
 1.6300	20.2000
 1.6310	20.2530
 1.6320	20.3060
 1.6330	20.3580
 1.6340	20.4110
 1.6350	20.4630
 1.6360	20.5140
 1.6370	20.5630
 1.6380	20.6090
 1.6390	20.6540
 1.6400	20.6990
 1.6410	20.7410
 1.6420	20.7830
 1.6430	20.8220
 1.6440	20.8580
 1.6450	20.8930
 1.6460	20.9250
 1.6470	20.9560
 1.6480	20.9840
 1.6490	21.0110
 1.6500	21.0350
 1.6510	21.0550
 1.6520	21.0750
 1.6530	21.0920
 1.6540	21.1050
 1.6550	21.1190
 1.6560	21.1280
 1.6570	21.1330
 1.6580	21.1390
 1.6590	21.1430
 1.6600	21.1440
 1.6610	21.1440
 1.6620	21.1410
 1.6630	21.1360
 1.6640	21.1290
 1.6650	21.1210
 1.6660	21.1120
 1.6670	21.1010
 1.6680	21.0910
 1.6690	21.0790
 1.6700	21.0650
 1.6710	21.0500
 1.6720	21.0320
 1.6730	21.0120
 1.6740	20.9910
 1.6750	20.9690
 1.6760	20.9460
 1.6770	20.9200
 1.6780	20.8910
 1.6790	20.8590
 1.6800	20.8250
 1.6810	20.7880
 1.6820	20.7500
 1.6830	20.7100
 1.6840	20.6660
 1.6850	20.6210
 1.6860	20.5760
 1.6870	20.5300
 1.6880	20.4860
 1.6890	20.4450
 1.6900	20.4030
 1.6910	20.3620
 1.6920	20.3210
 1.6930	20.2810
 1.6940	20.2410
 1.6950	20.2030
 1.6960	20.1650
 1.6970	20.1260
 1.6980	20.0860
 1.6990	20.0460
 1.7000	20.0050
 1.7010	19.9610
 1.7020	19.9170
 1.7030	19.8710
 1.7040	19.8250
 1.7050	19.7760
 1.7060	19.7280
 1.7070	19.6780
 1.7080	19.6280
 1.7090	19.5780
 1.7100	19.5280
 1.7110	19.4770
 1.7120	19.4280
 1.7130	19.3770
 1.7140	19.3260
 1.7150	19.2760
 1.7160	19.2270
 1.7170	19.1800
 1.7180	19.1340
 1.7190	19.0890
 1.7200	19.0440
 1.7210	18.9980
 1.7220	18.9530
 1.7230	18.9080
 1.7240	18.8630
 1.7250	18.8200
 1.7260	18.7770
 1.7270	18.7340
 1.7280	18.6940
 1.7290	18.6540
 1.7300	18.6150
 1.7310	18.5760
 1.7320	18.5380
 1.7330	18.4980
 1.7340	18.4580
 1.7350	18.4170
 1.7360	18.3770
 1.7370	18.3340
 1.7380	18.2890
 1.7390	18.2420
 1.7400	18.1920
 1.7410	18.1400
 1.7420	18.0850
 1.7430	18.0270
 1.7440	17.9650
 1.7450	17.9020
 1.7460	17.8380
 1.7470	17.7730
 1.7480	17.7080
 1.7490	17.6420
 1.7500	17.5750
 1.7510	17.5080
 1.7520	17.4400
 1.7530	17.3750
 1.7540	17.3090
 1.7550	17.2460
 1.7560	17.1840
 1.7570	17.1210
 1.7580	17.0590
 1.7590	16.9970
 1.7600	16.9360
 1.7610	16.8800
 1.7620	16.8260
 1.7630	16.7760
 1.7640	16.7260
 1.7650	16.6760
 1.7660	16.6300
 1.7670	16.5880
 1.7680	16.5460
 1.7690	16.5060
 1.7700	16.4670
 1.7710	16.4270
 1.7720	16.3910
 1.7730	16.3580
 1.7740	16.3260
 1.7750	16.2960
 1.7760	16.2680
 1.7770	16.2400
 1.7780	16.2160
 1.7790	16.1930
 1.7800	16.1740
 1.7810	16.1580
 1.7820	16.1420
 1.7830	16.1280
 1.7840	16.1170
 1.7850	16.1050
 1.7860	16.1000
 1.7870	16.0990
 1.7880	16.0970
 1.7890	16.0970
 1.7900	16.0990
 1.7910	16.1010
 1.7920	16.1060
 1.7930	16.1120
 1.7940	16.1190
 1.7950	16.1270
 1.7960	16.1370
 1.7970	16.1490
 1.7980	16.1610
 1.7990	16.1730
 1.8000	16.1860
 1.8010	16.1980
 1.8020	16.2080
 1.8030	16.2220
 1.8040	16.2370
 1.8050	16.2510
 1.8060	16.2660
 1.8070	16.2800
 1.8080	16.2940
 1.8090	16.3070
 1.8100	16.3200
 1.8110	16.3310
 1.8120	16.3400
 1.8130	16.3490
 1.8140	16.3590
 1.8150	16.3700
 1.8160	16.3800
 1.8170	16.3890
 1.8180	16.3970
 1.8190	16.4030
 1.8200	16.4070
 1.8210	16.4080
 1.8220	16.4100
 1.8230	16.4120
 1.8240	16.4120
 1.8250	16.4130
 1.8260	16.4090
 1.8270	16.3980
 1.8280	16.3880
 1.8290	16.3750
 1.8300	16.3610
 1.8310	16.4410
 1.8320	16.4260
 1.8330	16.4050
 1.8340	16.3760
 1.8350	16.3460
 1.8360	16.3090
 1.8370	16.2620
 1.8380	16.2100
 1.8390	16.1560
 1.8400	16.0990
 1.8410	16.0340
 1.8420	15.9640
 1.8430	15.8900
 1.8440	15.8040
 1.8450	15.7120
 1.8460	15.6120
 1.8470	15.5030
 1.8480	15.3860
 1.8490	15.2570
 1.8500	15.1190
 1.8510	14.9730
 1.8520	14.8170
 1.8530	14.6490
 1.8540	14.4700
 1.8550	14.2790
 1.8560	14.0770
 1.8570	13.8600
 1.8580	13.6300
 1.8590	13.3900
 1.8600	13.1380
 1.8610	12.8730
 1.8620	12.5980
 1.8630	12.3150
 1.8640	12.0180
 1.8650	11.7090
 1.8660	11.3910
 1.8670	11.0560
 1.8680	10.7090
 1.8690	10.3550
 1.8700	 9.9930
 1.8710	 9.6200
 1.8720	 9.2460
 1.8730	 8.8690
 1.8740	 8.4880
 1.8750	 8.1100
 1.8760	 7.7310
 1.8770	 7.3620
 1.8780	 7.0020
 1.8790	 6.6470
 1.8800	 6.3070
 1.8810	 5.9800
 1.8820	 5.6620
 1.8830	 5.3570
 1.8840	 5.0690
 1.8850	 4.7900
 1.8860	 4.5250
 1.8870	 4.2780
 1.8880	 4.0480
 1.8890	 3.8370
 1.8900	 3.6440
 1.8910	 3.4640
 1.8920	 3.2970
 1.8930	 3.1460
 1.8940	 3.0090
 1.8950	 2.8910
 1.8960	 2.7900
 1.8970	 2.7000
 1.8980	 2.6230
 1.8990	 2.5550
 1.9000	 2.4910
 1.9010	 2.4360
 1.9020	 2.3850
 1.9030	 2.3410
 1.9040	 2.3030
 1.9050	 2.2710
 1.9060	 2.2450
 1.9070	 2.2230
 1.9080	 2.2010
 1.9090	 2.1820
 1.9100	 2.1690
 1.9110	 2.1570
 1.9120	 2.1490
 1.9130	 2.1400
 1.9140	 2.1310
 1.9150	 2.1210
 1.9160	 2.1130
 1.9170	 2.1030
 1.9180	 2.0940
 1.9190	 2.0890
 1.9200	 2.0860
 1.9210	 2.0860
 1.9220	 2.0840
 1.9230	 2.0830
 1.9240	 2.0810
 1.9250	 2.0800
 1.9260	 2.0780
 1.9270	 2.0740
 1.9280	 2.0730
 1.9290	 2.0730
 1.9300	 2.0700
 1.9310	 2.0680
 1.9320	 2.0680
 1.9330	 2.0680
 1.9340	 2.0690
 1.9350	 2.0700
 1.9360	 2.0730
 1.9370	 2.0750
 1.9380	 2.0770
 1.9390	 2.0760
 1.9400	 2.0770
 1.9410	 2.0780
 1.9420	 2.0780
 1.9430	 2.0830
 1.9440	 2.0870
 1.9450	 2.0900
 1.9460	 2.0940
 1.9470	 2.0980
 1.9480	 2.1010
 1.9490	 2.1030
 1.9500	 2.1080
 1.9510	 2.1100
 1.9520	 2.1110
 1.9530	 2.1150
 1.9540	 2.1180
 1.9550	 2.1240
 1.9560	 2.1330
 1.9570	 2.1400
 1.9580	 2.1480
 1.9590	 2.1550
 1.9600	 2.1590
 1.9610	 2.1650
 1.9620	 2.1710
 1.9630	 2.1770
 1.9640	 2.1830
 1.9650	 2.1900
 1.9660	 2.1970
 1.9670	 2.2050
 1.9680	 2.2130
 1.9690	 2.2210
 1.9700	 2.2300
 1.9710	 2.2410
 1.9720	 2.2500
 1.9730	 2.2590
 1.9740	 2.2680
 1.9750	 2.2790
 1.9760	 2.2890
 1.9770	 2.3000
 1.9780	 2.3120
 1.9790	 2.3230
 1.9800	 2.3320
 1.9810	 2.3440
 1.9820	 2.3570
 1.9830	 2.3690
 1.9840	 2.3830
 1.9850	 2.3970
 1.9860	 2.4100
 1.9870	 2.4240
 1.9880	 2.4410
 1.9890	 2.4530
 1.9900	 2.4690
 1.9910	 2.4860
 1.9920	 2.5030
 1.9930	 2.5210
 1.9940	 2.5380
 1.9950	 2.5550
 1.9960	 2.5710
 1.9970	 2.5880
 1.9980	 2.6050
 1.9990	 2.6230
 2.0000	 2.6410
 2.0010	 2.6590
 2.0020	 2.6790
 2.0030	 2.6990
 2.0040	 2.7210
 2.0050	 2.7410
 2.0060	 2.7600
 2.0070	 2.7810
 2.0080	 2.8000
 2.0090	 2.8200
 2.0100	 2.8400
 2.0110	 2.8610
 2.0120	 2.8830
 2.0130	 2.9040
 2.0140	 2.9260
 2.0150	 2.9470
 2.0160	 2.9660
 2.0170	 2.9880
 2.0180	 3.0080
 2.0190	 3.0290
 2.0200	 3.0510
 2.0210	 3.0730
 2.0220	 3.0950
 2.0230	 3.1170
 2.0240	 3.1390
 2.0250	 3.1610
 2.0260	 3.1830
 2.0270	 3.2050
 2.0280	 3.2290
 2.0290	 3.2510
 2.0300	 3.2720
 2.0310	 3.2950
 2.0320	 3.3180
 2.0330	 3.3410
 2.0340	 3.3660
 2.0350	 3.3890
 2.0360	 3.4100
 2.0370	 3.4320
 2.0380	 3.4540
 2.0390	 3.4760
 2.0400	 3.5000
 2.0410	 3.5230
 2.0420	 3.5460
 2.0430	 3.5690
 2.0440	 3.5900
 2.0450	 3.6090
 2.0460	 3.6300
 2.0470	 3.6510
 2.0480	 3.6700
 2.0490	 3.6890
 2.0500	 3.7100
 2.0510	 3.7310
 2.0520	 3.7540
 2.0530	 3.7830
 2.0540	 3.8090
 2.0550	 3.8330
 2.0560	 3.8590
 2.0570	 3.8810
 2.0580	 3.9030
 2.0590	 3.9260
 2.0600	 3.9470
 2.0610	 3.9700
 2.0620	 3.9930
 2.0630	 4.0180
 2.0640	 4.0430
 2.0650	 4.0700
 2.0660	 4.0990
 2.0670	 4.1260
 2.0680	 4.1530
 2.0690	 4.1800
 2.0700	 4.2040
 2.0710	 4.2300
 2.0720	 4.2570
 2.0730	 4.2850
 2.0740	 4.3130
 2.0750	 4.3430
 2.0760	 4.3710
 2.0770	 4.3990
 2.0780	 4.4250
 2.0790	 4.4460
 2.0800	 4.4710
 2.0810	 4.4960
 2.0820	 4.5230
 2.0830	 4.5530
 2.0840	 4.5820
 2.0850	 4.6110
 2.0860	 4.6400
 2.0870	 4.6690
 2.0880	 4.6960
 2.0890	 4.7230
 2.0900	 4.7500
 2.0910	 4.7770
 2.0920	 4.8040
 2.0930	 4.8300
 2.0940	 4.8550
 2.0950	 4.8830
 2.0960	 4.9130
 2.0970	 4.9410
 2.0980	 4.9720
 2.0990	 5.0020
 2.1000	 5.0290
 2.1010	 5.0590
 2.1020	 5.0920
 2.1030	 5.1220
 2.1040	 5.1530
 2.1050	 5.1800
 2.1060	 5.2100
 2.1070	 5.2370
 2.1080	 5.2680
 2.1090	 5.3010
 2.1100	 5.3310
 2.1110	 5.3590
 2.1120	 5.3880
 2.1130	 5.4150
 2.1140	 5.4440
 2.1150	 5.4750
 2.1160	 5.5040
 2.1170	 5.5320
 2.1180	 5.5620
 2.1190	 5.5910
 2.1200	 5.6220
 2.1210	 5.6550
 2.1220	 5.6870
 2.1230	 5.7150
 2.1240	 5.7390
 2.1250	 5.7680
 2.1260	 5.7940
 2.1270	 5.8230
 2.1280	 5.8580
 2.1290	 5.8880
 2.1300	 5.9150
 2.1310	 5.9430
 2.1320	 5.9730
 2.1330	 6.0010
 2.1340	 6.0290
 2.1350	 6.0550
 2.1360	 6.0790
 2.1370	 6.1040
 2.1380	 6.1320
 2.1390	 6.1570
 2.1400	 6.1800
 2.1410	 6.2030
 2.1420	 6.2250
 2.1430	 6.2450
 2.1440	 6.2680
 2.1450	 6.2940
 2.1460	 6.3190
 2.1470	 6.3440
 2.1480	 6.3700
 2.1490	 6.3980
 2.1500	 6.4230
 2.1510	 6.4490
 2.1520	 6.4730
 2.1530	 6.4950
 2.1540	 6.5160
 2.1550	 6.5350
 2.1560	 6.5570
 2.1570	 6.5820
 2.1580	 6.6050
 2.1590	 6.6290
 2.1600	 6.6520
 2.1610	 6.6730
 2.1620	 6.6950
 2.1630	 6.7160
 2.1640	 6.7370
 2.1650	 6.7580
 2.1660	 6.7780
 2.1670	 6.7980
 2.1680	 6.8180
 2.1690	 6.8400
 2.1700	 6.8610
 2.1710	 6.8840
 2.1720	 6.9120
 2.1730	 6.9360
 2.1740	 6.9590
 2.1750	 6.9800
 2.1760	 6.9960
 2.1770	 7.0150
 2.1780	 7.0340
 2.1790	 7.0530
 2.1800	 7.0730
 2.1810	 7.0930
 2.1820	 7.1140
 2.1830	 7.1340
 2.1840	 7.1540
 2.1850	 7.1760
 2.1860	 7.1960
 2.1870	 7.2150
 2.1880	 7.2340
 2.1890	 7.2540
 2.1900	 7.2730
 2.1910	 7.2890
 2.1920	 7.3090
 2.1930	 7.3320
 2.1940	 7.3530
 2.1950	 7.3800
 2.1960	 7.4000
 2.1970	 7.4100
 2.1980	 7.4270
 2.1990	 7.4440
 2.2000	 7.4590
 2.2010	 7.4770
 2.2020	 7.4920
 2.2030	 7.5000
 2.2040	 7.5110
 2.2050	 7.5240
 2.2060	 7.5330
 2.2070	 7.5430
 2.2080	 7.5520
 2.2090	 7.5620
 2.2100	 7.5750
 2.2110	 7.5820
 2.2120	 7.5910
 2.2130	 7.5950
 2.2140	 7.5940
 2.2150	 7.5960
 2.2160	 7.5970
 2.2170	 7.5980
 2.2180	 7.6010
 2.2190	 7.6000
 2.2200	 7.5970
 2.2210	 7.5920
 2.2220	 7.5820
 2.2230	 7.5720
 2.2240	 7.5610
 2.2250	 7.5490
 2.2260	 7.5370
 2.2270	 7.5220
 2.2280	 7.5040
 2.2290	 7.4850
 2.2300	 7.4620
 2.2310	 7.4390
 2.2320	 7.4120
 2.2330	 7.3850
 2.2340	 7.3580
 2.2350	 7.3300
 2.2360	 7.3010
 2.2370	 7.2730
 2.2380	 7.2430
 2.2390	 7.2140
 2.2400	 7.1810
 2.2410	 7.1480
 2.2420	 7.1120
 2.2430	 7.0750
 2.2440	 7.0360
 2.2450	 6.9960
 2.2460	 6.9530
 2.2470	 6.9030
 2.2480	 6.8560
 2.2490	 6.8050
 2.2500	 6.7580
 2.2510	 6.7160
 2.2520	 6.6690
 2.2530	 6.6210
 2.2540	 6.5740
 2.2550	 6.5230
 2.2560	 6.4770
 2.2570	 6.4360
 2.2580	 6.3930
 2.2590	 6.3500
 2.2600	 6.3060
 2.2610	 6.2600
 2.2620	 6.2100
 2.2630	 6.1620
 2.2640	 6.1150
 2.2650	 6.0730
 2.2660	 6.0380
 2.2670	 6.0010
 2.2680	 5.9680
 2.2690	 5.9310
 2.2700	 5.8890
 2.2710	 5.8550
 2.2720	 5.8250
 2.2730	 5.7950
 2.2740	 5.7690
 2.2750	 5.7410
 2.2760	 5.7120
 2.2770	 5.6820
 2.2780	 5.6520
 2.2790	 5.6230
 2.2800	 5.5920
 2.2810	 5.5650
 2.2820	 5.5410
 2.2830	 5.5150
 2.2840	 5.4900
 2.2850	 5.4640
 2.2860	 5.4390
 2.2870	 5.4110
 2.2880	 5.3800
 2.2890	 5.3510
 2.2900	 5.3160
 2.2910	 5.2890
 2.2920	 5.2720
 2.2930	 5.2460
 2.2940	 5.2170
 2.2950	 5.1910
 2.2960	 5.1580
 2.2970	 5.1290
 2.2980	 5.1010
 2.2990	 5.0800
 2.3000	 5.0560
 2.3010	 5.0270
 2.3020	 4.9960
 2.3030	 4.9680
 2.3040	 4.9430
 2.3050	 4.9160
 2.3060	 4.8940
 2.3070	 4.8710
 2.3080	 4.8410
 2.3090	 4.8130
 2.3100	 4.7900
 2.3110	 4.7640
 2.3120	 4.7420
 2.3130	 4.7210
 2.3140	 4.7040
 2.3150	 4.6920
 2.3160	 4.6760
 2.3170	 4.6640
 2.3180	 4.6460
 2.3190	 4.6220
 2.3200	 4.6020
 2.3210	 4.5800
 2.3220	 4.5600
 2.3230	 4.5430
 2.3240	 4.5230
 2.3250	 4.5030
 2.3260	 4.4850
 2.3270	 4.4670
 2.3280	 4.4500
 2.3290	 4.4390
 2.3300	 4.4180
 2.3310	 4.3870
 2.3320	 4.3640
 2.3330	 4.3420
 2.3340	 4.3170
 2.3350	 4.2990
 2.3360	 4.2740
 2.3370	 4.2380
 2.3380	 4.2110
 2.3390	 4.1850
 2.3400	 4.1620
 2.3410	 4.1420
 2.3420	 4.1210
 2.3430	 4.1070
 2.3440	 4.0870
 2.3450	 4.0640
 2.3460	 4.0440
 2.3470	 4.0220
 2.3480	 4.0010
 2.3490	 3.9880
 2.3500	 3.9710
 2.3510	 3.9510
 2.3520	 3.9300
 2.3530	 3.9050
 2.3540	 3.8800
 2.3550	 3.8610
 2.3560	 3.8470
 2.3570	 3.8350
 2.3580	 3.8200
 2.3590	 3.8030
 2.3600	 3.7850
 2.3610	 3.7760
 2.3620	 3.7680
 2.3630	 3.7460
 2.3640	 3.7280
 2.3650	 3.7070
 2.3660	 3.6780
 2.3670	 3.6630
 2.3680	 3.6570
 2.3690	 3.6390
 2.3700	 3.6230
 2.3710	 3.6010
 2.3720	 3.5660
 2.3730	 3.5510
 2.3740	 3.5370
 2.3750	 3.5270
 2.3760	 3.5210
 2.3770	 3.4970
 2.3780	 3.4800
 2.3790	 3.4660
 2.3800	 3.4540
 2.3810	 3.4480
 2.3820	 3.4380
 2.3830	 3.4160
 2.3840	 3.3850
 2.3850	 3.3550
 2.3860	 3.3290
 2.3870	 3.3030
 2.3880	 3.2830
 2.3890	 3.2720
 2.3900	 3.2500
 2.3910	 3.2340
 2.3920	 3.2280
 2.3930	 3.2210
 2.3940	 3.2140
 2.3950	 3.2000
 2.3960	 3.1860
 2.3970	 3.1640
 2.3980	 3.1370
 2.3990	 3.1160
 2.4000	 3.0900
 2.4010	 3.0710
 2.4020	 3.0690
 2.4030	 3.0510
 2.4040	 3.0300
 2.4050	 3.0090
 2.4060	 2.9720
 2.4070	 2.9530
 2.4080	 2.9490
 2.4090	 2.9430
 2.4100	 2.9450
 2.4110	 2.9340
 2.4120	 2.9150
 2.4130	 2.9000
 2.4140	 2.8710
 2.4150	 2.8540
 2.4160	 2.8400
 2.4170	 2.8140
 2.4180	 2.7900
 2.4190	 2.7660
 2.4200	 2.7580
 2.4210	 2.7610
 2.4220	 2.7500
 2.4230	 2.7340
 2.4240	 2.7170
 2.4250	 2.6950
 2.4260	 2.6940
 2.4270	 2.7010
 2.4280	 2.6910
 2.4290	 2.6770
 2.4300	 2.6670
 2.4310	 2.6540
 2.4320	 2.6440
 2.4330	 2.6320
 2.4340	 2.6020
 2.4350	 2.5800
 2.4360	 2.5720
 2.4370	 2.5630
 2.4380	 2.5610
 2.4390	 2.5450
 2.4400	 2.5300
 2.4410	 2.5360
 2.4420	 2.5270
 2.4430	 2.5110
 2.4440	 2.4980
 2.4450	 2.4640
 2.4460	 2.4310
 2.4470	 2.4160
 2.4480	 2.4100
 2.4490	 2.3870
 2.4500	 2.3800
 2.4510	 2.3880
 2.4520	 2.3740
 2.4530	 2.3850
 2.4540	 2.3890
 2.4550	 2.3670
 2.4560	 2.3550
 2.4570	 2.3300
 2.4580	 2.3280
 2.4590	 2.3440
 2.4600	 2.3420
 2.4610	 2.3390
 2.4620	 2.3200
 2.4630	 2.3010
 2.4640	 2.3000
 2.4650	 2.2940
 2.4660	 2.2850
 2.4670	 2.2780
 2.4680	 2.2700
 2.4690	 2.2890
 2.4700	 2.2880
 2.4710	 2.2760
 2.4720	 2.2680
 2.4730	 2.2500
 2.4740	 2.2410
 2.4750	 2.2500
 2.4760	 2.2360
 2.4770	 2.2060
 2.4780	 2.1780
 2.4790	 2.1200
 2.4800	 2.1070
 2.4810	 2.1290
 2.4820	 2.1380
 2.4830	 2.1820
 2.4840	 2.1780
 2.4850	 2.1390
 2.4860	 2.1470
 2.4870	 2.1460
 2.4880	 2.1570
 2.4890	 2.1680
 2.4900	 2.1410
 2.4910	 2.1240
 2.4920	 2.0940
 2.4930	 2.0860
 2.4940	 2.1310
 2.4950	 2.1190
 2.4960	 2.0730
 2.4970	 2.0830
 2.4980	 2.0770
 2.4990	 2.0760
 2.5000	 2.0880
