Name: Bambusa beecheyana
Type: vegetation
Class: Tree
Genus: Bambusa
Species: beecheyana
Sample No.: JPL238
Owner: JPL
Wavelength Range: TIR
Origin: 34.12719; -118.11127; WGS84
Collection Date: 10/6/2016
Description: Samples were collected at the Huntington Garden in San Marino California as part of a JPL Subcontract studying HyTES imagery. Samples were taken to JPL and processed within 48 hours of collection. The same leaves were processed in the Nicolet and then measured using the ASD.
Measurement: Hemispherical reflectance
First Column: X
Second Column: Y
X Units: Wavelength (micrometer)
Y Units: Reflectance (percentage)
First X Value: 2.501
Last X Value: 15.387
Number of X Values: 1737
Additional Information: vegetation.tree.bambusa.beecheyana.tir.jpl238.jpl.nicolet.ancillary.txt

 2.5010	 7.5190
 2.5030	 7.4780
 2.5040	 7.4780
 2.5050	 7.4610
 2.5060	 7.3860
 2.5070	 7.3290
 2.5090	 7.3260
 2.5100	 7.2890
 2.5110	 7.3150
 2.5120	 7.3120
 2.5140	 7.3350
 2.5150	 7.2790
 2.5160	 7.2670
 2.5170	 7.1620
 2.5180	 7.2280
 2.5200	 7.3750
 2.5210	 7.3890
 2.5220	 7.2360
 2.5230	 7.1680
 2.5250	 7.1150
 2.5260	 7.1720
 2.5270	 7.1950
 2.5280	 7.1610
 2.5300	 7.0820
 2.5310	 7.1550
 2.5320	 7.2000
 2.5330	 7.2610
 2.5340	 7.2100
 2.5360	 7.1660
 2.5370	 7.1510
 2.5380	 7.2000
 2.5390	 7.1920
 2.5410	 7.2210
 2.5420	 7.2210
 2.5430	 7.1680
 2.5440	 7.1510
 2.5460	 7.2020
 2.5470	 7.2000
 2.5480	 7.2010
 2.5490	 7.1920
 2.5510	 7.2520
 2.5520	 7.3120
 2.5530	 7.3600
 2.5540	 7.3500
 2.5560	 7.3600
 2.5570	 7.3280
 2.5580	 7.3510
 2.5590	 7.3030
 2.5610	 7.2560
 2.5620	 7.2060
 2.5630	 7.2500
 2.5650	 7.2690
 2.5660	 7.3810
 2.5670	 7.4740
 2.5680	 7.5090
 2.5700	 7.4340
 2.5710	 7.4110
 2.5720	 7.4050
 2.5730	 7.3860
 2.5750	 7.4150
 2.5760	 7.4410
 2.5770	 7.3600
 2.5790	 7.4020
 2.5800	 7.4030
 2.5810	 7.3780
 2.5820	 7.3490
 2.5840	 7.3140
 2.5850	 7.2240
 2.5860	 7.2230
 2.5880	 7.1250
 2.5890	 7.1560
 2.5900	 7.1600
 2.5910	 7.1520
 2.5930	 7.0330
 2.5940	 6.8370
 2.5950	 6.6920
 2.5970	 6.8860
 2.5980	 6.9940
 2.5990	 6.9890
 2.6010	 6.8990
 2.6020	 6.8590
 2.6030	 6.8360
 2.6040	 6.7530
 2.6060	 6.6280
 2.6070	 6.6100
 2.6080	 6.5590
 2.6100	 6.5310
 2.6110	 6.5130
 2.6120	 6.4880
 2.6140	 6.4040
 2.6150	 6.3120
 2.6160	 6.1210
 2.6180	 6.0370
 2.6190	 6.0150
 2.6200	 5.9570
 2.6220	 5.9050
 2.6230	 5.9220
 2.6240	 5.8780
 2.6260	 5.8380
 2.6270	 5.6730
 2.6280	 5.6820
 2.6300	 5.5510
 2.6310	 5.4080
 2.6320	 5.4120
 2.6340	 5.3480
 2.6350	 5.2250
 2.6360	 5.2140
 2.6380	 5.0640
 2.6390	 4.9610
 2.6400	 4.8850
 2.6420	 4.8620
 2.6430	 4.7860
 2.6440	 4.7550
 2.6460	 4.6610
 2.6470	 4.5650
 2.6480	 4.4660
 2.6500	 4.4220
 2.6510	 4.3040
 2.6520	 4.2130
 2.6540	 4.1180
 2.6550	 4.1050
 2.6570	 4.0230
 2.6580	 4.0020
 2.6590	 3.8910
 2.6610	 3.7720
 2.6620	 3.6490
 2.6630	 3.6540
 2.6650	 3.5660
 2.6660	 3.4240
 2.6670	 3.3350
 2.6690	 3.3020
 2.6700	 3.1460
 2.6720	 3.0910
 2.6730	 3.1110
 2.6740	 3.0530
 2.6760	 2.9810
 2.6770	 2.9930
 2.6780	 2.9000
 2.6800	 2.8180
 2.6810	 2.7860
 2.6830	 2.7640
 2.6840	 2.6790
 2.6850	 2.6750
 2.6870	 2.5770
 2.6880	 2.5020
 2.6900	 2.5100
 2.6910	 2.5270
 2.6920	 2.3820
 2.6940	 2.2560
 2.6950	 2.1960
 2.6970	 2.2770
 2.6980	 2.2500
 2.6990	 2.2130
 2.7010	 2.1730
 2.7020	 2.1770
 2.7040	 2.1400
 2.7050	 2.1470
 2.7060	 2.0900
 2.7080	 2.0670
 2.7090	 2.0270
 2.7110	 2.0330
 2.7120	 2.0350
 2.7130	 2.1000
 2.7150	 2.0470
 2.7160	 2.0250
 2.7180	 2.0070
 2.7190	 2.0000
 2.7210	 1.9410
 2.7220	 1.9880
 2.7230	 1.9600
 2.7250	 1.9360
 2.7260	 1.9010
 2.7280	 1.9160
 2.7290	 1.9300
 2.7310	 1.9600
 2.7320	 1.9490
 2.7340	 1.9990
 2.7350	 1.9630
 2.7360	 1.9890
 2.7380	 2.0220
 2.7390	 2.0020
 2.7410	 1.9400
 2.7420	 1.9860
 2.7440	 1.9480
 2.7450	 1.9740
 2.7470	 1.9860
 2.7480	 1.9560
 2.7490	 1.9470
 2.7510	 1.9830
 2.7520	 1.9700
 2.7540	 1.9620
 2.7550	 1.8710
 2.7570	 1.8770
 2.7580	 1.7950
 2.7600	 1.8020
 2.7610	 1.8580
 2.7630	 1.8840
 2.7640	 1.8570
 2.7660	 1.8770
 2.7670	 1.8800
 2.7690	 1.8690
 2.7700	 1.8060
 2.7720	 1.8130
 2.7730	 1.7840
 2.7740	 1.8730
 2.7760	 1.8830
 2.7770	 1.8870
 2.7790	 1.8150
 2.7800	 1.8180
 2.7820	 1.8760
 2.7830	 1.9600
 2.7850	 1.8880
 2.7860	 1.8630
 2.7880	 1.8490
 2.7890	 1.9350
 2.7910	 1.8950
 2.7920	 1.8790
 2.7940	 1.8520
 2.7950	 1.8410
 2.7970	 1.7980
 2.7980	 1.8500
 2.8000	 1.8280
 2.8010	 1.8700
 2.8030	 1.7860
 2.8040	 1.7490
 2.8060	 1.7630
 2.8080	 1.8250
 2.8090	 1.8200
 2.8110	 1.9350
 2.8120	 1.9320
 2.8140	 1.8980
 2.8150	 1.8650
 2.8170	 1.8920
 2.8180	 1.8370
 2.8200	 1.7850
 2.8210	 1.7550
 2.8230	 1.8080
 2.8240	 1.8290
 2.8260	 1.8790
 2.8270	 1.8360
 2.8290	 1.8000
 2.8310	 1.7220
 2.8320	 1.7760
 2.8340	 1.8380
 2.8350	 1.8340
 2.8370	 1.7440
 2.8380	 1.8340
 2.8400	 1.8280
 2.8410	 1.8050
 2.8430	 1.7650
 2.8440	 1.7700
 2.8460	 1.7280
 2.8480	 1.7870
 2.8490	 1.7450
 2.8510	 1.7730
 2.8520	 1.7320
 2.8540	 1.7230
 2.8550	 1.7230
 2.8570	 1.8140
 2.8590	 1.7950
 2.8600	 1.7600
 2.8620	 1.7480
 2.8630	 1.7790
 2.8650	 1.7410
 2.8660	 1.8230
 2.8680	 1.7820
 2.8700	 1.7810
 2.8710	 1.7780
 2.8730	 1.7000
 2.8740	 1.6400
 2.8760	 1.7160
 2.8780	 1.7040
 2.8790	 1.7140
 2.8810	 1.6440
 2.8820	 1.6500
 2.8840	 1.6700
 2.8860	 1.7170
 2.8870	 1.6790
 2.8890	 1.7240
 2.8900	 1.6960
 2.8920	 1.7120
 2.8940	 1.7250
 2.8950	 1.7630
 2.8970	 1.7760
 2.8990	 1.8020
 2.9000	 1.7430
 2.9020	 1.7470
 2.9030	 1.6970
 2.9050	 1.7010
 2.9070	 1.7060
 2.9080	 1.7320
 2.9100	 1.6860
 2.9120	 1.7260
 2.9130	 1.7100
 2.9150	 1.7400
 2.9160	 1.6800
 2.9180	 1.6680
 2.9200	 1.6780
 2.9210	 1.7050
 2.9230	 1.6820
 2.9250	 1.7190
 2.9260	 1.7020
 2.9280	 1.6870
 2.9300	 1.6220
 2.9310	 1.6530
 2.9330	 1.6520
 2.9350	 1.6790
 2.9360	 1.6660
 2.9380	 1.7120
 2.9400	 1.6310
 2.9410	 1.6140
 2.9430	 1.5770
 2.9450	 1.6080
 2.9460	 1.5820
 2.9480	 1.6090
 2.9500	 1.5750
 2.9510	 1.6310
 2.9530	 1.5940
 2.9550	 1.5970
 2.9560	 1.5930
 2.9580	 1.6370
 2.9600	 1.6090
 2.9610	 1.6120
 2.9630	 1.6300
 2.9650	 1.6210
 2.9670	 1.5360
 2.9680	 1.6010
 2.9700	 1.5700
 2.9720	 1.5660
 2.9730	 1.5740
 2.9750	 1.6090
 2.9770	 1.5920
 2.9780	 1.6220
 2.9800	 1.6050
 2.9820	 1.5960
 2.9840	 1.5970
 2.9850	 1.6640
 2.9870	 1.6040
 2.9890	 1.6270
 2.9900	 1.6430
 2.9920	 1.6810
 2.9940	 1.5720
 2.9960	 1.5480
 2.9970	 1.5610
 2.9990	 1.5780
 3.0010	 1.5340
 3.0030	 1.5640
 3.0040	 1.5510
 3.0060	 1.6280
 3.0080	 1.6500
 3.0100	 1.6570
 3.0110	 1.6140
 3.0130	 1.6270
 3.0150	 1.5480
 3.0170	 1.5370
 3.0180	 1.5900
 3.0200	 1.6960
 3.0220	 1.6220
 3.0240	 1.5830
 3.0250	 1.5650
 3.0270	 1.5930
 3.0290	 1.5710
 3.0310	 1.5990
 3.0320	 1.6160
 3.0340	 1.5980
 3.0360	 1.5410
 3.0380	 1.6030
 3.0400	 1.5380
 3.0410	 1.4960
 3.0430	 1.5180
 3.0450	 1.5590
 3.0470	 1.5570
 3.0480	 1.5580
 3.0500	 1.5140
 3.0520	 1.5820
 3.0540	 1.5500
 3.0560	 1.5820
 3.0570	 1.5940
 3.0590	 1.5830
 3.0610	 1.5650
 3.0630	 1.5490
 3.0650	 1.5370
 3.0670	 1.6200
 3.0680	 1.5720
 3.0700	 1.5150
 3.0720	 1.4940
 3.0740	 1.5300
 3.0760	 1.5040
 3.0770	 1.5880
 3.0790	 1.5570
 3.0810	 1.5790
 3.0830	 1.5610
 3.0850	 1.5870
 3.0870	 1.5440
 3.0880	 1.5350
 3.0900	 1.5390
 3.0920	 1.6090
 3.0940	 1.5960
 3.0960	 1.6210
 3.0980	 1.6060
 3.1000	 1.6020
 3.1010	 1.5820
 3.1030	 1.5900
 3.1050	 1.5140
 3.1070	 1.5510
 3.1090	 1.5800
 3.1110	 1.5680
 3.1130	 1.4950
 3.1140	 1.5020
 3.1160	 1.4930
 3.1180	 1.5690
 3.1200	 1.5700
 3.1220	 1.5850
 3.1240	 1.5840
 3.1260	 1.6290
 3.1280	 1.6370
 3.1290	 1.6500
 3.1310	 1.5930
 3.1330	 1.5750
 3.1350	 1.5020
 3.1370	 1.5480
 3.1390	 1.6000
 3.1410	 1.6240
 3.1430	 1.5680
 3.1450	 1.5920
 3.1470	 1.5870
 3.1480	 1.5930
 3.1500	 1.5330
 3.1520	 1.5390
 3.1540	 1.5830
 3.1560	 1.6240
 3.1580	 1.5960
 3.1600	 1.5700
 3.1620	 1.5090
 3.1640	 1.5360
 3.1660	 1.5260
 3.1680	 1.5690
 3.1700	 1.6420
 3.1720	 1.7010
 3.1730	 1.6350
 3.1750	 1.5910
 3.1770	 1.5700
 3.1790	 1.6070
 3.1810	 1.5780
 3.1830	 1.6100
 3.1850	 1.5960
 3.1870	 1.5930
 3.1890	 1.5740
 3.1910	 1.5800
 3.1930	 1.5580
 3.1950	 1.6010
 3.1970	 1.5750
 3.1990	 1.5890
 3.2010	 1.5530
 3.2030	 1.5670
 3.2050	 1.5780
 3.2070	 1.6020
 3.2090	 1.5590
 3.2110	 1.5860
 3.2130	 1.5790
 3.2150	 1.5940
 3.2170	 1.5990
 3.2190	 1.6120
 3.2210	 1.5630
 3.2230	 1.5670
 3.2250	 1.5330
 3.2270	 1.5560
 3.2290	 1.5730
 3.2310	 1.6300
 3.2330	 1.6050
 3.2350	 1.6070
 3.2370	 1.5570
 3.2390	 1.5710
 3.2410	 1.5910
 3.2430	 1.6270
 3.2450	 1.5920
 3.2470	 1.6110
 3.2490	 1.5850
 3.2510	 1.6050
 3.2530	 1.6120
 3.2550	 1.5920
 3.2570	 1.5480
 3.2590	 1.5710
 3.2610	 1.5930
 3.2630	 1.6320
 3.2650	 1.5980
 3.2670	 1.5980
 3.2700	 1.6110
 3.2720	 1.6320
 3.2740	 1.6060
 3.2760	 1.5850
 3.2780	 1.5080
 3.2800	 1.5400
 3.2820	 1.5520
 3.2840	 1.5840
 3.2860	 1.5380
 3.2880	 1.5660
 3.2900	 1.5680
 3.2920	 1.6120
 3.2940	 1.6170
 3.2970	 1.6180
 3.2990	 1.6010
 3.3010	 1.6170
 3.3030	 1.5760
 3.3050	 1.5640
 3.3070	 1.5640
 3.3090	 1.6210
 3.3110	 1.6130
 3.3130	 1.6210
 3.3160	 1.5910
 3.3180	 1.6110
 3.3200	 1.5930
 3.3220	 1.5650
 3.3240	 1.5210
 3.3260	 1.5650
 3.3280	 1.5480
 3.3300	 1.5290
 3.3330	 1.5130
 3.3350	 1.5400
 3.3370	 1.5350
 3.3390	 1.5680
 3.3410	 1.5420
 3.3430	 1.5650
 3.3450	 1.5840
 3.3480	 1.5530
 3.3500	 1.5070
 3.3520	 1.5260
 3.3540	 1.5120
 3.3560	 1.5180
 3.3580	 1.4640
 3.3610	 1.4850
 3.3630	 1.5100
 3.3650	 1.5220
 3.3670	 1.4710
 3.3690	 1.5150
 3.3720	 1.5130
 3.3740	 1.5070
 3.3760	 1.5130
 3.3780	 1.5710
 3.3800	 1.5910
 3.3830	 1.6090
 3.3850	 1.5440
 3.3870	 1.5420
 3.3890	 1.5860
 3.3910	 1.6290
 3.3940	 1.5760
 3.3960	 1.5740
 3.3980	 1.5740
 3.4000	 1.6260
 3.4030	 1.6630
 3.4050	 1.7450
 3.4070	 1.8220
 3.4090	 1.8760
 3.4110	 1.9100
 3.4140	 2.0110
 3.4160	 2.1320
 3.4180	 2.3300
 3.4200	 2.5860
 3.4230	 2.9700
 3.4250	 3.3070
 3.4270	 3.5700
 3.4300	 3.6490
 3.4320	 3.5370
 3.4340	 3.2410
 3.4360	 2.9780
 3.4390	 2.7110
 3.4410	 2.5640
 3.4430	 2.4810
 3.4450	 2.4430
 3.4480	 2.3730
 3.4500	 2.3870
 3.4520	 2.3760
 3.4550	 2.3120
 3.4570	 2.2080
 3.4590	 2.2200
 3.4620	 2.2220
 3.4640	 2.1660
 3.4660	 2.1120
 3.4690	 2.1060
 3.4710	 2.0770
 3.4730	 2.0540
 3.4760	 1.9890
 3.4780	 1.9600
 3.4800	 1.9800
 3.4830	 1.9880
 3.4850	 1.9120
 3.4870	 1.9080
 3.4900	 1.9150
 3.4920	 1.9090
 3.4940	 1.8880
 3.4970	 1.9220
 3.4990	 1.9580
 3.5010	 2.0630
 3.5040	 2.1610
 3.5060	 2.4780
 3.5080	 3.0210
 3.5110	 3.4960
 3.5130	 3.4590
 3.5160	 3.1340
 3.5180	 2.8510
 3.5200	 2.6970
 3.5230	 2.5310
 3.5250	 2.4550
 3.5280	 2.4060
 3.5300	 2.3960
 3.5320	 2.3590
 3.5350	 2.3500
 3.5370	 2.3110
 3.5400	 2.2890
 3.5420	 2.2170
 3.5440	 2.2300
 3.5470	 2.2160
 3.5490	 2.2090
 3.5520	 2.1860
 3.5540	 2.1550
 3.5570	 2.1270
 3.5590	 2.1610
 3.5610	 2.1390
 3.5640	 2.0800
 3.5660	 2.0430
 3.5690	 2.0610
 3.5710	 2.0510
 3.5740	 2.1150
 3.5760	 2.1520
 3.5790	 2.1650
 3.5810	 2.1500
 3.5840	 2.1390
 3.5860	 2.1020
 3.5890	 2.1090
 3.5910	 2.1030
 3.5940	 2.1050
 3.5960	 2.1030
 3.5990	 2.1180
 3.6010	 2.1300
 3.6040	 2.1210
 3.6060	 2.0790
 3.6090	 2.0850
 3.6110	 2.0920
 3.6140	 2.1250
 3.6160	 2.1380
 3.6190	 2.1640
 3.6210	 2.1390
 3.6240	 2.1520
 3.6260	 2.1350
 3.6290	 2.1360
 3.6310	 2.1290
 3.6340	 2.1870
 3.6360	 2.1660
 3.6390	 2.1550
 3.6410	 2.1520
 3.6440	 2.1630
 3.6470	 2.1460
 3.6490	 2.1630
 3.6520	 2.1640
 3.6540	 2.1710
 3.6570	 2.1540
 3.6590	 2.1890
 3.6620	 2.2260
 3.6650	 2.2490
 3.6670	 2.2040
 3.6700	 2.1920
 3.6720	 2.2120
 3.6750	 2.2550
 3.6780	 2.2200
 3.6800	 2.2160
 3.6830	 2.2430
 3.6850	 2.2630
 3.6880	 2.2570
 3.6910	 2.2840
 3.6930	 2.2890
 3.6960	 2.3060
 3.6990	 2.2860
 3.7010	 2.2790
 3.7040	 2.3010
 3.7070	 2.3060
 3.7090	 2.3090
 3.7120	 2.3440
 3.7150	 2.3580
 3.7170	 2.3940
 3.7200	 2.3820
 3.7230	 2.4070
 3.7250	 2.4110
 3.7280	 2.4160
 3.7310	 2.3950
 3.7330	 2.4170
 3.7360	 2.4460
 3.7390	 2.4870
 3.7410	 2.4720
 3.7440	 2.4800
 3.7470	 2.4720
 3.7490	 2.4820
 3.7520	 2.5130
 3.7550	 2.5740
 3.7580	 2.5800
 3.7600	 2.5840
 3.7630	 2.6160
 3.7660	 2.6390
 3.7690	 2.6160
 3.7710	 2.6240
 3.7740	 2.6330
 3.7770	 2.6440
 3.7790	 2.6380
 3.7820	 2.7040
 3.7850	 2.7030
 3.7880	 2.7190
 3.7910	 2.7360
 3.7930	 2.7820
 3.7960	 2.7570
 3.7990	 2.7460
 3.8020	 2.7400
 3.8040	 2.7750
 3.8070	 2.8160
 3.8100	 2.8370
 3.8130	 2.8420
 3.8160	 2.8710
 3.8180	 2.8500
 3.8210	 2.8620
 3.8240	 2.8670
 3.8270	 2.9040
 3.8300	 2.9140
 3.8330	 2.9430
 3.8350	 2.9230
 3.8380	 2.9200
 3.8410	 2.9640
 3.8440	 2.9910
 3.8470	 2.9820
 3.8500	 2.9930
 3.8520	 2.9990
 3.8550	 3.0100
 3.8580	 2.9830
 3.8610	 2.9940
 3.8640	 3.0150
 3.8670	 3.0520
 3.8700	 3.0460
 3.8730	 3.0540
 3.8760	 3.0770
 3.8780	 3.0990
 3.8810	 3.0720
 3.8840	 3.0770
 3.8870	 3.0780
 3.8900	 3.0900
 3.8930	 3.0810
 3.8960	 3.0890
 3.8990	 3.0760
 3.9020	 3.0890
 3.9050	 3.0800
 3.9080	 3.1090
 3.9110	 3.1060
 3.9140	 3.1210
 3.9170	 3.1440
 3.9190	 3.1370
 3.9220	 3.1120
 3.9250	 3.1430
 3.9280	 3.1340
 3.9310	 3.1260
 3.9340	 3.0880
 3.9370	 3.1110
 3.9400	 3.1190
 3.9430	 3.1090
 3.9460	 3.1120
 3.9490	 3.1560
 3.9520	 3.1350
 3.9550	 3.1180
 3.9580	 3.1120
 3.9610	 3.1310
 3.9640	 3.1120
 3.9670	 3.0930
 3.9700	 3.0900
 3.9740	 3.1000
 3.9770	 3.1020
 3.9800	 3.1360
 3.9830	 3.1360
 3.9860	 3.1180
 3.9890	 3.1100
 3.9920	 3.1320
 3.9950	 3.1170
 3.9980	 3.1240
 4.0010	 3.1320
 4.0040	 3.1220
 4.0070	 3.0960
 4.0100	 3.1100
 4.0140	 3.1190
 4.0170	 3.1360
 4.0200	 3.1310
 4.0230	 3.1180
 4.0260	 3.1300
 4.0290	 3.1690
 4.0320	 3.1530
 4.0350	 3.1330
 4.0390	 3.1470
 4.0420	 3.1660
 4.0450	 3.1360
 4.0480	 3.1680
 4.0510	 3.1730
 4.0540	 3.1560
 4.0570	 3.1420
 4.0610	 3.1390
 4.0640	 3.1090
 4.0670	 3.1190
 4.0700	 3.1150
 4.0730	 3.1120
 4.0770	 3.1190
 4.0800	 3.1300
 4.0830	 3.1070
 4.0860	 3.1080
 4.0890	 3.0720
 4.0930	 3.0530
 4.0960	 3.0480
 4.0990	 3.0450
 4.1020	 3.0560
 4.1060	 3.0860
 4.1090	 3.0980
 4.1120	 3.1000
 4.1150	 3.0580
 4.1190	 3.0420
 4.1220	 3.0310
 4.1250	 3.0070
 4.1290	 3.0020
 4.1320	 3.0400
 4.1350	 3.0250
 4.1380	 3.0030
 4.1420	 2.9820
 4.1450	 2.9890
 4.1480	 2.9730
 4.1520	 2.9680
 4.1550	 2.9730
 4.1580	 3.0030
 4.1620	 2.9830
 4.1650	 2.9340
 4.1680	 2.8840
 4.1720	 2.8660
 4.1750	 2.8760
 4.1780	 2.9080
 4.1820	 2.8970
 4.1850	 2.8520
 4.1890	 2.8440
 4.1920	 2.8770
 4.1950	 2.8470
 4.1990	 2.8300
 4.2020	 2.8270
 4.2060	 2.8270
 4.2090	 2.7740
 4.2120	 2.8020
 4.2160	 2.8380
 4.2190	 2.8520
 4.2230	 2.8010
 4.2260	 2.7520
 4.2300	 2.7430
 4.2330	 2.7750
 4.2360	 2.6970
 4.2400	 2.7090
 4.2430	 2.6360
 4.2470	 2.7000
 4.2500	 2.7480
 4.2540	 2.7350
 4.2570	 2.6600
 4.2610	 2.6680
 4.2640	 2.7070
 4.2680	 2.7040
 4.2710	 2.6810
 4.2750	 2.6730
 4.2780	 2.6200
 4.2820	 2.5750
 4.2850	 2.5480
 4.2890	 2.5310
 4.2930	 2.5320
 4.2960	 2.5700
 4.3000	 2.5330
 4.3030	 2.5340
 4.3070	 2.5490
 4.3100	 2.5260
 4.3140	 2.4830
 4.3180	 2.4700
 4.3210	 2.4650
 4.3250	 2.4450
 4.3280	 2.4060
 4.3320	 2.4450
 4.3360	 2.4410
 4.3390	 2.3890
 4.3430	 2.4030
 4.3470	 2.4300
 4.3500	 2.3810
 4.3540	 2.3710
 4.3580	 2.3840
 4.3610	 2.3810
 4.3650	 2.3540
 4.3690	 2.3460
 4.3720	 2.3490
 4.3760	 2.3410
 4.3800	 2.3240
 4.3830	 2.3280
 4.3870	 2.3360
 4.3910	 2.3170
 4.3940	 2.2560
 4.3980	 2.2560
 4.4020	 2.2890
 4.4060	 2.3000
 4.4090	 2.2760
 4.4130	 2.2590
 4.4170	 2.2250
 4.4210	 2.2080
 4.4240	 2.1930
 4.4280	 2.2080
 4.4320	 2.2040
 4.4360	 2.1640
 4.4400	 2.1630
 4.4430	 2.1930
 4.4470	 2.1980
 4.4510	 2.1930
 4.4550	 2.1720
 4.4590	 2.1440
 4.4630	 2.1290
 4.4660	 2.1400
 4.4700	 2.1400
 4.4740	 2.1120
 4.4780	 2.0820
 4.4820	 2.1240
 4.4860	 2.1530
 4.4900	 2.1310
 4.4930	 2.0970
 4.4970	 2.1090
 4.5010	 2.1080
 4.5050	 2.1060
 4.5090	 2.0900
 4.5130	 2.1030
 4.5170	 2.1090
 4.5210	 2.1150
 4.5250	 2.1290
 4.5290	 2.1210
 4.5330	 2.0930
 4.5370	 2.0640
 4.5410	 2.0660
 4.5450	 2.0790
 4.5490	 2.0790
 4.5530	 2.0670
 4.5570	 2.0350
 4.5610	 2.0650
 4.5650	 2.0750
 4.5690	 2.0520
 4.5730	 2.0420
 4.5770	 2.0370
 4.5810	 2.0250
 4.5850	 2.0090
 4.5890	 1.9860
 4.5930	 1.9970
 4.5970	 2.0390
 4.6010	 2.0450
 4.6050	 2.0190
 4.6090	 2.0130
 4.6130	 2.0530
 4.6170	 2.0510
 4.6220	 2.0270
 4.6260	 2.0180
 4.6300	 1.9840
 4.6340	 1.9840
 4.6380	 1.9880
 4.6420	 1.9990
 4.6460	 1.9990
 4.6510	 1.9880
 4.6550	 1.9900
 4.6590	 1.9800
 4.6630	 1.9660
 4.6670	 1.9840
 4.6720	 2.0020
 4.6760	 2.0030
 4.6800	 1.9900
 4.6840	 1.9900
 4.6880	 2.0250
 4.6930	 2.0170
 4.6970	 2.0010
 4.7010	 2.0140
 4.7050	 2.0070
 4.7100	 2.0020
 4.7140	 1.9900
 4.7180	 1.9670
 4.7230	 1.9700
 4.7270	 1.9940
 4.7310	 1.9810
 4.7360	 1.9790
 4.7400	 2.0190
 4.7440	 2.0350
 4.7490	 1.9980
 4.7530	 1.9940
 4.7570	 1.9940
 4.7620	 2.0030
 4.7660	 2.0300
 4.7700	 2.0510
 4.7750	 2.0460
 4.7790	 2.0020
 4.7840	 2.0130
 4.7880	 2.0550
 4.7920	 2.0340
 4.7970	 2.0190
 4.8010	 2.0430
 4.8060	 2.0660
 4.8100	 2.0750
 4.8150	 2.0520
 4.8190	 2.0210
 4.8240	 1.9960
 4.8280	 2.0020
 4.8330	 2.0350
 4.8370	 2.0410
 4.8420	 2.0390
 4.8460	 2.0610
 4.8510	 2.0710
 4.8550	 2.0460
 4.8600	 2.0240
 4.8640	 2.0510
 4.8690	 2.0570
 4.8740	 2.0780
 4.8780	 2.0800
 4.8830	 2.0640
 4.8870	 2.0600
 4.8920	 2.0630
 4.8970	 2.0660
 4.9010	 2.1010
 4.9060	 2.1010
 4.9100	 2.1230
 4.9150	 2.1480
 4.9200	 2.1320
 4.9240	 2.1390
 4.9290	 2.1510
 4.9340	 2.0990
 4.9390	 2.1220
 4.9430	 2.1790
 4.9480	 2.1580
 4.9530	 2.1650
 4.9570	 2.1930
 4.9620	 2.1860
 4.9670	 2.1820
 4.9720	 2.1970
 4.9760	 2.2400
 4.9810	 2.2350
 4.9860	 2.2420
 4.9910	 2.2350
 4.9960	 2.2450
 5.0000	 2.2450
 5.0050	 2.2630
 5.0100	 2.2750
 5.0150	 2.2810
 5.0200	 2.2970
 5.0250	 2.3070
 5.0300	 2.2920
 5.0340	 2.3230
 5.0390	 2.3410
 5.0440	 2.3410
 5.0490	 2.3520
 5.0540	 2.3740
 5.0590	 2.3940
 5.0640	 2.4260
 5.0690	 2.4290
 5.0740	 2.4490
 5.0790	 2.4390
 5.0840	 2.4110
 5.0890	 2.4200
 5.0940	 2.4500
 5.0990	 2.4270
 5.1040	 2.4430
 5.1090	 2.4720
 5.1140	 2.4930
 5.1190	 2.5050
 5.1240	 2.5130
 5.1290	 2.4930
 5.1340	 2.5070
 5.1390	 2.5230
 5.1440	 2.5510
 5.1490	 2.5560
 5.1550	 2.5730
 5.1600	 2.5850
 5.1650	 2.6170
 5.1700	 2.6500
 5.1750	 2.6610
 5.1800	 2.6250
 5.1850	 2.6280
 5.1910	 2.6360
 5.1960	 2.6430
 5.2010	 2.6390
 5.2060	 2.6480
 5.2110	 2.6320
 5.2170	 2.6670
 5.2220	 2.7130
 5.2270	 2.7280
 5.2330	 2.7030
 5.2380	 2.7160
 5.2430	 2.7230
 5.2480	 2.7130
 5.2540	 2.7170
 5.2590	 2.7200
 5.2640	 2.6850
 5.2700	 2.6930
 5.2750	 2.7080
 5.2800	 2.7350
 5.2860	 2.7530
 5.2910	 2.7370
 5.2970	 2.7040
 5.3020	 2.7160
 5.3080	 2.6990
 5.3130	 2.7070
 5.3180	 2.7130
 5.3240	 2.7230
 5.3290	 2.7220
 5.3350	 2.7520
 5.3400	 2.7120
 5.3460	 2.6820
 5.3510	 2.6970
 5.3570	 2.6890
 5.3620	 2.6620
 5.3680	 2.6540
 5.3740	 2.6500
 5.3790	 2.6860
 5.3850	 2.7000
 5.3900	 2.6790
 5.3960	 2.6420
 5.4010	 2.6260
 5.4070	 2.6020
 5.4130	 2.5810
 5.4180	 2.5380
 5.4240	 2.5290
 5.4300	 2.5390
 5.4350	 2.5420
 5.4410	 2.5310
 5.4470	 2.5460
 5.4530	 2.5290
 5.4580	 2.5140
 5.4640	 2.4950
 5.4700	 2.4830
 5.4760	 2.4430
 5.4810	 2.4480
 5.4870	 2.4450
 5.4930	 2.4330
 5.4990	 2.4110
 5.5050	 2.3970
 5.5110	 2.3650
 5.5160	 2.3440
 5.5220	 2.2890
 5.5280	 2.2890
 5.5340	 2.2880
 5.5400	 2.2920
 5.5460	 2.2720
 5.5520	 2.2670
 5.5580	 2.2200
 5.5640	 2.1870
 5.5700	 2.1290
 5.5760	 2.0880
 5.5820	 2.0470
 5.5880	 2.0800
 5.5940	 2.0750
 5.6000	 2.0520
 5.6060	 2.0110
 5.6120	 1.9740
 5.6180	 1.9630
 5.6240	 2.0210
 5.6300	 2.0080
 5.6360	 1.9260
 5.6420	 1.8560
 5.6490	 1.8540
 5.6550	 1.8290
 5.6610	 1.8500
 5.6670	 1.8360
 5.6730	 1.8350
 5.6800	 1.7850
 5.6860	 1.7490
 5.6920	 1.6980
 5.6980	 1.7110
 5.7050	 1.7040
 5.7110	 1.6920
 5.7170	 1.6550
 5.7230	 1.6230
 5.7300	 1.6120
 5.7360	 1.6430
 5.7420	 1.6360
 5.7490	 1.6860
 5.7550	 1.7340
 5.7620	 1.7350
 5.7680	 1.6840
 5.7740	 1.7390
 5.7810	 1.7920
 5.7870	 1.8590
 5.7940	 1.8670
 5.8000	 1.8490
 5.8070	 1.8320
 5.8130	 1.8300
 5.8200	 1.7760
 5.8260	 1.8210
 5.8330	 1.8600
 5.8390	 1.8920
 5.8460	 1.9100
 5.8530	 1.9580
 5.8590	 1.9250
 5.8660	 1.8880
 5.8730	 1.8790
 5.8790	 1.8360
 5.8860	 1.8110
 5.8930	 1.8130
 5.8990	 1.7830
 5.9060	 1.8630
 5.9130	 1.8630
 5.9190	 1.8550
 5.9260	 1.8270
 5.9330	 1.7800
 5.9400	 1.7040
 5.9470	 1.7240
 5.9530	 1.7170
 5.9600	 1.7310
 5.9670	 1.7200
 5.9740	 1.7420
 5.9810	 1.7130
 5.9880	 1.7040
 5.9950	 1.6610
 6.0020	 1.6870
 6.0090	 1.6530
 6.0160	 1.6480
 6.0230	 1.6200
 6.0300	 1.6660
 6.0370	 1.6610
 6.0440	 1.6280
 6.0510	 1.5240
 6.0580	 1.6020
 6.0650	 1.6130
 6.0720	 1.6280
 6.0790	 1.6370
 6.0860	 1.6420
 6.0930	 1.6300
 6.1010	 1.6530
 6.1080	 1.5990
 6.1150	 1.6300
 6.1220	 1.6390
 6.1290	 1.6760
 6.1370	 1.6700
 6.1440	 1.7050
 6.1510	 1.7170
 6.1580	 1.7370
 6.1660	 1.7190
 6.1730	 1.7510
 6.1800	 1.7530
 6.1880	 1.7780
 6.1950	 1.7410
 6.2030	 1.7460
 6.2100	 1.7240
 6.2180	 1.7540
 6.2250	 1.7070
 6.2320	 1.7250
 6.2400	 1.7450
 6.2480	 1.8030
 6.2550	 1.7460
 6.2630	 1.7410
 6.2700	 1.7430
 6.2780	 1.8070
 6.2850	 1.7650
 6.2930	 1.7540
 6.3010	 1.7630
 6.3080	 1.8310
 6.3160	 1.8270
 6.3240	 1.8510
 6.3310	 1.8570
 6.3390	 1.8430
 6.3470	 1.7980
 6.3550	 1.8800
 6.3620	 1.8390
 6.3700	 1.8270
 6.3780	 1.8120
 6.3860	 1.8620
 6.3940	 1.8440
 6.4020	 1.8690
 6.4100	 1.7780
 6.4180	 1.7730
 6.4260	 1.7890
 6.4340	 1.8620
 6.4420	 1.9080
 6.4500	 1.9060
 6.4580	 1.8490
 6.4660	 1.8820
 6.4740	 1.8330
 6.4820	 1.8480
 6.4900	 1.7990
 6.4980	 1.8210
 6.5060	 1.8590
 6.5140	 1.9080
 6.5230	 1.9310
 6.5310	 1.9860
 6.5390	 1.9530
 6.5470	 1.9240
 6.5560	 1.8510
 6.5640	 1.8330
 6.5720	 1.7760
 6.5800	 1.8160
 6.5890	 1.8410
 6.5970	 1.9050
 6.6060	 1.9120
 6.6140	 1.9000
 6.6230	 1.8590
 6.6310	 1.8790
 6.6390	 1.8070
 6.6480	 1.8610
 6.6570	 1.8900
 6.6650	 1.9010
 6.6740	 1.8800
 6.6820	 1.9200
 6.6910	 1.8630
 6.7000	 1.8660
 6.7080	 1.8380
 6.7170	 1.8520
 6.7260	 1.8410
 6.7340	 1.8760
 6.7430	 1.8470
 6.7520	 1.8750
 6.7610	 1.8290
 6.7690	 1.8090
 6.7780	 1.8340
 6.7870	 1.9920
 6.7960	 2.0270
 6.8050	 1.9900
 6.8140	 1.9370
 6.8230	 1.9790
 6.8320	 2.1020
 6.8410	 2.2870
 6.8500	 2.1690
 6.8590	 2.0630
 6.8680	 2.0190
 6.8770	 2.0310
 6.8860	 2.0010
 6.8960	 2.0300
 6.9050	 2.0070
 6.9140	 2.0150
 6.9230	 1.9350
 6.9320	 1.9270
 6.9420	 1.8870
 6.9510	 1.8590
 6.9600	 1.8290
 6.9700	 1.9270
 6.9790	 1.9010
 6.9880	 1.8990
 6.9980	 1.8820
 7.0070	 1.9220
 7.0170	 1.8890
 7.0260	 1.9360
 7.0360	 1.9110
 7.0450	 1.9070
 7.0550	 1.8900
 7.0650	 1.9400
 7.0740	 1.8980
 7.0840	 1.9260
 7.0940	 1.8960
 7.1030	 1.9400
 7.1130	 1.9100
 7.1230	 1.9510
 7.1330	 1.9080
 7.1420	 1.9000
 7.1520	 1.8290
 7.1620	 1.8280
 7.1720	 1.8140
 7.1820	 1.8890
 7.1920	 1.8260
 7.2020	 1.7950
 7.2120	 1.7890
 7.2220	 1.8530
 7.2320	 1.8070
 7.2420	 1.8140
 7.2520	 1.8070
 7.2620	 1.8320
 7.2730	 1.7690
 7.2830	 1.8030
 7.2930	 1.7920
 7.3030	 1.8310
 7.3140	 1.7610
 7.3240	 1.7820
 7.3340	 1.7370
 7.3450	 1.7370
 7.3550	 1.6740
 7.3660	 1.7260
 7.3760	 1.7300
 7.3870	 1.7930
 7.3970	 1.7590
 7.4080	 1.7710
 7.4180	 1.7060
 7.4290	 1.7090
 7.4400	 1.6770
 7.4500	 1.7380
 7.4610	 1.6880
 7.4720	 1.7090
 7.4830	 1.7350
 7.4930	 1.7910
 7.5040	 1.7200
 7.5150	 1.7040
 7.5260	 1.6600
 7.5370	 1.6900
 7.5480	 1.6550
 7.5590	 1.6970
 7.5700	 1.6780
 7.5810	 1.6930
 7.5920	 1.6610
 7.6030	 1.7080
 7.6140	 1.6590
 7.6260	 1.6680
 7.6370	 1.6330
 7.6480	 1.6710
 7.6590	 1.6050
 7.6710	 1.6490
 7.6820	 1.6370
 7.6940	 1.6690
 7.7050	 1.6340
 7.7160	 1.6690
 7.7280	 1.5930
 7.7390	 1.5920
 7.7510	 1.5220
 7.7630	 1.5760
 7.7740	 1.5780
 7.7860	 1.6010
 7.7980	 1.5640
 7.8090	 1.5790
 7.8210	 1.5670
 7.8330	 1.6170
 7.8450	 1.5580
 7.8570	 1.5510
 7.8690	 1.4980
 7.8810	 1.5510
 7.8930	 1.5160
 7.9050	 1.5420
 7.9170	 1.4780
 7.9290	 1.5290
 7.9410	 1.5170
 7.9530	 1.5730
 7.9650	 1.5340
 7.9780	 1.5760
 7.9900	 1.5410
 8.0020	 1.5530
 8.0150	 1.5030
 8.0270	 1.5530
 8.0390	 1.4640
 8.0520	 1.5450
 8.0640	 1.5180
 8.0770	 1.5410
 8.0900	 1.5330
 8.1020	 1.6070
 8.1150	 1.5590
 8.1280	 1.5590
 8.1400	 1.4700
 8.1530	 1.5800
 8.1660	 1.5660
 8.1790	 1.5830
 8.1920	 1.4770
 8.2050	 1.6100
 8.2180	 1.5820
 8.2310	 1.5560
 8.2440	 1.4680
 8.2570	 1.6000
 8.2700	 1.5510
 8.2830	 1.6220
 8.2970	 1.5920
 8.3100	 1.5980
 8.3230	 1.5380
 8.3370	 1.6680
 8.3500	 1.6380
 8.3640	 1.6860
 8.3770	 1.6310
 8.3910	 1.6660
 8.4040	 1.5800
 8.4180	 1.7150
 8.4320	 1.7420
 8.4450	 1.8010
 8.4590	 1.7440
 8.4730	 1.8190
 8.4870	 1.7750
 8.5010	 1.8390
 8.5150	 1.7670
 8.5290	 1.8710
 8.5430	 1.8730
 8.5570	 1.9720
 8.5710	 1.8840
 8.5850	 1.9090
 8.5990	 1.8900
 8.6140	 2.0340
 8.6280	 2.0180
 8.6420	 2.0840
 8.6570	 1.9620
 8.6710	 2.0340
 8.6860	 2.0480
 8.7000	 2.1890
 8.7150	 2.1220
 8.7300	 2.1840
 8.7440	 2.1510
 8.7590	 2.2180
 8.7740	 2.1560
 8.7890	 2.2440
 8.8040	 2.1850
 8.8190	 2.3220
 8.8340	 2.3370
 8.8490	 2.4720
 8.8640	 2.4790
 8.8790	 2.6290
 8.8940	 2.5900
 8.9100	 2.7430
 8.9250	 2.8190
 8.9400	 3.0220
 8.9560	 3.0440
 8.9710	 3.2040
 8.9870	 3.2990
 9.0020	 3.5430
 9.0180	 3.6130
 9.0340	 3.8580
 9.0500	 3.9050
 9.0650	 4.1040
 9.0810	 4.1250
 9.0970	 4.2560
 9.1130	 4.2450
 9.1290	 4.4130
 9.1450	 4.4390
 9.1620	 4.6210
 9.1780	 4.6390
 9.1940	 4.7760
 9.2100	 4.7330
 9.2270	 4.8300
 9.2430	 4.7950
 9.2600	 4.8520
 9.2760	 4.7790
 9.2930	 4.8750
 9.3100	 4.7780
 9.3260	 4.8830
 9.3430	 4.7840
 9.3600	 4.8410
 9.3770	 4.7160
 9.3940	 4.6960
 9.4110	 4.4940
 9.4280	 4.5070
 9.4450	 4.3600
 9.4620	 4.4070
 9.4800	 4.3280
 9.4970	 4.4390
 9.5150	 4.4160
 9.5320	 4.5600
 9.5500	 4.5400
 9.5670	 4.7520
 9.5850	 4.7540
 9.6030	 4.8260
 9.6200	 4.7180
 9.6380	 4.8420
 9.6560	 4.8650
 9.6740	 5.0280
 9.6920	 4.9640
 9.7110	 4.9980
 9.7290	 4.8080
 9.7470	 4.8070
 9.7650	 4.7050
 9.7840	 4.7120
 9.8020	 4.5300
 9.8210	 4.6430
 9.8390	 4.5450
 9.8580	 4.4400
 9.8770	 4.2590
 9.8960	 4.2760
 9.9150	 4.1070
 9.9340	 4.1170
 9.9530	 4.0100
 9.9720	 4.0120
 9.9910	 3.8890
10.0100	 3.9190
10.0300	 3.7650
10.0490	 3.7890
10.0690	 3.6860
10.0880	 3.7200
10.1080	 3.6620
10.1280	 3.7830
10.1480	 3.7000
10.1670	 3.7850
10.1870	 3.7630
10.2070	 3.8170
10.2280	 3.7010
10.2480	 3.8380
10.2680	 3.8530
10.2890	 3.9790
10.3090	 3.8990
10.3300	 3.9910
10.3500	 3.9810
10.3710	 4.0320
10.3920	 3.8720
10.4120	 3.9230
10.4330	 3.9430
10.4540	 4.0890
10.4760	 4.0310
10.4970	 4.0990
10.5180	 4.0310
10.5390	 4.1640
10.5610	 4.0650
10.5820	 4.1020
10.6040	 3.9900
10.6260	 4.0440
10.6480	 3.9370
10.6700	 3.9170
10.6920	 3.7400
10.7140	 3.7960
10.7360	 3.7090
10.7580	 3.7660
10.7800	 3.6360
10.8030	 3.6620
10.8250	 3.5250
10.8480	 3.5610
10.8710	 3.3770
10.8940	 3.3870
10.9170	 3.2140
10.9400	 3.2510
10.9630	 3.1310
10.9860	 3.1620
11.0090	 3.0100
11.0330	 3.0390
11.0560	 2.8840
11.0800	 2.9560
11.1040	 2.8910
11.1270	 2.9700
11.1510	 2.8420
11.1750	 2.9000
11.2000	 2.8040
11.2240	 2.9340
11.2480	 2.8330
11.2730	 2.8950
11.2970	 2.7720
11.3220	 2.8710
11.3470	 2.6840
11.3720	 2.7260
11.3970	 2.5910
11.4220	 2.6640
11.4470	 2.6080
11.4720	 2.7050
11.4980	 2.4800
11.5230	 2.5110
11.5490	 2.3610
11.5750	 2.3940
11.6000	 2.2480
11.6260	 2.3060
11.6530	 2.1840
11.6790	 2.2300
11.7050	 2.0480
11.7320	 2.0730
11.7580	 1.9440
11.7850	 2.0320
11.8120	 1.8980
11.8390	 2.0040
11.8660	 1.8730
11.8930	 1.8890
11.9200	 1.7460
11.9480	 1.8650
11.9760	 1.7370
12.0030	 1.8120
12.0310	 1.6680
12.0590	 1.8200
12.0870	 1.6950
12.1150	 1.8290
12.1440	 1.7070
12.1720	 1.8480
12.2010	 1.7690
12.2300	 1.8980
12.2590	 1.7770
12.2880	 1.8710
12.3170	 1.7810
12.3460	 1.9610
12.3760	 1.7910
12.4050	 1.9760
12.4350	 1.8820
12.4650	 1.9780
12.4950	 1.8120
12.5250	 1.9410
12.5550	 1.7700
12.5860	 1.9350
12.6170	 1.8770
12.6470	 1.9760
12.6780	 1.7830
12.7090	 2.0170
12.7410	 1.9660
12.7720	 2.0700
12.8030	 1.9280
12.8350	 2.1020
12.8670	 1.8970
12.8990	 1.9790
12.9310	 1.8930
12.9640	 2.0360
12.9960	 1.8530
13.0290	 1.9500
13.0610	 1.7830
13.0940	 1.8950
13.1280	 1.8390
13.1610	 2.0100
13.1940	 1.8050
13.2280	 2.0370
13.2620	 1.8870
13.2960	 1.9840
13.3300	 1.8160
13.3640	 1.9400
13.3990	 1.7370
13.4340	 1.9210
13.4690	 1.7690
13.5040	 1.9620
13.5390	 1.8240
13.5740	 2.0230
13.6100	 1.8690
13.6460	 2.1120
13.6820	 1.9730
13.7180	 2.1640
13.7540	 2.0360
13.7910	 2.1380
13.8280	 1.9170
13.8650	 2.2250
13.9020	 2.0790
13.9390	 2.1860
13.9770	 1.9220
14.0150	 2.0910
14.0530	 1.7660
14.0910	 1.8620
14.1290	 1.6000
14.1680	 1.9600
14.2070	 1.9320
14.2460	 2.1680
14.2850	 1.8800
14.3240	 2.1230
14.3640	 1.9450
14.4040	 2.1400
14.4440	 1.8960
14.4840	 2.1620
14.5250	 1.9140
14.5660	 2.0740
14.6070	 1.8050
14.6480	 2.2340
14.6900	 1.9410
14.7310	 2.0950
14.7730	 1.7700
14.8150	 2.0770
14.8580	 1.8360
14.9010	 2.2610
14.9440	 2.1330
14.9870	 2.5170
15.0300	 1.8560
15.0740	 2.2590
15.1180	 1.9210
15.1620	 2.1600
15.2060	 1.8070
15.2510	 2.2170
15.2960	 2.0270
15.3410	 2.5240
15.3870	 1.9870
