Name: Quercus lobata 3
Type: vegetation
Class: Tree
Genus: Quercus
Species: lobata
Sample No.: VH286
Owner: UCSB
Wavelength Range: TIR
Origin: 34.7151; -120.0588; WGS84
Collection Date: 11/2/2013
Description: Samples were collected as part of the HyspIRI Airborne Campaign. 48 individual plants were sampled in three times in 2013 - spring  summer  and fall. The name of the sample includes a 1  2  or 3 which references a different individual of the species. Samples were taken to JPL and processed within 48 hours of collection. The same leaves were processed in the Nicolet and then measured using the ASD.
Measurement: Hemispherical reflectance
First Column: X
Second Column: Y
X Units: Wavelength (micrometers)
Y Units: Reflectance (percentage)
First X Value: 2.501
Last X Value: 15.387
Number of X Values: 1737
Additional Information: vegetation.tree.quercus.lobata.tir.vh286.ucsb.nicolet.ancillary.txt

 2.5010	13.8610
 2.5030	13.8560
 2.5040	13.8010
 2.5050	13.6690
 2.5060	13.6360
 2.5070	13.6560
 2.5090	13.5910
 2.5100	13.5110
 2.5110	13.5090
 2.5120	13.5110
 2.5140	13.4890
 2.5150	13.4380
 2.5160	13.4690
 2.5170	13.5450
 2.5180	13.5260
 2.5200	13.4500
 2.5210	13.3010
 2.5220	13.3650
 2.5230	13.4610
 2.5250	13.4790
 2.5260	13.4700
 2.5270	13.3970
 2.5280	13.3300
 2.5290	13.5120
 2.5310	13.5770
 2.5320	13.5530
 2.5330	13.5270
 2.5340	13.5030
 2.5360	13.4780
 2.5370	13.4200
 2.5380	13.4520
 2.5390	13.6270
 2.5410	13.8250
 2.5420	13.7740
 2.5430	13.6920
 2.5440	13.6340
 2.5460	13.6970
 2.5470	13.6940
 2.5480	13.7030
 2.5490	13.6450
 2.5510	13.5470
 2.5520	13.6040
 2.5530	13.5190
 2.5540	13.4390
 2.5560	13.5790
 2.5570	13.6010
 2.5580	13.6510
 2.5590	13.7700
 2.5610	13.7190
 2.5620	13.6550
 2.5630	13.6240
 2.5640	13.5880
 2.5660	13.6880
 2.5670	13.8510
 2.5680	13.7920
 2.5700	13.7390
 2.5710	13.8070
 2.5720	13.8860
 2.5730	13.7870
 2.5750	13.5270
 2.5760	13.6310
 2.5770	13.7700
 2.5790	13.6830
 2.5800	13.6320
 2.5810	13.7390
 2.5820	13.7130
 2.5840	13.6070
 2.5850	13.6590
 2.5860	13.8280
 2.5880	13.7840
 2.5890	13.5920
 2.5900	13.5080
 2.5910	13.5730
 2.5930	13.6720
 2.5940	13.6470
 2.5950	13.5460
 2.5970	13.5080
 2.5980	13.6230
 2.5990	13.6300
 2.6000	13.4990
 2.6020	13.4700
 2.6030	13.4080
 2.6040	13.5070
 2.6060	13.4600
 2.6070	13.3320
 2.6080	13.3230
 2.6100	13.3120
 2.6110	13.1580
 2.6120	13.1260
 2.6140	13.1600
 2.6150	13.1610
 2.6160	13.0780
 2.6180	13.1670
 2.6190	13.2060
 2.6200	12.9840
 2.6220	12.9500
 2.6230	13.0460
 2.6240	13.0990
 2.6260	13.0770
 2.6270	12.8310
 2.6280	12.6780
 2.6300	12.8230
 2.6310	12.8340
 2.6320	12.7160
 2.6340	12.6150
 2.6350	12.4690
 2.6360	12.4100
 2.6380	12.4250
 2.6390	12.3570
 2.6400	12.1390
 2.6420	12.0640
 2.6430	12.1300
 2.6440	12.1390
 2.6460	12.0910
 2.6470	12.0670
 2.6480	11.9350
 2.6500	11.8930
 2.6510	12.0010
 2.6520	11.9560
 2.6540	11.8560
 2.6550	11.6980
 2.6560	11.4860
 2.6580	11.5470
 2.6590	11.5620
 2.6610	11.5400
 2.6620	11.4990
 2.6630	11.4820
 2.6650	11.4600
 2.6660	11.3330
 2.6670	11.2420
 2.6690	11.2250
 2.6700	11.2670
 2.6720	11.1420
 2.6730	10.9540
 2.6740	10.8780
 2.6760	10.8770
 2.6770	10.8980
 2.6780	10.9290
 2.6800	10.8240
 2.6810	10.7070
 2.6830	10.7300
 2.6840	10.6860
 2.6850	10.5530
 2.6870	10.3980
 2.6880	10.3980
 2.6900	10.3060
 2.6910	10.0840
 2.6920	 9.9300
 2.6940	 9.8030
 2.6950	 9.5550
 2.6970	 9.5280
 2.6980	 9.4390
 2.6990	 9.3100
 2.7010	 9.1210
 2.7020	 8.9080
 2.7040	 8.7500
 2.7050	 8.8150
 2.7060	 8.7820
 2.7080	 8.6040
 2.7090	 8.5060
 2.7110	 8.5140
 2.7120	 8.5200
 2.7130	 8.4310
 2.7150	 8.2710
 2.7160	 8.0490
 2.7180	 7.9240
 2.7190	 7.9690
 2.7210	 7.8460
 2.7220	 7.6380
 2.7230	 7.4080
 2.7250	 7.4580
 2.7260	 7.5070
 2.7280	 7.3570
 2.7290	 7.3310
 2.7310	 7.2050
 2.7320	 6.9300
 2.7330	 6.8680
 2.7350	 6.7500
 2.7360	 6.6990
 2.7380	 6.4650
 2.7390	 6.2010
 2.7410	 6.1890
 2.7420	 6.1770
 2.7440	 5.9470
 2.7450	 5.7000
 2.7470	 5.6210
 2.7480	 5.6460
 2.7490	 5.6630
 2.7510	 5.7400
 2.7520	 5.7520
 2.7540	 5.6830
 2.7550	 5.4980
 2.7570	 5.4100
 2.7580	 5.4970
 2.7600	 5.3640
 2.7610	 5.2510
 2.7630	 5.1710
 2.7640	 5.2110
 2.7660	 5.0150
 2.7670	 4.9160
 2.7680	 4.9970
 2.7700	 4.9630
 2.7710	 5.0470
 2.7730	 5.0210
 2.7740	 4.8910
 2.7760	 4.9260
 2.7770	 4.9950
 2.7790	 4.8350
 2.7800	 4.5450
 2.7820	 4.6550
 2.7830	 4.7330
 2.7850	 4.5900
 2.7860	 4.5430
 2.7880	 4.4970
 2.7890	 4.6010
 2.7910	 4.7360
 2.7920	 4.7050
 2.7940	 4.5390
 2.7950	 4.4990
 2.7970	 4.4320
 2.7980	 4.4690
 2.8000	 4.4870
 2.8010	 4.3710
 2.8030	 4.3060
 2.8040	 4.4450
 2.8060	 4.5870
 2.8070	 4.4440
 2.8090	 4.4100
 2.8110	 4.5780
 2.8120	 4.6900
 2.8140	 4.6300
 2.8150	 4.4490
 2.8170	 4.4300
 2.8180	 4.4960
 2.8200	 4.2980
 2.8210	 4.1960
 2.8230	 4.2160
 2.8240	 4.3670
 2.8260	 4.4640
 2.8270	 4.3580
 2.8290	 4.3010
 2.8300	 4.4040
 2.8320	 4.6000
 2.8340	 4.4090
 2.8350	 4.2190
 2.8370	 4.1760
 2.8380	 4.2120
 2.8400	 4.3710
 2.8410	 4.2040
 2.8430	 4.1080
 2.8440	 4.3620
 2.8460	 4.4850
 2.8480	 4.2020
 2.8490	 4.0590
 2.8510	 4.2360
 2.8520	 4.3530
 2.8540	 4.3280
 2.8550	 4.2760
 2.8570	 4.1420
 2.8590	 4.0860
 2.8600	 4.2330
 2.8620	 4.2190
 2.8630	 4.0610
 2.8650	 4.0220
 2.8660	 4.1430
 2.8680	 4.2640
 2.8700	 4.2220
 2.8710	 4.2150
 2.8730	 4.1950
 2.8740	 4.0480
 2.8760	 4.0820
 2.8780	 4.1940
 2.8790	 4.1300
 2.8810	 4.1490
 2.8820	 4.2160
 2.8840	 4.0200
 2.8860	 3.6680
 2.8870	 3.4730
 2.8890	 3.6970
 2.8900	 3.8670
 2.8920	 3.8800
 2.8940	 3.9580
 2.8950	 3.9670
 2.8970	 3.8820
 2.8980	 3.8860
 2.9000	 3.9110
 2.9020	 4.2600
 2.9030	 4.5120
 2.9050	 4.4360
 2.9070	 4.3470
 2.9080	 4.2450
 2.9100	 3.9970
 2.9120	 4.0390
 2.9130	 4.0730
 2.9150	 3.9390
 2.9160	 4.0820
 2.9180	 4.2500
 2.9200	 4.2760
 2.9210	 4.2080
 2.9230	 4.0700
 2.9250	 4.0620
 2.9260	 4.0810
 2.9280	 4.0290
 2.9300	 4.0230
 2.9310	 4.0450
 2.9330	 4.2780
 2.9350	 4.2800
 2.9360	 4.1020
 2.9380	 4.0220
 2.9400	 4.1330
 2.9410	 4.2240
 2.9430	 4.2080
 2.9450	 4.1290
 2.9460	 4.2280
 2.9480	 4.2690
 2.9500	 3.8510
 2.9510	 3.5630
 2.9530	 3.8940
 2.9550	 4.1320
 2.9560	 3.7350
 2.9580	 3.7260
 2.9600	 3.9010
 2.9610	 4.0490
 2.9630	 4.1820
 2.9650	 4.2810
 2.9660	 3.7970
 2.9680	 3.4840
 2.9700	 4.0460
 2.9720	 4.3180
 2.9730	 3.6790
 2.9750	 3.0000
 2.9770	 3.6410
 2.9780	 4.3920
 2.9800	 4.2800
 2.9820	 4.2210
 2.9840	 4.7430
 2.9850	 4.5240
 2.9870	 3.6800
 2.9890	 3.7980
 2.9900	 4.8830
 2.9920	 4.3640
 2.9940	 4.4860
 2.9960	 4.4540
 2.9970	 3.8800
 2.9990	 3.9630
 3.0010	 4.0580
 3.0030	 4.2010
 3.0040	 3.8350
 3.0060	 4.1570
 3.0080	 4.1490
 3.0100	 3.9110
 3.0110	 3.6700
 3.0130	 4.1900
 3.0150	 4.9470
 3.0170	 4.8890
 3.0180	 4.2170
 3.0200	 4.0790
 3.0220	 4.1770
 3.0240	 4.1380
 3.0250	 3.9870
 3.0270	 4.1770
 3.0290	 4.1990
 3.0310	 4.0930
 3.0320	 4.2580
 3.0340	 4.2840
 3.0360	 4.1800
 3.0380	 4.6340
 3.0400	 4.4490
 3.0410	 4.2500
 3.0430	 4.1530
 3.0450	 4.0890
 3.0470	 4.5100
 3.0480	 4.4340
 3.0500	 4.8210
 3.0520	 5.0390
 3.0540	 4.2830
 3.0560	 2.8760
 3.0570	 2.4430
 3.0590	 3.6140
 3.0610	 4.1930
 3.0630	 4.4210
 3.0650	 4.1460
 3.0660	 3.8100
 3.0680	 4.1070
 3.0700	 4.6080
 3.0720	 4.5780
 3.0740	 4.1810
 3.0760	 4.1170
 3.0770	 4.2700
 3.0790	 4.3200
 3.0810	 4.5510
 3.0830	 4.4260
 3.0850	 4.3040
 3.0870	 4.2940
 3.0880	 4.2980
 3.0900	 4.3110
 3.0920	 4.3770
 3.0940	 4.5000
 3.0960	 4.5760
 3.0980	 4.6420
 3.0990	 4.7270
 3.1010	 4.4630
 3.1030	 4.3200
 3.1050	 4.3880
 3.1070	 4.5300
 3.1090	 4.4220
 3.1110	 4.4610
 3.1120	 4.6740
 3.1140	 4.7280
 3.1160	 4.6320
 3.1180	 4.6230
 3.1200	 4.6820
 3.1220	 4.6310
 3.1240	 4.6080
 3.1260	 4.6800
 3.1270	 4.6410
 3.1290	 4.6840
 3.1310	 4.8500
 3.1330	 4.9240
 3.1350	 4.7640
 3.1370	 4.2390
 3.1390	 4.1320
 3.1410	 5.1940
 3.1430	 6.0260
 3.1450	 5.6640
 3.1460	 4.9020
 3.1480	 3.9870
 3.1500	 2.8420
 3.1520	 3.8170
 3.1540	 4.7960
 3.1560	 5.5860
 3.1580	 5.3690
 3.1600	 5.1620
 3.1620	 5.5390
 3.1640	 5.4940
 3.1660	 5.8360
 3.1680	 6.3160
 3.1700	 6.3640
 3.1710	 5.4910
 3.1730	 4.8340
 3.1750	 4.5720
 3.1770	 4.2880
 3.1790	 4.3760
 3.1810	 5.0250
 3.1830	 5.0520
 3.1850	 5.4880
 3.1870	 5.6910
 3.1890	 5.4540
 3.1910	 5.3420
 3.1930	 5.1700
 3.1950	 5.1440
 3.1970	 5.2940
 3.1990	 5.4150
 3.2010	 5.3810
 3.2030	 5.3300
 3.2050	 5.1290
 3.2070	 5.2150
 3.2090	 5.2180
 3.2110	 5.1840
 3.2130	 5.1600
 3.2150	 5.1380
 3.2170	 5.2830
 3.2190	 5.5020
 3.2210	 5.4190
 3.2230	 5.3630
 3.2250	 5.5140
 3.2270	 5.5830
 3.2290	 5.4860
 3.2310	 5.5020
 3.2330	 5.4210
 3.2350	 5.4190
 3.2370	 5.4220
 3.2390	 5.5020
 3.2410	 5.5430
 3.2430	 5.6970
 3.2450	 5.7020
 3.2470	 5.7800
 3.2490	 5.7700
 3.2510	 5.6450
 3.2530	 5.6080
 3.2550	 5.6620
 3.2570	 5.7060
 3.2590	 5.7210
 3.2610	 5.6600
 3.2630	 5.5150
 3.2650	 5.4650
 3.2670	 5.6330
 3.2690	 5.7110
 3.2720	 5.5940
 3.2740	 5.7060
 3.2760	 5.9440
 3.2780	 5.9820
 3.2800	 5.8490
 3.2820	 5.8370
 3.2840	 5.8750
 3.2860	 5.8290
 3.2880	 5.8710
 3.2900	 6.0250
 3.2920	 6.1160
 3.2940	 6.0630
 3.2960	 5.9580
 3.2990	 5.9190
 3.3010	 6.0030
 3.3030	 6.0670
 3.3050	 5.9370
 3.3070	 5.8560
 3.3090	 5.7560
 3.3110	 5.8310
 3.3130	 6.0630
 3.3150	 5.9730
 3.3180	 5.9920
 3.3200	 6.0780
 3.3220	 6.1010
 3.3240	 5.9230
 3.3260	 5.9930
 3.3280	 6.1440
 3.3300	 6.1410
 3.3330	 5.9660
 3.3350	 6.0310
 3.3370	 6.0920
 3.3390	 5.9850
 3.3410	 5.9400
 3.3430	 5.8740
 3.3450	 5.7940
 3.3480	 6.0050
 3.3500	 6.0260
 3.3520	 6.0940
 3.3540	 6.0880
 3.3560	 5.9180
 3.3580	 5.9010
 3.3610	 5.9780
 3.3630	 5.8500
 3.3650	 5.7020
 3.3670	 5.6720
 3.3690	 5.6230
 3.3720	 5.5220
 3.3740	 5.6010
 3.3760	 5.6190
 3.3780	 5.5790
 3.3800	 5.5450
 3.3830	 5.5130
 3.3850	 5.4850
 3.3870	 5.4930
 3.3890	 5.3790
 3.3910	 5.2650
 3.3940	 5.2120
 3.3960	 5.0980
 3.3980	 5.0370
 3.4000	 5.1470
 3.4020	 5.1860
 3.4050	 5.3830
 3.4070	 5.4790
 3.4090	 5.3750
 3.4110	 5.3220
 3.4140	 5.4380
 3.4160	 5.4850
 3.4180	 5.4820
 3.4200	 5.5800
 3.4230	 5.8220
 3.4250	 6.1240
 3.4270	 6.3960
 3.4290	 6.5210
 3.4320	 6.4660
 3.4340	 6.2640
 3.4360	 6.1920
 3.4390	 6.2800
 3.4410	 6.3180
 3.4430	 6.2700
 3.4450	 6.3590
 3.4480	 6.3370
 3.4500	 6.2910
 3.4520	 6.4240
 3.4550	 6.3980
 3.4570	 6.3770
 3.4590	 6.3560
 3.4620	 6.2660
 3.4640	 6.2570
 3.4660	 6.3380
 3.4680	 6.4200
 3.4710	 6.4260
 3.4730	 6.4490
 3.4750	 6.4450
 3.4780	 6.4950
 3.4800	 6.4810
 3.4820	 6.3980
 3.4850	 6.3470
 3.4870	 6.3360
 3.4890	 6.2090
 3.4920	 6.0510
 3.4940	 6.0890
 3.4970	 6.2110
 3.4990	 6.1610
 3.5010	 6.1430
 3.5040	 6.1990
 3.5060	 6.3390
 3.5080	 6.6390
 3.5110	 7.0160
 3.5130	 7.2340
 3.5160	 7.3400
 3.5180	 7.2900
 3.5200	 7.3370
 3.5230	 7.5160
 3.5250	 7.5090
 3.5270	 7.5360
 3.5300	 7.6670
 3.5320	 7.6710
 3.5350	 7.7430
 3.5370	 7.7460
 3.5400	 7.8680
 3.5420	 7.8950
 3.5440	 7.6600
 3.5470	 7.5950
 3.5490	 7.6890
 3.5520	 7.7110
 3.5540	 7.8320
 3.5570	 7.9890
 3.5590	 8.0070
 3.5610	 7.9870
 3.5640	 8.0550
 3.5660	 7.9950
 3.5690	 7.8830
 3.5710	 7.9120
 3.5740	 8.0230
 3.5760	 8.0190
 3.5790	 8.0370
 3.5810	 8.0420
 3.5840	 8.0150
 3.5860	 8.0910
 3.5890	 8.1890
 3.5910	 8.0580
 3.5930	 8.0320
 3.5960	 8.0490
 3.5980	 8.1690
 3.6010	 8.3140
 3.6030	 8.3010
 3.6060	 8.2500
 3.6080	 8.2030
 3.6110	 8.1870
 3.6140	 8.1980
 3.6160	 8.1840
 3.6190	 8.2810
 3.6210	 8.2040
 3.6240	 8.0190
 3.6260	 8.0150
 3.6290	 8.1360
 3.6310	 8.2270
 3.6340	 8.2470
 3.6360	 8.3300
 3.6390	 8.3320
 3.6410	 8.3050
 3.6440	 8.3050
 3.6470	 8.2710
 3.6490	 8.2730
 3.6520	 8.2630
 3.6540	 8.3090
 3.6570	 8.3560
 3.6590	 8.3680
 3.6620	 8.1610
 3.6650	 8.1910
 3.6670	 8.3670
 3.6700	 8.3850
 3.6720	 8.3240
 3.6750	 8.3500
 3.6780	 8.4760
 3.6800	 8.5360
 3.6830	 8.4930
 3.6850	 8.4070
 3.6880	 8.3550
 3.6910	 8.3530
 3.6930	 8.3580
 3.6960	 8.4510
 3.6990	 8.5560
 3.7010	 8.5640
 3.7040	 8.5310
 3.7060	 8.4680
 3.7090	 8.4450
 3.7120	 8.5010
 3.7140	 8.5720
 3.7170	 8.5590
 3.7200	 8.5200
 3.7220	 8.5240
 3.7250	 8.5120
 3.7280	 8.5090
 3.7300	 8.5420
 3.7330	 8.5880
 3.7360	 8.6520
 3.7390	 8.6630
 3.7410	 8.6160
 3.7440	 8.6770
 3.7470	 8.8010
 3.7490	 8.8530
 3.7520	 8.8070
 3.7550	 8.7100
 3.7580	 8.6940
 3.7600	 8.7360
 3.7630	 8.7410
 3.7660	 8.7350
 3.7680	 8.7050
 3.7710	 8.7550
 3.7740	 8.7990
 3.7770	 8.8340
 3.7790	 8.8660
 3.7820	 8.8690
 3.7850	 8.9470
 3.7880	 8.9470
 3.7900	 8.9320
 3.7930	 8.9370
 3.7960	 8.9750
 3.7990	 8.9300
 3.8020	 8.8310
 3.8040	 8.8930
 3.8070	 9.0170
 3.8100	 8.9910
 3.8130	 8.9630
 3.8160	 8.9880
 3.8180	 8.9490
 3.8210	 8.9650
 3.8240	 9.0270
 3.8270	 9.0010
 3.8300	 8.9440
 3.8330	 8.9800
 3.8350	 9.1160
 3.8380	 9.1410
 3.8410	 9.0340
 3.8440	 9.0060
 3.8470	 9.0850
 3.8500	 9.0690
 3.8520	 8.9800
 3.8550	 8.9640
 3.8580	 9.1170
 3.8610	 9.2750
 3.8640	 9.2770
 3.8670	 9.2210
 3.8700	 9.2300
 3.8730	 9.3770
 3.8750	 9.3950
 3.8780	 9.3140
 3.8810	 9.2530
 3.8840	 9.2480
 3.8870	 9.2700
 3.8900	 9.2060
 3.8930	 9.2290
 3.8960	 9.2570
 3.8990	 9.2760
 3.9020	 9.2920
 3.9050	 9.3000
 3.9080	 9.4260
 3.9110	 9.5350
 3.9140	 9.4310
 3.9160	 9.3540
 3.9190	 9.4260
 3.9220	 9.5030
 3.9250	 9.4290
 3.9280	 9.3490
 3.9310	 9.3820
 3.9340	 9.4240
 3.9370	 9.3710
 3.9400	 9.3720
 3.9430	 9.4100
 3.9460	 9.3910
 3.9490	 9.4540
 3.9520	 9.5590
 3.9550	 9.4790
 3.9580	 9.3500
 3.9610	 9.3360
 3.9640	 9.4590
 3.9670	 9.6280
 3.9700	 9.6240
 3.9730	 9.5380
 3.9770	 9.6370
 3.9800	 9.6420
 3.9830	 9.5310
 3.9860	 9.5010
 3.9890	 9.4720
 3.9920	 9.4840
 3.9950	 9.5720
 3.9980	 9.5960
 4.0010	 9.6000
 4.0040	 9.6250
 4.0070	 9.6230
 4.0100	 9.5690
 4.0130	 9.5900
 4.0170	 9.6000
 4.0200	 9.6170
 4.0230	 9.6760
 4.0260	 9.6870
 4.0290	 9.6810
 4.0320	 9.6960
 4.0350	 9.6390
 4.0380	 9.6150
 4.0420	 9.7010
 4.0450	 9.6850
 4.0480	 9.7130
 4.0510	 9.7570
 4.0540	 9.7270
 4.0570	 9.7150
 4.0610	 9.7140
 4.0640	 9.7870
 4.0670	 9.7590
 4.0700	 9.6740
 4.0730	 9.6380
 4.0770	 9.6790
 4.0800	 9.6730
 4.0830	 9.6240
 4.0860	 9.6820
 4.0890	 9.7580
 4.0930	 9.6590
 4.0960	 9.6240
 4.0990	 9.6860
 4.1020	 9.7060
 4.1060	 9.7350
 4.1090	 9.8240
 4.1120	 9.7430
 4.1150	 9.6660
 4.1190	 9.6410
 4.1220	 9.6250
 4.1250	 9.5880
 4.1280	 9.6390
 4.1320	 9.7460
 4.1350	 9.7500
 4.1380	 9.7370
 4.1420	 9.8140
 4.1450	 9.7980
 4.1480	 9.7320
 4.1520	 9.7460
 4.1550	 9.8120
 4.1580	 9.8140
 4.1620	 9.7820
 4.1650	 9.7710
 4.1680	 9.7570
 4.1720	 9.7660
 4.1750	 9.7930
 4.1780	 9.8230
 4.1820	 9.8440
 4.1850	 9.8140
 4.1890	 9.8270
 4.1920	 9.8850
 4.1950	 9.9320
 4.1990	 9.9800
 4.2020	10.0370
 4.2060	10.1080
 4.2090	10.2490
 4.2120	10.3160
 4.2160	10.3830
 4.2190	10.3930
 4.2230	10.5980
 4.2260	10.7340
 4.2300	10.8060
 4.2330	10.8270
 4.2360	10.6800
 4.2400	10.5270
 4.2430	10.5980
 4.2470	10.4640
 4.2500	10.4840
 4.2540	10.2610
 4.2570	10.1840
 4.2610	10.2470
 4.2640	10.4410
 4.2680	10.5060
 4.2710	10.4790
 4.2750	10.5810
 4.2780	10.3900
 4.2820	 9.8310
 4.2850	 9.8140
 4.2890	10.1880
 4.2930	10.4410
 4.2960	10.3420
 4.3000	10.3130
 4.3030	10.2900
 4.3070	10.0290
 4.3100	 9.8510
 4.3140	10.0030
 4.3180	 9.9860
 4.3210	 9.8600
 4.3250	 9.9330
 4.3280	 9.9130
 4.3320	 9.7450
 4.3360	 9.6960
 4.3390	 9.6650
 4.3430	 9.6490
 4.3470	 9.6010
 4.3500	 9.5910
 4.3540	 9.6330
 4.3570	 9.6190
 4.3610	 9.4980
 4.3650	 9.4850
 4.3680	 9.5890
 4.3720	 9.6520
 4.3760	 9.5320
 4.3800	 9.4010
 4.3830	 9.3630
 4.3870	 9.4250
 4.3910	 9.4490
 4.3940	 9.4760
 4.3980	 9.5080
 4.4020	 9.5150
 4.4060	 9.4790
 4.4090	 9.4620
 4.4130	 9.4490
 4.4170	 9.4460
 4.4210	 9.3130
 4.4240	 9.2520
 4.4280	 9.2520
 4.4320	 9.2750
 4.4360	 9.2670
 4.4400	 9.3060
 4.4430	 9.2650
 4.4470	 9.2380
 4.4510	 9.2330
 4.4550	 9.2150
 4.4590	 9.2420
 4.4620	 9.2490
 4.4660	 9.2750
 4.4700	 9.2650
 4.4740	 9.2210
 4.4780	 9.1970
 4.4820	 9.0410
 4.4860	 8.9920
 4.4900	 9.0400
 4.4930	 9.0150
 4.4970	 8.9760
 4.5010	 9.0420
 4.5050	 9.0620
 4.5090	 9.0060
 4.5130	 8.9430
 4.5170	 9.0140
 4.5210	 9.0530
 4.5250	 9.1020
 4.5290	 9.0300
 4.5330	 8.9700
 4.5370	 8.9950
 4.5410	 8.9880
 4.5450	 8.9390
 4.5490	 8.9950
 4.5530	 8.9690
 4.5570	 8.9490
 4.5610	 8.8690
 4.5650	 8.8940
 4.5690	 8.9400
 4.5730	 8.9760
 4.5770	 8.9780
 4.5810	 9.0630
 4.5850	 8.9510
 4.5890	 8.8760
 4.5930	 8.8520
 4.5970	 8.8730
 4.6010	 8.9330
 4.6050	 8.9890
 4.6090	 8.9350
 4.6130	 8.8340
 4.6170	 8.7390
 4.6220	 8.7020
 4.6260	 8.6520
 4.6300	 8.6410
 4.6340	 8.5890
 4.6380	 8.6980
 4.6420	 8.7840
 4.6460	 8.7760
 4.6510	 8.6960
 4.6550	 8.7040
 4.6590	 8.6960
 4.6630	 8.7110
 4.6670	 8.6950
 4.6720	 8.6500
 4.6760	 8.6040
 4.6800	 8.6980
 4.6840	 8.7230
 4.6880	 8.7360
 4.6930	 8.7240
 4.6970	 8.7350
 4.7010	 8.6920
 4.7050	 8.7130
 4.7100	 8.7010
 4.7140	 8.6200
 4.7180	 8.5740
 4.7230	 8.6160
 4.7270	 8.5870
 4.7310	 8.6130
 4.7360	 8.6010
 4.7400	 8.6580
 4.7440	 8.6310
 4.7490	 8.6780
 4.7530	 8.6680
 4.7570	 8.6060
 4.7620	 8.5280
 4.7660	 8.5990
 4.7700	 8.6090
 4.7750	 8.6030
 4.7790	 8.5440
 4.7840	 8.6070
 4.7880	 8.7710
 4.7920	 8.7840
 4.7970	 8.6930
 4.8010	 8.5980
 4.8060	 8.5620
 4.8100	 8.6410
 4.8150	 8.5930
 4.8190	 8.5860
 4.8240	 8.6420
 4.8280	 8.6920
 4.8330	 8.7090
 4.8370	 8.6970
 4.8420	 8.6390
 4.8460	 8.6660
 4.8510	 8.6660
 4.8550	 8.7300
 4.8600	 8.7300
 4.8640	 8.7090
 4.8690	 8.5820
 4.8730	 8.5700
 4.8780	 8.6020
 4.8830	 8.6170
 4.8870	 8.6100
 4.8920	 8.6430
 4.8960	 8.6020
 4.9010	 8.6060
 4.9060	 8.6290
 4.9100	 8.6970
 4.9150	 8.6710
 4.9200	 8.7020
 4.9240	 8.6490
 4.9290	 8.6670
 4.9340	 8.6710
 4.9380	 8.6980
 4.9430	 8.7060
 4.9480	 8.7750
 4.9530	 8.7830
 4.9570	 8.7710
 4.9620	 8.6530
 4.9670	 8.6670
 4.9720	 8.7160
 4.9760	 8.7030
 4.9810	 8.6880
 4.9860	 8.7260
 4.9910	 8.6850
 4.9960	 8.7570
 5.0000	 8.7180
 5.0050	 8.6990
 5.0100	 8.7460
 5.0150	 8.7790
 5.0200	 8.6970
 5.0250	 8.6420
 5.0290	 8.6030
 5.0340	 8.6930
 5.0390	 8.7460
 5.0440	 8.7620
 5.0490	 8.8250
 5.0540	 8.8380
 5.0590	 8.8670
 5.0640	 8.9220
 5.0690	 8.8570
 5.0740	 8.8430
 5.0790	 8.8160
 5.0840	 8.8460
 5.0890	 8.8080
 5.0940	 8.8060
 5.0990	 8.8000
 5.1040	 8.8450
 5.1090	 8.7330
 5.1140	 8.6790
 5.1190	 8.6460
 5.1240	 8.7150
 5.1290	 8.8230
 5.1340	 8.9180
 5.1390	 8.8710
 5.1440	 8.7790
 5.1490	 8.7240
 5.1540	 8.7280
 5.1600	 8.7730
 5.1650	 8.7490
 5.1700	 8.6990
 5.1750	 8.8880
 5.1800	 8.9400
 5.1850	 8.8710
 5.1910	 8.7840
 5.1960	 8.7330
 5.2010	 8.7060
 5.2060	 8.7490
 5.2110	 8.6860
 5.2170	 8.6930
 5.2220	 8.7150
 5.2270	 8.7450
 5.2320	 8.6770
 5.2380	 8.6570
 5.2430	 8.6300
 5.2480	 8.6140
 5.2540	 8.5900
 5.2590	 8.6340
 5.2640	 8.6700
 5.2700	 8.6200
 5.2750	 8.4930
 5.2800	 8.5240
 5.2860	 8.5490
 5.2910	 8.6280
 5.2970	 8.5170
 5.3020	 8.5140
 5.3070	 8.4990
 5.3130	 8.4700
 5.3180	 8.5510
 5.3240	 8.5180
 5.3290	 8.3900
 5.3350	 8.3960
 5.3400	 8.3690
 5.3460	 8.3950
 5.3510	 8.4030
 5.3570	 8.4200
 5.3620	 8.3370
 5.3680	 8.3310
 5.3730	 8.4410
 5.3790	 8.5030
 5.3850	 8.3820
 5.3900	 8.3320
 5.3960	 8.2800
 5.4010	 8.3280
 5.4070	 8.3040
 5.4130	 8.2630
 5.4180	 8.2450
 5.4240	 8.3180
 5.4300	 8.1790
 5.4350	 8.2100
 5.4410	 8.2640
 5.4470	 8.2390
 5.4530	 8.0840
 5.4580	 8.0010
 5.4640	 7.9800
 5.4700	 7.9790
 5.4760	 7.8350
 5.4810	 7.8450
 5.4870	 7.8210
 5.4930	 7.7850
 5.4990	 7.7470
 5.5050	 7.8240
 5.5110	 7.7060
 5.5160	 7.6110
 5.5220	 7.5460
 5.5280	 7.5390
 5.5340	 7.4600
 5.5400	 7.4190
 5.5460	 7.3890
 5.5520	 7.3490
 5.5580	 7.2360
 5.5640	 7.2390
 5.5700	 7.1400
 5.5760	 7.0380
 5.5820	 6.8740
 5.5880	 6.8500
 5.5940	 6.7920
 5.6000	 6.8010
 5.6060	 6.5950
 5.6120	 6.4110
 5.6180	 6.3770
 5.6240	 6.3390
 5.6300	 6.1520
 5.6360	 6.1180
 5.6420	 6.0550
 5.6490	 5.9480
 5.6550	 5.6890
 5.6610	 5.4660
 5.6670	 5.3050
 5.6730	 5.2420
 5.6800	 5.0520
 5.6860	 4.9470
 5.6920	 4.8140
 5.6980	 4.7410
 5.7040	 4.6110
 5.7110	 4.5570
 5.7170	 4.3850
 5.7230	 4.2750
 5.7300	 4.0960
 5.7360	 3.9710
 5.7420	 3.8780
 5.7490	 3.8410
 5.7550	 3.7630
 5.7620	 3.8570
 5.7680	 3.9230
 5.7740	 4.0270
 5.7810	 4.1410
 5.7870	 4.2490
 5.7940	 4.2050
 5.8000	 4.2880
 5.8070	 4.3130
 5.8130	 4.3910
 5.8200	 4.4120
 5.8260	 4.5210
 5.8330	 4.6410
 5.8390	 4.8220
 5.8460	 4.9240
 5.8530	 4.9510
 5.8590	 4.9190
 5.8660	 5.0740
 5.8720	 5.2470
 5.8790	 5.2720
 5.8860	 5.1660
 5.8920	 5.2740
 5.8990	 5.2430
 5.9060	 5.4110
 5.9130	 5.4080
 5.9190	 5.3880
 5.9260	 5.3530
 5.9330	 5.3420
 5.9400	 5.1530
 5.9470	 5.1850
 5.9530	 5.1160
 5.9600	 5.1530
 5.9670	 4.9690
 5.9740	 4.9120
 5.9810	 4.8930
 5.9880	 4.8700
 5.9950	 4.7560
 6.0020	 4.6900
 6.0090	 4.4920
 6.0160	 4.3580
 6.0230	 4.2960
 6.0300	 4.3980
 6.0370	 4.2980
 6.0440	 4.3070
 6.0510	 4.3800
 6.0580	 4.5770
 6.0650	 4.6090
 6.0720	 4.6710
 6.0790	 4.6150
 6.0860	 4.6300
 6.0930	 4.5980
 6.1000	 4.6910
 6.1080	 4.7240
 6.1150	 4.7510
 6.1220	 4.6970
 6.1290	 4.7850
 6.1370	 4.6380
 6.1440	 4.7020
 6.1510	 4.7610
 6.1580	 4.7320
 6.1660	 4.5380
 6.1730	 4.5250
 6.1800	 4.5780
 6.1880	 4.6470
 6.1950	 4.5380
 6.2030	 4.5790
 6.2100	 4.5300
 6.2170	 4.6170
 6.2250	 4.6280
 6.2320	 4.7680
 6.2400	 4.7770
 6.2470	 4.8260
 6.2550	 4.8320
 6.2630	 4.9230
 6.2700	 4.9550
 6.2780	 5.0680
 6.2850	 5.0030
 6.2930	 5.0620
 6.3010	 5.0580
 6.3080	 5.1600
 6.3160	 5.2280
 6.3240	 5.3470
 6.3310	 5.3080
 6.3390	 5.4130
 6.3470	 5.4030
 6.3550	 5.5150
 6.3620	 5.4770
 6.3700	 5.5420
 6.3780	 5.4790
 6.3860	 5.4700
 6.3940	 5.4980
 6.4020	 5.5860
 6.4100	 5.5430
 6.4180	 5.6000
 6.4260	 5.5800
 6.4330	 5.7330
 6.4410	 5.7650
 6.4490	 5.8340
 6.4580	 5.8950
 6.4660	 5.9620
 6.4740	 5.8160
 6.4820	 5.6990
 6.4900	 5.6320
 6.4980	 5.6840
 6.5060	 5.6690
 6.5140	 5.6770
 6.5230	 5.3930
 6.5310	 5.3550
 6.5390	 5.3770
 6.5470	 5.3680
 6.5550	 5.1950
 6.5640	 5.1130
 6.5720	 4.9200
 6.5800	 4.9510
 6.5890	 4.7850
 6.5970	 4.7310
 6.6060	 4.8140
 6.6140	 5.0020
 6.6220	 5.0700
 6.6310	 5.1380
 6.6390	 5.2010
 6.6480	 5.2980
 6.6560	 5.1510
 6.6650	 5.1420
 6.6740	 5.1220
 6.6820	 5.2380
 6.6910	 5.1680
 6.6990	 5.2360
 6.7080	 5.2030
 6.7170	 5.2770
 6.7260	 5.2670
 6.7340	 5.3330
 6.7430	 5.2250
 6.7520	 5.1920
 6.7610	 5.0600
 6.7690	 4.9570
 6.7780	 4.8070
 6.7870	 4.8300
 6.7960	 4.6820
 6.8050	 4.5180
 6.8140	 4.3820
 6.8230	 4.4500
 6.8320	 4.5540
 6.8410	 4.5770
 6.8500	 4.3690
 6.8590	 4.5670
 6.8680	 4.5620
 6.8770	 4.5280
 6.8860	 4.5130
 6.8950	 4.6220
 6.9050	 4.5690
 6.9140	 4.7100
 6.9230	 4.7420
 6.9320	 4.6860
 6.9420	 4.5600
 6.9510	 4.5890
 6.9600	 4.5220
 6.9700	 4.5780
 6.9790	 4.5200
 6.9880	 4.6330
 6.9980	 4.6050
 7.0070	 4.6040
 7.0170	 4.6280
 7.0260	 4.7850
 7.0360	 4.6490
 7.0450	 4.6130
 7.0550	 4.5870
 7.0650	 4.7080
 7.0740	 4.6750
 7.0840	 4.8040
 7.0940	 4.7450
 7.1030	 4.7220
 7.1130	 4.5240
 7.1230	 4.5460
 7.1330	 4.6130
 7.1420	 4.6920
 7.1520	 4.4820
 7.1620	 4.5110
 7.1720	 4.4060
 7.1820	 4.2920
 7.1920	 4.2410
 7.2020	 4.3350
 7.2120	 4.1670
 7.2220	 4.1110
 7.2320	 4.0430
 7.2420	 4.0960
 7.2520	 4.0090
 7.2620	 4.0650
 7.2730	 3.8880
 7.2830	 4.0040
 7.2930	 4.1150
 7.3030	 4.1990
 7.3140	 4.0060
 7.3240	 4.0900
 7.3340	 4.2620
 7.3450	 4.4380
 7.3550	 4.2890
 7.3660	 4.3670
 7.3760	 4.3750
 7.3870	 4.5700
 7.3970	 4.5950
 7.4080	 4.6120
 7.4180	 4.5280
 7.4290	 4.5680
 7.4400	 4.4990
 7.4500	 4.6320
 7.4610	 4.4830
 7.4720	 4.4710
 7.4830	 4.4560
 7.4930	 4.5130
 7.5040	 4.3720
 7.5150	 4.4080
 7.5260	 4.3020
 7.5370	 4.2210
 7.5480	 4.1730
 7.5590	 4.3180
 7.5700	 4.2680
 7.5810	 4.2420
 7.5920	 4.1120
 7.6030	 4.1640
 7.6140	 4.1480
 7.6260	 4.2680
 7.6370	 4.2410
 7.6480	 4.2750
 7.6590	 4.1480
 7.6710	 4.1530
 7.6820	 4.0250
 7.6930	 4.1100
 7.7050	 4.1620
 7.7160	 4.3010
 7.7280	 4.0810
 7.7390	 4.0240
 7.7510	 3.9700
 7.7630	 4.0860
 7.7740	 3.9980
 7.7860	 4.0520
 7.7980	 3.9000
 7.8090	 3.9130
 7.8210	 3.9420
 7.8330	 3.9820
 7.8450	 3.8500
 7.8570	 3.8840
 7.8690	 3.7410
 7.8810	 3.7140
 7.8930	 3.6680
 7.9050	 3.7680
 7.9170	 3.7960
 7.9290	 3.9790
 7.9410	 3.8390
 7.9530	 3.9330
 7.9650	 3.9640
 7.9780	 4.0260
 7.9900	 3.9380
 8.0020	 3.9090
 8.0150	 3.7950
 8.0270	 3.9430
 8.0390	 3.9520
 8.0520	 4.1630
 8.0640	 4.2290
 8.0770	 4.2600
 8.0900	 4.1800
 8.1020	 4.3330
 8.1150	 4.1900
 8.1280	 4.4190
 8.1400	 4.4290
 8.1530	 4.5960
 8.1660	 4.5270
 8.1790	 4.6500
 8.1920	 4.6470
 8.2050	 4.8140
 8.2180	 4.6650
 8.2310	 4.6400
 8.2440	 4.4980
 8.2570	 4.7510
 8.2700	 4.8160
 8.2830	 5.0790
 8.2970	 5.1430
 8.3100	 5.3740
 8.3230	 5.3910
 8.3370	 5.3620
 8.3500	 5.1190
 8.3640	 5.2370
 8.3770	 5.1540
 8.3910	 5.1750
 8.4040	 4.9630
 8.4180	 5.0010
 8.4320	 4.8580
 8.4450	 4.9280
 8.4590	 4.9090
 8.4730	 5.0850
 8.4870	 4.8900
 8.5010	 4.9510
 8.5150	 5.0550
 8.5290	 5.3250
 8.5430	 5.2510
 8.5570	 5.5290
 8.5710	 5.4760
 8.5850	 5.4120
 8.5990	 5.1630
 8.6140	 5.3050
 8.6280	 5.1880
 8.6420	 5.2850
 8.6570	 5.3350
 8.6710	 5.5500
 8.6860	 5.5070
 8.7000	 5.5750
 8.7150	 5.3420
 8.7300	 5.3710
 8.7440	 5.2450
 8.7590	 5.1610
 8.7740	 5.0210
 8.7890	 5.3070
 8.8040	 5.2510
 8.8190	 5.2990
 8.8340	 5.0690
 8.8490	 5.0690
 8.8640	 4.8710
 8.8790	 5.1020
 8.8940	 4.9920
 8.9100	 4.9580
 8.9250	 4.6130
 8.9400	 4.6490
 8.9560	 4.8500
 8.9710	 5.0130
 8.9870	 4.9200
 9.0020	 5.1520
 9.0180	 4.9910
 9.0340	 5.2030
 9.0500	 5.0340
 9.0650	 5.0810
 9.0810	 5.1460
 9.0970	 5.3700
 9.1130	 5.2140
 9.1290	 5.2140
 9.1450	 4.9280
 9.1610	 4.9210
 9.1780	 4.8460
 9.1940	 5.0980
 9.2100	 5.1730
 9.2270	 5.3060
 9.2430	 5.1360
 9.2600	 5.1850
 9.2760	 5.1690
 9.2930	 5.4310
 9.3090	 5.1850
 9.3260	 5.2420
 9.3430	 5.0630
 9.3600	 5.1330
 9.3770	 5.1030
 9.3940	 5.2690
 9.4110	 5.0910
 9.4280	 5.1790
 9.4450	 5.1110
 9.4620	 5.2790
 9.4800	 5.1680
 9.4970	 5.3360
 9.5140	 5.1630
 9.5320	 5.3350
 9.5500	 5.1860
 9.5670	 5.2300
 9.5850	 5.1960
 9.6030	 5.5420
 9.6200	 5.4910
 9.6380	 5.6640
 9.6560	 5.6150
 9.6740	 5.7890
 9.6920	 5.7110
 9.7100	 5.8310
 9.7290	 5.7060
 9.7470	 5.9380
 9.7650	 5.8590
 9.7840	 5.9660
 9.8020	 5.6100
 9.8210	 5.5860
 9.8390	 5.4300
 9.8580	 5.6420
 9.8770	 5.7060
 9.8960	 5.8550
 9.9150	 5.7940
 9.9340	 5.9750
 9.9530	 5.6650
 9.9720	 5.8030
 9.9910	 5.8170
10.0100	 5.8180
10.0300	 5.5450
10.0490	 5.7470
10.0690	 5.6110
10.0880	 5.6710
10.1080	 5.5210
10.1280	 5.6350
10.1480	 5.7320
10.1670	 5.9850
10.1870	 5.9210
10.2070	 6.1600
10.2280	 5.9220
10.2480	 5.9390
10.2680	 6.0610
10.2890	 6.2080
10.3090	 5.9990
10.3300	 6.1430
10.3500	 6.1400
10.3710	 6.1510
10.3920	 5.9430
10.4120	 6.3230
10.4330	 6.4850
10.4540	 6.6610
10.4760	 6.4210
10.4970	 6.5350
10.5180	 6.2950
10.5390	 6.2980
10.5610	 6.2750
10.5820	 6.5300
10.6040	 6.5060
10.6260	 6.5360
10.6480	 6.3230
10.6700	 6.5000
10.6920	 6.2940
10.7140	 6.4370
10.7360	 6.3600
10.7580	 6.4330
10.7800	 6.1700
10.8030	 6.2570
10.8250	 6.0960
10.8480	 6.1870
10.8710	 6.1250
10.8940	 6.3240
10.9170	 6.1570
10.9400	 6.2180
10.9630	 6.0600
10.9860	 6.0560
11.0090	 5.8820
11.0330	 6.1110
11.0560	 5.9440
11.0800	 5.9940
11.1040	 5.9030
11.1270	 6.0990
11.1510	 5.8270
11.1750	 5.8790
11.2000	 5.8080
11.2240	 6.0440
11.2480	 6.0180
11.2730	 6.3610
11.2970	 6.0420
11.3220	 6.0270
11.3470	 6.0970
11.3720	 6.2170
11.3970	 5.9490
11.4220	 6.1800
11.4470	 6.1340
11.4720	 6.5770
11.4980	 6.2690
11.5230	 6.2320
11.5490	 6.0740
11.5750	 6.2170
11.6000	 5.8070
11.6260	 5.7980
11.6530	 5.5770
11.6790	 5.9100
11.7050	 5.8180
11.7320	 5.7250
11.7580	 5.5220
11.7850	 5.7330
11.8120	 5.5480
11.8390	 5.6960
11.8660	 5.4750
11.8930	 5.6890
11.9200	 5.8090
11.9480	 6.1660
11.9760	 5.9900
12.0030	 6.1420
12.0310	 5.8730
12.0590	 6.0990
12.0870	 5.7350
12.1150	 5.7950
12.1440	 5.5840
12.1720	 5.7630
12.2010	 5.8780
12.2300	 6.3570
12.2590	 5.9590
12.2880	 5.9060
12.3170	 5.7440
12.3460	 5.9030
12.3760	 5.6420
12.4050	 6.0440
12.4350	 5.7460
12.4650	 5.8220
12.4950	 5.7300
12.5250	 6.1150
12.5550	 5.7720
12.5860	 5.8110
12.6170	 5.7290
12.6470	 6.0990
12.6780	 5.9130
12.7090	 6.0460
12.7410	 5.6070
12.7720	 5.6670
12.8030	 5.6370
12.8350	 5.9850
12.8670	 5.7910
12.8990	 6.0830
12.9310	 5.9550
12.9640	 6.0920
12.9960	 5.8100
13.0290	 6.0110
13.0610	 5.8140
13.0940	 6.0380
13.1280	 5.8820
13.1610	 5.9700
13.1940	 5.6690
13.2280	 6.0240
13.2620	 5.5490
13.2960	 5.6900
13.3300	 5.4650
13.3640	 5.7170
13.3990	 5.5620
13.4340	 5.8790
13.4690	 5.6450
13.5040	 5.7880
13.5390	 5.5170
13.5740	 5.5830
13.6100	 5.1970
13.6460	 5.6590
13.6820	 5.4720
13.7180	 5.5460
13.7540	 5.4440
13.7910	 5.7230
13.8280	 5.2650
13.8650	 5.6720
13.9020	 5.4080
13.9390	 5.8970
13.9770	 5.6170
14.0150	 5.7730
14.0530	 5.4140
14.0910	 5.8910
14.1290	 5.4840
14.1680	 5.6100
14.2070	 5.5170
14.2460	 6.0390
14.2850	 5.5160
14.3240	 5.5530
14.3640	 5.1220
14.4040	 5.3380
14.4440	 5.1510
14.4840	 5.6750
14.5250	 5.0310
14.5660	 5.1810
14.6070	 4.5720
14.6480	 5.3840
14.6900	 5.2570
14.7310	 5.2480
14.7730	 3.9710
14.8150	 4.3890
14.8580	 4.7170
14.9010	 5.7270
14.9440	 4.3260
14.9870	 4.6780
15.0300	 4.6910
15.0740	 5.0960
15.1180	 4.8020
15.1620	 5.2950
15.2060	 4.4200
15.2510	 4.8220
15.2960	 4.5490
15.3410	 5.7090
15.3870	 4.5980
