Name: Quercus lobata 3
Type: vegetation
Class: Tree
Genus: Quercus
Species: lobata
Sample No.: VH185
Owner: UCSB
Wavelength Range: VSWIR
Origin: 34.7151; -120.0588; WGS84
Collection Date: 6/9/2013
Description: Samples were collected as part of the HyspIRI Airborne Campaign. 48 individual plants were sampled in three times in 2013 - spring  summer  and fall. The name of the sample includes a 1  2  or 3 which references a different individual of the species. Samples were taken to JPL and processed within 48 hours of collection. The same leaves were processed in the Nicolet and then measured using the ASD.
Measurement: Bidirectional reflectance
First Column: X
Second Column: Y
X Units: Wavelength (micrometers)
Y Units: Reflectance (percentage)
First X Value: 0.35
Last X Value: 2.5
Number of X Values: 2151
Additional Information: vegetation.tree.quercus.lobata.vswir.vh185.ucsb.asd.ancillary.txt

 0.3500	 4.7770
 0.3510	 4.7810
 0.3520	 4.8160
 0.3530	 4.8340
 0.3540	 4.7610
 0.3550	 4.6250
 0.3560	 4.4850
 0.3570	 4.4750
 0.3580	 4.6920
 0.3590	 4.7040
 0.3600	 4.5530
 0.3610	 4.4060
 0.3620	 4.5130
 0.3630	 4.5480
 0.3640	 4.5820
 0.3650	 4.6890
 0.3660	 4.5480
 0.3670	 4.5200
 0.3680	 4.6440
 0.3690	 4.7250
 0.3700	 4.7160
 0.3710	 4.6530
 0.3720	 4.5960
 0.3730	 4.6370
 0.3740	 4.6300
 0.3750	 4.5650
 0.3760	 4.4930
 0.3770	 4.5980
 0.3780	 4.6650
 0.3790	 4.6620
 0.3800	 4.7200
 0.3810	 4.6890
 0.3820	 4.6730
 0.3830	 4.7300
 0.3840	 4.7320
 0.3850	 4.7410
 0.3860	 4.8100
 0.3870	 4.9390
 0.3880	 4.9030
 0.3890	 4.8590
 0.3900	 4.8740
 0.3910	 4.9090
 0.3920	 4.9580
 0.3930	 5.0230
 0.3940	 5.0830
 0.3950	 5.1100
 0.3960	 5.1280
 0.3970	 5.1380
 0.3980	 5.1370
 0.3990	 5.2100
 0.4000	 5.2800
 0.4010	 5.3210
 0.4020	 5.3810
 0.4030	 5.4190
 0.4040	 5.4400
 0.4050	 5.4700
 0.4060	 5.5270
 0.4070	 5.5770
 0.4080	 5.6210
 0.4090	 5.6840
 0.4100	 5.7670
 0.4110	 5.8160
 0.4120	 5.8230
 0.4130	 5.8710
 0.4140	 5.9370
 0.4150	 6.0090
 0.4160	 6.0790
 0.4170	 6.1320
 0.4180	 6.1730
 0.4190	 6.2180
 0.4200	 6.2760
 0.4210	 6.3300
 0.4220	 6.3790
 0.4230	 6.4210
 0.4240	 6.4490
 0.4250	 6.4800
 0.4260	 6.5190
 0.4270	 6.5590
 0.4280	 6.6050
 0.4290	 6.6370
 0.4300	 6.6540
 0.4310	 6.6900
 0.4320	 6.7160
 0.4330	 6.7470
 0.4340	 6.7880
 0.4350	 6.8100
 0.4360	 6.8290
 0.4370	 6.8520
 0.4380	 6.8620
 0.4390	 6.8680
 0.4400	 6.8810
 0.4410	 6.9050
 0.4420	 6.9210
 0.4430	 6.9260
 0.4440	 6.9310
 0.4450	 6.9660
 0.4460	 6.9790
 0.4470	 6.9760
 0.4480	 6.9760
 0.4490	 7.0000
 0.4500	 7.0240
 0.4510	 7.0420
 0.4520	 7.0590
 0.4530	 7.0520
 0.4540	 7.0510
 0.4550	 7.0640
 0.4560	 7.0740
 0.4570	 7.0880
 0.4580	 7.0980
 0.4590	 7.1020
 0.4600	 7.1140
 0.4610	 7.1140
 0.4620	 7.1080
 0.4630	 7.1120
 0.4640	 7.1250
 0.4650	 7.1340
 0.4660	 7.1380
 0.4670	 7.1360
 0.4680	 7.1370
 0.4690	 7.1380
 0.4700	 7.1310
 0.4710	 7.1300
 0.4720	 7.1370
 0.4730	 7.1480
 0.4740	 7.1490
 0.4750	 7.1510
 0.4760	 7.1510
 0.4770	 7.1560
 0.4780	 7.1570
 0.4790	 7.1570
 0.4800	 7.1610
 0.4810	 7.1680
 0.4820	 7.1730
 0.4830	 7.1790
 0.4840	 7.1900
 0.4850	 7.1970
 0.4860	 7.1980
 0.4870	 7.2000
 0.4880	 7.2070
 0.4890	 7.2060
 0.4900	 7.2200
 0.4910	 7.2370
 0.4920	 7.2440
 0.4930	 7.2500
 0.4940	 7.2590
 0.4950	 7.2730
 0.4960	 7.2940
 0.4970	 7.3140
 0.4980	 7.3340
 0.4990	 7.3560
 0.5000	 7.3690
 0.5010	 7.3880
 0.5020	 7.4140
 0.5030	 7.4400
 0.5040	 7.4790
 0.5050	 7.5200
 0.5060	 7.5590
 0.5070	 7.6090
 0.5080	 7.6650
 0.5090	 7.7260
 0.5100	 7.7950
 0.5110	 7.8740
 0.5120	 7.9640
 0.5130	 8.0640
 0.5140	 8.1690
 0.5150	 8.2910
 0.5160	 8.4240
 0.5170	 8.5680
 0.5180	 8.7200
 0.5190	 8.8820
 0.5200	 9.0560
 0.5210	 9.2320
 0.5220	 9.4140
 0.5230	 9.5960
 0.5240	 9.7790
 0.5250	 9.9600
 0.5260	10.1360
 0.5270	10.3060
 0.5280	10.4680
 0.5290	10.6180
 0.5300	10.7560
 0.5310	10.8840
 0.5320	11.0060
 0.5330	11.1170
 0.5340	11.2190
 0.5350	11.3110
 0.5360	11.3890
 0.5370	11.4610
 0.5380	11.5280
 0.5390	11.5870
 0.5400	11.6450
 0.5410	11.7050
 0.5420	11.7680
 0.5430	11.8290
 0.5440	11.8790
 0.5450	11.9230
 0.5460	11.9650
 0.5470	11.9910
 0.5480	12.0150
 0.5490	12.0410
 0.5500	12.0630
 0.5510	12.0770
 0.5520	12.0810
 0.5530	12.0750
 0.5540	12.0520
 0.5550	12.0150
 0.5560	11.9650
 0.5570	11.9020
 0.5580	11.8270
 0.5590	11.7440
 0.5600	11.6570
 0.5610	11.5640
 0.5620	11.4690
 0.5630	11.3700
 0.5640	11.2670
 0.5650	11.1600
 0.5660	11.0450
 0.5670	10.9230
 0.5680	10.8000
 0.5690	10.6710
 0.5700	10.5410
 0.5710	10.4170
 0.5720	10.2970
 0.5730	10.1860
 0.5740	10.0850
 0.5750	 9.9990
 0.5760	 9.9220
 0.5770	 9.8500
 0.5780	 9.7810
 0.5790	 9.7150
 0.5800	 9.6540
 0.5810	 9.5970
 0.5820	 9.5420
 0.5830	 9.4880
 0.5840	 9.4320
 0.5850	 9.3730
 0.5860	 9.3220
 0.5870	 9.2700
 0.5880	 9.2210
 0.5890	 9.1820
 0.5900	 9.1570
 0.5910	 9.1430
 0.5920	 9.1350
 0.5930	 9.1230
 0.5940	 9.1140
 0.5950	 9.1050
 0.5960	 9.0930
 0.5970	 9.0750
 0.5980	 9.0560
 0.5990	 9.0330
 0.6000	 9.0120
 0.6010	 8.9920
 0.6020	 8.9650
 0.6030	 8.9350
 0.6040	 8.9070
 0.6050	 8.8730
 0.6060	 8.8320
 0.6070	 8.7880
 0.6080	 8.7480
 0.6090	 8.7040
 0.6100	 8.6600
 0.6110	 8.6240
 0.6120	 8.5730
 0.6130	 8.5220
 0.6140	 8.4730
 0.6150	 8.4260
 0.6160	 8.3810
 0.6170	 8.3410
 0.6180	 8.3060
 0.6190	 8.2770
 0.6200	 8.2540
 0.6210	 8.2320
 0.6220	 8.2080
 0.6230	 8.1930
 0.6240	 8.1810
 0.6250	 8.1690
 0.6260	 8.1550
 0.6270	 8.1470
 0.6280	 8.1400
 0.6290	 8.1370
 0.6300	 8.1390
 0.6310	 8.1360
 0.6320	 8.1290
 0.6330	 8.1210
 0.6340	 8.1130
 0.6350	 8.1010
 0.6360	 8.0890
 0.6370	 8.0720
 0.6380	 8.0510
 0.6390	 8.0260
 0.6400	 8.0070
 0.6410	 7.9810
 0.6420	 7.9520
 0.6430	 7.9250
 0.6440	 7.8980
 0.6450	 7.8710
 0.6460	 7.8420
 0.6470	 7.8180
 0.6480	 7.7950
 0.6490	 7.7730
 0.6500	 7.7570
 0.6510	 7.7400
 0.6520	 7.7270
 0.6530	 7.7110
 0.6540	 7.6990
 0.6550	 7.6840
 0.6560	 7.6690
 0.6570	 7.6540
 0.6580	 7.6370
 0.6590	 7.6170
 0.6600	 7.6040
 0.6610	 7.5900
 0.6620	 7.5760
 0.6630	 7.5640
 0.6640	 7.5570
 0.6650	 7.5540
 0.6660	 7.5480
 0.6670	 7.5500
 0.6680	 7.5560
 0.6690	 7.5660
 0.6700	 7.5740
 0.6710	 7.5870
 0.6720	 7.5970
 0.6730	 7.6150
 0.6740	 7.6370
 0.6750	 7.6610
 0.6760	 7.6870
 0.6770	 7.7130
 0.6780	 7.7370
 0.6790	 7.7670
 0.6800	 7.8020
 0.6810	 7.8390
 0.6820	 7.8780
 0.6830	 7.9180
 0.6840	 7.9550
 0.6850	 8.0000
 0.6860	 8.0490
 0.6870	 8.0990
 0.6880	 8.1590
 0.6890	 8.2370
 0.6900	 8.3380
 0.6910	 8.4620
 0.6920	 8.6200
 0.6930	 8.8280
 0.6940	 9.0850
 0.6950	 9.4040
 0.6960	 9.7870
 0.6970	10.2390
 0.6980	10.7570
 0.6990	11.3350
 0.7000	11.9730
 0.7010	12.6650
 0.7020	13.4010
 0.7030	14.1790
 0.7040	14.9880
 0.7050	15.8200
 0.7060	16.6770
 0.7070	17.5480
 0.7080	18.4320
 0.7090	19.3320
 0.7100	20.2350
 0.7110	21.1510
 0.7120	22.0760
 0.7130	22.9980
 0.7140	23.9260
 0.7150	24.8570
 0.7160	25.7860
 0.7170	26.7140
 0.7180	27.6360
 0.7190	28.5490
 0.7200	29.4540
 0.7210	30.3460
 0.7220	31.2240
 0.7230	32.0850
 0.7240	32.9230
 0.7250	33.7390
 0.7260	34.5330
 0.7270	35.3020
 0.7280	36.0360
 0.7290	36.7440
 0.7300	37.4240
 0.7310	38.0730
 0.7320	38.6900
 0.7330	39.2760
 0.7340	39.8340
 0.7350	40.3670
 0.7360	40.8640
 0.7370	41.3310
 0.7380	41.7750
 0.7390	42.1850
 0.7400	42.5740
 0.7410	42.9370
 0.7420	43.2720
 0.7430	43.5870
 0.7440	43.8790
 0.7450	44.1440
 0.7460	44.3860
 0.7470	44.6060
 0.7480	44.8070
 0.7490	44.9910
 0.7500	45.1620
 0.7510	45.3170
 0.7520	45.4570
 0.7530	45.5840
 0.7540	45.6960
 0.7550	45.7980
 0.7560	45.8900
 0.7570	45.9720
 0.7580	46.0480
 0.7590	46.1170
 0.7600	46.1770
 0.7610	46.2320
 0.7620	46.2820
 0.7630	46.3270
 0.7640	46.3660
 0.7650	46.4010
 0.7660	46.4310
 0.7670	46.4560
 0.7680	46.4800
 0.7690	46.5040
 0.7700	46.5240
 0.7710	46.5410
 0.7720	46.5600
 0.7730	46.5730
 0.7740	46.5860
 0.7750	46.6060
 0.7760	46.6180
 0.7770	46.6280
 0.7780	46.6400
 0.7790	46.6540
 0.7800	46.6640
 0.7810	46.6760
 0.7820	46.6890
 0.7830	46.7030
 0.7840	46.7120
 0.7850	46.7200
 0.7860	46.7300
 0.7870	46.7430
 0.7880	46.7500
 0.7890	46.7570
 0.7900	46.7710
 0.7910	46.7790
 0.7920	46.7850
 0.7930	46.7930
 0.7940	46.8030
 0.7950	46.8100
 0.7960	46.8120
 0.7970	46.8120
 0.7980	46.8190
 0.7990	46.8250
 0.8000	46.8300
 0.8010	46.8320
 0.8020	46.8370
 0.8030	46.8390
 0.8040	46.8390
 0.8050	46.8390
 0.8060	46.8420
 0.8070	46.8410
 0.8080	46.8370
 0.8090	46.8370
 0.8100	46.8380
 0.8110	46.8380
 0.8120	46.8350
 0.8130	46.8280
 0.8140	46.8230
 0.8150	46.8200
 0.8160	46.8160
 0.8170	46.8190
 0.8180	46.8150
 0.8190	46.8070
 0.8200	46.8000
 0.8210	46.7970
 0.8220	46.7930
 0.8230	46.7870
 0.8240	46.7780
 0.8250	46.7720
 0.8260	46.7640
 0.8270	46.7510
 0.8280	46.7470
 0.8290	46.7400
 0.8300	46.7310
 0.8310	46.7240
 0.8320	46.7200
 0.8330	46.7110
 0.8340	46.7010
 0.8350	46.6970
 0.8360	46.6930
 0.8370	46.6850
 0.8380	46.6760
 0.8390	46.6750
 0.8400	46.6710
 0.8410	46.6650
 0.8420	46.6610
 0.8430	46.6600
 0.8440	46.6560
 0.8450	46.6530
 0.8460	46.6520
 0.8470	46.6460
 0.8480	46.6460
 0.8490	46.6490
 0.8500	46.6490
 0.8510	46.6440
 0.8520	46.6400
 0.8530	46.6390
 0.8540	46.6420
 0.8550	46.6420
 0.8560	46.6390
 0.8570	46.6380
 0.8580	46.6420
 0.8590	46.6400
 0.8600	46.6400
 0.8610	46.6450
 0.8620	46.6470
 0.8630	46.6440
 0.8640	46.6410
 0.8650	46.6420
 0.8660	46.6540
 0.8670	46.6580
 0.8680	46.6540
 0.8690	46.6510
 0.8700	46.6610
 0.8710	46.6660
 0.8720	46.6660
 0.8730	46.6730
 0.8740	46.6790
 0.8750	46.6820
 0.8760	46.6840
 0.8770	46.6900
 0.8780	46.6940
 0.8790	46.6950
 0.8800	46.6940
 0.8810	46.7000
 0.8820	46.7070
 0.8830	46.7140
 0.8840	46.7170
 0.8850	46.7170
 0.8860	46.7180
 0.8870	46.7190
 0.8880	46.7180
 0.8890	46.7280
 0.8900	46.7370
 0.8910	46.7400
 0.8920	46.7420
 0.8930	46.7450
 0.8940	46.7470
 0.8950	46.7480
 0.8960	46.7500
 0.8970	46.7530
 0.8980	46.7570
 0.8990	46.7580
 0.9000	46.7550
 0.9010	46.7660
 0.9020	46.7710
 0.9030	46.7670
 0.9040	46.7710
 0.9050	46.7800
 0.9060	46.7870
 0.9070	46.7890
 0.9080	46.7870
 0.9090	46.7870
 0.9100	46.7890
 0.9110	46.7950
 0.9120	46.7990
 0.9130	46.7990
 0.9140	46.8020
 0.9150	46.8110
 0.9160	46.8140
 0.9170	46.8100
 0.9180	46.8070
 0.9190	46.8110
 0.9200	46.8140
 0.9210	46.8120
 0.9220	46.8050
 0.9230	46.7960
 0.9240	46.7810
 0.9250	46.7830
 0.9260	46.7920
 0.9270	46.7810
 0.9280	46.7630
 0.9290	46.7500
 0.9300	46.7430
 0.9310	46.7370
 0.9320	46.7250
 0.9330	46.7080
 0.9340	46.6910
 0.9350	46.6790
 0.9360	46.6680
 0.9370	46.6520
 0.9380	46.6290
 0.9390	46.6180
 0.9400	46.6010
 0.9410	46.5830
 0.9420	46.5650
 0.9430	46.5390
 0.9440	46.5110
 0.9450	46.4800
 0.9460	46.4500
 0.9470	46.4340
 0.9480	46.3950
 0.9490	46.3480
 0.9500	46.3090
 0.9510	46.2690
 0.9520	46.2300
 0.9530	46.1850
 0.9540	46.1280
 0.9550	46.0770
 0.9560	46.0250
 0.9570	45.9810
 0.9580	45.9480
 0.9590	45.9030
 0.9600	45.8540
 0.9610	45.8160
 0.9620	45.7970
 0.9630	45.7620
 0.9640	45.7260
 0.9650	45.7010
 0.9660	45.6930
 0.9670	45.6710
 0.9680	45.6530
 0.9690	45.6400
 0.9700	45.6250
 0.9710	45.6160
 0.9720	45.6020
 0.9730	45.5840
 0.9740	45.5710
 0.9750	45.5750
 0.9760	45.5820
 0.9770	45.5770
 0.9780	45.5570
 0.9790	45.5470
 0.9800	45.5500
 0.9810	45.5550
 0.9820	45.5480
 0.9830	45.5590
 0.9840	45.5680
 0.9850	45.5680
 0.9860	45.5640
 0.9870	45.5650
 0.9880	45.5730
 0.9890	45.5880
 0.9900	45.6080
 0.9910	45.6020
 0.9920	45.6110
 0.9930	45.6250
 0.9940	45.6210
 0.9950	45.6370
 0.9960	45.6600
 0.9970	45.6840
 0.9980	45.7060
 0.9990	45.7120
 1.0000	45.8150
 1.0010	46.0120
 1.0020	46.1250
 1.0030	46.1380
 1.0040	46.1570
 1.0050	46.1670
 1.0060	46.1750
 1.0070	46.1940
 1.0080	46.2100
 1.0090	46.2220
 1.0100	46.2390
 1.0110	46.2620
 1.0120	46.2780
 1.0130	46.2910
 1.0140	46.3070
 1.0150	46.3240
 1.0160	46.3350
 1.0170	46.3490
 1.0180	46.3650
 1.0190	46.3760
 1.0200	46.3900
 1.0210	46.4040
 1.0220	46.4160
 1.0230	46.4310
 1.0240	46.4490
 1.0250	46.4650
 1.0260	46.4850
 1.0270	46.4980
 1.0280	46.5030
 1.0290	46.5150
 1.0300	46.5280
 1.0310	46.5400
 1.0320	46.5550
 1.0330	46.5700
 1.0340	46.5830
 1.0350	46.5930
 1.0360	46.6000
 1.0370	46.6100
 1.0380	46.6230
 1.0390	46.6350
 1.0400	46.6450
 1.0410	46.6610
 1.0420	46.6720
 1.0430	46.6790
 1.0440	46.6870
 1.0450	46.6940
 1.0460	46.7020
 1.0470	46.7090
 1.0480	46.7170
 1.0490	46.7300
 1.0500	46.7390
 1.0510	46.7460
 1.0520	46.7550
 1.0530	46.7640
 1.0540	46.7710
 1.0550	46.7790
 1.0560	46.7910
 1.0570	46.7980
 1.0580	46.8030
 1.0590	46.8070
 1.0600	46.8080
 1.0610	46.8110
 1.0620	46.8150
 1.0630	46.8180
 1.0640	46.8220
 1.0650	46.8250
 1.0660	46.8250
 1.0670	46.8270
 1.0680	46.8290
 1.0690	46.8320
 1.0700	46.8340
 1.0710	46.8380
 1.0720	46.8390
 1.0730	46.8360
 1.0740	46.8360
 1.0750	46.8380
 1.0760	46.8380
 1.0770	46.8370
 1.0780	46.8380
 1.0790	46.8380
 1.0800	46.8360
 1.0810	46.8360
 1.0820	46.8340
 1.0830	46.8260
 1.0840	46.8220
 1.0850	46.8200
 1.0860	46.8180
 1.0870	46.8140
 1.0880	46.8120
 1.0890	46.8070
 1.0900	46.8000
 1.0910	46.7930
 1.0920	46.7850
 1.0930	46.7790
 1.0940	46.7740
 1.0950	46.7670
 1.0960	46.7600
 1.0970	46.7540
 1.0980	46.7460
 1.0990	46.7380
 1.1000	46.7310
 1.1010	46.7220
 1.1020	46.7130
 1.1030	46.7020
 1.1040	46.6900
 1.1050	46.6800
 1.1060	46.6710
 1.1070	46.6630
 1.1080	46.6520
 1.1090	46.6420
 1.1100	46.6300
 1.1110	46.6150
 1.1120	46.6010
 1.1130	46.5860
 1.1140	46.5720
 1.1150	46.5620
 1.1160	46.5460
 1.1170	46.5300
 1.1180	46.5120
 1.1190	46.4910
 1.1200	46.4670
 1.1210	46.4470
 1.1220	46.4230
 1.1230	46.3950
 1.1240	46.3650
 1.1250	46.3310
 1.1260	46.2940
 1.1270	46.2520
 1.1280	46.2090
 1.1290	46.1580
 1.1300	46.1010
 1.1310	46.0410
 1.1320	45.9750
 1.1330	45.9060
 1.1340	45.8370
 1.1350	45.7590
 1.1360	45.6740
 1.1370	45.5850
 1.1380	45.4860
 1.1390	45.3840
 1.1400	45.2790
 1.1410	45.1710
 1.1420	45.0630
 1.1430	44.9520
 1.1440	44.8400
 1.1450	44.7210
 1.1460	44.6110
 1.1470	44.5010
 1.1480	44.3940
 1.1490	44.2900
 1.1500	44.1900
 1.1510	44.0920
 1.1520	44.0010
 1.1530	43.9140
 1.1540	43.8350
 1.1550	43.7600
 1.1560	43.6930
 1.1570	43.6330
 1.1580	43.5810
 1.1590	43.5340
 1.1600	43.4900
 1.1610	43.4510
 1.1620	43.4170
 1.1630	43.3850
 1.1640	43.3590
 1.1650	43.3340
 1.1660	43.3130
 1.1670	43.2940
 1.1680	43.2800
 1.1690	43.2650
 1.1700	43.2530
 1.1710	43.2400
 1.1720	43.2270
 1.1730	43.2140
 1.1740	43.2020
 1.1750	43.1880
 1.1760	43.1750
 1.1770	43.1620
 1.1780	43.1460
 1.1790	43.1330
 1.1800	43.1200
 1.1810	43.1050
 1.1820	43.0930
 1.1830	43.0810
 1.1840	43.0670
 1.1850	43.0540
 1.1860	43.0410
 1.1870	43.0260
 1.1880	43.0150
 1.1890	43.0050
 1.1900	42.9970
 1.1910	42.9920
 1.1920	42.9850
 1.1930	42.9790
 1.1940	42.9760
 1.1950	42.9740
 1.1960	42.9720
 1.1970	42.9730
 1.1980	42.9750
 1.1990	42.9750
 1.2000	42.9770
 1.2010	42.9820
 1.2020	42.9880
 1.2030	42.9960
 1.2040	43.0050
 1.2050	43.0140
 1.2060	43.0240
 1.2070	43.0360
 1.2080	43.0490
 1.2090	43.0620
 1.2100	43.0760
 1.2110	43.0920
 1.2120	43.1100
 1.2130	43.1270
 1.2140	43.1450
 1.2150	43.1630
 1.2160	43.1810
 1.2170	43.2020
 1.2180	43.2250
 1.2190	43.2470
 1.2200	43.2710
 1.2210	43.2920
 1.2220	43.3120
 1.2230	43.3340
 1.2240	43.3580
 1.2250	43.3820
 1.2260	43.4050
 1.2270	43.4280
 1.2280	43.4460
 1.2290	43.4620
 1.2300	43.4800
 1.2310	43.4970
 1.2320	43.5150
 1.2330	43.5340
 1.2340	43.5520
 1.2350	43.5690
 1.2360	43.5850
 1.2370	43.6010
 1.2380	43.6160
 1.2390	43.6300
 1.2400	43.6450
 1.2410	43.6580
 1.2420	43.6710
 1.2430	43.6820
 1.2440	43.6920
 1.2450	43.7040
 1.2460	43.7170
 1.2470	43.7300
 1.2480	43.7420
 1.2490	43.7530
 1.2500	43.7630
 1.2510	43.7710
 1.2520	43.7820
 1.2530	43.7910
 1.2540	43.7980
 1.2550	43.8050
 1.2560	43.8110
 1.2570	43.8140
 1.2580	43.8180
 1.2590	43.8220
 1.2600	43.8270
 1.2610	43.8290
 1.2620	43.8320
 1.2630	43.8330
 1.2640	43.8320
 1.2650	43.8310
 1.2660	43.8290
 1.2670	43.8240
 1.2680	43.8200
 1.2690	43.8170
 1.2700	43.8130
 1.2710	43.8100
 1.2720	43.8070
 1.2730	43.8000
 1.2740	43.7920
 1.2750	43.7820
 1.2760	43.7710
 1.2770	43.7590
 1.2780	43.7470
 1.2790	43.7330
 1.2800	43.7200
 1.2810	43.7060
 1.2820	43.6940
 1.2830	43.6820
 1.2840	43.6680
 1.2850	43.6520
 1.2860	43.6320
 1.2870	43.6100
 1.2880	43.5850
 1.2890	43.5610
 1.2900	43.5360
 1.2910	43.5120
 1.2920	43.4870
 1.2930	43.4590
 1.2940	43.4290
 1.2950	43.3950
 1.2960	43.3640
 1.2970	43.3320
 1.2980	43.2930
 1.2990	43.2550
 1.3000	43.2130
 1.3010	43.1680
 1.3020	43.1240
 1.3030	43.0780
 1.3040	43.0300
 1.3050	42.9780
 1.3060	42.9230
 1.3070	42.8660
 1.3080	42.8080
 1.3090	42.7470
 1.3100	42.6820
 1.3110	42.6160
 1.3120	42.5480
 1.3130	42.4770
 1.3140	42.4030
 1.3150	42.3300
 1.3160	42.2510
 1.3170	42.1670
 1.3180	42.0810
 1.3190	41.9930
 1.3200	41.9020
 1.3210	41.8090
 1.3220	41.7140
 1.3230	41.6150
 1.3240	41.5130
 1.3250	41.4100
 1.3260	41.3040
 1.3270	41.1970
 1.3280	41.0890
 1.3290	40.9760
 1.3300	40.8620
 1.3310	40.7450
 1.3320	40.6260
 1.3330	40.5070
 1.3340	40.3870
 1.3350	40.2680
 1.3360	40.1470
 1.3370	40.0250
 1.3380	39.9010
 1.3390	39.7740
 1.3400	39.6490
 1.3410	39.5270
 1.3420	39.4060
 1.3430	39.2870
 1.3440	39.1690
 1.3450	39.0510
 1.3460	38.9320
 1.3470	38.8150
 1.3480	38.6980
 1.3490	38.5830
 1.3500	38.4690
 1.3510	38.3560
 1.3520	38.2410
 1.3530	38.1290
 1.3540	38.0160
 1.3550	37.9030
 1.3560	37.7900
 1.3570	37.6740
 1.3580	37.5570
 1.3590	37.4400
 1.3600	37.3210
 1.3610	37.2000
 1.3620	37.0730
 1.3630	36.9420
 1.3640	36.8030
 1.3650	36.6590
 1.3660	36.5100
 1.3670	36.3540
 1.3680	36.1890
 1.3690	36.0140
 1.3700	35.8250
 1.3710	35.6250
 1.3720	35.4130
 1.3730	35.1840
 1.3740	34.9430
 1.3750	34.6850
 1.3760	34.4050
 1.3770	34.1060
 1.3780	33.7840
 1.3790	33.4400
 1.3800	33.0760
 1.3810	32.6880
 1.3820	32.2810
 1.3830	31.8560
 1.3840	31.4110
 1.3850	30.9440
 1.3860	30.4640
 1.3870	29.9610
 1.3880	29.4530
 1.3890	28.9310
 1.3900	28.3990
 1.3910	27.8650
 1.3920	27.3230
 1.3930	26.7760
 1.3940	26.2300
 1.3950	25.6800
 1.3960	25.1360
 1.3970	24.6000
 1.3980	24.0730
 1.3990	23.5650
 1.4000	23.0700
 1.4010	22.5860
 1.4020	22.1220
 1.4030	21.6720
 1.4040	21.2410
 1.4050	20.8330
 1.4060	20.4430
 1.4070	20.0770
 1.4080	19.7330
 1.4090	19.4060
 1.4100	19.1010
 1.4110	18.8140
 1.4120	18.5470
 1.4130	18.2990
 1.4140	18.0690
 1.4150	17.8580
 1.4160	17.6630
 1.4170	17.4840
 1.4180	17.3190
 1.4190	17.1650
 1.4200	17.0260
 1.4210	16.8970
 1.4220	16.7800
 1.4230	16.6740
 1.4240	16.5770
 1.4250	16.4880
 1.4260	16.4100
 1.4270	16.3370
 1.4280	16.2730
 1.4290	16.2160
 1.4300	16.1660
 1.4310	16.1200
 1.4320	16.0830
 1.4330	16.0490
 1.4340	16.0190
 1.4350	15.9930
 1.4360	15.9730
 1.4370	15.9550
 1.4380	15.9420
 1.4390	15.9330
 1.4400	15.9260
 1.4410	15.9220
 1.4420	15.9200
 1.4430	15.9210
 1.4440	15.9240
 1.4450	15.9280
 1.4460	15.9330
 1.4470	15.9410
 1.4480	15.9510
 1.4490	15.9620
 1.4500	15.9750
 1.4510	15.9890
 1.4520	16.0030
 1.4530	16.0200
 1.4540	16.0380
 1.4550	16.0570
 1.4560	16.0800
 1.4570	16.1030
 1.4580	16.1290
 1.4590	16.1580
 1.4600	16.1910
 1.4610	16.2270
 1.4620	16.2670
 1.4630	16.3120
 1.4640	16.3590
 1.4650	16.4110
 1.4660	16.4690
 1.4670	16.5300
 1.4680	16.5970
 1.4690	16.6680
 1.4700	16.7420
 1.4710	16.8200
 1.4720	16.9020
 1.4730	16.9870
 1.4740	17.0750
 1.4750	17.1670
 1.4760	17.2630
 1.4770	17.3610
 1.4780	17.4610
 1.4790	17.5630
 1.4800	17.6670
 1.4810	17.7710
 1.4820	17.8770
 1.4830	17.9840
 1.4840	18.0930
 1.4850	18.2020
 1.4860	18.3120
 1.4870	18.4250
 1.4880	18.5350
 1.4890	18.6470
 1.4900	18.7600
 1.4910	18.8740
 1.4920	18.9870
 1.4930	19.1020
 1.4940	19.2170
 1.4950	19.3330
 1.4960	19.4490
 1.4970	19.5650
 1.4980	19.6820
 1.4990	19.7980
 1.5000	19.9140
 1.5010	20.0310
 1.5020	20.1470
 1.5030	20.2630
 1.5040	20.3780
 1.5050	20.4930
 1.5060	20.6070
 1.5070	20.7210
 1.5080	20.8350
 1.5090	20.9490
 1.5100	21.0620
 1.5110	21.1750
 1.5120	21.2900
 1.5130	21.4020
 1.5140	21.5130
 1.5150	21.6240
 1.5160	21.7330
 1.5170	21.8420
 1.5180	21.9500
 1.5190	22.0570
 1.5200	22.1650
 1.5210	22.2720
 1.5220	22.3790
 1.5230	22.4840
 1.5240	22.5880
 1.5250	22.6900
 1.5260	22.7920
 1.5270	22.8930
 1.5280	22.9940
 1.5290	23.0930
 1.5300	23.1920
 1.5310	23.2900
 1.5320	23.3860
 1.5330	23.4820
 1.5340	23.5770
 1.5350	23.6710
 1.5360	23.7640
 1.5370	23.8560
 1.5380	23.9480
 1.5390	24.0400
 1.5400	24.1300
 1.5410	24.2190
 1.5420	24.3090
 1.5430	24.3960
 1.5440	24.4830
 1.5450	24.5680
 1.5460	24.6530
 1.5470	24.7370
 1.5480	24.8190
 1.5490	24.9020
 1.5500	24.9850
 1.5510	25.0660
 1.5520	25.1470
 1.5530	25.2260
 1.5540	25.3030
 1.5550	25.3810
 1.5560	25.4580
 1.5570	25.5340
 1.5580	25.6090
 1.5590	25.6830
 1.5600	25.7550
 1.5610	25.8280
 1.5620	25.9010
 1.5630	25.9730
 1.5640	26.0420
 1.5650	26.1100
 1.5660	26.1790
 1.5670	26.2470
 1.5680	26.3150
 1.5690	26.3830
 1.5700	26.4500
 1.5710	26.5170
 1.5720	26.5830
 1.5730	26.6490
 1.5740	26.7140
 1.5750	26.7770
 1.5760	26.8410
 1.5770	26.9050
 1.5780	26.9680
 1.5790	27.0310
 1.5800	27.0930
 1.5810	27.1550
 1.5820	27.2160
 1.5830	27.2780
 1.5840	27.3400
 1.5850	27.4020
 1.5860	27.4630
 1.5870	27.5230
 1.5880	27.5810
 1.5890	27.6390
 1.5900	27.6970
 1.5910	27.7570
 1.5920	27.8160
 1.5930	27.8730
 1.5940	27.9300
 1.5950	27.9840
 1.5960	28.0380
 1.5970	28.0940
 1.5980	28.1480
 1.5990	28.2030
 1.6000	28.2580
 1.6010	28.3130
 1.6020	28.3670
 1.6030	28.4210
 1.6040	28.4720
 1.6050	28.5220
 1.6060	28.5710
 1.6070	28.6190
 1.6080	28.6680
 1.6090	28.7160
 1.6100	28.7640
 1.6110	28.8120
 1.6120	28.8580
 1.6130	28.9050
 1.6140	28.9510
 1.6150	28.9960
 1.6160	29.0400
 1.6170	29.0810
 1.6180	29.1220
 1.6190	29.1620
 1.6200	29.2010
 1.6210	29.2410
 1.6220	29.2800
 1.6230	29.3190
 1.6240	29.3590
 1.6250	29.3970
 1.6260	29.4330
 1.6270	29.4680
 1.6280	29.5010
 1.6290	29.5360
 1.6300	29.5700
 1.6310	29.6020
 1.6320	29.6320
 1.6330	29.6620
 1.6340	29.6900
 1.6350	29.7180
 1.6360	29.7470
 1.6370	29.7730
 1.6380	29.7960
 1.6390	29.8190
 1.6400	29.8410
 1.6410	29.8600
 1.6420	29.8790
 1.6430	29.8960
 1.6440	29.9120
 1.6450	29.9250
 1.6460	29.9370
 1.6470	29.9470
 1.6480	29.9500
 1.6490	29.9540
 1.6500	29.9560
 1.6510	29.9550
 1.6520	29.9550
 1.6530	29.9570
 1.6540	29.9570
 1.6550	29.9550
 1.6560	29.9520
 1.6570	29.9480
 1.6580	29.9410
 1.6590	29.9360
 1.6600	29.9310
 1.6610	29.9250
 1.6620	29.9210
 1.6630	29.9200
 1.6640	29.9200
 1.6650	29.9190
 1.6660	29.9190
 1.6670	29.9180
 1.6680	29.9140
 1.6690	29.9110
 1.6700	29.9070
 1.6710	29.9030
 1.6720	29.8980
 1.6730	29.8900
 1.6740	29.8810
 1.6750	29.8680
 1.6760	29.8540
 1.6770	29.8370
 1.6780	29.8180
 1.6790	29.7990
 1.6800	29.7760
 1.6810	29.7520
 1.6820	29.7240
 1.6830	29.6910
 1.6840	29.6560
 1.6850	29.6200
 1.6860	29.5820
 1.6870	29.5450
 1.6880	29.5070
 1.6890	29.4640
 1.6900	29.4220
 1.6910	29.3760
 1.6920	29.3320
 1.6930	29.2900
 1.6940	29.2480
 1.6950	29.2070
 1.6960	29.1660
 1.6970	29.1270
 1.6980	29.0850
 1.6990	29.0420
 1.7000	29.0000
 1.7010	28.9580
 1.7020	28.9160
 1.7030	28.8760
 1.7040	28.8340
 1.7050	28.7910
 1.7060	28.7490
 1.7070	28.7060
 1.7080	28.6630
 1.7090	28.6200
 1.7100	28.5760
 1.7110	28.5310
 1.7120	28.4890
 1.7130	28.4480
 1.7140	28.4050
 1.7150	28.3630
 1.7160	28.3190
 1.7170	28.2740
 1.7180	28.2320
 1.7190	28.1940
 1.7200	28.1530
 1.7210	28.1110
 1.7220	28.0700
 1.7230	28.0270
 1.7240	27.9850
 1.7250	27.9460
 1.7260	27.9070
 1.7270	27.8670
 1.7280	27.8300
 1.7290	27.7930
 1.7300	27.7540
 1.7310	27.7170
 1.7320	27.6790
 1.7330	27.6410
 1.7340	27.6040
 1.7350	27.5660
 1.7360	27.5280
 1.7370	27.4900
 1.7380	27.4530
 1.7390	27.4120
 1.7400	27.3680
 1.7410	27.3240
 1.7420	27.2760
 1.7430	27.2300
 1.7440	27.1860
 1.7450	27.1380
 1.7460	27.0880
 1.7470	27.0380
 1.7480	26.9860
 1.7490	26.9360
 1.7500	26.8890
 1.7510	26.8400
 1.7520	26.7910
 1.7530	26.7400
 1.7540	26.6870
 1.7550	26.6380
 1.7560	26.5880
 1.7570	26.5410
 1.7580	26.4940
 1.7590	26.4430
 1.7600	26.3950
 1.7610	26.3440
 1.7620	26.2970
 1.7630	26.2540
 1.7640	26.2120
 1.7650	26.1750
 1.7660	26.1360
 1.7670	26.0970
 1.7680	26.0590
 1.7690	26.0210
 1.7700	25.9840
 1.7710	25.9470
 1.7720	25.9140
 1.7730	25.8820
 1.7740	25.8510
 1.7750	25.8230
 1.7760	25.7940
 1.7770	25.7630
 1.7780	25.7360
 1.7790	25.7090
 1.7800	25.6870
 1.7810	25.6680
 1.7820	25.6490
 1.7830	25.6330
 1.7840	25.6150
 1.7850	25.5960
 1.7860	25.5800
 1.7870	25.5640
 1.7880	25.5540
 1.7890	25.5460
 1.7900	25.5380
 1.7910	25.5320
 1.7920	25.5280
 1.7930	25.5240
 1.7940	25.5210
 1.7950	25.5190
 1.7960	25.5160
 1.7970	25.5150
 1.7980	25.5170
 1.7990	25.5190
 1.8000	25.5220
 1.8010	25.5250
 1.8020	25.5280
 1.8030	25.5340
 1.8040	25.5430
 1.8050	25.5510
 1.8060	25.5590
 1.8070	25.5660
 1.8080	25.5690
 1.8090	25.5750
 1.8100	25.5820
 1.8110	25.5880
 1.8120	25.5960
 1.8130	25.6010
 1.8140	25.6060
 1.8150	25.6120
 1.8160	25.6160
 1.8170	25.6190
 1.8180	25.6220
 1.8190	25.6220
 1.8200	25.6220
 1.8210	25.6200
 1.8220	25.6200
 1.8230	25.6220
 1.8240	25.6200
 1.8250	25.6180
 1.8260	25.6150
 1.8270	25.6080
 1.8280	25.6020
 1.8290	25.5960
 1.8300	25.5300
 1.8310	25.4160
 1.8320	25.3380
 1.8330	25.3170
 1.8340	25.2910
 1.8350	25.2630
 1.8360	25.2310
 1.8370	25.1900
 1.8380	25.1470
 1.8390	25.1010
 1.8400	25.0530
 1.8410	24.9960
 1.8420	24.9360
 1.8430	24.8730
 1.8440	24.7970
 1.8450	24.7170
 1.8460	24.6330
 1.8470	24.5370
 1.8480	24.4350
 1.8490	24.3240
 1.8500	24.2030
 1.8510	24.0720
 1.8520	23.9310
 1.8530	23.7780
 1.8540	23.6160
 1.8550	23.4420
 1.8560	23.2570
 1.8570	23.0610
 1.8580	22.8480
 1.8590	22.6230
 1.8600	22.3850
 1.8610	22.1320
 1.8620	21.8640
 1.8630	21.5870
 1.8640	21.2930
 1.8650	20.9810
 1.8660	20.6560
 1.8670	20.3110
 1.8680	19.9520
 1.8690	19.5780
 1.8700	19.1870
 1.8710	18.7800
 1.8720	18.3620
 1.8730	17.9330
 1.8740	17.4940
 1.8750	17.0500
 1.8760	16.6000
 1.8770	16.1500
 1.8780	15.6960
 1.8790	15.2390
 1.8800	14.7900
 1.8810	14.3440
 1.8820	13.9020
 1.8830	13.4640
 1.8840	13.0390
 1.8850	12.6170
 1.8860	12.2060
 1.8870	11.8110
 1.8880	11.4310
 1.8890	11.0730
 1.8900	10.7330
 1.8910	10.4130
 1.8920	10.1060
 1.8930	 9.8220
 1.8940	 9.5560
 1.8950	 9.3140
 1.8960	 9.0930
 1.8970	 8.8890
 1.8980	 8.7000
 1.8990	 8.5310
 1.9000	 8.3760
 1.9010	 8.2370
 1.9020	 8.1130
 1.9030	 8.0070
 1.9040	 7.9090
 1.9050	 7.8260
 1.9060	 7.7500
 1.9070	 7.6820
 1.9080	 7.6230
 1.9090	 7.5710
 1.9100	 7.5280
 1.9110	 7.4860
 1.9120	 7.4550
 1.9130	 7.4240
 1.9140	 7.3990
 1.9150	 7.3760
 1.9160	 7.3560
 1.9170	 7.3390
 1.9180	 7.3220
 1.9190	 7.3120
 1.9200	 7.3010
 1.9210	 7.2960
 1.9220	 7.2920
 1.9230	 7.2910
 1.9240	 7.2900
 1.9250	 7.2880
 1.9260	 7.2870
 1.9270	 7.2860
 1.9280	 7.2870
 1.9290	 7.2910
 1.9300	 7.2980
 1.9310	 7.3040
 1.9320	 7.3120
 1.9330	 7.3220
 1.9340	 7.3300
 1.9350	 7.3400
 1.9360	 7.3470
 1.9370	 7.3590
 1.9380	 7.3700
 1.9390	 7.3840
 1.9400	 7.3980
 1.9410	 7.4130
 1.9420	 7.4310
 1.9430	 7.4490
 1.9440	 7.4660
 1.9450	 7.4870
 1.9460	 7.5070
 1.9470	 7.5240
 1.9480	 7.5450
 1.9490	 7.5630
 1.9500	 7.5840
 1.9510	 7.6050
 1.9520	 7.6290
 1.9530	 7.6540
 1.9540	 7.6780
 1.9550	 7.7030
 1.9560	 7.7310
 1.9570	 7.7590
 1.9580	 7.7870
 1.9590	 7.8140
 1.9600	 7.8400
 1.9610	 7.8710
 1.9620	 7.8960
 1.9630	 7.9280
 1.9640	 7.9600
 1.9650	 7.9940
 1.9660	 8.0310
 1.9670	 8.0670
 1.9680	 8.1040
 1.9690	 8.1380
 1.9700	 8.1730
 1.9710	 8.2050
 1.9720	 8.2410
 1.9730	 8.2780
 1.9740	 8.3160
 1.9750	 8.3550
 1.9760	 8.3950
 1.9770	 8.4360
 1.9780	 8.4770
 1.9790	 8.5170
 1.9800	 8.5580
 1.9810	 8.6010
 1.9820	 8.6440
 1.9830	 8.6890
 1.9840	 8.7380
 1.9850	 8.7870
 1.9860	 8.8380
 1.9870	 8.8860
 1.9880	 8.9330
 1.9890	 8.9800
 1.9900	 9.0290
 1.9910	 9.0790
 1.9920	 9.1280
 1.9930	 9.1800
 1.9940	 9.2300
 1.9950	 9.2790
 1.9960	 9.3300
 1.9970	 9.3790
 1.9980	 9.4290
 1.9990	 9.4830
 2.0000	 9.5380
 2.0010	 9.5910
 2.0020	 9.6460
 2.0030	 9.6980
 2.0040	 9.7510
 2.0050	 9.8030
 2.0060	 9.8530
 2.0070	 9.9060
 2.0080	 9.9600
 2.0090	10.0140
 2.0100	10.0680
 2.0110	10.1210
 2.0120	10.1710
 2.0130	10.2210
 2.0140	10.2720
 2.0150	10.3170
 2.0160	10.3650
 2.0170	10.4120
 2.0180	10.4610
 2.0190	10.5090
 2.0200	10.5560
 2.0210	10.6030
 2.0220	10.6490
 2.0230	10.6960
 2.0240	10.7420
 2.0250	10.7900
 2.0260	10.8350
 2.0270	10.8780
 2.0280	10.9170
 2.0290	10.9540
 2.0300	10.9930
 2.0310	11.0330
 2.0320	11.0750
 2.0330	11.1150
 2.0340	11.1550
 2.0350	11.1920
 2.0360	11.2280
 2.0370	11.2630
 2.0380	11.2960
 2.0390	11.3310
 2.0400	11.3660
 2.0410	11.4000
 2.0420	11.4330
 2.0430	11.4670
 2.0440	11.4970
 2.0450	11.5250
 2.0460	11.5540
 2.0470	11.5830
 2.0480	11.6120
 2.0490	11.6400
 2.0500	11.6680
 2.0510	11.6950
 2.0520	11.7230
 2.0530	11.7490
 2.0540	11.7780
 2.0550	11.8070
 2.0560	11.8370
 2.0570	11.8690
 2.0580	11.9030
 2.0590	11.9370
 2.0600	11.9720
 2.0610	12.0040
 2.0620	12.0330
 2.0630	12.0630
 2.0640	12.0910
 2.0650	12.1230
 2.0660	12.1570
 2.0670	12.1890
 2.0680	12.2230
 2.0690	12.2540
 2.0700	12.2820
 2.0710	12.3130
 2.0720	12.3460
 2.0730	12.3790
 2.0740	12.4100
 2.0750	12.4420
 2.0760	12.4740
 2.0770	12.5040
 2.0780	12.5350
 2.0790	12.5710
 2.0800	12.6020
 2.0810	12.6310
 2.0820	12.6600
 2.0830	12.6880
 2.0840	12.7160
 2.0850	12.7430
 2.0860	12.7710
 2.0870	12.7990
 2.0880	12.8280
 2.0890	12.8560
 2.0900	12.8840
 2.0910	12.9130
 2.0920	12.9420
 2.0930	12.9690
 2.0940	12.9970
 2.0950	13.0250
 2.0960	13.0530
 2.0970	13.0800
 2.0980	13.1070
 2.0990	13.1340
 2.1000	13.1600
 2.1010	13.1870
 2.1020	13.2150
 2.1030	13.2410
 2.1040	13.2660
 2.1050	13.2910
 2.1060	13.3170
 2.1070	13.3430
 2.1080	13.3680
 2.1090	13.3960
 2.1100	13.4190
 2.1110	13.4370
 2.1120	13.4590
 2.1130	13.4800
 2.1140	13.5050
 2.1150	13.5340
 2.1160	13.5610
 2.1170	13.5880
 2.1180	13.6130
 2.1190	13.6350
 2.1200	13.6570
 2.1210	13.6790
 2.1220	13.7020
 2.1230	13.7240
 2.1240	13.7480
 2.1250	13.7680
 2.1260	13.7850
 2.1270	13.8070
 2.1280	13.8300
 2.1290	13.8520
 2.1300	13.8790
 2.1310	13.9000
 2.1320	13.9160
 2.1330	13.9340
 2.1340	13.9520
 2.1350	13.9690
 2.1360	13.9840
 2.1370	14.0010
 2.1380	14.0180
 2.1390	14.0360
 2.1400	14.0570
 2.1410	14.0770
 2.1420	14.0930
 2.1430	14.1070
 2.1440	14.1230
 2.1450	14.1350
 2.1460	14.1540
 2.1470	14.1800
 2.1480	14.2000
 2.1490	14.2210
 2.1500	14.2400
 2.1510	14.2520
 2.1520	14.2690
 2.1530	14.2880
 2.1540	14.3060
 2.1550	14.3260
 2.1560	14.3440
 2.1570	14.3600
 2.1580	14.3740
 2.1590	14.3830
 2.1600	14.3930
 2.1610	14.4070
 2.1620	14.4200
 2.1630	14.4340
 2.1640	14.4500
 2.1650	14.4650
 2.1660	14.4770
 2.1670	14.4920
 2.1680	14.5080
 2.1690	14.5250
 2.1700	14.5420
 2.1710	14.5590
 2.1720	14.5780
 2.1730	14.5960
 2.1740	14.6110
 2.1750	14.6280
 2.1760	14.6440
 2.1770	14.6610
 2.1780	14.6800
 2.1790	14.6980
 2.1800	14.7140
 2.1810	14.7330
 2.1820	14.7540
 2.1830	14.7770
 2.1840	14.7980
 2.1850	14.8210
 2.1860	14.8420
 2.1870	14.8600
 2.1880	14.8810
 2.1890	14.9050
 2.1900	14.9260
 2.1910	14.9440
 2.1920	14.9650
 2.1930	14.9840
 2.1940	15.0070
 2.1950	15.0380
 2.1960	15.0640
 2.1970	15.0920
 2.1980	15.1150
 2.1990	15.1340
 2.2000	15.1520
 2.2010	15.1670
 2.2020	15.1850
 2.2030	15.2030
 2.2040	15.2210
 2.2050	15.2430
 2.2060	15.2650
 2.2070	15.2840
 2.2080	15.3000
 2.2090	15.3170
 2.2100	15.3300
 2.2110	15.3450
 2.2120	15.3610
 2.2130	15.3780
 2.2140	15.3960
 2.2150	15.4130
 2.2160	15.4320
 2.2170	15.4450
 2.2180	15.4520
 2.2190	15.4600
 2.2200	15.4650
 2.2210	15.4700
 2.2220	15.4800
 2.2230	15.4830
 2.2240	15.4840
 2.2250	15.4820
 2.2260	15.4780
 2.2270	15.4700
 2.2280	15.4590
 2.2290	15.4470
 2.2300	15.4280
 2.2310	15.4140
 2.2320	15.3960
 2.2330	15.3730
 2.2340	15.3530
 2.2350	15.3310
 2.2360	15.3070
 2.2370	15.2850
 2.2380	15.2560
 2.2390	15.2220
 2.2400	15.1880
 2.2410	15.1520
 2.2420	15.1120
 2.2430	15.0710
 2.2440	15.0250
 2.2450	14.9700
 2.2460	14.9230
 2.2470	14.8750
 2.2480	14.8280
 2.2490	14.7840
 2.2500	14.7380
 2.2510	14.6900
 2.2520	14.6420
 2.2530	14.5960
 2.2540	14.5480
 2.2550	14.4970
 2.2560	14.4470
 2.2570	14.3920
 2.2580	14.3420
 2.2590	14.2940
 2.2600	14.2430
 2.2610	14.1930
 2.2620	14.1400
 2.2630	14.0850
 2.2640	14.0330
 2.2650	13.9880
 2.2660	13.9450
 2.2670	13.9010
 2.2680	13.8600
 2.2690	13.8160
 2.2700	13.7690
 2.2710	13.7240
 2.2720	13.6750
 2.2730	13.6320
 2.2740	13.5920
 2.2750	13.5490
 2.2760	13.5070
 2.2770	13.4680
 2.2780	13.4280
 2.2790	13.3890
 2.2800	13.3520
 2.2810	13.3150
 2.2820	13.2760
 2.2830	13.2380
 2.2840	13.2010
 2.2850	13.1630
 2.2860	13.1210
 2.2870	13.0840
 2.2880	13.0510
 2.2890	13.0170
 2.2900	12.9860
 2.2910	12.9540
 2.2920	12.9210
 2.2930	12.8860
 2.2940	12.8480
 2.2950	12.8130
 2.2960	12.7790
 2.2970	12.7420
 2.2980	12.7020
 2.2990	12.6630
 2.3000	12.6220
 2.3010	12.5800
 2.3020	12.5460
 2.3030	12.5090
 2.3040	12.4740
 2.3050	12.4440
 2.3060	12.4090
 2.3070	12.3820
 2.3080	12.3600
 2.3090	12.3340
 2.3100	12.3120
 2.3110	12.2930
 2.3120	12.2730
 2.3130	12.2520
 2.3140	12.2300
 2.3150	12.2050
 2.3160	12.1850
 2.3170	12.1660
 2.3180	12.1470
 2.3190	12.1330
 2.3200	12.1150
 2.3210	12.0950
 2.3220	12.0730
 2.3230	12.0510
 2.3240	12.0250
 2.3250	11.9960
 2.3260	11.9680
 2.3270	11.9380
 2.3280	11.9080
 2.3290	11.8800
 2.3300	11.8510
 2.3310	11.8190
 2.3320	11.7900
 2.3330	11.7630
 2.3340	11.7330
 2.3350	11.7020
 2.3360	11.6710
 2.3370	11.6390
 2.3380	11.6040
 2.3390	11.5700
 2.3400	11.5360
 2.3410	11.4950
 2.3420	11.4630
 2.3430	11.4320
 2.3440	11.4030
 2.3450	11.3830
 2.3460	11.3560
 2.3470	11.3280
 2.3480	11.3000
 2.3490	11.2630
 2.3500	11.2320
 2.3510	11.2010
 2.3520	11.1750
 2.3530	11.1540
 2.3540	11.1400
 2.3550	11.1310
 2.3560	11.1190
 2.3570	11.1070
 2.3580	11.0920
 2.3590	11.0630
 2.3600	11.0440
 2.3610	11.0250
 2.3620	11.0020
 2.3630	10.9830
 2.3640	10.9580
 2.3650	10.9270
 2.3660	10.8960
 2.3670	10.8720
 2.3680	10.8390
 2.3690	10.8070
 2.3700	10.7800
 2.3710	10.7450
 2.3720	10.7160
 2.3730	10.6880
 2.3740	10.6580
 2.3750	10.6350
 2.3760	10.6090
 2.3770	10.5780
 2.3780	10.5530
 2.3790	10.5190
 2.3800	10.4850
 2.3810	10.4600
 2.3820	10.4370
 2.3830	10.4120
 2.3840	10.3810
 2.3850	10.3420
 2.3860	10.2990
 2.3870	10.2570
 2.3880	10.2260
 2.3890	10.2020
 2.3900	10.1730
 2.3910	10.1510
 2.3920	10.1260
 2.3930	10.0950
 2.3940	10.0640
 2.3950	10.0250
 2.3960	 9.9910
 2.3970	 9.9620
 2.3980	 9.9320
 2.3990	 9.9040
 2.4000	 9.8670
 2.4010	 9.8340
 2.4020	 9.8040
 2.4030	 9.7790
 2.4040	 9.7640
 2.4050	 9.7370
 2.4060	 9.7050
 2.4070	 9.6590
 2.4080	 9.6180
 2.4090	 9.5960
 2.4100	 9.5640
 2.4110	 9.5410
 2.4120	 9.5210
 2.4130	 9.4800
 2.4140	 9.4390
 2.4150	 9.4040
 2.4160	 9.3620
 2.4170	 9.3230
 2.4180	 9.3010
 2.4190	 9.2720
 2.4200	 9.2360
 2.4210	 9.2080
 2.4220	 9.1660
 2.4230	 9.1200
 2.4240	 9.0870
 2.4250	 9.0460
 2.4260	 9.0090
 2.4270	 8.9830
 2.4280	 8.9570
 2.4290	 8.9310
 2.4300	 8.9100
 2.4310	 8.8720
 2.4320	 8.8370
 2.4330	 8.8110
 2.4340	 8.7730
 2.4350	 8.7570
 2.4360	 8.7320
 2.4370	 8.6830
 2.4380	 8.6470
 2.4390	 8.6180
 2.4400	 8.5870
 2.4410	 8.5650
 2.4420	 8.5490
 2.4430	 8.5210
 2.4440	 8.4820
 2.4450	 8.4560
 2.4460	 8.4130
 2.4470	 8.3700
 2.4480	 8.3350
 2.4490	 8.2950
 2.4500	 8.2890
 2.4510	 8.2810
 2.4520	 8.2500
 2.4530	 8.2380
 2.4540	 8.2100
 2.4550	 8.1640
 2.4560	 8.1560
 2.4570	 8.1280
 2.4580	 8.0890
 2.4590	 8.0730
 2.4600	 8.0340
 2.4610	 7.9940
 2.4620	 7.9760
 2.4630	 7.9600
 2.4640	 7.9480
 2.4650	 7.9250
 2.4660	 7.8990
 2.4670	 7.8730
 2.4680	 7.8520
 2.4690	 7.8710
 2.4700	 7.8570
 2.4710	 7.8270
 2.4720	 7.7980
 2.4730	 7.7430
 2.4740	 7.7320
 2.4750	 7.7580
 2.4760	 7.7530
 2.4770	 7.7560
 2.4780	 7.7550
 2.4790	 7.7470
 2.4800	 7.7370
 2.4810	 7.7150
 2.4820	 7.7020
 2.4830	 7.6700
 2.4840	 7.6360
 2.4850	 7.6760
 2.4860	 7.6740
 2.4870	 7.6550
 2.4880	 7.6310
 2.4890	 7.5540
 2.4900	 7.5390
 2.4910	 7.5530
 2.4920	 7.5560
 2.4930	 7.5770
 2.4940	 7.5970
 2.4950	 7.5790
 2.4960	 7.5570
 2.4970	 7.6130
 2.4980	 7.6420
 2.4990	 7.6390
 2.5000	 7.6270
