Name: Pinus ponderosa 3
Type: vegetation
Class: Tree
Genus: Pinus
Species: ponderosa
Sample No.: VH163
Owner: UCSB
Wavelength Range: VSWIR
Origin: 37.043; -119.3048; WGS84
Collection Date: 6/8/2013
Description: Samples were collected as part of the HyspIRI Airborne Campaign. 48 individual plants were sampled in three times in 2013 - spring  summer  and fall. The name of the sample includes a 1  2  or 3 which references a different individual of the species. Samples were taken to JPL and processed within 48 hours of collection. The same leaves were processed in the Nicolet and then measured using the ASD.
Measurement: Bidirectional reflectance
First Column: X
Second Column: Y
X Units: Wavelength (micrometers)
Y Units: Reflectance (percentage)
First X Value: 0.35
Last X Value: 2.5
Number of X Values: 2151
Additional Information: vegetation.tree.pinus.ponderosa.vswir.vh163.ucsb.asd.ancillary.txt

 0.3500	 5.2730
 0.3510	 5.3360
 0.3520	 5.4990
 0.3530	 5.5650
 0.3540	 5.4830
 0.3550	 5.4730
 0.3560	 5.4780
 0.3570	 5.4780
 0.3580	 5.4730
 0.3590	 5.5030
 0.3600	 5.5390
 0.3610	 5.5480
 0.3620	 5.4870
 0.3630	 5.4810
 0.3640	 5.5540
 0.3650	 5.6470
 0.3660	 5.5890
 0.3670	 5.4420
 0.3680	 5.3230
 0.3690	 5.3580
 0.3700	 5.4200
 0.3710	 5.4500
 0.3720	 5.4360
 0.3730	 5.4180
 0.3740	 5.4100
 0.3750	 5.4130
 0.3760	 5.4250
 0.3770	 5.3960
 0.3780	 5.3940
 0.3790	 5.4170
 0.3800	 5.4140
 0.3810	 5.3430
 0.3820	 5.3280
 0.3830	 5.4260
 0.3840	 5.4690
 0.3850	 5.4340
 0.3860	 5.3670
 0.3870	 5.3530
 0.3880	 5.4250
 0.3890	 5.4220
 0.3900	 5.3400
 0.3910	 5.3250
 0.3920	 5.3500
 0.3930	 5.3710
 0.3940	 5.3580
 0.3950	 5.3380
 0.3960	 5.3780
 0.3970	 5.4240
 0.3980	 5.3930
 0.3990	 5.3730
 0.4000	 5.3880
 0.4010	 5.4240
 0.4020	 5.4190
 0.4030	 5.4190
 0.4040	 5.4210
 0.4050	 5.4180
 0.4060	 5.4290
 0.4070	 5.4720
 0.4080	 5.5290
 0.4090	 5.5540
 0.4100	 5.5580
 0.4110	 5.5940
 0.4120	 5.6620
 0.4130	 5.6560
 0.4140	 5.6870
 0.4150	 5.7580
 0.4160	 5.8320
 0.4170	 5.8850
 0.4180	 5.9490
 0.4190	 6.0240
 0.4200	 6.0900
 0.4210	 6.1640
 0.4220	 6.2340
 0.4230	 6.3010
 0.4240	 6.4090
 0.4250	 6.4950
 0.4260	 6.5660
 0.4270	 6.6400
 0.4280	 6.7130
 0.4290	 6.7940
 0.4300	 6.8760
 0.4310	 6.9420
 0.4320	 7.0030
 0.4330	 7.0640
 0.4340	 7.1270
 0.4350	 7.1840
 0.4360	 7.2410
 0.4370	 7.3000
 0.4380	 7.3650
 0.4390	 7.4300
 0.4400	 7.4810
 0.4410	 7.5260
 0.4420	 7.5710
 0.4430	 7.6260
 0.4440	 7.6860
 0.4450	 7.7290
 0.4460	 7.7680
 0.4470	 7.8110
 0.4480	 7.8540
 0.4490	 7.8820
 0.4500	 7.9240
 0.4510	 7.9690
 0.4520	 7.9960
 0.4530	 8.0210
 0.4540	 8.0560
 0.4550	 8.0930
 0.4560	 8.1130
 0.4570	 8.1340
 0.4580	 8.1570
 0.4590	 8.1790
 0.4600	 8.1780
 0.4610	 8.1950
 0.4620	 8.2270
 0.4630	 8.2530
 0.4640	 8.2720
 0.4650	 8.2720
 0.4660	 8.2650
 0.4670	 8.2890
 0.4680	 8.3080
 0.4690	 8.3130
 0.4700	 8.3140
 0.4710	 8.3270
 0.4720	 8.3410
 0.4730	 8.3520
 0.4740	 8.3590
 0.4750	 8.3660
 0.4760	 8.3800
 0.4770	 8.3930
 0.4780	 8.3910
 0.4790	 8.3990
 0.4800	 8.4130
 0.4810	 8.4260
 0.4820	 8.4340
 0.4830	 8.4440
 0.4840	 8.4510
 0.4850	 8.4350
 0.4860	 8.4450
 0.4870	 8.4710
 0.4880	 8.4940
 0.4890	 8.4980
 0.4900	 8.5150
 0.4910	 8.5440
 0.4920	 8.5680
 0.4930	 8.6020
 0.4940	 8.6340
 0.4950	 8.6580
 0.4960	 8.6940
 0.4970	 8.7340
 0.4980	 8.7780
 0.4990	 8.8320
 0.5000	 8.8860
 0.5010	 8.9480
 0.5020	 9.0120
 0.5030	 9.0720
 0.5040	 9.1510
 0.5050	 9.2380
 0.5060	 9.3320
 0.5070	 9.4340
 0.5080	 9.5380
 0.5090	 9.6450
 0.5100	 9.7620
 0.5110	 9.8940
 0.5120	10.0330
 0.5130	10.1800
 0.5140	10.3380
 0.5150	10.4960
 0.5160	10.6600
 0.5170	10.8330
 0.5180	11.0180
 0.5190	11.2040
 0.5200	11.3890
 0.5210	11.5760
 0.5220	11.7600
 0.5230	11.9380
 0.5240	12.1100
 0.5250	12.2750
 0.5260	12.4370
 0.5270	12.5890
 0.5280	12.7230
 0.5290	12.8450
 0.5300	12.9620
 0.5310	13.0720
 0.5320	13.1660
 0.5330	13.2530
 0.5340	13.3340
 0.5350	13.4070
 0.5360	13.4690
 0.5370	13.5240
 0.5380	13.5720
 0.5390	13.6130
 0.5400	13.6500
 0.5410	13.6840
 0.5420	13.7160
 0.5430	13.7490
 0.5440	13.7860
 0.5450	13.8280
 0.5460	13.8720
 0.5470	13.9160
 0.5480	13.9600
 0.5490	13.9980
 0.5500	14.0240
 0.5510	14.0430
 0.5520	14.0530
 0.5530	14.0550
 0.5540	14.0480
 0.5550	14.0270
 0.5560	13.9920
 0.5570	13.9510
 0.5580	13.8980
 0.5590	13.8350
 0.5600	13.7620
 0.5610	13.6890
 0.5620	13.6120
 0.5630	13.5280
 0.5640	13.4350
 0.5650	13.3420
 0.5660	13.2450
 0.5670	13.1420
 0.5680	13.0330
 0.5690	12.9320
 0.5700	12.8290
 0.5710	12.7170
 0.5720	12.6080
 0.5730	12.5020
 0.5740	12.4020
 0.5750	12.3120
 0.5760	12.2330
 0.5770	12.1590
 0.5780	12.0880
 0.5790	12.0210
 0.5800	11.9570
 0.5810	11.8950
 0.5820	11.8330
 0.5830	11.7740
 0.5840	11.7220
 0.5850	11.6750
 0.5860	11.6300
 0.5870	11.5910
 0.5880	11.5520
 0.5890	11.5080
 0.5900	11.4660
 0.5910	11.4310
 0.5920	11.4060
 0.5930	11.3890
 0.5940	11.3700
 0.5950	11.3570
 0.5960	11.3500
 0.5970	11.3390
 0.5980	11.3290
 0.5990	11.3170
 0.6000	11.2980
 0.6010	11.2740
 0.6020	11.2480
 0.6030	11.2190
 0.6040	11.1830
 0.6050	11.1460
 0.6060	11.1050
 0.6070	11.0550
 0.6080	10.9970
 0.6090	10.9370
 0.6100	10.8720
 0.6110	10.7970
 0.6120	10.7410
 0.6130	10.6920
 0.6140	10.6430
 0.6150	10.5900
 0.6160	10.5410
 0.6170	10.4970
 0.6180	10.4570
 0.6190	10.4170
 0.6200	10.3790
 0.6210	10.3450
 0.6220	10.3230
 0.6230	10.3020
 0.6240	10.2850
 0.6250	10.2690
 0.6260	10.2560
 0.6270	10.2480
 0.6280	10.2440
 0.6290	10.2380
 0.6300	10.2320
 0.6310	10.2230
 0.6320	10.2190
 0.6330	10.2170
 0.6340	10.2040
 0.6350	10.1820
 0.6360	10.1540
 0.6370	10.1240
 0.6380	10.0870
 0.6390	10.0420
 0.6400	 9.9950
 0.6410	 9.9490
 0.6420	 9.8990
 0.6430	 9.8440
 0.6440	 9.7890
 0.6450	 9.7340
 0.6460	 9.6780
 0.6470	 9.6230
 0.6480	 9.5760
 0.6490	 9.5290
 0.6500	 9.4860
 0.6510	 9.4510
 0.6520	 9.4170
 0.6530	 9.3820
 0.6540	 9.3470
 0.6550	 9.3090
 0.6560	 9.2660
 0.6570	 9.2190
 0.6580	 9.1670
 0.6590	 9.1110
 0.6600	 9.0540
 0.6610	 9.0020
 0.6620	 8.9490
 0.6630	 8.8950
 0.6640	 8.8440
 0.6650	 8.8000
 0.6660	 8.7620
 0.6670	 8.7300
 0.6680	 8.7020
 0.6690	 8.6800
 0.6700	 8.6690
 0.6710	 8.6620
 0.6720	 8.6570
 0.6730	 8.6580
 0.6740	 8.6630
 0.6750	 8.6750
 0.6760	 8.6840
 0.6770	 8.6960
 0.6780	 8.7160
 0.6790	 8.7440
 0.6800	 8.7760
 0.6810	 8.8190
 0.6820	 8.8740
 0.6830	 8.9340
 0.6840	 9.0070
 0.6850	 9.0980
 0.6860	 9.2080
 0.6870	 9.3400
 0.6880	 9.5050
 0.6890	 9.7050
 0.6900	 9.9460
 0.6910	10.2340
 0.6920	10.5640
 0.6930	10.9450
 0.6940	11.3810
 0.6950	11.8640
 0.6960	12.3980
 0.6970	12.9810
 0.6980	13.6070
 0.6990	14.2760
 0.7000	14.9860
 0.7010	15.7290
 0.7020	16.4960
 0.7030	17.2960
 0.7040	18.1200
 0.7050	18.9600
 0.7060	19.8200
 0.7070	20.6940
 0.7080	21.5850
 0.7090	22.4950
 0.7100	23.4220
 0.7110	24.3670
 0.7120	25.3300
 0.7130	26.3100
 0.7140	27.3020
 0.7150	28.3110
 0.7160	29.3350
 0.7170	30.3730
 0.7180	31.4220
 0.7190	32.4850
 0.7200	33.5600
 0.7210	34.6470
 0.7220	35.7370
 0.7230	36.8260
 0.7240	37.9150
 0.7250	39.0050
 0.7260	40.0860
 0.7270	41.1500
 0.7280	42.2070
 0.7290	43.2440
 0.7300	44.2610
 0.7310	45.2570
 0.7320	46.2300
 0.7330	47.1750
 0.7340	48.0940
 0.7350	48.9920
 0.7360	49.8620
 0.7370	50.7010
 0.7380	51.5090
 0.7390	52.2830
 0.7400	53.0280
 0.7410	53.7430
 0.7420	54.4240
 0.7430	55.0630
 0.7440	55.6710
 0.7450	56.2490
 0.7460	56.7890
 0.7470	57.3010
 0.7480	57.7810
 0.7490	58.2290
 0.7500	58.6490
 0.7510	59.0340
 0.7520	59.3880
 0.7530	59.7190
 0.7540	60.0280
 0.7550	60.3150
 0.7560	60.5760
 0.7570	60.8100
 0.7580	61.0250
 0.7590	61.2280
 0.7600	61.4190
 0.7610	61.5880
 0.7620	61.7460
 0.7630	61.8940
 0.7640	62.0280
 0.7650	62.1470
 0.7660	62.2620
 0.7670	62.3700
 0.7680	62.4600
 0.7690	62.5510
 0.7700	62.6390
 0.7710	62.7180
 0.7720	62.7930
 0.7730	62.8640
 0.7740	62.9290
 0.7750	62.9870
 0.7760	63.0480
 0.7770	63.1080
 0.7780	63.1670
 0.7790	63.2260
 0.7800	63.2830
 0.7810	63.3340
 0.7820	63.3790
 0.7830	63.4150
 0.7840	63.4610
 0.7850	63.5130
 0.7860	63.5630
 0.7870	63.5980
 0.7880	63.6380
 0.7890	63.6780
 0.7900	63.7130
 0.7910	63.7590
 0.7920	63.8050
 0.7930	63.8420
 0.7940	63.8670
 0.7950	63.9020
 0.7960	63.9390
 0.7970	63.9740
 0.7980	64.0140
 0.7990	64.0440
 0.8000	64.0720
 0.8010	64.1050
 0.8020	64.1300
 0.8030	64.1630
 0.8040	64.1960
 0.8050	64.2200
 0.8060	64.2510
 0.8070	64.2770
 0.8080	64.2970
 0.8090	64.3180
 0.8100	64.3410
 0.8110	64.3650
 0.8120	64.3900
 0.8130	64.4180
 0.8140	64.4370
 0.8150	64.4560
 0.8160	64.4850
 0.8170	64.5120
 0.8180	64.5340
 0.8190	64.5540
 0.8200	64.5740
 0.8210	64.6000
 0.8220	64.6240
 0.8230	64.6450
 0.8240	64.6670
 0.8250	64.6830
 0.8260	64.6950
 0.8270	64.7040
 0.8280	64.7140
 0.8290	64.7250
 0.8300	64.7370
 0.8310	64.7500
 0.8320	64.7600
 0.8330	64.7780
 0.8340	64.7990
 0.8350	64.8140
 0.8360	64.8400
 0.8370	64.8630
 0.8380	64.8830
 0.8390	64.9090
 0.8400	64.9310
 0.8410	64.9480
 0.8420	64.9700
 0.8430	65.0150
 0.8440	65.0350
 0.8450	65.0510
 0.8460	65.0860
 0.8470	65.1300
 0.8480	65.1470
 0.8490	65.1590
 0.8500	65.1950
 0.8510	65.2370
 0.8520	65.2700
 0.8530	65.2920
 0.8540	65.3080
 0.8550	65.3340
 0.8560	65.3620
 0.8570	65.3870
 0.8580	65.4030
 0.8590	65.4240
 0.8600	65.4480
 0.8610	65.4690
 0.8620	65.4790
 0.8630	65.4990
 0.8640	65.5250
 0.8650	65.5470
 0.8660	65.5640
 0.8670	65.5810
 0.8680	65.5980
 0.8690	65.6150
 0.8700	65.6270
 0.8710	65.6480
 0.8720	65.6710
 0.8730	65.6840
 0.8740	65.6960
 0.8750	65.7110
 0.8760	65.7290
 0.8770	65.7480
 0.8780	65.7620
 0.8790	65.7740
 0.8800	65.7850
 0.8810	65.7860
 0.8820	65.7930
 0.8830	65.8060
 0.8840	65.8160
 0.8850	65.8100
 0.8860	65.8100
 0.8870	65.8130
 0.8880	65.8110
 0.8890	65.8110
 0.8900	65.8150
 0.8910	65.8170
 0.8920	65.8100
 0.8930	65.7980
 0.8940	65.7960
 0.8950	65.8000
 0.8960	65.8000
 0.8970	65.7940
 0.8980	65.7960
 0.8990	65.8010
 0.9000	65.7880
 0.9010	65.7770
 0.9020	65.7740
 0.9030	65.7740
 0.9040	65.7600
 0.9050	65.7440
 0.9060	65.7360
 0.9070	65.7320
 0.9080	65.7030
 0.9090	65.6860
 0.9100	65.6850
 0.9110	65.6940
 0.9120	65.6850
 0.9130	65.6660
 0.9140	65.6450
 0.9150	65.6290
 0.9160	65.6130
 0.9170	65.6070
 0.9180	65.5960
 0.9190	65.5630
 0.9200	65.5380
 0.9210	65.5140
 0.9220	65.4880
 0.9230	65.4600
 0.9240	65.4190
 0.9250	65.3740
 0.9260	65.3300
 0.9270	65.2850
 0.9280	65.2420
 0.9290	65.1820
 0.9300	65.1130
 0.9310	65.0620
 0.9320	65.0000
 0.9330	64.9230
 0.9340	64.8390
 0.9350	64.7710
 0.9360	64.7030
 0.9370	64.6180
 0.9380	64.5190
 0.9390	64.4370
 0.9400	64.3390
 0.9410	64.2310
 0.9420	64.1180
 0.9430	63.9900
 0.9440	63.8600
 0.9450	63.7230
 0.9460	63.5740
 0.9470	63.4310
 0.9480	63.2600
 0.9490	63.0780
 0.9500	62.8960
 0.9510	62.6820
 0.9520	62.4680
 0.9530	62.2510
 0.9540	62.0250
 0.9550	61.8150
 0.9560	61.6050
 0.9570	61.3940
 0.9580	61.1950
 0.9590	61.0230
 0.9600	60.8640
 0.9610	60.7090
 0.9620	60.5580
 0.9630	60.4360
 0.9640	60.3500
 0.9650	60.2710
 0.9660	60.1730
 0.9670	60.0900
 0.9680	60.0320
 0.9690	59.9820
 0.9700	59.9200
 0.9710	59.8680
 0.9720	59.8330
 0.9730	59.8010
 0.9740	59.7580
 0.9750	59.7290
 0.9760	59.7060
 0.9770	59.6920
 0.9780	59.6900
 0.9790	59.6740
 0.9800	59.6870
 0.9810	59.7160
 0.9820	59.7270
 0.9830	59.7400
 0.9840	59.7650
 0.9850	59.7970
 0.9860	59.8240
 0.9870	59.8530
 0.9880	59.8980
 0.9890	59.9680
 0.9900	60.0550
 0.9910	60.1030
 0.9920	60.1520
 0.9930	60.2190
 0.9940	60.3010
 0.9950	60.3670
 0.9960	60.4310
 0.9970	60.4970
 0.9980	60.5660
 0.9990	60.6320
 1.0000	60.9990
 1.0010	61.5500
 1.0020	61.9180
 1.0030	62.0060
 1.0040	62.0980
 1.0050	62.1930
 1.0060	62.2850
 1.0070	62.3790
 1.0080	62.4750
 1.0090	62.5750
 1.0100	62.6720
 1.0110	62.7640
 1.0120	62.8610
 1.0130	62.9620
 1.0140	63.0590
 1.0150	63.1540
 1.0160	63.2550
 1.0170	63.3550
 1.0180	63.4490
 1.0190	63.5470
 1.0200	63.6480
 1.0210	63.7460
 1.0220	63.8450
 1.0230	63.9440
 1.0240	64.0440
 1.0250	64.1430
 1.0260	64.2440
 1.0270	64.3410
 1.0280	64.4360
 1.0290	64.5300
 1.0300	64.6180
 1.0310	64.7100
 1.0320	64.8050
 1.0330	64.8940
 1.0340	64.9850
 1.0350	65.0730
 1.0360	65.1540
 1.0370	65.2390
 1.0380	65.3230
 1.0390	65.4060
 1.0400	65.4870
 1.0410	65.5680
 1.0420	65.6430
 1.0430	65.7150
 1.0440	65.7870
 1.0450	65.8570
 1.0460	65.9260
 1.0470	65.9930
 1.0480	66.0590
 1.0490	66.1240
 1.0500	66.1840
 1.0510	66.2430
 1.0520	66.3000
 1.0530	66.3530
 1.0540	66.4000
 1.0550	66.4530
 1.0560	66.5080
 1.0570	66.5590
 1.0580	66.6110
 1.0590	66.6580
 1.0600	66.6990
 1.0610	66.7400
 1.0620	66.7800
 1.0630	66.8160
 1.0640	66.8490
 1.0650	66.8800
 1.0660	66.9060
 1.0670	66.9330
 1.0680	66.9570
 1.0690	66.9820
 1.0700	67.0020
 1.0710	67.0200
 1.0720	67.0350
 1.0730	67.0430
 1.0740	67.0560
 1.0750	67.0710
 1.0760	67.0780
 1.0770	67.0830
 1.0780	67.0850
 1.0790	67.0770
 1.0800	67.0720
 1.0810	67.0660
 1.0820	67.0590
 1.0830	67.0520
 1.0840	67.0430
 1.0850	67.0330
 1.0860	67.0240
 1.0870	67.0080
 1.0880	66.9900
 1.0890	66.9690
 1.0900	66.9440
 1.0910	66.9160
 1.0920	66.8870
 1.0930	66.8560
 1.0940	66.8220
 1.0950	66.7870
 1.0960	66.7510
 1.0970	66.7120
 1.0980	66.6690
 1.0990	66.6250
 1.1000	66.5780
 1.1010	66.5310
 1.1020	66.4860
 1.1030	66.4370
 1.1040	66.3860
 1.1050	66.3350
 1.1060	66.2780
 1.1070	66.2140
 1.1080	66.1540
 1.1090	66.0930
 1.1100	66.0300
 1.1110	65.9720
 1.1120	65.9030
 1.1130	65.8320
 1.1140	65.7510
 1.1150	65.6620
 1.1160	65.5680
 1.1170	65.4700
 1.1180	65.3610
 1.1190	65.2470
 1.1200	65.1250
 1.1210	64.9920
 1.1220	64.8470
 1.1230	64.6880
 1.1240	64.5170
 1.1250	64.3260
 1.1260	64.1210
 1.1270	63.8940
 1.1280	63.6510
 1.1290	63.3840
 1.1300	63.0970
 1.1310	62.7900
 1.1320	62.4610
 1.1330	62.1140
 1.1340	61.7480
 1.1350	61.3640
 1.1360	60.9600
 1.1370	60.5430
 1.1380	60.1120
 1.1390	59.6720
 1.1400	59.2240
 1.1410	58.7750
 1.1420	58.3230
 1.1430	57.8720
 1.1440	57.4290
 1.1450	56.9840
 1.1460	56.5590
 1.1470	56.1370
 1.1480	55.7400
 1.1490	55.3590
 1.1500	54.9990
 1.1510	54.6580
 1.1520	54.3390
 1.1530	54.0360
 1.1540	53.7580
 1.1550	53.5010
 1.1560	53.2650
 1.1570	53.0510
 1.1580	52.8590
 1.1590	52.6840
 1.1600	52.5230
 1.1610	52.3770
 1.1620	52.2450
 1.1630	52.1270
 1.1640	52.0210
 1.1650	51.9230
 1.1660	51.8370
 1.1670	51.7540
 1.1680	51.6810
 1.1690	51.6100
 1.1700	51.5470
 1.1710	51.4830
 1.1720	51.4210
 1.1730	51.3590
 1.1740	51.2990
 1.1750	51.2390
 1.1760	51.1810
 1.1770	51.1180
 1.1780	51.0550
 1.1790	50.9900
 1.1800	50.9200
 1.1810	50.8490
 1.1820	50.7780
 1.1830	50.7080
 1.1840	50.6420
 1.1850	50.5790
 1.1860	50.5180
 1.1870	50.4560
 1.1880	50.3980
 1.1890	50.3390
 1.1900	50.2890
 1.1910	50.2400
 1.1920	50.1990
 1.1930	50.1670
 1.1940	50.1360
 1.1950	50.1080
 1.1960	50.0870
 1.1970	50.0700
 1.1980	50.0570
 1.1990	50.0520
 1.2000	50.0510
 1.2010	50.0560
 1.2020	50.0670
 1.2030	50.0830
 1.2040	50.1040
 1.2050	50.1280
 1.2060	50.1560
 1.2070	50.1900
 1.2080	50.2290
 1.2090	50.2760
 1.2100	50.3290
 1.2110	50.3850
 1.2120	50.4460
 1.2130	50.5100
 1.2140	50.5770
 1.2150	50.6500
 1.2160	50.7270
 1.2170	50.8110
 1.2180	50.9010
 1.2190	50.9920
 1.2200	51.0880
 1.2210	51.1860
 1.2220	51.2850
 1.2230	51.3830
 1.2240	51.4810
 1.2250	51.5780
 1.2260	51.6710
 1.2270	51.7650
 1.2280	51.8590
 1.2290	51.9520
 1.2300	52.0440
 1.2310	52.1340
 1.2320	52.2190
 1.2330	52.3030
 1.2340	52.3840
 1.2350	52.4600
 1.2360	52.5370
 1.2370	52.6120
 1.2380	52.6850
 1.2390	52.7570
 1.2400	52.8300
 1.2410	52.9010
 1.2420	52.9670
 1.2430	53.0300
 1.2440	53.0920
 1.2450	53.1520
 1.2460	53.2120
 1.2470	53.2690
 1.2480	53.3270
 1.2490	53.3810
 1.2500	53.4330
 1.2510	53.4860
 1.2520	53.5340
 1.2530	53.5800
 1.2540	53.6230
 1.2550	53.6640
 1.2560	53.7020
 1.2570	53.7390
 1.2580	53.7730
 1.2590	53.8050
 1.2600	53.8350
 1.2610	53.8610
 1.2620	53.8840
 1.2630	53.9060
 1.2640	53.9240
 1.2650	53.9410
 1.2660	53.9560
 1.2670	53.9660
 1.2680	53.9710
 1.2690	53.9750
 1.2700	53.9770
 1.2710	53.9780
 1.2720	53.9770
 1.2730	53.9720
 1.2740	53.9630
 1.2750	53.9520
 1.2760	53.9380
 1.2770	53.9260
 1.2780	53.9110
 1.2790	53.8880
 1.2800	53.8640
 1.2810	53.8360
 1.2820	53.8000
 1.2830	53.7630
 1.2840	53.7220
 1.2850	53.6750
 1.2860	53.6240
 1.2870	53.5670
 1.2880	53.5050
 1.2890	53.4380
 1.2900	53.3660
 1.2910	53.2900
 1.2920	53.2100
 1.2930	53.1240
 1.2940	53.0310
 1.2950	52.9310
 1.2960	52.8230
 1.2970	52.7100
 1.2980	52.5920
 1.2990	52.4670
 1.3000	52.3390
 1.3010	52.2060
 1.3020	52.0630
 1.3030	51.9150
 1.3040	51.7600
 1.3050	51.5940
 1.3060	51.4240
 1.3070	51.2490
 1.3080	51.0680
 1.3090	50.8810
 1.3100	50.6890
 1.3110	50.4880
 1.3120	50.2800
 1.3130	50.0710
 1.3140	49.8550
 1.3150	49.6320
 1.3160	49.4030
 1.3170	49.1700
 1.3180	48.9280
 1.3190	48.6800
 1.3200	48.4300
 1.3210	48.1720
 1.3220	47.9120
 1.3230	47.6490
 1.3240	47.3800
 1.3250	47.1080
 1.3260	46.8360
 1.3270	46.5570
 1.3280	46.2780
 1.3290	45.9960
 1.3300	45.7100
 1.3310	45.4240
 1.3320	45.1380
 1.3330	44.8550
 1.3340	44.5740
 1.3350	44.2940
 1.3360	44.0150
 1.3370	43.7350
 1.3380	43.4570
 1.3390	43.1820
 1.3400	42.9100
 1.3410	42.6420
 1.3420	42.3810
 1.3430	42.1250
 1.3440	41.8740
 1.3450	41.6270
 1.3460	41.3840
 1.3470	41.1480
 1.3480	40.9150
 1.3490	40.6880
 1.3500	40.4680
 1.3510	40.2510
 1.3520	40.0370
 1.3530	39.8240
 1.3540	39.6120
 1.3550	39.4030
 1.3560	39.1940
 1.3570	38.9860
 1.3580	38.7810
 1.3590	38.5710
 1.3600	38.3580
 1.3610	38.1410
 1.3620	37.9160
 1.3630	37.6870
 1.3640	37.4540
 1.3650	37.2110
 1.3660	36.9620
 1.3670	36.7020
 1.3680	36.4300
 1.3690	36.1470
 1.3700	35.8480
 1.3710	35.5360
 1.3720	35.2100
 1.3730	34.8650
 1.3740	34.5060
 1.3750	34.1280
 1.3760	33.7260
 1.3770	33.3020
 1.3780	32.8520
 1.3790	32.3800
 1.3800	31.8890
 1.3810	31.3740
 1.3820	30.8470
 1.3830	30.3030
 1.3840	29.7460
 1.3850	29.1720
 1.3860	28.5940
 1.3870	27.9990
 1.3880	27.4120
 1.3890	26.8200
 1.3900	26.2260
 1.3910	25.6420
 1.3920	25.0620
 1.3930	24.4850
 1.3940	23.9230
 1.3950	23.3680
 1.3960	22.8270
 1.3970	22.3050
 1.3980	21.7980
 1.3990	21.3150
 1.4000	20.8510
 1.4010	20.4040
 1.4020	19.9790
 1.4030	19.5730
 1.4040	19.1880
 1.4050	18.8240
 1.4060	18.4790
 1.4070	18.1580
 1.4080	17.8560
 1.4090	17.5710
 1.4100	17.3060
 1.4110	17.0560
 1.4120	16.8220
 1.4130	16.6050
 1.4140	16.4010
 1.4150	16.2150
 1.4160	16.0410
 1.4170	15.8790
 1.4180	15.7300
 1.4190	15.5890
 1.4200	15.4580
 1.4210	15.3360
 1.4220	15.2240
 1.4230	15.1220
 1.4240	15.0260
 1.4250	14.9380
 1.4260	14.8570
 1.4270	14.7820
 1.4280	14.7130
 1.4290	14.6490
 1.4300	14.5920
 1.4310	14.5390
 1.4320	14.4940
 1.4330	14.4510
 1.4340	14.4130
 1.4350	14.3780
 1.4360	14.3460
 1.4370	14.3180
 1.4380	14.2940
 1.4390	14.2740
 1.4400	14.2570
 1.4410	14.2430
 1.4420	14.2320
 1.4430	14.2230
 1.4440	14.2160
 1.4450	14.2090
 1.4460	14.2040
 1.4470	14.2040
 1.4480	14.2040
 1.4490	14.2060
 1.4500	14.2100
 1.4510	14.2150
 1.4520	14.2200
 1.4530	14.2260
 1.4540	14.2340
 1.4550	14.2440
 1.4560	14.2550
 1.4570	14.2680
 1.4580	14.2850
 1.4590	14.3030
 1.4600	14.3240
 1.4610	14.3480
 1.4620	14.3740
 1.4630	14.4040
 1.4640	14.4360
 1.4650	14.4720
 1.4660	14.5110
 1.4670	14.5530
 1.4680	14.5980
 1.4690	14.6470
 1.4700	14.6980
 1.4710	14.7530
 1.4720	14.8110
 1.4730	14.8720
 1.4740	14.9370
 1.4750	15.0030
 1.4760	15.0710
 1.4770	15.1410
 1.4780	15.2140
 1.4790	15.2890
 1.4800	15.3670
 1.4810	15.4450
 1.4820	15.5250
 1.4830	15.6060
 1.4840	15.6880
 1.4850	15.7710
 1.4860	15.8560
 1.4870	15.9430
 1.4880	16.0300
 1.4890	16.1170
 1.4900	16.2050
 1.4910	16.2920
 1.4920	16.3820
 1.4930	16.4730
 1.4940	16.5650
 1.4950	16.6590
 1.4960	16.7520
 1.4970	16.8450
 1.4980	16.9390
 1.4990	17.0330
 1.5000	17.1280
 1.5010	17.2250
 1.5020	17.3220
 1.5030	17.4190
 1.5040	17.5170
 1.5050	17.6140
 1.5060	17.7110
 1.5070	17.8080
 1.5080	17.9050
 1.5090	18.0030
 1.5100	18.1000
 1.5110	18.1960
 1.5120	18.2930
 1.5130	18.3880
 1.5140	18.4830
 1.5150	18.5800
 1.5160	18.6760
 1.5170	18.7720
 1.5180	18.8680
 1.5190	18.9630
 1.5200	19.0580
 1.5210	19.1510
 1.5220	19.2440
 1.5230	19.3370
 1.5240	19.4280
 1.5250	19.5200
 1.5260	19.6120
 1.5270	19.7030
 1.5280	19.7950
 1.5290	19.8860
 1.5300	19.9750
 1.5310	20.0650
 1.5320	20.1530
 1.5330	20.2420
 1.5340	20.3310
 1.5350	20.4190
 1.5360	20.5070
 1.5370	20.5930
 1.5380	20.6790
 1.5390	20.7650
 1.5400	20.8500
 1.5410	20.9360
 1.5420	21.0220
 1.5430	21.1070
 1.5440	21.1920
 1.5450	21.2750
 1.5460	21.3570
 1.5470	21.4400
 1.5480	21.5220
 1.5490	21.6040
 1.5500	21.6850
 1.5510	21.7650
 1.5520	21.8450
 1.5530	21.9230
 1.5540	22.0030
 1.5550	22.0820
 1.5560	22.1600
 1.5570	22.2390
 1.5580	22.3180
 1.5590	22.3970
 1.5600	22.4750
 1.5610	22.5520
 1.5620	22.6270
 1.5630	22.7020
 1.5640	22.7770
 1.5650	22.8520
 1.5660	22.9260
 1.5670	23.0000
 1.5680	23.0730
 1.5690	23.1460
 1.5700	23.2190
 1.5710	23.2930
 1.5720	23.3670
 1.5730	23.4400
 1.5740	23.5140
 1.5750	23.5850
 1.5760	23.6560
 1.5770	23.7260
 1.5780	23.7950
 1.5790	23.8640
 1.5800	23.9320
 1.5810	24.0020
 1.5820	24.0710
 1.5830	24.1400
 1.5840	24.2090
 1.5850	24.2770
 1.5860	24.3470
 1.5870	24.4180
 1.5880	24.4890
 1.5890	24.5610
 1.5900	24.6320
 1.5910	24.7030
 1.5920	24.7730
 1.5930	24.8430
 1.5940	24.9150
 1.5950	24.9870
 1.5960	25.0580
 1.5970	25.1290
 1.5980	25.1990
 1.5990	25.2680
 1.6000	25.3390
 1.6010	25.4090
 1.6020	25.4800
 1.6030	25.5520
 1.6040	25.6230
 1.6050	25.6940
 1.6060	25.7620
 1.6070	25.8290
 1.6080	25.8980
 1.6090	25.9650
 1.6100	26.0310
 1.6110	26.0980
 1.6120	26.1630
 1.6130	26.2270
 1.6140	26.2920
 1.6150	26.3550
 1.6160	26.4170
 1.6170	26.4780
 1.6180	26.5370
 1.6190	26.5960
 1.6200	26.6520
 1.6210	26.7080
 1.6220	26.7630
 1.6230	26.8160
 1.6240	26.8680
 1.6250	26.9190
 1.6260	26.9710
 1.6270	27.0200
 1.6280	27.0670
 1.6290	27.1130
 1.6300	27.1560
 1.6310	27.2010
 1.6320	27.2450
 1.6330	27.2880
 1.6340	27.3310
 1.6350	27.3740
 1.6360	27.4160
 1.6370	27.4560
 1.6380	27.4940
 1.6390	27.5310
 1.6400	27.5650
 1.6410	27.5980
 1.6420	27.6300
 1.6430	27.6580
 1.6440	27.6820
 1.6450	27.7030
 1.6460	27.7210
 1.6470	27.7360
 1.6480	27.7510
 1.6490	27.7620
 1.6500	27.7700
 1.6510	27.7760
 1.6520	27.7800
 1.6530	27.7790
 1.6540	27.7780
 1.6550	27.7720
 1.6560	27.7610
 1.6570	27.7500
 1.6580	27.7380
 1.6590	27.7260
 1.6600	27.7160
 1.6610	27.7040
 1.6620	27.6890
 1.6630	27.6750
 1.6640	27.6620
 1.6650	27.6500
 1.6660	27.6390
 1.6670	27.6290
 1.6680	27.6180
 1.6690	27.6080
 1.6700	27.6000
 1.6710	27.5910
 1.6720	27.5820
 1.6730	27.5730
 1.6740	27.5620
 1.6750	27.5510
 1.6760	27.5390
 1.6770	27.5260
 1.6780	27.5130
 1.6790	27.4980
 1.6800	27.4810
 1.6810	27.4610
 1.6820	27.4370
 1.6830	27.4100
 1.6840	27.3810
 1.6850	27.3500
 1.6860	27.3170
 1.6870	27.2820
 1.6880	27.2420
 1.6890	27.1970
 1.6900	27.1530
 1.6910	27.1050
 1.6920	27.0570
 1.6930	27.0070
 1.6940	26.9560
 1.6950	26.9030
 1.6960	26.8490
 1.6970	26.7950
 1.6980	26.7390
 1.6990	26.6810
 1.7000	26.6240
 1.7010	26.5670
 1.7020	26.5100
 1.7030	26.4530
 1.7040	26.3970
 1.7050	26.3400
 1.7060	26.2830
 1.7070	26.2250
 1.7080	26.1690
 1.7090	26.1120
 1.7100	26.0570
 1.7110	26.0040
 1.7120	25.9530
 1.7130	25.9040
 1.7140	25.8540
 1.7150	25.8030
 1.7160	25.7520
 1.7170	25.7000
 1.7180	25.6490
 1.7190	25.6020
 1.7200	25.5520
 1.7210	25.5000
 1.7220	25.4480
 1.7230	25.3980
 1.7240	25.3480
 1.7250	25.3020
 1.7260	25.2550
 1.7270	25.2090
 1.7280	25.1680
 1.7290	25.1290
 1.7300	25.0960
 1.7310	25.0620
 1.7320	25.0310
 1.7330	24.9990
 1.7340	24.9690
 1.7350	24.9370
 1.7360	24.9050
 1.7370	24.8710
 1.7380	24.8360
 1.7390	24.7970
 1.7400	24.7560
 1.7410	24.7110
 1.7420	24.6620
 1.7430	24.6120
 1.7440	24.5580
 1.7450	24.5040
 1.7460	24.4470
 1.7470	24.3900
 1.7480	24.3300
 1.7490	24.2710
 1.7500	24.2120
 1.7510	24.1510
 1.7520	24.0890
 1.7530	24.0290
 1.7540	23.9660
 1.7550	23.9070
 1.7560	23.8530
 1.7570	23.8000
 1.7580	23.7480
 1.7590	23.7000
 1.7600	23.6520
 1.7610	23.6030
 1.7620	23.5570
 1.7630	23.5140
 1.7640	23.4730
 1.7650	23.4370
 1.7660	23.4010
 1.7670	23.3670
 1.7680	23.3340
 1.7690	23.3010
 1.7700	23.2700
 1.7710	23.2410
 1.7720	23.2130
 1.7730	23.1900
 1.7740	23.1640
 1.7750	23.1360
 1.7760	23.1120
 1.7770	23.0890
 1.7780	23.0680
 1.7790	23.0500
 1.7800	23.0330
 1.7810	23.0170
 1.7820	23.0040
 1.7830	22.9950
 1.7840	22.9870
 1.7850	22.9810
 1.7860	22.9740
 1.7870	22.9680
 1.7880	22.9660
 1.7890	22.9650
 1.7900	22.9710
 1.7910	22.9750
 1.7920	22.9790
 1.7930	22.9830
 1.7940	22.9880
 1.7950	22.9940
 1.7960	23.0040
 1.7970	23.0130
 1.7980	23.0230
 1.7990	23.0330
 1.8000	23.0420
 1.8010	23.0530
 1.8020	23.0670
 1.8030	23.0800
 1.8040	23.0950
 1.8050	23.1070
 1.8060	23.1160
 1.8070	23.1260
 1.8080	23.1330
 1.8090	23.1430
 1.8100	23.1550
 1.8110	23.1660
 1.8120	23.1770
 1.8130	23.1860
 1.8140	23.1920
 1.8150	23.2000
 1.8160	23.2080
 1.8170	23.2160
 1.8180	23.2240
 1.8190	23.2290
 1.8200	23.2340
 1.8210	23.2380
 1.8220	23.2410
 1.8230	23.2420
 1.8240	23.2430
 1.8250	23.2440
 1.8260	23.2430
 1.8270	23.2440
 1.8280	23.2400
 1.8290	23.2310
 1.8300	23.1910
 1.8310	23.1230
 1.8320	23.0740
 1.8330	23.0530
 1.8340	23.0270
 1.8350	23.0010
 1.8360	22.9690
 1.8370	22.9330
 1.8380	22.8960
 1.8390	22.8540
 1.8400	22.8100
 1.8410	22.7600
 1.8420	22.7060
 1.8430	22.6460
 1.8440	22.5790
 1.8450	22.5040
 1.8460	22.4210
 1.8470	22.3300
 1.8480	22.2290
 1.8490	22.1230
 1.8500	22.0100
 1.8510	21.8910
 1.8520	21.7610
 1.8530	21.6190
 1.8540	21.4670
 1.8550	21.3030
 1.8560	21.1260
 1.8570	20.9450
 1.8580	20.7520
 1.8590	20.5440
 1.8600	20.3230
 1.8610	20.0940
 1.8620	19.8510
 1.8630	19.6000
 1.8640	19.3410
 1.8650	19.0700
 1.8660	18.7830
 1.8670	18.4770
 1.8680	18.1590
 1.8690	17.8320
 1.8700	17.4940
 1.8710	17.1460
 1.8720	16.7930
 1.8730	16.4300
 1.8740	16.0590
 1.8750	15.6850
 1.8760	15.3080
 1.8770	14.9310
 1.8780	14.5570
 1.8790	14.1830
 1.8800	13.8160
 1.8810	13.4530
 1.8820	13.0950
 1.8830	12.7390
 1.8840	12.3900
 1.8850	12.0470
 1.8860	11.7110
 1.8870	11.3860
 1.8880	11.0740
 1.8890	10.7750
 1.8900	10.4890
 1.8910	10.2170
 1.8920	 9.9600
 1.8930	 9.7140
 1.8940	 9.4820
 1.8950	 9.2650
 1.8960	 9.0640
 1.8970	 8.8800
 1.8980	 8.7080
 1.8990	 8.5490
 1.9000	 8.4010
 1.9010	 8.2640
 1.9020	 8.1390
 1.9030	 8.0230
 1.9040	 7.9190
 1.9050	 7.8210
 1.9060	 7.7330
 1.9070	 7.6540
 1.9080	 7.5810
 1.9090	 7.5200
 1.9100	 7.4640
 1.9110	 7.4130
 1.9120	 7.3690
 1.9130	 7.3280
 1.9140	 7.2890
 1.9150	 7.2540
 1.9160	 7.2260
 1.9170	 7.1990
 1.9180	 7.1750
 1.9190	 7.1540
 1.9200	 7.1360
 1.9210	 7.1220
 1.9220	 7.1080
 1.9230	 7.0970
 1.9240	 7.0870
 1.9250	 7.0810
 1.9260	 7.0760
 1.9270	 7.0720
 1.9280	 7.0710
 1.9290	 7.0680
 1.9300	 7.0700
 1.9310	 7.0720
 1.9320	 7.0810
 1.9330	 7.0880
 1.9340	 7.0980
 1.9350	 7.1090
 1.9360	 7.1170
 1.9370	 7.1290
 1.9380	 7.1380
 1.9390	 7.1520
 1.9400	 7.1680
 1.9410	 7.1840
 1.9420	 7.2000
 1.9430	 7.2170
 1.9440	 7.2360
 1.9450	 7.2550
 1.9460	 7.2740
 1.9470	 7.2940
 1.9480	 7.3140
 1.9490	 7.3380
 1.9500	 7.3610
 1.9510	 7.3840
 1.9520	 7.4090
 1.9530	 7.4340
 1.9540	 7.4580
 1.9550	 7.4870
 1.9560	 7.5170
 1.9570	 7.5450
 1.9580	 7.5790
 1.9590	 7.6080
 1.9600	 7.6370
 1.9610	 7.6640
 1.9620	 7.6940
 1.9630	 7.7220
 1.9640	 7.7530
 1.9650	 7.7860
 1.9660	 7.8200
 1.9670	 7.8550
 1.9680	 7.8870
 1.9690	 7.9220
 1.9700	 7.9540
 1.9710	 7.9870
 1.9720	 8.0210
 1.9730	 8.0600
 1.9740	 8.0940
 1.9750	 8.1290
 1.9760	 8.1710
 1.9770	 8.2100
 1.9780	 8.2480
 1.9790	 8.2860
 1.9800	 8.3290
 1.9810	 8.3680
 1.9820	 8.4090
 1.9830	 8.4480
 1.9840	 8.4860
 1.9850	 8.5260
 1.9860	 8.5670
 1.9870	 8.6100
 1.9880	 8.6540
 1.9890	 8.6980
 1.9900	 8.7420
 1.9910	 8.7860
 1.9920	 8.8280
 1.9930	 8.8710
 1.9940	 8.9130
 1.9950	 8.9540
 1.9960	 8.9970
 1.9970	 9.0430
 1.9980	 9.0850
 1.9990	 9.1290
 2.0000	 9.1740
 2.0010	 9.2180
 2.0020	 9.2610
 2.0030	 9.3010
 2.0040	 9.3430
 2.0050	 9.3850
 2.0060	 9.4290
 2.0070	 9.4720
 2.0080	 9.5180
 2.0090	 9.5600
 2.0100	 9.5980
 2.0110	 9.6380
 2.0120	 9.6790
 2.0130	 9.7190
 2.0140	 9.7610
 2.0150	 9.8040
 2.0160	 9.8460
 2.0170	 9.8840
 2.0180	 9.9220
 2.0190	 9.9570
 2.0200	 9.9950
 2.0210	10.0300
 2.0220	10.0660
 2.0230	10.1050
 2.0240	10.1430
 2.0250	10.1810
 2.0260	10.2160
 2.0270	10.2490
 2.0280	10.2840
 2.0290	10.3200
 2.0300	10.3490
 2.0310	10.3810
 2.0320	10.4120
 2.0330	10.4420
 2.0340	10.4710
 2.0350	10.4990
 2.0360	10.5290
 2.0370	10.5570
 2.0380	10.5840
 2.0390	10.6110
 2.0400	10.6380
 2.0410	10.6640
 2.0420	10.6880
 2.0430	10.7100
 2.0440	10.7340
 2.0450	10.7570
 2.0460	10.7800
 2.0470	10.8050
 2.0480	10.8280
 2.0490	10.8510
 2.0500	10.8720
 2.0510	10.8940
 2.0520	10.9150
 2.0530	10.9390
 2.0540	10.9610
 2.0550	10.9840
 2.0560	11.0080
 2.0570	11.0290
 2.0580	11.0500
 2.0590	11.0710
 2.0600	11.0910
 2.0610	11.1120
 2.0620	11.1330
 2.0630	11.1550
 2.0640	11.1790
 2.0650	11.2000
 2.0660	11.2190
 2.0670	11.2390
 2.0680	11.2590
 2.0690	11.2790
 2.0700	11.2990
 2.0710	11.3200
 2.0720	11.3410
 2.0730	11.3620
 2.0740	11.3830
 2.0750	11.4050
 2.0760	11.4270
 2.0770	11.4470
 2.0780	11.4690
 2.0790	11.4920
 2.0800	11.5130
 2.0810	11.5320
 2.0820	11.5550
 2.0830	11.5790
 2.0840	11.6010
 2.0850	11.6230
 2.0860	11.6450
 2.0870	11.6690
 2.0880	11.6900
 2.0890	11.7130
 2.0900	11.7370
 2.0910	11.7610
 2.0920	11.7840
 2.0930	11.8070
 2.0940	11.8320
 2.0950	11.8540
 2.0960	11.8740
 2.0970	11.8960
 2.0980	11.9160
 2.0990	11.9390
 2.1000	11.9640
 2.1010	11.9870
 2.1020	12.0110
 2.1030	12.0350
 2.1040	12.0590
 2.1050	12.0810
 2.1060	12.1040
 2.1070	12.1260
 2.1080	12.1480
 2.1090	12.1670
 2.1100	12.1900
 2.1110	12.2170
 2.1120	12.2410
 2.1130	12.2680
 2.1140	12.2920
 2.1150	12.3130
 2.1160	12.3360
 2.1170	12.3610
 2.1180	12.3860
 2.1190	12.4150
 2.1200	12.4400
 2.1210	12.4630
 2.1220	12.4860
 2.1230	12.5080
 2.1240	12.5270
 2.1250	12.5460
 2.1260	12.5660
 2.1270	12.5870
 2.1280	12.6070
 2.1290	12.6280
 2.1300	12.6540
 2.1310	12.6750
 2.1320	12.6930
 2.1330	12.7130
 2.1340	12.7320
 2.1350	12.7530
 2.1360	12.7760
 2.1370	12.7980
 2.1380	12.8210
 2.1390	12.8450
 2.1400	12.8720
 2.1410	12.8980
 2.1420	12.9230
 2.1430	12.9480
 2.1440	12.9710
 2.1450	12.9890
 2.1460	13.0110
 2.1470	13.0320
 2.1480	13.0550
 2.1490	13.0820
 2.1500	13.1040
 2.1510	13.1240
 2.1520	13.1470
 2.1530	13.1670
 2.1540	13.1900
 2.1550	13.2170
 2.1560	13.2400
 2.1570	13.2600
 2.1580	13.2820
 2.1590	13.3040
 2.1600	13.3240
 2.1610	13.3460
 2.1620	13.3700
 2.1630	13.3920
 2.1640	13.4150
 2.1650	13.4350
 2.1660	13.4530
 2.1670	13.4720
 2.1680	13.4890
 2.1690	13.5100
 2.1700	13.5350
 2.1710	13.5570
 2.1720	13.5790
 2.1730	13.6010
 2.1740	13.6240
 2.1750	13.6460
 2.1760	13.6690
 2.1770	13.6920
 2.1780	13.7130
 2.1790	13.7340
 2.1800	13.7560
 2.1810	13.7760
 2.1820	13.7920
 2.1830	13.8100
 2.1840	13.8280
 2.1850	13.8430
 2.1860	13.8610
 2.1870	13.8810
 2.1880	13.9010
 2.1890	13.9210
 2.1900	13.9400
 2.1910	13.9570
 2.1920	13.9750
 2.1930	13.9930
 2.1940	14.0100
 2.1950	14.0270
 2.1960	14.0440
 2.1970	14.0570
 2.1980	14.0730
 2.1990	14.0910
 2.2000	14.1070
 2.2010	14.1250
 2.2020	14.1410
 2.2030	14.1540
 2.2040	14.1680
 2.2050	14.1820
 2.2060	14.1970
 2.2070	14.2080
 2.2080	14.2180
 2.2090	14.2300
 2.2100	14.2380
 2.2110	14.2490
 2.2120	14.2660
 2.2130	14.2730
 2.2140	14.2760
 2.2150	14.2790
 2.2160	14.2790
 2.2170	14.2780
 2.2180	14.2770
 2.2190	14.2730
 2.2200	14.2680
 2.2210	14.2610
 2.2220	14.2530
 2.2230	14.2440
 2.2240	14.2340
 2.2250	14.2220
 2.2260	14.2130
 2.2270	14.1990
 2.2280	14.1800
 2.2290	14.1600
 2.2300	14.1390
 2.2310	14.1150
 2.2320	14.0910
 2.2330	14.0640
 2.2340	14.0330
 2.2350	13.9990
 2.2360	13.9640
 2.2370	13.9250
 2.2380	13.8850
 2.2390	13.8410
 2.2400	13.7990
 2.2410	13.7550
 2.2420	13.7110
 2.2430	13.6690
 2.2440	13.6200
 2.2450	13.5660
 2.2460	13.5110
 2.2470	13.4490
 2.2480	13.3920
 2.2490	13.3350
 2.2500	13.2780
 2.2510	13.2250
 2.2520	13.1680
 2.2530	13.1090
 2.2540	13.0490
 2.2550	12.9870
 2.2560	12.9260
 2.2570	12.8620
 2.2580	12.8020
 2.2590	12.7440
 2.2600	12.6840
 2.2610	12.6260
 2.2620	12.5670
 2.2630	12.5050
 2.2640	12.4470
 2.2650	12.3940
 2.2660	12.3450
 2.2670	12.2960
 2.2680	12.2510
 2.2690	12.2060
 2.2700	12.1620
 2.2710	12.1150
 2.2720	12.0650
 2.2730	12.0240
 2.2740	11.9800
 2.2750	11.9480
 2.2760	11.9290
 2.2770	11.9060
 2.2780	11.8910
 2.2790	11.8670
 2.2800	11.8410
 2.2810	11.8160
 2.2820	11.7860
 2.2830	11.7640
 2.2840	11.7480
 2.2850	11.7280
 2.2860	11.7140
 2.2870	11.6900
 2.2880	11.6550
 2.2890	11.6280
 2.2900	11.6000
 2.2910	11.5720
 2.2920	11.5520
 2.2930	11.5230
 2.2940	11.4840
 2.2950	11.4470
 2.2960	11.4090
 2.2970	11.3700
 2.2980	11.3290
 2.2990	11.2890
 2.3000	11.2460
 2.3010	11.1970
 2.3020	11.1510
 2.3030	11.1080
 2.3040	11.0700
 2.3050	11.0340
 2.3060	11.0050
 2.3070	10.9790
 2.3080	10.9480
 2.3090	10.9250
 2.3100	10.9060
 2.3110	10.8880
 2.3120	10.8780
 2.3130	10.8770
 2.3140	10.8740
 2.3150	10.8740
 2.3160	10.8730
 2.3170	10.8720
 2.3180	10.8700
 2.3190	10.8670
 2.3200	10.8620
 2.3210	10.8540
 2.3220	10.8460
 2.3230	10.8340
 2.3240	10.8200
 2.3250	10.8010
 2.3260	10.7870
 2.3270	10.7700
 2.3280	10.7490
 2.3290	10.7280
 2.3300	10.7040
 2.3310	10.6740
 2.3320	10.6480
 2.3330	10.6260
 2.3340	10.6010
 2.3350	10.5780
 2.3360	10.5500
 2.3370	10.5180
 2.3380	10.4900
 2.3390	10.4560
 2.3400	10.4300
 2.3410	10.4120
 2.3420	10.3900
 2.3430	10.3660
 2.3440	10.3420
 2.3450	10.3130
 2.3460	10.2890
 2.3470	10.2720
 2.3480	10.2480
 2.3490	10.2250
 2.3500	10.2000
 2.3510	10.1640
 2.3520	10.1390
 2.3530	10.1180
 2.3540	10.1050
 2.3550	10.0970
 2.3560	10.0980
 2.3570	10.0920
 2.3580	10.0780
 2.3590	10.0670
 2.3600	10.0470
 2.3610	10.0180
 2.3620	10.0060
 2.3630	 9.9850
 2.3640	 9.9620
 2.3650	 9.9440
 2.3660	 9.9220
 2.3670	 9.9010
 2.3680	 9.8780
 2.3690	 9.8650
 2.3700	 9.8470
 2.3710	 9.8230
 2.3720	 9.7980
 2.3730	 9.7690
 2.3740	 9.7430
 2.3750	 9.7160
 2.3760	 9.6950
 2.3770	 9.6830
 2.3780	 9.6630
 2.3790	 9.6470
 2.3800	 9.6310
 2.3810	 9.6110
 2.3820	 9.5870
 2.3830	 9.5640
 2.3840	 9.5330
 2.3850	 9.5030
 2.3860	 9.4820
 2.3870	 9.4660
 2.3880	 9.4490
 2.3890	 9.4230
 2.3900	 9.3980
 2.3910	 9.3660
 2.3920	 9.3330
 2.3930	 9.3110
 2.3940	 9.2880
 2.3950	 9.2690
 2.3960	 9.2510
 2.3970	 9.2330
 2.3980	 9.2160
 2.3990	 9.1950
 2.4000	 9.1730
 2.4010	 9.1560
 2.4020	 9.1390
 2.4030	 9.1150
 2.4040	 9.0960
 2.4050	 9.0770
 2.4060	 9.0520
 2.4070	 9.0330
 2.4080	 9.0140
 2.4090	 8.9830
 2.4100	 8.9450
 2.4110	 8.9140
 2.4120	 8.8810
 2.4130	 8.8550
 2.4140	 8.8370
 2.4150	 8.8090
 2.4160	 8.7890
 2.4170	 8.7600
 2.4180	 8.7270
 2.4190	 8.7100
 2.4200	 8.6800
 2.4210	 8.6390
 2.4220	 8.6110
 2.4230	 8.5890
 2.4240	 8.5630
 2.4250	 8.5510
 2.4260	 8.5520
 2.4270	 8.5270
 2.4280	 8.4960
 2.4290	 8.4650
 2.4300	 8.4210
 2.4310	 8.3950
 2.4320	 8.3900
 2.4330	 8.3740
 2.4340	 8.3530
 2.4350	 8.3210
 2.4360	 8.2810
 2.4370	 8.2500
 2.4380	 8.2250
 2.4390	 8.2010
 2.4400	 8.1600
 2.4410	 8.1210
 2.4420	 8.0940
 2.4430	 8.0580
 2.4440	 8.0300
 2.4450	 8.0110
 2.4460	 7.9880
 2.4470	 7.9710
 2.4480	 7.9510
 2.4490	 7.9190
 2.4500	 7.8930
 2.4510	 7.8520
 2.4520	 7.8140
 2.4530	 7.7910
 2.4540	 7.7500
 2.4550	 7.7350
 2.4560	 7.7160
 2.4570	 7.6740
 2.4580	 7.6550
 2.4590	 7.6310
 2.4600	 7.6250
 2.4610	 7.6320
 2.4620	 7.6370
 2.4630	 7.6250
 2.4640	 7.5980
 2.4650	 7.5600
 2.4660	 7.5250
 2.4670	 7.5070
 2.4680	 7.4940
 2.4690	 7.5030
 2.4700	 7.4900
 2.4710	 7.4520
 2.4720	 7.4410
 2.4730	 7.4440
 2.4740	 7.4240
 2.4750	 7.3910
 2.4760	 7.3690
 2.4770	 7.3300
 2.4780	 7.3140
 2.4790	 7.3430
 2.4800	 7.3370
 2.4810	 7.3140
 2.4820	 7.2500
 2.4830	 7.1840
 2.4840	 7.1490
 2.4850	 7.1620
 2.4860	 7.1880
 2.4870	 7.1960
 2.4880	 7.1730
 2.4890	 7.1330
 2.4900	 7.1170
 2.4910	 7.1180
 2.4920	 7.1390
 2.4930	 7.1620
 2.4940	 7.1380
 2.4950	 7.1340
 2.4960	 7.1200
 2.4970	 7.0970
 2.4980	 7.1120
 2.4990	 7.0920
 2.5000	 7.0830
