Name: Ceanothus spinosus 1
Type: vegetation
Class: Shrub
Genus: Ceanothus
Species: spinosus
Sample No.: VH007
Owner: UCSB
Wavelength Range: VSWIR
Origin: 34.4906; -119.7908; WGS84
Collection Date: 4/1/2013
Description: Samples were collected as part of the HyspIRI Airborne Campaign. 48 individual plants were sampled in three times in 2013 - spring  summer  and fall. The name of the sample includes a 1  2  or 3 which references a different individual of the species. Samples were taken to JPL and processed within 48 hours of collection. The same leaves were processed in the Nicolet and then measured using the ASD.
Measurement: Bidirectional reflectance
First Column: X
Second Column: Y
X Units: Wavelength (micrometers)
Y Units: Reflectance (percentage)
First X Value: 0.35
Last X Value: 2.5
Number of X Values: 2151
Additional Information: vegetation.shrub.ceanothus.spinosus.vswir.vh007.ucsb.asd.ancillary.txt

 0.3500	 6.2210
 0.3510	 6.7060
 0.3520	 6.7730
 0.3530	 6.5940
 0.3540	 6.4770
 0.3550	 6.3950
 0.3560	 6.4040
 0.3570	 6.4090
 0.3580	 6.2830
 0.3590	 6.3300
 0.3600	 6.3630
 0.3610	 6.3130
 0.3620	 6.3470
 0.3630	 6.3100
 0.3640	 6.2960
 0.3650	 6.3860
 0.3660	 6.3600
 0.3670	 6.4080
 0.3680	 6.4550
 0.3690	 6.2840
 0.3700	 6.2760
 0.3710	 6.3860
 0.3720	 6.4750
 0.3730	 6.3410
 0.3740	 6.2970
 0.3750	 6.3590
 0.3760	 6.4240
 0.3770	 6.3210
 0.3780	 6.2660
 0.3790	 6.2880
 0.3800	 6.2490
 0.3810	 6.2620
 0.3820	 6.2770
 0.3830	 6.2660
 0.3840	 6.3170
 0.3850	 6.3210
 0.3860	 6.2900
 0.3870	 6.2710
 0.3880	 6.2690
 0.3890	 6.2840
 0.3900	 6.2880
 0.3910	 6.2260
 0.3920	 6.2770
 0.3930	 6.3030
 0.3940	 6.2210
 0.3950	 6.2650
 0.3960	 6.3180
 0.3970	 6.3300
 0.3980	 6.2900
 0.3990	 6.2150
 0.4000	 6.1980
 0.4010	 6.2430
 0.4020	 6.2400
 0.4030	 6.1940
 0.4040	 6.1850
 0.4050	 6.2550
 0.4060	 6.2620
 0.4070	 6.2400
 0.4080	 6.2150
 0.4090	 6.2070
 0.4100	 6.2190
 0.4110	 6.2170
 0.4120	 6.1980
 0.4130	 6.2230
 0.4140	 6.2640
 0.4150	 6.2820
 0.4160	 6.2600
 0.4170	 6.2900
 0.4180	 6.3140
 0.4190	 6.3120
 0.4200	 6.3080
 0.4210	 6.3320
 0.4220	 6.3620
 0.4230	 6.3780
 0.4240	 6.3910
 0.4250	 6.4080
 0.4260	 6.4280
 0.4270	 6.4470
 0.4280	 6.4570
 0.4290	 6.4680
 0.4300	 6.4840
 0.4310	 6.5040
 0.4320	 6.5070
 0.4330	 6.5070
 0.4340	 6.5210
 0.4350	 6.5300
 0.4360	 6.5350
 0.4370	 6.5430
 0.4380	 6.5680
 0.4390	 6.5850
 0.4400	 6.5940
 0.4410	 6.5990
 0.4420	 6.6070
 0.4430	 6.6140
 0.4440	 6.6250
 0.4450	 6.6440
 0.4460	 6.6560
 0.4470	 6.6640
 0.4480	 6.6680
 0.4490	 6.6750
 0.4500	 6.6800
 0.4510	 6.6870
 0.4520	 6.6980
 0.4530	 6.7170
 0.4540	 6.7290
 0.4550	 6.7330
 0.4560	 6.7410
 0.4570	 6.7480
 0.4580	 6.7550
 0.4590	 6.7590
 0.4600	 6.7530
 0.4610	 6.7580
 0.4620	 6.7630
 0.4630	 6.7530
 0.4640	 6.7460
 0.4650	 6.7590
 0.4660	 6.7800
 0.4670	 6.7710
 0.4680	 6.7750
 0.4690	 6.7780
 0.4700	 6.7650
 0.4710	 6.7710
 0.4720	 6.7760
 0.4730	 6.7760
 0.4740	 6.7680
 0.4750	 6.7700
 0.4760	 6.7750
 0.4770	 6.7780
 0.4780	 6.7750
 0.4790	 6.7890
 0.4800	 6.8030
 0.4810	 6.8000
 0.4820	 6.7970
 0.4830	 6.7970
 0.4840	 6.7990
 0.4850	 6.7970
 0.4860	 6.8030
 0.4870	 6.8140
 0.4880	 6.8300
 0.4890	 6.8440
 0.4900	 6.8530
 0.4910	 6.8610
 0.4920	 6.8700
 0.4930	 6.8800
 0.4940	 6.8980
 0.4950	 6.9230
 0.4960	 6.9410
 0.4970	 6.9590
 0.4980	 6.9800
 0.4990	 7.0050
 0.5000	 7.0350
 0.5010	 7.0660
 0.5020	 7.0960
 0.5030	 7.1270
 0.5040	 7.1650
 0.5050	 7.2120
 0.5060	 7.2640
 0.5070	 7.3100
 0.5080	 7.3600
 0.5090	 7.4170
 0.5100	 7.4810
 0.5110	 7.5600
 0.5120	 7.6390
 0.5130	 7.7150
 0.5140	 7.8010
 0.5150	 7.9010
 0.5160	 8.0080
 0.5170	 8.1180
 0.5180	 8.2380
 0.5190	 8.3610
 0.5200	 8.4890
 0.5210	 8.6270
 0.5220	 8.7660
 0.5230	 8.9010
 0.5240	 9.0290
 0.5250	 9.1640
 0.5260	 9.2950
 0.5270	 9.4200
 0.5280	 9.5400
 0.5290	 9.6600
 0.5300	 9.7720
 0.5310	 9.8720
 0.5320	 9.9640
 0.5330	10.0480
 0.5340	10.1290
 0.5350	10.2080
 0.5360	10.2700
 0.5370	10.3270
 0.5380	10.3810
 0.5390	10.4310
 0.5400	10.4770
 0.5410	10.5200
 0.5420	10.5620
 0.5430	10.6000
 0.5440	10.6400
 0.5450	10.6800
 0.5460	10.7140
 0.5470	10.7510
 0.5480	10.7840
 0.5490	10.8130
 0.5500	10.8390
 0.5510	10.8520
 0.5520	10.8550
 0.5530	10.8530
 0.5540	10.8450
 0.5550	10.8250
 0.5560	10.7940
 0.5570	10.7590
 0.5580	10.7140
 0.5590	10.6630
 0.5600	10.6080
 0.5610	10.5450
 0.5620	10.4780
 0.5630	10.4110
 0.5640	10.3420
 0.5650	10.2590
 0.5660	10.1680
 0.5670	10.0730
 0.5680	 9.9810
 0.5690	 9.8820
 0.5700	 9.7840
 0.5710	 9.6910
 0.5720	 9.5930
 0.5730	 9.5000
 0.5740	 9.4180
 0.5750	 9.3450
 0.5760	 9.2840
 0.5770	 9.2310
 0.5780	 9.1830
 0.5790	 9.1350
 0.5800	 9.0880
 0.5810	 9.0410
 0.5820	 8.9940
 0.5830	 8.9440
 0.5840	 8.8930
 0.5850	 8.8440
 0.5860	 8.8020
 0.5870	 8.7710
 0.5880	 8.7490
 0.5890	 8.7330
 0.5900	 8.7180
 0.5910	 8.6980
 0.5920	 8.6760
 0.5930	 8.6610
 0.5940	 8.6410
 0.5950	 8.6230
 0.5960	 8.6080
 0.5970	 8.5910
 0.5980	 8.5750
 0.5990	 8.5590
 0.6000	 8.5430
 0.6010	 8.5220
 0.6020	 8.5040
 0.6030	 8.4870
 0.6040	 8.4610
 0.6050	 8.4360
 0.6060	 8.4080
 0.6070	 8.3750
 0.6080	 8.3400
 0.6090	 8.3060
 0.6100	 8.2670
 0.6110	 8.2190
 0.6120	 8.1820
 0.6130	 8.1460
 0.6140	 8.1090
 0.6150	 8.0750
 0.6160	 8.0410
 0.6170	 8.0080
 0.6180	 7.9760
 0.6190	 7.9490
 0.6200	 7.9250
 0.6210	 7.9040
 0.6220	 7.8900
 0.6230	 7.8740
 0.6240	 7.8590
 0.6250	 7.8460
 0.6260	 7.8400
 0.6270	 7.8360
 0.6280	 7.8310
 0.6290	 7.8230
 0.6300	 7.8200
 0.6310	 7.8170
 0.6320	 7.8110
 0.6330	 7.8020
 0.6340	 7.7950
 0.6350	 7.7860
 0.6360	 7.7710
 0.6370	 7.7490
 0.6380	 7.7230
 0.6390	 7.6940
 0.6400	 7.6620
 0.6410	 7.6300
 0.6420	 7.5980
 0.6430	 7.5630
 0.6440	 7.5230
 0.6450	 7.4840
 0.6460	 7.4500
 0.6470	 7.4170
 0.6480	 7.3800
 0.6490	 7.3490
 0.6500	 7.3250
 0.6510	 7.3050
 0.6520	 7.2820
 0.6530	 7.2590
 0.6540	 7.2360
 0.6550	 7.2160
 0.6560	 7.1940
 0.6570	 7.1690
 0.6580	 7.1440
 0.6590	 7.1160
 0.6600	 7.0860
 0.6610	 7.0570
 0.6620	 7.0330
 0.6630	 7.0090
 0.6640	 6.9860
 0.6650	 6.9670
 0.6660	 6.9530
 0.6670	 6.9420
 0.6680	 6.9320
 0.6690	 6.9250
 0.6700	 6.9220
 0.6710	 6.9210
 0.6720	 6.9230
 0.6730	 6.9280
 0.6740	 6.9380
 0.6750	 6.9510
 0.6760	 6.9660
 0.6770	 6.9830
 0.6780	 7.0010
 0.6790	 7.0230
 0.6800	 7.0460
 0.6810	 7.0740
 0.6820	 7.1060
 0.6830	 7.1420
 0.6840	 7.1800
 0.6850	 7.2310
 0.6860	 7.2940
 0.6870	 7.3640
 0.6880	 7.4480
 0.6890	 7.5490
 0.6900	 7.6730
 0.6910	 7.8220
 0.6920	 8.0030
 0.6930	 8.2220
 0.6940	 8.4830
 0.6950	 8.7880
 0.6960	 9.1430
 0.6970	 9.5520
 0.6980	10.0170
 0.6990	10.5350
 0.7000	11.1080
 0.7010	11.7330
 0.7020	12.4000
 0.7030	13.1090
 0.7040	13.8560
 0.7050	14.6330
 0.7060	15.4290
 0.7070	16.2520
 0.7080	17.0940
 0.7090	17.9490
 0.7100	18.8200
 0.7110	19.7030
 0.7120	20.5930
 0.7130	21.4890
 0.7140	22.3870
 0.7150	23.2880
 0.7160	24.1890
 0.7170	25.0810
 0.7180	25.9650
 0.7190	26.8430
 0.7200	27.7120
 0.7210	28.5710
 0.7220	29.4120
 0.7230	30.2320
 0.7240	31.0340
 0.7250	31.8150
 0.7260	32.5710
 0.7270	33.2980
 0.7280	34.0010
 0.7290	34.6730
 0.7300	35.3140
 0.7310	35.9260
 0.7320	36.5120
 0.7330	37.0710
 0.7340	37.6020
 0.7350	38.1010
 0.7360	38.5760
 0.7370	39.0270
 0.7380	39.4530
 0.7390	39.8460
 0.7400	40.2260
 0.7410	40.5840
 0.7420	40.9040
 0.7430	41.2200
 0.7440	41.5070
 0.7450	41.7670
 0.7460	42.0200
 0.7470	42.2490
 0.7480	42.4620
 0.7490	42.6600
 0.7500	42.8390
 0.7510	43.0080
 0.7520	43.1650
 0.7530	43.3060
 0.7540	43.4350
 0.7550	43.5540
 0.7560	43.6610
 0.7570	43.7590
 0.7580	43.8480
 0.7590	43.9310
 0.7600	44.0120
 0.7610	44.0820
 0.7620	44.1470
 0.7630	44.2070
 0.7640	44.2640
 0.7650	44.3150
 0.7660	44.3640
 0.7670	44.4100
 0.7680	44.4470
 0.7690	44.4810
 0.7700	44.5160
 0.7710	44.5510
 0.7720	44.5800
 0.7730	44.6100
 0.7740	44.6360
 0.7750	44.6590
 0.7760	44.6880
 0.7770	44.7140
 0.7780	44.7360
 0.7790	44.7590
 0.7800	44.7790
 0.7810	44.7990
 0.7820	44.8210
 0.7830	44.8440
 0.7840	44.8650
 0.7850	44.8830
 0.7860	44.8960
 0.7870	44.9060
 0.7880	44.9190
 0.7890	44.9370
 0.7900	44.9580
 0.7910	44.9790
 0.7920	44.9930
 0.7930	45.0030
 0.7940	45.0140
 0.7950	45.0260
 0.7960	45.0380
 0.7970	45.0470
 0.7980	45.0550
 0.7990	45.0650
 0.8000	45.0730
 0.8010	45.0790
 0.8020	45.0870
 0.8030	45.0930
 0.8040	45.0970
 0.8050	45.0980
 0.8060	45.1020
 0.8070	45.1000
 0.8080	45.0980
 0.8090	45.1110
 0.8100	45.1150
 0.8110	45.1150
 0.8120	45.1130
 0.8130	45.1000
 0.8140	45.1020
 0.8150	45.1050
 0.8160	45.0980
 0.8170	45.0930
 0.8180	45.0880
 0.8190	45.0830
 0.8200	45.0800
 0.8210	45.0780
 0.8220	45.0760
 0.8230	45.0720
 0.8240	45.0610
 0.8250	45.0520
 0.8260	45.0480
 0.8270	45.0440
 0.8280	45.0320
 0.8290	45.0240
 0.8300	45.0140
 0.8310	44.9990
 0.8320	44.9880
 0.8330	44.9870
 0.8340	44.9860
 0.8350	44.9750
 0.8360	44.9700
 0.8370	44.9700
 0.8380	44.9670
 0.8390	44.9530
 0.8400	44.9510
 0.8410	44.9510
 0.8420	44.9450
 0.8430	44.9410
 0.8440	44.9490
 0.8450	44.9540
 0.8460	44.9450
 0.8470	44.9380
 0.8480	44.9410
 0.8490	44.9480
 0.8500	44.9500
 0.8510	44.9450
 0.8520	44.9490
 0.8530	44.9550
 0.8540	44.9520
 0.8550	44.9500
 0.8560	44.9520
 0.8570	44.9560
 0.8580	44.9550
 0.8590	44.9500
 0.8600	44.9510
 0.8610	44.9610
 0.8620	44.9720
 0.8630	44.9760
 0.8640	44.9770
 0.8650	44.9790
 0.8660	44.9840
 0.8670	44.9870
 0.8680	44.9920
 0.8690	45.0020
 0.8700	45.0030
 0.8710	45.0040
 0.8720	45.0050
 0.8730	45.0070
 0.8740	45.0090
 0.8750	45.0150
 0.8760	45.0240
 0.8770	45.0320
 0.8780	45.0450
 0.8790	45.0520
 0.8800	45.0500
 0.8810	45.0530
 0.8820	45.0590
 0.8830	45.0640
 0.8840	45.0700
 0.8850	45.0780
 0.8860	45.0840
 0.8870	45.0900
 0.8880	45.0950
 0.8890	45.0980
 0.8900	45.0970
 0.8910	45.1030
 0.8920	45.1210
 0.8930	45.1210
 0.8940	45.1220
 0.8950	45.1280
 0.8960	45.1320
 0.8970	45.1340
 0.8980	45.1380
 0.8990	45.1430
 0.9000	45.1460
 0.9010	45.1480
 0.9020	45.1540
 0.9030	45.1630
 0.9040	45.1630
 0.9050	45.1670
 0.9060	45.1720
 0.9070	45.1730
 0.9080	45.1740
 0.9090	45.1830
 0.9100	45.1920
 0.9110	45.1930
 0.9120	45.1980
 0.9130	45.1990
 0.9140	45.1990
 0.9150	45.2000
 0.9160	45.2020
 0.9170	45.2040
 0.9180	45.2040
 0.9190	45.1990
 0.9200	45.1900
 0.9210	45.1840
 0.9220	45.1850
 0.9230	45.1920
 0.9240	45.1810
 0.9250	45.1650
 0.9260	45.1510
 0.9270	45.1400
 0.9280	45.1350
 0.9290	45.1230
 0.9300	45.1040
 0.9310	45.0910
 0.9320	45.0710
 0.9330	45.0550
 0.9340	45.0430
 0.9350	45.0220
 0.9360	44.9880
 0.9370	44.9570
 0.9380	44.9340
 0.9390	44.9030
 0.9400	44.8870
 0.9410	44.8620
 0.9420	44.8200
 0.9430	44.7900
 0.9440	44.7530
 0.9450	44.7150
 0.9460	44.6790
 0.9470	44.6390
 0.9480	44.5750
 0.9490	44.5110
 0.9500	44.4670
 0.9510	44.4250
 0.9520	44.3700
 0.9530	44.2990
 0.9540	44.2180
 0.9550	44.1530
 0.9560	44.0880
 0.9570	44.0220
 0.9580	43.9610
 0.9590	43.8950
 0.9600	43.8350
 0.9610	43.7820
 0.9620	43.7310
 0.9630	43.6910
 0.9640	43.6680
 0.9650	43.6440
 0.9660	43.6030
 0.9670	43.5850
 0.9680	43.5640
 0.9690	43.5380
 0.9700	43.5150
 0.9710	43.4990
 0.9720	43.4850
 0.9730	43.4770
 0.9740	43.4800
 0.9750	43.4620
 0.9760	43.4450
 0.9770	43.4380
 0.9780	43.4390
 0.9790	43.4160
 0.9800	43.4260
 0.9810	43.4490
 0.9820	43.4450
 0.9830	43.4510
 0.9840	43.4590
 0.9850	43.4590
 0.9860	43.4500
 0.9870	43.4610
 0.9880	43.4820
 0.9890	43.5110
 0.9900	43.5400
 0.9910	43.5380
 0.9920	43.5590
 0.9930	43.5800
 0.9940	43.6000
 0.9950	43.6210
 0.9960	43.6420
 0.9970	43.6630
 0.9980	43.6830
 0.9990	43.7040
 1.0000	43.7250
 1.0010	43.7450
 1.0020	43.7660
 1.0030	43.7870
 1.0040	43.8070
 1.0050	43.8280
 1.0060	43.8490
 1.0070	43.8690
 1.0080	43.8900
 1.0090	43.9110
 1.0100	43.9110
 1.0110	43.9300
 1.0120	43.9520
 1.0130	43.9700
 1.0140	43.9920
 1.0150	44.0160
 1.0160	44.0440
 1.0170	44.0710
 1.0180	44.0950
 1.0190	44.1150
 1.0200	44.1330
 1.0210	44.1480
 1.0220	44.1630
 1.0230	44.1820
 1.0240	44.2070
 1.0250	44.2260
 1.0260	44.2460
 1.0270	44.2640
 1.0280	44.2760
 1.0290	44.2910
 1.0300	44.3080
 1.0310	44.3250
 1.0320	44.3480
 1.0330	44.3620
 1.0340	44.3750
 1.0350	44.3880
 1.0360	44.4010
 1.0370	44.4100
 1.0380	44.4220
 1.0390	44.4360
 1.0400	44.4500
 1.0410	44.4660
 1.0420	44.4780
 1.0430	44.4910
 1.0440	44.5020
 1.0450	44.5100
 1.0460	44.5190
 1.0470	44.5270
 1.0480	44.5360
 1.0490	44.5430
 1.0500	44.5500
 1.0510	44.5580
 1.0520	44.5660
 1.0530	44.5730
 1.0540	44.5790
 1.0550	44.5880
 1.0560	44.5990
 1.0570	44.6080
 1.0580	44.6190
 1.0590	44.6280
 1.0600	44.6350
 1.0610	44.6430
 1.0620	44.6510
 1.0630	44.6570
 1.0640	44.6610
 1.0650	44.6660
 1.0660	44.6680
 1.0670	44.6730
 1.0680	44.6790
 1.0690	44.6890
 1.0700	44.6930
 1.0710	44.6970
 1.0720	44.7010
 1.0730	44.7010
 1.0740	44.7050
 1.0750	44.7130
 1.0760	44.7160
 1.0770	44.7170
 1.0780	44.7190
 1.0790	44.7190
 1.0800	44.7190
 1.0810	44.7190
 1.0820	44.7180
 1.0830	44.7130
 1.0840	44.7100
 1.0850	44.7070
 1.0860	44.7060
 1.0870	44.7030
 1.0880	44.7030
 1.0890	44.6980
 1.0900	44.6890
 1.0910	44.6830
 1.0920	44.6760
 1.0930	44.6680
 1.0940	44.6630
 1.0950	44.6540
 1.0960	44.6420
 1.0970	44.6310
 1.0980	44.6200
 1.0990	44.6090
 1.1000	44.5970
 1.1010	44.5840
 1.1020	44.5680
 1.1030	44.5540
 1.1040	44.5390
 1.1050	44.5240
 1.1060	44.5080
 1.1070	44.4940
 1.1080	44.4760
 1.1090	44.4570
 1.1100	44.4370
 1.1110	44.4130
 1.1120	44.3910
 1.1130	44.3720
 1.1140	44.3490
 1.1150	44.3270
 1.1160	44.3000
 1.1170	44.2690
 1.1180	44.2380
 1.1190	44.2050
 1.1200	44.1690
 1.1210	44.1330
 1.1220	44.0930
 1.1230	44.0470
 1.1240	43.9980
 1.1250	43.9440
 1.1260	43.8850
 1.1270	43.8220
 1.1280	43.7570
 1.1290	43.6830
 1.1300	43.6040
 1.1310	43.5180
 1.1320	43.4270
 1.1330	43.3270
 1.1340	43.2190
 1.1350	43.1060
 1.1360	42.9840
 1.1370	42.8560
 1.1380	42.7230
 1.1390	42.5860
 1.1400	42.4420
 1.1410	42.2970
 1.1420	42.1470
 1.1430	41.9960
 1.1440	41.8460
 1.1450	41.6930
 1.1460	41.5460
 1.1470	41.3990
 1.1480	41.2600
 1.1490	41.1220
 1.1500	40.9950
 1.1510	40.8730
 1.1520	40.7600
 1.1530	40.6540
 1.1540	40.5560
 1.1550	40.4650
 1.1560	40.3830
 1.1570	40.3100
 1.1580	40.2440
 1.1590	40.1890
 1.1600	40.1390
 1.1610	40.0980
 1.1620	40.0640
 1.1630	40.0340
 1.1640	40.0100
 1.1650	39.9890
 1.1660	39.9730
 1.1670	39.9590
 1.1680	39.9480
 1.1690	39.9370
 1.1700	39.9280
 1.1710	39.9190
 1.1720	39.9110
 1.1730	39.9040
 1.1740	39.9000
 1.1750	39.8940
 1.1760	39.8880
 1.1770	39.8810
 1.1780	39.8690
 1.1790	39.8570
 1.1800	39.8460
 1.1810	39.8340
 1.1820	39.8250
 1.1830	39.8170
 1.1840	39.8070
 1.1850	39.7970
 1.1860	39.7850
 1.1870	39.7750
 1.1880	39.7670
 1.1890	39.7590
 1.1900	39.7530
 1.1910	39.7490
 1.1920	39.7470
 1.1930	39.7460
 1.1940	39.7470
 1.1950	39.7480
 1.1960	39.7510
 1.1970	39.7570
 1.1980	39.7640
 1.1990	39.7700
 1.2000	39.7800
 1.2010	39.7920
 1.2020	39.8030
 1.2030	39.8180
 1.2040	39.8330
 1.2050	39.8450
 1.2060	39.8610
 1.2070	39.8790
 1.2080	39.8980
 1.2090	39.9180
 1.2100	39.9360
 1.2110	39.9560
 1.2120	39.9770
 1.2130	39.9990
 1.2140	40.0230
 1.2150	40.0470
 1.2160	40.0700
 1.2170	40.0940
 1.2180	40.1220
 1.2190	40.1490
 1.2200	40.1760
 1.2210	40.2030
 1.2220	40.2260
 1.2230	40.2490
 1.2240	40.2730
 1.2250	40.2960
 1.2260	40.3190
 1.2270	40.3420
 1.2280	40.3630
 1.2290	40.3860
 1.2300	40.4080
 1.2310	40.4290
 1.2320	40.4500
 1.2330	40.4690
 1.2340	40.4870
 1.2350	40.5050
 1.2360	40.5230
 1.2370	40.5390
 1.2380	40.5560
 1.2390	40.5720
 1.2400	40.5870
 1.2410	40.6060
 1.2420	40.6220
 1.2430	40.6370
 1.2440	40.6530
 1.2450	40.6670
 1.2460	40.6790
 1.2470	40.6900
 1.2480	40.6990
 1.2490	40.7080
 1.2500	40.7140
 1.2510	40.7230
 1.2520	40.7310
 1.2530	40.7390
 1.2540	40.7490
 1.2550	40.7570
 1.2560	40.7650
 1.2570	40.7710
 1.2580	40.7730
 1.2590	40.7750
 1.2600	40.7770
 1.2610	40.7770
 1.2620	40.7750
 1.2630	40.7740
 1.2640	40.7710
 1.2650	40.7680
 1.2660	40.7640
 1.2670	40.7590
 1.2680	40.7510
 1.2690	40.7410
 1.2700	40.7310
 1.2710	40.7200
 1.2720	40.7090
 1.2730	40.6970
 1.2740	40.6830
 1.2750	40.6680
 1.2760	40.6520
 1.2770	40.6330
 1.2780	40.6150
 1.2790	40.5950
 1.2800	40.5740
 1.2810	40.5510
 1.2820	40.5270
 1.2830	40.5020
 1.2840	40.4770
 1.2850	40.4530
 1.2860	40.4300
 1.2870	40.4040
 1.2880	40.3760
 1.2890	40.3480
 1.2900	40.3160
 1.2910	40.2800
 1.2920	40.2450
 1.2930	40.2100
 1.2940	40.1740
 1.2950	40.1380
 1.2960	40.1010
 1.2970	40.0610
 1.2980	40.0180
 1.2990	39.9730
 1.3000	39.9230
 1.3010	39.8690
 1.3020	39.8140
 1.3030	39.7560
 1.3040	39.6960
 1.3050	39.6330
 1.3060	39.5690
 1.3070	39.5000
 1.3080	39.4260
 1.3090	39.3500
 1.3100	39.2710
 1.3110	39.1860
 1.3120	39.1010
 1.3130	39.0130
 1.3140	38.9200
 1.3150	38.8230
 1.3160	38.7240
 1.3170	38.6230
 1.3180	38.5150
 1.3190	38.4040
 1.3200	38.2880
 1.3210	38.1650
 1.3220	38.0410
 1.3230	37.9130
 1.3240	37.7810
 1.3250	37.6470
 1.3260	37.5120
 1.3270	37.3760
 1.3280	37.2370
 1.3290	37.0930
 1.3300	36.9480
 1.3310	36.7990
 1.3320	36.6470
 1.3330	36.4950
 1.3340	36.3410
 1.3350	36.1840
 1.3360	36.0300
 1.3370	35.8730
 1.3380	35.7150
 1.3390	35.5570
 1.3400	35.3970
 1.3410	35.2400
 1.3420	35.0860
 1.3430	34.9330
 1.3440	34.7810
 1.3450	34.6290
 1.3460	34.4760
 1.3470	34.3260
 1.3480	34.1750
 1.3490	34.0280
 1.3500	33.8830
 1.3510	33.7400
 1.3520	33.5960
 1.3530	33.4550
 1.3540	33.3120
 1.3550	33.1680
 1.3560	33.0260
 1.3570	32.8840
 1.3580	32.7400
 1.3590	32.5950
 1.3600	32.4480
 1.3610	32.2970
 1.3620	32.1410
 1.3630	31.9820
 1.3640	31.8170
 1.3650	31.6450
 1.3660	31.4660
 1.3670	31.2780
 1.3680	31.0810
 1.3690	30.8730
 1.3700	30.6510
 1.3710	30.4190
 1.3720	30.1720
 1.3730	29.9100
 1.3740	29.6340
 1.3750	29.3380
 1.3760	29.0240
 1.3770	28.6890
 1.3780	28.3300
 1.3790	27.9530
 1.3800	27.5570
 1.3810	27.1380
 1.3820	26.7040
 1.3830	26.2540
 1.3840	25.7870
 1.3850	25.3030
 1.3860	24.8090
 1.3870	24.2960
 1.3880	23.7820
 1.3890	23.2580
 1.3900	22.7270
 1.3910	22.2000
 1.3920	21.6690
 1.3930	21.1370
 1.3940	20.6110
 1.3950	20.0870
 1.3960	19.5730
 1.3970	19.0700
 1.3980	18.5820
 1.3990	18.1140
 1.4000	17.6620
 1.4010	17.2250
 1.4020	16.8090
 1.4030	16.4080
 1.4040	16.0280
 1.4050	15.6700
 1.4060	15.3320
 1.4070	15.0170
 1.4080	14.7210
 1.4090	14.4440
 1.4100	14.1880
 1.4110	13.9480
 1.4120	13.7260
 1.4130	13.5220
 1.4140	13.3340
 1.4150	13.1630
 1.4160	13.0070
 1.4170	12.8630
 1.4180	12.7330
 1.4190	12.6130
 1.4200	12.5030
 1.4210	12.4040
 1.4220	12.3150
 1.4230	12.2370
 1.4240	12.1660
 1.4250	12.1020
 1.4260	12.0470
 1.4270	11.9960
 1.4280	11.9520
 1.4290	11.9140
 1.4300	11.8820
 1.4310	11.8550
 1.4320	11.8340
 1.4330	11.8160
 1.4340	11.8020
 1.4350	11.7910
 1.4360	11.7850
 1.4370	11.7810
 1.4380	11.7800
 1.4390	11.7830
 1.4400	11.7880
 1.4410	11.7960
 1.4420	11.8060
 1.4430	11.8170
 1.4440	11.8290
 1.4450	11.8430
 1.4460	11.8580
 1.4470	11.8760
 1.4480	11.8930
 1.4490	11.9120
 1.4500	11.9330
 1.4510	11.9530
 1.4520	11.9750
 1.4530	11.9970
 1.4540	12.0210
 1.4550	12.0460
 1.4560	12.0730
 1.4570	12.1010
 1.4580	12.1310
 1.4590	12.1630
 1.4600	12.1980
 1.4610	12.2350
 1.4620	12.2760
 1.4630	12.3210
 1.4640	12.3680
 1.4650	12.4200
 1.4660	12.4740
 1.4670	12.5330
 1.4680	12.5960
 1.4690	12.6630
 1.4700	12.7340
 1.4710	12.8080
 1.4720	12.8850
 1.4730	12.9650
 1.4740	13.0480
 1.4750	13.1330
 1.4760	13.2220
 1.4770	13.3130
 1.4780	13.4040
 1.4790	13.4980
 1.4800	13.5920
 1.4810	13.6870
 1.4820	13.7860
 1.4830	13.8850
 1.4840	13.9860
 1.4850	14.0870
 1.4860	14.1880
 1.4870	14.2920
 1.4880	14.3940
 1.4890	14.4980
 1.4900	14.6020
 1.4910	14.7070
 1.4920	14.8110
 1.4930	14.9170
 1.4940	15.0220
 1.4950	15.1280
 1.4960	15.2340
 1.4970	15.3400
 1.4980	15.4460
 1.4990	15.5530
 1.5000	15.6600
 1.5010	15.7680
 1.5020	15.8750
 1.5030	15.9810
 1.5040	16.0870
 1.5050	16.1920
 1.5060	16.2980
 1.5070	16.4040
 1.5080	16.5090
 1.5090	16.6150
 1.5100	16.7200
 1.5110	16.8240
 1.5120	16.9290
 1.5130	17.0320
 1.5140	17.1340
 1.5150	17.2360
 1.5160	17.3380
 1.5170	17.4390
 1.5180	17.5400
 1.5190	17.6390
 1.5200	17.7390
 1.5210	17.8360
 1.5220	17.9330
 1.5230	18.0310
 1.5240	18.1270
 1.5250	18.2220
 1.5260	18.3180
 1.5270	18.4100
 1.5280	18.5040
 1.5290	18.5960
 1.5300	18.6880
 1.5310	18.7790
 1.5320	18.8690
 1.5330	18.9580
 1.5340	19.0450
 1.5350	19.1320
 1.5360	19.2190
 1.5370	19.3050
 1.5380	19.3900
 1.5390	19.4760
 1.5400	19.5610
 1.5410	19.6460
 1.5420	19.7280
 1.5430	19.8100
 1.5440	19.8900
 1.5450	19.9680
 1.5460	20.0470
 1.5470	20.1260
 1.5480	20.2030
 1.5490	20.2820
 1.5500	20.3600
 1.5510	20.4370
 1.5520	20.5130
 1.5530	20.5870
 1.5540	20.6610
 1.5550	20.7350
 1.5560	20.8060
 1.5570	20.8780
 1.5580	20.9490
 1.5590	21.0170
 1.5600	21.0880
 1.5610	21.1570
 1.5620	21.2260
 1.5630	21.2940
 1.5640	21.3610
 1.5650	21.4260
 1.5660	21.4900
 1.5670	21.5550
 1.5680	21.6190
 1.5690	21.6810
 1.5700	21.7450
 1.5710	21.8090
 1.5720	21.8710
 1.5730	21.9340
 1.5740	21.9960
 1.5750	22.0570
 1.5760	22.1190
 1.5770	22.1790
 1.5780	22.2380
 1.5790	22.2960
 1.5800	22.3540
 1.5810	22.4130
 1.5820	22.4710
 1.5830	22.5290
 1.5840	22.5880
 1.5850	22.6460
 1.5860	22.7030
 1.5870	22.7600
 1.5880	22.8160
 1.5890	22.8730
 1.5900	22.9290
 1.5910	22.9840
 1.5920	23.0380
 1.5930	23.0920
 1.5940	23.1460
 1.5950	23.2010
 1.5960	23.2530
 1.5970	23.3050
 1.5980	23.3550
 1.5990	23.4070
 1.6000	23.4590
 1.6010	23.5090
 1.6020	23.5590
 1.6030	23.6090
 1.6040	23.6570
 1.6050	23.7040
 1.6060	23.7510
 1.6070	23.7970
 1.6080	23.8420
 1.6090	23.8860
 1.6100	23.9300
 1.6110	23.9740
 1.6120	24.0170
 1.6130	24.0600
 1.6140	24.1020
 1.6150	24.1430
 1.6160	24.1830
 1.6170	24.2230
 1.6180	24.2630
 1.6190	24.3030
 1.6200	24.3400
 1.6210	24.3770
 1.6220	24.4120
 1.6230	24.4470
 1.6240	24.4830
 1.6250	24.5170
 1.6260	24.5500
 1.6270	24.5840
 1.6280	24.6160
 1.6290	24.6480
 1.6300	24.6790
 1.6310	24.7090
 1.6320	24.7400
 1.6330	24.7680
 1.6340	24.7960
 1.6350	24.8220
 1.6360	24.8460
 1.6370	24.8700
 1.6380	24.8930
 1.6390	24.9130
 1.6400	24.9310
 1.6410	24.9470
 1.6420	24.9610
 1.6430	24.9730
 1.6440	24.9840
 1.6450	24.9930
 1.6460	24.9980
 1.6470	25.0020
 1.6480	25.0030
 1.6490	25.0010
 1.6500	24.9970
 1.6510	24.9920
 1.6520	24.9870
 1.6530	24.9800
 1.6540	24.9720
 1.6550	24.9620
 1.6560	24.9510
 1.6570	24.9400
 1.6580	24.9290
 1.6590	24.9180
 1.6600	24.9090
 1.6610	24.8980
 1.6620	24.8870
 1.6630	24.8770
 1.6640	24.8680
 1.6650	24.8600
 1.6660	24.8540
 1.6670	24.8500
 1.6680	24.8440
 1.6690	24.8400
 1.6700	24.8340
 1.6710	24.8250
 1.6720	24.8160
 1.6730	24.8070
 1.6740	24.7970
 1.6750	24.7880
 1.6760	24.7770
 1.6770	24.7640
 1.6780	24.7520
 1.6790	24.7380
 1.6800	24.7210
 1.6810	24.7020
 1.6820	24.6800
 1.6830	24.6530
 1.6840	24.6260
 1.6850	24.5970
 1.6860	24.5660
 1.6870	24.5350
 1.6880	24.5010
 1.6890	24.4670
 1.6900	24.4340
 1.6910	24.4010
 1.6920	24.3680
 1.6930	24.3340
 1.6940	24.3000
 1.6950	24.2680
 1.6960	24.2340
 1.6970	24.2000
 1.6980	24.1660
 1.6990	24.1320
 1.7000	24.0980
 1.7010	24.0640
 1.7020	24.0290
 1.7030	23.9920
 1.7040	23.9550
 1.7050	23.9180
 1.7060	23.8790
 1.7070	23.8410
 1.7080	23.8020
 1.7090	23.7600
 1.7100	23.7200
 1.7110	23.6790
 1.7120	23.6380
 1.7130	23.5970
 1.7140	23.5550
 1.7150	23.5130
 1.7160	23.4710
 1.7170	23.4290
 1.7180	23.3870
 1.7190	23.3440
 1.7200	23.2990
 1.7210	23.2530
 1.7220	23.2060
 1.7230	23.1590
 1.7240	23.1110
 1.7250	23.0630
 1.7260	23.0140
 1.7270	22.9680
 1.7280	22.9220
 1.7290	22.8760
 1.7300	22.8310
 1.7310	22.7860
 1.7320	22.7420
 1.7330	22.6970
 1.7340	22.6520
 1.7350	22.6080
 1.7360	22.5640
 1.7370	22.5190
 1.7380	22.4730
 1.7390	22.4280
 1.7400	22.3820
 1.7410	22.3340
 1.7420	22.2860
 1.7430	22.2370
 1.7440	22.1830
 1.7450	22.1310
 1.7460	22.0780
 1.7470	22.0250
 1.7480	21.9720
 1.7490	21.9210
 1.7500	21.8720
 1.7510	21.8210
 1.7520	21.7700
 1.7530	21.7180
 1.7540	21.6640
 1.7550	21.6120
 1.7560	21.5610
 1.7570	21.5100
 1.7580	21.4600
 1.7590	21.4120
 1.7600	21.3660
 1.7610	21.3200
 1.7620	21.2750
 1.7630	21.2270
 1.7640	21.1830
 1.7650	21.1430
 1.7660	21.1010
 1.7670	21.0620
 1.7680	21.0220
 1.7690	20.9800
 1.7700	20.9400
 1.7710	20.9030
 1.7720	20.8660
 1.7730	20.8300
 1.7740	20.7960
 1.7750	20.7640
 1.7760	20.7310
 1.7770	20.6990
 1.7780	20.6690
 1.7790	20.6390
 1.7800	20.6120
 1.7810	20.5870
 1.7820	20.5640
 1.7830	20.5420
 1.7840	20.5220
 1.7850	20.5030
 1.7860	20.4870
 1.7870	20.4720
 1.7880	20.4600
 1.7890	20.4500
 1.7900	20.4380
 1.7910	20.4270
 1.7920	20.4140
 1.7930	20.4050
 1.7940	20.4020
 1.7950	20.3960
 1.7960	20.3920
 1.7970	20.3880
 1.7980	20.3830
 1.7990	20.3810
 1.8000	20.3810
 1.8010	20.3820
 1.8020	20.3830
 1.8030	20.3850
 1.8040	20.3870
 1.8050	20.3870
 1.8060	20.3840
 1.8070	20.3840
 1.8080	20.3810
 1.8090	20.3810
 1.8100	20.3850
 1.8110	20.3850
 1.8120	20.3830
 1.8130	20.3790
 1.8140	20.3760
 1.8150	20.3730
 1.8160	20.3700
 1.8170	20.3660
 1.8180	20.3620
 1.8190	20.3580
 1.8200	20.3510
 1.8210	20.3420
 1.8220	20.3330
 1.8230	20.3200
 1.8240	20.3090
 1.8250	20.3020
 1.8260	20.2910
 1.8270	20.2100
 1.8280	20.1280
 1.8290	20.0470
 1.8300	19.9660
 1.8310	19.8840
 1.8320	19.8030
 1.8330	19.7220
 1.8340	19.6400
 1.8350	19.6400
 1.8360	19.6040
 1.8370	19.5640
 1.8380	19.5190
 1.8390	19.4700
 1.8400	19.4150
 1.8410	19.3550
 1.8420	19.2910
 1.8430	19.2230
 1.8440	19.1500
 1.8450	19.0710
 1.8460	18.9840
 1.8470	18.8910
 1.8480	18.7900
 1.8490	18.6800
 1.8500	18.5620
 1.8510	18.4400
 1.8520	18.3070
 1.8530	18.1610
 1.8540	18.0080
 1.8550	17.8420
 1.8560	17.6650
 1.8570	17.4790
 1.8580	17.2800
 1.8590	17.0700
 1.8600	16.8480
 1.8610	16.6150
 1.8620	16.3700
 1.8630	16.1150
 1.8640	15.8480
 1.8650	15.5650
 1.8660	15.2690
 1.8670	14.9580
 1.8680	14.6340
 1.8690	14.2970
 1.8700	13.9490
 1.8710	13.5870
 1.8720	13.2200
 1.8730	12.8460
 1.8740	12.4670
 1.8750	12.0870
 1.8760	11.7010
 1.8770	11.3160
 1.8780	10.9360
 1.8790	10.5570
 1.8800	10.1880
 1.8810	 9.8270
 1.8820	 9.4700
 1.8830	 9.1200
 1.8840	 8.7830
 1.8850	 8.4560
 1.8860	 8.1430
 1.8870	 7.8460
 1.8880	 7.5610
 1.8890	 7.2940
 1.8900	 7.0440
 1.8910	 6.8100
 1.8920	 6.5910
 1.8930	 6.3920
 1.8940	 6.2070
 1.8950	 6.0370
 1.8960	 5.8850
 1.8970	 5.7460
 1.8980	 5.6270
 1.8990	 5.5210
 1.9000	 5.4230
 1.9010	 5.3400
 1.9020	 5.2630
 1.9030	 5.1940
 1.9040	 5.1350
 1.9050	 5.0840
 1.9060	 5.0390
 1.9070	 5.0010
 1.9080	 4.9680
 1.9090	 4.9400
 1.9100	 4.9150
 1.9110	 4.8930
 1.9120	 4.8760
 1.9130	 4.8610
 1.9140	 4.8480
 1.9150	 4.8380
 1.9160	 4.8300
 1.9170	 4.8220
 1.9180	 4.8150
 1.9190	 4.8100
 1.9200	 4.8060
 1.9210	 4.8020
 1.9220	 4.8000
 1.9230	 4.8010
 1.9240	 4.8010
 1.9250	 4.8020
 1.9260	 4.8030
 1.9270	 4.8070
 1.9280	 4.8090
 1.9290	 4.8110
 1.9300	 4.8160
 1.9310	 4.8180
 1.9320	 4.8230
 1.9330	 4.8280
 1.9340	 4.8350
 1.9350	 4.8420
 1.9360	 4.8500
 1.9370	 4.8590
 1.9380	 4.8680
 1.9390	 4.8790
 1.9400	 4.8870
 1.9410	 4.8980
 1.9420	 4.9080
 1.9430	 4.9170
 1.9440	 4.9280
 1.9450	 4.9420
 1.9460	 4.9530
 1.9470	 4.9640
 1.9480	 4.9770
 1.9490	 4.9890
 1.9500	 5.0030
 1.9510	 5.0200
 1.9520	 5.0370
 1.9530	 5.0520
 1.9540	 5.0680
 1.9550	 5.0840
 1.9560	 5.1000
 1.9570	 5.1180
 1.9580	 5.1390
 1.9590	 5.1580
 1.9600	 5.1770
 1.9610	 5.1980
 1.9620	 5.2190
 1.9630	 5.2390
 1.9640	 5.2620
 1.9650	 5.2850
 1.9660	 5.3060
 1.9670	 5.3280
 1.9680	 5.3500
 1.9690	 5.3710
 1.9700	 5.3960
 1.9710	 5.4220
 1.9720	 5.4500
 1.9730	 5.4790
 1.9740	 5.5080
 1.9750	 5.5370
 1.9760	 5.5650
 1.9770	 5.5930
 1.9780	 5.6230
 1.9790	 5.6540
 1.9800	 5.6850
 1.9810	 5.7180
 1.9820	 5.7520
 1.9830	 5.7860
 1.9840	 5.8190
 1.9850	 5.8530
 1.9860	 5.8850
 1.9870	 5.9200
 1.9880	 5.9590
 1.9890	 5.9960
 1.9900	 6.0330
 1.9910	 6.0690
 1.9920	 6.1060
 1.9930	 6.1400
 1.9940	 6.1780
 1.9950	 6.2160
 1.9960	 6.2560
 1.9970	 6.2970
 1.9980	 6.3370
 1.9990	 6.3780
 2.0000	 6.4170
 2.0010	 6.4550
 2.0020	 6.4970
 2.0030	 6.5400
 2.0040	 6.5820
 2.0050	 6.6250
 2.0060	 6.6670
 2.0070	 6.7080
 2.0080	 6.7500
 2.0090	 6.7920
 2.0100	 6.8340
 2.0110	 6.8750
 2.0120	 6.9150
 2.0130	 6.9550
 2.0140	 6.9920
 2.0150	 7.0300
 2.0160	 7.0710
 2.0170	 7.1110
 2.0180	 7.1510
 2.0190	 7.1930
 2.0200	 7.2330
 2.0210	 7.2700
 2.0220	 7.3080
 2.0230	 7.3450
 2.0240	 7.3810
 2.0250	 7.4180
 2.0260	 7.4530
 2.0270	 7.4880
 2.0280	 7.5220
 2.0290	 7.5540
 2.0300	 7.5860
 2.0310	 7.6170
 2.0320	 7.6470
 2.0330	 7.6800
 2.0340	 7.7170
 2.0350	 7.7500
 2.0360	 7.7850
 2.0370	 7.8160
 2.0380	 7.8420
 2.0390	 7.8700
 2.0400	 7.8970
 2.0410	 7.9240
 2.0420	 7.9500
 2.0430	 7.9750
 2.0440	 8.0010
 2.0450	 8.0260
 2.0460	 8.0520
 2.0470	 8.0790
 2.0480	 8.1050
 2.0490	 8.1310
 2.0500	 8.1560
 2.0510	 8.1790
 2.0520	 8.2040
 2.0530	 8.2300
 2.0540	 8.2540
 2.0550	 8.2790
 2.0560	 8.3060
 2.0570	 8.3280
 2.0580	 8.3480
 2.0590	 8.3720
 2.0600	 8.3950
 2.0610	 8.4190
 2.0620	 8.4470
 2.0630	 8.4720
 2.0640	 8.4960
 2.0650	 8.5210
 2.0660	 8.5460
 2.0670	 8.5730
 2.0680	 8.6010
 2.0690	 8.6280
 2.0700	 8.6560
 2.0710	 8.6810
 2.0720	 8.7030
 2.0730	 8.7270
 2.0740	 8.7490
 2.0750	 8.7670
 2.0760	 8.7900
 2.0770	 8.8140
 2.0780	 8.8400
 2.0790	 8.8700
 2.0800	 8.8940
 2.0810	 8.9150
 2.0820	 8.9390
 2.0830	 8.9620
 2.0840	 8.9850
 2.0850	 9.0090
 2.0860	 9.0320
 2.0870	 9.0560
 2.0880	 9.0780
 2.0890	 9.0990
 2.0900	 9.1190
 2.0910	 9.1420
 2.0920	 9.1640
 2.0930	 9.1870
 2.0940	 9.2130
 2.0950	 9.2360
 2.0960	 9.2580
 2.0970	 9.2790
 2.0980	 9.2990
 2.0990	 9.3200
 2.1000	 9.3400
 2.1010	 9.3610
 2.1020	 9.3850
 2.1030	 9.4060
 2.1040	 9.4260
 2.1050	 9.4450
 2.1060	 9.4640
 2.1070	 9.4800
 2.1080	 9.5000
 2.1090	 9.5210
 2.1100	 9.5410
 2.1110	 9.5630
 2.1120	 9.5840
 2.1130	 9.6030
 2.1140	 9.6230
 2.1150	 9.6430
 2.1160	 9.6630
 2.1170	 9.6860
 2.1180	 9.7060
 2.1190	 9.7260
 2.1200	 9.7440
 2.1210	 9.7610
 2.1220	 9.7750
 2.1230	 9.7920
 2.1240	 9.8090
 2.1250	 9.8270
 2.1260	 9.8470
 2.1270	 9.8640
 2.1280	 9.8790
 2.1290	 9.8970
 2.1300	 9.9160
 2.1310	 9.9320
 2.1320	 9.9480
 2.1330	 9.9640
 2.1340	 9.9760
 2.1350	 9.9910
 2.1360	10.0090
 2.1370	10.0240
 2.1380	10.0390
 2.1390	10.0540
 2.1400	10.0640
 2.1410	10.0790
 2.1420	10.0940
 2.1430	10.1090
 2.1440	10.1270
 2.1450	10.1480
 2.1460	10.1670
 2.1470	10.1860
 2.1480	10.2050
 2.1490	10.2220
 2.1500	10.2400
 2.1510	10.2600
 2.1520	10.2800
 2.1530	10.3000
 2.1540	10.3200
 2.1550	10.3400
 2.1560	10.3600
 2.1570	10.3800
 2.1580	10.3990
 2.1590	10.4180
 2.1600	10.4360
 2.1610	10.4520
 2.1620	10.4700
 2.1630	10.4860
 2.1640	10.5010
 2.1650	10.5180
 2.1660	10.5340
 2.1670	10.5520
 2.1680	10.5750
 2.1690	10.5940
 2.1700	10.6150
 2.1710	10.6320
 2.1720	10.6430
 2.1730	10.6580
 2.1740	10.6720
 2.1750	10.6900
 2.1760	10.7120
 2.1770	10.7320
 2.1780	10.7510
 2.1790	10.7710
 2.1800	10.7900
 2.1810	10.8080
 2.1820	10.8260
 2.1830	10.8430
 2.1840	10.8620
 2.1850	10.8800
 2.1860	10.9000
 2.1870	10.9240
 2.1880	10.9440
 2.1890	10.9630
 2.1900	10.9820
 2.1910	10.9990
 2.1920	11.0170
 2.1930	11.0330
 2.1940	11.0530
 2.1950	11.0780
 2.1960	11.0990
 2.1970	11.1220
 2.1980	11.1420
 2.1990	11.1560
 2.2000	11.1730
 2.2010	11.1910
 2.2020	11.2090
 2.2030	11.2270
 2.2040	11.2450
 2.2050	11.2640
 2.2060	11.2810
 2.2070	11.2960
 2.2080	11.3110
 2.2090	11.3240
 2.2100	11.3350
 2.2110	11.3460
 2.2120	11.3570
 2.2130	11.3680
 2.2140	11.3790
 2.2150	11.3890
 2.2160	11.4000
 2.2170	11.4100
 2.2180	11.4190
 2.2190	11.4280
 2.2200	11.4380
 2.2210	11.4440
 2.2220	11.4500
 2.2230	11.4510
 2.2240	11.4470
 2.2250	11.4430
 2.2260	11.4360
 2.2270	11.4290
 2.2280	11.4210
 2.2290	11.4130
 2.2300	11.4060
 2.2310	11.3950
 2.2320	11.3870
 2.2330	11.3720
 2.2340	11.3550
 2.2350	11.3360
 2.2360	11.3150
 2.2370	11.2890
 2.2380	11.2630
 2.2390	11.2360
 2.2400	11.2050
 2.2410	11.1700
 2.2420	11.1350
 2.2430	11.0960
 2.2440	11.0590
 2.2450	11.0230
 2.2460	10.9830
 2.2470	10.9400
 2.2480	10.8980
 2.2490	10.8520
 2.2500	10.8080
 2.2510	10.7630
 2.2520	10.7200
 2.2530	10.6800
 2.2540	10.6370
 2.2550	10.5970
 2.2560	10.5530
 2.2570	10.5050
 2.2580	10.4580
 2.2590	10.4030
 2.2600	10.3560
 2.2610	10.3120
 2.2620	10.2700
 2.2630	10.2330
 2.2640	10.2000
 2.2650	10.1620
 2.2660	10.1200
 2.2670	10.0810
 2.2680	10.0400
 2.2690	10.0060
 2.2700	 9.9750
 2.2710	 9.9430
 2.2720	 9.9140
 2.2730	 9.8820
 2.2740	 9.8460
 2.2750	 9.8160
 2.2760	 9.7880
 2.2770	 9.7600
 2.2780	 9.7350
 2.2790	 9.7070
 2.2800	 9.6760
 2.2810	 9.6470
 2.2820	 9.6160
 2.2830	 9.5890
 2.2840	 9.5650
 2.2850	 9.5380
 2.2860	 9.5090
 2.2870	 9.4810
 2.2880	 9.4500
 2.2890	 9.4220
 2.2900	 9.3980
 2.2910	 9.3730
 2.2920	 9.3480
 2.2930	 9.3210
 2.2940	 9.2930
 2.2950	 9.2660
 2.2960	 9.2410
 2.2970	 9.2130
 2.2980	 9.1870
 2.2990	 9.1530
 2.3000	 9.1200
 2.3010	 9.0850
 2.3020	 9.0580
 2.3030	 9.0340
 2.3040	 9.0060
 2.3050	 8.9810
 2.3060	 8.9480
 2.3070	 8.9180
 2.3080	 8.8950
 2.3090	 8.8720
 2.3100	 8.8510
 2.3110	 8.8300
 2.3120	 8.8090
 2.3130	 8.7870
 2.3140	 8.7690
 2.3150	 8.7540
 2.3160	 8.7390
 2.3170	 8.7300
 2.3180	 8.7140
 2.3190	 8.6970
 2.3200	 8.6750
 2.3210	 8.6450
 2.3220	 8.6220
 2.3230	 8.6010
 2.3240	 8.5770
 2.3250	 8.5520
 2.3260	 8.5300
 2.3270	 8.5040
 2.3280	 8.4820
 2.3290	 8.4680
 2.3300	 8.4470
 2.3310	 8.4220
 2.3320	 8.3980
 2.3330	 8.3750
 2.3340	 8.3500
 2.3350	 8.3220
 2.3360	 8.2950
 2.3370	 8.2660
 2.3380	 8.2400
 2.3390	 8.2160
 2.3400	 8.1920
 2.3410	 8.1700
 2.3420	 8.1450
 2.3430	 8.1200
 2.3440	 8.0930
 2.3450	 8.0620
 2.3460	 8.0360
 2.3470	 8.0080
 2.3480	 7.9850
 2.3490	 7.9670
 2.3500	 7.9480
 2.3510	 7.9370
 2.3520	 7.9180
 2.3530	 7.8910
 2.3540	 7.8710
 2.3550	 7.8450
 2.3560	 7.8180
 2.3570	 7.7950
 2.3580	 7.7700
 2.3590	 7.7480
 2.3600	 7.7270
 2.3610	 7.7090
 2.3620	 7.6930
 2.3630	 7.6790
 2.3640	 7.6560
 2.3650	 7.6300
 2.3660	 7.6070
 2.3670	 7.5810
 2.3680	 7.5560
 2.3690	 7.5400
 2.3700	 7.5240
 2.3710	 7.4980
 2.3720	 7.4760
 2.3730	 7.4540
 2.3740	 7.4210
 2.3750	 7.4010
 2.3760	 7.3870
 2.3770	 7.3650
 2.3780	 7.3410
 2.3790	 7.3100
 2.3800	 7.2720
 2.3810	 7.2350
 2.3820	 7.2110
 2.3830	 7.1920
 2.3840	 7.1730
 2.3850	 7.1530
 2.3860	 7.1330
 2.3870	 7.1190
 2.3880	 7.0990
 2.3890	 7.0710
 2.3900	 7.0400
 2.3910	 6.9980
 2.3920	 6.9590
 2.3930	 6.9300
 2.3940	 6.9070
 2.3950	 6.8920
 2.3960	 6.8710
 2.3970	 6.8460
 2.3980	 6.8240
 2.3990	 6.8040
 2.4000	 6.7880
 2.4010	 6.7730
 2.4020	 6.7510
 2.4030	 6.7200
 2.4040	 6.7020
 2.4050	 6.6870
 2.4060	 6.6700
 2.4070	 6.6450
 2.4080	 6.6040
 2.4090	 6.5660
 2.4100	 6.5370
 2.4110	 6.5110
 2.4120	 6.4860
 2.4130	 6.4570
 2.4140	 6.4250
 2.4150	 6.3960
 2.4160	 6.3720
 2.4170	 6.3500
 2.4180	 6.3290
 2.4190	 6.3070
 2.4200	 6.2820
 2.4210	 6.2580
 2.4220	 6.2340
 2.4230	 6.2060
 2.4240	 6.1760
 2.4250	 6.1410
 2.4260	 6.1110
 2.4270	 6.0840
 2.4280	 6.0600
 2.4290	 6.0560
 2.4300	 6.0350
 2.4310	 6.0150
 2.4320	 6.0040
 2.4330	 5.9590
 2.4340	 5.9230
 2.4350	 5.9030
 2.4360	 5.8760
 2.4370	 5.8620
 2.4380	 5.8630
 2.4390	 5.8500
 2.4400	 5.8250
 2.4410	 5.8190
 2.4420	 5.8020
 2.4430	 5.7690
 2.4440	 5.7520
 2.4450	 5.7290
 2.4460	 5.7030
 2.4470	 5.6920
 2.4480	 5.6720
 2.4490	 5.6490
 2.4500	 5.6370
 2.4510	 5.6130
 2.4520	 5.6000
 2.4530	 5.5920
 2.4540	 5.5690
 2.4550	 5.5610
 2.4560	 5.5640
 2.4570	 5.5590
 2.4580	 5.5470
 2.4590	 5.5230
 2.4600	 5.4910
 2.4610	 5.4700
 2.4620	 5.4540
 2.4630	 5.4400
 2.4640	 5.4240
 2.4650	 5.3930
 2.4660	 5.3810
 2.4670	 5.3860
 2.4680	 5.3770
 2.4690	 5.3900
 2.4700	 5.3820
 2.4710	 5.3500
 2.4720	 5.3370
 2.4730	 5.3280
 2.4740	 5.3110
 2.4750	 5.3030
 2.4760	 5.2870
 2.4770	 5.2470
 2.4780	 5.2270
 2.4790	 5.2120
 2.4800	 5.2120
 2.4810	 5.2440
 2.4820	 5.2350
 2.4830	 5.2200
 2.4840	 5.1780
 2.4850	 5.1580
 2.4860	 5.1730
 2.4870	 5.1900
 2.4880	 5.2140
 2.4890	 5.2240
 2.4900	 5.2280
 2.4910	 5.2100
 2.4920	 5.1930
 2.4930	 5.1890
 2.4940	 5.1780
 2.4950	 5.1710
 2.4960	 5.1880
 2.4970	 5.2010
 2.4980	 5.1820
 2.4990	 5.1940
 2.5000	 5.1380
