Name: Eucalyptus rudis
Type: vegetation
Class: Tree
Genus: Eucalyptus
Species: rudis
Sample No.: JPL148
Owner: JPL
Wavelength Range: VSWIR
Origin: 34.12445; -118.11324; WGS84
Collection Date: 9/14/2016
Description: Samples were collected at the Huntington Garden in San Marino California as part of a JPL Subcontract studying HyTES imagery. Samples were taken to JPL and processed within 48 hours of collection. The same leaves were processed in the Nicolet and then measured using the ASD.
Measurement: Bidirectional reflectance
First Column: X
Second Column: Y
X Units: Wavelength (micrometer)
Y Units: Reflectance (percentage)
First X Value: 0.35
Last X Value: 2.5
Number of X Values: 2151
Additional Information: vegetation.tree.eucalyptus.rudis.vswir.jpl148.jpl.asd.ancillary.txt

 0.3500	 5.1520
 0.3510	 5.1100
 0.3520	 5.0570
 0.3530	 5.0760
 0.3540	 5.1730
 0.3550	 5.0930
 0.3560	 5.0350
 0.3570	 5.0340
 0.3580	 5.0350
 0.3590	 4.9950
 0.3600	 4.9560
 0.3610	 4.9330
 0.3620	 4.8860
 0.3630	 4.8930
 0.3640	 4.9040
 0.3650	 4.8750
 0.3660	 4.9060
 0.3670	 4.9170
 0.3680	 4.9110
 0.3690	 4.9370
 0.3700	 4.8630
 0.3710	 4.8510
 0.3720	 4.9470
 0.3730	 4.9160
 0.3740	 4.8430
 0.3750	 4.8240
 0.3760	 4.9080
 0.3770	 4.9350
 0.3780	 4.9100
 0.3790	 4.8700
 0.3800	 4.8760
 0.3810	 4.9410
 0.3820	 4.9650
 0.3830	 4.9090
 0.3840	 4.9050
 0.3850	 4.9300
 0.3860	 4.9470
 0.3870	 4.9270
 0.3880	 4.9210
 0.3890	 4.9370
 0.3900	 4.9620
 0.3910	 4.9660
 0.3920	 4.9690
 0.3930	 5.0040
 0.3940	 5.0700
 0.3950	 5.0840
 0.3960	 5.1070
 0.3970	 5.1370
 0.3980	 5.1470
 0.3990	 5.2020
 0.4000	 5.2220
 0.4010	 5.2030
 0.4020	 5.2580
 0.4030	 5.3020
 0.4040	 5.3250
 0.4050	 5.3460
 0.4060	 5.4050
 0.4070	 5.4510
 0.4080	 5.4770
 0.4090	 5.5080
 0.4100	 5.5380
 0.4110	 5.5670
 0.4120	 5.6000
 0.4130	 5.6420
 0.4140	 5.6880
 0.4150	 5.7360
 0.4160	 5.7780
 0.4170	 5.8100
 0.4180	 5.8510
 0.4190	 5.8990
 0.4200	 5.9300
 0.4210	 5.9590
 0.4220	 5.9850
 0.4230	 6.0080
 0.4240	 6.0340
 0.4250	 6.0640
 0.4260	 6.0970
 0.4270	 6.1250
 0.4280	 6.1440
 0.4290	 6.1600
 0.4300	 6.1750
 0.4310	 6.1800
 0.4320	 6.2050
 0.4330	 6.2310
 0.4340	 6.2350
 0.4350	 6.2460
 0.4360	 6.2560
 0.4370	 6.2650
 0.4380	 6.2760
 0.4390	 6.2890
 0.4400	 6.3010
 0.4410	 6.3090
 0.4420	 6.3170
 0.4430	 6.3210
 0.4440	 6.3310
 0.4450	 6.3530
 0.4460	 6.3700
 0.4470	 6.3820
 0.4480	 6.3920
 0.4490	 6.4030
 0.4500	 6.4180
 0.4510	 6.4310
 0.4520	 6.4390
 0.4530	 6.4460
 0.4540	 6.4610
 0.4550	 6.4770
 0.4560	 6.4860
 0.4570	 6.4870
 0.4580	 6.4820
 0.4590	 6.4790
 0.4600	 6.4890
 0.4610	 6.4920
 0.4620	 6.4890
 0.4630	 6.4850
 0.4640	 6.4850
 0.4650	 6.4870
 0.4660	 6.4880
 0.4670	 6.4860
 0.4680	 6.4860
 0.4690	 6.4850
 0.4700	 6.4790
 0.4710	 6.4680
 0.4720	 6.4650
 0.4730	 6.4660
 0.4740	 6.4610
 0.4750	 6.4610
 0.4760	 6.4670
 0.4770	 6.4710
 0.4780	 6.4570
 0.4790	 6.4550
 0.4800	 6.4630
 0.4810	 6.4670
 0.4820	 6.4690
 0.4830	 6.4670
 0.4840	 6.4640
 0.4850	 6.4660
 0.4860	 6.4710
 0.4870	 6.4790
 0.4880	 6.4890
 0.4890	 6.4960
 0.4900	 6.5070
 0.4910	 6.5200
 0.4920	 6.5370
 0.4930	 6.5490
 0.4940	 6.5640
 0.4950	 6.5840
 0.4960	 6.6040
 0.4970	 6.6290
 0.4980	 6.6610
 0.4990	 6.6980
 0.5000	 6.7360
 0.5010	 6.7800
 0.5020	 6.8300
 0.5030	 6.8810
 0.5040	 6.9450
 0.5050	 7.0140
 0.5060	 7.0830
 0.5070	 7.1650
 0.5080	 7.2560
 0.5090	 7.3530
 0.5100	 7.4540
 0.5110	 7.5580
 0.5120	 7.6740
 0.5130	 7.8060
 0.5140	 7.9530
 0.5150	 8.1090
 0.5160	 8.2690
 0.5170	 8.4340
 0.5180	 8.6030
 0.5190	 8.7880
 0.5200	 8.9840
 0.5210	 9.1790
 0.5220	 9.3740
 0.5230	 9.5680
 0.5240	 9.7570
 0.5250	 9.9450
 0.5260	10.1300
 0.5270	10.3080
 0.5280	10.4710
 0.5290	10.6250
 0.5300	10.7690
 0.5310	10.9020
 0.5320	11.0230
 0.5330	11.1320
 0.5340	11.2310
 0.5350	11.3230
 0.5360	11.4040
 0.5370	11.4750
 0.5380	11.5360
 0.5390	11.5880
 0.5400	11.6460
 0.5410	11.7070
 0.5420	11.7630
 0.5430	11.8120
 0.5440	11.8480
 0.5450	11.8740
 0.5460	11.8950
 0.5470	11.9090
 0.5480	11.9210
 0.5490	11.9350
 0.5500	11.9550
 0.5510	11.9660
 0.5520	11.9660
 0.5530	11.9550
 0.5540	11.9320
 0.5550	11.8960
 0.5560	11.8480
 0.5570	11.7880
 0.5580	11.7140
 0.5590	11.6340
 0.5600	11.5490
 0.5610	11.4570
 0.5620	11.3610
 0.5630	11.2610
 0.5640	11.1540
 0.5650	11.0410
 0.5660	10.9250
 0.5670	10.8090
 0.5680	10.6840
 0.5690	10.5600
 0.5700	10.4330
 0.5710	10.3030
 0.5720	10.1840
 0.5730	10.0700
 0.5740	 9.9580
 0.5750	 9.8500
 0.5760	 9.7460
 0.5770	 9.6490
 0.5780	 9.5590
 0.5790	 9.4800
 0.5800	 9.4040
 0.5810	 9.3320
 0.5820	 9.2670
 0.5830	 9.2050
 0.5840	 9.1440
 0.5850	 9.0860
 0.5860	 9.0330
 0.5870	 8.9870
 0.5880	 8.9420
 0.5890	 8.8970
 0.5900	 8.8540
 0.5910	 8.8150
 0.5920	 8.7800
 0.5930	 8.7520
 0.5940	 8.7260
 0.5950	 8.7030
 0.5960	 8.6820
 0.5970	 8.6600
 0.5980	 8.6370
 0.5990	 8.6130
 0.6000	 8.5890
 0.6010	 8.5580
 0.6020	 8.5240
 0.6030	 8.4880
 0.6040	 8.4480
 0.6050	 8.4020
 0.6060	 8.3510
 0.6070	 8.2950
 0.6080	 8.2360
 0.6090	 8.1800
 0.6100	 8.1270
 0.6110	 8.0740
 0.6120	 8.0120
 0.6130	 7.9420
 0.6140	 7.8710
 0.6150	 7.8080
 0.6160	 7.7480
 0.6170	 7.6910
 0.6180	 7.6380
 0.6190	 7.5930
 0.6200	 7.5530
 0.6210	 7.5160
 0.6220	 7.4830
 0.6230	 7.4550
 0.6240	 7.4300
 0.6250	 7.4070
 0.6260	 7.3890
 0.6270	 7.3720
 0.6280	 7.3590
 0.6290	 7.3490
 0.6300	 7.3410
 0.6310	 7.3340
 0.6320	 7.3230
 0.6330	 7.3050
 0.6340	 7.2830
 0.6350	 7.2560
 0.6360	 7.2240
 0.6370	 7.1880
 0.6380	 7.1450
 0.6390	 7.0940
 0.6400	 7.0400
 0.6410	 6.9840
 0.6420	 6.9260
 0.6430	 6.8680
 0.6440	 6.8070
 0.6450	 6.7470
 0.6460	 6.6890
 0.6470	 6.6340
 0.6480	 6.5830
 0.6490	 6.5390
 0.6500	 6.5010
 0.6510	 6.4680
 0.6520	 6.4380
 0.6530	 6.4090
 0.6540	 6.3820
 0.6550	 6.3530
 0.6560	 6.3190
 0.6570	 6.2800
 0.6580	 6.2400
 0.6590	 6.1970
 0.6600	 6.1520
 0.6610	 6.1060
 0.6620	 6.0620
 0.6630	 6.0190
 0.6640	 5.9780
 0.6650	 5.9430
 0.6660	 5.9130
 0.6670	 5.8880
 0.6680	 5.8710
 0.6690	 5.8610
 0.6700	 5.8570
 0.6710	 5.8570
 0.6720	 5.8610
 0.6730	 5.8710
 0.6740	 5.8880
 0.6750	 5.9080
 0.6760	 5.9320
 0.6770	 5.9650
 0.6780	 6.0010
 0.6790	 6.0400
 0.6800	 6.0870
 0.6810	 6.1420
 0.6820	 6.2050
 0.6830	 6.2750
 0.6840	 6.3520
 0.6850	 6.4390
 0.6860	 6.5410
 0.6870	 6.6580
 0.6880	 6.7950
 0.6890	 6.9590
 0.6900	 7.1600
 0.6910	 7.4040
 0.6920	 7.6980
 0.6930	 8.0420
 0.6940	 8.4370
 0.6950	 8.8900
 0.6960	 9.3980
 0.6970	 9.9600
 0.6980	10.5700
 0.6990	11.2230
 0.7000	11.9130
 0.7010	12.6340
 0.7020	13.3790
 0.7030	14.1440
 0.7040	14.9250
 0.7050	15.7160
 0.7060	16.5100
 0.7070	17.3110
 0.7080	18.1140
 0.7090	18.9180
 0.7100	19.7250
 0.7110	20.5350
 0.7120	21.3460
 0.7130	22.1550
 0.7140	22.9590
 0.7150	23.7590
 0.7160	24.5530
 0.7170	25.3400
 0.7180	26.1170
 0.7190	26.8810
 0.7200	27.6290
 0.7210	28.3610
 0.7220	29.0720
 0.7230	29.7600
 0.7240	30.4270
 0.7250	31.0640
 0.7260	31.6760
 0.7270	32.2640
 0.7280	32.8200
 0.7290	33.3480
 0.7300	33.8490
 0.7310	34.3220
 0.7320	34.7670
 0.7330	35.1850
 0.7340	35.5780
 0.7350	35.9430
 0.7360	36.2820
 0.7370	36.5950
 0.7380	36.8850
 0.7390	37.1560
 0.7400	37.4050
 0.7410	37.6340
 0.7420	37.8430
 0.7430	38.0310
 0.7440	38.2010
 0.7450	38.3550
 0.7460	38.4950
 0.7470	38.6190
 0.7480	38.7280
 0.7490	38.8240
 0.7500	38.9100
 0.7510	38.9850
 0.7520	39.0520
 0.7530	39.1130
 0.7540	39.1650
 0.7550	39.2110
 0.7560	39.2530
 0.7570	39.2880
 0.7580	39.3180
 0.7590	39.3460
 0.7600	39.3740
 0.7610	39.3930
 0.7620	39.4100
 0.7630	39.4240
 0.7640	39.4340
 0.7650	39.4420
 0.7660	39.4490
 0.7670	39.4530
 0.7680	39.4560
 0.7690	39.4570
 0.7700	39.4590
 0.7710	39.4610
 0.7720	39.4590
 0.7730	39.4590
 0.7740	39.4600
 0.7750	39.4630
 0.7760	39.4630
 0.7770	39.4610
 0.7780	39.4580
 0.7790	39.4560
 0.7800	39.4560
 0.7810	39.4570
 0.7820	39.4590
 0.7830	39.4590
 0.7840	39.4570
 0.7850	39.4550
 0.7860	39.4530
 0.7870	39.4540
 0.7880	39.4530
 0.7890	39.4500
 0.7900	39.4470
 0.7910	39.4470
 0.7920	39.4450
 0.7930	39.4400
 0.7940	39.4340
 0.7950	39.4290
 0.7960	39.4250
 0.7970	39.4210
 0.7980	39.4150
 0.7990	39.4090
 0.8000	39.4030
 0.8010	39.3970
 0.8020	39.3890
 0.8030	39.3820
 0.8040	39.3750
 0.8050	39.3660
 0.8060	39.3590
 0.8070	39.3490
 0.8080	39.3370
 0.8090	39.3290
 0.8100	39.3190
 0.8110	39.3110
 0.8120	39.3050
 0.8130	39.2950
 0.8140	39.2830
 0.8150	39.2710
 0.8160	39.2610
 0.8170	39.2490
 0.8180	39.2370
 0.8190	39.2240
 0.8200	39.2130
 0.8210	39.2040
 0.8220	39.1920
 0.8230	39.1790
 0.8240	39.1690
 0.8250	39.1600
 0.8260	39.1490
 0.8270	39.1370
 0.8280	39.1260
 0.8290	39.1140
 0.8300	39.1010
 0.8310	39.0880
 0.8320	39.0770
 0.8330	39.0670
 0.8340	39.0570
 0.8350	39.0480
 0.8360	39.0360
 0.8370	39.0280
 0.8380	39.0230
 0.8390	39.0140
 0.8400	39.0050
 0.8410	38.9980
 0.8420	38.9910
 0.8430	38.9830
 0.8440	38.9780
 0.8450	38.9730
 0.8460	38.9670
 0.8470	38.9590
 0.8480	38.9540
 0.8490	38.9490
 0.8500	38.9450
 0.8510	38.9400
 0.8520	38.9360
 0.8530	38.9340
 0.8540	38.9280
 0.8550	38.9200
 0.8560	38.9180
 0.8570	38.9210
 0.8580	38.9220
 0.8590	38.9210
 0.8600	38.9180
 0.8610	38.9160
 0.8620	38.9200
 0.8630	38.9190
 0.8640	38.9160
 0.8650	38.9130
 0.8660	38.9150
 0.8670	38.9160
 0.8680	38.9150
 0.8690	38.9130
 0.8700	38.9170
 0.8710	38.9200
 0.8720	38.9210
 0.8730	38.9220
 0.8740	38.9240
 0.8750	38.9280
 0.8760	38.9330
 0.8770	38.9340
 0.8780	38.9350
 0.8790	38.9380
 0.8800	38.9420
 0.8810	38.9430
 0.8820	38.9440
 0.8830	38.9470
 0.8840	38.9550
 0.8850	38.9580
 0.8860	38.9610
 0.8870	38.9640
 0.8880	38.9660
 0.8890	38.9670
 0.8900	38.9710
 0.8910	38.9750
 0.8920	38.9740
 0.8930	38.9840
 0.8940	38.9920
 0.8950	38.9950
 0.8960	38.9940
 0.8970	38.9970
 0.8980	38.9970
 0.8990	38.9940
 0.9000	38.9910
 0.9010	38.9940
 0.9020	39.0000
 0.9030	39.0070
 0.9040	39.0080
 0.9050	39.0090
 0.9060	39.0110
 0.9070	39.0120
 0.9080	39.0130
 0.9090	39.0150
 0.9100	39.0160
 0.9110	39.0130
 0.9120	39.0110
 0.9130	39.0110
 0.9140	39.0100
 0.9150	39.0050
 0.9160	39.0100
 0.9170	39.0120
 0.9180	39.0100
 0.9190	39.0080
 0.9200	39.0020
 0.9210	38.9950
 0.9220	38.9900
 0.9230	38.9890
 0.9240	38.9900
 0.9250	38.9870
 0.9260	38.9790
 0.9270	38.9670
 0.9280	38.9580
 0.9290	38.9520
 0.9300	38.9470
 0.9310	38.9380
 0.9320	38.9250
 0.9330	38.9100
 0.9340	38.8950
 0.9350	38.8810
 0.9360	38.8750
 0.9370	38.8680
 0.9380	38.8550
 0.9390	38.8400
 0.9400	38.8290
 0.9410	38.8130
 0.9420	38.7920
 0.9430	38.7760
 0.9440	38.7620
 0.9450	38.7420
 0.9460	38.7170
 0.9470	38.6920
 0.9480	38.6680
 0.9490	38.6420
 0.9500	38.6160
 0.9510	38.5930
 0.9520	38.5620
 0.9530	38.5230
 0.9540	38.4820
 0.9550	38.4540
 0.9560	38.4220
 0.9570	38.3890
 0.9580	38.3640
 0.9590	38.3450
 0.9600	38.3170
 0.9610	38.2830
 0.9620	38.2550
 0.9630	38.2390
 0.9640	38.2230
 0.9650	38.2060
 0.9660	38.1910
 0.9670	38.1720
 0.9680	38.1570
 0.9690	38.1400
 0.9700	38.1160
 0.9710	38.1130
 0.9720	38.0980
 0.9730	38.0790
 0.9740	38.0740
 0.9750	38.0560
 0.9760	38.0380
 0.9770	38.0270
 0.9780	38.0270
 0.9790	38.0170
 0.9800	38.0160
 0.9810	38.0130
 0.9820	37.9920
 0.9830	37.9910
 0.9840	37.9990
 0.9850	37.9930
 0.9860	37.9610
 0.9870	37.9590
 0.9880	37.9610
 0.9890	37.9650
 0.9900	37.9770
 0.9910	37.9600
 0.9920	37.9540
 0.9930	37.9650
 0.9940	37.9760
 0.9950	37.9640
 0.9960	37.9710
 0.9970	37.9880
 0.9980	37.9890
 0.9990	37.9960
 1.0000	37.9940
 1.0010	37.6640
 1.0020	37.6690
 1.0030	37.6770
 1.0040	37.6780
 1.0050	37.6820
 1.0060	37.6890
 1.0070	37.6910
 1.0080	37.6940
 1.0090	37.6960
 1.0100	37.7000
 1.0110	37.7040
 1.0120	37.7100
 1.0130	37.7180
 1.0140	37.7250
 1.0150	37.7330
 1.0160	37.7430
 1.0170	37.7510
 1.0180	37.7580
 1.0190	37.7610
 1.0200	37.7620
 1.0210	37.7640
 1.0220	37.7680
 1.0230	37.7730
 1.0240	37.7830
 1.0250	37.7880
 1.0260	37.7890
 1.0270	37.7940
 1.0280	37.8000
 1.0290	37.8040
 1.0300	37.8080
 1.0310	37.8130
 1.0320	37.8160
 1.0330	37.8220
 1.0340	37.8310
 1.0350	37.8360
 1.0360	37.8390
 1.0370	37.8410
 1.0380	37.8440
 1.0390	37.8450
 1.0400	37.8470
 1.0410	37.8490
 1.0420	37.8510
 1.0430	37.8530
 1.0440	37.8540
 1.0450	37.8560
 1.0460	37.8580
 1.0470	37.8590
 1.0480	37.8620
 1.0490	37.8670
 1.0500	37.8700
 1.0510	37.8750
 1.0520	37.8780
 1.0530	37.8800
 1.0540	37.8770
 1.0550	37.8790
 1.0560	37.8820
 1.0570	37.8850
 1.0580	37.8920
 1.0590	37.8960
 1.0600	37.8980
 1.0610	37.9000
 1.0620	37.8970
 1.0630	37.8990
 1.0640	37.9040
 1.0650	37.9060
 1.0660	37.9110
 1.0670	37.9140
 1.0680	37.9150
 1.0690	37.9130
 1.0700	37.9140
 1.0710	37.9140
 1.0720	37.9160
 1.0730	37.9210
 1.0740	37.9220
 1.0750	37.9250
 1.0760	37.9260
 1.0770	37.9230
 1.0780	37.9240
 1.0790	37.9250
 1.0800	37.9260
 1.0810	37.9270
 1.0820	37.9270
 1.0830	37.9280
 1.0840	37.9280
 1.0850	37.9280
 1.0860	37.9270
 1.0870	37.9280
 1.0880	37.9300
 1.0890	37.9280
 1.0900	37.9260
 1.0910	37.9240
 1.0920	37.9180
 1.0930	37.9160
 1.0940	37.9190
 1.0950	37.9170
 1.0960	37.9120
 1.0970	37.9090
 1.0980	37.9030
 1.0990	37.8990
 1.1000	37.8970
 1.1010	37.8930
 1.1020	37.8890
 1.1030	37.8850
 1.1040	37.8800
 1.1050	37.8730
 1.1060	37.8670
 1.1070	37.8590
 1.1080	37.8530
 1.1090	37.8500
 1.1100	37.8420
 1.1110	37.8320
 1.1120	37.8240
 1.1130	37.8150
 1.1140	37.8060
 1.1150	37.8000
 1.1160	37.7900
 1.1170	37.7770
 1.1180	37.7640
 1.1190	37.7530
 1.1200	37.7380
 1.1210	37.7220
 1.1220	37.7050
 1.1230	37.6860
 1.1240	37.6650
 1.1250	37.6430
 1.1260	37.6210
 1.1270	37.5950
 1.1280	37.5680
 1.1290	37.5370
 1.1300	37.5040
 1.1310	37.4670
 1.1320	37.4270
 1.1330	37.3830
 1.1340	37.3360
 1.1350	37.2860
 1.1360	37.2330
 1.1370	37.1750
 1.1380	37.1160
 1.1390	37.0530
 1.1400	36.9880
 1.1410	36.9210
 1.1420	36.8530
 1.1430	36.7840
 1.1440	36.7150
 1.1450	36.6460
 1.1460	36.5770
 1.1470	36.5080
 1.1480	36.4410
 1.1490	36.3710
 1.1500	36.3070
 1.1510	36.2460
 1.1520	36.1860
 1.1530	36.1300
 1.1540	36.0760
 1.1550	36.0250
 1.1560	35.9750
 1.1570	35.9300
 1.1580	35.8890
 1.1590	35.8500
 1.1600	35.8140
 1.1610	35.7800
 1.1620	35.7460
 1.1630	35.7170
 1.1640	35.6870
 1.1650	35.6590
 1.1660	35.6340
 1.1670	35.6090
 1.1680	35.5860
 1.1690	35.5620
 1.1700	35.5410
 1.1710	35.5180
 1.1720	35.4950
 1.1730	35.4720
 1.1740	35.4480
 1.1750	35.4240
 1.1760	35.4010
 1.1770	35.3800
 1.1780	35.3590
 1.1790	35.3370
 1.1800	35.3140
 1.1810	35.2900
 1.1820	35.2660
 1.1830	35.2440
 1.1840	35.2240
 1.1850	35.2040
 1.1860	35.1840
 1.1870	35.1650
 1.1880	35.1480
 1.1890	35.1310
 1.1900	35.1170
 1.1910	35.1050
 1.1920	35.0950
 1.1930	35.0870
 1.1940	35.0810
 1.1950	35.0770
 1.1960	35.0730
 1.1970	35.0700
 1.1980	35.0680
 1.1990	35.0660
 1.2000	35.0660
 1.2010	35.0670
 1.2020	35.0720
 1.2030	35.0780
 1.2040	35.0850
 1.2050	35.0930
 1.2060	35.1010
 1.2070	35.1100
 1.2080	35.1200
 1.2090	35.1300
 1.2100	35.1410
 1.2110	35.1530
 1.2120	35.1660
 1.2130	35.1790
 1.2140	35.1950
 1.2150	35.2100
 1.2160	35.2260
 1.2170	35.2390
 1.2180	35.2550
 1.2190	35.2710
 1.2200	35.2900
 1.2210	35.3090
 1.2220	35.3260
 1.2230	35.3460
 1.2240	35.3620
 1.2250	35.3760
 1.2260	35.3930
 1.2270	35.4090
 1.2280	35.4230
 1.2290	35.4380
 1.2300	35.4520
 1.2310	35.4650
 1.2320	35.4780
 1.2330	35.4920
 1.2340	35.5050
 1.2350	35.5150
 1.2360	35.5270
 1.2370	35.5380
 1.2380	35.5470
 1.2390	35.5560
 1.2400	35.5660
 1.2410	35.5740
 1.2420	35.5820
 1.2430	35.5940
 1.2440	35.6030
 1.2450	35.6120
 1.2460	35.6220
 1.2470	35.6280
 1.2480	35.6340
 1.2490	35.6420
 1.2500	35.6490
 1.2510	35.6560
 1.2520	35.6630
 1.2530	35.6680
 1.2540	35.6710
 1.2550	35.6730
 1.2560	35.6740
 1.2570	35.6750
 1.2580	35.6770
 1.2590	35.6790
 1.2600	35.6800
 1.2610	35.6820
 1.2620	35.6820
 1.2630	35.6830
 1.2640	35.6820
 1.2650	35.6820
 1.2660	35.6810
 1.2670	35.6790
 1.2680	35.6770
 1.2690	35.6740
 1.2700	35.6700
 1.2710	35.6660
 1.2720	35.6590
 1.2730	35.6540
 1.2740	35.6480
 1.2750	35.6430
 1.2760	35.6360
 1.2770	35.6290
 1.2780	35.6200
 1.2790	35.6120
 1.2800	35.6030
 1.2810	35.5940
 1.2820	35.5830
 1.2830	35.5700
 1.2840	35.5590
 1.2850	35.5450
 1.2860	35.5310
 1.2870	35.5170
 1.2880	35.5040
 1.2890	35.4880
 1.2900	35.4730
 1.2910	35.4610
 1.2920	35.4470
 1.2930	35.4320
 1.2940	35.4150
 1.2950	35.3960
 1.2960	35.3740
 1.2970	35.3530
 1.2980	35.3320
 1.2990	35.3130
 1.3000	35.2920
 1.3010	35.2700
 1.3020	35.2450
 1.3030	35.2180
 1.3040	35.1900
 1.3050	35.1620
 1.3060	35.1330
 1.3070	35.1050
 1.3080	35.0730
 1.3090	35.0380
 1.3100	35.0020
 1.3110	34.9640
 1.3120	34.9260
 1.3130	34.8860
 1.3140	34.8440
 1.3150	34.8000
 1.3160	34.7540
 1.3170	34.7070
 1.3180	34.6580
 1.3190	34.6050
 1.3200	34.5510
 1.3210	34.4960
 1.3220	34.4390
 1.3230	34.3810
 1.3240	34.3220
 1.3250	34.2610
 1.3260	34.1990
 1.3270	34.1350
 1.3280	34.0680
 1.3290	33.9980
 1.3300	33.9250
 1.3310	33.8520
 1.3320	33.7800
 1.3330	33.7060
 1.3340	33.6310
 1.3350	33.5560
 1.3360	33.4780
 1.3370	33.4000
 1.3380	33.3230
 1.3390	33.2460
 1.3400	33.1670
 1.3410	33.0890
 1.3420	33.0130
 1.3430	32.9350
 1.3440	32.8580
 1.3450	32.7810
 1.3460	32.7020
 1.3470	32.6250
 1.3480	32.5470
 1.3490	32.4720
 1.3500	32.3980
 1.3510	32.3250
 1.3520	32.2510
 1.3530	32.1770
 1.3540	32.1010
 1.3550	32.0250
 1.3560	31.9510
 1.3570	31.8740
 1.3580	31.7980
 1.3590	31.7220
 1.3600	31.6430
 1.3610	31.5630
 1.3620	31.4800
 1.3630	31.3940
 1.3640	31.3050
 1.3650	31.2120
 1.3660	31.1160
 1.3670	31.0160
 1.3680	30.9100
 1.3690	30.7990
 1.3700	30.6790
 1.3710	30.5520
 1.3720	30.4180
 1.3730	30.2720
 1.3740	30.1170
 1.3750	29.9510
 1.3760	29.7720
 1.3770	29.5790
 1.3780	29.3710
 1.3790	29.1480
 1.3800	28.9100
 1.3810	28.6520
 1.3820	28.3800
 1.3830	28.0930
 1.3840	27.7900
 1.3850	27.4710
 1.3860	27.1380
 1.3870	26.7870
 1.3880	26.4280
 1.3890	26.0560
 1.3900	25.6740
 1.3910	25.2860
 1.3920	24.8900
 1.3930	24.4860
 1.3940	24.0770
 1.3950	23.6620
 1.3960	23.2470
 1.3970	22.8360
 1.3980	22.4260
 1.3990	22.0260
 1.4000	21.6310
 1.4010	21.2400
 1.4020	20.8620
 1.4030	20.4900
 1.4040	20.1300
 1.4050	19.7850
 1.4060	19.4510
 1.4070	19.1330
 1.4080	18.8280
 1.4090	18.5350
 1.4100	18.2580
 1.4110	17.9920
 1.4120	17.7420
 1.4130	17.5060
 1.4140	17.2820
 1.4150	17.0740
 1.4160	16.8770
 1.4170	16.6900
 1.4180	16.5170
 1.4190	16.3520
 1.4200	16.1970
 1.4210	16.0540
 1.4220	15.9180
 1.4230	15.7940
 1.4240	15.6780
 1.4250	15.5690
 1.4260	15.4680
 1.4270	15.3730
 1.4280	15.2850
 1.4290	15.2030
 1.4300	15.1270
 1.4310	15.0560
 1.4320	14.9910
 1.4330	14.9310
 1.4340	14.8760
 1.4350	14.8260
 1.4360	14.7820
 1.4370	14.7410
 1.4380	14.7040
 1.4390	14.6710
 1.4400	14.6420
 1.4410	14.6170
 1.4420	14.5950
 1.4430	14.5760
 1.4440	14.5590
 1.4450	14.5450
 1.4460	14.5330
 1.4470	14.5250
 1.4480	14.5190
 1.4490	14.5140
 1.4500	14.5100
 1.4510	14.5080
 1.4520	14.5080
 1.4530	14.5110
 1.4540	14.5150
 1.4550	14.5220
 1.4560	14.5320
 1.4570	14.5420
 1.4580	14.5570
 1.4590	14.5730
 1.4600	14.5920
 1.4610	14.6150
 1.4620	14.6410
 1.4630	14.6700
 1.4640	14.7030
 1.4650	14.7400
 1.4660	14.7800
 1.4670	14.8250
 1.4680	14.8760
 1.4690	14.9290
 1.4700	14.9860
 1.4710	15.0460
 1.4720	15.1080
 1.4730	15.1740
 1.4740	15.2440
 1.4750	15.3160
 1.4760	15.3920
 1.4770	15.4690
 1.4780	15.5470
 1.4790	15.6280
 1.4800	15.7100
 1.4810	15.7950
 1.4820	15.8810
 1.4830	15.9670
 1.4840	16.0540
 1.4850	16.1430
 1.4860	16.2320
 1.4870	16.3240
 1.4880	16.4140
 1.4890	16.5050
 1.4900	16.5970
 1.4910	16.6890
 1.4920	16.7820
 1.4930	16.8770
 1.4940	16.9710
 1.4950	17.0650
 1.4960	17.1600
 1.4970	17.2540
 1.4980	17.3490
 1.4990	17.4440
 1.5000	17.5400
 1.5010	17.6370
 1.5020	17.7340
 1.5030	17.8310
 1.5040	17.9270
 1.5050	18.0220
 1.5060	18.1160
 1.5070	18.2100
 1.5080	18.3040
 1.5090	18.3990
 1.5100	18.4930
 1.5110	18.5870
 1.5120	18.6800
 1.5130	18.7720
 1.5140	18.8630
 1.5150	18.9530
 1.5160	19.0440
 1.5170	19.1350
 1.5180	19.2240
 1.5190	19.3130
 1.5200	19.4020
 1.5210	19.4890
 1.5220	19.5760
 1.5230	19.6640
 1.5240	19.7500
 1.5250	19.8370
 1.5260	19.9220
 1.5270	20.0060
 1.5280	20.0890
 1.5290	20.1700
 1.5300	20.2520
 1.5310	20.3320
 1.5320	20.4100
 1.5330	20.4900
 1.5340	20.5660
 1.5350	20.6410
 1.5360	20.7190
 1.5370	20.7940
 1.5380	20.8680
 1.5390	20.9430
 1.5400	21.0160
 1.5410	21.0880
 1.5420	21.1610
 1.5430	21.2320
 1.5440	21.3030
 1.5450	21.3720
 1.5460	21.4400
 1.5470	21.5060
 1.5480	21.5710
 1.5490	21.6370
 1.5500	21.7040
 1.5510	21.7690
 1.5520	21.8340
 1.5530	21.8960
 1.5540	21.9570
 1.5550	22.0180
 1.5560	22.0800
 1.5570	22.1400
 1.5580	22.2000
 1.5590	22.2590
 1.5600	22.3170
 1.5610	22.3740
 1.5620	22.4300
 1.5630	22.4870
 1.5640	22.5430
 1.5650	22.5970
 1.5660	22.6500
 1.5670	22.7040
 1.5680	22.7560
 1.5690	22.8070
 1.5700	22.8580
 1.5710	22.9090
 1.5720	22.9590
 1.5730	23.0100
 1.5740	23.0610
 1.5750	23.1100
 1.5760	23.1610
 1.5770	23.2100
 1.5780	23.2570
 1.5790	23.3040
 1.5800	23.3510
 1.5810	23.3980
 1.5820	23.4450
 1.5830	23.4930
 1.5840	23.5400
 1.5850	23.5850
 1.5860	23.6320
 1.5870	23.6790
 1.5880	23.7260
 1.5890	23.7720
 1.5900	23.8160
 1.5910	23.8600
 1.5920	23.9040
 1.5930	23.9480
 1.5940	23.9910
 1.5950	24.0340
 1.5960	24.0780
 1.5970	24.1220
 1.5980	24.1660
 1.5990	24.2100
 1.6000	24.2520
 1.6010	24.2930
 1.6020	24.3350
 1.6030	24.3770
 1.6040	24.4160
 1.6050	24.4560
 1.6060	24.4960
 1.6070	24.5340
 1.6080	24.5720
 1.6090	24.6120
 1.6100	24.6490
 1.6110	24.6860
 1.6120	24.7210
 1.6130	24.7560
 1.6140	24.7890
 1.6150	24.8230
 1.6160	24.8560
 1.6170	24.8870
 1.6180	24.9170
 1.6190	24.9470
 1.6200	24.9750
 1.6210	25.0040
 1.6220	25.0320
 1.6230	25.0600
 1.6240	25.0870
 1.6250	25.1130
 1.6260	25.1380
 1.6270	25.1630
 1.6280	25.1870
 1.6290	25.2100
 1.6300	25.2300
 1.6310	25.2530
 1.6320	25.2750
 1.6330	25.2970
 1.6340	25.3200
 1.6350	25.3430
 1.6360	25.3650
 1.6370	25.3880
 1.6380	25.4120
 1.6390	25.4330
 1.6400	25.4530
 1.6410	25.4720
 1.6420	25.4890
 1.6430	25.5060
 1.6440	25.5240
 1.6450	25.5380
 1.6460	25.5490
 1.6470	25.5580
 1.6480	25.5650
 1.6490	25.5720
 1.6500	25.5790
 1.6510	25.5830
 1.6520	25.5840
 1.6530	25.5840
 1.6540	25.5830
 1.6550	25.5800
 1.6560	25.5760
 1.6570	25.5720
 1.6580	25.5660
 1.6590	25.5600
 1.6600	25.5540
 1.6610	25.5450
 1.6620	25.5340
 1.6630	25.5240
 1.6640	25.5140
 1.6650	25.5010
 1.6660	25.4870
 1.6670	25.4730
 1.6680	25.4570
 1.6690	25.4410
 1.6700	25.4230
 1.6710	25.4020
 1.6720	25.3780
 1.6730	25.3520
 1.6740	25.3230
 1.6750	25.2910
 1.6760	25.2550
 1.6770	25.2180
 1.6780	25.1800
 1.6790	25.1370
 1.6800	25.0920
 1.6810	25.0440
 1.6820	24.9930
 1.6830	24.9400
 1.6840	24.8840
 1.6850	24.8250
 1.6860	24.7670
 1.6870	24.7080
 1.6880	24.6500
 1.6890	24.5930
 1.6900	24.5360
 1.6910	24.4800
 1.6920	24.4250
 1.6930	24.3690
 1.6940	24.3170
 1.6950	24.2680
 1.6960	24.2190
 1.6970	24.1730
 1.6980	24.1290
 1.6990	24.0840
 1.7000	24.0430
 1.7010	24.0050
 1.7020	23.9680
 1.7030	23.9340
 1.7040	23.8980
 1.7050	23.8640
 1.7060	23.8290
 1.7070	23.7930
 1.7080	23.7600
 1.7090	23.7280
 1.7100	23.6980
 1.7110	23.6710
 1.7120	23.6440
 1.7130	23.6180
 1.7140	23.5910
 1.7150	23.5640
 1.7160	23.5370
 1.7170	23.5110
 1.7180	23.4850
 1.7190	23.4600
 1.7200	23.4350
 1.7210	23.4080
 1.7220	23.3820
 1.7230	23.3560
 1.7240	23.3290
 1.7250	23.3010
 1.7260	23.2750
 1.7270	23.2490
 1.7280	23.2270
 1.7290	23.2070
 1.7300	23.1830
 1.7310	23.1630
 1.7320	23.1450
 1.7330	23.1270
 1.7340	23.1130
 1.7350	23.0950
 1.7360	23.0750
 1.7370	23.0550
 1.7380	23.0340
 1.7390	23.0110
 1.7400	22.9890
 1.7410	22.9630
 1.7420	22.9330
 1.7430	22.9030
 1.7440	22.8690
 1.7450	22.8350
 1.7460	22.8000
 1.7470	22.7660
 1.7480	22.7320
 1.7490	22.6960
 1.7500	22.6610
 1.7510	22.6250
 1.7520	22.5880
 1.7530	22.5540
 1.7540	22.5210
 1.7550	22.4890
 1.7560	22.4590
 1.7570	22.4280
 1.7580	22.3990
 1.7590	22.3700
 1.7600	22.3430
 1.7610	22.3160
 1.7620	22.2920
 1.7630	22.2710
 1.7640	22.2500
 1.7650	22.2320
 1.7660	22.2130
 1.7670	22.1950
 1.7680	22.1780
 1.7690	22.1600
 1.7700	22.1450
 1.7710	22.1330
 1.7720	22.1210
 1.7730	22.1100
 1.7740	22.0980
 1.7750	22.0850
 1.7760	22.0760
 1.7770	22.0690
 1.7780	22.0620
 1.7790	22.0560
 1.7800	22.0510
 1.7810	22.0450
 1.7820	22.0410
 1.7830	22.0380
 1.7840	22.0360
 1.7850	22.0330
 1.7860	22.0330
 1.7870	22.0350
 1.7880	22.0360
 1.7890	22.0380
 1.7900	22.0390
 1.7910	22.0430
 1.7920	22.0510
 1.7930	22.0570
 1.7940	22.0620
 1.7950	22.0700
 1.7960	22.0790
 1.7970	22.0880
 1.7980	22.1020
 1.7990	22.1130
 1.8000	22.1220
 1.8010	22.1320
 1.8020	22.1410
 1.8030	22.1520
 1.8040	22.1640
 1.8050	22.1750
 1.8060	22.1860
 1.8070	22.1970
 1.8080	22.2080
 1.8090	22.2180
 1.8100	22.2280
 1.8110	22.2380
 1.8120	22.2480
 1.8130	22.2580
 1.8140	22.2660
 1.8150	22.2730
 1.8160	22.2770
 1.8170	22.2800
 1.8180	22.2860
 1.8190	22.2960
 1.8200	22.3020
 1.8210	22.3060
 1.8220	22.3100
 1.8230	22.3090
 1.8240	22.3100
 1.8250	22.3160
 1.8260	22.3180
 1.8270	22.3190
 1.8280	22.3170
 1.8290	22.3090
 1.8300	22.3030
 1.8310	22.2570
 1.8320	22.2420
 1.8330	22.2300
 1.8340	22.2160
 1.8350	22.1990
 1.8360	22.1830
 1.8370	22.1670
 1.8380	22.1460
 1.8390	22.1210
 1.8400	22.0940
 1.8410	22.0620
 1.8420	22.0250
 1.8430	21.9830
 1.8440	21.9360
 1.8450	21.8830
 1.8460	21.8230
 1.8470	21.7570
 1.8480	21.6870
 1.8490	21.6090
 1.8500	21.5240
 1.8510	21.4340
 1.8520	21.3370
 1.8530	21.2310
 1.8540	21.1210
 1.8550	21.0000
 1.8560	20.8640
 1.8570	20.7200
 1.8580	20.5650
 1.8590	20.3980
 1.8600	20.2200
 1.8610	20.0350
 1.8620	19.8340
 1.8630	19.6210
 1.8640	19.3970
 1.8650	19.1590
 1.8660	18.9070
 1.8670	18.6350
 1.8680	18.3470
 1.8690	18.0460
 1.8700	17.7270
 1.8710	17.3920
 1.8720	17.0490
 1.8730	16.6940
 1.8740	16.3230
 1.8750	15.9420
 1.8760	15.5470
 1.8770	15.1430
 1.8780	14.7350
 1.8790	14.3190
 1.8800	13.9050
 1.8810	13.4920
 1.8820	13.0730
 1.8830	12.6500
 1.8840	12.2320
 1.8850	11.8110
 1.8860	11.3940
 1.8870	10.9870
 1.8880	10.5820
 1.8890	10.1920
 1.8900	 9.8170
 1.8910	 9.4540
 1.8920	 9.1010
 1.8930	 8.7700
 1.8940	 8.4520
 1.8950	 8.1490
 1.8960	 7.8690
 1.8970	 7.6020
 1.8980	 7.3580
 1.8990	 7.1290
 1.9000	 6.9130
 1.9010	 6.7130
 1.9020	 6.5290
 1.9030	 6.3610
 1.9040	 6.2070
 1.9050	 6.0710
 1.9060	 5.9460
 1.9070	 5.8350
 1.9080	 5.7350
 1.9090	 5.6430
 1.9100	 5.5620
 1.9110	 5.4860
 1.9120	 5.4160
 1.9130	 5.3520
 1.9140	 5.2960
 1.9150	 5.2450
 1.9160	 5.2010
 1.9170	 5.1630
 1.9180	 5.1280
 1.9190	 5.0950
 1.9200	 5.0650
 1.9210	 5.0370
 1.9220	 5.0140
 1.9230	 4.9970
 1.9240	 4.9820
 1.9250	 4.9710
 1.9260	 4.9640
 1.9270	 4.9570
 1.9280	 4.9490
 1.9290	 4.9450
 1.9300	 4.9410
 1.9310	 4.9390
 1.9320	 4.9430
 1.9330	 4.9470
 1.9340	 4.9490
 1.9350	 4.9570
 1.9360	 4.9690
 1.9370	 4.9810
 1.9380	 4.9950
 1.9390	 5.0100
 1.9400	 5.0250
 1.9410	 5.0420
 1.9420	 5.0620
 1.9430	 5.0850
 1.9440	 5.1070
 1.9450	 5.1310
 1.9460	 5.1570
 1.9470	 5.1820
 1.9480	 5.2100
 1.9490	 5.2430
 1.9500	 5.2750
 1.9510	 5.3040
 1.9520	 5.3340
 1.9530	 5.3630
 1.9540	 5.3950
 1.9550	 5.4280
 1.9560	 5.4670
 1.9570	 5.5020
 1.9580	 5.5380
 1.9590	 5.5730
 1.9600	 5.6070
 1.9610	 5.6440
 1.9620	 5.6840
 1.9630	 5.7230
 1.9640	 5.7660
 1.9650	 5.8120
 1.9660	 5.8570
 1.9670	 5.9020
 1.9680	 5.9470
 1.9690	 5.9910
 1.9700	 6.0360
 1.9710	 6.0820
 1.9720	 6.1290
 1.9730	 6.1770
 1.9740	 6.2260
 1.9750	 6.2750
 1.9760	 6.3250
 1.9770	 6.3760
 1.9780	 6.4260
 1.9790	 6.4760
 1.9800	 6.5280
 1.9810	 6.5800
 1.9820	 6.6300
 1.9830	 6.6830
 1.9840	 6.7400
 1.9850	 6.7950
 1.9860	 6.8490
 1.9870	 6.9070
 1.9880	 6.9660
 1.9890	 7.0180
 1.9900	 7.0730
 1.9910	 7.1270
 1.9920	 7.1810
 1.9930	 7.2350
 1.9940	 7.2900
 1.9950	 7.3460
 1.9960	 7.4010
 1.9970	 7.4590
 1.9980	 7.5140
 1.9990	 7.5700
 2.0000	 7.6240
 2.0010	 7.6820
 2.0020	 7.7370
 2.0030	 7.7940
 2.0040	 7.8520
 2.0050	 7.9080
 2.0060	 7.9600
 2.0070	 8.0150
 2.0080	 8.0670
 2.0090	 8.1230
 2.0100	 8.1830
 2.0110	 8.2400
 2.0120	 8.2960
 2.0130	 8.3500
 2.0140	 8.4030
 2.0150	 8.4550
 2.0160	 8.5110
 2.0170	 8.5670
 2.0180	 8.6210
 2.0190	 8.6750
 2.0200	 8.7270
 2.0210	 8.7750
 2.0220	 8.8240
 2.0230	 8.8740
 2.0240	 8.9210
 2.0250	 8.9680
 2.0260	 9.0150
 2.0270	 9.0600
 2.0280	 9.1040
 2.0290	 9.1500
 2.0300	 9.1960
 2.0310	 9.2380
 2.0320	 9.2800
 2.0330	 9.3200
 2.0340	 9.3560
 2.0350	 9.3950
 2.0360	 9.4350
 2.0370	 9.4730
 2.0380	 9.5100
 2.0390	 9.5470
 2.0400	 9.5820
 2.0410	 9.6170
 2.0420	 9.6530
 2.0430	 9.6860
 2.0440	 9.7180
 2.0450	 9.7470
 2.0460	 9.7780
 2.0470	 9.8070
 2.0480	 9.8380
 2.0490	 9.8710
 2.0500	 9.9030
 2.0510	 9.9370
 2.0520	 9.9680
 2.0530	 9.9980
 2.0540	10.0290
 2.0550	10.0580
 2.0560	10.0890
 2.0570	10.1200
 2.0580	10.1520
 2.0590	10.1830
 2.0600	10.2140
 2.0610	10.2450
 2.0620	10.2740
 2.0630	10.3080
 2.0640	10.3470
 2.0650	10.3820
 2.0660	10.4190
 2.0670	10.4540
 2.0680	10.4810
 2.0690	10.5140
 2.0700	10.5510
 2.0710	10.5850
 2.0720	10.6200
 2.0730	10.6560
 2.0740	10.6890
 2.0750	10.7190
 2.0760	10.7530
 2.0770	10.7870
 2.0780	10.8230
 2.0790	10.8630
 2.0800	10.9000
 2.0810	10.9380
 2.0820	10.9720
 2.0830	11.0000
 2.0840	11.0320
 2.0850	11.0650
 2.0860	11.0980
 2.0870	11.1330
 2.0880	11.1670
 2.0890	11.1990
 2.0900	11.2280
 2.0910	11.2600
 2.0920	11.2910
 2.0930	11.3220
 2.0940	11.3520
 2.0950	11.3840
 2.0960	11.4190
 2.0970	11.4500
 2.0980	11.4820
 2.0990	11.5130
 2.1000	11.5440
 2.1010	11.5740
 2.1020	11.6040
 2.1030	11.6350
 2.1040	11.6650
 2.1050	11.6950
 2.1060	11.7250
 2.1070	11.7570
 2.1080	11.7870
 2.1090	11.8150
 2.1100	11.8440
 2.1110	11.8720
 2.1120	11.9010
 2.1130	11.9310
 2.1140	11.9600
 2.1150	11.9900
 2.1160	12.0170
 2.1170	12.0390
 2.1180	12.0660
 2.1190	12.0960
 2.1200	12.1230
 2.1210	12.1510
 2.1220	12.1790
 2.1230	12.2040
 2.1240	12.2240
 2.1250	12.2480
 2.1260	12.2740
 2.1270	12.2990
 2.1280	12.3260
 2.1290	12.3520
 2.1300	12.3790
 2.1310	12.4040
 2.1320	12.4290
 2.1330	12.4520
 2.1340	12.4710
 2.1350	12.4920
 2.1360	12.5120
 2.1370	12.5330
 2.1380	12.5590
 2.1390	12.5810
 2.1400	12.6040
 2.1410	12.6230
 2.1420	12.6440
 2.1430	12.6640
 2.1440	12.6850
 2.1450	12.7100
 2.1460	12.7310
 2.1470	12.7510
 2.1480	12.7720
 2.1490	12.7930
 2.1500	12.8120
 2.1510	12.8280
 2.1520	12.8470
 2.1530	12.8670
 2.1540	12.8850
 2.1550	12.9050
 2.1560	12.9210
 2.1570	12.9320
 2.1580	12.9460
 2.1590	12.9610
 2.1600	12.9770
 2.1610	12.9910
 2.1620	13.0040
 2.1630	13.0190
 2.1640	13.0320
 2.1650	13.0490
 2.1660	13.0700
 2.1670	13.0880
 2.1680	13.1070
 2.1690	13.1260
 2.1700	13.1440
 2.1710	13.1620
 2.1720	13.1810
 2.1730	13.2000
 2.1740	13.2190
 2.1750	13.2380
 2.1760	13.2560
 2.1770	13.2760
 2.1780	13.2970
 2.1790	13.3180
 2.1800	13.3410
 2.1810	13.3630
 2.1820	13.3850
 2.1830	13.4020
 2.1840	13.4210
 2.1850	13.4380
 2.1860	13.4580
 2.1870	13.4810
 2.1880	13.5000
 2.1890	13.5190
 2.1900	13.5380
 2.1910	13.5530
 2.1920	13.5710
 2.1930	13.5920
 2.1940	13.6110
 2.1950	13.6280
 2.1960	13.6480
 2.1970	13.6700
 2.1980	13.6900
 2.1990	13.7130
 2.2000	13.7320
 2.2010	13.7430
 2.2020	13.7580
 2.2030	13.7730
 2.2040	13.7880
 2.2050	13.8060
 2.2060	13.8230
 2.2070	13.8370
 2.2080	13.8490
 2.2090	13.8590
 2.2100	13.8670
 2.2110	13.8750
 2.2120	13.8800
 2.2130	13.8860
 2.2140	13.8920
 2.2150	13.8970
 2.2160	13.9030
 2.2170	13.9070
 2.2180	13.9130
 2.2190	13.9110
 2.2200	13.9030
 2.2210	13.8960
 2.2220	13.8820
 2.2230	13.8710
 2.2240	13.8640
 2.2250	13.8530
 2.2260	13.8390
 2.2270	13.8240
 2.2280	13.8090
 2.2290	13.7870
 2.2300	13.7600
 2.2310	13.7320
 2.2320	13.6930
 2.2330	13.6550
 2.2340	13.6190
 2.2350	13.5850
 2.2360	13.5470
 2.2370	13.5110
 2.2380	13.4690
 2.2390	13.4210
 2.2400	13.3710
 2.2410	13.3160
 2.2420	13.2630
 2.2430	13.2070
 2.2440	13.1500
 2.2450	13.0940
 2.2460	13.0340
 2.2470	12.9720
 2.2480	12.9080
 2.2490	12.8400
 2.2500	12.7710
 2.2510	12.6990
 2.2520	12.6260
 2.2530	12.5500
 2.2540	12.4740
 2.2550	12.3920
 2.2560	12.3160
 2.2570	12.2450
 2.2580	12.1730
 2.2590	12.1050
 2.2600	12.0350
 2.2610	11.9650
 2.2620	11.8930
 2.2630	11.8220
 2.2640	11.7590
 2.2650	11.7010
 2.2660	11.6420
 2.2670	11.5820
 2.2680	11.5240
 2.2690	11.4640
 2.2700	11.3980
 2.2710	11.3460
 2.2720	11.3000
 2.2730	11.2560
 2.2740	11.2200
 2.2750	11.1820
 2.2760	11.1420
 2.2770	11.1060
 2.2780	11.0730
 2.2790	11.0370
 2.2800	11.0010
 2.2810	10.9670
 2.2820	10.9320
 2.2830	10.8970
 2.2840	10.8650
 2.2850	10.8270
 2.2860	10.7830
 2.2870	10.7410
 2.2880	10.6970
 2.2890	10.6560
 2.2900	10.6230
 2.2910	10.5830
 2.2920	10.5400
 2.2930	10.4990
 2.2940	10.4550
 2.2950	10.4130
 2.2960	10.3760
 2.2970	10.3350
 2.2980	10.2940
 2.2990	10.2480
 2.3000	10.2120
 2.3010	10.1720
 2.3020	10.1350
 2.3030	10.1020
 2.3040	10.0650
 2.3050	10.0330
 2.3060	 9.9970
 2.3070	 9.9650
 2.3080	 9.9400
 2.3090	 9.9140
 2.3100	 9.8990
 2.3110	 9.8830
 2.3120	 9.8690
 2.3130	 9.8530
 2.3140	 9.8450
 2.3150	 9.8410
 2.3160	 9.8370
 2.3170	 9.8390
 2.3180	 9.8350
 2.3190	 9.8290
 2.3200	 9.8240
 2.3210	 9.8210
 2.3220	 9.8120
 2.3230	 9.7990
 2.3240	 9.7870
 2.3250	 9.7690
 2.3260	 9.7540
 2.3270	 9.7430
 2.3280	 9.7270
 2.3290	 9.7050
 2.3300	 9.6860
 2.3310	 9.6660
 2.3320	 9.6470
 2.3330	 9.6330
 2.3340	 9.6100
 2.3350	 9.5850
 2.3360	 9.5570
 2.3370	 9.5210
 2.3380	 9.4900
 2.3390	 9.4590
 2.3400	 9.4250
 2.3410	 9.3880
 2.3420	 9.3540
 2.3430	 9.3180
 2.3440	 9.2870
 2.3450	 9.2590
 2.3460	 9.2310
 2.3470	 9.2010
 2.3480	 9.1780
 2.3490	 9.1640
 2.3500	 9.1450
 2.3510	 9.1260
 2.3520	 9.1070
 2.3530	 9.0790
 2.3540	 9.0590
 2.3550	 9.0460
 2.3560	 9.0350
 2.3570	 9.0270
 2.3580	 9.0050
 2.3590	 8.9830
 2.3600	 8.9650
 2.3610	 8.9450
 2.3620	 8.9350
 2.3630	 8.9220
 2.3640	 8.9060
 2.3650	 8.8900
 2.3660	 8.8690
 2.3670	 8.8480
 2.3680	 8.8280
 2.3690	 8.8050
 2.3700	 8.7810
 2.3710	 8.7490
 2.3720	 8.7100
 2.3730	 8.6740
 2.3740	 8.6430
 2.3750	 8.6160
 2.3760	 8.5940
 2.3770	 8.5770
 2.3780	 8.5510
 2.3790	 8.5220
 2.3800	 8.4990
 2.3810	 8.4690
 2.3820	 8.4440
 2.3830	 8.4230
 2.3840	 8.3920
 2.3850	 8.3660
 2.3860	 8.3350
 2.3870	 8.3030
 2.3880	 8.2810
 2.3890	 8.2430
 2.3900	 8.2010
 2.3910	 8.1630
 2.3920	 8.1180
 2.3930	 8.0950
 2.3940	 8.0740
 2.3950	 8.0480
 2.3960	 8.0300
 2.3970	 8.0100
 2.3980	 7.9730
 2.3990	 7.9290
 2.4000	 7.8870
 2.4010	 7.8350
 2.4020	 7.7950
 2.4030	 7.7800
 2.4040	 7.7610
 2.4050	 7.7380
 2.4060	 7.7160
 2.4070	 7.6760
 2.4080	 7.6300
 2.4090	 7.5920
 2.4100	 7.5560
 2.4110	 7.5210
 2.4120	 7.4810
 2.4130	 7.4410
 2.4140	 7.4070
 2.4150	 7.3760
 2.4160	 7.3450
 2.4170	 7.3110
 2.4180	 7.2740
 2.4190	 7.2270
 2.4200	 7.1920
 2.4210	 7.1620
 2.4220	 7.1300
 2.4230	 7.1000
 2.4240	 7.0700
 2.4250	 7.0540
 2.4260	 7.0240
 2.4270	 6.9960
 2.4280	 6.9650
 2.4290	 6.8950
 2.4300	 6.8300
 2.4310	 6.7910
 2.4320	 6.7580
 2.4330	 6.7430
 2.4340	 6.7250
 2.4350	 6.6880
 2.4360	 6.6530
 2.4370	 6.6050
 2.4380	 6.5640
 2.4390	 6.5290
 2.4400	 6.4880
 2.4410	 6.4570
 2.4420	 6.4270
 2.4430	 6.3840
 2.4440	 6.3450
 2.4450	 6.3260
 2.4460	 6.3060
 2.4470	 6.2770
 2.4480	 6.2380
 2.4490	 6.1840
 2.4500	 6.1290
 2.4510	 6.0820
 2.4520	 6.0580
 2.4530	 6.0270
 2.4540	 6.0060
 2.4550	 5.9980
 2.4560	 5.9680
 2.4570	 5.9270
 2.4580	 5.8740
 2.4590	 5.8370
 2.4600	 5.8030
 2.4610	 5.7690
 2.4620	 5.7640
 2.4630	 5.7380
 2.4640	 5.7110
 2.4650	 5.6980
 2.4660	 5.6690
 2.4670	 5.6590
 2.4680	 5.6420
 2.4690	 5.6030
 2.4700	 5.5590
 2.4710	 5.4850
 2.4720	 5.4480
 2.4730	 5.4420
 2.4740	 5.4220
 2.4750	 5.3960
 2.4760	 5.3820
 2.4770	 5.3650
 2.4780	 5.3580
 2.4790	 5.3880
 2.4800	 5.3840
 2.4810	 5.3640
 2.4820	 5.3160
 2.4830	 5.2850
 2.4840	 5.2720
 2.4850	 5.2480
 2.4860	 5.2320
 2.4870	 5.2230
 2.4880	 5.2230
 2.4890	 5.2230
 2.4900	 5.2460
 2.4910	 5.2580
 2.4920	 5.2210
 2.4930	 5.2230
 2.4940	 5.2480
 2.4950	 5.2770
 2.4960	 5.3160
 2.4970	 5.3120
 2.4980	 5.2710
 2.4990	 5.1750
 2.5000	 5.1020
