Name: Brachychiton discolor
Type: vegetation
Class: Tree
Genus: Brachychiton
Species: discolor
Sample No.: JPL083
Owner: JPL
Wavelength Range: TIR
Origin: 34.12428; - 118.11335; WGS84
Collection Date: 2/2/2016
Description: Samples were collected at the Huntington Garden in San Marino California as part of a JPL Subcontract studying HyTES imagery. Samples were taken to JPL and processed within 48 hours of collection. The same leaves were processed in the Nicolet and then measured using the ASD.
Measurement: Hemispherical reflectance
First Column: X
Second Column: Y
X Units: Wavelength (micrometer)
Y Units: Reflectance (percentage)
First X Value: 2.501
Last X Value: 15.387
Number of X Values: 1737
Additional Information: 

 2.5010	 5.2430
 2.5030	 5.2740
 2.5040	 5.2290
 2.5050	 5.1410
 2.5060	 5.1730
 2.5070	 5.1940
 2.5090	 5.1660
 2.5100	 5.0830
 2.5110	 5.1110
 2.5120	 5.1500
 2.5140	 5.2120
 2.5150	 5.2080
 2.5160	 5.2130
 2.5170	 5.2340
 2.5180	 5.2680
 2.5200	 5.1220
 2.5210	 5.0680
 2.5220	 5.1120
 2.5230	 5.1360
 2.5250	 5.1100
 2.5260	 5.1330
 2.5270	 5.0620
 2.5280	 5.0450
 2.5300	 5.0900
 2.5310	 5.2210
 2.5320	 5.1770
 2.5330	 5.1260
 2.5340	 5.0690
 2.5360	 5.1130
 2.5370	 5.0920
 2.5380	 5.1070
 2.5390	 5.0750
 2.5410	 5.1360
 2.5420	 5.1540
 2.5430	 5.1810
 2.5440	 5.1400
 2.5460	 5.1780
 2.5470	 5.1540
 2.5480	 5.0930
 2.5490	 5.0940
 2.5510	 5.1320
 2.5520	 5.0940
 2.5530	 5.0910
 2.5540	 5.0930
 2.5560	 5.1530
 2.5570	 5.1680
 2.5580	 5.1520
 2.5590	 5.0670
 2.5610	 5.0650
 2.5620	 5.0840
 2.5630	 5.1950
 2.5650	 5.2250
 2.5660	 5.2560
 2.5670	 5.2560
 2.5680	 5.2330
 2.5700	 5.2650
 2.5710	 5.2870
 2.5720	 5.2030
 2.5730	 5.1710
 2.5750	 5.1560
 2.5760	 5.2140
 2.5770	 5.1690
 2.5790	 5.0880
 2.5800	 5.0960
 2.5810	 5.2030
 2.5820	 5.1560
 2.5840	 5.1370
 2.5850	 5.0900
 2.5860	 5.0960
 2.5880	 5.1230
 2.5890	 5.1240
 2.5900	 5.1310
 2.5910	 5.2110
 2.5930	 5.1950
 2.5940	 5.1620
 2.5950	 5.0370
 2.5970	 5.0480
 2.5980	 4.9760
 2.5990	 4.9900
 2.6010	 5.0500
 2.6020	 5.1130
 2.6030	 5.0460
 2.6040	 5.0070
 2.6060	 4.9840
 2.6070	 5.0400
 2.6080	 5.0110
 2.6100	 4.9730
 2.6110	 4.9040
 2.6120	 4.8700
 2.6140	 4.7840
 2.6150	 4.7810
 2.6160	 4.7440
 2.6180	 4.7460
 2.6190	 4.7480
 2.6200	 4.7640
 2.6220	 4.7670
 2.6230	 4.8160
 2.6240	 4.7440
 2.6260	 4.6510
 2.6270	 4.6190
 2.6280	 4.6500
 2.6300	 4.6070
 2.6310	 4.5840
 2.6320	 4.5890
 2.6340	 4.6230
 2.6350	 4.6180
 2.6360	 4.6150
 2.6380	 4.5670
 2.6390	 4.5590
 2.6400	 4.5070
 2.6420	 4.4770
 2.6430	 4.4390
 2.6440	 4.4790
 2.6460	 4.4740
 2.6470	 4.4650
 2.6480	 4.3560
 2.6500	 4.3390
 2.6510	 4.3590
 2.6520	 4.3230
 2.6540	 4.2800
 2.6550	 4.2360
 2.6570	 4.2010
 2.6580	 4.2550
 2.6590	 4.2620
 2.6610	 4.2450
 2.6620	 4.2010
 2.6630	 4.1780
 2.6650	 4.1110
 2.6660	 4.1560
 2.6670	 4.1600
 2.6690	 4.1340
 2.6700	 4.1820
 2.6720	 4.2130
 2.6730	 4.1530
 2.6740	 4.1220
 2.6760	 4.0830
 2.6770	 4.1060
 2.6780	 4.1220
 2.6800	 4.1360
 2.6810	 4.0580
 2.6830	 4.0770
 2.6840	 4.0600
 2.6850	 4.0810
 2.6870	 4.0170
 2.6880	 3.9770
 2.6900	 3.9680
 2.6910	 4.0270
 2.6920	 4.0220
 2.6940	 4.0140
 2.6950	 4.0010
 2.6970	 3.9650
 2.6980	 3.9380
 2.6990	 3.9570
 2.7010	 3.9150
 2.7020	 3.9530
 2.7040	 3.9510
 2.7050	 3.9610
 2.7060	 3.8600
 2.7080	 3.7540
 2.7090	 3.7790
 2.7110	 3.8980
 2.7120	 3.9030
 2.7130	 3.9390
 2.7150	 3.8820
 2.7160	 3.8190
 2.7180	 3.7790
 2.7190	 3.8650
 2.7210	 3.9410
 2.7220	 3.9690
 2.7230	 3.8750
 2.7250	 3.8480
 2.7260	 3.8790
 2.7280	 3.8710
 2.7290	 3.7770
 2.7310	 3.7740
 2.7320	 3.7470
 2.7340	 3.8390
 2.7350	 3.8170
 2.7360	 3.7650
 2.7380	 3.7800
 2.7390	 3.8030
 2.7410	 3.7760
 2.7420	 3.7930
 2.7440	 3.7670
 2.7450	 3.7760
 2.7470	 3.7330
 2.7480	 3.7990
 2.7490	 3.7440
 2.7510	 3.6970
 2.7520	 3.7330
 2.7540	 3.7690
 2.7550	 3.7040
 2.7570	 3.6940
 2.7580	 3.6950
 2.7600	 3.7460
 2.7610	 3.7010
 2.7630	 3.6620
 2.7640	 3.5720
 2.7660	 3.6010
 2.7670	 3.6070
 2.7690	 3.7070
 2.7700	 3.7700
 2.7720	 3.7570
 2.7730	 3.6740
 2.7740	 3.6520
 2.7760	 3.6550
 2.7770	 3.6950
 2.7790	 3.7080
 2.7800	 3.7190
 2.7820	 3.6870
 2.7830	 3.6990
 2.7850	 3.6940
 2.7860	 3.7450
 2.7880	 3.6990
 2.7890	 3.6930
 2.7910	 3.5830
 2.7920	 3.5280
 2.7940	 3.5210
 2.7950	 3.5370
 2.7970	 3.5120
 2.7980	 3.5570
 2.8000	 3.5450
 2.8010	 3.5990
 2.8030	 3.6440
 2.8040	 3.6190
 2.8060	 3.5850
 2.8080	 3.6280
 2.8090	 3.5940
 2.8110	 3.5920
 2.8120	 3.6450
 2.8140	 3.6980
 2.8150	 3.5730
 2.8170	 3.5430
 2.8180	 3.5320
 2.8200	 3.5580
 2.8210	 3.5270
 2.8230	 3.5560
 2.8240	 3.5600
 2.8260	 3.5850
 2.8270	 3.5630
 2.8290	 3.5770
 2.8310	 3.5550
 2.8320	 3.5930
 2.8340	 3.6000
 2.8350	 3.5840
 2.8370	 3.5260
 2.8380	 3.5330
 2.8400	 3.5670
 2.8410	 3.5800
 2.8430	 3.5590
 2.8440	 3.5640
 2.8460	 3.5020
 2.8480	 3.5200
 2.8490	 3.5320
 2.8510	 3.6020
 2.8520	 3.5980
 2.8540	 3.6110
 2.8550	 3.5280
 2.8570	 3.4710
 2.8590	 3.4600
 2.8600	 3.5120
 2.8620	 3.5190
 2.8630	 3.5630
 2.8650	 3.5080
 2.8660	 3.4820
 2.8680	 3.4690
 2.8700	 3.5030
 2.8710	 3.4480
 2.8730	 3.4520
 2.8740	 3.4660
 2.8760	 3.4980
 2.8780	 3.4690
 2.8790	 3.5100
 2.8810	 3.5500
 2.8820	 3.5710
 2.8840	 3.5750
 2.8860	 3.5600
 2.8870	 3.4860
 2.8890	 3.5190
 2.8900	 3.4680
 2.8920	 3.5110
 2.8940	 3.5540
 2.8950	 3.5460
 2.8970	 3.4440
 2.8990	 3.5040
 2.9000	 3.5900
 2.9020	 3.5880
 2.9030	 3.4940
 2.9050	 3.4880
 2.9070	 3.5040
 2.9080	 3.5320
 2.9100	 3.4930
 2.9120	 3.5550
 2.9130	 3.5400
 2.9150	 3.5220
 2.9160	 3.4890
 2.9180	 3.4670
 2.9200	 3.4450
 2.9210	 3.5290
 2.9230	 3.5350
 2.9250	 3.5610
 2.9260	 3.5250
 2.9280	 3.4860
 2.9300	 3.3840
 2.9310	 3.4320
 2.9330	 3.4780
 2.9350	 3.4870
 2.9360	 3.4530
 2.9380	 3.5050
 2.9400	 3.4980
 2.9410	 3.4960
 2.9430	 3.4980
 2.9450	 3.5150
 2.9460	 3.4970
 2.9480	 3.5250
 2.9500	 3.4880
 2.9510	 3.5550
 2.9530	 3.5580
 2.9550	 3.5600
 2.9560	 3.5670
 2.9580	 3.5350
 2.9600	 3.5480
 2.9610	 3.5260
 2.9630	 3.5060
 2.9650	 3.5350
 2.9670	 3.4950
 2.9680	 3.5420
 2.9700	 3.5160
 2.9720	 3.5340
 2.9730	 3.5370
 2.9750	 3.5620
 2.9770	 3.5260
 2.9780	 3.5530
 2.9800	 3.5100
 2.9820	 3.5160
 2.9840	 3.5100
 2.9850	 3.4950
 2.9870	 3.4230
 2.9890	 3.4930
 2.9900	 3.5370
 2.9920	 3.5510
 2.9940	 3.5370
 2.9960	 3.5380
 2.9970	 3.5190
 2.9990	 3.5220
 3.0010	 3.5250
 3.0030	 3.5940
 3.0040	 3.5680
 3.0060	 3.5140
 3.0080	 3.4850
 3.0100	 3.5410
 3.0110	 3.5930
 3.0130	 3.5950
 3.0150	 3.5310
 3.0170	 3.5330
 3.0180	 3.5330
 3.0200	 3.6090
 3.0220	 3.5790
 3.0240	 3.6030
 3.0250	 3.5810
 3.0270	 3.5480
 3.0290	 3.5020
 3.0310	 3.5460
 3.0320	 3.5400
 3.0340	 3.5260
 3.0360	 3.5070
 3.0380	 3.4940
 3.0400	 3.4490
 3.0410	 3.4820
 3.0430	 3.5190
 3.0450	 3.5440
 3.0470	 3.4850
 3.0480	 3.4800
 3.0500	 3.4510
 3.0520	 3.5340
 3.0540	 3.5330
 3.0560	 3.5130
 3.0570	 3.4860
 3.0590	 3.5480
 3.0610	 3.5740
 3.0630	 3.5630
 3.0650	 3.5000
 3.0670	 3.5040
 3.0680	 3.5090
 3.0700	 3.5480
 3.0720	 3.5430
 3.0740	 3.5540
 3.0760	 3.5430
 3.0770	 3.5700
 3.0790	 3.5550
 3.0810	 3.6050
 3.0830	 3.5330
 3.0850	 3.4660
 3.0870	 3.4510
 3.0880	 3.4670
 3.0900	 3.4920
 3.0920	 3.5490
 3.0940	 3.5550
 3.0960	 3.5340
 3.0980	 3.4770
 3.1000	 3.4980
 3.1010	 3.5410
 3.1030	 3.5870
 3.1050	 3.5750
 3.1070	 3.5850
 3.1090	 3.5370
 3.1110	 3.5060
 3.1130	 3.4930
 3.1140	 3.5340
 3.1160	 3.5220
 3.1180	 3.4630
 3.1200	 3.3910
 3.1220	 3.4750
 3.1240	 3.4910
 3.1260	 3.4910
 3.1280	 3.4760
 3.1290	 3.4550
 3.1310	 3.4280
 3.1330	 3.4830
 3.1350	 3.5450
 3.1370	 3.5790
 3.1390	 3.5300
 3.1410	 3.5470
 3.1430	 3.5070
 3.1450	 3.4990
 3.1470	 3.5140
 3.1480	 3.5430
 3.1500	 3.4970
 3.1520	 3.5190
 3.1540	 3.4740
 3.1560	 3.4930
 3.1580	 3.5060
 3.1600	 3.5530
 3.1620	 3.5200
 3.1640	 3.4440
 3.1660	 3.3880
 3.1680	 3.4080
 3.1700	 3.4140
 3.1720	 3.4530
 3.1730	 3.4710
 3.1750	 3.5210
 3.1770	 3.5120
 3.1790	 3.5400
 3.1810	 3.5220
 3.1830	 3.5330
 3.1850	 3.4910
 3.1870	 3.4790
 3.1890	 3.4330
 3.1910	 3.4620
 3.1930	 3.4980
 3.1950	 3.4920
 3.1970	 3.4480
 3.1990	 3.4780
 3.2010	 3.4910
 3.2030	 3.4650
 3.2050	 3.4050
 3.2070	 3.4150
 3.2090	 3.4060
 3.2110	 3.4070
 3.2130	 3.4220
 3.2150	 3.4450
 3.2170	 3.4590
 3.2190	 3.4900
 3.2210	 3.4500
 3.2230	 3.4520
 3.2250	 3.4480
 3.2270	 3.4920
 3.2290	 3.4720
 3.2310	 3.4370
 3.2330	 3.4030
 3.2350	 3.4060
 3.2370	 3.4040
 3.2390	 3.4530
 3.2410	 3.4120
 3.2430	 3.4000
 3.2450	 3.4260
 3.2470	 3.4270
 3.2490	 3.4120
 3.2510	 3.4360
 3.2530	 3.4310
 3.2550	 3.4160
 3.2570	 3.3870
 3.2590	 3.4090
 3.2610	 3.3900
 3.2630	 3.4140
 3.2650	 3.3930
 3.2670	 3.3650
 3.2700	 3.3070
 3.2720	 3.3140
 3.2740	 3.3510
 3.2760	 3.4160
 3.2780	 3.4110
 3.2800	 3.4160
 3.2820	 3.3900
 3.2840	 3.3680
 3.2860	 3.3690
 3.2880	 3.3730
 3.2900	 3.2950
 3.2920	 3.2590
 3.2940	 3.2430
 3.2970	 3.2490
 3.2990	 3.2400
 3.3010	 3.2890
 3.3030	 3.2890
 3.3050	 3.2720
 3.3070	 3.2530
 3.3090	 3.2710
 3.3110	 3.2630
 3.3130	 3.2650
 3.3160	 3.2470
 3.3180	 3.2340
 3.3200	 3.1950
 3.3220	 3.2280
 3.3240	 3.1960
 3.3260	 3.1590
 3.3280	 3.1590
 3.3300	 3.1820
 3.3330	 3.1150
 3.3350	 3.0830
 3.3370	 3.0960
 3.3390	 3.1140
 3.3410	 3.0520
 3.3430	 3.0850
 3.3450	 3.1390
 3.3480	 3.0890
 3.3500	 3.0050
 3.3520	 2.9990
 3.3540	 2.9920
 3.3560	 2.9950
 3.3580	 2.9620
 3.3610	 2.9220
 3.3630	 2.8430
 3.3650	 2.8690
 3.3670	 2.8410
 3.3690	 2.8280
 3.3720	 2.7960
 3.3740	 2.7850
 3.3760	 2.7960
 3.3780	 2.8220
 3.3800	 2.8180
 3.3830	 2.8060
 3.3850	 2.7810
 3.3870	 2.7580
 3.3890	 2.7000
 3.3910	 2.7010
 3.3940	 2.6910
 3.3960	 2.6220
 3.3980	 2.5800
 3.4000	 2.6700
 3.4030	 2.7070
 3.4050	 2.7270
 3.4070	 2.8480
 3.4090	 3.1020
 3.4110	 3.3450
 3.4140	 3.6400
 3.4160	 4.0380
 3.4180	 4.5560
 3.4200	 5.2690
 3.4230	 6.2810
 3.4250	 7.4000
 3.4270	 8.5910
 3.4300	 9.2710
 3.4320	 8.9150
 3.4340	 7.8240
 3.4360	 6.8190
 3.4390	 6.1310
 3.4410	 5.6840
 3.4430	 5.3550
 3.4450	 5.1690
 3.4480	 5.0630
 3.4500	 4.9810
 3.4520	 4.8980
 3.4550	 4.8510
 3.4570	 4.7860
 3.4590	 4.7220
 3.4620	 4.6390
 3.4640	 4.6130
 3.4660	 4.5270
 3.4690	 4.4550
 3.4710	 4.3510
 3.4730	 4.2290
 3.4760	 4.1110
 3.4780	 4.0420
 3.4800	 3.9850
 3.4830	 3.9020
 3.4850	 3.7700
 3.4870	 3.7000
 3.4900	 3.6270
 3.4920	 3.5990
 3.4940	 3.5860
 3.4970	 3.5920
 3.4990	 3.6710
 3.5010	 3.8810
 3.5040	 4.2880
 3.5060	 5.2230
 3.5080	 6.8250
 3.5110	 8.2400
 3.5130	 8.2240
 3.5160	 7.2540
 3.5180	 6.3160
 3.5200	 5.7530
 3.5230	 5.4210
 3.5250	 5.2090
 3.5280	 4.9970
 3.5300	 4.8530
 3.5320	 4.8110
 3.5350	 4.7760
 3.5370	 4.6440
 3.5400	 4.5760
 3.5420	 4.5490
 3.5440	 4.4780
 3.5470	 4.4170
 3.5490	 4.4360
 3.5520	 4.4100
 3.5540	 4.3470
 3.5570	 4.3130
 3.5590	 4.3260
 3.5610	 4.3360
 3.5640	 4.3050
 3.5660	 4.2580
 3.5690	 4.2730
 3.5710	 4.2580
 3.5740	 4.2490
 3.5760	 4.2470
 3.5790	 4.2760
 3.5810	 4.2410
 3.5840	 4.1960
 3.5860	 4.2070
 3.5890	 4.2270
 3.5910	 4.1860
 3.5940	 4.1710
 3.5960	 4.1570
 3.5990	 4.1510
 3.6010	 4.0980
 3.6040	 4.1010
 3.6060	 4.1120
 3.6090	 4.0970
 3.6110	 4.0880
 3.6140	 4.0790
 3.6160	 4.0480
 3.6190	 4.0610
 3.6210	 4.0580
 3.6240	 4.0590
 3.6260	 4.0360
 3.6290	 4.0880
 3.6310	 4.0560
 3.6340	 4.0110
 3.6360	 4.0220
 3.6390	 4.0350
 3.6410	 4.0030
 3.6440	 3.9950
 3.6470	 3.9790
 3.6490	 4.0050
 3.6520	 3.9870
 3.6540	 3.9850
 3.6570	 3.9760
 3.6590	 3.9990
 3.6620	 3.9890
 3.6650	 3.9810
 3.6670	 3.9800
 3.6700	 4.0010
 3.6720	 3.9920
 3.6750	 4.0020
 3.6780	 3.9940
 3.6800	 4.0330
 3.6830	 4.0440
 3.6850	 4.0030
 3.6880	 3.9670
 3.6910	 4.0010
 3.6930	 3.9920
 3.6960	 3.9760
 3.6990	 3.9730
 3.7010	 3.9490
 3.7040	 3.9500
 3.7070	 3.9770
 3.7090	 3.9560
 3.7120	 3.9650
 3.7150	 3.9580
 3.7170	 3.9700
 3.7200	 3.9610
 3.7230	 3.9500
 3.7250	 3.9520
 3.7280	 3.9720
 3.7310	 3.9400
 3.7330	 3.9280
 3.7360	 3.9190
 3.7390	 3.9580
 3.7410	 3.9700
 3.7440	 3.9480
 3.7470	 3.9000
 3.7490	 3.9000
 3.7520	 3.9170
 3.7550	 3.9280
 3.7580	 3.9460
 3.7600	 3.9720
 3.7630	 3.9730
 3.7660	 3.9480
 3.7690	 3.9220
 3.7710	 3.9340
 3.7740	 3.9270
 3.7770	 3.9500
 3.7790	 3.9500
 3.7820	 3.9380
 3.7850	 3.9050
 3.7880	 3.8860
 3.7910	 3.8920
 3.7930	 3.8920
 3.7960	 3.9080
 3.7990	 3.9180
 3.8020	 3.8890
 3.8040	 3.8860
 3.8070	 3.8910
 3.8100	 3.9320
 3.8130	 3.9240
 3.8160	 3.8980
 3.8180	 3.8850
 3.8210	 3.9120
 3.8240	 3.9110
 3.8270	 3.9520
 3.8300	 3.9610
 3.8330	 3.9770
 3.8350	 3.9920
 3.8380	 3.9790
 3.8410	 3.9280
 3.8440	 3.9250
 3.8470	 3.9140
 3.8500	 3.9360
 3.8520	 3.9450
 3.8550	 3.9570
 3.8580	 3.9570
 3.8610	 3.9450
 3.8640	 3.9330
 3.8670	 3.9840
 3.8700	 3.9950
 3.8730	 3.9510
 3.8760	 3.9450
 3.8780	 3.9320
 3.8810	 3.9090
 3.8840	 3.9420
 3.8870	 3.9350
 3.8900	 3.9580
 3.8930	 3.9590
 3.8960	 3.9260
 3.8990	 3.9400
 3.9020	 3.9690
 3.9050	 3.9450
 3.9080	 3.8990
 3.9110	 3.9120
 3.9140	 3.9650
 3.9170	 3.9720
 3.9190	 3.9790
 3.9220	 3.9620
 3.9250	 3.9600
 3.9280	 3.9560
 3.9310	 3.9440
 3.9340	 3.9280
 3.9370	 3.9340
 3.9400	 3.9300
 3.9430	 3.9250
 3.9460	 3.9230
 3.9490	 3.9500
 3.9520	 3.9710
 3.9550	 3.9430
 3.9580	 3.8910
 3.9610	 3.8950
 3.9640	 3.8920
 3.9670	 3.8840
 3.9700	 3.8860
 3.9740	 3.9110
 3.9770	 3.9080
 3.9800	 3.8970
 3.9830	 3.9060
 3.9860	 3.9550
 3.9890	 3.9490
 3.9920	 3.8930
 3.9950	 3.8610
 3.9980	 3.8630
 4.0010	 3.8790
 4.0040	 3.9000
 4.0070	 3.9070
 4.0100	 3.9210
 4.0140	 3.8790
 4.0170	 3.8770
 4.0200	 3.9160
 4.0230	 3.9140
 4.0260	 3.9090
 4.0290	 3.9180
 4.0320	 3.8870
 4.0350	 3.8830
 4.0390	 3.9150
 4.0420	 3.9350
 4.0450	 3.9340
 4.0480	 3.9070
 4.0510	 3.8920
 4.0540	 3.9010
 4.0570	 3.9130
 4.0610	 3.9470
 4.0640	 3.9340
 4.0670	 3.8980
 4.0700	 3.8900
 4.0730	 3.9100
 4.0770	 3.9040
 4.0800	 3.9160
 4.0830	 3.8920
 4.0860	 3.9050
 4.0890	 3.9360
 4.0930	 3.9340
 4.0960	 3.9200
 4.0990	 3.8930
 4.1020	 3.8910
 4.1060	 3.8820
 4.1090	 3.8750
 4.1120	 3.8780
 4.1150	 3.8770
 4.1190	 3.8880
 4.1220	 3.9020
 4.1250	 3.9160
 4.1290	 3.9050
 4.1320	 3.8860
 4.1350	 3.8810
 4.1380	 3.9000
 4.1420	 3.8850
 4.1450	 3.8570
 4.1480	 3.8490
 4.1520	 3.8620
 4.1550	 3.8720
 4.1580	 3.8590
 4.1620	 3.8400
 4.1650	 3.8070
 4.1680	 3.7940
 4.1720	 3.8300
 4.1750	 3.8800
 4.1780	 3.8850
 4.1820	 3.8670
 4.1850	 3.8550
 4.1890	 3.8600
 4.1920	 3.8720
 4.1950	 3.8670
 4.1990	 3.8700
 4.2020	 3.8740
 4.2060	 3.9220
 4.2090	 3.9730
 4.2120	 4.0100
 4.2160	 4.0050
 4.2190	 4.0140
 4.2230	 4.1030
 4.2260	 4.1980
 4.2300	 4.2120
 4.2330	 4.1820
 4.2360	 4.1170
 4.2400	 4.0780
 4.2430	 4.0780
 4.2470	 4.0590
 4.2500	 4.0070
 4.2540	 3.9580
 4.2570	 3.9480
 4.2610	 3.9730
 4.2640	 4.0190
 4.2680	 4.0500
 4.2710	 4.0480
 4.2750	 4.0330
 4.2780	 3.9550
 4.2820	 3.9650
 4.2850	 4.0100
 4.2890	 4.0340
 4.2930	 4.0170
 4.2960	 3.9930
 4.3000	 3.9740
 4.3030	 3.9670
 4.3070	 3.9500
 4.3100	 3.9350
 4.3140	 3.9070
 4.3180	 3.8840
 4.3210	 3.8850
 4.3250	 3.9010
 4.3280	 3.8950
 4.3320	 3.8930
 4.3360	 3.8810
 4.3390	 3.8530
 4.3430	 3.8290
 4.3470	 3.8330
 4.3500	 3.8210
 4.3540	 3.8390
 4.3580	 3.8340
 4.3610	 3.8210
 4.3650	 3.8250
 4.3690	 3.8160
 4.3720	 3.7710
 4.3760	 3.7720
 4.3800	 3.7860
 4.3830	 3.7890
 4.3870	 3.7720
 4.3910	 3.7670
 4.3940	 3.8100
 4.3980	 3.8450
 4.4020	 3.8470
 4.4060	 3.8170
 4.4090	 3.7800
 4.4130	 3.7730
 4.4170	 3.7590
 4.4210	 3.7490
 4.4240	 3.7800
 4.4280	 3.7980
 4.4320	 3.8190
 4.4360	 3.8050
 4.4400	 3.7590
 4.4430	 3.7440
 4.4470	 3.7680
 4.4510	 3.7870
 4.4550	 3.7760
 4.4590	 3.8000
 4.4630	 3.7950
 4.4660	 3.7500
 4.4700	 3.7370
 4.4740	 3.7730
 4.4780	 3.7680
 4.4820	 3.7470
 4.4860	 3.7660
 4.4900	 3.7770
 4.4930	 3.7530
 4.4970	 3.7270
 4.5010	 3.7040
 4.5050	 3.7190
 4.5090	 3.7570
 4.5130	 3.7560
 4.5170	 3.7740
 4.5210	 3.7550
 4.5250	 3.7600
 4.5290	 3.7420
 4.5330	 3.6970
 4.5370	 3.6890
 4.5410	 3.7070
 4.5450	 3.7070
 4.5490	 3.7100
 4.5530	 3.7320
 4.5570	 3.7680
 4.5610	 3.7370
 4.5650	 3.6830
 4.5690	 3.6760
 4.5730	 3.7170
 4.5770	 3.7350
 4.5810	 3.7430
 4.5850	 3.7330
 4.5890	 3.7200
 4.5930	 3.7070
 4.5970	 3.7090
 4.6010	 3.7420
 4.6050	 3.7610
 4.6090	 3.7320
 4.6130	 3.7250
 4.6170	 3.7120
 4.6220	 3.7070
 4.6260	 3.7260
 4.6300	 3.7550
 4.6340	 3.7720
 4.6380	 3.7590
 4.6420	 3.7200
 4.6460	 3.7320
 4.6510	 3.7330
 4.6550	 3.7090
 4.6590	 3.6910
 4.6630	 3.7050
 4.6670	 3.7410
 4.6720	 3.7310
 4.6760	 3.6780
 4.6800	 3.6780
 4.6840	 3.6920
 4.6880	 3.7200
 4.6930	 3.7100
 4.6970	 3.7050
 4.7010	 3.7380
 4.7050	 3.7660
 4.7100	 3.7540
 4.7140	 3.7480
 4.7180	 3.7330
 4.7230	 3.7140
 4.7270	 3.6900
 4.7310	 3.7360
 4.7360	 3.7450
 4.7400	 3.7060
 4.7440	 3.6730
 4.7490	 3.6960
 4.7530	 3.6990
 4.7570	 3.7150
 4.7620	 3.7150
 4.7660	 3.7160
 4.7700	 3.7280
 4.7750	 3.6830
 4.7790	 3.6610
 4.7840	 3.7000
 4.7880	 3.7050
 4.7920	 3.7070
 4.7970	 3.7090
 4.8010	 3.7000
 4.8060	 3.6970
 4.8100	 3.7330
 4.8150	 3.7470
 4.8190	 3.7130
 4.8240	 3.6830
 4.8280	 3.7240
 4.8330	 3.7110
 4.8370	 3.6680
 4.8420	 3.6790
 4.8460	 3.6820
 4.8510	 3.6650
 4.8550	 3.6780
 4.8600	 3.6810
 4.8640	 3.7240
 4.8690	 3.7320
 4.8740	 3.7220
 4.8780	 3.6940
 4.8830	 3.7360
 4.8870	 3.7180
 4.8920	 3.7010
 4.8970	 3.6820
 4.9010	 3.6730
 4.9060	 3.6700
 4.9100	 3.7110
 4.9150	 3.7190
 4.9200	 3.7080
 4.9240	 3.7070
 4.9290	 3.7230
 4.9340	 3.7010
 4.9390	 3.6720
 4.9430	 3.6380
 4.9480	 3.6950
 4.9530	 3.7240
 4.9570	 3.7020
 4.9620	 3.7080
 4.9670	 3.7350
 4.9720	 3.7040
 4.9760	 3.7270
 4.9810	 3.7320
 4.9860	 3.7180
 4.9910	 3.7280
 4.9960	 3.7300
 5.0000	 3.7000
 5.0050	 3.7130
 5.0100	 3.7150
 5.0150	 3.6940
 5.0200	 3.6800
 5.0250	 3.7220
 5.0300	 3.7360
 5.0340	 3.7350
 5.0390	 3.7170
 5.0440	 3.7250
 5.0490	 3.6660
 5.0540	 3.6490
 5.0590	 3.6760
 5.0640	 3.7060
 5.0690	 3.7220
 5.0740	 3.7640
 5.0790	 3.7430
 5.0840	 3.7370
 5.0890	 3.7530
 5.0940	 3.7420
 5.0990	 3.6840
 5.1040	 3.6750
 5.1090	 3.6760
 5.1140	 3.7080
 5.1190	 3.6970
 5.1240	 3.7090
 5.1290	 3.7340
 5.1340	 3.7420
 5.1390	 3.6820
 5.1440	 3.6910
 5.1490	 3.7200
 5.1550	 3.7580
 5.1600	 3.7500
 5.1650	 3.7240
 5.1700	 3.7240
 5.1750	 3.7500
 5.1800	 3.7200
 5.1850	 3.7110
 5.1910	 3.6880
 5.1960	 3.7060
 5.2010	 3.7200
 5.2060	 3.7360
 5.2110	 3.7180
 5.2170	 3.7310
 5.2220	 3.7250
 5.2270	 3.7000
 5.2330	 3.6850
 5.2380	 3.7260
 5.2430	 3.7150
 5.2480	 3.6990
 5.2540	 3.6910
 5.2590	 3.6880
 5.2640	 3.6540
 5.2700	 3.6890
 5.2750	 3.6540
 5.2800	 3.6500
 5.2860	 3.6600
 5.2910	 3.6910
 5.2970	 3.6860
 5.3020	 3.7060
 5.3080	 3.6940
 5.3130	 3.6980
 5.3180	 3.6880
 5.3240	 3.6750
 5.3290	 3.6360
 5.3350	 3.6430
 5.3400	 3.6520
 5.3460	 3.6570
 5.3510	 3.6420
 5.3570	 3.6610
 5.3620	 3.6540
 5.3680	 3.6570
 5.3740	 3.6300
 5.3790	 3.6570
 5.3850	 3.6430
 5.3900	 3.6360
 5.3960	 3.6230
 5.4010	 3.6860
 5.4070	 3.6920
 5.4130	 3.6600
 5.4180	 3.6070
 5.4240	 3.6210
 5.4300	 3.5930
 5.4350	 3.6110
 5.4410	 3.5890
 5.4470	 3.5970
 5.4530	 3.5910
 5.4580	 3.6330
 5.4640	 3.6270
 5.4700	 3.6110
 5.4760	 3.5690
 5.4810	 3.5730
 5.4870	 3.5600
 5.4930	 3.5740
 5.4990	 3.5470
 5.5050	 3.5740
 5.5110	 3.5470
 5.5160	 3.5400
 5.5220	 3.5230
 5.5280	 3.5410
 5.5340	 3.5210
 5.5400	 3.4890
 5.5460	 3.4810
 5.5520	 3.5080
 5.5580	 3.4600
 5.5640	 3.4430
 5.5700	 3.4260
 5.5760	 3.4210
 5.5820	 3.4120
 5.5880	 3.4530
 5.5940	 3.4310
 5.6000	 3.4160
 5.6060	 3.3740
 5.6120	 3.3660
 5.6180	 3.3310
 5.6240	 3.3010
 5.6300	 3.2330
 5.6360	 3.2500
 5.6420	 3.2460
 5.6490	 3.2580
 5.6550	 3.2130
 5.6610	 3.1770
 5.6670	 3.1080
 5.6730	 3.0690
 5.6800	 2.9860
 5.6860	 2.9390
 5.6920	 2.8650
 5.6980	 2.8450
 5.7050	 2.8190
 5.7110	 2.7680
 5.7170	 2.6330
 5.7230	 2.6030
 5.7300	 2.5550
 5.7360	 2.5090
 5.7420	 2.4680
 5.7490	 2.5450
 5.7550	 2.6750
 5.7620	 2.8390
 5.7680	 3.0040
 5.7740	 3.1810
 5.7810	 3.3030
 5.7870	 3.4930
 5.7940	 3.5880
 5.8000	 3.6410
 5.8070	 3.6330
 5.8130	 3.7100
 5.8200	 3.7510
 5.8260	 3.8020
 5.8330	 3.7630
 5.8390	 3.7900
 5.8460	 3.8390
 5.8530	 3.8880
 5.8590	 3.8580
 5.8660	 3.9120
 5.8730	 3.9000
 5.8790	 3.8810
 5.8860	 3.8810
 5.8930	 3.9170
 5.8990	 3.8500
 5.9060	 3.8750
 5.9130	 3.8900
 5.9190	 3.8900
 5.9260	 3.8520
 5.9330	 3.8820
 5.9400	 3.8780
 5.9470	 3.8660
 5.9530	 3.8080
 5.9600	 3.7980
 5.9670	 3.7440
 5.9740	 3.7610
 5.9810	 3.7220
 5.9880	 3.7360
 5.9950	 3.6900
 6.0020	 3.6600
 6.0090	 3.6790
 6.0160	 3.7120
 6.0230	 3.6450
 6.0300	 3.6510
 6.0370	 3.6050
 6.0440	 3.6210
 6.0510	 3.5910
 6.0580	 3.5620
 6.0650	 3.5160
 6.0720	 3.5580
 6.0790	 3.5420
 6.0860	 3.6070
 6.0930	 3.5730
 6.1010	 3.6130
 6.1080	 3.6110
 6.1150	 3.5890
 6.1220	 3.5380
 6.1290	 3.5370
 6.1370	 3.5330
 6.1440	 3.5890
 6.1510	 3.5450
 6.1580	 3.5490
 6.1660	 3.4830
 6.1730	 3.5230
 6.1800	 3.5280
 6.1880	 3.5400
 6.1950	 3.4950
 6.2030	 3.5140
 6.2100	 3.4470
 6.2180	 3.5130
 6.2250	 3.5530
 6.2320	 3.6090
 6.2400	 3.5970
 6.2480	 3.6480
 6.2550	 3.6000
 6.2630	 3.6190
 6.2700	 3.5790
 6.2780	 3.6030
 6.2850	 3.5680
 6.2930	 3.5790
 6.3010	 3.5260
 6.3080	 3.5460
 6.3160	 3.5310
 6.3240	 3.5890
 6.3310	 3.5790
 6.3390	 3.6020
 6.3470	 3.5300
 6.3550	 3.5550
 6.3620	 3.5350
 6.3700	 3.5850
 6.3780	 3.5540
 6.3860	 3.5410
 6.3940	 3.4700
 6.4020	 3.4440
 6.4100	 3.3980
 6.4180	 3.4720
 6.4260	 3.4590
 6.4340	 3.4970
 6.4420	 3.4840
 6.4500	 3.4920
 6.4580	 3.4210
 6.4660	 3.3950
 6.4740	 3.3570
 6.4820	 3.4050
 6.4900	 3.3950
 6.4980	 3.4210
 6.5060	 3.3920
 6.5140	 3.4180
 6.5230	 3.3870
 6.5310	 3.3920
 6.5390	 3.3320
 6.5470	 3.2950
 6.5560	 3.2570
 6.5640	 3.2920
 6.5720	 3.2770
 6.5800	 3.3070
 6.5890	 3.2330
 6.5970	 3.2380
 6.6060	 3.2410
 6.6140	 3.2660
 6.6230	 3.2050
 6.6310	 3.2470
 6.6390	 3.1960
 6.6480	 3.2010
 6.6570	 3.1900
 6.6650	 3.2280
 6.6740	 3.2360
 6.6820	 3.2670
 6.6910	 3.1930
 6.7000	 3.2030
 6.7080	 3.1590
 6.7170	 3.1670
 6.7260	 3.1290
 6.7340	 3.1180
 6.7430	 3.0820
 6.7520	 3.1230
 6.7610	 3.0520
 6.7690	 3.0320
 6.7780	 3.1150
 6.7870	 3.4560
 6.7960	 3.4160
 6.8050	 3.1850
 6.8140	 3.0550
 6.8230	 3.1730
 6.8320	 3.4560
 6.8410	 3.6790
 6.8500	 3.4680
 6.8590	 3.3780
 6.8680	 3.3210
 6.8770	 3.3010
 6.8860	 3.2700
 6.8960	 3.3460
 6.9050	 3.2950
 6.9140	 3.2680
 6.9230	 3.2450
 6.9320	 3.3100
 6.9420	 3.2850
 6.9510	 3.3080
 6.9600	 3.2540
 6.9700	 3.3190
 6.9790	 3.2890
 6.9880	 3.2860
 6.9980	 3.2470
 7.0070	 3.2720
 7.0170	 3.2120
 7.0260	 3.2660
 7.0360	 3.2210
 7.0450	 3.2680
 7.0550	 3.2770
 7.0650	 3.3090
 7.0740	 3.2850
 7.0840	 3.3320
 7.0940	 3.2500
 7.1030	 3.2170
 7.1130	 3.1870
 7.1230	 3.2240
 7.1330	 3.1410
 7.1420	 3.1520
 7.1520	 3.0990
 7.1620	 3.1600
 7.1720	 3.1260
 7.1820	 3.0950
 7.1920	 3.0200
 7.2020	 3.0250
 7.2120	 2.9900
 7.2220	 3.0280
 7.2320	 3.0150
 7.2420	 3.0750
 7.2520	 3.0410
 7.2620	 3.1330
 7.2730	 3.1330
 7.2830	 3.1290
 7.2930	 3.0640
 7.3030	 3.1240
 7.3140	 3.0360
 7.3240	 3.0370
 7.3340	 3.0380
 7.3450	 3.1090
 7.3550	 3.0480
 7.3660	 3.0940
 7.3760	 3.0560
 7.3870	 3.1050
 7.3970	 3.0670
 7.4080	 3.1020
 7.4180	 3.0900
 7.4290	 3.1230
 7.4400	 3.0480
 7.4500	 3.0210
 7.4610	 2.9510
 7.4720	 3.0030
 7.4830	 3.0190
 7.4930	 3.0130
 7.5040	 2.9530
 7.5150	 3.0600
 7.5260	 3.0520
 7.5370	 3.0610
 7.5480	 3.0240
 7.5590	 3.0470
 7.5700	 2.9840
 7.5810	 3.0380
 7.5920	 2.9930
 7.6030	 3.0080
 7.6140	 3.0070
 7.6260	 3.0750
 7.6370	 3.0460
 7.6480	 3.1020
 7.6590	 3.0070
 7.6710	 3.0080
 7.6820	 2.9980
 7.6940	 3.0190
 7.7050	 2.9370
 7.7160	 2.9470
 7.7280	 2.8940
 7.7390	 2.9560
 7.7510	 2.9090
 7.7630	 2.9200
 7.7740	 2.8650
 7.7860	 2.8960
 7.7980	 2.8220
 7.8090	 2.8510
 7.8210	 2.7840
 7.8330	 2.7920
 7.8450	 2.7440
 7.8570	 2.7870
 7.8690	 2.7430
 7.8810	 2.8310
 7.8930	 2.8010
 7.9050	 2.8340
 7.9170	 2.7780
 7.9290	 2.8600
 7.9410	 2.7910
 7.9530	 2.8150
 7.9650	 2.7840
 7.9780	 2.8560
 7.9900	 2.7980
 8.0020	 2.8370
 8.0150	 2.7840
 8.0270	 2.9240
 8.0390	 2.9500
 8.0520	 3.0430
 8.0640	 2.9390
 8.0770	 2.9390
 8.0900	 2.9370
 8.1020	 3.0890
 8.1150	 3.0170
 8.1280	 3.0870
 8.1400	 3.0580
 8.1530	 3.0420
 8.1660	 2.9230
 8.1790	 3.0000
 8.1920	 2.9810
 8.2050	 3.0310
 8.2180	 2.9730
 8.2310	 3.0330
 8.2440	 2.9200
 8.2570	 2.9470
 8.2700	 2.9210
 8.2830	 3.0330
 8.2970	 2.9550
 8.3100	 3.0120
 8.3230	 2.9670
 8.3370	 3.0960
 8.3500	 3.0110
 8.3640	 3.0060
 8.3770	 2.9260
 8.3910	 3.0280
 8.4040	 2.9630
 8.4180	 3.0540
 8.4320	 3.0020
 8.4450	 3.1000
 8.4590	 3.0880
 8.4730	 3.1770
 8.4870	 3.1280
 8.5010	 3.2930
 8.5150	 3.3240
 8.5290	 3.4610
 8.5430	 3.4520
 8.5570	 3.6150
 8.5710	 3.5910
 8.5850	 3.6330
 8.5990	 3.6020
 8.6140	 3.8010
 8.6280	 3.7680
 8.6420	 3.7820
 8.6570	 3.6930
 8.6710	 3.7550
 8.6860	 3.6630
 8.7000	 3.7290
 8.7150	 3.6520
 8.7300	 3.7840
 8.7440	 3.7110
 8.7590	 3.7460
 8.7740	 3.6900
 8.7890	 3.7820
 8.8040	 3.6970
 8.8190	 3.7380
 8.8340	 3.6250
 8.8490	 3.7070
 8.8640	 3.6550
 8.8790	 3.6780
 8.8940	 3.6730
 8.9100	 3.7810
 8.9250	 3.5880
 8.9400	 3.6610
 8.9560	 3.6140
 8.9710	 3.7120
 8.9870	 3.6870
 9.0020	 3.7730
 9.0180	 3.6260
 9.0340	 3.7090
 9.0500	 3.6330
 9.0650	 3.7100
 9.0810	 3.6340
 9.0970	 3.6980
 9.1130	 3.6300
 9.1290	 3.7910
 9.1450	 3.6930
 9.1620	 3.7350
 9.1780	 3.6580
 9.1940	 3.7760
 9.2100	 3.7060
 9.2270	 3.7680
 9.2430	 3.7420
 9.2600	 3.8530
 9.2760	 3.7170
 9.2930	 3.8120
 9.3100	 3.8050
 9.3260	 3.9060
 9.3430	 3.8140
 9.3600	 3.9220
 9.3770	 3.8050
 9.3940	 3.8720
 9.4110	 3.7760
 9.4280	 3.8510
 9.4450	 3.7690
 9.4620	 3.8610
 9.4800	 3.7240
 9.4970	 3.7800
 9.5150	 3.7040
 9.5320	 3.7610
 9.5500	 3.5740
 9.5670	 3.6800
 9.5850	 3.6560
 9.6030	 3.7840
 9.6200	 3.7180
 9.6380	 3.8180
 9.6560	 3.7210
 9.6740	 3.7360
 9.6920	 3.5970
 9.7110	 3.5910
 9.7290	 3.4420
 9.7470	 3.5610
 9.7650	 3.6070
 9.7840	 3.6940
 9.8020	 3.5160
 9.8210	 3.1030
 9.8390	 2.8700
 9.8580	 3.5090
 9.8770	 3.5120
 9.8960	 3.5600
 9.9150	 3.4450
 9.9340	 3.5230
 9.9530	 3.4270
 9.9720	 3.5050
 9.9910	 3.3740
10.0100	 3.4900
10.0300	 3.4160
10.0490	 3.4670
10.0690	 3.3980
10.0880	 3.4810
10.1080	 3.3590
10.1280	 3.4170
10.1480	 3.2820
10.1670	 3.3850
10.1870	 3.3670
10.2070	 3.4670
10.2280	 3.3910
10.2480	 3.4870
10.2680	 3.4140
10.2890	 3.4950
10.3090	 3.3800
10.3300	 3.4880
10.3500	 3.4300
10.3710	 3.5590
10.3920	 3.4810
10.4120	 3.5880
10.4330	 3.4890
10.4540	 3.5620
10.4760	 3.5350
10.4970	 3.6650
10.5180	 3.5710
10.5390	 3.6400
10.5610	 3.5370
10.5820	 3.6440
10.6040	 3.5610
10.6260	 3.6730
10.6480	 3.5760
10.6700	 3.6870
10.6920	 3.5670
10.7140	 3.6690
10.7360	 3.5370
10.7580	 3.6500
10.7800	 3.6130
10.8030	 3.7110
10.8250	 3.6340
10.8480	 3.8110
10.8710	 3.7320
10.8940	 3.7480
10.9170	 3.5940
10.9400	 3.7040
10.9630	 3.6850
10.9860	 3.8510
11.0090	 3.7280
11.0330	 3.7870
11.0560	 3.7080
11.0800	 3.7990
11.1040	 3.6840
11.1270	 3.8060
11.1510	 3.7510
11.1750	 3.8800
11.2000	 3.8020
11.2240	 3.9160
11.2480	 3.7940
11.2730	 3.9550
11.2970	 3.9440
11.3220	 4.1370
11.3470	 3.9960
11.3720	 4.0680
11.3970	 3.9490
11.4220	 4.0360
11.4470	 4.0530
11.4720	 4.2460
11.4980	 4.0430
11.5230	 4.1610
11.5490	 4.1060
11.5750	 4.2510
11.6000	 4.1600
11.6260	 4.3190
11.6530	 4.2390
11.6790	 4.3040
11.7050	 4.1950
11.7320	 4.3020
11.7580	 4.2050
11.7850	 4.3950
11.8120	 4.3060
11.8390	 4.4050
11.8660	 4.3270
11.8930	 4.5220
11.9200	 4.3560
11.9480	 4.4710
11.9760	 4.2980
12.0030	 4.4190
12.0310	 4.4020
12.0590	 4.5970
12.0870	 4.5110
12.1150	 4.6490
12.1440	 4.5140
12.1720	 4.6680
12.2010	 4.5420
12.2300	 4.6510
12.2590	 4.5720
12.2880	 4.7790
12.3170	 4.6120
12.3460	 4.7780
12.3760	 4.7290
12.4050	 4.8750
12.4350	 4.6790
12.4650	 4.8410
12.4950	 4.6720
12.5250	 4.7580
12.5550	 4.6930
12.5860	 4.8800
12.6170	 4.7970
12.6470	 5.0320
12.6780	 4.8960
12.7090	 4.9710
12.7410	 4.8900
12.7720	 5.0840
12.8030	 4.8560
12.8350	 4.9610
12.8670	 4.8470
12.8990	 5.0640
12.9310	 4.9040
12.9640	 5.0520
12.9960	 4.8590
13.0290	 4.9560
13.0610	 4.8120
13.0940	 4.9550
13.1280	 4.8460
13.1610	 5.0620
13.1940	 4.8290
13.2280	 4.9670
13.2620	 4.8590
13.2960	 5.0000
13.3300	 4.6700
13.3640	 4.8370
13.3990	 4.7900
13.4340	 4.9780
13.4690	 4.8440
13.5040	 4.9750
13.5390	 4.7610
13.5740	 4.9770
13.6100	 4.8080
13.6460	 5.0430
13.6820	 4.9870
13.7180	 5.1670
13.7540	 5.0310
13.7910	 5.2360
13.8280	 5.0260
13.8650	 5.3000
13.9020	 5.1320
13.9390	 5.3670
13.9770	 5.0320
14.0150	 5.1850
14.0530	 5.0480
14.0910	 5.2860
14.1290	 4.9750
14.1680	 5.0930
14.2070	 4.8780
14.2460	 5.1640
14.2850	 4.9190
14.3240	 5.0510
14.3640	 4.7840
14.4040	 5.0530
14.4440	 4.9310
14.4840	 5.2260
14.5250	 4.9540
14.5660	 5.1940
14.6070	 4.7870
14.6480	 4.9740
14.6900	 4.6380
14.7310	 4.9860
14.7730	 4.8170
14.8150	 5.1520
14.8580	 4.7070
14.9010	 4.9380
14.9440	 4.4930
14.9870	 5.1280
15.0300	 4.7010
15.0740	 4.9350
15.1180	 4.5480
15.1620	 4.8610
15.2060	 4.4820
15.2510	 4.7860
15.2960	 4.3230
15.3410	 4.8330
15.3870	 0.0000
