Name: Juniperus chinensis
Type: vegetation
Class: Shrub
Genus: Juniperus
Species: chinensis
Sample No.: JPL097
Owner: JPL
Wavelength Range: VSWIR
Origin: 34.12553; - 118.11185; WGS84
Collection Date: 2/2/2016
Description: Samples were collected at the Huntington Garden in San Marino California as part of a JPL Subcontract studying HyTES imagery. Samples were taken to JPL and processed within 48 hours of collection. The same leaves were processed in the Nicolet and then measured using the ASD.
Measurement: Bidirectional reflectance
First Column: X
Second Column: Y
X Units: Wavelength (micrometer)
Y Units: Reflectance (percentage)
First X Value: 0.35
Last X Value: 2.5
Number of X Values: 2151
Additional Information: 

 0.3500	 4.8010
 0.3510	 3.6860
 0.3520	 3.2350
 0.3530	 3.3510
 0.3540	 3.2640
 0.3550	 3.7700
 0.3560	 4.4410
 0.3570	 4.4090
 0.3580	 2.9030
 0.3590	 2.4160
 0.3600	 2.7260
 0.3610	 3.3550
 0.3620	 4.0330
 0.3630	 3.5860
 0.3640	 3.0620
 0.3650	 3.5590
 0.3660	 4.1200
 0.3670	 3.8190
 0.3680	 3.2960
 0.3690	 4.0520
 0.3700	 3.8440
 0.3710	 3.0470
 0.3720	 2.4690
 0.3730	 2.9630
 0.3740	 3.1330
 0.3750	 2.9590
 0.3760	 2.8640
 0.3770	 3.0200
 0.3780	 3.2230
 0.3790	 3.2930
 0.3800	 3.1390
 0.3810	 3.4390
 0.3820	 3.7120
 0.3830	 3.5870
 0.3840	 3.2590
 0.3850	 3.2820
 0.3860	 3.4890
 0.3870	 3.4730
 0.3880	 3.3350
 0.3890	 3.2260
 0.3900	 3.2420
 0.3910	 3.4140
 0.3920	 3.4940
 0.3930	 3.3070
 0.3940	 2.9710
 0.3950	 3.3550
 0.3960	 3.6490
 0.3970	 3.4760
 0.3980	 2.8860
 0.3990	 3.4190
 0.4000	 3.4230
 0.4010	 2.7090
 0.4020	 3.2860
 0.4030	 3.4650
 0.4040	 3.3180
 0.4050	 3.2630
 0.4060	 3.4190
 0.4070	 3.1490
 0.4080	 2.9090
 0.4090	 3.6590
 0.4100	 3.6010
 0.4110	 3.3510
 0.4120	 3.3860
 0.4130	 3.3420
 0.4140	 3.3440
 0.4150	 3.3810
 0.4160	 3.4110
 0.4170	 3.4770
 0.4180	 3.4950
 0.4190	 3.4400
 0.4200	 3.3590
 0.4210	 3.5210
 0.4220	 3.6740
 0.4230	 3.6310
 0.4240	 3.6050
 0.4250	 3.6290
 0.4260	 3.6460
 0.4270	 3.5840
 0.4280	 3.5810
 0.4290	 3.6330
 0.4300	 3.7210
 0.4310	 3.8220
 0.4320	 3.8170
 0.4330	 3.7600
 0.4340	 3.7380
 0.4350	 3.7860
 0.4360	 3.7820
 0.4370	 3.7310
 0.4380	 3.7350
 0.4390	 3.8440
 0.4400	 3.9410
 0.4410	 3.9340
 0.4420	 3.8230
 0.4430	 3.8510
 0.4440	 3.9580
 0.4450	 3.9830
 0.4460	 3.9660
 0.4470	 3.9450
 0.4480	 3.9580
 0.4490	 4.0320
 0.4500	 4.0980
 0.4510	 4.1060
 0.4520	 4.0590
 0.4530	 4.1020
 0.4540	 4.1850
 0.4550	 4.2460
 0.4560	 4.2280
 0.4570	 4.1750
 0.4580	 4.2270
 0.4590	 4.3800
 0.4600	 4.3480
 0.4610	 4.2900
 0.4620	 4.2810
 0.4630	 4.3370
 0.4640	 4.3430
 0.4650	 4.3220
 0.4660	 4.3090
 0.4670	 4.3400
 0.4680	 4.3870
 0.4690	 4.4230
 0.4700	 4.4180
 0.4710	 4.3140
 0.4720	 4.2860
 0.4730	 4.3310
 0.4740	 4.3510
 0.4750	 4.3810
 0.4760	 4.4100
 0.4770	 4.4280
 0.4780	 4.4280
 0.4790	 4.4530
 0.4800	 4.4770
 0.4810	 4.4620
 0.4820	 4.4230
 0.4830	 4.4520
 0.4840	 4.5270
 0.4850	 4.5250
 0.4860	 4.5120
 0.4870	 4.5130
 0.4880	 4.5350
 0.4890	 4.5710
 0.4900	 4.5240
 0.4910	 4.4500
 0.4920	 4.4660
 0.4930	 4.5440
 0.4940	 4.6110
 0.4950	 4.6350
 0.4960	 4.6460
 0.4970	 4.6820
 0.4980	 4.7120
 0.4990	 4.7070
 0.5000	 4.7260
 0.5010	 4.7820
 0.5020	 4.8600
 0.5030	 4.9260
 0.5040	 4.9710
 0.5050	 5.0060
 0.5060	 5.0510
 0.5070	 5.1410
 0.5080	 5.2350
 0.5090	 5.3270
 0.5100	 5.4210
 0.5110	 5.5000
 0.5120	 5.5870
 0.5130	 5.7000
 0.5140	 5.8410
 0.5150	 5.9550
 0.5160	 6.0640
 0.5170	 6.2000
 0.5180	 6.3460
 0.5190	 6.4970
 0.5200	 6.6480
 0.5210	 6.8040
 0.5220	 6.9810
 0.5230	 7.1430
 0.5240	 7.2720
 0.5250	 7.4090
 0.5260	 7.5500
 0.5270	 7.6910
 0.5280	 7.8260
 0.5290	 7.9670
 0.5300	 8.0820
 0.5310	 8.1660
 0.5320	 8.2570
 0.5330	 8.3500
 0.5340	 8.4270
 0.5350	 8.4760
 0.5360	 8.5240
 0.5370	 8.5950
 0.5380	 8.6830
 0.5390	 8.7640
 0.5400	 8.8090
 0.5410	 8.8700
 0.5420	 8.9700
 0.5430	 9.0710
 0.5440	 9.1340
 0.5450	 9.1480
 0.5460	 9.1220
 0.5470	 9.1070
 0.5480	 9.1050
 0.5490	 9.1100
 0.5500	 9.1130
 0.5510	 9.1070
 0.5520	 9.0950
 0.5530	 9.0860
 0.5540	 9.0900
 0.5550	 9.0680
 0.5560	 9.0230
 0.5570	 8.9860
 0.5580	 8.9190
 0.5590	 8.8430
 0.5600	 8.7730
 0.5610	 8.7080
 0.5620	 8.6500
 0.5630	 8.5780
 0.5640	 8.4760
 0.5650	 8.3990
 0.5660	 8.3130
 0.5670	 8.2120
 0.5680	 8.1300
 0.5690	 8.0190
 0.5700	 7.9100
 0.5710	 7.8280
 0.5720	 7.7010
 0.5730	 7.6050
 0.5740	 7.5340
 0.5750	 7.4350
 0.5760	 7.3440
 0.5770	 7.2600
 0.5780	 7.1890
 0.5790	 7.1600
 0.5800	 7.1020
 0.5810	 7.0220
 0.5820	 6.9590
 0.5830	 6.9180
 0.5840	 6.8740
 0.5850	 6.8260
 0.5860	 6.8040
 0.5870	 6.7570
 0.5880	 6.6980
 0.5890	 6.6510
 0.5900	 6.6100
 0.5910	 6.5830
 0.5920	 6.5680
 0.5930	 6.5490
 0.5940	 6.5150
 0.5950	 6.4950
 0.5960	 6.4920
 0.5970	 6.4630
 0.5980	 6.4070
 0.5990	 6.3700
 0.6000	 6.3870
 0.6010	 6.3740
 0.6020	 6.3290
 0.6030	 6.2810
 0.6040	 6.2740
 0.6050	 6.2330
 0.6060	 6.1680
 0.6070	 6.1040
 0.6080	 6.0330
 0.6090	 6.0130
 0.6100	 6.0280
 0.6110	 6.0260
 0.6120	 5.9720
 0.6130	 5.8750
 0.6140	 5.7670
 0.6150	 5.7120
 0.6160	 5.6680
 0.6170	 5.6080
 0.6180	 5.5280
 0.6190	 5.5080
 0.6200	 5.4840
 0.6210	 5.4440
 0.6220	 5.4190
 0.6230	 5.3970
 0.6240	 5.3770
 0.6250	 5.3580
 0.6260	 5.3430
 0.6270	 5.3310
 0.6280	 5.3110
 0.6290	 5.2770
 0.6300	 5.2710
 0.6310	 5.2840
 0.6320	 5.2910
 0.6330	 5.2600
 0.6340	 5.2480
 0.6350	 5.2380
 0.6360	 5.2090
 0.6370	 5.1890
 0.6380	 5.1450
 0.6390	 5.0930
 0.6400	 5.0670
 0.6410	 5.0110
 0.6420	 4.9630
 0.6430	 4.9330
 0.6440	 4.8710
 0.6450	 4.8390
 0.6460	 4.8040
 0.6470	 4.7280
 0.6480	 4.6760
 0.6490	 4.6300
 0.6500	 4.5880
 0.6510	 4.5660
 0.6520	 4.5300
 0.6530	 4.4950
 0.6540	 4.4730
 0.6550	 4.4630
 0.6560	 4.4210
 0.6570	 4.3610
 0.6580	 4.3150
 0.6590	 4.2590
 0.6600	 4.2030
 0.6610	 4.1590
 0.6620	 4.1350
 0.6630	 4.0750
 0.6640	 4.0140
 0.6650	 3.9820
 0.6660	 3.9430
 0.6670	 3.8940
 0.6680	 3.8570
 0.6690	 3.8590
 0.6700	 3.8590
 0.6710	 3.8290
 0.6720	 3.7880
 0.6730	 3.8120
 0.6740	 3.8260
 0.6750	 3.8300
 0.6760	 3.8350
 0.6770	 3.8210
 0.6780	 3.8170
 0.6790	 3.8340
 0.6800	 3.8630
 0.6810	 3.9030
 0.6820	 3.9420
 0.6830	 3.9800
 0.6840	 4.0350
 0.6850	 4.0790
 0.6860	 4.1550
 0.6870	 4.3010
 0.6880	 4.4350
 0.6890	 4.5720
 0.6900	 4.7330
 0.6910	 4.9450
 0.6920	 5.2110
 0.6930	 5.4890
 0.6940	 5.7790
 0.6950	 6.1800
 0.6960	 6.6020
 0.6970	 7.0320
 0.6980	 7.4850
 0.6990	 8.0030
 0.7000	 8.5390
 0.7010	 9.0860
 0.7020	 9.6730
 0.7030	10.2690
 0.7040	10.8710
 0.7050	11.4850
 0.7060	12.1290
 0.7070	12.8010
 0.7080	13.4820
 0.7090	14.1610
 0.7100	14.8530
 0.7110	15.5760
 0.7120	16.3240
 0.7130	17.0700
 0.7140	17.8310
 0.7150	18.6090
 0.7160	19.4040
 0.7170	20.2340
 0.7180	21.0660
 0.7190	21.8930
 0.7200	22.7180
 0.7210	23.5610
 0.7220	24.4050
 0.7230	25.2400
 0.7240	26.0620
 0.7250	26.8800
 0.7260	27.6930
 0.7270	28.4980
 0.7280	29.2870
 0.7290	30.0450
 0.7300	30.7710
 0.7310	31.4710
 0.7320	32.1540
 0.7330	32.8030
 0.7340	33.4170
 0.7350	34.0200
 0.7360	34.6030
 0.7370	35.1360
 0.7380	35.6170
 0.7390	36.1070
 0.7400	36.5660
 0.7410	36.9800
 0.7420	37.3540
 0.7430	37.7160
 0.7440	38.0540
 0.7450	38.3690
 0.7460	38.6730
 0.7470	38.9430
 0.7480	39.1830
 0.7490	39.4010
 0.7500	39.6120
 0.7510	39.8140
 0.7520	39.9900
 0.7530	40.1290
 0.7540	40.2630
 0.7550	40.3890
 0.7560	40.5030
 0.7570	40.6040
 0.7580	40.7260
 0.7590	40.8230
 0.7600	40.8790
 0.7610	40.9520
 0.7620	41.0110
 0.7630	41.0570
 0.7640	41.1010
 0.7650	41.1630
 0.7660	41.2120
 0.7670	41.2410
 0.7680	41.2640
 0.7690	41.3020
 0.7700	41.3340
 0.7710	41.3490
 0.7720	41.3560
 0.7730	41.3750
 0.7740	41.3970
 0.7750	41.4150
 0.7760	41.4600
 0.7770	41.4810
 0.7780	41.4750
 0.7790	41.4720
 0.7800	41.5070
 0.7810	41.5420
 0.7820	41.5540
 0.7830	41.5420
 0.7840	41.5520
 0.7850	41.5620
 0.7860	41.5610
 0.7870	41.5790
 0.7880	41.5940
 0.7890	41.6030
 0.7900	41.6070
 0.7910	41.6160
 0.7920	41.6350
 0.7930	41.6520
 0.7940	41.6500
 0.7950	41.6680
 0.7960	41.6790
 0.7970	41.6720
 0.7980	41.6590
 0.7990	41.6660
 0.8000	41.6800
 0.8010	41.6880
 0.8020	41.7020
 0.8030	41.7080
 0.8040	41.7070
 0.8050	41.7040
 0.8060	41.7020
 0.8070	41.7110
 0.8080	41.7220
 0.8090	41.7140
 0.8100	41.7220
 0.8110	41.7290
 0.8120	41.7340
 0.8130	41.7670
 0.8140	41.7590
 0.8150	41.7370
 0.8160	41.7370
 0.8170	41.7380
 0.8180	41.7540
 0.8190	41.7720
 0.8200	41.7680
 0.8210	41.7670
 0.8220	41.7660
 0.8230	41.7660
 0.8240	41.7690
 0.8250	41.7730
 0.8260	41.7740
 0.8270	41.7740
 0.8280	41.7750
 0.8290	41.7810
 0.8300	41.7940
 0.8310	41.8100
 0.8320	41.8060
 0.8330	41.7970
 0.8340	41.7880
 0.8350	41.7800
 0.8360	41.7890
 0.8370	41.8240
 0.8380	41.8610
 0.8390	41.8580
 0.8400	41.8350
 0.8410	41.8230
 0.8420	41.8370
 0.8430	41.8610
 0.8440	41.8780
 0.8450	41.8880
 0.8460	41.8940
 0.8470	41.8850
 0.8480	41.8940
 0.8490	41.9170
 0.8500	41.9380
 0.8510	41.9470
 0.8520	41.9560
 0.8530	41.9690
 0.8540	41.9780
 0.8550	41.9880
 0.8560	41.9910
 0.8570	41.9910
 0.8580	42.0050
 0.8590	42.0130
 0.8600	42.0200
 0.8610	42.0320
 0.8620	42.0470
 0.8630	42.0410
 0.8640	42.0340
 0.8650	42.0460
 0.8660	42.0550
 0.8670	42.0500
 0.8680	42.0460
 0.8690	42.0620
 0.8700	42.0700
 0.8710	42.0630
 0.8720	42.0490
 0.8730	42.0500
 0.8740	42.0630
 0.8750	42.0740
 0.8760	42.0760
 0.8770	42.0680
 0.8780	42.0560
 0.8790	42.0570
 0.8800	42.0790
 0.8810	42.1060
 0.8820	42.0620
 0.8830	42.0280
 0.8840	42.0620
 0.8850	42.1020
 0.8860	42.0930
 0.8870	42.0670
 0.8880	42.0640
 0.8890	42.0430
 0.8900	42.0380
 0.8910	42.0440
 0.8920	42.0380
 0.8930	42.0140
 0.8940	42.0160
 0.8950	42.0180
 0.8960	41.9700
 0.8970	41.9610
 0.8980	41.9660
 0.8990	41.9690
 0.9000	41.9720
 0.9010	41.9460
 0.9020	41.9250
 0.9030	41.9300
 0.9040	41.9500
 0.9050	41.9450
 0.9060	41.9140
 0.9070	41.8710
 0.9080	41.8500
 0.9090	41.8520
 0.9100	41.8450
 0.9110	41.8110
 0.9120	41.7890
 0.9130	41.8020
 0.9140	41.8130
 0.9150	41.7760
 0.9160	41.6960
 0.9170	41.6940
 0.9180	41.7250
 0.9190	41.6970
 0.9200	41.6630
 0.9210	41.6980
 0.9220	41.7240
 0.9230	41.6240
 0.9240	41.5870
 0.9250	41.6000
 0.9260	41.5980
 0.9270	41.5110
 0.9280	41.5020
 0.9290	41.5050
 0.9300	41.4790
 0.9310	41.4290
 0.9320	41.3990
 0.9330	41.3480
 0.9340	41.2860
 0.9350	41.2910
 0.9360	41.2880
 0.9370	41.2230
 0.9380	41.1310
 0.9390	41.1440
 0.9400	41.1080
 0.9410	40.9960
 0.9420	40.8710
 0.9430	40.8950
 0.9440	40.8370
 0.9450	40.7590
 0.9460	40.7160
 0.9470	40.5980
 0.9480	40.5130
 0.9490	40.4560
 0.9500	40.3820
 0.9510	40.2200
 0.9520	40.1030
 0.9530	39.9920
 0.9540	39.8420
 0.9550	39.7540
 0.9560	39.6360
 0.9570	39.5190
 0.9580	39.4420
 0.9590	39.3510
 0.9600	39.2440
 0.9610	39.1940
 0.9620	39.2220
 0.9630	39.0620
 0.9640	38.9380
 0.9650	38.9160
 0.9660	38.9540
 0.9670	38.8920
 0.9680	38.8450
 0.9690	38.7960
 0.9700	38.7070
 0.9710	38.7060
 0.9720	38.7180
 0.9730	38.7370
 0.9740	38.7680
 0.9750	38.7010
 0.9760	38.6210
 0.9770	38.6000
 0.9780	38.6480
 0.9790	38.5910
 0.9800	38.5700
 0.9810	38.5990
 0.9820	38.6200
 0.9830	38.6320
 0.9840	38.6340
 0.9850	38.6060
 0.9860	38.5580
 0.9870	38.6360
 0.9880	38.7360
 0.9890	38.7950
 0.9900	38.8040
 0.9910	38.8210
 0.9920	38.7800
 0.9930	38.7730
 0.9940	38.8900
 0.9950	38.8570
 0.9960	38.8980
 0.9970	39.0210
 0.9980	39.1070
 0.9990	39.0450
 1.0000	38.9770
 1.0010	39.3840
 1.0020	39.4080
 1.0030	39.4300
 1.0040	39.4930
 1.0050	39.5770
 1.0060	39.6450
 1.0070	39.7220
 1.0080	39.7770
 1.0090	39.8130
 1.0100	39.8480
 1.0110	39.8520
 1.0120	39.8960
 1.0130	39.9730
 1.0140	40.0140
 1.0150	40.0620
 1.0160	40.1150
 1.0170	40.0950
 1.0180	40.1080
 1.0190	40.1710
 1.0200	40.1950
 1.0210	40.2300
 1.0220	40.3080
 1.0230	40.3560
 1.0240	40.3750
 1.0250	40.4310
 1.0260	40.5120
 1.0270	40.5640
 1.0280	40.6260
 1.0290	40.6710
 1.0300	40.6830
 1.0310	40.7050
 1.0320	40.7340
 1.0330	40.7480
 1.0340	40.7450
 1.0350	40.7920
 1.0360	40.8360
 1.0370	40.8880
 1.0380	40.9370
 1.0390	40.9910
 1.0400	41.0470
 1.0410	41.1090
 1.0420	41.1600
 1.0430	41.2340
 1.0440	41.2650
 1.0450	41.2460
 1.0460	41.2580
 1.0470	41.2520
 1.0480	41.2740
 1.0490	41.3550
 1.0500	41.3910
 1.0510	41.4210
 1.0520	41.4300
 1.0530	41.4320
 1.0540	41.3960
 1.0550	41.3960
 1.0560	41.3980
 1.0570	41.4190
 1.0580	41.4620
 1.0590	41.4940
 1.0600	41.5550
 1.0610	41.5780
 1.0620	41.5660
 1.0630	41.5790
 1.0640	41.5800
 1.0650	41.5950
 1.0660	41.6540
 1.0670	41.6760
 1.0680	41.6850
 1.0690	41.6760
 1.0700	41.6850
 1.0710	41.6820
 1.0720	41.6860
 1.0730	41.7040
 1.0740	41.7150
 1.0750	41.7270
 1.0760	41.7220
 1.0770	41.7180
 1.0780	41.7050
 1.0790	41.6640
 1.0800	41.6390
 1.0810	41.6050
 1.0820	41.5960
 1.0830	41.6030
 1.0840	41.6120
 1.0850	41.6430
 1.0860	41.6820
 1.0870	41.6850
 1.0880	41.6750
 1.0890	41.6540
 1.0900	41.5990
 1.0910	41.5760
 1.0920	41.5590
 1.0930	41.5440
 1.0940	41.5540
 1.0950	41.5350
 1.0960	41.4910
 1.0970	41.4680
 1.0980	41.4500
 1.0990	41.4190
 1.1000	41.3850
 1.1010	41.3640
 1.1020	41.3370
 1.1030	41.3090
 1.1040	41.3070
 1.1050	41.2970
 1.1060	41.2760
 1.1070	41.2470
 1.1080	41.2090
 1.1090	41.1580
 1.1100	41.1130
 1.1110	41.0610
 1.1120	41.0140
 1.1130	40.9690
 1.1140	40.9320
 1.1150	40.9040
 1.1160	40.8610
 1.1170	40.8230
 1.1180	40.7740
 1.1190	40.7110
 1.1200	40.6450
 1.1210	40.5850
 1.1220	40.5120
 1.1230	40.4290
 1.1240	40.3430
 1.1250	40.2490
 1.1260	40.1450
 1.1270	40.0370
 1.1280	39.9310
 1.1290	39.8040
 1.1300	39.6720
 1.1310	39.5160
 1.1320	39.3470
 1.1330	39.1530
 1.1340	38.9240
 1.1350	38.7020
 1.1360	38.4670
 1.1370	38.2260
 1.1380	37.9960
 1.1390	37.7660
 1.1400	37.5130
 1.1410	37.2630
 1.1420	37.0030
 1.1430	36.7420
 1.1440	36.4880
 1.1450	36.2320
 1.1460	35.9890
 1.1470	35.7430
 1.1480	35.5210
 1.1490	35.3130
 1.1500	35.1170
 1.1510	34.9460
 1.1520	34.7620
 1.1530	34.5680
 1.1540	34.4010
 1.1550	34.2380
 1.1560	34.0810
 1.1570	33.9690
 1.1580	33.8550
 1.1590	33.7280
 1.1600	33.6270
 1.1610	33.5270
 1.1620	33.4240
 1.1630	33.3460
 1.1640	33.2640
 1.1650	33.1890
 1.1660	33.1180
 1.1670	33.0530
 1.1680	32.9970
 1.1690	32.9360
 1.1700	32.8750
 1.1710	32.8200
 1.1720	32.7700
 1.1730	32.7150
 1.1740	32.6660
 1.1750	32.6060
 1.1760	32.5400
 1.1770	32.4740
 1.1780	32.4150
 1.1790	32.3640
 1.1800	32.3040
 1.1810	32.2490
 1.1820	32.1890
 1.1830	32.1290
 1.1840	32.0790
 1.1850	32.0210
 1.1860	31.9700
 1.1870	31.9240
 1.1880	31.8750
 1.1890	31.8250
 1.1900	31.7830
 1.1910	31.7380
 1.1920	31.7050
 1.1930	31.6860
 1.1940	31.6650
 1.1950	31.6450
 1.1960	31.6400
 1.1970	31.6290
 1.1980	31.6140
 1.1990	31.6150
 1.2000	31.6040
 1.2010	31.5990
 1.2020	31.6040
 1.2030	31.6040
 1.2040	31.6210
 1.2050	31.6380
 1.2060	31.6570
 1.2070	31.6880
 1.2080	31.7110
 1.2090	31.7360
 1.2100	31.7780
 1.2110	31.8250
 1.2120	31.8830
 1.2130	31.9390
 1.2140	32.0050
 1.2150	32.0630
 1.2160	32.1140
 1.2170	32.1700
 1.2180	32.2250
 1.2190	32.2890
 1.2200	32.3630
 1.2210	32.4410
 1.2220	32.5260
 1.2230	32.6130
 1.2240	32.6910
 1.2250	32.7630
 1.2260	32.8410
 1.2270	32.9170
 1.2280	32.9940
 1.2290	33.0770
 1.2300	33.1400
 1.2310	33.1980
 1.2320	33.2660
 1.2330	33.3170
 1.2340	33.3770
 1.2350	33.4580
 1.2360	33.5120
 1.2370	33.5490
 1.2380	33.5940
 1.2390	33.6330
 1.2400	33.6620
 1.2410	33.7160
 1.2420	33.7750
 1.2430	33.8250
 1.2440	33.8730
 1.2450	33.9130
 1.2460	33.9500
 1.2470	33.9780
 1.2480	34.0150
 1.2490	34.0530
 1.2500	34.0760
 1.2510	34.1150
 1.2520	34.1570
 1.2530	34.1840
 1.2540	34.2190
 1.2550	34.2470
 1.2560	34.2620
 1.2570	34.2880
 1.2580	34.3100
 1.2590	34.3260
 1.2600	34.3380
 1.2610	34.3520
 1.2620	34.3600
 1.2630	34.3690
 1.2640	34.3840
 1.2650	34.4060
 1.2660	34.4290
 1.2670	34.4440
 1.2680	34.4600
 1.2690	34.4500
 1.2700	34.4310
 1.2710	34.4210
 1.2720	34.4090
 1.2730	34.4040
 1.2740	34.4090
 1.2750	34.3990
 1.2760	34.3820
 1.2770	34.3680
 1.2780	34.3400
 1.2790	34.3200
 1.2800	34.3120
 1.2810	34.3040
 1.2820	34.2950
 1.2830	34.2730
 1.2840	34.2420
 1.2850	34.2000
 1.2860	34.1560
 1.2870	34.1170
 1.2880	34.0820
 1.2890	34.0470
 1.2900	34.0150
 1.2910	33.9760
 1.2920	33.9340
 1.2930	33.8880
 1.2940	33.8290
 1.2950	33.7700
 1.2960	33.7070
 1.2970	33.6400
 1.2980	33.5770
 1.2990	33.5130
 1.3000	33.4380
 1.3010	33.3610
 1.3020	33.2720
 1.3030	33.1690
 1.3040	33.0830
 1.3050	32.9960
 1.3060	32.8980
 1.3070	32.8020
 1.3080	32.6920
 1.3090	32.5740
 1.3100	32.4640
 1.3110	32.3560
 1.3120	32.2430
 1.3130	32.1160
 1.3140	31.9850
 1.3150	31.8430
 1.3160	31.7070
 1.3170	31.5680
 1.3180	31.4270
 1.3190	31.2830
 1.3200	31.1240
 1.3210	30.9670
 1.3220	30.8200
 1.3230	30.6660
 1.3240	30.5120
 1.3250	30.3470
 1.3260	30.1650
 1.3270	29.9860
 1.3280	29.8120
 1.3290	29.6340
 1.3300	29.4550
 1.3310	29.2800
 1.3320	29.0940
 1.3330	28.9090
 1.3340	28.7370
 1.3350	28.5650
 1.3360	28.4030
 1.3370	28.2420
 1.3380	28.0730
 1.3390	27.9010
 1.3400	27.7220
 1.3410	27.5440
 1.3420	27.3750
 1.3430	27.2110
 1.3440	27.0490
 1.3450	26.8900
 1.3460	26.7320
 1.3470	26.5760
 1.3480	26.4190
 1.3490	26.2700
 1.3500	26.1250
 1.3510	25.9830
 1.3520	25.8420
 1.3530	25.7000
 1.3540	25.5550
 1.3550	25.4100
 1.3560	25.2710
 1.3570	25.1340
 1.3580	24.9990
 1.3590	24.8650
 1.3600	24.7270
 1.3610	24.5780
 1.3620	24.4210
 1.3630	24.2590
 1.3640	24.0930
 1.3650	23.9260
 1.3660	23.7600
 1.3670	23.5870
 1.3680	23.4070
 1.3690	23.2130
 1.3700	23.0030
 1.3710	22.7790
 1.3720	22.5390
 1.3730	22.2930
 1.3740	22.0390
 1.3750	21.7710
 1.3760	21.4950
 1.3770	21.2020
 1.3780	20.8890
 1.3790	20.5620
 1.3800	20.2130
 1.3810	19.8480
 1.3820	19.4770
 1.3830	19.0950
 1.3840	18.7050
 1.3850	18.3060
 1.3860	17.8990
 1.3870	17.4760
 1.3880	17.0600
 1.3890	16.6390
 1.3900	16.2200
 1.3910	15.8090
 1.3920	15.3980
 1.3930	14.9880
 1.3940	14.5900
 1.3950	14.1990
 1.3960	13.8180
 1.3970	13.4540
 1.3980	13.0980
 1.3990	12.7570
 1.4000	12.4330
 1.4010	12.1200
 1.4020	11.8200
 1.4030	11.5310
 1.4040	11.2520
 1.4050	10.9880
 1.4060	10.7410
 1.4070	10.5130
 1.4080	10.2970
 1.4090	10.0890
 1.4100	 9.8960
 1.4110	 9.7110
 1.4120	 9.5350
 1.4130	 9.3710
 1.4140	 9.2150
 1.4150	 9.0760
 1.4160	 8.9500
 1.4170	 8.8370
 1.4180	 8.7310
 1.4190	 8.6270
 1.4200	 8.5260
 1.4210	 8.4310
 1.4220	 8.3480
 1.4230	 8.2680
 1.4240	 8.1920
 1.4250	 8.1220
 1.4260	 8.0530
 1.4270	 7.9900
 1.4280	 7.9350
 1.4290	 7.8840
 1.4300	 7.8380
 1.4310	 7.7950
 1.4320	 7.7610
 1.4330	 7.7250
 1.4340	 7.6870
 1.4350	 7.6530
 1.4360	 7.6220
 1.4370	 7.5900
 1.4380	 7.5640
 1.4390	 7.5480
 1.4400	 7.5320
 1.4410	 7.5160
 1.4420	 7.5020
 1.4430	 7.4870
 1.4440	 7.4720
 1.4450	 7.4620
 1.4460	 7.4550
 1.4470	 7.4490
 1.4480	 7.4460
 1.4490	 7.4460
 1.4500	 7.4440
 1.4510	 7.4390
 1.4520	 7.4350
 1.4530	 7.4320
 1.4540	 7.4310
 1.4550	 7.4350
 1.4560	 7.4450
 1.4570	 7.4520
 1.4580	 7.4610
 1.4590	 7.4730
 1.4600	 7.4830
 1.4610	 7.5000
 1.4620	 7.5180
 1.4630	 7.5420
 1.4640	 7.5720
 1.4650	 7.6020
 1.4660	 7.6350
 1.4670	 7.6640
 1.4680	 7.6900
 1.4690	 7.7200
 1.4700	 7.7520
 1.4710	 7.7920
 1.4720	 7.8400
 1.4730	 7.8830
 1.4740	 7.9320
 1.4750	 7.9840
 1.4760	 8.0290
 1.4770	 8.0810
 1.4780	 8.1350
 1.4790	 8.1870
 1.4800	 8.2420
 1.4810	 8.3000
 1.4820	 8.3550
 1.4830	 8.4090
 1.4840	 8.4680
 1.4850	 8.5290
 1.4860	 8.5910
 1.4870	 8.6580
 1.4880	 8.7250
 1.4890	 8.7910
 1.4900	 8.8560
 1.4910	 8.9200
 1.4920	 8.9850
 1.4930	 9.0450
 1.4940	 9.1110
 1.4950	 9.1820
 1.4960	 9.2540
 1.4970	 9.3300
 1.4980	 9.4030
 1.4990	 9.4730
 1.5000	 9.5420
 1.5010	 9.6080
 1.5020	 9.6780
 1.5030	 9.7490
 1.5040	 9.8230
 1.5050	 9.9010
 1.5060	 9.9760
 1.5070	10.0530
 1.5080	10.1260
 1.5090	10.1950
 1.5100	10.2670
 1.5110	10.3410
 1.5120	10.4170
 1.5130	10.4930
 1.5140	10.5680
 1.5150	10.6430
 1.5160	10.7140
 1.5170	10.7860
 1.5180	10.8600
 1.5190	10.9340
 1.5200	11.0070
 1.5210	11.0800
 1.5220	11.1520
 1.5230	11.2280
 1.5240	11.3020
 1.5250	11.3740
 1.5260	11.4510
 1.5270	11.5260
 1.5280	11.5990
 1.5290	11.6730
 1.5300	11.7420
 1.5310	11.8040
 1.5320	11.8670
 1.5330	11.9340
 1.5340	12.0020
 1.5350	12.0730
 1.5360	12.1460
 1.5370	12.2160
 1.5380	12.2870
 1.5390	12.3540
 1.5400	12.4170
 1.5410	12.4860
 1.5420	12.5510
 1.5430	12.6170
 1.5440	12.6890
 1.5450	12.7580
 1.5460	12.8320
 1.5470	12.9050
 1.5480	12.9700
 1.5490	13.0350
 1.5500	13.0930
 1.5510	13.1500
 1.5520	13.2130
 1.5530	13.2780
 1.5540	13.3440
 1.5550	13.4100
 1.5560	13.4730
 1.5570	13.5310
 1.5580	13.5880
 1.5590	13.6460
 1.5600	13.7110
 1.5610	13.7800
 1.5620	13.8490
 1.5630	13.9130
 1.5640	13.9690
 1.5650	14.0280
 1.5660	14.0830
 1.5670	14.1440
 1.5680	14.2120
 1.5690	14.2710
 1.5700	14.3300
 1.5710	14.3880
 1.5720	14.4400
 1.5730	14.4950
 1.5740	14.5470
 1.5750	14.5950
 1.5760	14.6450
 1.5770	14.6930
 1.5780	14.7500
 1.5790	14.8090
 1.5800	14.8630
 1.5810	14.9170
 1.5820	14.9670
 1.5830	15.0180
 1.5840	15.0750
 1.5850	15.1350
 1.5860	15.1950
 1.5870	15.2530
 1.5880	15.3090
 1.5890	15.3610
 1.5900	15.4110
 1.5910	15.4630
 1.5920	15.5200
 1.5930	15.5760
 1.5940	15.6330
 1.5950	15.6860
 1.5960	15.7340
 1.5970	15.7840
 1.5980	15.8290
 1.5990	15.8760
 1.6000	15.9250
 1.6010	15.9690
 1.6020	16.0190
 1.6030	16.0700
 1.6040	16.1190
 1.6050	16.1690
 1.6060	16.2170
 1.6070	16.2680
 1.6080	16.3210
 1.6090	16.3700
 1.6100	16.4200
 1.6110	16.4630
 1.6120	16.5020
 1.6130	16.5430
 1.6140	16.5780
 1.6150	16.6170
 1.6160	16.6630
 1.6170	16.7050
 1.6180	16.7480
 1.6190	16.7840
 1.6200	16.8140
 1.6210	16.8410
 1.6220	16.8700
 1.6230	16.9040
 1.6240	16.9320
 1.6250	16.9580
 1.6260	16.9780
 1.6270	16.9870
 1.6280	17.0050
 1.6290	17.0280
 1.6300	17.0550
 1.6310	17.0890
 1.6320	17.1300
 1.6330	17.1670
 1.6340	17.2100
 1.6350	17.2450
 1.6360	17.2770
 1.6370	17.3080
 1.6380	17.3320
 1.6390	17.3650
 1.6400	17.3980
 1.6410	17.4320
 1.6420	17.4750
 1.6430	17.5080
 1.6440	17.5350
 1.6450	17.5520
 1.6460	17.5710
 1.6470	17.5920
 1.6480	17.6130
 1.6490	17.6380
 1.6500	17.6560
 1.6510	17.6610
 1.6520	17.6670
 1.6530	17.6710
 1.6540	17.6750
 1.6550	17.6880
 1.6560	17.6980
 1.6570	17.7040
 1.6580	17.7070
 1.6590	17.6960
 1.6600	17.6820
 1.6610	17.6660
 1.6620	17.6480
 1.6630	17.6460
 1.6640	17.6450
 1.6650	17.6460
 1.6660	17.6480
 1.6670	17.6270
 1.6680	17.6030
 1.6690	17.5760
 1.6700	17.5420
 1.6710	17.5240
 1.6720	17.5050
 1.6730	17.4830
 1.6740	17.4610
 1.6750	17.4320
 1.6760	17.4000
 1.6770	17.3560
 1.6780	17.3130
 1.6790	17.2720
 1.6800	17.2230
 1.6810	17.1840
 1.6820	17.1350
 1.6830	17.0710
 1.6840	17.0180
 1.6850	16.9620
 1.6860	16.9080
 1.6870	16.8690
 1.6880	16.8220
 1.6890	16.7640
 1.6900	16.7030
 1.6910	16.6260
 1.6920	16.5610
 1.6930	16.5000
 1.6940	16.4430
 1.6950	16.3980
 1.6960	16.3440
 1.6970	16.2890
 1.6980	16.2320
 1.6990	16.1670
 1.7000	16.1070
 1.7010	16.0450
 1.7020	15.9850
 1.7030	15.9280
 1.7040	15.8730
 1.7050	15.8220
 1.7060	15.7640
 1.7070	15.7000
 1.7080	15.6460
 1.7090	15.5940
 1.7100	15.5420
 1.7110	15.5040
 1.7120	15.4460
 1.7130	15.3840
 1.7140	15.3250
 1.7150	15.2630
 1.7160	15.2060
 1.7170	15.1700
 1.7180	15.1380
 1.7190	15.1080
 1.7200	15.0740
 1.7210	15.0330
 1.7220	14.9900
 1.7230	14.9460
 1.7240	14.9130
 1.7250	14.8830
 1.7260	14.8510
 1.7270	14.8290
 1.7280	14.8070
 1.7290	14.7930
 1.7300	14.7850
 1.7310	14.7740
 1.7320	14.7610
 1.7330	14.7540
 1.7340	14.7520
 1.7350	14.7530
 1.7360	14.7680
 1.7370	14.7710
 1.7380	14.7710
 1.7390	14.7670
 1.7400	14.7550
 1.7410	14.7420
 1.7420	14.7280
 1.7430	14.7090
 1.7440	14.6850
 1.7450	14.6570
 1.7460	14.6220
 1.7470	14.5890
 1.7480	14.5500
 1.7490	14.5170
 1.7500	14.4880
 1.7510	14.4520
 1.7520	14.4170
 1.7530	14.3780
 1.7540	14.3330
 1.7550	14.2900
 1.7560	14.2480
 1.7570	14.2130
 1.7580	14.1790
 1.7590	14.1510
 1.7600	14.1280
 1.7610	14.1020
 1.7620	14.0790
 1.7630	14.0550
 1.7640	14.0370
 1.7650	14.0210
 1.7660	14.0100
 1.7670	14.0090
 1.7680	14.0040
 1.7690	14.0030
 1.7700	13.9970
 1.7710	13.9830
 1.7720	13.9760
 1.7730	13.9670
 1.7740	13.9600
 1.7750	13.9600
 1.7760	13.9520
 1.7770	13.9400
 1.7780	13.9280
 1.7790	13.9120
 1.7800	13.9040
 1.7810	13.9010
 1.7820	13.8980
 1.7830	13.9010
 1.7840	13.8970
 1.7850	13.8890
 1.7860	13.8890
 1.7870	13.8890
 1.7880	13.8840
 1.7890	13.9020
 1.7900	13.9130
 1.7910	13.9220
 1.7920	13.9390
 1.7930	13.9450
 1.7940	13.9340
 1.7950	13.9360
 1.7960	13.9340
 1.7970	13.9410
 1.7980	13.9680
 1.7990	13.9780
 1.8000	13.9810
 1.8010	13.9910
 1.8020	13.9970
 1.8030	14.0070
 1.8040	14.0250
 1.8050	14.0400
 1.8060	14.0550
 1.8070	14.0660
 1.8080	14.0800
 1.8090	14.0900
 1.8100	14.0940
 1.8110	14.1040
 1.8120	14.1080
 1.8130	14.1110
 1.8140	14.1220
 1.8150	14.1390
 1.8160	14.1390
 1.8170	14.1290
 1.8180	14.1270
 1.8190	14.1280
 1.8200	14.1330
 1.8210	14.1480
 1.8220	14.1570
 1.8230	14.1710
 1.8240	14.1740
 1.8250	14.1690
 1.8260	14.1700
 1.8270	14.1650
 1.8280	14.1570
 1.8290	14.1480
 1.8300	14.1430
 1.8310	13.9360
 1.8320	13.9260
 1.8330	13.9020
 1.8340	13.8580
 1.8350	13.8610
 1.8360	13.8810
 1.8370	13.8940
 1.8380	13.9090
 1.8390	13.8930
 1.8400	13.8310
 1.8410	13.7850
 1.8420	13.7360
 1.8430	13.6790
 1.8440	13.6390
 1.8450	13.5770
 1.8460	13.4920
 1.8470	13.4450
 1.8480	13.3950
 1.8490	13.3240
 1.8500	13.2380
 1.8510	13.1510
 1.8520	13.0410
 1.8530	12.9080
 1.8540	12.7730
 1.8550	12.6700
 1.8560	12.5480
 1.8570	12.4090
 1.8580	12.2790
 1.8590	12.1320
 1.8600	11.9660
 1.8610	11.8060
 1.8620	11.6440
 1.8630	11.4630
 1.8640	11.2830
 1.8650	11.0790
 1.8660	10.8490
 1.8670	10.6060
 1.8680	10.3500
 1.8690	10.1080
 1.8700	 9.8630
 1.8710	 9.6220
 1.8720	 9.3800
 1.8730	 9.1360
 1.8740	 8.8660
 1.8750	 8.6000
 1.8760	 8.3350
 1.8770	 8.0560
 1.8780	 7.7760
 1.8790	 7.4840
 1.8800	 7.2040
 1.8810	 6.9210
 1.8820	 6.6550
 1.8830	 6.3880
 1.8840	 6.1210
 1.8850	 5.8580
 1.8860	 5.6050
 1.8870	 5.3730
 1.8880	 5.1460
 1.8890	 4.9170
 1.8900	 4.7060
 1.8910	 4.5120
 1.8920	 4.3250
 1.8930	 4.1600
 1.8940	 4.0220
 1.8950	 3.8780
 1.8960	 3.7250
 1.8970	 3.5850
 1.8980	 3.4460
 1.8990	 3.3280
 1.9000	 3.2200
 1.9010	 3.1220
 1.9020	 3.0300
 1.9030	 2.9550
 1.9040	 2.8720
 1.9050	 2.7840
 1.9060	 2.7290
 1.9070	 2.6700
 1.9080	 2.6210
 1.9090	 2.5940
 1.9100	 2.5640
 1.9110	 2.5320
 1.9120	 2.5080
 1.9130	 2.4780
 1.9140	 2.4380
 1.9150	 2.4090
 1.9160	 2.3900
 1.9170	 2.3560
 1.9180	 2.3360
 1.9190	 2.3130
 1.9200	 2.2960
 1.9210	 2.2940
 1.9220	 2.2830
 1.9230	 2.2750
 1.9240	 2.2670
 1.9250	 2.2530
 1.9260	 2.2380
 1.9270	 2.2460
 1.9280	 2.2510
 1.9290	 2.2580
 1.9300	 2.2650
 1.9310	 2.2620
 1.9320	 2.2550
 1.9330	 2.2490
 1.9340	 2.2420
 1.9350	 2.2340
 1.9360	 2.2220
 1.9370	 2.2160
 1.9380	 2.2050
 1.9390	 2.2110
 1.9400	 2.2280
 1.9410	 2.2430
 1.9420	 2.2610
 1.9430	 2.2740
 1.9440	 2.2800
 1.9450	 2.2730
 1.9460	 2.2760
 1.9470	 2.2720
 1.9480	 2.2790
 1.9490	 2.2880
 1.9500	 2.3100
 1.9510	 2.3340
 1.9520	 2.3540
 1.9530	 2.3810
 1.9540	 2.3990
 1.9550	 2.4150
 1.9560	 2.4260
 1.9570	 2.4440
 1.9580	 2.4570
 1.9590	 2.4760
 1.9600	 2.5020
 1.9610	 2.5250
 1.9620	 2.5510
 1.9630	 2.5640
 1.9640	 2.5890
 1.9650	 2.6090
 1.9660	 2.6260
 1.9670	 2.6550
 1.9680	 2.6690
 1.9690	 2.6620
 1.9700	 2.6840
 1.9710	 2.7080
 1.9720	 2.7370
 1.9730	 2.7850
 1.9740	 2.8400
 1.9750	 2.8630
 1.9760	 2.8990
 1.9770	 2.9320
 1.9780	 2.9530
 1.9790	 2.9830
 1.9800	 3.0210
 1.9810	 3.0490
 1.9820	 3.0790
 1.9830	 3.1030
 1.9840	 3.1210
 1.9850	 3.1390
 1.9860	 3.1480
 1.9870	 3.1620
 1.9880	 3.1920
 1.9890	 3.2170
 1.9900	 3.2450
 1.9910	 3.2670
 1.9920	 3.2910
 1.9930	 3.3050
 1.9940	 3.3330
 1.9950	 3.3710
 1.9960	 3.4080
 1.9970	 3.4540
 1.9980	 3.4880
 1.9990	 3.5200
 2.0000	 3.5520
 2.0010	 3.5760
 2.0020	 3.6170
 2.0030	 3.6460
 2.0040	 3.6790
 2.0050	 3.7040
 2.0060	 3.7070
 2.0070	 3.7370
 2.0080	 3.7820
 2.0090	 3.8160
 2.0100	 3.8630
 2.0110	 3.9000
 2.0120	 3.9280
 2.0130	 3.9560
 2.0140	 3.9820
 2.0150	 4.0110
 2.0160	 4.0420
 2.0170	 4.0720
 2.0180	 4.1070
 2.0190	 4.1560
 2.0200	 4.1880
 2.0210	 4.2130
 2.0220	 4.2400
 2.0230	 4.2550
 2.0240	 4.2810
 2.0250	 4.3150
 2.0260	 4.3440
 2.0270	 4.3760
 2.0280	 4.4090
 2.0290	 4.4220
 2.0300	 4.4370
 2.0310	 4.4540
 2.0320	 4.4660
 2.0330	 4.4810
 2.0340	 4.4950
 2.0350	 4.5210
 2.0360	 4.5560
 2.0370	 4.5870
 2.0380	 4.6330
 2.0390	 4.6660
 2.0400	 4.6830
 2.0410	 4.7030
 2.0420	 4.7260
 2.0430	 4.7460
 2.0440	 4.7640
 2.0450	 4.7780
 2.0460	 4.7980
 2.0470	 4.8210
 2.0480	 4.8400
 2.0490	 4.8600
 2.0500	 4.8830
 2.0510	 4.9090
 2.0520	 4.9280
 2.0530	 4.9520
 2.0540	 4.9700
 2.0550	 4.9760
 2.0560	 4.9870
 2.0570	 5.0050
 2.0580	 5.0260
 2.0590	 5.0420
 2.0600	 5.0590
 2.0610	 5.0720
 2.0620	 5.0770
 2.0630	 5.0940
 2.0640	 5.1170
 2.0650	 5.1400
 2.0660	 5.1680
 2.0670	 5.1990
 2.0680	 5.2350
 2.0690	 5.2670
 2.0700	 5.2990
 2.0710	 5.3340
 2.0720	 5.3710
 2.0730	 5.4000
 2.0740	 5.4290
 2.0750	 5.4660
 2.0760	 5.4840
 2.0770	 5.4810
 2.0780	 5.4950
 2.0790	 5.5030
 2.0800	 5.5230
 2.0810	 5.5570
 2.0820	 5.5890
 2.0830	 5.6260
 2.0840	 5.6610
 2.0850	 5.7080
 2.0860	 5.7370
 2.0870	 5.7550
 2.0880	 5.7680
 2.0890	 5.7900
 2.0900	 5.8030
 2.0910	 5.8260
 2.0920	 5.8620
 2.0930	 5.8920
 2.0940	 5.9200
 2.0950	 5.9450
 2.0960	 5.9730
 2.0970	 5.9940
 2.0980	 6.0040
 2.0990	 6.0200
 2.1000	 6.0360
 2.1010	 6.0560
 2.1020	 6.0800
 2.1030	 6.1030
 2.1040	 6.1270
 2.1050	 6.1600
 2.1060	 6.1800
 2.1070	 6.1980
 2.1080	 6.2140
 2.1090	 6.2190
 2.1100	 6.2350
 2.1110	 6.2500
 2.1120	 6.2770
 2.1130	 6.3210
 2.1140	 6.3510
 2.1150	 6.3890
 2.1160	 6.4110
 2.1170	 6.4120
 2.1180	 6.4240
 2.1190	 6.4300
 2.1200	 6.4450
 2.1210	 6.4690
 2.1220	 6.5020
 2.1230	 6.5290
 2.1240	 6.5610
 2.1250	 6.5850
 2.1260	 6.6020
 2.1270	 6.6280
 2.1280	 6.6600
 2.1290	 6.6830
 2.1300	 6.7080
 2.1310	 6.7300
 2.1320	 6.7470
 2.1330	 6.7580
 2.1340	 6.7590
 2.1350	 6.7690
 2.1360	 6.7700
 2.1370	 6.7830
 2.1380	 6.8170
 2.1390	 6.8390
 2.1400	 6.8620
 2.1410	 6.8710
 2.1420	 6.8920
 2.1430	 6.9070
 2.1440	 6.9380
 2.1450	 6.9880
 2.1460	 7.0200
 2.1470	 7.0570
 2.1480	 7.0790
 2.1490	 7.0820
 2.1500	 7.0950
 2.1510	 7.1060
 2.1520	 7.1180
 2.1530	 7.1360
 2.1540	 7.1480
 2.1550	 7.1520
 2.1560	 7.1600
 2.1570	 7.1630
 2.1580	 7.1730
 2.1590	 7.1830
 2.1600	 7.2160
 2.1610	 7.2200
 2.1620	 7.2380
 2.1630	 7.2550
 2.1640	 7.2650
 2.1650	 7.2820
 2.1660	 7.3150
 2.1670	 7.3290
 2.1680	 7.3310
 2.1690	 7.3430
 2.1700	 7.3570
 2.1710	 7.3680
 2.1720	 7.3860
 2.1730	 7.3940
 2.1740	 7.3830
 2.1750	 7.3910
 2.1760	 7.4030
 2.1770	 7.4190
 2.1780	 7.4590
 2.1790	 7.4770
 2.1800	 7.4750
 2.1810	 7.4860
 2.1820	 7.4880
 2.1830	 7.4970
 2.1840	 7.5220
 2.1850	 7.5690
 2.1860	 7.6000
 2.1870	 7.6380
 2.1880	 7.6630
 2.1890	 7.6840
 2.1900	 7.6930
 2.1910	 7.6870
 2.1920	 7.6930
 2.1930	 7.6950
 2.1940	 7.6960
 2.1950	 7.7020
 2.1960	 7.7060
 2.1970	 7.6970
 2.1980	 7.7010
 2.1990	 7.7220
 2.2000	 7.7320
 2.2010	 7.7410
 2.2020	 7.7470
 2.2030	 7.7340
 2.2040	 7.7390
 2.2050	 7.7600
 2.2060	 7.7750
 2.2070	 7.7940
 2.2080	 7.8300
 2.2090	 7.8410
 2.2100	 7.8350
 2.2110	 7.8440
 2.2120	 7.8530
 2.2130	 7.8550
 2.2140	 7.8670
 2.2150	 7.8620
 2.2160	 7.8340
 2.2170	 7.8230
 2.2180	 7.8200
 2.2190	 7.8080
 2.2200	 7.7880
 2.2210	 7.7800
 2.2220	 7.7660
 2.2230	 7.7620
 2.2240	 7.7840
 2.2250	 7.7920
 2.2260	 7.7950
 2.2270	 7.7990
 2.2280	 7.8070
 2.2290	 7.8020
 2.2300	 7.7920
 2.2310	 7.7780
 2.2320	 7.7450
 2.2330	 7.6750
 2.2340	 7.6300
 2.2350	 7.5710
 2.2360	 7.5370
 2.2370	 7.5230
 2.2380	 7.5050
 2.2390	 7.4980
 2.2400	 7.4810
 2.2410	 7.4710
 2.2420	 7.4390
 2.2430	 7.3900
 2.2440	 7.3520
 2.2450	 7.2980
 2.2460	 7.2600
 2.2470	 7.2320
 2.2480	 7.2110
 2.2490	 7.2100
 2.2500	 7.1900
 2.2510	 7.1850
 2.2520	 7.1410
 2.2530	 7.0510
 2.2540	 6.9800
 2.2550	 6.8880
 2.2560	 6.8190
 2.2570	 6.7690
 2.2580	 6.7220
 2.2590	 6.6970
 2.2600	 6.6530
 2.2610	 6.5890
 2.2620	 6.5580
 2.2630	 6.5020
 2.2640	 6.4560
 2.2650	 6.4330
 2.2660	 6.3740
 2.2670	 6.3230
 2.2680	 6.2600
 2.2690	 6.2130
 2.2700	 6.1680
 2.2710	 6.1290
 2.2720	 6.0970
 2.2730	 6.0720
 2.2740	 6.0570
 2.2750	 6.0330
 2.2760	 6.0020
 2.2770	 5.9880
 2.2780	 5.9910
 2.2790	 5.9590
 2.2800	 5.9240
 2.2810	 5.8940
 2.2820	 5.8180
 2.2830	 5.7880
 2.2840	 5.8150
 2.2850	 5.7930
 2.2860	 5.7540
 2.2870	 5.7240
 2.2880	 5.6800
 2.2890	 5.6340
 2.2900	 5.5800
 2.2910	 5.5550
 2.2920	 5.5480
 2.2930	 5.5170
 2.2940	 5.4960
 2.2950	 5.4710
 2.2960	 5.4060
 2.2970	 5.3640
 2.2980	 5.3530
 2.2990	 5.3320
 2.3000	 5.2870
 2.3010	 5.2560
 2.3020	 5.2000
 2.3030	 5.1670
 2.3040	 5.1380
 2.3050	 5.0880
 2.3060	 5.0610
 2.3070	 5.0260
 2.3080	 5.0020
 2.3090	 5.0210
 2.3100	 5.0330
 2.3110	 5.0490
 2.3120	 5.0540
 2.3130	 5.0600
 2.3140	 5.0440
 2.3150	 5.0000
 2.3160	 5.0060
 2.3170	 5.0260
 2.3180	 5.0320
 2.3190	 5.0740
 2.3200	 5.0600
 2.3210	 4.9850
 2.3220	 4.9830
 2.3230	 5.0020
 2.3240	 5.0050
 2.3250	 5.0380
 2.3260	 5.0400
 2.3270	 5.0200
 2.3280	 4.9930
 2.3290	 4.9510
 2.3300	 4.9380
 2.3310	 4.9200
 2.3320	 4.9030
 2.3330	 4.9280
 2.3340	 4.9170
 2.3350	 4.8740
 2.3360	 4.8510
 2.3370	 4.8270
 2.3380	 4.7950
 2.3390	 4.7510
 2.3400	 4.7330
 2.3410	 4.7370
 2.3420	 4.7210
 2.3430	 4.7240
 2.3440	 4.6990
 2.3450	 4.6370
 2.3460	 4.5840
 2.3470	 4.5240
 2.3480	 4.4720
 2.3490	 4.4000
 2.3500	 4.3680
 2.3510	 4.3520
 2.3520	 4.3610
 2.3530	 4.4060
 2.3540	 4.4760
 2.3550	 4.4650
 2.3560	 4.4760
 2.3570	 4.4780
 2.3580	 4.4060
 2.3590	 4.3960
 2.3600	 4.3540
 2.3610	 4.3030
 2.3620	 4.3110
 2.3630	 4.3230
 2.3640	 4.3640
 2.3650	 4.3700
 2.3660	 4.3530
 2.3670	 4.3000
 2.3680	 4.2820
 2.3690	 4.3280
 2.3700	 4.3090
 2.3710	 4.3530
 2.3720	 4.3690
 2.3730	 4.3100
 2.3740	 4.2720
 2.3750	 4.1960
 2.3760	 4.1400
 2.3770	 4.1060
 2.3780	 4.1120
 2.3790	 4.1000
 2.3800	 4.0640
 2.3810	 4.0340
 2.3820	 3.9800
 2.3830	 3.9870
 2.3840	 4.0000
 2.3850	 3.9670
 2.3860	 3.9590
 2.3870	 3.9640
 2.3880	 3.9290
 2.3890	 3.9440
 2.3900	 3.9500
 2.3910	 3.9040
 2.3920	 3.8720
 2.3930	 3.7930
 2.3940	 3.7180
 2.3950	 3.6860
 2.3960	 3.6410
 2.3970	 3.6320
 2.3980	 3.6500
 2.3990	 3.6030
 2.4000	 3.6240
 2.4010	 3.7000
 2.4020	 3.7130
 2.4030	 3.7680
 2.4040	 3.8020
 2.4050	 3.7250
 2.4060	 3.6740
 2.4070	 3.6840
 2.4080	 3.6430
 2.4090	 3.6700
 2.4100	 3.6740
 2.4110	 3.5350
 2.4120	 3.4940
 2.4130	 3.4760
 2.4140	 3.4490
 2.4150	 3.4900
 2.4160	 3.4160
 2.4170	 3.2480
 2.4180	 3.1930
 2.4190	 3.1810
 2.4200	 3.2090
 2.4210	 3.3540
 2.4220	 3.3650
 2.4230	 3.3050
 2.4240	 3.2890
 2.4250	 3.2300
 2.4260	 3.1970
 2.4270	 3.1620
 2.4280	 3.1340
 2.4290	 3.1260
 2.4300	 3.1090
 2.4310	 3.1100
 2.4320	 3.0950
 2.4330	 3.0370
 2.4340	 3.0200
 2.4350	 3.0310
 2.4360	 3.0620
 2.4370	 3.1970
 2.4380	 3.2190
 2.4390	 3.2420
 2.4400	 3.2780
 2.4410	 3.1550
 2.4420	 3.1380
 2.4430	 3.0740
 2.4440	 2.9250
 2.4450	 2.9000
 2.4460	 2.9020
 2.4470	 2.9230
 2.4480	 3.0180
 2.4490	 2.9900
 2.4500	 2.8750
 2.4510	 2.8320
 2.4520	 2.8080
 2.4530	 2.8930
 2.4540	 2.9130
 2.4550	 2.8350
 2.4560	 2.8040
 2.4570	 2.6880
 2.4580	 2.6360
 2.4590	 2.6540
 2.4600	 2.6300
 2.4610	 2.6810
 2.4620	 2.7390
 2.4630	 2.7980
 2.4640	 2.8640
 2.4650	 2.8680
 2.4660	 2.9080
 2.4670	 2.9660
 2.4680	 2.9120
 2.4690	 2.8280
 2.4700	 2.6720
 2.4710	 2.3130
 2.4720	 2.2000
 2.4730	 2.1280
 2.4740	 2.1690
 2.4750	 2.5340
 2.4760	 2.6480
 2.4770	 2.6740
 2.4780	 2.6600
 2.4790	 2.4200
 2.4800	 2.3600
 2.4810	 2.4370
 2.4820	 2.6200
 2.4830	 2.6830
 2.4840	 2.8290
 2.4850	 2.8180
 2.4860	 2.6720
 2.4870	 2.6530
 2.4880	 2.7160
 2.4890	 3.0380
 2.4900	 3.2870
 2.4910	 3.3950
 2.4920	 3.1320
 2.4930	 2.4610
 2.4940	 1.9860
 2.4950	 1.8100
 2.4960	 2.0600
 2.4970	 2.5100
 2.4980	 2.9620
 2.4990	 3.3760
 2.5000	 3.3560
