Name: Quercus agrifolia 3
Type: vegetation
Class: Tree
Genus: Quercus
Species: agrifolia
Sample No.: VH180
Owner: UCSB
Wavelength Range: TIR
Origin: 34.7165; -120.0603; WGS84
Collection Date: 6/9/2013
Description: Samples were collected as part of the HyspIRI Airborne Campaign. 48 individual plants were sampled in three times in 2013 - spring  summer  and fall. The name of the sample includes a 1  2  or 3 which references a different individual of the species. Samples were taken to JPL and processed within 48 hours of collection. The same leaves were processed in the Nicolet and then measured using the ASD.
Measurement: Hemispherical reflectance
First Column: X
Second Column: Y
X Units: Wavelength (micrometers)
Y Units: Reflectance (percentage)
First X Value: 2.501
Last X Value: 15.387
Number of X Values: 1737
Additional Information: vegetation.tree.quercus.agrifolia.tir.vh180.ucsb.nicolet.ancillary.txt

 2.5010	 6.2300
 2.5030	 5.9930
 2.5040	 5.9980
 2.5050	 6.0040
 2.5060	 5.9450
 2.5070	 6.0800
 2.5090	 6.0610
 2.5100	 6.0450
 2.5110	 6.1470
 2.5120	 6.1180
 2.5140	 6.1180
 2.5150	 6.0850
 2.5160	 6.0890
 2.5170	 6.1220
 2.5180	 6.1650
 2.5200	 6.1290
 2.5210	 6.1580
 2.5220	 6.1140
 2.5230	 6.0950
 2.5250	 6.1430
 2.5260	 6.1870
 2.5270	 6.1350
 2.5280	 6.1210
 2.5290	 6.0580
 2.5310	 6.0460
 2.5320	 5.9790
 2.5330	 6.0110
 2.5340	 6.0350
 2.5360	 6.1080
 2.5370	 6.0800
 2.5380	 5.9910
 2.5390	 5.9960
 2.5410	 6.1170
 2.5420	 6.0630
 2.5430	 6.1100
 2.5440	 6.0210
 2.5460	 6.0030
 2.5470	 6.0330
 2.5480	 6.1440
 2.5490	 6.2090
 2.5510	 6.1800
 2.5520	 6.0850
 2.5530	 6.1690
 2.5540	 6.2140
 2.5560	 6.3080
 2.5570	 6.2620
 2.5580	 6.2500
 2.5590	 6.2700
 2.5610	 6.2330
 2.5620	 6.1430
 2.5630	 6.2080
 2.5640	 6.2240
 2.5660	 6.2580
 2.5670	 6.2480
 2.5680	 6.2240
 2.5700	 6.1470
 2.5710	 6.1370
 2.5720	 6.1890
 2.5730	 6.2480
 2.5750	 6.1960
 2.5760	 6.3210
 2.5770	 6.3120
 2.5790	 6.2490
 2.5800	 6.2930
 2.5810	 6.2280
 2.5820	 6.1870
 2.5840	 6.1860
 2.5850	 6.1490
 2.5860	 6.1960
 2.5880	 6.3110
 2.5890	 6.3900
 2.5900	 6.2100
 2.5910	 6.2390
 2.5930	 6.4150
 2.5940	 6.3500
 2.5950	 6.2160
 2.5970	 6.1560
 2.5980	 6.2180
 2.5990	 6.2410
 2.6000	 6.2030
 2.6020	 6.1470
 2.6030	 6.1520
 2.6040	 6.1950
 2.6060	 6.1810
 2.6070	 6.1990
 2.6080	 6.0700
 2.6100	 5.9440
 2.6110	 6.0040
 2.6120	 6.0870
 2.6140	 6.0400
 2.6150	 6.0070
 2.6160	 5.9240
 2.6180	 5.9350
 2.6190	 5.9700
 2.6200	 6.0300
 2.6220	 5.9800
 2.6230	 5.9590
 2.6240	 5.9500
 2.6260	 5.9060
 2.6270	 5.8020
 2.6280	 5.7500
 2.6300	 5.8760
 2.6310	 5.8670
 2.6320	 5.8010
 2.6340	 5.8850
 2.6350	 5.8700
 2.6360	 5.8960
 2.6380	 5.7530
 2.6390	 5.6610
 2.6400	 5.6310
 2.6420	 5.6590
 2.6430	 5.5850
 2.6440	 5.5770
 2.6460	 5.6060
 2.6470	 5.5690
 2.6480	 5.6030
 2.6500	 5.5920
 2.6510	 5.5240
 2.6520	 5.4050
 2.6540	 5.1820
 2.6550	 5.1600
 2.6560	 5.2670
 2.6580	 5.3040
 2.6590	 5.3180
 2.6610	 5.3200
 2.6620	 5.4050
 2.6630	 5.4940
 2.6650	 5.4720
 2.6660	 5.3400
 2.6670	 5.2290
 2.6690	 5.2480
 2.6700	 5.1550
 2.6720	 5.2070
 2.6730	 5.2390
 2.6740	 5.2140
 2.6760	 5.1560
 2.6770	 5.0980
 2.6780	 5.0390
 2.6800	 5.0440
 2.6810	 4.9670
 2.6830	 4.9520
 2.6840	 4.9770
 2.6850	 4.9950
 2.6870	 4.9520
 2.6880	 5.0760
 2.6900	 5.1160
 2.6910	 5.0770
 2.6920	 5.0510
 2.6940	 4.9770
 2.6950	 4.8870
 2.6970	 4.7810
 2.6980	 4.6390
 2.6990	 4.6510
 2.7010	 4.8230
 2.7020	 4.9180
 2.7040	 4.8320
 2.7050	 4.7430
 2.7060	 4.5390
 2.7080	 4.4890
 2.7090	 4.6700
 2.7110	 4.8660
 2.7120	 4.7980
 2.7130	 4.7080
 2.7150	 4.5530
 2.7160	 4.5100
 2.7180	 4.6840
 2.7190	 4.7990
 2.7210	 4.6230
 2.7220	 4.6090
 2.7230	 4.5680
 2.7250	 4.5450
 2.7260	 4.6030
 2.7280	 4.4850
 2.7290	 4.4630
 2.7310	 4.6810
 2.7320	 4.4620
 2.7330	 4.3580
 2.7350	 4.4500
 2.7360	 4.4790
 2.7380	 4.4490
 2.7390	 4.3760
 2.7410	 4.4500
 2.7420	 4.5630
 2.7440	 4.6540
 2.7450	 4.5890
 2.7470	 4.5140
 2.7480	 4.2450
 2.7490	 4.1520
 2.7510	 4.5670
 2.7520	 4.8130
 2.7540	 4.3800
 2.7550	 4.2600
 2.7570	 4.4790
 2.7580	 4.2830
 2.7600	 4.2430
 2.7610	 4.4650
 2.7630	 4.6030
 2.7640	 4.4890
 2.7660	 4.3340
 2.7670	 4.1730
 2.7680	 4.2500
 2.7700	 4.4200
 2.7710	 4.4680
 2.7730	 4.4410
 2.7740	 4.4680
 2.7760	 4.3670
 2.7770	 4.2600
 2.7790	 4.4080
 2.7800	 4.5820
 2.7820	 4.5750
 2.7830	 4.4990
 2.7850	 4.3540
 2.7860	 4.4410
 2.7880	 4.5530
 2.7890	 4.5730
 2.7910	 4.4780
 2.7920	 4.2460
 2.7940	 4.1770
 2.7950	 4.2790
 2.7970	 4.2290
 2.7980	 4.2620
 2.8000	 4.4190
 2.8010	 4.5030
 2.8030	 4.5180
 2.8040	 4.5080
 2.8060	 4.4170
 2.8070	 4.3370
 2.8090	 4.2690
 2.8110	 4.3920
 2.8120	 4.3340
 2.8140	 4.2660
 2.8150	 4.2990
 2.8170	 4.4160
 2.8180	 4.3010
 2.8200	 4.1980
 2.8210	 4.3060
 2.8230	 4.5090
 2.8240	 4.4470
 2.8260	 4.5060
 2.8270	 4.3060
 2.8290	 4.1920
 2.8300	 4.2770
 2.8320	 4.3100
 2.8340	 4.2410
 2.8350	 4.1770
 2.8370	 4.2640
 2.8380	 4.3640
 2.8400	 4.3390
 2.8410	 4.2830
 2.8430	 4.3290
 2.8440	 4.3670
 2.8460	 4.3360
 2.8480	 4.4390
 2.8490	 4.3350
 2.8510	 4.1990
 2.8520	 4.2760
 2.8540	 4.2370
 2.8550	 4.2220
 2.8570	 4.3440
 2.8590	 4.3840
 2.8600	 4.3910
 2.8620	 4.4150
 2.8630	 4.4350
 2.8650	 4.4330
 2.8660	 4.4300
 2.8680	 4.3090
 2.8700	 4.2340
 2.8710	 4.2930
 2.8730	 4.3340
 2.8740	 4.3420
 2.8760	 4.3840
 2.8780	 4.3840
 2.8790	 4.2020
 2.8810	 4.1180
 2.8820	 4.2840
 2.8840	 4.5660
 2.8860	 4.6600
 2.8870	 4.6130
 2.8890	 4.4620
 2.8900	 4.2340
 2.8920	 4.2200
 2.8940	 4.3980
 2.8950	 4.5510
 2.8970	 4.5360
 2.8980	 4.4480
 2.9000	 4.4530
 2.9020	 4.4580
 2.9030	 4.3580
 2.9050	 4.1050
 2.9070	 4.0680
 2.9080	 4.2640
 2.9100	 4.3610
 2.9120	 4.4200
 2.9130	 4.2210
 2.9150	 4.3160
 2.9160	 4.4870
 2.9180	 4.5780
 2.9200	 4.4400
 2.9210	 4.4690
 2.9230	 4.5180
 2.9250	 4.3700
 2.9260	 4.3880
 2.9280	 4.4560
 2.9300	 4.3640
 2.9310	 4.3890
 2.9330	 4.4180
 2.9350	 4.4160
 2.9360	 4.4610
 2.9380	 4.6640
 2.9400	 4.5530
 2.9410	 4.4220
 2.9430	 4.4490
 2.9450	 4.5440
 2.9460	 4.6670
 2.9480	 4.6160
 2.9500	 4.2180
 2.9510	 4.2960
 2.9530	 4.3390
 2.9550	 4.0310
 2.9560	 3.8120
 2.9580	 4.0710
 2.9600	 4.6430
 2.9610	 5.0700
 2.9630	 5.2150
 2.9650	 5.0400
 2.9660	 4.2630
 2.9680	 3.6520
 2.9700	 3.4490
 2.9720	 3.0690
 2.9730	 3.6550
 2.9750	 3.5450
 2.9770	 3.5540
 2.9780	 4.1260
 2.9800	 4.9460
 2.9820	 5.1480
 2.9840	 4.1320
 2.9850	 4.1410
 2.9870	 4.1700
 2.9890	 4.0410
 2.9900	 4.2590
 2.9920	 5.1690
 2.9940	 4.6570
 2.9960	 3.3800
 2.9970	 2.7400
 2.9990	 2.7810
 3.0010	 4.4840
 3.0030	 5.3210
 3.0040	 4.8300
 3.0060	 4.4870
 3.0080	 3.9840
 3.0100	 4.2000
 3.0110	 4.3560
 3.0130	 4.1320
 3.0150	 3.7730
 3.0170	 4.1670
 3.0180	 4.4840
 3.0200	 4.3700
 3.0220	 4.4740
 3.0240	 4.2060
 3.0250	 4.1570
 3.0270	 4.2260
 3.0290	 4.2080
 3.0310	 3.9280
 3.0320	 3.9510
 3.0340	 4.5330
 3.0360	 4.9550
 3.0380	 5.0890
 3.0400	 6.1330
 3.0410	 5.8020
 3.0430	 5.3020
 3.0450	 3.7140
 3.0470	 0.9690
 3.0480	 2.1870
 3.0500	 4.1380
 3.0520	 5.0650
 3.0540	 5.1620
 3.0560	 3.3120
 3.0570	 2.1670
 3.0590	 2.5570
 3.0610	 5.0030
 3.0630	 5.9850
 3.0650	 4.8930
 3.0660	 4.5980
 3.0680	 5.3200
 3.0700	 4.7480
 3.0720	 4.1550
 3.0740	 4.5140
 3.0760	 4.3440
 3.0770	 4.3710
 3.0790	 4.3230
 3.0810	 4.4440
 3.0830	 4.4460
 3.0850	 4.5170
 3.0870	 4.4500
 3.0880	 4.5920
 3.0900	 4.5520
 3.0920	 4.3610
 3.0940	 4.3080
 3.0960	 4.3720
 3.0980	 4.3820
 3.0990	 4.5000
 3.1010	 4.5670
 3.1030	 4.4700
 3.1050	 4.1070
 3.1070	 4.2130
 3.1090	 4.5750
 3.1110	 4.7340
 3.1120	 4.7630
 3.1140	 4.7380
 3.1160	 4.6230
 3.1180	 4.2140
 3.1200	 4.1900
 3.1220	 4.4670
 3.1240	 4.5990
 3.1260	 4.3630
 3.1270	 4.2970
 3.1290	 4.3120
 3.1310	 3.7910
 3.1330	 3.7820
 3.1350	 4.4860
 3.1370	 4.7580
 3.1390	 3.1120
 3.1410	 2.1930
 3.1430	 3.1320
 3.1450	 4.7150
 3.1460	 5.5040
 3.1480	 5.0930
 3.1500	 4.8800
 3.1520	 4.8440
 3.1540	 4.3190
 3.1560	 4.1150
 3.1580	 4.3160
 3.1600	 4.5070
 3.1620	 4.2780
 3.1640	 4.0640
 3.1660	 4.1550
 3.1680	 4.5110
 3.1700	 4.3010
 3.1710	 4.3740
 3.1730	 5.5720
 3.1750	 5.5850
 3.1770	 4.2080
 3.1790	 3.8010
 3.1810	 4.1950
 3.1830	 4.2940
 3.1850	 4.0510
 3.1870	 4.1870
 3.1890	 4.3050
 3.1910	 4.3420
 3.1930	 4.4080
 3.1950	 4.4210
 3.1970	 4.3020
 3.1990	 4.2420
 3.2010	 4.2980
 3.2030	 4.4670
 3.2050	 4.4750
 3.2070	 4.4200
 3.2090	 4.2060
 3.2110	 4.2770
 3.2130	 4.2800
 3.2150	 4.2110
 3.2170	 4.3690
 3.2190	 4.4800
 3.2210	 4.3810
 3.2230	 4.2900
 3.2250	 4.2710
 3.2270	 4.2720
 3.2290	 4.2750
 3.2310	 4.5030
 3.2330	 4.6130
 3.2350	 4.4410
 3.2370	 4.3200
 3.2390	 4.4920
 3.2410	 4.5300
 3.2430	 4.4100
 3.2450	 4.3450
 3.2470	 4.3190
 3.2490	 4.2790
 3.2510	 4.5990
 3.2530	 4.5560
 3.2550	 4.3560
 3.2570	 4.3460
 3.2590	 4.3070
 3.2610	 4.3070
 3.2630	 4.5420
 3.2650	 4.5240
 3.2670	 4.3110
 3.2690	 4.1650
 3.2720	 4.1560
 3.2740	 4.3490
 3.2760	 4.4450
 3.2780	 4.4940
 3.2800	 4.6260
 3.2820	 4.4650
 3.2840	 4.3480
 3.2860	 4.3320
 3.2880	 4.4620
 3.2900	 4.4320
 3.2920	 4.3010
 3.2940	 4.0890
 3.2960	 4.0130
 3.2990	 4.0820
 3.3010	 4.2380
 3.3030	 4.2650
 3.3050	 4.3000
 3.3070	 4.3350
 3.3090	 4.3920
 3.3110	 4.2530
 3.3130	 4.0120
 3.3150	 3.9350
 3.3180	 4.2060
 3.3200	 4.2270
 3.3220	 4.1590
 3.3240	 4.1250
 3.3260	 4.2210
 3.3280	 4.1810
 3.3300	 4.1460
 3.3330	 4.1840
 3.3350	 4.2460
 3.3370	 4.0650
 3.3390	 4.0600
 3.3410	 4.1860
 3.3430	 4.1760
 3.3450	 4.0960
 3.3480	 4.1500
 3.3500	 4.2070
 3.3520	 4.1560
 3.3540	 4.0860
 3.3560	 4.1140
 3.3580	 4.0720
 3.3610	 3.9690
 3.3630	 3.8890
 3.3650	 3.9390
 3.3670	 4.0550
 3.3690	 4.1440
 3.3720	 4.0960
 3.3740	 4.1150
 3.3760	 4.0860
 3.3780	 3.9760
 3.3800	 3.8420
 3.3830	 3.7820
 3.3850	 3.8300
 3.3870	 4.0230
 3.3890	 4.1370
 3.3910	 4.1280
 3.3940	 3.8080
 3.3960	 3.7980
 3.3980	 3.9000
 3.4000	 3.8710
 3.4020	 3.7210
 3.4050	 3.5830
 3.4070	 3.5420
 3.4090	 3.6660
 3.4110	 3.6550
 3.4140	 3.6690
 3.4160	 3.5900
 3.4180	 3.6460
 3.4200	 3.8410
 3.4230	 4.2200
 3.4250	 4.7400
 3.4270	 5.4640
 3.4290	 5.9960
 3.4320	 6.2600
 3.4340	 6.1190
 3.4360	 5.7620
 3.4390	 5.4190
 3.4410	 5.2480
 3.4430	 5.0960
 3.4450	 5.0500
 3.4480	 5.1550
 3.4500	 5.0470
 3.4520	 4.8440
 3.4550	 4.9520
 3.4570	 5.0860
 3.4590	 5.0140
 3.4620	 4.8710
 3.4640	 4.8290
 3.4660	 4.7770
 3.4680	 4.8260
 3.4710	 4.8880
 3.4730	 4.7900
 3.4750	 4.6880
 3.4780	 4.6040
 3.4800	 4.4940
 3.4820	 4.4880
 3.4850	 4.4630
 3.4870	 4.3840
 3.4890	 4.3750
 3.4920	 4.4710
 3.4940	 4.4190
 3.4970	 4.3700
 3.4990	 4.2600
 3.5010	 4.1170
 3.5040	 4.0780
 3.5060	 4.2370
 3.5080	 4.7660
 3.5110	 5.6350
 3.5130	 5.9990
 3.5160	 5.8900
 3.5180	 5.6130
 3.5200	 5.4430
 3.5230	 5.3330
 3.5250	 5.4420
 3.5270	 5.3680
 3.5300	 5.2910
 3.5320	 5.2320
 3.5350	 5.1730
 3.5370	 5.0630
 3.5400	 5.0410
 3.5420	 5.0370
 3.5440	 5.0320
 3.5470	 5.0160
 3.5490	 5.0440
 3.5520	 5.0880
 3.5540	 5.1670
 3.5570	 5.0610
 3.5590	 4.9890
 3.5610	 4.9330
 3.5640	 4.9350
 3.5660	 4.9120
 3.5690	 4.8690
 3.5710	 4.7810
 3.5740	 4.8460
 3.5760	 4.8760
 3.5790	 4.8720
 3.5810	 4.8270
 3.5840	 4.8480
 3.5860	 4.8350
 3.5890	 4.9540
 3.5910	 4.8610
 3.5930	 4.6560
 3.5960	 4.7770
 3.5980	 4.8180
 3.6010	 4.9540
 3.6030	 5.0790
 3.6060	 4.8580
 3.6080	 4.7820
 3.6110	 4.9370
 3.6140	 4.9070
 3.6160	 4.8050
 3.6190	 4.7980
 3.6210	 4.7800
 3.6240	 4.8070
 3.6260	 4.8370
 3.6290	 4.8790
 3.6310	 4.9540
 3.6340	 5.0140
 3.6360	 4.9300
 3.6390	 4.7850
 3.6410	 4.6970
 3.6440	 4.7310
 3.6470	 4.7820
 3.6490	 4.8530
 3.6520	 4.8260
 3.6540	 4.8380
 3.6570	 4.8020
 3.6590	 4.7480
 3.6620	 4.7650
 3.6650	 4.7350
 3.6670	 4.6510
 3.6700	 4.6920
 3.6720	 4.7630
 3.6750	 4.7250
 3.6780	 4.6510
 3.6800	 4.6840
 3.6830	 4.6650
 3.6850	 4.6320
 3.6880	 4.6260
 3.6910	 4.6840
 3.6930	 4.7730
 3.6960	 4.8050
 3.6990	 4.7220
 3.7010	 4.7160
 3.7040	 4.7600
 3.7060	 4.8330
 3.7090	 4.8040
 3.7120	 4.7640
 3.7140	 4.7460
 3.7170	 4.7700
 3.7200	 4.6680
 3.7220	 4.6470
 3.7250	 4.6950
 3.7280	 4.6900
 3.7300	 4.6920
 3.7330	 4.7000
 3.7360	 4.7600
 3.7390	 4.7160
 3.7410	 4.6290
 3.7440	 4.6840
 3.7470	 4.6870
 3.7490	 4.7600
 3.7520	 4.6680
 3.7550	 4.5360
 3.7580	 4.6300
 3.7600	 4.7190
 3.7630	 4.7050
 3.7660	 4.7230
 3.7680	 4.6970
 3.7710	 4.6820
 3.7740	 4.7820
 3.7770	 4.8570
 3.7790	 4.7890
 3.7820	 4.7720
 3.7850	 4.7620
 3.7880	 4.7990
 3.7900	 4.7500
 3.7930	 4.7500
 3.7960	 4.7620
 3.7990	 4.6790
 3.8020	 4.6580
 3.8040	 4.7860
 3.8070	 4.8340
 3.8100	 4.8410
 3.8130	 4.8180
 3.8160	 4.7790
 3.8180	 4.7050
 3.8210	 4.7580
 3.8240	 4.8460
 3.8270	 4.8300
 3.8300	 4.7740
 3.8330	 4.8070
 3.8350	 4.6260
 3.8380	 4.5310
 3.8410	 4.6100
 3.8440	 4.6370
 3.8470	 4.7490
 3.8500	 4.8190
 3.8520	 4.7530
 3.8550	 4.7680
 3.8580	 4.7530
 3.8610	 4.7830
 3.8640	 4.7520
 3.8670	 4.7900
 3.8700	 4.8230
 3.8730	 4.8260
 3.8750	 4.7970
 3.8780	 4.8190
 3.8810	 4.7970
 3.8840	 4.7790
 3.8870	 4.7580
 3.8900	 4.8170
 3.8930	 4.8540
 3.8960	 4.8670
 3.8990	 4.8490
 3.9020	 4.7820
 3.9050	 4.7240
 3.9080	 4.7220
 3.9110	 4.7170
 3.9140	 4.7720
 3.9160	 4.8190
 3.9190	 4.8260
 3.9220	 4.8120
 3.9250	 4.8030
 3.9280	 4.7620
 3.9310	 4.7770
 3.9340	 4.7480
 3.9370	 4.7740
 3.9400	 4.8490
 3.9430	 4.7860
 3.9460	 4.7220
 3.9490	 4.7290
 3.9520	 4.7200
 3.9550	 4.7660
 3.9580	 4.7800
 3.9610	 4.7560
 3.9640	 4.7430
 3.9670	 4.7130
 3.9700	 4.7290
 3.9730	 4.8120
 3.9770	 4.8050
 3.9800	 4.7440
 3.9830	 4.7260
 3.9860	 4.7810
 3.9890	 4.7880
 3.9920	 4.7840
 3.9950	 4.7510
 3.9980	 4.7940
 4.0010	 4.8470
 4.0040	 4.8370
 4.0070	 4.7510
 4.0100	 4.7520
 4.0130	 4.7810
 4.0170	 4.7270
 4.0200	 4.7240
 4.0230	 4.7750
 4.0260	 4.7610
 4.0290	 4.7700
 4.0320	 4.8230
 4.0350	 4.8360
 4.0380	 4.7660
 4.0420	 4.7870
 4.0450	 4.7920
 4.0480	 4.8320
 4.0510	 4.8400
 4.0540	 4.8380
 4.0570	 4.8480
 4.0610	 4.8360
 4.0640	 4.7730
 4.0670	 4.7850
 4.0700	 4.7810
 4.0730	 4.7640
 4.0770	 4.7410
 4.0800	 4.7570
 4.0830	 4.7850
 4.0860	 4.8220
 4.0890	 4.8590
 4.0930	 4.8000
 4.0960	 4.7420
 4.0990	 4.8260
 4.1020	 4.8850
 4.1060	 4.8000
 4.1090	 4.7400
 4.1120	 4.8250
 4.1150	 4.9570
 4.1190	 4.8690
 4.1220	 4.7860
 4.1250	 4.8610
 4.1280	 4.8910
 4.1320	 4.8670
 4.1350	 4.8380
 4.1380	 4.8410
 4.1420	 4.8040
 4.1450	 4.8750
 4.1480	 4.8530
 4.1520	 4.7540
 4.1550	 4.7820
 4.1580	 4.8430
 4.1620	 4.8450
 4.1650	 4.8080
 4.1680	 4.8180
 4.1720	 4.8660
 4.1750	 4.8600
 4.1780	 4.8000
 4.1820	 4.7750
 4.1850	 4.8140
 4.1890	 4.8170
 4.1920	 4.7560
 4.1950	 4.7620
 4.1990	 4.8100
 4.2020	 4.8570
 4.2060	 4.8700
 4.2090	 4.8550
 4.2120	 4.9010
 4.2160	 4.8320
 4.2190	 4.8000
 4.2230	 5.0150
 4.2260	 4.9510
 4.2300	 4.5040
 4.2330	 4.5500
 4.2360	 4.9380
 4.2400	 5.1660
 4.2430	 5.0960
 4.2470	 4.9070
 4.2500	 4.8440
 4.2540	 4.8090
 4.2570	 4.7240
 4.2610	 4.7640
 4.2640	 4.7280
 4.2680	 4.7510
 4.2710	 4.7900
 4.2750	 4.8390
 4.2780	 4.9060
 4.2820	 4.8850
 4.2850	 4.8000
 4.2890	 4.7850
 4.2930	 4.8040
 4.2960	 4.8810
 4.3000	 4.9140
 4.3030	 4.9140
 4.3070	 4.8910
 4.3100	 4.8100
 4.3140	 4.8440
 4.3180	 4.7930
 4.3210	 4.7360
 4.3250	 4.7360
 4.3280	 4.7470
 4.3320	 4.6820
 4.3360	 4.6940
 4.3390	 4.7210
 4.3430	 4.7120
 4.3470	 4.7090
 4.3500	 4.7510
 4.3540	 4.6890
 4.3570	 4.6870
 4.3610	 4.7840
 4.3650	 4.7710
 4.3680	 4.6840
 4.3720	 4.7270
 4.3760	 4.6540
 4.3800	 4.6270
 4.3830	 4.6900
 4.3870	 4.7140
 4.3910	 4.7170
 4.3940	 4.7180
 4.3980	 4.6550
 4.4020	 4.6170
 4.4060	 4.7230
 4.4090	 4.7730
 4.4130	 4.7240
 4.4170	 4.7430
 4.4210	 4.7800
 4.4240	 4.7670
 4.4280	 4.6560
 4.4320	 4.5990
 4.4360	 4.6240
 4.4400	 4.6590
 4.4430	 4.6890
 4.4470	 4.6960
 4.4510	 4.6520
 4.4550	 4.6530
 4.4590	 4.6890
 4.4620	 4.6890
 4.4660	 4.6310
 4.4700	 4.6260
 4.4740	 4.5970
 4.4780	 4.6740
 4.4820	 4.6750
 4.4860	 4.6830
 4.4900	 4.7300
 4.4930	 4.6740
 4.4970	 4.6290
 4.5010	 4.6190
 4.5050	 4.6400
 4.5090	 4.6410
 4.5130	 4.6440
 4.5170	 4.6390
 4.5210	 4.6240
 4.5250	 4.5890
 4.5290	 4.6270
 4.5330	 4.6950
 4.5370	 4.6940
 4.5410	 4.6630
 4.5450	 4.6030
 4.5490	 4.5830
 4.5530	 4.5750
 4.5570	 4.6230
 4.5610	 4.5820
 4.5650	 4.6540
 4.5690	 4.6830
 4.5730	 4.6380
 4.5770	 4.6070
 4.5810	 4.6440
 4.5850	 4.6120
 4.5890	 4.6040
 4.5930	 4.6120
 4.5970	 4.6180
 4.6010	 4.7430
 4.6050	 4.8200
 4.6090	 4.5460
 4.6130	 4.2580
 4.6170	 4.3060
 4.6220	 4.4500
 4.6260	 4.6640
 4.6300	 4.6950
 4.6340	 4.5730
 4.6380	 4.5130
 4.6420	 4.5790
 4.6460	 4.5730
 4.6510	 4.5090
 4.6550	 4.5660
 4.6590	 4.5980
 4.6630	 4.5950
 4.6670	 4.5440
 4.6720	 4.5390
 4.6760	 4.5310
 4.6800	 4.5170
 4.6840	 4.5620
 4.6880	 4.5820
 4.6930	 4.5490
 4.6970	 4.5530
 4.7010	 4.4840
 4.7050	 4.4260
 4.7100	 4.4330
 4.7140	 4.4770
 4.7180	 4.5670
 4.7230	 4.6050
 4.7270	 4.5700
 4.7310	 4.5920
 4.7360	 4.6310
 4.7400	 4.6390
 4.7440	 4.5530
 4.7490	 4.5280
 4.7530	 4.5930
 4.7570	 4.6060
 4.7620	 4.5760
 4.7660	 4.5400
 4.7700	 4.5010
 4.7750	 4.5150
 4.7790	 4.4700
 4.7840	 4.4300
 4.7880	 4.3990
 4.7920	 4.4190
 4.7970	 4.5850
 4.8010	 4.6200
 4.8060	 4.5080
 4.8100	 4.4640
 4.8150	 4.4860
 4.8190	 4.5240
 4.8240	 4.5570
 4.8280	 4.6050
 4.8330	 4.5900
 4.8370	 4.6090
 4.8420	 4.5910
 4.8460	 4.6050
 4.8510	 4.5860
 4.8550	 4.5670
 4.8600	 4.5710
 4.8640	 4.5720
 4.8690	 4.5310
 4.8730	 4.5470
 4.8780	 4.5950
 4.8830	 4.6250
 4.8870	 4.5820
 4.8920	 4.5020
 4.8960	 4.5070
 4.9010	 4.5680
 4.9060	 4.5490
 4.9100	 4.5320
 4.9150	 4.5310
 4.9200	 4.5780
 4.9240	 4.5790
 4.9290	 4.5820
 4.9340	 4.5720
 4.9380	 4.5090
 4.9430	 4.4740
 4.9480	 4.5450
 4.9530	 4.5250
 4.9570	 4.5350
 4.9620	 4.5710
 4.9670	 4.5860
 4.9720	 4.6020
 4.9760	 4.6040
 4.9810	 4.4970
 4.9860	 4.4860
 4.9910	 4.5470
 4.9960	 4.6090
 5.0000	 4.6100
 5.0050	 4.5820
 5.0100	 4.5490
 5.0150	 4.5890
 5.0200	 4.5740
 5.0250	 4.5850
 5.0290	 4.5790
 5.0340	 4.6030
 5.0390	 4.5880
 5.0440	 4.6080
 5.0490	 4.5760
 5.0540	 4.5450
 5.0590	 4.5180
 5.0640	 4.5650
 5.0690	 4.5150
 5.0740	 4.5110
 5.0790	 4.5260
 5.0840	 4.5050
 5.0890	 4.4640
 5.0940	 4.4760
 5.0990	 4.4980
 5.1040	 4.5070
 5.1090	 4.5070
 5.1140	 4.5860
 5.1190	 4.6430
 5.1240	 4.6480
 5.1290	 4.5630
 5.1340	 4.5610
 5.1390	 4.5550
 5.1440	 4.5950
 5.1490	 4.5780
 5.1540	 4.5630
 5.1600	 4.6000
 5.1650	 4.6100
 5.1700	 4.5760
 5.1750	 4.5360
 5.1800	 4.4840
 5.1850	 4.5130
 5.1910	 4.5170
 5.1960	 4.5500
 5.2010	 4.5930
 5.2060	 4.6240
 5.2110	 4.5500
 5.2170	 4.5630
 5.2220	 4.5740
 5.2270	 4.5730
 5.2320	 4.5630
 5.2380	 4.5840
 5.2430	 4.5840
 5.2480	 4.6500
 5.2540	 4.6420
 5.2590	 4.6030
 5.2640	 4.5140
 5.2700	 4.4990
 5.2750	 4.5090
 5.2800	 4.5630
 5.2860	 4.5450
 5.2910	 4.5240
 5.2970	 4.5310
 5.3020	 4.5660
 5.3070	 4.5050
 5.3130	 4.5070
 5.3180	 4.5280
 5.3240	 4.5670
 5.3290	 4.5500
 5.3350	 4.5590
 5.3400	 4.5300
 5.3460	 4.5520
 5.3510	 4.5140
 5.3570	 4.5200
 5.3620	 4.5120
 5.3680	 4.5650
 5.3730	 4.5400
 5.3790	 4.5190
 5.3850	 4.5110
 5.3900	 4.5430
 5.3960	 4.5550
 5.4010	 4.5500
 5.4070	 4.4780
 5.4130	 4.4890
 5.4180	 4.4860
 5.4240	 4.5190
 5.4300	 4.4490
 5.4350	 4.4540
 5.4410	 4.4480
 5.4470	 4.5000
 5.4530	 4.4600
 5.4580	 4.4430
 5.4640	 4.4280
 5.4700	 4.4270
 5.4760	 4.4270
 5.4810	 4.4340
 5.4870	 4.4010
 5.4930	 4.3980
 5.4990	 4.3350
 5.5050	 4.3930
 5.5110	 4.4460
 5.5160	 4.4670
 5.5220	 4.3600
 5.5280	 4.2930
 5.5340	 4.2870
 5.5400	 4.3360
 5.5460	 4.3290
 5.5520	 4.3540
 5.5580	 4.3450
 5.5640	 4.3590
 5.5700	 4.3130
 5.5760	 4.3100
 5.5820	 4.2580
 5.5880	 4.2090
 5.5940	 4.2150
 5.6000	 4.2760
 5.6060	 4.1620
 5.6120	 4.1000
 5.6180	 4.1310
 5.6240	 4.1940
 5.6300	 4.1400
 5.6360	 4.1510
 5.6420	 4.1350
 5.6490	 4.1800
 5.6550	 4.1040
 5.6610	 4.0620
 5.6670	 4.0520
 5.6730	 4.1370
 5.6800	 4.1560
 5.6860	 4.1190
 5.6920	 4.0390
 5.6980	 4.1140
 5.7040	 4.1000
 5.7110	 4.0170
 5.7170	 3.9060
 5.7230	 3.9810
 5.7300	 3.9820
 5.7360	 4.0390
 5.7420	 4.1040
 5.7490	 4.1740
 5.7550	 4.1540
 5.7620	 4.2430
 5.7680	 4.2720
 5.7740	 4.3250
 5.7810	 4.3570
 5.7870	 4.3860
 5.7940	 4.3290
 5.8000	 4.3280
 5.8070	 4.3120
 5.8130	 4.3700
 5.8200	 4.3130
 5.8260	 4.3320
 5.8330	 4.3380
 5.8390	 4.3600
 5.8460	 4.3300
 5.8530	 4.3830
 5.8590	 4.4210
 5.8660	 4.4640
 5.8720	 4.4460
 5.8790	 4.5290
 5.8860	 4.5300
 5.8920	 4.5700
 5.8990	 4.5750
 5.9060	 4.6460
 5.9130	 4.6440
 5.9190	 4.6740
 5.9260	 4.5450
 5.9330	 4.4790
 5.9400	 4.4890
 5.9470	 4.6240
 5.9530	 4.5960
 5.9600	 4.6200
 5.9670	 4.6130
 5.9740	 4.6510
 5.9810	 4.5810
 5.9880	 4.5660
 5.9950	 4.5100
 6.0020	 4.5710
 6.0090	 4.5520
 6.0160	 4.5520
 6.0230	 4.4870
 6.0300	 4.5490
 6.0370	 4.5890
 6.0440	 4.7110
 6.0510	 4.6510
 6.0580	 4.6100
 6.0650	 4.5630
 6.0720	 4.6180
 6.0790	 4.6370
 6.0860	 4.7170
 6.0930	 4.7120
 6.1000	 4.7440
 6.1080	 4.5930
 6.1150	 4.5780
 6.1220	 4.5270
 6.1290	 4.5510
 6.1370	 4.5490
 6.1440	 4.6440
 6.1510	 4.6130
 6.1580	 4.7110
 6.1660	 4.6620
 6.1730	 4.6400
 6.1800	 4.6310
 6.1880	 4.7080
 6.1950	 4.7270
 6.2030	 4.7450
 6.2100	 4.6420
 6.2170	 4.6400
 6.2250	 4.6100
 6.2320	 4.6490
 6.2400	 4.5330
 6.2470	 4.6330
 6.2550	 4.6980
 6.2630	 4.7860
 6.2700	 4.7590
 6.2780	 4.7620
 6.2850	 4.6560
 6.2930	 4.6370
 6.3010	 4.6110
 6.3080	 4.6770
 6.3160	 4.6500
 6.3240	 4.6770
 6.3310	 4.5630
 6.3390	 4.5380
 6.3470	 4.5100
 6.3550	 4.5840
 6.3620	 4.5980
 6.3700	 4.6690
 6.3780	 4.5530
 6.3860	 4.5710
 6.3940	 4.5250
 6.4020	 4.5100
 6.4100	 4.4810
 6.4180	 4.5100
 6.4260	 4.4790
 6.4330	 4.5050
 6.4410	 4.4490
 6.4490	 4.4770
 6.4580	 4.4740
 6.4660	 4.5060
 6.4740	 4.3980
 6.4820	 4.4370
 6.4900	 4.4040
 6.4980	 4.5050
 6.5060	 4.4550
 6.5140	 4.3610
 6.5230	 4.3350
 6.5310	 4.4690
 6.5390	 4.4070
 6.5470	 4.4200
 6.5550	 4.3920
 6.5640	 4.4500
 6.5720	 4.3760
 6.5800	 4.3770
 6.5890	 4.3330
 6.5970	 4.3420
 6.6060	 4.2700
 6.6140	 4.3720
 6.6220	 4.3900
 6.6310	 4.3210
 6.6390	 4.2110
 6.6480	 4.2890
 6.6560	 4.3090
 6.6650	 4.3080
 6.6740	 4.1850
 6.6820	 4.2510
 6.6910	 4.2370
 6.6990	 4.2550
 6.7080	 4.2190
 6.7170	 4.2630
 6.7260	 4.1690
 6.7340	 4.1900
 6.7430	 4.1580
 6.7520	 4.2160
 6.7610	 4.1100
 6.7690	 3.9860
 6.7780	 3.8260
 6.7870	 4.0620
 6.7960	 4.3990
 6.8050	 4.4870
 6.8140	 4.2870
 6.8230	 4.2190
 6.8320	 4.2490
 6.8410	 4.6250
 6.8500	 4.7520
 6.8590	 4.7490
 6.8680	 4.6150
 6.8770	 4.6470
 6.8860	 4.5440
 6.8950	 4.5510
 6.9050	 4.5490
 6.9140	 4.6080
 6.9230	 4.5310
 6.9320	 4.5100
 6.9420	 4.3490
 6.9510	 4.4500
 6.9600	 4.5090
 6.9700	 4.5930
 6.9790	 4.5090
 6.9880	 4.5220
 6.9980	 4.5650
 7.0070	 4.6640
 7.0170	 4.4630
 7.0260	 4.4100
 7.0360	 4.3990
 7.0450	 4.4460
 7.0550	 4.4170
 7.0650	 4.5090
 7.0740	 4.5440
 7.0840	 4.6360
 7.0940	 4.5810
 7.1030	 4.6910
 7.1130	 4.6600
 7.1230	 4.6160
 7.1330	 4.5280
 7.1420	 4.6380
 7.1520	 4.5490
 7.1620	 4.5680
 7.1720	 4.5220
 7.1820	 4.5820
 7.1920	 4.4860
 7.2020	 4.5310
 7.2120	 4.4410
 7.2220	 4.4840
 7.2320	 4.4580
 7.2420	 4.4840
 7.2520	 4.3870
 7.2620	 4.4650
 7.2730	 4.4250
 7.2830	 4.5430
 7.2930	 4.5580
 7.3030	 4.5570
 7.3140	 4.4370
 7.3240	 4.4480
 7.3340	 4.4020
 7.3450	 4.4910
 7.3550	 4.4590
 7.3660	 4.5440
 7.3760	 4.5160
 7.3870	 4.5460
 7.3970	 4.4510
 7.4080	 4.5000
 7.4180	 4.4340
 7.4290	 4.4870
 7.4400	 4.4690
 7.4500	 4.4870
 7.4610	 4.3270
 7.4720	 4.4000
 7.4830	 4.4410
 7.4930	 4.5480
 7.5040	 4.4590
 7.5150	 4.5090
 7.5260	 4.4440
 7.5370	 4.4490
 7.5480	 4.3510
 7.5590	 4.4760
 7.5700	 4.4220
 7.5810	 4.4540
 7.5920	 4.4300
 7.6030	 4.5510
 7.6140	 4.4410
 7.6260	 4.4150
 7.6370	 4.3900
 7.6480	 4.4140
 7.6590	 4.3300
 7.6710	 4.5200
 7.6820	 4.4970
 7.6930	 4.4630
 7.7050	 4.3760
 7.7160	 4.4640
 7.7280	 4.3390
 7.7390	 4.3270
 7.7510	 4.2770
 7.7630	 4.3660
 7.7740	 4.2800
 7.7860	 4.3850
 7.7980	 4.3640
 7.8090	 4.4100
 7.8210	 4.3880
 7.8330	 4.4520
 7.8450	 4.3440
 7.8570	 4.4280
 7.8690	 4.3880
 7.8810	 4.4110
 7.8930	 4.3700
 7.9050	 4.4500
 7.9170	 4.3850
 7.9290	 4.4490
 7.9410	 4.4360
 7.9530	 4.5000
 7.9650	 4.3790
 7.9780	 4.4640
 7.9900	 4.3830
 8.0020	 4.3870
 8.0150	 4.3170
 8.0270	 4.4520
 8.0390	 4.3910
 8.0520	 4.4570
 8.0640	 4.4600
 8.0770	 4.5520
 8.0900	 4.4130
 8.1020	 4.4630
 8.1150	 4.2710
 8.1280	 4.3620
 8.1400	 4.3620
 8.1530	 4.5520
 8.1660	 4.5110
 8.1790	 4.5740
 8.1920	 4.5780
 8.2050	 4.7340
 8.2180	 4.5770
 8.2310	 4.5970
 8.2440	 4.4320
 8.2570	 4.5800
 8.2700	 4.5670
 8.2830	 4.6020
 8.2970	 4.4250
 8.3100	 4.5120
 8.3230	 4.5400
 8.3370	 4.7120
 8.3500	 4.6890
 8.3640	 4.6570
 8.3770	 4.5070
 8.3910	 4.5840
 8.4040	 4.5740
 8.4180	 4.7750
 8.4320	 4.6060
 8.4450	 4.7280
 8.4590	 4.6220
 8.4730	 4.7280
 8.4870	 4.6120
 8.5010	 4.6280
 8.5150	 4.5290
 8.5290	 4.7000
 8.5430	 4.6980
 8.5570	 4.8480
 8.5710	 4.6760
 8.5850	 4.8080
 8.5990	 4.7050
 8.6140	 4.7100
 8.6280	 4.6510
 8.6420	 4.8320
 8.6570	 4.6930
 8.6710	 4.7160
 8.6860	 4.5760
 8.7000	 4.7120
 8.7150	 4.6950
 8.7300	 4.7880
 8.7440	 4.5790
 8.7590	 4.6550
 8.7740	 4.5610
 8.7890	 4.7450
 8.8040	 4.6220
 8.8190	 4.6670
 8.8340	 4.5870
 8.8490	 4.6300
 8.8640	 4.4740
 8.8790	 4.6660
 8.8940	 4.6100
 8.9100	 4.7220
 8.9250	 4.7250
 8.9400	 4.9710
 8.9560	 4.8840
 8.9710	 4.9790
 8.9870	 4.7020
 9.0020	 4.7260
 9.0180	 4.7070
 9.0340	 4.7830
 9.0500	 4.7450
 9.0650	 4.8570
 9.0810	 4.6330
 9.0970	 4.8660
 9.1130	 4.7880
 9.1290	 4.7450
 9.1450	 4.6360
 9.1610	 4.8720
 9.1780	 4.7950
 9.1940	 4.8210
 9.2100	 4.6890
 9.2270	 4.8570
 9.2430	 4.8170
 9.2600	 4.9430
 9.2760	 4.8590
 9.2930	 4.9760
 9.3090	 4.6710
 9.3260	 4.7360
 9.3430	 4.7380
 9.3600	 5.0180
 9.3770	 4.9390
 9.3940	 4.8060
 9.4110	 4.6310
 9.4280	 4.9360
 9.4450	 4.8310
 9.4620	 5.0040
 9.4800	 4.9640
 9.4970	 5.1670
 9.5140	 4.9590
 9.5320	 5.1060
 9.5500	 5.0620
 9.5670	 5.1420
 9.5850	 5.0990
 9.6030	 5.2820
 9.6200	 5.1260
 9.6380	 5.2640
 9.6560	 5.0440
 9.6740	 5.0950
 9.6920	 4.9320
 9.7100	 4.9990
 9.7290	 4.8630
 9.7470	 5.2250
 9.7650	 5.2780
 9.7840	 5.2100
 9.8020	 4.9520
 9.8210	 5.1120
 9.8390	 5.0800
 9.8580	 5.2050
 9.8770	 5.0870
 9.8960	 5.1810
 9.9150	 5.0290
 9.9340	 5.2490
 9.9530	 5.0730
 9.9720	 5.1050
 9.9910	 4.9850
10.0100	 5.1080
10.0300	 4.8730
10.0490	 5.0100
10.0690	 4.8640
10.0880	 4.9290
10.1080	 4.8760
10.1280	 5.0290
10.1480	 4.7510
10.1670	 4.8740
10.1870	 4.7490
10.2070	 4.8190
10.2280	 4.7750
10.2480	 4.9040
10.2680	 4.7180
10.2890	 4.8370
10.3090	 4.7900
10.3300	 4.9360
10.3500	 4.6900
10.3710	 4.7410
10.3920	 4.5940
10.4120	 4.7590
10.4330	 4.6130
10.4540	 4.8440
10.4760	 4.7090
10.4970	 4.6360
10.5180	 4.5490
10.5390	 4.8390
10.5610	 4.6510
10.5820	 4.7700
10.6040	 4.7820
10.6260	 4.9840
10.6480	 4.7060
10.6700	 4.7430
10.6920	 4.5520
10.7140	 4.6770
10.7360	 4.6190
10.7580	 4.7870
10.7800	 4.5490
10.8030	 4.6520
10.8250	 4.5540
10.8480	 4.7360
10.8710	 4.5420
10.8940	 4.5550
10.9170	 4.4750
10.9400	 4.7800
10.9630	 4.5280
10.9860	 4.6000
11.0090	 4.5000
11.0330	 4.7350
11.0560	 4.6520
11.0800	 4.8080
11.1040	 4.2460
11.1270	 4.3120
11.1510	 4.4580
11.1750	 4.6290
11.2000	 4.5380
11.2240	 4.6700
11.2480	 4.4530
11.2730	 4.8940
11.2970	 5.2070
11.3220	 5.0130
11.3470	 4.5660
11.3720	 4.7480
11.3970	 4.5570
11.4220	 4.6500
11.4470	 4.4000
11.4720	 4.4990
11.4980	 4.3790
11.5230	 4.5890
11.5490	 4.4680
11.5750	 4.7290
11.6000	 4.5480
11.6260	 4.5540
11.6530	 4.2450
11.6790	 4.3850
11.7050	 4.2800
11.7320	 4.5140
11.7580	 4.3840
11.7850	 4.6180
11.8120	 4.4100
11.8390	 4.5820
11.8660	 4.4480
11.8930	 4.4140
11.9200	 4.1920
11.9480	 4.5220
11.9760	 4.3370
12.0030	 4.4870
12.0310	 4.3490
12.0590	 4.5960
12.0870	 4.4720
12.1150	 4.7070
12.1440	 4.4400
12.1720	 4.4360
12.2010	 4.3220
12.2300	 4.8700
12.2590	 4.6120
12.2880	 4.6780
12.3170	 4.4010
12.3460	 4.5090
12.3760	 4.2590
12.4050	 4.5420
12.4350	 4.5060
12.4650	 4.6670
12.4950	 4.2220
12.5250	 4.3020
12.5550	 4.1980
12.5860	 4.5700
12.6170	 4.2210
12.6470	 4.5210
12.6780	 4.2820
12.7090	 4.4510
12.7410	 4.3290
12.7720	 4.4420
12.8030	 4.1770
12.8350	 4.5140
12.8670	 4.3440
12.8990	 4.6480
12.9310	 4.5150
12.9640	 4.6240
12.9960	 4.2700
13.0290	 4.3290
13.0610	 3.9710
13.0940	 4.2890
13.1280	 4.3260
13.1610	 4.5960
13.1940	 4.1850
13.2280	 4.4670
13.2620	 4.4050
13.2960	 4.5800
13.3300	 4.2510
13.3640	 4.3490
13.3990	 3.9610
13.4340	 4.2760
13.4690	 4.1050
13.5040	 4.3100
13.5390	 4.0320
13.5740	 4.2130
13.6100	 3.8340
13.6460	 3.9550
13.6820	 3.7980
13.7180	 4.5180
13.7540	 4.5580
13.7910	 4.5790
13.8280	 3.9610
13.8650	 4.4490
13.9020	 4.7270
13.9390	 5.3080
13.9770	 4.7580
14.0150	 4.7930
14.0530	 4.4750
14.0910	 4.8600
14.1290	 4.6730
14.1680	 5.0180
14.2070	 4.6910
14.2460	 4.7490
14.2850	 4.2560
14.3240	 4.7740
14.3640	 4.2390
14.4040	 4.4420
14.4440	 4.1880
14.4840	 4.9490
14.5250	 4.6870
14.5660	 4.8820
14.6070	 4.2760
14.6480	 4.6400
14.6900	 4.0000
14.7310	 4.4950
14.7730	 4.2470
14.8150	 4.8620
14.8580	 4.6550
14.9010	 5.4510
14.9440	 5.6050
14.9870	 5.4500
15.0300	 4.1590
15.0740	 4.9660
15.1180	 4.3080
15.1620	 4.3090
15.2060	 3.4500
15.2510	 4.4190
15.2960	 4.0480
15.3410	 5.0270
15.3870	 4.5410
