Name: Quercus agrifolia 1
Type: vegetation
Class: Tree
Genus: Quercus
Species: agrifolia
Sample No.: VH271
Owner: UCSB
Wavelength Range: VSWIR
Origin: 34.7153; -120.0601; WGS84
Collection Date: 11/2/2013
Description: Samples were collected as part of the HyspIRI Airborne Campaign. 48 individual plants were sampled in three times in 2013 - spring  summer  and fall. The name of the sample includes a 1  2  or 3 which references a different individual of the species. Samples were taken to JPL and processed within 48 hours of collection. The same leaves were processed in the Nicolet and then measured using the ASD.
Measurement: Bidirectional reflectance
First Column: X
Second Column: Y
X Units: Wavelength (micrometers)
Y Units: Reflectance (percentage)
First X Value: 0.35
Last X Value: 2.5
Number of X Values: 2151
Additional Information: vegetation.tree.quercus.agrifolia.vswir.vh271.ucsb.asd.ancillary.txt

 0.3500	 7.5190
 0.3510	 7.5720
 0.3520	 7.6410
 0.3530	 7.6780
 0.3540	 7.6380
 0.3550	 7.3600
 0.3560	 7.3000
 0.3570	 7.4220
 0.3580	 7.4510
 0.3590	 7.4940
 0.3600	 7.4350
 0.3610	 7.2860
 0.3620	 7.2560
 0.3630	 7.2870
 0.3640	 7.3520
 0.3650	 7.4120
 0.3660	 7.3770
 0.3670	 7.3390
 0.3680	 7.3290
 0.3690	 7.3290
 0.3700	 7.3110
 0.3710	 7.2730
 0.3720	 7.2340
 0.3730	 7.2300
 0.3740	 7.2320
 0.3750	 7.2480
 0.3760	 7.2740
 0.3770	 7.2050
 0.3780	 7.2130
 0.3790	 7.2820
 0.3800	 7.2450
 0.3810	 7.2710
 0.3820	 7.3060
 0.3830	 7.2940
 0.3840	 7.2600
 0.3850	 7.2460
 0.3860	 7.2260
 0.3870	 7.1760
 0.3880	 7.2290
 0.3890	 7.2440
 0.3900	 7.1920
 0.3910	 7.1740
 0.3920	 7.1870
 0.3930	 7.2050
 0.3940	 7.2150
 0.3950	 7.2540
 0.3960	 7.2630
 0.3970	 7.2400
 0.3980	 7.2120
 0.3990	 7.1860
 0.4000	 7.1960
 0.4010	 7.2390
 0.4020	 7.2680
 0.4030	 7.2490
 0.4040	 7.2410
 0.4050	 7.2880
 0.4060	 7.2980
 0.4070	 7.2850
 0.4080	 7.2880
 0.4090	 7.3460
 0.4100	 7.3260
 0.4110	 7.3230
 0.4120	 7.3790
 0.4130	 7.3940
 0.4140	 7.4230
 0.4150	 7.4540
 0.4160	 7.4630
 0.4170	 7.4660
 0.4180	 7.4960
 0.4190	 7.5400
 0.4200	 7.5420
 0.4210	 7.5540
 0.4220	 7.5690
 0.4230	 7.5790
 0.4240	 7.5980
 0.4250	 7.6210
 0.4260	 7.6420
 0.4270	 7.6530
 0.4280	 7.6670
 0.4290	 7.6850
 0.4300	 7.7000
 0.4310	 7.6930
 0.4320	 7.6880
 0.4330	 7.6870
 0.4340	 7.6870
 0.4350	 7.6970
 0.4360	 7.7040
 0.4370	 7.7110
 0.4380	 7.7340
 0.4390	 7.7550
 0.4400	 7.7710
 0.4410	 7.7850
 0.4420	 7.8080
 0.4430	 7.8210
 0.4440	 7.8290
 0.4450	 7.8440
 0.4460	 7.8550
 0.4470	 7.8580
 0.4480	 7.8600
 0.4490	 7.8750
 0.4500	 7.8890
 0.4510	 7.9010
 0.4520	 7.9120
 0.4530	 7.9170
 0.4540	 7.9250
 0.4550	 7.9350
 0.4560	 7.9420
 0.4570	 7.9520
 0.4580	 7.9590
 0.4590	 7.9590
 0.4600	 7.9570
 0.4610	 7.9670
 0.4620	 7.9810
 0.4630	 7.9890
 0.4640	 8.0010
 0.4650	 8.0090
 0.4660	 8.0100
 0.4670	 8.0140
 0.4680	 8.0170
 0.4690	 8.0190
 0.4700	 8.0210
 0.4710	 8.0230
 0.4720	 8.0340
 0.4730	 8.0450
 0.4740	 8.0430
 0.4750	 8.0480
 0.4760	 8.0530
 0.4770	 8.0560
 0.4780	 8.0710
 0.4790	 8.0760
 0.4800	 8.0800
 0.4810	 8.0950
 0.4820	 8.1000
 0.4830	 8.1090
 0.4840	 8.1210
 0.4850	 8.1290
 0.4860	 8.1430
 0.4870	 8.1610
 0.4880	 8.1780
 0.4890	 8.1940
 0.4900	 8.2260
 0.4910	 8.2630
 0.4920	 8.2900
 0.4930	 8.3220
 0.4940	 8.3570
 0.4950	 8.3970
 0.4960	 8.4490
 0.4970	 8.4960
 0.4980	 8.5440
 0.4990	 8.5990
 0.5000	 8.6610
 0.5010	 8.7310
 0.5020	 8.8090
 0.5030	 8.8930
 0.5040	 8.9780
 0.5050	 9.0630
 0.5060	 9.1530
 0.5070	 9.2580
 0.5080	 9.3690
 0.5090	 9.4870
 0.5100	 9.6210
 0.5110	 9.7580
 0.5120	 9.9020
 0.5130	10.0560
 0.5140	10.2190
 0.5150	10.3930
 0.5160	10.5720
 0.5170	10.7490
 0.5180	10.9340
 0.5190	11.1210
 0.5200	11.3070
 0.5210	11.4890
 0.5220	11.6700
 0.5230	11.8460
 0.5240	12.0100
 0.5250	12.1560
 0.5260	12.2920
 0.5270	12.4170
 0.5280	12.5260
 0.5290	12.6220
 0.5300	12.7030
 0.5310	12.7680
 0.5320	12.8220
 0.5330	12.8650
 0.5340	12.8970
 0.5350	12.9170
 0.5360	12.9320
 0.5370	12.9490
 0.5380	12.9670
 0.5390	12.9810
 0.5400	12.9920
 0.5410	12.9990
 0.5420	13.0060
 0.5430	13.0360
 0.5440	13.0700
 0.5450	13.1080
 0.5460	13.1540
 0.5470	13.2230
 0.5480	13.2940
 0.5490	13.3500
 0.5500	13.3820
 0.5510	13.4110
 0.5520	13.4350
 0.5530	13.4480
 0.5540	13.4500
 0.5550	13.4430
 0.5560	13.4240
 0.5570	13.3900
 0.5580	13.3370
 0.5590	13.2750
 0.5600	13.2080
 0.5610	13.1220
 0.5620	13.0240
 0.5630	12.9180
 0.5640	12.8100
 0.5650	12.6890
 0.5660	12.5680
 0.5670	12.4550
 0.5680	12.3490
 0.5690	12.2420
 0.5700	12.1300
 0.5710	12.0160
 0.5720	11.9220
 0.5730	11.8390
 0.5740	11.7560
 0.5750	11.6590
 0.5760	11.5510
 0.5770	11.4440
 0.5780	11.3480
 0.5790	11.2580
 0.5800	11.1730
 0.5810	11.0970
 0.5820	11.0390
 0.5830	10.9990
 0.5840	10.9710
 0.5850	10.9470
 0.5860	10.9200
 0.5870	10.8890
 0.5880	10.8650
 0.5890	10.8540
 0.5900	10.8440
 0.5910	10.8270
 0.5920	10.8000
 0.5930	10.7700
 0.5940	10.7400
 0.5950	10.7110
 0.5960	10.6860
 0.5970	10.6610
 0.5980	10.6280
 0.5990	10.5850
 0.6000	10.5340
 0.6010	10.4820
 0.6020	10.4310
 0.6030	10.3790
 0.6040	10.3200
 0.6050	10.2620
 0.6060	10.2020
 0.6070	10.1390
 0.6080	10.0790
 0.6090	10.0160
 0.6100	 9.9430
 0.6110	 9.8570
 0.6120	 9.8050
 0.6130	 9.7720
 0.6140	 9.7430
 0.6150	 9.7100
 0.6160	 9.6770
 0.6170	 9.6460
 0.6180	 9.6190
 0.6190	 9.5940
 0.6200	 9.5720
 0.6210	 9.5530
 0.6220	 9.5380
 0.6230	 9.5270
 0.6240	 9.5200
 0.6250	 9.5160
 0.6260	 9.5140
 0.6270	 9.5140
 0.6280	 9.5150
 0.6290	 9.5160
 0.6300	 9.5190
 0.6310	 9.5200
 0.6320	 9.5200
 0.6330	 9.5220
 0.6340	 9.5210
 0.6350	 9.5140
 0.6360	 9.4980
 0.6370	 9.4710
 0.6380	 9.4400
 0.6390	 9.4070
 0.6400	 9.3680
 0.6410	 9.3180
 0.6420	 9.2630
 0.6430	 9.2090
 0.6440	 9.1550
 0.6450	 9.0980
 0.6460	 9.0380
 0.6470	 8.9770
 0.6480	 8.9260
 0.6490	 8.8720
 0.6500	 8.8170
 0.6510	 8.7680
 0.6520	 8.7240
 0.6530	 8.6790
 0.6540	 8.6290
 0.6550	 8.5810
 0.6560	 8.5360
 0.6570	 8.4910
 0.6580	 8.4420
 0.6590	 8.3980
 0.6600	 8.3530
 0.6610	 8.3060
 0.6620	 8.2680
 0.6630	 8.2350
 0.6640	 8.2050
 0.6650	 8.1790
 0.6660	 8.1640
 0.6670	 8.1490
 0.6680	 8.1400
 0.6690	 8.1490
 0.6700	 8.1580
 0.6710	 8.1650
 0.6720	 8.1740
 0.6730	 8.1990
 0.6740	 8.2280
 0.6750	 8.2640
 0.6760	 8.3050
 0.6770	 8.3480
 0.6780	 8.3990
 0.6790	 8.4610
 0.6800	 8.5320
 0.6810	 8.6080
 0.6820	 8.6940
 0.6830	 8.7960
 0.6840	 8.9120
 0.6850	 9.0470
 0.6860	 9.2040
 0.6870	 9.3870
 0.6880	 9.5960
 0.6890	 9.8400
 0.6900	10.1210
 0.6910	10.4360
 0.6920	10.8040
 0.6930	11.2210
 0.6940	11.6850
 0.6950	12.2080
 0.6960	12.7840
 0.6970	13.4160
 0.6980	14.1060
 0.6990	14.8410
 0.7000	15.6190
 0.7010	16.4370
 0.7020	17.2960
 0.7030	18.1770
 0.7040	19.0840
 0.7050	20.0110
 0.7060	20.9290
 0.7070	21.8490
 0.7080	22.7760
 0.7090	23.7120
 0.7100	24.6280
 0.7110	25.5350
 0.7120	26.4390
 0.7130	27.3330
 0.7140	28.2140
 0.7150	29.0680
 0.7160	29.8910
 0.7170	30.7200
 0.7180	31.5290
 0.7190	32.3100
 0.7200	33.0630
 0.7210	33.8010
 0.7220	34.5230
 0.7230	35.2190
 0.7240	35.8830
 0.7250	36.5330
 0.7260	37.1610
 0.7270	37.7590
 0.7280	38.3310
 0.7290	38.8750
 0.7300	39.4010
 0.7310	39.9210
 0.7320	40.4150
 0.7330	40.8690
 0.7340	41.2910
 0.7350	41.7150
 0.7360	42.1120
 0.7370	42.4870
 0.7380	42.8450
 0.7390	43.1780
 0.7400	43.4870
 0.7410	43.7780
 0.7420	44.0570
 0.7430	44.3220
 0.7440	44.5640
 0.7450	44.7860
 0.7460	45.0010
 0.7470	45.1980
 0.7480	45.3740
 0.7490	45.5340
 0.7500	45.6890
 0.7510	45.8240
 0.7520	45.9430
 0.7530	46.0590
 0.7540	46.1720
 0.7550	46.2630
 0.7560	46.3440
 0.7570	46.4390
 0.7580	46.5080
 0.7590	46.5710
 0.7600	46.6400
 0.7610	46.6970
 0.7620	46.7400
 0.7630	46.7700
 0.7640	46.7920
 0.7650	46.8240
 0.7660	46.8610
 0.7670	46.8930
 0.7680	46.9110
 0.7690	46.9320
 0.7700	46.9490
 0.7710	46.9630
 0.7720	46.9910
 0.7730	46.9990
 0.7740	47.0010
 0.7750	47.0130
 0.7760	47.0400
 0.7770	47.0460
 0.7780	47.0410
 0.7790	47.0520
 0.7800	47.0560
 0.7810	47.0610
 0.7820	47.0650
 0.7830	47.0590
 0.7840	47.0770
 0.7850	47.0960
 0.7860	47.0990
 0.7870	47.0970
 0.7880	47.1040
 0.7890	47.1170
 0.7900	47.1250
 0.7910	47.1230
 0.7920	47.1240
 0.7930	47.1320
 0.7940	47.1450
 0.7950	47.1530
 0.7960	47.1630
 0.7970	47.1740
 0.7980	47.1780
 0.7990	47.1940
 0.8000	47.2070
 0.8010	47.2040
 0.8020	47.2070
 0.8030	47.2160
 0.8040	47.2300
 0.8050	47.2470
 0.8060	47.2630
 0.8070	47.2720
 0.8080	47.2830
 0.8090	47.3090
 0.8100	47.3140
 0.8110	47.3240
 0.8120	47.3480
 0.8130	47.3450
 0.8140	47.3630
 0.8150	47.3930
 0.8160	47.4140
 0.8170	47.4240
 0.8180	47.4340
 0.8190	47.4510
 0.8200	47.4730
 0.8210	47.4940
 0.8220	47.5100
 0.8230	47.5200
 0.8240	47.5310
 0.8250	47.5570
 0.8260	47.5760
 0.8270	47.5820
 0.8280	47.6020
 0.8290	47.6320
 0.8300	47.6450
 0.8310	47.6340
 0.8320	47.6600
 0.8330	47.6850
 0.8340	47.7010
 0.8350	47.7160
 0.8360	47.7520
 0.8370	47.7690
 0.8380	47.7680
 0.8390	47.7850
 0.8400	47.7940
 0.8410	47.8090
 0.8420	47.8350
 0.8430	47.8540
 0.8440	47.8900
 0.8450	47.9170
 0.8460	47.9200
 0.8470	47.9300
 0.8480	47.9550
 0.8490	47.9810
 0.8500	47.9880
 0.8510	47.9890
 0.8520	47.9980
 0.8530	48.0200
 0.8540	48.0480
 0.8550	48.0500
 0.8560	48.0570
 0.8570	48.0740
 0.8580	48.0780
 0.8590	48.0870
 0.8600	48.1110
 0.8610	48.1410
 0.8620	48.1380
 0.8630	48.1410
 0.8640	48.1480
 0.8650	48.1520
 0.8660	48.1600
 0.8670	48.1600
 0.8680	48.1570
 0.8690	48.1630
 0.8700	48.1680
 0.8710	48.1780
 0.8720	48.1880
 0.8730	48.1840
 0.8740	48.1790
 0.8750	48.1880
 0.8760	48.2060
 0.8770	48.2120
 0.8780	48.2050
 0.8790	48.1950
 0.8800	48.1910
 0.8810	48.1940
 0.8820	48.1970
 0.8830	48.1880
 0.8840	48.1720
 0.8850	48.1880
 0.8860	48.1960
 0.8870	48.1940
 0.8880	48.1890
 0.8890	48.1910
 0.8900	48.1800
 0.8910	48.1530
 0.8920	48.1240
 0.8930	48.1250
 0.8940	48.1310
 0.8950	48.1350
 0.8960	48.1420
 0.8970	48.1340
 0.8980	48.1230
 0.8990	48.1150
 0.9000	48.1050
 0.9010	48.1040
 0.9020	48.1030
 0.9030	48.0930
 0.9040	48.0660
 0.9050	48.0490
 0.9060	48.0410
 0.9070	48.0350
 0.9080	48.0210
 0.9090	48.0190
 0.9100	48.0220
 0.9110	48.0180
 0.9120	48.0010
 0.9130	47.9970
 0.9140	47.9880
 0.9150	47.9550
 0.9160	47.9470
 0.9170	47.9560
 0.9180	47.9650
 0.9190	47.9570
 0.9200	47.9290
 0.9210	47.9130
 0.9220	47.9040
 0.9230	47.8860
 0.9240	47.8680
 0.9250	47.8520
 0.9260	47.8390
 0.9270	47.8260
 0.9280	47.7950
 0.9290	47.7870
 0.9300	47.7970
 0.9310	47.7750
 0.9320	47.7450
 0.9330	47.7060
 0.9340	47.6730
 0.9350	47.6780
 0.9360	47.6680
 0.9370	47.6450
 0.9380	47.6190
 0.9390	47.5950
 0.9400	47.5700
 0.9410	47.5470
 0.9420	47.5250
 0.9430	47.5030
 0.9440	47.4890
 0.9450	47.4650
 0.9460	47.4250
 0.9470	47.3890
 0.9480	47.3460
 0.9490	47.3020
 0.9500	47.2660
 0.9510	47.2350
 0.9520	47.1910
 0.9530	47.1330
 0.9540	47.0690
 0.9550	47.0110
 0.9560	46.9540
 0.9570	46.9150
 0.9580	46.8950
 0.9590	46.8220
 0.9600	46.7700
 0.9610	46.7310
 0.9620	46.6820
 0.9630	46.6560
 0.9640	46.6570
 0.9650	46.6550
 0.9660	46.6220
 0.9670	46.5980
 0.9680	46.5770
 0.9690	46.5690
 0.9700	46.5790
 0.9710	46.5700
 0.9720	46.5690
 0.9730	46.5770
 0.9740	46.5800
 0.9750	46.5400
 0.9760	46.5230
 0.9770	46.5390
 0.9780	46.5630
 0.9790	46.5610
 0.9800	46.5720
 0.9810	46.6080
 0.9820	46.6530
 0.9830	46.6660
 0.9840	46.6740
 0.9850	46.6960
 0.9860	46.7330
 0.9870	46.7410
 0.9880	46.7540
 0.9890	46.7790
 0.9900	46.8020
 0.9910	46.8060
 0.9920	46.8370
 0.9930	46.8870
 0.9940	46.9220
 0.9950	46.9230
 0.9960	46.9480
 0.9970	46.9840
 0.9980	46.9940
 0.9990	46.9980
 1.0000	46.9390
 1.0010	46.7250
 1.0020	46.6430
 1.0030	46.6700
 1.0040	46.6960
 1.0050	46.7220
 1.0060	46.7540
 1.0070	46.7840
 1.0080	46.8110
 1.0090	46.8360
 1.0100	46.8650
 1.0110	46.8910
 1.0120	46.9200
 1.0130	46.9550
 1.0140	46.9840
 1.0150	47.0090
 1.0160	47.0370
 1.0170	47.0660
 1.0180	47.0880
 1.0190	47.1100
 1.0200	47.1390
 1.0210	47.1660
 1.0220	47.1900
 1.0230	47.2150
 1.0240	47.2400
 1.0250	47.2630
 1.0260	47.2850
 1.0270	47.3090
 1.0280	47.3330
 1.0290	47.3550
 1.0300	47.3770
 1.0310	47.3980
 1.0320	47.4150
 1.0330	47.4330
 1.0340	47.4560
 1.0350	47.4760
 1.0360	47.4970
 1.0370	47.5210
 1.0380	47.5390
 1.0390	47.5550
 1.0400	47.5700
 1.0410	47.5830
 1.0420	47.5940
 1.0430	47.6030
 1.0440	47.6150
 1.0450	47.6270
 1.0460	47.6400
 1.0470	47.6580
 1.0480	47.6720
 1.0490	47.6850
 1.0500	47.6970
 1.0510	47.7050
 1.0520	47.7150
 1.0530	47.7260
 1.0540	47.7380
 1.0550	47.7480
 1.0560	47.7580
 1.0570	47.7700
 1.0580	47.7830
 1.0590	47.7930
 1.0600	47.8070
 1.0610	47.8150
 1.0620	47.8130
 1.0630	47.8190
 1.0640	47.8250
 1.0650	47.8320
 1.0660	47.8450
 1.0670	47.8520
 1.0680	47.8570
 1.0690	47.8580
 1.0700	47.8620
 1.0710	47.8650
 1.0720	47.8700
 1.0730	47.8770
 1.0740	47.8810
 1.0750	47.8830
 1.0760	47.8850
 1.0770	47.8870
 1.0780	47.8880
 1.0790	47.8870
 1.0800	47.8860
 1.0810	47.8840
 1.0820	47.8820
 1.0830	47.8810
 1.0840	47.8780
 1.0850	47.8730
 1.0860	47.8690
 1.0870	47.8660
 1.0880	47.8640
 1.0890	47.8610
 1.0900	47.8600
 1.0910	47.8570
 1.0920	47.8530
 1.0930	47.8470
 1.0940	47.8400
 1.0950	47.8320
 1.0960	47.8210
 1.0970	47.8100
 1.0980	47.7990
 1.0990	47.7870
 1.1000	47.7730
 1.1010	47.7600
 1.1020	47.7470
 1.1030	47.7350
 1.1040	47.7200
 1.1050	47.7050
 1.1060	47.6920
 1.1070	47.6790
 1.1080	47.6620
 1.1090	47.6450
 1.1100	47.6290
 1.1110	47.6110
 1.1120	47.5910
 1.1130	47.5720
 1.1140	47.5520
 1.1150	47.5290
 1.1160	47.5050
 1.1170	47.4870
 1.1180	47.4600
 1.1190	47.4280
 1.1200	47.3930
 1.1210	47.3590
 1.1220	47.3200
 1.1230	47.2800
 1.1240	47.2360
 1.1250	47.1870
 1.1260	47.1320
 1.1270	47.0720
 1.1280	47.0080
 1.1290	46.9390
 1.1300	46.8650
 1.1310	46.7830
 1.1320	46.6960
 1.1330	46.6030
 1.1340	46.5020
 1.1350	46.3950
 1.1360	46.2830
 1.1370	46.1630
 1.1380	46.0370
 1.1390	45.9080
 1.1400	45.7710
 1.1410	45.6330
 1.1420	45.4920
 1.1430	45.3460
 1.1440	45.2020
 1.1450	45.0550
 1.1460	44.9120
 1.1470	44.7630
 1.1480	44.6260
 1.1490	44.4920
 1.1500	44.3670
 1.1510	44.2510
 1.1520	44.1410
 1.1530	44.0370
 1.1540	43.9430
 1.1550	43.8600
 1.1560	43.7830
 1.1570	43.7150
 1.1580	43.6540
 1.1590	43.5970
 1.1600	43.5470
 1.1610	43.5050
 1.1620	43.4680
 1.1630	43.4360
 1.1640	43.4100
 1.1650	43.3880
 1.1660	43.3740
 1.1670	43.3590
 1.1680	43.3500
 1.1690	43.3400
 1.1700	43.3310
 1.1710	43.3220
 1.1720	43.3160
 1.1730	43.3100
 1.1740	43.3030
 1.1750	43.2960
 1.1760	43.2880
 1.1770	43.2790
 1.1780	43.2680
 1.1790	43.2570
 1.1800	43.2460
 1.1810	43.2310
 1.1820	43.2170
 1.1830	43.2020
 1.1840	43.1880
 1.1850	43.1760
 1.1860	43.1620
 1.1870	43.1490
 1.1880	43.1370
 1.1890	43.1250
 1.1900	43.1150
 1.1910	43.1070
 1.1920	43.0980
 1.1930	43.0910
 1.1940	43.0850
 1.1950	43.0790
 1.1960	43.0770
 1.1970	43.0770
 1.1980	43.0770
 1.1990	43.0790
 1.2000	43.0820
 1.2010	43.0880
 1.2020	43.0950
 1.2030	43.1040
 1.2040	43.1130
 1.2050	43.1220
 1.2060	43.1330
 1.2070	43.1480
 1.2080	43.1640
 1.2090	43.1840
 1.2100	43.2050
 1.2110	43.2290
 1.2120	43.2560
 1.2130	43.2850
 1.2140	43.3160
 1.2150	43.3500
 1.2160	43.3870
 1.2170	43.4230
 1.2180	43.4620
 1.2190	43.5040
 1.2200	43.5470
 1.2210	43.5920
 1.2220	43.6360
 1.2230	43.6790
 1.2240	43.7240
 1.2250	43.7680
 1.2260	43.8110
 1.2270	43.8550
 1.2280	43.8970
 1.2290	43.9400
 1.2300	43.9820
 1.2310	44.0200
 1.2320	44.0600
 1.2330	44.0940
 1.2340	44.1290
 1.2350	44.1650
 1.2360	44.2020
 1.2370	44.2390
 1.2380	44.2760
 1.2390	44.3140
 1.2400	44.3460
 1.2410	44.3750
 1.2420	44.4020
 1.2430	44.4260
 1.2440	44.4460
 1.2450	44.4670
 1.2460	44.4930
 1.2470	44.5190
 1.2480	44.5480
 1.2490	44.5730
 1.2500	44.5920
 1.2510	44.6070
 1.2520	44.6220
 1.2530	44.6380
 1.2540	44.6550
 1.2550	44.6700
 1.2560	44.6830
 1.2570	44.6940
 1.2580	44.7040
 1.2590	44.7150
 1.2600	44.7280
 1.2610	44.7360
 1.2620	44.7440
 1.2630	44.7500
 1.2640	44.7520
 1.2650	44.7550
 1.2660	44.7590
 1.2670	44.7630
 1.2680	44.7640
 1.2690	44.7660
 1.2700	44.7660
 1.2710	44.7640
 1.2720	44.7640
 1.2730	44.7590
 1.2740	44.7520
 1.2750	44.7470
 1.2760	44.7390
 1.2770	44.7310
 1.2780	44.7230
 1.2790	44.7120
 1.2800	44.6990
 1.2810	44.6860
 1.2820	44.6740
 1.2830	44.6620
 1.2840	44.6490
 1.2850	44.6370
 1.2860	44.6210
 1.2870	44.6030
 1.2880	44.5800
 1.2890	44.5570
 1.2900	44.5330
 1.2910	44.5070
 1.2920	44.4810
 1.2930	44.4570
 1.2940	44.4310
 1.2950	44.4010
 1.2960	44.3690
 1.2970	44.3340
 1.2980	44.2960
 1.2990	44.2550
 1.3000	44.2110
 1.3010	44.1650
 1.3020	44.1150
 1.3030	44.0620
 1.3040	44.0070
 1.3050	43.9500
 1.3060	43.8900
 1.3070	43.8260
 1.3080	43.7570
 1.3090	43.6860
 1.3100	43.6120
 1.3110	43.5340
 1.3120	43.4560
 1.3130	43.3740
 1.3140	43.2870
 1.3150	43.1960
 1.3160	43.1020
 1.3170	43.0030
 1.3180	42.8980
 1.3190	42.7940
 1.3200	42.6840
 1.3210	42.5700
 1.3220	42.4540
 1.3230	42.3330
 1.3240	42.2060
 1.3250	42.0790
 1.3260	41.9460
 1.3270	41.8120
 1.3280	41.6780
 1.3290	41.5380
 1.3300	41.3970
 1.3310	41.2530
 1.3320	41.1050
 1.3330	40.9580
 1.3340	40.8080
 1.3350	40.6530
 1.3360	40.4960
 1.3370	40.3360
 1.3380	40.1780
 1.3390	40.0180
 1.3400	39.8580
 1.3410	39.7020
 1.3420	39.5460
 1.3430	39.3890
 1.3440	39.2350
 1.3450	39.0800
 1.3460	38.9210
 1.3470	38.7670
 1.3480	38.6130
 1.3490	38.4640
 1.3500	38.3170
 1.3510	38.1750
 1.3520	38.0350
 1.3530	37.8950
 1.3540	37.7540
 1.3550	37.6120
 1.3560	37.4650
 1.3570	37.3180
 1.3580	37.1720
 1.3590	37.0210
 1.3600	36.8680
 1.3610	36.7110
 1.3620	36.5450
 1.3630	36.3740
 1.3640	36.1990
 1.3650	36.0160
 1.3660	35.8280
 1.3670	35.6320
 1.3680	35.4250
 1.3690	35.2090
 1.3700	34.9770
 1.3710	34.7370
 1.3720	34.4840
 1.3730	34.2130
 1.3740	33.9290
 1.3750	33.6290
 1.3760	33.3080
 1.3770	32.9660
 1.3780	32.6000
 1.3790	32.2130
 1.3800	31.8060
 1.3810	31.3730
 1.3820	30.9240
 1.3830	30.4570
 1.3840	29.9710
 1.3850	29.4660
 1.3860	28.9490
 1.3870	28.4110
 1.3880	27.8710
 1.3890	27.3180
 1.3900	26.7580
 1.3910	26.1990
 1.3920	25.6370
 1.3930	25.0740
 1.3940	24.5150
 1.3950	23.9580
 1.3960	23.4090
 1.3970	22.8720
 1.3980	22.3460
 1.3990	21.8390
 1.4000	21.3480
 1.4010	20.8720
 1.4020	20.4160
 1.4030	19.9780
 1.4040	19.5620
 1.4050	19.1680
 1.4060	18.7950
 1.4070	18.4480
 1.4080	18.1220
 1.4090	17.8150
 1.4100	17.5310
 1.4110	17.2660
 1.4120	17.0210
 1.4130	16.7970
 1.4140	16.5890
 1.4150	16.4020
 1.4160	16.2320
 1.4170	16.0760
 1.4180	15.9350
 1.4190	15.8070
 1.4200	15.6910
 1.4210	15.5870
 1.4220	15.4950
 1.4230	15.4140
 1.4240	15.3430
 1.4250	15.2790
 1.4260	15.2240
 1.4270	15.1750
 1.4280	15.1350
 1.4290	15.1000
 1.4300	15.0740
 1.4310	15.0510
 1.4320	15.0340
 1.4330	15.0220
 1.4340	15.0160
 1.4350	15.0130
 1.4360	15.0150
 1.4370	15.0200
 1.4380	15.0270
 1.4390	15.0370
 1.4400	15.0510
 1.4410	15.0670
 1.4420	15.0860
 1.4430	15.1050
 1.4440	15.1280
 1.4450	15.1510
 1.4460	15.1750
 1.4470	15.2020
 1.4480	15.2280
 1.4490	15.2550
 1.4500	15.2810
 1.4510	15.3070
 1.4520	15.3340
 1.4530	15.3630
 1.4540	15.3930
 1.4550	15.4260
 1.4560	15.4600
 1.4570	15.4960
 1.4580	15.5350
 1.4590	15.5760
 1.4600	15.6200
 1.4610	15.6670
 1.4620	15.7180
 1.4630	15.7740
 1.4640	15.8310
 1.4650	15.8930
 1.4660	15.9600
 1.4670	16.0310
 1.4680	16.1080
 1.4690	16.1900
 1.4700	16.2750
 1.4710	16.3630
 1.4720	16.4540
 1.4730	16.5480
 1.4740	16.6470
 1.4750	16.7490
 1.4760	16.8550
 1.4770	16.9620
 1.4780	17.0700
 1.4790	17.1810
 1.4800	17.2910
 1.4810	17.4020
 1.4820	17.5140
 1.4830	17.6270
 1.4840	17.7430
 1.4850	17.8580
 1.4860	17.9740
 1.4870	18.0920
 1.4880	18.2080
 1.4890	18.3250
 1.4900	18.4420
 1.4910	18.5600
 1.4920	18.6790
 1.4930	18.8000
 1.4940	18.9190
 1.4950	19.0390
 1.4960	19.1590
 1.4970	19.2790
 1.4980	19.4000
 1.4990	19.5210
 1.5000	19.6430
 1.5010	19.7660
 1.5020	19.8870
 1.5030	20.0090
 1.5040	20.1290
 1.5050	20.2480
 1.5060	20.3670
 1.5070	20.4860
 1.5080	20.6030
 1.5090	20.7210
 1.5100	20.8370
 1.5110	20.9520
 1.5120	21.0700
 1.5130	21.1860
 1.5140	21.3010
 1.5150	21.4170
 1.5160	21.5300
 1.5170	21.6430
 1.5180	21.7570
 1.5190	21.8700
 1.5200	21.9810
 1.5210	22.0900
 1.5220	22.1980
 1.5230	22.3050
 1.5240	22.4100
 1.5250	22.5170
 1.5260	22.6220
 1.5270	22.7250
 1.5280	22.8290
 1.5290	22.9320
 1.5300	23.0320
 1.5310	23.1310
 1.5320	23.2270
 1.5330	23.3220
 1.5340	23.4180
 1.5350	23.5140
 1.5360	23.6090
 1.5370	23.7020
 1.5380	23.7950
 1.5390	23.8870
 1.5400	23.9760
 1.5410	24.0650
 1.5420	24.1520
 1.5430	24.2380
 1.5440	24.3270
 1.5450	24.4160
 1.5460	24.5030
 1.5470	24.5910
 1.5480	24.6760
 1.5490	24.7590
 1.5500	24.8430
 1.5510	24.9270
 1.5520	25.0100
 1.5530	25.0920
 1.5540	25.1730
 1.5550	25.2520
 1.5560	25.3310
 1.5570	25.4090
 1.5580	25.4860
 1.5590	25.5610
 1.5600	25.6350
 1.5610	25.7070
 1.5620	25.7800
 1.5630	25.8540
 1.5640	25.9260
 1.5650	26.0000
 1.5660	26.0720
 1.5670	26.1410
 1.5680	26.2120
 1.5690	26.2810
 1.5700	26.3490
 1.5710	26.4180
 1.5720	26.4840
 1.5730	26.5530
 1.5740	26.6210
 1.5750	26.6870
 1.5760	26.7560
 1.5770	26.8230
 1.5780	26.8880
 1.5790	26.9550
 1.5800	27.0210
 1.5810	27.0870
 1.5820	27.1550
 1.5830	27.2230
 1.5840	27.2910
 1.5850	27.3560
 1.5860	27.4200
 1.5870	27.4850
 1.5880	27.5470
 1.5890	27.6100
 1.5900	27.6760
 1.5910	27.7410
 1.5920	27.8080
 1.5930	27.8740
 1.5940	27.9400
 1.5950	28.0050
 1.5960	28.0710
 1.5970	28.1360
 1.5980	28.2000
 1.5990	28.2630
 1.6000	28.3260
 1.6010	28.3870
 1.6020	28.4480
 1.6030	28.5090
 1.6040	28.5690
 1.6050	28.6280
 1.6060	28.6860
 1.6070	28.7440
 1.6080	28.8020
 1.6090	28.8580
 1.6100	28.9130
 1.6110	28.9680
 1.6120	29.0220
 1.6130	29.0780
 1.6140	29.1320
 1.6150	29.1840
 1.6160	29.2360
 1.6170	29.2870
 1.6180	29.3350
 1.6190	29.3860
 1.6200	29.4340
 1.6210	29.4800
 1.6220	29.5270
 1.6230	29.5720
 1.6240	29.6130
 1.6250	29.6520
 1.6260	29.6880
 1.6270	29.7260
 1.6280	29.7650
 1.6290	29.8030
 1.6300	29.8420
 1.6310	29.8770
 1.6320	29.9110
 1.6330	29.9420
 1.6340	29.9710
 1.6350	29.9990
 1.6360	30.0260
 1.6370	30.0510
 1.6380	30.0760
 1.6390	30.0970
 1.6400	30.1160
 1.6410	30.1300
 1.6420	30.1400
 1.6430	30.1500
 1.6440	30.1590
 1.6450	30.1670
 1.6460	30.1720
 1.6470	30.1710
 1.6480	30.1690
 1.6490	30.1630
 1.6500	30.1540
 1.6510	30.1460
 1.6520	30.1330
 1.6530	30.1210
 1.6540	30.1090
 1.6550	30.0960
 1.6560	30.0810
 1.6570	30.0660
 1.6580	30.0480
 1.6590	30.0300
 1.6600	30.0150
 1.6610	29.9990
 1.6620	29.9830
 1.6630	29.9670
 1.6640	29.9480
 1.6650	29.9330
 1.6660	29.9190
 1.6670	29.9020
 1.6680	29.8860
 1.6690	29.8670
 1.6700	29.8470
 1.6710	29.8280
 1.6720	29.8070
 1.6730	29.7840
 1.6740	29.7610
 1.6750	29.7330
 1.6760	29.7040
 1.6770	29.6760
 1.6780	29.6430
 1.6790	29.6090
 1.6800	29.5720
 1.6810	29.5290
 1.6820	29.4830
 1.6830	29.4350
 1.6840	29.3850
 1.6850	29.3350
 1.6860	29.2830
 1.6870	29.2310
 1.6880	29.1760
 1.6890	29.1170
 1.6900	29.0580
 1.6910	28.9960
 1.6920	28.9370
 1.6930	28.8800
 1.6940	28.8210
 1.6950	28.7630
 1.6960	28.7030
 1.6970	28.6420
 1.6980	28.5800
 1.6990	28.5190
 1.7000	28.4550
 1.7010	28.3890
 1.7020	28.3220
 1.7030	28.2540
 1.7040	28.1840
 1.7050	28.1110
 1.7060	28.0390
 1.7070	27.9630
 1.7080	27.8910
 1.7090	27.8190
 1.7100	27.7460
 1.7110	27.6760
 1.7120	27.6010
 1.7130	27.5270
 1.7140	27.4540
 1.7150	27.3830
 1.7160	27.3130
 1.7170	27.2440
 1.7180	27.1770
 1.7190	27.1090
 1.7200	27.0480
 1.7210	26.9930
 1.7220	26.9350
 1.7230	26.8830
 1.7240	26.8310
 1.7250	26.7770
 1.7260	26.7270
 1.7270	26.6850
 1.7280	26.6480
 1.7290	26.6160
 1.7300	26.5910
 1.7310	26.5710
 1.7320	26.5560
 1.7330	26.5430
 1.7340	26.5380
 1.7350	26.5310
 1.7360	26.5270
 1.7370	26.5180
 1.7380	26.5110
 1.7390	26.4960
 1.7400	26.4750
 1.7410	26.4480
 1.7420	26.4130
 1.7430	26.3750
 1.7440	26.3280
 1.7450	26.2810
 1.7460	26.2320
 1.7470	26.1800
 1.7480	26.1270
 1.7490	26.0710
 1.7500	26.0080
 1.7510	25.9480
 1.7520	25.8860
 1.7530	25.8250
 1.7540	25.7660
 1.7550	25.7040
 1.7560	25.6440
 1.7570	25.5840
 1.7580	25.5240
 1.7590	25.4650
 1.7600	25.4060
 1.7610	25.3510
 1.7620	25.3010
 1.7630	25.2580
 1.7640	25.2170
 1.7650	25.1770
 1.7660	25.1400
 1.7670	25.1070
 1.7680	25.0750
 1.7690	25.0490
 1.7700	25.0210
 1.7710	24.9940
 1.7720	24.9680
 1.7730	24.9410
 1.7740	24.9170
 1.7750	24.8950
 1.7760	24.8720
 1.7770	24.8480
 1.7780	24.8240
 1.7790	24.7990
 1.7800	24.7750
 1.7810	24.7520
 1.7820	24.7320
 1.7830	24.7130
 1.7840	24.6940
 1.7850	24.6760
 1.7860	24.6600
 1.7870	24.6420
 1.7880	24.6300
 1.7890	24.6210
 1.7900	24.6110
 1.7910	24.6010
 1.7920	24.5900
 1.7930	24.5830
 1.7940	24.5790
 1.7950	24.5760
 1.7960	24.5770
 1.7970	24.5760
 1.7980	24.5770
 1.7990	24.5750
 1.8000	24.5700
 1.8010	24.5690
 1.8020	24.5690
 1.8030	24.5710
 1.8040	24.5790
 1.8050	24.5820
 1.8060	24.5830
 1.8070	24.5850
 1.8080	24.5860
 1.8090	24.5880
 1.8100	24.5920
 1.8110	24.5950
 1.8120	24.5970
 1.8130	24.6010
 1.8140	24.6060
 1.8150	24.6080
 1.8160	24.6070
 1.8170	24.6050
 1.8180	24.6020
 1.8190	24.6010
 1.8200	24.6020
 1.8210	24.6070
 1.8220	24.6050
 1.8230	24.5990
 1.8240	24.5940
 1.8250	24.5850
 1.8260	24.5780
 1.8270	24.5760
 1.8280	24.5710
 1.8290	24.5650
 1.8300	24.8050
 1.8310	25.3070
 1.8320	25.5380
 1.8330	25.5140
 1.8340	25.4880
 1.8350	25.4610
 1.8360	25.4250
 1.8370	25.3820
 1.8380	25.3400
 1.8390	25.2910
 1.8400	25.2380
 1.8410	25.1770
 1.8420	25.1110
 1.8430	25.0350
 1.8440	24.9500
 1.8450	24.8640
 1.8460	24.7720
 1.8470	24.6720
 1.8480	24.5630
 1.8490	24.4440
 1.8500	24.3130
 1.8510	24.1720
 1.8520	24.0160
 1.8530	23.8500
 1.8540	23.6750
 1.8550	23.4930
 1.8560	23.2960
 1.8570	23.0850
 1.8580	22.8650
 1.8590	22.6290
 1.8600	22.3760
 1.8610	22.1110
 1.8620	21.8330
 1.8630	21.5420
 1.8640	21.2370
 1.8650	20.9140
 1.8660	20.5760
 1.8670	20.2190
 1.8680	19.8420
 1.8690	19.4520
 1.8700	19.0480
 1.8710	18.6300
 1.8720	18.2020
 1.8730	17.7630
 1.8740	17.3170
 1.8750	16.8670
 1.8760	16.4080
 1.8770	15.9510
 1.8780	15.4930
 1.8790	15.0340
 1.8800	14.5850
 1.8810	14.1410
 1.8820	13.7000
 1.8830	13.2670
 1.8840	12.8460
 1.8850	12.4310
 1.8860	12.0300
 1.8870	11.6470
 1.8880	11.2780
 1.8890	10.9290
 1.8900	10.5960
 1.8910	10.2820
 1.8920	 9.9850
 1.8930	 9.7070
 1.8940	 9.4500
 1.8950	 9.2140
 1.8960	 8.9960
 1.8970	 8.7970
 1.8980	 8.6160
 1.8990	 8.4500
 1.9000	 8.3000
 1.9010	 8.1710
 1.9020	 8.0500
 1.9030	 7.9430
 1.9040	 7.8490
 1.9050	 7.7660
 1.9060	 7.6910
 1.9070	 7.6280
 1.9080	 7.5740
 1.9090	 7.5250
 1.9100	 7.4820
 1.9110	 7.4440
 1.9120	 7.4120
 1.9130	 7.3840
 1.9140	 7.3620
 1.9150	 7.3430
 1.9160	 7.3250
 1.9170	 7.3130
 1.9180	 7.3020
 1.9190	 7.2940
 1.9200	 7.2900
 1.9210	 7.2870
 1.9220	 7.2860
 1.9230	 7.2870
 1.9240	 7.2900
 1.9250	 7.2950
 1.9260	 7.3020
 1.9270	 7.3100
 1.9280	 7.3200
 1.9290	 7.3340
 1.9300	 7.3470
 1.9310	 7.3610
 1.9320	 7.3770
 1.9330	 7.3910
 1.9340	 7.4030
 1.9350	 7.4190
 1.9360	 7.4360
 1.9370	 7.4560
 1.9380	 7.4800
 1.9390	 7.5030
 1.9400	 7.5270
 1.9410	 7.5530
 1.9420	 7.5740
 1.9430	 7.5970
 1.9440	 7.6230
 1.9450	 7.6490
 1.9460	 7.6760
 1.9470	 7.7080
 1.9480	 7.7390
 1.9490	 7.7700
 1.9500	 7.8030
 1.9510	 7.8390
 1.9520	 7.8730
 1.9530	 7.9090
 1.9540	 7.9450
 1.9550	 7.9800
 1.9560	 8.0120
 1.9570	 8.0490
 1.9580	 8.0880
 1.9590	 8.1270
 1.9600	 8.1700
 1.9610	 8.2110
 1.9620	 8.2530
 1.9630	 8.2920
 1.9640	 8.3340
 1.9650	 8.3750
 1.9660	 8.4150
 1.9670	 8.4580
 1.9680	 8.5010
 1.9690	 8.5430
 1.9700	 8.5910
 1.9710	 8.6440
 1.9720	 8.6940
 1.9730	 8.7450
 1.9740	 8.7970
 1.9750	 8.8450
 1.9760	 8.8930
 1.9770	 8.9420
 1.9780	 8.9940
 1.9790	 9.0480
 1.9800	 9.1040
 1.9810	 9.1600
 1.9820	 9.2190
 1.9830	 9.2750
 1.9840	 9.3300
 1.9850	 9.3850
 1.9860	 9.4390
 1.9870	 9.4930
 1.9880	 9.5510
 1.9890	 9.6100
 1.9900	 9.6700
 1.9910	 9.7300
 1.9920	 9.7900
 1.9930	 9.8500
 1.9940	 9.9090
 1.9950	 9.9650
 1.9960	10.0250
 1.9970	10.0890
 1.9980	10.1490
 1.9990	10.2110
 2.0000	10.2730
 2.0010	10.3310
 2.0020	10.3870
 2.0030	10.4440
 2.0040	10.5020
 2.0050	10.5610
 2.0060	10.6200
 2.0070	10.6790
 2.0080	10.7420
 2.0090	10.8010
 2.0100	10.8580
 2.0110	10.9130
 2.0120	10.9650
 2.0130	11.0160
 2.0140	11.0670
 2.0150	11.1180
 2.0160	11.1720
 2.0170	11.2250
 2.0180	11.2760
 2.0190	11.3280
 2.0200	11.3780
 2.0210	11.4240
 2.0220	11.4710
 2.0230	11.5170
 2.0240	11.5630
 2.0250	11.6130
 2.0260	11.6570
 2.0270	11.6960
 2.0280	11.7370
 2.0290	11.7750
 2.0300	11.8110
 2.0310	11.8460
 2.0320	11.8820
 2.0330	11.9170
 2.0340	11.9510
 2.0350	11.9840
 2.0360	12.0190
 2.0370	12.0500
 2.0380	12.0770
 2.0390	12.1050
 2.0400	12.1320
 2.0410	12.1590
 2.0420	12.1870
 2.0430	12.2140
 2.0440	12.2420
 2.0450	12.2690
 2.0460	12.2940
 2.0470	12.3180
 2.0480	12.3440
 2.0490	12.3690
 2.0500	12.3940
 2.0510	12.4220
 2.0520	12.4470
 2.0530	12.4710
 2.0540	12.4940
 2.0550	12.5180
 2.0560	12.5410
 2.0570	12.5680
 2.0580	12.5940
 2.0590	12.6180
 2.0600	12.6460
 2.0610	12.6680
 2.0620	12.6840
 2.0630	12.7050
 2.0640	12.7240
 2.0650	12.7470
 2.0660	12.7750
 2.0670	12.8000
 2.0680	12.8250
 2.0690	12.8500
 2.0700	12.8690
 2.0710	12.8930
 2.0720	12.9180
 2.0730	12.9450
 2.0740	12.9710
 2.0750	13.0010
 2.0760	13.0270
 2.0770	13.0490
 2.0780	13.0750
 2.0790	13.1010
 2.0800	13.1290
 2.0810	13.1590
 2.0820	13.1870
 2.0830	13.2140
 2.0840	13.2390
 2.0850	13.2630
 2.0860	13.2870
 2.0870	13.3110
 2.0880	13.3340
 2.0890	13.3550
 2.0900	13.3760
 2.0910	13.3980
 2.0920	13.4190
 2.0930	13.4440
 2.0940	13.4750
 2.0950	13.5010
 2.0960	13.5250
 2.0970	13.5510
 2.0980	13.5760
 2.0990	13.6010
 2.1000	13.6320
 2.1010	13.6570
 2.1020	13.6760
 2.1030	13.6990
 2.1040	13.7240
 2.1050	13.7480
 2.1060	13.7730
 2.1070	13.8010
 2.1080	13.8270
 2.1090	13.8490
 2.1100	13.8760
 2.1110	13.9070
 2.1120	13.9340
 2.1130	13.9620
 2.1140	13.9870
 2.1150	14.0090
 2.1160	14.0320
 2.1170	14.0540
 2.1180	14.0770
 2.1190	14.1020
 2.1200	14.1270
 2.1210	14.1560
 2.1220	14.1830
 2.1230	14.2060
 2.1240	14.2280
 2.1250	14.2480
 2.1260	14.2630
 2.1270	14.2820
 2.1280	14.3020
 2.1290	14.3210
 2.1300	14.3400
 2.1310	14.3590
 2.1320	14.3770
 2.1330	14.3970
 2.1340	14.4200
 2.1350	14.4410
 2.1360	14.4620
 2.1370	14.4830
 2.1380	14.5040
 2.1390	14.5260
 2.1400	14.5470
 2.1410	14.5710
 2.1420	14.5910
 2.1430	14.6100
 2.1440	14.6300
 2.1450	14.6470
 2.1460	14.6670
 2.1470	14.6910
 2.1480	14.7120
 2.1490	14.7360
 2.1500	14.7570
 2.1510	14.7770
 2.1520	14.7980
 2.1530	14.8210
 2.1540	14.8440
 2.1550	14.8700
 2.1560	14.8890
 2.1570	14.9040
 2.1580	14.9200
 2.1590	14.9340
 2.1600	14.9470
 2.1610	14.9650
 2.1620	14.9830
 2.1630	14.9990
 2.1640	15.0130
 2.1650	15.0290
 2.1660	15.0430
 2.1670	15.0590
 2.1680	15.0770
 2.1690	15.0960
 2.1700	15.1180
 2.1710	15.1350
 2.1720	15.1510
 2.1730	15.1690
 2.1740	15.1870
 2.1750	15.2020
 2.1760	15.2190
 2.1770	15.2350
 2.1780	15.2440
 2.1790	15.2590
 2.1800	15.2800
 2.1810	15.2990
 2.1820	15.3200
 2.1830	15.3390
 2.1840	15.3550
 2.1850	15.3660
 2.1860	15.3820
 2.1870	15.4000
 2.1880	15.4170
 2.1890	15.4370
 2.1900	15.4570
 2.1910	15.4750
 2.1920	15.4940
 2.1930	15.5170
 2.1940	15.5340
 2.1950	15.5480
 2.1960	15.5630
 2.1970	15.5750
 2.1980	15.5900
 2.1990	15.6070
 2.2000	15.6230
 2.2010	15.6410
 2.2020	15.6570
 2.2030	15.6730
 2.2040	15.6870
 2.2050	15.6980
 2.2060	15.7110
 2.2070	15.7230
 2.2080	15.7330
 2.2090	15.7450
 2.2100	15.7590
 2.2110	15.7680
 2.2120	15.7760
 2.2130	15.7810
 2.2140	15.7810
 2.2150	15.7830
 2.2160	15.7880
 2.2170	15.7850
 2.2180	15.7780
 2.2190	15.7720
 2.2200	15.7620
 2.2210	15.7540
 2.2220	15.7490
 2.2230	15.7390
 2.2240	15.7250
 2.2250	15.7080
 2.2260	15.6910
 2.2270	15.6670
 2.2280	15.6350
 2.2290	15.6020
 2.2300	15.5660
 2.2310	15.5240
 2.2320	15.4820
 2.2330	15.4400
 2.2340	15.3930
 2.2350	15.3410
 2.2360	15.2920
 2.2370	15.2420
 2.2380	15.1900
 2.2390	15.1380
 2.2400	15.0820
 2.2410	15.0220
 2.2420	14.9610
 2.2430	14.8970
 2.2440	14.8340
 2.2450	14.7720
 2.2460	14.7060
 2.2470	14.6380
 2.2480	14.5710
 2.2490	14.4980
 2.2500	14.4330
 2.2510	14.3760
 2.2520	14.3140
 2.2530	14.2510
 2.2540	14.1910
 2.2550	14.1290
 2.2560	14.0680
 2.2570	14.0110
 2.2580	13.9530
 2.2590	13.8920
 2.2600	13.8330
 2.2610	13.7760
 2.2620	13.7200
 2.2630	13.6630
 2.2640	13.6060
 2.2650	13.5470
 2.2660	13.4910
 2.2670	13.4440
 2.2680	13.4050
 2.2690	13.3610
 2.2700	13.3260
 2.2710	13.2820
 2.2720	13.2280
 2.2730	13.1860
 2.2740	13.1470
 2.2750	13.1090
 2.2760	13.0760
 2.2770	13.0430
 2.2780	13.0130
 2.2790	12.9800
 2.2800	12.9470
 2.2810	12.9160
 2.2820	12.8810
 2.2830	12.8520
 2.2840	12.8330
 2.2850	12.8050
 2.2860	12.7790
 2.2870	12.7470
 2.2880	12.7050
 2.2890	12.6660
 2.2900	12.6260
 2.2910	12.5860
 2.2920	12.5500
 2.2930	12.5090
 2.2940	12.4660
 2.2950	12.4190
 2.2960	12.3630
 2.2970	12.3110
 2.2980	12.2550
 2.2990	12.2040
 2.3000	12.1620
 2.3010	12.1220
 2.3020	12.0850
 2.3030	12.0420
 2.3040	11.9950
 2.3050	11.9490
 2.3060	11.9060
 2.3070	11.8720
 2.3080	11.8380
 2.3090	11.8130
 2.3100	11.7920
 2.3110	11.7690
 2.3120	11.7530
 2.3130	11.7400
 2.3140	11.7330
 2.3150	11.7320
 2.3160	11.7340
 2.3170	11.7470
 2.3180	11.7520
 2.3190	11.7590
 2.3200	11.7550
 2.3210	11.7460
 2.3220	11.7360
 2.3230	11.7170
 2.3240	11.7080
 2.3250	11.7060
 2.3260	11.6940
 2.3270	11.6870
 2.3280	11.6680
 2.3290	11.6300
 2.3300	11.6060
 2.3310	11.5810
 2.3320	11.5570
 2.3330	11.5450
 2.3340	11.5220
 2.3350	11.4960
 2.3360	11.4660
 2.3370	11.4280
 2.3380	11.3950
 2.3390	11.3550
 2.3400	11.3210
 2.3410	11.2910
 2.3420	11.2640
 2.3430	11.2420
 2.3440	11.2170
 2.3450	11.1900
 2.3460	11.1630
 2.3470	11.1280
 2.3480	11.1030
 2.3490	11.0850
 2.3500	11.0640
 2.3510	11.0460
 2.3520	11.0280
 2.3530	11.0060
 2.3540	10.9920
 2.3550	10.9880
 2.3560	10.9780
 2.3570	10.9670
 2.3580	10.9550
 2.3590	10.9460
 2.3600	10.9310
 2.3610	10.9170
 2.3620	10.9130
 2.3630	10.8930
 2.3640	10.8720
 2.3650	10.8590
 2.3660	10.8350
 2.3670	10.8140
 2.3680	10.7950
 2.3690	10.7630
 2.3700	10.7430
 2.3710	10.7310
 2.3720	10.7140
 2.3730	10.6940
 2.3740	10.6620
 2.3750	10.6230
 2.3760	10.5850
 2.3770	10.5620
 2.3780	10.5460
 2.3790	10.5250
 2.3800	10.5090
 2.3810	10.4860
 2.3820	10.4560
 2.3830	10.4330
 2.3840	10.4020
 2.3850	10.3680
 2.3860	10.3400
 2.3870	10.3100
 2.3880	10.2930
 2.3890	10.2740
 2.3900	10.2450
 2.3910	10.2220
 2.3920	10.1850
 2.3930	10.1520
 2.3940	10.1300
 2.3950	10.1010
 2.3960	10.0820
 2.3970	10.0600
 2.3980	10.0230
 2.3990	 9.9850
 2.4000	 9.9420
 2.4010	 9.9100
 2.4020	 9.8990
 2.4030	 9.8860
 2.4040	 9.8670
 2.4050	 9.8430
 2.4060	 9.8090
 2.4070	 9.7840
 2.4080	 9.7660
 2.4090	 9.7440
 2.4100	 9.7170
 2.4110	 9.6850
 2.4120	 9.6490
 2.4130	 9.6160
 2.4140	 9.5960
 2.4150	 9.5720
 2.4160	 9.5440
 2.4170	 9.5130
 2.4180	 9.4680
 2.4190	 9.4200
 2.4200	 9.3890
 2.4210	 9.3650
 2.4220	 9.3400
 2.4230	 9.3230
 2.4240	 9.2940
 2.4250	 9.2590
 2.4260	 9.2310
 2.4270	 9.2000
 2.4280	 9.1690
 2.4290	 9.1440
 2.4300	 9.1200
 2.4310	 9.0880
 2.4320	 9.0540
 2.4330	 9.0130
 2.4340	 8.9640
 2.4350	 8.9310
 2.4360	 8.8990
 2.4370	 8.8630
 2.4380	 8.8420
 2.4390	 8.8120
 2.4400	 8.7750
 2.4410	 8.7550
 2.4420	 8.7200
 2.4430	 8.6740
 2.4440	 8.6460
 2.4450	 8.6110
 2.4460	 8.5850
 2.4470	 8.5760
 2.4480	 8.5470
 2.4490	 8.5170
 2.4500	 8.4780
 2.4510	 8.4230
 2.4520	 8.4060
 2.4530	 8.3990
 2.4540	 8.3920
 2.4550	 8.3880
 2.4560	 8.3590
 2.4570	 8.3320
 2.4580	 8.2890
 2.4590	 8.2490
 2.4600	 8.2330
 2.4610	 8.1910
 2.4620	 8.1520
 2.4630	 8.1320
 2.4640	 8.1100
 2.4650	 8.1020
 2.4660	 8.1050
 2.4670	 8.0860
 2.4680	 8.0810
 2.4690	 8.0830
 2.4700	 8.0830
 2.4710	 8.1110
 2.4720	 8.1000
 2.4730	 8.0680
 2.4740	 8.0270
 2.4750	 7.9590
 2.4760	 7.9140
 2.4770	 7.8570
 2.4780	 7.8220
 2.4790	 7.8100
 2.4800	 7.7870
 2.4810	 7.7550
 2.4820	 7.7530
 2.4830	 7.7730
 2.4840	 7.8260
 2.4850	 7.8560
 2.4860	 7.8470
 2.4870	 7.8310
 2.4880	 7.8050
 2.4890	 7.7850
 2.4900	 7.7610
 2.4910	 7.7280
 2.4920	 7.6750
 2.4930	 7.6260
 2.4940	 7.6090
 2.4950	 7.6350
 2.4960	 7.6820
 2.4970	 7.6870
 2.4980	 7.6860
 2.4990	 7.6800
 2.5000	 7.6170
