Name: Eucalyptus ficifolia
Type: vegetation
Class: Tree
Genus: Eucalyptus
Species: ficifolia
Sample No.: JPL202
Owner: JPL
Wavelength Range: VSWIR
Origin: 34.12509; -118.11349; WGS84
Collection Date: 10/3/2016
Description: Samples were collected at the Huntington Garden in San Marino California as part of a JPL Subcontract studying HyTES imagery. Samples were taken to JPL and processed within 48 hours of collection. The same leaves were processed in the Nicolet and then measured using the ASD.
Measurement: Bidirectional reflectance
First Column: X
Second Column: Y
X Units: Wavelength (micrometer)
Y Units: Reflectance (percentage)
First X Value: 0.35
Last X Value: 2.5
Number of X Values: 2151
Additional Information: vegetation.tree.eucalyptus.ficifolia.vswir.jpl202.jpl.asd.ancillary.txt

 0.3500	 6.3270
 0.3510	 6.2080
 0.3520	 6.1590
 0.3530	 6.1810
 0.3540	 6.2200
 0.3550	 6.1930
 0.3560	 6.1460
 0.3570	 6.1010
 0.3580	 6.0730
 0.3590	 6.1400
 0.3600	 6.1710
 0.3610	 6.1310
 0.3620	 6.1390
 0.3630	 6.0750
 0.3640	 5.9880
 0.3650	 5.9490
 0.3660	 5.9450
 0.3670	 5.9460
 0.3680	 5.9500
 0.3690	 5.9720
 0.3700	 6.0420
 0.3710	 6.0270
 0.3720	 5.9040
 0.3730	 5.8660
 0.3740	 5.9420
 0.3750	 6.0160
 0.3760	 5.9770
 0.3770	 5.9700
 0.3780	 5.9770
 0.3790	 5.9820
 0.3800	 5.9780
 0.3810	 5.9560
 0.3820	 5.9580
 0.3830	 5.9890
 0.3840	 5.9430
 0.3850	 5.9340
 0.3860	 5.9520
 0.3870	 5.9460
 0.3880	 5.9310
 0.3890	 5.9080
 0.3900	 5.8880
 0.3910	 5.8970
 0.3920	 5.9370
 0.3930	 5.9520
 0.3940	 5.9170
 0.3950	 5.9240
 0.3960	 5.9220
 0.3970	 5.9070
 0.3980	 5.8950
 0.3990	 5.9070
 0.4000	 5.9030
 0.4010	 5.8840
 0.4020	 5.9110
 0.4030	 5.9090
 0.4040	 5.9000
 0.4050	 5.9090
 0.4060	 5.8930
 0.4070	 5.8870
 0.4080	 5.8900
 0.4090	 5.8780
 0.4100	 5.8790
 0.4110	 5.8880
 0.4120	 5.8990
 0.4130	 5.9060
 0.4140	 5.9210
 0.4150	 5.9340
 0.4160	 5.9300
 0.4170	 5.9230
 0.4180	 5.9340
 0.4190	 5.9570
 0.4200	 5.9630
 0.4210	 5.9740
 0.4220	 5.9830
 0.4230	 5.9840
 0.4240	 6.0010
 0.4250	 6.0250
 0.4260	 6.0410
 0.4270	 6.0370
 0.4280	 6.0450
 0.4290	 6.0660
 0.4300	 6.0900
 0.4310	 6.0930
 0.4320	 6.1010
 0.4330	 6.1100
 0.4340	 6.1140
 0.4350	 6.1240
 0.4360	 6.1310
 0.4370	 6.1440
 0.4380	 6.1750
 0.4390	 6.1980
 0.4400	 6.2190
 0.4410	 6.2410
 0.4420	 6.2520
 0.4430	 6.2660
 0.4440	 6.2830
 0.4450	 6.3000
 0.4460	 6.3220
 0.4470	 6.3380
 0.4480	 6.3480
 0.4490	 6.3670
 0.4500	 6.3910
 0.4510	 6.4130
 0.4520	 6.4260
 0.4530	 6.4470
 0.4540	 6.4620
 0.4550	 6.4740
 0.4560	 6.4960
 0.4570	 6.5170
 0.4580	 6.5380
 0.4590	 6.5590
 0.4600	 6.5640
 0.4610	 6.5800
 0.4620	 6.6020
 0.4630	 6.6160
 0.4640	 6.6220
 0.4650	 6.6350
 0.4660	 6.6530
 0.4670	 6.6630
 0.4680	 6.6710
 0.4690	 6.6790
 0.4700	 6.6890
 0.4710	 6.6980
 0.4720	 6.7010
 0.4730	 6.7060
 0.4740	 6.7210
 0.4750	 6.7220
 0.4760	 6.7190
 0.4770	 6.7230
 0.4780	 6.7320
 0.4790	 6.7400
 0.4800	 6.7460
 0.4810	 6.7510
 0.4820	 6.7520
 0.4830	 6.7610
 0.4840	 6.7740
 0.4850	 6.7760
 0.4860	 6.7880
 0.4870	 6.8090
 0.4880	 6.8330
 0.4890	 6.8510
 0.4900	 6.8760
 0.4910	 6.9070
 0.4920	 6.9350
 0.4930	 6.9630
 0.4940	 7.0000
 0.4950	 7.0450
 0.4960	 7.0820
 0.4970	 7.1190
 0.4980	 7.1670
 0.4990	 7.2260
 0.5000	 7.2830
 0.5010	 7.3410
 0.5020	 7.4020
 0.5030	 7.4680
 0.5040	 7.5400
 0.5050	 7.6180
 0.5060	 7.7000
 0.5070	 7.7920
 0.5080	 7.8900
 0.5090	 7.9920
 0.5100	 8.1000
 0.5110	 8.2170
 0.5120	 8.3460
 0.5130	 8.4870
 0.5140	 8.6310
 0.5150	 8.7850
 0.5160	 8.9460
 0.5170	 9.1120
 0.5180	 9.2890
 0.5190	 9.4750
 0.5200	 9.6680
 0.5210	 9.8630
 0.5220	10.0630
 0.5230	10.2690
 0.5240	10.4780
 0.5250	10.6830
 0.5260	10.8820
 0.5270	11.0790
 0.5280	11.2750
 0.5290	11.4650
 0.5300	11.6450
 0.5310	11.8130
 0.5320	11.9780
 0.5330	12.1320
 0.5340	12.2770
 0.5350	12.4160
 0.5360	12.5430
 0.5370	12.6590
 0.5380	12.7660
 0.5390	12.8660
 0.5400	12.9590
 0.5410	13.0450
 0.5420	13.1240
 0.5430	13.1990
 0.5440	13.2660
 0.5450	13.3300
 0.5460	13.3940
 0.5470	13.4490
 0.5480	13.5040
 0.5490	13.5580
 0.5500	13.6030
 0.5510	13.6410
 0.5520	13.6680
 0.5530	13.6850
 0.5540	13.6950
 0.5550	13.6900
 0.5560	13.6700
 0.5570	13.6390
 0.5580	13.5950
 0.5590	13.5380
 0.5600	13.4710
 0.5610	13.3960
 0.5620	13.3110
 0.5630	13.2190
 0.5640	13.1260
 0.5650	13.0330
 0.5660	12.9380
 0.5670	12.8410
 0.5680	12.7380
 0.5690	12.6300
 0.5700	12.5180
 0.5710	12.4080
 0.5720	12.3020
 0.5730	12.1990
 0.5740	12.0990
 0.5750	12.0060
 0.5760	11.9160
 0.5770	11.8290
 0.5780	11.7450
 0.5790	11.6640
 0.5800	11.5880
 0.5810	11.5160
 0.5820	11.4480
 0.5830	11.3870
 0.5840	11.3320
 0.5850	11.2790
 0.5860	11.2220
 0.5870	11.1710
 0.5880	11.1260
 0.5890	11.0830
 0.5900	11.0450
 0.5910	11.0070
 0.5920	10.9700
 0.5930	10.9380
 0.5940	10.9110
 0.5950	10.8870
 0.5960	10.8650
 0.5970	10.8430
 0.5980	10.8210
 0.5990	10.7990
 0.6000	10.7750
 0.6010	10.7470
 0.6020	10.7120
 0.6030	10.6730
 0.6040	10.6330
 0.6050	10.5870
 0.6060	10.5360
 0.6070	10.4830
 0.6080	10.4230
 0.6090	10.3560
 0.6100	10.2850
 0.6110	10.2170
 0.6120	10.1540
 0.6130	10.0950
 0.6140	10.0370
 0.6150	 9.9740
 0.6160	 9.9140
 0.6170	 9.8550
 0.6180	 9.7980
 0.6190	 9.7480
 0.6200	 9.7050
 0.6210	 9.6650
 0.6220	 9.6260
 0.6230	 9.5990
 0.6240	 9.5790
 0.6250	 9.5640
 0.6260	 9.5490
 0.6270	 9.5380
 0.6280	 9.5310
 0.6290	 9.5270
 0.6300	 9.5210
 0.6310	 9.5130
 0.6320	 9.5030
 0.6330	 9.4850
 0.6340	 9.4600
 0.6350	 9.4230
 0.6360	 9.3720
 0.6370	 9.3090
 0.6380	 9.2380
 0.6390	 9.1590
 0.6400	 9.0710
 0.6410	 8.9770
 0.6420	 8.8820
 0.6430	 8.7860
 0.6440	 8.6840
 0.6450	 8.5890
 0.6460	 8.5010
 0.6470	 8.4200
 0.6480	 8.3460
 0.6490	 8.2820
 0.6500	 8.2290
 0.6510	 8.1900
 0.6520	 8.1560
 0.6530	 8.1250
 0.6540	 8.0940
 0.6550	 8.0610
 0.6560	 8.0220
 0.6570	 7.9780
 0.6580	 7.9290
 0.6590	 7.8730
 0.6600	 7.8120
 0.6610	 7.7470
 0.6620	 7.6800
 0.6630	 7.6180
 0.6640	 7.5580
 0.6650	 7.5010
 0.6660	 7.4520
 0.6670	 7.4060
 0.6680	 7.3670
 0.6690	 7.3370
 0.6700	 7.3170
 0.6710	 7.3050
 0.6720	 7.2980
 0.6730	 7.2950
 0.6740	 7.3020
 0.6750	 7.3150
 0.6760	 7.3290
 0.6770	 7.3510
 0.6780	 7.3800
 0.6790	 7.4170
 0.6800	 7.4620
 0.6810	 7.5220
 0.6820	 7.5970
 0.6830	 7.6880
 0.6840	 7.7950
 0.6850	 7.9310
 0.6860	 8.0960
 0.6870	 8.2930
 0.6880	 8.5330
 0.6890	 8.8230
 0.6900	 9.1700
 0.6910	 9.5770
 0.6920	10.0530
 0.6930	10.5990
 0.6940	11.2160
 0.6950	11.8980
 0.6960	12.6440
 0.6970	13.4480
 0.6980	14.3010
 0.6990	15.1980
 0.7000	16.1260
 0.7010	17.0740
 0.7020	18.0330
 0.7030	18.9940
 0.7040	19.9510
 0.7050	20.8960
 0.7060	21.8290
 0.7070	22.7420
 0.7080	23.6360
 0.7090	24.5130
 0.7100	25.3760
 0.7110	26.2200
 0.7120	27.0440
 0.7130	27.8470
 0.7140	28.6310
 0.7150	29.3950
 0.7160	30.1350
 0.7170	30.8520
 0.7180	31.5480
 0.7190	32.2230
 0.7200	32.8740
 0.7210	33.5010
 0.7220	34.1000
 0.7230	34.6710
 0.7240	35.2160
 0.7250	35.7320
 0.7260	36.2200
 0.7270	36.6830
 0.7280	37.1220
 0.7290	37.5310
 0.7300	37.9140
 0.7310	38.2720
 0.7320	38.6080
 0.7330	38.9210
 0.7340	39.2120
 0.7350	39.4820
 0.7360	39.7350
 0.7370	39.9700
 0.7380	40.1860
 0.7390	40.3880
 0.7400	40.5740
 0.7410	40.7450
 0.7420	40.9030
 0.7430	41.0490
 0.7440	41.1800
 0.7450	41.2970
 0.7460	41.4050
 0.7470	41.5020
 0.7480	41.5900
 0.7490	41.6720
 0.7500	41.7450
 0.7510	41.8100
 0.7520	41.8690
 0.7530	41.9220
 0.7540	41.9720
 0.7550	42.0160
 0.7560	42.0550
 0.7570	42.0910
 0.7580	42.1250
 0.7590	42.1560
 0.7600	42.1830
 0.7610	42.2080
 0.7620	42.2320
 0.7630	42.2540
 0.7640	42.2740
 0.7650	42.2910
 0.7660	42.3050
 0.7670	42.3200
 0.7680	42.3350
 0.7690	42.3470
 0.7700	42.3610
 0.7710	42.3760
 0.7720	42.3870
 0.7730	42.3960
 0.7740	42.4040
 0.7750	42.4130
 0.7760	42.4220
 0.7770	42.4340
 0.7780	42.4450
 0.7790	42.4530
 0.7800	42.4630
 0.7810	42.4740
 0.7820	42.4840
 0.7830	42.4920
 0.7840	42.5020
 0.7850	42.5100
 0.7860	42.5150
 0.7870	42.5210
 0.7880	42.5260
 0.7890	42.5310
 0.7900	42.5360
 0.7910	42.5420
 0.7920	42.5470
 0.7930	42.5500
 0.7940	42.5510
 0.7950	42.5510
 0.7960	42.5520
 0.7970	42.5530
 0.7980	42.5510
 0.7990	42.5490
 0.8000	42.5450
 0.8010	42.5410
 0.8020	42.5390
 0.8030	42.5380
 0.8040	42.5350
 0.8050	42.5280
 0.8060	42.5210
 0.8070	42.5160
 0.8080	42.5110
 0.8090	42.5010
 0.8100	42.4900
 0.8110	42.4800
 0.8120	42.4710
 0.8130	42.4650
 0.8140	42.4540
 0.8150	42.4410
 0.8160	42.4320
 0.8170	42.4250
 0.8180	42.4160
 0.8190	42.4050
 0.8200	42.3910
 0.8210	42.3790
 0.8220	42.3700
 0.8230	42.3610
 0.8240	42.3490
 0.8250	42.3350
 0.8260	42.3230
 0.8270	42.3120
 0.8280	42.3000
 0.8290	42.2880
 0.8300	42.2750
 0.8310	42.2620
 0.8320	42.2510
 0.8330	42.2380
 0.8340	42.2270
 0.8350	42.2210
 0.8360	42.2160
 0.8370	42.2080
 0.8380	42.2000
 0.8390	42.1950
 0.8400	42.1910
 0.8410	42.1850
 0.8420	42.1790
 0.8430	42.1730
 0.8440	42.1720
 0.8450	42.1710
 0.8460	42.1690
 0.8470	42.1660
 0.8480	42.1670
 0.8490	42.1690
 0.8500	42.1700
 0.8510	42.1700
 0.8520	42.1720
 0.8530	42.1720
 0.8540	42.1710
 0.8550	42.1710
 0.8560	42.1730
 0.8570	42.1760
 0.8580	42.1760
 0.8590	42.1840
 0.8600	42.1910
 0.8610	42.1920
 0.8620	42.1960
 0.8630	42.2090
 0.8640	42.2180
 0.8650	42.2180
 0.8660	42.2210
 0.8670	42.2290
 0.8680	42.2380
 0.8690	42.2410
 0.8700	42.2440
 0.8710	42.2520
 0.8720	42.2630
 0.8730	42.2740
 0.8740	42.2790
 0.8750	42.2850
 0.8760	42.2940
 0.8770	42.3030
 0.8780	42.3150
 0.8790	42.3270
 0.8800	42.3380
 0.8810	42.3450
 0.8820	42.3460
 0.8830	42.3500
 0.8840	42.3590
 0.8850	42.3680
 0.8860	42.3730
 0.8870	42.3800
 0.8880	42.3920
 0.8890	42.4000
 0.8900	42.4060
 0.8910	42.4130
 0.8920	42.4240
 0.8930	42.4300
 0.8940	42.4360
 0.8950	42.4430
 0.8960	42.4520
 0.8970	42.4590
 0.8980	42.4640
 0.8990	42.4680
 0.9000	42.4720
 0.9010	42.4770
 0.9020	42.4820
 0.9030	42.4860
 0.9040	42.4900
 0.9050	42.5000
 0.9060	42.5090
 0.9070	42.5120
 0.9080	42.5150
 0.9090	42.5190
 0.9100	42.5240
 0.9110	42.5270
 0.9120	42.5270
 0.9130	42.5240
 0.9140	42.5230
 0.9150	42.5260
 0.9160	42.5300
 0.9170	42.5280
 0.9180	42.5240
 0.9190	42.5250
 0.9200	42.5240
 0.9210	42.5170
 0.9220	42.5120
 0.9230	42.5140
 0.9240	42.5080
 0.9250	42.4970
 0.9260	42.4860
 0.9270	42.4780
 0.9280	42.4650
 0.9290	42.4490
 0.9300	42.4340
 0.9310	42.4210
 0.9320	42.3960
 0.9330	42.3730
 0.9340	42.3590
 0.9350	42.3400
 0.9360	42.3180
 0.9370	42.2920
 0.9380	42.2630
 0.9390	42.2400
 0.9400	42.2210
 0.9410	42.1950
 0.9420	42.1550
 0.9430	42.1170
 0.9440	42.0900
 0.9450	42.0610
 0.9460	42.0180
 0.9470	41.9750
 0.9480	41.9250
 0.9490	41.8740
 0.9500	41.8230
 0.9510	41.7610
 0.9520	41.7050
 0.9530	41.6450
 0.9540	41.5770
 0.9550	41.5180
 0.9560	41.4610
 0.9570	41.4050
 0.9580	41.3510
 0.9590	41.2880
 0.9600	41.2360
 0.9610	41.1920
 0.9620	41.1500
 0.9630	41.1220
 0.9640	41.0830
 0.9650	41.0440
 0.9660	41.0230
 0.9670	41.0000
 0.9680	40.9730
 0.9690	40.9530
 0.9700	40.9490
 0.9710	40.9310
 0.9720	40.9120
 0.9730	40.8990
 0.9740	40.8890
 0.9750	40.8820
 0.9760	40.8760
 0.9770	40.8690
 0.9780	40.8620
 0.9790	40.8520
 0.9800	40.8490
 0.9810	40.8530
 0.9820	40.8540
 0.9830	40.8460
 0.9840	40.8520
 0.9850	40.8620
 0.9860	40.8620
 0.9870	40.8760
 0.9880	40.8890
 0.9890	40.8950
 0.9900	40.9010
 0.9910	40.9180
 0.9920	40.9350
 0.9930	40.9470
 0.9940	40.9550
 0.9950	40.9790
 0.9960	40.9970
 0.9970	41.0080
 0.9980	41.0190
 0.9990	41.0310
 1.0000	41.0390
 1.0010	42.4410
 1.0020	42.4560
 1.0030	42.4760
 1.0040	42.4960
 1.0050	42.5150
 1.0060	42.5340
 1.0070	42.5550
 1.0080	42.5730
 1.0090	42.5870
 1.0100	42.6050
 1.0110	42.6240
 1.0120	42.6420
 1.0130	42.6620
 1.0140	42.6830
 1.0150	42.7060
 1.0160	42.7240
 1.0170	42.7430
 1.0180	42.7600
 1.0190	42.7780
 1.0200	42.7980
 1.0210	42.8160
 1.0220	42.8360
 1.0230	42.8570
 1.0240	42.8780
 1.0250	42.8980
 1.0260	42.9200
 1.0270	42.9390
 1.0280	42.9530
 1.0290	42.9700
 1.0300	42.9870
 1.0310	43.0060
 1.0320	43.0260
 1.0330	43.0470
 1.0340	43.0650
 1.0350	43.0830
 1.0360	43.0990
 1.0370	43.1140
 1.0380	43.1300
 1.0390	43.1480
 1.0400	43.1640
 1.0410	43.1780
 1.0420	43.1930
 1.0430	43.2090
 1.0440	43.2240
 1.0450	43.2380
 1.0460	43.2500
 1.0470	43.2610
 1.0480	43.2710
 1.0490	43.2800
 1.0500	43.2890
 1.0510	43.3020
 1.0520	43.3090
 1.0530	43.3180
 1.0540	43.3260
 1.0550	43.3340
 1.0560	43.3410
 1.0570	43.3500
 1.0580	43.3630
 1.0590	43.3700
 1.0600	43.3760
 1.0610	43.3820
 1.0620	43.3840
 1.0630	43.3870
 1.0640	43.3900
 1.0650	43.3940
 1.0660	43.4010
 1.0670	43.4040
 1.0680	43.4050
 1.0690	43.4050
 1.0700	43.4050
 1.0710	43.3990
 1.0720	43.4000
 1.0730	43.4060
 1.0740	43.4070
 1.0750	43.4080
 1.0760	43.4070
 1.0770	43.4010
 1.0780	43.3980
 1.0790	43.3940
 1.0800	43.3910
 1.0810	43.3920
 1.0820	43.3880
 1.0830	43.3830
 1.0840	43.3780
 1.0850	43.3700
 1.0860	43.3630
 1.0870	43.3570
 1.0880	43.3520
 1.0890	43.3460
 1.0900	43.3410
 1.0910	43.3340
 1.0920	43.3250
 1.0930	43.3170
 1.0940	43.3080
 1.0950	43.3000
 1.0960	43.2920
 1.0970	43.2840
 1.0980	43.2750
 1.0990	43.2650
 1.1000	43.2530
 1.1010	43.2420
 1.1020	43.2310
 1.1030	43.2200
 1.1040	43.2090
 1.1050	43.1990
 1.1060	43.1880
 1.1070	43.1770
 1.1080	43.1630
 1.1090	43.1480
 1.1100	43.1330
 1.1110	43.1160
 1.1120	43.0990
 1.1130	43.0840
 1.1140	43.0670
 1.1150	43.0500
 1.1160	43.0300
 1.1170	43.0080
 1.1180	42.9830
 1.1190	42.9530
 1.1200	42.9210
 1.1210	42.8880
 1.1220	42.8520
 1.1230	42.8160
 1.1240	42.7770
 1.1250	42.7330
 1.1260	42.6880
 1.1270	42.6330
 1.1280	42.5730
 1.1290	42.5050
 1.1300	42.4310
 1.1310	42.3510
 1.1320	42.2650
 1.1330	42.1730
 1.1340	42.0760
 1.1350	41.9710
 1.1360	41.8580
 1.1370	41.7380
 1.1380	41.6110
 1.1390	41.4790
 1.1400	41.3420
 1.1410	41.2030
 1.1420	41.0610
 1.1430	40.9160
 1.1440	40.7710
 1.1450	40.6240
 1.1460	40.4800
 1.1470	40.3350
 1.1480	40.1970
 1.1490	40.0610
 1.1500	39.9320
 1.1510	39.8060
 1.1520	39.6870
 1.1530	39.5740
 1.1540	39.4690
 1.1550	39.3720
 1.1560	39.2830
 1.1570	39.2000
 1.1580	39.1250
 1.1590	39.0560
 1.1600	38.9920
 1.1610	38.9360
 1.1620	38.8840
 1.1630	38.8380
 1.1640	38.7960
 1.1650	38.7560
 1.1660	38.7210
 1.1670	38.6860
 1.1680	38.6540
 1.1690	38.6240
 1.1700	38.5960
 1.1710	38.5700
 1.1720	38.5480
 1.1730	38.5240
 1.1740	38.5000
 1.1750	38.4760
 1.1760	38.4490
 1.1770	38.4240
 1.1780	38.4000
 1.1790	38.3760
 1.1800	38.3520
 1.1810	38.3270
 1.1820	38.3000
 1.1830	38.2730
 1.1840	38.2460
 1.1850	38.2210
 1.1860	38.1980
 1.1870	38.1760
 1.1880	38.1550
 1.1890	38.1350
 1.1900	38.1160
 1.1910	38.0970
 1.1920	38.0810
 1.1930	38.0670
 1.1940	38.0560
 1.1950	38.0470
 1.1960	38.0400
 1.1970	38.0360
 1.1980	38.0330
 1.1990	38.0320
 1.2000	38.0320
 1.2010	38.0350
 1.2020	38.0390
 1.2030	38.0430
 1.2040	38.0500
 1.2050	38.0590
 1.2060	38.0670
 1.2070	38.0800
 1.2080	38.0960
 1.2090	38.1140
 1.2100	38.1360
 1.2110	38.1590
 1.2120	38.1830
 1.2130	38.2080
 1.2140	38.2330
 1.2150	38.2600
 1.2160	38.2880
 1.2170	38.3170
 1.2180	38.3480
 1.2190	38.3810
 1.2200	38.4140
 1.2210	38.4470
 1.2220	38.4810
 1.2230	38.5140
 1.2240	38.5480
 1.2250	38.5820
 1.2260	38.6130
 1.2270	38.6450
 1.2280	38.6750
 1.2290	38.7040
 1.2300	38.7350
 1.2310	38.7650
 1.2320	38.7930
 1.2330	38.8210
 1.2340	38.8460
 1.2350	38.8700
 1.2360	38.8930
 1.2370	38.9160
 1.2380	38.9370
 1.2390	38.9570
 1.2400	38.9780
 1.2410	38.9980
 1.2420	39.0190
 1.2430	39.0390
 1.2440	39.0570
 1.2450	39.0750
 1.2460	39.0920
 1.2470	39.1070
 1.2480	39.1230
 1.2490	39.1390
 1.2500	39.1520
 1.2510	39.1660
 1.2520	39.1790
 1.2530	39.1880
 1.2540	39.1990
 1.2550	39.2100
 1.2560	39.2200
 1.2570	39.2290
 1.2580	39.2370
 1.2590	39.2420
 1.2600	39.2460
 1.2610	39.2500
 1.2620	39.2530
 1.2630	39.2570
 1.2640	39.2600
 1.2650	39.2620
 1.2660	39.2620
 1.2670	39.2590
 1.2680	39.2560
 1.2690	39.2530
 1.2700	39.2490
 1.2710	39.2440
 1.2720	39.2380
 1.2730	39.2300
 1.2740	39.2220
 1.2750	39.2140
 1.2760	39.2060
 1.2770	39.1960
 1.2780	39.1840
 1.2790	39.1710
 1.2800	39.1540
 1.2810	39.1360
 1.2820	39.1170
 1.2830	39.0960
 1.2840	39.0730
 1.2850	39.0490
 1.2860	39.0230
 1.2870	38.9940
 1.2880	38.9620
 1.2890	38.9290
 1.2900	38.8960
 1.2910	38.8570
 1.2920	38.8170
 1.2930	38.7740
 1.2940	38.7280
 1.2950	38.6810
 1.2960	38.6310
 1.2970	38.5780
 1.2980	38.5220
 1.2990	38.4650
 1.3000	38.4060
 1.3010	38.3440
 1.3020	38.2810
 1.3030	38.2160
 1.3040	38.1460
 1.3050	38.0760
 1.3060	38.0030
 1.3070	37.9260
 1.3080	37.8470
 1.3090	37.7680
 1.3100	37.6850
 1.3110	37.5960
 1.3120	37.5070
 1.3130	37.4150
 1.3140	37.3200
 1.3150	37.2240
 1.3160	37.1250
 1.3170	37.0230
 1.3180	36.9170
 1.3190	36.8070
 1.3200	36.6960
 1.3210	36.5810
 1.3220	36.4640
 1.3230	36.3460
 1.3240	36.2260
 1.3250	36.1020
 1.3260	35.9750
 1.3270	35.8440
 1.3280	35.7120
 1.3290	35.5760
 1.3300	35.4400
 1.3310	35.3040
 1.3320	35.1650
 1.3330	35.0260
 1.3340	34.8850
 1.3350	34.7410
 1.3360	34.5980
 1.3370	34.4560
 1.3380	34.3130
 1.3390	34.1700
 1.3400	34.0270
 1.3410	33.8870
 1.3420	33.7450
 1.3430	33.6050
 1.3440	33.4680
 1.3450	33.3310
 1.3460	33.1950
 1.3470	33.0620
 1.3480	32.9320
 1.3490	32.8030
 1.3500	32.6760
 1.3510	32.5510
 1.3520	32.4260
 1.3530	32.3030
 1.3540	32.1800
 1.3550	32.0550
 1.3560	31.9310
 1.3570	31.8040
 1.3580	31.6770
 1.3590	31.5470
 1.3600	31.4150
 1.3610	31.2790
 1.3620	31.1390
 1.3630	30.9940
 1.3640	30.8440
 1.3650	30.6870
 1.3660	30.5230
 1.3670	30.3510
 1.3680	30.1690
 1.3690	29.9770
 1.3700	29.7710
 1.3710	29.5530
 1.3720	29.3220
 1.3730	29.0720
 1.3740	28.8100
 1.3750	28.5290
 1.3760	28.2270
 1.3770	27.9070
 1.3780	27.5600
 1.3790	27.1920
 1.3800	26.8050
 1.3810	26.3910
 1.3820	25.9610
 1.3830	25.5110
 1.3840	25.0440
 1.3850	24.5550
 1.3860	24.0570
 1.3870	23.5380
 1.3880	23.0180
 1.3890	22.4880
 1.3900	21.9500
 1.3910	21.4150
 1.3920	20.8770
 1.3930	20.3380
 1.3940	19.8060
 1.3950	19.2760
 1.3960	18.7560
 1.3970	18.2500
 1.3980	17.7580
 1.3990	17.2870
 1.4000	16.8330
 1.4010	16.3950
 1.4020	15.9790
 1.4030	15.5790
 1.4040	15.1990
 1.4050	14.8420
 1.4060	14.5050
 1.4070	14.1920
 1.4080	13.8970
 1.4090	13.6190
 1.4100	13.3620
 1.4110	13.1220
 1.4120	12.8990
 1.4130	12.6920
 1.4140	12.5000
 1.4150	12.3230
 1.4160	12.1600
 1.4170	12.0090
 1.4180	11.8700
 1.4190	11.7400
 1.4200	11.6210
 1.4210	11.5120
 1.4220	11.4100
 1.4230	11.3170
 1.4240	11.2320
 1.4250	11.1530
 1.4260	11.0820
 1.4270	11.0150
 1.4280	10.9540
 1.4290	10.8980
 1.4300	10.8480
 1.4310	10.8010
 1.4320	10.7610
 1.4330	10.7230
 1.4340	10.6910
 1.4350	10.6610
 1.4360	10.6350
 1.4370	10.6120
 1.4380	10.5920
 1.4390	10.5750
 1.4400	10.5600
 1.4410	10.5480
 1.4420	10.5380
 1.4430	10.5300
 1.4440	10.5240
 1.4450	10.5200
 1.4460	10.5180
 1.4470	10.5170
 1.4480	10.5180
 1.4490	10.5200
 1.4500	10.5240
 1.4510	10.5290
 1.4520	10.5350
 1.4530	10.5430
 1.4540	10.5520
 1.4550	10.5620
 1.4560	10.5740
 1.4570	10.5870
 1.4580	10.6030
 1.4590	10.6210
 1.4600	10.6430
 1.4610	10.6670
 1.4620	10.6930
 1.4630	10.7220
 1.4640	10.7550
 1.4650	10.7910
 1.4660	10.8310
 1.4670	10.8750
 1.4680	10.9210
 1.4690	10.9700
 1.4700	11.0220
 1.4710	11.0780
 1.4720	11.1360
 1.4730	11.1980
 1.4740	11.2620
 1.4750	11.3290
 1.4760	11.3990
 1.4770	11.4710
 1.4780	11.5450
 1.4790	11.6210
 1.4800	11.6990
 1.4810	11.7790
 1.4820	11.8600
 1.4830	11.9410
 1.4840	12.0250
 1.4850	12.1100
 1.4860	12.1960
 1.4870	12.2850
 1.4880	12.3740
 1.4890	12.4640
 1.4900	12.5550
 1.4910	12.6470
 1.4920	12.7400
 1.4930	12.8340
 1.4940	12.9290
 1.4950	13.0250
 1.4960	13.1210
 1.4970	13.2170
 1.4980	13.3150
 1.4990	13.4140
 1.5000	13.5130
 1.5010	13.6150
 1.5020	13.7160
 1.5030	13.8190
 1.5040	13.9200
 1.5050	14.0210
 1.5060	14.1230
 1.5070	14.2260
 1.5080	14.3290
 1.5090	14.4320
 1.5100	14.5360
 1.5110	14.6400
 1.5120	14.7440
 1.5130	14.8470
 1.5140	14.9500
 1.5150	15.0540
 1.5160	15.1570
 1.5170	15.2610
 1.5180	15.3650
 1.5190	15.4680
 1.5200	15.5720
 1.5210	15.6730
 1.5220	15.7730
 1.5230	15.8740
 1.5240	15.9740
 1.5250	16.0750
 1.5260	16.1750
 1.5270	16.2750
 1.5280	16.3750
 1.5290	16.4720
 1.5300	16.5690
 1.5310	16.6670
 1.5320	16.7640
 1.5330	16.8620
 1.5340	16.9600
 1.5350	17.0540
 1.5360	17.1490
 1.5370	17.2420
 1.5380	17.3350
 1.5390	17.4300
 1.5400	17.5230
 1.5410	17.6170
 1.5420	17.7110
 1.5430	17.8020
 1.5440	17.8930
 1.5450	17.9820
 1.5460	18.0710
 1.5470	18.1610
 1.5480	18.2510
 1.5490	18.3420
 1.5500	18.4310
 1.5510	18.5180
 1.5520	18.6040
 1.5530	18.6890
 1.5540	18.7740
 1.5550	18.8590
 1.5560	18.9420
 1.5570	19.0260
 1.5580	19.1080
 1.5590	19.1890
 1.5600	19.2700
 1.5610	19.3490
 1.5620	19.4270
 1.5630	19.5060
 1.5640	19.5840
 1.5650	19.6610
 1.5660	19.7380
 1.5670	19.8140
 1.5680	19.8890
 1.5690	19.9620
 1.5700	20.0360
 1.5710	20.1100
 1.5720	20.1830
 1.5730	20.2560
 1.5740	20.3280
 1.5750	20.3980
 1.5760	20.4700
 1.5770	20.5390
 1.5780	20.6090
 1.5790	20.6780
 1.5800	20.7460
 1.5810	20.8140
 1.5820	20.8820
 1.5830	20.9490
 1.5840	21.0170
 1.5850	21.0830
 1.5860	21.1500
 1.5870	21.2180
 1.5880	21.2850
 1.5890	21.3520
 1.5900	21.4170
 1.5910	21.4830
 1.5920	21.5480
 1.5930	21.6130
 1.5940	21.6780
 1.5950	21.7430
 1.5960	21.8060
 1.5970	21.8720
 1.5980	21.9370
 1.5990	22.0010
 1.6000	22.0640
 1.6010	22.1270
 1.6020	22.1880
 1.6030	22.2490
 1.6040	22.3110
 1.6050	22.3710
 1.6060	22.4300
 1.6070	22.4880
 1.6080	22.5460
 1.6090	22.6030
 1.6100	22.6610
 1.6110	22.7170
 1.6120	22.7720
 1.6130	22.8250
 1.6140	22.8780
 1.6150	22.9310
 1.6160	22.9840
 1.6170	23.0360
 1.6180	23.0880
 1.6190	23.1380
 1.6200	23.1860
 1.6210	23.2350
 1.6220	23.2810
 1.6230	23.3270
 1.6240	23.3730
 1.6250	23.4160
 1.6260	23.4590
 1.6270	23.5010
 1.6280	23.5410
 1.6290	23.5810
 1.6300	23.6200
 1.6310	23.6590
 1.6320	23.6950
 1.6330	23.7310
 1.6340	23.7670
 1.6350	23.8000
 1.6360	23.8330
 1.6370	23.8630
 1.6380	23.8910
 1.6390	23.9170
 1.6400	23.9430
 1.6410	23.9660
 1.6420	23.9880
 1.6430	24.0080
 1.6440	24.0260
 1.6450	24.0420
 1.6460	24.0560
 1.6470	24.0680
 1.6480	24.0770
 1.6490	24.0840
 1.6500	24.0900
 1.6510	24.0930
 1.6520	24.0940
 1.6530	24.0930
 1.6540	24.0910
 1.6550	24.0880
 1.6560	24.0840
 1.6570	24.0800
 1.6580	24.0760
 1.6590	24.0720
 1.6600	24.0650
 1.6610	24.0580
 1.6620	24.0520
 1.6630	24.0440
 1.6640	24.0370
 1.6650	24.0310
 1.6660	24.0250
 1.6670	24.0200
 1.6680	24.0140
 1.6690	24.0060
 1.6700	23.9960
 1.6710	23.9870
 1.6720	23.9770
 1.6730	23.9660
 1.6740	23.9550
 1.6750	23.9410
 1.6760	23.9250
 1.6770	23.9080
 1.6780	23.8890
 1.6790	23.8660
 1.6800	23.8430
 1.6810	23.8180
 1.6820	23.7900
 1.6830	23.7610
 1.6840	23.7260
 1.6850	23.6920
 1.6860	23.6570
 1.6870	23.6190
 1.6880	23.5810
 1.6890	23.5400
 1.6900	23.4990
 1.6910	23.4560
 1.6920	23.4120
 1.6930	23.3660
 1.6940	23.3200
 1.6950	23.2740
 1.6960	23.2270
 1.6970	23.1820
 1.6980	23.1340
 1.6990	23.0820
 1.7000	23.0340
 1.7010	22.9870
 1.7020	22.9370
 1.7030	22.8870
 1.7040	22.8360
 1.7050	22.7810
 1.7060	22.7280
 1.7070	22.6750
 1.7080	22.6240
 1.7090	22.5720
 1.7100	22.5210
 1.7110	22.4710
 1.7120	22.4190
 1.7130	22.3680
 1.7140	22.3180
 1.7150	22.2660
 1.7160	22.2180
 1.7170	22.1700
 1.7180	22.1230
 1.7190	22.0780
 1.7200	22.0340
 1.7210	21.9910
 1.7220	21.9490
 1.7230	21.9100
 1.7240	21.8730
 1.7250	21.8370
 1.7260	21.8020
 1.7270	21.7710
 1.7280	21.7420
 1.7290	21.7150
 1.7300	21.6920
 1.7310	21.6700
 1.7320	21.6500
 1.7330	21.6290
 1.7340	21.6080
 1.7350	21.5860
 1.7360	21.5660
 1.7370	21.5390
 1.7380	21.5110
 1.7390	21.4790
 1.7400	21.4440
 1.7410	21.4050
 1.7420	21.3650
 1.7430	21.3210
 1.7440	21.2730
 1.7450	21.2250
 1.7460	21.1740
 1.7470	21.1230
 1.7480	21.0690
 1.7490	21.0150
 1.7500	20.9600
 1.7510	20.9060
 1.7520	20.8510
 1.7530	20.7970
 1.7540	20.7430
 1.7550	20.6900
 1.7560	20.6380
 1.7570	20.5880
 1.7580	20.5400
 1.7590	20.4950
 1.7600	20.4510
 1.7610	20.4050
 1.7620	20.3630
 1.7630	20.3220
 1.7640	20.2820
 1.7650	20.2480
 1.7660	20.2140
 1.7670	20.1790
 1.7680	20.1460
 1.7690	20.1150
 1.7700	20.0850
 1.7710	20.0550
 1.7720	20.0280
 1.7730	20.0020
 1.7740	19.9770
 1.7750	19.9550
 1.7760	19.9320
 1.7770	19.9080
 1.7780	19.8870
 1.7790	19.8660
 1.7800	19.8470
 1.7810	19.8300
 1.7820	19.8140
 1.7830	19.8000
 1.7840	19.7880
 1.7850	19.7790
 1.7860	19.7710
 1.7870	19.7660
 1.7880	19.7590
 1.7890	19.7530
 1.7900	19.7540
 1.7910	19.7540
 1.7920	19.7570
 1.7930	19.7600
 1.7940	19.7610
 1.7950	19.7650
 1.7960	19.7710
 1.7970	19.7780
 1.7980	19.7870
 1.7990	19.7960
 1.8000	19.8050
 1.8010	19.8140
 1.8020	19.8220
 1.8030	19.8320
 1.8040	19.8440
 1.8050	19.8540
 1.8060	19.8650
 1.8070	19.8740
 1.8080	19.8800
 1.8090	19.8900
 1.8100	19.9030
 1.8110	19.9140
 1.8120	19.9240
 1.8130	19.9330
 1.8140	19.9400
 1.8150	19.9480
 1.8160	19.9550
 1.8170	19.9610
 1.8180	19.9660
 1.8190	19.9730
 1.8200	19.9770
 1.8210	19.9820
 1.8220	19.9840
 1.8230	19.9820
 1.8240	19.9810
 1.8250	19.9800
 1.8260	19.9770
 1.8270	19.9740
 1.8280	19.9690
 1.8290	19.9600
 1.8300	19.9510
 1.8310	19.8740
 1.8320	19.8550
 1.8330	19.8360
 1.8340	19.8160
 1.8350	19.7900
 1.8360	19.7600
 1.8370	19.7280
 1.8380	19.6910
 1.8390	19.6480
 1.8400	19.6000
 1.8410	19.5460
 1.8420	19.4870
 1.8430	19.4230
 1.8440	19.3560
 1.8450	19.2810
 1.8460	19.1990
 1.8470	19.1120
 1.8480	19.0150
 1.8490	18.9090
 1.8500	18.7940
 1.8510	18.6720
 1.8520	18.5370
 1.8530	18.3920
 1.8540	18.2390
 1.8550	18.0720
 1.8560	17.8970
 1.8570	17.7120
 1.8580	17.5170
 1.8590	17.3120
 1.8600	17.0990
 1.8610	16.8750
 1.8620	16.6360
 1.8630	16.3840
 1.8640	16.1200
 1.8650	15.8420
 1.8660	15.5520
 1.8670	15.2520
 1.8680	14.9410
 1.8690	14.6170
 1.8700	14.2850
 1.8710	13.9430
 1.8720	13.5960
 1.8730	13.2420
 1.8740	12.8870
 1.8750	12.5300
 1.8760	12.1720
 1.8770	11.8160
 1.8780	11.4680
 1.8790	11.1260
 1.8800	10.7950
 1.8810	10.4730
 1.8820	10.1590
 1.8830	 9.8530
 1.8840	 9.5560
 1.8850	 9.2700
 1.8860	 9.0000
 1.8870	 8.7430
 1.8880	 8.5000
 1.8890	 8.2750
 1.8900	 8.0640
 1.8910	 7.8680
 1.8920	 7.6870
 1.8930	 7.5220
 1.8940	 7.3720
 1.8950	 7.2360
 1.8960	 7.1160
 1.8970	 7.0080
 1.8980	 6.9140
 1.8990	 6.8320
 1.9000	 6.7540
 1.9010	 6.6880
 1.9020	 6.6270
 1.9030	 6.5730
 1.9040	 6.5250
 1.9050	 6.4870
 1.9060	 6.4550
 1.9070	 6.4280
 1.9080	 6.4030
 1.9090	 6.3810
 1.9100	 6.3610
 1.9110	 6.3430
 1.9120	 6.3300
 1.9130	 6.3180
 1.9140	 6.3090
 1.9150	 6.2990
 1.9160	 6.2900
 1.9170	 6.2810
 1.9180	 6.2730
 1.9190	 6.2670
 1.9200	 6.2660
 1.9210	 6.2670
 1.9220	 6.2660
 1.9230	 6.2640
 1.9240	 6.2630
 1.9250	 6.2610
 1.9260	 6.2600
 1.9270	 6.2620
 1.9280	 6.2650
 1.9290	 6.2680
 1.9300	 6.2700
 1.9310	 6.2730
 1.9320	 6.2790
 1.9330	 6.2830
 1.9340	 6.2890
 1.9350	 6.2940
 1.9360	 6.2970
 1.9370	 6.3000
 1.9380	 6.3050
 1.9390	 6.3080
 1.9400	 6.3120
 1.9410	 6.3190
 1.9420	 6.3250
 1.9430	 6.3320
 1.9440	 6.3390
 1.9450	 6.3450
 1.9460	 6.3510
 1.9470	 6.3580
 1.9480	 6.3660
 1.9490	 6.3740
 1.9500	 6.3820
 1.9510	 6.3920
 1.9520	 6.4020
 1.9530	 6.4130
 1.9540	 6.4240
 1.9550	 6.4350
 1.9560	 6.4460
 1.9570	 6.4580
 1.9580	 6.4720
 1.9590	 6.4840
 1.9600	 6.4970
 1.9610	 6.5070
 1.9620	 6.5150
 1.9630	 6.5230
 1.9640	 6.5350
 1.9650	 6.5490
 1.9660	 6.5640
 1.9670	 6.5800
 1.9680	 6.5970
 1.9690	 6.6140
 1.9700	 6.6310
 1.9710	 6.6520
 1.9720	 6.6690
 1.9730	 6.6850
 1.9740	 6.7000
 1.9750	 6.7160
 1.9760	 6.7320
 1.9770	 6.7520
 1.9780	 6.7730
 1.9790	 6.7930
 1.9800	 6.8120
 1.9810	 6.8320
 1.9820	 6.8510
 1.9830	 6.8720
 1.9840	 6.8960
 1.9850	 6.9190
 1.9860	 6.9410
 1.9870	 6.9630
 1.9880	 6.9850
 1.9890	 7.0060
 1.9900	 7.0310
 1.9910	 7.0570
 1.9920	 7.0800
 1.9930	 7.1040
 1.9940	 7.1290
 1.9950	 7.1500
 1.9960	 7.1760
 1.9970	 7.2070
 1.9980	 7.2360
 1.9990	 7.2660
 2.0000	 7.2950
 2.0010	 7.3190
 2.0020	 7.3460
 2.0030	 7.3710
 2.0040	 7.3970
 2.0050	 7.4250
 2.0060	 7.4560
 2.0070	 7.4860
 2.0080	 7.5190
 2.0090	 7.5480
 2.0100	 7.5750
 2.0110	 7.6030
 2.0120	 7.6290
 2.0130	 7.6580
 2.0140	 7.6910
 2.0150	 7.7210
 2.0160	 7.7530
 2.0170	 7.7840
 2.0180	 7.8140
 2.0190	 7.8420
 2.0200	 7.8710
 2.0210	 7.8990
 2.0220	 7.9290
 2.0230	 7.9620
 2.0240	 7.9930
 2.0250	 8.0240
 2.0260	 8.0540
 2.0270	 8.0800
 2.0280	 8.1060
 2.0290	 8.1330
 2.0300	 8.1610
 2.0310	 8.1900
 2.0320	 8.2200
 2.0330	 8.2490
 2.0340	 8.2790
 2.0350	 8.3070
 2.0360	 8.3320
 2.0370	 8.3580
 2.0380	 8.3820
 2.0390	 8.4080
 2.0400	 8.4360
 2.0410	 8.4630
 2.0420	 8.4890
 2.0430	 8.5160
 2.0440	 8.5420
 2.0450	 8.5690
 2.0460	 8.5960
 2.0470	 8.6240
 2.0480	 8.6490
 2.0490	 8.6720
 2.0500	 8.6970
 2.0510	 8.7230
 2.0520	 8.7480
 2.0530	 8.7720
 2.0540	 8.7970
 2.0550	 8.8240
 2.0560	 8.8470
 2.0570	 8.8730
 2.0580	 8.8980
 2.0590	 8.9240
 2.0600	 8.9470
 2.0610	 8.9720
 2.0620	 8.9990
 2.0630	 9.0250
 2.0640	 9.0490
 2.0650	 9.0740
 2.0660	 9.0990
 2.0670	 9.1250
 2.0680	 9.1530
 2.0690	 9.1800
 2.0700	 9.2120
 2.0710	 9.2400
 2.0720	 9.2680
 2.0730	 9.2940
 2.0740	 9.3200
 2.0750	 9.3430
 2.0760	 9.3710
 2.0770	 9.4020
 2.0780	 9.4300
 2.0790	 9.4570
 2.0800	 9.4850
 2.0810	 9.5090
 2.0820	 9.5360
 2.0830	 9.5650
 2.0840	 9.5940
 2.0850	 9.6220
 2.0860	 9.6490
 2.0870	 9.6770
 2.0880	 9.7050
 2.0890	 9.7310
 2.0900	 9.7550
 2.0910	 9.7840
 2.0920	 9.8140
 2.0930	 9.8430
 2.0940	 9.8760
 2.0950	 9.9050
 2.0960	 9.9300
 2.0970	 9.9570
 2.0980	 9.9850
 2.0990	10.0100
 2.1000	10.0340
 2.1010	10.0590
 2.1020	10.0820
 2.1030	10.1070
 2.1040	10.1340
 2.1050	10.1630
 2.1060	10.1900
 2.1070	10.2190
 2.1080	10.2460
 2.1090	10.2720
 2.1100	10.2980
 2.1110	10.3240
 2.1120	10.3500
 2.1130	10.3800
 2.1140	10.4060
 2.1150	10.4310
 2.1160	10.4560
 2.1170	10.4790
 2.1180	10.5030
 2.1190	10.5280
 2.1200	10.5530
 2.1210	10.5790
 2.1220	10.6060
 2.1230	10.6310
 2.1240	10.6560
 2.1250	10.6810
 2.1260	10.7070
 2.1270	10.7310
 2.1280	10.7570
 2.1290	10.7800
 2.1300	10.8030
 2.1310	10.8240
 2.1320	10.8420
 2.1330	10.8630
 2.1340	10.8810
 2.1350	10.9020
 2.1360	10.9270
 2.1370	10.9510
 2.1380	10.9740
 2.1390	10.9970
 2.1400	11.0190
 2.1410	11.0400
 2.1420	11.0620
 2.1430	11.0850
 2.1440	11.1070
 2.1450	11.1280
 2.1460	11.1510
 2.1470	11.1760
 2.1480	11.1990
 2.1490	11.2220
 2.1500	11.2450
 2.1510	11.2640
 2.1520	11.2870
 2.1530	11.3160
 2.1540	11.3400
 2.1550	11.3670
 2.1560	11.3880
 2.1570	11.4020
 2.1580	11.4180
 2.1590	11.4320
 2.1600	11.4450
 2.1610	11.4600
 2.1620	11.4780
 2.1630	11.4980
 2.1640	11.5250
 2.1650	11.5430
 2.1660	11.5590
 2.1670	11.5760
 2.1680	11.5870
 2.1690	11.6040
 2.1700	11.6280
 2.1710	11.6470
 2.1720	11.6650
 2.1730	11.6820
 2.1740	11.6990
 2.1750	11.7150
 2.1760	11.7290
 2.1770	11.7460
 2.1780	11.7650
 2.1790	11.7830
 2.1800	11.8030
 2.1810	11.8210
 2.1820	11.8380
 2.1830	11.8550
 2.1840	11.8740
 2.1850	11.8920
 2.1860	11.9100
 2.1870	11.9280
 2.1880	11.9460
 2.1890	11.9630
 2.1900	11.9790
 2.1910	11.9950
 2.1920	12.0100
 2.1930	12.0230
 2.1940	12.0380
 2.1950	12.0540
 2.1960	12.0680
 2.1970	12.0820
 2.1980	12.0980
 2.1990	12.1150
 2.2000	12.1290
 2.2010	12.1430
 2.2020	12.1550
 2.2030	12.1620
 2.2040	12.1720
 2.2050	12.1820
 2.2060	12.1970
 2.2070	12.2070
 2.2080	12.2170
 2.2090	12.2270
 2.2100	12.2370
 2.2110	12.2440
 2.2120	12.2530
 2.2130	12.2590
 2.2140	12.2610
 2.2150	12.2630
 2.2160	12.2670
 2.2170	12.2670
 2.2180	12.2630
 2.2190	12.2610
 2.2200	12.2620
 2.2210	12.2560
 2.2220	12.2490
 2.2230	12.2400
 2.2240	12.2240
 2.2250	12.2100
 2.2260	12.1970
 2.2270	12.1810
 2.2280	12.1650
 2.2290	12.1460
 2.2300	12.1230
 2.2310	12.1010
 2.2320	12.0730
 2.2330	12.0440
 2.2340	12.0130
 2.2350	11.9810
 2.2360	11.9470
 2.2370	11.9110
 2.2380	11.8760
 2.2390	11.8390
 2.2400	11.8030
 2.2410	11.7660
 2.2420	11.7270
 2.2430	11.6830
 2.2440	11.6420
 2.2450	11.6000
 2.2460	11.5550
 2.2470	11.5090
 2.2480	11.4640
 2.2490	11.4150
 2.2500	11.3690
 2.2510	11.3270
 2.2520	11.2840
 2.2530	11.2400
 2.2540	11.1970
 2.2550	11.1540
 2.2560	11.1100
 2.2570	11.0660
 2.2580	11.0230
 2.2590	10.9780
 2.2600	10.9360
 2.2610	10.8990
 2.2620	10.8580
 2.2630	10.8180
 2.2640	10.7840
 2.2650	10.7460
 2.2660	10.7080
 2.2670	10.6750
 2.2680	10.6450
 2.2690	10.6140
 2.2700	10.5880
 2.2710	10.5610
 2.2720	10.5320
 2.2730	10.5040
 2.2740	10.4760
 2.2750	10.4500
 2.2760	10.4240
 2.2770	10.4010
 2.2780	10.3830
 2.2790	10.3600
 2.2800	10.3350
 2.2810	10.3140
 2.2820	10.2950
 2.2830	10.2760
 2.2840	10.2630
 2.2850	10.2430
 2.2860	10.2170
 2.2870	10.1940
 2.2880	10.1720
 2.2890	10.1450
 2.2900	10.1140
 2.2910	10.0850
 2.2920	10.0510
 2.2930	10.0220
 2.2940	10.0030
 2.2950	 9.9770
 2.2960	 9.9510
 2.2970	 9.9240
 2.2980	 9.8940
 2.2990	 9.8630
 2.3000	 9.8330
 2.3010	 9.8030
 2.3020	 9.7750
 2.3030	 9.7480
 2.3040	 9.7230
 2.3050	 9.7050
 2.3060	 9.6900
 2.3070	 9.6730
 2.3080	 9.6580
 2.3090	 9.6420
 2.3100	 9.6260
 2.3110	 9.6140
 2.3120	 9.6030
 2.3130	 9.5950
 2.3140	 9.5840
 2.3150	 9.5710
 2.3160	 9.5620
 2.3170	 9.5510
 2.3180	 9.5420
 2.3190	 9.5390
 2.3200	 9.5320
 2.3210	 9.5270
 2.3220	 9.5130
 2.3230	 9.4920
 2.3240	 9.4730
 2.3250	 9.4440
 2.3260	 9.4260
 2.3270	 9.4140
 2.3280	 9.3980
 2.3290	 9.3870
 2.3300	 9.3720
 2.3310	 9.3570
 2.3320	 9.3410
 2.3330	 9.3290
 2.3340	 9.3090
 2.3350	 9.2800
 2.3360	 9.2560
 2.3370	 9.2260
 2.3380	 9.2050
 2.3390	 9.1940
 2.3400	 9.1780
 2.3410	 9.1660
 2.3420	 9.1460
 2.3430	 9.1140
 2.3440	 9.0900
 2.3450	 9.0620
 2.3460	 9.0440
 2.3470	 9.0400
 2.3480	 9.0290
 2.3490	 9.0210
 2.3500	 9.0100
 2.3510	 8.9920
 2.3520	 8.9780
 2.3530	 8.9660
 2.3540	 8.9520
 2.3550	 8.9330
 2.3560	 8.9210
 2.3570	 8.9010
 2.3580	 8.8830
 2.3590	 8.8710
 2.3600	 8.8550
 2.3610	 8.8390
 2.3620	 8.8220
 2.3630	 8.8080
 2.3640	 8.7960
 2.3650	 8.7870
 2.3660	 8.7830
 2.3670	 8.7680
 2.3680	 8.7510
 2.3690	 8.7420
 2.3700	 8.7270
 2.3710	 8.7140
 2.3720	 8.7040
 2.3730	 8.6770
 2.3740	 8.6450
 2.3750	 8.6280
 2.3760	 8.6040
 2.3770	 8.5890
 2.3780	 8.5860
 2.3790	 8.5740
 2.3800	 8.5630
 2.3810	 8.5510
 2.3820	 8.5390
 2.3830	 8.5200
 2.3840	 8.5050
 2.3850	 8.5030
 2.3860	 8.4950
 2.3870	 8.4900
 2.3880	 8.4790
 2.3890	 8.4510
 2.3900	 8.4140
 2.3910	 8.3830
 2.3920	 8.3650
 2.3930	 8.3490
 2.3940	 8.3430
 2.3950	 8.3440
 2.3960	 8.3330
 2.3970	 8.3190
 2.3980	 8.3110
 2.3990	 8.2940
 2.4000	 8.2690
 2.4010	 8.2520
 2.4020	 8.2320
 2.4030	 8.2150
 2.4040	 8.1990
 2.4050	 8.1830
 2.4060	 8.1700
 2.4070	 8.1530
 2.4080	 8.1420
 2.4090	 8.1320
 2.4100	 8.1210
 2.4110	 8.1160
 2.4120	 8.0970
 2.4130	 8.0670
 2.4140	 8.0420
 2.4150	 8.0230
 2.4160	 8.0210
 2.4170	 8.0320
 2.4180	 8.0260
 2.4190	 8.0170
 2.4200	 8.0070
 2.4210	 7.9820
 2.4220	 7.9720
 2.4230	 7.9660
 2.4240	 7.9540
 2.4250	 7.9450
 2.4260	 7.9280
 2.4270	 7.9130
 2.4280	 7.8950
 2.4290	 7.8740
 2.4300	 7.8620
 2.4310	 7.8430
 2.4320	 7.8280
 2.4330	 7.8170
 2.4340	 7.8050
 2.4350	 7.7940
 2.4360	 7.7620
 2.4370	 7.7390
 2.4380	 7.7250
 2.4390	 7.7030
 2.4400	 7.6930
 2.4410	 7.6750
 2.4420	 7.6730
 2.4430	 7.6810
 2.4440	 7.6800
 2.4450	 7.6810
 2.4460	 7.6720
 2.4470	 7.6400
 2.4480	 7.6050
 2.4490	 7.5900
 2.4500	 7.5660
 2.4510	 7.5460
 2.4520	 7.5690
 2.4530	 7.5810
 2.4540	 7.5870
 2.4550	 7.6050
 2.4560	 7.5970
 2.4570	 7.5630
 2.4580	 7.5270
 2.4590	 7.5010
 2.4600	 7.4770
 2.4610	 7.4680
 2.4620	 7.4790
 2.4630	 7.4700
 2.4640	 7.4550
 2.4650	 7.4540
 2.4660	 7.4310
 2.4670	 7.4260
 2.4680	 7.4410
 2.4690	 7.4340
 2.4700	 7.4210
 2.4710	 7.3810
 2.4720	 7.3750
 2.4730	 7.3960
 2.4740	 7.4070
 2.4750	 7.4420
 2.4760	 7.4470
 2.4770	 7.4240
 2.4780	 7.3960
 2.4790	 7.3430
 2.4800	 7.3200
 2.4810	 7.2950
 2.4820	 7.3010
 2.4830	 7.3460
 2.4840	 7.3810
 2.4850	 7.3930
 2.4860	 7.4030
 2.4870	 7.3660
 2.4880	 7.3160
 2.4890	 7.3200
 2.4900	 7.3290
 2.4910	 7.3710
 2.4920	 7.4220
 2.4930	 7.4540
 2.4940	 7.4610
 2.4950	 7.4170
 2.4960	 7.3830
 2.4970	 7.3690
 2.4980	 7.3800
 2.4990	 7.4260
 2.5000	 7.4470
