Name: Heteromeles arbutifolia 1
Type: vegetation
Class: Shrub
Genus: Heteromeles
Species: arbutifolia
Sample No.: VH206
Owner: UCSB
Wavelength Range: TIR
Origin: 34.4907; -119.791; WGS84
Collection Date: 10/13/2013
Description: Samples were collected as part of the HyspIRI Airborne Campaign. 48 individual plants were sampled in three times in 2013 - spring  summer  and fall. The name of the sample includes a 1  2  or 3 which references a different individual of the species. Samples were taken to JPL and processed within 48 hours of collection. The same leaves were processed in the Nicolet and then measured using the ASD.
Measurement: Hemispherical reflectance
First Column: X
Second Column: Y
X Units: Wavelength (micrometers)
Y Units: Reflectance (percentage)
First X Value: 2.501
Last X Value: 15.387
Number of X Values: 1737
Additional Information: vegetation.shrub.heteromeles.arbutifolia.tir.vh206.ucsb.nicolet.ancillary.txt

 2.5010	 5.8820
 2.5030	 5.7500
 2.5040	 5.7790
 2.5050	 5.8510
 2.5060	 6.2940
 2.5070	 6.3620
 2.5090	 6.1770
 2.5100	 6.1820
 2.5110	 6.2830
 2.5120	 6.0800
 2.5140	 5.9410
 2.5150	 5.9510
 2.5160	 6.0020
 2.5170	 5.8790
 2.5180	 5.9390
 2.5200	 5.8700
 2.5210	 6.0650
 2.5220	 6.2210
 2.5230	 6.0990
 2.5250	 5.9520
 2.5260	 6.0280
 2.5270	 5.9660
 2.5280	 5.9190
 2.5290	 5.7810
 2.5310	 5.7440
 2.5320	 5.7130
 2.5330	 6.1250
 2.5340	 6.1610
 2.5360	 5.9750
 2.5370	 5.7320
 2.5380	 5.6200
 2.5390	 5.6130
 2.5410	 5.7290
 2.5420	 5.7600
 2.5430	 5.8990
 2.5440	 6.0520
 2.5460	 6.2950
 2.5470	 5.9390
 2.5480	 5.7770
 2.5490	 5.7900
 2.5510	 6.0290
 2.5520	 6.0440
 2.5530	 6.0220
 2.5540	 5.9910
 2.5560	 5.9300
 2.5570	 5.8250
 2.5580	 5.8380
 2.5590	 5.7640
 2.5610	 5.8880
 2.5620	 6.0090
 2.5630	 5.9920
 2.5640	 5.9240
 2.5660	 6.0520
 2.5670	 6.1920
 2.5680	 6.2370
 2.5700	 6.1770
 2.5710	 6.2500
 2.5720	 6.1030
 2.5730	 6.0670
 2.5750	 6.1340
 2.5760	 6.1630
 2.5770	 6.1550
 2.5790	 5.9500
 2.5800	 5.9060
 2.5810	 6.1140
 2.5820	 6.0550
 2.5840	 5.9550
 2.5850	 5.9370
 2.5860	 6.0020
 2.5880	 6.0650
 2.5890	 5.9520
 2.5900	 5.9720
 2.5910	 6.1060
 2.5930	 6.0010
 2.5940	 5.9670
 2.5950	 5.9790
 2.5970	 6.0210
 2.5980	 6.0320
 2.5990	 6.0740
 2.6000	 6.0120
 2.6020	 6.0220
 2.6030	 6.1130
 2.6040	 6.0690
 2.6060	 5.9240
 2.6070	 5.9430
 2.6080	 5.8510
 2.6100	 5.9300
 2.6110	 5.8800
 2.6120	 5.7400
 2.6140	 5.5600
 2.6150	 5.5990
 2.6160	 5.7880
 2.6180	 5.9230
 2.6190	 5.7550
 2.6200	 5.7700
 2.6220	 5.8820
 2.6230	 5.8430
 2.6240	 5.5870
 2.6260	 5.5610
 2.6270	 5.6490
 2.6280	 5.6510
 2.6300	 5.6760
 2.6310	 5.6850
 2.6320	 5.3750
 2.6340	 5.4000
 2.6350	 5.5820
 2.6360	 5.6150
 2.6380	 5.5100
 2.6390	 5.5050
 2.6400	 5.5570
 2.6420	 5.5300
 2.6430	 5.4660
 2.6440	 5.5160
 2.6460	 5.4140
 2.6470	 5.2320
 2.6480	 5.1950
 2.6500	 5.6080
 2.6510	 5.7930
 2.6520	 5.4990
 2.6540	 5.2620
 2.6550	 5.3190
 2.6560	 5.3980
 2.6580	 5.2590
 2.6590	 5.1790
 2.6610	 5.1580
 2.6620	 5.0630
 2.6630	 5.1410
 2.6650	 5.2550
 2.6660	 5.3550
 2.6670	 5.3300
 2.6690	 5.3450
 2.6700	 5.3380
 2.6720	 5.3380
 2.6730	 5.3310
 2.6740	 5.2540
 2.6760	 5.1880
 2.6770	 5.1390
 2.6780	 5.0050
 2.6800	 5.0850
 2.6810	 5.1560
 2.6830	 5.2360
 2.6840	 5.2300
 2.6850	 5.2570
 2.6870	 5.0420
 2.6880	 4.9090
 2.6900	 5.0200
 2.6910	 5.0850
 2.6920	 4.8440
 2.6940	 4.8000
 2.6950	 4.9230
 2.6970	 5.2200
 2.6980	 5.1200
 2.6990	 5.0590
 2.7010	 4.9510
 2.7020	 4.9420
 2.7040	 5.0260
 2.7050	 4.9380
 2.7060	 4.9000
 2.7080	 4.9860
 2.7090	 4.9240
 2.7110	 4.9490
 2.7120	 4.8570
 2.7130	 4.5670
 2.7150	 4.3840
 2.7160	 4.5350
 2.7180	 4.5880
 2.7190	 4.7800
 2.7210	 4.8370
 2.7220	 4.7710
 2.7230	 4.5830
 2.7250	 4.7630
 2.7260	 4.8910
 2.7280	 5.0410
 2.7290	 5.2750
 2.7310	 5.0670
 2.7320	 4.8430
 2.7330	 5.0280
 2.7350	 5.0540
 2.7360	 5.0200
 2.7380	 4.7170
 2.7390	 4.7660
 2.7410	 4.7950
 2.7420	 4.7600
 2.7440	 4.7760
 2.7450	 4.7800
 2.7470	 4.3400
 2.7480	 4.3190
 2.7490	 4.7130
 2.7510	 4.9510
 2.7520	 4.6600
 2.7540	 4.3030
 2.7550	 4.4890
 2.7570	 5.1620
 2.7580	 5.1480
 2.7600	 5.0280
 2.7610	 4.7730
 2.7630	 4.1850
 2.7640	 3.9200
 2.7660	 4.3840
 2.7670	 4.6060
 2.7680	 4.9150
 2.7700	 4.9190
 2.7710	 4.5640
 2.7730	 4.2720
 2.7740	 4.4810
 2.7760	 4.6220
 2.7770	 4.6140
 2.7790	 4.7020
 2.7800	 4.7480
 2.7820	 4.3580
 2.7830	 4.2810
 2.7850	 4.3420
 2.7860	 4.5590
 2.7880	 4.3980
 2.7890	 4.2820
 2.7910	 4.3600
 2.7920	 4.4460
 2.7940	 4.5230
 2.7950	 4.6480
 2.7970	 4.9080
 2.7980	 4.9590
 2.8000	 4.4470
 2.8010	 4.4470
 2.8030	 4.6190
 2.8040	 4.6620
 2.8060	 4.6300
 2.8070	 4.6740
 2.8090	 4.5300
 2.8110	 4.4580
 2.8120	 4.5090
 2.8140	 4.5770
 2.8150	 4.6060
 2.8170	 4.8990
 2.8180	 4.8700
 2.8200	 4.6870
 2.8210	 4.5770
 2.8230	 4.5810
 2.8240	 4.8560
 2.8260	 4.9160
 2.8270	 4.5930
 2.8290	 4.4210
 2.8300	 4.7540
 2.8320	 5.0070
 2.8340	 4.6360
 2.8350	 4.3460
 2.8370	 4.2500
 2.8380	 4.5440
 2.8400	 4.7180
 2.8410	 4.7120
 2.8430	 4.6820
 2.8440	 4.7510
 2.8460	 4.5880
 2.8480	 4.6480
 2.8490	 4.7740
 2.8510	 4.8590
 2.8520	 4.7670
 2.8540	 4.8470
 2.8550	 4.7020
 2.8570	 4.6450
 2.8590	 4.6560
 2.8600	 4.3850
 2.8620	 4.2250
 2.8630	 4.4260
 2.8650	 4.4360
 2.8660	 4.6260
 2.8680	 4.8040
 2.8700	 4.7300
 2.8710	 4.7990
 2.8730	 4.6780
 2.8740	 4.4450
 2.8760	 4.9650
 2.8780	 5.0080
 2.8790	 4.7760
 2.8810	 4.6580
 2.8820	 4.9620
 2.8840	 4.9580
 2.8860	 4.7260
 2.8870	 4.4550
 2.8890	 4.2700
 2.8900	 4.1200
 2.8920	 3.9720
 2.8940	 4.2390
 2.8950	 4.4860
 2.8970	 4.7150
 2.8980	 4.8530
 2.9000	 4.7980
 2.9020	 5.1600
 2.9030	 4.9370
 2.9050	 4.6550
 2.9070	 4.8220
 2.9080	 4.6220
 2.9100	 4.6170
 2.9120	 4.8420
 2.9130	 4.9010
 2.9150	 4.6050
 2.9160	 4.3410
 2.9180	 4.6330
 2.9200	 4.8180
 2.9210	 4.9490
 2.9230	 4.9100
 2.9250	 4.9210
 2.9260	 4.8650
 2.9280	 4.9250
 2.9300	 4.8910
 2.9310	 4.6990
 2.9330	 4.5260
 2.9350	 4.6310
 2.9360	 4.8740
 2.9380	 5.0820
 2.9400	 4.9980
 2.9410	 4.9680
 2.9430	 4.8300
 2.9450	 4.9020
 2.9460	 4.6690
 2.9480	 4.2910
 2.9500	 4.4340
 2.9510	 4.1120
 2.9530	 5.0120
 2.9550	 5.6110
 2.9560	 4.9640
 2.9580	 4.4170
 2.9600	 4.7790
 2.9610	 5.2680
 2.9630	 4.6950
 2.9650	 4.6880
 2.9660	 4.1930
 2.9680	 3.6240
 2.9700	 5.8590
 2.9720	 4.3990
 2.9730	 1.7450
 2.9750	 4.0350
 2.9770	 5.0200
 2.9780	 2.3850
 2.9800	 1.8100
 2.9820	 4.1590
 2.9840	 5.1050
 2.9850	 5.2140
 2.9870	 5.4840
 2.9890	 6.3790
 2.9900	 3.2680
 2.9920	 3.2230
 2.9940	 3.5650
 2.9960	 2.3450
 2.9970	 2.5050
 2.9990	 3.5860
 3.0010	 4.6650
 3.0030	 4.0130
 3.0040	 3.7110
 3.0060	 3.6190
 3.0080	 2.9580
 3.0100	 3.7160
 3.0110	 3.6980
 3.0130	 4.9400
 3.0150	 5.7740
 3.0170	 4.3950
 3.0180	 4.4110
 3.0200	 5.1810
 3.0220	 5.2570
 3.0240	 4.7310
 3.0250	 4.3510
 3.0270	 4.9680
 3.0290	 5.0430
 3.0310	 3.7930
 3.0320	 3.7070
 3.0340	 5.6390
 3.0360	 4.7940
 3.0380	 4.4490
 3.0400	 3.8130
 3.0410	 2.3690
 3.0430	 1.8270
 3.0450	 3.3680
 3.0470	 2.6020
 3.0480	 1.8290
 3.0500	 3.4730
 3.0520	 5.2800
 3.0540	 4.9120
 3.0560	 4.4170
 3.0570	 6.3860
 3.0590	 7.4720
 3.0610	 5.5760
 3.0630	 4.0160
 3.0650	 4.0920
 3.0660	 5.4480
 3.0680	 4.8060
 3.0700	 3.8700
 3.0720	 4.7790
 3.0740	 4.5920
 3.0760	 4.5260
 3.0770	 4.5990
 3.0790	 4.7740
 3.0810	 4.8410
 3.0830	 4.7310
 3.0850	 4.5520
 3.0870	 4.4110
 3.0880	 4.6830
 3.0900	 5.3940
 3.0920	 5.2050
 3.0940	 4.7780
 3.0960	 4.6200
 3.0980	 4.5450
 3.0990	 4.5100
 3.1010	 4.6410
 3.1030	 4.4790
 3.1050	 4.2690
 3.1070	 4.7230
 3.1090	 4.8570
 3.1110	 4.7440
 3.1120	 4.9250
 3.1140	 5.1020
 3.1160	 5.0840
 3.1180	 4.7110
 3.1200	 4.4190
 3.1220	 4.5060
 3.1240	 4.9460
 3.1260	 4.6270
 3.1270	 4.3030
 3.1290	 4.4190
 3.1310	 4.3940
 3.1330	 4.6090
 3.1350	 5.5930
 3.1370	 4.7870
 3.1390	 3.9780
 3.1410	 4.0950
 3.1430	 4.2200
 3.1450	 4.9020
 3.1460	 4.7880
 3.1480	 4.3890
 3.1500	 5.0790
 3.1520	 5.2410
 3.1540	 4.1990
 3.1560	 5.1350
 3.1580	 4.7190
 3.1600	 3.2720
 3.1620	 2.9390
 3.1640	 2.2570
 3.1660	 1.6620
 3.1680	 -0.927
 3.1700	 -0.049
 3.1710	 4.1520
 3.1730	 6.2010
 3.1750	 6.1820
 3.1770	 4.4610
 3.1790	 3.7190
 3.1810	 6.6820
 3.1830	 6.9580
 3.1850	 4.4940
 3.1870	 4.0140
 3.1890	 4.6240
 3.1910	 4.7620
 3.1930	 5.1480
 3.1950	 5.4950
 3.1970	 5.0670
 3.1990	 4.6950
 3.2010	 4.5250
 3.2030	 4.1340
 3.2050	 4.1030
 3.2070	 4.6960
 3.2090	 4.9270
 3.2110	 4.8210
 3.2130	 4.8350
 3.2150	 4.9660
 3.2170	 4.7680
 3.2190	 4.5590
 3.2210	 4.7210
 3.2230	 4.9270
 3.2250	 4.9950
 3.2270	 4.8530
 3.2290	 4.5240
 3.2310	 4.4060
 3.2330	 4.3160
 3.2350	 4.3540
 3.2370	 4.6630
 3.2390	 5.1530
 3.2410	 4.8090
 3.2430	 4.7650
 3.2450	 5.0270
 3.2470	 4.6650
 3.2490	 4.3220
 3.2510	 4.6740
 3.2530	 4.8790
 3.2550	 4.3970
 3.2570	 4.2530
 3.2590	 5.0030
 3.2610	 5.0080
 3.2630	 5.1530
 3.2650	 4.7310
 3.2670	 4.2520
 3.2690	 4.2920
 3.2720	 4.6560
 3.2740	 4.8540
 3.2760	 4.6610
 3.2780	 4.6720
 3.2800	 4.5120
 3.2820	 4.5180
 3.2840	 4.2940
 3.2860	 4.0040
 3.2880	 3.9300
 3.2900	 4.3180
 3.2920	 4.4370
 3.2940	 4.3400
 3.2960	 4.3310
 3.2990	 4.2590
 3.3010	 4.4250
 3.3030	 4.1130
 3.3050	 3.8140
 3.3070	 4.1560
 3.3090	 4.3040
 3.3110	 4.3170
 3.3130	 4.4390
 3.3150	 4.6830
 3.3180	 4.9370
 3.3200	 4.9100
 3.3220	 4.6400
 3.3240	 4.5820
 3.3260	 4.4600
 3.3280	 4.2710
 3.3300	 4.2800
 3.3330	 4.3550
 3.3350	 4.2730
 3.3370	 4.2880
 3.3390	 4.3400
 3.3410	 4.3030
 3.3430	 4.3300
 3.3450	 4.3740
 3.3480	 4.0450
 3.3500	 3.8360
 3.3520	 3.9810
 3.3540	 4.2160
 3.3560	 4.4060
 3.3580	 4.1570
 3.3610	 4.0940
 3.3630	 4.1720
 3.3650	 4.0960
 3.3670	 4.0900
 3.3690	 4.1610
 3.3720	 4.2030
 3.3740	 4.3080
 3.3760	 4.3260
 3.3780	 4.3150
 3.3800	 4.2840
 3.3830	 4.1810
 3.3850	 4.1670
 3.3870	 4.2160
 3.3890	 4.2550
 3.3910	 4.5580
 3.3940	 4.6070
 3.3960	 4.6490
 3.3980	 4.6530
 3.4000	 4.6820
 3.4020	 4.6380
 3.4050	 4.7280
 3.4070	 4.7020
 3.4090	 4.8270
 3.4110	 5.0180
 3.4140	 5.2350
 3.4160	 5.2970
 3.4180	 5.5690
 3.4200	 5.8540
 3.4230	 6.4290
 3.4250	 6.9590
 3.4270	 7.5840
 3.4290	 8.2250
 3.4320	 8.1100
 3.4340	 7.6520
 3.4360	 7.0080
 3.4390	 6.3190
 3.4410	 6.0220
 3.4430	 5.9200
 3.4450	 6.0510
 3.4480	 6.1390
 3.4500	 5.9500
 3.4520	 5.8930
 3.4550	 6.0580
 3.4570	 5.9030
 3.4590	 5.8100
 3.4620	 5.7090
 3.4640	 5.4570
 3.4660	 5.3410
 3.4680	 5.3390
 3.4710	 5.2500
 3.4730	 5.1540
 3.4750	 5.1240
 3.4780	 5.2790
 3.4800	 5.3310
 3.4820	 5.1980
 3.4850	 5.1380
 3.4870	 5.1440
 3.4890	 5.1100
 3.4920	 5.1020
 3.4940	 4.9610
 3.4970	 5.0440
 3.4990	 5.3270
 3.5010	 5.3970
 3.5040	 5.5010
 3.5060	 6.1670
 3.5080	 7.0380
 3.5110	 7.6850
 3.5130	 7.5500
 3.5160	 6.8700
 3.5180	 6.5660
 3.5200	 6.5460
 3.5230	 6.3090
 3.5250	 5.9090
 3.5270	 5.6460
 3.5300	 5.6210
 3.5320	 5.5310
 3.5350	 5.3780
 3.5370	 5.2770
 3.5400	 5.3750
 3.5420	 5.3280
 3.5440	 5.0370
 3.5470	 5.1750
 3.5490	 5.3680
 3.5520	 5.3340
 3.5540	 5.2750
 3.5570	 5.2360
 3.5590	 5.2320
 3.5610	 5.2590
 3.5640	 5.2500
 3.5660	 5.3190
 3.5690	 5.2580
 3.5710	 5.1430
 3.5740	 5.2580
 3.5760	 5.2760
 3.5790	 5.2850
 3.5810	 5.3590
 3.5840	 5.3020
 3.5860	 5.1120
 3.5890	 5.1730
 3.5910	 5.2900
 3.5930	 5.1780
 3.5960	 5.1330
 3.5980	 5.1430
 3.6010	 5.0300
 3.6030	 5.0070
 3.6060	 4.8620
 3.6080	 4.9660
 3.6110	 5.1140
 3.6140	 5.1780
 3.6160	 5.1440
 3.6190	 5.0470
 3.6210	 5.0620
 3.6240	 5.1300
 3.6260	 5.0360
 3.6290	 4.9400
 3.6310	 4.9710
 3.6340	 5.1540
 3.6360	 5.1780
 3.6390	 5.0600
 3.6410	 4.9000
 3.6440	 4.9450
 3.6470	 4.9980
 3.6490	 5.0570
 3.6520	 5.1720
 3.6540	 5.1010
 3.6570	 4.9550
 3.6590	 5.0640
 3.6620	 4.9820
 3.6650	 4.8800
 3.6670	 4.9120
 3.6700	 5.0250
 3.6720	 5.1720
 3.6750	 5.1560
 3.6780	 5.0510
 3.6800	 4.9800
 3.6830	 4.9760
 3.6850	 4.9640
 3.6880	 4.9930
 3.6910	 5.1140
 3.6930	 5.1580
 3.6960	 5.0420
 3.6990	 4.9930
 3.7010	 5.0400
 3.7040	 5.1220
 3.7060	 5.0280
 3.7090	 4.9170
 3.7120	 4.9790
 3.7140	 4.9980
 3.7170	 5.0730
 3.7200	 5.0420
 3.7220	 4.8910
 3.7250	 4.7870
 3.7280	 4.7450
 3.7300	 4.8680
 3.7330	 5.0240
 3.7360	 5.0040
 3.7390	 4.9750
 3.7410	 5.0090
 3.7440	 5.1170
 3.7470	 5.0000
 3.7490	 4.9010
 3.7520	 4.9050
 3.7550	 4.9900
 3.7580	 4.9340
 3.7600	 4.9110
 3.7630	 4.9320
 3.7660	 5.0030
 3.7680	 5.1580
 3.7710	 5.1270
 3.7740	 5.0320
 3.7770	 5.0190
 3.7790	 5.0290
 3.7820	 4.9970
 3.7850	 4.8900
 3.7880	 4.9230
 3.7900	 5.0130
 3.7930	 5.0230
 3.7960	 4.9510
 3.7990	 4.9050
 3.8020	 5.0350
 3.8040	 5.1030
 3.8070	 5.0390
 3.8100	 5.0820
 3.8130	 5.1210
 3.8160	 5.1390
 3.8180	 5.2120
 3.8210	 5.2200
 3.8240	 4.9100
 3.8270	 4.9240
 3.8300	 4.9700
 3.8330	 4.8930
 3.8350	 4.8550
 3.8380	 4.9370
 3.8410	 4.9980
 3.8440	 4.9150
 3.8470	 4.8800
 3.8500	 4.9080
 3.8520	 4.8570
 3.8550	 4.8580
 3.8580	 4.9410
 3.8610	 5.0290
 3.8640	 5.0480
 3.8670	 4.8900
 3.8700	 4.7820
 3.8730	 4.9700
 3.8750	 5.0060
 3.8780	 4.9440
 3.8810	 4.9780
 3.8840	 5.0120
 3.8870	 5.0660
 3.8900	 5.1040
 3.8930	 4.9500
 3.8960	 4.9160
 3.8990	 5.0970
 3.9020	 5.1820
 3.9050	 5.0670
 3.9080	 5.1110
 3.9110	 5.1090
 3.9140	 5.0470
 3.9160	 4.9520
 3.9190	 4.9600
 3.9220	 5.0050
 3.9250	 5.0500
 3.9280	 5.0190
 3.9310	 5.0470
 3.9340	 5.0470
 3.9370	 4.9460
 3.9400	 4.9330
 3.9430	 4.9630
 3.9460	 4.9570
 3.9490	 4.8950
 3.9520	 4.8210
 3.9550	 4.8280
 3.9580	 4.8980
 3.9610	 5.0040
 3.9640	 5.0050
 3.9670	 4.9910
 3.9700	 4.9670
 3.9730	 5.0070
 3.9770	 5.0050
 3.9800	 4.9270
 3.9830	 4.9060
 3.9860	 4.9420
 3.9890	 4.9270
 3.9920	 4.9920
 3.9950	 4.9970
 3.9980	 4.9040
 4.0010	 4.9160
 4.0040	 4.9870
 4.0070	 5.0330
 4.0100	 5.0310
 4.0130	 4.9750
 4.0170	 5.0060
 4.0200	 4.9880
 4.0230	 4.9470
 4.0260	 5.0230
 4.0290	 5.0680
 4.0320	 4.9790
 4.0350	 4.9550
 4.0380	 4.9890
 4.0420	 4.9940
 4.0450	 5.0330
 4.0480	 5.0300
 4.0510	 5.0320
 4.0540	 5.0710
 4.0570	 5.1330
 4.0610	 5.0880
 4.0640	 4.9790
 4.0670	 4.8200
 4.0700	 4.8890
 4.0730	 5.0050
 4.0770	 4.9660
 4.0800	 4.9340
 4.0830	 4.9560
 4.0860	 5.0690
 4.0890	 5.1120
 4.0930	 4.9920
 4.0960	 4.9170
 4.0990	 5.0250
 4.1020	 5.0700
 4.1060	 5.0100
 4.1090	 4.9740
 4.1120	 5.0480
 4.1150	 4.9880
 4.1190	 4.8110
 4.1220	 4.7850
 4.1250	 4.8170
 4.1280	 4.8090
 4.1320	 4.8250
 4.1350	 4.8600
 4.1380	 4.9380
 4.1420	 4.8840
 4.1450	 4.8580
 4.1480	 4.8610
 4.1520	 4.8780
 4.1550	 4.9330
 4.1580	 4.8890
 4.1620	 4.8290
 4.1650	 4.8170
 4.1680	 4.9150
 4.1720	 4.9900
 4.1750	 4.9500
 4.1780	 4.8530
 4.1820	 4.8460
 4.1850	 4.9090
 4.1890	 4.9840
 4.1920	 4.9740
 4.1950	 4.9360
 4.1990	 4.9720
 4.2020	 4.9890
 4.2060	 5.0520
 4.2090	 5.1650
 4.2120	 5.2750
 4.2160	 5.2790
 4.2190	 5.2390
 4.2230	 5.3740
 4.2260	 5.6200
 4.2300	 5.3990
 4.2330	 5.4320
 4.2360	 5.4110
 4.2400	 5.1210
 4.2430	 4.8830
 4.2470	 5.1730
 4.2500	 5.3030
 4.2540	 5.1780
 4.2570	 4.9000
 4.2610	 4.7690
 4.2640	 5.2380
 4.2680	 5.5080
 4.2710	 5.3430
 4.2750	 5.0570
 4.2780	 4.9250
 4.2820	 5.0590
 4.2850	 5.3210
 4.2890	 5.4420
 4.2930	 5.4890
 4.2960	 5.2150
 4.3000	 4.9790
 4.3030	 4.9470
 4.3070	 5.0860
 4.3100	 5.0220
 4.3140	 4.9130
 4.3180	 5.0530
 4.3210	 5.0960
 4.3250	 4.9860
 4.3280	 4.9890
 4.3320	 5.0490
 4.3360	 5.1000
 4.3390	 5.0410
 4.3430	 4.9700
 4.3470	 4.9910
 4.3500	 5.0020
 4.3540	 4.9140
 4.3570	 4.9430
 4.3610	 4.9970
 4.3650	 4.9240
 4.3680	 4.8840
 4.3720	 4.8040
 4.3760	 4.6780
 4.3800	 4.7300
 4.3830	 4.8150
 4.3870	 4.8190
 4.3910	 4.8450
 4.3940	 4.8380
 4.3980	 4.9400
 4.4020	 4.9890
 4.4060	 4.8660
 4.4090	 4.8670
 4.4130	 4.9070
 4.4170	 4.9330
 4.4210	 4.8580
 4.4240	 4.8110
 4.4280	 4.8620
 4.4320	 4.8720
 4.4360	 4.7980
 4.4400	 4.7080
 4.4430	 4.7170
 4.4470	 4.8190
 4.4510	 4.7870
 4.4550	 4.8230
 4.4590	 4.8600
 4.4620	 4.7870
 4.4660	 4.8340
 4.4700	 4.9120
 4.4740	 4.8840
 4.4780	 4.7810
 4.4820	 4.7210
 4.4860	 4.8300
 4.4900	 4.8950
 4.4930	 4.8840
 4.4970	 4.8170
 4.5010	 4.7620
 4.5050	 4.7890
 4.5090	 4.8470
 4.5130	 4.8410
 4.5170	 4.7860
 4.5210	 4.7150
 4.5250	 4.7110
 4.5290	 4.6740
 4.5330	 4.6010
 4.5370	 4.5380
 4.5410	 4.5950
 4.5450	 4.6680
 4.5490	 4.7040
 4.5530	 4.7190
 4.5570	 4.7670
 4.5610	 4.8230
 4.5650	 4.8160
 4.5690	 4.7980
 4.5730	 4.8680
 4.5770	 4.8800
 4.5810	 4.8050
 4.5850	 4.6260
 4.5890	 4.6370
 4.5930	 4.7580
 4.5970	 4.8450
 4.6010	 4.7000
 4.6050	 4.7840
 4.6090	 4.9750
 4.6130	 4.8280
 4.6170	 4.7640
 4.6220	 4.6850
 4.6260	 4.6030
 4.6300	 4.6820
 4.6340	 4.8350
 4.6380	 4.7830
 4.6420	 4.7730
 4.6460	 4.7550
 4.6510	 4.6910
 4.6550	 4.8160
 4.6590	 4.8610
 4.6630	 4.7950
 4.6670	 4.6680
 4.6720	 4.6290
 4.6760	 4.6760
 4.6800	 4.7020
 4.6840	 4.6220
 4.6880	 4.6960
 4.6930	 4.7790
 4.6970	 4.6460
 4.7010	 4.6940
 4.7050	 4.7230
 4.7100	 4.6470
 4.7140	 4.7100
 4.7180	 4.7250
 4.7230	 4.6240
 4.7270	 4.6190
 4.7310	 4.5990
 4.7360	 4.5910
 4.7400	 4.6510
 4.7440	 4.6380
 4.7490	 4.6410
 4.7530	 4.7130
 4.7570	 4.7380
 4.7620	 4.8100
 4.7660	 4.7580
 4.7700	 4.6580
 4.7750	 4.7710
 4.7790	 4.9620
 4.7840	 5.1610
 4.7880	 5.0170
 4.7920	 4.6970
 4.7970	 4.5600
 4.8010	 4.6430
 4.8060	 4.5680
 4.8100	 4.4980
 4.8150	 4.6290
 4.8190	 4.7670
 4.8240	 4.7830
 4.8280	 4.6740
 4.8330	 4.7550
 4.8370	 4.9380
 4.8420	 4.8630
 4.8460	 4.7120
 4.8510	 4.6440
 4.8550	 4.5830
 4.8600	 4.6060
 4.8640	 4.6670
 4.8690	 4.7220
 4.8730	 4.7430
 4.8780	 4.6860
 4.8830	 4.6780
 4.8870	 4.6310
 4.8920	 4.6570
 4.8960	 4.7190
 4.9010	 4.6540
 4.9060	 4.5350
 4.9100	 4.5940
 4.9150	 4.6510
 4.9200	 4.6750
 4.9240	 4.6580
 4.9290	 4.6660
 4.9340	 4.6690
 4.9380	 4.6820
 4.9430	 4.7620
 4.9480	 4.8320
 4.9530	 4.7770
 4.9570	 4.6730
 4.9620	 4.6100
 4.9670	 4.7490
 4.9720	 4.7850
 4.9760	 4.7350
 4.9810	 4.7170
 4.9860	 4.6730
 4.9910	 4.7000
 4.9960	 4.7580
 5.0000	 4.7670
 5.0050	 4.7010
 5.0100	 4.6390
 5.0150	 4.7580
 5.0200	 4.8170
 5.0250	 4.8310
 5.0290	 4.8330
 5.0340	 4.8000
 5.0390	 4.6620
 5.0440	 4.5430
 5.0490	 4.5740
 5.0540	 4.6950
 5.0590	 4.6990
 5.0640	 4.6930
 5.0690	 4.6190
 5.0740	 4.6290
 5.0790	 4.6820
 5.0840	 4.6970
 5.0890	 4.6590
 5.0940	 4.6860
 5.0990	 4.7560
 5.1040	 4.7830
 5.1090	 4.6940
 5.1140	 4.7370
 5.1190	 4.7820
 5.1240	 4.7210
 5.1290	 4.6720
 5.1340	 4.6430
 5.1390	 4.6510
 5.1440	 4.7090
 5.1490	 4.6850
 5.1540	 4.6540
 5.1600	 4.6110
 5.1650	 4.5450
 5.1700	 4.5540
 5.1750	 4.5860
 5.1800	 4.5940
 5.1850	 4.6090
 5.1910	 4.6550
 5.1960	 4.7270
 5.2010	 4.6560
 5.2060	 4.6620
 5.2110	 4.7140
 5.2170	 4.6860
 5.2220	 4.6350
 5.2270	 4.6720
 5.2320	 4.6740
 5.2380	 4.6370
 5.2430	 4.5790
 5.2480	 4.6310
 5.2540	 4.6850
 5.2590	 4.6590
 5.2640	 4.5560
 5.2700	 4.5450
 5.2750	 4.5670
 5.2800	 4.5620
 5.2860	 4.4990
 5.2910	 4.5800
 5.2970	 4.5770
 5.3020	 4.5000
 5.3070	 4.4280
 5.3130	 4.5630
 5.3180	 4.6190
 5.3240	 4.5720
 5.3290	 4.5560
 5.3350	 4.5550
 5.3400	 4.5560
 5.3460	 4.5780
 5.3510	 4.5800
 5.3570	 4.6330
 5.3620	 4.6160
 5.3680	 4.5690
 5.3730	 4.5730
 5.3790	 4.5380
 5.3850	 4.4880
 5.3900	 4.5640
 5.3960	 4.5640
 5.4010	 4.4640
 5.4070	 4.4380
 5.4130	 4.5250
 5.4180	 4.5030
 5.4240	 4.4670
 5.4300	 4.4640
 5.4350	 4.5340
 5.4410	 4.5270
 5.4470	 4.5690
 5.4530	 4.4550
 5.4580	 4.4470
 5.4640	 4.5250
 5.4700	 4.4570
 5.4760	 4.3490
 5.4810	 4.4600
 5.4870	 4.4190
 5.4930	 4.3980
 5.4990	 4.3740
 5.5050	 4.3770
 5.5110	 4.4040
 5.5160	 4.3150
 5.5220	 4.2450
 5.5280	 4.3020
 5.5340	 4.2990
 5.5400	 4.3460
 5.5460	 4.2910
 5.5520	 4.3400
 5.5580	 4.3500
 5.5640	 4.3380
 5.5700	 4.2990
 5.5760	 4.2610
 5.5820	 4.2520
 5.5880	 4.2520
 5.5940	 4.1530
 5.6000	 4.1450
 5.6060	 4.1310
 5.6120	 4.2560
 5.6180	 4.2420
 5.6240	 4.1370
 5.6300	 4.0280
 5.6360	 4.1020
 5.6420	 4.1750
 5.6490	 4.1180
 5.6550	 4.0780
 5.6610	 4.1030
 5.6670	 4.0310
 5.6730	 4.0010
 5.6800	 3.9210
 5.6860	 3.9420
 5.6920	 3.9580
 5.6980	 3.9180
 5.7040	 3.7930
 5.7110	 3.8630
 5.7170	 3.8230
 5.7230	 3.8490
 5.7300	 3.8140
 5.7360	 3.7810
 5.7420	 3.7110
 5.7490	 3.7130
 5.7550	 3.7850
 5.7620	 3.9500
 5.7680	 4.0160
 5.7740	 4.1130
 5.7810	 4.2110
 5.7870	 4.3390
 5.7940	 4.4360
 5.8000	 4.5620
 5.8070	 4.5950
 5.8130	 4.7170
 5.8200	 4.8250
 5.8260	 4.8820
 5.8330	 4.8210
 5.8390	 4.8980
 5.8460	 4.8990
 5.8530	 4.9300
 5.8590	 5.0130
 5.8660	 5.1030
 5.8720	 5.1710
 5.8790	 5.1860
 5.8860	 5.0090
 5.8920	 5.1230
 5.8990	 5.2510
 5.9060	 5.2100
 5.9130	 5.0630
 5.9190	 5.1640
 5.9260	 5.2160
 5.9330	 5.3300
 5.9400	 5.4150
 5.9470	 5.4190
 5.9530	 5.3640
 5.9600	 5.4060
 5.9670	 5.3470
 5.9740	 5.3650
 5.9810	 5.2870
 5.9880	 5.2500
 5.9950	 5.3250
 6.0020	 5.4080
 6.0090	 5.2440
 6.0160	 5.1730
 6.0230	 5.1030
 6.0300	 5.1710
 6.0370	 5.1720
 6.0440	 5.3070
 6.0510	 5.3380
 6.0580	 5.2710
 6.0650	 5.3050
 6.0720	 5.4410
 6.0790	 5.3210
 6.0860	 5.3040
 6.0930	 5.2400
 6.1000	 5.1820
 6.1080	 5.1310
 6.1150	 5.2720
 6.1220	 5.2150
 6.1290	 5.2550
 6.1370	 5.2110
 6.1440	 5.2220
 6.1510	 5.1750
 6.1580	 5.2310
 6.1660	 5.1830
 6.1730	 5.1760
 6.1800	 5.1670
 6.1880	 5.2390
 6.1950	 5.1770
 6.2030	 5.1440
 6.2100	 5.0190
 6.2170	 5.0690
 6.2250	 5.0430
 6.2320	 5.0310
 6.2400	 5.0830
 6.2470	 5.2120
 6.2550	 5.0690
 6.2630	 5.0930
 6.2700	 5.0310
 6.2780	 4.9390
 6.2850	 4.9310
 6.2930	 5.0130
 6.3010	 4.9290
 6.3080	 4.9200
 6.3160	 4.8470
 6.3240	 5.0170
 6.3310	 4.9860
 6.3390	 5.0240
 6.3470	 5.0050
 6.3550	 4.9610
 6.3620	 4.8890
 6.3700	 5.0110
 6.3780	 5.0080
 6.3860	 4.9950
 6.3940	 4.8680
 6.4020	 4.9030
 6.4100	 4.9180
 6.4180	 4.9720
 6.4260	 4.8430
 6.4330	 4.7830
 6.4410	 4.6680
 6.4490	 4.8210
 6.4580	 4.8990
 6.4660	 4.8540
 6.4740	 4.8590
 6.4820	 4.9100
 6.4900	 4.8540
 6.4980	 4.8620
 6.5060	 4.7920
 6.5140	 4.8800
 6.5230	 4.7330
 6.5310	 4.6770
 6.5390	 4.5660
 6.5470	 4.6870
 6.5550	 4.7640
 6.5640	 4.8010
 6.5720	 4.7490
 6.5800	 4.7620
 6.5890	 4.5410
 6.5970	 4.5460
 6.6060	 4.5170
 6.6140	 4.5490
 6.6220	 4.5460
 6.6310	 4.5860
 6.6390	 4.5320
 6.6480	 4.5630
 6.6560	 4.4910
 6.6650	 4.5050
 6.6740	 4.5150
 6.6820	 4.5000
 6.6910	 4.3280
 6.6990	 4.4620
 6.7080	 4.5030
 6.7170	 4.4550
 6.7260	 4.3790
 6.7340	 4.3230
 6.7430	 4.2380
 6.7520	 4.3760
 6.7610	 4.2990
 6.7690	 4.3530
 6.7780	 4.3430
 6.7870	 4.4630
 6.7960	 4.4100
 6.8050	 4.3290
 6.8140	 4.2440
 6.8230	 4.4740
 6.8320	 4.6280
 6.8410	 4.6430
 6.8500	 4.5150
 6.8590	 4.6480
 6.8680	 4.6850
 6.8770	 4.7150
 6.8860	 4.7070
 6.8950	 4.8020
 6.9050	 4.8070
 6.9140	 4.8510
 6.9230	 4.8090
 6.9320	 4.8360
 6.9420	 4.7640
 6.9510	 4.8190
 6.9600	 4.7820
 6.9700	 4.8100
 6.9790	 4.7260
 6.9880	 4.8420
 6.9980	 4.7870
 7.0070	 4.8410
 7.0170	 4.8030
 7.0260	 4.8450
 7.0360	 4.7700
 7.0450	 4.7310
 7.0550	 4.6370
 7.0650	 4.6800
 7.0740	 4.5140
 7.0840	 4.5400
 7.0940	 4.5720
 7.1030	 4.6300
 7.1130	 4.6310
 7.1230	 4.6070
 7.1330	 4.5250
 7.1420	 4.6610
 7.1520	 4.5450
 7.1620	 4.6400
 7.1720	 4.6420
 7.1820	 4.6190
 7.1920	 4.4860
 7.2020	 4.5440
 7.2120	 4.5520
 7.2220	 4.6780
 7.2320	 4.6690
 7.2420	 4.7110
 7.2520	 4.6290
 7.2620	 4.7450
 7.2730	 4.7220
 7.2830	 4.7410
 7.2930	 4.7470
 7.3030	 4.8540
 7.3140	 4.7480
 7.3240	 4.7650
 7.3340	 4.7200
 7.3450	 4.7730
 7.3550	 4.7430
 7.3660	 4.7500
 7.3760	 4.6180
 7.3870	 4.6430
 7.3970	 4.5830
 7.4080	 4.7510
 7.4180	 4.7570
 7.4290	 4.8050
 7.4400	 4.7080
 7.4500	 4.7520
 7.4610	 4.6820
 7.4720	 4.6460
 7.4830	 4.5320
 7.4930	 4.6380
 7.5040	 4.6520
 7.5150	 4.6820
 7.5260	 4.5260
 7.5370	 4.6070
 7.5480	 4.5600
 7.5590	 4.5920
 7.5700	 4.5670
 7.5810	 4.6530
 7.5920	 4.5720
 7.6030	 4.5660
 7.6140	 4.5250
 7.6260	 4.6210
 7.6370	 4.5650
 7.6480	 4.5350
 7.6590	 4.4520
 7.6710	 4.5730
 7.6820	 4.5790
 7.6930	 4.6260
 7.7050	 4.5010
 7.7160	 4.5310
 7.7280	 4.4560
 7.7390	 4.5010
 7.7510	 4.4100
 7.7630	 4.4660
 7.7740	 4.5040
 7.7860	 4.6980
 7.7980	 4.6230
 7.8090	 4.5400
 7.8210	 4.4320
 7.8330	 4.4900
 7.8450	 4.4440
 7.8570	 4.6180
 7.8690	 4.5740
 7.8810	 4.5800
 7.8930	 4.6190
 7.9050	 4.7260
 7.9170	 4.6600
 7.9290	 4.7480
 7.9410	 4.6200
 7.9530	 4.6210
 7.9650	 4.4970
 7.9780	 4.5750
 7.9900	 4.6290
 8.0020	 4.7360
 8.0150	 4.6420
 8.0270	 4.7490
 8.0390	 4.7060
 8.0520	 4.7220
 8.0640	 4.6090
 8.0770	 4.8440
 8.0900	 4.8300
 8.1020	 4.7690
 8.1150	 4.6430
 8.1280	 4.8120
 8.1400	 4.7840
 8.1530	 4.8740
 8.1660	 4.8310
 8.1790	 4.9250
 8.1920	 4.7490
 8.2050	 4.9320
 8.2180	 4.9180
 8.2310	 4.9790
 8.2440	 4.7710
 8.2570	 4.7500
 8.2700	 4.6930
 8.2830	 4.8930
 8.2970	 4.6820
 8.3100	 4.7170
 8.3230	 4.7550
 8.3370	 4.8710
 8.3500	 4.7270
 8.3640	 4.8260
 8.3770	 4.8060
 8.3910	 4.7570
 8.4040	 4.6760
 8.4180	 5.1200
 8.4320	 5.1040
 8.4450	 5.1750
 8.4590	 5.1550
 8.4730	 5.1560
 8.4870	 5.1170
 8.5010	 5.3430
 8.5150	 5.1930
 8.5290	 5.2570
 8.5430	 5.2690
 8.5570	 5.5070
 8.5710	 5.4020
 8.5850	 5.5820
 8.5990	 5.5920
 8.6140	 5.6460
 8.6280	 5.4550
 8.6420	 5.4540
 8.6570	 5.3630
 8.6710	 5.5100
 8.6860	 5.4740
 8.7000	 5.7530
 8.7150	 5.5930
 8.7300	 5.4590
 8.7440	 5.3780
 8.7590	 5.6350
 8.7740	 5.6130
 8.7890	 5.5910
 8.8040	 5.4710
 8.8190	 5.6670
 8.8340	 5.5630
 8.8490	 5.6900
 8.8640	 5.5010
 8.8790	 5.4350
 8.8940	 5.3050
 8.9100	 5.4670
 8.9250	 5.2810
 8.9400	 5.4980
 8.9560	 5.4880
 8.9710	 5.4870
 8.9870	 5.3340
 9.0020	 5.3170
 9.0180	 5.1930
 9.0340	 5.4610
 9.0500	 5.4260
 9.0650	 5.4870
 9.0810	 5.4070
 9.0970	 5.5920
 9.1130	 5.3940
 9.1290	 5.4910
 9.1450	 5.3820
 9.1610	 5.5090
 9.1780	 5.3530
 9.1940	 5.4410
 9.2100	 5.3910
 9.2270	 5.5570
 9.2430	 5.4810
 9.2600	 5.6520
 9.2760	 5.3930
 9.2930	 5.5360
 9.3090	 5.3910
 9.3260	 5.5140
 9.3430	 5.5910
 9.3600	 5.8040
 9.3770	 5.5180
 9.3940	 5.5140
 9.4110	 5.4860
 9.4280	 5.5460
 9.4450	 5.3420
 9.4620	 5.6020
 9.4800	 5.5980
 9.4970	 5.6750
 9.5140	 5.4130
 9.5320	 5.4420
 9.5500	 5.3120
 9.5670	 5.5570
 9.5850	 5.6500
 9.6030	 5.6520
 9.6200	 5.5370
 9.6380	 5.7270
 9.6560	 5.5560
 9.6740	 5.7490
 9.6920	 5.7570
 9.7100	 5.8690
 9.7290	 5.6380
 9.7470	 5.6800
 9.7650	 5.3950
 9.7840	 5.5740
 9.8020	 5.6500
 9.8210	 5.6490
 9.8390	 5.4190
 9.8580	 5.6930
 9.8770	 5.6220
 9.8960	 5.7960
 9.9150	 5.7260
 9.9340	 5.8200
 9.9530	 5.6340
 9.9720	 5.7840
 9.9910	 5.5350
10.0100	 5.5220
10.0300	 5.4560
10.0490	 5.7120
10.0690	 5.6060
10.0880	 5.5790
10.1080	 5.4550
10.1280	 5.5270
10.1480	 5.2870
10.1670	 5.4660
10.1870	 5.3730
10.2070	 5.4520
10.2280	 5.3520
10.2480	 5.6150
10.2680	 5.5170
10.2890	 5.5100
10.3090	 5.4090
10.3300	 5.5880
10.3500	 5.5090
10.3710	 5.6670
10.3920	 5.4120
10.4120	 5.4680
10.4330	 5.3430
10.4540	 5.3670
10.4760	 5.1580
10.4970	 5.2830
10.5180	 5.1560
10.5390	 5.3830
10.5610	 5.2570
10.5820	 5.3290
10.6040	 5.1580
10.6260	 5.2830
10.6480	 5.3170
10.6700	 5.5420
10.6920	 5.2760
10.7140	 5.2990
10.7360	 5.1080
10.7580	 5.4620
10.7800	 5.3510
10.8030	 5.3930
10.8250	 5.2920
10.8480	 5.3120
10.8710	 5.2490
10.8940	 5.3840
10.9170	 5.0690
10.9400	 5.1730
10.9630	 5.1550
10.9860	 5.2930
11.0090	 5.2000
11.0330	 5.4930
11.0560	 5.3160
11.0800	 5.3630
11.1040	 5.1200
11.1270	 5.2390
11.1510	 5.0090
11.1750	 5.2060
11.2000	 5.1410
11.2240	 5.2520
11.2480	 5.0090
11.2730	 5.1280
11.2970	 4.8720
11.3220	 5.2960
11.3470	 5.4010
11.3720	 5.5250
11.3970	 5.1960
11.4220	 5.2550
11.4470	 5.0150
11.4720	 5.2280
11.4980	 5.0890
11.5230	 5.2540
11.5490	 4.9900
11.5750	 5.1510
11.6000	 4.9590
11.6260	 5.1320
11.6530	 5.0860
11.6790	 5.1910
11.7050	 4.7720
11.7320	 4.9350
11.7580	 4.9240
11.7850	 5.2300
11.8120	 5.0320
11.8390	 5.1900
11.8660	 5.0330
11.8930	 5.0930
11.9200	 4.8190
11.9480	 4.9470
11.9760	 4.7520
12.0030	 4.8340
12.0310	 4.7490
12.0590	 4.9270
12.0870	 4.4520
12.1150	 4.5160
12.1440	 4.5830
12.1720	 5.0500
12.2010	 4.7930
12.2300	 4.9930
12.2590	 4.7530
12.2880	 4.8350
12.3170	 4.6520
12.3460	 4.9990
12.3760	 4.8830
12.4050	 5.0610
12.4350	 4.6630
12.4650	 4.9120
12.4950	 4.8490
12.5250	 4.8830
12.5550	 4.4980
12.5860	 4.8560
12.6170	 4.8410
12.6470	 5.0700
12.6780	 4.6440
12.7090	 4.8370
12.7410	 4.7700
12.7720	 5.0630
12.8030	 4.9590
12.8350	 5.2330
12.8670	 4.8850
12.8990	 4.9270
12.9310	 4.7730
12.9640	 4.8940
12.9960	 4.4870
13.0290	 4.6850
13.0610	 4.5100
13.0940	 4.6690
13.1280	 4.4320
13.1610	 4.7850
13.1940	 4.8180
13.2280	 5.2660
13.2620	 4.8560
13.2960	 4.8730
13.3300	 4.6430
13.3640	 4.7650
13.3990	 4.5800
13.4340	 4.9760
13.4690	 4.8110
13.5040	 5.0410
13.5390	 4.4460
13.5740	 4.7100
13.6100	 4.6040
13.6460	 5.2170
13.6820	 4.9970
13.7180	 5.1360
13.7540	 4.8890
13.7910	 5.0520
13.8280	 4.7860
13.8650	 5.1550
13.9020	 4.8510
13.9390	 5.3880
13.9770	 5.2070
14.0150	 5.5340
14.0530	 5.0540
14.0910	 5.1010
14.1290	 4.7170
14.1680	 5.0740
14.2070	 4.7700
14.2460	 5.1610
14.2850	 4.6200
14.3240	 4.9830
14.3640	 4.7100
14.4040	 5.3320
14.4440	 5.0470
14.4840	 5.2620
14.5250	 4.9390
14.5660	 5.7880
14.6070	 5.2460
14.6480	 5.3690
14.6900	 4.5330
14.7310	 5.0200
14.7730	 4.8410
14.8150	 5.5140
14.8580	 4.7540
14.9010	 5.2270
14.9440	 4.8750
14.9870	 5.9840
15.0300	 5.1970
15.0740	 5.8590
15.1180	 5.4050
15.1620	 5.7440
15.2060	 4.7560
15.2510	 5.2470
15.2960	 4.6680
15.3410	 5.3110
15.3870	 5.1600
