Name: Ceanothus spinosus 3
Type: vegetation
Class: Shrub
Genus: Ceanothus
Species: spinosus
Sample No.: VH011
Owner: UCSB
Wavelength Range: TIR
Origin: 34.4906; -119.7908; WGS84
Collection Date: 4/1/2013
Description: Samples were collected as part of the HyspIRI Airborne Campaign. 48 individual plants were sampled in three times in 2013 - spring  summer  and fall. The name of the sample includes a 1  2  or 3 which references a different individual of the species. Samples were taken to JPL and processed within 48 hours of collection. The same leaves were processed in the Nicolet and then measured using the ASD.
Measurement: Hemispherical reflectance
First Column: X
Second Column: Y
X Units: Wavelength (micrometers)
Y Units: Reflectance (percentage)
First X Value: 2.501
Last X Value: 15.387
Number of X Values: 1737
Additional Information: vegetation.shrub.ceanothus.spinosus.tir.vh011.ucsb.nicolet.ancillary.txt

 2.5010	 9.1950
 2.5030	 9.0730
 2.5040	 9.1570
 2.5050	 9.1470
 2.5060	 9.1630
 2.5070	 9.1600
 2.5090	 9.1590
 2.5100	 9.1250
 2.5110	 9.0550
 2.5120	 8.9310
 2.5140	 8.9280
 2.5150	 8.9710
 2.5160	 9.1180
 2.5170	 9.2190
 2.5180	 9.1250
 2.5200	 8.9550
 2.5210	 9.0950
 2.5220	 9.0520
 2.5230	 9.0210
 2.5250	 9.0780
 2.5260	 9.0720
 2.5270	 8.9450
 2.5280	 9.0800
 2.5290	 9.1480
 2.5310	 9.1460
 2.5320	 8.9820
 2.5330	 9.0010
 2.5340	 9.0340
 2.5360	 9.0220
 2.5370	 9.0710
 2.5380	 9.1090
 2.5390	 9.0490
 2.5410	 9.1470
 2.5420	 9.2310
 2.5430	 9.1930
 2.5440	 9.0780
 2.5460	 9.0620
 2.5470	 9.0900
 2.5480	 9.1900
 2.5490	 9.2050
 2.5510	 9.2040
 2.5520	 9.0790
 2.5530	 9.0150
 2.5540	 9.0740
 2.5560	 9.1420
 2.5570	 9.1180
 2.5580	 9.1150
 2.5590	 9.1370
 2.5610	 9.2170
 2.5620	 9.1890
 2.5630	 9.1680
 2.5640	 9.1240
 2.5660	 9.1630
 2.5670	 9.1190
 2.5680	 9.1250
 2.5700	 9.1600
 2.5710	 9.2490
 2.5720	 9.1670
 2.5730	 9.2500
 2.5750	 9.2250
 2.5760	 9.2320
 2.5770	 9.2020
 2.5790	 9.1230
 2.5800	 9.1770
 2.5810	 9.2130
 2.5820	 9.1610
 2.5840	 9.2010
 2.5850	 9.1500
 2.5860	 9.2490
 2.5880	 9.2960
 2.5890	 9.1510
 2.5900	 9.0030
 2.5910	 9.0490
 2.5930	 9.0790
 2.5940	 9.1800
 2.5950	 9.2640
 2.5970	 9.3150
 2.5980	 9.1220
 2.5990	 9.0210
 2.6000	 9.0040
 2.6020	 9.0300
 2.6030	 8.8860
 2.6040	 8.9200
 2.6060	 8.9600
 2.6070	 8.9160
 2.6080	 8.9530
 2.6100	 9.0600
 2.6110	 9.0050
 2.6120	 8.8820
 2.6140	 8.8360
 2.6150	 8.9530
 2.6160	 8.9650
 2.6180	 8.8970
 2.6190	 8.7920
 2.6200	 8.8190
 2.6220	 8.8420
 2.6230	 8.8940
 2.6240	 8.8750
 2.6260	 8.8290
 2.6270	 8.7540
 2.6280	 8.7580
 2.6300	 8.8010
 2.6310	 8.8390
 2.6320	 8.8210
 2.6340	 8.8520
 2.6350	 8.7290
 2.6360	 8.6920
 2.6380	 8.6210
 2.6390	 8.6770
 2.6400	 8.6730
 2.6420	 8.6360
 2.6430	 8.5640
 2.6440	 8.4950
 2.6460	 8.5110
 2.6470	 8.6540
 2.6480	 8.6440
 2.6500	 8.5960
 2.6510	 8.6410
 2.6520	 8.6970
 2.6540	 8.5870
 2.6550	 8.6510
 2.6560	 8.6910
 2.6580	 8.7050
 2.6590	 8.6400
 2.6610	 8.6560
 2.6620	 8.6780
 2.6630	 8.7170
 2.6650	 8.7560
 2.6660	 8.7350
 2.6670	 8.5960
 2.6690	 8.5800
 2.6700	 8.6650
 2.6720	 8.7060
 2.6730	 8.6390
 2.6740	 8.7420
 2.6760	 8.7210
 2.6770	 8.7230
 2.6780	 8.6610
 2.6800	 8.5990
 2.6810	 8.7250
 2.6830	 8.9080
 2.6840	 8.8660
 2.6850	 8.8190
 2.6870	 8.8030
 2.6880	 8.8850
 2.6900	 8.7730
 2.6910	 8.7250
 2.6920	 8.6840
 2.6940	 8.7860
 2.6950	 8.8510
 2.6970	 8.9010
 2.6980	 8.8900
 2.6990	 8.9210
 2.7010	 8.8220
 2.7020	 8.7780
 2.7040	 8.8060
 2.7050	 8.8640
 2.7060	 8.8430
 2.7080	 8.9330
 2.7090	 8.9760
 2.7110	 9.0120
 2.7120	 8.9700
 2.7130	 9.0500
 2.7150	 9.1440
 2.7160	 9.1380
 2.7180	 9.0470
 2.7190	 9.0590
 2.7210	 9.0750
 2.7220	 9.1910
 2.7230	 9.2660
 2.7250	 9.3530
 2.7260	 9.2320
 2.7280	 9.2390
 2.7290	 9.2610
 2.7310	 9.3200
 2.7320	 9.2870
 2.7330	 9.3520
 2.7350	 9.4280
 2.7360	 9.4900
 2.7380	 9.4150
 2.7390	 9.4480
 2.7410	 9.4660
 2.7420	 9.5670
 2.7440	 9.6130
 2.7450	 9.6160
 2.7470	 9.5650
 2.7480	 9.6300
 2.7490	 9.6150
 2.7510	 9.7620
 2.7520	 9.7910
 2.7540	 9.7160
 2.7550	 9.7920
 2.7570	 9.8250
 2.7580	 9.7560
 2.7600	 9.7770
 2.7610	 9.6770
 2.7630	 9.7220
 2.7640	 9.7520
 2.7660	 9.8410
 2.7670	 9.8120
 2.7680	 9.8340
 2.7700	 9.8320
 2.7710	 9.9210
 2.7730	 9.9280
 2.7740	 9.9950
 2.7760	 9.8990
 2.7770	 9.8400
 2.7790	 9.9090
 2.7800	10.0390
 2.7820	 9.9580
 2.7830	 9.8620
 2.7850	 9.8530
 2.7860	 9.8470
 2.7880	 9.8920
 2.7890	10.0340
 2.7910	10.0050
 2.7920	10.0190
 2.7940	 9.9220
 2.7950	 9.9900
 2.7970	 9.9680
 2.7980	 9.9220
 2.8000	 9.7880
 2.8010	 9.8090
 2.8030	 9.9290
 2.8040	10.0970
 2.8060	10.0040
 2.8070	 9.9130
 2.8090	 9.8520
 2.8110	 9.8410
 2.8120	 9.8810
 2.8140	10.0490
 2.8150	10.0980
 2.8170	10.0840
 2.8180	10.0550
 2.8200	10.1340
 2.8210	10.0300
 2.8230	10.0070
 2.8240	10.0580
 2.8260	10.0620
 2.8270	10.0410
 2.8290	10.0780
 2.8300	10.0650
 2.8320	10.0080
 2.8340	 9.9050
 2.8350	 9.9810
 2.8370	 9.9830
 2.8380	10.0090
 2.8400	10.0590
 2.8410	10.1470
 2.8430	 9.9590
 2.8440	 9.8690
 2.8460	 9.8570
 2.8480	 9.9340
 2.8490	 9.8740
 2.8510	 9.8580
 2.8520	 9.8480
 2.8540	 9.9350
 2.8550	 9.8690
 2.8570	 9.9440
 2.8590	10.0090
 2.8600	10.1110
 2.8620	 9.9400
 2.8630	 9.8730
 2.8650	 9.9440
 2.8660	10.0300
 2.8680	 9.9990
 2.8700	 9.9750
 2.8710	 9.8970
 2.8730	 9.7950
 2.8740	 9.8440
 2.8760	10.0540
 2.8780	10.0310
 2.8790	 9.9800
 2.8810	 9.8570
 2.8820	 9.9150
 2.8840	 9.8850
 2.8860	 9.8770
 2.8870	 9.7510
 2.8890	 9.6770
 2.8900	 9.7470
 2.8920	 9.9420
 2.8940	 9.9330
 2.8950	 9.8690
 2.8970	 9.8190
 2.8980	 9.7610
 2.9000	 9.7190
 2.9020	 9.7450
 2.9030	 9.6710
 2.9050	 9.7580
 2.9070	 9.6660
 2.9080	 9.5170
 2.9100	 9.3840
 2.9120	 9.4640
 2.9130	 9.5680
 2.9150	 9.6260
 2.9160	 9.5750
 2.9180	 9.5480
 2.9200	 9.5070
 2.9210	 9.6000
 2.9230	 9.5620
 2.9250	 9.5670
 2.9260	 9.4330
 2.9280	 9.3350
 2.9300	 9.2370
 2.9310	 9.2790
 2.9330	 9.1990
 2.9350	 9.1800
 2.9360	 9.1270
 2.9380	 9.2230
 2.9400	 9.2280
 2.9410	 9.1850
 2.9430	 8.9990
 2.9450	 9.0630
 2.9460	 9.1240
 2.9480	 9.0580
 2.9500	 8.8880
 2.9510	 9.0140
 2.9530	 9.1620
 2.9550	 9.0830
 2.9560	 8.9360
 2.9580	 8.8460
 2.9600	 8.5980
 2.9610	 8.6090
 2.9630	 8.7930
 2.9650	 9.3010
 2.9660	 9.0850
 2.9680	 8.8910
 2.9700	 8.9410
 2.9720	 8.6280
 2.9730	 8.5420
 2.9750	 8.6540
 2.9770	 8.3440
 2.9780	 8.2010
 2.9800	 8.4850
 2.9820	 8.8130
 2.9840	 9.1790
 2.9850	 9.1180
 2.9870	 8.8330
 2.9890	 8.6480
 2.9900	 8.3600
 2.9920	 8.4230
 2.9940	 8.5210
 2.9960	 8.4780
 2.9970	 8.1830
 2.9990	 7.5090
 3.0010	 7.4320
 3.0030	 7.8460
 3.0040	 8.0000
 3.0060	 8.0880
 3.0080	 8.1190
 3.0100	 8.0590
 3.0110	 7.7490
 3.0130	 7.7230
 3.0150	 8.0030
 3.0170	 8.1600
 3.0180	 8.1770
 3.0200	 8.1210
 3.0220	 7.8200
 3.0240	 7.5320
 3.0250	 7.5140
 3.0270	 7.3770
 3.0290	 7.3640
 3.0310	 7.4160
 3.0320	 7.3270
 3.0340	 7.5670
 3.0360	 7.3010
 3.0380	 7.3380
 3.0400	 7.4940
 3.0410	 7.6260
 3.0430	 7.9110
 3.0450	 8.0300
 3.0470	 7.7270
 3.0480	 7.7420
 3.0500	 8.1040
 3.0520	 8.2740
 3.0540	 8.0540
 3.0560	 7.9290
 3.0570	 7.8750
 3.0590	 7.6240
 3.0610	 7.4020
 3.0630	 7.4360
 3.0650	 7.6730
 3.0660	 7.7630
 3.0680	 7.3760
 3.0700	 7.3730
 3.0720	 7.6100
 3.0740	 7.6080
 3.0760	 7.5170
 3.0770	 7.4690
 3.0790	 7.2840
 3.0810	 7.3830
 3.0830	 7.4920
 3.0850	 7.4520
 3.0870	 7.4230
 3.0880	 7.5710
 3.0900	 7.4990
 3.0920	 7.3790
 3.0940	 7.3850
 3.0960	 7.3580
 3.0980	 7.2790
 3.0990	 7.3450
 3.1010	 7.4880
 3.1030	 7.4040
 3.1050	 7.2080
 3.1070	 7.2260
 3.1090	 7.1880
 3.1110	 7.0790
 3.1120	 7.1220
 3.1140	 7.2400
 3.1160	 7.2090
 3.1180	 7.1290
 3.1200	 7.0400
 3.1220	 7.0490
 3.1240	 7.1520
 3.1260	 7.2670
 3.1270	 7.3060
 3.1290	 7.1770
 3.1310	 6.9760
 3.1330	 7.0330
 3.1350	 7.1370
 3.1370	 7.0010
 3.1390	 6.7770
 3.1410	 6.9900
 3.1430	 7.1000
 3.1450	 6.9100
 3.1460	 6.8840
 3.1480	 7.0400
 3.1500	 6.8770
 3.1520	 6.7380
 3.1540	 6.6030
 3.1560	 6.5620
 3.1580	 6.5670
 3.1600	 6.6900
 3.1620	 6.7560
 3.1640	 6.8950
 3.1660	 6.9600
 3.1680	 7.0610
 3.1700	 6.9330
 3.1710	 6.7250
 3.1730	 6.2210
 3.1750	 6.3950
 3.1770	 7.0030
 3.1790	 7.5640
 3.1810	 7.2710
 3.1830	 6.9240
 3.1850	 6.8250
 3.1870	 6.9890
 3.1890	 7.0130
 3.1910	 6.8140
 3.1930	 6.7150
 3.1950	 6.7430
 3.1970	 6.7660
 3.1990	 6.8860
 3.2010	 6.6840
 3.2030	 6.6340
 3.2050	 6.7220
 3.2070	 6.7890
 3.2090	 6.7410
 3.2110	 6.7310
 3.2130	 6.6890
 3.2150	 6.6890
 3.2170	 6.6590
 3.2190	 6.7100
 3.2210	 6.6690
 3.2230	 6.6440
 3.2250	 6.5660
 3.2270	 6.6530
 3.2290	 6.6450
 3.2310	 6.6560
 3.2330	 6.6220
 3.2350	 6.7010
 3.2370	 6.6200
 3.2390	 6.5570
 3.2410	 6.5670
 3.2430	 6.6160
 3.2450	 6.6460
 3.2470	 6.7330
 3.2490	 6.7520
 3.2510	 6.7470
 3.2530	 6.6400
 3.2550	 6.5590
 3.2570	 6.4820
 3.2590	 6.5170
 3.2610	 6.4660
 3.2630	 6.4670
 3.2650	 6.4960
 3.2670	 6.5140
 3.2690	 6.4700
 3.2720	 6.4940
 3.2740	 6.4980
 3.2760	 6.5260
 3.2780	 6.5340
 3.2800	 6.5230
 3.2820	 6.4500
 3.2840	 6.4900
 3.2860	 6.5020
 3.2880	 6.5300
 3.2900	 6.4580
 3.2920	 6.4180
 3.2940	 6.4350
 3.2960	 6.4730
 3.2990	 6.3780
 3.3010	 6.3750
 3.3030	 6.3420
 3.3050	 6.3410
 3.3070	 6.2840
 3.3090	 6.2410
 3.3110	 6.1840
 3.3130	 6.2340
 3.3150	 6.2050
 3.3180	 6.2230
 3.3200	 6.2800
 3.3220	 6.3040
 3.3240	 6.1930
 3.3260	 6.2310
 3.3280	 6.2520
 3.3300	 6.2550
 3.3330	 6.1730
 3.3350	 6.1690
 3.3370	 6.1600
 3.3390	 6.1610
 3.3410	 6.1330
 3.3430	 6.1470
 3.3450	 6.0370
 3.3480	 5.9210
 3.3500	 5.8050
 3.3520	 5.9200
 3.3540	 5.9840
 3.3560	 5.9100
 3.3580	 5.8020
 3.3610	 5.8950
 3.3630	 5.9270
 3.3650	 5.8830
 3.3670	 5.8470
 3.3690	 5.8740
 3.3720	 5.8710
 3.3740	 5.9210
 3.3760	 5.8650
 3.3780	 5.8780
 3.3800	 5.9290
 3.3830	 6.0190
 3.3850	 6.0100
 3.3870	 5.9680
 3.3890	 5.9620
 3.3910	 6.0040
 3.3940	 5.9570
 3.3960	 5.9810
 3.3980	 6.0410
 3.4000	 6.1680
 3.4020	 6.2910
 3.4050	 6.5470
 3.4070	 6.8830
 3.4090	 7.3540
 3.4110	 7.8360
 3.4140	 8.3740
 3.4160	 8.8870
 3.4180	 9.6530
 3.4200	10.5250
 3.4230	11.5980
 3.4250	12.8810
 3.4270	14.1740
 3.4290	14.7950
 3.4320	14.1990
 3.4340	12.7470
 3.4360	11.5770
 3.4390	10.8650
 3.4410	10.4610
 3.4430	10.2040
 3.4450	10.1020
 3.4480	 9.9590
 3.4500	 9.8240
 3.4520	 9.7190
 3.4550	 9.5490
 3.4570	 9.3750
 3.4590	 9.3380
 3.4620	 9.2780
 3.4640	 9.1730
 3.4660	 8.9930
 3.4680	 8.8570
 3.4710	 8.7290
 3.4730	 8.5630
 3.4750	 8.3490
 3.4780	 8.2780
 3.4800	 8.1860
 3.4820	 8.1080
 3.4850	 7.9580
 3.4870	 7.8790
 3.4890	 7.7720
 3.4920	 7.8150
 3.4940	 7.9160
 3.4970	 8.1400
 3.4990	 8.4020
 3.5010	 8.8530
 3.5040	 9.5390
 3.5060	10.6850
 3.5080	12.3420
 3.5110	13.7310
 3.5130	13.4080
 3.5160	12.1100
 3.5180	11.0750
 3.5200	10.5320
 3.5230	10.1740
 3.5250	 9.9420
 3.5270	 9.6810
 3.5300	 9.4380
 3.5320	 9.3250
 3.5350	 9.3060
 3.5370	 9.2080
 3.5400	 9.1510
 3.5420	 9.0030
 3.5440	 8.9110
 3.5470	 8.8180
 3.5490	 8.7660
 3.5520	 8.7070
 3.5540	 8.7380
 3.5570	 8.6890
 3.5590	 8.6720
 3.5610	 8.6480
 3.5640	 8.6230
 3.5660	 8.4420
 3.5690	 8.3930
 3.5710	 8.4100
 3.5740	 8.4160
 3.5760	 8.3850
 3.5790	 8.4380
 3.5810	 8.3460
 3.5840	 8.2830
 3.5860	 8.2210
 3.5890	 8.2150
 3.5910	 8.3890
 3.5930	 8.6250
 3.5960	 8.5770
 3.5980	 8.3970
 3.6010	 8.2010
 3.6030	 8.1440
 3.6060	 8.1500
 3.6080	 8.1900
 3.6110	 8.1770
 3.6140	 8.2240
 3.6160	 8.2080
 3.6190	 8.1710
 3.6210	 8.1390
 3.6240	 8.1200
 3.6260	 8.1000
 3.6290	 8.1800
 3.6310	 8.1260
 3.6340	 8.1000
 3.6360	 8.1180
 3.6390	 8.0570
 3.6410	 8.0240
 3.6440	 8.0930
 3.6470	 8.1280
 3.6490	 8.1300
 3.6520	 8.0670
 3.6540	 8.0670
 3.6570	 8.0780
 3.6590	 8.0680
 3.6620	 8.0210
 3.6650	 8.0610
 3.6670	 8.0260
 3.6700	 8.0440
 3.6720	 8.0380
 3.6750	 8.0400
 3.6780	 8.0300
 3.6800	 8.0620
 3.6830	 8.0790
 3.6850	 8.0390
 3.6880	 7.9950
 3.6910	 8.0270
 3.6930	 7.9630
 3.6960	 7.9230
 3.6990	 7.9830
 3.7010	 7.9940
 3.7040	 7.9340
 3.7060	 7.9540
 3.7090	 7.9940
 3.7120	 8.0090
 3.7140	 7.9710
 3.7170	 7.9430
 3.7200	 7.9730
 3.7220	 8.0020
 3.7250	 7.9310
 3.7280	 7.9970
 3.7300	 8.0530
 3.7330	 8.0710
 3.7360	 7.9690
 3.7390	 7.9410
 3.7410	 8.0000
 3.7440	 7.9890
 3.7470	 7.9480
 3.7490	 7.9780
 3.7520	 7.9180
 3.7550	 7.9450
 3.7580	 7.9610
 3.7600	 7.9950
 3.7630	 8.0060
 3.7660	 8.0100
 3.7680	 7.9520
 3.7710	 7.9310
 3.7740	 7.8860
 3.7770	 7.9280
 3.7790	 7.9410
 3.7820	 7.9480
 3.7850	 7.9270
 3.7880	 7.9330
 3.7900	 7.9610
 3.7930	 7.9710
 3.7960	 7.9400
 3.7990	 7.9670
 3.8020	 7.9580
 3.8040	 7.9540
 3.8070	 7.9250
 3.8100	 7.9810
 3.8130	 8.0310
 3.8160	 8.0340
 3.8180	 8.0130
 3.8210	 8.0110
 3.8240	 7.9300
 3.8270	 7.9140
 3.8300	 7.9550
 3.8330	 7.9940
 3.8350	 7.9610
 3.8380	 7.9860
 3.8410	 7.9820
 3.8440	 8.0070
 3.8470	 8.0260
 3.8500	 8.0850
 3.8520	 8.0610
 3.8550	 8.0350
 3.8580	 7.9980
 3.8610	 8.0370
 3.8640	 8.0910
 3.8670	 8.1240
 3.8700	 8.0720
 3.8730	 8.0420
 3.8750	 8.0230
 3.8780	 8.0210
 3.8810	 8.0130
 3.8840	 8.0250
 3.8870	 8.0390
 3.8900	 8.0720
 3.8930	 7.9990
 3.8960	 7.9300
 3.8990	 7.9270
 3.9020	 7.9810
 3.9050	 7.9940
 3.9080	 7.9500
 3.9110	 7.9800
 3.9140	 8.0500
 3.9160	 8.0450
 3.9190	 8.0100
 3.9220	 7.9750
 3.9250	 7.9850
 3.9280	 8.0070
 3.9310	 7.9970
 3.9340	 7.9310
 3.9370	 8.0460
 3.9400	 8.0500
 3.9430	 7.9760
 3.9460	 7.9300
 3.9490	 7.9530
 3.9520	 7.9890
 3.9550	 8.0420
 3.9580	 8.0390
 3.9610	 8.0280
 3.9640	 7.9880
 3.9670	 8.0210
 3.9700	 8.0430
 3.9730	 8.0620
 3.9770	 8.1120
 3.9800	 8.1110
 3.9830	 8.0320
 3.9860	 8.0340
 3.9890	 8.0310
 3.9920	 8.0490
 3.9950	 8.0140
 3.9980	 8.0320
 4.0010	 8.0430
 4.0040	 8.0450
 4.0070	 8.0200
 4.0100	 8.0920
 4.0130	 8.1270
 4.0170	 8.1290
 4.0200	 8.0660
 4.0230	 8.0150
 4.0260	 8.0210
 4.0290	 8.0720
 4.0320	 8.0440
 4.0350	 8.0320
 4.0380	 8.0510
 4.0420	 8.0920
 4.0450	 8.1160
 4.0480	 8.1310
 4.0510	 8.1130
 4.0540	 8.1160
 4.0570	 8.0900
 4.0610	 8.0900
 4.0640	 8.0520
 4.0670	 8.0360
 4.0700	 8.0360
 4.0730	 8.0090
 4.0770	 8.0000
 4.0800	 8.0320
 4.0830	 7.9980
 4.0860	 7.9380
 4.0890	 7.9680
 4.0930	 8.0560
 4.0960	 8.0810
 4.0990	 8.0780
 4.1020	 8.0850
 4.1060	 8.0700
 4.1090	 8.0230
 4.1120	 8.0400
 4.1150	 8.0490
 4.1190	 8.0790
 4.1220	 8.0330
 4.1250	 8.0130
 4.1280	 8.0530
 4.1320	 8.1110
 4.1350	 8.0880
 4.1380	 8.0720
 4.1420	 8.0400
 4.1450	 8.0130
 4.1480	 7.9900
 4.1520	 8.0300
 4.1550	 8.0420
 4.1580	 8.0040
 4.1620	 7.9640
 4.1650	 7.9930
 4.1680	 8.0430
 4.1720	 8.0830
 4.1750	 8.0710
 4.1780	 8.0440
 4.1820	 8.0550
 4.1850	 8.0530
 4.1890	 8.0440
 4.1920	 8.1040
 4.1950	 8.1970
 4.1990	 8.2580
 4.2020	 8.3730
 4.2060	 8.5960
 4.2090	 8.7830
 4.2120	 9.0110
 4.2160	 9.1040
 4.2190	 9.3210
 4.2230	 9.7130
 4.2260	 9.9060
 4.2300	10.0440
 4.2330	10.1310
 4.2360	 9.9640
 4.2400	 9.8990
 4.2430	 9.7820
 4.2470	 9.7520
 4.2500	 9.5720
 4.2540	 9.3230
 4.2570	 9.1980
 4.2610	 9.3510
 4.2640	 9.5490
 4.2680	 9.6230
 4.2710	 9.6100
 4.2750	 9.5620
 4.2780	 9.5030
 4.2820	 9.4540
 4.2850	 9.2300
 4.2890	 9.1980
 4.2930	 9.2210
 4.2960	 9.1980
 4.3000	 9.2370
 4.3030	 9.2460
 4.3070	 9.1710
 4.3100	 9.1240
 4.3140	 8.9050
 4.3180	 8.6570
 4.3210	 8.5920
 4.3250	 8.5720
 4.3280	 8.4930
 4.3320	 8.4400
 4.3360	 8.4150
 4.3390	 8.3630
 4.3430	 8.3220
 4.3470	 8.3400
 4.3500	 8.3100
 4.3540	 8.2520
 4.3570	 8.1720
 4.3610	 8.1390
 4.3650	 8.1250
 4.3680	 8.1260
 4.3720	 8.1120
 4.3760	 8.0480
 4.3800	 7.9760
 4.3830	 7.9540
 4.3870	 7.9520
 4.3910	 8.0430
 4.3940	 8.0570
 4.3980	 8.0240
 4.4020	 7.9810
 4.4060	 8.0120
 4.4090	 8.0370
 4.4130	 7.9870
 4.4170	 7.9830
 4.4210	 7.9370
 4.4240	 7.9140
 4.4280	 7.9680
 4.4320	 7.9460
 4.4360	 7.8820
 4.4400	 7.8820
 4.4430	 7.9110
 4.4470	 7.9000
 4.4510	 7.9060
 4.4550	 7.9090
 4.4590	 7.8860
 4.4620	 7.9170
 4.4660	 7.9720
 4.4700	 7.9360
 4.4740	 7.9440
 4.4780	 7.9790
 4.4820	 7.9200
 4.4860	 7.8740
 4.4900	 7.8990
 4.4930	 7.9260
 4.4970	 7.8760
 4.5010	 7.8420
 4.5050	 7.8920
 4.5090	 7.8980
 4.5130	 7.8750
 4.5170	 7.8750
 4.5210	 7.9080
 4.5250	 7.9390
 4.5290	 7.9150
 4.5330	 7.8660
 4.5370	 7.8460
 4.5410	 7.8560
 4.5450	 7.8490
 4.5490	 7.8730
 4.5530	 7.8890
 4.5570	 7.8340
 4.5610	 7.8130
 4.5650	 7.8640
 4.5690	 7.9180
 4.5730	 7.9360
 4.5770	 7.8860
 4.5810	 7.8140
 4.5850	 7.7560
 4.5890	 7.7660
 4.5930	 7.8030
 4.5970	 7.8550
 4.6010	 7.8880
 4.6050	 7.8580
 4.6090	 7.7660
 4.6130	 7.7880
 4.6170	 7.7990
 4.6220	 7.7770
 4.6260	 7.8020
 4.6300	 7.8350
 4.6340	 7.8250
 4.6380	 7.7960
 4.6420	 7.7890
 4.6460	 7.7660
 4.6510	 7.7010
 4.6550	 7.6850
 4.6590	 7.7410
 4.6630	 7.7810
 4.6670	 7.7620
 4.6720	 7.7530
 4.6760	 7.7570
 4.6800	 7.7300
 4.6840	 7.7410
 4.6880	 7.7640
 4.6930	 7.7440
 4.6970	 7.7780
 4.7010	 7.7680
 4.7050	 7.7560
 4.7100	 7.7920
 4.7140	 7.7610
 4.7180	 7.7370
 4.7230	 7.7440
 4.7270	 7.7590
 4.7310	 7.7700
 4.7360	 7.7850
 4.7400	 7.7820
 4.7440	 7.7280
 4.7490	 7.7460
 4.7530	 7.7590
 4.7570	 7.7340
 4.7620	 7.7150
 4.7660	 7.7320
 4.7700	 7.7590
 4.7750	 7.8300
 4.7790	 7.8060
 4.7840	 7.7840
 4.7880	 7.7910
 4.7920	 7.7870
 4.7970	 7.7100
 4.8010	 7.6500
 4.8060	 7.6260
 4.8100	 7.6300
 4.8150	 7.6840
 4.8190	 7.6920
 4.8240	 7.6940
 4.8280	 7.7040
 4.8330	 7.6570
 4.8370	 7.6290
 4.8420	 7.7050
 4.8460	 7.7150
 4.8510	 7.6680
 4.8550	 7.7000
 4.8600	 7.7470
 4.8640	 7.7430
 4.8690	 7.7250
 4.8730	 7.7200
 4.8780	 7.7330
 4.8830	 7.7300
 4.8870	 7.6810
 4.8920	 7.6820
 4.8960	 7.6880
 4.9010	 7.6590
 4.9060	 7.6460
 4.9100	 7.6610
 4.9150	 7.6680
 4.9200	 7.6850
 4.9240	 7.6790
 4.9290	 7.7180
 4.9340	 7.7500
 4.9380	 7.7430
 4.9430	 7.7200
 4.9480	 7.6750
 4.9530	 7.6370
 4.9570	 7.6580
 4.9620	 7.6030
 4.9670	 7.6550
 4.9720	 7.7490
 4.9760	 7.6980
 4.9810	 7.6810
 4.9860	 7.6690
 4.9910	 7.6490
 4.9960	 7.6940
 5.0000	 7.6770
 5.0050	 7.6850
 5.0100	 7.7030
 5.0150	 7.6960
 5.0200	 7.6720
 5.0250	 7.6930
 5.0290	 7.7270
 5.0340	 7.7460
 5.0390	 7.7450
 5.0440	 7.7530
 5.0490	 7.7080
 5.0540	 7.6570
 5.0590	 7.6270
 5.0640	 7.6460
 5.0690	 7.6250
 5.0740	 7.6630
 5.0790	 7.6940
 5.0840	 7.6830
 5.0890	 7.6200
 5.0940	 7.6300
 5.0990	 7.6600
 5.1040	 7.6290
 5.1090	 7.5970
 5.1140	 7.6240
 5.1190	 7.6430
 5.1240	 7.7000
 5.1290	 7.6940
 5.1340	 7.6680
 5.1390	 7.6630
 5.1440	 7.6810
 5.1490	 7.6060
 5.1540	 7.5350
 5.1600	 7.5510
 5.1650	 7.6400
 5.1700	 7.6830
 5.1750	 7.7240
 5.1800	 7.7000
 5.1850	 7.6610
 5.1910	 7.6640
 5.1960	 7.6460
 5.2010	 7.5540
 5.2060	 7.5430
 5.2110	 7.5630
 5.2170	 7.6140
 5.2220	 7.5710
 5.2270	 7.5340
 5.2320	 7.5330
 5.2380	 7.5710
 5.2430	 7.5750
 5.2480	 7.6110
 5.2540	 7.5680
 5.2590	 7.5490
 5.2640	 7.5210
 5.2700	 7.5600
 5.2750	 7.5840
 5.2800	 7.5620
 5.2860	 7.5260
 5.2910	 7.5540
 5.2970	 7.5720
 5.3020	 7.5940
 5.3070	 7.5350
 5.3130	 7.5150
 5.3180	 7.4800
 5.3240	 7.4420
 5.3290	 7.4840
 5.3350	 7.5490
 5.3400	 7.5110
 5.3460	 7.4930
 5.3510	 7.4680
 5.3570	 7.4990
 5.3620	 7.4650
 5.3680	 7.4310
 5.3730	 7.4110
 5.3790	 7.4450
 5.3850	 7.4300
 5.3900	 7.4140
 5.3960	 7.3560
 5.4010	 7.3940
 5.4070	 7.4030
 5.4130	 7.4200
 5.4180	 7.3980
 5.4240	 7.3760
 5.4300	 7.3120
 5.4350	 7.3110
 5.4410	 7.3220
 5.4470	 7.3590
 5.4530	 7.3240
 5.4580	 7.3220
 5.4640	 7.3220
 5.4700	 7.3140
 5.4760	 7.2950
 5.4810	 7.3030
 5.4870	 7.2440
 5.4930	 7.2070
 5.4990	 7.1780
 5.5050	 7.1520
 5.5110	 7.1310
 5.5160	 7.1510
 5.5220	 7.1420
 5.5280	 7.1390
 5.5340	 7.0550
 5.5400	 7.0680
 5.5460	 7.0740
 5.5520	 7.0730
 5.5580	 7.0210
 5.5640	 7.0380
 5.5700	 7.0030
 5.5760	 6.9910
 5.5820	 7.0330
 5.5880	 7.0230
 5.5940	 6.8500
 5.6000	 6.8530
 5.6060	 6.8500
 5.6120	 6.7860
 5.6180	 6.7370
 5.6240	 6.6930
 5.6300	 6.6610
 5.6360	 6.6910
 5.6420	 6.6350
 5.6490	 6.5570
 5.6550	 6.5080
 5.6610	 6.5240
 5.6670	 6.4510
 5.6730	 6.3630
 5.6800	 6.2220
 5.6860	 6.1590
 5.6920	 6.1060
 5.6980	 6.0230
 5.7040	 5.8950
 5.7110	 5.9110
 5.7170	 5.8130
 5.7230	 5.6980
 5.7300	 5.6220
 5.7360	 5.8080
 5.7420	 6.0480
 5.7490	 6.3790
 5.7550	 6.8130
 5.7620	 7.3890
 5.7680	 7.8810
 5.7740	 8.2640
 5.7810	 8.5370
 5.7870	 8.7530
 5.7940	 8.8640
 5.8000	 9.0000
 5.8070	 9.0410
 5.8130	 9.0430
 5.8200	 9.0510
 5.8260	 9.1190
 5.8330	 9.1120
 5.8390	 9.1020
 5.8460	 9.0410
 5.8530	 9.0170
 5.8590	 8.9910
 5.8660	 8.9650
 5.8720	 8.8780
 5.8790	 8.9350
 5.8860	 8.8820
 5.8920	 8.7840
 5.8990	 8.6560
 5.9060	 8.5110
 5.9130	 8.3770
 5.9190	 8.3090
 5.9260	 8.2030
 5.9330	 8.2150
 5.9400	 8.0310
 5.9470	 7.8490
 5.9530	 7.7370
 5.9600	 7.6280
 5.9670	 7.5550
 5.9740	 7.5210
 5.9810	 7.4120
 5.9880	 7.3840
 5.9950	 7.1850
 6.0020	 7.0910
 6.0090	 7.1040
 6.0160	 7.0880
 6.0230	 6.9480
 6.0300	 6.9450
 6.0370	 6.9560
 6.0440	 7.0390
 6.0510	 7.0660
 6.0580	 6.9910
 6.0650	 6.8820
 6.0720	 6.8880
 6.0790	 6.7850
 6.0860	 6.6920
 6.0930	 6.5920
 6.1000	 6.6570
 6.1080	 6.7340
 6.1150	 6.7490
 6.1220	 6.6320
 6.1290	 6.7060
 6.1370	 6.7730
 6.1440	 6.8100
 6.1510	 6.8030
 6.1580	 6.8770
 6.1660	 6.8480
 6.1730	 6.8420
 6.1800	 6.8020
 6.1880	 6.8830
 6.1950	 6.8560
 6.2030	 6.8820
 6.2100	 6.8740
 6.2170	 6.8610
 6.2250	 6.8500
 6.2320	 6.9080
 6.2400	 6.8670
 6.2470	 6.8830
 6.2550	 6.9060
 6.2630	 6.8930
 6.2700	 6.8470
 6.2780	 6.9190
 6.2850	 6.9600
 6.2930	 7.0890
 6.3010	 7.0600
 6.3080	 7.0960
 6.3160	 7.1150
 6.3240	 7.1280
 6.3310	 7.0540
 6.3390	 7.1280
 6.3470	 7.1150
 6.3550	 7.0890
 6.3620	 7.0600
 6.3700	 7.2240
 6.3780	 7.2760
 6.3860	 7.2240
 6.3940	 7.1100
 6.4020	 7.1540
 6.4100	 7.2600
 6.4180	 7.3420
 6.4260	 7.2050
 6.4330	 7.1810
 6.4410	 7.1160
 6.4490	 7.1310
 6.4580	 7.1260
 6.4660	 7.2010
 6.4740	 7.2000
 6.4820	 7.2700
 6.4900	 7.3310
 6.4980	 7.2920
 6.5060	 7.1050
 6.5140	 7.1390
 6.5230	 7.1060
 6.5310	 7.1350
 6.5390	 7.1160
 6.5470	 7.1360
 6.5550	 7.1370
 6.5640	 7.1140
 6.5720	 7.0500
 6.5800	 7.0900
 6.5890	 7.2360
 6.5970	 7.4730
 6.6060	 7.4890
 6.6140	 7.5140
 6.6220	 7.4780
 6.6310	 7.5220
 6.6390	 7.4750
 6.6480	 7.3740
 6.6560	 7.2690
 6.6650	 7.2640
 6.6740	 7.2330
 6.6820	 7.1630
 6.6910	 7.0140
 6.6990	 7.0170
 6.7080	 6.9640
 6.7170	 6.9990
 6.7260	 6.9210
 6.7340	 6.8410
 6.7430	 6.7490
 6.7520	 6.7710
 6.7610	 6.7040
 6.7690	 6.6910
 6.7780	 6.8240
 6.7870	 7.2870
 6.7960	 7.2890
 6.8050	 7.1590
 6.8140	 7.1980
 6.8230	 7.5030
 6.8320	 7.8840
 6.8410	 8.2080
 6.8500	 8.0590
 6.8590	 7.8940
 6.8680	 7.8340
 6.8770	 7.8200
 6.8860	 7.6900
 6.8950	 7.6910
 6.9050	 7.6430
 6.9140	 7.6010
 6.9230	 7.5210
 6.9320	 7.5500
 6.9420	 7.4670
 6.9510	 7.5080
 6.9600	 7.4980
 6.9700	 7.5210
 6.9790	 7.4540
 6.9880	 7.3980
 6.9980	 7.3470
 7.0070	 7.3530
 7.0170	 7.1990
 7.0260	 7.1250
 7.0360	 7.0450
 7.0450	 7.1450
 7.0550	 7.1040
 7.0650	 7.1710
 7.0740	 7.2160
 7.0840	 7.2950
 7.0940	 7.2110
 7.1030	 7.1880
 7.1130	 7.0850
 7.1230	 7.1050
 7.1330	 7.0120
 7.1420	 7.0440
 7.1520	 7.0610
 7.1620	 7.1320
 7.1720	 7.1390
 7.1820	 7.1970
 7.1920	 7.0640
 7.2020	 7.0850
 7.2120	 7.1000
 7.2220	 7.1500
 7.2320	 6.9960
 7.2420	 6.9590
 7.2520	 7.0310
 7.2620	 7.2280
 7.2730	 7.1840
 7.2830	 7.1420
 7.2930	 7.1000
 7.3030	 7.1740
 7.3140	 7.1470
 7.3240	 7.1730
 7.3340	 7.0770
 7.3450	 7.0400
 7.3550	 6.9670
 7.3660	 7.0650
 7.3760	 7.0900
 7.3870	 7.0490
 7.3970	 6.9220
 7.4080	 7.0110
 7.4180	 6.9710
 7.4290	 6.9660
 7.4400	 6.9320
 7.4500	 6.9390
 7.4610	 6.8550
 7.4720	 6.9500
 7.4830	 6.9490
 7.4930	 6.9270
 7.5040	 6.7470
 7.5150	 6.7970
 7.5260	 6.7810
 7.5370	 6.7900
 7.5480	 6.7830
 7.5590	 6.9170
 7.5700	 6.8070
 7.5810	 6.7600
 7.5920	 6.7630
 7.6030	 6.9100
 7.6140	 6.8790
 7.6260	 6.9390
 7.6370	 6.8610
 7.6480	 6.8550
 7.6590	 6.7870
 7.6710	 6.8910
 7.6820	 6.8910
 7.6930	 6.9540
 7.7050	 6.8420
 7.7160	 6.9000
 7.7280	 6.8460
 7.7390	 6.8830
 7.7510	 6.9290
 7.7630	 7.0380
 7.7740	 6.9340
 7.7860	 6.8410
 7.7980	 6.7590
 7.8090	 6.9180
 7.8210	 6.9190
 7.8330	 6.9570
 7.8450	 6.8950
 7.8570	 6.9210
 7.8690	 6.8950
 7.8810	 7.0500
 7.8930	 7.0240
 7.9050	 7.0140
 7.9170	 6.8720
 7.9290	 6.9280
 7.9410	 6.9200
 7.9530	 7.0580
 7.9650	 7.0610
 7.9780	 7.1420
 7.9900	 7.0560
 8.0020	 7.0660
 8.0150	 7.0180
 8.0270	 7.1870
 8.0390	 7.1230
 8.0520	 7.2530
 8.0640	 7.2360
 8.0770	 7.2980
 8.0900	 7.1850
 8.1020	 7.2360
 8.1150	 7.2760
 8.1280	 7.4610
 8.1400	 7.3790
 8.1530	 7.3970
 8.1660	 7.4160
 8.1790	 7.5770
 8.1920	 7.4650
 8.2050	 7.6020
 8.2180	 7.5510
 8.2310	 7.5920
 8.2440	 7.4980
 8.2570	 7.6370
 8.2700	 7.6560
 8.2830	 7.7630
 8.2970	 7.6690
 8.3100	 7.8460
 8.3230	 7.8410
 8.3370	 7.9240
 8.3500	 7.8930
 8.3640	 7.9890
 8.3770	 7.9790
 8.3910	 8.2290
 8.4040	 8.2270
 8.4180	 8.2970
 8.4320	 8.2190
 8.4450	 8.4120
 8.4590	 8.5220
 8.4730	 8.7260
 8.4870	 8.6930
 8.5010	 8.8290
 8.5150	 8.7640
 8.5290	 8.7940
 8.5430	 8.6970
 8.5570	 8.6740
 8.5710	 8.3690
 8.5850	 8.3430
 8.5990	 8.1590
 8.6140	 8.1110
 8.6280	 7.9400
 8.6420	 7.9110
 8.6570	 7.7130
 8.6710	 7.7660
 8.6860	 7.6350
 8.7000	 7.6590
 8.7150	 7.5650
 8.7300	 7.6840
 8.7440	 7.5750
 8.7590	 7.6200
 8.7740	 7.5180
 8.7890	 7.5800
 8.8040	 7.4080
 8.8190	 7.5070
 8.8340	 7.4480
 8.8490	 7.4920
 8.8640	 7.2570
 8.8790	 7.2730
 8.8940	 7.0230
 8.9100	 6.9820
 8.9250	 6.6620
 8.9400	 6.6160
 8.9560	 6.4110
 8.9710	 6.2980
 8.9870	 5.9900
 9.0020	 5.9190
 9.0180	 5.7690
 9.0340	 5.8800
 9.0500	 5.7710
 9.0650	 5.9000
 9.0810	 5.8070
 9.0970	 5.9240
 9.1130	 5.9290
 9.1290	 6.1290
 9.1450	 6.0610
 9.1610	 6.1510
 9.1780	 6.0270
 9.1940	 6.1130
 9.2100	 5.9930
 9.2270	 6.0080
 9.2430	 5.7820
 9.2600	 5.7760
 9.2760	 5.6500
 9.2930	 5.6320
 9.3090	 5.2520
 9.3260	 5.2300
 9.3430	 5.0580
 9.3600	 5.1700
 9.3770	 4.9380
 9.3940	 4.9470
 9.4110	 4.7860
 9.4280	 4.9240
 9.4450	 4.9530
 9.4620	 5.0940
 9.4800	 4.8670
 9.4970	 4.9370
 9.5140	 4.9110
 9.5320	 5.1230
 9.5500	 5.0990
 9.5670	 5.2760
 9.5850	 5.0340
 9.6030	 5.0940
 9.6200	 4.8960
 9.6380	 4.8850
 9.6560	 4.6190
 9.6740	 4.7420
 9.6920	 4.7450
 9.7100	 4.9130
 9.7290	 4.8650
 9.7470	 5.0280
 9.7650	 4.9490
 9.7840	 5.0320
 9.8020	 4.9000
 9.8210	 4.8790
 9.8390	 4.7400
 9.8580	 5.0620
 9.8770	 5.0540
 9.8960	 5.1410
 9.9150	 5.0500
 9.9340	 5.3270
 9.9530	 5.4210
 9.9720	 5.6880
 9.9910	 5.6760
10.0100	 5.8690
10.0300	 5.7480
10.0490	 5.8100
10.0690	 5.7320
10.0880	 5.8750
10.1080	 5.7800
10.1280	 6.0040
10.1480	 5.9320
10.1670	 6.0350
10.1870	 5.9280
10.2070	 5.9400
10.2280	 5.9020
10.2480	 6.0610
10.2680	 5.9320
10.2890	 6.0580
10.3090	 5.8040
10.3300	 5.8400
10.3500	 5.6970
10.3710	 5.8410
10.3920	 5.7040
10.4120	 5.7090
10.4330	 5.5740
10.4540	 5.6860
10.4760	 5.5830
10.4970	 5.7680
10.5180	 5.8370
10.5390	 6.0970
10.5610	 6.0310
10.5820	 6.2350
10.6040	 6.1480
10.6260	 6.0620
10.6480	 5.8510
10.6700	 6.0140
10.6920	 5.9760
10.7140	 6.1770
10.7360	 6.0430
10.7580	 5.9850
10.7800	 5.6890
10.8030	 5.7530
10.8250	 5.6770
10.8480	 5.8040
10.8710	 5.6740
10.8940	 5.7490
10.9170	 5.5280
10.9400	 5.6800
10.9630	 5.5660
10.9860	 5.6340
11.0090	 5.5220
11.0330	 5.5500
11.0560	 5.3510
11.0800	 5.4650
11.1040	 5.3630
11.1270	 5.5000
11.1510	 5.1770
11.1750	 5.1890
11.2000	 5.0500
11.2240	 5.1490
11.2480	 4.8870
11.2730	 5.2470
11.2970	 5.6090
11.3220	 5.5780
11.3470	 5.0610
11.3720	 5.0730
11.3970	 4.8120
11.4220	 4.9080
11.4470	 4.7800
11.4720	 4.8540
11.4980	 4.6720
11.5230	 4.6920
11.5490	 4.4240
11.5750	 4.5720
11.6000	 4.3850
11.6260	 4.4750
11.6530	 4.2670
11.6790	 4.4080
11.7050	 4.2130
11.7320	 4.3460
11.7580	 4.3070
11.7850	 4.4010
11.8120	 4.0330
11.8390	 4.0210
11.8660	 3.8240
11.8930	 3.9850
11.9200	 3.7910
11.9480	 3.9270
11.9760	 3.8170
12.0030	 4.0610
12.0310	 3.8630
12.0590	 3.9790
12.0870	 3.7950
12.1150	 3.8670
12.1440	 3.6860
12.1720	 3.8850
12.2010	 3.7730
12.2300	 4.0080
12.2590	 3.7040
12.2880	 3.7600
12.3170	 3.4850
12.3460	 3.6170
12.3760	 3.3870
12.4050	 3.6210
12.4350	 3.3720
12.4650	 3.5280
12.4950	 3.1860
12.5250	 3.3180
12.5550	 3.2820
12.5860	 3.5680
12.6170	 3.2700
12.6470	 3.3550
12.6780	 3.0690
12.7090	 3.1050
12.7410	 2.8140
12.7720	 3.2000
12.8030	 3.0740
12.8350	 3.2030
12.8670	 2.9510
12.8990	 3.2320
12.9310	 3.0150
12.9640	 3.2010
12.9960	 3.0680
13.0290	 3.3860
13.0610	 3.0840
13.0940	 3.1480
13.1280	 2.9510
13.1610	 3.1520
13.1940	 2.7770
13.2280	 2.9000
13.2620	 2.7660
13.2960	 3.1030
13.3300	 2.8090
13.3640	 3.0440
13.3990	 2.7940
13.4340	 3.1960
13.4690	 2.9780
13.5040	 3.1830
13.5390	 3.0060
13.5740	 3.2840
13.6100	 2.9860
13.6460	 3.2990
13.6820	 3.2640
13.7180	 3.5720
13.7540	 3.0460
13.7910	 3.2720
13.8280	 3.1590
13.8650	 3.5770
13.9020	 3.3220
13.9390	 3.5860
13.9770	 3.3090
14.0150	 3.6160
14.0530	 3.3620
14.0910	 3.6120
14.1290	 3.1860
14.1680	 3.5700
14.2070	 3.2450
14.2460	 3.4640
14.2850	 3.0750
14.3240	 3.4750
14.3640	 3.3440
14.4040	 3.9110
14.4440	 3.4870
14.4840	 3.8020
14.5250	 3.4200
14.5660	 3.9270
14.6070	 3.5150
14.6480	 4.1920
14.6900	 3.8640
14.7310	 4.0820
14.7730	 3.6060
14.8150	 4.2950
14.8580	 3.7200
14.9010	 4.3200
14.9440	 4.2440
14.9870	 4.6940
15.0300	 3.8710
15.0740	 4.3030
15.1180	 3.6110
15.1620	 4.5470
15.2060	 4.1060
15.2510	 4.4050
15.2960	 4.1930
15.3410	 5.1080
15.3870	 4.1910
