Name: Podocarpus gracilior
Type: vegetation
Class: Tree
Genus: Podocarpus
Species: gracilior
Sample No.: JPL188
Owner: JPL
Wavelength Range: VSWIR
Origin: 34.12605; -118.11517; WGS84
Collection Date: 10/3/2016
Description: Samples were collected at the Huntington Garden in San Marino California as part of a JPL Subcontract studying HyTES imagery. Samples were taken to JPL and processed within 48 hours of collection. The same leaves were processed in the Nicolet and then measured using the ASD.
Measurement: Bidirectional reflectance
First Column: X
Second Column: Y
X Units: Wavelength (micrometer)
Y Units: Reflectance (percentage)
First X Value: 0.35
Last X Value: 2.5
Number of X Values: 2151
Additional Information: vegetation.tree.podocarpus.gracilior.vswir.jpl188.jpl.asd.ancillary.txt

 0.3500	10.2320
 0.3510	10.2070
 0.3520	10.1040
 0.3530	 9.9710
 0.3540	 9.8850
 0.3550	 9.9290
 0.3560	 9.9340
 0.3570	 9.9070
 0.3580	 9.9350
 0.3590	 9.8990
 0.3600	 9.8320
 0.3610	 9.7890
 0.3620	 9.8380
 0.3630	 9.8580
 0.3640	 9.8540
 0.3650	 9.8490
 0.3660	 9.7930
 0.3670	 9.7710
 0.3680	 9.7740
 0.3690	 9.7360
 0.3700	 9.7630
 0.3710	 9.7850
 0.3720	 9.7570
 0.3730	 9.7160
 0.3740	 9.7200
 0.3750	 9.7480
 0.3760	 9.7560
 0.3770	 9.7260
 0.3780	 9.6990
 0.3790	 9.7120
 0.3800	 9.7840
 0.3810	 9.7700
 0.3820	 9.7300
 0.3830	 9.7290
 0.3840	 9.7790
 0.3850	 9.8160
 0.3860	 9.8070
 0.3870	 9.7560
 0.3880	 9.8150
 0.3890	 9.8490
 0.3900	 9.8310
 0.3910	 9.8550
 0.3920	 9.8670
 0.3930	 9.8580
 0.3940	 9.8420
 0.3950	 9.8730
 0.3960	 9.9080
 0.3970	 9.9250
 0.3980	 9.9150
 0.3990	 9.9230
 0.4000	 9.9400
 0.4010	 9.9570
 0.4020	 9.9700
 0.4030	 9.9740
 0.4040	 9.9770
 0.4050	 9.9980
 0.4060	10.0700
 0.4070	10.1070
 0.4080	10.1060
 0.4090	10.1200
 0.4100	10.1350
 0.4110	10.1550
 0.4120	10.1790
 0.4130	10.1990
 0.4140	10.2150
 0.4150	10.2290
 0.4160	10.2410
 0.4170	10.2500
 0.4180	10.2580
 0.4190	10.2660
 0.4200	10.2710
 0.4210	10.2880
 0.4220	10.2990
 0.4230	10.2950
 0.4240	10.2980
 0.4250	10.3050
 0.4260	10.3110
 0.4270	10.3060
 0.4280	10.3120
 0.4290	10.3120
 0.4300	10.2960
 0.4310	10.2580
 0.4320	10.2440
 0.4330	10.2420
 0.4340	10.2310
 0.4350	10.2150
 0.4360	10.2130
 0.4370	10.2260
 0.4380	10.2370
 0.4390	10.2450
 0.4400	10.2640
 0.4410	10.2950
 0.4420	10.3140
 0.4430	10.3240
 0.4440	10.3310
 0.4450	10.3410
 0.4460	10.3380
 0.4470	10.3470
 0.4480	10.3670
 0.4490	10.3720
 0.4500	10.3780
 0.4510	10.3860
 0.4520	10.3950
 0.4530	10.4080
 0.4540	10.4120
 0.4550	10.4100
 0.4560	10.4170
 0.4570	10.4200
 0.4580	10.4260
 0.4590	10.4340
 0.4600	10.4250
 0.4610	10.4280
 0.4620	10.4370
 0.4630	10.4390
 0.4640	10.4400
 0.4650	10.4360
 0.4660	10.4320
 0.4670	10.4390
 0.4680	10.4400
 0.4690	10.4380
 0.4700	10.4380
 0.4710	10.4360
 0.4720	10.4380
 0.4730	10.4450
 0.4740	10.4510
 0.4750	10.4440
 0.4760	10.4400
 0.4770	10.4470
 0.4780	10.4480
 0.4790	10.4460
 0.4800	10.4420
 0.4810	10.4370
 0.4820	10.4370
 0.4830	10.4350
 0.4840	10.4280
 0.4850	10.4200
 0.4860	10.4170
 0.4870	10.4180
 0.4880	10.4230
 0.4890	10.4320
 0.4900	10.4460
 0.4910	10.4660
 0.4920	10.4910
 0.4930	10.5170
 0.4940	10.5440
 0.4950	10.5760
 0.4960	10.6150
 0.4970	10.6560
 0.4980	10.6990
 0.4990	10.7500
 0.5000	10.8040
 0.5010	10.8640
 0.5020	10.9320
 0.5030	11.0120
 0.5040	11.0960
 0.5050	11.1900
 0.5060	11.3000
 0.5070	11.4160
 0.5080	11.5410
 0.5090	11.6790
 0.5100	11.8320
 0.5110	12.0010
 0.5120	12.1870
 0.5130	12.3860
 0.5140	12.5920
 0.5150	12.8120
 0.5160	13.0440
 0.5170	13.2860
 0.5180	13.5320
 0.5190	13.7850
 0.5200	14.0440
 0.5210	14.2990
 0.5220	14.5470
 0.5230	14.7860
 0.5240	15.0140
 0.5250	15.2330
 0.5260	15.4420
 0.5270	15.6340
 0.5280	15.8020
 0.5290	15.9630
 0.5300	16.1080
 0.5310	16.2340
 0.5320	16.3430
 0.5330	16.4380
 0.5340	16.5210
 0.5350	16.5890
 0.5360	16.6460
 0.5370	16.6890
 0.5380	16.7150
 0.5390	16.7250
 0.5400	16.7190
 0.5410	16.6990
 0.5420	16.6730
 0.5430	16.6600
 0.5440	16.6620
 0.5450	16.6830
 0.5460	16.7230
 0.5470	16.7720
 0.5480	16.8180
 0.5490	16.8510
 0.5500	16.8730
 0.5510	16.8880
 0.5520	16.8950
 0.5530	16.8910
 0.5540	16.8750
 0.5550	16.8470
 0.5560	16.8020
 0.5570	16.7380
 0.5580	16.6600
 0.5590	16.5690
 0.5600	16.4630
 0.5610	16.3410
 0.5620	16.2090
 0.5630	16.0710
 0.5640	15.9300
 0.5650	15.7820
 0.5660	15.6310
 0.5670	15.4760
 0.5680	15.3140
 0.5690	15.1540
 0.5700	14.9980
 0.5710	14.8450
 0.5720	14.7020
 0.5730	14.5640
 0.5740	14.4340
 0.5750	14.3120
 0.5760	14.2010
 0.5770	14.0970
 0.5780	13.9970
 0.5790	13.8970
 0.5800	13.8030
 0.5810	13.7160
 0.5820	13.6350
 0.5830	13.5630
 0.5840	13.4980
 0.5850	13.4390
 0.5860	13.3790
 0.5870	13.3170
 0.5880	13.2580
 0.5890	13.2070
 0.5900	13.1570
 0.5910	13.1100
 0.5920	13.0660
 0.5930	13.0300
 0.5940	12.9990
 0.5950	12.9720
 0.5960	12.9460
 0.5970	12.9210
 0.5980	12.8960
 0.5990	12.8710
 0.6000	12.8450
 0.6010	12.8260
 0.6020	12.8030
 0.6030	12.7730
 0.6040	12.7330
 0.6050	12.6910
 0.6060	12.6450
 0.6070	12.5940
 0.6080	12.5370
 0.6090	12.4600
 0.6100	12.3570
 0.6110	12.2390
 0.6120	12.1850
 0.6130	12.1680
 0.6140	12.1550
 0.6150	12.1210
 0.6160	12.0810
 0.6170	12.0390
 0.6180	11.9920
 0.6190	11.9450
 0.6200	11.9020
 0.6210	11.8660
 0.6220	11.8380
 0.6230	11.8150
 0.6240	11.7960
 0.6250	11.7790
 0.6260	11.7650
 0.6270	11.7540
 0.6280	11.7440
 0.6290	11.7340
 0.6300	11.7180
 0.6310	11.7040
 0.6320	11.6950
 0.6330	11.6820
 0.6340	11.6570
 0.6350	11.6220
 0.6360	11.5780
 0.6370	11.5250
 0.6380	11.4650
 0.6390	11.4010
 0.6400	11.3340
 0.6410	11.2630
 0.6420	11.1930
 0.6430	11.1250
 0.6440	11.0580
 0.6450	10.9930
 0.6460	10.9350
 0.6470	10.8830
 0.6480	10.8370
 0.6490	10.7960
 0.6500	10.7620
 0.6510	10.7360
 0.6520	10.7200
 0.6530	10.7090
 0.6540	10.6990
 0.6550	10.6870
 0.6560	10.6800
 0.6570	10.6750
 0.6580	10.6680
 0.6590	10.6590
 0.6600	10.6500
 0.6610	10.6420
 0.6620	10.6320
 0.6630	10.6250
 0.6640	10.6220
 0.6650	10.6220
 0.6660	10.6210
 0.6670	10.6230
 0.6680	10.6320
 0.6690	10.6450
 0.6700	10.6620
 0.6710	10.6850
 0.6720	10.7160
 0.6730	10.7520
 0.6740	10.7920
 0.6750	10.8360
 0.6760	10.8850
 0.6770	10.9400
 0.6780	11.0010
 0.6790	11.0670
 0.6800	11.1390
 0.6810	11.2160
 0.6820	11.2980
 0.6830	11.3840
 0.6840	11.4760
 0.6850	11.5740
 0.6860	11.6790
 0.6870	11.8000
 0.6880	11.9480
 0.6890	12.1320
 0.6900	12.3610
 0.6910	12.6510
 0.6920	13.0080
 0.6930	13.4410
 0.6940	13.9580
 0.6950	14.5620
 0.6960	15.2480
 0.6970	16.0130
 0.6980	16.8520
 0.6990	17.7550
 0.7000	18.7130
 0.7010	19.7150
 0.7020	20.7490
 0.7030	21.8090
 0.7040	22.8850
 0.7050	23.9710
 0.7060	25.0640
 0.7070	26.1610
 0.7080	27.2610
 0.7090	28.3680
 0.7100	29.4790
 0.7110	30.5950
 0.7120	31.7120
 0.7130	32.8270
 0.7140	33.9450
 0.7150	35.0630
 0.7160	36.1750
 0.7170	37.2870
 0.7180	38.3880
 0.7190	39.4780
 0.7200	40.5600
 0.7210	41.6240
 0.7220	42.6710
 0.7230	43.6990
 0.7240	44.7000
 0.7250	45.6750
 0.7260	46.6210
 0.7270	47.5360
 0.7280	48.4190
 0.7290	49.2670
 0.7300	50.0790
 0.7310	50.8570
 0.7320	51.5990
 0.7330	52.3030
 0.7340	52.9700
 0.7350	53.6050
 0.7360	54.2010
 0.7370	54.7620
 0.7380	55.2910
 0.7390	55.7870
 0.7400	56.2490
 0.7410	56.6790
 0.7420	57.0770
 0.7430	57.4470
 0.7440	57.7830
 0.7450	58.0880
 0.7460	58.3680
 0.7470	58.6210
 0.7480	58.8490
 0.7490	59.0550
 0.7500	59.2380
 0.7510	59.4030
 0.7520	59.5500
 0.7530	59.6830
 0.7540	59.8020
 0.7550	59.9090
 0.7560	60.0030
 0.7570	60.0840
 0.7580	60.1610
 0.7590	60.2290
 0.7600	60.2860
 0.7610	60.3370
 0.7620	60.3840
 0.7630	60.4270
 0.7640	60.4620
 0.7650	60.4900
 0.7660	60.5120
 0.7670	60.5300
 0.7680	60.5480
 0.7690	60.5630
 0.7700	60.5760
 0.7710	60.5870
 0.7720	60.5960
 0.7730	60.6020
 0.7740	60.6070
 0.7750	60.6150
 0.7760	60.6210
 0.7770	60.6280
 0.7780	60.6350
 0.7790	60.6410
 0.7800	60.6500
 0.7810	60.6610
 0.7820	60.6690
 0.7830	60.6740
 0.7840	60.6810
 0.7850	60.6880
 0.7860	60.6940
 0.7870	60.6940
 0.7880	60.6950
 0.7890	60.6960
 0.7900	60.6960
 0.7910	60.7000
 0.7920	60.7030
 0.7930	60.7030
 0.7940	60.7020
 0.7950	60.7010
 0.7960	60.6970
 0.7970	60.6910
 0.7980	60.6820
 0.7990	60.6720
 0.8000	60.6630
 0.8010	60.6550
 0.8020	60.6440
 0.8030	60.6360
 0.8040	60.6290
 0.8050	60.6180
 0.8060	60.6070
 0.8070	60.5920
 0.8080	60.5750
 0.8090	60.5590
 0.8100	60.5460
 0.8110	60.5310
 0.8120	60.5140
 0.8130	60.4930
 0.8140	60.4770
 0.8150	60.4620
 0.8160	60.4450
 0.8170	60.4280
 0.8180	60.4130
 0.8190	60.3970
 0.8200	60.3810
 0.8210	60.3680
 0.8220	60.3520
 0.8230	60.3340
 0.8240	60.3200
 0.8250	60.3030
 0.8260	60.2860
 0.8270	60.2710
 0.8280	60.2580
 0.8290	60.2440
 0.8300	60.2310
 0.8310	60.2180
 0.8320	60.2100
 0.8330	60.1990
 0.8340	60.1880
 0.8350	60.1790
 0.8360	60.1760
 0.8370	60.1690
 0.8380	60.1610
 0.8390	60.1590
 0.8400	60.1560
 0.8410	60.1530
 0.8420	60.1520
 0.8430	60.1530
 0.8440	60.1550
 0.8450	60.1570
 0.8460	60.1590
 0.8470	60.1650
 0.8480	60.1720
 0.8490	60.1790
 0.8500	60.1860
 0.8510	60.1910
 0.8520	60.1990
 0.8530	60.2070
 0.8540	60.2130
 0.8550	60.2180
 0.8560	60.2250
 0.8570	60.2340
 0.8580	60.2440
 0.8590	60.2570
 0.8600	60.2710
 0.8610	60.2850
 0.8620	60.2960
 0.8630	60.3110
 0.8640	60.3280
 0.8650	60.3460
 0.8660	60.3640
 0.8670	60.3800
 0.8680	60.3970
 0.8690	60.4150
 0.8700	60.4250
 0.8710	60.4380
 0.8720	60.4560
 0.8730	60.4760
 0.8740	60.4940
 0.8750	60.5110
 0.8760	60.5310
 0.8770	60.5530
 0.8780	60.5740
 0.8790	60.5900
 0.8800	60.6050
 0.8810	60.6350
 0.8820	60.6510
 0.8830	60.6650
 0.8840	60.6880
 0.8850	60.7050
 0.8860	60.7200
 0.8870	60.7330
 0.8880	60.7470
 0.8890	60.7720
 0.8900	60.7950
 0.8910	60.8130
 0.8920	60.8320
 0.8930	60.8500
 0.8940	60.8670
 0.8950	60.8830
 0.8960	60.9000
 0.8970	60.9170
 0.8980	60.9350
 0.8990	60.9530
 0.9000	60.9660
 0.9010	60.9850
 0.9020	61.0000
 0.9030	61.0100
 0.9040	61.0290
 0.9050	61.0450
 0.9060	61.0580
 0.9070	61.0710
 0.9080	61.0770
 0.9090	61.0870
 0.9100	61.0970
 0.9110	61.1060
 0.9120	61.1140
 0.9130	61.1270
 0.9140	61.1360
 0.9150	61.1360
 0.9160	61.1420
 0.9170	61.1480
 0.9180	61.1510
 0.9190	61.1500
 0.9200	61.1500
 0.9210	61.1510
 0.9220	61.1510
 0.9230	61.1460
 0.9240	61.1410
 0.9250	61.1390
 0.9260	61.1350
 0.9270	61.1220
 0.9280	61.1010
 0.9290	61.0830
 0.9300	61.0680
 0.9310	61.0460
 0.9320	61.0220
 0.9330	60.9990
 0.9340	60.9770
 0.9350	60.9480
 0.9360	60.9170
 0.9370	60.8890
 0.9380	60.8620
 0.9390	60.8260
 0.9400	60.8030
 0.9410	60.7770
 0.9420	60.7390
 0.9430	60.7030
 0.9440	60.6560
 0.9450	60.6050
 0.9460	60.5550
 0.9470	60.5000
 0.9480	60.4410
 0.9490	60.3810
 0.9500	60.3180
 0.9510	60.2340
 0.9520	60.1680
 0.9530	60.1080
 0.9540	60.0330
 0.9550	59.9520
 0.9560	59.8810
 0.9570	59.8160
 0.9580	59.7480
 0.9590	59.6910
 0.9600	59.6390
 0.9610	59.5870
 0.9620	59.5340
 0.9630	59.4910
 0.9640	59.4500
 0.9650	59.4120
 0.9660	59.3840
 0.9670	59.3550
 0.9680	59.3380
 0.9690	59.3240
 0.9700	59.3060
 0.9710	59.2950
 0.9720	59.2670
 0.9730	59.2410
 0.9740	59.2430
 0.9750	59.2530
 0.9760	59.2490
 0.9770	59.2300
 0.9780	59.2110
 0.9790	59.2090
 0.9800	59.2180
 0.9810	59.2270
 0.9820	59.2250
 0.9830	59.2260
 0.9840	59.2370
 0.9850	59.2470
 0.9860	59.2490
 0.9870	59.2670
 0.9880	59.2850
 0.9890	59.2990
 0.9900	59.3120
 0.9910	59.3090
 0.9920	59.3270
 0.9930	59.3530
 0.9940	59.3590
 0.9950	59.3880
 0.9960	59.4170
 0.9970	59.4390
 0.9980	59.4560
 0.9990	59.4740
 1.0000	59.4950
 1.0010	61.1250
 1.0020	61.1490
 1.0030	61.1660
 1.0040	61.1850
 1.0050	61.2050
 1.0060	61.2310
 1.0070	61.2620
 1.0080	61.2880
 1.0090	61.3170
 1.0100	61.3420
 1.0110	61.3590
 1.0120	61.3820
 1.0130	61.4060
 1.0140	61.4310
 1.0150	61.4570
 1.0160	61.4860
 1.0170	61.5060
 1.0180	61.5280
 1.0190	61.5550
 1.0200	61.5810
 1.0210	61.6080
 1.0220	61.6350
 1.0230	61.6600
 1.0240	61.6800
 1.0250	61.7040
 1.0260	61.7300
 1.0270	61.7550
 1.0280	61.7780
 1.0290	61.8030
 1.0300	61.8290
 1.0310	61.8530
 1.0320	61.8760
 1.0330	61.8970
 1.0340	61.9170
 1.0350	61.9350
 1.0360	61.9510
 1.0370	61.9730
 1.0380	61.9940
 1.0390	62.0150
 1.0400	62.0360
 1.0410	62.0600
 1.0420	62.0810
 1.0430	62.0980
 1.0440	62.1170
 1.0450	62.1370
 1.0460	62.1550
 1.0470	62.1750
 1.0480	62.1900
 1.0490	62.2000
 1.0500	62.2130
 1.0510	62.2220
 1.0520	62.2350
 1.0530	62.2510
 1.0540	62.2720
 1.0550	62.2870
 1.0560	62.3050
 1.0570	62.3140
 1.0580	62.3140
 1.0590	62.3180
 1.0600	62.3130
 1.0610	62.3170
 1.0620	62.3260
 1.0630	62.3310
 1.0640	62.3370
 1.0650	62.3430
 1.0660	62.3490
 1.0670	62.3530
 1.0680	62.3550
 1.0690	62.3590
 1.0700	62.3590
 1.0710	62.3560
 1.0720	62.3540
 1.0730	62.3510
 1.0740	62.3500
 1.0750	62.3500
 1.0760	62.3490
 1.0770	62.3490
 1.0780	62.3480
 1.0790	62.3460
 1.0800	62.3420
 1.0810	62.3390
 1.0820	62.3340
 1.0830	62.3270
 1.0840	62.3190
 1.0850	62.3100
 1.0860	62.3030
 1.0870	62.2960
 1.0880	62.2900
 1.0890	62.2820
 1.0900	62.2740
 1.0910	62.2660
 1.0920	62.2550
 1.0930	62.2460
 1.0940	62.2380
 1.0950	62.2300
 1.0960	62.2240
 1.0970	62.2140
 1.0980	62.2030
 1.0990	62.1930
 1.1000	62.1790
 1.1010	62.1680
 1.1020	62.1590
 1.1030	62.1490
 1.1040	62.1390
 1.1050	62.1310
 1.1060	62.1200
 1.1070	62.1060
 1.1080	62.0930
 1.1090	62.0790
 1.1100	62.0650
 1.1110	62.0510
 1.1120	62.0370
 1.1130	62.0250
 1.1140	62.0090
 1.1150	61.9930
 1.1160	61.9730
 1.1170	61.9510
 1.1180	61.9260
 1.1190	61.9010
 1.1200	61.8730
 1.1210	61.8410
 1.1220	61.8050
 1.1230	61.7650
 1.1240	61.7250
 1.1250	61.6760
 1.1260	61.6240
 1.1270	61.5620
 1.1280	61.4930
 1.1290	61.4150
 1.1300	61.3320
 1.1310	61.2390
 1.1320	61.1400
 1.1330	61.0310
 1.1340	60.9120
 1.1350	60.7860
 1.1360	60.6520
 1.1370	60.5090
 1.1380	60.3580
 1.1390	60.2010
 1.1400	60.0410
 1.1410	59.8760
 1.1420	59.7100
 1.1430	59.5450
 1.1440	59.3790
 1.1450	59.2100
 1.1460	59.0450
 1.1470	58.8760
 1.1480	58.7210
 1.1490	58.5700
 1.1500	58.4270
 1.1510	58.2920
 1.1520	58.1660
 1.1530	58.0420
 1.1540	57.9320
 1.1550	57.8320
 1.1560	57.7420
 1.1570	57.6590
 1.1580	57.5880
 1.1590	57.5200
 1.1600	57.4570
 1.1610	57.4020
 1.1620	57.3510
 1.1630	57.3090
 1.1640	57.2720
 1.1650	57.2360
 1.1660	57.2040
 1.1670	57.1730
 1.1680	57.1440
 1.1690	57.1180
 1.1700	57.0960
 1.1710	57.0730
 1.1720	57.0530
 1.1730	57.0300
 1.1740	57.0050
 1.1750	56.9830
 1.1760	56.9590
 1.1770	56.9360
 1.1780	56.9130
 1.1790	56.8900
 1.1800	56.8650
 1.1810	56.8400
 1.1820	56.8150
 1.1830	56.7880
 1.1840	56.7610
 1.1850	56.7320
 1.1860	56.7060
 1.1870	56.6820
 1.1880	56.6590
 1.1890	56.6380
 1.1900	56.6170
 1.1910	56.5930
 1.1920	56.5730
 1.1930	56.5550
 1.1940	56.5380
 1.1950	56.5240
 1.1960	56.5100
 1.1970	56.4980
 1.1980	56.4900
 1.1990	56.4850
 1.2000	56.4810
 1.2010	56.4800
 1.2020	56.4800
 1.2030	56.4820
 1.2040	56.4880
 1.2050	56.4970
 1.2060	56.5070
 1.2070	56.5180
 1.2080	56.5330
 1.2090	56.5470
 1.2100	56.5620
 1.2110	56.5810
 1.2120	56.6030
 1.2130	56.6260
 1.2140	56.6530
 1.2150	56.6790
 1.2160	56.7060
 1.2170	56.7350
 1.2180	56.7630
 1.2190	56.7920
 1.2200	56.8220
 1.2210	56.8530
 1.2220	56.8850
 1.2230	56.9200
 1.2240	56.9570
 1.2250	56.9930
 1.2260	57.0260
 1.2270	57.0590
 1.2280	57.0880
 1.2290	57.1170
 1.2300	57.1490
 1.2310	57.1790
 1.2320	57.2080
 1.2330	57.2370
 1.2340	57.2630
 1.2350	57.2840
 1.2360	57.3080
 1.2370	57.3320
 1.2380	57.3550
 1.2390	57.3760
 1.2400	57.3990
 1.2410	57.4190
 1.2420	57.4380
 1.2430	57.4580
 1.2440	57.4760
 1.2450	57.4940
 1.2460	57.5080
 1.2470	57.5210
 1.2480	57.5360
 1.2490	57.5500
 1.2500	57.5640
 1.2510	57.5780
 1.2520	57.5890
 1.2530	57.6000
 1.2540	57.6120
 1.2550	57.6220
 1.2560	57.6320
 1.2570	57.6410
 1.2580	57.6460
 1.2590	57.6510
 1.2600	57.6530
 1.2610	57.6540
 1.2620	57.6530
 1.2630	57.6520
 1.2640	57.6490
 1.2650	57.6480
 1.2660	57.6450
 1.2670	57.6420
 1.2680	57.6410
 1.2690	57.6370
 1.2700	57.6290
 1.2710	57.6200
 1.2720	57.6100
 1.2730	57.5970
 1.2740	57.5830
 1.2750	57.5690
 1.2760	57.5550
 1.2770	57.5390
 1.2780	57.5230
 1.2790	57.5060
 1.2800	57.4850
 1.2810	57.4570
 1.2820	57.4290
 1.2830	57.3980
 1.2840	57.3630
 1.2850	57.3300
 1.2860	57.2960
 1.2870	57.2560
 1.2880	57.2120
 1.2890	57.1660
 1.2900	57.1180
 1.2910	57.0660
 1.2920	57.0130
 1.2930	56.9600
 1.2940	56.9030
 1.2950	56.8400
 1.2960	56.7770
 1.2970	56.7120
 1.2980	56.6430
 1.2990	56.5710
 1.3000	56.4980
 1.3010	56.4210
 1.3020	56.3420
 1.3030	56.2630
 1.3040	56.1790
 1.3050	56.0930
 1.3060	56.0040
 1.3070	55.9100
 1.3080	55.8160
 1.3090	55.7200
 1.3100	55.6200
 1.3110	55.5190
 1.3120	55.4150
 1.3130	55.3060
 1.3140	55.1950
 1.3150	55.0800
 1.3160	54.9640
 1.3170	54.8460
 1.3180	54.7260
 1.3190	54.6040
 1.3200	54.4790
 1.3210	54.3500
 1.3220	54.2210
 1.3230	54.0900
 1.3240	53.9550
 1.3250	53.8180
 1.3260	53.6790
 1.3270	53.5350
 1.3280	53.3930
 1.3290	53.2490
 1.3300	53.1030
 1.3310	52.9560
 1.3320	52.8060
 1.3330	52.6560
 1.3340	52.5070
 1.3350	52.3590
 1.3360	52.2120
 1.3370	52.0630
 1.3380	51.9130
 1.3390	51.7660
 1.3400	51.6170
 1.3410	51.4710
 1.3420	51.3270
 1.3430	51.1830
 1.3440	51.0390
 1.3450	50.8980
 1.3460	50.7600
 1.3470	50.6230
 1.3480	50.4870
 1.3490	50.3530
 1.3500	50.2210
 1.3510	50.0880
 1.3520	49.9590
 1.3530	49.8310
 1.3540	49.7000
 1.3550	49.5720
 1.3560	49.4420
 1.3570	49.3090
 1.3580	49.1770
 1.3590	49.0400
 1.3600	48.9000
 1.3610	48.7570
 1.3620	48.6080
 1.3630	48.4540
 1.3640	48.2930
 1.3650	48.1230
 1.3660	47.9470
 1.3670	47.7620
 1.3680	47.5630
 1.3690	47.3540
 1.3700	47.1300
 1.3710	46.8930
 1.3720	46.6420
 1.3730	46.3720
 1.3740	46.0850
 1.3750	45.7770
 1.3760	45.4460
 1.3770	45.0950
 1.3780	44.7170
 1.3790	44.3170
 1.3800	43.8950
 1.3810	43.4450
 1.3820	42.9780
 1.3830	42.4910
 1.3840	41.9850
 1.3850	41.4590
 1.3860	40.9220
 1.3870	40.3640
 1.3880	39.8030
 1.3890	39.2310
 1.3900	38.6510
 1.3910	38.0710
 1.3920	37.4890
 1.3930	36.9050
 1.3940	36.3280
 1.3950	35.7530
 1.3960	35.1880
 1.3970	34.6370
 1.3980	34.0970
 1.3990	33.5780
 1.4000	33.0750
 1.4010	32.5870
 1.4020	32.1210
 1.4030	31.6700
 1.4040	31.2380
 1.4050	30.8290
 1.4060	30.4380
 1.4070	30.0740
 1.4080	29.7290
 1.4090	29.4010
 1.4100	29.0960
 1.4110	28.8080
 1.4120	28.5370
 1.4130	28.2860
 1.4140	28.0500
 1.4150	27.8310
 1.4160	27.6260
 1.4170	27.4340
 1.4180	27.2570
 1.4190	27.0910
 1.4200	26.9390
 1.4210	26.7970
 1.4220	26.6650
 1.4230	26.5450
 1.4240	26.4330
 1.4250	26.3270
 1.4260	26.2310
 1.4270	26.1410
 1.4280	26.0580
 1.4290	25.9820
 1.4300	25.9160
 1.4310	25.8550
 1.4320	25.8000
 1.4330	25.7500
 1.4340	25.7060
 1.4350	25.6650
 1.4360	25.6290
 1.4370	25.5960
 1.4380	25.5700
 1.4390	25.5460
 1.4400	25.5270
 1.4410	25.5130
 1.4420	25.5000
 1.4430	25.4890
 1.4440	25.4810
 1.4450	25.4760
 1.4460	25.4740
 1.4470	25.4750
 1.4480	25.4780
 1.4490	25.4830
 1.4500	25.4910
 1.4510	25.4990
 1.4520	25.5090
 1.4530	25.5210
 1.4540	25.5350
 1.4550	25.5500
 1.4560	25.5710
 1.4570	25.5940
 1.4580	25.6210
 1.4590	25.6510
 1.4600	25.6850
 1.4610	25.7220
 1.4620	25.7640
 1.4630	25.8100
 1.4640	25.8590
 1.4650	25.9130
 1.4660	25.9720
 1.4670	26.0350
 1.4680	26.1050
 1.4690	26.1780
 1.4700	26.2550
 1.4710	26.3370
 1.4720	26.4210
 1.4730	26.5100
 1.4740	26.6020
 1.4750	26.6980
 1.4760	26.7980
 1.4770	26.9010
 1.4780	27.0060
 1.4790	27.1130
 1.4800	27.2210
 1.4810	27.3300
 1.4820	27.4420
 1.4830	27.5570
 1.4840	27.6730
 1.4850	27.7900
 1.4860	27.9090
 1.4870	28.0290
 1.4880	28.1500
 1.4890	28.2720
 1.4900	28.3940
 1.4910	28.5150
 1.4920	28.6380
 1.4930	28.7620
 1.4940	28.8860
 1.4950	29.0120
 1.4960	29.1390
 1.4970	29.2650
 1.4980	29.3910
 1.4990	29.5180
 1.5000	29.6450
 1.5010	29.7730
 1.5020	29.9010
 1.5030	30.0280
 1.5040	30.1550
 1.5050	30.2810
 1.5060	30.4080
 1.5070	30.5360
 1.5080	30.6650
 1.5090	30.7950
 1.5100	30.9240
 1.5110	31.0520
 1.5120	31.1810
 1.5130	31.3070
 1.5140	31.4320
 1.5150	31.5580
 1.5160	31.6810
 1.5170	31.8070
 1.5180	31.9320
 1.5190	32.0570
 1.5200	32.1840
 1.5210	32.3070
 1.5220	32.4290
 1.5230	32.5510
 1.5240	32.6720
 1.5250	32.7940
 1.5260	32.9140
 1.5270	33.0340
 1.5280	33.1530
 1.5290	33.2700
 1.5300	33.3880
 1.5310	33.5050
 1.5320	33.6220
 1.5330	33.7390
 1.5340	33.8560
 1.5350	33.9710
 1.5360	34.0870
 1.5370	34.2000
 1.5380	34.3120
 1.5390	34.4240
 1.5400	34.5360
 1.5410	34.6470
 1.5420	34.7570
 1.5430	34.8660
 1.5440	34.9760
 1.5450	35.0830
 1.5460	35.1910
 1.5470	35.2990
 1.5480	35.4030
 1.5490	35.5080
 1.5500	35.6120
 1.5510	35.7130
 1.5520	35.8130
 1.5530	35.9110
 1.5540	36.0070
 1.5550	36.1040
 1.5560	36.2010
 1.5570	36.2990
 1.5580	36.3970
 1.5590	36.4940
 1.5600	36.5870
 1.5610	36.6770
 1.5620	36.7670
 1.5630	36.8570
 1.5640	36.9450
 1.5650	37.0340
 1.5660	37.1210
 1.5670	37.2060
 1.5680	37.2930
 1.5690	37.3790
 1.5700	37.4630
 1.5710	37.5460
 1.5720	37.6280
 1.5730	37.7090
 1.5740	37.7910
 1.5750	37.8730
 1.5760	37.9520
 1.5770	38.0310
 1.5780	38.1090
 1.5790	38.1840
 1.5800	38.2610
 1.5810	38.3380
 1.5820	38.4140
 1.5830	38.4920
 1.5840	38.5680
 1.5850	38.6400
 1.5860	38.7140
 1.5870	38.7870
 1.5880	38.8600
 1.5890	38.9330
 1.5900	39.0060
 1.5910	39.0760
 1.5920	39.1480
 1.5930	39.2210
 1.5940	39.2920
 1.5950	39.3620
 1.5960	39.4310
 1.5970	39.4980
 1.5980	39.5680
 1.5990	39.6380
 1.6000	39.7070
 1.6010	39.7760
 1.6020	39.8420
 1.6030	39.9080
 1.6040	39.9740
 1.6050	40.0400
 1.6060	40.1030
 1.6070	40.1640
 1.6080	40.2240
 1.6090	40.2850
 1.6100	40.3450
 1.6110	40.4070
 1.6120	40.4670
 1.6130	40.5260
 1.6140	40.5840
 1.6150	40.6420
 1.6160	40.6990
 1.6170	40.7540
 1.6180	40.8100
 1.6190	40.8650
 1.6200	40.9160
 1.6210	40.9670
 1.6220	41.0170
 1.6230	41.0620
 1.6240	41.1110
 1.6250	41.1600
 1.6260	41.2060
 1.6270	41.2540
 1.6280	41.3020
 1.6290	41.3480
 1.6300	41.3930
 1.6310	41.4380
 1.6320	41.4800
 1.6330	41.5210
 1.6340	41.5620
 1.6350	41.6020
 1.6360	41.6420
 1.6370	41.6790
 1.6380	41.7170
 1.6390	41.7520
 1.6400	41.7850
 1.6410	41.8160
 1.6420	41.8460
 1.6430	41.8740
 1.6440	41.9010
 1.6450	41.9260
 1.6460	41.9500
 1.6470	41.9750
 1.6480	41.9970
 1.6490	42.0170
 1.6500	42.0340
 1.6510	42.0480
 1.6520	42.0610
 1.6530	42.0730
 1.6540	42.0820
 1.6550	42.0920
 1.6560	42.0980
 1.6570	42.1050
 1.6580	42.1110
 1.6590	42.1150
 1.6600	42.1200
 1.6610	42.1250
 1.6620	42.1270
 1.6630	42.1300
 1.6640	42.1320
 1.6650	42.1320
 1.6660	42.1320
 1.6670	42.1310
 1.6680	42.1290
 1.6690	42.1280
 1.6700	42.1260
 1.6710	42.1220
 1.6720	42.1180
 1.6730	42.1120
 1.6740	42.1040
 1.6750	42.0950
 1.6760	42.0860
 1.6770	42.0750
 1.6780	42.0640
 1.6790	42.0510
 1.6800	42.0330
 1.6810	42.0140
 1.6820	41.9930
 1.6830	41.9680
 1.6840	41.9420
 1.6850	41.9110
 1.6860	41.8770
 1.6870	41.8420
 1.6880	41.8050
 1.6890	41.7670
 1.6900	41.7280
 1.6910	41.6870
 1.6920	41.6450
 1.6930	41.6050
 1.6940	41.5600
 1.6950	41.5110
 1.6960	41.4630
 1.6970	41.4130
 1.6980	41.3630
 1.6990	41.3150
 1.7000	41.2640
 1.7010	41.2100
 1.7020	41.1550
 1.7030	41.0950
 1.7040	41.0380
 1.7050	40.9780
 1.7060	40.9200
 1.7070	40.8630
 1.7080	40.8050
 1.7090	40.7450
 1.7100	40.6860
 1.7110	40.6260
 1.7120	40.5670
 1.7130	40.5080
 1.7140	40.4530
 1.7150	40.3960
 1.7160	40.3380
 1.7170	40.2820
 1.7180	40.2250
 1.7190	40.1690
 1.7200	40.1150
 1.7210	40.0590
 1.7220	40.0060
 1.7230	39.9510
 1.7240	39.8980
 1.7250	39.8480
 1.7260	39.7990
 1.7270	39.7520
 1.7280	39.7070
 1.7290	39.6630
 1.7300	39.6230
 1.7310	39.5840
 1.7320	39.5490
 1.7330	39.5150
 1.7340	39.4820
 1.7350	39.4480
 1.7360	39.4140
 1.7370	39.3770
 1.7380	39.3370
 1.7390	39.2940
 1.7400	39.2480
 1.7410	39.1990
 1.7420	39.1480
 1.7430	39.0930
 1.7440	39.0360
 1.7450	38.9750
 1.7460	38.9090
 1.7470	38.8440
 1.7480	38.7760
 1.7490	38.7090
 1.7500	38.6410
 1.7510	38.5730
 1.7520	38.5030
 1.7530	38.4350
 1.7540	38.3660
 1.7550	38.2980
 1.7560	38.2310
 1.7570	38.1640
 1.7580	38.1000
 1.7590	38.0410
 1.7600	37.9820
 1.7610	37.9250
 1.7620	37.8690
 1.7630	37.8120
 1.7640	37.7600
 1.7650	37.7130
 1.7660	37.6670
 1.7670	37.6210
 1.7680	37.5790
 1.7690	37.5380
 1.7700	37.4970
 1.7710	37.4610
 1.7720	37.4240
 1.7730	37.3850
 1.7740	37.3510
 1.7750	37.3200
 1.7760	37.2890
 1.7770	37.2590
 1.7780	37.2300
 1.7790	37.2010
 1.7800	37.1770
 1.7810	37.1590
 1.7820	37.1380
 1.7830	37.1180
 1.7840	37.1030
 1.7850	37.0880
 1.7860	37.0760
 1.7870	37.0700
 1.7880	37.0600
 1.7890	37.0540
 1.7900	37.0510
 1.7910	37.0480
 1.7920	37.0470
 1.7930	37.0480
 1.7940	37.0510
 1.7950	37.0540
 1.7960	37.0610
 1.7970	37.0670
 1.7980	37.0730
 1.7990	37.0810
 1.8000	37.0910
 1.8010	37.1000
 1.8020	37.1090
 1.8030	37.1180
 1.8040	37.1270
 1.8050	37.1350
 1.8060	37.1430
 1.8070	37.1530
 1.8080	37.1630
 1.8090	37.1710
 1.8100	37.1800
 1.8110	37.1870
 1.8120	37.1930
 1.8130	37.2000
 1.8140	37.2100
 1.8150	37.2170
 1.8160	37.2210
 1.8170	37.2280
 1.8180	37.2330
 1.8190	37.2370
 1.8200	37.2380
 1.8210	37.2350
 1.8220	37.2320
 1.8230	37.2270
 1.8240	37.2230
 1.8250	37.2200
 1.8260	37.2150
 1.8270	37.2100
 1.8280	37.2010
 1.8290	37.1900
 1.8300	37.1750
 1.8310	37.2690
 1.8320	37.2430
 1.8330	37.2100
 1.8340	37.1730
 1.8350	37.1350
 1.8360	37.0930
 1.8370	37.0500
 1.8380	37.0010
 1.8390	36.9460
 1.8400	36.8840
 1.8410	36.8170
 1.8420	36.7430
 1.8430	36.6660
 1.8440	36.5800
 1.8450	36.4880
 1.8460	36.3910
 1.8470	36.2860
 1.8480	36.1720
 1.8490	36.0410
 1.8500	35.9010
 1.8510	35.7500
 1.8520	35.5900
 1.8530	35.4140
 1.8540	35.2320
 1.8550	35.0420
 1.8560	34.8280
 1.8570	34.6030
 1.8580	34.3670
 1.8590	34.1140
 1.8600	33.8440
 1.8610	33.5640
 1.8620	33.2660
 1.8630	32.9520
 1.8640	32.6260
 1.8650	32.2790
 1.8660	31.9170
 1.8670	31.5360
 1.8680	31.1360
 1.8690	30.7200
 1.8700	30.2860
 1.8710	29.8340
 1.8720	29.3720
 1.8730	28.8990
 1.8740	28.4140
 1.8750	27.9290
 1.8760	27.4320
 1.8770	26.9270
 1.8780	26.4210
 1.8790	25.9070
 1.8800	25.3980
 1.8810	24.8890
 1.8820	24.3820
 1.8830	23.8690
 1.8840	23.3630
 1.8850	22.8570
 1.8860	22.3520
 1.8870	21.8630
 1.8880	21.3810
 1.8890	20.9140
 1.8900	20.4640
 1.8910	20.0310
 1.8920	19.6110
 1.8930	19.2120
 1.8940	18.8300
 1.8950	18.4670
 1.8960	18.1270
 1.8970	17.8040
 1.8980	17.5010
 1.8990	17.2200
 1.9000	16.9570
 1.9010	16.7150
 1.9020	16.4890
 1.9030	16.2840
 1.9040	16.0950
 1.9050	15.9210
 1.9060	15.7620
 1.9070	15.6220
 1.9080	15.4930
 1.9090	15.3760
 1.9100	15.2720
 1.9110	15.1760
 1.9120	15.0900
 1.9130	15.0130
 1.9140	14.9460
 1.9150	14.8880
 1.9160	14.8330
 1.9170	14.7870
 1.9180	14.7450
 1.9190	14.7060
 1.9200	14.6730
 1.9210	14.6440
 1.9220	14.6190
 1.9230	14.5990
 1.9240	14.5820
 1.9250	14.5700
 1.9260	14.5640
 1.9270	14.5580
 1.9280	14.5550
 1.9290	14.5560
 1.9300	14.5580
 1.9310	14.5670
 1.9320	14.5780
 1.9330	14.5910
 1.9340	14.6080
 1.9350	14.6270
 1.9360	14.6480
 1.9370	14.6720
 1.9380	14.6980
 1.9390	14.7250
 1.9400	14.7500
 1.9410	14.7790
 1.9420	14.8100
 1.9430	14.8460
 1.9440	14.8830
 1.9450	14.9240
 1.9460	14.9640
 1.9470	15.0030
 1.9480	15.0450
 1.9490	15.0900
 1.9500	15.1360
 1.9510	15.1820
 1.9520	15.2320
 1.9530	15.2800
 1.9540	15.3280
 1.9550	15.3790
 1.9560	15.4300
 1.9570	15.4830
 1.9580	15.5360
 1.9590	15.5930
 1.9600	15.6530
 1.9610	15.7130
 1.9620	15.7750
 1.9630	15.8400
 1.9640	15.9070
 1.9650	15.9720
 1.9660	16.0370
 1.9670	16.1050
 1.9680	16.1720
 1.9690	16.2350
 1.9700	16.3050
 1.9710	16.3770
 1.9720	16.4490
 1.9730	16.5240
 1.9740	16.6000
 1.9750	16.6720
 1.9760	16.7440
 1.9770	16.8170
 1.9780	16.8880
 1.9790	16.9620
 1.9800	17.0390
 1.9810	17.1160
 1.9820	17.1950
 1.9830	17.2740
 1.9840	17.3570
 1.9850	17.4340
 1.9860	17.5090
 1.9870	17.5860
 1.9880	17.6610
 1.9890	17.7370
 1.9900	17.8190
 1.9910	17.8960
 1.9920	17.9740
 1.9930	18.0500
 1.9940	18.1280
 1.9950	18.2030
 1.9960	18.2820
 1.9970	18.3630
 1.9980	18.4430
 1.9990	18.5240
 2.0000	18.6050
 2.0010	18.6830
 2.0020	18.7600
 2.0030	18.8380
 2.0040	18.9170
 2.0050	18.9980
 2.0060	19.0820
 2.0070	19.1650
 2.0080	19.2500
 2.0090	19.3330
 2.0100	19.4150
 2.0110	19.4980
 2.0120	19.5790
 2.0130	19.6590
 2.0140	19.7400
 2.0150	19.8200
 2.0160	19.9010
 2.0170	19.9820
 2.0180	20.0630
 2.0190	20.1450
 2.0200	20.2240
 2.0210	20.2970
 2.0220	20.3750
 2.0230	20.4560
 2.0240	20.5340
 2.0250	20.6130
 2.0260	20.6880
 2.0270	20.7600
 2.0280	20.8300
 2.0290	20.9010
 2.0300	20.9750
 2.0310	21.0460
 2.0320	21.1160
 2.0330	21.1850
 2.0340	21.2530
 2.0350	21.3180
 2.0360	21.3840
 2.0370	21.4480
 2.0380	21.5090
 2.0390	21.5710
 2.0400	21.6340
 2.0410	21.6960
 2.0420	21.7570
 2.0430	21.8190
 2.0440	21.8790
 2.0450	21.9360
 2.0460	21.9950
 2.0470	22.0510
 2.0480	22.1080
 2.0490	22.1670
 2.0500	22.2230
 2.0510	22.2770
 2.0520	22.3310
 2.0530	22.3850
 2.0540	22.4390
 2.0550	22.4930
 2.0560	22.5490
 2.0570	22.6060
 2.0580	22.6630
 2.0590	22.7210
 2.0600	22.7820
 2.0610	22.8400
 2.0620	22.8970
 2.0630	22.9540
 2.0640	23.0100
 2.0650	23.0660
 2.0660	23.1220
 2.0670	23.1790
 2.0680	23.2360
 2.0690	23.2910
 2.0700	23.3460
 2.0710	23.4010
 2.0720	23.4540
 2.0730	23.5090
 2.0740	23.5640
 2.0750	23.6190
 2.0760	23.6760
 2.0770	23.7350
 2.0780	23.7930
 2.0790	23.8540
 2.0800	23.9110
 2.0810	23.9650
 2.0820	24.0200
 2.0830	24.0750
 2.0840	24.1280
 2.0850	24.1810
 2.0860	24.2350
 2.0870	24.2870
 2.0880	24.3440
 2.0890	24.4000
 2.0900	24.4600
 2.0910	24.5160
 2.0920	24.5700
 2.0930	24.6280
 2.0940	24.6890
 2.0950	24.7440
 2.0960	24.7990
 2.0970	24.8520
 2.0980	24.8960
 2.0990	24.9450
 2.1000	24.9970
 2.1010	25.0490
 2.1020	25.1060
 2.1030	25.1600
 2.1040	25.2160
 2.1050	25.2680
 2.1060	25.3210
 2.1070	25.3750
 2.1080	25.4260
 2.1090	25.4750
 2.1100	25.5260
 2.1110	25.5750
 2.1120	25.6260
 2.1130	25.6830
 2.1140	25.7350
 2.1150	25.7870
 2.1160	25.8370
 2.1170	25.8830
 2.1180	25.9330
 2.1190	25.9860
 2.1200	26.0360
 2.1210	26.0860
 2.1220	26.1350
 2.1230	26.1820
 2.1240	26.2240
 2.1250	26.2690
 2.1260	26.3160
 2.1270	26.3610
 2.1280	26.4070
 2.1290	26.4500
 2.1300	26.4930
 2.1310	26.5320
 2.1320	26.5670
 2.1330	26.6050
 2.1340	26.6400
 2.1350	26.6770
 2.1360	26.7190
 2.1370	26.7570
 2.1380	26.7940
 2.1390	26.8290
 2.1400	26.8640
 2.1410	26.8910
 2.1420	26.9230
 2.1430	26.9530
 2.1440	26.9850
 2.1450	27.0170
 2.1460	27.0490
 2.1470	27.0810
 2.1480	27.1140
 2.1490	27.1500
 2.1500	27.1840
 2.1510	27.2200
 2.1520	27.2510
 2.1530	27.2790
 2.1540	27.3070
 2.1550	27.3310
 2.1560	27.3580
 2.1570	27.3880
 2.1580	27.4150
 2.1590	27.4420
 2.1600	27.4660
 2.1610	27.4890
 2.1620	27.5110
 2.1630	27.5330
 2.1640	27.5550
 2.1650	27.5770
 2.1660	27.5980
 2.1670	27.6180
 2.1680	27.6370
 2.1690	27.6570
 2.1700	27.6730
 2.1710	27.6940
 2.1720	27.7170
 2.1730	27.7380
 2.1740	27.7610
 2.1750	27.7820
 2.1760	27.8000
 2.1770	27.8200
 2.1780	27.8400
 2.1790	27.8600
 2.1800	27.8810
 2.1810	27.9000
 2.1820	27.9190
 2.1830	27.9380
 2.1840	27.9560
 2.1850	27.9700
 2.1860	27.9930
 2.1870	28.0190
 2.1880	28.0450
 2.1890	28.0790
 2.1900	28.1020
 2.1910	28.1200
 2.1920	28.1390
 2.1930	28.1530
 2.1940	28.1690
 2.1950	28.1890
 2.1960	28.2040
 2.1970	28.2140
 2.1980	28.2280
 2.1990	28.2400
 2.2000	28.2540
 2.2010	28.2730
 2.2020	28.2910
 2.2030	28.3100
 2.2040	28.3260
 2.2050	28.3410
 2.2060	28.3560
 2.2070	28.3690
 2.2080	28.3790
 2.2090	28.3890
 2.2100	28.3990
 2.2110	28.4060
 2.2120	28.4100
 2.2130	28.4170
 2.2140	28.4230
 2.2150	28.4290
 2.2160	28.4400
 2.2170	28.4470
 2.2180	28.4530
 2.2190	28.4560
 2.2200	28.4550
 2.2210	28.4540
 2.2220	28.4490
 2.2230	28.4450
 2.2240	28.4460
 2.2250	28.4410
 2.2260	28.4340
 2.2270	28.4230
 2.2280	28.4060
 2.2290	28.3890
 2.2300	28.3690
 2.2310	28.3500
 2.2320	28.3270
 2.2330	28.3050
 2.2340	28.2770
 2.2350	28.2470
 2.2360	28.2130
 2.2370	28.1740
 2.2380	28.1360
 2.2390	28.0980
 2.2400	28.0560
 2.2410	28.0120
 2.2420	27.9660
 2.2430	27.9110
 2.2440	27.8620
 2.2450	27.8170
 2.2460	27.7650
 2.2470	27.7140
 2.2480	27.6570
 2.2490	27.5920
 2.2500	27.5290
 2.2510	27.4690
 2.2520	27.4010
 2.2530	27.3250
 2.2540	27.2540
 2.2550	27.1790
 2.2560	27.1080
 2.2570	27.0450
 2.2580	26.9780
 2.2590	26.9090
 2.2600	26.8390
 2.2610	26.7690
 2.2620	26.6970
 2.2630	26.6240
 2.2640	26.5530
 2.2650	26.4840
 2.2660	26.4170
 2.2670	26.3520
 2.2680	26.2910
 2.2690	26.2290
 2.2700	26.1680
 2.2710	26.1070
 2.2720	26.0490
 2.2730	25.9910
 2.2740	25.9330
 2.2750	25.8800
 2.2760	25.8290
 2.2770	25.7800
 2.2780	25.7340
 2.2790	25.6900
 2.2800	25.6520
 2.2810	25.6080
 2.2820	25.5680
 2.2830	25.5220
 2.2840	25.4660
 2.2850	25.4190
 2.2860	25.3780
 2.2870	25.3300
 2.2880	25.2840
 2.2890	25.2340
 2.2900	25.1750
 2.2910	25.1220
 2.2920	25.0760
 2.2930	25.0220
 2.2940	24.9650
 2.2950	24.9070
 2.2960	24.8420
 2.2970	24.7810
 2.2980	24.7260
 2.2990	24.6610
 2.3000	24.5990
 2.3010	24.5310
 2.3020	24.4630
 2.3030	24.4020
 2.3040	24.3390
 2.3050	24.2830
 2.3060	24.2310
 2.3070	24.1790
 2.3080	24.1410
 2.3090	24.1030
 2.3100	24.0700
 2.3110	24.0490
 2.3120	24.0270
 2.3130	24.0120
 2.3140	23.9930
 2.3150	23.9730
 2.3160	23.9590
 2.3170	23.9430
 2.3180	23.9330
 2.3190	23.9340
 2.3200	23.9250
 2.3210	23.9180
 2.3220	23.8990
 2.3230	23.8710
 2.3240	23.8420
 2.3250	23.8050
 2.3260	23.7670
 2.3270	23.7240
 2.3280	23.6830
 2.3290	23.6400
 2.3300	23.5990
 2.3310	23.5630
 2.3320	23.5230
 2.3330	23.4780
 2.3340	23.4350
 2.3350	23.3930
 2.3360	23.3460
 2.3370	23.2960
 2.3380	23.2490
 2.3390	23.2000
 2.3400	23.1510
 2.3410	23.1040
 2.3420	23.0550
 2.3430	23.0010
 2.3440	22.9490
 2.3450	22.8950
 2.3460	22.8430
 2.3470	22.7870
 2.3480	22.7390
 2.3490	22.6910
 2.3500	22.6520
 2.3510	22.6290
 2.3520	22.5990
 2.3530	22.5720
 2.3540	22.5430
 2.3550	22.5120
 2.3560	22.4800
 2.3570	22.4490
 2.3580	22.4180
 2.3590	22.3900
 2.3600	22.3580
 2.3610	22.3260
 2.3620	22.2970
 2.3630	22.2610
 2.3640	22.2300
 2.3650	22.1870
 2.3660	22.1370
 2.3670	22.0970
 2.3680	22.0410
 2.3690	21.9860
 2.3700	21.9480
 2.3710	21.9040
 2.3720	21.8580
 2.3730	21.8220
 2.3740	21.7830
 2.3750	21.7500
 2.3760	21.7200
 2.3770	21.6840
 2.3780	21.6420
 2.3790	21.5860
 2.3800	21.5340
 2.3810	21.4830
 2.3820	21.4360
 2.3830	21.3980
 2.3840	21.3530
 2.3850	21.3080
 2.3860	21.2710
 2.3870	21.2280
 2.3880	21.1840
 2.3890	21.1390
 2.3900	21.0920
 2.3910	21.0480
 2.3920	20.9980
 2.3930	20.9560
 2.3940	20.9280
 2.3950	20.9000
 2.3960	20.8680
 2.3970	20.8320
 2.3980	20.7840
 2.3990	20.7350
 2.4000	20.6900
 2.4010	20.6450
 2.4020	20.6060
 2.4030	20.5650
 2.4040	20.5220
 2.4050	20.4860
 2.4060	20.4360
 2.4070	20.3810
 2.4080	20.3300
 2.4090	20.2780
 2.4100	20.2410
 2.4110	20.2050
 2.4120	20.1610
 2.4130	20.1110
 2.4140	20.0470
 2.4150	19.9870
 2.4160	19.9330
 2.4170	19.8900
 2.4180	19.8440
 2.4190	19.7900
 2.4200	19.7480
 2.4210	19.6940
 2.4220	19.6520
 2.4230	19.6380
 2.4240	19.6070
 2.4250	19.5710
 2.4260	19.5290
 2.4270	19.4660
 2.4280	19.3960
 2.4290	19.3260
 2.4300	19.2720
 2.4310	19.2160
 2.4320	19.1620
 2.4330	19.1220
 2.4340	19.0690
 2.4350	19.0230
 2.4360	18.9780
 2.4370	18.9210
 2.4380	18.8730
 2.4390	18.8430
 2.4400	18.8020
 2.4410	18.7460
 2.4420	18.6980
 2.4430	18.6340
 2.4440	18.5840
 2.4450	18.5620
 2.4460	18.5260
 2.4470	18.4830
 2.4480	18.4350
 2.4490	18.3790
 2.4500	18.3280
 2.4510	18.2760
 2.4520	18.2240
 2.4530	18.1870
 2.4540	18.1510
 2.4550	18.1070
 2.4560	18.0590
 2.4570	18.0160
 2.4580	17.9670
 2.4590	17.9050
 2.4600	17.8450
 2.4610	17.7900
 2.4620	17.7320
 2.4630	17.6840
 2.4640	17.6410
 2.4650	17.5880
 2.4660	17.5500
 2.4670	17.5130
 2.4680	17.4800
 2.4690	17.4160
 2.4700	17.3760
 2.4710	17.3700
 2.4720	17.3350
 2.4730	17.2900
 2.4740	17.2570
 2.4750	17.2010
 2.4760	17.1600
 2.4770	17.1570
 2.4780	17.1270
 2.4790	17.0890
 2.4800	17.0610
 2.4810	17.0170
 2.4820	17.0020
 2.4830	16.9830
 2.4840	16.9490
 2.4850	16.9230
 2.4860	16.9240
 2.4870	16.9150
 2.4880	16.9280
 2.4890	16.9140
 2.4900	16.8000
 2.4910	16.7160
 2.4920	16.6680
 2.4930	16.6670
 2.4940	16.7450
 2.4950	16.7990
 2.4960	16.8100
 2.4970	16.7950
 2.4980	16.7440
 2.4990	16.6850
 2.5000	16.6730
