Name: Tsuga canadensis
Type: Vegetation
Class: Tree
Genus: Tsuga
Species: canadensis
Sample No.: TSCA-2-53
Owner: UCSB
Wavelength Range: VSWIR
Origin: USA; Massachusetts; Harvard Forest
Collection Date: 7/8/2013
Description: Samples were collected as part of NSF Macrosystem Biology proposal titled: Collaborative Research: Thermal controls on ecosystem metabolism and function: scaling from leaves to canopies to regions. Samples were collected and overnighted to JPL facilities for processing. The same leaves were processed in the Nicolet and then measured using the ASD.
Measurement: Bidirectional reflectance
First Column: X
Second Column: Y
X Units: Wavelength (micrometers)
Y Units: Reflectance (percentage)
First X Value: 0.35
Last X Value: 2.5
Number of X Values: 2151
Additional Information: vegetation.tree.tsuga.canadensis.vswir.tsca-2-53.ucsb.asd.ancillary.txt

 0.3500	 2.6570
 0.3510	 2.4930
 0.3520	 2.3460
 0.3530	 2.4400
 0.3540	 2.7680
 0.3550	 2.6790
 0.3560	 2.4730
 0.3570	 2.3460
 0.3580	 2.4020
 0.3590	 2.4920
 0.3600	 2.4840
 0.3610	 2.3710
 0.3620	 2.2960
 0.3630	 2.3540
 0.3640	 2.3710
 0.3650	 2.2420
 0.3660	 2.4110
 0.3670	 2.3890
 0.3680	 2.2280
 0.3690	 2.3230
 0.3700	 2.3970
 0.3710	 2.3570
 0.3720	 2.2560
 0.3730	 2.3790
 0.3740	 2.3930
 0.3750	 2.3490
 0.3760	 2.3660
 0.3770	 2.2460
 0.3780	 2.1970
 0.3790	 2.2730
 0.3800	 2.3750
 0.3810	 2.4680
 0.3820	 2.4390
 0.3830	 2.3030
 0.3840	 2.3620
 0.3850	 2.4290
 0.3860	 2.3900
 0.3870	 2.2210
 0.3880	 2.2470
 0.3890	 2.3160
 0.3900	 2.3440
 0.3910	 2.3460
 0.3920	 2.3340
 0.3930	 2.3050
 0.3940	 2.2730
 0.3950	 2.3100
 0.3960	 2.3190
 0.3970	 2.3000
 0.3980	 2.2980
 0.3990	 2.3340
 0.4000	 2.3430
 0.4010	 2.3230
 0.4020	 2.3750
 0.4030	 2.3770
 0.4040	 2.3690
 0.4050	 2.3980
 0.4060	 2.4170
 0.4070	 2.4230
 0.4080	 2.4190
 0.4090	 2.4230
 0.4100	 2.4760
 0.4110	 2.4840
 0.4120	 2.4320
 0.4130	 2.4890
 0.4140	 2.5290
 0.4150	 2.5470
 0.4160	 2.5610
 0.4170	 2.5060
 0.4180	 2.5160
 0.4190	 2.5850
 0.4200	 2.5790
 0.4210	 2.5930
 0.4220	 2.6100
 0.4230	 2.6060
 0.4240	 2.6000
 0.4250	 2.6210
 0.4260	 2.6510
 0.4270	 2.6530
 0.4280	 2.6300
 0.4290	 2.6520
 0.4300	 2.7130
 0.4310	 2.6990
 0.4320	 2.7000
 0.4330	 2.7010
 0.4340	 2.6810
 0.4350	 2.7070
 0.4360	 2.7200
 0.4370	 2.7090
 0.4380	 2.6970
 0.4390	 2.7060
 0.4400	 2.7120
 0.4410	 2.7020
 0.4420	 2.6940
 0.4430	 2.7100
 0.4440	 2.7280
 0.4450	 2.7200
 0.4460	 2.7350
 0.4470	 2.7510
 0.4480	 2.7590
 0.4490	 2.7710
 0.4500	 2.7620
 0.4510	 2.7540
 0.4520	 2.7660
 0.4530	 2.7700
 0.4540	 2.7770
 0.4550	 2.7870
 0.4560	 2.7930
 0.4570	 2.7900
 0.4580	 2.7870
 0.4590	 2.7910
 0.4600	 2.7930
 0.4610	 2.7890
 0.4620	 2.7930
 0.4630	 2.8110
 0.4640	 2.8030
 0.4650	 2.8000
 0.4660	 2.8100
 0.4670	 2.8080
 0.4680	 2.8240
 0.4690	 2.8280
 0.4700	 2.8050
 0.4710	 2.8220
 0.4720	 2.8180
 0.4730	 2.7990
 0.4740	 2.8040
 0.4750	 2.7970
 0.4760	 2.8010
 0.4770	 2.8190
 0.4780	 2.8010
 0.4790	 2.8060
 0.4800	 2.8210
 0.4810	 2.8250
 0.4820	 2.8290
 0.4830	 2.8320
 0.4840	 2.8370
 0.4850	 2.8480
 0.4860	 2.8560
 0.4870	 2.8590
 0.4880	 2.8600
 0.4890	 2.8630
 0.4900	 2.8730
 0.4910	 2.8840
 0.4920	 2.8890
 0.4930	 2.8940
 0.4940	 2.9060
 0.4950	 2.9260
 0.4960	 2.9470
 0.4970	 2.9600
 0.4980	 2.9710
 0.4990	 2.9930
 0.5000	 3.0240
 0.5010	 3.0540
 0.5020	 3.0840
 0.5030	 3.1210
 0.5040	 3.1590
 0.5050	 3.2020
 0.5060	 3.2550
 0.5070	 3.3110
 0.5080	 3.3760
 0.5090	 3.4500
 0.5100	 3.5340
 0.5110	 3.6290
 0.5120	 3.7230
 0.5130	 3.8170
 0.5140	 3.9350
 0.5150	 4.0610
 0.5160	 4.1970
 0.5170	 4.3460
 0.5180	 4.5070
 0.5190	 4.6610
 0.5200	 4.8160
 0.5210	 4.9970
 0.5220	 5.1610
 0.5230	 5.3170
 0.5240	 5.4720
 0.5250	 5.6180
 0.5260	 5.7570
 0.5270	 5.8870
 0.5280	 6.0060
 0.5290	 6.1180
 0.5300	 6.2140
 0.5310	 6.2950
 0.5320	 6.3810
 0.5330	 6.4490
 0.5340	 6.5010
 0.5350	 6.5420
 0.5360	 6.5860
 0.5370	 6.6250
 0.5380	 6.6600
 0.5390	 6.6920
 0.5400	 6.7270
 0.5410	 6.7580
 0.5420	 6.7820
 0.5430	 6.8130
 0.5440	 6.8430
 0.5450	 6.8680
 0.5460	 6.8830
 0.5470	 6.8940
 0.5480	 6.9000
 0.5490	 6.9020
 0.5500	 6.9050
 0.5510	 6.9140
 0.5520	 6.9170
 0.5530	 6.9030
 0.5540	 6.8850
 0.5550	 6.8540
 0.5560	 6.8100
 0.5570	 6.7590
 0.5580	 6.6980
 0.5590	 6.6320
 0.5600	 6.5620
 0.5610	 6.4840
 0.5620	 6.4050
 0.5630	 6.3180
 0.5640	 6.2170
 0.5650	 6.1160
 0.5660	 6.0180
 0.5670	 5.9180
 0.5680	 5.8080
 0.5690	 5.6990
 0.5700	 5.5940
 0.5710	 5.4930
 0.5720	 5.3970
 0.5730	 5.3000
 0.5740	 5.2060
 0.5750	 5.1240
 0.5760	 5.0410
 0.5770	 4.9700
 0.5780	 4.9160
 0.5790	 4.8630
 0.5800	 4.8090
 0.5810	 4.7530
 0.5820	 4.6960
 0.5830	 4.6520
 0.5840	 4.6120
 0.5850	 4.5700
 0.5860	 4.5320
 0.5870	 4.4930
 0.5880	 4.4570
 0.5890	 4.4270
 0.5900	 4.3990
 0.5910	 4.3730
 0.5920	 4.3510
 0.5930	 4.3300
 0.5940	 4.3090
 0.5950	 4.2920
 0.5960	 4.2790
 0.5970	 4.2620
 0.5980	 4.2440
 0.5990	 4.2270
 0.6000	 4.2110
 0.6010	 4.1890
 0.6020	 4.1640
 0.6030	 4.1380
 0.6040	 4.1120
 0.6050	 4.0920
 0.6060	 4.0700
 0.6070	 4.0410
 0.6080	 4.0070
 0.6090	 3.9770
 0.6100	 3.9550
 0.6110	 3.9380
 0.6120	 3.9040
 0.6130	 3.8650
 0.6140	 3.8290
 0.6150	 3.7880
 0.6160	 3.7560
 0.6170	 3.7300
 0.6180	 3.7040
 0.6190	 3.6770
 0.6200	 3.6610
 0.6210	 3.6500
 0.6220	 3.6280
 0.6230	 3.6140
 0.6240	 3.6020
 0.6250	 3.5890
 0.6260	 3.5900
 0.6270	 3.5880
 0.6280	 3.5840
 0.6290	 3.5840
 0.6300	 3.5730
 0.6310	 3.5650
 0.6320	 3.5630
 0.6330	 3.5560
 0.6340	 3.5440
 0.6350	 3.5270
 0.6360	 3.5070
 0.6370	 3.4840
 0.6380	 3.4570
 0.6390	 3.4280
 0.6400	 3.4000
 0.6410	 3.3630
 0.6420	 3.3270
 0.6430	 3.2970
 0.6440	 3.2660
 0.6450	 3.2380
 0.6460	 3.2110
 0.6470	 3.1830
 0.6480	 3.1680
 0.6490	 3.1520
 0.6500	 3.1340
 0.6510	 3.1220
 0.6520	 3.1130
 0.6530	 3.1040
 0.6540	 3.0940
 0.6550	 3.0880
 0.6560	 3.0810
 0.6570	 3.0710
 0.6580	 3.0610
 0.6590	 3.0540
 0.6600	 3.0420
 0.6610	 3.0250
 0.6620	 3.0140
 0.6630	 3.0030
 0.6640	 2.9940
 0.6650	 2.9920
 0.6660	 2.9910
 0.6670	 2.9890
 0.6680	 2.9880
 0.6690	 2.9920
 0.6700	 2.9970
 0.6710	 3.0050
 0.6720	 3.0180
 0.6730	 3.0370
 0.6740	 3.0480
 0.6750	 3.0610
 0.6760	 3.0860
 0.6770	 3.1060
 0.6780	 3.1290
 0.6790	 3.1560
 0.6800	 3.1860
 0.6810	 3.2190
 0.6820	 3.2540
 0.6830	 3.2890
 0.6840	 3.3230
 0.6850	 3.3660
 0.6860	 3.4180
 0.6870	 3.4740
 0.6880	 3.5350
 0.6890	 3.6180
 0.6900	 3.7280
 0.6910	 3.8610
 0.6920	 4.0280
 0.6930	 4.2370
 0.6940	 4.4950
 0.6950	 4.8090
 0.6960	 5.1760
 0.6970	 5.6030
 0.6980	 6.0920
 0.6990	 6.6400
 0.7000	 7.2420
 0.7010	 7.8950
 0.7020	 8.5950
 0.7030	 9.3390
 0.7040	10.1220
 0.7050	10.9370
 0.7060	11.7860
 0.7070	12.6590
 0.7080	13.5560
 0.7090	14.4820
 0.7100	15.4190
 0.7110	16.3790
 0.7120	17.3630
 0.7130	18.3530
 0.7140	19.3530
 0.7150	20.3640
 0.7160	21.3830
 0.7170	22.3970
 0.7180	23.4190
 0.7190	24.4410
 0.7200	25.4520
 0.7210	26.4610
 0.7220	27.4600
 0.7230	28.4460
 0.7240	29.4150
 0.7250	30.3670
 0.7260	31.2900
 0.7270	32.1790
 0.7280	33.0550
 0.7290	33.8950
 0.7300	34.7040
 0.7310	35.4900
 0.7320	36.2300
 0.7330	36.9390
 0.7340	37.6200
 0.7350	38.2680
 0.7360	38.8840
 0.7370	39.4640
 0.7380	40.0110
 0.7390	40.5370
 0.7400	41.0280
 0.7410	41.4870
 0.7420	41.9190
 0.7430	42.3180
 0.7440	42.6930
 0.7450	43.0460
 0.7460	43.3630
 0.7470	43.6490
 0.7480	43.9170
 0.7490	44.1740
 0.7500	44.4190
 0.7510	44.6280
 0.7520	44.8120
 0.7530	44.9880
 0.7540	45.1480
 0.7550	45.2930
 0.7560	45.4240
 0.7570	45.5460
 0.7580	45.6530
 0.7590	45.7500
 0.7600	45.8410
 0.7610	45.9240
 0.7620	45.9950
 0.7630	46.0610
 0.7640	46.1280
 0.7650	46.1730
 0.7660	46.2200
 0.7670	46.2670
 0.7680	46.3020
 0.7690	46.3370
 0.7700	46.3770
 0.7710	46.4170
 0.7720	46.4430
 0.7730	46.4640
 0.7740	46.4830
 0.7750	46.5020
 0.7760	46.5310
 0.7770	46.5560
 0.7780	46.5800
 0.7790	46.6120
 0.7800	46.6260
 0.7810	46.6410
 0.7820	46.6600
 0.7830	46.6720
 0.7840	46.6910
 0.7850	46.7160
 0.7860	46.7400
 0.7870	46.7560
 0.7880	46.7730
 0.7890	46.7910
 0.7900	46.8060
 0.7910	46.8190
 0.7920	46.8380
 0.7930	46.8560
 0.7940	46.8620
 0.7950	46.8810
 0.7960	46.9010
 0.7970	46.9150
 0.7980	46.9340
 0.7990	46.9550
 0.8000	46.9700
 0.8010	46.9800
 0.8020	46.9970
 0.8030	47.0070
 0.8040	47.0160
 0.8050	47.0360
 0.8060	47.0350
 0.8070	47.0460
 0.8080	47.0730
 0.8090	47.0920
 0.8100	47.0970
 0.8110	47.1050
 0.8120	47.1220
 0.8130	47.1310
 0.8140	47.1410
 0.8150	47.1570
 0.8160	47.1780
 0.8170	47.1780
 0.8180	47.1870
 0.8190	47.2070
 0.8200	47.2280
 0.8210	47.2460
 0.8220	47.2610
 0.8230	47.2680
 0.8240	47.2600
 0.8250	47.2780
 0.8260	47.2950
 0.8270	47.3000
 0.8280	47.3130
 0.8290	47.3300
 0.8300	47.3400
 0.8310	47.3370
 0.8320	47.3430
 0.8330	47.3650
 0.8340	47.3880
 0.8350	47.3960
 0.8360	47.4020
 0.8370	47.4180
 0.8380	47.4410
 0.8390	47.4530
 0.8400	47.4690
 0.8410	47.4800
 0.8420	47.4920
 0.8430	47.5340
 0.8440	47.5500
 0.8450	47.5600
 0.8460	47.5810
 0.8470	47.6010
 0.8480	47.6080
 0.8490	47.6210
 0.8500	47.6560
 0.8510	47.6680
 0.8520	47.6790
 0.8530	47.6970
 0.8540	47.7170
 0.8550	47.7250
 0.8560	47.7360
 0.8570	47.7560
 0.8580	47.7750
 0.8590	47.7880
 0.8600	47.8010
 0.8610	47.8180
 0.8620	47.8270
 0.8630	47.8410
 0.8640	47.8580
 0.8650	47.8690
 0.8660	47.8730
 0.8670	47.8890
 0.8680	47.9070
 0.8690	47.9120
 0.8700	47.9290
 0.8710	47.9490
 0.8720	47.9640
 0.8730	47.9710
 0.8740	47.9820
 0.8750	47.9930
 0.8760	48.0000
 0.8770	48.0050
 0.8780	48.0250
 0.8790	48.0360
 0.8800	48.0320
 0.8810	48.0390
 0.8820	48.0660
 0.8830	48.0750
 0.8840	48.0530
 0.8850	48.0600
 0.8860	48.0850
 0.8870	48.1070
 0.8880	48.1100
 0.8890	48.1160
 0.8900	48.1150
 0.8910	48.1150
 0.8920	48.1240
 0.8930	48.1300
 0.8940	48.1370
 0.8950	48.1460
 0.8960	48.1580
 0.8970	48.1650
 0.8980	48.1650
 0.8990	48.1590
 0.9000	48.1520
 0.9010	48.1580
 0.9020	48.1670
 0.9030	48.1690
 0.9040	48.1620
 0.9050	48.1760
 0.9060	48.1820
 0.9070	48.1690
 0.9080	48.1800
 0.9090	48.1830
 0.9100	48.1820
 0.9110	48.1820
 0.9120	48.1720
 0.9130	48.1850
 0.9140	48.1960
 0.9150	48.1830
 0.9160	48.1920
 0.9170	48.1910
 0.9180	48.1820
 0.9190	48.1790
 0.9200	48.1660
 0.9210	48.1710
 0.9220	48.1700
 0.9230	48.1310
 0.9240	48.1280
 0.9250	48.1250
 0.9260	48.1090
 0.9270	48.0930
 0.9280	48.0790
 0.9290	48.0490
 0.9300	48.0090
 0.9310	47.9920
 0.9320	47.9980
 0.9330	47.9780
 0.9340	47.9250
 0.9350	47.8890
 0.9360	47.8600
 0.9370	47.8300
 0.9380	47.7940
 0.9390	47.7610
 0.9400	47.7080
 0.9410	47.6590
 0.9420	47.6290
 0.9430	47.5910
 0.9440	47.5370
 0.9450	47.4770
 0.9460	47.4220
 0.9470	47.3780
 0.9480	47.2990
 0.9490	47.2150
 0.9500	47.1560
 0.9510	47.0840
 0.9520	47.0030
 0.9530	46.9060
 0.9540	46.7930
 0.9550	46.6880
 0.9560	46.5950
 0.9570	46.5130
 0.9580	46.4380
 0.9590	46.3670
 0.9600	46.2880
 0.9610	46.2220
 0.9620	46.1910
 0.9630	46.1610
 0.9640	46.1030
 0.9650	46.0540
 0.9660	46.0540
 0.9670	46.0420
 0.9680	46.0300
 0.9690	46.0100
 0.9700	45.9750
 0.9710	45.9730
 0.9720	45.9800
 0.9730	45.9880
 0.9740	45.9930
 0.9750	45.9800
 0.9760	45.9640
 0.9770	45.9580
 0.9780	45.9740
 0.9790	46.0070
 0.9800	46.0450
 0.9810	46.0710
 0.9820	46.0760
 0.9830	46.0950
 0.9840	46.0870
 0.9850	46.0910
 0.9860	46.1560
 0.9870	46.1900
 0.9880	46.2140
 0.9890	46.2410
 0.9900	46.2760
 0.9910	46.3160
 0.9920	46.3860
 0.9930	46.4560
 0.9940	46.5260
 0.9950	46.5960
 0.9960	46.6660
 0.9970	46.7360
 0.9980	46.8060
 0.9990	46.8760
 1.0000	46.9460
 1.0010	47.0160
 1.0020	47.0860
 1.0030	47.1570
 1.0040	47.2270
 1.0050	47.2970
 1.0060	47.3670
 1.0070	47.4370
 1.0080	47.5070
 1.0090	47.5770
 1.0100	47.5770
 1.0110	47.6280
 1.0120	47.6780
 1.0130	47.7280
 1.0140	47.7760
 1.0150	47.8270
 1.0160	47.8740
 1.0170	47.9230
 1.0180	47.9670
 1.0190	48.0010
 1.0200	48.0350
 1.0210	48.0660
 1.0220	48.1080
 1.0230	48.1520
 1.0240	48.2080
 1.0250	48.2540
 1.0260	48.2990
 1.0270	48.3400
 1.0280	48.3790
 1.0290	48.4160
 1.0300	48.4490
 1.0310	48.4840
 1.0320	48.5190
 1.0330	48.5500
 1.0340	48.5860
 1.0350	48.6290
 1.0360	48.6650
 1.0370	48.6970
 1.0380	48.7240
 1.0390	48.7410
 1.0400	48.7670
 1.0410	48.7930
 1.0420	48.8230
 1.0430	48.8600
 1.0440	48.8910
 1.0450	48.9240
 1.0460	48.9500
 1.0470	48.9650
 1.0480	48.9870
 1.0490	49.0110
 1.0500	49.0350
 1.0510	49.0620
 1.0520	49.0910
 1.0530	49.1160
 1.0540	49.1380
 1.0550	49.1570
 1.0560	49.1740
 1.0570	49.1900
 1.0580	49.2010
 1.0590	49.2150
 1.0600	49.2320
 1.0610	49.2460
 1.0620	49.2580
 1.0630	49.2720
 1.0640	49.2840
 1.0650	49.2970
 1.0660	49.3120
 1.0670	49.3250
 1.0680	49.3370
 1.0690	49.3470
 1.0700	49.3590
 1.0710	49.3740
 1.0720	49.3800
 1.0730	49.3840
 1.0740	49.3880
 1.0750	49.3840
 1.0760	49.3870
 1.0770	49.3960
 1.0780	49.4030
 1.0790	49.4130
 1.0800	49.4160
 1.0810	49.4140
 1.0820	49.4130
 1.0830	49.4080
 1.0840	49.4020
 1.0850	49.3980
 1.0860	49.3910
 1.0870	49.3830
 1.0880	49.3710
 1.0890	49.3630
 1.0900	49.3570
 1.0910	49.3490
 1.0920	49.3430
 1.0930	49.3330
 1.0940	49.3190
 1.0950	49.3100
 1.0960	49.3020
 1.0970	49.2930
 1.0980	49.2890
 1.0990	49.2820
 1.1000	49.2730
 1.1010	49.2610
 1.1020	49.2490
 1.1030	49.2320
 1.1040	49.2130
 1.1050	49.1990
 1.1060	49.1780
 1.1070	49.1540
 1.1080	49.1330
 1.1090	49.1110
 1.1100	49.0880
 1.1110	49.0680
 1.1120	49.0470
 1.1130	49.0270
 1.1140	49.0020
 1.1150	48.9780
 1.1160	48.9470
 1.1170	48.9040
 1.1180	48.8640
 1.1190	48.8240
 1.1200	48.7810
 1.1210	48.7320
 1.1220	48.6820
 1.1230	48.6220
 1.1240	48.5550
 1.1250	48.4760
 1.1260	48.3880
 1.1270	48.2930
 1.1280	48.1870
 1.1290	48.0760
 1.1300	47.9670
 1.1310	47.8360
 1.1320	47.6920
 1.1330	47.5360
 1.1340	47.3640
 1.1350	47.1830
 1.1360	46.9920
 1.1370	46.7940
 1.1380	46.5800
 1.1390	46.3600
 1.1400	46.1350
 1.1410	45.9040
 1.1420	45.6740
 1.1430	45.4420
 1.1440	45.2110
 1.1450	44.9730
 1.1460	44.7480
 1.1470	44.5220
 1.1480	44.3110
 1.1490	44.1090
 1.1500	43.9190
 1.1510	43.7330
 1.1520	43.5680
 1.1530	43.4190
 1.1540	43.2810
 1.1550	43.1570
 1.1560	43.0460
 1.1570	42.9440
 1.1580	42.8530
 1.1590	42.7770
 1.1600	42.7100
 1.1610	42.6510
 1.1620	42.6010
 1.1630	42.5580
 1.1640	42.5230
 1.1650	42.4910
 1.1660	42.4660
 1.1670	42.4440
 1.1680	42.4260
 1.1690	42.4080
 1.1700	42.3950
 1.1710	42.3800
 1.1720	42.3630
 1.1730	42.3470
 1.1740	42.3330
 1.1750	42.3140
 1.1760	42.2970
 1.1770	42.2840
 1.1780	42.2660
 1.1790	42.2510
 1.1800	42.2330
 1.1810	42.2080
 1.1820	42.1870
 1.1830	42.1610
 1.1840	42.1380
 1.1850	42.1190
 1.1860	42.0970
 1.1870	42.0800
 1.1880	42.0640
 1.1890	42.0480
 1.1900	42.0360
 1.1910	42.0290
 1.1920	42.0220
 1.1930	42.0150
 1.1940	42.0160
 1.1950	42.0210
 1.1960	42.0270
 1.1970	42.0360
 1.1980	42.0490
 1.1990	42.0630
 1.2000	42.0790
 1.2010	42.0960
 1.2020	42.1180
 1.2030	42.1420
 1.2040	42.1660
 1.2050	42.1890
 1.2060	42.2170
 1.2070	42.2460
 1.2080	42.2800
 1.2090	42.3190
 1.2100	42.3610
 1.2110	42.4030
 1.2120	42.4450
 1.2130	42.4890
 1.2140	42.5350
 1.2150	42.5820
 1.2160	42.6310
 1.2170	42.6810
 1.2180	42.7330
 1.2190	42.7850
 1.2200	42.8360
 1.2210	42.8940
 1.2220	42.9480
 1.2230	43.0020
 1.2240	43.0630
 1.2250	43.1190
 1.2260	43.1780
 1.2270	43.2380
 1.2280	43.2950
 1.2290	43.3490
 1.2300	43.3990
 1.2310	43.4520
 1.2320	43.5010
 1.2330	43.5460
 1.2340	43.5910
 1.2350	43.6340
 1.2360	43.6760
 1.2370	43.7160
 1.2380	43.7590
 1.2390	43.8000
 1.2400	43.8420
 1.2410	43.8850
 1.2420	43.9250
 1.2430	43.9610
 1.2440	43.9970
 1.2450	44.0290
 1.2460	44.0580
 1.2470	44.0890
 1.2480	44.1170
 1.2490	44.1430
 1.2500	44.1740
 1.2510	44.2040
 1.2520	44.2270
 1.2530	44.2480
 1.2540	44.2690
 1.2550	44.2860
 1.2560	44.3030
 1.2570	44.3260
 1.2580	44.3390
 1.2590	44.3520
 1.2600	44.3660
 1.2610	44.3790
 1.2620	44.3880
 1.2630	44.4010
 1.2640	44.4120
 1.2650	44.4180
 1.2660	44.4270
 1.2670	44.4300
 1.2680	44.4310
 1.2690	44.4350
 1.2700	44.4310
 1.2710	44.4260
 1.2720	44.4210
 1.2730	44.4120
 1.2740	44.4060
 1.2750	44.3960
 1.2760	44.3830
 1.2770	44.3660
 1.2780	44.3430
 1.2790	44.3240
 1.2800	44.3040
 1.2810	44.2790
 1.2820	44.2510
 1.2830	44.2170
 1.2840	44.1800
 1.2850	44.1460
 1.2860	44.1130
 1.2870	44.0740
 1.2880	44.0350
 1.2890	43.9890
 1.2900	43.9390
 1.2910	43.8860
 1.2920	43.8360
 1.2930	43.7840
 1.2940	43.7250
 1.2950	43.6620
 1.2960	43.5920
 1.2970	43.5240
 1.2980	43.4550
 1.2990	43.3770
 1.3000	43.2930
 1.3010	43.2060
 1.3020	43.1190
 1.3030	43.0260
 1.3040	42.9310
 1.3050	42.8320
 1.3060	42.7270
 1.3070	42.6160
 1.3080	42.5000
 1.3090	42.3830
 1.3100	42.2600
 1.3110	42.1320
 1.3120	42.0000
 1.3130	41.8640
 1.3140	41.7210
 1.3150	41.5720
 1.3160	41.4190
 1.3170	41.2640
 1.3180	41.1000
 1.3190	40.9280
 1.3200	40.7570
 1.3210	40.5790
 1.3220	40.4020
 1.3230	40.2230
 1.3240	40.0370
 1.3250	39.8450
 1.3260	39.6470
 1.3270	39.4420
 1.3280	39.2370
 1.3290	39.0300
 1.3300	38.8200
 1.3310	38.6100
 1.3320	38.3970
 1.3330	38.1830
 1.3340	37.9710
 1.3350	37.7590
 1.3360	37.5450
 1.3370	37.3270
 1.3380	37.1110
 1.3390	36.8960
 1.3400	36.6830
 1.3410	36.4760
 1.3420	36.2700
 1.3430	36.0640
 1.3440	35.8590
 1.3450	35.6580
 1.3460	35.4550
 1.3470	35.2610
 1.3480	35.0720
 1.3490	34.8840
 1.3500	34.7000
 1.3510	34.5150
 1.3520	34.3290
 1.3530	34.1430
 1.3540	33.9600
 1.3550	33.7780
 1.3560	33.5950
 1.3570	33.4110
 1.3580	33.2230
 1.3590	33.0310
 1.3600	32.8330
 1.3610	32.6280
 1.3620	32.4200
 1.3630	32.2050
 1.3640	31.9840
 1.3650	31.7550
 1.3660	31.5200
 1.3670	31.2700
 1.3680	31.0070
 1.3690	30.7310
 1.3700	30.4330
 1.3710	30.1210
 1.3720	29.7940
 1.3730	29.4440
 1.3740	29.0810
 1.3750	28.6960
 1.3760	28.2850
 1.3770	27.8500
 1.3780	27.3850
 1.3790	26.8980
 1.3800	26.3890
 1.3810	25.8510
 1.3820	25.2970
 1.3830	24.7240
 1.3840	24.1360
 1.3850	23.5270
 1.3860	22.9150
 1.3870	22.2850
 1.3880	21.6600
 1.3890	21.0300
 1.3900	20.3970
 1.3910	19.7760
 1.3920	19.1570
 1.3930	18.5440
 1.3940	17.9470
 1.3950	17.3580
 1.3960	16.7860
 1.3970	16.2340
 1.3980	15.6990
 1.3990	15.1910
 1.4000	14.7070
 1.4010	14.2430
 1.4020	13.8070
 1.4030	13.3930
 1.4040	13.0010
 1.4050	12.6370
 1.4060	12.2960
 1.4070	11.9800
 1.4080	11.6870
 1.4090	11.4140
 1.4100	11.1630
 1.4110	10.9290
 1.4120	10.7120
 1.4130	10.5160
 1.4140	10.3360
 1.4150	10.1720
 1.4160	10.0230
 1.4170	 9.8840
 1.4180	 9.7580
 1.4190	 9.6420
 1.4200	 9.5370
 1.4210	 9.4410
 1.4220	 9.3530
 1.4230	 9.2730
 1.4240	 9.2010
 1.4250	 9.1350
 1.4260	 9.0780
 1.4270	 9.0260
 1.4280	 8.9820
 1.4290	 8.9420
 1.4300	 8.9080
 1.4310	 8.8790
 1.4320	 8.8550
 1.4330	 8.8330
 1.4340	 8.8160
 1.4350	 8.8020
 1.4360	 8.7910
 1.4370	 8.7830
 1.4380	 8.7770
 1.4390	 8.7750
 1.4400	 8.7750
 1.4410	 8.7750
 1.4420	 8.7790
 1.4430	 8.7860
 1.4440	 8.7930
 1.4450	 8.8030
 1.4460	 8.8150
 1.4470	 8.8280
 1.4480	 8.8420
 1.4490	 8.8580
 1.4500	 8.8750
 1.4510	 8.8910
 1.4520	 8.9110
 1.4530	 8.9310
 1.4540	 8.9520
 1.4550	 8.9760
 1.4560	 9.0010
 1.4570	 9.0270
 1.4580	 9.0550
 1.4590	 9.0860
 1.4600	 9.1200
 1.4610	 9.1580
 1.4620	 9.2010
 1.4630	 9.2460
 1.4640	 9.2960
 1.4650	 9.3490
 1.4660	 9.4060
 1.4670	 9.4680
 1.4680	 9.5350
 1.4690	 9.6040
 1.4700	 9.6770
 1.4710	 9.7530
 1.4720	 9.8310
 1.4730	 9.9140
 1.4740	10.0000
 1.4750	10.0890
 1.4760	10.1820
 1.4770	10.2750
 1.4780	10.3690
 1.4790	10.4670
 1.4800	10.5660
 1.4810	10.6680
 1.4820	10.7740
 1.4830	10.8790
 1.4840	10.9870
 1.4850	11.0950
 1.4860	11.2040
 1.4870	11.3160
 1.4880	11.4280
 1.4890	11.5420
 1.4900	11.6570
 1.4910	11.7720
 1.4920	11.8890
 1.4930	12.0080
 1.4940	12.1270
 1.4950	12.2500
 1.4960	12.3700
 1.4970	12.4880
 1.4980	12.6080
 1.4990	12.7250
 1.5000	12.8460
 1.5010	12.9700
 1.5020	13.0920
 1.5030	13.2170
 1.5040	13.3400
 1.5050	13.4610
 1.5060	13.5850
 1.5070	13.7110
 1.5080	13.8360
 1.5090	13.9640
 1.5100	14.0890
 1.5110	14.2110
 1.5120	14.3350
 1.5130	14.4580
 1.5140	14.5830
 1.5150	14.7090
 1.5160	14.8310
 1.5170	14.9510
 1.5180	15.0690
 1.5190	15.1890
 1.5200	15.3100
 1.5210	15.4300
 1.5220	15.5530
 1.5230	15.6750
 1.5240	15.7940
 1.5250	15.9120
 1.5260	16.0310
 1.5270	16.1480
 1.5280	16.2640
 1.5290	16.3800
 1.5300	16.4940
 1.5310	16.6070
 1.5320	16.7190
 1.5330	16.8330
 1.5340	16.9460
 1.5350	17.0590
 1.5360	17.1720
 1.5370	17.2840
 1.5380	17.3950
 1.5390	17.5060
 1.5400	17.6130
 1.5410	17.7220
 1.5420	17.8320
 1.5430	17.9400
 1.5440	18.0490
 1.5450	18.1570
 1.5460	18.2630
 1.5470	18.3700
 1.5480	18.4770
 1.5490	18.5830
 1.5500	18.6870
 1.5510	18.7920
 1.5520	18.8960
 1.5530	19.0000
 1.5540	19.1040
 1.5550	19.2050
 1.5560	19.3040
 1.5570	19.4030
 1.5580	19.5000
 1.5590	19.5990
 1.5600	19.6970
 1.5610	19.7940
 1.5620	19.8900
 1.5630	19.9850
 1.5640	20.0790
 1.5650	20.1730
 1.5660	20.2650
 1.5670	20.3570
 1.5680	20.4490
 1.5690	20.5390
 1.5700	20.6290
 1.5710	20.7190
 1.5720	20.8070
 1.5730	20.8970
 1.5740	20.9850
 1.5750	21.0710
 1.5760	21.1570
 1.5770	21.2430
 1.5780	21.3290
 1.5790	21.4130
 1.5800	21.4970
 1.5810	21.5810
 1.5820	21.6620
 1.5830	21.7450
 1.5840	21.8310
 1.5850	21.9140
 1.5860	21.9970
 1.5870	22.0810
 1.5880	22.1630
 1.5890	22.2450
 1.5900	22.3260
 1.5910	22.4080
 1.5920	22.4880
 1.5930	22.5660
 1.5940	22.6450
 1.5950	22.7250
 1.5960	22.8030
 1.5970	22.8810
 1.5980	22.9600
 1.5990	23.0380
 1.6000	23.1150
 1.6010	23.1940
 1.6020	23.2700
 1.6030	23.3470
 1.6040	23.4230
 1.6050	23.4970
 1.6060	23.5690
 1.6070	23.6400
 1.6080	23.7120
 1.6090	23.7820
 1.6100	23.8520
 1.6110	23.9230
 1.6120	23.9910
 1.6130	24.0570
 1.6140	24.1240
 1.6150	24.1910
 1.6160	24.2550
 1.6170	24.3170
 1.6180	24.3780
 1.6190	24.4380
 1.6200	24.4940
 1.6210	24.5520
 1.6220	24.6110
 1.6230	24.6660
 1.6240	24.7210
 1.6250	24.7750
 1.6260	24.8270
 1.6270	24.8780
 1.6280	24.9320
 1.6290	24.9810
 1.6300	25.0270
 1.6310	25.0730
 1.6320	25.1170
 1.6330	25.1600
 1.6340	25.2030
 1.6350	25.2450
 1.6360	25.2850
 1.6370	25.3260
 1.6380	25.3660
 1.6390	25.4080
 1.6400	25.4540
 1.6410	25.4940
 1.6420	25.5330
 1.6430	25.5670
 1.6440	25.5930
 1.6450	25.6220
 1.6460	25.6480
 1.6470	25.6730
 1.6480	25.6950
 1.6490	25.7110
 1.6500	25.7260
 1.6510	25.7360
 1.6520	25.7450
 1.6530	25.7530
 1.6540	25.7580
 1.6550	25.7620
 1.6560	25.7620
 1.6570	25.7590
 1.6580	25.7520
 1.6590	25.7420
 1.6600	25.7310
 1.6610	25.7180
 1.6620	25.7060
 1.6630	25.6960
 1.6640	25.6820
 1.6650	25.6690
 1.6660	25.6570
 1.6670	25.6420
 1.6680	25.6280
 1.6690	25.6150
 1.6700	25.6000
 1.6710	25.5880
 1.6720	25.5720
 1.6730	25.5510
 1.6740	25.5300
 1.6750	25.5070
 1.6760	25.4840
 1.6770	25.4580
 1.6780	25.4280
 1.6790	25.3910
 1.6800	25.3510
 1.6810	25.3120
 1.6820	25.2700
 1.6830	25.2260
 1.6840	25.1810
 1.6850	25.1310
 1.6860	25.0810
 1.6870	25.0270
 1.6880	24.9730
 1.6890	24.9170
 1.6900	24.8610
 1.6910	24.8070
 1.6920	24.7500
 1.6930	24.6940
 1.6940	24.6360
 1.6950	24.5750
 1.6960	24.5160
 1.6970	24.4570
 1.6980	24.3990
 1.6990	24.3420
 1.7000	24.2840
 1.7010	24.2250
 1.7020	24.1670
 1.7030	24.1090
 1.7040	24.0500
 1.7050	23.9910
 1.7060	23.9310
 1.7070	23.8710
 1.7080	23.8100
 1.7090	23.7480
 1.7100	23.6860
 1.7110	23.6220
 1.7120	23.5600
 1.7130	23.5010
 1.7140	23.4420
 1.7150	23.3860
 1.7160	23.3310
 1.7170	23.2740
 1.7180	23.2200
 1.7190	23.1650
 1.7200	23.1070
 1.7210	23.0530
 1.7220	22.9990
 1.7230	22.9430
 1.7240	22.8890
 1.7250	22.8370
 1.7260	22.7850
 1.7270	22.7340
 1.7280	22.6850
 1.7290	22.6370
 1.7300	22.5910
 1.7310	22.5450
 1.7320	22.5000
 1.7330	22.4550
 1.7340	22.4100
 1.7350	22.3640
 1.7360	22.3210
 1.7370	22.2720
 1.7380	22.2220
 1.7390	22.1700
 1.7400	22.1140
 1.7410	22.0580
 1.7420	22.0000
 1.7430	21.9430
 1.7440	21.8860
 1.7450	21.8230
 1.7460	21.7590
 1.7470	21.6900
 1.7480	21.6130
 1.7490	21.5400
 1.7500	21.4670
 1.7510	21.3930
 1.7520	21.3190
 1.7530	21.2420
 1.7540	21.1610
 1.7550	21.0840
 1.7560	21.0080
 1.7570	20.9330
 1.7580	20.8610
 1.7590	20.7870
 1.7600	20.7140
 1.7610	20.6470
 1.7620	20.5790
 1.7630	20.5110
 1.7640	20.4480
 1.7650	20.3880
 1.7660	20.3320
 1.7670	20.2840
 1.7680	20.2340
 1.7690	20.1860
 1.7700	20.1380
 1.7710	20.0900
 1.7720	20.0450
 1.7730	20.0000
 1.7740	19.9590
 1.7750	19.9210
 1.7760	19.8830
 1.7770	19.8490
 1.7780	19.8120
 1.7790	19.7740
 1.7800	19.7410
 1.7810	19.7090
 1.7820	19.6820
 1.7830	19.6600
 1.7840	19.6400
 1.7850	19.6240
 1.7860	19.6090
 1.7870	19.5980
 1.7880	19.5790
 1.7890	19.5650
 1.7900	19.5560
 1.7910	19.5460
 1.7920	19.5400
 1.7930	19.5340
 1.7940	19.5240
 1.7950	19.5180
 1.7960	19.5150
 1.7970	19.5140
 1.7980	19.5160
 1.7990	19.5180
 1.8000	19.5240
 1.8010	19.5290
 1.8020	19.5370
 1.8030	19.5430
 1.8040	19.5490
 1.8050	19.5550
 1.8060	19.5600
 1.8070	19.5650
 1.8080	19.5700
 1.8090	19.5750
 1.8100	19.5810
 1.8110	19.5870
 1.8120	19.5940
 1.8130	19.5950
 1.8140	19.5930
 1.8150	19.5860
 1.8160	19.5780
 1.8170	19.5720
 1.8180	19.5680
 1.8190	19.5680
 1.8200	19.5640
 1.8210	19.5580
 1.8220	19.5510
 1.8230	19.5390
 1.8240	19.5290
 1.8250	19.5210
 1.8260	19.5080
 1.8270	19.4380
 1.8280	19.3690
 1.8290	19.2990
 1.8300	19.2300
 1.8310	19.1600
 1.8320	19.0900
 1.8330	19.0210
 1.8340	18.9510
 1.8350	18.9510
 1.8360	18.9020
 1.8370	18.8410
 1.8380	18.7830
 1.8390	18.7160
 1.8400	18.6420
 1.8410	18.5620
 1.8420	18.4770
 1.8430	18.3810
 1.8440	18.2830
 1.8450	18.1740
 1.8460	18.0570
 1.8470	17.9380
 1.8480	17.8060
 1.8490	17.6660
 1.8500	17.5140
 1.8510	17.3530
 1.8520	17.1700
 1.8530	16.9780
 1.8540	16.7800
 1.8550	16.5670
 1.8560	16.3440
 1.8570	16.1070
 1.8580	15.8520
 1.8590	15.5890
 1.8600	15.3150
 1.8610	15.0300
 1.8620	14.7320
 1.8630	14.4290
 1.8640	14.1100
 1.8650	13.7740
 1.8660	13.4270
 1.8670	13.0620
 1.8680	12.6840
 1.8690	12.2970
 1.8700	11.8960
 1.8710	11.4840
 1.8720	11.0700
 1.8730	10.6520
 1.8740	10.2320
 1.8750	 9.8210
 1.8760	 9.4070
 1.8770	 8.9970
 1.8780	 8.5970
 1.8790	 8.2000
 1.8800	 7.8160
 1.8810	 7.4420
 1.8820	 7.0770
 1.8830	 6.7170
 1.8840	 6.3740
 1.8850	 6.0430
 1.8860	 5.7270
 1.8870	 5.4320
 1.8880	 5.1510
 1.8890	 4.8870
 1.8900	 4.6410
 1.8910	 4.4100
 1.8920	 4.1960
 1.8930	 3.9990
 1.8940	 3.8160
 1.8950	 3.6470
 1.8960	 3.4930
 1.8970	 3.3560
 1.8980	 3.2400
 1.8990	 3.1350
 1.9000	 3.0360
 1.9010	 2.9530
 1.9020	 2.8720
 1.9030	 2.7950
 1.9040	 2.7290
 1.9050	 2.6740
 1.9060	 2.6240
 1.9070	 2.5820
 1.9080	 2.5470
 1.9090	 2.5130
 1.9100	 2.4860
 1.9110	 2.4610
 1.9120	 2.4420
 1.9130	 2.4210
 1.9140	 2.4010
 1.9150	 2.3810
 1.9160	 2.3640
 1.9170	 2.3520
 1.9180	 2.3460
 1.9190	 2.3420
 1.9200	 2.3350
 1.9210	 2.3290
 1.9220	 2.3260
 1.9230	 2.3220
 1.9240	 2.3210
 1.9250	 2.3230
 1.9260	 2.3240
 1.9270	 2.3270
 1.9280	 2.3270
 1.9290	 2.3280
 1.9300	 2.3310
 1.9310	 2.3340
 1.9320	 2.3380
 1.9330	 2.3450
 1.9340	 2.3550
 1.9350	 2.3630
 1.9360	 2.3720
 1.9370	 2.3820
 1.9380	 2.3910
 1.9390	 2.4010
 1.9400	 2.4150
 1.9410	 2.4280
 1.9420	 2.4360
 1.9430	 2.4520
 1.9440	 2.4670
 1.9450	 2.4850
 1.9460	 2.5020
 1.9470	 2.5210
 1.9480	 2.5370
 1.9490	 2.5500
 1.9500	 2.5670
 1.9510	 2.5770
 1.9520	 2.5910
 1.9530	 2.6090
 1.9540	 2.6230
 1.9550	 2.6450
 1.9560	 2.6760
 1.9570	 2.7000
 1.9580	 2.7240
 1.9590	 2.7470
 1.9600	 2.7660
 1.9610	 2.7870
 1.9620	 2.8100
 1.9630	 2.8310
 1.9640	 2.8570
 1.9650	 2.8810
 1.9660	 2.9020
 1.9670	 2.9280
 1.9680	 2.9560
 1.9690	 2.9820
 1.9700	 3.0110
 1.9710	 3.0460
 1.9720	 3.0770
 1.9730	 3.1100
 1.9740	 3.1360
 1.9750	 3.1610
 1.9760	 3.1880
 1.9770	 3.2210
 1.9780	 3.2550
 1.9790	 3.2890
 1.9800	 3.3270
 1.9810	 3.3630
 1.9820	 3.3940
 1.9830	 3.4280
 1.9840	 3.4670
 1.9850	 3.5030
 1.9860	 3.5360
 1.9870	 3.5710
 1.9880	 3.6070
 1.9890	 3.6440
 1.9900	 3.6810
 1.9910	 3.7180
 1.9920	 3.7560
 1.9930	 3.7940
 1.9940	 3.8320
 1.9950	 3.8740
 1.9960	 3.9140
 1.9970	 3.9500
 1.9980	 3.9910
 1.9990	 4.0380
 2.0000	 4.0810
 2.0010	 4.1270
 2.0020	 4.1730
 2.0030	 4.2150
 2.0040	 4.2540
 2.0050	 4.2950
 2.0060	 4.3340
 2.0070	 4.3750
 2.0080	 4.4150
 2.0090	 4.4550
 2.0100	 4.4960
 2.0110	 4.5370
 2.0120	 4.5790
 2.0130	 4.6240
 2.0140	 4.6680
 2.0150	 4.7060
 2.0160	 4.7470
 2.0170	 4.7860
 2.0180	 4.8270
 2.0190	 4.8700
 2.0200	 4.9100
 2.0210	 4.9470
 2.0220	 4.9860
 2.0230	 5.0260
 2.0240	 5.0640
 2.0250	 5.1020
 2.0260	 5.1410
 2.0270	 5.1760
 2.0280	 5.2150
 2.0290	 5.2570
 2.0300	 5.3020
 2.0310	 5.3410
 2.0320	 5.3790
 2.0330	 5.4150
 2.0340	 5.4440
 2.0350	 5.4790
 2.0360	 5.5160
 2.0370	 5.5520
 2.0380	 5.5910
 2.0390	 5.6260
 2.0400	 5.6590
 2.0410	 5.6920
 2.0420	 5.7230
 2.0430	 5.7550
 2.0440	 5.7870
 2.0450	 5.8210
 2.0460	 5.8540
 2.0470	 5.8900
 2.0480	 5.9220
 2.0490	 5.9520
 2.0500	 5.9810
 2.0510	 6.0040
 2.0520	 6.0330
 2.0530	 6.0630
 2.0540	 6.0960
 2.0550	 6.1340
 2.0560	 6.1730
 2.0570	 6.2070
 2.0580	 6.2380
 2.0590	 6.2680
 2.0600	 6.2920
 2.0610	 6.3230
 2.0620	 6.3540
 2.0630	 6.3870
 2.0640	 6.4230
 2.0650	 6.4560
 2.0660	 6.4870
 2.0670	 6.5220
 2.0680	 6.5580
 2.0690	 6.5930
 2.0700	 6.6330
 2.0710	 6.6680
 2.0720	 6.7000
 2.0730	 6.7290
 2.0740	 6.7600
 2.0750	 6.7910
 2.0760	 6.8210
 2.0770	 6.8520
 2.0780	 6.8840
 2.0790	 6.9140
 2.0800	 6.9460
 2.0810	 6.9820
 2.0820	 7.0140
 2.0830	 7.0420
 2.0840	 7.0730
 2.0850	 7.1030
 2.0860	 7.1340
 2.0870	 7.1650
 2.0880	 7.2050
 2.0890	 7.2390
 2.0900	 7.2730
 2.0910	 7.3060
 2.0920	 7.3380
 2.0930	 7.3730
 2.0940	 7.4110
 2.0950	 7.4460
 2.0960	 7.4810
 2.0970	 7.5140
 2.0980	 7.5420
 2.0990	 7.5730
 2.1000	 7.6030
 2.1010	 7.6350
 2.1020	 7.6650
 2.1030	 7.6980
 2.1040	 7.7310
 2.1050	 7.7670
 2.1060	 7.8040
 2.1070	 7.8430
 2.1080	 7.8810
 2.1090	 7.9210
 2.1100	 7.9570
 2.1110	 7.9940
 2.1120	 8.0270
 2.1130	 8.0560
 2.1140	 8.0870
 2.1150	 8.1150
 2.1160	 8.1460
 2.1170	 8.1790
 2.1180	 8.2120
 2.1190	 8.2440
 2.1200	 8.2780
 2.1210	 8.3140
 2.1220	 8.3510
 2.1230	 8.3830
 2.1240	 8.4150
 2.1250	 8.4470
 2.1260	 8.4750
 2.1270	 8.5050
 2.1280	 8.5370
 2.1290	 8.5690
 2.1300	 8.6040
 2.1310	 8.6330
 2.1320	 8.6630
 2.1330	 8.6880
 2.1340	 8.7010
 2.1350	 8.7250
 2.1360	 8.7530
 2.1370	 8.7790
 2.1380	 8.8110
 2.1390	 8.8400
 2.1400	 8.8660
 2.1410	 8.8930
 2.1420	 8.9230
 2.1430	 8.9560
 2.1440	 8.9840
 2.1450	 9.0100
 2.1460	 9.0370
 2.1470	 9.0600
 2.1480	 9.0870
 2.1490	 9.1180
 2.1500	 9.1460
 2.1510	 9.1730
 2.1520	 9.1990
 2.1530	 9.2210
 2.1540	 9.2460
 2.1550	 9.2720
 2.1560	 9.2960
 2.1570	 9.3230
 2.1580	 9.3470
 2.1590	 9.3670
 2.1600	 9.3850
 2.1610	 9.4120
 2.1620	 9.4360
 2.1630	 9.4610
 2.1640	 9.4910
 2.1650	 9.5140
 2.1660	 9.5330
 2.1670	 9.5510
 2.1680	 9.5630
 2.1690	 9.5830
 2.1700	 9.6020
 2.1710	 9.6260
 2.1720	 9.6600
 2.1730	 9.6860
 2.1740	 9.7090
 2.1750	 9.7320
 2.1760	 9.7500
 2.1770	 9.7710
 2.1780	 9.7930
 2.1790	 9.8160
 2.1800	 9.8410
 2.1810	 9.8640
 2.1820	 9.8880
 2.1830	 9.9130
 2.1840	 9.9350
 2.1850	 9.9580
 2.1860	 9.9770
 2.1870	 9.9900
 2.1880	10.0100
 2.1890	10.0310
 2.1900	10.0500
 2.1910	10.0720
 2.1920	10.0910
 2.1930	10.1030
 2.1940	10.1190
 2.1950	10.1360
 2.1960	10.1530
 2.1970	10.1710
 2.1980	10.1860
 2.1990	10.2010
 2.2000	10.2130
 2.2010	10.2170
 2.2020	10.2260
 2.2030	10.2400
 2.2040	10.2500
 2.2050	10.2600
 2.2060	10.2700
 2.2070	10.2770
 2.2080	10.2800
 2.2090	10.2850
 2.2100	10.2890
 2.2110	10.2940
 2.2120	10.2980
 2.2130	10.3020
 2.2140	10.3130
 2.2150	10.3110
 2.2160	10.3020
 2.2170	10.2940
 2.2180	10.2750
 2.2190	10.2670
 2.2200	10.2700
 2.2210	10.2640
 2.2220	10.2590
 2.2230	10.2490
 2.2240	10.2320
 2.2250	10.2160
 2.2260	10.2000
 2.2270	10.1820
 2.2280	10.1600
 2.2290	10.1390
 2.2300	10.1180
 2.2310	10.0920
 2.2320	10.0600
 2.2330	10.0300
 2.2340	10.0000
 2.2350	 9.9670
 2.2360	 9.9360
 2.2370	 9.9110
 2.2380	 9.8740
 2.2390	 9.8310
 2.2400	 9.7880
 2.2410	 9.7410
 2.2420	 9.6970
 2.2430	 9.6490
 2.2440	 9.6060
 2.2450	 9.5660
 2.2460	 9.5190
 2.2470	 9.4720
 2.2480	 9.4220
 2.2490	 9.3630
 2.2500	 9.3100
 2.2510	 9.2590
 2.2520	 9.2050
 2.2530	 9.1520
 2.2540	 9.0970
 2.2550	 9.0390
 2.2560	 8.9800
 2.2570	 8.9200
 2.2580	 8.8590
 2.2590	 8.7980
 2.2600	 8.7370
 2.2610	 8.6740
 2.2620	 8.6180
 2.2630	 8.5650
 2.2640	 8.5040
 2.2650	 8.4450
 2.2660	 8.3900
 2.2670	 8.3360
 2.2680	 8.2830
 2.2690	 8.2310
 2.2700	 8.1860
 2.2710	 8.1340
 2.2720	 8.0790
 2.2730	 8.0310
 2.2740	 7.9810
 2.2750	 7.9410
 2.2760	 7.9100
 2.2770	 7.8790
 2.2780	 7.8550
 2.2790	 7.8290
 2.2800	 7.8040
 2.2810	 7.7790
 2.2820	 7.7570
 2.2830	 7.7320
 2.2840	 7.7110
 2.2850	 7.6830
 2.2860	 7.6520
 2.2870	 7.6170
 2.2880	 7.5710
 2.2890	 7.5370
 2.2900	 7.5090
 2.2910	 7.4760
 2.2920	 7.4480
 2.2930	 7.4160
 2.2940	 7.3760
 2.2950	 7.3380
 2.2960	 7.3050
 2.2970	 7.2680
 2.2980	 7.2310
 2.2990	 7.1870
 2.3000	 7.1420
 2.3010	 7.1040
 2.3020	 7.0590
 2.3030	 7.0200
 2.3040	 6.9900
 2.3050	 6.9540
 2.3060	 6.9180
 2.3070	 6.8940
 2.3080	 6.8680
 2.3090	 6.8400
 2.3100	 6.8270
 2.3110	 6.8120
 2.3120	 6.7940
 2.3130	 6.7800
 2.3140	 6.7610
 2.3150	 6.7380
 2.3160	 6.7130
 2.3170	 6.6860
 2.3180	 6.6610
 2.3190	 6.6320
 2.3200	 6.6110
 2.3210	 6.6010
 2.3220	 6.5790
 2.3230	 6.5520
 2.3240	 6.5280
 2.3250	 6.4970
 2.3260	 6.4720
 2.3270	 6.4540
 2.3280	 6.4330
 2.3290	 6.4140
 2.3300	 6.3860
 2.3310	 6.3510
 2.3320	 6.3230
 2.3330	 6.2970
 2.3340	 6.2660
 2.3350	 6.2400
 2.3360	 6.2090
 2.3370	 6.1660
 2.3380	 6.1270
 2.3390	 6.0840
 2.3400	 6.0520
 2.3410	 6.0220
 2.3420	 5.9940
 2.3430	 5.9830
 2.3440	 5.9550
 2.3450	 5.9140
 2.3460	 5.8800
 2.3470	 5.8370
 2.3480	 5.8060
 2.3490	 5.7860
 2.3500	 5.7650
 2.3510	 5.7490
 2.3520	 5.7360
 2.3530	 5.7310
 2.3540	 5.7130
 2.3550	 5.6900
 2.3560	 5.6610
 2.3570	 5.6210
 2.3580	 5.5770
 2.3590	 5.5540
 2.3600	 5.5250
 2.3610	 5.4930
 2.3620	 5.4820
 2.3630	 5.4630
 2.3640	 5.4470
 2.3650	 5.4340
 2.3660	 5.3980
 2.3670	 5.3620
 2.3680	 5.3340
 2.3690	 5.2990
 2.3700	 5.2790
 2.3710	 5.2540
 2.3720	 5.2250
 2.3730	 5.1890
 2.3740	 5.1540
 2.3750	 5.1300
 2.3760	 5.0880
 2.3770	 5.0660
 2.3780	 5.0540
 2.3790	 5.0210
 2.3800	 5.0070
 2.3810	 4.9900
 2.3820	 4.9490
 2.3830	 4.9410
 2.3840	 4.9210
 2.3850	 4.8730
 2.3860	 4.8530
 2.3870	 4.8160
 2.3880	 4.7840
 2.3890	 4.7710
 2.3900	 4.7490
 2.3910	 4.7430
 2.3920	 4.7130
 2.3930	 4.6700
 2.3940	 4.6460
 2.3950	 4.6090
 2.3960	 4.5890
 2.3970	 4.5760
 2.3980	 4.5470
 2.3990	 4.5180
 2.4000	 4.4770
 2.4010	 4.4440
 2.4020	 4.4330
 2.4030	 4.4170
 2.4040	 4.3950
 2.4050	 4.3730
 2.4060	 4.3330
 2.4070	 4.2890
 2.4080	 4.2530
 2.4090	 4.2210
 2.4100	 4.1930
 2.4110	 4.1580
 2.4120	 4.1300
 2.4130	 4.1130
 2.4140	 4.0900
 2.4150	 4.0960
 2.4160	 4.0990
 2.4170	 4.0720
 2.4180	 4.0520
 2.4190	 4.0040
 2.4200	 3.9440
 2.4210	 3.9130
 2.4220	 3.8910
 2.4230	 3.8740
 2.4240	 3.8650
 2.4250	 3.8610
 2.4260	 3.8560
 2.4270	 3.8430
 2.4280	 3.8250
 2.4290	 3.7820
 2.4300	 3.7370
 2.4310	 3.7070
 2.4320	 3.6660
 2.4330	 3.6360
 2.4340	 3.6060
 2.4350	 3.5520
 2.4360	 3.5290
 2.4370	 3.5210
 2.4380	 3.5090
 2.4390	 3.5130
 2.4400	 3.4870
 2.4410	 3.4600
 2.4420	 3.4110
 2.4430	 3.3330
 2.4440	 3.3110
 2.4450	 3.2790
 2.4460	 3.2360
 2.4470	 3.2480
 2.4480	 3.2320
 2.4490	 3.1800
 2.4500	 3.1610
 2.4510	 3.1600
 2.4520	 3.1510
 2.4530	 3.1620
 2.4540	 3.1810
 2.4550	 3.1270
 2.4560	 3.0620
 2.4570	 3.0370
 2.4580	 3.0040
 2.4590	 2.9900
 2.4600	 2.9830
 2.4610	 2.9770
 2.4620	 2.9520
 2.4630	 2.9280
 2.4640	 2.9370
 2.4650	 2.9130
 2.4660	 2.8790
 2.4670	 2.8790
 2.4680	 2.8390
 2.4690	 2.7500
 2.4700	 2.7260
 2.4710	 2.7040
 2.4720	 2.6990
 2.4730	 2.7470
 2.4740	 2.7700
 2.4750	 2.8060
 2.4760	 2.8030
 2.4770	 2.7930
 2.4780	 2.7910
 2.4790	 2.7340
 2.4800	 2.7090
 2.4810	 2.7240
 2.4820	 2.6950
 2.4830	 2.6900
 2.4840	 2.6830
 2.4850	 2.6330
 2.4860	 2.5650
 2.4870	 2.4790
 2.4880	 2.4170
 2.4890	 2.3800
 2.4900	 2.4100
 2.4910	 2.5270
 2.4920	 2.6060
 2.4930	 2.6990
 2.4940	 2.7290
 2.4950	 2.6480
 2.4960	 2.5620
 2.4970	 2.5230
 2.4980	 2.5980
 2.4990	 2.6410
 2.5000	 2.6790
