Name: Quercus lobata 3
Type: vegetation
Class: Tree
Genus: Quercus
Species: lobata
Sample No.: VH090
Owner: UCSB
Wavelength Range: TIR
Origin: 34.7151; -120.0588; WGS84
Collection Date: 4/21/2013
Description: Samples were collected as part of the HyspIRI Airborne Campaign. 48 individual plants were sampled in three times in 2013 - spring  summer  and fall. The name of the sample includes a 1  2  or 3 which references a different individual of the species. Samples were taken to JPL and processed within 48 hours of collection. The same leaves were processed in the Nicolet and then measured using the ASD.
Measurement: Hemispherical reflectance
First Column: X
Second Column: Y
X Units: Wavelength (micrometers)
Y Units: Reflectance (percentage)
First X Value: 2.501
Last X Value: 15.387
Number of X Values: 1737
Additional Information: vegetation.tree.quercus.lobata.tir.vh090.ucsb.nicolet.ancillary.txt

 2.5010	10.2870
 2.5030	10.2230
 2.5040	10.2520
 2.5050	10.2620
 2.5060	10.2170
 2.5070	10.2160
 2.5090	10.2610
 2.5100	10.2740
 2.5110	10.3310
 2.5120	10.2370
 2.5140	10.2120
 2.5150	10.1750
 2.5160	10.0370
 2.5170	10.0700
 2.5180	10.1450
 2.5200	10.0640
 2.5210	10.0910
 2.5220	10.0600
 2.5230	10.0050
 2.5250	10.0900
 2.5260	10.1970
 2.5270	10.1600
 2.5280	10.1320
 2.5290	10.0810
 2.5310	10.0310
 2.5320	 9.9910
 2.5330	10.0750
 2.5340	10.1220
 2.5360	10.1440
 2.5370	10.0960
 2.5380	10.0800
 2.5390	10.1510
 2.5410	10.2470
 2.5420	10.2690
 2.5430	10.1660
 2.5440	10.1230
 2.5460	10.0650
 2.5470	10.0230
 2.5480	10.1010
 2.5490	10.1280
 2.5510	10.0530
 2.5520	10.0850
 2.5530	10.1860
 2.5540	10.2710
 2.5560	10.2190
 2.5570	10.1010
 2.5580	10.1330
 2.5590	10.1840
 2.5610	10.1840
 2.5620	10.1200
 2.5630	10.1210
 2.5640	10.1920
 2.5660	10.2430
 2.5670	10.1560
 2.5680	10.1350
 2.5700	10.2770
 2.5710	10.2720
 2.5720	10.1710
 2.5730	10.1250
 2.5750	10.0940
 2.5760	10.1340
 2.5770	10.1920
 2.5790	10.3030
 2.5800	10.3040
 2.5810	10.2180
 2.5820	10.1860
 2.5840	 9.9820
 2.5850	 9.9760
 2.5860	10.1730
 2.5880	10.2930
 2.5890	10.2670
 2.5900	10.1400
 2.5910	10.1320
 2.5930	10.0440
 2.5940	 9.9530
 2.5950	 9.9680
 2.5970	10.0480
 2.5980	10.0080
 2.5990	 9.9690
 2.6000	 9.9360
 2.6020	 9.8800
 2.6030	 9.8580
 2.6040	 9.8730
 2.6060	 9.8290
 2.6070	 9.7430
 2.6080	 9.7770
 2.6100	 9.8570
 2.6110	 9.8050
 2.6120	 9.7870
 2.6140	 9.7620
 2.6150	 9.7330
 2.6160	 9.7340
 2.6180	 9.6470
 2.6190	 9.5710
 2.6200	 9.5970
 2.6220	 9.5570
 2.6230	 9.5590
 2.6240	 9.5830
 2.6260	 9.5430
 2.6270	 9.4020
 2.6280	 9.3520
 2.6300	 9.3760
 2.6310	 9.3070
 2.6320	 9.2680
 2.6340	 9.2840
 2.6350	 9.3150
 2.6360	 9.2510
 2.6380	 9.2390
 2.6390	 9.2840
 2.6400	 9.2040
 2.6420	 9.0830
 2.6430	 9.0850
 2.6440	 9.1160
 2.6460	 9.0110
 2.6470	 8.9810
 2.6480	 8.9970
 2.6500	 8.9070
 2.6510	 8.8110
 2.6520	 8.7750
 2.6540	 8.7770
 2.6550	 8.7630
 2.6560	 8.7050
 2.6580	 8.7000
 2.6590	 8.6720
 2.6610	 8.7090
 2.6620	 8.7180
 2.6630	 8.6830
 2.6650	 8.4990
 2.6660	 8.4770
 2.6670	 8.5320
 2.6690	 8.5590
 2.6700	 8.4790
 2.6720	 8.5210
 2.6730	 8.4720
 2.6740	 8.4570
 2.6760	 8.5200
 2.6770	 8.4590
 2.6780	 8.4040
 2.6800	 8.4850
 2.6810	 8.4420
 2.6830	 8.3720
 2.6840	 8.3320
 2.6850	 8.1910
 2.6870	 8.1000
 2.6880	 8.1410
 2.6900	 8.1390
 2.6910	 8.0280
 2.6920	 7.9620
 2.6940	 7.9320
 2.6950	 7.8230
 2.6970	 7.7870
 2.6980	 7.8400
 2.6990	 7.7930
 2.7010	 7.7070
 2.7020	 7.7160
 2.7040	 7.6450
 2.7050	 7.6120
 2.7060	 7.6110
 2.7080	 7.5260
 2.7090	 7.4220
 2.7110	 7.3550
 2.7120	 7.2440
 2.7130	 7.1460
 2.7150	 7.0780
 2.7160	 7.0310
 2.7180	 6.8800
 2.7190	 6.8760
 2.7210	 6.8710
 2.7220	 6.7810
 2.7230	 6.6700
 2.7250	 6.5840
 2.7260	 6.4880
 2.7280	 6.4310
 2.7290	 6.4220
 2.7310	 6.3350
 2.7320	 6.1530
 2.7330	 5.9590
 2.7350	 5.8470
 2.7360	 5.8460
 2.7380	 5.9060
 2.7390	 5.8710
 2.7410	 5.6960
 2.7420	 5.5480
 2.7440	 5.4780
 2.7450	 5.4180
 2.7470	 5.3250
 2.7480	 5.2580
 2.7490	 5.1660
 2.7510	 5.0910
 2.7520	 5.0720
 2.7540	 4.9560
 2.7550	 4.9510
 2.7570	 5.1500
 2.7580	 5.0010
 2.7600	 4.8260
 2.7610	 4.8210
 2.7630	 4.8820
 2.7640	 4.8840
 2.7660	 4.8550
 2.7670	 4.7380
 2.7680	 4.6670
 2.7700	 4.6180
 2.7710	 4.4970
 2.7730	 4.4310
 2.7740	 4.4930
 2.7760	 4.4530
 2.7770	 4.4190
 2.7790	 4.3690
 2.7800	 4.4340
 2.7820	 4.3600
 2.7830	 4.3050
 2.7850	 4.2730
 2.7860	 4.3430
 2.7880	 4.3230
 2.7890	 4.2520
 2.7910	 4.2100
 2.7920	 4.1940
 2.7940	 4.1560
 2.7950	 4.1400
 2.7970	 4.1730
 2.7980	 4.1720
 2.8000	 4.0510
 2.8010	 3.9230
 2.8030	 3.8720
 2.8040	 3.9310
 2.8060	 4.0500
 2.8070	 4.1040
 2.8090	 4.0190
 2.8110	 3.9420
 2.8120	 3.8850
 2.8140	 3.8260
 2.8150	 3.8810
 2.8170	 3.9580
 2.8180	 3.8830
 2.8200	 3.8780
 2.8210	 3.9030
 2.8230	 3.8610
 2.8240	 3.8330
 2.8260	 3.8290
 2.8270	 3.8270
 2.8290	 3.8500
 2.8300	 3.8970
 2.8320	 3.9200
 2.8340	 3.8460
 2.8350	 3.7730
 2.8370	 3.6500
 2.8380	 3.7050
 2.8400	 3.8880
 2.8410	 3.9560
 2.8430	 3.8320
 2.8440	 3.7090
 2.8460	 3.7620
 2.8480	 3.8250
 2.8490	 3.8140
 2.8510	 3.7770
 2.8520	 3.7130
 2.8540	 3.6990
 2.8550	 3.6730
 2.8570	 3.7460
 2.8590	 3.7350
 2.8600	 3.6960
 2.8620	 3.7100
 2.8630	 3.7500
 2.8650	 3.7280
 2.8660	 3.6150
 2.8680	 3.6070
 2.8700	 3.7160
 2.8710	 3.7230
 2.8730	 3.6430
 2.8740	 3.5920
 2.8760	 3.4440
 2.8780	 3.3630
 2.8790	 3.5240
 2.8810	 3.6600
 2.8820	 3.5660
 2.8840	 3.5060
 2.8860	 3.7140
 2.8870	 3.7260
 2.8890	 3.5910
 2.8900	 3.5650
 2.8920	 3.6490
 2.8940	 3.6350
 2.8950	 3.7390
 2.8970	 3.7910
 2.8980	 3.8140
 2.9000	 3.6910
 2.9020	 3.6070
 2.9030	 3.6140
 2.9050	 3.7090
 2.9070	 3.6690
 2.9080	 3.7050
 2.9100	 3.5710
 2.9120	 3.6170
 2.9130	 3.7690
 2.9150	 3.7470
 2.9160	 3.6330
 2.9180	 3.5590
 2.9200	 3.5670
 2.9210	 3.5840
 2.9230	 3.5650
 2.9250	 3.6410
 2.9260	 3.6550
 2.9280	 3.6890
 2.9300	 3.6980
 2.9310	 3.6770
 2.9330	 3.7400
 2.9350	 3.6900
 2.9360	 3.6340
 2.9380	 3.6760
 2.9400	 3.6640
 2.9410	 3.7340
 2.9430	 3.6740
 2.9450	 3.5380
 2.9460	 3.5130
 2.9480	 3.5440
 2.9500	 3.6530
 2.9510	 3.6990
 2.9530	 3.8520
 2.9550	 3.7760
 2.9560	 3.6800
 2.9580	 3.8310
 2.9600	 3.7300
 2.9610	 3.4900
 2.9630	 3.3720
 2.9650	 3.2450
 2.9660	 3.1850
 2.9680	 3.2070
 2.9700	 3.6170
 2.9720	 3.6930
 2.9730	 3.6350
 2.9750	 3.7900
 2.9770	 3.9880
 2.9780	 4.0370
 2.9800	 4.0280
 2.9820	 4.2670
 2.9840	 4.4460
 2.9850	 4.2440
 2.9870	 4.1310
 2.9890	 3.8950
 2.9900	 3.6920
 2.9920	 4.2320
 2.9940	 4.4190
 2.9960	 4.3600
 2.9970	 3.9370
 2.9990	 3.5320
 3.0010	 3.5850
 3.0030	 3.9260
 3.0040	 4.0960
 3.0060	 4.0020
 3.0080	 3.7280
 3.0100	 3.5360
 3.0110	 3.7300
 3.0130	 4.2770
 3.0150	 4.4120
 3.0170	 4.1860
 3.0180	 4.0690
 3.0200	 3.9430
 3.0220	 3.8360
 3.0240	 3.8170
 3.0250	 3.9170
 3.0270	 3.8380
 3.0290	 3.7820
 3.0310	 3.8980
 3.0320	 4.0800
 3.0340	 4.2070
 3.0360	 4.0910
 3.0380	 3.9520
 3.0400	 4.1970
 3.0410	 4.1540
 3.0430	 4.4100
 3.0450	 4.0150
 3.0470	 3.7540
 3.0480	 4.1800
 3.0500	 4.1590
 3.0520	 3.9950
 3.0540	 3.8050
 3.0560	 3.8960
 3.0570	 4.2490
 3.0590	 4.4780
 3.0610	 4.1210
 3.0630	 4.0470
 3.0650	 4.2230
 3.0660	 4.2980
 3.0680	 4.1080
 3.0700	 4.0660
 3.0720	 4.0100
 3.0740	 4.0280
 3.0760	 4.0870
 3.0770	 4.1340
 3.0790	 4.1100
 3.0810	 4.0920
 3.0830	 4.0980
 3.0850	 4.1420
 3.0870	 4.1340
 3.0880	 4.2520
 3.0900	 4.1510
 3.0920	 4.1350
 3.0940	 4.1540
 3.0960	 4.1780
 3.0980	 4.0930
 3.0990	 4.1050
 3.1010	 4.1220
 3.1030	 4.1640
 3.1050	 4.2210
 3.1070	 4.2310
 3.1090	 4.1880
 3.1110	 4.1980
 3.1120	 4.1710
 3.1140	 4.2940
 3.1160	 4.3820
 3.1180	 4.3850
 3.1200	 4.3320
 3.1220	 4.3930
 3.1240	 4.2860
 3.1260	 4.2540
 3.1270	 4.3630
 3.1290	 4.4710
 3.1310	 4.4470
 3.1330	 4.3630
 3.1350	 4.2910
 3.1370	 4.4160
 3.1390	 4.4040
 3.1410	 4.3460
 3.1430	 4.2470
 3.1450	 4.2910
 3.1460	 4.3430
 3.1480	 4.5270
 3.1500	 4.6240
 3.1520	 4.4250
 3.1540	 4.4190
 3.1560	 4.6350
 3.1580	 4.5990
 3.1600	 4.5510
 3.1620	 4.4770
 3.1640	 4.3580
 3.1660	 4.5800
 3.1680	 4.7830
 3.1700	 4.8300
 3.1710	 4.9740
 3.1730	 4.8100
 3.1750	 4.7250
 3.1770	 5.0900
 3.1790	 5.4080
 3.1810	 5.0540
 3.1830	 4.7540
 3.1850	 4.4630
 3.1870	 4.2940
 3.1890	 4.6680
 3.1910	 4.8490
 3.1930	 4.8290
 3.1950	 4.8670
 3.1970	 4.9060
 3.1990	 4.9420
 3.2010	 4.9110
 3.2030	 4.9440
 3.2050	 4.9660
 3.2070	 4.9190
 3.2090	 4.9100
 3.2110	 4.8720
 3.2130	 4.7880
 3.2150	 4.8330
 3.2170	 4.9460
 3.2190	 5.0230
 3.2210	 4.9430
 3.2230	 4.9410
 3.2250	 5.0560
 3.2270	 4.9850
 3.2290	 4.9660
 3.2310	 5.0470
 3.2330	 4.9800
 3.2350	 5.0370
 3.2370	 5.1740
 3.2390	 5.1390
 3.2410	 5.1500
 3.2430	 5.1970
 3.2450	 5.1530
 3.2470	 5.1610
 3.2490	 5.2320
 3.2510	 5.2650
 3.2530	 5.2820
 3.2550	 5.2930
 3.2570	 5.3160
 3.2590	 5.4060
 3.2610	 5.3920
 3.2630	 5.3330
 3.2650	 5.3740
 3.2670	 5.4860
 3.2690	 5.3840
 3.2720	 5.2710
 3.2740	 5.3380
 3.2760	 5.4810
 3.2780	 5.5560
 3.2800	 5.5690
 3.2820	 5.5550
 3.2840	 5.5340
 3.2860	 5.5270
 3.2880	 5.5750
 3.2900	 5.5620
 3.2920	 5.6820
 3.2940	 5.7440
 3.2960	 5.6240
 3.2990	 5.5620
 3.3010	 5.6180
 3.3030	 5.7010
 3.3050	 5.7720
 3.3070	 5.7050
 3.3090	 5.6770
 3.3110	 5.6470
 3.3130	 5.6460
 3.3150	 5.7050
 3.3180	 5.7010
 3.3200	 5.6560
 3.3220	 5.7100
 3.3240	 5.7080
 3.3260	 5.6950
 3.3280	 5.6710
 3.3300	 5.6580
 3.3330	 5.6080
 3.3350	 5.6730
 3.3370	 5.6980
 3.3390	 5.6730
 3.3410	 5.7150
 3.3430	 5.6890
 3.3450	 5.6490
 3.3480	 5.6140
 3.3500	 5.6010
 3.3520	 5.5630
 3.3540	 5.4910
 3.3560	 5.5500
 3.3580	 5.5990
 3.3610	 5.5750
 3.3630	 5.4820
 3.3650	 5.4310
 3.3670	 5.3700
 3.3690	 5.3360
 3.3720	 5.2810
 3.3740	 5.2070
 3.3760	 5.2160
 3.3780	 5.2230
 3.3800	 5.1510
 3.3830	 5.1000
 3.3850	 4.9960
 3.3870	 4.9170
 3.3890	 4.7250
 3.3910	 4.6370
 3.3940	 4.6170
 3.3960	 4.5540
 3.3980	 4.4080
 3.4000	 4.4360
 3.4020	 4.5860
 3.4050	 4.7160
 3.4070	 4.7560
 3.4090	 4.8250
 3.4110	 4.8760
 3.4140	 4.9700
 3.4160	 5.1190
 3.4180	 5.3050
 3.4200	 5.4460
 3.4230	 5.6670
 3.4250	 5.8980
 3.4270	 6.0900
 3.4290	 6.0820
 3.4320	 6.0370
 3.4340	 5.9190
 3.4360	 5.8120
 3.4390	 5.7410
 3.4410	 5.7350
 3.4430	 5.7500
 3.4450	 5.7080
 3.4480	 5.6530
 3.4500	 5.7630
 3.4520	 5.8140
 3.4550	 5.6730
 3.4570	 5.7170
 3.4590	 5.8820
 3.4620	 5.9010
 3.4640	 5.8560
 3.4660	 5.7950
 3.4680	 5.8270
 3.4710	 5.8750
 3.4730	 5.7860
 3.4750	 5.7020
 3.4780	 5.7560
 3.4800	 5.7640
 3.4820	 5.7110
 3.4850	 5.6660
 3.4870	 5.6110
 3.4890	 5.6130
 3.4920	 5.5960
 3.4940	 5.5080
 3.4970	 5.5190
 3.4990	 5.5800
 3.5010	 5.6830
 3.5040	 5.7790
 3.5060	 5.9860
 3.5080	 6.2590
 3.5110	 6.4940
 3.5130	 6.6550
 3.5160	 6.7070
 3.5180	 6.7110
 3.5200	 6.7760
 3.5230	 6.8300
 3.5250	 6.8680
 3.5270	 6.9250
 3.5300	 6.9590
 3.5320	 6.9850
 3.5350	 6.9540
 3.5370	 7.0180
 3.5400	 7.1220
 3.5420	 7.1580
 3.5440	 7.1250
 3.5470	 7.0570
 3.5490	 7.1220
 3.5520	 7.1900
 3.5540	 7.1820
 3.5570	 7.1850
 3.5590	 7.2350
 3.5610	 7.2500
 3.5640	 7.2680
 3.5660	 7.2840
 3.5690	 7.3640
 3.5710	 7.3580
 3.5740	 7.3070
 3.5760	 7.3640
 3.5790	 7.3920
 3.5810	 7.3450
 3.5840	 7.3880
 3.5860	 7.4990
 3.5890	 7.5090
 3.5910	 7.4630
 3.5930	 7.5380
 3.5960	 7.5420
 3.5980	 7.5210
 3.6010	 7.5090
 3.6030	 7.4610
 3.6060	 7.4690
 3.6080	 7.5460
 3.6110	 7.6010
 3.6140	 7.5700
 3.6160	 7.4800
 3.6190	 7.4720
 3.6210	 7.5140
 3.6240	 7.5180
 3.6260	 7.5070
 3.6290	 7.4980
 3.6310	 7.5170
 3.6340	 7.5460
 3.6360	 7.5760
 3.6390	 7.5770
 3.6410	 7.5760
 3.6440	 7.5890
 3.6470	 7.6020
 3.6490	 7.5760
 3.6520	 7.5590
 3.6540	 7.5960
 3.6570	 7.6080
 3.6590	 7.5770
 3.6620	 7.5760
 3.6650	 7.6220
 3.6670	 7.6020
 3.6700	 7.6280
 3.6720	 7.6720
 3.6750	 7.6990
 3.6780	 7.7370
 3.6800	 7.7090
 3.6830	 7.6800
 3.6850	 7.6470
 3.6880	 7.6110
 3.6910	 7.6190
 3.6930	 7.6570
 3.6960	 7.7010
 3.6990	 7.6350
 3.7010	 7.6360
 3.7040	 7.7510
 3.7060	 7.8130
 3.7090	 7.7940
 3.7120	 7.7620
 3.7140	 7.7500
 3.7170	 7.7550
 3.7200	 7.7240
 3.7220	 7.7020
 3.7250	 7.7480
 3.7280	 7.7790
 3.7300	 7.7390
 3.7330	 7.7780
 3.7360	 7.8640
 3.7390	 7.8680
 3.7410	 7.8760
 3.7440	 7.9180
 3.7470	 7.9330
 3.7490	 7.9230
 3.7520	 7.9590
 3.7550	 8.0080
 3.7580	 8.0350
 3.7600	 8.0250
 3.7630	 8.0950
 3.7660	 8.1510
 3.7680	 8.0960
 3.7710	 8.0680
 3.7740	 8.1130
 3.7770	 8.1050
 3.7790	 8.1330
 3.7820	 8.1210
 3.7850	 8.0840
 3.7880	 8.0620
 3.7900	 8.0530
 3.7930	 8.0080
 3.7960	 7.9640
 3.7990	 8.0060
 3.8020	 8.0960
 3.8040	 8.1160
 3.8070	 8.0430
 3.8100	 8.0480
 3.8130	 8.0560
 3.8160	 8.0950
 3.8180	 8.1390
 3.8210	 8.1250
 3.8240	 8.1280
 3.8270	 8.1450
 3.8300	 8.1820
 3.8330	 8.2020
 3.8350	 8.1480
 3.8380	 8.1500
 3.8410	 8.2220
 3.8440	 8.2250
 3.8470	 8.2080
 3.8500	 8.1970
 3.8520	 8.2320
 3.8550	 8.3090
 3.8580	 8.3440
 3.8610	 8.3310
 3.8640	 8.2810
 3.8670	 8.2790
 3.8700	 8.3320
 3.8730	 8.3300
 3.8750	 8.2780
 3.8780	 8.3140
 3.8810	 8.3710
 3.8840	 8.3430
 3.8870	 8.3350
 3.8900	 8.3620
 3.8930	 8.4080
 3.8960	 8.4340
 3.8990	 8.4200
 3.9020	 8.3970
 3.9050	 8.3630
 3.9080	 8.3950
 3.9110	 8.4320
 3.9140	 8.4320
 3.9160	 8.4610
 3.9190	 8.4570
 3.9220	 8.4630
 3.9250	 8.4460
 3.9280	 8.4500
 3.9310	 8.4660
 3.9340	 8.4460
 3.9370	 8.4360
 3.9400	 8.4660
 3.9430	 8.5000
 3.9460	 8.4970
 3.9490	 8.4560
 3.9520	 8.4570
 3.9550	 8.4290
 3.9580	 8.4210
 3.9610	 8.3730
 3.9640	 8.4190
 3.9670	 8.4970
 3.9700	 8.4760
 3.9730	 8.4640
 3.9770	 8.5020
 3.9800	 8.5370
 3.9830	 8.5390
 3.9860	 8.4670
 3.9890	 8.4860
 3.9920	 8.5670
 3.9950	 8.5890
 3.9980	 8.5590
 4.0010	 8.5490
 4.0040	 8.5690
 4.0070	 8.5740
 4.0100	 8.5660
 4.0130	 8.5290
 4.0170	 8.5590
 4.0200	 8.6080
 4.0230	 8.5970
 4.0260	 8.5600
 4.0290	 8.5960
 4.0320	 8.6270
 4.0350	 8.6200
 4.0380	 8.5790
 4.0420	 8.5540
 4.0450	 8.5620
 4.0480	 8.6100
 4.0510	 8.6050
 4.0540	 8.5900
 4.0570	 8.6210
 4.0610	 8.6190
 4.0640	 8.6070
 4.0670	 8.6200
 4.0700	 8.6920
 4.0730	 8.6790
 4.0770	 8.6710
 4.0800	 8.6900
 4.0830	 8.7010
 4.0860	 8.7340
 4.0890	 8.7780
 4.0930	 8.6950
 4.0960	 8.6820
 4.0990	 8.7140
 4.1020	 8.7580
 4.1060	 8.6910
 4.1090	 8.6300
 4.1120	 8.7030
 4.1150	 8.7800
 4.1190	 8.7490
 4.1220	 8.7010
 4.1250	 8.7100
 4.1280	 8.8080
 4.1320	 8.7890
 4.1350	 8.7640
 4.1380	 8.7920
 4.1420	 8.8490
 4.1450	 8.8540
 4.1480	 8.8630
 4.1520	 8.8070
 4.1550	 8.7970
 4.1580	 8.8130
 4.1620	 8.8180
 4.1650	 8.7930
 4.1680	 8.7870
 4.1720	 8.8210
 4.1750	 8.8060
 4.1780	 8.7800
 4.1820	 8.7540
 4.1850	 8.7610
 4.1890	 8.7950
 4.1920	 8.8160
 4.1950	 8.8440
 4.1990	 8.8420
 4.2020	 8.8540
 4.2060	 8.8950
 4.2090	 8.8750
 4.2120	 8.8250
 4.2160	 8.9260
 4.2190	 9.0250
 4.2230	 9.0560
 4.2260	 8.9580
 4.2300	 9.0970
 4.2330	 9.3740
 4.2360	 9.3630
 4.2400	 9.2410
 4.2430	 9.1500
 4.2470	 8.9070
 4.2500	 9.0410
 4.2540	 9.0590
 4.2570	 8.9810
 4.2610	 9.0550
 4.2640	 9.2840
 4.2680	 9.2570
 4.2710	 8.9980
 4.2750	 8.8490
 4.2780	 8.8170
 4.2820	 8.8360
 4.2850	 8.9540
 4.2890	 8.8630
 4.2930	 8.8640
 4.2960	 8.9210
 4.3000	 8.9450
 4.3030	 8.9820
 4.3070	 8.9480
 4.3100	 8.8640
 4.3140	 8.8580
 4.3180	 8.7600
 4.3210	 8.7470
 4.3250	 8.7770
 4.3280	 8.7450
 4.3320	 8.6370
 4.3360	 8.6560
 4.3390	 8.6780
 4.3430	 8.6880
 4.3470	 8.6810
 4.3500	 8.7140
 4.3540	 8.7170
 4.3570	 8.6640
 4.3610	 8.5560
 4.3650	 8.5240
 4.3680	 8.5710
 4.3720	 8.5820
 4.3760	 8.5940
 4.3800	 8.6240
 4.3830	 8.5330
 4.3870	 8.5190
 4.3910	 8.5490
 4.3940	 8.5610
 4.3980	 8.5740
 4.4020	 8.5740
 4.4060	 8.4890
 4.4090	 8.4900
 4.4130	 8.4850
 4.4170	 8.4930
 4.4210	 8.5240
 4.4240	 8.5450
 4.4280	 8.4650
 4.4320	 8.4620
 4.4360	 8.4840
 4.4400	 8.4660
 4.4430	 8.4100
 4.4470	 8.4220
 4.4510	 8.4090
 4.4550	 8.4280
 4.4590	 8.4600
 4.4620	 8.4330
 4.4660	 8.3570
 4.4700	 8.3880
 4.4740	 8.3800
 4.4780	 8.3950
 4.4820	 8.3710
 4.4860	 8.3690
 4.4900	 8.3760
 4.4930	 8.3510
 4.4970	 8.3020
 4.5010	 8.3340
 4.5050	 8.3470
 4.5090	 8.3730
 4.5130	 8.3420
 4.5170	 8.3390
 4.5210	 8.3390
 4.5250	 8.3310
 4.5290	 8.3060
 4.5330	 8.3440
 4.5370	 8.3220
 4.5410	 8.3040
 4.5450	 8.2390
 4.5490	 8.2200
 4.5530	 8.2360
 4.5570	 8.2750
 4.5610	 8.2270
 4.5650	 8.1950
 4.5690	 8.1920
 4.5730	 8.2030
 4.5770	 8.1050
 4.5810	 8.0770
 4.5850	 8.1160
 4.5890	 8.1710
 4.5930	 8.1410
 4.5970	 8.1750
 4.6010	 8.1540
 4.6050	 8.1160
 4.6090	 8.1040
 4.6130	 8.1130
 4.6170	 8.0890
 4.6220	 8.1040
 4.6260	 8.1200
 4.6300	 8.1540
 4.6340	 8.1200
 4.6380	 8.1100
 4.6420	 8.0710
 4.6460	 8.0500
 4.6510	 8.0130
 4.6550	 7.9670
 4.6590	 7.9290
 4.6630	 7.9890
 4.6670	 7.9880
 4.6720	 7.9910
 4.6760	 8.0450
 4.6800	 8.0570
 4.6840	 7.9450
 4.6880	 7.9150
 4.6930	 7.9410
 4.6970	 7.9840
 4.7010	 7.9430
 4.7050	 7.9940
 4.7100	 8.0110
 4.7140	 7.9650
 4.7180	 7.9880
 4.7230	 8.0560
 4.7270	 8.0530
 4.7310	 8.0450
 4.7360	 7.9970
 4.7400	 7.9840
 4.7440	 7.9690
 4.7490	 8.0070
 4.7530	 7.9870
 4.7570	 7.9430
 4.7620	 7.9100
 4.7660	 8.0140
 4.7700	 8.0130
 4.7750	 8.0250
 4.7790	 7.9750
 4.7840	 7.9120
 4.7880	 7.9620
 4.7920	 8.0430
 4.7970	 8.0500
 4.8010	 8.0890
 4.8060	 8.0350
 4.8100	 8.0570
 4.8150	 7.9990
 4.8190	 7.9610
 4.8240	 7.9720
 4.8280	 8.0130
 4.8330	 7.9240
 4.8370	 7.9550
 4.8420	 7.9750
 4.8460	 7.9940
 4.8510	 8.0460
 4.8550	 8.1200
 4.8600	 8.0800
 4.8640	 8.0210
 4.8690	 7.9760
 4.8730	 8.0310
 4.8780	 8.0060
 4.8830	 8.0220
 4.8870	 8.0320
 4.8920	 8.0390
 4.8960	 7.9810
 4.9010	 8.0100
 4.9060	 8.0600
 4.9100	 8.0790
 4.9150	 8.0300
 4.9200	 8.0820
 4.9240	 8.0680
 4.9290	 8.0660
 4.9340	 8.0470
 4.9380	 8.0960
 4.9430	 8.0900
 4.9480	 8.1110
 4.9530	 8.1260
 4.9570	 8.1120
 4.9620	 8.0510
 4.9670	 8.0680
 4.9720	 8.0790
 4.9760	 8.1240
 4.9810	 8.1490
 4.9860	 8.2320
 4.9910	 8.2290
 4.9960	 8.1790
 5.0000	 8.1460
 5.0050	 8.1760
 5.0100	 8.1970
 5.0150	 8.2800
 5.0200	 8.2040
 5.0250	 8.1830
 5.0290	 8.2280
 5.0340	 8.2730
 5.0390	 8.2150
 5.0440	 8.2090
 5.0490	 8.1480
 5.0540	 8.1940
 5.0590	 8.2530
 5.0640	 8.2450
 5.0690	 8.1750
 5.0740	 8.1890
 5.0790	 8.1860
 5.0840	 8.2090
 5.0890	 8.1710
 5.0940	 8.1700
 5.0990	 8.1550
 5.1040	 8.1780
 5.1090	 8.1770
 5.1140	 8.2030
 5.1190	 8.2160
 5.1240	 8.2500
 5.1290	 8.2170
 5.1340	 8.2120
 5.1390	 8.2250
 5.1440	 8.1970
 5.1490	 8.1320
 5.1540	 8.2120
 5.1600	 8.1910
 5.1650	 8.1990
 5.1700	 8.2000
 5.1750	 8.1770
 5.1800	 8.1860
 5.1850	 8.2700
 5.1910	 8.1910
 5.1960	 8.1750
 5.2010	 8.1190
 5.2060	 8.1500
 5.2110	 8.1600
 5.2170	 8.1980
 5.2220	 8.2070
 5.2270	 8.2590
 5.2320	 8.2230
 5.2380	 8.1730
 5.2430	 8.1190
 5.2480	 8.1120
 5.2540	 8.1020
 5.2590	 8.1210
 5.2640	 8.1130
 5.2700	 8.1480
 5.2750	 8.0620
 5.2800	 8.1010
 5.2860	 8.1340
 5.2910	 8.1040
 5.2970	 8.0700
 5.3020	 8.1480
 5.3070	 8.1650
 5.3130	 8.1920
 5.3180	 8.0940
 5.3240	 8.0470
 5.3290	 7.9960
 5.3350	 8.0450
 5.3400	 8.0390
 5.3460	 8.0540
 5.3510	 8.0020
 5.3570	 8.0020
 5.3620	 7.9570
 5.3680	 7.9880
 5.3730	 7.9050
 5.3790	 7.8790
 5.3850	 7.8590
 5.3900	 7.9090
 5.3960	 7.8550
 5.4010	 7.8840
 5.4070	 7.8640
 5.4130	 7.9310
 5.4180	 7.8640
 5.4240	 7.8190
 5.4300	 7.7600
 5.4350	 7.7680
 5.4410	 7.7700
 5.4470	 7.8150
 5.4530	 7.7590
 5.4580	 7.7230
 5.4640	 7.6530
 5.4700	 7.6300
 5.4760	 7.5930
 5.4810	 7.6130
 5.4870	 7.5460
 5.4930	 7.5130
 5.4990	 7.4600
 5.5050	 7.5190
 5.5110	 7.5040
 5.5160	 7.4690
 5.5220	 7.3450
 5.5280	 7.2980
 5.5340	 7.2070
 5.5400	 7.1990
 5.5460	 7.1850
 5.5520	 7.2230
 5.5580	 7.1520
 5.5640	 7.0960
 5.5700	 6.9920
 5.5760	 7.0110
 5.5820	 7.0130
 5.5880	 7.0060
 5.5940	 6.9030
 5.6000	 6.8530
 5.6060	 6.7760
 5.6120	 6.7150
 5.6180	 6.5660
 5.6240	 6.4730
 5.6300	 6.3740
 5.6360	 6.3050
 5.6420	 6.1500
 5.6490	 6.0550
 5.6550	 5.8760
 5.6610	 5.7260
 5.6670	 5.5350
 5.6730	 5.3740
 5.6800	 5.1580
 5.6860	 5.0430
 5.6920	 4.8090
 5.6980	 4.6070
 5.7040	 4.4200
 5.7110	 4.2550
 5.7170	 4.0560
 5.7230	 3.8700
 5.7300	 3.5310
 5.7360	 3.3590
 5.7420	 3.2800
 5.7490	 3.3840
 5.7550	 3.4980
 5.7620	 3.6430
 5.7680	 3.7960
 5.7740	 4.0820
 5.7810	 4.1800
 5.7870	 4.3930
 5.7940	 4.5190
 5.8000	 4.6170
 5.8070	 4.7130
 5.8130	 4.8980
 5.8200	 4.9430
 5.8260	 5.0140
 5.8330	 5.0870
 5.8390	 5.2460
 5.8460	 5.3180
 5.8530	 5.4300
 5.8590	 5.4650
 5.8660	 5.5660
 5.8720	 5.5690
 5.8790	 5.6820
 5.8860	 5.7610
 5.8920	 5.8810
 5.8990	 5.8410
 5.9060	 5.8650
 5.9130	 5.7890
 5.9190	 5.7530
 5.9260	 5.6910
 5.9330	 5.7010
 5.9400	 5.6150
 5.9470	 5.6290
 5.9530	 5.5620
 5.9600	 5.5370
 5.9670	 5.5430
 5.9740	 5.5720
 5.9810	 5.4110
 5.9880	 5.2500
 5.9950	 5.1420
 6.0020	 5.2020
 6.0090	 5.0830
 6.0160	 4.9700
 6.0230	 4.8280
 6.0300	 4.8380
 6.0370	 4.7680
 6.0440	 4.7500
 6.0510	 4.6750
 6.0580	 4.8030
 6.0650	 4.8530
 6.0720	 4.9600
 6.0790	 4.9570
 6.0860	 4.9960
 6.0930	 4.9520
 6.1000	 5.0170
 6.1080	 4.9590
 6.1150	 4.9420
 6.1220	 4.9530
 6.1290	 4.9970
 6.1370	 4.9650
 6.1440	 4.9920
 6.1510	 4.9360
 6.1580	 4.9580
 6.1660	 4.9330
 6.1730	 4.9560
 6.1800	 4.8350
 6.1880	 4.8090
 6.1950	 4.7140
 6.2030	 4.7010
 6.2100	 4.6570
 6.2170	 4.6930
 6.2250	 4.7100
 6.2320	 4.8640
 6.2400	 4.9170
 6.2470	 5.0020
 6.2550	 5.0370
 6.2630	 5.1530
 6.2700	 5.0690
 6.2780	 5.1480
 6.2850	 5.1320
 6.2930	 5.2400
 6.3010	 5.3240
 6.3080	 5.4510
 6.3160	 5.4920
 6.3240	 5.6630
 6.3310	 5.7320
 6.3390	 5.8190
 6.3470	 5.8090
 6.3550	 5.8650
 6.3620	 5.8630
 6.3700	 5.9800
 6.3780	 6.0090
 6.3860	 6.0600
 6.3940	 5.9800
 6.4020	 6.0720
 6.4100	 6.0390
 6.4180	 6.0900
 6.4260	 6.1100
 6.4330	 6.2360
 6.4410	 6.2580
 6.4490	 6.3380
 6.4580	 6.3320
 6.4660	 6.3750
 6.4740	 6.2950
 6.4820	 6.3090
 6.4900	 6.2740
 6.4980	 6.3190
 6.5060	 6.2120
 6.5140	 6.2210
 6.5230	 6.0790
 6.5310	 5.9970
 6.5390	 5.8700
 6.5470	 5.7860
 6.5550	 5.6230
 6.5640	 5.4840
 6.5720	 5.1830
 6.5800	 4.9780
 6.5890	 4.7610
 6.5970	 4.7960
 6.6060	 4.9000
 6.6140	 5.1130
 6.6220	 5.1120
 6.6310	 5.1410
 6.6390	 5.1480
 6.6480	 5.2930
 6.6560	 5.2980
 6.6650	 5.3580
 6.6740	 5.4190
 6.6820	 5.5920
 6.6910	 5.6040
 6.6990	 5.6850
 6.7080	 5.6260
 6.7170	 5.6800
 6.7260	 5.6560
 6.7340	 5.6510
 6.7430	 5.5380
 6.7520	 5.5070
 6.7610	 5.3630
 6.7690	 5.2900
 6.7780	 5.0860
 6.7870	 5.0320
 6.7960	 4.7980
 6.8050	 4.6870
 6.8140	 4.6030
 6.8230	 4.6970
 6.8320	 4.6880
 6.8410	 4.8090
 6.8500	 4.7990
 6.8590	 4.8610
 6.8680	 4.8540
 6.8770	 4.9320
 6.8860	 4.9290
 6.8950	 5.1040
 6.9050	 5.0930
 6.9140	 5.1200
 6.9230	 5.0730
 6.9320	 5.1380
 6.9420	 5.0650
 6.9510	 5.0590
 6.9600	 5.0360
 6.9700	 5.1120
 6.9790	 5.0420
 6.9880	 5.0880
 6.9980	 5.0640
 7.0070	 5.0930
 7.0170	 4.9840
 7.0260	 5.0730
 7.0360	 5.1030
 7.0450	 5.2340
 7.0550	 5.2210
 7.0650	 5.3860
 7.0740	 5.4180
 7.0840	 5.4810
 7.0940	 5.4460
 7.1030	 5.4510
 7.1130	 5.3140
 7.1230	 5.3410
 7.1330	 5.2710
 7.1420	 5.2240
 7.1520	 5.0650
 7.1620	 5.0630
 7.1720	 4.8430
 7.1820	 4.7650
 7.1920	 4.7020
 7.2020	 4.7370
 7.2120	 4.5680
 7.2220	 4.5730
 7.2320	 4.4920
 7.2420	 4.4350
 7.2520	 4.2540
 7.2620	 4.2880
 7.2730	 4.1850
 7.2830	 4.2540
 7.2930	 4.2360
 7.3030	 4.3530
 7.3140	 4.3190
 7.3240	 4.4200
 7.3340	 4.4410
 7.3450	 4.5830
 7.3550	 4.5450
 7.3660	 4.7350
 7.3760	 4.7340
 7.3870	 4.8040
 7.3970	 4.8430
 7.4080	 5.0060
 7.4180	 5.0300
 7.4290	 5.0630
 7.4400	 4.9310
 7.4500	 4.9430
 7.4610	 4.8710
 7.4720	 4.8790
 7.4830	 4.7540
 7.4930	 4.8050
 7.5040	 4.7470
 7.5150	 4.8160
 7.5260	 4.6760
 7.5370	 4.6470
 7.5480	 4.5980
 7.5590	 4.6180
 7.5700	 4.5220
 7.5810	 4.5880
 7.5920	 4.5610
 7.6030	 4.6320
 7.6140	 4.5110
 7.6260	 4.5690
 7.6370	 4.5340
 7.6480	 4.6370
 7.6590	 4.5550
 7.6710	 4.6050
 7.6820	 4.5550
 7.6930	 4.6710
 7.7050	 4.5810
 7.7160	 4.5470
 7.7280	 4.4910
 7.7390	 4.5920
 7.7510	 4.4930
 7.7630	 4.4930
 7.7740	 4.3330
 7.7860	 4.2990
 7.7980	 4.2740
 7.8090	 4.3990
 7.8210	 4.3160
 7.8330	 4.3850
 7.8450	 4.2290
 7.8570	 4.2720
 7.8690	 4.2130
 7.8810	 4.2660
 7.8930	 4.1610
 7.9050	 4.1440
 7.9170	 4.0540
 7.9290	 4.2010
 7.9410	 4.1000
 7.9530	 4.0560
 7.9650	 3.9150
 7.9780	 4.0710
 7.9900	 4.0450
 8.0020	 4.1690
 8.0150	 4.1490
 8.0270	 4.1840
 8.0390	 4.0630
 8.0520	 4.2060
 8.0640	 4.1930
 8.0770	 4.3420
 8.0900	 4.4480
 8.1020	 4.6790
 8.1150	 4.6260
 8.1280	 4.7720
 8.1400	 4.6120
 8.1530	 4.6890
 8.1660	 4.6470
 8.1790	 4.7950
 8.1920	 4.7600
 8.2050	 4.8800
 8.2180	 4.7480
 8.2310	 4.8240
 8.2440	 4.7660
 8.2570	 4.9500
 8.2700	 5.0170
 8.2830	 5.1900
 8.2970	 5.0270
 8.3100	 5.1700
 8.3230	 5.2340
 8.3370	 5.3940
 8.3500	 5.2960
 8.3640	 5.3550
 8.3770	 5.1300
 8.3910	 5.1210
 8.4040	 5.0200
 8.4180	 5.0700
 8.4320	 4.8960
 8.4450	 4.9460
 8.4590	 4.8030
 8.4730	 5.0020
 8.4870	 5.0250
 8.5010	 5.2080
 8.5150	 5.0990
 8.5290	 5.2390
 8.5430	 5.2450
 8.5570	 5.3120
 8.5710	 5.1150
 8.5850	 5.2680
 8.5990	 5.2640
 8.6140	 5.4040
 8.6280	 5.3530
 8.6420	 5.5220
 8.6570	 5.4200
 8.6710	 5.5970
 8.6860	 5.6250
 8.7000	 5.7340
 8.7150	 5.6310
 8.7300	 5.8050
 8.7440	 5.8030
 8.7590	 5.8590
 8.7740	 5.5870
 8.7890	 5.6830
 8.8040	 5.4470
 8.8190	 5.4450
 8.8340	 5.3020
 8.8490	 5.2920
 8.8640	 5.0230
 8.8790	 5.0780
 8.8940	 4.7900
 8.9100	 4.8060
 8.9250	 4.7930
 8.9400	 4.8150
 8.9560	 4.5510
 8.9710	 4.7300
 8.9870	 4.5420
 9.0020	 4.6710
 9.0180	 4.5800
 9.0340	 4.6910
 9.0500	 4.5560
 9.0650	 4.7490
 9.0810	 4.6310
 9.0970	 4.6120
 9.1130	 4.4100
 9.1290	 4.5560
 9.1450	 4.5120
 9.1610	 4.6650
 9.1780	 4.4620
 9.1940	 4.5540
 9.2100	 4.4160
 9.2270	 4.4730
 9.2430	 4.2410
 9.2600	 4.2980
 9.2760	 3.9380
 9.2930	 3.9850
 9.3090	 3.8870
 9.3260	 3.9570
 9.3430	 3.8370
 9.3600	 3.9840
 9.3770	 3.8180
 9.3940	 3.8970
 9.4110	 3.7010
 9.4280	 3.8990
 9.4450	 3.7500
 9.4620	 3.8840
 9.4800	 3.8210
 9.4970	 4.0270
 9.5140	 3.9720
 9.5320	 4.1590
 9.5500	 3.9200
 9.5670	 4.0890
 9.5850	 4.0180
 9.6030	 4.1070
 9.6200	 4.0430
 9.6380	 4.3620
 9.6560	 4.3150
 9.6740	 4.5160
 9.6920	 4.4540
 9.7100	 4.6990
 9.7290	 4.7760
 9.7470	 5.0360
 9.7650	 4.9190
 9.7840	 5.1250
 9.8020	 5.1030
 9.8210	 5.3590
 9.8390	 5.3290
 9.8580	 5.4780
 9.8770	 5.4640
 9.8960	 5.6180
 9.9150	 5.5530
 9.9340	 5.8570
 9.9530	 5.7420
 9.9720	 5.8540
 9.9910	 5.7090
10.0100	 5.8270
10.0300	 5.7970
10.0490	 6.0120
10.0690	 5.9260
10.0880	 6.0960
10.1080	 6.0280
10.1280	 6.2860
10.1480	 6.4860
10.1670	 6.9100
10.1870	 6.8830
10.2070	 7.0340
10.2280	 6.9280
10.2480	 7.1530
10.2680	 7.1590
10.2890	 7.3790
10.3090	 7.2650
10.3300	 7.3940
10.3500	 7.3680
10.3710	 7.5490
10.3920	 7.6010
10.4120	 7.9520
10.4330	 7.9940
10.4540	 8.2440
10.4760	 8.2230
10.4970	 8.4860
10.5180	 8.4050
10.5390	 8.4570
10.5610	 8.3090
10.5820	 8.5080
10.6040	 8.3470
10.6260	 8.5310
10.6480	 8.4330
10.6700	 8.5520
10.6920	 8.3300
10.7140	 8.4000
10.7360	 8.2230
10.7580	 8.4210
10.7800	 8.2830
10.8030	 8.2790
10.8250	 7.9940
10.8480	 8.1230
10.8710	 8.0890
10.8940	 8.2140
10.9170	 8.0710
10.9400	 8.1390
10.9630	 7.8510
10.9860	 7.8470
11.0090	 7.6530
11.0330	 7.7970
11.0560	 7.5470
11.0800	 7.5720
11.1040	 7.5940
11.1270	 7.7030
11.1510	 7.3340
11.1750	 7.6160
11.2000	 7.4850
11.2240	 7.5270
11.2480	 7.4390
11.2730	 7.8660
11.2970	 7.9690
11.3220	 7.8780
11.3470	 7.5480
11.3720	 7.6750
11.3970	 7.3490
11.4220	 7.4290
11.4470	 7.2640
11.4720	 7.4910
11.4980	 7.3220
11.5230	 7.4030
11.5490	 7.3360
11.5750	 7.4740
11.6000	 7.2090
11.6260	 7.2440
11.6530	 7.0460
11.6790	 7.1820
11.7050	 6.9810
11.7320	 6.9230
11.7580	 6.6450
11.7850	 6.7530
11.8120	 6.4970
11.8390	 6.7060
11.8660	 6.5040
11.8930	 6.6660
11.9200	 6.3380
11.9480	 6.3580
11.9760	 6.2160
12.0030	 6.4960
12.0310	 6.2750
12.0590	 6.4580
12.0870	 6.2660
12.1150	 6.5420
12.1440	 6.4790
12.1720	 6.7400
12.2010	 6.5020
12.2300	 6.5860
12.2590	 6.2980
12.2880	 6.3420
12.3170	 6.1830
12.3460	 6.4230
12.3760	 6.0670
12.4050	 6.3770
12.4350	 6.1760
12.4650	 6.2650
12.4950	 6.1170
12.5250	 6.3100
12.5550	 5.9910
12.5860	 6.2030
12.6170	 6.0450
12.6470	 6.1080
12.6780	 5.8670
12.7090	 6.1600
12.7410	 5.8600
12.7720	 5.9900
12.8030	 5.7130
12.8350	 5.8180
12.8670	 5.4870
12.8990	 5.8780
12.9310	 5.6340
12.9640	 5.5870
12.9960	 5.0920
13.0290	 5.2080
13.0610	 5.0170
13.0940	 5.2520
13.1280	 5.0140
13.1610	 5.2270
13.1940	 5.0730
13.2280	 5.2550
13.2620	 4.9090
13.2960	 5.1720
13.3300	 4.7480
13.3640	 4.8080
13.3990	 4.5440
13.4340	 4.8460
13.4690	 4.4300
13.5040	 4.6060
13.5390	 4.4490
13.5740	 4.7200
13.6100	 4.4120
13.6460	 4.6530
13.6820	 4.2980
13.7180	 4.5880
13.7540	 4.4520
13.7910	 4.8020
13.8280	 4.3750
13.8650	 4.7690
13.9020	 4.5070
13.9390	 4.6730
13.9770	 4.3580
14.0150	 4.7680
14.0530	 4.3400
14.0910	 4.5640
14.1290	 4.1480
14.1680	 4.4150
14.2070	 3.8800
14.2460	 4.1720
14.2850	 3.8440
14.3240	 4.2400
14.3640	 3.7950
14.4040	 4.1200
14.4440	 3.5190
14.4840	 3.8770
14.5250	 3.5190
14.5660	 4.1620
14.6070	 3.9000
14.6480	 4.3030
14.6900	 3.5690
14.7310	 4.0140
14.7730	 3.5220
14.8150	 3.6560
14.8580	 2.9900
14.9010	 3.7270
14.9440	 2.9700
14.9870	 3.5110
15.0300	 3.1180
15.0740	 3.9020
15.1180	 3.5880
15.1620	 4.3100
15.2060	 3.6970
15.2510	 3.9980
15.2960	 3.2050
15.3410	 3.7550
15.3870	 2.7390
