Name: Cedrus atlantica
Type: vegetation
Class: Tree
Genus: Cedrus
Species: atlantica
Sample No.: JPL222
Owner: JPL
Wavelength Range: VSWIR
Origin: 34.12429; -118.11417; WGS84
Collection Date: 10/3/2016
Description: Samples were collected at the Huntington Garden in San Marino California as part of a JPL Subcontract studying HyTES imagery. Samples were taken to JPL and processed within 48 hours of collection. The same leaves were processed in the Nicolet and then measured using the ASD.
Measurement: Bidirectional reflectance
First Column: X
Second Column: Y
X Units: Wavelength (micrometer)
Y Units: Reflectance (percentage)
First X Value: 0.35
Last X Value: 2.5
Number of X Values: 2151
Additional Information: vegetation.tree.cedrus.atlantica.vswir.jpl222.jpl.asd.ancillary.txt

 0.3500	 4.7200
 0.3510	 4.6370
 0.3520	 4.5560
 0.3530	 4.5330
 0.3540	 4.5790
 0.3550	 4.6000
 0.3560	 4.5880
 0.3570	 4.5520
 0.3580	 4.5100
 0.3590	 4.5400
 0.3600	 4.5430
 0.3610	 4.4960
 0.3620	 4.5150
 0.3630	 4.5030
 0.3640	 4.4700
 0.3650	 4.4510
 0.3660	 4.4770
 0.3670	 4.4870
 0.3680	 4.5030
 0.3690	 4.5870
 0.3700	 4.5240
 0.3710	 4.4460
 0.3720	 4.4410
 0.3730	 4.4430
 0.3740	 4.4150
 0.3750	 4.3910
 0.3760	 4.4100
 0.3770	 4.4090
 0.3780	 4.3870
 0.3790	 4.3850
 0.3800	 4.4610
 0.3810	 4.4810
 0.3820	 4.4600
 0.3830	 4.4320
 0.3840	 4.4130
 0.3850	 4.4620
 0.3860	 4.4970
 0.3870	 4.4280
 0.3880	 4.4190
 0.3890	 4.4220
 0.3900	 4.4140
 0.3910	 4.4150
 0.3920	 4.4550
 0.3930	 4.4800
 0.3940	 4.4590
 0.3950	 4.4500
 0.3960	 4.4350
 0.3970	 4.4360
 0.3980	 4.4800
 0.3990	 4.5110
 0.4000	 4.5080
 0.4010	 4.4960
 0.4020	 4.5440
 0.4030	 4.5930
 0.4040	 4.6270
 0.4050	 4.6470
 0.4060	 4.6620
 0.4070	 4.7010
 0.4080	 4.7490
 0.4090	 4.7670
 0.4100	 4.7930
 0.4110	 4.8330
 0.4120	 4.8840
 0.4130	 4.9420
 0.4140	 4.9850
 0.4150	 5.0210
 0.4160	 5.0660
 0.4170	 5.1170
 0.4180	 5.1580
 0.4190	 5.1930
 0.4200	 5.2470
 0.4210	 5.2800
 0.4220	 5.3150
 0.4230	 5.3710
 0.4240	 5.4320
 0.4250	 5.4790
 0.4260	 5.5090
 0.4270	 5.5330
 0.4280	 5.5740
 0.4290	 5.6060
 0.4300	 5.6290
 0.4310	 5.6760
 0.4320	 5.7070
 0.4330	 5.7310
 0.4340	 5.7600
 0.4350	 5.7880
 0.4360	 5.8010
 0.4370	 5.8090
 0.4380	 5.8400
 0.4390	 5.8560
 0.4400	 5.8560
 0.4410	 5.8500
 0.4420	 5.8700
 0.4430	 5.8840
 0.4440	 5.8960
 0.4450	 5.9180
 0.4460	 5.9240
 0.4470	 5.9310
 0.4480	 5.9470
 0.4490	 5.9660
 0.4500	 5.9850
 0.4510	 5.9950
 0.4520	 5.9960
 0.4530	 6.0100
 0.4540	 6.0200
 0.4550	 6.0240
 0.4560	 6.0320
 0.4570	 6.0390
 0.4580	 6.0460
 0.4590	 6.0510
 0.4600	 6.0550
 0.4610	 6.0530
 0.4620	 6.0550
 0.4630	 6.0640
 0.4640	 6.0570
 0.4650	 6.0530
 0.4660	 6.0560
 0.4670	 6.0570
 0.4680	 6.0590
 0.4690	 6.0610
 0.4700	 6.0620
 0.4710	 6.0570
 0.4720	 6.0570
 0.4730	 6.0610
 0.4740	 6.0610
 0.4750	 6.0580
 0.4760	 6.0580
 0.4770	 6.0620
 0.4780	 6.0670
 0.4790	 6.0680
 0.4800	 6.0670
 0.4810	 6.0690
 0.4820	 6.0700
 0.4830	 6.0740
 0.4840	 6.0820
 0.4850	 6.0940
 0.4860	 6.1080
 0.4870	 6.1210
 0.4880	 6.1290
 0.4890	 6.1370
 0.4900	 6.1430
 0.4910	 6.1510
 0.4920	 6.1640
 0.4930	 6.1800
 0.4940	 6.1960
 0.4950	 6.2100
 0.4960	 6.2280
 0.4970	 6.2530
 0.4980	 6.2820
 0.4990	 6.3100
 0.5000	 6.3440
 0.5010	 6.3830
 0.5020	 6.4260
 0.5030	 6.4700
 0.5040	 6.5130
 0.5050	 6.5650
 0.5060	 6.6290
 0.5070	 6.6980
 0.5080	 6.7670
 0.5090	 6.8370
 0.5100	 6.9130
 0.5110	 6.9960
 0.5120	 7.0860
 0.5130	 7.1830
 0.5140	 7.2860
 0.5150	 7.3900
 0.5160	 7.4970
 0.5170	 7.6110
 0.5180	 7.7270
 0.5190	 7.8480
 0.5200	 7.9730
 0.5210	 8.0990
 0.5220	 8.2210
 0.5230	 8.3410
 0.5240	 8.4570
 0.5250	 8.5710
 0.5260	 8.6780
 0.5270	 8.7790
 0.5280	 8.8760
 0.5290	 8.9660
 0.5300	 9.0470
 0.5310	 9.1200
 0.5320	 9.1910
 0.5330	 9.2530
 0.5340	 9.3080
 0.5350	 9.3590
 0.5360	 9.4080
 0.5370	 9.4490
 0.5380	 9.4890
 0.5390	 9.5350
 0.5400	 9.5840
 0.5410	 9.6420
 0.5420	 9.7060
 0.5430	 9.7520
 0.5440	 9.7820
 0.5450	 9.7950
 0.5460	 9.7870
 0.5470	 9.7690
 0.5480	 9.7540
 0.5490	 9.7490
 0.5500	 9.7540
 0.5510	 9.7580
 0.5520	 9.7560
 0.5530	 9.7440
 0.5540	 9.7240
 0.5550	 9.6980
 0.5560	 9.6680
 0.5570	 9.6320
 0.5580	 9.5880
 0.5590	 9.5410
 0.5600	 9.4900
 0.5610	 9.4310
 0.5620	 9.3740
 0.5630	 9.3150
 0.5640	 9.2490
 0.5650	 9.1830
 0.5660	 9.1110
 0.5670	 9.0360
 0.5680	 8.9610
 0.5690	 8.8820
 0.5700	 8.8040
 0.5710	 8.7300
 0.5720	 8.6550
 0.5730	 8.5820
 0.5740	 8.5130
 0.5750	 8.4480
 0.5760	 8.3870
 0.5770	 8.3270
 0.5780	 8.2700
 0.5790	 8.2240
 0.5800	 8.1800
 0.5810	 8.1390
 0.5820	 8.0990
 0.5830	 8.0640
 0.5840	 8.0290
 0.5850	 7.9930
 0.5860	 7.9580
 0.5870	 7.9300
 0.5880	 7.9020
 0.5890	 7.8700
 0.5900	 7.8400
 0.5910	 7.8170
 0.5920	 7.7980
 0.5930	 7.7770
 0.5940	 7.7540
 0.5950	 7.7330
 0.5960	 7.7180
 0.5970	 7.7050
 0.5980	 7.6890
 0.5990	 7.6720
 0.6000	 7.6570
 0.6010	 7.6380
 0.6020	 7.6160
 0.6030	 7.5930
 0.6040	 7.5660
 0.6050	 7.5360
 0.6060	 7.5040
 0.6070	 7.4720
 0.6080	 7.4360
 0.6090	 7.4070
 0.6100	 7.3910
 0.6110	 7.3860
 0.6120	 7.3480
 0.6130	 7.2890
 0.6140	 7.2240
 0.6150	 7.1730
 0.6160	 7.1290
 0.6170	 7.0880
 0.6180	 7.0500
 0.6190	 7.0190
 0.6200	 6.9920
 0.6210	 6.9670
 0.6220	 6.9460
 0.6230	 6.9260
 0.6240	 6.9060
 0.6250	 6.8880
 0.6260	 6.8750
 0.6270	 6.8650
 0.6280	 6.8570
 0.6290	 6.8530
 0.6300	 6.8450
 0.6310	 6.8370
 0.6320	 6.8290
 0.6330	 6.8160
 0.6340	 6.8000
 0.6350	 6.7800
 0.6360	 6.7570
 0.6370	 6.7280
 0.6380	 6.6940
 0.6390	 6.6550
 0.6400	 6.6150
 0.6410	 6.5700
 0.6420	 6.5240
 0.6430	 6.4790
 0.6440	 6.4330
 0.6450	 6.3860
 0.6460	 6.3410
 0.6470	 6.3020
 0.6480	 6.2630
 0.6490	 6.2280
 0.6500	 6.1970
 0.6510	 6.1710
 0.6520	 6.1500
 0.6530	 6.1300
 0.6540	 6.1090
 0.6550	 6.0880
 0.6560	 6.0650
 0.6570	 6.0400
 0.6580	 6.0110
 0.6590	 5.9800
 0.6600	 5.9440
 0.6610	 5.9050
 0.6620	 5.8720
 0.6630	 5.8390
 0.6640	 5.8060
 0.6650	 5.7760
 0.6660	 5.7520
 0.6670	 5.7310
 0.6680	 5.7130
 0.6690	 5.7000
 0.6700	 5.6920
 0.6710	 5.6870
 0.6720	 5.6860
 0.6730	 5.6900
 0.6740	 5.6990
 0.6750	 5.7100
 0.6760	 5.7240
 0.6770	 5.7430
 0.6780	 5.7630
 0.6790	 5.7860
 0.6800	 5.8160
 0.6810	 5.8500
 0.6820	 5.8900
 0.6830	 5.9370
 0.6840	 5.9930
 0.6850	 6.0580
 0.6860	 6.1350
 0.6870	 6.2280
 0.6880	 6.3370
 0.6890	 6.4650
 0.6900	 6.6200
 0.6910	 6.8070
 0.6920	 7.0250
 0.6930	 7.2740
 0.6940	 7.5570
 0.6950	 7.8740
 0.6960	 8.2220
 0.6970	 8.6000
 0.6980	 9.0040
 0.6990	 9.4360
 0.7000	 9.8880
 0.7010	10.3560
 0.7020	10.8360
 0.7030	11.3270
 0.7040	11.8270
 0.7050	12.3380
 0.7060	12.8560
 0.7070	13.3810
 0.7080	13.9100
 0.7090	14.4490
 0.7100	14.9930
 0.7110	15.5480
 0.7120	16.1140
 0.7130	16.6850
 0.7140	17.2660
 0.7150	17.8560
 0.7160	18.4520
 0.7170	19.0550
 0.7180	19.6650
 0.7190	20.2800
 0.7200	20.8990
 0.7210	21.5200
 0.7220	22.1390
 0.7230	22.7540
 0.7240	23.3670
 0.7250	23.9730
 0.7260	24.5670
 0.7270	25.1480
 0.7280	25.7200
 0.7290	26.2750
 0.7300	26.8130
 0.7310	27.3330
 0.7320	27.8350
 0.7330	28.3180
 0.7340	28.7800
 0.7350	29.2230
 0.7360	29.6440
 0.7370	30.0460
 0.7380	30.4280
 0.7390	30.7860
 0.7400	31.1240
 0.7410	31.4440
 0.7420	31.7430
 0.7430	32.0210
 0.7440	32.2810
 0.7450	32.5220
 0.7460	32.7450
 0.7470	32.9540
 0.7480	33.1450
 0.7490	33.3200
 0.7500	33.4820
 0.7510	33.6300
 0.7520	33.7640
 0.7530	33.8870
 0.7540	34.0020
 0.7550	34.1070
 0.7560	34.2030
 0.7570	34.2900
 0.7580	34.3720
 0.7590	34.4480
 0.7600	34.5160
 0.7610	34.5800
 0.7620	34.6370
 0.7630	34.6900
 0.7640	34.7370
 0.7650	34.7820
 0.7660	34.8220
 0.7670	34.8600
 0.7680	34.8970
 0.7690	34.9320
 0.7700	34.9610
 0.7710	34.9880
 0.7720	35.0180
 0.7730	35.0450
 0.7740	35.0710
 0.7750	35.0970
 0.7760	35.1210
 0.7770	35.1440
 0.7780	35.1660
 0.7790	35.1870
 0.7800	35.2090
 0.7810	35.2290
 0.7820	35.2480
 0.7830	35.2680
 0.7840	35.2860
 0.7850	35.3030
 0.7860	35.3200
 0.7870	35.3380
 0.7880	35.3530
 0.7890	35.3680
 0.7900	35.3820
 0.7910	35.3980
 0.7920	35.4120
 0.7930	35.4240
 0.7940	35.4340
 0.7950	35.4490
 0.7960	35.4600
 0.7970	35.4660
 0.7980	35.4710
 0.7990	35.4800
 0.8000	35.4890
 0.8010	35.4970
 0.8020	35.5040
 0.8030	35.5110
 0.8040	35.5180
 0.8050	35.5250
 0.8060	35.5300
 0.8070	35.5340
 0.8080	35.5380
 0.8090	35.5450
 0.8100	35.5480
 0.8110	35.5480
 0.8120	35.5490
 0.8130	35.5530
 0.8140	35.5560
 0.8150	35.5600
 0.8160	35.5650
 0.8170	35.5650
 0.8180	35.5670
 0.8190	35.5720
 0.8200	35.5750
 0.8210	35.5750
 0.8220	35.5780
 0.8230	35.5840
 0.8240	35.5860
 0.8250	35.5880
 0.8260	35.5900
 0.8270	35.5920
 0.8280	35.5970
 0.8290	35.6000
 0.8300	35.6030
 0.8310	35.6060
 0.8320	35.6090
 0.8330	35.6120
 0.8340	35.6170
 0.8350	35.6250
 0.8360	35.6300
 0.8370	35.6360
 0.8380	35.6460
 0.8390	35.6560
 0.8400	35.6630
 0.8410	35.6720
 0.8420	35.6830
 0.8430	35.6920
 0.8440	35.7040
 0.8450	35.7170
 0.8460	35.7280
 0.8470	35.7380
 0.8480	35.7510
 0.8490	35.7650
 0.8500	35.7770
 0.8510	35.7910
 0.8520	35.8050
 0.8530	35.8180
 0.8540	35.8300
 0.8550	35.8460
 0.8560	35.8590
 0.8570	35.8700
 0.8580	35.8840
 0.8590	35.8990
 0.8600	35.9130
 0.8610	35.9270
 0.8620	35.9410
 0.8630	35.9540
 0.8640	35.9680
 0.8650	35.9830
 0.8660	35.9990
 0.8670	36.0130
 0.8680	36.0260
 0.8690	36.0390
 0.8700	36.0530
 0.8710	36.0690
 0.8720	36.0840
 0.8730	36.0960
 0.8740	36.1090
 0.8750	36.1250
 0.8760	36.1410
 0.8770	36.1540
 0.8780	36.1670
 0.8790	36.1810
 0.8800	36.1970
 0.8810	36.2150
 0.8820	36.2260
 0.8830	36.2350
 0.8840	36.2470
 0.8850	36.2600
 0.8860	36.2700
 0.8870	36.2780
 0.8880	36.2890
 0.8890	36.3060
 0.8900	36.3170
 0.8910	36.3260
 0.8920	36.3370
 0.8930	36.3490
 0.8940	36.3610
 0.8950	36.3710
 0.8960	36.3760
 0.8970	36.3820
 0.8980	36.3910
 0.8990	36.4030
 0.9000	36.4140
 0.9010	36.4240
 0.9020	36.4310
 0.9030	36.4370
 0.9040	36.4490
 0.9050	36.4550
 0.9060	36.4600
 0.9070	36.4660
 0.9080	36.4740
 0.9090	36.4820
 0.9100	36.4880
 0.9110	36.4920
 0.9120	36.4930
 0.9130	36.4960
 0.9140	36.5010
 0.9150	36.5070
 0.9160	36.5060
 0.9170	36.5080
 0.9180	36.5090
 0.9190	36.5040
 0.9200	36.4990
 0.9210	36.4950
 0.9220	36.4930
 0.9230	36.4930
 0.9240	36.4880
 0.9250	36.4840
 0.9260	36.4780
 0.9270	36.4650
 0.9280	36.4430
 0.9290	36.4280
 0.9300	36.4220
 0.9310	36.4110
 0.9320	36.3930
 0.9330	36.3780
 0.9340	36.3640
 0.9350	36.3440
 0.9360	36.3180
 0.9370	36.2930
 0.9380	36.2730
 0.9390	36.2530
 0.9400	36.2310
 0.9410	36.2060
 0.9420	36.1780
 0.9430	36.1410
 0.9440	36.1000
 0.9450	36.0610
 0.9460	36.0230
 0.9470	35.9720
 0.9480	35.9270
 0.9490	35.8770
 0.9500	35.8150
 0.9510	35.7480
 0.9520	35.6880
 0.9530	35.6310
 0.9540	35.5700
 0.9550	35.4920
 0.9560	35.4160
 0.9570	35.3480
 0.9580	35.2900
 0.9590	35.2400
 0.9600	35.1940
 0.9610	35.1480
 0.9620	35.0990
 0.9630	35.0620
 0.9640	35.0180
 0.9650	34.9770
 0.9660	34.9540
 0.9670	34.9350
 0.9680	34.9220
 0.9690	34.9040
 0.9700	34.8770
 0.9710	34.8660
 0.9720	34.8550
 0.9730	34.8380
 0.9740	34.8200
 0.9750	34.8210
 0.9760	34.8210
 0.9770	34.8110
 0.9780	34.7950
 0.9790	34.8030
 0.9800	34.8110
 0.9810	34.8120
 0.9820	34.8090
 0.9830	34.8220
 0.9840	34.8340
 0.9850	34.8390
 0.9860	34.8460
 0.9870	34.8740
 0.9880	34.8870
 0.9890	34.8870
 0.9900	34.8970
 0.9910	34.9260
 0.9920	34.9520
 0.9930	34.9750
 0.9940	35.0000
 0.9950	35.0160
 0.9960	35.0360
 0.9970	35.0620
 0.9980	35.0880
 0.9990	35.1210
 1.0000	35.1450
 1.0010	35.4220
 1.0020	35.4440
 1.0030	35.4730
 1.0040	35.5040
 1.0050	35.5330
 1.0060	35.5640
 1.0070	35.5940
 1.0080	35.6240
 1.0090	35.6490
 1.0100	35.6780
 1.0110	35.7100
 1.0120	35.7410
 1.0130	35.7740
 1.0140	35.8080
 1.0150	35.8440
 1.0160	35.8780
 1.0170	35.9080
 1.0180	35.9400
 1.0190	35.9710
 1.0200	36.0000
 1.0210	36.0300
 1.0220	36.0620
 1.0230	36.0930
 1.0240	36.1220
 1.0250	36.1530
 1.0260	36.1870
 1.0270	36.2190
 1.0280	36.2500
 1.0290	36.2810
 1.0300	36.3100
 1.0310	36.3410
 1.0320	36.3730
 1.0330	36.4060
 1.0340	36.4330
 1.0350	36.4600
 1.0360	36.4860
 1.0370	36.5090
 1.0380	36.5340
 1.0390	36.5610
 1.0400	36.5870
 1.0410	36.6130
 1.0420	36.6370
 1.0430	36.6610
 1.0440	36.6850
 1.0450	36.7070
 1.0460	36.7290
 1.0470	36.7530
 1.0480	36.7760
 1.0490	36.7980
 1.0500	36.8200
 1.0510	36.8430
 1.0520	36.8640
 1.0530	36.8830
 1.0540	36.9000
 1.0550	36.9200
 1.0560	36.9400
 1.0570	36.9580
 1.0580	36.9760
 1.0590	36.9920
 1.0600	37.0030
 1.0610	37.0170
 1.0620	37.0310
 1.0630	37.0450
 1.0640	37.0610
 1.0650	37.0740
 1.0660	37.0840
 1.0670	37.0960
 1.0680	37.1070
 1.0690	37.1170
 1.0700	37.1270
 1.0710	37.1380
 1.0720	37.1460
 1.0730	37.1490
 1.0740	37.1560
 1.0750	37.1640
 1.0760	37.1700
 1.0770	37.1770
 1.0780	37.1820
 1.0790	37.1850
 1.0800	37.1880
 1.0810	37.1910
 1.0820	37.1940
 1.0830	37.1930
 1.0840	37.1940
 1.0850	37.1960
 1.0860	37.1980
 1.0870	37.1960
 1.0880	37.1920
 1.0890	37.1900
 1.0900	37.1840
 1.0910	37.1810
 1.0920	37.1820
 1.0930	37.1780
 1.0940	37.1710
 1.0950	37.1630
 1.0960	37.1530
 1.0970	37.1440
 1.0980	37.1360
 1.0990	37.1270
 1.1000	37.1180
 1.1010	37.1090
 1.1020	37.0980
 1.1030	37.0870
 1.1040	37.0780
 1.1050	37.0680
 1.1060	37.0560
 1.1070	37.0450
 1.1080	37.0320
 1.1090	37.0140
 1.1100	36.9990
 1.1110	36.9840
 1.1120	36.9670
 1.1130	36.9500
 1.1140	36.9310
 1.1150	36.9110
 1.1160	36.8870
 1.1170	36.8630
 1.1180	36.8360
 1.1190	36.8050
 1.1200	36.7720
 1.1210	36.7380
 1.1220	36.7000
 1.1230	36.6580
 1.1240	36.6100
 1.1250	36.5570
 1.1260	36.5010
 1.1270	36.4340
 1.1280	36.3610
 1.1290	36.2790
 1.1300	36.1900
 1.1310	36.0920
 1.1320	35.9860
 1.1330	35.8720
 1.1340	35.7480
 1.1350	35.6170
 1.1360	35.4800
 1.1370	35.3350
 1.1380	35.1850
 1.1390	35.0270
 1.1400	34.8640
 1.1410	34.6980
 1.1420	34.5280
 1.1430	34.3570
 1.1440	34.1870
 1.1450	34.0120
 1.1460	33.8460
 1.1470	33.6800
 1.1480	33.5210
 1.1490	33.3640
 1.1500	33.2160
 1.1510	33.0720
 1.1520	32.9370
 1.1530	32.8090
 1.1540	32.6900
 1.1550	32.5790
 1.1560	32.4740
 1.1570	32.3800
 1.1580	32.2930
 1.1590	32.2130
 1.1600	32.1400
 1.1610	32.0720
 1.1620	32.0100
 1.1630	31.9530
 1.1640	31.9000
 1.1650	31.8510
 1.1660	31.8070
 1.1670	31.7650
 1.1680	31.7290
 1.1690	31.6930
 1.1700	31.6590
 1.1710	31.6270
 1.1720	31.5980
 1.1730	31.5680
 1.1740	31.5390
 1.1750	31.5120
 1.1760	31.4810
 1.1770	31.4520
 1.1780	31.4210
 1.1790	31.3870
 1.1800	31.3530
 1.1810	31.3190
 1.1820	31.2850
 1.1830	31.2520
 1.1840	31.2200
 1.1850	31.1880
 1.1860	31.1570
 1.1870	31.1270
 1.1880	31.0980
 1.1890	31.0680
 1.1900	31.0410
 1.1910	31.0160
 1.1920	30.9920
 1.1930	30.9690
 1.1940	30.9470
 1.1950	30.9270
 1.1960	30.9090
 1.1970	30.8930
 1.1980	30.8800
 1.1990	30.8700
 1.2000	30.8620
 1.2010	30.8570
 1.2020	30.8540
 1.2030	30.8530
 1.2040	30.8580
 1.2050	30.8680
 1.2060	30.8790
 1.2070	30.8920
 1.2080	30.9090
 1.2090	30.9270
 1.2100	30.9490
 1.2110	30.9750
 1.2120	31.0050
 1.2130	31.0380
 1.2140	31.0740
 1.2150	31.1130
 1.2160	31.1550
 1.2170	31.2010
 1.2180	31.2480
 1.2190	31.2980
 1.2200	31.3500
 1.2210	31.4030
 1.2220	31.4570
 1.2230	31.5110
 1.2240	31.5660
 1.2250	31.6200
 1.2260	31.6740
 1.2270	31.7270
 1.2280	31.7770
 1.2290	31.8240
 1.2300	31.8710
 1.2310	31.9180
 1.2320	31.9620
 1.2330	32.0060
 1.2340	32.0490
 1.2350	32.0890
 1.2360	32.1280
 1.2370	32.1670
 1.2380	32.2030
 1.2390	32.2370
 1.2400	32.2700
 1.2410	32.3010
 1.2420	32.3310
 1.2430	32.3590
 1.2440	32.3880
 1.2450	32.4180
 1.2460	32.4460
 1.2470	32.4740
 1.2480	32.5020
 1.2490	32.5270
 1.2500	32.5510
 1.2510	32.5750
 1.2520	32.5970
 1.2530	32.6180
 1.2540	32.6380
 1.2550	32.6570
 1.2560	32.6730
 1.2570	32.6880
 1.2580	32.7030
 1.2590	32.7170
 1.2600	32.7300
 1.2610	32.7410
 1.2620	32.7510
 1.2630	32.7580
 1.2640	32.7660
 1.2650	32.7720
 1.2660	32.7780
 1.2670	32.7840
 1.2680	32.7860
 1.2690	32.7880
 1.2700	32.7880
 1.2710	32.7870
 1.2720	32.7860
 1.2730	32.7830
 1.2740	32.7790
 1.2750	32.7730
 1.2760	32.7640
 1.2770	32.7530
 1.2780	32.7430
 1.2790	32.7310
 1.2800	32.7190
 1.2810	32.7050
 1.2820	32.6880
 1.2830	32.6710
 1.2840	32.6520
 1.2850	32.6300
 1.2860	32.6070
 1.2870	32.5810
 1.2880	32.5540
 1.2890	32.5230
 1.2900	32.4900
 1.2910	32.4550
 1.2920	32.4190
 1.2930	32.3800
 1.2940	32.3390
 1.2950	32.2950
 1.2960	32.2490
 1.2970	32.1990
 1.2980	32.1470
 1.2990	32.0940
 1.3000	32.0380
 1.3010	31.9770
 1.3020	31.9140
 1.3030	31.8470
 1.3040	31.7750
 1.3050	31.7020
 1.3060	31.6270
 1.3070	31.5500
 1.3080	31.4690
 1.3090	31.3860
 1.3100	31.2990
 1.3110	31.2080
 1.3120	31.1140
 1.3130	31.0160
 1.3140	30.9150
 1.3150	30.8110
 1.3160	30.7050
 1.3170	30.5960
 1.3180	30.4850
 1.3190	30.3680
 1.3200	30.2490
 1.3210	30.1260
 1.3220	30.0000
 1.3230	29.8740
 1.3240	29.7460
 1.3250	29.6160
 1.3260	29.4820
 1.3270	29.3430
 1.3280	29.2040
 1.3290	29.0640
 1.3300	28.9220
 1.3310	28.7800
 1.3320	28.6350
 1.3330	28.4890
 1.3340	28.3430
 1.3350	28.1970
 1.3360	28.0520
 1.3370	27.9060
 1.3380	27.7620
 1.3390	27.6190
 1.3400	27.4750
 1.3410	27.3340
 1.3420	27.1950
 1.3430	27.0560
 1.3440	26.9220
 1.3450	26.7900
 1.3460	26.6580
 1.3470	26.5290
 1.3480	26.4020
 1.3490	26.2780
 1.3500	26.1570
 1.3510	26.0380
 1.3520	25.9200
 1.3530	25.8010
 1.3540	25.6820
 1.3550	25.5630
 1.3560	25.4450
 1.3570	25.3280
 1.3580	25.2110
 1.3590	25.0920
 1.3600	24.9670
 1.3610	24.8400
 1.3620	24.7080
 1.3630	24.5720
 1.3640	24.4330
 1.3650	24.2870
 1.3660	24.1360
 1.3670	23.9800
 1.3680	23.8150
 1.3690	23.6410
 1.3700	23.4580
 1.3710	23.2640
 1.3720	23.0600
 1.3730	22.8430
 1.3740	22.6150
 1.3750	22.3740
 1.3760	22.1170
 1.3770	21.8450
 1.3780	21.5540
 1.3790	21.2480
 1.3800	20.9250
 1.3810	20.5830
 1.3820	20.2310
 1.3830	19.8660
 1.3840	19.4900
 1.3850	19.1020
 1.3860	18.7070
 1.3870	18.2990
 1.3880	17.8930
 1.3890	17.4830
 1.3900	17.0700
 1.3910	16.6620
 1.3920	16.2540
 1.3930	15.8490
 1.3940	15.4520
 1.3950	15.0580
 1.3960	14.6740
 1.3970	14.3010
 1.3980	13.9380
 1.3990	13.5930
 1.4000	13.2590
 1.4010	12.9370
 1.4020	12.6300
 1.4030	12.3340
 1.4040	12.0530
 1.4050	11.7880
 1.4060	11.5370
 1.4070	11.3030
 1.4080	11.0830
 1.4090	10.8730
 1.4100	10.6780
 1.4110	10.4940
 1.4120	10.3230
 1.4130	10.1630
 1.4140	10.0130
 1.4150	 9.8750
 1.4160	 9.7470
 1.4170	 9.6270
 1.4180	 9.5160
 1.4190	 9.4110
 1.4200	 9.3140
 1.4210	 9.2220
 1.4220	 9.1370
 1.4230	 9.0590
 1.4240	 8.9860
 1.4250	 8.9180
 1.4260	 8.8560
 1.4270	 8.7980
 1.4280	 8.7450
 1.4290	 8.6960
 1.4300	 8.6520
 1.4310	 8.6100
 1.4320	 8.5730
 1.4330	 8.5380
 1.4340	 8.5070
 1.4350	 8.4790
 1.4360	 8.4530
 1.4370	 8.4290
 1.4380	 8.4070
 1.4390	 8.3880
 1.4400	 8.3710
 1.4410	 8.3580
 1.4420	 8.3460
 1.4430	 8.3350
 1.4440	 8.3270
 1.4450	 8.3200
 1.4460	 8.3140
 1.4470	 8.3110
 1.4480	 8.3080
 1.4490	 8.3070
 1.4500	 8.3070
 1.4510	 8.3080
 1.4520	 8.3090
 1.4530	 8.3110
 1.4540	 8.3150
 1.4550	 8.3200
 1.4560	 8.3260
 1.4570	 8.3340
 1.4580	 8.3440
 1.4590	 8.3550
 1.4600	 8.3680
 1.4610	 8.3840
 1.4620	 8.4010
 1.4630	 8.4210
 1.4640	 8.4430
 1.4650	 8.4660
 1.4660	 8.4930
 1.4670	 8.5220
 1.4680	 8.5540
 1.4690	 8.5880
 1.4700	 8.6240
 1.4710	 8.6630
 1.4720	 8.7040
 1.4730	 8.7470
 1.4740	 8.7920
 1.4750	 8.8380
 1.4760	 8.8870
 1.4770	 8.9370
 1.4780	 8.9890
 1.4790	 9.0420
 1.4800	 9.0960
 1.4810	 9.1520
 1.4820	 9.2090
 1.4830	 9.2660
 1.4840	 9.3260
 1.4850	 9.3860
 1.4860	 9.4470
 1.4870	 9.5090
 1.4880	 9.5710
 1.4890	 9.6330
 1.4900	 9.6970
 1.4910	 9.7610
 1.4920	 9.8270
 1.4930	 9.8940
 1.4940	 9.9610
 1.4950	10.0280
 1.4960	10.0960
 1.4970	10.1640
 1.4980	10.2330
 1.4990	10.3030
 1.5000	10.3740
 1.5010	10.4450
 1.5020	10.5150
 1.5030	10.5860
 1.5040	10.6570
 1.5050	10.7270
 1.5060	10.7980
 1.5070	10.8690
 1.5080	10.9400
 1.5090	11.0100
 1.5100	11.0820
 1.5110	11.1530
 1.5120	11.2260
 1.5130	11.2980
 1.5140	11.3710
 1.5150	11.4420
 1.5160	11.5130
 1.5170	11.5840
 1.5180	11.6550
 1.5190	11.7280
 1.5200	11.8000
 1.5210	11.8700
 1.5220	11.9400
 1.5230	12.0090
 1.5240	12.0780
 1.5250	12.1470
 1.5260	12.2170
 1.5270	12.2870
 1.5280	12.3560
 1.5290	12.4240
 1.5300	12.4920
 1.5310	12.5600
 1.5320	12.6270
 1.5330	12.6940
 1.5340	12.7610
 1.5350	12.8270
 1.5360	12.8940
 1.5370	12.9600
 1.5380	13.0260
 1.5390	13.0900
 1.5400	13.1550
 1.5410	13.2200
 1.5420	13.2830
 1.5430	13.3470
 1.5440	13.4120
 1.5450	13.4750
 1.5460	13.5390
 1.5470	13.6040
 1.5480	13.6670
 1.5490	13.7310
 1.5500	13.7940
 1.5510	13.8560
 1.5520	13.9180
 1.5530	13.9790
 1.5540	14.0400
 1.5550	14.1000
 1.5560	14.1600
 1.5570	14.2210
 1.5580	14.2810
 1.5590	14.3410
 1.5600	14.4010
 1.5610	14.4590
 1.5620	14.5170
 1.5630	14.5750
 1.5640	14.6310
 1.5650	14.6870
 1.5660	14.7430
 1.5670	14.7990
 1.5680	14.8530
 1.5690	14.9090
 1.5700	14.9640
 1.5710	15.0180
 1.5720	15.0720
 1.5730	15.1260
 1.5740	15.1780
 1.5750	15.2320
 1.5760	15.2850
 1.5770	15.3360
 1.5780	15.3890
 1.5790	15.4420
 1.5800	15.4940
 1.5810	15.5450
 1.5820	15.5960
 1.5830	15.6470
 1.5840	15.6980
 1.5850	15.7480
 1.5860	15.7990
 1.5870	15.8500
 1.5880	15.9000
 1.5890	15.9510
 1.5900	16.0020
 1.5910	16.0500
 1.5920	16.1010
 1.5930	16.1510
 1.5940	16.2000
 1.5950	16.2510
 1.5960	16.3020
 1.5970	16.3500
 1.5980	16.4000
 1.5990	16.4490
 1.6000	16.4970
 1.6010	16.5460
 1.6020	16.5950
 1.6030	16.6430
 1.6040	16.6910
 1.6050	16.7380
 1.6060	16.7840
 1.6070	16.8290
 1.6080	16.8740
 1.6090	16.9200
 1.6100	16.9650
 1.6110	17.0110
 1.6120	17.0560
 1.6130	17.1000
 1.6140	17.1430
 1.6150	17.1850
 1.6160	17.2260
 1.6170	17.2660
 1.6180	17.3070
 1.6190	17.3480
 1.6200	17.3880
 1.6210	17.4270
 1.6220	17.4640
 1.6230	17.5000
 1.6240	17.5360
 1.6250	17.5700
 1.6260	17.6040
 1.6270	17.6370
 1.6280	17.6710
 1.6290	17.7040
 1.6300	17.7380
 1.6310	17.7700
 1.6320	17.8020
 1.6330	17.8320
 1.6340	17.8610
 1.6350	17.8900
 1.6360	17.9190
 1.6370	17.9460
 1.6380	17.9710
 1.6390	17.9940
 1.6400	18.0160
 1.6410	18.0370
 1.6420	18.0590
 1.6430	18.0780
 1.6440	18.0960
 1.6450	18.1120
 1.6460	18.1260
 1.6470	18.1400
 1.6480	18.1520
 1.6490	18.1600
 1.6500	18.1680
 1.6510	18.1750
 1.6520	18.1790
 1.6530	18.1820
 1.6540	18.1840
 1.6550	18.1840
 1.6560	18.1830
 1.6570	18.1810
 1.6580	18.1780
 1.6590	18.1750
 1.6600	18.1710
 1.6610	18.1660
 1.6620	18.1620
 1.6630	18.1570
 1.6640	18.1510
 1.6650	18.1440
 1.6660	18.1370
 1.6670	18.1300
 1.6680	18.1260
 1.6690	18.1210
 1.6700	18.1150
 1.6710	18.1070
 1.6720	18.0980
 1.6730	18.0900
 1.6740	18.0820
 1.6750	18.0720
 1.6760	18.0610
 1.6770	18.0460
 1.6780	18.0320
 1.6790	18.0160
 1.6800	18.0000
 1.6810	17.9850
 1.6820	17.9650
 1.6830	17.9440
 1.6840	17.9210
 1.6850	17.8940
 1.6860	17.8640
 1.6870	17.8320
 1.6880	17.7990
 1.6890	17.7630
 1.6900	17.7250
 1.6910	17.6840
 1.6920	17.6420
 1.6930	17.5990
 1.6940	17.5530
 1.6950	17.5060
 1.6960	17.4570
 1.6970	17.4050
 1.6980	17.3530
 1.6990	17.3000
 1.7000	17.2450
 1.7010	17.1890
 1.7020	17.1310
 1.7030	17.0710
 1.7040	17.0100
 1.7050	16.9460
 1.7060	16.8830
 1.7070	16.8200
 1.7080	16.7570
 1.7090	16.6930
 1.7100	16.6320
 1.7110	16.5710
 1.7120	16.5110
 1.7130	16.4530
 1.7140	16.3990
 1.7150	16.3460
 1.7160	16.2960
 1.7170	16.2480
 1.7180	16.2010
 1.7190	16.1550
 1.7200	16.1110
 1.7210	16.0680
 1.7220	16.0280
 1.7230	15.9890
 1.7240	15.9480
 1.7250	15.9100
 1.7260	15.8740
 1.7270	15.8420
 1.7280	15.8160
 1.7290	15.7940
 1.7300	15.7750
 1.7310	15.7600
 1.7320	15.7500
 1.7330	15.7430
 1.7340	15.7420
 1.7350	15.7390
 1.7360	15.7400
 1.7370	15.7370
 1.7380	15.7310
 1.7390	15.7220
 1.7400	15.7110
 1.7410	15.6950
 1.7420	15.6760
 1.7430	15.6520
 1.7440	15.6220
 1.7450	15.5910
 1.7460	15.5560
 1.7470	15.5220
 1.7480	15.4870
 1.7490	15.4500
 1.7500	15.4100
 1.7510	15.3710
 1.7520	15.3300
 1.7530	15.2900
 1.7540	15.2490
 1.7550	15.2080
 1.7560	15.1690
 1.7570	15.1330
 1.7580	15.0990
 1.7590	15.0660
 1.7600	15.0340
 1.7610	15.0010
 1.7620	14.9710
 1.7630	14.9440
 1.7640	14.9180
 1.7650	14.8970
 1.7660	14.8760
 1.7670	14.8590
 1.7680	14.8410
 1.7690	14.8230
 1.7700	14.8070
 1.7710	14.7900
 1.7720	14.7750
 1.7730	14.7630
 1.7740	14.7500
 1.7750	14.7360
 1.7760	14.7230
 1.7770	14.7080
 1.7780	14.6950
 1.7790	14.6830
 1.7800	14.6740
 1.7810	14.6660
 1.7820	14.6600
 1.7830	14.6570
 1.7840	14.6530
 1.7850	14.6490
 1.7860	14.6470
 1.7870	14.6450
 1.7880	14.6450
 1.7890	14.6470
 1.7900	14.6510
 1.7910	14.6550
 1.7920	14.6600
 1.7930	14.6660
 1.7940	14.6720
 1.7950	14.6780
 1.7960	14.6850
 1.7970	14.6920
 1.7980	14.6980
 1.7990	14.7060
 1.8000	14.7150
 1.8010	14.7230
 1.8020	14.7330
 1.8030	14.7410
 1.8040	14.7470
 1.8050	14.7550
 1.8060	14.7630
 1.8070	14.7710
 1.8080	14.7790
 1.8090	14.7860
 1.8100	14.7930
 1.8110	14.8020
 1.8120	14.8100
 1.8130	14.8180
 1.8140	14.8230
 1.8150	14.8280
 1.8160	14.8330
 1.8170	14.8380
 1.8180	14.8430
 1.8190	14.8490
 1.8200	14.8520
 1.8210	14.8550
 1.8220	14.8560
 1.8230	14.8530
 1.8240	14.8520
 1.8250	14.8520
 1.8260	14.8490
 1.8270	14.8450
 1.8280	14.8400
 1.8290	14.8290
 1.8300	14.8220
 1.8310	14.7900
 1.8320	14.7740
 1.8330	14.7570
 1.8340	14.7370
 1.8350	14.7170
 1.8360	14.6970
 1.8370	14.6720
 1.8380	14.6440
 1.8390	14.6140
 1.8400	14.5800
 1.8410	14.5440
 1.8420	14.5050
 1.8430	14.4630
 1.8440	14.4130
 1.8450	14.3600
 1.8460	14.3000
 1.8470	14.2340
 1.8480	14.1660
 1.8490	14.0900
 1.8500	14.0090
 1.8510	13.9240
 1.8520	13.8320
 1.8530	13.7270
 1.8540	13.6170
 1.8550	13.4990
 1.8560	13.3720
 1.8570	13.2440
 1.8580	13.1050
 1.8590	12.9570
 1.8600	12.8000
 1.8610	12.6350
 1.8620	12.4600
 1.8630	12.2800
 1.8640	12.0920
 1.8650	11.8950
 1.8660	11.6900
 1.8670	11.4740
 1.8680	11.2470
 1.8690	11.0110
 1.8700	10.7660
 1.8710	10.5110
 1.8720	10.2510
 1.8730	 9.9870
 1.8740	 9.7180
 1.8750	 9.4500
 1.8760	 9.1800
 1.8770	 8.9100
 1.8780	 8.6410
 1.8790	 8.3690
 1.8800	 8.1020
 1.8810	 7.8340
 1.8820	 7.5720
 1.8830	 7.3140
 1.8840	 7.0600
 1.8850	 6.8110
 1.8860	 6.5700
 1.8870	 6.3360
 1.8880	 6.1080
 1.8890	 5.8910
 1.8900	 5.6820
 1.8910	 5.4840
 1.8920	 5.2940
 1.8930	 5.1190
 1.8940	 4.9520
 1.8950	 4.7960
 1.8960	 4.6500
 1.8970	 4.5150
 1.8980	 4.3910
 1.8990	 4.2770
 1.9000	 4.1720
 1.9010	 4.0770
 1.9020	 3.9880
 1.9030	 3.9080
 1.9040	 3.8340
 1.9050	 3.7650
 1.9060	 3.7040
 1.9070	 3.6520
 1.9080	 3.6030
 1.9090	 3.5630
 1.9100	 3.5280
 1.9110	 3.4920
 1.9120	 3.4590
 1.9130	 3.4280
 1.9140	 3.3990
 1.9150	 3.3710
 1.9160	 3.3470
 1.9170	 3.3250
 1.9180	 3.3080
 1.9190	 3.2940
 1.9200	 3.2790
 1.9210	 3.2650
 1.9220	 3.2540
 1.9230	 3.2440
 1.9240	 3.2340
 1.9250	 3.2270
 1.9260	 3.2240
 1.9270	 3.2200
 1.9280	 3.2170
 1.9290	 3.2190
 1.9300	 3.2180
 1.9310	 3.2160
 1.9320	 3.2170
 1.9330	 3.2190
 1.9340	 3.2230
 1.9350	 3.2290
 1.9360	 3.2380
 1.9370	 3.2450
 1.9380	 3.2520
 1.9390	 3.2590
 1.9400	 3.2670
 1.9410	 3.2770
 1.9420	 3.2870
 1.9430	 3.2980
 1.9440	 3.3090
 1.9450	 3.3190
 1.9460	 3.3310
 1.9470	 3.3450
 1.9480	 3.3590
 1.9490	 3.3730
 1.9500	 3.3870
 1.9510	 3.4030
 1.9520	 3.4200
 1.9530	 3.4370
 1.9540	 3.4550
 1.9550	 3.4720
 1.9560	 3.4870
 1.9570	 3.5030
 1.9580	 3.5210
 1.9590	 3.5390
 1.9600	 3.5550
 1.9610	 3.5740
 1.9620	 3.5940
 1.9630	 3.6120
 1.9640	 3.6320
 1.9650	 3.6510
 1.9660	 3.6710
 1.9670	 3.6930
 1.9680	 3.7150
 1.9690	 3.7400
 1.9700	 3.7630
 1.9710	 3.7860
 1.9720	 3.8090
 1.9730	 3.8330
 1.9740	 3.8570
 1.9750	 3.8790
 1.9760	 3.9060
 1.9770	 3.9310
 1.9780	 3.9560
 1.9790	 3.9830
 1.9800	 4.0120
 1.9810	 4.0380
 1.9820	 4.0660
 1.9830	 4.0920
 1.9840	 4.1150
 1.9850	 4.1410
 1.9860	 4.1690
 1.9870	 4.1980
 1.9880	 4.2270
 1.9890	 4.2560
 1.9900	 4.2840
 1.9910	 4.3090
 1.9920	 4.3380
 1.9930	 4.3690
 1.9940	 4.3970
 1.9950	 4.4250
 1.9960	 4.4530
 1.9970	 4.4780
 1.9980	 4.5060
 1.9990	 4.5350
 2.0000	 4.5650
 2.0010	 4.5950
 2.0020	 4.6220
 2.0030	 4.6500
 2.0040	 4.6800
 2.0050	 4.7100
 2.0060	 4.7420
 2.0070	 4.7730
 2.0080	 4.8060
 2.0090	 4.8360
 2.0100	 4.8640
 2.0110	 4.8930
 2.0120	 4.9230
 2.0130	 4.9500
 2.0140	 4.9800
 2.0150	 5.0100
 2.0160	 5.0360
 2.0170	 5.0640
 2.0180	 5.0930
 2.0190	 5.1200
 2.0200	 5.1480
 2.0210	 5.1800
 2.0220	 5.2090
 2.0230	 5.2350
 2.0240	 5.2630
 2.0250	 5.2900
 2.0260	 5.3160
 2.0270	 5.3420
 2.0280	 5.3680
 2.0290	 5.3930
 2.0300	 5.4170
 2.0310	 5.4390
 2.0320	 5.4580
 2.0330	 5.4820
 2.0340	 5.5070
 2.0350	 5.5300
 2.0360	 5.5550
 2.0370	 5.5780
 2.0380	 5.5960
 2.0390	 5.6160
 2.0400	 5.6360
 2.0410	 5.6570
 2.0420	 5.6790
 2.0430	 5.7000
 2.0440	 5.7200
 2.0450	 5.7400
 2.0460	 5.7590
 2.0470	 5.7770
 2.0480	 5.7960
 2.0490	 5.8170
 2.0500	 5.8360
 2.0510	 5.8550
 2.0520	 5.8740
 2.0530	 5.8920
 2.0540	 5.9110
 2.0550	 5.9330
 2.0560	 5.9530
 2.0570	 5.9730
 2.0580	 5.9950
 2.0590	 6.0130
 2.0600	 6.0290
 2.0610	 6.0480
 2.0620	 6.0650
 2.0630	 6.0850
 2.0640	 6.1080
 2.0650	 6.1280
 2.0660	 6.1470
 2.0670	 6.1670
 2.0680	 6.1860
 2.0690	 6.2050
 2.0700	 6.2220
 2.0710	 6.2410
 2.0720	 6.2580
 2.0730	 6.2780
 2.0740	 6.2980
 2.0750	 6.3210
 2.0760	 6.3410
 2.0770	 6.3600
 2.0780	 6.3790
 2.0790	 6.3970
 2.0800	 6.4160
 2.0810	 6.4350
 2.0820	 6.4550
 2.0830	 6.4780
 2.0840	 6.4980
 2.0850	 6.5190
 2.0860	 6.5390
 2.0870	 6.5570
 2.0880	 6.5750
 2.0890	 6.5940
 2.0900	 6.6120
 2.0910	 6.6330
 2.0920	 6.6550
 2.0930	 6.6760
 2.0940	 6.6980
 2.0950	 6.7180
 2.0960	 6.7340
 2.0970	 6.7520
 2.0980	 6.7700
 2.0990	 6.7890
 2.1000	 6.8070
 2.1010	 6.8270
 2.1020	 6.8500
 2.1030	 6.8710
 2.1040	 6.8930
 2.1050	 6.9140
 2.1060	 6.9350
 2.1070	 6.9540
 2.1080	 6.9730
 2.1090	 6.9920
 2.1100	 7.0110
 2.1110	 7.0300
 2.1120	 7.0500
 2.1130	 7.0690
 2.1140	 7.0880
 2.1150	 7.1070
 2.1160	 7.1260
 2.1170	 7.1470
 2.1180	 7.1670
 2.1190	 7.1880
 2.1200	 7.2080
 2.1210	 7.2280
 2.1220	 7.2460
 2.1230	 7.2650
 2.1240	 7.2820
 2.1250	 7.3000
 2.1260	 7.3170
 2.1270	 7.3320
 2.1280	 7.3460
 2.1290	 7.3620
 2.1300	 7.3760
 2.1310	 7.3920
 2.1320	 7.4090
 2.1330	 7.4270
 2.1340	 7.4470
 2.1350	 7.4640
 2.1360	 7.4830
 2.1370	 7.4990
 2.1380	 7.5110
 2.1390	 7.5250
 2.1400	 7.5370
 2.1410	 7.5500
 2.1420	 7.5660
 2.1430	 7.5840
 2.1440	 7.6010
 2.1450	 7.6210
 2.1460	 7.6390
 2.1470	 7.6570
 2.1480	 7.6750
 2.1490	 7.6920
 2.1500	 7.7110
 2.1510	 7.7330
 2.1520	 7.7520
 2.1530	 7.7710
 2.1540	 7.7890
 2.1550	 7.8030
 2.1560	 7.8190
 2.1570	 7.8350
 2.1580	 7.8520
 2.1590	 7.8710
 2.1600	 7.8880
 2.1610	 7.9030
 2.1620	 7.9210
 2.1630	 7.9360
 2.1640	 7.9490
 2.1650	 7.9640
 2.1660	 7.9800
 2.1670	 7.9930
 2.1680	 8.0040
 2.1690	 8.0170
 2.1700	 8.0270
 2.1710	 8.0420
 2.1720	 8.0650
 2.1730	 8.0810
 2.1740	 8.0940
 2.1750	 8.1090
 2.1760	 8.1210
 2.1770	 8.1350
 2.1780	 8.1480
 2.1790	 8.1640
 2.1800	 8.1790
 2.1810	 8.1950
 2.1820	 8.2120
 2.1830	 8.2310
 2.1840	 8.2470
 2.1850	 8.2610
 2.1860	 8.2770
 2.1870	 8.2950
 2.1880	 8.3100
 2.1890	 8.3260
 2.1900	 8.3390
 2.1910	 8.3460
 2.1920	 8.3580
 2.1930	 8.3720
 2.1940	 8.3860
 2.1950	 8.4030
 2.1960	 8.4180
 2.1970	 8.4300
 2.1980	 8.4430
 2.1990	 8.4550
 2.2000	 8.4660
 2.2010	 8.4750
 2.2020	 8.4860
 2.2030	 8.4980
 2.2040	 8.5080
 2.2050	 8.5180
 2.2060	 8.5270
 2.2070	 8.5320
 2.2080	 8.5340
 2.2090	 8.5380
 2.2100	 8.5420
 2.2110	 8.5480
 2.2120	 8.5550
 2.2130	 8.5620
 2.2140	 8.5710
 2.2150	 8.5770
 2.2160	 8.5840
 2.2170	 8.5870
 2.2180	 8.5850
 2.2190	 8.5840
 2.2200	 8.5800
 2.2210	 8.5750
 2.2220	 8.5710
 2.2230	 8.5650
 2.2240	 8.5560
 2.2250	 8.5470
 2.2260	 8.5370
 2.2270	 8.5260
 2.2280	 8.5130
 2.2290	 8.4990
 2.2300	 8.4830
 2.2310	 8.4640
 2.2320	 8.4470
 2.2330	 8.4290
 2.2340	 8.4080
 2.2350	 8.3880
 2.2360	 8.3640
 2.2370	 8.3360
 2.2380	 8.3100
 2.2390	 8.2830
 2.2400	 8.2550
 2.2410	 8.2290
 2.2420	 8.1980
 2.2430	 8.1620
 2.2440	 8.1270
 2.2450	 8.0900
 2.2460	 8.0530
 2.2470	 8.0190
 2.2480	 7.9800
 2.2490	 7.9360
 2.2500	 7.8970
 2.2510	 7.8580
 2.2520	 7.8180
 2.2530	 7.7830
 2.2540	 7.7430
 2.2550	 7.6950
 2.2560	 7.6520
 2.2570	 7.6110
 2.2580	 7.5670
 2.2590	 7.5240
 2.2600	 7.4780
 2.2610	 7.4240
 2.2620	 7.3750
 2.2630	 7.3330
 2.2640	 7.2920
 2.2650	 7.2570
 2.2660	 7.2190
 2.2670	 7.1800
 2.2680	 7.1370
 2.2690	 7.0990
 2.2700	 7.0640
 2.2710	 7.0300
 2.2720	 6.9970
 2.2730	 6.9640
 2.2740	 6.9330
 2.2750	 6.9020
 2.2760	 6.8730
 2.2770	 6.8470
 2.2780	 6.8190
 2.2790	 6.7980
 2.2800	 6.7860
 2.2810	 6.7670
 2.2820	 6.7530
 2.2830	 6.7310
 2.2840	 6.6970
 2.2850	 6.6710
 2.2860	 6.6450
 2.2870	 6.6180
 2.2880	 6.5990
 2.2890	 6.5730
 2.2900	 6.5430
 2.2910	 6.5110
 2.2920	 6.4740
 2.2930	 6.4370
 2.2940	 6.3920
 2.2950	 6.3540
 2.2960	 6.3200
 2.2970	 6.2840
 2.2980	 6.2500
 2.2990	 6.2150
 2.3000	 6.1750
 2.3010	 6.1370
 2.3020	 6.1030
 2.3030	 6.0630
 2.3040	 6.0260
 2.3050	 5.9920
 2.3060	 5.9600
 2.3070	 5.9360
 2.3080	 5.9120
 2.3090	 5.8900
 2.3100	 5.8730
 2.3110	 5.8610
 2.3120	 5.8550
 2.3130	 5.8600
 2.3140	 5.8600
 2.3150	 5.8620
 2.3160	 5.8690
 2.3170	 5.8810
 2.3180	 5.8890
 2.3190	 5.9030
 2.3200	 5.9090
 2.3210	 5.9120
 2.3220	 5.9100
 2.3230	 5.9020
 2.3240	 5.8980
 2.3250	 5.8880
 2.3260	 5.8800
 2.3270	 5.8790
 2.3280	 5.8680
 2.3290	 5.8490
 2.3300	 5.8300
 2.3310	 5.8040
 2.3320	 5.7820
 2.3330	 5.7610
 2.3340	 5.7410
 2.3350	 5.7220
 2.3360	 5.7010
 2.3370	 5.6750
 2.3380	 5.6550
 2.3390	 5.6400
 2.3400	 5.6190
 2.3410	 5.5970
 2.3420	 5.5720
 2.3430	 5.5370
 2.3440	 5.5070
 2.3450	 5.4760
 2.3460	 5.4480
 2.3470	 5.4220
 2.3480	 5.3980
 2.3490	 5.3760
 2.3500	 5.3590
 2.3510	 5.3510
 2.3520	 5.3360
 2.3530	 5.3180
 2.3540	 5.3030
 2.3550	 5.2840
 2.3560	 5.2680
 2.3570	 5.2650
 2.3580	 5.2620
 2.3590	 5.2540
 2.3600	 5.2500
 2.3610	 5.2410
 2.3620	 5.2270
 2.3630	 5.2200
 2.3640	 5.2120
 2.3650	 5.2000
 2.3660	 5.1930
 2.3670	 5.1750
 2.3680	 5.1560
 2.3690	 5.1420
 2.3700	 5.1240
 2.3710	 5.1080
 2.3720	 5.0960
 2.3730	 5.0730
 2.3740	 5.0520
 2.3750	 5.0390
 2.3760	 5.0170
 2.3770	 5.0050
 2.3780	 4.9990
 2.3790	 4.9780
 2.3800	 4.9670
 2.3810	 4.9500
 2.3820	 4.9320
 2.3830	 4.9250
 2.3840	 4.9130
 2.3850	 4.9000
 2.3860	 4.8830
 2.3870	 4.8600
 2.3880	 4.8420
 2.3890	 4.8320
 2.3900	 4.8190
 2.3910	 4.7980
 2.3920	 4.7780
 2.3930	 4.7530
 2.3940	 4.7340
 2.3950	 4.7270
 2.3960	 4.7190
 2.3970	 4.7060
 2.3980	 4.6920
 2.3990	 4.6810
 2.4000	 4.6660
 2.4010	 4.6510
 2.4020	 4.6360
 2.4030	 4.6190
 2.4040	 4.6050
 2.4050	 4.5920
 2.4060	 4.5840
 2.4070	 4.5610
 2.4080	 4.5320
 2.4090	 4.5150
 2.4100	 4.4900
 2.4110	 4.4780
 2.4120	 4.4760
 2.4130	 4.4510
 2.4140	 4.4280
 2.4150	 4.4030
 2.4160	 4.3760
 2.4170	 4.3640
 2.4180	 4.3490
 2.4190	 4.3280
 2.4200	 4.3080
 2.4210	 4.2850
 2.4220	 4.2590
 2.4230	 4.2490
 2.4240	 4.2430
 2.4250	 4.2320
 2.4260	 4.2180
 2.4270	 4.1950
 2.4280	 4.1710
 2.4290	 4.1580
 2.4300	 4.1530
 2.4310	 4.1440
 2.4320	 4.1290
 2.4330	 4.0950
 2.4340	 4.0650
 2.4350	 4.0540
 2.4360	 4.0240
 2.4370	 4.0000
 2.4380	 3.9950
 2.4390	 3.9680
 2.4400	 3.9500
 2.4410	 3.9480
 2.4420	 3.9260
 2.4430	 3.9090
 2.4440	 3.8950
 2.4450	 3.8750
 2.4460	 3.8490
 2.4470	 3.8260
 2.4480	 3.7980
 2.4490	 3.7750
 2.4500	 3.7600
 2.4510	 3.7420
 2.4520	 3.7300
 2.4530	 3.7130
 2.4540	 3.6970
 2.4550	 3.6910
 2.4560	 3.6920
 2.4570	 3.6930
 2.4580	 3.6870
 2.4590	 3.6720
 2.4600	 3.6500
 2.4610	 3.6320
 2.4620	 3.6000
 2.4630	 3.5520
 2.4640	 3.5100
 2.4650	 3.4800
 2.4660	 3.4600
 2.4670	 3.4690
 2.4680	 3.4780
 2.4690	 3.4470
 2.4700	 3.4380
 2.4710	 3.4230
 2.4720	 3.4140
 2.4730	 3.4250
 2.4740	 3.4180
 2.4750	 3.4050
 2.4760	 3.4020
 2.4770	 3.4030
 2.4780	 3.3980
 2.4790	 3.3980
 2.4800	 3.3820
 2.4810	 3.3350
 2.4820	 3.2890
 2.4830	 3.2830
 2.4840	 3.2910
 2.4850	 3.3010
 2.4860	 3.3040
 2.4870	 3.2970
 2.4880	 3.2680
 2.4890	 3.2200
 2.4900	 3.2250
 2.4910	 3.2250
 2.4920	 3.2230
 2.4930	 3.2660
 2.4940	 3.2590
 2.4950	 3.2340
 2.4960	 3.2630
 2.4970	 3.2720
 2.4980	 3.2730
 2.4990	 3.2390
 2.5000	 3.1920
