Name: Arctostaphylos glandulosa 1
Type: vegetation
Class: Shrub
Genus: Arctostaphylos
Species: glandulosa
Sample No.: VH229
Owner: UCSB
Wavelength Range: TIR
Origin: 34.5084; -119.7682; WGS84
Collection Date: 10/13/2013
Description: Samples were collected as part of the HyspIRI Airborne Campaign. 48 individual plants were sampled in three times in 2013 - spring  summer  and fall. The name of the sample includes a 1  2  or 3 which references a different individual of the species. Samples were taken to JPL and processed within 48 hours of collection. The same leaves were processed in the Nicolet and then measured using the ASD.
Measurement: Hemispherical reflectance
First Column: X
Second Column: Y
X Units: Wavelength (micrometers)
Y Units: Reflectance (percentage)
First X Value: 2.501
Last X Value: 15.387
Number of X Values: 1737
Additional Information: vegetation.shrub.arctostaphylos.glandulosa.tir.vh229.ucsb.nicolet.ancillary.txt

 2.5010	 9.8260
 2.5030	 9.7020
 2.5040	 9.6250
 2.5050	 9.5310
 2.5060	 9.6270
 2.5070	 9.5980
 2.5090	 9.5060
 2.5100	 9.4760
 2.5110	 9.6330
 2.5120	 9.5940
 2.5140	 9.5420
 2.5150	 9.6040
 2.5160	 9.4760
 2.5170	 9.3690
 2.5180	 9.3360
 2.5200	 9.4040
 2.5210	 9.5580
 2.5220	 9.5870
 2.5230	 9.6150
 2.5250	 9.5010
 2.5260	 9.4990
 2.5270	 9.2790
 2.5280	 9.2070
 2.5290	 9.4250
 2.5310	 9.5750
 2.5320	 9.5170
 2.5330	 9.5660
 2.5340	 9.6520
 2.5360	 9.5840
 2.5370	 9.5280
 2.5380	 9.6820
 2.5390	 9.5700
 2.5410	 9.5630
 2.5420	 9.5280
 2.5430	 9.5130
 2.5440	 9.6290
 2.5460	 9.6850
 2.5470	 9.7230
 2.5480	 9.6580
 2.5490	 9.4940
 2.5510	 9.5120
 2.5520	 9.4800
 2.5530	 9.3800
 2.5540	 9.2890
 2.5560	 9.4670
 2.5570	 9.5750
 2.5580	 9.4610
 2.5590	 9.4810
 2.5610	 9.7640
 2.5620	 9.6720
 2.5630	 9.5090
 2.5640	 9.5190
 2.5660	 9.5540
 2.5670	 9.5110
 2.5680	 9.5640
 2.5700	 9.5110
 2.5710	 9.4140
 2.5720	 9.3150
 2.5730	 9.3990
 2.5750	 9.6640
 2.5760	 9.8290
 2.5770	 9.6740
 2.5790	 9.6760
 2.5800	 9.5960
 2.5810	 9.4800
 2.5820	 9.4830
 2.5840	 9.6330
 2.5850	 9.5760
 2.5860	 9.6900
 2.5880	 9.6640
 2.5890	 9.5760
 2.5900	 9.5870
 2.5910	 9.4920
 2.5930	 9.4500
 2.5940	 9.6080
 2.5950	 9.7360
 2.5970	 9.6650
 2.5980	 9.4660
 2.5990	 9.2380
 2.6000	 9.1300
 2.6020	 9.2810
 2.6030	 9.3350
 2.6040	 9.3970
 2.6060	 9.3950
 2.6070	 9.4590
 2.6080	 9.4000
 2.6100	 9.4910
 2.6110	 9.6700
 2.6120	 9.6850
 2.6140	 9.4240
 2.6150	 9.4290
 2.6160	 9.5960
 2.6180	 9.4720
 2.6190	 9.2010
 2.6200	 9.3350
 2.6220	 9.4540
 2.6230	 9.6390
 2.6240	 9.5380
 2.6260	 9.2720
 2.6270	 9.1070
 2.6280	 9.1920
 2.6300	 9.4170
 2.6310	 9.3850
 2.6320	 9.1150
 2.6340	 9.2710
 2.6350	 9.3570
 2.6360	 9.3770
 2.6380	 9.3290
 2.6390	 9.3370
 2.6400	 9.2110
 2.6420	 9.1440
 2.6430	 9.2120
 2.6440	 9.3620
 2.6460	 9.1830
 2.6470	 9.1180
 2.6480	 9.1970
 2.6500	 9.2400
 2.6510	 9.0040
 2.6520	 9.1040
 2.6540	 9.2960
 2.6550	 9.2480
 2.6560	 9.0800
 2.6580	 9.0160
 2.6590	 9.0450
 2.6610	 9.1610
 2.6620	 9.1010
 2.6630	 9.0820
 2.6650	 8.8070
 2.6660	 8.7090
 2.6670	 8.7070
 2.6690	 8.6800
 2.6700	 8.7140
 2.6720	 8.5470
 2.6730	 8.4280
 2.6740	 8.6710
 2.6760	 8.7370
 2.6770	 8.5760
 2.6780	 8.5270
 2.6800	 8.5000
 2.6810	 8.4130
 2.6830	 8.4960
 2.6840	 8.4900
 2.6850	 8.6420
 2.6870	 8.6250
 2.6880	 8.5290
 2.6900	 8.5080
 2.6910	 8.6570
 2.6920	 8.5630
 2.6940	 8.5600
 2.6950	 8.4560
 2.6970	 8.2250
 2.6980	 8.2740
 2.6990	 8.4640
 2.7010	 8.3320
 2.7020	 8.3210
 2.7040	 8.2090
 2.7050	 8.1040
 2.7060	 8.0730
 2.7080	 8.1300
 2.7090	 7.8940
 2.7110	 7.8940
 2.7120	 7.9570
 2.7130	 8.0150
 2.7150	 7.9410
 2.7160	 7.9830
 2.7180	 7.8770
 2.7190	 7.7530
 2.7210	 7.7890
 2.7220	 7.7770
 2.7230	 7.6760
 2.7250	 7.5860
 2.7260	 7.5410
 2.7280	 7.4880
 2.7290	 7.2620
 2.7310	 7.3170
 2.7320	 7.4800
 2.7330	 7.7060
 2.7350	 7.7470
 2.7360	 7.6890
 2.7380	 7.5180
 2.7390	 7.5670
 2.7410	 7.5400
 2.7420	 7.1900
 2.7440	 6.9360
 2.7450	 7.3580
 2.7470	 7.3190
 2.7480	 7.0560
 2.7490	 6.6960
 2.7510	 6.4570
 2.7520	 6.9440
 2.7540	 7.5640
 2.7550	 7.7580
 2.7570	 7.5540
 2.7580	 7.6810
 2.7600	 7.5380
 2.7610	 7.3730
 2.7630	 7.5230
 2.7640	 7.0310
 2.7660	 6.8900
 2.7670	 6.9950
 2.7680	 6.8820
 2.7700	 6.6650
 2.7710	 6.7610
 2.7730	 6.9560
 2.7740	 6.9820
 2.7760	 6.9820
 2.7770	 6.7220
 2.7790	 6.5140
 2.7800	 6.8210
 2.7820	 6.6960
 2.7830	 6.9050
 2.7850	 6.9100
 2.7860	 6.7650
 2.7880	 6.9010
 2.7890	 6.7060
 2.7910	 6.4540
 2.7920	 6.7510
 2.7940	 6.8930
 2.7950	 6.6490
 2.7970	 6.6060
 2.7980	 6.7800
 2.8000	 6.9920
 2.8010	 7.1180
 2.8030	 6.9220
 2.8040	 6.7890
 2.8060	 6.7570
 2.8070	 6.8960
 2.8090	 6.9330
 2.8110	 6.7710
 2.8120	 6.8220
 2.8140	 7.0560
 2.8150	 6.7940
 2.8170	 6.6500
 2.8180	 6.6210
 2.8200	 6.8630
 2.8210	 7.1900
 2.8230	 7.2900
 2.8240	 7.1430
 2.8260	 7.1180
 2.8270	 7.1520
 2.8290	 6.7350
 2.8300	 6.2420
 2.8320	 6.6570
 2.8340	 7.0680
 2.8350	 6.8470
 2.8370	 6.5960
 2.8380	 6.5160
 2.8400	 6.4630
 2.8410	 6.4880
 2.8430	 6.6590
 2.8440	 6.6800
 2.8460	 6.6280
 2.8480	 6.6550
 2.8490	 6.5310
 2.8510	 6.6560
 2.8520	 6.8160
 2.8540	 6.7830
 2.8550	 6.6750
 2.8570	 6.7180
 2.8590	 6.6700
 2.8600	 6.7130
 2.8620	 6.7400
 2.8630	 6.7200
 2.8650	 6.7820
 2.8660	 7.0360
 2.8680	 6.8410
 2.8700	 6.8490
 2.8710	 7.0670
 2.8730	 6.8250
 2.8740	 6.3240
 2.8760	 6.4590
 2.8780	 6.5630
 2.8790	 6.6990
 2.8810	 7.0750
 2.8820	 7.2540
 2.8840	 6.9590
 2.8860	 6.6610
 2.8870	 6.4690
 2.8890	 6.2860
 2.8900	 6.4520
 2.8920	 6.4480
 2.8940	 6.1740
 2.8950	 6.2420
 2.8970	 6.1520
 2.8980	 6.2280
 2.9000	 6.3240
 2.9020	 6.5530
 2.9030	 6.9140
 2.9050	 6.6570
 2.9070	 6.5020
 2.9080	 6.6610
 2.9100	 6.4290
 2.9120	 6.7180
 2.9130	 6.7930
 2.9150	 6.7420
 2.9160	 6.7440
 2.9180	 6.9240
 2.9200	 6.9320
 2.9210	 6.9140
 2.9230	 6.8830
 2.9250	 6.7450
 2.9260	 6.5800
 2.9280	 6.6580
 2.9300	 6.6150
 2.9310	 6.7020
 2.9330	 6.7190
 2.9350	 6.7430
 2.9360	 6.7940
 2.9380	 6.8950
 2.9400	 6.9230
 2.9410	 6.8370
 2.9430	 6.7050
 2.9450	 6.2890
 2.9460	 5.8080
 2.9480	 6.2960
 2.9500	 6.4680
 2.9510	 6.5160
 2.9530	 7.0420
 2.9550	 7.6120
 2.9560	 7.1150
 2.9580	 6.8510
 2.9600	 6.4850
 2.9610	 5.9460
 2.9630	 5.1490
 2.9650	 4.8820
 2.9660	 5.8630
 2.9680	 7.2450
 2.9700	 7.3410
 2.9720	 7.1390
 2.9730	 7.6060
 2.9750	 7.3400
 2.9770	 5.9200
 2.9780	 5.8410
 2.9800	 6.3910
 2.9820	 6.7860
 2.9840	 7.6570
 2.9850	 7.6320
 2.9870	 7.3930
 2.9890	 7.7190
 2.9900	 7.7060
 2.9920	10.0480
 2.9940	10.6940
 2.9960	 7.3670
 2.9970	 6.3430
 2.9990	 5.9620
 3.0010	 5.3220
 3.0030	 6.5190
 3.0040	 7.8510
 3.0060	 6.8320
 3.0080	 7.3260
 3.0100	 8.0300
 3.0110	 6.6710
 3.0130	 6.6710
 3.0150	 6.5870
 3.0170	 6.2640
 3.0180	 6.5840
 3.0200	 6.8250
 3.0220	 6.9010
 3.0240	 7.1020
 3.0250	 7.1440
 3.0270	 7.3100
 3.0290	 7.3280
 3.0310	 7.8560
 3.0320	 8.5680
 3.0340	 7.9510
 3.0360	 6.7660
 3.0380	 7.6190
 3.0400	 8.3580
 3.0410	 7.9800
 3.0430	 5.9610
 3.0450	 4.7150
 3.0470	 3.6300
 3.0480	 3.5960
 3.0500	 7.0030
 3.0520	11.1770
 3.0540	 9.8820
 3.0560	 6.0380
 3.0570	 3.5810
 3.0590	 4.4670
 3.0610	 4.9720
 3.0630	 5.8130
 3.0650	 7.6930
 3.0660	 7.1450
 3.0680	 6.6070
 3.0700	 7.4060
 3.0720	 8.3940
 3.0740	 7.8890
 3.0760	 6.7890
 3.0770	 7.0340
 3.0790	 7.6210
 3.0810	 7.4570
 3.0830	 7.0130
 3.0850	 6.7910
 3.0870	 6.8010
 3.0880	 7.0000
 3.0900	 7.2010
 3.0920	 7.0270
 3.0940	 6.8340
 3.0960	 7.0640
 3.0980	 7.1570
 3.0990	 7.1560
 3.1010	 7.1270
 3.1030	 7.3410
 3.1050	 7.3800
 3.1070	 7.0300
 3.1090	 6.8190
 3.1110	 6.9030
 3.1120	 6.9460
 3.1140	 7.3410
 3.1160	 7.4240
 3.1180	 7.3700
 3.1200	 7.3550
 3.1220	 6.9910
 3.1240	 6.6520
 3.1260	 6.8280
 3.1270	 7.0250
 3.1290	 6.9050
 3.1310	 6.5370
 3.1330	 7.1380
 3.1350	 7.0960
 3.1370	 6.6230
 3.1390	 6.9100
 3.1410	 7.8270
 3.1430	 8.5710
 3.1450	 8.9530
 3.1460	 8.1800
 3.1480	 8.0240
 3.1500	 7.9530
 3.1520	 7.3830
 3.1540	 7.4220
 3.1560	 9.6630
 3.1580	10.8370
 3.1600	 8.6550
 3.1620	 7.6730
 3.1640	 7.4030
 3.1660	 6.3670
 3.1680	 7.4330
 3.1700	 7.5850
 3.1710	 5.5500
 3.1730	 5.6650
 3.1750	 4.6190
 3.1770	 5.7110
 3.1790	 7.8090
 3.1810	 8.0690
 3.1830	 7.2590
 3.1850	 7.1210
 3.1870	 6.9740
 3.1890	 7.2270
 3.1910	 7.2820
 3.1930	 6.9500
 3.1950	 6.9900
 3.1970	 6.8890
 3.1990	 7.3590
 3.2010	 7.4780
 3.2030	 7.3680
 3.2050	 7.3900
 3.2070	 7.0470
 3.2090	 6.9060
 3.2110	 6.9850
 3.2130	 7.0780
 3.2150	 7.3760
 3.2170	 7.3660
 3.2190	 7.3880
 3.2210	 7.3300
 3.2230	 7.2090
 3.2250	 7.0800
 3.2270	 6.9010
 3.2290	 6.9650
 3.2310	 7.1390
 3.2330	 7.1450
 3.2350	 7.1940
 3.2370	 7.1700
 3.2390	 7.3370
 3.2410	 7.5620
 3.2430	 7.4510
 3.2450	 7.3640
 3.2470	 7.3690
 3.2490	 7.3090
 3.2510	 7.3280
 3.2530	 7.0540
 3.2550	 6.7810
 3.2570	 6.9550
 3.2590	 7.1690
 3.2610	 7.4290
 3.2630	 7.4730
 3.2650	 7.3390
 3.2670	 7.0670
 3.2690	 6.9660
 3.2720	 6.9920
 3.2740	 7.2730
 3.2760	 7.4440
 3.2780	 7.5490
 3.2800	 7.5910
 3.2820	 7.5040
 3.2840	 7.5510
 3.2860	 7.5300
 3.2880	 7.3010
 3.2900	 7.2000
 3.2920	 7.3980
 3.2940	 7.4980
 3.2960	 7.3340
 3.2990	 7.2420
 3.3010	 7.0360
 3.3030	 7.0850
 3.3050	 7.1130
 3.3070	 7.0350
 3.3090	 7.2460
 3.3110	 7.3340
 3.3130	 7.4300
 3.3150	 7.3960
 3.3180	 7.0860
 3.3200	 6.9320
 3.3220	 6.8070
 3.3240	 6.8290
 3.3260	 6.9410
 3.3280	 7.0190
 3.3300	 6.7480
 3.3330	 6.9300
 3.3350	 7.1700
 3.3370	 7.3070
 3.3390	 7.2950
 3.3410	 7.1300
 3.3430	 6.9750
 3.3450	 6.8820
 3.3480	 6.7650
 3.3500	 6.8360
 3.3520	 6.8550
 3.3540	 6.7750
 3.3560	 6.9280
 3.3580	 6.8100
 3.3610	 6.5580
 3.3630	 6.6940
 3.3650	 6.8220
 3.3670	 6.7300
 3.3690	 6.6220
 3.3720	 6.6660
 3.3740	 6.6200
 3.3760	 6.5400
 3.3780	 6.6820
 3.3800	 6.6000
 3.3830	 6.2870
 3.3850	 6.1600
 3.3870	 6.3880
 3.3890	 6.5840
 3.3910	 6.5380
 3.3940	 6.4910
 3.3960	 6.4200
 3.3980	 6.3360
 3.4000	 6.4050
 3.4020	 6.3240
 3.4050	 6.1520
 3.4070	 6.1330
 3.4090	 6.0850
 3.4110	 6.0900
 3.4140	 6.2690
 3.4160	 6.6270
 3.4180	 7.0670
 3.4200	 7.2960
 3.4230	 7.8390
 3.4250	 8.5800
 3.4270	 9.2310
 3.4290	 9.5130
 3.4320	 9.5010
 3.4340	 9.3290
 3.4360	 9.0840
 3.4390	 8.8590
 3.4410	 8.4270
 3.4430	 8.0280
 3.4450	 8.0740
 3.4480	 8.1370
 3.4500	 7.8430
 3.4520	 7.8470
 3.4550	 8.0670
 3.4570	 7.9860
 3.4590	 7.6520
 3.4620	 7.3190
 3.4640	 7.5100
 3.4660	 7.7300
 3.4680	 7.7180
 3.4710	 7.4700
 3.4730	 7.4630
 3.4750	 7.4910
 3.4780	 7.4950
 3.4800	 7.3170
 3.4820	 7.1860
 3.4850	 7.1890
 3.4870	 7.1740
 3.4890	 7.0870
 3.4920	 7.0310
 3.4940	 6.9780
 3.4970	 6.8400
 3.4990	 6.7700
 3.5010	 6.9410
 3.5040	 7.0830
 3.5060	 7.3800
 3.5080	 8.1800
 3.5110	 9.0550
 3.5130	 9.2920
 3.5160	 9.1610
 3.5180	 8.8900
 3.5200	 8.6820
 3.5230	 8.5560
 3.5250	 8.3550
 3.5270	 8.1910
 3.5300	 8.2030
 3.5320	 8.1820
 3.5350	 8.1200
 3.5370	 8.1470
 3.5400	 8.2220
 3.5420	 8.1740
 3.5440	 8.0260
 3.5470	 8.0930
 3.5490	 8.1980
 3.5520	 8.1810
 3.5540	 8.1580
 3.5570	 8.0360
 3.5590	 8.0030
 3.5610	 8.0210
 3.5640	 7.9590
 3.5660	 7.7880
 3.5690	 7.7570
 3.5710	 7.9370
 3.5740	 8.1480
 3.5760	 8.1060
 3.5790	 8.0660
 3.5810	 7.9580
 3.5840	 7.8600
 3.5860	 7.8140
 3.5890	 7.6980
 3.5910	 7.6550
 3.5930	 7.7230
 3.5960	 8.0530
 3.5980	 8.2270
 3.6010	 8.3600
 3.6030	 8.2490
 3.6060	 7.9060
 3.6080	 7.6930
 3.6110	 7.7560
 3.6140	 7.8630
 3.6160	 7.8000
 3.6190	 7.7860
 3.6210	 7.8530
 3.6240	 7.8610
 3.6260	 7.9200
 3.6290	 8.0410
 3.6310	 7.9530
 3.6340	 7.8390
 3.6360	 7.8400
 3.6390	 7.8570
 3.6410	 7.8770
 3.6440	 7.8070
 3.6470	 7.8740
 3.6490	 7.9420
 3.6520	 7.9480
 3.6540	 7.9250
 3.6570	 7.9290
 3.6590	 7.7060
 3.6620	 7.6500
 3.6650	 7.7630
 3.6670	 7.7850
 3.6700	 7.8640
 3.6720	 7.8910
 3.6750	 7.8840
 3.6780	 7.9970
 3.6800	 8.0030
 3.6830	 7.8850
 3.6850	 7.7960
 3.6880	 7.7850
 3.6910	 7.7750
 3.6930	 7.7740
 3.6960	 7.8590
 3.6990	 7.8310
 3.7010	 7.7680
 3.7040	 7.8130
 3.7060	 7.7950
 3.7090	 7.7980
 3.7120	 7.8590
 3.7140	 7.8360
 3.7170	 7.8450
 3.7200	 7.9000
 3.7220	 7.9460
 3.7250	 7.9020
 3.7280	 7.9160
 3.7300	 7.9420
 3.7330	 7.9430
 3.7360	 7.8150
 3.7390	 7.7560
 3.7410	 7.7850
 3.7440	 7.8740
 3.7470	 7.8910
 3.7490	 7.7640
 3.7520	 7.5490
 3.7550	 7.4980
 3.7580	 7.5790
 3.7600	 7.6890
 3.7630	 7.7820
 3.7660	 7.7150
 3.7680	 7.6950
 3.7710	 7.8120
 3.7740	 7.8150
 3.7770	 7.8570
 3.7790	 7.9120
 3.7820	 7.8450
 3.7850	 7.7770
 3.7880	 7.9170
 3.7900	 7.9760
 3.7930	 7.8180
 3.7960	 7.8340
 3.7990	 7.9250
 3.8020	 7.8770
 3.8040	 7.8950
 3.8070	 7.9630
 3.8100	 7.9490
 3.8130	 7.9220
 3.8160	 8.0040
 3.8180	 7.8700
 3.8210	 7.8050
 3.8240	 7.8510
 3.8270	 7.8680
 3.8300	 7.8540
 3.8330	 7.8610
 3.8350	 7.7780
 3.8380	 7.7520
 3.8410	 7.7280
 3.8440	 7.7690
 3.8470	 7.8080
 3.8500	 7.8470
 3.8520	 7.8770
 3.8550	 7.8700
 3.8580	 7.8270
 3.8610	 7.8690
 3.8640	 7.9180
 3.8670	 7.9030
 3.8700	 7.8590
 3.8730	 7.8240
 3.8750	 7.8780
 3.8780	 7.9970
 3.8810	 7.9720
 3.8840	 8.0150
 3.8870	 8.0290
 3.8900	 7.9820
 3.8930	 7.8470
 3.8960	 7.7570
 3.8990	 7.8200
 3.9020	 7.8200
 3.9050	 7.8210
 3.9080	 7.8650
 3.9110	 7.9510
 3.9140	 8.0270
 3.9160	 7.9450
 3.9190	 7.9310
 3.9220	 8.0030
 3.9250	 8.0390
 3.9280	 8.0540
 3.9310	 7.9960
 3.9340	 8.0400
 3.9370	 8.0960
 3.9400	 7.9940
 3.9430	 7.9500
 3.9460	 7.9300
 3.9490	 7.9770
 3.9520	 7.9960
 3.9550	 7.9770
 3.9580	 7.9370
 3.9610	 8.0270
 3.9640	 8.0970
 3.9670	 7.9780
 3.9700	 7.9170
 3.9730	 7.8870
 3.9770	 7.9250
 3.9800	 7.9710
 3.9830	 8.0250
 3.9860	 7.9530
 3.9890	 7.9870
 3.9920	 8.1150
 3.9950	 8.0750
 3.9980	 8.0880
 4.0010	 8.0660
 4.0040	 7.9680
 4.0070	 8.0500
 4.0100	 8.1720
 4.0130	 8.1330
 4.0170	 8.0660
 4.0200	 8.0250
 4.0230	 8.0430
 4.0260	 8.0750
 4.0290	 8.0750
 4.0320	 8.0670
 4.0350	 8.0510
 4.0380	 8.0590
 4.0420	 8.0780
 4.0450	 8.1260
 4.0480	 8.0680
 4.0510	 7.9790
 4.0540	 8.0080
 4.0570	 7.9700
 4.0610	 8.1500
 4.0640	 8.1690
 4.0670	 8.0640
 4.0700	 8.2000
 4.0730	 8.2430
 4.0770	 8.0420
 4.0800	 7.8890
 4.0830	 7.9560
 4.0860	 8.1170
 4.0890	 8.1300
 4.0930	 8.1850
 4.0960	 8.1670
 4.0990	 8.1040
 4.1020	 7.9930
 4.1060	 8.0070
 4.1090	 7.9350
 4.1120	 7.7780
 4.1150	 7.8890
 4.1190	 8.0300
 4.1220	 8.1020
 4.1250	 8.1600
 4.1280	 8.1130
 4.1320	 8.0710
 4.1350	 8.0790
 4.1380	 8.0710
 4.1420	 8.1570
 4.1450	 8.1110
 4.1480	 8.0390
 4.1520	 8.0250
 4.1550	 8.0480
 4.1580	 8.1160
 4.1620	 8.1590
 4.1650	 8.1310
 4.1680	 8.0440
 4.1720	 8.0610
 4.1750	 8.1170
 4.1780	 8.1810
 4.1820	 8.1890
 4.1850	 8.1500
 4.1890	 8.1170
 4.1920	 8.1430
 4.1950	 8.1500
 4.1990	 8.0980
 4.2020	 7.9840
 4.2060	 7.9880
 4.2090	 7.9480
 4.2120	 7.6510
 4.2160	 7.3000
 4.2190	 7.4970
 4.2230	 7.8430
 4.2260	 7.5230
 4.2300	 6.9640
 4.2330	 6.8590
 4.2360	 6.7640
 4.2400	 6.8850
 4.2430	 6.9830
 4.2470	 7.0840
 4.2500	 7.3430
 4.2540	 7.4700
 4.2570	 7.6160
 4.2610	 7.7360
 4.2640	 7.5830
 4.2680	 7.3860
 4.2710	 7.3180
 4.2750	 7.2380
 4.2780	 7.3450
 4.2820	 7.4570
 4.2850	 7.2090
 4.2890	 7.4140
 4.2930	 7.6130
 4.2960	 7.2630
 4.3000	 7.1090
 4.3030	 7.3200
 4.3070	 7.6460
 4.3100	 7.6950
 4.3140	 7.6180
 4.3180	 7.5450
 4.3210	 7.4850
 4.3250	 7.5480
 4.3280	 7.6970
 4.3320	 7.7240
 4.3360	 7.7450
 4.3390	 7.8850
 4.3430	 7.9190
 4.3470	 7.7640
 4.3500	 7.7470
 4.3540	 7.7870
 4.3570	 7.8380
 4.3610	 7.9010
 4.3650	 8.0090
 4.3680	 7.9550
 4.3720	 7.9130
 4.3760	 7.9340
 4.3800	 8.0010
 4.3830	 7.9860
 4.3870	 7.9170
 4.3910	 7.8970
 4.3940	 7.9510
 4.3980	 7.9560
 4.4020	 7.8810
 4.4060	 7.8980
 4.4090	 7.9820
 4.4130	 7.9350
 4.4170	 7.8820
 4.4210	 7.8180
 4.4240	 7.7880
 4.4280	 7.8030
 4.4320	 7.9040
 4.4360	 7.9450
 4.4400	 7.8970
 4.4430	 7.8710
 4.4470	 7.9290
 4.4510	 7.9400
 4.4550	 7.9930
 4.4590	 7.9600
 4.4620	 7.9600
 4.4660	 7.9920
 4.4700	 7.8960
 4.4740	 7.8100
 4.4780	 7.8580
 4.4820	 7.8870
 4.4860	 7.9120
 4.4900	 7.8530
 4.4930	 7.9030
 4.4970	 7.9380
 4.5010	 7.8880
 4.5050	 7.9040
 4.5090	 7.9430
 4.5130	 7.8400
 4.5170	 7.7230
 4.5210	 7.7760
 4.5250	 7.8410
 4.5290	 7.7830
 4.5330	 7.7710
 4.5370	 7.7970
 4.5410	 7.9080
 4.5450	 7.9020
 4.5490	 7.8480
 4.5530	 7.8780
 4.5570	 8.0230
 4.5610	 8.0130
 4.5650	 7.8500
 4.5690	 7.7950
 4.5730	 7.7900
 4.5770	 7.7820
 4.5810	 7.8480
 4.5850	 7.9410
 4.5890	 8.0210
 4.5930	 7.8730
 4.5970	 7.7860
 4.6010	 7.7140
 4.6050	 7.7830
 4.6090	 7.8800
 4.6130	 7.7810
 4.6170	 7.7670
 4.6220	 7.9950
 4.6260	 7.9820
 4.6300	 7.7310
 4.6340	 7.7200
 4.6380	 7.8560
 4.6420	 7.8300
 4.6460	 7.7320
 4.6510	 7.6960
 4.6550	 7.7370
 4.6590	 7.6860
 4.6630	 7.8100
 4.6670	 7.8070
 4.6720	 7.8260
 4.6760	 7.7900
 4.6800	 7.7470
 4.6840	 7.7190
 4.6880	 7.7690
 4.6930	 7.8220
 4.6970	 7.7790
 4.7010	 7.7460
 4.7050	 7.7330
 4.7100	 7.7690
 4.7140	 7.8330
 4.7180	 7.7670
 4.7230	 7.7890
 4.7270	 7.7460
 4.7310	 7.6960
 4.7360	 7.7520
 4.7400	 7.7990
 4.7440	 7.6800
 4.7490	 7.6460
 4.7530	 7.6610
 4.7570	 7.7260
 4.7620	 7.8080
 4.7660	 7.8560
 4.7700	 7.7270
 4.7750	 7.6610
 4.7790	 7.6510
 4.7840	 7.5470
 4.7880	 7.7340
 4.7920	 8.0290
 4.7970	 8.0440
 4.8010	 7.8800
 4.8060	 7.6260
 4.8100	 7.6890
 4.8150	 7.8430
 4.8190	 7.8350
 4.8240	 7.7770
 4.8280	 7.7790
 4.8330	 7.7010
 4.8370	 7.7020
 4.8420	 7.7360
 4.8460	 7.7350
 4.8510	 7.7010
 4.8550	 7.6950
 4.8600	 7.6660
 4.8640	 7.6620
 4.8690	 7.6430
 4.8730	 7.6770
 4.8780	 7.7540
 4.8830	 7.7010
 4.8870	 7.6050
 4.8920	 7.6300
 4.8960	 7.6550
 4.9010	 7.6860
 4.9060	 7.5690
 4.9100	 7.5490
 4.9150	 7.6140
 4.9200	 7.6760
 4.9240	 7.6220
 4.9290	 7.5590
 4.9340	 7.5730
 4.9380	 7.5990
 4.9430	 7.5900
 4.9480	 7.6600
 4.9530	 7.6550
 4.9570	 7.6320
 4.9620	 7.6450
 4.9670	 7.6490
 4.9720	 7.6290
 4.9760	 7.6460
 4.9810	 7.6100
 4.9860	 7.6710
 4.9910	 7.6120
 4.9960	 7.5970
 5.0000	 7.6580
 5.0050	 7.7690
 5.0100	 7.7780
 5.0150	 7.7220
 5.0200	 7.6960
 5.0250	 7.6980
 5.0290	 7.6150
 5.0340	 7.5970
 5.0390	 7.6070
 5.0440	 7.7060
 5.0490	 7.7270
 5.0540	 7.6430
 5.0590	 7.5690
 5.0640	 7.6490
 5.0690	 7.6090
 5.0740	 7.6580
 5.0790	 7.7080
 5.0840	 7.6910
 5.0890	 7.6180
 5.0940	 7.5950
 5.0990	 7.5310
 5.1040	 7.5300
 5.1090	 7.5450
 5.1140	 7.6620
 5.1190	 7.6730
 5.1240	 7.6650
 5.1290	 7.5290
 5.1340	 7.5080
 5.1390	 7.5780
 5.1440	 7.6630
 5.1490	 7.6160
 5.1540	 7.5100
 5.1600	 7.3940
 5.1650	 7.5420
 5.1700	 7.6710
 5.1750	 7.6330
 5.1800	 7.6050
 5.1850	 7.6760
 5.1910	 7.6170
 5.1960	 7.5660
 5.2010	 7.5690
 5.2060	 7.5840
 5.2110	 7.6110
 5.2170	 7.6420
 5.2220	 7.5790
 5.2270	 7.5380
 5.2320	 7.5090
 5.2380	 7.5940
 5.2430	 7.6330
 5.2480	 7.5540
 5.2540	 7.4660
 5.2590	 7.5070
 5.2640	 7.5630
 5.2700	 7.6770
 5.2750	 7.6770
 5.2800	 7.6260
 5.2860	 7.5990
 5.2910	 7.5490
 5.2970	 7.4730
 5.3020	 7.5260
 5.3070	 7.5670
 5.3130	 7.6170
 5.3180	 7.5010
 5.3240	 7.5090
 5.3290	 7.5270
 5.3350	 7.5640
 5.3400	 7.5440
 5.3460	 7.5330
 5.3510	 7.5270
 5.3570	 7.6000
 5.3620	 7.6560
 5.3680	 7.5910
 5.3730	 7.4870
 5.3790	 7.5570
 5.3850	 7.4930
 5.3900	 7.4960
 5.3960	 7.4930
 5.4010	 7.4340
 5.4070	 7.3910
 5.4130	 7.5040
 5.4180	 7.5670
 5.4240	 7.5370
 5.4300	 7.4690
 5.4350	 7.5580
 5.4410	 7.5230
 5.4470	 7.5420
 5.4530	 7.4100
 5.4580	 7.4500
 5.4640	 7.4100
 5.4700	 7.4390
 5.4760	 7.4750
 5.4810	 7.4780
 5.4870	 7.3920
 5.4930	 7.4120
 5.4990	 7.4000
 5.5050	 7.4060
 5.5110	 7.3570
 5.5160	 7.3450
 5.5220	 7.3580
 5.5280	 7.4120
 5.5340	 7.3480
 5.5400	 7.3430
 5.5460	 7.3240
 5.5520	 7.3510
 5.5580	 7.2920
 5.5640	 7.2670
 5.5700	 7.1710
 5.5760	 7.1660
 5.5820	 7.1030
 5.5880	 7.0750
 5.5940	 7.0510
 5.6000	 7.0740
 5.6060	 7.0420
 5.6120	 6.9940
 5.6180	 6.9060
 5.6240	 6.9010
 5.6300	 6.8650
 5.6360	 6.9070
 5.6420	 6.8400
 5.6490	 6.8750
 5.6550	 6.9680
 5.6610	 6.9370
 5.6670	 6.8040
 5.6730	 6.8180
 5.6800	 6.7420
 5.6860	 6.7260
 5.6920	 6.6800
 5.6980	 6.6940
 5.7040	 6.6790
 5.7110	 6.6130
 5.7170	 6.5350
 5.7230	 6.5680
 5.7300	 6.4910
 5.7360	 6.3880
 5.7420	 6.2620
 5.7490	 6.4050
 5.7550	 6.3850
 5.7620	 6.4240
 5.7680	 6.5220
 5.7740	 6.6460
 5.7810	 6.6520
 5.7870	 6.6910
 5.7940	 6.6720
 5.8000	 6.7510
 5.8070	 6.6630
 5.8130	 6.6910
 5.8200	 6.7990
 5.8260	 6.8560
 5.8330	 6.7650
 5.8390	 6.7710
 5.8460	 6.8300
 5.8530	 6.8010
 5.8590	 6.7240
 5.8660	 6.8310
 5.8720	 6.7820
 5.8790	 6.7420
 5.8860	 6.7130
 5.8920	 6.7770
 5.8990	 6.7270
 5.9060	 6.8070
 5.9130	 6.8300
 5.9190	 6.8660
 5.9260	 6.7770
 5.9330	 6.7400
 5.9400	 6.7270
 5.9470	 6.8560
 5.9530	 6.8270
 5.9600	 6.9090
 5.9670	 6.9280
 5.9740	 6.9450
 5.9810	 6.8980
 5.9880	 6.8890
 5.9950	 6.9420
 6.0020	 7.0900
 6.0090	 7.0310
 6.0160	 7.0610
 6.0230	 6.9760
 6.0300	 6.9790
 6.0370	 7.0030
 6.0440	 7.0670
 6.0510	 6.9930
 6.0580	 7.0620
 6.0650	 7.0720
 6.0720	 7.0130
 6.0790	 6.9640
 6.0860	 7.0590
 6.0930	 6.9720
 6.1000	 6.9560
 6.1080	 6.9900
 6.1150	 7.1090
 6.1220	 7.1110
 6.1290	 7.1470
 6.1370	 6.9970
 6.1440	 6.9940
 6.1510	 6.9340
 6.1580	 7.0260
 6.1660	 7.0900
 6.1730	 7.2830
 6.1800	 7.2100
 6.1880	 7.1250
 6.1950	 7.0040
 6.2030	 7.0530
 6.2100	 7.1240
 6.2170	 7.2060
 6.2250	 7.1500
 6.2320	 7.2400
 6.2400	 7.1620
 6.2470	 7.1190
 6.2550	 6.9920
 6.2630	 7.0990
 6.2700	 7.0990
 6.2780	 7.0870
 6.2850	 7.0280
 6.2930	 7.1220
 6.3010	 7.0560
 6.3080	 7.0680
 6.3160	 7.1900
 6.3240	 7.2960
 6.3310	 7.2090
 6.3390	 7.2400
 6.3470	 7.1720
 6.3550	 7.2320
 6.3620	 7.2060
 6.3700	 7.2480
 6.3780	 7.1840
 6.3860	 7.2370
 6.3940	 7.2140
 6.4020	 7.2330
 6.4100	 7.1760
 6.4180	 7.2060
 6.4260	 7.0750
 6.4330	 7.1170
 6.4410	 7.1800
 6.4490	 7.1200
 6.4580	 7.0830
 6.4660	 7.1470
 6.4740	 7.0780
 6.4820	 7.2010
 6.4900	 7.2130
 6.4980	 7.1780
 6.5060	 7.0150
 6.5140	 6.9960
 6.5230	 7.1310
 6.5310	 7.2270
 6.5390	 7.1180
 6.5470	 7.1630
 6.5550	 7.0680
 6.5640	 6.9800
 6.5720	 6.9300
 6.5800	 7.0770
 6.5890	 7.0760
 6.5970	 7.0030
 6.6060	 6.9520
 6.6140	 7.0680
 6.6220	 7.0270
 6.6310	 7.0690
 6.6390	 7.0260
 6.6480	 7.0730
 6.6560	 7.0020
 6.6650	 7.0290
 6.6740	 6.8950
 6.6820	 6.7840
 6.6910	 6.7470
 6.6990	 6.9340
 6.7080	 6.9160
 6.7170	 6.8100
 6.7260	 6.7390
 6.7340	 6.8190
 6.7430	 6.7670
 6.7520	 6.7730
 6.7610	 6.6310
 6.7690	 6.4480
 6.7780	 6.3940
 6.7870	 6.9590
 6.7960	 7.2860
 6.8050	 7.2080
 6.8140	 6.8670
 6.8230	 6.7110
 6.8320	 6.9900
 6.8410	 7.6370
 6.8500	 7.6400
 6.8590	 7.4310
 6.8680	 7.2170
 6.8770	 7.1900
 6.8860	 7.1370
 6.8950	 7.2140
 6.9050	 7.1030
 6.9140	 7.0890
 6.9230	 7.0740
 6.9320	 7.0910
 6.9420	 7.0330
 6.9510	 7.0710
 6.9600	 6.8900
 6.9700	 6.8510
 6.9790	 6.8640
 6.9880	 6.9830
 6.9980	 6.9680
 7.0070	 6.9940
 7.0170	 6.9230
 7.0260	 6.9680
 7.0360	 7.0150
 7.0450	 7.0730
 7.0550	 6.9680
 7.0650	 7.0230
 7.0740	 7.0600
 7.0840	 7.1280
 7.0940	 7.0050
 7.1030	 7.0650
 7.1130	 6.9830
 7.1230	 7.0120
 7.1330	 6.9940
 7.1420	 7.0680
 7.1520	 7.0270
 7.1620	 7.0470
 7.1720	 7.0120
 7.1820	 7.0370
 7.1920	 6.9660
 7.2020	 7.0110
 7.2120	 6.8920
 7.2220	 6.9550
 7.2320	 6.9510
 7.2420	 6.9920
 7.2520	 6.9490
 7.2620	 6.9720
 7.2730	 6.9010
 7.2830	 6.8900
 7.2930	 6.8070
 7.3030	 6.8900
 7.3140	 6.8870
 7.3240	 7.0610
 7.3340	 7.0240
 7.3450	 6.9660
 7.3550	 6.7580
 7.3660	 6.8070
 7.3760	 6.7630
 7.3870	 6.8460
 7.3970	 6.8610
 7.4080	 6.9770
 7.4180	 6.9240
 7.4290	 6.9620
 7.4400	 6.8970
 7.4500	 6.9090
 7.4610	 6.8500
 7.4720	 6.9500
 7.4830	 6.8530
 7.4930	 6.8260
 7.5040	 6.8000
 7.5150	 6.8980
 7.5260	 6.8520
 7.5370	 6.9430
 7.5480	 6.8680
 7.5590	 6.8970
 7.5700	 6.8210
 7.5810	 6.9110
 7.5920	 6.8430
 7.6030	 6.8250
 7.6140	 6.6740
 7.6260	 6.8300
 7.6370	 6.8620
 7.6480	 6.9500
 7.6590	 6.8420
 7.6710	 6.7940
 7.6820	 6.7170
 7.6930	 6.8360
 7.7050	 6.7870
 7.7160	 6.7480
 7.7280	 6.7420
 7.7390	 6.8940
 7.7510	 6.7910
 7.7630	 6.9010
 7.7740	 6.8570
 7.7860	 6.8220
 7.7980	 6.6310
 7.8090	 6.6760
 7.8210	 6.7250
 7.8330	 6.8610
 7.8450	 6.8400
 7.8570	 6.8880
 7.8690	 6.8320
 7.8810	 6.9240
 7.8930	 6.8860
 7.9050	 6.9050
 7.9170	 6.7950
 7.9290	 6.9100
 7.9410	 6.8260
 7.9530	 6.8970
 7.9650	 6.8210
 7.9780	 6.7750
 7.9900	 6.6860
 8.0020	 6.8240
 8.0150	 6.6640
 8.0270	 6.7070
 8.0390	 6.8330
 8.0520	 6.8970
 8.0640	 6.6400
 8.0770	 6.7230
 8.0900	 6.7860
 8.1020	 7.0350
 8.1150	 6.9070
 8.1280	 7.0510
 8.1400	 7.0270
 8.1530	 7.0760
 8.1660	 6.9970
 8.1790	 7.1270
 8.1920	 7.0990
 8.2050	 7.1790
 8.2180	 6.9280
 8.2310	 7.0870
 8.2440	 6.9790
 8.2570	 6.8400
 8.2700	 6.8630
 8.2830	 7.1390
 8.2970	 6.9210
 8.3100	 6.9340
 8.3230	 6.9540
 8.3370	 7.1780
 8.3500	 7.1790
 8.3640	 7.2540
 8.3770	 6.9530
 8.3910	 7.0980
 8.4040	 7.1730
 8.4180	 7.2690
 8.4320	 7.0060
 8.4450	 7.0870
 8.4590	 7.0790
 8.4730	 7.0960
 8.4870	 7.0280
 8.5010	 7.4350
 8.5150	 7.4810
 8.5290	 7.4730
 8.5430	 7.1950
 8.5570	 7.2130
 8.5710	 7.1780
 8.5850	 7.3410
 8.5990	 7.2040
 8.6140	 7.3670
 8.6280	 7.3140
 8.6420	 7.3180
 8.6570	 7.2000
 8.6710	 7.4390
 8.6860	 7.3440
 8.7000	 7.3350
 8.7150	 7.2870
 8.7300	 7.5540
 8.7440	 7.4810
 8.7590	 7.6190
 8.7740	 7.5000
 8.7890	 7.5470
 8.8040	 7.4410
 8.8190	 7.5290
 8.8340	 7.3910
 8.8490	 7.6430
 8.8640	 7.5470
 8.8790	 7.6380
 8.8940	 7.5070
 8.9100	 7.5400
 8.9250	 7.3440
 8.9400	 7.5150
 8.9560	 7.4100
 8.9710	 7.6870
 8.9870	 7.7120
 9.0020	 7.6440
 9.0180	 7.3630
 9.0340	 7.3980
 9.0500	 7.3780
 9.0650	 7.6190
 9.0810	 7.4060
 9.0970	 7.4190
 9.1130	 7.3130
 9.1290	 7.3390
 9.1450	 7.1750
 9.1610	 7.5160
 9.1780	 7.5860
 9.1940	 7.8420
 9.2100	 7.7260
 9.2270	 7.7160
 9.2430	 7.6940
 9.2600	 7.8360
 9.2760	 7.5580
 9.2930	 7.7840
 9.3090	 7.6320
 9.3260	 7.6980
 9.3430	 7.4720
 9.3600	 7.6420
 9.3770	 7.6180
 9.3940	 7.7690
 9.4110	 7.7960
 9.4280	 7.8580
 9.4450	 7.5810
 9.4620	 7.8530
 9.4800	 7.8230
 9.4970	 7.8170
 9.5140	 7.6530
 9.5320	 7.9260
 9.5500	 7.6560
 9.5670	 7.6840
 9.5850	 7.7000
 9.6030	 7.8150
 9.6200	 7.6780
 9.6380	 7.7680
 9.6560	 7.7340
 9.6740	 7.8550
 9.6920	 7.4480
 9.7100	 7.6090
 9.7290	 7.6140
 9.7470	 7.7480
 9.7650	 7.5860
 9.7840	 7.7430
 9.8020	 7.6480
 9.8210	 7.9360
 9.8390	 7.8350
 9.8580	 7.8130
 9.8770	 7.8060
 9.8960	 7.8700
 9.9150	 7.7450
 9.9340	 7.8240
 9.9530	 7.6290
 9.9720	 7.8170
 9.9910	 7.7280
10.0100	 7.8200
10.0300	 7.6080
10.0490	 7.6690
10.0690	 7.4940
10.0880	 7.6310
10.1080	 7.5600
10.1280	 7.7210
10.1480	 7.6190
10.1670	 7.6270
10.1870	 7.6040
10.2070	 7.7680
10.2280	 7.5760
10.2480	 7.6960
10.2680	 7.6240
10.2890	 7.7180
10.3090	 7.6290
10.3300	 7.5910
10.3500	 7.4400
10.3710	 7.7440
10.3920	 7.7280
10.4120	 7.7650
10.4330	 7.6760
10.4540	 7.9440
10.4760	 7.8170
10.4970	 7.8380
10.5180	 7.6750
10.5390	 7.9120
10.5610	 7.8790
10.5820	 8.0820
10.6040	 7.9160
10.6260	 8.0110
10.6480	 8.0330
10.6700	 8.2350
10.6920	 7.9460
10.7140	 7.8910
10.7360	 7.7740
10.7580	 7.8470
10.7800	 7.7780
10.8030	 7.7520
10.8250	 7.5580
10.8480	 7.8830
10.8710	 7.8010
10.8940	 7.9810
10.9170	 7.7350
10.9400	 7.7500
10.9630	 7.6920
10.9860	 7.8240
11.0090	 7.7130
11.0330	 7.7950
11.0560	 7.5570
11.0800	 7.7350
11.1040	 7.6750
11.1270	 7.9810
11.1510	 7.8860
11.1750	 7.9700
11.2000	 7.8210
11.2240	 8.1220
11.2480	 8.0400
11.2730	 8.0490
11.2970	 7.4560
11.3220	 7.5530
11.3470	 7.5990
11.3720	 7.9030
11.3970	 7.8230
11.4220	 8.1000
11.4470	 7.7120
11.4720	 7.7550
11.4980	 7.8710
11.5230	 8.0590
11.5490	 7.7260
11.5750	 7.9080
11.6000	 7.8390
11.6260	 8.1060
11.6530	 7.7840
11.6790	 7.7940
11.7050	 7.5610
11.7320	 7.6670
11.7580	 7.6720
11.7850	 8.0210
11.8120	 7.8470
11.8390	 7.9950
11.8660	 7.9310
11.8930	 7.9280
11.9200	 7.7400
11.9480	 7.8360
11.9760	 7.4760
12.0030	 7.4880
12.0310	 7.1910
12.0590	 7.5510
12.0870	 7.5660
12.1150	 7.9220
12.1440	 7.8540
12.1720	 8.0590
12.2010	 7.7430
12.2300	 8.0200
12.2590	 7.8780
12.2880	 8.0430
12.3170	 7.6760
12.3460	 7.8770
12.3760	 7.6700
12.4050	 8.0150
12.4350	 7.8680
12.4650	 8.1050
12.4950	 7.8110
12.5250	 7.8710
12.5550	 7.7940
12.5860	 8.0000
12.6170	 7.8140
12.6470	 8.1170
12.6780	 7.9190
12.7090	 8.1510
12.7410	 7.8470
12.7720	 7.8650
12.8030	 7.7070
12.8350	 8.0590
12.8670	 7.6960
12.8990	 7.8960
12.9310	 7.9800
12.9640	 8.1770
12.9960	 7.6980
13.0290	 7.7350
13.0610	 7.5020
13.0940	 7.7150
13.1280	 7.6340
13.1610	 8.0960
13.1940	 7.8830
13.2280	 7.9860
13.2620	 7.6780
13.2960	 7.8470
13.3300	 7.5860
13.3640	 7.7070
13.3990	 7.3770
13.4340	 7.8430
13.4690	 7.7590
13.5040	 7.9860
13.5390	 7.8240
13.5740	 7.9350
13.6100	 7.3610
13.6460	 7.7520
13.6820	 7.9330
13.7180	 8.5680
13.7540	 8.2200
13.7910	 8.1180
13.8280	 7.5910
13.8650	 8.1990
13.9020	 8.7170
13.9390	 9.0400
13.9770	 8.3150
14.0150	 8.5320
14.0530	 8.1390
14.0910	 8.2650
14.1290	 7.7630
14.1680	 7.9770
14.2070	 7.8150
14.2460	 7.9890
14.2850	 7.3890
14.3240	 7.7030
14.3640	 7.0260
14.4040	 7.6760
14.4440	 7.8050
14.4840	 8.2220
14.5250	 7.3910
14.5660	 7.7810
14.6070	 7.5550
14.6480	 7.9180
14.6900	 7.3250
14.7310	 7.4760
14.7730	 6.8270
14.8150	 7.8480
14.8580	 7.8420
14.9010	 7.6770
14.9440	 6.4900
14.9870	 7.9330
15.0300	 7.4200
15.0740	 8.2730
15.1180	 7.8210
15.1620	 8.2280
15.2060	 7.6650
15.2510	 8.0510
15.2960	 7.5800
15.3410	 7.6500
15.3870	 6.2960
