Name: Baccharis pilularis 1
Type: vegetation
Class: Shrub
Genus: Baccharis
Species: pilularis
Sample No.: VH110
Owner: UCSB
Wavelength Range: TIR
Origin: 34.5084; -119.7687; WGS84
Collection Date: 6/3/2013
Description: Samples were collected as part of the HyspIRI Airborne Campaign. 48 individual plants were sampled in three times in 2013 - spring  summer  and fall. The name of the sample includes a 1  2  or 3 which references a different individual of the species. Samples were taken to JPL and processed within 48 hours of collection. The same leaves were processed in the Nicolet and then measured using the ASD.
Measurement: Hemispherical reflectance
First Column: X
Second Column: Y
X Units: Wavelength (micrometers)
Y Units: Reflectance (percentage)
First X Value: 2.501
Last X Value: 15.387
Number of X Values: 1737
Additional Information: vegetation.shrub.baccharis.pilularis.tir.vh110.ucsb.nicolet.ancillary.txt

 2.5010	 6.3900
 2.5030	 6.4540
 2.5040	 6.4650
 2.5050	 6.2830
 2.5060	 6.2660
 2.5070	 6.2060
 2.5090	 6.2430
 2.5100	 6.2910
 2.5110	 6.2610
 2.5120	 6.1500
 2.5140	 6.3360
 2.5150	 6.3740
 2.5160	 6.3160
 2.5170	 6.3050
 2.5180	 6.2860
 2.5200	 6.2140
 2.5210	 6.2530
 2.5220	 6.1360
 2.5230	 6.0410
 2.5250	 6.2250
 2.5260	 6.5120
 2.5270	 6.3970
 2.5280	 6.3210
 2.5290	 6.3470
 2.5310	 6.4090
 2.5320	 6.3510
 2.5330	 6.2290
 2.5340	 6.2500
 2.5360	 6.4060
 2.5370	 6.4540
 2.5380	 6.4540
 2.5390	 6.3820
 2.5410	 6.2780
 2.5420	 6.1580
 2.5430	 6.2030
 2.5440	 6.2630
 2.5460	 6.4010
 2.5470	 6.3930
 2.5480	 6.4010
 2.5490	 6.2960
 2.5510	 6.2290
 2.5520	 6.2960
 2.5530	 6.3930
 2.5540	 6.2840
 2.5560	 6.2780
 2.5570	 6.3050
 2.5580	 6.3500
 2.5590	 6.3930
 2.5610	 6.3250
 2.5620	 6.3220
 2.5630	 6.4160
 2.5640	 6.5060
 2.5660	 6.6170
 2.5670	 6.4630
 2.5680	 6.3030
 2.5700	 6.4810
 2.5710	 6.7720
 2.5720	 6.6270
 2.5730	 6.5060
 2.5750	 6.3350
 2.5760	 6.2510
 2.5770	 6.3110
 2.5790	 6.4480
 2.5800	 6.4450
 2.5810	 6.4020
 2.5820	 6.3940
 2.5840	 6.4570
 2.5850	 6.4950
 2.5860	 6.5130
 2.5880	 6.4480
 2.5890	 6.4460
 2.5900	 6.4200
 2.5910	 6.4330
 2.5930	 6.2820
 2.5940	 6.2910
 2.5950	 6.3510
 2.5970	 6.4070
 2.5980	 6.4010
 2.5990	 6.4240
 2.6000	 6.4320
 2.6020	 6.3770
 2.6030	 6.3310
 2.6040	 6.4040
 2.6060	 6.3200
 2.6070	 6.2050
 2.6080	 6.1920
 2.6100	 6.4560
 2.6110	 6.5280
 2.6120	 6.4650
 2.6140	 6.3490
 2.6150	 6.2930
 2.6160	 6.2810
 2.6180	 6.3790
 2.6190	 6.4080
 2.6200	 6.3570
 2.6220	 6.2580
 2.6230	 6.3460
 2.6240	 6.2860
 2.6260	 6.2680
 2.6270	 6.2830
 2.6280	 6.3770
 2.6300	 6.2580
 2.6310	 6.1900
 2.6320	 6.2100
 2.6340	 6.3260
 2.6350	 6.1760
 2.6360	 6.0920
 2.6380	 6.0350
 2.6390	 6.0500
 2.6400	 6.0430
 2.6420	 6.0480
 2.6430	 6.0910
 2.6440	 6.1960
 2.6460	 6.0720
 2.6470	 5.9130
 2.6480	 5.8890
 2.6500	 6.0660
 2.6510	 6.1400
 2.6520	 6.1500
 2.6540	 5.9920
 2.6550	 6.0720
 2.6560	 6.0800
 2.6580	 6.0490
 2.6590	 6.0310
 2.6610	 6.0890
 2.6620	 5.9550
 2.6630	 5.9340
 2.6650	 6.0250
 2.6660	 6.0310
 2.6670	 6.0670
 2.6690	 6.0540
 2.6700	 5.7850
 2.6720	 5.8650
 2.6730	 5.9870
 2.6740	 5.9490
 2.6760	 5.8970
 2.6770	 5.8720
 2.6780	 5.8540
 2.6800	 6.0230
 2.6810	 5.9560
 2.6830	 5.6930
 2.6840	 5.7570
 2.6850	 5.9440
 2.6870	 5.8840
 2.6880	 5.7500
 2.6900	 5.6630
 2.6910	 5.7600
 2.6920	 5.6140
 2.6940	 5.5930
 2.6950	 5.6720
 2.6970	 5.7420
 2.6980	 5.7400
 2.6990	 5.6810
 2.7010	 5.6280
 2.7020	 5.7850
 2.7040	 5.6610
 2.7050	 5.6200
 2.7060	 5.6530
 2.7080	 5.6720
 2.7090	 5.5800
 2.7110	 5.5960
 2.7120	 5.5920
 2.7130	 5.5560
 2.7150	 5.3280
 2.7160	 5.2220
 2.7180	 5.2370
 2.7190	 5.2430
 2.7210	 4.9900
 2.7220	 4.8540
 2.7230	 4.9110
 2.7250	 5.0880
 2.7260	 5.0440
 2.7280	 4.9020
 2.7290	 4.7900
 2.7310	 4.7020
 2.7320	 4.6220
 2.7330	 4.5360
 2.7350	 4.5950
 2.7360	 4.7470
 2.7380	 4.5260
 2.7390	 4.3680
 2.7410	 4.3260
 2.7420	 4.4480
 2.7440	 4.3110
 2.7450	 4.2440
 2.7470	 4.2070
 2.7480	 4.2630
 2.7490	 4.1820
 2.7510	 4.1280
 2.7520	 4.1140
 2.7540	 4.1450
 2.7550	 4.0570
 2.7570	 3.9200
 2.7580	 3.7530
 2.7600	 3.8870
 2.7610	 3.9510
 2.7630	 3.9780
 2.7640	 3.8690
 2.7660	 3.8490
 2.7670	 3.8260
 2.7680	 3.8530
 2.7700	 3.7680
 2.7710	 3.9000
 2.7730	 3.9790
 2.7740	 3.8010
 2.7760	 3.5660
 2.7770	 3.5940
 2.7790	 3.6350
 2.7800	 3.7190
 2.7820	 3.6530
 2.7830	 3.5550
 2.7850	 3.5680
 2.7860	 3.6670
 2.7880	 3.5390
 2.7890	 3.4940
 2.7910	 3.4800
 2.7920	 3.5180
 2.7940	 3.5810
 2.7950	 3.5770
 2.7970	 3.5570
 2.7980	 3.6280
 2.8000	 3.4680
 2.8010	 3.4660
 2.8030	 3.4560
 2.8040	 3.4980
 2.8060	 3.4940
 2.8070	 3.5530
 2.8090	 3.5800
 2.8110	 3.5210
 2.8120	 3.3720
 2.8140	 3.3980
 2.8150	 3.2800
 2.8170	 3.2730
 2.8180	 3.3540
 2.8200	 3.4680
 2.8210	 3.4680
 2.8230	 3.4800
 2.8240	 3.4080
 2.8260	 3.3960
 2.8270	 3.2530
 2.8290	 3.2680
 2.8300	 3.4350
 2.8320	 3.4850
 2.8340	 3.3640
 2.8350	 3.3610
 2.8370	 3.3750
 2.8380	 3.3120
 2.8400	 3.1350
 2.8410	 3.1510
 2.8430	 3.1420
 2.8440	 3.3700
 2.8460	 3.3720
 2.8480	 3.2930
 2.8490	 3.2960
 2.8510	 3.3320
 2.8520	 3.2330
 2.8540	 3.2210
 2.8550	 3.2320
 2.8570	 3.1930
 2.8590	 3.2210
 2.8600	 3.3870
 2.8620	 3.3960
 2.8630	 3.3560
 2.8650	 3.2060
 2.8660	 3.2480
 2.8680	 3.3440
 2.8700	 3.2670
 2.8710	 2.9790
 2.8730	 3.0350
 2.8740	 3.2440
 2.8760	 3.3030
 2.8780	 3.0870
 2.8790	 3.0430
 2.8810	 3.1530
 2.8820	 3.2990
 2.8840	 3.4350
 2.8860	 3.4410
 2.8870	 3.2760
 2.8890	 3.1670
 2.8900	 3.1650
 2.8920	 3.2880
 2.8940	 3.2940
 2.8950	 3.4130
 2.8970	 3.4640
 2.8980	 3.2580
 2.9000	 3.0440
 2.9020	 3.2010
 2.9030	 3.2630
 2.9050	 3.1630
 2.9070	 3.1330
 2.9080	 3.3280
 2.9100	 3.3170
 2.9120	 3.2480
 2.9130	 3.1860
 2.9150	 3.3030
 2.9160	 3.3080
 2.9180	 3.2050
 2.9200	 3.1680
 2.9210	 3.3000
 2.9230	 3.3480
 2.9250	 3.3890
 2.9260	 3.3530
 2.9280	 3.3950
 2.9300	 3.2490
 2.9310	 3.1860
 2.9330	 3.2180
 2.9350	 3.2610
 2.9360	 3.3250
 2.9380	 3.5000
 2.9400	 3.4110
 2.9410	 3.3080
 2.9430	 3.3220
 2.9450	 3.3470
 2.9460	 3.2540
 2.9480	 3.2380
 2.9500	 3.2490
 2.9510	 3.3000
 2.9530	 3.2890
 2.9550	 3.3010
 2.9560	 3.2840
 2.9580	 3.3380
 2.9600	 3.3500
 2.9610	 3.3660
 2.9630	 3.2900
 2.9650	 3.2310
 2.9660	 3.2430
 2.9680	 3.4120
 2.9700	 3.3940
 2.9720	 3.4910
 2.9730	 3.4880
 2.9750	 3.3300
 2.9770	 3.2200
 2.9780	 3.4400
 2.9800	 3.5770
 2.9820	 3.4310
 2.9840	 3.2720
 2.9850	 3.2300
 2.9870	 3.1520
 2.9890	 3.2890
 2.9900	 3.3010
 2.9920	 3.4710
 2.9940	 3.4650
 2.9960	 3.3290
 2.9970	 3.3750
 2.9990	 3.5140
 3.0010	 3.5400
 3.0030	 3.5140
 3.0040	 3.3590
 3.0060	 3.4410
 3.0080	 3.4240
 3.0100	 3.4710
 3.0110	 3.5460
 3.0130	 3.5510
 3.0150	 3.4960
 3.0170	 3.5080
 3.0180	 3.4400
 3.0200	 3.4340
 3.0220	 3.3870
 3.0240	 3.4850
 3.0250	 3.4880
 3.0270	 3.4630
 3.0290	 3.3700
 3.0310	 3.3520
 3.0320	 3.3910
 3.0340	 3.5400
 3.0360	 3.5700
 3.0380	 3.4910
 3.0400	 3.3620
 3.0410	 3.4000
 3.0430	 3.4660
 3.0450	 3.5490
 3.0470	 3.5120
 3.0480	 3.4890
 3.0500	 3.4490
 3.0520	 3.6090
 3.0540	 3.6800
 3.0560	 3.7170
 3.0570	 3.5430
 3.0590	 3.3150
 3.0610	 3.3270
 3.0630	 3.4550
 3.0650	 3.4280
 3.0660	 3.5510
 3.0680	 3.5790
 3.0700	 3.6470
 3.0720	 3.5410
 3.0740	 3.4360
 3.0760	 3.4830
 3.0770	 3.5050
 3.0790	 3.3890
 3.0810	 3.4560
 3.0830	 3.4100
 3.0850	 3.3710
 3.0870	 3.4170
 3.0880	 3.4660
 3.0900	 3.4200
 3.0920	 3.5400
 3.0940	 3.5230
 3.0960	 3.5330
 3.0980	 3.6170
 3.0990	 3.6480
 3.1010	 3.5860
 3.1030	 3.5570
 3.1050	 3.4590
 3.1070	 3.4390
 3.1090	 3.4840
 3.1110	 3.5490
 3.1120	 3.5320
 3.1140	 3.6650
 3.1160	 3.6960
 3.1180	 3.6100
 3.1200	 3.5130
 3.1220	 3.5220
 3.1240	 3.5520
 3.1260	 3.5820
 3.1270	 3.5290
 3.1290	 3.5610
 3.1310	 3.5320
 3.1330	 3.5510
 3.1350	 3.6110
 3.1370	 3.7680
 3.1390	 3.6920
 3.1410	 3.5770
 3.1430	 3.6810
 3.1450	 3.8600
 3.1460	 3.8000
 3.1480	 3.7170
 3.1500	 3.7590
 3.1520	 3.7340
 3.1540	 3.5680
 3.1560	 3.6670
 3.1580	 3.7210
 3.1600	 3.7510
 3.1620	 3.7190
 3.1640	 3.8020
 3.1660	 3.9220
 3.1680	 3.9180
 3.1700	 3.7790
 3.1710	 3.8130
 3.1730	 3.7420
 3.1750	 3.6550
 3.1770	 3.7330
 3.1790	 3.8870
 3.1810	 3.8550
 3.1830	 3.8860
 3.1850	 3.7810
 3.1870	 3.8410
 3.1890	 3.9180
 3.1910	 3.9790
 3.1930	 3.8910
 3.1950	 3.8760
 3.1970	 3.9050
 3.1990	 3.9690
 3.2010	 3.9780
 3.2030	 3.9740
 3.2050	 3.9020
 3.2070	 3.8700
 3.2090	 3.8380
 3.2110	 3.9740
 3.2130	 3.9350
 3.2150	 3.8250
 3.2170	 3.7900
 3.2190	 3.9240
 3.2210	 4.0550
 3.2230	 4.0780
 3.2250	 3.9160
 3.2270	 3.9670
 3.2290	 4.0010
 3.2310	 3.9460
 3.2330	 3.8830
 3.2350	 3.9080
 3.2370	 3.9560
 3.2390	 4.0090
 3.2410	 3.9720
 3.2430	 3.9900
 3.2450	 4.0120
 3.2470	 4.1150
 3.2490	 4.0640
 3.2510	 4.0970
 3.2530	 4.1050
 3.2550	 4.0730
 3.2570	 4.0690
 3.2590	 4.1150
 3.2610	 4.1390
 3.2630	 4.1370
 3.2650	 4.0450
 3.2670	 4.0330
 3.2690	 4.0480
 3.2720	 4.0960
 3.2740	 4.1250
 3.2760	 4.1160
 3.2780	 4.0300
 3.2800	 4.1100
 3.2820	 4.1730
 3.2840	 4.2460
 3.2860	 4.2380
 3.2880	 4.2400
 3.2900	 4.1690
 3.2920	 4.0680
 3.2940	 4.0390
 3.2960	 4.0780
 3.2990	 4.1230
 3.3010	 4.2180
 3.3030	 4.1740
 3.3050	 4.1100
 3.3070	 4.1120
 3.3090	 4.2010
 3.3110	 4.1400
 3.3130	 4.2040
 3.3150	 4.1770
 3.3180	 4.1160
 3.3200	 4.1880
 3.3220	 4.2340
 3.3240	 4.1290
 3.3260	 4.1460
 3.3280	 4.1270
 3.3300	 4.1310
 3.3330	 4.0460
 3.3350	 4.0260
 3.3370	 3.9250
 3.3390	 3.8970
 3.3410	 3.8450
 3.3430	 3.8470
 3.3450	 3.8890
 3.3480	 3.9110
 3.3500	 3.7710
 3.3520	 3.7670
 3.3540	 3.7940
 3.3560	 3.8290
 3.3580	 3.8200
 3.3610	 3.6430
 3.3630	 3.5590
 3.3650	 3.6850
 3.3670	 3.7270
 3.3690	 3.7130
 3.3720	 3.6810
 3.3740	 3.7810
 3.3760	 3.8580
 3.3780	 3.8830
 3.3800	 3.7900
 3.3830	 3.7540
 3.3850	 3.8360
 3.3870	 3.8650
 3.3890	 3.6440
 3.3910	 3.4890
 3.3940	 3.3820
 3.3960	 3.3800
 3.3980	 3.3640
 3.4000	 3.5870
 3.4020	 3.7910
 3.4050	 3.8370
 3.4070	 3.7970
 3.4090	 3.8500
 3.4110	 3.9720
 3.4140	 4.2320
 3.4160	 4.5190
 3.4180	 4.9920
 3.4200	 5.6080
 3.4230	 6.4030
 3.4250	 7.1910
 3.4270	 8.0320
 3.4290	 8.5000
 3.4320	 8.1930
 3.4340	 7.1800
 3.4360	 6.2430
 3.4390	 5.7040
 3.4410	 5.4060
 3.4430	 5.1600
 3.4450	 4.9970
 3.4480	 4.8050
 3.4500	 4.8410
 3.4520	 4.8320
 3.4550	 4.8240
 3.4570	 4.7950
 3.4590	 4.6670
 3.4620	 4.6190
 3.4640	 4.7240
 3.4660	 4.6830
 3.4680	 4.6370
 3.4710	 4.5230
 3.4730	 4.3850
 3.4750	 4.3030
 3.4780	 4.3120
 3.4800	 4.2870
 3.4820	 4.2240
 3.4850	 4.1640
 3.4870	 4.1010
 3.4890	 4.0640
 3.4920	 4.1260
 3.4940	 4.1460
 3.4970	 4.2310
 3.4990	 4.3470
 3.5010	 4.5690
 3.5040	 4.9360
 3.5060	 5.6260
 3.5080	 6.8230
 3.5110	 7.8870
 3.5130	 7.8050
 3.5160	 6.9720
 3.5180	 6.1330
 3.5200	 5.7400
 3.5230	 5.5060
 3.5250	 5.3420
 3.5270	 5.3100
 3.5300	 5.2960
 3.5320	 5.2110
 3.5350	 5.2110
 3.5370	 5.1960
 3.5400	 5.0930
 3.5420	 5.1090
 3.5440	 5.1650
 3.5470	 5.1290
 3.5490	 5.0690
 3.5520	 5.0760
 3.5540	 5.1000
 3.5570	 5.0630
 3.5590	 5.0910
 3.5610	 5.1240
 3.5640	 5.2030
 3.5660	 5.0890
 3.5690	 5.0390
 3.5710	 5.0620
 3.5740	 5.0530
 3.5760	 4.9950
 3.5790	 5.0660
 3.5810	 5.1250
 3.5840	 5.1150
 3.5860	 5.0310
 3.5890	 5.1290
 3.5910	 5.1210
 3.5930	 5.1420
 3.5960	 5.1860
 3.5980	 5.0980
 3.6010	 5.0370
 3.6030	 5.0860
 3.6060	 5.1130
 3.6080	 5.1670
 3.6110	 5.1790
 3.6140	 5.0840
 3.6160	 5.0050
 3.6190	 5.1250
 3.6210	 5.1530
 3.6240	 5.1330
 3.6260	 5.0970
 3.6290	 5.1560
 3.6310	 5.1750
 3.6340	 5.1980
 3.6360	 5.2210
 3.6390	 5.1370
 3.6410	 5.0720
 3.6440	 5.0980
 3.6470	 5.0820
 3.6490	 5.1130
 3.6520	 5.0850
 3.6540	 5.0540
 3.6570	 5.0600
 3.6590	 5.0580
 3.6620	 5.0660
 3.6650	 5.1270
 3.6670	 5.0970
 3.6700	 5.0320
 3.6720	 5.0530
 3.6750	 5.1020
 3.6780	 5.1360
 3.6800	 5.1830
 3.6830	 5.0800
 3.6850	 5.0610
 3.6880	 5.1890
 3.6910	 5.2930
 3.6930	 5.2300
 3.6960	 5.1530
 3.6990	 5.1320
 3.7010	 5.1760
 3.7040	 5.1620
 3.7060	 5.1570
 3.7090	 5.1930
 3.7120	 5.2440
 3.7140	 5.3050
 3.7170	 5.2810
 3.7200	 5.2200
 3.7220	 5.2660
 3.7250	 5.2880
 3.7280	 5.3220
 3.7300	 5.2850
 3.7330	 5.2490
 3.7360	 5.2320
 3.7390	 5.3040
 3.7410	 5.3530
 3.7440	 5.3240
 3.7470	 5.2720
 3.7490	 5.2790
 3.7520	 5.2300
 3.7550	 5.2790
 3.7580	 5.3060
 3.7600	 5.2930
 3.7630	 5.3040
 3.7660	 5.3240
 3.7680	 5.3050
 3.7710	 5.3490
 3.7740	 5.4240
 3.7770	 5.4680
 3.7790	 5.4470
 3.7820	 5.3310
 3.7850	 5.3280
 3.7880	 5.4580
 3.7900	 5.4730
 3.7930	 5.4310
 3.7960	 5.3940
 3.7990	 5.4400
 3.8020	 5.5000
 3.8040	 5.5170
 3.8070	 5.4690
 3.8100	 5.4830
 3.8130	 5.4510
 3.8160	 5.4510
 3.8180	 5.4550
 3.8210	 5.4260
 3.8240	 5.4640
 3.8270	 5.5110
 3.8300	 5.4490
 3.8330	 5.4580
 3.8350	 5.5190
 3.8380	 5.4930
 3.8410	 5.4660
 3.8440	 5.4670
 3.8470	 5.4490
 3.8500	 5.5210
 3.8520	 5.4830
 3.8550	 5.4700
 3.8580	 5.5100
 3.8610	 5.5720
 3.8640	 5.5620
 3.8670	 5.4950
 3.8700	 5.4880
 3.8730	 5.5650
 3.8750	 5.6450
 3.8780	 5.6000
 3.8810	 5.5750
 3.8840	 5.5760
 3.8870	 5.5040
 3.8900	 5.5170
 3.8930	 5.4920
 3.8960	 5.4940
 3.8990	 5.4940
 3.9020	 5.5670
 3.9050	 5.5330
 3.9080	 5.4910
 3.9110	 5.5490
 3.9140	 5.5840
 3.9160	 5.5550
 3.9190	 5.6080
 3.9220	 5.6020
 3.9250	 5.5800
 3.9280	 5.5830
 3.9310	 5.5140
 3.9340	 5.4880
 3.9370	 5.6060
 3.9400	 5.5590
 3.9430	 5.5300
 3.9460	 5.5370
 3.9490	 5.5180
 3.9520	 5.4520
 3.9550	 5.4840
 3.9580	 5.5590
 3.9610	 5.5850
 3.9640	 5.5280
 3.9670	 5.5720
 3.9700	 5.4900
 3.9730	 5.4800
 3.9770	 5.5390
 3.9800	 5.6200
 3.9830	 5.6380
 3.9860	 5.5750
 3.9890	 5.5180
 3.9920	 5.5200
 3.9950	 5.4730
 3.9980	 5.5500
 4.0010	 5.6510
 4.0040	 5.6890
 4.0070	 5.6520
 4.0100	 5.6650
 4.0130	 5.6130
 4.0170	 5.5350
 4.0200	 5.5520
 4.0230	 5.6090
 4.0260	 5.6280
 4.0290	 5.5700
 4.0320	 5.5400
 4.0350	 5.5530
 4.0380	 5.5390
 4.0420	 5.6460
 4.0450	 5.7640
 4.0480	 5.6920
 4.0510	 5.5980
 4.0540	 5.6130
 4.0570	 5.6780
 4.0610	 5.7340
 4.0640	 5.7570
 4.0670	 5.6910
 4.0700	 5.5600
 4.0730	 5.5490
 4.0770	 5.5980
 4.0800	 5.6760
 4.0830	 5.7310
 4.0860	 5.7310
 4.0890	 5.6970
 4.0930	 5.7060
 4.0960	 5.7230
 4.0990	 5.7780
 4.1020	 5.7280
 4.1060	 5.7160
 4.1090	 5.7380
 4.1120	 5.7430
 4.1150	 5.6970
 4.1190	 5.6650
 4.1220	 5.6600
 4.1250	 5.7610
 4.1280	 5.7050
 4.1320	 5.6750
 4.1350	 5.7840
 4.1380	 5.7500
 4.1420	 5.7740
 4.1450	 5.7970
 4.1480	 5.7160
 4.1520	 5.6970
 4.1550	 5.7720
 4.1580	 5.7610
 4.1620	 5.6760
 4.1650	 5.6500
 4.1680	 5.6950
 4.1720	 5.8000
 4.1750	 5.8560
 4.1780	 5.8640
 4.1820	 5.8260
 4.1850	 5.7980
 4.1890	 5.8270
 4.1920	 5.8410
 4.1950	 5.8040
 4.1990	 5.8440
 4.2020	 5.8360
 4.2060	 5.7710
 4.2090	 5.8080
 4.2120	 5.9150
 4.2160	 5.9770
 4.2190	 5.9960
 4.2230	 6.1350
 4.2260	 6.1460
 4.2300	 6.2160
 4.2330	 6.0910
 4.2360	 5.9290
 4.2400	 6.0370
 4.2430	 6.1400
 4.2470	 6.1600
 4.2500	 6.0610
 4.2540	 5.9550
 4.2570	 5.9350
 4.2610	 6.0820
 4.2640	 6.0970
 4.2680	 5.9950
 4.2710	 5.9330
 4.2750	 5.9650
 4.2780	 6.0330
 4.2820	 6.0990
 4.2850	 6.1740
 4.2890	 6.1700
 4.2930	 6.2020
 4.2960	 6.1030
 4.3000	 5.9790
 4.3030	 6.0210
 4.3070	 6.0320
 4.3100	 6.0510
 4.3140	 5.9960
 4.3180	 5.9540
 4.3210	 6.0580
 4.3250	 6.0010
 4.3280	 5.8900
 4.3320	 5.8910
 4.3360	 5.8350
 4.3390	 5.7970
 4.3430	 5.8090
 4.3470	 5.7930
 4.3500	 5.7200
 4.3540	 5.8010
 4.3570	 5.8550
 4.3610	 5.7950
 4.3650	 5.7950
 4.3680	 5.7490
 4.3720	 5.7570
 4.3760	 5.8030
 4.3800	 5.7730
 4.3830	 5.7350
 4.3870	 5.7410
 4.3910	 5.8290
 4.3940	 5.8670
 4.3980	 5.8700
 4.4020	 5.7950
 4.4060	 5.7610
 4.4090	 5.8160
 4.4130	 5.8050
 4.4170	 5.7530
 4.4210	 5.7780
 4.4240	 5.8020
 4.4280	 5.6920
 4.4320	 5.5950
 4.4360	 5.6280
 4.4400	 5.7050
 4.4430	 5.7220
 4.4470	 5.6620
 4.4510	 5.6100
 4.4550	 5.6040
 4.4590	 5.6250
 4.4620	 5.6400
 4.4660	 5.7140
 4.4700	 5.6970
 4.4740	 5.5980
 4.4780	 5.6390
 4.4820	 5.6940
 4.4860	 5.6790
 4.4900	 5.6630
 4.4930	 5.6600
 4.4970	 5.7150
 4.5010	 5.6760
 4.5050	 5.5980
 4.5090	 5.6010
 4.5130	 5.6310
 4.5170	 5.6750
 4.5210	 5.6760
 4.5250	 5.5750
 4.5290	 5.5100
 4.5330	 5.6230
 4.5370	 5.6620
 4.5410	 5.5920
 4.5450	 5.5640
 4.5490	 5.5660
 4.5530	 5.5660
 4.5570	 5.6120
 4.5610	 5.6340
 4.5650	 5.6040
 4.5690	 5.5570
 4.5730	 5.5020
 4.5770	 5.5500
 4.5810	 5.6220
 4.5850	 5.6030
 4.5890	 5.5720
 4.5930	 5.5020
 4.5970	 5.5020
 4.6010	 5.4760
 4.6050	 5.4830
 4.6090	 5.5450
 4.6130	 5.5430
 4.6170	 5.5050
 4.6220	 5.5020
 4.6260	 5.4720
 4.6300	 5.5090
 4.6340	 5.4970
 4.6380	 5.4540
 4.6420	 5.4340
 4.6460	 5.4870
 4.6510	 5.4760
 4.6550	 5.4670
 4.6590	 5.4570
 4.6630	 5.3920
 4.6670	 5.4350
 4.6720	 5.4940
 4.6760	 5.5010
 4.6800	 5.4120
 4.6840	 5.3130
 4.6880	 5.2950
 4.6930	 5.3680
 4.6970	 5.4680
 4.7010	 5.5320
 4.7050	 5.5310
 4.7100	 5.4550
 4.7140	 5.4920
 4.7180	 5.4930
 4.7230	 5.4790
 4.7270	 5.4660
 4.7310	 5.4460
 4.7360	 5.4520
 4.7400	 5.4630
 4.7440	 5.4760
 4.7490	 5.4810
 4.7530	 5.4490
 4.7570	 5.4890
 4.7620	 5.4660
 4.7660	 5.4790
 4.7700	 5.5640
 4.7750	 5.5590
 4.7790	 5.4700
 4.7840	 5.4890
 4.7880	 5.5110
 4.7920	 5.5110
 4.7970	 5.4850
 4.8010	 5.5290
 4.8060	 5.5420
 4.8100	 5.4620
 4.8150	 5.4370
 4.8190	 5.5250
 4.8240	 5.5310
 4.8280	 5.4800
 4.8330	 5.4440
 4.8370	 5.4570
 4.8420	 5.4550
 4.8460	 5.5280
 4.8510	 5.6020
 4.8550	 5.5720
 4.8600	 5.5670
 4.8640	 5.5280
 4.8690	 5.4740
 4.8730	 5.5450
 4.8780	 5.5990
 4.8830	 5.5670
 4.8870	 5.5490
 4.8920	 5.5510
 4.8960	 5.4880
 4.9010	 5.4930
 4.9060	 5.5330
 4.9100	 5.5950
 4.9150	 5.6040
 4.9200	 5.5920
 4.9240	 5.5030
 4.9290	 5.5180
 4.9340	 5.5490
 4.9380	 5.5000
 4.9430	 5.5320
 4.9480	 5.6080
 4.9530	 5.6340
 4.9570	 5.5330
 4.9620	 5.5330
 4.9670	 5.6360
 4.9720	 5.6170
 4.9760	 5.6690
 4.9810	 5.7400
 4.9860	 5.7880
 4.9910	 5.7650
 4.9960	 5.7730
 5.0000	 5.8170
 5.0050	 5.8230
 5.0100	 5.7320
 5.0150	 5.7300
 5.0200	 5.7860
 5.0250	 5.7660
 5.0290	 5.6740
 5.0340	 5.6620
 5.0390	 5.6380
 5.0440	 5.6480
 5.0490	 5.6210
 5.0540	 5.6760
 5.0590	 5.7040
 5.0640	 5.7740
 5.0690	 5.7980
 5.0740	 5.7710
 5.0790	 5.7190
 5.0840	 5.7310
 5.0890	 5.6740
 5.0940	 5.6280
 5.0990	 5.6180
 5.1040	 5.7260
 5.1090	 5.7190
 5.1140	 5.6490
 5.1190	 5.6600
 5.1240	 5.7950
 5.1290	 5.7480
 5.1340	 5.7480
 5.1390	 5.7860
 5.1440	 5.8020
 5.1490	 5.7580
 5.1540	 5.6820
 5.1600	 5.6220
 5.1650	 5.6670
 5.1700	 5.7520
 5.1750	 5.8120
 5.1800	 5.7780
 5.1850	 5.7330
 5.1910	 5.6830
 5.1960	 5.7620
 5.2010	 5.8110
 5.2060	 5.8500
 5.2110	 5.8730
 5.2170	 5.9240
 5.2220	 5.8070
 5.2270	 5.7570
 5.2320	 5.7840
 5.2380	 5.7840
 5.2430	 5.8340
 5.2480	 5.8170
 5.2540	 5.7060
 5.2590	 5.7630
 5.2640	 5.7860
 5.2700	 5.8060
 5.2750	 5.7990
 5.2800	 5.8130
 5.2860	 5.7860
 5.2910	 5.7990
 5.2970	 5.7430
 5.3020	 5.7890
 5.3070	 5.7200
 5.3130	 5.6670
 5.3180	 5.6870
 5.3240	 5.7330
 5.3290	 5.6930
 5.3350	 5.5990
 5.3400	 5.6000
 5.3460	 5.6980
 5.3510	 5.7350
 5.3570	 5.7470
 5.3620	 5.7410
 5.3680	 5.7510
 5.3730	 5.7040
 5.3790	 5.6980
 5.3850	 5.6820
 5.3900	 5.7060
 5.3960	 5.6460
 5.4010	 5.5910
 5.4070	 5.5570
 5.4130	 5.5950
 5.4180	 5.6430
 5.4240	 5.6940
 5.4300	 5.6610
 5.4350	 5.6320
 5.4410	 5.5700
 5.4470	 5.5760
 5.4530	 5.5530
 5.4580	 5.5230
 5.4640	 5.5130
 5.4700	 5.5430
 5.4760	 5.5300
 5.4810	 5.4690
 5.4870	 5.3920
 5.4930	 5.3470
 5.4990	 5.3260
 5.5050	 5.4630
 5.5110	 5.4390
 5.5160	 5.4130
 5.5220	 5.3720
 5.5280	 5.3700
 5.5340	 5.3420
 5.5400	 5.2470
 5.5460	 5.1610
 5.5520	 5.1860
 5.5580	 5.2140
 5.5640	 5.1060
 5.5700	 5.0750
 5.5760	 5.1100
 5.5820	 5.0070
 5.5880	 4.9290
 5.5940	 4.8110
 5.6000	 4.8200
 5.6060	 4.7730
 5.6120	 4.7330
 5.6180	 4.7180
 5.6240	 4.6640
 5.6300	 4.5530
 5.6360	 4.3980
 5.6420	 4.2740
 5.6490	 4.2190
 5.6550	 4.0530
 5.6610	 3.9580
 5.6670	 3.9500
 5.6730	 3.8560
 5.6800	 3.6280
 5.6860	 3.4990
 5.6920	 3.4060
 5.6980	 3.3240
 5.7040	 3.2400
 5.7110	 3.1090
 5.7170	 2.9820
 5.7230	 2.9050
 5.7300	 2.8290
 5.7360	 2.8390
 5.7420	 2.8310
 5.7490	 2.8670
 5.7550	 2.8480
 5.7620	 2.9420
 5.7680	 2.9030
 5.7740	 3.0650
 5.7810	 3.2570
 5.7870	 3.4370
 5.7940	 3.4450
 5.8000	 3.4740
 5.8070	 3.5590
 5.8130	 3.5610
 5.8200	 3.5550
 5.8260	 3.6660
 5.8330	 3.7180
 5.8390	 3.7740
 5.8460	 3.8450
 5.8530	 4.0520
 5.8590	 4.2290
 5.8660	 4.2510
 5.8720	 4.1790
 5.8790	 4.2830
 5.8860	 4.3340
 5.8920	 4.4120
 5.8990	 4.4620
 5.9060	 4.6120
 5.9130	 4.6060
 5.9190	 4.5890
 5.9260	 4.5830
 5.9330	 4.7110
 5.9400	 4.7300
 5.9470	 4.8080
 5.9530	 4.7540
 5.9600	 4.7870
 5.9670	 4.7490
 5.9740	 4.7520
 5.9810	 4.6780
 5.9880	 4.7080
 5.9950	 4.6450
 6.0020	 4.6130
 6.0090	 4.5180
 6.0160	 4.4800
 6.0230	 4.5210
 6.0300	 4.6760
 6.0370	 4.4990
 6.0440	 4.3500
 6.0510	 4.4220
 6.0580	 4.5010
 6.0650	 4.3310
 6.0720	 4.3620
 6.0790	 4.3720
 6.0860	 4.4200
 6.0930	 4.4320
 6.1000	 4.4390
 6.1080	 4.3470
 6.1150	 4.3860
 6.1220	 4.4200
 6.1290	 4.4220
 6.1370	 4.4100
 6.1440	 4.5730
 6.1510	 4.5600
 6.1580	 4.6770
 6.1660	 4.6440
 6.1730	 4.6390
 6.1800	 4.7320
 6.1880	 4.8180
 6.1950	 4.6840
 6.2030	 4.8170
 6.2100	 4.8780
 6.2170	 4.8800
 6.2250	 4.7450
 6.2320	 4.7530
 6.2400	 4.7310
 6.2470	 4.7000
 6.2550	 4.5440
 6.2630	 4.6100
 6.2700	 4.6810
 6.2780	 4.6610
 6.2850	 4.5200
 6.2930	 4.5550
 6.3010	 4.4990
 6.3080	 4.6450
 6.3160	 4.7840
 6.3240	 4.8850
 6.3310	 4.8140
 6.3390	 4.9050
 6.3470	 4.8230
 6.3550	 4.7240
 6.3620	 4.8170
 6.3700	 4.9620
 6.3780	 4.8930
 6.3860	 4.9310
 6.3940	 4.8730
 6.4020	 4.8860
 6.4100	 4.9090
 6.4180	 4.8430
 6.4260	 4.6880
 6.4330	 4.7600
 6.4410	 4.8390
 6.4490	 5.0290
 6.4580	 4.9670
 6.4660	 4.8810
 6.4740	 4.8560
 6.4820	 4.8870
 6.4900	 4.7850
 6.4980	 4.7940
 6.5060	 4.7360
 6.5140	 4.8770
 6.5230	 4.8870
 6.5310	 4.8720
 6.5390	 4.7910
 6.5470	 4.7250
 6.5550	 4.5570
 6.5640	 4.5690
 6.5720	 4.4890
 6.5800	 4.5460
 6.5890	 4.5830
 6.5970	 4.6050
 6.6060	 4.5190
 6.6140	 4.5240
 6.6220	 4.5240
 6.6310	 4.6130
 6.6390	 4.5420
 6.6480	 4.5610
 6.6560	 4.5500
 6.6650	 4.5230
 6.6740	 4.5530
 6.6820	 4.5770
 6.6910	 4.4970
 6.6990	 4.5300
 6.7080	 4.4400
 6.7170	 4.3600
 6.7260	 4.2050
 6.7340	 4.2230
 6.7430	 4.2890
 6.7520	 4.3480
 6.7610	 4.0460
 6.7690	 3.8900
 6.7780	 3.9680
 6.7870	 4.2680
 6.7960	 4.0810
 6.8050	 3.8280
 6.8140	 3.7170
 6.8230	 3.8000
 6.8320	 3.9020
 6.8410	 4.0210
 6.8500	 3.8390
 6.8590	 3.7980
 6.8680	 3.7450
 6.8770	 3.7900
 6.8860	 3.7780
 6.8950	 3.8270
 6.9050	 3.7610
 6.9140	 3.7640
 6.9230	 3.7130
 6.9320	 3.7260
 6.9420	 3.6270
 6.9510	 3.6740
 6.9600	 3.6190
 6.9700	 3.5310
 6.9790	 3.5060
 6.9880	 3.6640
 6.9980	 3.6350
 7.0070	 3.6240
 7.0170	 3.5770
 7.0260	 3.6550
 7.0360	 3.5350
 7.0450	 3.6090
 7.0550	 3.6800
 7.0650	 3.7480
 7.0740	 3.6550
 7.0840	 3.7160
 7.0940	 3.6380
 7.1030	 3.6670
 7.1130	 3.6860
 7.1230	 3.7590
 7.1330	 3.6140
 7.1420	 3.6120
 7.1520	 3.6290
 7.1620	 3.6980
 7.1720	 3.5360
 7.1820	 3.5710
 7.1920	 3.5040
 7.2020	 3.4010
 7.2120	 3.2860
 7.2220	 3.3500
 7.2320	 3.2200
 7.2420	 3.2190
 7.2520	 3.1790
 7.2620	 3.3350
 7.2730	 3.3630
 7.2830	 3.4250
 7.2930	 3.3930
 7.3030	 3.3850
 7.3140	 3.2240
 7.3240	 3.2840
 7.3340	 3.3880
 7.3450	 3.4150
 7.3550	 3.2210
 7.3660	 3.3540
 7.3760	 3.4680
 7.3870	 3.6650
 7.3970	 3.6220
 7.4080	 3.5310
 7.4180	 3.4910
 7.4290	 3.5600
 7.4400	 3.4350
 7.4500	 3.4620
 7.4610	 3.4270
 7.4720	 3.5280
 7.4830	 3.4220
 7.4930	 3.4000
 7.5040	 3.3420
 7.5150	 3.4020
 7.5260	 3.3530
 7.5370	 3.5080
 7.5480	 3.4870
 7.5590	 3.4750
 7.5700	 3.3940
 7.5810	 3.5040
 7.5920	 3.4600
 7.6030	 3.4180
 7.6140	 3.3250
 7.6260	 3.4400
 7.6370	 3.3820
 7.6480	 3.4280
 7.6590	 3.3590
 7.6710	 3.3910
 7.6820	 3.3910
 7.6930	 3.5240
 7.7050	 3.5230
 7.7160	 3.4620
 7.7280	 3.3840
 7.7390	 3.5020
 7.7510	 3.3580
 7.7630	 3.2730
 7.7740	 3.2650
 7.7860	 3.3540
 7.7980	 3.3080
 7.8090	 3.3570
 7.8210	 3.1570
 7.8330	 3.2290
 7.8450	 3.2750
 7.8570	 3.3300
 7.8690	 3.2160
 7.8810	 3.2470
 7.8930	 3.1640
 7.9050	 3.1640
 7.9170	 3.0770
 7.9290	 3.1110
 7.9410	 3.0710
 7.9530	 3.2370
 7.9650	 3.2030
 7.9780	 3.3530
 7.9900	 3.2450
 8.0020	 3.1380
 8.0150	 3.0290
 8.0270	 3.1380
 8.0390	 3.1340
 8.0520	 3.1790
 8.0640	 3.2190
 8.0770	 3.4820
 8.0900	 3.5040
 8.1020	 3.5220
 8.1150	 3.3230
 8.1280	 3.5360
 8.1400	 3.4880
 8.1530	 3.4880
 8.1660	 3.4620
 8.1790	 3.6620
 8.1920	 3.5870
 8.2050	 3.6320
 8.2180	 3.4170
 8.2310	 3.6010
 8.2440	 3.6220
 8.2570	 3.7490
 8.2700	 3.7490
 8.2830	 3.8630
 8.2970	 3.7750
 8.3100	 3.9010
 8.3230	 3.8120
 8.3370	 3.8880
 8.3500	 3.7630
 8.3640	 3.8050
 8.3770	 3.7200
 8.3910	 3.7140
 8.4040	 3.6350
 8.4180	 3.8820
 8.4320	 3.8420
 8.4450	 3.7600
 8.4590	 3.5810
 8.4730	 3.6290
 8.4870	 3.5890
 8.5010	 3.7570
 8.5150	 3.5080
 8.5290	 3.6070
 8.5430	 3.7540
 8.5570	 3.9160
 8.5710	 3.8370
 8.5850	 4.0560
 8.5990	 3.9750
 8.6140	 3.9940
 8.6280	 3.8990
 8.6420	 4.0700
 8.6570	 4.1270
 8.6710	 4.3290
 8.6860	 4.1490
 8.7000	 4.1570
 8.7150	 3.9180
 8.7300	 3.8950
 8.7440	 3.9780
 8.7590	 4.1940
 8.7740	 3.9130
 8.7890	 4.0070
 8.8040	 3.9820
 8.8190	 4.1080
 8.8340	 3.7680
 8.8490	 3.6830
 8.8640	 3.6960
 8.8790	 3.7890
 8.8940	 3.5720
 8.9100	 3.6950
 8.9250	 3.5720
 8.9400	 3.6280
 8.9560	 3.5900
 8.9710	 3.7960
 8.9870	 3.7320
 9.0020	 3.8170
 9.0180	 3.7080
 9.0340	 3.8360
 9.0500	 3.9750
 9.0650	 4.1920
 9.0810	 3.8660
 9.0970	 3.9560
 9.1130	 3.9530
 9.1290	 4.0390
 9.1450	 3.8660
 9.1610	 4.1670
 9.1780	 4.0940
 9.1940	 4.0950
 9.2100	 3.9040
 9.2270	 4.0670
 9.2430	 3.9980
 9.2600	 4.1690
 9.2760	 4.0270
 9.2930	 4.1680
 9.3090	 4.1200
 9.3260	 4.2330
 9.3430	 4.3040
 9.3600	 4.5170
 9.3770	 4.2510
 9.3940	 4.2440
 9.4110	 4.1740
 9.4280	 4.4870
 9.4450	 4.3970
 9.4620	 4.5150
 9.4800	 4.5640
 9.4970	 4.6420
 9.5140	 4.3840
 9.5320	 4.5240
 9.5500	 4.4150
 9.5670	 4.6020
 9.5850	 4.5250
 9.6030	 4.4910
 9.6200	 4.4200
 9.6380	 4.7400
 9.6560	 4.6630
 9.6740	 4.6810
 9.6920	 4.3100
 9.7100	 4.4810
 9.7290	 4.5270
 9.7470	 4.6650
 9.7650	 4.4440
 9.7840	 4.6160
 9.8020	 4.5250
 9.8210	 4.5690
 9.8390	 4.4120
 9.8580	 4.5660
 9.8770	 4.3990
 9.8960	 4.5420
 9.9150	 4.5050
 9.9340	 4.5830
 9.9530	 4.3600
 9.9720	 4.4090
 9.9910	 4.3960
10.0100	 4.5040
10.0300	 4.2900
10.0490	 4.3120
10.0690	 4.3670
10.0880	 4.6340
10.1080	 4.5500
10.1280	 4.7520
10.1480	 4.6050
10.1670	 4.7000
10.1870	 4.5210
10.2070	 4.4560
10.2280	 4.3430
10.2480	 4.5150
10.2680	 4.4930
10.2890	 4.6740
10.3090	 4.5660
10.3300	 4.7580
10.3500	 4.7580
10.3710	 4.9270
10.3920	 4.7460
10.4120	 4.8800
10.4330	 5.0380
10.4540	 5.2690
10.4760	 5.1930
10.4970	 5.4330
10.5180	 5.3150
10.5390	 5.4350
10.5610	 5.4350
10.5820	 5.6230
10.6040	 5.4000
10.6260	 5.4760
10.6480	 5.3680
10.6700	 5.5250
10.6920	 5.4810
10.7140	 5.5580
10.7360	 5.1720
10.7580	 5.3050
10.7800	 5.3060
10.8030	 5.4120
10.8250	 5.1210
10.8480	 5.1960
10.8710	 5.1880
10.8940	 5.4710
10.9170	 5.2250
10.9400	 5.2720
10.9630	 5.1470
10.9860	 5.1590
11.0090	 4.8610
11.0330	 4.9570
11.0560	 4.6860
11.0800	 4.7400
11.1040	 4.4720
11.1270	 4.5110
11.1510	 4.3120
11.1750	 4.6070
11.2000	 4.7460
11.2240	 5.0070
11.2480	 4.9760
11.2730	 5.1550
11.2970	 4.9690
11.3220	 5.2380
11.3470	 5.2500
11.3720	 5.2940
11.3970	 5.0010
11.4220	 5.1050
11.4470	 4.9680
11.4720	 5.1440
11.4980	 4.9560
11.5230	 4.9570
11.5490	 4.9250
11.5750	 5.1370
11.6000	 4.9480
11.6260	 5.2340
11.6530	 5.2790
11.6790	 5.4390
11.7050	 5.2400
11.7320	 5.5050
11.7580	 5.4120
11.7850	 5.4020
11.8120	 4.9010
11.8390	 5.1560
11.8660	 5.1790
11.8930	 5.1120
11.9200	 4.8980
11.9480	 5.0150
11.9760	 4.8770
12.0030	 5.1420
12.0310	 4.9750
12.0590	 5.1060
12.0870	 5.0930
12.1150	 5.4660
12.1440	 5.2770
12.1720	 5.4800
12.2010	 5.1130
12.2300	 5.0780
12.2590	 4.9310
12.2880	 5.2800
12.3170	 5.0530
12.3460	 5.1990
12.3760	 4.9690
12.4050	 5.1250
12.4350	 4.8240
12.4650	 5.0190
12.4950	 5.0320
12.5250	 5.5410
12.5550	 5.4240
12.5860	 5.3320
12.6170	 4.8590
12.6470	 5.1550
12.6780	 5.0720
12.7090	 5.2400
12.7410	 4.8970
12.7720	 4.8850
12.8030	 4.6100
12.8350	 5.0400
12.8670	 4.9240
12.8990	 5.1620
12.9310	 5.0660
12.9640	 5.3820
12.9960	 4.8750
13.0290	 4.7580
13.0610	 4.3840
13.0940	 4.6990
13.1280	 4.5590
13.1610	 4.6800
13.1940	 4.5810
13.2280	 4.9040
13.2620	 4.4290
13.2960	 4.3460
13.3300	 4.1410
13.3640	 4.5280
13.3990	 4.2970
13.4340	 4.6330
13.4690	 4.3220
13.5040	 4.7010
13.5390	 4.5540
13.5740	 4.6630
13.6100	 4.4120
13.6460	 4.5950
13.6820	 4.4460
13.7180	 4.6470
13.7540	 3.9850
13.7910	 4.2390
13.8280	 4.2460
13.8650	 4.7830
13.9020	 4.4790
13.9390	 4.3590
13.9770	 3.9240
14.0150	 4.3440
14.0530	 3.7350
14.0910	 4.0210
14.1290	 3.7100
14.1680	 4.0980
14.2070	 4.0200
14.2460	 4.4770
14.2850	 4.0440
14.3240	 4.5750
14.3640	 4.2780
14.4040	 4.2540
14.4440	 3.5810
14.4840	 3.7200
14.5250	 3.4170
14.5660	 4.0490
14.6070	 3.6690
14.6480	 4.3860
14.6900	 4.2050
14.7310	 4.4670
14.7730	 3.8340
14.8150	 4.2510
14.8580	 3.8300
14.9010	 4.3800
14.9440	 3.8440
14.9870	 4.1220
15.0300	 3.8090
15.0740	 4.4810
15.1180	 3.9150
15.1620	 3.9560
15.2060	 3.1290
15.2510	 3.5490
15.2960	 3.2100
15.3410	 4.1360
15.3870	 3.4350
