Name: Umbellularia californica 1
Type: vegetation
Class: Shrub
Genus: Umbellularia
Species: californica
Sample No.: VH236
Owner: UCSB
Wavelength Range: VSWIR
Origin: 34.5074; -119.7634; WGS84
Collection Date: 10/13/2013
Description: Samples were collected as part of the HyspIRI Airborne Campaign. 48 individual plants were sampled in three times in 2013 - spring  summer  and fall. The name of the sample includes a 1  2  or 3 which references a different individual of the species. Samples were taken to JPL and processed within 48 hours of collection. The same leaves were processed in the Nicolet and then measured using the ASD.
Measurement: Bidirectional reflectance
First Column: X
Second Column: Y
X Units: Wavelength (micrometers)
Y Units: Reflectance (percentage)
First X Value: 0.35
Last X Value: 2.5
Number of X Values: 2151
Additional Information: vegetation.shrub.umbellularia.californica.vswir.vh236.ucsb.asd.ancillary.txt

 0.3500	 8.3870
 0.3510	 8.6350
 0.3520	 8.3630
 0.3530	 8.0190
 0.3540	 8.0540
 0.3550	 8.2130
 0.3560	 8.1400
 0.3570	 8.0760
 0.3580	 8.4350
 0.3590	 8.3410
 0.3600	 8.2930
 0.3610	 8.4000
 0.3620	 8.0220
 0.3630	 7.9860
 0.3640	 8.1250
 0.3650	 8.1390
 0.3660	 8.2710
 0.3670	 8.2440
 0.3680	 8.0960
 0.3690	 8.0740
 0.3700	 8.0980
 0.3710	 8.1260
 0.3720	 8.1230
 0.3730	 8.0570
 0.3740	 8.0170
 0.3750	 8.0540
 0.3760	 8.1510
 0.3770	 8.0520
 0.3780	 8.0190
 0.3790	 8.0740
 0.3800	 8.0300
 0.3810	 8.0270
 0.3820	 8.0330
 0.3830	 8.0320
 0.3840	 8.1200
 0.3850	 8.0820
 0.3860	 7.9980
 0.3870	 8.0110
 0.3880	 7.9450
 0.3890	 7.9750
 0.3900	 8.0930
 0.3910	 8.0880
 0.3920	 8.0070
 0.3930	 7.9630
 0.3940	 8.0060
 0.3950	 8.0050
 0.3960	 7.9820
 0.3970	 7.9900
 0.3980	 8.0760
 0.3990	 8.0800
 0.4000	 8.0200
 0.4010	 7.9620
 0.4020	 8.0160
 0.4030	 8.0650
 0.4040	 8.0940
 0.4050	 8.1100
 0.4060	 8.1150
 0.4070	 8.1040
 0.4080	 8.0880
 0.4090	 8.0950
 0.4100	 8.1450
 0.4110	 8.1820
 0.4120	 8.1780
 0.4130	 8.1850
 0.4140	 8.1920
 0.4150	 8.2120
 0.4160	 8.2500
 0.4170	 8.2570
 0.4180	 8.2890
 0.4190	 8.3390
 0.4200	 8.3340
 0.4210	 8.3510
 0.4220	 8.3830
 0.4230	 8.4160
 0.4240	 8.4550
 0.4250	 8.4800
 0.4260	 8.4910
 0.4270	 8.4980
 0.4280	 8.5070
 0.4290	 8.5370
 0.4300	 8.5750
 0.4310	 8.5630
 0.4320	 8.5670
 0.4330	 8.5730
 0.4340	 8.5610
 0.4350	 8.5730
 0.4360	 8.6020
 0.4370	 8.6350
 0.4380	 8.6600
 0.4390	 8.6660
 0.4400	 8.6790
 0.4410	 8.7110
 0.4420	 8.7300
 0.4430	 8.7400
 0.4440	 8.7480
 0.4450	 8.7640
 0.4460	 8.7800
 0.4470	 8.7950
 0.4480	 8.8100
 0.4490	 8.8250
 0.4500	 8.8460
 0.4510	 8.8700
 0.4520	 8.8890
 0.4530	 8.8900
 0.4540	 8.9000
 0.4550	 8.9230
 0.4560	 8.9450
 0.4570	 8.9620
 0.4580	 8.9700
 0.4590	 8.9740
 0.4600	 8.9980
 0.4610	 9.0160
 0.4620	 9.0270
 0.4630	 9.0380
 0.4640	 9.0680
 0.4650	 9.0890
 0.4660	 9.0890
 0.4670	 9.0830
 0.4680	 9.0820
 0.4690	 9.0950
 0.4700	 9.1160
 0.4710	 9.1130
 0.4720	 9.1150
 0.4730	 9.1250
 0.4740	 9.1330
 0.4750	 9.1310
 0.4760	 9.1340
 0.4770	 9.1410
 0.4780	 9.1340
 0.4790	 9.1220
 0.4800	 9.1280
 0.4810	 9.1620
 0.4820	 9.1590
 0.4830	 9.1560
 0.4840	 9.1720
 0.4850	 9.2000
 0.4860	 9.2200
 0.4870	 9.2360
 0.4880	 9.2580
 0.4890	 9.2990
 0.4900	 9.3420
 0.4910	 9.3850
 0.4920	 9.4360
 0.4930	 9.4990
 0.4940	 9.5690
 0.4950	 9.6420
 0.4960	 9.7100
 0.4970	 9.8040
 0.4980	 9.9120
 0.4990	10.0190
 0.5000	10.1380
 0.5010	10.2630
 0.5020	10.3990
 0.5030	10.5570
 0.5040	10.7210
 0.5050	10.9000
 0.5060	11.1030
 0.5070	11.3240
 0.5080	11.5680
 0.5090	11.8260
 0.5100	12.0880
 0.5110	12.3720
 0.5120	12.6740
 0.5130	12.9960
 0.5140	13.3470
 0.5150	13.7090
 0.5160	14.0810
 0.5170	14.4660
 0.5180	14.8630
 0.5190	15.2750
 0.5200	15.7000
 0.5210	16.1350
 0.5220	16.5740
 0.5230	17.0140
 0.5240	17.4510
 0.5250	17.8710
 0.5260	18.2940
 0.5270	18.7150
 0.5280	19.1230
 0.5290	19.5210
 0.5300	19.9000
 0.5310	20.2610
 0.5320	20.6170
 0.5330	20.9540
 0.5340	21.2800
 0.5350	21.6030
 0.5360	21.8990
 0.5370	22.1800
 0.5380	22.4450
 0.5390	22.6870
 0.5400	22.9260
 0.5410	23.1520
 0.5420	23.3580
 0.5430	23.5560
 0.5440	23.7500
 0.5450	23.9440
 0.5460	24.1360
 0.5470	24.3230
 0.5480	24.4990
 0.5490	24.6540
 0.5500	24.7890
 0.5510	24.8950
 0.5520	24.9830
 0.5530	25.0590
 0.5540	25.0970
 0.5550	25.1050
 0.5560	25.0840
 0.5570	25.0310
 0.5580	24.9660
 0.5590	24.8790
 0.5600	24.7640
 0.5610	24.6380
 0.5620	24.4940
 0.5630	24.3350
 0.5640	24.1660
 0.5650	23.9810
 0.5660	23.7940
 0.5670	23.6060
 0.5680	23.4000
 0.5690	23.1700
 0.5700	22.9270
 0.5710	22.6860
 0.5720	22.4430
 0.5730	22.2050
 0.5740	21.9730
 0.5750	21.7430
 0.5760	21.5240
 0.5770	21.3240
 0.5780	21.1420
 0.5790	20.9680
 0.5800	20.7970
 0.5810	20.6340
 0.5820	20.4810
 0.5830	20.3230
 0.5840	20.1660
 0.5850	20.0190
 0.5860	19.8870
 0.5870	19.7660
 0.5880	19.6590
 0.5890	19.5690
 0.5900	19.4830
 0.5910	19.3890
 0.5920	19.2920
 0.5930	19.2080
 0.5940	19.1410
 0.5950	19.0820
 0.5960	19.0220
 0.5970	18.9580
 0.5980	18.8940
 0.5990	18.8280
 0.6000	18.7580
 0.6010	18.6780
 0.6020	18.5860
 0.6030	18.4840
 0.6040	18.3730
 0.6050	18.2480
 0.6060	18.1110
 0.6070	17.9650
 0.6080	17.8180
 0.6090	17.6550
 0.6100	17.4750
 0.6110	17.2890
 0.6120	17.1290
 0.6130	16.9830
 0.6140	16.8390
 0.6150	16.6890
 0.6160	16.5410
 0.6170	16.3980
 0.6180	16.2640
 0.6190	16.1340
 0.6200	16.0250
 0.6210	15.9330
 0.6220	15.8440
 0.6230	15.7780
 0.6240	15.7250
 0.6250	15.6750
 0.6260	15.6360
 0.6270	15.6140
 0.6280	15.5980
 0.6290	15.5750
 0.6300	15.5630
 0.6310	15.5440
 0.6320	15.5120
 0.6330	15.4740
 0.6340	15.4260
 0.6350	15.3550
 0.6360	15.2540
 0.6370	15.1290
 0.6380	14.9760
 0.6390	14.7960
 0.6400	14.5960
 0.6410	14.3830
 0.6420	14.1610
 0.6430	13.9320
 0.6440	13.6980
 0.6450	13.4620
 0.6460	13.2320
 0.6470	13.0160
 0.6480	12.8210
 0.6490	12.6530
 0.6500	12.5050
 0.6510	12.3650
 0.6520	12.2470
 0.6530	12.1400
 0.6540	12.0350
 0.6550	11.9370
 0.6560	11.8110
 0.6570	11.6670
 0.6580	11.5280
 0.6590	11.3780
 0.6600	11.2080
 0.6610	11.0290
 0.6620	10.8680
 0.6630	10.7040
 0.6640	10.5470
 0.6650	10.4090
 0.6660	10.2740
 0.6670	10.1590
 0.6680	10.0670
 0.6690	 9.9890
 0.6700	 9.9240
 0.6710	 9.8740
 0.6720	 9.8390
 0.6730	 9.8200
 0.6740	 9.8050
 0.6750	 9.7970
 0.6760	 9.8010
 0.6770	 9.8170
 0.6780	 9.8430
 0.6790	 9.8810
 0.6800	 9.9340
 0.6810	10.0070
 0.6820	10.1060
 0.6830	10.2390
 0.6840	10.4150
 0.6850	10.6500
 0.6860	10.9530
 0.6870	11.3400
 0.6880	11.8340
 0.6890	12.4490
 0.6900	13.1950
 0.6910	14.0770
 0.6920	15.1040
 0.6930	16.2810
 0.6940	17.6010
 0.6950	19.0420
 0.6960	20.6030
 0.6970	22.2600
 0.6980	23.9860
 0.6990	25.7790
 0.7000	27.5960
 0.7010	29.4090
 0.7020	31.2090
 0.7030	32.9790
 0.7040	34.7040
 0.7050	36.3680
 0.7060	37.9710
 0.7070	39.5040
 0.7080	40.9630
 0.7090	42.3550
 0.7100	43.6840
 0.7110	44.9570
 0.7120	46.1620
 0.7130	47.2700
 0.7140	48.3530
 0.7150	49.3980
 0.7160	50.3780
 0.7170	51.2770
 0.7180	52.1440
 0.7190	52.9760
 0.7200	53.7540
 0.7210	54.4860
 0.7220	55.1800
 0.7230	55.8380
 0.7240	56.4630
 0.7250	57.0500
 0.7260	57.5880
 0.7270	58.0810
 0.7280	58.5760
 0.7290	59.0210
 0.7300	59.4380
 0.7310	59.8610
 0.7320	60.2240
 0.7330	60.5580
 0.7340	60.8770
 0.7350	61.1730
 0.7360	61.4620
 0.7370	61.7270
 0.7380	61.9630
 0.7390	62.2030
 0.7400	62.4090
 0.7410	62.5930
 0.7420	62.7790
 0.7430	62.9570
 0.7440	63.1110
 0.7450	63.2450
 0.7460	63.3800
 0.7470	63.5200
 0.7480	63.6420
 0.7490	63.7380
 0.7500	63.8230
 0.7510	63.9170
 0.7520	63.9990
 0.7530	64.0530
 0.7540	64.1430
 0.7550	64.2220
 0.7560	64.2690
 0.7570	64.2900
 0.7580	64.3170
 0.7590	64.3640
 0.7600	64.4200
 0.7610	64.4330
 0.7620	64.4480
 0.7630	64.4750
 0.7640	64.5080
 0.7650	64.5330
 0.7660	64.5600
 0.7670	64.5770
 0.7680	64.5660
 0.7690	64.5750
 0.7700	64.5970
 0.7710	64.6190
 0.7720	64.6220
 0.7730	64.6330
 0.7740	64.6480
 0.7750	64.6560
 0.7760	64.6450
 0.7770	64.6450
 0.7780	64.6580
 0.7790	64.6690
 0.7800	64.6610
 0.7810	64.6570
 0.7820	64.6720
 0.7830	64.7100
 0.7840	64.7010
 0.7850	64.6890
 0.7860	64.7060
 0.7870	64.7130
 0.7880	64.7040
 0.7890	64.7020
 0.7900	64.7230
 0.7910	64.7090
 0.7920	64.7050
 0.7930	64.7170
 0.7940	64.7250
 0.7950	64.7190
 0.7960	64.7260
 0.7970	64.7520
 0.7980	64.7610
 0.7990	64.7460
 0.8000	64.7330
 0.8010	64.7420
 0.8020	64.7390
 0.8030	64.7450
 0.8040	64.7590
 0.8050	64.7730
 0.8060	64.7960
 0.8070	64.7750
 0.8080	64.7350
 0.8090	64.7560
 0.8100	64.7610
 0.8110	64.7580
 0.8120	64.7600
 0.8130	64.7620
 0.8140	64.7700
 0.8150	64.7820
 0.8160	64.7890
 0.8170	64.7700
 0.8180	64.7650
 0.8190	64.7770
 0.8200	64.7900
 0.8210	64.7900
 0.8220	64.7990
 0.8230	64.8150
 0.8240	64.8140
 0.8250	64.8190
 0.8260	64.8110
 0.8270	64.7950
 0.8280	64.8180
 0.8290	64.8140
 0.8300	64.8040
 0.8310	64.8130
 0.8320	64.8080
 0.8330	64.8110
 0.8340	64.8080
 0.8350	64.7840
 0.8360	64.7880
 0.8370	64.8020
 0.8380	64.8160
 0.8390	64.8260
 0.8400	64.8410
 0.8410	64.8390
 0.8420	64.8250
 0.8430	64.8350
 0.8440	64.8370
 0.8450	64.8410
 0.8460	64.8550
 0.8470	64.8560
 0.8480	64.8550
 0.8490	64.8640
 0.8500	64.8880
 0.8510	64.8840
 0.8520	64.8760
 0.8530	64.8700
 0.8540	64.8630
 0.8550	64.8810
 0.8560	64.8910
 0.8570	64.8880
 0.8580	64.8920
 0.8590	64.8910
 0.8600	64.8920
 0.8610	64.8990
 0.8620	64.8970
 0.8630	64.8890
 0.8640	64.8860
 0.8650	64.8930
 0.8660	64.8920
 0.8670	64.8850
 0.8680	64.8830
 0.8690	64.8890
 0.8700	64.8790
 0.8710	64.8990
 0.8720	64.9210
 0.8730	64.8900
 0.8740	64.8760
 0.8750	64.8710
 0.8760	64.8660
 0.8770	64.8590
 0.8780	64.8740
 0.8790	64.8770
 0.8800	64.8610
 0.8810	64.8700
 0.8820	64.8600
 0.8830	64.8490
 0.8840	64.8530
 0.8850	64.8630
 0.8860	64.8690
 0.8870	64.8510
 0.8880	64.8070
 0.8890	64.7940
 0.8900	64.8030
 0.8910	64.8160
 0.8920	64.8140
 0.8930	64.7910
 0.8940	64.7860
 0.8950	64.7850
 0.8960	64.7510
 0.8970	64.7560
 0.8980	64.7520
 0.8990	64.7320
 0.9000	64.7280
 0.9010	64.7420
 0.9020	64.7460
 0.9030	64.7250
 0.9040	64.6820
 0.9050	64.6840
 0.9060	64.7010
 0.9070	64.6930
 0.9080	64.6540
 0.9090	64.6490
 0.9100	64.6650
 0.9110	64.6720
 0.9120	64.6520
 0.9130	64.6240
 0.9140	64.6050
 0.9150	64.6010
 0.9160	64.5990
 0.9170	64.5770
 0.9180	64.5600
 0.9190	64.5750
 0.9200	64.5640
 0.9210	64.5420
 0.9220	64.5320
 0.9230	64.5470
 0.9240	64.4990
 0.9250	64.4730
 0.9260	64.4710
 0.9270	64.4380
 0.9280	64.4170
 0.9290	64.4070
 0.9300	64.4040
 0.9310	64.3950
 0.9320	64.3560
 0.9330	64.3190
 0.9340	64.3060
 0.9350	64.3170
 0.9360	64.3330
 0.9370	64.2950
 0.9380	64.2020
 0.9390	64.1440
 0.9400	64.1370
 0.9410	64.1260
 0.9420	64.0830
 0.9430	64.0610
 0.9440	64.0320
 0.9450	64.0110
 0.9460	63.9930
 0.9470	63.9200
 0.9480	63.8540
 0.9490	63.8010
 0.9500	63.7530
 0.9510	63.7000
 0.9520	63.6680
 0.9530	63.6110
 0.9540	63.4990
 0.9550	63.4220
 0.9560	63.3680
 0.9570	63.3340
 0.9580	63.3080
 0.9590	63.2480
 0.9600	63.1680
 0.9610	63.0980
 0.9620	63.0560
 0.9630	63.0150
 0.9640	62.9950
 0.9650	62.9870
 0.9660	62.9700
 0.9670	62.9320
 0.9680	62.9180
 0.9690	62.9230
 0.9700	62.9190
 0.9710	62.8630
 0.9720	62.8470
 0.9730	62.8680
 0.9740	62.8760
 0.9750	62.8540
 0.9760	62.8190
 0.9770	62.8070
 0.9780	62.8450
 0.9790	62.8520
 0.9800	62.8680
 0.9810	62.8700
 0.9820	62.8230
 0.9830	62.7790
 0.9840	62.7900
 0.9850	62.8400
 0.9860	62.8750
 0.9870	62.8720
 0.9880	62.9160
 0.9890	62.9650
 0.9900	62.9450
 0.9910	62.9390
 0.9920	62.9100
 0.9930	62.8810
 0.9940	62.8520
 0.9950	62.8230
 0.9960	62.7940
 0.9970	62.7650
 0.9980	62.7360
 0.9990	62.7070
 1.0000	62.6780
 1.0010	62.6490
 1.0020	62.6200
 1.0030	62.5910
 1.0040	62.5630
 1.0050	62.5340
 1.0060	62.5050
 1.0070	62.4760
 1.0080	62.4470
 1.0090	62.4180
 1.0100	62.4180
 1.0110	62.4340
 1.0120	62.4520
 1.0130	62.4700
 1.0140	62.4890
 1.0150	62.5130
 1.0160	62.5260
 1.0170	62.5300
 1.0180	62.5410
 1.0190	62.5450
 1.0200	62.5660
 1.0210	62.6030
 1.0220	62.6290
 1.0230	62.6550
 1.0240	62.6820
 1.0250	62.6970
 1.0260	62.6980
 1.0270	62.7130
 1.0280	62.7270
 1.0290	62.7420
 1.0300	62.7620
 1.0310	62.7790
 1.0320	62.7930
 1.0330	62.8080
 1.0340	62.8290
 1.0350	62.8590
 1.0360	62.8780
 1.0370	62.8820
 1.0380	62.8910
 1.0390	62.8910
 1.0400	62.8930
 1.0410	62.8930
 1.0420	62.8990
 1.0430	62.9070
 1.0440	62.9120
 1.0450	62.9200
 1.0460	62.9320
 1.0470	62.9430
 1.0480	62.9540
 1.0490	62.9760
 1.0500	62.9890
 1.0510	62.9940
 1.0520	62.9970
 1.0530	63.0050
 1.0540	63.0110
 1.0550	63.0200
 1.0560	63.0380
 1.0570	63.0430
 1.0580	63.0370
 1.0590	63.0420
 1.0600	63.0480
 1.0610	63.0510
 1.0620	63.0610
 1.0630	63.0650
 1.0640	63.0600
 1.0650	63.0580
 1.0660	63.0530
 1.0670	63.0540
 1.0680	63.0550
 1.0690	63.0570
 1.0700	63.0570
 1.0710	63.0590
 1.0720	63.0620
 1.0730	63.0640
 1.0740	63.0660
 1.0750	63.0730
 1.0760	63.0770
 1.0770	63.0790
 1.0780	63.0790
 1.0790	63.0760
 1.0800	63.0770
 1.0810	63.0790
 1.0820	63.0800
 1.0830	63.0870
 1.0840	63.0900
 1.0850	63.0940
 1.0860	63.0930
 1.0870	63.0830
 1.0880	63.0660
 1.0890	63.0550
 1.0900	63.0380
 1.0910	63.0240
 1.0920	63.0170
 1.0930	63.0060
 1.0940	62.9880
 1.0950	62.9720
 1.0960	62.9540
 1.0970	62.9380
 1.0980	62.9180
 1.0990	62.9050
 1.1000	62.9010
 1.1010	62.8930
 1.1020	62.8960
 1.1030	62.8820
 1.1040	62.8570
 1.1050	62.8440
 1.1060	62.8280
 1.1070	62.8060
 1.1080	62.7880
 1.1090	62.7770
 1.1100	62.7550
 1.1110	62.7230
 1.1120	62.6990
 1.1130	62.6730
 1.1140	62.6460
 1.1150	62.6230
 1.1160	62.5970
 1.1170	62.5690
 1.1180	62.5390
 1.1190	62.5150
 1.1200	62.4770
 1.1210	62.4290
 1.1220	62.3800
 1.1230	62.3320
 1.1240	62.2840
 1.1250	62.2310
 1.1260	62.1880
 1.1270	62.1220
 1.1280	62.0410
 1.1290	61.9600
 1.1300	61.8710
 1.1310	61.7800
 1.1320	61.6920
 1.1330	61.5900
 1.1340	61.4830
 1.1350	61.3610
 1.1360	61.2250
 1.1370	61.0830
 1.1380	60.9400
 1.1390	60.7890
 1.1400	60.6320
 1.1410	60.4770
 1.1420	60.3140
 1.1430	60.1460
 1.1440	59.9870
 1.1450	59.8310
 1.1460	59.6800
 1.1470	59.5340
 1.1480	59.3880
 1.1490	59.2460
 1.1500	59.1050
 1.1510	58.9590
 1.1520	58.8300
 1.1530	58.7040
 1.1540	58.5960
 1.1550	58.5040
 1.1560	58.4200
 1.1570	58.3460
 1.1580	58.2790
 1.1590	58.2140
 1.1600	58.1580
 1.1610	58.1090
 1.1620	58.0640
 1.1630	58.0180
 1.1640	57.9740
 1.1650	57.9350
 1.1660	57.8960
 1.1670	57.8640
 1.1680	57.8400
 1.1690	57.8160
 1.1700	57.7980
 1.1710	57.7740
 1.1720	57.7520
 1.1730	57.7250
 1.1740	57.6930
 1.1750	57.6630
 1.1760	57.6360
 1.1770	57.6040
 1.1780	57.5800
 1.1790	57.5590
 1.1800	57.5330
 1.1810	57.5100
 1.1820	57.4810
 1.1830	57.4510
 1.1840	57.4240
 1.1850	57.3880
 1.1860	57.3550
 1.1870	57.3280
 1.1880	57.3030
 1.1890	57.2810
 1.1900	57.2630
 1.1910	57.2510
 1.1920	57.2350
 1.1930	57.2190
 1.1940	57.2030
 1.1950	57.1830
 1.1960	57.1710
 1.1970	57.1650
 1.1980	57.1610
 1.1990	57.1600
 1.2000	57.1630
 1.2010	57.1670
 1.2020	57.1800
 1.2030	57.1960
 1.2040	57.2130
 1.2050	57.2320
 1.2060	57.2510
 1.2070	57.2780
 1.2080	57.3130
 1.2090	57.3520
 1.2100	57.3880
 1.2110	57.4240
 1.2120	57.4580
 1.2130	57.5000
 1.2140	57.5430
 1.2150	57.5890
 1.2160	57.6420
 1.2170	57.6930
 1.2180	57.7370
 1.2190	57.7840
 1.2200	57.8380
 1.2210	57.8850
 1.2220	57.9310
 1.2230	57.9840
 1.2240	58.0320
 1.2250	58.0790
 1.2260	58.1270
 1.2270	58.1750
 1.2280	58.2180
 1.2290	58.2540
 1.2300	58.2910
 1.2310	58.3270
 1.2320	58.3590
 1.2330	58.3940
 1.2340	58.4300
 1.2350	58.4690
 1.2360	58.5020
 1.2370	58.5330
 1.2380	58.5640
 1.2390	58.5920
 1.2400	58.6160
 1.2410	58.6380
 1.2420	58.6650
 1.2430	58.6860
 1.2440	58.7080
 1.2450	58.7360
 1.2460	58.7560
 1.2470	58.7720
 1.2480	58.7930
 1.2490	58.8110
 1.2500	58.8280
 1.2510	58.8470
 1.2520	58.8630
 1.2530	58.8750
 1.2540	58.8900
 1.2550	58.9020
 1.2560	58.9100
 1.2570	58.9220
 1.2580	58.9280
 1.2590	58.9350
 1.2600	58.9420
 1.2610	58.9500
 1.2620	58.9570
 1.2630	58.9610
 1.2640	58.9660
 1.2650	58.9580
 1.2660	58.9430
 1.2670	58.9370
 1.2680	58.9320
 1.2690	58.9270
 1.2700	58.9240
 1.2710	58.9150
 1.2720	58.9030
 1.2730	58.8950
 1.2740	58.8860
 1.2750	58.8810
 1.2760	58.8760
 1.2770	58.8620
 1.2780	58.8460
 1.2790	58.8290
 1.2800	58.8000
 1.2810	58.7720
 1.2820	58.7470
 1.2830	58.7180
 1.2840	58.6960
 1.2850	58.6760
 1.2860	58.6480
 1.2870	58.6230
 1.2880	58.5990
 1.2890	58.5760
 1.2900	58.5510
 1.2910	58.5250
 1.2920	58.4980
 1.2930	58.4660
 1.2940	58.4290
 1.2950	58.3900
 1.2960	58.3490
 1.2970	58.3040
 1.2980	58.2600
 1.2990	58.2140
 1.3000	58.1740
 1.3010	58.1310
 1.3020	58.0760
 1.3030	58.0280
 1.3040	57.9660
 1.3050	57.9020
 1.3060	57.8420
 1.3070	57.7650
 1.3080	57.6890
 1.3090	57.6120
 1.3100	57.5290
 1.3110	57.4400
 1.3120	57.3500
 1.3130	57.2550
 1.3140	57.1570
 1.3150	57.0600
 1.3160	56.9600
 1.3170	56.8600
 1.3180	56.7510
 1.3190	56.6370
 1.3200	56.5120
 1.3210	56.3830
 1.3220	56.2530
 1.3230	56.1190
 1.3240	55.9920
 1.3250	55.8620
 1.3260	55.7240
 1.3270	55.5890
 1.3280	55.4480
 1.3290	55.2980
 1.3300	55.1430
 1.3310	54.9890
 1.3320	54.8310
 1.3330	54.6660
 1.3340	54.5060
 1.3350	54.3430
 1.3360	54.1710
 1.3370	54.0040
 1.3380	53.8370
 1.3390	53.6620
 1.3400	53.4840
 1.3410	53.3090
 1.3420	53.1310
 1.3430	52.9550
 1.3440	52.7840
 1.3450	52.6150
 1.3460	52.4460
 1.3470	52.2810
 1.3480	52.1200
 1.3490	51.9600
 1.3500	51.8050
 1.3510	51.6500
 1.3520	51.4910
 1.3530	51.3370
 1.3540	51.1810
 1.3550	51.0180
 1.3560	50.8560
 1.3570	50.6910
 1.3580	50.5240
 1.3590	50.3570
 1.3600	50.1880
 1.3610	50.0110
 1.3620	49.8250
 1.3630	49.6360
 1.3640	49.4340
 1.3650	49.2260
 1.3660	49.0140
 1.3670	48.7850
 1.3680	48.5480
 1.3690	48.3010
 1.3700	48.0320
 1.3710	47.7490
 1.3720	47.4520
 1.3730	47.1330
 1.3740	46.7970
 1.3750	46.4380
 1.3760	46.0530
 1.3770	45.6410
 1.3780	45.1990
 1.3790	44.7340
 1.3800	44.2430
 1.3810	43.7250
 1.3820	43.1810
 1.3830	42.6130
 1.3840	42.0220
 1.3850	41.4040
 1.3860	40.7680
 1.3870	40.1040
 1.3880	39.4370
 1.3890	38.7510
 1.3900	38.0560
 1.3910	37.3600
 1.3920	36.6570
 1.3930	35.9470
 1.3940	35.2400
 1.3950	34.5300
 1.3960	33.8290
 1.3970	33.1380
 1.3980	32.4590
 1.3990	31.8050
 1.4000	31.1660
 1.4010	30.5440
 1.4020	29.9460
 1.4030	29.3660
 1.4040	28.8150
 1.4050	28.2910
 1.4060	27.7890
 1.4070	27.3200
 1.4080	26.8740
 1.4090	26.4550
 1.4100	26.0670
 1.4110	25.7040
 1.4120	25.3690
 1.4130	25.0570
 1.4140	24.7690
 1.4150	24.5080
 1.4160	24.2680
 1.4170	24.0470
 1.4180	23.8480
 1.4190	23.6650
 1.4200	23.4980
 1.4210	23.3440
 1.4220	23.2060
 1.4230	23.0840
 1.4240	22.9740
 1.4250	22.8740
 1.4260	22.7900
 1.4270	22.7130
 1.4280	22.6460
 1.4290	22.5870
 1.4300	22.5400
 1.4310	22.4970
 1.4320	22.4610
 1.4330	22.4310
 1.4340	22.4060
 1.4350	22.3900
 1.4360	22.3800
 1.4370	22.3780
 1.4380	22.3790
 1.4390	22.3840
 1.4400	22.3920
 1.4410	22.4020
 1.4420	22.4180
 1.4430	22.4390
 1.4440	22.4610
 1.4450	22.4840
 1.4460	22.5090
 1.4470	22.5380
 1.4480	22.5670
 1.4490	22.5980
 1.4500	22.6320
 1.4510	22.6650
 1.4520	22.7030
 1.4530	22.7420
 1.4540	22.7810
 1.4550	22.8240
 1.4560	22.8700
 1.4570	22.9150
 1.4580	22.9650
 1.4590	23.0180
 1.4600	23.0770
 1.4610	23.1410
 1.4620	23.2110
 1.4630	23.2860
 1.4640	23.3660
 1.4650	23.4510
 1.4660	23.5410
 1.4670	23.6390
 1.4680	23.7460
 1.4690	23.8570
 1.4700	23.9760
 1.4710	24.1020
 1.4720	24.2300
 1.4730	24.3610
 1.4740	24.4980
 1.4750	24.6370
 1.4760	24.7810
 1.4770	24.9290
 1.4780	25.0760
 1.4790	25.2270
 1.4800	25.3760
 1.4810	25.5260
 1.4820	25.6810
 1.4830	25.8390
 1.4840	25.9980
 1.4850	26.1590
 1.4860	26.3230
 1.4870	26.4880
 1.4880	26.6530
 1.4890	26.8200
 1.4900	26.9870
 1.4910	27.1530
 1.4920	27.3220
 1.4930	27.4930
 1.4940	27.6610
 1.4950	27.8300
 1.4960	27.9970
 1.4970	28.1640
 1.4980	28.3310
 1.4990	28.4970
 1.5000	28.6640
 1.5010	28.8290
 1.5020	28.9940
 1.5030	29.1620
 1.5040	29.3280
 1.5050	29.4920
 1.5060	29.6570
 1.5070	29.8200
 1.5080	29.9820
 1.5090	30.1430
 1.5100	30.3050
 1.5110	30.4630
 1.5120	30.6180
 1.5130	30.7730
 1.5140	30.9250
 1.5150	31.0770
 1.5160	31.2290
 1.5170	31.3830
 1.5180	31.5330
 1.5190	31.6790
 1.5200	31.8260
 1.5210	31.9700
 1.5220	32.1160
 1.5230	32.2620
 1.5240	32.4060
 1.5250	32.5510
 1.5260	32.6880
 1.5270	32.8220
 1.5280	32.9620
 1.5290	33.0960
 1.5300	33.2290
 1.5310	33.3630
 1.5320	33.4920
 1.5330	33.6200
 1.5340	33.7460
 1.5350	33.8700
 1.5360	33.9920
 1.5370	34.1120
 1.5380	34.2350
 1.5390	34.3580
 1.5400	34.4800
 1.5410	34.6040
 1.5420	34.7200
 1.5430	34.8360
 1.5440	34.9550
 1.5450	35.0660
 1.5460	35.1800
 1.5470	35.2960
 1.5480	35.4080
 1.5490	35.5170
 1.5500	35.6220
 1.5510	35.7270
 1.5520	35.8350
 1.5530	35.9440
 1.5540	36.0550
 1.5550	36.1640
 1.5560	36.2650
 1.5570	36.3650
 1.5580	36.4650
 1.5590	36.5670
 1.5600	36.6700
 1.5610	36.7710
 1.5620	36.8700
 1.5630	36.9660
 1.5640	37.0580
 1.5650	37.1540
 1.5660	37.2520
 1.5670	37.3470
 1.5680	37.4410
 1.5690	37.5310
 1.5700	37.6170
 1.5710	37.7030
 1.5720	37.7870
 1.5730	37.8740
 1.5740	37.9620
 1.5750	38.0470
 1.5760	38.1310
 1.5770	38.2110
 1.5780	38.2950
 1.5790	38.3830
 1.5800	38.4640
 1.5810	38.5460
 1.5820	38.6270
 1.5830	38.7040
 1.5840	38.7860
 1.5850	38.8640
 1.5860	38.9430
 1.5870	39.0210
 1.5880	39.1020
 1.5890	39.1890
 1.5900	39.2720
 1.5910	39.3530
 1.5920	39.4320
 1.5930	39.5040
 1.5940	39.5780
 1.5950	39.6530
 1.5960	39.7280
 1.5970	39.8030
 1.5980	39.8780
 1.5990	39.9510
 1.6000	40.0220
 1.6010	40.0940
 1.6020	40.1670
 1.6030	40.2320
 1.6040	40.2960
 1.6050	40.3630
 1.6060	40.4240
 1.6070	40.4880
 1.6080	40.5570
 1.6090	40.6190
 1.6100	40.6850
 1.6110	40.7500
 1.6120	40.8080
 1.6130	40.8690
 1.6140	40.9250
 1.6150	40.9790
 1.6160	41.0340
 1.6170	41.0830
 1.6180	41.1330
 1.6190	41.1810
 1.6200	41.2270
 1.6210	41.2750
 1.6220	41.3190
 1.6230	41.3620
 1.6240	41.4020
 1.6250	41.4400
 1.6260	41.4830
 1.6270	41.5260
 1.6280	41.5680
 1.6290	41.6090
 1.6300	41.6450
 1.6310	41.6820
 1.6320	41.7160
 1.6330	41.7500
 1.6340	41.7820
 1.6350	41.8190
 1.6360	41.8580
 1.6370	41.8960
 1.6380	41.9370
 1.6390	41.9750
 1.6400	42.0090
 1.6410	42.0410
 1.6420	42.0730
 1.6430	42.0990
 1.6440	42.1200
 1.6450	42.1410
 1.6460	42.1540
 1.6470	42.1680
 1.6480	42.1800
 1.6490	42.1830
 1.6500	42.1840
 1.6510	42.1790
 1.6520	42.1680
 1.6530	42.1570
 1.6540	42.1440
 1.6550	42.1300
 1.6560	42.1130
 1.6570	42.0990
 1.6580	42.0850
 1.6590	42.0640
 1.6600	42.0410
 1.6610	42.0150
 1.6620	41.9840
 1.6630	41.9560
 1.6640	41.9250
 1.6650	41.8910
 1.6660	41.8570
 1.6670	41.8130
 1.6680	41.7670
 1.6690	41.7220
 1.6700	41.6740
 1.6710	41.6300
 1.6720	41.5840
 1.6730	41.5210
 1.6740	41.4580
 1.6750	41.3840
 1.6760	41.3010
 1.6770	41.2260
 1.6780	41.1460
 1.6790	41.0570
 1.6800	40.9720
 1.6810	40.8800
 1.6820	40.7810
 1.6830	40.6880
 1.6840	40.5910
 1.6850	40.4930
 1.6860	40.3890
 1.6870	40.2720
 1.6880	40.1560
 1.6890	40.0330
 1.6900	39.9180
 1.6910	39.8090
 1.6920	39.7010
 1.6930	39.5970
 1.6940	39.4930
 1.6950	39.3900
 1.6960	39.2920
 1.6970	39.1920
 1.6980	39.0990
 1.6990	39.0180
 1.7000	38.9240
 1.7010	38.8240
 1.7020	38.7330
 1.7030	38.6410
 1.7040	38.5480
 1.7050	38.4620
 1.7060	38.3700
 1.7070	38.2690
 1.7080	38.1740
 1.7090	38.0800
 1.7100	37.9890
 1.7110	37.8990
 1.7120	37.8100
 1.7130	37.7280
 1.7140	37.6520
 1.7150	37.5780
 1.7160	37.5150
 1.7170	37.4610
 1.7180	37.4120
 1.7190	37.3630
 1.7200	37.3230
 1.7210	37.2890
 1.7220	37.2540
 1.7230	37.2270
 1.7240	37.2020
 1.7250	37.1740
 1.7260	37.1510
 1.7270	37.1300
 1.7280	37.1110
 1.7290	37.0890
 1.7300	37.0670
 1.7310	37.0470
 1.7320	37.0240
 1.7330	37.0060
 1.7340	36.9990
 1.7350	36.9810
 1.7360	36.9640
 1.7370	36.9380
 1.7380	36.8980
 1.7390	36.8600
 1.7400	36.8160
 1.7410	36.7710
 1.7420	36.7280
 1.7430	36.6720
 1.7440	36.6070
 1.7450	36.5430
 1.7460	36.4700
 1.7470	36.4010
 1.7480	36.3370
 1.7490	36.2650
 1.7500	36.1890
 1.7510	36.1140
 1.7520	36.0350
 1.7530	35.9610
 1.7540	35.8880
 1.7550	35.8190
 1.7560	35.7480
 1.7570	35.6750
 1.7580	35.6100
 1.7590	35.5510
 1.7600	35.4960
 1.7610	35.4500
 1.7620	35.4070
 1.7630	35.3700
 1.7640	35.3330
 1.7650	35.3040
 1.7660	35.2700
 1.7670	35.2290
 1.7680	35.1930
 1.7690	35.1560
 1.7700	35.1200
 1.7710	35.0900
 1.7720	35.0560
 1.7730	35.0180
 1.7740	34.9850
 1.7750	34.9510
 1.7760	34.9220
 1.7770	34.8960
 1.7780	34.8760
 1.7790	34.8590
 1.7800	34.8470
 1.7810	34.8410
 1.7820	34.8380
 1.7830	34.8400
 1.7840	34.8430
 1.7850	34.8470
 1.7860	34.8590
 1.7870	34.8760
 1.7880	34.8930
 1.7890	34.9160
 1.7900	34.9310
 1.7910	34.9450
 1.7920	34.9540
 1.7930	34.9660
 1.7940	34.9790
 1.7950	34.9940
 1.7960	35.0140
 1.7970	35.0330
 1.7980	35.0550
 1.7990	35.0700
 1.8000	35.0800
 1.8010	35.0950
 1.8020	35.1100
 1.8030	35.1240
 1.8040	35.1420
 1.8050	35.1560
 1.8060	35.1630
 1.8070	35.1760
 1.8080	35.1930
 1.8090	35.2080
 1.8100	35.2260
 1.8110	35.2450
 1.8120	35.2540
 1.8130	35.2690
 1.8140	35.2780
 1.8150	35.2830
 1.8160	35.2880
 1.8170	35.2780
 1.8180	35.2710
 1.8190	35.2680
 1.8200	35.2630
 1.8210	35.2640
 1.8220	35.2580
 1.8230	35.2410
 1.8240	35.2330
 1.8250	35.2300
 1.8260	35.2270
 1.8270	35.1160
 1.8280	35.0060
 1.8290	34.8960
 1.8300	34.7850
 1.8310	34.6750
 1.8320	34.5650
 1.8330	34.4540
 1.8340	34.3440
 1.8350	34.3440
 1.8360	34.2950
 1.8370	34.2470
 1.8380	34.1920
 1.8390	34.1260
 1.8400	34.0500
 1.8410	33.9710
 1.8420	33.8860
 1.8430	33.7950
 1.8440	33.6950
 1.8450	33.5860
 1.8460	33.4700
 1.8470	33.3390
 1.8480	33.2010
 1.8490	33.0540
 1.8500	32.8890
 1.8510	32.7090
 1.8520	32.5130
 1.8530	32.2940
 1.8540	32.0640
 1.8550	31.8220
 1.8560	31.5660
 1.8570	31.3010
 1.8580	31.0190
 1.8590	30.7160
 1.8600	30.3960
 1.8610	30.0490
 1.8620	29.6850
 1.8630	29.3100
 1.8640	28.9060
 1.8650	28.4840
 1.8660	28.0390
 1.8670	27.5610
 1.8680	27.0620
 1.8690	26.5420
 1.8700	26.0020
 1.8710	25.4400
 1.8720	24.8700
 1.8730	24.2800
 1.8740	23.6850
 1.8750	23.0860
 1.8760	22.4710
 1.8770	21.8580
 1.8780	21.2410
 1.8790	20.6150
 1.8800	20.0000
 1.8810	19.3850
 1.8820	18.7750
 1.8830	18.1790
 1.8840	17.5940
 1.8850	17.0200
 1.8860	16.4710
 1.8870	15.9270
 1.8880	15.3990
 1.8890	14.9050
 1.8900	14.4280
 1.8910	13.9770
 1.8920	13.5470
 1.8930	13.1540
 1.8940	12.7860
 1.8950	12.4500
 1.8960	12.1420
 1.8970	11.8530
 1.8980	11.5910
 1.8990	11.3520
 1.9000	11.1330
 1.9010	10.9410
 1.9020	10.7690
 1.9030	10.6200
 1.9040	10.4790
 1.9050	10.3610
 1.9060	10.2490
 1.9070	10.1420
 1.9080	10.0510
 1.9090	 9.9730
 1.9100	 9.9060
 1.9110	 9.8450
 1.9120	 9.7980
 1.9130	 9.7520
 1.9140	 9.7110
 1.9150	 9.6740
 1.9160	 9.6480
 1.9170	 9.6190
 1.9180	 9.6010
 1.9190	 9.5930
 1.9200	 9.5830
 1.9210	 9.5780
 1.9220	 9.5710
 1.9230	 9.5560
 1.9240	 9.5530
 1.9250	 9.5560
 1.9260	 9.5630
 1.9270	 9.5720
 1.9280	 9.5830
 1.9290	 9.5960
 1.9300	 9.6050
 1.9310	 9.6190
 1.9320	 9.6360
 1.9330	 9.6550
 1.9340	 9.6730
 1.9350	 9.6950
 1.9360	 9.7220
 1.9370	 9.7490
 1.9380	 9.7790
 1.9390	 9.8050
 1.9400	 9.8320
 1.9410	 9.8640
 1.9420	 9.8890
 1.9430	 9.9240
 1.9440	 9.9600
 1.9450	 9.9990
 1.9460	10.0340
 1.9470	10.0690
 1.9480	10.1080
 1.9490	10.1460
 1.9500	10.1900
 1.9510	10.2300
 1.9520	10.2740
 1.9530	10.3150
 1.9540	10.3570
 1.9550	10.4060
 1.9560	10.4670
 1.9570	10.5180
 1.9580	10.5690
 1.9590	10.6230
 1.9600	10.6770
 1.9610	10.7310
 1.9620	10.7890
 1.9630	10.8450
 1.9640	10.9000
 1.9650	10.9510
 1.9660	11.0060
 1.9670	11.0670
 1.9680	11.1330
 1.9690	11.2100
 1.9700	11.2820
 1.9710	11.3580
 1.9720	11.4330
 1.9730	11.5060
 1.9740	11.5780
 1.9750	11.6520
 1.9760	11.7300
 1.9770	11.8050
 1.9780	11.8780
 1.9790	11.9540
 1.9800	12.0310
 1.9810	12.1070
 1.9820	12.1840
 1.9830	12.2610
 1.9840	12.3360
 1.9850	12.4130
 1.9860	12.4930
 1.9870	12.5700
 1.9880	12.6480
 1.9890	12.7330
 1.9900	12.8140
 1.9910	12.8960
 1.9920	12.9770
 1.9930	13.0560
 1.9940	13.1350
 1.9950	13.2130
 1.9960	13.2940
 1.9970	13.3750
 1.9980	13.4590
 1.9990	13.5480
 2.0000	13.6370
 2.0010	13.7210
 2.0020	13.8080
 2.0030	13.8950
 2.0040	13.9750
 2.0050	14.0610
 2.0060	14.1490
 2.0070	14.2380
 2.0080	14.3300
 2.0090	14.4190
 2.0100	14.5130
 2.0110	14.5960
 2.0120	14.6700
 2.0130	14.7410
 2.0140	14.8130
 2.0150	14.8840
 2.0160	14.9620
 2.0170	15.0440
 2.0180	15.1260
 2.0190	15.2140
 2.0200	15.2910
 2.0210	15.3660
 2.0220	15.4370
 2.0230	15.4940
 2.0240	15.5590
 2.0250	15.6240
 2.0260	15.6910
 2.0270	15.7590
 2.0280	15.8360
 2.0290	15.9040
 2.0300	15.9700
 2.0310	16.0330
 2.0320	16.0860
 2.0330	16.1490
 2.0340	16.2180
 2.0350	16.2830
 2.0360	16.3510
 2.0370	16.4140
 2.0380	16.4710
 2.0390	16.5280
 2.0400	16.5860
 2.0410	16.6390
 2.0420	16.6860
 2.0430	16.7380
 2.0440	16.7910
 2.0450	16.8450
 2.0460	16.8970
 2.0470	16.9520
 2.0480	17.0000
 2.0490	17.0390
 2.0500	17.0840
 2.0510	17.1290
 2.0520	17.1780
 2.0530	17.2350
 2.0540	17.2870
 2.0550	17.3430
 2.0560	17.3910
 2.0570	17.4450
 2.0580	17.4950
 2.0590	17.5450
 2.0600	17.5940
 2.0610	17.6430
 2.0620	17.6870
 2.0630	17.7340
 2.0640	17.7830
 2.0650	17.8310
 2.0660	17.8830
 2.0670	17.9300
 2.0680	17.9760
 2.0690	18.0220
 2.0700	18.0630
 2.0710	18.1070
 2.0720	18.1520
 2.0730	18.1980
 2.0740	18.2450
 2.0750	18.2910
 2.0760	18.3430
 2.0770	18.4010
 2.0780	18.4530
 2.0790	18.5100
 2.0800	18.5600
 2.0810	18.5980
 2.0820	18.6480
 2.0830	18.7040
 2.0840	18.7540
 2.0850	18.8120
 2.0860	18.8620
 2.0870	18.9020
 2.0880	18.9380
 2.0890	18.9860
 2.0900	19.0400
 2.0910	19.0860
 2.0920	19.1360
 2.0930	19.1820
 2.0940	19.2190
 2.0950	19.2600
 2.0960	19.3030
 2.0970	19.3470
 2.0980	19.3870
 2.0990	19.4350
 2.1000	19.4920
 2.1010	19.5450
 2.1020	19.5990
 2.1030	19.6540
 2.1040	19.7050
 2.1050	19.7610
 2.1060	19.8140
 2.1070	19.8670
 2.1080	19.9200
 2.1090	19.9720
 2.1100	20.0270
 2.1110	20.0890
 2.1120	20.1420
 2.1130	20.1940
 2.1140	20.2420
 2.1150	20.2790
 2.1160	20.3270
 2.1170	20.3830
 2.1180	20.4330
 2.1190	20.4860
 2.1200	20.5380
 2.1210	20.5910
 2.1220	20.6360
 2.1230	20.6800
 2.1240	20.7220
 2.1250	20.7680
 2.1260	20.8050
 2.1270	20.8530
 2.1280	20.9160
 2.1290	20.9660
 2.1300	21.0120
 2.1310	21.0590
 2.1320	21.1070
 2.1330	21.1480
 2.1340	21.1910
 2.1350	21.2250
 2.1360	21.2390
 2.1370	21.2650
 2.1380	21.2950
 2.1390	21.3230
 2.1400	21.3510
 2.1410	21.3880
 2.1420	21.4210
 2.1430	21.4520
 2.1440	21.4850
 2.1450	21.5190
 2.1460	21.5560
 2.1470	21.5950
 2.1480	21.6320
 2.1490	21.6720
 2.1500	21.7110
 2.1510	21.7560
 2.1520	21.7860
 2.1530	21.8100
 2.1540	21.8330
 2.1550	21.8350
 2.1560	21.8510
 2.1570	21.8770
 2.1580	21.9010
 2.1590	21.9230
 2.1600	21.9540
 2.1610	21.9880
 2.1620	22.0170
 2.1630	22.0470
 2.1640	22.0790
 2.1650	22.1090
 2.1660	22.1360
 2.1670	22.1630
 2.1680	22.1940
 2.1690	22.2160
 2.1700	22.2310
 2.1710	22.2500
 2.1720	22.2630
 2.1730	22.2840
 2.1740	22.3100
 2.1750	22.3370
 2.1760	22.3730
 2.1770	22.4020
 2.1780	22.4350
 2.1790	22.4580
 2.1800	22.4670
 2.1810	22.4850
 2.1820	22.5080
 2.1830	22.5210
 2.1840	22.5440
 2.1850	22.5730
 2.1860	22.6050
 2.1870	22.6390
 2.1880	22.6740
 2.1890	22.7240
 2.1900	22.7480
 2.1910	22.7560
 2.1920	22.7740
 2.1930	22.7750
 2.1940	22.7940
 2.1950	22.8340
 2.1960	22.8570
 2.1970	22.8760
 2.1980	22.8950
 2.1990	22.9040
 2.2000	22.9170
 2.2010	22.9350
 2.2020	22.9500
 2.2030	22.9650
 2.2040	22.9750
 2.2050	22.9760
 2.2060	22.9860
 2.2070	22.9900
 2.2080	22.9880
 2.2090	22.9900
 2.2100	22.9920
 2.2110	22.9920
 2.2120	22.9930
 2.2130	22.9900
 2.2140	22.9890
 2.2150	22.9810
 2.2160	22.9660
 2.2170	22.9520
 2.2180	22.9300
 2.2190	22.9170
 2.2200	22.9080
 2.2210	22.8980
 2.2220	22.9000
 2.2230	22.8870
 2.2240	22.8710
 2.2250	22.8460
 2.2260	22.8050
 2.2270	22.7680
 2.2280	22.7290
 2.2290	22.6880
 2.2300	22.6540
 2.2310	22.6130
 2.2320	22.5590
 2.2330	22.5000
 2.2340	22.4400
 2.2350	22.3720
 2.2360	22.3010
 2.2370	22.2290
 2.2380	22.1530
 2.2390	22.0640
 2.2400	21.9850
 2.2410	21.9090
 2.2420	21.8290
 2.2430	21.7500
 2.2440	21.6680
 2.2450	21.5850
 2.2460	21.5000
 2.2470	21.4220
 2.2480	21.3230
 2.2490	21.2070
 2.2500	21.0990
 2.2510	20.9750
 2.2520	20.8660
 2.2530	20.7710
 2.2540	20.6690
 2.2550	20.5710
 2.2560	20.4670
 2.2570	20.3570
 2.2580	20.2480
 2.2590	20.1310
 2.2600	20.0230
 2.2610	19.9230
 2.2620	19.8240
 2.2630	19.7160
 2.2640	19.6070
 2.2650	19.5020
 2.2660	19.3870
 2.2670	19.2860
 2.2680	19.1930
 2.2690	19.1080
 2.2700	19.0260
 2.2710	18.9550
 2.2720	18.9040
 2.2730	18.8380
 2.2740	18.7710
 2.2750	18.7040
 2.2760	18.6350
 2.2770	18.5630
 2.2780	18.4850
 2.2790	18.4210
 2.2800	18.3570
 2.2810	18.3030
 2.2820	18.2740
 2.2830	18.2250
 2.2840	18.1770
 2.2850	18.1140
 2.2860	18.0290
 2.2870	17.9600
 2.2880	17.8860
 2.2890	17.8170
 2.2900	17.7670
 2.2910	17.6970
 2.2920	17.6100
 2.2930	17.5340
 2.2940	17.4480
 2.2950	17.3740
 2.2960	17.3200
 2.2970	17.2560
 2.2980	17.1890
 2.2990	17.1230
 2.3000	17.0590
 2.3010	16.9940
 2.3020	16.9350
 2.3030	16.8830
 2.3040	16.8420
 2.3050	16.7980
 2.3060	16.7690
 2.3070	16.7540
 2.3080	16.7130
 2.3090	16.6770
 2.3100	16.6480
 2.3110	16.6090
 2.3120	16.5950
 2.3130	16.6050
 2.3140	16.6090
 2.3150	16.6260
 2.3160	16.6310
 2.3170	16.6340
 2.3180	16.6360
 2.3190	16.6350
 2.3200	16.6310
 2.3210	16.6330
 2.3220	16.6230
 2.3230	16.6030
 2.3240	16.5820
 2.3250	16.5540
 2.3260	16.5270
 2.3270	16.4990
 2.3280	16.4640
 2.3290	16.4230
 2.3300	16.3910
 2.3310	16.3540
 2.3320	16.3240
 2.3330	16.3010
 2.3340	16.2710
 2.3350	16.2450
 2.3360	16.2080
 2.3370	16.1610
 2.3380	16.1240
 2.3390	16.0810
 2.3400	16.0400
 2.3410	16.0080
 2.3420	15.9680
 2.3430	15.9130
 2.3440	15.8720
 2.3450	15.8350
 2.3460	15.8010
 2.3470	15.7720
 2.3480	15.7520
 2.3490	15.7510
 2.3500	15.7330
 2.3510	15.7150
 2.3520	15.6950
 2.3530	15.6630
 2.3540	15.6300
 2.3550	15.5970
 2.3560	15.5710
 2.3570	15.5480
 2.3580	15.5140
 2.3590	15.5080
 2.3600	15.4950
 2.3610	15.4500
 2.3620	15.4200
 2.3630	15.3880
 2.3640	15.3510
 2.3650	15.3230
 2.3660	15.2870
 2.3670	15.2570
 2.3680	15.2320
 2.3690	15.2290
 2.3700	15.2270
 2.3710	15.1970
 2.3720	15.1700
 2.3730	15.1400
 2.3740	15.1060
 2.3750	15.0830
 2.3760	15.0580
 2.3770	15.0280
 2.3780	14.9920
 2.3790	14.9320
 2.3800	14.8840
 2.3810	14.8550
 2.3820	14.8300
 2.3830	14.8270
 2.3840	14.8200
 2.3850	14.7970
 2.3860	14.7650
 2.3870	14.7110
 2.3880	14.6420
 2.3890	14.5810
 2.3900	14.5360
 2.3910	14.5290
 2.3920	14.5460
 2.3930	14.5170
 2.3940	14.4700
 2.3950	14.4260
 2.3960	14.3450
 2.3970	14.2960
 2.3980	14.2810
 2.3990	14.2530
 2.4000	14.2370
 2.4010	14.2170
 2.4020	14.1910
 2.4030	14.1290
 2.4040	14.0770
 2.4050	14.0500
 2.4060	13.9950
 2.4070	13.9760
 2.4080	13.9570
 2.4090	13.8740
 2.4100	13.7980
 2.4110	13.7480
 2.4120	13.6970
 2.4130	13.6640
 2.4140	13.6320
 2.4150	13.5930
 2.4160	13.5190
 2.4170	13.4790
 2.4180	13.4930
 2.4190	13.4420
 2.4200	13.4100
 2.4210	13.3770
 2.4220	13.3190
 2.4230	13.3020
 2.4240	13.2530
 2.4250	13.1750
 2.4260	13.1090
 2.4270	13.0860
 2.4280	13.0790
 2.4290	13.0870
 2.4300	13.0900
 2.4310	12.9840
 2.4320	12.8740
 2.4330	12.7920
 2.4340	12.7100
 2.4350	12.6790
 2.4360	12.6420
 2.4370	12.6080
 2.4380	12.5600
 2.4390	12.5140
 2.4400	12.5170
 2.4410	12.5030
 2.4420	12.4730
 2.4430	12.4220
 2.4440	12.3270
 2.4450	12.2810
 2.4460	12.2730
 2.4470	12.2560
 2.4480	12.2540
 2.4490	12.1760
 2.4500	12.0610
 2.4510	12.0120
 2.4520	11.9650
 2.4530	11.9430
 2.4540	11.9300
 2.4550	11.8750
 2.4560	11.8050
 2.4570	11.7170
 2.4580	11.6720
 2.4590	11.6160
 2.4600	11.5510
 2.4610	11.5660
 2.4620	11.5230
 2.4630	11.4750
 2.4640	11.4790
 2.4650	11.4750
 2.4660	11.5150
 2.4670	11.5480
 2.4680	11.5560
 2.4690	11.4290
 2.4700	11.3830
 2.4710	11.3620
 2.4720	11.3370
 2.4730	11.3710
 2.4740	11.3770
 2.4750	11.3720
 2.4760	11.3350
 2.4770	11.2690
 2.4780	11.2150
 2.4790	11.0990
 2.4800	11.0270
 2.4810	11.0050
 2.4820	10.9810
 2.4830	11.0320
 2.4840	11.0920
 2.4850	11.0290
 2.4860	10.9870
 2.4870	10.8940
 2.4880	10.7460
 2.4890	10.7280
 2.4900	10.7810
 2.4910	10.8690
 2.4920	10.9070
 2.4930	10.9750
 2.4940	11.0610
 2.4950	11.0340
 2.4960	11.1290
 2.4970	11.2070
 2.4980	11.0580
 2.4990	10.8640
 2.5000	10.7320
