Name: Ceanothus spinosus 2
Type: vegetation
Class: Shrub
Genus: Ceanothus
Species: spinosus
Sample No.: VH010
Owner: UCSB
Wavelength Range: VSWIR
Origin: 34.4906; -119.7908; WGS84
Collection Date: 4/1/2013
Description: Samples were collected as part of the HyspIRI Airborne Campaign. 48 individual plants were sampled in three times in 2013 - spring  summer  and fall. The name of the sample includes a 1  2  or 3 which references a different individual of the species. Samples were taken to JPL and processed within 48 hours of collection. The same leaves were processed in the Nicolet and then measured using the ASD.
Measurement: Bidirectional reflectance
First Column: X
Second Column: Y
X Units: Wavelength (micrometers)
Y Units: Reflectance (percentage)
First X Value: 0.35
Last X Value: 2.5
Number of X Values: 2151
Additional Information: vegetation.shrub.ceanothus.spinosus.vswir.vh010.ucsb.asd.ancillary.txt

 0.3500	 4.3370
 0.3510	 4.7160
 0.3520	 4.5670
 0.3530	 4.3360
 0.3540	 4.4410
 0.3550	 4.5020
 0.3560	 4.3920
 0.3570	 4.2090
 0.3580	 4.1510
 0.3590	 4.2300
 0.3600	 4.3480
 0.3610	 4.4020
 0.3620	 4.2870
 0.3630	 4.2780
 0.3640	 4.3010
 0.3650	 4.2420
 0.3660	 4.2070
 0.3670	 4.1750
 0.3680	 4.1540
 0.3690	 4.1760
 0.3700	 4.1950
 0.3710	 4.2010
 0.3720	 4.2080
 0.3730	 4.2770
 0.3740	 4.2430
 0.3750	 4.1600
 0.3760	 4.1330
 0.3770	 4.1230
 0.3780	 4.1560
 0.3790	 4.2170
 0.3800	 4.2540
 0.3810	 4.2110
 0.3820	 4.1860
 0.3830	 4.2220
 0.3840	 4.1900
 0.3850	 4.1480
 0.3860	 4.1090
 0.3870	 4.0820
 0.3880	 4.1800
 0.3890	 4.2470
 0.3900	 4.2120
 0.3910	 4.1060
 0.3920	 4.1210
 0.3930	 4.1580
 0.3940	 4.1220
 0.3950	 4.0760
 0.3960	 4.0900
 0.3970	 4.1430
 0.3980	 4.1770
 0.3990	 4.1820
 0.4000	 4.1530
 0.4010	 4.1170
 0.4020	 4.1350
 0.4030	 4.1470
 0.4040	 4.1480
 0.4050	 4.1490
 0.4060	 4.1690
 0.4070	 4.1550
 0.4080	 4.1200
 0.4090	 4.1210
 0.4100	 4.1450
 0.4110	 4.1680
 0.4120	 4.1770
 0.4130	 4.1820
 0.4140	 4.1950
 0.4150	 4.2180
 0.4160	 4.2440
 0.4170	 4.2440
 0.4180	 4.2640
 0.4190	 4.2990
 0.4200	 4.3050
 0.4210	 4.3310
 0.4220	 4.3590
 0.4230	 4.3740
 0.4240	 4.3990
 0.4250	 4.4180
 0.4260	 4.4430
 0.4270	 4.4900
 0.4280	 4.5020
 0.4290	 4.5170
 0.4300	 4.5520
 0.4310	 4.5830
 0.4320	 4.6010
 0.4330	 4.6210
 0.4340	 4.6580
 0.4350	 4.6840
 0.4360	 4.6980
 0.4370	 4.7030
 0.4380	 4.7100
 0.4390	 4.7050
 0.4400	 4.7010
 0.4410	 4.7090
 0.4420	 4.7290
 0.4430	 4.7480
 0.4440	 4.7670
 0.4450	 4.7860
 0.4460	 4.7900
 0.4470	 4.7980
 0.4480	 4.8130
 0.4490	 4.8220
 0.4500	 4.8230
 0.4510	 4.8330
 0.4520	 4.8620
 0.4530	 4.8860
 0.4540	 4.8970
 0.4550	 4.8990
 0.4560	 4.9020
 0.4570	 4.9070
 0.4580	 4.9200
 0.4590	 4.9330
 0.4600	 4.9170
 0.4610	 4.9110
 0.4620	 4.9170
 0.4630	 4.9260
 0.4640	 4.9260
 0.4650	 4.9210
 0.4660	 4.9210
 0.4670	 4.9430
 0.4680	 4.9300
 0.4690	 4.9170
 0.4700	 4.9300
 0.4710	 4.9270
 0.4720	 4.9310
 0.4730	 4.9380
 0.4740	 4.9340
 0.4750	 4.9300
 0.4760	 4.9320
 0.4770	 4.9380
 0.4780	 4.9320
 0.4790	 4.9410
 0.4800	 4.9520
 0.4810	 4.9470
 0.4820	 4.9550
 0.4830	 4.9630
 0.4840	 4.9660
 0.4850	 4.9760
 0.4860	 4.9920
 0.4870	 5.0040
 0.4880	 5.0100
 0.4890	 5.0260
 0.4900	 5.0360
 0.4910	 5.0420
 0.4920	 5.0580
 0.4930	 5.0880
 0.4940	 5.1080
 0.4950	 5.1170
 0.4960	 5.1470
 0.4970	 5.1710
 0.4980	 5.1940
 0.4990	 5.2270
 0.5000	 5.2690
 0.5010	 5.3180
 0.5020	 5.3680
 0.5030	 5.4180
 0.5040	 5.4770
 0.5050	 5.5400
 0.5060	 5.6050
 0.5070	 5.6840
 0.5080	 5.7690
 0.5090	 5.8630
 0.5100	 5.9670
 0.5110	 6.0760
 0.5120	 6.1970
 0.5130	 6.3350
 0.5140	 6.4850
 0.5150	 6.6440
 0.5160	 6.8120
 0.5170	 6.9950
 0.5180	 7.1890
 0.5190	 7.3900
 0.5200	 7.5990
 0.5210	 7.8160
 0.5220	 8.0350
 0.5230	 8.2580
 0.5240	 8.4860
 0.5250	 8.6970
 0.5260	 8.9060
 0.5270	 9.1100
 0.5280	 9.3020
 0.5290	 9.4840
 0.5300	 9.6490
 0.5310	 9.7980
 0.5320	 9.9410
 0.5330	10.0710
 0.5340	10.1870
 0.5350	10.2910
 0.5360	10.3850
 0.5370	10.4680
 0.5380	10.5440
 0.5390	10.6200
 0.5400	10.6920
 0.5410	10.7610
 0.5420	10.8290
 0.5430	10.8980
 0.5440	10.9590
 0.5450	11.0080
 0.5460	11.0480
 0.5470	11.0640
 0.5480	11.0740
 0.5490	11.0860
 0.5500	11.0940
 0.5510	11.1010
 0.5520	11.1000
 0.5530	11.0830
 0.5540	11.0510
 0.5550	11.0080
 0.5560	10.9540
 0.5570	10.8870
 0.5580	10.8090
 0.5590	10.7220
 0.5600	10.6280
 0.5610	10.5310
 0.5620	10.4210
 0.5630	10.3010
 0.5640	10.1770
 0.5650	10.0450
 0.5660	 9.9060
 0.5670	 9.7640
 0.5680	 9.6220
 0.5690	 9.4770
 0.5700	 9.3300
 0.5710	 9.1850
 0.5720	 9.0400
 0.5730	 8.9000
 0.5740	 8.7710
 0.5750	 8.6660
 0.5760	 8.5740
 0.5770	 8.4900
 0.5780	 8.4140
 0.5790	 8.3450
 0.5800	 8.2790
 0.5810	 8.2090
 0.5820	 8.1290
 0.5830	 8.0430
 0.5840	 7.9660
 0.5850	 7.9010
 0.5860	 7.8430
 0.5870	 7.7930
 0.5880	 7.7440
 0.5890	 7.6940
 0.5900	 7.6500
 0.5910	 7.6180
 0.5920	 7.5920
 0.5930	 7.5620
 0.5940	 7.5340
 0.5950	 7.5090
 0.5960	 7.4860
 0.5970	 7.4660
 0.5980	 7.4450
 0.5990	 7.4210
 0.6000	 7.3950
 0.6010	 7.3610
 0.6020	 7.3220
 0.6030	 7.2820
 0.6040	 7.2450
 0.6050	 7.2020
 0.6060	 7.1510
 0.6070	 7.0950
 0.6080	 7.0400
 0.6090	 6.9850
 0.6100	 6.9360
 0.6110	 6.8990
 0.6120	 6.8380
 0.6130	 6.7610
 0.6140	 6.6810
 0.6150	 6.6150
 0.6160	 6.5540
 0.6170	 6.4990
 0.6180	 6.4510
 0.6190	 6.4100
 0.6200	 6.3740
 0.6210	 6.3430
 0.6220	 6.3140
 0.6230	 6.2850
 0.6240	 6.2640
 0.6250	 6.2480
 0.6260	 6.2260
 0.6270	 6.2130
 0.6280	 6.2070
 0.6290	 6.1970
 0.6300	 6.1920
 0.6310	 6.1870
 0.6320	 6.1790
 0.6330	 6.1630
 0.6340	 6.1470
 0.6350	 6.1280
 0.6360	 6.1040
 0.6370	 6.0760
 0.6380	 6.0430
 0.6390	 6.0030
 0.6400	 5.9600
 0.6410	 5.9160
 0.6420	 5.8690
 0.6430	 5.8200
 0.6440	 5.7690
 0.6450	 5.7170
 0.6460	 5.6660
 0.6470	 5.6190
 0.6480	 5.5750
 0.6490	 5.5350
 0.6500	 5.5010
 0.6510	 5.4680
 0.6520	 5.4360
 0.6530	 5.4070
 0.6540	 5.3800
 0.6550	 5.3470
 0.6560	 5.3130
 0.6570	 5.2780
 0.6580	 5.2390
 0.6590	 5.2000
 0.6600	 5.1630
 0.6610	 5.1260
 0.6620	 5.0860
 0.6630	 5.0530
 0.6640	 5.0230
 0.6650	 4.9960
 0.6660	 4.9720
 0.6670	 4.9530
 0.6680	 4.9410
 0.6690	 4.9340
 0.6700	 4.9320
 0.6710	 4.9330
 0.6720	 4.9380
 0.6730	 4.9460
 0.6740	 4.9530
 0.6750	 4.9650
 0.6760	 4.9860
 0.6770	 5.0040
 0.6780	 5.0250
 0.6790	 5.0520
 0.6800	 5.0850
 0.6810	 5.1160
 0.6820	 5.1530
 0.6830	 5.2020
 0.6840	 5.2570
 0.6850	 5.3190
 0.6860	 5.3910
 0.6870	 5.4790
 0.6880	 5.5870
 0.6890	 5.7180
 0.6900	 5.8800
 0.6910	 6.0780
 0.6920	 6.3230
 0.6930	 6.6170
 0.6940	 6.9650
 0.6950	 7.3750
 0.6960	 7.8430
 0.6970	 8.3710
 0.6980	 8.9630
 0.6990	 9.6100
 0.7000	10.3110
 0.7010	11.0630
 0.7020	11.8520
 0.7030	12.6730
 0.7040	13.5200
 0.7050	14.3890
 0.7060	15.2730
 0.7070	16.1730
 0.7080	17.0780
 0.7090	17.9800
 0.7100	18.8870
 0.7110	19.7960
 0.7120	20.7020
 0.7130	21.5980
 0.7140	22.4920
 0.7150	23.3800
 0.7160	24.2590
 0.7170	25.1270
 0.7180	25.9750
 0.7190	26.8050
 0.7200	27.6260
 0.7210	28.4240
 0.7220	29.1970
 0.7230	29.9480
 0.7240	30.6780
 0.7250	31.3770
 0.7260	32.0480
 0.7270	32.6940
 0.7280	33.3080
 0.7290	33.8950
 0.7300	34.4540
 0.7310	34.9810
 0.7320	35.4790
 0.7330	35.9500
 0.7340	36.3970
 0.7350	36.8160
 0.7360	37.2080
 0.7370	37.5770
 0.7380	37.9260
 0.7390	38.2470
 0.7400	38.5400
 0.7410	38.8150
 0.7420	39.0830
 0.7430	39.3270
 0.7440	39.5490
 0.7450	39.7520
 0.7460	39.9420
 0.7470	40.1150
 0.7480	40.2730
 0.7490	40.4170
 0.7500	40.5450
 0.7510	40.6690
 0.7520	40.7830
 0.7530	40.8780
 0.7540	40.9660
 0.7550	41.0500
 0.7560	41.1270
 0.7570	41.1950
 0.7580	41.2560
 0.7590	41.3120
 0.7600	41.3610
 0.7610	41.4120
 0.7620	41.4490
 0.7630	41.4810
 0.7640	41.5160
 0.7650	41.5450
 0.7660	41.5700
 0.7670	41.5950
 0.7680	41.6210
 0.7690	41.6420
 0.7700	41.6600
 0.7710	41.6780
 0.7720	41.6980
 0.7730	41.7110
 0.7740	41.7220
 0.7750	41.7360
 0.7760	41.7530
 0.7770	41.7660
 0.7780	41.7770
 0.7790	41.7900
 0.7800	41.8010
 0.7810	41.8090
 0.7820	41.8180
 0.7830	41.8340
 0.7840	41.8450
 0.7850	41.8500
 0.7860	41.8550
 0.7870	41.8720
 0.7880	41.8830
 0.7890	41.8890
 0.7900	41.8980
 0.7910	41.9060
 0.7920	41.9080
 0.7930	41.9090
 0.7940	41.9180
 0.7950	41.9220
 0.7960	41.9270
 0.7970	41.9320
 0.7980	41.9310
 0.7990	41.9330
 0.8000	41.9370
 0.8010	41.9400
 0.8020	41.9350
 0.8030	41.9320
 0.8040	41.9300
 0.8050	41.9260
 0.8060	41.9290
 0.8070	41.9240
 0.8080	41.9110
 0.8090	41.9080
 0.8100	41.9040
 0.8110	41.8990
 0.8120	41.8940
 0.8130	41.8940
 0.8140	41.8820
 0.8150	41.8660
 0.8160	41.8540
 0.8170	41.8490
 0.8180	41.8430
 0.8190	41.8340
 0.8200	41.8230
 0.8210	41.8160
 0.8220	41.8030
 0.8230	41.7860
 0.8240	41.7720
 0.8250	41.7630
 0.8260	41.7570
 0.8270	41.7470
 0.8280	41.7310
 0.8290	41.7150
 0.8300	41.6990
 0.8310	41.6830
 0.8320	41.6710
 0.8330	41.6650
 0.8340	41.6580
 0.8350	41.6390
 0.8360	41.6230
 0.8370	41.6130
 0.8380	41.6060
 0.8390	41.5950
 0.8400	41.5950
 0.8410	41.5900
 0.8420	41.5760
 0.8430	41.5660
 0.8440	41.5630
 0.8450	41.5610
 0.8460	41.5550
 0.8470	41.5450
 0.8480	41.5380
 0.8490	41.5320
 0.8500	41.5210
 0.8510	41.5170
 0.8520	41.5180
 0.8530	41.5200
 0.8540	41.5210
 0.8550	41.5120
 0.8560	41.5080
 0.8570	41.5120
 0.8580	41.5140
 0.8590	41.5050
 0.8600	41.5000
 0.8610	41.5040
 0.8620	41.5010
 0.8630	41.4990
 0.8640	41.4990
 0.8650	41.5030
 0.8660	41.5030
 0.8670	41.5010
 0.8680	41.5030
 0.8690	41.5110
 0.8700	41.5110
 0.8710	41.5090
 0.8720	41.5080
 0.8730	41.5120
 0.8740	41.5110
 0.8750	41.5160
 0.8760	41.5230
 0.8770	41.5260
 0.8780	41.5320
 0.8790	41.5400
 0.8800	41.5430
 0.8810	41.5350
 0.8820	41.5400
 0.8830	41.5490
 0.8840	41.5510
 0.8850	41.5530
 0.8860	41.5510
 0.8870	41.5540
 0.8880	41.5660
 0.8890	41.5760
 0.8900	41.5790
 0.8910	41.5770
 0.8920	41.5780
 0.8930	41.5910
 0.8940	41.5940
 0.8950	41.5880
 0.8960	41.5890
 0.8970	41.5930
 0.8980	41.6020
 0.8990	41.6100
 0.9000	41.6060
 0.9010	41.6020
 0.9020	41.6080
 0.9030	41.6200
 0.9040	41.6190
 0.9050	41.6280
 0.9060	41.6370
 0.9070	41.6370
 0.9080	41.6360
 0.9090	41.6380
 0.9100	41.6430
 0.9110	41.6470
 0.9120	41.6490
 0.9130	41.6470
 0.9140	41.6440
 0.9150	41.6480
 0.9160	41.6470
 0.9170	41.6450
 0.9180	41.6480
 0.9190	41.6570
 0.9200	41.6540
 0.9210	41.6410
 0.9220	41.6310
 0.9230	41.6350
 0.9240	41.6340
 0.9250	41.6300
 0.9260	41.6220
 0.9270	41.6120
 0.9280	41.6010
 0.9290	41.5860
 0.9300	41.5690
 0.9310	41.5570
 0.9320	41.5380
 0.9330	41.5160
 0.9340	41.4970
 0.9350	41.4870
 0.9360	41.4680
 0.9370	41.4430
 0.9380	41.4170
 0.9390	41.3990
 0.9400	41.3750
 0.9410	41.3440
 0.9420	41.3160
 0.9430	41.2990
 0.9440	41.2770
 0.9450	41.2480
 0.9460	41.2140
 0.9470	41.1670
 0.9480	41.1250
 0.9490	41.0820
 0.9500	41.0330
 0.9510	40.9930
 0.9520	40.9430
 0.9530	40.8850
 0.9540	40.8280
 0.9550	40.7700
 0.9560	40.7190
 0.9570	40.6710
 0.9580	40.6200
 0.9590	40.5620
 0.9600	40.5150
 0.9610	40.4800
 0.9620	40.4490
 0.9630	40.4190
 0.9640	40.3880
 0.9650	40.3560
 0.9660	40.3310
 0.9670	40.3200
 0.9680	40.2990
 0.9690	40.2750
 0.9700	40.2600
 0.9710	40.2580
 0.9720	40.2430
 0.9730	40.2270
 0.9740	40.2270
 0.9750	40.2190
 0.9760	40.2100
 0.9770	40.2000
 0.9780	40.1920
 0.9790	40.1900
 0.9800	40.1950
 0.9810	40.1990
 0.9820	40.1940
 0.9830	40.1920
 0.9840	40.2010
 0.9850	40.2100
 0.9860	40.2070
 0.9870	40.2210
 0.9880	40.2350
 0.9890	40.2430
 0.9900	40.2460
 0.9910	40.2470
 0.9920	40.3130
 0.9930	40.3790
 0.9940	40.4450
 0.9950	40.5120
 0.9960	40.5780
 0.9970	40.6440
 0.9980	40.7100
 0.9990	40.7760
 1.0000	40.8430
 1.0010	40.9090
 1.0020	40.9750
 1.0030	41.0410
 1.0040	41.1070
 1.0050	41.1740
 1.0060	41.2400
 1.0070	41.3060
 1.0080	41.3720
 1.0090	41.4380
 1.0100	41.4380
 1.0110	41.4510
 1.0120	41.4640
 1.0130	41.4770
 1.0140	41.4890
 1.0150	41.4970
 1.0160	41.5100
 1.0170	41.5230
 1.0180	41.5350
 1.0190	41.5520
 1.0200	41.5690
 1.0210	41.5820
 1.0220	41.5940
 1.0230	41.6060
 1.0240	41.6160
 1.0250	41.6280
 1.0260	41.6400
 1.0270	41.6530
 1.0280	41.6690
 1.0290	41.6810
 1.0300	41.6940
 1.0310	41.7050
 1.0320	41.7170
 1.0330	41.7220
 1.0340	41.7280
 1.0350	41.7390
 1.0360	41.7510
 1.0370	41.7610
 1.0380	41.7710
 1.0390	41.7840
 1.0400	41.7930
 1.0410	41.8000
 1.0420	41.8070
 1.0430	41.8120
 1.0440	41.8190
 1.0450	41.8270
 1.0460	41.8330
 1.0470	41.8380
 1.0480	41.8450
 1.0490	41.8520
 1.0500	41.8580
 1.0510	41.8640
 1.0520	41.8710
 1.0530	41.8760
 1.0540	41.8770
 1.0550	41.8820
 1.0560	41.8900
 1.0570	41.8920
 1.0580	41.8910
 1.0590	41.8940
 1.0600	41.8940
 1.0610	41.8970
 1.0620	41.9060
 1.0630	41.9100
 1.0640	41.9120
 1.0650	41.9130
 1.0660	41.9110
 1.0670	41.9100
 1.0680	41.9090
 1.0690	41.9060
 1.0700	41.9050
 1.0710	41.9050
 1.0720	41.9050
 1.0730	41.9040
 1.0740	41.9030
 1.0750	41.9020
 1.0760	41.9000
 1.0770	41.8960
 1.0780	41.8920
 1.0790	41.8870
 1.0800	41.8840
 1.0810	41.8850
 1.0820	41.8810
 1.0830	41.8740
 1.0840	41.8670
 1.0850	41.8550
 1.0860	41.8440
 1.0870	41.8370
 1.0880	41.8330
 1.0890	41.8270
 1.0900	41.8230
 1.0910	41.8150
 1.0920	41.8050
 1.0930	41.7960
 1.0940	41.7880
 1.0950	41.7780
 1.0960	41.7700
 1.0970	41.7600
 1.0980	41.7490
 1.0990	41.7380
 1.1000	41.7280
 1.1010	41.7170
 1.1020	41.7060
 1.1030	41.6960
 1.1040	41.6850
 1.1050	41.6740
 1.1060	41.6620
 1.1070	41.6510
 1.1080	41.6380
 1.1090	41.6230
 1.1100	41.6080
 1.1110	41.5930
 1.1120	41.5770
 1.1130	41.5610
 1.1140	41.5430
 1.1150	41.5230
 1.1160	41.5040
 1.1170	41.4860
 1.1180	41.4640
 1.1190	41.4430
 1.1200	41.4180
 1.1210	41.3910
 1.1220	41.3600
 1.1230	41.3260
 1.1240	41.2930
 1.1250	41.2550
 1.1260	41.2150
 1.1270	41.1690
 1.1280	41.1210
 1.1290	41.0670
 1.1300	41.0080
 1.1310	40.9440
 1.1320	40.8750
 1.1330	40.8000
 1.1340	40.7180
 1.1350	40.6310
 1.1360	40.5380
 1.1370	40.4390
 1.1380	40.3380
 1.1390	40.2340
 1.1400	40.1240
 1.1410	40.0130
 1.1420	39.9010
 1.1430	39.7840
 1.1440	39.6690
 1.1450	39.5530
 1.1460	39.4400
 1.1470	39.3260
 1.1480	39.2180
 1.1490	39.1120
 1.1500	39.0130
 1.1510	38.9180
 1.1520	38.8290
 1.1530	38.7440
 1.1540	38.6690
 1.1550	38.5990
 1.1560	38.5380
 1.1570	38.4830
 1.1580	38.4350
 1.1590	38.3900
 1.1600	38.3520
 1.1610	38.3200
 1.1620	38.2940
 1.1630	38.2710
 1.1640	38.2520
 1.1650	38.2350
 1.1660	38.2210
 1.1670	38.2100
 1.1680	38.2030
 1.1690	38.1950
 1.1700	38.1890
 1.1710	38.1830
 1.1720	38.1770
 1.1730	38.1710
 1.1740	38.1660
 1.1750	38.1620
 1.1760	38.1560
 1.1770	38.1500
 1.1780	38.1460
 1.1790	38.1410
 1.1800	38.1360
 1.1810	38.1300
 1.1820	38.1230
 1.1830	38.1130
 1.1840	38.1040
 1.1850	38.0950
 1.1860	38.0870
 1.1870	38.0800
 1.1880	38.0740
 1.1890	38.0690
 1.1900	38.0650
 1.1910	38.0610
 1.1920	38.0590
 1.1930	38.0570
 1.1940	38.0560
 1.1950	38.0560
 1.1960	38.0580
 1.1970	38.0590
 1.1980	38.0610
 1.1990	38.0620
 1.2000	38.0660
 1.2010	38.0730
 1.2020	38.0820
 1.2030	38.0930
 1.2040	38.1050
 1.2050	38.1150
 1.2060	38.1230
 1.2070	38.1320
 1.2080	38.1440
 1.2090	38.1570
 1.2100	38.1720
 1.2110	38.1860
 1.2120	38.2000
 1.2130	38.2140
 1.2140	38.2270
 1.2150	38.2420
 1.2160	38.2580
 1.2170	38.2740
 1.2180	38.2900
 1.2190	38.3050
 1.2200	38.3210
 1.2210	38.3360
 1.2220	38.3500
 1.2230	38.3630
 1.2240	38.3780
 1.2250	38.3940
 1.2260	38.4110
 1.2270	38.4270
 1.2280	38.4410
 1.2290	38.4540
 1.2300	38.4660
 1.2310	38.4790
 1.2320	38.4920
 1.2330	38.5040
 1.2340	38.5170
 1.2350	38.5300
 1.2360	38.5420
 1.2370	38.5520
 1.2380	38.5630
 1.2390	38.5710
 1.2400	38.5800
 1.2410	38.5890
 1.2420	38.5970
 1.2430	38.6040
 1.2440	38.6130
 1.2450	38.6210
 1.2460	38.6290
 1.2470	38.6380
 1.2480	38.6450
 1.2490	38.6500
 1.2500	38.6560
 1.2510	38.6600
 1.2520	38.6640
 1.2530	38.6690
 1.2540	38.6740
 1.2550	38.6770
 1.2560	38.6770
 1.2570	38.6780
 1.2580	38.6770
 1.2590	38.6750
 1.2600	38.6730
 1.2610	38.6710
 1.2620	38.6670
 1.2630	38.6630
 1.2640	38.6600
 1.2650	38.6570
 1.2660	38.6510
 1.2670	38.6430
 1.2680	38.6370
 1.2690	38.6280
 1.2700	38.6180
 1.2710	38.6100
 1.2720	38.6010
 1.2730	38.5910
 1.2740	38.5810
 1.2750	38.5680
 1.2760	38.5540
 1.2770	38.5410
 1.2780	38.5270
 1.2790	38.5130
 1.2800	38.4990
 1.2810	38.4820
 1.2820	38.4630
 1.2830	38.4430
 1.2840	38.4200
 1.2850	38.3940
 1.2860	38.3660
 1.2870	38.3380
 1.2880	38.3080
 1.2890	38.2790
 1.2900	38.2490
 1.2910	38.2190
 1.2920	38.1890
 1.2930	38.1550
 1.2940	38.1170
 1.2950	38.0770
 1.2960	38.0350
 1.2970	37.9920
 1.2980	37.9480
 1.2990	37.9020
 1.3000	37.8550
 1.3010	37.8050
 1.3020	37.7520
 1.3030	37.6980
 1.3040	37.6420
 1.3050	37.5860
 1.3060	37.5250
 1.3070	37.4630
 1.3080	37.3970
 1.3090	37.3270
 1.3100	37.2560
 1.3110	37.1830
 1.3120	37.1100
 1.3130	37.0340
 1.3140	36.9550
 1.3150	36.8740
 1.3160	36.7910
 1.3170	36.7060
 1.3180	36.6180
 1.3190	36.5270
 1.3200	36.4350
 1.3210	36.3370
 1.3220	36.2360
 1.3230	36.1330
 1.3240	36.0260
 1.3250	35.9200
 1.3260	35.8140
 1.3270	35.7040
 1.3280	35.5930
 1.3290	35.4790
 1.3300	35.3630
 1.3310	35.2450
 1.3320	35.1250
 1.3330	35.0060
 1.3340	34.8870
 1.3350	34.7660
 1.3360	34.6470
 1.3370	34.5250
 1.3380	34.4030
 1.3390	34.2810
 1.3400	34.1580
 1.3410	34.0370
 1.3420	33.9180
 1.3430	33.7990
 1.3440	33.6820
 1.3450	33.5640
 1.3460	33.4450
 1.3470	33.3290
 1.3480	33.2130
 1.3490	33.0980
 1.3500	32.9850
 1.3510	32.8730
 1.3520	32.7590
 1.3530	32.6460
 1.3540	32.5320
 1.3550	32.4170
 1.3560	32.3030
 1.3570	32.1880
 1.3580	32.0730
 1.3590	31.9570
 1.3600	31.8390
 1.3610	31.7190
 1.3620	31.5930
 1.3630	31.4620
 1.3640	31.3240
 1.3650	31.1790
 1.3660	31.0310
 1.3670	30.8740
 1.3680	30.7080
 1.3690	30.5320
 1.3700	30.3420
 1.3710	30.1410
 1.3720	29.9270
 1.3730	29.6960
 1.3740	29.4540
 1.3750	29.1930
 1.3760	28.9140
 1.3770	28.6190
 1.3780	28.3000
 1.3790	27.9630
 1.3800	27.6060
 1.3810	27.2250
 1.3820	26.8310
 1.3830	26.4190
 1.3840	25.9910
 1.3850	25.5460
 1.3860	25.0890
 1.3870	24.6130
 1.3880	24.1330
 1.3890	23.6420
 1.3900	23.1410
 1.3910	22.6410
 1.3920	22.1350
 1.3930	21.6270
 1.3940	21.1230
 1.3950	20.6170
 1.3960	20.1190
 1.3970	19.6310
 1.3980	19.1520
 1.3990	18.6910
 1.4000	18.2430
 1.4010	17.8080
 1.4020	17.3930
 1.4030	16.9920
 1.4040	16.6100
 1.4050	16.2480
 1.4060	15.9060
 1.4070	15.5850
 1.4080	15.2820
 1.4090	14.9970
 1.4100	14.7330
 1.4110	14.4850
 1.4120	14.2560
 1.4130	14.0450
 1.4140	13.8490
 1.4150	13.6700
 1.4160	13.5060
 1.4170	13.3550
 1.4180	13.2180
 1.4190	13.0920
 1.4200	12.9780
 1.4210	12.8750
 1.4220	12.7800
 1.4230	12.6960
 1.4240	12.6210
 1.4250	12.5530
 1.4260	12.4950
 1.4270	12.4410
 1.4280	12.3940
 1.4290	12.3520
 1.4300	12.3160
 1.4310	12.2860
 1.4320	12.2630
 1.4330	12.2420
 1.4340	12.2260
 1.4350	12.2140
 1.4360	12.2060
 1.4370	12.2010
 1.4380	12.2000
 1.4390	12.2030
 1.4400	12.2070
 1.4410	12.2130
 1.4420	12.2220
 1.4430	12.2320
 1.4440	12.2450
 1.4450	12.2600
 1.4460	12.2760
 1.4470	12.2950
 1.4480	12.3130
 1.4490	12.3320
 1.4500	12.3520
 1.4510	12.3730
 1.4520	12.3960
 1.4530	12.4200
 1.4540	12.4450
 1.4550	12.4720
 1.4560	12.5000
 1.4570	12.5310
 1.4580	12.5630
 1.4590	12.5980
 1.4600	12.6360
 1.4610	12.6760
 1.4620	12.7210
 1.4630	12.7710
 1.4640	12.8230
 1.4650	12.8790
 1.4660	12.9390
 1.4670	13.0020
 1.4680	13.0700
 1.4690	13.1420
 1.4700	13.2170
 1.4710	13.2980
 1.4720	13.3810
 1.4730	13.4670
 1.4740	13.5580
 1.4750	13.6500
 1.4760	13.7440
 1.4770	13.8400
 1.4780	13.9390
 1.4790	14.0400
 1.4800	14.1410
 1.4810	14.2440
 1.4820	14.3480
 1.4830	14.4520
 1.4840	14.5590
 1.4850	14.6670
 1.4860	14.7750
 1.4870	14.8850
 1.4880	14.9930
 1.4890	15.1020
 1.4900	15.2110
 1.4910	15.3210
 1.4920	15.4310
 1.4930	15.5420
 1.4940	15.6520
 1.4950	15.7630
 1.4960	15.8730
 1.4970	15.9820
 1.4980	16.0930
 1.4990	16.2060
 1.5000	16.3170
 1.5010	16.4280
 1.5020	16.5390
 1.5030	16.6500
 1.5040	16.7590
 1.5050	16.8670
 1.5060	16.9760
 1.5070	17.0850
 1.5080	17.1940
 1.5090	17.3020
 1.5100	17.4110
 1.5110	17.5180
 1.5120	17.6250
 1.5130	17.7310
 1.5140	17.8370
 1.5150	17.9420
 1.5160	18.0460
 1.5170	18.1500
 1.5180	18.2530
 1.5190	18.3570
 1.5200	18.4590
 1.5210	18.5590
 1.5220	18.6600
 1.5230	18.7590
 1.5240	18.8590
 1.5250	18.9590
 1.5260	19.0570
 1.5270	19.1550
 1.5280	19.2520
 1.5290	19.3470
 1.5300	19.4410
 1.5310	19.5350
 1.5320	19.6270
 1.5330	19.7200
 1.5340	19.8110
 1.5350	19.9020
 1.5360	19.9930
 1.5370	20.0810
 1.5380	20.1680
 1.5390	20.2560
 1.5400	20.3400
 1.5410	20.4260
 1.5420	20.5120
 1.5430	20.5970
 1.5440	20.6810
 1.5450	20.7630
 1.5460	20.8460
 1.5470	20.9270
 1.5480	21.0080
 1.5490	21.0880
 1.5500	21.1670
 1.5510	21.2440
 1.5520	21.3220
 1.5530	21.3980
 1.5540	21.4730
 1.5550	21.5470
 1.5560	21.6200
 1.5570	21.6930
 1.5580	21.7640
 1.5590	21.8350
 1.5600	21.9060
 1.5610	21.9770
 1.5620	22.0460
 1.5630	22.1140
 1.5640	22.1790
 1.5650	22.2430
 1.5660	22.3060
 1.5670	22.3690
 1.5680	22.4340
 1.5690	22.4970
 1.5700	22.5600
 1.5710	22.6230
 1.5720	22.6840
 1.5730	22.7440
 1.5740	22.8050
 1.5750	22.8650
 1.5760	22.9240
 1.5770	22.9820
 1.5780	23.0390
 1.5790	23.0960
 1.5800	23.1530
 1.5810	23.2100
 1.5820	23.2660
 1.5830	23.3210
 1.5840	23.3760
 1.5850	23.4290
 1.5860	23.4840
 1.5870	23.5390
 1.5880	23.5930
 1.5890	23.6460
 1.5900	23.6980
 1.5910	23.7500
 1.5920	23.8020
 1.5930	23.8530
 1.5940	23.9020
 1.5950	23.9500
 1.5960	23.9980
 1.5970	24.0460
 1.5980	24.0940
 1.5990	24.1430
 1.6000	24.1900
 1.6010	24.2360
 1.6020	24.2820
 1.6030	24.3260
 1.6040	24.3700
 1.6050	24.4140
 1.6060	24.4580
 1.6070	24.5000
 1.6080	24.5430
 1.6090	24.5830
 1.6100	24.6220
 1.6110	24.6610
 1.6120	24.6990
 1.6130	24.7370
 1.6140	24.7750
 1.6150	24.8120
 1.6160	24.8490
 1.6170	24.8850
 1.6180	24.9190
 1.6190	24.9540
 1.6200	24.9880
 1.6210	25.0200
 1.6220	25.0530
 1.6230	25.0870
 1.6240	25.1190
 1.6250	25.1500
 1.6260	25.1820
 1.6270	25.2120
 1.6280	25.2390
 1.6290	25.2670
 1.6300	25.2930
 1.6310	25.3190
 1.6320	25.3470
 1.6330	25.3710
 1.6340	25.3930
 1.6350	25.4140
 1.6360	25.4340
 1.6370	25.4530
 1.6380	25.4720
 1.6390	25.4890
 1.6400	25.5040
 1.6410	25.5170
 1.6420	25.5290
 1.6430	25.5390
 1.6440	25.5450
 1.6450	25.5510
 1.6460	25.5540
 1.6470	25.5550
 1.6480	25.5550
 1.6490	25.5540
 1.6500	25.5520
 1.6510	25.5500
 1.6520	25.5470
 1.6530	25.5400
 1.6540	25.5320
 1.6550	25.5230
 1.6560	25.5130
 1.6570	25.5050
 1.6580	25.4970
 1.6590	25.4900
 1.6600	25.4850
 1.6610	25.4800
 1.6620	25.4750
 1.6630	25.4730
 1.6640	25.4710
 1.6650	25.4690
 1.6660	25.4690
 1.6670	25.4670
 1.6680	25.4680
 1.6690	25.4690
 1.6700	25.4710
 1.6710	25.4730
 1.6720	25.4730
 1.6730	25.4720
 1.6740	25.4700
 1.6750	25.4680
 1.6760	25.4650
 1.6770	25.4620
 1.6780	25.4570
 1.6790	25.4490
 1.6800	25.4410
 1.6810	25.4310
 1.6820	25.4190
 1.6830	25.4060
 1.6840	25.3890
 1.6850	25.3700
 1.6860	25.3500
 1.6870	25.3290
 1.6880	25.3080
 1.6890	25.2840
 1.6900	25.2600
 1.6910	25.2350
 1.6920	25.2100
 1.6930	25.1850
 1.6940	25.1590
 1.6950	25.1340
 1.6960	25.1070
 1.6970	25.0760
 1.6980	25.0480
 1.6990	25.0200
 1.7000	24.9910
 1.7010	24.9620
 1.7020	24.9310
 1.7030	24.8970
 1.7040	24.8630
 1.7050	24.8300
 1.7060	24.7950
 1.7070	24.7570
 1.7080	24.7210
 1.7090	24.6850
 1.7100	24.6480
 1.7110	24.6120
 1.7120	24.5720
 1.7130	24.5320
 1.7140	24.4910
 1.7150	24.4480
 1.7160	24.4040
 1.7170	24.3610
 1.7180	24.3160
 1.7190	24.2690
 1.7200	24.2230
 1.7210	24.1770
 1.7220	24.1300
 1.7230	24.0830
 1.7240	24.0360
 1.7250	23.9880
 1.7260	23.9400
 1.7270	23.8910
 1.7280	23.8410
 1.7290	23.7910
 1.7300	23.7440
 1.7310	23.6960
 1.7320	23.6480
 1.7330	23.6010
 1.7340	23.5550
 1.7350	23.5070
 1.7360	23.4600
 1.7370	23.4130
 1.7380	23.3640
 1.7390	23.3170
 1.7400	23.2730
 1.7410	23.2270
 1.7420	23.1810
 1.7430	23.1340
 1.7440	23.0860
 1.7450	23.0370
 1.7460	22.9880
 1.7470	22.9410
 1.7480	22.8940
 1.7490	22.8460
 1.7500	22.8010
 1.7510	22.7530
 1.7520	22.7010
 1.7530	22.6510
 1.7540	22.6010
 1.7550	22.5510
 1.7560	22.5030
 1.7570	22.4540
 1.7580	22.4030
 1.7590	22.3530
 1.7600	22.3050
 1.7610	22.2580
 1.7620	22.2110
 1.7630	22.1670
 1.7640	22.1210
 1.7650	22.0750
 1.7660	22.0290
 1.7670	21.9830
 1.7680	21.9390
 1.7690	21.8980
 1.7700	21.8570
 1.7710	21.8170
 1.7720	21.7770
 1.7730	21.7360
 1.7740	21.6980
 1.7750	21.6640
 1.7760	21.6280
 1.7770	21.5930
 1.7780	21.5600
 1.7790	21.5260
 1.7800	21.4940
 1.7810	21.4650
 1.7820	21.4370
 1.7830	21.4090
 1.7840	21.3830
 1.7850	21.3610
 1.7860	21.3390
 1.7870	21.3170
 1.7880	21.2960
 1.7890	21.2790
 1.7900	21.2660
 1.7910	21.2530
 1.7920	21.2400
 1.7930	21.2280
 1.7940	21.2150
 1.7950	21.2050
 1.7960	21.1970
 1.7970	21.1890
 1.7980	21.1840
 1.7990	21.1780
 1.8000	21.1710
 1.8010	21.1650
 1.8020	21.1600
 1.8030	21.1560
 1.8040	21.1540
 1.8050	21.1520
 1.8060	21.1510
 1.8070	21.1480
 1.8080	21.1430
 1.8090	21.1410
 1.8100	21.1390
 1.8110	21.1380
 1.8120	21.1380
 1.8130	21.1340
 1.8140	21.1310
 1.8150	21.1250
 1.8160	21.1180
 1.8170	21.1120
 1.8180	21.1060
 1.8190	21.1000
 1.8200	21.0940
 1.8210	21.0850
 1.8220	21.0760
 1.8230	21.0650
 1.8240	21.0530
 1.8250	21.0400
 1.8260	21.0260
 1.8270	20.9140
 1.8280	20.8020
 1.8290	20.6900
 1.8300	20.5780
 1.8310	20.4660
 1.8320	20.3530
 1.8330	20.2410
 1.8340	20.1290
 1.8350	20.1290
 1.8360	20.0890
 1.8370	20.0480
 1.8380	20.0010
 1.8390	19.9520
 1.8400	19.9030
 1.8410	19.8450
 1.8420	19.7830
 1.8430	19.7150
 1.8440	19.6410
 1.8450	19.5590
 1.8460	19.4710
 1.8470	19.3800
 1.8480	19.2800
 1.8490	19.1690
 1.8500	19.0500
 1.8510	18.9230
 1.8520	18.7850
 1.8530	18.6360
 1.8540	18.4840
 1.8550	18.3180
 1.8560	18.1420
 1.8570	17.9570
 1.8580	17.7570
 1.8590	17.5450
 1.8600	17.3220
 1.8610	17.0860
 1.8620	16.8350
 1.8630	16.5730
 1.8640	16.2980
 1.8650	16.0060
 1.8660	15.6980
 1.8670	15.3720
 1.8680	15.0320
 1.8690	14.6800
 1.8700	14.3140
 1.8710	13.9350
 1.8720	13.5490
 1.8730	13.1500
 1.8740	12.7430
 1.8750	12.3300
 1.8760	11.9070
 1.8770	11.4840
 1.8780	11.0610
 1.8790	10.6360
 1.8800	10.2220
 1.8810	 9.8130
 1.8820	 9.4070
 1.8830	 9.0060
 1.8840	 8.6160
 1.8850	 8.2300
 1.8860	 7.8560
 1.8870	 7.4950
 1.8880	 7.1460
 1.8890	 6.8140
 1.8900	 6.5000
 1.8910	 6.2060
 1.8920	 5.9290
 1.8930	 5.6720
 1.8940	 5.4340
 1.8950	 5.2150
 1.8960	 5.0120
 1.8970	 4.8250
 1.8980	 4.6540
 1.8990	 4.4980
 1.9000	 4.3580
 1.9010	 4.2340
 1.9020	 4.1220
 1.9030	 4.0270
 1.9040	 3.9400
 1.9050	 3.8630
 1.9060	 3.7990
 1.9070	 3.7400
 1.9080	 3.6890
 1.9090	 3.6450
 1.9100	 3.6020
 1.9110	 3.5650
 1.9120	 3.5360
 1.9130	 3.5090
 1.9140	 3.4860
 1.9150	 3.4690
 1.9160	 3.4530
 1.9170	 3.4380
 1.9180	 3.4240
 1.9190	 3.4120
 1.9200	 3.4040
 1.9210	 3.3990
 1.9220	 3.3950
 1.9230	 3.3950
 1.9240	 3.3950
 1.9250	 3.3940
 1.9260	 3.3970
 1.9270	 3.4000
 1.9280	 3.4010
 1.9290	 3.4060
 1.9300	 3.4110
 1.9310	 3.4160
 1.9320	 3.4250
 1.9330	 3.4340
 1.9340	 3.4460
 1.9350	 3.4590
 1.9360	 3.4730
 1.9370	 3.4870
 1.9380	 3.5000
 1.9390	 3.5120
 1.9400	 3.5240
 1.9410	 3.5400
 1.9420	 3.5560
 1.9430	 3.5730
 1.9440	 3.5900
 1.9450	 3.6080
 1.9460	 3.6270
 1.9470	 3.6450
 1.9480	 3.6650
 1.9490	 3.6860
 1.9500	 3.7080
 1.9510	 3.7310
 1.9520	 3.7540
 1.9530	 3.7780
 1.9540	 3.8040
 1.9550	 3.8290
 1.9560	 3.8520
 1.9570	 3.8790
 1.9580	 3.9070
 1.9590	 3.9350
 1.9600	 3.9640
 1.9610	 3.9940
 1.9620	 4.0250
 1.9630	 4.0540
 1.9640	 4.0820
 1.9650	 4.1160
 1.9660	 4.1490
 1.9670	 4.1820
 1.9680	 4.2170
 1.9690	 4.2540
 1.9700	 4.2910
 1.9710	 4.3280
 1.9720	 4.3650
 1.9730	 4.4010
 1.9740	 4.4390
 1.9750	 4.4790
 1.9760	 4.5200
 1.9770	 4.5600
 1.9780	 4.6020
 1.9790	 4.6440
 1.9800	 4.6850
 1.9810	 4.7300
 1.9820	 4.7780
 1.9830	 4.8230
 1.9840	 4.8710
 1.9850	 4.9160
 1.9860	 4.9590
 1.9870	 5.0050
 1.9880	 5.0510
 1.9890	 5.0980
 1.9900	 5.1470
 1.9910	 5.1960
 1.9920	 5.2450
 1.9930	 5.2960
 1.9940	 5.3480
 1.9950	 5.4020
 1.9960	 5.4540
 1.9970	 5.5050
 1.9980	 5.5560
 1.9990	 5.6060
 2.0000	 5.6560
 2.0010	 5.7060
 2.0020	 5.7570
 2.0030	 5.8070
 2.0040	 5.8610
 2.0050	 5.9140
 2.0060	 5.9690
 2.0070	 6.0220
 2.0080	 6.0760
 2.0090	 6.1280
 2.0100	 6.1780
 2.0110	 6.2290
 2.0120	 6.2800
 2.0130	 6.3280
 2.0140	 6.3770
 2.0150	 6.4280
 2.0160	 6.4780
 2.0170	 6.5300
 2.0180	 6.5800
 2.0190	 6.6300
 2.0200	 6.6790
 2.0210	 6.7270
 2.0220	 6.7750
 2.0230	 6.8250
 2.0240	 6.8720
 2.0250	 6.9190
 2.0260	 6.9640
 2.0270	 7.0050
 2.0280	 7.0490
 2.0290	 7.0920
 2.0300	 7.1370
 2.0310	 7.1810
 2.0320	 7.2280
 2.0330	 7.2690
 2.0340	 7.3060
 2.0350	 7.3450
 2.0360	 7.3800
 2.0370	 7.4170
 2.0380	 7.4550
 2.0390	 7.4920
 2.0400	 7.5290
 2.0410	 7.5640
 2.0420	 7.5970
 2.0430	 7.6300
 2.0440	 7.6640
 2.0450	 7.6960
 2.0460	 7.7310
 2.0470	 7.7680
 2.0480	 7.8020
 2.0490	 7.8330
 2.0500	 7.8670
 2.0510	 7.9010
 2.0520	 7.9340
 2.0530	 7.9700
 2.0540	 8.0050
 2.0550	 8.0380
 2.0560	 8.0690
 2.0570	 8.1040
 2.0580	 8.1380
 2.0590	 8.1710
 2.0600	 8.2050
 2.0610	 8.2380
 2.0620	 8.2700
 2.0630	 8.3030
 2.0640	 8.3370
 2.0650	 8.3710
 2.0660	 8.4060
 2.0670	 8.4410
 2.0680	 8.4790
 2.0690	 8.5140
 2.0700	 8.5480
 2.0710	 8.5810
 2.0720	 8.6120
 2.0730	 8.6420
 2.0740	 8.6730
 2.0750	 8.7060
 2.0760	 8.7360
 2.0770	 8.7670
 2.0780	 8.7960
 2.0790	 8.8240
 2.0800	 8.8530
 2.0810	 8.8830
 2.0820	 8.9130
 2.0830	 8.9430
 2.0840	 8.9740
 2.0850	 9.0070
 2.0860	 9.0370
 2.0870	 9.0670
 2.0880	 9.0970
 2.0890	 9.1250
 2.0900	 9.1490
 2.0910	 9.1760
 2.0920	 9.2020
 2.0930	 9.2290
 2.0940	 9.2580
 2.0950	 9.2860
 2.0960	 9.3160
 2.0970	 9.3430
 2.0980	 9.3710
 2.0990	 9.3960
 2.1000	 9.4180
 2.1010	 9.4410
 2.1020	 9.4620
 2.1030	 9.4860
 2.1040	 9.5130
 2.1050	 9.5420
 2.1060	 9.5680
 2.1070	 9.5940
 2.1080	 9.6180
 2.1090	 9.6380
 2.1100	 9.6610
 2.1110	 9.6870
 2.1120	 9.7110
 2.1130	 9.7360
 2.1140	 9.7580
 2.1150	 9.7780
 2.1160	 9.7980
 2.1170	 9.8170
 2.1180	 9.8360
 2.1190	 9.8550
 2.1200	 9.8740
 2.1210	 9.8970
 2.1220	 9.9160
 2.1230	 9.9360
 2.1240	 9.9560
 2.1250	 9.9750
 2.1260	 9.9900
 2.1270	10.0090
 2.1280	10.0280
 2.1290	10.0470
 2.1300	10.0660
 2.1310	10.0830
 2.1320	10.0960
 2.1330	10.1120
 2.1340	10.1290
 2.1350	10.1450
 2.1360	10.1620
 2.1370	10.1800
 2.1380	10.1970
 2.1390	10.2140
 2.1400	10.2300
 2.1410	10.2470
 2.1420	10.2640
 2.1430	10.2790
 2.1440	10.2980
 2.1450	10.3180
 2.1460	10.3390
 2.1470	10.3620
 2.1480	10.3830
 2.1490	10.4030
 2.1500	10.4230
 2.1510	10.4410
 2.1520	10.4610
 2.1530	10.4810
 2.1540	10.5010
 2.1550	10.5220
 2.1560	10.5420
 2.1570	10.5600
 2.1580	10.5790
 2.1590	10.5970
 2.1600	10.6150
 2.1610	10.6360
 2.1620	10.6550
 2.1630	10.6710
 2.1640	10.6850
 2.1650	10.7000
 2.1660	10.7120
 2.1670	10.7290
 2.1680	10.7510
 2.1690	10.7700
 2.1700	10.7910
 2.1710	10.8090
 2.1720	10.8230
 2.1730	10.8410
 2.1740	10.8620
 2.1750	10.8810
 2.1760	10.9040
 2.1770	10.9250
 2.1780	10.9440
 2.1790	10.9630
 2.1800	10.9780
 2.1810	10.9970
 2.1820	11.0170
 2.1830	11.0380
 2.1840	11.0570
 2.1850	11.0790
 2.1860	11.0990
 2.1870	11.1150
 2.1880	11.1360
 2.1890	11.1600
 2.1900	11.1820
 2.1910	11.2050
 2.1920	11.2270
 2.1930	11.2470
 2.1940	11.2680
 2.1950	11.2880
 2.1960	11.3090
 2.1970	11.3310
 2.1980	11.3520
 2.1990	11.3750
 2.2000	11.3940
 2.2010	11.4120
 2.2020	11.4300
 2.2030	11.4460
 2.2040	11.4630
 2.2050	11.4810
 2.2060	11.5000
 2.2070	11.5160
 2.2080	11.5320
 2.2090	11.5460
 2.2100	11.5570
 2.2110	11.5710
 2.2120	11.5870
 2.2130	11.6000
 2.2140	11.6130
 2.2150	11.6240
 2.2160	11.6340
 2.2170	11.6420
 2.2180	11.6510
 2.2190	11.6570
 2.2200	11.6630
 2.2210	11.6670
 2.2220	11.6670
 2.2230	11.6680
 2.2240	11.6670
 2.2250	11.6650
 2.2260	11.6670
 2.2270	11.6620
 2.2280	11.6540
 2.2290	11.6440
 2.2300	11.6320
 2.2310	11.6150
 2.2320	11.6020
 2.2330	11.5830
 2.2340	11.5660
 2.2350	11.5480
 2.2360	11.5290
 2.2370	11.5100
 2.2380	11.4870
 2.2390	11.4610
 2.2400	11.4350
 2.2410	11.4090
 2.2420	11.3790
 2.2430	11.3470
 2.2440	11.3140
 2.2450	11.2770
 2.2460	11.2410
 2.2470	11.2090
 2.2480	11.1700
 2.2490	11.1270
 2.2500	11.0870
 2.2510	11.0440
 2.2520	11.0040
 2.2530	10.9650
 2.2540	10.9260
 2.2550	10.8870
 2.2560	10.8470
 2.2570	10.8070
 2.2580	10.7670
 2.2590	10.7260
 2.2600	10.6850
 2.2610	10.6440
 2.2620	10.5990
 2.2630	10.5560
 2.2640	10.5140
 2.2650	10.4700
 2.2660	10.4290
 2.2670	10.3890
 2.2680	10.3490
 2.2690	10.3120
 2.2700	10.2790
 2.2710	10.2430
 2.2720	10.2090
 2.2730	10.1740
 2.2740	10.1390
 2.2750	10.1040
 2.2760	10.0710
 2.2770	10.0330
 2.2780	 9.9910
 2.2790	 9.9530
 2.2800	 9.9140
 2.2810	 9.8800
 2.2820	 9.8520
 2.2830	 9.8220
 2.2840	 9.7940
 2.2850	 9.7650
 2.2860	 9.7380
 2.2870	 9.7080
 2.2880	 9.6780
 2.2890	 9.6460
 2.2900	 9.6120
 2.2910	 9.5770
 2.2920	 9.5390
 2.2930	 9.5060
 2.2940	 9.4760
 2.2950	 9.4450
 2.2960	 9.4200
 2.2970	 9.3890
 2.2980	 9.3540
 2.2990	 9.3160
 2.3000	 9.2740
 2.3010	 9.2310
 2.3020	 9.1950
 2.3030	 9.1610
 2.3040	 9.1280
 2.3050	 9.0990
 2.3060	 9.0620
 2.3070	 9.0260
 2.3080	 8.9940
 2.3090	 8.9620
 2.3100	 8.9360
 2.3110	 8.9110
 2.3120	 8.8840
 2.3130	 8.8580
 2.3140	 8.8300
 2.3150	 8.7970
 2.3160	 8.7700
 2.3170	 8.7450
 2.3180	 8.7190
 2.3190	 8.6950
 2.3200	 8.6660
 2.3210	 8.6340
 2.3220	 8.6020
 2.3230	 8.5670
 2.3240	 8.5340
 2.3250	 8.5010
 2.3260	 8.4680
 2.3270	 8.4380
 2.3280	 8.4040
 2.3290	 8.3710
 2.3300	 8.3350
 2.3310	 8.2940
 2.3320	 8.2570
 2.3330	 8.2190
 2.3340	 8.1810
 2.3350	 8.1470
 2.3360	 8.1090
 2.3370	 8.0680
 2.3380	 8.0300
 2.3390	 7.9910
 2.3400	 7.9530
 2.3410	 7.9160
 2.3420	 7.8830
 2.3430	 7.8510
 2.3440	 7.8220
 2.3450	 7.8040
 2.3460	 7.7730
 2.3470	 7.7370
 2.3480	 7.7020
 2.3490	 7.6540
 2.3500	 7.6180
 2.3510	 7.5910
 2.3520	 7.5610
 2.3530	 7.5340
 2.3540	 7.5070
 2.3550	 7.4790
 2.3560	 7.4460
 2.3570	 7.4100
 2.3580	 7.3810
 2.3590	 7.3520
 2.3600	 7.3230
 2.3610	 7.2970
 2.3620	 7.2640
 2.3630	 7.2280
 2.3640	 7.1980
 2.3650	 7.1670
 2.3660	 7.1440
 2.3670	 7.1240
 2.3680	 7.0890
 2.3690	 7.0520
 2.3700	 7.0140
 2.3710	 6.9740
 2.3720	 6.9490
 2.3730	 6.9240
 2.3740	 6.8900
 2.3750	 6.8520
 2.3760	 6.8080
 2.3770	 6.7720
 2.3780	 6.7410
 2.3790	 6.7050
 2.3800	 6.6730
 2.3810	 6.6440
 2.3820	 6.6140
 2.3830	 6.5900
 2.3840	 6.5620
 2.3850	 6.5270
 2.3860	 6.4970
 2.3870	 6.4550
 2.3880	 6.4180
 2.3890	 6.3870
 2.3900	 6.3410
 2.3910	 6.3070
 2.3920	 6.2810
 2.3930	 6.2440
 2.3940	 6.2140
 2.3950	 6.1900
 2.3960	 6.1570
 2.3970	 6.1160
 2.3980	 6.0800
 2.3990	 6.0400
 2.4000	 6.0030
 2.4010	 5.9760
 2.4020	 5.9440
 2.4030	 5.9100
 2.4040	 5.8780
 2.4050	 5.8530
 2.4060	 5.8240
 2.4070	 5.7830
 2.4080	 5.7470
 2.4090	 5.7050
 2.4100	 5.6610
 2.4110	 5.6270
 2.4120	 5.5830
 2.4130	 5.5420
 2.4140	 5.4990
 2.4150	 5.4610
 2.4160	 5.4330
 2.4170	 5.3990
 2.4180	 5.3730
 2.4190	 5.3460
 2.4200	 5.3220
 2.4210	 5.3070
 2.4220	 5.2730
 2.4230	 5.2300
 2.4240	 5.1930
 2.4250	 5.1430
 2.4260	 5.1020
 2.4270	 5.0780
 2.4280	 5.0460
 2.4290	 5.0140
 2.4300	 4.9930
 2.4310	 4.9730
 2.4320	 4.9490
 2.4330	 4.9190
 2.4340	 4.8790
 2.4350	 4.8350
 2.4360	 4.7920
 2.4370	 4.7620
 2.4380	 4.7500
 2.4390	 4.7300
 2.4400	 4.6940
 2.4410	 4.6520
 2.4420	 4.6040
 2.4430	 4.5560
 2.4440	 4.5190
 2.4450	 4.4930
 2.4460	 4.4690
 2.4470	 4.4420
 2.4480	 4.4130
 2.4490	 4.3990
 2.4500	 4.3680
 2.4510	 4.3260
 2.4520	 4.3080
 2.4530	 4.2710
 2.4540	 4.2330
 2.4550	 4.2180
 2.4560	 4.1810
 2.4570	 4.1350
 2.4580	 4.1030
 2.4590	 4.0810
 2.4600	 4.0640
 2.4610	 4.0600
 2.4620	 4.0640
 2.4630	 4.0560
 2.4640	 4.0450
 2.4650	 4.0350
 2.4660	 4.0170
 2.4670	 4.0020
 2.4680	 3.9800
 2.4690	 3.9580
 2.4700	 3.9330
 2.4710	 3.8990
 2.4720	 3.8670
 2.4730	 3.8310
 2.4740	 3.8090
 2.4750	 3.7900
 2.4760	 3.7730
 2.4770	 3.7740
 2.4780	 3.7590
 2.4790	 3.7450
 2.4800	 3.7280
 2.4810	 3.7040
 2.4820	 3.6890
 2.4830	 3.6640
 2.4840	 3.6530
 2.4850	 3.6510
 2.4860	 3.6630
 2.4870	 3.6470
 2.4880	 3.6200
 2.4890	 3.6180
 2.4900	 3.5770
 2.4910	 3.5500
 2.4920	 3.5570
 2.4930	 3.5470
 2.4940	 3.5340
 2.4950	 3.5370
 2.4960	 3.5460
 2.4970	 3.5170
 2.4980	 3.5120
 2.4990	 3.5290
 2.5000	 3.5240
