Name: Pyllostachys vivax
Type: vegetation
Class: Tree
Genus: Pyllostachys
Species: vivax
Sample No.: JPL191
Owner: JPL
Wavelength Range: TIR
Origin: 34.12505; -118.11546; WGS84
Collection Date: 10/3/2016
Description: Samples were collected at the Huntington Garden in San Marino California as part of a JPL Subcontract studying HyTES imagery. Samples were taken to JPL and processed within 48 hours of collection. The same leaves were processed in the Nicolet and then measured using the ASD.
Measurement: Hemispherical reflectance
First Column: X
Second Column: Y
X Units: Wavelength (micrometer)
Y Units: Reflectance (percentage)
First X Value: 2.501
Last X Value: 15.387
Number of X Values: 1737
Additional Information: vegetation.tree.pyllostachys.vivax.tir.jpl191.jpl.nicolet.ancillary.txt

 2.5010	 8.7320
 2.5030	 8.6570
 2.5040	 8.6280
 2.5050	 8.6250
 2.5060	 8.6440
 2.5070	 8.5470
 2.5090	 8.5700
 2.5100	 8.5760
 2.5110	 8.5740
 2.5120	 8.5620
 2.5140	 8.5310
 2.5150	 8.4750
 2.5160	 8.4740
 2.5170	 8.4250
 2.5180	 8.4870
 2.5200	 8.4590
 2.5210	 8.4020
 2.5220	 8.3990
 2.5230	 8.4220
 2.5250	 8.3840
 2.5260	 8.4260
 2.5270	 8.4110
 2.5280	 8.3840
 2.5300	 8.3940
 2.5310	 8.4920
 2.5320	 8.4670
 2.5330	 8.4570
 2.5340	 8.4210
 2.5360	 8.4130
 2.5370	 8.3950
 2.5380	 8.3910
 2.5390	 8.4380
 2.5410	 8.4740
 2.5420	 8.4000
 2.5430	 8.4500
 2.5440	 8.4390
 2.5460	 8.4730
 2.5470	 8.4620
 2.5480	 8.4340
 2.5490	 8.4200
 2.5510	 8.4790
 2.5520	 8.4630
 2.5530	 8.4720
 2.5540	 8.5290
 2.5560	 8.6420
 2.5570	 8.6170
 2.5580	 8.5890
 2.5590	 8.5450
 2.5610	 8.5320
 2.5620	 8.5510
 2.5630	 8.6010
 2.5650	 8.6040
 2.5660	 8.5800
 2.5670	 8.5530
 2.5680	 8.6060
 2.5700	 8.5500
 2.5710	 8.5820
 2.5720	 8.6370
 2.5730	 8.5880
 2.5750	 8.5690
 2.5760	 8.5780
 2.5770	 8.5030
 2.5790	 8.5500
 2.5800	 8.5760
 2.5810	 8.5260
 2.5820	 8.4390
 2.5840	 8.3720
 2.5850	 8.3810
 2.5860	 8.4900
 2.5880	 8.4120
 2.5890	 8.3660
 2.5900	 8.3320
 2.5910	 8.3180
 2.5930	 8.2410
 2.5940	 8.1830
 2.5950	 8.0960
 2.5970	 8.1610
 2.5980	 8.1510
 2.5990	 8.1680
 2.6010	 8.1400
 2.6020	 8.0160
 2.6030	 7.9310
 2.6040	 7.9290
 2.6060	 7.8060
 2.6070	 7.7990
 2.6080	 7.7630
 2.6100	 7.6990
 2.6110	 7.6700
 2.6120	 7.5570
 2.6140	 7.4270
 2.6150	 7.4440
 2.6160	 7.3240
 2.6180	 7.1800
 2.6190	 7.1900
 2.6200	 7.1790
 2.6220	 7.0750
 2.6230	 7.0820
 2.6240	 7.0330
 2.6260	 6.9280
 2.6270	 6.7450
 2.6280	 6.7310
 2.6300	 6.6680
 2.6310	 6.5810
 2.6320	 6.4920
 2.6340	 6.4200
 2.6350	 6.3710
 2.6360	 6.3330
 2.6380	 6.2500
 2.6390	 6.2300
 2.6400	 6.1060
 2.6420	 6.0000
 2.6430	 5.9910
 2.6440	 5.9290
 2.6460	 5.7450
 2.6470	 5.6340
 2.6480	 5.5560
 2.6500	 5.5350
 2.6510	 5.4890
 2.6520	 5.3910
 2.6540	 5.2920
 2.6550	 5.2980
 2.6570	 5.2200
 2.6580	 5.1410
 2.6590	 4.9680
 2.6610	 4.8750
 2.6620	 4.7760
 2.6630	 4.7480
 2.6650	 4.6330
 2.6660	 4.5640
 2.6670	 4.5280
 2.6690	 4.5050
 2.6700	 4.3310
 2.6720	 4.2590
 2.6730	 4.2890
 2.6740	 4.3140
 2.6760	 4.2240
 2.6770	 4.0990
 2.6780	 4.0140
 2.6800	 3.9860
 2.6810	 3.9220
 2.6830	 3.9270
 2.6840	 3.8580
 2.6850	 3.8090
 2.6870	 3.7320
 2.6880	 3.7290
 2.6900	 3.6830
 2.6910	 3.6400
 2.6920	 3.5460
 2.6940	 3.4940
 2.6950	 3.4740
 2.6970	 3.5110
 2.6980	 3.5120
 2.6990	 3.5270
 2.7010	 3.4440
 2.7020	 3.4510
 2.7040	 3.4270
 2.7050	 3.3860
 2.7060	 3.3440
 2.7080	 3.3890
 2.7090	 3.3640
 2.7110	 3.3110
 2.7120	 3.2600
 2.7130	 3.3020
 2.7150	 3.2710
 2.7160	 3.2860
 2.7180	 3.3000
 2.7190	 3.2990
 2.7210	 3.2210
 2.7220	 3.2910
 2.7230	 3.2870
 2.7250	 3.2690
 2.7260	 3.3080
 2.7280	 3.3940
 2.7290	 3.3270
 2.7310	 3.2990
 2.7320	 3.2980
 2.7340	 3.2950
 2.7350	 3.2270
 2.7360	 3.2580
 2.7380	 3.2640
 2.7390	 3.3000
 2.7410	 3.2630
 2.7420	 3.2530
 2.7440	 3.2240
 2.7450	 3.3060
 2.7470	 3.3170
 2.7480	 3.3520
 2.7490	 3.3590
 2.7510	 3.3600
 2.7520	 3.2980
 2.7540	 3.2880
 2.7550	 3.2360
 2.7570	 3.3110
 2.7580	 3.3620
 2.7600	 3.3420
 2.7610	 3.3000
 2.7630	 3.2960
 2.7640	 3.2560
 2.7660	 3.3000
 2.7670	 3.3130
 2.7690	 3.2590
 2.7700	 3.2280
 2.7720	 3.3200
 2.7730	 3.3280
 2.7740	 3.2970
 2.7760	 3.3070
 2.7770	 3.3830
 2.7790	 3.3440
 2.7800	 3.3640
 2.7820	 3.3740
 2.7830	 3.3630
 2.7850	 3.2740
 2.7860	 3.2430
 2.7880	 3.3020
 2.7890	 3.4560
 2.7910	 3.4370
 2.7920	 3.4350
 2.7940	 3.4180
 2.7950	 3.4050
 2.7970	 3.4150
 2.7980	 3.4190
 2.8000	 3.3190
 2.8010	 3.3680
 2.8030	 3.3480
 2.8040	 3.3180
 2.8060	 3.3390
 2.8080	 3.4130
 2.8090	 3.4300
 2.8110	 3.3940
 2.8120	 3.3070
 2.8140	 3.3670
 2.8150	 3.3310
 2.8170	 3.3000
 2.8180	 3.2990
 2.8200	 3.3860
 2.8210	 3.3790
 2.8230	 3.3750
 2.8240	 3.3740
 2.8260	 3.4360
 2.8270	 3.4400
 2.8290	 3.4450
 2.8310	 3.4400
 2.8320	 3.4460
 2.8340	 3.3940
 2.8350	 3.4500
 2.8370	 3.3720
 2.8380	 3.3430
 2.8400	 3.3340
 2.8410	 3.3680
 2.8430	 3.3540
 2.8440	 3.4130
 2.8460	 3.4190
 2.8480	 3.3870
 2.8490	 3.3460
 2.8510	 3.3690
 2.8520	 3.3460
 2.8540	 3.3920
 2.8550	 3.3640
 2.8570	 3.3430
 2.8590	 3.3810
 2.8600	 3.4570
 2.8620	 3.4040
 2.8630	 3.4330
 2.8650	 3.4620
 2.8660	 3.4430
 2.8680	 3.3720
 2.8700	 3.3920
 2.8710	 3.3830
 2.8730	 3.4310
 2.8740	 3.4470
 2.8760	 3.4820
 2.8780	 3.4170
 2.8790	 3.3940
 2.8810	 3.3910
 2.8820	 3.3860
 2.8840	 3.4140
 2.8860	 3.4700
 2.8870	 3.4150
 2.8890	 3.4300
 2.8900	 3.4330
 2.8920	 3.4460
 2.8940	 3.4050
 2.8950	 3.4070
 2.8970	 3.3890
 2.8990	 3.4110
 2.9000	 3.3810
 2.9020	 3.4160
 2.9030	 3.4170
 2.9050	 3.4130
 2.9070	 3.3840
 2.9080	 3.4580
 2.9100	 3.5160
 2.9120	 3.5240
 2.9130	 3.4260
 2.9150	 3.4260
 2.9160	 3.3870
 2.9180	 3.3940
 2.9200	 3.4260
 2.9210	 3.4570
 2.9230	 3.4870
 2.9250	 3.5120
 2.9260	 3.4820
 2.9280	 3.4660
 2.9300	 3.3890
 2.9310	 3.4410
 2.9330	 3.5010
 2.9350	 3.5860
 2.9360	 3.4920
 2.9380	 3.4570
 2.9400	 3.4360
 2.9410	 3.4640
 2.9430	 3.4150
 2.9450	 3.3930
 2.9460	 3.3690
 2.9480	 3.4030
 2.9500	 3.3850
 2.9510	 3.3810
 2.9530	 3.3690
 2.9550	 3.4020
 2.9560	 3.3660
 2.9580	 3.3550
 2.9600	 3.2890
 2.9610	 3.2670
 2.9630	 3.2850
 2.9650	 3.3860
 2.9670	 3.4040
 2.9680	 3.3760
 2.9700	 3.3730
 2.9720	 3.3850
 2.9730	 3.3620
 2.9750	 3.3690
 2.9770	 3.3050
 2.9780	 3.3290
 2.9800	 3.3160
 2.9820	 3.3390
 2.9840	 3.3530
 2.9850	 3.3420
 2.9870	 3.2580
 2.9890	 3.2840
 2.9900	 3.2870
 2.9920	 3.2940
 2.9940	 3.3000
 2.9960	 3.3820
 2.9970	 3.3980
 2.9990	 3.3520
 3.0010	 3.2910
 3.0030	 3.3460
 3.0040	 3.3130
 3.0060	 3.3250
 3.0080	 3.3500
 3.0100	 3.3100
 3.0110	 3.2340
 3.0130	 3.2840
 3.0150	 3.2920
 3.0170	 3.2690
 3.0180	 3.2020
 3.0200	 3.2390
 3.0220	 3.2100
 3.0240	 3.2760
 3.0250	 3.2790
 3.0270	 3.2410
 3.0290	 3.2550
 3.0310	 3.2720
 3.0320	 3.2300
 3.0340	 3.2380
 3.0360	 3.1910
 3.0380	 3.1440
 3.0400	 3.0970
 3.0410	 3.1810
 3.0430	 3.2050
 3.0450	 3.2100
 3.0470	 3.1800
 3.0480	 3.1620
 3.0500	 3.1730
 3.0520	 3.2570
 3.0540	 3.2350
 3.0560	 3.1890
 3.0570	 3.2320
 3.0590	 3.2780
 3.0610	 3.2120
 3.0630	 3.1850
 3.0650	 3.1810
 3.0670	 3.2030
 3.0680	 3.1280
 3.0700	 3.1060
 3.0720	 3.0970
 3.0740	 3.1370
 3.0760	 3.1520
 3.0770	 3.1510
 3.0790	 3.0860
 3.0810	 3.1110
 3.0830	 3.1790
 3.0850	 3.1940
 3.0870	 3.1090
 3.0880	 3.1160
 3.0900	 3.1150
 3.0920	 3.1270
 3.0940	 3.1240
 3.0960	 3.1350
 3.0980	 3.1140
 3.1000	 3.1250
 3.1010	 3.0800
 3.1030	 3.1130
 3.1050	 3.0890
 3.1070	 3.0670
 3.1090	 3.0790
 3.1110	 3.0690
 3.1130	 3.0310
 3.1140	 3.0590
 3.1160	 3.0480
 3.1180	 3.0410
 3.1200	 3.0230
 3.1220	 3.0520
 3.1240	 3.0330
 3.1260	 3.0640
 3.1280	 3.0510
 3.1290	 3.0440
 3.1310	 2.9990
 3.1330	 3.0460
 3.1350	 3.0260
 3.1370	 3.0350
 3.1390	 3.0310
 3.1410	 3.0550
 3.1430	 3.0650
 3.1450	 3.0280
 3.1470	 2.9960
 3.1480	 3.0100
 3.1500	 2.9410
 3.1520	 2.9460
 3.1540	 2.9690
 3.1560	 3.0100
 3.1580	 2.9830
 3.1600	 2.9400
 3.1620	 2.9050
 3.1640	 2.9480
 3.1660	 2.9540
 3.1680	 2.9350
 3.1700	 2.9000
 3.1720	 2.8970
 3.1730	 2.8880
 3.1750	 2.9200
 3.1770	 2.9020
 3.1790	 2.9080
 3.1810	 2.9140
 3.1830	 2.9280
 3.1850	 2.9200
 3.1870	 2.9450
 3.1890	 2.9000
 3.1910	 2.9080
 3.1930	 2.9120
 3.1950	 2.9200
 3.1970	 2.8810
 3.1990	 2.8860
 3.2010	 2.8630
 3.2030	 2.8600
 3.2050	 2.8460
 3.2070	 2.8410
 3.2090	 2.8340
 3.2110	 2.9000
 3.2130	 2.9070
 3.2150	 2.8890
 3.2170	 2.8590
 3.2190	 2.8710
 3.2210	 2.8480
 3.2230	 2.8270
 3.2250	 2.8350
 3.2270	 2.8570
 3.2290	 2.8060
 3.2310	 2.8060
 3.2330	 2.8020
 3.2350	 2.7750
 3.2370	 2.7570
 3.2390	 2.8210
 3.2410	 2.8120
 3.2430	 2.8010
 3.2450	 2.7900
 3.2470	 2.8070
 3.2490	 2.7560
 3.2510	 2.7810
 3.2530	 2.7650
 3.2550	 2.7420
 3.2570	 2.7280
 3.2590	 2.7760
 3.2610	 2.7740
 3.2630	 2.7930
 3.2650	 2.7710
 3.2670	 2.7340
 3.2700	 2.6720
 3.2720	 2.6860
 3.2740	 2.6830
 3.2760	 2.7240
 3.2780	 2.7430
 3.2800	 2.7330
 3.2820	 2.6790
 3.2840	 2.7170
 3.2860	 2.7520
 3.2880	 2.7420
 3.2900	 2.6720
 3.2920	 2.6560
 3.2940	 2.6530
 3.2970	 2.6840
 3.2990	 2.6470
 3.3010	 2.6450
 3.3030	 2.6760
 3.3050	 2.7270
 3.3070	 2.6620
 3.3090	 2.6370
 3.3110	 2.6030
 3.3130	 2.5800
 3.3160	 2.5500
 3.3180	 2.5380
 3.3200	 2.5230
 3.3220	 2.5570
 3.3240	 2.5680
 3.3260	 2.5530
 3.3280	 2.4910
 3.3300	 2.4780
 3.3330	 2.4550
 3.3350	 2.4870
 3.3370	 2.4720
 3.3390	 2.4670
 3.3410	 2.4350
 3.3430	 2.4420
 3.3450	 2.3790
 3.3480	 2.3630
 3.3500	 2.3740
 3.3520	 2.3700
 3.3540	 2.3420
 3.3560	 2.3270
 3.3580	 2.2640
 3.3610	 2.2720
 3.3630	 2.2590
 3.3650	 2.2420
 3.3670	 2.2180
 3.3690	 2.2280
 3.3720	 2.2030
 3.3740	 2.2190
 3.3760	 2.1920
 3.3780	 2.2580
 3.3800	 2.3220
 3.3830	 2.3450
 3.3850	 2.2980
 3.3870	 2.3110
 3.3890	 2.2700
 3.3910	 2.2320
 3.3940	 2.1950
 3.3960	 2.1580
 3.3980	 2.1550
 3.4000	 2.1870
 3.4030	 2.2360
 3.4050	 2.3190
 3.4070	 2.3670
 3.4090	 2.5270
 3.4110	 2.7500
 3.4140	 3.0150
 3.4160	 3.3180
 3.4180	 3.7870
 3.4200	 4.4160
 3.4230	 5.2800
 3.4250	 6.3000
 3.4270	 7.3720
 3.4300	 8.0300
 3.4320	 7.7940
 3.4340	 6.9150
 3.4360	 6.0690
 3.4390	 5.4690
 3.4410	 5.0710
 3.4430	 4.7760
 3.4450	 4.6260
 3.4480	 4.4790
 3.4500	 4.4410
 3.4520	 4.4040
 3.4550	 4.3440
 3.4570	 4.2780
 3.4590	 4.2310
 3.4620	 4.1470
 3.4640	 4.0420
 3.4660	 3.9570
 3.4690	 3.9310
 3.4710	 3.8210
 3.4730	 3.7300
 3.4760	 3.6500
 3.4780	 3.5780
 3.4800	 3.4940
 3.4830	 3.4340
 3.4850	 3.3160
 3.4870	 3.2530
 3.4900	 3.1600
 3.4920	 3.1070
 3.4940	 3.0550
 3.4970	 3.0660
 3.4990	 3.1260
 3.5010	 3.3150
 3.5040	 3.6400
 3.5060	 4.4480
 3.5080	 5.8450
 3.5110	 7.1580
 3.5130	 7.3290
 3.5160	 6.5740
 3.5180	 5.7800
 3.5200	 5.2910
 3.5230	 4.9560
 3.5250	 4.7320
 3.5280	 4.5820
 3.5300	 4.4470
 3.5320	 4.3490
 3.5350	 4.2730
 3.5370	 4.1680
 3.5400	 4.1000
 3.5420	 4.1020
 3.5440	 4.1200
 3.5470	 4.0490
 3.5490	 4.0000
 3.5520	 3.9820
 3.5540	 3.9570
 3.5570	 3.9150
 3.5590	 3.9110
 3.5610	 3.8710
 3.5640	 3.8550
 3.5660	 3.8480
 3.5690	 3.8660
 3.5710	 3.8460
 3.5740	 3.8550
 3.5760	 3.8180
 3.5790	 3.8180
 3.5810	 3.8380
 3.5840	 3.8320
 3.5860	 3.7580
 3.5890	 3.7420
 3.5910	 3.7500
 3.5940	 3.7720
 3.5960	 3.7520
 3.5990	 3.7420
 3.6010	 3.7620
 3.6040	 3.8190
 3.6060	 3.7890
 3.6090	 3.7580
 3.6110	 3.7500
 3.6140	 3.7620
 3.6160	 3.7330
 3.6190	 3.7690
 3.6210	 3.7760
 3.6240	 3.7690
 3.6260	 3.7780
 3.6290	 3.7760
 3.6310	 3.7550
 3.6340	 3.7510
 3.6360	 3.7650
 3.6390	 3.7900
 3.6410	 3.7970
 3.6440	 3.7880
 3.6470	 3.7900
 3.6490	 3.7950
 3.6520	 3.8060
 3.6540	 3.8150
 3.6570	 3.7650
 3.6590	 3.7630
 3.6620	 3.8200
 3.6650	 3.8690
 3.6670	 3.8290
 3.6700	 3.7810
 3.6720	 3.8310
 3.6750	 3.8730
 3.6780	 3.8220
 3.6800	 3.8530
 3.6830	 3.9120
 3.6850	 3.9770
 3.6880	 3.9740
 3.6910	 3.9710
 3.6930	 3.9500
 3.6960	 3.9700
 3.6990	 4.0020
 3.7010	 3.9930
 3.7040	 3.9570
 3.7070	 3.9860
 3.7090	 4.0060
 3.7120	 4.0210
 3.7150	 4.0110
 3.7170	 4.0460
 3.7200	 4.0650
 3.7230	 4.0820
 3.7250	 4.1000
 3.7280	 4.1330
 3.7310	 4.1390
 3.7330	 4.1690
 3.7360	 4.1530
 3.7390	 4.1510
 3.7410	 4.2020
 3.7440	 4.2840
 3.7470	 4.3230
 3.7490	 4.3380
 3.7520	 4.3310
 3.7550	 4.3410
 3.7580	 4.3430
 3.7600	 4.3670
 3.7630	 4.3970
 3.7660	 4.3840
 3.7690	 4.3690
 3.7710	 4.4080
 3.7740	 4.4270
 3.7770	 4.4440
 3.7790	 4.4680
 3.7820	 4.5090
 3.7850	 4.4810
 3.7880	 4.4920
 3.7910	 4.5150
 3.7930	 4.5470
 3.7960	 4.5940
 3.7990	 4.6590
 3.8020	 4.6570
 3.8040	 4.6520
 3.8070	 4.6770
 3.8100	 4.7140
 3.8130	 4.7200
 3.8160	 4.7260
 3.8180	 4.7180
 3.8210	 4.7230
 3.8240	 4.7500
 3.8270	 4.7650
 3.8300	 4.7810
 3.8330	 4.8280
 3.8350	 4.8240
 3.8380	 4.8500
 3.8410	 4.8680
 3.8440	 4.8790
 3.8470	 4.8780
 3.8500	 4.8870
 3.8520	 4.9180
 3.8550	 4.9490
 3.8580	 4.9450
 3.8610	 4.9450
 3.8640	 5.0000
 3.8670	 5.0190
 3.8700	 4.9850
 3.8730	 4.9710
 3.8760	 4.9850
 3.8780	 5.0110
 3.8810	 5.0190
 3.8840	 5.0250
 3.8870	 5.0040
 3.8900	 4.9960
 3.8930	 4.9840
 3.8960	 4.9980
 3.8990	 4.9970
 3.9020	 4.9950
 3.9050	 4.9660
 3.9080	 4.9760
 3.9110	 4.9630
 3.9140	 4.9680
 3.9170	 4.9910
 3.9190	 5.0130
 3.9220	 4.9900
 3.9250	 4.9660
 3.9280	 4.9790
 3.9310	 5.0130
 3.9340	 5.0030
 3.9370	 4.9830
 3.9400	 4.9850
 3.9430	 4.9880
 3.9460	 4.9900
 3.9490	 4.9710
 3.9520	 4.9440
 3.9550	 4.9740
 3.9580	 4.9690
 3.9610	 4.9600
 3.9640	 4.9430
 3.9670	 4.9340
 3.9700	 4.9110
 3.9740	 4.9100
 3.9770	 4.9280
 3.9800	 4.9240
 3.9830	 4.9050
 3.9860	 4.9030
 3.9890	 4.8960
 3.9920	 4.9050
 3.9950	 4.8920
 3.9980	 4.9110
 4.0010	 4.9160
 4.0040	 4.8890
 4.0070	 4.8720
 4.0100	 4.9000
 4.0140	 4.9080
 4.0170	 4.9110
 4.0200	 4.8990
 4.0230	 4.8980
 4.0260	 4.8820
 4.0290	 4.8870
 4.0320	 4.8870
 4.0350	 4.8690
 4.0390	 4.8600
 4.0420	 4.8800
 4.0450	 4.8760
 4.0480	 4.8710
 4.0510	 4.8490
 4.0540	 4.8150
 4.0570	 4.7900
 4.0610	 4.7960
 4.0640	 4.8140
 4.0670	 4.8120
 4.0700	 4.7770
 4.0730	 4.7700
 4.0770	 4.7620
 4.0800	 4.7500
 4.0830	 4.7500
 4.0860	 4.7580
 4.0890	 4.7790
 4.0930	 4.7800
 4.0960	 4.7610
 4.0990	 4.7710
 4.1020	 4.7730
 4.1060	 4.7470
 4.1090	 4.6920
 4.1120	 4.6840
 4.1150	 4.6940
 4.1190	 4.6630
 4.1220	 4.6260
 4.1250	 4.6290
 4.1290	 4.6230
 4.1320	 4.6050
 4.1350	 4.6060
 4.1380	 4.6260
 4.1420	 4.6350
 4.1450	 4.5950
 4.1480	 4.5460
 4.1520	 4.5450
 4.1550	 4.5710
 4.1580	 4.5680
 4.1620	 4.5420
 4.1650	 4.5300
 4.1680	 4.4940
 4.1720	 4.4620
 4.1750	 4.4560
 4.1780	 4.4700
 4.1820	 4.4510
 4.1850	 4.4570
 4.1890	 4.4280
 4.1920	 4.3940
 4.1950	 4.3900
 4.1990	 4.3880
 4.2020	 4.3570
 4.2060	 4.3630
 4.2090	 4.3660
 4.2120	 4.3730
 4.2160	 4.4010
 4.2190	 4.3820
 4.2230	 4.3700
 4.2260	 4.4050
 4.2300	 4.3970
 4.2330	 4.3850
 4.2360	 4.3960
 4.2400	 4.4080
 4.2430	 4.3030
 4.2470	 4.2520
 4.2500	 4.2210
 4.2540	 4.1850
 4.2570	 4.1140
 4.2610	 4.1510
 4.2640	 4.2590
 4.2680	 4.2490
 4.2710	 4.1930
 4.2750	 4.1310
 4.2780	 4.0970
 4.2820	 4.0860
 4.2850	 4.0830
 4.2890	 4.1100
 4.2930	 4.0940
 4.2960	 4.0490
 4.3000	 4.0150
 4.3030	 3.9550
 4.3070	 3.9390
 4.3100	 3.9710
 4.3140	 3.9680
 4.3180	 3.9330
 4.3210	 3.9080
 4.3250	 3.8810
 4.3280	 3.8380
 4.3320	 3.8350
 4.3360	 3.8240
 4.3390	 3.8040
 4.3430	 3.8000
 4.3470	 3.7680
 4.3500	 3.7340
 4.3540	 3.7090
 4.3580	 3.7350
 4.3610	 3.7440
 4.3650	 3.7110
 4.3690	 3.6900
 4.3720	 3.6690
 4.3760	 3.6570
 4.3800	 3.6180
 4.3830	 3.5870
 4.3870	 3.6010
 4.3910	 3.6130
 4.3940	 3.6160
 4.3980	 3.6170
 4.4020	 3.5950
 4.4060	 3.5660
 4.4090	 3.5830
 4.4130	 3.5590
 4.4170	 3.5230
 4.4210	 3.4890
 4.4240	 3.4810
 4.4280	 3.4850
 4.4320	 3.4710
 4.4360	 3.4360
 4.4400	 3.4340
 4.4430	 3.4690
 4.4470	 3.5100
 4.4510	 3.5110
 4.4550	 3.4400
 4.4590	 3.4140
 4.4630	 3.4390
 4.4660	 3.4630
 4.4700	 3.4750
 4.4740	 3.4240
 4.4780	 3.3600
 4.4820	 3.3530
 4.4860	 3.3690
 4.4900	 3.3640
 4.4930	 3.3620
 4.4970	 3.3650
 4.5010	 3.3500
 4.5050	 3.3290
 4.5090	 3.3650
 4.5130	 3.3570
 4.5170	 3.3240
 4.5210	 3.3030
 4.5250	 3.2980
 4.5290	 3.3040
 4.5330	 3.2910
 4.5370	 3.3020
 4.5410	 3.3170
 4.5450	 3.2690
 4.5490	 3.2670
 4.5530	 3.3010
 4.5570	 3.3060
 4.5610	 3.2810
 4.5650	 3.2700
 4.5690	 3.2390
 4.5730	 3.2140
 4.5770	 3.2300
 4.5810	 3.2520
 4.5850	 3.2560
 4.5890	 3.2300
 4.5930	 3.2140
 4.5970	 3.2130
 4.6010	 3.1930
 4.6050	 3.2050
 4.6090	 3.2000
 4.6130	 3.1900
 4.6170	 3.2010
 4.6220	 3.2120
 4.6260	 3.1920
 4.6300	 3.1850
 4.6340	 3.1800
 4.6380	 3.1850
 4.6420	 3.1720
 4.6460	 3.1610
 4.6510	 3.1730
 4.6550	 3.1670
 4.6590	 3.1420
 4.6630	 3.1690
 4.6670	 3.1930
 4.6720	 3.2050
 4.6760	 3.1890
 4.6800	 3.1650
 4.6840	 3.1320
 4.6880	 3.1270
 4.6930	 3.1310
 4.6970	 3.1290
 4.7010	 3.1070
 4.7050	 3.0970
 4.7100	 3.0920
 4.7140	 3.1180
 4.7180	 3.1180
 4.7230	 3.1130
 4.7270	 3.1160
 4.7310	 3.1030
 4.7360	 3.1070
 4.7400	 3.1550
 4.7440	 3.1610
 4.7490	 3.1700
 4.7530	 3.1640
 4.7570	 3.1810
 4.7620	 3.1720
 4.7660	 3.1660
 4.7700	 3.1420
 4.7750	 3.1330
 4.7790	 3.1320
 4.7840	 3.1350
 4.7880	 3.1550
 4.7920	 3.1780
 4.7970	 3.1610
 4.8010	 3.1350
 4.8060	 3.1230
 4.8100	 3.1400
 4.8150	 3.1410
 4.8190	 3.1520
 4.8240	 3.1550
 4.8280	 3.1650
 4.8330	 3.1300
 4.8370	 3.1160
 4.8420	 3.1220
 4.8460	 3.1700
 4.8510	 3.1490
 4.8550	 3.1380
 4.8600	 3.1420
 4.8640	 3.1780
 4.8690	 3.1550
 4.8740	 3.1680
 4.8780	 3.1710
 4.8830	 3.1650
 4.8870	 3.1640
 4.8920	 3.1720
 4.8970	 3.1790
 4.9010	 3.1950
 4.9060	 3.1860
 4.9100	 3.1900
 4.9150	 3.1840
 4.9200	 3.2100
 4.9240	 3.2340
 4.9290	 3.2820
 4.9340	 3.2960
 4.9390	 3.2840
 4.9430	 3.2730
 4.9480	 3.2990
 4.9530	 3.2810
 4.9570	 3.3040
 4.9620	 3.2920
 4.9670	 3.2910
 4.9720	 3.2790
 4.9760	 3.2980
 4.9810	 3.3130
 4.9860	 3.3400
 4.9910	 3.3320
 4.9960	 3.3350
 5.0000	 3.3610
 5.0050	 3.3840
 5.0100	 3.3940
 5.0150	 3.4000
 5.0200	 3.3870
 5.0250	 3.4040
 5.0300	 3.4190
 5.0340	 3.4430
 5.0390	 3.4480
 5.0440	 3.4840
 5.0490	 3.4660
 5.0540	 3.4300
 5.0590	 3.4680
 5.0640	 3.5230
 5.0690	 3.5230
 5.0740	 3.5570
 5.0790	 3.5340
 5.0840	 3.5620
 5.0890	 3.6070
 5.0940	 3.6300
 5.0990	 3.5950
 5.1040	 3.6160
 5.1090	 3.6240
 5.1140	 3.6400
 5.1190	 3.6560
 5.1240	 3.6810
 5.1290	 3.6920
 5.1340	 3.7300
 5.1390	 3.7240
 5.1440	 3.7240
 5.1490	 3.7070
 5.1550	 3.7190
 5.1600	 3.7550
 5.1650	 3.7820
 5.1700	 3.7410
 5.1750	 3.7620
 5.1800	 3.8070
 5.1850	 3.8270
 5.1910	 3.8160
 5.1960	 3.8660
 5.2010	 3.8710
 5.2060	 3.8710
 5.2110	 3.8620
 5.2170	 3.8830
 5.2220	 3.8780
 5.2270	 3.8980
 5.2330	 3.8960
 5.2380	 3.9270
 5.2430	 3.9000
 5.2480	 3.9040
 5.2540	 3.8970
 5.2590	 3.8890
 5.2640	 3.8930
 5.2700	 3.9290
 5.2750	 3.9320
 5.2800	 3.9590
 5.2860	 3.9300
 5.2910	 3.9250
 5.2970	 3.9390
 5.3020	 3.9700
 5.3080	 3.9540
 5.3130	 3.9530
 5.3180	 3.9260
 5.3240	 3.9420
 5.3290	 3.9590
 5.3350	 3.9520
 5.3400	 3.9300
 5.3460	 3.9230
 5.3510	 3.8680
 5.3570	 3.9020
 5.3620	 3.9520
 5.3680	 3.9690
 5.3740	 3.9100
 5.3790	 3.8940
 5.3850	 3.8990
 5.3900	 3.9160
 5.3960	 3.8970
 5.4010	 3.8950
 5.4070	 3.8510
 5.4130	 3.8340
 5.4180	 3.7950
 5.4240	 3.7830
 5.4300	 3.7670
 5.4350	 3.7680
 5.4410	 3.7610
 5.4470	 3.7740
 5.4530	 3.7380
 5.4580	 3.7530
 5.4640	 3.7130
 5.4700	 3.6950
 5.4760	 3.6590
 5.4810	 3.6540
 5.4870	 3.6410
 5.4930	 3.6390
 5.4990	 3.5760
 5.5050	 3.5210
 5.5110	 3.5050
 5.5160	 3.5190
 5.5220	 3.4770
 5.5280	 3.4840
 5.5340	 3.4800
 5.5400	 3.4460
 5.5460	 3.3960
 5.5520	 3.3630
 5.5580	 3.2970
 5.5640	 3.3170
 5.5700	 3.2920
 5.5760	 3.2710
 5.5820	 3.2300
 5.5880	 3.2230
 5.5940	 3.1870
 5.6000	 3.1740
 5.6060	 3.1580
 5.6120	 3.1810
 5.6180	 3.1660
 5.6240	 3.1270
 5.6300	 3.0750
 5.6360	 3.0820
 5.6420	 2.9800
 5.6490	 2.9590
 5.6550	 2.9570
 5.6610	 2.9390
 5.6670	 2.8730
 5.6730	 2.8570
 5.6800	 2.8330
 5.6860	 2.8340
 5.6920	 2.7760
 5.6980	 2.7700
 5.7050	 2.7010
 5.7110	 2.6110
 5.7170	 2.5840
 5.7230	 2.5720
 5.7300	 2.5020
 5.7360	 2.5310
 5.7420	 2.5280
 5.7490	 2.5820
 5.7550	 2.6980
 5.7620	 2.8060
 5.7680	 2.9220
 5.7740	 3.1060
 5.7810	 3.1650
 5.7870	 3.2410
 5.7940	 3.3010
 5.8000	 3.3440
 5.8070	 3.2960
 5.8130	 3.2890
 5.8200	 3.2330
 5.8260	 3.2740
 5.8330	 3.3650
 5.8390	 3.4850
 5.8460	 3.4940
 5.8530	 3.4800
 5.8590	 3.4450
 5.8660	 3.4580
 5.8730	 3.4380
 5.8790	 3.3640
 5.8860	 3.3310
 5.8930	 3.3960
 5.8990	 3.3670
 5.9060	 3.4020
 5.9130	 3.3800
 5.9190	 3.3410
 5.9260	 3.2620
 5.9330	 3.2150
 5.9400	 3.1680
 5.9470	 3.2260
 5.9530	 3.2500
 5.9600	 3.2540
 5.9670	 3.1370
 5.9740	 3.1830
 5.9810	 3.1780
 5.9880	 3.1250
 5.9950	 3.0870
 6.0020	 3.1470
 6.0090	 3.0970
 6.0160	 3.0670
 6.0230	 3.0380
 6.0300	 3.0840
 6.0370	 3.0450
 6.0440	 2.9910
 6.0510	 2.8580
 6.0580	 2.9260
 6.0650	 2.9270
 6.0720	 2.9110
 6.0790	 2.9060
 6.0860	 2.9580
 6.0930	 2.9290
 6.1010	 2.9110
 6.1080	 2.8540
 6.1150	 2.8800
 6.1220	 2.9240
 6.1290	 2.9810
 6.1370	 2.9160
 6.1440	 2.9250
 6.1510	 2.8570
 6.1580	 2.8820
 6.1660	 2.9030
 6.1730	 2.9640
 6.1800	 2.9390
 6.1880	 2.9340
 6.1950	 2.9630
 6.2030	 3.0210
 6.2100	 2.9900
 6.2180	 2.9970
 6.2250	 3.0100
 6.2320	 3.0740
 6.2400	 3.0370
 6.2480	 3.0280
 6.2550	 2.9810
 6.2630	 3.0240
 6.2700	 3.0290
 6.2780	 3.0780
 6.2850	 3.0430
 6.2930	 3.0590
 6.3010	 3.0440
 6.3080	 3.0780
 6.3160	 3.0250
 6.3240	 3.0300
 6.3310	 3.0410
 6.3390	 2.9960
 6.3470	 2.9310
 6.3550	 3.0140
 6.3620	 2.9600
 6.3700	 2.9730
 6.3780	 2.9890
 6.3860	 2.9470
 6.3940	 2.8900
 6.4020	 2.9400
 6.4100	 2.8540
 6.4180	 2.8280
 6.4260	 2.8150
 6.4340	 2.8530
 6.4420	 2.8660
 6.4500	 2.9170
 6.4580	 2.9020
 6.4660	 2.9200
 6.4740	 2.8920
 6.4820	 2.8830
 6.4900	 2.7890
 6.4980	 2.8140
 6.5060	 2.8380
 6.5140	 2.8980
 6.5230	 2.8700
 6.5310	 2.8970
 6.5390	 2.8280
 6.5470	 2.8120
 6.5560	 2.7820
 6.5640	 2.8210
 6.5720	 2.7560
 6.5800	 2.7820
 6.5890	 2.7120
 6.5970	 2.7230
 6.6060	 2.7660
 6.6140	 2.8130
 6.6230	 2.7550
 6.6310	 2.7390
 6.6390	 2.6650
 6.6480	 2.7340
 6.6570	 2.7550
 6.6650	 2.7410
 6.6740	 2.6820
 6.6820	 2.7030
 6.6910	 2.7000
 6.7000	 2.7280
 6.7080	 2.6970
 6.7170	 2.7200
 6.7260	 2.6550
 6.7340	 2.6310
 6.7430	 2.5590
 6.7520	 2.5670
 6.7610	 2.5250
 6.7690	 2.4980
 6.7780	 2.5540
 6.7870	 2.8830
 6.7960	 2.9690
 6.8050	 2.8700
 6.8140	 2.7520
 6.8230	 2.8160
 6.8320	 3.1010
 6.8410	 3.4400
 6.8500	 3.2520
 6.8590	 3.0190
 6.8680	 2.9360
 6.8770	 3.0040
 6.8860	 2.9860
 6.8960	 3.0080
 6.9050	 2.9330
 6.9140	 2.9610
 6.9230	 2.9470
 6.9320	 2.9940
 6.9420	 2.9450
 6.9510	 2.8970
 6.9600	 2.8460
 6.9700	 2.9310
 6.9790	 2.9100
 6.9880	 2.9140
 6.9980	 2.8650
 7.0070	 2.9030
 7.0170	 2.8650
 7.0260	 2.8920
 7.0360	 2.8330
 7.0450	 2.8280
 7.0550	 2.8440
 7.0650	 2.8940
 7.0740	 2.8460
 7.0840	 2.8780
 7.0940	 2.8120
 7.1030	 2.8520
 7.1130	 2.7950
 7.1230	 2.7970
 7.1330	 2.7240
 7.1420	 2.7450
 7.1520	 2.7230
 7.1620	 2.7260
 7.1720	 2.6520
 7.1820	 2.6950
 7.1920	 2.6860
 7.2020	 2.7560
 7.2120	 2.7410
 7.2220	 2.7700
 7.2320	 2.7080
 7.2420	 2.7330
 7.2520	 2.6560
 7.2620	 2.7040
 7.2730	 2.7380
 7.2830	 2.7750
 7.2930	 2.6780
 7.3030	 2.6860
 7.3140	 2.6900
 7.3240	 2.7340
 7.3340	 2.6800
 7.3450	 2.6960
 7.3550	 2.6590
 7.3660	 2.7030
 7.3760	 2.6960
 7.3870	 2.7320
 7.3970	 2.7110
 7.4080	 2.7230
 7.4180	 2.6310
 7.4290	 2.6520
 7.4400	 2.6300
 7.4500	 2.6890
 7.4610	 2.6200
 7.4720	 2.6430
 7.4830	 2.6570
 7.4930	 2.6960
 7.5040	 2.5740
 7.5150	 2.5660
 7.5260	 2.4960
 7.5370	 2.5460
 7.5480	 2.5580
 7.5590	 2.6070
 7.5700	 2.5180
 7.5810	 2.5550
 7.5920	 2.5150
 7.6030	 2.5290
 7.6140	 2.4750
 7.6260	 2.4900
 7.6370	 2.4260
 7.6480	 2.4850
 7.6590	 2.4400
 7.6710	 2.4600
 7.6820	 2.4260
 7.6940	 2.4920
 7.7050	 2.4430
 7.7160	 2.4390
 7.7280	 2.4080
 7.7390	 2.4550
 7.7510	 2.3800
 7.7630	 2.3740
 7.7740	 2.2880
 7.7860	 2.3050
 7.7980	 2.2800
 7.8090	 2.3390
 7.8210	 2.2590
 7.8330	 2.2610
 7.8450	 2.2150
 7.8570	 2.2090
 7.8690	 2.1460
 7.8810	 2.2100
 7.8930	 2.1420
 7.9050	 2.1790
 7.9170	 2.1400
 7.9290	 2.1560
 7.9410	 2.0590
 7.9530	 2.1110
 7.9650	 2.0620
 7.9780	 2.0660
 7.9900	 1.9780
 8.0020	 1.9950
 8.0150	 1.9750
 8.0270	 2.0630
 8.0390	 2.0090
 8.0520	 2.1070
 8.0640	 2.0890
 8.0770	 2.1220
 8.0900	 2.0360
 8.1020	 2.0500
 8.1150	 1.9620
 8.1280	 2.1000
 8.1400	 2.0940
 8.1530	 2.1600
 8.1660	 2.0910
 8.1790	 2.1640
 8.1920	 2.0980
 8.2050	 2.1730
 8.2180	 2.1080
 8.2310	 2.1190
 8.2440	 2.0280
 8.2570	 2.1180
 8.2700	 2.0920
 8.2830	 2.1640
 8.2970	 2.1300
 8.3100	 2.2120
 8.3230	 2.1470
 8.3370	 2.1740
 8.3500	 2.0260
 8.3640	 2.1070
 8.3770	 2.1390
 8.3910	 2.2240
 8.4040	 2.1520
 8.4180	 2.2020
 8.4320	 2.1130
 8.4450	 2.2010
 8.4590	 2.1190
 8.4730	 2.1730
 8.4870	 2.0880
 8.5010	 2.1570
 8.5150	 2.1360
 8.5290	 2.2000
 8.5430	 2.0710
 8.5570	 2.1380
 8.5710	 2.0830
 8.5850	 2.1360
 8.5990	 1.9890
 8.6140	 2.0470
 8.6280	 2.0160
 8.6420	 2.0950
 8.6570	 2.1100
 8.6710	 2.2370
 8.6860	 2.1820
 8.7000	 2.2570
 8.7150	 2.2280
 8.7300	 2.2790
 8.7440	 2.1520
 8.7590	 2.2270
 8.7740	 2.1270
 8.7890	 2.1870
 8.8040	 2.0680
 8.8190	 2.0920
 8.8340	 2.0220
 8.8490	 2.0320
 8.8640	 1.9170
 8.8790	 2.0360
 8.8940	 1.9770
 8.9100	 2.0160
 8.9250	 1.8610
 8.9400	 1.9150
 8.9560	 1.9090
 8.9710	 2.0820
 8.9870	 1.9220
 9.0020	 1.9090
 9.0180	 1.9510
 9.0340	 2.1190
 9.0500	 2.0900
 9.0650	 2.2680
 9.0810	 2.2560
 9.0970	 2.3970
 9.1130	 2.3890
 9.1290	 2.5020
 9.1450	 2.4120
 9.1620	 2.5130
 9.1780	 2.5280
 9.1940	 2.7040
 9.2100	 2.6310
 9.2270	 2.7600
 9.2430	 2.6380
 9.2600	 2.6460
 9.2760	 2.5180
 9.2930	 2.6470
 9.3100	 2.5200
 9.3260	 2.4800
 9.3430	 2.4090
 9.3600	 2.5760
 9.3770	 2.4710
 9.3940	 2.5110
 9.4110	 2.3990
 9.4280	 2.5010
 9.4450	 2.4670
 9.4620	 2.5880
 9.4800	 2.4400
 9.4970	 2.5380
 9.5150	 2.4930
 9.5320	 2.6180
 9.5500	 2.6240
 9.5670	 2.8010
 9.5850	 2.7350
 9.6030	 2.8820
 9.6200	 2.8760
 9.6380	 3.0720
 9.6560	 3.1060
 9.6740	 3.2920
 9.6920	 3.2890
 9.7110	 3.4150
 9.7290	 3.3390
 9.7470	 3.4450
 9.7650	 3.3790
 9.7840	 3.5060
 9.8020	 3.3730
 9.8210	 3.4310
 9.8390	 3.3110
 9.8580	 3.3300
 9.8770	 3.1490
 9.8960	 3.2000
 9.9150	 3.1380
 9.9340	 3.2300
 9.9530	 3.1490
 9.9720	 3.1450
 9.9910	 3.0010
10.0100	 3.0660
10.0300	 3.0310
10.0490	 3.1080
10.0690	 2.9860
10.0880	 2.9810
10.1080	 2.8780
10.1280	 3.0100
10.1480	 2.8970
10.1670	 2.9450
10.1870	 2.9040
10.2070	 2.9970
10.2280	 2.9690
10.2480	 3.0650
10.2680	 3.0100
10.2890	 3.0770
10.3090	 2.9460
10.3300	 3.0450
10.3500	 2.9590
10.3710	 3.0060
10.3920	 2.9460
10.4120	 3.0620
10.4330	 2.9660
10.4540	 3.0950
10.4760	 3.0180
10.4970	 3.0960
10.5180	 3.0040
10.5390	 3.0930
10.5610	 3.0190
10.5820	 3.0710
10.6040	 2.9960
10.6260	 3.0950
10.6480	 3.0170
10.6700	 3.0790
10.6920	 2.9860
10.7140	 3.1040
10.7360	 2.9950
10.7580	 3.0510
10.7800	 2.9020
10.8030	 2.9560
10.8250	 2.8590
10.8480	 2.9710
10.8710	 2.8860
10.8940	 2.9900
10.9170	 2.8810
10.9400	 2.9050
10.9630	 2.7330
10.9860	 2.8360
11.0090	 2.7370
11.0330	 2.8040
11.0560	 2.6900
11.0800	 2.7960
11.1040	 2.6670
11.1270	 2.7560
11.1510	 2.6400
11.1750	 2.7640
11.2000	 2.6800
11.2240	 2.7790
11.2480	 2.7130
11.2730	 2.8640
11.2970	 2.7750
11.3220	 2.8580
11.3470	 2.7650
11.3720	 2.8540
11.3970	 2.7580
11.4220	 2.8550
11.4470	 2.7470
11.4720	 2.8240
11.4980	 2.6600
11.5230	 2.7600
11.5490	 2.6930
11.5750	 2.8340
11.6000	 2.6650
11.6260	 2.7640
11.6530	 2.6740
11.6790	 2.7920
11.7050	 2.6660
11.7320	 2.7760
11.7580	 2.5510
11.7850	 2.5980
11.8120	 2.5310
11.8390	 2.7370
11.8660	 2.7330
11.8930	 2.7610
11.9200	 2.5130
11.9480	 2.6390
11.9760	 2.5570
12.0030	 2.6680
12.0310	 2.5200
12.0590	 2.7160
12.0870	 2.6180
12.1150	 2.7560
12.1440	 2.6220
12.1720	 2.7410
12.2010	 2.5730
12.2300	 2.7120
12.2590	 2.6270
12.2880	 2.7880
12.3170	 2.6190
12.3460	 2.7870
12.3760	 2.6560
12.4050	 2.7920
12.4350	 2.5750
12.4650	 2.6310
12.4950	 2.4640
12.5250	 2.7170
12.5550	 2.7050
12.5860	 2.8780
12.6170	 2.7070
12.6470	 2.7930
12.6780	 2.5960
12.7090	 2.7170
12.7410	 2.6190
12.7720	 2.7550
12.8030	 2.6200
12.8350	 2.8480
12.8670	 2.6860
12.8990	 2.7090
12.9310	 2.5850
12.9640	 2.7910
12.9960	 2.6400
13.0290	 2.7780
13.0610	 2.6000
13.0940	 2.6900
13.1280	 2.5650
13.1610	 2.6700
13.1940	 2.4410
13.2280	 2.5150
13.2620	 2.3580
13.2960	 2.6210
13.3300	 2.4040
13.3640	 2.5870
13.3990	 2.4570
13.4340	 2.5840
13.4690	 2.4090
13.5040	 2.5700
13.5390	 2.3910
13.5740	 2.5480
13.6100	 2.2830
13.6460	 2.5320
13.6820	 2.5670
13.7180	 2.8500
13.7540	 2.7100
13.7910	 2.8080
13.8280	 2.4420
13.8650	 2.7200
13.9020	 2.5680
13.9390	 2.6340
13.9770	 2.4140
14.0150	 2.6000
14.0530	 2.3020
14.0910	 2.5510
14.1290	 2.2790
14.1680	 2.4020
14.2070	 2.1940
14.2460	 2.4920
14.2850	 2.3260
14.3240	 2.6110
14.3640	 2.3220
14.4040	 2.4400
14.4440	 2.1660
14.4840	 2.3170
14.5250	 2.0720
14.5660	 2.4090
14.6070	 2.2000
14.6480	 2.4150
14.6900	 1.9840
14.7310	 2.2420
14.7730	 1.8820
14.8150	 2.2290
14.8580	 1.9020
14.9010	 2.1600
14.9440	 2.0980
14.9870	 2.8030
15.0300	 1.9860
15.0740	 2.1220
15.1180	 1.7390
15.1620	 2.2940
15.2060	 1.9070
15.2510	 2.1620
15.2960	 1.7930
15.3410	 2.3480
15.3870	 2.0930
