Name: Fagus sylvatica 'atropurpurea'
Type: vegetation
Class: Tree
Genus: Fagus
Species: sylvatica_atropurpurea
Sample No.: JPL180
Owner: JPL
Wavelength Range: VSWIR
Origin: 34.12826; -118.11349; WGS84
Collection Date: 10/3/2016
Description: Samples were collected at the Huntington Garden in San Marino California as part of a JPL Subcontract studying HyTES imagery. Samples were taken to JPL and processed within 48 hours of collection. The same leaves were processed in the Nicolet and then measured using the ASD.
Measurement: Bidirectional reflectance
First Column: X
Second Column: Y
X Units: Wavelength (micrometer)
Y Units: Reflectance (percentage)
First X Value: 0.35
Last X Value: 2.5
Number of X Values: 2151
Additional Information: vegetation.tree.fagus.sylvatica_atropurpurea.vswir.jpl180.jpl.asd.ancillary.txt

 0.3500	 5.4640
 0.3510	 5.4830
 0.3520	 5.3960
 0.3530	 5.3510
 0.3540	 5.4270
 0.3550	 5.3620
 0.3560	 5.3640
 0.3570	 5.3690
 0.3580	 5.2130
 0.3590	 5.1510
 0.3600	 5.2050
 0.3610	 5.3050
 0.3620	 5.2920
 0.3630	 5.2290
 0.3640	 5.2230
 0.3650	 5.3190
 0.3660	 5.3130
 0.3670	 5.2810
 0.3680	 5.2560
 0.3690	 5.2370
 0.3700	 5.2460
 0.3710	 5.2730
 0.3720	 5.3000
 0.3730	 5.3060
 0.3740	 5.3040
 0.3750	 5.2960
 0.3760	 5.2870
 0.3770	 5.3030
 0.3780	 5.3050
 0.3790	 5.2980
 0.3800	 5.3170
 0.3810	 5.3020
 0.3820	 5.2870
 0.3830	 5.3000
 0.3840	 5.3120
 0.3850	 5.3190
 0.3860	 5.3140
 0.3870	 5.3060
 0.3880	 5.3500
 0.3890	 5.3750
 0.3900	 5.3750
 0.3910	 5.4210
 0.3920	 5.3840
 0.3930	 5.3380
 0.3940	 5.3520
 0.3950	 5.3760
 0.3960	 5.4070
 0.3970	 5.4190
 0.3980	 5.3910
 0.3990	 5.3890
 0.4000	 5.4000
 0.4010	 5.4140
 0.4020	 5.4380
 0.4030	 5.4700
 0.4040	 5.4830
 0.4050	 5.4690
 0.4060	 5.4880
 0.4070	 5.4930
 0.4080	 5.4830
 0.4090	 5.4870
 0.4100	 5.4940
 0.4110	 5.5110
 0.4120	 5.5360
 0.4130	 5.5550
 0.4140	 5.5530
 0.4150	 5.5430
 0.4160	 5.5430
 0.4170	 5.5560
 0.4180	 5.5700
 0.4190	 5.5800
 0.4200	 5.5870
 0.4210	 5.5870
 0.4220	 5.5960
 0.4230	 5.6180
 0.4240	 5.6280
 0.4250	 5.6310
 0.4260	 5.6320
 0.4270	 5.6350
 0.4280	 5.6420
 0.4290	 5.6430
 0.4300	 5.6400
 0.4310	 5.6490
 0.4320	 5.6570
 0.4330	 5.6630
 0.4340	 5.6690
 0.4350	 5.6760
 0.4360	 5.6780
 0.4370	 5.6740
 0.4380	 5.6750
 0.4390	 5.6830
 0.4400	 5.6900
 0.4410	 5.6950
 0.4420	 5.7200
 0.4430	 5.7320
 0.4440	 5.7320
 0.4450	 5.7320
 0.4460	 5.7370
 0.4470	 5.7420
 0.4480	 5.7490
 0.4490	 5.7610
 0.4500	 5.7640
 0.4510	 5.7650
 0.4520	 5.7710
 0.4530	 5.7850
 0.4540	 5.7910
 0.4550	 5.7900
 0.4560	 5.7910
 0.4570	 5.7890
 0.4580	 5.7940
 0.4590	 5.8050
 0.4600	 5.8010
 0.4610	 5.8070
 0.4620	 5.8150
 0.4630	 5.8120
 0.4640	 5.8140
 0.4650	 5.8160
 0.4660	 5.8170
 0.4670	 5.8210
 0.4680	 5.8240
 0.4690	 5.8250
 0.4700	 5.8270
 0.4710	 5.8330
 0.4720	 5.8370
 0.4730	 5.8400
 0.4740	 5.8440
 0.4750	 5.8430
 0.4760	 5.8410
 0.4770	 5.8430
 0.4780	 5.8490
 0.4790	 5.8530
 0.4800	 5.8580
 0.4810	 5.8640
 0.4820	 5.8670
 0.4830	 5.8660
 0.4840	 5.8650
 0.4850	 5.8700
 0.4860	 5.8770
 0.4870	 5.8820
 0.4880	 5.8850
 0.4890	 5.8870
 0.4900	 5.8930
 0.4910	 5.9020
 0.4920	 5.9110
 0.4930	 5.9160
 0.4940	 5.9230
 0.4950	 5.9340
 0.4960	 5.9410
 0.4970	 5.9520
 0.4980	 5.9630
 0.4990	 5.9700
 0.5000	 5.9780
 0.5010	 5.9890
 0.5020	 6.0050
 0.5030	 6.0250
 0.5040	 6.0390
 0.5050	 6.0530
 0.5060	 6.0730
 0.5070	 6.0920
 0.5080	 6.1170
 0.5090	 6.1440
 0.5100	 6.1690
 0.5110	 6.1960
 0.5120	 6.2310
 0.5130	 6.2710
 0.5140	 6.3110
 0.5150	 6.3570
 0.5160	 6.4080
 0.5170	 6.4600
 0.5180	 6.5190
 0.5190	 6.5810
 0.5200	 6.6440
 0.5210	 6.7070
 0.5220	 6.7770
 0.5230	 6.8500
 0.5240	 6.9210
 0.5250	 6.9930
 0.5260	 7.0630
 0.5270	 7.1300
 0.5280	 7.1950
 0.5290	 7.2600
 0.5300	 7.3190
 0.5310	 7.3720
 0.5320	 7.4260
 0.5330	 7.4740
 0.5340	 7.5170
 0.5350	 7.5560
 0.5360	 7.5920
 0.5370	 7.6280
 0.5380	 7.6620
 0.5390	 7.6870
 0.5400	 7.7140
 0.5410	 7.7430
 0.5420	 7.7730
 0.5430	 7.7980
 0.5440	 7.8220
 0.5450	 7.8450
 0.5460	 7.8650
 0.5470	 7.8800
 0.5480	 7.8980
 0.5490	 7.9210
 0.5500	 7.9410
 0.5510	 7.9580
 0.5520	 7.9700
 0.5530	 7.9780
 0.5540	 7.9840
 0.5550	 7.9840
 0.5560	 7.9780
 0.5570	 7.9680
 0.5580	 7.9510
 0.5590	 7.9290
 0.5600	 7.9040
 0.5610	 7.8750
 0.5620	 7.8450
 0.5630	 7.8120
 0.5640	 7.7750
 0.5650	 7.7360
 0.5660	 7.6980
 0.5670	 7.6610
 0.5680	 7.6240
 0.5690	 7.5890
 0.5700	 7.5540
 0.5710	 7.5180
 0.5720	 7.4810
 0.5730	 7.4480
 0.5740	 7.4190
 0.5750	 7.3930
 0.5760	 7.3650
 0.5770	 7.3390
 0.5780	 7.3160
 0.5790	 7.3000
 0.5800	 7.2820
 0.5810	 7.2660
 0.5820	 7.2560
 0.5830	 7.2470
 0.5840	 7.2380
 0.5850	 7.2290
 0.5860	 7.2200
 0.5870	 7.2130
 0.5880	 7.2060
 0.5890	 7.2030
 0.5900	 7.2030
 0.5910	 7.2030
 0.5920	 7.2020
 0.5930	 7.2020
 0.5940	 7.2000
 0.5950	 7.1980
 0.5960	 7.1970
 0.5970	 7.2010
 0.5980	 7.2020
 0.5990	 7.2010
 0.6000	 7.2010
 0.6010	 7.2000
 0.6020	 7.2000
 0.6030	 7.1980
 0.6040	 7.1930
 0.6050	 7.1880
 0.6060	 7.1820
 0.6070	 7.1770
 0.6080	 7.1720
 0.6090	 7.1650
 0.6100	 7.1600
 0.6110	 7.1600
 0.6120	 7.1520
 0.6130	 7.1400
 0.6140	 7.1260
 0.6150	 7.1180
 0.6160	 7.1090
 0.6170	 7.1010
 0.6180	 7.0960
 0.6190	 7.0920
 0.6200	 7.0890
 0.6210	 7.0880
 0.6220	 7.0870
 0.6230	 7.0860
 0.6240	 7.0880
 0.6250	 7.0920
 0.6260	 7.0950
 0.6270	 7.0970
 0.6280	 7.1010
 0.6290	 7.1080
 0.6300	 7.1150
 0.6310	 7.1210
 0.6320	 7.1260
 0.6330	 7.1290
 0.6340	 7.1280
 0.6350	 7.1250
 0.6360	 7.1220
 0.6370	 7.1130
 0.6380	 7.1020
 0.6390	 7.0900
 0.6400	 7.0780
 0.6410	 7.0630
 0.6420	 7.0500
 0.6430	 7.0370
 0.6440	 7.0210
 0.6450	 7.0110
 0.6460	 7.0020
 0.6470	 6.9920
 0.6480	 6.9840
 0.6490	 6.9810
 0.6500	 6.9800
 0.6510	 6.9810
 0.6520	 6.9820
 0.6530	 6.9850
 0.6540	 6.9910
 0.6550	 6.9980
 0.6560	 7.0010
 0.6570	 7.0010
 0.6580	 7.0030
 0.6590	 7.0060
 0.6600	 7.0110
 0.6610	 7.0160
 0.6620	 7.0180
 0.6630	 7.0190
 0.6640	 7.0220
 0.6650	 7.0300
 0.6660	 7.0380
 0.6670	 7.0490
 0.6680	 7.0630
 0.6690	 7.0820
 0.6700	 7.1020
 0.6710	 7.1260
 0.6720	 7.1540
 0.6730	 7.1810
 0.6740	 7.2130
 0.6750	 7.2490
 0.6760	 7.2880
 0.6770	 7.3280
 0.6780	 7.3720
 0.6790	 7.4190
 0.6800	 7.4700
 0.6810	 7.5250
 0.6820	 7.5810
 0.6830	 7.6370
 0.6840	 7.6970
 0.6850	 7.7570
 0.6860	 7.8190
 0.6870	 7.8840
 0.6880	 7.9560
 0.6890	 8.0370
 0.6900	 8.1290
 0.6910	 8.2340
 0.6920	 8.3670
 0.6930	 8.5310
 0.6940	 8.7280
 0.6950	 8.9610
 0.6960	 9.2350
 0.6970	 9.5520
 0.6980	 9.9110
 0.6990	10.3120
 0.7000	10.7490
 0.7010	11.2190
 0.7020	11.7170
 0.7030	12.2340
 0.7040	12.7690
 0.7050	13.3210
 0.7060	13.8790
 0.7070	14.4460
 0.7080	15.0210
 0.7090	15.6030
 0.7100	16.1910
 0.7110	16.7850
 0.7120	17.3820
 0.7130	17.9800
 0.7140	18.5830
 0.7150	19.1900
 0.7160	19.7970
 0.7170	20.4060
 0.7180	21.0170
 0.7190	21.6260
 0.7200	22.2300
 0.7210	22.8320
 0.7220	23.4300
 0.7230	24.0200
 0.7240	24.6000
 0.7250	25.1680
 0.7260	25.7230
 0.7270	26.2640
 0.7280	26.7880
 0.7290	27.2980
 0.7300	27.7900
 0.7310	28.2610
 0.7320	28.7160
 0.7330	29.1540
 0.7340	29.5720
 0.7350	29.9700
 0.7360	30.3510
 0.7370	30.7110
 0.7380	31.0500
 0.7390	31.3720
 0.7400	31.6750
 0.7410	31.9590
 0.7420	32.2280
 0.7430	32.4770
 0.7440	32.7050
 0.7450	32.9170
 0.7460	33.1140
 0.7470	33.2930
 0.7480	33.4570
 0.7490	33.6100
 0.7500	33.7500
 0.7510	33.8780
 0.7520	33.9950
 0.7530	34.1050
 0.7540	34.2030
 0.7550	34.2920
 0.7560	34.3740
 0.7570	34.4460
 0.7580	34.5120
 0.7590	34.5740
 0.7600	34.6330
 0.7610	34.6850
 0.7620	34.7340
 0.7630	34.7800
 0.7640	34.8200
 0.7650	34.8580
 0.7660	34.8890
 0.7670	34.9170
 0.7680	34.9450
 0.7690	34.9740
 0.7700	34.9980
 0.7710	35.0190
 0.7720	35.0420
 0.7730	35.0640
 0.7740	35.0860
 0.7750	35.1070
 0.7760	35.1260
 0.7770	35.1450
 0.7780	35.1630
 0.7790	35.1800
 0.7800	35.1990
 0.7810	35.2180
 0.7820	35.2380
 0.7830	35.2580
 0.7840	35.2760
 0.7850	35.2930
 0.7860	35.3090
 0.7870	35.3230
 0.7880	35.3390
 0.7890	35.3530
 0.7900	35.3640
 0.7910	35.3760
 0.7920	35.3910
 0.7930	35.4080
 0.7940	35.4230
 0.7950	35.4360
 0.7960	35.4470
 0.7970	35.4570
 0.7980	35.4670
 0.7990	35.4750
 0.8000	35.4820
 0.8010	35.4900
 0.8020	35.4980
 0.8030	35.5090
 0.8040	35.5200
 0.8050	35.5290
 0.8060	35.5360
 0.8070	35.5420
 0.8080	35.5470
 0.8090	35.5490
 0.8100	35.5540
 0.8110	35.5590
 0.8120	35.5630
 0.8130	35.5670
 0.8140	35.5710
 0.8150	35.5740
 0.8160	35.5750
 0.8170	35.5790
 0.8180	35.5830
 0.8190	35.5850
 0.8200	35.5880
 0.8210	35.5890
 0.8220	35.5910
 0.8230	35.5930
 0.8240	35.5950
 0.8250	35.5950
 0.8260	35.5980
 0.8270	35.6040
 0.8280	35.6070
 0.8290	35.6080
 0.8300	35.6060
 0.8310	35.6050
 0.8320	35.6080
 0.8330	35.6120
 0.8340	35.6150
 0.8350	35.6180
 0.8360	35.6190
 0.8370	35.6220
 0.8380	35.6260
 0.8390	35.6280
 0.8400	35.6330
 0.8410	35.6390
 0.8420	35.6450
 0.8430	35.6490
 0.8440	35.6560
 0.8450	35.6620
 0.8460	35.6640
 0.8470	35.6670
 0.8480	35.6740
 0.8490	35.6830
 0.8500	35.6860
 0.8510	35.6930
 0.8520	35.6990
 0.8530	35.7060
 0.8540	35.7120
 0.8550	35.7170
 0.8560	35.7240
 0.8570	35.7320
 0.8580	35.7370
 0.8590	35.7470
 0.8600	35.7590
 0.8610	35.7700
 0.8620	35.7810
 0.8630	35.7860
 0.8640	35.7910
 0.8650	35.8000
 0.8660	35.8100
 0.8670	35.8210
 0.8680	35.8310
 0.8690	35.8380
 0.8700	35.8510
 0.8710	35.8590
 0.8720	35.8650
 0.8730	35.8740
 0.8740	35.8860
 0.8750	35.8990
 0.8760	35.9120
 0.8770	35.9210
 0.8780	35.9320
 0.8790	35.9410
 0.8800	35.9470
 0.8810	35.9600
 0.8820	35.9720
 0.8830	35.9830
 0.8840	35.9940
 0.8850	36.0040
 0.8860	36.0180
 0.8870	36.0290
 0.8880	36.0340
 0.8890	36.0440
 0.8900	36.0510
 0.8910	36.0580
 0.8920	36.0710
 0.8930	36.0810
 0.8940	36.0900
 0.8950	36.1000
 0.8960	36.1110
 0.8970	36.1220
 0.8980	36.1290
 0.8990	36.1370
 0.9000	36.1510
 0.9010	36.1540
 0.9020	36.1610
 0.9030	36.1760
 0.9040	36.1870
 0.9050	36.1970
 0.9060	36.2050
 0.9070	36.2110
 0.9080	36.2180
 0.9090	36.2200
 0.9100	36.2220
 0.9110	36.2280
 0.9120	36.2380
 0.9130	36.2400
 0.9140	36.2440
 0.9150	36.2570
 0.9160	36.2630
 0.9170	36.2670
 0.9180	36.2700
 0.9190	36.2740
 0.9200	36.2810
 0.9210	36.2880
 0.9220	36.2920
 0.9230	36.2940
 0.9240	36.2920
 0.9250	36.2920
 0.9260	36.2950
 0.9270	36.2990
 0.9280	36.2980
 0.9290	36.2920
 0.9300	36.2860
 0.9310	36.2900
 0.9320	36.2830
 0.9330	36.2770
 0.9340	36.2760
 0.9350	36.2750
 0.9360	36.2720
 0.9370	36.2670
 0.9380	36.2570
 0.9390	36.2440
 0.9400	36.2410
 0.9410	36.2390
 0.9420	36.2300
 0.9430	36.2300
 0.9440	36.2170
 0.9450	36.2020
 0.9460	36.1910
 0.9470	36.1860
 0.9480	36.1670
 0.9490	36.1460
 0.9500	36.1350
 0.9510	36.1180
 0.9520	36.1060
 0.9530	36.0900
 0.9540	36.0650
 0.9550	36.0620
 0.9560	36.0400
 0.9570	36.0140
 0.9580	36.0040
 0.9590	35.9930
 0.9600	35.9820
 0.9610	35.9670
 0.9620	35.9490
 0.9630	35.9430
 0.9640	35.9360
 0.9650	35.9230
 0.9660	35.9040
 0.9670	35.8980
 0.9680	35.8890
 0.9690	35.8800
 0.9700	35.8770
 0.9710	35.8710
 0.9720	35.8710
 0.9730	35.8720
 0.9740	35.8670
 0.9750	35.8580
 0.9760	35.8650
 0.9770	35.8710
 0.9780	35.8540
 0.9790	35.8480
 0.9800	35.8510
 0.9810	35.8510
 0.9820	35.8390
 0.9830	35.8470
 0.9840	35.8540
 0.9850	35.8520
 0.9860	35.8460
 0.9870	35.8500
 0.9880	35.8480
 0.9890	35.8440
 0.9900	35.8530
 0.9910	35.8630
 0.9920	35.8700
 0.9930	35.8740
 0.9940	35.8780
 0.9950	35.8910
 0.9960	35.8950
 0.9970	35.8840
 0.9980	35.8700
 0.9990	35.8920
 1.0000	35.9000
 1.0010	36.0300
 1.0020	36.0340
 1.0030	36.0360
 1.0040	36.0410
 1.0050	36.0480
 1.0060	36.0520
 1.0070	36.0600
 1.0080	36.0640
 1.0090	36.0650
 1.0100	36.0680
 1.0110	36.0700
 1.0120	36.0740
 1.0130	36.0790
 1.0140	36.0850
 1.0150	36.0940
 1.0160	36.1010
 1.0170	36.1030
 1.0180	36.1100
 1.0190	36.1100
 1.0200	36.1110
 1.0210	36.1130
 1.0220	36.1130
 1.0230	36.1170
 1.0240	36.1240
 1.0250	36.1310
 1.0260	36.1420
 1.0270	36.1490
 1.0280	36.1520
 1.0290	36.1570
 1.0300	36.1610
 1.0310	36.1640
 1.0320	36.1670
 1.0330	36.1710
 1.0340	36.1730
 1.0350	36.1740
 1.0360	36.1770
 1.0370	36.1800
 1.0380	36.1850
 1.0390	36.1930
 1.0400	36.1980
 1.0410	36.2020
 1.0420	36.2070
 1.0430	36.2100
 1.0440	36.2150
 1.0450	36.2210
 1.0460	36.2250
 1.0470	36.2260
 1.0480	36.2290
 1.0490	36.2320
 1.0500	36.2340
 1.0510	36.2350
 1.0520	36.2380
 1.0530	36.2400
 1.0540	36.2420
 1.0550	36.2450
 1.0560	36.2520
 1.0570	36.2550
 1.0580	36.2570
 1.0590	36.2590
 1.0600	36.2590
 1.0610	36.2610
 1.0620	36.2640
 1.0630	36.2650
 1.0640	36.2640
 1.0650	36.2640
 1.0660	36.2630
 1.0670	36.2620
 1.0680	36.2620
 1.0690	36.2620
 1.0700	36.2620
 1.0710	36.2620
 1.0720	36.2630
 1.0730	36.2640
 1.0740	36.2660
 1.0750	36.2700
 1.0760	36.2710
 1.0770	36.2710
 1.0780	36.2720
 1.0790	36.2720
 1.0800	36.2730
 1.0810	36.2740
 1.0820	36.2750
 1.0830	36.2760
 1.0840	36.2760
 1.0850	36.2760
 1.0860	36.2760
 1.0870	36.2750
 1.0880	36.2730
 1.0890	36.2700
 1.0900	36.2640
 1.0910	36.2620
 1.0920	36.2610
 1.0930	36.2610
 1.0940	36.2660
 1.0950	36.2680
 1.0960	36.2690
 1.0970	36.2700
 1.0980	36.2730
 1.0990	36.2730
 1.1000	36.2700
 1.1010	36.2680
 1.1020	36.2650
 1.1030	36.2640
 1.1040	36.2640
 1.1050	36.2640
 1.1060	36.2620
 1.1070	36.2580
 1.1080	36.2560
 1.1090	36.2520
 1.1100	36.2490
 1.1110	36.2480
 1.1120	36.2450
 1.1130	36.2400
 1.1140	36.2360
 1.1150	36.2320
 1.1160	36.2270
 1.1170	36.2200
 1.1180	36.2150
 1.1190	36.2090
 1.1200	36.2010
 1.1210	36.1950
 1.1220	36.1870
 1.1230	36.1780
 1.1240	36.1680
 1.1250	36.1550
 1.1260	36.1390
 1.1270	36.1240
 1.1280	36.1070
 1.1290	36.0880
 1.1300	36.0710
 1.1310	36.0490
 1.1320	36.0230
 1.1330	35.9950
 1.1340	35.9620
 1.1350	35.9300
 1.1360	35.8950
 1.1370	35.8610
 1.1380	35.8240
 1.1390	35.7850
 1.1400	35.7450
 1.1410	35.7020
 1.1420	35.6600
 1.1430	35.6150
 1.1440	35.5720
 1.1450	35.5280
 1.1460	35.4840
 1.1470	35.4410
 1.1480	35.3990
 1.1490	35.3550
 1.1500	35.3140
 1.1510	35.2750
 1.1520	35.2380
 1.1530	35.2050
 1.1540	35.1730
 1.1550	35.1420
 1.1560	35.1150
 1.1570	35.0890
 1.1580	35.0650
 1.1590	35.0450
 1.1600	35.0260
 1.1610	35.0090
 1.1620	34.9920
 1.1630	34.9760
 1.1640	34.9620
 1.1650	34.9500
 1.1660	34.9390
 1.1670	34.9290
 1.1680	34.9210
 1.1690	34.9120
 1.1700	34.9040
 1.1710	34.8960
 1.1720	34.8880
 1.1730	34.8810
 1.1740	34.8740
 1.1750	34.8680
 1.1760	34.8610
 1.1770	34.8530
 1.1780	34.8430
 1.1790	34.8350
 1.1800	34.8260
 1.1810	34.8170
 1.1820	34.8090
 1.1830	34.8010
 1.1840	34.7930
 1.1850	34.7860
 1.1860	34.7780
 1.1870	34.7690
 1.1880	34.7620
 1.1890	34.7550
 1.1900	34.7490
 1.1910	34.7440
 1.1920	34.7400
 1.1930	34.7350
 1.1940	34.7300
 1.1950	34.7260
 1.1960	34.7230
 1.1970	34.7200
 1.1980	34.7160
 1.1990	34.7150
 1.2000	34.7140
 1.2010	34.7140
 1.2020	34.7160
 1.2030	34.7170
 1.2040	34.7180
 1.2050	34.7200
 1.2060	34.7220
 1.2070	34.7260
 1.2080	34.7310
 1.2090	34.7370
 1.2100	34.7430
 1.2110	34.7500
 1.2120	34.7580
 1.2130	34.7660
 1.2140	34.7740
 1.2150	34.7820
 1.2160	34.7890
 1.2170	34.7950
 1.2180	34.8020
 1.2190	34.8090
 1.2200	34.8160
 1.2210	34.8250
 1.2220	34.8350
 1.2230	34.8460
 1.2240	34.8570
 1.2250	34.8670
 1.2260	34.8760
 1.2270	34.8840
 1.2280	34.8910
 1.2290	34.8990
 1.2300	34.9070
 1.2310	34.9170
 1.2320	34.9270
 1.2330	34.9350
 1.2340	34.9410
 1.2350	34.9460
 1.2360	34.9500
 1.2370	34.9530
 1.2380	34.9580
 1.2390	34.9630
 1.2400	34.9690
 1.2410	34.9760
 1.2420	34.9810
 1.2430	34.9860
 1.2440	34.9900
 1.2450	34.9950
 1.2460	35.0000
 1.2470	35.0040
 1.2480	35.0080
 1.2490	35.0120
 1.2500	35.0140
 1.2510	35.0170
 1.2520	35.0200
 1.2530	35.0220
 1.2540	35.0240
 1.2550	35.0270
 1.2560	35.0280
 1.2570	35.0290
 1.2580	35.0290
 1.2590	35.0290
 1.2600	35.0280
 1.2610	35.0270
 1.2620	35.0270
 1.2630	35.0270
 1.2640	35.0260
 1.2650	35.0260
 1.2660	35.0240
 1.2670	35.0210
 1.2680	35.0170
 1.2690	35.0130
 1.2700	35.0100
 1.2710	35.0060
 1.2720	35.0020
 1.2730	34.9960
 1.2740	34.9890
 1.2750	34.9830
 1.2760	34.9770
 1.2770	34.9710
 1.2780	34.9670
 1.2790	34.9620
 1.2800	34.9550
 1.2810	34.9490
 1.2820	34.9410
 1.2830	34.9320
 1.2840	34.9240
 1.2850	34.9150
 1.2860	34.9030
 1.2870	34.8910
 1.2880	34.8800
 1.2890	34.8690
 1.2900	34.8560
 1.2910	34.8440
 1.2920	34.8310
 1.2930	34.8150
 1.2940	34.7990
 1.2950	34.7830
 1.2960	34.7650
 1.2970	34.7470
 1.2980	34.7280
 1.2990	34.7110
 1.3000	34.6910
 1.3010	34.6720
 1.3020	34.6520
 1.3030	34.6310
 1.3040	34.6090
 1.3050	34.5870
 1.3060	34.5630
 1.3070	34.5380
 1.3080	34.5130
 1.3090	34.4890
 1.3100	34.4620
 1.3110	34.4340
 1.3120	34.4060
 1.3130	34.3760
 1.3140	34.3460
 1.3150	34.3160
 1.3160	34.2840
 1.3170	34.2520
 1.3180	34.2190
 1.3190	34.1850
 1.3200	34.1510
 1.3210	34.1160
 1.3220	34.0810
 1.3230	34.0430
 1.3240	34.0040
 1.3250	33.9640
 1.3260	33.9220
 1.3270	33.8780
 1.3280	33.8340
 1.3290	33.7880
 1.3300	33.7420
 1.3310	33.6970
 1.3320	33.6480
 1.3330	33.5990
 1.3340	33.5490
 1.3350	33.5000
 1.3360	33.4500
 1.3370	33.3990
 1.3380	33.3490
 1.3390	33.2980
 1.3400	33.2460
 1.3410	33.1970
 1.3420	33.1470
 1.3430	33.0970
 1.3440	33.0460
 1.3450	32.9950
 1.3460	32.9410
 1.3470	32.8890
 1.3480	32.8380
 1.3490	32.7860
 1.3500	32.7350
 1.3510	32.6850
 1.3520	32.6330
 1.3530	32.5810
 1.3540	32.5280
 1.3550	32.4760
 1.3560	32.4240
 1.3570	32.3700
 1.3580	32.3170
 1.3590	32.2620
 1.3600	32.2060
 1.3610	32.1490
 1.3620	32.0910
 1.3630	32.0290
 1.3640	31.9640
 1.3650	31.8960
 1.3660	31.8250
 1.3670	31.7510
 1.3680	31.6730
 1.3690	31.5890
 1.3700	31.5000
 1.3710	31.4030
 1.3720	31.2980
 1.3730	31.1860
 1.3740	31.0650
 1.3750	30.9320
 1.3760	30.7880
 1.3770	30.6330
 1.3780	30.4620
 1.3790	30.2820
 1.3800	30.0860
 1.3810	29.8750
 1.3820	29.6530
 1.3830	29.4190
 1.3840	29.1700
 1.3850	28.9090
 1.3860	28.6360
 1.3870	28.3470
 1.3880	28.0510
 1.3890	27.7440
 1.3900	27.4260
 1.3910	27.1020
 1.3920	26.7690
 1.3930	26.4290
 1.3940	26.0850
 1.3950	25.7340
 1.3960	25.3830
 1.3970	25.0320
 1.3980	24.6810
 1.3990	24.3380
 1.4000	24.0010
 1.4010	23.6670
 1.4020	23.3430
 1.4030	23.0250
 1.4040	22.7160
 1.4050	22.4190
 1.4060	22.1320
 1.4070	21.8600
 1.4080	21.5990
 1.4090	21.3500
 1.4100	21.1150
 1.4110	20.8900
 1.4120	20.6790
 1.4130	20.4800
 1.4140	20.2920
 1.4150	20.1180
 1.4160	19.9550
 1.4170	19.8030
 1.4180	19.6620
 1.4190	19.5300
 1.4200	19.4070
 1.4210	19.2930
 1.4220	19.1870
 1.4230	19.0890
 1.4240	19.0000
 1.4250	18.9180
 1.4260	18.8430
 1.4270	18.7730
 1.4280	18.7090
 1.4290	18.6510
 1.4300	18.5990
 1.4310	18.5520
 1.4320	18.5110
 1.4330	18.4740
 1.4340	18.4410
 1.4350	18.4120
 1.4360	18.3870
 1.4370	18.3650
 1.4380	18.3470
 1.4390	18.3320
 1.4400	18.3210
 1.4410	18.3120
 1.4420	18.3060
 1.4430	18.3030
 1.4440	18.3020
 1.4450	18.3030
 1.4460	18.3060
 1.4470	18.3100
 1.4480	18.3160
 1.4490	18.3240
 1.4500	18.3330
 1.4510	18.3450
 1.4520	18.3590
 1.4530	18.3720
 1.4540	18.3880
 1.4550	18.4060
 1.4560	18.4250
 1.4570	18.4470
 1.4580	18.4700
 1.4590	18.4950
 1.4600	18.5250
 1.4610	18.5580
 1.4620	18.5940
 1.4630	18.6340
 1.4640	18.6780
 1.4650	18.7240
 1.4660	18.7750
 1.4670	18.8300
 1.4680	18.8880
 1.4690	18.9500
 1.4700	19.0160
 1.4710	19.0850
 1.4720	19.1560
 1.4730	19.2290
 1.4740	19.3060
 1.4750	19.3840
 1.4760	19.4650
 1.4770	19.5480
 1.4780	19.6330
 1.4790	19.7200
 1.4800	19.8080
 1.4810	19.8960
 1.4820	19.9850
 1.4830	20.0750
 1.4840	20.1670
 1.4850	20.2590
 1.4860	20.3510
 1.4870	20.4430
 1.4880	20.5340
 1.4890	20.6270
 1.4900	20.7210
 1.4910	20.8150
 1.4920	20.9080
 1.4930	21.0020
 1.4940	21.0960
 1.4950	21.1910
 1.4960	21.2850
 1.4970	21.3790
 1.4980	21.4720
 1.4990	21.5640
 1.5000	21.6560
 1.5010	21.7500
 1.5020	21.8430
 1.5030	21.9360
 1.5040	22.0280
 1.5050	22.1190
 1.5060	22.2100
 1.5070	22.3000
 1.5080	22.3900
 1.5090	22.4810
 1.5100	22.5700
 1.5110	22.6590
 1.5120	22.7480
 1.5130	22.8350
 1.5140	22.9230
 1.5150	23.0100
 1.5160	23.0960
 1.5170	23.1810
 1.5180	23.2660
 1.5190	23.3490
 1.5200	23.4320
 1.5210	23.5130
 1.5220	23.5930
 1.5230	23.6730
 1.5240	23.7510
 1.5250	23.8320
 1.5260	23.9090
 1.5270	23.9860
 1.5280	24.0620
 1.5290	24.1350
 1.5300	24.2080
 1.5310	24.2820
 1.5320	24.3540
 1.5330	24.4260
 1.5340	24.4960
 1.5350	24.5670
 1.5360	24.6370
 1.5370	24.7050
 1.5380	24.7730
 1.5390	24.8410
 1.5400	24.9070
 1.5410	24.9720
 1.5420	25.0380
 1.5430	25.1030
 1.5440	25.1660
 1.5450	25.2280
 1.5460	25.2900
 1.5470	25.3500
 1.5480	25.4090
 1.5490	25.4680
 1.5500	25.5260
 1.5510	25.5830
 1.5520	25.6410
 1.5530	25.6960
 1.5540	25.7510
 1.5550	25.8070
 1.5560	25.8610
 1.5570	25.9140
 1.5580	25.9670
 1.5590	26.0180
 1.5600	26.0680
 1.5610	26.1180
 1.5620	26.1680
 1.5630	26.2160
 1.5640	26.2630
 1.5650	26.3090
 1.5660	26.3550
 1.5670	26.4020
 1.5680	26.4480
 1.5690	26.4920
 1.5700	26.5360
 1.5710	26.5790
 1.5720	26.6220
 1.5730	26.6650
 1.5740	26.7070
 1.5750	26.7490
 1.5760	26.7900
 1.5770	26.8310
 1.5780	26.8710
 1.5790	26.9110
 1.5800	26.9510
 1.5810	26.9890
 1.5820	27.0290
 1.5830	27.0670
 1.5840	27.1050
 1.5850	27.1430
 1.5860	27.1820
 1.5870	27.2190
 1.5880	27.2550
 1.5890	27.2910
 1.5900	27.3250
 1.5910	27.3590
 1.5920	27.3960
 1.5930	27.4320
 1.5940	27.4680
 1.5950	27.5040
 1.5960	27.5400
 1.5970	27.5750
 1.5980	27.6090
 1.5990	27.6430
 1.6000	27.6760
 1.6010	27.7080
 1.6020	27.7400
 1.6030	27.7730
 1.6040	27.8030
 1.6050	27.8340
 1.6060	27.8640
 1.6070	27.8910
 1.6080	27.9200
 1.6090	27.9490
 1.6100	27.9760
 1.6110	28.0040
 1.6120	28.0310
 1.6130	28.0570
 1.6140	28.0840
 1.6150	28.1100
 1.6160	28.1350
 1.6170	28.1590
 1.6180	28.1830
 1.6190	28.2070
 1.6200	28.2300
 1.6210	28.2530
 1.6220	28.2740
 1.6230	28.2950
 1.6240	28.3170
 1.6250	28.3380
 1.6260	28.3590
 1.6270	28.3790
 1.6280	28.3990
 1.6290	28.4180
 1.6300	28.4380
 1.6310	28.4570
 1.6320	28.4760
 1.6330	28.4940
 1.6340	28.5130
 1.6350	28.5300
 1.6360	28.5460
 1.6370	28.5610
 1.6380	28.5750
 1.6390	28.5890
 1.6400	28.6020
 1.6410	28.6150
 1.6420	28.6260
 1.6430	28.6360
 1.6440	28.6460
 1.6450	28.6550
 1.6460	28.6630
 1.6470	28.6690
 1.6480	28.6740
 1.6490	28.6780
 1.6500	28.6810
 1.6510	28.6840
 1.6520	28.6840
 1.6530	28.6820
 1.6540	28.6790
 1.6550	28.6740
 1.6560	28.6700
 1.6570	28.6650
 1.6580	28.6590
 1.6590	28.6530
 1.6600	28.6470
 1.6610	28.6400
 1.6620	28.6330
 1.6630	28.6240
 1.6640	28.6150
 1.6650	28.6060
 1.6660	28.5980
 1.6670	28.5890
 1.6680	28.5810
 1.6690	28.5700
 1.6700	28.5600
 1.6710	28.5500
 1.6720	28.5400
 1.6730	28.5290
 1.6740	28.5170
 1.6750	28.5040
 1.6760	28.4900
 1.6770	28.4770
 1.6780	28.4620
 1.6790	28.4460
 1.6800	28.4280
 1.6810	28.4090
 1.6820	28.3880
 1.6830	28.3660
 1.6840	28.3430
 1.6850	28.3190
 1.6860	28.2940
 1.6870	28.2680
 1.6880	28.2420
 1.6890	28.2150
 1.6900	28.1880
 1.6910	28.1590
 1.6920	28.1310
 1.6930	28.1020
 1.6940	28.0750
 1.6950	28.0490
 1.6960	28.0210
 1.6970	27.9930
 1.6980	27.9660
 1.6990	27.9380
 1.7000	27.9100
 1.7010	27.8840
 1.7020	27.8540
 1.7030	27.8210
 1.7040	27.7900
 1.7050	27.7580
 1.7060	27.7250
 1.7070	27.6930
 1.7080	27.6610
 1.7090	27.6290
 1.7100	27.5970
 1.7110	27.5650
 1.7120	27.5340
 1.7130	27.5030
 1.7140	27.4730
 1.7150	27.4450
 1.7160	27.4180
 1.7170	27.3920
 1.7180	27.3670
 1.7190	27.3430
 1.7200	27.3190
 1.7210	27.2940
 1.7220	27.2680
 1.7230	27.2440
 1.7240	27.2220
 1.7250	27.1990
 1.7260	27.1770
 1.7270	27.1560
 1.7280	27.1350
 1.7290	27.1180
 1.7300	27.1020
 1.7310	27.0870
 1.7320	27.0710
 1.7330	27.0560
 1.7340	27.0430
 1.7350	27.0290
 1.7360	27.0140
 1.7370	26.9980
 1.7380	26.9790
 1.7390	26.9600
 1.7400	26.9390
 1.7410	26.9160
 1.7420	26.8920
 1.7430	26.8650
 1.7440	26.8350
 1.7450	26.8050
 1.7460	26.7740
 1.7470	26.7430
 1.7480	26.7130
 1.7490	26.6790
 1.7500	26.6430
 1.7510	26.6080
 1.7520	26.5710
 1.7530	26.5370
 1.7540	26.5030
 1.7550	26.4700
 1.7560	26.4370
 1.7570	26.4050
 1.7580	26.3740
 1.7590	26.3420
 1.7600	26.3100
 1.7610	26.2780
 1.7620	26.2490
 1.7630	26.2250
 1.7640	26.1990
 1.7650	26.1730
 1.7660	26.1490
 1.7670	26.1240
 1.7680	26.1010
 1.7690	26.0800
 1.7700	26.0610
 1.7710	26.0450
 1.7720	26.0260
 1.7730	26.0070
 1.7740	25.9880
 1.7750	25.9650
 1.7760	25.9470
 1.7770	25.9340
 1.7780	25.9200
 1.7790	25.9060
 1.7800	25.8940
 1.7810	25.8830
 1.7820	25.8730
 1.7830	25.8650
 1.7840	25.8590
 1.7850	25.8520
 1.7860	25.8480
 1.7870	25.8450
 1.7880	25.8440
 1.7890	25.8410
 1.7900	25.8410
 1.7910	25.8410
 1.7920	25.8420
 1.7930	25.8430
 1.7940	25.8430
 1.7950	25.8450
 1.7960	25.8500
 1.7970	25.8540
 1.7980	25.8580
 1.7990	25.8640
 1.8000	25.8690
 1.8010	25.8740
 1.8020	25.8790
 1.8030	25.8860
 1.8040	25.8920
 1.8050	25.8990
 1.8060	25.9060
 1.8070	25.9130
 1.8080	25.9190
 1.8090	25.9240
 1.8100	25.9300
 1.8110	25.9320
 1.8120	25.9340
 1.8130	25.9380
 1.8140	25.9400
 1.8150	25.9420
 1.8160	25.9440
 1.8170	25.9460
 1.8180	25.9480
 1.8190	25.9510
 1.8200	25.9510
 1.8210	25.9480
 1.8220	25.9460
 1.8230	25.9440
 1.8240	25.9420
 1.8250	25.9420
 1.8260	25.9400
 1.8270	25.9370
 1.8280	25.9320
 1.8290	25.9220
 1.8300	25.9130
 1.8310	25.5740
 1.8320	25.5590
 1.8330	25.5410
 1.8340	25.5220
 1.8350	25.5040
 1.8360	25.4830
 1.8370	25.4610
 1.8380	25.4360
 1.8390	25.4090
 1.8400	25.3830
 1.8410	25.3480
 1.8420	25.3090
 1.8430	25.2680
 1.8440	25.2210
 1.8450	25.1680
 1.8460	25.1110
 1.8470	25.0470
 1.8480	24.9790
 1.8490	24.9090
 1.8500	24.8320
 1.8510	24.7520
 1.8520	24.6620
 1.8530	24.5630
 1.8540	24.4530
 1.8550	24.3320
 1.8560	24.2050
 1.8570	24.0690
 1.8580	23.9210
 1.8590	23.7650
 1.8600	23.6000
 1.8610	23.4220
 1.8620	23.2330
 1.8630	23.0310
 1.8640	22.8130
 1.8650	22.5800
 1.8660	22.3310
 1.8670	22.0660
 1.8680	21.7860
 1.8690	21.4880
 1.8700	21.1740
 1.8710	20.8450
 1.8720	20.5030
 1.8730	20.1470
 1.8740	19.7810
 1.8750	19.4040
 1.8760	19.0100
 1.8770	18.6070
 1.8780	18.1940
 1.8790	17.7680
 1.8800	17.3420
 1.8810	16.9110
 1.8820	16.4730
 1.8830	16.0290
 1.8840	15.5860
 1.8850	15.1370
 1.8860	14.6890
 1.8870	14.2470
 1.8880	13.8080
 1.8890	13.3810
 1.8900	12.9670
 1.8910	12.5660
 1.8920	12.1750
 1.8930	11.8030
 1.8940	11.4430
 1.8950	11.1000
 1.8960	10.7760
 1.8970	10.4690
 1.8980	10.1860
 1.8990	 9.9230
 1.9000	 9.6760
 1.9010	 9.4490
 1.9020	 9.2380
 1.9030	 9.0450
 1.9040	 8.8650
 1.9050	 8.7070
 1.9060	 8.5600
 1.9070	 8.4250
 1.9080	 8.3050
 1.9090	 8.1950
 1.9100	 8.0980
 1.9110	 8.0090
 1.9120	 7.9320
 1.9130	 7.8620
 1.9140	 7.8010
 1.9150	 7.7500
 1.9160	 7.7010
 1.9170	 7.6600
 1.9180	 7.6230
 1.9190	 7.5880
 1.9200	 7.5580
 1.9210	 7.5340
 1.9220	 7.5140
 1.9230	 7.5000
 1.9240	 7.4870
 1.9250	 7.4780
 1.9260	 7.4720
 1.9270	 7.4680
 1.9280	 7.4650
 1.9290	 7.4660
 1.9300	 7.4700
 1.9310	 7.4750
 1.9320	 7.4860
 1.9330	 7.4990
 1.9340	 7.5150
 1.9350	 7.5330
 1.9360	 7.5560
 1.9370	 7.5770
 1.9380	 7.5980
 1.9390	 7.6210
 1.9400	 7.6450
 1.9410	 7.6730
 1.9420	 7.7030
 1.9430	 7.7340
 1.9440	 7.7680
 1.9450	 7.8050
 1.9460	 7.8430
 1.9470	 7.8850
 1.9480	 7.9250
 1.9490	 7.9650
 1.9500	 8.0070
 1.9510	 8.0510
 1.9520	 8.0960
 1.9530	 8.1440
 1.9540	 8.1910
 1.9550	 8.2400
 1.9560	 8.2880
 1.9570	 8.3400
 1.9580	 8.3930
 1.9590	 8.4480
 1.9600	 8.5040
 1.9610	 8.5610
 1.9620	 8.6220
 1.9630	 8.6790
 1.9640	 8.7350
 1.9650	 8.7930
 1.9660	 8.8510
 1.9670	 8.9100
 1.9680	 8.9710
 1.9690	 9.0350
 1.9700	 9.0990
 1.9710	 9.1630
 1.9720	 9.2280
 1.9730	 9.2920
 1.9740	 9.3590
 1.9750	 9.4270
 1.9760	 9.4960
 1.9770	 9.5690
 1.9780	 9.6420
 1.9790	 9.7130
 1.9800	 9.7840
 1.9810	 9.8550
 1.9820	 9.9240
 1.9830	 9.9950
 1.9840	10.0660
 1.9850	10.1390
 1.9860	10.2130
 1.9870	10.2900
 1.9880	10.3670
 1.9890	10.4440
 1.9900	10.5190
 1.9910	10.5940
 1.9920	10.6710
 1.9930	10.7490
 1.9940	10.8260
 1.9950	10.9020
 1.9960	10.9780
 1.9970	11.0540
 1.9980	11.1310
 1.9990	11.2100
 2.0000	11.2880
 2.0010	11.3680
 2.0020	11.4440
 2.0030	11.5180
 2.0040	11.5930
 2.0050	11.6680
 2.0060	11.7400
 2.0070	11.8140
 2.0080	11.8920
 2.0090	11.9670
 2.0100	12.0430
 2.0110	12.1170
 2.0120	12.1900
 2.0130	12.2620
 2.0140	12.3320
 2.0150	12.4030
 2.0160	12.4740
 2.0170	12.5450
 2.0180	12.6150
 2.0190	12.6850
 2.0200	12.7520
 2.0210	12.8170
 2.0220	12.8820
 2.0230	12.9460
 2.0240	13.0090
 2.0250	13.0720
 2.0260	13.1330
 2.0270	13.1940
 2.0280	13.2520
 2.0290	13.3080
 2.0300	13.3630
 2.0310	13.4200
 2.0320	13.4770
 2.0330	13.5330
 2.0340	13.5930
 2.0350	13.6470
 2.0360	13.6950
 2.0370	13.7450
 2.0380	13.7940
 2.0390	13.8410
 2.0400	13.8860
 2.0410	13.9320
 2.0420	13.9780
 2.0430	14.0200
 2.0440	14.0640
 2.0450	14.1100
 2.0460	14.1540
 2.0470	14.1980
 2.0480	14.2410
 2.0490	14.2840
 2.0500	14.3250
 2.0510	14.3640
 2.0520	14.4050
 2.0530	14.4470
 2.0540	14.4900
 2.0550	14.5350
 2.0560	14.5800
 2.0570	14.6230
 2.0580	14.6670
 2.0590	14.7140
 2.0600	14.7610
 2.0610	14.8100
 2.0620	14.8640
 2.0630	14.9120
 2.0640	14.9590
 2.0650	15.0070
 2.0660	15.0510
 2.0670	15.0990
 2.0680	15.1520
 2.0690	15.2010
 2.0700	15.2490
 2.0710	15.2970
 2.0720	15.3430
 2.0730	15.3870
 2.0740	15.4330
 2.0750	15.4800
 2.0760	15.5260
 2.0770	15.5720
 2.0780	15.6190
 2.0790	15.6670
 2.0800	15.7130
 2.0810	15.7590
 2.0820	15.8040
 2.0830	15.8480
 2.0840	15.8920
 2.0850	15.9370
 2.0860	15.9800
 2.0870	16.0210
 2.0880	16.0620
 2.0890	16.1020
 2.0900	16.1400
 2.0910	16.1800
 2.0920	16.2190
 2.0930	16.2610
 2.0940	16.3060
 2.0950	16.3470
 2.0960	16.3900
 2.0970	16.4300
 2.0980	16.4670
 2.0990	16.5050
 2.1000	16.5400
 2.1010	16.5780
 2.1020	16.6180
 2.1030	16.6570
 2.1040	16.6970
 2.1050	16.7380
 2.1060	16.7750
 2.1070	16.8100
 2.1080	16.8470
 2.1090	16.8830
 2.1100	16.9200
 2.1110	16.9610
 2.1120	16.9980
 2.1130	17.0350
 2.1140	17.0690
 2.1150	17.0990
 2.1160	17.1300
 2.1170	17.1560
 2.1180	17.1860
 2.1190	17.2190
 2.1200	17.2520
 2.1210	17.2890
 2.1220	17.3240
 2.1230	17.3560
 2.1240	17.3860
 2.1250	17.4160
 2.1260	17.4420
 2.1270	17.4700
 2.1280	17.4990
 2.1290	17.5250
 2.1300	17.5470
 2.1310	17.5710
 2.1320	17.5930
 2.1330	17.6170
 2.1340	17.6440
 2.1350	17.6680
 2.1360	17.6910
 2.1370	17.7130
 2.1380	17.7310
 2.1390	17.7490
 2.1400	17.7650
 2.1410	17.7800
 2.1420	17.7980
 2.1430	17.8160
 2.1440	17.8350
 2.1450	17.8580
 2.1460	17.8740
 2.1470	17.8870
 2.1480	17.9020
 2.1490	17.9130
 2.1500	17.9290
 2.1510	17.9500
 2.1520	17.9680
 2.1530	17.9870
 2.1540	18.0020
 2.1550	18.0110
 2.1560	18.0230
 2.1570	18.0340
 2.1580	18.0450
 2.1590	18.0580
 2.1600	18.0710
 2.1610	18.0830
 2.1620	18.0960
 2.1630	18.1090
 2.1640	18.1220
 2.1650	18.1350
 2.1660	18.1470
 2.1670	18.1610
 2.1680	18.1740
 2.1690	18.1880
 2.1700	18.2040
 2.1710	18.2180
 2.1720	18.2290
 2.1730	18.2420
 2.1740	18.2550
 2.1750	18.2680
 2.1760	18.2830
 2.1770	18.2970
 2.1780	18.3110
 2.1790	18.3240
 2.1800	18.3370
 2.1810	18.3520
 2.1820	18.3680
 2.1830	18.3850
 2.1840	18.4010
 2.1850	18.4180
 2.1860	18.4360
 2.1870	18.4530
 2.1880	18.4720
 2.1890	18.4930
 2.1900	18.5130
 2.1910	18.5340
 2.1920	18.5530
 2.1930	18.5720
 2.1940	18.5900
 2.1950	18.6070
 2.1960	18.6230
 2.1970	18.6390
 2.1980	18.6550
 2.1990	18.6720
 2.2000	18.6850
 2.2010	18.6950
 2.2020	18.7080
 2.2030	18.7220
 2.2040	18.7330
 2.2050	18.7450
 2.2060	18.7570
 2.2070	18.7660
 2.2080	18.7720
 2.2090	18.7780
 2.2100	18.7820
 2.2110	18.7880
 2.2120	18.7910
 2.2130	18.7960
 2.2140	18.8050
 2.2150	18.8090
 2.2160	18.8110
 2.2170	18.8130
 2.2180	18.8120
 2.2190	18.8140
 2.2200	18.8200
 2.2210	18.8220
 2.2220	18.8280
 2.2230	18.8240
 2.2240	18.8110
 2.2250	18.7990
 2.2260	18.7810
 2.2270	18.7640
 2.2280	18.7480
 2.2290	18.7280
 2.2300	18.7030
 2.2310	18.6780
 2.2320	18.6520
 2.2330	18.6230
 2.2340	18.5920
 2.2350	18.5630
 2.2360	18.5270
 2.2370	18.4850
 2.2380	18.4440
 2.2390	18.4010
 2.2400	18.3550
 2.2410	18.3050
 2.2420	18.2560
 2.2430	18.2040
 2.2440	18.1530
 2.2450	18.1050
 2.2460	18.0510
 2.2470	17.9920
 2.2480	17.9350
 2.2490	17.8740
 2.2500	17.8150
 2.2510	17.7590
 2.2520	17.7010
 2.2530	17.6440
 2.2540	17.5840
 2.2550	17.5200
 2.2560	17.4580
 2.2570	17.3930
 2.2580	17.3310
 2.2590	17.2700
 2.2600	17.2080
 2.2610	17.1470
 2.2620	17.0840
 2.2630	17.0260
 2.2640	16.9710
 2.2650	16.9160
 2.2660	16.8640
 2.2670	16.8100
 2.2680	16.7520
 2.2690	16.7020
 2.2700	16.6570
 2.2710	16.6120
 2.2720	16.5720
 2.2730	16.5320
 2.2740	16.4930
 2.2750	16.4560
 2.2760	16.4230
 2.2770	16.3880
 2.2780	16.3540
 2.2790	16.3190
 2.2800	16.2850
 2.2810	16.2490
 2.2820	16.2140
 2.2830	16.1760
 2.2840	16.1340
 2.2850	16.0940
 2.2860	16.0500
 2.2870	16.0110
 2.2880	15.9740
 2.2890	15.9370
 2.2900	15.9040
 2.2910	15.8670
 2.2920	15.8290
 2.2930	15.7870
 2.2940	15.7440
 2.2950	15.6950
 2.2960	15.6370
 2.2970	15.5850
 2.2980	15.5320
 2.2990	15.4750
 2.3000	15.4260
 2.3010	15.3790
 2.3020	15.3350
 2.3030	15.2930
 2.3040	15.2460
 2.3050	15.2020
 2.3060	15.1610
 2.3070	15.1190
 2.3080	15.0830
 2.3090	15.0520
 2.3100	15.0160
 2.3110	14.9860
 2.3120	14.9610
 2.3130	14.9410
 2.3140	14.9250
 2.3150	14.9160
 2.3160	14.9010
 2.3170	14.8880
 2.3180	14.8740
 2.3190	14.8580
 2.3200	14.8390
 2.3210	14.8210
 2.3220	14.8030
 2.3230	14.7860
 2.3240	14.7660
 2.3250	14.7470
 2.3260	14.7260
 2.3270	14.7000
 2.3280	14.6740
 2.3290	14.6490
 2.3300	14.6220
 2.3310	14.5920
 2.3320	14.5620
 2.3330	14.5340
 2.3340	14.5010
 2.3350	14.4640
 2.3360	14.4300
 2.3370	14.3950
 2.3380	14.3590
 2.3390	14.3230
 2.3400	14.2850
 2.3410	14.2430
 2.3420	14.2020
 2.3430	14.1610
 2.3440	14.1210
 2.3450	14.0830
 2.3460	14.0440
 2.3470	14.0080
 2.3480	13.9730
 2.3490	13.9380
 2.3500	13.9050
 2.3510	13.8740
 2.3520	13.8460
 2.3530	13.8220
 2.3540	13.7940
 2.3550	13.7690
 2.3560	13.7360
 2.3570	13.7100
 2.3580	13.6840
 2.3590	13.6520
 2.3600	13.6340
 2.3610	13.6100
 2.3620	13.5800
 2.3630	13.5520
 2.3640	13.5170
 2.3650	13.4860
 2.3660	13.4580
 2.3670	13.4370
 2.3680	13.4080
 2.3690	13.3680
 2.3700	13.3300
 2.3710	13.2860
 2.3720	13.2550
 2.3730	13.2300
 2.3740	13.1940
 2.3750	13.1650
 2.3760	13.1310
 2.3770	13.0870
 2.3780	13.0520
 2.3790	13.0110
 2.3800	12.9700
 2.3810	12.9390
 2.3820	12.9030
 2.3830	12.8760
 2.3840	12.8490
 2.3850	12.8130
 2.3860	12.7810
 2.3870	12.7440
 2.3880	12.7060
 2.3890	12.6700
 2.3900	12.6330
 2.3910	12.5960
 2.3920	12.5490
 2.3930	12.5070
 2.3940	12.4580
 2.3950	12.4030
 2.3960	12.3660
 2.3970	12.3330
 2.3980	12.2990
 2.3990	12.2710
 2.4000	12.2270
 2.4010	12.1700
 2.4020	12.1220
 2.4030	12.0780
 2.4040	12.0390
 2.4050	12.0080
 2.4060	11.9750
 2.4070	11.9330
 2.4080	11.8860
 2.4090	11.8360
 2.4100	11.7790
 2.4110	11.7270
 2.4120	11.6940
 2.4130	11.6660
 2.4140	11.6320
 2.4150	11.5870
 2.4160	11.5260
 2.4170	11.4580
 2.4180	11.4110
 2.4190	11.3770
 2.4200	11.3300
 2.4210	11.2900
 2.4220	11.2490
 2.4230	11.1830
 2.4240	11.1430
 2.4250	11.1100
 2.4260	11.0450
 2.4270	11.0070
 2.4280	10.9720
 2.4290	10.9060
 2.4300	10.8560
 2.4310	10.8150
 2.4320	10.7660
 2.4330	10.7320
 2.4340	10.7040
 2.4350	10.6500
 2.4360	10.5870
 2.4370	10.5330
 2.4380	10.4770
 2.4390	10.4280
 2.4400	10.3800
 2.4410	10.3400
 2.4420	10.2970
 2.4430	10.2360
 2.4440	10.1880
 2.4450	10.1360
 2.4460	10.0750
 2.4470	10.0250
 2.4480	 9.9690
 2.4490	 9.9000
 2.4500	 9.8300
 2.4510	 9.7900
 2.4520	 9.7740
 2.4530	 9.7630
 2.4540	 9.7500
 2.4550	 9.7090
 2.4560	 9.6450
 2.4570	 9.5670
 2.4580	 9.4920
 2.4590	 9.4460
 2.4600	 9.3920
 2.4610	 9.3580
 2.4620	 9.3350
 2.4630	 9.2780
 2.4640	 9.2350
 2.4650	 9.1920
 2.4660	 9.1450
 2.4670	 9.1250
 2.4680	 9.1220
 2.4690	 9.0990
 2.4700	 9.0710
 2.4710	 9.0250
 2.4720	 8.9810
 2.4730	 8.9420
 2.4740	 8.9120
 2.4750	 8.8750
 2.4760	 8.8480
 2.4770	 8.8340
 2.4780	 8.7850
 2.4790	 8.7250
 2.4800	 8.6770
 2.4810	 8.6080
 2.4820	 8.5940
 2.4830	 8.5900
 2.4840	 8.5780
 2.4850	 8.5590
 2.4860	 8.5530
 2.4870	 8.5220
 2.4880	 8.4970
 2.4890	 8.5150
 2.4900	 8.5040
 2.4910	 8.4730
 2.4920	 8.4620
 2.4930	 8.4340
 2.4940	 8.4560
 2.4950	 8.5080
 2.4960	 8.4970
 2.4970	 8.4550
 2.4980	 8.3450
 2.4990	 8.2660
 2.5000	 8.2930
