Name: Baccharis pilularis 1
Type: vegetation
Class: Shrub
Genus: Baccharis
Species: pilularis
Sample No.: VH224
Owner: UCSB
Wavelength Range: TIR
Origin: 34.5084; -119.7687; WGS84
Collection Date: 10/13/2013
Description: Samples were collected as part of the HyspIRI Airborne Campaign. 48 individual plants were sampled in three times in 2013 - spring  summer  and fall. The name of the sample includes a 1  2  or 3 which references a different individual of the species. Samples were taken to JPL and processed within 48 hours of collection. The same leaves were processed in the Nicolet and then measured using the ASD.
Measurement: Hemispherical reflectance
First Column: X
Second Column: Y
X Units: Wavelength (micrometers)
Y Units: Reflectance (percentage)
First X Value: 2.501
Last X Value: 15.387
Number of X Values: 1737
Additional Information: vegetation.shrub.baccharis.pilularis.tir.vh224.ucsb.nicolet.ancillary.txt

 2.5010	 7.0000
 2.5030	 7.2650
 2.5040	 7.3000
 2.5050	 7.0590
 2.5060	 7.0840
 2.5070	 6.9790
 2.5090	 7.0020
 2.5100	 6.9420
 2.5110	 6.8540
 2.5120	 6.7050
 2.5140	 6.8280
 2.5150	 6.7410
 2.5160	 6.7020
 2.5170	 6.7040
 2.5180	 6.7240
 2.5200	 6.8400
 2.5210	 6.9510
 2.5220	 6.9700
 2.5230	 7.0000
 2.5250	 7.0460
 2.5260	 7.0340
 2.5270	 6.8990
 2.5280	 6.8680
 2.5290	 6.7400
 2.5310	 6.8810
 2.5320	 6.8430
 2.5330	 6.7050
 2.5340	 6.7220
 2.5360	 6.8380
 2.5370	 7.0260
 2.5380	 6.9800
 2.5390	 6.7100
 2.5410	 6.8630
 2.5420	 7.0370
 2.5430	 6.9460
 2.5440	 6.8670
 2.5460	 6.9460
 2.5470	 6.9170
 2.5480	 6.9690
 2.5490	 7.0600
 2.5510	 6.9660
 2.5520	 6.9570
 2.5530	 7.1330
 2.5540	 7.0230
 2.5560	 6.9610
 2.5570	 7.0780
 2.5580	 7.1650
 2.5590	 7.1860
 2.5610	 7.0810
 2.5620	 6.9160
 2.5630	 6.9280
 2.5640	 7.0220
 2.5660	 7.1680
 2.5670	 7.1700
 2.5680	 7.1270
 2.5700	 6.9590
 2.5710	 6.8520
 2.5720	 6.8030
 2.5730	 6.9610
 2.5750	 6.9510
 2.5760	 6.9060
 2.5770	 6.9060
 2.5790	 6.9210
 2.5800	 6.9940
 2.5810	 7.2200
 2.5820	 7.1590
 2.5840	 6.9740
 2.5850	 6.9310
 2.5860	 6.8940
 2.5880	 7.0520
 2.5890	 7.1570
 2.5900	 7.1610
 2.5910	 7.1900
 2.5930	 6.8200
 2.5940	 6.6440
 2.5950	 6.6940
 2.5970	 6.7620
 2.5980	 6.8780
 2.5990	 6.9420
 2.6000	 6.9220
 2.6020	 6.9170
 2.6030	 6.7550
 2.6040	 6.8600
 2.6060	 7.0070
 2.6070	 6.8430
 2.6080	 6.6800
 2.6100	 6.8370
 2.6110	 6.7620
 2.6120	 6.8530
 2.6140	 6.9760
 2.6150	 6.9240
 2.6160	 6.7910
 2.6180	 6.8300
 2.6190	 6.7710
 2.6200	 6.7300
 2.6220	 6.7090
 2.6230	 6.7740
 2.6240	 6.8320
 2.6260	 6.7230
 2.6270	 6.7220
 2.6280	 6.8480
 2.6300	 6.8280
 2.6310	 6.7420
 2.6320	 6.6370
 2.6340	 6.6000
 2.6350	 6.5740
 2.6360	 6.6590
 2.6380	 6.6570
 2.6390	 6.7040
 2.6400	 6.6840
 2.6420	 6.5910
 2.6430	 6.5710
 2.6440	 6.5860
 2.6460	 6.3900
 2.6470	 6.4080
 2.6480	 6.5190
 2.6500	 6.6000
 2.6510	 6.6270
 2.6520	 6.6130
 2.6540	 6.5490
 2.6550	 6.5020
 2.6560	 6.4710
 2.6580	 6.5390
 2.6590	 6.5350
 2.6610	 6.5270
 2.6620	 6.4070
 2.6630	 6.5190
 2.6650	 6.4990
 2.6660	 6.4250
 2.6670	 6.5750
 2.6690	 6.7430
 2.6700	 6.3840
 2.6720	 6.1090
 2.6730	 6.1400
 2.6740	 6.2360
 2.6760	 6.3160
 2.6770	 6.2190
 2.6780	 6.1360
 2.6800	 6.2900
 2.6810	 6.4460
 2.6830	 6.4420
 2.6840	 6.2330
 2.6850	 6.1020
 2.6870	 6.1060
 2.6880	 6.0420
 2.6900	 6.0020
 2.6910	 6.1920
 2.6920	 6.3320
 2.6940	 6.3560
 2.6950	 6.3070
 2.6970	 6.3150
 2.6980	 6.2840
 2.6990	 6.2020
 2.7010	 6.0440
 2.7020	 6.1090
 2.7040	 6.0050
 2.7050	 6.0430
 2.7060	 6.0570
 2.7080	 6.0760
 2.7090	 6.0290
 2.7110	 6.1020
 2.7120	 6.1520
 2.7130	 6.2870
 2.7150	 6.3550
 2.7160	 6.2600
 2.7180	 6.1370
 2.7190	 6.0880
 2.7210	 5.8780
 2.7220	 5.7490
 2.7230	 5.8290
 2.7250	 6.1660
 2.7260	 5.8890
 2.7280	 5.6580
 2.7290	 5.5370
 2.7310	 5.3120
 2.7320	 5.5590
 2.7330	 6.0880
 2.7350	 5.9970
 2.7360	 5.8880
 2.7380	 5.7280
 2.7390	 5.7830
 2.7410	 5.6260
 2.7420	 5.5650
 2.7440	 5.3640
 2.7450	 5.4600
 2.7470	 5.1290
 2.7480	 5.2410
 2.7490	 5.4840
 2.7510	 4.8330
 2.7520	 4.8810
 2.7540	 6.2420
 2.7550	 6.9580
 2.7570	 6.5540
 2.7580	 5.7860
 2.7600	 5.6060
 2.7610	 5.9230
 2.7630	 5.8300
 2.7640	 5.5160
 2.7660	 5.4650
 2.7670	 5.3380
 2.7680	 5.4850
 2.7700	 5.8750
 2.7710	 5.8170
 2.7730	 5.6460
 2.7740	 5.7580
 2.7760	 5.7080
 2.7770	 5.8660
 2.7790	 5.9800
 2.7800	 5.5220
 2.7820	 5.0640
 2.7830	 5.2920
 2.7850	 5.5220
 2.7860	 5.2830
 2.7880	 5.3140
 2.7890	 5.4040
 2.7910	 5.2490
 2.7920	 5.3770
 2.7940	 5.5270
 2.7950	 5.5780
 2.7970	 5.2780
 2.7980	 5.1970
 2.8000	 5.3240
 2.8010	 5.4150
 2.8030	 5.3300
 2.8040	 5.4720
 2.8060	 5.4770
 2.8070	 5.3740
 2.8090	 5.2010
 2.8110	 5.3180
 2.8120	 5.1970
 2.8140	 5.1880
 2.8150	 5.1360
 2.8170	 5.1660
 2.8180	 5.1410
 2.8200	 5.0650
 2.8210	 5.2570
 2.8230	 5.3700
 2.8240	 5.3970
 2.8260	 5.3780
 2.8270	 5.0800
 2.8290	 5.0900
 2.8300	 5.1540
 2.8320	 5.0090
 2.8340	 5.0410
 2.8350	 5.3630
 2.8370	 5.0250
 2.8380	 4.9910
 2.8400	 5.1370
 2.8410	 5.3820
 2.8430	 5.4340
 2.8440	 5.0920
 2.8460	 4.7330
 2.8480	 4.8920
 2.8490	 5.0590
 2.8510	 5.0840
 2.8520	 4.9930
 2.8540	 5.1060
 2.8550	 5.1420
 2.8570	 5.2030
 2.8590	 5.1140
 2.8600	 5.0710
 2.8620	 4.9960
 2.8630	 5.1280
 2.8650	 4.9940
 2.8660	 4.9240
 2.8680	 4.8800
 2.8700	 5.0850
 2.8710	 5.0150
 2.8730	 4.8340
 2.8740	 4.8030
 2.8760	 4.9220
 2.8780	 4.7960
 2.8790	 5.1370
 2.8810	 5.5150
 2.8820	 5.6600
 2.8840	 5.7250
 2.8860	 5.5750
 2.8870	 5.1220
 2.8890	 4.6660
 2.8900	 4.8300
 2.8920	 5.2120
 2.8940	 5.1120
 2.8950	 5.1420
 2.8970	 4.9380
 2.8980	 4.4710
 2.9000	 4.2910
 2.9020	 5.1960
 2.9030	 5.2950
 2.9050	 4.8650
 2.9070	 4.9290
 2.9080	 5.5340
 2.9100	 5.4620
 2.9120	 5.0610
 2.9130	 5.1300
 2.9150	 5.1280
 2.9160	 5.0570
 2.9180	 5.1400
 2.9200	 5.1520
 2.9210	 5.0020
 2.9230	 4.9280
 2.9250	 5.0220
 2.9260	 5.0370
 2.9280	 5.1150
 2.9300	 5.1970
 2.9310	 5.2320
 2.9330	 5.0810
 2.9350	 5.1280
 2.9360	 5.1850
 2.9380	 5.1730
 2.9400	 5.0360
 2.9410	 4.9510
 2.9430	 4.9380
 2.9450	 5.0750
 2.9460	 5.2320
 2.9480	 5.4390
 2.9500	 5.2890
 2.9510	 5.6290
 2.9530	 5.4420
 2.9550	 5.0290
 2.9560	 5.3270
 2.9580	 4.7710
 2.9600	 4.2930
 2.9610	 4.1450
 2.9630	 4.2020
 2.9650	 6.3610
 2.9660	 7.2620
 2.9680	 6.4010
 2.9700	 5.7220
 2.9720	 5.0220
 2.9730	 5.5430
 2.9750	 4.1090
 2.9770	 3.7690
 2.9780	 5.5200
 2.9800	 5.1660
 2.9820	 4.2390
 2.9840	 4.4450
 2.9850	 4.6870
 2.9870	 3.9240
 2.9890	 3.9570
 2.9900	 3.0020
 2.9920	 4.7530
 2.9940	 7.4660
 2.9960	 6.6790
 2.9970	 6.2620
 2.9990	 5.3400
 3.0010	 5.3710
 3.0030	 5.1570
 3.0040	 4.9740
 3.0060	 3.6940
 3.0080	 3.9840
 3.0100	 5.0240
 3.0110	 5.3250
 3.0130	 4.5780
 3.0150	 4.1270
 3.0170	 5.5780
 3.0180	 5.1070
 3.0200	 4.9770
 3.0220	 5.6770
 3.0240	 4.8630
 3.0250	 4.9130
 3.0270	 5.0160
 3.0290	 4.6480
 3.0310	 5.3490
 3.0320	 6.0430
 3.0340	 5.8230
 3.0360	 5.5250
 3.0380	 4.6080
 3.0400	 4.5420
 3.0410	 4.7830
 3.0430	 4.4600
 3.0450	 3.8110
 3.0470	 4.7620
 3.0480	 3.6400
 3.0500	 2.1830
 3.0520	 3.4370
 3.0540	 4.1380
 3.0560	 4.5210
 3.0570	 6.0920
 3.0590	 8.3420
 3.0610	 7.5570
 3.0630	 6.9800
 3.0650	 6.2670
 3.0660	 3.8470
 3.0680	 4.0920
 3.0700	 5.6590
 3.0720	 6.0980
 3.0740	 6.1180
 3.0760	 5.6680
 3.0770	 4.8700
 3.0790	 4.8960
 3.0810	 5.5250
 3.0830	 5.5480
 3.0850	 5.4170
 3.0870	 5.3180
 3.0880	 5.2530
 3.0900	 5.1700
 3.0920	 5.3890
 3.0940	 5.4630
 3.0960	 5.3160
 3.0980	 5.3320
 3.0990	 5.5920
 3.1010	 5.5930
 3.1030	 5.5330
 3.1050	 5.3350
 3.1070	 5.3600
 3.1090	 5.3890
 3.1110	 5.5170
 3.1120	 5.6220
 3.1140	 5.1810
 3.1160	 5.1410
 3.1180	 5.5980
 3.1200	 5.3270
 3.1220	 5.1160
 3.1240	 5.2310
 3.1260	 5.3230
 3.1270	 5.2760
 3.1290	 5.5810
 3.1310	 5.6750
 3.1330	 5.4150
 3.1350	 5.3340
 3.1370	 5.5010
 3.1390	 6.0080
 3.1410	 6.1670
 3.1430	 5.8170
 3.1450	 6.2490
 3.1460	 4.9440
 3.1480	 4.0000
 3.1500	 4.6090
 3.1520	 4.8480
 3.1540	 5.1960
 3.1560	 4.7110
 3.1580	 3.4070
 3.1600	 2.4550
 3.1620	 2.4400
 3.1640	 5.0190
 3.1660	 4.8610
 3.1680	 3.7190
 3.1700	 3.9970
 3.1710	 4.8300
 3.1730	 4.1350
 3.1750	 5.4710
 3.1770	 7.2510
 3.1790	 8.0080
 3.1810	 7.2590
 3.1830	 6.4380
 3.1850	 5.2320
 3.1870	 4.5900
 3.1890	 5.0790
 3.1910	 5.6070
 3.1930	 5.5490
 3.1950	 5.4490
 3.1970	 5.5110
 3.1990	 5.2990
 3.2010	 5.3750
 3.2030	 5.3740
 3.2050	 5.5430
 3.2070	 5.7230
 3.2090	 5.6190
 3.2110	 5.6160
 3.2130	 5.0380
 3.2150	 5.1680
 3.2170	 5.6460
 3.2190	 5.6100
 3.2210	 5.5700
 3.2230	 5.7310
 3.2250	 5.6070
 3.2270	 5.4630
 3.2290	 5.6800
 3.2310	 5.7600
 3.2330	 5.6120
 3.2350	 5.5060
 3.2370	 5.5680
 3.2390	 5.7890
 3.2410	 5.5320
 3.2430	 5.4670
 3.2450	 5.6520
 3.2470	 5.5720
 3.2490	 5.4250
 3.2510	 5.5400
 3.2530	 5.7340
 3.2550	 5.4690
 3.2570	 5.5210
 3.2590	 6.1690
 3.2610	 5.8810
 3.2630	 5.3530
 3.2650	 5.3110
 3.2670	 5.4620
 3.2690	 5.4460
 3.2720	 5.5220
 3.2740	 5.6740
 3.2760	 5.8250
 3.2780	 5.6950
 3.2800	 5.4000
 3.2820	 5.3430
 3.2840	 5.7460
 3.2860	 5.5960
 3.2880	 5.4910
 3.2900	 5.5450
 3.2920	 5.2330
 3.2940	 5.3440
 3.2960	 5.7370
 3.2990	 5.5860
 3.3010	 5.6070
 3.3030	 5.4440
 3.3050	 5.2860
 3.3070	 5.5820
 3.3090	 5.6100
 3.3110	 5.3230
 3.3130	 5.1110
 3.3150	 5.1730
 3.3180	 5.2570
 3.3200	 5.2670
 3.3220	 5.4100
 3.3240	 5.5190
 3.3260	 5.3890
 3.3280	 5.3430
 3.3300	 5.2680
 3.3330	 5.3730
 3.3350	 5.5540
 3.3370	 5.4820
 3.3390	 5.3390
 3.3410	 5.2250
 3.3430	 5.2890
 3.3450	 5.3290
 3.3480	 5.4410
 3.3500	 5.3090
 3.3520	 5.2050
 3.3540	 5.1820
 3.3560	 5.1880
 3.3580	 5.1320
 3.3610	 5.0190
 3.3630	 5.0230
 3.3650	 5.1560
 3.3670	 5.2700
 3.3690	 5.2590
 3.3720	 5.2000
 3.3740	 5.2120
 3.3760	 5.2470
 3.3780	 5.2670
 3.3800	 5.1490
 3.3830	 5.2840
 3.3850	 5.5270
 3.3870	 5.3300
 3.3890	 5.0420
 3.3910	 5.2150
 3.3940	 5.1840
 3.3960	 5.0150
 3.3980	 5.0230
 3.4000	 5.2470
 3.4020	 5.3460
 3.4050	 5.3220
 3.4070	 5.2760
 3.4090	 5.4870
 3.4110	 5.6320
 3.4140	 5.8370
 3.4160	 6.0760
 3.4180	 6.4700
 3.4200	 6.9570
 3.4230	 7.4780
 3.4250	 8.0740
 3.4270	 8.7730
 3.4290	 9.1110
 3.4320	 8.7940
 3.4340	 8.0360
 3.4360	 7.2640
 3.4390	 6.6080
 3.4410	 6.3820
 3.4430	 6.3430
 3.4450	 6.2070
 3.4480	 5.9320
 3.4500	 6.2200
 3.4520	 6.3880
 3.4550	 6.4460
 3.4570	 6.1000
 3.4590	 6.1800
 3.4620	 6.3020
 3.4640	 6.2560
 3.4660	 6.1160
 3.4680	 5.9960
 3.4710	 5.9780
 3.4730	 5.8850
 3.4750	 5.7670
 3.4780	 5.7660
 3.4800	 5.7800
 3.4820	 5.8140
 3.4850	 5.7190
 3.4870	 5.8360
 3.4890	 5.8420
 3.4920	 5.7170
 3.4940	 5.7030
 3.4970	 5.7500
 3.4990	 5.8810
 3.5010	 6.1350
 3.5040	 6.2860
 3.5060	 6.8350
 3.5080	 7.6750
 3.5110	 8.4470
 3.5130	 8.3560
 3.5160	 7.6510
 3.5180	 7.0970
 3.5200	 6.6870
 3.5230	 6.5440
 3.5250	 6.4580
 3.5270	 6.4770
 3.5300	 6.3910
 3.5320	 6.1840
 3.5350	 6.0530
 3.5370	 6.1510
 3.5400	 6.3300
 3.5420	 6.0740
 3.5440	 5.8230
 3.5470	 5.8890
 3.5490	 5.9780
 3.5520	 5.9510
 3.5540	 6.0800
 3.5570	 6.2840
 3.5590	 6.2510
 3.5610	 6.1580
 3.5640	 6.1810
 3.5660	 6.2620
 3.5690	 6.3250
 3.5710	 6.2430
 3.5740	 6.0440
 3.5760	 6.0060
 3.5790	 6.0850
 3.5810	 6.0670
 3.5840	 5.9870
 3.5860	 5.9670
 3.5890	 5.9890
 3.5910	 6.0540
 3.5930	 6.1190
 3.5960	 5.8800
 3.5980	 5.9070
 3.6010	 6.1570
 3.6030	 6.0560
 3.6060	 5.9960
 3.6080	 5.9660
 3.6110	 5.9080
 3.6140	 5.9840
 3.6160	 6.1230
 3.6190	 6.1540
 3.6210	 6.1100
 3.6240	 6.0460
 3.6260	 6.0840
 3.6290	 6.2210
 3.6310	 6.2750
 3.6340	 6.1590
 3.6360	 5.9230
 3.6390	 5.8520
 3.6410	 6.0520
 3.6440	 6.2120
 3.6470	 6.1080
 3.6490	 5.9730
 3.6520	 5.9580
 3.6540	 6.0130
 3.6570	 6.0560
 3.6590	 6.0590
 3.6620	 5.8790
 3.6650	 5.9250
 3.6670	 6.0540
 3.6700	 6.0350
 3.6720	 6.0360
 3.6750	 6.1300
 3.6780	 6.0980
 3.6800	 5.9370
 3.6830	 5.9550
 3.6850	 5.9660
 3.6880	 5.9520
 3.6910	 5.9760
 3.6930	 6.0470
 3.6960	 6.1320
 3.6990	 6.0830
 3.7010	 6.0870
 3.7040	 6.1080
 3.7060	 6.2020
 3.7090	 6.0810
 3.7120	 5.9940
 3.7140	 6.0530
 3.7170	 6.0320
 3.7200	 5.9520
 3.7220	 5.9610
 3.7250	 5.9530
 3.7280	 6.0090
 3.7300	 5.9720
 3.7330	 6.0750
 3.7360	 6.2200
 3.7390	 6.1310
 3.7410	 6.0470
 3.7440	 6.2070
 3.7470	 6.3490
 3.7490	 6.3250
 3.7520	 6.2110
 3.7550	 6.0600
 3.7580	 5.9600
 3.7600	 5.9420
 3.7630	 6.0040
 3.7660	 6.1040
 3.7680	 6.1140
 3.7710	 6.0410
 3.7740	 6.0100
 3.7770	 6.0050
 3.7790	 6.0750
 3.7820	 6.1180
 3.7850	 6.0990
 3.7880	 6.1290
 3.7900	 6.1450
 3.7930	 6.0830
 3.7960	 6.0440
 3.7990	 6.0830
 3.8020	 6.1110
 3.8040	 6.0980
 3.8070	 6.0080
 3.8100	 5.9230
 3.8130	 6.0680
 3.8160	 6.0660
 3.8180	 5.9310
 3.8210	 6.1250
 3.8240	 6.2030
 3.8270	 6.0960
 3.8300	 6.1320
 3.8330	 6.1950
 3.8350	 6.1570
 3.8380	 6.2420
 3.8410	 6.1940
 3.8440	 6.1280
 3.8470	 6.1630
 3.8500	 6.2150
 3.8520	 6.1840
 3.8550	 6.1730
 3.8580	 6.1370
 3.8610	 6.1360
 3.8640	 6.1720
 3.8670	 6.2550
 3.8700	 6.2740
 3.8730	 6.2720
 3.8750	 6.1980
 3.8780	 6.1510
 3.8810	 6.1750
 3.8840	 6.1280
 3.8870	 6.1670
 3.8900	 6.2830
 3.8930	 6.1910
 3.8960	 6.1380
 3.8990	 6.1690
 3.9020	 6.0410
 3.9050	 5.9540
 3.9080	 6.1010
 3.9110	 6.2420
 3.9140	 6.2460
 3.9160	 6.1940
 3.9190	 6.1130
 3.9220	 6.1550
 3.9250	 6.1990
 3.9280	 6.2160
 3.9310	 6.2150
 3.9340	 6.2100
 3.9370	 6.2140
 3.9400	 6.1850
 3.9430	 6.2210
 3.9460	 6.2450
 3.9490	 6.2960
 3.9520	 6.2740
 3.9550	 6.1920
 3.9580	 6.1200
 3.9610	 6.2030
 3.9640	 6.2300
 3.9670	 6.1540
 3.9700	 6.1480
 3.9730	 6.2070
 3.9770	 6.1710
 3.9800	 6.1570
 3.9830	 6.2200
 3.9860	 6.3010
 3.9890	 6.2970
 3.9920	 6.2490
 3.9950	 6.2490
 3.9980	 6.2730
 4.0010	 6.3250
 4.0040	 6.2370
 4.0070	 6.1570
 4.0100	 6.2300
 4.0130	 6.2810
 4.0170	 6.2850
 4.0200	 6.2570
 4.0230	 6.2400
 4.0260	 6.2580
 4.0290	 6.2830
 4.0320	 6.1950
 4.0350	 6.1770
 4.0380	 6.1680
 4.0420	 6.1990
 4.0450	 6.2260
 4.0480	 6.2340
 4.0510	 6.1910
 4.0540	 6.1720
 4.0570	 6.2660
 4.0610	 6.2520
 4.0640	 6.1390
 4.0670	 6.2190
 4.0700	 6.3470
 4.0730	 6.3160
 4.0770	 6.2630
 4.0800	 6.2240
 4.0830	 6.2970
 4.0860	 6.1640
 4.0890	 6.0580
 4.0930	 6.1440
 4.0960	 6.3100
 4.0990	 6.3390
 4.1020	 6.2150
 4.1060	 6.2190
 4.1090	 6.4220
 4.1120	 6.4840
 4.1150	 6.3030
 4.1190	 6.2330
 4.1220	 6.2990
 4.1250	 6.2380
 4.1280	 6.2330
 4.1320	 6.2840
 4.1350	 6.2250
 4.1380	 6.2350
 4.1420	 6.2620
 4.1450	 6.3030
 4.1480	 6.2690
 4.1520	 6.3010
 4.1550	 6.3490
 4.1580	 6.3160
 4.1620	 6.3060
 4.1650	 6.2880
 4.1680	 6.2330
 4.1720	 6.1900
 4.1750	 6.2060
 4.1780	 6.2970
 4.1820	 6.3670
 4.1850	 6.3530
 4.1890	 6.3350
 4.1920	 6.2820
 4.1950	 6.2800
 4.1990	 6.2860
 4.2020	 6.2690
 4.2060	 6.3100
 4.2090	 6.4660
 4.2120	 6.4260
 4.2160	 6.1110
 4.2190	 6.0540
 4.2230	 6.4450
 4.2260	 6.5200
 4.2300	 6.3770
 4.2330	 6.1760
 4.2360	 6.3450
 4.2400	 6.2920
 4.2430	 6.1550
 4.2470	 6.1110
 4.2500	 6.1510
 4.2540	 6.2250
 4.2570	 6.3470
 4.2610	 6.5260
 4.2640	 6.4750
 4.2680	 6.4050
 4.2710	 6.6090
 4.2750	 6.4670
 4.2780	 6.3580
 4.2820	 6.3910
 4.2850	 6.4930
 4.2890	 6.5840
 4.2930	 6.4480
 4.2960	 6.3300
 4.3000	 6.2190
 4.3030	 6.2060
 4.3070	 6.3150
 4.3100	 6.2690
 4.3140	 6.3350
 4.3180	 6.3770
 4.3210	 6.3430
 4.3250	 6.4480
 4.3280	 6.4750
 4.3320	 6.2590
 4.3360	 6.1860
 4.3390	 6.2500
 4.3430	 6.3530
 4.3470	 6.3720
 4.3500	 6.3570
 4.3540	 6.2980
 4.3570	 6.2830
 4.3610	 6.3770
 4.3650	 6.3120
 4.3680	 6.2170
 4.3720	 6.2400
 4.3760	 6.2280
 4.3800	 6.1990
 4.3830	 6.1710
 4.3870	 6.2170
 4.3910	 6.2860
 4.3940	 6.2460
 4.3980	 6.2210
 4.4020	 6.2140
 4.4060	 6.2000
 4.4090	 6.2230
 4.4130	 6.1960
 4.4170	 6.2290
 4.4210	 6.2490
 4.4240	 6.2770
 4.4280	 6.2910
 4.4320	 6.2820
 4.4360	 6.2990
 4.4400	 6.3610
 4.4430	 6.2600
 4.4470	 6.1900
 4.4510	 6.1890
 4.4550	 6.1940
 4.4590	 6.1600
 4.4620	 6.1940
 4.4660	 6.2470
 4.4700	 6.2770
 4.4740	 6.2610
 4.4780	 6.2770
 4.4820	 6.2550
 4.4860	 6.2060
 4.4900	 6.2160
 4.4930	 6.1570
 4.4970	 6.0850
 4.5010	 6.1200
 4.5050	 6.0530
 4.5090	 5.9640
 4.5130	 6.0650
 4.5170	 6.2370
 4.5210	 6.2610
 4.5250	 6.2320
 4.5290	 6.1460
 4.5330	 6.0960
 4.5370	 6.0530
 4.5410	 6.0580
 4.5450	 6.0760
 4.5490	 6.2370
 4.5530	 6.2400
 4.5570	 6.2200
 4.5610	 6.2400
 4.5650	 6.3280
 4.5690	 6.3060
 4.5730	 6.1790
 4.5770	 6.1650
 4.5810	 6.2710
 4.5850	 6.1840
 4.5890	 6.1600
 4.5930	 6.1610
 4.5970	 6.1140
 4.6010	 6.0870
 4.6050	 6.1500
 4.6090	 6.2320
 4.6130	 6.2240
 4.6170	 6.1450
 4.6220	 6.1070
 4.6260	 6.1340
 4.6300	 6.1090
 4.6340	 5.9980
 4.6380	 6.0680
 4.6420	 6.0570
 4.6460	 6.0510
 4.6510	 6.1890
 4.6550	 6.2820
 4.6590	 6.1980
 4.6630	 6.2070
 4.6670	 6.1160
 4.6720	 6.0150
 4.6760	 6.2140
 4.6800	 6.2530
 4.6840	 6.1470
 4.6880	 6.1570
 4.6930	 6.1660
 4.6970	 6.1940
 4.7010	 6.1600
 4.7050	 6.1700
 4.7100	 6.1650
 4.7140	 6.1230
 4.7180	 6.0210
 4.7230	 6.1560
 4.7270	 6.1710
 4.7310	 6.1680
 4.7360	 6.0950
 4.7400	 6.0830
 4.7440	 6.1640
 4.7490	 6.1120
 4.7530	 6.0140
 4.7570	 5.9590
 4.7620	 5.9180
 4.7660	 6.0600
 4.7700	 6.0940
 4.7750	 5.9700
 4.7790	 5.8040
 4.7840	 5.9300
 4.7880	 6.1520
 4.7920	 6.3390
 4.7970	 6.0520
 4.8010	 5.7170
 4.8060	 5.8020
 4.8100	 5.9350
 4.8150	 6.0520
 4.8190	 6.1220
 4.8240	 6.1460
 4.8280	 6.1570
 4.8330	 6.0670
 4.8370	 6.0350
 4.8420	 6.0450
 4.8460	 6.0510
 4.8510	 6.0930
 4.8550	 6.0920
 4.8600	 6.0770
 4.8640	 6.1100
 4.8690	 6.1990
 4.8730	 6.2160
 4.8780	 6.1170
 4.8830	 6.0740
 4.8870	 6.1190
 4.8920	 6.1880
 4.8960	 6.1580
 4.9010	 6.1680
 4.9060	 6.1170
 4.9100	 6.0880
 4.9150	 5.9720
 4.9200	 6.0090
 4.9240	 6.1530
 4.9290	 6.2280
 4.9340	 6.1920
 4.9380	 6.1230
 4.9430	 6.1090
 4.9480	 6.1970
 4.9530	 6.2240
 4.9570	 6.1520
 4.9620	 6.1210
 4.9670	 6.2270
 4.9720	 6.1640
 4.9760	 6.1570
 4.9810	 6.1620
 4.9860	 6.1540
 4.9910	 6.1940
 4.9960	 6.2400
 5.0000	 6.1640
 5.0050	 6.1990
 5.0100	 6.1970
 5.0150	 6.1370
 5.0200	 6.0460
 5.0250	 6.0440
 5.0290	 6.0390
 5.0340	 6.0780
 5.0390	 6.0630
 5.0440	 6.1520
 5.0490	 6.1760
 5.0540	 6.1430
 5.0590	 6.0800
 5.0640	 5.9860
 5.0690	 6.0660
 5.0740	 6.2040
 5.0790	 6.1750
 5.0840	 6.2480
 5.0890	 6.2650
 5.0940	 6.2720
 5.0990	 6.1520
 5.1040	 6.0460
 5.1090	 6.0170
 5.1140	 6.0480
 5.1190	 6.0190
 5.1240	 6.0050
 5.1290	 6.0050
 5.1340	 6.0650
 5.1390	 6.1120
 5.1440	 6.2180
 5.1490	 6.2000
 5.1540	 6.1570
 5.1600	 6.1300
 5.1650	 6.2070
 5.1700	 6.2200
 5.1750	 6.1320
 5.1800	 6.0210
 5.1850	 6.0490
 5.1910	 6.1270
 5.1960	 6.1430
 5.2010	 6.0680
 5.2060	 6.0530
 5.2110	 6.0540
 5.2170	 6.0380
 5.2220	 5.9810
 5.2270	 6.0750
 5.2320	 6.0990
 5.2380	 6.0430
 5.2430	 5.9880
 5.2480	 6.0280
 5.2540	 6.0800
 5.2590	 6.0890
 5.2640	 6.0310
 5.2700	 6.0470
 5.2750	 6.0060
 5.2800	 6.0080
 5.2860	 5.9680
 5.2910	 6.0390
 5.2970	 5.9970
 5.3020	 6.0320
 5.3070	 5.9650
 5.3130	 5.9460
 5.3180	 5.9930
 5.3240	 6.1100
 5.3290	 6.1190
 5.3350	 6.0980
 5.3400	 6.0210
 5.3460	 6.0230
 5.3510	 6.0420
 5.3570	 6.1210
 5.3620	 6.0510
 5.3680	 6.0700
 5.3730	 5.9850
 5.3790	 5.9660
 5.3850	 5.9980
 5.3900	 6.0200
 5.3960	 6.0170
 5.4010	 6.1200
 5.4070	 6.0760
 5.4130	 6.0490
 5.4180	 5.9630
 5.4240	 5.9460
 5.4300	 5.8470
 5.4350	 5.8680
 5.4410	 5.9070
 5.4470	 5.9480
 5.4530	 5.9040
 5.4580	 5.8680
 5.4640	 5.9400
 5.4700	 6.0000
 5.4760	 5.8680
 5.4810	 5.8290
 5.4870	 5.8980
 5.4930	 5.9510
 5.4990	 5.8720
 5.5050	 5.8640
 5.5110	 5.8120
 5.5160	 5.7150
 5.5220	 5.7470
 5.5280	 5.8640
 5.5340	 5.7770
 5.5400	 5.7210
 5.5460	 5.7480
 5.5520	 5.7710
 5.5580	 5.7150
 5.5640	 5.6990
 5.5700	 5.6770
 5.5760	 5.7100
 5.5820	 5.6810
 5.5880	 5.6750
 5.5940	 5.5430
 5.6000	 5.5220
 5.6060	 5.5450
 5.6120	 5.5680
 5.6180	 5.4300
 5.6240	 5.3810
 5.6300	 5.3110
 5.6360	 5.3660
 5.6420	 5.4000
 5.6490	 5.3870
 5.6550	 5.2840
 5.6610	 5.2380
 5.6670	 5.2120
 5.6730	 5.2210
 5.6800	 5.1450
 5.6860	 5.1100
 5.6920	 4.9900
 5.6980	 4.9670
 5.7040	 4.9230
 5.7110	 4.8780
 5.7170	 4.6910
 5.7230	 4.6250
 5.7300	 4.6180
 5.7360	 4.7170
 5.7420	 4.6270
 5.7490	 4.6100
 5.7550	 4.7310
 5.7620	 4.8710
 5.7680	 4.9460
 5.7740	 5.0340
 5.7810	 5.0090
 5.7870	 5.1430
 5.7940	 5.3000
 5.8000	 5.4060
 5.8070	 5.3520
 5.8130	 5.4160
 5.8200	 5.4330
 5.8260	 5.5080
 5.8330	 5.5040
 5.8390	 5.6580
 5.8460	 5.7600
 5.8530	 5.8110
 5.8590	 5.7680
 5.8660	 5.8360
 5.8720	 5.7880
 5.8790	 5.8400
 5.8860	 5.9190
 5.8920	 5.9920
 5.8990	 5.9560
 5.9060	 6.0540
 5.9130	 5.9850
 5.9190	 5.9860
 5.9260	 6.0980
 5.9330	 6.2390
 5.9400	 6.2220
 5.9470	 6.2970
 5.9530	 6.3040
 5.9600	 6.3510
 5.9670	 6.2180
 5.9740	 6.2070
 5.9810	 6.1870
 5.9880	 6.2620
 5.9950	 6.2100
 6.0020	 6.2470
 6.0090	 6.2510
 6.0160	 6.2610
 6.0230	 6.1500
 6.0300	 6.1500
 6.0370	 6.1240
 6.0440	 6.1170
 6.0510	 6.0490
 6.0580	 6.1620
 6.0650	 6.1080
 6.0720	 6.0710
 6.0790	 6.0170
 6.0860	 6.0570
 6.0930	 6.0670
 6.1000	 6.1190
 6.1080	 5.9750
 6.1150	 5.9780
 6.1220	 6.0500
 6.1290	 6.1080
 6.1370	 5.9470
 6.1440	 6.0680
 6.1510	 6.0990
 6.1580	 6.1550
 6.1660	 6.1670
 6.1730	 6.1920
 6.1800	 6.1780
 6.1880	 6.2240
 6.1950	 6.2140
 6.2030	 6.2050
 6.2100	 6.1720
 6.2170	 6.2940
 6.2250	 6.2240
 6.2320	 6.2360
 6.2400	 6.2110
 6.2470	 6.1730
 6.2550	 6.0990
 6.2630	 6.1510
 6.2700	 6.1470
 6.2780	 6.1430
 6.2850	 5.9890
 6.2930	 6.0190
 6.3010	 6.0030
 6.3080	 6.1050
 6.3160	 6.1150
 6.3240	 6.1260
 6.3310	 6.0360
 6.3390	 6.0880
 6.3470	 6.1420
 6.3550	 6.1610
 6.3620	 6.0240
 6.3700	 5.9440
 6.3780	 5.8840
 6.3860	 6.0110
 6.3940	 6.0180
 6.4020	 6.0480
 6.4100	 6.0290
 6.4180	 6.0420
 6.4260	 5.8960
 6.4330	 5.9450
 6.4410	 5.8900
 6.4490	 5.9440
 6.4580	 5.9310
 6.4660	 5.9650
 6.4740	 5.8310
 6.4820	 5.7050
 6.4900	 5.6380
 6.4980	 5.7950
 6.5060	 5.8460
 6.5140	 5.9330
 6.5230	 5.8400
 6.5310	 5.8440
 6.5390	 5.8170
 6.5470	 5.8590
 6.5550	 5.7810
 6.5640	 5.8280
 6.5720	 5.6790
 6.5800	 5.6620
 6.5890	 5.7040
 6.5970	 5.7990
 6.6060	 5.6440
 6.6140	 5.7060
 6.6220	 5.7710
 6.6310	 5.6730
 6.6390	 5.5480
 6.6480	 5.7290
 6.6560	 5.7370
 6.6650	 5.7590
 6.6740	 5.6880
 6.6820	 5.7140
 6.6910	 5.6860
 6.6990	 5.6970
 6.7080	 5.5610
 6.7170	 5.5290
 6.7260	 5.3740
 6.7340	 5.3050
 6.7430	 5.2110
 6.7520	 5.2820
 6.7610	 5.3190
 6.7690	 5.3580
 6.7780	 5.3080
 6.7870	 5.5110
 6.7960	 5.4660
 6.8050	 5.3650
 6.8140	 5.2540
 6.8230	 5.3450
 6.8320	 5.5010
 6.8410	 5.5990
 6.8500	 5.4200
 6.8590	 5.4350
 6.8680	 5.3950
 6.8770	 5.4250
 6.8860	 5.4320
 6.8950	 5.4470
 6.9050	 5.2730
 6.9140	 5.3500
 6.9230	 5.4050
 6.9320	 5.5140
 6.9420	 5.5170
 6.9510	 5.5360
 6.9600	 5.4060
 6.9700	 5.4240
 6.9790	 5.3840
 6.9880	 5.4630
 6.9980	 5.3870
 7.0070	 5.4660
 7.0170	 5.4140
 7.0260	 5.4910
 7.0360	 5.3380
 7.0450	 5.3810
 7.0550	 5.3590
 7.0650	 5.4870
 7.0740	 5.4770
 7.0840	 5.4640
 7.0940	 5.3680
 7.1030	 5.4630
 7.1130	 5.3730
 7.1230	 5.3930
 7.1330	 5.2600
 7.1420	 5.3200
 7.1520	 5.3000
 7.1620	 5.2990
 7.1720	 5.2790
 7.1820	 5.3910
 7.1920	 5.3280
 7.2020	 5.3570
 7.2120	 5.1990
 7.2220	 5.2710
 7.2320	 5.2940
 7.2420	 5.3340
 7.2520	 5.2800
 7.2620	 5.2630
 7.2730	 5.2560
 7.2830	 5.3620
 7.2930	 5.2540
 7.3030	 5.3310
 7.3140	 5.3480
 7.3240	 5.2790
 7.3340	 5.0880
 7.3450	 5.1450
 7.3550	 5.2030
 7.3660	 5.4280
 7.3760	 5.3880
 7.3870	 5.3840
 7.3970	 5.3430
 7.4080	 5.3700
 7.4180	 5.3510
 7.4290	 5.4100
 7.4400	 5.2920
 7.4500	 5.2560
 7.4610	 5.2690
 7.4720	 5.5010
 7.4830	 5.3180
 7.4930	 5.1320
 7.5040	 5.1000
 7.5150	 5.2570
 7.5260	 5.2270
 7.5370	 5.2610
 7.5480	 5.2340
 7.5590	 5.3010
 7.5700	 5.2070
 7.5810	 5.2690
 7.5920	 5.1950
 7.6030	 5.3020
 7.6140	 5.3040
 7.6260	 5.2600
 7.6370	 5.1270
 7.6480	 5.2630
 7.6590	 5.2220
 7.6710	 5.3030
 7.6820	 5.2500
 7.6930	 5.2770
 7.7050	 5.1810
 7.7160	 5.1820
 7.7280	 5.0710
 7.7390	 5.1060
 7.7510	 5.0460
 7.7630	 5.0850
 7.7740	 5.0310
 7.7860	 5.1890
 7.7980	 5.1530
 7.8090	 5.1700
 7.8210	 5.1140
 7.8330	 5.2780
 7.8450	 5.2400
 7.8570	 5.2400
 7.8690	 5.1560
 7.8810	 5.3720
 7.8930	 5.2920
 7.9050	 5.3080
 7.9170	 5.1930
 7.9290	 5.3190
 7.9410	 5.2630
 7.9530	 5.2580
 7.9650	 5.1790
 7.9780	 5.3060
 7.9900	 5.3060
 8.0020	 5.4660
 8.0150	 5.4280
 8.0270	 5.3840
 8.0390	 5.1490
 8.0520	 5.2230
 8.0640	 5.1940
 8.0770	 5.3930
 8.0900	 5.3690
 8.1020	 5.4900
 8.1150	 5.3650
 8.1280	 5.4860
 8.1400	 5.4920
 8.1530	 5.6320
 8.1660	 5.5450
 8.1790	 5.7910
 8.1920	 5.7780
 8.2050	 5.7550
 8.2180	 5.5810
 8.2310	 5.6790
 8.2440	 5.5060
 8.2570	 5.5580
 8.2700	 5.3890
 8.2830	 5.5860
 8.2970	 5.5250
 8.3100	 5.6100
 8.3230	 5.5210
 8.3370	 5.5680
 8.3500	 5.4970
 8.3640	 5.6250
 8.3770	 5.5770
 8.3910	 5.7400
 8.4040	 5.7530
 8.4180	 5.7490
 8.4320	 5.5540
 8.4450	 5.7850
 8.4590	 5.7200
 8.4730	 5.7990
 8.4870	 5.7930
 8.5010	 5.9100
 8.5150	 5.6990
 8.5290	 5.8880
 8.5430	 5.7560
 8.5570	 5.8440
 8.5710	 5.9600
 8.5850	 6.1870
 8.5990	 6.1460
 8.6140	 6.2150
 8.6280	 6.0760
 8.6420	 6.3280
 8.6570	 6.1920
 8.6710	 6.2410
 8.6860	 6.1850
 8.7000	 6.2550
 8.7150	 6.1580
 8.7300	 6.1980
 8.7440	 6.0320
 8.7590	 6.0170
 8.7740	 5.9400
 8.7890	 6.2100
 8.8040	 6.1290
 8.8190	 6.3170
 8.8340	 6.0970
 8.8490	 6.0770
 8.8640	 6.0010
 8.8790	 6.0770
 8.8940	 5.9520
 8.9100	 5.9970
 8.9250	 5.8410
 8.9400	 6.1190
 8.9560	 6.0440
 8.9710	 6.1030
 8.9870	 5.9500
 9.0020	 5.9640
 9.0180	 5.8790
 9.0340	 6.2310
 9.0500	 6.1560
 9.0650	 6.1850
 9.0810	 6.0640
 9.0970	 6.2740
 9.1130	 6.1130
 9.1290	 6.1510
 9.1450	 6.0120
 9.1610	 6.3110
 9.1780	 6.1940
 9.1940	 6.0970
 9.2100	 5.9740
 9.2270	 6.2520
 9.2430	 6.1220
 9.2600	 6.0900
 9.2760	 6.0480
 9.2930	 6.1850
 9.3090	 5.8730
 9.3260	 5.9670
 9.3430	 5.9250
 9.3600	 6.3530
 9.3770	 6.3050
 9.3940	 6.2690
 9.4110	 6.0780
 9.4280	 6.3310
 9.4450	 6.2430
 9.4620	 6.2340
 9.4800	 6.1970
 9.4970	 6.4400
 9.5140	 6.2520
 9.5320	 6.3380
 9.5500	 6.1990
 9.5670	 6.3820
 9.5850	 6.3120
 9.6030	 6.4910
 9.6200	 6.4250
 9.6380	 6.5660
 9.6560	 6.4380
 9.6740	 6.5650
 9.6920	 6.4200
 9.7100	 6.5530
 9.7290	 6.4190
 9.7470	 6.5100
 9.7650	 6.4220
 9.7840	 6.6830
 9.8020	 6.5600
 9.8210	 6.7540
 9.8390	 6.6210
 9.8580	 6.5380
 9.8770	 6.2470
 9.8960	 6.4100
 9.9150	 6.3650
 9.9340	 6.6200
 9.9530	 6.4090
 9.9720	 6.4420
 9.9910	 6.1900
10.0100	 6.3580
10.0300	 6.4340
10.0490	 6.4880
10.0690	 6.2630
10.0880	 6.4600
10.1080	 6.3390
10.1280	 6.3990
10.1480	 6.3120
10.1670	 6.5040
10.1870	 6.2840
10.2070	 6.4380
10.2280	 6.4540
10.2480	 6.5170
10.2680	 6.3170
10.2890	 6.6100
10.3090	 6.6110
10.3300	 6.5940
10.3500	 6.2810
10.3710	 6.4390
10.3920	 6.5140
10.4120	 6.6670
10.4330	 6.5970
10.4540	 6.6740
10.4760	 6.5460
10.4970	 6.7120
10.5180	 6.6520
10.5390	 6.8340
10.5610	 6.5710
10.5820	 6.5840
10.6040	 6.4100
10.6260	 6.6160
10.6480	 6.5400
10.6700	 6.7120
10.6920	 6.5020
10.7140	 6.5760
10.7360	 6.3720
10.7580	 6.7560
10.7800	 6.7650
10.8030	 6.7000
10.8250	 6.4600
10.8480	 6.5430
10.8710	 6.4340
10.8940	 6.6300
10.9170	 6.4210
10.9400	 6.5910
10.9630	 6.4470
10.9860	 6.4340
11.0090	 6.2230
11.0330	 6.4860
11.0560	 6.5060
11.0800	 6.6500
11.1040	 6.5170
11.1270	 6.6340
11.1510	 6.3010
11.1750	 6.2980
11.2000	 6.1830
11.2240	 6.6660
11.2480	 6.4420
11.2730	 6.1170
11.2970	 6.3220
11.3220	 6.9890
11.3470	 6.3650
11.3720	 6.3850
11.3970	 6.1400
11.4220	 6.3830
11.4470	 6.3090
11.4720	 6.5180
11.4980	 6.3340
11.5230	 6.4050
11.5490	 6.1310
11.5750	 6.1300
11.6000	 5.9470
11.6260	 6.3630
11.6530	 6.3850
11.6790	 6.4510
11.7050	 6.0880
11.7320	 6.2700
11.7580	 6.3060
11.7850	 6.6080
11.8120	 6.2260
11.8390	 6.1590
11.8660	 6.2260
11.8930	 6.5430
11.9200	 6.2110
11.9480	 6.3910
11.9760	 6.2440
12.0030	 6.3190
12.0310	 5.9750
12.0590	 6.2860
12.0870	 6.2500
12.1150	 6.4920
12.1440	 6.2810
12.1720	 6.3340
12.2010	 6.0830
12.2300	 6.3750
12.2590	 6.2390
12.2880	 6.1460
12.3170	 5.7840
12.3460	 6.2030
12.3760	 6.2310
12.4050	 6.4850
12.4350	 6.2080
12.4650	 6.4370
12.4950	 6.1410
12.5250	 6.2600
12.5550	 6.0940
12.5860	 6.6300
12.6170	 6.6150
12.6470	 6.6640
12.6780	 6.3420
12.7090	 6.5060
12.7410	 6.1600
12.7720	 6.1740
12.8030	 5.8070
12.8350	 6.2220
12.8670	 5.9750
12.8990	 6.0430
12.9310	 5.8260
12.9640	 6.2960
12.9960	 6.1670
13.0290	 6.2750
13.0610	 6.0880
13.0940	 6.4080
13.1280	 5.9330
13.1610	 5.8500
13.1940	 5.7690
13.2280	 6.1190
13.2620	 5.8660
13.2960	 6.4410
13.3300	 6.1820
13.3640	 6.1830
13.3990	 5.6980
13.4340	 6.0190
13.4690	 5.9430
13.5040	 5.9820
13.5390	 5.6030
13.5740	 6.1060
13.6100	 5.6980
13.6460	 5.7350
13.6820	 5.4630
13.7180	 6.0180
13.7540	 5.8610
13.7910	 6.0450
13.8280	 5.8060
13.8650	 6.0990
13.9020	 5.8010
13.9390	 6.2340
13.9770	 5.7790
14.0150	 5.8760
14.0530	 5.6890
14.0910	 6.2130
14.1290	 5.8960
14.1680	 6.0510
14.2070	 5.7560
14.2460	 6.5170
14.2850	 6.1560
14.3240	 6.0220
14.3640	 5.4050
14.4040	 5.7370
14.4440	 5.5960
14.4840	 6.0950
14.5250	 5.8850
14.5660	 6.4210
14.6070	 5.8540
14.6480	 6.0200
14.6900	 5.3910
14.7310	 5.5990
14.7730	 5.3890
14.8150	 6.2310
14.8580	 5.7020
14.9010	 6.1890
14.9440	 5.6110
14.9870	 5.7960
15.0300	 5.1980
15.0740	 6.2330
15.1180	 5.5830
15.1620	 5.7780
15.2060	 5.2270
15.2510	 6.0780
15.2960	 5.5790
15.3410	 5.9520
15.3870	 5.9970
