Name: Calocedrus decrruens 2
Type: vegetation
Class: Tree
Genus: Calocedrus
Species: decurrens
Sample No.: VH247
Owner: UCSB
Wavelength Range: VSWIR
Origin: 37.0441; -119.3033; WGS84
Collection Date: 11/2/2013
Description: Samples were collected as part of the HyspIRI Airborne Campaign. 48 individual plants were sampled in three times in 2013 - spring  summer  and fall. The name of the sample includes a 1  2  or 3 which references a different individual of the species. Samples were taken to JPL and processed within 48 hours of collection. The same leaves were processed in the Nicolet and then measured using the ASD.
Measurement: Bidirectional reflectance
First Column: X
Second Column: Y
X Units: Wavelength (micrometers)
Y Units: Reflectance (percentage)
First X Value: 0.35
Last X Value: 2.5
Number of X Values: 2151
Additional Information: vegetation.tree.calocedrus.decurrens.vswir.vh247.ucsb.asd.ancillary.txt

 0.3500	 4.8420
 0.3510	 4.7420
 0.3520	 4.8400
 0.3530	 4.8100
 0.3540	 4.5120
 0.3550	 4.5790
 0.3560	 4.6040
 0.3570	 4.5490
 0.3580	 4.5550
 0.3590	 4.5220
 0.3600	 4.4620
 0.3610	 4.4120
 0.3620	 4.4280
 0.3630	 4.4490
 0.3640	 4.4380
 0.3650	 4.3910
 0.3660	 4.4060
 0.3670	 4.3920
 0.3680	 4.3630
 0.3690	 4.3910
 0.3700	 4.3550
 0.3710	 4.3590
 0.3720	 4.4310
 0.3730	 4.4040
 0.3740	 4.4120
 0.3750	 4.4190
 0.3760	 4.3630
 0.3770	 4.3220
 0.3780	 4.3440
 0.3790	 4.3850
 0.3800	 4.3340
 0.3810	 4.3140
 0.3820	 4.3280
 0.3830	 4.3580
 0.3840	 4.3750
 0.3850	 4.3810
 0.3860	 4.3840
 0.3870	 4.3850
 0.3880	 4.3480
 0.3890	 4.3160
 0.3900	 4.3160
 0.3910	 4.3510
 0.3920	 4.3630
 0.3930	 4.3690
 0.3940	 4.3900
 0.3950	 4.4050
 0.3960	 4.4350
 0.3970	 4.4590
 0.3980	 4.4450
 0.3990	 4.4370
 0.4000	 4.4590
 0.4010	 4.5050
 0.4020	 4.5330
 0.4030	 4.5470
 0.4040	 4.5630
 0.4050	 4.6000
 0.4060	 4.6490
 0.4070	 4.7050
 0.4080	 4.7550
 0.4090	 4.7800
 0.4100	 4.8250
 0.4110	 4.8760
 0.4120	 4.9230
 0.4130	 4.9700
 0.4140	 5.0220
 0.4150	 5.0830
 0.4160	 5.1540
 0.4170	 5.1930
 0.4180	 5.2280
 0.4190	 5.2700
 0.4200	 5.3190
 0.4210	 5.3690
 0.4220	 5.4220
 0.4230	 5.4770
 0.4240	 5.5050
 0.4250	 5.5380
 0.4260	 5.5790
 0.4270	 5.6130
 0.4280	 5.6610
 0.4290	 5.7000
 0.4300	 5.7260
 0.4310	 5.7710
 0.4320	 5.7980
 0.4330	 5.8120
 0.4340	 5.8280
 0.4350	 5.8430
 0.4360	 5.8730
 0.4370	 5.9150
 0.4380	 5.9500
 0.4390	 5.9720
 0.4400	 5.9940
 0.4410	 6.0240
 0.4420	 6.0560
 0.4430	 6.0790
 0.4440	 6.1000
 0.4450	 6.1270
 0.4460	 6.1580
 0.4470	 6.1960
 0.4480	 6.2360
 0.4490	 6.2570
 0.4500	 6.2840
 0.4510	 6.3190
 0.4520	 6.3530
 0.4530	 6.3720
 0.4540	 6.3870
 0.4550	 6.4020
 0.4560	 6.4200
 0.4570	 6.4570
 0.4580	 6.4810
 0.4590	 6.4800
 0.4600	 6.4950
 0.4610	 6.5140
 0.4620	 6.5240
 0.4630	 6.5200
 0.4640	 6.5400
 0.4650	 6.5490
 0.4660	 6.5430
 0.4670	 6.5550
 0.4680	 6.5710
 0.4690	 6.5790
 0.4700	 6.5810
 0.4710	 6.5970
 0.4720	 6.6080
 0.4730	 6.6150
 0.4740	 6.6290
 0.4750	 6.6440
 0.4760	 6.6510
 0.4770	 6.6530
 0.4780	 6.6690
 0.4790	 6.6740
 0.4800	 6.6750
 0.4810	 6.6850
 0.4820	 6.6980
 0.4830	 6.7120
 0.4840	 6.7280
 0.4850	 6.7460
 0.4860	 6.7580
 0.4870	 6.7710
 0.4880	 6.7910
 0.4890	 6.8180
 0.4900	 6.8480
 0.4910	 6.8780
 0.4920	 6.9080
 0.4930	 6.9580
 0.4940	 7.0120
 0.4950	 7.0640
 0.4960	 7.1260
 0.4970	 7.1910
 0.4980	 7.2640
 0.4990	 7.3480
 0.5000	 7.4410
 0.5010	 7.5410
 0.5020	 7.6520
 0.5030	 7.7760
 0.5040	 7.9070
 0.5050	 8.0480
 0.5060	 8.2030
 0.5070	 8.3780
 0.5080	 8.5630
 0.5090	 8.7620
 0.5100	 8.9840
 0.5110	 9.2140
 0.5120	 9.4540
 0.5130	 9.7090
 0.5140	 9.9870
 0.5150	10.2700
 0.5160	10.5580
 0.5170	10.8540
 0.5180	11.1540
 0.5190	11.4630
 0.5200	11.7790
 0.5210	12.0880
 0.5220	12.3870
 0.5230	12.6770
 0.5240	12.9600
 0.5250	13.2320
 0.5260	13.4900
 0.5270	13.7320
 0.5280	13.9540
 0.5290	14.1630
 0.5300	14.3540
 0.5310	14.5260
 0.5320	14.6850
 0.5330	14.8250
 0.5340	14.9510
 0.5350	15.0670
 0.5360	15.1730
 0.5370	15.2650
 0.5380	15.3430
 0.5390	15.4110
 0.5400	15.4740
 0.5410	15.5320
 0.5420	15.5830
 0.5430	15.6300
 0.5440	15.6850
 0.5450	15.7420
 0.5460	15.7950
 0.5470	15.8560
 0.5480	15.9150
 0.5490	15.9670
 0.5500	16.0100
 0.5510	16.0430
 0.5520	16.0660
 0.5530	16.0820
 0.5540	16.0820
 0.5550	16.0620
 0.5560	16.0270
 0.5570	15.9780
 0.5580	15.9100
 0.5590	15.8260
 0.5600	15.7290
 0.5610	15.6160
 0.5620	15.4900
 0.5630	15.3570
 0.5640	15.2210
 0.5650	15.0730
 0.5660	14.9160
 0.5670	14.7570
 0.5680	14.5920
 0.5690	14.4200
 0.5700	14.2420
 0.5710	14.0640
 0.5720	13.8940
 0.5730	13.7320
 0.5740	13.5750
 0.5750	13.4170
 0.5760	13.2610
 0.5770	13.1170
 0.5780	12.9910
 0.5790	12.8700
 0.5800	12.7540
 0.5810	12.6450
 0.5820	12.5460
 0.5830	12.4560
 0.5840	12.3730
 0.5850	12.2930
 0.5860	12.2130
 0.5870	12.1390
 0.5880	12.0670
 0.5890	11.9960
 0.5900	11.9250
 0.5910	11.8670
 0.5920	11.8210
 0.5930	11.7760
 0.5940	11.7290
 0.5950	11.6890
 0.5960	11.6560
 0.5970	11.6200
 0.5980	11.5840
 0.5990	11.5460
 0.6000	11.5030
 0.6010	11.4660
 0.6020	11.4220
 0.6030	11.3680
 0.6040	11.3060
 0.6050	11.2430
 0.6060	11.1720
 0.6070	11.0940
 0.6080	11.0210
 0.6090	10.9350
 0.6100	10.8360
 0.6110	10.7390
 0.6120	10.6540
 0.6130	10.5760
 0.6140	10.4980
 0.6150	10.4130
 0.6160	10.3350
 0.6170	10.2630
 0.6180	10.1930
 0.6190	10.1260
 0.6200	10.0660
 0.6210	10.0160
 0.6220	 9.9760
 0.6230	 9.9400
 0.6240	 9.9090
 0.6250	 9.8850
 0.6260	 9.8720
 0.6270	 9.8600
 0.6280	 9.8480
 0.6290	 9.8410
 0.6300	 9.8370
 0.6310	 9.8280
 0.6320	 9.8100
 0.6330	 9.7860
 0.6340	 9.7550
 0.6350	 9.7110
 0.6360	 9.6500
 0.6370	 9.5720
 0.6380	 9.4840
 0.6390	 9.3830
 0.6400	 9.2670
 0.6410	 9.1510
 0.6420	 9.0280
 0.6430	 8.8980
 0.6440	 8.7700
 0.6450	 8.6450
 0.6460	 8.5250
 0.6470	 8.4100
 0.6480	 8.3100
 0.6490	 8.2230
 0.6500	 8.1490
 0.6510	 8.0870
 0.6520	 8.0330
 0.6530	 7.9870
 0.6540	 7.9480
 0.6550	 7.8990
 0.6560	 7.8500
 0.6570	 7.7950
 0.6580	 7.7260
 0.6590	 7.6560
 0.6600	 7.5810
 0.6610	 7.5000
 0.6620	 7.4190
 0.6630	 7.3430
 0.6640	 7.2700
 0.6650	 7.2010
 0.6660	 7.1410
 0.6670	 7.0890
 0.6680	 7.0470
 0.6690	 7.0120
 0.6700	 6.9910
 0.6710	 6.9760
 0.6720	 6.9670
 0.6730	 6.9710
 0.6740	 6.9820
 0.6750	 6.9980
 0.6760	 7.0190
 0.6770	 7.0470
 0.6780	 7.0820
 0.6790	 7.1270
 0.6800	 7.1860
 0.6810	 7.2520
 0.6820	 7.3330
 0.6830	 7.4340
 0.6840	 7.5560
 0.6850	 7.7070
 0.6860	 7.8920
 0.6870	 8.1190
 0.6880	 8.4000
 0.6890	 8.7510
 0.6900	 9.1760
 0.6910	 9.6750
 0.6920	10.2620
 0.6930	10.9380
 0.6940	11.7020
 0.6950	12.5450
 0.6960	13.4640
 0.6970	14.4480
 0.6980	15.4890
 0.6990	16.5810
 0.7000	17.7150
 0.7010	18.8820
 0.7020	20.0690
 0.7030	21.2690
 0.7040	22.4770
 0.7050	23.6890
 0.7060	24.9030
 0.7070	26.1090
 0.7080	27.3090
 0.7090	28.5110
 0.7100	29.6960
 0.7110	30.8850
 0.7120	32.0780
 0.7130	33.2430
 0.7140	34.4040
 0.7150	35.5600
 0.7160	36.7060
 0.7170	37.8310
 0.7180	38.9400
 0.7190	40.0400
 0.7200	41.1280
 0.7210	42.1850
 0.7220	43.2250
 0.7230	44.2460
 0.7240	45.2220
 0.7250	46.1850
 0.7260	47.1180
 0.7270	48.0050
 0.7280	48.8620
 0.7290	49.6740
 0.7300	50.4460
 0.7310	51.1860
 0.7320	51.9070
 0.7330	52.5830
 0.7340	53.2150
 0.7350	53.8290
 0.7360	54.3950
 0.7370	54.9260
 0.7380	55.4340
 0.7390	55.9050
 0.7400	56.3540
 0.7410	56.7750
 0.7420	57.1590
 0.7430	57.5180
 0.7440	57.8530
 0.7450	58.1640
 0.7460	58.4530
 0.7470	58.7090
 0.7480	58.9370
 0.7490	59.1450
 0.7500	59.3420
 0.7510	59.5180
 0.7520	59.6820
 0.7530	59.8400
 0.7540	59.9680
 0.7550	60.0820
 0.7560	60.1900
 0.7570	60.2890
 0.7580	60.3660
 0.7590	60.4390
 0.7600	60.5190
 0.7610	60.5860
 0.7620	60.6490
 0.7630	60.7020
 0.7640	60.7430
 0.7650	60.7740
 0.7660	60.8000
 0.7670	60.8290
 0.7680	60.8660
 0.7690	60.8990
 0.7700	60.9180
 0.7710	60.9290
 0.7720	60.9580
 0.7730	60.9570
 0.7740	60.9630
 0.7750	61.0040
 0.7760	61.0150
 0.7770	61.0290
 0.7780	61.0420
 0.7790	61.0410
 0.7800	61.0560
 0.7810	61.0720
 0.7820	61.0820
 0.7830	61.0920
 0.7840	61.1170
 0.7850	61.1460
 0.7860	61.1680
 0.7870	61.1780
 0.7880	61.1840
 0.7890	61.1870
 0.7900	61.1930
 0.7910	61.2260
 0.7920	61.2570
 0.7930	61.2670
 0.7940	61.2500
 0.7950	61.2730
 0.7960	61.3010
 0.7970	61.3170
 0.7980	61.3440
 0.7990	61.3560
 0.8000	61.3690
 0.8010	61.3980
 0.8020	61.4080
 0.8030	61.4240
 0.8040	61.4500
 0.8050	61.4780
 0.8060	61.4760
 0.8070	61.4930
 0.8080	61.5310
 0.8090	61.5510
 0.8100	61.5680
 0.8110	61.5760
 0.8120	61.5820
 0.8130	61.6140
 0.8140	61.6440
 0.8150	61.6610
 0.8160	61.6700
 0.8170	61.7030
 0.8180	61.7400
 0.8190	61.7660
 0.8200	61.7720
 0.8210	61.7860
 0.8220	61.8110
 0.8230	61.8400
 0.8240	61.8580
 0.8250	61.8720
 0.8260	61.8950
 0.8270	61.9240
 0.8280	61.9350
 0.8290	61.9570
 0.8300	61.9820
 0.8310	61.9940
 0.8320	61.9930
 0.8330	62.0040
 0.8340	62.0240
 0.8350	62.0380
 0.8360	62.0610
 0.8370	62.0860
 0.8380	62.1110
 0.8390	62.1380
 0.8400	62.1690
 0.8410	62.1950
 0.8420	62.2130
 0.8430	62.2350
 0.8440	62.2560
 0.8450	62.2800
 0.8460	62.3070
 0.8470	62.3130
 0.8480	62.3340
 0.8490	62.3680
 0.8500	62.4000
 0.8510	62.4190
 0.8520	62.4380
 0.8530	62.4540
 0.8540	62.4590
 0.8550	62.4840
 0.8560	62.5130
 0.8570	62.5330
 0.8580	62.5430
 0.8590	62.5540
 0.8600	62.5680
 0.8610	62.5830
 0.8620	62.6090
 0.8630	62.6160
 0.8640	62.6100
 0.8650	62.6050
 0.8660	62.6200
 0.8670	62.6540
 0.8680	62.6770
 0.8690	62.6650
 0.8700	62.6700
 0.8710	62.6870
 0.8720	62.7000
 0.8730	62.6960
 0.8740	62.7280
 0.8750	62.7400
 0.8760	62.7220
 0.8770	62.7130
 0.8780	62.7200
 0.8790	62.7260
 0.8800	62.7260
 0.8810	62.7350
 0.8820	62.7240
 0.8830	62.7170
 0.8840	62.7240
 0.8850	62.7190
 0.8860	62.7130
 0.8870	62.7020
 0.8880	62.6860
 0.8890	62.6980
 0.8900	62.7240
 0.8910	62.7340
 0.8920	62.7060
 0.8930	62.6850
 0.8940	62.6620
 0.8950	62.6490
 0.8960	62.6620
 0.8970	62.6470
 0.8980	62.6260
 0.8990	62.6210
 0.9000	62.6350
 0.9010	62.6220
 0.9020	62.6160
 0.9030	62.6220
 0.9040	62.5990
 0.9050	62.5800
 0.9060	62.5620
 0.9070	62.5450
 0.9080	62.5490
 0.9090	62.5300
 0.9100	62.5060
 0.9110	62.5000
 0.9120	62.4970
 0.9130	62.4850
 0.9140	62.4610
 0.9150	62.4330
 0.9160	62.4180
 0.9170	62.4030
 0.9180	62.3900
 0.9190	62.3810
 0.9200	62.3580
 0.9210	62.3580
 0.9220	62.3570
 0.9230	62.3050
 0.9240	62.2610
 0.9250	62.2360
 0.9260	62.2310
 0.9270	62.2310
 0.9280	62.1880
 0.9290	62.1440
 0.9300	62.1180
 0.9310	62.1000
 0.9320	62.0590
 0.9330	62.0200
 0.9340	61.9850
 0.9350	61.9250
 0.9360	61.8960
 0.9370	61.8740
 0.9380	61.8320
 0.9390	61.7620
 0.9400	61.7290
 0.9410	61.6980
 0.9420	61.6390
 0.9430	61.5680
 0.9440	61.5040
 0.9450	61.4390
 0.9460	61.3640
 0.9470	61.2860
 0.9480	61.2070
 0.9490	61.1270
 0.9500	61.0410
 0.9510	60.9360
 0.9520	60.8160
 0.9530	60.6920
 0.9540	60.5710
 0.9550	60.4340
 0.9560	60.3230
 0.9570	60.2240
 0.9580	60.1190
 0.9590	60.0340
 0.9600	59.9460
 0.9610	59.8540
 0.9620	59.7710
 0.9630	59.7250
 0.9640	59.6790
 0.9650	59.6300
 0.9660	59.5890
 0.9670	59.5620
 0.9680	59.5290
 0.9690	59.4980
 0.9700	59.4810
 0.9710	59.4770
 0.9720	59.4830
 0.9730	59.4860
 0.9740	59.4750
 0.9750	59.4720
 0.9760	59.4580
 0.9770	59.4470
 0.9780	59.4630
 0.9790	59.4910
 0.9800	59.5080
 0.9810	59.5210
 0.9820	59.5520
 0.9830	59.5870
 0.9840	59.6040
 0.9850	59.6190
 0.9860	59.6610
 0.9870	59.7190
 0.9880	59.7580
 0.9890	59.7850
 0.9900	59.8320
 0.9910	59.8980
 0.9920	59.9450
 0.9930	59.9830
 0.9940	60.0400
 0.9950	60.1130
 0.9960	60.1550
 0.9970	60.1990
 0.9980	60.2840
 0.9990	60.3060
 1.0000	60.4290
 1.0010	60.5580
 1.0020	60.6720
 1.0030	60.7260
 1.0040	60.7740
 1.0050	60.8290
 1.0060	60.8970
 1.0070	60.9580
 1.0080	61.0200
 1.0090	61.0860
 1.0100	61.1420
 1.0110	61.1860
 1.0120	61.2420
 1.0130	61.2950
 1.0140	61.3530
 1.0150	61.4200
 1.0160	61.4840
 1.0170	61.5410
 1.0180	61.5980
 1.0190	61.6520
 1.0200	61.7040
 1.0210	61.7540
 1.0220	61.8080
 1.0230	61.8630
 1.0240	61.9230
 1.0250	61.9750
 1.0260	62.0220
 1.0270	62.0740
 1.0280	62.1240
 1.0290	62.1750
 1.0300	62.2340
 1.0310	62.2860
 1.0320	62.3350
 1.0330	62.3800
 1.0340	62.4210
 1.0350	62.4630
 1.0360	62.5090
 1.0370	62.5560
 1.0380	62.6030
 1.0390	62.6580
 1.0400	62.7030
 1.0410	62.7450
 1.0420	62.7860
 1.0430	62.8230
 1.0440	62.8610
 1.0450	62.9010
 1.0460	62.9370
 1.0470	62.9690
 1.0480	63.0020
 1.0490	63.0330
 1.0500	63.0630
 1.0510	63.0930
 1.0520	63.1240
 1.0530	63.1510
 1.0540	63.1770
 1.0550	63.2020
 1.0560	63.2270
 1.0570	63.2490
 1.0580	63.2710
 1.0590	63.2910
 1.0600	63.3100
 1.0610	63.3270
 1.0620	63.3440
 1.0630	63.3590
 1.0640	63.3710
 1.0650	63.3810
 1.0660	63.3870
 1.0670	63.3970
 1.0680	63.4070
 1.0690	63.4180
 1.0700	63.4260
 1.0710	63.4360
 1.0720	63.4430
 1.0730	63.4470
 1.0740	63.4500
 1.0750	63.4520
 1.0760	63.4540
 1.0770	63.4550
 1.0780	63.4550
 1.0790	63.4570
 1.0800	63.4540
 1.0810	63.4460
 1.0820	63.4380
 1.0830	63.4310
 1.0840	63.4210
 1.0850	63.4090
 1.0860	63.3960
 1.0870	63.3810
 1.0880	63.3620
 1.0890	63.3440
 1.0900	63.3260
 1.0910	63.3070
 1.0920	63.2870
 1.0930	63.2660
 1.0940	63.2450
 1.0950	63.2220
 1.0960	63.1960
 1.0970	63.1710
 1.0980	63.1460
 1.0990	63.1220
 1.1000	63.1020
 1.1010	63.0770
 1.1020	63.0500
 1.1030	63.0210
 1.1040	62.9900
 1.1050	62.9590
 1.1060	62.9270
 1.1070	62.8960
 1.1080	62.8620
 1.1090	62.8270
 1.1100	62.7920
 1.1110	62.7580
 1.1120	62.7220
 1.1130	62.6860
 1.1140	62.6450
 1.1150	62.6020
 1.1160	62.5550
 1.1170	62.5050
 1.1180	62.4500
 1.1190	62.3920
 1.1200	62.3290
 1.1210	62.2640
 1.1220	62.1880
 1.1230	62.1030
 1.1240	62.0110
 1.1250	61.9050
 1.1260	61.7870
 1.1270	61.6590
 1.1280	61.5220
 1.1290	61.3720
 1.1300	61.2140
 1.1310	61.0380
 1.1320	60.8500
 1.1330	60.6470
 1.1340	60.4290
 1.1350	60.1980
 1.1360	59.9540
 1.1370	59.6990
 1.1380	59.4330
 1.1390	59.1600
 1.1400	58.8760
 1.1410	58.5900
 1.1420	58.3020
 1.1430	58.0100
 1.1440	57.7220
 1.1450	57.4310
 1.1460	57.1520
 1.1470	56.8730
 1.1480	56.6070
 1.1490	56.3460
 1.1500	56.1040
 1.1510	55.8700
 1.1520	55.6540
 1.1530	55.4570
 1.1540	55.2690
 1.1550	55.0930
 1.1560	54.9320
 1.1570	54.7830
 1.1580	54.6500
 1.1590	54.5310
 1.1600	54.4230
 1.1610	54.3260
 1.1620	54.2380
 1.1630	54.1570
 1.1640	54.0830
 1.1650	54.0140
 1.1660	53.9510
 1.1670	53.8940
 1.1680	53.8450
 1.1690	53.7970
 1.1700	53.7580
 1.1710	53.7160
 1.1720	53.6760
 1.1730	53.6340
 1.1740	53.5930
 1.1750	53.5490
 1.1760	53.5050
 1.1770	53.4620
 1.1780	53.4170
 1.1790	53.3710
 1.1800	53.3220
 1.1810	53.2720
 1.1820	53.2210
 1.1830	53.1710
 1.1840	53.1200
 1.1850	53.0680
 1.1860	53.0190
 1.1870	52.9690
 1.1880	52.9210
 1.1890	52.8770
 1.1900	52.8320
 1.1910	52.7870
 1.1920	52.7460
 1.1930	52.7060
 1.1940	52.6710
 1.1950	52.6380
 1.1960	52.6120
 1.1970	52.5880
 1.1980	52.5700
 1.1990	52.5570
 1.2000	52.5490
 1.2010	52.5480
 1.2020	52.5530
 1.2030	52.5660
 1.2040	52.5830
 1.2050	52.6060
 1.2060	52.6360
 1.2070	52.6730
 1.2080	52.7160
 1.2090	52.7630
 1.2100	52.8170
 1.2110	52.8760
 1.2120	52.9420
 1.2130	53.0110
 1.2140	53.0860
 1.2150	53.1670
 1.2160	53.2530
 1.2170	53.3420
 1.2180	53.4350
 1.2190	53.5320
 1.2200	53.6270
 1.2210	53.7260
 1.2220	53.8260
 1.2230	53.9240
 1.2240	54.0250
 1.2250	54.1200
 1.2260	54.2120
 1.2270	54.3060
 1.2280	54.3940
 1.2290	54.4820
 1.2300	54.5680
 1.2310	54.6510
 1.2320	54.7320
 1.2330	54.8080
 1.2340	54.8810
 1.2350	54.9520
 1.2360	55.0210
 1.2370	55.0860
 1.2380	55.1530
 1.2390	55.2190
 1.2400	55.2820
 1.2410	55.3450
 1.2420	55.4040
 1.2430	55.4590
 1.2440	55.5120
 1.2450	55.5640
 1.2460	55.6130
 1.2470	55.6610
 1.2480	55.7090
 1.2490	55.7560
 1.2500	55.7990
 1.2510	55.8390
 1.2520	55.8770
 1.2530	55.9120
 1.2540	55.9470
 1.2550	55.9800
 1.2560	56.0110
 1.2570	56.0420
 1.2580	56.0690
 1.2590	56.0940
 1.2600	56.1170
 1.2610	56.1390
 1.2620	56.1560
 1.2630	56.1730
 1.2640	56.1890
 1.2650	56.2020
 1.2660	56.2130
 1.2670	56.2260
 1.2680	56.2340
 1.2690	56.2420
 1.2700	56.2510
 1.2710	56.2540
 1.2720	56.2550
 1.2730	56.2540
 1.2740	56.2480
 1.2750	56.2410
 1.2760	56.2310
 1.2770	56.2190
 1.2780	56.2050
 1.2790	56.1880
 1.2800	56.1680
 1.2810	56.1480
 1.2820	56.1240
 1.2830	56.0940
 1.2840	56.0630
 1.2850	56.0290
 1.2860	55.9890
 1.2870	55.9480
 1.2880	55.9050
 1.2890	55.8570
 1.2900	55.8040
 1.2910	55.7510
 1.2920	55.6930
 1.2930	55.6310
 1.2940	55.5620
 1.2950	55.4910
 1.2960	55.4160
 1.2970	55.3360
 1.2980	55.2550
 1.2990	55.1670
 1.3000	55.0690
 1.3010	54.9680
 1.3020	54.8620
 1.3030	54.7530
 1.3040	54.6390
 1.3050	54.5200
 1.3060	54.3950
 1.3070	54.2640
 1.3080	54.1310
 1.3090	53.9930
 1.3100	53.8490
 1.3110	53.7010
 1.3120	53.5460
 1.3130	53.3860
 1.3140	53.2210
 1.3150	53.0520
 1.3160	52.8800
 1.3170	52.7060
 1.3180	52.5270
 1.3190	52.3430
 1.3200	52.1500
 1.3210	51.9490
 1.3220	51.7480
 1.3230	51.5430
 1.3240	51.3360
 1.3250	51.1300
 1.3260	50.9190
 1.3270	50.7030
 1.3280	50.4860
 1.3290	50.2620
 1.3300	50.0360
 1.3310	49.8090
 1.3320	49.5780
 1.3330	49.3480
 1.3340	49.1190
 1.3350	48.8900
 1.3360	48.6630
 1.3370	48.4370
 1.3380	48.2120
 1.3390	47.9880
 1.3400	47.7630
 1.3410	47.5430
 1.3420	47.3250
 1.3430	47.1090
 1.3440	46.8950
 1.3450	46.6850
 1.3460	46.4770
 1.3470	46.2740
 1.3480	46.0740
 1.3490	45.8770
 1.3500	45.6830
 1.3510	45.4900
 1.3520	45.3000
 1.3530	45.1140
 1.3540	44.9270
 1.3550	44.7410
 1.3560	44.5530
 1.3570	44.3630
 1.3580	44.1750
 1.3590	43.9820
 1.3600	43.7850
 1.3610	43.5840
 1.3620	43.3740
 1.3630	43.1580
 1.3640	42.9330
 1.3650	42.6970
 1.3660	42.4550
 1.3670	42.2020
 1.3680	41.9380
 1.3690	41.6620
 1.3700	41.3670
 1.3710	41.0570
 1.3720	40.7310
 1.3730	40.3860
 1.3740	40.0280
 1.3750	39.6500
 1.3760	39.2490
 1.3770	38.8260
 1.3780	38.3750
 1.3790	37.9010
 1.3800	37.4070
 1.3810	36.8860
 1.3820	36.3480
 1.3830	35.7900
 1.3840	35.2150
 1.3850	34.6190
 1.3860	34.0150
 1.3870	33.3920
 1.3880	32.7700
 1.3890	32.1390
 1.3900	31.5020
 1.3910	30.8730
 1.3920	30.2430
 1.3930	29.6130
 1.3940	28.9920
 1.3950	28.3730
 1.3960	27.7650
 1.3970	27.1710
 1.3980	26.5900
 1.3990	26.0320
 1.4000	25.4900
 1.4010	24.9630
 1.4020	24.4610
 1.4030	23.9750
 1.4040	23.5130
 1.4050	23.0760
 1.4060	22.6570
 1.4070	22.2650
 1.4080	21.8930
 1.4090	21.5400
 1.4100	21.2120
 1.4110	20.9020
 1.4120	20.6120
 1.4130	20.3430
 1.4140	20.0930
 1.4150	19.8630
 1.4160	19.6490
 1.4170	19.4490
 1.4180	19.2660
 1.4190	19.0940
 1.4200	18.9360
 1.4210	18.7910
 1.4220	18.6570
 1.4230	18.5350
 1.4240	18.4230
 1.4250	18.3200
 1.4260	18.2270
 1.4270	18.1410
 1.4280	18.0640
 1.4290	17.9930
 1.4300	17.9320
 1.4310	17.8760
 1.4320	17.8280
 1.4330	17.7850
 1.4340	17.7470
 1.4350	17.7150
 1.4360	17.6890
 1.4370	17.6680
 1.4380	17.6510
 1.4390	17.6380
 1.4400	17.6280
 1.4410	17.6220
 1.4420	17.6200
 1.4430	17.6210
 1.4440	17.6260
 1.4450	17.6340
 1.4460	17.6430
 1.4470	17.6540
 1.4480	17.6670
 1.4490	17.6820
 1.4500	17.6980
 1.4510	17.7150
 1.4520	17.7340
 1.4530	17.7560
 1.4540	17.7790
 1.4550	17.8060
 1.4560	17.8340
 1.4570	17.8640
 1.4580	17.8970
 1.4590	17.9330
 1.4600	17.9740
 1.4610	18.0170
 1.4620	18.0650
 1.4630	18.1170
 1.4640	18.1730
 1.4650	18.2330
 1.4660	18.2990
 1.4670	18.3690
 1.4680	18.4450
 1.4690	18.5250
 1.4700	18.6080
 1.4710	18.6970
 1.4720	18.7890
 1.4730	18.8850
 1.4740	18.9850
 1.4750	19.0860
 1.4760	19.1920
 1.4770	19.3000
 1.4780	19.4110
 1.4790	19.5250
 1.4800	19.6400
 1.4810	19.7560
 1.4820	19.8750
 1.4830	19.9950
 1.4840	20.1190
 1.4850	20.2430
 1.4860	20.3680
 1.4870	20.4950
 1.4880	20.6200
 1.4890	20.7480
 1.4900	20.8760
 1.4910	21.0060
 1.4920	21.1370
 1.4930	21.2700
 1.4940	21.4020
 1.4950	21.5340
 1.4960	21.6660
 1.4970	21.7980
 1.4980	21.9310
 1.4990	22.0630
 1.5000	22.1960
 1.5010	22.3310
 1.5020	22.4640
 1.5030	22.5980
 1.5040	22.7310
 1.5050	22.8630
 1.5060	22.9960
 1.5070	23.1300
 1.5080	23.2620
 1.5090	23.3940
 1.5100	23.5250
 1.5110	23.6550
 1.5120	23.7840
 1.5130	23.9120
 1.5140	24.0410
 1.5150	24.1690
 1.5160	24.2960
 1.5170	24.4230
 1.5180	24.5480
 1.5190	24.6730
 1.5200	24.7980
 1.5210	24.9200
 1.5220	25.0430
 1.5230	25.1650
 1.5240	25.2870
 1.5250	25.4090
 1.5260	25.5280
 1.5270	25.6470
 1.5280	25.7640
 1.5290	25.8800
 1.5300	25.9960
 1.5310	26.1110
 1.5320	26.2230
 1.5330	26.3350
 1.5340	26.4450
 1.5350	26.5560
 1.5360	26.6670
 1.5370	26.7740
 1.5380	26.8810
 1.5390	26.9870
 1.5400	27.0920
 1.5410	27.2000
 1.5420	27.3070
 1.5430	27.4110
 1.5440	27.5170
 1.5450	27.6210
 1.5460	27.7240
 1.5470	27.8280
 1.5480	27.9290
 1.5490	28.0310
 1.5500	28.1310
 1.5510	28.2310
 1.5520	28.3290
 1.5530	28.4240
 1.5540	28.5210
 1.5550	28.6190
 1.5560	28.7150
 1.5570	28.8110
 1.5580	28.9050
 1.5590	28.9970
 1.5600	29.0900
 1.5610	29.1820
 1.5620	29.2740
 1.5630	29.3650
 1.5640	29.4540
 1.5650	29.5420
 1.5660	29.6300
 1.5670	29.7160
 1.5680	29.8030
 1.5690	29.8870
 1.5700	29.9720
 1.5710	30.0570
 1.5720	30.1420
 1.5730	30.2280
 1.5740	30.3130
 1.5750	30.3960
 1.5760	30.4800
 1.5770	30.5630
 1.5780	30.6470
 1.5790	30.7300
 1.5800	30.8120
 1.5810	30.8950
 1.5820	30.9780
 1.5830	31.0600
 1.5840	31.1430
 1.5850	31.2220
 1.5860	31.3010
 1.5870	31.3820
 1.5880	31.4620
 1.5890	31.5430
 1.5900	31.6250
 1.5910	31.7070
 1.5920	31.7870
 1.5930	31.8670
 1.5940	31.9470
 1.5950	32.0260
 1.5960	32.1050
 1.5970	32.1860
 1.5980	32.2650
 1.5990	32.3440
 1.6000	32.4230
 1.6010	32.5000
 1.6020	32.5770
 1.6030	32.6540
 1.6040	32.7300
 1.6050	32.8070
 1.6060	32.8820
 1.6070	32.9560
 1.6080	33.0290
 1.6090	33.1010
 1.6100	33.1710
 1.6110	33.2390
 1.6120	33.3070
 1.6130	33.3730
 1.6140	33.4410
 1.6150	33.5080
 1.6160	33.5730
 1.6170	33.6340
 1.6180	33.6960
 1.6190	33.7560
 1.6200	33.8140
 1.6210	33.8710
 1.6220	33.9270
 1.6230	33.9790
 1.6240	34.0310
 1.6250	34.0850
 1.6260	34.1370
 1.6270	34.1890
 1.6280	34.2410
 1.6290	34.2910
 1.6300	34.3400
 1.6310	34.3900
 1.6320	34.4390
 1.6330	34.4880
 1.6340	34.5400
 1.6350	34.5890
 1.6360	34.6390
 1.6370	34.6830
 1.6380	34.7230
 1.6390	34.7630
 1.6400	34.8010
 1.6410	34.8360
 1.6420	34.8710
 1.6430	34.9010
 1.6440	34.9260
 1.6450	34.9480
 1.6460	34.9680
 1.6470	34.9850
 1.6480	35.0000
 1.6490	35.0130
 1.6500	35.0230
 1.6510	35.0300
 1.6520	35.0340
 1.6530	35.0350
 1.6540	35.0340
 1.6550	35.0310
 1.6560	35.0250
 1.6570	35.0160
 1.6580	35.0040
 1.6590	34.9900
 1.6600	34.9750
 1.6610	34.9590
 1.6620	34.9410
 1.6630	34.9240
 1.6640	34.9050
 1.6650	34.8870
 1.6660	34.8680
 1.6670	34.8490
 1.6680	34.8310
 1.6690	34.8110
 1.6700	34.7900
 1.6710	34.7700
 1.6720	34.7480
 1.6730	34.7240
 1.6740	34.6980
 1.6750	34.6680
 1.6760	34.6370
 1.6770	34.6010
 1.6780	34.5650
 1.6790	34.5240
 1.6800	34.4780
 1.6810	34.4310
 1.6820	34.3800
 1.6830	34.3230
 1.6840	34.2610
 1.6850	34.1920
 1.6860	34.1150
 1.6870	34.0330
 1.6880	33.9480
 1.6890	33.8570
 1.6900	33.7630
 1.6910	33.6650
 1.6920	33.5640
 1.6930	33.4590
 1.6940	33.3530
 1.6950	33.2450
 1.6960	33.1360
 1.6970	33.0260
 1.6980	32.9150
 1.6990	32.8050
 1.7000	32.6930
 1.7010	32.5820
 1.7020	32.4680
 1.7030	32.3510
 1.7040	32.2320
 1.7050	32.1080
 1.7060	31.9850
 1.7070	31.8590
 1.7080	31.7360
 1.7090	31.6130
 1.7100	31.4940
 1.7110	31.3750
 1.7120	31.2670
 1.7130	31.1650
 1.7140	31.0750
 1.7150	30.9920
 1.7160	30.9160
 1.7170	30.8460
 1.7180	30.7800
 1.7190	30.7200
 1.7200	30.6630
 1.7210	30.6110
 1.7220	30.5650
 1.7230	30.5230
 1.7240	30.4840
 1.7250	30.4500
 1.7260	30.4210
 1.7270	30.3980
 1.7280	30.3830
 1.7290	30.3730
 1.7300	30.3690
 1.7310	30.3680
 1.7320	30.3720
 1.7330	30.3750
 1.7340	30.3850
 1.7350	30.3860
 1.7360	30.3890
 1.7370	30.3820
 1.7380	30.3700
 1.7390	30.3500
 1.7400	30.3250
 1.7410	30.2900
 1.7420	30.2460
 1.7430	30.1970
 1.7440	30.1400
 1.7450	30.0780
 1.7460	30.0100
 1.7470	29.9410
 1.7480	29.8660
 1.7490	29.7940
 1.7500	29.7230
 1.7510	29.6530
 1.7520	29.5830
 1.7530	29.5140
 1.7540	29.4450
 1.7550	29.3790
 1.7560	29.3170
 1.7570	29.2600
 1.7580	29.2060
 1.7590	29.1570
 1.7600	29.1110
 1.7610	29.0690
 1.7620	29.0310
 1.7630	28.9960
 1.7640	28.9640
 1.7650	28.9370
 1.7660	28.9110
 1.7670	28.8880
 1.7680	28.8650
 1.7690	28.8420
 1.7700	28.8200
 1.7710	28.8000
 1.7720	28.7790
 1.7730	28.7590
 1.7740	28.7380
 1.7750	28.7150
 1.7760	28.6950
 1.7770	28.6760
 1.7780	28.6590
 1.7790	28.6410
 1.7800	28.6280
 1.7810	28.6140
 1.7820	28.6090
 1.7830	28.6090
 1.7840	28.6100
 1.7850	28.6160
 1.7860	28.6220
 1.7870	28.6290
 1.7880	28.6390
 1.7890	28.6540
 1.7900	28.6680
 1.7910	28.6830
 1.7920	28.7000
 1.7930	28.7150
 1.7940	28.7290
 1.7950	28.7450
 1.7960	28.7610
 1.7970	28.7780
 1.7980	28.7980
 1.7990	28.8160
 1.8000	28.8330
 1.8010	28.8510
 1.8020	28.8690
 1.8030	28.8860
 1.8040	28.9050
 1.8050	28.9200
 1.8060	28.9320
 1.8070	28.9480
 1.8080	28.9640
 1.8090	28.9790
 1.8100	28.9950
 1.8110	29.0090
 1.8120	29.0220
 1.8130	29.0360
 1.8140	29.0500
 1.8150	29.0630
 1.8160	29.0730
 1.8170	29.0810
 1.8180	29.0880
 1.8190	29.0950
 1.8200	29.1010
 1.8210	29.1070
 1.8220	29.1110
 1.8230	29.1120
 1.8240	29.1110
 1.8250	29.1110
 1.8260	29.1070
 1.8270	29.1010
 1.8280	29.0920
 1.8290	29.0780
 1.8300	29.1050
 1.8310	29.1870
 1.8320	29.2140
 1.8330	29.1940
 1.8340	29.1690
 1.8350	29.1390
 1.8360	29.1030
 1.8370	29.0620
 1.8380	29.0200
 1.8390	28.9700
 1.8400	28.9160
 1.8410	28.8580
 1.8420	28.7960
 1.8430	28.7250
 1.8440	28.6480
 1.8450	28.5630
 1.8460	28.4710
 1.8470	28.3660
 1.8480	28.2470
 1.8490	28.1210
 1.8500	27.9850
 1.8510	27.8390
 1.8520	27.6810
 1.8530	27.5140
 1.8540	27.3320
 1.8550	27.1310
 1.8560	26.9160
 1.8570	26.6910
 1.8580	26.4500
 1.8590	26.1950
 1.8600	25.9260
 1.8610	25.6440
 1.8620	25.3440
 1.8630	25.0320
 1.8640	24.7030
 1.8650	24.3540
 1.8660	23.9880
 1.8670	23.6000
 1.8680	23.1930
 1.8690	22.7670
 1.8700	22.3220
 1.8710	21.8560
 1.8720	21.3770
 1.8730	20.8840
 1.8740	20.3780
 1.8750	19.8670
 1.8760	19.3450
 1.8770	18.8180
 1.8780	18.2870
 1.8790	17.7500
 1.8800	17.2190
 1.8810	16.6890
 1.8820	16.1580
 1.8830	15.6280
 1.8840	15.1050
 1.8850	14.5810
 1.8860	14.0660
 1.8870	13.5680
 1.8880	13.0810
 1.8890	12.6140
 1.8900	12.1640
 1.8910	11.7320
 1.8920	11.3140
 1.8930	10.9210
 1.8940	10.5450
 1.8950	10.1900
 1.8960	 9.8620
 1.8970	 9.5540
 1.8980	 9.2710
 1.8990	 9.0110
 1.9000	 8.7670
 1.9010	 8.5430
 1.9020	 8.3360
 1.9030	 8.1500
 1.9040	 7.9810
 1.9050	 7.8280
 1.9060	 7.6870
 1.9070	 7.5620
 1.9080	 7.4500
 1.9090	 7.3480
 1.9100	 7.2580
 1.9110	 7.1760
 1.9120	 7.1050
 1.9130	 7.0400
 1.9140	 6.9830
 1.9150	 6.9340
 1.9160	 6.8900
 1.9170	 6.8510
 1.9180	 6.8180
 1.9190	 6.7900
 1.9200	 6.7670
 1.9210	 6.7470
 1.9220	 6.7290
 1.9230	 6.7130
 1.9240	 6.7010
 1.9250	 6.6900
 1.9260	 6.6850
 1.9270	 6.6840
 1.9280	 6.6850
 1.9290	 6.6900
 1.9300	 6.6940
 1.9310	 6.7020
 1.9320	 6.7160
 1.9330	 6.7310
 1.9340	 6.7500
 1.9350	 6.7690
 1.9360	 6.7890
 1.9370	 6.8120
 1.9380	 6.8340
 1.9390	 6.8610
 1.9400	 6.8910
 1.9410	 6.9250
 1.9420	 6.9590
 1.9430	 6.9920
 1.9440	 7.0280
 1.9450	 7.0650
 1.9460	 7.1040
 1.9470	 7.1470
 1.9480	 7.1890
 1.9490	 7.2320
 1.9500	 7.2770
 1.9510	 7.3220
 1.9520	 7.3670
 1.9530	 7.4160
 1.9540	 7.4650
 1.9550	 7.5140
 1.9560	 7.5640
 1.9570	 7.6160
 1.9580	 7.6680
 1.9590	 7.7230
 1.9600	 7.7820
 1.9610	 7.8390
 1.9620	 7.8970
 1.9630	 7.9570
 1.9640	 8.0160
 1.9650	 8.0760
 1.9660	 8.1390
 1.9670	 8.2030
 1.9680	 8.2670
 1.9690	 8.3330
 1.9700	 8.4000
 1.9710	 8.4690
 1.9720	 8.5380
 1.9730	 8.6080
 1.9740	 8.6770
 1.9750	 8.7450
 1.9760	 8.8150
 1.9770	 8.8860
 1.9780	 8.9570
 1.9790	 9.0290
 1.9800	 9.1010
 1.9810	 9.1760
 1.9820	 9.2520
 1.9830	 9.3270
 1.9840	 9.4040
 1.9850	 9.4790
 1.9860	 9.5520
 1.9870	 9.6270
 1.9880	 9.7050
 1.9890	 9.7840
 1.9900	 9.8660
 1.9910	 9.9450
 1.9920	10.0230
 1.9930	10.1000
 1.9940	10.1770
 1.9950	10.2500
 1.9960	10.3260
 1.9970	10.4030
 1.9980	10.4790
 1.9990	10.5550
 2.0000	10.6300
 2.0010	10.7060
 2.0020	10.7790
 2.0030	10.8530
 2.0040	10.9300
 2.0050	11.0060
 2.0060	11.0830
 2.0070	11.1590
 2.0080	11.2360
 2.0090	11.3100
 2.0100	11.3830
 2.0110	11.4560
 2.0120	11.5290
 2.0130	11.6010
 2.0140	11.6730
 2.0150	11.7440
 2.0160	11.8140
 2.0170	11.8820
 2.0180	11.9500
 2.0190	12.0190
 2.0200	12.0870
 2.0210	12.1520
 2.0220	12.2200
 2.0230	12.2870
 2.0240	12.3530
 2.0250	12.4210
 2.0260	12.4840
 2.0270	12.5440
 2.0280	12.6050
 2.0290	12.6650
 2.0300	12.7230
 2.0310	12.7810
 2.0320	12.8390
 2.0330	12.8940
 2.0340	12.9470
 2.0350	13.0000
 2.0360	13.0530
 2.0370	13.1040
 2.0380	13.1520
 2.0390	13.2010
 2.0400	13.2490
 2.0410	13.2970
 2.0420	13.3450
 2.0430	13.3920
 2.0440	13.4370
 2.0450	13.4810
 2.0460	13.5220
 2.0470	13.5590
 2.0480	13.6000
 2.0490	13.6410
 2.0500	13.6820
 2.0510	13.7270
 2.0520	13.7700
 2.0530	13.8130
 2.0540	13.8540
 2.0550	13.8950
 2.0560	13.9350
 2.0570	13.9740
 2.0580	14.0110
 2.0590	14.0490
 2.0600	14.0890
 2.0610	14.1260
 2.0620	14.1620
 2.0630	14.2000
 2.0640	14.2370
 2.0650	14.2730
 2.0660	14.3100
 2.0670	14.3490
 2.0680	14.3880
 2.0690	14.4260
 2.0700	14.4690
 2.0710	14.5080
 2.0720	14.5440
 2.0730	14.5800
 2.0740	14.6180
 2.0750	14.6570
 2.0760	14.6960
 2.0770	14.7410
 2.0780	14.7790
 2.0790	14.8150
 2.0800	14.8520
 2.0810	14.8850
 2.0820	14.9230
 2.0830	14.9640
 2.0840	15.0040
 2.0850	15.0450
 2.0860	15.0850
 2.0870	15.1220
 2.0880	15.1590
 2.0890	15.1970
 2.0900	15.2350
 2.0910	15.2750
 2.0920	15.3150
 2.0930	15.3570
 2.0940	15.4010
 2.0950	15.4440
 2.0960	15.4890
 2.0970	15.5320
 2.0980	15.5730
 2.0990	15.6130
 2.1000	15.6500
 2.1010	15.6900
 2.1020	15.7320
 2.1030	15.7730
 2.1040	15.8140
 2.1050	15.8590
 2.1060	15.9000
 2.1070	15.9370
 2.1080	15.9800
 2.1090	16.0220
 2.1100	16.0660
 2.1110	16.1140
 2.1120	16.1590
 2.1130	16.2030
 2.1140	16.2460
 2.1150	16.2890
 2.1160	16.3310
 2.1170	16.3720
 2.1180	16.4120
 2.1190	16.4480
 2.1200	16.4870
 2.1210	16.5280
 2.1220	16.5660
 2.1230	16.6060
 2.1240	16.6480
 2.1250	16.6860
 2.1260	16.7230
 2.1270	16.7600
 2.1280	16.7960
 2.1290	16.8310
 2.1300	16.8650
 2.1310	16.8980
 2.1320	16.9280
 2.1330	16.9600
 2.1340	16.9920
 2.1350	17.0260
 2.1360	17.0630
 2.1370	17.0980
 2.1380	17.1300
 2.1390	17.1640
 2.1400	17.1980
 2.1410	17.2290
 2.1420	17.2640
 2.1430	17.3030
 2.1440	17.3360
 2.1450	17.3670
 2.1460	17.4000
 2.1470	17.4310
 2.1480	17.4630
 2.1490	17.4960
 2.1500	17.5300
 2.1510	17.5630
 2.1520	17.5950
 2.1530	17.6280
 2.1540	17.6600
 2.1550	17.6880
 2.1560	17.7180
 2.1570	17.7470
 2.1580	17.7790
 2.1590	17.8100
 2.1600	17.8470
 2.1610	17.8880
 2.1620	17.9260
 2.1630	17.9630
 2.1640	18.0000
 2.1650	18.0350
 2.1660	18.0650
 2.1670	18.0990
 2.1680	18.1320
 2.1690	18.1660
 2.1700	18.2020
 2.1710	18.2350
 2.1720	18.2660
 2.1730	18.2980
 2.1740	18.3290
 2.1750	18.3600
 2.1760	18.3930
 2.1770	18.4230
 2.1780	18.4490
 2.1790	18.4760
 2.1800	18.5010
 2.1810	18.5290
 2.1820	18.5600
 2.1830	18.5900
 2.1840	18.6170
 2.1850	18.6440
 2.1860	18.6710
 2.1870	18.6960
 2.1880	18.7210
 2.1890	18.7470
 2.1900	18.7720
 2.1910	18.7970
 2.1920	18.8200
 2.1930	18.8440
 2.1940	18.8660
 2.1950	18.8820
 2.1960	18.9020
 2.1970	18.9240
 2.1980	18.9420
 2.1990	18.9600
 2.2000	18.9780
 2.2010	18.9940
 2.2020	19.0100
 2.2030	19.0280
 2.2040	19.0430
 2.2050	19.0580
 2.2060	19.0710
 2.2070	19.0820
 2.2080	19.0910
 2.2090	19.1010
 2.2100	19.1110
 2.2110	19.1170
 2.2120	19.1240
 2.2130	19.1250
 2.2140	19.1210
 2.2150	19.1190
 2.2160	19.1190
 2.2170	19.1140
 2.2180	19.1060
 2.2190	19.0980
 2.2200	19.0860
 2.2210	19.0740
 2.2220	19.0630
 2.2230	19.0480
 2.2240	19.0330
 2.2250	19.0120
 2.2260	18.9820
 2.2270	18.9550
 2.2280	18.9290
 2.2290	18.8950
 2.2300	18.8580
 2.2310	18.8180
 2.2320	18.7680
 2.2330	18.7160
 2.2340	18.6650
 2.2350	18.6170
 2.2360	18.5610
 2.2370	18.5010
 2.2380	18.4390
 2.2390	18.3730
 2.2400	18.3060
 2.2410	18.2420
 2.2420	18.1680
 2.2430	18.0890
 2.2440	18.0110
 2.2450	17.9300
 2.2460	17.8490
 2.2470	17.7730
 2.2480	17.6900
 2.2490	17.6020
 2.2500	17.5110
 2.2510	17.4170
 2.2520	17.3210
 2.2530	17.2180
 2.2540	17.1200
 2.2550	17.0260
 2.2560	16.9270
 2.2570	16.8290
 2.2580	16.7280
 2.2590	16.6210
 2.2600	16.5130
 2.2610	16.3990
 2.2620	16.2880
 2.2630	16.1770
 2.2640	16.0710
 2.2650	15.9740
 2.2660	15.8790
 2.2670	15.7860
 2.2680	15.6960
 2.2690	15.6100
 2.2700	15.5270
 2.2710	15.4470
 2.2720	15.3720
 2.2730	15.2990
 2.2740	15.2300
 2.2750	15.1590
 2.2760	15.0900
 2.2770	15.0240
 2.2780	14.9590
 2.2790	14.8960
 2.2800	14.8360
 2.2810	14.7780
 2.2820	14.7230
 2.2830	14.6640
 2.2840	14.6070
 2.2850	14.5460
 2.2860	14.4800
 2.2870	14.4130
 2.2880	14.3450
 2.2890	14.2720
 2.2900	14.1960
 2.2910	14.1170
 2.2920	14.0350
 2.2930	13.9530
 2.2940	13.8660
 2.2950	13.7820
 2.2960	13.6990
 2.2970	13.6170
 2.2980	13.5360
 2.2990	13.4540
 2.3000	13.3770
 2.3010	13.2980
 2.3020	13.2220
 2.3030	13.1560
 2.3040	13.0970
 2.3050	13.0470
 2.3060	13.0110
 2.3070	12.9800
 2.3080	12.9490
 2.3090	12.9240
 2.3100	12.9080
 2.3110	12.8990
 2.3120	12.8970
 2.3130	12.9110
 2.3140	12.9230
 2.3150	12.9410
 2.3160	12.9570
 2.3170	12.9790
 2.3180	12.9920
 2.3190	13.0000
 2.3200	13.0040
 2.3210	13.0050
 2.3220	12.9980
 2.3230	12.9850
 2.3240	12.9700
 2.3250	12.9480
 2.3260	12.9240
 2.3270	12.8970
 2.3280	12.8660
 2.3290	12.8320
 2.3300	12.7930
 2.3310	12.7470
 2.3320	12.7040
 2.3330	12.6540
 2.3340	12.6090
 2.3350	12.5730
 2.3360	12.5290
 2.3370	12.4780
 2.3380	12.4330
 2.3390	12.3890
 2.3400	12.3420
 2.3410	12.2980
 2.3420	12.2540
 2.3430	12.2030
 2.3440	12.1560
 2.3450	12.1110
 2.3460	12.0680
 2.3470	12.0220
 2.3480	11.9850
 2.3490	11.9580
 2.3500	11.9330
 2.3510	11.9180
 2.3520	11.8980
 2.3530	11.8770
 2.3540	11.8550
 2.3550	11.8280
 2.3560	11.8030
 2.3570	11.7840
 2.3580	11.7640
 2.3590	11.7430
 2.3600	11.7280
 2.3610	11.7170
 2.3620	11.6970
 2.3630	11.6760
 2.3640	11.6620
 2.3650	11.6350
 2.3660	11.6040
 2.3670	11.5840
 2.3680	11.5550
 2.3690	11.5210
 2.3700	11.4970
 2.3710	11.4610
 2.3720	11.4240
 2.3730	11.3980
 2.3740	11.3700
 2.3750	11.3430
 2.3760	11.3120
 2.3770	11.2720
 2.3780	11.2310
 2.3790	11.1910
 2.3800	11.1570
 2.3810	11.1250
 2.3820	11.0940
 2.3830	11.0680
 2.3840	11.0460
 2.3850	11.0190
 2.3860	10.9900
 2.3870	10.9540
 2.3880	10.9120
 2.3890	10.8780
 2.3900	10.8430
 2.3910	10.8120
 2.3920	10.7870
 2.3930	10.7560
 2.3940	10.7280
 2.3950	10.7000
 2.3960	10.6620
 2.3970	10.6180
 2.3980	10.5780
 2.3990	10.5300
 2.4000	10.4850
 2.4010	10.4500
 2.4020	10.4190
 2.4030	10.3920
 2.4040	10.3660
 2.4050	10.3420
 2.4060	10.3120
 2.4070	10.2780
 2.4080	10.2410
 2.4090	10.1920
 2.4100	10.1470
 2.4110	10.1050
 2.4120	10.0620
 2.4130	10.0260
 2.4140	 9.9890
 2.4150	 9.9460
 2.4160	 9.9090
 2.4170	 9.8780
 2.4180	 9.8420
 2.4190	 9.8020
 2.4200	 9.7690
 2.4210	 9.7300
 2.4220	 9.6800
 2.4230	 9.6270
 2.4240	 9.5700
 2.4250	 9.5240
 2.4260	 9.4890
 2.4270	 9.4500
 2.4280	 9.4170
 2.4290	 9.3680
 2.4300	 9.3170
 2.4310	 9.2830
 2.4320	 9.2410
 2.4330	 9.2000
 2.4340	 9.1640
 2.4350	 9.1270
 2.4360	 9.1020
 2.4370	 9.0740
 2.4380	 9.0320
 2.4390	 8.9720
 2.4400	 8.8950
 2.4410	 8.8300
 2.4420	 8.7910
 2.4430	 8.7560
 2.4440	 8.7330
 2.4450	 8.7060
 2.4460	 8.6540
 2.4470	 8.5890
 2.4480	 8.5310
 2.4490	 8.4900
 2.4500	 8.4400
 2.4510	 8.4040
 2.4520	 8.3660
 2.4530	 8.2950
 2.4540	 8.2330
 2.4550	 8.1760
 2.4560	 8.1380
 2.4570	 8.1220
 2.4580	 8.0880
 2.4590	 8.0550
 2.4600	 8.0220
 2.4610	 7.9720
 2.4620	 7.9280
 2.4630	 7.8860
 2.4640	 7.8350
 2.4650	 7.7850
 2.4660	 7.7530
 2.4670	 7.7190
 2.4680	 7.6660
 2.4690	 7.6220
 2.4700	 7.5910
 2.4710	 7.5810
 2.4720	 7.5620
 2.4730	 7.5490
 2.4740	 7.5120
 2.4750	 7.4430
 2.4760	 7.4090
 2.4770	 7.3820
 2.4780	 7.3450
 2.4790	 7.3150
 2.4800	 7.2910
 2.4810	 7.2690
 2.4820	 7.2540
 2.4830	 7.2360
 2.4840	 7.2180
 2.4850	 7.1820
 2.4860	 7.1850
 2.4870	 7.1950
 2.4880	 7.1660
 2.4890	 7.1330
 2.4900	 7.0610
 2.4910	 7.0050
 2.4920	 6.9910
 2.4930	 6.9520
 2.4940	 6.9790
 2.4950	 7.0370
 2.4960	 7.0490
 2.4970	 7.0770
 2.4980	 7.0840
 2.4990	 7.0250
 2.5000	 6.9450
