Name: Arctostaphylos glandulosa 3
Type: vegetation
Class: Shrub
Genus: Arctostaphylos
Species: glandulosa
Sample No.: VH039
Owner: UCSB
Wavelength Range: VSWIR
Origin: 34.5085; -119.7682; WGS84
Collection Date: 4/1/2013
Description: Samples were collected as part of the HyspIRI Airborne Campaign. 48 individual plants were sampled in three times in 2013 - spring  summer  and fall. The name of the sample includes a 1  2  or 3 which references a different individual of the species. Samples were taken to JPL and processed within 48 hours of collection. The same leaves were processed in the Nicolet and then measured using the ASD.
Measurement: Bidirectional reflectance
First Column: X
Second Column: Y
X Units: Wavelength (micrometers)
Y Units: Reflectance (percentage)
First X Value: 0.35
Last X Value: 2.5
Number of X Values: 2151
Additional Information: vegetation.shrub.arctostaphylos.glandulosa.vswir.vh039.ucsb.asd.ancillary.txt

 0.3500	 5.7400
 0.3510	 6.1390
 0.3520	 6.0900
 0.3530	 5.8660
 0.3540	 5.8500
 0.3550	 5.9550
 0.3560	 5.9600
 0.3570	 5.9050
 0.3580	 5.9460
 0.3590	 5.9410
 0.3600	 5.8990
 0.3610	 5.8400
 0.3620	 5.7680
 0.3630	 5.8370
 0.3640	 5.8820
 0.3650	 5.7710
 0.3660	 5.8030
 0.3670	 5.8250
 0.3680	 5.8330
 0.3690	 5.9070
 0.3700	 5.8950
 0.3710	 5.8310
 0.3720	 5.7860
 0.3730	 5.8590
 0.3740	 5.7930
 0.3750	 5.7170
 0.3760	 5.8010
 0.3770	 5.8010
 0.3780	 5.8150
 0.3790	 5.8490
 0.3800	 5.8230
 0.3810	 5.8640
 0.3820	 5.8890
 0.3830	 5.8600
 0.3840	 5.9240
 0.3850	 5.9040
 0.3860	 5.8510
 0.3870	 5.8720
 0.3880	 5.8620
 0.3890	 5.8530
 0.3900	 5.8500
 0.3910	 5.8230
 0.3920	 5.8470
 0.3930	 5.8720
 0.3940	 5.8530
 0.3950	 5.8250
 0.3960	 5.7970
 0.3970	 5.7840
 0.3980	 5.7950
 0.3990	 5.7950
 0.4000	 5.7920
 0.4010	 5.7960
 0.4020	 5.8230
 0.4030	 5.8180
 0.4040	 5.7920
 0.4050	 5.7700
 0.4060	 5.7910
 0.4070	 5.8110
 0.4080	 5.8150
 0.4090	 5.8110
 0.4100	 5.7990
 0.4110	 5.7800
 0.4120	 5.7670
 0.4130	 5.7930
 0.4140	 5.8220
 0.4150	 5.8300
 0.4160	 5.8180
 0.4170	 5.8400
 0.4180	 5.8570
 0.4190	 5.8640
 0.4200	 5.8930
 0.4210	 5.9350
 0.4220	 5.9590
 0.4230	 5.9620
 0.4240	 6.0210
 0.4250	 6.0650
 0.4260	 6.1060
 0.4270	 6.1850
 0.4280	 6.2440
 0.4290	 6.3030
 0.4300	 6.3700
 0.4310	 6.4230
 0.4320	 6.5100
 0.4330	 6.6120
 0.4340	 6.7010
 0.4350	 6.7900
 0.4360	 6.8790
 0.4370	 6.9720
 0.4380	 7.0780
 0.4390	 7.1590
 0.4400	 7.2530
 0.4410	 7.3750
 0.4420	 7.4590
 0.4430	 7.5330
 0.4440	 7.6180
 0.4450	 7.7240
 0.4460	 7.8110
 0.4470	 7.8940
 0.4480	 7.9810
 0.4490	 8.0630
 0.4500	 8.1380
 0.4510	 8.2100
 0.4520	 8.2820
 0.4530	 8.3580
 0.4540	 8.4200
 0.4550	 8.4670
 0.4560	 8.5100
 0.4570	 8.5510
 0.4580	 8.5910
 0.4590	 8.6280
 0.4600	 8.6550
 0.4610	 8.6890
 0.4620	 8.7200
 0.4630	 8.7340
 0.4640	 8.7500
 0.4650	 8.7600
 0.4660	 8.7670
 0.4670	 8.7910
 0.4680	 8.8140
 0.4690	 8.8260
 0.4700	 8.8270
 0.4710	 8.8340
 0.4720	 8.8470
 0.4730	 8.8640
 0.4740	 8.8800
 0.4750	 8.8850
 0.4760	 8.8900
 0.4770	 8.8970
 0.4780	 8.8970
 0.4790	 8.9070
 0.4800	 8.9200
 0.4810	 8.9240
 0.4820	 8.9270
 0.4830	 8.9410
 0.4840	 8.9590
 0.4850	 8.9640
 0.4860	 8.9730
 0.4870	 8.9870
 0.4880	 9.0030
 0.4890	 9.0280
 0.4900	 9.0410
 0.4910	 9.0520
 0.4920	 9.0830
 0.4930	 9.1180
 0.4940	 9.1490
 0.4950	 9.1780
 0.4960	 9.2220
 0.4970	 9.2690
 0.4980	 9.3160
 0.4990	 9.3650
 0.5000	 9.4300
 0.5010	 9.4880
 0.5020	 9.5430
 0.5030	 9.6180
 0.5040	 9.6990
 0.5050	 9.7860
 0.5060	 9.8800
 0.5070	 9.9810
 0.5080	10.0940
 0.5090	10.2170
 0.5100	10.3480
 0.5110	10.4810
 0.5120	10.6280
 0.5130	10.7910
 0.5140	10.9560
 0.5150	11.1340
 0.5160	11.3250
 0.5170	11.5210
 0.5180	11.7230
 0.5190	11.9350
 0.5200	12.1520
 0.5210	12.3680
 0.5220	12.5890
 0.5230	12.8090
 0.5240	13.0250
 0.5250	13.2400
 0.5260	13.4510
 0.5270	13.6500
 0.5280	13.8330
 0.5290	14.0120
 0.5300	14.1820
 0.5310	14.3400
 0.5320	14.4880
 0.5330	14.6240
 0.5340	14.7520
 0.5350	14.8710
 0.5360	14.9780
 0.5370	15.0770
 0.5380	15.1710
 0.5390	15.2610
 0.5400	15.3490
 0.5410	15.4380
 0.5420	15.5270
 0.5430	15.6070
 0.5440	15.6840
 0.5450	15.7550
 0.5460	15.8130
 0.5470	15.8580
 0.5480	15.8960
 0.5490	15.9320
 0.5500	15.9690
 0.5510	15.9970
 0.5520	16.0160
 0.5530	16.0250
 0.5540	16.0170
 0.5550	15.9980
 0.5560	15.9670
 0.5570	15.9110
 0.5580	15.8500
 0.5590	15.7770
 0.5600	15.6910
 0.5610	15.6060
 0.5620	15.5100
 0.5630	15.4050
 0.5640	15.2960
 0.5650	15.1750
 0.5660	15.0510
 0.5670	14.9270
 0.5680	14.8000
 0.5690	14.6610
 0.5700	14.5190
 0.5710	14.3840
 0.5720	14.2520
 0.5730	14.1280
 0.5740	14.0150
 0.5750	13.9120
 0.5760	13.8130
 0.5770	13.7120
 0.5780	13.6090
 0.5790	13.5240
 0.5800	13.4420
 0.5810	13.3630
 0.5820	13.2930
 0.5830	13.2260
 0.5840	13.1580
 0.5850	13.0890
 0.5860	13.0240
 0.5870	12.9640
 0.5880	12.9030
 0.5890	12.8410
 0.5900	12.7940
 0.5910	12.7610
 0.5920	12.7350
 0.5930	12.7090
 0.5940	12.6870
 0.5950	12.6640
 0.5960	12.6380
 0.5970	12.6170
 0.5980	12.5880
 0.5990	12.5540
 0.6000	12.5230
 0.6010	12.4800
 0.6020	12.4330
 0.6030	12.3860
 0.6040	12.3370
 0.6050	12.2810
 0.6060	12.2180
 0.6070	12.1540
 0.6080	12.0840
 0.6090	12.0150
 0.6100	11.9500
 0.6110	11.8920
 0.6120	11.8150
 0.6130	11.7260
 0.6140	11.6380
 0.6150	11.5600
 0.6160	11.4890
 0.6170	11.4220
 0.6180	11.3580
 0.6190	11.3070
 0.6200	11.2610
 0.6210	11.2170
 0.6220	11.1760
 0.6230	11.1420
 0.6240	11.1110
 0.6250	11.0800
 0.6260	11.0570
 0.6270	11.0400
 0.6280	11.0270
 0.6290	11.0170
 0.6300	11.0030
 0.6310	10.9870
 0.6320	10.9720
 0.6330	10.9550
 0.6340	10.9340
 0.6350	10.9010
 0.6360	10.8560
 0.6370	10.8150
 0.6380	10.7650
 0.6390	10.7050
 0.6400	10.6420
 0.6410	10.5700
 0.6420	10.4940
 0.6430	10.4140
 0.6440	10.3310
 0.6450	10.2480
 0.6460	10.1690
 0.6470	10.0960
 0.6480	10.0240
 0.6490	 9.9570
 0.6500	 9.8970
 0.6510	 9.8410
 0.6520	 9.7880
 0.6530	 9.7390
 0.6540	 9.6940
 0.6550	 9.6430
 0.6560	 9.5850
 0.6570	 9.5200
 0.6580	 9.4510
 0.6590	 9.3800
 0.6600	 9.3070
 0.6610	 9.2320
 0.6620	 9.1540
 0.6630	 9.0820
 0.6640	 9.0130
 0.6650	 8.9470
 0.6660	 8.8880
 0.6670	 8.8340
 0.6680	 8.7880
 0.6690	 8.7510
 0.6700	 8.7250
 0.6710	 8.7040
 0.6720	 8.6860
 0.6730	 8.6730
 0.6740	 8.6640
 0.6750	 8.6630
 0.6760	 8.6700
 0.6770	 8.6780
 0.6780	 8.6930
 0.6790	 8.7150
 0.6800	 8.7420
 0.6810	 8.7770
 0.6820	 8.8290
 0.6830	 8.9020
 0.6840	 8.9890
 0.6850	 9.0960
 0.6860	 9.2260
 0.6870	 9.3800
 0.6880	 9.5750
 0.6890	 9.8070
 0.6900	10.0760
 0.6910	10.3930
 0.6920	10.7600
 0.6930	11.1780
 0.6940	11.6480
 0.6950	12.1710
 0.6960	12.7470
 0.6970	13.3760
 0.6980	14.0580
 0.6990	14.7840
 0.7000	15.5500
 0.7010	16.3510
 0.7020	17.1830
 0.7030	18.0310
 0.7040	18.8920
 0.7050	19.7650
 0.7060	20.6430
 0.7070	21.5200
 0.7080	22.3890
 0.7090	23.2490
 0.7100	24.0990
 0.7110	24.9440
 0.7120	25.7810
 0.7130	26.5960
 0.7140	27.4030
 0.7150	28.1940
 0.7160	28.9610
 0.7170	29.7120
 0.7180	30.4460
 0.7190	31.1590
 0.7200	31.8490
 0.7210	32.5190
 0.7220	33.1640
 0.7230	33.7850
 0.7240	34.3780
 0.7250	34.9440
 0.7260	35.4810
 0.7270	35.9910
 0.7280	36.4840
 0.7290	36.9450
 0.7300	37.3730
 0.7310	37.7750
 0.7320	38.1550
 0.7330	38.5150
 0.7340	38.8560
 0.7350	39.1750
 0.7360	39.4660
 0.7370	39.7350
 0.7380	39.9880
 0.7390	40.2310
 0.7400	40.4580
 0.7410	40.6680
 0.7420	40.8650
 0.7430	41.0380
 0.7440	41.2060
 0.7450	41.3700
 0.7460	41.5150
 0.7470	41.6480
 0.7480	41.7720
 0.7490	41.8850
 0.7500	41.9830
 0.7510	42.0740
 0.7520	42.1610
 0.7530	42.2450
 0.7540	42.3200
 0.7550	42.3880
 0.7560	42.4520
 0.7570	42.5140
 0.7580	42.5640
 0.7590	42.6120
 0.7600	42.6620
 0.7610	42.7050
 0.7620	42.7420
 0.7630	42.7750
 0.7640	42.8060
 0.7650	42.8390
 0.7660	42.8700
 0.7670	42.8980
 0.7680	42.9260
 0.7690	42.9550
 0.7700	42.9770
 0.7710	42.9940
 0.7720	43.0210
 0.7730	43.0410
 0.7740	43.0570
 0.7750	43.0760
 0.7760	43.0950
 0.7770	43.1140
 0.7780	43.1290
 0.7790	43.1380
 0.7800	43.1530
 0.7810	43.1730
 0.7820	43.1930
 0.7830	43.2040
 0.7840	43.2120
 0.7850	43.2220
 0.7860	43.2360
 0.7870	43.2590
 0.7880	43.2730
 0.7890	43.2800
 0.7900	43.2910
 0.7910	43.2930
 0.7920	43.2960
 0.7930	43.3050
 0.7940	43.3180
 0.7950	43.3230
 0.7960	43.3260
 0.7970	43.3330
 0.7980	43.3410
 0.7990	43.3440
 0.8000	43.3460
 0.8010	43.3510
 0.8020	43.3520
 0.8030	43.3460
 0.8040	43.3400
 0.8050	43.3440
 0.8060	43.3450
 0.8070	43.3410
 0.8080	43.3320
 0.8090	43.3180
 0.8100	43.3200
 0.8110	43.3210
 0.8120	43.3140
 0.8130	43.3120
 0.8140	43.3040
 0.8150	43.2960
 0.8160	43.2920
 0.8170	43.2830
 0.8180	43.2680
 0.8190	43.2530
 0.8200	43.2450
 0.8210	43.2350
 0.8220	43.2230
 0.8230	43.2110
 0.8240	43.2000
 0.8250	43.1860
 0.8260	43.1710
 0.8270	43.1560
 0.8280	43.1450
 0.8290	43.1340
 0.8300	43.1180
 0.8310	43.0970
 0.8320	43.0880
 0.8330	43.0770
 0.8340	43.0610
 0.8350	43.0440
 0.8360	43.0280
 0.8370	43.0160
 0.8380	43.0090
 0.8390	43.0010
 0.8400	42.9920
 0.8410	42.9860
 0.8420	42.9840
 0.8430	42.9810
 0.8440	42.9710
 0.8450	42.9620
 0.8460	42.9570
 0.8470	42.9500
 0.8480	42.9450
 0.8490	42.9400
 0.8500	42.9300
 0.8510	42.9260
 0.8520	42.9270
 0.8530	42.9290
 0.8540	42.9280
 0.8550	42.9260
 0.8560	42.9220
 0.8570	42.9190
 0.8580	42.9260
 0.8590	42.9290
 0.8600	42.9280
 0.8610	42.9250
 0.8620	42.9160
 0.8630	42.9080
 0.8640	42.9030
 0.8650	42.9030
 0.8660	42.9150
 0.8670	42.9230
 0.8680	42.9220
 0.8690	42.9170
 0.8700	42.9250
 0.8710	42.9360
 0.8720	42.9420
 0.8730	42.9400
 0.8740	42.9500
 0.8750	42.9600
 0.8760	42.9640
 0.8770	42.9640
 0.8780	42.9660
 0.8790	42.9740
 0.8800	42.9830
 0.8810	42.9760
 0.8820	42.9770
 0.8830	42.9850
 0.8840	42.9910
 0.8850	42.9950
 0.8860	42.9950
 0.8870	42.9990
 0.8880	43.0090
 0.8890	43.0110
 0.8900	43.0110
 0.8910	43.0130
 0.8920	43.0170
 0.8930	43.0160
 0.8940	43.0160
 0.8950	43.0170
 0.8960	43.0160
 0.8970	43.0120
 0.8980	43.0100
 0.8990	43.0090
 0.9000	43.0040
 0.9010	43.0070
 0.9020	43.0110
 0.9030	43.0150
 0.9040	43.0280
 0.9050	43.0370
 0.9060	43.0370
 0.9070	43.0290
 0.9080	43.0220
 0.9090	43.0200
 0.9100	43.0230
 0.9110	43.0260
 0.9120	43.0300
 0.9130	43.0190
 0.9140	43.0080
 0.9150	43.0130
 0.9160	43.0040
 0.9170	43.0000
 0.9180	43.0020
 0.9190	43.0050
 0.9200	42.9960
 0.9210	42.9840
 0.9220	42.9740
 0.9230	42.9700
 0.9240	42.9570
 0.9250	42.9470
 0.9260	42.9360
 0.9270	42.9160
 0.9280	42.9030
 0.9290	42.8850
 0.9300	42.8630
 0.9310	42.8480
 0.9320	42.8180
 0.9330	42.7920
 0.9340	42.7760
 0.9350	42.7570
 0.9360	42.7260
 0.9370	42.6870
 0.9380	42.6510
 0.9390	42.6260
 0.9400	42.5990
 0.9410	42.5710
 0.9420	42.5430
 0.9430	42.5100
 0.9440	42.4700
 0.9450	42.4250
 0.9460	42.3770
 0.9470	42.3230
 0.9480	42.2610
 0.9490	42.2020
 0.9500	42.1510
 0.9510	42.0790
 0.9520	41.9980
 0.9530	41.9110
 0.9540	41.8200
 0.9550	41.7360
 0.9560	41.6600
 0.9570	41.5840
 0.9580	41.5010
 0.9590	41.4170
 0.9600	41.3480
 0.9610	41.2940
 0.9620	41.2450
 0.9630	41.2020
 0.9640	41.1410
 0.9650	41.0730
 0.9660	41.0230
 0.9670	41.0210
 0.9680	40.9890
 0.9690	40.9460
 0.9700	40.9340
 0.9710	40.9060
 0.9720	40.8870
 0.9730	40.8720
 0.9740	40.8510
 0.9750	40.8580
 0.9760	40.8460
 0.9770	40.8270
 0.9780	40.8300
 0.9790	40.8140
 0.9800	40.8050
 0.9810	40.8050
 0.9820	40.8080
 0.9830	40.8290
 0.9840	40.8450
 0.9850	40.8520
 0.9860	40.8580
 0.9870	40.8780
 0.9880	40.8870
 0.9890	40.8920
 0.9900	40.9100
 0.9910	40.9010
 0.9920	40.9910
 0.9930	41.0810
 0.9940	41.1710
 0.9950	41.2610
 0.9960	41.3510
 0.9970	41.4410
 0.9980	41.5300
 0.9990	41.6200
 1.0000	41.7100
 1.0010	41.8000
 1.0020	41.8900
 1.0030	41.9800
 1.0040	42.0700
 1.0050	42.1600
 1.0060	42.2500
 1.0070	42.3400
 1.0080	42.4300
 1.0090	42.5200
 1.0100	42.5200
 1.0110	42.5440
 1.0120	42.5700
 1.0130	42.5960
 1.0140	42.6240
 1.0150	42.6560
 1.0160	42.6850
 1.0170	42.7120
 1.0180	42.7350
 1.0190	42.7580
 1.0200	42.7840
 1.0210	42.8090
 1.0220	42.8360
 1.0230	42.8630
 1.0240	42.8900
 1.0250	42.9180
 1.0260	42.9490
 1.0270	42.9740
 1.0280	42.9970
 1.0290	43.0190
 1.0300	43.0360
 1.0310	43.0560
 1.0320	43.0800
 1.0330	43.0980
 1.0340	43.1200
 1.0350	43.1430
 1.0360	43.1640
 1.0370	43.1870
 1.0380	43.2080
 1.0390	43.2260
 1.0400	43.2460
 1.0410	43.2650
 1.0420	43.2840
 1.0430	43.3050
 1.0440	43.3230
 1.0450	43.3400
 1.0460	43.3550
 1.0470	43.3670
 1.0480	43.3810
 1.0490	43.3930
 1.0500	43.4090
 1.0510	43.4280
 1.0520	43.4480
 1.0530	43.4620
 1.0540	43.4780
 1.0550	43.4880
 1.0560	43.4900
 1.0570	43.4970
 1.0580	43.5030
 1.0590	43.5110
 1.0600	43.5230
 1.0610	43.5310
 1.0620	43.5390
 1.0630	43.5450
 1.0640	43.5480
 1.0650	43.5530
 1.0660	43.5620
 1.0670	43.5660
 1.0680	43.5690
 1.0690	43.5690
 1.0700	43.5710
 1.0710	43.5710
 1.0720	43.5710
 1.0730	43.5740
 1.0740	43.5750
 1.0750	43.5760
 1.0760	43.5730
 1.0770	43.5680
 1.0780	43.5640
 1.0790	43.5570
 1.0800	43.5510
 1.0810	43.5480
 1.0820	43.5430
 1.0830	43.5360
 1.0840	43.5310
 1.0850	43.5280
 1.0860	43.5230
 1.0870	43.5150
 1.0880	43.5060
 1.0890	43.4980
 1.0900	43.4890
 1.0910	43.4800
 1.0920	43.4730
 1.0930	43.4620
 1.0940	43.4460
 1.0950	43.4330
 1.0960	43.4200
 1.0970	43.4070
 1.0980	43.3950
 1.0990	43.3810
 1.1000	43.3670
 1.1010	43.3520
 1.1020	43.3370
 1.1030	43.3200
 1.1040	43.3030
 1.1050	43.2840
 1.1060	43.2640
 1.1070	43.2440
 1.1080	43.2230
 1.1090	43.2010
 1.1100	43.1780
 1.1110	43.1540
 1.1120	43.1280
 1.1130	43.0980
 1.1140	43.0680
 1.1150	43.0410
 1.1160	43.0070
 1.1170	42.9720
 1.1180	42.9330
 1.1190	42.8910
 1.1200	42.8440
 1.1210	42.7950
 1.1220	42.7420
 1.1230	42.6840
 1.1240	42.6230
 1.1250	42.5560
 1.1260	42.4860
 1.1270	42.4100
 1.1280	42.3300
 1.1290	42.2430
 1.1300	42.1540
 1.1310	42.0560
 1.1320	41.9510
 1.1330	41.8390
 1.1340	41.7220
 1.1350	41.5970
 1.1360	41.4640
 1.1370	41.3240
 1.1380	41.1770
 1.1390	41.0210
 1.1400	40.8600
 1.1410	40.6970
 1.1420	40.5270
 1.1430	40.3530
 1.1440	40.1770
 1.1450	39.9930
 1.1460	39.8170
 1.1470	39.6400
 1.1480	39.4700
 1.1490	39.3020
 1.1500	39.1430
 1.1510	38.9880
 1.1520	38.8430
 1.1530	38.7040
 1.1540	38.5770
 1.1550	38.4590
 1.1560	38.3500
 1.1570	38.2530
 1.1580	38.1640
 1.1590	38.0840
 1.1600	38.0140
 1.1610	37.9510
 1.1620	37.8960
 1.1630	37.8480
 1.1640	37.8040
 1.1650	37.7660
 1.1660	37.7360
 1.1670	37.7070
 1.1680	37.6840
 1.1690	37.6600
 1.1700	37.6370
 1.1710	37.6170
 1.1720	37.5990
 1.1730	37.5790
 1.1740	37.5610
 1.1750	37.5410
 1.1760	37.5190
 1.1770	37.4930
 1.1780	37.4660
 1.1790	37.4400
 1.1800	37.4130
 1.1810	37.3850
 1.1820	37.3570
 1.1830	37.3260
 1.1840	37.2960
 1.1850	37.2660
 1.1860	37.2380
 1.1870	37.2100
 1.1880	37.1830
 1.1890	37.1560
 1.1900	37.1310
 1.1910	37.1080
 1.1920	37.0860
 1.1930	37.0660
 1.1940	37.0490
 1.1950	37.0350
 1.1960	37.0230
 1.1970	37.0110
 1.1980	37.0000
 1.1990	36.9910
 1.2000	36.9830
 1.2010	36.9790
 1.2020	36.9800
 1.2030	36.9830
 1.2040	36.9890
 1.2050	36.9990
 1.2060	37.0110
 1.2070	37.0260
 1.2080	37.0450
 1.2090	37.0660
 1.2100	37.0920
 1.2110	37.1220
 1.2120	37.1580
 1.2130	37.1960
 1.2140	37.2370
 1.2150	37.2810
 1.2160	37.3280
 1.2170	37.3760
 1.2180	37.4260
 1.2190	37.4810
 1.2200	37.5360
 1.2210	37.5920
 1.2220	37.6490
 1.2230	37.7070
 1.2240	37.7640
 1.2250	37.8190
 1.2260	37.8720
 1.2270	37.9230
 1.2280	37.9720
 1.2290	38.0220
 1.2300	38.0720
 1.2310	38.1180
 1.2320	38.1620
 1.2330	38.2040
 1.2340	38.2440
 1.2350	38.2840
 1.2360	38.3220
 1.2370	38.3580
 1.2380	38.3940
 1.2390	38.4280
 1.2400	38.4610
 1.2410	38.4950
 1.2420	38.5250
 1.2430	38.5510
 1.2440	38.5760
 1.2450	38.6020
 1.2460	38.6250
 1.2470	38.6490
 1.2480	38.6740
 1.2490	38.6970
 1.2500	38.7200
 1.2510	38.7430
 1.2520	38.7620
 1.2530	38.7770
 1.2540	38.7920
 1.2550	38.8070
 1.2560	38.8210
 1.2570	38.8340
 1.2580	38.8440
 1.2590	38.8530
 1.2600	38.8600
 1.2610	38.8680
 1.2620	38.8750
 1.2630	38.8810
 1.2640	38.8860
 1.2650	38.8900
 1.2660	38.8910
 1.2670	38.8920
 1.2680	38.8950
 1.2690	38.8960
 1.2700	38.8950
 1.2710	38.8940
 1.2720	38.8900
 1.2730	38.8830
 1.2740	38.8780
 1.2750	38.8710
 1.2760	38.8630
 1.2770	38.8540
 1.2780	38.8420
 1.2790	38.8280
 1.2800	38.8110
 1.2810	38.7930
 1.2820	38.7750
 1.2830	38.7550
 1.2840	38.7340
 1.2850	38.7120
 1.2860	38.6870
 1.2870	38.6590
 1.2880	38.6290
 1.2890	38.5970
 1.2900	38.5610
 1.2910	38.5230
 1.2920	38.4840
 1.2930	38.4400
 1.2940	38.3920
 1.2950	38.3410
 1.2960	38.2870
 1.2970	38.2320
 1.2980	38.1740
 1.2990	38.1130
 1.3000	38.0500
 1.3010	37.9820
 1.3020	37.9110
 1.3030	37.8380
 1.3040	37.7610
 1.3050	37.6800
 1.3060	37.5960
 1.3070	37.5080
 1.3080	37.4170
 1.3090	37.3250
 1.3100	37.2290
 1.3110	37.1300
 1.3120	37.0280
 1.3130	36.9210
 1.3140	36.8100
 1.3150	36.6960
 1.3160	36.5780
 1.3170	36.4560
 1.3180	36.3290
 1.3190	36.2000
 1.3200	36.0670
 1.3210	35.9280
 1.3220	35.7880
 1.3230	35.6430
 1.3240	35.4950
 1.3250	35.3460
 1.3260	35.1940
 1.3270	35.0380
 1.3280	34.8790
 1.3290	34.7170
 1.3300	34.5560
 1.3310	34.3920
 1.3320	34.2260
 1.3330	34.0600
 1.3340	33.8920
 1.3350	33.7230
 1.3360	33.5550
 1.3370	33.3840
 1.3380	33.2130
 1.3390	33.0420
 1.3400	32.8710
 1.3410	32.7040
 1.3420	32.5380
 1.3430	32.3730
 1.3440	32.2110
 1.3450	32.0490
 1.3460	31.8860
 1.3470	31.7260
 1.3480	31.5650
 1.3490	31.4100
 1.3500	31.2570
 1.3510	31.1050
 1.3520	30.9540
 1.3530	30.8060
 1.3540	30.6540
 1.3550	30.5030
 1.3560	30.3530
 1.3570	30.2010
 1.3580	30.0510
 1.3590	29.8980
 1.3600	29.7420
 1.3610	29.5830
 1.3620	29.4190
 1.3630	29.2500
 1.3640	29.0770
 1.3650	28.8970
 1.3660	28.7120
 1.3670	28.5180
 1.3680	28.3150
 1.3690	28.1030
 1.3700	27.8790
 1.3710	27.6430
 1.3720	27.3940
 1.3730	27.1270
 1.3740	26.8490
 1.3750	26.5540
 1.3760	26.2400
 1.3770	25.9090
 1.3780	25.5550
 1.3790	25.1830
 1.3800	24.7940
 1.3810	24.3840
 1.3820	23.9630
 1.3830	23.5260
 1.3840	23.0770
 1.3850	22.6150
 1.3860	22.1460
 1.3870	21.6620
 1.3880	21.1800
 1.3890	20.6910
 1.3900	20.2000
 1.3910	19.7150
 1.3920	19.2310
 1.3930	18.7510
 1.3940	18.2790
 1.3950	17.8100
 1.3960	17.3520
 1.3970	16.9080
 1.3980	16.4760
 1.3990	16.0660
 1.4000	15.6720
 1.4010	15.2930
 1.4020	14.9330
 1.4030	14.5880
 1.4040	14.2620
 1.4050	13.9560
 1.4060	13.6680
 1.4070	13.4030
 1.4080	13.1540
 1.4090	12.9210
 1.4100	12.7050
 1.4110	12.5050
 1.4120	12.3210
 1.4130	12.1530
 1.4140	11.9990
 1.4150	11.8600
 1.4160	11.7340
 1.4170	11.6180
 1.4180	11.5130
 1.4190	11.4160
 1.4200	11.3290
 1.4210	11.2510
 1.4220	11.1790
 1.4230	11.1160
 1.4240	11.0600
 1.4250	11.0080
 1.4260	10.9640
 1.4270	10.9240
 1.4280	10.8900
 1.4290	10.8590
 1.4300	10.8330
 1.4310	10.8100
 1.4320	10.7910
 1.4330	10.7750
 1.4340	10.7630
 1.4350	10.7530
 1.4360	10.7450
 1.4370	10.7410
 1.4380	10.7390
 1.4390	10.7380
 1.4400	10.7390
 1.4410	10.7410
 1.4420	10.7460
 1.4430	10.7520
 1.4440	10.7590
 1.4450	10.7680
 1.4460	10.7770
 1.4470	10.7860
 1.4480	10.7960
 1.4490	10.8080
 1.4500	10.8200
 1.4510	10.8330
 1.4520	10.8460
 1.4530	10.8610
 1.4540	10.8760
 1.4550	10.8920
 1.4560	10.9090
 1.4570	10.9280
 1.4580	10.9480
 1.4590	10.9690
 1.4600	10.9920
 1.4610	11.0160
 1.4620	11.0430
 1.4630	11.0730
 1.4640	11.1040
 1.4650	11.1390
 1.4660	11.1760
 1.4670	11.2170
 1.4680	11.2600
 1.4690	11.3060
 1.4700	11.3540
 1.4710	11.4060
 1.4720	11.4600
 1.4730	11.5160
 1.4740	11.5740
 1.4750	11.6340
 1.4760	11.6970
 1.4770	11.7620
 1.4780	11.8280
 1.4790	11.8970
 1.4800	11.9660
 1.4810	12.0360
 1.4820	12.1070
 1.4830	12.1800
 1.4840	12.2530
 1.4850	12.3280
 1.4860	12.4030
 1.4870	12.4810
 1.4880	12.5590
 1.4890	12.6370
 1.4900	12.7150
 1.4910	12.7930
 1.4920	12.8720
 1.4930	12.9540
 1.4940	13.0340
 1.4950	13.1150
 1.4960	13.1960
 1.4970	13.2760
 1.4980	13.3570
 1.4990	13.4380
 1.5000	13.5200
 1.5010	13.6030
 1.5020	13.6860
 1.5030	13.7690
 1.5040	13.8510
 1.5050	13.9320
 1.5060	14.0140
 1.5070	14.0970
 1.5080	14.1800
 1.5090	14.2640
 1.5100	14.3460
 1.5110	14.4280
 1.5120	14.5100
 1.5130	14.5900
 1.5140	14.6710
 1.5150	14.7510
 1.5160	14.8290
 1.5170	14.9080
 1.5180	14.9860
 1.5190	15.0640
 1.5200	15.1430
 1.5210	15.2220
 1.5220	15.3000
 1.5230	15.3780
 1.5240	15.4540
 1.5250	15.5300
 1.5260	15.6060
 1.5270	15.6800
 1.5280	15.7550
 1.5290	15.8280
 1.5300	15.9000
 1.5310	15.9740
 1.5320	16.0450
 1.5330	16.1160
 1.5340	16.1870
 1.5350	16.2570
 1.5360	16.3280
 1.5370	16.3980
 1.5380	16.4660
 1.5390	16.5340
 1.5400	16.6020
 1.5410	16.6680
 1.5420	16.7350
 1.5430	16.8020
 1.5440	16.8690
 1.5450	16.9360
 1.5460	17.0010
 1.5470	17.0660
 1.5480	17.1290
 1.5490	17.1920
 1.5500	17.2550
 1.5510	17.3160
 1.5520	17.3790
 1.5530	17.4410
 1.5540	17.5030
 1.5550	17.5650
 1.5560	17.6250
 1.5570	17.6860
 1.5580	17.7450
 1.5590	17.8040
 1.5600	17.8630
 1.5610	17.9190
 1.5620	17.9760
 1.5630	18.0330
 1.5640	18.0890
 1.5650	18.1460
 1.5660	18.2010
 1.5670	18.2570
 1.5680	18.3130
 1.5690	18.3680
 1.5700	18.4230
 1.5710	18.4780
 1.5720	18.5320
 1.5730	18.5880
 1.5740	18.6420
 1.5750	18.6960
 1.5760	18.7500
 1.5770	18.8040
 1.5780	18.8580
 1.5790	18.9120
 1.5800	18.9660
 1.5810	19.0190
 1.5820	19.0710
 1.5830	19.1240
 1.5840	19.1760
 1.5850	19.2290
 1.5860	19.2800
 1.5870	19.3320
 1.5880	19.3830
 1.5890	19.4340
 1.5900	19.4860
 1.5910	19.5390
 1.5920	19.5910
 1.5930	19.6420
 1.5940	19.6940
 1.5950	19.7450
 1.5960	19.7970
 1.5970	19.8490
 1.5980	19.8990
 1.5990	19.9500
 1.6000	20.0000
 1.6010	20.0490
 1.6020	20.0990
 1.6030	20.1480
 1.6040	20.1960
 1.6050	20.2450
 1.6060	20.2930
 1.6070	20.3390
 1.6080	20.3860
 1.6090	20.4310
 1.6100	20.4750
 1.6110	20.5200
 1.6120	20.5640
 1.6130	20.6100
 1.6140	20.6540
 1.6150	20.6970
 1.6160	20.7390
 1.6170	20.7790
 1.6180	20.8190
 1.6190	20.8580
 1.6200	20.8960
 1.6210	20.9340
 1.6220	20.9680
 1.6230	21.0040
 1.6240	21.0400
 1.6250	21.0750
 1.6260	21.1090
 1.6270	21.1420
 1.6280	21.1730
 1.6290	21.2020
 1.6300	21.2290
 1.6310	21.2550
 1.6320	21.2800
 1.6330	21.3030
 1.6340	21.3260
 1.6350	21.3460
 1.6360	21.3640
 1.6370	21.3790
 1.6380	21.3920
 1.6390	21.4010
 1.6400	21.4060
 1.6410	21.4090
 1.6420	21.4090
 1.6430	21.4070
 1.6440	21.4030
 1.6450	21.3940
 1.6460	21.3810
 1.6470	21.3650
 1.6480	21.3470
 1.6490	21.3260
 1.6500	21.3030
 1.6510	21.2790
 1.6520	21.2510
 1.6530	21.2230
 1.6540	21.1940
 1.6550	21.1650
 1.6560	21.1370
 1.6570	21.1120
 1.6580	21.0900
 1.6590	21.0690
 1.6600	21.0510
 1.6610	21.0370
 1.6620	21.0270
 1.6630	21.0240
 1.6640	21.0240
 1.6650	21.0280
 1.6660	21.0370
 1.6670	21.0490
 1.6680	21.0650
 1.6690	21.0830
 1.6700	21.1010
 1.6710	21.1190
 1.6720	21.1370
 1.6730	21.1530
 1.6740	21.1670
 1.6750	21.1760
 1.6760	21.1820
 1.6770	21.1840
 1.6780	21.1820
 1.6790	21.1750
 1.6800	21.1630
 1.6810	21.1450
 1.6820	21.1230
 1.6830	21.0970
 1.6840	21.0680
 1.6850	21.0370
 1.6860	21.0020
 1.6870	20.9630
 1.6880	20.9190
 1.6890	20.8720
 1.6900	20.8230
 1.6910	20.7730
 1.6920	20.7210
 1.6930	20.6680
 1.6940	20.6130
 1.6950	20.5560
 1.6960	20.4980
 1.6970	20.4390
 1.6980	20.3790
 1.6990	20.3200
 1.7000	20.2590
 1.7010	20.1970
 1.7020	20.1340
 1.7030	20.0710
 1.7040	20.0080
 1.7050	19.9460
 1.7060	19.8840
 1.7070	19.8230
 1.7080	19.7620
 1.7090	19.7020
 1.7100	19.6450
 1.7110	19.5890
 1.7120	19.5340
 1.7130	19.4810
 1.7140	19.4290
 1.7150	19.3770
 1.7160	19.3250
 1.7170	19.2760
 1.7180	19.2290
 1.7190	19.1820
 1.7200	19.1360
 1.7210	19.0910
 1.7220	19.0450
 1.7230	19.0010
 1.7240	18.9590
 1.7250	18.9190
 1.7260	18.8830
 1.7270	18.8510
 1.7280	18.8230
 1.7290	18.7990
 1.7300	18.7810
 1.7310	18.7650
 1.7320	18.7570
 1.7330	18.7480
 1.7340	18.7420
 1.7350	18.7350
 1.7360	18.7300
 1.7370	18.7210
 1.7380	18.7120
 1.7390	18.6970
 1.7400	18.6760
 1.7410	18.6510
 1.7420	18.6190
 1.7430	18.5850
 1.7440	18.5470
 1.7450	18.5070
 1.7460	18.4630
 1.7470	18.4160
 1.7480	18.3640
 1.7490	18.3150
 1.7500	18.2650
 1.7510	18.2140
 1.7520	18.1650
 1.7530	18.1140
 1.7540	18.0620
 1.7550	18.0130
 1.7560	17.9650
 1.7570	17.9190
 1.7580	17.8740
 1.7590	17.8320
 1.7600	17.7920
 1.7610	17.7560
 1.7620	17.7210
 1.7630	17.6870
 1.7640	17.6580
 1.7650	17.6310
 1.7660	17.6060
 1.7670	17.5870
 1.7680	17.5660
 1.7690	17.5460
 1.7700	17.5270
 1.7710	17.5080
 1.7720	17.4910
 1.7730	17.4760
 1.7740	17.4610
 1.7750	17.4460
 1.7760	17.4310
 1.7770	17.4160
 1.7780	17.4000
 1.7790	17.3830
 1.7800	17.3680
 1.7810	17.3540
 1.7820	17.3400
 1.7830	17.3290
 1.7840	17.3180
 1.7850	17.3070
 1.7860	17.2980
 1.7870	17.2920
 1.7880	17.2840
 1.7890	17.2800
 1.7900	17.2780
 1.7910	17.2740
 1.7920	17.2720
 1.7930	17.2700
 1.7940	17.2660
 1.7950	17.2640
 1.7960	17.2650
 1.7970	17.2660
 1.7980	17.2690
 1.7990	17.2710
 1.8000	17.2740
 1.8010	17.2780
 1.8020	17.2840
 1.8030	17.2890
 1.8040	17.2950
 1.8050	17.3010
 1.8060	17.3080
 1.8070	17.3140
 1.8080	17.3200
 1.8090	17.3250
 1.8100	17.3270
 1.8110	17.3320
 1.8120	17.3370
 1.8130	17.3440
 1.8140	17.3490
 1.8150	17.3500
 1.8160	17.3510
 1.8170	17.3510
 1.8180	17.3510
 1.8190	17.3540
 1.8200	17.3560
 1.8210	17.3580
 1.8220	17.3580
 1.8230	17.3580
 1.8240	17.3560
 1.8250	17.3520
 1.8260	17.3490
 1.8270	17.3000
 1.8280	17.2510
 1.8290	17.2020
 1.8300	17.1530
 1.8310	17.1040
 1.8320	17.0540
 1.8330	17.0050
 1.8340	16.9560
 1.8350	16.9560
 1.8360	16.9340
 1.8370	16.9130
 1.8380	16.8890
 1.8390	16.8600
 1.8400	16.8300
 1.8410	16.7930
 1.8420	16.7500
 1.8430	16.6990
 1.8440	16.6460
 1.8450	16.5890
 1.8460	16.5250
 1.8470	16.4560
 1.8480	16.3810
 1.8490	16.2980
 1.8500	16.2080
 1.8510	16.1110
 1.8520	16.0070
 1.8530	15.8980
 1.8540	15.7830
 1.8550	15.6600
 1.8560	15.5300
 1.8570	15.3870
 1.8580	15.2350
 1.8590	15.0750
 1.8600	14.9050
 1.8610	14.7260
 1.8620	14.5410
 1.8630	14.3470
 1.8640	14.1410
 1.8650	13.9270
 1.8660	13.7030
 1.8670	13.4670
 1.8680	13.2250
 1.8690	12.9730
 1.8700	12.7140
 1.8710	12.4450
 1.8720	12.1760
 1.8730	11.9040
 1.8740	11.6300
 1.8750	11.3580
 1.8760	11.0800
 1.8770	10.8020
 1.8780	10.5300
 1.8790	10.2610
 1.8800	10.0000
 1.8810	 9.7440
 1.8820	 9.4930
 1.8830	 9.2470
 1.8840	 9.0080
 1.8850	 8.7750
 1.8860	 8.5520
 1.8870	 8.3380
 1.8880	 8.1330
 1.8890	 7.9420
 1.8900	 7.7610
 1.8910	 7.5890
 1.8920	 7.4280
 1.8930	 7.2780
 1.8940	 7.1360
 1.8950	 7.0050
 1.8960	 6.8860
 1.8970	 6.7780
 1.8980	 6.6820
 1.8990	 6.5950
 1.9000	 6.5120
 1.9010	 6.4360
 1.9020	 6.3670
 1.9030	 6.3020
 1.9040	 6.2460
 1.9050	 6.1980
 1.9060	 6.1560
 1.9070	 6.1190
 1.9080	 6.0850
 1.9090	 6.0530
 1.9100	 6.0240
 1.9110	 5.9990
 1.9120	 5.9780
 1.9130	 5.9590
 1.9140	 5.9460
 1.9150	 5.9340
 1.9160	 5.9240
 1.9170	 5.9130
 1.9180	 5.9020
 1.9190	 5.8960
 1.9200	 5.8880
 1.9210	 5.8810
 1.9220	 5.8780
 1.9230	 5.8770
 1.9240	 5.8760
 1.9250	 5.8790
 1.9260	 5.8830
 1.9270	 5.8860
 1.9280	 5.8900
 1.9290	 5.8950
 1.9300	 5.8980
 1.9310	 5.9030
 1.9320	 5.9070
 1.9330	 5.9130
 1.9340	 5.9180
 1.9350	 5.9260
 1.9360	 5.9370
 1.9370	 5.9470
 1.9380	 5.9580
 1.9390	 5.9690
 1.9400	 5.9790
 1.9410	 5.9880
 1.9420	 5.9970
 1.9430	 6.0100
 1.9440	 6.0230
 1.9450	 6.0370
 1.9460	 6.0510
 1.9470	 6.0670
 1.9480	 6.0820
 1.9490	 6.0950
 1.9500	 6.1100
 1.9510	 6.1240
 1.9520	 6.1370
 1.9530	 6.1520
 1.9540	 6.1670
 1.9550	 6.1830
 1.9560	 6.2000
 1.9570	 6.2160
 1.9580	 6.2330
 1.9590	 6.2510
 1.9600	 6.2690
 1.9610	 6.2870
 1.9620	 6.3070
 1.9630	 6.3270
 1.9640	 6.3460
 1.9650	 6.3640
 1.9660	 6.3830
 1.9670	 6.4010
 1.9680	 6.4220
 1.9690	 6.4430
 1.9700	 6.4660
 1.9710	 6.4900
 1.9720	 6.5140
 1.9730	 6.5410
 1.9740	 6.5670
 1.9750	 6.5900
 1.9760	 6.6130
 1.9770	 6.6350
 1.9780	 6.6540
 1.9790	 6.6770
 1.9800	 6.7010
 1.9810	 6.7250
 1.9820	 6.7500
 1.9830	 6.7760
 1.9840	 6.8030
 1.9850	 6.8290
 1.9860	 6.8540
 1.9870	 6.8810
 1.9880	 6.9080
 1.9890	 6.9340
 1.9900	 6.9610
 1.9910	 6.9880
 1.9920	 7.0150
 1.9930	 7.0440
 1.9940	 7.0710
 1.9950	 7.0970
 1.9960	 7.1240
 1.9970	 7.1500
 1.9980	 7.1770
 1.9990	 7.2050
 2.0000	 7.2340
 2.0010	 7.2590
 2.0020	 7.2870
 2.0030	 7.3150
 2.0040	 7.3400
 2.0050	 7.3670
 2.0060	 7.3940
 2.0070	 7.4220
 2.0080	 7.4500
 2.0090	 7.4790
 2.0100	 7.5110
 2.0110	 7.5390
 2.0120	 7.5630
 2.0130	 7.5890
 2.0140	 7.6140
 2.0150	 7.6370
 2.0160	 7.6650
 2.0170	 7.6900
 2.0180	 7.7130
 2.0190	 7.7350
 2.0200	 7.7560
 2.0210	 7.7750
 2.0220	 7.7970
 2.0230	 7.8180
 2.0240	 7.8400
 2.0250	 7.8640
 2.0260	 7.8870
 2.0270	 7.9090
 2.0280	 7.9330
 2.0290	 7.9550
 2.0300	 7.9750
 2.0310	 7.9940
 2.0320	 8.0120
 2.0330	 8.0300
 2.0340	 8.0460
 2.0350	 8.0630
 2.0360	 8.0810
 2.0370	 8.0970
 2.0380	 8.1130
 2.0390	 8.1290
 2.0400	 8.1440
 2.0410	 8.1580
 2.0420	 8.1720
 2.0430	 8.1850
 2.0440	 8.1980
 2.0450	 8.2080
 2.0460	 8.2200
 2.0470	 8.2320
 2.0480	 8.2440
 2.0490	 8.2580
 2.0500	 8.2700
 2.0510	 8.2830
 2.0520	 8.2960
 2.0530	 8.3080
 2.0540	 8.3200
 2.0550	 8.3320
 2.0560	 8.3430
 2.0570	 8.3520
 2.0580	 8.3620
 2.0590	 8.3730
 2.0600	 8.3830
 2.0610	 8.3920
 2.0620	 8.4010
 2.0630	 8.4120
 2.0640	 8.4210
 2.0650	 8.4330
 2.0660	 8.4480
 2.0670	 8.4600
 2.0680	 8.4720
 2.0690	 8.4840
 2.0700	 8.4950
 2.0710	 8.5070
 2.0720	 8.5190
 2.0730	 8.5290
 2.0740	 8.5410
 2.0750	 8.5520
 2.0760	 8.5630
 2.0770	 8.5760
 2.0780	 8.5870
 2.0790	 8.5970
 2.0800	 8.6070
 2.0810	 8.6170
 2.0820	 8.6260
 2.0830	 8.6350
 2.0840	 8.6440
 2.0850	 8.6540
 2.0860	 8.6640
 2.0870	 8.6740
 2.0880	 8.6840
 2.0890	 8.6950
 2.0900	 8.7060
 2.0910	 8.7180
 2.0920	 8.7330
 2.0930	 8.7450
 2.0940	 8.7560
 2.0950	 8.7680
 2.0960	 8.7800
 2.0970	 8.7910
 2.0980	 8.8020
 2.0990	 8.8120
 2.1000	 8.8180
 2.1010	 8.8260
 2.1020	 8.8350
 2.1030	 8.8450
 2.1040	 8.8550
 2.1050	 8.8660
 2.1060	 8.8770
 2.1070	 8.8880
 2.1080	 8.8990
 2.1090	 8.9120
 2.1100	 8.9230
 2.1110	 8.9340
 2.1120	 8.9440
 2.1130	 8.9510
 2.1140	 8.9590
 2.1150	 8.9680
 2.1160	 8.9760
 2.1170	 8.9840
 2.1180	 8.9920
 2.1190	 9.0010
 2.1200	 9.0080
 2.1210	 9.0150
 2.1220	 9.0210
 2.1230	 9.0280
 2.1240	 9.0340
 2.1250	 9.0420
 2.1260	 9.0520
 2.1270	 9.0610
 2.1280	 9.0740
 2.1290	 9.0820
 2.1300	 9.0880
 2.1310	 9.0960
 2.1320	 9.1010
 2.1330	 9.1100
 2.1340	 9.1230
 2.1350	 9.1350
 2.1360	 9.1520
 2.1370	 9.1650
 2.1380	 9.1780
 2.1390	 9.1900
 2.1400	 9.1990
 2.1410	 9.2100
 2.1420	 9.2220
 2.1430	 9.2340
 2.1440	 9.2480
 2.1450	 9.2630
 2.1460	 9.2770
 2.1470	 9.2920
 2.1480	 9.3070
 2.1490	 9.3220
 2.1500	 9.3380
 2.1510	 9.3560
 2.1520	 9.3720
 2.1530	 9.3890
 2.1540	 9.4060
 2.1550	 9.4220
 2.1560	 9.4380
 2.1570	 9.4550
 2.1580	 9.4700
 2.1590	 9.4860
 2.1600	 9.4990
 2.1610	 9.5140
 2.1620	 9.5320
 2.1630	 9.5490
 2.1640	 9.5700
 2.1650	 9.5850
 2.1660	 9.5990
 2.1670	 9.6120
 2.1680	 9.6220
 2.1690	 9.6350
 2.1700	 9.6470
 2.1710	 9.6590
 2.1720	 9.6710
 2.1730	 9.6830
 2.1740	 9.6950
 2.1750	 9.7070
 2.1760	 9.7170
 2.1770	 9.7280
 2.1780	 9.7370
 2.1790	 9.7480
 2.1800	 9.7570
 2.1810	 9.7680
 2.1820	 9.7800
 2.1830	 9.7930
 2.1840	 9.8070
 2.1850	 9.8230
 2.1860	 9.8370
 2.1870	 9.8510
 2.1880	 9.8630
 2.1890	 9.8720
 2.1900	 9.8840
 2.1910	 9.8960
 2.1920	 9.9090
 2.1930	 9.9260
 2.1940	 9.9400
 2.1950	 9.9560
 2.1960	 9.9680
 2.1970	 9.9760
 2.1980	 9.9890
 2.1990	10.0010
 2.2000	10.0150
 2.2010	10.0360
 2.2020	10.0490
 2.2030	10.0570
 2.2040	10.0670
 2.2050	10.0760
 2.2060	10.0790
 2.2070	10.0880
 2.2080	10.0990
 2.2090	10.1090
 2.2100	10.1200
 2.2110	10.1300
 2.2120	10.1410
 2.2130	10.1490
 2.2140	10.1540
 2.2150	10.1590
 2.2160	10.1630
 2.2170	10.1670
 2.2180	10.1720
 2.2190	10.1730
 2.2200	10.1690
 2.2210	10.1670
 2.2220	10.1620
 2.2230	10.1590
 2.2240	10.1590
 2.2250	10.1560
 2.2260	10.1530
 2.2270	10.1450
 2.2280	10.1330
 2.2290	10.1200
 2.2300	10.1040
 2.2310	10.0880
 2.2320	10.0740
 2.2330	10.0590
 2.2340	10.0410
 2.2350	10.0230
 2.2360	10.0010
 2.2370	 9.9750
 2.2380	 9.9500
 2.2390	 9.9250
 2.2400	 9.8980
 2.2410	 9.8700
 2.2420	 9.8380
 2.2430	 9.8030
 2.2440	 9.7690
 2.2450	 9.7320
 2.2460	 9.6950
 2.2470	 9.6570
 2.2480	 9.6190
 2.2490	 9.5800
 2.2500	 9.5400
 2.2510	 9.5000
 2.2520	 9.4580
 2.2530	 9.4120
 2.2540	 9.3680
 2.2550	 9.3240
 2.2560	 9.2810
 2.2570	 9.2390
 2.2580	 9.1960
 2.2590	 9.1530
 2.2600	 9.1110
 2.2610	 9.0710
 2.2620	 9.0310
 2.2630	 8.9940
 2.2640	 8.9580
 2.2650	 8.9230
 2.2660	 8.8870
 2.2670	 8.8460
 2.2680	 8.8010
 2.2690	 8.7630
 2.2700	 8.7240
 2.2710	 8.6900
 2.2720	 8.6640
 2.2730	 8.6320
 2.2740	 8.5970
 2.2750	 8.5680
 2.2760	 8.5430
 2.2770	 8.5160
 2.2780	 8.4930
 2.2790	 8.4670
 2.2800	 8.4420
 2.2810	 8.4130
 2.2820	 8.3840
 2.2830	 8.3550
 2.2840	 8.3190
 2.2850	 8.2900
 2.2860	 8.2670
 2.2870	 8.2380
 2.2880	 8.2090
 2.2890	 8.1780
 2.2900	 8.1420
 2.2910	 8.1060
 2.2920	 8.0720
 2.2930	 8.0360
 2.2940	 7.9960
 2.2950	 7.9600
 2.2960	 7.9240
 2.2970	 7.8870
 2.2980	 7.8490
 2.2990	 7.8140
 2.3000	 7.7830
 2.3010	 7.7500
 2.3020	 7.7190
 2.3030	 7.6950
 2.3040	 7.6660
 2.3050	 7.6420
 2.3060	 7.6210
 2.3070	 7.6020
 2.3080	 7.5840
 2.3090	 7.5630
 2.3100	 7.5520
 2.3110	 7.5450
 2.3120	 7.5430
 2.3130	 7.5510
 2.3140	 7.5570
 2.3150	 7.5650
 2.3160	 7.5720
 2.3170	 7.5800
 2.3180	 7.5900
 2.3190	 7.6020
 2.3200	 7.6150
 2.3210	 7.6360
 2.3220	 7.6440
 2.3230	 7.6460
 2.3240	 7.6470
 2.3250	 7.6400
 2.3260	 7.6340
 2.3270	 7.6310
 2.3280	 7.6220
 2.3290	 7.6060
 2.3300	 7.5930
 2.3310	 7.5770
 2.3320	 7.5620
 2.3330	 7.5490
 2.3340	 7.5340
 2.3350	 7.5170
 2.3360	 7.5010
 2.3370	 7.4870
 2.3380	 7.4700
 2.3390	 7.4570
 2.3400	 7.4380
 2.3410	 7.4130
 2.3420	 7.3910
 2.3430	 7.3650
 2.3440	 7.3430
 2.3450	 7.3250
 2.3460	 7.3080
 2.3470	 7.2890
 2.3480	 7.2770
 2.3490	 7.2750
 2.3500	 7.2680
 2.3510	 7.2640
 2.3520	 7.2590
 2.3530	 7.2490
 2.3540	 7.2400
 2.3550	 7.2400
 2.3560	 7.2390
 2.3570	 7.2390
 2.3580	 7.2470
 2.3590	 7.2450
 2.3600	 7.2440
 2.3610	 7.2450
 2.3620	 7.2400
 2.3630	 7.2390
 2.3640	 7.2370
 2.3650	 7.2280
 2.3660	 7.2150
 2.3670	 7.1960
 2.3680	 7.1800
 2.3690	 7.1670
 2.3700	 7.1540
 2.3710	 7.1440
 2.3720	 7.1300
 2.3730	 7.1140
 2.3740	 7.1020
 2.3750	 7.0920
 2.3760	 7.0790
 2.3770	 7.0680
 2.3780	 7.0580
 2.3790	 7.0440
 2.3800	 7.0340
 2.3810	 7.0210
 2.3820	 7.0060
 2.3830	 6.9920
 2.3840	 6.9770
 2.3850	 6.9670
 2.3860	 6.9540
 2.3870	 6.9420
 2.3880	 6.9340
 2.3890	 6.9180
 2.3900	 6.8990
 2.3910	 6.8780
 2.3920	 6.8550
 2.3930	 6.8320
 2.3940	 6.8270
 2.3950	 6.8240
 2.3960	 6.8060
 2.3970	 6.7990
 2.3980	 6.7840
 2.3990	 6.7640
 2.4000	 6.7590
 2.4010	 6.7460
 2.4020	 6.7330
 2.4030	 6.7230
 2.4040	 6.7120
 2.4050	 6.7040
 2.4060	 6.6950
 2.4070	 6.6870
 2.4080	 6.6760
 2.4090	 6.6670
 2.4100	 6.6570
 2.4110	 6.6360
 2.4120	 6.6140
 2.4130	 6.5960
 2.4140	 6.5820
 2.4150	 6.5760
 2.4160	 6.5760
 2.4170	 6.5760
 2.4180	 6.5710
 2.4190	 6.5610
 2.4200	 6.5480
 2.4210	 6.5370
 2.4220	 6.5220
 2.4230	 6.5000
 2.4240	 6.4930
 2.4250	 6.4830
 2.4260	 6.4640
 2.4270	 6.4540
 2.4280	 6.4340
 2.4290	 6.3990
 2.4300	 6.3690
 2.4310	 6.3590
 2.4320	 6.3580
 2.4330	 6.3580
 2.4340	 6.3710
 2.4350	 6.3650
 2.4360	 6.3540
 2.4370	 6.3500
 2.4380	 6.3320
 2.4390	 6.3180
 2.4400	 6.2920
 2.4410	 6.2620
 2.4420	 6.2490
 2.4430	 6.2300
 2.4440	 6.2130
 2.4450	 6.1930
 2.4460	 6.1680
 2.4470	 6.1480
 2.4480	 6.1260
 2.4490	 6.1120
 2.4500	 6.1050
 2.4510	 6.0840
 2.4520	 6.0860
 2.4530	 6.1080
 2.4540	 6.0980
 2.4550	 6.0840
 2.4560	 6.0640
 2.4570	 6.0250
 2.4580	 6.0030
 2.4590	 5.9960
 2.4600	 5.9920
 2.4610	 5.9880
 2.4620	 5.9820
 2.4630	 5.9780
 2.4640	 5.9740
 2.4650	 5.9710
 2.4660	 5.9660
 2.4670	 5.9690
 2.4680	 5.9660
 2.4690	 5.9240
 2.4700	 5.9050
 2.4710	 5.8830
 2.4720	 5.8640
 2.4730	 5.8670
 2.4740	 5.8620
 2.4750	 5.8400
 2.4760	 5.8400
 2.4770	 5.8620
 2.4780	 5.8650
 2.4790	 5.8750
 2.4800	 5.8700
 2.4810	 5.8330
 2.4820	 5.8250
 2.4830	 5.8230
 2.4840	 5.8200
 2.4850	 5.8480
 2.4860	 5.8500
 2.4870	 5.8160
 2.4880	 5.8090
 2.4890	 5.7940
 2.4900	 5.7790
 2.4910	 5.8150
 2.4920	 5.8190
 2.4930	 5.8010
 2.4940	 5.7890
 2.4950	 5.7570
 2.4960	 5.7530
 2.4970	 5.7580
 2.4980	 5.7670
 2.4990	 5.7910
 2.5000	 5.7640
