Name: Arctostaphylos glandulosa 3
Type: vegetation
Class: Shrub
Genus: Arctostaphylos
Species: glandulosa
Sample No.: VH226
Owner: UCSB
Wavelength Range: VSWIR
Origin: 34.5085; -119.7682; WGS84
Collection Date: 10/13/2013
Description: Samples were collected as part of the HyspIRI Airborne Campaign. 48 individual plants were sampled in three times in 2013 - spring  summer  and fall. The name of the sample includes a 1  2  or 3 which references a different individual of the species. Samples were taken to JPL and processed within 48 hours of collection. The same leaves were processed in the Nicolet and then measured using the ASD.
Measurement: Bidirectional reflectance
First Column: X
Second Column: Y
X Units: Wavelength (micrometers)
Y Units: Reflectance (percentage)
First X Value: 0.35
Last X Value: 2.5
Number of X Values: 2151
Additional Information: vegetation.shrub.arctostaphylos.glandulosa.vswir.vh226.ucsb.asd.ancillary.txt

 0.3500	 9.0960
 0.3510	 8.8460
 0.3520	 8.8230
 0.3530	 8.8040
 0.3540	 8.6170
 0.3550	 8.7000
 0.3560	 8.6800
 0.3570	 8.6390
 0.3580	 8.8320
 0.3590	 8.9250
 0.3600	 8.8160
 0.3610	 8.6180
 0.3620	 8.7120
 0.3630	 8.7570
 0.3640	 8.7490
 0.3650	 8.7490
 0.3660	 8.7390
 0.3670	 8.7070
 0.3680	 8.6690
 0.3690	 8.6530
 0.3700	 8.6510
 0.3710	 8.5600
 0.3720	 8.4260
 0.3730	 8.6040
 0.3740	 8.6770
 0.3750	 8.6630
 0.3760	 8.6740
 0.3770	 8.5490
 0.3780	 8.4620
 0.3790	 8.4640
 0.3800	 8.4820
 0.3810	 8.3790
 0.3820	 8.3440
 0.3830	 8.4770
 0.3840	 8.5820
 0.3850	 8.5140
 0.3860	 8.3970
 0.3870	 8.4240
 0.3880	 8.5110
 0.3890	 8.5210
 0.3900	 8.4560
 0.3910	 8.4570
 0.3920	 8.5040
 0.3930	 8.5210
 0.3940	 8.4660
 0.3950	 8.4070
 0.3960	 8.3850
 0.3970	 8.4070
 0.3980	 8.4560
 0.3990	 8.4840
 0.4000	 8.4480
 0.4010	 8.3930
 0.4020	 8.4660
 0.4030	 8.4550
 0.4040	 8.4120
 0.4050	 8.4240
 0.4060	 8.4510
 0.4070	 8.4320
 0.4080	 8.4000
 0.4090	 8.4430
 0.4100	 8.4800
 0.4110	 8.4980
 0.4120	 8.4890
 0.4130	 8.4410
 0.4140	 8.4740
 0.4150	 8.5390
 0.4160	 8.5510
 0.4170	 8.5430
 0.4180	 8.5480
 0.4190	 8.5770
 0.4200	 8.6150
 0.4210	 8.6630
 0.4220	 8.6960
 0.4230	 8.7050
 0.4240	 8.7470
 0.4250	 8.7800
 0.4260	 8.8120
 0.4270	 8.8670
 0.4280	 8.9140
 0.4290	 8.9580
 0.4300	 8.9950
 0.4310	 9.0120
 0.4320	 9.0380
 0.4330	 9.0740
 0.4340	 9.1120
 0.4350	 9.1360
 0.4360	 9.1870
 0.4370	 9.2500
 0.4380	 9.2740
 0.4390	 9.3120
 0.4400	 9.3670
 0.4410	 9.4260
 0.4420	 9.4690
 0.4430	 9.5100
 0.4440	 9.5500
 0.4450	 9.5860
 0.4460	 9.6280
 0.4470	 9.6560
 0.4480	 9.6780
 0.4490	 9.7390
 0.4500	 9.7580
 0.4510	 9.7660
 0.4520	 9.8040
 0.4530	 9.8540
 0.4540	 9.8760
 0.4550	 9.8790
 0.4560	 9.9030
 0.4570	 9.9300
 0.4580	 9.9450
 0.4590	 9.9470
 0.4600	 9.9530
 0.4610	 9.9780
 0.4620	10.0030
 0.4630	10.0060
 0.4640	10.0140
 0.4650	10.0180
 0.4660	10.0210
 0.4670	10.0360
 0.4680	10.0420
 0.4690	10.0490
 0.4700	10.0620
 0.4710	10.0450
 0.4720	10.0570
 0.4730	10.0860
 0.4740	10.0860
 0.4750	10.0900
 0.4760	10.1050
 0.4770	10.1250
 0.4780	10.1290
 0.4790	10.1310
 0.4800	10.1410
 0.4810	10.1630
 0.4820	10.1810
 0.4830	10.1850
 0.4840	10.1860
 0.4850	10.2150
 0.4860	10.2420
 0.4870	10.2560
 0.4880	10.2630
 0.4890	10.3090
 0.4900	10.3440
 0.4910	10.3670
 0.4920	10.4030
 0.4930	10.4520
 0.4940	10.5020
 0.4950	10.5520
 0.4960	10.6090
 0.4970	10.6740
 0.4980	10.7460
 0.4990	10.8230
 0.5000	10.8960
 0.5010	10.9900
 0.5020	11.0930
 0.5030	11.1730
 0.5040	11.2870
 0.5050	11.4190
 0.5060	11.5500
 0.5070	11.6900
 0.5080	11.8380
 0.5090	11.9970
 0.5100	12.1730
 0.5110	12.3630
 0.5120	12.5650
 0.5130	12.7750
 0.5140	12.9940
 0.5150	13.2340
 0.5160	13.4830
 0.5170	13.7340
 0.5180	14.0050
 0.5190	14.2730
 0.5200	14.5400
 0.5210	14.8170
 0.5220	15.0970
 0.5230	15.3750
 0.5240	15.6480
 0.5250	15.9020
 0.5260	16.1580
 0.5270	16.4080
 0.5280	16.6340
 0.5290	16.8540
 0.5300	17.0630
 0.5310	17.2560
 0.5320	17.4350
 0.5330	17.5970
 0.5340	17.7480
 0.5350	17.8910
 0.5360	18.0180
 0.5370	18.1320
 0.5380	18.2360
 0.5390	18.3350
 0.5400	18.4230
 0.5410	18.5010
 0.5420	18.5750
 0.5430	18.6470
 0.5440	18.7210
 0.5450	18.7920
 0.5460	18.8560
 0.5470	18.9280
 0.5480	19.0010
 0.5490	19.0640
 0.5500	19.1060
 0.5510	19.1420
 0.5520	19.1710
 0.5530	19.1880
 0.5540	19.1910
 0.5550	19.1800
 0.5560	19.1550
 0.5570	19.1180
 0.5580	19.0720
 0.5590	19.0140
 0.5600	18.9430
 0.5610	18.8550
 0.5620	18.7620
 0.5630	18.6610
 0.5640	18.5430
 0.5650	18.4160
 0.5660	18.2800
 0.5670	18.1350
 0.5680	17.9880
 0.5690	17.8270
 0.5700	17.6600
 0.5710	17.4980
 0.5720	17.3390
 0.5730	17.1970
 0.5740	17.0670
 0.5750	16.9340
 0.5760	16.8100
 0.5770	16.7000
 0.5780	16.6020
 0.5790	16.5020
 0.5800	16.4110
 0.5810	16.3220
 0.5820	16.2260
 0.5830	16.1410
 0.5840	16.0660
 0.5850	15.9940
 0.5860	15.9180
 0.5870	15.8390
 0.5880	15.7620
 0.5890	15.6890
 0.5900	15.6230
 0.5910	15.5650
 0.5920	15.5170
 0.5930	15.4750
 0.5940	15.4300
 0.5950	15.3930
 0.5960	15.3640
 0.5970	15.3220
 0.5980	15.2840
 0.5990	15.2490
 0.6000	15.2130
 0.6010	15.1750
 0.6020	15.1310
 0.6030	15.0780
 0.6040	15.0170
 0.6050	14.9540
 0.6060	14.8870
 0.6070	14.8140
 0.6080	14.7330
 0.6090	14.6450
 0.6100	14.5520
 0.6110	14.4560
 0.6120	14.3740
 0.6130	14.3020
 0.6140	14.2350
 0.6150	14.1660
 0.6160	14.0970
 0.6170	14.0300
 0.6180	13.9700
 0.6190	13.9120
 0.6200	13.8520
 0.6210	13.7970
 0.6220	13.7590
 0.6230	13.7280
 0.6240	13.7000
 0.6250	13.6720
 0.6260	13.6560
 0.6270	13.6420
 0.6280	13.6300
 0.6290	13.6220
 0.6300	13.6070
 0.6310	13.5920
 0.6320	13.5770
 0.6330	13.5560
 0.6340	13.5170
 0.6350	13.4610
 0.6360	13.3950
 0.6370	13.3180
 0.6380	13.2210
 0.6390	13.1080
 0.6400	12.9890
 0.6410	12.8640
 0.6420	12.7330
 0.6430	12.5970
 0.6440	12.4660
 0.6450	12.3330
 0.6460	12.2050
 0.6470	12.0910
 0.6480	11.9890
 0.6490	11.8970
 0.6500	11.8160
 0.6510	11.7500
 0.6520	11.6940
 0.6530	11.6460
 0.6540	11.6010
 0.6550	11.5500
 0.6560	11.4970
 0.6570	11.4400
 0.6580	11.3750
 0.6590	11.3070
 0.6600	11.2300
 0.6610	11.1460
 0.6620	11.0670
 0.6630	10.9990
 0.6640	10.9360
 0.6650	10.8710
 0.6660	10.8110
 0.6670	10.7620
 0.6680	10.7230
 0.6690	10.6880
 0.6700	10.6770
 0.6710	10.6680
 0.6720	10.6560
 0.6730	10.6670
 0.6740	10.6800
 0.6750	10.6980
 0.6760	10.7250
 0.6770	10.7610
 0.6780	10.8020
 0.6790	10.8510
 0.6800	10.9160
 0.6810	10.9910
 0.6820	11.0840
 0.6830	11.2010
 0.6840	11.3400
 0.6850	11.5070
 0.6860	11.7100
 0.6870	11.9600
 0.6880	12.2590
 0.6890	12.6120
 0.6900	13.0280
 0.6910	13.5200
 0.6920	14.0870
 0.6930	14.7270
 0.6940	15.4400
 0.6950	16.2340
 0.6960	17.0970
 0.6970	18.0260
 0.6980	19.0160
 0.6990	20.0590
 0.7000	21.1480
 0.7010	22.2760
 0.7020	23.4270
 0.7030	24.5900
 0.7040	25.7520
 0.7050	26.9060
 0.7060	28.0620
 0.7070	29.2000
 0.7080	30.3090
 0.7090	31.3850
 0.7100	32.4460
 0.7110	33.4810
 0.7120	34.4810
 0.7130	35.4470
 0.7140	36.3880
 0.7150	37.2990
 0.7160	38.1720
 0.7170	39.0000
 0.7180	39.8120
 0.7190	40.5950
 0.7200	41.3230
 0.7210	42.0330
 0.7220	42.7090
 0.7230	43.3460
 0.7240	43.9570
 0.7250	44.5240
 0.7260	45.0570
 0.7270	45.5660
 0.7280	46.0390
 0.7290	46.4980
 0.7300	46.9310
 0.7310	47.3190
 0.7320	47.6890
 0.7330	48.0420
 0.7340	48.3770
 0.7350	48.6910
 0.7360	48.9670
 0.7370	49.2280
 0.7380	49.4890
 0.7390	49.7240
 0.7400	49.9280
 0.7410	50.1230
 0.7420	50.3290
 0.7430	50.5000
 0.7440	50.6560
 0.7450	50.8080
 0.7460	50.9520
 0.7470	51.0680
 0.7480	51.1760
 0.7490	51.2860
 0.7500	51.3750
 0.7510	51.4750
 0.7520	51.5620
 0.7530	51.6090
 0.7540	51.6630
 0.7550	51.7230
 0.7560	51.7830
 0.7570	51.8360
 0.7580	51.8820
 0.7590	51.9150
 0.7600	51.9400
 0.7610	51.9960
 0.7620	52.0280
 0.7630	52.0400
 0.7640	52.0540
 0.7650	52.0750
 0.7660	52.0920
 0.7670	52.1090
 0.7680	52.1380
 0.7690	52.1520
 0.7700	52.1600
 0.7710	52.1680
 0.7720	52.1810
 0.7730	52.1960
 0.7740	52.1950
 0.7750	52.1760
 0.7760	52.2010
 0.7770	52.2210
 0.7780	52.2390
 0.7790	52.2710
 0.7800	52.2530
 0.7810	52.2400
 0.7820	52.2500
 0.7830	52.2650
 0.7840	52.2560
 0.7850	52.2610
 0.7860	52.2980
 0.7870	52.3270
 0.7880	52.3150
 0.7890	52.3040
 0.7900	52.3370
 0.7910	52.3390
 0.7920	52.3430
 0.7930	52.3510
 0.7940	52.3480
 0.7950	52.3630
 0.7960	52.3760
 0.7970	52.3780
 0.7980	52.3850
 0.7990	52.3930
 0.8000	52.4020
 0.8010	52.4140
 0.8020	52.4190
 0.8030	52.4270
 0.8040	52.4390
 0.8050	52.4510
 0.8060	52.4460
 0.8070	52.4490
 0.8080	52.4670
 0.8090	52.4870
 0.8100	52.4750
 0.8110	52.4610
 0.8120	52.4680
 0.8130	52.4900
 0.8140	52.4970
 0.8150	52.5040
 0.8160	52.5270
 0.8170	52.5250
 0.8180	52.5310
 0.8190	52.5410
 0.8200	52.5400
 0.8210	52.5580
 0.8220	52.5720
 0.8230	52.5840
 0.8240	52.6140
 0.8250	52.6130
 0.8260	52.5980
 0.8270	52.5860
 0.8280	52.5760
 0.8290	52.5950
 0.8300	52.6230
 0.8310	52.6310
 0.8320	52.6150
 0.8330	52.6150
 0.8340	52.6220
 0.8350	52.6130
 0.8360	52.6330
 0.8370	52.6540
 0.8380	52.6630
 0.8390	52.6580
 0.8400	52.6540
 0.8410	52.6730
 0.8420	52.7060
 0.8430	52.7060
 0.8440	52.7190
 0.8450	52.7400
 0.8460	52.7530
 0.8470	52.7510
 0.8480	52.7650
 0.8490	52.7870
 0.8500	52.7980
 0.8510	52.7850
 0.8520	52.7880
 0.8530	52.8030
 0.8540	52.8000
 0.8550	52.8180
 0.8560	52.8360
 0.8570	52.8390
 0.8580	52.8210
 0.8590	52.8300
 0.8600	52.8500
 0.8610	52.8620
 0.8620	52.8650
 0.8630	52.8780
 0.8640	52.8880
 0.8650	52.8860
 0.8660	52.8870
 0.8670	52.8980
 0.8680	52.9110
 0.8690	52.9170
 0.8700	52.9300
 0.8710	52.9360
 0.8720	52.9350
 0.8730	52.9380
 0.8740	52.9430
 0.8750	52.9460
 0.8760	52.9520
 0.8770	52.9680
 0.8780	52.9600
 0.8790	52.9460
 0.8800	52.9490
 0.8810	52.9800
 0.8820	52.9830
 0.8830	52.9850
 0.8840	53.0040
 0.8850	52.9930
 0.8860	52.9600
 0.8870	52.9370
 0.8880	52.9430
 0.8890	52.9510
 0.8900	52.9470
 0.8910	52.9380
 0.8920	52.9330
 0.8930	52.9220
 0.8940	52.9310
 0.8950	52.9520
 0.8960	52.9540
 0.8970	52.9300
 0.8980	52.9100
 0.8990	52.9080
 0.9000	52.9190
 0.9010	52.9190
 0.9020	52.9050
 0.9030	52.8870
 0.9040	52.8830
 0.9050	52.8980
 0.9060	52.9010
 0.9070	52.8750
 0.9080	52.8470
 0.9090	52.8300
 0.9100	52.8310
 0.9110	52.8380
 0.9120	52.8070
 0.9130	52.8030
 0.9140	52.8100
 0.9150	52.8010
 0.9160	52.8150
 0.9170	52.8230
 0.9180	52.7980
 0.9190	52.7360
 0.9200	52.7410
 0.9210	52.7440
 0.9220	52.7310
 0.9230	52.7210
 0.9240	52.6940
 0.9250	52.6810
 0.9260	52.6760
 0.9270	52.6510
 0.9280	52.6400
 0.9290	52.6290
 0.9300	52.6050
 0.9310	52.5610
 0.9320	52.5160
 0.9330	52.4880
 0.9340	52.4690
 0.9350	52.4270
 0.9360	52.3940
 0.9370	52.3670
 0.9380	52.3380
 0.9390	52.3010
 0.9400	52.2800
 0.9410	52.2450
 0.9420	52.1850
 0.9430	52.1470
 0.9440	52.1290
 0.9450	52.0920
 0.9460	52.0140
 0.9470	51.9250
 0.9480	51.8730
 0.9490	51.8270
 0.9500	51.7540
 0.9510	51.6800
 0.9520	51.6030
 0.9530	51.5160
 0.9540	51.4200
 0.9550	51.3370
 0.9560	51.2320
 0.9570	51.1210
 0.9580	51.0250
 0.9590	50.9320
 0.9600	50.8740
 0.9610	50.8160
 0.9620	50.7300
 0.9630	50.6960
 0.9640	50.6510
 0.9650	50.5940
 0.9660	50.5470
 0.9670	50.5180
 0.9680	50.4720
 0.9690	50.4370
 0.9700	50.4460
 0.9710	50.4350
 0.9720	50.4380
 0.9730	50.4310
 0.9740	50.3890
 0.9750	50.3810
 0.9760	50.3870
 0.9770	50.4130
 0.9780	50.4600
 0.9790	50.4450
 0.9800	50.4030
 0.9810	50.3760
 0.9820	50.3940
 0.9830	50.4680
 0.9840	50.5040
 0.9850	50.4980
 0.9860	50.4980
 0.9870	50.5170
 0.9880	50.5450
 0.9890	50.5850
 0.9900	50.6360
 0.9910	50.6750
 0.9920	50.7890
 0.9930	50.9030
 0.9940	51.0180
 0.9950	51.1320
 0.9960	51.2470
 0.9970	51.3610
 0.9980	51.4760
 0.9990	51.5900
 1.0000	51.7050
 1.0010	51.8190
 1.0020	51.9330
 1.0030	52.0480
 1.0040	52.1620
 1.0050	52.2770
 1.0060	52.3910
 1.0070	52.5060
 1.0080	52.6200
 1.0090	52.7350
 1.0100	52.7350
 1.0110	52.7720
 1.0120	52.8080
 1.0130	52.8300
 1.0140	52.8660
 1.0150	52.9050
 1.0160	52.9580
 1.0170	53.0140
 1.0180	53.0620
 1.0190	53.1120
 1.0200	53.1530
 1.0210	53.1730
 1.0220	53.1980
 1.0230	53.2260
 1.0240	53.2520
 1.0250	53.2770
 1.0260	53.3070
 1.0270	53.3340
 1.0280	53.3520
 1.0290	53.3800
 1.0300	53.4180
 1.0310	53.4520
 1.0320	53.4810
 1.0330	53.5250
 1.0340	53.5640
 1.0350	53.5930
 1.0360	53.6230
 1.0370	53.6360
 1.0380	53.6590
 1.0390	53.6760
 1.0400	53.6990
 1.0410	53.7330
 1.0420	53.7530
 1.0430	53.7610
 1.0440	53.7780
 1.0450	53.7960
 1.0460	53.8100
 1.0470	53.8310
 1.0480	53.8440
 1.0490	53.8410
 1.0500	53.8460
 1.0510	53.8510
 1.0520	53.8580
 1.0530	53.8680
 1.0540	53.8820
 1.0550	53.8950
 1.0560	53.9110
 1.0570	53.9260
 1.0580	53.9480
 1.0590	53.9610
 1.0600	53.9710
 1.0610	53.9790
 1.0620	53.9770
 1.0630	53.9840
 1.0640	53.9980
 1.0650	54.0090
 1.0660	54.0240
 1.0670	54.0350
 1.0680	54.0450
 1.0690	54.0480
 1.0700	54.0570
 1.0710	54.0740
 1.0720	54.0720
 1.0730	54.0600
 1.0740	54.0580
 1.0750	54.0500
 1.0760	54.0470
 1.0770	54.0600
 1.0780	54.0570
 1.0790	54.0430
 1.0800	54.0340
 1.0810	54.0160
 1.0820	54.0090
 1.0830	54.0120
 1.0840	54.0090
 1.0850	54.0110
 1.0860	54.0110
 1.0870	54.0010
 1.0880	53.9800
 1.0890	53.9690
 1.0900	53.9550
 1.0910	53.9450
 1.0920	53.9400
 1.0930	53.9320
 1.0940	53.9250
 1.0950	53.9140
 1.0960	53.8990
 1.0970	53.8860
 1.0980	53.8760
 1.0990	53.8570
 1.1000	53.8300
 1.1010	53.8070
 1.1020	53.7850
 1.1030	53.7510
 1.1040	53.7160
 1.1050	53.6960
 1.1060	53.6710
 1.1070	53.6460
 1.1080	53.6200
 1.1090	53.6010
 1.1100	53.5720
 1.1110	53.5390
 1.1120	53.4990
 1.1130	53.4520
 1.1140	53.4070
 1.1150	53.3600
 1.1160	53.3110
 1.1170	53.2650
 1.1180	53.2110
 1.1190	53.1510
 1.1200	53.0910
 1.1210	53.0240
 1.1220	52.9570
 1.1230	52.8870
 1.1240	52.8100
 1.1250	52.7250
 1.1260	52.6380
 1.1270	52.5380
 1.1280	52.4220
 1.1290	52.3140
 1.1300	52.2070
 1.1310	52.0900
 1.1320	51.9760
 1.1330	51.8500
 1.1340	51.7170
 1.1350	51.5710
 1.1360	51.4150
 1.1370	51.2530
 1.1380	51.0810
 1.1390	50.8950
 1.1400	50.7070
 1.1410	50.5160
 1.1420	50.3140
 1.1430	50.1110
 1.1440	49.9070
 1.1450	49.6940
 1.1460	49.4890
 1.1470	49.2850
 1.1480	49.0830
 1.1490	48.8760
 1.1500	48.6850
 1.1510	48.4920
 1.1520	48.3180
 1.1530	48.1610
 1.1540	48.0140
 1.1550	47.8780
 1.1560	47.7580
 1.1570	47.6580
 1.1580	47.5660
 1.1590	47.4870
 1.1600	47.4150
 1.1610	47.3440
 1.1620	47.2840
 1.1630	47.2340
 1.1640	47.1930
 1.1650	47.1550
 1.1660	47.1250
 1.1670	47.0980
 1.1680	47.0730
 1.1690	47.0530
 1.1700	47.0420
 1.1710	47.0250
 1.1720	47.0100
 1.1730	46.9940
 1.1740	46.9770
 1.1750	46.9580
 1.1760	46.9450
 1.1770	46.9240
 1.1780	46.9010
 1.1790	46.8750
 1.1800	46.8450
 1.1810	46.8220
 1.1820	46.7990
 1.1830	46.7760
 1.1840	46.7510
 1.1850	46.7230
 1.1860	46.6940
 1.1870	46.6660
 1.1880	46.6430
 1.1890	46.6220
 1.1900	46.5990
 1.1910	46.5760
 1.1920	46.5580
 1.1930	46.5380
 1.1940	46.5240
 1.1950	46.5190
 1.1960	46.5110
 1.1970	46.5080
 1.1980	46.5060
 1.1990	46.5070
 1.2000	46.5120
 1.2010	46.5120
 1.2020	46.5180
 1.2030	46.5310
 1.2040	46.5460
 1.2050	46.5650
 1.2060	46.5880
 1.2070	46.6130
 1.2080	46.6420
 1.2090	46.6770
 1.2100	46.7150
 1.2110	46.7550
 1.2120	46.7950
 1.2130	46.8390
 1.2140	46.8890
 1.2150	46.9410
 1.2160	46.9950
 1.2170	47.0550
 1.2180	47.1160
 1.2190	47.1850
 1.2200	47.2530
 1.2210	47.3190
 1.2220	47.3860
 1.2230	47.4490
 1.2240	47.5120
 1.2250	47.5740
 1.2260	47.6340
 1.2270	47.6960
 1.2280	47.7600
 1.2290	47.8190
 1.2300	47.8730
 1.2310	47.9230
 1.2320	47.9660
 1.2330	48.0140
 1.2340	48.0620
 1.2350	48.1120
 1.2360	48.1590
 1.2370	48.2080
 1.2380	48.2460
 1.2390	48.2840
 1.2400	48.3220
 1.2410	48.3610
 1.2420	48.4000
 1.2430	48.4400
 1.2440	48.4770
 1.2450	48.5110
 1.2460	48.5490
 1.2470	48.5850
 1.2480	48.6110
 1.2490	48.6340
 1.2500	48.6530
 1.2510	48.6720
 1.2520	48.6910
 1.2530	48.7080
 1.2540	48.7290
 1.2550	48.7480
 1.2560	48.7650
 1.2570	48.7840
 1.2580	48.8000
 1.2590	48.8160
 1.2600	48.8310
 1.2610	48.8440
 1.2620	48.8540
 1.2630	48.8670
 1.2640	48.8740
 1.2650	48.8780
 1.2660	48.8840
 1.2670	48.8850
 1.2680	48.8810
 1.2690	48.8780
 1.2700	48.8770
 1.2710	48.8710
 1.2720	48.8640
 1.2730	48.8580
 1.2740	48.8460
 1.2750	48.8310
 1.2760	48.8190
 1.2770	48.8040
 1.2780	48.7950
 1.2790	48.7840
 1.2800	48.7590
 1.2810	48.7340
 1.2820	48.7090
 1.2830	48.6820
 1.2840	48.6630
 1.2850	48.6450
 1.2860	48.6210
 1.2870	48.5910
 1.2880	48.5560
 1.2890	48.5140
 1.2900	48.4650
 1.2910	48.4140
 1.2920	48.3640
 1.2930	48.3160
 1.2940	48.2660
 1.2950	48.2140
 1.2960	48.1530
 1.2970	48.0890
 1.2980	48.0260
 1.2990	47.9580
 1.3000	47.8930
 1.3010	47.8230
 1.3020	47.7480
 1.3030	47.6740
 1.3040	47.5910
 1.3050	47.5040
 1.3060	47.4180
 1.3070	47.3250
 1.3080	47.2250
 1.3090	47.1220
 1.3100	47.0160
 1.3110	46.9000
 1.3120	46.7820
 1.3130	46.6660
 1.3140	46.5390
 1.3150	46.4050
 1.3160	46.2710
 1.3170	46.1340
 1.3180	45.9890
 1.3190	45.8450
 1.3200	45.6920
 1.3210	45.5340
 1.3220	45.3740
 1.3230	45.2090
 1.3240	45.0420
 1.3250	44.8670
 1.3260	44.6880
 1.3270	44.5040
 1.3280	44.3150
 1.3290	44.1220
 1.3300	43.9250
 1.3310	43.7270
 1.3320	43.5250
 1.3330	43.3290
 1.3340	43.1320
 1.3350	42.9300
 1.3360	42.7240
 1.3370	42.5120
 1.3380	42.3080
 1.3390	42.1060
 1.3400	41.9030
 1.3410	41.7070
 1.3420	41.5070
 1.3430	41.3070
 1.3440	41.1080
 1.3450	40.9120
 1.3460	40.7180
 1.3470	40.5270
 1.3480	40.3380
 1.3490	40.1510
 1.3500	39.9690
 1.3510	39.7830
 1.3520	39.6000
 1.3530	39.4220
 1.3540	39.2440
 1.3550	39.0670
 1.3560	38.8930
 1.3570	38.7130
 1.3580	38.5340
 1.3590	38.3520
 1.3600	38.1650
 1.3610	37.9750
 1.3620	37.7810
 1.3630	37.5820
 1.3640	37.3770
 1.3650	37.1640
 1.3660	36.9470
 1.3670	36.7220
 1.3680	36.4880
 1.3690	36.2430
 1.3700	35.9790
 1.3710	35.7030
 1.3720	35.4130
 1.3730	35.1060
 1.3740	34.7870
 1.3750	34.4540
 1.3760	34.1000
 1.3770	33.7270
 1.3780	33.3320
 1.3790	32.9130
 1.3800	32.4700
 1.3810	32.0030
 1.3820	31.5210
 1.3830	31.0220
 1.3840	30.5060
 1.3850	29.9710
 1.3860	29.4280
 1.3870	28.8640
 1.3880	28.3020
 1.3890	27.7320
 1.3900	27.1600
 1.3910	26.5930
 1.3920	26.0230
 1.3930	25.4560
 1.3940	24.8980
 1.3950	24.3410
 1.3960	23.7940
 1.3970	23.2610
 1.3980	22.7410
 1.3990	22.2450
 1.4000	21.7650
 1.4010	21.3010
 1.4020	20.8580
 1.4030	20.4320
 1.4040	20.0260
 1.4050	19.6420
 1.4060	19.2790
 1.4070	18.9410
 1.4080	18.6240
 1.4090	18.3300
 1.4100	18.0590
 1.4110	17.8100
 1.4120	17.5790
 1.4130	17.3690
 1.4140	17.1750
 1.4150	17.0000
 1.4160	16.8440
 1.4170	16.6990
 1.4180	16.5700
 1.4190	16.4530
 1.4200	16.3460
 1.4210	16.2540
 1.4220	16.1730
 1.4230	16.1020
 1.4240	16.0410
 1.4250	15.9850
 1.4260	15.9370
 1.4270	15.8940
 1.4280	15.8570
 1.4290	15.8260
 1.4300	15.8030
 1.4310	15.7840
 1.4320	15.7720
 1.4330	15.7640
 1.4340	15.7620
 1.4350	15.7600
 1.4360	15.7620
 1.4370	15.7670
 1.4380	15.7730
 1.4390	15.7830
 1.4400	15.7980
 1.4410	15.8140
 1.4420	15.8290
 1.4430	15.8470
 1.4440	15.8690
 1.4450	15.8890
 1.4460	15.9110
 1.4470	15.9370
 1.4480	15.9590
 1.4490	15.9810
 1.4500	16.0070
 1.4510	16.0300
 1.4520	16.0530
 1.4530	16.0790
 1.4540	16.1030
 1.4550	16.1300
 1.4560	16.1600
 1.4570	16.1890
 1.4580	16.2220
 1.4590	16.2550
 1.4600	16.2900
 1.4610	16.3300
 1.4620	16.3720
 1.4630	16.4180
 1.4640	16.4660
 1.4650	16.5160
 1.4660	16.5720
 1.4670	16.6300
 1.4680	16.6920
 1.4690	16.7580
 1.4700	16.8250
 1.4710	16.8980
 1.4720	16.9780
 1.4730	17.0600
 1.4740	17.1450
 1.4750	17.2280
 1.4760	17.3160
 1.4770	17.4070
 1.4780	17.5020
 1.4790	17.5990
 1.4800	17.6970
 1.4810	17.7960
 1.4820	17.8970
 1.4830	17.9970
 1.4840	18.1020
 1.4850	18.2050
 1.4860	18.3080
 1.4870	18.4160
 1.4880	18.5200
 1.4890	18.6220
 1.4900	18.7260
 1.4910	18.8300
 1.4920	18.9340
 1.4930	19.0410
 1.4940	19.1480
 1.4950	19.2550
 1.4960	19.3620
 1.4970	19.4700
 1.4980	19.5770
 1.4990	19.6840
 1.5000	19.7920
 1.5010	19.9010
 1.5020	20.0060
 1.5030	20.1120
 1.5040	20.2160
 1.5050	20.3180
 1.5060	20.4210
 1.5070	20.5220
 1.5080	20.6250
 1.5090	20.7280
 1.5100	20.8310
 1.5110	20.9360
 1.5120	21.0390
 1.5130	21.1380
 1.5140	21.2390
 1.5150	21.3390
 1.5160	21.4370
 1.5170	21.5380
 1.5180	21.6350
 1.5190	21.7290
 1.5200	21.8270
 1.5210	21.9240
 1.5220	22.0190
 1.5230	22.1130
 1.5240	22.2040
 1.5250	22.2920
 1.5260	22.3790
 1.5270	22.4680
 1.5280	22.5570
 1.5290	22.6420
 1.5300	22.7290
 1.5310	22.8160
 1.5320	22.9020
 1.5330	22.9890
 1.5340	23.0730
 1.5350	23.1570
 1.5360	23.2390
 1.5370	23.3190
 1.5380	23.4010
 1.5390	23.4820
 1.5400	23.5650
 1.5410	23.6450
 1.5420	23.7220
 1.5430	23.7970
 1.5440	23.8690
 1.5450	23.9400
 1.5460	24.0130
 1.5470	24.0870
 1.5480	24.1630
 1.5490	24.2420
 1.5500	24.3190
 1.5510	24.3930
 1.5520	24.4640
 1.5530	24.5330
 1.5540	24.6060
 1.5550	24.6810
 1.5560	24.7530
 1.5570	24.8250
 1.5580	24.8940
 1.5590	24.9590
 1.5600	25.0250
 1.5610	25.0880
 1.5620	25.1520
 1.5630	25.2160
 1.5640	25.2810
 1.5650	25.3480
 1.5660	25.4130
 1.5670	25.4760
 1.5680	25.5390
 1.5690	25.6000
 1.5700	25.6640
 1.5710	25.7310
 1.5720	25.7960
 1.5730	25.8610
 1.5740	25.9210
 1.5750	25.9810
 1.5760	26.0400
 1.5770	26.0990
 1.5780	26.1640
 1.5790	26.2260
 1.5800	26.2880
 1.5810	26.3530
 1.5820	26.4140
 1.5830	26.4720
 1.5840	26.5330
 1.5850	26.5910
 1.5860	26.6490
 1.5870	26.7080
 1.5880	26.7630
 1.5890	26.8200
 1.5900	26.8740
 1.5910	26.9250
 1.5920	26.9820
 1.5930	27.0380
 1.5940	27.0940
 1.5950	27.1550
 1.5960	27.2140
 1.5970	27.2730
 1.5980	27.3350
 1.5990	27.3940
 1.6000	27.4530
 1.6010	27.5110
 1.6020	27.5670
 1.6030	27.6230
 1.6040	27.6790
 1.6050	27.7360
 1.6060	27.7870
 1.6070	27.8330
 1.6080	27.8780
 1.6090	27.9210
 1.6100	27.9690
 1.6110	28.0200
 1.6120	28.0670
 1.6130	28.1100
 1.6140	28.1530
 1.6150	28.1970
 1.6160	28.2430
 1.6170	28.2890
 1.6180	28.3350
 1.6190	28.3780
 1.6200	28.4230
 1.6210	28.4670
 1.6220	28.5060
 1.6230	28.5460
 1.6240	28.5830
 1.6250	28.6160
 1.6260	28.6480
 1.6270	28.6810
 1.6280	28.7090
 1.6290	28.7390
 1.6300	28.7680
 1.6310	28.7940
 1.6320	28.8200
 1.6330	28.8430
 1.6340	28.8670
 1.6350	28.8840
 1.6360	28.8960
 1.6370	28.9050
 1.6380	28.9100
 1.6390	28.9130
 1.6400	28.9130
 1.6410	28.9110
 1.6420	28.9070
 1.6430	28.8970
 1.6440	28.8840
 1.6450	28.8640
 1.6460	28.8370
 1.6470	28.8100
 1.6480	28.7850
 1.6490	28.7590
 1.6500	28.7270
 1.6510	28.6910
 1.6520	28.6530
 1.6530	28.6130
 1.6540	28.5720
 1.6550	28.5340
 1.6560	28.4930
 1.6570	28.4540
 1.6580	28.4210
 1.6590	28.3920
 1.6600	28.3680
 1.6610	28.3520
 1.6620	28.3390
 1.6630	28.3300
 1.6640	28.3290
 1.6650	28.3340
 1.6660	28.3420
 1.6670	28.3540
 1.6680	28.3690
 1.6690	28.3800
 1.6700	28.3900
 1.6710	28.4000
 1.6720	28.4110
 1.6730	28.4180
 1.6740	28.4260
 1.6750	28.4320
 1.6760	28.4290
 1.6770	28.4260
 1.6780	28.4190
 1.6790	28.4050
 1.6800	28.3940
 1.6810	28.3790
 1.6820	28.3580
 1.6830	28.3280
 1.6840	28.2890
 1.6850	28.2460
 1.6860	28.1980
 1.6870	28.1460
 1.6880	28.0880
 1.6890	28.0260
 1.6900	27.9650
 1.6910	27.9070
 1.6920	27.8440
 1.6930	27.7770
 1.6940	27.7100
 1.6950	27.6400
 1.6960	27.5720
 1.6970	27.5070
 1.6980	27.4390
 1.6990	27.3690
 1.7000	27.3030
 1.7010	27.2400
 1.7020	27.1710
 1.7030	27.1030
 1.7040	27.0310
 1.7050	26.9500
 1.7060	26.8770
 1.7070	26.8060
 1.7080	26.7350
 1.7090	26.6660
 1.7100	26.5970
 1.7110	26.5260
 1.7120	26.4600
 1.7130	26.3970
 1.7140	26.3370
 1.7150	26.2800
 1.7160	26.2290
 1.7170	26.1810
 1.7180	26.1330
 1.7190	26.0890
 1.7200	26.0410
 1.7210	25.9920
 1.7220	25.9510
 1.7230	25.9130
 1.7240	25.8780
 1.7250	25.8460
 1.7260	25.8130
 1.7270	25.7850
 1.7280	25.7640
 1.7290	25.7500
 1.7300	25.7420
 1.7310	25.7330
 1.7320	25.7250
 1.7330	25.7170
 1.7340	25.7100
 1.7350	25.7010
 1.7360	25.6960
 1.7370	25.6810
 1.7380	25.6620
 1.7390	25.6380
 1.7400	25.6070
 1.7410	25.5700
 1.7420	25.5230
 1.7430	25.4780
 1.7440	25.4260
 1.7450	25.3750
 1.7460	25.3250
 1.7470	25.2740
 1.7480	25.2190
 1.7490	25.1670
 1.7500	25.1170
 1.7510	25.0640
 1.7520	25.0080
 1.7530	24.9550
 1.7540	24.9010
 1.7550	24.8460
 1.7560	24.7960
 1.7570	24.7510
 1.7580	24.7040
 1.7590	24.6610
 1.7600	24.6180
 1.7610	24.5760
 1.7620	24.5370
 1.7630	24.5020
 1.7640	24.4700
 1.7650	24.4380
 1.7660	24.4090
 1.7670	24.3870
 1.7680	24.3640
 1.7690	24.3410
 1.7700	24.3180
 1.7710	24.2950
 1.7720	24.2740
 1.7730	24.2550
 1.7740	24.2380
 1.7750	24.2250
 1.7760	24.2070
 1.7770	24.1860
 1.7780	24.1660
 1.7790	24.1420
 1.7800	24.1220
 1.7810	24.1030
 1.7820	24.0880
 1.7830	24.0740
 1.7840	24.0600
 1.7850	24.0490
 1.7860	24.0390
 1.7870	24.0270
 1.7880	24.0180
 1.7890	24.0150
 1.7900	24.0130
 1.7910	24.0130
 1.7920	24.0200
 1.7930	24.0230
 1.7940	24.0270
 1.7950	24.0290
 1.7960	24.0290
 1.7970	24.0300
 1.7980	24.0310
 1.7990	24.0310
 1.8000	24.0300
 1.8010	24.0300
 1.8020	24.0300
 1.8030	24.0320
 1.8040	24.0330
 1.8050	24.0400
 1.8060	24.0490
 1.8070	24.0580
 1.8080	24.0740
 1.8090	24.0830
 1.8100	24.0890
 1.8110	24.0960
 1.8120	24.0970
 1.8130	24.0970
 1.8140	24.0950
 1.8150	24.0920
 1.8160	24.0930
 1.8170	24.1000
 1.8180	24.1080
 1.8190	24.1150
 1.8200	24.1210
 1.8210	24.1270
 1.8220	24.1290
 1.8230	24.1300
 1.8240	24.1290
 1.8250	24.1200
 1.8260	24.1170
 1.8270	24.1050
 1.8280	24.0930
 1.8290	24.0810
 1.8300	24.0690
 1.8310	24.0560
 1.8320	24.0440
 1.8330	24.0320
 1.8340	24.0200
 1.8350	24.0200
 1.8360	23.9960
 1.8370	23.9660
 1.8380	23.9330
 1.8390	23.8960
 1.8400	23.8500
 1.8410	23.8020
 1.8420	23.7550
 1.8430	23.6990
 1.8440	23.6380
 1.8450	23.5770
 1.8460	23.5130
 1.8470	23.4380
 1.8480	23.3570
 1.8490	23.2720
 1.8500	23.1730
 1.8510	23.0640
 1.8520	22.9480
 1.8530	22.8170
 1.8540	22.6760
 1.8550	22.5260
 1.8560	22.3640
 1.8570	22.2040
 1.8580	22.0290
 1.8590	21.8420
 1.8600	21.6430
 1.8610	21.4410
 1.8620	21.2190
 1.8630	20.9820
 1.8640	20.7360
 1.8650	20.4750
 1.8660	20.2010
 1.8670	19.9190
 1.8680	19.6250
 1.8690	19.3240
 1.8700	19.0140
 1.8710	18.6960
 1.8720	18.3720
 1.8730	18.0400
 1.8740	17.7000
 1.8750	17.3520
 1.8760	17.0020
 1.8770	16.6540
 1.8780	16.3050
 1.8790	15.9540
 1.8800	15.6120
 1.8810	15.2710
 1.8820	14.9390
 1.8830	14.6160
 1.8840	14.3010
 1.8850	13.9980
 1.8860	13.7100
 1.8870	13.4280
 1.8880	13.1640
 1.8890	12.9180
 1.8900	12.6770
 1.8910	12.4510
 1.8920	12.2370
 1.8930	12.0380
 1.8940	11.8550
 1.8950	11.6880
 1.8960	11.5360
 1.8970	11.4020
 1.8980	11.2740
 1.8990	11.1630
 1.9000	11.0610
 1.9010	10.9720
 1.9020	10.8900
 1.9030	10.8200
 1.9040	10.7570
 1.9050	10.7000
 1.9060	10.6510
 1.9070	10.6100
 1.9080	10.5670
 1.9090	10.5250
 1.9100	10.4910
 1.9110	10.4630
 1.9120	10.4420
 1.9130	10.4230
 1.9140	10.4110
 1.9150	10.3980
 1.9160	10.3880
 1.9170	10.3820
 1.9180	10.3790
 1.9190	10.3790
 1.9200	10.3780
 1.9210	10.3780
 1.9220	10.3750
 1.9230	10.3650
 1.9240	10.3660
 1.9250	10.3710
 1.9260	10.3730
 1.9270	10.3900
 1.9280	10.4060
 1.9290	10.4140
 1.9300	10.4280
 1.9310	10.4370
 1.9320	10.4410
 1.9330	10.4490
 1.9340	10.4540
 1.9350	10.4650
 1.9360	10.4790
 1.9370	10.4940
 1.9380	10.5140
 1.9390	10.5310
 1.9400	10.5450
 1.9410	10.5590
 1.9420	10.5770
 1.9430	10.5970
 1.9440	10.6180
 1.9450	10.6430
 1.9460	10.6640
 1.9470	10.6870
 1.9480	10.7080
 1.9490	10.7250
 1.9500	10.7480
 1.9510	10.7810
 1.9520	10.8030
 1.9530	10.8250
 1.9540	10.8510
 1.9550	10.8750
 1.9560	10.8900
 1.9570	10.9140
 1.9580	10.9460
 1.9590	10.9750
 1.9600	11.0080
 1.9610	11.0370
 1.9620	11.0610
 1.9630	11.0890
 1.9640	11.1200
 1.9650	11.1500
 1.9660	11.1810
 1.9670	11.2120
 1.9680	11.2420
 1.9690	11.2650
 1.9700	11.2980
 1.9710	11.3400
 1.9720	11.3760
 1.9730	11.4140
 1.9740	11.4520
 1.9750	11.4810
 1.9760	11.5150
 1.9770	11.5450
 1.9780	11.5730
 1.9790	11.6040
 1.9800	11.6310
 1.9810	11.6660
 1.9820	11.7070
 1.9830	11.7470
 1.9840	11.7940
 1.9850	11.8360
 1.9860	11.8780
 1.9870	11.9150
 1.9880	11.9460
 1.9890	11.9820
 1.9900	12.0290
 1.9910	12.0750
 1.9920	12.1190
 1.9930	12.1710
 1.9940	12.2150
 1.9950	12.2510
 1.9960	12.2920
 1.9970	12.3360
 1.9980	12.3760
 1.9990	12.4110
 2.0000	12.4500
 2.0010	12.4940
 2.0020	12.5390
 2.0030	12.5860
 2.0040	12.6280
 2.0050	12.6720
 2.0060	12.7170
 2.0070	12.7560
 2.0080	12.7960
 2.0090	12.8340
 2.0100	12.8650
 2.0110	12.8990
 2.0120	12.9380
 2.0130	12.9710
 2.0140	12.9990
 2.0150	13.0370
 2.0160	13.0730
 2.0170	13.1070
 2.0180	13.1440
 2.0190	13.1840
 2.0200	13.2200
 2.0210	13.2550
 2.0220	13.2910
 2.0230	13.3270
 2.0240	13.3600
 2.0250	13.3910
 2.0260	13.4250
 2.0270	13.4610
 2.0280	13.4930
 2.0290	13.5240
 2.0300	13.5550
 2.0310	13.5790
 2.0320	13.5940
 2.0330	13.6120
 2.0340	13.6230
 2.0350	13.6450
 2.0360	13.6740
 2.0370	13.6970
 2.0380	13.7250
 2.0390	13.7490
 2.0400	13.7640
 2.0410	13.7840
 2.0420	13.8120
 2.0430	13.8390
 2.0440	13.8560
 2.0450	13.8700
 2.0460	13.8800
 2.0470	13.8750
 2.0480	13.8880
 2.0490	13.9080
 2.0500	13.9250
 2.0510	13.9550
 2.0520	13.9690
 2.0530	13.9690
 2.0540	13.9760
 2.0550	13.9780
 2.0560	13.9810
 2.0570	13.9910
 2.0580	14.0040
 2.0590	14.0170
 2.0600	14.0330
 2.0610	14.0460
 2.0620	14.0610
 2.0630	14.0740
 2.0640	14.0850
 2.0650	14.0970
 2.0660	14.1120
 2.0670	14.1240
 2.0680	14.1380
 2.0690	14.1480
 2.0700	14.1510
 2.0710	14.1570
 2.0720	14.1590
 2.0730	14.1630
 2.0740	14.1790
 2.0750	14.2050
 2.0760	14.2210
 2.0770	14.2380
 2.0780	14.2550
 2.0790	14.2660
 2.0800	14.2800
 2.0810	14.3040
 2.0820	14.3170
 2.0830	14.3110
 2.0840	14.3240
 2.0850	14.3500
 2.0860	14.3660
 2.0870	14.3860
 2.0880	14.4070
 2.0890	14.4230
 2.0900	14.4250
 2.0910	14.4380
 2.0920	14.4590
 2.0930	14.4740
 2.0940	14.4870
 2.0950	14.5000
 2.0960	14.5160
 2.0970	14.5250
 2.0980	14.5280
 2.0990	14.5370
 2.1000	14.5390
 2.1010	14.5510
 2.1020	14.5810
 2.1030	14.5960
 2.1040	14.6070
 2.1050	14.6160
 2.1060	14.6220
 2.1070	14.6120
 2.1080	14.6220
 2.1090	14.6450
 2.1100	14.6570
 2.1110	14.6700
 2.1120	14.6850
 2.1130	14.6990
 2.1140	14.7100
 2.1150	14.7210
 2.1160	14.7370
 2.1170	14.7510
 2.1180	14.7660
 2.1190	14.7960
 2.1200	14.8120
 2.1210	14.8210
 2.1220	14.8190
 2.1230	14.8220
 2.1240	14.8190
 2.1250	14.8230
 2.1260	14.8290
 2.1270	14.8360
 2.1280	14.8420
 2.1290	14.8510
 2.1300	14.8620
 2.1310	14.8760
 2.1320	14.8950
 2.1330	14.9130
 2.1340	14.9370
 2.1350	14.9520
 2.1360	14.9610
 2.1370	14.9730
 2.1380	14.9790
 2.1390	14.9920
 2.1400	15.0090
 2.1410	15.0350
 2.1420	15.0510
 2.1430	15.0650
 2.1440	15.0810
 2.1450	15.0900
 2.1460	15.1050
 2.1470	15.1250
 2.1480	15.1410
 2.1490	15.1510
 2.1500	15.1730
 2.1510	15.2020
 2.1520	15.2290
 2.1530	15.2670
 2.1540	15.2930
 2.1550	15.3080
 2.1560	15.3270
 2.1570	15.3440
 2.1580	15.3590
 2.1590	15.3780
 2.1600	15.3900
 2.1610	15.3940
 2.1620	15.4070
 2.1630	15.4200
 2.1640	15.4310
 2.1650	15.4500
 2.1660	15.4760
 2.1670	15.5010
 2.1680	15.5310
 2.1690	15.5530
 2.1700	15.5740
 2.1710	15.5930
 2.1720	15.6060
 2.1730	15.6220
 2.1740	15.6390
 2.1750	15.6560
 2.1760	15.6770
 2.1770	15.6920
 2.1780	15.7060
 2.1790	15.7190
 2.1800	15.7220
 2.1810	15.7360
 2.1820	15.7560
 2.1830	15.7780
 2.1840	15.7920
 2.1850	15.8060
 2.1860	15.8200
 2.1870	15.8240
 2.1880	15.8410
 2.1890	15.8700
 2.1900	15.8910
 2.1910	15.9120
 2.1920	15.9330
 2.1930	15.9540
 2.1940	15.9720
 2.1950	15.9880
 2.1960	16.0050
 2.1970	16.0180
 2.1980	16.0350
 2.1990	16.0600
 2.2000	16.0760
 2.2010	16.0850
 2.2020	16.0980
 2.2030	16.1120
 2.2040	16.1220
 2.2050	16.1300
 2.2060	16.1460
 2.2070	16.1580
 2.2080	16.1670
 2.2090	16.1770
 2.2100	16.1910
 2.2110	16.2000
 2.2120	16.2030
 2.2130	16.2080
 2.2140	16.2130
 2.2150	16.2180
 2.2160	16.2240
 2.2170	16.2270
 2.2180	16.2260
 2.2190	16.2280
 2.2200	16.2270
 2.2210	16.2270
 2.2220	16.2280
 2.2230	16.2280
 2.2240	16.2320
 2.2250	16.2250
 2.2260	16.2080
 2.2270	16.1980
 2.2280	16.1780
 2.2290	16.1670
 2.2300	16.1720
 2.2310	16.1710
 2.2320	16.1700
 2.2330	16.1680
 2.2340	16.1450
 2.2350	16.1070
 2.2360	16.0740
 2.2370	16.0260
 2.2380	15.9940
 2.2390	15.9730
 2.2400	15.9460
 2.2410	15.9220
 2.2420	15.8920
 2.2430	15.8640
 2.2440	15.8240
 2.2450	15.7710
 2.2460	15.7250
 2.2470	15.6720
 2.2480	15.6240
 2.2490	15.5880
 2.2500	15.5380
 2.2510	15.4750
 2.2520	15.4240
 2.2530	15.3710
 2.2540	15.3220
 2.2550	15.2890
 2.2560	15.2430
 2.2570	15.1870
 2.2580	15.1340
 2.2590	15.0720
 2.2600	15.0210
 2.2610	14.9760
 2.2620	14.9350
 2.2630	14.8920
 2.2640	14.8490
 2.2650	14.8000
 2.2660	14.7610
 2.2670	14.7270
 2.2680	14.7040
 2.2690	14.6700
 2.2700	14.6370
 2.2710	14.5980
 2.2720	14.5510
 2.2730	14.5060
 2.2740	14.4540
 2.2750	14.4190
 2.2760	14.3910
 2.2770	14.3590
 2.2780	14.3410
 2.2790	14.3110
 2.2800	14.2690
 2.2810	14.2350
 2.2820	14.2000
 2.2830	14.1720
 2.2840	14.1520
 2.2850	14.1290
 2.2860	14.1120
 2.2870	14.0870
 2.2880	14.0580
 2.2890	14.0240
 2.2900	13.9850
 2.2910	13.9440
 2.2920	13.8820
 2.2930	13.8420
 2.2940	13.8140
 2.2950	13.7820
 2.2960	13.7680
 2.2970	13.7410
 2.2980	13.7090
 2.2990	13.6630
 2.3000	13.6130
 2.3010	13.5590
 2.3020	13.5140
 2.3030	13.4790
 2.3040	13.4620
 2.3050	13.4510
 2.3060	13.4350
 2.3070	13.4270
 2.3080	13.4350
 2.3090	13.4430
 2.3100	13.4330
 2.3110	13.4380
 2.3120	13.4390
 2.3130	13.4300
 2.3140	13.4290
 2.3150	13.4410
 2.3160	13.4380
 2.3170	13.4300
 2.3180	13.4110
 2.3190	13.3820
 2.3200	13.3680
 2.3210	13.3530
 2.3220	13.3380
 2.3230	13.3270
 2.3240	13.3230
 2.3250	13.3160
 2.3260	13.3170
 2.3270	13.3470
 2.3280	13.3480
 2.3290	13.3250
 2.3300	13.3140
 2.3310	13.3020
 2.3320	13.2880
 2.3330	13.2780
 2.3340	13.2660
 2.3350	13.2450
 2.3360	13.2240
 2.3370	13.2060
 2.3380	13.1880
 2.3390	13.1620
 2.3400	13.1530
 2.3410	13.1580
 2.3420	13.1620
 2.3430	13.1850
 2.3440	13.1860
 2.3450	13.1730
 2.3460	13.1600
 2.3470	13.1330
 2.3480	13.1060
 2.3490	13.0730
 2.3500	13.0500
 2.3510	13.0170
 2.3520	13.0050
 2.3530	13.0060
 2.3540	13.0230
 2.3550	13.0480
 2.3560	13.0640
 2.3570	13.0520
 2.3580	13.0290
 2.3590	13.0070
 2.3600	12.9810
 2.3610	12.9710
 2.3620	12.9710
 2.3630	12.9580
 2.3640	12.9330
 2.3650	12.9270
 2.3660	12.9160
 2.3670	12.9130
 2.3680	12.9170
 2.3690	12.9220
 2.3700	12.9310
 2.3710	12.9010
 2.3720	12.8800
 2.3730	12.8490
 2.3740	12.8010
 2.3750	12.8150
 2.3760	12.8240
 2.3770	12.8090
 2.3780	12.7990
 2.3790	12.7570
 2.3800	12.7050
 2.3810	12.6850
 2.3820	12.6850
 2.3830	12.6920
 2.3840	12.7190
 2.3850	12.7240
 2.3860	12.7020
 2.3870	12.6760
 2.3880	12.6210
 2.3890	12.5730
 2.3900	12.5440
 2.3910	12.5320
 2.3920	12.5450
 2.3930	12.5420
 2.3940	12.5460
 2.3950	12.5390
 2.3960	12.4920
 2.3970	12.4520
 2.3980	12.4430
 2.3990	12.4310
 2.4000	12.4060
 2.4010	12.4030
 2.4020	12.3690
 2.4030	12.3320
 2.4040	12.3520
 2.4050	12.3640
 2.4060	12.3780
 2.4070	12.3530
 2.4080	12.2880
 2.4090	12.2550
 2.4100	12.2210
 2.4110	12.2140
 2.4120	12.2320
 2.4130	12.2090
 2.4140	12.1720
 2.4150	12.1380
 2.4160	12.0880
 2.4170	12.0560
 2.4180	12.0550
 2.4190	12.0460
 2.4200	12.0280
 2.4210	12.0230
 2.4220	12.0250
 2.4230	11.9810
 2.4240	11.9590
 2.4250	11.9730
 2.4260	11.9120
 2.4270	11.9080
 2.4280	11.9390
 2.4290	11.9110
 2.4300	11.9110
 2.4310	11.8920
 2.4320	11.8610
 2.4330	11.8310
 2.4340	11.7890
 2.4350	11.8070
 2.4360	11.8090
 2.4370	11.7660
 2.4380	11.7560
 2.4390	11.7080
 2.4400	11.6680
 2.4410	11.6670
 2.4420	11.6430
 2.4430	11.6250
 2.4440	11.5800
 2.4450	11.5450
 2.4460	11.5290
 2.4470	11.5110
 2.4480	11.4850
 2.4490	11.4450
 2.4500	11.4500
 2.4510	11.4640
 2.4520	11.4750
 2.4530	11.4910
 2.4540	11.4740
 2.4550	11.4340
 2.4560	11.4060
 2.4570	11.3600
 2.4580	11.3230
 2.4590	11.3420
 2.4600	11.3840
 2.4610	11.4620
 2.4620	11.5180
 2.4630	11.4890
 2.4640	11.4260
 2.4650	11.3750
 2.4660	11.3550
 2.4670	11.3810
 2.4680	11.4010
 2.4690	11.3940
 2.4700	11.3550
 2.4710	11.2370
 2.4720	11.2040
 2.4730	11.2330
 2.4740	11.2080
 2.4750	11.2070
 2.4760	11.2060
 2.4770	11.1450
 2.4780	11.1050
 2.4790	11.0810
 2.4800	11.0630
 2.4810	11.0280
 2.4820	11.0350
 2.4830	11.1120
 2.4840	11.2220
 2.4850	11.2740
 2.4860	11.2770
 2.4870	11.3500
 2.4880	11.3180
 2.4890	11.1820
 2.4900	11.1430
 2.4910	11.1100
 2.4920	11.0530
 2.4930	11.0650
 2.4940	11.0720
 2.4950	10.9270
 2.4960	10.8390
 2.4970	10.9330
 2.4980	11.0190
 2.4990	11.1780
 2.5000	11.3380
