Name: Pinus ponderosa 3
Type: vegetation
Class: Tree
Genus: Pinus
Species: ponderosa
Sample No.: VH261
Owner: UCSB
Wavelength Range: TIR
Origin: 37.043; -119.3048; WGS84
Collection Date: 11/2/2013
Description: Samples were collected as part of the HyspIRI Airborne Campaign. 48 individual plants were sampled in three times in 2013 - spring  summer  and fall. The name of the sample includes a 1  2  or 3 which references a different individual of the species. Samples were taken to JPL and processed within 48 hours of collection. The same leaves were processed in the Nicolet and then measured using the ASD.
Measurement: Hemispherical reflectance
First Column: X
Second Column: Y
X Units: Wavelength (micrometers)
Y Units: Reflectance (percentage)
First X Value: 2.501
Last X Value: 15.387
Number of X Values: 1737
Additional Information: vegetation.tree.pinus.ponderosa.tir.vh261.ucsb.nicolet.ancillary.txt

 2.5010	 3.4990
 2.5030	 3.7020
 2.5040	 3.7800
 2.5050	 3.6060
 2.5060	 3.7270
 2.5070	 3.8080
 2.5090	 3.6640
 2.5100	 3.5880
 2.5110	 3.7230
 2.5120	 3.6580
 2.5140	 3.5780
 2.5150	 3.6290
 2.5160	 3.7200
 2.5170	 3.6340
 2.5180	 3.6430
 2.5200	 3.7050
 2.5210	 3.7770
 2.5220	 3.7870
 2.5230	 3.7920
 2.5250	 3.9990
 2.5260	 4.0200
 2.5270	 3.8090
 2.5280	 3.6920
 2.5290	 3.6690
 2.5310	 3.6320
 2.5320	 3.6480
 2.5330	 3.7690
 2.5340	 3.8030
 2.5360	 3.6910
 2.5370	 3.6870
 2.5380	 3.6770
 2.5390	 3.6140
 2.5410	 3.6910
 2.5420	 3.8110
 2.5430	 3.7760
 2.5440	 3.7570
 2.5460	 3.8790
 2.5470	 3.8430
 2.5480	 3.6880
 2.5490	 3.6270
 2.5510	 3.7730
 2.5520	 4.0000
 2.5530	 3.9690
 2.5540	 3.8060
 2.5560	 3.8980
 2.5570	 3.9490
 2.5580	 3.8370
 2.5590	 3.8440
 2.5610	 3.9860
 2.5620	 4.0220
 2.5630	 3.8850
 2.5640	 3.7200
 2.5660	 3.7240
 2.5670	 3.8590
 2.5680	 3.7950
 2.5700	 3.6310
 2.5710	 3.6790
 2.5720	 3.8350
 2.5730	 3.8500
 2.5750	 3.8480
 2.5760	 3.8300
 2.5770	 3.8000
 2.5790	 3.8830
 2.5800	 3.9440
 2.5810	 3.8970
 2.5820	 3.7160
 2.5840	 3.7640
 2.5850	 3.9560
 2.5860	 3.9850
 2.5880	 3.9610
 2.5890	 3.8340
 2.5900	 3.8600
 2.5910	 3.9790
 2.5930	 3.9060
 2.5940	 4.0040
 2.5950	 3.9300
 2.5970	 3.7670
 2.5980	 3.6610
 2.5990	 3.6740
 2.6000	 3.7040
 2.6020	 3.6710
 2.6030	 3.7020
 2.6040	 3.7440
 2.6060	 3.6030
 2.6070	 3.5740
 2.6080	 3.6080
 2.6100	 3.6400
 2.6110	 3.6680
 2.6120	 3.9010
 2.6140	 3.8640
 2.6150	 3.7090
 2.6160	 3.7030
 2.6180	 3.7140
 2.6190	 3.6300
 2.6200	 3.6500
 2.6220	 3.5170
 2.6230	 3.4440
 2.6240	 3.5170
 2.6260	 3.4670
 2.6270	 3.4280
 2.6280	 3.5270
 2.6300	 3.6190
 2.6310	 3.6680
 2.6320	 3.5950
 2.6340	 3.6510
 2.6350	 3.5780
 2.6360	 3.3750
 2.6380	 3.2840
 2.6390	 3.3020
 2.6400	 3.2850
 2.6420	 3.4920
 2.6430	 3.5010
 2.6440	 3.3220
 2.6460	 3.2940
 2.6470	 3.3890
 2.6480	 3.3150
 2.6500	 3.2920
 2.6510	 3.3690
 2.6520	 3.3690
 2.6540	 3.3030
 2.6550	 3.2120
 2.6560	 3.1660
 2.6580	 3.2030
 2.6590	 3.1270
 2.6610	 3.0920
 2.6620	 3.1570
 2.6630	 3.2120
 2.6650	 3.2960
 2.6660	 3.2800
 2.6670	 3.0890
 2.6690	 3.1440
 2.6700	 3.1670
 2.6720	 3.0110
 2.6730	 2.9760
 2.6740	 3.0140
 2.6760	 3.1950
 2.6770	 3.2560
 2.6780	 3.1540
 2.6800	 3.0640
 2.6810	 2.9530
 2.6830	 2.8460
 2.6840	 2.8620
 2.6850	 3.1430
 2.6870	 3.0720
 2.6880	 2.8270
 2.6900	 2.7570
 2.6910	 2.8720
 2.6920	 2.8890
 2.6940	 2.9150
 2.6950	 2.9060
 2.6970	 2.8210
 2.6980	 2.7950
 2.6990	 2.9530
 2.7010	 2.9260
 2.7020	 2.7110
 2.7040	 2.7040
 2.7050	 2.8420
 2.7060	 2.8270
 2.7080	 2.7880
 2.7090	 2.7430
 2.7110	 2.7830
 2.7120	 2.8830
 2.7130	 2.7710
 2.7150	 2.7270
 2.7160	 2.8500
 2.7180	 2.7360
 2.7190	 2.6090
 2.7210	 2.6210
 2.7220	 2.6180
 2.7230	 2.6110
 2.7250	 2.5910
 2.7260	 2.3970
 2.7280	 2.5370
 2.7290	 2.7730
 2.7310	 2.6660
 2.7320	 2.4120
 2.7330	 2.1780
 2.7350	 2.2590
 2.7360	 2.5210
 2.7380	 2.5000
 2.7390	 2.6370
 2.7410	 2.5440
 2.7420	 2.4790
 2.7440	 2.5300
 2.7450	 2.6610
 2.7470	 2.5950
 2.7480	 2.7020
 2.7490	 2.7250
 2.7510	 2.4830
 2.7520	 2.2940
 2.7540	 2.5210
 2.7550	 2.7380
 2.7570	 2.7550
 2.7580	 2.3080
 2.7600	 2.2620
 2.7610	 2.3260
 2.7630	 2.4920
 2.7640	 2.5560
 2.7660	 2.6220
 2.7670	 2.6320
 2.7680	 2.5340
 2.7700	 2.4760
 2.7710	 2.3550
 2.7730	 2.3200
 2.7740	 2.5230
 2.7760	 2.7260
 2.7770	 2.5720
 2.7790	 2.3960
 2.7800	 2.5190
 2.7820	 2.6000
 2.7830	 2.5550
 2.7850	 2.5610
 2.7860	 2.5680
 2.7880	 2.2720
 2.7890	 2.1540
 2.7910	 2.4260
 2.7920	 2.5220
 2.7940	 2.4770
 2.7950	 2.4700
 2.7970	 2.4440
 2.7980	 2.3900
 2.8000	 2.3340
 2.8010	 2.3830
 2.8030	 2.4330
 2.8040	 2.5530
 2.8060	 2.5990
 2.8070	 2.6050
 2.8090	 2.5640
 2.8110	 2.5100
 2.8120	 2.5970
 2.8140	 2.6250
 2.8150	 2.4470
 2.8170	 2.2590
 2.8180	 2.3740
 2.8200	 2.4310
 2.8210	 2.4090
 2.8230	 2.5240
 2.8240	 2.5650
 2.8260	 2.4370
 2.8270	 2.3930
 2.8290	 2.4190
 2.8300	 2.4130
 2.8320	 2.3580
 2.8340	 2.2610
 2.8350	 2.4030
 2.8370	 2.5680
 2.8380	 2.4720
 2.8400	 2.3660
 2.8410	 2.4390
 2.8430	 2.4240
 2.8440	 2.5820
 2.8460	 2.6240
 2.8480	 2.6000
 2.8490	 2.5390
 2.8510	 2.5070
 2.8520	 2.5090
 2.8540	 2.4830
 2.8550	 2.3710
 2.8570	 2.5210
 2.8590	 2.6820
 2.8600	 2.6050
 2.8620	 2.4860
 2.8630	 2.4140
 2.8650	 2.4630
 2.8660	 2.4740
 2.8680	 2.3850
 2.8700	 2.5540
 2.8710	 2.5430
 2.8730	 2.3560
 2.8740	 2.4260
 2.8760	 2.5430
 2.8780	 2.4860
 2.8790	 2.3180
 2.8810	 2.2180
 2.8820	 2.5430
 2.8840	 2.6320
 2.8860	 2.5510
 2.8870	 2.6230
 2.8890	 2.5760
 2.8900	 2.5870
 2.8920	 2.3800
 2.8940	 2.3130
 2.8950	 2.4850
 2.8970	 2.4720
 2.8980	 2.2040
 2.9000	 2.1550
 2.9020	 2.2930
 2.9030	 2.1050
 2.9050	 2.0070
 2.9070	 2.2930
 2.9080	 2.5320
 2.9100	 2.4480
 2.9120	 2.6260
 2.9130	 2.7720
 2.9150	 2.6540
 2.9160	 2.5680
 2.9180	 2.5520
 2.9200	 2.4950
 2.9210	 2.5910
 2.9230	 2.5480
 2.9250	 2.3740
 2.9260	 2.4600
 2.9280	 2.5180
 2.9300	 2.5520
 2.9310	 2.4820
 2.9330	 2.5440
 2.9350	 2.5640
 2.9360	 2.5070
 2.9380	 2.3860
 2.9400	 2.2680
 2.9410	 2.3420
 2.9430	 2.3100
 2.9450	 2.2240
 2.9460	 2.4970
 2.9480	 2.7310
 2.9500	 2.2280
 2.9510	 2.1950
 2.9530	 2.7150
 2.9550	 2.8280
 2.9560	 2.3550
 2.9580	 2.4820
 2.9600	 3.3470
 2.9610	 3.1470
 2.9630	 2.7690
 2.9650	 2.3890
 2.9660	 1.7250
 2.9680	 1.7400
 2.9700	 2.3930
 2.9720	 1.9830
 2.9730	 1.6200
 2.9750	 2.4580
 2.9770	 3.5190
 2.9780	 4.2510
 2.9800	 3.4930
 2.9820	 1.6020
 2.9840	 1.1240
 2.9850	 1.7890
 2.9870	 1.3050
 2.9890	 1.5770
 2.9900	 2.8820
 2.9920	 4.2920
 2.9940	 4.7890
 2.9960	 4.2090
 2.9970	 3.2530
 2.9990	 3.8620
 3.0010	 3.7570
 3.0030	 3.4890
 3.0040	 3.0350
 3.0060	 2.5020
 3.0080	 2.6520
 3.0100	 2.3690
 3.0110	 2.1390
 3.0130	 2.7460
 3.0150	 3.3070
 3.0170	 3.3070
 3.0180	 2.8410
 3.0200	 2.4320
 3.0220	 2.1920
 3.0240	 2.4470
 3.0250	 2.5830
 3.0270	 2.5440
 3.0290	 2.4460
 3.0310	 2.5720
 3.0320	 2.7600
 3.0340	 2.8420
 3.0360	 3.0310
 3.0380	 2.3710
 3.0400	 1.8630
 3.0410	 2.8650
 3.0430	 3.6430
 3.0450	 4.6530
 3.0470	 4.7950
 3.0480	 2.4370
 3.0500	 2.6370
 3.0520	 3.7520
 3.0540	 3.4570
 3.0560	 2.8690
 3.0570	 2.4130
 3.0590	 2.3620
 3.0610	 2.3390
 3.0630	 2.1850
 3.0650	 2.4180
 3.0660	 2.8840
 3.0680	 2.7390
 3.0700	 2.5470
 3.0720	 2.2290
 3.0740	 2.4500
 3.0760	 2.3680
 3.0770	 2.1990
 3.0790	 2.4590
 3.0810	 2.6930
 3.0830	 2.4690
 3.0850	 2.4060
 3.0870	 2.4430
 3.0880	 2.5740
 3.0900	 2.6310
 3.0920	 2.6570
 3.0940	 2.6630
 3.0960	 2.6590
 3.0980	 2.2460
 3.0990	 2.1000
 3.1010	 2.2210
 3.1030	 2.1500
 3.1050	 2.3550
 3.1070	 2.5940
 3.1090	 2.5090
 3.1110	 2.5750
 3.1120	 2.5650
 3.1140	 2.5770
 3.1160	 2.4490
 3.1180	 2.2570
 3.1200	 2.1970
 3.1220	 2.2750
 3.1240	 2.3870
 3.1260	 2.4240
 3.1270	 2.1590
 3.1290	 2.0770
 3.1310	 2.3200
 3.1330	 2.2470
 3.1350	 2.1810
 3.1370	 2.5620
 3.1390	 2.7220
 3.1410	 2.4580
 3.1430	 1.4540
 3.1450	 1.5200
 3.1460	 2.2230
 3.1480	 1.8970
 3.1500	 2.0000
 3.1520	 2.7400
 3.1540	 3.3480
 3.1560	 3.4260
 3.1580	 2.4550
 3.1600	 2.2690
 3.1620	 2.3450
 3.1640	 1.7510
 3.1660	 1.7920
 3.1680	 2.9000
 3.1700	 3.3890
 3.1710	 3.7870
 3.1730	 3.3810
 3.1750	 2.7280
 3.1770	 3.0850
 3.1790	 2.5340
 3.1810	 2.4730
 3.1830	 2.9680
 3.1850	 2.0500
 3.1870	 1.4410
 3.1890	 1.7510
 3.1910	 2.3290
 3.1930	 2.4900
 3.1950	 2.5790
 3.1970	 2.6140
 3.1990	 2.5730
 3.2010	 2.5720
 3.2030	 2.4870
 3.2050	 2.3820
 3.2070	 2.5220
 3.2090	 2.5800
 3.2110	 2.6120
 3.2130	 2.6130
 3.2150	 2.4170
 3.2170	 2.3660
 3.2190	 2.4230
 3.2210	 2.4940
 3.2230	 2.4580
 3.2250	 2.3290
 3.2270	 2.2430
 3.2290	 2.4230
 3.2310	 2.4360
 3.2330	 2.3990
 3.2350	 2.4850
 3.2370	 2.4790
 3.2390	 2.2150
 3.2410	 2.3010
 3.2430	 2.6190
 3.2450	 2.6700
 3.2470	 2.6810
 3.2490	 2.5560
 3.2510	 2.3860
 3.2530	 2.4350
 3.2550	 2.3790
 3.2570	 2.2130
 3.2590	 2.2410
 3.2610	 2.3300
 3.2630	 2.4300
 3.2650	 2.5400
 3.2670	 2.4560
 3.2690	 2.2850
 3.2720	 2.3030
 3.2740	 2.4230
 3.2760	 2.4320
 3.2780	 2.2380
 3.2800	 2.2930
 3.2820	 2.3730
 3.2840	 2.2970
 3.2860	 2.2090
 3.2880	 2.1590
 3.2900	 2.1930
 3.2920	 2.0330
 3.2940	 2.0650
 3.2960	 2.3670
 3.2990	 2.3640
 3.3010	 2.2960
 3.3030	 2.2520
 3.3050	 2.0800
 3.3070	 2.1390
 3.3090	 2.3050
 3.3110	 2.2910
 3.3130	 2.3080
 3.3150	 2.4620
 3.3180	 2.4330
 3.3200	 2.2630
 3.3220	 2.1670
 3.3240	 2.1600
 3.3260	 2.2970
 3.3280	 2.2750
 3.3300	 2.2280
 3.3330	 2.2450
 3.3350	 2.1480
 3.3370	 2.0870
 3.3390	 2.2150
 3.3410	 2.2410
 3.3430	 2.1500
 3.3450	 2.1020
 3.3480	 2.1130
 3.3500	 2.0770
 3.3520	 2.0660
 3.3540	 2.1170
 3.3560	 2.1000
 3.3580	 1.9800
 3.3610	 1.9070
 3.3630	 1.8270
 3.3650	 1.8430
 3.3670	 1.9270
 3.3690	 1.9180
 3.3720	 1.8470
 3.3740	 1.8400
 3.3760	 1.9310
 3.3780	 1.9400
 3.3800	 1.9210
 3.3830	 2.0130
 3.3850	 1.9700
 3.3870	 1.8540
 3.3890	 1.7890
 3.3910	 1.7380
 3.3940	 1.9040
 3.3960	 2.1090
 3.3980	 1.9800
 3.4000	 1.8750
 3.4020	 1.9710
 3.4050	 1.9700
 3.4070	 1.8500
 3.4090	 1.8620
 3.4110	 2.0990
 3.4140	 2.1940
 3.4160	 2.3260
 3.4180	 2.5700
 3.4200	 2.6660
 3.4230	 2.9220
 3.4250	 3.2470
 3.4270	 3.5450
 3.4290	 3.7340
 3.4320	 3.7320
 3.4340	 3.7600
 3.4360	 3.8400
 3.4390	 3.6110
 3.4410	 3.2240
 3.4430	 3.1300
 3.4450	 3.1570
 3.4480	 3.1640
 3.4500	 3.3430
 3.4520	 3.4260
 3.4550	 3.3260
 3.4570	 3.2170
 3.4590	 3.1590
 3.4620	 3.2750
 3.4640	 3.2270
 3.4660	 3.0140
 3.4680	 2.8740
 3.4710	 2.7310
 3.4730	 2.8450
 3.4750	 2.8330
 3.4780	 2.6850
 3.4800	 2.5680
 3.4820	 2.6190
 3.4850	 2.5770
 3.4870	 2.4560
 3.4890	 2.4800
 3.4920	 2.4220
 3.4940	 2.2870
 3.4970	 2.2860
 3.4990	 2.3820
 3.5010	 2.4300
 3.5040	 2.6560
 3.5060	 3.1260
 3.5080	 3.7570
 3.5110	 4.2370
 3.5130	 4.0810
 3.5160	 3.8620
 3.5180	 3.7650
 3.5200	 3.7040
 3.5230	 3.6520
 3.5250	 3.5600
 3.5270	 3.3900
 3.5300	 3.3040
 3.5320	 3.2440
 3.5350	 3.0550
 3.5370	 3.0840
 3.5400	 3.1950
 3.5420	 3.0440
 3.5440	 2.9690
 3.5470	 2.9960
 3.5490	 2.9600
 3.5520	 2.9430
 3.5540	 2.9450
 3.5570	 2.8960
 3.5590	 2.8720
 3.5610	 2.8860
 3.5640	 2.9410
 3.5660	 2.9320
 3.5690	 2.8900
 3.5710	 2.8060
 3.5740	 2.8690
 3.5760	 2.9340
 3.5790	 2.8840
 3.5810	 2.8350
 3.5840	 2.8850
 3.5860	 2.8940
 3.5890	 2.7440
 3.5910	 2.6510
 3.5930	 2.7920
 3.5960	 2.9000
 3.5980	 2.8210
 3.6010	 2.8250
 3.6030	 2.7580
 3.6060	 2.7120
 3.6080	 2.7560
 3.6110	 2.8530
 3.6140	 2.9940
 3.6160	 2.9500
 3.6190	 2.8790
 3.6210	 2.9440
 3.6240	 2.9300
 3.6260	 2.7950
 3.6290	 2.7490
 3.6310	 2.7370
 3.6340	 2.8870
 3.6360	 2.9890
 3.6390	 2.8810
 3.6410	 2.8230
 3.6440	 2.8530
 3.6470	 2.7980
 3.6490	 2.7480
 3.6520	 2.8230
 3.6540	 2.7430
 3.6570	 2.7110
 3.6590	 2.7680
 3.6620	 2.6990
 3.6650	 2.6570
 3.6670	 2.6830
 3.6700	 2.7090
 3.6720	 2.7430
 3.6750	 2.7610
 3.6780	 2.7410
 3.6800	 2.7050
 3.6830	 2.6940
 3.6850	 2.6860
 3.6880	 2.6660
 3.6910	 2.7780
 3.6930	 2.7880
 3.6960	 2.6660
 3.6990	 2.7030
 3.7010	 2.7510
 3.7040	 2.6730
 3.7060	 2.6590
 3.7090	 2.7120
 3.7120	 2.8100
 3.7140	 2.9300
 3.7170	 2.8530
 3.7200	 2.7050
 3.7220	 2.6910
 3.7250	 2.7430
 3.7280	 2.6460
 3.7300	 2.5020
 3.7330	 2.6240
 3.7360	 2.7350
 3.7390	 2.7760
 3.7410	 2.6800
 3.7440	 2.6360
 3.7470	 2.7000
 3.7490	 2.7760
 3.7520	 2.8460
 3.7550	 2.8330
 3.7580	 2.7100
 3.7600	 2.6950
 3.7630	 2.8580
 3.7660	 2.9220
 3.7680	 2.8430
 3.7710	 2.7100
 3.7740	 2.6830
 3.7770	 2.7810
 3.7790	 2.8750
 3.7820	 2.7740
 3.7850	 2.7710
 3.7880	 2.7280
 3.7900	 2.7140
 3.7930	 2.7410
 3.7960	 2.7040
 3.7990	 2.7490
 3.8020	 2.7020
 3.8040	 2.6270
 3.8070	 2.6980
 3.8100	 2.6340
 3.8130	 2.5940
 3.8160	 2.6750
 3.8180	 2.6960
 3.8210	 2.7630
 3.8240	 2.7970
 3.8270	 2.8120
 3.8300	 2.8000
 3.8330	 2.7410
 3.8350	 2.7990
 3.8380	 2.7740
 3.8410	 2.5870
 3.8440	 2.5410
 3.8470	 2.6780
 3.8500	 2.6180
 3.8520	 2.6170
 3.8550	 2.6500
 3.8580	 2.7350
 3.8610	 2.7390
 3.8640	 2.6670
 3.8670	 2.6510
 3.8700	 2.7510
 3.8730	 2.8310
 3.8750	 2.8330
 3.8780	 2.8030
 3.8810	 2.8080
 3.8840	 2.7700
 3.8870	 2.6610
 3.8900	 2.7070
 3.8930	 2.7640
 3.8960	 2.7430
 3.8990	 2.7210
 3.9020	 2.7280
 3.9050	 2.6790
 3.9080	 2.7180
 3.9110	 2.7610
 3.9140	 2.7360
 3.9160	 2.7710
 3.9190	 2.8110
 3.9220	 2.6940
 3.9250	 2.6860
 3.9280	 2.7770
 3.9310	 2.8610
 3.9340	 2.8750
 3.9370	 2.7680
 3.9400	 2.7330
 3.9430	 2.8120
 3.9460	 2.8660
 3.9490	 2.9140
 3.9520	 2.9070
 3.9550	 2.8950
 3.9580	 2.8540
 3.9610	 2.8520
 3.9640	 2.8830
 3.9670	 2.8030
 3.9700	 2.8140
 3.9730	 2.8350
 3.9770	 2.8710
 3.9800	 2.8390
 3.9830	 2.8150
 3.9860	 2.7940
 3.9890	 2.7410
 3.9920	 2.6900
 3.9950	 2.6980
 3.9980	 2.7600
 4.0010	 2.8110
 4.0040	 2.8680
 4.0070	 2.9350
 4.0100	 2.8210
 4.0130	 2.7980
 4.0170	 2.8180
 4.0200	 2.8320
 4.0230	 2.7920
 4.0260	 2.7940
 4.0290	 2.7620
 4.0320	 2.7360
 4.0350	 2.8020
 4.0380	 2.8350
 4.0420	 2.8320
 4.0450	 2.8010
 4.0480	 2.7200
 4.0510	 2.7140
 4.0540	 2.7100
 4.0570	 2.7850
 4.0610	 2.7910
 4.0640	 2.8240
 4.0670	 2.9400
 4.0700	 2.9540
 4.0730	 2.8570
 4.0770	 2.7460
 4.0800	 2.6510
 4.0830	 2.7210
 4.0860	 2.8460
 4.0890	 2.8330
 4.0930	 2.7680
 4.0960	 2.7430
 4.0990	 2.7060
 4.1020	 2.7670
 4.1060	 2.8220
 4.1090	 2.6800
 4.1120	 2.5530
 4.1150	 2.7190
 4.1190	 2.8360
 4.1220	 2.8470
 4.1250	 2.8720
 4.1280	 2.8980
 4.1320	 2.8600
 4.1350	 2.7870
 4.1380	 2.7600
 4.1420	 2.7820
 4.1450	 2.7500
 4.1480	 2.7720
 4.1520	 2.8390
 4.1550	 2.8930
 4.1580	 2.8370
 4.1620	 2.7440
 4.1650	 2.6650
 4.1680	 2.6490
 4.1720	 2.6020
 4.1750	 2.6550
 4.1780	 2.6700
 4.1820	 2.6840
 4.1850	 2.7510
 4.1890	 2.7600
 4.1920	 2.7920
 4.1950	 2.7930
 4.1990	 2.8230
 4.2020	 2.8540
 4.2060	 2.6970
 4.2090	 2.6940
 4.2120	 2.7590
 4.2160	 2.6650
 4.2190	 2.5810
 4.2230	 2.5850
 4.2260	 2.7810
 4.2300	 2.7720
 4.2330	 2.4370
 4.2360	 2.4680
 4.2400	 2.5880
 4.2430	 2.9290
 4.2470	 2.9440
 4.2500	 2.7240
 4.2540	 2.5910
 4.2570	 2.5730
 4.2610	 2.6110
 4.2640	 2.7710
 4.2680	 2.9920
 4.2710	 2.8900
 4.2750	 2.7520
 4.2780	 2.8090
 4.2820	 2.7860
 4.2850	 2.8190
 4.2890	 2.6910
 4.2930	 2.8230
 4.2960	 2.9880
 4.3000	 2.9850
 4.3030	 2.8630
 4.3070	 2.9540
 4.3100	 2.8270
 4.3140	 2.6870
 4.3180	 2.5530
 4.3210	 2.6430
 4.3250	 2.7790
 4.3280	 2.7430
 4.3320	 2.7450
 4.3360	 2.8110
 4.3390	 2.6900
 4.3430	 2.6400
 4.3470	 2.6420
 4.3500	 2.6690
 4.3540	 2.6450
 4.3570	 2.5600
 4.3610	 2.5290
 4.3650	 2.6330
 4.3680	 2.7530
 4.3720	 2.7680
 4.3760	 2.6710
 4.3800	 2.6580
 4.3830	 2.6410
 4.3870	 2.6010
 4.3910	 2.6870
 4.3940	 2.7630
 4.3980	 2.6630
 4.4020	 2.6220
 4.4060	 2.6360
 4.4090	 2.6770
 4.4130	 2.6170
 4.4170	 2.5690
 4.4210	 2.5930
 4.4240	 2.5720
 4.4280	 2.4820
 4.4320	 2.5410
 4.4360	 2.6290
 4.4400	 2.6580
 4.4430	 2.6270
 4.4470	 2.5410
 4.4510	 2.5100
 4.4550	 2.5880
 4.4590	 2.5560
 4.4620	 2.6050
 4.4660	 2.6440
 4.4700	 2.6210
 4.4740	 2.5560
 4.4780	 2.4950
 4.4820	 2.4890
 4.4860	 2.5380
 4.4900	 2.5930
 4.4930	 2.5910
 4.4970	 2.5440
 4.5010	 2.6270
 4.5050	 2.6360
 4.5090	 2.6180
 4.5130	 2.5570
 4.5170	 2.5720
 4.5210	 2.6430
 4.5250	 2.6950
 4.5290	 2.6000
 4.5330	 2.5420
 4.5370	 2.5010
 4.5410	 2.5900
 4.5450	 2.6390
 4.5490	 2.5650
 4.5530	 2.5130
 4.5570	 2.5970
 4.5610	 2.6150
 4.5650	 2.6150
 4.5690	 2.6110
 4.5730	 2.6330
 4.5770	 2.5530
 4.5810	 2.5870
 4.5850	 2.5550
 4.5890	 2.5330
 4.5930	 2.5660
 4.5970	 2.5780
 4.6010	 2.5700
 4.6050	 2.6140
 4.6090	 2.5920
 4.6130	 2.5430
 4.6170	 2.5230
 4.6220	 2.5720
 4.6260	 2.6170
 4.6300	 2.5720
 4.6340	 2.5710
 4.6380	 2.6340
 4.6420	 2.5250
 4.6460	 2.4930
 4.6510	 2.5600
 4.6550	 2.5590
 4.6590	 2.5790
 4.6630	 2.6060
 4.6670	 2.5100
 4.6720	 2.5450
 4.6760	 2.5160
 4.6800	 2.4830
 4.6840	 2.4830
 4.6880	 2.6060
 4.6930	 2.4700
 4.6970	 2.3600
 4.7010	 2.4000
 4.7050	 2.4350
 4.7100	 2.4840
 4.7140	 2.5440
 4.7180	 2.5650
 4.7230	 2.6180
 4.7270	 2.5580
 4.7310	 2.4730
 4.7360	 2.3490
 4.7400	 2.3920
 4.7440	 2.5080
 4.7490	 2.6040
 4.7530	 2.5300
 4.7570	 2.5040
 4.7620	 2.5290
 4.7660	 2.5950
 4.7700	 2.4600
 4.7750	 2.5190
 4.7790	 2.6840
 4.7840	 2.5630
 4.7880	 2.4270
 4.7920	 2.5950
 4.7970	 2.7230
 4.8010	 2.7490
 4.8060	 2.6110
 4.8100	 2.4730
 4.8150	 2.4860
 4.8190	 2.5460
 4.8240	 2.5630
 4.8280	 2.6060
 4.8330	 2.6270
 4.8370	 2.6570
 4.8420	 2.6330
 4.8460	 2.5370
 4.8510	 2.4500
 4.8550	 2.5200
 4.8600	 2.5260
 4.8640	 2.4880
 4.8690	 2.4480
 4.8730	 2.5120
 4.8780	 2.4930
 4.8830	 2.5750
 4.8870	 2.6450
 4.8920	 2.6100
 4.8960	 2.5320
 4.9010	 2.5700
 4.9060	 2.5600
 4.9100	 2.5190
 4.9150	 2.4620
 4.9200	 2.6030
 4.9240	 2.6640
 4.9290	 2.7090
 4.9340	 2.6170
 4.9380	 2.5610
 4.9430	 2.5450
 4.9480	 2.5410
 4.9530	 2.5240
 4.9570	 2.5710
 4.9620	 2.5710
 4.9670	 2.5130
 4.9720	 2.4920
 4.9760	 2.5660
 4.9810	 2.5400
 4.9860	 2.5810
 4.9910	 2.5250
 4.9960	 2.4820
 5.0000	 2.5100
 5.0050	 2.5790
 5.0100	 2.5300
 5.0150	 2.5230
 5.0200	 2.5630
 5.0250	 2.5940
 5.0290	 2.5030
 5.0340	 2.4820
 5.0390	 2.5220
 5.0440	 2.6540
 5.0490	 2.6660
 5.0540	 2.6880
 5.0590	 2.6450
 5.0640	 2.5780
 5.0690	 2.4570
 5.0740	 2.5020
 5.0790	 2.5220
 5.0840	 2.5200
 5.0890	 2.4830
 5.0940	 2.5410
 5.0990	 2.5610
 5.1040	 2.5690
 5.1090	 2.5060
 5.1140	 2.5510
 5.1190	 2.5550
 5.1240	 2.5800
 5.1290	 2.6010
 5.1340	 2.5950
 5.1390	 2.6270
 5.1440	 2.7340
 5.1490	 2.7280
 5.1540	 2.6690
 5.1600	 2.5360
 5.1650	 2.6740
 5.1700	 2.7350
 5.1750	 2.6650
 5.1800	 2.6650
 5.1850	 2.6470
 5.1910	 2.5520
 5.1960	 2.5270
 5.2010	 2.4530
 5.2060	 2.5440
 5.2110	 2.6200
 5.2170	 2.6990
 5.2220	 2.6200
 5.2270	 2.6990
 5.2320	 2.7360
 5.2380	 2.7290
 5.2430	 2.6580
 5.2480	 2.6790
 5.2540	 2.7020
 5.2590	 2.7100
 5.2640	 2.6180
 5.2700	 2.6160
 5.2750	 2.5500
 5.2800	 2.5890
 5.2860	 2.5760
 5.2910	 2.6740
 5.2970	 2.6560
 5.3020	 2.5810
 5.3070	 2.5330
 5.3130	 2.6030
 5.3180	 2.4850
 5.3240	 2.5300
 5.3290	 2.6270
 5.3350	 2.6560
 5.3400	 2.5360
 5.3460	 2.5410
 5.3510	 2.5700
 5.3570	 2.6610
 5.3620	 2.6790
 5.3680	 2.7060
 5.3730	 2.6940
 5.3790	 2.6680
 5.3850	 2.5100
 5.3900	 2.5710
 5.3960	 2.5720
 5.4010	 2.5860
 5.4070	 2.5950
 5.4130	 2.5620
 5.4180	 2.4890
 5.4240	 2.4800
 5.4300	 2.4290
 5.4350	 2.5200
 5.4410	 2.4490
 5.4470	 2.4800
 5.4530	 2.4190
 5.4580	 2.4400
 5.4640	 2.5000
 5.4700	 2.6050
 5.4760	 2.5610
 5.4810	 2.5520
 5.4870	 2.4830
 5.4930	 2.4570
 5.4990	 2.4290
 5.5050	 2.5040
 5.5110	 2.4840
 5.5160	 2.4570
 5.5220	 2.4610
 5.5280	 2.5070
 5.5340	 2.4770
 5.5400	 2.5300
 5.5460	 2.5040
 5.5520	 2.4560
 5.5580	 2.4170
 5.5640	 2.5070
 5.5700	 2.4270
 5.5760	 2.3750
 5.5820	 2.3040
 5.5880	 2.3410
 5.5940	 2.3920
 5.6000	 2.4580
 5.6060	 2.3540
 5.6120	 2.3160
 5.6180	 2.3030
 5.6240	 2.3340
 5.6300	 2.2740
 5.6360	 2.2910
 5.6420	 2.2240
 5.6490	 2.1780
 5.6550	 2.0950
 5.6610	 2.1040
 5.6670	 2.0630
 5.6730	 2.1140
 5.6800	 2.0330
 5.6860	 1.9260
 5.6920	 1.8970
 5.6980	 1.9540
 5.7040	 1.8710
 5.7110	 1.7380
 5.7170	 1.6890
 5.7230	 1.7760
 5.7300	 1.7200
 5.7360	 1.8130
 5.7420	 2.0040
 5.7490	 2.5600
 5.7550	 3.1800
 5.7620	 3.7660
 5.7680	 4.2200
 5.7740	 4.4180
 5.7810	 4.3000
 5.7870	 4.1080
 5.7940	 3.7170
 5.8000	 3.5300
 5.8070	 3.3280
 5.8130	 3.2470
 5.8200	 3.2700
 5.8260	 3.2820
 5.8330	 3.1020
 5.8390	 3.1700
 5.8460	 3.1560
 5.8530	 3.2270
 5.8590	 3.2370
 5.8660	 3.1600
 5.8720	 3.0430
 5.8790	 3.0660
 5.8860	 3.0160
 5.8920	 3.1650
 5.8990	 3.1300
 5.9060	 3.0230
 5.9130	 2.9720
 5.9190	 3.0950
 5.9260	 3.1370
 5.9330	 3.2170
 5.9400	 3.1180
 5.9470	 3.0940
 5.9530	 3.0730
 5.9600	 3.1530
 5.9670	 3.1370
 5.9740	 3.1950
 5.9810	 3.0200
 5.9880	 2.9580
 5.9950	 2.8580
 6.0020	 2.9100
 6.0090	 2.9680
 6.0160	 3.0700
 6.0230	 3.0550
 6.0300	 3.0190
 6.0370	 3.0730
 6.0440	 3.2870
 6.0510	 3.1380
 6.0580	 2.9990
 6.0650	 2.9770
 6.0720	 3.1490
 6.0790	 3.0220
 6.0860	 2.9140
 6.0930	 2.8000
 6.1000	 2.9070
 6.1080	 2.9880
 6.1150	 3.1860
 6.1220	 3.1250
 6.1290	 3.1270
 6.1370	 3.1220
 6.1440	 3.2700
 6.1510	 3.2360
 6.1580	 3.4460
 6.1660	 3.5470
 6.1730	 3.6230
 6.1800	 3.7150
 6.1880	 3.8630
 6.1950	 3.7360
 6.2030	 3.5960
 6.2100	 3.3930
 6.2170	 3.3340
 6.2250	 3.1620
 6.2320	 3.0770
 6.2400	 2.9490
 6.2470	 2.8960
 6.2550	 2.7420
 6.2630	 2.7100
 6.2700	 2.4960
 6.2780	 2.4730
 6.2850	 2.3930
 6.2930	 2.4740
 6.3010	 2.4060
 6.3080	 2.4380
 6.3160	 2.3290
 6.3240	 2.4860
 6.3310	 2.5910
 6.3390	 2.5740
 6.3470	 2.4650
 6.3550	 2.4910
 6.3620	 2.5040
 6.3700	 2.5610
 6.3780	 2.5280
 6.3860	 2.5920
 6.3940	 2.4850
 6.4020	 2.5150
 6.4100	 2.5810
 6.4180	 2.6210
 6.4260	 2.4330
 6.4330	 2.4870
 6.4410	 2.6150
 6.4490	 2.6580
 6.4580	 2.5020
 6.4660	 2.5350
 6.4740	 2.4070
 6.4820	 2.4280
 6.4900	 2.4610
 6.4980	 2.4850
 6.5060	 2.4000
 6.5140	 2.4410
 6.5230	 2.4160
 6.5310	 2.5400
 6.5390	 2.4710
 6.5470	 2.4160
 6.5550	 2.2920
 6.5640	 2.3650
 6.5720	 2.4090
 6.5800	 2.5740
 6.5890	 2.4180
 6.5970	 2.3190
 6.6060	 2.3350
 6.6140	 2.4380
 6.6220	 2.4700
 6.6310	 2.5400
 6.6390	 2.3320
 6.6480	 2.2240
 6.6560	 2.2750
 6.6650	 2.4980
 6.6740	 2.5380
 6.6820	 2.5420
 6.6910	 2.3470
 6.6990	 2.3100
 6.7080	 2.2460
 6.7170	 2.2430
 6.7260	 2.2210
 6.7340	 2.2150
 6.7430	 1.9590
 6.7520	 2.0960
 6.7610	 2.3100
 6.7690	 2.4830
 6.7780	 2.4850
 6.7870	 2.5880
 6.7960	 2.6000
 6.8050	 2.6160
 6.8140	 2.5210
 6.8230	 2.7900
 6.8320	 2.9490
 6.8410	 3.0080
 6.8500	 2.8570
 6.8590	 2.8130
 6.8680	 2.5730
 6.8770	 2.6300
 6.8860	 2.5540
 6.8950	 2.5730
 6.9050	 2.5870
 6.9140	 2.5800
 6.9230	 2.5250
 6.9320	 2.6330
 6.9420	 2.5300
 6.9510	 2.6070
 6.9600	 2.5560
 6.9700	 2.5660
 6.9790	 2.4380
 6.9880	 2.5180
 6.9980	 2.5160
 7.0070	 2.5620
 7.0170	 2.4160
 7.0260	 2.4740
 7.0360	 2.4580
 7.0450	 2.5000
 7.0550	 2.4370
 7.0650	 2.5750
 7.0740	 2.6200
 7.0840	 2.7680
 7.0940	 2.6780
 7.1030	 2.8180
 7.1130	 2.8050
 7.1230	 2.8200
 7.1330	 2.5950
 7.1420	 2.6100
 7.1520	 2.5530
 7.1620	 2.5980
 7.1720	 2.5430
 7.1820	 2.5470
 7.1920	 2.4840
 7.2020	 2.5640
 7.2120	 2.3830
 7.2220	 2.3920
 7.2320	 2.3810
 7.2420	 2.4830
 7.2520	 2.3710
 7.2620	 2.3990
 7.2730	 2.3380
 7.2830	 2.3500
 7.2930	 2.2820
 7.3030	 2.4670
 7.3140	 2.4210
 7.3240	 2.3960
 7.3340	 2.3800
 7.3450	 2.4470
 7.3550	 2.2930
 7.3660	 2.3650
 7.3760	 2.3390
 7.3870	 2.4870
 7.3970	 2.4300
 7.4080	 2.4330
 7.4180	 2.4120
 7.4290	 2.5680
 7.4400	 2.5030
 7.4500	 2.5240
 7.4610	 2.3250
 7.4720	 2.3880
 7.4830	 2.4050
 7.4930	 2.4100
 7.5040	 2.3160
 7.5150	 2.3440
 7.5260	 2.2110
 7.5370	 2.3140
 7.5480	 2.2710
 7.5590	 2.2490
 7.5700	 2.1610
 7.5810	 2.3030
 7.5920	 2.0470
 7.6030	 1.9880
 7.6140	 1.9270
 7.6260	 2.0630
 7.6370	 2.0150
 7.6480	 2.1490
 7.6590	 2.1810
 7.6710	 2.2750
 7.6820	 2.2420
 7.6930	 2.3880
 7.7050	 2.2080
 7.7160	 2.2270
 7.7280	 2.1420
 7.7390	 2.1270
 7.7510	 2.1120
 7.7630	 2.2550
 7.7740	 2.1960
 7.7860	 2.2640
 7.7980	 2.0800
 7.8090	 2.1460
 7.8210	 2.1660
 7.8330	 2.2700
 7.8450	 2.2320
 7.8570	 2.2450
 7.8690	 2.0660
 7.8810	 2.1800
 7.8930	 2.1110
 7.9050	 2.1330
 7.9170	 2.0990
 7.9290	 2.2630
 7.9410	 2.2400
 7.9530	 2.2370
 7.9650	 2.1640
 7.9780	 2.2820
 7.9900	 2.0790
 8.0020	 2.1500
 8.0150	 2.0880
 8.0270	 2.2320
 8.0390	 2.1910
 8.0520	 2.2540
 8.0640	 2.1390
 8.0770	 2.1850
 8.0900	 2.0110
 8.1020	 2.1140
 8.1150	 2.2000
 8.1280	 2.4360
 8.1400	 2.2430
 8.1530	 2.1860
 8.1660	 2.0820
 8.1790	 2.2550
 8.1920	 2.1420
 8.2050	 2.1790
 8.2180	 1.9570
 8.2310	 2.1580
 8.2440	 2.2180
 8.2570	 2.2770
 8.2700	 2.1750
 8.2830	 2.2830
 8.2970	 2.2370
 8.3100	 2.3440
 8.3230	 2.1280
 8.3370	 2.2840
 8.3500	 2.3650
 8.3640	 2.4030
 8.3770	 2.1970
 8.3910	 2.2880
 8.4040	 2.1360
 8.4180	 2.1520
 8.4320	 1.9750
 8.4450	 2.0190
 8.4590	 1.8010
 8.4730	 2.0270
 8.4870	 2.0970
 8.5010	 2.3630
 8.5150	 2.2630
 8.5290	 2.4590
 8.5430	 2.4940
 8.5570	 2.6610
 8.5710	 2.5540
 8.5850	 2.5390
 8.5990	 2.3450
 8.6140	 2.6010
 8.6280	 2.6280
 8.6420	 2.7180
 8.6570	 2.5840
 8.6710	 2.6550
 8.6860	 2.4880
 8.7000	 2.5650
 8.7150	 2.3550
 8.7300	 2.4510
 8.7440	 2.3370
 8.7590	 2.4210
 8.7740	 2.2640
 8.7890	 2.4980
 8.8040	 2.4260
 8.8190	 2.5910
 8.8340	 2.5350
 8.8490	 2.5840
 8.8640	 2.3270
 8.8790	 2.4500
 8.8940	 2.5170
 8.9100	 2.7450
 8.9250	 2.5700
 8.9400	 2.7940
 8.9560	 2.6590
 8.9710	 2.7560
 8.9870	 2.6770
 9.0020	 2.8250
 9.0180	 2.5200
 9.0340	 2.6450
 9.0500	 2.4730
 9.0650	 2.5770
 9.0810	 2.5520
 9.0970	 2.6670
 9.1130	 2.4580
 9.1290	 2.5660
 9.1450	 2.4170
 9.1610	 2.6090
 9.1780	 2.5390
 9.1940	 2.8660
 9.2100	 2.8240
 9.2270	 2.9250
 9.2430	 2.6760
 9.2600	 2.7550
 9.2760	 2.5770
 9.2930	 2.6840
 9.3090	 2.7400
 9.3260	 2.9980
 9.3430	 2.6880
 9.3600	 2.6330
 9.3770	 2.4760
 9.3940	 2.9370
 9.4110	 3.0350
 9.4280	 3.0960
 9.4450	 2.6810
 9.4620	 2.8370
 9.4800	 2.8180
 9.4970	 2.8700
 9.5140	 2.7550
 9.5320	 3.0990
 9.5500	 2.6910
 9.5670	 2.6170
 9.5850	 2.7120
 9.6030	 3.1360
 9.6200	 2.9450
 9.6380	 2.9570
 9.6560	 2.8050
 9.6740	 3.0530
 9.6920	 2.8450
 9.7100	 2.9450
 9.7290	 2.6270
 9.7470	 2.6620
 9.7650	 2.6440
 9.7840	 2.8210
 9.8020	 2.8390
 9.8210	 2.8480
 9.8390	 2.5590
 9.8580	 2.7550
 9.8770	 2.5590
 9.8960	 2.6950
 9.9150	 2.6690
 9.9340	 2.7590
 9.9530	 2.6570
 9.9720	 2.8560
 9.9910	 2.7270
10.0100	 2.9090
10.0300	 2.7430
10.0490	 2.8140
10.0690	 2.6280
10.0880	 2.6560
10.1080	 2.5650
10.1280	 2.6490
10.1480	 2.4900
10.1670	 2.7670
10.1870	 2.7530
10.2070	 2.9460
10.2280	 2.8330
10.2480	 2.7820
10.2680	 2.4920
10.2890	 2.7550
10.3090	 2.7690
10.3300	 2.9410
10.3500	 2.6800
10.3710	 2.7580
10.3920	 2.6660
10.4120	 2.8040
10.4330	 2.5710
10.4540	 2.8030
10.4760	 2.5590
10.4970	 2.6890
10.5180	 2.6330
10.5390	 2.6840
10.5610	 2.5010
10.5820	 2.5900
10.6040	 2.3940
10.6260	 2.6510
10.6480	 2.7520
10.6700	 3.0330
10.6920	 2.8970
10.7140	 2.9640
10.7360	 2.7430
10.7580	 2.7620
10.7800	 2.4700
10.8030	 2.7040
10.8250	 2.6200
10.8480	 2.8420
10.8710	 2.7690
10.8940	 2.9020
10.9170	 2.7010
10.9400	 2.8780
10.9630	 2.6380
10.9860	 2.6920
11.0090	 2.5460
11.0330	 2.7580
11.0560	 2.7170
11.0800	 2.9400
11.1040	 2.5970
11.1270	 2.6700
11.1510	 2.5250
11.1750	 2.7670
11.2000	 2.5760
11.2240	 2.8320
11.2480	 2.7650
11.2730	 2.8980
11.2970	 2.6760
11.3220	 2.9210
11.3470	 2.8340
11.3720	 2.9500
11.3970	 2.7660
11.4220	 2.9320
11.4470	 2.1040
11.4720	 1.4090
11.4980	 1.9680
11.5230	 3.0070
11.5490	 2.8510
11.5750	 2.9100
11.6000	 2.7120
11.6260	 2.8390
11.6530	 2.6140
11.6790	 2.7610
11.7050	 2.7310
11.7320	 3.1590
11.7580	 2.9250
11.7850	 2.9160
11.8120	 2.7570
11.8390	 3.0080
11.8660	 2.7650
11.8930	 2.9440
11.9200	 2.8050
11.9480	 2.9380
11.9760	 2.8100
12.0030	 3.1830
12.0310	 3.0070
12.0590	 3.3560
12.0870	 3.1790
12.1150	 3.1220
12.1440	 2.6980
12.1720	 2.8400
12.2010	 2.6480
12.2300	 2.9020
12.2590	 2.6790
12.2880	 2.9670
12.3170	 2.9200
12.3460	 3.0970
12.3760	 2.6410
12.4050	 2.7860
12.4350	 2.6720
12.4650	 2.6800
12.4950	 2.1390
12.5250	 2.6320
12.5550	 2.6180
12.5860	 2.7730
12.6170	 2.4370
12.6470	 2.5770
12.6780	 2.5570
12.7090	 2.6120
12.7410	 2.0850
12.7720	 2.4360
12.8030	 2.2910
12.8350	 2.5320
12.8670	 2.3870
12.8990	 2.8530
12.9310	 2.8690
12.9640	 3.2200
12.9960	 2.8640
13.0290	 3.0900
13.0610	 2.8510
13.0940	 3.0290
13.1280	 2.6720
13.1610	 3.0040
13.1940	 2.8070
13.2280	 3.0480
13.2620	 2.7080
13.2960	 2.8440
13.3300	 2.5250
13.3640	 2.7850
13.3990	 2.5230
13.4340	 3.0040
13.4690	 2.7120
13.5040	 3.0150
13.5390	 2.7140
13.5740	 3.1120
13.6100	 2.7130
13.6460	 2.7350
13.6820	 2.8970
13.7180	 3.5180
13.7540	 2.9570
13.7910	 3.2340
13.8280	 2.9250
13.8650	 3.2260
13.9020	 3.0960
13.9390	 3.4070
13.9770	 2.7940
14.0150	 2.9870
14.0530	 2.6190
14.0910	 2.9860
14.1290	 2.7050
14.1680	 3.2220
14.2070	 3.1770
14.2460	 3.8240
14.2850	 3.0540
14.3240	 3.1400
14.3640	 2.8770
14.4040	 3.2750
14.4440	 2.8510
14.4840	 3.2320
14.5250	 2.4050
14.5660	 2.7450
14.6070	 2.4150
14.6480	 2.7610
14.6900	 2.1760
14.7310	 2.7550
14.7730	 2.1740
14.8150	 2.4870
14.8580	 2.0950
14.9010	 3.2640
14.9440	 3.0760
14.9870	 3.2920
15.0300	 2.2780
15.0740	 2.8460
15.1180	 2.4700
15.1620	 3.2670
15.2060	 2.4720
15.2510	 3.0860
15.2960	 2.6340
15.3410	 3.4020
15.3870	 1.8960
