Name: Pyllostachys vivax
Type: vegetation
Class: Tree
Genus: Pyllostachys
Species: vivax
Sample No.: JPL192
Owner: JPL
Wavelength Range: VSWIR
Origin: 34.12505; -118.11546; WGS84
Collection Date: 10/3/2016
Description: Samples were collected at the Huntington Garden in San Marino California as part of a JPL Subcontract studying HyTES imagery. Samples were taken to JPL and processed within 48 hours of collection. The same leaves were processed in the Nicolet and then measured using the ASD.
Measurement: Bidirectional reflectance
First Column: X
Second Column: Y
X Units: Wavelength (micrometer)
Y Units: Reflectance (percentage)
First X Value: 0.35
Last X Value: 2.5
Number of X Values: 2151
Additional Information: vegetation.tree.pyllostachys.vivax.vswir.jpl192.jpl.asd.ancillary.txt

 0.3500	 8.2590
 0.3510	 8.3100
 0.3520	 8.3830
 0.3530	 8.4130
 0.3540	 8.3720
 0.3550	 8.2580
 0.3560	 8.2610
 0.3570	 8.3320
 0.3580	 8.3070
 0.3590	 8.1760
 0.3600	 8.1020
 0.3610	 8.1470
 0.3620	 8.2180
 0.3630	 8.2430
 0.3640	 8.2290
 0.3650	 8.1960
 0.3660	 8.0980
 0.3670	 8.0850
 0.3680	 8.1220
 0.3690	 8.0700
 0.3700	 8.1350
 0.3710	 8.1640
 0.3720	 8.0840
 0.3730	 8.0580
 0.3740	 8.0410
 0.3750	 8.0480
 0.3760	 8.0860
 0.3770	 8.0530
 0.3780	 8.0050
 0.3790	 7.9790
 0.3800	 7.9900
 0.3810	 8.0080
 0.3820	 8.0300
 0.3830	 8.0490
 0.3840	 8.0200
 0.3850	 7.9650
 0.3860	 7.9390
 0.3870	 7.9810
 0.3880	 7.9900
 0.3890	 7.9770
 0.3900	 7.9650
 0.3910	 7.9740
 0.3920	 7.9890
 0.3930	 7.9940
 0.3940	 7.9810
 0.3950	 7.9660
 0.3960	 7.9580
 0.3970	 7.9520
 0.3980	 7.9430
 0.3990	 7.9730
 0.4000	 7.9880
 0.4010	 7.9680
 0.4020	 7.9490
 0.4030	 7.9680
 0.4040	 7.9770
 0.4050	 7.9420
 0.4060	 7.9520
 0.4070	 7.9700
 0.4080	 7.9820
 0.4090	 7.9930
 0.4100	 7.9980
 0.4110	 8.0080
 0.4120	 8.0260
 0.4130	 8.0380
 0.4140	 8.0460
 0.4150	 8.0530
 0.4160	 8.0590
 0.4170	 8.0670
 0.4180	 8.0860
 0.4190	 8.1080
 0.4200	 8.1100
 0.4210	 8.1220
 0.4220	 8.1370
 0.4230	 8.1420
 0.4240	 8.1360
 0.4250	 8.1370
 0.4260	 8.1440
 0.4270	 8.1450
 0.4280	 8.1440
 0.4290	 8.1460
 0.4300	 8.1470
 0.4310	 8.1360
 0.4320	 8.1230
 0.4330	 8.1120
 0.4340	 8.1050
 0.4350	 8.1000
 0.4360	 8.0960
 0.4370	 8.1010
 0.4380	 8.1260
 0.4390	 8.1490
 0.4400	 8.1670
 0.4410	 8.1830
 0.4420	 8.2080
 0.4430	 8.2190
 0.4440	 8.2210
 0.4450	 8.2290
 0.4460	 8.2310
 0.4470	 8.2360
 0.4480	 8.2470
 0.4490	 8.2620
 0.4500	 8.2720
 0.4510	 8.2780
 0.4520	 8.2790
 0.4530	 8.2800
 0.4540	 8.2850
 0.4550	 8.2960
 0.4560	 8.3090
 0.4570	 8.3170
 0.4580	 8.3170
 0.4590	 8.3150
 0.4600	 8.3240
 0.4610	 8.3220
 0.4620	 8.3170
 0.4630	 8.3210
 0.4640	 8.3220
 0.4650	 8.3230
 0.4660	 8.3270
 0.4670	 8.3330
 0.4680	 8.3370
 0.4690	 8.3400
 0.4700	 8.3410
 0.4710	 8.3390
 0.4720	 8.3420
 0.4730	 8.3450
 0.4740	 8.3420
 0.4750	 8.3440
 0.4760	 8.3460
 0.4770	 8.3460
 0.4780	 8.3500
 0.4790	 8.3530
 0.4800	 8.3560
 0.4810	 8.3600
 0.4820	 8.3540
 0.4830	 8.3520
 0.4840	 8.3520
 0.4850	 8.3410
 0.4860	 8.3350
 0.4870	 8.3390
 0.4880	 8.3500
 0.4890	 8.3620
 0.4900	 8.3700
 0.4910	 8.3800
 0.4920	 8.4020
 0.4930	 8.4270
 0.4940	 8.4450
 0.4950	 8.4600
 0.4960	 8.4910
 0.4970	 8.5230
 0.4980	 8.5540
 0.4990	 8.5870
 0.5000	 8.6260
 0.5010	 8.6700
 0.5020	 8.7170
 0.5030	 8.7630
 0.5040	 8.8220
 0.5050	 8.8860
 0.5060	 8.9470
 0.5070	 9.0200
 0.5080	 9.1020
 0.5090	 9.1940
 0.5100	 9.2990
 0.5110	 9.4090
 0.5120	 9.5330
 0.5130	 9.6700
 0.5140	 9.8120
 0.5150	 9.9630
 0.5160	10.1300
 0.5170	10.3140
 0.5180	10.5030
 0.5190	10.7020
 0.5200	10.9100
 0.5210	11.1240
 0.5220	11.3400
 0.5230	11.5560
 0.5240	11.7730
 0.5250	11.9860
 0.5260	12.1880
 0.5270	12.3820
 0.5280	12.5700
 0.5290	12.7470
 0.5300	12.9110
 0.5310	13.0610
 0.5320	13.1940
 0.5330	13.3160
 0.5340	13.4270
 0.5350	13.5250
 0.5360	13.6080
 0.5370	13.6820
 0.5380	13.7450
 0.5390	13.7900
 0.5400	13.8180
 0.5410	13.8310
 0.5420	13.8360
 0.5430	13.8540
 0.5440	13.8820
 0.5450	13.9210
 0.5460	13.9720
 0.5470	14.0340
 0.5480	14.0880
 0.5490	14.1250
 0.5500	14.1490
 0.5510	14.1680
 0.5520	14.1790
 0.5530	14.1770
 0.5540	14.1650
 0.5550	14.1400
 0.5560	14.1020
 0.5570	14.0490
 0.5580	13.9780
 0.5590	13.8920
 0.5600	13.7960
 0.5610	13.6890
 0.5620	13.5740
 0.5630	13.4530
 0.5640	13.3290
 0.5650	13.2020
 0.5660	13.0710
 0.5670	12.9360
 0.5680	12.8010
 0.5690	12.6670
 0.5700	12.5310
 0.5710	12.3950
 0.5720	12.2640
 0.5730	12.1340
 0.5740	12.0100
 0.5750	11.8970
 0.5760	11.7930
 0.5770	11.6930
 0.5780	11.5960
 0.5790	11.5040
 0.5800	11.4170
 0.5810	11.3380
 0.5820	11.2690
 0.5830	11.2020
 0.5840	11.1430
 0.5850	11.0920
 0.5860	11.0440
 0.5870	10.9920
 0.5880	10.9430
 0.5890	10.9020
 0.5900	10.8640
 0.5910	10.8240
 0.5920	10.7830
 0.5930	10.7480
 0.5940	10.7200
 0.5950	10.7000
 0.5960	10.6840
 0.5970	10.6670
 0.5980	10.6490
 0.5990	10.6290
 0.6000	10.6070
 0.6010	10.5850
 0.6020	10.5600
 0.6030	10.5290
 0.6040	10.4930
 0.6050	10.4510
 0.6060	10.4030
 0.6070	10.3510
 0.6080	10.2920
 0.6090	10.2160
 0.6100	10.1190
 0.6110	10.0090
 0.6120	 9.9530
 0.6130	 9.9280
 0.6140	 9.9100
 0.6150	 9.8720
 0.6160	 9.8310
 0.6170	 9.7880
 0.6180	 9.7430
 0.6190	 9.7000
 0.6200	 9.6610
 0.6210	 9.6270
 0.6220	 9.5990
 0.6230	 9.5770
 0.6240	 9.5590
 0.6250	 9.5430
 0.6260	 9.5310
 0.6270	 9.5220
 0.6280	 9.5130
 0.6290	 9.5010
 0.6300	 9.4880
 0.6310	 9.4760
 0.6320	 9.4670
 0.6330	 9.4610
 0.6340	 9.4450
 0.6350	 9.4190
 0.6360	 9.3850
 0.6370	 9.3470
 0.6380	 9.3050
 0.6390	 9.2580
 0.6400	 9.2050
 0.6410	 9.1530
 0.6420	 9.1020
 0.6430	 9.0510
 0.6440	 9.0000
 0.6450	 8.9500
 0.6460	 8.9020
 0.6470	 8.8600
 0.6480	 8.8230
 0.6490	 8.7920
 0.6500	 8.7640
 0.6510	 8.7440
 0.6520	 8.7300
 0.6530	 8.7200
 0.6540	 8.7100
 0.6550	 8.6950
 0.6560	 8.6810
 0.6570	 8.6670
 0.6580	 8.6460
 0.6590	 8.6270
 0.6600	 8.6080
 0.6610	 8.5860
 0.6620	 8.5650
 0.6630	 8.5470
 0.6640	 8.5330
 0.6650	 8.5240
 0.6660	 8.5140
 0.6670	 8.5070
 0.6680	 8.5050
 0.6690	 8.5070
 0.6700	 8.5150
 0.6710	 8.5270
 0.6720	 8.5410
 0.6730	 8.5560
 0.6740	 8.5750
 0.6750	 8.5990
 0.6760	 8.6250
 0.6770	 8.6510
 0.6780	 8.6810
 0.6790	 8.7180
 0.6800	 8.7570
 0.6810	 8.7980
 0.6820	 8.8420
 0.6830	 8.8890
 0.6840	 8.9400
 0.6850	 8.9970
 0.6860	 9.0620
 0.6870	 9.1370
 0.6880	 9.2310
 0.6890	 9.3490
 0.6900	 9.5000
 0.6910	 9.6870
 0.6920	 9.9210
 0.6930	10.2080
 0.6940	10.5550
 0.6950	10.9680
 0.6960	11.4460
 0.6970	11.9870
 0.6980	12.5900
 0.6990	13.2480
 0.7000	13.9540
 0.7010	14.6980
 0.7020	15.4680
 0.7030	16.2530
 0.7040	17.0490
 0.7050	17.8520
 0.7060	18.6510
 0.7070	19.4460
 0.7080	20.2390
 0.7090	21.0350
 0.7100	21.8250
 0.7110	22.6130
 0.7120	23.4000
 0.7130	24.1840
 0.7140	24.9690
 0.7150	25.7530
 0.7160	26.5330
 0.7170	27.3110
 0.7180	28.0880
 0.7190	28.8630
 0.7200	29.6320
 0.7210	30.3950
 0.7220	31.1510
 0.7230	31.8980
 0.7240	32.6330
 0.7250	33.3580
 0.7260	34.0670
 0.7270	34.7580
 0.7280	35.4300
 0.7290	36.0830
 0.7300	36.7170
 0.7310	37.3320
 0.7320	37.9200
 0.7330	38.4860
 0.7340	39.0330
 0.7350	39.5550
 0.7360	40.0510
 0.7370	40.5220
 0.7380	40.9690
 0.7390	41.3950
 0.7400	41.7950
 0.7410	42.1720
 0.7420	42.5300
 0.7430	42.8610
 0.7440	43.1670
 0.7450	43.4540
 0.7460	43.7210
 0.7470	43.9660
 0.7480	44.1910
 0.7490	44.3990
 0.7500	44.5900
 0.7510	44.7660
 0.7520	44.9260
 0.7530	45.0710
 0.7540	45.2070
 0.7550	45.3300
 0.7560	45.4400
 0.7570	45.5390
 0.7580	45.6320
 0.7590	45.7150
 0.7600	45.7890
 0.7610	45.8580
 0.7620	45.9200
 0.7630	45.9740
 0.7640	46.0200
 0.7650	46.0650
 0.7660	46.1050
 0.7670	46.1400
 0.7680	46.1700
 0.7690	46.1970
 0.7700	46.2230
 0.7710	46.2470
 0.7720	46.2650
 0.7730	46.2820
 0.7740	46.2990
 0.7750	46.3140
 0.7760	46.3240
 0.7770	46.3360
 0.7780	46.3480
 0.7790	46.3560
 0.7800	46.3650
 0.7810	46.3730
 0.7820	46.3780
 0.7830	46.3860
 0.7840	46.3890
 0.7850	46.3900
 0.7860	46.3930
 0.7870	46.3940
 0.7880	46.3940
 0.7890	46.3920
 0.7900	46.3870
 0.7910	46.3850
 0.7920	46.3840
 0.7930	46.3820
 0.7940	46.3730
 0.7950	46.3670
 0.7960	46.3600
 0.7970	46.3520
 0.7980	46.3410
 0.7990	46.3310
 0.8000	46.3190
 0.8010	46.3050
 0.8020	46.2940
 0.8030	46.2820
 0.8040	46.2700
 0.8050	46.2560
 0.8060	46.2400
 0.8070	46.2240
 0.8080	46.2080
 0.8090	46.1900
 0.8100	46.1720
 0.8110	46.1560
 0.8120	46.1410
 0.8130	46.1210
 0.8140	46.1020
 0.8150	46.0830
 0.8160	46.0650
 0.8170	46.0480
 0.8180	46.0310
 0.8190	46.0120
 0.8200	45.9920
 0.8210	45.9760
 0.8220	45.9600
 0.8230	45.9420
 0.8240	45.9220
 0.8250	45.9060
 0.8260	45.8910
 0.8270	45.8750
 0.8280	45.8580
 0.8290	45.8420
 0.8300	45.8280
 0.8310	45.8130
 0.8320	45.7970
 0.8330	45.7820
 0.8340	45.7690
 0.8350	45.7570
 0.8360	45.7470
 0.8370	45.7370
 0.8380	45.7270
 0.8390	45.7200
 0.8400	45.7110
 0.8410	45.7020
 0.8420	45.6940
 0.8430	45.6890
 0.8440	45.6820
 0.8450	45.6760
 0.8460	45.6740
 0.8470	45.6660
 0.8480	45.6610
 0.8490	45.6590
 0.8500	45.6590
 0.8510	45.6560
 0.8520	45.6560
 0.8530	45.6570
 0.8540	45.6570
 0.8550	45.6540
 0.8560	45.6550
 0.8570	45.6600
 0.8580	45.6610
 0.8590	45.6660
 0.8600	45.6710
 0.8610	45.6750
 0.8620	45.6770
 0.8630	45.6850
 0.8640	45.6920
 0.8650	45.6930
 0.8660	45.6990
 0.8670	45.7090
 0.8680	45.7180
 0.8690	45.7230
 0.8700	45.7300
 0.8710	45.7350
 0.8720	45.7430
 0.8730	45.7590
 0.8740	45.7670
 0.8750	45.7730
 0.8760	45.7820
 0.8770	45.8000
 0.8780	45.8130
 0.8790	45.8190
 0.8800	45.8220
 0.8810	45.8370
 0.8820	45.8490
 0.8830	45.8590
 0.8840	45.8680
 0.8850	45.8760
 0.8860	45.8860
 0.8870	45.8980
 0.8880	45.9120
 0.8890	45.9230
 0.8900	45.9350
 0.8910	45.9460
 0.8920	45.9540
 0.8930	45.9670
 0.8940	45.9770
 0.8950	45.9860
 0.8960	46.0040
 0.8970	46.0100
 0.8980	46.0140
 0.8990	46.0230
 0.9000	46.0380
 0.9010	46.0480
 0.9020	46.0550
 0.9030	46.0620
 0.9040	46.0710
 0.9050	46.0820
 0.9060	46.0900
 0.9070	46.0950
 0.9080	46.1020
 0.9090	46.1090
 0.9100	46.1140
 0.9110	46.1200
 0.9120	46.1350
 0.9130	46.1420
 0.9140	46.1420
 0.9150	46.1410
 0.9160	46.1450
 0.9170	46.1500
 0.9180	46.1540
 0.9190	46.1580
 0.9200	46.1600
 0.9210	46.1590
 0.9220	46.1560
 0.9230	46.1540
 0.9240	46.1530
 0.9250	46.1540
 0.9260	46.1530
 0.9270	46.1460
 0.9280	46.1370
 0.9290	46.1290
 0.9300	46.1230
 0.9310	46.1140
 0.9320	46.1050
 0.9330	46.0930
 0.9340	46.0830
 0.9350	46.0790
 0.9360	46.0700
 0.9370	46.0570
 0.9380	46.0430
 0.9390	46.0310
 0.9400	46.0180
 0.9410	46.0050
 0.9420	45.9920
 0.9430	45.9780
 0.9440	45.9550
 0.9450	45.9310
 0.9460	45.9120
 0.9470	45.8970
 0.9480	45.8790
 0.9490	45.8520
 0.9500	45.8180
 0.9510	45.7970
 0.9520	45.7790
 0.9530	45.7530
 0.9540	45.7160
 0.9550	45.6850
 0.9560	45.6650
 0.9570	45.6430
 0.9580	45.6080
 0.9590	45.5810
 0.9600	45.5580
 0.9610	45.5380
 0.9620	45.5210
 0.9630	45.5100
 0.9640	45.4880
 0.9650	45.4610
 0.9660	45.4450
 0.9670	45.4380
 0.9680	45.4260
 0.9690	45.4090
 0.9700	45.3990
 0.9710	45.3910
 0.9720	45.3850
 0.9730	45.3760
 0.9740	45.3610
 0.9750	45.3550
 0.9760	45.3500
 0.9770	45.3350
 0.9780	45.3110
 0.9790	45.3130
 0.9800	45.3150
 0.9810	45.3110
 0.9820	45.3070
 0.9830	45.3000
 0.9840	45.2930
 0.9850	45.2920
 0.9860	45.2980
 0.9870	45.2890
 0.9880	45.2850
 0.9890	45.2860
 0.9900	45.2850
 0.9910	45.2800
 0.9920	45.2820
 0.9930	45.2820
 0.9940	45.2730
 0.9950	45.2830
 0.9960	45.2790
 0.9970	45.2700
 0.9980	45.2810
 0.9990	45.2900
 1.0000	45.2920
 1.0010	46.6480
 1.0020	46.6510
 1.0030	46.6530
 1.0040	46.6470
 1.0050	46.6450
 1.0060	46.6460
 1.0070	46.6450
 1.0080	46.6440
 1.0090	46.6450
 1.0100	46.6470
 1.0110	46.6480
 1.0120	46.6520
 1.0130	46.6610
 1.0140	46.6640
 1.0150	46.6650
 1.0160	46.6650
 1.0170	46.6630
 1.0180	46.6630
 1.0190	46.6650
 1.0200	46.6650
 1.0210	46.6660
 1.0220	46.6650
 1.0230	46.6660
 1.0240	46.6690
 1.0250	46.6720
 1.0260	46.6750
 1.0270	46.6800
 1.0280	46.6860
 1.0290	46.6900
 1.0300	46.6920
 1.0310	46.6950
 1.0320	46.6970
 1.0330	46.7000
 1.0340	46.7060
 1.0350	46.7110
 1.0360	46.7130
 1.0370	46.7160
 1.0380	46.7190
 1.0390	46.7220
 1.0400	46.7240
 1.0410	46.7240
 1.0420	46.7260
 1.0430	46.7260
 1.0440	46.7290
 1.0450	46.7340
 1.0460	46.7390
 1.0470	46.7470
 1.0480	46.7510
 1.0490	46.7510
 1.0500	46.7520
 1.0510	46.7490
 1.0520	46.7480
 1.0530	46.7470
 1.0540	46.7490
 1.0550	46.7490
 1.0560	46.7470
 1.0570	46.7460
 1.0580	46.7470
 1.0590	46.7450
 1.0600	46.7380
 1.0610	46.7350
 1.0620	46.7300
 1.0630	46.7260
 1.0640	46.7260
 1.0650	46.7230
 1.0660	46.7180
 1.0670	46.7150
 1.0680	46.7130
 1.0690	46.7130
 1.0700	46.7090
 1.0710	46.7060
 1.0720	46.7020
 1.0730	46.6960
 1.0740	46.6910
 1.0750	46.6840
 1.0760	46.6790
 1.0770	46.6730
 1.0780	46.6690
 1.0790	46.6700
 1.0800	46.6680
 1.0810	46.6670
 1.0820	46.6630
 1.0830	46.6580
 1.0840	46.6530
 1.0850	46.6450
 1.0860	46.6400
 1.0870	46.6370
 1.0880	46.6360
 1.0890	46.6330
 1.0900	46.6300
 1.0910	46.6260
 1.0920	46.6190
 1.0930	46.6140
 1.0940	46.6100
 1.0950	46.6070
 1.0960	46.6060
 1.0970	46.6050
 1.0980	46.6080
 1.0990	46.6060
 1.1000	46.5960
 1.1010	46.5930
 1.1020	46.5910
 1.1030	46.5870
 1.1040	46.5860
 1.1050	46.5860
 1.1060	46.5850
 1.1070	46.5800
 1.1080	46.5780
 1.1090	46.5770
 1.1100	46.5750
 1.1110	46.5710
 1.1120	46.5680
 1.1130	46.5660
 1.1140	46.5610
 1.1150	46.5560
 1.1160	46.5500
 1.1170	46.5430
 1.1180	46.5370
 1.1190	46.5290
 1.1200	46.5230
 1.1210	46.5130
 1.1220	46.5050
 1.1230	46.4970
 1.1240	46.4830
 1.1250	46.4710
 1.1260	46.4590
 1.1270	46.4420
 1.1280	46.4210
 1.1290	46.3990
 1.1300	46.3750
 1.1310	46.3460
 1.1320	46.3150
 1.1330	46.2820
 1.1340	46.2450
 1.1350	46.2050
 1.1360	46.1620
 1.1370	46.1160
 1.1380	46.0660
 1.1390	46.0130
 1.1400	45.9590
 1.1410	45.9060
 1.1420	45.8520
 1.1430	45.7970
 1.1440	45.7410
 1.1450	45.6830
 1.1460	45.6270
 1.1470	45.5710
 1.1480	45.5180
 1.1490	45.4650
 1.1500	45.4150
 1.1510	45.3650
 1.1520	45.3190
 1.1530	45.2750
 1.1540	45.2350
 1.1550	45.1980
 1.1560	45.1650
 1.1570	45.1370
 1.1580	45.1090
 1.1590	45.0850
 1.1600	45.0630
 1.1610	45.0400
 1.1620	45.0170
 1.1630	44.9990
 1.1640	44.9830
 1.1650	44.9690
 1.1660	44.9590
 1.1670	44.9480
 1.1680	44.9380
 1.1690	44.9290
 1.1700	44.9220
 1.1710	44.9130
 1.1720	44.9030
 1.1730	44.8940
 1.1740	44.8840
 1.1750	44.8750
 1.1760	44.8700
 1.1770	44.8630
 1.1780	44.8550
 1.1790	44.8440
 1.1800	44.8310
 1.1810	44.8190
 1.1820	44.8090
 1.1830	44.8010
 1.1840	44.7920
 1.1850	44.7810
 1.1860	44.7690
 1.1870	44.7570
 1.1880	44.7470
 1.1890	44.7370
 1.1900	44.7290
 1.1910	44.7210
 1.1920	44.7130
 1.1930	44.7050
 1.1940	44.6980
 1.1950	44.6910
 1.1960	44.6850
 1.1970	44.6800
 1.1980	44.6740
 1.1990	44.6690
 1.2000	44.6660
 1.2010	44.6640
 1.2020	44.6640
 1.2030	44.6640
 1.2040	44.6660
 1.2050	44.6670
 1.2060	44.6670
 1.2070	44.6690
 1.2080	44.6700
 1.2090	44.6710
 1.2100	44.6740
 1.2110	44.6770
 1.2120	44.6800
 1.2130	44.6850
 1.2140	44.6910
 1.2150	44.6970
 1.2160	44.7030
 1.2170	44.7100
 1.2180	44.7170
 1.2190	44.7240
 1.2200	44.7330
 1.2210	44.7420
 1.2220	44.7510
 1.2230	44.7600
 1.2240	44.7700
 1.2250	44.7780
 1.2260	44.7860
 1.2270	44.7960
 1.2280	44.8050
 1.2290	44.8130
 1.2300	44.8200
 1.2310	44.8250
 1.2320	44.8310
 1.2330	44.8390
 1.2340	44.8450
 1.2350	44.8530
 1.2360	44.8590
 1.2370	44.8630
 1.2380	44.8680
 1.2390	44.8720
 1.2400	44.8750
 1.2410	44.8790
 1.2420	44.8810
 1.2430	44.8840
 1.2440	44.8870
 1.2450	44.8910
 1.2460	44.8930
 1.2470	44.8940
 1.2480	44.8970
 1.2490	44.8990
 1.2500	44.9010
 1.2510	44.9030
 1.2520	44.9040
 1.2530	44.9040
 1.2540	44.9040
 1.2550	44.9020
 1.2560	44.9000
 1.2570	44.8970
 1.2580	44.8940
 1.2590	44.8910
 1.2600	44.8880
 1.2610	44.8860
 1.2620	44.8840
 1.2630	44.8810
 1.2640	44.8770
 1.2650	44.8740
 1.2660	44.8690
 1.2670	44.8650
 1.2680	44.8610
 1.2690	44.8560
 1.2700	44.8500
 1.2710	44.8420
 1.2720	44.8350
 1.2730	44.8280
 1.2740	44.8220
 1.2750	44.8150
 1.2760	44.8080
 1.2770	44.7990
 1.2780	44.7900
 1.2790	44.7800
 1.2800	44.7700
 1.2810	44.7590
 1.2820	44.7470
 1.2830	44.7340
 1.2840	44.7190
 1.2850	44.7000
 1.2860	44.6810
 1.2870	44.6610
 1.2880	44.6390
 1.2890	44.6180
 1.2900	44.5960
 1.2910	44.5710
 1.2920	44.5450
 1.2930	44.5180
 1.2940	44.4890
 1.2950	44.4590
 1.2960	44.4270
 1.2970	44.3940
 1.2980	44.3600
 1.2990	44.3270
 1.3000	44.2940
 1.3010	44.2580
 1.3020	44.2220
 1.3030	44.1860
 1.3040	44.1480
 1.3050	44.1100
 1.3060	44.0710
 1.3070	44.0320
 1.3080	43.9940
 1.3090	43.9540
 1.3100	43.9140
 1.3110	43.8720
 1.3120	43.8300
 1.3130	43.7900
 1.3140	43.7470
 1.3150	43.7060
 1.3160	43.6620
 1.3170	43.6180
 1.3180	43.5700
 1.3190	43.5230
 1.3200	43.4780
 1.3210	43.4300
 1.3220	43.3820
 1.3230	43.3350
 1.3240	43.2850
 1.3250	43.2340
 1.3260	43.1840
 1.3270	43.1310
 1.3280	43.0780
 1.3290	43.0240
 1.3300	42.9690
 1.3310	42.9130
 1.3320	42.8560
 1.3330	42.7980
 1.3340	42.7390
 1.3350	42.6800
 1.3360	42.6200
 1.3370	42.5600
 1.3380	42.5010
 1.3390	42.4410
 1.3400	42.3810
 1.3410	42.3230
 1.3420	42.2650
 1.3430	42.2070
 1.3440	42.1500
 1.3450	42.0920
 1.3460	42.0310
 1.3470	41.9730
 1.3480	41.9160
 1.3490	41.8600
 1.3500	41.8050
 1.3510	41.7490
 1.3520	41.6930
 1.3530	41.6350
 1.3540	41.5750
 1.3550	41.5150
 1.3560	41.4550
 1.3570	41.3930
 1.3580	41.3300
 1.3590	41.2680
 1.3600	41.2020
 1.3610	41.1360
 1.3620	41.0660
 1.3630	40.9930
 1.3640	40.9170
 1.3650	40.8360
 1.3660	40.7530
 1.3670	40.6650
 1.3680	40.5700
 1.3690	40.4710
 1.3700	40.3600
 1.3710	40.2410
 1.3720	40.1140
 1.3730	39.9770
 1.3740	39.8310
 1.3750	39.6740
 1.3760	39.5030
 1.3770	39.3160
 1.3780	39.1110
 1.3790	38.8910
 1.3800	38.6550
 1.3810	38.3990
 1.3820	38.1290
 1.3830	37.8440
 1.3840	37.5410
 1.3850	37.2190
 1.3860	36.8840
 1.3870	36.5300
 1.3880	36.1670
 1.3890	35.7910
 1.3900	35.4010
 1.3910	35.0050
 1.3920	34.5990
 1.3930	34.1830
 1.3940	33.7630
 1.3950	33.3370
 1.3960	32.9100
 1.3970	32.4850
 1.3980	32.0630
 1.3990	31.6500
 1.4000	31.2440
 1.4010	30.8440
 1.4020	30.4560
 1.4030	30.0750
 1.4040	29.7070
 1.4050	29.3570
 1.4060	29.0190
 1.4070	28.6990
 1.4080	28.3950
 1.4090	28.1040
 1.4100	27.8320
 1.4110	27.5730
 1.4120	27.3300
 1.4130	27.1040
 1.4140	26.8920
 1.4150	26.6960
 1.4160	26.5150
 1.4170	26.3450
 1.4180	26.1890
 1.4190	26.0440
 1.4200	25.9110
 1.4210	25.7880
 1.4220	25.6740
 1.4230	25.5720
 1.4240	25.4780
 1.4250	25.3920
 1.4260	25.3150
 1.4270	25.2450
 1.4280	25.1810
 1.4290	25.1250
 1.4300	25.0760
 1.4310	25.0320
 1.4320	24.9960
 1.4330	24.9640
 1.4340	24.9380
 1.4350	24.9150
 1.4360	24.8970
 1.4370	24.8840
 1.4380	24.8730
 1.4390	24.8660
 1.4400	24.8620
 1.4410	24.8610
 1.4420	24.8630
 1.4430	24.8680
 1.4440	24.8770
 1.4450	24.8860
 1.4460	24.8980
 1.4470	24.9110
 1.4480	24.9250
 1.4490	24.9400
 1.4500	24.9570
 1.4510	24.9750
 1.4520	24.9950
 1.4530	25.0170
 1.4540	25.0400
 1.4550	25.0650
 1.4560	25.0920
 1.4570	25.1210
 1.4580	25.1550
 1.4590	25.1910
 1.4600	25.2320
 1.4610	25.2750
 1.4620	25.3210
 1.4630	25.3730
 1.4640	25.4290
 1.4650	25.4890
 1.4660	25.5560
 1.4670	25.6270
 1.4680	25.7040
 1.4690	25.7840
 1.4700	25.8670
 1.4710	25.9540
 1.4720	26.0450
 1.4730	26.1380
 1.4740	26.2360
 1.4750	26.3360
 1.4760	26.4390
 1.4770	26.5440
 1.4780	26.6490
 1.4790	26.7570
 1.4800	26.8650
 1.4810	26.9740
 1.4820	27.0840
 1.4830	27.1960
 1.4840	27.3080
 1.4850	27.4200
 1.4860	27.5340
 1.4870	27.6480
 1.4880	27.7610
 1.4890	27.8740
 1.4900	27.9870
 1.4910	28.0980
 1.4920	28.2110
 1.4930	28.3260
 1.4940	28.4410
 1.4950	28.5580
 1.4960	28.6730
 1.4970	28.7870
 1.4980	28.9010
 1.4990	29.0160
 1.5000	29.1290
 1.5010	29.2430
 1.5020	29.3560
 1.5030	29.4690
 1.5040	29.5800
 1.5050	29.6920
 1.5060	29.8030
 1.5070	29.9130
 1.5080	30.0240
 1.5090	30.1360
 1.5100	30.2460
 1.5110	30.3540
 1.5120	30.4620
 1.5130	30.5680
 1.5140	30.6730
 1.5150	30.7790
 1.5160	30.8840
 1.5170	30.9890
 1.5180	31.0920
 1.5190	31.1950
 1.5200	31.2970
 1.5210	31.3970
 1.5220	31.4950
 1.5230	31.5950
 1.5240	31.6920
 1.5250	31.7890
 1.5260	31.8850
 1.5270	31.9790
 1.5280	32.0720
 1.5290	32.1640
 1.5300	32.2550
 1.5310	32.3450
 1.5320	32.4350
 1.5330	32.5230
 1.5340	32.6090
 1.5350	32.6950
 1.5360	32.7790
 1.5370	32.8610
 1.5380	32.9430
 1.5390	33.0250
 1.5400	33.1050
 1.5410	33.1860
 1.5420	33.2670
 1.5430	33.3450
 1.5440	33.4240
 1.5450	33.5010
 1.5460	33.5750
 1.5470	33.6500
 1.5480	33.7240
 1.5490	33.7970
 1.5500	33.8690
 1.5510	33.9390
 1.5520	34.0100
 1.5530	34.0790
 1.5540	34.1470
 1.5550	34.2150
 1.5560	34.2800
 1.5570	34.3460
 1.5580	34.4110
 1.5590	34.4750
 1.5600	34.5370
 1.5610	34.5970
 1.5620	34.6550
 1.5630	34.7140
 1.5640	34.7720
 1.5650	34.8310
 1.5660	34.8870
 1.5670	34.9420
 1.5680	34.9980
 1.5690	35.0500
 1.5700	35.1010
 1.5710	35.1550
 1.5720	35.2060
 1.5730	35.2580
 1.5740	35.3100
 1.5750	35.3600
 1.5760	35.4120
 1.5770	35.4630
 1.5780	35.5130
 1.5790	35.5630
 1.5800	35.6110
 1.5810	35.6600
 1.5820	35.7100
 1.5830	35.7580
 1.5840	35.8060
 1.5850	35.8520
 1.5860	35.8980
 1.5870	35.9450
 1.5880	35.9920
 1.5890	36.0390
 1.5900	36.0870
 1.5910	36.1320
 1.5920	36.1790
 1.5930	36.2250
 1.5940	36.2710
 1.5950	36.3170
 1.5960	36.3630
 1.5970	36.4070
 1.5980	36.4520
 1.5990	36.4980
 1.6000	36.5420
 1.6010	36.5860
 1.6020	36.6290
 1.6030	36.6710
 1.6040	36.7120
 1.6050	36.7530
 1.6060	36.7940
 1.6070	36.8360
 1.6080	36.8770
 1.6090	36.9170
 1.6100	36.9550
 1.6110	36.9920
 1.6120	37.0280
 1.6130	37.0650
 1.6140	37.1010
 1.6150	37.1360
 1.6160	37.1710
 1.6170	37.2060
 1.6180	37.2400
 1.6190	37.2740
 1.6200	37.3060
 1.6210	37.3370
 1.6220	37.3670
 1.6230	37.3960
 1.6240	37.4260
 1.6250	37.4550
 1.6260	37.4840
 1.6270	37.5110
 1.6280	37.5370
 1.6290	37.5620
 1.6300	37.5870
 1.6310	37.6110
 1.6320	37.6340
 1.6330	37.6570
 1.6340	37.6810
 1.6350	37.7020
 1.6360	37.7210
 1.6370	37.7400
 1.6380	37.7570
 1.6390	37.7730
 1.6400	37.7890
 1.6410	37.8040
 1.6420	37.8170
 1.6430	37.8310
 1.6440	37.8450
 1.6450	37.8570
 1.6460	37.8680
 1.6470	37.8790
 1.6480	37.8890
 1.6490	37.8980
 1.6500	37.9070
 1.6510	37.9130
 1.6520	37.9180
 1.6530	37.9210
 1.6540	37.9220
 1.6550	37.9220
 1.6560	37.9210
 1.6570	37.9170
 1.6580	37.9110
 1.6590	37.9050
 1.6600	37.8980
 1.6610	37.8940
 1.6620	37.8900
 1.6630	37.8830
 1.6640	37.8780
 1.6650	37.8730
 1.6660	37.8640
 1.6670	37.8560
 1.6680	37.8480
 1.6690	37.8380
 1.6700	37.8290
 1.6710	37.8190
 1.6720	37.8070
 1.6730	37.7900
 1.6740	37.7720
 1.6750	37.7530
 1.6760	37.7320
 1.6770	37.7110
 1.6780	37.6880
 1.6790	37.6620
 1.6800	37.6340
 1.6810	37.6040
 1.6820	37.5730
 1.6830	37.5410
 1.6840	37.5100
 1.6850	37.4750
 1.6860	37.4380
 1.6870	37.4020
 1.6880	37.3630
 1.6890	37.3270
 1.6900	37.2920
 1.6910	37.2570
 1.6920	37.2230
 1.6930	37.1910
 1.6940	37.1580
 1.6950	37.1260
 1.6960	37.0930
 1.6970	37.0580
 1.6980	37.0260
 1.6990	36.9950
 1.7000	36.9630
 1.7010	36.9310
 1.7020	36.8980
 1.7030	36.8630
 1.7040	36.8280
 1.7050	36.7950
 1.7060	36.7600
 1.7070	36.7240
 1.7080	36.6870
 1.7090	36.6490
 1.7100	36.6130
 1.7110	36.5760
 1.7120	36.5410
 1.7130	36.5050
 1.7140	36.4680
 1.7150	36.4340
 1.7160	36.3990
 1.7170	36.3630
 1.7180	36.3310
 1.7190	36.2980
 1.7200	36.2660
 1.7210	36.2370
 1.7220	36.2050
 1.7230	36.1740
 1.7240	36.1450
 1.7250	36.1170
 1.7260	36.0900
 1.7270	36.0650
 1.7280	36.0400
 1.7290	36.0150
 1.7300	35.9920
 1.7310	35.9720
 1.7320	35.9560
 1.7330	35.9400
 1.7340	35.9260
 1.7350	35.9100
 1.7360	35.8950
 1.7370	35.8750
 1.7380	35.8540
 1.7390	35.8300
 1.7400	35.8030
 1.7410	35.7730
 1.7420	35.7410
 1.7430	35.7090
 1.7440	35.6740
 1.7450	35.6380
 1.7460	35.6000
 1.7470	35.5600
 1.7480	35.5150
 1.7490	35.4710
 1.7500	35.4280
 1.7510	35.3830
 1.7520	35.3380
 1.7530	35.2910
 1.7540	35.2430
 1.7550	35.1990
 1.7560	35.1530
 1.7570	35.1100
 1.7580	35.0670
 1.7590	35.0240
 1.7600	34.9840
 1.7610	34.9420
 1.7620	34.9030
 1.7630	34.8660
 1.7640	34.8290
 1.7650	34.7940
 1.7660	34.7610
 1.7670	34.7300
 1.7680	34.6990
 1.7690	34.6680
 1.7700	34.6390
 1.7710	34.6090
 1.7720	34.5820
 1.7730	34.5590
 1.7740	34.5360
 1.7750	34.5120
 1.7760	34.4910
 1.7770	34.4690
 1.7780	34.4490
 1.7790	34.4320
 1.7800	34.4150
 1.7810	34.4000
 1.7820	34.3850
 1.7830	34.3710
 1.7840	34.3600
 1.7850	34.3480
 1.7860	34.3400
 1.7870	34.3350
 1.7880	34.3310
 1.7890	34.3280
 1.7900	34.3270
 1.7910	34.3270
 1.7920	34.3300
 1.7930	34.3310
 1.7940	34.3340
 1.7950	34.3350
 1.7960	34.3350
 1.7970	34.3360
 1.7980	34.3380
 1.7990	34.3420
 1.8000	34.3480
 1.8010	34.3530
 1.8020	34.3560
 1.8030	34.3630
 1.8040	34.3710
 1.8050	34.3800
 1.8060	34.3920
 1.8070	34.3990
 1.8080	34.4020
 1.8090	34.4070
 1.8100	34.4120
 1.8110	34.4170
 1.8120	34.4210
 1.8130	34.4240
 1.8140	34.4280
 1.8150	34.4320
 1.8160	34.4360
 1.8170	34.4380
 1.8180	34.4380
 1.8190	34.4350
 1.8200	34.4330
 1.8210	34.4300
 1.8220	34.4280
 1.8230	34.4270
 1.8240	34.4240
 1.8250	34.4210
 1.8260	34.4170
 1.8270	34.4130
 1.8280	34.4070
 1.8290	34.4000
 1.8300	34.3910
 1.8310	34.5360
 1.8320	34.5170
 1.8330	34.4980
 1.8340	34.4770
 1.8350	34.4530
 1.8360	34.4260
 1.8370	34.3940
 1.8380	34.3630
 1.8390	34.3300
 1.8400	34.2950
 1.8410	34.2520
 1.8420	34.2070
 1.8430	34.1570
 1.8440	34.0930
 1.8450	34.0310
 1.8460	33.9600
 1.8470	33.8800
 1.8480	33.7990
 1.8490	33.7070
 1.8500	33.6060
 1.8510	33.4970
 1.8520	33.3800
 1.8530	33.2500
 1.8540	33.1100
 1.8550	32.9660
 1.8560	32.8110
 1.8570	32.6400
 1.8580	32.4590
 1.8590	32.2650
 1.8600	32.0580
 1.8610	31.8320
 1.8620	31.5940
 1.8630	31.3420
 1.8640	31.0710
 1.8650	30.7850
 1.8660	30.4820
 1.8670	30.1540
 1.8680	29.8090
 1.8690	29.4430
 1.8700	29.0560
 1.8710	28.6480
 1.8720	28.2280
 1.8730	27.7880
 1.8740	27.3310
 1.8750	26.8600
 1.8760	26.3720
 1.8770	25.8730
 1.8780	25.3650
 1.8790	24.8450
 1.8800	24.3260
 1.8810	23.8020
 1.8820	23.2750
 1.8830	22.7400
 1.8840	22.2070
 1.8850	21.6690
 1.8860	21.1350
 1.8870	20.6100
 1.8880	20.0910
 1.8890	19.5880
 1.8900	19.1000
 1.8910	18.6320
 1.8920	18.1760
 1.8930	17.7450
 1.8940	17.3340
 1.8950	16.9440
 1.8960	16.5790
 1.8970	16.2370
 1.8980	15.9210
 1.8990	15.6300
 1.9000	15.3590
 1.9010	15.1140
 1.9020	14.8860
 1.9030	14.6800
 1.9040	14.4900
 1.9050	14.3240
 1.9060	14.1740
 1.9070	14.0400
 1.9080	13.9220
 1.9090	13.8160
 1.9100	13.7200
 1.9110	13.6340
 1.9120	13.5610
 1.9130	13.4940
 1.9140	13.4340
 1.9150	13.3830
 1.9160	13.3380
 1.9170	13.2980
 1.9180	13.2650
 1.9190	13.2370
 1.9200	13.2150
 1.9210	13.1990
 1.9220	13.1850
 1.9230	13.1760
 1.9240	13.1700
 1.9250	13.1670
 1.9260	13.1660
 1.9270	13.1710
 1.9280	13.1770
 1.9290	13.1860
 1.9300	13.2000
 1.9310	13.2140
 1.9320	13.2300
 1.9330	13.2500
 1.9340	13.2750
 1.9350	13.2990
 1.9360	13.3280
 1.9370	13.3560
 1.9380	13.3850
 1.9390	13.4150
 1.9400	13.4480
 1.9410	13.4840
 1.9420	13.5210
 1.9430	13.5620
 1.9440	13.6050
 1.9450	13.6500
 1.9460	13.6970
 1.9470	13.7480
 1.9480	13.7980
 1.9490	13.8480
 1.9500	13.9010
 1.9510	13.9570
 1.9520	14.0120
 1.9530	14.0700
 1.9540	14.1290
 1.9550	14.1900
 1.9560	14.2530
 1.9570	14.3160
 1.9580	14.3790
 1.9590	14.4440
 1.9600	14.5080
 1.9610	14.5760
 1.9620	14.6480
 1.9630	14.7220
 1.9640	14.7950
 1.9650	14.8700
 1.9660	14.9430
 1.9670	15.0160
 1.9680	15.0910
 1.9690	15.1660
 1.9700	15.2430
 1.9710	15.3220
 1.9720	15.4030
 1.9730	15.4860
 1.9740	15.5710
 1.9750	15.6570
 1.9760	15.7420
 1.9770	15.8260
 1.9780	15.9120
 1.9790	15.9970
 1.9800	16.0800
 1.9810	16.1680
 1.9820	16.2580
 1.9830	16.3470
 1.9840	16.4410
 1.9850	16.5310
 1.9860	16.6190
 1.9870	16.7100
 1.9880	16.7990
 1.9890	16.8890
 1.9900	16.9840
 1.9910	17.0780
 1.9920	17.1700
 1.9930	17.2620
 1.9940	17.3540
 1.9950	17.4440
 1.9960	17.5360
 1.9970	17.6310
 1.9980	17.7250
 1.9990	17.8160
 2.0000	17.9090
 2.0010	18.0020
 2.0020	18.0940
 2.0030	18.1840
 2.0040	18.2750
 2.0050	18.3660
 2.0060	18.4570
 2.0070	18.5490
 2.0080	18.6420
 2.0090	18.7340
 2.0100	18.8240
 2.0110	18.9140
 2.0120	19.0030
 2.0130	19.0890
 2.0140	19.1770
 2.0150	19.2670
 2.0160	19.3510
 2.0170	19.4380
 2.0180	19.5200
 2.0190	19.5980
 2.0200	19.6770
 2.0210	19.7560
 2.0220	19.8340
 2.0230	19.9110
 2.0240	19.9880
 2.0250	20.0670
 2.0260	20.1420
 2.0270	20.2180
 2.0280	20.2920
 2.0290	20.3590
 2.0300	20.4280
 2.0310	20.4950
 2.0320	20.5600
 2.0330	20.6240
 2.0340	20.6890
 2.0350	20.7490
 2.0360	20.8060
 2.0370	20.8620
 2.0380	20.9130
 2.0390	20.9670
 2.0400	21.0210
 2.0410	21.0740
 2.0420	21.1290
 2.0430	21.1810
 2.0440	21.2330
 2.0450	21.2840
 2.0460	21.3330
 2.0470	21.3780
 2.0480	21.4260
 2.0490	21.4720
 2.0500	21.5210
 2.0510	21.5740
 2.0520	21.6230
 2.0530	21.6730
 2.0540	21.7220
 2.0550	21.7680
 2.0560	21.8170
 2.0570	21.8660
 2.0580	21.9170
 2.0590	21.9670
 2.0600	22.0180
 2.0610	22.0700
 2.0620	22.1210
 2.0630	22.1760
 2.0640	22.2350
 2.0650	22.2900
 2.0660	22.3470
 2.0670	22.4020
 2.0680	22.4540
 2.0690	22.5080
 2.0700	22.5650
 2.0710	22.6200
 2.0720	22.6740
 2.0730	22.7280
 2.0740	22.7830
 2.0750	22.8360
 2.0760	22.8910
 2.0770	22.9500
 2.0780	23.0050
 2.0790	23.0560
 2.0800	23.1100
 2.0810	23.1660
 2.0820	23.2200
 2.0830	23.2760
 2.0840	23.3290
 2.0850	23.3780
 2.0860	23.4280
 2.0870	23.4800
 2.0880	23.5310
 2.0890	23.5840
 2.0900	23.6390
 2.0910	23.6910
 2.0920	23.7430
 2.0930	23.7940
 2.0940	23.8440
 2.0950	23.8920
 2.0960	23.9380
 2.0970	23.9850
 2.0980	24.0290
 2.0990	24.0760
 2.1000	24.1260
 2.1010	24.1770
 2.1020	24.2300
 2.1030	24.2800
 2.1040	24.3280
 2.1050	24.3780
 2.1060	24.4230
 2.1070	24.4630
 2.1080	24.5070
 2.1090	24.5490
 2.1100	24.5960
 2.1110	24.6470
 2.1120	24.6950
 2.1130	24.7440
 2.1140	24.7910
 2.1150	24.8350
 2.1160	24.8810
 2.1170	24.9260
 2.1180	24.9700
 2.1190	25.0130
 2.1200	25.0560
 2.1210	25.1000
 2.1220	25.1450
 2.1230	25.1880
 2.1240	25.2300
 2.1250	25.2730
 2.1260	25.3140
 2.1270	25.3550
 2.1280	25.3980
 2.1290	25.4360
 2.1300	25.4690
 2.1310	25.5050
 2.1320	25.5400
 2.1330	25.5740
 2.1340	25.6090
 2.1350	25.6420
 2.1360	25.6760
 2.1370	25.7060
 2.1380	25.7330
 2.1390	25.7590
 2.1400	25.7790
 2.1410	25.7990
 2.1420	25.8240
 2.1430	25.8510
 2.1440	25.8770
 2.1450	25.9050
 2.1460	25.9290
 2.1470	25.9510
 2.1480	25.9720
 2.1490	25.9920
 2.1500	26.0090
 2.1510	26.0230
 2.1520	26.0370
 2.1530	26.0480
 2.1540	26.0620
 2.1550	26.0760
 2.1560	26.0910
 2.1570	26.1120
 2.1580	26.1270
 2.1590	26.1380
 2.1600	26.1500
 2.1610	26.1610
 2.1620	26.1670
 2.1630	26.1750
 2.1640	26.1840
 2.1650	26.1920
 2.1660	26.1990
 2.1670	26.2070
 2.1680	26.2150
 2.1690	26.2250
 2.1700	26.2370
 2.1710	26.2470
 2.1720	26.2600
 2.1730	26.2700
 2.1740	26.2740
 2.1750	26.2830
 2.1760	26.2950
 2.1770	26.3080
 2.1780	26.3250
 2.1790	26.3400
 2.1800	26.3560
 2.1810	26.3720
 2.1820	26.3900
 2.1830	26.4030
 2.1840	26.4190
 2.1850	26.4340
 2.1860	26.4480
 2.1870	26.4610
 2.1880	26.4750
 2.1890	26.4870
 2.1900	26.5020
 2.1910	26.5210
 2.1920	26.5360
 2.1930	26.5540
 2.1940	26.5680
 2.1950	26.5820
 2.1960	26.5930
 2.1970	26.6000
 2.1980	26.6070
 2.1990	26.6090
 2.2000	26.6140
 2.2010	26.6220
 2.2020	26.6270
 2.2030	26.6330
 2.2040	26.6360
 2.2050	26.6350
 2.2060	26.6340
 2.2070	26.6320
 2.2080	26.6270
 2.2090	26.6210
 2.2100	26.6140
 2.2110	26.6040
 2.2120	26.5910
 2.2130	26.5770
 2.2140	26.5600
 2.2150	26.5470
 2.2160	26.5340
 2.2170	26.5230
 2.2180	26.5190
 2.2190	26.5070
 2.2200	26.4920
 2.2210	26.4760
 2.2220	26.4570
 2.2230	26.4380
 2.2240	26.4210
 2.2250	26.3970
 2.2260	26.3650
 2.2270	26.3330
 2.2280	26.2980
 2.2290	26.2590
 2.2300	26.2190
 2.2310	26.1750
 2.2320	26.1170
 2.2330	26.0560
 2.2340	25.9880
 2.2350	25.9090
 2.2360	25.8360
 2.2370	25.7590
 2.2380	25.6850
 2.2390	25.6110
 2.2400	25.5400
 2.2410	25.4680
 2.2420	25.4000
 2.2430	25.3360
 2.2440	25.2750
 2.2450	25.2140
 2.2460	25.1600
 2.2470	25.1110
 2.2480	25.0630
 2.2490	25.0180
 2.2500	24.9770
 2.2510	24.9380
 2.2520	24.9010
 2.2530	24.8740
 2.2540	24.8360
 2.2550	24.7920
 2.2560	24.7490
 2.2570	24.6990
 2.2580	24.6530
 2.2590	24.6170
 2.2600	24.5730
 2.2610	24.5260
 2.2620	24.4770
 2.2630	24.4250
 2.2640	24.3710
 2.2650	24.3190
 2.2660	24.2660
 2.2670	24.2130
 2.2680	24.1580
 2.2690	24.1080
 2.2700	24.0610
 2.2710	24.0180
 2.2720	23.9810
 2.2730	23.9380
 2.2740	23.8960
 2.2750	23.8510
 2.2760	23.7980
 2.2770	23.7570
 2.2780	23.7220
 2.2790	23.6880
 2.2800	23.6630
 2.2810	23.6310
 2.2820	23.5920
 2.2830	23.5590
 2.2840	23.5250
 2.2850	23.4930
 2.2860	23.4670
 2.2870	23.4360
 2.2880	23.4040
 2.2890	23.3680
 2.2900	23.3290
 2.2910	23.2890
 2.2920	23.2460
 2.2930	23.2010
 2.2940	23.1530
 2.2950	23.1050
 2.2960	23.0580
 2.2970	23.0070
 2.2980	22.9570
 2.2990	22.9030
 2.3000	22.8440
 2.3010	22.7870
 2.3020	22.7320
 2.3030	22.6750
 2.3040	22.6220
 2.3050	22.5670
 2.3060	22.5090
 2.3070	22.4540
 2.3080	22.3950
 2.3090	22.3370
 2.3100	22.2940
 2.3110	22.2540
 2.3120	22.2230
 2.3130	22.2060
 2.3140	22.1860
 2.3150	22.1740
 2.3160	22.1570
 2.3170	22.1420
 2.3180	22.1250
 2.3190	22.1070
 2.3200	22.0850
 2.3210	22.0620
 2.3220	22.0380
 2.3230	22.0080
 2.3240	21.9860
 2.3250	21.9740
 2.3260	21.9550
 2.3270	21.9400
 2.3280	21.9140
 2.3290	21.8770
 2.3300	21.8450
 2.3310	21.8120
 2.3320	21.7750
 2.3330	21.7370
 2.3340	21.6970
 2.3350	21.6450
 2.3360	21.6060
 2.3370	21.5780
 2.3380	21.5420
 2.3390	21.5070
 2.3400	21.4710
 2.3410	21.4310
 2.3420	21.3910
 2.3430	21.3520
 2.3440	21.3120
 2.3450	21.2670
 2.3460	21.2270
 2.3470	21.1930
 2.3480	21.1600
 2.3490	21.1290
 2.3500	21.0970
 2.3510	21.0620
 2.3520	21.0330
 2.3530	21.0070
 2.3540	20.9840
 2.3550	20.9690
 2.3560	20.9560
 2.3570	20.9380
 2.3580	20.9160
 2.3590	20.8870
 2.3600	20.8600
 2.3610	20.8310
 2.3620	20.8030
 2.3630	20.7810
 2.3640	20.7460
 2.3650	20.7110
 2.3660	20.6880
 2.3670	20.6500
 2.3680	20.6160
 2.3690	20.5940
 2.3700	20.5540
 2.3710	20.5170
 2.3720	20.4880
 2.3730	20.4490
 2.3740	20.4040
 2.3750	20.3620
 2.3760	20.3240
 2.3770	20.2880
 2.3780	20.2460
 2.3790	20.2010
 2.3800	20.1580
 2.3810	20.1100
 2.3820	20.0690
 2.3830	20.0440
 2.3840	20.0070
 2.3850	19.9620
 2.3860	19.9180
 2.3870	19.8670
 2.3880	19.8150
 2.3890	19.7740
 2.3900	19.7350
 2.3910	19.6980
 2.3920	19.6530
 2.3930	19.6100
 2.3940	19.5690
 2.3950	19.5170
 2.3960	19.4750
 2.3970	19.4330
 2.3980	19.3760
 2.3990	19.3270
 2.4000	19.2770
 2.4010	19.2230
 2.4020	19.1790
 2.4030	19.1400
 2.4040	19.1000
 2.4050	19.0630
 2.4060	19.0290
 2.4070	19.0010
 2.4080	18.9580
 2.4090	18.9030
 2.4100	18.8540
 2.4110	18.7860
 2.4120	18.7420
 2.4130	18.7200
 2.4140	18.6680
 2.4150	18.6150
 2.4160	18.5660
 2.4170	18.5070
 2.4180	18.4580
 2.4190	18.4160
 2.4200	18.3570
 2.4210	18.2910
 2.4220	18.2410
 2.4230	18.1960
 2.4240	18.1420
 2.4250	18.0940
 2.4260	18.0300
 2.4270	17.9540
 2.4280	17.9020
 2.4290	17.8620
 2.4300	17.8060
 2.4310	17.7700
 2.4320	17.7270
 2.4330	17.6420
 2.4340	17.5920
 2.4350	17.5470
 2.4360	17.4760
 2.4370	17.4310
 2.4380	17.3800
 2.4390	17.3180
 2.4400	17.2740
 2.4410	17.2210
 2.4420	17.1680
 2.4430	17.1310
 2.4440	17.0860
 2.4450	17.0350
 2.4460	16.9930
 2.4470	16.9250
 2.4480	16.8460
 2.4490	16.7940
 2.4500	16.7360
 2.4510	16.6850
 2.4520	16.6510
 2.4530	16.6030
 2.4540	16.5580
 2.4550	16.5180
 2.4560	16.4680
 2.4570	16.4290
 2.4580	16.3720
 2.4590	16.2950
 2.4600	16.2380
 2.4610	16.1730
 2.4620	16.1290
 2.4630	16.1070
 2.4640	16.0580
 2.4650	16.0220
 2.4660	15.9930
 2.4670	15.9530
 2.4680	15.9320
 2.4690	15.9040
 2.4700	15.8580
 2.4710	15.7990
 2.4720	15.7460
 2.4730	15.6710
 2.4740	15.6310
 2.4750	15.6140
 2.4760	15.5880
 2.4770	15.5830
 2.4780	15.5530
 2.4790	15.5210
 2.4800	15.4890
 2.4810	15.4360
 2.4820	15.4170
 2.4830	15.3480
 2.4840	15.2870
 2.4850	15.2690
 2.4860	15.2450
 2.4870	15.2280
 2.4880	15.2140
 2.4890	15.2210
 2.4900	15.2150
 2.4910	15.1910
 2.4920	15.1820
 2.4930	15.1380
 2.4940	15.0940
 2.4950	15.0700
 2.4960	15.0320
 2.4970	15.0140
 2.4980	15.0290
 2.4990	15.0420
 2.5000	15.0350
