Name: Portulacaria afra
Type: vegetation
Class: Shrub
Genus: Portulacaria
Species: afra
Sample No.: JPL064
Owner: JPL
Wavelength Range: VSWIR
Origin: 34.12645; - 118.11028; WGS84
Collection Date: 2/2/2016
Description: Samples were collected at the Huntington Garden in San Marino California as part of a JPL Subcontract studying HyTES imagery. Samples were taken to JPL and processed within 48 hours of collection. The same leaves were processed in the Nicolet and then measured using the ASD.
Measurement: Bidirectional reflectance
First Column: X
Second Column: Y
X Units: Wavelength (micrometer)
Y Units: Reflectance (percentage)
First X Value: 0.35
Last X Value: 2.5
Number of X Values: 2151
Additional Information: 

 0.3500	 3.9620
 0.3510	 2.3570
 0.3520	 3.6420
 0.3530	 4.5730
 0.3540	 3.2080
 0.3550	 3.6830
 0.3560	 4.5810
 0.3570	 4.8360
 0.3580	 3.9510
 0.3590	 3.4420
 0.3600	 3.8090
 0.3610	 4.3910
 0.3620	 3.2320
 0.3630	 3.3930
 0.3640	 4.0620
 0.3650	 3.9700
 0.3660	 4.3980
 0.3670	 4.1480
 0.3680	 3.7000
 0.3690	 4.4810
 0.3700	 4.4280
 0.3710	 3.4520
 0.3720	 2.2910
 0.3730	 2.6970
 0.3740	 3.4290
 0.3750	 3.8100
 0.3760	 3.6000
 0.3770	 3.9220
 0.3780	 3.6650
 0.3790	 3.1710
 0.3800	 3.9420
 0.3810	 4.2610
 0.3820	 4.0890
 0.3830	 3.7210
 0.3840	 3.5940
 0.3850	 3.4800
 0.3860	 3.4320
 0.3870	 3.5600
 0.3880	 3.7270
 0.3890	 3.8150
 0.3900	 3.8160
 0.3910	 3.8320
 0.3920	 3.8430
 0.3930	 3.8580
 0.3940	 3.8310
 0.3950	 3.5030
 0.3960	 3.4720
 0.3970	 3.6810
 0.3980	 3.7730
 0.3990	 3.7080
 0.4000	 3.6390
 0.4010	 3.6500
 0.4020	 3.6990
 0.4030	 3.6180
 0.4040	 3.5210
 0.4050	 3.5110
 0.4060	 3.3970
 0.4070	 3.1900
 0.4080	 3.0790
 0.4090	 3.3250
 0.4100	 3.6720
 0.4110	 3.7270
 0.4120	 3.5010
 0.4130	 3.7690
 0.4140	 3.7340
 0.4150	 3.6060
 0.4160	 3.7730
 0.4170	 3.8450
 0.4180	 3.8860
 0.4190	 3.8840
 0.4200	 3.7590
 0.4210	 3.7420
 0.4220	 3.7440
 0.4230	 3.6980
 0.4240	 3.7580
 0.4250	 3.8730
 0.4260	 4.0000
 0.4270	 4.0830
 0.4280	 3.9860
 0.4290	 3.9320
 0.4300	 4.0240
 0.4310	 4.1610
 0.4320	 4.1590
 0.4330	 4.0860
 0.4340	 4.0620
 0.4350	 4.1220
 0.4360	 4.1810
 0.4370	 4.2510
 0.4380	 4.4030
 0.4390	 4.3970
 0.4400	 4.3960
 0.4410	 4.5110
 0.4420	 4.6130
 0.4430	 4.5670
 0.4440	 4.4880
 0.4450	 4.5490
 0.4460	 4.5690
 0.4470	 4.5970
 0.4480	 4.6550
 0.4490	 4.7300
 0.4500	 4.7920
 0.4510	 4.8020
 0.4520	 4.7640
 0.4530	 4.8310
 0.4540	 4.8810
 0.4550	 4.8930
 0.4560	 4.9070
 0.4570	 4.8480
 0.4580	 4.8390
 0.4590	 4.9310
 0.4600	 4.9980
 0.4610	 5.0580
 0.4620	 5.0560
 0.4630	 4.9610
 0.4640	 4.9980
 0.4650	 5.0360
 0.4660	 5.0090
 0.4670	 4.9410
 0.4680	 4.9960
 0.4690	 5.0300
 0.4700	 4.9480
 0.4710	 4.9720
 0.4720	 5.0210
 0.4730	 5.0680
 0.4740	 5.1070
 0.4750	 5.0550
 0.4760	 5.0490
 0.4770	 5.1220
 0.4780	 5.1020
 0.4790	 5.0800
 0.4800	 5.0720
 0.4810	 5.0720
 0.4820	 5.0820
 0.4830	 5.0510
 0.4840	 5.0100
 0.4850	 5.0530
 0.4860	 5.0910
 0.4870	 5.0960
 0.4880	 5.0780
 0.4890	 5.1240
 0.4900	 5.1420
 0.4910	 5.1480
 0.4920	 5.2060
 0.4930	 5.2760
 0.4940	 5.3250
 0.4950	 5.3390
 0.4960	 5.3170
 0.4970	 5.3890
 0.4980	 5.4930
 0.4990	 5.5430
 0.5000	 5.6070
 0.5010	 5.6800
 0.5020	 5.7690
 0.5030	 5.8860
 0.5040	 5.9690
 0.5050	 6.0490
 0.5060	 6.1600
 0.5070	 6.3060
 0.5080	 6.4030
 0.5090	 6.5240
 0.5100	 6.7730
 0.5110	 6.9180
 0.5120	 7.0680
 0.5130	 7.2710
 0.5140	 7.4660
 0.5150	 7.6310
 0.5160	 7.8250
 0.5170	 8.0890
 0.5180	 8.3380
 0.5190	 8.5600
 0.5200	 8.7820
 0.5210	 9.0500
 0.5220	 9.3090
 0.5230	 9.5630
 0.5240	 9.8140
 0.5250	10.0330
 0.5260	10.2700
 0.5270	10.5170
 0.5280	10.7430
 0.5290	10.9540
 0.5300	11.1460
 0.5310	11.3210
 0.5320	11.4910
 0.5330	11.6540
 0.5340	11.8100
 0.5350	11.9560
 0.5360	12.0620
 0.5370	12.1850
 0.5380	12.3110
 0.5390	12.3760
 0.5400	12.4750
 0.5410	12.5980
 0.5420	12.7150
 0.5430	12.8120
 0.5440	12.8810
 0.5450	12.9290
 0.5460	12.9670
 0.5470	12.9780
 0.5480	12.9980
 0.5490	13.0360
 0.5500	13.0560
 0.5510	13.0650
 0.5520	13.0720
 0.5530	13.0800
 0.5540	13.0720
 0.5550	13.0410
 0.5560	12.9830
 0.5570	12.9040
 0.5580	12.8370
 0.5590	12.7520
 0.5600	12.6380
 0.5610	12.5360
 0.5620	12.4550
 0.5630	12.3700
 0.5640	12.2490
 0.5650	12.1270
 0.5660	12.0090
 0.5670	11.8870
 0.5680	11.7330
 0.5690	11.6090
 0.5700	11.4780
 0.5710	11.3060
 0.5720	11.1680
 0.5730	11.0200
 0.5740	10.8720
 0.5750	10.7600
 0.5760	10.6290
 0.5770	10.5090
 0.5780	10.4150
 0.5790	10.3080
 0.5800	10.2210
 0.5810	10.1430
 0.5820	10.0520
 0.5830	 9.9900
 0.5840	 9.9280
 0.5850	 9.8550
 0.5860	 9.7880
 0.5870	 9.7130
 0.5880	 9.6560
 0.5890	 9.6240
 0.5900	 9.5570
 0.5910	 9.5070
 0.5920	 9.4750
 0.5930	 9.4340
 0.5940	 9.4140
 0.5950	 9.3920
 0.5960	 9.3640
 0.5970	 9.3600
 0.5980	 9.3310
 0.5990	 9.2980
 0.6000	 9.2840
 0.6010	 9.2330
 0.6020	 9.1820
 0.6030	 9.1420
 0.6040	 9.0870
 0.6050	 9.0210
 0.6060	 8.9550
 0.6070	 8.8910
 0.6080	 8.7940
 0.6090	 8.7120
 0.6100	 8.6430
 0.6110	 8.5640
 0.6120	 8.4890
 0.6130	 8.3810
 0.6140	 8.2420
 0.6150	 8.1380
 0.6160	 8.0580
 0.6170	 7.9840
 0.6180	 7.9020
 0.6190	 7.8430
 0.6200	 7.7930
 0.6210	 7.7500
 0.6220	 7.7150
 0.6230	 7.6660
 0.6240	 7.6120
 0.6250	 7.5700
 0.6260	 7.5520
 0.6270	 7.5480
 0.6280	 7.5480
 0.6290	 7.5480
 0.6300	 7.5580
 0.6310	 7.5740
 0.6320	 7.5790
 0.6330	 7.5460
 0.6340	 7.5370
 0.6350	 7.5260
 0.6360	 7.4860
 0.6370	 7.4420
 0.6380	 7.4070
 0.6390	 7.3660
 0.6400	 7.2920
 0.6410	 7.2170
 0.6420	 7.1460
 0.6430	 7.0700
 0.6440	 6.9700
 0.6450	 6.8820
 0.6460	 6.8100
 0.6470	 6.7460
 0.6480	 6.6800
 0.6490	 6.6000
 0.6500	 6.5180
 0.6510	 6.4650
 0.6520	 6.4150
 0.6530	 6.3600
 0.6540	 6.3000
 0.6550	 6.2420
 0.6560	 6.1910
 0.6570	 6.1280
 0.6580	 6.0350
 0.6590	 5.9440
 0.6600	 5.8620
 0.6610	 5.7840
 0.6620	 5.6930
 0.6630	 5.5940
 0.6640	 5.5080
 0.6650	 5.4450
 0.6660	 5.3760
 0.6670	 5.3110
 0.6680	 5.2620
 0.6690	 5.2420
 0.6700	 5.2240
 0.6710	 5.2000
 0.6720	 5.1780
 0.6730	 5.1830
 0.6740	 5.1850
 0.6750	 5.1880
 0.6760	 5.2040
 0.6770	 5.2380
 0.6780	 5.2840
 0.6790	 5.3350
 0.6800	 5.3850
 0.6810	 5.4230
 0.6820	 5.4880
 0.6830	 5.5930
 0.6840	 5.6990
 0.6850	 5.8330
 0.6860	 5.9940
 0.6870	 6.1760
 0.6880	 6.3890
 0.6890	 6.6440
 0.6900	 6.9540
 0.6910	 7.3270
 0.6920	 7.7500
 0.6930	 8.2440
 0.6940	 8.8200
 0.6950	 9.4550
 0.6960	10.1400
 0.6970	10.8660
 0.6980	11.6310
 0.6990	12.4700
 0.7000	13.3180
 0.7010	14.1700
 0.7020	15.0750
 0.7030	15.9800
 0.7040	16.8880
 0.7050	17.8030
 0.7060	18.7170
 0.7070	19.6220
 0.7080	20.5180
 0.7090	21.4110
 0.7100	22.2900
 0.7110	23.1730
 0.7120	24.0620
 0.7130	24.9460
 0.7140	25.8200
 0.7150	26.6730
 0.7160	27.5080
 0.7170	28.3560
 0.7180	29.1950
 0.7190	30.0070
 0.7200	30.7860
 0.7210	31.5660
 0.7220	32.3280
 0.7230	33.0590
 0.7240	33.7570
 0.7250	34.4250
 0.7260	35.0620
 0.7270	35.6710
 0.7280	36.2650
 0.7290	36.8130
 0.7300	37.3180
 0.7310	37.7980
 0.7320	38.2410
 0.7330	38.6600
 0.7340	39.0570
 0.7350	39.4210
 0.7360	39.7630
 0.7370	40.0820
 0.7380	40.3760
 0.7390	40.6520
 0.7400	40.9060
 0.7410	41.1410
 0.7420	41.3640
 0.7430	41.5770
 0.7440	41.7650
 0.7450	41.9240
 0.7460	42.0630
 0.7470	42.2070
 0.7480	42.3370
 0.7490	42.4420
 0.7500	42.5330
 0.7510	42.6370
 0.7520	42.7300
 0.7530	42.7840
 0.7540	42.8520
 0.7550	42.9170
 0.7560	42.9700
 0.7570	43.0140
 0.7580	43.0450
 0.7590	43.0920
 0.7600	43.1560
 0.7610	43.1860
 0.7620	43.2090
 0.7630	43.2360
 0.7640	43.2660
 0.7650	43.2970
 0.7660	43.3050
 0.7670	43.3020
 0.7680	43.3230
 0.7690	43.3630
 0.7700	43.3860
 0.7710	43.3830
 0.7720	43.3860
 0.7730	43.4000
 0.7740	43.4200
 0.7750	43.4360
 0.7760	43.4410
 0.7770	43.4540
 0.7780	43.4680
 0.7790	43.4740
 0.7800	43.4940
 0.7810	43.5130
 0.7820	43.5200
 0.7830	43.5140
 0.7840	43.5130
 0.7850	43.5280
 0.7860	43.5530
 0.7870	43.5480
 0.7880	43.5380
 0.7890	43.5440
 0.7900	43.5710
 0.7910	43.5780
 0.7920	43.5730
 0.7930	43.5670
 0.7940	43.5730
 0.7950	43.5900
 0.7960	43.6040
 0.7970	43.6080
 0.7980	43.6000
 0.7990	43.5890
 0.8000	43.5890
 0.8010	43.6050
 0.8020	43.5980
 0.8030	43.5880
 0.8040	43.5790
 0.8050	43.5720
 0.8060	43.5660
 0.8070	43.5570
 0.8080	43.5470
 0.8090	43.5400
 0.8100	43.5470
 0.8110	43.5400
 0.8120	43.5110
 0.8130	43.4920
 0.8140	43.4990
 0.8150	43.5000
 0.8160	43.4730
 0.8170	43.4630
 0.8180	43.4430
 0.8190	43.4230
 0.8200	43.4220
 0.8210	43.4080
 0.8220	43.3760
 0.8230	43.3320
 0.8240	43.2930
 0.8250	43.2700
 0.8260	43.2470
 0.8270	43.2170
 0.8280	43.2000
 0.8290	43.1650
 0.8300	43.1180
 0.8310	43.0720
 0.8320	43.0440
 0.8330	43.0140
 0.8340	42.9770
 0.8350	42.9360
 0.8360	42.9090
 0.8370	42.9090
 0.8380	42.9140
 0.8390	42.8830
 0.8400	42.8840
 0.8410	42.8920
 0.8420	42.8840
 0.8430	42.8610
 0.8440	42.8340
 0.8450	42.8440
 0.8460	42.8910
 0.8470	42.8690
 0.8480	42.8530
 0.8490	42.8470
 0.8500	42.8360
 0.8510	42.8250
 0.8520	42.8400
 0.8530	42.8560
 0.8540	42.8300
 0.8550	42.8250
 0.8560	42.8330
 0.8570	42.8470
 0.8580	42.8620
 0.8590	42.8600
 0.8600	42.8490
 0.8610	42.8410
 0.8620	42.8500
 0.8630	42.8720
 0.8640	42.8940
 0.8650	42.9060
 0.8660	42.8860
 0.8670	42.8670
 0.8680	42.8710
 0.8690	42.9000
 0.8700	42.8960
 0.8710	42.8920
 0.8720	42.8930
 0.8730	42.8870
 0.8740	42.8850
 0.8750	42.8950
 0.8760	42.9060
 0.8770	42.8980
 0.8780	42.8980
 0.8790	42.9070
 0.8800	42.9120
 0.8810	42.8780
 0.8820	42.8870
 0.8830	42.9090
 0.8840	42.9050
 0.8850	42.8720
 0.8860	42.8550
 0.8870	42.8530
 0.8880	42.8490
 0.8890	42.8240
 0.8900	42.8060
 0.8910	42.8040
 0.8920	42.8120
 0.8930	42.8320
 0.8940	42.8180
 0.8950	42.7820
 0.8960	42.7720
 0.8970	42.7940
 0.8980	42.7900
 0.8990	42.7650
 0.9000	42.7760
 0.9010	42.7600
 0.9020	42.7320
 0.9030	42.7130
 0.9040	42.7070
 0.9050	42.7000
 0.9060	42.6940
 0.9070	42.6890
 0.9080	42.6710
 0.9090	42.6320
 0.9100	42.6020
 0.9110	42.5980
 0.9120	42.5930
 0.9130	42.5430
 0.9140	42.4810
 0.9150	42.4520
 0.9160	42.4360
 0.9170	42.3890
 0.9180	42.3230
 0.9190	42.2750
 0.9200	42.2530
 0.9210	42.1730
 0.9220	42.0610
 0.9230	41.9930
 0.9240	41.9280
 0.9250	41.8400
 0.9260	41.7340
 0.9270	41.6400
 0.9280	41.5490
 0.9290	41.3880
 0.9300	41.1920
 0.9310	41.0930
 0.9320	41.0140
 0.9330	40.8890
 0.9340	40.7150
 0.9350	40.5650
 0.9360	40.4400
 0.9370	40.2760
 0.9380	40.0610
 0.9390	39.8810
 0.9400	39.6740
 0.9410	39.4720
 0.9420	39.2950
 0.9430	39.1040
 0.9440	38.8680
 0.9450	38.6430
 0.9460	38.4430
 0.9470	38.1460
 0.9480	37.8790
 0.9490	37.5790
 0.9500	37.2210
 0.9510	37.0050
 0.9520	36.6760
 0.9530	36.2850
 0.9540	35.9580
 0.9550	35.7270
 0.9560	35.4650
 0.9570	35.1810
 0.9580	34.9190
 0.9590	34.6490
 0.9600	34.4650
 0.9610	34.3230
 0.9620	34.1650
 0.9630	34.0900
 0.9640	34.0000
 0.9650	33.8760
 0.9660	33.7450
 0.9670	33.6650
 0.9680	33.5740
 0.9690	33.4870
 0.9700	33.4470
 0.9710	33.4780
 0.9720	33.4430
 0.9730	33.4170
 0.9740	33.5020
 0.9750	33.4430
 0.9760	33.3890
 0.9770	33.3950
 0.9780	33.4420
 0.9790	33.4640
 0.9800	33.4520
 0.9810	33.4030
 0.9820	33.3600
 0.9830	33.5280
 0.9840	33.5840
 0.9850	33.5370
 0.9860	33.5660
 0.9870	33.6490
 0.9880	33.7620
 0.9890	33.8530
 0.9900	33.8770
 0.9910	33.8490
 0.9920	33.8790
 0.9930	33.9570
 0.9940	34.0280
 0.9950	34.1470
 0.9960	34.2980
 0.9970	34.4450
 0.9980	34.5480
 0.9990	34.5910
 1.0000	34.6060
 1.0010	34.9250
 1.0020	35.0330
 1.0030	35.1480
 1.0040	35.2660
 1.0050	35.4050
 1.0060	35.5010
 1.0070	35.5750
 1.0080	35.6770
 1.0090	35.7750
 1.0100	35.8760
 1.0110	35.9940
 1.0120	36.1100
 1.0130	36.2050
 1.0140	36.3200
 1.0150	36.4480
 1.0160	36.6040
 1.0170	36.7250
 1.0180	36.8280
 1.0190	36.9320
 1.0200	37.0300
 1.0210	37.1550
 1.0220	37.2870
 1.0230	37.4220
 1.0240	37.5950
 1.0250	37.7060
 1.0260	37.7750
 1.0270	37.8760
 1.0280	37.9450
 1.0290	38.0410
 1.0300	38.1940
 1.0310	38.3070
 1.0320	38.3980
 1.0330	38.4940
 1.0340	38.5890
 1.0350	38.6770
 1.0360	38.7930
 1.0370	38.9180
 1.0380	39.0210
 1.0390	39.1180
 1.0400	39.2180
 1.0410	39.3140
 1.0420	39.3890
 1.0430	39.4450
 1.0440	39.5260
 1.0450	39.6070
 1.0460	39.6790
 1.0470	39.7790
 1.0480	39.8530
 1.0490	39.8880
 1.0500	39.9340
 1.0510	39.9730
 1.0520	40.0270
 1.0530	40.0790
 1.0540	40.1330
 1.0550	40.1870
 1.0560	40.2540
 1.0570	40.2960
 1.0580	40.3130
 1.0590	40.3570
 1.0600	40.4120
 1.0610	40.4430
 1.0620	40.4920
 1.0630	40.5110
 1.0640	40.4690
 1.0650	40.4720
 1.0660	40.4920
 1.0670	40.5070
 1.0680	40.5300
 1.0690	40.5840
 1.0700	40.5900
 1.0710	40.5680
 1.0720	40.5690
 1.0730	40.5550
 1.0740	40.5600
 1.0750	40.5960
 1.0760	40.5950
 1.0770	40.5820
 1.0780	40.5670
 1.0790	40.5380
 1.0800	40.5030
 1.0810	40.4600
 1.0820	40.4210
 1.0830	40.3800
 1.0840	40.3320
 1.0850	40.2830
 1.0860	40.2370
 1.0870	40.1930
 1.0880	40.1440
 1.0890	40.0900
 1.0900	40.0410
 1.0910	39.9820
 1.0920	39.9000
 1.0930	39.8410
 1.0940	39.8030
 1.0950	39.7440
 1.0960	39.6840
 1.0970	39.6180
 1.0980	39.5360
 1.0990	39.4570
 1.1000	39.3740
 1.1010	39.3010
 1.1020	39.2300
 1.1030	39.1580
 1.1040	39.1080
 1.1050	39.0500
 1.1060	38.9760
 1.1070	38.8960
 1.1080	38.8080
 1.1090	38.6970
 1.1100	38.6060
 1.1110	38.5210
 1.1120	38.4320
 1.1130	38.3490
 1.1140	38.2630
 1.1150	38.1860
 1.1160	38.0900
 1.1170	37.9930
 1.1180	37.8800
 1.1190	37.7500
 1.1200	37.6040
 1.1210	37.4700
 1.1220	37.3230
 1.1230	37.1440
 1.1240	36.9480
 1.1250	36.7320
 1.1260	36.4890
 1.1270	36.2260
 1.1280	35.9550
 1.1290	35.6530
 1.1300	35.3210
 1.1310	34.9690
 1.1320	34.6080
 1.1330	34.2080
 1.1340	33.7660
 1.1350	33.3180
 1.1360	32.8460
 1.1370	32.3540
 1.1380	31.8680
 1.1390	31.3760
 1.1400	30.8670
 1.1410	30.3690
 1.1420	29.8800
 1.1430	29.4020
 1.1440	28.9440
 1.1450	28.5040
 1.1460	28.0770
 1.1470	27.6450
 1.1480	27.2660
 1.1490	26.9160
 1.1500	26.5900
 1.1510	26.3090
 1.1520	26.0310
 1.1530	25.7560
 1.1540	25.5160
 1.1550	25.2930
 1.1560	25.0980
 1.1570	24.9440
 1.1580	24.8130
 1.1590	24.6910
 1.1600	24.5810
 1.1610	24.4810
 1.1620	24.3890
 1.1630	24.3140
 1.1640	24.2550
 1.1650	24.1970
 1.1660	24.1500
 1.1670	24.0980
 1.1680	24.0430
 1.1690	24.0020
 1.1700	23.9670
 1.1710	23.9330
 1.1720	23.9110
 1.1730	23.8840
 1.1740	23.8490
 1.1750	23.8250
 1.1760	23.8120
 1.1770	23.7910
 1.1780	23.7700
 1.1790	23.7510
 1.1800	23.7280
 1.1810	23.7030
 1.1820	23.6820
 1.1830	23.6530
 1.1840	23.6230
 1.1850	23.5970
 1.1860	23.5690
 1.1870	23.5400
 1.1880	23.5130
 1.1890	23.4860
 1.1900	23.4620
 1.1910	23.4380
 1.1920	23.4260
 1.1930	23.4220
 1.1940	23.4120
 1.1950	23.4070
 1.1960	23.4000
 1.1970	23.3910
 1.1980	23.3930
 1.1990	23.3990
 1.2000	23.4130
 1.2010	23.4260
 1.2020	23.4370
 1.2030	23.4560
 1.2040	23.4780
 1.2050	23.4950
 1.2060	23.5130
 1.2070	23.5360
 1.2080	23.5590
 1.2090	23.5880
 1.2100	23.6260
 1.2110	23.6600
 1.2120	23.6920
 1.2130	23.7230
 1.2140	23.7530
 1.2150	23.7850
 1.2160	23.8120
 1.2170	23.8500
 1.2180	23.8910
 1.2190	23.9260
 1.2200	23.9660
 1.2210	24.0020
 1.2220	24.0330
 1.2230	24.0670
 1.2240	24.0970
 1.2250	24.1320
 1.2260	24.1740
 1.2270	24.2130
 1.2280	24.2550
 1.2290	24.3020
 1.2300	24.3400
 1.2310	24.3760
 1.2320	24.4140
 1.2330	24.4470
 1.2340	24.4810
 1.2350	24.5180
 1.2360	24.5520
 1.2370	24.5850
 1.2380	24.6170
 1.2390	24.6530
 1.2400	24.6900
 1.2410	24.7310
 1.2420	24.7740
 1.2430	24.8140
 1.2440	24.8440
 1.2450	24.8750
 1.2460	24.9090
 1.2470	24.9430
 1.2480	24.9770
 1.2490	25.0110
 1.2500	25.0410
 1.2510	25.0620
 1.2520	25.0780
 1.2530	25.0930
 1.2540	25.1110
 1.2550	25.1300
 1.2560	25.1530
 1.2570	25.1780
 1.2580	25.1910
 1.2590	25.2050
 1.2600	25.2240
 1.2610	25.2330
 1.2620	25.2370
 1.2630	25.2380
 1.2640	25.2330
 1.2650	25.2250
 1.2660	25.2250
 1.2670	25.2230
 1.2680	25.2240
 1.2690	25.2160
 1.2700	25.1980
 1.2710	25.1820
 1.2720	25.1590
 1.2730	25.1350
 1.2740	25.1080
 1.2750	25.0800
 1.2760	25.0490
 1.2770	25.0030
 1.2780	24.9500
 1.2790	24.8930
 1.2800	24.8350
 1.2810	24.7780
 1.2820	24.7250
 1.2830	24.6680
 1.2840	24.6050
 1.2850	24.5350
 1.2860	24.4590
 1.2870	24.3800
 1.2880	24.3010
 1.2890	24.2100
 1.2900	24.1180
 1.2910	24.0240
 1.2920	23.9210
 1.2930	23.8180
 1.2940	23.7110
 1.2950	23.6020
 1.2960	23.4830
 1.2970	23.3570
 1.2980	23.2270
 1.2990	23.0860
 1.3000	22.9490
 1.3010	22.8190
 1.3020	22.6870
 1.3030	22.5480
 1.3040	22.4020
 1.3050	22.2460
 1.3060	22.0830
 1.3070	21.9130
 1.3080	21.7420
 1.3090	21.5730
 1.3100	21.4040
 1.3110	21.2300
 1.3120	21.0430
 1.3130	20.8560
 1.3140	20.6660
 1.3150	20.4660
 1.3160	20.2720
 1.3170	20.0820
 1.3180	19.8860
 1.3190	19.6890
 1.3200	19.4930
 1.3210	19.2960
 1.3220	19.0950
 1.3230	18.8930
 1.3240	18.6900
 1.3250	18.4880
 1.3260	18.2890
 1.3270	18.0910
 1.3280	17.8830
 1.3290	17.6770
 1.3300	17.4740
 1.3310	17.2710
 1.3320	17.0810
 1.3330	16.8930
 1.3340	16.7030
 1.3350	16.5210
 1.3360	16.3400
 1.3370	16.1640
 1.3380	15.9960
 1.3390	15.8250
 1.3400	15.6600
 1.3410	15.5000
 1.3420	15.3420
 1.3430	15.1920
 1.3440	15.0470
 1.3450	14.9030
 1.3460	14.7600
 1.3470	14.6230
 1.3480	14.4850
 1.3490	14.3580
 1.3500	14.2370
 1.3510	14.1250
 1.3520	14.0130
 1.3530	13.9010
 1.3540	13.7860
 1.3550	13.6690
 1.3560	13.5550
 1.3570	13.4420
 1.3580	13.3280
 1.3590	13.2130
 1.3600	13.0960
 1.3610	12.9790
 1.3620	12.8600
 1.3630	12.7360
 1.3640	12.6090
 1.3650	12.4760
 1.3660	12.3370
 1.3670	12.1970
 1.3680	12.0470
 1.3690	11.8880
 1.3700	11.7220
 1.3710	11.5480
 1.3720	11.3660
 1.3730	11.1850
 1.3740	11.0020
 1.3750	10.8070
 1.3760	10.6020
 1.3770	10.3880
 1.3780	10.1630
 1.3790	 9.9380
 1.3800	 9.7120
 1.3810	 9.4850
 1.3820	 9.2560
 1.3830	 9.0230
 1.3840	 8.7950
 1.3850	 8.5670
 1.3860	 8.3420
 1.3870	 8.1160
 1.3880	 7.9010
 1.3890	 7.6910
 1.3900	 7.4890
 1.3910	 7.3000
 1.3920	 7.1190
 1.3930	 6.9450
 1.3940	 6.7790
 1.3950	 6.6230
 1.3960	 6.4750
 1.3970	 6.3380
 1.3980	 6.2130
 1.3990	 6.0940
 1.4000	 5.9840
 1.4010	 5.8820
 1.4020	 5.7850
 1.4030	 5.6940
 1.4040	 5.6140
 1.4050	 5.5420
 1.4060	 5.4740
 1.4070	 5.4140
 1.4080	 5.3550
 1.4090	 5.2980
 1.4100	 5.2480
 1.4110	 5.2020
 1.4120	 5.1600
 1.4130	 5.1220
 1.4140	 5.0880
 1.4150	 5.0560
 1.4160	 5.0290
 1.4170	 5.0010
 1.4180	 4.9740
 1.4190	 4.9530
 1.4200	 4.9320
 1.4210	 4.9140
 1.4220	 4.9010
 1.4230	 4.8820
 1.4240	 4.8620
 1.4250	 4.8460
 1.4260	 4.8310
 1.4270	 4.8150
 1.4280	 4.8050
 1.4290	 4.7920
 1.4300	 4.7760
 1.4310	 4.7670
 1.4320	 4.7630
 1.4330	 4.7570
 1.4340	 4.7520
 1.4350	 4.7450
 1.4360	 4.7350
 1.4370	 4.7240
 1.4380	 4.7170
 1.4390	 4.7150
 1.4400	 4.7120
 1.4410	 4.7100
 1.4420	 4.7080
 1.4430	 4.7030
 1.4440	 4.6980
 1.4450	 4.6940
 1.4460	 4.6900
 1.4470	 4.6920
 1.4480	 4.6940
 1.4490	 4.6960
 1.4500	 4.6960
 1.4510	 4.6890
 1.4520	 4.6860
 1.4530	 4.6850
 1.4540	 4.6830
 1.4550	 4.6870
 1.4560	 4.6920
 1.4570	 4.6930
 1.4580	 4.6970
 1.4590	 4.6970
 1.4600	 4.6960
 1.4610	 4.7020
 1.4620	 4.7060
 1.4630	 4.7160
 1.4640	 4.7270
 1.4650	 4.7330
 1.4660	 4.7390
 1.4670	 4.7450
 1.4680	 4.7490
 1.4690	 4.7580
 1.4700	 4.7680
 1.4710	 4.7780
 1.4720	 4.7900
 1.4730	 4.8020
 1.4740	 4.8150
 1.4750	 4.8270
 1.4760	 4.8420
 1.4770	 4.8550
 1.4780	 4.8670
 1.4790	 4.8830
 1.4800	 4.8970
 1.4810	 4.9130
 1.4820	 4.9290
 1.4830	 4.9400
 1.4840	 4.9550
 1.4850	 4.9690
 1.4860	 4.9850
 1.4870	 5.0060
 1.4880	 5.0270
 1.4890	 5.0460
 1.4900	 5.0640
 1.4910	 5.0800
 1.4920	 5.0970
 1.4930	 5.1090
 1.4940	 5.1280
 1.4950	 5.1510
 1.4960	 5.1730
 1.4970	 5.1970
 1.4980	 5.2200
 1.4990	 5.2410
 1.5000	 5.2620
 1.5010	 5.2810
 1.5020	 5.3010
 1.5030	 5.3190
 1.5040	 5.3410
 1.5050	 5.3650
 1.5060	 5.3880
 1.5070	 5.4100
 1.5080	 5.4340
 1.5090	 5.4590
 1.5100	 5.4800
 1.5110	 5.5050
 1.5120	 5.5320
 1.5130	 5.5540
 1.5140	 5.5780
 1.5150	 5.6040
 1.5160	 5.6280
 1.5170	 5.6550
 1.5180	 5.6840
 1.5190	 5.7120
 1.5200	 5.7390
 1.5210	 5.7670
 1.5220	 5.7910
 1.5230	 5.8150
 1.5240	 5.8340
 1.5250	 5.8530
 1.5260	 5.8790
 1.5270	 5.9040
 1.5280	 5.9340
 1.5290	 5.9650
 1.5300	 5.9910
 1.5310	 6.0180
 1.5320	 6.0440
 1.5330	 6.0730
 1.5340	 6.1040
 1.5350	 6.1300
 1.5360	 6.1620
 1.5370	 6.1920
 1.5380	 6.2220
 1.5390	 6.2580
 1.5400	 6.2830
 1.5410	 6.3090
 1.5420	 6.3340
 1.5430	 6.3590
 1.5440	 6.3950
 1.5450	 6.4290
 1.5460	 6.4640
 1.5470	 6.4980
 1.5480	 6.5190
 1.5490	 6.5410
 1.5500	 6.5650
 1.5510	 6.5860
 1.5520	 6.6190
 1.5530	 6.6550
 1.5540	 6.6830
 1.5550	 6.7160
 1.5560	 6.7480
 1.5570	 6.7750
 1.5580	 6.8080
 1.5590	 6.8380
 1.5600	 6.8620
 1.5610	 6.8870
 1.5620	 6.9120
 1.5630	 6.9400
 1.5640	 6.9700
 1.5650	 7.0010
 1.5660	 7.0320
 1.5670	 7.0630
 1.5680	 7.0950
 1.5690	 7.1270
 1.5700	 7.1580
 1.5710	 7.1850
 1.5720	 7.2110
 1.5730	 7.2390
 1.5740	 7.2660
 1.5750	 7.2990
 1.5760	 7.3360
 1.5770	 7.3670
 1.5780	 7.3940
 1.5790	 7.4260
 1.5800	 7.4520
 1.5810	 7.4770
 1.5820	 7.5100
 1.5830	 7.5330
 1.5840	 7.5590
 1.5850	 7.5860
 1.5860	 7.6120
 1.5870	 7.6450
 1.5880	 7.6740
 1.5890	 7.7040
 1.5900	 7.7350
 1.5910	 7.7590
 1.5920	 7.7830
 1.5930	 7.8080
 1.5940	 7.8300
 1.5950	 7.8540
 1.5960	 7.8760
 1.5970	 7.8960
 1.5980	 7.9190
 1.5990	 7.9410
 1.6000	 7.9690
 1.6010	 7.9990
 1.6020	 8.0260
 1.6030	 8.0520
 1.6040	 8.0720
 1.6050	 8.0940
 1.6060	 8.1160
 1.6070	 8.1390
 1.6080	 8.1650
 1.6090	 8.1880
 1.6100	 8.2100
 1.6110	 8.2330
 1.6120	 8.2520
 1.6130	 8.2710
 1.6140	 8.2910
 1.6150	 8.3020
 1.6160	 8.3230
 1.6170	 8.3530
 1.6180	 8.3780
 1.6190	 8.4090
 1.6200	 8.4310
 1.6210	 8.4480
 1.6220	 8.4630
 1.6230	 8.4770
 1.6240	 8.5000
 1.6250	 8.5180
 1.6260	 8.5380
 1.6270	 8.5630
 1.6280	 8.5760
 1.6290	 8.5930
 1.6300	 8.6060
 1.6310	 8.6220
 1.6320	 8.6420
 1.6330	 8.6610
 1.6340	 8.6810
 1.6350	 8.6990
 1.6360	 8.7150
 1.6370	 8.7280
 1.6380	 8.7360
 1.6390	 8.7510
 1.6400	 8.7720
 1.6410	 8.7900
 1.6420	 8.8150
 1.6430	 8.8300
 1.6440	 8.8360
 1.6450	 8.8470
 1.6460	 8.8570
 1.6470	 8.8680
 1.6480	 8.8810
 1.6490	 8.8920
 1.6500	 8.8980
 1.6510	 8.9020
 1.6520	 8.9070
 1.6530	 8.9130
 1.6540	 8.9230
 1.6550	 8.9330
 1.6560	 8.9430
 1.6570	 8.9500
 1.6580	 8.9540
 1.6590	 8.9580
 1.6600	 8.9660
 1.6610	 8.9730
 1.6620	 8.9790
 1.6630	 8.9920
 1.6640	 8.9960
 1.6650	 8.9970
 1.6660	 8.9980
 1.6670	 8.9950
 1.6680	 8.9970
 1.6690	 9.0030
 1.6700	 9.0100
 1.6710	 9.0190
 1.6720	 9.0240
 1.6730	 9.0260
 1.6740	 9.0240
 1.6750	 9.0210
 1.6760	 9.0200
 1.6770	 9.0120
 1.6780	 9.0030
 1.6790	 8.9990
 1.6800	 8.9920
 1.6810	 8.9920
 1.6820	 8.9940
 1.6830	 8.9820
 1.6840	 8.9730
 1.6850	 8.9670
 1.6860	 8.9610
 1.6870	 8.9630
 1.6880	 8.9660
 1.6890	 8.9680
 1.6900	 8.9630
 1.6910	 8.9560
 1.6920	 8.9430
 1.6930	 8.9160
 1.6940	 8.9020
 1.6950	 8.8940
 1.6960	 8.8820
 1.6970	 8.8780
 1.6980	 8.8650
 1.6990	 8.8410
 1.7000	 8.8240
 1.7010	 8.8060
 1.7020	 8.7930
 1.7030	 8.7870
 1.7040	 8.7750
 1.7050	 8.7670
 1.7060	 8.7490
 1.7070	 8.7220
 1.7080	 8.7000
 1.7090	 8.6700
 1.7100	 8.6510
 1.7110	 8.6390
 1.7120	 8.6240
 1.7130	 8.6160
 1.7140	 8.5910
 1.7150	 8.5600
 1.7160	 8.5300
 1.7170	 8.4950
 1.7180	 8.4680
 1.7190	 8.4520
 1.7200	 8.4370
 1.7210	 8.4170
 1.7220	 8.3930
 1.7230	 8.3710
 1.7240	 8.3430
 1.7250	 8.3200
 1.7260	 8.3030
 1.7270	 8.2790
 1.7280	 8.2630
 1.7290	 8.2470
 1.7300	 8.2230
 1.7310	 8.2010
 1.7320	 8.1690
 1.7330	 8.1430
 1.7340	 8.1250
 1.7350	 8.1020
 1.7360	 8.0800
 1.7370	 8.0560
 1.7380	 8.0250
 1.7390	 7.9980
 1.7400	 7.9720
 1.7410	 7.9460
 1.7420	 7.9240
 1.7430	 7.8960
 1.7440	 7.8640
 1.7450	 7.8340
 1.7460	 7.8030
 1.7470	 7.7720
 1.7480	 7.7390
 1.7490	 7.7100
 1.7500	 7.6800
 1.7510	 7.6520
 1.7520	 7.6270
 1.7530	 7.5990
 1.7540	 7.5670
 1.7550	 7.5370
 1.7560	 7.5080
 1.7570	 7.4890
 1.7580	 7.4660
 1.7590	 7.4420
 1.7600	 7.4230
 1.7610	 7.3790
 1.7620	 7.3470
 1.7630	 7.3120
 1.7640	 7.2860
 1.7650	 7.2750
 1.7660	 7.2590
 1.7670	 7.2450
 1.7680	 7.2260
 1.7690	 7.2010
 1.7700	 7.1810
 1.7710	 7.1560
 1.7720	 7.1420
 1.7730	 7.1410
 1.7740	 7.1280
 1.7750	 7.1170
 1.7760	 7.0970
 1.7770	 7.0620
 1.7780	 7.0380
 1.7790	 7.0120
 1.7800	 6.9990
 1.7810	 6.9970
 1.7820	 6.9910
 1.7830	 6.9910
 1.7840	 6.9870
 1.7850	 6.9810
 1.7860	 6.9730
 1.7870	 6.9640
 1.7880	 6.9510
 1.7890	 6.9480
 1.7900	 6.9650
 1.7910	 6.9650
 1.7920	 6.9580
 1.7930	 6.9520
 1.7940	 6.9230
 1.7950	 6.9170
 1.7960	 6.9310
 1.7970	 6.9370
 1.7980	 6.9550
 1.7990	 6.9590
 1.8000	 6.9470
 1.8010	 6.9450
 1.8020	 6.9460
 1.8030	 6.9420
 1.8040	 6.9360
 1.8050	 6.9360
 1.8060	 6.9330
 1.8070	 6.9360
 1.8080	 6.9510
 1.8090	 6.9500
 1.8100	 6.9400
 1.8110	 6.9320
 1.8120	 6.9400
 1.8130	 6.9370
 1.8140	 6.9420
 1.8150	 6.9550
 1.8160	 6.9410
 1.8170	 6.9360
 1.8180	 6.9400
 1.8190	 6.9450
 1.8200	 6.9460
 1.8210	 6.9580
 1.8220	 6.9540
 1.8230	 6.9210
 1.8240	 6.9100
 1.8250	 6.9040
 1.8260	 6.9020
 1.8270	 6.9230
 1.8280	 6.9280
 1.8290	 6.9300
 1.8300	 6.9200
 1.8310	 6.8670
 1.8320	 6.8370
 1.8330	 6.8180
 1.8340	 6.8010
 1.8350	 6.7710
 1.8360	 6.7520
 1.8370	 6.7580
 1.8380	 6.7590
 1.8390	 6.7400
 1.8400	 6.6970
 1.8410	 6.6680
 1.8420	 6.6310
 1.8430	 6.6060
 1.8440	 6.5940
 1.8450	 6.5800
 1.8460	 6.5430
 1.8470	 6.5280
 1.8480	 6.5060
 1.8490	 6.4700
 1.8500	 6.4300
 1.8510	 6.3950
 1.8520	 6.3220
 1.8530	 6.2580
 1.8540	 6.2000
 1.8550	 6.1500
 1.8560	 6.1160
 1.8570	 6.0640
 1.8580	 6.0060
 1.8590	 5.9370
 1.8600	 5.8540
 1.8610	 5.7630
 1.8620	 5.6840
 1.8630	 5.6180
 1.8640	 5.5730
 1.8650	 5.5240
 1.8660	 5.4680
 1.8670	 5.4010
 1.8680	 5.3240
 1.8690	 5.2430
 1.8700	 5.1600
 1.8710	 5.0740
 1.8720	 4.9900
 1.8730	 4.9060
 1.8740	 4.8380
 1.8750	 4.7740
 1.8760	 4.7020
 1.8770	 4.6350
 1.8780	 4.5680
 1.8790	 4.5010
 1.8800	 4.4360
 1.8810	 4.3780
 1.8820	 4.3210
 1.8830	 4.2600
 1.8840	 4.1980
 1.8850	 4.1450
 1.8860	 4.0940
 1.8870	 4.0420
 1.8880	 3.9980
 1.8890	 3.9490
 1.8900	 3.8910
 1.8910	 3.8430
 1.8920	 3.7980
 1.8930	 3.7470
 1.8940	 3.6980
 1.8950	 3.6610
 1.8960	 3.6230
 1.8970	 3.5890
 1.8980	 3.5710
 1.8990	 3.5720
 1.9000	 3.5610
 1.9010	 3.5480
 1.9020	 3.5340
 1.9030	 3.5240
 1.9040	 3.4950
 1.9050	 3.4660
 1.9060	 3.4590
 1.9070	 3.4430
 1.9080	 3.4290
 1.9090	 3.4120
 1.9100	 3.3880
 1.9110	 3.3740
 1.9120	 3.3520
 1.9130	 3.3460
 1.9140	 3.3580
 1.9150	 3.3690
 1.9160	 3.3740
 1.9170	 3.3650
 1.9180	 3.3480
 1.9190	 3.3330
 1.9200	 3.3220
 1.9210	 3.3180
 1.9220	 3.3080
 1.9230	 3.3000
 1.9240	 3.2950
 1.9250	 3.2920
 1.9260	 3.2780
 1.9270	 3.2790
 1.9280	 3.2650
 1.9290	 3.2550
 1.9300	 3.2670
 1.9310	 3.2810
 1.9320	 3.3010
 1.9330	 3.3150
 1.9340	 3.3290
 1.9350	 3.3340
 1.9360	 3.3420
 1.9370	 3.3370
 1.9380	 3.3160
 1.9390	 3.2950
 1.9400	 3.2820
 1.9410	 3.2670
 1.9420	 3.2680
 1.9430	 3.2810
 1.9440	 3.2900
 1.9450	 3.3050
 1.9460	 3.3100
 1.9470	 3.3120
 1.9480	 3.3180
 1.9490	 3.3210
 1.9500	 3.3260
 1.9510	 3.3420
 1.9520	 3.3410
 1.9530	 3.3520
 1.9540	 3.3640
 1.9550	 3.3670
 1.9560	 3.3660
 1.9570	 3.3730
 1.9580	 3.3700
 1.9590	 3.3740
 1.9600	 3.3910
 1.9610	 3.4050
 1.9620	 3.4140
 1.9630	 3.4350
 1.9640	 3.4490
 1.9650	 3.4600
 1.9660	 3.4720
 1.9670	 3.4730
 1.9680	 3.4820
 1.9690	 3.5010
 1.9700	 3.5080
 1.9710	 3.5140
 1.9720	 3.5160
 1.9730	 3.5140
 1.9740	 3.5050
 1.9750	 3.4900
 1.9760	 3.4800
 1.9770	 3.4890
 1.9780	 3.4930
 1.9790	 3.5030
 1.9800	 3.5330
 1.9810	 3.5470
 1.9820	 3.5530
 1.9830	 3.5600
 1.9840	 3.5590
 1.9850	 3.5640
 1.9860	 3.5660
 1.9870	 3.5790
 1.9880	 3.6020
 1.9890	 3.6330
 1.9900	 3.6510
 1.9910	 3.6590
 1.9920	 3.6610
 1.9930	 3.6440
 1.9940	 3.6380
 1.9950	 3.6230
 1.9960	 3.6240
 1.9970	 3.6330
 1.9980	 3.6410
 1.9990	 3.6520
 2.0000	 3.6780
 2.0010	 3.6970
 2.0020	 3.7180
 2.0030	 3.7450
 2.0040	 3.7550
 2.0050	 3.7630
 2.0060	 3.7620
 2.0070	 3.7620
 2.0080	 3.7520
 2.0090	 3.7560
 2.0100	 3.7630
 2.0110	 3.7720
 2.0120	 3.7870
 2.0130	 3.8040
 2.0140	 3.8240
 2.0150	 3.8300
 2.0160	 3.8270
 2.0170	 3.8380
 2.0180	 3.8490
 2.0190	 3.8600
 2.0200	 3.8670
 2.0210	 3.8810
 2.0220	 3.8910
 2.0230	 3.8990
 2.0240	 3.9020
 2.0250	 3.9030
 2.0260	 3.9020
 2.0270	 3.8880
 2.0280	 3.8750
 2.0290	 3.8820
 2.0300	 3.8910
 2.0310	 3.8980
 2.0320	 3.9070
 2.0330	 3.9240
 2.0340	 3.9440
 2.0350	 3.9640
 2.0360	 4.0030
 2.0370	 4.0250
 2.0380	 4.0390
 2.0390	 4.0460
 2.0400	 4.0400
 2.0410	 4.0390
 2.0420	 4.0340
 2.0430	 4.0340
 2.0440	 4.0330
 2.0450	 4.0330
 2.0460	 4.0420
 2.0470	 4.0580
 2.0480	 4.0650
 2.0490	 4.0760
 2.0500	 4.0830
 2.0510	 4.0720
 2.0520	 4.0780
 2.0530	 4.0950
 2.0540	 4.1130
 2.0550	 4.1510
 2.0560	 4.1610
 2.0570	 4.1730
 2.0580	 4.1740
 2.0590	 4.1670
 2.0600	 4.1360
 2.0610	 4.1370
 2.0620	 4.1470
 2.0630	 4.1550
 2.0640	 4.1820
 2.0650	 4.1970
 2.0660	 4.1970
 2.0670	 4.2150
 2.0680	 4.2550
 2.0690	 4.2730
 2.0700	 4.2870
 2.0710	 4.2960
 2.0720	 4.2860
 2.0730	 4.2770
 2.0740	 4.2740
 2.0750	 4.2720
 2.0760	 4.2730
 2.0770	 4.2740
 2.0780	 4.2790
 2.0790	 4.2830
 2.0800	 4.2960
 2.0810	 4.3200
 2.0820	 4.3350
 2.0830	 4.3590
 2.0840	 4.3690
 2.0850	 4.3550
 2.0860	 4.3570
 2.0870	 4.3600
 2.0880	 4.3640
 2.0890	 4.3730
 2.0900	 4.3920
 2.0910	 4.4060
 2.0920	 4.4190
 2.0930	 4.4300
 2.0940	 4.4460
 2.0950	 4.4560
 2.0960	 4.4670
 2.0970	 4.4680
 2.0980	 4.4560
 2.0990	 4.4570
 2.1000	 4.4570
 2.1010	 4.4570
 2.1020	 4.4690
 2.1030	 4.4760
 2.1040	 4.4650
 2.1050	 4.4690
 2.1060	 4.4820
 2.1070	 4.5050
 2.1080	 4.5180
 2.1090	 4.5380
 2.1100	 4.5490
 2.1110	 4.5470
 2.1120	 4.5520
 2.1130	 4.5550
 2.1140	 4.5640
 2.1150	 4.5770
 2.1160	 4.5870
 2.1170	 4.5970
 2.1180	 4.6090
 2.1190	 4.6190
 2.1200	 4.6320
 2.1210	 4.6450
 2.1220	 4.6690
 2.1230	 4.6810
 2.1240	 4.6920
 2.1250	 4.6880
 2.1260	 4.6580
 2.1270	 4.6730
 2.1280	 4.6980
 2.1290	 4.7260
 2.1300	 4.8040
 2.1310	 4.8290
 2.1320	 4.8270
 2.1330	 4.8230
 2.1340	 4.7870
 2.1350	 4.7700
 2.1360	 4.7530
 2.1370	 4.7400
 2.1380	 4.7360
 2.1390	 4.7360
 2.1400	 4.7420
 2.1410	 4.7470
 2.1420	 4.7590
 2.1430	 4.7820
 2.1440	 4.7940
 2.1450	 4.8120
 2.1460	 4.8100
 2.1470	 4.7870
 2.1480	 4.7810
 2.1490	 4.7600
 2.1500	 4.7620
 2.1510	 4.7880
 2.1520	 4.8010
 2.1530	 4.8260
 2.1540	 4.8330
 2.1550	 4.8120
 2.1560	 4.8180
 2.1570	 4.8410
 2.1580	 4.8500
 2.1590	 4.8790
 2.1600	 4.8920
 2.1610	 4.8760
 2.1620	 4.8450
 2.1630	 4.8390
 2.1640	 4.8380
 2.1650	 4.8360
 2.1660	 4.8440
 2.1670	 4.8550
 2.1680	 4.8660
 2.1690	 4.8760
 2.1700	 4.9030
 2.1710	 4.9130
 2.1720	 4.9110
 2.1730	 4.9060
 2.1740	 4.8890
 2.1750	 4.8830
 2.1760	 4.8630
 2.1770	 4.8670
 2.1780	 4.9020
 2.1790	 4.9170
 2.1800	 4.9440
 2.1810	 4.9540
 2.1820	 4.9480
 2.1830	 4.9320
 2.1840	 4.9140
 2.1850	 4.8820
 2.1860	 4.8730
 2.1870	 4.8650
 2.1880	 4.8690
 2.1890	 4.8990
 2.1900	 4.9090
 2.1910	 4.9190
 2.1920	 4.9210
 2.1930	 4.9130
 2.1940	 4.9070
 2.1950	 4.8910
 2.1960	 4.8850
 2.1970	 4.8830
 2.1980	 4.8820
 2.1990	 4.8910
 2.2000	 4.8900
 2.2010	 4.8770
 2.2020	 4.8760
 2.2030	 4.8760
 2.2040	 4.8780
 2.2050	 4.8820
 2.2060	 4.9000
 2.2070	 4.9100
 2.2080	 4.9210
 2.2090	 4.9180
 2.2100	 4.9110
 2.2110	 4.9060
 2.2120	 4.8920
 2.2130	 4.8860
 2.2140	 4.8870
 2.2150	 4.8880
 2.2160	 4.8810
 2.2170	 4.8930
 2.2180	 4.9290
 2.2190	 4.9410
 2.2200	 4.9520
 2.2210	 4.9600
 2.2220	 4.9550
 2.2230	 4.9480
 2.2240	 4.9410
 2.2250	 4.9330
 2.2260	 4.9110
 2.2270	 4.8970
 2.2280	 4.8910
 2.2290	 4.8800
 2.2300	 4.8810
 2.2310	 4.8530
 2.2320	 4.8280
 2.2330	 4.8090
 2.2340	 4.8030
 2.2350	 4.8020
 2.2360	 4.8090
 2.2370	 4.8330
 2.2380	 4.8460
 2.2390	 4.8560
 2.2400	 4.8650
 2.2410	 4.8830
 2.2420	 4.8810
 2.2430	 4.8770
 2.2440	 4.8520
 2.2450	 4.7810
 2.2460	 4.7620
 2.2470	 4.7600
 2.2480	 4.7490
 2.2490	 4.7650
 2.2500	 4.7700
 2.2510	 4.7510
 2.2520	 4.7510
 2.2530	 4.7670
 2.2540	 4.7780
 2.2550	 4.8080
 2.2560	 4.8070
 2.2570	 4.7810
 2.2580	 4.7720
 2.2590	 4.7550
 2.2600	 4.7320
 2.2610	 4.7230
 2.2620	 4.7120
 2.2630	 4.6500
 2.2640	 4.6080
 2.2650	 4.6280
 2.2660	 4.6290
 2.2670	 4.6240
 2.2680	 4.6400
 2.2690	 4.6410
 2.2700	 4.6040
 2.2710	 4.6060
 2.2720	 4.6420
 2.2730	 4.6610
 2.2740	 4.6800
 2.2750	 4.6920
 2.2760	 4.6990
 2.2770	 4.7040
 2.2780	 4.7080
 2.2790	 4.6990
 2.2800	 4.6870
 2.2810	 4.6660
 2.2820	 4.6160
 2.2830	 4.5940
 2.2840	 4.5890
 2.2850	 4.5740
 2.2860	 4.5640
 2.2870	 4.5510
 2.2880	 4.5170
 2.2890	 4.5100
 2.2900	 4.5340
 2.2910	 4.5480
 2.2920	 4.5930
 2.2930	 4.5930
 2.2940	 4.5620
 2.2950	 4.5250
 2.2960	 4.4350
 2.2970	 4.3870
 2.2980	 4.3440
 2.2990	 4.3350
 2.3000	 4.3550
 2.3010	 4.3880
 2.3020	 4.4200
 2.3030	 4.4290
 2.3040	 4.4150
 2.3050	 4.3980
 2.3060	 4.3950
 2.3070	 4.3840
 2.3080	 4.3750
 2.3090	 4.3640
 2.3100	 4.3220
 2.3110	 4.3130
 2.3120	 4.3110
 2.3130	 4.3290
 2.3140	 4.3270
 2.3150	 4.3250
 2.3160	 4.3170
 2.3170	 4.2990
 2.3180	 4.2890
 2.3190	 4.2810
 2.3200	 4.2910
 2.3210	 4.3020
 2.3220	 4.3280
 2.3230	 4.3910
 2.3240	 4.4070
 2.3250	 4.4110
 2.3260	 4.3970
 2.3270	 4.3370
 2.3280	 4.3220
 2.3290	 4.3270
 2.3300	 4.3210
 2.3310	 4.3170
 2.3320	 4.3320
 2.3330	 4.3650
 2.3340	 4.3620
 2.3350	 4.3720
 2.3360	 4.3570
 2.3370	 4.2700
 2.3380	 4.2350
 2.3390	 4.2270
 2.3400	 4.2120
 2.3410	 4.2220
 2.3420	 4.2120
 2.3430	 4.1790
 2.3440	 4.1710
 2.3450	 4.1540
 2.3460	 4.1560
 2.3470	 4.2060
 2.3480	 4.2170
 2.3490	 4.2160
 2.3500	 4.2150
 2.3510	 4.1960
 2.3520	 4.1740
 2.3530	 4.1430
 2.3540	 4.1180
 2.3550	 4.0840
 2.3560	 4.0350
 2.3570	 4.0280
 2.3580	 4.0130
 2.3590	 4.0180
 2.3600	 4.0510
 2.3610	 4.0610
 2.3620	 4.0650
 2.3630	 4.0380
 2.3640	 4.0200
 2.3650	 4.0290
 2.3660	 4.0220
 2.3670	 4.0330
 2.3680	 4.0130
 2.3690	 3.9990
 2.3700	 4.0050
 2.3710	 4.0100
 2.3720	 4.0680
 2.3730	 4.0940
 2.3740	 4.1240
 2.3750	 4.1510
 2.3760	 4.1250
 2.3770	 4.0920
 2.3780	 4.0550
 2.3790	 4.0410
 2.3800	 4.0410
 2.3810	 4.0800
 2.3820	 4.1090
 2.3830	 4.1330
 2.3840	 4.1540
 2.3850	 4.0800
 2.3860	 4.0280
 2.3870	 3.9680
 2.3880	 3.9200
 2.3890	 3.9740
 2.3900	 3.9870
 2.3910	 3.9860
 2.3920	 4.0460
 2.3930	 4.0510
 2.3940	 4.0580
 2.3950	 4.1180
 2.3960	 4.0930
 2.3970	 4.0350
 2.3980	 3.9890
 2.3990	 3.8850
 2.4000	 3.8050
 2.4010	 3.8230
 2.4020	 3.8350
 2.4030	 3.8780
 2.4040	 3.9290
 2.4050	 3.8810
 2.4060	 3.8350
 2.4070	 3.7980
 2.4080	 3.7490
 2.4090	 3.7450
 2.4100	 3.8330
 2.4110	 3.9010
 2.4120	 3.8870
 2.4130	 3.9000
 2.4140	 3.8590
 2.4150	 3.8380
 2.4160	 3.8940
 2.4170	 3.8980
 2.4180	 3.9070
 2.4190	 3.8980
 2.4200	 3.9000
 2.4210	 3.9360
 2.4220	 3.9250
 2.4230	 3.9250
 2.4240	 3.9300
 2.4250	 3.8870
 2.4260	 3.9090
 2.4270	 3.9870
 2.4280	 3.9540
 2.4290	 3.9130
 2.4300	 3.9260
 2.4310	 3.8860
 2.4320	 3.8450
 2.4330	 3.8000
 2.4340	 3.6460
 2.4350	 3.5190
 2.4360	 3.4900
 2.4370	 3.4830
 2.4380	 3.4960
 2.4390	 3.5280
 2.4400	 3.4960
 2.4410	 3.4950
 2.4420	 3.6220
 2.4430	 3.6630
 2.4440	 3.7080
 2.4450	 3.8240
 2.4460	 3.8900
 2.4470	 3.8490
 2.4480	 3.7460
 2.4490	 3.6350
 2.4500	 3.4930
 2.4510	 3.5750
 2.4520	 3.7780
 2.4530	 3.7970
 2.4540	 3.8040
 2.4550	 3.7470
 2.4560	 3.5740
 2.4570	 3.5640
 2.4580	 3.7060
 2.4590	 3.7580
 2.4600	 3.7810
 2.4610	 3.8270
 2.4620	 3.7430
 2.4630	 3.7670
 2.4640	 3.8670
 2.4650	 3.8820
 2.4660	 3.8600
 2.4670	 3.7750
 2.4680	 3.6540
 2.4690	 3.5300
 2.4700	 3.4990
 2.4710	 3.5470
 2.4720	 3.5280
 2.4730	 3.5170
 2.4740	 3.5880
 2.4750	 3.6500
 2.4760	 3.6450
 2.4770	 3.7090
 2.4780	 3.7000
 2.4790	 3.5070
 2.4800	 3.4450
 2.4810	 3.5130
 2.4820	 3.4310
 2.4830	 3.4500
 2.4840	 3.3750
 2.4850	 3.2510
 2.4860	 3.1750
 2.4870	 3.1090
 2.4880	 3.1870
 2.4890	 3.2850
 2.4900	 3.2790
 2.4910	 3.4590
 2.4920	 3.5280
 2.4930	 3.2630
 2.4940	 3.3250
 2.4950	 3.2870
 2.4960	 3.2510
 2.4970	 3.7100
 2.4980	 3.8470
 2.4990	 3.8640
 2.5000	 3.9000
