Name: Quercus lobata 3
Type: vegetation
Class: Tree
Genus: Quercus
Species: lobata
Sample No.: VH285
Owner: UCSB
Wavelength Range: VSWIR
Origin: 34.7151; -120.0588; WGS84
Collection Date: 11/2/2013
Description: Samples were collected as part of the HyspIRI Airborne Campaign. 48 individual plants were sampled in three times in 2013 - spring  summer  and fall. The name of the sample includes a 1  2  or 3 which references a different individual of the species. Samples were taken to JPL and processed within 48 hours of collection. The same leaves were processed in the Nicolet and then measured using the ASD.
Measurement: Bidirectional reflectance
First Column: X
Second Column: Y
X Units: Wavelength (micrometers)
Y Units: Reflectance (percentage)
First X Value: 0.35
Last X Value: 2.5
Number of X Values: 2151
Additional Information: vegetation.tree.quercus.lobata.vswir.vh285.ucsb.asd.ancillary.txt

 0.3500	 8.9000
 0.3510	 9.1240
 0.3520	 9.0810
 0.3530	 9.0230
 0.3540	 9.1460
 0.3550	 9.0910
 0.3560	 8.9090
 0.3570	 8.8160
 0.3580	 9.0150
 0.3590	 8.8920
 0.3600	 8.8170
 0.3610	 8.9020
 0.3620	 8.7600
 0.3630	 8.7490
 0.3640	 8.7980
 0.3650	 8.7830
 0.3660	 8.8190
 0.3670	 8.8190
 0.3680	 8.7730
 0.3690	 8.7370
 0.3700	 8.8640
 0.3710	 8.9260
 0.3720	 8.8360
 0.3730	 8.8380
 0.3740	 8.9280
 0.3750	 8.9920
 0.3760	 8.9300
 0.3770	 8.9210
 0.3780	 8.9020
 0.3790	 8.8710
 0.3800	 8.8860
 0.3810	 8.9360
 0.3820	 8.9950
 0.3830	 9.0340
 0.3840	 9.0080
 0.3850	 8.9500
 0.3860	 8.9670
 0.3870	 9.1260
 0.3880	 9.1360
 0.3890	 9.1350
 0.3900	 9.1720
 0.3910	 9.1850
 0.3920	 9.2360
 0.3930	 9.2930
 0.3940	 9.3240
 0.3950	 9.3560
 0.3960	 9.3660
 0.3970	 9.3610
 0.3980	 9.3700
 0.3990	 9.4640
 0.4000	 9.5340
 0.4010	 9.5550
 0.4020	 9.6210
 0.4030	 9.6960
 0.4040	 9.7450
 0.4050	 9.7600
 0.4060	 9.8180
 0.4070	 9.8880
 0.4080	 9.9570
 0.4090	10.0230
 0.4100	10.0890
 0.4110	10.1550
 0.4120	10.2200
 0.4130	10.2800
 0.4140	10.3360
 0.4150	10.3920
 0.4160	10.4470
 0.4170	10.4940
 0.4180	10.5340
 0.4190	10.5820
 0.4200	10.6690
 0.4210	10.7100
 0.4220	10.7430
 0.4230	10.8000
 0.4240	10.8400
 0.4250	10.8760
 0.4260	10.9130
 0.4270	10.9560
 0.4280	11.0160
 0.4290	11.0500
 0.4300	11.0550
 0.4310	11.0840
 0.4320	11.0920
 0.4330	11.0960
 0.4340	11.1150
 0.4350	11.1240
 0.4360	11.1400
 0.4370	11.1740
 0.4380	11.2220
 0.4390	11.2570
 0.4400	11.2860
 0.4410	11.3140
 0.4420	11.3430
 0.4430	11.3650
 0.4440	11.3780
 0.4450	11.3890
 0.4460	11.4160
 0.4470	11.4420
 0.4480	11.4580
 0.4490	11.4660
 0.4500	11.4720
 0.4510	11.4850
 0.4520	11.5070
 0.4530	11.5200
 0.4540	11.5250
 0.4550	11.5340
 0.4560	11.5610
 0.4570	11.5660
 0.4580	11.5690
 0.4590	11.5790
 0.4600	11.5800
 0.4610	11.5880
 0.4620	11.6050
 0.4630	11.6260
 0.4640	11.6340
 0.4650	11.6400
 0.4660	11.6440
 0.4670	11.6420
 0.4680	11.6600
 0.4690	11.6720
 0.4700	11.6620
 0.4710	11.6760
 0.4720	11.6930
 0.4730	11.7020
 0.4740	11.6980
 0.4750	11.7020
 0.4760	11.7060
 0.4770	11.7100
 0.4780	11.7270
 0.4790	11.7270
 0.4800	11.7220
 0.4810	11.7290
 0.4820	11.7370
 0.4830	11.7380
 0.4840	11.7370
 0.4850	11.7460
 0.4860	11.7480
 0.4870	11.7510
 0.4880	11.7620
 0.4890	11.7810
 0.4900	11.7970
 0.4910	11.8080
 0.4920	11.8210
 0.4930	11.8380
 0.4940	11.8570
 0.4950	11.8760
 0.4960	11.8990
 0.4970	11.9280
 0.4980	11.9580
 0.4990	11.9890
 0.5000	12.0230
 0.5010	12.0700
 0.5020	12.1270
 0.5030	12.1750
 0.5040	12.2260
 0.5050	12.2890
 0.5060	12.3660
 0.5070	12.4410
 0.5080	12.5300
 0.5090	12.6340
 0.5100	12.7520
 0.5110	12.8750
 0.5120	13.0100
 0.5130	13.1610
 0.5140	13.3230
 0.5150	13.5050
 0.5160	13.7030
 0.5170	13.9140
 0.5180	14.1300
 0.5190	14.3560
 0.5200	14.5940
 0.5210	14.8430
 0.5220	15.0880
 0.5230	15.3270
 0.5240	15.5620
 0.5250	15.7910
 0.5260	16.0130
 0.5270	16.2230
 0.5280	16.4120
 0.5290	16.5990
 0.5300	16.7670
 0.5310	16.9140
 0.5320	17.0530
 0.5330	17.1750
 0.5340	17.2840
 0.5350	17.3840
 0.5360	17.4760
 0.5370	17.5520
 0.5380	17.6140
 0.5390	17.6670
 0.5400	17.7090
 0.5410	17.7430
 0.5420	17.7740
 0.5430	17.8090
 0.5440	17.8450
 0.5450	17.8860
 0.5460	17.9410
 0.5470	18.0180
 0.5480	18.0940
 0.5490	18.1530
 0.5500	18.1930
 0.5510	18.2260
 0.5520	18.2430
 0.5530	18.2360
 0.5540	18.2230
 0.5550	18.1980
 0.5560	18.1550
 0.5570	18.0940
 0.5580	18.0200
 0.5590	17.9340
 0.5600	17.8380
 0.5610	17.7280
 0.5620	17.6070
 0.5630	17.4810
 0.5640	17.3530
 0.5650	17.2140
 0.5660	17.0720
 0.5670	16.9240
 0.5680	16.7530
 0.5690	16.5930
 0.5700	16.4410
 0.5710	16.2860
 0.5720	16.1230
 0.5730	15.9680
 0.5740	15.8320
 0.5750	15.7160
 0.5760	15.6210
 0.5770	15.5320
 0.5780	15.4370
 0.5790	15.3380
 0.5800	15.2470
 0.5810	15.1630
 0.5820	15.0820
 0.5830	15.0090
 0.5840	14.9370
 0.5850	14.8630
 0.5860	14.7890
 0.5870	14.7190
 0.5880	14.6560
 0.5890	14.6060
 0.5900	14.5770
 0.5910	14.5590
 0.5920	14.5480
 0.5930	14.5380
 0.5940	14.5130
 0.5950	14.4820
 0.5960	14.4510
 0.5970	14.4100
 0.5980	14.3690
 0.5990	14.3300
 0.6000	14.2920
 0.6010	14.2640
 0.6020	14.2340
 0.6030	14.1990
 0.6040	14.1600
 0.6050	14.1140
 0.6060	14.0660
 0.6070	14.0180
 0.6080	13.9600
 0.6090	13.8940
 0.6100	13.8110
 0.6110	13.7080
 0.6120	13.6600
 0.6130	13.6340
 0.6140	13.6020
 0.6150	13.5600
 0.6160	13.5190
 0.6170	13.4800
 0.6180	13.4400
 0.6190	13.4070
 0.6200	13.3760
 0.6210	13.3470
 0.6220	13.3250
 0.6230	13.3090
 0.6240	13.2940
 0.6250	13.2800
 0.6260	13.2770
 0.6270	13.2720
 0.6280	13.2660
 0.6290	13.2650
 0.6300	13.2640
 0.6310	13.2610
 0.6320	13.2570
 0.6330	13.2620
 0.6340	13.2490
 0.6350	13.2260
 0.6360	13.2010
 0.6370	13.1650
 0.6380	13.1270
 0.6390	13.0840
 0.6400	13.0290
 0.6410	12.9790
 0.6420	12.9220
 0.6430	12.8600
 0.6440	12.8150
 0.6450	12.7630
 0.6460	12.7100
 0.6470	12.6680
 0.6480	12.6250
 0.6490	12.5940
 0.6500	12.5710
 0.6510	12.5440
 0.6520	12.5230
 0.6530	12.5080
 0.6540	12.4940
 0.6550	12.4760
 0.6560	12.4530
 0.6570	12.4290
 0.6580	12.4100
 0.6590	12.3860
 0.6600	12.3630
 0.6610	12.3420
 0.6620	12.3160
 0.6630	12.2900
 0.6640	12.2690
 0.6650	12.2580
 0.6660	12.2450
 0.6670	12.2350
 0.6680	12.2280
 0.6690	12.2200
 0.6700	12.2190
 0.6710	12.2250
 0.6720	12.2350
 0.6730	12.2420
 0.6740	12.2540
 0.6750	12.2690
 0.6760	12.2840
 0.6770	12.3040
 0.6780	12.3310
 0.6790	12.3610
 0.6800	12.3950
 0.6810	12.4340
 0.6820	12.4730
 0.6830	12.5120
 0.6840	12.5720
 0.6850	12.6290
 0.6860	12.6930
 0.6870	12.7830
 0.6880	12.8890
 0.6890	13.0210
 0.6900	13.1920
 0.6910	13.4180
 0.6920	13.6950
 0.6930	14.0420
 0.6940	14.4770
 0.6950	14.9940
 0.6960	15.5960
 0.6970	16.2880
 0.6980	17.0730
 0.6990	17.9360
 0.7000	18.8690
 0.7010	19.8600
 0.7020	20.8980
 0.7030	21.9620
 0.7040	23.0540
 0.7050	24.1730
 0.7060	25.2880
 0.7070	26.3990
 0.7080	27.5070
 0.7090	28.6180
 0.7100	29.7170
 0.7110	30.8080
 0.7120	31.8890
 0.7130	32.9510
 0.7140	33.9980
 0.7150	35.0250
 0.7160	36.0290
 0.7170	37.0240
 0.7180	37.9950
 0.7190	38.9380
 0.7200	39.8570
 0.7210	40.7410
 0.7220	41.6080
 0.7230	42.4600
 0.7240	43.2820
 0.7250	44.0560
 0.7260	44.8030
 0.7270	45.5310
 0.7280	46.2100
 0.7290	46.8550
 0.7300	47.4730
 0.7310	48.0660
 0.7320	48.6220
 0.7330	49.1580
 0.7340	49.6730
 0.7350	50.1410
 0.7360	50.5730
 0.7370	50.9820
 0.7380	51.3770
 0.7390	51.7540
 0.7400	52.1060
 0.7410	52.4310
 0.7420	52.7290
 0.7430	52.9960
 0.7440	53.2460
 0.7450	53.4810
 0.7460	53.6840
 0.7470	53.8860
 0.7480	54.0850
 0.7490	54.2650
 0.7500	54.3990
 0.7510	54.5450
 0.7520	54.6780
 0.7530	54.7680
 0.7540	54.8840
 0.7550	54.9760
 0.7560	55.0410
 0.7570	55.1160
 0.7580	55.1660
 0.7590	55.2180
 0.7600	55.2820
 0.7610	55.3220
 0.7620	55.3610
 0.7630	55.3970
 0.7640	55.4270
 0.7650	55.4520
 0.7660	55.4680
 0.7670	55.4760
 0.7680	55.4870
 0.7690	55.4930
 0.7700	55.4970
 0.7710	55.5060
 0.7720	55.5200
 0.7730	55.5180
 0.7740	55.5160
 0.7750	55.5280
 0.7760	55.5070
 0.7770	55.5140
 0.7780	55.5310
 0.7790	55.5150
 0.7800	55.5170
 0.7810	55.5100
 0.7820	55.5020
 0.7830	55.5350
 0.7840	55.5310
 0.7850	55.5120
 0.7860	55.5060
 0.7870	55.5130
 0.7880	55.5280
 0.7890	55.5260
 0.7900	55.4930
 0.7910	55.5020
 0.7920	55.5100
 0.7930	55.5070
 0.7940	55.5070
 0.7950	55.5050
 0.7960	55.5070
 0.7970	55.5150
 0.7980	55.5340
 0.7990	55.5380
 0.8000	55.5240
 0.8010	55.5050
 0.8020	55.5180
 0.8030	55.5450
 0.8040	55.5630
 0.8050	55.5590
 0.8060	55.5610
 0.8070	55.5570
 0.8080	55.5530
 0.8090	55.5680
 0.8100	55.5640
 0.8110	55.5610
 0.8120	55.5770
 0.8130	55.6030
 0.8140	55.6110
 0.8150	55.6090
 0.8160	55.6160
 0.8170	55.6400
 0.8180	55.6600
 0.8190	55.6680
 0.8200	55.6660
 0.8210	55.6690
 0.8220	55.6790
 0.8230	55.6910
 0.8240	55.6960
 0.8250	55.7220
 0.8260	55.7440
 0.8270	55.7500
 0.8280	55.7550
 0.8290	55.7620
 0.8300	55.7670
 0.8310	55.7730
 0.8320	55.7910
 0.8330	55.8030
 0.8340	55.8100
 0.8350	55.8170
 0.8360	55.8190
 0.8370	55.8330
 0.8380	55.8600
 0.8390	55.8870
 0.8400	55.8930
 0.8410	55.8920
 0.8420	55.9020
 0.8430	55.9310
 0.8440	55.9450
 0.8450	55.9470
 0.8460	55.9520
 0.8470	55.9860
 0.8480	56.0080
 0.8490	56.0080
 0.8500	55.9950
 0.8510	56.0060
 0.8520	56.0210
 0.8530	56.0320
 0.8540	56.0390
 0.8550	56.0380
 0.8560	56.0520
 0.8570	56.0770
 0.8580	56.0830
 0.8590	56.0790
 0.8600	56.0740
 0.8610	56.0720
 0.8620	56.0750
 0.8630	56.0970
 0.8640	56.1140
 0.8650	56.1070
 0.8660	56.1140
 0.8670	56.1180
 0.8680	56.1240
 0.8690	56.1380
 0.8700	56.1200
 0.8710	56.1040
 0.8720	56.1060
 0.8730	56.1250
 0.8740	56.1200
 0.8750	56.1230
 0.8760	56.1330
 0.8770	56.1200
 0.8780	56.1160
 0.8790	56.1150
 0.8800	56.1120
 0.8810	56.1120
 0.8820	56.1120
 0.8830	56.1120
 0.8840	56.1110
 0.8850	56.1030
 0.8860	56.0930
 0.8870	56.0790
 0.8880	56.0620
 0.8890	56.0690
 0.8900	56.0540
 0.8910	56.0300
 0.8920	56.0320
 0.8930	56.0620
 0.8940	56.0700
 0.8950	56.0530
 0.8960	56.0340
 0.8970	56.0180
 0.8980	56.0030
 0.8990	55.9910
 0.9000	55.9860
 0.9010	55.9770
 0.9020	55.9670
 0.9030	55.9650
 0.9040	55.9760
 0.9050	55.9590
 0.9060	55.9230
 0.9070	55.8960
 0.9080	55.9130
 0.9090	55.9290
 0.9100	55.9210
 0.9110	55.8890
 0.9120	55.8850
 0.9130	55.8740
 0.9140	55.8590
 0.9150	55.8510
 0.9160	55.8630
 0.9170	55.8390
 0.9180	55.8020
 0.9190	55.7980
 0.9200	55.8020
 0.9210	55.7940
 0.9220	55.7800
 0.9230	55.7780
 0.9240	55.7890
 0.9250	55.7740
 0.9260	55.7440
 0.9270	55.7400
 0.9280	55.6980
 0.9290	55.6620
 0.9300	55.6500
 0.9310	55.6460
 0.9320	55.6480
 0.9330	55.6400
 0.9340	55.6140
 0.9350	55.5770
 0.9360	55.5340
 0.9370	55.5070
 0.9380	55.4970
 0.9390	55.4820
 0.9400	55.4620
 0.9410	55.4510
 0.9420	55.4460
 0.9430	55.4100
 0.9440	55.4060
 0.9450	55.3960
 0.9460	55.3510
 0.9470	55.3160
 0.9480	55.2690
 0.9490	55.2340
 0.9500	55.2240
 0.9510	55.2040
 0.9520	55.1520
 0.9530	55.0840
 0.9540	55.0230
 0.9550	54.9790
 0.9560	54.9610
 0.9570	54.9470
 0.9580	54.9070
 0.9590	54.8260
 0.9600	54.7770
 0.9610	54.7560
 0.9620	54.7300
 0.9630	54.6910
 0.9640	54.6550
 0.9650	54.6330
 0.9660	54.6270
 0.9670	54.6280
 0.9680	54.6290
 0.9690	54.6250
 0.9700	54.6160
 0.9710	54.6310
 0.9720	54.6060
 0.9730	54.5670
 0.9740	54.5740
 0.9750	54.5910
 0.9760	54.6130
 0.9770	54.6340
 0.9780	54.6510
 0.9790	54.6350
 0.9800	54.6070
 0.9810	54.6020
 0.9820	54.6370
 0.9830	54.6280
 0.9840	54.6490
 0.9850	54.6750
 0.9860	54.6550
 0.9870	54.6800
 0.9880	54.7100
 0.9890	54.7210
 0.9900	54.7090
 0.9910	54.7220
 0.9920	54.7460
 0.9930	54.7660
 0.9940	54.7800
 0.9950	54.8140
 0.9960	54.8190
 0.9970	54.8230
 0.9980	54.8590
 0.9990	54.8450
 1.0000	54.8250
 1.0010	54.7450
 1.0020	54.7220
 1.0030	54.7430
 1.0040	54.7710
 1.0050	54.8010
 1.0060	54.8250
 1.0070	54.8460
 1.0080	54.8660
 1.0090	54.8770
 1.0100	54.8940
 1.0110	54.9120
 1.0120	54.9320
 1.0130	54.9530
 1.0140	54.9720
 1.0150	54.9900
 1.0160	55.0100
 1.0170	55.0340
 1.0180	55.0550
 1.0190	55.0710
 1.0200	55.0900
 1.0210	55.1040
 1.0220	55.1130
 1.0230	55.1310
 1.0240	55.1580
 1.0250	55.1760
 1.0260	55.1930
 1.0270	55.2090
 1.0280	55.2190
 1.0290	55.2330
 1.0300	55.2500
 1.0310	55.2630
 1.0320	55.2720
 1.0330	55.2830
 1.0340	55.2900
 1.0350	55.2980
 1.0360	55.3100
 1.0370	55.3210
 1.0380	55.3340
 1.0390	55.3490
 1.0400	55.3600
 1.0410	55.3690
 1.0420	55.3790
 1.0430	55.3850
 1.0440	55.3930
 1.0450	55.4040
 1.0460	55.4140
 1.0470	55.4300
 1.0480	55.4380
 1.0490	55.4400
 1.0500	55.4470
 1.0510	55.4470
 1.0520	55.4530
 1.0530	55.4610
 1.0540	55.4750
 1.0550	55.4840
 1.0560	55.4940
 1.0570	55.4980
 1.0580	55.4950
 1.0590	55.5000
 1.0600	55.5030
 1.0610	55.5080
 1.0620	55.5160
 1.0630	55.5240
 1.0640	55.5340
 1.0650	55.5390
 1.0660	55.5460
 1.0670	55.5490
 1.0680	55.5500
 1.0690	55.5430
 1.0700	55.5420
 1.0710	55.5430
 1.0720	55.5430
 1.0730	55.5450
 1.0740	55.5440
 1.0750	55.5420
 1.0760	55.5390
 1.0770	55.5310
 1.0780	55.5270
 1.0790	55.5220
 1.0800	55.5190
 1.0810	55.5190
 1.0820	55.5170
 1.0830	55.5160
 1.0840	55.5110
 1.0850	55.5040
 1.0860	55.4970
 1.0870	55.4880
 1.0880	55.4760
 1.0890	55.4650
 1.0900	55.4530
 1.0910	55.4410
 1.0920	55.4280
 1.0930	55.4150
 1.0940	55.4010
 1.0950	55.3880
 1.0960	55.3780
 1.0970	55.3630
 1.0980	55.3450
 1.0990	55.3290
 1.1000	55.3100
 1.1010	55.2960
 1.1020	55.2890
 1.1030	55.2800
 1.1040	55.2700
 1.1050	55.2570
 1.1060	55.2410
 1.1070	55.2180
 1.1080	55.2010
 1.1090	55.1860
 1.1100	55.1690
 1.1110	55.1520
 1.1120	55.1350
 1.1130	55.1180
 1.1140	55.0980
 1.1150	55.0800
 1.1160	55.0580
 1.1170	55.0330
 1.1180	55.0050
 1.1190	54.9750
 1.1200	54.9440
 1.1210	54.9140
 1.1220	54.8810
 1.1230	54.8490
 1.1240	54.8170
 1.1250	54.7800
 1.1260	54.7400
 1.1270	54.6950
 1.1280	54.6450
 1.1290	54.5920
 1.1300	54.5360
 1.1310	54.4720
 1.1320	54.4030
 1.1330	54.3300
 1.1340	54.2490
 1.1350	54.1670
 1.1360	54.0830
 1.1370	53.9940
 1.1380	53.9030
 1.1390	53.8070
 1.1400	53.7040
 1.1410	53.5980
 1.1420	53.4880
 1.1430	53.3740
 1.1440	53.2620
 1.1450	53.1490
 1.1460	53.0380
 1.1470	52.9250
 1.1480	52.8200
 1.1490	52.7170
 1.1500	52.6210
 1.1510	52.5290
 1.1520	52.4430
 1.1530	52.3610
 1.1540	52.2860
 1.1550	52.2160
 1.1560	52.1540
 1.1570	52.0980
 1.1580	52.0450
 1.1590	52.0020
 1.1600	51.9640
 1.1610	51.9320
 1.1620	51.9100
 1.1630	51.8900
 1.1640	51.8690
 1.1650	51.8550
 1.1660	51.8480
 1.1670	51.8370
 1.1680	51.8260
 1.1690	51.8180
 1.1700	51.8100
 1.1710	51.8030
 1.1720	51.8020
 1.1730	51.7980
 1.1740	51.7940
 1.1750	51.7880
 1.1760	51.7800
 1.1770	51.7730
 1.1780	51.7650
 1.1790	51.7560
 1.1800	51.7480
 1.1810	51.7410
 1.1820	51.7300
 1.1830	51.7200
 1.1840	51.7110
 1.1850	51.7030
 1.1860	51.6940
 1.1870	51.6850
 1.1880	51.6780
 1.1890	51.6710
 1.1900	51.6660
 1.1910	51.6620
 1.1920	51.6600
 1.1930	51.6620
 1.1940	51.6620
 1.1950	51.6630
 1.1960	51.6650
 1.1970	51.6650
 1.1980	51.6680
 1.1990	51.6750
 1.2000	51.6800
 1.2010	51.6870
 1.2020	51.6960
 1.2030	51.7040
 1.2040	51.7130
 1.2050	51.7280
 1.2060	51.7400
 1.2070	51.7520
 1.2080	51.7660
 1.2090	51.7780
 1.2100	51.7920
 1.2110	51.8090
 1.2120	51.8280
 1.2130	51.8460
 1.2140	51.8640
 1.2150	51.8830
 1.2160	51.9020
 1.2170	51.9220
 1.2180	51.9430
 1.2190	51.9650
 1.2200	51.9880
 1.2210	52.0110
 1.2220	52.0330
 1.2230	52.0560
 1.2240	52.0800
 1.2250	52.1030
 1.2260	52.1250
 1.2270	52.1470
 1.2280	52.1720
 1.2290	52.1930
 1.2300	52.2110
 1.2310	52.2290
 1.2320	52.2450
 1.2330	52.2620
 1.2340	52.2800
 1.2350	52.3010
 1.2360	52.3210
 1.2370	52.3400
 1.2380	52.3600
 1.2390	52.3800
 1.2400	52.3990
 1.2410	52.4170
 1.2420	52.4310
 1.2430	52.4420
 1.2440	52.4570
 1.2450	52.4710
 1.2460	52.4850
 1.2470	52.5010
 1.2480	52.5150
 1.2490	52.5270
 1.2500	52.5400
 1.2510	52.5510
 1.2520	52.5590
 1.2530	52.5670
 1.2540	52.5750
 1.2550	52.5810
 1.2560	52.5910
 1.2570	52.5990
 1.2580	52.6030
 1.2590	52.6090
 1.2600	52.6150
 1.2610	52.6210
 1.2620	52.6270
 1.2630	52.6340
 1.2640	52.6400
 1.2650	52.6430
 1.2660	52.6460
 1.2670	52.6500
 1.2680	52.6490
 1.2690	52.6460
 1.2700	52.6430
 1.2710	52.6340
 1.2720	52.6250
 1.2730	52.6190
 1.2740	52.6100
 1.2750	52.6020
 1.2760	52.5960
 1.2770	52.5910
 1.2780	52.5820
 1.2790	52.5710
 1.2800	52.5600
 1.2810	52.5420
 1.2820	52.5260
 1.2830	52.5130
 1.2840	52.4960
 1.2850	52.4820
 1.2860	52.4720
 1.2870	52.4580
 1.2880	52.4420
 1.2890	52.4270
 1.2900	52.4090
 1.2910	52.3870
 1.2920	52.3660
 1.2930	52.3440
 1.2940	52.3220
 1.2950	52.3000
 1.2960	52.2750
 1.2970	52.2490
 1.2980	52.2190
 1.2990	52.1880
 1.3000	52.1550
 1.3010	52.1190
 1.3020	52.0790
 1.3030	52.0380
 1.3040	51.9940
 1.3050	51.9480
 1.3060	51.8980
 1.3070	51.8460
 1.3080	51.7930
 1.3090	51.7350
 1.3100	51.6790
 1.3110	51.6170
 1.3120	51.5480
 1.3130	51.4810
 1.3140	51.4080
 1.3150	51.3310
 1.3160	51.2530
 1.3170	51.1740
 1.3180	51.0900
 1.3190	51.0070
 1.3200	50.9220
 1.3210	50.8310
 1.3220	50.7360
 1.3230	50.6360
 1.3240	50.5320
 1.3250	50.4280
 1.3260	50.3240
 1.3270	50.2150
 1.3280	50.1030
 1.3290	49.9900
 1.3300	49.8760
 1.3310	49.7570
 1.3320	49.6380
 1.3330	49.5200
 1.3340	49.3960
 1.3350	49.2700
 1.3360	49.1450
 1.3370	49.0170
 1.3380	48.8900
 1.3390	48.7630
 1.3400	48.6370
 1.3410	48.5120
 1.3420	48.3890
 1.3430	48.2650
 1.3440	48.1430
 1.3450	48.0220
 1.3460	47.8990
 1.3470	47.7790
 1.3480	47.6610
 1.3490	47.5460
 1.3500	47.4310
 1.3510	47.3200
 1.3520	47.2100
 1.3530	47.0970
 1.3540	46.9830
 1.3550	46.8700
 1.3560	46.7570
 1.3570	46.6460
 1.3580	46.5320
 1.3590	46.4120
 1.3600	46.2910
 1.3610	46.1640
 1.3620	46.0290
 1.3630	45.8920
 1.3640	45.7460
 1.3650	45.5900
 1.3660	45.4310
 1.3670	45.2620
 1.3680	45.0820
 1.3690	44.8960
 1.3700	44.6970
 1.3710	44.4860
 1.3720	44.2620
 1.3730	44.0260
 1.3740	43.7780
 1.3750	43.5160
 1.3760	43.2360
 1.3770	42.9360
 1.3780	42.6110
 1.3790	42.2630
 1.3800	41.8940
 1.3810	41.5020
 1.3820	41.0890
 1.3830	40.6570
 1.3840	40.2030
 1.3850	39.7250
 1.3860	39.2310
 1.3870	38.7130
 1.3880	38.1870
 1.3890	37.6470
 1.3900	37.0920
 1.3910	36.5320
 1.3920	35.9640
 1.3930	35.3890
 1.3940	34.8130
 1.3950	34.2330
 1.3960	33.6550
 1.3970	33.0830
 1.3980	32.5200
 1.3990	31.9720
 1.4000	31.4370
 1.4010	30.9150
 1.4020	30.4090
 1.4030	29.9160
 1.4040	29.4440
 1.4050	28.9950
 1.4060	28.5660
 1.4070	28.1630
 1.4080	27.7810
 1.4090	27.4200
 1.4100	27.0830
 1.4110	26.7670
 1.4120	26.4740
 1.4130	26.2030
 1.4140	25.9510
 1.4150	25.7230
 1.4160	25.5130
 1.4170	25.3220
 1.4180	25.1470
 1.4190	24.9860
 1.4200	24.8380
 1.4210	24.7030
 1.4220	24.5820
 1.4230	24.4770
 1.4240	24.3830
 1.4250	24.2980
 1.4260	24.2250
 1.4270	24.1590
 1.4280	24.1000
 1.4290	24.0500
 1.4300	24.0090
 1.4310	23.9740
 1.4320	23.9480
 1.4330	23.9270
 1.4340	23.9110
 1.4350	23.9000
 1.4360	23.8940
 1.4370	23.8930
 1.4380	23.8940
 1.4390	23.8990
 1.4400	23.9090
 1.4410	23.9220
 1.4420	23.9360
 1.4430	23.9550
 1.4440	23.9750
 1.4450	23.9930
 1.4460	24.0160
 1.4470	24.0410
 1.4480	24.0640
 1.4490	24.0870
 1.4500	24.1120
 1.4510	24.1370
 1.4520	24.1640
 1.4530	24.1950
 1.4540	24.2270
 1.4550	24.2590
 1.4560	24.2930
 1.4570	24.3290
 1.4580	24.3690
 1.4590	24.4130
 1.4600	24.4610
 1.4610	24.5130
 1.4620	24.5690
 1.4630	24.6310
 1.4640	24.6970
 1.4650	24.7700
 1.4660	24.8470
 1.4670	24.9270
 1.4680	25.0160
 1.4690	25.1090
 1.4700	25.2050
 1.4710	25.3080
 1.4720	25.4130
 1.4730	25.5210
 1.4740	25.6360
 1.4750	25.7530
 1.4760	25.8770
 1.4770	26.0020
 1.4780	26.1270
 1.4790	26.2550
 1.4800	26.3830
 1.4810	26.5120
 1.4820	26.6460
 1.4830	26.7790
 1.4840	26.9130
 1.4850	27.0490
 1.4860	27.1830
 1.4870	27.3180
 1.4880	27.4530
 1.4890	27.5870
 1.4900	27.7230
 1.4910	27.8610
 1.4920	27.9990
 1.4930	28.1380
 1.4940	28.2750
 1.4950	28.4130
 1.4960	28.5480
 1.4970	28.6810
 1.4980	28.8160
 1.4990	28.9500
 1.5000	29.0850
 1.5010	29.2200
 1.5020	29.3540
 1.5030	29.4880
 1.5040	29.6200
 1.5050	29.7510
 1.5060	29.8810
 1.5070	30.0100
 1.5080	30.1410
 1.5090	30.2720
 1.5100	30.4040
 1.5110	30.5330
 1.5120	30.6590
 1.5130	30.7830
 1.5140	30.9050
 1.5150	31.0270
 1.5160	31.1520
 1.5170	31.2760
 1.5180	31.3950
 1.5190	31.5140
 1.5200	31.6310
 1.5210	31.7430
 1.5220	31.8570
 1.5230	31.9710
 1.5240	32.0810
 1.5250	32.1910
 1.5260	32.2990
 1.5270	32.4060
 1.5280	32.5140
 1.5290	32.6180
 1.5300	32.7250
 1.5310	32.8300
 1.5320	32.9320
 1.5330	33.0370
 1.5340	33.1410
 1.5350	33.2420
 1.5360	33.3430
 1.5370	33.4410
 1.5380	33.5370
 1.5390	33.6320
 1.5400	33.7260
 1.5410	33.8210
 1.5420	33.9110
 1.5430	34.0000
 1.5440	34.0900
 1.5450	34.1740
 1.5460	34.2600
 1.5470	34.3490
 1.5480	34.4330
 1.5490	34.5220
 1.5500	34.6100
 1.5510	34.6910
 1.5520	34.7730
 1.5530	34.8550
 1.5540	34.9340
 1.5550	35.0140
 1.5560	35.0940
 1.5570	35.1700
 1.5580	35.2440
 1.5590	35.3210
 1.5600	35.3980
 1.5610	35.4730
 1.5620	35.5480
 1.5630	35.6230
 1.5640	35.6960
 1.5650	35.7700
 1.5660	35.8430
 1.5670	35.9130
 1.5680	35.9820
 1.5690	36.0520
 1.5700	36.1210
 1.5710	36.1900
 1.5720	36.2570
 1.5730	36.3210
 1.5740	36.3850
 1.5750	36.4450
 1.5760	36.5060
 1.5770	36.5670
 1.5780	36.6270
 1.5790	36.6880
 1.5800	36.7490
 1.5810	36.8100
 1.5820	36.8730
 1.5830	36.9370
 1.5840	37.0000
 1.5850	37.0610
 1.5860	37.1220
 1.5870	37.1800
 1.5880	37.2380
 1.5890	37.2960
 1.5900	37.3530
 1.5910	37.4090
 1.5920	37.4670
 1.5930	37.5220
 1.5940	37.5760
 1.5950	37.6300
 1.5960	37.6830
 1.5970	37.7380
 1.5980	37.7900
 1.5990	37.8410
 1.6000	37.8940
 1.6010	37.9470
 1.6020	37.9990
 1.6030	38.0530
 1.6040	38.1020
 1.6050	38.1480
 1.6060	38.1950
 1.6070	38.2420
 1.6080	38.2890
 1.6090	38.3380
 1.6100	38.3890
 1.6110	38.4380
 1.6120	38.4860
 1.6130	38.5330
 1.6140	38.5760
 1.6150	38.6180
 1.6160	38.6600
 1.6170	38.7020
 1.6180	38.7450
 1.6190	38.7880
 1.6200	38.8280
 1.6210	38.8640
 1.6220	38.8990
 1.6230	38.9310
 1.6240	38.9640
 1.6250	39.0000
 1.6260	39.0350
 1.6270	39.0700
 1.6280	39.1060
 1.6290	39.1390
 1.6300	39.1730
 1.6310	39.2030
 1.6320	39.2270
 1.6330	39.2530
 1.6340	39.2790
 1.6350	39.3030
 1.6360	39.3270
 1.6370	39.3480
 1.6380	39.3650
 1.6390	39.3810
 1.6400	39.3920
 1.6410	39.4080
 1.6420	39.4250
 1.6430	39.4400
 1.6440	39.4590
 1.6450	39.4660
 1.6460	39.4700
 1.6470	39.4730
 1.6480	39.4740
 1.6490	39.4780
 1.6500	39.4790
 1.6510	39.4760
 1.6520	39.4730
 1.6530	39.4630
 1.6540	39.4520
 1.6550	39.4430
 1.6560	39.4300
 1.6570	39.4200
 1.6580	39.4110
 1.6590	39.4000
 1.6600	39.3930
 1.6610	39.3850
 1.6620	39.3780
 1.6630	39.3750
 1.6640	39.3670
 1.6650	39.3590
 1.6660	39.3540
 1.6670	39.3490
 1.6680	39.3470
 1.6690	39.3490
 1.6700	39.3490
 1.6710	39.3460
 1.6720	39.3410
 1.6730	39.3320
 1.6740	39.3220
 1.6750	39.3120
 1.6760	39.3010
 1.6770	39.2910
 1.6780	39.2770
 1.6790	39.2570
 1.6800	39.2350
 1.6810	39.2080
 1.6820	39.1770
 1.6830	39.1410
 1.6840	39.1020
 1.6850	39.0630
 1.6860	39.0220
 1.6870	38.9840
 1.6880	38.9470
 1.6890	38.9040
 1.6900	38.8600
 1.6910	38.8110
 1.6920	38.7660
 1.6930	38.7220
 1.6940	38.6790
 1.6950	38.6410
 1.6960	38.5980
 1.6970	38.5530
 1.6980	38.5080
 1.6990	38.4590
 1.7000	38.4120
 1.7010	38.3650
 1.7020	38.3180
 1.7030	38.2740
 1.7040	38.2260
 1.7050	38.1770
 1.7060	38.1260
 1.7070	38.0710
 1.7080	38.0170
 1.7090	37.9610
 1.7100	37.9080
 1.7110	37.8570
 1.7120	37.8040
 1.7130	37.7560
 1.7140	37.7030
 1.7150	37.6530
 1.7160	37.6060
 1.7170	37.5600
 1.7180	37.5190
 1.7190	37.4770
 1.7200	37.4330
 1.7210	37.3900
 1.7220	37.3440
 1.7230	37.3010
 1.7240	37.2580
 1.7250	37.2130
 1.7260	37.1710
 1.7270	37.1310
 1.7280	37.0930
 1.7290	37.0610
 1.7300	37.0290
 1.7310	36.9970
 1.7320	36.9670
 1.7330	36.9370
 1.7340	36.9100
 1.7350	36.8790
 1.7360	36.8470
 1.7370	36.8110
 1.7380	36.7690
 1.7390	36.7260
 1.7400	36.6770
 1.7410	36.6300
 1.7420	36.5800
 1.7430	36.5300
 1.7440	36.4810
 1.7450	36.4280
 1.7460	36.3690
 1.7470	36.3140
 1.7480	36.2570
 1.7490	36.2010
 1.7500	36.1470
 1.7510	36.0920
 1.7520	36.0380
 1.7530	35.9800
 1.7540	35.9200
 1.7550	35.8600
 1.7560	35.8010
 1.7570	35.7510
 1.7580	35.7000
 1.7590	35.6480
 1.7600	35.5990
 1.7610	35.5440
 1.7620	35.4930
 1.7630	35.4470
 1.7640	35.3990
 1.7650	35.3540
 1.7660	35.3080
 1.7670	35.2580
 1.7680	35.2130
 1.7690	35.1710
 1.7700	35.1300
 1.7710	35.0920
 1.7720	35.0540
 1.7730	35.0150
 1.7740	34.9800
 1.7750	34.9460
 1.7760	34.9160
 1.7770	34.8900
 1.7780	34.8630
 1.7790	34.8390
 1.7800	34.8130
 1.7810	34.7840
 1.7820	34.7610
 1.7830	34.7410
 1.7840	34.7200
 1.7850	34.7000
 1.7860	34.6830
 1.7870	34.6660
 1.7880	34.6540
 1.7890	34.6440
 1.7900	34.6310
 1.7910	34.6190
 1.7920	34.6060
 1.7930	34.5940
 1.7940	34.5820
 1.7950	34.5730
 1.7960	34.5660
 1.7970	34.5630
 1.7980	34.5640
 1.7990	34.5640
 1.8000	34.5680
 1.8010	34.5700
 1.8020	34.5740
 1.8030	34.5760
 1.8040	34.5750
 1.8050	34.5760
 1.8060	34.5740
 1.8070	34.5770
 1.8080	34.5850
 1.8090	34.5880
 1.8100	34.5920
 1.8110	34.5910
 1.8120	34.5910
 1.8130	34.5960
 1.8140	34.5960
 1.8150	34.6020
 1.8160	34.6070
 1.8170	34.6060
 1.8180	34.6080
 1.8190	34.6090
 1.8200	34.6090
 1.8210	34.6110
 1.8220	34.6070
 1.8230	34.5980
 1.8240	34.5890
 1.8250	34.5770
 1.8260	34.5660
 1.8270	34.5530
 1.8280	34.5440
 1.8290	34.5380
 1.8300	34.6580
 1.8310	34.9190
 1.8320	35.0250
 1.8330	34.9970
 1.8340	34.9580
 1.8350	34.9190
 1.8360	34.8800
 1.8370	34.8450
 1.8380	34.8090
 1.8390	34.7600
 1.8400	34.7060
 1.8410	34.6450
 1.8420	34.5730
 1.8430	34.4940
 1.8440	34.4140
 1.8450	34.3290
 1.8460	34.2340
 1.8470	34.1300
 1.8480	34.0160
 1.8490	33.8930
 1.8500	33.7590
 1.8510	33.6140
 1.8520	33.4590
 1.8530	33.2930
 1.8540	33.1160
 1.8550	32.9260
 1.8560	32.7240
 1.8570	32.5030
 1.8580	32.2640
 1.8590	32.0120
 1.8600	31.7460
 1.8610	31.4600
 1.8620	31.1600
 1.8630	30.8480
 1.8640	30.5170
 1.8650	30.1700
 1.8660	29.8050
 1.8670	29.4180
 1.8680	29.0100
 1.8690	28.5780
 1.8700	28.1270
 1.8710	27.6550
 1.8720	27.1720
 1.8730	26.6710
 1.8740	26.1580
 1.8750	25.6320
 1.8760	25.0870
 1.8770	24.5400
 1.8780	23.9930
 1.8790	23.4410
 1.8800	22.8940
 1.8810	22.3510
 1.8820	21.8050
 1.8830	21.2560
 1.8840	20.7190
 1.8850	20.1880
 1.8860	19.6680
 1.8870	19.1660
 1.8880	18.6750
 1.8890	18.2050
 1.8900	17.7550
 1.8910	17.3270
 1.8920	16.9170
 1.8930	16.5360
 1.8940	16.1790
 1.8950	15.8490
 1.8960	15.5440
 1.8970	15.2610
 1.8980	15.0000
 1.8990	14.7590
 1.9000	14.5400
 1.9010	14.3460
 1.9020	14.1660
 1.9030	14.0060
 1.9040	13.8630
 1.9050	13.7340
 1.9060	13.6210
 1.9070	13.5230
 1.9080	13.4350
 1.9090	13.3610
 1.9100	13.2980
 1.9110	13.2410
 1.9120	13.1990
 1.9130	13.1590
 1.9140	13.1250
 1.9150	13.0960
 1.9160	13.0690
 1.9170	13.0400
 1.9180	13.0230
 1.9190	13.0110
 1.9200	13.0000
 1.9210	12.9970
 1.9220	12.9940
 1.9230	12.9910
 1.9240	12.9910
 1.9250	12.9960
 1.9260	13.0020
 1.9270	13.0090
 1.9280	13.0170
 1.9290	13.0300
 1.9300	13.0450
 1.9310	13.0620
 1.9320	13.0800
 1.9330	13.1010
 1.9340	13.1230
 1.9350	13.1470
 1.9360	13.1720
 1.9370	13.1980
 1.9380	13.2230
 1.9390	13.2530
 1.9400	13.2840
 1.9410	13.3210
 1.9420	13.3600
 1.9430	13.3960
 1.9440	13.4320
 1.9450	13.4690
 1.9460	13.5050
 1.9470	13.5420
 1.9480	13.5800
 1.9490	13.6170
 1.9500	13.6610
 1.9510	13.7060
 1.9520	13.7490
 1.9530	13.7950
 1.9540	13.8420
 1.9550	13.8910
 1.9560	13.9440
 1.9570	13.9950
 1.9580	14.0460
 1.9590	14.0980
 1.9600	14.1480
 1.9610	14.2010
 1.9620	14.2570
 1.9630	14.3130
 1.9640	14.3710
 1.9650	14.4290
 1.9660	14.4880
 1.9670	14.5480
 1.9680	14.6090
 1.9690	14.6720
 1.9700	14.7340
 1.9710	14.7920
 1.9720	14.8560
 1.9730	14.9240
 1.9740	14.9870
 1.9750	15.0550
 1.9760	15.1260
 1.9770	15.1930
 1.9780	15.2630
 1.9790	15.3350
 1.9800	15.4080
 1.9810	15.4830
 1.9820	15.5590
 1.9830	15.6370
 1.9840	15.7190
 1.9850	15.7970
 1.9860	15.8770
 1.9870	15.9540
 1.9880	16.0300
 1.9890	16.1050
 1.9900	16.1830
 1.9910	16.2650
 1.9920	16.3460
 1.9930	16.4290
 1.9940	16.5100
 1.9950	16.5910
 1.9960	16.6730
 1.9970	16.7570
 1.9980	16.8380
 1.9990	16.9180
 2.0000	16.9990
 2.0010	17.0790
 2.0020	17.1600
 2.0030	17.2400
 2.0040	17.3210
 2.0050	17.4000
 2.0060	17.4760
 2.0070	17.5560
 2.0080	17.6400
 2.0090	17.7190
 2.0100	17.7990
 2.0110	17.8770
 2.0120	17.9500
 2.0130	18.0230
 2.0140	18.0970
 2.0150	18.1690
 2.0160	18.2440
 2.0170	18.3180
 2.0180	18.3890
 2.0190	18.4590
 2.0200	18.5270
 2.0210	18.5880
 2.0220	18.6540
 2.0230	18.7230
 2.0240	18.7880
 2.0250	18.8540
 2.0260	18.9180
 2.0270	18.9810
 2.0280	19.0410
 2.0290	19.1040
 2.0300	19.1660
 2.0310	19.2270
 2.0320	19.2910
 2.0330	19.3480
 2.0340	19.4020
 2.0350	19.4530
 2.0360	19.4970
 2.0370	19.5430
 2.0380	19.5860
 2.0390	19.6310
 2.0400	19.6780
 2.0410	19.7230
 2.0420	19.7670
 2.0430	19.8120
 2.0440	19.8540
 2.0450	19.8940
 2.0460	19.9340
 2.0470	19.9710
 2.0480	20.0130
 2.0490	20.0560
 2.0500	20.1000
 2.0510	20.1500
 2.0520	20.1930
 2.0530	20.2300
 2.0540	20.2690
 2.0550	20.3040
 2.0560	20.3420
 2.0570	20.3790
 2.0580	20.4160
 2.0590	20.4520
 2.0600	20.4870
 2.0610	20.5230
 2.0620	20.5590
 2.0630	20.5960
 2.0640	20.6350
 2.0650	20.6720
 2.0660	20.7100
 2.0670	20.7480
 2.0680	20.7850
 2.0690	20.8210
 2.0700	20.8560
 2.0710	20.8920
 2.0720	20.9300
 2.0730	20.9640
 2.0740	21.0010
 2.0750	21.0410
 2.0760	21.0790
 2.0770	21.1150
 2.0780	21.1520
 2.0790	21.1870
 2.0800	21.2240
 2.0810	21.2630
 2.0820	21.3000
 2.0830	21.3370
 2.0840	21.3730
 2.0850	21.4050
 2.0860	21.4380
 2.0870	21.4740
 2.0880	21.5070
 2.0890	21.5380
 2.0900	21.5690
 2.0910	21.6000
 2.0920	21.6270
 2.0930	21.6610
 2.0940	21.7000
 2.0950	21.7340
 2.0960	21.7680
 2.0970	21.7990
 2.0980	21.8250
 2.0990	21.8560
 2.1000	21.8900
 2.1010	21.9210
 2.1020	21.9510
 2.1030	21.9840
 2.1040	22.0150
 2.1050	22.0480
 2.1060	22.0840
 2.1070	22.1250
 2.1080	22.1610
 2.1090	22.1990
 2.1100	22.2320
 2.1110	22.2590
 2.1120	22.2900
 2.1130	22.3180
 2.1140	22.3490
 2.1150	22.3840
 2.1160	22.4160
 2.1170	22.4500
 2.1180	22.4800
 2.1190	22.5070
 2.1200	22.5340
 2.1210	22.5590
 2.1220	22.5860
 2.1230	22.6120
 2.1240	22.6380
 2.1250	22.6650
 2.1260	22.6920
 2.1270	22.7190
 2.1280	22.7460
 2.1290	22.7720
 2.1300	22.8000
 2.1310	22.8230
 2.1320	22.8440
 2.1330	22.8650
 2.1340	22.8800
 2.1350	22.9010
 2.1360	22.9280
 2.1370	22.9520
 2.1380	22.9780
 2.1390	23.0030
 2.1400	23.0250
 2.1410	23.0500
 2.1420	23.0770
 2.1430	23.1070
 2.1440	23.1350
 2.1450	23.1630
 2.1460	23.1890
 2.1470	23.2130
 2.1480	23.2350
 2.1490	23.2510
 2.1500	23.2700
 2.1510	23.2860
 2.1520	23.3060
 2.1530	23.3340
 2.1540	23.3550
 2.1550	23.3730
 2.1560	23.3950
 2.1570	23.4190
 2.1580	23.4390
 2.1590	23.4620
 2.1600	23.4820
 2.1610	23.4960
 2.1620	23.5070
 2.1630	23.5200
 2.1640	23.5310
 2.1650	23.5480
 2.1660	23.5660
 2.1670	23.5830
 2.1680	23.6040
 2.1690	23.6230
 2.1700	23.6360
 2.1710	23.6550
 2.1720	23.6780
 2.1730	23.6960
 2.1740	23.7110
 2.1750	23.7280
 2.1760	23.7400
 2.1770	23.7570
 2.1780	23.7770
 2.1790	23.8000
 2.1800	23.8300
 2.1810	23.8550
 2.1820	23.8820
 2.1830	23.9080
 2.1840	23.9270
 2.1850	23.9390
 2.1860	23.9580
 2.1870	23.9750
 2.1880	23.9970
 2.1890	24.0250
 2.1900	24.0470
 2.1910	24.0670
 2.1920	24.0880
 2.1930	24.1050
 2.1940	24.1260
 2.1950	24.1510
 2.1960	24.1730
 2.1970	24.1940
 2.1980	24.2160
 2.1990	24.2360
 2.2000	24.2580
 2.2010	24.2830
 2.2020	24.3040
 2.2030	24.3230
 2.2040	24.3430
 2.2050	24.3630
 2.2060	24.3800
 2.2070	24.3970
 2.2080	24.4130
 2.2090	24.4300
 2.2100	24.4460
 2.2110	24.4630
 2.2120	24.4830
 2.2130	24.4970
 2.2140	24.5070
 2.2150	24.5150
 2.2160	24.5170
 2.2170	24.5240
 2.2180	24.5320
 2.2190	24.5390
 2.2200	24.5480
 2.2210	24.5550
 2.2220	24.5600
 2.2230	24.5640
 2.2240	24.5710
 2.2250	24.5710
 2.2260	24.5680
 2.2270	24.5600
 2.2280	24.5460
 2.2290	24.5280
 2.2300	24.5050
 2.2310	24.4810
 2.2320	24.4540
 2.2330	24.4250
 2.2340	24.3940
 2.2350	24.3620
 2.2360	24.3260
 2.2370	24.2840
 2.2380	24.2460
 2.2390	24.2100
 2.2400	24.1680
 2.2410	24.1260
 2.2420	24.0790
 2.2430	24.0250
 2.2440	23.9710
 2.2450	23.9130
 2.2460	23.8580
 2.2470	23.8040
 2.2480	23.7470
 2.2490	23.6890
 2.2500	23.6310
 2.2510	23.5660
 2.2520	23.5080
 2.2530	23.4550
 2.2540	23.4000
 2.2550	23.3500
 2.2560	23.2930
 2.2570	23.2290
 2.2580	23.1700
 2.2590	23.1090
 2.2600	23.0480
 2.2610	22.9920
 2.2620	22.9280
 2.2630	22.8640
 2.2640	22.8010
 2.2650	22.7460
 2.2660	22.6940
 2.2670	22.6430
 2.2680	22.5970
 2.2690	22.5460
 2.2700	22.4930
 2.2710	22.4460
 2.2720	22.4000
 2.2730	22.3540
 2.2740	22.3100
 2.2750	22.2680
 2.2760	22.2260
 2.2770	22.1860
 2.2780	22.1550
 2.2790	22.1140
 2.2800	22.0650
 2.2810	22.0220
 2.2820	21.9760
 2.2830	21.9330
 2.2840	21.8990
 2.2850	21.8580
 2.2860	21.8120
 2.2870	21.7690
 2.2880	21.7230
 2.2890	21.6780
 2.2900	21.6340
 2.2910	21.5900
 2.2920	21.5490
 2.2930	21.5030
 2.2940	21.4500
 2.2950	21.4020
 2.2960	21.3560
 2.2970	21.3080
 2.2980	21.2620
 2.2990	21.2170
 2.3000	21.1650
 2.3010	21.1110
 2.3020	21.0650
 2.3030	21.0150
 2.3040	20.9660
 2.3050	20.9230
 2.3060	20.8820
 2.3070	20.8500
 2.3080	20.8230
 2.3090	20.7950
 2.3100	20.7650
 2.3110	20.7380
 2.3120	20.7120
 2.3130	20.6840
 2.3140	20.6620
 2.3150	20.6430
 2.3160	20.6230
 2.3170	20.6070
 2.3180	20.5840
 2.3190	20.5530
 2.3200	20.5310
 2.3210	20.5110
 2.3220	20.4880
 2.3230	20.4720
 2.3240	20.4470
 2.3250	20.4110
 2.3260	20.3800
 2.3270	20.3520
 2.3280	20.3170
 2.3290	20.2760
 2.3300	20.2420
 2.3310	20.2060
 2.3320	20.1750
 2.3330	20.1560
 2.3340	20.1220
 2.3350	20.0830
 2.3360	20.0380
 2.3370	19.9770
 2.3380	19.9270
 2.3390	19.8760
 2.3400	19.8250
 2.3410	19.7760
 2.3420	19.7320
 2.3430	19.6890
 2.3440	19.6510
 2.3450	19.6260
 2.3460	19.5950
 2.3470	19.5620
 2.3480	19.5290
 2.3490	19.4880
 2.3500	19.4540
 2.3510	19.4270
 2.3520	19.3990
 2.3530	19.3710
 2.3540	19.3510
 2.3550	19.3310
 2.3560	19.2960
 2.3570	19.2700
 2.3580	19.2450
 2.3590	19.2130
 2.3600	19.1790
 2.3610	19.1410
 2.3620	19.1100
 2.3630	19.0750
 2.3640	19.0440
 2.3650	19.0200
 2.3660	18.9810
 2.3670	18.9480
 2.3680	18.9250
 2.3690	18.8890
 2.3700	18.8600
 2.3710	18.8300
 2.3720	18.7880
 2.3730	18.7590
 2.3740	18.7200
 2.3750	18.6770
 2.3760	18.6550
 2.3770	18.6190
 2.3780	18.5890
 2.3790	18.5690
 2.3800	18.5190
 2.3810	18.4710
 2.3820	18.4170
 2.3830	18.3620
 2.3840	18.3300
 2.3850	18.2850
 2.3860	18.2530
 2.3870	18.2120
 2.3880	18.1600
 2.3890	18.1290
 2.3900	18.0920
 2.3910	18.0500
 2.3920	18.0110
 2.3930	17.9670
 2.3940	17.9230
 2.3950	17.8930
 2.3960	17.8530
 2.3970	17.7980
 2.3980	17.7530
 2.3990	17.7000
 2.4000	17.6490
 2.4010	17.6100
 2.4020	17.5700
 2.4030	17.5260
 2.4040	17.4960
 2.4050	17.4690
 2.4060	17.4320
 2.4070	17.3870
 2.4080	17.3210
 2.4090	17.2640
 2.4100	17.2110
 2.4110	17.1680
 2.4120	17.1460
 2.4130	17.1010
 2.4140	17.0410
 2.4150	16.9820
 2.4160	16.9230
 2.4170	16.8700
 2.4180	16.8230
 2.4190	16.7760
 2.4200	16.7210
 2.4210	16.6730
 2.4220	16.6360
 2.4230	16.5980
 2.4240	16.5550
 2.4250	16.5080
 2.4260	16.4560
 2.4270	16.4080
 2.4280	16.3640
 2.4290	16.3190
 2.4300	16.2800
 2.4310	16.2260
 2.4320	16.1720
 2.4330	16.1380
 2.4340	16.0960
 2.4350	16.0610
 2.4360	16.0130
 2.4370	15.9520
 2.4380	15.9060
 2.4390	15.8500
 2.4400	15.8100
 2.4410	15.7750
 2.4420	15.7130
 2.4430	15.6720
 2.4440	15.6290
 2.4450	15.5700
 2.4460	15.5230
 2.4470	15.4840
 2.4480	15.4470
 2.4490	15.4040
 2.4500	15.3750
 2.4510	15.3130
 2.4520	15.2550
 2.4530	15.2500
 2.4540	15.2060
 2.4550	15.1730
 2.4560	15.1550
 2.4570	15.0820
 2.4580	15.0290
 2.4590	15.0030
 2.4600	14.9550
 2.4610	14.9210
 2.4620	14.8870
 2.4630	14.8100
 2.4640	14.7560
 2.4650	14.7270
 2.4660	14.7040
 2.4670	14.7050
 2.4680	14.7130
 2.4690	14.7100
 2.4700	14.6730
 2.4710	14.5970
 2.4720	14.5650
 2.4730	14.5290
 2.4740	14.5020
 2.4750	14.5450
 2.4760	14.5250
 2.4770	14.4440
 2.4780	14.4120
 2.4790	14.3890
 2.4800	14.3750
 2.4810	14.3750
 2.4820	14.3740
 2.4830	14.3620
 2.4840	14.3150
 2.4850	14.3050
 2.4860	14.2630
 2.4870	14.1720
 2.4880	14.1490
 2.4890	14.1730
 2.4900	14.2290
 2.4910	14.2670
 2.4920	14.2300
 2.4930	14.1680
 2.4940	14.0780
 2.4950	13.9880
 2.4960	13.9640
 2.4970	13.9740
 2.4980	14.0280
 2.4990	14.0970
 2.5000	14.1180
