Name: Juniperus chinensis
Type: vegetation
Class: Shrub
Genus: Juniperus
Species: chinensis
Sample No.: JPL098
Owner: JPL
Wavelength Range: VSWIR
Origin: 34.12567; - 118.11202; WGS84
Collection Date: 2/2/2016
Description: Samples were collected at the Huntington Garden in San Marino California as part of a JPL Subcontract studying HyTES imagery. Samples were taken to JPL and processed within 48 hours of collection. The same leaves were processed in the Nicolet and then measured using the ASD.
Measurement: Bidirectional reflectance
First Column: X
Second Column: Y
X Units: Wavelength (micrometer)
Y Units: Reflectance (percentage)
First X Value: 0.35
Last X Value: 2.5
Number of X Values: 2151
Additional Information: 

 0.3500	 5.2180
 0.3510	 3.0350
 0.3520	 3.4760
 0.3530	 5.1170
 0.3540	 5.8150
 0.3550	 5.1980
 0.3560	 4.5670
 0.3570	 4.0100
 0.3580	 3.1340
 0.3590	 3.6850
 0.3600	 3.9330
 0.3610	 3.5670
 0.3620	 4.7120
 0.3630	 4.6470
 0.3640	 4.2130
 0.3650	 4.4610
 0.3660	 3.5780
 0.3670	 3.4900
 0.3680	 4.1950
 0.3690	 4.4110
 0.3700	 4.3010
 0.3710	 4.6350
 0.3720	 5.3760
 0.3730	 4.8350
 0.3740	 4.3850
 0.3750	 4.3850
 0.3760	 4.6850
 0.3770	 4.5070
 0.3780	 4.3950
 0.3790	 4.3210
 0.3800	 3.7860
 0.3810	 3.8960
 0.3820	 4.1120
 0.3830	 4.0200
 0.3840	 4.1330
 0.3850	 3.8940
 0.3860	 3.6100
 0.3870	 3.8040
 0.3880	 4.4160
 0.3890	 4.5150
 0.3900	 3.9550
 0.3910	 3.4520
 0.3920	 3.6240
 0.3930	 3.9270
 0.3940	 3.8910
 0.3950	 3.9310
 0.3960	 3.9810
 0.3970	 4.0440
 0.3980	 4.1140
 0.3990	 3.8860
 0.4000	 3.5830
 0.4010	 3.4690
 0.4020	 3.8050
 0.4030	 3.8100
 0.4040	 3.7080
 0.4050	 3.8410
 0.4060	 4.0720
 0.4070	 3.9300
 0.4080	 3.6090
 0.4090	 3.6810
 0.4100	 3.7750
 0.4110	 3.8210
 0.4120	 3.8310
 0.4130	 3.8790
 0.4140	 4.0820
 0.4150	 4.2660
 0.4160	 4.2110
 0.4170	 3.8800
 0.4180	 3.8740
 0.4190	 4.2050
 0.4200	 4.3360
 0.4210	 4.2970
 0.4220	 4.3080
 0.4230	 4.4700
 0.4240	 4.4950
 0.4250	 4.4000
 0.4260	 4.3120
 0.4270	 4.3750
 0.4280	 4.4400
 0.4290	 4.4190
 0.4300	 4.3490
 0.4310	 4.4230
 0.4320	 4.5340
 0.4330	 4.5940
 0.4340	 4.5760
 0.4350	 4.6510
 0.4360	 4.6090
 0.4370	 4.5420
 0.4380	 4.7410
 0.4390	 4.7520
 0.4400	 4.7420
 0.4410	 4.8350
 0.4420	 4.8230
 0.4430	 4.7790
 0.4440	 4.7720
 0.4450	 4.8490
 0.4460	 4.8920
 0.4470	 4.9480
 0.4480	 4.9810
 0.4490	 4.8490
 0.4500	 4.8770
 0.4510	 4.9890
 0.4520	 5.0410
 0.4530	 5.0110
 0.4540	 4.9970
 0.4550	 5.0240
 0.4560	 5.0640
 0.4570	 5.0260
 0.4580	 5.0050
 0.4590	 5.0510
 0.4600	 5.1060
 0.4610	 5.0710
 0.4620	 5.0400
 0.4630	 5.1230
 0.4640	 5.1760
 0.4650	 5.1320
 0.4660	 5.0610
 0.4670	 5.1570
 0.4680	 5.2550
 0.4690	 5.2430
 0.4700	 5.1220
 0.4710	 5.1500
 0.4720	 5.2310
 0.4730	 5.2580
 0.4740	 5.1540
 0.4750	 5.1130
 0.4760	 5.1260
 0.4770	 5.1610
 0.4780	 5.1880
 0.4790	 5.1910
 0.4800	 5.1920
 0.4810	 5.2060
 0.4820	 5.1550
 0.4830	 5.1220
 0.4840	 5.1420
 0.4850	 5.1980
 0.4860	 5.2970
 0.4870	 5.3570
 0.4880	 5.3330
 0.4890	 5.2890
 0.4900	 5.2460
 0.4910	 5.2360
 0.4920	 5.2790
 0.4930	 5.2980
 0.4940	 5.2860
 0.4950	 5.2930
 0.4960	 5.4340
 0.4970	 5.4730
 0.4980	 5.4410
 0.4990	 5.4320
 0.5000	 5.4350
 0.5010	 5.4980
 0.5020	 5.5850
 0.5030	 5.6000
 0.5040	 5.6630
 0.5050	 5.7400
 0.5060	 5.7950
 0.5070	 5.8270
 0.5080	 5.8820
 0.5090	 5.9750
 0.5100	 6.0940
 0.5110	 6.1540
 0.5120	 6.2450
 0.5130	 6.3920
 0.5140	 6.5290
 0.5150	 6.6180
 0.5160	 6.6950
 0.5170	 6.8070
 0.5180	 6.9590
 0.5190	 7.1170
 0.5200	 7.2610
 0.5210	 7.3870
 0.5220	 7.5090
 0.5230	 7.6420
 0.5240	 7.7870
 0.5250	 7.9340
 0.5260	 8.0710
 0.5270	 8.1980
 0.5280	 8.3170
 0.5290	 8.4280
 0.5300	 8.5030
 0.5310	 8.5460
 0.5320	 8.6070
 0.5330	 8.6970
 0.5340	 8.7960
 0.5350	 8.8770
 0.5360	 8.9170
 0.5370	 8.9500
 0.5380	 8.9860
 0.5390	 9.0220
 0.5400	 9.0830
 0.5410	 9.1570
 0.5420	 9.2280
 0.5430	 9.2960
 0.5440	 9.3200
 0.5450	 9.3230
 0.5460	 9.3400
 0.5470	 9.3080
 0.5480	 9.2750
 0.5490	 9.2680
 0.5500	 9.2750
 0.5510	 9.2880
 0.5520	 9.3020
 0.5530	 9.3090
 0.5540	 9.2670
 0.5550	 9.2160
 0.5560	 9.1740
 0.5570	 9.1420
 0.5580	 9.0840
 0.5590	 9.0240
 0.5600	 8.9750
 0.5610	 8.9080
 0.5620	 8.8520
 0.5630	 8.8010
 0.5640	 8.7320
 0.5650	 8.6470
 0.5660	 8.5610
 0.5670	 8.4770
 0.5680	 8.3840
 0.5690	 8.2950
 0.5700	 8.2080
 0.5710	 8.1150
 0.5720	 8.0100
 0.5730	 7.9160
 0.5740	 7.8350
 0.5750	 7.7620
 0.5760	 7.7140
 0.5770	 7.6760
 0.5780	 7.6280
 0.5790	 7.5530
 0.5800	 7.4780
 0.5810	 7.4190
 0.5820	 7.3830
 0.5830	 7.3630
 0.5840	 7.3260
 0.5850	 7.2690
 0.5860	 7.2220
 0.5870	 7.1880
 0.5880	 7.1620
 0.5890	 7.1340
 0.5900	 7.0940
 0.5910	 7.0470
 0.5920	 7.0110
 0.5930	 7.0060
 0.5940	 7.0010
 0.5950	 6.9700
 0.5960	 6.9210
 0.5970	 6.9110
 0.5980	 6.8940
 0.5990	 6.8720
 0.6000	 6.8610
 0.6010	 6.8390
 0.6020	 6.8140
 0.6030	 6.7920
 0.6040	 6.7740
 0.6050	 6.7300
 0.6060	 6.6850
 0.6070	 6.6560
 0.6080	 6.6120
 0.6090	 6.5630
 0.6100	 6.5340
 0.6110	 6.5450
 0.6120	 6.5190
 0.6130	 6.4570
 0.6140	 6.3730
 0.6150	 6.2930
 0.6160	 6.2510
 0.6170	 6.2220
 0.6180	 6.1720
 0.6190	 6.1480
 0.6200	 6.1020
 0.6210	 6.0490
 0.6220	 6.0420
 0.6230	 6.0300
 0.6240	 6.0110
 0.6250	 5.9870
 0.6260	 5.9480
 0.6270	 5.9310
 0.6280	 5.9270
 0.6290	 5.9130
 0.6300	 5.9100
 0.6310	 5.9210
 0.6320	 5.9320
 0.6330	 5.9030
 0.6340	 5.8720
 0.6350	 5.8550
 0.6360	 5.8500
 0.6370	 5.8220
 0.6380	 5.7840
 0.6390	 5.7460
 0.6400	 5.7110
 0.6410	 5.6460
 0.6420	 5.6000
 0.6430	 5.5820
 0.6440	 5.5300
 0.6450	 5.4970
 0.6460	 5.4630
 0.6470	 5.4000
 0.6480	 5.3440
 0.6490	 5.3170
 0.6500	 5.3060
 0.6510	 5.2720
 0.6520	 5.2430
 0.6530	 5.2160
 0.6540	 5.1850
 0.6550	 5.1450
 0.6560	 5.1250
 0.6570	 5.1020
 0.6580	 5.0480
 0.6590	 5.0360
 0.6600	 5.0110
 0.6610	 4.9510
 0.6620	 4.8880
 0.6630	 4.8640
 0.6640	 4.8440
 0.6650	 4.7940
 0.6660	 4.7360
 0.6670	 4.7260
 0.6680	 4.7390
 0.6690	 4.7120
 0.6700	 4.6820
 0.6710	 4.6600
 0.6720	 4.6460
 0.6730	 4.6350
 0.6740	 4.6490
 0.6750	 4.6670
 0.6760	 4.6700
 0.6770	 4.6700
 0.6780	 4.6770
 0.6790	 4.6970
 0.6800	 4.7290
 0.6810	 4.7400
 0.6820	 4.7770
 0.6830	 4.8510
 0.6840	 4.9000
 0.6850	 4.9600
 0.6860	 5.0420
 0.6870	 5.1420
 0.6880	 5.2550
 0.6890	 5.3840
 0.6900	 5.5370
 0.6910	 5.7200
 0.6920	 5.9380
 0.6930	 6.1900
 0.6940	 6.4780
 0.6950	 6.8150
 0.6960	 7.1740
 0.6970	 7.5550
 0.6980	 7.9680
 0.6990	 8.4410
 0.7000	 8.9150
 0.7010	 9.3890
 0.7020	 9.9110
 0.7030	10.4530
 0.7040	11.0070
 0.7050	11.5750
 0.7060	12.1790
 0.7070	12.7710
 0.7080	13.3660
 0.7090	13.9960
 0.7100	14.6310
 0.7110	15.2810
 0.7120	15.9510
 0.7130	16.6430
 0.7140	17.3430
 0.7150	18.0570
 0.7160	18.7890
 0.7170	19.5360
 0.7180	20.2730
 0.7190	21.0130
 0.7200	21.7820
 0.7210	22.5540
 0.7220	23.3140
 0.7230	24.0630
 0.7240	24.8200
 0.7250	25.5470
 0.7260	26.2670
 0.7270	26.9970
 0.7280	27.6950
 0.7290	28.3840
 0.7300	29.0490
 0.7310	29.6660
 0.7320	30.2780
 0.7330	30.8730
 0.7340	31.4340
 0.7350	31.9490
 0.7360	32.4530
 0.7370	32.9370
 0.7380	33.3910
 0.7390	33.8170
 0.7400	34.2150
 0.7410	34.5860
 0.7420	34.9280
 0.7430	35.2570
 0.7440	35.5680
 0.7450	35.8530
 0.7460	36.1070
 0.7470	36.3310
 0.7480	36.5380
 0.7490	36.7340
 0.7500	36.9100
 0.7510	37.0650
 0.7520	37.2140
 0.7530	37.3670
 0.7540	37.4840
 0.7550	37.5870
 0.7560	37.6840
 0.7570	37.7680
 0.7580	37.8540
 0.7590	37.9300
 0.7600	37.9930
 0.7610	38.0570
 0.7620	38.1160
 0.7630	38.1620
 0.7640	38.1910
 0.7650	38.2340
 0.7660	38.2580
 0.7670	38.2720
 0.7680	38.3050
 0.7690	38.3260
 0.7700	38.3470
 0.7710	38.3740
 0.7720	38.3960
 0.7730	38.3950
 0.7740	38.4110
 0.7750	38.4620
 0.7760	38.4620
 0.7770	38.4750
 0.7780	38.4930
 0.7790	38.4820
 0.7800	38.4810
 0.7810	38.4990
 0.7820	38.5220
 0.7830	38.5160
 0.7840	38.5340
 0.7850	38.5430
 0.7860	38.5260
 0.7870	38.5430
 0.7880	38.5610
 0.7890	38.5750
 0.7900	38.5880
 0.7910	38.6030
 0.7920	38.6050
 0.7930	38.6060
 0.7940	38.6290
 0.7950	38.6140
 0.7960	38.6000
 0.7970	38.6110
 0.7980	38.6370
 0.7990	38.6420
 0.8000	38.6350
 0.8010	38.6340
 0.8020	38.6540
 0.8030	38.6620
 0.8040	38.6540
 0.8050	38.6470
 0.8060	38.6380
 0.8070	38.6310
 0.8080	38.6340
 0.8090	38.6540
 0.8100	38.6530
 0.8110	38.6570
 0.8120	38.6800
 0.8130	38.6970
 0.8140	38.6730
 0.8150	38.6570
 0.8160	38.6870
 0.8170	38.6820
 0.8180	38.6790
 0.8190	38.6800
 0.8200	38.6740
 0.8210	38.6760
 0.8220	38.6920
 0.8230	38.7010
 0.8240	38.6680
 0.8250	38.6690
 0.8260	38.6750
 0.8270	38.6680
 0.8280	38.6740
 0.8290	38.6900
 0.8300	38.7090
 0.8310	38.7190
 0.8320	38.7040
 0.8330	38.6790
 0.8340	38.6650
 0.8350	38.6780
 0.8360	38.6930
 0.8370	38.7030
 0.8380	38.7090
 0.8390	38.7170
 0.8400	38.7260
 0.8410	38.7290
 0.8420	38.7270
 0.8430	38.7250
 0.8440	38.7320
 0.8450	38.7400
 0.8460	38.7440
 0.8470	38.7720
 0.8480	38.7950
 0.8490	38.8070
 0.8500	38.8060
 0.8510	38.7940
 0.8520	38.7910
 0.8530	38.8000
 0.8540	38.8130
 0.8550	38.8370
 0.8560	38.8680
 0.8570	38.8850
 0.8580	38.8620
 0.8590	38.8620
 0.8600	38.8680
 0.8610	38.8630
 0.8620	38.8570
 0.8630	38.8930
 0.8640	38.9150
 0.8650	38.8880
 0.8660	38.8910
 0.8670	38.9230
 0.8680	38.9460
 0.8690	38.9240
 0.8700	38.9010
 0.8710	38.8990
 0.8720	38.9100
 0.8730	38.9120
 0.8740	38.9350
 0.8750	38.9510
 0.8760	38.9410
 0.8770	38.9040
 0.8780	38.8920
 0.8790	38.8910
 0.8800	38.8970
 0.8810	38.9240
 0.8820	38.9200
 0.8830	38.9200
 0.8840	38.9390
 0.8850	38.9190
 0.8860	38.9010
 0.8870	38.9080
 0.8880	38.9380
 0.8890	38.9300
 0.8900	38.9120
 0.8910	38.8910
 0.8920	38.8710
 0.8930	38.8690
 0.8940	38.8770
 0.8950	38.8870
 0.8960	38.8920
 0.8970	38.8820
 0.8980	38.8610
 0.8990	38.8490
 0.9000	38.8660
 0.9010	38.8490
 0.9020	38.8410
 0.9030	38.8540
 0.9040	38.8410
 0.9050	38.8020
 0.9060	38.7780
 0.9070	38.7820
 0.9080	38.7620
 0.9090	38.7580
 0.9100	38.7550
 0.9110	38.7370
 0.9120	38.7120
 0.9130	38.7040
 0.9140	38.6940
 0.9150	38.6660
 0.9160	38.6510
 0.9170	38.6540
 0.9180	38.6530
 0.9190	38.6290
 0.9200	38.6420
 0.9210	38.6130
 0.9220	38.5620
 0.9230	38.5520
 0.9240	38.5180
 0.9250	38.4720
 0.9260	38.4330
 0.9270	38.4160
 0.9280	38.4360
 0.9290	38.4250
 0.9300	38.3860
 0.9310	38.3800
 0.9320	38.3410
 0.9330	38.2760
 0.9340	38.2260
 0.9350	38.2460
 0.9360	38.1830
 0.9370	38.1040
 0.9380	38.0610
 0.9390	38.0260
 0.9400	37.9610
 0.9410	37.8980
 0.9420	37.8600
 0.9430	37.8240
 0.9440	37.8010
 0.9450	37.7750
 0.9460	37.7280
 0.9470	37.6430
 0.9480	37.5430
 0.9490	37.4430
 0.9500	37.3520
 0.9510	37.2800
 0.9520	37.1400
 0.9530	37.0030
 0.9540	36.9210
 0.9550	36.7460
 0.9560	36.6830
 0.9570	36.6610
 0.9580	36.5630
 0.9590	36.4470
 0.9600	36.3860
 0.9610	36.3290
 0.9620	36.2280
 0.9630	36.2030
 0.9640	36.1700
 0.9650	36.0890
 0.9660	35.9840
 0.9670	36.0150
 0.9680	35.9990
 0.9690	35.9170
 0.9700	35.8410
 0.9710	35.8790
 0.9720	35.9080
 0.9730	35.8970
 0.9740	35.8680
 0.9750	35.8330
 0.9760	35.8170
 0.9770	35.8050
 0.9780	35.7720
 0.9790	35.7600
 0.9800	35.7540
 0.9810	35.7650
 0.9820	35.7930
 0.9830	35.7230
 0.9840	35.7850
 0.9850	35.9170
 0.9860	35.9340
 0.9870	35.9170
 0.9880	35.8590
 0.9890	35.8410
 0.9900	35.9250
 0.9910	35.8970
 0.9920	35.9510
 0.9930	36.0120
 0.9940	35.9530
 0.9950	36.0520
 0.9960	36.1440
 0.9970	36.1300
 0.9980	36.0300
 0.9990	36.1720
 1.0000	36.1570
 1.0010	36.0680
 1.0020	36.1170
 1.0030	36.2050
 1.0040	36.2710
 1.0050	36.3050
 1.0060	36.3070
 1.0070	36.3040
 1.0080	36.3380
 1.0090	36.3890
 1.0100	36.4520
 1.0110	36.5640
 1.0120	36.6270
 1.0130	36.6760
 1.0140	36.7190
 1.0150	36.7420
 1.0160	36.7560
 1.0170	36.7840
 1.0180	36.8490
 1.0190	36.8800
 1.0200	36.9150
 1.0210	36.9650
 1.0220	36.9840
 1.0230	37.0270
 1.0240	37.1000
 1.0250	37.1410
 1.0260	37.1790
 1.0270	37.2050
 1.0280	37.2070
 1.0290	37.2290
 1.0300	37.2380
 1.0310	37.2750
 1.0320	37.3410
 1.0330	37.4050
 1.0340	37.4610
 1.0350	37.4990
 1.0360	37.5100
 1.0370	37.5180
 1.0380	37.5540
 1.0390	37.6110
 1.0400	37.6530
 1.0410	37.7120
 1.0420	37.7410
 1.0430	37.7400
 1.0440	37.7600
 1.0450	37.7810
 1.0460	37.8020
 1.0470	37.8320
 1.0480	37.8550
 1.0490	37.8620
 1.0500	37.8870
 1.0510	37.9260
 1.0520	37.9680
 1.0530	37.9940
 1.0540	38.0190
 1.0550	38.0490
 1.0560	38.0680
 1.0570	38.0910
 1.0580	38.1350
 1.0590	38.1530
 1.0600	38.1500
 1.0610	38.1540
 1.0620	38.1520
 1.0630	38.1530
 1.0640	38.1550
 1.0650	38.1570
 1.0660	38.1550
 1.0670	38.1610
 1.0680	38.1710
 1.0690	38.1850
 1.0700	38.2040
 1.0710	38.2420
 1.0720	38.2450
 1.0730	38.2370
 1.0740	38.2290
 1.0750	38.1960
 1.0760	38.1830
 1.0770	38.1740
 1.0780	38.1780
 1.0790	38.1950
 1.0800	38.2070
 1.0810	38.2320
 1.0820	38.2480
 1.0830	38.2600
 1.0840	38.2630
 1.0850	38.2590
 1.0860	38.2530
 1.0870	38.2470
 1.0880	38.2300
 1.0890	38.2210
 1.0900	38.2200
 1.0910	38.2080
 1.0920	38.1900
 1.0930	38.1760
 1.0940	38.1610
 1.0950	38.1440
 1.0960	38.1340
 1.0970	38.1110
 1.0980	38.0720
 1.0990	38.0460
 1.1000	38.0230
 1.1010	37.9970
 1.1020	37.9780
 1.1030	37.9570
 1.1040	37.9370
 1.1050	37.9110
 1.1060	37.8820
 1.1070	37.8540
 1.1080	37.8220
 1.1090	37.7850
 1.1100	37.7470
 1.1110	37.7020
 1.1120	37.6680
 1.1130	37.6300
 1.1140	37.5980
 1.1150	37.5840
 1.1160	37.5540
 1.1170	37.5260
 1.1180	37.4850
 1.1190	37.4310
 1.1200	37.3730
 1.1210	37.3200
 1.1220	37.2520
 1.1230	37.1850
 1.1240	37.1110
 1.1250	37.0260
 1.1260	36.9310
 1.1270	36.8280
 1.1280	36.7170
 1.1290	36.5970
 1.1300	36.4630
 1.1310	36.3220
 1.1320	36.1780
 1.1330	36.0210
 1.1340	35.8620
 1.1350	35.6780
 1.1360	35.4790
 1.1370	35.2570
 1.1380	35.0200
 1.1390	34.7760
 1.1400	34.5390
 1.1410	34.2980
 1.1420	34.0670
 1.1430	33.8400
 1.1440	33.6140
 1.1450	33.3890
 1.1460	33.1700
 1.1470	32.9490
 1.1480	32.7410
 1.1490	32.5320
 1.1500	32.3410
 1.1510	32.1600
 1.1520	31.9950
 1.1530	31.8490
 1.1540	31.7050
 1.1550	31.5740
 1.1560	31.4390
 1.1570	31.3080
 1.1580	31.1860
 1.1590	31.0850
 1.1600	31.0040
 1.1610	30.9360
 1.1620	30.8780
 1.1630	30.8100
 1.1640	30.7390
 1.1650	30.6700
 1.1660	30.5910
 1.1670	30.5270
 1.1680	30.4700
 1.1690	30.4180
 1.1700	30.3820
 1.1710	30.3390
 1.1720	30.2950
 1.1730	30.2480
 1.1740	30.2000
 1.1750	30.1430
 1.1760	30.0940
 1.1770	30.0550
 1.1780	30.0080
 1.1790	29.9560
 1.1800	29.9010
 1.1810	29.8420
 1.1820	29.7910
 1.1830	29.7420
 1.1840	29.6920
 1.1850	29.6470
 1.1860	29.5940
 1.1870	29.5480
 1.1880	29.4990
 1.1890	29.4450
 1.1900	29.4060
 1.1910	29.3700
 1.1920	29.3360
 1.1930	29.3130
 1.1940	29.2830
 1.1950	29.2420
 1.1960	29.2180
 1.1970	29.1960
 1.1980	29.1780
 1.1990	29.1660
 1.2000	29.1530
 1.2010	29.1550
 1.2020	29.1530
 1.2030	29.1540
 1.2040	29.1670
 1.2050	29.1690
 1.2060	29.1830
 1.2070	29.2140
 1.2080	29.2430
 1.2090	29.2720
 1.2100	29.3040
 1.2110	29.3400
 1.2120	29.3740
 1.2130	29.4190
 1.2140	29.4750
 1.2150	29.5280
 1.2160	29.5830
 1.2170	29.6400
 1.2180	29.7030
 1.2190	29.7710
 1.2200	29.8350
 1.2210	29.8990
 1.2220	29.9690
 1.2230	30.0330
 1.2240	30.1020
 1.2250	30.1770
 1.2260	30.2380
 1.2270	30.3010
 1.2280	30.3720
 1.2290	30.4430
 1.2300	30.5160
 1.2310	30.5840
 1.2320	30.6530
 1.2330	30.7200
 1.2340	30.7780
 1.2350	30.8330
 1.2360	30.8820
 1.2370	30.9220
 1.2380	30.9570
 1.2390	30.9930
 1.2400	31.0370
 1.2410	31.0840
 1.2420	31.1300
 1.2430	31.1800
 1.2440	31.2220
 1.2450	31.2580
 1.2460	31.2950
 1.2470	31.3270
 1.2480	31.3570
 1.2490	31.3920
 1.2500	31.4260
 1.2510	31.4550
 1.2520	31.4820
 1.2530	31.4920
 1.2540	31.5020
 1.2550	31.5190
 1.2560	31.5320
 1.2570	31.5540
 1.2580	31.5750
 1.2590	31.5950
 1.2600	31.6140
 1.2610	31.6330
 1.2620	31.6490
 1.2630	31.6670
 1.2640	31.6860
 1.2650	31.6980
 1.2660	31.7090
 1.2670	31.7190
 1.2680	31.7170
 1.2690	31.7180
 1.2700	31.7190
 1.2710	31.7120
 1.2720	31.7110
 1.2730	31.7090
 1.2740	31.7050
 1.2750	31.6950
 1.2760	31.6820
 1.2770	31.6670
 1.2780	31.6470
 1.2790	31.6270
 1.2800	31.5990
 1.2810	31.5660
 1.2820	31.5360
 1.2830	31.5110
 1.2840	31.4870
 1.2850	31.4510
 1.2860	31.4230
 1.2870	31.3940
 1.2880	31.3620
 1.2890	31.3300
 1.2900	31.3120
 1.2910	31.2780
 1.2920	31.2250
 1.2930	31.1790
 1.2940	31.1250
 1.2950	31.0690
 1.2960	31.0210
 1.2970	30.9670
 1.2980	30.9020
 1.2990	30.8310
 1.3000	30.7580
 1.3010	30.6890
 1.3020	30.6190
 1.3030	30.5430
 1.3040	30.4640
 1.3050	30.3760
 1.3060	30.2810
 1.3070	30.1920
 1.3080	30.1020
 1.3090	29.9980
 1.3100	29.8950
 1.3110	29.7920
 1.3120	29.6810
 1.3130	29.5750
 1.3140	29.4660
 1.3150	29.3570
 1.3160	29.2390
 1.3170	29.1180
 1.3180	28.9920
 1.3190	28.8640
 1.3200	28.7270
 1.3210	28.5810
 1.3220	28.4430
 1.3230	28.2960
 1.3240	28.1430
 1.3250	27.9980
 1.3260	27.8460
 1.3270	27.6890
 1.3280	27.5350
 1.3290	27.3840
 1.3300	27.2300
 1.3310	27.0810
 1.3320	26.9370
 1.3330	26.7810
 1.3340	26.6220
 1.3350	26.4570
 1.3360	26.2810
 1.3370	26.1200
 1.3380	25.9630
 1.3390	25.8080
 1.3400	25.6610
 1.3410	25.5170
 1.3420	25.3680
 1.3430	25.2260
 1.3440	25.0880
 1.3450	24.9450
 1.3460	24.7990
 1.3470	24.6620
 1.3480	24.5220
 1.3490	24.3920
 1.3500	24.2700
 1.3510	24.1500
 1.3520	24.0270
 1.3530	23.9050
 1.3540	23.7790
 1.3550	23.6510
 1.3560	23.5330
 1.3570	23.4140
 1.3580	23.2920
 1.3590	23.1690
 1.3600	23.0320
 1.3610	22.8930
 1.3620	22.7530
 1.3630	22.6080
 1.3640	22.4570
 1.3650	22.3000
 1.3660	22.1480
 1.3670	21.9870
 1.3680	21.8220
 1.3690	21.6480
 1.3700	21.4550
 1.3710	21.2580
 1.3720	21.0480
 1.3730	20.8240
 1.3740	20.5910
 1.3750	20.3470
 1.3760	20.0890
 1.3770	19.8200
 1.3780	19.5330
 1.3790	19.2300
 1.3800	18.9180
 1.3810	18.5970
 1.3820	18.2660
 1.3830	17.9270
 1.3840	17.5770
 1.3850	17.2120
 1.3860	16.8440
 1.3870	16.4630
 1.3880	16.0880
 1.3890	15.7070
 1.3900	15.3300
 1.3910	14.9630
 1.3920	14.6000
 1.3930	14.2410
 1.3940	13.8860
 1.3950	13.5320
 1.3960	13.1860
 1.3970	12.8480
 1.3980	12.5230
 1.3990	12.2160
 1.4000	11.9190
 1.4010	11.6320
 1.4020	11.3580
 1.4030	11.0930
 1.4040	10.8380
 1.4050	10.6020
 1.4060	10.3780
 1.4070	10.1750
 1.4080	 9.9850
 1.4090	 9.8050
 1.4100	 9.6360
 1.4110	 9.4710
 1.4120	 9.3180
 1.4130	 9.1740
 1.4140	 9.0420
 1.4150	 8.9210
 1.4160	 8.8030
 1.4170	 8.6950
 1.4180	 8.5930
 1.4190	 8.4960
 1.4200	 8.4060
 1.4210	 8.3220
 1.4220	 8.2460
 1.4230	 8.1750
 1.4240	 8.1080
 1.4250	 8.0470
 1.4260	 7.9890
 1.4270	 7.9360
 1.4280	 7.8900
 1.4290	 7.8460
 1.4300	 7.8040
 1.4310	 7.7680
 1.4320	 7.7340
 1.4330	 7.7040
 1.4340	 7.6820
 1.4350	 7.6550
 1.4360	 7.6290
 1.4370	 7.6020
 1.4380	 7.5720
 1.4390	 7.5490
 1.4400	 7.5280
 1.4410	 7.5090
 1.4420	 7.4960
 1.4430	 7.4800
 1.4440	 7.4720
 1.4450	 7.4660
 1.4460	 7.4600
 1.4470	 7.4590
 1.4480	 7.4570
 1.4490	 7.4570
 1.4500	 7.4580
 1.4510	 7.4580
 1.4520	 7.4630
 1.4530	 7.4640
 1.4540	 7.4650
 1.4550	 7.4690
 1.4560	 7.4730
 1.4570	 7.4820
 1.4580	 7.4970
 1.4590	 7.5090
 1.4600	 7.5230
 1.4610	 7.5390
 1.4620	 7.5540
 1.4630	 7.5760
 1.4640	 7.5980
 1.4650	 7.6200
 1.4660	 7.6480
 1.4670	 7.6790
 1.4680	 7.7100
 1.4690	 7.7430
 1.4700	 7.7770
 1.4710	 7.8100
 1.4720	 7.8470
 1.4730	 7.8870
 1.4740	 7.9320
 1.4750	 7.9770
 1.4760	 8.0220
 1.4770	 8.0670
 1.4780	 8.1100
 1.4790	 8.1630
 1.4800	 8.2150
 1.4810	 8.2700
 1.4820	 8.3310
 1.4830	 8.3820
 1.4840	 8.4330
 1.4850	 8.4870
 1.4860	 8.5370
 1.4870	 8.5990
 1.4880	 8.6630
 1.4890	 8.7240
 1.4900	 8.7860
 1.4910	 8.8480
 1.4920	 8.9090
 1.4930	 8.9710
 1.4940	 9.0320
 1.4950	 9.0920
 1.4960	 9.1550
 1.4970	 9.2160
 1.4980	 9.2820
 1.4990	 9.3530
 1.5000	 9.4210
 1.5010	 9.4940
 1.5020	 9.5610
 1.5030	 9.6240
 1.5040	 9.6900
 1.5050	 9.7540
 1.5060	 9.8200
 1.5070	 9.8880
 1.5080	 9.9550
 1.5090	10.0230
 1.5100	10.0890
 1.5110	10.1550
 1.5120	10.2270
 1.5130	10.3010
 1.5140	10.3730
 1.5150	10.4430
 1.5160	10.5080
 1.5170	10.5690
 1.5180	10.6280
 1.5190	10.6890
 1.5200	10.7530
 1.5210	10.8210
 1.5220	10.8890
 1.5230	10.9530
 1.5240	11.0190
 1.5250	11.0830
 1.5260	11.1460
 1.5270	11.2130
 1.5280	11.2830
 1.5290	11.3520
 1.5300	11.4190
 1.5310	11.4860
 1.5320	11.5450
 1.5330	11.6000
 1.5340	11.6610
 1.5350	11.7250
 1.5360	11.7960
 1.5370	11.8660
 1.5380	11.9330
 1.5390	11.9970
 1.5400	12.0600
 1.5410	12.1220
 1.5420	12.1810
 1.5430	12.2380
 1.5440	12.2980
 1.5450	12.3600
 1.5460	12.4210
 1.5470	12.4810
 1.5480	12.5380
 1.5490	12.5970
 1.5500	12.6590
 1.5510	12.7230
 1.5520	12.7870
 1.5530	12.8430
 1.5540	12.9010
 1.5550	12.9570
 1.5560	13.0080
 1.5570	13.0620
 1.5580	13.1160
 1.5590	13.1700
 1.5600	13.2320
 1.5610	13.2980
 1.5620	13.3560
 1.5630	13.4130
 1.5640	13.4640
 1.5650	13.5070
 1.5660	13.5580
 1.5670	13.6110
 1.5680	13.6650
 1.5690	13.7220
 1.5700	13.7750
 1.5710	13.8230
 1.5720	13.8700
 1.5730	13.9220
 1.5740	13.9720
 1.5750	14.0220
 1.5760	14.0770
 1.5770	14.1290
 1.5780	14.1790
 1.5790	14.2300
 1.5800	14.2810
 1.5810	14.3300
 1.5820	14.3760
 1.5830	14.4290
 1.5840	14.4820
 1.5850	14.5330
 1.5860	14.5870
 1.5870	14.6350
 1.5880	14.6770
 1.5890	14.7190
 1.5900	14.7640
 1.5910	14.8110
 1.5920	14.8640
 1.5930	14.9180
 1.5940	14.9680
 1.5950	15.0140
 1.5960	15.0560
 1.5970	15.0970
 1.5980	15.1390
 1.5990	15.1800
 1.6000	15.2250
 1.6010	15.2740
 1.6020	15.3190
 1.6030	15.3660
 1.6040	15.4110
 1.6050	15.4500
 1.6060	15.4930
 1.6070	15.5360
 1.6080	15.5810
 1.6090	15.6280
 1.6100	15.6700
 1.6110	15.7080
 1.6120	15.7420
 1.6130	15.7750
 1.6140	15.8150
 1.6150	15.8600
 1.6160	15.9130
 1.6170	15.9610
 1.6180	16.0020
 1.6190	16.0370
 1.6200	16.0630
 1.6210	16.0910
 1.6220	16.1190
 1.6230	16.1480
 1.6240	16.1790
 1.6250	16.2050
 1.6260	16.2300
 1.6270	16.2570
 1.6280	16.2820
 1.6290	16.3090
 1.6300	16.3380
 1.6310	16.3630
 1.6320	16.3870
 1.6330	16.4140
 1.6340	16.4420
 1.6350	16.4670
 1.6360	16.4900
 1.6370	16.5180
 1.6380	16.5460
 1.6390	16.5740
 1.6400	16.6070
 1.6410	16.6390
 1.6420	16.6740
 1.6430	16.6980
 1.6440	16.7200
 1.6450	16.7340
 1.6460	16.7400
 1.6470	16.7590
 1.6480	16.7790
 1.6490	16.7960
 1.6500	16.8150
 1.6510	16.8260
 1.6520	16.8300
 1.6530	16.8340
 1.6540	16.8360
 1.6550	16.8440
 1.6560	16.8560
 1.6570	16.8650
 1.6580	16.8660
 1.6590	16.8650
 1.6600	16.8650
 1.6610	16.8610
 1.6620	16.8610
 1.6630	16.8600
 1.6640	16.8520
 1.6650	16.8350
 1.6660	16.8250
 1.6670	16.8100
 1.6680	16.7920
 1.6690	16.7760
 1.6700	16.7560
 1.6710	16.7370
 1.6720	16.7170
 1.6730	16.7010
 1.6740	16.6920
 1.6750	16.6680
 1.6760	16.6380
 1.6770	16.6080
 1.6780	16.5690
 1.6790	16.5430
 1.6800	16.5240
 1.6810	16.4880
 1.6820	16.4510
 1.6830	16.4040
 1.6840	16.3500
 1.6850	16.3090
 1.6860	16.2680
 1.6870	16.2230
 1.6880	16.1800
 1.6890	16.1270
 1.6900	16.0730
 1.6910	16.0150
 1.6920	15.9600
 1.6930	15.9020
 1.6940	15.8520
 1.6950	15.8140
 1.6960	15.7610
 1.6970	15.7030
 1.6980	15.6430
 1.6990	15.5670
 1.7000	15.5030
 1.7010	15.4450
 1.7020	15.3840
 1.7030	15.3250
 1.7040	15.2620
 1.7050	15.1950
 1.7060	15.1290
 1.7070	15.0580
 1.7080	14.9980
 1.7090	14.9430
 1.7100	14.8890
 1.7110	14.8390
 1.7120	14.7920
 1.7130	14.7460
 1.7140	14.6980
 1.7150	14.6520
 1.7160	14.6050
 1.7170	14.5560
 1.7180	14.5150
 1.7190	14.4790
 1.7200	14.4400
 1.7210	14.3980
 1.7220	14.3480
 1.7230	14.3070
 1.7240	14.2730
 1.7250	14.2440
 1.7260	14.2270
 1.7270	14.2060
 1.7280	14.1860
 1.7290	14.1670
 1.7300	14.1530
 1.7310	14.1460
 1.7320	14.1450
 1.7330	14.1490
 1.7340	14.1650
 1.7350	14.1730
 1.7360	14.1880
 1.7370	14.1870
 1.7380	14.1700
 1.7390	14.1600
 1.7400	14.1460
 1.7410	14.1330
 1.7420	14.1280
 1.7430	14.1130
 1.7440	14.0950
 1.7450	14.0710
 1.7460	14.0440
 1.7470	14.0090
 1.7480	13.9610
 1.7490	13.9220
 1.7500	13.8820
 1.7510	13.8480
 1.7520	13.8230
 1.7530	13.7890
 1.7540	13.7530
 1.7550	13.7090
 1.7560	13.6670
 1.7570	13.6300
 1.7580	13.5970
 1.7590	13.5790
 1.7600	13.5620
 1.7610	13.5410
 1.7620	13.5200
 1.7630	13.4870
 1.7640	13.4660
 1.7650	13.4580
 1.7660	13.4430
 1.7670	13.4320
 1.7680	13.4200
 1.7690	13.4010
 1.7700	13.3900
 1.7710	13.3830
 1.7720	13.3790
 1.7730	13.3840
 1.7740	13.3790
 1.7750	13.3680
 1.7760	13.3630
 1.7770	13.3540
 1.7780	13.3500
 1.7790	13.3570
 1.7800	13.3540
 1.7810	13.3470
 1.7820	13.3370
 1.7830	13.3200
 1.7840	13.3130
 1.7850	13.3030
 1.7860	13.3060
 1.7870	13.3210
 1.7880	13.3190
 1.7890	13.3360
 1.7900	13.3330
 1.7910	13.3350
 1.7920	13.3380
 1.7930	13.3420
 1.7940	13.3500
 1.7950	13.3560
 1.7960	13.3560
 1.7970	13.3640
 1.7980	13.3800
 1.7990	13.3880
 1.8000	13.3930
 1.8010	13.4030
 1.8020	13.4060
 1.8030	13.4170
 1.8040	13.4440
 1.8050	13.4540
 1.8060	13.4580
 1.8070	13.4590
 1.8080	13.4410
 1.8090	13.4500
 1.8100	13.4740
 1.8110	13.4760
 1.8120	13.5000
 1.8130	13.5120
 1.8140	13.5070
 1.8150	13.5220
 1.8160	13.5350
 1.8170	13.5390
 1.8180	13.5420
 1.8190	13.5700
 1.8200	13.5750
 1.8210	13.5690
 1.8220	13.5650
 1.8230	13.5360
 1.8240	13.5270
 1.8250	13.5340
 1.8260	13.5360
 1.8270	13.5450
 1.8280	13.5460
 1.8290	13.5460
 1.8300	13.5430
 1.8310	13.3630
 1.8320	13.3580
 1.8330	13.3440
 1.8340	13.3070
 1.8350	13.2530
 1.8360	13.2320
 1.8370	13.2190
 1.8380	13.2120
 1.8390	13.1900
 1.8400	13.1710
 1.8410	13.1280
 1.8420	13.0610
 1.8430	12.9930
 1.8440	12.9400
 1.8450	12.8900
 1.8460	12.8550
 1.8470	12.8110
 1.8480	12.7420
 1.8490	12.6750
 1.8500	12.5930
 1.8510	12.4890
 1.8520	12.3930
 1.8530	12.3000
 1.8540	12.1810
 1.8550	12.0730
 1.8560	11.9600
 1.8570	11.8160
 1.8580	11.6820
 1.8590	11.5490
 1.8600	11.4110
 1.8610	11.2700
 1.8620	11.1390
 1.8630	10.9760
 1.8640	10.8100
 1.8650	10.6260
 1.8660	10.4110
 1.8670	10.1970
 1.8680	 9.9620
 1.8690	 9.7300
 1.8700	 9.5080
 1.8710	 9.2980
 1.8720	 9.0800
 1.8730	 8.8550
 1.8740	 8.6030
 1.8750	 8.3360
 1.8760	 8.0820
 1.8770	 7.8260
 1.8780	 7.5840
 1.8790	 7.3370
 1.8800	 7.0870
 1.8810	 6.8270
 1.8820	 6.5890
 1.8830	 6.3380
 1.8840	 6.0970
 1.8850	 5.8800
 1.8860	 5.6450
 1.8870	 5.4160
 1.8880	 5.1980
 1.8890	 4.9820
 1.8900	 4.7800
 1.8910	 4.5920
 1.8920	 4.4190
 1.8930	 4.2630
 1.8940	 4.1060
 1.8950	 3.9550
 1.8960	 3.8300
 1.8970	 3.7050
 1.8980	 3.5890
 1.8990	 3.4990
 1.9000	 3.4140
 1.9010	 3.3420
 1.9020	 3.2670
 1.9030	 3.2050
 1.9040	 3.1340
 1.9050	 3.0600
 1.9060	 3.0020
 1.9070	 2.9490
 1.9080	 2.9160
 1.9090	 2.8930
 1.9100	 2.8730
 1.9110	 2.8480
 1.9120	 2.8280
 1.9130	 2.7960
 1.9140	 2.7510
 1.9150	 2.7180
 1.9160	 2.6890
 1.9170	 2.6780
 1.9180	 2.6810
 1.9190	 2.6850
 1.9200	 2.6740
 1.9210	 2.6660
 1.9220	 2.6590
 1.9230	 2.6440
 1.9240	 2.6330
 1.9250	 2.6300
 1.9260	 2.6200
 1.9270	 2.5980
 1.9280	 2.5940
 1.9290	 2.5820
 1.9300	 2.5910
 1.9310	 2.6000
 1.9320	 2.5840
 1.9330	 2.5850
 1.9340	 2.5890
 1.9350	 2.5840
 1.9360	 2.5820
 1.9370	 2.5840
 1.9380	 2.5730
 1.9390	 2.5700
 1.9400	 2.5970
 1.9410	 2.6300
 1.9420	 2.6720
 1.9430	 2.7030
 1.9440	 2.7160
 1.9450	 2.7040
 1.9460	 2.7070
 1.9470	 2.7030
 1.9480	 2.7060
 1.9490	 2.7180
 1.9500	 2.7290
 1.9510	 2.7290
 1.9520	 2.7150
 1.9530	 2.7230
 1.9540	 2.7450
 1.9550	 2.7600
 1.9560	 2.7910
 1.9570	 2.8070
 1.9580	 2.8050
 1.9590	 2.8160
 1.9600	 2.8310
 1.9610	 2.8480
 1.9620	 2.8740
 1.9630	 2.8940
 1.9640	 2.9170
 1.9650	 2.9480
 1.9660	 2.9580
 1.9670	 2.9740
 1.9680	 2.9900
 1.9690	 2.9920
 1.9700	 3.0100
 1.9710	 3.0390
 1.9720	 3.0670
 1.9730	 3.0990
 1.9740	 3.1440
 1.9750	 3.1690
 1.9760	 3.1960
 1.9770	 3.2090
 1.9780	 3.2210
 1.9790	 3.2520
 1.9800	 3.2970
 1.9810	 3.3350
 1.9820	 3.3890
 1.9830	 3.4240
 1.9840	 3.4520
 1.9850	 3.4740
 1.9860	 3.4840
 1.9870	 3.4960
 1.9880	 3.5030
 1.9890	 3.5120
 1.9900	 3.5310
 1.9910	 3.5620
 1.9920	 3.5820
 1.9930	 3.5980
 1.9940	 3.6180
 1.9950	 3.6330
 1.9960	 3.6510
 1.9970	 3.6690
 1.9980	 3.6990
 1.9990	 3.7350
 2.0000	 3.7750
 2.0010	 3.8310
 2.0020	 3.8920
 2.0030	 3.9360
 2.0040	 3.9520
 2.0050	 3.9690
 2.0060	 3.9620
 2.0070	 3.9770
 2.0080	 3.9920
 2.0090	 4.0200
 2.0100	 4.0650
 2.0110	 4.1020
 2.0120	 4.1420
 2.0130	 4.1960
 2.0140	 4.2240
 2.0150	 4.2380
 2.0160	 4.2440
 2.0170	 4.2380
 2.0180	 4.2550
 2.0190	 4.2840
 2.0200	 4.3110
 2.0210	 4.3530
 2.0220	 4.3820
 2.0230	 4.4020
 2.0240	 4.4300
 2.0250	 4.4610
 2.0260	 4.4910
 2.0270	 4.5240
 2.0280	 4.5580
 2.0290	 4.5810
 2.0300	 4.5970
 2.0310	 4.6180
 2.0320	 4.6260
 2.0330	 4.6530
 2.0340	 4.6960
 2.0350	 4.7270
 2.0360	 4.7690
 2.0370	 4.7960
 2.0380	 4.8000
 2.0390	 4.8170
 2.0400	 4.8400
 2.0410	 4.8580
 2.0420	 4.8750
 2.0430	 4.9020
 2.0440	 4.9170
 2.0450	 4.9210
 2.0460	 4.9350
 2.0470	 4.9510
 2.0480	 4.9680
 2.0490	 4.9930
 2.0500	 5.0140
 2.0510	 5.0320
 2.0520	 5.0520
 2.0530	 5.0710
 2.0540	 5.0930
 2.0550	 5.1130
 2.0560	 5.1420
 2.0570	 5.1840
 2.0580	 5.2050
 2.0590	 5.2310
 2.0600	 5.2580
 2.0610	 5.2810
 2.0620	 5.3030
 2.0630	 5.3180
 2.0640	 5.3200
 2.0650	 5.3410
 2.0660	 5.3750
 2.0670	 5.3910
 2.0680	 5.4010
 2.0690	 5.4270
 2.0700	 5.4420
 2.0710	 5.4660
 2.0720	 5.5110
 2.0730	 5.5690
 2.0740	 5.5920
 2.0750	 5.5920
 2.0760	 5.6020
 2.0770	 5.5940
 2.0780	 5.6060
 2.0790	 5.6290
 2.0800	 5.6520
 2.0810	 5.6920
 2.0820	 5.7150
 2.0830	 5.7260
 2.0840	 5.7450
 2.0850	 5.7530
 2.0860	 5.7730
 2.0870	 5.8000
 2.0880	 5.8430
 2.0890	 5.8720
 2.0900	 5.9030
 2.0910	 5.9250
 2.0920	 5.9380
 2.0930	 5.9570
 2.0940	 5.9670
 2.0950	 5.9940
 2.0960	 6.0350
 2.0970	 6.0640
 2.0980	 6.1060
 2.0990	 6.1310
 2.1000	 6.1350
 2.1010	 6.1490
 2.1020	 6.1550
 2.1030	 6.1730
 2.1040	 6.2050
 2.1050	 6.2390
 2.1060	 6.2500
 2.1070	 6.2540
 2.1080	 6.2660
 2.1090	 6.2520
 2.1100	 6.2750
 2.1110	 6.3360
 2.1120	 6.3680
 2.1130	 6.4020
 2.1140	 6.4260
 2.1150	 6.4240
 2.1160	 6.4460
 2.1170	 6.4840
 2.1180	 6.5110
 2.1190	 6.5490
 2.1200	 6.5760
 2.1210	 6.5800
 2.1220	 6.5990
 2.1230	 6.6160
 2.1240	 6.6320
 2.1250	 6.6480
 2.1260	 6.6700
 2.1270	 6.6850
 2.1280	 6.6910
 2.1290	 6.7090
 2.1300	 6.7300
 2.1310	 6.7510
 2.1320	 6.7760
 2.1330	 6.8060
 2.1340	 6.8470
 2.1350	 6.8710
 2.1360	 6.9040
 2.1370	 6.9170
 2.1380	 6.8890
 2.1390	 6.8870
 2.1400	 6.8840
 2.1410	 6.8900
 2.1420	 6.9110
 2.1430	 6.9580
 2.1440	 6.9900
 2.1450	 7.0290
 2.1460	 7.0520
 2.1470	 7.0640
 2.1480	 7.0800
 2.1490	 7.0850
 2.1500	 7.1060
 2.1510	 7.1490
 2.1520	 7.1680
 2.1530	 7.1860
 2.1540	 7.1930
 2.1550	 7.1710
 2.1560	 7.1680
 2.1570	 7.1690
 2.1580	 7.1770
 2.1590	 7.1980
 2.1600	 7.2160
 2.1610	 7.2250
 2.1620	 7.2250
 2.1630	 7.2360
 2.1640	 7.2400
 2.1650	 7.2530
 2.1660	 7.2790
 2.1670	 7.3020
 2.1680	 7.3260
 2.1690	 7.3500
 2.1700	 7.3920
 2.1710	 7.4060
 2.1720	 7.3980
 2.1730	 7.3990
 2.1740	 7.3800
 2.1750	 7.3840
 2.1760	 7.4120
 2.1770	 7.4250
 2.1780	 7.4320
 2.1790	 7.4490
 2.1800	 7.4700
 2.1810	 7.4880
 2.1820	 7.5140
 2.1830	 7.5480
 2.1840	 7.5600
 2.1850	 7.5520
 2.1860	 7.5650
 2.1870	 7.5720
 2.1880	 7.5950
 2.1890	 7.6410
 2.1900	 7.6650
 2.1910	 7.6920
 2.1920	 7.7060
 2.1930	 7.6970
 2.1940	 7.7070
 2.1950	 7.7260
 2.1960	 7.7340
 2.1970	 7.7460
 2.1980	 7.7530
 2.1990	 7.7410
 2.2000	 7.7470
 2.2010	 7.7670
 2.2020	 7.7830
 2.2030	 7.8110
 2.2040	 7.8260
 2.2050	 7.8340
 2.2060	 7.8350
 2.2070	 7.8410
 2.2080	 7.8450
 2.2090	 7.8400
 2.2100	 7.8250
 2.2110	 7.8330
 2.2120	 7.8380
 2.2130	 7.8510
 2.2140	 7.9040
 2.2150	 7.9080
 2.2160	 7.8730
 2.2170	 7.8750
 2.2180	 7.8730
 2.2190	 7.8790
 2.2200	 7.9330
 2.2210	 7.9330
 2.2220	 7.8860
 2.2230	 7.8680
 2.2240	 7.8290
 2.2250	 7.8140
 2.2260	 7.8440
 2.2270	 7.8400
 2.2280	 7.8220
 2.2290	 7.8050
 2.2300	 7.7590
 2.2310	 7.7410
 2.2320	 7.7390
 2.2330	 7.7200
 2.2340	 7.6940
 2.2350	 7.6580
 2.2360	 7.6410
 2.2370	 7.6230
 2.2380	 7.6050
 2.2390	 7.6140
 2.2400	 7.5830
 2.2410	 7.5170
 2.2420	 7.4770
 2.2430	 7.4290
 2.2440	 7.3900
 2.2450	 7.3810
 2.2460	 7.3320
 2.2470	 7.2420
 2.2480	 7.2000
 2.2490	 7.1580
 2.2500	 7.1250
 2.2510	 7.1410
 2.2520	 7.1180
 2.2530	 7.0560
 2.2540	 7.0230
 2.2550	 7.0080
 2.2560	 6.9750
 2.2570	 6.9470
 2.2580	 6.9100
 2.2590	 6.8490
 2.2600	 6.7920
 2.2610	 6.7390
 2.2620	 6.6890
 2.2630	 6.6010
 2.2640	 6.5330
 2.2650	 6.4710
 2.2660	 6.4050
 2.2670	 6.3520
 2.2680	 6.3090
 2.2690	 6.2840
 2.2700	 6.2710
 2.2710	 6.2560
 2.2720	 6.2750
 2.2730	 6.2460
 2.2740	 6.1780
 2.2750	 6.1390
 2.2760	 6.0870
 2.2770	 6.0560
 2.2780	 6.0620
 2.2790	 6.0350
 2.2800	 5.9850
 2.2810	 5.9580
 2.2820	 5.9220
 2.2830	 5.9050
 2.2840	 5.9260
 2.2850	 5.9220
 2.2860	 5.9100
 2.2870	 5.8940
 2.2880	 5.8740
 2.2890	 5.8440
 2.2900	 5.8170
 2.2910	 5.7730
 2.2920	 5.7030
 2.2930	 5.6390
 2.2940	 5.5410
 2.2950	 5.4820
 2.2960	 5.4540
 2.2970	 5.4140
 2.2980	 5.3820
 2.2990	 5.3820
 2.3000	 5.3300
 2.3010	 5.2890
 2.3020	 5.2770
 2.3030	 5.2570
 2.3040	 5.2410
 2.3050	 5.2420
 2.3060	 5.2150
 2.3070	 5.1490
 2.3080	 5.0940
 2.3090	 5.0580
 2.3100	 5.0320
 2.3110	 5.0260
 2.3120	 5.0390
 2.3130	 5.0870
 2.3140	 5.1000
 2.3150	 5.1250
 2.3160	 5.1240
 2.3170	 5.0660
 2.3180	 5.0890
 2.3190	 5.1400
 2.3200	 5.1950
 2.3210	 5.3320
 2.3220	 5.3580
 2.3230	 5.3350
 2.3240	 5.3040
 2.3250	 5.1840
 2.3260	 5.1430
 2.3270	 5.1310
 2.3280	 5.1170
 2.3290	 5.1370
 2.3300	 5.1360
 2.3310	 5.1360
 2.3320	 5.0980
 2.3330	 5.0250
 2.3340	 4.9800
 2.3350	 4.9140
 2.3360	 4.8840
 2.3370	 4.8890
 2.3380	 4.8920
 2.3390	 4.9290
 2.3400	 4.9160
 2.3410	 4.8710
 2.3420	 4.8550
 2.3430	 4.8080
 2.3440	 4.7890
 2.3450	 4.8320
 2.3460	 4.8210
 2.3470	 4.7740
 2.3480	 4.7410
 2.3490	 4.6880
 2.3500	 4.6600
 2.3510	 4.6580
 2.3520	 4.6520
 2.3530	 4.6500
 2.3540	 4.6480
 2.3550	 4.6410
 2.3560	 4.6230
 2.3570	 4.6090
 2.3580	 4.5970
 2.3590	 4.6010
 2.3600	 4.5960
 2.3610	 4.5660
 2.3620	 4.5510
 2.3630	 4.5590
 2.3640	 4.5800
 2.3650	 4.5970
 2.3660	 4.5830
 2.3670	 4.5060
 2.3680	 4.4560
 2.3690	 4.4550
 2.3700	 4.4260
 2.3710	 4.4040
 2.3720	 4.3860
 2.3730	 4.3830
 2.3740	 4.4090
 2.3750	 4.4670
 2.3760	 4.4940
 2.3770	 4.4740
 2.3780	 4.4570
 2.3790	 4.3910
 2.3800	 4.3670
 2.3810	 4.3810
 2.3820	 4.3380
 2.3830	 4.3400
 2.3840	 4.2880
 2.3850	 4.1500
 2.3860	 4.0660
 2.3870	 4.0040
 2.3880	 4.0060
 2.3890	 4.0370
 2.3900	 4.0630
 2.3910	 4.0930
 2.3920	 4.0530
 2.3930	 4.0270
 2.3940	 4.0280
 2.3950	 3.9980
 2.3960	 4.0420
 2.3970	 4.0580
 2.3980	 3.9980
 2.3990	 3.9890
 2.4000	 3.9120
 2.4010	 3.8330
 2.4020	 3.8740
 2.4030	 3.8710
 2.4040	 3.8750
 2.4050	 3.9220
 2.4060	 3.9060
 2.4070	 3.8900
 2.4080	 3.9080
 2.4090	 3.8990
 2.4100	 3.9230
 2.4110	 3.9530
 2.4120	 3.8780
 2.4130	 3.7980
 2.4140	 3.7220
 2.4150	 3.6610
 2.4160	 3.7200
 2.4170	 3.7770
 2.4180	 3.8060
 2.4190	 3.8090
 2.4200	 3.7570
 2.4210	 3.7630
 2.4220	 3.7640
 2.4230	 3.7620
 2.4240	 3.7400
 2.4250	 3.6550
 2.4260	 3.5960
 2.4270	 3.5190
 2.4280	 3.5150
 2.4290	 3.6120
 2.4300	 3.6130
 2.4310	 3.6380
 2.4320	 3.6230
 2.4330	 3.5240
 2.4340	 3.5730
 2.4350	 3.6030
 2.4360	 3.6710
 2.4370	 3.7580
 2.4380	 3.6820
 2.4390	 3.6360
 2.4400	 3.6150
 2.4410	 3.5160
 2.4420	 3.5220
 2.4430	 3.5350
 2.4440	 3.4360
 2.4450	 3.3890
 2.4460	 3.2610
 2.4470	 3.2480
 2.4480	 3.3270
 2.4490	 3.2550
 2.4500	 3.2100
 2.4510	 3.0960
 2.4520	 3.0210
 2.4530	 3.0650
 2.4540	 3.2360
 2.4550	 3.4610
 2.4560	 3.4720
 2.4570	 3.3610
 2.4580	 3.2100
 2.4590	 3.0100
 2.4600	 2.8950
 2.4610	 3.0280
 2.4620	 3.1930
 2.4630	 3.1800
 2.4640	 3.1240
 2.4650	 3.0230
 2.4660	 3.0350
 2.4670	 3.1800
 2.4680	 3.2500
 2.4690	 3.1940
 2.4700	 3.1410
 2.4710	 3.0000
 2.4720	 3.0220
 2.4730	 3.2690
 2.4740	 3.2380
 2.4750	 2.9930
 2.4760	 2.9950
 2.4770	 2.9390
 2.4780	 2.8950
 2.4790	 3.1310
 2.4800	 3.1690
 2.4810	 3.0450
 2.4820	 2.9980
 2.4830	 2.8830
 2.4840	 2.8140
 2.4850	 2.7390
 2.4860	 2.7880
 2.4870	 3.0270
 2.4880	 2.9680
 2.4890	 2.9130
 2.4900	 2.9220
 2.4910	 2.6910
 2.4920	 2.7730
 2.4930	 2.7540
 2.4940	 2.5840
 2.4950	 2.6540
 2.4960	 2.7770
 2.4970	 3.1100
 2.4980	 3.3130
 2.4990	 3.4690
 2.5000	 3.6620
