Name: Arctostaphylos glandulosa 3
Type: vegetation
Class: Shrub
Genus: Arctostaphylos
Species: glandulosa
Sample No.: VH251
Owner: UCSB
Wavelength Range: VSWIR
Origin: 37.0443; -119.3026; WGS84
Collection Date: 11/2/2013
Description: Samples were collected as part of the HyspIRI Airborne Campaign. 48 individual plants were sampled in three times in 2013 - spring  summer  and fall. The name of the sample includes a 1  2  or 3 which references a different individual of the species. Samples were taken to JPL and processed within 48 hours of collection. The same leaves were processed in the Nicolet and then measured using the ASD.
Measurement: Bidirectional reflectance
First Column: X
Second Column: Y
X Units: Wavelength (micrometers)
Y Units: Reflectance (percentage)
First X Value: 0.35
Last X Value: 2.5
Number of X Values: 2151
Additional Information: vegetation.shrub.arctostaphylos.glandulosa.vswir.vh251.ucsb.asd.ancillary.txt

 0.3500	 3.8760
 0.3510	 4.1120
 0.3520	 3.9200
 0.3530	 3.7240
 0.3540	 3.8710
 0.3550	 3.8390
 0.3560	 3.7840
 0.3570	 3.7260
 0.3580	 3.6330
 0.3590	 3.6520
 0.3600	 3.7050
 0.3610	 3.7190
 0.3620	 3.6600
 0.3630	 3.5940
 0.3640	 3.5610
 0.3650	 3.5790
 0.3660	 3.6500
 0.3670	 3.6470
 0.3680	 3.5840
 0.3690	 3.5720
 0.3700	 3.6280
 0.3710	 3.6220
 0.3720	 3.5290
 0.3730	 3.5520
 0.3740	 3.5600
 0.3750	 3.5550
 0.3760	 3.5760
 0.3770	 3.6470
 0.3780	 3.6900
 0.3790	 3.6800
 0.3800	 3.6350
 0.3810	 3.6000
 0.3820	 3.5910
 0.3830	 3.6050
 0.3840	 3.6090
 0.3850	 3.5890
 0.3860	 3.5630
 0.3870	 3.5620
 0.3880	 3.5790
 0.3890	 3.5810
 0.3900	 3.5710
 0.3910	 3.5890
 0.3920	 3.6100
 0.3930	 3.6200
 0.3940	 3.6170
 0.3950	 3.6400
 0.3960	 3.6480
 0.3970	 3.6540
 0.3980	 3.6810
 0.3990	 3.6890
 0.4000	 3.6960
 0.4010	 3.7050
 0.4020	 3.6950
 0.4030	 3.7270
 0.4040	 3.7720
 0.4050	 3.7950
 0.4060	 3.8290
 0.4070	 3.8650
 0.4080	 3.8900
 0.4090	 3.8980
 0.4100	 3.9520
 0.4110	 4.0190
 0.4120	 4.0680
 0.4130	 4.1000
 0.4140	 4.1420
 0.4150	 4.1950
 0.4160	 4.2470
 0.4170	 4.2880
 0.4180	 4.3280
 0.4190	 4.3720
 0.4200	 4.4220
 0.4210	 4.4610
 0.4220	 4.5060
 0.4230	 4.5610
 0.4240	 4.5780
 0.4250	 4.6260
 0.4260	 4.6900
 0.4270	 4.7200
 0.4280	 4.7560
 0.4290	 4.7890
 0.4300	 4.8170
 0.4310	 4.8520
 0.4320	 4.8820
 0.4330	 4.9060
 0.4340	 4.9290
 0.4350	 4.9620
 0.4360	 4.9940
 0.4370	 5.0220
 0.4380	 5.0460
 0.4390	 5.0770
 0.4400	 5.1040
 0.4410	 5.1250
 0.4420	 5.1520
 0.4430	 5.1820
 0.4440	 5.2130
 0.4450	 5.2390
 0.4460	 5.2580
 0.4470	 5.2820
 0.4480	 5.3140
 0.4490	 5.3450
 0.4500	 5.3800
 0.4510	 5.4050
 0.4520	 5.4150
 0.4530	 5.4470
 0.4540	 5.4700
 0.4550	 5.4840
 0.4560	 5.5020
 0.4570	 5.5210
 0.4580	 5.5370
 0.4590	 5.5470
 0.4600	 5.5570
 0.4610	 5.5670
 0.4620	 5.5800
 0.4630	 5.5980
 0.4640	 5.6070
 0.4650	 5.6100
 0.4660	 5.6140
 0.4670	 5.6290
 0.4680	 5.6420
 0.4690	 5.6510
 0.4700	 5.6570
 0.4710	 5.6640
 0.4720	 5.6810
 0.4730	 5.6980
 0.4740	 5.6970
 0.4750	 5.6960
 0.4760	 5.7000
 0.4770	 5.7100
 0.4780	 5.7260
 0.4790	 5.7370
 0.4800	 5.7430
 0.4810	 5.7500
 0.4820	 5.7570
 0.4830	 5.7690
 0.4840	 5.7830
 0.4850	 5.7940
 0.4860	 5.7990
 0.4870	 5.8080
 0.4880	 5.8240
 0.4890	 5.8420
 0.4900	 5.8650
 0.4910	 5.8900
 0.4920	 5.9090
 0.4930	 5.9360
 0.4940	 5.9740
 0.4950	 6.0180
 0.4960	 6.0590
 0.4970	 6.1010
 0.4980	 6.1490
 0.4990	 6.2050
 0.5000	 6.2600
 0.5010	 6.3280
 0.5020	 6.4050
 0.5030	 6.4790
 0.5040	 6.5640
 0.5050	 6.6620
 0.5060	 6.7670
 0.5070	 6.8720
 0.5080	 6.9940
 0.5090	 7.1290
 0.5100	 7.2620
 0.5110	 7.4120
 0.5120	 7.5760
 0.5130	 7.7500
 0.5140	 7.9250
 0.5150	 8.1180
 0.5160	 8.3200
 0.5170	 8.5220
 0.5180	 8.7260
 0.5190	 8.9420
 0.5200	 9.1620
 0.5210	 9.3710
 0.5220	 9.5870
 0.5230	 9.7980
 0.5240	 9.9970
 0.5250	10.1870
 0.5260	10.3730
 0.5270	10.5490
 0.5280	10.7090
 0.5290	10.8570
 0.5300	10.9940
 0.5310	11.1180
 0.5320	11.2280
 0.5330	11.3280
 0.5340	11.4200
 0.5350	11.5000
 0.5360	11.5670
 0.5370	11.6300
 0.5380	11.6890
 0.5390	11.7360
 0.5400	11.7790
 0.5410	11.8180
 0.5420	11.8520
 0.5430	11.8840
 0.5440	11.9220
 0.5450	11.9630
 0.5460	12.0010
 0.5470	12.0410
 0.5480	12.0780
 0.5490	12.1100
 0.5500	12.1420
 0.5510	12.1600
 0.5520	12.1690
 0.5530	12.1720
 0.5540	12.1640
 0.5550	12.1440
 0.5560	12.1140
 0.5570	12.0730
 0.5580	12.0180
 0.5590	11.9540
 0.5600	11.8850
 0.5610	11.8050
 0.5620	11.7190
 0.5630	11.6240
 0.5640	11.5180
 0.5650	11.4100
 0.5660	11.2930
 0.5670	11.1700
 0.5680	11.0470
 0.5690	10.9260
 0.5700	10.8000
 0.5710	10.6680
 0.5720	10.5430
 0.5730	10.4240
 0.5740	10.3110
 0.5750	10.2050
 0.5760	10.1090
 0.5770	10.0180
 0.5780	 9.9290
 0.5790	 9.8460
 0.5800	 9.7720
 0.5810	 9.7030
 0.5820	 9.6290
 0.5830	 9.5540
 0.5840	 9.4830
 0.5850	 9.4180
 0.5860	 9.3590
 0.5870	 9.3030
 0.5880	 9.2530
 0.5890	 9.2070
 0.5900	 9.1680
 0.5910	 9.1290
 0.5920	 9.0940
 0.5930	 9.0710
 0.5940	 9.0490
 0.5950	 9.0220
 0.5960	 8.9890
 0.5970	 8.9600
 0.5980	 8.9320
 0.5990	 8.9070
 0.6000	 8.8820
 0.6010	 8.8510
 0.6020	 8.8170
 0.6030	 8.7800
 0.6040	 8.7430
 0.6050	 8.6990
 0.6060	 8.6500
 0.6070	 8.6010
 0.6080	 8.5500
 0.6090	 8.4910
 0.6100	 8.4270
 0.6110	 8.3650
 0.6120	 8.3090
 0.6130	 8.2560
 0.6140	 8.2030
 0.6150	 8.1480
 0.6160	 8.0910
 0.6170	 8.0400
 0.6180	 8.0000
 0.6190	 7.9560
 0.6200	 7.9170
 0.6210	 7.8840
 0.6220	 7.8570
 0.6230	 7.8350
 0.6240	 7.8160
 0.6250	 7.7990
 0.6260	 7.7870
 0.6270	 7.7780
 0.6280	 7.7720
 0.6290	 7.7690
 0.6300	 7.7650
 0.6310	 7.7590
 0.6320	 7.7490
 0.6330	 7.7370
 0.6340	 7.7170
 0.6350	 7.6880
 0.6360	 7.6520
 0.6370	 7.6050
 0.6380	 7.5500
 0.6390	 7.4880
 0.6400	 7.4180
 0.6410	 7.3460
 0.6420	 7.2720
 0.6430	 7.1950
 0.6440	 7.1170
 0.6450	 7.0400
 0.6460	 6.9660
 0.6470	 6.8970
 0.6480	 6.8340
 0.6490	 6.7790
 0.6500	 6.7320
 0.6510	 6.6940
 0.6520	 6.6620
 0.6530	 6.6350
 0.6540	 6.6080
 0.6550	 6.5790
 0.6560	 6.5460
 0.6570	 6.5100
 0.6580	 6.4710
 0.6590	 6.4260
 0.6600	 6.3810
 0.6610	 6.3360
 0.6620	 6.2860
 0.6630	 6.2400
 0.6640	 6.1980
 0.6650	 6.1600
 0.6660	 6.1240
 0.6670	 6.0950
 0.6680	 6.0740
 0.6690	 6.0620
 0.6700	 6.0530
 0.6710	 6.0470
 0.6720	 6.0470
 0.6730	 6.0590
 0.6740	 6.0730
 0.6750	 6.0900
 0.6760	 6.1130
 0.6770	 6.1440
 0.6780	 6.1790
 0.6790	 6.2190
 0.6800	 6.2680
 0.6810	 6.3220
 0.6820	 6.3860
 0.6830	 6.4610
 0.6840	 6.5430
 0.6850	 6.6430
 0.6860	 6.7640
 0.6870	 6.9070
 0.6880	 7.0770
 0.6890	 7.2860
 0.6900	 7.5430
 0.6910	 7.8480
 0.6920	 8.2080
 0.6930	 8.6290
 0.6940	 9.1150
 0.6950	 9.6600
 0.6960	10.2680
 0.6970	10.9340
 0.6980	11.6540
 0.6990	12.4250
 0.7000	13.2400
 0.7010	14.0940
 0.7020	14.9810
 0.7030	15.8950
 0.7040	16.8280
 0.7050	17.7770
 0.7060	18.7460
 0.7070	19.7280
 0.7080	20.7180
 0.7090	21.7170
 0.7100	22.7280
 0.7110	23.7460
 0.7120	24.7690
 0.7130	25.7930
 0.7140	26.8340
 0.7150	27.8790
 0.7160	28.9170
 0.7170	29.9550
 0.7180	30.9990
 0.7190	32.0390
 0.7200	33.0620
 0.7210	34.0920
 0.7220	35.1040
 0.7230	36.0930
 0.7240	37.0780
 0.7250	38.0370
 0.7260	38.9780
 0.7270	39.9020
 0.7280	40.7870
 0.7290	41.6420
 0.7300	42.4670
 0.7310	43.2590
 0.7320	44.0250
 0.7330	44.7590
 0.7340	45.4590
 0.7350	46.1250
 0.7360	46.7590
 0.7370	47.3610
 0.7380	47.9310
 0.7390	48.4730
 0.7400	48.9930
 0.7410	49.4770
 0.7420	49.9130
 0.7430	50.3300
 0.7440	50.7230
 0.7450	51.0890
 0.7460	51.4280
 0.7470	51.7310
 0.7480	52.0130
 0.7490	52.2820
 0.7500	52.5290
 0.7510	52.7500
 0.7520	52.9440
 0.7530	53.1200
 0.7540	53.2920
 0.7550	53.4460
 0.7560	53.5790
 0.7570	53.7010
 0.7580	53.8070
 0.7590	53.9050
 0.7600	54.0010
 0.7610	54.0920
 0.7620	54.1670
 0.7630	54.2310
 0.7640	54.2920
 0.7650	54.3410
 0.7660	54.3860
 0.7670	54.4270
 0.7680	54.4630
 0.7690	54.4990
 0.7700	54.5300
 0.7710	54.5580
 0.7720	54.5920
 0.7730	54.6200
 0.7740	54.6370
 0.7750	54.6460
 0.7760	54.6660
 0.7770	54.6900
 0.7780	54.7130
 0.7790	54.7340
 0.7800	54.7600
 0.7810	54.7810
 0.7820	54.7980
 0.7830	54.8220
 0.7840	54.8400
 0.7850	54.8510
 0.7860	54.8590
 0.7870	54.8770
 0.7880	54.9050
 0.7890	54.9350
 0.7900	54.9560
 0.7910	54.9700
 0.7920	54.9850
 0.7930	55.0040
 0.7940	55.0290
 0.7950	55.0480
 0.7960	55.0650
 0.7970	55.0840
 0.7980	55.1090
 0.7990	55.1310
 0.8000	55.1510
 0.8010	55.1680
 0.8020	55.1910
 0.8030	55.2180
 0.8040	55.2460
 0.8050	55.2710
 0.8060	55.2840
 0.8070	55.3040
 0.8080	55.3320
 0.8090	55.3590
 0.8100	55.3800
 0.8110	55.3960
 0.8120	55.4130
 0.8130	55.4440
 0.8140	55.4750
 0.8150	55.5020
 0.8160	55.5270
 0.8170	55.5540
 0.8180	55.5780
 0.8190	55.5960
 0.8200	55.6120
 0.8210	55.6600
 0.8220	55.6910
 0.8230	55.7050
 0.8240	55.7430
 0.8250	55.7620
 0.8260	55.7800
 0.8270	55.8070
 0.8280	55.8250
 0.8290	55.8570
 0.8300	55.8820
 0.8310	55.8850
 0.8320	55.9040
 0.8330	55.9200
 0.8340	55.9410
 0.8350	55.9780
 0.8360	56.0100
 0.8370	56.0410
 0.8380	56.0710
 0.8390	56.1000
 0.8400	56.1270
 0.8410	56.1490
 0.8420	56.1710
 0.8430	56.2130
 0.8440	56.2460
 0.8450	56.2720
 0.8460	56.2980
 0.8470	56.3290
 0.8480	56.3600
 0.8490	56.3850
 0.8500	56.4030
 0.8510	56.4250
 0.8520	56.4520
 0.8530	56.4810
 0.8540	56.5050
 0.8550	56.5280
 0.8560	56.5580
 0.8570	56.5900
 0.8580	56.6040
 0.8590	56.6230
 0.8600	56.6460
 0.8610	56.6660
 0.8620	56.6860
 0.8630	56.7030
 0.8640	56.7130
 0.8650	56.7180
 0.8660	56.7450
 0.8670	56.7610
 0.8680	56.7730
 0.8690	56.7960
 0.8700	56.8090
 0.8710	56.8190
 0.8720	56.8290
 0.8730	56.8420
 0.8740	56.8560
 0.8750	56.8780
 0.8760	56.8980
 0.8770	56.8900
 0.8780	56.8930
 0.8790	56.8980
 0.8800	56.8960
 0.8810	56.8970
 0.8820	56.9030
 0.8830	56.9050
 0.8840	56.9010
 0.8850	56.9180
 0.8860	56.9210
 0.8870	56.9200
 0.8880	56.9270
 0.8890	56.9190
 0.8900	56.9140
 0.8910	56.9140
 0.8920	56.9100
 0.8930	56.9120
 0.8940	56.9130
 0.8950	56.9070
 0.8960	56.8850
 0.8970	56.8850
 0.8980	56.8860
 0.8990	56.8820
 0.9000	56.8790
 0.9010	56.8790
 0.9020	56.8730
 0.9030	56.8610
 0.9040	56.8580
 0.9050	56.8540
 0.9060	56.8430
 0.9070	56.8290
 0.9080	56.8350
 0.9090	56.8260
 0.9100	56.8030
 0.9110	56.7790
 0.9120	56.7800
 0.9130	56.7690
 0.9140	56.7580
 0.9150	56.7610
 0.9160	56.7390
 0.9170	56.7200
 0.9180	56.7120
 0.9190	56.7100
 0.9200	56.6890
 0.9210	56.6660
 0.9220	56.6500
 0.9230	56.6360
 0.9240	56.6320
 0.9250	56.6100
 0.9260	56.5750
 0.9270	56.5520
 0.9280	56.5260
 0.9290	56.4940
 0.9300	56.4540
 0.9310	56.4090
 0.9320	56.3760
 0.9330	56.3510
 0.9340	56.3220
 0.9350	56.2680
 0.9360	56.2340
 0.9370	56.2010
 0.9380	56.1570
 0.9390	56.1130
 0.9400	56.0660
 0.9410	56.0100
 0.9420	55.9420
 0.9430	55.8740
 0.9440	55.8080
 0.9450	55.7480
 0.9460	55.6890
 0.9470	55.5970
 0.9480	55.5010
 0.9490	55.4060
 0.9500	55.3110
 0.9510	55.2140
 0.9520	55.1010
 0.9530	54.9750
 0.9540	54.8480
 0.9550	54.7300
 0.9560	54.6060
 0.9570	54.4840
 0.9580	54.3760
 0.9590	54.2790
 0.9600	54.1860
 0.9610	54.1020
 0.9620	54.0330
 0.9630	53.9640
 0.9640	53.9080
 0.9650	53.8620
 0.9660	53.8160
 0.9670	53.7780
 0.9680	53.7620
 0.9690	53.7490
 0.9700	53.7160
 0.9710	53.6980
 0.9720	53.6840
 0.9730	53.6770
 0.9740	53.6880
 0.9750	53.7130
 0.9760	53.7110
 0.9770	53.7030
 0.9780	53.7230
 0.9790	53.7250
 0.9800	53.7370
 0.9810	53.7590
 0.9820	53.7790
 0.9830	53.8180
 0.9840	53.8690
 0.9850	53.9140
 0.9860	53.9430
 0.9870	53.9790
 0.9880	54.0170
 0.9890	54.0630
 0.9900	54.1250
 0.9910	54.1810
 0.9920	54.2210
 0.9930	54.2630
 0.9940	54.3310
 0.9950	54.4140
 0.9960	54.4690
 0.9970	54.5180
 0.9980	54.6000
 0.9990	54.6670
 1.0000	54.7580
 1.0010	54.8260
 1.0020	54.9270
 1.0030	54.9940
 1.0040	55.0600
 1.0050	55.1290
 1.0060	55.1960
 1.0070	55.2630
 1.0080	55.3310
 1.0090	55.4010
 1.0100	55.4670
 1.0110	55.5310
 1.0120	55.5990
 1.0130	55.6650
 1.0140	55.7330
 1.0150	55.8050
 1.0160	55.8770
 1.0170	55.9480
 1.0180	56.0140
 1.0190	56.0760
 1.0200	56.1410
 1.0210	56.2040
 1.0220	56.2690
 1.0230	56.3350
 1.0240	56.4060
 1.0250	56.4700
 1.0260	56.5350
 1.0270	56.5960
 1.0280	56.6530
 1.0290	56.7100
 1.0300	56.7630
 1.0310	56.8180
 1.0320	56.8740
 1.0330	56.9290
 1.0340	56.9860
 1.0350	57.0420
 1.0360	57.0940
 1.0370	57.1450
 1.0380	57.1970
 1.0390	57.2460
 1.0400	57.2950
 1.0410	57.3440
 1.0420	57.3910
 1.0430	57.4360
 1.0440	57.4790
 1.0450	57.5220
 1.0460	57.5640
 1.0470	57.6040
 1.0480	57.6440
 1.0490	57.6850
 1.0500	57.7240
 1.0510	57.7610
 1.0520	57.7960
 1.0530	57.8320
 1.0540	57.8680
 1.0550	57.9010
 1.0560	57.9330
 1.0570	57.9660
 1.0580	57.9960
 1.0590	58.0250
 1.0600	58.0570
 1.0610	58.0830
 1.0620	58.1000
 1.0630	58.1240
 1.0640	58.1490
 1.0650	58.1700
 1.0660	58.1960
 1.0670	58.2160
 1.0680	58.2330
 1.0690	58.2450
 1.0700	58.2580
 1.0710	58.2680
 1.0720	58.2800
 1.0730	58.2940
 1.0740	58.3050
 1.0750	58.3170
 1.0760	58.3250
 1.0770	58.3280
 1.0780	58.3320
 1.0790	58.3330
 1.0800	58.3350
 1.0810	58.3390
 1.0820	58.3390
 1.0830	58.3380
 1.0840	58.3360
 1.0850	58.3330
 1.0860	58.3270
 1.0870	58.3200
 1.0880	58.3130
 1.0890	58.3020
 1.0900	58.2850
 1.0910	58.2720
 1.0920	58.2600
 1.0930	58.2460
 1.0940	58.2330
 1.0950	58.2170
 1.0960	58.1990
 1.0970	58.1780
 1.0980	58.1540
 1.0990	58.1310
 1.1000	58.1060
 1.1010	58.0810
 1.1020	58.0570
 1.1030	58.0330
 1.1040	58.0090
 1.1050	57.9840
 1.1060	57.9550
 1.1070	57.9260
 1.1080	57.8950
 1.1090	57.8600
 1.1100	57.8250
 1.1110	57.7890
 1.1120	57.7490
 1.1130	57.7070
 1.1140	57.6610
 1.1150	57.6120
 1.1160	57.5600
 1.1170	57.5090
 1.1180	57.4480
 1.1190	57.3820
 1.1200	57.3130
 1.1210	57.2360
 1.1220	57.1540
 1.1230	57.0670
 1.1240	56.9680
 1.1250	56.8580
 1.1260	56.7380
 1.1270	56.6030
 1.1280	56.4590
 1.1290	56.2980
 1.1300	56.1250
 1.1310	55.9330
 1.1320	55.7250
 1.1330	55.5050
 1.1340	55.2680
 1.1350	55.0190
 1.1360	54.7580
 1.1370	54.4800
 1.1380	54.1910
 1.1390	53.8920
 1.1400	53.5830
 1.1410	53.2730
 1.1420	52.9610
 1.1430	52.6440
 1.1440	52.3310
 1.1450	52.0160
 1.1460	51.7140
 1.1470	51.4090
 1.1480	51.1250
 1.1490	50.8490
 1.1500	50.5900
 1.1510	50.3430
 1.1520	50.1130
 1.1530	49.8960
 1.1540	49.6980
 1.1550	49.5170
 1.1560	49.3510
 1.1570	49.2010
 1.1580	49.0650
 1.1590	48.9410
 1.1600	48.8310
 1.1610	48.7310
 1.1620	48.6420
 1.1630	48.5660
 1.1640	48.4960
 1.1650	48.4330
 1.1660	48.3840
 1.1670	48.3330
 1.1680	48.2870
 1.1690	48.2440
 1.1700	48.2050
 1.1710	48.1670
 1.1720	48.1320
 1.1730	48.0950
 1.1740	48.0590
 1.1750	48.0220
 1.1760	47.9820
 1.1770	47.9420
 1.1780	47.9020
 1.1790	47.8580
 1.1800	47.8130
 1.1810	47.7690
 1.1820	47.7220
 1.1830	47.6750
 1.1840	47.6290
 1.1850	47.5850
 1.1860	47.5400
 1.1870	47.4950
 1.1880	47.4530
 1.1890	47.4120
 1.1900	47.3720
 1.1910	47.3340
 1.1920	47.2980
 1.1930	47.2620
 1.1940	47.2320
 1.1950	47.2030
 1.1960	47.1800
 1.1970	47.1630
 1.1980	47.1470
 1.1990	47.1390
 1.2000	47.1390
 1.2010	47.1420
 1.2020	47.1510
 1.2030	47.1650
 1.2040	47.1870
 1.2050	47.2180
 1.2060	47.2540
 1.2070	47.2970
 1.2080	47.3450
 1.2090	47.4000
 1.2100	47.4610
 1.2110	47.5250
 1.2120	47.5940
 1.2130	47.6670
 1.2140	47.7440
 1.2150	47.8270
 1.2160	47.9150
 1.2170	48.0060
 1.2180	48.1000
 1.2190	48.1980
 1.2200	48.2990
 1.2210	48.4020
 1.2220	48.5060
 1.2230	48.6090
 1.2240	48.7120
 1.2250	48.8110
 1.2260	48.9100
 1.2270	49.0090
 1.2280	49.1050
 1.2290	49.2020
 1.2300	49.2960
 1.2310	49.3850
 1.2320	49.4700
 1.2330	49.5530
 1.2340	49.6340
 1.2350	49.7120
 1.2360	49.7870
 1.2370	49.8620
 1.2380	49.9330
 1.2390	49.9990
 1.2400	50.0670
 1.2410	50.1330
 1.2420	50.1960
 1.2430	50.2600
 1.2440	50.3210
 1.2450	50.3790
 1.2460	50.4390
 1.2470	50.4940
 1.2480	50.5450
 1.2490	50.5930
 1.2500	50.6370
 1.2510	50.6810
 1.2520	50.7240
 1.2530	50.7670
 1.2540	50.8100
 1.2550	50.8470
 1.2560	50.8830
 1.2570	50.9190
 1.2580	50.9500
 1.2590	50.9790
 1.2600	51.0060
 1.2610	51.0300
 1.2620	51.0490
 1.2630	51.0700
 1.2640	51.0890
 1.2650	51.1050
 1.2660	51.1220
 1.2670	51.1320
 1.2680	51.1380
 1.2690	51.1460
 1.2700	51.1480
 1.2710	51.1500
 1.2720	51.1510
 1.2730	51.1470
 1.2740	51.1440
 1.2750	51.1360
 1.2760	51.1260
 1.2770	51.1160
 1.2780	51.1030
 1.2790	51.0860
 1.2800	51.0670
 1.2810	51.0450
 1.2820	51.0190
 1.2830	50.9900
 1.2840	50.9580
 1.2850	50.9240
 1.2860	50.8850
 1.2870	50.8420
 1.2880	50.7970
 1.2890	50.7480
 1.2900	50.6960
 1.2910	50.6410
 1.2920	50.5830
 1.2930	50.5210
 1.2940	50.4540
 1.2950	50.3830
 1.2960	50.3080
 1.2970	50.2300
 1.2980	50.1470
 1.2990	50.0560
 1.3000	49.9610
 1.3010	49.8590
 1.3020	49.7520
 1.3030	49.6420
 1.3040	49.5270
 1.3050	49.4080
 1.3060	49.2830
 1.3070	49.1530
 1.3080	49.0200
 1.3090	48.8790
 1.3100	48.7290
 1.3110	48.5750
 1.3120	48.4140
 1.3130	48.2480
 1.3140	48.0780
 1.3150	47.9030
 1.3160	47.7210
 1.3170	47.5340
 1.3180	47.3420
 1.3190	47.1420
 1.3200	46.9380
 1.3210	46.7300
 1.3220	46.5160
 1.3230	46.3010
 1.3240	46.0830
 1.3250	45.8600
 1.3260	45.6340
 1.3270	45.4030
 1.3280	45.1700
 1.3290	44.9330
 1.3300	44.6940
 1.3310	44.4550
 1.3320	44.2120
 1.3330	43.9720
 1.3340	43.7300
 1.3350	43.4870
 1.3360	43.2440
 1.3370	43.0010
 1.3380	42.7600
 1.3390	42.5210
 1.3400	42.2840
 1.3410	42.0550
 1.3420	41.8260
 1.3430	41.5990
 1.3440	41.3750
 1.3450	41.1540
 1.3460	40.9330
 1.3470	40.7190
 1.3480	40.5090
 1.3490	40.3020
 1.3500	40.0990
 1.3510	39.9000
 1.3520	39.7020
 1.3530	39.5060
 1.3540	39.3120
 1.3550	39.1170
 1.3560	38.9240
 1.3570	38.7290
 1.3580	38.5370
 1.3590	38.3400
 1.3600	38.1380
 1.3610	37.9330
 1.3620	37.7200
 1.3630	37.5000
 1.3640	37.2770
 1.3650	37.0430
 1.3660	36.8010
 1.3670	36.5490
 1.3680	36.2840
 1.3690	36.0080
 1.3700	35.7150
 1.3710	35.4090
 1.3720	35.0890
 1.3730	34.7480
 1.3740	34.3950
 1.3750	34.0240
 1.3760	33.6300
 1.3770	33.2160
 1.3780	32.7760
 1.3790	32.3150
 1.3800	31.8340
 1.3810	31.3270
 1.3820	30.8060
 1.3830	30.2680
 1.3840	29.7160
 1.3850	29.1470
 1.3860	28.5710
 1.3870	27.9770
 1.3880	27.3870
 1.3890	26.7890
 1.3900	26.1900
 1.3910	25.5990
 1.3920	25.0090
 1.3930	24.4230
 1.3940	23.8450
 1.3950	23.2720
 1.3960	22.7120
 1.3970	22.1670
 1.3980	21.6360
 1.3990	21.1280
 1.4000	20.6360
 1.4010	20.1600
 1.4020	19.7090
 1.4030	19.2740
 1.4040	18.8610
 1.4050	18.4710
 1.4060	18.1000
 1.4070	17.7530
 1.4080	17.4260
 1.4090	17.1180
 1.4100	16.8330
 1.4110	16.5640
 1.4120	16.3120
 1.4130	16.0800
 1.4140	15.8640
 1.4150	15.6660
 1.4160	15.4830
 1.4170	15.3130
 1.4180	15.1570
 1.4190	15.0130
 1.4200	14.8800
 1.4210	14.7580
 1.4220	14.6460
 1.4230	14.5430
 1.4240	14.4500
 1.4250	14.3640
 1.4260	14.2880
 1.4270	14.2170
 1.4280	14.1540
 1.4290	14.0970
 1.4300	14.0480
 1.4310	14.0040
 1.4320	13.9660
 1.4330	13.9320
 1.4340	13.9030
 1.4350	13.8790
 1.4360	13.8590
 1.4370	13.8430
 1.4380	13.8320
 1.4390	13.8230
 1.4400	13.8180
 1.4410	13.8160
 1.4420	13.8170
 1.4430	13.8200
 1.4440	13.8250
 1.4450	13.8330
 1.4460	13.8420
 1.4470	13.8530
 1.4480	13.8660
 1.4490	13.8810
 1.4500	13.8960
 1.4510	13.9130
 1.4520	13.9310
 1.4530	13.9500
 1.4540	13.9720
 1.4550	13.9950
 1.4560	14.0200
 1.4570	14.0460
 1.4580	14.0750
 1.4590	14.1060
 1.4600	14.1400
 1.4610	14.1780
 1.4620	14.2200
 1.4630	14.2660
 1.4640	14.3150
 1.4650	14.3670
 1.4660	14.4240
 1.4670	14.4850
 1.4680	14.5500
 1.4690	14.6190
 1.4700	14.6910
 1.4710	14.7680
 1.4720	14.8480
 1.4730	14.9310
 1.4740	15.0200
 1.4750	15.1100
 1.4760	15.2030
 1.4770	15.2980
 1.4780	15.3940
 1.4790	15.4920
 1.4800	15.5920
 1.4810	15.6930
 1.4820	15.7960
 1.4830	15.9010
 1.4840	16.0070
 1.4850	16.1160
 1.4860	16.2250
 1.4870	16.3350
 1.4880	16.4470
 1.4890	16.5590
 1.4900	16.6720
 1.4910	16.7860
 1.4920	16.9010
 1.4930	17.0160
 1.4940	17.1310
 1.4950	17.2470
 1.4960	17.3630
 1.4970	17.4790
 1.4980	17.5960
 1.4990	17.7140
 1.5000	17.8320
 1.5010	17.9500
 1.5020	18.0680
 1.5030	18.1870
 1.5040	18.3040
 1.5050	18.4210
 1.5060	18.5390
 1.5070	18.6570
 1.5080	18.7750
 1.5090	18.8930
 1.5100	19.0100
 1.5110	19.1270
 1.5120	19.2440
 1.5130	19.3590
 1.5140	19.4740
 1.5150	19.5890
 1.5160	19.7020
 1.5170	19.8150
 1.5180	19.9260
 1.5190	20.0370
 1.5200	20.1470
 1.5210	20.2560
 1.5220	20.3660
 1.5230	20.4760
 1.5240	20.5850
 1.5250	20.6950
 1.5260	20.8030
 1.5270	20.9090
 1.5280	21.0140
 1.5290	21.1180
 1.5300	21.2200
 1.5310	21.3220
 1.5320	21.4240
 1.5330	21.5260
 1.5340	21.6270
 1.5350	21.7270
 1.5360	21.8270
 1.5370	21.9250
 1.5380	22.0230
 1.5390	22.1220
 1.5400	22.2190
 1.5410	22.3170
 1.5420	22.4130
 1.5430	22.5080
 1.5440	22.6030
 1.5450	22.6960
 1.5460	22.7900
 1.5470	22.8830
 1.5480	22.9750
 1.5490	23.0690
 1.5500	23.1610
 1.5510	23.2520
 1.5520	23.3420
 1.5530	23.4290
 1.5540	23.5190
 1.5550	23.6090
 1.5560	23.6980
 1.5570	23.7880
 1.5580	23.8760
 1.5590	23.9630
 1.5600	24.0500
 1.5610	24.1350
 1.5620	24.2180
 1.5630	24.3020
 1.5640	24.3860
 1.5650	24.4710
 1.5660	24.5540
 1.5670	24.6360
 1.5680	24.7170
 1.5690	24.7980
 1.5700	24.8780
 1.5710	24.9600
 1.5720	25.0410
 1.5730	25.1200
 1.5740	25.1990
 1.5750	25.2780
 1.5760	25.3580
 1.5770	25.4370
 1.5780	25.5160
 1.5790	25.5960
 1.5800	25.6740
 1.5810	25.7520
 1.5820	25.8290
 1.5830	25.9030
 1.5840	25.9790
 1.5850	26.0530
 1.5860	26.1280
 1.5870	26.2050
 1.5880	26.2810
 1.5890	26.3570
 1.5900	26.4330
 1.5910	26.5080
 1.5920	26.5840
 1.5930	26.6600
 1.5940	26.7360
 1.5950	26.8120
 1.5960	26.8860
 1.5970	26.9610
 1.5980	27.0350
 1.5990	27.1100
 1.6000	27.1840
 1.6010	27.2550
 1.6020	27.3270
 1.6030	27.3980
 1.6040	27.4680
 1.6050	27.5400
 1.6060	27.6100
 1.6070	27.6800
 1.6080	27.7490
 1.6090	27.8180
 1.6100	27.8870
 1.6110	27.9550
 1.6120	28.0210
 1.6130	28.0870
 1.6140	28.1520
 1.6150	28.2160
 1.6160	28.2800
 1.6170	28.3420
 1.6180	28.4020
 1.6190	28.4610
 1.6200	28.5200
 1.6210	28.5770
 1.6220	28.6320
 1.6230	28.6850
 1.6240	28.7380
 1.6250	28.7880
 1.6260	28.8380
 1.6270	28.8900
 1.6280	28.9400
 1.6290	28.9880
 1.6300	29.0360
 1.6310	29.0830
 1.6320	29.1290
 1.6330	29.1760
 1.6340	29.2240
 1.6350	29.2700
 1.6360	29.3150
 1.6370	29.3570
 1.6380	29.3970
 1.6390	29.4350
 1.6400	29.4720
 1.6410	29.5050
 1.6420	29.5360
 1.6430	29.5650
 1.6440	29.5880
 1.6450	29.6120
 1.6460	29.6340
 1.6470	29.6540
 1.6480	29.6710
 1.6490	29.6850
 1.6500	29.6970
 1.6510	29.7060
 1.6520	29.7130
 1.6530	29.7160
 1.6540	29.7160
 1.6550	29.7130
 1.6560	29.7080
 1.6570	29.7010
 1.6580	29.6920
 1.6590	29.6810
 1.6600	29.6670
 1.6610	29.6520
 1.6620	29.6360
 1.6630	29.6200
 1.6640	29.6030
 1.6650	29.5870
 1.6660	29.5690
 1.6670	29.5510
 1.6680	29.5320
 1.6690	29.5140
 1.6700	29.4950
 1.6710	29.4750
 1.6720	29.4550
 1.6730	29.4330
 1.6740	29.4090
 1.6750	29.3830
 1.6760	29.3550
 1.6770	29.3240
 1.6780	29.2910
 1.6790	29.2550
 1.6800	29.2160
 1.6810	29.1730
 1.6820	29.1260
 1.6830	29.0730
 1.6840	29.0160
 1.6850	28.9540
 1.6860	28.8880
 1.6870	28.8190
 1.6880	28.7460
 1.6890	28.6700
 1.6900	28.5900
 1.6910	28.5050
 1.6920	28.4180
 1.6930	28.3280
 1.6940	28.2370
 1.6950	28.1450
 1.6960	28.0520
 1.6970	27.9570
 1.6980	27.8600
 1.6990	27.7600
 1.7000	27.6610
 1.7010	27.5620
 1.7020	27.4600
 1.7030	27.3570
 1.7040	27.2520
 1.7050	27.1410
 1.7060	27.0340
 1.7070	26.9250
 1.7080	26.8200
 1.7090	26.7150
 1.7100	26.6150
 1.7110	26.5160
 1.7120	26.4250
 1.7130	26.3380
 1.7140	26.2570
 1.7150	26.1820
 1.7160	26.1110
 1.7170	26.0440
 1.7180	25.9810
 1.7190	25.9240
 1.7200	25.8710
 1.7210	25.8210
 1.7220	25.7730
 1.7230	25.7290
 1.7240	25.6880
 1.7250	25.6520
 1.7260	25.6200
 1.7270	25.5940
 1.7280	25.5720
 1.7290	25.5510
 1.7300	25.5380
 1.7310	25.5260
 1.7320	25.5170
 1.7330	25.5100
 1.7340	25.5070
 1.7350	25.5000
 1.7360	25.4950
 1.7370	25.4820
 1.7380	25.4650
 1.7390	25.4410
 1.7400	25.4110
 1.7410	25.3740
 1.7420	25.3300
 1.7430	25.2810
 1.7440	25.2250
 1.7450	25.1660
 1.7460	25.1010
 1.7470	25.0360
 1.7480	24.9670
 1.7490	24.8990
 1.7500	24.8300
 1.7510	24.7620
 1.7520	24.6940
 1.7530	24.6270
 1.7540	24.5610
 1.7550	24.4980
 1.7560	24.4390
 1.7570	24.3850
 1.7580	24.3310
 1.7590	24.2800
 1.7600	24.2330
 1.7610	24.1880
 1.7620	24.1480
 1.7630	24.1130
 1.7640	24.0790
 1.7650	24.0460
 1.7660	24.0160
 1.7670	23.9890
 1.7680	23.9620
 1.7690	23.9380
 1.7700	23.9130
 1.7710	23.8860
 1.7720	23.8610
 1.7730	23.8370
 1.7740	23.8130
 1.7750	23.7890
 1.7760	23.7670
 1.7770	23.7440
 1.7780	23.7250
 1.7790	23.7090
 1.7800	23.6960
 1.7810	23.6860
 1.7820	23.6790
 1.7830	23.6750
 1.7840	23.6750
 1.7850	23.6790
 1.7860	23.6810
 1.7870	23.6850
 1.7880	23.6890
 1.7890	23.6940
 1.7900	23.7030
 1.7910	23.7100
 1.7920	23.7170
 1.7930	23.7260
 1.7940	23.7350
 1.7950	23.7460
 1.7960	23.7610
 1.7970	23.7740
 1.7980	23.7890
 1.7990	23.8020
 1.8000	23.8150
 1.8010	23.8280
 1.8020	23.8400
 1.8030	23.8530
 1.8040	23.8670
 1.8050	23.8800
 1.8060	23.8950
 1.8070	23.9080
 1.8080	23.9210
 1.8090	23.9340
 1.8100	23.9470
 1.8110	23.9590
 1.8120	23.9700
 1.8130	23.9810
 1.8140	23.9910
 1.8150	24.0010
 1.8160	24.0120
 1.8170	24.0210
 1.8180	24.0290
 1.8190	24.0300
 1.8200	24.0330
 1.8210	24.0350
 1.8220	24.0360
 1.8230	24.0420
 1.8240	24.0420
 1.8250	24.0370
 1.8260	24.0340
 1.8270	24.0280
 1.8280	24.0200
 1.8290	24.0110
 1.8300	24.0440
 1.8310	24.1310
 1.8320	24.1530
 1.8330	24.1280
 1.8340	24.0990
 1.8350	24.0720
 1.8360	24.0400
 1.8370	24.0040
 1.8380	23.9640
 1.8390	23.9170
 1.8400	23.8620
 1.8410	23.8040
 1.8420	23.7410
 1.8430	23.6680
 1.8440	23.5910
 1.8450	23.5100
 1.8460	23.4180
 1.8470	23.3200
 1.8480	23.2140
 1.8490	23.0980
 1.8500	22.9730
 1.8510	22.8410
 1.8520	22.6980
 1.8530	22.5420
 1.8540	22.3700
 1.8550	22.1830
 1.8560	21.9850
 1.8570	21.7740
 1.8580	21.5510
 1.8590	21.3160
 1.8600	21.0680
 1.8610	20.8060
 1.8620	20.5300
 1.8630	20.2430
 1.8640	19.9420
 1.8650	19.6280
 1.8660	19.2990
 1.8670	18.9510
 1.8680	18.5880
 1.8690	18.2100
 1.8700	17.8170
 1.8710	17.4080
 1.8720	16.9930
 1.8730	16.5660
 1.8740	16.1280
 1.8750	15.6840
 1.8760	15.2330
 1.8770	14.7780
 1.8780	14.3230
 1.8790	13.8670
 1.8800	13.4190
 1.8810	12.9750
 1.8820	12.5370
 1.8830	12.1020
 1.8840	11.6750
 1.8850	11.2520
 1.8860	10.8340
 1.8870	10.4310
 1.8880	10.0410
 1.8890	 9.6680
 1.8900	 9.3120
 1.8910	 8.9730
 1.8920	 8.6500
 1.8930	 8.3460
 1.8940	 8.0560
 1.8950	 7.7880
 1.8960	 7.5400
 1.8970	 7.3070
 1.8980	 7.0970
 1.8990	 6.9030
 1.9000	 6.7220
 1.9010	 6.5580
 1.9020	 6.4060
 1.9030	 6.2650
 1.9040	 6.1410
 1.9050	 6.0320
 1.9060	 5.9330
 1.9070	 5.8460
 1.9080	 5.7680
 1.9090	 5.6960
 1.9100	 5.6320
 1.9110	 5.5750
 1.9120	 5.5280
 1.9130	 5.4840
 1.9140	 5.4460
 1.9150	 5.4100
 1.9160	 5.3810
 1.9170	 5.3520
 1.9180	 5.3260
 1.9190	 5.3080
 1.9200	 5.2910
 1.9210	 5.2770
 1.9220	 5.2670
 1.9230	 5.2600
 1.9240	 5.2550
 1.9250	 5.2520
 1.9260	 5.2520
 1.9270	 5.2530
 1.9280	 5.2550
 1.9290	 5.2570
 1.9300	 5.2630
 1.9310	 5.2670
 1.9320	 5.2740
 1.9330	 5.2840
 1.9340	 5.2960
 1.9350	 5.3090
 1.9360	 5.3260
 1.9370	 5.3430
 1.9380	 5.3630
 1.9390	 5.3840
 1.9400	 5.4060
 1.9410	 5.4290
 1.9420	 5.4510
 1.9430	 5.4750
 1.9440	 5.5000
 1.9450	 5.5260
 1.9460	 5.5540
 1.9470	 5.5830
 1.9480	 5.6130
 1.9490	 5.6420
 1.9500	 5.6750
 1.9510	 5.7070
 1.9520	 5.7390
 1.9530	 5.7750
 1.9540	 5.8110
 1.9550	 5.8480
 1.9560	 5.8860
 1.9570	 5.9250
 1.9580	 5.9610
 1.9590	 6.0010
 1.9600	 6.0430
 1.9610	 6.0850
 1.9620	 6.1300
 1.9630	 6.1750
 1.9640	 6.2210
 1.9650	 6.2650
 1.9660	 6.3090
 1.9670	 6.3550
 1.9680	 6.4010
 1.9690	 6.4470
 1.9700	 6.4940
 1.9710	 6.5420
 1.9720	 6.5900
 1.9730	 6.6400
 1.9740	 6.6900
 1.9750	 6.7420
 1.9760	 6.7960
 1.9770	 6.8470
 1.9780	 6.8990
 1.9790	 6.9520
 1.9800	 7.0050
 1.9810	 7.0600
 1.9820	 7.1180
 1.9830	 7.1740
 1.9840	 7.2330
 1.9850	 7.2890
 1.9860	 7.3430
 1.9870	 7.3980
 1.9880	 7.4520
 1.9890	 7.5080
 1.9900	 7.5680
 1.9910	 7.6290
 1.9920	 7.6890
 1.9930	 7.7490
 1.9940	 7.8090
 1.9950	 7.8660
 1.9960	 7.9260
 1.9970	 7.9860
 1.9980	 8.0460
 1.9990	 8.1060
 2.0000	 8.1660
 2.0010	 8.2230
 2.0020	 8.2830
 2.0030	 8.3420
 2.0040	 8.4000
 2.0050	 8.4590
 2.0060	 8.5190
 2.0070	 8.5770
 2.0080	 8.6370
 2.0090	 8.6950
 2.0100	 8.7520
 2.0110	 8.8100
 2.0120	 8.8670
 2.0130	 8.9220
 2.0140	 8.9790
 2.0150	 9.0360
 2.0160	 9.0900
 2.0170	 9.1430
 2.0180	 9.1960
 2.0190	 9.2470
 2.0200	 9.2990
 2.0210	 9.3490
 2.0220	 9.4010
 2.0230	 9.4520
 2.0240	 9.5020
 2.0250	 9.5530
 2.0260	 9.6010
 2.0270	 9.6460
 2.0280	 9.6930
 2.0290	 9.7390
 2.0300	 9.7840
 2.0310	 9.8290
 2.0320	 9.8740
 2.0330	 9.9180
 2.0340	 9.9600
 2.0350	10.0010
 2.0360	10.0390
 2.0370	10.0780
 2.0380	10.1160
 2.0390	10.1530
 2.0400	10.1890
 2.0410	10.2250
 2.0420	10.2610
 2.0430	10.2970
 2.0440	10.3320
 2.0450	10.3690
 2.0460	10.4040
 2.0470	10.4360
 2.0480	10.4690
 2.0490	10.5000
 2.0500	10.5330
 2.0510	10.5680
 2.0520	10.6000
 2.0530	10.6330
 2.0540	10.6650
 2.0550	10.6940
 2.0560	10.7200
 2.0570	10.7500
 2.0580	10.7800
 2.0590	10.8110
 2.0600	10.8440
 2.0610	10.8760
 2.0620	10.9060
 2.0630	10.9370
 2.0640	10.9670
 2.0650	10.9970
 2.0660	11.0270
 2.0670	11.0580
 2.0680	11.0910
 2.0690	11.1230
 2.0700	11.1550
 2.0710	11.1860
 2.0720	11.2150
 2.0730	11.2450
 2.0740	11.2750
 2.0750	11.3060
 2.0760	11.3360
 2.0770	11.3670
 2.0780	11.3980
 2.0790	11.4300
 2.0800	11.4610
 2.0810	11.4920
 2.0820	11.5230
 2.0830	11.5510
 2.0840	11.5810
 2.0850	11.6130
 2.0860	11.6450
 2.0870	11.6780
 2.0880	11.7100
 2.0890	11.7420
 2.0900	11.7740
 2.0910	11.8040
 2.0920	11.8320
 2.0930	11.8620
 2.0940	11.8900
 2.0950	11.9200
 2.0960	11.9510
 2.0970	11.9830
 2.0980	12.0160
 2.0990	12.0490
 2.1000	12.0870
 2.1010	12.1220
 2.1020	12.1570
 2.1030	12.1920
 2.1040	12.2240
 2.1050	12.2590
 2.1060	12.2940
 2.1070	12.3300
 2.1080	12.3650
 2.1090	12.4030
 2.1100	12.4390
 2.1110	12.4750
 2.1120	12.5120
 2.1130	12.5500
 2.1140	12.5860
 2.1150	12.6240
 2.1160	12.6580
 2.1170	12.6890
 2.1180	12.7220
 2.1190	12.7550
 2.1200	12.7870
 2.1210	12.8180
 2.1220	12.8490
 2.1230	12.8780
 2.1240	12.9050
 2.1250	12.9340
 2.1260	12.9630
 2.1270	12.9920
 2.1280	13.0230
 2.1290	13.0530
 2.1300	13.0830
 2.1310	13.1120
 2.1320	13.1390
 2.1330	13.1680
 2.1340	13.2000
 2.1350	13.2300
 2.1360	13.2580
 2.1370	13.2870
 2.1380	13.3130
 2.1390	13.3400
 2.1400	13.3700
 2.1410	13.4000
 2.1420	13.4290
 2.1430	13.4590
 2.1440	13.4880
 2.1450	13.5150
 2.1460	13.5410
 2.1470	13.5660
 2.1480	13.5930
 2.1490	13.6230
 2.1500	13.6500
 2.1510	13.6800
 2.1520	13.7070
 2.1530	13.7340
 2.1540	13.7590
 2.1550	13.7820
 2.1560	13.8060
 2.1570	13.8260
 2.1580	13.8530
 2.1590	13.8830
 2.1600	13.9170
 2.1610	13.9530
 2.1620	13.9840
 2.1630	14.0130
 2.1640	14.0370
 2.1650	14.0650
 2.1660	14.0910
 2.1670	14.1190
 2.1680	14.1480
 2.1690	14.1760
 2.1700	14.2040
 2.1710	14.2310
 2.1720	14.2570
 2.1730	14.2830
 2.1740	14.3060
 2.1750	14.3310
 2.1760	14.3550
 2.1770	14.3800
 2.1780	14.4060
 2.1790	14.4310
 2.1800	14.4580
 2.1810	14.4840
 2.1820	14.5080
 2.1830	14.5330
 2.1840	14.5590
 2.1850	14.5850
 2.1860	14.6100
 2.1870	14.6390
 2.1880	14.6610
 2.1890	14.6780
 2.1900	14.6990
 2.1910	14.7180
 2.1920	14.7370
 2.1930	14.7610
 2.1940	14.7810
 2.1950	14.8000
 2.1960	14.8190
 2.1970	14.8390
 2.1980	14.8570
 2.1990	14.8770
 2.2000	14.8940
 2.2010	14.9080
 2.2020	14.9210
 2.2030	14.9320
 2.2040	14.9420
 2.2050	14.9520
 2.2060	14.9620
 2.2070	14.9730
 2.2080	14.9820
 2.2090	14.9920
 2.2100	15.0020
 2.2110	15.0090
 2.2120	15.0150
 2.2130	15.0170
 2.2140	15.0160
 2.2150	15.0150
 2.2160	15.0110
 2.2170	15.0090
 2.2180	15.0070
 2.2190	15.0020
 2.2200	14.9960
 2.2210	14.9870
 2.2220	14.9730
 2.2230	14.9590
 2.2240	14.9450
 2.2250	14.9260
 2.2260	14.9060
 2.2270	14.8810
 2.2280	14.8480
 2.2290	14.8160
 2.2300	14.7820
 2.2310	14.7470
 2.2320	14.7090
 2.2330	14.6720
 2.2340	14.6320
 2.2350	14.5890
 2.2360	14.5410
 2.2370	14.4890
 2.2380	14.4380
 2.2390	14.3840
 2.2400	14.3310
 2.2410	14.2790
 2.2420	14.2230
 2.2430	14.1640
 2.2440	14.1010
 2.2450	14.0330
 2.2460	13.9670
 2.2470	13.8990
 2.2480	13.8290
 2.2490	13.7590
 2.2500	13.6880
 2.2510	13.6120
 2.2520	13.5370
 2.2530	13.4650
 2.2540	13.3880
 2.2550	13.3120
 2.2560	13.2310
 2.2570	13.1430
 2.2580	13.0580
 2.2590	12.9690
 2.2600	12.8830
 2.2610	12.8000
 2.2620	12.7190
 2.2630	12.6350
 2.2640	12.5540
 2.2650	12.4760
 2.2660	12.3960
 2.2670	12.3190
 2.2680	12.2460
 2.2690	12.1750
 2.2700	12.1070
 2.2710	12.0420
 2.2720	11.9820
 2.2730	11.9200
 2.2740	11.8590
 2.2750	11.8020
 2.2760	11.7460
 2.2770	11.6990
 2.2780	11.6610
 2.2790	11.6190
 2.2800	11.5820
 2.2810	11.5390
 2.2820	11.4930
 2.2830	11.4470
 2.2840	11.3990
 2.2850	11.3510
 2.2860	11.3030
 2.2870	11.2530
 2.2880	11.2030
 2.2890	11.1490
 2.2900	11.0940
 2.2910	11.0350
 2.2920	10.9710
 2.2930	10.9060
 2.2940	10.8380
 2.2950	10.7710
 2.2960	10.7000
 2.2970	10.6330
 2.2980	10.5690
 2.2990	10.5030
 2.3000	10.4430
 2.3010	10.3910
 2.3020	10.3380
 2.3030	10.2880
 2.3040	10.2380
 2.3050	10.1930
 2.3060	10.1620
 2.3070	10.1340
 2.3080	10.1110
 2.3090	10.0960
 2.3100	10.0840
 2.3110	10.0770
 2.3120	10.0750
 2.3130	10.0850
 2.3140	10.0900
 2.3150	10.0950
 2.3160	10.1020
 2.3170	10.1100
 2.3180	10.1150
 2.3190	10.1220
 2.3200	10.1230
 2.3210	10.1220
 2.3220	10.1160
 2.3230	10.1060
 2.3240	10.0930
 2.3250	10.0760
 2.3260	10.0550
 2.3270	10.0280
 2.3280	10.0000
 2.3290	 9.9670
 2.3300	 9.9350
 2.3310	 9.9040
 2.3320	 9.8710
 2.3330	 9.8360
 2.3340	 9.8020
 2.3350	 9.7660
 2.3360	 9.7310
 2.3370	 9.6970
 2.3380	 9.6610
 2.3390	 9.6220
 2.3400	 9.5850
 2.3410	 9.5480
 2.3420	 9.5110
 2.3430	 9.4780
 2.3440	 9.4430
 2.3450	 9.4070
 2.3460	 9.3730
 2.3470	 9.3370
 2.3480	 9.3050
 2.3490	 9.2760
 2.3500	 9.2480
 2.3510	 9.2240
 2.3520	 9.2010
 2.3530	 9.1770
 2.3540	 9.1640
 2.3550	 9.1570
 2.3560	 9.1480
 2.3570	 9.1420
 2.3580	 9.1300
 2.3590	 9.1090
 2.3600	 9.0940
 2.3610	 9.0780
 2.3620	 9.0540
 2.3630	 9.0330
 2.3640	 9.0140
 2.3650	 8.9940
 2.3660	 8.9760
 2.3670	 8.9600
 2.3680	 8.9350
 2.3690	 8.9120
 2.3700	 8.8940
 2.3710	 8.8710
 2.3720	 8.8510
 2.3730	 8.8260
 2.3740	 8.7930
 2.3750	 8.7620
 2.3760	 8.7260
 2.3770	 8.6890
 2.3780	 8.6550
 2.3790	 8.6310
 2.3800	 8.6110
 2.3810	 8.5880
 2.3820	 8.5690
 2.3830	 8.5440
 2.3840	 8.5130
 2.3850	 8.4900
 2.3860	 8.4690
 2.3870	 8.4420
 2.3880	 8.4190
 2.3890	 8.4010
 2.3900	 8.3810
 2.3910	 8.3490
 2.3920	 8.3180
 2.3930	 8.2840
 2.3940	 8.2450
 2.3950	 8.2210
 2.3960	 8.2030
 2.3970	 8.1810
 2.3980	 8.1550
 2.3990	 8.1210
 2.4000	 8.0840
 2.4010	 8.0530
 2.4020	 8.0270
 2.4030	 8.0010
 2.4040	 7.9810
 2.4050	 7.9610
 2.4060	 7.9320
 2.4070	 7.9090
 2.4080	 7.8800
 2.4090	 7.8390
 2.4100	 7.8070
 2.4110	 7.7680
 2.4120	 7.7290
 2.4130	 7.7050
 2.4140	 7.6760
 2.4150	 7.6510
 2.4160	 7.6320
 2.4170	 7.5970
 2.4180	 7.5570
 2.4190	 7.5240
 2.4200	 7.4900
 2.4210	 7.4680
 2.4220	 7.4410
 2.4230	 7.4010
 2.4240	 7.3630
 2.4250	 7.3230
 2.4260	 7.2950
 2.4270	 7.2780
 2.4280	 7.2500
 2.4290	 7.2130
 2.4300	 7.1740
 2.4310	 7.1370
 2.4320	 7.1130
 2.4330	 7.1030
 2.4340	 7.0790
 2.4350	 7.0390
 2.4360	 7.0040
 2.4370	 6.9580
 2.4380	 6.9090
 2.4390	 6.8770
 2.4400	 6.8370
 2.4410	 6.7900
 2.4420	 6.7630
 2.4430	 6.7350
 2.4440	 6.7170
 2.4450	 6.7000
 2.4460	 6.6630
 2.4470	 6.6260
 2.4480	 6.5750
 2.4490	 6.5210
 2.4500	 6.4940
 2.4510	 6.4790
 2.4520	 6.4600
 2.4530	 6.4440
 2.4540	 6.4160
 2.4550	 6.3740
 2.4560	 6.3190
 2.4570	 6.2750
 2.4580	 6.2290
 2.4590	 6.1810
 2.4600	 6.1690
 2.4610	 6.1520
 2.4620	 6.1320
 2.4630	 6.1190
 2.4640	 6.0770
 2.4650	 6.0210
 2.4660	 5.9790
 2.4670	 5.9570
 2.4680	 5.9480
 2.4690	 5.9390
 2.4700	 5.9300
 2.4710	 5.9130
 2.4720	 5.8920
 2.4730	 5.8800
 2.4740	 5.8500
 2.4750	 5.7880
 2.4760	 5.7570
 2.4770	 5.7400
 2.4780	 5.7200
 2.4790	 5.7060
 2.4800	 5.6930
 2.4810	 5.6700
 2.4820	 5.6710
 2.4830	 5.6980
 2.4840	 5.7250
 2.4850	 5.7320
 2.4860	 5.7080
 2.4870	 5.6690
 2.4880	 5.6320
 2.4890	 5.6050
 2.4900	 5.5770
 2.4910	 5.5460
 2.4920	 5.5300
 2.4930	 5.5100
 2.4940	 5.4810
 2.4950	 5.4900
 2.4960	 5.4990
 2.4970	 5.4970
 2.4980	 5.5260
 2.4990	 5.5250
 2.5000	 5.5170
