Name: Eucalyptus kartzoffiana
Type: vegetation
Class: Tree
Genus: Eucalyptus
Species: kartzoffiana
Sample No.: JPL221
Owner: JPL
Wavelength Range: VSWIR
Origin: 34.12439; -118.11369; WGS84
Collection Date: 10/3/2016
Description: Samples were collected at the Huntington Garden in San Marino California as part of a JPL Subcontract studying HyTES imagery. Samples were taken to JPL and processed within 48 hours of collection. The same leaves were processed in the Nicolet and then measured using the ASD.
Measurement: Bidirectional reflectance
First Column: X
Second Column: Y
X Units: Wavelength (micrometer)
Y Units: Reflectance (percentage)
First X Value: 0.35
Last X Value: 2.5
Number of X Values: 2151
Additional Information: vegetation.tree.eucalyptus.kartzoffiana.vswir.jpl221.jpl.asd.ancillary.txt

 0.3500	 6.1370
 0.3510	 6.1870
 0.3520	 6.1570
 0.3530	 6.1100
 0.3540	 6.1080
 0.3550	 6.0690
 0.3560	 6.0910
 0.3570	 6.1210
 0.3580	 6.0560
 0.3590	 6.0850
 0.3600	 6.0930
 0.3610	 6.0340
 0.3620	 5.9880
 0.3630	 5.9440
 0.3640	 5.9590
 0.3650	 6.0470
 0.3660	 6.0260
 0.3670	 6.0230
 0.3680	 6.0530
 0.3690	 6.0540
 0.3700	 6.0400
 0.3710	 6.0210
 0.3720	 6.0190
 0.3730	 6.0790
 0.3740	 6.0890
 0.3750	 6.0990
 0.3760	 6.1650
 0.3770	 6.1370
 0.3780	 6.0890
 0.3790	 6.0850
 0.3800	 6.1590
 0.3810	 6.1500
 0.3820	 6.1220
 0.3830	 6.1410
 0.3840	 6.2070
 0.3850	 6.2250
 0.3860	 6.2110
 0.3870	 6.2190
 0.3880	 6.2580
 0.3890	 6.3220
 0.3900	 6.3810
 0.3910	 6.3810
 0.3920	 6.3850
 0.3930	 6.3940
 0.3940	 6.4050
 0.3950	 6.4440
 0.3960	 6.5040
 0.3970	 6.5570
 0.3980	 6.5720
 0.3990	 6.5820
 0.4000	 6.5840
 0.4010	 6.5950
 0.4020	 6.6670
 0.4030	 6.6880
 0.4040	 6.7030
 0.4050	 6.7630
 0.4060	 6.8110
 0.4070	 6.8480
 0.4080	 6.8710
 0.4090	 6.8840
 0.4100	 6.9270
 0.4110	 6.9890
 0.4120	 7.0420
 0.4130	 7.0500
 0.4140	 7.0810
 0.4150	 7.1230
 0.4160	 7.1520
 0.4170	 7.2150
 0.4180	 7.2540
 0.4190	 7.2610
 0.4200	 7.2830
 0.4210	 7.3210
 0.4220	 7.3580
 0.4230	 7.3820
 0.4240	 7.4050
 0.4250	 7.4240
 0.4260	 7.4440
 0.4270	 7.4720
 0.4280	 7.5010
 0.4290	 7.5200
 0.4300	 7.5290
 0.4310	 7.5370
 0.4320	 7.5470
 0.4330	 7.5620
 0.4340	 7.5800
 0.4350	 7.5940
 0.4360	 7.6140
 0.4370	 7.6310
 0.4380	 7.6270
 0.4390	 7.6280
 0.4400	 7.6400
 0.4410	 7.6600
 0.4420	 7.6700
 0.4430	 7.6830
 0.4440	 7.7010
 0.4450	 7.7200
 0.4460	 7.7430
 0.4470	 7.7630
 0.4480	 7.7770
 0.4490	 7.7890
 0.4500	 7.7970
 0.4510	 7.8090
 0.4520	 7.8300
 0.4530	 7.8460
 0.4540	 7.8600
 0.4550	 7.8720
 0.4560	 7.8790
 0.4570	 7.8910
 0.4580	 7.8930
 0.4590	 7.8870
 0.4600	 7.8990
 0.4610	 7.9070
 0.4620	 7.9030
 0.4630	 7.8910
 0.4640	 7.8820
 0.4650	 7.8730
 0.4660	 7.8680
 0.4670	 7.8700
 0.4680	 7.8760
 0.4690	 7.8760
 0.4700	 7.8680
 0.4710	 7.8710
 0.4720	 7.8690
 0.4730	 7.8620
 0.4740	 7.8580
 0.4750	 7.8530
 0.4760	 7.8490
 0.4770	 7.8460
 0.4780	 7.8480
 0.4790	 7.8490
 0.4800	 7.8520
 0.4810	 7.8590
 0.4820	 7.8590
 0.4830	 7.8610
 0.4840	 7.8670
 0.4850	 7.8680
 0.4860	 7.8670
 0.4870	 7.8740
 0.4880	 7.8900
 0.4890	 7.8970
 0.4900	 7.9100
 0.4910	 7.9250
 0.4920	 7.9350
 0.4930	 7.9500
 0.4940	 7.9680
 0.4950	 7.9890
 0.4960	 8.0090
 0.4970	 8.0400
 0.4980	 8.0720
 0.4990	 8.0980
 0.5000	 8.1370
 0.5010	 8.1750
 0.5020	 8.2130
 0.5030	 8.2650
 0.5040	 8.3250
 0.5050	 8.3850
 0.5060	 8.4400
 0.5070	 8.5090
 0.5080	 8.5880
 0.5090	 8.6720
 0.5100	 8.7550
 0.5110	 8.8500
 0.5120	 8.9550
 0.5130	 9.0700
 0.5140	 9.1890
 0.5150	 9.3110
 0.5160	 9.4360
 0.5170	 9.5660
 0.5180	 9.7150
 0.5190	 9.8700
 0.5200	10.0250
 0.5210	10.1820
 0.5220	10.3380
 0.5230	10.4950
 0.5240	10.6540
 0.5250	10.8040
 0.5260	10.9500
 0.5270	11.0890
 0.5280	11.2170
 0.5290	11.3400
 0.5300	11.4570
 0.5310	11.5620
 0.5320	11.6560
 0.5330	11.7420
 0.5340	11.8210
 0.5350	11.8930
 0.5360	11.9550
 0.5370	12.0090
 0.5380	12.0570
 0.5390	12.1060
 0.5400	12.1570
 0.5410	12.2110
 0.5420	12.2650
 0.5430	12.3090
 0.5440	12.3400
 0.5450	12.3580
 0.5460	12.3670
 0.5470	12.3690
 0.5480	12.3690
 0.5490	12.3700
 0.5500	12.3750
 0.5510	12.3720
 0.5520	12.3620
 0.5530	12.3430
 0.5540	12.3160
 0.5550	12.2810
 0.5560	12.2360
 0.5570	12.1800
 0.5580	12.1140
 0.5590	12.0440
 0.5600	11.9740
 0.5610	11.9000
 0.5620	11.8210
 0.5630	11.7350
 0.5640	11.6430
 0.5650	11.5500
 0.5660	11.4540
 0.5670	11.3530
 0.5680	11.2480
 0.5690	11.1400
 0.5700	11.0300
 0.5710	10.9210
 0.5720	10.8140
 0.5730	10.7130
 0.5740	10.6200
 0.5750	10.5320
 0.5760	10.4510
 0.5770	10.3740
 0.5780	10.3010
 0.5790	10.2360
 0.5800	10.1740
 0.5810	10.1140
 0.5820	10.0550
 0.5830	 9.9960
 0.5840	 9.9420
 0.5850	 9.8900
 0.5860	 9.8390
 0.5870	 9.7920
 0.5880	 9.7490
 0.5890	 9.7090
 0.5900	 9.6740
 0.5910	 9.6430
 0.5920	 9.6160
 0.5930	 9.5900
 0.5940	 9.5660
 0.5950	 9.5430
 0.5960	 9.5210
 0.5970	 9.5000
 0.5980	 9.4760
 0.5990	 9.4510
 0.6000	 9.4270
 0.6010	 9.3990
 0.6020	 9.3680
 0.6030	 9.3340
 0.6040	 9.2950
 0.6050	 9.2590
 0.6060	 9.2210
 0.6070	 9.1770
 0.6080	 9.1320
 0.6090	 9.0890
 0.6100	 9.0510
 0.6110	 9.0200
 0.6120	 8.9710
 0.6130	 8.9090
 0.6140	 8.8440
 0.6150	 8.7880
 0.6160	 8.7360
 0.6170	 8.6870
 0.6180	 8.6400
 0.6190	 8.6020
 0.6200	 8.5680
 0.6210	 8.5350
 0.6220	 8.5010
 0.6230	 8.4730
 0.6240	 8.4500
 0.6250	 8.4290
 0.6260	 8.4120
 0.6270	 8.3950
 0.6280	 8.3820
 0.6290	 8.3720
 0.6300	 8.3610
 0.6310	 8.3480
 0.6320	 8.3320
 0.6330	 8.3150
 0.6340	 8.2900
 0.6350	 8.2600
 0.6360	 8.2270
 0.6370	 8.1880
 0.6380	 8.1430
 0.6390	 8.0940
 0.6400	 8.0410
 0.6410	 7.9850
 0.6420	 7.9290
 0.6430	 7.8720
 0.6440	 7.8140
 0.6450	 7.7600
 0.6460	 7.7070
 0.6470	 7.6560
 0.6480	 7.6080
 0.6490	 7.5680
 0.6500	 7.5360
 0.6510	 7.5100
 0.6520	 7.4880
 0.6530	 7.4670
 0.6540	 7.4450
 0.6550	 7.4240
 0.6560	 7.4020
 0.6570	 7.3770
 0.6580	 7.3470
 0.6590	 7.3160
 0.6600	 7.2820
 0.6610	 7.2450
 0.6620	 7.2110
 0.6630	 7.1790
 0.6640	 7.1490
 0.6650	 7.1200
 0.6660	 7.1010
 0.6670	 7.0860
 0.6680	 7.0750
 0.6690	 7.0700
 0.6700	 7.0710
 0.6710	 7.0810
 0.6720	 7.0980
 0.6730	 7.1200
 0.6740	 7.1460
 0.6750	 7.1770
 0.6760	 7.2140
 0.6770	 7.2570
 0.6780	 7.3080
 0.6790	 7.3650
 0.6800	 7.4250
 0.6810	 7.4940
 0.6820	 7.5710
 0.6830	 7.6540
 0.6840	 7.7420
 0.6850	 7.8350
 0.6860	 7.9370
 0.6870	 8.0530
 0.6880	 8.1840
 0.6890	 8.3340
 0.6900	 8.5120
 0.6910	 8.7290
 0.6920	 8.9930
 0.6930	 9.3040
 0.6940	 9.6640
 0.6950	10.0770
 0.6960	10.5430
 0.6970	11.0630
 0.6980	11.6350
 0.6990	12.2560
 0.7000	12.9180
 0.7010	13.6150
 0.7020	14.3440
 0.7030	15.0990
 0.7040	15.8730
 0.7050	16.6600
 0.7060	17.4590
 0.7070	18.2710
 0.7080	19.0920
 0.7090	19.9180
 0.7100	20.7500
 0.7110	21.5880
 0.7120	22.4330
 0.7130	23.2830
 0.7140	24.1360
 0.7150	24.9910
 0.7160	25.8440
 0.7170	26.6950
 0.7180	27.5440
 0.7190	28.3880
 0.7200	29.2220
 0.7210	30.0420
 0.7220	30.8490
 0.7230	31.6400
 0.7240	32.4120
 0.7250	33.1620
 0.7260	33.8870
 0.7270	34.5870
 0.7280	35.2640
 0.7290	35.9100
 0.7300	36.5260
 0.7310	37.1160
 0.7320	37.6770
 0.7330	38.2070
 0.7340	38.7080
 0.7350	39.1800
 0.7360	39.6220
 0.7370	40.0380
 0.7380	40.4270
 0.7390	40.7920
 0.7400	41.1290
 0.7410	41.4410
 0.7420	41.7300
 0.7430	41.9970
 0.7440	42.2400
 0.7450	42.4580
 0.7460	42.6540
 0.7470	42.8320
 0.7480	42.9920
 0.7490	43.1340
 0.7500	43.2620
 0.7510	43.3800
 0.7520	43.4860
 0.7530	43.5760
 0.7540	43.6570
 0.7550	43.7300
 0.7560	43.7970
 0.7570	43.8540
 0.7580	43.9070
 0.7590	43.9520
 0.7600	43.9910
 0.7610	44.0260
 0.7620	44.0560
 0.7630	44.0830
 0.7640	44.1070
 0.7650	44.1230
 0.7660	44.1380
 0.7670	44.1500
 0.7680	44.1590
 0.7690	44.1710
 0.7700	44.1800
 0.7710	44.1860
 0.7720	44.1910
 0.7730	44.1970
 0.7740	44.2020
 0.7750	44.2040
 0.7760	44.2080
 0.7770	44.2120
 0.7780	44.2150
 0.7790	44.2200
 0.7800	44.2240
 0.7810	44.2290
 0.7820	44.2340
 0.7830	44.2380
 0.7840	44.2400
 0.7850	44.2420
 0.7860	44.2450
 0.7870	44.2460
 0.7880	44.2470
 0.7890	44.2480
 0.7900	44.2500
 0.7910	44.2500
 0.7920	44.2490
 0.7930	44.2470
 0.7940	44.2460
 0.7950	44.2430
 0.7960	44.2380
 0.7970	44.2320
 0.7980	44.2250
 0.7990	44.2190
 0.8000	44.2120
 0.8010	44.2020
 0.8020	44.1930
 0.8030	44.1860
 0.8040	44.1780
 0.8050	44.1660
 0.8060	44.1560
 0.8070	44.1410
 0.8080	44.1230
 0.8090	44.1090
 0.8100	44.0990
 0.8110	44.0880
 0.8120	44.0720
 0.8130	44.0600
 0.8140	44.0420
 0.8150	44.0210
 0.8160	44.0040
 0.8170	43.9890
 0.8180	43.9760
 0.8190	43.9630
 0.8200	43.9480
 0.8210	43.9290
 0.8220	43.9120
 0.8230	43.8960
 0.8240	43.8790
 0.8250	43.8620
 0.8260	43.8470
 0.8270	43.8310
 0.8280	43.8140
 0.8290	43.7940
 0.8300	43.7750
 0.8310	43.7590
 0.8320	43.7400
 0.8330	43.7230
 0.8340	43.7100
 0.8350	43.6980
 0.8360	43.6830
 0.8370	43.6700
 0.8380	43.6600
 0.8390	43.6520
 0.8400	43.6430
 0.8410	43.6350
 0.8420	43.6300
 0.8430	43.6270
 0.8440	43.6190
 0.8450	43.6100
 0.8460	43.6050
 0.8470	43.6020
 0.8480	43.5960
 0.8490	43.5900
 0.8500	43.5890
 0.8510	43.5840
 0.8520	43.5820
 0.8530	43.5820
 0.8540	43.5810
 0.8550	43.5780
 0.8560	43.5780
 0.8570	43.5810
 0.8580	43.5790
 0.8590	43.5780
 0.8600	43.5790
 0.8610	43.5810
 0.8620	43.5830
 0.8630	43.5840
 0.8640	43.5850
 0.8650	43.5880
 0.8660	43.5890
 0.8670	43.5920
 0.8680	43.5970
 0.8690	43.6020
 0.8700	43.6090
 0.8710	43.6140
 0.8720	43.6190
 0.8730	43.6280
 0.8740	43.6320
 0.8750	43.6330
 0.8760	43.6360
 0.8770	43.6480
 0.8780	43.6580
 0.8790	43.6640
 0.8800	43.6680
 0.8810	43.6740
 0.8820	43.6780
 0.8830	43.6810
 0.8840	43.6860
 0.8850	43.6950
 0.8860	43.7010
 0.8870	43.7060
 0.8880	43.7110
 0.8890	43.7110
 0.8900	43.7140
 0.8910	43.7200
 0.8920	43.7260
 0.8930	43.7330
 0.8940	43.7360
 0.8950	43.7370
 0.8960	43.7410
 0.8970	43.7390
 0.8980	43.7420
 0.8990	43.7480
 0.9000	43.7490
 0.9010	43.7510
 0.9020	43.7500
 0.9030	43.7500
 0.9040	43.7600
 0.9050	43.7630
 0.9060	43.7620
 0.9070	43.7630
 0.9080	43.7630
 0.9090	43.7610
 0.9100	43.7570
 0.9110	43.7530
 0.9120	43.7540
 0.9130	43.7570
 0.9140	43.7580
 0.9150	43.7540
 0.9160	43.7520
 0.9170	43.7560
 0.9180	43.7560
 0.9190	43.7440
 0.9200	43.7340
 0.9210	43.7270
 0.9220	43.7240
 0.9230	43.7210
 0.9240	43.7100
 0.9250	43.6970
 0.9260	43.6840
 0.9270	43.6720
 0.9280	43.6560
 0.9290	43.6360
 0.9300	43.6140
 0.9310	43.5870
 0.9320	43.5670
 0.9330	43.5480
 0.9340	43.5260
 0.9350	43.4980
 0.9360	43.4670
 0.9370	43.4340
 0.9380	43.4020
 0.9390	43.3730
 0.9400	43.3430
 0.9410	43.3110
 0.9420	43.2760
 0.9430	43.2310
 0.9440	43.1880
 0.9450	43.1450
 0.9460	43.0990
 0.9470	43.0470
 0.9480	42.9850
 0.9490	42.9190
 0.9500	42.8560
 0.9510	42.7940
 0.9520	42.7280
 0.9530	42.6570
 0.9540	42.5830
 0.9550	42.5080
 0.9560	42.4390
 0.9570	42.3730
 0.9580	42.3050
 0.9590	42.2370
 0.9600	42.1710
 0.9610	42.1150
 0.9620	42.0730
 0.9630	42.0300
 0.9640	41.9910
 0.9650	41.9510
 0.9660	41.9070
 0.9670	41.8750
 0.9680	41.8530
 0.9690	41.8340
 0.9700	41.8080
 0.9710	41.7750
 0.9720	41.7520
 0.9730	41.7340
 0.9740	41.7120
 0.9750	41.6950
 0.9760	41.6880
 0.9770	41.6840
 0.9780	41.6750
 0.9790	41.6620
 0.9800	41.6520
 0.9810	41.6490
 0.9820	41.6530
 0.9830	41.6560
 0.9840	41.6440
 0.9850	41.6310
 0.9860	41.6400
 0.9870	41.6500
 0.9880	41.6520
 0.9890	41.6570
 0.9900	41.6770
 0.9910	41.6820
 0.9920	41.6890
 0.9930	41.7020
 0.9940	41.7120
 0.9950	41.7240
 0.9960	41.7390
 0.9970	41.7610
 0.9980	41.7840
 0.9990	41.7900
 1.0000	41.8080
 1.0010	42.7290
 1.0020	42.7500
 1.0030	42.7730
 1.0040	42.7940
 1.0050	42.8170
 1.0060	42.8360
 1.0070	42.8510
 1.0080	42.8690
 1.0090	42.8850
 1.0100	42.9050
 1.0110	42.9300
 1.0120	42.9500
 1.0130	42.9670
 1.0140	42.9880
 1.0150	43.0080
 1.0160	43.0290
 1.0170	43.0510
 1.0180	43.0750
 1.0190	43.0950
 1.0200	43.1120
 1.0210	43.1330
 1.0220	43.1550
 1.0230	43.1760
 1.0240	43.1970
 1.0250	43.2180
 1.0260	43.2380
 1.0270	43.2580
 1.0280	43.2770
 1.0290	43.2980
 1.0300	43.3210
 1.0310	43.3410
 1.0320	43.3620
 1.0330	43.3810
 1.0340	43.3960
 1.0350	43.4100
 1.0360	43.4270
 1.0370	43.4460
 1.0380	43.4620
 1.0390	43.4790
 1.0400	43.4950
 1.0410	43.5090
 1.0420	43.5220
 1.0430	43.5370
 1.0440	43.5490
 1.0450	43.5570
 1.0460	43.5670
 1.0470	43.5740
 1.0480	43.5860
 1.0490	43.6020
 1.0500	43.6150
 1.0510	43.6280
 1.0520	43.6390
 1.0530	43.6500
 1.0540	43.6590
 1.0550	43.6670
 1.0560	43.6740
 1.0570	43.6800
 1.0580	43.6820
 1.0590	43.6880
 1.0600	43.6990
 1.0610	43.7050
 1.0620	43.7100
 1.0630	43.7150
 1.0640	43.7180
 1.0650	43.7220
 1.0660	43.7280
 1.0670	43.7310
 1.0680	43.7330
 1.0690	43.7340
 1.0700	43.7370
 1.0710	43.7380
 1.0720	43.7390
 1.0730	43.7430
 1.0740	43.7430
 1.0750	43.7410
 1.0760	43.7380
 1.0770	43.7340
 1.0780	43.7310
 1.0790	43.7240
 1.0800	43.7210
 1.0810	43.7200
 1.0820	43.7170
 1.0830	43.7180
 1.0840	43.7150
 1.0850	43.7090
 1.0860	43.7030
 1.0870	43.6960
 1.0880	43.6900
 1.0890	43.6810
 1.0900	43.6700
 1.0910	43.6610
 1.0920	43.6510
 1.0930	43.6410
 1.0940	43.6350
 1.0950	43.6240
 1.0960	43.6110
 1.0970	43.5990
 1.0980	43.5840
 1.0990	43.5710
 1.1000	43.5590
 1.1010	43.5450
 1.1020	43.5300
 1.1030	43.5160
 1.1040	43.5010
 1.1050	43.4860
 1.1060	43.4690
 1.1070	43.4530
 1.1080	43.4360
 1.1090	43.4170
 1.1100	43.3980
 1.1110	43.3800
 1.1120	43.3600
 1.1130	43.3410
 1.1140	43.3190
 1.1150	43.2950
 1.1160	43.2680
 1.1170	43.2390
 1.1180	43.2070
 1.1190	43.1740
 1.1200	43.1360
 1.1210	43.0970
 1.1220	43.0550
 1.1230	43.0080
 1.1240	42.9600
 1.1250	42.9030
 1.1260	42.8400
 1.1270	42.7710
 1.1280	42.6990
 1.1290	42.6180
 1.1300	42.5310
 1.1310	42.4370
 1.1320	42.3360
 1.1330	42.2270
 1.1340	42.1110
 1.1350	41.9880
 1.1360	41.8590
 1.1370	41.7210
 1.1380	41.5780
 1.1390	41.4310
 1.1400	41.2750
 1.1410	41.1190
 1.1420	40.9610
 1.1430	40.7980
 1.1440	40.6370
 1.1450	40.4730
 1.1460	40.3150
 1.1470	40.1570
 1.1480	40.0070
 1.1490	39.8580
 1.1500	39.7200
 1.1510	39.5860
 1.1520	39.4610
 1.1530	39.3440
 1.1540	39.2340
 1.1550	39.1310
 1.1560	39.0360
 1.1570	38.9490
 1.1580	38.8680
 1.1590	38.7960
 1.1600	38.7300
 1.1610	38.6700
 1.1620	38.6150
 1.1630	38.5640
 1.1640	38.5140
 1.1650	38.4680
 1.1660	38.4250
 1.1670	38.3850
 1.1680	38.3490
 1.1690	38.3140
 1.1700	38.2800
 1.1710	38.2470
 1.1720	38.2130
 1.1730	38.1800
 1.1740	38.1470
 1.1750	38.1150
 1.1760	38.0820
 1.1770	38.0460
 1.1780	38.0100
 1.1790	37.9750
 1.1800	37.9400
 1.1810	37.9060
 1.1820	37.8710
 1.1830	37.8350
 1.1840	37.8000
 1.1850	37.7670
 1.1860	37.7360
 1.1870	37.7080
 1.1880	37.6820
 1.1890	37.6570
 1.1900	37.6360
 1.1910	37.6190
 1.1920	37.6050
 1.1930	37.5930
 1.1940	37.5840
 1.1950	37.5780
 1.1960	37.5740
 1.1970	37.5740
 1.1980	37.5760
 1.1990	37.5820
 1.2000	37.5920
 1.2010	37.6050
 1.2020	37.6200
 1.2030	37.6350
 1.2040	37.6520
 1.2050	37.6710
 1.2060	37.6910
 1.2070	37.7140
 1.2080	37.7400
 1.2090	37.7680
 1.2100	37.7970
 1.2110	37.8280
 1.2120	37.8600
 1.2130	37.8930
 1.2140	37.9270
 1.2150	37.9630
 1.2160	38.0010
 1.2170	38.0390
 1.2180	38.0770
 1.2190	38.1150
 1.2200	38.1500
 1.2210	38.1890
 1.2220	38.2290
 1.2230	38.2680
 1.2240	38.3070
 1.2250	38.3440
 1.2260	38.3800
 1.2270	38.4180
 1.2280	38.4550
 1.2290	38.4900
 1.2300	38.5230
 1.2310	38.5540
 1.2320	38.5850
 1.2330	38.6150
 1.2340	38.6420
 1.2350	38.6690
 1.2360	38.6950
 1.2370	38.7180
 1.2380	38.7430
 1.2390	38.7710
 1.2400	38.7940
 1.2410	38.8170
 1.2420	38.8380
 1.2430	38.8560
 1.2440	38.8770
 1.2450	38.8990
 1.2460	38.9200
 1.2470	38.9400
 1.2480	38.9550
 1.2490	38.9700
 1.2500	38.9850
 1.2510	39.0000
 1.2520	39.0150
 1.2530	39.0270
 1.2540	39.0390
 1.2550	39.0510
 1.2560	39.0600
 1.2570	39.0700
 1.2580	39.0800
 1.2590	39.0880
 1.2600	39.0930
 1.2610	39.0980
 1.2620	39.1030
 1.2630	39.1050
 1.2640	39.1080
 1.2650	39.1090
 1.2660	39.1080
 1.2670	39.1040
 1.2680	39.1000
 1.2690	39.0950
 1.2700	39.0890
 1.2710	39.0840
 1.2720	39.0790
 1.2730	39.0720
 1.2740	39.0640
 1.2750	39.0550
 1.2760	39.0420
 1.2770	39.0280
 1.2780	39.0110
 1.2790	38.9940
 1.2800	38.9760
 1.2810	38.9540
 1.2820	38.9310
 1.2830	38.9080
 1.2840	38.8810
 1.2850	38.8530
 1.2860	38.8260
 1.2870	38.7950
 1.2880	38.7600
 1.2890	38.7220
 1.2900	38.6840
 1.2910	38.6410
 1.2920	38.5980
 1.2930	38.5550
 1.2940	38.5080
 1.2950	38.4580
 1.2960	38.4040
 1.2970	38.3470
 1.2980	38.2880
 1.2990	38.2280
 1.3000	38.1660
 1.3010	38.1020
 1.3020	38.0350
 1.3030	37.9650
 1.3040	37.8910
 1.3050	37.8170
 1.3060	37.7410
 1.3070	37.6620
 1.3080	37.5810
 1.3090	37.4960
 1.3100	37.4060
 1.3110	37.3120
 1.3120	37.2160
 1.3130	37.1170
 1.3140	37.0150
 1.3150	36.9100
 1.3160	36.8020
 1.3170	36.6910
 1.3180	36.5760
 1.3190	36.4560
 1.3200	36.3370
 1.3210	36.2160
 1.3220	36.0910
 1.3230	35.9640
 1.3240	35.8340
 1.3250	35.7000
 1.3260	35.5650
 1.3270	35.4250
 1.3280	35.2840
 1.3290	35.1410
 1.3300	34.9960
 1.3310	34.8480
 1.3320	34.6990
 1.3330	34.5500
 1.3340	34.3980
 1.3350	34.2470
 1.3360	34.0960
 1.3370	33.9420
 1.3380	33.7890
 1.3390	33.6370
 1.3400	33.4860
 1.3410	33.3370
 1.3420	33.1890
 1.3430	33.0430
 1.3440	32.8980
 1.3450	32.7530
 1.3460	32.6080
 1.3470	32.4660
 1.3480	32.3250
 1.3490	32.1850
 1.3500	32.0470
 1.3510	31.9110
 1.3520	31.7740
 1.3530	31.6370
 1.3540	31.5020
 1.3550	31.3660
 1.3560	31.2290
 1.3570	31.0920
 1.3580	30.9540
 1.3590	30.8130
 1.3600	30.6700
 1.3610	30.5240
 1.3620	30.3720
 1.3630	30.2180
 1.3640	30.0570
 1.3650	29.8880
 1.3660	29.7160
 1.3670	29.5320
 1.3680	29.3380
 1.3690	29.1340
 1.3700	28.9160
 1.3710	28.6870
 1.3720	28.4450
 1.3730	28.1860
 1.3740	27.9120
 1.3750	27.6220
 1.3760	27.3110
 1.3770	26.9800
 1.3780	26.6260
 1.3790	26.2520
 1.3800	25.8570
 1.3810	25.4390
 1.3820	25.0060
 1.3830	24.5540
 1.3840	24.0870
 1.3850	23.6010
 1.3860	23.1070
 1.3870	22.5950
 1.3880	22.0820
 1.3890	21.5610
 1.3900	21.0350
 1.3910	20.5120
 1.3920	19.9870
 1.3930	19.4630
 1.3940	18.9470
 1.3950	18.4340
 1.3960	17.9330
 1.3970	17.4480
 1.3980	16.9760
 1.3990	16.5240
 1.4000	16.0890
 1.4010	15.6690
 1.4020	15.2710
 1.4030	14.8890
 1.4040	14.5270
 1.4050	14.1880
 1.4060	13.8670
 1.4070	13.5680
 1.4080	13.2890
 1.4090	13.0250
 1.4100	12.7800
 1.4110	12.5530
 1.4120	12.3400
 1.4130	12.1420
 1.4140	11.9600
 1.4150	11.7920
 1.4160	11.6370
 1.4170	11.4940
 1.4180	11.3620
 1.4190	11.2390
 1.4200	11.1250
 1.4210	11.0210
 1.4220	10.9240
 1.4230	10.8370
 1.4240	10.7570
 1.4250	10.6830
 1.4260	10.6160
 1.4270	10.5530
 1.4280	10.4970
 1.4290	10.4450
 1.4300	10.3980
 1.4310	10.3550
 1.4320	10.3170
 1.4330	10.2820
 1.4340	10.2510
 1.4350	10.2240
 1.4360	10.2010
 1.4370	10.1810
 1.4380	10.1640
 1.4390	10.1490
 1.4400	10.1370
 1.4410	10.1280
 1.4420	10.1200
 1.4430	10.1140
 1.4440	10.1100
 1.4450	10.1090
 1.4460	10.1090
 1.4470	10.1100
 1.4480	10.1120
 1.4490	10.1160
 1.4500	10.1220
 1.4510	10.1280
 1.4520	10.1360
 1.4530	10.1450
 1.4540	10.1550
 1.4550	10.1680
 1.4560	10.1820
 1.4570	10.1990
 1.4580	10.2170
 1.4590	10.2360
 1.4600	10.2570
 1.4610	10.2810
 1.4620	10.3080
 1.4630	10.3400
 1.4640	10.3740
 1.4650	10.4120
 1.4660	10.4520
 1.4670	10.4950
 1.4680	10.5430
 1.4690	10.5920
 1.4700	10.6460
 1.4710	10.7030
 1.4720	10.7610
 1.4730	10.8230
 1.4740	10.8870
 1.4750	10.9540
 1.4760	11.0230
 1.4770	11.0940
 1.4780	11.1670
 1.4790	11.2440
 1.4800	11.3210
 1.4810	11.4010
 1.4820	11.4810
 1.4830	11.5610
 1.4840	11.6440
 1.4850	11.7280
 1.4860	11.8130
 1.4870	11.9010
 1.4880	11.9890
 1.4890	12.0780
 1.4900	12.1670
 1.4910	12.2570
 1.4920	12.3480
 1.4930	12.4400
 1.4940	12.5330
 1.4950	12.6270
 1.4960	12.7220
 1.4970	12.8160
 1.4980	12.9120
 1.4990	13.0090
 1.5000	13.1060
 1.5010	13.2040
 1.5020	13.3030
 1.5030	13.4020
 1.5040	13.5000
 1.5050	13.5990
 1.5060	13.6980
 1.5070	13.7970
 1.5080	13.8960
 1.5090	13.9960
 1.5100	14.0950
 1.5110	14.1950
 1.5120	14.2960
 1.5130	14.3950
 1.5140	14.4950
 1.5150	14.5960
 1.5160	14.6930
 1.5170	14.7940
 1.5180	14.8950
 1.5190	14.9930
 1.5200	15.0940
 1.5210	15.1940
 1.5220	15.2910
 1.5230	15.3900
 1.5240	15.4880
 1.5250	15.5850
 1.5260	15.6820
 1.5270	15.7800
 1.5280	15.8770
 1.5290	15.9710
 1.5300	16.0660
 1.5310	16.1600
 1.5320	16.2530
 1.5330	16.3470
 1.5340	16.4400
 1.5350	16.5320
 1.5360	16.6250
 1.5370	16.7140
 1.5380	16.8040
 1.5390	16.8940
 1.5400	16.9830
 1.5410	17.0730
 1.5420	17.1620
 1.5430	17.2510
 1.5440	17.3400
 1.5450	17.4270
 1.5460	17.5130
 1.5470	17.6000
 1.5480	17.6850
 1.5490	17.7700
 1.5500	17.8550
 1.5510	17.9380
 1.5520	18.0210
 1.5530	18.1030
 1.5540	18.1850
 1.5550	18.2660
 1.5560	18.3460
 1.5570	18.4250
 1.5580	18.5040
 1.5590	18.5800
 1.5600	18.6570
 1.5610	18.7310
 1.5620	18.8050
 1.5630	18.8800
 1.5640	18.9540
 1.5650	19.0280
 1.5660	19.1020
 1.5670	19.1740
 1.5680	19.2460
 1.5690	19.3160
 1.5700	19.3870
 1.5710	19.4570
 1.5720	19.5250
 1.5730	19.5940
 1.5740	19.6620
 1.5750	19.7300
 1.5760	19.7980
 1.5770	19.8650
 1.5780	19.9320
 1.5790	19.9980
 1.5800	20.0620
 1.5810	20.1270
 1.5820	20.1930
 1.5830	20.2580
 1.5840	20.3240
 1.5850	20.3870
 1.5860	20.4490
 1.5870	20.5110
 1.5880	20.5720
 1.5890	20.6340
 1.5900	20.6940
 1.5910	20.7550
 1.5920	20.8160
 1.5930	20.8750
 1.5940	20.9350
 1.5950	20.9950
 1.5960	21.0520
 1.5970	21.1110
 1.5980	21.1690
 1.5990	21.2250
 1.6000	21.2810
 1.6010	21.3350
 1.6020	21.3890
 1.6030	21.4430
 1.6040	21.4960
 1.6050	21.5490
 1.6060	21.6030
 1.6070	21.6550
 1.6080	21.7070
 1.6090	21.7570
 1.6100	21.8060
 1.6110	21.8540
 1.6120	21.9020
 1.6130	21.9490
 1.6140	21.9940
 1.6150	22.0390
 1.6160	22.0830
 1.6170	22.1270
 1.6180	22.1700
 1.6190	22.2120
 1.6200	22.2520
 1.6210	22.2890
 1.6220	22.3240
 1.6230	22.3590
 1.6240	22.3930
 1.6250	22.4260
 1.6260	22.4570
 1.6270	22.4880
 1.6280	22.5160
 1.6290	22.5450
 1.6300	22.5740
 1.6310	22.6040
 1.6320	22.6340
 1.6330	22.6640
 1.6340	22.6950
 1.6350	22.7250
 1.6360	22.7550
 1.6370	22.7860
 1.6380	22.8170
 1.6390	22.8470
 1.6400	22.8770
 1.6410	22.9050
 1.6420	22.9310
 1.6430	22.9540
 1.6440	22.9740
 1.6450	22.9910
 1.6460	23.0060
 1.6470	23.0180
 1.6480	23.0260
 1.6490	23.0320
 1.6500	23.0360
 1.6510	23.0360
 1.6520	23.0320
 1.6530	23.0250
 1.6540	23.0170
 1.6550	23.0060
 1.6560	22.9950
 1.6570	22.9810
 1.6580	22.9650
 1.6590	22.9470
 1.6600	22.9300
 1.6610	22.9130
 1.6620	22.8930
 1.6630	22.8740
 1.6640	22.8530
 1.6650	22.8330
 1.6660	22.8140
 1.6670	22.7960
 1.6680	22.7770
 1.6690	22.7580
 1.6700	22.7360
 1.6710	22.7130
 1.6720	22.6910
 1.6730	22.6670
 1.6740	22.6430
 1.6750	22.6180
 1.6760	22.5900
 1.6770	22.5590
 1.6780	22.5260
 1.6790	22.4900
 1.6800	22.4520
 1.6810	22.4110
 1.6820	22.3660
 1.6830	22.3180
 1.6840	22.2660
 1.6850	22.2130
 1.6860	22.1560
 1.6870	22.0970
 1.6880	22.0360
 1.6890	21.9720
 1.6900	21.9100
 1.6910	21.8480
 1.6920	21.7860
 1.6930	21.7240
 1.6940	21.6650
 1.6950	21.6070
 1.6960	21.5500
 1.6970	21.4960
 1.6980	21.4420
 1.6990	21.3880
 1.7000	21.3370
 1.7010	21.2860
 1.7020	21.2370
 1.7030	21.1890
 1.7040	21.1430
 1.7050	21.0970
 1.7060	21.0520
 1.7070	21.0080
 1.7080	20.9660
 1.7090	20.9250
 1.7100	20.8860
 1.7110	20.8510
 1.7120	20.8150
 1.7130	20.7790
 1.7140	20.7440
 1.7150	20.7090
 1.7160	20.6750
 1.7170	20.6410
 1.7180	20.6090
 1.7190	20.5760
 1.7200	20.5440
 1.7210	20.5110
 1.7220	20.4770
 1.7230	20.4440
 1.7240	20.4100
 1.7250	20.3760
 1.7260	20.3420
 1.7270	20.3100
 1.7280	20.2790
 1.7290	20.2500
 1.7300	20.2210
 1.7310	20.1930
 1.7320	20.1660
 1.7330	20.1390
 1.7340	20.1140
 1.7350	20.0860
 1.7360	20.0560
 1.7370	20.0240
 1.7380	19.9910
 1.7390	19.9550
 1.7400	19.9160
 1.7410	19.8740
 1.7420	19.8280
 1.7430	19.7810
 1.7440	19.7310
 1.7450	19.6800
 1.7460	19.6270
 1.7470	19.5750
 1.7480	19.5210
 1.7490	19.4680
 1.7500	19.4120
 1.7510	19.3600
 1.7520	19.3100
 1.7530	19.2610
 1.7540	19.2140
 1.7550	19.1680
 1.7560	19.1230
 1.7570	19.0810
 1.7580	19.0420
 1.7590	19.0040
 1.7600	18.9660
 1.7610	18.9320
 1.7620	18.8990
 1.7630	18.8680
 1.7640	18.8380
 1.7650	18.8060
 1.7660	18.7780
 1.7670	18.7520
 1.7680	18.7270
 1.7690	18.7070
 1.7700	18.6860
 1.7710	18.6640
 1.7720	18.6430
 1.7730	18.6220
 1.7740	18.6020
 1.7750	18.5850
 1.7760	18.5660
 1.7770	18.5470
 1.7780	18.5310
 1.7790	18.5160
 1.7800	18.5030
 1.7810	18.4940
 1.7820	18.4830
 1.7830	18.4730
 1.7840	18.4640
 1.7850	18.4570
 1.7860	18.4500
 1.7870	18.4450
 1.7880	18.4390
 1.7890	18.4350
 1.7900	18.4360
 1.7910	18.4350
 1.7920	18.4330
 1.7930	18.4350
 1.7940	18.4380
 1.7950	18.4420
 1.7960	18.4490
 1.7970	18.4550
 1.7980	18.4590
 1.7990	18.4650
 1.8000	18.4720
 1.8010	18.4790
 1.8020	18.4870
 1.8030	18.4960
 1.8040	18.5050
 1.8050	18.5150
 1.8060	18.5250
 1.8070	18.5330
 1.8080	18.5400
 1.8090	18.5480
 1.8100	18.5540
 1.8110	18.5640
 1.8120	18.5720
 1.8130	18.5770
 1.8140	18.5820
 1.8150	18.5870
 1.8160	18.5890
 1.8170	18.5930
 1.8180	18.5950
 1.8190	18.5950
 1.8200	18.5950
 1.8210	18.5950
 1.8220	18.5930
 1.8230	18.5910
 1.8240	18.5870
 1.8250	18.5820
 1.8260	18.5770
 1.8270	18.5740
 1.8280	18.5670
 1.8290	18.5580
 1.8300	18.5450
 1.8310	18.3990
 1.8320	18.3760
 1.8330	18.3490
 1.8340	18.3260
 1.8350	18.2920
 1.8360	18.2570
 1.8370	18.2260
 1.8380	18.1860
 1.8390	18.1430
 1.8400	18.0990
 1.8410	18.0470
 1.8420	17.9880
 1.8430	17.9270
 1.8440	17.8620
 1.8450	17.7920
 1.8460	17.7170
 1.8470	17.6320
 1.8480	17.5400
 1.8490	17.4410
 1.8500	17.3320
 1.8510	17.2150
 1.8520	17.0900
 1.8530	16.9560
 1.8540	16.8100
 1.8550	16.6540
 1.8560	16.4910
 1.8570	16.3170
 1.8580	16.1320
 1.8590	15.9380
 1.8600	15.7350
 1.8610	15.5190
 1.8620	15.2910
 1.8630	15.0580
 1.8640	14.8110
 1.8650	14.5520
 1.8660	14.2840
 1.8670	14.0020
 1.8680	13.7100
 1.8690	13.4080
 1.8700	13.0960
 1.8710	12.7740
 1.8720	12.4440
 1.8730	12.1090
 1.8740	11.7710
 1.8750	11.4320
 1.8760	11.0910
 1.8770	10.7530
 1.8780	10.4200
 1.8790	10.0910
 1.8800	 9.7730
 1.8810	 9.4630
 1.8820	 9.1610
 1.8830	 8.8650
 1.8840	 8.5770
 1.8850	 8.2960
 1.8860	 8.0270
 1.8870	 7.7710
 1.8880	 7.5270
 1.8890	 7.2960
 1.8900	 7.0780
 1.8910	 6.8750
 1.8920	 6.6830
 1.8930	 6.5070
 1.8940	 6.3490
 1.8950	 6.2040
 1.8960	 6.0670
 1.8970	 5.9420
 1.8980	 5.8280
 1.8990	 5.7250
 1.9000	 5.6310
 1.9010	 5.5520
 1.9020	 5.4750
 1.9030	 5.4060
 1.9040	 5.3420
 1.9050	 5.2830
 1.9060	 5.2360
 1.9070	 5.1990
 1.9080	 5.1660
 1.9090	 5.1340
 1.9100	 5.1010
 1.9110	 5.0740
 1.9120	 5.0470
 1.9130	 5.0250
 1.9140	 5.0100
 1.9150	 4.9960
 1.9160	 4.9820
 1.9170	 4.9680
 1.9180	 4.9580
 1.9190	 4.9480
 1.9200	 4.9420
 1.9210	 4.9360
 1.9220	 4.9310
 1.9230	 4.9250
 1.9240	 4.9230
 1.9250	 4.9220
 1.9260	 4.9210
 1.9270	 4.9210
 1.9280	 4.9230
 1.9290	 4.9240
 1.9300	 4.9250
 1.9310	 4.9290
 1.9320	 4.9340
 1.9330	 4.9380
 1.9340	 4.9440
 1.9350	 4.9500
 1.9360	 4.9540
 1.9370	 4.9600
 1.9380	 4.9680
 1.9390	 4.9760
 1.9400	 4.9850
 1.9410	 4.9930
 1.9420	 5.0010
 1.9430	 5.0100
 1.9440	 5.0210
 1.9450	 5.0340
 1.9460	 5.0460
 1.9470	 5.0610
 1.9480	 5.0730
 1.9490	 5.0840
 1.9500	 5.0970
 1.9510	 5.1070
 1.9520	 5.1180
 1.9530	 5.1320
 1.9540	 5.1470
 1.9550	 5.1630
 1.9560	 5.1820
 1.9570	 5.2000
 1.9580	 5.2170
 1.9590	 5.2350
 1.9600	 5.2510
 1.9610	 5.2690
 1.9620	 5.2870
 1.9630	 5.3070
 1.9640	 5.3290
 1.9650	 5.3500
 1.9660	 5.3710
 1.9670	 5.3910
 1.9680	 5.4110
 1.9690	 5.4290
 1.9700	 5.4490
 1.9710	 5.4670
 1.9720	 5.4880
 1.9730	 5.5110
 1.9740	 5.5330
 1.9750	 5.5550
 1.9760	 5.5790
 1.9770	 5.6020
 1.9780	 5.6260
 1.9790	 5.6510
 1.9800	 5.6770
 1.9810	 5.7030
 1.9820	 5.7260
 1.9830	 5.7520
 1.9840	 5.7810
 1.9850	 5.8080
 1.9860	 5.8360
 1.9870	 5.8630
 1.9880	 5.8890
 1.9890	 5.9150
 1.9900	 5.9440
 1.9910	 5.9750
 1.9920	 6.0030
 1.9930	 6.0310
 1.9940	 6.0600
 1.9950	 6.0860
 1.9960	 6.1140
 1.9970	 6.1440
 1.9980	 6.1750
 1.9990	 6.2080
 2.0000	 6.2400
 2.0010	 6.2740
 2.0020	 6.3090
 2.0030	 6.3410
 2.0040	 6.3720
 2.0050	 6.4030
 2.0060	 6.4300
 2.0070	 6.4610
 2.0080	 6.4920
 2.0090	 6.5240
 2.0100	 6.5560
 2.0110	 6.5900
 2.0120	 6.6230
 2.0130	 6.6560
 2.0140	 6.6920
 2.0150	 6.7250
 2.0160	 6.7580
 2.0170	 6.7900
 2.0180	 6.8210
 2.0190	 6.8520
 2.0200	 6.8830
 2.0210	 6.9130
 2.0220	 6.9440
 2.0230	 6.9740
 2.0240	 7.0050
 2.0250	 7.0390
 2.0260	 7.0690
 2.0270	 7.0980
 2.0280	 7.1290
 2.0290	 7.1590
 2.0300	 7.1890
 2.0310	 7.2180
 2.0320	 7.2490
 2.0330	 7.2770
 2.0340	 7.2990
 2.0350	 7.3250
 2.0360	 7.3520
 2.0370	 7.3800
 2.0380	 7.4080
 2.0390	 7.4360
 2.0400	 7.4650
 2.0410	 7.4920
 2.0420	 7.5190
 2.0430	 7.5470
 2.0440	 7.5740
 2.0450	 7.5990
 2.0460	 7.6250
 2.0470	 7.6510
 2.0480	 7.6760
 2.0490	 7.7020
 2.0500	 7.7270
 2.0510	 7.7510
 2.0520	 7.7760
 2.0530	 7.8000
 2.0540	 7.8260
 2.0550	 7.8520
 2.0560	 7.8810
 2.0570	 7.9060
 2.0580	 7.9320
 2.0590	 7.9600
 2.0600	 7.9860
 2.0610	 8.0140
 2.0620	 8.0440
 2.0630	 8.0700
 2.0640	 8.0940
 2.0650	 8.1200
 2.0660	 8.1440
 2.0670	 8.1690
 2.0680	 8.1920
 2.0690	 8.2170
 2.0700	 8.2450
 2.0710	 8.2700
 2.0720	 8.2970
 2.0730	 8.3230
 2.0740	 8.3490
 2.0750	 8.3730
 2.0760	 8.3970
 2.0770	 8.4220
 2.0780	 8.4480
 2.0790	 8.4740
 2.0800	 8.5000
 2.0810	 8.5280
 2.0820	 8.5550
 2.0830	 8.5800
 2.0840	 8.6060
 2.0850	 8.6310
 2.0860	 8.6570
 2.0870	 8.6830
 2.0880	 8.7120
 2.0890	 8.7390
 2.0900	 8.7660
 2.0910	 8.7910
 2.0920	 8.8130
 2.0930	 8.8390
 2.0940	 8.8650
 2.0950	 8.8910
 2.0960	 8.9210
 2.0970	 8.9450
 2.0980	 8.9630
 2.0990	 8.9860
 2.1000	 9.0080
 2.1010	 9.0320
 2.1020	 9.0620
 2.1030	 9.0880
 2.1040	 9.1100
 2.1050	 9.1340
 2.1060	 9.1580
 2.1070	 9.1820
 2.1080	 9.2060
 2.1090	 9.2310
 2.1100	 9.2540
 2.1110	 9.2770
 2.1120	 9.2980
 2.1130	 9.3160
 2.1140	 9.3360
 2.1150	 9.3520
 2.1160	 9.3710
 2.1170	 9.3910
 2.1180	 9.4120
 2.1190	 9.4350
 2.1200	 9.4560
 2.1210	 9.4750
 2.1220	 9.4950
 2.1230	 9.5150
 2.1240	 9.5340
 2.1250	 9.5540
 2.1260	 9.5770
 2.1270	 9.5970
 2.1280	 9.6150
 2.1290	 9.6320
 2.1300	 9.6450
 2.1310	 9.6620
 2.1320	 9.6770
 2.1330	 9.6950
 2.1340	 9.7160
 2.1350	 9.7350
 2.1360	 9.7540
 2.1370	 9.7730
 2.1380	 9.7920
 2.1390	 9.8100
 2.1400	 9.8300
 2.1410	 9.8480
 2.1420	 9.8660
 2.1430	 9.8830
 2.1440	 9.9010
 2.1450	 9.9190
 2.1460	 9.9380
 2.1470	 9.9560
 2.1480	 9.9750
 2.1490	 9.9940
 2.1500	10.0130
 2.1510	10.0310
 2.1520	10.0510
 2.1530	10.0710
 2.1540	10.0910
 2.1550	10.1110
 2.1560	10.1310
 2.1570	10.1510
 2.1580	10.1690
 2.1590	10.1900
 2.1600	10.2070
 2.1610	10.2230
 2.1620	10.2350
 2.1630	10.2510
 2.1640	10.2670
 2.1650	10.2840
 2.1660	10.3030
 2.1670	10.3200
 2.1680	10.3340
 2.1690	10.3510
 2.1700	10.3690
 2.1710	10.3840
 2.1720	10.3990
 2.1730	10.4150
 2.1740	10.4310
 2.1750	10.4460
 2.1760	10.4630
 2.1770	10.4790
 2.1780	10.4920
 2.1790	10.5070
 2.1800	10.5240
 2.1810	10.5410
 2.1820	10.5580
 2.1830	10.5740
 2.1840	10.5890
 2.1850	10.6010
 2.1860	10.6170
 2.1870	10.6330
 2.1880	10.6500
 2.1890	10.6710
 2.1900	10.6880
 2.1910	10.7050
 2.1920	10.7200
 2.1930	10.7310
 2.1940	10.7440
 2.1950	10.7560
 2.1960	10.7680
 2.1970	10.7820
 2.1980	10.7970
 2.1990	10.8140
 2.2000	10.8290
 2.2010	10.8470
 2.2020	10.8600
 2.2030	10.8690
 2.2040	10.8800
 2.2050	10.8860
 2.2060	10.8980
 2.2070	10.9080
 2.2080	10.9180
 2.2090	10.9260
 2.2100	10.9340
 2.2110	10.9390
 2.2120	10.9420
 2.2130	10.9440
 2.2140	10.9410
 2.2150	10.9410
 2.2160	10.9410
 2.2170	10.9420
 2.2180	10.9470
 2.2190	10.9470
 2.2200	10.9450
 2.2210	10.9430
 2.2220	10.9390
 2.2230	10.9350
 2.2240	10.9300
 2.2250	10.9250
 2.2260	10.9200
 2.2270	10.9110
 2.2280	10.9030
 2.2290	10.8880
 2.2300	10.8680
 2.2310	10.8430
 2.2320	10.8230
 2.2330	10.7970
 2.2340	10.7770
 2.2350	10.7630
 2.2360	10.7400
 2.2370	10.7160
 2.2380	10.6880
 2.2390	10.6550
 2.2400	10.6230
 2.2410	10.5900
 2.2420	10.5540
 2.2430	10.5160
 2.2440	10.4790
 2.2450	10.4450
 2.2460	10.4040
 2.2470	10.3570
 2.2480	10.3120
 2.2490	10.2640
 2.2500	10.2150
 2.2510	10.1680
 2.2520	10.1210
 2.2530	10.0700
 2.2540	10.0210
 2.2550	 9.9760
 2.2560	 9.9290
 2.2570	 9.8800
 2.2580	 9.8300
 2.2590	 9.7760
 2.2600	 9.7270
 2.2610	 9.6780
 2.2620	 9.6300
 2.2630	 9.5900
 2.2640	 9.5510
 2.2650	 9.5130
 2.2660	 9.4770
 2.2670	 9.4370
 2.2680	 9.3940
 2.2690	 9.3560
 2.2700	 9.3170
 2.2710	 9.2860
 2.2720	 9.2630
 2.2730	 9.2340
 2.2740	 9.2080
 2.2750	 9.1760
 2.2760	 9.1370
 2.2770	 9.1060
 2.2780	 9.0750
 2.2790	 9.0470
 2.2800	 9.0260
 2.2810	 9.0000
 2.2820	 8.9710
 2.2830	 8.9460
 2.2840	 8.9200
 2.2850	 8.8940
 2.2860	 8.8710
 2.2870	 8.8430
 2.2880	 8.8130
 2.2890	 8.7810
 2.2900	 8.7450
 2.2910	 8.7110
 2.2920	 8.6770
 2.2930	 8.6400
 2.2940	 8.5990
 2.2950	 8.5630
 2.2960	 8.5230
 2.2970	 8.4900
 2.2980	 8.4640
 2.2990	 8.4400
 2.3000	 8.4120
 2.3010	 8.3850
 2.3020	 8.3560
 2.3030	 8.3290
 2.3040	 8.3040
 2.3050	 8.2810
 2.3060	 8.2610
 2.3070	 8.2430
 2.3080	 8.2310
 2.3090	 8.2240
 2.3100	 8.2140
 2.3110	 8.2090
 2.3120	 8.2040
 2.3130	 8.2000
 2.3140	 8.1980
 2.3150	 8.2010
 2.3160	 8.1990
 2.3170	 8.1960
 2.3180	 8.1910
 2.3190	 8.1810
 2.3200	 8.1780
 2.3210	 8.1800
 2.3220	 8.1780
 2.3230	 8.1810
 2.3240	 8.1720
 2.3250	 8.1510
 2.3260	 8.1340
 2.3270	 8.1100
 2.3280	 8.0910
 2.3290	 8.0790
 2.3300	 8.0610
 2.3310	 8.0410
 2.3320	 8.0210
 2.3330	 7.9960
 2.3340	 7.9750
 2.3350	 7.9600
 2.3360	 7.9380
 2.3370	 7.9120
 2.3380	 7.8870
 2.3390	 7.8590
 2.3400	 7.8320
 2.3410	 7.8070
 2.3420	 7.7840
 2.3430	 7.7590
 2.3440	 7.7420
 2.3450	 7.7370
 2.3460	 7.7220
 2.3470	 7.7050
 2.3480	 7.6920
 2.3490	 7.6780
 2.3500	 7.6620
 2.3510	 7.6520
 2.3520	 7.6390
 2.3530	 7.6200
 2.3540	 7.6050
 2.3550	 7.5960
 2.3560	 7.5820
 2.3570	 7.5690
 2.3580	 7.5570
 2.3590	 7.5480
 2.3600	 7.5340
 2.3610	 7.5340
 2.3620	 7.5330
 2.3630	 7.5240
 2.3640	 7.5180
 2.3650	 7.4940
 2.3660	 7.4670
 2.3670	 7.4410
 2.3680	 7.4190
 2.3690	 7.4050
 2.3700	 7.3900
 2.3710	 7.3780
 2.3720	 7.3620
 2.3730	 7.3450
 2.3740	 7.3360
 2.3750	 7.3300
 2.3760	 7.3170
 2.3770	 7.2970
 2.3780	 7.2730
 2.3790	 7.2450
 2.3800	 7.2240
 2.3810	 7.2160
 2.3820	 7.1970
 2.3830	 7.1820
 2.3840	 7.1700
 2.3850	 7.1530
 2.3860	 7.1480
 2.3870	 7.1400
 2.3880	 7.1240
 2.3890	 7.1030
 2.3900	 7.0850
 2.3910	 7.0680
 2.3920	 7.0480
 2.3930	 7.0350
 2.3940	 7.0170
 2.3950	 6.9950
 2.3960	 6.9790
 2.3970	 6.9630
 2.3980	 6.9520
 2.3990	 6.9510
 2.4000	 6.9380
 2.4010	 6.9250
 2.4020	 6.9110
 2.4030	 6.8940
 2.4040	 6.8760
 2.4050	 6.8460
 2.4060	 6.8130
 2.4070	 6.7850
 2.4080	 6.7680
 2.4090	 6.7630
 2.4100	 6.7480
 2.4110	 6.7240
 2.4120	 6.7040
 2.4130	 6.6960
 2.4140	 6.7000
 2.4150	 6.7010
 2.4160	 6.6880
 2.4170	 6.6710
 2.4180	 6.6410
 2.4190	 6.6170
 2.4200	 6.6140
 2.4210	 6.5910
 2.4220	 6.5750
 2.4230	 6.5630
 2.4240	 6.5260
 2.4250	 6.5040
 2.4260	 6.4860
 2.4270	 6.4650
 2.4280	 6.4590
 2.4290	 6.4460
 2.4300	 6.4340
 2.4310	 6.4240
 2.4320	 6.4030
 2.4330	 6.3990
 2.4340	 6.3880
 2.4350	 6.3670
 2.4360	 6.3510
 2.4370	 6.3180
 2.4380	 6.2960
 2.4390	 6.2850
 2.4400	 6.2610
 2.4410	 6.2340
 2.4420	 6.2030
 2.4430	 6.1880
 2.4440	 6.1890
 2.4450	 6.1960
 2.4460	 6.2060
 2.4470	 6.1920
 2.4480	 6.1640
 2.4490	 6.1390
 2.4500	 6.1220
 2.4510	 6.1160
 2.4520	 6.1120
 2.4530	 6.1060
 2.4540	 6.0860
 2.4550	 6.0600
 2.4560	 6.0330
 2.4570	 6.0160
 2.4580	 6.0150
 2.4590	 6.0060
 2.4600	 5.9910
 2.4610	 5.9770
 2.4620	 5.9550
 2.4630	 5.9400
 2.4640	 5.9530
 2.4650	 5.9690
 2.4660	 5.9540
 2.4670	 5.9340
 2.4680	 5.8980
 2.4690	 5.8690
 2.4700	 5.8540
 2.4710	 5.8620
 2.4720	 5.8670
 2.4730	 5.8610
 2.4740	 5.8670
 2.4750	 5.8870
 2.4760	 5.8830
 2.4770	 5.8810
 2.4780	 5.8700
 2.4790	 5.8310
 2.4800	 5.8170
 2.4810	 5.8060
 2.4820	 5.8130
 2.4830	 5.8420
 2.4840	 5.8330
 2.4850	 5.8120
 2.4860	 5.8300
 2.4870	 5.8420
 2.4880	 5.8390
 2.4890	 5.8400
 2.4900	 5.8490
 2.4910	 5.8200
 2.4920	 5.8340
 2.4930	 5.8870
 2.4940	 5.8450
 2.4950	 5.8100
 2.4960	 5.8260
 2.4970	 5.7910
 2.4980	 5.7490
 2.4990	 5.7520
 2.5000	 5.7120
