Name: Umbellularia californica 2
Type: vegetation
Class: Shrub
Genus: Umbellularia
Species: californica
Sample No.: VH238
Owner: UCSB
Wavelength Range: VSWIR
Origin: 34.5074; -119.7632; WGS84
Collection Date: 10/13/2013
Description: Samples were collected as part of the HyspIRI Airborne Campaign. 48 individual plants were sampled in three times in 2013 - spring  summer  and fall. The name of the sample includes a 1  2  or 3 which references a different individual of the species. Samples were taken to JPL and processed within 48 hours of collection. The same leaves were processed in the Nicolet and then measured using the ASD.
Measurement: Bidirectional reflectance
First Column: X
Second Column: Y
X Units: Wavelength (micrometers)
Y Units: Reflectance (percentage)
First X Value: 0.35
Last X Value: 2.5
Number of X Values: 2151
Additional Information: vegetation.shrub.umbellularia.californica.vswir.vh238.ucsb.asd.ancillary.txt

 0.3500	17.4180
 0.3510	17.4220
 0.3520	17.3720
 0.3530	17.2990
 0.3540	17.2970
 0.3550	17.3660
 0.3560	17.3770
 0.3570	17.3130
 0.3580	17.2260
 0.3590	17.2300
 0.3600	17.2270
 0.3610	17.1910
 0.3620	17.2390
 0.3630	17.1510
 0.3640	17.1170
 0.3650	17.2870
 0.3660	17.2680
 0.3670	17.1500
 0.3680	17.0860
 0.3690	17.2180
 0.3700	17.1680
 0.3710	17.1280
 0.3720	17.1610
 0.3730	16.9340
 0.3740	16.8940
 0.3750	17.0170
 0.3760	17.1290
 0.3770	17.1800
 0.3780	17.0920
 0.3790	16.9360
 0.3800	16.9060
 0.3810	16.9280
 0.3820	16.9510
 0.3830	16.9490
 0.3840	16.9390
 0.3850	16.9880
 0.3860	17.0100
 0.3870	16.9120
 0.3880	16.9200
 0.3890	16.9090
 0.3900	16.8570
 0.3910	16.8670
 0.3920	16.8320
 0.3930	16.8340
 0.3940	16.9090
 0.3950	16.8880
 0.3960	16.8430
 0.3970	16.8080
 0.3980	16.7950
 0.3990	16.8170
 0.4000	16.8560
 0.4010	16.8850
 0.4020	16.8780
 0.4030	16.7890
 0.4040	16.7420
 0.4050	16.8200
 0.4060	16.8330
 0.4070	16.8710
 0.4080	16.9150
 0.4090	16.8930
 0.4100	16.9100
 0.4110	16.9360
 0.4120	16.9510
 0.4130	16.9820
 0.4140	16.9750
 0.4150	16.9670
 0.4160	17.0040
 0.4170	17.0390
 0.4180	17.0700
 0.4190	17.1020
 0.4200	17.1400
 0.4210	17.1570
 0.4220	17.1780
 0.4230	17.2150
 0.4240	17.2290
 0.4250	17.2630
 0.4260	17.3050
 0.4270	17.3260
 0.4280	17.3510
 0.4290	17.3770
 0.4300	17.3980
 0.4310	17.4060
 0.4320	17.3970
 0.4330	17.3890
 0.4340	17.3930
 0.4350	17.3740
 0.4360	17.3870
 0.4370	17.4410
 0.4380	17.5090
 0.4390	17.5780
 0.4400	17.6430
 0.4410	17.6960
 0.4420	17.7160
 0.4430	17.7410
 0.4440	17.7710
 0.4450	17.7900
 0.4460	17.8030
 0.4470	17.8170
 0.4480	17.8340
 0.4490	17.8450
 0.4500	17.8620
 0.4510	17.8740
 0.4520	17.8760
 0.4530	17.9020
 0.4540	17.9270
 0.4550	17.9410
 0.4560	17.9410
 0.4570	17.9510
 0.4580	17.9710
 0.4590	17.9940
 0.4600	18.0090
 0.4610	18.0150
 0.4620	18.0210
 0.4630	18.0360
 0.4640	18.0550
 0.4650	18.0670
 0.4660	18.0680
 0.4670	18.0620
 0.4680	18.0810
 0.4690	18.1010
 0.4700	18.1000
 0.4710	18.1030
 0.4720	18.1120
 0.4730	18.1220
 0.4740	18.1250
 0.4750	18.1470
 0.4760	18.1440
 0.4770	18.1080
 0.4780	18.1000
 0.4790	18.1330
 0.4800	18.1550
 0.4810	18.1200
 0.4820	18.1110
 0.4830	18.1180
 0.4840	18.1290
 0.4850	18.1310
 0.4860	18.1400
 0.4870	18.1520
 0.4880	18.1640
 0.4890	18.1820
 0.4900	18.2150
 0.4910	18.2550
 0.4920	18.2860
 0.4930	18.3190
 0.4940	18.3530
 0.4950	18.3910
 0.4960	18.4500
 0.4970	18.5090
 0.4980	18.5810
 0.4990	18.6720
 0.5000	18.7560
 0.5010	18.8330
 0.5020	18.9130
 0.5030	19.0120
 0.5040	19.1360
 0.5050	19.2680
 0.5060	19.3990
 0.5070	19.5540
 0.5080	19.7190
 0.5090	19.8950
 0.5100	20.0880
 0.5110	20.3020
 0.5120	20.5320
 0.5130	20.7720
 0.5140	21.0180
 0.5150	21.2950
 0.5160	21.5940
 0.5170	21.8970
 0.5180	22.2130
 0.5190	22.5510
 0.5200	22.9020
 0.5210	23.2500
 0.5220	23.6220
 0.5230	23.9980
 0.5240	24.3650
 0.5250	24.7370
 0.5260	25.1090
 0.5270	25.4770
 0.5280	25.8410
 0.5290	26.1870
 0.5300	26.5300
 0.5310	26.8730
 0.5320	27.2060
 0.5330	27.5180
 0.5340	27.8180
 0.5350	28.1140
 0.5360	28.3910
 0.5370	28.6470
 0.5380	28.8850
 0.5390	29.1130
 0.5400	29.3100
 0.5410	29.4770
 0.5420	29.6240
 0.5430	29.7730
 0.5440	29.9280
 0.5450	30.0930
 0.5460	30.2740
 0.5470	30.5080
 0.5480	30.7400
 0.5490	30.9280
 0.5500	31.0660
 0.5510	31.1750
 0.5520	31.2640
 0.5530	31.3360
 0.5540	31.3820
 0.5550	31.4020
 0.5560	31.3960
 0.5570	31.3700
 0.5580	31.3140
 0.5590	31.2360
 0.5600	31.1400
 0.5610	31.0130
 0.5620	30.8800
 0.5630	30.7380
 0.5640	30.5750
 0.5650	30.4020
 0.5660	30.2310
 0.5670	30.0600
 0.5680	29.8740
 0.5690	29.6770
 0.5700	29.4740
 0.5710	29.2680
 0.5720	29.0580
 0.5730	28.8430
 0.5740	28.6350
 0.5750	28.4560
 0.5760	28.2840
 0.5770	28.1440
 0.5780	28.0420
 0.5790	27.9380
 0.5800	27.8340
 0.5810	27.7250
 0.5820	27.6040
 0.5830	27.4700
 0.5840	27.3280
 0.5850	27.1730
 0.5860	26.9920
 0.5870	26.8340
 0.5880	26.7120
 0.5890	26.6240
 0.5900	26.5650
 0.5910	26.5140
 0.5920	26.4560
 0.5930	26.3890
 0.5940	26.3340
 0.5950	26.2900
 0.5960	26.2520
 0.5970	26.2150
 0.5980	26.1690
 0.5990	26.1110
 0.6000	26.0440
 0.6010	25.9870
 0.6020	25.9250
 0.6030	25.8520
 0.6040	25.7660
 0.6050	25.6660
 0.6060	25.5490
 0.6070	25.4160
 0.6080	25.2900
 0.6090	25.1190
 0.6100	24.9000
 0.6110	24.6660
 0.6120	24.5460
 0.6130	24.4840
 0.6140	24.4220
 0.6150	24.3200
 0.6160	24.2170
 0.6170	24.1200
 0.6180	24.0260
 0.6190	23.9200
 0.6200	23.8250
 0.6210	23.7480
 0.6220	23.6850
 0.6230	23.6390
 0.6240	23.5990
 0.6250	23.5570
 0.6260	23.5380
 0.6270	23.5170
 0.6280	23.4950
 0.6290	23.4780
 0.6300	23.4600
 0.6310	23.4410
 0.6320	23.4220
 0.6330	23.3990
 0.6340	23.3620
 0.6350	23.2990
 0.6360	23.2060
 0.6370	23.1050
 0.6380	22.9780
 0.6390	22.8330
 0.6400	22.6820
 0.6410	22.5050
 0.6420	22.3210
 0.6430	22.1420
 0.6440	21.9570
 0.6450	21.7780
 0.6460	21.6050
 0.6470	21.4390
 0.6480	21.2980
 0.6490	21.1710
 0.6500	21.0550
 0.6510	20.9560
 0.6520	20.8690
 0.6530	20.7930
 0.6540	20.7210
 0.6550	20.6410
 0.6560	20.5580
 0.6570	20.4680
 0.6580	20.3620
 0.6590	20.2380
 0.6600	20.1140
 0.6610	19.9950
 0.6620	19.8710
 0.6630	19.7540
 0.6640	19.6400
 0.6650	19.5290
 0.6660	19.4320
 0.6670	19.3580
 0.6680	19.2990
 0.6690	19.2400
 0.6700	19.1960
 0.6710	19.1620
 0.6720	19.1360
 0.6730	19.1240
 0.6740	19.1230
 0.6750	19.1300
 0.6760	19.1400
 0.6770	19.1580
 0.6780	19.1870
 0.6790	19.2280
 0.6800	19.2760
 0.6810	19.3360
 0.6820	19.4180
 0.6830	19.5300
 0.6840	19.6790
 0.6850	19.8610
 0.6860	20.0940
 0.6870	20.3990
 0.6880	20.7660
 0.6890	21.2210
 0.6900	21.7840
 0.6910	22.4650
 0.6920	23.2640
 0.6930	24.1830
 0.6940	25.2280
 0.6950	26.4160
 0.6960	27.7150
 0.6970	29.1290
 0.6980	30.6640
 0.6990	32.2690
 0.7000	33.9320
 0.7010	35.6470
 0.7020	37.4090
 0.7030	39.1490
 0.7040	40.8740
 0.7050	42.5890
 0.7060	44.2630
 0.7070	45.8910
 0.7080	47.4670
 0.7090	48.9960
 0.7100	50.4980
 0.7110	51.9290
 0.7120	53.2890
 0.7130	54.6250
 0.7140	55.8980
 0.7150	57.1100
 0.7160	58.2680
 0.7170	59.3710
 0.7180	60.4350
 0.7190	61.4460
 0.7200	62.3830
 0.7210	63.2810
 0.7220	64.1400
 0.7230	64.9660
 0.7240	65.7670
 0.7250	66.5060
 0.7260	67.1880
 0.7270	67.8290
 0.7280	68.4550
 0.7290	69.0250
 0.7300	69.5480
 0.7310	70.0510
 0.7320	70.5370
 0.7330	70.9900
 0.7340	71.4040
 0.7350	71.7890
 0.7360	72.1700
 0.7370	72.5120
 0.7380	72.8030
 0.7390	73.1170
 0.7400	73.4130
 0.7410	73.6720
 0.7420	73.8950
 0.7430	74.1440
 0.7440	74.3570
 0.7450	74.5250
 0.7460	74.6910
 0.7470	74.8730
 0.7480	75.0380
 0.7490	75.1660
 0.7500	75.2870
 0.7510	75.4130
 0.7520	75.5240
 0.7530	75.5990
 0.7540	75.6780
 0.7550	75.7650
 0.7560	75.8500
 0.7570	75.9090
 0.7580	75.9590
 0.7590	76.0140
 0.7600	76.0710
 0.7610	76.0980
 0.7620	76.1470
 0.7630	76.1930
 0.7640	76.2060
 0.7650	76.2280
 0.7660	76.2500
 0.7670	76.2660
 0.7680	76.2770
 0.7690	76.3290
 0.7700	76.3540
 0.7710	76.3370
 0.7720	76.3500
 0.7730	76.3690
 0.7740	76.3910
 0.7750	76.4090
 0.7760	76.3960
 0.7770	76.3880
 0.7780	76.4030
 0.7790	76.4420
 0.7800	76.4520
 0.7810	76.4570
 0.7820	76.4650
 0.7830	76.4670
 0.7840	76.4550
 0.7850	76.4550
 0.7860	76.4820
 0.7870	76.5270
 0.7880	76.5180
 0.7890	76.4940
 0.7900	76.5090
 0.7910	76.5060
 0.7920	76.5100
 0.7930	76.5350
 0.7940	76.5770
 0.7950	76.5740
 0.7960	76.5660
 0.7970	76.5730
 0.7980	76.5760
 0.7990	76.5820
 0.8000	76.5970
 0.8010	76.6180
 0.8020	76.6340
 0.8030	76.6440
 0.8040	76.6430
 0.8050	76.6300
 0.8060	76.6440
 0.8070	76.6640
 0.8080	76.6770
 0.8090	76.6870
 0.8100	76.6820
 0.8110	76.6910
 0.8120	76.7190
 0.8130	76.7250
 0.8140	76.7200
 0.8150	76.7230
 0.8160	76.7490
 0.8170	76.7910
 0.8180	76.8050
 0.8190	76.7960
 0.8200	76.7910
 0.8210	76.7950
 0.8220	76.8230
 0.8230	76.8600
 0.8240	76.8690
 0.8250	76.8650
 0.8260	76.8650
 0.8270	76.8720
 0.8280	76.8730
 0.8290	76.8770
 0.8300	76.8890
 0.8310	76.9080
 0.8320	76.9090
 0.8330	76.9380
 0.8340	76.9720
 0.8350	76.9680
 0.8360	76.9540
 0.8370	76.9760
 0.8380	77.0190
 0.8390	77.0280
 0.8400	77.0290
 0.8410	77.0390
 0.8420	77.0460
 0.8430	76.9990
 0.8440	77.0450
 0.8450	77.1150
 0.8460	77.1330
 0.8470	77.1300
 0.8480	77.1370
 0.8490	77.1480
 0.8500	77.1480
 0.8510	77.1410
 0.8520	77.1530
 0.8530	77.1810
 0.8540	77.2000
 0.8550	77.2000
 0.8560	77.1840
 0.8570	77.1800
 0.8580	77.2320
 0.8590	77.2610
 0.8600	77.2560
 0.8610	77.2360
 0.8620	77.2440
 0.8630	77.2780
 0.8640	77.3020
 0.8650	77.2960
 0.8660	77.3070
 0.8670	77.2860
 0.8680	77.2580
 0.8690	77.2630
 0.8700	77.2880
 0.8710	77.2700
 0.8720	77.2370
 0.8730	77.2550
 0.8740	77.2700
 0.8750	77.2910
 0.8760	77.3180
 0.8770	77.3290
 0.8780	77.3080
 0.8790	77.2980
 0.8800	77.3080
 0.8810	77.2840
 0.8820	77.2440
 0.8830	77.2540
 0.8840	77.3200
 0.8850	77.3060
 0.8860	77.2800
 0.8870	77.2670
 0.8880	77.2710
 0.8890	77.2710
 0.8900	77.2610
 0.8910	77.2550
 0.8920	77.2610
 0.8930	77.2370
 0.8940	77.2400
 0.8950	77.2670
 0.8960	77.2710
 0.8970	77.2580
 0.8980	77.2250
 0.8990	77.1840
 0.9000	77.1550
 0.9010	77.1430
 0.9020	77.1440
 0.9030	77.1570
 0.9040	77.1820
 0.9050	77.1490
 0.9060	77.1210
 0.9070	77.1290
 0.9080	77.1060
 0.9090	77.1410
 0.9100	77.1610
 0.9110	77.1150
 0.9120	77.1260
 0.9130	77.1170
 0.9140	77.1070
 0.9150	77.1270
 0.9160	77.1310
 0.9170	77.1140
 0.9180	77.0890
 0.9190	77.0690
 0.9200	77.0360
 0.9210	77.0060
 0.9220	76.9830
 0.9230	76.9640
 0.9240	76.9860
 0.9250	76.9730
 0.9260	76.9260
 0.9270	76.9070
 0.9280	76.9210
 0.9290	76.9290
 0.9300	76.9220
 0.9310	76.9220
 0.9320	76.8560
 0.9330	76.8310
 0.9340	76.8500
 0.9350	76.7750
 0.9360	76.7150
 0.9370	76.7170
 0.9380	76.7520
 0.9390	76.7200
 0.9400	76.6580
 0.9410	76.5890
 0.9420	76.5330
 0.9430	76.5030
 0.9440	76.4800
 0.9450	76.4740
 0.9460	76.4700
 0.9470	76.3890
 0.9480	76.3200
 0.9490	76.2700
 0.9500	76.2160
 0.9510	76.1260
 0.9520	76.0410
 0.9530	75.9770
 0.9540	75.9280
 0.9550	75.8570
 0.9560	75.7770
 0.9570	75.7000
 0.9580	75.6330
 0.9590	75.5630
 0.9600	75.5040
 0.9610	75.4760
 0.9620	75.4730
 0.9630	75.4280
 0.9640	75.4180
 0.9650	75.3930
 0.9660	75.2930
 0.9670	75.2330
 0.9680	75.2390
 0.9690	75.2680
 0.9700	75.2620
 0.9710	75.2690
 0.9720	75.2460
 0.9730	75.2060
 0.9740	75.1900
 0.9750	75.2320
 0.9760	75.2300
 0.9770	75.2180
 0.9780	75.2770
 0.9790	75.3260
 0.9800	75.2870
 0.9810	75.2560
 0.9820	75.3480
 0.9830	75.3520
 0.9840	75.3520
 0.9850	75.3670
 0.9860	75.3810
 0.9870	75.4190
 0.9880	75.4290
 0.9890	75.4400
 0.9900	75.4930
 0.9910	75.4900
 0.9920	75.4970
 0.9930	75.5050
 0.9940	75.5120
 0.9950	75.5190
 0.9960	75.5270
 0.9970	75.5340
 0.9980	75.5410
 0.9990	75.5480
 1.0000	75.5560
 1.0010	75.5630
 1.0020	75.5700
 1.0030	75.5780
 1.0040	75.5850
 1.0050	75.5920
 1.0060	75.6000
 1.0070	75.6070
 1.0080	75.6140
 1.0090	75.6220
 1.0100	75.6220
 1.0110	75.6410
 1.0120	75.6720
 1.0130	75.7180
 1.0140	75.7540
 1.0150	75.7880
 1.0160	75.8180
 1.0170	75.8560
 1.0180	75.8870
 1.0190	75.9130
 1.0200	75.9360
 1.0210	75.9550
 1.0220	75.9780
 1.0230	76.0010
 1.0240	76.0310
 1.0250	76.0620
 1.0260	76.0900
 1.0270	76.1210
 1.0280	76.1620
 1.0290	76.1860
 1.0300	76.1930
 1.0310	76.2160
 1.0320	76.2300
 1.0330	76.2700
 1.0340	76.2870
 1.0350	76.2980
 1.0360	76.3110
 1.0370	76.2990
 1.0380	76.3130
 1.0390	76.3480
 1.0400	76.3660
 1.0410	76.3800
 1.0420	76.3970
 1.0430	76.4150
 1.0440	76.4290
 1.0450	76.4430
 1.0460	76.4570
 1.0470	76.4680
 1.0480	76.4750
 1.0490	76.4830
 1.0500	76.4900
 1.0510	76.4830
 1.0520	76.4910
 1.0530	76.5000
 1.0540	76.5110
 1.0550	76.5280
 1.0560	76.5620
 1.0570	76.5730
 1.0580	76.5720
 1.0590	76.5870
 1.0600	76.6010
 1.0610	76.6100
 1.0620	76.6350
 1.0630	76.6470
 1.0640	76.6370
 1.0650	76.6390
 1.0660	76.6430
 1.0670	76.6490
 1.0680	76.6570
 1.0690	76.6680
 1.0700	76.6770
 1.0710	76.6910
 1.0720	76.6930
 1.0730	76.6880
 1.0740	76.6880
 1.0750	76.6820
 1.0760	76.6860
 1.0770	76.7010
 1.0780	76.7100
 1.0790	76.7260
 1.0800	76.7280
 1.0810	76.7140
 1.0820	76.7090
 1.0830	76.7050
 1.0840	76.6960
 1.0850	76.6940
 1.0860	76.6850
 1.0870	76.6770
 1.0880	76.6610
 1.0890	76.6560
 1.0900	76.6590
 1.0910	76.6560
 1.0920	76.6560
 1.0930	76.6460
 1.0940	76.6290
 1.0950	76.6140
 1.0960	76.5900
 1.0970	76.5750
 1.0980	76.5640
 1.0990	76.5530
 1.1000	76.5480
 1.1010	76.5370
 1.1020	76.5240
 1.1030	76.5140
 1.1040	76.4990
 1.1050	76.4820
 1.1060	76.4610
 1.1070	76.4370
 1.1080	76.4090
 1.1090	76.3710
 1.1100	76.3460
 1.1110	76.3270
 1.1120	76.3010
 1.1130	76.2810
 1.1140	76.2520
 1.1150	76.2110
 1.1160	76.1730
 1.1170	76.1280
 1.1180	76.0920
 1.1190	76.0620
 1.1200	76.0260
 1.1210	75.9840
 1.1220	75.9390
 1.1230	75.8820
 1.1240	75.8170
 1.1250	75.7530
 1.1260	75.6940
 1.1270	75.6160
 1.1280	75.5310
 1.1290	75.4340
 1.1300	75.3180
 1.1310	75.2020
 1.1320	75.0820
 1.1330	74.9510
 1.1340	74.8150
 1.1350	74.6710
 1.1360	74.5190
 1.1370	74.3530
 1.1380	74.1850
 1.1390	74.0080
 1.1400	73.8170
 1.1410	73.6200
 1.1420	73.4140
 1.1430	73.2100
 1.1440	73.0130
 1.1450	72.8170
 1.1460	72.6250
 1.1470	72.4380
 1.1480	72.2530
 1.1490	72.0650
 1.1500	71.8940
 1.1510	71.7280
 1.1520	71.5770
 1.1530	71.4410
 1.1540	71.3150
 1.1550	71.1980
 1.1560	71.0960
 1.1570	70.9970
 1.1580	70.8970
 1.1590	70.8060
 1.1600	70.7260
 1.1610	70.6650
 1.1620	70.6110
 1.1630	70.5590
 1.1640	70.5090
 1.1650	70.4640
 1.1660	70.4220
 1.1670	70.3850
 1.1680	70.3560
 1.1690	70.3260
 1.1700	70.3000
 1.1710	70.2710
 1.1720	70.2440
 1.1730	70.2150
 1.1740	70.1860
 1.1750	70.1480
 1.1760	70.1140
 1.1770	70.0790
 1.1780	70.0460
 1.1790	70.0160
 1.1800	69.9780
 1.1810	69.9410
 1.1820	69.8990
 1.1830	69.8580
 1.1840	69.8210
 1.1850	69.7820
 1.1860	69.7490
 1.1870	69.7250
 1.1880	69.6990
 1.1890	69.6780
 1.1900	69.6570
 1.1910	69.6350
 1.1920	69.6160
 1.1930	69.5990
 1.1940	69.5880
 1.1950	69.5810
 1.1960	69.5730
 1.1970	69.5670
 1.1980	69.5710
 1.1990	69.5780
 1.2000	69.5840
 1.2010	69.5990
 1.2020	69.6150
 1.2030	69.6280
 1.2040	69.6500
 1.2050	69.6820
 1.2060	69.7220
 1.2070	69.7740
 1.2080	69.8290
 1.2090	69.8850
 1.2100	69.9370
 1.2110	69.9900
 1.2120	70.0430
 1.2130	70.1000
 1.2140	70.1520
 1.2150	70.2160
 1.2160	70.2900
 1.2170	70.3560
 1.2180	70.4280
 1.2190	70.4990
 1.2200	70.5640
 1.2210	70.6400
 1.2220	70.7110
 1.2230	70.7810
 1.2240	70.8560
 1.2250	70.9180
 1.2260	70.9770
 1.2270	71.0470
 1.2280	71.1100
 1.2290	71.1660
 1.2300	71.2290
 1.2310	71.2850
 1.2320	71.3390
 1.2330	71.3920
 1.2340	71.4430
 1.2350	71.4940
 1.2360	71.5380
 1.2370	71.5760
 1.2380	71.6180
 1.2390	71.6640
 1.2400	71.7040
 1.2410	71.7490
 1.2420	71.7940
 1.2430	71.8260
 1.2440	71.8640
 1.2450	71.9060
 1.2460	71.9400
 1.2470	71.9770
 1.2480	72.0110
 1.2490	72.0360
 1.2500	72.0610
 1.2510	72.0850
 1.2520	72.1070
 1.2530	72.1300
 1.2540	72.1520
 1.2550	72.1690
 1.2560	72.1880
 1.2570	72.2050
 1.2580	72.2160
 1.2590	72.2270
 1.2600	72.2390
 1.2610	72.2460
 1.2620	72.2460
 1.2630	72.2570
 1.2640	72.2720
 1.2650	72.2770
 1.2660	72.2840
 1.2670	72.2880
 1.2680	72.2750
 1.2690	72.2630
 1.2700	72.2600
 1.2710	72.2540
 1.2720	72.2500
 1.2730	72.2430
 1.2740	72.2230
 1.2750	72.2060
 1.2760	72.1880
 1.2770	72.1650
 1.2780	72.1540
 1.2790	72.1430
 1.2800	72.1220
 1.2810	72.1060
 1.2820	72.0870
 1.2830	72.0550
 1.2840	72.0210
 1.2850	71.9860
 1.2860	71.9430
 1.2870	71.9010
 1.2880	71.8570
 1.2890	71.8150
 1.2900	71.7690
 1.2910	71.7290
 1.2920	71.6930
 1.2930	71.6520
 1.2940	71.6160
 1.2950	71.5840
 1.2960	71.5440
 1.2970	71.5080
 1.2980	71.4680
 1.2990	71.4130
 1.3000	71.3540
 1.3010	71.2870
 1.3020	71.2210
 1.3030	71.1600
 1.3040	71.0910
 1.3050	71.0200
 1.3060	70.9490
 1.3070	70.8710
 1.3080	70.7880
 1.3090	70.7060
 1.3100	70.6210
 1.3110	70.5250
 1.3120	70.4310
 1.3130	70.3320
 1.3140	70.2220
 1.3150	70.1000
 1.3160	69.9760
 1.3170	69.8460
 1.3180	69.7090
 1.3190	69.5740
 1.3200	69.4400
 1.3210	69.3050
 1.3220	69.1660
 1.3230	69.0200
 1.3240	68.8570
 1.3250	68.6860
 1.3260	68.5210
 1.3270	68.3570
 1.3280	68.1930
 1.3290	68.0250
 1.3300	67.8460
 1.3310	67.6620
 1.3320	67.4700
 1.3330	67.2810
 1.3340	67.0950
 1.3350	66.8980
 1.3360	66.7020
 1.3370	66.5020
 1.3380	66.2960
 1.3390	66.0930
 1.3400	65.8910
 1.3410	65.6920
 1.3420	65.4970
 1.3430	65.3090
 1.3440	65.1240
 1.3450	64.9360
 1.3460	64.7480
 1.3470	64.5600
 1.3480	64.3630
 1.3490	64.1740
 1.3500	63.9880
 1.3510	63.8030
 1.3520	63.6170
 1.3530	63.4380
 1.3540	63.2540
 1.3550	63.0640
 1.3560	62.8730
 1.3570	62.6800
 1.3580	62.4890
 1.3590	62.2990
 1.3600	62.1060
 1.3610	61.9070
 1.3620	61.6960
 1.3630	61.4810
 1.3640	61.2610
 1.3650	61.0270
 1.3660	60.7890
 1.3670	60.5410
 1.3680	60.2730
 1.3690	59.9940
 1.3700	59.6960
 1.3710	59.3750
 1.3720	59.0390
 1.3730	58.6800
 1.3740	58.3020
 1.3750	57.9090
 1.3760	57.4900
 1.3770	57.0470
 1.3780	56.5700
 1.3790	56.0620
 1.3800	55.5270
 1.3810	54.9590
 1.3820	54.3730
 1.3830	53.7670
 1.3840	53.1320
 1.3850	52.4680
 1.3860	51.7920
 1.3870	51.0880
 1.3880	50.3810
 1.3890	49.6600
 1.3900	48.9340
 1.3910	48.2080
 1.3920	47.4760
 1.3930	46.7440
 1.3940	46.0110
 1.3950	45.2770
 1.3960	44.5540
 1.3970	43.8460
 1.3980	43.1560
 1.3990	42.4900
 1.4000	41.8400
 1.4010	41.2080
 1.4020	40.6030
 1.4030	40.0180
 1.4040	39.4620
 1.4050	38.9370
 1.4060	38.4350
 1.4070	37.9640
 1.4080	37.5200
 1.4090	37.1010
 1.4100	36.7110
 1.4110	36.3460
 1.4120	36.0050
 1.4130	35.6940
 1.4140	35.4080
 1.4150	35.1490
 1.4160	34.9120
 1.4170	34.6940
 1.4180	34.4950
 1.4190	34.3150
 1.4200	34.1530
 1.4210	34.0080
 1.4220	33.8790
 1.4230	33.7640
 1.4240	33.6610
 1.4250	33.5700
 1.4260	33.4950
 1.4270	33.4260
 1.4280	33.3670
 1.4290	33.3170
 1.4300	33.2750
 1.4310	33.2400
 1.4320	33.2140
 1.4330	33.1900
 1.4340	33.1710
 1.4350	33.1580
 1.4360	33.1520
 1.4370	33.1530
 1.4380	33.1610
 1.4390	33.1740
 1.4400	33.1910
 1.4410	33.2150
 1.4420	33.2420
 1.4430	33.2720
 1.4440	33.3070
 1.4450	33.3440
 1.4460	33.3820
 1.4470	33.4240
 1.4480	33.4640
 1.4490	33.5020
 1.4500	33.5390
 1.4510	33.5740
 1.4520	33.6090
 1.4530	33.6430
 1.4540	33.6800
 1.4550	33.7180
 1.4560	33.7590
 1.4570	33.8100
 1.4580	33.8640
 1.4590	33.9200
 1.4600	33.9890
 1.4610	34.0590
 1.4620	34.1340
 1.4630	34.2230
 1.4640	34.3120
 1.4650	34.4030
 1.4660	34.5040
 1.4670	34.6090
 1.4680	34.7220
 1.4690	34.8420
 1.4700	34.9680
 1.4710	35.0970
 1.4720	35.2270
 1.4730	35.3660
 1.4740	35.5070
 1.4750	35.6480
 1.4760	35.7930
 1.4770	35.9410
 1.4780	36.0910
 1.4790	36.2450
 1.4800	36.4030
 1.4810	36.5630
 1.4820	36.7250
 1.4830	36.8880
 1.4840	37.0530
 1.4850	37.2180
 1.4860	37.3840
 1.4870	37.5540
 1.4880	37.7230
 1.4890	37.8900
 1.4900	38.0570
 1.4910	38.2190
 1.4920	38.3880
 1.4930	38.5610
 1.4940	38.7320
 1.4950	38.9070
 1.4960	39.0800
 1.4970	39.2480
 1.4980	39.4200
 1.4990	39.5930
 1.5000	39.7670
 1.5010	39.9460
 1.5020	40.1190
 1.5030	40.2890
 1.5040	40.4600
 1.5050	40.6240
 1.5060	40.7930
 1.5070	40.9670
 1.5080	41.1350
 1.5090	41.2990
 1.5100	41.4620
 1.5110	41.6250
 1.5120	41.7860
 1.5130	41.9510
 1.5140	42.1130
 1.5150	42.2710
 1.5160	42.4280
 1.5170	42.5850
 1.5180	42.7370
 1.5190	42.8890
 1.5200	43.0440
 1.5210	43.1930
 1.5220	43.3460
 1.5230	43.5050
 1.5240	43.6550
 1.5250	43.8050
 1.5260	43.9530
 1.5270	44.0900
 1.5280	44.2320
 1.5290	44.3710
 1.5300	44.5060
 1.5310	44.6410
 1.5320	44.7670
 1.5330	44.8930
 1.5340	45.0210
 1.5350	45.1510
 1.5360	45.2800
 1.5370	45.4090
 1.5380	45.5400
 1.5390	45.6720
 1.5400	45.8050
 1.5410	45.9370
 1.5420	46.0630
 1.5430	46.1840
 1.5440	46.3080
 1.5450	46.4260
 1.5460	46.5440
 1.5470	46.6670
 1.5480	46.7860
 1.5490	46.9070
 1.5500	47.0310
 1.5510	47.1500
 1.5520	47.2690
 1.5530	47.3850
 1.5540	47.4970
 1.5550	47.6070
 1.5560	47.7120
 1.5570	47.8160
 1.5580	47.9200
 1.5590	48.0200
 1.5600	48.1210
 1.5610	48.2220
 1.5620	48.3220
 1.5630	48.4240
 1.5640	48.5260
 1.5650	48.6300
 1.5660	48.7340
 1.5670	48.8390
 1.5680	48.9380
 1.5690	49.0360
 1.5700	49.1310
 1.5710	49.2270
 1.5720	49.3280
 1.5730	49.4290
 1.5740	49.5280
 1.5750	49.6240
 1.5760	49.7140
 1.5770	49.8060
 1.5780	49.9030
 1.5790	49.9990
 1.5800	50.1010
 1.5810	50.1970
 1.5820	50.2830
 1.5830	50.3690
 1.5840	50.4450
 1.5850	50.5230
 1.5860	50.6090
 1.5870	50.6970
 1.5880	50.7910
 1.5890	50.8850
 1.5900	50.9750
 1.5910	51.0630
 1.5920	51.1540
 1.5930	51.2450
 1.5940	51.3320
 1.5950	51.4200
 1.5960	51.5040
 1.5970	51.5860
 1.5980	51.6690
 1.5990	51.7500
 1.6000	51.8290
 1.6010	51.9000
 1.6020	51.9710
 1.6030	52.0440
 1.6040	52.1190
 1.6050	52.1970
 1.6060	52.2800
 1.6070	52.3590
 1.6080	52.4330
 1.6090	52.5100
 1.6100	52.5790
 1.6110	52.6450
 1.6120	52.7140
 1.6130	52.7780
 1.6140	52.8370
 1.6150	52.9000
 1.6160	52.9590
 1.6170	53.0160
 1.6180	53.0730
 1.6190	53.1290
 1.6200	53.1840
 1.6210	53.2370
 1.6220	53.2890
 1.6230	53.3430
 1.6240	53.3970
 1.6250	53.4450
 1.6260	53.4990
 1.6270	53.5500
 1.6280	53.5970
 1.6290	53.6420
 1.6300	53.6790
 1.6310	53.7180
 1.6320	53.7570
 1.6330	53.7940
 1.6340	53.8320
 1.6350	53.8700
 1.6360	53.9040
 1.6370	53.9440
 1.6380	53.9890
 1.6390	54.0310
 1.6400	54.0720
 1.6410	54.1120
 1.6420	54.1520
 1.6430	54.1870
 1.6440	54.2210
 1.6450	54.2490
 1.6460	54.2730
 1.6470	54.2890
 1.6480	54.2980
 1.6490	54.3080
 1.6500	54.3170
 1.6510	54.3290
 1.6520	54.3410
 1.6530	54.3420
 1.6540	54.3380
 1.6550	54.3250
 1.6560	54.3110
 1.6570	54.2920
 1.6580	54.2660
 1.6590	54.2430
 1.6600	54.2160
 1.6610	54.1890
 1.6620	54.1590
 1.6630	54.1210
 1.6640	54.0840
 1.6650	54.0440
 1.6660	54.0040
 1.6670	53.9570
 1.6680	53.9050
 1.6690	53.8520
 1.6700	53.7900
 1.6710	53.7290
 1.6720	53.6670
 1.6730	53.5910
 1.6740	53.5080
 1.6750	53.4190
 1.6760	53.3230
 1.6770	53.2270
 1.6780	53.1290
 1.6790	53.0290
 1.6800	52.9280
 1.6810	52.8200
 1.6820	52.7040
 1.6830	52.5780
 1.6840	52.4450
 1.6850	52.3090
 1.6860	52.1690
 1.6870	52.0320
 1.6880	51.8930
 1.6890	51.7520
 1.6900	51.6090
 1.6910	51.4620
 1.6920	51.3180
 1.6930	51.1640
 1.6940	51.0320
 1.6950	50.9150
 1.6960	50.7980
 1.6970	50.6970
 1.6980	50.5910
 1.6990	50.4830
 1.7000	50.3750
 1.7010	50.2710
 1.7020	50.1630
 1.7030	50.0510
 1.7040	49.9410
 1.7050	49.8310
 1.7060	49.7190
 1.7070	49.6040
 1.7080	49.4950
 1.7090	49.3840
 1.7100	49.2810
 1.7110	49.1800
 1.7120	49.0890
 1.7130	48.9990
 1.7140	48.9240
 1.7150	48.8570
 1.7160	48.7960
 1.7170	48.7470
 1.7180	48.7010
 1.7190	48.6580
 1.7200	48.6280
 1.7210	48.5990
 1.7220	48.5720
 1.7230	48.5540
 1.7240	48.5350
 1.7250	48.5220
 1.7260	48.5150
 1.7270	48.5040
 1.7280	48.5000
 1.7290	48.4960
 1.7300	48.4860
 1.7310	48.4800
 1.7320	48.4700
 1.7330	48.4620
 1.7340	48.4610
 1.7350	48.4590
 1.7360	48.4610
 1.7370	48.4500
 1.7380	48.4400
 1.7390	48.4120
 1.7400	48.3690
 1.7410	48.3190
 1.7420	48.2580
 1.7430	48.1890
 1.7440	48.1060
 1.7450	48.0280
 1.7460	47.9440
 1.7470	47.8640
 1.7480	47.7830
 1.7490	47.7070
 1.7500	47.6310
 1.7510	47.5620
 1.7520	47.5010
 1.7530	47.4340
 1.7540	47.3670
 1.7550	47.2980
 1.7560	47.2370
 1.7570	47.1870
 1.7580	47.1390
 1.7590	47.0920
 1.7600	47.0480
 1.7610	46.9930
 1.7620	46.9480
 1.7630	46.9070
 1.7640	46.8690
 1.7650	46.8410
 1.7660	46.8120
 1.7670	46.7840
 1.7680	46.7550
 1.7690	46.7250
 1.7700	46.6940
 1.7710	46.6590
 1.7720	46.6280
 1.7730	46.6010
 1.7740	46.5690
 1.7750	46.5340
 1.7760	46.5010
 1.7770	46.4600
 1.7780	46.4350
 1.7790	46.4170
 1.7800	46.4040
 1.7810	46.3990
 1.7820	46.3980
 1.7830	46.3960
 1.7840	46.4090
 1.7850	46.4330
 1.7860	46.4570
 1.7870	46.4900
 1.7880	46.5210
 1.7890	46.5560
 1.7900	46.6090
 1.7910	46.6540
 1.7920	46.7060
 1.7930	46.7490
 1.7940	46.7840
 1.7950	46.8130
 1.7960	46.8310
 1.7970	46.8520
 1.7980	46.8640
 1.7990	46.8870
 1.8000	46.9240
 1.8010	46.9470
 1.8020	46.9680
 1.8030	46.9840
 1.8040	46.9840
 1.8050	46.9990
 1.8060	47.0230
 1.8070	47.0400
 1.8080	47.0620
 1.8090	47.0720
 1.8100	47.0690
 1.8110	47.0860
 1.8120	47.0990
 1.8130	47.1240
 1.8140	47.1540
 1.8150	47.1740
 1.8160	47.1930
 1.8170	47.2080
 1.8180	47.2220
 1.8190	47.2290
 1.8200	47.2380
 1.8210	47.2460
 1.8220	47.2490
 1.8230	47.2510
 1.8240	47.2530
 1.8250	47.2520
 1.8260	47.2470
 1.8270	47.1120
 1.8280	46.9770
 1.8290	46.8420
 1.8300	46.7070
 1.8310	46.5720
 1.8320	46.4370
 1.8330	46.3020
 1.8340	46.1670
 1.8350	46.1670
 1.8360	46.1230
 1.8370	46.0680
 1.8380	46.0150
 1.8390	45.9580
 1.8400	45.9040
 1.8410	45.8370
 1.8420	45.7710
 1.8430	45.6820
 1.8440	45.5740
 1.8450	45.4680
 1.8460	45.3470
 1.8470	45.2160
 1.8480	45.0950
 1.8490	44.9560
 1.8500	44.7920
 1.8510	44.6060
 1.8520	44.4180
 1.8530	44.1950
 1.8540	43.9360
 1.8550	43.6840
 1.8560	43.4220
 1.8570	43.1460
 1.8580	42.8670
 1.8590	42.5640
 1.8600	42.2460
 1.8610	41.9010
 1.8620	41.5380
 1.8630	41.1560
 1.8640	40.7520
 1.8650	40.3280
 1.8660	39.8840
 1.8670	39.4120
 1.8680	38.9170
 1.8690	38.3990
 1.8700	37.8640
 1.8710	37.2990
 1.8720	36.7370
 1.8730	36.1700
 1.8740	35.5880
 1.8750	34.9970
 1.8760	34.3840
 1.8770	33.7720
 1.8780	33.1620
 1.8790	32.5440
 1.8800	31.9420
 1.8810	31.3480
 1.8820	30.7600
 1.8830	30.1750
 1.8840	29.6090
 1.8850	29.0610
 1.8860	28.5280
 1.8870	28.0130
 1.8880	27.5170
 1.8890	27.0460
 1.8900	26.5970
 1.8910	26.1730
 1.8920	25.7720
 1.8930	25.4010
 1.8940	25.0530
 1.8950	24.7260
 1.8960	24.4180
 1.8970	24.1440
 1.8980	23.8970
 1.8990	23.6700
 1.9000	23.4690
 1.9010	23.3040
 1.9020	23.1420
 1.9030	22.9980
 1.9040	22.8720
 1.9050	22.7470
 1.9060	22.6410
 1.9070	22.5550
 1.9080	22.4720
 1.9090	22.4020
 1.9100	22.3400
 1.9110	22.2830
 1.9120	22.2310
 1.9130	22.1890
 1.9140	22.1570
 1.9150	22.1300
 1.9160	22.1120
 1.9170	22.0980
 1.9180	22.0960
 1.9190	22.0990
 1.9200	22.0970
 1.9210	22.0990
 1.9220	22.0980
 1.9230	22.0890
 1.9240	22.0900
 1.9250	22.0940
 1.9260	22.0970
 1.9270	22.1070
 1.9280	22.1180
 1.9290	22.1240
 1.9300	22.1350
 1.9310	22.1460
 1.9320	22.1520
 1.9330	22.1690
 1.9340	22.1960
 1.9350	22.2150
 1.9360	22.2340
 1.9370	22.2580
 1.9380	22.2830
 1.9390	22.3030
 1.9400	22.3390
 1.9410	22.3850
 1.9420	22.4200
 1.9430	22.4560
 1.9440	22.4950
 1.9450	22.5310
 1.9460	22.5710
 1.9470	22.6220
 1.9480	22.6670
 1.9490	22.7120
 1.9500	22.7520
 1.9510	22.7940
 1.9520	22.8330
 1.9530	22.8770
 1.9540	22.9260
 1.9550	22.9730
 1.9560	23.0200
 1.9570	23.0720
 1.9580	23.1220
 1.9590	23.1780
 1.9600	23.2460
 1.9610	23.3070
 1.9620	23.3670
 1.9630	23.4300
 1.9640	23.4940
 1.9650	23.5590
 1.9660	23.6280
 1.9670	23.7030
 1.9680	23.7760
 1.9690	23.8510
 1.9700	23.9210
 1.9710	23.9880
 1.9720	24.0570
 1.9730	24.1220
 1.9740	24.1920
 1.9750	24.2700
 1.9760	24.3590
 1.9770	24.4500
 1.9780	24.5350
 1.9790	24.6180
 1.9800	24.6950
 1.9810	24.7730
 1.9820	24.8480
 1.9830	24.9270
 1.9840	25.0060
 1.9850	25.0870
 1.9860	25.1730
 1.9870	25.2580
 1.9880	25.3410
 1.9890	25.4200
 1.9900	25.5010
 1.9910	25.5780
 1.9920	25.6610
 1.9930	25.7480
 1.9940	25.8310
 1.9950	25.9130
 1.9960	25.9980
 1.9970	26.0810
 1.9980	26.1650
 1.9990	26.2500
 2.0000	26.3430
 2.0010	26.4230
 2.0020	26.5080
 2.0030	26.5940
 2.0040	26.6750
 2.0050	26.7610
 2.0060	26.8540
 2.0070	26.9400
 2.0080	27.0230
 2.0090	27.1100
 2.0100	27.1950
 2.0110	27.2860
 2.0120	27.3830
 2.0130	27.4800
 2.0140	27.5770
 2.0150	27.6740
 2.0160	27.7670
 2.0170	27.8580
 2.0180	27.9410
 2.0190	28.0170
 2.0200	28.0890
 2.0210	28.1490
 2.0220	28.2160
 2.0230	28.2820
 2.0240	28.3490
 2.0250	28.4180
 2.0260	28.4840
 2.0270	28.5480
 2.0280	28.6090
 2.0290	28.6690
 2.0300	28.7270
 2.0310	28.7880
 2.0320	28.8510
 2.0330	28.9140
 2.0340	28.9880
 2.0350	29.0430
 2.0360	29.0830
 2.0370	29.1340
 2.0380	29.1730
 2.0390	29.2250
 2.0400	29.2930
 2.0410	29.3570
 2.0420	29.4220
 2.0430	29.4910
 2.0440	29.5510
 2.0450	29.6110
 2.0460	29.6630
 2.0470	29.7000
 2.0480	29.7530
 2.0490	29.8120
 2.0500	29.8680
 2.0510	29.9370
 2.0520	29.9910
 2.0530	30.0300
 2.0540	30.0770
 2.0550	30.1230
 2.0560	30.1660
 2.0570	30.2170
 2.0580	30.2820
 2.0590	30.3350
 2.0600	30.3870
 2.0610	30.4380
 2.0620	30.4900
 2.0630	30.5310
 2.0640	30.5650
 2.0650	30.6020
 2.0660	30.6260
 2.0670	30.6590
 2.0680	30.7030
 2.0690	30.7400
 2.0700	30.7710
 2.0710	30.8070
 2.0720	30.8420
 2.0730	30.8820
 2.0740	30.9260
 2.0750	30.9770
 2.0760	31.0290
 2.0770	31.0850
 2.0780	31.1360
 2.0790	31.1870
 2.0800	31.2370
 2.0810	31.2800
 2.0820	31.3270
 2.0830	31.3730
 2.0840	31.4210
 2.0850	31.4710
 2.0860	31.5200
 2.0870	31.5740
 2.0880	31.6220
 2.0890	31.6680
 2.0900	31.7070
 2.0910	31.7510
 2.0920	31.7940
 2.0930	31.8420
 2.0940	31.8900
 2.0950	31.9470
 2.0960	32.0150
 2.0970	32.0710
 2.0980	32.1300
 2.0990	32.1840
 2.1000	32.2220
 2.1010	32.2710
 2.1020	32.3260
 2.1030	32.3810
 2.1040	32.4370
 2.1050	32.5000
 2.1060	32.5560
 2.1070	32.6170
 2.1080	32.6650
 2.1090	32.7020
 2.1100	32.7490
 2.1110	32.7870
 2.1120	32.8390
 2.1130	32.9040
 2.1140	32.9640
 2.1150	33.0300
 2.1160	33.0900
 2.1170	33.1490
 2.1180	33.2080
 2.1190	33.2690
 2.1200	33.3230
 2.1210	33.3720
 2.1220	33.4220
 2.1230	33.4710
 2.1240	33.5140
 2.1250	33.5590
 2.1260	33.6050
 2.1270	33.6530
 2.1280	33.6970
 2.1290	33.7500
 2.1300	33.8160
 2.1310	33.8700
 2.1320	33.9240
 2.1330	33.9720
 2.1340	34.0050
 2.1350	34.0490
 2.1360	34.0980
 2.1370	34.1430
 2.1380	34.1950
 2.1390	34.2350
 2.1400	34.2620
 2.1410	34.2940
 2.1420	34.3140
 2.1430	34.3210
 2.1440	34.3370
 2.1450	34.3460
 2.1460	34.3640
 2.1470	34.3850
 2.1480	34.4080
 2.1490	34.4330
 2.1500	34.4640
 2.1510	34.5060
 2.1520	34.5400
 2.1530	34.5730
 2.1540	34.6070
 2.1550	34.6390
 2.1560	34.6700
 2.1570	34.7110
 2.1580	34.7380
 2.1590	34.7580
 2.1600	34.7650
 2.1610	34.7720
 2.1620	34.7840
 2.1630	34.8060
 2.1640	34.8380
 2.1650	34.8690
 2.1660	34.9140
 2.1670	34.9410
 2.1680	34.9610
 2.1690	34.9810
 2.1700	34.9920
 2.1710	35.0030
 2.1720	35.0090
 2.1730	35.0260
 2.1740	35.0490
 2.1750	35.0660
 2.1760	35.0860
 2.1770	35.1070
 2.1780	35.1180
 2.1790	35.1370
 2.1800	35.1660
 2.1810	35.1990
 2.1820	35.2430
 2.1830	35.2790
 2.1840	35.3120
 2.1850	35.3520
 2.1860	35.3740
 2.1870	35.3810
 2.1880	35.3950
 2.1890	35.4020
 2.1900	35.4150
 2.1910	35.4270
 2.1920	35.4430
 2.1930	35.4580
 2.1940	35.4800
 2.1950	35.5110
 2.1960	35.5390
 2.1970	35.5790
 2.1980	35.6000
 2.1990	35.6110
 2.2000	35.6220
 2.2010	35.6160
 2.2020	35.6230
 2.2030	35.6440
 2.2040	35.6560
 2.2050	35.6700
 2.2060	35.6840
 2.2070	35.6930
 2.2080	35.6940
 2.2090	35.7030
 2.2100	35.7180
 2.2110	35.7180
 2.2120	35.7180
 2.2130	35.7030
 2.2140	35.6700
 2.2150	35.6420
 2.2160	35.6040
 2.2170	35.5810
 2.2180	35.5650
 2.2190	35.5480
 2.2200	35.5500
 2.2210	35.5250
 2.2220	35.4730
 2.2230	35.4420
 2.2240	35.4110
 2.2250	35.3790
 2.2260	35.3700
 2.2270	35.3390
 2.2280	35.2850
 2.2290	35.2390
 2.2300	35.1890
 2.2310	35.1410
 2.2320	35.0930
 2.2330	35.0390
 2.2340	34.9820
 2.2350	34.9250
 2.2360	34.8480
 2.2370	34.7640
 2.2380	34.6740
 2.2390	34.5590
 2.2400	34.4730
 2.2410	34.4020
 2.2420	34.3160
 2.2430	34.2390
 2.2440	34.1470
 2.2450	34.0410
 2.2460	33.9350
 2.2470	33.8180
 2.2480	33.7110
 2.2490	33.6030
 2.2500	33.5010
 2.2510	33.4130
 2.2520	33.3190
 2.2530	33.2290
 2.2540	33.1300
 2.2550	33.0280
 2.2560	32.9230
 2.2570	32.8070
 2.2580	32.6960
 2.2590	32.5890
 2.2600	32.4750
 2.2610	32.3600
 2.2620	32.2360
 2.2630	32.1090
 2.2640	31.9710
 2.2650	31.8390
 2.2660	31.7360
 2.2670	31.6420
 2.2680	31.5660
 2.2690	31.4950
 2.2700	31.4420
 2.2710	31.3780
 2.2720	31.3190
 2.2730	31.2560
 2.2740	31.1850
 2.2750	31.1270
 2.2760	31.0740
 2.2770	31.0230
 2.2780	30.9840
 2.2790	30.9330
 2.2800	30.8760
 2.2810	30.8220
 2.2820	30.7620
 2.2830	30.7100
 2.2840	30.6730
 2.2850	30.6230
 2.2860	30.5710
 2.2870	30.5130
 2.2880	30.4420
 2.2890	30.3740
 2.2900	30.3110
 2.2910	30.2410
 2.2920	30.1660
 2.2930	30.0890
 2.2940	29.9930
 2.2950	29.9180
 2.2960	29.8520
 2.2970	29.7880
 2.2980	29.7410
 2.2990	29.6910
 2.3000	29.6070
 2.3010	29.5560
 2.3020	29.5030
 2.3030	29.4460
 2.3040	29.4180
 2.3050	29.3690
 2.3060	29.3280
 2.3070	29.3100
 2.3080	29.3050
 2.3090	29.3150
 2.3100	29.3220
 2.3110	29.3320
 2.3120	29.3460
 2.3130	29.3660
 2.3140	29.3740
 2.3150	29.3810
 2.3160	29.3890
 2.3170	29.3950
 2.3180	29.3930
 2.3190	29.3960
 2.3200	29.3900
 2.3210	29.3570
 2.3220	29.3540
 2.3230	29.3700
 2.3240	29.3750
 2.3250	29.3910
 2.3260	29.3960
 2.3270	29.3890
 2.3280	29.3850
 2.3290	29.3870
 2.3300	29.3760
 2.3310	29.3670
 2.3320	29.3380
 2.3330	29.2850
 2.3340	29.2420
 2.3350	29.1770
 2.3360	29.1360
 2.3370	29.1140
 2.3380	29.0860
 2.3390	29.0690
 2.3400	29.0440
 2.3410	29.0100
 2.3420	28.9780
 2.3430	28.9500
 2.3440	28.9180
 2.3450	28.8820
 2.3460	28.8530
 2.3470	28.8150
 2.3480	28.7950
 2.3490	28.7960
 2.3500	28.7920
 2.3510	28.8130
 2.3520	28.8080
 2.3530	28.7820
 2.3540	28.7530
 2.3550	28.7390
 2.3560	28.6990
 2.3570	28.6770
 2.3580	28.6890
 2.3590	28.6950
 2.3600	28.6940
 2.3610	28.6900
 2.3620	28.6430
 2.3630	28.5920
 2.3640	28.5650
 2.3650	28.5580
 2.3660	28.5850
 2.3670	28.6050
 2.3680	28.6060
 2.3690	28.5760
 2.3700	28.5400
 2.3710	28.5220
 2.3720	28.5060
 2.3730	28.5180
 2.3740	28.5000
 2.3750	28.4630
 2.3760	28.4260
 2.3770	28.3820
 2.3780	28.3870
 2.3790	28.3840
 2.3800	28.3720
 2.3810	28.3500
 2.3820	28.3140
 2.3830	28.2950
 2.3840	28.2780
 2.3850	28.2730
 2.3860	28.2270
 2.3870	28.1430
 2.3880	28.0880
 2.3890	28.0330
 2.3900	27.9860
 2.3910	27.9950
 2.3920	27.9690
 2.3930	27.9050
 2.3940	27.9020
 2.3950	27.8670
 2.3960	27.8120
 2.3970	27.8250
 2.3980	27.8160
 2.3990	27.7900
 2.4000	27.7850
 2.4010	27.7690
 2.4020	27.7090
 2.4030	27.6600
 2.4040	27.6450
 2.4050	27.5650
 2.4060	27.5010
 2.4070	27.4760
 2.4080	27.4300
 2.4090	27.3990
 2.4100	27.3690
 2.4110	27.3160
 2.4120	27.2350
 2.4130	27.1870
 2.4140	27.1710
 2.4150	27.1280
 2.4160	27.1060
 2.4170	27.0950
 2.4180	27.0800
 2.4190	27.0580
 2.4200	26.9990
 2.4210	26.8900
 2.4220	26.7950
 2.4230	26.7860
 2.4240	26.8310
 2.4250	26.9320
 2.4260	26.9990
 2.4270	26.9570
 2.4280	26.8910
 2.4290	26.7960
 2.4300	26.7100
 2.4310	26.6600
 2.4320	26.6050
 2.4330	26.5880
 2.4340	26.5510
 2.4350	26.4770
 2.4360	26.4490
 2.4370	26.3920
 2.4380	26.3440
 2.4390	26.3690
 2.4400	26.3670
 2.4410	26.3330
 2.4420	26.3240
 2.4430	26.2820
 2.4440	26.2200
 2.4450	26.1750
 2.4460	26.1020
 2.4470	26.0260
 2.4480	25.9370
 2.4490	25.8570
 2.4500	25.8200
 2.4510	25.7950
 2.4520	25.8310
 2.4530	25.8650
 2.4540	25.8350
 2.4550	25.8010
 2.4560	25.7440
 2.4570	25.6820
 2.4580	25.6860
 2.4590	25.7170
 2.4600	25.6790
 2.4610	25.6760
 2.4620	25.6660
 2.4630	25.5670
 2.4640	25.5670
 2.4650	25.5240
 2.4660	25.4810
 2.4670	25.5400
 2.4680	25.5280
 2.4690	25.5730
 2.4700	25.5580
 2.4710	25.4710
 2.4720	25.4100
 2.4730	25.3090
 2.4740	25.2950
 2.4750	25.3170
 2.4760	25.3480
 2.4770	25.4800
 2.4780	25.5240
 2.4790	25.5420
 2.4800	25.5550
 2.4810	25.5280
 2.4820	25.4400
 2.4830	25.3500
 2.4840	25.2020
 2.4850	25.1500
 2.4860	25.2050
 2.4870	25.1460
 2.4880	25.0890
 2.4890	25.0740
 2.4900	25.0790
 2.4910	25.1340
 2.4920	25.1720
 2.4930	25.2490
 2.4940	25.1880
 2.4950	25.0510
 2.4960	25.0610
 2.4970	24.9580
 2.4980	24.8290
 2.4990	24.9160
 2.5000	25.0070
