Name: Heteromeles arbutifolia 1
Type: vegetation
Class: Shrub
Genus: Heteromeles
Species: arbutifolia
Sample No.: VH134
Owner: UCSB
Wavelength Range: VSWIR
Origin: 34.4907; -119.791; WGS84
Collection Date: 6/3/2013
Description: Samples were collected as part of the HyspIRI Airborne Campaign. 48 individual plants were sampled in three times in 2013 - spring  summer  and fall. The name of the sample includes a 1  2  or 3 which references a different individual of the species. Samples were taken to JPL and processed within 48 hours of collection. The same leaves were processed in the Nicolet and then measured using the ASD.
Measurement: Bidirectional reflectance
First Column: X
Second Column: Y
X Units: Wavelength (micrometers)
Y Units: Reflectance (percentage)
First X Value: 0.35
Last X Value: 2.5
Number of X Values: 2151
Additional Information: vegetation.shrub.heteromeles.arbutifolia.vswir.vh134.ucsb.asd.ancillary.txt

 0.3500	 6.7570
 0.3510	 6.6680
 0.3520	 6.7690
 0.3530	 6.8210
 0.3540	 6.6480
 0.3550	 6.5220
 0.3560	 6.5380
 0.3570	 6.5980
 0.3580	 6.5410
 0.3590	 6.6230
 0.3600	 6.6040
 0.3610	 6.4270
 0.3620	 6.3370
 0.3630	 6.4800
 0.3640	 6.5830
 0.3650	 6.4310
 0.3660	 6.4590
 0.3670	 6.4600
 0.3680	 6.4000
 0.3690	 6.3760
 0.3700	 6.4240
 0.3710	 6.4780
 0.3720	 6.4880
 0.3730	 6.4640
 0.3740	 6.4580
 0.3750	 6.4250
 0.3760	 6.3350
 0.3770	 6.3750
 0.3780	 6.3970
 0.3790	 6.3650
 0.3800	 6.3550
 0.3810	 6.3450
 0.3820	 6.3280
 0.3830	 6.3120
 0.3840	 6.3320
 0.3850	 6.3230
 0.3860	 6.3030
 0.3870	 6.3130
 0.3880	 6.3110
 0.3890	 6.3040
 0.3900	 6.2960
 0.3910	 6.2870
 0.3920	 6.3130
 0.3930	 6.3190
 0.3940	 6.2850
 0.3950	 6.3430
 0.3960	 6.3180
 0.3970	 6.2400
 0.3980	 6.2250
 0.3990	 6.2350
 0.4000	 6.2450
 0.4010	 6.2350
 0.4020	 6.1950
 0.4030	 6.1930
 0.4040	 6.2040
 0.4050	 6.1970
 0.4060	 6.2010
 0.4070	 6.2080
 0.4080	 6.2130
 0.4090	 6.2120
 0.4100	 6.2440
 0.4110	 6.2500
 0.4120	 6.2140
 0.4130	 6.2050
 0.4140	 6.2290
 0.4150	 6.2610
 0.4160	 6.2730
 0.4170	 6.2960
 0.4180	 6.3320
 0.4190	 6.3650
 0.4200	 6.3670
 0.4210	 6.3770
 0.4220	 6.4050
 0.4230	 6.4440
 0.4240	 6.4710
 0.4250	 6.4850
 0.4260	 6.4950
 0.4270	 6.5170
 0.4280	 6.5630
 0.4290	 6.5970
 0.4300	 6.6060
 0.4310	 6.6120
 0.4320	 6.6410
 0.4330	 6.6710
 0.4340	 6.6800
 0.4350	 6.6950
 0.4360	 6.7010
 0.4370	 6.7070
 0.4380	 6.7320
 0.4390	 6.7450
 0.4400	 6.7530
 0.4410	 6.7690
 0.4420	 6.7950
 0.4430	 6.8110
 0.4440	 6.8210
 0.4450	 6.8350
 0.4460	 6.8390
 0.4470	 6.8530
 0.4480	 6.8760
 0.4490	 6.8820
 0.4500	 6.8930
 0.4510	 6.9010
 0.4520	 6.8990
 0.4530	 6.9210
 0.4540	 6.9340
 0.4550	 6.9350
 0.4560	 6.9340
 0.4570	 6.9430
 0.4580	 6.9560
 0.4590	 6.9640
 0.4600	 6.9610
 0.4610	 6.9620
 0.4620	 6.9650
 0.4630	 6.9620
 0.4640	 6.9590
 0.4650	 6.9560
 0.4660	 6.9580
 0.4670	 6.9680
 0.4680	 6.9680
 0.4690	 6.9620
 0.4700	 6.9590
 0.4710	 6.9550
 0.4720	 6.9530
 0.4730	 6.9550
 0.4740	 6.9600
 0.4750	 6.9590
 0.4760	 6.9580
 0.4770	 6.9590
 0.4780	 6.9500
 0.4790	 6.9490
 0.4800	 6.9560
 0.4810	 6.9640
 0.4820	 6.9650
 0.4830	 6.9700
 0.4840	 6.9780
 0.4850	 6.9780
 0.4860	 6.9860
 0.4870	 6.9930
 0.4880	 6.9950
 0.4890	 7.0040
 0.4900	 7.0120
 0.4910	 7.0210
 0.4920	 7.0320
 0.4930	 7.0420
 0.4940	 7.0570
 0.4950	 7.0770
 0.4960	 7.0890
 0.4970	 7.1150
 0.4980	 7.1460
 0.4990	 7.1670
 0.5000	 7.1860
 0.5010	 7.2110
 0.5020	 7.2490
 0.5030	 7.2980
 0.5040	 7.3350
 0.5050	 7.3790
 0.5060	 7.4410
 0.5070	 7.4910
 0.5080	 7.5490
 0.5090	 7.6170
 0.5100	 7.6910
 0.5110	 7.7750
 0.5120	 7.8630
 0.5130	 7.9540
 0.5140	 8.0580
 0.5150	 8.1690
 0.5160	 8.2890
 0.5170	 8.4210
 0.5180	 8.5640
 0.5190	 8.7130
 0.5200	 8.8660
 0.5210	 9.0200
 0.5220	 9.1840
 0.5230	 9.3520
 0.5240	 9.5190
 0.5250	 9.6850
 0.5260	 9.8460
 0.5270	10.0000
 0.5280	10.1520
 0.5290	10.2910
 0.5300	10.4220
 0.5310	10.5460
 0.5320	10.6680
 0.5330	10.7820
 0.5340	10.8790
 0.5350	10.9580
 0.5360	11.0410
 0.5370	11.1180
 0.5380	11.1870
 0.5390	11.2500
 0.5400	11.3060
 0.5410	11.3620
 0.5420	11.4190
 0.5430	11.4670
 0.5440	11.5100
 0.5450	11.5540
 0.5460	11.6040
 0.5470	11.6410
 0.5480	11.6740
 0.5490	11.7040
 0.5500	11.7310
 0.5510	11.7540
 0.5520	11.7670
 0.5530	11.7700
 0.5540	11.7600
 0.5550	11.7380
 0.5560	11.7050
 0.5570	11.6630
 0.5580	11.6120
 0.5590	11.5520
 0.5600	11.4810
 0.5610	11.3980
 0.5620	11.3070
 0.5630	11.2090
 0.5640	11.1070
 0.5650	11.0060
 0.5660	10.9000
 0.5670	10.7870
 0.5680	10.6730
 0.5690	10.5560
 0.5700	10.4400
 0.5710	10.3270
 0.5720	10.2130
 0.5730	10.1050
 0.5740	10.0050
 0.5750	 9.9100
 0.5760	 9.8180
 0.5770	 9.7310
 0.5780	 9.6510
 0.5790	 9.5830
 0.5800	 9.5150
 0.5810	 9.4510
 0.5820	 9.3970
 0.5830	 9.3440
 0.5840	 9.2940
 0.5850	 9.2480
 0.5860	 9.2050
 0.5870	 9.1660
 0.5880	 9.1300
 0.5890	 9.0950
 0.5900	 9.0620
 0.5910	 9.0350
 0.5920	 9.0110
 0.5930	 8.9860
 0.5940	 8.9660
 0.5950	 8.9460
 0.5960	 8.9270
 0.5970	 8.9160
 0.5980	 8.9000
 0.5990	 8.8790
 0.6000	 8.8580
 0.6010	 8.8370
 0.6020	 8.8130
 0.6030	 8.7850
 0.6040	 8.7540
 0.6050	 8.7170
 0.6060	 8.6790
 0.6070	 8.6390
 0.6080	 8.5900
 0.6090	 8.5420
 0.6100	 8.4950
 0.6110	 8.4470
 0.6120	 8.4010
 0.6130	 8.3550
 0.6140	 8.3110
 0.6150	 8.2690
 0.6160	 8.2270
 0.6170	 8.1860
 0.6180	 8.1480
 0.6190	 8.1190
 0.6200	 8.0890
 0.6210	 8.0590
 0.6220	 8.0380
 0.6230	 8.0200
 0.6240	 8.0030
 0.6250	 7.9870
 0.6260	 7.9780
 0.6270	 7.9690
 0.6280	 7.9580
 0.6290	 7.9490
 0.6300	 7.9420
 0.6310	 7.9360
 0.6320	 7.9290
 0.6330	 7.9160
 0.6340	 7.9010
 0.6350	 7.8830
 0.6360	 7.8620
 0.6370	 7.8360
 0.6380	 7.8030
 0.6390	 7.7640
 0.6400	 7.7270
 0.6410	 7.6840
 0.6420	 7.6420
 0.6430	 7.6010
 0.6440	 7.5590
 0.6450	 7.5160
 0.6460	 7.4740
 0.6470	 7.4330
 0.6480	 7.3980
 0.6490	 7.3650
 0.6500	 7.3340
 0.6510	 7.3090
 0.6520	 7.2860
 0.6530	 7.2640
 0.6540	 7.2430
 0.6550	 7.2270
 0.6560	 7.2030
 0.6570	 7.1730
 0.6580	 7.1450
 0.6590	 7.1190
 0.6600	 7.0900
 0.6610	 7.0580
 0.6620	 7.0320
 0.6630	 7.0030
 0.6640	 6.9780
 0.6650	 6.9610
 0.6660	 6.9420
 0.6670	 6.9280
 0.6680	 6.9190
 0.6690	 6.9130
 0.6700	 6.9080
 0.6710	 6.9080
 0.6720	 6.9140
 0.6730	 6.9230
 0.6740	 6.9340
 0.6750	 6.9450
 0.6760	 6.9580
 0.6770	 6.9810
 0.6780	 7.0030
 0.6790	 7.0250
 0.6800	 7.0510
 0.6810	 7.0820
 0.6820	 7.1190
 0.6830	 7.1640
 0.6840	 7.2120
 0.6850	 7.2680
 0.6860	 7.3330
 0.6870	 7.4110
 0.6880	 7.5030
 0.6890	 7.6160
 0.6900	 7.7550
 0.6910	 7.9210
 0.6920	 8.1250
 0.6930	 8.3720
 0.6940	 8.6700
 0.6950	 9.0250
 0.6960	 9.4420
 0.6970	 9.9210
 0.6980	10.4660
 0.6990	11.0810
 0.7000	11.7590
 0.7010	12.4960
 0.7020	13.2900
 0.7030	14.1340
 0.7040	15.0210
 0.7050	15.9420
 0.7060	16.8960
 0.7070	17.8760
 0.7080	18.8770
 0.7090	19.8970
 0.7100	20.9340
 0.7110	21.9840
 0.7120	23.0480
 0.7130	24.1230
 0.7140	25.1970
 0.7150	26.2730
 0.7160	27.3500
 0.7170	28.4260
 0.7180	29.4930
 0.7190	30.5510
 0.7200	31.6000
 0.7210	32.6330
 0.7220	33.6510
 0.7230	34.6510
 0.7240	35.6210
 0.7250	36.5630
 0.7260	37.4760
 0.7270	38.3570
 0.7280	39.2050
 0.7290	40.0200
 0.7300	40.7990
 0.7310	41.5410
 0.7320	42.2510
 0.7330	42.9250
 0.7340	43.5610
 0.7350	44.1660
 0.7360	44.7360
 0.7370	45.2740
 0.7380	45.7830
 0.7390	46.2590
 0.7400	46.7130
 0.7410	47.1380
 0.7420	47.5280
 0.7430	47.8900
 0.7440	48.2330
 0.7450	48.5570
 0.7460	48.8510
 0.7470	49.1210
 0.7480	49.3740
 0.7490	49.6100
 0.7500	49.8210
 0.7510	50.0230
 0.7520	50.2070
 0.7530	50.3620
 0.7540	50.5150
 0.7550	50.6550
 0.7560	50.7800
 0.7570	50.8930
 0.7580	51.0040
 0.7590	51.1030
 0.7600	51.1870
 0.7610	51.2670
 0.7620	51.3460
 0.7630	51.4160
 0.7640	51.4700
 0.7650	51.5270
 0.7660	51.5790
 0.7670	51.6260
 0.7680	51.6690
 0.7690	51.7150
 0.7700	51.7530
 0.7710	51.7840
 0.7720	51.8270
 0.7730	51.8600
 0.7740	51.8870
 0.7750	51.9140
 0.7760	51.9360
 0.7770	51.9590
 0.7780	51.9840
 0.7790	52.0120
 0.7800	52.0320
 0.7810	52.0510
 0.7820	52.0720
 0.7830	52.0990
 0.7840	52.1210
 0.7850	52.1390
 0.7860	52.1560
 0.7870	52.1690
 0.7880	52.1870
 0.7890	52.2050
 0.7900	52.2170
 0.7910	52.2380
 0.7920	52.2500
 0.7930	52.2600
 0.7940	52.2820
 0.7950	52.2920
 0.7960	52.2990
 0.7970	52.3090
 0.7980	52.3170
 0.7990	52.3190
 0.8000	52.3260
 0.8010	52.3400
 0.8020	52.3460
 0.8030	52.3460
 0.8040	52.3440
 0.8050	52.3460
 0.8060	52.3510
 0.8070	52.3550
 0.8080	52.3600
 0.8090	52.3690
 0.8100	52.3710
 0.8110	52.3670
 0.8120	52.3590
 0.8130	52.3490
 0.8140	52.3470
 0.8150	52.3450
 0.8160	52.3360
 0.8170	52.3380
 0.8180	52.3330
 0.8190	52.3290
 0.8200	52.3380
 0.8210	52.3300
 0.8220	52.3230
 0.8230	52.3210
 0.8240	52.3130
 0.8250	52.3010
 0.8260	52.2910
 0.8270	52.2840
 0.8280	52.2690
 0.8290	52.2670
 0.8300	52.2690
 0.8310	52.2630
 0.8320	52.2510
 0.8330	52.2390
 0.8340	52.2310
 0.8350	52.2270
 0.8360	52.2270
 0.8370	52.2220
 0.8380	52.2120
 0.8390	52.2090
 0.8400	52.2050
 0.8410	52.2060
 0.8420	52.2140
 0.8430	52.2290
 0.8440	52.2210
 0.8450	52.2060
 0.8460	52.2030
 0.8470	52.2080
 0.8480	52.2080
 0.8490	52.2050
 0.8500	52.2110
 0.8510	52.2170
 0.8520	52.2220
 0.8530	52.2260
 0.8540	52.2270
 0.8550	52.2220
 0.8560	52.2180
 0.8570	52.2200
 0.8580	52.2350
 0.8590	52.2420
 0.8600	52.2380
 0.8610	52.2290
 0.8620	52.2350
 0.8630	52.2440
 0.8640	52.2530
 0.8650	52.2590
 0.8660	52.2540
 0.8670	52.2570
 0.8680	52.2670
 0.8690	52.2750
 0.8700	52.2790
 0.8710	52.2820
 0.8720	52.2840
 0.8730	52.2910
 0.8740	52.2960
 0.8750	52.3030
 0.8760	52.3100
 0.8770	52.3130
 0.8780	52.3200
 0.8790	52.3300
 0.8800	52.3380
 0.8810	52.3430
 0.8820	52.3520
 0.8830	52.3600
 0.8840	52.3640
 0.8850	52.3690
 0.8860	52.3780
 0.8870	52.3830
 0.8880	52.3830
 0.8890	52.3940
 0.8900	52.3990
 0.8910	52.4000
 0.8920	52.4060
 0.8930	52.4070
 0.8940	52.4110
 0.8950	52.4180
 0.8960	52.4190
 0.8970	52.4210
 0.8980	52.4240
 0.8990	52.4270
 0.9000	52.4300
 0.9010	52.4400
 0.9020	52.4430
 0.9030	52.4360
 0.9040	52.4340
 0.9050	52.4460
 0.9060	52.4590
 0.9070	52.4680
 0.9080	52.4790
 0.9090	52.4770
 0.9100	52.4710
 0.9110	52.4730
 0.9120	52.4840
 0.9130	52.4880
 0.9140	52.4900
 0.9150	52.4970
 0.9160	52.4960
 0.9170	52.4880
 0.9180	52.4800
 0.9190	52.4780
 0.9200	52.4800
 0.9210	52.4880
 0.9220	52.4890
 0.9230	52.4730
 0.9240	52.4640
 0.9250	52.4580
 0.9260	52.4480
 0.9270	52.4330
 0.9280	52.4310
 0.9290	52.4200
 0.9300	52.3990
 0.9310	52.3870
 0.9320	52.3660
 0.9330	52.3480
 0.9340	52.3350
 0.9350	52.3140
 0.9360	52.2910
 0.9370	52.2680
 0.9380	52.2460
 0.9390	52.2280
 0.9400	52.1920
 0.9410	52.1510
 0.9420	52.1180
 0.9430	52.0910
 0.9440	52.0530
 0.9450	52.0110
 0.9460	51.9710
 0.9470	51.9270
 0.9480	51.8750
 0.9490	51.8160
 0.9500	51.7540
 0.9510	51.7040
 0.9520	51.6380
 0.9530	51.5650
 0.9540	51.4960
 0.9550	51.4100
 0.9560	51.3370
 0.9570	51.2780
 0.9580	51.2190
 0.9590	51.1410
 0.9600	51.0710
 0.9610	51.0260
 0.9620	51.0000
 0.9630	50.9440
 0.9640	50.9040
 0.9650	50.8760
 0.9660	50.8390
 0.9670	50.8030
 0.9680	50.7670
 0.9690	50.7370
 0.9700	50.7200
 0.9710	50.7050
 0.9720	50.6920
 0.9730	50.6760
 0.9740	50.6570
 0.9750	50.6470
 0.9760	50.6400
 0.9770	50.6440
 0.9780	50.6600
 0.9790	50.6570
 0.9800	50.6360
 0.9810	50.6230
 0.9820	50.6440
 0.9830	50.6610
 0.9840	50.6660
 0.9850	50.6690
 0.9860	50.6830
 0.9870	50.6880
 0.9880	50.7010
 0.9890	50.7200
 0.9900	50.7370
 0.9910	50.7600
 0.9920	50.8450
 0.9930	50.9310
 0.9940	51.0160
 0.9950	51.1010
 0.9960	51.1860
 0.9970	51.2720
 0.9980	51.3570
 0.9990	51.4420
 1.0000	51.5270
 1.0010	51.6130
 1.0020	51.6980
 1.0030	51.7830
 1.0040	51.8680
 1.0050	51.9540
 1.0060	52.0390
 1.0070	52.1240
 1.0080	52.2100
 1.0090	52.2950
 1.0100	52.2950
 1.0110	52.3210
 1.0120	52.3460
 1.0130	52.3680
 1.0140	52.3920
 1.0150	52.4140
 1.0160	52.4440
 1.0170	52.4680
 1.0180	52.4910
 1.0190	52.5140
 1.0200	52.5310
 1.0210	52.5520
 1.0220	52.5800
 1.0230	52.6050
 1.0240	52.6320
 1.0250	52.6540
 1.0260	52.6720
 1.0270	52.6910
 1.0280	52.7110
 1.0290	52.7290
 1.0300	52.7470
 1.0310	52.7670
 1.0320	52.7870
 1.0330	52.8070
 1.0340	52.8290
 1.0350	52.8440
 1.0360	52.8580
 1.0370	52.8750
 1.0380	52.8920
 1.0390	52.9090
 1.0400	52.9270
 1.0410	52.9450
 1.0420	52.9610
 1.0430	52.9800
 1.0440	52.9940
 1.0450	53.0030
 1.0460	53.0150
 1.0470	53.0250
 1.0480	53.0380
 1.0490	53.0580
 1.0500	53.0710
 1.0510	53.0820
 1.0520	53.0910
 1.0530	53.0980
 1.0540	53.1000
 1.0550	53.1090
 1.0560	53.1220
 1.0570	53.1320
 1.0580	53.1440
 1.0590	53.1530
 1.0600	53.1610
 1.0610	53.1680
 1.0620	53.1720
 1.0630	53.1770
 1.0640	53.1780
 1.0650	53.1820
 1.0660	53.1910
 1.0670	53.1950
 1.0680	53.1970
 1.0690	53.2000
 1.0700	53.1980
 1.0710	53.1920
 1.0720	53.1890
 1.0730	53.1860
 1.0740	53.1840
 1.0750	53.1840
 1.0760	53.1830
 1.0770	53.1830
 1.0780	53.1820
 1.0790	53.1800
 1.0800	53.1770
 1.0810	53.1730
 1.0820	53.1680
 1.0830	53.1630
 1.0840	53.1570
 1.0850	53.1500
 1.0860	53.1460
 1.0870	53.1380
 1.0880	53.1300
 1.0890	53.1210
 1.0900	53.1090
 1.0910	53.0990
 1.0920	53.0910
 1.0930	53.0800
 1.0940	53.0700
 1.0950	53.0590
 1.0960	53.0450
 1.0970	53.0310
 1.0980	53.0180
 1.0990	53.0030
 1.1000	52.9880
 1.1010	52.9730
 1.1020	52.9560
 1.1030	52.9420
 1.1040	52.9280
 1.1050	52.9120
 1.1060	52.8950
 1.1070	52.8790
 1.1080	52.8610
 1.1090	52.8450
 1.1100	52.8240
 1.1110	52.8010
 1.1120	52.7780
 1.1130	52.7500
 1.1140	52.7230
 1.1150	52.6980
 1.1160	52.6690
 1.1170	52.6370
 1.1180	52.6020
 1.1190	52.5660
 1.1200	52.5260
 1.1210	52.4810
 1.1220	52.4360
 1.1230	52.3880
 1.1240	52.3350
 1.1250	52.2750
 1.1260	52.2120
 1.1270	52.1380
 1.1280	52.0550
 1.1290	51.9680
 1.1300	51.8790
 1.1310	51.7780
 1.1320	51.6700
 1.1330	51.5560
 1.1340	51.4330
 1.1350	51.3040
 1.1360	51.1690
 1.1370	51.0290
 1.1380	50.8810
 1.1390	50.7280
 1.1400	50.5710
 1.1410	50.4150
 1.1420	50.2560
 1.1430	50.0920
 1.1440	49.9290
 1.1450	49.7630
 1.1460	49.6020
 1.1470	49.4390
 1.1480	49.2860
 1.1490	49.1380
 1.1500	48.9980
 1.1510	48.8620
 1.1520	48.7350
 1.1530	48.6130
 1.1540	48.5010
 1.1550	48.3960
 1.1560	48.3010
 1.1570	48.2160
 1.1580	48.1400
 1.1590	48.0740
 1.1600	48.0150
 1.1610	47.9620
 1.1620	47.9130
 1.1630	47.8710
 1.1640	47.8310
 1.1650	47.7950
 1.1660	47.7640
 1.1670	47.7350
 1.1680	47.7080
 1.1690	47.6840
 1.1700	47.6620
 1.1710	47.6420
 1.1720	47.6270
 1.1730	47.6080
 1.1740	47.5920
 1.1750	47.5730
 1.1760	47.5520
 1.1770	47.5290
 1.1780	47.5060
 1.1790	47.4830
 1.1800	47.4570
 1.1810	47.4320
 1.1820	47.4090
 1.1830	47.3850
 1.1840	47.3630
 1.1850	47.3400
 1.1860	47.3170
 1.1870	47.2960
 1.1880	47.2770
 1.1890	47.2600
 1.1900	47.2450
 1.1910	47.2300
 1.1920	47.2160
 1.1930	47.2020
 1.1940	47.1920
 1.1950	47.1840
 1.1960	47.1780
 1.1970	47.1760
 1.1980	47.1780
 1.1990	47.1790
 1.2000	47.1810
 1.2010	47.1890
 1.2020	47.1990
 1.2030	47.2130
 1.2040	47.2310
 1.2050	47.2490
 1.2060	47.2680
 1.2070	47.2910
 1.2080	47.3170
 1.2090	47.3460
 1.2100	47.3760
 1.2110	47.4070
 1.2120	47.4400
 1.2130	47.4750
 1.2140	47.5110
 1.2150	47.5490
 1.2160	47.5910
 1.2170	47.6320
 1.2180	47.6750
 1.2190	47.7180
 1.2200	47.7580
 1.2210	47.7980
 1.2220	47.8370
 1.2230	47.8760
 1.2240	47.9180
 1.2250	47.9580
 1.2260	47.9970
 1.2270	48.0360
 1.2280	48.0710
 1.2290	48.1070
 1.2300	48.1420
 1.2310	48.1750
 1.2320	48.2070
 1.2330	48.2390
 1.2340	48.2670
 1.2350	48.2940
 1.2360	48.3210
 1.2370	48.3450
 1.2380	48.3690
 1.2390	48.3950
 1.2400	48.4210
 1.2410	48.4470
 1.2420	48.4710
 1.2430	48.4940
 1.2440	48.5150
 1.2450	48.5360
 1.2460	48.5580
 1.2470	48.5770
 1.2480	48.5950
 1.2490	48.6120
 1.2500	48.6280
 1.2510	48.6430
 1.2520	48.6590
 1.2530	48.6720
 1.2540	48.6800
 1.2550	48.6900
 1.2560	48.7010
 1.2570	48.7090
 1.2580	48.7180
 1.2590	48.7260
 1.2600	48.7320
 1.2610	48.7360
 1.2620	48.7390
 1.2630	48.7430
 1.2640	48.7460
 1.2650	48.7480
 1.2660	48.7480
 1.2670	48.7470
 1.2680	48.7440
 1.2690	48.7420
 1.2700	48.7400
 1.2710	48.7370
 1.2720	48.7330
 1.2730	48.7260
 1.2740	48.7170
 1.2750	48.7080
 1.2760	48.6950
 1.2770	48.6830
 1.2780	48.6690
 1.2790	48.6520
 1.2800	48.6380
 1.2810	48.6210
 1.2820	48.6030
 1.2830	48.5820
 1.2840	48.5580
 1.2850	48.5340
 1.2860	48.5070
 1.2870	48.4770
 1.2880	48.4460
 1.2890	48.4140
 1.2900	48.3770
 1.2910	48.3390
 1.2920	48.3000
 1.2930	48.2570
 1.2940	48.2100
 1.2950	48.1610
 1.2960	48.1070
 1.2970	48.0510
 1.2980	47.9950
 1.2990	47.9350
 1.3000	47.8730
 1.3010	47.8100
 1.3020	47.7430
 1.3030	47.6720
 1.3040	47.5970
 1.3050	47.5190
 1.3060	47.4360
 1.3070	47.3520
 1.3080	47.2630
 1.3090	47.1720
 1.3100	47.0800
 1.3110	46.9830
 1.3120	46.8820
 1.3130	46.7780
 1.3140	46.6700
 1.3150	46.5550
 1.3160	46.4390
 1.3170	46.3240
 1.3180	46.2010
 1.3190	46.0780
 1.3200	45.9500
 1.3210	45.8130
 1.3220	45.6770
 1.3230	45.5350
 1.3240	45.3870
 1.3250	45.2420
 1.3260	45.0910
 1.3270	44.9370
 1.3280	44.7820
 1.3290	44.6220
 1.3300	44.4600
 1.3310	44.2970
 1.3320	44.1290
 1.3330	43.9610
 1.3340	43.7940
 1.3350	43.6220
 1.3360	43.4490
 1.3370	43.2780
 1.3380	43.1040
 1.3390	42.9300
 1.3400	42.7580
 1.3410	42.5880
 1.3420	42.4180
 1.3430	42.2520
 1.3440	42.0850
 1.3450	41.9180
 1.3460	41.7500
 1.3470	41.5870
 1.3480	41.4250
 1.3490	41.2650
 1.3500	41.1090
 1.3510	40.9520
 1.3520	40.7930
 1.3530	40.6370
 1.3540	40.4800
 1.3550	40.3230
 1.3560	40.1660
 1.3570	40.0070
 1.3580	39.8480
 1.3590	39.6860
 1.3600	39.5200
 1.3610	39.3510
 1.3620	39.1740
 1.3630	38.9930
 1.3640	38.8050
 1.3650	38.6090
 1.3660	38.4070
 1.3670	38.1940
 1.3680	37.9710
 1.3690	37.7380
 1.3700	37.4860
 1.3710	37.2210
 1.3720	36.9400
 1.3730	36.6390
 1.3740	36.3240
 1.3750	35.9900
 1.3760	35.6310
 1.3770	35.2510
 1.3780	34.8420
 1.3790	34.4090
 1.3800	33.9550
 1.3810	33.4720
 1.3820	32.9700
 1.3830	32.4470
 1.3840	31.9040
 1.3850	31.3390
 1.3860	30.7620
 1.3870	30.1630
 1.3880	29.5620
 1.3890	28.9490
 1.3900	28.3260
 1.3910	27.7050
 1.3920	27.0800
 1.3930	26.4500
 1.3940	25.8280
 1.3950	25.2060
 1.3960	24.5930
 1.3970	23.9950
 1.3980	23.4080
 1.3990	22.8440
 1.4000	22.2990
 1.4010	21.7680
 1.4020	21.2620
 1.4030	20.7740
 1.4040	20.3080
 1.4050	19.8680
 1.4060	19.4520
 1.4070	19.0640
 1.4080	18.6970
 1.4090	18.3540
 1.4100	18.0360
 1.4110	17.7370
 1.4120	17.4600
 1.4130	17.2040
 1.4140	16.9660
 1.4150	16.7500
 1.4160	16.5520
 1.4170	16.3700
 1.4180	16.2050
 1.4190	16.0520
 1.4200	15.9140
 1.4210	15.7870
 1.4220	15.6720
 1.4230	15.5700
 1.4240	15.4770
 1.4250	15.3940
 1.4260	15.3210
 1.4270	15.2550
 1.4280	15.1980
 1.4290	15.1470
 1.4300	15.1050
 1.4310	15.0660
 1.4320	15.0340
 1.4330	15.0070
 1.4340	14.9860
 1.4350	14.9690
 1.4360	14.9560
 1.4370	14.9500
 1.4380	14.9460
 1.4390	14.9460
 1.4400	14.9510
 1.4410	14.9570
 1.4420	14.9660
 1.4430	14.9770
 1.4440	14.9900
 1.4450	15.0050
 1.4460	15.0230
 1.4470	15.0420
 1.4480	15.0640
 1.4490	15.0860
 1.4500	15.1090
 1.4510	15.1340
 1.4520	15.1600
 1.4530	15.1870
 1.4540	15.2150
 1.4550	15.2460
 1.4560	15.2770
 1.4570	15.3110
 1.4580	15.3470
 1.4590	15.3860
 1.4600	15.4300
 1.4610	15.4770
 1.4620	15.5280
 1.4630	15.5840
 1.4640	15.6440
 1.4650	15.7070
 1.4660	15.7770
 1.4670	15.8510
 1.4680	15.9300
 1.4690	16.0130
 1.4700	16.1000
 1.4710	16.1910
 1.4720	16.2850
 1.4730	16.3830
 1.4740	16.4860
 1.4750	16.5920
 1.4760	16.7030
 1.4770	16.8150
 1.4780	16.9290
 1.4790	17.0450
 1.4800	17.1610
 1.4810	17.2780
 1.4820	17.3990
 1.4830	17.5200
 1.4840	17.6440
 1.4850	17.7690
 1.4860	17.8940
 1.4870	18.0200
 1.4880	18.1470
 1.4890	18.2740
 1.4900	18.4020
 1.4910	18.5300
 1.4920	18.6590
 1.4930	18.7900
 1.4940	18.9200
 1.4950	19.0500
 1.4960	19.1800
 1.4970	19.3090
 1.4980	19.4390
 1.4990	19.5700
 1.5000	19.7000
 1.5010	19.8310
 1.5020	19.9610
 1.5030	20.0910
 1.5040	20.2210
 1.5050	20.3500
 1.5060	20.4790
 1.5070	20.6060
 1.5080	20.7350
 1.5090	20.8630
 1.5100	20.9920
 1.5110	21.1190
 1.5120	21.2460
 1.5130	21.3700
 1.5140	21.4930
 1.5150	21.6180
 1.5160	21.7420
 1.5170	21.8660
 1.5180	21.9880
 1.5190	22.1080
 1.5200	22.2280
 1.5210	22.3470
 1.5220	22.4660
 1.5230	22.5850
 1.5240	22.7030
 1.5250	22.8200
 1.5260	22.9360
 1.5270	23.0500
 1.5280	23.1640
 1.5290	23.2750
 1.5300	23.3860
 1.5310	23.4950
 1.5320	23.6030
 1.5330	23.7120
 1.5340	23.8190
 1.5350	23.9250
 1.5360	24.0300
 1.5370	24.1320
 1.5380	24.2370
 1.5390	24.3390
 1.5400	24.4410
 1.5410	24.5420
 1.5420	24.6420
 1.5430	24.7420
 1.5440	24.8420
 1.5450	24.9390
 1.5460	25.0360
 1.5470	25.1310
 1.5480	25.2240
 1.5490	25.3180
 1.5500	25.4100
 1.5510	25.5030
 1.5520	25.5960
 1.5530	25.6870
 1.5540	25.7770
 1.5550	25.8650
 1.5560	25.9520
 1.5570	26.0380
 1.5580	26.1240
 1.5590	26.2090
 1.5600	26.2950
 1.5610	26.3780
 1.5620	26.4600
 1.5630	26.5420
 1.5640	26.6210
 1.5650	26.7020
 1.5660	26.7830
 1.5670	26.8620
 1.5680	26.9430
 1.5690	27.0220
 1.5700	27.0990
 1.5710	27.1770
 1.5720	27.2520
 1.5730	27.3260
 1.5740	27.4010
 1.5750	27.4740
 1.5760	27.5490
 1.5770	27.6230
 1.5780	27.6980
 1.5790	27.7740
 1.5800	27.8480
 1.5810	27.9210
 1.5820	27.9960
 1.5830	28.0690
 1.5840	28.1420
 1.5850	28.2150
 1.5860	28.2860
 1.5870	28.3590
 1.5880	28.4310
 1.5890	28.5000
 1.5900	28.5700
 1.5910	28.6390
 1.5920	28.7070
 1.5930	28.7750
 1.5940	28.8440
 1.5950	28.9120
 1.5960	28.9810
 1.5970	29.0490
 1.5980	29.1160
 1.5990	29.1830
 1.6000	29.2490
 1.6010	29.3130
 1.6020	29.3780
 1.6030	29.4420
 1.6040	29.5050
 1.6050	29.5680
 1.6060	29.6300
 1.6070	29.6910
 1.6080	29.7510
 1.6090	29.8110
 1.6100	29.8690
 1.6110	29.9260
 1.6120	29.9810
 1.6130	30.0340
 1.6140	30.0890
 1.6150	30.1430
 1.6160	30.1950
 1.6170	30.2470
 1.6180	30.2960
 1.6190	30.3460
 1.6200	30.3920
 1.6210	30.4380
 1.6220	30.4840
 1.6230	30.5270
 1.6240	30.5720
 1.6250	30.6150
 1.6260	30.6570
 1.6270	30.6980
 1.6280	30.7380
 1.6290	30.7770
 1.6300	30.8160
 1.6310	30.8530
 1.6320	30.8900
 1.6330	30.9240
 1.6340	30.9560
 1.6350	30.9890
 1.6360	31.0240
 1.6370	31.0550
 1.6380	31.0870
 1.6390	31.1160
 1.6400	31.1420
 1.6410	31.1650
 1.6420	31.1870
 1.6430	31.2040
 1.6440	31.2190
 1.6450	31.2290
 1.6460	31.2360
 1.6470	31.2390
 1.6480	31.2380
 1.6490	31.2320
 1.6500	31.2250
 1.6510	31.2120
 1.6520	31.1970
 1.6530	31.1790
 1.6540	31.1580
 1.6550	31.1340
 1.6560	31.1080
 1.6570	31.0810
 1.6580	31.0520
 1.6590	31.0200
 1.6600	30.9870
 1.6610	30.9540
 1.6620	30.9240
 1.6630	30.8950
 1.6640	30.8660
 1.6650	30.8400
 1.6660	30.8150
 1.6670	30.7910
 1.6680	30.7700
 1.6690	30.7490
 1.6700	30.7290
 1.6710	30.7110
 1.6720	30.6930
 1.6730	30.6760
 1.6740	30.6570
 1.6750	30.6360
 1.6760	30.6170
 1.6770	30.5940
 1.6780	30.5690
 1.6790	30.5420
 1.6800	30.5110
 1.6810	30.4760
 1.6820	30.4370
 1.6830	30.3960
 1.6840	30.3520
 1.6850	30.3050
 1.6860	30.2560
 1.6870	30.2050
 1.6880	30.1520
 1.6890	30.0980
 1.6900	30.0430
 1.6910	29.9880
 1.6920	29.9330
 1.6930	29.8740
 1.6940	29.8180
 1.6950	29.7620
 1.6960	29.7050
 1.6970	29.6490
 1.6980	29.5910
 1.6990	29.5320
 1.7000	29.4730
 1.7010	29.4130
 1.7020	29.3510
 1.7030	29.2870
 1.7040	29.2210
 1.7050	29.1530
 1.7060	29.0840
 1.7070	29.0140
 1.7080	28.9440
 1.7090	28.8710
 1.7100	28.8010
 1.7110	28.7290
 1.7120	28.6620
 1.7130	28.5970
 1.7140	28.5340
 1.7150	28.4740
 1.7160	28.4160
 1.7170	28.3610
 1.7180	28.3110
 1.7190	28.2620
 1.7200	28.2150
 1.7210	28.1710
 1.7220	28.1260
 1.7230	28.0830
 1.7240	28.0420
 1.7250	28.0030
 1.7260	27.9670
 1.7270	27.9320
 1.7280	27.8990
 1.7290	27.8650
 1.7300	27.8310
 1.7310	27.7980
 1.7320	27.7660
 1.7330	27.7330
 1.7340	27.7000
 1.7350	27.6630
 1.7360	27.6250
 1.7370	27.5840
 1.7380	27.5400
 1.7390	27.4940
 1.7400	27.4450
 1.7410	27.3940
 1.7420	27.3410
 1.7430	27.2870
 1.7440	27.2300
 1.7450	27.1730
 1.7460	27.1150
 1.7470	27.0560
 1.7480	26.9970
 1.7490	26.9390
 1.7500	26.8800
 1.7510	26.8240
 1.7520	26.7690
 1.7530	26.7140
 1.7540	26.6590
 1.7550	26.6040
 1.7560	26.5520
 1.7570	26.5010
 1.7580	26.4520
 1.7590	26.4040
 1.7600	26.3570
 1.7610	26.3150
 1.7620	26.2740
 1.7630	26.2350
 1.7640	26.1970
 1.7650	26.1610
 1.7660	26.1240
 1.7670	26.0880
 1.7680	26.0520
 1.7690	26.0160
 1.7700	25.9810
 1.7710	25.9480
 1.7720	25.9160
 1.7730	25.8850
 1.7740	25.8530
 1.7750	25.8220
 1.7760	25.7920
 1.7770	25.7620
 1.7780	25.7340
 1.7790	25.7090
 1.7800	25.6850
 1.7810	25.6620
 1.7820	25.6450
 1.7830	25.6320
 1.7840	25.6200
 1.7850	25.6140
 1.7860	25.6060
 1.7870	25.5980
 1.7880	25.5940
 1.7890	25.5920
 1.7900	25.5930
 1.7910	25.5930
 1.7920	25.5930
 1.7930	25.5950
 1.7940	25.5980
 1.7950	25.6010
 1.7960	25.6060
 1.7970	25.6110
 1.7980	25.6130
 1.7990	25.6180
 1.8000	25.6250
 1.8010	25.6320
 1.8020	25.6390
 1.8030	25.6460
 1.8040	25.6530
 1.8050	25.6600
 1.8060	25.6690
 1.8070	25.6750
 1.8080	25.6780
 1.8090	25.6850
 1.8100	25.6910
 1.8110	25.6990
 1.8120	25.7090
 1.8130	25.7150
 1.8140	25.7200
 1.8150	25.7240
 1.8160	25.7270
 1.8170	25.7310
 1.8180	25.7310
 1.8190	25.7280
 1.8200	25.7270
 1.8210	25.7280
 1.8220	25.7270
 1.8230	25.7250
 1.8240	25.7220
 1.8250	25.7150
 1.8260	25.7090
 1.8270	25.6840
 1.8280	25.6580
 1.8290	25.6320
 1.8300	25.6070
 1.8310	25.5810
 1.8320	25.5550
 1.8330	25.5300
 1.8340	25.5040
 1.8350	25.5040
 1.8360	25.4680
 1.8370	25.4270
 1.8380	25.3790
 1.8390	25.3260
 1.8400	25.2690
 1.8410	25.2040
 1.8420	25.1330
 1.8430	25.0530
 1.8440	24.9680
 1.8450	24.8730
 1.8460	24.7720
 1.8470	24.6640
 1.8480	24.5440
 1.8490	24.4160
 1.8500	24.2790
 1.8510	24.1320
 1.8520	23.9720
 1.8530	23.8020
 1.8540	23.6200
 1.8550	23.4220
 1.8560	23.2130
 1.8570	22.9930
 1.8580	22.7590
 1.8590	22.5110
 1.8600	22.2510
 1.8610	21.9770
 1.8620	21.6830
 1.8630	21.3750
 1.8640	21.0540
 1.8650	20.7140
 1.8660	20.3550
 1.8670	19.9750
 1.8680	19.5750
 1.8690	19.1610
 1.8700	18.7320
 1.8710	18.2880
 1.8720	17.8370
 1.8730	17.3730
 1.8740	16.9000
 1.8750	16.4220
 1.8760	15.9340
 1.8770	15.4480
 1.8780	14.9650
 1.8790	14.4820
 1.8800	14.0100
 1.8810	13.5460
 1.8820	13.0880
 1.8830	12.6330
 1.8840	12.1900
 1.8850	11.7540
 1.8860	11.3320
 1.8870	10.9240
 1.8880	10.5340
 1.8890	10.1660
 1.8900	 9.8170
 1.8910	 9.4890
 1.8920	 9.1790
 1.8930	 8.8930
 1.8940	 8.6250
 1.8950	 8.3790
 1.8960	 8.1560
 1.8970	 7.9490
 1.8980	 7.7630
 1.8990	 7.5960
 1.9000	 7.4420
 1.9010	 7.3070
 1.9020	 7.1830
 1.9030	 7.0750
 1.9040	 6.9770
 1.9050	 6.8930
 1.9060	 6.8200
 1.9070	 6.7570
 1.9080	 6.7030
 1.9090	 6.6540
 1.9100	 6.6130
 1.9110	 6.5750
 1.9120	 6.5410
 1.9130	 6.5120
 1.9140	 6.4900
 1.9150	 6.4700
 1.9160	 6.4530
 1.9170	 6.4410
 1.9180	 6.4310
 1.9190	 6.4210
 1.9200	 6.4120
 1.9210	 6.4070
 1.9220	 6.4010
 1.9230	 6.3950
 1.9240	 6.3920
 1.9250	 6.3930
 1.9260	 6.3940
 1.9270	 6.3980
 1.9280	 6.4030
 1.9290	 6.4080
 1.9300	 6.4150
 1.9310	 6.4250
 1.9320	 6.4350
 1.9330	 6.4440
 1.9340	 6.4540
 1.9350	 6.4650
 1.9360	 6.4740
 1.9370	 6.4870
 1.9380	 6.5030
 1.9390	 6.5180
 1.9400	 6.5330
 1.9410	 6.5490
 1.9420	 6.5640
 1.9430	 6.5820
 1.9440	 6.6020
 1.9450	 6.6230
 1.9460	 6.6450
 1.9470	 6.6700
 1.9480	 6.6940
 1.9490	 6.7180
 1.9500	 6.7430
 1.9510	 6.7680
 1.9520	 6.7950
 1.9530	 6.8230
 1.9540	 6.8500
 1.9550	 6.8780
 1.9560	 6.9080
 1.9570	 6.9370
 1.9580	 6.9670
 1.9590	 6.9980
 1.9600	 7.0290
 1.9610	 7.0620
 1.9620	 7.0960
 1.9630	 7.1310
 1.9640	 7.1670
 1.9650	 7.2020
 1.9660	 7.2380
 1.9670	 7.2760
 1.9680	 7.3150
 1.9690	 7.3560
 1.9700	 7.3970
 1.9710	 7.4400
 1.9720	 7.4810
 1.9730	 7.5200
 1.9740	 7.5620
 1.9750	 7.6060
 1.9760	 7.6530
 1.9770	 7.7010
 1.9780	 7.7500
 1.9790	 7.7970
 1.9800	 7.8420
 1.9810	 7.8900
 1.9820	 7.9370
 1.9830	 7.9870
 1.9840	 8.0390
 1.9850	 8.0910
 1.9860	 8.1420
 1.9870	 8.1940
 1.9880	 8.2460
 1.9890	 8.2980
 1.9900	 8.3530
 1.9910	 8.4060
 1.9920	 8.4600
 1.9930	 8.5140
 1.9940	 8.5670
 1.9950	 8.6210
 1.9960	 8.6760
 1.9970	 8.7330
 1.9980	 8.7880
 1.9990	 8.8440
 2.0000	 8.9030
 2.0010	 8.9580
 2.0020	 9.0130
 2.0030	 9.0710
 2.0040	 9.1260
 2.0050	 9.1810
 2.0060	 9.2350
 2.0070	 9.2910
 2.0080	 9.3460
 2.0090	 9.4010
 2.0100	 9.4570
 2.0110	 9.5110
 2.0120	 9.5640
 2.0130	 9.6170
 2.0140	 9.6670
 2.0150	 9.7190
 2.0160	 9.7710
 2.0170	 9.8220
 2.0180	 9.8720
 2.0190	 9.9230
 2.0200	 9.9730
 2.0210	10.0200
 2.0220	10.0670
 2.0230	10.1120
 2.0240	10.1580
 2.0250	10.2040
 2.0260	10.2480
 2.0270	10.2920
 2.0280	10.3350
 2.0290	10.3730
 2.0300	10.4150
 2.0310	10.4560
 2.0320	10.4960
 2.0330	10.5340
 2.0340	10.5710
 2.0350	10.6080
 2.0360	10.6430
 2.0370	10.6780
 2.0380	10.7140
 2.0390	10.7480
 2.0400	10.7820
 2.0410	10.8150
 2.0420	10.8460
 2.0430	10.8790
 2.0440	10.9080
 2.0450	10.9350
 2.0460	10.9640
 2.0470	10.9930
 2.0480	11.0220
 2.0490	11.0540
 2.0500	11.0840
 2.0510	11.1140
 2.0520	11.1430
 2.0530	11.1680
 2.0540	11.1960
 2.0550	11.2230
 2.0560	11.2510
 2.0570	11.2810
 2.0580	11.3090
 2.0590	11.3380
 2.0600	11.3640
 2.0610	11.3940
 2.0620	11.4260
 2.0630	11.4570
 2.0640	11.4900
 2.0650	11.5210
 2.0660	11.5490
 2.0670	11.5800
 2.0680	11.6130
 2.0690	11.6450
 2.0700	11.6810
 2.0710	11.7130
 2.0720	11.7420
 2.0730	11.7700
 2.0740	11.7980
 2.0750	11.8230
 2.0760	11.8520
 2.0770	11.8820
 2.0780	11.9120
 2.0790	11.9420
 2.0800	11.9710
 2.0810	11.9980
 2.0820	12.0260
 2.0830	12.0530
 2.0840	12.0810
 2.0850	12.1120
 2.0860	12.1410
 2.0870	12.1690
 2.0880	12.1990
 2.0890	12.2270
 2.0900	12.2540
 2.0910	12.2790
 2.0920	12.3040
 2.0930	12.3300
 2.0940	12.3540
 2.0950	12.3810
 2.0960	12.4100
 2.0970	12.4370
 2.0980	12.4640
 2.0990	12.4920
 2.1000	12.5170
 2.1010	12.5450
 2.1020	12.5740
 2.1030	12.6010
 2.1040	12.6260
 2.1050	12.6540
 2.1060	12.6820
 2.1070	12.7100
 2.1080	12.7380
 2.1090	12.7680
 2.1100	12.7960
 2.1110	12.8220
 2.1120	12.8480
 2.1130	12.8730
 2.1140	12.8980
 2.1150	12.9240
 2.1160	12.9490
 2.1170	12.9760
 2.1180	13.0010
 2.1190	13.0240
 2.1200	13.0470
 2.1210	13.0710
 2.1220	13.0910
 2.1230	13.1130
 2.1240	13.1350
 2.1250	13.1560
 2.1260	13.1780
 2.1270	13.1970
 2.1280	13.2130
 2.1290	13.2320
 2.1300	13.2500
 2.1310	13.2680
 2.1320	13.2870
 2.1330	13.3070
 2.1340	13.3290
 2.1350	13.3490
 2.1360	13.3690
 2.1370	13.3900
 2.1380	13.4070
 2.1390	13.4270
 2.1400	13.4490
 2.1410	13.4700
 2.1420	13.4920
 2.1430	13.5140
 2.1440	13.5350
 2.1450	13.5540
 2.1460	13.5760
 2.1470	13.5980
 2.1480	13.6220
 2.1490	13.6470
 2.1500	13.6720
 2.1510	13.6970
 2.1520	13.7210
 2.1530	13.7440
 2.1540	13.7690
 2.1550	13.7920
 2.1560	13.8180
 2.1570	13.8490
 2.1580	13.8760
 2.1590	13.9040
 2.1600	13.9290
 2.1610	13.9540
 2.1620	13.9770
 2.1630	14.0020
 2.1640	14.0260
 2.1650	14.0520
 2.1660	14.0790
 2.1670	14.1050
 2.1680	14.1300
 2.1690	14.1560
 2.1700	14.1810
 2.1710	14.2080
 2.1720	14.2390
 2.1730	14.2670
 2.1740	14.2930
 2.1750	14.3190
 2.1760	14.3420
 2.1770	14.3680
 2.1780	14.3970
 2.1790	14.4230
 2.1800	14.4460
 2.1810	14.4730
 2.1820	14.4990
 2.1830	14.5240
 2.1840	14.5510
 2.1850	14.5830
 2.1860	14.6100
 2.1870	14.6340
 2.1880	14.6620
 2.1890	14.6900
 2.1900	14.7190
 2.1910	14.7490
 2.1920	14.7790
 2.1930	14.8090
 2.1940	14.8360
 2.1950	14.8610
 2.1960	14.8870
 2.1970	14.9120
 2.1980	14.9350
 2.1990	14.9580
 2.2000	14.9820
 2.2010	15.0020
 2.2020	15.0240
 2.2030	15.0490
 2.2040	15.0710
 2.2050	15.0920
 2.2060	15.1110
 2.2070	15.1260
 2.2080	15.1360
 2.2090	15.1510
 2.2100	15.1630
 2.2110	15.1780
 2.2120	15.1990
 2.2130	15.2130
 2.2140	15.2250
 2.2150	15.2340
 2.2160	15.2360
 2.2170	15.2450
 2.2180	15.2560
 2.2190	15.2610
 2.2200	15.2650
 2.2210	15.2690
 2.2220	15.2680
 2.2230	15.2660
 2.2240	15.2670
 2.2250	15.2630
 2.2260	15.2530
 2.2270	15.2420
 2.2280	15.2320
 2.2290	15.2170
 2.2300	15.2000
 2.2310	15.1780
 2.2320	15.1520
 2.2330	15.1240
 2.2340	15.0900
 2.2350	15.0510
 2.2360	15.0150
 2.2370	14.9760
 2.2380	14.9370
 2.2390	14.9010
 2.2400	14.8590
 2.2410	14.8130
 2.2420	14.7660
 2.2430	14.7190
 2.2440	14.6640
 2.2450	14.6040
 2.2460	14.5450
 2.2470	14.4800
 2.2480	14.4170
 2.2490	14.3570
 2.2500	14.2930
 2.2510	14.2270
 2.2520	14.1590
 2.2530	14.0900
 2.2540	14.0190
 2.2550	13.9460
 2.2560	13.8710
 2.2570	13.7930
 2.2580	13.7180
 2.2590	13.6440
 2.2600	13.5710
 2.2610	13.5000
 2.2620	13.4300
 2.2630	13.3600
 2.2640	13.2930
 2.2650	13.2280
 2.2660	13.1630
 2.2670	13.0990
 2.2680	13.0350
 2.2690	12.9710
 2.2700	12.9070
 2.2710	12.8440
 2.2720	12.7820
 2.2730	12.7220
 2.2740	12.6640
 2.2750	12.6090
 2.2760	12.5520
 2.2770	12.5010
 2.2780	12.4530
 2.2790	12.4070
 2.2800	12.3680
 2.2810	12.3230
 2.2820	12.2770
 2.2830	12.2320
 2.2840	12.1850
 2.2850	12.1400
 2.2860	12.0980
 2.2870	12.0550
 2.2880	12.0120
 2.2890	11.9690
 2.2900	11.9290
 2.2910	11.8850
 2.2920	11.8380
 2.2930	11.7910
 2.2940	11.7410
 2.2950	11.6950
 2.2960	11.6530
 2.2970	11.6120
 2.2980	11.5700
 2.2990	11.5330
 2.3000	11.4980
 2.3010	11.4580
 2.3020	11.4240
 2.3030	11.3910
 2.3040	11.3540
 2.3050	11.3220
 2.3060	11.2910
 2.3070	11.2630
 2.3080	11.2440
 2.3090	11.2280
 2.3100	11.2160
 2.3110	11.2100
 2.3120	11.2010
 2.3130	11.1940
 2.3140	11.1860
 2.3150	11.1760
 2.3160	11.1670
 2.3170	11.1600
 2.3180	11.1520
 2.3190	11.1450
 2.3200	11.1340
 2.3210	11.1210
 2.3220	11.1060
 2.3230	11.0900
 2.3240	11.0690
 2.3250	11.0460
 2.3260	11.0180
 2.3270	10.9810
 2.3280	10.9490
 2.3290	10.9160
 2.3300	10.8840
 2.3310	10.8550
 2.3320	10.8240
 2.3330	10.7910
 2.3340	10.7590
 2.3350	10.7230
 2.3360	10.6910
 2.3370	10.6630
 2.3380	10.6320
 2.3390	10.6030
 2.3400	10.5710
 2.3410	10.5330
 2.3420	10.4980
 2.3430	10.4610
 2.3440	10.4280
 2.3450	10.3980
 2.3460	10.3710
 2.3470	10.3520
 2.3480	10.3300
 2.3490	10.3140
 2.3500	10.2910
 2.3510	10.2600
 2.3520	10.2360
 2.3530	10.2160
 2.3540	10.1890
 2.3550	10.1740
 2.3560	10.1560
 2.3570	10.1240
 2.3580	10.0990
 2.3590	10.0820
 2.3600	10.0660
 2.3610	10.0530
 2.3620	10.0510
 2.3630	10.0450
 2.3640	10.0250
 2.3650	10.0020
 2.3660	 9.9700
 2.3670	 9.9330
 2.3680	 9.9020
 2.3690	 9.8810
 2.3700	 9.8610
 2.3710	 9.8350
 2.3720	 9.8070
 2.3730	 9.7780
 2.3740	 9.7480
 2.3750	 9.7290
 2.3760	 9.7110
 2.3770	 9.6850
 2.3780	 9.6590
 2.3790	 9.6230
 2.3800	 9.5870
 2.3810	 9.5560
 2.3820	 9.5270
 2.3830	 9.5040
 2.3840	 9.4820
 2.3850	 9.4600
 2.3860	 9.4310
 2.3870	 9.4010
 2.3880	 9.3700
 2.3890	 9.3320
 2.3900	 9.2970
 2.3910	 9.2700
 2.3920	 9.2380
 2.3930	 9.2010
 2.3940	 9.1730
 2.3950	 9.1410
 2.3960	 9.0990
 2.3970	 9.0750
 2.3980	 9.0490
 2.3990	 9.0060
 2.4000	 8.9780
 2.4010	 8.9450
 2.4020	 8.9060
 2.4030	 8.8830
 2.4040	 8.8640
 2.4050	 8.8400
 2.4060	 8.8120
 2.4070	 8.7820
 2.4080	 8.7400
 2.4090	 8.7070
 2.4100	 8.6880
 2.4110	 8.6600
 2.4120	 8.6350
 2.4130	 8.6020
 2.4140	 8.5550
 2.4150	 8.5250
 2.4160	 8.5050
 2.4170	 8.4800
 2.4180	 8.4580
 2.4190	 8.4210
 2.4200	 8.3760
 2.4210	 8.3380
 2.4220	 8.3010
 2.4230	 8.2770
 2.4240	 8.2530
 2.4250	 8.2290
 2.4260	 8.2130
 2.4270	 8.1800
 2.4280	 8.1420
 2.4290	 8.1160
 2.4300	 8.0810
 2.4310	 8.0520
 2.4320	 8.0370
 2.4330	 8.0030
 2.4340	 7.9560
 2.4350	 7.9210
 2.4360	 7.8840
 2.4370	 7.8460
 2.4380	 7.8280
 2.4390	 7.7980
 2.4400	 7.7510
 2.4410	 7.7160
 2.4420	 7.6750
 2.4430	 7.6410
 2.4440	 7.6250
 2.4450	 7.6130
 2.4460	 7.5940
 2.4470	 7.5720
 2.4480	 7.5430
 2.4490	 7.5110
 2.4500	 7.4830
 2.4510	 7.4400
 2.4520	 7.3940
 2.4530	 7.3610
 2.4540	 7.3330
 2.4550	 7.3260
 2.4560	 7.3310
 2.4570	 7.3060
 2.4580	 7.2720
 2.4590	 7.2330
 2.4600	 7.1920
 2.4610	 7.1760
 2.4620	 7.1470
 2.4630	 7.1250
 2.4640	 7.1260
 2.4650	 7.1190
 2.4660	 7.1140
 2.4670	 7.0870
 2.4680	 7.0400
 2.4690	 6.9940
 2.4700	 6.9680
 2.4710	 6.9570
 2.4720	 6.9530
 2.4730	 6.9500
 2.4740	 6.9410
 2.4750	 6.9620
 2.4760	 6.9630
 2.4770	 6.9490
 2.4780	 6.9290
 2.4790	 6.8880
 2.4800	 6.8600
 2.4810	 6.8210
 2.4820	 6.8160
 2.4830	 6.8060
 2.4840	 6.8120
 2.4850	 6.8300
 2.4860	 6.8290
 2.4870	 6.8010
 2.4880	 6.7640
 2.4890	 6.7500
 2.4900	 6.7300
 2.4910	 6.7310
 2.4920	 6.7470
 2.4930	 6.7280
 2.4940	 6.7340
 2.4950	 6.7490
 2.4960	 6.7340
 2.4970	 6.7580
 2.4980	 6.7670
 2.4990	 6.7430
 2.5000	 6.7460
