Name: Acacia caven
Type: vegetation
Class: Tree
Genus: Acacia
Species: caven
Sample No.: JPL139
Owner: JPL
Wavelength Range: VSWIR
Origin: 34.12567; -118.11021; WGS84
Collection Date: 9/14/2016
Description: Samples were collected at the Huntington Garden in San Marino California as part of a JPL Subcontract studying HyTES imagery. Samples were taken to JPL and processed within 48 hours of collection. The same leaves were processed in the Nicolet and then measured using the ASD.
Measurement: Bidirectional reflectance
First Column: X
Second Column: Y
X Units: Wavelength (micrometer)
Y Units: Reflectance (percentage)
First X Value: 0.35
Last X Value: 2.5
Number of X Values: 2151
Additional Information: vegetation.tree.acacia.caven.vswir.jpl139.jpl.asd.ancillary.txt

 0.3500	 1.7040
 0.3510	 1.6280
 0.3520	 1.5160
 0.3530	 1.4440
 0.3540	 1.4680
 0.3550	 1.5800
 0.3560	 1.6330
 0.3570	 1.6020
 0.3580	 1.5380
 0.3590	 1.5150
 0.3600	 1.5120
 0.3610	 1.5050
 0.3620	 1.4780
 0.3630	 1.5110
 0.3640	 1.5400
 0.3650	 1.5040
 0.3660	 1.4880
 0.3670	 1.5060
 0.3680	 1.5490
 0.3690	 1.5820
 0.3700	 1.5450
 0.3710	 1.4840
 0.3720	 1.4570
 0.3730	 1.5130
 0.3740	 1.5440
 0.3750	 1.5210
 0.3760	 1.4610
 0.3770	 1.4180
 0.3780	 1.4650
 0.3790	 1.5450
 0.3800	 1.5060
 0.3810	 1.4950
 0.3820	 1.4890
 0.3830	 1.4640
 0.3840	 1.4570
 0.3850	 1.4740
 0.3860	 1.5000
 0.3870	 1.5120
 0.3880	 1.4750
 0.3890	 1.4540
 0.3900	 1.4720
 0.3910	 1.5120
 0.3920	 1.5120
 0.3930	 1.4850
 0.3940	 1.4620
 0.3950	 1.4670
 0.3960	 1.4690
 0.3970	 1.4630
 0.3980	 1.4590
 0.3990	 1.4700
 0.4000	 1.5080
 0.4010	 1.5520
 0.4020	 1.5410
 0.4030	 1.5280
 0.4040	 1.5240
 0.4050	 1.5260
 0.4060	 1.5070
 0.4070	 1.5150
 0.4080	 1.5480
 0.4090	 1.5700
 0.4100	 1.5660
 0.4110	 1.5650
 0.4120	 1.5810
 0.4130	 1.5840
 0.4140	 1.6060
 0.4150	 1.6310
 0.4160	 1.6390
 0.4170	 1.6450
 0.4180	 1.6700
 0.4190	 1.7020
 0.4200	 1.7000
 0.4210	 1.7240
 0.4220	 1.7600
 0.4230	 1.7890
 0.4240	 1.8170
 0.4250	 1.8400
 0.4260	 1.8660
 0.4270	 1.9010
 0.4280	 1.9450
 0.4290	 1.9810
 0.4300	 2.0090
 0.4310	 2.0400
 0.4320	 2.0870
 0.4330	 2.1340
 0.4340	 2.1650
 0.4350	 2.1930
 0.4360	 2.2310
 0.4370	 2.2750
 0.4380	 2.3100
 0.4390	 2.3400
 0.4400	 2.3710
 0.4410	 2.4060
 0.4420	 2.4450
 0.4430	 2.4860
 0.4440	 2.5250
 0.4450	 2.5650
 0.4460	 2.6000
 0.4470	 2.6320
 0.4480	 2.6650
 0.4490	 2.7020
 0.4500	 2.7450
 0.4510	 2.7860
 0.4520	 2.8200
 0.4530	 2.8430
 0.4540	 2.8730
 0.4550	 2.9090
 0.4560	 2.9360
 0.4570	 2.9630
 0.4580	 2.9860
 0.4590	 3.0050
 0.4600	 3.0210
 0.4610	 3.0400
 0.4620	 3.0610
 0.4630	 3.0830
 0.4640	 3.1010
 0.4650	 3.1240
 0.4660	 3.1460
 0.4670	 3.1520
 0.4680	 3.1570
 0.4690	 3.1700
 0.4700	 3.1920
 0.4710	 3.1990
 0.4720	 3.2070
 0.4730	 3.2190
 0.4740	 3.2290
 0.4750	 3.2400
 0.4760	 3.2480
 0.4770	 3.2530
 0.4780	 3.2660
 0.4790	 3.2770
 0.4800	 3.2820
 0.4810	 3.2840
 0.4820	 3.3000
 0.4830	 3.3140
 0.4840	 3.3220
 0.4850	 3.3300
 0.4860	 3.3420
 0.4870	 3.3570
 0.4880	 3.3740
 0.4890	 3.3880
 0.4900	 3.3970
 0.4910	 3.4060
 0.4920	 3.4260
 0.4930	 3.4420
 0.4940	 3.4590
 0.4950	 3.4790
 0.4960	 3.4980
 0.4970	 3.5220
 0.4980	 3.5470
 0.4990	 3.5690
 0.5000	 3.5940
 0.5010	 3.6250
 0.5020	 3.6620
 0.5030	 3.6970
 0.5040	 3.7430
 0.5050	 3.7920
 0.5060	 3.8390
 0.5070	 3.8890
 0.5080	 3.9420
 0.5090	 4.0000
 0.5100	 4.0650
 0.5110	 4.1330
 0.5120	 4.2070
 0.5130	 4.2870
 0.5140	 4.3710
 0.5150	 4.4580
 0.5160	 4.5470
 0.5170	 4.6370
 0.5180	 4.7350
 0.5190	 4.8370
 0.5200	 4.9410
 0.5210	 5.0430
 0.5220	 5.1500
 0.5230	 5.2570
 0.5240	 5.3570
 0.5250	 5.4530
 0.5260	 5.5530
 0.5270	 5.6500
 0.5280	 5.7320
 0.5290	 5.8120
 0.5300	 5.8880
 0.5310	 5.9590
 0.5320	 6.0240
 0.5330	 6.0820
 0.5340	 6.1340
 0.5350	 6.1840
 0.5360	 6.2290
 0.5370	 6.2710
 0.5380	 6.3120
 0.5390	 6.3560
 0.5400	 6.4070
 0.5410	 6.4630
 0.5420	 6.5200
 0.5430	 6.5670
 0.5440	 6.5960
 0.5450	 6.6070
 0.5460	 6.6050
 0.5470	 6.5960
 0.5480	 6.5890
 0.5490	 6.5880
 0.5500	 6.5910
 0.5510	 6.5900
 0.5520	 6.5860
 0.5530	 6.5790
 0.5540	 6.5670
 0.5550	 6.5450
 0.5560	 6.5180
 0.5570	 6.4900
 0.5580	 6.4580
 0.5590	 6.4210
 0.5600	 6.3800
 0.5610	 6.3360
 0.5620	 6.2900
 0.5630	 6.2430
 0.5640	 6.1980
 0.5650	 6.1450
 0.5660	 6.0930
 0.5670	 6.0440
 0.5680	 5.9900
 0.5690	 5.9290
 0.5700	 5.8660
 0.5710	 5.8080
 0.5720	 5.7500
 0.5730	 5.6930
 0.5740	 5.6370
 0.5750	 5.5830
 0.5760	 5.5310
 0.5770	 5.4840
 0.5780	 5.4410
 0.5790	 5.4060
 0.5800	 5.3700
 0.5810	 5.3350
 0.5820	 5.3040
 0.5830	 5.2740
 0.5840	 5.2490
 0.5850	 5.2250
 0.5860	 5.2000
 0.5870	 5.1770
 0.5880	 5.1560
 0.5890	 5.1340
 0.5900	 5.1070
 0.5910	 5.0890
 0.5920	 5.0750
 0.5930	 5.0570
 0.5940	 5.0460
 0.5950	 5.0370
 0.5960	 5.0260
 0.5970	 5.0180
 0.5980	 5.0100
 0.5990	 5.0030
 0.6000	 4.9930
 0.6010	 4.9780
 0.6020	 4.9580
 0.6030	 4.9360
 0.6040	 4.9150
 0.6050	 4.8880
 0.6060	 4.8590
 0.6070	 4.8280
 0.6080	 4.7960
 0.6090	 4.7680
 0.6100	 4.7500
 0.6110	 4.7430
 0.6120	 4.7090
 0.6130	 4.6560
 0.6140	 4.5980
 0.6150	 4.5560
 0.6160	 4.5150
 0.6170	 4.4770
 0.6180	 4.4470
 0.6190	 4.4240
 0.6200	 4.4020
 0.6210	 4.3790
 0.6220	 4.3590
 0.6230	 4.3420
 0.6240	 4.3270
 0.6250	 4.3150
 0.6260	 4.3070
 0.6270	 4.2990
 0.6280	 4.2930
 0.6290	 4.2920
 0.6300	 4.2910
 0.6310	 4.2890
 0.6320	 4.2850
 0.6330	 4.2780
 0.6340	 4.2690
 0.6350	 4.2590
 0.6360	 4.2500
 0.6370	 4.2330
 0.6380	 4.2130
 0.6390	 4.1910
 0.6400	 4.1700
 0.6410	 4.1440
 0.6420	 4.1180
 0.6430	 4.0930
 0.6440	 4.0590
 0.6450	 4.0240
 0.6460	 3.9900
 0.6470	 3.9580
 0.6480	 3.9270
 0.6490	 3.8980
 0.6500	 3.8710
 0.6510	 3.8450
 0.6520	 3.8220
 0.6530	 3.8000
 0.6540	 3.7760
 0.6550	 3.7490
 0.6560	 3.7180
 0.6570	 3.6860
 0.6580	 3.6550
 0.6590	 3.6200
 0.6600	 3.5840
 0.6610	 3.5470
 0.6620	 3.5110
 0.6630	 3.4750
 0.6640	 3.4420
 0.6650	 3.4130
 0.6660	 3.3880
 0.6670	 3.3670
 0.6680	 3.3470
 0.6690	 3.3320
 0.6700	 3.3220
 0.6710	 3.3160
 0.6720	 3.3130
 0.6730	 3.3110
 0.6740	 3.3130
 0.6750	 3.3180
 0.6760	 3.3240
 0.6770	 3.3330
 0.6780	 3.3460
 0.6790	 3.3640
 0.6800	 3.3830
 0.6810	 3.4050
 0.6820	 3.4340
 0.6830	 3.4700
 0.6840	 3.5150
 0.6850	 3.5670
 0.6860	 3.6270
 0.6870	 3.6970
 0.6880	 3.7850
 0.6890	 3.8890
 0.6900	 4.0080
 0.6910	 4.1470
 0.6920	 4.3100
 0.6930	 4.4960
 0.6940	 4.7050
 0.6950	 4.9360
 0.6960	 5.1910
 0.6970	 5.4690
 0.6980	 5.7670
 0.6990	 6.0810
 0.7000	 6.4120
 0.7010	 6.7610
 0.7020	 7.1230
 0.7030	 7.4990
 0.7040	 7.8860
 0.7050	 8.2810
 0.7060	 8.6850
 0.7070	 9.0970
 0.7080	 9.5160
 0.7090	 9.9420
 0.7100	10.3760
 0.7110	10.8200
 0.7120	11.2730
 0.7130	11.7310
 0.7140	12.1940
 0.7150	12.6650
 0.7160	13.1450
 0.7170	13.6330
 0.7180	14.1230
 0.7190	14.6150
 0.7200	15.1110
 0.7210	15.6060
 0.7220	16.1000
 0.7230	16.5920
 0.7240	17.0790
 0.7250	17.5610
 0.7260	18.0370
 0.7270	18.5020
 0.7280	18.9540
 0.7290	19.3930
 0.7300	19.8200
 0.7310	20.2340
 0.7320	20.6330
 0.7330	21.0170
 0.7340	21.3830
 0.7350	21.7320
 0.7360	22.0680
 0.7370	22.3870
 0.7380	22.6870
 0.7390	22.9750
 0.7400	23.2450
 0.7410	23.4980
 0.7420	23.7370
 0.7430	23.9590
 0.7440	24.1680
 0.7450	24.3650
 0.7460	24.5470
 0.7470	24.7160
 0.7480	24.8720
 0.7490	25.0170
 0.7500	25.1510
 0.7510	25.2750
 0.7520	25.3890
 0.7530	25.4950
 0.7540	25.5940
 0.7550	25.6870
 0.7560	25.7730
 0.7570	25.8530
 0.7580	25.9270
 0.7590	25.9960
 0.7600	26.0620
 0.7610	26.1210
 0.7620	26.1770
 0.7630	26.2300
 0.7640	26.2780
 0.7650	26.3250
 0.7660	26.3680
 0.7670	26.4090
 0.7680	26.4480
 0.7690	26.4850
 0.7700	26.5200
 0.7710	26.5550
 0.7720	26.5850
 0.7730	26.6160
 0.7740	26.6480
 0.7750	26.6800
 0.7760	26.7080
 0.7770	26.7370
 0.7780	26.7660
 0.7790	26.7940
 0.7800	26.8180
 0.7810	26.8420
 0.7820	26.8670
 0.7830	26.8940
 0.7840	26.9180
 0.7850	26.9410
 0.7860	26.9650
 0.7870	26.9870
 0.7880	27.0090
 0.7890	27.0300
 0.7900	27.0520
 0.7910	27.0710
 0.7920	27.0890
 0.7930	27.1070
 0.7940	27.1280
 0.7950	27.1470
 0.7960	27.1650
 0.7970	27.1820
 0.7980	27.1970
 0.7990	27.2140
 0.8000	27.2290
 0.8010	27.2400
 0.8020	27.2560
 0.8030	27.2720
 0.8040	27.2870
 0.8050	27.2990
 0.8060	27.3110
 0.8070	27.3230
 0.8080	27.3350
 0.8090	27.3460
 0.8100	27.3580
 0.8110	27.3690
 0.8120	27.3800
 0.8130	27.3890
 0.8140	27.3980
 0.8150	27.4060
 0.8160	27.4140
 0.8170	27.4260
 0.8180	27.4360
 0.8190	27.4440
 0.8200	27.4500
 0.8210	27.4580
 0.8220	27.4650
 0.8230	27.4730
 0.8240	27.4830
 0.8250	27.4910
 0.8260	27.4970
 0.8270	27.5020
 0.8280	27.5090
 0.8290	27.5130
 0.8300	27.5180
 0.8310	27.5270
 0.8320	27.5340
 0.8330	27.5410
 0.8340	27.5470
 0.8350	27.5530
 0.8360	27.5580
 0.8370	27.5650
 0.8380	27.5760
 0.8390	27.5860
 0.8400	27.5940
 0.8410	27.6030
 0.8420	27.6120
 0.8430	27.6250
 0.8440	27.6340
 0.8450	27.6420
 0.8460	27.6520
 0.8470	27.6620
 0.8480	27.6730
 0.8490	27.6840
 0.8500	27.6950
 0.8510	27.7060
 0.8520	27.7190
 0.8530	27.7320
 0.8540	27.7400
 0.8550	27.7530
 0.8560	27.7650
 0.8570	27.7770
 0.8580	27.7910
 0.8590	27.8050
 0.8600	27.8160
 0.8610	27.8270
 0.8620	27.8390
 0.8630	27.8560
 0.8640	27.8750
 0.8650	27.8900
 0.8660	27.9050
 0.8670	27.9200
 0.8680	27.9360
 0.8690	27.9510
 0.8700	27.9660
 0.8710	27.9800
 0.8720	27.9950
 0.8730	28.0140
 0.8740	28.0320
 0.8750	28.0490
 0.8760	28.0660
 0.8770	28.0830
 0.8780	28.1010
 0.8790	28.1170
 0.8800	28.1320
 0.8810	28.1480
 0.8820	28.1680
 0.8830	28.1850
 0.8840	28.1990
 0.8850	28.2170
 0.8860	28.2340
 0.8870	28.2490
 0.8880	28.2660
 0.8890	28.2840
 0.8900	28.3040
 0.8910	28.3230
 0.8920	28.3360
 0.8930	28.3510
 0.8940	28.3690
 0.8950	28.3860
 0.8960	28.3980
 0.8970	28.4160
 0.8980	28.4320
 0.8990	28.4440
 0.9000	28.4600
 0.9010	28.4770
 0.9020	28.4920
 0.9030	28.5060
 0.9040	28.5240
 0.9050	28.5430
 0.9060	28.5580
 0.9070	28.5720
 0.9080	28.5850
 0.9090	28.5970
 0.9100	28.6100
 0.9110	28.6210
 0.9120	28.6320
 0.9130	28.6480
 0.9140	28.6650
 0.9150	28.6770
 0.9160	28.6920
 0.9170	28.7060
 0.9180	28.7160
 0.9190	28.7240
 0.9200	28.7330
 0.9210	28.7440
 0.9220	28.7550
 0.9230	28.7580
 0.9240	28.7670
 0.9250	28.7770
 0.9260	28.7830
 0.9270	28.7860
 0.9280	28.7920
 0.9290	28.7970
 0.9300	28.8010
 0.9310	28.8110
 0.9320	28.8160
 0.9330	28.8140
 0.9340	28.8110
 0.9350	28.8120
 0.9360	28.8120
 0.9370	28.8130
 0.9380	28.8140
 0.9390	28.8150
 0.9400	28.8140
 0.9410	28.8120
 0.9420	28.8120
 0.9430	28.8080
 0.9440	28.7940
 0.9450	28.7860
 0.9460	28.7930
 0.9470	28.7840
 0.9480	28.7730
 0.9490	28.7550
 0.9500	28.7290
 0.9510	28.7140
 0.9520	28.7000
 0.9530	28.6820
 0.9540	28.6630
 0.9550	28.6430
 0.9560	28.6200
 0.9570	28.6050
 0.9580	28.6020
 0.9590	28.5810
 0.9600	28.5620
 0.9610	28.5450
 0.9620	28.5260
 0.9630	28.5220
 0.9640	28.5230
 0.9650	28.5230
 0.9660	28.5200
 0.9670	28.5170
 0.9680	28.5040
 0.9690	28.4950
 0.9700	28.5070
 0.9710	28.5130
 0.9720	28.5120
 0.9730	28.5150
 0.9740	28.5300
 0.9750	28.5280
 0.9760	28.5270
 0.9770	28.5320
 0.9780	28.5380
 0.9790	28.5410
 0.9800	28.5430
 0.9810	28.5490
 0.9820	28.5600
 0.9830	28.5710
 0.9840	28.5910
 0.9850	28.6110
 0.9860	28.6160
 0.9870	28.6270
 0.9880	28.6370
 0.9890	28.6450
 0.9900	28.6510
 0.9910	28.6650
 0.9920	28.6790
 0.9930	28.6970
 0.9940	28.7210
 0.9950	28.7370
 0.9960	28.7430
 0.9970	28.7560
 0.9980	28.7850
 0.9990	28.7940
 1.0000	28.8050
 1.0010	29.2290
 1.0020	29.2450
 1.0030	29.2620
 1.0040	29.2800
 1.0050	29.3020
 1.0060	29.3240
 1.0070	29.3440
 1.0080	29.3630
 1.0090	29.3800
 1.0100	29.3990
 1.0110	29.4200
 1.0120	29.4380
 1.0130	29.4580
 1.0140	29.4760
 1.0150	29.4920
 1.0160	29.5090
 1.0170	29.5290
 1.0180	29.5460
 1.0190	29.5600
 1.0200	29.5790
 1.0210	29.6020
 1.0220	29.6230
 1.0230	29.6420
 1.0240	29.6630
 1.0250	29.6830
 1.0260	29.6990
 1.0270	29.7170
 1.0280	29.7390
 1.0290	29.7580
 1.0300	29.7760
 1.0310	29.7940
 1.0320	29.8130
 1.0330	29.8290
 1.0340	29.8420
 1.0350	29.8590
 1.0360	29.8790
 1.0370	29.8990
 1.0380	29.9170
 1.0390	29.9370
 1.0400	29.9570
 1.0410	29.9780
 1.0420	29.9960
 1.0430	30.0160
 1.0440	30.0330
 1.0450	30.0430
 1.0460	30.0600
 1.0470	30.0830
 1.0480	30.1000
 1.0490	30.1160
 1.0500	30.1330
 1.0510	30.1460
 1.0520	30.1580
 1.0530	30.1740
 1.0540	30.1930
 1.0550	30.2110
 1.0560	30.2280
 1.0570	30.2450
 1.0580	30.2630
 1.0590	30.2790
 1.0600	30.2970
 1.0610	30.3130
 1.0620	30.3270
 1.0630	30.3420
 1.0640	30.3560
 1.0650	30.3710
 1.0660	30.3890
 1.0670	30.4030
 1.0680	30.4170
 1.0690	30.4290
 1.0700	30.4430
 1.0710	30.4570
 1.0720	30.4720
 1.0730	30.4910
 1.0740	30.5060
 1.0750	30.5180
 1.0760	30.5310
 1.0770	30.5410
 1.0780	30.5520
 1.0790	30.5640
 1.0800	30.5750
 1.0810	30.5850
 1.0820	30.5970
 1.0830	30.6080
 1.0840	30.6200
 1.0850	30.6320
 1.0860	30.6450
 1.0870	30.6570
 1.0880	30.6670
 1.0890	30.6780
 1.0900	30.6880
 1.0910	30.6960
 1.0920	30.7030
 1.0930	30.7110
 1.0940	30.7160
 1.0950	30.7240
 1.0960	30.7350
 1.0970	30.7440
 1.0980	30.7540
 1.0990	30.7620
 1.1000	30.7690
 1.1010	30.7770
 1.1020	30.7840
 1.1030	30.7900
 1.1040	30.7970
 1.1050	30.8040
 1.1060	30.8100
 1.1070	30.8170
 1.1080	30.8220
 1.1090	30.8260
 1.1100	30.8310
 1.1110	30.8350
 1.1120	30.8390
 1.1130	30.8430
 1.1140	30.8450
 1.1150	30.8460
 1.1160	30.8470
 1.1170	30.8470
 1.1180	30.8450
 1.1190	30.8420
 1.1200	30.8390
 1.1210	30.8320
 1.1220	30.8250
 1.1230	30.8180
 1.1240	30.8080
 1.1250	30.7950
 1.1260	30.7810
 1.1270	30.7630
 1.1280	30.7420
 1.1290	30.7180
 1.1300	30.6920
 1.1310	30.6600
 1.1320	30.6220
 1.1330	30.5820
 1.1340	30.5390
 1.1350	30.4920
 1.1360	30.4420
 1.1370	30.3880
 1.1380	30.3310
 1.1390	30.2700
 1.1400	30.2070
 1.1410	30.1440
 1.1420	30.0770
 1.1430	30.0090
 1.1440	29.9420
 1.1450	29.8750
 1.1460	29.8090
 1.1470	29.7430
 1.1480	29.6800
 1.1490	29.6160
 1.1500	29.5580
 1.1510	29.5030
 1.1520	29.4500
 1.1530	29.4010
 1.1540	29.3550
 1.1550	29.3100
 1.1560	29.2690
 1.1570	29.2320
 1.1580	29.2000
 1.1590	29.1710
 1.1600	29.1450
 1.1610	29.1200
 1.1620	29.0990
 1.1630	29.0810
 1.1640	29.0650
 1.1650	29.0490
 1.1660	29.0360
 1.1670	29.0240
 1.1680	29.0120
 1.1690	29.0030
 1.1700	28.9970
 1.1710	28.9890
 1.1720	28.9820
 1.1730	28.9740
 1.1740	28.9660
 1.1750	28.9580
 1.1760	28.9500
 1.1770	28.9420
 1.1780	28.9360
 1.1790	28.9280
 1.1800	28.9210
 1.1810	28.9150
 1.1820	28.9070
 1.1830	28.8990
 1.1840	28.8930
 1.1850	28.8870
 1.1860	28.8800
 1.1870	28.8740
 1.1880	28.8680
 1.1890	28.8600
 1.1900	28.8560
 1.1910	28.8540
 1.1920	28.8520
 1.1930	28.8520
 1.1940	28.8520
 1.1950	28.8500
 1.1960	28.8500
 1.1970	28.8510
 1.1980	28.8540
 1.1990	28.8580
 1.2000	28.8660
 1.2010	28.8740
 1.2020	28.8840
 1.2030	28.8960
 1.2040	28.9070
 1.2050	28.9190
 1.2060	28.9330
 1.2070	28.9510
 1.2080	28.9710
 1.2090	28.9940
 1.2100	29.0160
 1.2110	29.0400
 1.2120	29.0630
 1.2130	29.0900
 1.2140	29.1180
 1.2150	29.1490
 1.2160	29.1850
 1.2170	29.2210
 1.2180	29.2560
 1.2190	29.2930
 1.2200	29.3300
 1.2210	29.3680
 1.2220	29.4080
 1.2230	29.4480
 1.2240	29.4880
 1.2250	29.5270
 1.2260	29.5630
 1.2270	29.6000
 1.2280	29.6370
 1.2290	29.6740
 1.2300	29.7090
 1.2310	29.7410
 1.2320	29.7720
 1.2330	29.8010
 1.2340	29.8300
 1.2350	29.8590
 1.2360	29.8860
 1.2370	29.9130
 1.2380	29.9390
 1.2390	29.9640
 1.2400	29.9890
 1.2410	30.0150
 1.2420	30.0400
 1.2430	30.0670
 1.2440	30.0910
 1.2450	30.1140
 1.2460	30.1370
 1.2470	30.1590
 1.2480	30.1810
 1.2490	30.2020
 1.2500	30.2200
 1.2510	30.2410
 1.2520	30.2610
 1.2530	30.2790
 1.2540	30.2980
 1.2550	30.3150
 1.2560	30.3290
 1.2570	30.3430
 1.2580	30.3570
 1.2590	30.3700
 1.2600	30.3840
 1.2610	30.3970
 1.2620	30.4090
 1.2630	30.4200
 1.2640	30.4300
 1.2650	30.4410
 1.2660	30.4520
 1.2670	30.4620
 1.2680	30.4720
 1.2690	30.4810
 1.2700	30.4890
 1.2710	30.4960
 1.2720	30.5030
 1.2730	30.5090
 1.2740	30.5170
 1.2750	30.5220
 1.2760	30.5270
 1.2770	30.5300
 1.2780	30.5310
 1.2790	30.5320
 1.2800	30.5330
 1.2810	30.5330
 1.2820	30.5330
 1.2830	30.5310
 1.2840	30.5280
 1.2850	30.5250
 1.2860	30.5220
 1.2870	30.5180
 1.2880	30.5130
 1.2890	30.5070
 1.2900	30.5000
 1.2910	30.4910
 1.2920	30.4800
 1.2930	30.4660
 1.2940	30.4510
 1.2950	30.4370
 1.2960	30.4230
 1.2970	30.4070
 1.2980	30.3900
 1.2990	30.3710
 1.3000	30.3500
 1.3010	30.3270
 1.3020	30.3020
 1.3030	30.2740
 1.3040	30.2450
 1.3050	30.2150
 1.3060	30.1850
 1.3070	30.1540
 1.3080	30.1200
 1.3090	30.0830
 1.3100	30.0440
 1.3110	30.0010
 1.3120	29.9570
 1.3130	29.9140
 1.3140	29.8670
 1.3150	29.8200
 1.3160	29.7700
 1.3170	29.7190
 1.3180	29.6650
 1.3190	29.6090
 1.3200	29.5510
 1.3210	29.4920
 1.3220	29.4330
 1.3230	29.3720
 1.3240	29.3070
 1.3250	29.2410
 1.3260	29.1720
 1.3270	29.1000
 1.3280	29.0270
 1.3290	28.9520
 1.3300	28.8760
 1.3310	28.7990
 1.3320	28.7220
 1.3330	28.6450
 1.3340	28.5650
 1.3350	28.4850
 1.3360	28.4030
 1.3370	28.3200
 1.3380	28.2370
 1.3390	28.1540
 1.3400	28.0700
 1.3410	27.9870
 1.3420	27.9070
 1.3430	27.8250
 1.3440	27.7440
 1.3450	27.6630
 1.3460	27.5830
 1.3470	27.5040
 1.3480	27.4270
 1.3490	27.3490
 1.3500	27.2720
 1.3510	27.1960
 1.3520	27.1210
 1.3530	27.0480
 1.3540	26.9730
 1.3550	26.8980
 1.3560	26.8230
 1.3570	26.7450
 1.3580	26.6700
 1.3590	26.5930
 1.3600	26.5130
 1.3610	26.4310
 1.3620	26.3460
 1.3630	26.2570
 1.3640	26.1660
 1.3650	26.0700
 1.3660	25.9710
 1.3670	25.8670
 1.3680	25.7540
 1.3690	25.6340
 1.3700	25.5050
 1.3710	25.3670
 1.3720	25.2200
 1.3730	25.0630
 1.3740	24.8960
 1.3750	24.7150
 1.3760	24.5180
 1.3770	24.3070
 1.3780	24.0800
 1.3790	23.8380
 1.3800	23.5820
 1.3810	23.3080
 1.3820	23.0210
 1.3830	22.7190
 1.3840	22.4050
 1.3850	22.0760
 1.3860	21.7380
 1.3870	21.3850
 1.3880	21.0280
 1.3890	20.6630
 1.3900	20.2900
 1.3910	19.9180
 1.3920	19.5410
 1.3930	19.1590
 1.3940	18.7800
 1.3950	18.4000
 1.3960	18.0230
 1.3970	17.6550
 1.3980	17.2920
 1.3990	16.9420
 1.4000	16.6000
 1.4010	16.2660
 1.4020	15.9460
 1.4030	15.6340
 1.4040	15.3360
 1.4050	15.0530
 1.4060	14.7810
 1.4070	14.5260
 1.4080	14.2830
 1.4090	14.0520
 1.4100	13.8360
 1.4110	13.6320
 1.4120	13.4410
 1.4130	13.2630
 1.4140	13.0950
 1.4150	12.9400
 1.4160	12.7960
 1.4170	12.6600
 1.4180	12.5340
 1.4190	12.4170
 1.4200	12.3090
 1.4210	12.2090
 1.4220	12.1160
 1.4230	12.0310
 1.4240	11.9520
 1.4250	11.8780
 1.4260	11.8120
 1.4270	11.7490
 1.4280	11.6910
 1.4290	11.6380
 1.4300	11.5900
 1.4310	11.5460
 1.4320	11.5070
 1.4330	11.4720
 1.4340	11.4390
 1.4350	11.4110
 1.4360	11.3860
 1.4370	11.3640
 1.4380	11.3450
 1.4390	11.3300
 1.4400	11.3170
 1.4410	11.3060
 1.4420	11.2970
 1.4430	11.2900
 1.4440	11.2860
 1.4450	11.2830
 1.4460	11.2820
 1.4470	11.2820
 1.4480	11.2820
 1.4490	11.2860
 1.4500	11.2910
 1.4510	11.2970
 1.4520	11.3050
 1.4530	11.3130
 1.4540	11.3220
 1.4550	11.3340
 1.4560	11.3470
 1.4570	11.3610
 1.4580	11.3780
 1.4590	11.3970
 1.4600	11.4190
 1.4610	11.4440
 1.4620	11.4710
 1.4630	11.5010
 1.4640	11.5340
 1.4650	11.5690
 1.4660	11.6090
 1.4670	11.6510
 1.4680	11.6970
 1.4690	11.7460
 1.4700	11.7970
 1.4710	11.8520
 1.4720	11.9090
 1.4730	11.9680
 1.4740	12.0320
 1.4750	12.0970
 1.4760	12.1640
 1.4770	12.2320
 1.4780	12.3000
 1.4790	12.3710
 1.4800	12.4420
 1.4810	12.5160
 1.4820	12.5910
 1.4830	12.6670
 1.4840	12.7450
 1.4850	12.8220
 1.4860	12.9000
 1.4870	12.9790
 1.4880	13.0590
 1.4890	13.1390
 1.4900	13.2200
 1.4910	13.3030
 1.4920	13.3850
 1.4930	13.4670
 1.4940	13.5500
 1.4950	13.6320
 1.4960	13.7150
 1.4970	13.8000
 1.4980	13.8840
 1.4990	13.9690
 1.5000	14.0540
 1.5010	14.1400
 1.5020	14.2250
 1.5030	14.3100
 1.5040	14.3950
 1.5050	14.4810
 1.5060	14.5670
 1.5070	14.6530
 1.5080	14.7390
 1.5090	14.8240
 1.5100	14.9100
 1.5110	14.9960
 1.5120	15.0820
 1.5130	15.1680
 1.5140	15.2530
 1.5150	15.3390
 1.5160	15.4230
 1.5170	15.5080
 1.5180	15.5920
 1.5190	15.6760
 1.5200	15.7620
 1.5210	15.8460
 1.5220	15.9290
 1.5230	16.0130
 1.5240	16.0950
 1.5250	16.1760
 1.5260	16.2580
 1.5270	16.3380
 1.5280	16.4180
 1.5290	16.4970
 1.5300	16.5760
 1.5310	16.6560
 1.5320	16.7350
 1.5330	16.8140
 1.5340	16.8920
 1.5350	16.9690
 1.5360	17.0460
 1.5370	17.1220
 1.5380	17.1970
 1.5390	17.2710
 1.5400	17.3460
 1.5410	17.4210
 1.5420	17.4950
 1.5430	17.5690
 1.5440	17.6420
 1.5450	17.7150
 1.5460	17.7890
 1.5470	17.8610
 1.5480	17.9310
 1.5490	18.0030
 1.5500	18.0720
 1.5510	18.1410
 1.5520	18.2100
 1.5530	18.2780
 1.5540	18.3450
 1.5550	18.4120
 1.5560	18.4770
 1.5570	18.5420
 1.5580	18.6070
 1.5590	18.6700
 1.5600	18.7320
 1.5610	18.7930
 1.5620	18.8540
 1.5630	18.9140
 1.5640	18.9720
 1.5650	19.0310
 1.5660	19.0900
 1.5670	19.1480
 1.5680	19.2060
 1.5690	19.2620
 1.5700	19.3170
 1.5710	19.3740
 1.5720	19.4300
 1.5730	19.4860
 1.5740	19.5430
 1.5750	19.5990
 1.5760	19.6530
 1.5770	19.7070
 1.5780	19.7600
 1.5790	19.8130
 1.5800	19.8670
 1.5810	19.9210
 1.5820	19.9730
 1.5830	20.0270
 1.5840	20.0810
 1.5850	20.1320
 1.5860	20.1840
 1.5870	20.2340
 1.5880	20.2840
 1.5890	20.3360
 1.5900	20.3880
 1.5910	20.4390
 1.5920	20.4900
 1.5930	20.5400
 1.5940	20.5870
 1.5950	20.6360
 1.5960	20.6840
 1.5970	20.7310
 1.5980	20.7790
 1.5990	20.8250
 1.6000	20.8710
 1.6010	20.9160
 1.6020	20.9610
 1.6030	21.0070
 1.6040	21.0540
 1.6050	21.0980
 1.6060	21.1430
 1.6070	21.1860
 1.6080	21.2280
 1.6090	21.2700
 1.6100	21.3110
 1.6110	21.3520
 1.6120	21.3930
 1.6130	21.4330
 1.6140	21.4730
 1.6150	21.5130
 1.6160	21.5520
 1.6170	21.5870
 1.6180	21.6240
 1.6190	21.6610
 1.6200	21.6960
 1.6210	21.7310
 1.6220	21.7660
 1.6230	21.7980
 1.6240	21.8320
 1.6250	21.8650
 1.6260	21.8960
 1.6270	21.9280
 1.6280	21.9560
 1.6290	21.9840
 1.6300	22.0120
 1.6310	22.0410
 1.6320	22.0700
 1.6330	22.0980
 1.6340	22.1250
 1.6350	22.1510
 1.6360	22.1750
 1.6370	22.1990
 1.6380	22.2230
 1.6390	22.2450
 1.6400	22.2640
 1.6410	22.2820
 1.6420	22.2990
 1.6430	22.3150
 1.6440	22.3290
 1.6450	22.3410
 1.6460	22.3520
 1.6470	22.3610
 1.6480	22.3670
 1.6490	22.3730
 1.6500	22.3760
 1.6510	22.3760
 1.6520	22.3760
 1.6530	22.3750
 1.6540	22.3710
 1.6550	22.3660
 1.6560	22.3600
 1.6570	22.3520
 1.6580	22.3420
 1.6590	22.3310
 1.6600	22.3210
 1.6610	22.3080
 1.6620	22.2940
 1.6630	22.2800
 1.6640	22.2670
 1.6650	22.2540
 1.6660	22.2410
 1.6670	22.2290
 1.6680	22.2150
 1.6690	22.1990
 1.6700	22.1820
 1.6710	22.1640
 1.6720	22.1470
 1.6730	22.1310
 1.6740	22.1130
 1.6750	22.0960
 1.6760	22.0780
 1.6770	22.0570
 1.6780	22.0350
 1.6790	22.0120
 1.6800	21.9840
 1.6810	21.9580
 1.6820	21.9300
 1.6830	21.9000
 1.6840	21.8690
 1.6850	21.8360
 1.6860	21.8020
 1.6870	21.7660
 1.6880	21.7290
 1.6890	21.6930
 1.6900	21.6560
 1.6910	21.6190
 1.6920	21.5810
 1.6930	21.5410
 1.6940	21.5000
 1.6950	21.4600
 1.6960	21.4160
 1.6970	21.3720
 1.6980	21.3230
 1.6990	21.2700
 1.7000	21.2150
 1.7010	21.1570
 1.7020	21.1000
 1.7030	21.0400
 1.7040	20.9810
 1.7050	20.9220
 1.7060	20.8620
 1.7070	20.8020
 1.7080	20.7430
 1.7090	20.6830
 1.7100	20.6260
 1.7110	20.5730
 1.7120	20.5180
 1.7130	20.4660
 1.7140	20.4160
 1.7150	20.3640
 1.7160	20.3140
 1.7170	20.2660
 1.7180	20.2190
 1.7190	20.1740
 1.7200	20.1310
 1.7210	20.0900
 1.7220	20.0470
 1.7230	20.0060
 1.7240	19.9690
 1.7250	19.9360
 1.7260	19.9060
 1.7270	19.8810
 1.7280	19.8600
 1.7290	19.8430
 1.7300	19.8330
 1.7310	19.8280
 1.7320	19.8300
 1.7330	19.8320
 1.7340	19.8390
 1.7350	19.8440
 1.7360	19.8530
 1.7370	19.8560
 1.7380	19.8580
 1.7390	19.8550
 1.7400	19.8460
 1.7410	19.8340
 1.7420	19.8200
 1.7430	19.8000
 1.7440	19.7770
 1.7450	19.7480
 1.7460	19.7130
 1.7470	19.6790
 1.7480	19.6420
 1.7490	19.6050
 1.7500	19.5680
 1.7510	19.5310
 1.7520	19.4910
 1.7530	19.4550
 1.7540	19.4190
 1.7550	19.3860
 1.7560	19.3540
 1.7570	19.3230
 1.7580	19.2940
 1.7590	19.2680
 1.7600	19.2430
 1.7610	19.2200
 1.7620	19.2000
 1.7630	19.1830
 1.7640	19.1670
 1.7650	19.1530
 1.7660	19.1410
 1.7670	19.1300
 1.7680	19.1220
 1.7690	19.1170
 1.7700	19.1110
 1.7710	19.1070
 1.7720	19.1010
 1.7730	19.0950
 1.7740	19.0870
 1.7750	19.0800
 1.7760	19.0710
 1.7770	19.0630
 1.7780	19.0540
 1.7790	19.0430
 1.7800	19.0360
 1.7810	19.0300
 1.7820	19.0230
 1.7830	19.0190
 1.7840	19.0140
 1.7850	19.0080
 1.7860	19.0040
 1.7870	19.0020
 1.7880	18.9990
 1.7890	18.9980
 1.7900	18.9960
 1.7910	18.9960
 1.7920	18.9960
 1.7930	18.9980
 1.7940	19.0000
 1.7950	19.0040
 1.7960	19.0080
 1.7970	19.0140
 1.7980	19.0210
 1.7990	19.0300
 1.8000	19.0420
 1.8010	19.0520
 1.8020	19.0600
 1.8030	19.0700
 1.8040	19.0780
 1.8050	19.0880
 1.8060	19.1000
 1.8070	19.1110
 1.8080	19.1220
 1.8090	19.1340
 1.8100	19.1460
 1.8110	19.1590
 1.8120	19.1700
 1.8130	19.1790
 1.8140	19.1890
 1.8150	19.1970
 1.8160	19.2040
 1.8170	19.2120
 1.8180	19.2180
 1.8190	19.2260
 1.8200	19.2320
 1.8210	19.2370
 1.8220	19.2420
 1.8230	19.2470
 1.8240	19.2500
 1.8250	19.2540
 1.8260	19.2550
 1.8270	19.2520
 1.8280	19.2500
 1.8290	19.2510
 1.8300	19.2450
 1.8310	18.9240
 1.8320	18.9140
 1.8330	18.9040
 1.8340	18.8900
 1.8350	18.8750
 1.8360	18.8560
 1.8370	18.8320
 1.8380	18.8050
 1.8390	18.7730
 1.8400	18.7350
 1.8410	18.6940
 1.8420	18.6510
 1.8430	18.6020
 1.8440	18.5510
 1.8450	18.4970
 1.8460	18.4370
 1.8470	18.3730
 1.8480	18.3010
 1.8490	18.2220
 1.8500	18.1360
 1.8510	18.0440
 1.8520	17.9440
 1.8530	17.8350
 1.8540	17.7190
 1.8550	17.5920
 1.8560	17.4540
 1.8570	17.3080
 1.8580	17.1500
 1.8590	16.9850
 1.8600	16.8120
 1.8610	16.6280
 1.8620	16.4300
 1.8630	16.2260
 1.8640	16.0060
 1.8650	15.7720
 1.8660	15.5300
 1.8670	15.2710
 1.8680	14.9980
 1.8690	14.7170
 1.8700	14.4200
 1.8710	14.1100
 1.8720	13.7900
 1.8730	13.4620
 1.8740	13.1210
 1.8750	12.7780
 1.8760	12.4280
 1.8770	12.0720
 1.8780	11.7170
 1.8790	11.3550
 1.8800	10.9980
 1.8810	10.6400
 1.8820	10.2840
 1.8830	 9.9250
 1.8840	 9.5720
 1.8850	 9.2210
 1.8860	 8.8710
 1.8870	 8.5320
 1.8880	 8.1990
 1.8890	 7.8750
 1.8900	 7.5660
 1.8910	 7.2680
 1.8920	 6.9810
 1.8930	 6.7080
 1.8940	 6.4500
 1.8950	 6.2050
 1.8960	 5.9760
 1.8970	 5.7610
 1.8980	 5.5590
 1.8990	 5.3730
 1.9000	 5.1990
 1.9010	 5.0410
 1.9020	 4.8920
 1.9030	 4.7560
 1.9040	 4.6310
 1.9050	 4.5180
 1.9060	 4.4150
 1.9070	 4.3240
 1.9080	 4.2430
 1.9090	 4.1670
 1.9100	 4.0970
 1.9110	 4.0330
 1.9120	 3.9750
 1.9130	 3.9230
 1.9140	 3.8760
 1.9150	 3.8370
 1.9160	 3.8020
 1.9170	 3.7690
 1.9180	 3.7370
 1.9190	 3.7080
 1.9200	 3.6840
 1.9210	 3.6660
 1.9220	 3.6490
 1.9230	 3.6360
 1.9240	 3.6250
 1.9250	 3.6160
 1.9260	 3.6110
 1.9270	 3.6080
 1.9280	 3.6080
 1.9290	 3.6050
 1.9300	 3.6030
 1.9310	 3.6070
 1.9320	 3.6140
 1.9330	 3.6210
 1.9340	 3.6340
 1.9350	 3.6440
 1.9360	 3.6540
 1.9370	 3.6660
 1.9380	 3.6790
 1.9390	 3.6930
 1.9400	 3.7070
 1.9410	 3.7240
 1.9420	 3.7410
 1.9430	 3.7610
 1.9440	 3.7840
 1.9450	 3.8120
 1.9460	 3.8370
 1.9470	 3.8640
 1.9480	 3.8890
 1.9490	 3.9130
 1.9500	 3.9370
 1.9510	 3.9620
 1.9520	 3.9890
 1.9530	 4.0190
 1.9540	 4.0480
 1.9550	 4.0790
 1.9560	 4.1120
 1.9570	 4.1450
 1.9580	 4.1780
 1.9590	 4.2120
 1.9600	 4.2460
 1.9610	 4.2820
 1.9620	 4.3210
 1.9630	 4.3580
 1.9640	 4.3960
 1.9650	 4.4360
 1.9660	 4.4760
 1.9670	 4.5150
 1.9680	 4.5540
 1.9690	 4.5950
 1.9700	 4.6350
 1.9710	 4.6720
 1.9720	 4.7120
 1.9730	 4.7540
 1.9740	 4.7950
 1.9750	 4.8380
 1.9760	 4.8820
 1.9770	 4.9270
 1.9780	 4.9740
 1.9790	 5.0190
 1.9800	 5.0650
 1.9810	 5.1100
 1.9820	 5.1520
 1.9830	 5.1970
 1.9840	 5.2420
 1.9850	 5.2890
 1.9860	 5.3380
 1.9870	 5.3880
 1.9880	 5.4380
 1.9890	 5.4870
 1.9900	 5.5380
 1.9910	 5.5890
 1.9920	 5.6380
 1.9930	 5.6890
 1.9940	 5.7370
 1.9950	 5.7810
 1.9960	 5.8280
 1.9970	 5.8740
 1.9980	 5.9220
 1.9990	 5.9760
 2.0000	 6.0260
 2.0010	 6.0750
 2.0020	 6.1260
 2.0030	 6.1760
 2.0040	 6.2250
 2.0050	 6.2740
 2.0060	 6.3230
 2.0070	 6.3730
 2.0080	 6.4230
 2.0090	 6.4730
 2.0100	 6.5260
 2.0110	 6.5750
 2.0120	 6.6210
 2.0130	 6.6670
 2.0140	 6.7120
 2.0150	 6.7560
 2.0160	 6.8020
 2.0170	 6.8490
 2.0180	 6.8950
 2.0190	 6.9410
 2.0200	 6.9850
 2.0210	 7.0260
 2.0220	 7.0680
 2.0230	 7.1100
 2.0240	 7.1530
 2.0250	 7.2000
 2.0260	 7.2420
 2.0270	 7.2830
 2.0280	 7.3230
 2.0290	 7.3600
 2.0300	 7.3970
 2.0310	 7.4360
 2.0320	 7.4770
 2.0330	 7.5140
 2.0340	 7.5510
 2.0350	 7.5860
 2.0360	 7.6200
 2.0370	 7.6530
 2.0380	 7.6870
 2.0390	 7.7200
 2.0400	 7.7520
 2.0410	 7.7850
 2.0420	 7.8180
 2.0430	 7.8510
 2.0440	 7.8830
 2.0450	 7.9140
 2.0460	 7.9440
 2.0470	 7.9690
 2.0480	 7.9980
 2.0490	 8.0280
 2.0500	 8.0570
 2.0510	 8.0900
 2.0520	 8.1200
 2.0530	 8.1470
 2.0540	 8.1770
 2.0550	 8.2090
 2.0560	 8.2420
 2.0570	 8.2740
 2.0580	 8.3080
 2.0590	 8.3450
 2.0600	 8.3840
 2.0610	 8.4200
 2.0620	 8.4580
 2.0630	 8.4940
 2.0640	 8.5240
 2.0650	 8.5590
 2.0660	 8.5970
 2.0670	 8.6330
 2.0680	 8.6680
 2.0690	 8.7050
 2.0700	 8.7440
 2.0710	 8.7820
 2.0720	 8.8220
 2.0730	 8.8600
 2.0740	 8.8980
 2.0750	 8.9350
 2.0760	 8.9710
 2.0770	 9.0050
 2.0780	 9.0390
 2.0790	 9.0730
 2.0800	 9.1050
 2.0810	 9.1350
 2.0820	 9.1680
 2.0830	 9.2020
 2.0840	 9.2350
 2.0850	 9.2700
 2.0860	 9.3040
 2.0870	 9.3360
 2.0880	 9.3660
 2.0890	 9.3990
 2.0900	 9.4320
 2.0910	 9.4650
 2.0920	 9.5000
 2.0930	 9.5330
 2.0940	 9.5650
 2.0950	 9.5970
 2.0960	 9.6270
 2.0970	 9.6570
 2.0980	 9.6870
 2.0990	 9.7180
 2.1000	 9.7490
 2.1010	 9.7780
 2.1020	 9.8020
 2.1030	 9.8310
 2.1040	 9.8600
 2.1050	 9.8890
 2.1060	 9.9190
 2.1070	 9.9530
 2.1080	 9.9810
 2.1090	10.0060
 2.1100	10.0310
 2.1110	10.0540
 2.1120	10.0770
 2.1130	10.1000
 2.1140	10.1240
 2.1150	10.1520
 2.1160	10.1760
 2.1170	10.1990
 2.1180	10.2210
 2.1190	10.2390
 2.1200	10.2600
 2.1210	10.2820
 2.1220	10.3020
 2.1230	10.3240
 2.1240	10.3470
 2.1250	10.3670
 2.1260	10.3860
 2.1270	10.4030
 2.1280	10.4180
 2.1290	10.4330
 2.1300	10.4480
 2.1310	10.4620
 2.1320	10.4760
 2.1330	10.4880
 2.1340	10.4980
 2.1350	10.5090
 2.1360	10.5190
 2.1370	10.5330
 2.1380	10.5540
 2.1390	10.5690
 2.1400	10.5840
 2.1410	10.5990
 2.1420	10.6110
 2.1430	10.6170
 2.1440	10.6260
 2.1450	10.6320
 2.1460	10.6450
 2.1470	10.6590
 2.1480	10.6730
 2.1490	10.6920
 2.1500	10.7060
 2.1510	10.7170
 2.1520	10.7300
 2.1530	10.7460
 2.1540	10.7600
 2.1550	10.7730
 2.1560	10.7870
 2.1570	10.8000
 2.1580	10.8130
 2.1590	10.8280
 2.1600	10.8380
 2.1610	10.8490
 2.1620	10.8610
 2.1630	10.8760
 2.1640	10.8930
 2.1650	10.9070
 2.1660	10.9210
 2.1670	10.9340
 2.1680	10.9440
 2.1690	10.9570
 2.1700	10.9710
 2.1710	10.9860
 2.1720	11.0020
 2.1730	11.0170
 2.1740	11.0310
 2.1750	11.0480
 2.1760	11.0630
 2.1770	11.0820
 2.1780	11.1080
 2.1790	11.1290
 2.1800	11.1500
 2.1810	11.1690
 2.1820	11.1840
 2.1830	11.1960
 2.1840	11.2130
 2.1850	11.2320
 2.1860	11.2520
 2.1870	11.2760
 2.1880	11.2960
 2.1890	11.3130
 2.1900	11.3350
 2.1910	11.3580
 2.1920	11.3790
 2.1930	11.4020
 2.1940	11.4230
 2.1950	11.4410
 2.1960	11.4600
 2.1970	11.4840
 2.1980	11.5010
 2.1990	11.5110
 2.2000	11.5260
 2.2010	11.5410
 2.2020	11.5550
 2.2030	11.5760
 2.2040	11.5920
 2.2050	11.6040
 2.2060	11.6140
 2.2070	11.6260
 2.2080	11.6360
 2.2090	11.6480
 2.2100	11.6620
 2.2110	11.6720
 2.2120	11.6810
 2.2130	11.6910
 2.2140	11.7000
 2.2150	11.7080
 2.2160	11.7200
 2.2170	11.7280
 2.2180	11.7340
 2.2190	11.7360
 2.2200	11.7350
 2.2210	11.7350
 2.2220	11.7340
 2.2230	11.7290
 2.2240	11.7240
 2.2250	11.7180
 2.2260	11.7060
 2.2270	11.6950
 2.2280	11.6860
 2.2290	11.6710
 2.2300	11.6550
 2.2310	11.6320
 2.2320	11.6050
 2.2330	11.5780
 2.2340	11.5520
 2.2350	11.5270
 2.2360	11.4950
 2.2370	11.4630
 2.2380	11.4250
 2.2390	11.3800
 2.2400	11.3380
 2.2410	11.2940
 2.2420	11.2510
 2.2430	11.2070
 2.2440	11.1630
 2.2450	11.1220
 2.2460	11.0740
 2.2470	11.0230
 2.2480	10.9700
 2.2490	10.9080
 2.2500	10.8520
 2.2510	10.7960
 2.2520	10.7400
 2.2530	10.6860
 2.2540	10.6320
 2.2550	10.5770
 2.2560	10.5260
 2.2570	10.4820
 2.2580	10.4330
 2.2590	10.3830
 2.2600	10.3340
 2.2610	10.2840
 2.2620	10.2330
 2.2630	10.1840
 2.2640	10.1390
 2.2650	10.0960
 2.2660	10.0500
 2.2670	10.0040
 2.2680	 9.9610
 2.2690	 9.9150
 2.2700	 9.8660
 2.2710	 9.8190
 2.2720	 9.7710
 2.2730	 9.7260
 2.2740	 9.6820
 2.2750	 9.6420
 2.2760	 9.6060
 2.2770	 9.5670
 2.2780	 9.5320
 2.2790	 9.4880
 2.2800	 9.4370
 2.2810	 9.3870
 2.2820	 9.3280
 2.2830	 9.2790
 2.2840	 9.2360
 2.2850	 9.1910
 2.2860	 9.1540
 2.2870	 9.1070
 2.2880	 9.0550
 2.2890	 9.0000
 2.2900	 8.9390
 2.2910	 8.8810
 2.2920	 8.8210
 2.2930	 8.7640
 2.2940	 8.7130
 2.2950	 8.6590
 2.2960	 8.6020
 2.2970	 8.5530
 2.2980	 8.5100
 2.2990	 8.4650
 2.3000	 8.4250
 2.3010	 8.3850
 2.3020	 8.3400
 2.3030	 8.2970
 2.3040	 8.2590
 2.3050	 8.2270
 2.3060	 8.2000
 2.3070	 8.1760
 2.3080	 8.1560
 2.3090	 8.1420
 2.3100	 8.1320
 2.3110	 8.1250
 2.3120	 8.1260
 2.3130	 8.1360
 2.3140	 8.1430
 2.3150	 8.1540
 2.3160	 8.1660
 2.3170	 8.1780
 2.3180	 8.1920
 2.3190	 8.2140
 2.3200	 8.2270
 2.3210	 8.2390
 2.3220	 8.2450
 2.3230	 8.2480
 2.3240	 8.2400
 2.3250	 8.2220
 2.3260	 8.2060
 2.3270	 8.1810
 2.3280	 8.1600
 2.3290	 8.1430
 2.3300	 8.1170
 2.3310	 8.0850
 2.3320	 8.0530
 2.3330	 8.0150
 2.3340	 7.9780
 2.3350	 7.9400
 2.3360	 7.9000
 2.3370	 7.8570
 2.3380	 7.8170
 2.3390	 7.7740
 2.3400	 7.7360
 2.3410	 7.7040
 2.3420	 7.6700
 2.3430	 7.6380
 2.3440	 7.6040
 2.3450	 7.5650
 2.3460	 7.5300
 2.3470	 7.4920
 2.3480	 7.4620
 2.3490	 7.4360
 2.3500	 7.4140
 2.3510	 7.4010
 2.3520	 7.3860
 2.3530	 7.3740
 2.3540	 7.3620
 2.3550	 7.3610
 2.3560	 7.3530
 2.3570	 7.3420
 2.3580	 7.3320
 2.3590	 7.3120
 2.3600	 7.2890
 2.3610	 7.2710
 2.3620	 7.2570
 2.3630	 7.2440
 2.3640	 7.2290
 2.3650	 7.2120
 2.3660	 7.1930
 2.3670	 7.1730
 2.3680	 7.1520
 2.3690	 7.1360
 2.3700	 7.1220
 2.3710	 7.1010
 2.3720	 7.0810
 2.3730	 7.0540
 2.3740	 7.0220
 2.3750	 7.0000
 2.3760	 6.9680
 2.3770	 6.9250
 2.3780	 6.8940
 2.3790	 6.8700
 2.3800	 6.8500
 2.3810	 6.8380
 2.3820	 6.8160
 2.3830	 6.7770
 2.3840	 6.7380
 2.3850	 6.7060
 2.3860	 6.6800
 2.3870	 6.6700
 2.3880	 6.6530
 2.3890	 6.6300
 2.3900	 6.6120
 2.3910	 6.5870
 2.3920	 6.5630
 2.3930	 6.5440
 2.3940	 6.5290
 2.3950	 6.4930
 2.3960	 6.4600
 2.3970	 6.4350
 2.3980	 6.3960
 2.3990	 6.3740
 2.4000	 6.3560
 2.4010	 6.3230
 2.4020	 6.2920
 2.4030	 6.2600
 2.4040	 6.2270
 2.4050	 6.1950
 2.4060	 6.1750
 2.4070	 6.1470
 2.4080	 6.1150
 2.4090	 6.0980
 2.4100	 6.0720
 2.4110	 6.0330
 2.4120	 6.0070
 2.4130	 5.9680
 2.4140	 5.9260
 2.4150	 5.9100
 2.4160	 5.8930
 2.4170	 5.8740
 2.4180	 5.8580
 2.4190	 5.8270
 2.4200	 5.7780
 2.4210	 5.7450
 2.4220	 5.7160
 2.4230	 5.6920
 2.4240	 5.6780
 2.4250	 5.6460
 2.4260	 5.6130
 2.4270	 5.5820
 2.4280	 5.5390
 2.4290	 5.5000
 2.4300	 5.4730
 2.4310	 5.4510
 2.4320	 5.4300
 2.4330	 5.4130
 2.4340	 5.3750
 2.4350	 5.3090
 2.4360	 5.2600
 2.4370	 5.2210
 2.4380	 5.1780
 2.4390	 5.1580
 2.4400	 5.1500
 2.4410	 5.1190
 2.4420	 5.0980
 2.4430	 5.0910
 2.4440	 5.0530
 2.4450	 5.0330
 2.4460	 5.0110
 2.4470	 4.9610
 2.4480	 4.9420
 2.4490	 4.9290
 2.4500	 4.8980
 2.4510	 4.8650
 2.4520	 4.8220
 2.4530	 4.7680
 2.4540	 4.7250
 2.4550	 4.6840
 2.4560	 4.6550
 2.4570	 4.6400
 2.4580	 4.6140
 2.4590	 4.6120
 2.4600	 4.5950
 2.4610	 4.5430
 2.4620	 4.5140
 2.4630	 4.4940
 2.4640	 4.4740
 2.4650	 4.4690
 2.4660	 4.4640
 2.4670	 4.4300
 2.4680	 4.3830
 2.4690	 4.3260
 2.4700	 4.2880
 2.4710	 4.2660
 2.4720	 4.2520
 2.4730	 4.2630
 2.4740	 4.2610
 2.4750	 4.2690
 2.4760	 4.2530
 2.4770	 4.1940
 2.4780	 4.1640
 2.4790	 4.1430
 2.4800	 4.1200
 2.4810	 4.1310
 2.4820	 4.0960
 2.4830	 4.0340
 2.4840	 3.9860
 2.4850	 3.9380
 2.4860	 3.9160
 2.4870	 3.9310
 2.4880	 3.9900
 2.4890	 4.0240
 2.4900	 4.0620
 2.4910	 4.1040
 2.4920	 4.0580
 2.4930	 4.0080
 2.4940	 3.9190
 2.4950	 3.8250
 2.4960	 3.8110
 2.4970	 3.8140
 2.4980	 3.8460
 2.4990	 3.8390
 2.5000	 3.8080
