Name: Quercus agrifolia 1
Type: vegetation
Class: Tree
Genus: Quercus
Species: agrifolia
Sample No.: VH272
Owner: UCSB
Wavelength Range: VSWIR
Origin: 34.7153; -120.0601; WGS84
Collection Date: 11/2/2013
Description: Samples were collected as part of the HyspIRI Airborne Campaign. 48 individual plants were sampled in three times in 2013 - spring  summer  and fall. The name of the sample includes a 1  2  or 3 which references a different individual of the species. Samples were taken to JPL and processed within 48 hours of collection. The same leaves were processed in the Nicolet and then measured using the ASD.
Measurement: Bidirectional reflectance
First Column: X
Second Column: Y
X Units: Wavelength (micrometers)
Y Units: Reflectance (percentage)
First X Value: 0.35
Last X Value: 2.5
Number of X Values: 2151
Additional Information: vegetation.tree.quercus.agrifolia.vswir.vh272.ucsb.asd.ancillary.txt

 0.3500	 6.2500
 0.3510	 6.1050
 0.3520	 6.0250
 0.3530	 6.0550
 0.3540	 6.1540
 0.3550	 6.1560
 0.3560	 6.1260
 0.3570	 6.1360
 0.3580	 6.2290
 0.3590	 6.1830
 0.3600	 6.1320
 0.3610	 6.1410
 0.3620	 6.1360
 0.3630	 6.0590
 0.3640	 6.0200
 0.3650	 6.1100
 0.3660	 6.1870
 0.3670	 6.1180
 0.3680	 5.9960
 0.3690	 6.0420
 0.3700	 6.0410
 0.3710	 6.0050
 0.3720	 5.9800
 0.3730	 6.0250
 0.3740	 6.0570
 0.3750	 6.0500
 0.3760	 6.0070
 0.3770	 5.9900
 0.3780	 6.0500
 0.3790	 6.1180
 0.3800	 6.0410
 0.3810	 6.0420
 0.3820	 6.0150
 0.3830	 5.9180
 0.3840	 5.9900
 0.3850	 6.0170
 0.3860	 5.9780
 0.3870	 5.9370
 0.3880	 6.0050
 0.3890	 6.0420
 0.3900	 6.0220
 0.3910	 6.0460
 0.3920	 6.0130
 0.3930	 5.9810
 0.3940	 5.9990
 0.3950	 6.0070
 0.3960	 5.9940
 0.3970	 5.9880
 0.3980	 6.0260
 0.3990	 6.0240
 0.4000	 6.0130
 0.4010	 6.0130
 0.4020	 6.0090
 0.4030	 6.0180
 0.4040	 6.0360
 0.4050	 6.0450
 0.4060	 5.9880
 0.4070	 5.9890
 0.4080	 6.0420
 0.4090	 6.0600
 0.4100	 6.0830
 0.4110	 6.0850
 0.4120	 6.0660
 0.4130	 6.0950
 0.4140	 6.1230
 0.4150	 6.1380
 0.4160	 6.1490
 0.4170	 6.1800
 0.4180	 6.2030
 0.4190	 6.2130
 0.4200	 6.2240
 0.4210	 6.2170
 0.4220	 6.2220
 0.4230	 6.2570
 0.4240	 6.2870
 0.4250	 6.2990
 0.4260	 6.3050
 0.4270	 6.3300
 0.4280	 6.3450
 0.4290	 6.3570
 0.4300	 6.3720
 0.4310	 6.3940
 0.4320	 6.4090
 0.4330	 6.4150
 0.4340	 6.4170
 0.4350	 6.4340
 0.4360	 6.4510
 0.4370	 6.4620
 0.4380	 6.4740
 0.4390	 6.4840
 0.4400	 6.4970
 0.4410	 6.5130
 0.4420	 6.5230
 0.4430	 6.5350
 0.4440	 6.5440
 0.4450	 6.5460
 0.4460	 6.5610
 0.4470	 6.5780
 0.4480	 6.5920
 0.4490	 6.6050
 0.4500	 6.6110
 0.4510	 6.6170
 0.4520	 6.6280
 0.4530	 6.6340
 0.4540	 6.6530
 0.4550	 6.6780
 0.4560	 6.6900
 0.4570	 6.6930
 0.4580	 6.6920
 0.4590	 6.6920
 0.4600	 6.6980
 0.4610	 6.7030
 0.4620	 6.7080
 0.4630	 6.7180
 0.4640	 6.7240
 0.4650	 6.7240
 0.4660	 6.7210
 0.4670	 6.7240
 0.4680	 6.7380
 0.4690	 6.7490
 0.4700	 6.7500
 0.4710	 6.7620
 0.4720	 6.7670
 0.4730	 6.7670
 0.4740	 6.7740
 0.4750	 6.7880
 0.4760	 6.7900
 0.4770	 6.7830
 0.4780	 6.8040
 0.4790	 6.8130
 0.4800	 6.8130
 0.4810	 6.8160
 0.4820	 6.8230
 0.4830	 6.8300
 0.4840	 6.8390
 0.4850	 6.8580
 0.4860	 6.8650
 0.4870	 6.8730
 0.4880	 6.8920
 0.4890	 6.9050
 0.4900	 6.9200
 0.4910	 6.9380
 0.4920	 6.9580
 0.4930	 6.9850
 0.4940	 7.0140
 0.4950	 7.0430
 0.4960	 7.0830
 0.4970	 7.1240
 0.4980	 7.1630
 0.4990	 7.2040
 0.5000	 7.2580
 0.5010	 7.3160
 0.5020	 7.3730
 0.5030	 7.4270
 0.5040	 7.4960
 0.5050	 7.5790
 0.5060	 7.6700
 0.5070	 7.7650
 0.5080	 7.8680
 0.5090	 7.9760
 0.5100	 8.0880
 0.5110	 8.2260
 0.5120	 8.3680
 0.5130	 8.5080
 0.5140	 8.6710
 0.5150	 8.8440
 0.5160	 9.0240
 0.5170	 9.2100
 0.5180	 9.4040
 0.5190	 9.6010
 0.5200	 9.7990
 0.5210	 9.9970
 0.5220	10.2020
 0.5230	10.3990
 0.5240	10.5800
 0.5250	10.7600
 0.5260	10.9330
 0.5270	11.0950
 0.5280	11.2450
 0.5290	11.3850
 0.5300	11.5090
 0.5310	11.6160
 0.5320	11.7170
 0.5330	11.8080
 0.5340	11.8880
 0.5350	11.9550
 0.5360	12.0190
 0.5370	12.0720
 0.5380	12.1170
 0.5390	12.1630
 0.5400	12.2020
 0.5410	12.2370
 0.5420	12.2720
 0.5430	12.3060
 0.5440	12.3510
 0.5450	12.3990
 0.5460	12.4390
 0.5470	12.4860
 0.5480	12.5300
 0.5490	12.5630
 0.5500	12.5850
 0.5510	12.6010
 0.5520	12.6130
 0.5530	12.6180
 0.5540	12.6140
 0.5550	12.5970
 0.5560	12.5650
 0.5570	12.5220
 0.5580	12.4690
 0.5590	12.4050
 0.5600	12.3260
 0.5610	12.2380
 0.5620	12.1400
 0.5630	12.0370
 0.5640	11.9290
 0.5650	11.8070
 0.5660	11.6780
 0.5670	11.5500
 0.5680	11.4240
 0.5690	11.2940
 0.5700	11.1640
 0.5710	11.0390
 0.5720	10.9160
 0.5730	10.8000
 0.5740	10.6970
 0.5750	10.6070
 0.5760	10.5240
 0.5770	10.4480
 0.5780	10.3770
 0.5790	10.3020
 0.5800	10.2290
 0.5810	10.1600
 0.5820	10.0940
 0.5830	10.0320
 0.5840	 9.9740
 0.5850	 9.9170
 0.5860	 9.8630
 0.5870	 9.8160
 0.5880	 9.7740
 0.5890	 9.7350
 0.5900	 9.7070
 0.5910	 9.6870
 0.5920	 9.6700
 0.5930	 9.6490
 0.5940	 9.6320
 0.5950	 9.6090
 0.5960	 9.5780
 0.5970	 9.5480
 0.5980	 9.5200
 0.5990	 9.4910
 0.6000	 9.4590
 0.6010	 9.4200
 0.6020	 9.3740
 0.6030	 9.3230
 0.6040	 9.2730
 0.6050	 9.2190
 0.6060	 9.1590
 0.6070	 9.0970
 0.6080	 9.0310
 0.6090	 8.9660
 0.6100	 8.9000
 0.6110	 8.8310
 0.6120	 8.7690
 0.6130	 8.7160
 0.6140	 8.6700
 0.6150	 8.6230
 0.6160	 8.5780
 0.6170	 8.5350
 0.6180	 8.4970
 0.6190	 8.4600
 0.6200	 8.4340
 0.6210	 8.4150
 0.6220	 8.3930
 0.6230	 8.3760
 0.6240	 8.3640
 0.6250	 8.3570
 0.6260	 8.3530
 0.6270	 8.3510
 0.6280	 8.3510
 0.6290	 8.3520
 0.6300	 8.3530
 0.6310	 8.3520
 0.6320	 8.3500
 0.6330	 8.3500
 0.6340	 8.3430
 0.6350	 8.3280
 0.6360	 8.3080
 0.6370	 8.2850
 0.6380	 8.2500
 0.6390	 8.2050
 0.6400	 8.1570
 0.6410	 8.0980
 0.6420	 8.0380
 0.6430	 7.9790
 0.6440	 7.9190
 0.6450	 7.8580
 0.6460	 7.8000
 0.6470	 7.7490
 0.6480	 7.6950
 0.6490	 7.6450
 0.6500	 7.6010
 0.6510	 7.5620
 0.6520	 7.5230
 0.6530	 7.4860
 0.6540	 7.4500
 0.6550	 7.4140
 0.6560	 7.3770
 0.6570	 7.3390
 0.6580	 7.3030
 0.6590	 7.2680
 0.6600	 7.2340
 0.6610	 7.1990
 0.6620	 7.1650
 0.6630	 7.1400
 0.6640	 7.1220
 0.6650	 7.1100
 0.6660	 7.1000
 0.6670	 7.0920
 0.6680	 7.0920
 0.6690	 7.1010
 0.6700	 7.1150
 0.6710	 7.1350
 0.6720	 7.1600
 0.6730	 7.1850
 0.6740	 7.2130
 0.6750	 7.2480
 0.6760	 7.2920
 0.6770	 7.3350
 0.6780	 7.3860
 0.6790	 7.4460
 0.6800	 7.5100
 0.6810	 7.5800
 0.6820	 7.6600
 0.6830	 7.7550
 0.6840	 7.8660
 0.6850	 7.9890
 0.6860	 8.1310
 0.6870	 8.3020
 0.6880	 8.4960
 0.6890	 8.7240
 0.6900	 8.9930
 0.6910	 9.3050
 0.6920	 9.6700
 0.6930	10.0850
 0.6940	10.5520
 0.6950	11.0820
 0.6960	11.6730
 0.6970	12.3200
 0.6980	13.0200
 0.6990	13.7830
 0.7000	14.5940
 0.7010	15.4410
 0.7020	16.3230
 0.7030	17.2350
 0.7040	18.1690
 0.7050	19.1170
 0.7060	20.0830
 0.7070	21.0510
 0.7080	22.0160
 0.7090	22.9790
 0.7100	23.9410
 0.7110	24.8980
 0.7120	25.8460
 0.7130	26.7830
 0.7140	27.7100
 0.7150	28.6240
 0.7160	29.5220
 0.7170	30.3940
 0.7180	31.2490
 0.7190	32.0930
 0.7200	32.9250
 0.7210	33.7320
 0.7220	34.5110
 0.7230	35.2650
 0.7240	35.9960
 0.7250	36.6960
 0.7260	37.3830
 0.7270	38.0590
 0.7280	38.6610
 0.7290	39.2530
 0.7300	39.8320
 0.7310	40.3710
 0.7320	40.8830
 0.7330	41.3780
 0.7340	41.8540
 0.7350	42.2970
 0.7360	42.7090
 0.7370	43.0970
 0.7380	43.4680
 0.7390	43.8150
 0.7400	44.1420
 0.7410	44.4470
 0.7420	44.7310
 0.7430	45.0050
 0.7440	45.2510
 0.7450	45.4670
 0.7460	45.6750
 0.7470	45.8770
 0.7480	46.0530
 0.7490	46.2010
 0.7500	46.3610
 0.7510	46.4920
 0.7520	46.6140
 0.7530	46.7480
 0.7540	46.8250
 0.7550	46.9020
 0.7560	46.9910
 0.7570	47.0680
 0.7580	47.1250
 0.7590	47.1730
 0.7600	47.2190
 0.7610	47.2580
 0.7620	47.3020
 0.7630	47.3400
 0.7640	47.3660
 0.7650	47.3980
 0.7660	47.4190
 0.7670	47.4350
 0.7680	47.4630
 0.7690	47.4710
 0.7700	47.4810
 0.7710	47.4980
 0.7720	47.4910
 0.7730	47.4910
 0.7740	47.4980
 0.7750	47.5010
 0.7760	47.4930
 0.7770	47.5050
 0.7780	47.5210
 0.7790	47.5070
 0.7800	47.5140
 0.7810	47.5230
 0.7820	47.5250
 0.7830	47.5260
 0.7840	47.5220
 0.7850	47.5170
 0.7860	47.5180
 0.7870	47.5430
 0.7880	47.5560
 0.7890	47.5540
 0.7900	47.5480
 0.7910	47.5560
 0.7920	47.5730
 0.7930	47.5910
 0.7940	47.6040
 0.7950	47.5930
 0.7960	47.5920
 0.7970	47.6120
 0.7980	47.6270
 0.7990	47.6280
 0.8000	47.6310
 0.8010	47.6460
 0.8020	47.6530
 0.8030	47.6640
 0.8040	47.6740
 0.8050	47.6770
 0.8060	47.6930
 0.8070	47.7240
 0.8080	47.7540
 0.8090	47.7550
 0.8100	47.7660
 0.8110	47.7870
 0.8120	47.8130
 0.8130	47.8310
 0.8140	47.8450
 0.8150	47.8530
 0.8160	47.8580
 0.8170	47.8760
 0.8180	47.9050
 0.8190	47.9270
 0.8200	47.9320
 0.8210	47.9670
 0.8220	48.0000
 0.8230	48.0180
 0.8240	48.0340
 0.8250	48.0490
 0.8260	48.0580
 0.8270	48.0640
 0.8280	48.0810
 0.8290	48.1070
 0.8300	48.1380
 0.8310	48.1650
 0.8320	48.1670
 0.8330	48.1790
 0.8340	48.2110
 0.8350	48.2510
 0.8360	48.2470
 0.8370	48.2500
 0.8380	48.2740
 0.8390	48.2970
 0.8400	48.3050
 0.8410	48.3280
 0.8420	48.3660
 0.8430	48.3710
 0.8440	48.3930
 0.8450	48.4270
 0.8460	48.4570
 0.8470	48.4730
 0.8480	48.4670
 0.8490	48.4710
 0.8500	48.5070
 0.8510	48.5190
 0.8520	48.5330
 0.8530	48.5510
 0.8540	48.5650
 0.8550	48.5870
 0.8560	48.6020
 0.8570	48.6090
 0.8580	48.6220
 0.8590	48.6380
 0.8600	48.6420
 0.8610	48.6320
 0.8620	48.6300
 0.8630	48.6540
 0.8640	48.6800
 0.8650	48.6870
 0.8660	48.6970
 0.8670	48.7210
 0.8680	48.7410
 0.8690	48.7360
 0.8700	48.7190
 0.8710	48.7200
 0.8720	48.7380
 0.8730	48.7500
 0.8740	48.7520
 0.8750	48.7610
 0.8760	48.7680
 0.8770	48.7460
 0.8780	48.7530
 0.8790	48.7580
 0.8800	48.7440
 0.8810	48.7330
 0.8820	48.7260
 0.8830	48.7330
 0.8840	48.7520
 0.8850	48.7610
 0.8860	48.7730
 0.8870	48.7680
 0.8880	48.7330
 0.8890	48.7200
 0.8900	48.7170
 0.8910	48.7150
 0.8920	48.7090
 0.8930	48.7190
 0.8940	48.7190
 0.8950	48.7040
 0.8960	48.6830
 0.8970	48.6740
 0.8980	48.6830
 0.8990	48.6940
 0.9000	48.6860
 0.9010	48.6630
 0.9020	48.6390
 0.9030	48.6250
 0.9040	48.6300
 0.9050	48.6240
 0.9060	48.6090
 0.9070	48.5960
 0.9080	48.5890
 0.9090	48.5930
 0.9100	48.5960
 0.9110	48.5840
 0.9120	48.5650
 0.9130	48.5520
 0.9140	48.5460
 0.9150	48.5450
 0.9160	48.5500
 0.9170	48.5360
 0.9180	48.5200
 0.9190	48.5230
 0.9200	48.5020
 0.9210	48.4850
 0.9220	48.4730
 0.9230	48.4510
 0.9240	48.4310
 0.9250	48.4310
 0.9260	48.4410
 0.9270	48.4340
 0.9280	48.4170
 0.9290	48.3940
 0.9300	48.3680
 0.9310	48.3390
 0.9320	48.3220
 0.9330	48.3160
 0.9340	48.3090
 0.9350	48.2870
 0.9360	48.2510
 0.9370	48.2330
 0.9380	48.2310
 0.9390	48.2000
 0.9400	48.1900
 0.9410	48.1870
 0.9420	48.1740
 0.9430	48.1470
 0.9440	48.1320
 0.9450	48.1170
 0.9460	48.0890
 0.9470	48.0550
 0.9480	48.0200
 0.9490	47.9840
 0.9500	47.9440
 0.9510	47.9000
 0.9520	47.8480
 0.9530	47.8020
 0.9540	47.7700
 0.9550	47.7180
 0.9560	47.6710
 0.9570	47.6270
 0.9580	47.5770
 0.9590	47.5230
 0.9600	47.4880
 0.9610	47.4610
 0.9620	47.4220
 0.9630	47.3930
 0.9640	47.3530
 0.9650	47.3270
 0.9660	47.3400
 0.9670	47.3520
 0.9680	47.3350
 0.9690	47.3210
 0.9700	47.3460
 0.9710	47.3380
 0.9720	47.3270
 0.9730	47.3220
 0.9740	47.3240
 0.9750	47.3320
 0.9760	47.3350
 0.9770	47.3430
 0.9780	47.3690
 0.9790	47.3880
 0.9800	47.3870
 0.9810	47.3750
 0.9820	47.3730
 0.9830	47.4190
 0.9840	47.4450
 0.9850	47.4590
 0.9860	47.4950
 0.9870	47.5210
 0.9880	47.5460
 0.9890	47.5740
 0.9900	47.6000
 0.9910	47.6010
 0.9920	47.6290
 0.9930	47.6590
 0.9940	47.6510
 0.9950	47.7080
 0.9960	47.7330
 0.9970	47.7410
 0.9980	47.7820
 0.9990	47.8270
 1.0000	47.9080
 1.0010	48.0060
 1.0020	48.0790
 1.0030	48.1130
 1.0040	48.1450
 1.0050	48.1760
 1.0060	48.2050
 1.0070	48.2280
 1.0080	48.2540
 1.0090	48.2790
 1.0100	48.3070
 1.0110	48.3370
 1.0120	48.3650
 1.0130	48.3920
 1.0140	48.4200
 1.0150	48.4520
 1.0160	48.4800
 1.0170	48.5090
 1.0180	48.5350
 1.0190	48.5580
 1.0200	48.5840
 1.0210	48.6060
 1.0220	48.6300
 1.0230	48.6570
 1.0240	48.6840
 1.0250	48.7120
 1.0260	48.7450
 1.0270	48.7710
 1.0280	48.7900
 1.0290	48.8130
 1.0300	48.8330
 1.0310	48.8570
 1.0320	48.8840
 1.0330	48.9130
 1.0340	48.9360
 1.0350	48.9520
 1.0360	48.9720
 1.0370	48.9900
 1.0380	49.0090
 1.0390	49.0300
 1.0400	49.0500
 1.0410	49.0640
 1.0420	49.0820
 1.0430	49.1030
 1.0440	49.1210
 1.0450	49.1380
 1.0460	49.1570
 1.0470	49.1790
 1.0480	49.1970
 1.0490	49.2180
 1.0500	49.2360
 1.0510	49.2500
 1.0520	49.2610
 1.0530	49.2760
 1.0540	49.2920
 1.0550	49.3040
 1.0560	49.3170
 1.0570	49.3270
 1.0580	49.3290
 1.0590	49.3380
 1.0600	49.3490
 1.0610	49.3590
 1.0620	49.3690
 1.0630	49.3790
 1.0640	49.3880
 1.0650	49.3970
 1.0660	49.4070
 1.0670	49.4150
 1.0680	49.4230
 1.0690	49.4290
 1.0700	49.4350
 1.0710	49.4400
 1.0720	49.4430
 1.0730	49.4430
 1.0740	49.4460
 1.0750	49.4480
 1.0760	49.4490
 1.0770	49.4520
 1.0780	49.4530
 1.0790	49.4560
 1.0800	49.4560
 1.0810	49.4530
 1.0820	49.4510
 1.0830	49.4470
 1.0840	49.4430
 1.0850	49.4380
 1.0860	49.4350
 1.0870	49.4300
 1.0880	49.4220
 1.0890	49.4160
 1.0900	49.4100
 1.0910	49.4040
 1.0920	49.3980
 1.0930	49.3940
 1.0940	49.3920
 1.0950	49.3860
 1.0960	49.3790
 1.0970	49.3700
 1.0980	49.3560
 1.0990	49.3450
 1.1000	49.3340
 1.1010	49.3230
 1.1020	49.3130
 1.1030	49.3020
 1.1040	49.2900
 1.1050	49.2760
 1.1060	49.2620
 1.1070	49.2470
 1.1080	49.2320
 1.1090	49.2180
 1.1100	49.2040
 1.1110	49.1930
 1.1120	49.1780
 1.1130	49.1630
 1.1140	49.1460
 1.1150	49.1240
 1.1160	49.1030
 1.1170	49.0860
 1.1180	49.0610
 1.1190	49.0320
 1.1200	49.0020
 1.1210	48.9710
 1.1220	48.9360
 1.1230	48.9010
 1.1240	48.8630
 1.1250	48.8210
 1.1260	48.7750
 1.1270	48.7250
 1.1280	48.6730
 1.1290	48.6130
 1.1300	48.5460
 1.1310	48.4740
 1.1320	48.3980
 1.1330	48.3140
 1.1340	48.2230
 1.1350	48.1300
 1.1360	48.0340
 1.1370	47.9270
 1.1380	47.8160
 1.1390	47.7010
 1.1400	47.5760
 1.1410	47.4500
 1.1420	47.3210
 1.1430	47.1880
 1.1440	47.0560
 1.1450	46.9190
 1.1460	46.7880
 1.1470	46.6560
 1.1480	46.5280
 1.1490	46.4010
 1.1500	46.2820
 1.1510	46.1650
 1.1520	46.0580
 1.1530	45.9580
 1.1540	45.8650
 1.1550	45.7780
 1.1560	45.6990
 1.1570	45.6290
 1.1580	45.5650
 1.1590	45.5090
 1.1600	45.4630
 1.1610	45.4190
 1.1620	45.3800
 1.1630	45.3500
 1.1640	45.3210
 1.1650	45.2960
 1.1660	45.2770
 1.1670	45.2580
 1.1680	45.2410
 1.1690	45.2290
 1.1700	45.2220
 1.1710	45.2130
 1.1720	45.2090
 1.1730	45.2030
 1.1740	45.1970
 1.1750	45.1880
 1.1760	45.1780
 1.1770	45.1670
 1.1780	45.1550
 1.1790	45.1440
 1.1800	45.1330
 1.1810	45.1210
 1.1820	45.1060
 1.1830	45.0890
 1.1840	45.0730
 1.1850	45.0590
 1.1860	45.0450
 1.1870	45.0330
 1.1880	45.0220
 1.1890	45.0100
 1.1900	45.0000
 1.1910	44.9920
 1.1920	44.9860
 1.1930	44.9820
 1.1940	44.9780
 1.1950	44.9770
 1.1960	44.9770
 1.1970	44.9750
 1.1980	44.9750
 1.1990	44.9760
 1.2000	44.9770
 1.2010	44.9820
 1.2020	44.9910
 1.2030	45.0020
 1.2040	45.0140
 1.2050	45.0270
 1.2060	45.0440
 1.2070	45.0600
 1.2080	45.0770
 1.2090	45.0970
 1.2100	45.1180
 1.2110	45.1450
 1.2120	45.1780
 1.2130	45.2110
 1.2140	45.2500
 1.2150	45.2870
 1.2160	45.3240
 1.2170	45.3620
 1.2180	45.4040
 1.2190	45.4470
 1.2200	45.4950
 1.2210	45.5450
 1.2220	45.5940
 1.2230	45.6460
 1.2240	45.6970
 1.2250	45.7480
 1.2260	45.8000
 1.2270	45.8510
 1.2280	45.9010
 1.2290	45.9460
 1.2300	45.9900
 1.2310	46.0340
 1.2320	46.0770
 1.2330	46.1200
 1.2340	46.1620
 1.2350	46.2070
 1.2360	46.2470
 1.2370	46.2850
 1.2380	46.3230
 1.2390	46.3570
 1.2400	46.3890
 1.2410	46.4190
 1.2420	46.4490
 1.2430	46.4790
 1.2440	46.5060
 1.2450	46.5340
 1.2460	46.5620
 1.2470	46.5880
 1.2480	46.6150
 1.2490	46.6420
 1.2500	46.6660
 1.2510	46.6900
 1.2520	46.7130
 1.2530	46.7330
 1.2540	46.7520
 1.2550	46.7730
 1.2560	46.7920
 1.2570	46.8110
 1.2580	46.8290
 1.2590	46.8470
 1.2600	46.8680
 1.2610	46.8830
 1.2620	46.8950
 1.2630	46.9070
 1.2640	46.9140
 1.2650	46.9220
 1.2660	46.9310
 1.2670	46.9370
 1.2680	46.9420
 1.2690	46.9470
 1.2700	46.9520
 1.2710	46.9590
 1.2720	46.9660
 1.2730	46.9680
 1.2740	46.9690
 1.2750	46.9700
 1.2760	46.9730
 1.2770	46.9750
 1.2780	46.9740
 1.2790	46.9710
 1.2800	46.9650
 1.2810	46.9590
 1.2820	46.9520
 1.2830	46.9450
 1.2840	46.9390
 1.2850	46.9310
 1.2860	46.9220
 1.2870	46.9110
 1.2880	46.8990
 1.2890	46.8810
 1.2900	46.8600
 1.2910	46.8380
 1.2920	46.8160
 1.2930	46.7920
 1.2940	46.7680
 1.2950	46.7430
 1.2960	46.7140
 1.2970	46.6800
 1.2980	46.6420
 1.2990	46.6030
 1.3000	46.5600
 1.3010	46.5170
 1.3020	46.4740
 1.3030	46.4230
 1.3040	46.3710
 1.3050	46.3190
 1.3060	46.2640
 1.3070	46.2090
 1.3080	46.1460
 1.3090	46.0780
 1.3100	46.0080
 1.3110	45.9350
 1.3120	45.8590
 1.3130	45.7810
 1.3140	45.6970
 1.3150	45.6050
 1.3160	45.5130
 1.3170	45.4170
 1.3180	45.3160
 1.3190	45.2140
 1.3200	45.1090
 1.3210	44.9980
 1.3220	44.8840
 1.3230	44.7670
 1.3240	44.6470
 1.3250	44.5270
 1.3260	44.4040
 1.3270	44.2770
 1.3280	44.1490
 1.3290	44.0160
 1.3300	43.8840
 1.3310	43.7500
 1.3320	43.6120
 1.3330	43.4700
 1.3340	43.3240
 1.3350	43.1740
 1.3360	43.0240
 1.3370	42.8730
 1.3380	42.7220
 1.3390	42.5730
 1.3400	42.4240
 1.3410	42.2750
 1.3420	42.1260
 1.3430	41.9770
 1.3440	41.8270
 1.3450	41.6810
 1.3460	41.5370
 1.3470	41.3950
 1.3480	41.2540
 1.3490	41.1150
 1.3500	40.9790
 1.3510	40.8430
 1.3520	40.7090
 1.3530	40.5760
 1.3540	40.4410
 1.3550	40.3030
 1.3560	40.1640
 1.3570	40.0230
 1.3580	39.8830
 1.3590	39.7400
 1.3600	39.5940
 1.3610	39.4420
 1.3620	39.2840
 1.3630	39.1240
 1.3640	38.9590
 1.3650	38.7860
 1.3660	38.6070
 1.3670	38.4170
 1.3680	38.2150
 1.3690	38.0040
 1.3700	37.7790
 1.3710	37.5430
 1.3720	37.2970
 1.3730	37.0320
 1.3740	36.7560
 1.3750	36.4640
 1.3760	36.1480
 1.3770	35.8140
 1.3780	35.4530
 1.3790	35.0700
 1.3800	34.6630
 1.3810	34.2290
 1.3820	33.7760
 1.3830	33.3020
 1.3840	32.8060
 1.3850	32.2880
 1.3860	31.7550
 1.3870	31.1980
 1.3880	30.6370
 1.3890	30.0630
 1.3900	29.4810
 1.3910	28.8990
 1.3920	28.3130
 1.3930	27.7230
 1.3940	27.1350
 1.3950	26.5430
 1.3960	25.9580
 1.3970	25.3840
 1.3980	24.8190
 1.3990	24.2760
 1.4000	23.7470
 1.4010	23.2320
 1.4020	22.7400
 1.4030	22.2630
 1.4040	21.8070
 1.4050	21.3750
 1.4060	20.9620
 1.4070	20.5770
 1.4080	20.2130
 1.4090	19.8700
 1.4100	19.5500
 1.4110	19.2510
 1.4120	18.9730
 1.4130	18.7160
 1.4140	18.4780
 1.4150	18.2620
 1.4160	18.0640
 1.4170	17.8840
 1.4180	17.7210
 1.4190	17.5720
 1.4200	17.4350
 1.4210	17.3100
 1.4220	17.1980
 1.4230	17.0980
 1.4240	17.0100
 1.4250	16.9300
 1.4260	16.8620
 1.4270	16.7990
 1.4280	16.7460
 1.4290	16.7000
 1.4300	16.6630
 1.4310	16.6300
 1.4320	16.6060
 1.4330	16.5850
 1.4340	16.5680
 1.4350	16.5570
 1.4360	16.5500
 1.4370	16.5480
 1.4380	16.5500
 1.4390	16.5540
 1.4400	16.5620
 1.4410	16.5720
 1.4420	16.5840
 1.4430	16.5990
 1.4440	16.6160
 1.4450	16.6350
 1.4460	16.6550
 1.4470	16.6780
 1.4480	16.7010
 1.4490	16.7250
 1.4500	16.7510
 1.4510	16.7780
 1.4520	16.8070
 1.4530	16.8380
 1.4540	16.8680
 1.4550	16.8990
 1.4560	16.9300
 1.4570	16.9630
 1.4580	17.0000
 1.4590	17.0400
 1.4600	17.0850
 1.4610	17.1330
 1.4620	17.1830
 1.4630	17.2390
 1.4640	17.2990
 1.4650	17.3630
 1.4660	17.4340
 1.4670	17.5080
 1.4680	17.5880
 1.4690	17.6720
 1.4700	17.7600
 1.4710	17.8530
 1.4720	17.9500
 1.4730	18.0480
 1.4740	18.1520
 1.4750	18.2560
 1.4760	18.3660
 1.4770	18.4790
 1.4780	18.5930
 1.4790	18.7100
 1.4800	18.8270
 1.4810	18.9440
 1.4820	19.0650
 1.4830	19.1860
 1.4840	19.3110
 1.4850	19.4350
 1.4860	19.5590
 1.4870	19.6850
 1.4880	19.8090
 1.4890	19.9350
 1.4900	20.0610
 1.4910	20.1880
 1.4920	20.3160
 1.4930	20.4440
 1.4940	20.5730
 1.4950	20.7020
 1.4960	20.8320
 1.4970	20.9610
 1.4980	21.0910
 1.4990	21.2230
 1.5000	21.3530
 1.5010	21.4830
 1.5020	21.6120
 1.5030	21.7420
 1.5040	21.8710
 1.5050	21.9990
 1.5060	22.1270
 1.5070	22.2550
 1.5080	22.3810
 1.5090	22.5070
 1.5100	22.6320
 1.5110	22.7550
 1.5120	22.8800
 1.5130	23.0030
 1.5140	23.1250
 1.5150	23.2470
 1.5160	23.3670
 1.5170	23.4870
 1.5180	23.6060
 1.5190	23.7230
 1.5200	23.8410
 1.5210	23.9550
 1.5220	24.0680
 1.5230	24.1840
 1.5240	24.2940
 1.5250	24.4040
 1.5260	24.5140
 1.5270	24.6220
 1.5280	24.7300
 1.5290	24.8360
 1.5300	24.9400
 1.5310	25.0450
 1.5320	25.1480
 1.5330	25.2540
 1.5340	25.3580
 1.5350	25.4600
 1.5360	25.5610
 1.5370	25.6590
 1.5380	25.7570
 1.5390	25.8550
 1.5400	25.9510
 1.5410	26.0480
 1.5420	26.1430
 1.5430	26.2360
 1.5440	26.3300
 1.5450	26.4200
 1.5460	26.5090
 1.5470	26.5970
 1.5480	26.6830
 1.5490	26.7730
 1.5500	26.8620
 1.5510	26.9490
 1.5520	27.0360
 1.5530	27.1200
 1.5540	27.2030
 1.5550	27.2890
 1.5560	27.3740
 1.5570	27.4580
 1.5580	27.5430
 1.5590	27.6250
 1.5600	27.7060
 1.5610	27.7830
 1.5620	27.8600
 1.5630	27.9360
 1.5640	28.0140
 1.5650	28.0940
 1.5660	28.1720
 1.5670	28.2490
 1.5680	28.3260
 1.5690	28.4010
 1.5700	28.4770
 1.5710	28.5520
 1.5720	28.6250
 1.5730	28.7000
 1.5740	28.7720
 1.5750	28.8430
 1.5760	28.9140
 1.5770	28.9820
 1.5780	29.0520
 1.5790	29.1220
 1.5800	29.1920
 1.5810	29.2640
 1.5820	29.3330
 1.5830	29.4020
 1.5840	29.4740
 1.5850	29.5430
 1.5860	29.6110
 1.5870	29.6800
 1.5880	29.7460
 1.5890	29.8140
 1.5900	29.8830
 1.5910	29.9510
 1.5920	30.0200
 1.5930	30.0870
 1.5940	30.1550
 1.5950	30.2220
 1.5960	30.2870
 1.5970	30.3560
 1.5980	30.4250
 1.5990	30.4930
 1.6000	30.5630
 1.6010	30.6300
 1.6020	30.6960
 1.6030	30.7640
 1.6040	30.8290
 1.6050	30.8930
 1.6060	30.9570
 1.6070	31.0200
 1.6080	31.0830
 1.6090	31.1430
 1.6100	31.2010
 1.6110	31.2590
 1.6120	31.3150
 1.6130	31.3730
 1.6140	31.4300
 1.6150	31.4840
 1.6160	31.5380
 1.6170	31.5900
 1.6180	31.6400
 1.6190	31.6900
 1.6200	31.7400
 1.6210	31.7880
 1.6220	31.8330
 1.6230	31.8780
 1.6240	31.9200
 1.6250	31.9610
 1.6260	32.0020
 1.6270	32.0450
 1.6280	32.0860
 1.6290	32.1270
 1.6300	32.1700
 1.6310	32.2090
 1.6320	32.2470
 1.6330	32.2810
 1.6340	32.3130
 1.6350	32.3430
 1.6360	32.3700
 1.6370	32.3960
 1.6380	32.4200
 1.6390	32.4430
 1.6400	32.4640
 1.6410	32.4850
 1.6420	32.5060
 1.6430	32.5200
 1.6440	32.5290
 1.6450	32.5350
 1.6460	32.5360
 1.6470	32.5390
 1.6480	32.5410
 1.6490	32.5350
 1.6500	32.5250
 1.6510	32.5120
 1.6520	32.4950
 1.6530	32.4810
 1.6540	32.4660
 1.6550	32.4510
 1.6560	32.4340
 1.6570	32.4170
 1.6580	32.3990
 1.6590	32.3830
 1.6600	32.3680
 1.6610	32.3510
 1.6620	32.3370
 1.6630	32.3240
 1.6640	32.3100
 1.6650	32.2990
 1.6660	32.2880
 1.6670	32.2710
 1.6680	32.2540
 1.6690	32.2360
 1.6700	32.2180
 1.6710	32.2030
 1.6720	32.1870
 1.6730	32.1680
 1.6740	32.1450
 1.6750	32.1150
 1.6760	32.0820
 1.6770	32.0480
 1.6780	32.0110
 1.6790	31.9730
 1.6800	31.9330
 1.6810	31.8870
 1.6820	31.8380
 1.6830	31.7860
 1.6840	31.7310
 1.6850	31.6760
 1.6860	31.6190
 1.6870	31.5610
 1.6880	31.5010
 1.6890	31.4370
 1.6900	31.3730
 1.6910	31.3090
 1.6920	31.2450
 1.6930	31.1810
 1.6940	31.1160
 1.6950	31.0500
 1.6960	30.9850
 1.6970	30.9190
 1.6980	30.8530
 1.6990	30.7870
 1.7000	30.7190
 1.7010	30.6480
 1.7020	30.5780
 1.7030	30.5090
 1.7040	30.4380
 1.7050	30.3670
 1.7060	30.2940
 1.7070	30.2180
 1.7080	30.1420
 1.7090	30.0650
 1.7100	29.9900
 1.7110	29.9150
 1.7120	29.8400
 1.7130	29.7650
 1.7140	29.6900
 1.7150	29.6150
 1.7160	29.5420
 1.7170	29.4720
 1.7180	29.4050
 1.7190	29.3380
 1.7200	29.2730
 1.7210	29.2110
 1.7220	29.1490
 1.7230	29.0880
 1.7240	29.0300
 1.7250	28.9770
 1.7260	28.9290
 1.7270	28.8860
 1.7280	28.8520
 1.7290	28.8220
 1.7300	28.8030
 1.7310	28.7880
 1.7320	28.7800
 1.7330	28.7730
 1.7340	28.7710
 1.7350	28.7680
 1.7360	28.7700
 1.7370	28.7660
 1.7380	28.7630
 1.7390	28.7530
 1.7400	28.7390
 1.7410	28.7200
 1.7420	28.6970
 1.7430	28.6670
 1.7440	28.6290
 1.7450	28.5880
 1.7460	28.5390
 1.7470	28.4910
 1.7480	28.4420
 1.7490	28.3880
 1.7500	28.3290
 1.7510	28.2700
 1.7520	28.2080
 1.7530	28.1460
 1.7540	28.0850
 1.7550	28.0230
 1.7560	27.9610
 1.7570	27.8990
 1.7580	27.8420
 1.7590	27.7850
 1.7600	27.7290
 1.7610	27.6730
 1.7620	27.6220
 1.7630	27.5730
 1.7640	27.5290
 1.7650	27.4920
 1.7660	27.4570
 1.7670	27.4240
 1.7680	27.3940
 1.7690	27.3670
 1.7700	27.3420
 1.7710	27.3180
 1.7720	27.2970
 1.7730	27.2760
 1.7740	27.2570
 1.7750	27.2410
 1.7760	27.2220
 1.7770	27.2010
 1.7780	27.1800
 1.7790	27.1570
 1.7800	27.1380
 1.7810	27.1210
 1.7820	27.1050
 1.7830	27.0880
 1.7840	27.0760
 1.7850	27.0650
 1.7860	27.0560
 1.7870	27.0530
 1.7880	27.0460
 1.7890	27.0410
 1.7900	27.0320
 1.7910	27.0270
 1.7920	27.0240
 1.7930	27.0220
 1.7940	27.0230
 1.7950	27.0240
 1.7960	27.0230
 1.7970	27.0250
 1.7980	27.0300
 1.7990	27.0370
 1.8000	27.0480
 1.8010	27.0580
 1.8020	27.0700
 1.8030	27.0810
 1.8040	27.0920
 1.8050	27.1020
 1.8060	27.1130
 1.8070	27.1230
 1.8080	27.1320
 1.8090	27.1400
 1.8100	27.1450
 1.8110	27.1520
 1.8120	27.1600
 1.8130	27.1640
 1.8140	27.1720
 1.8150	27.1800
 1.8160	27.1870
 1.8170	27.1980
 1.8180	27.2060
 1.8190	27.2120
 1.8200	27.2140
 1.8210	27.2110
 1.8220	27.2100
 1.8230	27.2080
 1.8240	27.2090
 1.8250	27.2160
 1.8260	27.2150
 1.8270	27.2130
 1.8280	27.2090
 1.8290	27.1990
 1.8300	27.3870
 1.8310	27.7810
 1.8320	27.9600
 1.8330	27.9410
 1.8340	27.9170
 1.8350	27.8890
 1.8360	27.8580
 1.8370	27.8220
 1.8380	27.7820
 1.8390	27.7380
 1.8400	27.6960
 1.8410	27.6400
 1.8420	27.5770
 1.8430	27.5070
 1.8440	27.4310
 1.8450	27.3430
 1.8460	27.2480
 1.8470	27.1450
 1.8480	27.0290
 1.8490	26.8990
 1.8500	26.7620
 1.8510	26.6180
 1.8520	26.4630
 1.8530	26.2910
 1.8540	26.1130
 1.8550	25.9200
 1.8560	25.7090
 1.8570	25.4890
 1.8580	25.2530
 1.8590	25.0050
 1.8600	24.7410
 1.8610	24.4650
 1.8620	24.1710
 1.8630	23.8650
 1.8640	23.5400
 1.8650	23.1980
 1.8660	22.8430
 1.8670	22.4630
 1.8680	22.0660
 1.8690	21.6510
 1.8700	21.2180
 1.8710	20.7640
 1.8720	20.3030
 1.8730	19.8300
 1.8740	19.3430
 1.8750	18.8530
 1.8760	18.3530
 1.8770	17.8510
 1.8780	17.3550
 1.8790	16.8540
 1.8800	16.3600
 1.8810	15.8690
 1.8820	15.3840
 1.8830	14.9020
 1.8840	14.4340
 1.8850	13.9770
 1.8860	13.5300
 1.8870	13.0990
 1.8880	12.6840
 1.8890	12.2910
 1.8900	11.9180
 1.8910	11.5670
 1.8920	11.2350
 1.8930	10.9260
 1.8940	10.6350
 1.8950	10.3670
 1.8960	10.1220
 1.8970	 9.8960
 1.8980	 9.6940
 1.8990	 9.5100
 1.9000	 9.3410
 1.9010	 9.1940
 1.9020	 9.0580
 1.9030	 8.9400
 1.9040	 8.8340
 1.9050	 8.7420
 1.9060	 8.6590
 1.9070	 8.5840
 1.9080	 8.5190
 1.9090	 8.4620
 1.9100	 8.4120
 1.9110	 8.3690
 1.9120	 8.3370
 1.9130	 8.3060
 1.9140	 8.2810
 1.9150	 8.2630
 1.9160	 8.2450
 1.9170	 8.2310
 1.9180	 8.2190
 1.9190	 8.2070
 1.9200	 8.1960
 1.9210	 8.1870
 1.9220	 8.1810
 1.9230	 8.1780
 1.9240	 8.1770
 1.9250	 8.1800
 1.9260	 8.1830
 1.9270	 8.1890
 1.9280	 8.1910
 1.9290	 8.1960
 1.9300	 8.2030
 1.9310	 8.2130
 1.9320	 8.2280
 1.9330	 8.2410
 1.9340	 8.2560
 1.9350	 8.2720
 1.9360	 8.2880
 1.9370	 8.3060
 1.9380	 8.3260
 1.9390	 8.3470
 1.9400	 8.3690
 1.9410	 8.3930
 1.9420	 8.4170
 1.9430	 8.4410
 1.9440	 8.4680
 1.9450	 8.4950
 1.9460	 8.5230
 1.9470	 8.5530
 1.9480	 8.5830
 1.9490	 8.6130
 1.9500	 8.6430
 1.9510	 8.6750
 1.9520	 8.7080
 1.9530	 8.7420
 1.9540	 8.7780
 1.9550	 8.8150
 1.9560	 8.8510
 1.9570	 8.8890
 1.9580	 8.9290
 1.9590	 8.9700
 1.9600	 9.0120
 1.9610	 9.0540
 1.9620	 9.0970
 1.9630	 9.1360
 1.9640	 9.1800
 1.9650	 9.2240
 1.9660	 9.2680
 1.9670	 9.3160
 1.9680	 9.3620
 1.9690	 9.4050
 1.9700	 9.4520
 1.9710	 9.4990
 1.9720	 9.5500
 1.9730	 9.6030
 1.9740	 9.6580
 1.9750	 9.7130
 1.9760	 9.7690
 1.9770	 9.8230
 1.9780	 9.8750
 1.9790	 9.9300
 1.9800	 9.9860
 1.9810	10.0430
 1.9820	10.1030
 1.9830	10.1620
 1.9840	10.2220
 1.9850	10.2820
 1.9860	10.3420
 1.9870	10.4030
 1.9880	10.4630
 1.9890	10.5230
 1.9900	10.5820
 1.9910	10.6450
 1.9920	10.7070
 1.9930	10.7700
 1.9940	10.8320
 1.9950	10.8940
 1.9960	10.9570
 1.9970	11.0190
 1.9980	11.0830
 1.9990	11.1500
 2.0000	11.2170
 2.0010	11.2830
 2.0020	11.3490
 2.0030	11.4110
 2.0040	11.4700
 2.0050	11.5300
 2.0060	11.5890
 2.0070	11.6480
 2.0080	11.7080
 2.0090	11.7680
 2.0100	11.8290
 2.0110	11.8880
 2.0120	11.9470
 2.0130	12.0080
 2.0140	12.0670
 2.0150	12.1260
 2.0160	12.1850
 2.0170	12.2390
 2.0180	12.2920
 2.0190	12.3430
 2.0200	12.3940
 2.0210	12.4440
 2.0220	12.4940
 2.0230	12.5420
 2.0240	12.5900
 2.0250	12.6380
 2.0260	12.6860
 2.0270	12.7350
 2.0280	12.7830
 2.0290	12.8280
 2.0300	12.8730
 2.0310	12.9160
 2.0320	12.9560
 2.0330	12.9960
 2.0340	13.0360
 2.0350	13.0750
 2.0360	13.1150
 2.0370	13.1520
 2.0380	13.1890
 2.0390	13.2220
 2.0400	13.2510
 2.0410	13.2810
 2.0420	13.3090
 2.0430	13.3380
 2.0440	13.3640
 2.0450	13.3900
 2.0460	13.4170
 2.0470	13.4430
 2.0480	13.4700
 2.0490	13.5010
 2.0500	13.5290
 2.0510	13.5550
 2.0520	13.5820
 2.0530	13.6070
 2.0540	13.6330
 2.0550	13.6570
 2.0560	13.6820
 2.0570	13.7090
 2.0580	13.7370
 2.0590	13.7640
 2.0600	13.7940
 2.0610	13.8190
 2.0620	13.8390
 2.0630	13.8630
 2.0640	13.8850
 2.0650	13.9100
 2.0660	13.9420
 2.0670	13.9670
 2.0680	13.9880
 2.0690	14.0120
 2.0700	14.0330
 2.0710	14.0560
 2.0720	14.0840
 2.0730	14.1130
 2.0740	14.1400
 2.0750	14.1680
 2.0760	14.1940
 2.0770	14.2180
 2.0780	14.2430
 2.0790	14.2690
 2.0800	14.2940
 2.0810	14.3200
 2.0820	14.3470
 2.0830	14.3750
 2.0840	14.4020
 2.0850	14.4300
 2.0860	14.4570
 2.0870	14.4820
 2.0880	14.5080
 2.0890	14.5350
 2.0900	14.5600
 2.0910	14.5870
 2.0920	14.6140
 2.0930	14.6410
 2.0940	14.6670
 2.0950	14.6930
 2.0960	14.7210
 2.0970	14.7450
 2.0980	14.7660
 2.0990	14.7890
 2.1000	14.8090
 2.1010	14.8340
 2.1020	14.8680
 2.1030	14.8970
 2.1040	14.9280
 2.1050	14.9550
 2.1060	14.9820
 2.1070	15.0050
 2.1080	15.0310
 2.1090	15.0560
 2.1100	15.0820
 2.1110	15.1090
 2.1120	15.1350
 2.1130	15.1610
 2.1140	15.1880
 2.1150	15.2170
 2.1160	15.2450
 2.1170	15.2750
 2.1180	15.3010
 2.1190	15.3240
 2.1200	15.3480
 2.1210	15.3690
 2.1220	15.3930
 2.1230	15.4170
 2.1240	15.4400
 2.1250	15.4650
 2.1260	15.4920
 2.1270	15.5180
 2.1280	15.5440
 2.1290	15.5700
 2.1300	15.5980
 2.1310	15.6220
 2.1320	15.6440
 2.1330	15.6660
 2.1340	15.6840
 2.1350	15.7040
 2.1360	15.7250
 2.1370	15.7480
 2.1380	15.7740
 2.1390	15.8000
 2.1400	15.8290
 2.1410	15.8600
 2.1420	15.8850
 2.1430	15.9070
 2.1440	15.9310
 2.1450	15.9530
 2.1460	15.9770
 2.1470	16.0030
 2.1480	16.0280
 2.1490	16.0510
 2.1500	16.0780
 2.1510	16.1080
 2.1520	16.1350
 2.1530	16.1630
 2.1540	16.1870
 2.1550	16.2070
 2.1560	16.2300
 2.1570	16.2560
 2.1580	16.2790
 2.1590	16.3010
 2.1600	16.3250
 2.1610	16.3460
 2.1620	16.3650
 2.1630	16.3860
 2.1640	16.4080
 2.1650	16.4290
 2.1660	16.4480
 2.1670	16.4680
 2.1680	16.4910
 2.1690	16.5100
 2.1700	16.5260
 2.1710	16.5460
 2.1720	16.5630
 2.1730	16.5850
 2.1740	16.6140
 2.1750	16.6360
 2.1760	16.6550
 2.1770	16.6760
 2.1780	16.6940
 2.1790	16.7140
 2.1800	16.7370
 2.1810	16.7590
 2.1820	16.7820
 2.1830	16.8050
 2.1840	16.8260
 2.1850	16.8470
 2.1860	16.8670
 2.1870	16.8850
 2.1880	16.9060
 2.1890	16.9280
 2.1900	16.9490
 2.1910	16.9680
 2.1920	16.9890
 2.1930	17.0100
 2.1940	17.0310
 2.1950	17.0520
 2.1960	17.0740
 2.1970	17.0960
 2.1980	17.1160
 2.1990	17.1370
 2.2000	17.1560
 2.2010	17.1690
 2.2020	17.1850
 2.2030	17.2020
 2.2040	17.2180
 2.2050	17.2340
 2.2060	17.2480
 2.2070	17.2590
 2.2080	17.2640
 2.2090	17.2750
 2.2100	17.2870
 2.2110	17.2990
 2.2120	17.3160
 2.2130	17.3250
 2.2140	17.3290
 2.2150	17.3320
 2.2160	17.3340
 2.2170	17.3320
 2.2180	17.3270
 2.2190	17.3200
 2.2200	17.3120
 2.2210	17.3000
 2.2220	17.2880
 2.2230	17.2710
 2.2240	17.2510
 2.2250	17.2280
 2.2260	17.2010
 2.2270	17.1710
 2.2280	17.1370
 2.2290	17.1020
 2.2300	17.0670
 2.2310	17.0300
 2.2320	16.9880
 2.2330	16.9410
 2.2340	16.8900
 2.2350	16.8340
 2.2360	16.7740
 2.2370	16.7100
 2.2380	16.6430
 2.2390	16.5690
 2.2400	16.4980
 2.2410	16.4260
 2.2420	16.3530
 2.2430	16.2790
 2.2440	16.2070
 2.2450	16.1330
 2.2460	16.0600
 2.2470	15.9890
 2.2480	15.9170
 2.2490	15.8420
 2.2500	15.7710
 2.2510	15.7050
 2.2520	15.6330
 2.2530	15.5610
 2.2540	15.4870
 2.2550	15.4020
 2.2560	15.3270
 2.2570	15.2540
 2.2580	15.1830
 2.2590	15.1180
 2.2600	15.0530
 2.2610	14.9880
 2.2620	14.9240
 2.2630	14.8590
 2.2640	14.7930
 2.2650	14.7370
 2.2660	14.6830
 2.2670	14.6290
 2.2680	14.5830
 2.2690	14.5330
 2.2700	14.4760
 2.2710	14.4320
 2.2720	14.3950
 2.2730	14.3570
 2.2740	14.3260
 2.2750	14.2910
 2.2760	14.2570
 2.2770	14.2220
 2.2780	14.1880
 2.2790	14.1530
 2.2800	14.1170
 2.2810	14.0800
 2.2820	14.0420
 2.2830	14.0070
 2.2840	13.9750
 2.2850	13.9390
 2.2860	13.9030
 2.2870	13.8660
 2.2880	13.8260
 2.2890	13.7870
 2.2900	13.7490
 2.2910	13.7070
 2.2920	13.6620
 2.2930	13.6160
 2.2940	13.5660
 2.2950	13.5170
 2.2960	13.4690
 2.2970	13.4200
 2.2980	13.3720
 2.2990	13.3210
 2.3000	13.2690
 2.3010	13.2150
 2.3020	13.1560
 2.3030	13.0990
 2.3040	13.0440
 2.3050	12.9890
 2.3060	12.9410
 2.3070	12.9010
 2.3080	12.8660
 2.3090	12.8350
 2.3100	12.8100
 2.3110	12.7850
 2.3120	12.7670
 2.3130	12.7520
 2.3140	12.7450
 2.3150	12.7460
 2.3160	12.7510
 2.3170	12.7680
 2.3180	12.7760
 2.3190	12.7840
 2.3200	12.7930
 2.3210	12.8010
 2.3220	12.8040
 2.3230	12.8120
 2.3240	12.8070
 2.3250	12.7870
 2.3260	12.7730
 2.3270	12.7560
 2.3280	12.7390
 2.3290	12.7280
 2.3300	12.7060
 2.3310	12.6750
 2.3320	12.6460
 2.3330	12.6080
 2.3340	12.5760
 2.3350	12.5480
 2.3360	12.5180
 2.3370	12.4900
 2.3380	12.4610
 2.3390	12.4320
 2.3400	12.4010
 2.3410	12.3700
 2.3420	12.3360
 2.3430	12.2950
 2.3440	12.2620
 2.3450	12.2330
 2.3460	12.2070
 2.3470	12.1880
 2.3480	12.1680
 2.3490	12.1520
 2.3500	12.1320
 2.3510	12.1140
 2.3520	12.0910
 2.3530	12.0600
 2.3540	12.0350
 2.3550	12.0100
 2.3560	11.9950
 2.3570	11.9940
 2.3580	11.9890
 2.3590	11.9880
 2.3600	11.9830
 2.3610	11.9620
 2.3620	11.9450
 2.3630	11.9260
 2.3640	11.9100
 2.3650	11.9050
 2.3660	11.8930
 2.3670	11.8730
 2.3680	11.8470
 2.3690	11.8240
 2.3700	11.8020
 2.3710	11.7750
 2.3720	11.7550
 2.3730	11.7200
 2.3740	11.6810
 2.3750	11.6610
 2.3760	11.6350
 2.3770	11.6140
 2.3780	11.5950
 2.3790	11.5540
 2.3800	11.5070
 2.3810	11.4730
 2.3820	11.4380
 2.3830	11.4070
 2.3840	11.3930
 2.3850	11.3700
 2.3860	11.3490
 2.3870	11.3360
 2.3880	11.3140
 2.3890	11.2850
 2.3900	11.2500
 2.3910	11.2120
 2.3920	11.1790
 2.3930	11.1540
 2.3940	11.1370
 2.3950	11.1150
 2.3960	11.0930
 2.3970	11.0680
 2.3980	11.0360
 2.3990	11.0110
 2.4000	10.9940
 2.4010	10.9640
 2.4020	10.9310
 2.4030	10.8970
 2.4040	10.8540
 2.4050	10.8250
 2.4060	10.8020
 2.4070	10.7840
 2.4080	10.7720
 2.4090	10.7520
 2.4100	10.7210
 2.4110	10.6830
 2.4120	10.6490
 2.4130	10.6110
 2.4140	10.5750
 2.4150	10.5400
 2.4160	10.4950
 2.4170	10.4540
 2.4180	10.4290
 2.4190	10.4050
 2.4200	10.3770
 2.4210	10.3480
 2.4220	10.3110
 2.4230	10.2660
 2.4240	10.2310
 2.4250	10.2130
 2.4260	10.2020
 2.4270	10.1910
 2.4280	10.1650
 2.4290	10.1240
 2.4300	10.0740
 2.4310	10.0300
 2.4320	10.0050
 2.4330	 9.9710
 2.4340	 9.9480
 2.4350	 9.9160
 2.4360	 9.8600
 2.4370	 9.8320
 2.4380	 9.8070
 2.4390	 9.7850
 2.4400	 9.7780
 2.4410	 9.7460
 2.4420	 9.7020
 2.4430	 9.6490
 2.4440	 9.5940
 2.4450	 9.5360
 2.4460	 9.4890
 2.4470	 9.4670
 2.4480	 9.4500
 2.4490	 9.4640
 2.4500	 9.4630
 2.4510	 9.4290
 2.4520	 9.4080
 2.4530	 9.3650
 2.4540	 9.3220
 2.4550	 9.2940
 2.4560	 9.2540
 2.4570	 9.2210
 2.4580	 9.2110
 2.4590	 9.2190
 2.4600	 9.2120
 2.4610	 9.1880
 2.4620	 9.1720
 2.4630	 9.1450
 2.4640	 9.1070
 2.4650	 9.0990
 2.4660	 9.0850
 2.4670	 9.0470
 2.4680	 9.0300
 2.4690	 9.0340
 2.4700	 9.0230
 2.4710	 9.0200
 2.4720	 9.0050
 2.4730	 8.9570
 2.4740	 8.9390
 2.4750	 8.9410
 2.4760	 8.9410
 2.4770	 8.9870
 2.4780	 8.9600
 2.4790	 8.8710
 2.4800	 8.8100
 2.4810	 8.7010
 2.4820	 8.7010
 2.4830	 8.7370
 2.4840	 8.7740
 2.4850	 8.8060
 2.4860	 8.8010
 2.4870	 8.7660
 2.4880	 8.7840
 2.4890	 8.7920
 2.4900	 8.7700
 2.4910	 8.7790
 2.4920	 8.7170
 2.4930	 8.6280
 2.4940	 8.6150
 2.4950	 8.5930
 2.4960	 8.6020
 2.4970	 8.6470
 2.4980	 8.6320
 2.4990	 8.6100
 2.5000	 8.6480
