Name: Ceanothus megacarpus 3
Type: vegetation
Class: Shrub
Genus: Ceanothus
Species: megacarpus
Sample No.: VH215
Owner: UCSB
Wavelength Range: VSWIR
Origin: 34.4909; -119.7914; WGS84
Collection Date: 10/13/2013
Description: Samples were collected as part of the HyspIRI Airborne Campaign. 48 individual plants were sampled in three times in 2013 - spring  summer  and fall. The name of the sample includes a 1  2  or 3 which references a different individual of the species. Samples were taken to JPL and processed within 48 hours of collection. The same leaves were processed in the Nicolet and then measured using the ASD.
Measurement: Bidirectional reflectance
First Column: X
Second Column: Y
X Units: Wavelength (micrometers)
Y Units: Reflectance (percentage)
First X Value: 0.35
Last X Value: 2.5
Number of X Values: 2151
Additional Information: vegetation.shrub.ceanothus.megacarpus.vswir.vh215.ucsb.asd.ancillary.txt

 0.3500	 5.6240
 0.3510	 5.6190
 0.3520	 5.4900
 0.3530	 5.3780
 0.3540	 5.3790
 0.3550	 5.2440
 0.3560	 5.1200
 0.3570	 5.1180
 0.3580	 5.2780
 0.3590	 5.3640
 0.3600	 5.3530
 0.3610	 5.2650
 0.3620	 5.1330
 0.3630	 5.0740
 0.3640	 5.1210
 0.3650	 5.2130
 0.3660	 5.0720
 0.3670	 4.9430
 0.3680	 4.9130
 0.3690	 4.9470
 0.3700	 5.0230
 0.3710	 5.0510
 0.3720	 5.0260
 0.3730	 5.1090
 0.3740	 5.1810
 0.3750	 5.1430
 0.3760	 4.9690
 0.3770	 4.9200
 0.3780	 5.0280
 0.3790	 5.1700
 0.3800	 5.1200
 0.3810	 5.0360
 0.3820	 5.0280
 0.3830	 5.0930
 0.3840	 4.9780
 0.3850	 4.8750
 0.3860	 4.8960
 0.3870	 5.0590
 0.3880	 5.0790
 0.3890	 5.0240
 0.3900	 4.9810
 0.3910	 5.0210
 0.3920	 4.9220
 0.3930	 4.8860
 0.3940	 5.0280
 0.3950	 5.0140
 0.3960	 5.0100
 0.3970	 5.0020
 0.3980	 4.9180
 0.3990	 4.8930
 0.4000	 4.9470
 0.4010	 5.0180
 0.4020	 4.9520
 0.4030	 4.9370
 0.4040	 4.9610
 0.4050	 4.9750
 0.4060	 4.9820
 0.4070	 4.9510
 0.4080	 4.9220
 0.4090	 4.9680
 0.4100	 4.9790
 0.4110	 4.9760
 0.4120	 4.9760
 0.4130	 4.9580
 0.4140	 4.9270
 0.4150	 4.9320
 0.4160	 5.0010
 0.4170	 4.9980
 0.4180	 4.9870
 0.4190	 5.0000
 0.4200	 5.0250
 0.4210	 5.0480
 0.4220	 5.0540
 0.4230	 5.0490
 0.4240	 5.0840
 0.4250	 5.1150
 0.4260	 5.1410
 0.4270	 5.1820
 0.4280	 5.2210
 0.4290	 5.2400
 0.4300	 5.2490
 0.4310	 5.2900
 0.4320	 5.3380
 0.4330	 5.3880
 0.4340	 5.4320
 0.4350	 5.4380
 0.4360	 5.4660
 0.4370	 5.5100
 0.4380	 5.5220
 0.4390	 5.5330
 0.4400	 5.5560
 0.4410	 5.5950
 0.4420	 5.6280
 0.4430	 5.6480
 0.4440	 5.6570
 0.4450	 5.6670
 0.4460	 5.7050
 0.4470	 5.7400
 0.4480	 5.7530
 0.4490	 5.7460
 0.4500	 5.7520
 0.4510	 5.7780
 0.4520	 5.8120
 0.4530	 5.8230
 0.4540	 5.8370
 0.4550	 5.8590
 0.4560	 5.8800
 0.4570	 5.8900
 0.4580	 5.8880
 0.4590	 5.8830
 0.4600	 5.8990
 0.4610	 5.9260
 0.4620	 5.9400
 0.4630	 5.9270
 0.4640	 5.9470
 0.4650	 5.9630
 0.4660	 5.9630
 0.4670	 5.9650
 0.4680	 5.9770
 0.4690	 5.9820
 0.4700	 5.9730
 0.4710	 5.9980
 0.4720	 6.0200
 0.4730	 6.0300
 0.4740	 6.0280
 0.4750	 6.0200
 0.4760	 6.0220
 0.4770	 6.0370
 0.4780	 6.0440
 0.4790	 6.0420
 0.4800	 6.0390
 0.4810	 6.0430
 0.4820	 6.0570
 0.4830	 6.0670
 0.4840	 6.0650
 0.4850	 6.0580
 0.4860	 6.0580
 0.4870	 6.0680
 0.4880	 6.0810
 0.4890	 6.0720
 0.4900	 6.0890
 0.4910	 6.1170
 0.4920	 6.1190
 0.4930	 6.1390
 0.4940	 6.1560
 0.4950	 6.1670
 0.4960	 6.2020
 0.4970	 6.2350
 0.4980	 6.2630
 0.4990	 6.2860
 0.5000	 6.3020
 0.5010	 6.3220
 0.5020	 6.3550
 0.5030	 6.4060
 0.5040	 6.4480
 0.5050	 6.4950
 0.5060	 6.5550
 0.5070	 6.6070
 0.5080	 6.6580
 0.5090	 6.7180
 0.5100	 6.7900
 0.5110	 6.8690
 0.5120	 6.9560
 0.5130	 7.0510
 0.5140	 7.1400
 0.5150	 7.2550
 0.5160	 7.3800
 0.5170	 7.4980
 0.5180	 7.6290
 0.5190	 7.7690
 0.5200	 7.9180
 0.5210	 8.0740
 0.5220	 8.2320
 0.5230	 8.4020
 0.5240	 8.5830
 0.5250	 8.7450
 0.5260	 8.9080
 0.5270	 9.0800
 0.5280	 9.2560
 0.5290	 9.4250
 0.5300	 9.5890
 0.5310	 9.7510
 0.5320	 9.8990
 0.5330	10.0440
 0.5340	10.1850
 0.5350	10.3200
 0.5360	10.4530
 0.5370	10.5810
 0.5380	10.7020
 0.5390	10.8160
 0.5400	10.9220
 0.5410	11.0290
 0.5420	11.1370
 0.5430	11.2280
 0.5440	11.3220
 0.5450	11.4160
 0.5460	11.5010
 0.5470	11.5810
 0.5480	11.6540
 0.5490	11.7210
 0.5500	11.7900
 0.5510	11.8390
 0.5520	11.8790
 0.5530	11.9180
 0.5540	11.9430
 0.5550	11.9520
 0.5560	11.9500
 0.5570	11.9390
 0.5580	11.9180
 0.5590	11.8800
 0.5600	11.8280
 0.5610	11.7730
 0.5620	11.7020
 0.5630	11.6200
 0.5640	11.5380
 0.5650	11.4490
 0.5660	11.3550
 0.5670	11.2570
 0.5680	11.1570
 0.5690	11.0610
 0.5700	10.9630
 0.5710	10.8610
 0.5720	10.7500
 0.5730	10.6440
 0.5740	10.5480
 0.5750	10.4630
 0.5760	10.3790
 0.5770	10.3010
 0.5780	10.2300
 0.5790	10.1500
 0.5800	10.0780
 0.5810	10.0140
 0.5820	 9.9520
 0.5830	 9.8910
 0.5840	 9.8300
 0.5850	 9.7730
 0.5860	 9.7250
 0.5870	 9.6800
 0.5880	 9.6330
 0.5890	 9.5860
 0.5900	 9.5470
 0.5910	 9.5210
 0.5920	 9.4980
 0.5930	 9.4680
 0.5940	 9.4370
 0.5950	 9.4120
 0.5960	 9.3920
 0.5970	 9.3660
 0.5980	 9.3490
 0.5990	 9.3300
 0.6000	 9.2950
 0.6010	 9.2600
 0.6020	 9.2280
 0.6030	 9.1960
 0.6040	 9.1620
 0.6050	 9.1220
 0.6060	 9.0800
 0.6070	 9.0390
 0.6080	 8.9880
 0.6090	 8.9340
 0.6100	 8.8800
 0.6110	 8.8290
 0.6120	 8.7760
 0.6130	 8.7240
 0.6140	 8.6750
 0.6150	 8.6240
 0.6160	 8.5720
 0.6170	 8.5240
 0.6180	 8.4830
 0.6190	 8.4460
 0.6200	 8.4100
 0.6210	 8.3770
 0.6220	 8.3550
 0.6230	 8.3360
 0.6240	 8.3180
 0.6250	 8.3010
 0.6260	 8.2870
 0.6270	 8.2790
 0.6280	 8.2740
 0.6290	 8.2710
 0.6300	 8.2630
 0.6310	 8.2560
 0.6320	 8.2490
 0.6330	 8.2380
 0.6340	 8.2160
 0.6350	 8.1840
 0.6360	 8.1450
 0.6370	 8.1030
 0.6380	 8.0480
 0.6390	 7.9800
 0.6400	 7.9040
 0.6410	 7.8270
 0.6420	 7.7520
 0.6430	 7.6750
 0.6440	 7.5910
 0.6450	 7.5160
 0.6460	 7.4470
 0.6470	 7.3770
 0.6480	 7.3130
 0.6490	 7.2640
 0.6500	 7.2250
 0.6510	 7.1830
 0.6520	 7.1560
 0.6530	 7.1320
 0.6540	 7.1020
 0.6550	 7.0740
 0.6560	 7.0410
 0.6570	 7.0070
 0.6580	 6.9740
 0.6590	 6.9310
 0.6600	 6.8850
 0.6610	 6.8390
 0.6620	 6.7910
 0.6630	 6.7420
 0.6640	 6.7000
 0.6650	 6.6640
 0.6660	 6.6200
 0.6670	 6.5870
 0.6680	 6.5640
 0.6690	 6.5410
 0.6700	 6.5190
 0.6710	 6.5060
 0.6720	 6.5000
 0.6730	 6.4920
 0.6740	 6.4860
 0.6750	 6.4860
 0.6760	 6.4920
 0.6770	 6.4970
 0.6780	 6.5090
 0.6790	 6.5290
 0.6800	 6.5500
 0.6810	 6.5790
 0.6820	 6.6140
 0.6830	 6.6610
 0.6840	 6.7250
 0.6850	 6.8110
 0.6860	 6.9180
 0.6870	 7.0450
 0.6880	 7.2100
 0.6890	 7.4140
 0.6900	 7.6650
 0.6910	 7.9720
 0.6920	 8.3330
 0.6930	 8.7600
 0.6940	 9.2630
 0.6950	 9.8380
 0.6960	10.4920
 0.6970	11.2190
 0.6980	12.0090
 0.6990	12.8770
 0.7000	13.8060
 0.7010	14.7830
 0.7020	15.8060
 0.7030	16.8800
 0.7040	17.9800
 0.7050	19.0890
 0.7060	20.2200
 0.7070	21.3590
 0.7080	22.4990
 0.7090	23.6380
 0.7100	24.7810
 0.7110	25.9100
 0.7120	27.0230
 0.7130	28.1250
 0.7140	29.2170
 0.7150	30.2870
 0.7160	31.3290
 0.7170	32.3520
 0.7180	33.3560
 0.7190	34.3320
 0.7200	35.2710
 0.7210	36.1980
 0.7220	37.0950
 0.7230	37.9580
 0.7240	38.8010
 0.7250	39.5960
 0.7260	40.3500
 0.7270	41.0760
 0.7280	41.7790
 0.7290	42.4430
 0.7300	43.0650
 0.7310	43.6450
 0.7320	44.2100
 0.7330	44.7440
 0.7340	45.2450
 0.7350	45.7280
 0.7360	46.1690
 0.7370	46.5780
 0.7380	46.9650
 0.7390	47.3270
 0.7400	47.6870
 0.7410	48.0340
 0.7420	48.3460
 0.7430	48.6240
 0.7440	48.8800
 0.7450	49.1290
 0.7460	49.3830
 0.7470	49.5950
 0.7480	49.7910
 0.7490	49.9890
 0.7500	50.1560
 0.7510	50.3140
 0.7520	50.4650
 0.7530	50.6040
 0.7540	50.7320
 0.7550	50.8390
 0.7560	50.9370
 0.7570	51.0450
 0.7580	51.1340
 0.7590	51.2160
 0.7600	51.2990
 0.7610	51.3660
 0.7620	51.4190
 0.7630	51.4740
 0.7640	51.5400
 0.7650	51.5830
 0.7660	51.6270
 0.7670	51.6720
 0.7680	51.7080
 0.7690	51.7430
 0.7700	51.7770
 0.7710	51.8090
 0.7720	51.8450
 0.7730	51.8700
 0.7740	51.8940
 0.7750	51.9230
 0.7760	51.9360
 0.7770	51.9520
 0.7780	51.9790
 0.7790	52.0160
 0.7800	52.0320
 0.7810	52.0460
 0.7820	52.0660
 0.7830	52.0860
 0.7840	52.0980
 0.7850	52.1130
 0.7860	52.1370
 0.7870	52.1580
 0.7880	52.1760
 0.7890	52.1860
 0.7900	52.1910
 0.7910	52.2100
 0.7920	52.2320
 0.7930	52.2510
 0.7940	52.2620
 0.7950	52.2680
 0.7960	52.2830
 0.7970	52.3050
 0.7980	52.3100
 0.7990	52.3250
 0.8000	52.3510
 0.8010	52.3760
 0.8020	52.3820
 0.8030	52.3900
 0.8040	52.4040
 0.8050	52.4200
 0.8060	52.4420
 0.8070	52.4490
 0.8080	52.4480
 0.8090	52.4700
 0.8100	52.4910
 0.8110	52.5030
 0.8120	52.5050
 0.8130	52.5170
 0.8140	52.5340
 0.8150	52.5470
 0.8160	52.5550
 0.8170	52.5640
 0.8180	52.5920
 0.8190	52.6270
 0.8200	52.6430
 0.8210	52.6360
 0.8220	52.6460
 0.8230	52.6660
 0.8240	52.6550
 0.8250	52.6840
 0.8260	52.7080
 0.8270	52.7050
 0.8280	52.7270
 0.8290	52.7330
 0.8300	52.7360
 0.8310	52.7470
 0.8320	52.7330
 0.8330	52.7440
 0.8340	52.7630
 0.8350	52.7610
 0.8360	52.7710
 0.8370	52.7830
 0.8380	52.7940
 0.8390	52.8090
 0.8400	52.8290
 0.8410	52.8430
 0.8420	52.8450
 0.8430	52.8400
 0.8440	52.8510
 0.8450	52.8740
 0.8460	52.9000
 0.8470	52.9270
 0.8480	52.9310
 0.8490	52.9230
 0.8500	52.9280
 0.8510	52.9690
 0.8520	52.9910
 0.8530	52.9880
 0.8540	52.9820
 0.8550	52.9960
 0.8560	53.0190
 0.8570	53.0350
 0.8580	53.0310
 0.8590	53.0130
 0.8600	53.0230
 0.8610	53.0640
 0.8620	53.0660
 0.8630	53.0490
 0.8640	53.0520
 0.8650	53.0890
 0.8660	53.0970
 0.8670	53.0890
 0.8680	53.0880
 0.8690	53.1130
 0.8700	53.1180
 0.8710	53.1220
 0.8720	53.1280
 0.8730	53.1260
 0.8740	53.1320
 0.8750	53.1320
 0.8760	53.1290
 0.8770	53.1430
 0.8780	53.1800
 0.8790	53.1890
 0.8800	53.1630
 0.8810	53.1680
 0.8820	53.1790
 0.8830	53.1810
 0.8840	53.1720
 0.8850	53.1660
 0.8860	53.1650
 0.8870	53.1660
 0.8880	53.1650
 0.8890	53.1720
 0.8900	53.1830
 0.8910	53.1830
 0.8920	53.1630
 0.8930	53.1470
 0.8940	53.1480
 0.8950	53.1490
 0.8960	53.1240
 0.8970	53.1300
 0.8980	53.1300
 0.8990	53.1170
 0.9000	53.1220
 0.9010	53.1020
 0.9020	53.0800
 0.9030	53.0770
 0.9040	53.0970
 0.9050	53.0870
 0.9060	53.0700
 0.9070	53.0640
 0.9080	53.0510
 0.9090	53.0500
 0.9100	53.0530
 0.9110	53.0480
 0.9120	53.0270
 0.9130	53.0230
 0.9140	53.0220
 0.9150	53.0040
 0.9160	52.9930
 0.9170	52.9870
 0.9180	52.9810
 0.9190	52.9760
 0.9200	52.9680
 0.9210	52.9550
 0.9220	52.9340
 0.9230	52.9090
 0.9240	52.8920
 0.9250	52.8860
 0.9260	52.8850
 0.9270	52.8730
 0.9280	52.8240
 0.9290	52.7910
 0.9300	52.7770
 0.9310	52.7320
 0.9320	52.7030
 0.9330	52.6780
 0.9340	52.6520
 0.9350	52.6370
 0.9360	52.5990
 0.9370	52.5470
 0.9380	52.4960
 0.9390	52.4690
 0.9400	52.4280
 0.9410	52.3900
 0.9420	52.3600
 0.9430	52.3030
 0.9440	52.2550
 0.9450	52.2080
 0.9460	52.1560
 0.9470	52.1100
 0.9480	52.0490
 0.9490	51.9610
 0.9500	51.8530
 0.9510	51.7800
 0.9520	51.6960
 0.9530	51.5930
 0.9540	51.4800
 0.9550	51.3810
 0.9560	51.2870
 0.9570	51.1980
 0.9580	51.1160
 0.9590	51.0330
 0.9600	50.9480
 0.9610	50.8520
 0.9620	50.7490
 0.9630	50.6830
 0.9640	50.6170
 0.9650	50.5580
 0.9660	50.5200
 0.9670	50.4600
 0.9680	50.4250
 0.9690	50.4030
 0.9700	50.3650
 0.9710	50.3360
 0.9720	50.3180
 0.9730	50.2940
 0.9740	50.2540
 0.9750	50.2530
 0.9760	50.2400
 0.9770	50.2230
 0.9780	50.2360
 0.9790	50.2430
 0.9800	50.2350
 0.9810	50.2130
 0.9820	50.1920
 0.9830	50.2350
 0.9840	50.2630
 0.9850	50.2730
 0.9860	50.3020
 0.9870	50.3720
 0.9880	50.4040
 0.9890	50.4070
 0.9900	50.4340
 0.9910	50.4860
 0.9920	50.5360
 0.9930	50.5860
 0.9940	50.6350
 0.9950	50.6850
 0.9960	50.7340
 0.9970	50.7840
 0.9980	50.8340
 0.9990	50.8830
 1.0000	50.9330
 1.0010	50.9820
 1.0020	51.0320
 1.0030	51.0810
 1.0040	51.1310
 1.0050	51.1810
 1.0060	51.2300
 1.0070	51.2800
 1.0080	51.3290
 1.0090	51.3790
 1.0100	51.3790
 1.0110	51.4100
 1.0120	51.4490
 1.0130	51.4960
 1.0140	51.5380
 1.0150	51.5780
 1.0160	51.6150
 1.0170	51.6530
 1.0180	51.6940
 1.0190	51.7520
 1.0200	51.8100
 1.0210	51.8600
 1.0220	51.9130
 1.0230	51.9590
 1.0240	51.9930
 1.0250	52.0360
 1.0260	52.0830
 1.0270	52.1250
 1.0280	52.1750
 1.0290	52.2070
 1.0300	52.2180
 1.0310	52.2460
 1.0320	52.2740
 1.0330	52.2970
 1.0340	52.3370
 1.0350	52.3880
 1.0360	52.4240
 1.0370	52.4520
 1.0380	52.4830
 1.0390	52.5120
 1.0400	52.5370
 1.0410	52.5590
 1.0420	52.5820
 1.0430	52.5990
 1.0440	52.6200
 1.0450	52.6480
 1.0460	52.6680
 1.0470	52.6860
 1.0480	52.7030
 1.0490	52.7140
 1.0500	52.7290
 1.0510	52.7410
 1.0520	52.7630
 1.0530	52.7830
 1.0540	52.8050
 1.0550	52.8270
 1.0560	52.8560
 1.0570	52.8700
 1.0580	52.8740
 1.0590	52.8870
 1.0600	52.8940
 1.0610	52.9060
 1.0620	52.9320
 1.0630	52.9490
 1.0640	52.9590
 1.0650	52.9730
 1.0660	52.9910
 1.0670	53.0030
 1.0680	53.0130
 1.0690	53.0210
 1.0700	53.0290
 1.0710	53.0320
 1.0720	53.0390
 1.0730	53.0520
 1.0740	53.0560
 1.0750	53.0550
 1.0760	53.0570
 1.0770	53.0560
 1.0780	53.0560
 1.0790	53.0610
 1.0800	53.0620
 1.0810	53.0590
 1.0820	53.0580
 1.0830	53.0590
 1.0840	53.0580
 1.0850	53.0590
 1.0860	53.0580
 1.0870	53.0560
 1.0880	53.0520
 1.0890	53.0450
 1.0900	53.0330
 1.0910	53.0280
 1.0920	53.0300
 1.0930	53.0190
 1.0940	53.0030
 1.0950	52.9890
 1.0960	52.9620
 1.0970	52.9450
 1.0980	52.9420
 1.0990	52.9240
 1.1000	52.8960
 1.1010	52.8720
 1.1020	52.8440
 1.1030	52.8110
 1.1040	52.7910
 1.1050	52.7730
 1.1060	52.7540
 1.1070	52.7430
 1.1080	52.7200
 1.1090	52.6950
 1.1100	52.6640
 1.1110	52.6210
 1.1120	52.5810
 1.1130	52.5410
 1.1140	52.4980
 1.1150	52.4590
 1.1160	52.4100
 1.1170	52.3580
 1.1180	52.2950
 1.1190	52.2200
 1.1200	52.1440
 1.1210	52.0650
 1.1220	51.9830
 1.1230	51.9030
 1.1240	51.8170
 1.1250	51.7240
 1.1260	51.6270
 1.1270	51.5230
 1.1280	51.4140
 1.1290	51.2960
 1.1300	51.1730
 1.1310	51.0450
 1.1320	50.9120
 1.1330	50.7700
 1.1340	50.6250
 1.1350	50.4680
 1.1360	50.3000
 1.1370	50.1200
 1.1380	49.9330
 1.1390	49.7410
 1.1400	49.5410
 1.1410	49.3370
 1.1420	49.1300
 1.1430	48.9140
 1.1440	48.6950
 1.1450	48.4680
 1.1460	48.2420
 1.1470	48.0070
 1.1480	47.7870
 1.1490	47.5690
 1.1500	47.3620
 1.1510	47.1640
 1.1520	46.9760
 1.1530	46.7900
 1.1540	46.6220
 1.1550	46.4640
 1.1560	46.3210
 1.1570	46.1860
 1.1580	46.0670
 1.1590	45.9570
 1.1600	45.8530
 1.1610	45.7660
 1.1620	45.6910
 1.1630	45.6230
 1.1640	45.5680
 1.1650	45.5160
 1.1660	45.4700
 1.1670	45.4300
 1.1680	45.3970
 1.1690	45.3660
 1.1700	45.3420
 1.1710	45.3180
 1.1720	45.2940
 1.1730	45.2740
 1.1740	45.2560
 1.1750	45.2380
 1.1760	45.2240
 1.1770	45.2100
 1.1780	45.1880
 1.1790	45.1650
 1.1800	45.1380
 1.1810	45.1060
 1.1820	45.0780
 1.1830	45.0510
 1.1840	45.0260
 1.1850	45.0020
 1.1860	44.9790
 1.1870	44.9590
 1.1880	44.9370
 1.1890	44.9130
 1.1900	44.8950
 1.1910	44.8790
 1.1920	44.8650
 1.1930	44.8560
 1.1940	44.8470
 1.1950	44.8380
 1.1960	44.8260
 1.1970	44.8140
 1.1980	44.8090
 1.1990	44.8100
 1.2000	44.8150
 1.2010	44.8280
 1.2020	44.8400
 1.2030	44.8510
 1.2040	44.8690
 1.2050	44.8900
 1.2060	44.9140
 1.2070	44.9400
 1.2080	44.9690
 1.2090	45.0000
 1.2100	45.0370
 1.2110	45.0770
 1.2120	45.1220
 1.2130	45.1680
 1.2140	45.2200
 1.2150	45.2710
 1.2160	45.3220
 1.2170	45.3800
 1.2180	45.4410
 1.2190	45.4970
 1.2200	45.5570
 1.2210	45.6190
 1.2220	45.6780
 1.2230	45.7360
 1.2240	45.7990
 1.2250	45.8630
 1.2260	45.9210
 1.2270	45.9800
 1.2280	46.0400
 1.2290	46.0920
 1.2300	46.1450
 1.2310	46.2020
 1.2320	46.2480
 1.2330	46.2930
 1.2340	46.3420
 1.2350	46.3920
 1.2360	46.4370
 1.2370	46.4840
 1.2380	46.5310
 1.2390	46.5710
 1.2400	46.6040
 1.2410	46.6440
 1.2420	46.6880
 1.2430	46.7270
 1.2440	46.7690
 1.2450	46.8060
 1.2460	46.8380
 1.2470	46.8680
 1.2480	46.8900
 1.2490	46.9170
 1.2500	46.9460
 1.2510	46.9740
 1.2520	47.0060
 1.2530	47.0280
 1.2540	47.0400
 1.2550	47.0550
 1.2560	47.0670
 1.2570	47.0830
 1.2580	47.1040
 1.2590	47.1220
 1.2600	47.1410
 1.2610	47.1560
 1.2620	47.1710
 1.2630	47.1820
 1.2640	47.1830
 1.2650	47.1910
 1.2660	47.1980
 1.2670	47.1920
 1.2680	47.1910
 1.2690	47.1880
 1.2700	47.1800
 1.2710	47.1790
 1.2720	47.1740
 1.2730	47.1650
 1.2740	47.1490
 1.2750	47.1300
 1.2760	47.1180
 1.2770	47.1080
 1.2780	47.0950
 1.2790	47.0780
 1.2800	47.0580
 1.2810	47.0370
 1.2820	47.0140
 1.2830	46.9930
 1.2840	46.9670
 1.2850	46.9360
 1.2860	46.9070
 1.2870	46.8730
 1.2880	46.8350
 1.2890	46.8010
 1.2900	46.7630
 1.2910	46.7120
 1.2920	46.6660
 1.2930	46.6160
 1.2940	46.5610
 1.2950	46.5150
 1.2960	46.4650
 1.2970	46.4120
 1.2980	46.3580
 1.2990	46.2940
 1.3000	46.2230
 1.3010	46.1460
 1.3020	46.0650
 1.3030	45.9850
 1.3040	45.9030
 1.3050	45.8200
 1.3060	45.7330
 1.3070	45.6350
 1.3080	45.5300
 1.3090	45.4220
 1.3100	45.3070
 1.3110	45.1870
 1.3120	45.0630
 1.3130	44.9390
 1.3140	44.8100
 1.3150	44.6750
 1.3160	44.5370
 1.3170	44.3980
 1.3180	44.2460
 1.3190	44.0860
 1.3200	43.9190
 1.3210	43.7400
 1.3220	43.5600
 1.3230	43.3790
 1.3240	43.1930
 1.3250	43.0080
 1.3260	42.8160
 1.3270	42.6120
 1.3280	42.4070
 1.3290	42.1970
 1.3300	41.9850
 1.3310	41.7730
 1.3320	41.5560
 1.3330	41.3380
 1.3340	41.1140
 1.3350	40.8870
 1.3360	40.6580
 1.3370	40.4240
 1.3380	40.1910
 1.3390	39.9570
 1.3400	39.7200
 1.3410	39.4890
 1.3420	39.2620
 1.3430	39.0350
 1.3440	38.8140
 1.3450	38.5930
 1.3460	38.3730
 1.3470	38.1570
 1.3480	37.9410
 1.3490	37.7290
 1.3500	37.5230
 1.3510	37.3150
 1.3520	37.1100
 1.3530	36.9070
 1.3540	36.7060
 1.3550	36.5070
 1.3560	36.3090
 1.3570	36.1150
 1.3580	35.9210
 1.3590	35.7220
 1.3600	35.5210
 1.3610	35.3160
 1.3620	35.1070
 1.3630	34.8980
 1.3640	34.6830
 1.3650	34.4590
 1.3660	34.2280
 1.3670	33.9830
 1.3680	33.7280
 1.3690	33.4640
 1.3700	33.1870
 1.3710	32.8980
 1.3720	32.5980
 1.3730	32.2760
 1.3740	31.9380
 1.3750	31.5840
 1.3760	31.2050
 1.3770	30.8030
 1.3780	30.3770
 1.3790	29.9300
 1.3800	29.4640
 1.3810	28.9770
 1.3820	28.4690
 1.3830	27.9420
 1.3840	27.3950
 1.3850	26.8250
 1.3860	26.2450
 1.3870	25.6450
 1.3880	25.0430
 1.3890	24.4290
 1.3900	23.8070
 1.3910	23.1900
 1.3920	22.5680
 1.3930	21.9460
 1.3940	21.3330
 1.3950	20.7170
 1.3960	20.1150
 1.3970	19.5290
 1.3980	18.9520
 1.3990	18.4000
 1.4000	17.8640
 1.4010	17.3430
 1.4020	16.8480
 1.4030	16.3710
 1.4040	15.9160
 1.4050	15.4870
 1.4060	15.0790
 1.4070	14.7000
 1.4080	14.3430
 1.4090	14.0060
 1.4100	13.6930
 1.4110	13.3960
 1.4120	13.1230
 1.4130	12.8720
 1.4140	12.6400
 1.4150	12.4310
 1.4160	12.2380
 1.4170	12.0580
 1.4180	11.8960
 1.4190	11.7480
 1.4200	11.6110
 1.4210	11.4890
 1.4220	11.3800
 1.4230	11.2790
 1.4240	11.1880
 1.4250	11.1060
 1.4260	11.0340
 1.4270	10.9690
 1.4280	10.9130
 1.4290	10.8630
 1.4300	10.8210
 1.4310	10.7820
 1.4320	10.7500
 1.4330	10.7220
 1.4340	10.6990
 1.4350	10.6800
 1.4360	10.6660
 1.4370	10.6560
 1.4380	10.6490
 1.4390	10.6460
 1.4400	10.6470
 1.4410	10.6530
 1.4420	10.6610
 1.4430	10.6710
 1.4440	10.6850
 1.4450	10.6980
 1.4460	10.7120
 1.4470	10.7300
 1.4480	10.7470
 1.4490	10.7650
 1.4500	10.7830
 1.4510	10.8010
 1.4520	10.8200
 1.4530	10.8400
 1.4540	10.8620
 1.4550	10.8840
 1.4560	10.9060
 1.4570	10.9300
 1.4580	10.9570
 1.4590	10.9860
 1.4600	11.0160
 1.4610	11.0500
 1.4620	11.0870
 1.4630	11.1260
 1.4640	11.1690
 1.4650	11.2160
 1.4660	11.2630
 1.4670	11.3140
 1.4680	11.3690
 1.4690	11.4270
 1.4700	11.4900
 1.4710	11.5550
 1.4720	11.6220
 1.4730	11.6940
 1.4740	11.7680
 1.4750	11.8450
 1.4760	11.9280
 1.4770	12.0100
 1.4780	12.0930
 1.4790	12.1810
 1.4800	12.2700
 1.4810	12.3610
 1.4820	12.4560
 1.4830	12.5500
 1.4840	12.6450
 1.4850	12.7410
 1.4860	12.8380
 1.4870	12.9340
 1.4880	13.0310
 1.4890	13.1300
 1.4900	13.2280
 1.4910	13.3250
 1.4920	13.4240
 1.4930	13.5210
 1.4940	13.6210
 1.4950	13.7230
 1.4960	13.8260
 1.4970	13.9310
 1.4980	14.0330
 1.4990	14.1340
 1.5000	14.2340
 1.5010	14.3330
 1.5020	14.4330
 1.5030	14.5330
 1.5040	14.6330
 1.5050	14.7300
 1.5060	14.8300
 1.5070	14.9300
 1.5080	15.0270
 1.5090	15.1220
 1.5100	15.2200
 1.5110	15.3160
 1.5120	15.4130
 1.5130	15.5120
 1.5140	15.6100
 1.5150	15.7070
 1.5160	15.8060
 1.5170	15.9040
 1.5180	16.0000
 1.5190	16.0950
 1.5200	16.1850
 1.5210	16.2750
 1.5220	16.3650
 1.5230	16.4550
 1.5240	16.5450
 1.5250	16.6340
 1.5260	16.7230
 1.5270	16.8100
 1.5280	16.8990
 1.5290	16.9840
 1.5300	17.0680
 1.5310	17.1520
 1.5320	17.2330
 1.5330	17.3150
 1.5340	17.3980
 1.5350	17.4810
 1.5360	17.5650
 1.5370	17.6460
 1.5380	17.7260
 1.5390	17.8040
 1.5400	17.8800
 1.5410	17.9580
 1.5420	18.0340
 1.5430	18.1100
 1.5440	18.1890
 1.5450	18.2630
 1.5460	18.3390
 1.5470	18.4150
 1.5480	18.4860
 1.5490	18.5610
 1.5500	18.6330
 1.5510	18.7040
 1.5520	18.7770
 1.5530	18.8470
 1.5540	18.9150
 1.5550	18.9850
 1.5560	19.0520
 1.5570	19.1170
 1.5580	19.1840
 1.5590	19.2490
 1.5600	19.3160
 1.5610	19.3840
 1.5620	19.4510
 1.5630	19.5180
 1.5640	19.5830
 1.5650	19.6490
 1.5660	19.7170
 1.5670	19.7850
 1.5680	19.8500
 1.5690	19.9110
 1.5700	19.9720
 1.5710	20.0330
 1.5720	20.0940
 1.5730	20.1540
 1.5740	20.2120
 1.5750	20.2680
 1.5760	20.3280
 1.5770	20.3900
 1.5780	20.4550
 1.5790	20.5220
 1.5800	20.5850
 1.5810	20.6470
 1.5820	20.7070
 1.5830	20.7670
 1.5840	20.8290
 1.5850	20.8890
 1.5860	20.9510
 1.5870	21.0110
 1.5880	21.0680
 1.5890	21.1320
 1.5900	21.1920
 1.5910	21.2510
 1.5920	21.3150
 1.5930	21.3720
 1.5940	21.4270
 1.5950	21.4870
 1.5960	21.5410
 1.5970	21.5970
 1.5980	21.6590
 1.5990	21.7180
 1.6000	21.7780
 1.6010	21.8350
 1.6020	21.8880
 1.6030	21.9460
 1.6040	22.0040
 1.6050	22.0610
 1.6060	22.1210
 1.6070	22.1770
 1.6080	22.2290
 1.6090	22.2810
 1.6100	22.3310
 1.6110	22.3810
 1.6120	22.4320
 1.6130	22.4850
 1.6140	22.5350
 1.6150	22.5840
 1.6160	22.6330
 1.6170	22.6840
 1.6180	22.7320
 1.6190	22.7800
 1.6200	22.8310
 1.6210	22.8760
 1.6220	22.9180
 1.6230	22.9590
 1.6240	22.9970
 1.6250	23.0350
 1.6260	23.0760
 1.6270	23.1180
 1.6280	23.1510
 1.6290	23.1840
 1.6300	23.2150
 1.6310	23.2430
 1.6320	23.2710
 1.6330	23.2990
 1.6340	23.3270
 1.6350	23.3510
 1.6360	23.3740
 1.6370	23.3930
 1.6380	23.4080
 1.6390	23.4230
 1.6400	23.4380
 1.6410	23.4450
 1.6420	23.4480
 1.6430	23.4480
 1.6440	23.4420
 1.6450	23.4340
 1.6460	23.4230
 1.6470	23.4040
 1.6480	23.3800
 1.6490	23.3540
 1.6500	23.3240
 1.6510	23.2930
 1.6520	23.2620
 1.6530	23.2280
 1.6540	23.1880
 1.6550	23.1510
 1.6560	23.1120
 1.6570	23.0740
 1.6580	23.0410
 1.6590	23.0020
 1.6600	22.9690
 1.6610	22.9380
 1.6620	22.9060
 1.6630	22.8840
 1.6640	22.8630
 1.6650	22.8440
 1.6660	22.8350
 1.6670	22.8370
 1.6680	22.8430
 1.6690	22.8560
 1.6700	22.8740
 1.6710	22.8910
 1.6720	22.9080
 1.6730	22.9320
 1.6740	22.9550
 1.6750	22.9720
 1.6760	22.9900
 1.6770	23.0030
 1.6780	23.0100
 1.6790	23.0160
 1.6800	23.0170
 1.6810	23.0130
 1.6820	23.0090
 1.6830	22.9980
 1.6840	22.9840
 1.6850	22.9690
 1.6860	22.9450
 1.6870	22.9140
 1.6880	22.8850
 1.6890	22.8490
 1.6900	22.8130
 1.6910	22.7780
 1.6920	22.7420
 1.6930	22.7020
 1.6940	22.6660
 1.6950	22.6360
 1.6960	22.6000
 1.6970	22.5650
 1.6980	22.5240
 1.6990	22.4790
 1.7000	22.4320
 1.7010	22.3830
 1.7020	22.3310
 1.7030	22.2780
 1.7040	22.2190
 1.7050	22.1540
 1.7060	22.0920
 1.7070	22.0300
 1.7080	21.9670
 1.7090	21.9060
 1.7100	21.8460
 1.7110	21.7860
 1.7120	21.7270
 1.7130	21.6670
 1.7140	21.6070
 1.7150	21.5500
 1.7160	21.4920
 1.7170	21.4370
 1.7180	21.3800
 1.7190	21.3200
 1.7200	21.2660
 1.7210	21.2150
 1.7220	21.1590
 1.7230	21.1090
 1.7240	21.0560
 1.7250	21.0030
 1.7260	20.9560
 1.7270	20.9140
 1.7280	20.8740
 1.7290	20.8340
 1.7300	20.7990
 1.7310	20.7650
 1.7320	20.7370
 1.7330	20.7070
 1.7340	20.6800
 1.7350	20.6510
 1.7360	20.6210
 1.7370	20.5930
 1.7380	20.5670
 1.7390	20.5360
 1.7400	20.5030
 1.7410	20.4690
 1.7420	20.4320
 1.7430	20.3920
 1.7440	20.3480
 1.7450	20.3060
 1.7460	20.2630
 1.7470	20.2170
 1.7480	20.1730
 1.7490	20.1270
 1.7500	20.0760
 1.7510	20.0310
 1.7520	19.9900
 1.7530	19.9480
 1.7540	19.9100
 1.7550	19.8660
 1.7560	19.8230
 1.7570	19.7840
 1.7580	19.7430
 1.7590	19.7100
 1.7600	19.6760
 1.7610	19.6410
 1.7620	19.6050
 1.7630	19.5680
 1.7640	19.5320
 1.7650	19.4910
 1.7660	19.4590
 1.7670	19.4350
 1.7680	19.4090
 1.7690	19.3910
 1.7700	19.3650
 1.7710	19.3320
 1.7720	19.3060
 1.7730	19.2810
 1.7740	19.2580
 1.7750	19.2420
 1.7760	19.2200
 1.7770	19.1950
 1.7780	19.1710
 1.7790	19.1430
 1.7800	19.1220
 1.7810	19.1050
 1.7820	19.0830
 1.7830	19.0610
 1.7840	19.0450
 1.7850	19.0280
 1.7860	19.0170
 1.7870	19.0140
 1.7880	19.0100
 1.7890	19.0110
 1.7900	19.0100
 1.7910	19.0070
 1.7920	18.9990
 1.7930	18.9920
 1.7940	18.9860
 1.7950	18.9850
 1.7960	18.9860
 1.7970	18.9880
 1.7980	18.9950
 1.7990	18.9990
 1.8000	18.9970
 1.8010	19.0020
 1.8020	19.0120
 1.8030	19.0210
 1.8040	19.0390
 1.8050	19.0480
 1.8060	19.0550
 1.8070	19.0570
 1.8080	19.0510
 1.8090	19.0540
 1.8100	19.0570
 1.8110	19.0620
 1.8120	19.0710
 1.8130	19.0680
 1.8140	19.0690
 1.8150	19.0710
 1.8160	19.0710
 1.8170	19.0790
 1.8180	19.0880
 1.8190	19.0980
 1.8200	19.1050
 1.8210	19.1080
 1.8220	19.1090
 1.8230	19.1080
 1.8240	19.1100
 1.8250	19.1160
 1.8260	19.1160
 1.8270	19.1100
 1.8280	19.1030
 1.8290	19.0970
 1.8300	19.0900
 1.8310	19.0840
 1.8320	19.0770
 1.8330	19.0710
 1.8340	19.0640
 1.8350	19.0640
 1.8360	19.0440
 1.8370	19.0200
 1.8380	18.9800
 1.8390	18.9430
 1.8400	18.9090
 1.8410	18.8670
 1.8420	18.8180
 1.8430	18.7730
 1.8440	18.7140
 1.8450	18.6510
 1.8460	18.5920
 1.8470	18.5230
 1.8480	18.4420
 1.8490	18.3470
 1.8500	18.2470
 1.8510	18.1330
 1.8520	18.0100
 1.8530	17.8860
 1.8540	17.7610
 1.8550	17.6120
 1.8560	17.4540
 1.8570	17.2900
 1.8580	17.1050
 1.8590	16.9160
 1.8600	16.7220
 1.8610	16.5140
 1.8620	16.2830
 1.8630	16.0440
 1.8640	15.7960
 1.8650	15.5360
 1.8660	15.2620
 1.8670	14.9790
 1.8680	14.6850
 1.8690	14.3720
 1.8700	14.0440
 1.8710	13.7020
 1.8720	13.3570
 1.8730	13.0020
 1.8740	12.6440
 1.8750	12.2960
 1.8760	11.9370
 1.8770	11.5700
 1.8780	11.1960
 1.8790	10.8190
 1.8800	10.4580
 1.8810	10.1060
 1.8820	 9.7570
 1.8830	 9.4110
 1.8840	 9.0830
 1.8850	 8.7550
 1.8860	 8.4390
 1.8870	 8.1500
 1.8880	 7.8730
 1.8890	 7.6130
 1.8900	 7.3620
 1.8910	 7.1200
 1.8920	 6.8820
 1.8930	 6.6680
 1.8940	 6.4640
 1.8950	 6.2820
 1.8960	 6.1290
 1.8970	 5.9830
 1.8980	 5.8530
 1.8990	 5.7370
 1.9000	 5.6330
 1.9010	 5.5430
 1.9020	 5.4620
 1.9030	 5.3950
 1.9040	 5.3330
 1.9050	 5.2860
 1.9060	 5.2430
 1.9070	 5.2030
 1.9080	 5.1700
 1.9090	 5.1340
 1.9100	 5.0980
 1.9110	 5.0680
 1.9120	 5.0380
 1.9130	 5.0200
 1.9140	 5.0130
 1.9150	 4.9980
 1.9160	 4.9960
 1.9170	 4.9920
 1.9180	 4.9830
 1.9190	 4.9870
 1.9200	 4.9820
 1.9210	 4.9710
 1.9220	 4.9690
 1.9230	 4.9690
 1.9240	 4.9670
 1.9250	 4.9680
 1.9260	 4.9720
 1.9270	 4.9710
 1.9280	 4.9760
 1.9290	 4.9790
 1.9300	 4.9840
 1.9310	 4.9910
 1.9320	 4.9830
 1.9330	 4.9820
 1.9340	 4.9820
 1.9350	 4.9870
 1.9360	 4.9930
 1.9370	 5.0030
 1.9380	 5.0190
 1.9390	 5.0380
 1.9400	 5.0470
 1.9410	 5.0550
 1.9420	 5.0640
 1.9430	 5.0700
 1.9440	 5.0800
 1.9450	 5.0970
 1.9460	 5.1100
 1.9470	 5.1250
 1.9480	 5.1370
 1.9490	 5.1470
 1.9500	 5.1560
 1.9510	 5.1670
 1.9520	 5.1840
 1.9530	 5.2080
 1.9540	 5.2360
 1.9550	 5.2580
 1.9560	 5.2790
 1.9570	 5.2970
 1.9580	 5.3070
 1.9590	 5.3250
 1.9600	 5.3450
 1.9610	 5.3650
 1.9620	 5.3870
 1.9630	 5.4080
 1.9640	 5.4320
 1.9650	 5.4550
 1.9660	 5.4810
 1.9670	 5.5040
 1.9680	 5.5270
 1.9690	 5.5460
 1.9700	 5.5660
 1.9710	 5.5800
 1.9720	 5.6040
 1.9730	 5.6300
 1.9740	 5.6600
 1.9750	 5.6910
 1.9760	 5.7220
 1.9770	 5.7480
 1.9780	 5.7720
 1.9790	 5.8030
 1.9800	 5.8390
 1.9810	 5.8730
 1.9820	 5.9100
 1.9830	 5.9440
 1.9840	 5.9770
 1.9850	 6.0090
 1.9860	 6.0410
 1.9870	 6.0740
 1.9880	 6.1050
 1.9890	 6.1390
 1.9900	 6.1750
 1.9910	 6.2040
 1.9920	 6.2380
 1.9930	 6.2740
 1.9940	 6.3080
 1.9950	 6.3430
 1.9960	 6.3790
 1.9970	 6.4130
 1.9980	 6.4490
 1.9990	 6.4850
 2.0000	 6.5260
 2.0010	 6.5730
 2.0020	 6.6150
 2.0030	 6.6520
 2.0040	 6.6830
 2.0050	 6.7110
 2.0060	 6.7280
 2.0070	 6.7540
 2.0080	 6.7780
 2.0090	 6.8100
 2.0100	 6.8470
 2.0110	 6.8850
 2.0120	 6.9270
 2.0130	 6.9740
 2.0140	 7.0160
 2.0150	 7.0490
 2.0160	 7.0820
 2.0170	 7.1110
 2.0180	 7.1400
 2.0190	 7.1690
 2.0200	 7.1990
 2.0210	 7.2290
 2.0220	 7.2600
 2.0230	 7.2910
 2.0240	 7.3200
 2.0250	 7.3530
 2.0260	 7.3770
 2.0270	 7.3950
 2.0280	 7.4140
 2.0290	 7.4210
 2.0300	 7.4240
 2.0310	 7.4390
 2.0320	 7.4530
 2.0330	 7.4780
 2.0340	 7.5230
 2.0350	 7.5500
 2.0360	 7.5750
 2.0370	 7.5970
 2.0380	 7.6090
 2.0390	 7.6230
 2.0400	 7.6390
 2.0410	 7.6550
 2.0420	 7.6710
 2.0430	 7.6860
 2.0440	 7.6960
 2.0450	 7.7040
 2.0460	 7.7130
 2.0470	 7.7170
 2.0480	 7.7240
 2.0490	 7.7370
 2.0500	 7.7460
 2.0510	 7.7520
 2.0520	 7.7580
 2.0530	 7.7670
 2.0540	 7.7720
 2.0550	 7.7720
 2.0560	 7.7780
 2.0570	 7.7900
 2.0580	 7.8040
 2.0590	 7.8190
 2.0600	 7.8450
 2.0610	 7.8610
 2.0620	 7.8710
 2.0630	 7.8830
 2.0640	 7.8900
 2.0650	 7.9020
 2.0660	 7.9190
 2.0670	 7.9290
 2.0680	 7.9390
 2.0690	 7.9480
 2.0700	 7.9490
 2.0710	 7.9540
 2.0720	 7.9570
 2.0730	 7.9730
 2.0740	 7.9800
 2.0750	 7.9850
 2.0760	 7.9880
 2.0770	 7.9830
 2.0780	 7.9890
 2.0790	 8.0000
 2.0800	 8.0080
 2.0810	 8.0190
 2.0820	 8.0290
 2.0830	 8.0340
 2.0840	 8.0430
 2.0850	 8.0560
 2.0860	 8.0670
 2.0870	 8.0810
 2.0880	 8.0870
 2.0890	 8.0960
 2.0900	 8.1060
 2.0910	 8.1150
 2.0920	 8.1240
 2.0930	 8.1330
 2.0940	 8.1410
 2.0950	 8.1500
 2.0960	 8.1580
 2.0970	 8.1700
 2.0980	 8.1860
 2.0990	 8.1970
 2.1000	 8.2080
 2.1010	 8.2170
 2.1020	 8.2220
 2.1030	 8.2290
 2.1040	 8.2380
 2.1050	 8.2460
 2.1060	 8.2540
 2.1070	 8.2620
 2.1080	 8.2660
 2.1090	 8.2670
 2.1100	 8.2730
 2.1110	 8.2760
 2.1120	 8.2840
 2.1130	 8.3020
 2.1140	 8.3110
 2.1150	 8.3190
 2.1160	 8.3230
 2.1170	 8.3190
 2.1180	 8.3200
 2.1190	 8.3230
 2.1200	 8.3250
 2.1210	 8.3260
 2.1220	 8.3270
 2.1230	 8.3310
 2.1240	 8.3300
 2.1250	 8.3430
 2.1260	 8.3660
 2.1270	 8.3820
 2.1280	 8.4050
 2.1290	 8.4220
 2.1300	 8.4310
 2.1310	 8.4470
 2.1320	 8.4690
 2.1330	 8.4840
 2.1340	 8.4980
 2.1350	 8.5090
 2.1360	 8.5140
 2.1370	 8.5200
 2.1380	 8.5210
 2.1390	 8.5270
 2.1400	 8.5390
 2.1410	 8.5400
 2.1420	 8.5540
 2.1430	 8.5760
 2.1440	 8.5940
 2.1450	 8.6130
 2.1460	 8.6370
 2.1470	 8.6660
 2.1480	 8.6860
 2.1490	 8.7100
 2.1500	 8.7240
 2.1510	 8.7250
 2.1520	 8.7310
 2.1530	 8.7270
 2.1540	 8.7390
 2.1550	 8.7580
 2.1560	 8.7800
 2.1570	 8.8220
 2.1580	 8.8510
 2.1590	 8.8760
 2.1600	 8.8940
 2.1610	 8.9140
 2.1620	 8.9380
 2.1630	 8.9640
 2.1640	 8.9990
 2.1650	 9.0270
 2.1660	 9.0570
 2.1670	 9.0780
 2.1680	 9.0910
 2.1690	 9.1100
 2.1700	 9.1200
 2.1710	 9.1390
 2.1720	 9.1700
 2.1730	 9.1910
 2.1740	 9.2100
 2.1750	 9.2290
 2.1760	 9.2450
 2.1770	 9.2610
 2.1780	 9.2800
 2.1790	 9.2980
 2.1800	 9.3120
 2.1810	 9.3290
 2.1820	 9.3520
 2.1830	 9.3670
 2.1840	 9.3870
 2.1850	 9.4090
 2.1860	 9.4290
 2.1870	 9.4460
 2.1880	 9.4680
 2.1890	 9.4920
 2.1900	 9.5150
 2.1910	 9.5430
 2.1920	 9.5670
 2.1930	 9.5910
 2.1940	 9.6110
 2.1950	 9.6260
 2.1960	 9.6450
 2.1970	 9.6630
 2.1980	 9.6790
 2.1990	 9.6930
 2.2000	 9.7120
 2.2010	 9.7340
 2.2020	 9.7530
 2.2030	 9.7740
 2.2040	 9.7970
 2.2050	 9.8160
 2.2060	 9.8390
 2.2070	 9.8640
 2.2080	 9.8960
 2.2090	 9.9230
 2.2100	 9.9500
 2.2110	 9.9730
 2.2120	 9.9970
 2.2130	10.0130
 2.2140	10.0210
 2.2150	10.0310
 2.2160	10.0360
 2.2170	10.0480
 2.2180	10.0660
 2.2190	10.0800
 2.2200	10.0990
 2.2210	10.1090
 2.2220	10.1100
 2.2230	10.1140
 2.2240	10.1160
 2.2250	10.1120
 2.2260	10.1050
 2.2270	10.0980
 2.2280	10.0810
 2.2290	10.0690
 2.2300	10.0630
 2.2310	10.0480
 2.2320	10.0290
 2.2330	10.0140
 2.2340	 9.9910
 2.2350	 9.9570
 2.2360	 9.9360
 2.2370	 9.9200
 2.2380	 9.8960
 2.2390	 9.8790
 2.2400	 9.8500
 2.2410	 9.8070
 2.2420	 9.7700
 2.2430	 9.7330
 2.2440	 9.6950
 2.2450	 9.6500
 2.2460	 9.6170
 2.2470	 9.5910
 2.2480	 9.5610
 2.2490	 9.5410
 2.2500	 9.5090
 2.2510	 9.4690
 2.2520	 9.4260
 2.2530	 9.3720
 2.2540	 9.3270
 2.2550	 9.2830
 2.2560	 9.2360
 2.2570	 9.1830
 2.2580	 9.1420
 2.2590	 9.1090
 2.2600	 9.0690
 2.2610	 9.0270
 2.2620	 9.0000
 2.2630	 8.9540
 2.2640	 8.9150
 2.2650	 8.9110
 2.2660	 8.8860
 2.2670	 8.8520
 2.2680	 8.8190
 2.2690	 8.7790
 2.2700	 8.7140
 2.2710	 8.6710
 2.2720	 8.6370
 2.2730	 8.6060
 2.2740	 8.5820
 2.2750	 8.5590
 2.2760	 8.5460
 2.2770	 8.5210
 2.2780	 8.4900
 2.2790	 8.4580
 2.2800	 8.4120
 2.2810	 8.3860
 2.2820	 8.3700
 2.2830	 8.3480
 2.2840	 8.3390
 2.2850	 8.3190
 2.2860	 8.2850
 2.2870	 8.2630
 2.2880	 8.2450
 2.2890	 8.2280
 2.2900	 8.2270
 2.2910	 8.2060
 2.2920	 8.1780
 2.2930	 8.1470
 2.2940	 8.0920
 2.2950	 8.0520
 2.2960	 8.0090
 2.2970	 7.9800
 2.2980	 7.9680
 2.2990	 7.9600
 2.3000	 7.9450
 2.3010	 7.9400
 2.3020	 7.9100
 2.3030	 7.8740
 2.3040	 7.8510
 2.3050	 7.8210
 2.3060	 7.7840
 2.3070	 7.7490
 2.3080	 7.7170
 2.3090	 7.6870
 2.3100	 7.6690
 2.3110	 7.6580
 2.3120	 7.6480
 2.3130	 7.6340
 2.3140	 7.6320
 2.3150	 7.6430
 2.3160	 7.6460
 2.3170	 7.6550
 2.3180	 7.6530
 2.3190	 7.6430
 2.3200	 7.6390
 2.3210	 7.6340
 2.3220	 7.6200
 2.3230	 7.6080
 2.3240	 7.5830
 2.3250	 7.5410
 2.3260	 7.5080
 2.3270	 7.4660
 2.3280	 7.4380
 2.3290	 7.4140
 2.3300	 7.4040
 2.3310	 7.4110
 2.3320	 7.4140
 2.3330	 7.4280
 2.3340	 7.4370
 2.3350	 7.4590
 2.3360	 7.4490
 2.3370	 7.4210
 2.3380	 7.3950
 2.3390	 7.3380
 2.3400	 7.2990
 2.3410	 7.2690
 2.3420	 7.2440
 2.3430	 7.2240
 2.3440	 7.2090
 2.3450	 7.2110
 2.3460	 7.2050
 2.3470	 7.2000
 2.3480	 7.1850
 2.3490	 7.1590
 2.3500	 7.1450
 2.3510	 7.1250
 2.3520	 7.1160
 2.3530	 7.1220
 2.3540	 7.1190
 2.3550	 7.1260
 2.3560	 7.1320
 2.3570	 7.1360
 2.3580	 7.1340
 2.3590	 7.1090
 2.3600	 7.0780
 2.3610	 7.0570
 2.3620	 7.0410
 2.3630	 7.0160
 2.3640	 7.0080
 2.3650	 6.9950
 2.3660	 6.9630
 2.3670	 6.9550
 2.3680	 6.9470
 2.3690	 6.9380
 2.3700	 6.9580
 2.3710	 6.9530
 2.3720	 6.9350
 2.3730	 6.9310
 2.3740	 6.9040
 2.3750	 6.8980
 2.3760	 6.9130
 2.3770	 6.8880
 2.3780	 6.8720
 2.3790	 6.8500
 2.3800	 6.8130
 2.3810	 6.8200
 2.3820	 6.8000
 2.3830	 6.7640
 2.3840	 6.7600
 2.3850	 6.7500
 2.3860	 6.7350
 2.3870	 6.7040
 2.3880	 6.6580
 2.3890	 6.6340
 2.3900	 6.6230
 2.3910	 6.6390
 2.3920	 6.6660
 2.3930	 6.6210
 2.3940	 6.5530
 2.3950	 6.5090
 2.3960	 6.4710
 2.3970	 6.4720
 2.3980	 6.4880
 2.3990	 6.4600
 2.4000	 6.4300
 2.4010	 6.4190
 2.4020	 6.3980
 2.4030	 6.3800
 2.4040	 6.3690
 2.4050	 6.3600
 2.4060	 6.3540
 2.4070	 6.3300
 2.4080	 6.2950
 2.4090	 6.2430
 2.4100	 6.1810
 2.4110	 6.1420
 2.4120	 6.1310
 2.4130	 6.1350
 2.4140	 6.1120
 2.4150	 6.1100
 2.4160	 6.1290
 2.4170	 6.0940
 2.4180	 6.0700
 2.4190	 6.0440
 2.4200	 5.9800
 2.4210	 5.9520
 2.4220	 5.9480
 2.4230	 5.9670
 2.4240	 6.0190
 2.4250	 6.0470
 2.4260	 6.0450
 2.4270	 6.0280
 2.4280	 6.0210
 2.4290	 5.9740
 2.4300	 5.9230
 2.4310	 5.9140
 2.4320	 5.8390
 2.4330	 5.7820
 2.4340	 5.7760
 2.4350	 5.7580
 2.4360	 5.7330
 2.4370	 5.7050
 2.4380	 5.7290
 2.4390	 5.7110
 2.4400	 5.6640
 2.4410	 5.6400
 2.4420	 5.5900
 2.4430	 5.5760
 2.4440	 5.5970
 2.4450	 5.6600
 2.4460	 5.7040
 2.4470	 5.6670
 2.4480	 5.6110
 2.4490	 5.5830
 2.4500	 5.5600
 2.4510	 5.5240
 2.4520	 5.5420
 2.4530	 5.5470
 2.4540	 5.5180
 2.4550	 5.5710
 2.4560	 5.5770
 2.4570	 5.5180
 2.4580	 5.5080
 2.4590	 5.4740
 2.4600	 5.4240
 2.4610	 5.4350
 2.4620	 5.4500
 2.4630	 5.4130
 2.4640	 5.4230
 2.4650	 5.4380
 2.4660	 5.3820
 2.4670	 5.3400
 2.4680	 5.3370
 2.4690	 5.2350
 2.4700	 5.2350
 2.4710	 5.3530
 2.4720	 5.4070
 2.4730	 5.5080
 2.4740	 5.5510
 2.4750	 5.5200
 2.4760	 5.5080
 2.4770	 5.4790
 2.4780	 5.4450
 2.4790	 5.4130
 2.4800	 5.3630
 2.4810	 5.2430
 2.4820	 5.2990
 2.4830	 5.3780
 2.4840	 5.5140
 2.4850	 5.5670
 2.4860	 5.5330
 2.4870	 5.5140
 2.4880	 5.3610
 2.4890	 5.3010
 2.4900	 5.3380
 2.4910	 5.2070
 2.4920	 5.1480
 2.4930	 5.1730
 2.4940	 5.1240
 2.4950	 5.0960
 2.4960	 5.1190
 2.4970	 5.1530
 2.4980	 5.1240
 2.4990	 5.1430
 2.5000	 5.2790
