Name: Arctostaphylos glandulosa 2
Type: vegetation
Class: Shrub
Genus: Arctostaphylos
Species: glandulosa
Sample No.: VH120
Owner: UCSB
Wavelength Range: VSWIR
Origin: 34.5084; -119.7682; WGS84
Collection Date: 6/3/2013
Description: Samples were collected as part of the HyspIRI Airborne Campaign. 48 individual plants were sampled in three times in 2013 - spring  summer  and fall. The name of the sample includes a 1  2  or 3 which references a different individual of the species. Samples were taken to JPL and processed within 48 hours of collection. The same leaves were processed in the Nicolet and then measured using the ASD.
Measurement: Bidirectional reflectance
First Column: X
Second Column: Y
X Units: Wavelength (micrometers)
Y Units: Reflectance (percentage)
First X Value: 0.35
Last X Value: 2.5
Number of X Values: 2151
Additional Information: vegetation.shrub.arctostaphylos.glandulosa.vswir.vh120.ucsb.asd.ancillary.txt

 0.3500	 6.3550
 0.3510	 6.2920
 0.3520	 6.3350
 0.3530	 6.4100
 0.3540	 6.4110
 0.3550	 6.3030
 0.3560	 6.3440
 0.3570	 6.4390
 0.3580	 6.3520
 0.3590	 6.2740
 0.3600	 6.2690
 0.3610	 6.3130
 0.3620	 6.2920
 0.3630	 6.3040
 0.3640	 6.3210
 0.3650	 6.3150
 0.3660	 6.3900
 0.3670	 6.3970
 0.3680	 6.3610
 0.3690	 6.4190
 0.3700	 6.4180
 0.3710	 6.4280
 0.3720	 6.4780
 0.3730	 6.4890
 0.3740	 6.4790
 0.3750	 6.4600
 0.3760	 6.4460
 0.3770	 6.4300
 0.3780	 6.4750
 0.3790	 6.5260
 0.3800	 6.4500
 0.3810	 6.4590
 0.3820	 6.5730
 0.3830	 6.7080
 0.3840	 6.6310
 0.3850	 6.6500
 0.3860	 6.7100
 0.3870	 6.6630
 0.3880	 6.6900
 0.3890	 6.7450
 0.3900	 6.7670
 0.3910	 6.7110
 0.3920	 6.7480
 0.3930	 6.8110
 0.3940	 6.8240
 0.3950	 6.8330
 0.3960	 6.9100
 0.3970	 6.9920
 0.3980	 6.9720
 0.3990	 6.9410
 0.4000	 6.9340
 0.4010	 6.9650
 0.4020	 7.0310
 0.4030	 7.0780
 0.4040	 7.0940
 0.4050	 7.0900
 0.4060	 7.0930
 0.4070	 7.1290
 0.4080	 7.1820
 0.4090	 7.2110
 0.4100	 7.2210
 0.4110	 7.2390
 0.4120	 7.2760
 0.4130	 7.3160
 0.4140	 7.3380
 0.4150	 7.3620
 0.4160	 7.4070
 0.4170	 7.4330
 0.4180	 7.4680
 0.4190	 7.5220
 0.4200	 7.5800
 0.4210	 7.5950
 0.4220	 7.6200
 0.4230	 7.6930
 0.4240	 7.7590
 0.4250	 7.7860
 0.4260	 7.8000
 0.4270	 7.8480
 0.4280	 7.9020
 0.4290	 7.9520
 0.4300	 7.9930
 0.4310	 8.0220
 0.4320	 8.0730
 0.4330	 8.1250
 0.4340	 8.1570
 0.4350	 8.1920
 0.4360	 8.2260
 0.4370	 8.2580
 0.4380	 8.2890
 0.4390	 8.3130
 0.4400	 8.3440
 0.4410	 8.3900
 0.4420	 8.4330
 0.4430	 8.4680
 0.4440	 8.4970
 0.4450	 8.5270
 0.4460	 8.5590
 0.4470	 8.5980
 0.4480	 8.6360
 0.4490	 8.6610
 0.4500	 8.7020
 0.4510	 8.7410
 0.4520	 8.7590
 0.4530	 8.7780
 0.4540	 8.8090
 0.4550	 8.8430
 0.4560	 8.8600
 0.4570	 8.8700
 0.4580	 8.8920
 0.4590	 8.9250
 0.4600	 8.9220
 0.4610	 8.9310
 0.4620	 8.9510
 0.4630	 8.9660
 0.4640	 8.9740
 0.4650	 8.9860
 0.4660	 9.0010
 0.4670	 9.0110
 0.4680	 9.0130
 0.4690	 9.0130
 0.4700	 9.0190
 0.4710	 9.0410
 0.4720	 9.0470
 0.4730	 9.0450
 0.4740	 9.0600
 0.4750	 9.0790
 0.4760	 9.0910
 0.4770	 9.0920
 0.4780	 9.0990
 0.4790	 9.1090
 0.4800	 9.1200
 0.4810	 9.1300
 0.4820	 9.1440
 0.4830	 9.1620
 0.4840	 9.1810
 0.4850	 9.2020
 0.4860	 9.2210
 0.4870	 9.2390
 0.4880	 9.2570
 0.4890	 9.2900
 0.4900	 9.3130
 0.4910	 9.3340
 0.4920	 9.3700
 0.4930	 9.4020
 0.4940	 9.4360
 0.4950	 9.4800
 0.4960	 9.5380
 0.4970	 9.5970
 0.4980	 9.6550
 0.4990	 9.7120
 0.5000	 9.7720
 0.5010	 9.8410
 0.5020	 9.9230
 0.5030	10.0160
 0.5040	10.1030
 0.5050	10.1930
 0.5060	10.2980
 0.5070	10.4070
 0.5080	10.5270
 0.5090	10.6580
 0.5100	10.7970
 0.5110	10.9410
 0.5120	11.0930
 0.5130	11.2540
 0.5140	11.4180
 0.5150	11.5940
 0.5160	11.7790
 0.5170	11.9690
 0.5180	12.1590
 0.5190	12.3510
 0.5200	12.5460
 0.5210	12.7410
 0.5220	12.9380
 0.5230	13.1300
 0.5240	13.3100
 0.5250	13.4870
 0.5260	13.6530
 0.5270	13.8090
 0.5280	13.9560
 0.5290	14.0920
 0.5300	14.2150
 0.5310	14.3260
 0.5320	14.4300
 0.5330	14.5250
 0.5340	14.6070
 0.5350	14.6780
 0.5360	14.7450
 0.5370	14.8110
 0.5380	14.8760
 0.5390	14.9360
 0.5400	15.0080
 0.5410	15.0870
 0.5420	15.1660
 0.5430	15.2470
 0.5440	15.3310
 0.5450	15.4150
 0.5460	15.5000
 0.5470	15.5760
 0.5480	15.6540
 0.5490	15.7390
 0.5500	15.8240
 0.5510	15.9030
 0.5520	15.9760
 0.5530	16.0420
 0.5540	16.1060
 0.5550	16.1600
 0.5560	16.2060
 0.5570	16.2480
 0.5580	16.2770
 0.5590	16.3030
 0.5600	16.3280
 0.5610	16.3530
 0.5620	16.3740
 0.5630	16.3910
 0.5640	16.4030
 0.5650	16.4020
 0.5660	16.3840
 0.5670	16.3480
 0.5680	16.3030
 0.5690	16.2550
 0.5700	16.2080
 0.5710	16.1620
 0.5720	16.1180
 0.5730	16.0780
 0.5740	16.0460
 0.5750	16.0290
 0.5760	16.0120
 0.5770	15.9980
 0.5780	15.9910
 0.5790	15.9860
 0.5800	15.9670
 0.5810	15.9440
 0.5820	15.9370
 0.5830	15.9260
 0.5840	15.9060
 0.5850	15.8740
 0.5860	15.8380
 0.5870	15.8010
 0.5880	15.7660
 0.5890	15.7400
 0.5900	15.7440
 0.5910	15.7580
 0.5920	15.7730
 0.5930	15.7770
 0.5940	15.7660
 0.5950	15.7470
 0.5960	15.7270
 0.5970	15.7060
 0.5980	15.6820
 0.5990	15.6580
 0.6000	15.6300
 0.6010	15.5940
 0.6020	15.5510
 0.6030	15.4970
 0.6040	15.4260
 0.6050	15.3520
 0.6060	15.2700
 0.6070	15.1770
 0.6080	15.0830
 0.6090	14.9870
 0.6100	14.8940
 0.6110	14.8090
 0.6120	14.6990
 0.6130	14.5860
 0.6140	14.4860
 0.6150	14.3920
 0.6160	14.3020
 0.6170	14.2180
 0.6180	14.1400
 0.6190	14.0720
 0.6200	14.0120
 0.6210	13.9580
 0.6220	13.9120
 0.6230	13.8770
 0.6240	13.8470
 0.6250	13.8210
 0.6260	13.8080
 0.6270	13.7920
 0.6280	13.7760
 0.6290	13.7710
 0.6300	13.7690
 0.6310	13.7610
 0.6320	13.7450
 0.6330	13.7180
 0.6340	13.6830
 0.6350	13.6390
 0.6360	13.5790
 0.6370	13.4960
 0.6380	13.4000
 0.6390	13.2940
 0.6400	13.1740
 0.6410	13.0410
 0.6420	12.8980
 0.6430	12.7480
 0.6440	12.5930
 0.6450	12.4380
 0.6460	12.2860
 0.6470	12.1430
 0.6480	12.0080
 0.6490	11.8850
 0.6500	11.7740
 0.6510	11.6680
 0.6520	11.5710
 0.6530	11.4780
 0.6540	11.3850
 0.6550	11.2860
 0.6560	11.1830
 0.6570	11.0710
 0.6580	10.9490
 0.6590	10.8220
 0.6600	10.6950
 0.6610	10.5670
 0.6620	10.4380
 0.6630	10.3150
 0.6640	10.2030
 0.6650	10.1030
 0.6660	10.0130
 0.6670	 9.9360
 0.6680	 9.8720
 0.6690	 9.8210
 0.6700	 9.7870
 0.6710	 9.7620
 0.6720	 9.7440
 0.6730	 9.7450
 0.6740	 9.7540
 0.6750	 9.7690
 0.6760	 9.7910
 0.6770	 9.8270
 0.6780	 9.8740
 0.6790	 9.9330
 0.6800	10.0090
 0.6810	10.1030
 0.6820	10.2250
 0.6830	10.3810
 0.6840	10.5690
 0.6850	10.7990
 0.6860	11.0820
 0.6870	11.4260
 0.6880	11.8360
 0.6890	12.3190
 0.6900	12.8800
 0.6910	13.5140
 0.6920	14.2300
 0.6930	15.0190
 0.6940	15.8740
 0.6950	16.7920
 0.6960	17.7610
 0.6970	18.7730
 0.6980	19.8180
 0.6990	20.8860
 0.7000	21.9640
 0.7010	23.0420
 0.7020	24.1120
 0.7030	25.1580
 0.7040	26.1740
 0.7050	27.1600
 0.7060	28.1150
 0.7070	29.0280
 0.7080	29.8980
 0.7090	30.7280
 0.7100	31.5180
 0.7110	32.2700
 0.7120	32.9830
 0.7130	33.6550
 0.7140	34.2960
 0.7150	34.9060
 0.7160	35.4830
 0.7170	36.0270
 0.7180	36.5370
 0.7190	37.0170
 0.7200	37.4730
 0.7210	37.9000
 0.7220	38.3010
 0.7230	38.6790
 0.7240	39.0340
 0.7250	39.3630
 0.7260	39.6700
 0.7270	39.9590
 0.7280	40.2350
 0.7290	40.4830
 0.7300	40.7100
 0.7310	40.9300
 0.7320	41.1290
 0.7330	41.3120
 0.7340	41.4850
 0.7350	41.6540
 0.7360	41.7980
 0.7370	41.9320
 0.7380	42.0650
 0.7390	42.1820
 0.7400	42.2980
 0.7410	42.4090
 0.7420	42.5050
 0.7430	42.5910
 0.7440	42.6730
 0.7450	42.7520
 0.7460	42.8270
 0.7470	42.8900
 0.7480	42.9460
 0.7490	43.0030
 0.7500	43.0540
 0.7510	43.1070
 0.7520	43.1550
 0.7530	43.1920
 0.7540	43.2280
 0.7550	43.2590
 0.7560	43.2870
 0.7570	43.3170
 0.7580	43.3440
 0.7590	43.3690
 0.7600	43.3940
 0.7610	43.4240
 0.7620	43.4440
 0.7630	43.4630
 0.7640	43.4920
 0.7650	43.5050
 0.7660	43.5160
 0.7670	43.5340
 0.7680	43.5580
 0.7690	43.5780
 0.7700	43.5910
 0.7710	43.6000
 0.7720	43.6140
 0.7730	43.6210
 0.7740	43.6350
 0.7750	43.6620
 0.7760	43.6740
 0.7770	43.6820
 0.7780	43.6950
 0.7790	43.7140
 0.7800	43.7270
 0.7810	43.7410
 0.7820	43.7540
 0.7830	43.7610
 0.7840	43.7740
 0.7850	43.7850
 0.7860	43.7930
 0.7870	43.8140
 0.7880	43.8300
 0.7890	43.8400
 0.7900	43.8510
 0.7910	43.8590
 0.7920	43.8630
 0.7930	43.8690
 0.7940	43.8800
 0.7950	43.8970
 0.7960	43.9030
 0.7970	43.8990
 0.7980	43.9040
 0.7990	43.9060
 0.8000	43.9070
 0.8010	43.9130
 0.8020	43.9200
 0.8030	43.9180
 0.8040	43.9150
 0.8050	43.9180
 0.8060	43.9210
 0.8070	43.9220
 0.8080	43.9160
 0.8090	43.9040
 0.8100	43.9040
 0.8110	43.9040
 0.8120	43.8990
 0.8130	43.8900
 0.8140	43.8810
 0.8150	43.8730
 0.8160	43.8650
 0.8170	43.8550
 0.8180	43.8450
 0.8190	43.8360
 0.8200	43.8330
 0.8210	43.8270
 0.8220	43.8220
 0.8230	43.8160
 0.8240	43.8000
 0.8250	43.7810
 0.8260	43.7650
 0.8270	43.7520
 0.8280	43.7330
 0.8290	43.7230
 0.8300	43.7120
 0.8310	43.6910
 0.8320	43.6810
 0.8330	43.6680
 0.8340	43.6550
 0.8350	43.6460
 0.8360	43.6300
 0.8370	43.6140
 0.8380	43.6020
 0.8390	43.5970
 0.8400	43.5980
 0.8410	43.5960
 0.8420	43.5860
 0.8430	43.5760
 0.8440	43.5680
 0.8450	43.5670
 0.8460	43.5680
 0.8470	43.5600
 0.8480	43.5540
 0.8490	43.5490
 0.8500	43.5410
 0.8510	43.5420
 0.8520	43.5450
 0.8530	43.5450
 0.8540	43.5360
 0.8550	43.5350
 0.8560	43.5360
 0.8570	43.5320
 0.8580	43.5200
 0.8590	43.5260
 0.8600	43.5320
 0.8610	43.5290
 0.8620	43.5370
 0.8630	43.5380
 0.8640	43.5340
 0.8650	43.5340
 0.8660	43.5410
 0.8670	43.5420
 0.8680	43.5410
 0.8690	43.5480
 0.8700	43.5450
 0.8710	43.5440
 0.8720	43.5490
 0.8730	43.5530
 0.8740	43.5520
 0.8750	43.5630
 0.8760	43.5770
 0.8770	43.5690
 0.8780	43.5690
 0.8790	43.5750
 0.8800	43.5820
 0.8810	43.5820
 0.8820	43.5930
 0.8830	43.6010
 0.8840	43.6010
 0.8850	43.6130
 0.8860	43.6170
 0.8870	43.6160
 0.8880	43.6170
 0.8890	43.6190
 0.8900	43.6300
 0.8910	43.6420
 0.8920	43.6430
 0.8930	43.6400
 0.8940	43.6450
 0.8950	43.6540
 0.8960	43.6560
 0.8970	43.6490
 0.8980	43.6510
 0.8990	43.6610
 0.9000	43.6600
 0.9010	43.6700
 0.9020	43.6830
 0.9030	43.6880
 0.9040	43.6830
 0.9050	43.6880
 0.9060	43.7010
 0.9070	43.7100
 0.9080	43.7020
 0.9090	43.6950
 0.9100	43.6940
 0.9110	43.6980
 0.9120	43.6970
 0.9130	43.7000
 0.9140	43.7040
 0.9150	43.7030
 0.9160	43.6960
 0.9170	43.6960
 0.9180	43.6960
 0.9190	43.6900
 0.9200	43.6810
 0.9210	43.6750
 0.9220	43.6740
 0.9230	43.6750
 0.9240	43.6650
 0.9250	43.6440
 0.9260	43.6250
 0.9270	43.6180
 0.9280	43.6020
 0.9290	43.5780
 0.9300	43.5560
 0.9310	43.5430
 0.9320	43.5200
 0.9330	43.4950
 0.9340	43.4680
 0.9350	43.4400
 0.9360	43.4100
 0.9370	43.3820
 0.9380	43.3550
 0.9390	43.3210
 0.9400	43.2960
 0.9410	43.2680
 0.9420	43.2290
 0.9430	43.1880
 0.9440	43.1310
 0.9450	43.0780
 0.9460	43.0410
 0.9470	42.9980
 0.9480	42.9330
 0.9490	42.8630
 0.9500	42.7990
 0.9510	42.7150
 0.9520	42.6380
 0.9530	42.5650
 0.9540	42.4880
 0.9550	42.4060
 0.9560	42.3310
 0.9570	42.2640
 0.9580	42.1980
 0.9590	42.1330
 0.9600	42.0730
 0.9610	42.0170
 0.9620	41.9630
 0.9630	41.9250
 0.9640	41.8800
 0.9650	41.8450
 0.9660	41.8350
 0.9670	41.8200
 0.9680	41.8110
 0.9690	41.8040
 0.9700	41.7910
 0.9710	41.7740
 0.9720	41.7620
 0.9730	41.7540
 0.9740	41.7440
 0.9750	41.7510
 0.9760	41.7460
 0.9770	41.7340
 0.9780	41.7390
 0.9790	41.7480
 0.9800	41.7550
 0.9810	41.7620
 0.9820	41.7760
 0.9830	41.7990
 0.9840	41.8160
 0.9850	41.8230
 0.9860	41.8320
 0.9870	41.8760
 0.9880	41.8920
 0.9890	41.8960
 0.9900	41.9310
 0.9910	41.9650
 0.9920	41.9970
 0.9930	42.0300
 0.9940	42.0630
 0.9950	42.0960
 0.9960	42.1290
 0.9970	42.1620
 0.9980	42.1940
 0.9990	42.2270
 1.0000	42.2600
 1.0010	42.2930
 1.0020	42.3260
 1.0030	42.3590
 1.0040	42.3920
 1.0050	42.4240
 1.0060	42.4570
 1.0070	42.4900
 1.0080	42.5230
 1.0090	42.5560
 1.0100	42.5560
 1.0110	42.5870
 1.0120	42.6120
 1.0130	42.6380
 1.0140	42.6610
 1.0150	42.6770
 1.0160	42.6940
 1.0170	42.7180
 1.0180	42.7420
 1.0190	42.7680
 1.0200	42.7930
 1.0210	42.8140
 1.0220	42.8340
 1.0230	42.8580
 1.0240	42.8850
 1.0250	42.9080
 1.0260	42.9350
 1.0270	42.9570
 1.0280	42.9740
 1.0290	42.9920
 1.0300	43.0110
 1.0310	43.0280
 1.0320	43.0420
 1.0330	43.0610
 1.0340	43.0750
 1.0350	43.0890
 1.0360	43.1050
 1.0370	43.1160
 1.0380	43.1300
 1.0390	43.1440
 1.0400	43.1570
 1.0410	43.1700
 1.0420	43.1840
 1.0430	43.1980
 1.0440	43.2120
 1.0450	43.2260
 1.0460	43.2390
 1.0470	43.2510
 1.0480	43.2630
 1.0490	43.2780
 1.0500	43.2870
 1.0510	43.2930
 1.0520	43.2970
 1.0530	43.3050
 1.0540	43.3090
 1.0550	43.3180
 1.0560	43.3320
 1.0570	43.3420
 1.0580	43.3510
 1.0590	43.3580
 1.0600	43.3630
 1.0610	43.3670
 1.0620	43.3680
 1.0630	43.3710
 1.0640	43.3750
 1.0650	43.3780
 1.0660	43.3810
 1.0670	43.3850
 1.0680	43.3890
 1.0690	43.3940
 1.0700	43.3940
 1.0710	43.3930
 1.0720	43.3920
 1.0730	43.3880
 1.0740	43.3870
 1.0750	43.3890
 1.0760	43.3860
 1.0770	43.3780
 1.0780	43.3740
 1.0790	43.3700
 1.0800	43.3650
 1.0810	43.3620
 1.0820	43.3570
 1.0830	43.3520
 1.0840	43.3450
 1.0850	43.3370
 1.0860	43.3270
 1.0870	43.3150
 1.0880	43.3000
 1.0890	43.2880
 1.0900	43.2750
 1.0910	43.2640
 1.0920	43.2550
 1.0930	43.2440
 1.0940	43.2340
 1.0950	43.2220
 1.0960	43.2060
 1.0970	43.1920
 1.0980	43.1790
 1.0990	43.1640
 1.1000	43.1480
 1.1010	43.1310
 1.1020	43.1130
 1.1030	43.0960
 1.1040	43.0780
 1.1050	43.0600
 1.1060	43.0420
 1.1070	43.0260
 1.1080	43.0070
 1.1090	42.9880
 1.1100	42.9670
 1.1110	42.9420
 1.1120	42.9180
 1.1130	42.8960
 1.1140	42.8700
 1.1150	42.8410
 1.1160	42.8120
 1.1170	42.7830
 1.1180	42.7480
 1.1190	42.7100
 1.1200	42.6700
 1.1210	42.6250
 1.1220	42.5760
 1.1230	42.5290
 1.1240	42.4780
 1.1250	42.4210
 1.1260	42.3610
 1.1270	42.2930
 1.1280	42.2200
 1.1290	42.1390
 1.1300	42.0510
 1.1310	41.9550
 1.1320	41.8530
 1.1330	41.7440
 1.1340	41.6280
 1.1350	41.5030
 1.1360	41.3700
 1.1370	41.2300
 1.1380	41.0810
 1.1390	40.9270
 1.1400	40.7710
 1.1410	40.6110
 1.1420	40.4490
 1.1430	40.2850
 1.1440	40.1190
 1.1450	39.9470
 1.1460	39.7860
 1.1470	39.6220
 1.1480	39.4700
 1.1490	39.3250
 1.1500	39.1890
 1.1510	39.0590
 1.1520	38.9400
 1.1530	38.8260
 1.1540	38.7260
 1.1550	38.6370
 1.1560	38.5580
 1.1570	38.4920
 1.1580	38.4360
 1.1590	38.3870
 1.1600	38.3460
 1.1610	38.3130
 1.1620	38.2840
 1.1630	38.2620
 1.1640	38.2460
 1.1650	38.2320
 1.1660	38.2220
 1.1670	38.2150
 1.1680	38.2110
 1.1690	38.2080
 1.1700	38.2080
 1.1710	38.2080
 1.1720	38.2100
 1.1730	38.2090
 1.1740	38.2100
 1.1750	38.2080
 1.1760	38.2040
 1.1770	38.2000
 1.1780	38.1950
 1.1790	38.1890
 1.1800	38.1810
 1.1810	38.1730
 1.1820	38.1640
 1.1830	38.1530
 1.1840	38.1440
 1.1850	38.1360
 1.1860	38.1270
 1.1870	38.1200
 1.1880	38.1120
 1.1890	38.1030
 1.1900	38.0970
 1.1910	38.0920
 1.1920	38.0880
 1.1930	38.0870
 1.1940	38.0850
 1.1950	38.0820
 1.1960	38.0810
 1.1970	38.0820
 1.1980	38.0840
 1.1990	38.0910
 1.2000	38.0980
 1.2010	38.1050
 1.2020	38.1160
 1.2030	38.1260
 1.2040	38.1380
 1.2050	38.1540
 1.2060	38.1710
 1.2070	38.1870
 1.2080	38.2060
 1.2090	38.2250
 1.2100	38.2460
 1.2110	38.2670
 1.2120	38.2910
 1.2130	38.3150
 1.2140	38.3390
 1.2150	38.3670
 1.2160	38.3980
 1.2170	38.4290
 1.2180	38.4610
 1.2190	38.4920
 1.2200	38.5210
 1.2210	38.5510
 1.2220	38.5830
 1.2230	38.6140
 1.2240	38.6460
 1.2250	38.6760
 1.2260	38.7050
 1.2270	38.7320
 1.2280	38.7580
 1.2290	38.7860
 1.2300	38.8110
 1.2310	38.8340
 1.2320	38.8570
 1.2330	38.8770
 1.2340	38.8980
 1.2350	38.9190
 1.2360	38.9400
 1.2370	38.9610
 1.2380	38.9790
 1.2390	38.9970
 1.2400	39.0150
 1.2410	39.0300
 1.2420	39.0470
 1.2430	39.0640
 1.2440	39.0760
 1.2450	39.0900
 1.2460	39.1050
 1.2470	39.1170
 1.2480	39.1290
 1.2490	39.1420
 1.2500	39.1530
 1.2510	39.1630
 1.2520	39.1730
 1.2530	39.1800
 1.2540	39.1860
 1.2550	39.1900
 1.2560	39.1960
 1.2570	39.2030
 1.2580	39.2060
 1.2590	39.2090
 1.2600	39.2100
 1.2610	39.2100
 1.2620	39.2080
 1.2630	39.2060
 1.2640	39.2020
 1.2650	39.1990
 1.2660	39.1940
 1.2670	39.1880
 1.2680	39.1830
 1.2690	39.1790
 1.2700	39.1700
 1.2710	39.1590
 1.2720	39.1480
 1.2730	39.1320
 1.2740	39.1160
 1.2750	39.0990
 1.2760	39.0780
 1.2770	39.0580
 1.2780	39.0380
 1.2790	39.0180
 1.2800	38.9960
 1.2810	38.9700
 1.2820	38.9440
 1.2830	38.9170
 1.2840	38.8870
 1.2850	38.8580
 1.2860	38.8270
 1.2870	38.7940
 1.2880	38.7590
 1.2890	38.7250
 1.2900	38.6870
 1.2910	38.6480
 1.2920	38.6060
 1.2930	38.5590
 1.2940	38.5140
 1.2950	38.4640
 1.2960	38.4090
 1.2970	38.3530
 1.2980	38.2940
 1.2990	38.2320
 1.3000	38.1710
 1.3010	38.1080
 1.3020	38.0400
 1.3030	37.9710
 1.3040	37.8980
 1.3050	37.8200
 1.3060	37.7400
 1.3070	37.6580
 1.3080	37.5720
 1.3090	37.4840
 1.3100	37.3950
 1.3110	37.3010
 1.3120	37.2010
 1.3130	37.1000
 1.3140	36.9940
 1.3150	36.8840
 1.3160	36.7720
 1.3170	36.6580
 1.3180	36.5400
 1.3190	36.4180
 1.3200	36.2920
 1.3210	36.1620
 1.3220	36.0290
 1.3230	35.8940
 1.3240	35.7570
 1.3250	35.6190
 1.3260	35.4760
 1.3270	35.3290
 1.3280	35.1790
 1.3290	35.0260
 1.3300	34.8710
 1.3310	34.7160
 1.3320	34.5580
 1.3330	34.4010
 1.3340	34.2430
 1.3350	34.0840
 1.3360	33.9260
 1.3370	33.7660
 1.3380	33.6080
 1.3390	33.4510
 1.3400	33.2940
 1.3410	33.1400
 1.3420	32.9870
 1.3430	32.8350
 1.3440	32.6870
 1.3450	32.5370
 1.3460	32.3870
 1.3470	32.2410
 1.3480	32.0930
 1.3490	31.9480
 1.3500	31.8080
 1.3510	31.6660
 1.3520	31.5250
 1.3530	31.3850
 1.3540	31.2430
 1.3550	31.1020
 1.3560	30.9600
 1.3570	30.8170
 1.3580	30.6740
 1.3590	30.5290
 1.3600	30.3790
 1.3610	30.2250
 1.3620	30.0650
 1.3630	29.8990
 1.3640	29.7270
 1.3650	29.5490
 1.3660	29.3630
 1.3670	29.1690
 1.3680	28.9640
 1.3690	28.7460
 1.3700	28.5150
 1.3710	28.2720
 1.3720	28.0160
 1.3730	27.7450
 1.3740	27.4600
 1.3750	27.1560
 1.3760	26.8330
 1.3770	26.4920
 1.3780	26.1290
 1.3790	25.7480
 1.3800	25.3510
 1.3810	24.9330
 1.3820	24.5030
 1.3830	24.0590
 1.3840	23.6040
 1.3850	23.1330
 1.3860	22.6590
 1.3870	22.1700
 1.3880	21.6860
 1.3890	21.1990
 1.3900	20.7090
 1.3910	20.2280
 1.3920	19.7480
 1.3930	19.2730
 1.3940	18.8080
 1.3950	18.3490
 1.3960	17.9030
 1.3970	17.4720
 1.3980	17.0570
 1.3990	16.6650
 1.4000	16.2900
 1.4010	15.9330
 1.4020	15.5960
 1.4030	15.2760
 1.4040	14.9770
 1.4050	14.6980
 1.4060	14.4370
 1.4070	14.1980
 1.4080	13.9770
 1.4090	13.7710
 1.4100	13.5840
 1.4110	13.4130
 1.4120	13.2550
 1.4130	13.1130
 1.4140	12.9840
 1.4150	12.8680
 1.4160	12.7630
 1.4170	12.6680
 1.4180	12.5840
 1.4190	12.5090
 1.4200	12.4410
 1.4210	12.3820
 1.4220	12.3300
 1.4230	12.2840
 1.4240	12.2440
 1.4250	12.2100
 1.4260	12.1820
 1.4270	12.1560
 1.4280	12.1350
 1.4290	12.1170
 1.4300	12.1030
 1.4310	12.0920
 1.4320	12.0860
 1.4330	12.0810
 1.4340	12.0790
 1.4350	12.0800
 1.4360	12.0840
 1.4370	12.0890
 1.4380	12.0950
 1.4390	12.1040
 1.4400	12.1130
 1.4410	12.1250
 1.4420	12.1370
 1.4430	12.1500
 1.4440	12.1640
 1.4450	12.1790
 1.4460	12.1930
 1.4470	12.2090
 1.4480	12.2250
 1.4490	12.2420
 1.4500	12.2590
 1.4510	12.2760
 1.4520	12.2950
 1.4530	12.3130
 1.4540	12.3330
 1.4550	12.3550
 1.4560	12.3760
 1.4570	12.4000
 1.4580	12.4250
 1.4590	12.4500
 1.4600	12.4800
 1.4610	12.5110
 1.4620	12.5460
 1.4630	12.5840
 1.4640	12.6250
 1.4650	12.6690
 1.4660	12.7160
 1.4670	12.7670
 1.4680	12.8210
 1.4690	12.8780
 1.4700	12.9360
 1.4710	12.9960
 1.4720	13.0620
 1.4730	13.1290
 1.4740	13.1990
 1.4750	13.2710
 1.4760	13.3460
 1.4770	13.4220
 1.4780	13.5010
 1.4790	13.5820
 1.4800	13.6630
 1.4810	13.7460
 1.4820	13.8300
 1.4830	13.9160
 1.4840	14.0030
 1.4850	14.0910
 1.4860	14.1790
 1.4870	14.2690
 1.4880	14.3580
 1.4890	14.4480
 1.4900	14.5390
 1.4910	14.6290
 1.4920	14.7230
 1.4930	14.8180
 1.4940	14.9120
 1.4950	15.0070
 1.4960	15.1020
 1.4970	15.1940
 1.4980	15.2880
 1.4990	15.3830
 1.5000	15.4790
 1.5010	15.5760
 1.5020	15.6730
 1.5030	15.7710
 1.5040	15.8670
 1.5050	15.9630
 1.5060	16.0590
 1.5070	16.1550
 1.5080	16.2510
 1.5090	16.3480
 1.5100	16.4440
 1.5110	16.5400
 1.5120	16.6370
 1.5130	16.7320
 1.5140	16.8270
 1.5150	16.9230
 1.5160	17.0160
 1.5170	17.1120
 1.5180	17.2070
 1.5190	17.3010
 1.5200	17.3960
 1.5210	17.4890
 1.5220	17.5820
 1.5230	17.6740
 1.5240	17.7670
 1.5250	17.8600
 1.5260	17.9500
 1.5270	18.0410
 1.5280	18.1300
 1.5290	18.2180
 1.5300	18.3070
 1.5310	18.3950
 1.5320	18.4820
 1.5330	18.5690
 1.5340	18.6560
 1.5350	18.7420
 1.5360	18.8290
 1.5370	18.9140
 1.5380	18.9980
 1.5390	19.0830
 1.5400	19.1660
 1.5410	19.2500
 1.5420	19.3330
 1.5430	19.4150
 1.5440	19.4970
 1.5450	19.5770
 1.5460	19.6560
 1.5470	19.7360
 1.5480	19.8140
 1.5490	19.8930
 1.5500	19.9710
 1.5510	20.0460
 1.5520	20.1210
 1.5530	20.1950
 1.5540	20.2690
 1.5550	20.3450
 1.5560	20.4190
 1.5570	20.4920
 1.5580	20.5640
 1.5590	20.6340
 1.5600	20.7060
 1.5610	20.7760
 1.5620	20.8450
 1.5630	20.9140
 1.5640	20.9820
 1.5650	21.0510
 1.5660	21.1170
 1.5670	21.1830
 1.5680	21.2480
 1.5690	21.3100
 1.5700	21.3730
 1.5710	21.4380
 1.5720	21.5010
 1.5730	21.5640
 1.5740	21.6270
 1.5750	21.6880
 1.5760	21.7500
 1.5770	21.8100
 1.5780	21.8700
 1.5790	21.9280
 1.5800	21.9850
 1.5810	22.0420
 1.5820	22.0980
 1.5830	22.1560
 1.5840	22.2140
 1.5850	22.2680
 1.5860	22.3230
 1.5870	22.3780
 1.5880	22.4320
 1.5890	22.4880
 1.5900	22.5420
 1.5910	22.5950
 1.5920	22.6490
 1.5930	22.7010
 1.5940	22.7520
 1.5950	22.8020
 1.5960	22.8510
 1.5970	22.9000
 1.5980	22.9490
 1.5990	22.9970
 1.6000	23.0460
 1.6010	23.0940
 1.6020	23.1420
 1.6030	23.1900
 1.6040	23.2350
 1.6050	23.2800
 1.6060	23.3240
 1.6070	23.3670
 1.6080	23.4120
 1.6090	23.4550
 1.6100	23.4970
 1.6110	23.5360
 1.6120	23.5750
 1.6130	23.6130
 1.6140	23.6510
 1.6150	23.6890
 1.6160	23.7270
 1.6170	23.7630
 1.6180	23.7960
 1.6190	23.8290
 1.6200	23.8640
 1.6210	23.8970
 1.6220	23.9320
 1.6230	23.9650
 1.6240	23.9970
 1.6250	24.0270
 1.6260	24.0570
 1.6270	24.0860
 1.6280	24.1140
 1.6290	24.1400
 1.6300	24.1630
 1.6310	24.1870
 1.6320	24.2090
 1.6330	24.2300
 1.6340	24.2530
 1.6350	24.2720
 1.6360	24.2860
 1.6370	24.3000
 1.6380	24.3130
 1.6390	24.3230
 1.6400	24.3320
 1.6410	24.3380
 1.6420	24.3400
 1.6430	24.3390
 1.6440	24.3370
 1.6450	24.3310
 1.6460	24.3240
 1.6470	24.3140
 1.6480	24.3010
 1.6490	24.2840
 1.6500	24.2660
 1.6510	24.2480
 1.6520	24.2300
 1.6530	24.2130
 1.6540	24.1950
 1.6550	24.1770
 1.6560	24.1610
 1.6570	24.1460
 1.6580	24.1330
 1.6590	24.1210
 1.6600	24.1110
 1.6610	24.1060
 1.6620	24.1030
 1.6630	24.1040
 1.6640	24.1090
 1.6650	24.1150
 1.6660	24.1250
 1.6670	24.1360
 1.6680	24.1500
 1.6690	24.1640
 1.6700	24.1770
 1.6710	24.1900
 1.6720	24.2020
 1.6730	24.2140
 1.6740	24.2230
 1.6750	24.2280
 1.6760	24.2290
 1.6770	24.2260
 1.6780	24.2210
 1.6790	24.2130
 1.6800	24.2030
 1.6810	24.1880
 1.6820	24.1710
 1.6830	24.1510
 1.6840	24.1280
 1.6850	24.1040
 1.6860	24.0770
 1.6870	24.0470
 1.6880	24.0160
 1.6890	23.9820
 1.6900	23.9470
 1.6910	23.9100
 1.6920	23.8730
 1.6930	23.8360
 1.6940	23.7960
 1.6950	23.7520
 1.6960	23.7080
 1.6970	23.6620
 1.6980	23.6160
 1.6990	23.5700
 1.7000	23.5240
 1.7010	23.4790
 1.7020	23.4330
 1.7030	23.3890
 1.7040	23.3420
 1.7050	23.2920
 1.7060	23.2450
 1.7070	23.1990
 1.7080	23.1530
 1.7090	23.1070
 1.7100	23.0630
 1.7110	23.0200
 1.7120	22.9760
 1.7130	22.9330
 1.7140	22.8890
 1.7150	22.8440
 1.7160	22.8020
 1.7170	22.7620
 1.7180	22.7220
 1.7190	22.6810
 1.7200	22.6390
 1.7210	22.5980
 1.7220	22.5590
 1.7230	22.5200
 1.7240	22.4820
 1.7250	22.4440
 1.7260	22.4050
 1.7270	22.3670
 1.7280	22.3300
 1.7290	22.2940
 1.7300	22.2620
 1.7310	22.2290
 1.7320	22.1990
 1.7330	22.1640
 1.7340	22.1250
 1.7350	22.0860
 1.7360	22.0430
 1.7370	22.0010
 1.7380	21.9590
 1.7390	21.9140
 1.7400	21.8680
 1.7410	21.8180
 1.7420	21.7660
 1.7430	21.7120
 1.7440	21.6560
 1.7450	21.5990
 1.7460	21.5410
 1.7470	21.4830
 1.7480	21.4240
 1.7490	21.3650
 1.7500	21.3060
 1.7510	21.2460
 1.7520	21.1860
 1.7530	21.1260
 1.7540	21.0660
 1.7550	21.0080
 1.7560	20.9510
 1.7570	20.8940
 1.7580	20.8420
 1.7590	20.7920
 1.7600	20.7410
 1.7610	20.6920
 1.7620	20.6440
 1.7630	20.5960
 1.7640	20.5510
 1.7650	20.5100
 1.7660	20.4680
 1.7670	20.4290
 1.7680	20.3890
 1.7690	20.3460
 1.7700	20.3070
 1.7710	20.2700
 1.7720	20.2340
 1.7730	20.2010
 1.7740	20.1660
 1.7750	20.1280
 1.7760	20.0930
 1.7770	20.0600
 1.7780	20.0270
 1.7790	19.9960
 1.7800	19.9670
 1.7810	19.9370
 1.7820	19.9100
 1.7830	19.8850
 1.7840	19.8590
 1.7850	19.8320
 1.7860	19.8080
 1.7870	19.7830
 1.7880	19.7640
 1.7890	19.7470
 1.7900	19.7290
 1.7910	19.7130
 1.7920	19.6960
 1.7930	19.6820
 1.7940	19.6690
 1.7950	19.6570
 1.7960	19.6480
 1.7970	19.6370
 1.7980	19.6240
 1.7990	19.6150
 1.8000	19.6050
 1.8010	19.5980
 1.8020	19.5980
 1.8030	19.5940
 1.8040	19.5880
 1.8050	19.5840
 1.8060	19.5780
 1.8070	19.5750
 1.8080	19.5740
 1.8090	19.5700
 1.8100	19.5640
 1.8110	19.5590
 1.8120	19.5560
 1.8130	19.5550
 1.8140	19.5530
 1.8150	19.5490
 1.8160	19.5450
 1.8170	19.5390
 1.8180	19.5340
 1.8190	19.5270
 1.8200	19.5200
 1.8210	19.5120
 1.8220	19.5020
 1.8230	19.4900
 1.8240	19.4780
 1.8250	19.4620
 1.8260	19.4470
 1.8270	19.4030
 1.8280	19.3600
 1.8290	19.3160
 1.8300	19.2730
 1.8310	19.2290
 1.8320	19.1860
 1.8330	19.1420
 1.8340	19.0990
 1.8350	19.0990
 1.8360	19.0560
 1.8370	19.0100
 1.8380	18.9610
 1.8390	18.9090
 1.8400	18.8540
 1.8410	18.7930
 1.8420	18.7300
 1.8430	18.6600
 1.8440	18.5830
 1.8450	18.4990
 1.8460	18.4110
 1.8470	18.3180
 1.8480	18.2170
 1.8490	18.1060
 1.8500	17.9900
 1.8510	17.8660
 1.8520	17.7340
 1.8530	17.5930
 1.8540	17.4460
 1.8550	17.2910
 1.8560	17.1230
 1.8570	16.9470
 1.8580	16.7620
 1.8590	16.5700
 1.8600	16.3690
 1.8610	16.1620
 1.8620	15.9440
 1.8630	15.7180
 1.8640	15.4810
 1.8650	15.2300
 1.8660	14.9720
 1.8670	14.7040
 1.8680	14.4290
 1.8690	14.1470
 1.8700	13.8600
 1.8710	13.5670
 1.8720	13.2720
 1.8730	12.9730
 1.8740	12.6740
 1.8750	12.3800
 1.8760	12.0850
 1.8770	11.7980
 1.8780	11.5200
 1.8790	11.2440
 1.8800	10.9780
 1.8810	10.7220
 1.8820	10.4710
 1.8830	10.2240
 1.8840	 9.9910
 1.8850	 9.7680
 1.8860	 9.5560
 1.8870	 9.3590
 1.8880	 9.1720
 1.8890	 8.9970
 1.8900	 8.8320
 1.8910	 8.6810
 1.8920	 8.5410
 1.8930	 8.4120
 1.8940	 8.2910
 1.8950	 8.1830
 1.8960	 8.0840
 1.8970	 7.9930
 1.8980	 7.9140
 1.8990	 7.8440
 1.9000	 7.7780
 1.9010	 7.7170
 1.9020	 7.6620
 1.9030	 7.6150
 1.9040	 7.5700
 1.9050	 7.5310
 1.9060	 7.4990
 1.9070	 7.4720
 1.9080	 7.4480
 1.9090	 7.4280
 1.9100	 7.4080
 1.9110	 7.3920
 1.9120	 7.3770
 1.9130	 7.3650
 1.9140	 7.3550
 1.9150	 7.3480
 1.9160	 7.3390
 1.9170	 7.3300
 1.9180	 7.3240
 1.9190	 7.3170
 1.9200	 7.3160
 1.9210	 7.3160
 1.9220	 7.3160
 1.9230	 7.3190
 1.9240	 7.3200
 1.9250	 7.3210
 1.9260	 7.3220
 1.9270	 7.3250
 1.9280	 7.3270
 1.9290	 7.3310
 1.9300	 7.3390
 1.9310	 7.3490
 1.9320	 7.3570
 1.9330	 7.3650
 1.9340	 7.3720
 1.9350	 7.3800
 1.9360	 7.3840
 1.9370	 7.3920
 1.9380	 7.4010
 1.9390	 7.4110
 1.9400	 7.4220
 1.9410	 7.4330
 1.9420	 7.4430
 1.9430	 7.4530
 1.9440	 7.4650
 1.9450	 7.4780
 1.9460	 7.4910
 1.9470	 7.5050
 1.9480	 7.5190
 1.9490	 7.5310
 1.9500	 7.5450
 1.9510	 7.5580
 1.9520	 7.5710
 1.9530	 7.5860
 1.9540	 7.5980
 1.9550	 7.6130
 1.9560	 7.6280
 1.9570	 7.6440
 1.9580	 7.6600
 1.9590	 7.6780
 1.9600	 7.6980
 1.9610	 7.7170
 1.9620	 7.7370
 1.9630	 7.7560
 1.9640	 7.7750
 1.9650	 7.7920
 1.9660	 7.8090
 1.9670	 7.8300
 1.9680	 7.8490
 1.9690	 7.8680
 1.9700	 7.8870
 1.9710	 7.9040
 1.9720	 7.9230
 1.9730	 7.9400
 1.9740	 7.9600
 1.9750	 7.9830
 1.9760	 8.0080
 1.9770	 8.0310
 1.9780	 8.0560
 1.9790	 8.0780
 1.9800	 8.0980
 1.9810	 8.1210
 1.9820	 8.1430
 1.9830	 8.1680
 1.9840	 8.1940
 1.9850	 8.2200
 1.9860	 8.2480
 1.9870	 8.2760
 1.9880	 8.3010
 1.9890	 8.3260
 1.9900	 8.3520
 1.9910	 8.3770
 1.9920	 8.4030
 1.9930	 8.4310
 1.9940	 8.4570
 1.9950	 8.4820
 1.9960	 8.5090
 1.9970	 8.5380
 1.9980	 8.5660
 1.9990	 8.5960
 2.0000	 8.6260
 2.0010	 8.6560
 2.0020	 8.6850
 2.0030	 8.7150
 2.0040	 8.7460
 2.0050	 8.7760
 2.0060	 8.8070
 2.0070	 8.8360
 2.0080	 8.8610
 2.0090	 8.8880
 2.0100	 8.9140
 2.0110	 8.9420
 2.0120	 8.9720
 2.0130	 9.0000
 2.0140	 9.0280
 2.0150	 9.0570
 2.0160	 9.0850
 2.0170	 9.1150
 2.0180	 9.1450
 2.0190	 9.1760
 2.0200	 9.2030
 2.0210	 9.2270
 2.0220	 9.2530
 2.0230	 9.2750
 2.0240	 9.3010
 2.0250	 9.3330
 2.0260	 9.3610
 2.0270	 9.3870
 2.0280	 9.4140
 2.0290	 9.4390
 2.0300	 9.4610
 2.0310	 9.4850
 2.0320	 9.5080
 2.0330	 9.5330
 2.0340	 9.5590
 2.0350	 9.5830
 2.0360	 9.6080
 2.0370	 9.6320
 2.0380	 9.6540
 2.0390	 9.6760
 2.0400	 9.6960
 2.0410	 9.7180
 2.0420	 9.7400
 2.0430	 9.7610
 2.0440	 9.7820
 2.0450	 9.8040
 2.0460	 9.8240
 2.0470	 9.8420
 2.0480	 9.8620
 2.0490	 9.8830
 2.0500	 9.9040
 2.0510	 9.9260
 2.0520	 9.9480
 2.0530	 9.9700
 2.0540	 9.9910
 2.0550	10.0100
 2.0560	10.0290
 2.0570	10.0490
 2.0580	10.0660
 2.0590	10.0840
 2.0600	10.1040
 2.0610	10.1220
 2.0620	10.1390
 2.0630	10.1570
 2.0640	10.1750
 2.0650	10.1950
 2.0660	10.2170
 2.0670	10.2380
 2.0680	10.2610
 2.0690	10.2820
 2.0700	10.2990
 2.0710	10.3180
 2.0720	10.3380
 2.0730	10.3560
 2.0740	10.3750
 2.0750	10.3980
 2.0760	10.4160
 2.0770	10.4320
 2.0780	10.4490
 2.0790	10.4620
 2.0800	10.4790
 2.0810	10.4990
 2.0820	10.5190
 2.0830	10.5420
 2.0840	10.5600
 2.0850	10.5750
 2.0860	10.5930
 2.0870	10.6100
 2.0880	10.6270
 2.0890	10.6480
 2.0900	10.6730
 2.0910	10.6940
 2.0920	10.7150
 2.0930	10.7340
 2.0940	10.7500
 2.0950	10.7670
 2.0960	10.7830
 2.0970	10.8000
 2.0980	10.8160
 2.0990	10.8330
 2.1000	10.8510
 2.1010	10.8690
 2.1020	10.8900
 2.1030	10.9080
 2.1040	10.9260
 2.1050	10.9450
 2.1060	10.9630
 2.1070	10.9790
 2.1080	10.9960
 2.1090	11.0150
 2.1100	11.0320
 2.1110	11.0500
 2.1120	11.0650
 2.1130	11.0750
 2.1140	11.0890
 2.1150	11.1020
 2.1160	11.1160
 2.1170	11.1330
 2.1180	11.1470
 2.1190	11.1580
 2.1200	11.1700
 2.1210	11.1820
 2.1220	11.1940
 2.1230	11.2070
 2.1240	11.2200
 2.1250	11.2340
 2.1260	11.2500
 2.1270	11.2630
 2.1280	11.2760
 2.1290	11.2890
 2.1300	11.3010
 2.1310	11.3140
 2.1320	11.3280
 2.1330	11.3400
 2.1340	11.3500
 2.1350	11.3620
 2.1360	11.3750
 2.1370	11.3880
 2.1380	11.4030
 2.1390	11.4190
 2.1400	11.4350
 2.1410	11.4510
 2.1420	11.4670
 2.1430	11.4830
 2.1440	11.4980
 2.1450	11.5120
 2.1460	11.5260
 2.1470	11.5380
 2.1480	11.5520
 2.1490	11.5670
 2.1500	11.5810
 2.1510	11.5950
 2.1520	11.6080
 2.1530	11.6190
 2.1540	11.6310
 2.1550	11.6450
 2.1560	11.6590
 2.1570	11.6740
 2.1580	11.6890
 2.1590	11.7030
 2.1600	11.7180
 2.1610	11.7350
 2.1620	11.7480
 2.1630	11.7610
 2.1640	11.7740
 2.1650	11.7860
 2.1660	11.7960
 2.1670	11.8070
 2.1680	11.8200
 2.1690	11.8300
 2.1700	11.8400
 2.1710	11.8480
 2.1720	11.8540
 2.1730	11.8610
 2.1740	11.8650
 2.1750	11.8740
 2.1760	11.8850
 2.1770	11.8950
 2.1780	11.9070
 2.1790	11.9160
 2.1800	11.9220
 2.1810	11.9300
 2.1820	11.9380
 2.1830	11.9490
 2.1840	11.9600
 2.1850	11.9740
 2.1860	11.9850
 2.1870	11.9980
 2.1880	12.0080
 2.1890	12.0150
 2.1900	12.0260
 2.1910	12.0360
 2.1920	12.0470
 2.1930	12.0630
 2.1940	12.0720
 2.1950	12.0760
 2.1960	12.0830
 2.1970	12.0900
 2.1980	12.0970
 2.1990	12.1070
 2.2000	12.1160
 2.2010	12.1240
 2.2020	12.1320
 2.2030	12.1390
 2.2040	12.1470
 2.2050	12.1530
 2.2060	12.1620
 2.2070	12.1690
 2.2080	12.1760
 2.2090	12.1840
 2.2100	12.1920
 2.2110	12.1980
 2.2120	12.2040
 2.2130	12.2080
 2.2140	12.2060
 2.2150	12.2100
 2.2160	12.2160
 2.2170	12.2210
 2.2180	12.2300
 2.2190	12.2330
 2.2200	12.2310
 2.2210	12.2290
 2.2220	12.2250
 2.2230	12.2200
 2.2240	12.2150
 2.2250	12.2100
 2.2260	12.2060
 2.2270	12.1990
 2.2280	12.1910
 2.2290	12.1820
 2.2300	12.1680
 2.2310	12.1560
 2.2320	12.1450
 2.2330	12.1320
 2.2340	12.1170
 2.2350	12.1000
 2.2360	12.0840
 2.2370	12.0670
 2.2380	12.0480
 2.2390	12.0290
 2.2400	12.0070
 2.2410	11.9830
 2.2420	11.9570
 2.2430	11.9300
 2.2440	11.9050
 2.2450	11.8790
 2.2460	11.8500
 2.2470	11.8210
 2.2480	11.7910
 2.2490	11.7540
 2.2500	11.7240
 2.2510	11.7000
 2.2520	11.6720
 2.2530	11.6480
 2.2540	11.6200
 2.2550	11.5860
 2.2560	11.5540
 2.2570	11.5200
 2.2580	11.4870
 2.2590	11.4560
 2.2600	11.4250
 2.2610	11.3910
 2.2620	11.3620
 2.2630	11.3310
 2.2640	11.2980
 2.2650	11.2670
 2.2660	11.2380
 2.2670	11.2090
 2.2680	11.1820
 2.2690	11.1530
 2.2700	11.1220
 2.2710	11.0900
 2.2720	11.0560
 2.2730	11.0230
 2.2740	10.9890
 2.2750	10.9580
 2.2760	10.9290
 2.2770	10.8980
 2.2780	10.8680
 2.2790	10.8400
 2.2800	10.8120
 2.2810	10.7840
 2.2820	10.7590
 2.2830	10.7330
 2.2840	10.7040
 2.2850	10.6770
 2.2860	10.6510
 2.2870	10.6230
 2.2880	10.5980
 2.2890	10.5680
 2.2900	10.5320
 2.2910	10.4980
 2.2920	10.4620
 2.2930	10.4280
 2.2940	10.3990
 2.2950	10.3670
 2.2960	10.3290
 2.2970	10.2990
 2.2980	10.2720
 2.2990	10.2440
 2.3000	10.2200
 2.3010	10.1970
 2.3020	10.1660
 2.3030	10.1390
 2.3040	10.1170
 2.3050	10.0970
 2.3060	10.0810
 2.3070	10.0640
 2.3080	10.0470
 2.3090	10.0330
 2.3100	10.0220
 2.3110	10.0110
 2.3120	10.0020
 2.3130	 9.9940
 2.3140	 9.9860
 2.3150	 9.9800
 2.3160	 9.9730
 2.3170	 9.9680
 2.3180	 9.9550
 2.3190	 9.9370
 2.3200	 9.9200
 2.3210	 9.8980
 2.3220	 9.8810
 2.3230	 9.8670
 2.3240	 9.8500
 2.3250	 9.8330
 2.3260	 9.8140
 2.3270	 9.7930
 2.3280	 9.7710
 2.3290	 9.7470
 2.3300	 9.7230
 2.3310	 9.6950
 2.3320	 9.6760
 2.3330	 9.6640
 2.3340	 9.6480
 2.3350	 9.6370
 2.3360	 9.6210
 2.3370	 9.5950
 2.3380	 9.5760
 2.3390	 9.5640
 2.3400	 9.5450
 2.3410	 9.5230
 2.3420	 9.5040
 2.3430	 9.4820
 2.3440	 9.4630
 2.3450	 9.4490
 2.3460	 9.4340
 2.3470	 9.4170
 2.3480	 9.4000
 2.3490	 9.3800
 2.3500	 9.3670
 2.3510	 9.3570
 2.3520	 9.3480
 2.3530	 9.3390
 2.3540	 9.3410
 2.3550	 9.3350
 2.3560	 9.3220
 2.3570	 9.3090
 2.3580	 9.2880
 2.3590	 9.2640
 2.3600	 9.2410
 2.3610	 9.2270
 2.3620	 9.2130
 2.3630	 9.1950
 2.3640	 9.1830
 2.3650	 9.1640
 2.3660	 9.1400
 2.3670	 9.1250
 2.3680	 9.1080
 2.3690	 9.0850
 2.3700	 9.0710
 2.3710	 9.0590
 2.3720	 9.0460
 2.3730	 9.0330
 2.3740	 9.0210
 2.3750	 9.0100
 2.3760	 8.9940
 2.3770	 8.9830
 2.3780	 8.9740
 2.3790	 8.9520
 2.3800	 8.9360
 2.3810	 8.9170
 2.3820	 8.8870
 2.3830	 8.8690
 2.3840	 8.8490
 2.3850	 8.8360
 2.3860	 8.8320
 2.3870	 8.8100
 2.3880	 8.7840
 2.3890	 8.7570
 2.3900	 8.7310
 2.3910	 8.7190
 2.3920	 8.7110
 2.3930	 8.7030
 2.3940	 8.6870
 2.3950	 8.6650
 2.3960	 8.6490
 2.3970	 8.6300
 2.3980	 8.6130
 2.3990	 8.6010
 2.4000	 8.5800
 2.4010	 8.5520
 2.4020	 8.5250
 2.4030	 8.5040
 2.4040	 8.4830
 2.4050	 8.4600
 2.4060	 8.4430
 2.4070	 8.4210
 2.4080	 8.4020
 2.4090	 8.4020
 2.4100	 8.3930
 2.4110	 8.3760
 2.4120	 8.3630
 2.4130	 8.3340
 2.4140	 8.3030
 2.4150	 8.2790
 2.4160	 8.2610
 2.4170	 8.2470
 2.4180	 8.2450
 2.4190	 8.2460
 2.4200	 8.2310
 2.4210	 8.2100
 2.4220	 8.1790
 2.4230	 8.1480
 2.4240	 8.1310
 2.4250	 8.1200
 2.4260	 8.1110
 2.4270	 8.0950
 2.4280	 8.0750
 2.4290	 8.0550
 2.4300	 8.0340
 2.4310	 8.0190
 2.4320	 8.0020
 2.4330	 7.9850
 2.4340	 7.9730
 2.4350	 7.9540
 2.4360	 7.9370
 2.4370	 7.9100
 2.4380	 7.8760
 2.4390	 7.8700
 2.4400	 7.8600
 2.4410	 7.8410
 2.4420	 7.8380
 2.4430	 7.8110
 2.4440	 7.7880
 2.4450	 7.7820
 2.4460	 7.7820
 2.4470	 7.7910
 2.4480	 7.7710
 2.4490	 7.7410
 2.4500	 7.6980
 2.4510	 7.6540
 2.4520	 7.6210
 2.4530	 7.5990
 2.4540	 7.6000
 2.4550	 7.5820
 2.4560	 7.5710
 2.4570	 7.5740
 2.4580	 7.5420
 2.4590	 7.5120
 2.4600	 7.5000
 2.4610	 7.4750
 2.4620	 7.4780
 2.4630	 7.4890
 2.4640	 7.4860
 2.4650	 7.4910
 2.4660	 7.4950
 2.4670	 7.4900
 2.4680	 7.4710
 2.4690	 7.4350
 2.4700	 7.4170
 2.4710	 7.4200
 2.4720	 7.4130
 2.4730	 7.4150
 2.4740	 7.4030
 2.4750	 7.3650
 2.4760	 7.3520
 2.4770	 7.3500
 2.4780	 7.3370
 2.4790	 7.3370
 2.4800	 7.3190
 2.4810	 7.2780
 2.4820	 7.2650
 2.4830	 7.2590
 2.4840	 7.2910
 2.4850	 7.2920
 2.4860	 7.2730
 2.4870	 7.2680
 2.4880	 7.2570
 2.4890	 7.2720
 2.4900	 7.2840
 2.4910	 7.2970
 2.4920	 7.2960
 2.4930	 7.2720
 2.4940	 7.2550
 2.4950	 7.2400
 2.4960	 7.2360
 2.4970	 7.2170
 2.4980	 7.2150
 2.4990	 7.2300
 2.5000	 7.2280
