Name: Pinus lambertiana 1
Type: vegetation
Class: Tree
Genus: Pinus
Species: lambertiana
Sample No.: VH243
Owner: UCSB
Wavelength Range: VSWIR
Origin: 37.043; -119.3043; WGS84
Collection Date: 11/2/2013
Description: Samples were collected as part of the HyspIRI Airborne Campaign. 48 individual plants were sampled in three times in 2013 - spring  summer  and fall. The name of the sample includes a 1  2  or 3 which references a different individual of the species. Samples were taken to JPL and processed within 48 hours of collection. The same leaves were processed in the Nicolet and then measured using the ASD.
Measurement: Bidirectional reflectance
First Column: X
Second Column: Y
X Units: Wavelength (micrometers)
Y Units: Reflectance (percentage)
First X Value: 0.35
Last X Value: 2.5
Number of X Values: 2151
Additional Information: vegetation.tree.pinus.lambertiana.vswir.vh243.ucsb.asd.ancillary.txt

 0.3500	 4.9160
 0.3510	 4.6670
 0.3520	 4.6430
 0.3530	 4.6820
 0.3540	 4.6330
 0.3550	 4.7220
 0.3560	 4.7510
 0.3570	 4.7240
 0.3580	 4.7440
 0.3590	 4.7020
 0.3600	 4.7550
 0.3610	 4.8680
 0.3620	 4.7210
 0.3630	 4.6020
 0.3640	 4.5920
 0.3650	 4.6570
 0.3660	 4.5860
 0.3670	 4.5350
 0.3680	 4.5360
 0.3690	 4.5290
 0.3700	 4.5850
 0.3710	 4.6220
 0.3720	 4.6050
 0.3730	 4.6280
 0.3740	 4.6340
 0.3750	 4.5910
 0.3760	 4.5090
 0.3770	 4.5360
 0.3780	 4.6070
 0.3790	 4.6450
 0.3800	 4.5900
 0.3810	 4.5590
 0.3820	 4.5720
 0.3830	 4.6090
 0.3840	 4.6150
 0.3850	 4.6060
 0.3860	 4.5890
 0.3870	 4.5710
 0.3880	 4.5550
 0.3890	 4.5260
 0.3900	 4.5000
 0.3910	 4.5170
 0.3920	 4.5460
 0.3930	 4.5420
 0.3940	 4.5080
 0.3950	 4.5740
 0.3960	 4.5640
 0.3970	 4.5100
 0.3980	 4.5340
 0.3990	 4.5920
 0.4000	 4.5980
 0.4010	 4.5530
 0.4020	 4.5690
 0.4030	 4.5900
 0.4040	 4.6040
 0.4050	 4.6110
 0.4060	 4.6140
 0.4070	 4.6290
 0.4080	 4.6550
 0.4090	 4.6810
 0.4100	 4.7180
 0.4110	 4.7480
 0.4120	 4.7650
 0.4130	 4.7960
 0.4140	 4.8380
 0.4150	 4.8900
 0.4160	 4.9460
 0.4170	 4.9710
 0.4180	 4.9970
 0.4190	 5.0360
 0.4200	 5.0760
 0.4210	 5.1150
 0.4220	 5.1580
 0.4230	 5.2060
 0.4240	 5.2440
 0.4250	 5.2850
 0.4260	 5.3330
 0.4270	 5.3820
 0.4280	 5.4060
 0.4290	 5.4320
 0.4300	 5.4700
 0.4310	 5.5090
 0.4320	 5.5360
 0.4330	 5.5590
 0.4340	 5.5860
 0.4350	 5.6130
 0.4360	 5.6440
 0.4370	 5.6760
 0.4380	 5.7000
 0.4390	 5.7250
 0.4400	 5.7530
 0.4410	 5.7800
 0.4420	 5.7930
 0.4430	 5.8120
 0.4440	 5.8350
 0.4450	 5.8580
 0.4460	 5.8760
 0.4470	 5.8830
 0.4480	 5.8870
 0.4490	 5.9130
 0.4500	 5.9310
 0.4510	 5.9450
 0.4520	 5.9630
 0.4530	 5.9780
 0.4540	 5.9910
 0.4550	 6.0020
 0.4560	 6.0070
 0.4570	 6.0200
 0.4580	 6.0350
 0.4590	 6.0430
 0.4600	 6.0470
 0.4610	 6.0510
 0.4620	 6.0560
 0.4630	 6.0610
 0.4640	 6.0690
 0.4650	 6.0730
 0.4660	 6.0750
 0.4670	 6.0860
 0.4680	 6.0960
 0.4690	 6.0930
 0.4700	 6.0780
 0.4710	 6.0890
 0.4720	 6.1040
 0.4730	 6.1140
 0.4740	 6.1160
 0.4750	 6.1160
 0.4760	 6.1200
 0.4770	 6.1270
 0.4780	 6.1280
 0.4790	 6.1360
 0.4800	 6.1450
 0.4810	 6.1430
 0.4820	 6.1390
 0.4830	 6.1410
 0.4840	 6.1480
 0.4850	 6.1550
 0.4860	 6.1610
 0.4870	 6.1700
 0.4880	 6.1830
 0.4890	 6.1970
 0.4900	 6.2150
 0.4910	 6.2360
 0.4920	 6.2550
 0.4930	 6.2660
 0.4940	 6.2820
 0.4950	 6.3080
 0.4960	 6.3420
 0.4970	 6.3740
 0.4980	 6.4070
 0.4990	 6.4460
 0.5000	 6.4880
 0.5010	 6.5370
 0.5020	 6.5920
 0.5030	 6.6490
 0.5040	 6.7140
 0.5050	 6.7840
 0.5060	 6.8590
 0.5070	 6.9470
 0.5080	 7.0420
 0.5090	 7.1420
 0.5100	 7.2480
 0.5110	 7.3710
 0.5120	 7.5020
 0.5130	 7.6350
 0.5140	 7.7750
 0.5150	 7.9370
 0.5160	 8.1080
 0.5170	 8.2790
 0.5180	 8.4630
 0.5190	 8.6520
 0.5200	 8.8410
 0.5210	 9.0320
 0.5220	 9.2200
 0.5230	 9.4110
 0.5240	 9.6040
 0.5250	 9.7830
 0.5260	 9.9550
 0.5270	10.1200
 0.5280	10.2730
 0.5290	10.4100
 0.5300	10.5420
 0.5310	10.6710
 0.5320	10.7900
 0.5330	10.8970
 0.5340	10.9920
 0.5350	11.0770
 0.5360	11.1590
 0.5370	11.2330
 0.5380	11.2990
 0.5390	11.3550
 0.5400	11.4080
 0.5410	11.4580
 0.5420	11.5080
 0.5430	11.5530
 0.5440	11.6020
 0.5450	11.6520
 0.5460	11.6940
 0.5470	11.7400
 0.5480	11.7900
 0.5490	11.8360
 0.5500	11.8740
 0.5510	11.8990
 0.5520	11.9160
 0.5530	11.9290
 0.5540	11.9320
 0.5550	11.9230
 0.5560	11.9010
 0.5570	11.8700
 0.5580	11.8260
 0.5590	11.7720
 0.5600	11.7090
 0.5610	11.6330
 0.5620	11.5560
 0.5630	11.4770
 0.5640	11.3890
 0.5650	11.3000
 0.5660	11.2050
 0.5670	11.1020
 0.5680	11.0000
 0.5690	10.8940
 0.5700	10.7850
 0.5710	10.6750
 0.5720	10.5690
 0.5730	10.4720
 0.5740	10.3840
 0.5750	10.3050
 0.5760	10.2250
 0.5770	10.1450
 0.5780	10.0670
 0.5790	 9.9930
 0.5800	 9.9260
 0.5810	 9.8630
 0.5820	 9.8040
 0.5830	 9.7480
 0.5840	 9.6960
 0.5850	 9.6450
 0.5860	 9.5880
 0.5870	 9.5330
 0.5880	 9.4840
 0.5890	 9.4470
 0.5900	 9.4190
 0.5910	 9.3920
 0.5920	 9.3640
 0.5930	 9.3420
 0.5940	 9.3250
 0.5950	 9.3100
 0.5960	 9.2940
 0.5970	 9.2780
 0.5980	 9.2570
 0.5990	 9.2340
 0.6000	 9.2100
 0.6010	 9.1870
 0.6020	 9.1580
 0.6030	 9.1250
 0.6040	 9.0990
 0.6050	 9.0620
 0.6060	 9.0180
 0.6070	 8.9720
 0.6080	 8.9270
 0.6090	 8.8760
 0.6100	 8.8190
 0.6110	 8.7610
 0.6120	 8.7060
 0.6130	 8.6560
 0.6140	 8.6090
 0.6150	 8.5620
 0.6160	 8.5180
 0.6170	 8.4770
 0.6180	 8.4370
 0.6190	 8.4000
 0.6200	 8.3680
 0.6210	 8.3390
 0.6220	 8.3160
 0.6230	 8.2990
 0.6240	 8.2860
 0.6250	 8.2770
 0.6260	 8.2670
 0.6270	 8.2610
 0.6280	 8.2600
 0.6290	 8.2610
 0.6300	 8.2570
 0.6310	 8.2550
 0.6320	 8.2530
 0.6330	 8.2420
 0.6340	 8.2290
 0.6350	 8.2080
 0.6360	 8.1740
 0.6370	 8.1290
 0.6380	 8.0780
 0.6390	 8.0210
 0.6400	 7.9590
 0.6410	 7.8910
 0.6420	 7.8210
 0.6430	 7.7540
 0.6440	 7.6880
 0.6450	 7.6180
 0.6460	 7.5490
 0.6470	 7.4880
 0.6480	 7.4340
 0.6490	 7.3880
 0.6500	 7.3480
 0.6510	 7.3170
 0.6520	 7.2870
 0.6530	 7.2610
 0.6540	 7.2400
 0.6550	 7.2170
 0.6560	 7.1920
 0.6570	 7.1620
 0.6580	 7.1300
 0.6590	 7.0890
 0.6600	 7.0470
 0.6610	 7.0070
 0.6620	 6.9660
 0.6630	 6.9260
 0.6640	 6.8870
 0.6650	 6.8530
 0.6660	 6.8280
 0.6670	 6.8040
 0.6680	 6.7830
 0.6690	 6.7710
 0.6700	 6.7630
 0.6710	 6.7600
 0.6720	 6.7630
 0.6730	 6.7710
 0.6740	 6.7800
 0.6750	 6.7910
 0.6760	 6.8060
 0.6770	 6.8270
 0.6780	 6.8490
 0.6790	 6.8760
 0.6800	 6.9120
 0.6810	 6.9500
 0.6820	 6.9970
 0.6830	 7.0580
 0.6840	 7.1290
 0.6850	 7.2160
 0.6860	 7.3250
 0.6870	 7.4610
 0.6880	 7.6280
 0.6890	 7.8360
 0.6900	 8.0910
 0.6910	 8.3990
 0.6920	 8.7680
 0.6930	 9.1930
 0.6940	 9.6730
 0.6950	10.2180
 0.6960	10.8170
 0.6970	11.4630
 0.6980	12.1520
 0.6990	12.8870
 0.7000	13.6570
 0.7010	14.4560
 0.7020	15.2770
 0.7030	16.1160
 0.7040	16.9680
 0.7050	17.8300
 0.7060	18.7040
 0.7070	19.5750
 0.7080	20.4410
 0.7090	21.3110
 0.7100	22.1910
 0.7110	23.0660
 0.7120	23.9350
 0.7130	24.8100
 0.7140	25.6790
 0.7150	26.5400
 0.7160	27.3960
 0.7170	28.2470
 0.7180	29.0890
 0.7190	29.9150
 0.7200	30.7240
 0.7210	31.5280
 0.7220	32.3170
 0.7230	33.0900
 0.7240	33.8490
 0.7250	34.5740
 0.7260	35.2750
 0.7270	35.9590
 0.7280	36.6070
 0.7290	37.2320
 0.7300	37.8320
 0.7310	38.3970
 0.7320	38.9370
 0.7330	39.4570
 0.7340	39.9540
 0.7350	40.4190
 0.7360	40.8540
 0.7370	41.2650
 0.7380	41.6570
 0.7390	42.0260
 0.7400	42.3740
 0.7410	42.7010
 0.7420	43.0110
 0.7430	43.3000
 0.7440	43.5610
 0.7450	43.8030
 0.7460	44.0390
 0.7470	44.2490
 0.7480	44.4370
 0.7490	44.6130
 0.7500	44.7930
 0.7510	44.9470
 0.7520	45.0760
 0.7530	45.1950
 0.7540	45.3200
 0.7550	45.4300
 0.7560	45.5220
 0.7570	45.6080
 0.7580	45.6890
 0.7590	45.7690
 0.7600	45.8450
 0.7610	45.9000
 0.7620	45.9550
 0.7630	46.0100
 0.7640	46.0600
 0.7650	46.1050
 0.7660	46.1450
 0.7670	46.1800
 0.7680	46.2090
 0.7690	46.2330
 0.7700	46.2620
 0.7710	46.2960
 0.7720	46.3220
 0.7730	46.3410
 0.7740	46.3590
 0.7750	46.3810
 0.7760	46.4060
 0.7770	46.4290
 0.7780	46.4530
 0.7790	46.4790
 0.7800	46.4980
 0.7810	46.5120
 0.7820	46.5280
 0.7830	46.5500
 0.7840	46.5770
 0.7850	46.5920
 0.7860	46.5940
 0.7870	46.6110
 0.7880	46.6290
 0.7890	46.6440
 0.7900	46.6610
 0.7910	46.6830
 0.7920	46.7020
 0.7930	46.7200
 0.7940	46.7420
 0.7950	46.7670
 0.7960	46.7900
 0.7970	46.8040
 0.7980	46.8050
 0.7990	46.8170
 0.8000	46.8380
 0.8010	46.8610
 0.8020	46.8740
 0.8030	46.8890
 0.8040	46.9070
 0.8050	46.9250
 0.8060	46.9420
 0.8070	46.9580
 0.8080	46.9720
 0.8090	46.9820
 0.8100	46.9970
 0.8110	47.0170
 0.8120	47.0370
 0.8130	47.0470
 0.8140	47.0720
 0.8150	47.0990
 0.8160	47.1100
 0.8170	47.1180
 0.8180	47.1310
 0.8190	47.1500
 0.8200	47.1700
 0.8210	47.1820
 0.8220	47.1950
 0.8230	47.2110
 0.8240	47.2290
 0.8250	47.2470
 0.8260	47.2520
 0.8270	47.2500
 0.8280	47.2630
 0.8290	47.2760
 0.8300	47.2870
 0.8310	47.2990
 0.8320	47.3130
 0.8330	47.3310
 0.8340	47.3430
 0.8350	47.3390
 0.8360	47.3560
 0.8370	47.3780
 0.8380	47.3970
 0.8390	47.4130
 0.8400	47.4130
 0.8410	47.4210
 0.8420	47.4470
 0.8430	47.4780
 0.8440	47.5040
 0.8450	47.5220
 0.8460	47.5330
 0.8470	47.5490
 0.8480	47.5620
 0.8490	47.5790
 0.8500	47.6040
 0.8510	47.6140
 0.8520	47.6330
 0.8530	47.6600
 0.8540	47.6800
 0.8550	47.6720
 0.8560	47.6740
 0.8570	47.6960
 0.8580	47.7200
 0.8590	47.7390
 0.8600	47.7500
 0.8610	47.7570
 0.8620	47.7760
 0.8630	47.7890
 0.8640	47.7980
 0.8650	47.8060
 0.8660	47.8100
 0.8670	47.8280
 0.8680	47.8420
 0.8690	47.8350
 0.8700	47.8400
 0.8710	47.8590
 0.8720	47.8790
 0.8730	47.8820
 0.8740	47.8930
 0.8750	47.9020
 0.8760	47.9050
 0.8770	47.9090
 0.8780	47.9260
 0.8790	47.9220
 0.8800	47.9020
 0.8810	47.9250
 0.8820	47.9390
 0.8830	47.9430
 0.8840	47.9450
 0.8850	47.9500
 0.8860	47.9460
 0.8870	47.9460
 0.8880	47.9600
 0.8890	47.9640
 0.8900	47.9530
 0.8910	47.9400
 0.8920	47.9410
 0.8930	47.9510
 0.8940	47.9520
 0.8950	47.9480
 0.8960	47.9520
 0.8970	47.9400
 0.8980	47.9300
 0.8990	47.9340
 0.9000	47.9550
 0.9010	47.9510
 0.9020	47.9370
 0.9030	47.9290
 0.9040	47.9340
 0.9050	47.9230
 0.9060	47.9110
 0.9070	47.9070
 0.9080	47.8950
 0.9090	47.8840
 0.9100	47.8870
 0.9110	47.9030
 0.9120	47.8880
 0.9130	47.8660
 0.9140	47.8550
 0.9150	47.8620
 0.9160	47.8630
 0.9170	47.8510
 0.9180	47.8370
 0.9190	47.8350
 0.9200	47.8290
 0.9210	47.8110
 0.9220	47.7890
 0.9230	47.7760
 0.9240	47.7640
 0.9250	47.7380
 0.9260	47.7080
 0.9270	47.6960
 0.9280	47.6790
 0.9290	47.6540
 0.9300	47.6200
 0.9310	47.5820
 0.9320	47.5450
 0.9330	47.5060
 0.9340	47.4640
 0.9350	47.4200
 0.9360	47.3870
 0.9370	47.3450
 0.9380	47.2910
 0.9390	47.2450
 0.9400	47.1920
 0.9410	47.1390
 0.9420	47.0910
 0.9430	47.0380
 0.9440	46.9810
 0.9450	46.9260
 0.9460	46.8690
 0.9470	46.7690
 0.9480	46.6830
 0.9490	46.6050
 0.9500	46.5160
 0.9510	46.4140
 0.9520	46.3040
 0.9530	46.1910
 0.9540	46.0770
 0.9550	45.9580
 0.9560	45.8610
 0.9570	45.7700
 0.9580	45.6670
 0.9590	45.5660
 0.9600	45.4850
 0.9610	45.4150
 0.9620	45.3430
 0.9630	45.2840
 0.9640	45.2410
 0.9650	45.2010
 0.9660	45.1550
 0.9670	45.1360
 0.9680	45.1280
 0.9690	45.1170
 0.9700	45.0950
 0.9710	45.0910
 0.9720	45.0650
 0.9730	45.0340
 0.9740	45.0300
 0.9750	45.0360
 0.9760	45.0490
 0.9770	45.0600
 0.9780	45.0620
 0.9790	45.0800
 0.9800	45.1130
 0.9810	45.1310
 0.9820	45.1150
 0.9830	45.1300
 0.9840	45.1680
 0.9850	45.2270
 0.9860	45.2990
 0.9870	45.3230
 0.9880	45.3580
 0.9890	45.4060
 0.9900	45.4410
 0.9910	45.4700
 0.9920	45.5070
 0.9930	45.5580
 0.9940	45.6160
 0.9950	45.6790
 0.9960	45.7220
 0.9970	45.7670
 0.9980	45.8410
 0.9990	45.9070
 1.0000	45.9200
 1.0010	45.8490
 1.0020	45.8660
 1.0030	45.9130
 1.0040	45.9620
 1.0050	46.0220
 1.0060	46.0810
 1.0070	46.1380
 1.0080	46.1920
 1.0090	46.2400
 1.0100	46.2900
 1.0110	46.3380
 1.0120	46.3890
 1.0130	46.4420
 1.0140	46.4940
 1.0150	46.5490
 1.0160	46.6000
 1.0170	46.6520
 1.0180	46.7000
 1.0190	46.7520
 1.0200	46.8050
 1.0210	46.8500
 1.0220	46.9000
 1.0230	46.9480
 1.0240	46.9940
 1.0250	47.0390
 1.0260	47.0840
 1.0270	47.1280
 1.0280	47.1690
 1.0290	47.2120
 1.0300	47.2570
 1.0310	47.2980
 1.0320	47.3390
 1.0330	47.3760
 1.0340	47.4150
 1.0350	47.4550
 1.0360	47.4970
 1.0370	47.5350
 1.0380	47.5720
 1.0390	47.6040
 1.0400	47.6410
 1.0410	47.6800
 1.0420	47.7150
 1.0430	47.7520
 1.0440	47.7850
 1.0450	47.8120
 1.0460	47.8410
 1.0470	47.8700
 1.0480	47.8970
 1.0490	47.9220
 1.0500	47.9470
 1.0510	47.9690
 1.0520	47.9940
 1.0530	48.0160
 1.0540	48.0370
 1.0550	48.0570
 1.0560	48.0760
 1.0570	48.0930
 1.0580	48.1070
 1.0590	48.1250
 1.0600	48.1440
 1.0610	48.1610
 1.0620	48.1810
 1.0630	48.1940
 1.0640	48.1960
 1.0650	48.2050
 1.0660	48.2160
 1.0670	48.2240
 1.0680	48.2340
 1.0690	48.2470
 1.0700	48.2560
 1.0710	48.2620
 1.0720	48.2670
 1.0730	48.2750
 1.0740	48.2770
 1.0750	48.2740
 1.0760	48.2740
 1.0770	48.2740
 1.0780	48.2710
 1.0790	48.2670
 1.0800	48.2640
 1.0810	48.2600
 1.0820	48.2540
 1.0830	48.2500
 1.0840	48.2430
 1.0850	48.2310
 1.0860	48.2190
 1.0870	48.2090
 1.0880	48.1990
 1.0890	48.1890
 1.0900	48.1810
 1.0910	48.1690
 1.0920	48.1560
 1.0930	48.1390
 1.0940	48.1180
 1.0950	48.0970
 1.0960	48.0710
 1.0970	48.0470
 1.0980	48.0210
 1.0990	47.9980
 1.1000	47.9780
 1.1010	47.9560
 1.1020	47.9360
 1.1030	47.9130
 1.1040	47.8870
 1.1050	47.8620
 1.1060	47.8370
 1.1070	47.8130
 1.1080	47.7860
 1.1090	47.7610
 1.1100	47.7320
 1.1110	47.7020
 1.1120	47.6690
 1.1130	47.6330
 1.1140	47.5970
 1.1150	47.5590
 1.1160	47.5180
 1.1170	47.4770
 1.1180	47.4290
 1.1190	47.3750
 1.1200	47.3190
 1.1210	47.2550
 1.1220	47.1840
 1.1230	47.1110
 1.1240	47.0280
 1.1250	46.9380
 1.1260	46.8450
 1.1270	46.7350
 1.1280	46.6150
 1.1290	46.4850
 1.1300	46.3470
 1.1310	46.1940
 1.1320	46.0300
 1.1330	45.8550
 1.1340	45.6660
 1.1350	45.4670
 1.1360	45.2570
 1.1370	45.0350
 1.1380	44.8020
 1.1390	44.5630
 1.1400	44.3160
 1.1410	44.0690
 1.1420	43.8220
 1.1430	43.5720
 1.1440	43.3240
 1.1450	43.0730
 1.1460	42.8320
 1.1470	42.5910
 1.1480	42.3640
 1.1490	42.1450
 1.1500	41.9410
 1.1510	41.7460
 1.1520	41.5660
 1.1530	41.3970
 1.1540	41.2430
 1.1550	41.1010
 1.1560	40.9720
 1.1570	40.8570
 1.1580	40.7570
 1.1590	40.6690
 1.1600	40.5910
 1.1610	40.5220
 1.1620	40.4620
 1.1630	40.4110
 1.1640	40.3680
 1.1650	40.3300
 1.1660	40.3020
 1.1670	40.2770
 1.1680	40.2590
 1.1690	40.2390
 1.1700	40.2220
 1.1710	40.2050
 1.1720	40.1880
 1.1730	40.1720
 1.1740	40.1580
 1.1750	40.1440
 1.1760	40.1280
 1.1770	40.1110
 1.1780	40.0900
 1.1790	40.0700
 1.1800	40.0480
 1.1810	40.0250
 1.1820	40.0030
 1.1830	39.9780
 1.1840	39.9550
 1.1850	39.9320
 1.1860	39.9070
 1.1870	39.8850
 1.1880	39.8660
 1.1890	39.8460
 1.1900	39.8310
 1.1910	39.8200
 1.1920	39.8090
 1.1930	39.8010
 1.1940	39.7950
 1.1950	39.7910
 1.1960	39.7900
 1.1970	39.7930
 1.1980	39.7980
 1.1990	39.8080
 1.2000	39.8190
 1.2010	39.8310
 1.2020	39.8470
 1.2030	39.8650
 1.2040	39.8860
 1.2050	39.9120
 1.2060	39.9420
 1.2070	39.9750
 1.2080	40.0090
 1.2090	40.0430
 1.2100	40.0770
 1.2110	40.1140
 1.2120	40.1520
 1.2130	40.1940
 1.2140	40.2390
 1.2150	40.2850
 1.2160	40.3350
 1.2170	40.3850
 1.2180	40.4360
 1.2190	40.4890
 1.2200	40.5430
 1.2210	40.5990
 1.2220	40.6560
 1.2230	40.7120
 1.2240	40.7700
 1.2250	40.8270
 1.2260	40.8820
 1.2270	40.9360
 1.2280	40.9880
 1.2290	41.0370
 1.2300	41.0850
 1.2310	41.1330
 1.2320	41.1820
 1.2330	41.2310
 1.2340	41.2790
 1.2350	41.3270
 1.2360	41.3720
 1.2370	41.4140
 1.2380	41.4560
 1.2390	41.4980
 1.2400	41.5390
 1.2410	41.5790
 1.2420	41.6190
 1.2430	41.6580
 1.2440	41.6960
 1.2450	41.7320
 1.2460	41.7660
 1.2470	41.7990
 1.2480	41.8310
 1.2490	41.8610
 1.2500	41.8910
 1.2510	41.9200
 1.2520	41.9480
 1.2530	41.9750
 1.2540	41.9990
 1.2550	42.0220
 1.2560	42.0430
 1.2570	42.0620
 1.2580	42.0820
 1.2590	42.0990
 1.2600	42.1150
 1.2610	42.1280
 1.2620	42.1390
 1.2630	42.1480
 1.2640	42.1550
 1.2650	42.1630
 1.2660	42.1680
 1.2670	42.1710
 1.2680	42.1730
 1.2690	42.1730
 1.2700	42.1700
 1.2710	42.1680
 1.2720	42.1640
 1.2730	42.1580
 1.2740	42.1500
 1.2750	42.1390
 1.2760	42.1250
 1.2770	42.1110
 1.2780	42.0940
 1.2790	42.0770
 1.2800	42.0600
 1.2810	42.0380
 1.2820	42.0170
 1.2830	41.9910
 1.2840	41.9620
 1.2850	41.9300
 1.2860	41.8940
 1.2870	41.8540
 1.2880	41.8110
 1.2890	41.7660
 1.2900	41.7180
 1.2910	41.6670
 1.2920	41.6130
 1.2930	41.5560
 1.2940	41.4950
 1.2950	41.4300
 1.2960	41.3610
 1.2970	41.2890
 1.2980	41.2130
 1.2990	41.1330
 1.3000	41.0500
 1.3010	40.9610
 1.3020	40.8660
 1.3030	40.7690
 1.3040	40.6680
 1.3050	40.5610
 1.3060	40.4510
 1.3070	40.3350
 1.3080	40.2140
 1.3090	40.0910
 1.3100	39.9630
 1.3110	39.8290
 1.3120	39.6910
 1.3130	39.5510
 1.3140	39.4070
 1.3150	39.2580
 1.3160	39.1060
 1.3170	38.9500
 1.3180	38.7880
 1.3190	38.6220
 1.3200	38.4520
 1.3210	38.2760
 1.3220	38.0960
 1.3230	37.9130
 1.3240	37.7250
 1.3250	37.5350
 1.3260	37.3410
 1.3270	37.1420
 1.3280	36.9400
 1.3290	36.7340
 1.3300	36.5280
 1.3310	36.3230
 1.3320	36.1170
 1.3330	35.9120
 1.3340	35.7050
 1.3350	35.4960
 1.3360	35.2890
 1.3370	35.0810
 1.3380	34.8750
 1.3390	34.6710
 1.3400	34.4680
 1.3410	34.2700
 1.3420	34.0740
 1.3430	33.8790
 1.3440	33.6880
 1.3450	33.5000
 1.3460	33.3120
 1.3470	33.1290
 1.3480	32.9480
 1.3490	32.7710
 1.3500	32.5970
 1.3510	32.4250
 1.3520	32.2550
 1.3530	32.0890
 1.3540	31.9220
 1.3550	31.7580
 1.3560	31.5920
 1.3570	31.4250
 1.3580	31.2580
 1.3590	31.0880
 1.3600	30.9150
 1.3610	30.7400
 1.3620	30.5580
 1.3630	30.3710
 1.3640	30.1760
 1.3650	29.9730
 1.3660	29.7640
 1.3670	29.5450
 1.3680	29.3170
 1.3690	29.0790
 1.3700	28.8250
 1.3710	28.5590
 1.3720	28.2810
 1.3730	27.9850
 1.3740	27.6780
 1.3750	27.3550
 1.3760	27.0140
 1.3770	26.6560
 1.3780	26.2750
 1.3790	25.8760
 1.3800	25.4600
 1.3810	25.0220
 1.3820	24.5720
 1.3830	24.1070
 1.3840	23.6310
 1.3850	23.1400
 1.3860	22.6460
 1.3870	22.1370
 1.3880	21.6340
 1.3890	21.1280
 1.3900	20.6210
 1.3910	20.1210
 1.3920	19.6260
 1.3930	19.1340
 1.3940	18.6530
 1.3950	18.1780
 1.3960	17.7170
 1.3970	17.2710
 1.3980	16.8400
 1.3990	16.4310
 1.4000	16.0380
 1.4010	15.6600
 1.4020	15.3040
 1.4030	14.9620
 1.4040	14.6410
 1.4050	14.3400
 1.4060	14.0550
 1.4070	13.7910
 1.4080	13.5420
 1.4090	13.3080
 1.4100	13.0920
 1.4110	12.8900
 1.4120	12.7030
 1.4130	12.5320
 1.4140	12.3740
 1.4150	12.2280
 1.4160	12.0940
 1.4170	11.9710
 1.4180	11.8580
 1.4190	11.7550
 1.4200	11.6600
 1.4210	11.5730
 1.4220	11.4940
 1.4230	11.4230
 1.4240	11.3590
 1.4250	11.3010
 1.4260	11.2490
 1.4270	11.2010
 1.4280	11.1580
 1.4290	11.1200
 1.4300	11.0870
 1.4310	11.0580
 1.4320	11.0350
 1.4330	11.0130
 1.4340	10.9950
 1.4350	10.9800
 1.4360	10.9680
 1.4370	10.9590
 1.4380	10.9540
 1.4390	10.9510
 1.4400	10.9500
 1.4410	10.9510
 1.4420	10.9510
 1.4430	10.9540
 1.4440	10.9580
 1.4450	10.9640
 1.4460	10.9710
 1.4470	10.9790
 1.4480	10.9880
 1.4490	10.9980
 1.4500	11.0090
 1.4510	11.0200
 1.4520	11.0340
 1.4530	11.0480
 1.4540	11.0630
 1.4550	11.0800
 1.4560	11.0970
 1.4570	11.1140
 1.4580	11.1340
 1.4590	11.1550
 1.4600	11.1790
 1.4610	11.2060
 1.4620	11.2340
 1.4630	11.2660
 1.4640	11.3020
 1.4650	11.3400
 1.4660	11.3800
 1.4670	11.4230
 1.4680	11.4690
 1.4690	11.5180
 1.4700	11.5700
 1.4710	11.6250
 1.4720	11.6830
 1.4730	11.7420
 1.4740	11.8040
 1.4750	11.8690
 1.4760	11.9350
 1.4770	12.0030
 1.4780	12.0740
 1.4790	12.1470
 1.4800	12.2200
 1.4810	12.2950
 1.4820	12.3720
 1.4830	12.4490
 1.4840	12.5270
 1.4850	12.6070
 1.4860	12.6860
 1.4870	12.7670
 1.4880	12.8490
 1.4890	12.9320
 1.4900	13.0160
 1.4910	13.1010
 1.4920	13.1870
 1.4930	13.2750
 1.4940	13.3620
 1.4950	13.4490
 1.4960	13.5360
 1.4970	13.6210
 1.4980	13.7080
 1.4990	13.7970
 1.5000	13.8850
 1.5010	13.9730
 1.5020	14.0630
 1.5030	14.1520
 1.5040	14.2420
 1.5050	14.3320
 1.5060	14.4220
 1.5070	14.5110
 1.5080	14.6010
 1.5090	14.6910
 1.5100	14.7810
 1.5110	14.8710
 1.5120	14.9610
 1.5130	15.0500
 1.5140	15.1380
 1.5150	15.2280
 1.5160	15.3170
 1.5170	15.4060
 1.5180	15.4950
 1.5190	15.5830
 1.5200	15.6710
 1.5210	15.7560
 1.5220	15.8410
 1.5230	15.9260
 1.5240	16.0090
 1.5250	16.0930
 1.5260	16.1790
 1.5270	16.2620
 1.5280	16.3470
 1.5290	16.4320
 1.5300	16.5150
 1.5310	16.5990
 1.5320	16.6810
 1.5330	16.7620
 1.5340	16.8430
 1.5350	16.9240
 1.5360	17.0050
 1.5370	17.0840
 1.5380	17.1640
 1.5390	17.2440
 1.5400	17.3220
 1.5410	17.4000
 1.5420	17.4780
 1.5430	17.5560
 1.5440	17.6350
 1.5450	17.7130
 1.5460	17.7910
 1.5470	17.8690
 1.5480	17.9460
 1.5490	18.0220
 1.5500	18.0970
 1.5510	18.1700
 1.5520	18.2430
 1.5530	18.3140
 1.5540	18.3880
 1.5550	18.4610
 1.5560	18.5320
 1.5570	18.6050
 1.5580	18.6780
 1.5590	18.7490
 1.5600	18.8190
 1.5610	18.8880
 1.5620	18.9560
 1.5630	19.0240
 1.5640	19.0910
 1.5650	19.1590
 1.5660	19.2260
 1.5670	19.2940
 1.5680	19.3620
 1.5690	19.4280
 1.5700	19.4930
 1.5710	19.5580
 1.5720	19.6220
 1.5730	19.6860
 1.5740	19.7500
 1.5750	19.8140
 1.5760	19.8780
 1.5770	19.9420
 1.5780	20.0060
 1.5790	20.0700
 1.5800	20.1310
 1.5810	20.1940
 1.5820	20.2570
 1.5830	20.3210
 1.5840	20.3850
 1.5850	20.4480
 1.5860	20.5100
 1.5870	20.5730
 1.5880	20.6340
 1.5890	20.6960
 1.5900	20.7580
 1.5910	20.8180
 1.5920	20.8790
 1.5930	20.9400
 1.5940	21.0000
 1.5950	21.0620
 1.5960	21.1220
 1.5970	21.1830
 1.5980	21.2430
 1.5990	21.3030
 1.6000	21.3630
 1.6010	21.4220
 1.6020	21.4810
 1.6030	21.5410
 1.6040	21.6000
 1.6050	21.6570
 1.6060	21.7140
 1.6070	21.7700
 1.6080	21.8250
 1.6090	21.8790
 1.6100	21.9350
 1.6110	21.9900
 1.6120	22.0430
 1.6130	22.0960
 1.6140	22.1460
 1.6150	22.1950
 1.6160	22.2440
 1.6170	22.2890
 1.6180	22.3360
 1.6190	22.3820
 1.6200	22.4270
 1.6210	22.4730
 1.6220	22.5160
 1.6230	22.5560
 1.6240	22.5950
 1.6250	22.6320
 1.6260	22.6690
 1.6270	22.7080
 1.6280	22.7470
 1.6290	22.7850
 1.6300	22.8220
 1.6310	22.8590
 1.6320	22.8970
 1.6330	22.9320
 1.6340	22.9660
 1.6350	23.0010
 1.6360	23.0340
 1.6370	23.0670
 1.6380	23.1010
 1.6390	23.1310
 1.6400	23.1600
 1.6410	23.1860
 1.6420	23.2090
 1.6430	23.2310
 1.6440	23.2520
 1.6450	23.2700
 1.6460	23.2860
 1.6470	23.2980
 1.6480	23.3080
 1.6490	23.3150
 1.6500	23.3180
 1.6510	23.3190
 1.6520	23.3190
 1.6530	23.3170
 1.6540	23.3140
 1.6550	23.3110
 1.6560	23.3040
 1.6570	23.2970
 1.6580	23.2870
 1.6590	23.2740
 1.6600	23.2640
 1.6610	23.2540
 1.6620	23.2430
 1.6630	23.2360
 1.6640	23.2270
 1.6650	23.2180
 1.6660	23.2110
 1.6670	23.2040
 1.6680	23.1970
 1.6690	23.1890
 1.6700	23.1810
 1.6710	23.1750
 1.6720	23.1670
 1.6730	23.1610
 1.6740	23.1570
 1.6750	23.1500
 1.6760	23.1440
 1.6770	23.1350
 1.6780	23.1240
 1.6790	23.1120
 1.6800	23.0980
 1.6810	23.0820
 1.6820	23.0650
 1.6830	23.0450
 1.6840	23.0230
 1.6850	23.0000
 1.6860	22.9740
 1.6870	22.9470
 1.6880	22.9180
 1.6890	22.8870
 1.6900	22.8540
 1.6910	22.8180
 1.6920	22.7820
 1.6930	22.7430
 1.6940	22.7040
 1.6950	22.6620
 1.6960	22.6210
 1.6970	22.5770
 1.6980	22.5340
 1.6990	22.4910
 1.7000	22.4470
 1.7010	22.4030
 1.7020	22.3570
 1.7030	22.3090
 1.7040	22.2630
 1.7050	22.2160
 1.7060	22.1690
 1.7070	22.1220
 1.7080	22.0740
 1.7090	22.0230
 1.7100	21.9750
 1.7110	21.9270
 1.7120	21.8800
 1.7130	21.8330
 1.7140	21.7820
 1.7150	21.7330
 1.7160	21.6850
 1.7170	21.6370
 1.7180	21.5900
 1.7190	21.5440
 1.7200	21.4970
 1.7210	21.4490
 1.7220	21.4020
 1.7230	21.3560
 1.7240	21.3110
 1.7250	21.2650
 1.7260	21.2200
 1.7270	21.1760
 1.7280	21.1340
 1.7290	21.0930
 1.7300	21.0540
 1.7310	21.0150
 1.7320	20.9770
 1.7330	20.9400
 1.7340	20.9030
 1.7350	20.8650
 1.7360	20.8290
 1.7370	20.7890
 1.7380	20.7490
 1.7390	20.7060
 1.7400	20.6600
 1.7410	20.6150
 1.7420	20.5670
 1.7430	20.5200
 1.7440	20.4740
 1.7450	20.4250
 1.7460	20.3740
 1.7470	20.3220
 1.7480	20.2670
 1.7490	20.2140
 1.7500	20.1600
 1.7510	20.1060
 1.7520	20.0510
 1.7530	19.9990
 1.7540	19.9490
 1.7550	19.8980
 1.7560	19.8490
 1.7570	19.8010
 1.7580	19.7520
 1.7590	19.7050
 1.7600	19.6600
 1.7610	19.6100
 1.7620	19.5650
 1.7630	19.5230
 1.7640	19.4820
 1.7650	19.4470
 1.7660	19.4100
 1.7670	19.3730
 1.7680	19.3380
 1.7690	19.3020
 1.7700	19.2690
 1.7710	19.2360
 1.7720	19.2040
 1.7730	19.1750
 1.7740	19.1450
 1.7750	19.1160
 1.7760	19.0890
 1.7770	19.0610
 1.7780	19.0360
 1.7790	19.0120
 1.7800	18.9890
 1.7810	18.9670
 1.7820	18.9500
 1.7830	18.9360
 1.7840	18.9220
 1.7850	18.9120
 1.7860	18.9020
 1.7870	18.8910
 1.7880	18.8820
 1.7890	18.8750
 1.7900	18.8700
 1.7910	18.8650
 1.7920	18.8610
 1.7930	18.8590
 1.7940	18.8570
 1.7950	18.8570
 1.7960	18.8590
 1.7970	18.8610
 1.7980	18.8630
 1.7990	18.8650
 1.8000	18.8670
 1.8010	18.8700
 1.8020	18.8750
 1.8030	18.8780
 1.8040	18.8820
 1.8050	18.8850
 1.8060	18.8860
 1.8070	18.8890
 1.8080	18.8930
 1.8090	18.8950
 1.8100	18.8960
 1.8110	18.8980
 1.8120	18.8990
 1.8130	18.8990
 1.8140	18.9000
 1.8150	18.9030
 1.8160	18.9060
 1.8170	18.9060
 1.8180	18.9050
 1.8190	18.8990
 1.8200	18.8950
 1.8210	18.8940
 1.8220	18.8900
 1.8230	18.8840
 1.8240	18.8790
 1.8250	18.8740
 1.8260	18.8660
 1.8270	18.8560
 1.8280	18.8450
 1.8290	18.8280
 1.8300	18.8950
 1.8310	19.0580
 1.8320	19.1210
 1.8330	19.1050
 1.8340	19.0870
 1.8350	19.0610
 1.8360	19.0320
 1.8370	19.0000
 1.8380	18.9620
 1.8390	18.9210
 1.8400	18.8800
 1.8410	18.8300
 1.8420	18.7750
 1.8430	18.7160
 1.8440	18.6510
 1.8450	18.5770
 1.8460	18.5000
 1.8470	18.4200
 1.8480	18.3310
 1.8490	18.2340
 1.8500	18.1280
 1.8510	18.0170
 1.8520	17.8930
 1.8530	17.7570
 1.8540	17.6160
 1.8550	17.4670
 1.8560	17.3100
 1.8570	17.1460
 1.8580	16.9740
 1.8590	16.7900
 1.8600	16.5960
 1.8610	16.3910
 1.8620	16.1770
 1.8630	15.9560
 1.8640	15.7240
 1.8650	15.4810
 1.8660	15.2290
 1.8670	14.9640
 1.8680	14.6890
 1.8690	14.4030
 1.8700	14.1090
 1.8710	13.8050
 1.8720	13.4970
 1.8730	13.1830
 1.8740	12.8680
 1.8750	12.5510
 1.8760	12.2290
 1.8770	11.9090
 1.8780	11.5920
 1.8790	11.2760
 1.8800	10.9670
 1.8810	10.6630
 1.8820	10.3630
 1.8830	10.0630
 1.8840	 9.7740
 1.8850	 9.4890
 1.8860	 9.2140
 1.8870	 8.9520
 1.8880	 8.6960
 1.8890	 8.4550
 1.8900	 8.2260
 1.8910	 8.0060
 1.8920	 7.7970
 1.8930	 7.6020
 1.8940	 7.4150
 1.8950	 7.2400
 1.8960	 7.0810
 1.8970	 6.9330
 1.8980	 6.7980
 1.8990	 6.6760
 1.9000	 6.5630
 1.9010	 6.4600
 1.9020	 6.3630
 1.9030	 6.2770
 1.9040	 6.1970
 1.9050	 6.1230
 1.9060	 6.0570
 1.9070	 5.9970
 1.9080	 5.9440
 1.9090	 5.8960
 1.9100	 5.8510
 1.9110	 5.8130
 1.9120	 5.7810
 1.9130	 5.7510
 1.9140	 5.7250
 1.9150	 5.7040
 1.9160	 5.6830
 1.9170	 5.6660
 1.9180	 5.6520
 1.9190	 5.6400
 1.9200	 5.6300
 1.9210	 5.6230
 1.9220	 5.6170
 1.9230	 5.6130
 1.9240	 5.6100
 1.9250	 5.6090
 1.9260	 5.6070
 1.9270	 5.6080
 1.9280	 5.6090
 1.9290	 5.6110
 1.9300	 5.6160
 1.9310	 5.6230
 1.9320	 5.6320
 1.9330	 5.6400
 1.9340	 5.6510
 1.9350	 5.6610
 1.9360	 5.6730
 1.9370	 5.6850
 1.9380	 5.6970
 1.9390	 5.7120
 1.9400	 5.7280
 1.9410	 5.7430
 1.9420	 5.7600
 1.9430	 5.7790
 1.9440	 5.7980
 1.9450	 5.8180
 1.9460	 5.8360
 1.9470	 5.8540
 1.9480	 5.8730
 1.9490	 5.8920
 1.9500	 5.9110
 1.9510	 5.9330
 1.9520	 5.9550
 1.9530	 5.9790
 1.9540	 6.0050
 1.9550	 6.0300
 1.9560	 6.0560
 1.9570	 6.0820
 1.9580	 6.1080
 1.9590	 6.1350
 1.9600	 6.1630
 1.9610	 6.1910
 1.9620	 6.2210
 1.9630	 6.2490
 1.9640	 6.2770
 1.9650	 6.3060
 1.9660	 6.3360
 1.9670	 6.3660
 1.9680	 6.3970
 1.9690	 6.4310
 1.9700	 6.4630
 1.9710	 6.4940
 1.9720	 6.5260
 1.9730	 6.5580
 1.9740	 6.5890
 1.9750	 6.6210
 1.9760	 6.6530
 1.9770	 6.6860
 1.9780	 6.7200
 1.9790	 6.7550
 1.9800	 6.7920
 1.9810	 6.8270
 1.9820	 6.8620
 1.9830	 6.8970
 1.9840	 6.9330
 1.9850	 6.9700
 1.9860	 7.0060
 1.9870	 7.0430
 1.9880	 7.0810
 1.9890	 7.1180
 1.9900	 7.1550
 1.9910	 7.1930
 1.9920	 7.2300
 1.9930	 7.2640
 1.9940	 7.3010
 1.9950	 7.3400
 1.9960	 7.3770
 1.9970	 7.4140
 1.9980	 7.4530
 1.9990	 7.4900
 2.0000	 7.5320
 2.0010	 7.5730
 2.0020	 7.6150
 2.0030	 7.6530
 2.0040	 7.6900
 2.0050	 7.7290
 2.0060	 7.7660
 2.0070	 7.8050
 2.0080	 7.8480
 2.0090	 7.8860
 2.0100	 7.9210
 2.0110	 7.9570
 2.0120	 7.9910
 2.0130	 8.0250
 2.0140	 8.0630
 2.0150	 8.0990
 2.0160	 8.1350
 2.0170	 8.1710
 2.0180	 8.2060
 2.0190	 8.2390
 2.0200	 8.2710
 2.0210	 8.3010
 2.0220	 8.3320
 2.0230	 8.3620
 2.0240	 8.3920
 2.0250	 8.4240
 2.0260	 8.4550
 2.0270	 8.4870
 2.0280	 8.5180
 2.0290	 8.5510
 2.0300	 8.5830
 2.0310	 8.6110
 2.0320	 8.6350
 2.0330	 8.6630
 2.0340	 8.6890
 2.0350	 8.7140
 2.0360	 8.7410
 2.0370	 8.7650
 2.0380	 8.7850
 2.0390	 8.8070
 2.0400	 8.8300
 2.0410	 8.8530
 2.0420	 8.8750
 2.0430	 8.8990
 2.0440	 8.9210
 2.0450	 8.9430
 2.0460	 8.9640
 2.0470	 8.9830
 2.0480	 9.0010
 2.0490	 9.0180
 2.0500	 9.0360
 2.0510	 9.0530
 2.0520	 9.0710
 2.0530	 9.0900
 2.0540	 9.1090
 2.0550	 9.1310
 2.0560	 9.1510
 2.0570	 9.1700
 2.0580	 9.1890
 2.0590	 9.2070
 2.0600	 9.2240
 2.0610	 9.2420
 2.0620	 9.2610
 2.0630	 9.2800
 2.0640	 9.3010
 2.0650	 9.3190
 2.0660	 9.3360
 2.0670	 9.3530
 2.0680	 9.3690
 2.0690	 9.3870
 2.0700	 9.4050
 2.0710	 9.4240
 2.0720	 9.4470
 2.0730	 9.4660
 2.0740	 9.4840
 2.0750	 9.5020
 2.0760	 9.5190
 2.0770	 9.5330
 2.0780	 9.5490
 2.0790	 9.5640
 2.0800	 9.5810
 2.0810	 9.5990
 2.0820	 9.6180
 2.0830	 9.6380
 2.0840	 9.6580
 2.0850	 9.6790
 2.0860	 9.6970
 2.0870	 9.7130
 2.0880	 9.7320
 2.0890	 9.7510
 2.0900	 9.7690
 2.0910	 9.7880
 2.0920	 9.8100
 2.0930	 9.8300
 2.0940	 9.8500
 2.0950	 9.8700
 2.0960	 9.8890
 2.0970	 9.9080
 2.0980	 9.9260
 2.0990	 9.9440
 2.1000	 9.9620
 2.1010	 9.9800
 2.1020	 9.9980
 2.1030	10.0170
 2.1040	10.0360
 2.1050	10.0530
 2.1060	10.0710
 2.1070	10.0890
 2.1080	10.1090
 2.1090	10.1300
 2.1100	10.1510
 2.1110	10.1730
 2.1120	10.1940
 2.1130	10.2150
 2.1140	10.2350
 2.1150	10.2540
 2.1160	10.2740
 2.1170	10.2930
 2.1180	10.3130
 2.1190	10.3310
 2.1200	10.3510
 2.1210	10.3720
 2.1220	10.3920
 2.1230	10.4120
 2.1240	10.4330
 2.1250	10.4520
 2.1260	10.4690
 2.1270	10.4880
 2.1280	10.5070
 2.1290	10.5250
 2.1300	10.5440
 2.1310	10.5620
 2.1320	10.5760
 2.1330	10.5950
 2.1340	10.6190
 2.1350	10.6390
 2.1360	10.6590
 2.1370	10.6790
 2.1380	10.6950
 2.1390	10.7120
 2.1400	10.7270
 2.1410	10.7470
 2.1420	10.7660
 2.1430	10.7830
 2.1440	10.8030
 2.1450	10.8250
 2.1460	10.8440
 2.1470	10.8620
 2.1480	10.8800
 2.1490	10.8970
 2.1500	10.9160
 2.1510	10.9340
 2.1520	10.9540
 2.1530	10.9750
 2.1540	10.9940
 2.1550	11.0110
 2.1560	11.0320
 2.1570	11.0540
 2.1580	11.0750
 2.1590	11.0990
 2.1600	11.1200
 2.1610	11.1380
 2.1620	11.1550
 2.1630	11.1730
 2.1640	11.1930
 2.1650	11.2100
 2.1660	11.2240
 2.1670	11.2410
 2.1680	11.2550
 2.1690	11.2720
 2.1700	11.2950
 2.1710	11.3130
 2.1720	11.3280
 2.1730	11.3460
 2.1740	11.3610
 2.1750	11.3780
 2.1760	11.3970
 2.1770	11.4160
 2.1780	11.4330
 2.1790	11.4510
 2.1800	11.4690
 2.1810	11.4860
 2.1820	11.5020
 2.1830	11.5180
 2.1840	11.5330
 2.1850	11.5470
 2.1860	11.5620
 2.1870	11.5760
 2.1880	11.5920
 2.1890	11.6120
 2.1900	11.6290
 2.1910	11.6470
 2.1920	11.6630
 2.1930	11.6760
 2.1940	11.6920
 2.1950	11.7110
 2.1960	11.7260
 2.1970	11.7430
 2.1980	11.7560
 2.1990	11.7650
 2.2000	11.7750
 2.2010	11.7860
 2.2020	11.7960
 2.2030	11.8060
 2.2040	11.8150
 2.2050	11.8250
 2.2060	11.8340
 2.2070	11.8450
 2.2080	11.8600
 2.2090	11.8700
 2.2100	11.8820
 2.2110	11.8900
 2.2120	11.8930
 2.2130	11.8990
 2.2140	11.9050
 2.2150	11.9100
 2.2160	11.9150
 2.2170	11.9170
 2.2180	11.9170
 2.2190	11.9150
 2.2200	11.9110
 2.2210	11.9050
 2.2220	11.8950
 2.2230	11.8880
 2.2240	11.8830
 2.2250	11.8760
 2.2260	11.8720
 2.2270	11.8630
 2.2280	11.8510
 2.2290	11.8360
 2.2300	11.8190
 2.2310	11.7990
 2.2320	11.7780
 2.2330	11.7560
 2.2340	11.7300
 2.2350	11.7000
 2.2360	11.6740
 2.2370	11.6460
 2.2380	11.6170
 2.2390	11.5880
 2.2400	11.5560
 2.2410	11.5210
 2.2420	11.4880
 2.2430	11.4570
 2.2440	11.4210
 2.2450	11.3840
 2.2460	11.3440
 2.2470	11.3010
 2.2480	11.2570
 2.2490	11.2110
 2.2500	11.1650
 2.2510	11.1160
 2.2520	11.0690
 2.2530	11.0220
 2.2540	10.9750
 2.2550	10.9300
 2.2560	10.8830
 2.2570	10.8390
 2.2580	10.7910
 2.2590	10.7370
 2.2600	10.6880
 2.2610	10.6410
 2.2620	10.5890
 2.2630	10.5450
 2.2640	10.5050
 2.2650	10.4620
 2.2660	10.4210
 2.2670	10.3810
 2.2680	10.3420
 2.2690	10.3070
 2.2700	10.2770
 2.2710	10.2440
 2.2720	10.2120
 2.2730	10.1830
 2.2740	10.1510
 2.2750	10.1250
 2.2760	10.1060
 2.2770	10.0830
 2.2780	10.0610
 2.2790	10.0400
 2.2800	10.0190
 2.2810	 9.9990
 2.2820	 9.9820
 2.2830	 9.9650
 2.2840	 9.9520
 2.2850	 9.9330
 2.2860	 9.9120
 2.2870	 9.8900
 2.2880	 9.8600
 2.2890	 9.8370
 2.2900	 9.8200
 2.2910	 9.7970
 2.2920	 9.7730
 2.2930	 9.7470
 2.2940	 9.7130
 2.2950	 9.6830
 2.2960	 9.6560
 2.2970	 9.6250
 2.2980	 9.5940
 2.2990	 9.5620
 2.3000	 9.5320
 2.3010	 9.5000
 2.3020	 9.4720
 2.3030	 9.4450
 2.3040	 9.4140
 2.3050	 9.3820
 2.3060	 9.3540
 2.3070	 9.3300
 2.3080	 9.3060
 2.3090	 9.2820
 2.3100	 9.2640
 2.3110	 9.2440
 2.3120	 9.2280
 2.3130	 9.2190
 2.3140	 9.2100
 2.3150	 9.2020
 2.3160	 9.1960
 2.3170	 9.1960
 2.3180	 9.1850
 2.3190	 9.1680
 2.3200	 9.1570
 2.3210	 9.1400
 2.3220	 9.1300
 2.3230	 9.1320
 2.3240	 9.1200
 2.3250	 9.1050
 2.3260	 9.0870
 2.3270	 9.0590
 2.3280	 9.0390
 2.3290	 9.0220
 2.3300	 9.0010
 2.3310	 8.9810
 2.3320	 8.9610
 2.3330	 8.9370
 2.3340	 8.9190
 2.3350	 8.9110
 2.3360	 8.8920
 2.3370	 8.8690
 2.3380	 8.8480
 2.3390	 8.8220
 2.3400	 8.7960
 2.3410	 8.7720
 2.3420	 8.7490
 2.3430	 8.7210
 2.3440	 8.6970
 2.3450	 8.6780
 2.3460	 8.6570
 2.3470	 8.6340
 2.3480	 8.6130
 2.3490	 8.5910
 2.3500	 8.5720
 2.3510	 8.5530
 2.3520	 8.5390
 2.3530	 8.5370
 2.3540	 8.5280
 2.3550	 8.5080
 2.3560	 8.4950
 2.3570	 8.4730
 2.3580	 8.4470
 2.3590	 8.4290
 2.3600	 8.4110
 2.3610	 8.3960
 2.3620	 8.3810
 2.3630	 8.3700
 2.3640	 8.3610
 2.3650	 8.3390
 2.3660	 8.3170
 2.3670	 8.3010
 2.3680	 8.2770
 2.3690	 8.2620
 2.3700	 8.2510
 2.3710	 8.2300
 2.3720	 8.2180
 2.3730	 8.2020
 2.3740	 8.1740
 2.3750	 8.1500
 2.3760	 8.1260
 2.3770	 8.1040
 2.3780	 8.0790
 2.3790	 8.0670
 2.3800	 8.0520
 2.3810	 8.0320
 2.3820	 8.0270
 2.3830	 8.0070
 2.3840	 7.9830
 2.3850	 7.9630
 2.3860	 7.9350
 2.3870	 7.9120
 2.3880	 7.8860
 2.3890	 7.8720
 2.3900	 7.8650
 2.3910	 7.8560
 2.3920	 7.8420
 2.3930	 7.8070
 2.3940	 7.7760
 2.3950	 7.7500
 2.3960	 7.7310
 2.3970	 7.7250
 2.3980	 7.7090
 2.3990	 7.6880
 2.4000	 7.6680
 2.4010	 7.6470
 2.4020	 7.6310
 2.4030	 7.6190
 2.4040	 7.6100
 2.4050	 7.5970
 2.4060	 7.5750
 2.4070	 7.5440
 2.4080	 7.5120
 2.4090	 7.4860
 2.4100	 7.4670
 2.4110	 7.4500
 2.4120	 7.4240
 2.4130	 7.3920
 2.4140	 7.3590
 2.4150	 7.3350
 2.4160	 7.3190
 2.4170	 7.2990
 2.4180	 7.2850
 2.4190	 7.2690
 2.4200	 7.2520
 2.4210	 7.2470
 2.4220	 7.2240
 2.4230	 7.1990
 2.4240	 7.1780
 2.4250	 7.1480
 2.4260	 7.1300
 2.4270	 7.1050
 2.4280	 7.0690
 2.4290	 7.0330
 2.4300	 6.9880
 2.4310	 6.9610
 2.4320	 6.9480
 2.4330	 6.9270
 2.4340	 6.9120
 2.4350	 6.8960
 2.4360	 6.8660
 2.4370	 6.8320
 2.4380	 6.8130
 2.4390	 6.7910
 2.4400	 6.7660
 2.4410	 6.7560
 2.4420	 6.7260
 2.4430	 6.6890
 2.4440	 6.6570
 2.4450	 6.6130
 2.4460	 6.5880
 2.4470	 6.5750
 2.4480	 6.5510
 2.4490	 6.5430
 2.4500	 6.5310
 2.4510	 6.4950
 2.4520	 6.4700
 2.4530	 6.4480
 2.4540	 6.4190
 2.4550	 6.4060
 2.4560	 6.4080
 2.4570	 6.3850
 2.4580	 6.3670
 2.4590	 6.3550
 2.4600	 6.3240
 2.4610	 6.3060
 2.4620	 6.2920
 2.4630	 6.2730
 2.4640	 6.2640
 2.4650	 6.2630
 2.4660	 6.2550
 2.4670	 6.2370
 2.4680	 6.2110
 2.4690	 6.1420
 2.4700	 6.1140
 2.4710	 6.1070
 2.4720	 6.0910
 2.4730	 6.0830
 2.4740	 6.0830
 2.4750	 6.0850
 2.4760	 6.0740
 2.4770	 6.0820
 2.4780	 6.0580
 2.4790	 5.9890
 2.4800	 5.9630
 2.4810	 5.9500
 2.4820	 5.9640
 2.4830	 5.9520
 2.4840	 5.9350
 2.4850	 5.9240
 2.4860	 5.9130
 2.4870	 5.8970
 2.4880	 5.8930
 2.4890	 5.8880
 2.4900	 5.8780
 2.4910	 5.8810
 2.4920	 5.9110
 2.4930	 5.9330
 2.4940	 5.9260
 2.4950	 5.9180
 2.4960	 5.8910
 2.4970	 5.8530
 2.4980	 5.8550
 2.4990	 5.8650
 2.5000	 5.8100
