Name: Quercus agrifolia
Type: vegetation
Class: Tree
Genus: Quercus
Species: agrifolia
Sample No.: JPL108
Owner: JPL
Wavelength Range: VSWIR
Origin: 34.12778; -118.11361;; WGS84
Collection Date: 9/7/2016
Description: Samples were collected at the Huntington Garden in San Marino California as part of a JPL Subcontract studying HyTES imagery. Samples were taken to JPL and processed within 48 hours of collection. The same leaves were processed in the Nicolet and then measured using the ASD.
Measurement: Bidirectional reflectance
First Column: X
Second Column: Y
X Units: Wavelength (micrometer)
Y Units: Reflectance (percentage)
First X Value: 0.35
Last X Value: 2.5
Number of X Values: 2151
Additional Information: vegetation.tree.quercus.agrifolia.vswir.jpl108.jpl.asd.ancillary.txt

 0.3500	 6.0110
 0.3510	 6.0070
 0.3520	 6.0160
 0.3530	 5.9320
 0.3540	 5.7530
 0.3550	 5.8310
 0.3560	 5.8800
 0.3570	 5.8410
 0.3580	 5.7870
 0.3590	 5.8110
 0.3600	 5.8120
 0.3610	 5.7490
 0.3620	 5.6900
 0.3630	 5.6980
 0.3640	 5.7300
 0.3650	 5.7280
 0.3660	 5.6810
 0.3670	 5.6650
 0.3680	 5.6950
 0.3690	 5.7350
 0.3700	 5.6680
 0.3710	 5.6280
 0.3720	 5.6670
 0.3730	 5.6340
 0.3740	 5.6040
 0.3750	 5.6050
 0.3760	 5.6330
 0.3770	 5.6150
 0.3780	 5.6110
 0.3790	 5.6230
 0.3800	 5.5980
 0.3810	 5.5780
 0.3820	 5.5760
 0.3830	 5.5960
 0.3840	 5.6330
 0.3850	 5.6190
 0.3860	 5.5820
 0.3870	 5.5780
 0.3880	 5.6010
 0.3890	 5.5880
 0.3900	 5.5640
 0.3910	 5.6310
 0.3920	 5.6120
 0.3930	 5.5840
 0.3940	 5.6170
 0.3950	 5.6170
 0.3960	 5.6260
 0.3970	 5.6350
 0.3980	 5.6210
 0.3990	 5.5930
 0.4000	 5.6040
 0.4010	 5.6480
 0.4020	 5.6410
 0.4030	 5.6210
 0.4040	 5.6180
 0.4050	 5.6440
 0.4060	 5.6650
 0.4070	 5.6830
 0.4080	 5.6910
 0.4090	 5.6790
 0.4100	 5.6820
 0.4110	 5.7030
 0.4120	 5.7300
 0.4130	 5.7150
 0.4140	 5.7030
 0.4150	 5.7080
 0.4160	 5.7260
 0.4170	 5.7250
 0.4180	 5.7250
 0.4190	 5.7320
 0.4200	 5.7270
 0.4210	 5.7420
 0.4220	 5.7640
 0.4230	 5.7750
 0.4240	 5.7660
 0.4250	 5.7560
 0.4260	 5.7540
 0.4270	 5.7590
 0.4280	 5.7650
 0.4290	 5.7650
 0.4300	 5.7590
 0.4310	 5.7520
 0.4320	 5.7530
 0.4330	 5.7550
 0.4340	 5.7490
 0.4350	 5.7400
 0.4360	 5.7340
 0.4370	 5.7350
 0.4380	 5.7410
 0.4390	 5.7520
 0.4400	 5.7580
 0.4410	 5.7580
 0.4420	 5.7620
 0.4430	 5.7740
 0.4440	 5.7840
 0.4450	 5.7790
 0.4460	 5.7810
 0.4470	 5.7890
 0.4480	 5.7980
 0.4490	 5.7970
 0.4500	 5.8040
 0.4510	 5.8140
 0.4520	 5.8180
 0.4530	 5.8190
 0.4540	 5.8220
 0.4550	 5.8250
 0.4560	 5.8220
 0.4570	 5.8280
 0.4580	 5.8340
 0.4590	 5.8350
 0.4600	 5.8360
 0.4610	 5.8390
 0.4620	 5.8410
 0.4630	 5.8430
 0.4640	 5.8460
 0.4650	 5.8480
 0.4660	 5.8480
 0.4670	 5.8460
 0.4680	 5.8410
 0.4690	 5.8370
 0.4700	 5.8370
 0.4710	 5.8350
 0.4720	 5.8330
 0.4730	 5.8340
 0.4740	 5.8440
 0.4750	 5.8470
 0.4760	 5.8470
 0.4770	 5.8500
 0.4780	 5.8560
 0.4790	 5.8550
 0.4800	 5.8530
 0.4810	 5.8560
 0.4820	 5.8620
 0.4830	 5.8640
 0.4840	 5.8610
 0.4850	 5.8590
 0.4860	 5.8600
 0.4870	 5.8630
 0.4880	 5.8670
 0.4890	 5.8710
 0.4900	 5.8810
 0.4910	 5.8950
 0.4920	 5.9040
 0.4930	 5.9140
 0.4940	 5.9270
 0.4950	 5.9420
 0.4960	 5.9570
 0.4970	 5.9770
 0.4980	 6.0010
 0.4990	 6.0270
 0.5000	 6.0520
 0.5010	 6.0830
 0.5020	 6.1190
 0.5030	 6.1590
 0.5040	 6.2050
 0.5050	 6.2550
 0.5060	 6.3090
 0.5070	 6.3710
 0.5080	 6.4370
 0.5090	 6.5110
 0.5100	 6.6000
 0.5110	 6.7000
 0.5120	 6.8070
 0.5130	 6.9230
 0.5140	 7.0500
 0.5150	 7.1880
 0.5160	 7.3360
 0.5170	 7.4930
 0.5180	 7.6610
 0.5190	 7.8380
 0.5200	 8.0230
 0.5210	 8.2090
 0.5220	 8.3980
 0.5230	 8.5880
 0.5240	 8.7790
 0.5250	 8.9600
 0.5260	 9.1360
 0.5270	 9.3060
 0.5280	 9.4670
 0.5290	 9.6120
 0.5300	 9.7440
 0.5310	 9.8690
 0.5320	 9.9870
 0.5330	10.0920
 0.5340	10.1850
 0.5350	10.2690
 0.5360	10.3390
 0.5370	10.4030
 0.5380	10.4610
 0.5390	10.5100
 0.5400	10.5550
 0.5410	10.5940
 0.5420	10.6270
 0.5430	10.6580
 0.5440	10.6910
 0.5450	10.7270
 0.5460	10.7610
 0.5470	10.7990
 0.5480	10.8360
 0.5490	10.8660
 0.5500	10.8860
 0.5510	10.9000
 0.5520	10.9080
 0.5530	10.9080
 0.5540	10.8980
 0.5550	10.8740
 0.5560	10.8360
 0.5570	10.7880
 0.5580	10.7270
 0.5590	10.6540
 0.5600	10.5710
 0.5610	10.4820
 0.5620	10.3850
 0.5630	10.2800
 0.5640	10.1670
 0.5650	10.0480
 0.5660	 9.9270
 0.5670	 9.8040
 0.5680	 9.6770
 0.5690	 9.5440
 0.5700	 9.4110
 0.5710	 9.2860
 0.5720	 9.1640
 0.5730	 9.0450
 0.5740	 8.9330
 0.5750	 8.8320
 0.5760	 8.7410
 0.5770	 8.6540
 0.5780	 8.5650
 0.5790	 8.4760
 0.5800	 8.3930
 0.5810	 8.3160
 0.5820	 8.2460
 0.5830	 8.1850
 0.5840	 8.1340
 0.5850	 8.0890
 0.5860	 8.0470
 0.5870	 8.0070
 0.5880	 7.9660
 0.5890	 7.9260
 0.5900	 7.8910
 0.5910	 7.8620
 0.5920	 7.8370
 0.5930	 7.8130
 0.5940	 7.7900
 0.5950	 7.7700
 0.5960	 7.7540
 0.5970	 7.7330
 0.5980	 7.7130
 0.5990	 7.6930
 0.6000	 7.6720
 0.6010	 7.6500
 0.6020	 7.6230
 0.6030	 7.5910
 0.6040	 7.5550
 0.6050	 7.5190
 0.6060	 7.4800
 0.6070	 7.4340
 0.6080	 7.3850
 0.6090	 7.3300
 0.6100	 7.2690
 0.6110	 7.2060
 0.6120	 7.1550
 0.6130	 7.1110
 0.6140	 7.0680
 0.6150	 7.0200
 0.6160	 6.9760
 0.6170	 6.9370
 0.6180	 6.8990
 0.6190	 6.8630
 0.6200	 6.8320
 0.6210	 6.8050
 0.6220	 6.7790
 0.6230	 6.7580
 0.6240	 6.7400
 0.6250	 6.7250
 0.6260	 6.7150
 0.6270	 6.7070
 0.6280	 6.6990
 0.6290	 6.6940
 0.6300	 6.6860
 0.6310	 6.6790
 0.6320	 6.6730
 0.6330	 6.6660
 0.6340	 6.6540
 0.6350	 6.6380
 0.6360	 6.6160
 0.6370	 6.5910
 0.6380	 6.5610
 0.6390	 6.5260
 0.6400	 6.4890
 0.6410	 6.4490
 0.6420	 6.4090
 0.6430	 6.3700
 0.6440	 6.3290
 0.6450	 6.2910
 0.6460	 6.2530
 0.6470	 6.2180
 0.6480	 6.1890
 0.6490	 6.1630
 0.6500	 6.1410
 0.6510	 6.1220
 0.6520	 6.1030
 0.6530	 6.0850
 0.6540	 6.0670
 0.6550	 6.0540
 0.6560	 6.0370
 0.6570	 6.0180
 0.6580	 5.9980
 0.6590	 5.9740
 0.6600	 5.9520
 0.6610	 5.9320
 0.6620	 5.9100
 0.6630	 5.8930
 0.6640	 5.8790
 0.6650	 5.8660
 0.6660	 5.8560
 0.6670	 5.8520
 0.6680	 5.8510
 0.6690	 5.8520
 0.6700	 5.8550
 0.6710	 5.8630
 0.6720	 5.8740
 0.6730	 5.8820
 0.6740	 5.8960
 0.6750	 5.9140
 0.6760	 5.9340
 0.6770	 5.9540
 0.6780	 5.9770
 0.6790	 6.0040
 0.6800	 6.0320
 0.6810	 6.0640
 0.6820	 6.0980
 0.6830	 6.1340
 0.6840	 6.1740
 0.6850	 6.2200
 0.6860	 6.2730
 0.6870	 6.3330
 0.6880	 6.4040
 0.6890	 6.4960
 0.6900	 6.6140
 0.6910	 6.7640
 0.6920	 6.9550
 0.6930	 7.1920
 0.6940	 7.4810
 0.6950	 7.8320
 0.6960	 8.2400
 0.6970	 8.7050
 0.6980	 9.2310
 0.6990	 9.8100
 0.7000	10.4340
 0.7010	11.0980
 0.7020	11.7930
 0.7030	12.5130
 0.7040	13.2480
 0.7050	13.9950
 0.7060	14.7510
 0.7070	15.5120
 0.7080	16.2760
 0.7090	17.0440
 0.7100	17.8120
 0.7110	18.5820
 0.7120	19.3530
 0.7130	20.1200
 0.7140	20.8880
 0.7150	21.6520
 0.7160	22.4100
 0.7170	23.1690
 0.7180	23.9200
 0.7190	24.6610
 0.7200	25.3950
 0.7210	26.1170
 0.7220	26.8240
 0.7230	27.5170
 0.7240	28.1970
 0.7250	28.8540
 0.7260	29.4910
 0.7270	30.1080
 0.7280	30.7040
 0.7290	31.2740
 0.7300	31.8200
 0.7310	32.3410
 0.7320	32.8400
 0.7330	33.3150
 0.7340	33.7640
 0.7350	34.1900
 0.7360	34.5950
 0.7370	34.9760
 0.7380	35.3340
 0.7390	35.6690
 0.7400	35.9870
 0.7410	36.2830
 0.7420	36.5540
 0.7430	36.8090
 0.7440	37.0450
 0.7450	37.2630
 0.7460	37.4640
 0.7470	37.6480
 0.7480	37.8170
 0.7490	37.9720
 0.7500	38.1120
 0.7510	38.2400
 0.7520	38.3600
 0.7530	38.4710
 0.7540	38.5680
 0.7550	38.6530
 0.7560	38.7320
 0.7570	38.8070
 0.7580	38.8710
 0.7590	38.9290
 0.7600	38.9850
 0.7610	39.0340
 0.7620	39.0770
 0.7630	39.1170
 0.7640	39.1540
 0.7650	39.1860
 0.7660	39.2140
 0.7670	39.2410
 0.7680	39.2630
 0.7690	39.2850
 0.7700	39.3040
 0.7710	39.3190
 0.7720	39.3300
 0.7730	39.3430
 0.7740	39.3570
 0.7750	39.3690
 0.7760	39.3820
 0.7770	39.3920
 0.7780	39.4020
 0.7790	39.4140
 0.7800	39.4240
 0.7810	39.4300
 0.7820	39.4350
 0.7830	39.4420
 0.7840	39.4480
 0.7850	39.4540
 0.7860	39.4600
 0.7870	39.4620
 0.7880	39.4660
 0.7890	39.4710
 0.7900	39.4730
 0.7910	39.4750
 0.7920	39.4780
 0.7930	39.4810
 0.7940	39.4810
 0.7950	39.4810
 0.7960	39.4820
 0.7970	39.4840
 0.7980	39.4790
 0.7990	39.4740
 0.8000	39.4720
 0.8010	39.4720
 0.8020	39.4700
 0.8030	39.4660
 0.8040	39.4620
 0.8050	39.4610
 0.8060	39.4560
 0.8070	39.4500
 0.8080	39.4450
 0.8090	39.4420
 0.8100	39.4340
 0.8110	39.4260
 0.8120	39.4200
 0.8130	39.4130
 0.8140	39.4070
 0.8150	39.4010
 0.8160	39.3930
 0.8170	39.3860
 0.8180	39.3800
 0.8190	39.3740
 0.8200	39.3700
 0.8210	39.3660
 0.8220	39.3580
 0.8230	39.3460
 0.8240	39.3390
 0.8250	39.3330
 0.8260	39.3260
 0.8270	39.3170
 0.8280	39.3110
 0.8290	39.3030
 0.8300	39.2950
 0.8310	39.2880
 0.8320	39.2860
 0.8330	39.2820
 0.8340	39.2750
 0.8350	39.2690
 0.8360	39.2640
 0.8370	39.2590
 0.8380	39.2540
 0.8390	39.2510
 0.8400	39.2470
 0.8410	39.2420
 0.8420	39.2400
 0.8430	39.2410
 0.8440	39.2390
 0.8450	39.2370
 0.8460	39.2370
 0.8470	39.2350
 0.8480	39.2350
 0.8490	39.2350
 0.8500	39.2340
 0.8510	39.2310
 0.8520	39.2320
 0.8530	39.2340
 0.8540	39.2300
 0.8550	39.2320
 0.8560	39.2340
 0.8570	39.2350
 0.8580	39.2380
 0.8590	39.2440
 0.8600	39.2480
 0.8610	39.2490
 0.8620	39.2560
 0.8630	39.2580
 0.8640	39.2590
 0.8650	39.2600
 0.8660	39.2660
 0.8670	39.2710
 0.8680	39.2740
 0.8690	39.2780
 0.8700	39.2780
 0.8710	39.2820
 0.8720	39.2900
 0.8730	39.2970
 0.8740	39.3000
 0.8750	39.3030
 0.8760	39.3080
 0.8770	39.3110
 0.8780	39.3190
 0.8790	39.3260
 0.8800	39.3290
 0.8810	39.3370
 0.8820	39.3410
 0.8830	39.3470
 0.8840	39.3570
 0.8850	39.3580
 0.8860	39.3610
 0.8870	39.3680
 0.8880	39.3730
 0.8890	39.3770
 0.8900	39.3840
 0.8910	39.3910
 0.8920	39.3940
 0.8930	39.3990
 0.8940	39.4060
 0.8950	39.4130
 0.8960	39.4200
 0.8970	39.4270
 0.8980	39.4310
 0.8990	39.4340
 0.9000	39.4400
 0.9010	39.4460
 0.9020	39.4480
 0.9030	39.4500
 0.9040	39.4610
 0.9050	39.4660
 0.9060	39.4670
 0.9070	39.4720
 0.9080	39.4790
 0.9090	39.4800
 0.9100	39.4790
 0.9110	39.4820
 0.9120	39.4830
 0.9130	39.4890
 0.9140	39.4940
 0.9150	39.4940
 0.9160	39.4930
 0.9170	39.4940
 0.9180	39.4940
 0.9190	39.4890
 0.9200	39.4950
 0.9210	39.4940
 0.9220	39.4890
 0.9230	39.4980
 0.9240	39.4980
 0.9250	39.4880
 0.9260	39.4740
 0.9270	39.4650
 0.9280	39.4590
 0.9290	39.4560
 0.9300	39.4510
 0.9310	39.4430
 0.9320	39.4340
 0.9330	39.4250
 0.9340	39.4150
 0.9350	39.3990
 0.9360	39.3890
 0.9370	39.3780
 0.9380	39.3630
 0.9390	39.3500
 0.9400	39.3350
 0.9410	39.3180
 0.9420	39.3020
 0.9430	39.2860
 0.9440	39.2680
 0.9450	39.2490
 0.9460	39.2290
 0.9470	39.2080
 0.9480	39.1820
 0.9490	39.1550
 0.9500	39.1290
 0.9510	39.0940
 0.9520	39.0580
 0.9530	39.0250
 0.9540	38.9960
 0.9550	38.9650
 0.9560	38.9280
 0.9570	38.8940
 0.9580	38.8660
 0.9590	38.8300
 0.9600	38.8030
 0.9610	38.7820
 0.9620	38.7570
 0.9630	38.7350
 0.9640	38.7160
 0.9650	38.6950
 0.9660	38.6710
 0.9670	38.6540
 0.9680	38.6450
 0.9690	38.6380
 0.9700	38.6250
 0.9710	38.6140
 0.9720	38.6110
 0.9730	38.6050
 0.9740	38.5860
 0.9750	38.5810
 0.9760	38.5780
 0.9770	38.5750
 0.9780	38.5730
 0.9790	38.5710
 0.9800	38.5690
 0.9810	38.5690
 0.9820	38.5720
 0.9830	38.5670
 0.9840	38.5640
 0.9850	38.5630
 0.9860	38.5590
 0.9870	38.5700
 0.9880	38.5790
 0.9890	38.5760
 0.9900	38.5610
 0.9910	38.5720
 0.9920	38.5800
 0.9930	38.5840
 0.9940	38.5950
 0.9950	38.6110
 0.9960	38.6200
 0.9970	38.6210
 0.9980	38.6230
 0.9990	38.6370
 1.0000	38.6550
 1.0010	38.9660
 1.0020	38.9740
 1.0030	38.9790
 1.0040	38.9840
 1.0050	38.9880
 1.0060	38.9960
 1.0070	39.0060
 1.0080	39.0160
 1.0090	39.0300
 1.0100	39.0400
 1.0110	39.0490
 1.0120	39.0580
 1.0130	39.0630
 1.0140	39.0730
 1.0150	39.0850
 1.0160	39.0960
 1.0170	39.1080
 1.0180	39.1230
 1.0190	39.1300
 1.0200	39.1360
 1.0210	39.1420
 1.0220	39.1490
 1.0230	39.1570
 1.0240	39.1680
 1.0250	39.1770
 1.0260	39.1830
 1.0270	39.1920
 1.0280	39.2020
 1.0290	39.2110
 1.0300	39.2210
 1.0310	39.2310
 1.0320	39.2380
 1.0330	39.2460
 1.0340	39.2570
 1.0350	39.2680
 1.0360	39.2780
 1.0370	39.2870
 1.0380	39.2940
 1.0390	39.2990
 1.0400	39.3060
 1.0410	39.3100
 1.0420	39.3180
 1.0430	39.3270
 1.0440	39.3350
 1.0450	39.3430
 1.0460	39.3500
 1.0470	39.3540
 1.0480	39.3590
 1.0490	39.3660
 1.0500	39.3720
 1.0510	39.3770
 1.0520	39.3810
 1.0530	39.3870
 1.0540	39.3930
 1.0550	39.3970
 1.0560	39.4020
 1.0570	39.4060
 1.0580	39.4080
 1.0590	39.4110
 1.0600	39.4150
 1.0610	39.4170
 1.0620	39.4160
 1.0630	39.4170
 1.0640	39.4190
 1.0650	39.4210
 1.0660	39.4270
 1.0670	39.4280
 1.0680	39.4280
 1.0690	39.4250
 1.0700	39.4240
 1.0710	39.4190
 1.0720	39.4190
 1.0730	39.4210
 1.0740	39.4200
 1.0750	39.4210
 1.0760	39.4190
 1.0770	39.4130
 1.0780	39.4100
 1.0790	39.4080
 1.0800	39.4070
 1.0810	39.4070
 1.0820	39.4070
 1.0830	39.4090
 1.0840	39.4070
 1.0850	39.4040
 1.0860	39.4000
 1.0870	39.3960
 1.0880	39.3880
 1.0890	39.3850
 1.0900	39.3840
 1.0910	39.3820
 1.0920	39.3820
 1.0930	39.3790
 1.0940	39.3750
 1.0950	39.3710
 1.0960	39.3670
 1.0970	39.3630
 1.0980	39.3560
 1.0990	39.3520
 1.1000	39.3530
 1.1010	39.3500
 1.1020	39.3460
 1.1030	39.3420
 1.1040	39.3370
 1.1050	39.3280
 1.1060	39.3210
 1.1070	39.3140
 1.1080	39.3090
 1.1090	39.3030
 1.1100	39.2970
 1.1110	39.2940
 1.1120	39.2880
 1.1130	39.2830
 1.1140	39.2740
 1.1150	39.2640
 1.1160	39.2540
 1.1170	39.2410
 1.1180	39.2280
 1.1190	39.2160
 1.1200	39.2020
 1.1210	39.1870
 1.1220	39.1700
 1.1230	39.1500
 1.1240	39.1310
 1.1250	39.1090
 1.1260	39.0860
 1.1270	39.0590
 1.1280	39.0300
 1.1290	38.9960
 1.1300	38.9580
 1.1310	38.9170
 1.1320	38.8710
 1.1330	38.8220
 1.1340	38.7700
 1.1350	38.7140
 1.1360	38.6540
 1.1370	38.5890
 1.1380	38.5200
 1.1390	38.4490
 1.1400	38.3750
 1.1410	38.2970
 1.1420	38.2190
 1.1430	38.1390
 1.1440	38.0600
 1.1450	37.9790
 1.1460	37.8990
 1.1470	37.8190
 1.1480	37.7410
 1.1490	37.6620
 1.1500	37.5880
 1.1510	37.5140
 1.1520	37.4460
 1.1530	37.3800
 1.1540	37.3200
 1.1550	37.2640
 1.1560	37.2140
 1.1570	37.1690
 1.1580	37.1270
 1.1590	37.0880
 1.1600	37.0520
 1.1610	37.0200
 1.1620	36.9900
 1.1630	36.9640
 1.1640	36.9410
 1.1650	36.9200
 1.1660	36.9010
 1.1670	36.8840
 1.1680	36.8700
 1.1690	36.8560
 1.1700	36.8450
 1.1710	36.8320
 1.1720	36.8210
 1.1730	36.8090
 1.1740	36.7970
 1.1750	36.7860
 1.1760	36.7740
 1.1770	36.7610
 1.1780	36.7450
 1.1790	36.7300
 1.1800	36.7160
 1.1810	36.7020
 1.1820	36.6900
 1.1830	36.6760
 1.1840	36.6630
 1.1850	36.6490
 1.1860	36.6350
 1.1870	36.6220
 1.1880	36.6100
 1.1890	36.5980
 1.1900	36.5860
 1.1910	36.5750
 1.1920	36.5650
 1.1930	36.5550
 1.1940	36.5470
 1.1950	36.5400
 1.1960	36.5330
 1.1970	36.5260
 1.1980	36.5190
 1.1990	36.5140
 1.2000	36.5100
 1.2010	36.5070
 1.2020	36.5050
 1.2030	36.5040
 1.2040	36.5030
 1.2050	36.5020
 1.2060	36.5020
 1.2070	36.5050
 1.2080	36.5080
 1.2090	36.5130
 1.2100	36.5200
 1.2110	36.5280
 1.2120	36.5350
 1.2130	36.5460
 1.2140	36.5580
 1.2150	36.5720
 1.2160	36.5880
 1.2170	36.6050
 1.2180	36.6210
 1.2190	36.6390
 1.2200	36.6580
 1.2210	36.6790
 1.2220	36.7030
 1.2230	36.7270
 1.2240	36.7500
 1.2250	36.7730
 1.2260	36.7950
 1.2270	36.8180
 1.2280	36.8400
 1.2290	36.8610
 1.2300	36.8820
 1.2310	36.9000
 1.2320	36.9170
 1.2330	36.9340
 1.2340	36.9510
 1.2350	36.9670
 1.2360	36.9820
 1.2370	36.9970
 1.2380	37.0110
 1.2390	37.0250
 1.2400	37.0380
 1.2410	37.0520
 1.2420	37.0640
 1.2430	37.0750
 1.2440	37.0860
 1.2450	37.0950
 1.2460	37.1060
 1.2470	37.1160
 1.2480	37.1260
 1.2490	37.1340
 1.2500	37.1400
 1.2510	37.1470
 1.2520	37.1520
 1.2530	37.1590
 1.2540	37.1650
 1.2550	37.1710
 1.2560	37.1770
 1.2570	37.1810
 1.2580	37.1850
 1.2590	37.1880
 1.2600	37.1900
 1.2610	37.1920
 1.2620	37.1920
 1.2630	37.1910
 1.2640	37.1900
 1.2650	37.1880
 1.2660	37.1860
 1.2670	37.1850
 1.2680	37.1840
 1.2690	37.1820
 1.2700	37.1800
 1.2710	37.1770
 1.2720	37.1740
 1.2730	37.1700
 1.2740	37.1650
 1.2750	37.1600
 1.2760	37.1550
 1.2770	37.1480
 1.2780	37.1420
 1.2790	37.1340
 1.2800	37.1250
 1.2810	37.1170
 1.2820	37.1090
 1.2830	37.0980
 1.2840	37.0860
 1.2850	37.0720
 1.2860	37.0570
 1.2870	37.0410
 1.2880	37.0240
 1.2890	37.0060
 1.2900	36.9860
 1.2910	36.9640
 1.2920	36.9400
 1.2930	36.9170
 1.2940	36.8940
 1.2950	36.8690
 1.2960	36.8420
 1.2970	36.8130
 1.2980	36.7820
 1.2990	36.7490
 1.3000	36.7160
 1.3010	36.6820
 1.3020	36.6450
 1.3030	36.6050
 1.3040	36.5630
 1.3050	36.5200
 1.3060	36.4750
 1.3070	36.4310
 1.3080	36.3880
 1.3090	36.3410
 1.3100	36.2930
 1.3110	36.2420
 1.3120	36.1900
 1.3130	36.1370
 1.3140	36.0810
 1.3150	36.0240
 1.3160	35.9640
 1.3170	35.9030
 1.3180	35.8390
 1.3190	35.7750
 1.3200	35.7090
 1.3210	35.6410
 1.3220	35.5720
 1.3230	35.5010
 1.3240	35.4280
 1.3250	35.3540
 1.3260	35.2780
 1.3270	35.1980
 1.3280	35.1190
 1.3290	35.0370
 1.3300	34.9520
 1.3310	34.8680
 1.3320	34.7800
 1.3330	34.6920
 1.3340	34.6030
 1.3350	34.5120
 1.3360	34.4210
 1.3370	34.3300
 1.3380	34.2400
 1.3390	34.1490
 1.3400	34.0580
 1.3410	33.9680
 1.3420	33.8770
 1.3430	33.7860
 1.3440	33.6970
 1.3450	33.6090
 1.3460	33.5210
 1.3470	33.4340
 1.3480	33.3460
 1.3490	33.2600
 1.3500	33.1750
 1.3510	33.0900
 1.3520	33.0060
 1.3530	32.9210
 1.3540	32.8340
 1.3550	32.7500
 1.3560	32.6640
 1.3570	32.5770
 1.3580	32.4900
 1.3590	32.3990
 1.3600	32.3060
 1.3610	32.2110
 1.3620	32.1130
 1.3630	32.0120
 1.3640	31.9070
 1.3650	31.7980
 1.3660	31.6850
 1.3670	31.5660
 1.3680	31.4400
 1.3690	31.3070
 1.3700	31.1640
 1.3710	31.0130
 1.3720	30.8540
 1.3730	30.6820
 1.3740	30.4990
 1.3750	30.3030
 1.3760	30.0900
 1.3770	29.8630
 1.3780	29.6180
 1.3790	29.3550
 1.3800	29.0740
 1.3810	28.7730
 1.3820	28.4570
 1.3830	28.1250
 1.3840	27.7760
 1.3850	27.4090
 1.3860	27.0270
 1.3870	26.6270
 1.3880	26.2190
 1.3890	25.8000
 1.3900	25.3690
 1.3910	24.9340
 1.3920	24.4920
 1.3930	24.0440
 1.3940	23.5950
 1.3950	23.1400
 1.3960	22.6890
 1.3970	22.2430
 1.3980	21.8020
 1.3990	21.3740
 1.4000	20.9550
 1.4010	20.5430
 1.4020	20.1470
 1.4030	19.7620
 1.4040	19.3920
 1.4050	19.0400
 1.4060	18.7010
 1.4070	18.3820
 1.4080	18.0790
 1.4090	17.7900
 1.4100	17.5210
 1.4110	17.2660
 1.4120	17.0270
 1.4130	16.8050
 1.4140	16.5970
 1.4150	16.4060
 1.4160	16.2290
 1.4170	16.0640
 1.4180	15.9130
 1.4190	15.7720
 1.4200	15.6420
 1.4210	15.5210
 1.4220	15.4110
 1.4230	15.3110
 1.4240	15.2200
 1.4250	15.1360
 1.4260	15.0610
 1.4270	14.9910
 1.4280	14.9290
 1.4290	14.8720
 1.4300	14.8220
 1.4310	14.7770
 1.4320	14.7380
 1.4330	14.7030
 1.4340	14.6740
 1.4350	14.6480
 1.4360	14.6260
 1.4370	14.6070
 1.4380	14.5920
 1.4390	14.5800
 1.4400	14.5710
 1.4410	14.5660
 1.4420	14.5630
 1.4430	14.5620
 1.4440	14.5640
 1.4450	14.5680
 1.4460	14.5720
 1.4470	14.5800
 1.4480	14.5890
 1.4490	14.5980
 1.4500	14.6090
 1.4510	14.6210
 1.4520	14.6340
 1.4530	14.6490
 1.4540	14.6640
 1.4550	14.6820
 1.4560	14.7020
 1.4570	14.7240
 1.4580	14.7480
 1.4590	14.7740
 1.4600	14.8030
 1.4610	14.8340
 1.4620	14.8700
 1.4630	14.9090
 1.4640	14.9520
 1.4650	14.9990
 1.4660	15.0490
 1.4670	15.1030
 1.4680	15.1630
 1.4690	15.2250
 1.4700	15.2900
 1.4710	15.3600
 1.4720	15.4330
 1.4730	15.5080
 1.4740	15.5870
 1.4750	15.6680
 1.4760	15.7530
 1.4770	15.8390
 1.4780	15.9260
 1.4790	16.0170
 1.4800	16.1080
 1.4810	16.2000
 1.4820	16.2940
 1.4830	16.3890
 1.4840	16.4860
 1.4850	16.5840
 1.4860	16.6800
 1.4870	16.7790
 1.4880	16.8770
 1.4890	16.9760
 1.4900	17.0760
 1.4910	17.1760
 1.4920	17.2770
 1.4930	17.3790
 1.4940	17.4800
 1.4950	17.5820
 1.4960	17.6830
 1.4970	17.7840
 1.4980	17.8850
 1.4990	17.9870
 1.5000	18.0890
 1.5010	18.1910
 1.5020	18.2930
 1.5030	18.3950
 1.5040	18.4960
 1.5050	18.5970
 1.5060	18.6980
 1.5070	18.7990
 1.5080	18.8990
 1.5090	18.9990
 1.5100	19.0990
 1.5110	19.1980
 1.5120	19.2970
 1.5130	19.3940
 1.5140	19.4910
 1.5150	19.5880
 1.5160	19.6840
 1.5170	19.7810
 1.5180	19.8770
 1.5190	19.9710
 1.5200	20.0650
 1.5210	20.1560
 1.5220	20.2480
 1.5230	20.3390
 1.5240	20.4290
 1.5250	20.5180
 1.5260	20.6070
 1.5270	20.6950
 1.5280	20.7820
 1.5290	20.8680
 1.5300	20.9520
 1.5310	21.0360
 1.5320	21.1180
 1.5330	21.2000
 1.5340	21.2810
 1.5350	21.3610
 1.5360	21.4400
 1.5370	21.5190
 1.5380	21.5970
 1.5390	21.6760
 1.5400	21.7530
 1.5410	21.8300
 1.5420	21.9060
 1.5430	21.9810
 1.5440	22.0570
 1.5450	22.1300
 1.5460	22.2030
 1.5470	22.2760
 1.5480	22.3460
 1.5490	22.4170
 1.5500	22.4880
 1.5510	22.5560
 1.5520	22.6230
 1.5530	22.6900
 1.5540	22.7550
 1.5550	22.8220
 1.5560	22.8890
 1.5570	22.9540
 1.5580	23.0180
 1.5590	23.0810
 1.5600	23.1440
 1.5610	23.2040
 1.5620	23.2650
 1.5630	23.3250
 1.5640	23.3850
 1.5650	23.4440
 1.5660	23.5020
 1.5670	23.5590
 1.5680	23.6160
 1.5690	23.6720
 1.5700	23.7270
 1.5710	23.7810
 1.5720	23.8350
 1.5730	23.8890
 1.5740	23.9430
 1.5750	23.9950
 1.5760	24.0490
 1.5770	24.1010
 1.5780	24.1530
 1.5790	24.2060
 1.5800	24.2570
 1.5810	24.3080
 1.5820	24.3590
 1.5830	24.4090
 1.5840	24.4610
 1.5850	24.5120
 1.5860	24.5610
 1.5870	24.6110
 1.5880	24.6590
 1.5890	24.7090
 1.5900	24.7600
 1.5910	24.8100
 1.5920	24.8610
 1.5930	24.9090
 1.5940	24.9570
 1.5950	25.0080
 1.5960	25.0570
 1.5970	25.1070
 1.5980	25.1560
 1.5990	25.2030
 1.6000	25.2500
 1.6010	25.2960
 1.6020	25.3420
 1.6030	25.3880
 1.6040	25.4320
 1.6050	25.4770
 1.6060	25.5200
 1.6070	25.5630
 1.6080	25.6070
 1.6090	25.6490
 1.6100	25.6910
 1.6110	25.7330
 1.6120	25.7740
 1.6130	25.8150
 1.6140	25.8550
 1.6150	25.8940
 1.6160	25.9310
 1.6170	25.9680
 1.6180	26.0050
 1.6190	26.0410
 1.6200	26.0770
 1.6210	26.1120
 1.6220	26.1460
 1.6230	26.1810
 1.6240	26.2140
 1.6250	26.2470
 1.6260	26.2780
 1.6270	26.3080
 1.6280	26.3370
 1.6290	26.3660
 1.6300	26.3940
 1.6310	26.4200
 1.6320	26.4460
 1.6330	26.4700
 1.6340	26.4910
 1.6350	26.5130
 1.6360	26.5340
 1.6370	26.5540
 1.6380	26.5730
 1.6390	26.5910
 1.6400	26.6070
 1.6410	26.6210
 1.6420	26.6340
 1.6430	26.6450
 1.6440	26.6530
 1.6450	26.6590
 1.6460	26.6650
 1.6470	26.6700
 1.6480	26.6730
 1.6490	26.6760
 1.6500	26.6760
 1.6510	26.6750
 1.6520	26.6740
 1.6530	26.6700
 1.6540	26.6660
 1.6550	26.6600
 1.6560	26.6530
 1.6570	26.6470
 1.6580	26.6420
 1.6590	26.6390
 1.6600	26.6350
 1.6610	26.6310
 1.6620	26.6250
 1.6630	26.6180
 1.6640	26.6120
 1.6650	26.6060
 1.6660	26.6020
 1.6670	26.5990
 1.6680	26.5960
 1.6690	26.5910
 1.6700	26.5880
 1.6710	26.5830
 1.6720	26.5760
 1.6730	26.5690
 1.6740	26.5600
 1.6750	26.5480
 1.6760	26.5350
 1.6770	26.5190
 1.6780	26.5010
 1.6790	26.4830
 1.6800	26.4630
 1.6810	26.4400
 1.6820	26.4160
 1.6830	26.3890
 1.6840	26.3600
 1.6850	26.3310
 1.6860	26.2980
 1.6870	26.2640
 1.6880	26.2300
 1.6890	26.1950
 1.6900	26.1590
 1.6910	26.1250
 1.6920	26.0890
 1.6930	26.0510
 1.6940	26.0130
 1.6950	25.9740
 1.6960	25.9360
 1.6970	25.8990
 1.6980	25.8600
 1.6990	25.8210
 1.7000	25.7810
 1.7010	25.7380
 1.7020	25.6960
 1.7030	25.6520
 1.7040	25.6080
 1.7050	25.5640
 1.7060	25.5190
 1.7070	25.4730
 1.7080	25.4260
 1.7090	25.3790
 1.7100	25.3300
 1.7110	25.2790
 1.7120	25.2290
 1.7130	25.1790
 1.7140	25.1280
 1.7150	25.0780
 1.7160	25.0270
 1.7170	24.9750
 1.7180	24.9250
 1.7190	24.8770
 1.7200	24.8280
 1.7210	24.7800
 1.7220	24.7310
 1.7230	24.6840
 1.7240	24.6360
 1.7250	24.5910
 1.7260	24.5470
 1.7270	24.5050
 1.7280	24.4670
 1.7290	24.4340
 1.7300	24.4040
 1.7310	24.3800
 1.7320	24.3620
 1.7330	24.3470
 1.7340	24.3390
 1.7350	24.3310
 1.7360	24.3270
 1.7370	24.3200
 1.7380	24.3130
 1.7390	24.3020
 1.7400	24.2880
 1.7410	24.2720
 1.7420	24.2520
 1.7430	24.2290
 1.7440	24.2030
 1.7450	24.1740
 1.7460	24.1410
 1.7470	24.1060
 1.7480	24.0680
 1.7490	24.0300
 1.7500	23.9900
 1.7510	23.9480
 1.7520	23.9050
 1.7530	23.8600
 1.7540	23.8140
 1.7550	23.7690
 1.7560	23.7230
 1.7570	23.6760
 1.7580	23.6300
 1.7590	23.5840
 1.7600	23.5380
 1.7610	23.4930
 1.7620	23.4510
 1.7630	23.4110
 1.7640	23.3750
 1.7650	23.3420
 1.7660	23.3120
 1.7670	23.2860
 1.7680	23.2610
 1.7690	23.2390
 1.7700	23.2170
 1.7710	23.1980
 1.7720	23.1780
 1.7730	23.1610
 1.7740	23.1430
 1.7750	23.1220
 1.7760	23.1040
 1.7770	23.0860
 1.7780	23.0690
 1.7790	23.0530
 1.7800	23.0370
 1.7810	23.0210
 1.7820	23.0060
 1.7830	22.9920
 1.7840	22.9800
 1.7850	22.9700
 1.7860	22.9600
 1.7870	22.9520
 1.7880	22.9430
 1.7890	22.9360
 1.7900	22.9340
 1.7910	22.9310
 1.7920	22.9270
 1.7930	22.9260
 1.7940	22.9230
 1.7950	22.9230
 1.7960	22.9250
 1.7970	22.9280
 1.7980	22.9330
 1.7990	22.9360
 1.8000	22.9410
 1.8010	22.9450
 1.8020	22.9490
 1.8030	22.9540
 1.8040	22.9610
 1.8050	22.9670
 1.8060	22.9730
 1.8070	22.9790
 1.8080	22.9840
 1.8090	22.9900
 1.8100	22.9950
 1.8110	23.0020
 1.8120	23.0080
 1.8130	23.0140
 1.8140	23.0210
 1.8150	23.0260
 1.8160	23.0290
 1.8170	23.0320
 1.8180	23.0350
 1.8190	23.0390
 1.8200	23.0410
 1.8210	23.0440
 1.8220	23.0450
 1.8230	23.0430
 1.8240	23.0430
 1.8250	23.0440
 1.8260	23.0430
 1.8270	23.0450
 1.8280	23.0410
 1.8290	23.0340
 1.8300	23.0270
 1.8310	23.2320
 1.8320	23.2180
 1.8330	23.1990
 1.8340	23.1800
 1.8350	23.1590
 1.8360	23.1390
 1.8370	23.1170
 1.8380	23.0870
 1.8390	23.0510
 1.8400	23.0100
 1.8410	22.9680
 1.8420	22.9210
 1.8430	22.8710
 1.8440	22.8180
 1.8450	22.7580
 1.8460	22.6900
 1.8470	22.6170
 1.8480	22.5350
 1.8490	22.4480
 1.8500	22.3530
 1.8510	22.2490
 1.8520	22.1360
 1.8530	22.0170
 1.8540	21.8910
 1.8550	21.7510
 1.8560	21.6040
 1.8570	21.4440
 1.8580	21.2690
 1.8590	21.0850
 1.8600	20.8900
 1.8610	20.6810
 1.8620	20.4600
 1.8630	20.2320
 1.8640	19.9890
 1.8650	19.7320
 1.8660	19.4610
 1.8670	19.1730
 1.8680	18.8690
 1.8690	18.5480
 1.8700	18.2110
 1.8710	17.8590
 1.8720	17.4970
 1.8730	17.1230
 1.8740	16.7380
 1.8750	16.3480
 1.8760	15.9460
 1.8770	15.5410
 1.8780	15.1360
 1.8790	14.7250
 1.8800	14.3180
 1.8810	13.9120
 1.8820	13.5060
 1.8830	13.0970
 1.8840	12.6990
 1.8850	12.3020
 1.8860	11.9110
 1.8870	11.5350
 1.8880	11.1640
 1.8890	10.8080
 1.8900	10.4700
 1.8910	10.1480
 1.8920	 9.8390
 1.8930	 9.5510
 1.8940	 9.2810
 1.8950	 9.0260
 1.8960	 8.7890
 1.8970	 8.5710
 1.8980	 8.3710
 1.8990	 8.1890
 1.9000	 8.0200
 1.9010	 7.8680
 1.9020	 7.7270
 1.9030	 7.6010
 1.9040	 7.4880
 1.9050	 7.3890
 1.9060	 7.3000
 1.9070	 7.2220
 1.9080	 7.1550
 1.9090	 7.0940
 1.9100	 7.0380
 1.9110	 6.9890
 1.9120	 6.9460
 1.9130	 6.9080
 1.9140	 6.8750
 1.9150	 6.8480
 1.9160	 6.8250
 1.9170	 6.8040
 1.9180	 6.7840
 1.9190	 6.7680
 1.9200	 6.7540
 1.9210	 6.7430
 1.9220	 6.7340
 1.9230	 6.7280
 1.9240	 6.7240
 1.9250	 6.7200
 1.9260	 6.7190
 1.9270	 6.7200
 1.9280	 6.7230
 1.9290	 6.7290
 1.9300	 6.7360
 1.9310	 6.7420
 1.9320	 6.7480
 1.9330	 6.7570
 1.9340	 6.7670
 1.9350	 6.7780
 1.9360	 6.7910
 1.9370	 6.8050
 1.9380	 6.8190
 1.9390	 6.8360
 1.9400	 6.8550
 1.9410	 6.8750
 1.9420	 6.8950
 1.9430	 6.9150
 1.9440	 6.9360
 1.9450	 6.9570
 1.9460	 6.9790
 1.9470	 7.0030
 1.9480	 7.0270
 1.9490	 7.0530
 1.9500	 7.0800
 1.9510	 7.1070
 1.9520	 7.1350
 1.9530	 7.1640
 1.9540	 7.1950
 1.9550	 7.2260
 1.9560	 7.2600
 1.9570	 7.2930
 1.9580	 7.3260
 1.9590	 7.3590
 1.9600	 7.3920
 1.9610	 7.4270
 1.9620	 7.4620
 1.9630	 7.4990
 1.9640	 7.5370
 1.9650	 7.5750
 1.9660	 7.6130
 1.9670	 7.6530
 1.9680	 7.6920
 1.9690	 7.7330
 1.9700	 7.7750
 1.9710	 7.8180
 1.9720	 7.8610
 1.9730	 7.9050
 1.9740	 7.9510
 1.9750	 7.9960
 1.9760	 8.0430
 1.9770	 8.0900
 1.9780	 8.1380
 1.9790	 8.1850
 1.9800	 8.2310
 1.9810	 8.2800
 1.9820	 8.3310
 1.9830	 8.3810
 1.9840	 8.4340
 1.9850	 8.4850
 1.9860	 8.5350
 1.9870	 8.5850
 1.9880	 8.6370
 1.9890	 8.6890
 1.9900	 8.7430
 1.9910	 8.7990
 1.9920	 8.8530
 1.9930	 8.9070
 1.9940	 8.9620
 1.9950	 9.0140
 1.9960	 9.0690
 1.9970	 9.1240
 1.9980	 9.1790
 1.9990	 9.2340
 2.0000	 9.2880
 2.0010	 9.3440
 2.0020	 9.3980
 2.0030	 9.4510
 2.0040	 9.5060
 2.0050	 9.5610
 2.0060	 9.6150
 2.0070	 9.6700
 2.0080	 9.7260
 2.0090	 9.7810
 2.0100	 9.8320
 2.0110	 9.8850
 2.0120	 9.9370
 2.0130	 9.9900
 2.0140	10.0420
 2.0150	10.0930
 2.0160	10.1460
 2.0170	10.1970
 2.0180	10.2480
 2.0190	10.3010
 2.0200	10.3500
 2.0210	10.3950
 2.0220	10.4420
 2.0230	10.4870
 2.0240	10.5320
 2.0250	10.5800
 2.0260	10.6250
 2.0270	10.6710
 2.0280	10.7130
 2.0290	10.7540
 2.0300	10.7960
 2.0310	10.8370
 2.0320	10.8770
 2.0330	10.9160
 2.0340	10.9570
 2.0350	10.9940
 2.0360	11.0290
 2.0370	11.0640
 2.0380	11.0960
 2.0390	11.1290
 2.0400	11.1620
 2.0410	11.1940
 2.0420	11.2260
 2.0430	11.2570
 2.0440	11.2870
 2.0450	11.3160
 2.0460	11.3460
 2.0470	11.3740
 2.0480	11.4030
 2.0490	11.4330
 2.0500	11.4630
 2.0510	11.4940
 2.0520	11.5240
 2.0530	11.5520
 2.0540	11.5800
 2.0550	11.6070
 2.0560	11.6340
 2.0570	11.6610
 2.0580	11.6890
 2.0590	11.7190
 2.0600	11.7500
 2.0610	11.7790
 2.0620	11.8100
 2.0630	11.8390
 2.0640	11.8640
 2.0650	11.8920
 2.0660	11.9200
 2.0670	11.9490
 2.0680	11.9790
 2.0690	12.0080
 2.0700	12.0380
 2.0710	12.0670
 2.0720	12.0940
 2.0730	12.1250
 2.0740	12.1540
 2.0750	12.1820
 2.0760	12.2100
 2.0770	12.2370
 2.0780	12.2650
 2.0790	12.2930
 2.0800	12.3220
 2.0810	12.3500
 2.0820	12.3790
 2.0830	12.4100
 2.0840	12.4390
 2.0850	12.4670
 2.0860	12.4960
 2.0870	12.5250
 2.0880	12.5540
 2.0890	12.5820
 2.0900	12.6090
 2.0910	12.6390
 2.0920	12.6690
 2.0930	12.6970
 2.0940	12.7260
 2.0950	12.7540
 2.0960	12.7780
 2.0970	12.8050
 2.0980	12.8350
 2.0990	12.8620
 2.1000	12.8900
 2.1010	12.9170
 2.1020	12.9430
 2.1030	12.9690
 2.1040	12.9980
 2.1050	13.0250
 2.1060	13.0510
 2.1070	13.0770
 2.1080	13.1040
 2.1090	13.1300
 2.1100	13.1560
 2.1110	13.1850
 2.1120	13.2110
 2.1130	13.2380
 2.1140	13.2630
 2.1150	13.2860
 2.1160	13.3100
 2.1170	13.3310
 2.1180	13.3550
 2.1190	13.3820
 2.1200	13.4080
 2.1210	13.4370
 2.1220	13.4640
 2.1230	13.4890
 2.1240	13.5140
 2.1250	13.5370
 2.1260	13.5560
 2.1270	13.5800
 2.1280	13.6050
 2.1290	13.6290
 2.1300	13.6550
 2.1310	13.6780
 2.1320	13.6990
 2.1330	13.7210
 2.1340	13.7450
 2.1350	13.7680
 2.1360	13.7920
 2.1370	13.8150
 2.1380	13.8370
 2.1390	13.8600
 2.1400	13.8810
 2.1410	13.9070
 2.1420	13.9310
 2.1430	13.9580
 2.1440	13.9820
 2.1450	14.0050
 2.1460	14.0280
 2.1470	14.0500
 2.1480	14.0740
 2.1490	14.0980
 2.1500	14.1220
 2.1510	14.1470
 2.1520	14.1690
 2.1530	14.1920
 2.1540	14.2130
 2.1550	14.2290
 2.1560	14.2480
 2.1570	14.2680
 2.1580	14.2850
 2.1590	14.3030
 2.1600	14.3210
 2.1610	14.3380
 2.1620	14.3550
 2.1630	14.3720
 2.1640	14.3890
 2.1650	14.4060
 2.1660	14.4200
 2.1670	14.4370
 2.1680	14.4550
 2.1690	14.4720
 2.1700	14.4900
 2.1710	14.5060
 2.1720	14.5170
 2.1730	14.5330
 2.1740	14.5500
 2.1750	14.5680
 2.1760	14.5900
 2.1770	14.6090
 2.1780	14.6270
 2.1790	14.6450
 2.1800	14.6600
 2.1810	14.6770
 2.1820	14.6960
 2.1830	14.7170
 2.1840	14.7350
 2.1850	14.7540
 2.1860	14.7720
 2.1870	14.7860
 2.1880	14.8040
 2.1890	14.8240
 2.1900	14.8430
 2.1910	14.8620
 2.1920	14.8800
 2.1930	14.8970
 2.1940	14.9150
 2.1950	14.9310
 2.1960	14.9500
 2.1970	14.9720
 2.1980	14.9910
 2.1990	15.0110
 2.2000	15.0280
 2.2010	15.0420
 2.2020	15.0570
 2.2030	15.0730
 2.2040	15.0870
 2.2050	15.1000
 2.2060	15.1130
 2.2070	15.1250
 2.2080	15.1360
 2.2090	15.1460
 2.2100	15.1540
 2.2110	15.1630
 2.2120	15.1690
 2.2130	15.1770
 2.2140	15.1860
 2.2150	15.1920
 2.2160	15.1970
 2.2170	15.1990
 2.2180	15.1980
 2.2190	15.1960
 2.2200	15.1910
 2.2210	15.1870
 2.2220	15.1820
 2.2230	15.1740
 2.2240	15.1660
 2.2250	15.1550
 2.2260	15.1410
 2.2270	15.1240
 2.2280	15.1030
 2.2290	15.0810
 2.2300	15.0550
 2.2310	15.0280
 2.2320	15.0020
 2.2330	14.9700
 2.2340	14.9360
 2.2350	14.9000
 2.2360	14.8600
 2.2370	14.8170
 2.2380	14.7720
 2.2390	14.7230
 2.2400	14.6750
 2.2410	14.6250
 2.2420	14.5750
 2.2430	14.5240
 2.2440	14.4720
 2.2450	14.4170
 2.2460	14.3640
 2.2470	14.3140
 2.2480	14.2620
 2.2490	14.2110
 2.2500	14.1580
 2.2510	14.1010
 2.2520	14.0460
 2.2530	13.9900
 2.2540	13.9350
 2.2550	13.8830
 2.2560	13.8290
 2.2570	13.7740
 2.2580	13.7210
 2.2590	13.6660
 2.2600	13.6150
 2.2610	13.5670
 2.2620	13.5180
 2.2630	13.4690
 2.2640	13.4210
 2.2650	13.3760
 2.2660	13.3300
 2.2670	13.2840
 2.2680	13.2410
 2.2690	13.1970
 2.2700	13.1520
 2.2710	13.1130
 2.2720	13.0780
 2.2730	13.0400
 2.2740	13.0040
 2.2750	12.9670
 2.2760	12.9280
 2.2770	12.8920
 2.2780	12.8590
 2.2790	12.8260
 2.2800	12.7940
 2.2810	12.7630
 2.2820	12.7340
 2.2830	12.7040
 2.2840	12.6770
 2.2850	12.6470
 2.2860	12.6140
 2.2870	12.5850
 2.2880	12.5600
 2.2890	12.5290
 2.2900	12.4980
 2.2910	12.4640
 2.2920	12.4210
 2.2930	12.3810
 2.2940	12.3430
 2.2950	12.3020
 2.2960	12.2580
 2.2970	12.2140
 2.2980	12.1680
 2.2990	12.1220
 2.3000	12.0770
 2.3010	12.0320
 2.3020	11.9840
 2.3030	11.9370
 2.3040	11.8910
 2.3050	11.8440
 2.3060	11.8010
 2.3070	11.7580
 2.3080	11.7130
 2.3090	11.6690
 2.3100	11.6290
 2.3110	11.5940
 2.3120	11.5700
 2.3130	11.5570
 2.3140	11.5440
 2.3150	11.5370
 2.3160	11.5320
 2.3170	11.5300
 2.3180	11.5310
 2.3190	11.5410
 2.3200	11.5450
 2.3210	11.5520
 2.3220	11.5510
 2.3230	11.5470
 2.3240	11.5390
 2.3250	11.5220
 2.3260	11.5120
 2.3270	11.5050
 2.3280	11.4900
 2.3290	11.4720
 2.3300	11.4530
 2.3310	11.4240
 2.3320	11.4000
 2.3330	11.3790
 2.3340	11.3550
 2.3350	11.3310
 2.3360	11.3020
 2.3370	11.2700
 2.3380	11.2380
 2.3390	11.2020
 2.3400	11.1680
 2.3410	11.1350
 2.3420	11.1030
 2.3430	11.0710
 2.3440	11.0370
 2.3450	11.0030
 2.3460	10.9700
 2.3470	10.9340
 2.3480	10.9030
 2.3490	10.8760
 2.3500	10.8510
 2.3510	10.8310
 2.3520	10.8100
 2.3530	10.7930
 2.3540	10.7730
 2.3550	10.7590
 2.3560	10.7500
 2.3570	10.7390
 2.3580	10.7320
 2.3590	10.7200
 2.3600	10.7010
 2.3610	10.6860
 2.3620	10.6720
 2.3630	10.6610
 2.3640	10.6480
 2.3650	10.6280
 2.3660	10.6050
 2.3670	10.5700
 2.3680	10.5350
 2.3690	10.5040
 2.3700	10.4720
 2.3710	10.4440
 2.3720	10.4200
 2.3730	10.3970
 2.3740	10.3740
 2.3750	10.3540
 2.3760	10.3300
 2.3770	10.2960
 2.3780	10.2650
 2.3790	10.2320
 2.3800	10.2000
 2.3810	10.1830
 2.3820	10.1600
 2.3830	10.1380
 2.3840	10.1160
 2.3850	10.0820
 2.3860	10.0520
 2.3870	10.0170
 2.3880	 9.9830
 2.3890	 9.9590
 2.3900	 9.9260
 2.3910	 9.8980
 2.3920	 9.8750
 2.3930	 9.8420
 2.3940	 9.8140
 2.3950	 9.7910
 2.3960	 9.7610
 2.3970	 9.7280
 2.3980	 9.7010
 2.3990	 9.6770
 2.4000	 9.6500
 2.4010	 9.6220
 2.4020	 9.5880
 2.4030	 9.5490
 2.4040	 9.5150
 2.4050	 9.4900
 2.4060	 9.4700
 2.4070	 9.4500
 2.4080	 9.4230
 2.4090	 9.3920
 2.4100	 9.3610
 2.4110	 9.3240
 2.4120	 9.2960
 2.4130	 9.2660
 2.4140	 9.2310
 2.4150	 9.1980
 2.4160	 9.1620
 2.4170	 9.1300
 2.4180	 9.0990
 2.4190	 9.0700
 2.4200	 9.0420
 2.4210	 9.0120
 2.4220	 8.9820
 2.4230	 8.9530
 2.4240	 8.9190
 2.4250	 8.8800
 2.4260	 8.8460
 2.4270	 8.8120
 2.4280	 8.7760
 2.4290	 8.7450
 2.4300	 8.7120
 2.4310	 8.6760
 2.4320	 8.6460
 2.4330	 8.6190
 2.4340	 8.5890
 2.4350	 8.5600
 2.4360	 8.5320
 2.4370	 8.4930
 2.4380	 8.4550
 2.4390	 8.4240
 2.4400	 8.3970
 2.4410	 8.3730
 2.4420	 8.3500
 2.4430	 8.3260
 2.4440	 8.2920
 2.4450	 8.2610
 2.4460	 8.2310
 2.4470	 8.2020
 2.4480	 8.1820
 2.4490	 8.1600
 2.4500	 8.1340
 2.4510	 8.1030
 2.4520	 8.0800
 2.4530	 8.0570
 2.4540	 8.0410
 2.4550	 8.0310
 2.4560	 8.0030
 2.4570	 7.9700
 2.4580	 7.9370
 2.4590	 7.8960
 2.4600	 7.8560
 2.4610	 7.8300
 2.4620	 7.8130
 2.4630	 7.8020
 2.4640	 7.7920
 2.4650	 7.7680
 2.4660	 7.7400
 2.4670	 7.7080
 2.4680	 7.6840
 2.4690	 7.6510
 2.4700	 7.6280
 2.4710	 7.6040
 2.4720	 7.5830
 2.4730	 7.5810
 2.4740	 7.5730
 2.4750	 7.5670
 2.4760	 7.5620
 2.4770	 7.5560
 2.4780	 7.5350
 2.4790	 7.5020
 2.4800	 7.4700
 2.4810	 7.4340
 2.4820	 7.4240
 2.4830	 7.4270
 2.4840	 7.4430
 2.4850	 7.4150
 2.4860	 7.3840
 2.4870	 7.3630
 2.4880	 7.3260
 2.4890	 7.2920
 2.4900	 7.2700
 2.4910	 7.2450
 2.4920	 7.2200
 2.4930	 7.2330
 2.4940	 7.2640
 2.4950	 7.2750
 2.4960	 7.2950
 2.4970	 7.3110
 2.4980	 7.2930
 2.4990	 7.2980
 2.5000	 7.3260
