Name: Quercus agrifolia 2
Type: vegetation
Class: Tree
Genus: Quercus
Species: agrifolia
Sample No.: VH276
Owner: UCSB
Wavelength Range: VSWIR
Origin: 34.7156; -120.0603; WGS84
Collection Date: 11/2/2013
Description: Samples were collected as part of the HyspIRI Airborne Campaign. 48 individual plants were sampled in three times in 2013 - spring  summer  and fall. The name of the sample includes a 1  2  or 3 which references a different individual of the species. Samples were taken to JPL and processed within 48 hours of collection. The same leaves were processed in the Nicolet and then measured using the ASD.
Measurement: Bidirectional reflectance
First Column: X
Second Column: Y
X Units: Wavelength (micrometers)
Y Units: Reflectance (percentage)
First X Value: 0.35
Last X Value: 2.5
Number of X Values: 2151
Additional Information: vegetation.tree.quercus.agrifolia.vswir.vh276.ucsb.asd.ancillary.txt

 0.3500	 9.8850
 0.3510	10.0270
 0.3520	10.0950
 0.3530	10.1190
 0.3540	10.1340
 0.3550	 9.9770
 0.3560	 9.9180
 0.3570	 9.9430
 0.3580	 9.9130
 0.3590	 9.9620
 0.3600	 9.9380
 0.3610	 9.8140
 0.3620	 9.7650
 0.3630	 9.7910
 0.3640	 9.8660
 0.3650	 9.9390
 0.3660	 9.9140
 0.3670	 9.8720
 0.3680	 9.8530
 0.3690	 9.8640
 0.3700	 9.8380
 0.3710	 9.7950
 0.3720	 9.7550
 0.3730	 9.7270
 0.3740	 9.7110
 0.3750	 9.7200
 0.3760	 9.7540
 0.3770	 9.7420
 0.3780	 9.7430
 0.3790	 9.7540
 0.3800	 9.7170
 0.3810	 9.7380
 0.3820	 9.7620
 0.3830	 9.7440
 0.3840	 9.7140
 0.3850	 9.7270
 0.3860	 9.7270
 0.3870	 9.6590
 0.3880	 9.6970
 0.3890	 9.7040
 0.3900	 9.6650
 0.3910	 9.6990
 0.3920	 9.6960
 0.3930	 9.6840
 0.3940	 9.6980
 0.3950	 9.7190
 0.3960	 9.7220
 0.3970	 9.7010
 0.3980	 9.6630
 0.3990	 9.6630
 0.4000	 9.6870
 0.4010	 9.7180
 0.4020	 9.7540
 0.4030	 9.7440
 0.4040	 9.7390
 0.4050	 9.7810
 0.4060	 9.8140
 0.4070	 9.8060
 0.4080	 9.8000
 0.4090	 9.8660
 0.4100	 9.8630
 0.4110	 9.8640
 0.4120	 9.9090
 0.4130	 9.9240
 0.4140	 9.9640
 0.4150	10.0020
 0.4160	10.0000
 0.4170	10.0020
 0.4180	10.0380
 0.4190	10.0890
 0.4200	10.0920
 0.4210	10.1060
 0.4220	10.1300
 0.4230	10.1540
 0.4240	10.1640
 0.4250	10.1810
 0.4260	10.2080
 0.4270	10.2340
 0.4280	10.2540
 0.4290	10.2730
 0.4300	10.2890
 0.4310	10.2880
 0.4320	10.2770
 0.4330	10.2710
 0.4340	10.2800
 0.4350	10.2910
 0.4360	10.2990
 0.4370	10.3100
 0.4380	10.3360
 0.4390	10.3600
 0.4400	10.3830
 0.4410	10.4060
 0.4420	10.4360
 0.4430	10.4460
 0.4440	10.4490
 0.4450	10.4690
 0.4460	10.4880
 0.4470	10.4980
 0.4480	10.5040
 0.4490	10.5220
 0.4500	10.5360
 0.4510	10.5450
 0.4520	10.5500
 0.4530	10.5640
 0.4540	10.5720
 0.4550	10.5750
 0.4560	10.5810
 0.4570	10.5900
 0.4580	10.5950
 0.4590	10.5950
 0.4600	10.6040
 0.4610	10.6040
 0.4620	10.6090
 0.4630	10.6300
 0.4640	10.6340
 0.4650	10.6380
 0.4660	10.6470
 0.4670	10.6470
 0.4680	10.6540
 0.4690	10.6620
 0.4700	10.6630
 0.4710	10.6670
 0.4720	10.6810
 0.4730	10.6960
 0.4740	10.6980
 0.4750	10.7070
 0.4760	10.7160
 0.4770	10.7200
 0.4780	10.7320
 0.4790	10.7390
 0.4800	10.7470
 0.4810	10.7620
 0.4820	10.7660
 0.4830	10.7700
 0.4840	10.7780
 0.4850	10.7840
 0.4860	10.7980
 0.4870	10.8210
 0.4880	10.8470
 0.4890	10.8620
 0.4900	10.8920
 0.4910	10.9330
 0.4920	10.9720
 0.4930	11.0140
 0.4940	11.0560
 0.4950	11.1020
 0.4960	11.1580
 0.4970	11.2150
 0.4980	11.2760
 0.4990	11.3440
 0.5000	11.4250
 0.5010	11.5120
 0.5020	11.6040
 0.5030	11.7050
 0.5040	11.8110
 0.5050	11.9210
 0.5060	12.0380
 0.5070	12.1760
 0.5080	12.3230
 0.5090	12.4810
 0.5100	12.6570
 0.5110	12.8410
 0.5120	13.0340
 0.5130	13.2360
 0.5140	13.4510
 0.5150	13.6780
 0.5160	13.9110
 0.5170	14.1450
 0.5180	14.3820
 0.5190	14.6210
 0.5200	14.8590
 0.5210	15.0840
 0.5220	15.3000
 0.5230	15.5090
 0.5240	15.7100
 0.5250	15.8820
 0.5260	16.0380
 0.5270	16.1780
 0.5280	16.2960
 0.5290	16.3970
 0.5300	16.4760
 0.5310	16.5370
 0.5320	16.5910
 0.5330	16.6270
 0.5340	16.6460
 0.5350	16.6550
 0.5360	16.6590
 0.5370	16.6640
 0.5380	16.6720
 0.5390	16.6810
 0.5400	16.6890
 0.5410	16.6960
 0.5420	16.7090
 0.5430	16.7380
 0.5440	16.7880
 0.5450	16.8540
 0.5460	16.9320
 0.5470	17.0250
 0.5480	17.1170
 0.5490	17.1930
 0.5500	17.2430
 0.5510	17.2780
 0.5520	17.2990
 0.5530	17.3080
 0.5540	17.3070
 0.5550	17.2920
 0.5560	17.2600
 0.5570	17.2140
 0.5580	17.1440
 0.5590	17.0540
 0.5600	16.9490
 0.5610	16.8290
 0.5620	16.7000
 0.5630	16.5660
 0.5640	16.4280
 0.5650	16.2730
 0.5660	16.1020
 0.5670	15.9230
 0.5680	15.7520
 0.5690	15.5880
 0.5700	15.4290
 0.5710	15.2720
 0.5720	15.1350
 0.5730	15.0180
 0.5740	14.9190
 0.5750	14.8400
 0.5760	14.7740
 0.5770	14.7100
 0.5780	14.6430
 0.5790	14.5760
 0.5800	14.5100
 0.5810	14.4460
 0.5820	14.3860
 0.5830	14.3340
 0.5840	14.2850
 0.5850	14.2300
 0.5860	14.1600
 0.5870	14.0890
 0.5880	14.0210
 0.5890	13.9640
 0.5900	13.9440
 0.5910	13.9360
 0.5920	13.9310
 0.5930	13.9290
 0.5940	13.9230
 0.5950	13.9040
 0.5960	13.8680
 0.5970	13.8090
 0.5980	13.7460
 0.5990	13.6810
 0.6000	13.6100
 0.6010	13.5430
 0.6020	13.4680
 0.6030	13.3850
 0.6040	13.3040
 0.6050	13.2160
 0.6060	13.1230
 0.6070	13.0270
 0.6080	12.9300
 0.6090	12.8300
 0.6100	12.7160
 0.6110	12.5820
 0.6120	12.5100
 0.6130	12.4740
 0.6140	12.4430
 0.6150	12.3990
 0.6160	12.3640
 0.6170	12.3330
 0.6180	12.2970
 0.6190	12.2670
 0.6200	12.2430
 0.6210	12.2230
 0.6220	12.2100
 0.6230	12.2020
 0.6240	12.1990
 0.6250	12.1990
 0.6260	12.2010
 0.6270	12.2060
 0.6280	12.2140
 0.6290	12.2220
 0.6300	12.2280
 0.6310	12.2310
 0.6320	12.2330
 0.6330	12.2390
 0.6340	12.2370
 0.6350	12.2230
 0.6360	12.1990
 0.6370	12.1670
 0.6380	12.1230
 0.6390	12.0710
 0.6400	12.0150
 0.6410	11.9410
 0.6420	11.8640
 0.6430	11.7900
 0.6440	11.7110
 0.6450	11.6320
 0.6460	11.5540
 0.6470	11.4770
 0.6480	11.4060
 0.6490	11.3370
 0.6500	11.2700
 0.6510	11.2090
 0.6520	11.1490
 0.6530	11.0900
 0.6540	11.0330
 0.6550	10.9760
 0.6560	10.9210
 0.6570	10.8700
 0.6580	10.8230
 0.6590	10.7780
 0.6600	10.7360
 0.6610	10.7010
 0.6620	10.6750
 0.6630	10.6540
 0.6640	10.6390
 0.6650	10.6320
 0.6660	10.6340
 0.6670	10.6380
 0.6680	10.6490
 0.6690	10.6750
 0.6700	10.7040
 0.6710	10.7360
 0.6720	10.7730
 0.6730	10.8200
 0.6740	10.8730
 0.6750	10.9330
 0.6760	11.0010
 0.6770	11.0770
 0.6780	11.1640
 0.6790	11.2630
 0.6800	11.3780
 0.6810	11.5020
 0.6820	11.6450
 0.6830	11.8150
 0.6840	12.0130
 0.6850	12.2430
 0.6860	12.5090
 0.6870	12.8150
 0.6880	13.1740
 0.6890	13.5980
 0.6900	14.0900
 0.6910	14.6450
 0.6920	15.2780
 0.6930	15.9850
 0.6940	16.7660
 0.6950	17.6310
 0.6960	18.5650
 0.6970	19.5630
 0.6980	20.6200
 0.6990	21.7270
 0.7000	22.8710
 0.7010	24.0450
 0.7020	25.2410
 0.7030	26.4350
 0.7040	27.6330
 0.7050	28.8350
 0.7060	30.0230
 0.7070	31.1880
 0.7080	32.3340
 0.7090	33.4680
 0.7100	34.5670
 0.7110	35.6440
 0.7120	36.6980
 0.7130	37.7160
 0.7140	38.7070
 0.7150	39.6620
 0.7160	40.5770
 0.7170	41.4730
 0.7180	42.3350
 0.7190	43.1620
 0.7200	43.9560
 0.7210	44.7270
 0.7220	45.4690
 0.7230	46.1780
 0.7240	46.8520
 0.7250	47.5070
 0.7260	48.1290
 0.7270	48.7130
 0.7280	49.2710
 0.7290	49.7990
 0.7300	50.3120
 0.7310	50.8220
 0.7320	51.2780
 0.7330	51.7010
 0.7340	52.1090
 0.7350	52.5080
 0.7360	52.8790
 0.7370	53.2250
 0.7380	53.5500
 0.7390	53.8640
 0.7400	54.1420
 0.7410	54.3970
 0.7420	54.6460
 0.7430	54.8720
 0.7440	55.0750
 0.7450	55.2650
 0.7460	55.4530
 0.7470	55.6290
 0.7480	55.7820
 0.7490	55.9080
 0.7500	56.0240
 0.7510	56.1280
 0.7520	56.2250
 0.7530	56.3180
 0.7540	56.4060
 0.7550	56.4750
 0.7560	56.5290
 0.7570	56.5890
 0.7580	56.6380
 0.7590	56.6800
 0.7600	56.7200
 0.7610	56.7500
 0.7620	56.7900
 0.7630	56.8190
 0.7640	56.8230
 0.7650	56.8450
 0.7660	56.8600
 0.7670	56.8670
 0.7680	56.8780
 0.7690	56.8710
 0.7700	56.8620
 0.7710	56.8670
 0.7720	56.8890
 0.7730	56.8940
 0.7740	56.8850
 0.7750	56.8770
 0.7760	56.8820
 0.7770	56.8850
 0.7780	56.8820
 0.7790	56.8710
 0.7800	56.8710
 0.7810	56.8750
 0.7820	56.8750
 0.7830	56.8660
 0.7840	56.8730
 0.7850	56.8730
 0.7860	56.8560
 0.7870	56.8590
 0.7880	56.8690
 0.7890	56.8750
 0.7900	56.8730
 0.7910	56.8790
 0.7920	56.8760
 0.7930	56.8660
 0.7940	56.8650
 0.7950	56.8730
 0.7960	56.8850
 0.7970	56.8930
 0.7980	56.8940
 0.7990	56.8880
 0.8000	56.8890
 0.8010	56.9050
 0.8020	56.9110
 0.8030	56.9160
 0.8040	56.9250
 0.8050	56.9420
 0.8060	56.9580
 0.8070	56.9550
 0.8080	56.9470
 0.8090	56.9780
 0.8100	56.9910
 0.8110	57.0020
 0.8120	57.0190
 0.8130	57.0170
 0.8140	57.0240
 0.8150	57.0430
 0.8160	57.0680
 0.8170	57.0820
 0.8180	57.0880
 0.8190	57.0960
 0.8200	57.1130
 0.8210	57.1430
 0.8220	57.1610
 0.8230	57.1650
 0.8240	57.1750
 0.8250	57.1950
 0.8260	57.2080
 0.8270	57.2090
 0.8280	57.2210
 0.8290	57.2500
 0.8300	57.2700
 0.8310	57.2680
 0.8320	57.2870
 0.8330	57.3060
 0.8340	57.3250
 0.8350	57.3490
 0.8360	57.3670
 0.8370	57.3640
 0.8380	57.3560
 0.8390	57.3740
 0.8400	57.3840
 0.8410	57.3980
 0.8420	57.4200
 0.8430	57.4400
 0.8440	57.4620
 0.8450	57.4770
 0.8460	57.4810
 0.8470	57.4820
 0.8480	57.5100
 0.8490	57.5430
 0.8500	57.5530
 0.8510	57.5520
 0.8520	57.5530
 0.8530	57.5630
 0.8540	57.5820
 0.8550	57.5770
 0.8560	57.5790
 0.8570	57.5940
 0.8580	57.5940
 0.8590	57.6170
 0.8600	57.6370
 0.8610	57.6370
 0.8620	57.6230
 0.8630	57.6220
 0.8640	57.6300
 0.8650	57.6380
 0.8660	57.6550
 0.8670	57.6530
 0.8680	57.6470
 0.8690	57.6580
 0.8700	57.6380
 0.8710	57.6430
 0.8720	57.6690
 0.8730	57.6760
 0.8740	57.6630
 0.8750	57.6480
 0.8760	57.6470
 0.8770	57.6650
 0.8780	57.6560
 0.8790	57.6330
 0.8800	57.6190
 0.8810	57.6310
 0.8820	57.6280
 0.8830	57.6140
 0.8840	57.6050
 0.8850	57.6080
 0.8860	57.6110
 0.8870	57.6150
 0.8880	57.6150
 0.8890	57.5980
 0.8900	57.5790
 0.8910	57.5670
 0.8920	57.5600
 0.8930	57.5430
 0.8940	57.5350
 0.8950	57.5360
 0.8960	57.5320
 0.8970	57.5070
 0.8980	57.4940
 0.8990	57.4990
 0.9000	57.4950
 0.9010	57.4820
 0.9020	57.4620
 0.9030	57.4430
 0.9040	57.4400
 0.9050	57.4250
 0.9060	57.4050
 0.9070	57.3870
 0.9080	57.3720
 0.9090	57.3600
 0.9100	57.3550
 0.9110	57.3540
 0.9120	57.3380
 0.9130	57.3430
 0.9140	57.3370
 0.9150	57.2940
 0.9160	57.2790
 0.9170	57.2710
 0.9180	57.2730
 0.9190	57.2900
 0.9200	57.2660
 0.9210	57.2480
 0.9220	57.2320
 0.9230	57.1990
 0.9240	57.1950
 0.9250	57.1890
 0.9260	57.1760
 0.9270	57.1680
 0.9280	57.1260
 0.9290	57.1040
 0.9300	57.1040
 0.9310	57.0770
 0.9320	57.0640
 0.9330	57.0450
 0.9340	57.0170
 0.9350	57.0000
 0.9360	56.9880
 0.9370	56.9730
 0.9380	56.9590
 0.9390	56.9560
 0.9400	56.9330
 0.9410	56.9070
 0.9420	56.8910
 0.9430	56.8730
 0.9440	56.8680
 0.9450	56.8460
 0.9460	56.7940
 0.9470	56.7520
 0.9480	56.7120
 0.9490	56.6750
 0.9500	56.6440
 0.9510	56.6310
 0.9520	56.5970
 0.9530	56.5540
 0.9540	56.5210
 0.9550	56.4930
 0.9560	56.4370
 0.9570	56.3910
 0.9580	56.3810
 0.9590	56.3200
 0.9600	56.2780
 0.9610	56.2460
 0.9620	56.2010
 0.9630	56.1910
 0.9640	56.1860
 0.9650	56.1700
 0.9660	56.1440
 0.9670	56.1390
 0.9680	56.1350
 0.9690	56.1320
 0.9700	56.1310
 0.9710	56.1040
 0.9720	56.1000
 0.9730	56.1070
 0.9740	56.0930
 0.9750	56.0790
 0.9760	56.0780
 0.9770	56.0880
 0.9780	56.0990
 0.9790	56.0840
 0.9800	56.0860
 0.9810	56.1100
 0.9820	56.1360
 0.9830	56.1320
 0.9840	56.1430
 0.9850	56.1680
 0.9860	56.1860
 0.9870	56.1950
 0.9880	56.2160
 0.9890	56.2390
 0.9900	56.2460
 0.9910	56.2560
 0.9920	56.2940
 0.9930	56.3370
 0.9940	56.3470
 0.9950	56.3420
 0.9960	56.3450
 0.9970	56.3650
 0.9980	56.3960
 0.9990	56.4040
 1.0000	56.4920
 1.0010	56.6120
 1.0020	56.6940
 1.0030	56.7130
 1.0040	56.7270
 1.0050	56.7450
 1.0060	56.7670
 1.0070	56.7860
 1.0080	56.8030
 1.0090	56.8220
 1.0100	56.8420
 1.0110	56.8570
 1.0120	56.8760
 1.0130	56.9010
 1.0140	56.9250
 1.0150	56.9460
 1.0160	56.9740
 1.0170	57.0000
 1.0180	57.0150
 1.0190	57.0260
 1.0200	57.0440
 1.0210	57.0590
 1.0220	57.0740
 1.0230	57.0940
 1.0240	57.1160
 1.0250	57.1330
 1.0260	57.1510
 1.0270	57.1660
 1.0280	57.1720
 1.0290	57.1850
 1.0300	57.1990
 1.0310	57.2130
 1.0320	57.2280
 1.0330	57.2440
 1.0340	57.2620
 1.0350	57.2780
 1.0360	57.2880
 1.0370	57.3000
 1.0380	57.3090
 1.0390	57.3100
 1.0400	57.3180
 1.0410	57.3280
 1.0420	57.3350
 1.0430	57.3410
 1.0440	57.3480
 1.0450	57.3540
 1.0460	57.3630
 1.0470	57.3780
 1.0480	57.3880
 1.0490	57.3960
 1.0500	57.4050
 1.0510	57.4100
 1.0520	57.4170
 1.0530	57.4220
 1.0540	57.4260
 1.0550	57.4330
 1.0560	57.4390
 1.0570	57.4470
 1.0580	57.4600
 1.0590	57.4680
 1.0600	57.4740
 1.0610	57.4800
 1.0620	57.4850
 1.0630	57.4890
 1.0640	57.4920
 1.0650	57.4950
 1.0660	57.4990
 1.0670	57.4990
 1.0680	57.4970
 1.0690	57.4930
 1.0700	57.4930
 1.0710	57.4900
 1.0720	57.4890
 1.0730	57.4940
 1.0740	57.4940
 1.0750	57.4890
 1.0760	57.4870
 1.0770	57.4880
 1.0780	57.4840
 1.0790	57.4790
 1.0800	57.4720
 1.0810	57.4620
 1.0820	57.4530
 1.0830	57.4480
 1.0840	57.4400
 1.0850	57.4290
 1.0860	57.4170
 1.0870	57.4070
 1.0880	57.3960
 1.0890	57.3880
 1.0900	57.3850
 1.0910	57.3790
 1.0920	57.3750
 1.0930	57.3660
 1.0940	57.3550
 1.0950	57.3430
 1.0960	57.3250
 1.0970	57.3110
 1.0980	57.2960
 1.0990	57.2820
 1.1000	57.2690
 1.1010	57.2540
 1.1020	57.2390
 1.1030	57.2240
 1.1040	57.2010
 1.1050	57.1800
 1.1060	57.1590
 1.1070	57.1380
 1.1080	57.1160
 1.1090	57.0960
 1.1100	57.0760
 1.1110	57.0570
 1.1120	57.0360
 1.1130	57.0160
 1.1140	56.9960
 1.1150	56.9760
 1.1160	56.9530
 1.1170	56.9340
 1.1180	56.9100
 1.1190	56.8800
 1.1200	56.8490
 1.1210	56.8180
 1.1220	56.7830
 1.1230	56.7440
 1.1240	56.7030
 1.1250	56.6590
 1.1260	56.6120
 1.1270	56.5610
 1.1280	56.5090
 1.1290	56.4530
 1.1300	56.3960
 1.1310	56.3320
 1.1320	56.2650
 1.1330	56.1920
 1.1340	56.1140
 1.1350	56.0310
 1.1360	55.9440
 1.1370	55.8520
 1.1380	55.7530
 1.1390	55.6510
 1.1400	55.5440
 1.1410	55.4350
 1.1420	55.3260
 1.1430	55.2120
 1.1440	55.0980
 1.1450	54.9830
 1.1460	54.8700
 1.1470	54.7520
 1.1480	54.6420
 1.1490	54.5330
 1.1500	54.4320
 1.1510	54.3360
 1.1520	54.2450
 1.1530	54.1570
 1.1540	54.0780
 1.1550	54.0040
 1.1560	53.9380
 1.1570	53.8790
 1.1580	53.8220
 1.1590	53.7720
 1.1600	53.7250
 1.1610	53.6820
 1.1620	53.6460
 1.1630	53.6140
 1.1640	53.5860
 1.1650	53.5620
 1.1660	53.5470
 1.1670	53.5290
 1.1680	53.5130
 1.1690	53.4980
 1.1700	53.4830
 1.1710	53.4680
 1.1720	53.4550
 1.1730	53.4430
 1.1740	53.4310
 1.1750	53.4200
 1.1760	53.4110
 1.1770	53.4010
 1.1780	53.3880
 1.1790	53.3770
 1.1800	53.3640
 1.1810	53.3460
 1.1820	53.3300
 1.1830	53.3140
 1.1840	53.2970
 1.1850	53.2840
 1.1860	53.2700
 1.1870	53.2540
 1.1880	53.2400
 1.1890	53.2280
 1.1900	53.2150
 1.1910	53.2020
 1.1920	53.1920
 1.1930	53.1830
 1.1940	53.1760
 1.1950	53.1720
 1.1960	53.1690
 1.1970	53.1670
 1.1980	53.1640
 1.1990	53.1640
 1.2000	53.1660
 1.2010	53.1710
 1.2020	53.1790
 1.2030	53.1870
 1.2040	53.1940
 1.2050	53.2000
 1.2060	53.2090
 1.2070	53.2200
 1.2080	53.2350
 1.2090	53.2520
 1.2100	53.2710
 1.2110	53.2910
 1.2120	53.3150
 1.2130	53.3370
 1.2140	53.3590
 1.2150	53.3830
 1.2160	53.4080
 1.2170	53.4330
 1.2180	53.4610
 1.2190	53.4900
 1.2200	53.5210
 1.2210	53.5540
 1.2220	53.5860
 1.2230	53.6180
 1.2240	53.6510
 1.2250	53.6850
 1.2260	53.7180
 1.2270	53.7500
 1.2280	53.7820
 1.2290	53.8140
 1.2300	53.8450
 1.2310	53.8720
 1.2320	53.9040
 1.2330	53.9300
 1.2340	53.9560
 1.2350	53.9830
 1.2360	54.0110
 1.2370	54.0390
 1.2380	54.0650
 1.2390	54.0930
 1.2400	54.1150
 1.2410	54.1340
 1.2420	54.1510
 1.2430	54.1690
 1.2440	54.1830
 1.2450	54.1980
 1.2460	54.2150
 1.2470	54.2340
 1.2480	54.2550
 1.2490	54.2730
 1.2500	54.2870
 1.2510	54.2970
 1.2520	54.3080
 1.2530	54.3210
 1.2540	54.3330
 1.2550	54.3450
 1.2560	54.3560
 1.2570	54.3640
 1.2580	54.3710
 1.2590	54.3790
 1.2600	54.3870
 1.2610	54.3940
 1.2620	54.4010
 1.2630	54.4040
 1.2640	54.4050
 1.2650	54.4080
 1.2660	54.4090
 1.2670	54.4110
 1.2680	54.4140
 1.2690	54.4150
 1.2700	54.4160
 1.2710	54.4140
 1.2720	54.4130
 1.2730	54.4070
 1.2740	54.3980
 1.2750	54.3920
 1.2760	54.3840
 1.2770	54.3760
 1.2780	54.3690
 1.2790	54.3590
 1.2800	54.3470
 1.2810	54.3350
 1.2820	54.3240
 1.2830	54.3140
 1.2840	54.3060
 1.2850	54.2990
 1.2860	54.2910
 1.2870	54.2790
 1.2880	54.2650
 1.2890	54.2500
 1.2900	54.2340
 1.2910	54.2160
 1.2920	54.1990
 1.2930	54.1830
 1.2940	54.1630
 1.2950	54.1410
 1.2960	54.1170
 1.2970	54.0900
 1.2980	54.0630
 1.2990	54.0340
 1.3000	54.0040
 1.3010	53.9710
 1.3020	53.9350
 1.3030	53.8970
 1.3040	53.8530
 1.3050	53.8080
 1.3060	53.7600
 1.3070	53.7060
 1.3080	53.6490
 1.3090	53.5910
 1.3100	53.5280
 1.3110	53.4620
 1.3120	53.3970
 1.3130	53.3310
 1.3140	53.2590
 1.3150	53.1850
 1.3160	53.1080
 1.3170	53.0290
 1.3180	52.9440
 1.3190	52.8570
 1.3200	52.7670
 1.3210	52.6700
 1.3220	52.5720
 1.3230	52.4730
 1.3240	52.3670
 1.3250	52.2610
 1.3260	52.1530
 1.3270	52.0400
 1.3280	51.9270
 1.3290	51.8110
 1.3300	51.6940
 1.3310	51.5730
 1.3320	51.4500
 1.3330	51.3280
 1.3340	51.2030
 1.3350	51.0760
 1.3360	50.9460
 1.3370	50.8120
 1.3380	50.6770
 1.3390	50.5400
 1.3400	50.4040
 1.3410	50.2720
 1.3420	50.1400
 1.3430	50.0080
 1.3440	49.8790
 1.3450	49.7490
 1.3460	49.6150
 1.3470	49.4850
 1.3480	49.3560
 1.3490	49.2300
 1.3500	49.1060
 1.3510	48.9850
 1.3520	48.8650
 1.3530	48.7450
 1.3540	48.6260
 1.3550	48.5050
 1.3560	48.3810
 1.3570	48.2560
 1.3580	48.1300
 1.3590	47.9970
 1.3600	47.8660
 1.3610	47.7320
 1.3620	47.5890
 1.3630	47.4430
 1.3640	47.2900
 1.3650	47.1290
 1.3660	46.9630
 1.3670	46.7880
 1.3680	46.6050
 1.3690	46.4130
 1.3700	46.2070
 1.3710	45.9930
 1.3720	45.7670
 1.3730	45.5250
 1.3740	45.2700
 1.3750	44.9980
 1.3760	44.7050
 1.3770	44.3900
 1.3780	44.0510
 1.3790	43.6910
 1.3800	43.3090
 1.3810	42.8990
 1.3820	42.4690
 1.3830	42.0210
 1.3840	41.5470
 1.3850	41.0480
 1.3860	40.5320
 1.3870	39.9900
 1.3880	39.4380
 1.3890	38.8690
 1.3900	38.2850
 1.3910	37.6960
 1.3920	37.0990
 1.3930	36.4930
 1.3940	35.8870
 1.3950	35.2740
 1.3960	34.6630
 1.3970	34.0570
 1.3980	33.4570
 1.3990	32.8730
 1.4000	32.3010
 1.4010	31.7420
 1.4020	31.2030
 1.4030	30.6780
 1.4040	30.1740
 1.4050	29.6920
 1.4060	29.2310
 1.4070	28.7980
 1.4080	28.3870
 1.4090	27.9980
 1.4100	27.6360
 1.4110	27.2920
 1.4120	26.9710
 1.4130	26.6740
 1.4140	26.3980
 1.4150	26.1460
 1.4160	25.9160
 1.4170	25.7050
 1.4180	25.5110
 1.4190	25.3330
 1.4200	25.1710
 1.4210	25.0250
 1.4220	24.8940
 1.4230	24.7780
 1.4240	24.6740
 1.4250	24.5800
 1.4260	24.4980
 1.4270	24.4240
 1.4280	24.3600
 1.4290	24.3040
 1.4300	24.2570
 1.4310	24.2180
 1.4320	24.1860
 1.4330	24.1610
 1.4340	24.1440
 1.4350	24.1310
 1.4360	24.1230
 1.4370	24.1210
 1.4380	24.1240
 1.4390	24.1280
 1.4400	24.1370
 1.4410	24.1520
 1.4420	24.1680
 1.4430	24.1880
 1.4440	24.2110
 1.4450	24.2340
 1.4460	24.2590
 1.4470	24.2870
 1.4480	24.3170
 1.4490	24.3480
 1.4500	24.3790
 1.4510	24.4100
 1.4520	24.4420
 1.4530	24.4740
 1.4540	24.5080
 1.4550	24.5450
 1.4560	24.5830
 1.4570	24.6260
 1.4580	24.6710
 1.4590	24.7180
 1.4600	24.7700
 1.4610	24.8270
 1.4620	24.8880
 1.4630	24.9530
 1.4640	25.0230
 1.4650	25.0990
 1.4660	25.1780
 1.4670	25.2660
 1.4680	25.3580
 1.4690	25.4540
 1.4700	25.5570
 1.4710	25.6640
 1.4720	25.7770
 1.4730	25.8940
 1.4740	26.0160
 1.4750	26.1410
 1.4760	26.2700
 1.4770	26.4010
 1.4780	26.5320
 1.4790	26.6650
 1.4800	26.7980
 1.4810	26.9310
 1.4820	27.0660
 1.4830	27.2010
 1.4840	27.3370
 1.4850	27.4740
 1.4860	27.6110
 1.4870	27.7520
 1.4880	27.8920
 1.4890	28.0320
 1.4900	28.1720
 1.4910	28.3120
 1.4920	28.4520
 1.4930	28.5940
 1.4940	28.7350
 1.4950	28.8780
 1.4960	29.0190
 1.4970	29.1590
 1.4980	29.2990
 1.4990	29.4390
 1.5000	29.5790
 1.5010	29.7190
 1.5020	29.8590
 1.5030	30.0000
 1.5040	30.1390
 1.5050	30.2740
 1.5060	30.4110
 1.5070	30.5470
 1.5080	30.6830
 1.5090	30.8200
 1.5100	30.9560
 1.5110	31.0890
 1.5120	31.2200
 1.5130	31.3470
 1.5140	31.4740
 1.5150	31.6000
 1.5160	31.7250
 1.5170	31.8530
 1.5180	31.9790
 1.5190	32.1050
 1.5200	32.2270
 1.5210	32.3440
 1.5220	32.4630
 1.5230	32.5820
 1.5240	32.7020
 1.5250	32.8220
 1.5260	32.9400
 1.5270	33.0560
 1.5280	33.1710
 1.5290	33.2840
 1.5300	33.3930
 1.5310	33.5000
 1.5320	33.6020
 1.5330	33.7050
 1.5340	33.8090
 1.5350	33.9110
 1.5360	34.0130
 1.5370	34.1120
 1.5380	34.2090
 1.5390	34.3050
 1.5400	34.4000
 1.5410	34.4950
 1.5420	34.5890
 1.5430	34.6820
 1.5440	34.7770
 1.5450	34.8690
 1.5460	34.9610
 1.5470	35.0530
 1.5480	35.1430
 1.5490	35.2350
 1.5500	35.3240
 1.5510	35.4100
 1.5520	35.4970
 1.5530	35.5800
 1.5540	35.6620
 1.5550	35.7440
 1.5560	35.8230
 1.5570	35.9000
 1.5580	35.9770
 1.5590	36.0540
 1.5600	36.1300
 1.5610	36.2040
 1.5620	36.2790
 1.5630	36.3530
 1.5640	36.4250
 1.5650	36.5000
 1.5660	36.5750
 1.5670	36.6470
 1.5680	36.7200
 1.5690	36.7920
 1.5700	36.8630
 1.5710	36.9350
 1.5720	37.0050
 1.5730	37.0750
 1.5740	37.1450
 1.5750	37.2140
 1.5760	37.2830
 1.5770	37.3490
 1.5780	37.4130
 1.5790	37.4770
 1.5800	37.5430
 1.5810	37.6090
 1.5820	37.6760
 1.5830	37.7440
 1.5840	37.8090
 1.5850	37.8720
 1.5860	37.9350
 1.5870	37.9960
 1.5880	38.0560
 1.5890	38.1150
 1.5900	38.1750
 1.5910	38.2360
 1.5920	38.2990
 1.5930	38.3600
 1.5940	38.4220
 1.5950	38.4830
 1.5960	38.5460
 1.5970	38.6100
 1.5980	38.6720
 1.5990	38.7340
 1.6000	38.7940
 1.6010	38.8530
 1.6020	38.9140
 1.6030	38.9740
 1.6040	39.0320
 1.6050	39.0890
 1.6060	39.1420
 1.6070	39.1940
 1.6080	39.2490
 1.6090	39.3010
 1.6100	39.3520
 1.6110	39.4050
 1.6120	39.4540
 1.6130	39.5020
 1.6140	39.5530
 1.6150	39.6010
 1.6160	39.6480
 1.6170	39.6950
 1.6180	39.7360
 1.6190	39.7780
 1.6200	39.8180
 1.6210	39.8590
 1.6220	39.9030
 1.6230	39.9430
 1.6240	39.9820
 1.6250	40.0180
 1.6260	40.0510
 1.6270	40.0880
 1.6280	40.1260
 1.6290	40.1620
 1.6300	40.1960
 1.6310	40.2280
 1.6320	40.2610
 1.6330	40.2900
 1.6340	40.3160
 1.6350	40.3410
 1.6360	40.3600
 1.6370	40.3810
 1.6380	40.4000
 1.6390	40.4180
 1.6400	40.4370
 1.6410	40.4510
 1.6420	40.4620
 1.6430	40.4710
 1.6440	40.4770
 1.6450	40.4810
 1.6460	40.4830
 1.6470	40.4810
 1.6480	40.4760
 1.6490	40.4700
 1.6500	40.4610
 1.6510	40.4480
 1.6520	40.4330
 1.6530	40.4180
 1.6540	40.4030
 1.6550	40.3870
 1.6560	40.3710
 1.6570	40.3560
 1.6580	40.3380
 1.6590	40.3220
 1.6600	40.3080
 1.6610	40.2920
 1.6620	40.2760
 1.6630	40.2620
 1.6640	40.2490
 1.6650	40.2360
 1.6660	40.2220
 1.6670	40.2060
 1.6680	40.1890
 1.6690	40.1720
 1.6700	40.1540
 1.6710	40.1370
 1.6720	40.1150
 1.6730	40.0880
 1.6740	40.0600
 1.6750	40.0280
 1.6760	39.9970
 1.6770	39.9670
 1.6780	39.9310
 1.6790	39.8910
 1.6800	39.8490
 1.6810	39.7990
 1.6820	39.7440
 1.6830	39.6880
 1.6840	39.6280
 1.6850	39.5670
 1.6860	39.5070
 1.6870	39.4470
 1.6880	39.3860
 1.6890	39.3250
 1.6900	39.2620
 1.6910	39.1950
 1.6920	39.1310
 1.6930	39.0660
 1.6940	39.0040
 1.6950	38.9430
 1.6960	38.8830
 1.6970	38.8250
 1.6980	38.7660
 1.6990	38.7090
 1.7000	38.6470
 1.7010	38.5840
 1.7020	38.5210
 1.7030	38.4570
 1.7040	38.3910
 1.7050	38.3260
 1.7060	38.2580
 1.7070	38.1870
 1.7080	38.1190
 1.7090	38.0510
 1.7100	37.9810
 1.7110	37.9110
 1.7120	37.8380
 1.7130	37.7640
 1.7140	37.6940
 1.7150	37.6240
 1.7160	37.5540
 1.7170	37.4880
 1.7180	37.4250
 1.7190	37.3600
 1.7200	37.3050
 1.7210	37.2530
 1.7220	37.2000
 1.7230	37.1520
 1.7240	37.1010
 1.7250	37.0480
 1.7260	37.0000
 1.7270	36.9550
 1.7280	36.9170
 1.7290	36.8850
 1.7300	36.8590
 1.7310	36.8360
 1.7320	36.8190
 1.7330	36.8030
 1.7340	36.7910
 1.7350	36.7810
 1.7360	36.7770
 1.7370	36.7670
 1.7380	36.7570
 1.7390	36.7430
 1.7400	36.7270
 1.7410	36.7020
 1.7420	36.6750
 1.7430	36.6400
 1.7440	36.5950
 1.7450	36.5480
 1.7460	36.4950
 1.7470	36.4430
 1.7480	36.3900
 1.7490	36.3340
 1.7500	36.2760
 1.7510	36.2180
 1.7520	36.1550
 1.7530	36.0960
 1.7540	36.0400
 1.7550	35.9800
 1.7560	35.9180
 1.7570	35.8570
 1.7580	35.7950
 1.7590	35.7310
 1.7600	35.6710
 1.7610	35.6160
 1.7620	35.5660
 1.7630	35.5290
 1.7640	35.4890
 1.7650	35.4490
 1.7660	35.4120
 1.7670	35.3760
 1.7680	35.3430
 1.7690	35.3140
 1.7700	35.2870
 1.7710	35.2600
 1.7720	35.2350
 1.7730	35.2140
 1.7740	35.1920
 1.7750	35.1730
 1.7760	35.1500
 1.7770	35.1260
 1.7780	35.1040
 1.7790	35.0820
 1.7800	35.0610
 1.7810	35.0420
 1.7820	35.0250
 1.7830	35.0070
 1.7840	34.9910
 1.7850	34.9780
 1.7860	34.9660
 1.7870	34.9550
 1.7880	34.9490
 1.7890	34.9480
 1.7900	34.9440
 1.7910	34.9410
 1.7920	34.9370
 1.7930	34.9350
 1.7940	34.9360
 1.7950	34.9380
 1.7960	34.9410
 1.7970	34.9460
 1.7980	34.9570
 1.7990	34.9620
 1.8000	34.9670
 1.8010	34.9700
 1.8020	34.9660
 1.8030	34.9700
 1.8040	34.9780
 1.8050	34.9880
 1.8060	35.0030
 1.8070	35.0120
 1.8080	35.0170
 1.8090	35.0240
 1.8100	35.0290
 1.8110	35.0340
 1.8120	35.0420
 1.8130	35.0470
 1.8140	35.0500
 1.8150	35.0570
 1.8160	35.0620
 1.8170	35.0620
 1.8180	35.0640
 1.8190	35.0620
 1.8200	35.0650
 1.8210	35.0770
 1.8220	35.0810
 1.8230	35.0810
 1.8240	35.0810
 1.8250	35.0750
 1.8260	35.0720
 1.8270	35.0700
 1.8280	35.0680
 1.8290	35.0660
 1.8300	35.2180
 1.8310	35.5340
 1.8320	35.6710
 1.8330	35.6480
 1.8340	35.6210
 1.8350	35.5920
 1.8360	35.5610
 1.8370	35.5260
 1.8380	35.4890
 1.8390	35.4410
 1.8400	35.3850
 1.8410	35.3260
 1.8420	35.2630
 1.8430	35.1880
 1.8440	35.1090
 1.8450	35.0240
 1.8460	34.9260
 1.8470	34.8220
 1.8480	34.7090
 1.8490	34.5800
 1.8500	34.4410
 1.8510	34.2920
 1.8520	34.1280
 1.8530	33.9480
 1.8540	33.7670
 1.8550	33.5780
 1.8560	33.3680
 1.8570	33.1500
 1.8580	32.9130
 1.8590	32.6570
 1.8600	32.3790
 1.8610	32.0930
 1.8620	31.7850
 1.8630	31.4630
 1.8640	31.1250
 1.8650	30.7630
 1.8660	30.3830
 1.8670	29.9760
 1.8680	29.5430
 1.8690	29.0910
 1.8700	28.6170
 1.8710	28.1230
 1.8720	27.6120
 1.8730	27.0830
 1.8740	26.5390
 1.8750	25.9800
 1.8760	25.4030
 1.8770	24.8210
 1.8780	24.2360
 1.8790	23.6450
 1.8800	23.0600
 1.8810	22.4790
 1.8820	21.8950
 1.8830	21.3080
 1.8840	20.7300
 1.8850	20.1540
 1.8860	19.5920
 1.8870	19.0510
 1.8880	18.5230
 1.8890	18.0200
 1.8900	17.5380
 1.8910	17.0760
 1.8920	16.6290
 1.8930	16.2130
 1.8940	15.8220
 1.8950	15.4570
 1.8960	15.1240
 1.8970	14.8160
 1.8980	14.5340
 1.8990	14.2770
 1.9000	14.0390
 1.9010	13.8290
 1.9020	13.6330
 1.9030	13.4580
 1.9040	13.3010
 1.9050	13.1630
 1.9060	13.0360
 1.9070	12.9280
 1.9080	12.8320
 1.9090	12.7450
 1.9100	12.6730
 1.9110	12.6080
 1.9120	12.5560
 1.9130	12.5070
 1.9140	12.4670
 1.9150	12.4320
 1.9160	12.4020
 1.9170	12.3780
 1.9180	12.3590
 1.9190	12.3440
 1.9200	12.3330
 1.9210	12.3240
 1.9220	12.3170
 1.9230	12.3130
 1.9240	12.3130
 1.9250	12.3140
 1.9260	12.3200
 1.9270	12.3320
 1.9280	12.3450
 1.9290	12.3590
 1.9300	12.3720
 1.9310	12.3860
 1.9320	12.4040
 1.9330	12.4260
 1.9340	12.4540
 1.9350	12.4800
 1.9360	12.5070
 1.9370	12.5360
 1.9380	12.5660
 1.9390	12.5960
 1.9400	12.6270
 1.9410	12.6650
 1.9420	12.7020
 1.9430	12.7380
 1.9440	12.7770
 1.9450	12.8180
 1.9460	12.8610
 1.9470	12.9040
 1.9480	12.9480
 1.9490	12.9940
 1.9500	13.0410
 1.9510	13.0870
 1.9520	13.1360
 1.9530	13.1840
 1.9540	13.2340
 1.9550	13.2860
 1.9560	13.3380
 1.9570	13.3930
 1.9580	13.4500
 1.9590	13.5090
 1.9600	13.5700
 1.9610	13.6310
 1.9620	13.6920
 1.9630	13.7540
 1.9640	13.8180
 1.9650	13.8820
 1.9660	13.9480
 1.9670	14.0190
 1.9680	14.0880
 1.9690	14.1550
 1.9700	14.2260
 1.9710	14.3000
 1.9720	14.3720
 1.9730	14.4440
 1.9740	14.5180
 1.9750	14.5870
 1.9760	14.6590
 1.9770	14.7340
 1.9780	14.8110
 1.9790	14.8890
 1.9800	14.9720
 1.9810	15.0530
 1.9820	15.1350
 1.9830	15.2160
 1.9840	15.2970
 1.9850	15.3790
 1.9860	15.4590
 1.9870	15.5400
 1.9880	15.6260
 1.9890	15.7120
 1.9900	15.7990
 1.9910	15.8870
 1.9920	15.9720
 1.9930	16.0540
 1.9940	16.1380
 1.9950	16.2200
 1.9960	16.3040
 1.9970	16.3890
 1.9980	16.4720
 1.9990	16.5560
 2.0000	16.6400
 2.0010	16.7220
 2.0020	16.8050
 2.0030	16.8870
 2.0040	16.9680
 2.0050	17.0510
 2.0060	17.1340
 2.0070	17.2180
 2.0080	17.3080
 2.0090	17.3890
 2.0100	17.4650
 2.0110	17.5400
 2.0120	17.6100
 2.0130	17.6800
 2.0140	17.7510
 2.0150	17.8270
 2.0160	17.9010
 2.0170	17.9730
 2.0180	18.0450
 2.0190	18.1180
 2.0200	18.1870
 2.0210	18.2570
 2.0220	18.3220
 2.0230	18.3790
 2.0240	18.4400
 2.0250	18.5030
 2.0260	18.5620
 2.0270	18.6200
 2.0280	18.6790
 2.0290	18.7300
 2.0300	18.7780
 2.0310	18.8280
 2.0320	18.8780
 2.0330	18.9290
 2.0340	18.9820
 2.0350	19.0320
 2.0360	19.0800
 2.0370	19.1250
 2.0380	19.1680
 2.0390	19.2090
 2.0400	19.2480
 2.0410	19.2850
 2.0420	19.3210
 2.0430	19.3540
 2.0440	19.3870
 2.0450	19.4180
 2.0460	19.4530
 2.0470	19.4880
 2.0480	19.5240
 2.0490	19.5640
 2.0500	19.6000
 2.0510	19.6340
 2.0520	19.6670
 2.0530	19.6970
 2.0540	19.7260
 2.0550	19.7490
 2.0560	19.7770
 2.0570	19.8070
 2.0580	19.8370
 2.0590	19.8670
 2.0600	19.9030
 2.0610	19.9330
 2.0620	19.9590
 2.0630	19.9910
 2.0640	20.0260
 2.0650	20.0580
 2.0660	20.0940
 2.0670	20.1260
 2.0680	20.1510
 2.0690	20.1820
 2.0700	20.2140
 2.0710	20.2460
 2.0720	20.2820
 2.0730	20.3160
 2.0740	20.3500
 2.0750	20.3840
 2.0760	20.4180
 2.0770	20.4520
 2.0780	20.4840
 2.0790	20.5150
 2.0800	20.5480
 2.0810	20.5800
 2.0820	20.6140
 2.0830	20.6510
 2.0840	20.6860
 2.0850	20.7200
 2.0860	20.7520
 2.0870	20.7850
 2.0880	20.8140
 2.0890	20.8430
 2.0900	20.8690
 2.0910	20.9010
 2.0920	20.9350
 2.0930	20.9670
 2.0940	21.0030
 2.0950	21.0350
 2.0960	21.0620
 2.0970	21.0940
 2.0980	21.1300
 2.0990	21.1620
 2.1000	21.1920
 2.1010	21.2230
 2.1020	21.2520
 2.1030	21.2830
 2.1040	21.3180
 2.1050	21.3520
 2.1060	21.3850
 2.1070	21.4170
 2.1080	21.4500
 2.1090	21.4820
 2.1100	21.5140
 2.1110	21.5430
 2.1120	21.5750
 2.1130	21.6090
 2.1140	21.6390
 2.1150	21.6680
 2.1160	21.6980
 2.1170	21.7260
 2.1180	21.7530
 2.1190	21.7810
 2.1200	21.8100
 2.1210	21.8370
 2.1220	21.8640
 2.1230	21.8920
 2.1240	21.9240
 2.1250	21.9520
 2.1260	21.9790
 2.1270	22.0080
 2.1280	22.0370
 2.1290	22.0640
 2.1300	22.0920
 2.1310	22.1180
 2.1320	22.1420
 2.1330	22.1660
 2.1340	22.1860
 2.1350	22.2110
 2.1360	22.2370
 2.1370	22.2630
 2.1380	22.2940
 2.1390	22.3230
 2.1400	22.3530
 2.1410	22.3790
 2.1420	22.4030
 2.1430	22.4260
 2.1440	22.4510
 2.1450	22.4730
 2.1460	22.4990
 2.1470	22.5310
 2.1480	22.5550
 2.1490	22.5760
 2.1500	22.5980
 2.1510	22.6180
 2.1520	22.6370
 2.1530	22.6550
 2.1540	22.6770
 2.1550	22.7010
 2.1560	22.7240
 2.1570	22.7520
 2.1580	22.7760
 2.1590	22.8010
 2.1600	22.8170
 2.1610	22.8310
 2.1620	22.8450
 2.1630	22.8610
 2.1640	22.8700
 2.1650	22.8890
 2.1660	22.9170
 2.1670	22.9370
 2.1680	22.9580
 2.1690	22.9780
 2.1700	22.9950
 2.1710	23.0150
 2.1720	23.0400
 2.1730	23.0590
 2.1740	23.0740
 2.1750	23.0890
 2.1760	23.0970
 2.1770	23.1140
 2.1780	23.1340
 2.1790	23.1550
 2.1800	23.1860
 2.1810	23.2090
 2.1820	23.2290
 2.1830	23.2450
 2.1840	23.2670
 2.1850	23.2860
 2.1860	23.3090
 2.1870	23.3370
 2.1880	23.3620
 2.1890	23.3860
 2.1900	23.4110
 2.1910	23.4380
 2.1920	23.4610
 2.1930	23.4790
 2.1940	23.5010
 2.1950	23.5210
 2.1960	23.5440
 2.1970	23.5730
 2.1980	23.5970
 2.1990	23.6170
 2.2000	23.6390
 2.2010	23.6620
 2.2020	23.6820
 2.2030	23.7050
 2.2040	23.7230
 2.2050	23.7330
 2.2060	23.7460
 2.2070	23.7600
 2.2080	23.7730
 2.2090	23.7860
 2.2100	23.8020
 2.2110	23.8140
 2.2120	23.8240
 2.2130	23.8330
 2.2140	23.8430
 2.2150	23.8460
 2.2160	23.8440
 2.2170	23.8430
 2.2180	23.8390
 2.2190	23.8380
 2.2200	23.8420
 2.2210	23.8400
 2.2220	23.8400
 2.2230	23.8290
 2.2240	23.8090
 2.2250	23.7900
 2.2260	23.7660
 2.2270	23.7390
 2.2280	23.7120
 2.2290	23.6790
 2.2300	23.6400
 2.2310	23.5970
 2.2320	23.5520
 2.2330	23.5050
 2.2340	23.4540
 2.2350	23.4000
 2.2360	23.3430
 2.2370	23.2810
 2.2380	23.2140
 2.2390	23.1420
 2.2400	23.0690
 2.2410	22.9920
 2.2420	22.9120
 2.2430	22.8310
 2.2440	22.7460
 2.2450	22.6570
 2.2460	22.5680
 2.2470	22.4750
 2.2480	22.3850
 2.2490	22.2950
 2.2500	22.2080
 2.2510	22.1280
 2.2520	22.0400
 2.2530	21.9440
 2.2540	21.8540
 2.2550	21.7570
 2.2560	21.6680
 2.2570	21.5900
 2.2580	21.5100
 2.2590	21.4300
 2.2600	21.3520
 2.2610	21.2750
 2.2620	21.2000
 2.2630	21.1300
 2.2640	21.0620
 2.2650	20.9900
 2.2660	20.9250
 2.2670	20.8640
 2.2680	20.8060
 2.2690	20.7480
 2.2700	20.6950
 2.2710	20.6390
 2.2720	20.5760
 2.2730	20.5270
 2.2740	20.4860
 2.2750	20.4430
 2.2760	20.4080
 2.2770	20.3670
 2.2780	20.3260
 2.2790	20.2820
 2.2800	20.2330
 2.2810	20.1920
 2.2820	20.1520
 2.2830	20.1110
 2.2840	20.0780
 2.2850	20.0390
 2.2860	19.9920
 2.2870	19.9460
 2.2880	19.9040
 2.2890	19.8550
 2.2900	19.8010
 2.2910	19.7510
 2.2920	19.7010
 2.2930	19.6480
 2.2940	19.5940
 2.2950	19.5390
 2.2960	19.4800
 2.2970	19.4200
 2.2980	19.3570
 2.2990	19.3010
 2.3000	19.2410
 2.3010	19.1790
 2.3020	19.1270
 2.3030	19.0770
 2.3040	19.0240
 2.3050	18.9770
 2.3060	18.9240
 2.3070	18.8770
 2.3080	18.8350
 2.3090	18.7860
 2.3100	18.7500
 2.3110	18.7180
 2.3120	18.6950
 2.3130	18.6790
 2.3140	18.6730
 2.3150	18.6800
 2.3160	18.6800
 2.3170	18.6870
 2.3180	18.6900
 2.3190	18.6880
 2.3200	18.6870
 2.3210	18.6930
 2.3220	18.6830
 2.3230	18.6650
 2.3240	18.6500
 2.3250	18.6290
 2.3260	18.6100
 2.3270	18.5990
 2.3280	18.5780
 2.3290	18.5490
 2.3300	18.5230
 2.3310	18.4940
 2.3320	18.4650
 2.3330	18.4380
 2.3340	18.4060
 2.3350	18.3680
 2.3360	18.3300
 2.3370	18.2860
 2.3380	18.2510
 2.3390	18.2270
 2.3400	18.1890
 2.3410	18.1460
 2.3420	18.1040
 2.3430	18.0480
 2.3440	18.0070
 2.3450	17.9770
 2.3460	17.9450
 2.3470	17.9170
 2.3480	17.8890
 2.3490	17.8630
 2.3500	17.8370
 2.3510	17.8110
 2.3520	17.7880
 2.3530	17.7620
 2.3540	17.7490
 2.3550	17.7450
 2.3560	17.7330
 2.3570	17.7260
 2.3580	17.7150
 2.3590	17.6900
 2.3600	17.6600
 2.3610	17.6370
 2.3620	17.6110
 2.3630	17.5880
 2.3640	17.5720
 2.3650	17.5390
 2.3660	17.5090
 2.3670	17.4850
 2.3680	17.4560
 2.3690	17.4410
 2.3700	17.4280
 2.3710	17.4050
 2.3720	17.3770
 2.3730	17.3370
 2.3740	17.2960
 2.3750	17.2620
 2.3760	17.2280
 2.3770	17.1950
 2.3780	17.1600
 2.3790	17.1140
 2.3800	17.0670
 2.3810	17.0280
 2.3820	16.9880
 2.3830	16.9410
 2.3840	16.9060
 2.3850	16.8780
 2.3860	16.8440
 2.3870	16.8200
 2.3880	16.7970
 2.3890	16.7520
 2.3900	16.7100
 2.3910	16.6770
 2.3920	16.6300
 2.3930	16.5850
 2.3940	16.5480
 2.3950	16.5020
 2.3960	16.4590
 2.3970	16.4150
 2.3980	16.3700
 2.3990	16.3440
 2.4000	16.3180
 2.4010	16.2970
 2.4020	16.2720
 2.4030	16.2170
 2.4040	16.1670
 2.4050	16.1350
 2.4060	16.0950
 2.4070	16.0630
 2.4080	16.0290
 2.4090	15.9620
 2.4100	15.9050
 2.4110	15.8670
 2.4120	15.8160
 2.4130	15.7850
 2.4140	15.7490
 2.4150	15.6860
 2.4160	15.6380
 2.4170	15.5870
 2.4180	15.5400
 2.4190	15.5210
 2.4200	15.4800
 2.4210	15.4370
 2.4220	15.4180
 2.4230	15.3740
 2.4240	15.3290
 2.4250	15.2950
 2.4260	15.2310
 2.4270	15.1760
 2.4280	15.1260
 2.4290	15.0670
 2.4300	15.0230
 2.4310	14.9740
 2.4320	14.9270
 2.4330	14.8890
 2.4340	14.8490
 2.4350	14.8070
 2.4360	14.7670
 2.4370	14.7220
 2.4380	14.6770
 2.4390	14.6260
 2.4400	14.5880
 2.4410	14.5600
 2.4420	14.5120
 2.4430	14.4740
 2.4440	14.4310
 2.4450	14.3730
 2.4460	14.3300
 2.4470	14.3220
 2.4480	14.3120
 2.4490	14.2700
 2.4500	14.2320
 2.4510	14.1440
 2.4520	14.0440
 2.4530	14.0190
 2.4540	13.9880
 2.4550	13.9430
 2.4560	13.9170
 2.4570	13.8530
 2.4580	13.8050
 2.4590	13.8010
 2.4600	13.7800
 2.4610	13.7530
 2.4620	13.7160
 2.4630	13.6580
 2.4640	13.6170
 2.4650	13.6020
 2.4660	13.5790
 2.4670	13.5520
 2.4680	13.5470
 2.4690	13.5250
 2.4700	13.4960
 2.4710	13.4680
 2.4720	13.4240
 2.4730	13.3560
 2.4740	13.3210
 2.4750	13.2990
 2.4760	13.2710
 2.4770	13.2420
 2.4780	13.2380
 2.4790	13.2680
 2.4800	13.2530
 2.4810	13.2420
 2.4820	13.1760
 2.4830	13.0970
 2.4840	13.1160
 2.4850	13.1380
 2.4860	13.1630
 2.4870	13.1890
 2.4880	13.1780
 2.4890	13.1350
 2.4900	13.0340
 2.4910	12.9690
 2.4920	12.9210
 2.4930	12.8500
 2.4940	12.8650
 2.4950	12.9090
 2.4960	12.8630
 2.4970	12.8310
 2.4980	12.8320
 2.4990	12.7820
 2.5000	12.7940
