Name: Ceanothus spinosus 1
Type: vegetation
Class: Shrub
Genus: Ceanothus
Species: spinosus
Sample No.: VH199
Owner: UCSB
Wavelength Range: VSWIR
Origin: 34.4906; -119.7908; WGS84
Collection Date: 10/13/2013
Description: Samples were collected as part of the HyspIRI Airborne Campaign. 48 individual plants were sampled in three times in 2013 - spring  summer  and fall. The name of the sample includes a 1  2  or 3 which references a different individual of the species. Samples were taken to JPL and processed within 48 hours of collection. The same leaves were processed in the Nicolet and then measured using the ASD.
Measurement: Bidirectional reflectance
First Column: X
Second Column: Y
X Units: Wavelength (micrometers)
Y Units: Reflectance (percentage)
First X Value: 0.35
Last X Value: 2.5
Number of X Values: 2151
Additional Information: vegetation.shrub.ceanothus.spinosus.vswir.vh199.ucsb.asd.ancillary.txt

 0.3500	10.2480
 0.3510	10.2430
 0.3520	10.1380
 0.3530	 9.9870
 0.3540	 9.8730
 0.3550	 9.8490
 0.3560	 9.8810
 0.3570	 9.9620
 0.3580	10.0750
 0.3590	10.0150
 0.3600	 9.9500
 0.3610	 9.9440
 0.3620	 9.8630
 0.3630	 9.7400
 0.3640	 9.7290
 0.3650	 9.8810
 0.3660	 9.7700
 0.3670	 9.6310
 0.3680	 9.5770
 0.3690	 9.6200
 0.3700	 9.6670
 0.3710	 9.6350
 0.3720	 9.5610
 0.3730	 9.6920
 0.3740	 9.7280
 0.3750	 9.6470
 0.3760	 9.5420
 0.3770	 9.5600
 0.3780	 9.6150
 0.3790	 9.6520
 0.3800	 9.6570
 0.3810	 9.5990
 0.3820	 9.5750
 0.3830	 9.6040
 0.3840	 9.4700
 0.3850	 9.4390
 0.3860	 9.5070
 0.3870	 9.5710
 0.3880	 9.5890
 0.3890	 9.5640
 0.3900	 9.5360
 0.3910	 9.5800
 0.3920	 9.4620
 0.3930	 9.3940
 0.3940	 9.5110
 0.3950	 9.5280
 0.3960	 9.5060
 0.3970	 9.4610
 0.3980	 9.3980
 0.3990	 9.4050
 0.4000	 9.4240
 0.4010	 9.4130
 0.4020	 9.3770
 0.4030	 9.3960
 0.4040	 9.4030
 0.4050	 9.3530
 0.4060	 9.3960
 0.4070	 9.4010
 0.4080	 9.3820
 0.4090	 9.4390
 0.4100	 9.4510
 0.4110	 9.4500
 0.4120	 9.4550
 0.4130	 9.4260
 0.4140	 9.4230
 0.4150	 9.4540
 0.4160	 9.5040
 0.4170	 9.5160
 0.4180	 9.5210
 0.4190	 9.5370
 0.4200	 9.5710
 0.4210	 9.6040
 0.4220	 9.6160
 0.4230	 9.6050
 0.4240	 9.6250
 0.4250	 9.6600
 0.4260	 9.6970
 0.4270	 9.7210
 0.4280	 9.7400
 0.4290	 9.7390
 0.4300	 9.7290
 0.4310	 9.7570
 0.4320	 9.7650
 0.4330	 9.7670
 0.4340	 9.7820
 0.4350	 9.7740
 0.4360	 9.7790
 0.4370	 9.8000
 0.4380	 9.8160
 0.4390	 9.8380
 0.4400	 9.8670
 0.4410	 9.8970
 0.4420	 9.9170
 0.4430	 9.9300
 0.4440	 9.9370
 0.4450	 9.9420
 0.4460	 9.9640
 0.4470	 9.9740
 0.4480	 9.9680
 0.4490	 9.9750
 0.4500	 9.9900
 0.4510	10.0020
 0.4520	10.0040
 0.4530	10.0180
 0.4540	10.0440
 0.4550	10.0660
 0.4560	10.0660
 0.4570	10.0660
 0.4580	10.0660
 0.4590	10.0660
 0.4600	10.0710
 0.4610	10.0910
 0.4620	10.1050
 0.4630	10.0900
 0.4640	10.0880
 0.4650	10.0950
 0.4660	10.0990
 0.4670	10.0930
 0.4680	10.0990
 0.4690	10.1030
 0.4700	10.0960
 0.4710	10.1190
 0.4720	10.1300
 0.4730	10.1270
 0.4740	10.1310
 0.4750	10.1230
 0.4760	10.1220
 0.4770	10.1360
 0.4780	10.1490
 0.4790	10.1440
 0.4800	10.1340
 0.4810	10.1390
 0.4820	10.1500
 0.4830	10.1600
 0.4840	10.1660
 0.4850	10.1700
 0.4860	10.1710
 0.4870	10.1790
 0.4880	10.2000
 0.4890	10.2110
 0.4900	10.2380
 0.4910	10.2700
 0.4920	10.2880
 0.4930	10.3260
 0.4940	10.3630
 0.4950	10.3930
 0.4960	10.4390
 0.4970	10.4870
 0.4980	10.5360
 0.4990	10.5900
 0.5000	10.6390
 0.5010	10.6960
 0.5020	10.7660
 0.5030	10.8490
 0.5040	10.9340
 0.5050	11.0260
 0.5060	11.1300
 0.5070	11.2430
 0.5080	11.3590
 0.5090	11.4840
 0.5100	11.6270
 0.5110	11.7680
 0.5120	11.9330
 0.5130	12.1210
 0.5140	12.2970
 0.5150	12.4940
 0.5160	12.7050
 0.5170	12.9190
 0.5180	13.1400
 0.5190	13.3750
 0.5200	13.6180
 0.5210	13.8560
 0.5220	14.0950
 0.5230	14.3410
 0.5240	14.5940
 0.5250	14.8230
 0.5260	15.0460
 0.5270	15.2690
 0.5280	15.4910
 0.5290	15.6960
 0.5300	15.8880
 0.5310	16.0670
 0.5320	16.2360
 0.5330	16.3900
 0.5340	16.5350
 0.5350	16.6770
 0.5360	16.8010
 0.5370	16.9180
 0.5380	17.0290
 0.5390	17.1240
 0.5400	17.2000
 0.5410	17.2690
 0.5420	17.3370
 0.5430	17.3980
 0.5440	17.4640
 0.5450	17.5340
 0.5460	17.6050
 0.5470	17.6990
 0.5480	17.7900
 0.5490	17.8610
 0.5500	17.9140
 0.5510	17.9520
 0.5520	17.9830
 0.5530	18.0120
 0.5540	18.0250
 0.5550	18.0220
 0.5560	18.0080
 0.5570	17.9860
 0.5580	17.9470
 0.5590	17.8920
 0.5600	17.8210
 0.5610	17.7390
 0.5620	17.6400
 0.5630	17.5300
 0.5640	17.4140
 0.5650	17.2900
 0.5660	17.1670
 0.5670	17.0470
 0.5680	16.9240
 0.5690	16.7940
 0.5700	16.6580
 0.5710	16.5200
 0.5720	16.3750
 0.5730	16.2420
 0.5740	16.1230
 0.5750	16.0120
 0.5760	15.8870
 0.5770	15.7670
 0.5780	15.6650
 0.5790	15.5610
 0.5800	15.4750
 0.5810	15.3990
 0.5820	15.3180
 0.5830	15.2490
 0.5840	15.1950
 0.5850	15.1480
 0.5860	15.0970
 0.5870	15.0320
 0.5880	14.9570
 0.5890	14.8830
 0.5900	14.8190
 0.5910	14.7630
 0.5920	14.7170
 0.5930	14.6810
 0.5940	14.6530
 0.5950	14.6340
 0.5960	14.6190
 0.5970	14.5900
 0.5980	14.5670
 0.5990	14.5470
 0.6000	14.5180
 0.6010	14.4850
 0.6020	14.4460
 0.6030	14.4010
 0.6040	14.3510
 0.6050	14.2920
 0.6060	14.2270
 0.6070	14.1580
 0.6080	14.0870
 0.6090	14.0030
 0.6100	13.9000
 0.6110	13.7870
 0.6120	13.7160
 0.6130	13.6660
 0.6140	13.6190
 0.6150	13.5630
 0.6160	13.5010
 0.6170	13.4420
 0.6180	13.3920
 0.6190	13.3380
 0.6200	13.2860
 0.6210	13.2440
 0.6220	13.2160
 0.6230	13.1930
 0.6240	13.1730
 0.6250	13.1580
 0.6260	13.1450
 0.6270	13.1340
 0.6280	13.1270
 0.6290	13.1230
 0.6300	13.1150
 0.6310	13.1070
 0.6320	13.1000
 0.6330	13.0900
 0.6340	13.0700
 0.6350	13.0360
 0.6360	12.9870
 0.6370	12.9280
 0.6380	12.8550
 0.6390	12.7690
 0.6400	12.6720
 0.6410	12.5700
 0.6420	12.4630
 0.6430	12.3510
 0.6440	12.2320
 0.6450	12.1240
 0.6460	12.0270
 0.6470	11.9360
 0.6480	11.8470
 0.6490	11.7690
 0.6500	11.7010
 0.6510	11.6350
 0.6520	11.5920
 0.6530	11.5540
 0.6540	11.5060
 0.6550	11.4630
 0.6560	11.4150
 0.6570	11.3620
 0.6580	11.3050
 0.6590	11.2410
 0.6600	11.1740
 0.6610	11.1090
 0.6620	11.0490
 0.6630	10.9850
 0.6640	10.9250
 0.6650	10.8750
 0.6660	10.8300
 0.6670	10.7950
 0.6680	10.7670
 0.6690	10.7450
 0.6700	10.7290
 0.6710	10.7200
 0.6720	10.7180
 0.6730	10.7170
 0.6740	10.7260
 0.6750	10.7420
 0.6760	10.7600
 0.6770	10.7810
 0.6780	10.8100
 0.6790	10.8470
 0.6800	10.8900
 0.6810	10.9500
 0.6820	11.0170
 0.6830	11.0900
 0.6840	11.1860
 0.6850	11.3160
 0.6860	11.4740
 0.6870	11.6550
 0.6880	11.8870
 0.6890	12.1760
 0.6900	12.5270
 0.6910	12.9450
 0.6920	13.4400
 0.6930	14.0130
 0.6940	14.6680
 0.6950	15.4120
 0.6960	16.2360
 0.6970	17.1300
 0.6980	18.0860
 0.6990	19.1030
 0.7000	20.1620
 0.7010	21.2480
 0.7020	22.3520
 0.7030	23.4700
 0.7040	24.5810
 0.7050	25.6650
 0.7060	26.7340
 0.7070	27.7810
 0.7080	28.7990
 0.7090	29.7870
 0.7100	30.7530
 0.7110	31.6710
 0.7120	32.5420
 0.7130	33.3980
 0.7140	34.2210
 0.7150	35.0070
 0.7160	35.7560
 0.7170	36.4650
 0.7180	37.1490
 0.7190	37.7960
 0.7200	38.3950
 0.7210	38.9900
 0.7220	39.5440
 0.7230	40.0550
 0.7240	40.5630
 0.7250	41.0370
 0.7260	41.4710
 0.7270	41.8720
 0.7280	42.2680
 0.7290	42.6350
 0.7300	42.9670
 0.7310	43.2700
 0.7320	43.5710
 0.7330	43.8510
 0.7340	44.1050
 0.7350	44.3480
 0.7360	44.5720
 0.7370	44.7760
 0.7380	44.9630
 0.7390	45.1310
 0.7400	45.3100
 0.7410	45.4790
 0.7420	45.6110
 0.7430	45.7360
 0.7440	45.8570
 0.7450	45.9700
 0.7460	46.0710
 0.7470	46.1630
 0.7480	46.2470
 0.7490	46.3210
 0.7500	46.3790
 0.7510	46.4380
 0.7520	46.4980
 0.7530	46.5510
 0.7540	46.5970
 0.7550	46.6300
 0.7560	46.6550
 0.7570	46.6850
 0.7580	46.7170
 0.7590	46.7520
 0.7600	46.7780
 0.7610	46.7780
 0.7620	46.7930
 0.7630	46.8130
 0.7640	46.8210
 0.7650	46.8300
 0.7660	46.8380
 0.7670	46.8460
 0.7680	46.8540
 0.7690	46.8620
 0.7700	46.8640
 0.7710	46.8620
 0.7720	46.8690
 0.7730	46.8700
 0.7740	46.8680
 0.7750	46.8670
 0.7760	46.8650
 0.7770	46.8650
 0.7780	46.8680
 0.7790	46.8750
 0.7800	46.8800
 0.7810	46.8770
 0.7820	46.8740
 0.7830	46.8930
 0.7840	46.8950
 0.7850	46.8880
 0.7860	46.8860
 0.7870	46.9020
 0.7880	46.9060
 0.7890	46.9020
 0.7900	46.9050
 0.7910	46.9010
 0.7920	46.9060
 0.7930	46.9170
 0.7940	46.9170
 0.7950	46.9130
 0.7960	46.9170
 0.7970	46.9250
 0.7980	46.9120
 0.7990	46.9200
 0.8000	46.9370
 0.8010	46.9440
 0.8020	46.9500
 0.8030	46.9510
 0.8040	46.9530
 0.8050	46.9650
 0.8060	46.9790
 0.8070	46.9660
 0.8080	46.9450
 0.8090	46.9690
 0.8100	46.9820
 0.8110	46.9900
 0.8120	47.0000
 0.8130	47.0010
 0.8140	47.0060
 0.8150	47.0070
 0.8160	46.9980
 0.8170	47.0020
 0.8180	47.0310
 0.8190	47.0580
 0.8200	47.0490
 0.8210	47.0400
 0.8220	47.0410
 0.8230	47.0510
 0.8240	47.0570
 0.8250	47.0760
 0.8260	47.0890
 0.8270	47.0890
 0.8280	47.0930
 0.8290	47.0940
 0.8300	47.0990
 0.8310	47.1100
 0.8320	47.1150
 0.8330	47.1180
 0.8340	47.1180
 0.8350	47.1180
 0.8360	47.1360
 0.8370	47.1390
 0.8380	47.1360
 0.8390	47.1600
 0.8400	47.1630
 0.8410	47.1560
 0.8420	47.1520
 0.8430	47.1580
 0.8440	47.1530
 0.8450	47.1630
 0.8460	47.1960
 0.8470	47.1840
 0.8480	47.1800
 0.8490	47.1810
 0.8500	47.1770
 0.8510	47.1970
 0.8520	47.2130
 0.8530	47.2150
 0.8540	47.2070
 0.8550	47.2130
 0.8560	47.2250
 0.8570	47.2300
 0.8580	47.2150
 0.8590	47.2110
 0.8600	47.2220
 0.8610	47.2350
 0.8620	47.2160
 0.8630	47.2050
 0.8640	47.2110
 0.8650	47.2290
 0.8660	47.2330
 0.8670	47.2300
 0.8680	47.2300
 0.8690	47.2380
 0.8700	47.2180
 0.8710	47.2150
 0.8720	47.2220
 0.8730	47.2090
 0.8740	47.2130
 0.8750	47.2200
 0.8760	47.2210
 0.8770	47.2150
 0.8780	47.2190
 0.8790	47.2150
 0.8800	47.1990
 0.8810	47.1940
 0.8820	47.1960
 0.8830	47.1910
 0.8840	47.1760
 0.8850	47.1710
 0.8860	47.1740
 0.8870	47.1740
 0.8880	47.1680
 0.8890	47.1640
 0.8900	47.1660
 0.8910	47.1650
 0.8920	47.1520
 0.8930	47.1570
 0.8940	47.1550
 0.8950	47.1330
 0.8960	47.0990
 0.8970	47.1050
 0.8980	47.1140
 0.8990	47.1110
 0.9000	47.1050
 0.9010	47.0860
 0.9020	47.0700
 0.9030	47.0710
 0.9040	47.1010
 0.9050	47.0950
 0.9060	47.0680
 0.9070	47.0470
 0.9080	47.0540
 0.9090	47.0480
 0.9100	47.0430
 0.9110	47.0500
 0.9120	47.0260
 0.9130	47.0240
 0.9140	47.0290
 0.9150	47.0170
 0.9160	47.0040
 0.9170	47.0000
 0.9180	47.0070
 0.9190	47.0160
 0.9200	47.0120
 0.9210	46.9930
 0.9220	46.9700
 0.9230	46.9530
 0.9240	46.9410
 0.9250	46.9430
 0.9260	46.9490
 0.9270	46.9400
 0.9280	46.9250
 0.9290	46.9060
 0.9300	46.8820
 0.9310	46.8530
 0.9320	46.8490
 0.9330	46.8510
 0.9340	46.8450
 0.9350	46.8370
 0.9360	46.8250
 0.9370	46.7990
 0.9380	46.7660
 0.9390	46.7510
 0.9400	46.7480
 0.9410	46.7420
 0.9420	46.7240
 0.9430	46.6910
 0.9440	46.6680
 0.9450	46.6610
 0.9460	46.6620
 0.9470	46.6370
 0.9480	46.6190
 0.9490	46.5900
 0.9500	46.5380
 0.9510	46.5110
 0.9520	46.4610
 0.9530	46.4190
 0.9540	46.4090
 0.9550	46.3440
 0.9560	46.3300
 0.9570	46.3260
 0.9580	46.2790
 0.9590	46.2410
 0.9600	46.2160
 0.9610	46.1930
 0.9620	46.1600
 0.9630	46.1350
 0.9640	46.0990
 0.9650	46.0680
 0.9660	46.0610
 0.9670	46.0530
 0.9680	46.0390
 0.9690	46.0370
 0.9700	46.0530
 0.9710	46.0220
 0.9720	45.9900
 0.9730	45.9710
 0.9740	45.9620
 0.9750	45.9820
 0.9760	45.9660
 0.9770	45.9340
 0.9780	45.9380
 0.9790	45.9500
 0.9800	45.9550
 0.9810	45.9460
 0.9820	45.9280
 0.9830	45.9670
 0.9840	45.9670
 0.9850	45.9480
 0.9860	45.9800
 0.9870	46.0180
 0.9880	46.0140
 0.9890	45.9900
 0.9900	45.9990
 0.9910	46.0460
 0.9920	46.0460
 0.9930	46.0460
 0.9940	46.0460
 0.9950	46.0470
 0.9960	46.0470
 0.9970	46.0470
 0.9980	46.0470
 0.9990	46.0470
 1.0000	46.0470
 1.0010	46.0480
 1.0020	46.0480
 1.0030	46.0480
 1.0040	46.0480
 1.0050	46.0480
 1.0060	46.0480
 1.0070	46.0490
 1.0080	46.0490
 1.0090	46.0490
 1.0100	46.0490
 1.0110	46.0490
 1.0120	46.0530
 1.0130	46.0550
 1.0140	46.0590
 1.0150	46.0670
 1.0160	46.0680
 1.0170	46.0710
 1.0180	46.0920
 1.0190	46.1140
 1.0200	46.1230
 1.0210	46.1370
 1.0220	46.1520
 1.0230	46.1660
 1.0240	46.1850
 1.0250	46.2020
 1.0260	46.2150
 1.0270	46.2290
 1.0280	46.2550
 1.0290	46.2630
 1.0300	46.2520
 1.0310	46.2560
 1.0320	46.2600
 1.0330	46.2570
 1.0340	46.2680
 1.0350	46.3040
 1.0360	46.3190
 1.0370	46.3190
 1.0380	46.3280
 1.0390	46.3320
 1.0400	46.3380
 1.0410	46.3480
 1.0420	46.3590
 1.0430	46.3720
 1.0440	46.3780
 1.0450	46.3870
 1.0460	46.3890
 1.0470	46.3750
 1.0480	46.3720
 1.0490	46.3690
 1.0500	46.3710
 1.0510	46.3740
 1.0520	46.3890
 1.0530	46.3980
 1.0540	46.4090
 1.0550	46.4180
 1.0560	46.4310
 1.0570	46.4290
 1.0580	46.4180
 1.0590	46.4140
 1.0600	46.4000
 1.0610	46.3950
 1.0620	46.4030
 1.0630	46.4020
 1.0640	46.3940
 1.0650	46.3910
 1.0660	46.3870
 1.0670	46.3820
 1.0680	46.3770
 1.0690	46.3720
 1.0700	46.3700
 1.0710	46.3690
 1.0720	46.3660
 1.0730	46.3660
 1.0740	46.3630
 1.0750	46.3530
 1.0760	46.3480
 1.0770	46.3420
 1.0780	46.3390
 1.0790	46.3400
 1.0800	46.3340
 1.0810	46.3220
 1.0820	46.3160
 1.0830	46.3080
 1.0840	46.3020
 1.0850	46.3020
 1.0860	46.3050
 1.0870	46.3010
 1.0880	46.2930
 1.0890	46.2860
 1.0900	46.2730
 1.0910	46.2690
 1.0920	46.2710
 1.0930	46.2650
 1.0940	46.2560
 1.0950	46.2500
 1.0960	46.2400
 1.0970	46.2310
 1.0980	46.2270
 1.0990	46.2220
 1.1000	46.2090
 1.1010	46.2010
 1.1020	46.1980
 1.1030	46.1930
 1.1040	46.1920
 1.1050	46.1910
 1.1060	46.1910
 1.1070	46.1970
 1.1080	46.1930
 1.1090	46.1850
 1.1100	46.1790
 1.1110	46.1690
 1.1120	46.1610
 1.1130	46.1600
 1.1140	46.1520
 1.1150	46.1440
 1.1160	46.1320
 1.1170	46.1160
 1.1180	46.1000
 1.1190	46.0810
 1.1200	46.0620
 1.1210	46.0450
 1.1220	46.0250
 1.1230	46.0060
 1.1240	45.9870
 1.1250	45.9630
 1.1260	45.9340
 1.1270	45.9100
 1.1280	45.8870
 1.1290	45.8580
 1.1300	45.8340
 1.1310	45.8000
 1.1320	45.7580
 1.1330	45.7150
 1.1340	45.6680
 1.1350	45.6160
 1.1360	45.5600
 1.1370	45.4980
 1.1380	45.4360
 1.1390	45.3750
 1.1400	45.3090
 1.1410	45.2440
 1.1420	45.1760
 1.1430	45.1060
 1.1440	45.0360
 1.1450	44.9640
 1.1460	44.8910
 1.1470	44.8130
 1.1480	44.7420
 1.1490	44.6740
 1.1500	44.6060
 1.1510	44.5420
 1.1520	44.4790
 1.1530	44.4110
 1.1540	44.3520
 1.1550	44.2980
 1.1560	44.2490
 1.1570	44.2010
 1.1580	44.1620
 1.1590	44.1250
 1.1600	44.0860
 1.1610	44.0570
 1.1620	44.0330
 1.1630	44.0130
 1.1640	44.0000
 1.1650	43.9870
 1.1660	43.9780
 1.1670	43.9670
 1.1680	43.9590
 1.1690	43.9490
 1.1700	43.9390
 1.1710	43.9300
 1.1720	43.9190
 1.1730	43.9120
 1.1740	43.9100
 1.1750	43.9050
 1.1760	43.9070
 1.1770	43.9070
 1.1780	43.9000
 1.1790	43.8970
 1.1800	43.8880
 1.1810	43.8760
 1.1820	43.8710
 1.1830	43.8630
 1.1840	43.8550
 1.1850	43.8460
 1.1860	43.8380
 1.1870	43.8380
 1.1880	43.8350
 1.1890	43.8360
 1.1900	43.8370
 1.1910	43.8390
 1.1920	43.8360
 1.1930	43.8350
 1.1940	43.8340
 1.1950	43.8270
 1.1960	43.8220
 1.1970	43.8240
 1.1980	43.8220
 1.1990	43.8210
 1.2000	43.8260
 1.2010	43.8340
 1.2020	43.8410
 1.2030	43.8510
 1.2040	43.8650
 1.2050	43.8740
 1.2060	43.8840
 1.2070	43.8930
 1.2080	43.9040
 1.2090	43.9190
 1.2100	43.9320
 1.2110	43.9440
 1.2120	43.9560
 1.2130	43.9680
 1.2140	43.9840
 1.2150	43.9960
 1.2160	44.0080
 1.2170	44.0220
 1.2180	44.0370
 1.2190	44.0430
 1.2200	44.0560
 1.2210	44.0710
 1.2220	44.0800
 1.2230	44.0910
 1.2240	44.1000
 1.2250	44.1140
 1.2260	44.1260
 1.2270	44.1380
 1.2280	44.1530
 1.2290	44.1630
 1.2300	44.1750
 1.2310	44.1930
 1.2320	44.2040
 1.2330	44.2150
 1.2340	44.2280
 1.2350	44.2410
 1.2360	44.2530
 1.2370	44.2680
 1.2380	44.2830
 1.2390	44.2960
 1.2400	44.3040
 1.2410	44.3140
 1.2420	44.3270
 1.2430	44.3350
 1.2440	44.3440
 1.2450	44.3510
 1.2460	44.3520
 1.2470	44.3530
 1.2480	44.3520
 1.2490	44.3590
 1.2500	44.3700
 1.2510	44.3790
 1.2520	44.3950
 1.2530	44.3980
 1.2540	44.3910
 1.2550	44.3910
 1.2560	44.3880
 1.2570	44.3870
 1.2580	44.3940
 1.2590	44.4000
 1.2600	44.4060
 1.2610	44.4080
 1.2620	44.4110
 1.2630	44.4090
 1.2640	44.4040
 1.2650	44.4060
 1.2660	44.4090
 1.2670	44.4060
 1.2680	44.4000
 1.2690	44.3910
 1.2700	44.3840
 1.2710	44.3820
 1.2720	44.3800
 1.2730	44.3720
 1.2740	44.3610
 1.2750	44.3500
 1.2760	44.3420
 1.2770	44.3390
 1.2780	44.3340
 1.2790	44.3240
 1.2800	44.3140
 1.2810	44.3070
 1.2820	44.2950
 1.2830	44.2870
 1.2840	44.2740
 1.2850	44.2580
 1.2860	44.2500
 1.2870	44.2360
 1.2880	44.2200
 1.2890	44.2060
 1.2900	44.1910
 1.2910	44.1600
 1.2920	44.1360
 1.2930	44.1130
 1.2940	44.0840
 1.2950	44.0640
 1.2960	44.0440
 1.2970	44.0210
 1.2980	44.0000
 1.2990	43.9720
 1.3000	43.9390
 1.3010	43.9000
 1.3020	43.8610
 1.3030	43.8270
 1.3040	43.7950
 1.3050	43.7610
 1.3060	43.7250
 1.3070	43.6870
 1.3080	43.6420
 1.3090	43.5990
 1.3100	43.5520
 1.3110	43.4990
 1.3120	43.4500
 1.3130	43.3980
 1.3140	43.3450
 1.3150	43.2970
 1.3160	43.2430
 1.3170	43.1850
 1.3180	43.1270
 1.3190	43.0690
 1.3200	43.0040
 1.3210	42.9390
 1.3220	42.8710
 1.3230	42.8040
 1.3240	42.7380
 1.3250	42.6750
 1.3260	42.6090
 1.3270	42.5350
 1.3280	42.4620
 1.3290	42.3860
 1.3300	42.3120
 1.3310	42.2420
 1.3320	42.1660
 1.3330	42.0890
 1.3340	42.0070
 1.3350	41.9230
 1.3360	41.8390
 1.3370	41.7540
 1.3380	41.6680
 1.3390	41.5780
 1.3400	41.4870
 1.3410	41.4000
 1.3420	41.3150
 1.3430	41.2290
 1.3440	41.1460
 1.3450	41.0630
 1.3460	40.9790
 1.3470	40.8970
 1.3480	40.8160
 1.3490	40.7360
 1.3500	40.6550
 1.3510	40.5740
 1.3520	40.4930
 1.3530	40.4070
 1.3540	40.3240
 1.3550	40.2410
 1.3560	40.1560
 1.3570	40.0790
 1.3580	39.9980
 1.3590	39.9100
 1.3600	39.8220
 1.3610	39.7290
 1.3620	39.6360
 1.3630	39.5450
 1.3640	39.4490
 1.3650	39.3460
 1.3660	39.2390
 1.3670	39.1210
 1.3680	38.9940
 1.3690	38.8630
 1.3700	38.7230
 1.3710	38.5780
 1.3720	38.4300
 1.3730	38.2690
 1.3740	38.0960
 1.3750	37.9110
 1.3760	37.7130
 1.3770	37.4970
 1.3780	37.2670
 1.3790	37.0260
 1.3800	36.7670
 1.3810	36.4930
 1.3820	36.2030
 1.3830	35.8970
 1.3840	35.5730
 1.3850	35.2300
 1.3860	34.8740
 1.3870	34.4990
 1.3880	34.1160
 1.3890	33.7190
 1.3900	33.3080
 1.3910	32.8910
 1.3920	32.4610
 1.3930	32.0210
 1.3940	31.5780
 1.3950	31.1260
 1.3960	30.6750
 1.3970	30.2270
 1.3980	29.7780
 1.3990	29.3400
 1.4000	28.9060
 1.4010	28.4750
 1.4020	28.0570
 1.4030	27.6490
 1.4040	27.2540
 1.4050	26.8740
 1.4060	26.5080
 1.4070	26.1610
 1.4080	25.8280
 1.4090	25.5080
 1.4100	25.2040
 1.4110	24.9120
 1.4120	24.6360
 1.4130	24.3800
 1.4140	24.1440
 1.4150	23.9260
 1.4160	23.7250
 1.4170	23.5390
 1.4180	23.3670
 1.4190	23.2080
 1.4200	23.0610
 1.4210	22.9270
 1.4220	22.8080
 1.4230	22.6990
 1.4240	22.6020
 1.4250	22.5140
 1.4260	22.4370
 1.4270	22.3660
 1.4280	22.3040
 1.4290	22.2480
 1.4300	22.1990
 1.4310	22.1570
 1.4320	22.1200
 1.4330	22.0910
 1.4340	22.0720
 1.4350	22.0530
 1.4360	22.0400
 1.4370	22.0320
 1.4380	22.0250
 1.4390	22.0220
 1.4400	22.0230
 1.4410	22.0270
 1.4420	22.0350
 1.4430	22.0450
 1.4440	22.0610
 1.4450	22.0800
 1.4460	22.0980
 1.4470	22.1220
 1.4480	22.1450
 1.4490	22.1690
 1.4500	22.1960
 1.4510	22.2190
 1.4520	22.2450
 1.4530	22.2720
 1.4540	22.2980
 1.4550	22.3250
 1.4560	22.3500
 1.4570	22.3770
 1.4580	22.4100
 1.4590	22.4460
 1.4600	22.4860
 1.4610	22.5270
 1.4620	22.5700
 1.4630	22.6150
 1.4640	22.6670
 1.4650	22.7230
 1.4660	22.7800
 1.4670	22.8460
 1.4680	22.9140
 1.4690	22.9850
 1.4700	23.0610
 1.4710	23.1370
 1.4720	23.2170
 1.4730	23.3020
 1.4740	23.3910
 1.4750	23.4840
 1.4760	23.5810
 1.4770	23.6780
 1.4780	23.7730
 1.4790	23.8700
 1.4800	23.9690
 1.4810	24.0720
 1.4820	24.1760
 1.4830	24.2800
 1.4840	24.3850
 1.4850	24.4860
 1.4860	24.5890
 1.4870	24.6940
 1.4880	24.7950
 1.4890	24.8950
 1.4900	24.9960
 1.4910	25.0960
 1.4920	25.1950
 1.4930	25.2930
 1.4940	25.3930
 1.4950	25.4930
 1.4960	25.5940
 1.4970	25.6970
 1.4980	25.7980
 1.4990	25.8970
 1.5000	25.9960
 1.5010	26.0940
 1.5020	26.1900
 1.5030	26.2840
 1.5040	26.3810
 1.5050	26.4780
 1.5060	26.5760
 1.5070	26.6770
 1.5080	26.7720
 1.5090	26.8660
 1.5100	26.9570
 1.5110	27.0460
 1.5120	27.1380
 1.5130	27.2250
 1.5140	27.3130
 1.5150	27.3990
 1.5160	27.4840
 1.5170	27.5720
 1.5180	27.6580
 1.5190	27.7400
 1.5200	27.8220
 1.5210	27.8990
 1.5220	27.9790
 1.5230	28.0590
 1.5240	28.1360
 1.5250	28.2150
 1.5260	28.2920
 1.5270	28.3670
 1.5280	28.4430
 1.5290	28.5170
 1.5300	28.5890
 1.5310	28.6590
 1.5320	28.7290
 1.5330	28.7970
 1.5340	28.8640
 1.5350	28.9330
 1.5360	29.0030
 1.5370	29.0710
 1.5380	29.1400
 1.5390	29.2080
 1.5400	29.2700
 1.5410	29.3330
 1.5420	29.3920
 1.5430	29.4520
 1.5440	29.5130
 1.5450	29.5700
 1.5460	29.6300
 1.5470	29.6910
 1.5480	29.7530
 1.5490	29.8190
 1.5500	29.8800
 1.5510	29.9350
 1.5520	29.9870
 1.5530	30.0350
 1.5540	30.0850
 1.5550	30.1380
 1.5560	30.1900
 1.5570	30.2430
 1.5580	30.2940
 1.5590	30.3420
 1.5600	30.3920
 1.5610	30.4410
 1.5620	30.4910
 1.5630	30.5430
 1.5640	30.5920
 1.5650	30.6410
 1.5660	30.6910
 1.5670	30.7390
 1.5680	30.7840
 1.5690	30.8300
 1.5700	30.8750
 1.5710	30.9200
 1.5720	30.9640
 1.5730	31.0050
 1.5740	31.0460
 1.5750	31.0860
 1.5760	31.1280
 1.5770	31.1740
 1.5780	31.2180
 1.5790	31.2630
 1.5800	31.3060
 1.5810	31.3490
 1.5820	31.3940
 1.5830	31.4380
 1.5840	31.4850
 1.5850	31.5310
 1.5860	31.5740
 1.5870	31.6180
 1.5880	31.6610
 1.5890	31.7040
 1.5900	31.7440
 1.5910	31.7870
 1.5920	31.8300
 1.5930	31.8680
 1.5940	31.9090
 1.5950	31.9490
 1.5960	31.9820
 1.5970	32.0180
 1.5980	32.0560
 1.5990	32.0910
 1.6000	32.1280
 1.6010	32.1650
 1.6020	32.1980
 1.6030	32.2340
 1.6040	32.2740
 1.6050	32.3120
 1.6060	32.3500
 1.6070	32.3880
 1.6080	32.4220
 1.6090	32.4540
 1.6100	32.4860
 1.6110	32.5130
 1.6120	32.5430
 1.6130	32.5720
 1.6140	32.6000
 1.6150	32.6320
 1.6160	32.6590
 1.6170	32.6900
 1.6180	32.7210
 1.6190	32.7480
 1.6200	32.7820
 1.6210	32.8130
 1.6220	32.8380
 1.6230	32.8640
 1.6240	32.8900
 1.6250	32.9140
 1.6260	32.9410
 1.6270	32.9690
 1.6280	32.9890
 1.6290	33.0060
 1.6300	33.0190
 1.6310	33.0350
 1.6320	33.0510
 1.6330	33.0690
 1.6340	33.0920
 1.6350	33.1070
 1.6360	33.1190
 1.6370	33.1320
 1.6380	33.1390
 1.6390	33.1510
 1.6400	33.1670
 1.6410	33.1790
 1.6420	33.1940
 1.6430	33.2010
 1.6440	33.2030
 1.6450	33.2020
 1.6460	33.1970
 1.6470	33.1910
 1.6480	33.1780
 1.6490	33.1570
 1.6500	33.1380
 1.6510	33.1240
 1.6520	33.1080
 1.6530	33.0980
 1.6540	33.0870
 1.6550	33.0690
 1.6560	33.0530
 1.6570	33.0370
 1.6580	33.0230
 1.6590	33.0070
 1.6600	32.9940
 1.6610	32.9840
 1.6620	32.9700
 1.6630	32.9580
 1.6640	32.9470
 1.6650	32.9280
 1.6660	32.9190
 1.6670	32.9180
 1.6680	32.9140
 1.6690	32.9170
 1.6700	32.9200
 1.6710	32.9220
 1.6720	32.9280
 1.6730	32.9360
 1.6740	32.9450
 1.6750	32.9470
 1.6760	32.9480
 1.6770	32.9490
 1.6780	32.9420
 1.6790	32.9380
 1.6800	32.9310
 1.6810	32.9150
 1.6820	32.9040
 1.6830	32.8880
 1.6840	32.8700
 1.6850	32.8570
 1.6860	32.8420
 1.6870	32.8230
 1.6880	32.8070
 1.6890	32.7890
 1.6900	32.7680
 1.6910	32.7460
 1.6920	32.7250
 1.6930	32.7040
 1.6940	32.6830
 1.6950	32.6610
 1.6960	32.6410
 1.6970	32.6240
 1.6980	32.6030
 1.6990	32.5870
 1.7000	32.5640
 1.7010	32.5330
 1.7020	32.5050
 1.7030	32.4740
 1.7040	32.4450
 1.7050	32.4190
 1.7060	32.3880
 1.7070	32.3550
 1.7080	32.3220
 1.7090	32.2830
 1.7100	32.2510
 1.7110	32.2240
 1.7120	32.1920
 1.7130	32.1560
 1.7140	32.1120
 1.7150	32.0740
 1.7160	32.0350
 1.7170	31.9980
 1.7180	31.9710
 1.7190	31.9340
 1.7200	31.8990
 1.7210	31.8710
 1.7220	31.8320
 1.7230	31.7960
 1.7240	31.7590
 1.7250	31.7150
 1.7260	31.6780
 1.7270	31.6420
 1.7280	31.6040
 1.7290	31.5680
 1.7300	31.5230
 1.7310	31.4850
 1.7320	31.4530
 1.7330	31.4210
 1.7340	31.3880
 1.7350	31.3620
 1.7360	31.3410
 1.7370	31.3180
 1.7380	31.3060
 1.7390	31.2820
 1.7400	31.2470
 1.7410	31.2180
 1.7420	31.1840
 1.7430	31.1540
 1.7440	31.1300
 1.7450	31.1020
 1.7460	31.0740
 1.7470	31.0420
 1.7480	31.0060
 1.7490	30.9720
 1.7500	30.9350
 1.7510	30.9020
 1.7520	30.8730
 1.7530	30.8400
 1.7540	30.8060
 1.7550	30.7760
 1.7560	30.7470
 1.7570	30.7200
 1.7580	30.6960
 1.7590	30.6730
 1.7600	30.6450
 1.7610	30.6220
 1.7620	30.5990
 1.7630	30.5770
 1.7640	30.5530
 1.7650	30.5280
 1.7660	30.5050
 1.7670	30.4810
 1.7680	30.4580
 1.7690	30.4380
 1.7700	30.4140
 1.7710	30.3860
 1.7720	30.3590
 1.7730	30.3290
 1.7740	30.3040
 1.7750	30.2850
 1.7760	30.2610
 1.7770	30.2370
 1.7780	30.2160
 1.7790	30.1900
 1.7800	30.1720
 1.7810	30.1640
 1.7820	30.1480
 1.7830	30.1310
 1.7840	30.1150
 1.7850	30.0970
 1.7860	30.0820
 1.7870	30.0670
 1.7880	30.0620
 1.7890	30.0610
 1.7900	30.0580
 1.7910	30.0530
 1.7920	30.0390
 1.7930	30.0330
 1.7940	30.0360
 1.7950	30.0360
 1.7960	30.0370
 1.7970	30.0380
 1.7980	30.0380
 1.7990	30.0380
 1.8000	30.0360
 1.8010	30.0400
 1.8020	30.0460
 1.8030	30.0540
 1.8040	30.0710
 1.8050	30.0800
 1.8060	30.0860
 1.8070	30.0900
 1.8080	30.0900
 1.8090	30.0890
 1.8100	30.0840
 1.8110	30.0840
 1.8120	30.0830
 1.8130	30.0850
 1.8140	30.0880
 1.8150	30.0850
 1.8160	30.0810
 1.8170	30.0770
 1.8180	30.0760
 1.8190	30.0810
 1.8200	30.0850
 1.8210	30.0930
 1.8220	30.0970
 1.8230	30.0990
 1.8240	30.0990
 1.8250	30.0970
 1.8260	30.0920
 1.8270	30.1250
 1.8280	30.1580
 1.8290	30.1910
 1.8300	30.2240
 1.8310	30.2570
 1.8320	30.2900
 1.8330	30.3230
 1.8340	30.3550
 1.8350	30.3550
 1.8360	30.3370
 1.8370	30.3210
 1.8380	30.2960
 1.8390	30.2630
 1.8400	30.2210
 1.8410	30.1800
 1.8420	30.1330
 1.8430	30.0810
 1.8440	30.0400
 1.8450	30.0040
 1.8460	29.9650
 1.8470	29.9220
 1.8480	29.8630
 1.8490	29.7860
 1.8500	29.6990
 1.8510	29.5950
 1.8520	29.4830
 1.8530	29.3710
 1.8540	29.2570
 1.8550	29.1360
 1.8560	29.0150
 1.8570	28.8770
 1.8580	28.7220
 1.8590	28.5640
 1.8600	28.3980
 1.8610	28.2140
 1.8620	28.0250
 1.8630	27.8290
 1.8640	27.6160
 1.8650	27.3920
 1.8660	27.1480
 1.8670	26.8860
 1.8680	26.6120
 1.8690	26.3210
 1.8700	26.0080
 1.8710	25.6770
 1.8720	25.3320
 1.8730	24.9730
 1.8740	24.5930
 1.8750	24.2080
 1.8760	23.8150
 1.8770	23.4030
 1.8780	22.9780
 1.8790	22.5500
 1.8800	22.1200
 1.8810	21.6850
 1.8820	21.2420
 1.8830	20.7970
 1.8840	20.3460
 1.8850	19.8850
 1.8860	19.4290
 1.8870	18.9860
 1.8880	18.5520
 1.8890	18.1320
 1.8900	17.7200
 1.8910	17.3240
 1.8920	16.9350
 1.8930	16.5660
 1.8940	16.2110
 1.8950	15.8850
 1.8960	15.5850
 1.8970	15.2900
 1.8980	15.0210
 1.8990	14.7790
 1.9000	14.5520
 1.9010	14.3480
 1.9020	14.1540
 1.9030	13.9780
 1.9040	13.8110
 1.9050	13.6650
 1.9060	13.5390
 1.9070	13.4340
 1.9080	13.3420
 1.9090	13.2590
 1.9100	13.1790
 1.9110	13.1070
 1.9120	13.0420
 1.9130	12.9870
 1.9140	12.9380
 1.9150	12.9000
 1.9160	12.8750
 1.9170	12.8470
 1.9180	12.8220
 1.9190	12.8030
 1.9200	12.7930
 1.9210	12.7850
 1.9220	12.7800
 1.9230	12.7840
 1.9240	12.7840
 1.9250	12.7790
 1.9260	12.7850
 1.9270	12.7950
 1.9280	12.8010
 1.9290	12.8170
 1.9300	12.8330
 1.9310	12.8460
 1.9320	12.8590
 1.9330	12.8780
 1.9340	12.9020
 1.9350	12.9250
 1.9360	12.9500
 1.9370	12.9800
 1.9380	13.0160
 1.9390	13.0390
 1.9400	13.0740
 1.9410	13.1160
 1.9420	13.1590
 1.9430	13.2060
 1.9440	13.2440
 1.9450	13.2780
 1.9460	13.3190
 1.9470	13.3540
 1.9480	13.3970
 1.9490	13.4520
 1.9500	13.4990
 1.9510	13.5480
 1.9520	13.5990
 1.9530	13.6440
 1.9540	13.6990
 1.9550	13.7480
 1.9560	13.7930
 1.9570	13.8420
 1.9580	13.8930
 1.9590	13.9440
 1.9600	14.0020
 1.9610	14.0570
 1.9620	14.1120
 1.9630	14.1650
 1.9640	14.2200
 1.9650	14.2630
 1.9660	14.3160
 1.9670	14.3820
 1.9680	14.4470
 1.9690	14.5250
 1.9700	14.5940
 1.9710	14.6590
 1.9720	14.7240
 1.9730	14.7810
 1.9740	14.8470
 1.9750	14.9160
 1.9760	14.9820
 1.9770	15.0540
 1.9780	15.1270
 1.9790	15.1990
 1.9800	15.2720
 1.9810	15.3450
 1.9820	15.4170
 1.9830	15.4870
 1.9840	15.5550
 1.9850	15.6230
 1.9860	15.6880
 1.9870	15.7580
 1.9880	15.8240
 1.9890	15.8870
 1.9900	15.9560
 1.9910	16.0240
 1.9920	16.0970
 1.9930	16.1800
 1.9940	16.2590
 1.9950	16.3440
 1.9960	16.4200
 1.9970	16.4910
 1.9980	16.5650
 1.9990	16.6330
 2.0000	16.7040
 2.0010	16.7880
 2.0020	16.8620
 2.0030	16.9250
 2.0040	16.9850
 2.0050	17.0500
 2.0060	17.1100
 2.0070	17.1730
 2.0080	17.2440
 2.0090	17.3120
 2.0100	17.3760
 2.0110	17.4410
 2.0120	17.5110
 2.0130	17.5740
 2.0140	17.6410
 2.0150	17.7050
 2.0160	17.7610
 2.0170	17.8260
 2.0180	17.8850
 2.0190	17.9370
 2.0200	17.9920
 2.0210	18.0540
 2.0220	18.1050
 2.0230	18.1470
 2.0240	18.1940
 2.0250	18.2410
 2.0260	18.2810
 2.0270	18.3190
 2.0280	18.3550
 2.0290	18.3900
 2.0300	18.4250
 2.0310	18.4620
 2.0320	18.5100
 2.0330	18.5450
 2.0340	18.5700
 2.0350	18.6020
 2.0360	18.6310
 2.0370	18.6660
 2.0380	18.7100
 2.0390	18.7480
 2.0400	18.7920
 2.0410	18.8250
 2.0420	18.8520
 2.0430	18.8720
 2.0440	18.8950
 2.0450	18.9120
 2.0460	18.9340
 2.0470	18.9630
 2.0480	18.9870
 2.0490	19.0080
 2.0500	19.0330
 2.0510	19.0640
 2.0520	19.0880
 2.0530	19.1140
 2.0540	19.1360
 2.0550	19.1520
 2.0560	19.1720
 2.0570	19.1810
 2.0580	19.1900
 2.0590	19.2030
 2.0600	19.2110
 2.0610	19.2240
 2.0620	19.2450
 2.0630	19.2590
 2.0640	19.2650
 2.0650	19.2830
 2.0660	19.3100
 2.0670	19.3310
 2.0680	19.3550
 2.0690	19.3790
 2.0700	19.4010
 2.0710	19.4230
 2.0720	19.4470
 2.0730	19.4750
 2.0740	19.4940
 2.0750	19.5100
 2.0760	19.5200
 2.0770	19.5250
 2.0780	19.5320
 2.0790	19.5320
 2.0800	19.5410
 2.0810	19.5540
 2.0820	19.5670
 2.0830	19.5870
 2.0840	19.6020
 2.0850	19.6170
 2.0860	19.6300
 2.0870	19.6390
 2.0880	19.6500
 2.0890	19.6690
 2.0900	19.6940
 2.0910	19.7130
 2.0920	19.7380
 2.0930	19.7560
 2.0940	19.7640
 2.0950	19.7770
 2.0960	19.7930
 2.0970	19.8030
 2.0980	19.8070
 2.0990	19.8150
 2.1000	19.8250
 2.1010	19.8320
 2.1020	19.8400
 2.1030	19.8500
 2.1040	19.8580
 2.1050	19.8650
 2.1060	19.8800
 2.1070	19.9060
 2.1080	19.9190
 2.1090	19.9270
 2.1100	19.9390
 2.1110	19.9450
 2.1120	19.9570
 2.1130	19.9770
 2.1140	19.9950
 2.1150	20.0120
 2.1160	20.0280
 2.1170	20.0440
 2.1180	20.0600
 2.1190	20.0740
 2.1200	20.0880
 2.1210	20.1020
 2.1220	20.1200
 2.1230	20.1340
 2.1240	20.1490
 2.1250	20.1610
 2.1260	20.1690
 2.1270	20.1810
 2.1280	20.1930
 2.1290	20.2030
 2.1300	20.2170
 2.1310	20.2260
 2.1320	20.2270
 2.1330	20.2320
 2.1340	20.2290
 2.1350	20.2380
 2.1360	20.2510
 2.1370	20.2670
 2.1380	20.2940
 2.1390	20.3160
 2.1400	20.3380
 2.1410	20.3570
 2.1420	20.3770
 2.1430	20.3960
 2.1440	20.4180
 2.1450	20.4440
 2.1460	20.4640
 2.1470	20.4830
 2.1480	20.5000
 2.1490	20.5100
 2.1500	20.5280
 2.1510	20.5540
 2.1520	20.5710
 2.1530	20.5880
 2.1540	20.6030
 2.1550	20.6050
 2.1560	20.6190
 2.1570	20.6420
 2.1580	20.6640
 2.1590	20.6920
 2.1600	20.7190
 2.1610	20.7340
 2.1620	20.7480
 2.1630	20.7680
 2.1640	20.7870
 2.1650	20.8110
 2.1660	20.8460
 2.1670	20.8660
 2.1680	20.8790
 2.1690	20.8950
 2.1700	20.9080
 2.1710	20.9210
 2.1720	20.9350
 2.1730	20.9500
 2.1740	20.9630
 2.1750	20.9810
 2.1760	21.0090
 2.1770	21.0270
 2.1780	21.0380
 2.1790	21.0530
 2.1800	21.0580
 2.1810	21.0740
 2.1820	21.0970
 2.1830	21.1260
 2.1840	21.1530
 2.1850	21.1870
 2.1860	21.2120
 2.1870	21.2300
 2.1880	21.2580
 2.1890	21.2900
 2.1900	21.3170
 2.1910	21.3500
 2.1920	21.3770
 2.1930	21.3950
 2.1940	21.4140
 2.1950	21.4310
 2.1960	21.4500
 2.1970	21.4660
 2.1980	21.4860
 2.1990	21.5140
 2.2000	21.5330
 2.2010	21.5490
 2.2020	21.5610
 2.2030	21.5540
 2.2040	21.5650
 2.2050	21.5890
 2.2060	21.6020
 2.2070	21.6260
 2.2080	21.6640
 2.2090	21.6960
 2.2100	21.7300
 2.2110	21.7550
 2.2120	21.7810
 2.2130	21.7980
 2.2140	21.8000
 2.2150	21.8120
 2.2160	21.8270
 2.2170	21.8390
 2.2180	21.8530
 2.2190	21.8600
 2.2200	21.8580
 2.2210	21.8590
 2.2220	21.8570
 2.2230	21.8560
 2.2240	21.8550
 2.2250	21.8570
 2.2260	21.8630
 2.2270	21.8660
 2.2280	21.8800
 2.2290	21.8780
 2.2300	21.8700
 2.2310	21.8490
 2.2320	21.8170
 2.2330	21.7840
 2.2340	21.7510
 2.2350	21.7090
 2.2360	21.6850
 2.2370	21.6700
 2.2380	21.6490
 2.2390	21.6400
 2.2400	21.6140
 2.2410	21.5730
 2.2420	21.5370
 2.2430	21.4980
 2.2440	21.4580
 2.2450	21.4170
 2.2460	21.3740
 2.2470	21.3300
 2.2480	21.2830
 2.2490	21.2280
 2.2500	21.1860
 2.2510	21.1500
 2.2520	21.1090
 2.2530	21.0720
 2.2540	21.0360
 2.2550	20.9920
 2.2560	20.9580
 2.2570	20.9400
 2.2580	20.9100
 2.2590	20.8860
 2.2600	20.8460
 2.2610	20.7930
 2.2620	20.7320
 2.2630	20.6600
 2.2640	20.5980
 2.2650	20.5500
 2.2660	20.5030
 2.2670	20.4670
 2.2680	20.4490
 2.2690	20.4080
 2.2700	20.3630
 2.2710	20.3170
 2.2720	20.2530
 2.2730	20.2140
 2.2740	20.1860
 2.2750	20.1610
 2.2760	20.1550
 2.2770	20.1300
 2.2780	20.0900
 2.2790	20.0660
 2.2800	20.0440
 2.2810	20.0200
 2.2820	20.0130
 2.2830	19.9920
 2.2840	19.9530
 2.2850	19.9270
 2.2860	19.9100
 2.2870	19.8860
 2.2880	19.8640
 2.2890	19.8400
 2.2900	19.8080
 2.2910	19.7780
 2.2920	19.7540
 2.2930	19.7220
 2.2940	19.6820
 2.2950	19.6460
 2.2960	19.6020
 2.2970	19.5650
 2.2980	19.5340
 2.2990	19.5030
 2.3000	19.4650
 2.3010	19.4390
 2.3020	19.4070
 2.3030	19.3720
 2.3040	19.3500
 2.3050	19.3270
 2.3060	19.3010
 2.3070	19.2880
 2.3080	19.2760
 2.3090	19.2490
 2.3100	19.2240
 2.3110	19.1940
 2.3120	19.1780
 2.3130	19.1710
 2.3140	19.1510
 2.3150	19.1370
 2.3160	19.1110
 2.3170	19.0590
 2.3180	19.0400
 2.3190	19.0410
 2.3200	19.0280
 2.3210	19.0290
 2.3220	19.0030
 2.3230	18.9540
 2.3240	18.9170
 2.3250	18.8700
 2.3260	18.8340
 2.3270	18.8050
 2.3280	18.7710
 2.3290	18.7350
 2.3300	18.7060
 2.3310	18.6820
 2.3320	18.6520
 2.3330	18.6180
 2.3340	18.5920
 2.3350	18.5610
 2.3360	18.5390
 2.3370	18.5460
 2.3380	18.5210
 2.3390	18.4770
 2.3400	18.4350
 2.3410	18.3590
 2.3420	18.3190
 2.3430	18.3010
 2.3440	18.2790
 2.3450	18.2710
 2.3460	18.2580
 2.3470	18.2560
 2.3480	18.2330
 2.3490	18.1980
 2.3500	18.1650
 2.3510	18.1070
 2.3520	18.0670
 2.3530	18.0360
 2.3540	18.0060
 2.3550	18.0060
 2.3560	18.0080
 2.3570	17.9880
 2.3580	17.9750
 2.3590	17.9590
 2.3600	17.9040
 2.3610	17.8720
 2.3620	17.8610
 2.3630	17.8050
 2.3640	17.7750
 2.3650	17.7670
 2.3660	17.7420
 2.3670	17.7300
 2.3680	17.6990
 2.3690	17.6350
 2.3700	17.5830
 2.3710	17.5620
 2.3720	17.5650
 2.3730	17.5820
 2.3740	17.5940
 2.3750	17.5890
 2.3760	17.5580
 2.3770	17.5170
 2.3780	17.4670
 2.3790	17.4050
 2.3800	17.3460
 2.3810	17.3240
 2.3820	17.3230
 2.3830	17.2950
 2.3840	17.2700
 2.3850	17.2190
 2.3860	17.1360
 2.3870	17.0970
 2.3880	17.0500
 2.3890	16.9890
 2.3900	16.9450
 2.3910	16.8910
 2.3920	16.8540
 2.3930	16.8440
 2.3940	16.8330
 2.3950	16.8120
 2.3960	16.8060
 2.3970	16.7700
 2.3980	16.6870
 2.3990	16.6150
 2.4000	16.5500
 2.4010	16.5150
 2.4020	16.5240
 2.4030	16.5150
 2.4040	16.4990
 2.4050	16.4740
 2.4060	16.4410
 2.4070	16.4070
 2.4080	16.3550
 2.4090	16.2900
 2.4100	16.2190
 2.4110	16.1780
 2.4120	16.1510
 2.4130	16.1090
 2.4140	16.0750
 2.4150	16.0570
 2.4160	16.0260
 2.4170	15.9950
 2.4180	15.9540
 2.4190	15.8880
 2.4200	15.8430
 2.4210	15.7840
 2.4220	15.7500
 2.4230	15.7530
 2.4240	15.7100
 2.4250	15.6680
 2.4260	15.6300
 2.4270	15.5600
 2.4280	15.5110
 2.4290	15.4780
 2.4300	15.4180
 2.4310	15.3410
 2.4320	15.2680
 2.4330	15.2020
 2.4340	15.1750
 2.4350	15.1820
 2.4360	15.1740
 2.4370	15.1610
 2.4380	15.1300
 2.4390	15.0820
 2.4400	15.0080
 2.4410	14.8980
 2.4420	14.8020
 2.4430	14.7230
 2.4440	14.6560
 2.4450	14.6200
 2.4460	14.5990
 2.4470	14.5880
 2.4480	14.5770
 2.4490	14.5710
 2.4500	14.6020
 2.4510	14.5610
 2.4520	14.4870
 2.4530	14.4740
 2.4540	14.3960
 2.4550	14.3470
 2.4560	14.3870
 2.4570	14.3650
 2.4580	14.3290
 2.4590	14.2890
 2.4600	14.2230
 2.4610	14.1800
 2.4620	14.1390
 2.4630	14.1400
 2.4640	14.1170
 2.4650	14.1100
 2.4660	14.1070
 2.4670	14.0350
 2.4680	14.0080
 2.4690	13.9260
 2.4700	13.8720
 2.4710	13.8680
 2.4720	13.8440
 2.4730	13.7770
 2.4740	13.7920
 2.4750	13.8530
 2.4760	13.8690
 2.4770	13.9640
 2.4780	13.9640
 2.4790	13.8750
 2.4800	13.8470
 2.4810	13.7600
 2.4820	13.6620
 2.4830	13.7110
 2.4840	13.6790
 2.4850	13.6710
 2.4860	13.7630
 2.4870	13.6940
 2.4880	13.5800
 2.4890	13.5340
 2.4900	13.4920
 2.4910	13.3990
 2.4920	13.2800
 2.4930	13.2490
 2.4940	13.1750
 2.4950	13.2000
 2.4960	13.4030
 2.4970	13.4910
 2.4980	13.5210
 2.4990	13.5180
 2.5000	13.4330
