Name: Arctostaphylos glandulosa 1
Type: vegetation
Class: Shrub
Genus: Arctostaphylos
Species: glandulosa
Sample No.: VH230
Owner: UCSB
Wavelength Range: VSWIR
Origin: 34.5084; -119.7682; WGS84
Collection Date: 10/13/2013
Description: Samples were collected as part of the HyspIRI Airborne Campaign. 48 individual plants were sampled in three times in 2013 - spring  summer  and fall. The name of the sample includes a 1  2  or 3 which references a different individual of the species. Samples were taken to JPL and processed within 48 hours of collection. The same leaves were processed in the Nicolet and then measured using the ASD.
Measurement: Bidirectional reflectance
First Column: X
Second Column: Y
X Units: Wavelength (micrometers)
Y Units: Reflectance (percentage)
First X Value: 0.35
Last X Value: 2.5
Number of X Values: 2151
Additional Information: vegetation.shrub.arctostaphylos.glandulosa.vswir.vh230.ucsb.asd.ancillary.txt

 0.3500	 7.8410
 0.3510	 7.3480
 0.3520	 7.1850
 0.3530	 7.1700
 0.3540	 7.0190
 0.3550	 6.9200
 0.3560	 6.9970
 0.3570	 7.0040
 0.3580	 6.6310
 0.3590	 6.6960
 0.3600	 6.7430
 0.3610	 6.6530
 0.3620	 6.9740
 0.3630	 6.9220
 0.3640	 6.7750
 0.3650	 6.8800
 0.3660	 6.7590
 0.3670	 6.7100
 0.3680	 6.7670
 0.3690	 6.7720
 0.3700	 6.6160
 0.3710	 6.5520
 0.3720	 6.6680
 0.3730	 6.6580
 0.3740	 6.8000
 0.3750	 6.8750
 0.3760	 6.6660
 0.3770	 6.6740
 0.3780	 6.7290
 0.3790	 6.7360
 0.3800	 6.7040
 0.3810	 6.7140
 0.3820	 6.6480
 0.3830	 6.4940
 0.3840	 6.5540
 0.3850	 6.6180
 0.3860	 6.6450
 0.3870	 6.6590
 0.3880	 6.6640
 0.3890	 6.6350
 0.3900	 6.5970
 0.3910	 6.6210
 0.3920	 6.5890
 0.3930	 6.6070
 0.3940	 6.7160
 0.3950	 6.6630
 0.3960	 6.6060
 0.3970	 6.5840
 0.3980	 6.5790
 0.3990	 6.5920
 0.4000	 6.5830
 0.4010	 6.5490
 0.4020	 6.5370
 0.4030	 6.5310
 0.4040	 6.5100
 0.4050	 6.4790
 0.4060	 6.5160
 0.4070	 6.5080
 0.4080	 6.4990
 0.4090	 6.6130
 0.4100	 6.6050
 0.4110	 6.5380
 0.4120	 6.4970
 0.4130	 6.5310
 0.4140	 6.5400
 0.4150	 6.5280
 0.4160	 6.5320
 0.4170	 6.5520
 0.4180	 6.6120
 0.4190	 6.6770
 0.4200	 6.6680
 0.4210	 6.6710
 0.4220	 6.7260
 0.4230	 6.8220
 0.4240	 6.8480
 0.4250	 6.9130
 0.4260	 7.0080
 0.4270	 7.0770
 0.4280	 7.1520
 0.4290	 7.2710
 0.4300	 7.4200
 0.4310	 7.5230
 0.4320	 7.6320
 0.4330	 7.7650
 0.4340	 7.9170
 0.4350	 8.0260
 0.4360	 8.1620
 0.4370	 8.3240
 0.4380	 8.4680
 0.4390	 8.6140
 0.4400	 8.7590
 0.4410	 8.9010
 0.4420	 9.0560
 0.4430	 9.1970
 0.4440	 9.3260
 0.4450	 9.4520
 0.4460	 9.5660
 0.4470	 9.6900
 0.4480	 9.8280
 0.4490	 9.9570
 0.4500	10.0720
 0.4510	10.1790
 0.4520	10.2820
 0.4530	10.3610
 0.4540	10.4380
 0.4550	10.5160
 0.4560	10.5930
 0.4570	10.6480
 0.4580	10.7060
 0.4590	10.7780
 0.4600	10.8390
 0.4610	10.8830
 0.4620	10.9280
 0.4630	10.9870
 0.4640	11.0200
 0.4650	11.0370
 0.4660	11.0550
 0.4670	11.0950
 0.4680	11.1200
 0.4690	11.1430
 0.4700	11.1730
 0.4710	11.1910
 0.4720	11.2250
 0.4730	11.2470
 0.4740	11.2150
 0.4750	11.2370
 0.4760	11.2730
 0.4770	11.2910
 0.4780	11.2930
 0.4790	11.2930
 0.4800	11.2980
 0.4810	11.3100
 0.4820	11.3200
 0.4830	11.3420
 0.4840	11.3700
 0.4850	11.3860
 0.4860	11.4190
 0.4870	11.4560
 0.4880	11.4880
 0.4890	11.5220
 0.4900	11.5720
 0.4910	11.6270
 0.4920	11.6700
 0.4930	11.7340
 0.4940	11.8120
 0.4950	11.8950
 0.4960	11.9840
 0.4970	12.0680
 0.4980	12.1590
 0.4990	12.2700
 0.5000	12.3810
 0.5010	12.4990
 0.5020	12.6340
 0.5030	12.7880
 0.5040	12.9340
 0.5050	13.0900
 0.5060	13.2710
 0.5070	13.4500
 0.5080	13.6440
 0.5090	13.8540
 0.5100	14.0710
 0.5110	14.3010
 0.5120	14.5350
 0.5130	14.7730
 0.5140	15.0330
 0.5150	15.3100
 0.5160	15.5950
 0.5170	15.8840
 0.5180	16.1700
 0.5190	16.4660
 0.5200	16.7730
 0.5210	17.0850
 0.5220	17.3990
 0.5230	17.7030
 0.5240	17.9950
 0.5250	18.3040
 0.5260	18.6010
 0.5270	18.8800
 0.5280	19.1490
 0.5290	19.4230
 0.5300	19.6910
 0.5310	19.9450
 0.5320	20.1910
 0.5330	20.4370
 0.5340	20.6750
 0.5350	20.8970
 0.5360	21.1130
 0.5370	21.3180
 0.5380	21.5150
 0.5390	21.7100
 0.5400	21.8930
 0.5410	22.0650
 0.5420	22.2310
 0.5430	22.3970
 0.5440	22.5660
 0.5450	22.7300
 0.5460	22.8800
 0.5470	23.0310
 0.5480	23.1710
 0.5490	23.2970
 0.5500	23.4150
 0.5510	23.5180
 0.5520	23.6070
 0.5530	23.6890
 0.5540	23.7510
 0.5550	23.7890
 0.5560	23.8040
 0.5570	23.8000
 0.5580	23.7820
 0.5590	23.7500
 0.5600	23.7030
 0.5610	23.6430
 0.5620	23.5600
 0.5630	23.4690
 0.5640	23.3870
 0.5650	23.3010
 0.5660	23.2050
 0.5670	23.0980
 0.5680	22.9810
 0.5690	22.8480
 0.5700	22.7060
 0.5710	22.5620
 0.5720	22.4150
 0.5730	22.2680
 0.5740	22.1230
 0.5750	21.9770
 0.5760	21.8460
 0.5770	21.7240
 0.5780	21.6000
 0.5790	21.4780
 0.5800	21.3610
 0.5810	21.2520
 0.5820	21.1470
 0.5830	21.0420
 0.5840	20.9540
 0.5850	20.8800
 0.5860	20.7980
 0.5870	20.7220
 0.5880	20.6510
 0.5890	20.5810
 0.5900	20.5160
 0.5910	20.4520
 0.5920	20.3920
 0.5930	20.3380
 0.5940	20.2900
 0.5950	20.2530
 0.5960	20.2250
 0.5970	20.1970
 0.5980	20.1550
 0.5990	20.1090
 0.6000	20.0730
 0.6010	20.0250
 0.6020	19.9760
 0.6030	19.9200
 0.6040	19.8450
 0.6050	19.7610
 0.6060	19.6740
 0.6070	19.5830
 0.6080	19.4780
 0.6090	19.3640
 0.6100	19.2430
 0.6110	19.1170
 0.6120	19.0070
 0.6130	18.8910
 0.6140	18.7630
 0.6150	18.6490
 0.6160	18.5350
 0.6170	18.4260
 0.6180	18.3310
 0.6190	18.2380
 0.6200	18.1510
 0.6210	18.0760
 0.6220	18.0170
 0.6230	17.9640
 0.6240	17.9220
 0.6250	17.8920
 0.6260	17.8610
 0.6270	17.8440
 0.6280	17.8310
 0.6290	17.8070
 0.6300	17.7940
 0.6310	17.7810
 0.6320	17.7570
 0.6330	17.7230
 0.6340	17.6690
 0.6350	17.6000
 0.6360	17.5150
 0.6370	17.4000
 0.6380	17.2710
 0.6390	17.1280
 0.6400	16.9640
 0.6410	16.7830
 0.6420	16.5930
 0.6430	16.3970
 0.6440	16.1980
 0.6450	16.0010
 0.6460	15.8070
 0.6470	15.6200
 0.6480	15.4520
 0.6490	15.3090
 0.6500	15.1890
 0.6510	15.0860
 0.6520	14.9920
 0.6530	14.9030
 0.6540	14.8140
 0.6550	14.7120
 0.6560	14.5960
 0.6570	14.4630
 0.6580	14.3130
 0.6590	14.1450
 0.6600	13.9660
 0.6610	13.7810
 0.6620	13.5830
 0.6630	13.3910
 0.6640	13.2010
 0.6650	13.0140
 0.6660	12.8540
 0.6670	12.7100
 0.6680	12.5770
 0.6690	12.4530
 0.6700	12.3560
 0.6710	12.2750
 0.6720	12.2080
 0.6730	12.1590
 0.6740	12.1170
 0.6750	12.0870
 0.6760	12.0730
 0.6770	12.0600
 0.6780	12.0630
 0.6790	12.0890
 0.6800	12.1400
 0.6810	12.2190
 0.6820	12.3400
 0.6830	12.5120
 0.6840	12.7410
 0.6850	13.0330
 0.6860	13.3940
 0.6870	13.8350
 0.6880	14.3810
 0.6890	15.0180
 0.6900	15.7460
 0.6910	16.5780
 0.6920	17.5060
 0.6930	18.5200
 0.6940	19.6150
 0.6950	20.8020
 0.6960	22.0500
 0.6970	23.3440
 0.6980	24.6790
 0.6990	26.0390
 0.7000	27.4190
 0.7010	28.8050
 0.7020	30.1730
 0.7030	31.5120
 0.7040	32.8230
 0.7050	34.0980
 0.7060	35.3180
 0.7070	36.5010
 0.7080	37.6440
 0.7090	38.7400
 0.7100	39.7870
 0.7110	40.8020
 0.7120	41.7860
 0.7130	42.7170
 0.7140	43.6100
 0.7150	44.4690
 0.7160	45.2910
 0.7170	46.0730
 0.7180	46.8250
 0.7190	47.5470
 0.7200	48.2330
 0.7210	48.8870
 0.7220	49.5040
 0.7230	50.0860
 0.7240	50.6400
 0.7250	51.1550
 0.7260	51.6360
 0.7270	52.0880
 0.7280	52.5220
 0.7290	52.9190
 0.7300	53.2860
 0.7310	53.6340
 0.7320	53.9520
 0.7330	54.2510
 0.7340	54.5320
 0.7350	54.7820
 0.7360	55.0190
 0.7370	55.2450
 0.7380	55.4560
 0.7390	55.6410
 0.7400	55.8090
 0.7410	55.9710
 0.7420	56.1360
 0.7430	56.2750
 0.7440	56.4030
 0.7450	56.5230
 0.7460	56.6220
 0.7470	56.7150
 0.7480	56.8110
 0.7490	56.9060
 0.7500	56.9710
 0.7510	57.0350
 0.7520	57.1040
 0.7530	57.1720
 0.7540	57.2230
 0.7550	57.2720
 0.7560	57.3170
 0.7570	57.3460
 0.7580	57.3740
 0.7590	57.4090
 0.7600	57.4510
 0.7610	57.4790
 0.7620	57.5150
 0.7630	57.5390
 0.7640	57.5410
 0.7650	57.5730
 0.7660	57.5960
 0.7670	57.6070
 0.7680	57.6200
 0.7690	57.6410
 0.7700	57.6530
 0.7710	57.6580
 0.7720	57.6810
 0.7730	57.6910
 0.7740	57.6900
 0.7750	57.6920
 0.7760	57.7150
 0.7770	57.7300
 0.7780	57.7340
 0.7790	57.7410
 0.7800	57.7500
 0.7810	57.7570
 0.7820	57.7670
 0.7830	57.7870
 0.7840	57.7860
 0.7850	57.7840
 0.7860	57.7970
 0.7870	57.8060
 0.7880	57.8120
 0.7890	57.8110
 0.7900	57.8060
 0.7910	57.8230
 0.7920	57.8510
 0.7930	57.8690
 0.7940	57.8620
 0.7950	57.8740
 0.7960	57.8850
 0.7970	57.8890
 0.7980	57.9040
 0.7990	57.9060
 0.8000	57.9120
 0.8010	57.9330
 0.8020	57.9370
 0.8030	57.9410
 0.8040	57.9500
 0.8050	57.9620
 0.8060	57.9580
 0.8070	57.9630
 0.8080	57.9870
 0.8090	58.0170
 0.8100	58.0320
 0.8110	58.0370
 0.8120	58.0420
 0.8130	58.0530
 0.8140	58.0690
 0.8150	58.0780
 0.8160	58.0780
 0.8170	58.0990
 0.8180	58.1100
 0.8190	58.1130
 0.8200	58.1280
 0.8210	58.1440
 0.8220	58.1600
 0.8230	58.1730
 0.8240	58.1820
 0.8250	58.2060
 0.8260	58.2200
 0.8270	58.2130
 0.8280	58.2160
 0.8290	58.2340
 0.8300	58.2510
 0.8310	58.2510
 0.8320	58.2470
 0.8330	58.2450
 0.8340	58.2500
 0.8350	58.2650
 0.8360	58.2670
 0.8370	58.2760
 0.8380	58.2970
 0.8390	58.3160
 0.8400	58.3100
 0.8410	58.3110
 0.8420	58.3310
 0.8430	58.3480
 0.8440	58.3630
 0.8450	58.3670
 0.8460	58.3630
 0.8470	58.3810
 0.8480	58.3950
 0.8490	58.4040
 0.8500	58.4170
 0.8510	58.4270
 0.8520	58.4340
 0.8530	58.4330
 0.8540	58.4190
 0.8550	58.4480
 0.8560	58.4650
 0.8570	58.4540
 0.8580	58.4490
 0.8590	58.4670
 0.8600	58.4710
 0.8610	58.4500
 0.8620	58.4500
 0.8630	58.4520
 0.8640	58.4470
 0.8650	58.4400
 0.8660	58.4580
 0.8670	58.4690
 0.8680	58.4700
 0.8690	58.4690
 0.8700	58.4570
 0.8710	58.4510
 0.8720	58.4570
 0.8730	58.4710
 0.8740	58.4860
 0.8750	58.4800
 0.8760	58.4650
 0.8770	58.4810
 0.8780	58.4590
 0.8790	58.4350
 0.8800	58.4360
 0.8810	58.4450
 0.8820	58.4380
 0.8830	58.4230
 0.8840	58.4110
 0.8850	58.3970
 0.8860	58.3920
 0.8870	58.3960
 0.8880	58.3980
 0.8890	58.3710
 0.8900	58.3650
 0.8910	58.3620
 0.8920	58.3260
 0.8930	58.3140
 0.8940	58.3010
 0.8950	58.2920
 0.8960	58.3040
 0.8970	58.2900
 0.8980	58.2580
 0.8990	58.2280
 0.9000	58.2210
 0.9010	58.2150
 0.9020	58.2000
 0.9030	58.1760
 0.9040	58.1520
 0.9050	58.1300
 0.9060	58.1150
 0.9070	58.1060
 0.9080	58.0890
 0.9090	58.0750
 0.9100	58.0580
 0.9110	58.0390
 0.9120	58.0440
 0.9130	58.0260
 0.9140	57.9940
 0.9150	57.9730
 0.9160	57.9760
 0.9170	57.9540
 0.9180	57.9130
 0.9190	57.8860
 0.9200	57.8930
 0.9210	57.8970
 0.9220	57.8800
 0.9230	57.8470
 0.9240	57.8070
 0.9250	57.7860
 0.9260	57.7730
 0.9270	57.7390
 0.9280	57.7150
 0.9290	57.6990
 0.9300	57.6760
 0.9310	57.6330
 0.9320	57.6170
 0.9330	57.5830
 0.9340	57.5180
 0.9350	57.4620
 0.9360	57.4510
 0.9370	57.4330
 0.9380	57.3860
 0.9390	57.3460
 0.9400	57.3080
 0.9410	57.2680
 0.9420	57.2210
 0.9430	57.1610
 0.9440	57.1090
 0.9450	57.0600
 0.9460	57.0040
 0.9470	56.9410
 0.9480	56.8890
 0.9490	56.8130
 0.9500	56.6970
 0.9510	56.6050
 0.9520	56.5160
 0.9530	56.4250
 0.9540	56.3370
 0.9550	56.2740
 0.9560	56.1680
 0.9570	56.0530
 0.9580	55.9720
 0.9590	55.8980
 0.9600	55.7880
 0.9610	55.6890
 0.9620	55.6470
 0.9630	55.5860
 0.9640	55.4880
 0.9650	55.3970
 0.9660	55.3580
 0.9670	55.3310
 0.9680	55.3010
 0.9690	55.2530
 0.9700	55.1900
 0.9710	55.1750
 0.9720	55.1670
 0.9730	55.1420
 0.9740	55.1010
 0.9750	55.0910
 0.9760	55.0760
 0.9770	55.0570
 0.9780	55.0470
 0.9790	55.0230
 0.9800	55.0170
 0.9810	55.0230
 0.9820	55.0210
 0.9830	55.0320
 0.9840	55.0480
 0.9850	55.0460
 0.9860	55.0220
 0.9870	55.0720
 0.9880	55.1220
 0.9890	55.1500
 0.9900	55.1730
 0.9910	55.2030
 0.9920	55.2120
 0.9930	55.2210
 0.9940	55.2310
 0.9950	55.2400
 0.9960	55.2490
 0.9970	55.2580
 0.9980	55.2680
 0.9990	55.2770
 1.0000	55.2860
 1.0010	55.2950
 1.0020	55.3050
 1.0030	55.3140
 1.0040	55.3230
 1.0050	55.3330
 1.0060	55.3420
 1.0070	55.3510
 1.0080	55.3600
 1.0090	55.3700
 1.0100	55.3700
 1.0110	55.4130
 1.0120	55.4510
 1.0130	55.4860
 1.0140	55.5230
 1.0150	55.5500
 1.0160	55.5960
 1.0170	55.6400
 1.0180	55.6830
 1.0190	55.7270
 1.0200	55.7620
 1.0210	55.7900
 1.0220	55.8260
 1.0230	55.8640
 1.0240	55.9020
 1.0250	55.9360
 1.0260	55.9800
 1.0270	56.0110
 1.0280	56.0290
 1.0290	56.0540
 1.0300	56.0720
 1.0310	56.1020
 1.0320	56.1410
 1.0330	56.1870
 1.0340	56.2260
 1.0350	56.2540
 1.0360	56.2790
 1.0370	56.3120
 1.0380	56.3430
 1.0390	56.3870
 1.0400	56.4120
 1.0410	56.4240
 1.0420	56.4420
 1.0430	56.4540
 1.0440	56.4700
 1.0450	56.4920
 1.0460	56.5100
 1.0470	56.5240
 1.0480	56.5410
 1.0490	56.5660
 1.0500	56.5830
 1.0510	56.5940
 1.0520	56.6160
 1.0530	56.6230
 1.0540	56.6170
 1.0550	56.6240
 1.0560	56.6290
 1.0570	56.6400
 1.0580	56.6570
 1.0590	56.6760
 1.0600	56.7020
 1.0610	56.7200
 1.0620	56.7400
 1.0630	56.7550
 1.0640	56.7560
 1.0650	56.7660
 1.0660	56.7820
 1.0670	56.7940
 1.0680	56.8050
 1.0690	56.8170
 1.0700	56.8270
 1.0710	56.8290
 1.0720	56.8400
 1.0730	56.8590
 1.0740	56.8680
 1.0750	56.8800
 1.0760	56.8800
 1.0770	56.8670
 1.0780	56.8600
 1.0790	56.8520
 1.0800	56.8450
 1.0810	56.8390
 1.0820	56.8350
 1.0830	56.8320
 1.0840	56.8280
 1.0850	56.8260
 1.0860	56.8230
 1.0870	56.8190
 1.0880	56.8130
 1.0890	56.8090
 1.0900	56.8080
 1.0910	56.7990
 1.0920	56.7910
 1.0930	56.7750
 1.0940	56.7470
 1.0950	56.7290
 1.0960	56.7130
 1.0970	56.6940
 1.0980	56.6790
 1.0990	56.6580
 1.1000	56.6240
 1.1010	56.5990
 1.1020	56.5780
 1.1030	56.5600
 1.1040	56.5310
 1.1050	56.5090
 1.1060	56.4810
 1.1070	56.4430
 1.1080	56.4120
 1.1090	56.3910
 1.1100	56.3560
 1.1110	56.3130
 1.1120	56.2720
 1.1130	56.2270
 1.1140	56.1760
 1.1150	56.1250
 1.1160	56.0710
 1.1170	56.0140
 1.1180	55.9510
 1.1190	55.8870
 1.1200	55.8150
 1.1210	55.7400
 1.1220	55.6570
 1.1230	55.5750
 1.1240	55.4970
 1.1250	55.4090
 1.1260	55.3200
 1.1270	55.2220
 1.1280	55.1170
 1.1290	55.0080
 1.1300	54.8940
 1.1310	54.7740
 1.1320	54.6530
 1.1330	54.5180
 1.1340	54.3720
 1.1350	54.2200
 1.1360	54.0560
 1.1370	53.8920
 1.1380	53.7180
 1.1390	53.5430
 1.1400	53.3620
 1.1410	53.1690
 1.1420	52.9710
 1.1430	52.7720
 1.1440	52.5660
 1.1450	52.3480
 1.1460	52.1390
 1.1470	51.9280
 1.1480	51.7180
 1.1490	51.5070
 1.1500	51.3040
 1.1510	51.1020
 1.1520	50.9090
 1.1530	50.7220
 1.1540	50.5440
 1.1550	50.3720
 1.1560	50.2090
 1.1570	50.0550
 1.1580	49.9290
 1.1590	49.8170
 1.1600	49.7060
 1.1610	49.6140
 1.1620	49.5240
 1.1630	49.4370
 1.1640	49.3650
 1.1650	49.2920
 1.1660	49.2220
 1.1670	49.1640
 1.1680	49.1130
 1.1690	49.0660
 1.1700	49.0320
 1.1710	48.9930
 1.1720	48.9560
 1.1730	48.9170
 1.1740	48.8770
 1.1750	48.8340
 1.1760	48.7930
 1.1770	48.7510
 1.1780	48.7120
 1.1790	48.6770
 1.1800	48.6340
 1.1810	48.5880
 1.1820	48.5390
 1.1830	48.4900
 1.1840	48.4460
 1.1850	48.4080
 1.1860	48.3710
 1.1870	48.3340
 1.1880	48.2990
 1.1890	48.2650
 1.1900	48.2310
 1.1910	48.1970
 1.1920	48.1670
 1.1930	48.1400
 1.1940	48.1140
 1.1950	48.0910
 1.1960	48.0690
 1.1970	48.0500
 1.1980	48.0320
 1.1990	48.0170
 1.2000	48.0100
 1.2010	48.0040
 1.2020	48.0020
 1.2030	48.0130
 1.2040	48.0270
 1.2050	48.0450
 1.2060	48.0690
 1.2070	48.0870
 1.2080	48.1100
 1.2090	48.1420
 1.2100	48.1720
 1.2110	48.2110
 1.2120	48.2650
 1.2130	48.3150
 1.2140	48.3660
 1.2150	48.4240
 1.2160	48.4870
 1.2170	48.5430
 1.2180	48.6030
 1.2190	48.6660
 1.2200	48.7290
 1.2210	48.7940
 1.2220	48.8630
 1.2230	48.9320
 1.2240	48.9950
 1.2250	49.0620
 1.2260	49.1260
 1.2270	49.1900
 1.2280	49.2560
 1.2290	49.3170
 1.2300	49.3780
 1.2310	49.4350
 1.2320	49.4910
 1.2330	49.5440
 1.2340	49.5940
 1.2350	49.6400
 1.2360	49.6850
 1.2370	49.7270
 1.2380	49.7710
 1.2390	49.8130
 1.2400	49.8560
 1.2410	49.8960
 1.2420	49.9280
 1.2430	49.9650
 1.2440	50.0020
 1.2450	50.0360
 1.2460	50.0750
 1.2470	50.1080
 1.2480	50.1380
 1.2490	50.1710
 1.2500	50.1990
 1.2510	50.2230
 1.2520	50.2490
 1.2530	50.2750
 1.2540	50.3000
 1.2550	50.3200
 1.2560	50.3380
 1.2570	50.3560
 1.2580	50.3690
 1.2590	50.3810
 1.2600	50.3960
 1.2610	50.4080
 1.2620	50.4160
 1.2630	50.4270
 1.2640	50.4390
 1.2650	50.4430
 1.2660	50.4510
 1.2670	50.4570
 1.2680	50.4590
 1.2690	50.4650
 1.2700	50.4670
 1.2710	50.4660
 1.2720	50.4620
 1.2730	50.4550
 1.2740	50.4500
 1.2750	50.4370
 1.2760	50.4200
 1.2770	50.4100
 1.2780	50.3940
 1.2790	50.3770
 1.2800	50.3620
 1.2810	50.3430
 1.2820	50.3190
 1.2830	50.2900
 1.2840	50.2620
 1.2850	50.2340
 1.2860	50.2040
 1.2870	50.1730
 1.2880	50.1450
 1.2890	50.1070
 1.2900	50.0650
 1.2910	50.0250
 1.2920	49.9760
 1.2930	49.9280
 1.2940	49.8840
 1.2950	49.8300
 1.2960	49.7760
 1.2970	49.7300
 1.2980	49.6710
 1.2990	49.6100
 1.3000	49.5500
 1.3010	49.4760
 1.3020	49.3990
 1.3030	49.3220
 1.3040	49.2350
 1.3050	49.1500
 1.3060	49.0660
 1.3070	48.9770
 1.3080	48.8860
 1.3090	48.7870
 1.3100	48.6800
 1.3110	48.5720
 1.3120	48.4560
 1.3130	48.3300
 1.3140	48.2010
 1.3150	48.0690
 1.3160	47.9280
 1.3170	47.7790
 1.3180	47.6300
 1.3190	47.4700
 1.3200	47.3070
 1.3210	47.1420
 1.3220	46.9680
 1.3230	46.7900
 1.3240	46.6070
 1.3250	46.4210
 1.3260	46.2360
 1.3270	46.0480
 1.3280	45.8570
 1.3290	45.6580
 1.3300	45.4540
 1.3310	45.2450
 1.3320	45.0320
 1.3330	44.8190
 1.3340	44.6070
 1.3350	44.3970
 1.3360	44.1840
 1.3370	43.9640
 1.3380	43.7430
 1.3390	43.5280
 1.3400	43.3080
 1.3410	43.0910
 1.3420	42.8790
 1.3430	42.6620
 1.3440	42.4510
 1.3450	42.2460
 1.3460	42.0500
 1.3470	41.8530
 1.3480	41.6560
 1.3490	41.4640
 1.3500	41.2760
 1.3510	41.0860
 1.3520	40.8980
 1.3530	40.7170
 1.3540	40.5340
 1.3550	40.3540
 1.3560	40.1770
 1.3570	40.0000
 1.3580	39.8230
 1.3590	39.6420
 1.3600	39.4550
 1.3610	39.2640
 1.3620	39.0680
 1.3630	38.8670
 1.3640	38.6620
 1.3650	38.4470
 1.3660	38.2250
 1.3670	37.9910
 1.3680	37.7460
 1.3690	37.4960
 1.3700	37.2300
 1.3710	36.9510
 1.3720	36.6600
 1.3730	36.3500
 1.3740	36.0280
 1.3750	35.6890
 1.3760	35.3200
 1.3770	34.9270
 1.3780	34.5050
 1.3790	34.0590
 1.3800	33.5970
 1.3810	33.1080
 1.3820	32.5990
 1.3830	32.0690
 1.3840	31.5190
 1.3850	30.9420
 1.3860	30.3570
 1.3870	29.7500
 1.3880	29.1440
 1.3890	28.5280
 1.3900	27.9080
 1.3910	27.2890
 1.3920	26.6660
 1.3930	26.0420
 1.3940	25.4250
 1.3950	24.8080
 1.3960	24.2030
 1.3970	23.6120
 1.3980	23.0300
 1.3990	22.4700
 1.4000	21.9290
 1.4010	21.3990
 1.4020	20.8930
 1.4030	20.4060
 1.4040	19.9390
 1.4050	19.4990
 1.4060	19.0800
 1.4070	18.6860
 1.4080	18.3170
 1.4090	17.9670
 1.4100	17.6440
 1.4110	17.3410
 1.4120	17.0550
 1.4130	16.7910
 1.4140	16.5460
 1.4150	16.3200
 1.4160	16.1120
 1.4170	15.9230
 1.4180	15.7500
 1.4190	15.5880
 1.4200	15.4380
 1.4210	15.2960
 1.4220	15.1640
 1.4230	15.0470
 1.4240	14.9430
 1.4250	14.8470
 1.4260	14.7660
 1.4270	14.6870
 1.4280	14.6160
 1.4290	14.5510
 1.4300	14.4930
 1.4310	14.4390
 1.4320	14.3920
 1.4330	14.3480
 1.4340	14.3050
 1.4350	14.2690
 1.4360	14.2400
 1.4370	14.2140
 1.4380	14.1930
 1.4390	14.1760
 1.4400	14.1590
 1.4410	14.1450
 1.4420	14.1340
 1.4430	14.1250
 1.4440	14.1180
 1.4450	14.1150
 1.4460	14.1160
 1.4470	14.1190
 1.4480	14.1210
 1.4490	14.1250
 1.4500	14.1260
 1.4510	14.1280
 1.4520	14.1360
 1.4530	14.1440
 1.4540	14.1540
 1.4550	14.1660
 1.4560	14.1780
 1.4570	14.1930
 1.4580	14.2100
 1.4590	14.2290
 1.4600	14.2510
 1.4610	14.2730
 1.4620	14.2970
 1.4630	14.3260
 1.4640	14.3560
 1.4650	14.3900
 1.4660	14.4290
 1.4670	14.4680
 1.4680	14.5130
 1.4690	14.5610
 1.4700	14.6140
 1.4710	14.6720
 1.4720	14.7320
 1.4730	14.7940
 1.4740	14.8570
 1.4750	14.9280
 1.4760	15.0030
 1.4770	15.0780
 1.4780	15.1570
 1.4790	15.2350
 1.4800	15.3120
 1.4810	15.3940
 1.4820	15.4750
 1.4830	15.5550
 1.4840	15.6410
 1.4850	15.7290
 1.4860	15.8140
 1.4870	15.9010
 1.4880	15.9890
 1.4890	16.0790
 1.4900	16.1690
 1.4910	16.2610
 1.4920	16.3540
 1.4930	16.4480
 1.4940	16.5420
 1.4950	16.6390
 1.4960	16.7340
 1.4970	16.8270
 1.4980	16.9220
 1.4990	17.0170
 1.5000	17.1130
 1.5010	17.2090
 1.5020	17.3030
 1.5030	17.3960
 1.5040	17.4920
 1.5050	17.5880
 1.5060	17.6850
 1.5070	17.7860
 1.5080	17.8830
 1.5090	17.9790
 1.5100	18.0750
 1.5110	18.1650
 1.5120	18.2590
 1.5130	18.3520
 1.5140	18.4430
 1.5150	18.5370
 1.5160	18.6300
 1.5170	18.7200
 1.5180	18.8110
 1.5190	18.9010
 1.5200	18.9880
 1.5210	19.0760
 1.5220	19.1640
 1.5230	19.2490
 1.5240	19.3400
 1.5250	19.4310
 1.5260	19.5190
 1.5270	19.6090
 1.5280	19.6940
 1.5290	19.7750
 1.5300	19.8580
 1.5310	19.9370
 1.5320	20.0180
 1.5330	20.1000
 1.5340	20.1830
 1.5350	20.2640
 1.5360	20.3460
 1.5370	20.4270
 1.5380	20.5080
 1.5390	20.5890
 1.5400	20.6650
 1.5410	20.7400
 1.5420	20.8140
 1.5430	20.8880
 1.5440	20.9650
 1.5450	21.0400
 1.5460	21.1160
 1.5470	21.1930
 1.5480	21.2620
 1.5490	21.3330
 1.5500	21.4060
 1.5510	21.4770
 1.5520	21.5500
 1.5530	21.6200
 1.5540	21.6850
 1.5550	21.7470
 1.5560	21.8120
 1.5570	21.8800
 1.5580	21.9500
 1.5590	22.0160
 1.5600	22.0850
 1.5610	22.1530
 1.5620	22.2190
 1.5630	22.2880
 1.5640	22.3560
 1.5650	22.4170
 1.5660	22.4760
 1.5670	22.5350
 1.5680	22.5950
 1.5690	22.6580
 1.5700	22.7220
 1.5710	22.7870
 1.5720	22.8460
 1.5730	22.9030
 1.5740	22.9620
 1.5750	23.0160
 1.5760	23.0730
 1.5770	23.1330
 1.5780	23.1930
 1.5790	23.2540
 1.5800	23.3140
 1.5810	23.3730
 1.5820	23.4330
 1.5830	23.4940
 1.5840	23.5540
 1.5850	23.6120
 1.5860	23.6680
 1.5870	23.7250
 1.5880	23.7890
 1.5890	23.8530
 1.5900	23.9170
 1.5910	23.9790
 1.5920	24.0350
 1.5930	24.0890
 1.5940	24.1450
 1.5950	24.1990
 1.5960	24.2530
 1.5970	24.3080
 1.5980	24.3590
 1.5990	24.4130
 1.6000	24.4660
 1.6010	24.5190
 1.6020	24.5750
 1.6030	24.6290
 1.6040	24.6840
 1.6050	24.7400
 1.6060	24.7900
 1.6070	24.8380
 1.6080	24.8900
 1.6090	24.9400
 1.6100	24.9920
 1.6110	25.0470
 1.6120	25.0930
 1.6130	25.1350
 1.6140	25.1790
 1.6150	25.2200
 1.6160	25.2630
 1.6170	25.3080
 1.6180	25.3560
 1.6190	25.4040
 1.6200	25.4500
 1.6210	25.4920
 1.6220	25.5320
 1.6230	25.5710
 1.6240	25.6070
 1.6250	25.6470
 1.6260	25.6840
 1.6270	25.7150
 1.6280	25.7500
 1.6290	25.7790
 1.6300	25.8010
 1.6310	25.8290
 1.6320	25.8600
 1.6330	25.8840
 1.6340	25.9090
 1.6350	25.9310
 1.6360	25.9460
 1.6370	25.9620
 1.6380	25.9800
 1.6390	25.9860
 1.6400	25.9850
 1.6410	25.9800
 1.6420	25.9650
 1.6430	25.9520
 1.6440	25.9380
 1.6450	25.9180
 1.6460	25.8980
 1.6470	25.8700
 1.6480	25.8390
 1.6490	25.8070
 1.6500	25.7740
 1.6510	25.7390
 1.6520	25.7000
 1.6530	25.6600
 1.6540	25.6160
 1.6550	25.5720
 1.6560	25.5330
 1.6570	25.5000
 1.6580	25.4680
 1.6590	25.4420
 1.6600	25.4240
 1.6610	25.4050
 1.6620	25.3910
 1.6630	25.3860
 1.6640	25.3880
 1.6650	25.3960
 1.6660	25.4150
 1.6670	25.4420
 1.6680	25.4640
 1.6690	25.4900
 1.6700	25.5180
 1.6710	25.5420
 1.6720	25.5710
 1.6730	25.6010
 1.6740	25.6220
 1.6750	25.6410
 1.6760	25.6590
 1.6770	25.6690
 1.6780	25.6750
 1.6790	25.6760
 1.6800	25.6710
 1.6810	25.6620
 1.6820	25.6490
 1.6830	25.6280
 1.6840	25.5990
 1.6850	25.5570
 1.6860	25.5130
 1.6870	25.4670
 1.6880	25.4180
 1.6890	25.3670
 1.6900	25.3140
 1.6910	25.2560
 1.6920	25.1990
 1.6930	25.1410
 1.6940	25.0840
 1.6950	25.0250
 1.6960	24.9680
 1.6970	24.9140
 1.6980	24.8560
 1.6990	24.7950
 1.7000	24.7360
 1.7010	24.6730
 1.7020	24.6120
 1.7030	24.5530
 1.7040	24.4930
 1.7050	24.4330
 1.7060	24.3670
 1.7070	24.2970
 1.7080	24.2280
 1.7090	24.1550
 1.7100	24.0850
 1.7110	24.0150
 1.7120	23.9500
 1.7130	23.8840
 1.7140	23.8190
 1.7150	23.7590
 1.7160	23.7030
 1.7170	23.6480
 1.7180	23.5970
 1.7190	23.5520
 1.7200	23.5100
 1.7210	23.4680
 1.7220	23.4330
 1.7230	23.4010
 1.7240	23.3660
 1.7250	23.3350
 1.7260	23.3060
 1.7270	23.2810
 1.7280	23.2540
 1.7290	23.2310
 1.7300	23.2140
 1.7310	23.1990
 1.7320	23.1910
 1.7330	23.1830
 1.7340	23.1780
 1.7350	23.1700
 1.7360	23.1620
 1.7370	23.1520
 1.7380	23.1400
 1.7390	23.1220
 1.7400	23.1030
 1.7410	23.0790
 1.7420	23.0500
 1.7430	23.0160
 1.7440	22.9780
 1.7450	22.9370
 1.7460	22.8880
 1.7470	22.8420
 1.7480	22.7960
 1.7490	22.7490
 1.7500	22.7010
 1.7510	22.6540
 1.7520	22.6060
 1.7530	22.5590
 1.7540	22.5130
 1.7550	22.4610
 1.7560	22.4150
 1.7570	22.3720
 1.7580	22.3250
 1.7590	22.2830
 1.7600	22.2430
 1.7610	22.2020
 1.7620	22.1670
 1.7630	22.1380
 1.7640	22.1120
 1.7650	22.0940
 1.7660	22.0730
 1.7670	22.0540
 1.7680	22.0350
 1.7690	22.0130
 1.7700	21.9960
 1.7710	21.9840
 1.7720	21.9670
 1.7730	21.9470
 1.7740	21.9280
 1.7750	21.9070
 1.7760	21.8870
 1.7770	21.8680
 1.7780	21.8540
 1.7790	21.8420
 1.7800	21.8340
 1.7810	21.8340
 1.7820	21.8330
 1.7830	21.8320
 1.7840	21.8350
 1.7850	21.8410
 1.7860	21.8450
 1.7870	21.8480
 1.7880	21.8540
 1.7890	21.8620
 1.7900	21.8680
 1.7910	21.8730
 1.7920	21.8750
 1.7930	21.8760
 1.7940	21.8730
 1.7950	21.8780
 1.7960	21.8900
 1.7970	21.8990
 1.7980	21.9170
 1.7990	21.9280
 1.8000	21.9310
 1.8010	21.9430
 1.8020	21.9590
 1.8030	21.9750
 1.8040	21.9980
 1.8050	22.0140
 1.8060	22.0250
 1.8070	22.0360
 1.8080	22.0400
 1.8090	22.0480
 1.8100	22.0540
 1.8110	22.0670
 1.8120	22.0830
 1.8130	22.1010
 1.8140	22.1150
 1.8150	22.1230
 1.8160	22.1300
 1.8170	22.1420
 1.8180	22.1530
 1.8190	22.1650
 1.8200	22.1800
 1.8210	22.2050
 1.8220	22.2160
 1.8230	22.2210
 1.8240	22.2250
 1.8250	22.2150
 1.8260	22.2150
 1.8270	22.2100
 1.8280	22.2060
 1.8290	22.2020
 1.8300	22.1980
 1.8310	22.1930
 1.8320	22.1890
 1.8330	22.1850
 1.8340	22.1810
 1.8350	22.1810
 1.8360	22.1540
 1.8370	22.1360
 1.8380	22.1080
 1.8390	22.0750
 1.8400	22.0370
 1.8410	21.9980
 1.8420	21.9550
 1.8430	21.9070
 1.8440	21.8500
 1.8450	21.8050
 1.8460	21.7470
 1.8470	21.6790
 1.8480	21.6110
 1.8490	21.5250
 1.8500	21.4350
 1.8510	21.3360
 1.8520	21.2300
 1.8530	21.1140
 1.8540	20.9880
 1.8550	20.8500
 1.8560	20.6990
 1.8570	20.5290
 1.8580	20.3610
 1.8590	20.1810
 1.8600	19.9910
 1.8610	19.7860
 1.8620	19.5760
 1.8630	19.3500
 1.8640	19.1180
 1.8650	18.8680
 1.8660	18.6020
 1.8670	18.3280
 1.8680	18.0370
 1.8690	17.7350
 1.8700	17.4230
 1.8710	17.1020
 1.8720	16.7720
 1.8730	16.4340
 1.8740	16.0880
 1.8750	15.7370
 1.8760	15.3800
 1.8770	15.0220
 1.8780	14.6630
 1.8790	14.3010
 1.8800	13.9490
 1.8810	13.5990
 1.8820	13.2530
 1.8830	12.9100
 1.8840	12.5780
 1.8850	12.2480
 1.8860	11.9250
 1.8870	11.6190
 1.8880	11.3270
 1.8890	11.0490
 1.8900	10.7860
 1.8910	10.5340
 1.8920	10.2950
 1.8930	10.0590
 1.8940	 9.8390
 1.8950	 9.6410
 1.8960	 9.4550
 1.8970	 9.2860
 1.8980	 9.1310
 1.8990	 8.9830
 1.9000	 8.8440
 1.9010	 8.7060
 1.9020	 8.5930
 1.9030	 8.5000
 1.9040	 8.4080
 1.9050	 8.3320
 1.9060	 8.2630
 1.9070	 8.1940
 1.9080	 8.1370
 1.9090	 8.0800
 1.9100	 8.0280
 1.9110	 7.9800
 1.9120	 7.9300
 1.9130	 7.8890
 1.9140	 7.8570
 1.9150	 7.8260
 1.9160	 7.7970
 1.9170	 7.7760
 1.9180	 7.7620
 1.9190	 7.7540
 1.9200	 7.7500
 1.9210	 7.7450
 1.9220	 7.7420
 1.9230	 7.7390
 1.9240	 7.7360
 1.9250	 7.7330
 1.9260	 7.7340
 1.9270	 7.7360
 1.9280	 7.7340
 1.9290	 7.7250
 1.9300	 7.7130
 1.9310	 7.7090
 1.9320	 7.7050
 1.9330	 7.7120
 1.9340	 7.7380
 1.9350	 7.7530
 1.9360	 7.7680
 1.9370	 7.7820
 1.9380	 7.7930
 1.9390	 7.8040
 1.9400	 7.8200
 1.9410	 7.8370
 1.9420	 7.8520
 1.9430	 7.8660
 1.9440	 7.8820
 1.9450	 7.8920
 1.9460	 7.9130
 1.9470	 7.9430
 1.9480	 7.9670
 1.9490	 7.9920
 1.9500	 8.0230
 1.9510	 8.0380
 1.9520	 8.0530
 1.9530	 8.0740
 1.9540	 8.0870
 1.9550	 8.1100
 1.9560	 8.1450
 1.9570	 8.1720
 1.9580	 8.2010
 1.9590	 8.2280
 1.9600	 8.2490
 1.9610	 8.2750
 1.9620	 8.3040
 1.9630	 8.3350
 1.9640	 8.3640
 1.9650	 8.3960
 1.9660	 8.4220
 1.9670	 8.4440
 1.9680	 8.4680
 1.9690	 8.4880
 1.9700	 8.5130
 1.9710	 8.5400
 1.9720	 8.5690
 1.9730	 8.6000
 1.9740	 8.6350
 1.9750	 8.6690
 1.9760	 8.7080
 1.9770	 8.7430
 1.9780	 8.7790
 1.9790	 8.8160
 1.9800	 8.8540
 1.9810	 8.8870
 1.9820	 8.9180
 1.9830	 8.9520
 1.9840	 8.9840
 1.9850	 9.0170
 1.9860	 9.0520
 1.9870	 9.0880
 1.9880	 9.1220
 1.9890	 9.1560
 1.9900	 9.1920
 1.9910	 9.2280
 1.9920	 9.2650
 1.9930	 9.3030
 1.9940	 9.3400
 1.9950	 9.3790
 1.9960	 9.4160
 1.9970	 9.4530
 1.9980	 9.4900
 1.9990	 9.5260
 2.0000	 9.5640
 2.0010	 9.6090
 2.0020	 9.6500
 2.0030	 9.6930
 2.0040	 9.7400
 2.0050	 9.7770
 2.0060	 9.8050
 2.0070	 9.8420
 2.0080	 9.8780
 2.0090	 9.9120
 2.0100	 9.9510
 2.0110	 9.9820
 2.0120	10.0000
 2.0130	10.0240
 2.0140	10.0490
 2.0150	10.0830
 2.0160	10.1240
 2.0170	10.1610
 2.0180	10.1930
 2.0190	10.2200
 2.0200	10.2510
 2.0210	10.2790
 2.0220	10.3110
 2.0230	10.3530
 2.0240	10.3870
 2.0250	10.4200
 2.0260	10.4490
 2.0270	10.4690
 2.0280	10.4950
 2.0290	10.5140
 2.0300	10.5350
 2.0310	10.5650
 2.0320	10.6050
 2.0330	10.6330
 2.0340	10.6660
 2.0350	10.6880
 2.0360	10.6920
 2.0370	10.7070
 2.0380	10.7260
 2.0390	10.7430
 2.0400	10.7620
 2.0410	10.7830
 2.0420	10.8020
 2.0430	10.8210
 2.0440	10.8420
 2.0450	10.8670
 2.0460	10.8890
 2.0470	10.9120
 2.0480	10.9320
 2.0490	10.9560
 2.0500	10.9730
 2.0510	10.9830
 2.0520	10.9960
 2.0530	11.0090
 2.0540	11.0200
 2.0550	11.0300
 2.0560	11.0450
 2.0570	11.0540
 2.0580	11.0660
 2.0590	11.0780
 2.0600	11.0910
 2.0610	11.1030
 2.0620	11.1120
 2.0630	11.1250
 2.0640	11.1390
 2.0650	11.1560
 2.0660	11.1810
 2.0670	11.2000
 2.0680	11.2240
 2.0690	11.2400
 2.0700	11.2490
 2.0710	11.2600
 2.0720	11.2640
 2.0730	11.2730
 2.0740	11.2830
 2.0750	11.2930
 2.0760	11.3020
 2.0770	11.3090
 2.0780	11.3230
 2.0790	11.3420
 2.0800	11.3540
 2.0810	11.3680
 2.0820	11.3800
 2.0830	11.3820
 2.0840	11.3930
 2.0850	11.4090
 2.0860	11.4260
 2.0870	11.4460
 2.0880	11.4690
 2.0890	11.4850
 2.0900	11.5020
 2.0910	11.5150
 2.0920	11.5190
 2.0930	11.5290
 2.0940	11.5420
 2.0950	11.5510
 2.0960	11.5560
 2.0970	11.5660
 2.0980	11.5750
 2.0990	11.5870
 2.1000	11.6040
 2.1010	11.6200
 2.1020	11.6400
 2.1030	11.6540
 2.1040	11.6610
 2.1050	11.6750
 2.1060	11.6870
 2.1070	11.6940
 2.1080	11.7040
 2.1090	11.7180
 2.1100	11.7280
 2.1110	11.7350
 2.1120	11.7460
 2.1130	11.7590
 2.1140	11.7710
 2.1150	11.7900
 2.1160	11.7990
 2.1170	11.7980
 2.1180	11.8020
 2.1190	11.8000
 2.1200	11.8000
 2.1210	11.8000
 2.1220	11.8060
 2.1230	11.8150
 2.1240	11.8250
 2.1250	11.8380
 2.1260	11.8600
 2.1270	11.8760
 2.1280	11.8930
 2.1290	11.9040
 2.1300	11.9140
 2.1310	11.9190
 2.1320	11.9140
 2.1330	11.9180
 2.1340	11.9200
 2.1350	11.9280
 2.1360	11.9400
 2.1370	11.9580
 2.1380	11.9910
 2.1390	12.0120
 2.1400	12.0270
 2.1410	12.0510
 2.1420	12.0690
 2.1430	12.0760
 2.1440	12.0990
 2.1450	12.1370
 2.1460	12.1600
 2.1470	12.1830
 2.1480	12.2020
 2.1490	12.2100
 2.1500	12.2240
 2.1510	12.2380
 2.1520	12.2550
 2.1530	12.2710
 2.1540	12.2900
 2.1550	12.3110
 2.1560	12.3360
 2.1570	12.3700
 2.1580	12.3940
 2.1590	12.4120
 2.1600	12.4380
 2.1610	12.4570
 2.1620	12.4740
 2.1630	12.4960
 2.1640	12.5250
 2.1650	12.5480
 2.1660	12.5680
 2.1670	12.5910
 2.1680	12.6180
 2.1690	12.6360
 2.1700	12.6470
 2.1710	12.6660
 2.1720	12.6800
 2.1730	12.6990
 2.1740	12.7280
 2.1750	12.7530
 2.1760	12.7790
 2.1770	12.7990
 2.1780	12.8130
 2.1790	12.8310
 2.1800	12.8440
 2.1810	12.8580
 2.1820	12.8760
 2.1830	12.8930
 2.1840	12.9060
 2.1850	12.9140
 2.1860	12.9290
 2.1870	12.9400
 2.1880	12.9630
 2.1890	12.9970
 2.1900	13.0200
 2.1910	13.0460
 2.1920	13.0670
 2.1930	13.0730
 2.1940	13.0920
 2.1950	13.1240
 2.1960	13.1420
 2.1970	13.1540
 2.1980	13.1740
 2.1990	13.1910
 2.2000	13.2090
 2.2010	13.2390
 2.2020	13.2620
 2.2030	13.2800
 2.2040	13.2960
 2.2050	13.3060
 2.2060	13.3210
 2.2070	13.3420
 2.2080	13.3660
 2.2090	13.3810
 2.2100	13.4000
 2.2110	13.4120
 2.2120	13.4040
 2.2130	13.4190
 2.2140	13.4500
 2.2150	13.4670
 2.2160	13.4870
 2.2170	13.5010
 2.2180	13.5030
 2.2190	13.5100
 2.2200	13.5240
 2.2210	13.5220
 2.2220	13.5020
 2.2230	13.4980
 2.2240	13.4890
 2.2250	13.4890
 2.2260	13.5110
 2.2270	13.5180
 2.2280	13.5270
 2.2290	13.5220
 2.2300	13.5010
 2.2310	13.4850
 2.2320	13.4590
 2.2330	13.4350
 2.2340	13.4120
 2.2350	13.3870
 2.2360	13.3720
 2.2370	13.3590
 2.2380	13.3470
 2.2390	13.3470
 2.2400	13.3330
 2.2410	13.3170
 2.2420	13.2820
 2.2430	13.2320
 2.2440	13.1860
 2.2450	13.1220
 2.2460	13.0720
 2.2470	13.0350
 2.2480	12.9840
 2.2490	12.9240
 2.2500	12.8690
 2.2510	12.8070
 2.2520	12.7520
 2.2530	12.7060
 2.2540	12.6570
 2.2550	12.6120
 2.2560	12.5640
 2.2570	12.5110
 2.2580	12.4650
 2.2590	12.4270
 2.2600	12.3790
 2.2610	12.3270
 2.2620	12.2780
 2.2630	12.2270
 2.2640	12.1720
 2.2650	12.1330
 2.2660	12.0890
 2.2670	12.0440
 2.2680	11.9970
 2.2690	11.9480
 2.2700	11.8930
 2.2710	11.8520
 2.2720	11.8130
 2.2730	11.7770
 2.2740	11.7570
 2.2750	11.7220
 2.2760	11.6710
 2.2770	11.6400
 2.2780	11.6200
 2.2790	11.5900
 2.2800	11.5680
 2.2810	11.5370
 2.2820	11.4910
 2.2830	11.4510
 2.2840	11.4090
 2.2850	11.3720
 2.2860	11.3380
 2.2870	11.3020
 2.2880	11.2660
 2.2890	11.2320
 2.2900	11.1970
 2.2910	11.1570
 2.2920	11.1240
 2.2930	11.0810
 2.2940	11.0150
 2.2950	10.9670
 2.2960	10.9220
 2.2970	10.8810
 2.2980	10.8590
 2.2990	10.8260
 2.3000	10.7760
 2.3010	10.7180
 2.3020	10.6520
 2.3030	10.5930
 2.3040	10.5580
 2.3050	10.5240
 2.3060	10.5050
 2.3070	10.5000
 2.3080	10.4770
 2.3090	10.4590
 2.3100	10.4360
 2.3110	10.4190
 2.3120	10.4190
 2.3130	10.4440
 2.3140	10.4500
 2.3150	10.4570
 2.3160	10.4670
 2.3170	10.4730
 2.3180	10.4800
 2.3190	10.4950
 2.3200	10.5060
 2.3210	10.5120
 2.3220	10.5160
 2.3230	10.5240
 2.3240	10.5270
 2.3250	10.5150
 2.3260	10.5160
 2.3270	10.5250
 2.3280	10.5210
 2.3290	10.5240
 2.3300	10.5100
 2.3310	10.4830
 2.3320	10.4520
 2.3330	10.3970
 2.3340	10.3660
 2.3350	10.3390
 2.3360	10.3150
 2.3370	10.3030
 2.3380	10.2930
 2.3390	10.2820
 2.3400	10.2730
 2.3410	10.2790
 2.3420	10.2720
 2.3430	10.2540
 2.3440	10.2420
 2.3450	10.2350
 2.3460	10.2210
 2.3470	10.1950
 2.3480	10.1850
 2.3490	10.1760
 2.3500	10.1670
 2.3510	10.1820
 2.3520	10.1760
 2.3530	10.1530
 2.3540	10.1320
 2.3550	10.1140
 2.3560	10.1040
 2.3570	10.1140
 2.3580	10.1230
 2.3590	10.1130
 2.3600	10.0830
 2.3610	10.0540
 2.3620	10.0240
 2.3630	10.0120
 2.3640	10.0350
 2.3650	10.0460
 2.3660	10.0690
 2.3670	10.0850
 2.3680	10.0610
 2.3690	10.0510
 2.3700	10.0250
 2.3710	 9.9960
 2.3720	10.0040
 2.3730	 9.9940
 2.3740	 9.9680
 2.3750	 9.9820
 2.3760	 9.9710
 2.3770	 9.9200
 2.3780	 9.9050
 2.3790	 9.8580
 2.3800	 9.8010
 2.3810	 9.8060
 2.3820	 9.7960
 2.3830	 9.7810
 2.3840	 9.7850
 2.3850	 9.7940
 2.3860	 9.7930
 2.3870	 9.7810
 2.3880	 9.7570
 2.3890	 9.7150
 2.3900	 9.6940
 2.3910	 9.6920
 2.3920	 9.6790
 2.3930	 9.6700
 2.3940	 9.6450
 2.3950	 9.6080
 2.3960	 9.5810
 2.3970	 9.5580
 2.3980	 9.5240
 2.3990	 9.4840
 2.4000	 9.4550
 2.4010	 9.4150
 2.4020	 9.3900
 2.4030	 9.3930
 2.4040	 9.3930
 2.4050	 9.4000
 2.4060	 9.4130
 2.4070	 9.4000
 2.4080	 9.3670
 2.4090	 9.3590
 2.4100	 9.3600
 2.4110	 9.3490
 2.4120	 9.3600
 2.4130	 9.3620
 2.4140	 9.3280
 2.4150	 9.3180
 2.4160	 9.2860
 2.4170	 9.2160
 2.4180	 9.1960
 2.4190	 9.1860
 2.4200	 9.1820
 2.4210	 9.1860
 2.4220	 9.1520
 2.4230	 9.1190
 2.4240	 9.0950
 2.4250	 9.1150
 2.4260	 9.1330
 2.4270	 9.0840
 2.4280	 9.0580
 2.4290	 9.0390
 2.4300	 9.0020
 2.4310	 9.0140
 2.4320	 9.0060
 2.4330	 8.9580
 2.4340	 8.9560
 2.4350	 8.9250
 2.4360	 8.9030
 2.4370	 8.9290
 2.4380	 8.8840
 2.4390	 8.8590
 2.4400	 8.8730
 2.4410	 8.8610
 2.4420	 8.8430
 2.4430	 8.8560
 2.4440	 8.8690
 2.4450	 8.8350
 2.4460	 8.8210
 2.4470	 8.7820
 2.4480	 8.7170
 2.4490	 8.6870
 2.4500	 8.6280
 2.4510	 8.5860
 2.4520	 8.5750
 2.4530	 8.5240
 2.4540	 8.5120
 2.4550	 8.5280
 2.4560	 8.5000
 2.4570	 8.4800
 2.4580	 8.4860
 2.4590	 8.4650
 2.4600	 8.4600
 2.4610	 8.4550
 2.4620	 8.4260
 2.4630	 8.4820
 2.4640	 8.5090
 2.4650	 8.4720
 2.4660	 8.4320
 2.4670	 8.3270
 2.4680	 8.2300
 2.4690	 8.3130
 2.4700	 8.3610
 2.4710	 8.4500
 2.4720	 8.4840
 2.4730	 8.4660
 2.4740	 8.4500
 2.4750	 8.4150
 2.4760	 8.3800
 2.4770	 8.3410
 2.4780	 8.3270
 2.4790	 8.3440
 2.4800	 8.3340
 2.4810	 8.2520
 2.4820	 8.2030
 2.4830	 8.1880
 2.4840	 8.0920
 2.4850	 8.1990
 2.4860	 8.2480
 2.4870	 8.2130
 2.4880	 8.3300
 2.4890	 8.4220
 2.4900	 8.4030
 2.4910	 8.3520
 2.4920	 8.3090
 2.4930	 8.1670
 2.4940	 8.1850
 2.4950	 8.3020
 2.4960	 8.2500
 2.4970	 8.3150
 2.4980	 8.2430
 2.4990	 8.2190
 2.5000	 8.1950
