Name: Eucalyptus saligna
Type: vegetation
Class: Tree
Genus: Eucalyptus
Species: saligna
Sample No.: JPL224
Owner: JPL
Wavelength Range: VSWIR
Origin: 34.12476; -118.11474; WGS84
Collection Date: 10/3/2016
Description: Samples were collected at the Huntington Garden in San Marino California as part of a JPL Subcontract studying HyTES imagery. Samples were taken to JPL and processed within 48 hours of collection. The same leaves were processed in the Nicolet and then measured using the ASD.
Measurement: Bidirectional reflectance
First Column: X
Second Column: Y
X Units: Wavelength (micrometer)
Y Units: Reflectance (percentage)
First X Value: 0.35
Last X Value: 2.5
Number of X Values: 2151
Additional Information: vegetation.tree.eucalyptus.saligna.vswir.jpl224.jpl.asd.ancillary.txt

 0.3500	 6.0060
 0.3510	 6.1190
 0.3520	 6.1510
 0.3530	 6.1420
 0.3540	 6.1520
 0.3550	 6.0570
 0.3560	 6.0350
 0.3570	 6.0500
 0.3580	 5.9830
 0.3590	 6.0210
 0.3600	 6.0400
 0.3610	 6.0010
 0.3620	 6.0210
 0.3630	 5.9870
 0.3640	 5.9780
 0.3650	 6.0540
 0.3660	 6.0300
 0.3670	 6.0340
 0.3680	 6.0700
 0.3690	 6.0630
 0.3700	 6.0020
 0.3710	 5.9640
 0.3720	 5.9950
 0.3730	 6.0780
 0.3740	 6.0950
 0.3750	 6.0750
 0.3760	 6.0800
 0.3770	 6.0600
 0.3780	 6.0410
 0.3790	 6.0410
 0.3800	 6.0600
 0.3810	 6.0440
 0.3820	 6.0270
 0.3830	 6.0330
 0.3840	 6.0310
 0.3850	 6.0490
 0.3860	 6.0690
 0.3870	 6.0630
 0.3880	 6.0580
 0.3890	 6.0740
 0.3900	 6.1050
 0.3910	 6.1160
 0.3920	 6.1280
 0.3930	 6.1230
 0.3940	 6.1020
 0.3950	 6.1350
 0.3960	 6.1760
 0.3970	 6.1900
 0.3980	 6.1630
 0.3990	 6.1570
 0.4000	 6.1600
 0.4010	 6.1730
 0.4020	 6.2180
 0.4030	 6.2040
 0.4040	 6.1810
 0.4050	 6.2070
 0.4060	 6.2240
 0.4070	 6.2440
 0.4080	 6.2590
 0.4090	 6.2500
 0.4100	 6.2560
 0.4110	 6.2850
 0.4120	 6.3190
 0.4130	 6.3070
 0.4140	 6.3170
 0.4150	 6.3400
 0.4160	 6.3510
 0.4170	 6.3880
 0.4180	 6.4070
 0.4190	 6.4030
 0.4200	 6.4070
 0.4210	 6.4260
 0.4220	 6.4510
 0.4230	 6.4710
 0.4240	 6.4760
 0.4250	 6.4820
 0.4260	 6.4960
 0.4270	 6.5190
 0.4280	 6.5400
 0.4290	 6.5550
 0.4300	 6.5660
 0.4310	 6.5760
 0.4320	 6.5820
 0.4330	 6.5880
 0.4340	 6.5950
 0.4350	 6.6020
 0.4360	 6.6130
 0.4370	 6.6240
 0.4380	 6.6280
 0.4390	 6.6340
 0.4400	 6.6450
 0.4410	 6.6610
 0.4420	 6.6680
 0.4430	 6.6750
 0.4440	 6.6860
 0.4450	 6.7010
 0.4460	 6.7110
 0.4470	 6.7200
 0.4480	 6.7290
 0.4490	 6.7400
 0.4500	 6.7400
 0.4510	 6.7440
 0.4520	 6.7630
 0.4530	 6.7730
 0.4540	 6.7810
 0.4550	 6.7890
 0.4560	 6.7940
 0.4570	 6.7960
 0.4580	 6.7990
 0.4590	 6.8040
 0.4600	 6.8110
 0.4610	 6.8200
 0.4620	 6.8250
 0.4630	 6.8260
 0.4640	 6.8190
 0.4650	 6.8110
 0.4660	 6.8080
 0.4670	 6.8110
 0.4680	 6.8170
 0.4690	 6.8190
 0.4700	 6.8140
 0.4710	 6.8220
 0.4720	 6.8230
 0.4730	 6.8170
 0.4740	 6.8160
 0.4750	 6.8150
 0.4760	 6.8140
 0.4770	 6.8110
 0.4780	 6.8100
 0.4790	 6.8090
 0.4800	 6.8110
 0.4810	 6.8190
 0.4820	 6.8210
 0.4830	 6.8220
 0.4840	 6.8230
 0.4850	 6.8220
 0.4860	 6.8200
 0.4870	 6.8250
 0.4880	 6.8380
 0.4890	 6.8390
 0.4900	 6.8480
 0.4910	 6.8610
 0.4920	 6.8670
 0.4930	 6.8770
 0.4940	 6.8880
 0.4950	 6.8980
 0.4960	 6.9130
 0.4970	 6.9320
 0.4980	 6.9500
 0.4990	 6.9630
 0.5000	 6.9850
 0.5010	 7.0070
 0.5020	 7.0270
 0.5030	 7.0550
 0.5040	 7.0900
 0.5050	 7.1220
 0.5060	 7.1490
 0.5070	 7.1900
 0.5080	 7.2360
 0.5090	 7.2830
 0.5100	 7.3280
 0.5110	 7.3830
 0.5120	 7.4460
 0.5130	 7.5170
 0.5140	 7.5920
 0.5150	 7.6720
 0.5160	 7.7560
 0.5170	 7.8450
 0.5180	 7.9510
 0.5190	 8.0600
 0.5200	 8.1690
 0.5210	 8.2900
 0.5220	 8.4100
 0.5230	 8.5310
 0.5240	 8.6550
 0.5250	 8.7740
 0.5260	 8.8940
 0.5270	 9.0110
 0.5280	 9.1220
 0.5290	 9.2270
 0.5300	 9.3280
 0.5310	 9.4210
 0.5320	 9.5040
 0.5330	 9.5820
 0.5340	 9.6530
 0.5350	 9.7170
 0.5360	 9.7740
 0.5370	 9.8230
 0.5380	 9.8670
 0.5390	 9.9090
 0.5400	 9.9470
 0.5410	 9.9820
 0.5420	10.0160
 0.5430	10.0490
 0.5440	10.0750
 0.5450	10.0950
 0.5460	10.1160
 0.5470	10.1350
 0.5480	10.1500
 0.5490	10.1610
 0.5500	10.1720
 0.5510	10.1770
 0.5520	10.1750
 0.5530	10.1660
 0.5540	10.1520
 0.5550	10.1290
 0.5560	10.0960
 0.5570	10.0560
 0.5580	10.0060
 0.5590	 9.9530
 0.5600	 9.8970
 0.5610	 9.8370
 0.5620	 9.7740
 0.5630	 9.7050
 0.5640	 9.6270
 0.5650	 9.5500
 0.5660	 9.4710
 0.5670	 9.3860
 0.5680	 9.3010
 0.5690	 9.2140
 0.5700	 9.1270
 0.5710	 9.0410
 0.5720	 8.9580
 0.5730	 8.8780
 0.5740	 8.8040
 0.5750	 8.7400
 0.5760	 8.6810
 0.5770	 8.6260
 0.5780	 8.5750
 0.5790	 8.5280
 0.5800	 8.4840
 0.5810	 8.4410
 0.5820	 8.3990
 0.5830	 8.3560
 0.5840	 8.3170
 0.5850	 8.2830
 0.5860	 8.2500
 0.5870	 8.2180
 0.5880	 8.1890
 0.5890	 8.1640
 0.5900	 8.1450
 0.5910	 8.1290
 0.5920	 8.1120
 0.5930	 8.0960
 0.5940	 8.0790
 0.5950	 8.0650
 0.5960	 8.0560
 0.5970	 8.0460
 0.5980	 8.0350
 0.5990	 8.0230
 0.6000	 8.0100
 0.6010	 7.9920
 0.6020	 7.9720
 0.6030	 7.9500
 0.6040	 7.9220
 0.6050	 7.8970
 0.6060	 7.8710
 0.6070	 7.8390
 0.6080	 7.8080
 0.6090	 7.7720
 0.6100	 7.7350
 0.6110	 7.7010
 0.6120	 7.6680
 0.6130	 7.6330
 0.6140	 7.5970
 0.6150	 7.5640
 0.6160	 7.5340
 0.6170	 7.5040
 0.6180	 7.4710
 0.6190	 7.4470
 0.6200	 7.4260
 0.6210	 7.4050
 0.6220	 7.3840
 0.6230	 7.3670
 0.6240	 7.3540
 0.6250	 7.3420
 0.6260	 7.3310
 0.6270	 7.3220
 0.6280	 7.3170
 0.6290	 7.3130
 0.6300	 7.3070
 0.6310	 7.2990
 0.6320	 7.2930
 0.6330	 7.2870
 0.6340	 7.2740
 0.6350	 7.2570
 0.6360	 7.2400
 0.6370	 7.2190
 0.6380	 7.1960
 0.6390	 7.1700
 0.6400	 7.1400
 0.6410	 7.1100
 0.6420	 7.0800
 0.6430	 7.0490
 0.6440	 7.0160
 0.6450	 6.9860
 0.6460	 6.9580
 0.6470	 6.9300
 0.6480	 6.9020
 0.6490	 6.8810
 0.6500	 6.8660
 0.6510	 6.8520
 0.6520	 6.8430
 0.6530	 6.8350
 0.6540	 6.8240
 0.6550	 6.8130
 0.6560	 6.8020
 0.6570	 6.7900
 0.6580	 6.7760
 0.6590	 6.7600
 0.6600	 6.7440
 0.6610	 6.7280
 0.6620	 6.7120
 0.6630	 6.6980
 0.6640	 6.6860
 0.6650	 6.6760
 0.6660	 6.6740
 0.6670	 6.6730
 0.6680	 6.6740
 0.6690	 6.6790
 0.6700	 6.6900
 0.6710	 6.7070
 0.6720	 6.7290
 0.6730	 6.7530
 0.6740	 6.7790
 0.6750	 6.8090
 0.6760	 6.8440
 0.6770	 6.8820
 0.6780	 6.9270
 0.6790	 6.9770
 0.6800	 7.0280
 0.6810	 7.0840
 0.6820	 7.1440
 0.6830	 7.2080
 0.6840	 7.2700
 0.6850	 7.3330
 0.6860	 7.3970
 0.6870	 7.4670
 0.6880	 7.5430
 0.6890	 7.6310
 0.6900	 7.7350
 0.6910	 7.8620
 0.6920	 8.0220
 0.6930	 8.2170
 0.6940	 8.4510
 0.6950	 8.7340
 0.6960	 9.0670
 0.6970	 9.4520
 0.6980	 9.8930
 0.6990	10.3850
 0.7000	10.9240
 0.7010	11.5080
 0.7020	12.1340
 0.7030	12.8010
 0.7040	13.5000
 0.7050	14.2260
 0.7060	14.9780
 0.7070	15.7530
 0.7080	16.5490
 0.7090	17.3630
 0.7100	18.1920
 0.7110	19.0390
 0.7120	19.9010
 0.7130	20.7770
 0.7140	21.6620
 0.7150	22.5560
 0.7160	23.4530
 0.7170	24.3560
 0.7180	25.2590
 0.7190	26.1610
 0.7200	27.0580
 0.7210	27.9420
 0.7220	28.8140
 0.7230	29.6700
 0.7240	30.5100
 0.7250	31.3290
 0.7260	32.1220
 0.7270	32.8870
 0.7280	33.6260
 0.7290	34.3350
 0.7300	35.0130
 0.7310	35.6620
 0.7320	36.2780
 0.7330	36.8620
 0.7340	37.4130
 0.7350	37.9320
 0.7360	38.4180
 0.7370	38.8740
 0.7380	39.3020
 0.7390	39.7010
 0.7400	40.0700
 0.7410	40.4090
 0.7420	40.7240
 0.7430	41.0150
 0.7440	41.2780
 0.7450	41.5160
 0.7460	41.7280
 0.7470	41.9210
 0.7480	42.0930
 0.7490	42.2450
 0.7500	42.3810
 0.7510	42.5050
 0.7520	42.6160
 0.7530	42.7120
 0.7540	42.7970
 0.7550	42.8740
 0.7560	42.9420
 0.7570	43.0020
 0.7580	43.0560
 0.7590	43.1030
 0.7600	43.1420
 0.7610	43.1770
 0.7620	43.2060
 0.7630	43.2320
 0.7640	43.2550
 0.7650	43.2700
 0.7660	43.2830
 0.7670	43.2930
 0.7680	43.2990
 0.7690	43.3080
 0.7700	43.3160
 0.7710	43.3190
 0.7720	43.3200
 0.7730	43.3220
 0.7740	43.3250
 0.7750	43.3270
 0.7760	43.3280
 0.7770	43.3290
 0.7780	43.3320
 0.7790	43.3340
 0.7800	43.3370
 0.7810	43.3400
 0.7820	43.3440
 0.7830	43.3470
 0.7840	43.3490
 0.7850	43.3510
 0.7860	43.3530
 0.7870	43.3540
 0.7880	43.3530
 0.7890	43.3520
 0.7900	43.3520
 0.7910	43.3520
 0.7920	43.3490
 0.7930	43.3450
 0.7940	43.3460
 0.7950	43.3450
 0.7960	43.3400
 0.7970	43.3320
 0.7980	43.3260
 0.7990	43.3200
 0.8000	43.3130
 0.8010	43.3050
 0.8020	43.2950
 0.8030	43.2870
 0.8040	43.2800
 0.8050	43.2710
 0.8060	43.2630
 0.8070	43.2500
 0.8080	43.2340
 0.8090	43.2220
 0.8100	43.2130
 0.8110	43.2030
 0.8120	43.1930
 0.8130	43.1780
 0.8140	43.1580
 0.8150	43.1390
 0.8160	43.1270
 0.8170	43.1160
 0.8180	43.1010
 0.8190	43.0850
 0.8200	43.0680
 0.8210	43.0520
 0.8220	43.0370
 0.8230	43.0230
 0.8240	43.0080
 0.8250	42.9940
 0.8260	42.9780
 0.8270	42.9610
 0.8280	42.9470
 0.8290	42.9310
 0.8300	42.9140
 0.8310	42.8960
 0.8320	42.8800
 0.8330	42.8650
 0.8340	42.8530
 0.8350	42.8410
 0.8360	42.8270
 0.8370	42.8130
 0.8380	42.8020
 0.8390	42.7940
 0.8400	42.7830
 0.8410	42.7730
 0.8420	42.7660
 0.8430	42.7640
 0.8440	42.7540
 0.8450	42.7420
 0.8460	42.7340
 0.8470	42.7300
 0.8480	42.7260
 0.8490	42.7200
 0.8500	42.7150
 0.8510	42.7090
 0.8520	42.7050
 0.8530	42.7040
 0.8540	42.7030
 0.8550	42.7000
 0.8560	42.6960
 0.8570	42.6940
 0.8580	42.6930
 0.8590	42.6930
 0.8600	42.6920
 0.8610	42.6900
 0.8620	42.6910
 0.8630	42.6930
 0.8640	42.6940
 0.8650	42.6950
 0.8660	42.6960
 0.8670	42.6990
 0.8680	42.7030
 0.8690	42.7050
 0.8700	42.7090
 0.8710	42.7150
 0.8720	42.7200
 0.8730	42.7220
 0.8740	42.7260
 0.8750	42.7300
 0.8760	42.7350
 0.8770	42.7430
 0.8780	42.7510
 0.8790	42.7560
 0.8800	42.7590
 0.8810	42.7640
 0.8820	42.7650
 0.8830	42.7690
 0.8840	42.7790
 0.8850	42.7870
 0.8860	42.7890
 0.8870	42.7890
 0.8880	42.7940
 0.8890	42.7980
 0.8900	42.8010
 0.8910	42.8050
 0.8920	42.8100
 0.8930	42.8180
 0.8940	42.8230
 0.8950	42.8250
 0.8960	42.8300
 0.8970	42.8320
 0.8980	42.8340
 0.8990	42.8390
 0.9000	42.8490
 0.9010	42.8550
 0.9020	42.8540
 0.9030	42.8500
 0.9040	42.8600
 0.9050	42.8640
 0.9060	42.8640
 0.9070	42.8650
 0.9080	42.8690
 0.9090	42.8710
 0.9100	42.8710
 0.9110	42.8690
 0.9120	42.8630
 0.9130	42.8650
 0.9140	42.8710
 0.9150	42.8710
 0.9160	42.8640
 0.9170	42.8710
 0.9180	42.8780
 0.9190	42.8670
 0.9200	42.8610
 0.9210	42.8560
 0.9220	42.8510
 0.9230	42.8490
 0.9240	42.8430
 0.9250	42.8330
 0.9260	42.8240
 0.9270	42.8180
 0.9280	42.8060
 0.9290	42.7900
 0.9300	42.7710
 0.9310	42.7520
 0.9320	42.7370
 0.9330	42.7250
 0.9340	42.7130
 0.9350	42.6930
 0.9360	42.6700
 0.9370	42.6480
 0.9380	42.6290
 0.9390	42.6130
 0.9400	42.5910
 0.9410	42.5660
 0.9420	42.5390
 0.9430	42.5070
 0.9440	42.4820
 0.9450	42.4530
 0.9460	42.4140
 0.9470	42.3780
 0.9480	42.3430
 0.9490	42.3060
 0.9500	42.2640
 0.9510	42.2200
 0.9520	42.1760
 0.9530	42.1290
 0.9540	42.0770
 0.9550	42.0230
 0.9560	41.9760
 0.9570	41.9320
 0.9580	41.8850
 0.9590	41.8450
 0.9600	41.8050
 0.9610	41.7700
 0.9620	41.7430
 0.9630	41.7100
 0.9640	41.6770
 0.9650	41.6470
 0.9660	41.6220
 0.9670	41.6010
 0.9680	41.5880
 0.9690	41.5740
 0.9700	41.5480
 0.9710	41.5210
 0.9720	41.5110
 0.9730	41.5070
 0.9740	41.4900
 0.9750	41.4760
 0.9760	41.4720
 0.9770	41.4660
 0.9780	41.4430
 0.9790	41.4290
 0.9800	41.4250
 0.9810	41.4270
 0.9820	41.4300
 0.9830	41.4310
 0.9840	41.4160
 0.9850	41.3950
 0.9860	41.3860
 0.9870	41.4010
 0.9880	41.4110
 0.9890	41.4150
 0.9900	41.4190
 0.9910	41.4000
 0.9920	41.4000
 0.9930	41.4100
 0.9940	41.4040
 0.9950	41.4100
 0.9960	41.4250
 0.9970	41.4400
 0.9980	41.4470
 0.9990	41.4460
 1.0000	41.4490
 1.0010	41.8640
 1.0020	41.8750
 1.0030	41.8840
 1.0040	41.8910
 1.0050	41.9020
 1.0060	41.9120
 1.0070	41.9180
 1.0080	41.9260
 1.0090	41.9340
 1.0100	41.9430
 1.0110	41.9540
 1.0120	41.9630
 1.0130	41.9680
 1.0140	41.9770
 1.0150	41.9890
 1.0160	41.9990
 1.0170	42.0070
 1.0180	42.0180
 1.0190	42.0280
 1.0200	42.0340
 1.0210	42.0450
 1.0220	42.0610
 1.0230	42.0720
 1.0240	42.0790
 1.0250	42.0900
 1.0260	42.1000
 1.0270	42.1100
 1.0280	42.1230
 1.0290	42.1330
 1.0300	42.1410
 1.0310	42.1500
 1.0320	42.1610
 1.0330	42.1680
 1.0340	42.1740
 1.0350	42.1800
 1.0360	42.1850
 1.0370	42.1930
 1.0380	42.2010
 1.0390	42.2120
 1.0400	42.2190
 1.0410	42.2250
 1.0420	42.2300
 1.0430	42.2320
 1.0440	42.2370
 1.0450	42.2450
 1.0460	42.2510
 1.0470	42.2560
 1.0480	42.2630
 1.0490	42.2710
 1.0500	42.2770
 1.0510	42.2830
 1.0520	42.2880
 1.0530	42.2930
 1.0540	42.2940
 1.0550	42.2970
 1.0560	42.2990
 1.0570	42.3010
 1.0580	42.3020
 1.0590	42.3040
 1.0600	42.3070
 1.0610	42.3080
 1.0620	42.3060
 1.0630	42.3060
 1.0640	42.3080
 1.0650	42.3090
 1.0660	42.3120
 1.0670	42.3130
 1.0680	42.3130
 1.0690	42.3110
 1.0700	42.3110
 1.0710	42.3120
 1.0720	42.3100
 1.0730	42.3080
 1.0740	42.3050
 1.0750	42.3010
 1.0760	42.2970
 1.0770	42.2950
 1.0780	42.2910
 1.0790	42.2850
 1.0800	42.2820
 1.0810	42.2770
 1.0820	42.2750
 1.0830	42.2770
 1.0840	42.2750
 1.0850	42.2750
 1.0860	42.2730
 1.0870	42.2680
 1.0880	42.2600
 1.0890	42.2540
 1.0900	42.2470
 1.0910	42.2410
 1.0920	42.2370
 1.0930	42.2310
 1.0940	42.2270
 1.0950	42.2200
 1.0960	42.2120
 1.0970	42.2040
 1.0980	42.1950
 1.0990	42.1870
 1.1000	42.1810
 1.1010	42.1730
 1.1020	42.1640
 1.1030	42.1550
 1.1040	42.1480
 1.1050	42.1380
 1.1060	42.1280
 1.1070	42.1180
 1.1080	42.1080
 1.1090	42.0960
 1.1100	42.0860
 1.1110	42.0800
 1.1120	42.0690
 1.1130	42.0580
 1.1140	42.0450
 1.1150	42.0310
 1.1160	42.0150
 1.1170	41.9970
 1.1180	41.9790
 1.1190	41.9600
 1.1200	41.9400
 1.1210	41.9190
 1.1220	41.8970
 1.1230	41.8710
 1.1240	41.8420
 1.1250	41.8100
 1.1260	41.7760
 1.1270	41.7360
 1.1280	41.6940
 1.1290	41.6470
 1.1300	41.5950
 1.1310	41.5390
 1.1320	41.4800
 1.1330	41.4150
 1.1340	41.3430
 1.1350	41.2690
 1.1360	41.1900
 1.1370	41.1070
 1.1380	41.0200
 1.1390	40.9290
 1.1400	40.8330
 1.1410	40.7370
 1.1420	40.6380
 1.1430	40.5360
 1.1440	40.4350
 1.1450	40.3330
 1.1460	40.2320
 1.1470	40.1290
 1.1480	40.0320
 1.1490	39.9350
 1.1500	39.8450
 1.1510	39.7590
 1.1520	39.6780
 1.1530	39.6010
 1.1540	39.5290
 1.1550	39.4640
 1.1560	39.4030
 1.1570	39.3460
 1.1580	39.2920
 1.1590	39.2440
 1.1600	39.2000
 1.1610	39.1590
 1.1620	39.1220
 1.1630	39.0870
 1.1640	39.0540
 1.1650	39.0240
 1.1660	38.9980
 1.1670	38.9730
 1.1680	38.9510
 1.1690	38.9280
 1.1700	38.9060
 1.1710	38.8850
 1.1720	38.8640
 1.1730	38.8430
 1.1740	38.8240
 1.1750	38.8050
 1.1760	38.7860
 1.1770	38.7630
 1.1780	38.7410
 1.1790	38.7210
 1.1800	38.7010
 1.1810	38.6800
 1.1820	38.6590
 1.1830	38.6360
 1.1840	38.6140
 1.1850	38.5930
 1.1860	38.5730
 1.1870	38.5540
 1.1880	38.5370
 1.1890	38.5220
 1.1900	38.5090
 1.1910	38.4990
 1.1920	38.4890
 1.1930	38.4800
 1.1940	38.4720
 1.1950	38.4650
 1.1960	38.4610
 1.1970	38.4560
 1.1980	38.4540
 1.1990	38.4540
 1.2000	38.4550
 1.2010	38.4590
 1.2020	38.4640
 1.2030	38.4700
 1.2040	38.4770
 1.2050	38.4830
 1.2060	38.4890
 1.2070	38.4970
 1.2080	38.5080
 1.2090	38.5210
 1.2100	38.5360
 1.2110	38.5500
 1.2120	38.5630
 1.2130	38.5790
 1.2140	38.5960
 1.2150	38.6130
 1.2160	38.6320
 1.2170	38.6520
 1.2180	38.6710
 1.2190	38.6890
 1.2200	38.7080
 1.2210	38.7300
 1.2220	38.7530
 1.2230	38.7730
 1.2240	38.7940
 1.2250	38.8160
 1.2260	38.8360
 1.2270	38.8580
 1.2280	38.8790
 1.2290	38.8970
 1.2300	38.9140
 1.2310	38.9300
 1.2320	38.9460
 1.2330	38.9610
 1.2340	38.9750
 1.2350	38.9880
 1.2360	39.0010
 1.2370	39.0130
 1.2380	39.0260
 1.2390	39.0400
 1.2400	39.0510
 1.2410	39.0630
 1.2420	39.0740
 1.2430	39.0820
 1.2440	39.0910
 1.2450	39.1010
 1.2460	39.1090
 1.2470	39.1170
 1.2480	39.1230
 1.2490	39.1300
 1.2500	39.1370
 1.2510	39.1420
 1.2520	39.1490
 1.2530	39.1550
 1.2540	39.1590
 1.2550	39.1650
 1.2560	39.1690
 1.2570	39.1720
 1.2580	39.1750
 1.2590	39.1760
 1.2600	39.1760
 1.2610	39.1760
 1.2620	39.1760
 1.2630	39.1740
 1.2640	39.1710
 1.2650	39.1670
 1.2660	39.1630
 1.2670	39.1580
 1.2680	39.1530
 1.2690	39.1470
 1.2700	39.1400
 1.2710	39.1340
 1.2720	39.1270
 1.2730	39.1190
 1.2740	39.1110
 1.2750	39.1020
 1.2760	39.0900
 1.2770	39.0780
 1.2780	39.0640
 1.2790	39.0500
 1.2800	39.0360
 1.2810	39.0180
 1.2820	39.0010
 1.2830	38.9840
 1.2840	38.9620
 1.2850	38.9420
 1.2860	38.9210
 1.2870	38.8980
 1.2880	38.8710
 1.2890	38.8460
 1.2900	38.8190
 1.2910	38.7880
 1.2920	38.7580
 1.2930	38.7260
 1.2940	38.6920
 1.2950	38.6570
 1.2960	38.6200
 1.2970	38.5810
 1.2980	38.5390
 1.2990	38.4970
 1.3000	38.4550
 1.3010	38.4100
 1.3020	38.3640
 1.3030	38.3150
 1.3040	38.2620
 1.3050	38.2110
 1.3060	38.1610
 1.3070	38.1080
 1.3080	38.0540
 1.3090	37.9970
 1.3100	37.9350
 1.3110	37.8720
 1.3120	37.8080
 1.3130	37.7410
 1.3140	37.6720
 1.3150	37.6010
 1.3160	37.5280
 1.3170	37.4530
 1.3180	37.3760
 1.3190	37.2960
 1.3200	37.2180
 1.3210	37.1370
 1.3220	37.0520
 1.3230	36.9680
 1.3240	36.8800
 1.3250	36.7910
 1.3260	36.7020
 1.3270	36.6080
 1.3280	36.5130
 1.3290	36.4170
 1.3300	36.3160
 1.3310	36.2140
 1.3320	36.1110
 1.3330	36.0080
 1.3340	35.9040
 1.3350	35.7990
 1.3360	35.6940
 1.3370	35.5880
 1.3380	35.4820
 1.3390	35.3770
 1.3400	35.2720
 1.3410	35.1670
 1.3420	35.0620
 1.3430	34.9580
 1.3440	34.8550
 1.3450	34.7520
 1.3460	34.6510
 1.3470	34.5500
 1.3480	34.4490
 1.3490	34.3490
 1.3500	34.2510
 1.3510	34.1530
 1.3520	34.0550
 1.3530	33.9580
 1.3540	33.8610
 1.3550	33.7620
 1.3560	33.6620
 1.3570	33.5620
 1.3580	33.4600
 1.3590	33.3570
 1.3600	33.2510
 1.3610	33.1430
 1.3620	33.0300
 1.3630	32.9150
 1.3640	32.7950
 1.3650	32.6680
 1.3660	32.5350
 1.3670	32.3940
 1.3680	32.2440
 1.3690	32.0870
 1.3700	31.9170
 1.3710	31.7380
 1.3720	31.5480
 1.3730	31.3410
 1.3740	31.1200
 1.3750	30.8840
 1.3760	30.6280
 1.3770	30.3530
 1.3780	30.0560
 1.3790	29.7400
 1.3800	29.4030
 1.3810	29.0430
 1.3820	28.6670
 1.3830	28.2720
 1.3840	27.8590
 1.3850	27.4270
 1.3860	26.9800
 1.3870	26.5130
 1.3880	26.0390
 1.3890	25.5520
 1.3900	25.0550
 1.3910	24.5570
 1.3920	24.0510
 1.3930	23.5430
 1.3940	23.0350
 1.3950	22.5220
 1.3960	22.0180
 1.3970	21.5220
 1.3980	21.0340
 1.3990	20.5640
 1.4000	20.1060
 1.4010	19.6610
 1.4020	19.2340
 1.4030	18.8200
 1.4040	18.4240
 1.4050	18.0470
 1.4060	17.6880
 1.4070	17.3520
 1.4080	17.0330
 1.4090	16.7320
 1.4100	16.4500
 1.4110	16.1840
 1.4120	15.9360
 1.4130	15.7060
 1.4140	15.4900
 1.4150	15.2910
 1.4160	15.1050
 1.4170	14.9320
 1.4180	14.7720
 1.4190	14.6220
 1.4200	14.4830
 1.4210	14.3550
 1.4220	14.2360
 1.4230	14.1280
 1.4240	14.0270
 1.4250	13.9330
 1.4260	13.8480
 1.4270	13.7680
 1.4280	13.6950
 1.4290	13.6270
 1.4300	13.5660
 1.4310	13.5100
 1.4320	13.4600
 1.4330	13.4140
 1.4340	13.3730
 1.4350	13.3360
 1.4360	13.3020
 1.4370	13.2730
 1.4380	13.2470
 1.4390	13.2250
 1.4400	13.2060
 1.4410	13.1900
 1.4420	13.1760
 1.4430	13.1660
 1.4440	13.1570
 1.4450	13.1510
 1.4460	13.1470
 1.4470	13.1450
 1.4480	13.1450
 1.4490	13.1470
 1.4500	13.1510
 1.4510	13.1560
 1.4520	13.1630
 1.4530	13.1710
 1.4540	13.1820
 1.4550	13.1950
 1.4560	13.2100
 1.4570	13.2270
 1.4580	13.2470
 1.4590	13.2700
 1.4600	13.2970
 1.4610	13.3260
 1.4620	13.3600
 1.4630	13.3970
 1.4640	13.4390
 1.4650	13.4840
 1.4660	13.5330
 1.4670	13.5870
 1.4680	13.6450
 1.4690	13.7070
 1.4700	13.7730
 1.4710	13.8430
 1.4720	13.9170
 1.4730	13.9930
 1.4740	14.0740
 1.4750	14.1560
 1.4760	14.2420
 1.4770	14.3300
 1.4780	14.4200
 1.4790	14.5130
 1.4800	14.6060
 1.4810	14.7020
 1.4820	14.8000
 1.4830	14.8980
 1.4840	15.0000
 1.4850	15.1030
 1.4860	15.2060
 1.4870	15.3110
 1.4880	15.4140
 1.4890	15.5180
 1.4900	15.6240
 1.4910	15.7320
 1.4920	15.8400
 1.4930	15.9500
 1.4940	16.0600
 1.4950	16.1710
 1.4960	16.2810
 1.4970	16.3910
 1.4980	16.5020
 1.4990	16.6140
 1.5000	16.7260
 1.5010	16.8400
 1.5020	16.9530
 1.5030	17.0650
 1.5040	17.1780
 1.5050	17.2920
 1.5060	17.4060
 1.5070	17.5200
 1.5080	17.6330
 1.5090	17.7460
 1.5100	17.8590
 1.5110	17.9720
 1.5120	18.0860
 1.5130	18.1990
 1.5140	18.3110
 1.5150	18.4230
 1.5160	18.5330
 1.5170	18.6440
 1.5180	18.7560
 1.5190	18.8670
 1.5200	18.9780
 1.5210	19.0870
 1.5220	19.1940
 1.5230	19.3020
 1.5240	19.4100
 1.5250	19.5170
 1.5260	19.6230
 1.5270	19.7280
 1.5280	19.8330
 1.5290	19.9360
 1.5300	20.0400
 1.5310	20.1420
 1.5320	20.2420
 1.5330	20.3420
 1.5340	20.4430
 1.5350	20.5420
 1.5360	20.6420
 1.5370	20.7400
 1.5380	20.8370
 1.5390	20.9330
 1.5400	21.0270
 1.5410	21.1210
 1.5420	21.2140
 1.5430	21.3070
 1.5440	21.4000
 1.5450	21.4920
 1.5460	21.5820
 1.5470	21.6720
 1.5480	21.7620
 1.5490	21.8510
 1.5500	21.9390
 1.5510	22.0260
 1.5520	22.1120
 1.5530	22.1970
 1.5540	22.2810
 1.5550	22.3640
 1.5560	22.4450
 1.5570	22.5250
 1.5580	22.6040
 1.5590	22.6820
 1.5600	22.7600
 1.5610	22.8380
 1.5620	22.9130
 1.5630	22.9880
 1.5640	23.0640
 1.5650	23.1380
 1.5660	23.2080
 1.5670	23.2780
 1.5680	23.3480
 1.5690	23.4160
 1.5700	23.4850
 1.5710	23.5540
 1.5720	23.6210
 1.5730	23.6880
 1.5740	23.7550
 1.5750	23.8210
 1.5760	23.8860
 1.5770	23.9510
 1.5780	24.0140
 1.5790	24.0780
 1.5800	24.1400
 1.5810	24.2030
 1.5820	24.2650
 1.5830	24.3250
 1.5840	24.3850
 1.5850	24.4440
 1.5860	24.5030
 1.5870	24.5620
 1.5880	24.6200
 1.5890	24.6780
 1.5900	24.7350
 1.5910	24.7900
 1.5920	24.8460
 1.5930	24.9010
 1.5940	24.9560
 1.5950	25.0130
 1.5960	25.0670
 1.5970	25.1210
 1.5980	25.1730
 1.5990	25.2230
 1.6000	25.2740
 1.6010	25.3230
 1.6020	25.3720
 1.6030	25.4220
 1.6040	25.4690
 1.6050	25.5160
 1.6060	25.5640
 1.6070	25.6110
 1.6080	25.6560
 1.6090	25.7010
 1.6100	25.7450
 1.6110	25.7880
 1.6120	25.8310
 1.6130	25.8730
 1.6140	25.9120
 1.6150	25.9530
 1.6160	25.9930
 1.6170	26.0320
 1.6180	26.0710
 1.6190	26.1080
 1.6200	26.1440
 1.6210	26.1790
 1.6220	26.2130
 1.6230	26.2480
 1.6240	26.2810
 1.6250	26.3120
 1.6260	26.3440
 1.6270	26.3760
 1.6280	26.4070
 1.6290	26.4370
 1.6300	26.4650
 1.6310	26.4940
 1.6320	26.5210
 1.6330	26.5470
 1.6340	26.5730
 1.6350	26.5980
 1.6360	26.6210
 1.6370	26.6440
 1.6380	26.6670
 1.6390	26.6870
 1.6400	26.7060
 1.6410	26.7220
 1.6420	26.7370
 1.6430	26.7500
 1.6440	26.7620
 1.6450	26.7720
 1.6460	26.7800
 1.6470	26.7860
 1.6480	26.7900
 1.6490	26.7910
 1.6500	26.7910
 1.6510	26.7900
 1.6520	26.7880
 1.6530	26.7860
 1.6540	26.7840
 1.6550	26.7790
 1.6560	26.7740
 1.6570	26.7660
 1.6580	26.7560
 1.6590	26.7460
 1.6600	26.7380
 1.6610	26.7310
 1.6620	26.7220
 1.6630	26.7130
 1.6640	26.7030
 1.6650	26.6920
 1.6660	26.6820
 1.6670	26.6730
 1.6680	26.6620
 1.6690	26.6500
 1.6700	26.6380
 1.6710	26.6210
 1.6720	26.6020
 1.6730	26.5840
 1.6740	26.5620
 1.6750	26.5390
 1.6760	26.5130
 1.6770	26.4830
 1.6780	26.4520
 1.6790	26.4190
 1.6800	26.3840
 1.6810	26.3470
 1.6820	26.3060
 1.6830	26.2630
 1.6840	26.2200
 1.6850	26.1760
 1.6860	26.1320
 1.6870	26.0880
 1.6880	26.0440
 1.6890	25.9990
 1.6900	25.9550
 1.6910	25.9100
 1.6920	25.8670
 1.6930	25.8260
 1.6940	25.7840
 1.6950	25.7430
 1.6960	25.7010
 1.6970	25.6590
 1.6980	25.6170
 1.6990	25.5760
 1.7000	25.5330
 1.7010	25.4900
 1.7020	25.4470
 1.7030	25.4040
 1.7040	25.3630
 1.7050	25.3220
 1.7060	25.2820
 1.7070	25.2410
 1.7080	25.2010
 1.7090	25.1620
 1.7100	25.1220
 1.7110	25.0820
 1.7120	25.0420
 1.7130	25.0010
 1.7140	24.9590
 1.7150	24.9170
 1.7160	24.8740
 1.7170	24.8310
 1.7180	24.7880
 1.7190	24.7460
 1.7200	24.7050
 1.7210	24.6630
 1.7220	24.6230
 1.7230	24.5830
 1.7240	24.5400
 1.7250	24.4990
 1.7260	24.4610
 1.7270	24.4230
 1.7280	24.3890
 1.7290	24.3590
 1.7300	24.3300
 1.7310	24.3040
 1.7320	24.2800
 1.7330	24.2570
 1.7340	24.2370
 1.7350	24.2160
 1.7360	24.1970
 1.7370	24.1750
 1.7380	24.1530
 1.7390	24.1270
 1.7400	24.0980
 1.7410	24.0670
 1.7420	24.0350
 1.7430	23.9990
 1.7440	23.9620
 1.7450	23.9210
 1.7460	23.8750
 1.7470	23.8300
 1.7480	23.7810
 1.7490	23.7330
 1.7500	23.6840
 1.7510	23.6360
 1.7520	23.5870
 1.7530	23.5390
 1.7540	23.4910
 1.7550	23.4440
 1.7560	23.3970
 1.7570	23.3480
 1.7580	23.3050
 1.7590	23.2610
 1.7600	23.2160
 1.7610	23.1780
 1.7620	23.1400
 1.7630	23.1020
 1.7640	23.0670
 1.7650	23.0320
 1.7660	23.0010
 1.7670	22.9740
 1.7680	22.9480
 1.7690	22.9240
 1.7700	22.9010
 1.7710	22.8770
 1.7720	22.8540
 1.7730	22.8340
 1.7740	22.8130
 1.7750	22.7920
 1.7760	22.7730
 1.7770	22.7540
 1.7780	22.7360
 1.7790	22.7180
 1.7800	22.7030
 1.7810	22.6910
 1.7820	22.6770
 1.7830	22.6640
 1.7840	22.6530
 1.7850	22.6400
 1.7860	22.6300
 1.7870	22.6230
 1.7880	22.6140
 1.7890	22.6060
 1.7900	22.6020
 1.7910	22.5990
 1.7920	22.5990
 1.7930	22.5980
 1.7940	22.5960
 1.7950	22.5970
 1.7960	22.5990
 1.7970	22.6020
 1.7980	22.6060
 1.7990	22.6090
 1.8000	22.6110
 1.8010	22.6160
 1.8020	22.6240
 1.8030	22.6300
 1.8040	22.6370
 1.8050	22.6430
 1.8060	22.6480
 1.8070	22.6550
 1.8080	22.6630
 1.8090	22.6700
 1.8100	22.6760
 1.8110	22.6820
 1.8120	22.6870
 1.8130	22.6920
 1.8140	22.6950
 1.8150	22.6980
 1.8160	22.7010
 1.8170	22.7040
 1.8180	22.7060
 1.8190	22.7060
 1.8200	22.7060
 1.8210	22.7040
 1.8220	22.7020
 1.8230	22.7010
 1.8240	22.6990
 1.8250	22.6970
 1.8260	22.6920
 1.8270	22.6870
 1.8280	22.6780
 1.8290	22.6630
 1.8300	22.6520
 1.8310	22.5480
 1.8320	22.5290
 1.8330	22.5050
 1.8340	22.4740
 1.8350	22.4460
 1.8360	22.4170
 1.8370	22.3830
 1.8380	22.3440
 1.8390	22.2990
 1.8400	22.2470
 1.8410	22.1920
 1.8420	22.1320
 1.8430	22.0680
 1.8440	22.0020
 1.8450	21.9300
 1.8460	21.8480
 1.8470	21.7600
 1.8480	21.6670
 1.8490	21.5640
 1.8500	21.4500
 1.8510	21.3300
 1.8520	21.2010
 1.8530	21.0550
 1.8540	20.9020
 1.8550	20.7410
 1.8560	20.5620
 1.8570	20.3760
 1.8580	20.1770
 1.8590	19.9680
 1.8600	19.7470
 1.8610	19.5180
 1.8620	19.2730
 1.8630	19.0150
 1.8640	18.7400
 1.8650	18.4520
 1.8660	18.1520
 1.8670	17.8290
 1.8680	17.4940
 1.8690	17.1430
 1.8700	16.7780
 1.8710	16.3970
 1.8720	16.0100
 1.8730	15.6090
 1.8740	15.2010
 1.8750	14.7880
 1.8760	14.3690
 1.8770	13.9510
 1.8780	13.5320
 1.8790	13.1100
 1.8800	12.6960
 1.8810	12.2850
 1.8820	11.8780
 1.8830	11.4770
 1.8840	11.0870
 1.8850	10.7040
 1.8860	10.3320
 1.8870	 9.9750
 1.8880	 9.6290
 1.8890	 9.3000
 1.8900	 8.9890
 1.8910	 8.6960
 1.8920	 8.4190
 1.8930	 8.1600
 1.8940	 7.9210
 1.8950	 7.7040
 1.8960	 7.5000
 1.8970	 7.3140
 1.8980	 7.1460
 1.8990	 6.9920
 1.9000	 6.8540
 1.9010	 6.7370
 1.9020	 6.6260
 1.9030	 6.5260
 1.9040	 6.4370
 1.9050	 6.3570
 1.9060	 6.2840
 1.9070	 6.2220
 1.9080	 6.1670
 1.9090	 6.1150
 1.9100	 6.0720
 1.9110	 6.0350
 1.9120	 6.0050
 1.9130	 5.9780
 1.9140	 5.9580
 1.9150	 5.9400
 1.9160	 5.9220
 1.9170	 5.9060
 1.9180	 5.8930
 1.9190	 5.8790
 1.9200	 5.8670
 1.9210	 5.8570
 1.9220	 5.8490
 1.9230	 5.8410
 1.9240	 5.8370
 1.9250	 5.8380
 1.9260	 5.8390
 1.9270	 5.8410
 1.9280	 5.8410
 1.9290	 5.8390
 1.9300	 5.8390
 1.9310	 5.8390
 1.9320	 5.8420
 1.9330	 5.8460
 1.9340	 5.8510
 1.9350	 5.8570
 1.9360	 5.8640
 1.9370	 5.8730
 1.9380	 5.8820
 1.9390	 5.8950
 1.9400	 5.9070
 1.9410	 5.9220
 1.9420	 5.9360
 1.9430	 5.9480
 1.9440	 5.9620
 1.9450	 5.9770
 1.9460	 5.9910
 1.9470	 6.0040
 1.9480	 6.0190
 1.9490	 6.0340
 1.9500	 6.0490
 1.9510	 6.0650
 1.9520	 6.0820
 1.9530	 6.1020
 1.9540	 6.1230
 1.9550	 6.1440
 1.9560	 6.1690
 1.9570	 6.1930
 1.9580	 6.2160
 1.9590	 6.2400
 1.9600	 6.2650
 1.9610	 6.2880
 1.9620	 6.3120
 1.9630	 6.3370
 1.9640	 6.3630
 1.9650	 6.3880
 1.9660	 6.4140
 1.9670	 6.4400
 1.9680	 6.4680
 1.9690	 6.4950
 1.9700	 6.5250
 1.9710	 6.5570
 1.9720	 6.5890
 1.9730	 6.6230
 1.9740	 6.6560
 1.9750	 6.6880
 1.9760	 6.7220
 1.9770	 6.7560
 1.9780	 6.7900
 1.9790	 6.8240
 1.9800	 6.8580
 1.9810	 6.8940
 1.9820	 6.9310
 1.9830	 6.9690
 1.9840	 7.0100
 1.9850	 7.0510
 1.9860	 7.0920
 1.9870	 7.1340
 1.9880	 7.1770
 1.9890	 7.2190
 1.9900	 7.2610
 1.9910	 7.3010
 1.9920	 7.3420
 1.9930	 7.3830
 1.9940	 7.4250
 1.9950	 7.4690
 1.9960	 7.5130
 1.9970	 7.5570
 1.9980	 7.6030
 1.9990	 7.6500
 2.0000	 7.6960
 2.0010	 7.7420
 2.0020	 7.7900
 2.0030	 7.8370
 2.0040	 7.8870
 2.0050	 7.9330
 2.0060	 7.9790
 2.0070	 8.0250
 2.0080	 8.0690
 2.0090	 8.1150
 2.0100	 8.1630
 2.0110	 8.2100
 2.0120	 8.2580
 2.0130	 8.3060
 2.0140	 8.3560
 2.0150	 8.4030
 2.0160	 8.4510
 2.0170	 8.4970
 2.0180	 8.5430
 2.0190	 8.5880
 2.0200	 8.6340
 2.0210	 8.6810
 2.0220	 8.7270
 2.0230	 8.7730
 2.0240	 8.8190
 2.0250	 8.8650
 2.0260	 8.9110
 2.0270	 8.9570
 2.0280	 9.0020
 2.0290	 9.0450
 2.0300	 9.0870
 2.0310	 9.1290
 2.0320	 9.1680
 2.0330	 9.2110
 2.0340	 9.2560
 2.0350	 9.2990
 2.0360	 9.3480
 2.0370	 9.3890
 2.0380	 9.4240
 2.0390	 9.4620
 2.0400	 9.4970
 2.0410	 9.5340
 2.0420	 9.5720
 2.0430	 9.6150
 2.0440	 9.6570
 2.0450	 9.7000
 2.0460	 9.7390
 2.0470	 9.7790
 2.0480	 9.8140
 2.0490	 9.8400
 2.0500	 9.8750
 2.0510	 9.9100
 2.0520	 9.9460
 2.0530	 9.9860
 2.0540	10.0240
 2.0550	10.0590
 2.0560	10.0960
 2.0570	10.1340
 2.0580	10.1740
 2.0590	10.2150
 2.0600	10.2590
 2.0610	10.2990
 2.0620	10.3380
 2.0630	10.3760
 2.0640	10.4140
 2.0650	10.4520
 2.0660	10.4910
 2.0670	10.5280
 2.0680	10.5630
 2.0690	10.6020
 2.0700	10.6420
 2.0710	10.6830
 2.0720	10.7270
 2.0730	10.7710
 2.0740	10.8110
 2.0750	10.8470
 2.0760	10.8860
 2.0770	10.9240
 2.0780	10.9620
 2.0790	11.0050
 2.0800	11.0440
 2.0810	11.0790
 2.0820	11.1160
 2.0830	11.1500
 2.0840	11.1870
 2.0850	11.2280
 2.0860	11.2660
 2.0870	11.3040
 2.0880	11.3440
 2.0890	11.3820
 2.0900	11.4180
 2.0910	11.4550
 2.0920	11.4920
 2.0930	11.5270
 2.0940	11.5580
 2.0950	11.5930
 2.0960	11.6300
 2.0970	11.6640
 2.0980	11.6990
 2.0990	11.7340
 2.1000	11.7660
 2.1010	11.7990
 2.1020	11.8320
 2.1030	11.8660
 2.1040	11.8980
 2.1050	11.9330
 2.1060	11.9670
 2.1070	12.0040
 2.1080	12.0370
 2.1090	12.0680
 2.1100	12.1010
 2.1110	12.1350
 2.1120	12.1660
 2.1130	12.1990
 2.1140	12.2290
 2.1150	12.2540
 2.1160	12.2830
 2.1170	12.3140
 2.1180	12.3430
 2.1190	12.3720
 2.1200	12.3990
 2.1210	12.4240
 2.1220	12.4480
 2.1230	12.4730
 2.1240	12.4980
 2.1250	12.5240
 2.1260	12.5520
 2.1270	12.5770
 2.1280	12.6010
 2.1290	12.6260
 2.1300	12.6490
 2.1310	12.6730
 2.1320	12.6980
 2.1330	12.7210
 2.1340	12.7420
 2.1350	12.7630
 2.1360	12.7850
 2.1370	12.8060
 2.1380	12.8260
 2.1390	12.8470
 2.1400	12.8700
 2.1410	12.8890
 2.1420	12.9110
 2.1430	12.9330
 2.1440	12.9540
 2.1450	12.9760
 2.1460	12.9990
 2.1470	13.0230
 2.1480	13.0450
 2.1490	13.0660
 2.1500	13.0860
 2.1510	13.1020
 2.1520	13.1210
 2.1530	13.1400
 2.1540	13.1590
 2.1550	13.1790
 2.1560	13.1980
 2.1570	13.2180
 2.1580	13.2360
 2.1590	13.2540
 2.1600	13.2700
 2.1610	13.2860
 2.1620	13.3010
 2.1630	13.3170
 2.1640	13.3340
 2.1650	13.3490
 2.1660	13.3640
 2.1670	13.3760
 2.1680	13.3830
 2.1690	13.3980
 2.1700	13.4130
 2.1710	13.4300
 2.1720	13.4560
 2.1730	13.4750
 2.1740	13.4920
 2.1750	13.5090
 2.1760	13.5240
 2.1770	13.5400
 2.1780	13.5550
 2.1790	13.5720
 2.1800	13.5890
 2.1810	13.6090
 2.1820	13.6310
 2.1830	13.6530
 2.1840	13.6730
 2.1850	13.6930
 2.1860	13.7110
 2.1870	13.7220
 2.1880	13.7410
 2.1890	13.7630
 2.1900	13.7830
 2.1910	13.8080
 2.1920	13.8250
 2.1930	13.8350
 2.1940	13.8510
 2.1950	13.8690
 2.1960	13.8860
 2.1970	13.9040
 2.1980	13.9210
 2.1990	13.9350
 2.2000	13.9500
 2.2010	13.9690
 2.2020	13.9840
 2.2030	13.9940
 2.2040	14.0060
 2.2050	14.0170
 2.2060	14.0300
 2.2070	14.0430
 2.2080	14.0570
 2.2090	14.0690
 2.2100	14.0810
 2.2110	14.0890
 2.2120	14.0960
 2.2130	14.1020
 2.2140	14.1030
 2.2150	14.1090
 2.2160	14.1180
 2.2170	14.1230
 2.2180	14.1310
 2.2190	14.1340
 2.2200	14.1300
 2.2210	14.1290
 2.2220	14.1320
 2.2230	14.1300
 2.2240	14.1250
 2.2250	14.1200
 2.2260	14.1100
 2.2270	14.0970
 2.2280	14.0840
 2.2290	14.0680
 2.2300	14.0460
 2.2310	14.0260
 2.2320	14.0070
 2.2330	13.9860
 2.2340	13.9610
 2.2350	13.9350
 2.2360	13.9020
 2.2370	13.8630
 2.2380	13.8240
 2.2390	13.7810
 2.2400	13.7390
 2.2410	13.6950
 2.2420	13.6510
 2.2430	13.6090
 2.2440	13.5610
 2.2450	13.5100
 2.2460	13.4590
 2.2470	13.4050
 2.2480	13.3520
 2.2490	13.3010
 2.2500	13.2450
 2.2510	13.1850
 2.2520	13.1260
 2.2530	13.0640
 2.2540	13.0060
 2.2550	12.9530
 2.2560	12.8970
 2.2570	12.8410
 2.2580	12.7850
 2.2590	12.7290
 2.2600	12.6730
 2.2610	12.6180
 2.2620	12.5610
 2.2630	12.5090
 2.2640	12.4600
 2.2650	12.4140
 2.2660	12.3710
 2.2670	12.3250
 2.2680	12.2750
 2.2690	12.2320
 2.2700	12.1890
 2.2710	12.1520
 2.2720	12.1230
 2.2730	12.0890
 2.2740	12.0600
 2.2750	12.0240
 2.2760	11.9840
 2.2770	11.9490
 2.2780	11.9140
 2.2790	11.8810
 2.2800	11.8520
 2.2810	11.8210
 2.2820	11.7890
 2.2830	11.7590
 2.2840	11.7330
 2.2850	11.7020
 2.2860	11.6740
 2.2870	11.6380
 2.2880	11.5950
 2.2890	11.5550
 2.2900	11.5110
 2.2910	11.4670
 2.2920	11.4270
 2.2930	11.3820
 2.2940	11.3330
 2.2950	11.2880
 2.2960	11.2420
 2.2970	11.1960
 2.2980	11.1500
 2.2990	11.1080
 2.3000	11.0680
 2.3010	11.0300
 2.3020	10.9920
 2.3030	10.9530
 2.3040	10.9120
 2.3050	10.8750
 2.3060	10.8490
 2.3070	10.8230
 2.3080	10.7930
 2.3090	10.7730
 2.3100	10.7550
 2.3110	10.7390
 2.3120	10.7250
 2.3130	10.7180
 2.3140	10.7090
 2.3150	10.6990
 2.3160	10.6940
 2.3170	10.6950
 2.3180	10.6920
 2.3190	10.6880
 2.3200	10.6860
 2.3210	10.6880
 2.3220	10.6820
 2.3230	10.6790
 2.3240	10.6670
 2.3250	10.6450
 2.3260	10.6240
 2.3270	10.5940
 2.3280	10.5740
 2.3290	10.5590
 2.3300	10.5370
 2.3310	10.5200
 2.3320	10.4960
 2.3330	10.4620
 2.3340	10.4330
 2.3350	10.4070
 2.3360	10.3750
 2.3370	10.3370
 2.3380	10.3070
 2.3390	10.2760
 2.3400	10.2440
 2.3410	10.2200
 2.3420	10.1890
 2.3430	10.1490
 2.3440	10.1160
 2.3450	10.0880
 2.3460	10.0570
 2.3470	10.0240
 2.3480	 9.9960
 2.3490	 9.9640
 2.3500	 9.9400
 2.3510	 9.9310
 2.3520	 9.9170
 2.3530	 9.9030
 2.3540	 9.8920
 2.3550	 9.8700
 2.3560	 9.8460
 2.3570	 9.8270
 2.3580	 9.8040
 2.3590	 9.7930
 2.3600	 9.7730
 2.3610	 9.7450
 2.3620	 9.7300
 2.3630	 9.7080
 2.3640	 9.6890
 2.3650	 9.6740
 2.3660	 9.6480
 2.3670	 9.6270
 2.3680	 9.6090
 2.3690	 9.5870
 2.3700	 9.5640
 2.3710	 9.5380
 2.3720	 9.5120
 2.3730	 9.4940
 2.3740	 9.4780
 2.3750	 9.4590
 2.3760	 9.4380
 2.3770	 9.4100
 2.3780	 9.3800
 2.3790	 9.3450
 2.3800	 9.3090
 2.3810	 9.2820
 2.3820	 9.2540
 2.3830	 9.2210
 2.3840	 9.1930
 2.3850	 9.1630
 2.3860	 9.1270
 2.3870	 9.0980
 2.3880	 9.0750
 2.3890	 9.0510
 2.3900	 9.0390
 2.3910	 9.0280
 2.3920	 9.0060
 2.3930	 8.9740
 2.3940	 8.9330
 2.3950	 8.8930
 2.3960	 8.8560
 2.3970	 8.8240
 2.3980	 8.8030
 2.3990	 8.7850
 2.4000	 8.7660
 2.4010	 8.7490
 2.4020	 8.7240
 2.4030	 8.7000
 2.4040	 8.6700
 2.4050	 8.6360
 2.4060	 8.6070
 2.4070	 8.5750
 2.4080	 8.5580
 2.4090	 8.5390
 2.4100	 8.5120
 2.4110	 8.4900
 2.4120	 8.4600
 2.4130	 8.4230
 2.4140	 8.4030
 2.4150	 8.3780
 2.4160	 8.3380
 2.4170	 8.3150
 2.4180	 8.2850
 2.4190	 8.2580
 2.4200	 8.2450
 2.4210	 8.2170
 2.4220	 8.1890
 2.4230	 8.1550
 2.4240	 8.1180
 2.4250	 8.0910
 2.4260	 8.0730
 2.4270	 8.0580
 2.4280	 8.0360
 2.4290	 8.0240
 2.4300	 8.0000
 2.4310	 7.9760
 2.4320	 7.9590
 2.4330	 7.9360
 2.4340	 7.9270
 2.4350	 7.9050
 2.4360	 7.8950
 2.4370	 7.8870
 2.4380	 7.8690
 2.4390	 7.8510
 2.4400	 7.8060
 2.4410	 7.7660
 2.4420	 7.7160
 2.4430	 7.6760
 2.4440	 7.6630
 2.4450	 7.6350
 2.4460	 7.6160
 2.4470	 7.5990
 2.4480	 7.5740
 2.4490	 7.5610
 2.4500	 7.5290
 2.4510	 7.4830
 2.4520	 7.4570
 2.4530	 7.4260
 2.4540	 7.3870
 2.4550	 7.3640
 2.4560	 7.3370
 2.4570	 7.3130
 2.4580	 7.3060
 2.4590	 7.3010
 2.4600	 7.3010
 2.4610	 7.2930
 2.4620	 7.2870
 2.4630	 7.2990
 2.4640	 7.2940
 2.4650	 7.2640
 2.4660	 7.2430
 2.4670	 7.2300
 2.4680	 7.2000
 2.4690	 7.1950
 2.4700	 7.1860
 2.4710	 7.1540
 2.4720	 7.1350
 2.4730	 7.1390
 2.4740	 7.1110
 2.4750	 7.0590
 2.4760	 7.0420
 2.4770	 7.0390
 2.4780	 7.0120
 2.4790	 6.9780
 2.4800	 6.9640
 2.4810	 6.9410
 2.4820	 6.9540
 2.4830	 6.9600
 2.4840	 6.9630
 2.4850	 6.9390
 2.4860	 6.9360
 2.4870	 6.9740
 2.4880	 6.9790
 2.4890	 6.9990
 2.4900	 7.0360
 2.4910	 7.0180
 2.4920	 6.9930
 2.4930	 6.9700
 2.4940	 6.9080
 2.4950	 6.8360
 2.4960	 6.8340
 2.4970	 6.8580
 2.4980	 6.8020
 2.4990	 6.8310
 2.5000	 6.8610
