Name: Gasteria acinacifolia
Type: vegetation
Class: Shrub
Genus: Gasteria
Species: acinacifolia
Sample No.: JPL143
Owner: JPL
Wavelength Range: VSWIR
Origin: 34.12581; -118.10946; WGS84
Collection Date: 9/14/2016
Description: Samples were collected at the Huntington Garden in San Marino California as part of a JPL Subcontract studying HyTES imagery. Samples were taken to JPL and processed within 48 hours of collection. The same leaves were processed in the Nicolet and then measured using the ASD.
Measurement: Bidirectional reflectance
First Column: X
Second Column: Y
X Units: Wavelength (micrometer)
Y Units: Reflectance (percentage)
First X Value: 0.35
Last X Value: 2.5
Number of X Values: 2151
Additional Information: vegetation.shrub.gasteria.acinacifolia.vswir.jpl143.jpl.asd.ancillary.txt

 0.3500	 2.8580
 0.3510	 2.6620
 0.3520	 2.5580
 0.3530	 2.5180
 0.3540	 2.5110
 0.3550	 2.6480
 0.3560	 2.7320
 0.3570	 2.7220
 0.3580	 2.6690
 0.3590	 2.6680
 0.3600	 2.5780
 0.3610	 2.4350
 0.3620	 2.5540
 0.3630	 2.6430
 0.3640	 2.6450
 0.3650	 2.5890
 0.3660	 2.5860
 0.3670	 2.5560
 0.3680	 2.5160
 0.3690	 2.5410
 0.3700	 2.5610
 0.3710	 2.5780
 0.3720	 2.5970
 0.3730	 2.6150
 0.3740	 2.5880
 0.3750	 2.5500
 0.3760	 2.5510
 0.3770	 2.6030
 0.3780	 2.6280
 0.3790	 2.6140
 0.3800	 2.6120
 0.3810	 2.5900
 0.3820	 2.5830
 0.3830	 2.6090
 0.3840	 2.6290
 0.3850	 2.6130
 0.3860	 2.5810
 0.3870	 2.5690
 0.3880	 2.5890
 0.3890	 2.5860
 0.3900	 2.5710
 0.3910	 2.6250
 0.3920	 2.6440
 0.3930	 2.6450
 0.3940	 2.6550
 0.3950	 2.6780
 0.3960	 2.6840
 0.3970	 2.6890
 0.3980	 2.7200
 0.3990	 2.7240
 0.4000	 2.7210
 0.4010	 2.7340
 0.4020	 2.7750
 0.4030	 2.7660
 0.4040	 2.7620
 0.4050	 2.8110
 0.4060	 2.8060
 0.4070	 2.8300
 0.4080	 2.8680
 0.4090	 2.8520
 0.4100	 2.8790
 0.4110	 2.9210
 0.4120	 2.9510
 0.4130	 2.9700
 0.4140	 2.9980
 0.4150	 3.0310
 0.4160	 3.0560
 0.4170	 3.0790
 0.4180	 3.0940
 0.4190	 3.1090
 0.4200	 3.1480
 0.4210	 3.1860
 0.4220	 3.2160
 0.4230	 3.2400
 0.4240	 3.2630
 0.4250	 3.2930
 0.4260	 3.3230
 0.4270	 3.3440
 0.4280	 3.3710
 0.4290	 3.4040
 0.4300	 3.4370
 0.4310	 3.4570
 0.4320	 3.4760
 0.4330	 3.4960
 0.4340	 3.5120
 0.4350	 3.5310
 0.4360	 3.5540
 0.4370	 3.5770
 0.4380	 3.5960
 0.4390	 3.6170
 0.4400	 3.6370
 0.4410	 3.6560
 0.4420	 3.6700
 0.4430	 3.6810
 0.4440	 3.6960
 0.4450	 3.7230
 0.4460	 3.7370
 0.4470	 3.7510
 0.4480	 3.7680
 0.4490	 3.7820
 0.4500	 3.8000
 0.4510	 3.8160
 0.4520	 3.8250
 0.4530	 3.8280
 0.4540	 3.8340
 0.4550	 3.8480
 0.4560	 3.8700
 0.4570	 3.8790
 0.4580	 3.8820
 0.4590	 3.8860
 0.4600	 3.9020
 0.4610	 3.9050
 0.4620	 3.9050
 0.4630	 3.9200
 0.4640	 3.9270
 0.4650	 3.9250
 0.4660	 3.9190
 0.4670	 3.9220
 0.4680	 3.9290
 0.4690	 3.9330
 0.4700	 3.9350
 0.4710	 3.9440
 0.4720	 3.9510
 0.4730	 3.9540
 0.4740	 3.9590
 0.4750	 3.9610
 0.4760	 3.9600
 0.4770	 3.9580
 0.4780	 3.9630
 0.4790	 3.9750
 0.4800	 3.9850
 0.4810	 3.9860
 0.4820	 3.9860
 0.4830	 3.9860
 0.4840	 3.9890
 0.4850	 3.9980
 0.4860	 4.0010
 0.4870	 4.0050
 0.4880	 4.0120
 0.4890	 4.0180
 0.4900	 4.0210
 0.4910	 4.0270
 0.4920	 4.0430
 0.4930	 4.0570
 0.4940	 4.0670
 0.4950	 4.0780
 0.4960	 4.0980
 0.4970	 4.1190
 0.4980	 4.1400
 0.4990	 4.1620
 0.5000	 4.1800
 0.5010	 4.2030
 0.5020	 4.2330
 0.5030	 4.2650
 0.5040	 4.2990
 0.5050	 4.3350
 0.5060	 4.3740
 0.5070	 4.4210
 0.5080	 4.4680
 0.5090	 4.5180
 0.5100	 4.5720
 0.5110	 4.6310
 0.5120	 4.6960
 0.5130	 4.7680
 0.5140	 4.8440
 0.5150	 4.9270
 0.5160	 5.0180
 0.5170	 5.1150
 0.5180	 5.2120
 0.5190	 5.3160
 0.5200	 5.4260
 0.5210	 5.5410
 0.5220	 5.6580
 0.5230	 5.7760
 0.5240	 5.8930
 0.5250	 6.0120
 0.5260	 6.1270
 0.5270	 6.2370
 0.5280	 6.3420
 0.5290	 6.4410
 0.5300	 6.5380
 0.5310	 6.6310
 0.5320	 6.7090
 0.5330	 6.7830
 0.5340	 6.8520
 0.5350	 6.9120
 0.5360	 6.9660
 0.5370	 7.0170
 0.5380	 7.0630
 0.5390	 7.1010
 0.5400	 7.1400
 0.5410	 7.1790
 0.5420	 7.2140
 0.5430	 7.2450
 0.5440	 7.2750
 0.5450	 7.3020
 0.5460	 7.3200
 0.5470	 7.3370
 0.5480	 7.3540
 0.5490	 7.3700
 0.5500	 7.3840
 0.5510	 7.3930
 0.5520	 7.3970
 0.5530	 7.3940
 0.5540	 7.3780
 0.5550	 7.3550
 0.5560	 7.3280
 0.5570	 7.2940
 0.5580	 7.2570
 0.5590	 7.2130
 0.5600	 7.1630
 0.5610	 7.1150
 0.5620	 7.0650
 0.5630	 7.0110
 0.5640	 6.9570
 0.5650	 6.9000
 0.5660	 6.8400
 0.5670	 6.7720
 0.5680	 6.6980
 0.5690	 6.6230
 0.5700	 6.5510
 0.5710	 6.4820
 0.5720	 6.4120
 0.5730	 6.3440
 0.5740	 6.2800
 0.5750	 6.2200
 0.5760	 6.1690
 0.5770	 6.1210
 0.5780	 6.0720
 0.5790	 6.0300
 0.5800	 5.9910
 0.5810	 5.9540
 0.5820	 5.9220
 0.5830	 5.8900
 0.5840	 5.8590
 0.5850	 5.8290
 0.5860	 5.8030
 0.5870	 5.7780
 0.5880	 5.7540
 0.5890	 5.7290
 0.5900	 5.7080
 0.5910	 5.6920
 0.5920	 5.6810
 0.5930	 5.6730
 0.5940	 5.6600
 0.5950	 5.6480
 0.5960	 5.6420
 0.5970	 5.6390
 0.5980	 5.6320
 0.5990	 5.6230
 0.6000	 5.6160
 0.6010	 5.6060
 0.6020	 5.5920
 0.6030	 5.5730
 0.6040	 5.5520
 0.6050	 5.5280
 0.6060	 5.5020
 0.6070	 5.4740
 0.6080	 5.4400
 0.6090	 5.4070
 0.6100	 5.3750
 0.6110	 5.3440
 0.6120	 5.3100
 0.6130	 5.2760
 0.6140	 5.2430
 0.6150	 5.2090
 0.6160	 5.1790
 0.6170	 5.1550
 0.6180	 5.1320
 0.6190	 5.1090
 0.6200	 5.0880
 0.6210	 5.0720
 0.6220	 5.0580
 0.6230	 5.0450
 0.6240	 5.0320
 0.6250	 5.0210
 0.6260	 5.0180
 0.6270	 5.0150
 0.6280	 5.0090
 0.6290	 5.0040
 0.6300	 5.0030
 0.6310	 5.0030
 0.6320	 5.0010
 0.6330	 4.9990
 0.6340	 4.9940
 0.6350	 4.9860
 0.6360	 4.9760
 0.6370	 4.9630
 0.6380	 4.9470
 0.6390	 4.9300
 0.6400	 4.9100
 0.6410	 4.8910
 0.6420	 4.8710
 0.6430	 4.8500
 0.6440	 4.8280
 0.6450	 4.8020
 0.6460	 4.7760
 0.6470	 4.7540
 0.6480	 4.7290
 0.6490	 4.7070
 0.6500	 4.6900
 0.6510	 4.6760
 0.6520	 4.6640
 0.6530	 4.6510
 0.6540	 4.6370
 0.6550	 4.6220
 0.6560	 4.6040
 0.6570	 4.5840
 0.6580	 4.5630
 0.6590	 4.5420
 0.6600	 4.5170
 0.6610	 4.4910
 0.6620	 4.4680
 0.6630	 4.4470
 0.6640	 4.4270
 0.6650	 4.4110
 0.6660	 4.3980
 0.6670	 4.3870
 0.6680	 4.3800
 0.6690	 4.3800
 0.6700	 4.3820
 0.6710	 4.3870
 0.6720	 4.3980
 0.6730	 4.4120
 0.6740	 4.4290
 0.6750	 4.4480
 0.6760	 4.4690
 0.6770	 4.4970
 0.6780	 4.5280
 0.6790	 4.5630
 0.6800	 4.6030
 0.6810	 4.6460
 0.6820	 4.6920
 0.6830	 4.7410
 0.6840	 4.7950
 0.6850	 4.8520
 0.6860	 4.9130
 0.6870	 4.9800
 0.6880	 5.0540
 0.6890	 5.1400
 0.6900	 5.2430
 0.6910	 5.3620
 0.6920	 5.5040
 0.6930	 5.6760
 0.6940	 5.8780
 0.6950	 6.1120
 0.6960	 6.3810
 0.6970	 6.6860
 0.6980	 7.0250
 0.6990	 7.3950
 0.7000	 7.7970
 0.7010	 8.2280
 0.7020	 8.6840
 0.7030	 9.1620
 0.7040	 9.6600
 0.7050	10.1760
 0.7060	10.7070
 0.7070	11.2560
 0.7080	11.8200
 0.7090	12.4000
 0.7100	12.9970
 0.7110	13.6130
 0.7120	14.2450
 0.7130	14.8940
 0.7140	15.5620
 0.7150	16.2470
 0.7160	16.9490
 0.7170	17.6700
 0.7180	18.4050
 0.7190	19.1530
 0.7200	19.9140
 0.7210	20.6830
 0.7220	21.4630
 0.7230	22.2480
 0.7240	23.0350
 0.7250	23.8200
 0.7260	24.6020
 0.7270	25.3790
 0.7280	26.1460
 0.7290	26.9020
 0.7300	27.6430
 0.7310	28.3660
 0.7320	29.0690
 0.7330	29.7500
 0.7340	30.4090
 0.7350	31.0430
 0.7360	31.6510
 0.7370	32.2340
 0.7380	32.7900
 0.7390	33.3170
 0.7400	33.8160
 0.7410	34.2850
 0.7420	34.7250
 0.7430	35.1360
 0.7440	35.5190
 0.7450	35.8750
 0.7460	36.2050
 0.7470	36.5060
 0.7480	36.7840
 0.7490	37.0410
 0.7500	37.2710
 0.7510	37.4820
 0.7520	37.6750
 0.7530	37.8490
 0.7540	38.0110
 0.7550	38.1580
 0.7560	38.2910
 0.7570	38.4150
 0.7580	38.5250
 0.7590	38.6240
 0.7600	38.7130
 0.7610	38.7970
 0.7620	38.8720
 0.7630	38.9390
 0.7640	38.9990
 0.7650	39.0500
 0.7660	39.1010
 0.7670	39.1490
 0.7680	39.1890
 0.7690	39.2260
 0.7700	39.2600
 0.7710	39.2920
 0.7720	39.3190
 0.7730	39.3470
 0.7740	39.3740
 0.7750	39.3980
 0.7760	39.4260
 0.7770	39.4530
 0.7780	39.4750
 0.7790	39.4940
 0.7800	39.5160
 0.7810	39.5380
 0.7820	39.5580
 0.7830	39.5780
 0.7840	39.5970
 0.7850	39.6160
 0.7860	39.6350
 0.7870	39.6530
 0.7880	39.6680
 0.7890	39.6820
 0.7900	39.7010
 0.7910	39.7180
 0.7920	39.7300
 0.7930	39.7410
 0.7940	39.7560
 0.7950	39.7690
 0.7960	39.7800
 0.7970	39.7900
 0.7980	39.7990
 0.7990	39.8090
 0.8000	39.8190
 0.8010	39.8270
 0.8020	39.8320
 0.8030	39.8380
 0.8040	39.8460
 0.8050	39.8540
 0.8060	39.8580
 0.8070	39.8640
 0.8080	39.8690
 0.8090	39.8680
 0.8100	39.8710
 0.8110	39.8750
 0.8120	39.8770
 0.8130	39.8750
 0.8140	39.8730
 0.8150	39.8720
 0.8160	39.8710
 0.8170	39.8710
 0.8180	39.8700
 0.8190	39.8700
 0.8200	39.8720
 0.8210	39.8700
 0.8220	39.8670
 0.8230	39.8630
 0.8240	39.8580
 0.8250	39.8530
 0.8260	39.8480
 0.8270	39.8420
 0.8280	39.8340
 0.8290	39.8260
 0.8300	39.8200
 0.8310	39.8150
 0.8320	39.8060
 0.8330	39.7980
 0.8340	39.7930
 0.8350	39.7910
 0.8360	39.7880
 0.8370	39.7840
 0.8380	39.7800
 0.8390	39.7830
 0.8400	39.7840
 0.8410	39.7850
 0.8420	39.7850
 0.8430	39.7810
 0.8440	39.7830
 0.8450	39.7860
 0.8460	39.7890
 0.8470	39.7930
 0.8480	39.7970
 0.8490	39.8010
 0.8500	39.8030
 0.8510	39.8090
 0.8520	39.8140
 0.8530	39.8170
 0.8540	39.8220
 0.8550	39.8290
 0.8560	39.8370
 0.8570	39.8450
 0.8580	39.8500
 0.8590	39.8540
 0.8600	39.8620
 0.8610	39.8730
 0.8620	39.8790
 0.8630	39.8840
 0.8640	39.8920
 0.8650	39.9060
 0.8660	39.9130
 0.8670	39.9220
 0.8680	39.9330
 0.8690	39.9410
 0.8700	39.9470
 0.8710	39.9560
 0.8720	39.9670
 0.8730	39.9760
 0.8740	39.9820
 0.8750	39.9920
 0.8760	40.0060
 0.8770	40.0150
 0.8780	40.0270
 0.8790	40.0350
 0.8800	40.0390
 0.8810	40.0530
 0.8820	40.0630
 0.8830	40.0700
 0.8840	40.0780
 0.8850	40.0820
 0.8860	40.0870
 0.8870	40.0930
 0.8880	40.0990
 0.8890	40.1080
 0.8900	40.1160
 0.8910	40.1240
 0.8920	40.1340
 0.8930	40.1380
 0.8940	40.1390
 0.8950	40.1440
 0.8960	40.1540
 0.8970	40.1630
 0.8980	40.1680
 0.8990	40.1700
 0.9000	40.1710
 0.9010	40.1760
 0.9020	40.1850
 0.9030	40.1950
 0.9040	40.1950
 0.9050	40.1960
 0.9060	40.2000
 0.9070	40.2060
 0.9080	40.2070
 0.9090	40.2040
 0.9100	40.1990
 0.9110	40.1990
 0.9120	40.2010
 0.9130	40.2020
 0.9140	40.1980
 0.9150	40.1920
 0.9160	40.1990
 0.9170	40.2000
 0.9180	40.1910
 0.9190	40.1830
 0.9200	40.1790
 0.9210	40.1660
 0.9220	40.1490
 0.9230	40.1420
 0.9240	40.1310
 0.9250	40.1160
 0.9260	40.0980
 0.9270	40.0830
 0.9280	40.0620
 0.9290	40.0380
 0.9300	40.0130
 0.9310	39.9890
 0.9320	39.9600
 0.9330	39.9300
 0.9340	39.9030
 0.9350	39.8770
 0.9360	39.8370
 0.9370	39.8000
 0.9380	39.7710
 0.9390	39.7340
 0.9400	39.6950
 0.9410	39.6510
 0.9420	39.6030
 0.9430	39.5550
 0.9440	39.4970
 0.9450	39.4350
 0.9460	39.3720
 0.9470	39.3010
 0.9480	39.2290
 0.9490	39.1540
 0.9500	39.0720
 0.9510	38.9750
 0.9520	38.8740
 0.9530	38.7760
 0.9540	38.6840
 0.9550	38.5870
 0.9560	38.4870
 0.9570	38.3890
 0.9580	38.3010
 0.9590	38.2160
 0.9600	38.1450
 0.9610	38.0760
 0.9620	37.9990
 0.9630	37.9410
 0.9640	37.8900
 0.9650	37.8400
 0.9660	37.7920
 0.9670	37.7600
 0.9680	37.7300
 0.9690	37.7040
 0.9700	37.6850
 0.9710	37.6440
 0.9720	37.6150
 0.9730	37.5960
 0.9740	37.5760
 0.9750	37.5570
 0.9760	37.5460
 0.9770	37.5390
 0.9780	37.5270
 0.9790	37.5230
 0.9800	37.5180
 0.9810	37.5100
 0.9820	37.5030
 0.9830	37.5110
 0.9840	37.5270
 0.9850	37.5390
 0.9860	37.5400
 0.9870	37.5590
 0.9880	37.5850
 0.9890	37.6060
 0.9900	37.6100
 0.9910	37.6150
 0.9920	37.6410
 0.9930	37.6760
 0.9940	37.6950
 0.9950	37.7110
 0.9960	37.7430
 0.9970	37.7830
 0.9980	37.8160
 0.9990	37.8560
 1.0000	37.8870
 1.0010	38.8180
 1.0020	38.8520
 1.0030	38.8870
 1.0040	38.9220
 1.0050	38.9580
 1.0060	38.9970
 1.0070	39.0380
 1.0080	39.0750
 1.0090	39.1090
 1.0100	39.1480
 1.0110	39.1880
 1.0120	39.2280
 1.0130	39.2720
 1.0140	39.3140
 1.0150	39.3550
 1.0160	39.3940
 1.0170	39.4330
 1.0180	39.4690
 1.0190	39.5070
 1.0200	39.5470
 1.0210	39.5900
 1.0220	39.6360
 1.0230	39.6780
 1.0240	39.7200
 1.0250	39.7580
 1.0260	39.7900
 1.0270	39.8280
 1.0280	39.8650
 1.0290	39.9030
 1.0300	39.9470
 1.0310	39.9850
 1.0320	40.0190
 1.0330	40.0540
 1.0340	40.0900
 1.0350	40.1230
 1.0360	40.1560
 1.0370	40.1910
 1.0380	40.2260
 1.0390	40.2600
 1.0400	40.2930
 1.0410	40.3280
 1.0420	40.3590
 1.0430	40.3850
 1.0440	40.4130
 1.0450	40.4410
 1.0460	40.4690
 1.0470	40.5000
 1.0480	40.5270
 1.0490	40.5520
 1.0500	40.5770
 1.0510	40.6020
 1.0520	40.6260
 1.0530	40.6490
 1.0540	40.6730
 1.0550	40.6960
 1.0560	40.7190
 1.0570	40.7390
 1.0580	40.7560
 1.0590	40.7740
 1.0600	40.7870
 1.0610	40.8010
 1.0620	40.8190
 1.0630	40.8350
 1.0640	40.8510
 1.0650	40.8640
 1.0660	40.8750
 1.0670	40.8860
 1.0680	40.8950
 1.0690	40.9000
 1.0700	40.9080
 1.0710	40.9180
 1.0720	40.9240
 1.0730	40.9270
 1.0740	40.9320
 1.0750	40.9350
 1.0760	40.9380
 1.0770	40.9440
 1.0780	40.9460
 1.0790	40.9440
 1.0800	40.9420
 1.0810	40.9370
 1.0820	40.9330
 1.0830	40.9320
 1.0840	40.9270
 1.0850	40.9200
 1.0860	40.9150
 1.0870	40.9070
 1.0880	40.8980
 1.0890	40.8890
 1.0900	40.8820
 1.0910	40.8710
 1.0920	40.8570
 1.0930	40.8450
 1.0940	40.8320
 1.0950	40.8180
 1.0960	40.8040
 1.0970	40.7880
 1.0980	40.7700
 1.0990	40.7520
 1.1000	40.7350
 1.1010	40.7160
 1.1020	40.6970
 1.1030	40.6760
 1.1040	40.6540
 1.1050	40.6340
 1.1060	40.6100
 1.1070	40.5850
 1.1080	40.5590
 1.1090	40.5290
 1.1100	40.5020
 1.1110	40.4770
 1.1120	40.4470
 1.1130	40.4160
 1.1140	40.3830
 1.1150	40.3470
 1.1160	40.3090
 1.1170	40.2710
 1.1180	40.2280
 1.1190	40.1820
 1.1200	40.1300
 1.1210	40.0750
 1.1220	40.0160
 1.1230	39.9480
 1.1240	39.8750
 1.1250	39.7940
 1.1260	39.7080
 1.1270	39.6100
 1.1280	39.5060
 1.1290	39.3900
 1.1300	39.2650
 1.1310	39.1280
 1.1320	38.9810
 1.1330	38.8240
 1.1340	38.6560
 1.1350	38.4780
 1.1360	38.2910
 1.1370	38.0940
 1.1380	37.8880
 1.1390	37.6740
 1.1400	37.4520
 1.1410	37.2270
 1.1420	37.0010
 1.1430	36.7710
 1.1440	36.5430
 1.1450	36.3130
 1.1460	36.0880
 1.1470	35.8610
 1.1480	35.6460
 1.1490	35.4350
 1.1500	35.2350
 1.1510	35.0390
 1.1520	34.8560
 1.1530	34.6790
 1.1540	34.5160
 1.1550	34.3660
 1.1560	34.2260
 1.1570	34.0940
 1.1580	33.9740
 1.1590	33.8620
 1.1600	33.7570
 1.1610	33.6640
 1.1620	33.5790
 1.1630	33.4980
 1.1640	33.4250
 1.1650	33.3560
 1.1660	33.2950
 1.1670	33.2370
 1.1680	33.1830
 1.1690	33.1330
 1.1700	33.0870
 1.1710	33.0420
 1.1720	33.0000
 1.1730	32.9570
 1.1740	32.9140
 1.1750	32.8710
 1.1760	32.8290
 1.1770	32.7860
 1.1780	32.7430
 1.1790	32.6990
 1.1800	32.6550
 1.1810	32.6110
 1.1820	32.5670
 1.1830	32.5240
 1.1840	32.4810
 1.1850	32.4380
 1.1860	32.3970
 1.1870	32.3570
 1.1880	32.3180
 1.1890	32.2790
 1.1900	32.2440
 1.1910	32.2090
 1.1920	32.1780
 1.1930	32.1510
 1.1940	32.1260
 1.1950	32.1030
 1.1960	32.0830
 1.1970	32.0660
 1.1980	32.0520
 1.1990	32.0410
 1.2000	32.0310
 1.2010	32.0250
 1.2020	32.0220
 1.2030	32.0230
 1.2040	32.0290
 1.2050	32.0370
 1.2060	32.0470
 1.2070	32.0610
 1.2080	32.0780
 1.2090	32.1000
 1.2100	32.1260
 1.2110	32.1570
 1.2120	32.1910
 1.2130	32.2280
 1.2140	32.2690
 1.2150	32.3140
 1.2160	32.3630
 1.2170	32.4120
 1.2180	32.4640
 1.2190	32.5170
 1.2200	32.5710
 1.2210	32.6290
 1.2220	32.6880
 1.2230	32.7480
 1.2240	32.8080
 1.2250	32.8660
 1.2260	32.9240
 1.2270	32.9810
 1.2280	33.0360
 1.2290	33.0890
 1.2300	33.1410
 1.2310	33.1910
 1.2320	33.2410
 1.2330	33.2910
 1.2340	33.3380
 1.2350	33.3850
 1.2360	33.4300
 1.2370	33.4710
 1.2380	33.5120
 1.2390	33.5500
 1.2400	33.5900
 1.2410	33.6290
 1.2420	33.6650
 1.2430	33.7010
 1.2440	33.7350
 1.2450	33.7680
 1.2460	33.8000
 1.2470	33.8310
 1.2480	33.8620
 1.2490	33.8940
 1.2500	33.9210
 1.2510	33.9490
 1.2520	33.9760
 1.2530	34.0000
 1.2540	34.0240
 1.2550	34.0470
 1.2560	34.0680
 1.2570	34.0870
 1.2580	34.1040
 1.2590	34.1210
 1.2600	34.1360
 1.2610	34.1490
 1.2620	34.1620
 1.2630	34.1720
 1.2640	34.1800
 1.2650	34.1870
 1.2660	34.1920
 1.2670	34.1980
 1.2680	34.2010
 1.2690	34.2020
 1.2700	34.2020
 1.2710	34.2000
 1.2720	34.1970
 1.2730	34.1950
 1.2740	34.1910
 1.2750	34.1850
 1.2760	34.1780
 1.2770	34.1690
 1.2780	34.1580
 1.2790	34.1430
 1.2800	34.1270
 1.2810	34.1110
 1.2820	34.0930
 1.2830	34.0750
 1.2840	34.0560
 1.2850	34.0330
 1.2860	34.0050
 1.2870	33.9740
 1.2880	33.9380
 1.2890	33.8990
 1.2900	33.8570
 1.2910	33.8150
 1.2920	33.7720
 1.2930	33.7280
 1.2940	33.6790
 1.2950	33.6240
 1.2960	33.5650
 1.2970	33.5020
 1.2980	33.4380
 1.2990	33.3720
 1.3000	33.3030
 1.3010	33.2300
 1.3020	33.1520
 1.3030	33.0690
 1.3040	32.9850
 1.3050	32.8950
 1.3060	32.8020
 1.3070	32.7060
 1.3080	32.6060
 1.3090	32.5050
 1.3100	32.4000
 1.3110	32.2900
 1.3120	32.1750
 1.3130	32.0560
 1.3140	31.9340
 1.3150	31.8080
 1.3160	31.6800
 1.3170	31.5490
 1.3180	31.4150
 1.3190	31.2760
 1.3200	31.1340
 1.3210	30.9890
 1.3220	30.8410
 1.3230	30.6920
 1.3240	30.5380
 1.3250	30.3820
 1.3260	30.2240
 1.3270	30.0610
 1.3280	29.8990
 1.3290	29.7330
 1.3300	29.5650
 1.3310	29.3980
 1.3320	29.2260
 1.3330	29.0550
 1.3340	28.8860
 1.3350	28.7160
 1.3360	28.5480
 1.3370	28.3790
 1.3380	28.2090
 1.3390	28.0410
 1.3400	27.8730
 1.3410	27.7090
 1.3420	27.5480
 1.3430	27.3890
 1.3440	27.2330
 1.3450	27.0790
 1.3460	26.9270
 1.3470	26.7780
 1.3480	26.6310
 1.3490	26.4880
 1.3500	26.3480
 1.3510	26.2110
 1.3520	26.0760
 1.3530	25.9430
 1.3540	25.8100
 1.3550	25.6790
 1.3560	25.5470
 1.3570	25.4150
 1.3580	25.2820
 1.3590	25.1470
 1.3600	25.0120
 1.3610	24.8740
 1.3620	24.7330
 1.3630	24.5900
 1.3640	24.4420
 1.3650	24.2890
 1.3660	24.1330
 1.3670	23.9710
 1.3680	23.8020
 1.3690	23.6270
 1.3700	23.4400
 1.3710	23.2460
 1.3720	23.0420
 1.3730	22.8250
 1.3740	22.5990
 1.3750	22.3600
 1.3760	22.1050
 1.3770	21.8360
 1.3780	21.5480
 1.3790	21.2450
 1.3800	20.9280
 1.3810	20.5930
 1.3820	20.2490
 1.3830	19.8940
 1.3840	19.5290
 1.3850	19.1510
 1.3860	18.7700
 1.3870	18.3760
 1.3880	17.9860
 1.3890	17.5930
 1.3900	17.1980
 1.3910	16.8080
 1.3920	16.4190
 1.3930	16.0320
 1.3940	15.6530
 1.3950	15.2780
 1.3960	14.9120
 1.3970	14.5570
 1.3980	14.2130
 1.3990	13.8840
 1.4000	13.5670
 1.4010	13.2610
 1.4020	12.9700
 1.4030	12.6900
 1.4040	12.4240
 1.4050	12.1720
 1.4060	11.9320
 1.4070	11.7080
 1.4080	11.4960
 1.4090	11.2940
 1.4100	11.1060
 1.4110	10.9280
 1.4120	10.7610
 1.4130	10.6050
 1.4140	10.4580
 1.4150	10.3230
 1.4160	10.1960
 1.4170	10.0770
 1.4180	 9.9680
 1.4190	 9.8640
 1.4200	 9.7660
 1.4210	 9.6760
 1.4220	 9.5900
 1.4230	 9.5120
 1.4240	 9.4400
 1.4250	 9.3720
 1.4260	 9.3090
 1.4270	 9.2490
 1.4280	 9.1920
 1.4290	 9.1400
 1.4300	 9.0920
 1.4310	 9.0480
 1.4320	 9.0090
 1.4330	 8.9720
 1.4340	 8.9370
 1.4350	 8.9060
 1.4360	 8.8770
 1.4370	 8.8510
 1.4380	 8.8280
 1.4390	 8.8070
 1.4400	 8.7880
 1.4410	 8.7710
 1.4420	 8.7560
 1.4430	 8.7440
 1.4440	 8.7330
 1.4450	 8.7230
 1.4460	 8.7150
 1.4470	 8.7080
 1.4480	 8.7010
 1.4490	 8.6960
 1.4500	 8.6930
 1.4510	 8.6910
 1.4520	 8.6900
 1.4530	 8.6900
 1.4540	 8.6910
 1.4550	 8.6930
 1.4560	 8.6980
 1.4570	 8.7020
 1.4580	 8.7080
 1.4590	 8.7160
 1.4600	 8.7250
 1.4610	 8.7360
 1.4620	 8.7500
 1.4630	 8.7660
 1.4640	 8.7840
 1.4650	 8.8040
 1.4660	 8.8260
 1.4670	 8.8500
 1.4680	 8.8770
 1.4690	 8.9040
 1.4700	 8.9340
 1.4710	 8.9660
 1.4720	 9.0000
 1.4730	 9.0370
 1.4740	 9.0770
 1.4750	 9.1170
 1.4760	 9.1590
 1.4770	 9.2010
 1.4780	 9.2440
 1.4790	 9.2890
 1.4800	 9.3360
 1.4810	 9.3850
 1.4820	 9.4340
 1.4830	 9.4850
 1.4840	 9.5360
 1.4850	 9.5880
 1.4860	 9.6400
 1.4870	 9.6940
 1.4880	 9.7480
 1.4890	 9.8030
 1.4900	 9.8580
 1.4910	 9.9140
 1.4920	 9.9710
 1.4930	10.0290
 1.4940	10.0870
 1.4950	10.1470
 1.4960	10.2060
 1.4970	10.2650
 1.4980	10.3250
 1.4990	10.3860
 1.5000	10.4470
 1.5010	10.5080
 1.5020	10.5700
 1.5030	10.6320
 1.5040	10.6940
 1.5050	10.7570
 1.5060	10.8200
 1.5070	10.8830
 1.5080	10.9470
 1.5090	11.0110
 1.5100	11.0750
 1.5110	11.1380
 1.5120	11.2030
 1.5130	11.2660
 1.5140	11.3300
 1.5150	11.3950
 1.5160	11.4600
 1.5170	11.5240
 1.5180	11.5880
 1.5190	11.6510
 1.5200	11.7150
 1.5210	11.7780
 1.5220	11.8420
 1.5230	11.9060
 1.5240	11.9680
 1.5250	12.0300
 1.5260	12.0920
 1.5270	12.1530
 1.5280	12.2160
 1.5290	12.2780
 1.5300	12.3390
 1.5310	12.4010
 1.5320	12.4610
 1.5330	12.5200
 1.5340	12.5810
 1.5350	12.6400
 1.5360	12.7000
 1.5370	12.7610
 1.5380	12.8200
 1.5390	12.8780
 1.5400	12.9350
 1.5410	12.9940
 1.5420	13.0520
 1.5430	13.1110
 1.5440	13.1700
 1.5450	13.2270
 1.5460	13.2840
 1.5470	13.3420
 1.5480	13.3990
 1.5490	13.4560
 1.5500	13.5140
 1.5510	13.5710
 1.5520	13.6280
 1.5530	13.6840
 1.5540	13.7400
 1.5550	13.7960
 1.5560	13.8500
 1.5570	13.9030
 1.5580	13.9570
 1.5590	14.0090
 1.5600	14.0610
 1.5610	14.1130
 1.5620	14.1660
 1.5630	14.2180
 1.5640	14.2690
 1.5650	14.3200
 1.5660	14.3690
 1.5670	14.4190
 1.5680	14.4700
 1.5690	14.5190
 1.5700	14.5690
 1.5710	14.6170
 1.5720	14.6640
 1.5730	14.7130
 1.5740	14.7620
 1.5750	14.8100
 1.5760	14.8580
 1.5770	14.9030
 1.5780	14.9490
 1.5790	14.9960
 1.5800	15.0420
 1.5810	15.0890
 1.5820	15.1370
 1.5830	15.1820
 1.5840	15.2290
 1.5850	15.2760
 1.5860	15.3220
 1.5870	15.3690
 1.5880	15.4180
 1.5890	15.4670
 1.5900	15.5150
 1.5910	15.5640
 1.5920	15.6110
 1.5930	15.6590
 1.5940	15.7080
 1.5950	15.7570
 1.5960	15.8060
 1.5970	15.8540
 1.5980	15.9010
 1.5990	15.9490
 1.6000	15.9980
 1.6010	16.0460
 1.6020	16.0940
 1.6030	16.1410
 1.6040	16.1880
 1.6050	16.2360
 1.6060	16.2830
 1.6070	16.3310
 1.6080	16.3780
 1.6090	16.4230
 1.6100	16.4670
 1.6110	16.5100
 1.6120	16.5530
 1.6130	16.5970
 1.6140	16.6420
 1.6150	16.6850
 1.6160	16.7270
 1.6170	16.7670
 1.6180	16.8090
 1.6190	16.8500
 1.6200	16.8890
 1.6210	16.9290
 1.6220	16.9670
 1.6230	17.0030
 1.6240	17.0400
 1.6250	17.0760
 1.6260	17.1110
 1.6270	17.1470
 1.6280	17.1820
 1.6290	17.2160
 1.6300	17.2490
 1.6310	17.2810
 1.6320	17.3120
 1.6330	17.3420
 1.6340	17.3720
 1.6350	17.4010
 1.6360	17.4280
 1.6370	17.4540
 1.6380	17.4780
 1.6390	17.5020
 1.6400	17.5240
 1.6410	17.5450
 1.6420	17.5650
 1.6430	17.5830
 1.6440	17.6000
 1.6450	17.6160
 1.6460	17.6310
 1.6470	17.6440
 1.6480	17.6550
 1.6490	17.6650
 1.6500	17.6730
 1.6510	17.6780
 1.6520	17.6820
 1.6530	17.6840
 1.6540	17.6850
 1.6550	17.6860
 1.6560	17.6850
 1.6570	17.6810
 1.6580	17.6760
 1.6590	17.6710
 1.6600	17.6650
 1.6610	17.6580
 1.6620	17.6490
 1.6630	17.6410
 1.6640	17.6330
 1.6650	17.6250
 1.6660	17.6160
 1.6670	17.6080
 1.6680	17.5990
 1.6690	17.5890
 1.6700	17.5770
 1.6710	17.5630
 1.6720	17.5480
 1.6730	17.5320
 1.6740	17.5160
 1.6750	17.4990
 1.6760	17.4800
 1.6770	17.4590
 1.6780	17.4370
 1.6790	17.4150
 1.6800	17.3900
 1.6810	17.3650
 1.6820	17.3360
 1.6830	17.3040
 1.6840	17.2720
 1.6850	17.2370
 1.6860	17.2030
 1.6870	17.1670
 1.6880	17.1300
 1.6890	17.0920
 1.6900	17.0520
 1.6910	17.0100
 1.6920	16.9680
 1.6930	16.9230
 1.6940	16.8790
 1.6950	16.8330
 1.6960	16.7870
 1.6970	16.7400
 1.6980	16.6900
 1.6990	16.6360
 1.7000	16.5830
 1.7010	16.5280
 1.7020	16.4740
 1.7030	16.4200
 1.7040	16.3640
 1.7050	16.3070
 1.7060	16.2510
 1.7070	16.1950
 1.7080	16.1400
 1.7090	16.0870
 1.7100	16.0340
 1.7110	15.9810
 1.7120	15.9310
 1.7130	15.8810
 1.7140	15.8320
 1.7150	15.7850
 1.7160	15.7380
 1.7170	15.6930
 1.7180	15.6520
 1.7190	15.6150
 1.7200	15.5800
 1.7210	15.5470
 1.7220	15.5150
 1.7230	15.4840
 1.7240	15.4580
 1.7250	15.4340
 1.7260	15.4150
 1.7270	15.4000
 1.7280	15.3860
 1.7290	15.3760
 1.7300	15.3700
 1.7310	15.3660
 1.7320	15.3660
 1.7330	15.3650
 1.7340	15.3650
 1.7350	15.3640
 1.7360	15.3630
 1.7370	15.3580
 1.7380	15.3500
 1.7390	15.3380
 1.7400	15.3220
 1.7410	15.3030
 1.7420	15.2800
 1.7430	15.2540
 1.7440	15.2240
 1.7450	15.1920
 1.7460	15.1560
 1.7470	15.1190
 1.7480	15.0790
 1.7490	15.0410
 1.7500	15.0010
 1.7510	14.9640
 1.7520	14.9270
 1.7530	14.8890
 1.7540	14.8500
 1.7550	14.8120
 1.7560	14.7750
 1.7570	14.7410
 1.7580	14.7090
 1.7590	14.6790
 1.7600	14.6520
 1.7610	14.6260
 1.7620	14.6020
 1.7630	14.5790
 1.7640	14.5590
 1.7650	14.5430
 1.7660	14.5250
 1.7670	14.5100
 1.7680	14.4950
 1.7690	14.4790
 1.7700	14.4660
 1.7710	14.4530
 1.7720	14.4420
 1.7730	14.4330
 1.7740	14.4230
 1.7750	14.4130
 1.7760	14.4040
 1.7770	14.3920
 1.7780	14.3830
 1.7790	14.3760
 1.7800	14.3690
 1.7810	14.3640
 1.7820	14.3570
 1.7830	14.3510
 1.7840	14.3450
 1.7850	14.3380
 1.7860	14.3340
 1.7870	14.3310
 1.7880	14.3300
 1.7890	14.3300
 1.7900	14.3330
 1.7910	14.3360
 1.7920	14.3360
 1.7930	14.3400
 1.7940	14.3450
 1.7950	14.3510
 1.7960	14.3600
 1.7970	14.3680
 1.7980	14.3730
 1.7990	14.3810
 1.8000	14.3890
 1.8010	14.3980
 1.8020	14.4100
 1.8030	14.4200
 1.8040	14.4290
 1.8050	14.4410
 1.8060	14.4550
 1.8070	14.4650
 1.8080	14.4750
 1.8090	14.4840
 1.8100	14.4920
 1.8110	14.5010
 1.8120	14.5120
 1.8130	14.5210
 1.8140	14.5280
 1.8150	14.5380
 1.8160	14.5460
 1.8170	14.5530
 1.8180	14.5610
 1.8190	14.5680
 1.8200	14.5730
 1.8210	14.5770
 1.8220	14.5820
 1.8230	14.5850
 1.8240	14.5890
 1.8250	14.5950
 1.8260	14.5980
 1.8270	14.5980
 1.8280	14.6000
 1.8290	14.6020
 1.8300	14.6000
 1.8310	14.6040
 1.8320	14.5960
 1.8330	14.5850
 1.8340	14.5710
 1.8350	14.5600
 1.8360	14.5470
 1.8370	14.5320
 1.8380	14.5150
 1.8390	14.4940
 1.8400	14.4710
 1.8410	14.4430
 1.8420	14.4110
 1.8430	14.3770
 1.8440	14.3360
 1.8450	14.2880
 1.8460	14.2380
 1.8470	14.1810
 1.8480	14.1200
 1.8490	14.0580
 1.8500	13.9870
 1.8510	13.9110
 1.8520	13.8270
 1.8530	13.7370
 1.8540	13.6390
 1.8550	13.5360
 1.8560	13.4270
 1.8570	13.3060
 1.8580	13.1800
 1.8590	13.0490
 1.8600	12.9120
 1.8610	12.7670
 1.8620	12.6140
 1.8630	12.4540
 1.8640	12.2840
 1.8650	12.1010
 1.8660	11.9140
 1.8670	11.7180
 1.8680	11.5150
 1.8690	11.3070
 1.8700	11.0860
 1.8710	10.8550
 1.8720	10.6180
 1.8730	10.3780
 1.8740	10.1350
 1.8750	 9.8930
 1.8760	 9.6490
 1.8770	 9.4020
 1.8780	 9.1520
 1.8790	 8.8990
 1.8800	 8.6520
 1.8810	 8.4100
 1.8820	 8.1660
 1.8830	 7.9230
 1.8840	 7.6870
 1.8850	 7.4500
 1.8860	 7.2190
 1.8870	 6.9970
 1.8880	 6.7780
 1.8890	 6.5670
 1.8900	 6.3660
 1.8910	 6.1710
 1.8920	 5.9810
 1.8930	 5.8040
 1.8940	 5.6380
 1.8950	 5.4770
 1.8960	 5.3280
 1.8970	 5.1920
 1.8980	 5.0660
 1.8990	 4.9490
 1.9000	 4.8380
 1.9010	 4.7400
 1.9020	 4.6440
 1.9030	 4.5500
 1.9040	 4.4680
 1.9050	 4.3940
 1.9060	 4.3240
 1.9070	 4.2630
 1.9080	 4.2090
 1.9090	 4.1610
 1.9100	 4.1160
 1.9110	 4.0750
 1.9120	 4.0400
 1.9130	 4.0070
 1.9140	 3.9780
 1.9150	 3.9520
 1.9160	 3.9280
 1.9170	 3.9050
 1.9180	 3.8840
 1.9190	 3.8640
 1.9200	 3.8490
 1.9210	 3.8370
 1.9220	 3.8240
 1.9230	 3.8100
 1.9240	 3.8010
 1.9250	 3.7960
 1.9260	 3.7890
 1.9270	 3.7890
 1.9280	 3.7890
 1.9290	 3.7830
 1.9300	 3.7810
 1.9310	 3.7790
 1.9320	 3.7760
 1.9330	 3.7770
 1.9340	 3.7840
 1.9350	 3.7880
 1.9360	 3.7950
 1.9370	 3.8010
 1.9380	 3.8070
 1.9390	 3.8120
 1.9400	 3.8190
 1.9410	 3.8290
 1.9420	 3.8400
 1.9430	 3.8520
 1.9440	 3.8640
 1.9450	 3.8760
 1.9460	 3.8880
 1.9470	 3.9000
 1.9480	 3.9140
 1.9490	 3.9300
 1.9500	 3.9460
 1.9510	 3.9620
 1.9520	 3.9790
 1.9530	 3.9930
 1.9540	 4.0060
 1.9550	 4.0210
 1.9560	 4.0340
 1.9570	 4.0500
 1.9580	 4.0690
 1.9590	 4.0890
 1.9600	 4.1120
 1.9610	 4.1340
 1.9620	 4.1570
 1.9630	 4.1780
 1.9640	 4.1970
 1.9650	 4.2190
 1.9660	 4.2410
 1.9670	 4.2630
 1.9680	 4.2860
 1.9690	 4.3100
 1.9700	 4.3330
 1.9710	 4.3550
 1.9720	 4.3790
 1.9730	 4.4020
 1.9740	 4.4280
 1.9750	 4.4540
 1.9760	 4.4780
 1.9770	 4.5040
 1.9780	 4.5290
 1.9790	 4.5550
 1.9800	 4.5810
 1.9810	 4.6080
 1.9820	 4.6350
 1.9830	 4.6620
 1.9840	 4.6880
 1.9850	 4.7160
 1.9860	 4.7460
 1.9870	 4.7740
 1.9880	 4.8050
 1.9890	 4.8360
 1.9900	 4.8620
 1.9910	 4.8880
 1.9920	 4.9160
 1.9930	 4.9410
 1.9940	 4.9690
 1.9950	 4.9970
 1.9960	 5.0250
 1.9970	 5.0530
 1.9980	 5.0810
 1.9990	 5.1080
 2.0000	 5.1360
 2.0010	 5.1680
 2.0020	 5.1970
 2.0030	 5.2250
 2.0040	 5.2570
 2.0050	 5.2850
 2.0060	 5.3100
 2.0070	 5.3390
 2.0080	 5.3690
 2.0090	 5.3990
 2.0100	 5.4310
 2.0110	 5.4610
 2.0120	 5.4900
 2.0130	 5.5180
 2.0140	 5.5440
 2.0150	 5.5710
 2.0160	 5.5980
 2.0170	 5.6240
 2.0180	 5.6510
 2.0190	 5.6790
 2.0200	 5.7050
 2.0210	 5.7310
 2.0220	 5.7560
 2.0230	 5.7800
 2.0240	 5.8030
 2.0250	 5.8230
 2.0260	 5.8460
 2.0270	 5.8690
 2.0280	 5.8950
 2.0290	 5.9200
 2.0300	 5.9450
 2.0310	 5.9660
 2.0320	 5.9830
 2.0330	 5.9990
 2.0340	 6.0130
 2.0350	 6.0300
 2.0360	 6.0440
 2.0370	 6.0620
 2.0380	 6.0840
 2.0390	 6.1040
 2.0400	 6.1240
 2.0410	 6.1430
 2.0420	 6.1600
 2.0430	 6.1730
 2.0440	 6.1870
 2.0450	 6.2000
 2.0460	 6.2140
 2.0470	 6.2300
 2.0480	 6.2460
 2.0490	 6.2650
 2.0500	 6.2800
 2.0510	 6.2930
 2.0520	 6.3080
 2.0530	 6.3230
 2.0540	 6.3380
 2.0550	 6.3530
 2.0560	 6.3670
 2.0570	 6.3800
 2.0580	 6.3910
 2.0590	 6.4060
 2.0600	 6.4210
 2.0610	 6.4370
 2.0620	 6.4560
 2.0630	 6.4720
 2.0640	 6.4890
 2.0650	 6.5040
 2.0660	 6.5180
 2.0670	 6.5330
 2.0680	 6.5490
 2.0690	 6.5650
 2.0700	 6.5830
 2.0710	 6.6000
 2.0720	 6.6180
 2.0730	 6.6340
 2.0740	 6.6500
 2.0750	 6.6640
 2.0760	 6.6800
 2.0770	 6.6940
 2.0780	 6.7110
 2.0790	 6.7300
 2.0800	 6.7470
 2.0810	 6.7660
 2.0820	 6.7830
 2.0830	 6.7960
 2.0840	 6.8130
 2.0850	 6.8310
 2.0860	 6.8490
 2.0870	 6.8680
 2.0880	 6.8860
 2.0890	 6.9020
 2.0900	 6.9150
 2.0910	 6.9310
 2.0920	 6.9470
 2.0930	 6.9630
 2.0940	 6.9810
 2.0950	 6.9970
 2.0960	 7.0090
 2.0970	 7.0260
 2.0980	 7.0410
 2.0990	 7.0590
 2.1000	 7.0800
 2.1010	 7.1000
 2.1020	 7.1210
 2.1030	 7.1410
 2.1040	 7.1580
 2.1050	 7.1780
 2.1060	 7.1940
 2.1070	 7.2080
 2.1080	 7.2230
 2.1090	 7.2360
 2.1100	 7.2520
 2.1110	 7.2700
 2.1120	 7.2850
 2.1130	 7.3010
 2.1140	 7.3160
 2.1150	 7.3290
 2.1160	 7.3450
 2.1170	 7.3670
 2.1180	 7.3830
 2.1190	 7.3920
 2.1200	 7.4070
 2.1210	 7.4210
 2.1220	 7.4330
 2.1230	 7.4480
 2.1240	 7.4700
 2.1250	 7.4870
 2.1260	 7.5000
 2.1270	 7.5150
 2.1280	 7.5320
 2.1290	 7.5470
 2.1300	 7.5580
 2.1310	 7.5710
 2.1320	 7.5840
 2.1330	 7.5980
 2.1340	 7.6120
 2.1350	 7.6290
 2.1360	 7.6500
 2.1370	 7.6670
 2.1380	 7.6880
 2.1390	 7.7030
 2.1400	 7.7130
 2.1410	 7.7220
 2.1420	 7.7360
 2.1430	 7.7510
 2.1440	 7.7670
 2.1450	 7.7890
 2.1460	 7.8060
 2.1470	 7.8220
 2.1480	 7.8370
 2.1490	 7.8490
 2.1500	 7.8640
 2.1510	 7.8780
 2.1520	 7.8940
 2.1530	 7.9170
 2.1540	 7.9330
 2.1550	 7.9460
 2.1560	 7.9610
 2.1570	 7.9710
 2.1580	 7.9850
 2.1590	 8.0010
 2.1600	 8.0160
 2.1610	 8.0280
 2.1620	 8.0400
 2.1630	 8.0520
 2.1640	 8.0600
 2.1650	 8.0720
 2.1660	 8.0870
 2.1670	 8.0990
 2.1680	 8.1120
 2.1690	 8.1240
 2.1700	 8.1340
 2.1710	 8.1470
 2.1720	 8.1610
 2.1730	 8.1740
 2.1740	 8.1910
 2.1750	 8.2040
 2.1760	 8.2160
 2.1770	 8.2280
 2.1780	 8.2390
 2.1790	 8.2510
 2.1800	 8.2610
 2.1810	 8.2740
 2.1820	 8.2890
 2.1830	 8.3040
 2.1840	 8.3200
 2.1850	 8.3390
 2.1860	 8.3530
 2.1870	 8.3620
 2.1880	 8.3750
 2.1890	 8.3870
 2.1900	 8.3990
 2.1910	 8.4140
 2.1920	 8.4260
 2.1930	 8.4350
 2.1940	 8.4470
 2.1950	 8.4620
 2.1960	 8.4730
 2.1970	 8.4800
 2.1980	 8.4920
 2.1990	 8.5040
 2.2000	 8.5170
 2.2010	 8.5370
 2.2020	 8.5500
 2.2030	 8.5580
 2.2040	 8.5680
 2.2050	 8.5740
 2.2060	 8.5820
 2.2070	 8.5900
 2.2080	 8.5980
 2.2090	 8.6070
 2.2100	 8.6180
 2.2110	 8.6240
 2.2120	 8.6310
 2.2130	 8.6330
 2.2140	 8.6290
 2.2150	 8.6310
 2.2160	 8.6350
 2.2170	 8.6360
 2.2180	 8.6410
 2.2190	 8.6400
 2.2200	 8.6360
 2.2210	 8.6300
 2.2220	 8.6200
 2.2230	 8.6100
 2.2240	 8.5960
 2.2250	 8.5830
 2.2260	 8.5680
 2.2270	 8.5520
 2.2280	 8.5310
 2.2290	 8.5120
 2.2300	 8.4930
 2.2310	 8.4730
 2.2320	 8.4460
 2.2330	 8.4240
 2.2340	 8.3960
 2.2350	 8.3620
 2.2360	 8.3330
 2.2370	 8.3060
 2.2380	 8.2760
 2.2390	 8.2480
 2.2400	 8.2120
 2.2410	 8.1690
 2.2420	 8.1310
 2.2430	 8.0920
 2.2440	 8.0520
 2.2450	 8.0140
 2.2460	 7.9730
 2.2470	 7.9250
 2.2480	 7.8820
 2.2490	 7.8410
 2.2500	 7.7990
 2.2510	 7.7570
 2.2520	 7.7150
 2.2530	 7.6710
 2.2540	 7.6300
 2.2550	 7.5920
 2.2560	 7.5530
 2.2570	 7.5150
 2.2580	 7.4760
 2.2590	 7.4380
 2.2600	 7.3990
 2.2610	 7.3610
 2.2620	 7.3210
 2.2630	 7.2810
 2.2640	 7.2390
 2.2650	 7.1990
 2.2660	 7.1610
 2.2670	 7.1270
 2.2680	 7.0950
 2.2690	 7.0650
 2.2700	 7.0390
 2.2710	 7.0080
 2.2720	 6.9740
 2.2730	 6.9430
 2.2740	 6.9070
 2.2750	 6.8790
 2.2760	 6.8570
 2.2770	 6.8350
 2.2780	 6.8200
 2.2790	 6.8010
 2.2800	 6.7830
 2.2810	 6.7600
 2.2820	 6.7300
 2.2830	 6.7030
 2.2840	 6.6690
 2.2850	 6.6420
 2.2860	 6.6200
 2.2870	 6.5940
 2.2880	 6.5710
 2.2890	 6.5440
 2.2900	 6.5130
 2.2910	 6.4810
 2.2920	 6.4480
 2.2930	 6.4130
 2.2940	 6.3710
 2.2950	 6.3340
 2.2960	 6.2960
 2.2970	 6.2620
 2.2980	 6.2380
 2.2990	 6.2060
 2.3000	 6.1770
 2.3010	 6.1500
 2.3020	 6.1200
 2.3030	 6.0960
 2.3040	 6.0780
 2.3050	 6.0640
 2.3060	 6.0540
 2.3070	 6.0470
 2.3080	 6.0370
 2.3090	 6.0230
 2.3100	 6.0100
 2.3110	 6.0040
 2.3120	 6.0010
 2.3130	 6.0050
 2.3140	 6.0110
 2.3150	 6.0210
 2.3160	 6.0270
 2.3170	 6.0350
 2.3180	 6.0420
 2.3190	 6.0520
 2.3200	 6.0540
 2.3210	 6.0560
 2.3220	 6.0530
 2.3230	 6.0420
 2.3240	 6.0340
 2.3250	 6.0270
 2.3260	 6.0190
 2.3270	 6.0090
 2.3280	 5.9990
 2.3290	 5.9880
 2.3300	 5.9750
 2.3310	 5.9620
 2.3320	 5.9440
 2.3330	 5.9230
 2.3340	 5.9030
 2.3350	 5.8800
 2.3360	 5.8570
 2.3370	 5.8310
 2.3380	 5.8100
 2.3390	 5.7910
 2.3400	 5.7700
 2.3410	 5.7490
 2.3420	 5.7290
 2.3430	 5.7080
 2.3440	 5.6890
 2.3450	 5.6750
 2.3460	 5.6580
 2.3470	 5.6360
 2.3480	 5.6200
 2.3490	 5.6020
 2.3500	 5.5950
 2.3510	 5.5990
 2.3520	 5.6010
 2.3530	 5.6110
 2.3540	 5.6230
 2.3550	 5.6150
 2.3560	 5.6060
 2.3570	 5.5990
 2.3580	 5.5870
 2.3590	 5.5800
 2.3600	 5.5890
 2.3610	 5.5910
 2.3620	 5.5810
 2.3630	 5.5680
 2.3640	 5.5520
 2.3650	 5.5350
 2.3660	 5.5220
 2.3670	 5.5240
 2.3680	 5.5240
 2.3690	 5.5140
 2.3700	 5.5090
 2.3710	 5.4990
 2.3720	 5.4790
 2.3730	 5.4630
 2.3740	 5.4460
 2.3750	 5.4310
 2.3760	 5.4150
 2.3770	 5.3900
 2.3780	 5.3710
 2.3790	 5.3590
 2.3800	 5.3490
 2.3810	 5.3530
 2.3820	 5.3570
 2.3830	 5.3470
 2.3840	 5.3390
 2.3850	 5.3280
 2.3860	 5.3120
 2.3870	 5.3020
 2.3880	 5.2810
 2.3890	 5.2660
 2.3900	 5.2580
 2.3910	 5.2480
 2.3920	 5.2450
 2.3930	 5.2300
 2.3940	 5.2130
 2.3950	 5.2070
 2.3960	 5.2000
 2.3970	 5.2010
 2.3980	 5.2030
 2.3990	 5.1900
 2.4000	 5.1720
 2.4010	 5.1480
 2.4020	 5.1270
 2.4030	 5.1150
 2.4040	 5.0970
 2.4050	 5.0760
 2.4060	 5.0590
 2.4070	 5.0410
 2.4080	 5.0210
 2.4090	 5.0080
 2.4100	 5.0020
 2.4110	 4.9950
 2.4120	 4.9990
 2.4130	 5.0010
 2.4140	 4.9900
 2.4150	 4.9670
 2.4160	 4.9330
 2.4170	 4.9080
 2.4180	 4.8850
 2.4190	 4.8680
 2.4200	 4.8590
 2.4210	 4.8510
 2.4220	 4.8620
 2.4230	 4.8550
 2.4240	 4.8320
 2.4250	 4.8270
 2.4260	 4.8050
 2.4270	 4.7870
 2.4280	 4.7840
 2.4290	 4.7580
 2.4300	 4.7340
 2.4310	 4.7090
 2.4320	 4.6720
 2.4330	 4.6530
 2.4340	 4.6350
 2.4350	 4.6180
 2.4360	 4.6260
 2.4370	 4.6250
 2.4380	 4.6040
 2.4390	 4.6000
 2.4400	 4.5920
 2.4410	 4.5730
 2.4420	 4.5560
 2.4430	 4.5310
 2.4440	 4.5180
 2.4450	 4.4960
 2.4460	 4.4620
 2.4470	 4.4330
 2.4480	 4.3950
 2.4490	 4.3800
 2.4500	 4.3850
 2.4510	 4.3700
 2.4520	 4.3510
 2.4530	 4.3200
 2.4540	 4.2850
 2.4550	 4.2700
 2.4560	 4.2500
 2.4570	 4.2310
 2.4580	 4.2230
 2.4590	 4.2050
 2.4600	 4.1880
 2.4610	 4.1810
 2.4620	 4.1760
 2.4630	 4.1840
 2.4640	 4.1880
 2.4650	 4.1890
 2.4660	 4.1870
 2.4670	 4.1570
 2.4680	 4.1220
 2.4690	 4.1140
 2.4700	 4.0970
 2.4710	 4.1000
 2.4720	 4.0980
 2.4730	 4.0620
 2.4740	 4.0430
 2.4750	 4.0410
 2.4760	 4.0360
 2.4770	 4.0480
 2.4780	 4.0380
 2.4790	 4.0120
 2.4800	 3.9950
 2.4810	 3.9710
 2.4820	 3.9810
 2.4830	 3.9870
 2.4840	 4.0120
 2.4850	 4.0020
 2.4860	 3.9900
 2.4870	 4.0130
 2.4880	 4.0100
 2.4890	 3.9990
 2.4900	 3.9960
 2.4910	 4.0050
 2.4920	 4.0190
 2.4930	 4.0130
 2.4940	 4.0400
 2.4950	 4.0200
 2.4960	 3.9790
 2.4970	 4.0410
 2.4980	 4.0900
 2.4990	 4.1080
 2.5000	 4.1160
