Name: Betula lenta
Type: Vegetation
Class: Tree
Genus: Betula
Species: lenta
Sample No.: BELE-1-55
Owner: UCSB
Wavelength Range: VSWIR
Origin: USA; Massachusetts; Harvard Forest
Collection Date: 7/8/2013
Description: Samples were collected as part of NSF Macrosystem Biology proposal titled: Collaborative Research: Thermal controls on ecosystem metabolism and function: scaling from leaves to canopies to regions. Samples were collected and overnighted to JPL facilities for processing. The same leaves were processed in the Nicolet and then measured using the ASD.
Measurement: Bidirectional reflectance
First Column: X
Second Column: Y
X Units: Wavelength (micrometers)
Y Units: Reflectance (percentage)
First X Value: 0.35
Last X Value: 2.5
Number of X Values: 2151
Additional Information: vegetation.tree.betula.lenta.vswir.bele-1-55.ucsb.asd.ancillary.txt

 0.3500	 4.5200
 0.3510	 4.2570
 0.3520	 4.4640
 0.3530	 4.5700
 0.3540	 4.2150
 0.3550	 4.4970
 0.3560	 4.4080
 0.3570	 4.0940
 0.3580	 4.2200
 0.3590	 4.2300
 0.3600	 4.2420
 0.3610	 4.2930
 0.3620	 4.2080
 0.3630	 4.1920
 0.3640	 4.2780
 0.3650	 4.4030
 0.3660	 4.3410
 0.3670	 4.3240
 0.3680	 4.3490
 0.3690	 4.2650
 0.3700	 4.1680
 0.3710	 4.1380
 0.3720	 4.1970
 0.3730	 4.2810
 0.3740	 4.2500
 0.3750	 4.1680
 0.3760	 4.1470
 0.3770	 4.1690
 0.3780	 4.2090
 0.3790	 4.2630
 0.3800	 4.3320
 0.3810	 4.2120
 0.3820	 4.1140
 0.3830	 4.1510
 0.3840	 4.0700
 0.3850	 4.0760
 0.3860	 4.1570
 0.3870	 4.2200
 0.3880	 4.2060
 0.3890	 4.1660
 0.3900	 4.1640
 0.3910	 4.2690
 0.3920	 4.2780
 0.3930	 4.2540
 0.3940	 4.2660
 0.3950	 4.2340
 0.3960	 4.2130
 0.3970	 4.1900
 0.3980	 4.1360
 0.3990	 4.1740
 0.4000	 4.2100
 0.4010	 4.2070
 0.4020	 4.2240
 0.4030	 4.2360
 0.4040	 4.2490
 0.4050	 4.2720
 0.4060	 4.3190
 0.4070	 4.3200
 0.4080	 4.2900
 0.4090	 4.2970
 0.4100	 4.2880
 0.4110	 4.2750
 0.4120	 4.2640
 0.4130	 4.2390
 0.4140	 4.2570
 0.4150	 4.2850
 0.4160	 4.2790
 0.4170	 4.2600
 0.4180	 4.2820
 0.4190	 4.3180
 0.4200	 4.2730
 0.4210	 4.2980
 0.4220	 4.3160
 0.4230	 4.2750
 0.4240	 4.2910
 0.4250	 4.3120
 0.4260	 4.3320
 0.4270	 4.3550
 0.4280	 4.3320
 0.4290	 4.3130
 0.4300	 4.3200
 0.4310	 4.3340
 0.4320	 4.3460
 0.4330	 4.3600
 0.4340	 4.3790
 0.4350	 4.4020
 0.4360	 4.4040
 0.4370	 4.3800
 0.4380	 4.3490
 0.4390	 4.3420
 0.4400	 4.3390
 0.4410	 4.3270
 0.4420	 4.3100
 0.4430	 4.3280
 0.4440	 4.3450
 0.4450	 4.3110
 0.4460	 4.3010
 0.4470	 4.3100
 0.4480	 4.3280
 0.4490	 4.3420
 0.4500	 4.3380
 0.4510	 4.3380
 0.4520	 4.3570
 0.4530	 4.3600
 0.4540	 4.3510
 0.4550	 4.3470
 0.4560	 4.3640
 0.4570	 4.3600
 0.4580	 4.3600
 0.4590	 4.3740
 0.4600	 4.3610
 0.4610	 4.3570
 0.4620	 4.3630
 0.4630	 4.3670
 0.4640	 4.3590
 0.4650	 4.3560
 0.4660	 4.3600
 0.4670	 4.3540
 0.4680	 4.3530
 0.4690	 4.3480
 0.4700	 4.3350
 0.4710	 4.3560
 0.4720	 4.3690
 0.4730	 4.3610
 0.4740	 4.3390
 0.4750	 4.3490
 0.4760	 4.3580
 0.4770	 4.3500
 0.4780	 4.3430
 0.4790	 4.3510
 0.4800	 4.3610
 0.4810	 4.3550
 0.4820	 4.3580
 0.4830	 4.3670
 0.4840	 4.3750
 0.4850	 4.3760
 0.4860	 4.3770
 0.4870	 4.3830
 0.4880	 4.3920
 0.4890	 4.3970
 0.4900	 4.3980
 0.4910	 4.3980
 0.4920	 4.4010
 0.4930	 4.4200
 0.4940	 4.4380
 0.4950	 4.4470
 0.4960	 4.4550
 0.4970	 4.4590
 0.4980	 4.4610
 0.4990	 4.4660
 0.5000	 4.5010
 0.5010	 4.5310
 0.5020	 4.5460
 0.5030	 4.5660
 0.5040	 4.5970
 0.5050	 4.6260
 0.5060	 4.6500
 0.5070	 4.6880
 0.5080	 4.7360
 0.5090	 4.7910
 0.5100	 4.8490
 0.5110	 4.9130
 0.5120	 4.9880
 0.5130	 5.0740
 0.5140	 5.1660
 0.5150	 5.2670
 0.5160	 5.3820
 0.5170	 5.5120
 0.5180	 5.6360
 0.5190	 5.7800
 0.5200	 5.9380
 0.5210	 6.0850
 0.5220	 6.2510
 0.5230	 6.4220
 0.5240	 6.5890
 0.5250	 6.7540
 0.5260	 6.9140
 0.5270	 7.0660
 0.5280	 7.2090
 0.5290	 7.3390
 0.5300	 7.4610
 0.5310	 7.5750
 0.5320	 7.6780
 0.5330	 7.7700
 0.5340	 7.8530
 0.5350	 7.9270
 0.5360	 7.9850
 0.5370	 8.0390
 0.5380	 8.0920
 0.5390	 8.1420
 0.5400	 8.1920
 0.5410	 8.2400
 0.5420	 8.2870
 0.5430	 8.3380
 0.5440	 8.3860
 0.5450	 8.4260
 0.5460	 8.4540
 0.5470	 8.4510
 0.5480	 8.4380
 0.5490	 8.4320
 0.5500	 8.4380
 0.5510	 8.4430
 0.5520	 8.4410
 0.5530	 8.4300
 0.5540	 8.4080
 0.5550	 8.3750
 0.5560	 8.3310
 0.5570	 8.2760
 0.5580	 8.2140
 0.5590	 8.1440
 0.5600	 8.0680
 0.5610	 7.9930
 0.5620	 7.8980
 0.5630	 7.7910
 0.5640	 7.6860
 0.5650	 7.5780
 0.5660	 7.4600
 0.5670	 7.3350
 0.5680	 7.2180
 0.5690	 7.1020
 0.5700	 6.9880
 0.5710	 6.8790
 0.5720	 6.7710
 0.5730	 6.6640
 0.5740	 6.5590
 0.5750	 6.4600
 0.5760	 6.3790
 0.5770	 6.3050
 0.5780	 6.2320
 0.5790	 6.1690
 0.5800	 6.1090
 0.5810	 6.0520
 0.5820	 5.9970
 0.5830	 5.9380
 0.5840	 5.8880
 0.5850	 5.8470
 0.5860	 5.8100
 0.5870	 5.7810
 0.5880	 5.7530
 0.5890	 5.7170
 0.5900	 5.6840
 0.5910	 5.6510
 0.5920	 5.6210
 0.5930	 5.5960
 0.5940	 5.5750
 0.5950	 5.5530
 0.5960	 5.5300
 0.5970	 5.5140
 0.5980	 5.5060
 0.5990	 5.4960
 0.6000	 5.4750
 0.6010	 5.4540
 0.6020	 5.4320
 0.6030	 5.4090
 0.6040	 5.3810
 0.6050	 5.3530
 0.6060	 5.3240
 0.6070	 5.2940
 0.6080	 5.2680
 0.6090	 5.2470
 0.6100	 5.2280
 0.6110	 5.2100
 0.6120	 5.1770
 0.6130	 5.1300
 0.6140	 5.0810
 0.6150	 5.0450
 0.6160	 5.0110
 0.6170	 4.9810
 0.6180	 4.9580
 0.6190	 4.9360
 0.6200	 4.9170
 0.6210	 4.8990
 0.6220	 4.8760
 0.6230	 4.8600
 0.6240	 4.8500
 0.6250	 4.8430
 0.6260	 4.8360
 0.6270	 4.8270
 0.6280	 4.8190
 0.6290	 4.8140
 0.6300	 4.8120
 0.6310	 4.8110
 0.6320	 4.8040
 0.6330	 4.7900
 0.6340	 4.7780
 0.6350	 4.7640
 0.6360	 4.7440
 0.6370	 4.7270
 0.6380	 4.7090
 0.6390	 4.6850
 0.6400	 4.6560
 0.6410	 4.6280
 0.6420	 4.6010
 0.6430	 4.5770
 0.6440	 4.5560
 0.6450	 4.5320
 0.6460	 4.5120
 0.6470	 4.5030
 0.6480	 4.4860
 0.6490	 4.4680
 0.6500	 4.4540
 0.6510	 4.4470
 0.6520	 4.4380
 0.6530	 4.4320
 0.6540	 4.4270
 0.6550	 4.4140
 0.6560	 4.4060
 0.6570	 4.4020
 0.6580	 4.3990
 0.6590	 4.3920
 0.6600	 4.3810
 0.6610	 4.3710
 0.6620	 4.3700
 0.6630	 4.3620
 0.6640	 4.3590
 0.6650	 4.3650
 0.6660	 4.3650
 0.6670	 4.3690
 0.6680	 4.3770
 0.6690	 4.3840
 0.6700	 4.3950
 0.6710	 4.4120
 0.6720	 4.4330
 0.6730	 4.4490
 0.6740	 4.4690
 0.6750	 4.4920
 0.6760	 4.5170
 0.6770	 4.5510
 0.6780	 4.5830
 0.6790	 4.6130
 0.6800	 4.6480
 0.6810	 4.6870
 0.6820	 4.7250
 0.6830	 4.7600
 0.6840	 4.7950
 0.6850	 4.8320
 0.6860	 4.8700
 0.6870	 4.9080
 0.6880	 4.9570
 0.6890	 5.0130
 0.6900	 5.0790
 0.6910	 5.1660
 0.6920	 5.2860
 0.6930	 5.4390
 0.6940	 5.6320
 0.6950	 5.8840
 0.6960	 6.1910
 0.6970	 6.5590
 0.6980	 6.9950
 0.6990	 7.5030
 0.7000	 8.0710
 0.7010	 8.6970
 0.7020	 9.3860
 0.7030	10.1230
 0.7040	10.9000
 0.7050	11.7100
 0.7060	12.5490
 0.7070	13.4100
 0.7080	14.2870
 0.7090	15.1800
 0.7100	16.0790
 0.7110	16.9890
 0.7120	17.9070
 0.7130	18.8180
 0.7140	19.7270
 0.7150	20.6390
 0.7160	21.5490
 0.7170	22.4430
 0.7180	23.3290
 0.7190	24.2030
 0.7200	25.0590
 0.7210	25.8940
 0.7220	26.7140
 0.7230	27.5170
 0.7240	28.2900
 0.7250	29.0240
 0.7260	29.7310
 0.7270	30.4200
 0.7280	31.0860
 0.7290	31.7090
 0.7300	32.3010
 0.7310	32.8780
 0.7320	33.4080
 0.7330	33.9060
 0.7340	34.3810
 0.7350	34.8330
 0.7360	35.2570
 0.7370	35.6500
 0.7380	36.0150
 0.7390	36.3690
 0.7400	36.6870
 0.7410	36.9750
 0.7420	37.2520
 0.7430	37.5090
 0.7440	37.7370
 0.7450	37.9400
 0.7460	38.1390
 0.7470	38.3280
 0.7480	38.4900
 0.7490	38.6230
 0.7500	38.7530
 0.7510	38.8760
 0.7520	38.9830
 0.7530	39.0720
 0.7540	39.1610
 0.7550	39.2370
 0.7560	39.3000
 0.7570	39.3610
 0.7580	39.4100
 0.7590	39.4580
 0.7600	39.5090
 0.7610	39.5430
 0.7620	39.5700
 0.7630	39.5930
 0.7640	39.6110
 0.7650	39.6260
 0.7660	39.6430
 0.7670	39.6590
 0.7680	39.6720
 0.7690	39.6750
 0.7700	39.6810
 0.7710	39.6930
 0.7720	39.6950
 0.7730	39.6980
 0.7740	39.7000
 0.7750	39.7000
 0.7760	39.7000
 0.7770	39.7020
 0.7780	39.7040
 0.7790	39.7040
 0.7800	39.7080
 0.7810	39.7140
 0.7820	39.7180
 0.7830	39.7220
 0.7840	39.7210
 0.7850	39.7180
 0.7860	39.7150
 0.7870	39.7190
 0.7880	39.7250
 0.7890	39.7280
 0.7900	39.7260
 0.7910	39.7250
 0.7920	39.7230
 0.7930	39.7210
 0.7940	39.7220
 0.7950	39.7210
 0.7960	39.7200
 0.7970	39.7200
 0.7980	39.7150
 0.7990	39.7120
 0.8000	39.7130
 0.8010	39.7170
 0.8020	39.7160
 0.8030	39.7120
 0.8040	39.7130
 0.8050	39.7220
 0.8060	39.7120
 0.8070	39.6930
 0.8080	39.6810
 0.8090	39.6920
 0.8100	39.7010
 0.8110	39.6950
 0.8120	39.6770
 0.8130	39.6620
 0.8140	39.6660
 0.8150	39.6710
 0.8160	39.6610
 0.8170	39.6620
 0.8180	39.6510
 0.8190	39.6390
 0.8200	39.6450
 0.8210	39.6390
 0.8220	39.6280
 0.8230	39.6230
 0.8240	39.6270
 0.8250	39.6240
 0.8260	39.6130
 0.8270	39.6020
 0.8280	39.5930
 0.8290	39.5880
 0.8300	39.5880
 0.8310	39.5870
 0.8320	39.5700
 0.8330	39.5580
 0.8340	39.5550
 0.8350	39.5600
 0.8360	39.5590
 0.8370	39.5550
 0.8380	39.5480
 0.8390	39.5410
 0.8400	39.5350
 0.8410	39.5280
 0.8420	39.5250
 0.8430	39.5420
 0.8440	39.5320
 0.8450	39.5120
 0.8460	39.5050
 0.8470	39.5070
 0.8480	39.5020
 0.8490	39.4990
 0.8500	39.5060
 0.8510	39.5030
 0.8520	39.4990
 0.8530	39.4930
 0.8540	39.4810
 0.8550	39.4800
 0.8560	39.4830
 0.8570	39.4840
 0.8580	39.4760
 0.8590	39.4790
 0.8600	39.4810
 0.8610	39.4760
 0.8620	39.4740
 0.8630	39.4740
 0.8640	39.4700
 0.8650	39.4630
 0.8660	39.4700
 0.8670	39.4710
 0.8680	39.4650
 0.8690	39.4550
 0.8700	39.4510
 0.8710	39.4520
 0.8720	39.4520
 0.8730	39.4500
 0.8740	39.4530
 0.8750	39.4580
 0.8760	39.4570
 0.8770	39.4510
 0.8780	39.4520
 0.8790	39.4470
 0.8800	39.4380
 0.8810	39.4470
 0.8820	39.4470
 0.8830	39.4380
 0.8840	39.4290
 0.8850	39.4350
 0.8860	39.4460
 0.8870	39.4440
 0.8880	39.4240
 0.8890	39.4300
 0.8900	39.4310
 0.8910	39.4270
 0.8920	39.4270
 0.8930	39.4320
 0.8940	39.4300
 0.8950	39.4160
 0.8960	39.4030
 0.8970	39.4190
 0.8980	39.4300
 0.8990	39.4240
 0.9000	39.4230
 0.9010	39.4190
 0.9020	39.4140
 0.9030	39.4110
 0.9040	39.4120
 0.9050	39.4120
 0.9060	39.4100
 0.9070	39.4060
 0.9080	39.4060
 0.9090	39.4040
 0.9100	39.4040
 0.9110	39.4070
 0.9120	39.4020
 0.9130	39.4140
 0.9140	39.4190
 0.9150	39.3980
 0.9160	39.4010
 0.9170	39.4020
 0.9180	39.3970
 0.9190	39.3930
 0.9200	39.3890
 0.9210	39.3910
 0.9220	39.3930
 0.9230	39.3870
 0.9240	39.3800
 0.9250	39.3670
 0.9260	39.3510
 0.9270	39.3390
 0.9280	39.3290
 0.9290	39.3330
 0.9300	39.3480
 0.9310	39.3510
 0.9320	39.3450
 0.9330	39.3290
 0.9340	39.3070
 0.9350	39.2860
 0.9360	39.2660
 0.9370	39.2600
 0.9380	39.2660
 0.9390	39.2600
 0.9400	39.2610
 0.9410	39.2470
 0.9420	39.2170
 0.9430	39.2090
 0.9440	39.1870
 0.9450	39.1700
 0.9460	39.1700
 0.9470	39.1570
 0.9480	39.1350
 0.9490	39.1170
 0.9500	39.1050
 0.9510	39.0660
 0.9520	39.0410
 0.9530	39.0170
 0.9540	38.9790
 0.9550	38.9500
 0.9560	38.9370
 0.9570	38.9310
 0.9580	38.9150
 0.9590	38.8780
 0.9600	38.8550
 0.9610	38.8400
 0.9620	38.8160
 0.9630	38.7910
 0.9640	38.7760
 0.9650	38.7790
 0.9660	38.7940
 0.9670	38.7700
 0.9680	38.7480
 0.9690	38.7410
 0.9700	38.7480
 0.9710	38.7500
 0.9720	38.7420
 0.9730	38.7290
 0.9740	38.7170
 0.9750	38.7180
 0.9760	38.7330
 0.9770	38.7440
 0.9780	38.7360
 0.9790	38.7400
 0.9800	38.7310
 0.9810	38.7080
 0.9820	38.6930
 0.9830	38.7120
 0.9840	38.7150
 0.9850	38.7070
 0.9860	38.7160
 0.9870	38.7230
 0.9880	38.7280
 0.9890	38.7360
 0.9900	38.7530
 0.9910	38.7560
 0.9920	38.7680
 0.9930	38.7800
 0.9940	38.7910
 0.9950	38.8030
 0.9960	38.8150
 0.9970	38.8260
 0.9980	38.8380
 0.9990	38.8500
 1.0000	38.8610
 1.0010	38.8730
 1.0020	38.8850
 1.0030	38.8960
 1.0040	38.9080
 1.0050	38.9200
 1.0060	38.9320
 1.0070	38.9430
 1.0080	38.9550
 1.0090	38.9670
 1.0100	38.9670
 1.0110	38.9740
 1.0120	38.9790
 1.0130	38.9700
 1.0140	38.9740
 1.0150	38.9820
 1.0160	38.9900
 1.0170	39.0020
 1.0180	39.0130
 1.0190	39.0190
 1.0200	39.0300
 1.0210	39.0300
 1.0220	39.0340
 1.0230	39.0410
 1.0240	39.0480
 1.0250	39.0520
 1.0260	39.0600
 1.0270	39.0630
 1.0280	39.0550
 1.0290	39.0580
 1.0300	39.0680
 1.0310	39.0740
 1.0320	39.0860
 1.0330	39.0900
 1.0340	39.0880
 1.0350	39.0880
 1.0360	39.0900
 1.0370	39.0970
 1.0380	39.1020
 1.0390	39.1060
 1.0400	39.1160
 1.0410	39.1330
 1.0420	39.1370
 1.0430	39.1400
 1.0440	39.1440
 1.0450	39.1400
 1.0460	39.1380
 1.0470	39.1400
 1.0480	39.1440
 1.0490	39.1500
 1.0500	39.1510
 1.0510	39.1570
 1.0520	39.1600
 1.0530	39.1590
 1.0540	39.1500
 1.0550	39.1490
 1.0560	39.1500
 1.0570	39.1520
 1.0580	39.1560
 1.0590	39.1570
 1.0600	39.1570
 1.0610	39.1580
 1.0620	39.1580
 1.0630	39.1590
 1.0640	39.1650
 1.0650	39.1650
 1.0660	39.1620
 1.0670	39.1590
 1.0680	39.1560
 1.0690	39.1470
 1.0700	39.1470
 1.0710	39.1500
 1.0720	39.1510
 1.0730	39.1560
 1.0740	39.1570
 1.0750	39.1590
 1.0760	39.1580
 1.0770	39.1550
 1.0780	39.1520
 1.0790	39.1430
 1.0800	39.1390
 1.0810	39.1370
 1.0820	39.1320
 1.0830	39.1280
 1.0840	39.1240
 1.0850	39.1200
 1.0860	39.1120
 1.0870	39.1080
 1.0880	39.1060
 1.0890	39.1030
 1.0900	39.1010
 1.0910	39.0970
 1.0920	39.0920
 1.0930	39.0860
 1.0940	39.0780
 1.0950	39.0700
 1.0960	39.0610
 1.0970	39.0540
 1.0980	39.0460
 1.0990	39.0400
 1.1000	39.0360
 1.1010	39.0320
 1.1020	39.0260
 1.1030	39.0240
 1.1040	39.0210
 1.1050	39.0140
 1.1060	39.0080
 1.1070	39.0020
 1.1080	38.9940
 1.1090	38.9840
 1.1100	38.9740
 1.1110	38.9610
 1.1120	38.9510
 1.1130	38.9410
 1.1140	38.9320
 1.1150	38.9290
 1.1160	38.9200
 1.1170	38.9090
 1.1180	38.8980
 1.1190	38.8850
 1.1200	38.8710
 1.1210	38.8550
 1.1220	38.8420
 1.1230	38.8310
 1.1240	38.8150
 1.1250	38.7980
 1.1260	38.7830
 1.1270	38.7600
 1.1280	38.7300
 1.1290	38.7020
 1.1300	38.6700
 1.1310	38.6370
 1.1320	38.6030
 1.1330	38.5630
 1.1340	38.5200
 1.1350	38.4730
 1.1360	38.4210
 1.1370	38.3670
 1.1380	38.3180
 1.1390	38.2640
 1.1400	38.2060
 1.1410	38.1490
 1.1420	38.0910
 1.1430	38.0320
 1.1440	37.9750
 1.1450	37.9210
 1.1460	37.8650
 1.1470	37.8060
 1.1480	37.7510
 1.1490	37.6970
 1.1500	37.6460
 1.1510	37.5960
 1.1520	37.5520
 1.1530	37.5140
 1.1540	37.4780
 1.1550	37.4430
 1.1560	37.4140
 1.1570	37.3910
 1.1580	37.3700
 1.1590	37.3540
 1.1600	37.3420
 1.1610	37.3290
 1.1620	37.3150
 1.1630	37.3030
 1.1640	37.2930
 1.1650	37.2860
 1.1660	37.2820
 1.1670	37.2770
 1.1680	37.2750
 1.1690	37.2730
 1.1700	37.2710
 1.1710	37.2670
 1.1720	37.2600
 1.1730	37.2540
 1.1740	37.2450
 1.1750	37.2390
 1.1760	37.2350
 1.1770	37.2320
 1.1780	37.2270
 1.1790	37.2180
 1.1800	37.2090
 1.1810	37.2020
 1.1820	37.1970
 1.1830	37.1930
 1.1840	37.1870
 1.1850	37.1790
 1.1860	37.1700
 1.1870	37.1650
 1.1880	37.1610
 1.1890	37.1580
 1.1900	37.1550
 1.1910	37.1560
 1.1920	37.1550
 1.1930	37.1560
 1.1940	37.1560
 1.1950	37.1560
 1.1960	37.1510
 1.1970	37.1460
 1.1980	37.1470
 1.1990	37.1500
 1.2000	37.1510
 1.2010	37.1550
 1.2020	37.1570
 1.2030	37.1570
 1.2040	37.1600
 1.2050	37.1650
 1.2060	37.1710
 1.2070	37.1790
 1.2080	37.1850
 1.2090	37.1920
 1.2100	37.2020
 1.2110	37.2090
 1.2120	37.2170
 1.2130	37.2240
 1.2140	37.2270
 1.2150	37.2340
 1.2160	37.2440
 1.2170	37.2550
 1.2180	37.2690
 1.2190	37.2830
 1.2200	37.2950
 1.2210	37.3100
 1.2220	37.3220
 1.2230	37.3280
 1.2240	37.3380
 1.2250	37.3460
 1.2260	37.3520
 1.2270	37.3620
 1.2280	37.3720
 1.2290	37.3800
 1.2300	37.3890
 1.2310	37.3990
 1.2320	37.4080
 1.2330	37.4150
 1.2340	37.4230
 1.2350	37.4330
 1.2360	37.4390
 1.2370	37.4410
 1.2380	37.4490
 1.2390	37.4570
 1.2400	37.4630
 1.2410	37.4740
 1.2420	37.4820
 1.2430	37.4870
 1.2440	37.4900
 1.2450	37.4930
 1.2460	37.4970
 1.2470	37.4980
 1.2480	37.4990
 1.2490	37.5020
 1.2500	37.5040
 1.2510	37.5060
 1.2520	37.5130
 1.2530	37.5150
 1.2540	37.5180
 1.2550	37.5250
 1.2560	37.5290
 1.2570	37.5340
 1.2580	37.5380
 1.2590	37.5400
 1.2600	37.5380
 1.2610	37.5390
 1.2620	37.5390
 1.2630	37.5380
 1.2640	37.5350
 1.2650	37.5280
 1.2660	37.5230
 1.2670	37.5180
 1.2680	37.5160
 1.2690	37.5140
 1.2700	37.5100
 1.2710	37.5060
 1.2720	37.5000
 1.2730	37.4970
 1.2740	37.4960
 1.2750	37.4940
 1.2760	37.4940
 1.2770	37.4890
 1.2780	37.4830
 1.2790	37.4750
 1.2800	37.4650
 1.2810	37.4550
 1.2820	37.4440
 1.2830	37.4320
 1.2840	37.4190
 1.2850	37.4080
 1.2860	37.3980
 1.2870	37.3870
 1.2880	37.3760
 1.2890	37.3640
 1.2900	37.3520
 1.2910	37.3400
 1.2920	37.3250
 1.2930	37.3060
 1.2940	37.2870
 1.2950	37.2690
 1.2960	37.2490
 1.2970	37.2300
 1.2980	37.2090
 1.2990	37.1840
 1.3000	37.1600
 1.3010	37.1390
 1.3020	37.1180
 1.3030	37.0930
 1.3040	37.0640
 1.3050	37.0320
 1.3060	36.9980
 1.3070	36.9650
 1.3080	36.9300
 1.3090	36.8950
 1.3100	36.8600
 1.3110	36.8200
 1.3120	36.7790
 1.3130	36.7380
 1.3140	36.6960
 1.3150	36.6510
 1.3160	36.6070
 1.3170	36.5630
 1.3180	36.5170
 1.3190	36.4660
 1.3200	36.4130
 1.3210	36.3600
 1.3220	36.3050
 1.3230	36.2490
 1.3240	36.1910
 1.3250	36.1320
 1.3260	36.0740
 1.3270	36.0170
 1.3280	35.9610
 1.3290	35.9010
 1.3300	35.8400
 1.3310	35.7770
 1.3320	35.7110
 1.3330	35.6460
 1.3340	35.5820
 1.3350	35.5170
 1.3360	35.4520
 1.3370	35.3840
 1.3380	35.3170
 1.3390	35.2490
 1.3400	35.1790
 1.3410	35.1090
 1.3420	35.0410
 1.3430	34.9740
 1.3440	34.9070
 1.3450	34.8390
 1.3460	34.7730
 1.3470	34.7060
 1.3480	34.6370
 1.3490	34.5700
 1.3500	34.5040
 1.3510	34.4390
 1.3520	34.3760
 1.3530	34.3090
 1.3540	34.2430
 1.3550	34.1760
 1.3560	34.1070
 1.3570	34.0380
 1.3580	33.9690
 1.3590	33.8980
 1.3600	33.8270
 1.3610	33.7540
 1.3620	33.6790
 1.3630	33.6000
 1.3640	33.5110
 1.3650	33.4180
 1.3660	33.3170
 1.3670	33.2100
 1.3680	33.1040
 1.3690	32.9890
 1.3700	32.8650
 1.3710	32.7360
 1.3720	32.5960
 1.3730	32.4480
 1.3740	32.2900
 1.3750	32.1180
 1.3760	31.9330
 1.3770	31.7310
 1.3780	31.5090
 1.3790	31.2750
 1.3800	31.0230
 1.3810	30.7530
 1.3820	30.4700
 1.3830	30.1760
 1.3840	29.8650
 1.3850	29.5400
 1.3860	29.2040
 1.3870	28.8510
 1.3880	28.4920
 1.3890	28.1210
 1.3900	27.7400
 1.3910	27.3560
 1.3920	26.9630
 1.3930	26.5600
 1.3940	26.1570
 1.3950	25.7480
 1.3960	25.3390
 1.3970	24.9350
 1.3980	24.5350
 1.3990	24.1440
 1.4000	23.7630
 1.4010	23.3890
 1.4020	23.0280
 1.4030	22.6760
 1.4040	22.3390
 1.4050	22.0170
 1.4060	21.7090
 1.4070	21.4200
 1.4080	21.1430
 1.4090	20.8800
 1.4100	20.6350
 1.4110	20.4050
 1.4120	20.1910
 1.4130	19.9900
 1.4140	19.8030
 1.4150	19.6330
 1.4160	19.4750
 1.4170	19.3310
 1.4180	19.2030
 1.4190	19.0820
 1.4200	18.9700
 1.4210	18.8690
 1.4220	18.7750
 1.4230	18.6920
 1.4240	18.6180
 1.4250	18.5510
 1.4260	18.4930
 1.4270	18.4410
 1.4280	18.3980
 1.4290	18.3580
 1.4300	18.3230
 1.4310	18.2940
 1.4320	18.2700
 1.4330	18.2500
 1.4340	18.2340
 1.4350	18.2230
 1.4360	18.2160
 1.4370	18.2120
 1.4380	18.2110
 1.4390	18.2140
 1.4400	18.2180
 1.4410	18.2270
 1.4420	18.2390
 1.4430	18.2520
 1.4440	18.2690
 1.4450	18.2860
 1.4460	18.3040
 1.4470	18.3250
 1.4480	18.3440
 1.4490	18.3640
 1.4500	18.3860
 1.4510	18.4090
 1.4520	18.4340
 1.4530	18.4610
 1.4540	18.4890
 1.4550	18.5200
 1.4560	18.5510
 1.4570	18.5850
 1.4580	18.6240
 1.4590	18.6630
 1.4600	18.7060
 1.4610	18.7550
 1.4620	18.8070
 1.4630	18.8640
 1.4640	18.9260
 1.4650	18.9920
 1.4660	19.0610
 1.4670	19.1360
 1.4680	19.2150
 1.4690	19.2980
 1.4700	19.3840
 1.4710	19.4730
 1.4720	19.5660
 1.4730	19.6640
 1.4740	19.7640
 1.4750	19.8650
 1.4760	19.9690
 1.4770	20.0740
 1.4780	20.1800
 1.4790	20.2890
 1.4800	20.3980
 1.4810	20.5080
 1.4820	20.6220
 1.4830	20.7340
 1.4840	20.8470
 1.4850	20.9610
 1.4860	21.0730
 1.4870	21.1870
 1.4880	21.2980
 1.4890	21.4090
 1.4900	21.5200
 1.4910	21.6310
 1.4920	21.7440
 1.4930	21.8590
 1.4940	21.9720
 1.4950	22.0840
 1.4960	22.1960
 1.4970	22.3070
 1.4980	22.4190
 1.4990	22.5300
 1.5000	22.6410
 1.5010	22.7520
 1.5020	22.8620
 1.5030	22.9750
 1.5040	23.0850
 1.5050	23.1940
 1.5060	23.3030
 1.5070	23.4110
 1.5080	23.5180
 1.5090	23.6240
 1.5100	23.7290
 1.5110	23.8340
 1.5120	23.9380
 1.5130	24.0390
 1.5140	24.1410
 1.5150	24.2410
 1.5160	24.3410
 1.5170	24.4430
 1.5180	24.5430
 1.5190	24.6420
 1.5200	24.7390
 1.5210	24.8340
 1.5220	24.9280
 1.5230	25.0210
 1.5240	25.1130
 1.5250	25.2050
 1.5260	25.2950
 1.5270	25.3840
 1.5280	25.4730
 1.5290	25.5600
 1.5300	25.6440
 1.5310	25.7290
 1.5320	25.8130
 1.5330	25.8970
 1.5340	25.9820
 1.5350	26.0640
 1.5360	26.1420
 1.5370	26.2200
 1.5380	26.2950
 1.5390	26.3690
 1.5400	26.4430
 1.5410	26.5180
 1.5420	26.5930
 1.5430	26.6670
 1.5440	26.7420
 1.5450	26.8140
 1.5460	26.8860
 1.5470	26.9600
 1.5480	27.0330
 1.5490	27.1050
 1.5500	27.1770
 1.5510	27.2460
 1.5520	27.3140
 1.5530	27.3800
 1.5540	27.4460
 1.5550	27.5120
 1.5560	27.5750
 1.5570	27.6400
 1.5580	27.7020
 1.5590	27.7630
 1.5600	27.8250
 1.5610	27.8850
 1.5620	27.9430
 1.5630	28.0010
 1.5640	28.0550
 1.5650	28.1090
 1.5660	28.1630
 1.5670	28.2130
 1.5680	28.2650
 1.5690	28.3170
 1.5700	28.3680
 1.5710	28.4190
 1.5720	28.4670
 1.5730	28.5150
 1.5740	28.5620
 1.5750	28.6100
 1.5760	28.6590
 1.5770	28.7060
 1.5780	28.7520
 1.5790	28.7980
 1.5800	28.8430
 1.5810	28.8890
 1.5820	28.9350
 1.5830	28.9810
 1.5840	29.0270
 1.5850	29.0710
 1.5860	29.1160
 1.5870	29.1620
 1.5880	29.2070
 1.5890	29.2510
 1.5900	29.2930
 1.5910	29.3330
 1.5920	29.3740
 1.5930	29.4120
 1.5940	29.4520
 1.5950	29.4930
 1.5960	29.5310
 1.5970	29.5720
 1.5980	29.6110
 1.5990	29.6490
 1.6000	29.6860
 1.6010	29.7160
 1.6020	29.7480
 1.6030	29.7820
 1.6040	29.8130
 1.6050	29.8470
 1.6060	29.8800
 1.6070	29.9100
 1.6080	29.9410
 1.6090	29.9720
 1.6100	30.0030
 1.6110	30.0350
 1.6120	30.0660
 1.6130	30.0950
 1.6140	30.1210
 1.6150	30.1480
 1.6160	30.1750
 1.6170	30.2000
 1.6180	30.2300
 1.6190	30.2580
 1.6200	30.2800
 1.6210	30.3060
 1.6220	30.3290
 1.6230	30.3500
 1.6240	30.3740
 1.6250	30.3960
 1.6260	30.4180
 1.6270	30.4430
 1.6280	30.4680
 1.6290	30.4910
 1.6300	30.5110
 1.6310	30.5330
 1.6320	30.5540
 1.6330	30.5740
 1.6340	30.5960
 1.6350	30.6160
 1.6360	30.6340
 1.6370	30.6510
 1.6380	30.6650
 1.6390	30.6800
 1.6400	30.6960
 1.6410	30.7120
 1.6420	30.7320
 1.6430	30.7470
 1.6440	30.7590
 1.6450	30.7690
 1.6460	30.7790
 1.6470	30.7910
 1.6480	30.8010
 1.6490	30.8110
 1.6500	30.8170
 1.6510	30.8190
 1.6520	30.8200
 1.6530	30.8210
 1.6540	30.8200
 1.6550	30.8180
 1.6560	30.8190
 1.6570	30.8150
 1.6580	30.8100
 1.6590	30.8020
 1.6600	30.7920
 1.6610	30.7850
 1.6620	30.7800
 1.6630	30.7750
 1.6640	30.7700
 1.6650	30.7620
 1.6660	30.7540
 1.6670	30.7470
 1.6680	30.7400
 1.6690	30.7310
 1.6700	30.7190
 1.6710	30.7070
 1.6720	30.6950
 1.6730	30.6840
 1.6740	30.6730
 1.6750	30.6590
 1.6760	30.6400
 1.6770	30.6230
 1.6780	30.6050
 1.6790	30.5850
 1.6800	30.5650
 1.6810	30.5450
 1.6820	30.5220
 1.6830	30.5000
 1.6840	30.4800
 1.6850	30.4550
 1.6860	30.4270
 1.6870	30.4000
 1.6880	30.3730
 1.6890	30.3510
 1.6900	30.3240
 1.6910	30.2980
 1.6920	30.2730
 1.6930	30.2440
 1.6940	30.2170
 1.6950	30.1910
 1.6960	30.1630
 1.6970	30.1300
 1.6980	30.1010
 1.6990	30.0750
 1.7000	30.0460
 1.7010	30.0180
 1.7020	29.9890
 1.7030	29.9560
 1.7040	29.9260
 1.7050	29.8980
 1.7060	29.8700
 1.7070	29.8440
 1.7080	29.8150
 1.7090	29.7850
 1.7100	29.7540
 1.7110	29.7210
 1.7120	29.6900
 1.7130	29.6610
 1.7140	29.6290
 1.7150	29.5960
 1.7160	29.5620
 1.7170	29.5260
 1.7180	29.4880
 1.7190	29.4510
 1.7200	29.4170
 1.7210	29.3830
 1.7220	29.3530
 1.7230	29.3250
 1.7240	29.2910
 1.7250	29.2560
 1.7260	29.2180
 1.7270	29.1800
 1.7280	29.1450
 1.7290	29.1100
 1.7300	29.0790
 1.7310	29.0480
 1.7320	29.0180
 1.7330	28.9900
 1.7340	28.9630
 1.7350	28.9370
 1.7360	28.9130
 1.7370	28.8880
 1.7380	28.8660
 1.7390	28.8380
 1.7400	28.8060
 1.7410	28.7740
 1.7420	28.7370
 1.7430	28.7030
 1.7440	28.6730
 1.7450	28.6360
 1.7460	28.5940
 1.7470	28.5530
 1.7480	28.5080
 1.7490	28.4660
 1.7500	28.4270
 1.7510	28.3860
 1.7520	28.3440
 1.7530	28.3010
 1.7540	28.2560
 1.7550	28.2110
 1.7560	28.1660
 1.7570	28.1210
 1.7580	28.0780
 1.7590	28.0310
 1.7600	27.9840
 1.7610	27.9440
 1.7620	27.9040
 1.7630	27.8680
 1.7640	27.8330
 1.7650	27.7950
 1.7660	27.7590
 1.7670	27.7280
 1.7680	27.6950
 1.7690	27.6620
 1.7700	27.6300
 1.7710	27.5990
 1.7720	27.5700
 1.7730	27.5470
 1.7740	27.5190
 1.7750	27.4910
 1.7760	27.4650
 1.7770	27.4370
 1.7780	27.4140
 1.7790	27.3970
 1.7800	27.3770
 1.7810	27.3570
 1.7820	27.3410
 1.7830	27.3260
 1.7840	27.3100
 1.7850	27.2940
 1.7860	27.2770
 1.7870	27.2570
 1.7880	27.2410
 1.7890	27.2300
 1.7900	27.2240
 1.7910	27.2170
 1.7920	27.2130
 1.7930	27.2090
 1.7940	27.2050
 1.7950	27.2000
 1.7960	27.1950
 1.7970	27.1930
 1.7980	27.1920
 1.7990	27.1920
 1.8000	27.1970
 1.8010	27.1970
 1.8020	27.1970
 1.8030	27.1930
 1.8040	27.1850
 1.8050	27.1810
 1.8060	27.1790
 1.8070	27.1750
 1.8080	27.1740
 1.8090	27.1730
 1.8100	27.1700
 1.8110	27.1660
 1.8120	27.1650
 1.8130	27.1610
 1.8140	27.1560
 1.8150	27.1530
 1.8160	27.1480
 1.8170	27.1410
 1.8180	27.1400
 1.8190	27.1430
 1.8200	27.1430
 1.8210	27.1450
 1.8220	27.1410
 1.8230	27.1290
 1.8240	27.1200
 1.8250	27.1120
 1.8260	27.0980
 1.8270	27.0570
 1.8280	27.0160
 1.8290	26.9740
 1.8300	26.9330
 1.8310	26.8920
 1.8320	26.8510
 1.8330	26.8100
 1.8340	26.7690
 1.8350	26.7690
 1.8360	26.7330
 1.8370	26.6910
 1.8380	26.6570
 1.8390	26.6120
 1.8400	26.5620
 1.8410	26.5090
 1.8420	26.4560
 1.8430	26.3890
 1.8440	26.3150
 1.8450	26.2390
 1.8460	26.1530
 1.8470	26.0590
 1.8480	25.9650
 1.8490	25.8650
 1.8500	25.7540
 1.8510	25.6350
 1.8520	25.5090
 1.8530	25.3710
 1.8540	25.2180
 1.8550	25.0550
 1.8560	24.8830
 1.8570	24.6970
 1.8580	24.5060
 1.8590	24.2990
 1.8600	24.0820
 1.8610	23.8440
 1.8620	23.5960
 1.8630	23.3300
 1.8640	23.0410
 1.8650	22.7430
 1.8660	22.4300
 1.8670	22.0880
 1.8680	21.7320
 1.8690	21.3610
 1.8700	20.9680
 1.8710	20.5530
 1.8720	20.1250
 1.8730	19.6810
 1.8740	19.2180
 1.8750	18.7380
 1.8760	18.2440
 1.8770	17.7460
 1.8780	17.2440
 1.8790	16.7320
 1.8800	16.2220
 1.8810	15.7130
 1.8820	15.1970
 1.8830	14.6760
 1.8840	14.1610
 1.8850	13.6380
 1.8860	13.1200
 1.8870	12.6110
 1.8880	12.1100
 1.8890	11.6350
 1.8900	11.1770
 1.8910	10.7390
 1.8920	10.3190
 1.8930	 9.9230
 1.8940	 9.5420
 1.8950	 9.1900
 1.8960	 8.8620
 1.8970	 8.5540
 1.8980	 8.2700
 1.8990	 8.0010
 1.9000	 7.7530
 1.9010	 7.5260
 1.9020	 7.3190
 1.9030	 7.1340
 1.9040	 6.9680
 1.9050	 6.8190
 1.9060	 6.6890
 1.9070	 6.5710
 1.9080	 6.4660
 1.9090	 6.3720
 1.9100	 6.2890
 1.9110	 6.2160
 1.9120	 6.1590
 1.9130	 6.1030
 1.9140	 6.0570
 1.9150	 6.0140
 1.9160	 5.9800
 1.9170	 5.9490
 1.9180	 5.9250
 1.9190	 5.9090
 1.9200	 5.8920
 1.9210	 5.8810
 1.9220	 5.8730
 1.9230	 5.8690
 1.9240	 5.8680
 1.9250	 5.8710
 1.9260	 5.8780
 1.9270	 5.8870
 1.9280	 5.8990
 1.9290	 5.9140
 1.9300	 5.9280
 1.9310	 5.9440
 1.9320	 5.9640
 1.9330	 5.9850
 1.9340	 6.0080
 1.9350	 6.0340
 1.9360	 6.0630
 1.9370	 6.0950
 1.9380	 6.1310
 1.9390	 6.1670
 1.9400	 6.2020
 1.9410	 6.2390
 1.9420	 6.2730
 1.9430	 6.3060
 1.9440	 6.3490
 1.9450	 6.3970
 1.9460	 6.4450
 1.9470	 6.5010
 1.9480	 6.5560
 1.9490	 6.6130
 1.9500	 6.6660
 1.9510	 6.7240
 1.9520	 6.7830
 1.9530	 6.8420
 1.9540	 6.9040
 1.9550	 6.9650
 1.9560	 7.0250
 1.9570	 7.0870
 1.9580	 7.1500
 1.9590	 7.2130
 1.9600	 7.2770
 1.9610	 7.3430
 1.9620	 7.4090
 1.9630	 7.4770
 1.9640	 7.5480
 1.9650	 7.6230
 1.9660	 7.7030
 1.9670	 7.7810
 1.9680	 7.8570
 1.9690	 7.9330
 1.9700	 8.0090
 1.9710	 8.0810
 1.9720	 8.1560
 1.9730	 8.2340
 1.9740	 8.3120
 1.9750	 8.3860
 1.9760	 8.4700
 1.9770	 8.5570
 1.9780	 8.6420
 1.9790	 8.7280
 1.9800	 8.8170
 1.9810	 8.9030
 1.9820	 8.9850
 1.9830	 9.0730
 1.9840	 9.1650
 1.9850	 9.2530
 1.9860	 9.3420
 1.9870	 9.4320
 1.9880	 9.5210
 1.9890	 9.6060
 1.9900	 9.6900
 1.9910	 9.7790
 1.9920	 9.8680
 1.9930	 9.9550
 1.9940	10.0470
 1.9950	10.1470
 1.9960	10.2410
 1.9970	10.3350
 1.9980	10.4280
 1.9990	10.5190
 2.0000	10.6080
 2.0010	10.7030
 2.0020	10.7980
 2.0030	10.8840
 2.0040	10.9710
 2.0050	11.0580
 2.0060	11.1390
 2.0070	11.2270
 2.0080	11.3230
 2.0090	11.4110
 2.0100	11.4960
 2.0110	11.5810
 2.0120	11.6640
 2.0130	11.7460
 2.0140	11.8260
 2.0150	11.9070
 2.0160	11.9830
 2.0170	12.0610
 2.0180	12.1410
 2.0190	12.2240
 2.0200	12.3050
 2.0210	12.3880
 2.0220	12.4680
 2.0230	12.5460
 2.0240	12.6240
 2.0250	12.7000
 2.0260	12.7760
 2.0270	12.8500
 2.0280	12.9280
 2.0290	13.0010
 2.0300	13.0710
 2.0310	13.1400
 2.0320	13.2040
 2.0330	13.2700
 2.0340	13.3380
 2.0350	13.4050
 2.0360	13.4730
 2.0370	13.5370
 2.0380	13.5960
 2.0390	13.6590
 2.0400	13.7250
 2.0410	13.7840
 2.0420	13.8400
 2.0430	13.8960
 2.0440	13.9520
 2.0450	13.9990
 2.0460	14.0540
 2.0470	14.1130
 2.0480	14.1710
 2.0490	14.2310
 2.0500	14.2890
 2.0510	14.3490
 2.0520	14.4070
 2.0530	14.4620
 2.0540	14.5180
 2.0550	14.5730
 2.0560	14.6300
 2.0570	14.6890
 2.0580	14.7450
 2.0590	14.8040
 2.0600	14.8640
 2.0610	14.9240
 2.0620	14.9840
 2.0630	15.0460
 2.0640	15.1080
 2.0650	15.1700
 2.0660	15.2300
 2.0670	15.2920
 2.0680	15.3530
 2.0690	15.4140
 2.0700	15.4800
 2.0710	15.5410
 2.0720	15.6000
 2.0730	15.6580
 2.0740	15.7180
 2.0750	15.7750
 2.0760	15.8350
 2.0770	15.9020
 2.0780	15.9620
 2.0790	16.0200
 2.0800	16.0790
 2.0810	16.1360
 2.0820	16.1940
 2.0830	16.2550
 2.0840	16.3100
 2.0850	16.3610
 2.0860	16.4130
 2.0870	16.4600
 2.0880	16.5110
 2.0890	16.5630
 2.0900	16.6180
 2.0910	16.6740
 2.0920	16.7360
 2.0930	16.7900
 2.0940	16.8440
 2.0950	16.8960
 2.0960	16.9420
 2.0970	16.9910
 2.0980	17.0420
 2.0990	17.0940
 2.1000	17.1480
 2.1010	17.2000
 2.1020	17.2500
 2.1030	17.3020
 2.1040	17.3530
 2.1050	17.4040
 2.1060	17.4520
 2.1070	17.5000
 2.1080	17.5480
 2.1090	17.5910
 2.1100	17.6380
 2.1110	17.6880
 2.1120	17.7360
 2.1130	17.7810
 2.1140	17.8270
 2.1150	17.8720
 2.1160	17.9190
 2.1170	17.9670
 2.1180	18.0150
 2.1190	18.0650
 2.1200	18.1110
 2.1210	18.1540
 2.1220	18.1980
 2.1230	18.2400
 2.1240	18.2790
 2.1250	18.3170
 2.1260	18.3520
 2.1270	18.3890
 2.1280	18.4250
 2.1290	18.4590
 2.1300	18.4960
 2.1310	18.5250
 2.1320	18.5470
 2.1330	18.5730
 2.1340	18.5990
 2.1350	18.6250
 2.1360	18.6540
 2.1370	18.6810
 2.1380	18.7090
 2.1390	18.7340
 2.1400	18.7580
 2.1410	18.7820
 2.1420	18.8070
 2.1430	18.8300
 2.1440	18.8560
 2.1450	18.8880
 2.1460	18.9130
 2.1470	18.9330
 2.1480	18.9580
 2.1490	18.9820
 2.1500	19.0070
 2.1510	19.0390
 2.1520	19.0600
 2.1530	19.0730
 2.1540	19.0890
 2.1550	19.0990
 2.1560	19.1140
 2.1570	19.1340
 2.1580	19.1500
 2.1590	19.1650
 2.1600	19.1820
 2.1610	19.1870
 2.1620	19.1980
 2.1630	19.2070
 2.1640	19.2120
 2.1650	19.2210
 2.1660	19.2320
 2.1670	19.2420
 2.1680	19.2510
 2.1690	19.2640
 2.1700	19.2810
 2.1710	19.2940
 2.1720	19.3060
 2.1730	19.3200
 2.1740	19.3300
 2.1750	19.3450
 2.1760	19.3680
 2.1770	19.3850
 2.1780	19.4010
 2.1790	19.4160
 2.1800	19.4250
 2.1810	19.4400
 2.1820	19.4560
 2.1830	19.4740
 2.1840	19.4950
 2.1850	19.5190
 2.1860	19.5400
 2.1870	19.5630
 2.1880	19.5810
 2.1890	19.5980
 2.1900	19.6120
 2.1910	19.6230
 2.1920	19.6370
 2.1930	19.6490
 2.1940	19.6640
 2.1950	19.6850
 2.1960	19.7010
 2.1970	19.7160
 2.1980	19.7320
 2.1990	19.7490
 2.2000	19.7600
 2.2010	19.7660
 2.2020	19.7760
 2.2030	19.7860
 2.2040	19.7920
 2.2050	19.7990
 2.2060	19.8070
 2.2070	19.8130
 2.2080	19.8090
 2.2090	19.8170
 2.2100	19.8320
 2.2110	19.8410
 2.2120	19.8540
 2.2130	19.8610
 2.2140	19.8620
 2.2150	19.8670
 2.2160	19.8770
 2.2170	19.8760
 2.2180	19.8710
 2.2190	19.8650
 2.2200	19.8480
 2.2210	19.8380
 2.2220	19.8320
 2.2230	19.8270
 2.2240	19.8290
 2.2250	19.8220
 2.2260	19.8130
 2.2270	19.7980
 2.2280	19.7690
 2.2290	19.7450
 2.2300	19.7220
 2.2310	19.6930
 2.2320	19.6590
 2.2330	19.6220
 2.2340	19.5870
 2.2350	19.5450
 2.2360	19.5130
 2.2370	19.4900
 2.2380	19.4570
 2.2390	19.4250
 2.2400	19.3890
 2.2410	19.3520
 2.2420	19.3090
 2.2430	19.2640
 2.2440	19.2160
 2.2450	19.1570
 2.2460	19.1030
 2.2470	19.0500
 2.2480	18.9980
 2.2490	18.9510
 2.2500	18.8970
 2.2510	18.8390
 2.2520	18.7800
 2.2530	18.7120
 2.2540	18.6530
 2.2550	18.6050
 2.2560	18.5480
 2.2570	18.4910
 2.2580	18.4320
 2.2590	18.3620
 2.2600	18.2970
 2.2610	18.2360
 2.2620	18.1720
 2.2630	18.1040
 2.2640	18.0380
 2.2650	17.9800
 2.2660	17.9290
 2.2670	17.8720
 2.2680	17.8210
 2.2690	17.7650
 2.2700	17.6980
 2.2710	17.6420
 2.2720	17.5910
 2.2730	17.5440
 2.2740	17.5030
 2.2750	17.4570
 2.2760	17.4120
 2.2770	17.3670
 2.2780	17.3190
 2.2790	17.2730
 2.2800	17.2310
 2.2810	17.1860
 2.2820	17.1360
 2.2830	17.0890
 2.2840	17.0500
 2.2850	16.9980
 2.2860	16.9340
 2.2870	16.8820
 2.2880	16.8220
 2.2890	16.7710
 2.2900	16.7400
 2.2910	16.6940
 2.2920	16.6420
 2.2930	16.5920
 2.2940	16.5450
 2.2950	16.4890
 2.2960	16.4250
 2.2970	16.3700
 2.2980	16.3140
 2.2990	16.2600
 2.3000	16.2160
 2.3010	16.1740
 2.3020	16.1240
 2.3030	16.0620
 2.3040	16.0000
 2.3050	15.9400
 2.3060	15.8770
 2.3070	15.8160
 2.3080	15.7700
 2.3090	15.7260
 2.3100	15.6880
 2.3110	15.6580
 2.3120	15.6250
 2.3130	15.5890
 2.3140	15.5640
 2.3150	15.5440
 2.3160	15.5240
 2.3170	15.5110
 2.3180	15.4940
 2.3190	15.4730
 2.3200	15.4650
 2.3210	15.4690
 2.3220	15.4580
 2.3230	15.4500
 2.3240	15.4280
 2.3250	15.3890
 2.3260	15.3540
 2.3270	15.3180
 2.3280	15.2760
 2.3290	15.2240
 2.3300	15.1790
 2.3310	15.1340
 2.3320	15.0880
 2.3330	15.0470
 2.3340	15.0040
 2.3350	14.9550
 2.3360	14.9090
 2.3370	14.8670
 2.3380	14.8180
 2.3390	14.7640
 2.3400	14.7100
 2.3410	14.6520
 2.3420	14.6010
 2.3430	14.5480
 2.3440	14.5010
 2.3450	14.4600
 2.3460	14.4150
 2.3470	14.3720
 2.3480	14.3300
 2.3490	14.2920
 2.3500	14.2490
 2.3510	14.2030
 2.3520	14.1560
 2.3530	14.0980
 2.3540	14.0580
 2.3550	14.0290
 2.3560	13.9990
 2.3570	13.9760
 2.3580	13.9470
 2.3590	13.9050
 2.3600	13.8630
 2.3610	13.8260
 2.3620	13.7850
 2.3630	13.7380
 2.3640	13.6900
 2.3650	13.6270
 2.3660	13.5680
 2.3670	13.5240
 2.3680	13.4870
 2.3690	13.4650
 2.3700	13.4310
 2.3710	13.3890
 2.3720	13.3440
 2.3730	13.2770
 2.3740	13.2200
 2.3750	13.1720
 2.3760	13.1170
 2.3770	13.0800
 2.3780	13.0500
 2.3790	13.0150
 2.3800	12.9720
 2.3810	12.9110
 2.3820	12.8450
 2.3830	12.7850
 2.3840	12.7200
 2.3850	12.6760
 2.3860	12.6420
 2.3870	12.5950
 2.3880	12.5680
 2.3890	12.5260
 2.3900	12.4640
 2.3910	12.4170
 2.3920	12.3510
 2.3930	12.2990
 2.3940	12.2680
 2.3950	12.2160
 2.3960	12.1680
 2.3970	12.1140
 2.3980	12.0300
 2.3990	11.9640
 2.4000	11.8990
 2.4010	11.8200
 2.4020	11.7850
 2.4030	11.7540
 2.4040	11.7100
 2.4050	11.6580
 2.4060	11.5830
 2.4070	11.5160
 2.4080	11.4500
 2.4090	11.3880
 2.4100	11.3450
 2.4110	11.2950
 2.4120	11.2260
 2.4130	11.1590
 2.4140	11.1040
 2.4150	11.0480
 2.4160	10.9990
 2.4170	10.9540
 2.4180	10.8930
 2.4190	10.8400
 2.4200	10.7800
 2.4210	10.7110
 2.4220	10.6650
 2.4230	10.6070
 2.4240	10.5500
 2.4250	10.5160
 2.4260	10.4720
 2.4270	10.4230
 2.4280	10.3540
 2.4290	10.2730
 2.4300	10.2100
 2.4310	10.1480
 2.4320	10.1090
 2.4330	10.0770
 2.4340	10.0110
 2.4350	 9.9580
 2.4360	 9.9180
 2.4370	 9.8560
 2.4380	 9.8300
 2.4390	 9.7790
 2.4400	 9.6780
 2.4410	 9.6100
 2.4420	 9.5100
 2.4430	 9.4130
 2.4440	 9.3580
 2.4450	 9.2880
 2.4460	 9.2600
 2.4470	 9.2460
 2.4480	 9.2010
 2.4490	 9.1520
 2.4500	 9.0830
 2.4510	 9.0060
 2.4520	 8.9640
 2.4530	 8.9320
 2.4540	 8.8840
 2.4550	 8.8380
 2.4560	 8.7700
 2.4570	 8.6850
 2.4580	 8.6150
 2.4590	 8.5700
 2.4600	 8.5230
 2.4610	 8.4560
 2.4620	 8.4100
 2.4630	 8.3360
 2.4640	 8.2370
 2.4650	 8.1870
 2.4660	 8.1710
 2.4670	 8.1730
 2.4680	 8.1590
 2.4690	 8.1260
 2.4700	 8.0900
 2.4710	 8.0300
 2.4720	 7.9780
 2.4730	 7.9460
 2.4740	 7.9010
 2.4750	 7.8190
 2.4760	 7.7790
 2.4770	 7.7670
 2.4780	 7.7400
 2.4790	 7.7480
 2.4800	 7.7120
 2.4810	 7.6420
 2.4820	 7.5910
 2.4830	 7.5040
 2.4840	 7.4830
 2.4850	 7.4660
 2.4860	 7.4190
 2.4870	 7.4270
 2.4880	 7.3900
 2.4890	 7.3500
 2.4900	 7.4040
 2.4910	 7.4570
 2.4920	 7.4560
 2.4930	 7.4090
 2.4940	 7.2620
 2.4950	 7.1320
 2.4960	 7.1540
 2.4970	 7.2120
 2.4980	 7.3350
 2.4990	 7.4100
 2.5000	 7.3030
