Name: Podocarpus gracilior
Type: vegetation
Class: Tree
Genus: Podocarpus
Species: gracilior
Sample No.: JPL187
Owner: JPL
Wavelength Range: VSWIR
Origin: 34.12691; -118.116; WGS84
Collection Date: 10/3/2016
Description: Samples were collected at the Huntington Garden in San Marino California as part of a JPL Subcontract studying HyTES imagery. Samples were taken to JPL and processed within 48 hours of collection. The same leaves were processed in the Nicolet and then measured using the ASD.
Measurement: Bidirectional reflectance
First Column: X
Second Column: Y
X Units: Wavelength (micrometer)
Y Units: Reflectance (percentage)
First X Value: 0.35
Last X Value: 2.5
Number of X Values: 2151
Additional Information: vegetation.tree.podocarpus.gracilior.vswir.jpl187.jpl.asd.ancillary.txt

 0.3500	10.3470
 0.3510	10.2580
 0.3520	10.2110
 0.3530	10.1450
 0.3540	10.0340
 0.3550	10.1090
 0.3560	10.1020
 0.3570	10.0270
 0.3580	10.0330
 0.3590	10.0150
 0.3600	10.0110
 0.3610	10.0220
 0.3620	 9.9930
 0.3630	 9.9970
 0.3640	10.0110
 0.3650	 9.9970
 0.3660	 9.9540
 0.3670	 9.9290
 0.3680	 9.9390
 0.3690	 9.9770
 0.3700	 9.9810
 0.3710	 9.9590
 0.3720	 9.9320
 0.3730	 9.9280
 0.3740	 9.8900
 0.3750	 9.8670
 0.3760	 9.9090
 0.3770	 9.9260
 0.3780	 9.9100
 0.3790	 9.8930
 0.3800	 9.9280
 0.3810	 9.9320
 0.3820	 9.9170
 0.3830	 9.9070
 0.3840	 9.9270
 0.3850	 9.9100
 0.3860	 9.8830
 0.3870	 9.8980
 0.3880	 9.9350
 0.3890	 9.9520
 0.3900	 9.9490
 0.3910	 9.9580
 0.3920	 9.9550
 0.3930	 9.9680
 0.3940	10.0070
 0.3950	10.0010
 0.3960	10.0090
 0.3970	10.0340
 0.3980	10.0500
 0.3990	10.0410
 0.4000	10.0280
 0.4010	10.0300
 0.4020	10.0600
 0.4030	10.0940
 0.4040	10.1160
 0.4050	10.1200
 0.4060	10.1260
 0.4070	10.1400
 0.4080	10.1630
 0.4090	10.1930
 0.4100	10.2190
 0.4110	10.2270
 0.4120	10.2250
 0.4130	10.2620
 0.4140	10.2730
 0.4150	10.2710
 0.4160	10.2860
 0.4170	10.2980
 0.4180	10.3030
 0.4190	10.3010
 0.4200	10.2980
 0.4210	10.2890
 0.4220	10.2800
 0.4230	10.2790
 0.4240	10.3030
 0.4250	10.3120
 0.4260	10.3060
 0.4270	10.3020
 0.4280	10.2910
 0.4290	10.2800
 0.4300	10.2710
 0.4310	10.2580
 0.4320	10.2350
 0.4330	10.2020
 0.4340	10.1690
 0.4350	10.1590
 0.4360	10.1600
 0.4370	10.1660
 0.4380	10.1740
 0.4390	10.1950
 0.4400	10.2220
 0.4410	10.2450
 0.4420	10.2630
 0.4430	10.2730
 0.4440	10.2820
 0.4450	10.2970
 0.4460	10.2890
 0.4470	10.2810
 0.4480	10.2880
 0.4490	10.3110
 0.4500	10.3120
 0.4510	10.3090
 0.4520	10.3230
 0.4530	10.3370
 0.4540	10.3430
 0.4550	10.3420
 0.4560	10.3450
 0.4570	10.3530
 0.4580	10.3550
 0.4590	10.3490
 0.4600	10.3500
 0.4610	10.3520
 0.4620	10.3510
 0.4630	10.3470
 0.4640	10.3520
 0.4650	10.3540
 0.4660	10.3520
 0.4670	10.3480
 0.4680	10.3450
 0.4690	10.3440
 0.4700	10.3450
 0.4710	10.3520
 0.4720	10.3490
 0.4730	10.3410
 0.4740	10.3430
 0.4750	10.3460
 0.4760	10.3460
 0.4770	10.3420
 0.4780	10.3340
 0.4790	10.3330
 0.4800	10.3340
 0.4810	10.3280
 0.4820	10.3200
 0.4830	10.3080
 0.4840	10.2960
 0.4850	10.2930
 0.4860	10.2870
 0.4870	10.2850
 0.4880	10.2930
 0.4890	10.3010
 0.4900	10.3180
 0.4910	10.3410
 0.4920	10.3650
 0.4930	10.3940
 0.4940	10.4260
 0.4950	10.4630
 0.4960	10.5070
 0.4970	10.5510
 0.4980	10.6000
 0.4990	10.6610
 0.5000	10.7200
 0.5010	10.7900
 0.5020	10.8700
 0.5030	10.9590
 0.5040	11.0530
 0.5050	11.1610
 0.5060	11.2880
 0.5070	11.4190
 0.5080	11.5580
 0.5090	11.7130
 0.5100	11.8910
 0.5110	12.0790
 0.5120	12.2820
 0.5130	12.5010
 0.5140	12.7290
 0.5150	12.9650
 0.5160	13.2140
 0.5170	13.4780
 0.5180	13.7450
 0.5190	14.0190
 0.5200	14.2970
 0.5210	14.5690
 0.5220	14.8330
 0.5230	15.0900
 0.5240	15.3400
 0.5250	15.5640
 0.5260	15.7800
 0.5270	15.9840
 0.5280	16.1660
 0.5290	16.3300
 0.5300	16.4790
 0.5310	16.6120
 0.5320	16.7230
 0.5330	16.8230
 0.5340	16.9100
 0.5350	16.9800
 0.5360	17.0390
 0.5370	17.0820
 0.5380	17.1110
 0.5390	17.1270
 0.5400	17.1190
 0.5410	17.0930
 0.5420	17.0630
 0.5430	17.0470
 0.5440	17.0530
 0.5450	17.0860
 0.5460	17.1410
 0.5470	17.2070
 0.5480	17.2660
 0.5490	17.3080
 0.5500	17.3330
 0.5510	17.3500
 0.5520	17.3600
 0.5530	17.3580
 0.5540	17.3370
 0.5550	17.3040
 0.5560	17.2550
 0.5570	17.1840
 0.5580	17.0970
 0.5590	16.9960
 0.5600	16.8840
 0.5610	16.7610
 0.5620	16.6280
 0.5630	16.4890
 0.5640	16.3450
 0.5650	16.1960
 0.5660	16.0430
 0.5670	15.8840
 0.5680	15.7230
 0.5690	15.5560
 0.5700	15.3870
 0.5710	15.2220
 0.5720	15.0630
 0.5730	14.9150
 0.5740	14.7770
 0.5750	14.6460
 0.5760	14.5180
 0.5770	14.3950
 0.5780	14.2770
 0.5790	14.1650
 0.5800	14.0610
 0.5810	13.9650
 0.5820	13.8770
 0.5830	13.7920
 0.5840	13.7130
 0.5850	13.6390
 0.5860	13.5700
 0.5870	13.5030
 0.5880	13.4420
 0.5890	13.3900
 0.5900	13.3400
 0.5910	13.2930
 0.5920	13.2480
 0.5930	13.2090
 0.5940	13.1820
 0.5950	13.1610
 0.5960	13.1400
 0.5970	13.1160
 0.5980	13.0910
 0.5990	13.0640
 0.6000	13.0370
 0.6010	13.0120
 0.6020	12.9790
 0.6030	12.9360
 0.6040	12.8880
 0.6050	12.8330
 0.6060	12.7710
 0.6070	12.7030
 0.6080	12.6270
 0.6090	12.5280
 0.6100	12.3990
 0.6110	12.2550
 0.6120	12.1830
 0.6130	12.1530
 0.6140	12.1310
 0.6150	12.0820
 0.6160	12.0290
 0.6170	11.9760
 0.6180	11.9220
 0.6190	11.8650
 0.6200	11.8110
 0.6210	11.7650
 0.6220	11.7290
 0.6230	11.6970
 0.6240	11.6700
 0.6250	11.6480
 0.6260	11.6300
 0.6270	11.6160
 0.6280	11.6040
 0.6290	11.5880
 0.6300	11.5680
 0.6310	11.5500
 0.6320	11.5390
 0.6330	11.5300
 0.6340	11.5100
 0.6350	11.4770
 0.6360	11.4350
 0.6370	11.3850
 0.6380	11.3290
 0.6390	11.2660
 0.6400	11.1970
 0.6410	11.1300
 0.6420	11.0610
 0.6430	10.9890
 0.6440	10.9210
 0.6450	10.8520
 0.6460	10.7830
 0.6470	10.7160
 0.6480	10.6570
 0.6490	10.6020
 0.6500	10.5530
 0.6510	10.5140
 0.6520	10.4850
 0.6530	10.4610
 0.6540	10.4400
 0.6550	10.4160
 0.6560	10.3910
 0.6570	10.3660
 0.6580	10.3400
 0.6590	10.3150
 0.6600	10.2900
 0.6610	10.2650
 0.6620	10.2390
 0.6630	10.2130
 0.6640	10.1920
 0.6650	10.1760
 0.6660	10.1620
 0.6670	10.1550
 0.6680	10.1520
 0.6690	10.1530
 0.6700	10.1610
 0.6710	10.1720
 0.6720	10.1870
 0.6730	10.2090
 0.6740	10.2340
 0.6750	10.2630
 0.6760	10.3000
 0.6770	10.3380
 0.6780	10.3820
 0.6790	10.4330
 0.6800	10.4890
 0.6810	10.5480
 0.6820	10.6130
 0.6830	10.6870
 0.6840	10.7680
 0.6850	10.8580
 0.6860	10.9610
 0.6870	11.0810
 0.6880	11.2300
 0.6890	11.4180
 0.6900	11.6530
 0.6910	11.9450
 0.6920	12.3050
 0.6930	12.7380
 0.6940	13.2450
 0.6950	13.8270
 0.6960	14.4840
 0.6970	15.2100
 0.6980	15.9970
 0.6990	16.8360
 0.7000	17.7200
 0.7010	18.6410
 0.7020	19.5900
 0.7030	20.5560
 0.7040	21.5340
 0.7050	22.5170
 0.7060	23.5030
 0.7070	24.4910
 0.7080	25.4780
 0.7090	26.4650
 0.7100	27.4560
 0.7110	28.4450
 0.7120	29.4300
 0.7130	30.4110
 0.7140	31.3910
 0.7150	32.3680
 0.7160	33.3340
 0.7170	34.2910
 0.7180	35.2390
 0.7190	36.1750
 0.7200	37.0970
 0.7210	38.0010
 0.7220	38.8880
 0.7230	39.7540
 0.7240	40.5950
 0.7250	41.4110
 0.7260	42.1980
 0.7270	42.9560
 0.7280	43.6860
 0.7290	44.3840
 0.7300	45.0510
 0.7310	45.6840
 0.7320	46.2850
 0.7330	46.8560
 0.7340	47.3980
 0.7350	47.9080
 0.7360	48.3880
 0.7370	48.8380
 0.7380	49.2590
 0.7390	49.6560
 0.7400	50.0260
 0.7410	50.3690
 0.7420	50.6890
 0.7430	50.9850
 0.7440	51.2540
 0.7450	51.5000
 0.7460	51.7270
 0.7470	51.9340
 0.7480	52.1210
 0.7490	52.2920
 0.7500	52.4460
 0.7510	52.5850
 0.7520	52.7120
 0.7530	52.8250
 0.7540	52.9260
 0.7550	53.0180
 0.7560	53.1040
 0.7570	53.1800
 0.7580	53.2450
 0.7590	53.3040
 0.7600	53.3600
 0.7610	53.4110
 0.7620	53.4550
 0.7630	53.4950
 0.7640	53.5310
 0.7650	53.5600
 0.7660	53.5850
 0.7670	53.6070
 0.7680	53.6290
 0.7690	53.6510
 0.7700	53.6680
 0.7710	53.6800
 0.7720	53.6910
 0.7730	53.7090
 0.7740	53.7250
 0.7750	53.7330
 0.7760	53.7430
 0.7770	53.7530
 0.7780	53.7630
 0.7790	53.7720
 0.7800	53.7850
 0.7810	53.7950
 0.7820	53.8020
 0.7830	53.8090
 0.7840	53.8160
 0.7850	53.8220
 0.7860	53.8280
 0.7870	53.8330
 0.7880	53.8360
 0.7890	53.8360
 0.7900	53.8350
 0.7910	53.8380
 0.7920	53.8410
 0.7930	53.8420
 0.7940	53.8410
 0.7950	53.8400
 0.7960	53.8370
 0.7970	53.8290
 0.7980	53.8230
 0.7990	53.8150
 0.8000	53.8080
 0.8010	53.8010
 0.8020	53.7900
 0.8030	53.7810
 0.8040	53.7730
 0.8050	53.7620
 0.8060	53.7500
 0.8070	53.7380
 0.8080	53.7260
 0.8090	53.7080
 0.8100	53.6900
 0.8110	53.6750
 0.8120	53.6610
 0.8130	53.6440
 0.8140	53.6260
 0.8150	53.6100
 0.8160	53.5960
 0.8170	53.5790
 0.8180	53.5620
 0.8190	53.5450
 0.8200	53.5260
 0.8210	53.5120
 0.8220	53.4960
 0.8230	53.4760
 0.8240	53.4580
 0.8250	53.4430
 0.8260	53.4270
 0.8270	53.4090
 0.8280	53.3910
 0.8290	53.3760
 0.8300	53.3620
 0.8310	53.3490
 0.8320	53.3300
 0.8330	53.3120
 0.8340	53.2970
 0.8350	53.2860
 0.8360	53.2780
 0.8370	53.2690
 0.8380	53.2610
 0.8390	53.2550
 0.8400	53.2470
 0.8410	53.2400
 0.8420	53.2320
 0.8430	53.2250
 0.8440	53.2230
 0.8450	53.2230
 0.8460	53.2210
 0.8470	53.2180
 0.8480	53.2160
 0.8490	53.2150
 0.8500	53.2160
 0.8510	53.2190
 0.8520	53.2190
 0.8530	53.2180
 0.8540	53.2230
 0.8550	53.2260
 0.8560	53.2310
 0.8570	53.2360
 0.8580	53.2350
 0.8590	53.2430
 0.8600	53.2540
 0.8610	53.2650
 0.8620	53.2670
 0.8630	53.2750
 0.8640	53.2870
 0.8650	53.2990
 0.8660	53.3040
 0.8670	53.3110
 0.8680	53.3200
 0.8690	53.3330
 0.8700	53.3400
 0.8710	53.3470
 0.8720	53.3580
 0.8730	53.3750
 0.8740	53.3920
 0.8750	53.4050
 0.8760	53.4130
 0.8770	53.4240
 0.8780	53.4380
 0.8790	53.4520
 0.8800	53.4640
 0.8810	53.4830
 0.8820	53.4940
 0.8830	53.5020
 0.8840	53.5130
 0.8850	53.5270
 0.8860	53.5420
 0.8870	53.5540
 0.8880	53.5610
 0.8890	53.5670
 0.8900	53.5840
 0.8910	53.6030
 0.8920	53.6100
 0.8930	53.6270
 0.8940	53.6420
 0.8950	53.6520
 0.8960	53.6600
 0.8970	53.6700
 0.8980	53.6820
 0.8990	53.6960
 0.9000	53.7070
 0.9010	53.7180
 0.9020	53.7290
 0.9030	53.7410
 0.9040	53.7500
 0.9050	53.7610
 0.9060	53.7760
 0.9070	53.7870
 0.9080	53.7870
 0.9090	53.7930
 0.9100	53.8020
 0.9110	53.8090
 0.9120	53.8130
 0.9130	53.8140
 0.9140	53.8160
 0.9150	53.8220
 0.9160	53.8210
 0.9170	53.8230
 0.9180	53.8250
 0.9190	53.8200
 0.9200	53.8210
 0.9210	53.8230
 0.9220	53.8200
 0.9230	53.8110
 0.9240	53.8010
 0.9250	53.7950
 0.9260	53.7870
 0.9270	53.7630
 0.9280	53.7470
 0.9290	53.7350
 0.9300	53.7210
 0.9310	53.7040
 0.9320	53.6850
 0.9330	53.6630
 0.9340	53.6370
 0.9350	53.6040
 0.9360	53.5790
 0.9370	53.5570
 0.9380	53.5310
 0.9390	53.4960
 0.9400	53.4680
 0.9410	53.4410
 0.9420	53.4070
 0.9430	53.3670
 0.9440	53.3280
 0.9450	53.2860
 0.9460	53.2360
 0.9470	53.1880
 0.9480	53.1380
 0.9490	53.0800
 0.9500	53.0170
 0.9510	52.9550
 0.9520	52.8900
 0.9530	52.8200
 0.9540	52.7460
 0.9550	52.6780
 0.9560	52.6190
 0.9570	52.5590
 0.9580	52.4930
 0.9590	52.4470
 0.9600	52.3900
 0.9610	52.3340
 0.9620	52.2980
 0.9630	52.2620
 0.9640	52.2360
 0.9650	52.2140
 0.9660	52.1870
 0.9670	52.1630
 0.9680	52.1440
 0.9690	52.1260
 0.9700	52.1080
 0.9710	52.0920
 0.9720	52.0770
 0.9730	52.0600
 0.9740	52.0430
 0.9750	52.0410
 0.9760	52.0420
 0.9770	52.0410
 0.9780	52.0370
 0.9790	52.0230
 0.9800	52.0160
 0.9810	52.0220
 0.9820	52.0310
 0.9830	52.0360
 0.9840	52.0310
 0.9850	52.0250
 0.9860	52.0290
 0.9870	52.0550
 0.9880	52.0840
 0.9890	52.1030
 0.9900	52.1100
 0.9910	52.1050
 0.9920	52.1130
 0.9930	52.1350
 0.9940	52.1560
 0.9950	52.1660
 0.9960	52.1800
 0.9970	52.1980
 0.9980	52.2160
 0.9990	52.2230
 1.0000	52.2470
 1.0010	53.0540
 1.0020	53.0730
 1.0030	53.0940
 1.0040	53.1150
 1.0050	53.1360
 1.0060	53.1560
 1.0070	53.1730
 1.0080	53.1910
 1.0090	53.2120
 1.0100	53.2310
 1.0110	53.2500
 1.0120	53.2700
 1.0130	53.2900
 1.0140	53.3100
 1.0150	53.3310
 1.0160	53.3500
 1.0170	53.3700
 1.0180	53.3860
 1.0190	53.4010
 1.0200	53.4190
 1.0210	53.4400
 1.0220	53.4610
 1.0230	53.4790
 1.0240	53.4980
 1.0250	53.5160
 1.0260	53.5290
 1.0270	53.5460
 1.0280	53.5650
 1.0290	53.5830
 1.0300	53.6070
 1.0310	53.6250
 1.0320	53.6380
 1.0330	53.6550
 1.0340	53.6670
 1.0350	53.6750
 1.0360	53.6900
 1.0370	53.7050
 1.0380	53.7200
 1.0390	53.7370
 1.0400	53.7510
 1.0410	53.7630
 1.0420	53.7760
 1.0430	53.7880
 1.0440	53.7990
 1.0450	53.8070
 1.0460	53.8170
 1.0470	53.8280
 1.0480	53.8370
 1.0490	53.8490
 1.0500	53.8590
 1.0510	53.8690
 1.0520	53.8760
 1.0530	53.8850
 1.0540	53.8970
 1.0550	53.9030
 1.0560	53.9050
 1.0570	53.9110
 1.0580	53.9160
 1.0590	53.9220
 1.0600	53.9330
 1.0610	53.9400
 1.0620	53.9470
 1.0630	53.9520
 1.0640	53.9540
 1.0650	53.9570
 1.0660	53.9570
 1.0670	53.9590
 1.0680	53.9620
 1.0690	53.9690
 1.0700	53.9710
 1.0710	53.9720
 1.0720	53.9730
 1.0730	53.9700
 1.0740	53.9710
 1.0750	53.9750
 1.0760	53.9770
 1.0770	53.9810
 1.0780	53.9830
 1.0790	53.9850
 1.0800	53.9850
 1.0810	53.9810
 1.0820	53.9800
 1.0830	53.9810
 1.0840	53.9800
 1.0850	53.9780
 1.0860	53.9780
 1.0870	53.9770
 1.0880	53.9740
 1.0890	53.9720
 1.0900	53.9720
 1.0910	53.9680
 1.0920	53.9620
 1.0930	53.9580
 1.0940	53.9530
 1.0950	53.9480
 1.0960	53.9440
 1.0970	53.9370
 1.0980	53.9280
 1.0990	53.9210
 1.1000	53.9120
 1.1010	53.9050
 1.1020	53.8990
 1.1030	53.8930
 1.1040	53.8880
 1.1050	53.8820
 1.1060	53.8740
 1.1070	53.8670
 1.1080	53.8570
 1.1090	53.8450
 1.1100	53.8330
 1.1110	53.8220
 1.1120	53.8090
 1.1130	53.7960
 1.1140	53.7810
 1.1150	53.7650
 1.1160	53.7480
 1.1170	53.7300
 1.1180	53.7100
 1.1190	53.6870
 1.1200	53.6620
 1.1210	53.6380
 1.1220	53.6080
 1.1230	53.5750
 1.1240	53.5380
 1.1250	53.4950
 1.1260	53.4470
 1.1270	53.3940
 1.1280	53.3390
 1.1290	53.2750
 1.1300	53.2070
 1.1310	53.1290
 1.1320	53.0440
 1.1330	52.9510
 1.1340	52.8480
 1.1350	52.7410
 1.1360	52.6270
 1.1370	52.5070
 1.1380	52.3820
 1.1390	52.2520
 1.1400	52.1170
 1.1410	51.9820
 1.1420	51.8440
 1.1430	51.7030
 1.1440	51.5630
 1.1450	51.4180
 1.1460	51.2810
 1.1470	51.1430
 1.1480	51.0140
 1.1490	50.8900
 1.1500	50.7740
 1.1510	50.6610
 1.1520	50.5580
 1.1530	50.4640
 1.1540	50.3760
 1.1550	50.2960
 1.1560	50.2240
 1.1570	50.1570
 1.1580	50.0960
 1.1590	50.0440
 1.1600	49.9980
 1.1610	49.9570
 1.1620	49.9200
 1.1630	49.8880
 1.1640	49.8590
 1.1650	49.8330
 1.1660	49.8120
 1.1670	49.7920
 1.1680	49.7730
 1.1690	49.7560
 1.1700	49.7420
 1.1710	49.7260
 1.1720	49.7120
 1.1730	49.6970
 1.1740	49.6830
 1.1750	49.6670
 1.1760	49.6510
 1.1770	49.6340
 1.1780	49.6160
 1.1790	49.5980
 1.1800	49.5830
 1.1810	49.5680
 1.1820	49.5510
 1.1830	49.5320
 1.1840	49.5110
 1.1850	49.4920
 1.1860	49.4740
 1.1870	49.4550
 1.1880	49.4380
 1.1890	49.4210
 1.1900	49.4060
 1.1910	49.3920
 1.1920	49.3810
 1.1930	49.3730
 1.1940	49.3640
 1.1950	49.3550
 1.1960	49.3470
 1.1970	49.3400
 1.1980	49.3350
 1.1990	49.3350
 1.2000	49.3380
 1.2010	49.3400
 1.2020	49.3430
 1.2030	49.3480
 1.2040	49.3540
 1.2050	49.3620
 1.2060	49.3740
 1.2070	49.3860
 1.2080	49.3980
 1.2090	49.4100
 1.2100	49.4240
 1.2110	49.4400
 1.2120	49.4590
 1.2130	49.4800
 1.2140	49.5050
 1.2150	49.5290
 1.2160	49.5540
 1.2170	49.5790
 1.2180	49.6030
 1.2190	49.6270
 1.2200	49.6500
 1.2210	49.6760
 1.2220	49.7010
 1.2230	49.7280
 1.2240	49.7530
 1.2250	49.7780
 1.2260	49.8050
 1.2270	49.8310
 1.2280	49.8570
 1.2290	49.8800
 1.2300	49.9000
 1.2310	49.9190
 1.2320	49.9410
 1.2330	49.9630
 1.2340	49.9840
 1.2350	50.0050
 1.2360	50.0240
 1.2370	50.0410
 1.2380	50.0570
 1.2390	50.0730
 1.2400	50.0880
 1.2410	50.1040
 1.2420	50.1170
 1.2430	50.1310
 1.2440	50.1480
 1.2450	50.1610
 1.2460	50.1740
 1.2470	50.1870
 1.2480	50.1960
 1.2490	50.2060
 1.2500	50.2170
 1.2510	50.2270
 1.2520	50.2350
 1.2530	50.2420
 1.2540	50.2480
 1.2550	50.2530
 1.2560	50.2580
 1.2570	50.2620
 1.2580	50.2670
 1.2590	50.2690
 1.2600	50.2710
 1.2610	50.2720
 1.2620	50.2710
 1.2630	50.2680
 1.2640	50.2660
 1.2650	50.2620
 1.2660	50.2560
 1.2670	50.2500
 1.2680	50.2430
 1.2690	50.2350
 1.2700	50.2280
 1.2710	50.2210
 1.2720	50.2110
 1.2730	50.1980
 1.2740	50.1840
 1.2750	50.1670
 1.2760	50.1510
 1.2770	50.1340
 1.2780	50.1150
 1.2790	50.0950
 1.2800	50.0730
 1.2810	50.0480
 1.2820	50.0210
 1.2830	49.9940
 1.2840	49.9650
 1.2850	49.9340
 1.2860	49.9020
 1.2870	49.8690
 1.2880	49.8350
 1.2890	49.7990
 1.2900	49.7590
 1.2910	49.7160
 1.2920	49.6720
 1.2930	49.6260
 1.2940	49.5800
 1.2950	49.5330
 1.2960	49.4830
 1.2970	49.4290
 1.2980	49.3740
 1.2990	49.3180
 1.3000	49.2600
 1.3010	49.1990
 1.3020	49.1380
 1.3030	49.0740
 1.3040	49.0050
 1.3050	48.9360
 1.3060	48.8620
 1.3070	48.7860
 1.3080	48.7090
 1.3090	48.6310
 1.3100	48.5510
 1.3110	48.4710
 1.3120	48.3860
 1.3130	48.2950
 1.3140	48.2040
 1.3150	48.1090
 1.3160	48.0130
 1.3170	47.9150
 1.3180	47.8160
 1.3190	47.7150
 1.3200	47.6100
 1.3210	47.5010
 1.3220	47.3920
 1.3230	47.2810
 1.3240	47.1660
 1.3250	47.0520
 1.3260	46.9350
 1.3270	46.8140
 1.3280	46.6940
 1.3290	46.5720
 1.3300	46.4490
 1.3310	46.3240
 1.3320	46.1960
 1.3330	46.0680
 1.3340	45.9390
 1.3350	45.8090
 1.3360	45.6780
 1.3370	45.5470
 1.3380	45.4150
 1.3390	45.2860
 1.3400	45.1590
 1.3410	45.0330
 1.3420	44.9090
 1.3430	44.7850
 1.3440	44.6600
 1.3450	44.5370
 1.3460	44.4150
 1.3470	44.2960
 1.3480	44.1780
 1.3490	44.0630
 1.3500	43.9510
 1.3510	43.8370
 1.3520	43.7240
 1.3530	43.6130
 1.3540	43.5000
 1.3550	43.3860
 1.3560	43.2720
 1.3570	43.1570
 1.3580	43.0400
 1.3590	42.9230
 1.3600	42.8030
 1.3610	42.6780
 1.3620	42.5500
 1.3630	42.4170
 1.3640	42.2780
 1.3650	42.1320
 1.3660	41.9780
 1.3670	41.8160
 1.3680	41.6420
 1.3690	41.4570
 1.3700	41.2600
 1.3710	41.0500
 1.3720	40.8280
 1.3730	40.5870
 1.3740	40.3320
 1.3750	40.0610
 1.3760	39.7690
 1.3770	39.4590
 1.3780	39.1260
 1.3790	38.7720
 1.3800	38.3970
 1.3810	37.9980
 1.3820	37.5850
 1.3830	37.1540
 1.3840	36.7060
 1.3850	36.2400
 1.3860	35.7640
 1.3870	35.2670
 1.3880	34.7700
 1.3890	34.2640
 1.3900	33.7510
 1.3910	33.2410
 1.3920	32.7280
 1.3930	32.2140
 1.3940	31.7060
 1.3950	31.1970
 1.3960	30.6970
 1.3970	30.2090
 1.3980	29.7320
 1.3990	29.2740
 1.4000	28.8310
 1.4010	28.4010
 1.4020	27.9900
 1.4030	27.5950
 1.4040	27.2200
 1.4050	26.8650
 1.4060	26.5270
 1.4070	26.2100
 1.4080	25.9120
 1.4090	25.6290
 1.4100	25.3670
 1.4110	25.1200
 1.4120	24.8880
 1.4130	24.6740
 1.4140	24.4730
 1.4150	24.2890
 1.4160	24.1190
 1.4170	23.9600
 1.4180	23.8130
 1.4190	23.6770
 1.4200	23.5510
 1.4210	23.4360
 1.4220	23.3300
 1.4230	23.2320
 1.4240	23.1410
 1.4250	23.0570
 1.4260	22.9810
 1.4270	22.9110
 1.4280	22.8480
 1.4290	22.7900
 1.4300	22.7390
 1.4310	22.6920
 1.4320	22.6510
 1.4330	22.6140
 1.4340	22.5820
 1.4350	22.5540
 1.4360	22.5300
 1.4370	22.5110
 1.4380	22.4940
 1.4390	22.4790
 1.4400	22.4690
 1.4410	22.4620
 1.4420	22.4570
 1.4430	22.4540
 1.4440	22.4540
 1.4450	22.4550
 1.4460	22.4580
 1.4470	22.4640
 1.4480	22.4700
 1.4490	22.4780
 1.4500	22.4890
 1.4510	22.5010
 1.4520	22.5160
 1.4530	22.5320
 1.4540	22.5490
 1.4550	22.5680
 1.4560	22.5900
 1.4570	22.6130
 1.4580	22.6410
 1.4590	22.6700
 1.4600	22.7030
 1.4610	22.7380
 1.4620	22.7780
 1.4630	22.8220
 1.4640	22.8710
 1.4650	22.9230
 1.4660	22.9800
 1.4670	23.0390
 1.4680	23.1030
 1.4690	23.1700
 1.4700	23.2430
 1.4710	23.3210
 1.4720	23.4000
 1.4730	23.4820
 1.4740	23.5670
 1.4750	23.6540
 1.4760	23.7450
 1.4770	23.8400
 1.4780	23.9350
 1.4790	24.0320
 1.4800	24.1290
 1.4810	24.2280
 1.4820	24.3300
 1.4830	24.4330
 1.4840	24.5390
 1.4850	24.6450
 1.4860	24.7520
 1.4870	24.8610
 1.4880	24.9680
 1.4890	25.0770
 1.4900	25.1870
 1.4910	25.2970
 1.4920	25.4090
 1.4930	25.5230
 1.4940	25.6360
 1.4950	25.7510
 1.4960	25.8650
 1.4970	25.9780
 1.4980	26.0920
 1.4990	26.2050
 1.5000	26.3190
 1.5010	26.4330
 1.5020	26.5470
 1.5030	26.6640
 1.5040	26.7790
 1.5050	26.8930
 1.5060	27.0080
 1.5070	27.1220
 1.5080	27.2370
 1.5090	27.3530
 1.5100	27.4690
 1.5110	27.5840
 1.5120	27.6990
 1.5130	27.8120
 1.5140	27.9250
 1.5150	28.0390
 1.5160	28.1510
 1.5170	28.2640
 1.5180	28.3760
 1.5190	28.4860
 1.5200	28.5970
 1.5210	28.7060
 1.5220	28.8160
 1.5230	28.9260
 1.5240	29.0330
 1.5250	29.1420
 1.5260	29.2500
 1.5270	29.3560
 1.5280	29.4630
 1.5290	29.5700
 1.5300	29.6750
 1.5310	29.7800
 1.5320	29.8840
 1.5330	29.9870
 1.5340	30.0890
 1.5350	30.1920
 1.5360	30.2940
 1.5370	30.3940
 1.5380	30.4940
 1.5390	30.5930
 1.5400	30.6900
 1.5410	30.7880
 1.5420	30.8860
 1.5430	30.9810
 1.5440	31.0770
 1.5450	31.1720
 1.5460	31.2660
 1.5470	31.3600
 1.5480	31.4530
 1.5490	31.5460
 1.5500	31.6370
 1.5510	31.7270
 1.5520	31.8180
 1.5530	31.9060
 1.5540	31.9930
 1.5550	32.0810
 1.5560	32.1670
 1.5570	32.2520
 1.5580	32.3360
 1.5590	32.4180
 1.5600	32.5000
 1.5610	32.5810
 1.5620	32.6620
 1.5630	32.7440
 1.5640	32.8240
 1.5650	32.9030
 1.5660	32.9820
 1.5670	33.0590
 1.5680	33.1360
 1.5690	33.2110
 1.5700	33.2860
 1.5710	33.3600
 1.5720	33.4340
 1.5730	33.5090
 1.5740	33.5830
 1.5750	33.6580
 1.5760	33.7310
 1.5770	33.8000
 1.5780	33.8700
 1.5790	33.9390
 1.5800	34.0080
 1.5810	34.0780
 1.5820	34.1440
 1.5830	34.2100
 1.5840	34.2760
 1.5850	34.3410
 1.5860	34.4090
 1.5870	34.4750
 1.5880	34.5400
 1.5890	34.6040
 1.5900	34.6670
 1.5910	34.7300
 1.5920	34.7940
 1.5930	34.8570
 1.5940	34.9190
 1.5950	34.9810
 1.5960	35.0410
 1.5970	35.1000
 1.5980	35.1590
 1.5990	35.2180
 1.6000	35.2770
 1.6010	35.3360
 1.6020	35.3940
 1.6030	35.4520
 1.6040	35.5090
 1.6050	35.5650
 1.6060	35.6210
 1.6070	35.6760
 1.6080	35.7310
 1.6090	35.7840
 1.6100	35.8380
 1.6110	35.8920
 1.6120	35.9430
 1.6130	35.9950
 1.6140	36.0470
 1.6150	36.0950
 1.6160	36.1440
 1.6170	36.1930
 1.6180	36.2410
 1.6190	36.2870
 1.6200	36.3330
 1.6210	36.3780
 1.6220	36.4200
 1.6230	36.4640
 1.6240	36.5080
 1.6250	36.5500
 1.6260	36.5910
 1.6270	36.6320
 1.6280	36.6710
 1.6290	36.7090
 1.6300	36.7470
 1.6310	36.7840
 1.6320	36.8210
 1.6330	36.8580
 1.6340	36.8940
 1.6350	36.9280
 1.6360	36.9610
 1.6370	36.9930
 1.6380	37.0240
 1.6390	37.0540
 1.6400	37.0830
 1.6410	37.1120
 1.6420	37.1400
 1.6430	37.1650
 1.6440	37.1860
 1.6450	37.2050
 1.6460	37.2240
 1.6470	37.2420
 1.6480	37.2580
 1.6490	37.2730
 1.6500	37.2860
 1.6510	37.2960
 1.6520	37.3080
 1.6530	37.3190
 1.6540	37.3280
 1.6550	37.3360
 1.6560	37.3430
 1.6570	37.3450
 1.6580	37.3480
 1.6590	37.3510
 1.6600	37.3520
 1.6610	37.3560
 1.6620	37.3590
 1.6630	37.3610
 1.6640	37.3620
 1.6650	37.3620
 1.6660	37.3590
 1.6670	37.3550
 1.6680	37.3490
 1.6690	37.3440
 1.6700	37.3400
 1.6710	37.3350
 1.6720	37.3310
 1.6730	37.3250
 1.6740	37.3180
 1.6750	37.3100
 1.6760	37.3010
 1.6770	37.2920
 1.6780	37.2820
 1.6790	37.2700
 1.6800	37.2550
 1.6810	37.2370
 1.6820	37.2180
 1.6830	37.1960
 1.6840	37.1720
 1.6850	37.1480
 1.6860	37.1200
 1.6870	37.0900
 1.6880	37.0590
 1.6890	37.0260
 1.6900	36.9930
 1.6910	36.9590
 1.6920	36.9230
 1.6930	36.8850
 1.6940	36.8450
 1.6950	36.8030
 1.6960	36.7620
 1.6970	36.7200
 1.6980	36.6760
 1.6990	36.6310
 1.7000	36.5850
 1.7010	36.5360
 1.7020	36.4890
 1.7030	36.4420
 1.7040	36.3940
 1.7050	36.3460
 1.7060	36.2970
 1.7070	36.2450
 1.7080	36.1940
 1.7090	36.1420
 1.7100	36.0910
 1.7110	36.0410
 1.7120	35.9920
 1.7130	35.9440
 1.7140	35.8930
 1.7150	35.8470
 1.7160	35.8010
 1.7170	35.7530
 1.7180	35.7070
 1.7190	35.6610
 1.7200	35.6140
 1.7210	35.5680
 1.7220	35.5250
 1.7230	35.4820
 1.7240	35.4390
 1.7250	35.3960
 1.7260	35.3540
 1.7270	35.3120
 1.7280	35.2710
 1.7290	35.2320
 1.7300	35.1920
 1.7310	35.1550
 1.7320	35.1200
 1.7330	35.0850
 1.7340	35.0530
 1.7350	35.0180
 1.7360	34.9810
 1.7370	34.9420
 1.7380	34.9000
 1.7390	34.8550
 1.7400	34.8050
 1.7410	34.7540
 1.7420	34.6990
 1.7430	34.6440
 1.7440	34.5870
 1.7450	34.5280
 1.7460	34.4680
 1.7470	34.4060
 1.7480	34.3400
 1.7490	34.2770
 1.7500	34.2110
 1.7510	34.1490
 1.7520	34.0880
 1.7530	34.0270
 1.7540	33.9650
 1.7550	33.9010
 1.7560	33.8400
 1.7570	33.7830
 1.7580	33.7270
 1.7590	33.6720
 1.7600	33.6200
 1.7610	33.5670
 1.7620	33.5160
 1.7630	33.4660
 1.7640	33.4180
 1.7650	33.3740
 1.7660	33.3300
 1.7670	33.2910
 1.7680	33.2500
 1.7690	33.2080
 1.7700	33.1680
 1.7710	33.1290
 1.7720	33.0920
 1.7730	33.0570
 1.7740	33.0240
 1.7750	32.9920
 1.7760	32.9610
 1.7770	32.9330
 1.7780	32.9050
 1.7790	32.8770
 1.7800	32.8530
 1.7810	32.8330
 1.7820	32.8130
 1.7830	32.7990
 1.7840	32.7810
 1.7850	32.7610
 1.7860	32.7460
 1.7870	32.7300
 1.7880	32.7230
 1.7890	32.7160
 1.7900	32.7110
 1.7910	32.7060
 1.7920	32.6990
 1.7930	32.6960
 1.7940	32.6940
 1.7950	32.6930
 1.7960	32.6960
 1.7970	32.6980
 1.7980	32.7000
 1.7990	32.7050
 1.8000	32.7110
 1.8010	32.7160
 1.8020	32.7240
 1.8030	32.7300
 1.8040	32.7340
 1.8050	32.7400
 1.8060	32.7470
 1.8070	32.7520
 1.8080	32.7540
 1.8090	32.7580
 1.8100	32.7600
 1.8110	32.7630
 1.8120	32.7680
 1.8130	32.7750
 1.8140	32.7780
 1.8150	32.7790
 1.8160	32.7820
 1.8170	32.7830
 1.8180	32.7800
 1.8190	32.7820
 1.8200	32.7810
 1.8210	32.7770
 1.8220	32.7750
 1.8230	32.7730
 1.8240	32.7670
 1.8250	32.7580
 1.8260	32.7500
 1.8270	32.7380
 1.8280	32.7260
 1.8290	32.7160
 1.8300	32.7020
 1.8310	32.5190
 1.8320	32.4910
 1.8330	32.4600
 1.8340	32.4300
 1.8350	32.3960
 1.8360	32.3600
 1.8370	32.3210
 1.8380	32.2740
 1.8390	32.2240
 1.8400	32.1730
 1.8410	32.1120
 1.8420	32.0440
 1.8430	31.9700
 1.8440	31.8870
 1.8450	31.8030
 1.8460	31.7130
 1.8470	31.6180
 1.8480	31.5150
 1.8490	31.3960
 1.8500	31.2690
 1.8510	31.1340
 1.8520	30.9880
 1.8530	30.8270
 1.8540	30.6660
 1.8550	30.4900
 1.8560	30.3000
 1.8570	30.1050
 1.8580	29.8940
 1.8590	29.6700
 1.8600	29.4340
 1.8610	29.1880
 1.8620	28.9240
 1.8630	28.6500
 1.8640	28.3620
 1.8650	28.0560
 1.8660	27.7360
 1.8670	27.3990
 1.8680	27.0500
 1.8690	26.6870
 1.8700	26.3060
 1.8710	25.9090
 1.8720	25.5020
 1.8730	25.0840
 1.8740	24.6580
 1.8750	24.2320
 1.8760	23.7990
 1.8770	23.3630
 1.8780	22.9230
 1.8790	22.4800
 1.8800	22.0420
 1.8810	21.6060
 1.8820	21.1690
 1.8830	20.7320
 1.8840	20.2990
 1.8850	19.8660
 1.8860	19.4420
 1.8870	19.0290
 1.8880	18.6200
 1.8890	18.2270
 1.8900	17.8510
 1.8910	17.4900
 1.8920	17.1400
 1.8930	16.8130
 1.8940	16.5000
 1.8950	16.2030
 1.8960	15.9250
 1.8970	15.6610
 1.8980	15.4190
 1.8990	15.1940
 1.9000	14.9840
 1.9010	14.7920
 1.9020	14.6140
 1.9030	14.4530
 1.9040	14.3040
 1.9050	14.1700
 1.9060	14.0470
 1.9070	13.9370
 1.9080	13.8410
 1.9090	13.7530
 1.9100	13.6760
 1.9110	13.6040
 1.9120	13.5420
 1.9130	13.4850
 1.9140	13.4340
 1.9150	13.3900
 1.9160	13.3520
 1.9170	13.3150
 1.9180	13.2880
 1.9190	13.2640
 1.9200	13.2410
 1.9210	13.2260
 1.9220	13.2120
 1.9230	13.2000
 1.9240	13.1910
 1.9250	13.1860
 1.9260	13.1820
 1.9270	13.1820
 1.9280	13.1860
 1.9290	13.1890
 1.9300	13.1960
 1.9310	13.2020
 1.9320	13.2100
 1.9330	13.2220
 1.9340	13.2380
 1.9350	13.2560
 1.9360	13.2790
 1.9370	13.3010
 1.9380	13.3260
 1.9390	13.3500
 1.9400	13.3750
 1.9410	13.4020
 1.9420	13.4290
 1.9430	13.4590
 1.9440	13.4910
 1.9450	13.5260
 1.9460	13.5620
 1.9470	13.6000
 1.9480	13.6390
 1.9490	13.6800
 1.9500	13.7210
 1.9510	13.7610
 1.9520	13.8030
 1.9530	13.8420
 1.9540	13.8820
 1.9550	13.9270
 1.9560	13.9730
 1.9570	14.0200
 1.9580	14.0690
 1.9590	14.1180
 1.9600	14.1680
 1.9610	14.2170
 1.9620	14.2680
 1.9630	14.3210
 1.9640	14.3720
 1.9650	14.4240
 1.9660	14.4780
 1.9670	14.5330
 1.9680	14.5880
 1.9690	14.6450
 1.9700	14.7030
 1.9710	14.7620
 1.9720	14.8210
 1.9730	14.8820
 1.9740	14.9410
 1.9750	15.0000
 1.9760	15.0630
 1.9770	15.1250
 1.9780	15.1880
 1.9790	15.2510
 1.9800	15.3160
 1.9810	15.3790
 1.9820	15.4430
 1.9830	15.5080
 1.9840	15.5740
 1.9850	15.6390
 1.9860	15.7040
 1.9870	15.7700
 1.9880	15.8380
 1.9890	15.9050
 1.9900	15.9750
 1.9910	16.0470
 1.9920	16.1160
 1.9930	16.1840
 1.9940	16.2520
 1.9950	16.3200
 1.9960	16.3870
 1.9970	16.4550
 1.9980	16.5220
 1.9990	16.5870
 2.0000	16.6540
 2.0010	16.7200
 2.0020	16.7890
 2.0030	16.8560
 2.0040	16.9240
 2.0050	16.9930
 2.0060	17.0610
 2.0070	17.1310
 2.0080	17.2010
 2.0090	17.2710
 2.0100	17.3440
 2.0110	17.4120
 2.0120	17.4770
 2.0130	17.5440
 2.0140	17.6100
 2.0150	17.6720
 2.0160	17.7390
 2.0170	17.8050
 2.0180	17.8700
 2.0190	17.9340
 2.0200	17.9980
 2.0210	18.0640
 2.0220	18.1270
 2.0230	18.1900
 2.0240	18.2500
 2.0250	18.3070
 2.0260	18.3660
 2.0270	18.4230
 2.0280	18.4840
 2.0290	18.5440
 2.0300	18.6060
 2.0310	18.6640
 2.0320	18.7200
 2.0330	18.7770
 2.0340	18.8330
 2.0350	18.8880
 2.0360	18.9430
 2.0370	18.9950
 2.0380	19.0420
 2.0390	19.0930
 2.0400	19.1440
 2.0410	19.1940
 2.0420	19.2450
 2.0430	19.2940
 2.0440	19.3420
 2.0450	19.3880
 2.0460	19.4330
 2.0470	19.4770
 2.0480	19.5230
 2.0490	19.5700
 2.0500	19.6190
 2.0510	19.6730
 2.0520	19.7220
 2.0530	19.7670
 2.0540	19.8130
 2.0550	19.8550
 2.0560	19.9000
 2.0570	19.9480
 2.0580	19.9970
 2.0590	20.0450
 2.0600	20.0940
 2.0610	20.1420
 2.0620	20.1880
 2.0630	20.2350
 2.0640	20.2810
 2.0650	20.3290
 2.0660	20.3750
 2.0670	20.4240
 2.0680	20.4770
 2.0690	20.5260
 2.0700	20.5730
 2.0710	20.6210
 2.0720	20.6660
 2.0730	20.7130
 2.0740	20.7610
 2.0750	20.8110
 2.0760	20.8600
 2.0770	20.9100
 2.0780	20.9560
 2.0790	20.9970
 2.0800	21.0430
 2.0810	21.0860
 2.0820	21.1330
 2.0830	21.1870
 2.0840	21.2360
 2.0850	21.2830
 2.0860	21.3300
 2.0870	21.3760
 2.0880	21.4220
 2.0890	21.4670
 2.0900	21.5110
 2.0910	21.5550
 2.0920	21.5970
 2.0930	21.6410
 2.0940	21.6870
 2.0950	21.7320
 2.0960	21.7790
 2.0970	21.8220
 2.0980	21.8630
 2.0990	21.9040
 2.1000	21.9410
 2.1010	21.9840
 2.1020	22.0310
 2.1030	22.0750
 2.1040	22.1210
 2.1050	22.1660
 2.1060	22.2100
 2.1070	22.2510
 2.1080	22.2950
 2.1090	22.3410
 2.1100	22.3850
 2.1110	22.4280
 2.1120	22.4700
 2.1130	22.5110
 2.1140	22.5530
 2.1150	22.5990
 2.1160	22.6410
 2.1170	22.6830
 2.1180	22.7240
 2.1190	22.7630
 2.1200	22.8020
 2.1210	22.8410
 2.1220	22.8800
 2.1230	22.9180
 2.1240	22.9530
 2.1250	22.9890
 2.1260	23.0240
 2.1270	23.0580
 2.1280	23.0920
 2.1290	23.1260
 2.1300	23.1600
 2.1310	23.1940
 2.1320	23.2310
 2.1330	23.2640
 2.1340	23.2940
 2.1350	23.3250
 2.1360	23.3540
 2.1370	23.3830
 2.1380	23.4150
 2.1390	23.4440
 2.1400	23.4720
 2.1410	23.4960
 2.1420	23.5220
 2.1430	23.5460
 2.1440	23.5720
 2.1450	23.5990
 2.1460	23.6240
 2.1470	23.6500
 2.1480	23.6740
 2.1490	23.6970
 2.1500	23.7180
 2.1510	23.7390
 2.1520	23.7590
 2.1530	23.7730
 2.1540	23.7920
 2.1550	23.8130
 2.1560	23.8320
 2.1570	23.8520
 2.1580	23.8690
 2.1590	23.8830
 2.1600	23.8960
 2.1610	23.9100
 2.1620	23.9240
 2.1630	23.9420
 2.1640	23.9610
 2.1650	23.9790
 2.1660	23.9980
 2.1670	24.0150
 2.1680	24.0300
 2.1690	24.0440
 2.1700	24.0550
 2.1710	24.0690
 2.1720	24.0830
 2.1730	24.0990
 2.1740	24.1180
 2.1750	24.1340
 2.1760	24.1480
 2.1770	24.1630
 2.1780	24.1770
 2.1790	24.1920
 2.1800	24.2090
 2.1810	24.2230
 2.1820	24.2360
 2.1830	24.2450
 2.1840	24.2590
 2.1850	24.2710
 2.1860	24.2870
 2.1870	24.3120
 2.1880	24.3290
 2.1890	24.3420
 2.1900	24.3590
 2.1910	24.3730
 2.1920	24.3880
 2.1930	24.4060
 2.1940	24.4210
 2.1950	24.4330
 2.1960	24.4470
 2.1970	24.4650
 2.1980	24.4800
 2.1990	24.4960
 2.2000	24.5120
 2.2010	24.5280
 2.2020	24.5420
 2.2030	24.5580
 2.2040	24.5700
 2.2050	24.5760
 2.2060	24.5830
 2.2070	24.5910
 2.2080	24.5980
 2.2090	24.6070
 2.2100	24.6170
 2.2110	24.6250
 2.2120	24.6290
 2.2130	24.6380
 2.2140	24.6500
 2.2150	24.6590
 2.2160	24.6710
 2.2170	24.6730
 2.2180	24.6670
 2.2190	24.6650
 2.2200	24.6580
 2.2210	24.6550
 2.2220	24.6550
 2.2230	24.6520
 2.2240	24.6510
 2.2250	24.6430
 2.2260	24.6330
 2.2270	24.6190
 2.2280	24.5960
 2.2290	24.5770
 2.2300	24.5600
 2.2310	24.5390
 2.2320	24.5190
 2.2330	24.5020
 2.2340	24.4830
 2.2350	24.4640
 2.2360	24.4400
 2.2370	24.4160
 2.2380	24.3840
 2.2390	24.3420
 2.2400	24.3050
 2.2410	24.2660
 2.2420	24.2260
 2.2430	24.1870
 2.2440	24.1460
 2.2450	24.1050
 2.2460	24.0610
 2.2470	24.0170
 2.2480	23.9690
 2.2490	23.9190
 2.2500	23.8650
 2.2510	23.8090
 2.2520	23.7510
 2.2530	23.6870
 2.2540	23.6270
 2.2550	23.5630
 2.2560	23.5050
 2.2570	23.4530
 2.2580	23.3980
 2.2590	23.3490
 2.2600	23.2950
 2.2610	23.2340
 2.2620	23.1750
 2.2630	23.1170
 2.2640	23.0540
 2.2650	22.9970
 2.2660	22.9380
 2.2670	22.8840
 2.2680	22.8330
 2.2690	22.7790
 2.2700	22.7270
 2.2710	22.6770
 2.2720	22.6240
 2.2730	22.5800
 2.2740	22.5430
 2.2750	22.5040
 2.2760	22.4700
 2.2770	22.4310
 2.2780	22.3880
 2.2790	22.3470
 2.2800	22.3040
 2.2810	22.2640
 2.2820	22.2270
 2.2830	22.1880
 2.2840	22.1490
 2.2850	22.1120
 2.2860	22.0750
 2.2870	22.0380
 2.2880	22.0070
 2.2890	21.9670
 2.2900	21.9200
 2.2910	21.8740
 2.2920	21.8200
 2.2930	21.7690
 2.2940	21.7210
 2.2950	21.6700
 2.2960	21.6170
 2.2970	21.5660
 2.2980	21.5150
 2.2990	21.4630
 2.3000	21.4140
 2.3010	21.3670
 2.3020	21.3240
 2.3030	21.2820
 2.3040	21.2410
 2.3050	21.2030
 2.3060	21.1640
 2.3070	21.1320
 2.3080	21.1050
 2.3090	21.0820
 2.3100	21.0690
 2.3110	21.0540
 2.3120	21.0360
 2.3130	21.0180
 2.3140	21.0010
 2.3150	20.9830
 2.3160	20.9650
 2.3170	20.9510
 2.3180	20.9340
 2.3190	20.9160
 2.3200	20.8950
 2.3210	20.8730
 2.3220	20.8500
 2.3230	20.8220
 2.3240	20.7950
 2.3250	20.7700
 2.3260	20.7390
 2.3270	20.7040
 2.3280	20.6680
 2.3290	20.6240
 2.3300	20.5840
 2.3310	20.5430
 2.3320	20.5050
 2.3330	20.4760
 2.3340	20.4360
 2.3350	20.3920
 2.3360	20.3490
 2.3370	20.2990
 2.3380	20.2510
 2.3390	20.2090
 2.3400	20.1640
 2.3410	20.1100
 2.3420	20.0670
 2.3430	20.0310
 2.3440	19.9930
 2.3450	19.9640
 2.3460	19.9280
 2.3470	19.8810
 2.3480	19.8440
 2.3490	19.8060
 2.3500	19.7710
 2.3510	19.7510
 2.3520	19.7230
 2.3530	19.6920
 2.3540	19.6650
 2.3550	19.6350
 2.3560	19.5980
 2.3570	19.5690
 2.3580	19.5390
 2.3590	19.5160
 2.3600	19.5000
 2.3610	19.4660
 2.3620	19.4390
 2.3630	19.4050
 2.3640	19.3550
 2.3650	19.3250
 2.3660	19.2950
 2.3670	19.2670
 2.3680	19.2390
 2.3690	19.1950
 2.3700	19.1550
 2.3710	19.1090
 2.3720	19.0630
 2.3730	19.0310
 2.3740	18.9950
 2.3750	18.9500
 2.3760	18.9130
 2.3770	18.8800
 2.3780	18.8450
 2.3790	18.8150
 2.3800	18.7830
 2.3810	18.7410
 2.3820	18.7040
 2.3830	18.6740
 2.3840	18.6430
 2.3850	18.6120
 2.3860	18.5760
 2.3870	18.5350
 2.3880	18.4990
 2.3890	18.4630
 2.3900	18.4320
 2.3910	18.4030
 2.3920	18.3730
 2.3930	18.3450
 2.3940	18.3040
 2.3950	18.2570
 2.3960	18.2150
 2.3970	18.1590
 2.3980	18.1130
 2.3990	18.0750
 2.4000	18.0320
 2.4010	18.0030
 2.4020	17.9760
 2.4030	17.9480
 2.4040	17.9140
 2.4050	17.8700
 2.4060	17.8270
 2.4070	17.7820
 2.4080	17.7420
 2.4090	17.7020
 2.4100	17.6600
 2.4110	17.6190
 2.4120	17.5810
 2.4130	17.5500
 2.4140	17.5160
 2.4150	17.4830
 2.4160	17.4500
 2.4170	17.4130
 2.4180	17.3840
 2.4190	17.3390
 2.4200	17.2800
 2.4210	17.2420
 2.4220	17.1970
 2.4230	17.1490
 2.4240	17.1160
 2.4250	17.0700
 2.4260	17.0260
 2.4270	16.9960
 2.4280	16.9630
 2.4290	16.9210
 2.4300	16.8660
 2.4310	16.8100
 2.4320	16.7560
 2.4330	16.7000
 2.4340	16.6700
 2.4350	16.6470
 2.4360	16.6200
 2.4370	16.5930
 2.4380	16.5590
 2.4390	16.5210
 2.4400	16.4750
 2.4410	16.4310
 2.4420	16.3770
 2.4430	16.3170
 2.4440	16.2690
 2.4450	16.2370
 2.4460	16.2170
 2.4470	16.1880
 2.4480	16.1660
 2.4490	16.1310
 2.4500	16.0760
 2.4510	16.0490
 2.4520	16.0150
 2.4530	15.9770
 2.4540	15.9420
 2.4550	15.8820
 2.4560	15.8180
 2.4570	15.7610
 2.4580	15.7220
 2.4590	15.6760
 2.4600	15.6480
 2.4610	15.6270
 2.4620	15.5590
 2.4630	15.5300
 2.4640	15.5060
 2.4650	15.4390
 2.4660	15.4150
 2.4670	15.4000
 2.4680	15.3540
 2.4690	15.3670
 2.4700	15.3550
 2.4710	15.3260
 2.4720	15.3090
 2.4730	15.2700
 2.4740	15.2440
 2.4750	15.2430
 2.4760	15.2230
 2.4770	15.2040
 2.4780	15.1800
 2.4790	15.1430
 2.4800	15.1050
 2.4810	15.0590
 2.4820	15.0040
 2.4830	14.9990
 2.4840	14.9790
 2.4850	14.9240
 2.4860	14.9010
 2.4870	14.8580
 2.4880	14.8410
 2.4890	14.8430
 2.4900	14.8020
 2.4910	14.7480
 2.4920	14.7120
 2.4930	14.7280
 2.4940	14.7740
 2.4950	14.8210
 2.4960	14.7960
 2.4970	14.7620
 2.4980	14.7280
 2.4990	14.6750
 2.5000	14.6710
