Name: Quercus douglasii 2
Type: vegetation
Class: Tree
Genus: Quercus
Species: douglasii
Sample No.: VH274
Owner: UCSB
Wavelength Range: VSWIR
Origin: 34.7157; -120.0601; WGS84
Collection Date: 11/2/2013
Description: Samples were collected as part of the HyspIRI Airborne Campaign. 48 individual plants were sampled in three times in 2013 - spring  summer  and fall. The name of the sample includes a 1  2  or 3 which references a different individual of the species. Samples were taken to JPL and processed within 48 hours of collection. The same leaves were processed in the Nicolet and then measured using the ASD.
Measurement: Bidirectional reflectance
First Column: X
Second Column: Y
X Units: Wavelength (micrometers)
Y Units: Reflectance (percentage)
First X Value: 0.35
Last X Value: 2.5
Number of X Values: 2151
Additional Information: vegetation.tree.quercus.douglasii.vswir.vh274.ucsb.asd.ancillary.txt

 0.3500	 6.1800
 0.3510	 6.0510
 0.3520	 6.0690
 0.3530	 6.0660
 0.3540	 5.9250
 0.3550	 5.8500
 0.3560	 5.9060
 0.3570	 6.0050
 0.3580	 6.0030
 0.3590	 5.9990
 0.3600	 5.9540
 0.3610	 5.9210
 0.3620	 6.1190
 0.3630	 6.0760
 0.3640	 5.9740
 0.3650	 6.0390
 0.3660	 6.0250
 0.3670	 5.9810
 0.3680	 5.9620
 0.3690	 6.0120
 0.3700	 6.0330
 0.3710	 6.0250
 0.3720	 6.0100
 0.3730	 6.0230
 0.3740	 6.0610
 0.3750	 6.0780
 0.3760	 6.0450
 0.3770	 6.0620
 0.3780	 6.0820
 0.3790	 6.0900
 0.3800	 6.1080
 0.3810	 6.1260
 0.3820	 6.1560
 0.3830	 6.1860
 0.3840	 6.1560
 0.3850	 6.1640
 0.3860	 6.1820
 0.3870	 6.1610
 0.3880	 6.2070
 0.3890	 6.2470
 0.3900	 6.2670
 0.3910	 6.3240
 0.3920	 6.3050
 0.3930	 6.2550
 0.3940	 6.2330
 0.3950	 6.2670
 0.3960	 6.3190
 0.3970	 6.3650
 0.3980	 6.3860
 0.3990	 6.3900
 0.4000	 6.3980
 0.4010	 6.4180
 0.4020	 6.4360
 0.4030	 6.4470
 0.4040	 6.4650
 0.4050	 6.5000
 0.4060	 6.5180
 0.4070	 6.5460
 0.4080	 6.5880
 0.4090	 6.6280
 0.4100	 6.6440
 0.4110	 6.6620
 0.4120	 6.6950
 0.4130	 6.7220
 0.4140	 6.7590
 0.4150	 6.7850
 0.4160	 6.7870
 0.4170	 6.8350
 0.4180	 6.8850
 0.4190	 6.9210
 0.4200	 6.9540
 0.4210	 6.9820
 0.4220	 7.0100
 0.4230	 7.0430
 0.4240	 7.0830
 0.4250	 7.1250
 0.4260	 7.1680
 0.4270	 7.2140
 0.4280	 7.2560
 0.4290	 7.2830
 0.4300	 7.3010
 0.4310	 7.3410
 0.4320	 7.3930
 0.4330	 7.4340
 0.4340	 7.4520
 0.4350	 7.4880
 0.4360	 7.5280
 0.4370	 7.5600
 0.4380	 7.5730
 0.4390	 7.5990
 0.4400	 7.6270
 0.4410	 7.6460
 0.4420	 7.6500
 0.4430	 7.6690
 0.4440	 7.6940
 0.4450	 7.7110
 0.4460	 7.7360
 0.4470	 7.7580
 0.4480	 7.7730
 0.4490	 7.7860
 0.4500	 7.8040
 0.4510	 7.8220
 0.4520	 7.8370
 0.4530	 7.8470
 0.4540	 7.8540
 0.4550	 7.8650
 0.4560	 7.8870
 0.4570	 7.9070
 0.4580	 7.9140
 0.4590	 7.9130
 0.4600	 7.9380
 0.4610	 7.9510
 0.4620	 7.9550
 0.4630	 7.9690
 0.4640	 7.9870
 0.4650	 8.0040
 0.4660	 8.0180
 0.4670	 8.0290
 0.4680	 8.0340
 0.4690	 8.0420
 0.4700	 8.0590
 0.4710	 8.0680
 0.4720	 8.0750
 0.4730	 8.0890
 0.4740	 8.1140
 0.4750	 8.1160
 0.4760	 8.1140
 0.4770	 8.1200
 0.4780	 8.1280
 0.4790	 8.1430
 0.4800	 8.1560
 0.4810	 8.1580
 0.4820	 8.1640
 0.4830	 8.1750
 0.4840	 8.1900
 0.4850	 8.2020
 0.4860	 8.2110
 0.4870	 8.2290
 0.4880	 8.2550
 0.4890	 8.2560
 0.4900	 8.2660
 0.4910	 8.2870
 0.4920	 8.3110
 0.4930	 8.3310
 0.4940	 8.3540
 0.4950	 8.3850
 0.4960	 8.4190
 0.4970	 8.4600
 0.4980	 8.5000
 0.4990	 8.5340
 0.5000	 8.5830
 0.5010	 8.6400
 0.5020	 8.7010
 0.5030	 8.7660
 0.5040	 8.8320
 0.5050	 8.9080
 0.5060	 8.9980
 0.5070	 9.0990
 0.5080	 9.2160
 0.5090	 9.3470
 0.5100	 9.4840
 0.5110	 9.6400
 0.5120	 9.8180
 0.5130	10.0150
 0.5140	10.2280
 0.5150	10.4670
 0.5160	10.7310
 0.5170	11.0130
 0.5180	11.3180
 0.5190	11.6430
 0.5200	11.9890
 0.5210	12.3580
 0.5220	12.7450
 0.5230	13.1470
 0.5240	13.5620
 0.5250	13.9860
 0.5260	14.4140
 0.5270	14.8440
 0.5280	15.2690
 0.5290	15.6940
 0.5300	16.1170
 0.5310	16.5340
 0.5320	16.9370
 0.5330	17.3300
 0.5340	17.7110
 0.5350	18.0780
 0.5360	18.4200
 0.5370	18.7510
 0.5380	19.0740
 0.5390	19.3900
 0.5400	19.6910
 0.5410	19.9820
 0.5420	20.2610
 0.5430	20.5160
 0.5440	20.7750
 0.5450	21.0320
 0.5460	21.2690
 0.5470	21.4900
 0.5480	21.6960
 0.5490	21.8870
 0.5500	22.0680
 0.5510	22.2480
 0.5520	22.4180
 0.5530	22.5680
 0.5540	22.7080
 0.5550	22.8290
 0.5560	22.9320
 0.5570	23.0250
 0.5580	23.1020
 0.5590	23.1670
 0.5600	23.2220
 0.5610	23.2750
 0.5620	23.3140
 0.5630	23.3390
 0.5640	23.3540
 0.5650	23.3680
 0.5660	23.3890
 0.5670	23.4080
 0.5680	23.4020
 0.5690	23.3860
 0.5700	23.3580
 0.5710	23.3200
 0.5720	23.2920
 0.5730	23.2590
 0.5740	23.2140
 0.5750	23.1550
 0.5760	23.0580
 0.5770	22.9480
 0.5780	22.8460
 0.5790	22.7550
 0.5800	22.6930
 0.5810	22.6580
 0.5820	22.6370
 0.5830	22.6160
 0.5840	22.6050
 0.5850	22.6000
 0.5860	22.5860
 0.5870	22.5880
 0.5880	22.5980
 0.5890	22.6020
 0.5900	22.5820
 0.5910	22.5580
 0.5920	22.5370
 0.5930	22.5230
 0.5940	22.5180
 0.5950	22.5190
 0.5960	22.5160
 0.5970	22.4950
 0.5980	22.4750
 0.5990	22.4610
 0.6000	22.4510
 0.6010	22.4270
 0.6020	22.3900
 0.6030	22.3490
 0.6040	22.3100
 0.6050	22.2680
 0.6060	22.2270
 0.6070	22.1880
 0.6080	22.1320
 0.6090	22.0720
 0.6100	22.0090
 0.6110	21.9420
 0.6120	21.8800
 0.6130	21.8100
 0.6140	21.7310
 0.6150	21.6610
 0.6160	21.5920
 0.6170	21.5190
 0.6180	21.4450
 0.6190	21.3980
 0.6200	21.3540
 0.6210	21.3070
 0.6220	21.2680
 0.6230	21.2510
 0.6240	21.2450
 0.6250	21.2420
 0.6260	21.2400
 0.6270	21.2510
 0.6280	21.2700
 0.6290	21.2880
 0.6300	21.3080
 0.6310	21.3150
 0.6320	21.3070
 0.6330	21.2900
 0.6340	21.2480
 0.6350	21.1810
 0.6360	21.0860
 0.6370	20.9500
 0.6380	20.7780
 0.6390	20.5770
 0.6400	20.3540
 0.6410	20.0960
 0.6420	19.8230
 0.6430	19.5500
 0.6440	19.2670
 0.6450	18.9890
 0.6460	18.7180
 0.6470	18.4570
 0.6480	18.2290
 0.6490	18.0310
 0.6500	17.8620
 0.6510	17.7250
 0.6520	17.6200
 0.6530	17.5270
 0.6540	17.4310
 0.6550	17.3340
 0.6560	17.2360
 0.6570	17.1230
 0.6580	16.9790
 0.6590	16.8190
 0.6600	16.6420
 0.6610	16.4440
 0.6620	16.2300
 0.6630	16.0170
 0.6640	15.8080
 0.6650	15.6060
 0.6660	15.4200
 0.6670	15.2550
 0.6680	15.1110
 0.6690	14.9900
 0.6700	14.8920
 0.6710	14.8270
 0.6720	14.7900
 0.6730	14.7640
 0.6740	14.7670
 0.6750	14.7960
 0.6760	14.8420
 0.6770	14.9000
 0.6780	14.9910
 0.6790	15.1160
 0.6800	15.2650
 0.6810	15.4680
 0.6820	15.7320
 0.6830	16.0610
 0.6840	16.4560
 0.6850	16.9360
 0.6860	17.5070
 0.6870	18.1720
 0.6880	18.9340
 0.6890	19.7940
 0.6900	20.7470
 0.6910	21.7890
 0.6920	22.8980
 0.6930	24.0750
 0.6940	25.3130
 0.6950	26.5730
 0.6960	27.8560
 0.6970	29.1530
 0.6980	30.4530
 0.6990	31.7230
 0.7000	32.9680
 0.7010	34.1730
 0.7020	35.3170
 0.7030	36.4300
 0.7040	37.4810
 0.7050	38.4480
 0.7060	39.3680
 0.7070	40.2420
 0.7080	41.0590
 0.7090	41.8180
 0.7100	42.5500
 0.7110	43.2370
 0.7120	43.8770
 0.7130	44.4850
 0.7140	45.0660
 0.7150	45.6220
 0.7160	46.1500
 0.7170	46.6540
 0.7180	47.1110
 0.7190	47.5450
 0.7200	47.9910
 0.7210	48.4020
 0.7220	48.7760
 0.7230	49.1260
 0.7240	49.4750
 0.7250	49.8100
 0.7260	50.1250
 0.7270	50.4180
 0.7280	50.6880
 0.7290	50.9430
 0.7300	51.1920
 0.7310	51.4390
 0.7320	51.6680
 0.7330	51.8800
 0.7340	52.0750
 0.7350	52.2600
 0.7360	52.4340
 0.7370	52.5980
 0.7380	52.7550
 0.7390	52.9170
 0.7400	53.0710
 0.7410	53.2110
 0.7420	53.3340
 0.7430	53.4540
 0.7440	53.5650
 0.7450	53.6680
 0.7460	53.7770
 0.7470	53.8720
 0.7480	53.9590
 0.7490	54.0440
 0.7500	54.1290
 0.7510	54.2020
 0.7520	54.2760
 0.7530	54.3600
 0.7540	54.4110
 0.7550	54.4740
 0.7560	54.5470
 0.7570	54.5930
 0.7580	54.6330
 0.7590	54.6880
 0.7600	54.7530
 0.7610	54.7910
 0.7620	54.8310
 0.7630	54.8760
 0.7640	54.9230
 0.7650	54.9650
 0.7660	55.0100
 0.7670	55.0520
 0.7680	55.0830
 0.7690	55.1270
 0.7700	55.1670
 0.7710	55.1960
 0.7720	55.2200
 0.7730	55.2580
 0.7740	55.2960
 0.7750	55.3200
 0.7760	55.3510
 0.7770	55.3860
 0.7780	55.4230
 0.7790	55.4570
 0.7800	55.4980
 0.7810	55.5390
 0.7820	55.5730
 0.7830	55.5950
 0.7840	55.6250
 0.7850	55.6650
 0.7860	55.7090
 0.7870	55.7450
 0.7880	55.7740
 0.7890	55.8050
 0.7900	55.8490
 0.7910	55.8860
 0.7920	55.9190
 0.7930	55.9550
 0.7940	55.9990
 0.7950	56.0350
 0.7960	56.0490
 0.7970	56.0560
 0.7980	56.1080
 0.7990	56.1610
 0.8000	56.1970
 0.8010	56.2170
 0.8020	56.2620
 0.8030	56.2870
 0.8040	56.3090
 0.8050	56.3610
 0.8060	56.4160
 0.8070	56.4550
 0.8080	56.4800
 0.8090	56.5090
 0.8100	56.5390
 0.8110	56.5730
 0.8120	56.6110
 0.8130	56.6460
 0.8140	56.6820
 0.8150	56.7160
 0.8160	56.7480
 0.8170	56.7960
 0.8180	56.8230
 0.8190	56.8390
 0.8200	56.8740
 0.8210	56.9170
 0.8220	56.9560
 0.8230	56.9920
 0.8240	57.0380
 0.8250	57.0510
 0.8260	57.0790
 0.8270	57.1370
 0.8280	57.1710
 0.8290	57.1890
 0.8300	57.2120
 0.8310	57.2490
 0.8320	57.2680
 0.8330	57.2910
 0.8340	57.3150
 0.8350	57.3290
 0.8360	57.3490
 0.8370	57.3870
 0.8380	57.4340
 0.8390	57.4710
 0.8400	57.5130
 0.8410	57.5380
 0.8420	57.5520
 0.8430	57.5950
 0.8440	57.6430
 0.8450	57.6780
 0.8460	57.6910
 0.8470	57.7060
 0.8480	57.7240
 0.8490	57.7470
 0.8500	57.7810
 0.8510	57.8230
 0.8520	57.8660
 0.8530	57.8960
 0.8540	57.9040
 0.8550	57.9320
 0.8560	57.9560
 0.8570	57.9740
 0.8580	58.0070
 0.8590	58.0370
 0.8600	58.0490
 0.8610	58.0500
 0.8620	58.0670
 0.8630	58.1010
 0.8640	58.1400
 0.8650	58.1720
 0.8660	58.1870
 0.8670	58.2070
 0.8680	58.2210
 0.8690	58.2160
 0.8700	58.2240
 0.8710	58.2470
 0.8720	58.2800
 0.8730	58.3160
 0.8740	58.3290
 0.8750	58.3390
 0.8760	58.3480
 0.8770	58.3410
 0.8780	58.3610
 0.8790	58.3800
 0.8800	58.3850
 0.8810	58.4010
 0.8820	58.4060
 0.8830	58.4240
 0.8840	58.4570
 0.8850	58.4460
 0.8860	58.4360
 0.8870	58.4440
 0.8880	58.4720
 0.8890	58.4820
 0.8900	58.4900
 0.8910	58.4980
 0.8920	58.5040
 0.8930	58.5110
 0.8940	58.5130
 0.8950	58.5140
 0.8960	58.5260
 0.8970	58.5410
 0.8980	58.5370
 0.8990	58.5150
 0.9000	58.4990
 0.9010	58.5090
 0.9020	58.5300
 0.9030	58.5420
 0.9040	58.5360
 0.9050	58.5520
 0.9060	58.5750
 0.9070	58.5870
 0.9080	58.5820
 0.9090	58.5580
 0.9100	58.5340
 0.9110	58.5320
 0.9120	58.5540
 0.9130	58.5750
 0.9140	58.5890
 0.9150	58.5940
 0.9160	58.5880
 0.9170	58.5720
 0.9180	58.5630
 0.9190	58.5710
 0.9200	58.5730
 0.9210	58.5700
 0.9220	58.5600
 0.9230	58.5410
 0.9240	58.5390
 0.9250	58.5310
 0.9260	58.5200
 0.9270	58.5190
 0.9280	58.5110
 0.9290	58.4950
 0.9300	58.4740
 0.9310	58.4590
 0.9320	58.4500
 0.9330	58.4410
 0.9340	58.4260
 0.9350	58.4090
 0.9360	58.3910
 0.9370	58.3750
 0.9380	58.3570
 0.9390	58.3250
 0.9400	58.2880
 0.9410	58.2600
 0.9420	58.2440
 0.9430	58.2280
 0.9440	58.1940
 0.9450	58.1610
 0.9460	58.1350
 0.9470	58.0700
 0.9480	58.0250
 0.9490	57.9830
 0.9500	57.9250
 0.9510	57.8790
 0.9520	57.8140
 0.9530	57.7380
 0.9540	57.6660
 0.9550	57.6140
 0.9560	57.5510
 0.9570	57.4850
 0.9580	57.4290
 0.9590	57.3540
 0.9600	57.3050
 0.9610	57.2710
 0.9620	57.2290
 0.9630	57.2030
 0.9640	57.1790
 0.9650	57.1550
 0.9660	57.1340
 0.9670	57.1010
 0.9680	57.0710
 0.9690	57.0490
 0.9700	57.0360
 0.9710	57.0420
 0.9720	57.0420
 0.9730	57.0370
 0.9740	57.0380
 0.9750	57.0550
 0.9760	57.0770
 0.9770	57.1070
 0.9780	57.1390
 0.9790	57.1200
 0.9800	57.0980
 0.9810	57.1000
 0.9820	57.1230
 0.9830	57.1280
 0.9840	57.1560
 0.9850	57.1920
 0.9860	57.2060
 0.9870	57.2510
 0.9880	57.2880
 0.9890	57.3090
 0.9900	57.3300
 0.9910	57.3720
 0.9920	57.3990
 0.9930	57.4130
 0.9940	57.4400
 0.9950	57.4740
 0.9960	57.5180
 0.9970	57.5570
 0.9980	57.5830
 0.9990	57.6270
 1.0000	57.5930
 1.0010	57.4230
 1.0020	57.3700
 1.0030	57.4080
 1.0040	57.4530
 1.0050	57.4900
 1.0060	57.5370
 1.0070	57.5870
 1.0080	57.6270
 1.0090	57.6620
 1.0100	57.7000
 1.0110	57.7330
 1.0120	57.7670
 1.0130	57.8030
 1.0140	57.8390
 1.0150	57.8790
 1.0160	57.9040
 1.0170	57.9300
 1.0180	57.9620
 1.0190	57.9930
 1.0200	58.0330
 1.0210	58.0740
 1.0220	58.1170
 1.0230	58.1550
 1.0240	58.1860
 1.0250	58.2200
 1.0260	58.2560
 1.0270	58.2860
 1.0280	58.3110
 1.0290	58.3400
 1.0300	58.3690
 1.0310	58.3960
 1.0320	58.4250
 1.0330	58.4520
 1.0340	58.4760
 1.0350	58.5010
 1.0360	58.5230
 1.0370	58.5480
 1.0380	58.5740
 1.0390	58.5980
 1.0400	58.6230
 1.0410	58.6510
 1.0420	58.6740
 1.0430	58.6920
 1.0440	58.7130
 1.0450	58.7340
 1.0460	58.7540
 1.0470	58.7760
 1.0480	58.7960
 1.0490	58.8170
 1.0500	58.8370
 1.0510	58.8560
 1.0520	58.8760
 1.0530	58.8950
 1.0540	58.9150
 1.0550	58.9310
 1.0560	58.9460
 1.0570	58.9590
 1.0580	58.9690
 1.0590	58.9790
 1.0600	58.9860
 1.0610	58.9960
 1.0620	59.0050
 1.0630	59.0160
 1.0640	59.0340
 1.0650	59.0440
 1.0660	59.0470
 1.0670	59.0540
 1.0680	59.0600
 1.0690	59.0610
 1.0700	59.0660
 1.0710	59.0750
 1.0720	59.0810
 1.0730	59.0860
 1.0740	59.0900
 1.0750	59.0940
 1.0760	59.0980
 1.0770	59.1000
 1.0780	59.1000
 1.0790	59.0970
 1.0800	59.0970
 1.0810	59.0970
 1.0820	59.0950
 1.0830	59.0950
 1.0840	59.0930
 1.0850	59.0910
 1.0860	59.0850
 1.0870	59.0780
 1.0880	59.0720
 1.0890	59.0640
 1.0900	59.0540
 1.0910	59.0430
 1.0920	59.0330
 1.0930	59.0230
 1.0940	59.0140
 1.0950	59.0030
 1.0960	58.9940
 1.0970	58.9820
 1.0980	58.9650
 1.0990	58.9510
 1.1000	58.9420
 1.1010	58.9270
 1.1020	58.9080
 1.1030	58.8930
 1.1040	58.8780
 1.1050	58.8580
 1.1060	58.8430
 1.1070	58.8330
 1.1080	58.8150
 1.1090	58.7930
 1.1100	58.7720
 1.1110	58.7500
 1.1120	58.7250
 1.1130	58.7020
 1.1140	58.6760
 1.1150	58.6460
 1.1160	58.6160
 1.1170	58.5890
 1.1180	58.5570
 1.1190	58.5220
 1.1200	58.4860
 1.1210	58.4510
 1.1220	58.4100
 1.1230	58.3600
 1.1240	58.3090
 1.1250	58.2500
 1.1260	58.1830
 1.1270	58.1110
 1.1280	58.0330
 1.1290	57.9510
 1.1300	57.8650
 1.1310	57.7700
 1.1320	57.6730
 1.1330	57.5630
 1.1340	57.4400
 1.1350	57.3110
 1.1360	57.1750
 1.1370	57.0280
 1.1380	56.8730
 1.1390	56.7130
 1.1400	56.5440
 1.1410	56.3700
 1.1420	56.1960
 1.1430	56.0170
 1.1440	55.8400
 1.1450	55.6600
 1.1460	55.4830
 1.1470	55.3060
 1.1480	55.1350
 1.1490	54.9640
 1.1500	54.8020
 1.1510	54.6420
 1.1520	54.4970
 1.1530	54.3590
 1.1540	54.2360
 1.1550	54.1270
 1.1560	54.0270
 1.1570	53.9390
 1.1580	53.8600
 1.1590	53.7870
 1.1600	53.7230
 1.1610	53.6680
 1.1620	53.6180
 1.1630	53.5750
 1.1640	53.5410
 1.1650	53.5100
 1.1660	53.4850
 1.1670	53.4630
 1.1680	53.4490
 1.1690	53.4330
 1.1700	53.4190
 1.1710	53.4060
 1.1720	53.3970
 1.1730	53.3870
 1.1740	53.3790
 1.1750	53.3720
 1.1760	53.3640
 1.1770	53.3500
 1.1780	53.3370
 1.1790	53.3270
 1.1800	53.3190
 1.1810	53.3110
 1.1820	53.2990
 1.1830	53.2850
 1.1840	53.2710
 1.1850	53.2530
 1.1860	53.2380
 1.1870	53.2270
 1.1880	53.2160
 1.1890	53.2030
 1.1900	53.1960
 1.1910	53.1930
 1.1920	53.1900
 1.1930	53.1900
 1.1940	53.1910
 1.1950	53.1930
 1.1960	53.1940
 1.1970	53.1990
 1.1980	53.2030
 1.1990	53.2120
 1.2000	53.2250
 1.2010	53.2350
 1.2020	53.2500
 1.2030	53.2660
 1.2040	53.2790
 1.2050	53.2980
 1.2060	53.3200
 1.2070	53.3410
 1.2080	53.3660
 1.2090	53.3880
 1.2100	53.4100
 1.2110	53.4360
 1.2120	53.4630
 1.2130	53.4940
 1.2140	53.5290
 1.2150	53.5640
 1.2160	53.6000
 1.2170	53.6400
 1.2180	53.6750
 1.2190	53.7120
 1.2200	53.7490
 1.2210	53.7840
 1.2220	53.8230
 1.2230	53.8620
 1.2240	53.9030
 1.2250	53.9420
 1.2260	53.9790
 1.2270	54.0170
 1.2280	54.0520
 1.2290	54.0880
 1.2300	54.1230
 1.2310	54.1550
 1.2320	54.1880
 1.2330	54.2210
 1.2340	54.2530
 1.2350	54.2880
 1.2360	54.3180
 1.2370	54.3460
 1.2380	54.3720
 1.2390	54.3960
 1.2400	54.4230
 1.2410	54.4530
 1.2420	54.4790
 1.2430	54.5070
 1.2440	54.5330
 1.2450	54.5520
 1.2460	54.5750
 1.2470	54.5960
 1.2480	54.6170
 1.2490	54.6430
 1.2500	54.6690
 1.2510	54.6900
 1.2520	54.7070
 1.2530	54.7210
 1.2540	54.7340
 1.2550	54.7510
 1.2560	54.7670
 1.2570	54.7800
 1.2580	54.7940
 1.2590	54.8050
 1.2600	54.8120
 1.2610	54.8200
 1.2620	54.8280
 1.2630	54.8340
 1.2640	54.8380
 1.2650	54.8410
 1.2660	54.8430
 1.2670	54.8440
 1.2680	54.8430
 1.2690	54.8420
 1.2700	54.8390
 1.2710	54.8330
 1.2720	54.8260
 1.2730	54.8190
 1.2740	54.8120
 1.2750	54.8030
 1.2760	54.7960
 1.2770	54.7850
 1.2780	54.7690
 1.2790	54.7530
 1.2800	54.7360
 1.2810	54.7200
 1.2820	54.7040
 1.2830	54.6840
 1.2840	54.6630
 1.2850	54.6390
 1.2860	54.6110
 1.2870	54.5830
 1.2880	54.5530
 1.2890	54.5210
 1.2900	54.4870
 1.2910	54.4520
 1.2920	54.4140
 1.2930	54.3710
 1.2940	54.3240
 1.2950	54.2760
 1.2960	54.2280
 1.2970	54.1770
 1.2980	54.1220
 1.2990	54.0640
 1.3000	54.0050
 1.3010	53.9440
 1.3020	53.8780
 1.3030	53.8070
 1.3040	53.7310
 1.3050	53.6510
 1.3060	53.5710
 1.3070	53.4850
 1.3080	53.3930
 1.3090	53.3010
 1.3100	53.2030
 1.3110	53.1000
 1.3120	52.9950
 1.3130	52.8860
 1.3140	52.7700
 1.3150	52.6490
 1.3160	52.5270
 1.3170	52.4030
 1.3180	52.2690
 1.3190	52.1350
 1.3200	51.9940
 1.3210	51.8430
 1.3220	51.6910
 1.3230	51.5340
 1.3240	51.3740
 1.3250	51.2130
 1.3260	51.0440
 1.3270	50.8720
 1.3280	50.6960
 1.3290	50.5150
 1.3300	50.3360
 1.3310	50.1520
 1.3320	49.9650
 1.3330	49.7770
 1.3340	49.5860
 1.3350	49.3960
 1.3360	49.2050
 1.3370	49.0130
 1.3380	48.8190
 1.3390	48.6260
 1.3400	48.4310
 1.3410	48.2400
 1.3420	48.0510
 1.3430	47.8620
 1.3440	47.6750
 1.3450	47.4890
 1.3460	47.3030
 1.3470	47.1220
 1.3480	46.9420
 1.3490	46.7640
 1.3500	46.5910
 1.3510	46.4180
 1.3520	46.2460
 1.3530	46.0770
 1.3540	45.9070
 1.3550	45.7350
 1.3560	45.5620
 1.3570	45.3860
 1.3580	45.2090
 1.3590	45.0300
 1.3600	44.8480
 1.3610	44.6630
 1.3620	44.4720
 1.3630	44.2750
 1.3640	44.0680
 1.3650	43.8520
 1.3660	43.6290
 1.3670	43.3930
 1.3680	43.1440
 1.3690	42.8830
 1.3700	42.6010
 1.3710	42.3040
 1.3720	41.9920
 1.3730	41.6570
 1.3740	41.3070
 1.3750	40.9330
 1.3760	40.5310
 1.3770	40.1060
 1.3780	39.6470
 1.3790	39.1610
 1.3800	38.6490
 1.3810	38.1020
 1.3820	37.5330
 1.3830	36.9400
 1.3840	36.3210
 1.3850	35.6760
 1.3860	35.0150
 1.3870	34.3240
 1.3880	33.6300
 1.3890	32.9210
 1.3900	32.2000
 1.3910	31.4820
 1.3920	30.7570
 1.3930	30.0280
 1.3940	29.3060
 1.3950	28.5820
 1.3960	27.8710
 1.3970	27.1750
 1.3980	26.4920
 1.3990	25.8360
 1.4000	25.1980
 1.4010	24.5780
 1.4020	23.9880
 1.4030	23.4170
 1.4040	22.8720
 1.4050	22.3580
 1.4060	21.8700
 1.4070	21.4130
 1.4080	20.9840
 1.4090	20.5780
 1.4100	20.2010
 1.4110	19.8480
 1.4120	19.5200
 1.4130	19.2180
 1.4140	18.9390
 1.4150	18.6830
 1.4160	18.4480
 1.4170	18.2300
 1.4180	18.0330
 1.4190	17.8510
 1.4200	17.6840
 1.4210	17.5330
 1.4220	17.3960
 1.4230	17.2730
 1.4240	17.1630
 1.4250	17.0620
 1.4260	16.9720
 1.4270	16.8910
 1.4280	16.8210
 1.4290	16.7570
 1.4300	16.7020
 1.4310	16.6540
 1.4320	16.6140
 1.4330	16.5780
 1.4340	16.5510
 1.4350	16.5270
 1.4360	16.5070
 1.4370	16.4920
 1.4380	16.4810
 1.4390	16.4740
 1.4400	16.4720
 1.4410	16.4730
 1.4420	16.4760
 1.4430	16.4810
 1.4440	16.4890
 1.4450	16.4980
 1.4460	16.5110
 1.4470	16.5260
 1.4480	16.5420
 1.4490	16.5600
 1.4500	16.5810
 1.4510	16.6020
 1.4520	16.6240
 1.4530	16.6490
 1.4540	16.6730
 1.4550	16.7000
 1.4560	16.7300
 1.4570	16.7620
 1.4580	16.7980
 1.4590	16.8350
 1.4600	16.8760
 1.4610	16.9210
 1.4620	16.9700
 1.4630	17.0260
 1.4640	17.0860
 1.4650	17.1520
 1.4660	17.2240
 1.4670	17.3020
 1.4680	17.3850
 1.4690	17.4720
 1.4700	17.5650
 1.4710	17.6640
 1.4720	17.7650
 1.4730	17.8730
 1.4740	17.9840
 1.4750	18.0980
 1.4760	18.2180
 1.4770	18.3410
 1.4780	18.4670
 1.4790	18.5970
 1.4800	18.7260
 1.4810	18.8560
 1.4820	18.9890
 1.4830	19.1230
 1.4840	19.2600
 1.4850	19.3990
 1.4860	19.5370
 1.4870	19.6780
 1.4880	19.8170
 1.4890	19.9570
 1.4900	20.0990
 1.4910	20.2430
 1.4920	20.3860
 1.4930	20.5330
 1.4940	20.6780
 1.4950	20.8230
 1.4960	20.9690
 1.4970	21.1160
 1.4980	21.2630
 1.4990	21.4110
 1.5000	21.5580
 1.5010	21.7050
 1.5020	21.8530
 1.5030	22.0000
 1.5040	22.1470
 1.5050	22.2920
 1.5060	22.4380
 1.5070	22.5840
 1.5080	22.7290
 1.5090	22.8750
 1.5100	23.0190
 1.5110	23.1630
 1.5120	23.3070
 1.5130	23.4490
 1.5140	23.5920
 1.5150	23.7330
 1.5160	23.8710
 1.5170	24.0090
 1.5180	24.1460
 1.5190	24.2810
 1.5200	24.4190
 1.5210	24.5540
 1.5220	24.6870
 1.5230	24.8210
 1.5240	24.9530
 1.5250	25.0810
 1.5260	25.2120
 1.5270	25.3400
 1.5280	25.4670
 1.5290	25.5940
 1.5300	25.7200
 1.5310	25.8440
 1.5320	25.9660
 1.5330	26.0890
 1.5340	26.2100
 1.5350	26.3300
 1.5360	26.4500
 1.5370	26.5660
 1.5380	26.6810
 1.5390	26.7960
 1.5400	26.9080
 1.5410	27.0200
 1.5420	27.1310
 1.5430	27.2400
 1.5440	27.3510
 1.5450	27.4570
 1.5460	27.5650
 1.5470	27.6720
 1.5480	27.7760
 1.5490	27.8800
 1.5500	27.9830
 1.5510	28.0850
 1.5520	28.1880
 1.5530	28.2900
 1.5540	28.3920
 1.5550	28.4930
 1.5560	28.5900
 1.5570	28.6880
 1.5580	28.7840
 1.5590	28.8790
 1.5600	28.9750
 1.5610	29.0680
 1.5620	29.1600
 1.5630	29.2530
 1.5640	29.3440
 1.5650	29.4340
 1.5660	29.5240
 1.5670	29.6130
 1.5680	29.7030
 1.5690	29.7910
 1.5700	29.8810
 1.5710	29.9710
 1.5720	30.0580
 1.5730	30.1460
 1.5740	30.2340
 1.5750	30.3190
 1.5760	30.4050
 1.5770	30.4890
 1.5780	30.5710
 1.5790	30.6540
 1.5800	30.7350
 1.5810	30.8170
 1.5820	30.8970
 1.5830	30.9760
 1.5840	31.0550
 1.5850	31.1330
 1.5860	31.2120
 1.5870	31.2890
 1.5880	31.3690
 1.5890	31.4480
 1.5900	31.5250
 1.5910	31.6040
 1.5920	31.6790
 1.5930	31.7510
 1.5940	31.8260
 1.5950	31.9000
 1.5960	31.9720
 1.5970	32.0480
 1.5980	32.1220
 1.5990	32.1950
 1.6000	32.2670
 1.6010	32.3370
 1.6020	32.4060
 1.6030	32.4730
 1.6040	32.5400
 1.6050	32.6100
 1.6060	32.6770
 1.6070	32.7440
 1.6080	32.8130
 1.6090	32.8770
 1.6100	32.9410
 1.6110	33.0040
 1.6120	33.0630
 1.6130	33.1250
 1.6140	33.1850
 1.6150	33.2420
 1.6160	33.3000
 1.6170	33.3550
 1.6180	33.4100
 1.6190	33.4670
 1.6200	33.5210
 1.6210	33.5760
 1.6220	33.6310
 1.6230	33.6850
 1.6240	33.7380
 1.6250	33.7880
 1.6260	33.8340
 1.6270	33.8800
 1.6280	33.9250
 1.6290	33.9700
 1.6300	34.0160
 1.6310	34.0590
 1.6320	34.1020
 1.6330	34.1410
 1.6340	34.1780
 1.6350	34.2150
 1.6360	34.2500
 1.6370	34.2830
 1.6380	34.3150
 1.6390	34.3450
 1.6400	34.3740
 1.6410	34.3990
 1.6420	34.4230
 1.6430	34.4420
 1.6440	34.4550
 1.6450	34.4680
 1.6460	34.4770
 1.6470	34.4850
 1.6480	34.4930
 1.6490	34.4990
 1.6500	34.5030
 1.6510	34.5040
 1.6520	34.5010
 1.6530	34.4950
 1.6540	34.4870
 1.6550	34.4780
 1.6560	34.4690
 1.6570	34.4590
 1.6580	34.4490
 1.6590	34.4370
 1.6600	34.4230
 1.6610	34.4130
 1.6620	34.4040
 1.6630	34.3960
 1.6640	34.3900
 1.6650	34.3830
 1.6660	34.3750
 1.6670	34.3700
 1.6680	34.3670
 1.6690	34.3640
 1.6700	34.3620
 1.6710	34.3590
 1.6720	34.3530
 1.6730	34.3460
 1.6740	34.3380
 1.6750	34.3270
 1.6760	34.3150
 1.6770	34.2970
 1.6780	34.2760
 1.6790	34.2530
 1.6800	34.2260
 1.6810	34.2000
 1.6820	34.1720
 1.6830	34.1400
 1.6840	34.1050
 1.6850	34.0670
 1.6860	34.0240
 1.6870	33.9780
 1.6880	33.9320
 1.6890	33.8840
 1.6900	33.8360
 1.6910	33.7860
 1.6920	33.7370
 1.6930	33.6860
 1.6940	33.6360
 1.6950	33.5870
 1.6960	33.5370
 1.6970	33.4850
 1.6980	33.4330
 1.6990	33.3800
 1.7000	33.3260
 1.7010	33.2710
 1.7020	33.2150
 1.7030	33.1600
 1.7040	33.1020
 1.7050	33.0410
 1.7060	32.9780
 1.7070	32.9120
 1.7080	32.8460
 1.7090	32.7770
 1.7100	32.7110
 1.7110	32.6430
 1.7120	32.5800
 1.7130	32.5140
 1.7140	32.4460
 1.7150	32.3770
 1.7160	32.3110
 1.7170	32.2480
 1.7180	32.1850
 1.7190	32.1240
 1.7200	32.0630
 1.7210	32.0050
 1.7220	31.9510
 1.7230	31.8980
 1.7240	31.8440
 1.7250	31.7890
 1.7260	31.7390
 1.7270	31.6900
 1.7280	31.6410
 1.7290	31.5950
 1.7300	31.5450
 1.7310	31.4980
 1.7320	31.4540
 1.7330	31.4090
 1.7340	31.3670
 1.7350	31.3220
 1.7360	31.2780
 1.7370	31.2290
 1.7380	31.1780
 1.7390	31.1240
 1.7400	31.0660
 1.7410	31.0070
 1.7420	30.9470
 1.7430	30.8830
 1.7440	30.8170
 1.7450	30.7480
 1.7460	30.6730
 1.7470	30.6010
 1.7480	30.5270
 1.7490	30.4550
 1.7500	30.3860
 1.7510	30.3140
 1.7520	30.2400
 1.7530	30.1660
 1.7540	30.0890
 1.7550	30.0170
 1.7560	29.9440
 1.7570	29.8760
 1.7580	29.8050
 1.7590	29.7340
 1.7600	29.6640
 1.7610	29.5930
 1.7620	29.5260
 1.7630	29.4640
 1.7640	29.4030
 1.7650	29.3450
 1.7660	29.2870
 1.7670	29.2290
 1.7680	29.1750
 1.7690	29.1240
 1.7700	29.0720
 1.7710	29.0210
 1.7720	28.9730
 1.7730	28.9240
 1.7740	28.8780
 1.7750	28.8350
 1.7760	28.7940
 1.7770	28.7540
 1.7780	28.7170
 1.7790	28.6820
 1.7800	28.6500
 1.7810	28.6190
 1.7820	28.5910
 1.7830	28.5670
 1.7840	28.5430
 1.7850	28.5240
 1.7860	28.5030
 1.7870	28.4840
 1.7880	28.4610
 1.7890	28.4410
 1.7900	28.4250
 1.7910	28.4140
 1.7920	28.4110
 1.7930	28.4070
 1.7940	28.4030
 1.7950	28.4000
 1.7960	28.3980
 1.7970	28.3990
 1.7980	28.4030
 1.7990	28.4070
 1.8000	28.4140
 1.8010	28.4170
 1.8020	28.4190
 1.8030	28.4240
 1.8040	28.4280
 1.8050	28.4350
 1.8060	28.4450
 1.8070	28.4530
 1.8080	28.4620
 1.8090	28.4670
 1.8100	28.4700
 1.8110	28.4780
 1.8120	28.4850
 1.8130	28.4920
 1.8140	28.4970
 1.8150	28.4940
 1.8160	28.4890
 1.8170	28.4890
 1.8180	28.4960
 1.8190	28.5080
 1.8200	28.5130
 1.8210	28.5130
 1.8220	28.5100
 1.8230	28.5010
 1.8240	28.4950
 1.8250	28.4920
 1.8260	28.4840
 1.8270	28.4780
 1.8280	28.4640
 1.8290	28.4410
 1.8300	28.5240
 1.8310	28.7290
 1.8320	28.8070
 1.8330	28.7790
 1.8340	28.7480
 1.8350	28.7060
 1.8360	28.6580
 1.8370	28.6070
 1.8380	28.5470
 1.8390	28.4820
 1.8400	28.4150
 1.8410	28.3370
 1.8420	28.2540
 1.8430	28.1610
 1.8440	28.0610
 1.8450	27.9520
 1.8460	27.8340
 1.8470	27.7090
 1.8480	27.5720
 1.8490	27.4210
 1.8500	27.2590
 1.8510	27.0870
 1.8520	26.8980
 1.8530	26.7000
 1.8540	26.4910
 1.8550	26.2670
 1.8560	26.0270
 1.8570	25.7720
 1.8580	25.4980
 1.8590	25.2090
 1.8600	24.9040
 1.8610	24.5840
 1.8620	24.2470
 1.8630	23.8960
 1.8640	23.5260
 1.8650	23.1320
 1.8660	22.7210
 1.8670	22.2860
 1.8680	21.8350
 1.8690	21.3660
 1.8700	20.8770
 1.8710	20.3680
 1.8720	19.8490
 1.8730	19.3160
 1.8740	18.7730
 1.8750	18.2300
 1.8760	17.6760
 1.8770	17.1220
 1.8780	16.5690
 1.8790	16.0150
 1.8800	15.4720
 1.8810	14.9340
 1.8820	14.4040
 1.8830	13.8800
 1.8840	13.3690
 1.8850	12.8690
 1.8860	12.3850
 1.8870	11.9190
 1.8880	11.4700
 1.8890	11.0470
 1.8900	10.6470
 1.8910	10.2680
 1.8920	 9.9090
 1.8930	 9.5780
 1.8940	 9.2640
 1.8950	 8.9730
 1.8960	 8.7080
 1.8970	 8.4640
 1.8980	 8.2470
 1.8990	 8.0520
 1.9000	 7.8710
 1.9010	 7.7130
 1.9020	 7.5670
 1.9030	 7.4350
 1.9040	 7.3190
 1.9050	 7.2210
 1.9060	 7.1330
 1.9070	 7.0590
 1.9080	 6.9910
 1.9090	 6.9290
 1.9100	 6.8750
 1.9110	 6.8260
 1.9120	 6.7850
 1.9130	 6.7470
 1.9140	 6.7150
 1.9150	 6.6870
 1.9160	 6.6620
 1.9170	 6.6390
 1.9180	 6.6210
 1.9190	 6.6080
 1.9200	 6.5970
 1.9210	 6.5880
 1.9220	 6.5810
 1.9230	 6.5770
 1.9240	 6.5750
 1.9250	 6.5740
 1.9260	 6.5770
 1.9270	 6.5780
 1.9280	 6.5780
 1.9290	 6.5830
 1.9300	 6.5880
 1.9310	 6.5940
 1.9320	 6.6040
 1.9330	 6.6140
 1.9340	 6.6230
 1.9350	 6.6350
 1.9360	 6.6490
 1.9370	 6.6640
 1.9380	 6.6820
 1.9390	 6.7010
 1.9400	 6.7210
 1.9410	 6.7390
 1.9420	 6.7610
 1.9430	 6.7830
 1.9440	 6.8040
 1.9450	 6.8270
 1.9460	 6.8510
 1.9470	 6.8740
 1.9480	 6.8990
 1.9490	 6.9250
 1.9500	 6.9530
 1.9510	 6.9790
 1.9520	 7.0070
 1.9530	 7.0370
 1.9540	 7.0690
 1.9550	 7.1010
 1.9560	 7.1350
 1.9570	 7.1690
 1.9580	 7.2040
 1.9590	 7.2380
 1.9600	 7.2720
 1.9610	 7.3080
 1.9620	 7.3440
 1.9630	 7.3820
 1.9640	 7.4240
 1.9650	 7.4670
 1.9660	 7.5080
 1.9670	 7.5500
 1.9680	 7.5920
 1.9690	 7.6300
 1.9700	 7.6750
 1.9710	 7.7230
 1.9720	 7.7720
 1.9730	 7.8230
 1.9740	 7.8730
 1.9750	 7.9230
 1.9760	 7.9740
 1.9770	 8.0210
 1.9780	 8.0720
 1.9790	 8.1250
 1.9800	 8.1770
 1.9810	 8.2310
 1.9820	 8.2900
 1.9830	 8.3450
 1.9840	 8.3990
 1.9850	 8.4550
 1.9860	 8.5110
 1.9870	 8.5630
 1.9880	 8.6190
 1.9890	 8.6770
 1.9900	 8.7340
 1.9910	 8.7960
 1.9920	 8.8580
 1.9930	 8.9230
 1.9940	 8.9850
 1.9950	 9.0470
 1.9960	 9.1080
 1.9970	 9.1640
 1.9980	 9.2240
 1.9990	 9.2850
 2.0000	 9.3430
 2.0010	 9.4050
 2.0020	 9.4690
 2.0030	 9.5310
 2.0040	 9.5950
 2.0050	 9.6560
 2.0060	 9.7140
 2.0070	 9.7750
 2.0080	 9.8350
 2.0090	 9.8970
 2.0100	 9.9620
 2.0110	10.0240
 2.0120	10.0840
 2.0130	10.1440
 2.0140	10.2030
 2.0150	10.2620
 2.0160	10.3220
 2.0170	10.3810
 2.0180	10.4400
 2.0190	10.4990
 2.0200	10.5570
 2.0210	10.6160
 2.0220	10.6710
 2.0230	10.7230
 2.0240	10.7770
 2.0250	10.8310
 2.0260	10.8830
 2.0270	10.9360
 2.0280	10.9880
 2.0290	11.0360
 2.0300	11.0860
 2.0310	11.1350
 2.0320	11.1860
 2.0330	11.2330
 2.0340	11.2800
 2.0350	11.3230
 2.0360	11.3630
 2.0370	11.4050
 2.0380	11.4430
 2.0390	11.4840
 2.0400	11.5280
 2.0410	11.5690
 2.0420	11.6100
 2.0430	11.6530
 2.0440	11.6920
 2.0450	11.7270
 2.0460	11.7640
 2.0470	11.8000
 2.0480	11.8350
 2.0490	11.8710
 2.0500	11.9060
 2.0510	11.9370
 2.0520	11.9700
 2.0530	12.0000
 2.0540	12.0330
 2.0550	12.0670
 2.0560	12.0990
 2.0570	12.1280
 2.0580	12.1600
 2.0590	12.1930
 2.0600	12.2230
 2.0610	12.2550
 2.0620	12.2930
 2.0630	12.3240
 2.0640	12.3530
 2.0650	12.3810
 2.0660	12.4060
 2.0670	12.4340
 2.0680	12.4630
 2.0690	12.4930
 2.0700	12.5250
 2.0710	12.5550
 2.0720	12.5810
 2.0730	12.6110
 2.0740	12.6420
 2.0750	12.6740
 2.0760	12.7040
 2.0770	12.7370
 2.0780	12.7670
 2.0790	12.7940
 2.0800	12.8250
 2.0810	12.8580
 2.0820	12.8890
 2.0830	12.9210
 2.0840	12.9510
 2.0850	12.9780
 2.0860	13.0060
 2.0870	13.0340
 2.0880	13.0610
 2.0890	13.0900
 2.0900	13.1170
 2.0910	13.1470
 2.0920	13.1790
 2.0930	13.2110
 2.0940	13.2430
 2.0950	13.2740
 2.0960	13.3070
 2.0970	13.3380
 2.0980	13.3670
 2.0990	13.3970
 2.1000	13.4250
 2.1010	13.4540
 2.1020	13.4840
 2.1030	13.5150
 2.1040	13.5440
 2.1050	13.5750
 2.1060	13.6070
 2.1070	13.6420
 2.1080	13.6730
 2.1090	13.7010
 2.1100	13.7310
 2.1110	13.7590
 2.1120	13.7880
 2.1130	13.8200
 2.1140	13.8500
 2.1150	13.8780
 2.1160	13.9060
 2.1170	13.9330
 2.1180	13.9620
 2.1190	13.9910
 2.1200	14.0200
 2.1210	14.0500
 2.1220	14.0780
 2.1230	14.1060
 2.1240	14.1310
 2.1250	14.1560
 2.1260	14.1790
 2.1270	14.2060
 2.1280	14.2350
 2.1290	14.2640
 2.1300	14.2980
 2.1310	14.3280
 2.1320	14.3570
 2.1330	14.3840
 2.1340	14.4060
 2.1350	14.4310
 2.1360	14.4550
 2.1370	14.4810
 2.1380	14.5100
 2.1390	14.5390
 2.1400	14.5690
 2.1410	14.5980
 2.1420	14.6270
 2.1430	14.6570
 2.1440	14.6850
 2.1450	14.7120
 2.1460	14.7390
 2.1470	14.7670
 2.1480	14.7940
 2.1490	14.8210
 2.1500	14.8490
 2.1510	14.8790
 2.1520	14.9060
 2.1530	14.9330
 2.1540	14.9600
 2.1550	14.9870
 2.1560	15.0130
 2.1570	15.0410
 2.1580	15.0680
 2.1590	15.0940
 2.1600	15.1190
 2.1610	15.1470
 2.1620	15.1750
 2.1630	15.1990
 2.1640	15.2200
 2.1650	15.2430
 2.1660	15.2610
 2.1670	15.2840
 2.1680	15.3120
 2.1690	15.3380
 2.1700	15.3660
 2.1710	15.3900
 2.1720	15.4100
 2.1730	15.4320
 2.1740	15.4500
 2.1750	15.4730
 2.1760	15.5020
 2.1770	15.5260
 2.1780	15.5500
 2.1790	15.5730
 2.1800	15.5930
 2.1810	15.6150
 2.1820	15.6370
 2.1830	15.6600
 2.1840	15.6830
 2.1850	15.7040
 2.1860	15.7270
 2.1870	15.7480
 2.1880	15.7740
 2.1890	15.8050
 2.1900	15.8310
 2.1910	15.8570
 2.1920	15.8840
 2.1930	15.9090
 2.1940	15.9350
 2.1950	15.9650
 2.1960	15.9900
 2.1970	16.0100
 2.1980	16.0320
 2.1990	16.0520
 2.2000	16.0740
 2.2010	16.0990
 2.2020	16.1220
 2.2030	16.1440
 2.2040	16.1660
 2.2050	16.1870
 2.2060	16.2070
 2.2070	16.2260
 2.2080	16.2460
 2.2090	16.2620
 2.2100	16.2780
 2.2110	16.2930
 2.2120	16.3070
 2.2130	16.3210
 2.2140	16.3350
 2.2150	16.3480
 2.2160	16.3600
 2.2170	16.3710
 2.2180	16.3790
 2.2190	16.3880
 2.2200	16.3990
 2.2210	16.4030
 2.2220	16.4080
 2.2230	16.4050
 2.2240	16.3940
 2.2250	16.3840
 2.2260	16.3710
 2.2270	16.3570
 2.2280	16.3430
 2.2290	16.3260
 2.2300	16.3080
 2.2310	16.2850
 2.2320	16.2600
 2.2330	16.2320
 2.2340	16.1990
 2.2350	16.1600
 2.2360	16.1210
 2.2370	16.0780
 2.2380	16.0340
 2.2390	15.9890
 2.2400	15.9420
 2.2410	15.8950
 2.2420	15.8410
 2.2430	15.7780
 2.2440	15.7220
 2.2450	15.6630
 2.2460	15.6060
 2.2470	15.5580
 2.2480	15.5020
 2.2490	15.4380
 2.2500	15.3780
 2.2510	15.3190
 2.2520	15.2590
 2.2530	15.1960
 2.2540	15.1360
 2.2550	15.0780
 2.2560	15.0190
 2.2570	14.9600
 2.2580	14.9040
 2.2590	14.8480
 2.2600	14.7930
 2.2610	14.7420
 2.2620	14.6920
 2.2630	14.6350
 2.2640	14.5800
 2.2650	14.5230
 2.2660	14.4630
 2.2670	14.4110
 2.2680	14.3620
 2.2690	14.3140
 2.2700	14.2710
 2.2710	14.2260
 2.2720	14.1810
 2.2730	14.1360
 2.2740	14.0910
 2.2750	14.0460
 2.2760	13.9960
 2.2770	13.9530
 2.2780	13.9150
 2.2790	13.8730
 2.2800	13.8310
 2.2810	13.7910
 2.2820	13.7490
 2.2830	13.7100
 2.2840	13.6810
 2.2850	13.6430
 2.2860	13.5990
 2.2870	13.5580
 2.2880	13.5130
 2.2890	13.4710
 2.2900	13.4370
 2.2910	13.3960
 2.2920	13.3530
 2.2930	13.3050
 2.2940	13.2450
 2.2950	13.1920
 2.2960	13.1400
 2.2970	13.0890
 2.2980	13.0420
 2.2990	12.9950
 2.3000	12.9470
 2.3010	12.9050
 2.3020	12.8650
 2.3030	12.8250
 2.3040	12.7830
 2.3050	12.7360
 2.3060	12.6900
 2.3070	12.6450
 2.3080	12.6010
 2.3090	12.5630
 2.3100	12.5250
 2.3110	12.4900
 2.3120	12.4580
 2.3130	12.4280
 2.3140	12.4000
 2.3150	12.3750
 2.3160	12.3510
 2.3170	12.3310
 2.3180	12.3030
 2.3190	12.2710
 2.3200	12.2440
 2.3210	12.2150
 2.3220	12.1900
 2.3230	12.1720
 2.3240	12.1470
 2.3250	12.1210
 2.3260	12.0910
 2.3270	12.0600
 2.3280	12.0240
 2.3290	11.9780
 2.3300	11.9410
 2.3310	11.9020
 2.3320	11.8680
 2.3330	11.8450
 2.3340	11.8130
 2.3350	11.7850
 2.3360	11.7480
 2.3370	11.7000
 2.3380	11.6580
 2.3390	11.6120
 2.3400	11.5690
 2.3410	11.5280
 2.3420	11.4930
 2.3430	11.4600
 2.3440	11.4260
 2.3450	11.3960
 2.3460	11.3650
 2.3470	11.3300
 2.3480	11.3010
 2.3490	11.2830
 2.3500	11.2570
 2.3510	11.2300
 2.3520	11.2000
 2.3530	11.1610
 2.3540	11.1280
 2.3550	11.1040
 2.3560	11.0770
 2.3570	11.0500
 2.3580	11.0190
 2.3590	10.9770
 2.3600	10.9400
 2.3610	10.9080
 2.3620	10.8760
 2.3630	10.8520
 2.3640	10.8290
 2.3650	10.8060
 2.3660	10.7790
 2.3670	10.7520
 2.3680	10.7200
 2.3690	10.6820
 2.3700	10.6460
 2.3710	10.6080
 2.3720	10.5770
 2.3730	10.5480
 2.3740	10.5180
 2.3750	10.4880
 2.3760	10.4490
 2.3770	10.4140
 2.3780	10.3880
 2.3790	10.3560
 2.3800	10.3190
 2.3810	10.2800
 2.3820	10.2330
 2.3830	10.1870
 2.3840	10.1550
 2.3850	10.1240
 2.3860	10.0810
 2.3870	10.0360
 2.3880	 9.9800
 2.3890	 9.9290
 2.3900	 9.8880
 2.3910	 9.8460
 2.3920	 9.8120
 2.3930	 9.7660
 2.3940	 9.7250
 2.3950	 9.7030
 2.3960	 9.6670
 2.3970	 9.6290
 2.3980	 9.5940
 2.3990	 9.5510
 2.4000	 9.4990
 2.4010	 9.4640
 2.4020	 9.4340
 2.4030	 9.3920
 2.4040	 9.3660
 2.4050	 9.3310
 2.4060	 9.2740
 2.4070	 9.2280
 2.4080	 9.1800
 2.4090	 9.1320
 2.4100	 9.0980
 2.4110	 9.0600
 2.4120	 9.0210
 2.4130	 8.9770
 2.4140	 8.9230
 2.4150	 8.8710
 2.4160	 8.8120
 2.4170	 8.7650
 2.4180	 8.7360
 2.4190	 8.7050
 2.4200	 8.6880
 2.4210	 8.6590
 2.4220	 8.6150
 2.4230	 8.5780
 2.4240	 8.5280
 2.4250	 8.4860
 2.4260	 8.4490
 2.4270	 8.3950
 2.4280	 8.3540
 2.4290	 8.3160
 2.4300	 8.2570
 2.4310	 8.2050
 2.4320	 8.1530
 2.4330	 8.1040
 2.4340	 8.0820
 2.4350	 8.0590
 2.4360	 8.0270
 2.4370	 7.9960
 2.4380	 7.9430
 2.4390	 7.9010
 2.4400	 7.8710
 2.4410	 7.8270
 2.4420	 7.8040
 2.4430	 7.7690
 2.4440	 7.7240
 2.4450	 7.6880
 2.4460	 7.6350
 2.4470	 7.6050
 2.4480	 7.5680
 2.4490	 7.5070
 2.4500	 7.4570
 2.4510	 7.3950
 2.4520	 7.3670
 2.4530	 7.3640
 2.4540	 7.3490
 2.4550	 7.3440
 2.4560	 7.3040
 2.4570	 7.2450
 2.4580	 7.2200
 2.4590	 7.1920
 2.4600	 7.1540
 2.4610	 7.1360
 2.4620	 7.1140
 2.4630	 7.0810
 2.4640	 7.0600
 2.4650	 7.0400
 2.4660	 7.0030
 2.4670	 6.9600
 2.4680	 6.9430
 2.4690	 6.9340
 2.4700	 6.9220
 2.4710	 6.9240
 2.4720	 6.9070
 2.4730	 6.8730
 2.4740	 6.8520
 2.4750	 6.8470
 2.4760	 6.8090
 2.4770	 6.7470
 2.4780	 6.7100
 2.4790	 6.6490
 2.4800	 6.6260
 2.4810	 6.6540
 2.4820	 6.6420
 2.4830	 6.6370
 2.4840	 6.6420
 2.4850	 6.6570
 2.4860	 6.6220
 2.4870	 6.5700
 2.4880	 6.5180
 2.4890	 6.4740
 2.4900	 6.5070
 2.4910	 6.5410
 2.4920	 6.5530
 2.4930	 6.5270
 2.4940	 6.5070
 2.4950	 6.5420
 2.4960	 6.5660
 2.4970	 6.5890
 2.4980	 6.5930
 2.4990	 6.5620
 2.5000	 6.5340
