Name: Baccharis pilularis 2
Type: vegetation
Class: Shrub
Genus: Baccharis
Species: pilularis
Sample No.: VH045
Owner: UCSB
Wavelength Range: VSWIR
Origin: 34.5084; -119.7683; WGS84
Collection Date: 4/1/2013
Description: Samples were collected as part of the HyspIRI Airborne Campaign. 48 individual plants were sampled in three times in 2013 - spring  summer  and fall. The name of the sample includes a 1  2  or 3 which references a different individual of the species. Samples were taken to JPL and processed within 48 hours of collection. The same leaves were processed in the Nicolet and then measured using the ASD.
Measurement: Bidirectional reflectance
First Column: X
Second Column: Y
X Units: Wavelength (micrometers)
Y Units: Reflectance (percentage)
First X Value: 0.35
Last X Value: 2.5
Number of X Values: 2151
Additional Information: vegetation.shrub.baccharis.pilularis.vswir.vh045.ucsb.asd.ancillary.txt

 0.3500	 1.8770
 0.3510	 1.6170
 0.3520	 1.6110
 0.3530	 1.7730
 0.3540	 1.8730
 0.3550	 1.6220
 0.3560	 1.5590
 0.3570	 1.6720
 0.3580	 1.6800
 0.3590	 1.7370
 0.3600	 1.7250
 0.3610	 1.6730
 0.3620	 1.8480
 0.3630	 1.7980
 0.3640	 1.6930
 0.3650	 1.7430
 0.3660	 1.6860
 0.3670	 1.6390
 0.3680	 1.6280
 0.3690	 1.6120
 0.3700	 1.6160
 0.3710	 1.6160
 0.3720	 1.5940
 0.3730	 1.5370
 0.3740	 1.6280
 0.3750	 1.7380
 0.3760	 1.6970
 0.3770	 1.6720
 0.3780	 1.6510
 0.3790	 1.6410
 0.3800	 1.6670
 0.3810	 1.7100
 0.3820	 1.6610
 0.3830	 1.5270
 0.3840	 1.6050
 0.3850	 1.6320
 0.3860	 1.6270
 0.3870	 1.6850
 0.3880	 1.7070
 0.3890	 1.6390
 0.3900	 1.5490
 0.3910	 1.6170
 0.3920	 1.6220
 0.3930	 1.5760
 0.3940	 1.5460
 0.3950	 1.6150
 0.3960	 1.6330
 0.3970	 1.6120
 0.3980	 1.6280
 0.3990	 1.5870
 0.4000	 1.5730
 0.4010	 1.6060
 0.4020	 1.6110
 0.4030	 1.6100
 0.4040	 1.6200
 0.4050	 1.6420
 0.4060	 1.6350
 0.4070	 1.5960
 0.4080	 1.5680
 0.4090	 1.6100
 0.4100	 1.6380
 0.4110	 1.6440
 0.4120	 1.6360
 0.4130	 1.6300
 0.4140	 1.6230
 0.4150	 1.6200
 0.4160	 1.6250
 0.4170	 1.6260
 0.4180	 1.6330
 0.4190	 1.6520
 0.4200	 1.6880
 0.4210	 1.7060
 0.4220	 1.7090
 0.4230	 1.7100
 0.4240	 1.7410
 0.4250	 1.7470
 0.4260	 1.7520
 0.4270	 1.8060
 0.4280	 1.8230
 0.4290	 1.8580
 0.4300	 1.9190
 0.4310	 1.9300
 0.4320	 1.9660
 0.4330	 2.0140
 0.4340	 2.0490
 0.4350	 2.0820
 0.4360	 2.1090
 0.4370	 2.1320
 0.4380	 2.1540
 0.4390	 2.1650
 0.4400	 2.1750
 0.4410	 2.1940
 0.4420	 2.2320
 0.4430	 2.2570
 0.4440	 2.2790
 0.4450	 2.3170
 0.4460	 2.3320
 0.4470	 2.3530
 0.4480	 2.3830
 0.4490	 2.4010
 0.4500	 2.4200
 0.4510	 2.4440
 0.4520	 2.4710
 0.4530	 2.4910
 0.4540	 2.5070
 0.4550	 2.5240
 0.4560	 2.5530
 0.4570	 2.5670
 0.4580	 2.5760
 0.4590	 2.5880
 0.4600	 2.6010
 0.4610	 2.6180
 0.4620	 2.6360
 0.4630	 2.6510
 0.4640	 2.6530
 0.4650	 2.6570
 0.4660	 2.6680
 0.4670	 2.6800
 0.4680	 2.6910
 0.4690	 2.6960
 0.4700	 2.6960
 0.4710	 2.7090
 0.4720	 2.7260
 0.4730	 2.7360
 0.4740	 2.7290
 0.4750	 2.7340
 0.4760	 2.7420
 0.4770	 2.7480
 0.4780	 2.7500
 0.4790	 2.7520
 0.4800	 2.7560
 0.4810	 2.7650
 0.4820	 2.7750
 0.4830	 2.7830
 0.4840	 2.7890
 0.4850	 2.8000
 0.4860	 2.8060
 0.4870	 2.8210
 0.4880	 2.8470
 0.4890	 2.8490
 0.4900	 2.8500
 0.4910	 2.8580
 0.4920	 2.8690
 0.4930	 2.8890
 0.4940	 2.8990
 0.4950	 2.8980
 0.4960	 2.9140
 0.4970	 2.9330
 0.4980	 2.9530
 0.4990	 2.9730
 0.5000	 2.9880
 0.5010	 3.0130
 0.5020	 3.0440
 0.5030	 3.0650
 0.5040	 3.0960
 0.5050	 3.1300
 0.5060	 3.1620
 0.5070	 3.1990
 0.5080	 3.2380
 0.5090	 3.2820
 0.5100	 3.3280
 0.5110	 3.3860
 0.5120	 3.4430
 0.5130	 3.4950
 0.5140	 3.5500
 0.5150	 3.6240
 0.5160	 3.7060
 0.5170	 3.7870
 0.5180	 3.8680
 0.5190	 3.9580
 0.5200	 4.0550
 0.5210	 4.1450
 0.5220	 4.2410
 0.5230	 4.3410
 0.5240	 4.4410
 0.5250	 4.5380
 0.5260	 4.6340
 0.5270	 4.7280
 0.5280	 4.8190
 0.5290	 4.9000
 0.5300	 4.9740
 0.5310	 5.0460
 0.5320	 5.1150
 0.5330	 5.1810
 0.5340	 5.2410
 0.5350	 5.2960
 0.5360	 5.3410
 0.5370	 5.3820
 0.5380	 5.4200
 0.5390	 5.4610
 0.5400	 5.5040
 0.5410	 5.5540
 0.5420	 5.6110
 0.5430	 5.6600
 0.5440	 5.6950
 0.5450	 5.7200
 0.5460	 5.7410
 0.5470	 5.7390
 0.5480	 5.7320
 0.5490	 5.7340
 0.5500	 5.7480
 0.5510	 5.7550
 0.5520	 5.7540
 0.5530	 5.7470
 0.5540	 5.7360
 0.5550	 5.7160
 0.5560	 5.6890
 0.5570	 5.6540
 0.5580	 5.6160
 0.5590	 5.5730
 0.5600	 5.5260
 0.5610	 5.4810
 0.5620	 5.4340
 0.5630	 5.3840
 0.5640	 5.3310
 0.5650	 5.2790
 0.5660	 5.2230
 0.5670	 5.1640
 0.5680	 5.1030
 0.5690	 5.0410
 0.5700	 4.9760
 0.5710	 4.9050
 0.5720	 4.8380
 0.5730	 4.7760
 0.5740	 4.7170
 0.5750	 4.6570
 0.5760	 4.6070
 0.5770	 4.5620
 0.5780	 4.5190
 0.5790	 4.4830
 0.5800	 4.4460
 0.5810	 4.4100
 0.5820	 4.3760
 0.5830	 4.3410
 0.5840	 4.3040
 0.5850	 4.2710
 0.5860	 4.2460
 0.5870	 4.2290
 0.5880	 4.2120
 0.5890	 4.1890
 0.5900	 4.1680
 0.5910	 4.1530
 0.5920	 4.1410
 0.5930	 4.1290
 0.5940	 4.1220
 0.5950	 4.1150
 0.5960	 4.1030
 0.5970	 4.0930
 0.5980	 4.0870
 0.5990	 4.0800
 0.6000	 4.0660
 0.6010	 4.0500
 0.6020	 4.0350
 0.6030	 4.0200
 0.6040	 4.0010
 0.6050	 3.9820
 0.6060	 3.9590
 0.6070	 3.9300
 0.6080	 3.9040
 0.6090	 3.8830
 0.6100	 3.8740
 0.6110	 3.8760
 0.6120	 3.8460
 0.6130	 3.7970
 0.6140	 3.7480
 0.6150	 3.7170
 0.6160	 3.6860
 0.6170	 3.6550
 0.6180	 3.6270
 0.6190	 3.6090
 0.6200	 3.5930
 0.6210	 3.5770
 0.6220	 3.5630
 0.6230	 3.5510
 0.6240	 3.5390
 0.6250	 3.5250
 0.6260	 3.5210
 0.6270	 3.5150
 0.6280	 3.5090
 0.6290	 3.5100
 0.6300	 3.5090
 0.6310	 3.5070
 0.6320	 3.5040
 0.6330	 3.4970
 0.6340	 3.4860
 0.6350	 3.4770
 0.6360	 3.4710
 0.6370	 3.4590
 0.6380	 3.4430
 0.6390	 3.4250
 0.6400	 3.4050
 0.6410	 3.3880
 0.6420	 3.3670
 0.6430	 3.3430
 0.6440	 3.3240
 0.6450	 3.3050
 0.6460	 3.2820
 0.6470	 3.2550
 0.6480	 3.2340
 0.6490	 3.2160
 0.6500	 3.2000
 0.6510	 3.1820
 0.6520	 3.1670
 0.6530	 3.1510
 0.6540	 3.1320
 0.6550	 3.1160
 0.6560	 3.0960
 0.6570	 3.0720
 0.6580	 3.0460
 0.6590	 3.0240
 0.6600	 2.9990
 0.6610	 2.9710
 0.6620	 2.9460
 0.6630	 2.9240
 0.6640	 2.9030
 0.6650	 2.8830
 0.6660	 2.8660
 0.6670	 2.8520
 0.6680	 2.8380
 0.6690	 2.8250
 0.6700	 2.8140
 0.6710	 2.8120
 0.6720	 2.8150
 0.6730	 2.8140
 0.6740	 2.8140
 0.6750	 2.8180
 0.6760	 2.8230
 0.6770	 2.8310
 0.6780	 2.8420
 0.6790	 2.8550
 0.6800	 2.8710
 0.6810	 2.8890
 0.6820	 2.9100
 0.6830	 2.9350
 0.6840	 2.9660
 0.6850	 3.0040
 0.6860	 3.0480
 0.6870	 3.0990
 0.6880	 3.1550
 0.6890	 3.2260
 0.6900	 3.3150
 0.6910	 3.4210
 0.6920	 3.5440
 0.6930	 3.6920
 0.6940	 3.8670
 0.6950	 4.0690
 0.6960	 4.3020
 0.6970	 4.5650
 0.6980	 4.8570
 0.6990	 5.1830
 0.7000	 5.5380
 0.7010	 5.9180
 0.7020	 6.3220
 0.7030	 6.7510
 0.7040	 7.2010
 0.7050	 7.6700
 0.7060	 8.1640
 0.7070	 8.6720
 0.7080	 9.1960
 0.7090	 9.7400
 0.7100	10.3010
 0.7110	10.8800
 0.7120	11.4800
 0.7130	12.1050
 0.7140	12.7470
 0.7150	13.4080
 0.7160	14.0880
 0.7170	14.7940
 0.7180	15.5100
 0.7190	16.2380
 0.7200	16.9870
 0.7210	17.7510
 0.7220	18.5240
 0.7230	19.3030
 0.7240	20.0900
 0.7250	20.8780
 0.7260	21.6610
 0.7270	22.4380
 0.7280	23.2080
 0.7290	23.9650
 0.7300	24.7080
 0.7310	25.4370
 0.7320	26.1460
 0.7330	26.8320
 0.7340	27.4960
 0.7350	28.1380
 0.7360	28.7580
 0.7370	29.3500
 0.7380	29.9110
 0.7390	30.4440
 0.7400	30.9500
 0.7410	31.4330
 0.7420	31.8970
 0.7430	32.3180
 0.7440	32.7120
 0.7450	33.0850
 0.7460	33.4340
 0.7470	33.7620
 0.7480	34.0610
 0.7490	34.3320
 0.7500	34.5890
 0.7510	34.8250
 0.7520	35.0420
 0.7530	35.2420
 0.7540	35.4140
 0.7550	35.5730
 0.7560	35.7250
 0.7570	35.8690
 0.7580	35.9940
 0.7590	36.1070
 0.7600	36.2120
 0.7610	36.2980
 0.7620	36.3800
 0.7630	36.4580
 0.7640	36.5270
 0.7650	36.5950
 0.7660	36.6550
 0.7670	36.7080
 0.7680	36.7610
 0.7690	36.8050
 0.7700	36.8490
 0.7710	36.8910
 0.7720	36.9150
 0.7730	36.9540
 0.7740	36.9900
 0.7750	37.0100
 0.7760	37.0410
 0.7770	37.0670
 0.7780	37.0890
 0.7790	37.1120
 0.7800	37.1450
 0.7810	37.1700
 0.7820	37.1840
 0.7830	37.2050
 0.7840	37.2250
 0.7850	37.2440
 0.7860	37.2630
 0.7870	37.2800
 0.7880	37.2960
 0.7890	37.3130
 0.7900	37.3340
 0.7910	37.3550
 0.7920	37.3720
 0.7930	37.3850
 0.7940	37.3950
 0.7950	37.4100
 0.7960	37.4220
 0.7970	37.4280
 0.7980	37.4370
 0.7990	37.4500
 0.8000	37.4680
 0.8010	37.4870
 0.8020	37.4970
 0.8030	37.5010
 0.8040	37.5050
 0.8050	37.5110
 0.8060	37.5270
 0.8070	37.5370
 0.8080	37.5420
 0.8090	37.5530
 0.8100	37.5580
 0.8110	37.5620
 0.8120	37.5670
 0.8130	37.5690
 0.8140	37.5760
 0.8150	37.5820
 0.8160	37.5810
 0.8170	37.5880
 0.8180	37.5940
 0.8190	37.5950
 0.8200	37.5950
 0.8210	37.6000
 0.8220	37.6060
 0.8230	37.6100
 0.8240	37.6110
 0.8250	37.6180
 0.8260	37.6170
 0.8270	37.6060
 0.8280	37.6020
 0.8290	37.5920
 0.8300	37.5850
 0.8310	37.5870
 0.8320	37.5850
 0.8330	37.5780
 0.8340	37.5710
 0.8350	37.5740
 0.8360	37.5710
 0.8370	37.5750
 0.8380	37.5840
 0.8390	37.5790
 0.8400	37.5850
 0.8410	37.5920
 0.8420	37.5960
 0.8430	37.6000
 0.8440	37.6060
 0.8450	37.6090
 0.8460	37.6080
 0.8470	37.6100
 0.8480	37.6120
 0.8490	37.6180
 0.8500	37.6320
 0.8510	37.6290
 0.8520	37.6380
 0.8530	37.6500
 0.8540	37.6390
 0.8550	37.6400
 0.8560	37.6530
 0.8570	37.6700
 0.8580	37.6820
 0.8590	37.6730
 0.8600	37.6640
 0.8610	37.6690
 0.8620	37.6770
 0.8630	37.6850
 0.8640	37.6890
 0.8650	37.6880
 0.8660	37.6850
 0.8670	37.6890
 0.8680	37.7020
 0.8690	37.7160
 0.8700	37.7050
 0.8710	37.7030
 0.8720	37.7180
 0.8730	37.7370
 0.8740	37.7290
 0.8750	37.7200
 0.8760	37.7250
 0.8770	37.7400
 0.8780	37.7490
 0.8790	37.7560
 0.8800	37.7630
 0.8810	37.7700
 0.8820	37.7780
 0.8830	37.7800
 0.8840	37.7750
 0.8850	37.7770
 0.8860	37.7740
 0.8870	37.7720
 0.8880	37.7760
 0.8890	37.7660
 0.8900	37.7630
 0.8910	37.7630
 0.8920	37.7570
 0.8930	37.7610
 0.8940	37.7600
 0.8950	37.7530
 0.8960	37.7460
 0.8970	37.7320
 0.8980	37.7280
 0.8990	37.7360
 0.9000	37.7450
 0.9010	37.7300
 0.9020	37.7190
 0.9030	37.7210
 0.9040	37.7180
 0.9050	37.7080
 0.9060	37.6990
 0.9070	37.6960
 0.9080	37.6850
 0.9090	37.6890
 0.9100	37.6850
 0.9110	37.6620
 0.9120	37.6770
 0.9130	37.6810
 0.9140	37.6730
 0.9150	37.6670
 0.9160	37.6550
 0.9170	37.6410
 0.9180	37.6270
 0.9190	37.6160
 0.9200	37.6080
 0.9210	37.5980
 0.9220	37.5900
 0.9230	37.5910
 0.9240	37.5750
 0.9250	37.5510
 0.9260	37.5260
 0.9270	37.4990
 0.9280	37.4720
 0.9290	37.4470
 0.9300	37.4190
 0.9310	37.3760
 0.9320	37.3460
 0.9330	37.3170
 0.9340	37.2790
 0.9350	37.2330
 0.9360	37.1880
 0.9370	37.1480
 0.9380	37.1090
 0.9390	37.0590
 0.9400	37.0110
 0.9410	36.9610
 0.9420	36.9020
 0.9430	36.8400
 0.9440	36.7810
 0.9450	36.7170
 0.9460	36.6420
 0.9470	36.5670
 0.9480	36.4700
 0.9490	36.3660
 0.9500	36.2700
 0.9510	36.1650
 0.9520	36.0580
 0.9530	35.9450
 0.9540	35.8230
 0.9550	35.6830
 0.9560	35.5620
 0.9570	35.4630
 0.9580	35.3710
 0.9590	35.2490
 0.9600	35.1540
 0.9610	35.0770
 0.9620	34.9940
 0.9630	34.9050
 0.9640	34.8270
 0.9650	34.7640
 0.9660	34.7140
 0.9670	34.6760
 0.9680	34.6400
 0.9690	34.6070
 0.9700	34.5800
 0.9710	34.5400
 0.9720	34.4990
 0.9730	34.4650
 0.9740	34.4410
 0.9750	34.4390
 0.9760	34.4330
 0.9770	34.4160
 0.9780	34.3960
 0.9790	34.3880
 0.9800	34.3910
 0.9810	34.3950
 0.9820	34.3980
 0.9830	34.4220
 0.9840	34.4390
 0.9850	34.4510
 0.9860	34.4750
 0.9870	34.5020
 0.9880	34.5400
 0.9890	34.5620
 0.9900	34.5500
 0.9910	34.6070
 0.9920	34.6890
 0.9930	34.7700
 0.9940	34.8520
 0.9950	34.9340
 0.9960	35.0160
 0.9970	35.0980
 0.9980	35.1800
 0.9990	35.2620
 1.0000	35.3440
 1.0010	35.4260
 1.0020	35.5080
 1.0030	35.5900
 1.0040	35.6720
 1.0050	35.7540
 1.0060	35.8360
 1.0070	35.9180
 1.0080	36.0000
 1.0090	36.0820
 1.0100	36.0820
 1.0110	36.1340
 1.0120	36.1860
 1.0130	36.2420
 1.0140	36.2950
 1.0150	36.3440
 1.0160	36.3950
 1.0170	36.4480
 1.0180	36.5010
 1.0190	36.5520
 1.0200	36.6020
 1.0210	36.6520
 1.0220	36.7030
 1.0230	36.7520
 1.0240	36.8030
 1.0250	36.8510
 1.0260	36.8950
 1.0270	36.9400
 1.0280	36.9860
 1.0290	37.0320
 1.0300	37.0810
 1.0310	37.1260
 1.0320	37.1690
 1.0330	37.2100
 1.0340	37.2460
 1.0350	37.2840
 1.0360	37.3220
 1.0370	37.3620
 1.0380	37.4010
 1.0390	37.4420
 1.0400	37.4780
 1.0410	37.5110
 1.0420	37.5440
 1.0430	37.5740
 1.0440	37.6050
 1.0450	37.6350
 1.0460	37.6640
 1.0470	37.6930
 1.0480	37.7200
 1.0490	37.7470
 1.0500	37.7730
 1.0510	37.7970
 1.0520	37.8220
 1.0530	37.8450
 1.0540	37.8650
 1.0550	37.8870
 1.0560	37.9080
 1.0570	37.9290
 1.0580	37.9520
 1.0590	37.9710
 1.0600	37.9860
 1.0610	38.0020
 1.0620	38.0160
 1.0630	38.0310
 1.0640	38.0490
 1.0650	38.0630
 1.0660	38.0730
 1.0670	38.0850
 1.0680	38.0980
 1.0690	38.1110
 1.0700	38.1210
 1.0710	38.1320
 1.0720	38.1400
 1.0730	38.1450
 1.0740	38.1490
 1.0750	38.1550
 1.0760	38.1570
 1.0770	38.1550
 1.0780	38.1530
 1.0790	38.1510
 1.0800	38.1470
 1.0810	38.1410
 1.0820	38.1370
 1.0830	38.1370
 1.0840	38.1320
 1.0850	38.1260
 1.0860	38.1180
 1.0870	38.1090
 1.0880	38.0960
 1.0890	38.0830
 1.0900	38.0710
 1.0910	38.0570
 1.0920	38.0410
 1.0930	38.0240
 1.0940	38.0050
 1.0950	37.9860
 1.0960	37.9670
 1.0970	37.9460
 1.0980	37.9240
 1.0990	37.9010
 1.1000	37.8740
 1.1010	37.8490
 1.1020	37.8260
 1.1030	37.7980
 1.1040	37.7700
 1.1050	37.7420
 1.1060	37.7100
 1.1070	37.6770
 1.1080	37.6420
 1.1090	37.6070
 1.1100	37.5690
 1.1110	37.5270
 1.1120	37.4850
 1.1130	37.4410
 1.1140	37.3930
 1.1150	37.3440
 1.1160	37.2900
 1.1170	37.2320
 1.1180	37.1680
 1.1190	37.0990
 1.1200	37.0250
 1.1210	36.9450
 1.1220	36.8610
 1.1230	36.7690
 1.1240	36.6720
 1.1250	36.5650
 1.1260	36.4500
 1.1270	36.3240
 1.1280	36.1880
 1.1290	36.0420
 1.1300	35.8860
 1.1310	35.7190
 1.1320	35.5460
 1.1330	35.3590
 1.1340	35.1590
 1.1350	34.9510
 1.1360	34.7310
 1.1370	34.5020
 1.1380	34.2670
 1.1390	34.0260
 1.1400	33.7770
 1.1410	33.5270
 1.1420	33.2730
 1.1430	33.0170
 1.1440	32.7630
 1.1450	32.5080
 1.1460	32.2590
 1.1470	32.0080
 1.1480	31.7710
 1.1490	31.5390
 1.1500	31.3210
 1.1510	31.1130
 1.1520	30.9160
 1.1530	30.7300
 1.1540	30.5570
 1.1550	30.3950
 1.1560	30.2450
 1.1570	30.1070
 1.1580	29.9810
 1.1590	29.8660
 1.1600	29.7630
 1.1610	29.6710
 1.1620	29.5870
 1.1630	29.5100
 1.1640	29.4380
 1.1650	29.3720
 1.1660	29.3130
 1.1670	29.2570
 1.1680	29.2090
 1.1690	29.1630
 1.1700	29.1220
 1.1710	29.0800
 1.1720	29.0400
 1.1730	29.0000
 1.1740	28.9610
 1.1750	28.9210
 1.1760	28.8820
 1.1770	28.8440
 1.1780	28.8040
 1.1790	28.7640
 1.1800	28.7230
 1.1810	28.6810
 1.1820	28.6400
 1.1830	28.6010
 1.1840	28.5620
 1.1850	28.5270
 1.1860	28.4950
 1.1870	28.4640
 1.1880	28.4360
 1.1890	28.4080
 1.1900	28.3830
 1.1910	28.3600
 1.1920	28.3400
 1.1930	28.3210
 1.1940	28.3070
 1.1950	28.2970
 1.1960	28.2880
 1.1970	28.2820
 1.1980	28.2800
 1.1990	28.2820
 1.2000	28.2880
 1.2010	28.2970
 1.2020	28.3110
 1.2030	28.3270
 1.2040	28.3460
 1.2050	28.3690
 1.2060	28.3970
 1.2070	28.4280
 1.2080	28.4610
 1.2090	28.4980
 1.2100	28.5370
 1.2110	28.5800
 1.2120	28.6240
 1.2130	28.6720
 1.2140	28.7250
 1.2150	28.7780
 1.2160	28.8330
 1.2170	28.8910
 1.2180	28.9480
 1.2190	29.0060
 1.2200	29.0660
 1.2210	29.1240
 1.2220	29.1820
 1.2230	29.2430
 1.2240	29.3030
 1.2250	29.3610
 1.2260	29.4190
 1.2270	29.4750
 1.2280	29.5280
 1.2290	29.5790
 1.2300	29.6300
 1.2310	29.6780
 1.2320	29.7250
 1.2330	29.7710
 1.2340	29.8160
 1.2350	29.8590
 1.2360	29.9020
 1.2370	29.9430
 1.2380	29.9850
 1.2390	30.0270
 1.2400	30.0650
 1.2410	30.1020
 1.2420	30.1390
 1.2430	30.1730
 1.2440	30.2080
 1.2450	30.2430
 1.2460	30.2760
 1.2470	30.3080
 1.2480	30.3380
 1.2490	30.3660
 1.2500	30.3930
 1.2510	30.4200
 1.2520	30.4470
 1.2530	30.4730
 1.2540	30.4970
 1.2550	30.5190
 1.2560	30.5380
 1.2570	30.5570
 1.2580	30.5740
 1.2590	30.5890
 1.2600	30.6040
 1.2610	30.6160
 1.2620	30.6260
 1.2630	30.6350
 1.2640	30.6430
 1.2650	30.6480
 1.2660	30.6540
 1.2670	30.6580
 1.2680	30.6590
 1.2690	30.6600
 1.2700	30.6570
 1.2710	30.6520
 1.2720	30.6480
 1.2730	30.6410
 1.2740	30.6320
 1.2750	30.6220
 1.2760	30.6070
 1.2770	30.5900
 1.2780	30.5710
 1.2790	30.5500
 1.2800	30.5270
 1.2810	30.5010
 1.2820	30.4740
 1.2830	30.4460
 1.2840	30.4150
 1.2850	30.3830
 1.2860	30.3460
 1.2870	30.3050
 1.2880	30.2610
 1.2890	30.2140
 1.2900	30.1640
 1.2910	30.1130
 1.2920	30.0590
 1.2930	30.0010
 1.2940	29.9390
 1.2950	29.8730
 1.2960	29.8040
 1.2970	29.7340
 1.2980	29.6600
 1.2990	29.5830
 1.3000	29.5040
 1.3010	29.4200
 1.3020	29.3310
 1.3030	29.2380
 1.3040	29.1380
 1.3050	29.0350
 1.3060	28.9300
 1.3070	28.8200
 1.3080	28.7070
 1.3090	28.5870
 1.3100	28.4600
 1.3110	28.3300
 1.3120	28.1950
 1.3130	28.0580
 1.3140	27.9160
 1.3150	27.7710
 1.3160	27.6200
 1.3170	27.4650
 1.3180	27.3040
 1.3190	27.1390
 1.3200	26.9700
 1.3210	26.7950
 1.3220	26.6170
 1.3230	26.4360
 1.3240	26.2490
 1.3250	26.0630
 1.3260	25.8740
 1.3270	25.6790
 1.3280	25.4820
 1.3290	25.2820
 1.3300	25.0810
 1.3310	24.8810
 1.3320	24.6780
 1.3330	24.4760
 1.3340	24.2730
 1.3350	24.0690
 1.3360	23.8670
 1.3370	23.6640
 1.3380	23.4630
 1.3390	23.2650
 1.3400	23.0670
 1.3410	22.8730
 1.3420	22.6820
 1.3430	22.4930
 1.3440	22.3070
 1.3450	22.1240
 1.3460	21.9430
 1.3470	21.7670
 1.3480	21.5920
 1.3490	21.4220
 1.3500	21.2560
 1.3510	21.0920
 1.3520	20.9300
 1.3530	20.7720
 1.3540	20.6150
 1.3550	20.4610
 1.3560	20.3070
 1.3570	20.1530
 1.3580	20.0010
 1.3590	19.8470
 1.3600	19.6920
 1.3610	19.5350
 1.3620	19.3730
 1.3630	19.2080
 1.3640	19.0380
 1.3650	18.8610
 1.3660	18.6790
 1.3670	18.4900
 1.3680	18.2910
 1.3690	18.0850
 1.3700	17.8660
 1.3710	17.6370
 1.3720	17.3970
 1.3730	17.1440
 1.3740	16.8790
 1.3750	16.6020
 1.3760	16.3080
 1.3770	15.9990
 1.3780	15.6720
 1.3790	15.3300
 1.3800	14.9770
 1.3810	14.6070
 1.3820	14.2290
 1.3830	13.8410
 1.3840	13.4450
 1.3850	13.0370
 1.3860	12.6290
 1.3870	12.2120
 1.3880	11.8010
 1.3890	11.3900
 1.3900	10.9810
 1.3910	10.5810
 1.3920	10.1860
 1.3930	 9.7960
 1.3940	 9.4190
 1.3950	 9.0490
 1.3960	 8.6920
 1.3970	 8.3500
 1.3980	 8.0210
 1.3990	 7.7110
 1.4000	 7.4170
 1.4010	 7.1360
 1.4020	 6.8730
 1.4030	 6.6250
 1.4040	 6.3910
 1.4050	 6.1730
 1.4060	 5.9690
 1.4070	 5.7810
 1.4080	 5.6060
 1.4090	 5.4430
 1.4100	 5.2930
 1.4110	 5.1540
 1.4120	 5.0250
 1.4130	 4.9070
 1.4140	 4.7980
 1.4150	 4.6980
 1.4160	 4.6070
 1.4170	 4.5220
 1.4180	 4.4440
 1.4190	 4.3720
 1.4200	 4.3050
 1.4210	 4.2450
 1.4220	 4.1900
 1.4230	 4.1390
 1.4240	 4.0930
 1.4250	 4.0500
 1.4260	 4.0100
 1.4270	 3.9730
 1.4280	 3.9410
 1.4290	 3.9110
 1.4300	 3.8860
 1.4310	 3.8620
 1.4320	 3.8400
 1.4330	 3.8200
 1.4340	 3.8030
 1.4350	 3.7870
 1.4360	 3.7720
 1.4370	 3.7600
 1.4380	 3.7500
 1.4390	 3.7410
 1.4400	 3.7340
 1.4410	 3.7290
 1.4420	 3.7250
 1.4430	 3.7210
 1.4440	 3.7190
 1.4450	 3.7170
 1.4460	 3.7150
 1.4470	 3.7150
 1.4480	 3.7160
 1.4490	 3.7170
 1.4500	 3.7200
 1.4510	 3.7230
 1.4520	 3.7260
 1.4530	 3.7310
 1.4540	 3.7350
 1.4550	 3.7400
 1.4560	 3.7460
 1.4570	 3.7530
 1.4580	 3.7610
 1.4590	 3.7700
 1.4600	 3.7800
 1.4610	 3.7920
 1.4620	 3.8040
 1.4630	 3.8180
 1.4640	 3.8340
 1.4650	 3.8510
 1.4660	 3.8700
 1.4670	 3.8900
 1.4680	 3.9120
 1.4690	 3.9350
 1.4700	 3.9600
 1.4710	 3.9860
 1.4720	 4.0140
 1.4730	 4.0430
 1.4740	 4.0730
 1.4750	 4.1040
 1.4760	 4.1370
 1.4770	 4.1710
 1.4780	 4.2070
 1.4790	 4.2440
 1.4800	 4.2810
 1.4810	 4.3190
 1.4820	 4.3580
 1.4830	 4.3980
 1.4840	 4.4390
 1.4850	 4.4800
 1.4860	 4.5230
 1.4870	 4.5660
 1.4880	 4.6090
 1.4890	 4.6530
 1.4900	 4.6980
 1.4910	 4.7430
 1.4920	 4.7890
 1.4930	 4.8370
 1.4940	 4.8840
 1.4950	 4.9320
 1.4960	 4.9800
 1.4970	 5.0270
 1.4980	 5.0760
 1.4990	 5.1240
 1.5000	 5.1740
 1.5010	 5.2240
 1.5020	 5.2740
 1.5030	 5.3240
 1.5040	 5.3750
 1.5050	 5.4260
 1.5060	 5.4780
 1.5070	 5.5300
 1.5080	 5.5820
 1.5090	 5.6340
 1.5100	 5.6850
 1.5110	 5.7370
 1.5120	 5.7900
 1.5130	 5.8420
 1.5140	 5.8950
 1.5150	 5.9470
 1.5160	 5.9990
 1.5170	 6.0520
 1.5180	 6.1050
 1.5190	 6.1570
 1.5200	 6.2100
 1.5210	 6.2620
 1.5220	 6.3140
 1.5230	 6.3660
 1.5240	 6.4180
 1.5250	 6.4700
 1.5260	 6.5230
 1.5270	 6.5740
 1.5280	 6.6260
 1.5290	 6.6770
 1.5300	 6.7280
 1.5310	 6.7800
 1.5320	 6.8310
 1.5330	 6.8830
 1.5340	 6.9330
 1.5350	 6.9840
 1.5360	 7.0340
 1.5370	 7.0840
 1.5380	 7.1340
 1.5390	 7.1840
 1.5400	 7.2330
 1.5410	 7.2820
 1.5420	 7.3310
 1.5430	 7.3800
 1.5440	 7.4300
 1.5450	 7.4800
 1.5460	 7.5290
 1.5470	 7.5790
 1.5480	 7.6270
 1.5490	 7.6750
 1.5500	 7.7230
 1.5510	 7.7700
 1.5520	 7.8180
 1.5530	 7.8650
 1.5540	 7.9110
 1.5550	 7.9580
 1.5560	 8.0040
 1.5570	 8.0500
 1.5580	 8.0970
 1.5590	 8.1420
 1.5600	 8.1880
 1.5610	 8.2340
 1.5620	 8.2780
 1.5630	 8.3220
 1.5640	 8.3640
 1.5650	 8.4080
 1.5660	 8.4520
 1.5670	 8.4960
 1.5680	 8.5400
 1.5690	 8.5820
 1.5700	 8.6240
 1.5710	 8.6670
 1.5720	 8.7090
 1.5730	 8.7530
 1.5740	 8.7960
 1.5750	 8.8370
 1.5760	 8.8800
 1.5770	 8.9210
 1.5780	 8.9630
 1.5790	 9.0070
 1.5800	 9.0490
 1.5810	 9.0910
 1.5820	 9.1330
 1.5830	 9.1740
 1.5840	 9.2150
 1.5850	 9.2560
 1.5860	 9.2960
 1.5870	 9.3380
 1.5880	 9.3770
 1.5890	 9.4170
 1.5900	 9.4580
 1.5910	 9.4980
 1.5920	 9.5390
 1.5930	 9.5800
 1.5940	 9.6210
 1.5950	 9.6620
 1.5960	 9.7020
 1.5970	 9.7410
 1.5980	 9.7810
 1.5990	 9.8210
 1.6000	 9.8600
 1.6010	 9.8980
 1.6020	 9.9380
 1.6030	 9.9760
 1.6040	10.0150
 1.6050	10.0540
 1.6060	10.0920
 1.6070	10.1280
 1.6080	10.1660
 1.6090	10.2020
 1.6100	10.2380
 1.6110	10.2740
 1.6120	10.3080
 1.6130	10.3430
 1.6140	10.3770
 1.6150	10.4100
 1.6160	10.4440
 1.6170	10.4770
 1.6180	10.5100
 1.6190	10.5430
 1.6200	10.5740
 1.6210	10.6050
 1.6220	10.6340
 1.6230	10.6630
 1.6240	10.6920
 1.6250	10.7190
 1.6260	10.7460
 1.6270	10.7720
 1.6280	10.7960
 1.6290	10.8200
 1.6300	10.8450
 1.6310	10.8690
 1.6320	10.8910
 1.6330	10.9140
 1.6340	10.9360
 1.6350	10.9570
 1.6360	10.9770
 1.6370	10.9970
 1.6380	11.0160
 1.6390	11.0330
 1.6400	11.0500
 1.6410	11.0650
 1.6420	11.0770
 1.6430	11.0890
 1.6440	11.0990
 1.6450	11.1060
 1.6460	11.1100
 1.6470	11.1130
 1.6480	11.1140
 1.6490	11.1130
 1.6500	11.1100
 1.6510	11.1050
 1.6520	11.0980
 1.6530	11.0880
 1.6540	11.0770
 1.6550	11.0660
 1.6560	11.0530
 1.6570	11.0390
 1.6580	11.0260
 1.6590	11.0130
 1.6600	11.0000
 1.6610	10.9870
 1.6620	10.9750
 1.6630	10.9630
 1.6640	10.9530
 1.6650	10.9450
 1.6660	10.9380
 1.6670	10.9320
 1.6680	10.9270
 1.6690	10.9210
 1.6700	10.9170
 1.6710	10.9140
 1.6720	10.9090
 1.6730	10.9050
 1.6740	10.9000
 1.6750	10.8950
 1.6760	10.8890
 1.6770	10.8820
 1.6780	10.8740
 1.6790	10.8650
 1.6800	10.8550
 1.6810	10.8440
 1.6820	10.8330
 1.6830	10.8190
 1.6840	10.8040
 1.6850	10.7890
 1.6860	10.7720
 1.6870	10.7540
 1.6880	10.7350
 1.6890	10.7130
 1.6900	10.6910
 1.6910	10.6680
 1.6920	10.6440
 1.6930	10.6210
 1.6940	10.5960
 1.6950	10.5700
 1.6960	10.5430
 1.6970	10.5150
 1.6980	10.4860
 1.6990	10.4560
 1.7000	10.4260
 1.7010	10.3950
 1.7020	10.3650
 1.7030	10.3340
 1.7040	10.3030
 1.7050	10.2720
 1.7060	10.2410
 1.7070	10.2090
 1.7080	10.1770
 1.7090	10.1450
 1.7100	10.1140
 1.7110	10.0820
 1.7120	10.0530
 1.7130	10.0230
 1.7140	 9.9930
 1.7150	 9.9640
 1.7160	 9.9350
 1.7170	 9.9050
 1.7180	 9.8760
 1.7190	 9.8490
 1.7200	 9.8230
 1.7210	 9.7950
 1.7220	 9.7660
 1.7230	 9.7380
 1.7240	 9.7090
 1.7250	 9.6820
 1.7260	 9.6570
 1.7270	 9.6320
 1.7280	 9.6090
 1.7290	 9.5870
 1.7300	 9.5640
 1.7310	 9.5410
 1.7320	 9.5190
 1.7330	 9.4970
 1.7340	 9.4770
 1.7350	 9.4550
 1.7360	 9.4330
 1.7370	 9.4100
 1.7380	 9.3850
 1.7390	 9.3580
 1.7400	 9.3290
 1.7410	 9.2990
 1.7420	 9.2660
 1.7430	 9.2350
 1.7440	 9.2030
 1.7450	 9.1710
 1.7460	 9.1380
 1.7470	 9.1050
 1.7480	 9.0710
 1.7490	 9.0380
 1.7500	 9.0070
 1.7510	 8.9760
 1.7520	 8.9450
 1.7530	 8.9150
 1.7540	 8.8850
 1.7550	 8.8570
 1.7560	 8.8310
 1.7570	 8.8050
 1.7580	 8.7780
 1.7590	 8.7520
 1.7600	 8.7270
 1.7610	 8.7030
 1.7620	 8.6810
 1.7630	 8.6620
 1.7640	 8.6420
 1.7650	 8.6250
 1.7660	 8.6070
 1.7670	 8.5900
 1.7680	 8.5740
 1.7690	 8.5580
 1.7700	 8.5430
 1.7710	 8.5270
 1.7720	 8.5120
 1.7730	 8.4990
 1.7740	 8.4850
 1.7750	 8.4710
 1.7760	 8.4580
 1.7770	 8.4440
 1.7780	 8.4320
 1.7790	 8.4210
 1.7800	 8.4110
 1.7810	 8.4010
 1.7820	 8.3920
 1.7830	 8.3850
 1.7840	 8.3770
 1.7850	 8.3700
 1.7860	 8.3640
 1.7870	 8.3580
 1.7880	 8.3560
 1.7890	 8.3550
 1.7900	 8.3550
 1.7910	 8.3550
 1.7920	 8.3550
 1.7930	 8.3550
 1.7940	 8.3560
 1.7950	 8.3590
 1.7960	 8.3620
 1.7970	 8.3650
 1.7980	 8.3710
 1.7990	 8.3760
 1.8000	 8.3800
 1.8010	 8.3850
 1.8020	 8.3900
 1.8030	 8.3960
 1.8040	 8.4030
 1.8050	 8.4090
 1.8060	 8.4150
 1.8070	 8.4210
 1.8080	 8.4290
 1.8090	 8.4350
 1.8100	 8.4430
 1.8110	 8.4490
 1.8120	 8.4550
 1.8130	 8.4610
 1.8140	 8.4670
 1.8150	 8.4720
 1.8160	 8.4740
 1.8170	 8.4760
 1.8180	 8.4780
 1.8190	 8.4790
 1.8200	 8.4820
 1.8210	 8.4850
 1.8220	 8.4860
 1.8230	 8.4860
 1.8240	 8.4870
 1.8250	 8.4870
 1.8260	 8.4850
 1.8270	 8.4660
 1.8280	 8.4470
 1.8290	 8.4280
 1.8300	 8.4090
 1.8310	 8.3890
 1.8320	 8.3700
 1.8330	 8.3510
 1.8340	 8.3320
 1.8350	 8.3320
 1.8360	 8.3170
 1.8370	 8.2990
 1.8380	 8.2790
 1.8390	 8.2560
 1.8400	 8.2300
 1.8410	 8.2010
 1.8420	 8.1700
 1.8430	 8.1370
 1.8440	 8.0990
 1.8450	 8.0570
 1.8460	 8.0150
 1.8470	 7.9640
 1.8480	 7.9080
 1.8490	 7.8500
 1.8500	 7.7860
 1.8510	 7.7170
 1.8520	 7.6440
 1.8530	 7.5660
 1.8540	 7.4800
 1.8550	 7.3880
 1.8560	 7.2900
 1.8570	 7.1870
 1.8580	 7.0790
 1.8590	 6.9660
 1.8600	 6.8480
 1.8610	 6.7230
 1.8620	 6.5930
 1.8630	 6.4570
 1.8640	 6.3130
 1.8650	 6.1660
 1.8660	 6.0120
 1.8670	 5.8520
 1.8680	 5.6880
 1.8690	 5.5180
 1.8700	 5.3440
 1.8710	 5.1630
 1.8720	 4.9850
 1.8730	 4.8040
 1.8740	 4.6240
 1.8750	 4.4460
 1.8760	 4.2670
 1.8770	 4.0900
 1.8780	 3.9150
 1.8790	 3.7440
 1.8800	 3.5800
 1.8810	 3.4220
 1.8820	 3.2670
 1.8830	 3.1160
 1.8840	 2.9740
 1.8850	 2.8360
 1.8860	 2.7050
 1.8870	 2.5810
 1.8880	 2.4650
 1.8890	 2.3540
 1.8900	 2.2510
 1.8910	 2.1560
 1.8920	 2.0690
 1.8930	 1.9870
 1.8940	 1.9130
 1.8950	 1.8470
 1.8960	 1.7860
 1.8970	 1.7340
 1.8980	 1.6870
 1.8990	 1.6440
 1.9000	 1.6050
 1.9010	 1.5710
 1.9020	 1.5390
 1.9030	 1.5110
 1.9040	 1.4870
 1.9050	 1.4670
 1.9060	 1.4490
 1.9070	 1.4320
 1.9080	 1.4180
 1.9090	 1.4030
 1.9100	 1.3910
 1.9110	 1.3800
 1.9120	 1.3730
 1.9130	 1.3660
 1.9140	 1.3600
 1.9150	 1.3530
 1.9160	 1.3470
 1.9170	 1.3420
 1.9180	 1.3370
 1.9190	 1.3340
 1.9200	 1.3310
 1.9210	 1.3270
 1.9220	 1.3250
 1.9230	 1.3230
 1.9240	 1.3220
 1.9250	 1.3210
 1.9260	 1.3190
 1.9270	 1.3160
 1.9280	 1.3140
 1.9290	 1.3130
 1.9300	 1.3130
 1.9310	 1.3140
 1.9320	 1.3160
 1.9330	 1.3180
 1.9340	 1.3220
 1.9350	 1.3250
 1.9360	 1.3280
 1.9370	 1.3310
 1.9380	 1.3330
 1.9390	 1.3340
 1.9400	 1.3340
 1.9410	 1.3370
 1.9420	 1.3400
 1.9430	 1.3410
 1.9440	 1.3450
 1.9450	 1.3500
 1.9460	 1.3540
 1.9470	 1.3570
 1.9480	 1.3610
 1.9490	 1.3650
 1.9500	 1.3670
 1.9510	 1.3710
 1.9520	 1.3770
 1.9530	 1.3820
 1.9540	 1.3860
 1.9550	 1.3910
 1.9560	 1.3950
 1.9570	 1.4010
 1.9580	 1.4070
 1.9590	 1.4130
 1.9600	 1.4190
 1.9610	 1.4250
 1.9620	 1.4320
 1.9630	 1.4380
 1.9640	 1.4460
 1.9650	 1.4540
 1.9660	 1.4600
 1.9670	 1.4690
 1.9680	 1.4760
 1.9690	 1.4810
 1.9700	 1.4880
 1.9710	 1.4920
 1.9720	 1.4990
 1.9730	 1.5060
 1.9740	 1.5180
 1.9750	 1.5290
 1.9760	 1.5400
 1.9770	 1.5490
 1.9780	 1.5540
 1.9790	 1.5610
 1.9800	 1.5680
 1.9810	 1.5760
 1.9820	 1.5850
 1.9830	 1.5950
 1.9840	 1.6070
 1.9850	 1.6170
 1.9860	 1.6270
 1.9870	 1.6370
 1.9880	 1.6470
 1.9890	 1.6570
 1.9900	 1.6690
 1.9910	 1.6810
 1.9920	 1.6920
 1.9930	 1.7030
 1.9940	 1.7140
 1.9950	 1.7230
 1.9960	 1.7340
 1.9970	 1.7460
 1.9980	 1.7580
 1.9990	 1.7690
 2.0000	 1.7820
 2.0010	 1.7940
 2.0020	 1.8050
 2.0030	 1.8170
 2.0040	 1.8270
 2.0050	 1.8390
 2.0060	 1.8520
 2.0070	 1.8650
 2.0080	 1.8780
 2.0090	 1.8910
 2.0100	 1.9020
 2.0110	 1.9140
 2.0120	 1.9240
 2.0130	 1.9360
 2.0140	 1.9490
 2.0150	 1.9610
 2.0160	 1.9750
 2.0170	 1.9890
 2.0180	 2.0010
 2.0190	 2.0130
 2.0200	 2.0240
 2.0210	 2.0340
 2.0220	 2.0450
 2.0230	 2.0590
 2.0240	 2.0700
 2.0250	 2.0820
 2.0260	 2.0930
 2.0270	 2.1040
 2.0280	 2.1130
 2.0290	 2.1230
 2.0300	 2.1330
 2.0310	 2.1420
 2.0320	 2.1510
 2.0330	 2.1600
 2.0340	 2.1700
 2.0350	 2.1800
 2.0360	 2.1920
 2.0370	 2.2020
 2.0380	 2.2100
 2.0390	 2.2190
 2.0400	 2.2260
 2.0410	 2.2350
 2.0420	 2.2440
 2.0430	 2.2560
 2.0440	 2.2660
 2.0450	 2.2760
 2.0460	 2.2840
 2.0470	 2.2920
 2.0480	 2.2990
 2.0490	 2.3080
 2.0500	 2.3140
 2.0510	 2.3180
 2.0520	 2.3250
 2.0530	 2.3320
 2.0540	 2.3390
 2.0550	 2.3480
 2.0560	 2.3580
 2.0570	 2.3680
 2.0580	 2.3760
 2.0590	 2.3850
 2.0600	 2.3950
 2.0610	 2.4040
 2.0620	 2.4130
 2.0630	 2.4210
 2.0640	 2.4280
 2.0650	 2.4370
 2.0660	 2.4460
 2.0670	 2.4540
 2.0680	 2.4610
 2.0690	 2.4690
 2.0700	 2.4760
 2.0710	 2.4840
 2.0720	 2.4930
 2.0730	 2.5030
 2.0740	 2.5120
 2.0750	 2.5220
 2.0760	 2.5300
 2.0770	 2.5380
 2.0780	 2.5460
 2.0790	 2.5520
 2.0800	 2.5600
 2.0810	 2.5680
 2.0820	 2.5770
 2.0830	 2.5870
 2.0840	 2.5960
 2.0850	 2.6080
 2.0860	 2.6170
 2.0870	 2.6260
 2.0880	 2.6350
 2.0890	 2.6430
 2.0900	 2.6470
 2.0910	 2.6550
 2.0920	 2.6650
 2.0930	 2.6730
 2.0940	 2.6820
 2.0950	 2.6910
 2.0960	 2.6990
 2.0970	 2.7080
 2.0980	 2.7200
 2.0990	 2.7300
 2.1000	 2.7390
 2.1010	 2.7480
 2.1020	 2.7530
 2.1030	 2.7600
 2.1040	 2.7670
 2.1050	 2.7740
 2.1060	 2.7810
 2.1070	 2.7890
 2.1080	 2.7960
 2.1090	 2.8030
 2.1100	 2.8120
 2.1110	 2.8220
 2.1120	 2.8310
 2.1130	 2.8410
 2.1140	 2.8500
 2.1150	 2.8610
 2.1160	 2.8700
 2.1170	 2.8780
 2.1180	 2.8850
 2.1190	 2.8890
 2.1200	 2.8950
 2.1210	 2.9010
 2.1220	 2.9060
 2.1230	 2.9120
 2.1240	 2.9190
 2.1250	 2.9250
 2.1260	 2.9290
 2.1270	 2.9360
 2.1280	 2.9440
 2.1290	 2.9510
 2.1300	 2.9590
 2.1310	 2.9670
 2.1320	 2.9730
 2.1330	 2.9820
 2.1340	 2.9920
 2.1350	 3.0000
 2.1360	 3.0090
 2.1370	 3.0170
 2.1380	 3.0220
 2.1390	 3.0290
 2.1400	 3.0360
 2.1410	 3.0440
 2.1420	 3.0520
 2.1430	 3.0600
 2.1440	 3.0690
 2.1450	 3.0790
 2.1460	 3.0880
 2.1470	 3.0980
 2.1480	 3.1080
 2.1490	 3.1160
 2.1500	 3.1240
 2.1510	 3.1310
 2.1520	 3.1390
 2.1530	 3.1480
 2.1540	 3.1550
 2.1550	 3.1630
 2.1560	 3.1710
 2.1570	 3.1800
 2.1580	 3.1890
 2.1590	 3.2010
 2.1600	 3.2120
 2.1610	 3.2220
 2.1620	 3.2310
 2.1630	 3.2410
 2.1640	 3.2490
 2.1650	 3.2610
 2.1660	 3.2750
 2.1670	 3.2880
 2.1680	 3.3050
 2.1690	 3.3180
 2.1700	 3.3280
 2.1710	 3.3370
 2.1720	 3.3430
 2.1730	 3.3500
 2.1740	 3.3560
 2.1750	 3.3640
 2.1760	 3.3740
 2.1770	 3.3840
 2.1780	 3.3960
 2.1790	 3.4070
 2.1800	 3.4180
 2.1810	 3.4280
 2.1820	 3.4380
 2.1830	 3.4470
 2.1840	 3.4550
 2.1850	 3.4610
 2.1860	 3.4700
 2.1870	 3.4810
 2.1880	 3.4910
 2.1890	 3.5040
 2.1900	 3.5150
 2.1910	 3.5240
 2.1920	 3.5350
 2.1930	 3.5480
 2.1940	 3.5600
 2.1950	 3.5740
 2.1960	 3.5850
 2.1970	 3.5940
 2.1980	 3.6030
 2.1990	 3.6120
 2.2000	 3.6210
 2.2010	 3.6290
 2.2020	 3.6380
 2.2030	 3.6460
 2.2040	 3.6540
 2.2050	 3.6610
 2.2060	 3.6670
 2.2070	 3.6740
 2.2080	 3.6810
 2.2090	 3.6890
 2.2100	 3.7000
 2.2110	 3.7080
 2.2120	 3.7150
 2.2130	 3.7210
 2.2140	 3.7230
 2.2150	 3.7280
 2.2160	 3.7340
 2.2170	 3.7380
 2.2180	 3.7440
 2.2190	 3.7460
 2.2200	 3.7450
 2.2210	 3.7450
 2.2220	 3.7440
 2.2230	 3.7420
 2.2240	 3.7400
 2.2250	 3.7360
 2.2260	 3.7310
 2.2270	 3.7270
 2.2280	 3.7230
 2.2290	 3.7190
 2.2300	 3.7180
 2.2310	 3.7110
 2.2320	 3.7030
 2.2330	 3.6970
 2.2340	 3.6870
 2.2350	 3.6750
 2.2360	 3.6650
 2.2370	 3.6540
 2.2380	 3.6410
 2.2390	 3.6290
 2.2400	 3.6130
 2.2410	 3.5910
 2.2420	 3.5730
 2.2430	 3.5520
 2.2440	 3.5330
 2.2450	 3.5170
 2.2460	 3.4970
 2.2470	 3.4760
 2.2480	 3.4560
 2.2490	 3.4350
 2.2500	 3.4130
 2.2510	 3.3890
 2.2520	 3.3660
 2.2530	 3.3400
 2.2540	 3.3180
 2.2550	 3.3000
 2.2560	 3.2760
 2.2570	 3.2470
 2.2580	 3.2230
 2.2590	 3.1990
 2.2600	 3.1750
 2.2610	 3.1540
 2.2620	 3.1370
 2.2630	 3.1140
 2.2640	 3.0880
 2.2650	 3.0700
 2.2660	 3.0490
 2.2670	 3.0300
 2.2680	 3.0130
 2.2690	 2.9960
 2.2700	 2.9790
 2.2710	 2.9610
 2.2720	 2.9440
 2.2730	 2.9240
 2.2740	 2.9020
 2.2750	 2.8830
 2.2760	 2.8650
 2.2770	 2.8480
 2.2780	 2.8350
 2.2790	 2.8210
 2.2800	 2.8090
 2.2810	 2.7930
 2.2820	 2.7740
 2.2830	 2.7570
 2.2840	 2.7380
 2.2850	 2.7220
 2.2860	 2.7120
 2.2870	 2.6990
 2.2880	 2.6890
 2.2890	 2.6750
 2.2900	 2.6560
 2.2910	 2.6400
 2.2920	 2.6220
 2.2930	 2.6060
 2.2940	 2.5950
 2.2950	 2.5800
 2.2960	 2.5620
 2.2970	 2.5450
 2.2980	 2.5270
 2.2990	 2.5100
 2.3000	 2.4950
 2.3010	 2.4840
 2.3020	 2.4730
 2.3030	 2.4650
 2.3040	 2.4610
 2.3050	 2.4580
 2.3060	 2.4560
 2.3070	 2.4520
 2.3080	 2.4410
 2.3090	 2.4280
 2.3100	 2.4140
 2.3110	 2.4030
 2.3120	 2.3970
 2.3130	 2.3960
 2.3140	 2.3950
 2.3150	 2.3980
 2.3160	 2.3990
 2.3170	 2.4030
 2.3180	 2.4030
 2.3190	 2.4010
 2.3200	 2.4000
 2.3210	 2.3950
 2.3220	 2.3920
 2.3230	 2.3920
 2.3240	 2.3880
 2.3250	 2.3830
 2.3260	 2.3740
 2.3270	 2.3590
 2.3280	 2.3470
 2.3290	 2.3320
 2.3300	 2.3200
 2.3310	 2.3090
 2.3320	 2.2990
 2.3330	 2.2920
 2.3340	 2.2830
 2.3350	 2.2780
 2.3360	 2.2670
 2.3370	 2.2500
 2.3380	 2.2390
 2.3390	 2.2270
 2.3400	 2.2190
 2.3410	 2.2200
 2.3420	 2.2130
 2.3430	 2.2050
 2.3440	 2.1930
 2.3450	 2.1750
 2.3460	 2.1630
 2.3470	 2.1540
 2.3480	 2.1460
 2.3490	 2.1380
 2.3500	 2.1350
 2.3510	 2.1390
 2.3520	 2.1380
 2.3530	 2.1390
 2.3540	 2.1410
 2.3550	 2.1320
 2.3560	 2.1190
 2.3570	 2.1150
 2.3580	 2.1110
 2.3590	 2.1100
 2.3600	 2.1100
 2.3610	 2.1080
 2.3620	 2.1020
 2.3630	 2.0950
 2.3640	 2.0930
 2.3650	 2.0800
 2.3660	 2.0690
 2.3670	 2.0620
 2.3680	 2.0480
 2.3690	 2.0430
 2.3700	 2.0460
 2.3710	 2.0460
 2.3720	 2.0450
 2.3730	 2.0410
 2.3740	 2.0300
 2.3750	 2.0220
 2.3760	 2.0160
 2.3770	 2.0120
 2.3780	 2.0120
 2.3790	 2.0010
 2.3800	 1.9930
 2.3810	 1.9900
 2.3820	 1.9730
 2.3830	 1.9640
 2.3840	 1.9580
 2.3850	 1.9400
 2.3860	 1.9290
 2.3870	 1.9250
 2.3880	 1.9200
 2.3890	 1.9170
 2.3900	 1.9160
 2.3910	 1.9120
 2.3920	 1.8960
 2.3930	 1.8830
 2.3940	 1.8750
 2.3950	 1.8610
 2.3960	 1.8600
 2.3970	 1.8620
 2.3980	 1.8530
 2.3990	 1.8490
 2.4000	 1.8430
 2.4010	 1.8280
 2.4020	 1.8220
 2.4030	 1.8110
 2.4040	 1.7950
 2.4050	 1.7930
 2.4060	 1.7810
 2.4070	 1.7800
 2.4080	 1.7870
 2.4090	 1.7850
 2.4100	 1.7930
 2.4110	 1.7850
 2.4120	 1.7720
 2.4130	 1.7590
 2.4140	 1.7340
 2.4150	 1.7280
 2.4160	 1.7190
 2.4170	 1.7120
 2.4180	 1.7180
 2.4190	 1.7080
 2.4200	 1.7030
 2.4210	 1.6970
 2.4220	 1.6830
 2.4230	 1.6780
 2.4240	 1.6600
 2.4250	 1.6410
 2.4260	 1.6290
 2.4270	 1.6110
 2.4280	 1.6010
 2.4290	 1.5940
 2.4300	 1.5800
 2.4310	 1.5740
 2.4320	 1.5760
 2.4330	 1.5720
 2.4340	 1.5750
 2.4350	 1.5860
 2.4360	 1.5810
 2.4370	 1.5780
 2.4380	 1.5770
 2.4390	 1.5640
 2.4400	 1.5560
 2.4410	 1.5470
 2.4420	 1.5380
 2.4430	 1.5430
 2.4440	 1.5430
 2.4450	 1.5320
 2.4460	 1.5280
 2.4470	 1.5150
 2.4480	 1.5070
 2.4490	 1.5170
 2.4500	 1.5210
 2.4510	 1.5210
 2.4520	 1.5170
 2.4530	 1.5010
 2.4540	 1.4940
 2.4550	 1.4930
 2.4560	 1.4780
 2.4570	 1.4670
 2.4580	 1.4490
 2.4590	 1.4190
 2.4600	 1.4150
 2.4610	 1.4200
 2.4620	 1.4230
 2.4630	 1.4390
 2.4640	 1.4330
 2.4650	 1.4050
 2.4660	 1.3970
 2.4670	 1.3840
 2.4680	 1.3720
 2.4690	 1.3870
 2.4700	 1.3800
 2.4710	 1.3580
 2.4720	 1.3590
 2.4730	 1.3770
 2.4740	 1.3910
 2.4750	 1.4100
 2.4760	 1.4140
 2.4770	 1.3970
 2.4780	 1.3900
 2.4790	 1.3980
 2.4800	 1.4020
 2.4810	 1.3940
 2.4820	 1.3820
 2.4830	 1.3680
 2.4840	 1.3380
 2.4850	 1.3260
 2.4860	 1.3280
 2.4870	 1.3160
 2.4880	 1.3200
 2.4890	 1.3260
 2.4900	 1.3480
 2.4910	 1.3720
 2.4920	 1.3580
 2.4930	 1.3310
 2.4940	 1.2930
 2.4950	 1.2580
 2.4960	 1.2800
 2.4970	 1.3450
 2.4980	 1.3930
 2.4990	 1.4040
 2.5000	 1.3960
