Name: Ceanothus spinosus 3
Type: vegetation
Class: Shrub
Genus: Ceanothus
Species: spinosus
Sample No.: VH204
Owner: UCSB
Wavelength Range: VSWIR
Origin: 34.4906; -119.7908; WGS84
Collection Date: 10/13/2013
Description: Samples were collected as part of the HyspIRI Airborne Campaign. 48 individual plants were sampled in three times in 2013 - spring  summer  and fall. The name of the sample includes a 1  2  or 3 which references a different individual of the species. Samples were taken to JPL and processed within 48 hours of collection. The same leaves were processed in the Nicolet and then measured using the ASD.
Measurement: Bidirectional reflectance
First Column: X
Second Column: Y
X Units: Wavelength (micrometers)
Y Units: Reflectance (percentage)
First X Value: 0.35
Last X Value: 2.5
Number of X Values: 2151
Additional Information: vegetation.shrub.ceanothus.spinosus.vswir.vh204.ucsb.asd.ancillary.txt

 0.3500	10.6290
 0.3510	10.4270
 0.3520	10.2350
 0.3530	10.1090
 0.3540	10.0200
 0.3550	 9.8930
 0.3560	 9.9040
 0.3570	10.0020
 0.3580	10.0310
 0.3590	10.0410
 0.3600	 9.9850
 0.3610	 9.8670
 0.3620	 9.7690
 0.3630	 9.7410
 0.3640	 9.8080
 0.3650	 9.9290
 0.3660	 9.9080
 0.3670	 9.7960
 0.3680	 9.6580
 0.3690	 9.5740
 0.3700	 9.6850
 0.3710	 9.7440
 0.3720	 9.6540
 0.3730	 9.6800
 0.3740	 9.7650
 0.3750	 9.7720
 0.3760	 9.6180
 0.3770	 9.5870
 0.3780	 9.6600
 0.3790	 9.7570
 0.3800	 9.7690
 0.3810	 9.7320
 0.3820	 9.7030
 0.3830	 9.6960
 0.3840	 9.6020
 0.3850	 9.5480
 0.3860	 9.5700
 0.3870	 9.6530
 0.3880	 9.7530
 0.3890	 9.7050
 0.3900	 9.5550
 0.3910	 9.5610
 0.3920	 9.4850
 0.3930	 9.4570
 0.3940	 9.5600
 0.3950	 9.5780
 0.3960	 9.5910
 0.3970	 9.5700
 0.3980	 9.4680
 0.3990	 9.4820
 0.4000	 9.5380
 0.4010	 9.5580
 0.4020	 9.4910
 0.4030	 9.4700
 0.4040	 9.4890
 0.4050	 9.5040
 0.4060	 9.4750
 0.4070	 9.4390
 0.4080	 9.4370
 0.4090	 9.4910
 0.4100	 9.5000
 0.4110	 9.5200
 0.4120	 9.5670
 0.4130	 9.5460
 0.4140	 9.5230
 0.4150	 9.5380
 0.4160	 9.5960
 0.4170	 9.6060
 0.4180	 9.6140
 0.4190	 9.6420
 0.4200	 9.6840
 0.4210	 9.7130
 0.4220	 9.7290
 0.4230	 9.7400
 0.4240	 9.7720
 0.4250	 9.8030
 0.4260	 9.8290
 0.4270	 9.8560
 0.4280	 9.8900
 0.4290	 9.9090
 0.4300	 9.9100
 0.4310	 9.9180
 0.4320	 9.9400
 0.4330	 9.9670
 0.4340	 9.9820
 0.4350	 9.9660
 0.4360	 9.9770
 0.4370	10.0120
 0.4380	10.0240
 0.4390	10.0260
 0.4400	10.0450
 0.4410	10.0890
 0.4420	10.1310
 0.4430	10.1410
 0.4440	10.1390
 0.4450	10.1580
 0.4460	10.1900
 0.4470	10.2080
 0.4480	10.2070
 0.4490	10.2120
 0.4500	10.2210
 0.4510	10.2350
 0.4520	10.2510
 0.4530	10.2640
 0.4540	10.2850
 0.4550	10.3070
 0.4560	10.3090
 0.4570	10.3220
 0.4580	10.3220
 0.4590	10.3060
 0.4600	10.3230
 0.4610	10.3490
 0.4620	10.3560
 0.4630	10.3340
 0.4640	10.3530
 0.4650	10.3670
 0.4660	10.3590
 0.4670	10.3530
 0.4680	10.3600
 0.4690	10.3690
 0.4700	10.3690
 0.4710	10.3810
 0.4720	10.3900
 0.4730	10.3940
 0.4740	10.3940
 0.4750	10.3850
 0.4760	10.3790
 0.4770	10.3840
 0.4780	10.4000
 0.4790	10.4070
 0.4800	10.4040
 0.4810	10.4050
 0.4820	10.4190
 0.4830	10.4270
 0.4840	10.4260
 0.4850	10.4290
 0.4860	10.4380
 0.4870	10.4530
 0.4880	10.4700
 0.4890	10.4750
 0.4900	10.5040
 0.4910	10.5430
 0.4920	10.5610
 0.4930	10.5940
 0.4940	10.6310
 0.4950	10.6660
 0.4960	10.7110
 0.4970	10.7640
 0.4980	10.8180
 0.4990	10.8670
 0.5000	10.9200
 0.5010	10.9760
 0.5020	11.0390
 0.5030	11.1160
 0.5040	11.1970
 0.5050	11.2860
 0.5060	11.3850
 0.5070	11.4930
 0.5080	11.6080
 0.5090	11.7320
 0.5100	11.8690
 0.5110	12.0070
 0.5120	12.1640
 0.5130	12.3410
 0.5140	12.5100
 0.5150	12.7050
 0.5160	12.9170
 0.5170	13.1300
 0.5180	13.3470
 0.5190	13.5750
 0.5200	13.8180
 0.5210	14.0710
 0.5220	14.3150
 0.5230	14.5650
 0.5240	14.8250
 0.5250	15.0640
 0.5260	15.2990
 0.5270	15.5350
 0.5280	15.7650
 0.5290	15.9800
 0.5300	16.1840
 0.5310	16.3780
 0.5320	16.5570
 0.5330	16.7220
 0.5340	16.8780
 0.5350	17.0260
 0.5360	17.1540
 0.5370	17.2760
 0.5380	17.3940
 0.5390	17.4980
 0.5400	17.5790
 0.5410	17.6550
 0.5420	17.7330
 0.5430	17.8000
 0.5440	17.8700
 0.5450	17.9430
 0.5460	18.0130
 0.5470	18.1120
 0.5480	18.1990
 0.5490	18.2590
 0.5500	18.3080
 0.5510	18.3430
 0.5520	18.3670
 0.5530	18.3870
 0.5540	18.3910
 0.5550	18.3810
 0.5560	18.3580
 0.5570	18.3230
 0.5580	18.2700
 0.5590	18.2000
 0.5600	18.1190
 0.5610	18.0300
 0.5620	17.9250
 0.5630	17.8050
 0.5640	17.6720
 0.5650	17.5290
 0.5660	17.3750
 0.5670	17.2120
 0.5680	17.0470
 0.5690	16.8850
 0.5700	16.7260
 0.5710	16.5670
 0.5720	16.4070
 0.5730	16.2630
 0.5740	16.1370
 0.5750	16.0230
 0.5760	15.9010
 0.5770	15.7890
 0.5780	15.6920
 0.5790	15.5830
 0.5800	15.4840
 0.5810	15.3920
 0.5820	15.2980
 0.5830	15.2080
 0.5840	15.1350
 0.5850	15.0810
 0.5860	15.0330
 0.5870	14.9770
 0.5880	14.9150
 0.5890	14.8540
 0.5900	14.7960
 0.5910	14.7430
 0.5920	14.6980
 0.5930	14.6600
 0.5940	14.6280
 0.5950	14.6050
 0.5960	14.5870
 0.5970	14.5560
 0.5980	14.5280
 0.5990	14.4930
 0.6000	14.4400
 0.6010	14.3950
 0.6020	14.3540
 0.6030	14.3120
 0.6040	14.2610
 0.6050	14.2100
 0.6060	14.1560
 0.6070	14.0920
 0.6080	14.0190
 0.6090	13.9350
 0.6100	13.8390
 0.6110	13.7380
 0.6120	13.6640
 0.6130	13.6100
 0.6140	13.5610
 0.6150	13.5020
 0.6160	13.4350
 0.6170	13.3710
 0.6180	13.3220
 0.6190	13.2740
 0.6200	13.2250
 0.6210	13.1810
 0.6220	13.1510
 0.6230	13.1280
 0.6240	13.1090
 0.6250	13.0940
 0.6260	13.0800
 0.6270	13.0680
 0.6280	13.0600
 0.6290	13.0550
 0.6300	13.0480
 0.6310	13.0390
 0.6320	13.0310
 0.6330	13.0220
 0.6340	13.0000
 0.6350	12.9690
 0.6360	12.9300
 0.6370	12.8810
 0.6380	12.8190
 0.6390	12.7450
 0.6400	12.6600
 0.6410	12.5740
 0.6420	12.4840
 0.6430	12.3870
 0.6440	12.2850
 0.6450	12.1940
 0.6460	12.1090
 0.6470	12.0240
 0.6480	11.9420
 0.6490	11.8730
 0.6500	11.8170
 0.6510	11.7630
 0.6520	11.7220
 0.6530	11.6840
 0.6540	11.6440
 0.6550	11.6010
 0.6560	11.5550
 0.6570	11.5070
 0.6580	11.4580
 0.6590	11.3990
 0.6600	11.3360
 0.6610	11.2750
 0.6620	11.2190
 0.6630	11.1610
 0.6640	11.1070
 0.6650	11.0620
 0.6660	11.0190
 0.6670	10.9870
 0.6680	10.9630
 0.6690	10.9380
 0.6700	10.9230
 0.6710	10.9180
 0.6720	10.9200
 0.6730	10.9180
 0.6740	10.9270
 0.6750	10.9420
 0.6760	10.9590
 0.6770	10.9770
 0.6780	11.0030
 0.6790	11.0360
 0.6800	11.0740
 0.6810	11.1240
 0.6820	11.1820
 0.6830	11.2470
 0.6840	11.3290
 0.6850	11.4450
 0.6860	11.5870
 0.6870	11.7460
 0.6880	11.9480
 0.6890	12.1960
 0.6900	12.4950
 0.6910	12.8540
 0.6920	13.2790
 0.6930	13.7770
 0.6940	14.3550
 0.6950	15.0190
 0.6960	15.7710
 0.6970	16.6030
 0.6980	17.5010
 0.6990	18.4690
 0.7000	19.5010
 0.7010	20.5800
 0.7020	21.6860
 0.7030	22.8310
 0.7040	23.9890
 0.7050	25.1390
 0.7060	26.2880
 0.7070	27.4310
 0.7080	28.5650
 0.7090	29.6850
 0.7100	30.7910
 0.7110	31.8670
 0.7120	32.9140
 0.7130	33.9540
 0.7140	34.9570
 0.7150	35.9280
 0.7160	36.8740
 0.7170	37.7830
 0.7180	38.6650
 0.7190	39.5150
 0.7200	40.3230
 0.7210	41.1030
 0.7220	41.8500
 0.7230	42.5650
 0.7240	43.2570
 0.7250	43.9210
 0.7260	44.5370
 0.7270	45.1030
 0.7280	45.6620
 0.7290	46.1940
 0.7300	46.6850
 0.7310	47.1290
 0.7320	47.5620
 0.7330	47.9700
 0.7340	48.3500
 0.7350	48.7090
 0.7360	49.0440
 0.7370	49.3540
 0.7380	49.6390
 0.7390	49.9070
 0.7400	50.1690
 0.7410	50.4130
 0.7420	50.6260
 0.7430	50.8310
 0.7440	51.0140
 0.7450	51.1830
 0.7460	51.3580
 0.7470	51.5060
 0.7480	51.6310
 0.7490	51.7450
 0.7500	51.8680
 0.7510	51.9620
 0.7520	52.0400
 0.7530	52.1260
 0.7540	52.2220
 0.7550	52.2970
 0.7560	52.3530
 0.7570	52.4140
 0.7580	52.4670
 0.7590	52.5190
 0.7600	52.5660
 0.7610	52.5850
 0.7620	52.6170
 0.7630	52.6550
 0.7640	52.6850
 0.7650	52.7110
 0.7660	52.7430
 0.7670	52.7670
 0.7680	52.7660
 0.7690	52.7920
 0.7700	52.8190
 0.7710	52.8310
 0.7720	52.8360
 0.7730	52.8510
 0.7740	52.8680
 0.7750	52.8760
 0.7760	52.8800
 0.7770	52.8830
 0.7780	52.8900
 0.7790	52.9060
 0.7800	52.9260
 0.7810	52.9280
 0.7820	52.9260
 0.7830	52.9590
 0.7840	52.9700
 0.7850	52.9690
 0.7860	52.9750
 0.7870	52.9950
 0.7880	53.0070
 0.7890	53.0110
 0.7900	53.0170
 0.7910	53.0190
 0.7920	53.0270
 0.7930	53.0440
 0.7940	53.0610
 0.7950	53.0620
 0.7960	53.0600
 0.7970	53.0650
 0.7980	53.0670
 0.7990	53.0810
 0.8000	53.0940
 0.8010	53.0940
 0.8020	53.0990
 0.8030	53.1130
 0.8040	53.1270
 0.8050	53.1330
 0.8060	53.1490
 0.8070	53.1380
 0.8080	53.1180
 0.8090	53.1440
 0.8100	53.1790
 0.8110	53.1900
 0.8120	53.1790
 0.8130	53.1890
 0.8140	53.1910
 0.8150	53.1850
 0.8160	53.1810
 0.8170	53.1880
 0.8180	53.2100
 0.8190	53.2350
 0.8200	53.2420
 0.8210	53.2340
 0.8220	53.2340
 0.8230	53.2420
 0.8240	53.2380
 0.8250	53.2550
 0.8260	53.2730
 0.8270	53.2810
 0.8280	53.2880
 0.8290	53.2920
 0.8300	53.2910
 0.8310	53.2850
 0.8320	53.2850
 0.8330	53.2870
 0.8340	53.2990
 0.8350	53.3230
 0.8360	53.3230
 0.8370	53.3150
 0.8380	53.3190
 0.8390	53.3460
 0.8400	53.3510
 0.8410	53.3470
 0.8420	53.3490
 0.8430	53.3620
 0.8440	53.3570
 0.8450	53.3580
 0.8460	53.3790
 0.8470	53.3920
 0.8480	53.4040
 0.8490	53.4020
 0.8500	53.3800
 0.8510	53.4170
 0.8520	53.4500
 0.8530	53.4490
 0.8540	53.4230
 0.8550	53.4340
 0.8560	53.4620
 0.8570	53.4770
 0.8580	53.4590
 0.8590	53.4480
 0.8600	53.4630
 0.8610	53.4900
 0.8620	53.4750
 0.8630	53.4620
 0.8640	53.4700
 0.8650	53.4990
 0.8660	53.5140
 0.8670	53.5100
 0.8680	53.5000
 0.8690	53.5010
 0.8700	53.4920
 0.8710	53.4940
 0.8720	53.4990
 0.8730	53.4910
 0.8740	53.5080
 0.8750	53.5270
 0.8760	53.5320
 0.8770	53.5200
 0.8780	53.5200
 0.8790	53.5270
 0.8800	53.5350
 0.8810	53.5410
 0.8820	53.5290
 0.8830	53.5150
 0.8840	53.5170
 0.8850	53.5290
 0.8860	53.5180
 0.8870	53.5080
 0.8880	53.5240
 0.8890	53.5300
 0.8900	53.5330
 0.8910	53.5370
 0.8920	53.5410
 0.8930	53.5490
 0.8940	53.5320
 0.8950	53.5020
 0.8960	53.4950
 0.8970	53.5190
 0.8980	53.5310
 0.8990	53.5170
 0.9000	53.5020
 0.9010	53.5020
 0.9020	53.4950
 0.9030	53.4880
 0.9040	53.5220
 0.9050	53.5170
 0.9060	53.4890
 0.9070	53.4690
 0.9080	53.4760
 0.9090	53.4800
 0.9100	53.4850
 0.9110	53.4930
 0.9120	53.4610
 0.9130	53.4690
 0.9140	53.5000
 0.9150	53.5100
 0.9160	53.4820
 0.9170	53.4670
 0.9180	53.4740
 0.9190	53.4880
 0.9200	53.4910
 0.9210	53.4770
 0.9220	53.4510
 0.9230	53.4290
 0.9240	53.4370
 0.9250	53.4450
 0.9260	53.4420
 0.9270	53.4380
 0.9280	53.4150
 0.9290	53.3890
 0.9300	53.3580
 0.9310	53.3110
 0.9320	53.3210
 0.9330	53.3420
 0.9340	53.3420
 0.9350	53.3260
 0.9360	53.3130
 0.9370	53.2850
 0.9380	53.2450
 0.9390	53.2270
 0.9400	53.2160
 0.9410	53.2000
 0.9420	53.1730
 0.9430	53.1450
 0.9440	53.1130
 0.9450	53.0880
 0.9460	53.0800
 0.9470	53.0810
 0.9480	53.0550
 0.9490	53.0100
 0.9500	52.9630
 0.9510	52.9160
 0.9520	52.8550
 0.9530	52.8070
 0.9540	52.7870
 0.9550	52.7240
 0.9560	52.6840
 0.9570	52.6500
 0.9580	52.6030
 0.9590	52.5920
 0.9600	52.5560
 0.9610	52.4940
 0.9620	52.4380
 0.9630	52.4240
 0.9640	52.4090
 0.9650	52.3810
 0.9660	52.3480
 0.9670	52.3350
 0.9680	52.3210
 0.9690	52.3050
 0.9700	52.2920
 0.9710	52.2770
 0.9720	52.2660
 0.9730	52.2540
 0.9740	52.2380
 0.9750	52.2440
 0.9760	52.2190
 0.9770	52.1990
 0.9780	52.2420
 0.9790	52.2570
 0.9800	52.2710
 0.9810	52.2650
 0.9820	52.2240
 0.9830	52.2520
 0.9840	52.2590
 0.9850	52.2490
 0.9860	52.2710
 0.9870	52.3230
 0.9880	52.3300
 0.9890	52.3130
 0.9900	52.3320
 0.9910	52.3580
 0.9920	52.3560
 0.9930	52.3540
 0.9940	52.3530
 0.9950	52.3510
 0.9960	52.3500
 0.9970	52.3480
 0.9980	52.3470
 0.9990	52.3450
 1.0000	52.3440
 1.0010	52.3420
 1.0020	52.3400
 1.0030	52.3390
 1.0040	52.3370
 1.0050	52.3360
 1.0060	52.3340
 1.0070	52.3330
 1.0080	52.3310
 1.0090	52.3300
 1.0100	52.3300
 1.0110	52.3430
 1.0120	52.3600
 1.0130	52.3740
 1.0140	52.3880
 1.0150	52.4060
 1.0160	52.4200
 1.0170	52.4260
 1.0180	52.4490
 1.0190	52.4830
 1.0200	52.5100
 1.0210	52.5350
 1.0220	52.5580
 1.0230	52.5790
 1.0240	52.5930
 1.0250	52.6100
 1.0260	52.6270
 1.0270	52.6450
 1.0280	52.6720
 1.0290	52.6830
 1.0300	52.6850
 1.0310	52.6910
 1.0320	52.6910
 1.0330	52.6880
 1.0340	52.6960
 1.0350	52.7220
 1.0360	52.7430
 1.0370	52.7500
 1.0380	52.7630
 1.0390	52.7750
 1.0400	52.7840
 1.0410	52.7900
 1.0420	52.8000
 1.0430	52.8100
 1.0440	52.8170
 1.0450	52.8320
 1.0460	52.8350
 1.0470	52.8220
 1.0480	52.8230
 1.0490	52.8260
 1.0500	52.8280
 1.0510	52.8350
 1.0520	52.8500
 1.0530	52.8560
 1.0540	52.8570
 1.0550	52.8600
 1.0560	52.8600
 1.0570	52.8660
 1.0580	52.8750
 1.0590	52.8800
 1.0600	52.8850
 1.0610	52.8910
 1.0620	52.8920
 1.0630	52.8970
 1.0640	52.9050
 1.0650	52.9140
 1.0660	52.9260
 1.0670	52.9340
 1.0680	52.9410
 1.0690	52.9520
 1.0700	52.9530
 1.0710	52.9480
 1.0720	52.9480
 1.0730	52.9480
 1.0740	52.9480
 1.0750	52.9480
 1.0760	52.9520
 1.0770	52.9580
 1.0780	52.9610
 1.0790	52.9680
 1.0800	52.9720
 1.0810	52.9730
 1.0820	52.9750
 1.0830	52.9740
 1.0840	52.9780
 1.0850	52.9830
 1.0860	52.9870
 1.0870	52.9920
 1.0880	53.0040
 1.0890	53.0050
 1.0900	52.9990
 1.0910	52.9980
 1.0920	52.9990
 1.0930	52.9920
 1.0940	52.9820
 1.0950	52.9750
 1.0960	52.9610
 1.0970	52.9530
 1.0980	52.9560
 1.0990	52.9490
 1.1000	52.9350
 1.1010	52.9220
 1.1020	52.9060
 1.1030	52.8860
 1.1040	52.8770
 1.1050	52.8700
 1.1060	52.8630
 1.1070	52.8650
 1.1080	52.8550
 1.1090	52.8380
 1.1100	52.8250
 1.1110	52.8050
 1.1120	52.7900
 1.1130	52.7820
 1.1140	52.7680
 1.1150	52.7550
 1.1160	52.7350
 1.1170	52.7140
 1.1180	52.6880
 1.1190	52.6530
 1.1200	52.6200
 1.1210	52.5820
 1.1220	52.5460
 1.1230	52.5110
 1.1240	52.4700
 1.1250	52.4270
 1.1260	52.3820
 1.1270	52.3340
 1.1280	52.2850
 1.1290	52.2300
 1.1300	52.1720
 1.1310	52.1100
 1.1320	52.0450
 1.1330	51.9750
 1.1340	51.9020
 1.1350	51.8220
 1.1360	51.7340
 1.1370	51.6440
 1.1380	51.5460
 1.1390	51.4470
 1.1400	51.3460
 1.1410	51.2440
 1.1420	51.1370
 1.1430	51.0250
 1.1440	50.9140
 1.1450	50.7960
 1.1460	50.6840
 1.1470	50.5750
 1.1480	50.4680
 1.1490	50.3620
 1.1500	50.2600
 1.1510	50.1580
 1.1520	50.0670
 1.1530	49.9820
 1.1540	49.9040
 1.1550	49.8370
 1.1560	49.7720
 1.1570	49.6980
 1.1580	49.6370
 1.1590	49.5850
 1.1600	49.5320
 1.1610	49.5000
 1.1620	49.4740
 1.1630	49.4390
 1.1640	49.4150
 1.1650	49.3920
 1.1660	49.3680
 1.1670	49.3520
 1.1680	49.3450
 1.1690	49.3360
 1.1700	49.3320
 1.1710	49.3250
 1.1720	49.3160
 1.1730	49.3100
 1.1740	49.3060
 1.1750	49.3000
 1.1760	49.2980
 1.1770	49.2940
 1.1780	49.2830
 1.1790	49.2770
 1.1800	49.2680
 1.1810	49.2540
 1.1820	49.2440
 1.1830	49.2360
 1.1840	49.2310
 1.1850	49.2240
 1.1860	49.2180
 1.1870	49.2180
 1.1880	49.2170
 1.1890	49.2160
 1.1900	49.2160
 1.1910	49.2180
 1.1920	49.2180
 1.1930	49.2200
 1.1940	49.2220
 1.1950	49.2230
 1.1960	49.2230
 1.1970	49.2240
 1.1980	49.2230
 1.1990	49.2300
 1.2000	49.2370
 1.2010	49.2500
 1.2020	49.2600
 1.2030	49.2700
 1.2040	49.2860
 1.2050	49.2990
 1.2060	49.3180
 1.2070	49.3310
 1.2080	49.3430
 1.2090	49.3620
 1.2100	49.3800
 1.2110	49.4000
 1.2120	49.4250
 1.2130	49.4470
 1.2140	49.4720
 1.2150	49.4940
 1.2160	49.5130
 1.2170	49.5350
 1.2180	49.5570
 1.2190	49.5680
 1.2200	49.5830
 1.2210	49.6060
 1.2220	49.6240
 1.2230	49.6390
 1.2240	49.6560
 1.2250	49.6740
 1.2260	49.6910
 1.2270	49.7140
 1.2280	49.7380
 1.2290	49.7550
 1.2300	49.7760
 1.2310	49.7990
 1.2320	49.8150
 1.2330	49.8350
 1.2340	49.8560
 1.2350	49.8780
 1.2360	49.8990
 1.2370	49.9230
 1.2380	49.9430
 1.2390	49.9610
 1.2400	49.9710
 1.2410	49.9840
 1.2420	50.0010
 1.2430	50.0150
 1.2440	50.0330
 1.2450	50.0480
 1.2460	50.0560
 1.2470	50.0620
 1.2480	50.0620
 1.2490	50.0680
 1.2500	50.0790
 1.2510	50.0880
 1.2520	50.1020
 1.2530	50.1060
 1.2540	50.1020
 1.2550	50.1060
 1.2560	50.1080
 1.2570	50.1120
 1.2580	50.1240
 1.2590	50.1330
 1.2600	50.1390
 1.2610	50.1440
 1.2620	50.1520
 1.2630	50.1560
 1.2640	50.1540
 1.2650	50.1630
 1.2660	50.1660
 1.2670	50.1580
 1.2680	50.1530
 1.2690	50.1430
 1.2700	50.1320
 1.2710	50.1300
 1.2720	50.1230
 1.2730	50.1110
 1.2740	50.0970
 1.2750	50.0780
 1.2760	50.0630
 1.2770	50.0500
 1.2780	50.0330
 1.2790	50.0170
 1.2800	50.0040
 1.2810	49.9900
 1.2820	49.9720
 1.2830	49.9580
 1.2840	49.9400
 1.2850	49.9150
 1.2860	49.9010
 1.2870	49.8840
 1.2880	49.8630
 1.2890	49.8420
 1.2900	49.8260
 1.2910	49.7970
 1.2920	49.7760
 1.2930	49.7580
 1.2940	49.7370
 1.2950	49.7220
 1.2960	49.7020
 1.2970	49.6820
 1.2980	49.6630
 1.2990	49.6390
 1.3000	49.6110
 1.3010	49.5780
 1.3020	49.5450
 1.3030	49.5100
 1.3040	49.4730
 1.3050	49.4350
 1.3060	49.3920
 1.3070	49.3460
 1.3080	49.2950
 1.3090	49.2420
 1.3100	49.1880
 1.3110	49.1280
 1.3120	49.0710
 1.3130	49.0130
 1.3140	48.9480
 1.3150	48.8800
 1.3160	48.8080
 1.3170	48.7310
 1.3180	48.6500
 1.3190	48.5650
 1.3200	48.4740
 1.3210	48.3800
 1.3220	48.2820
 1.3230	48.1830
 1.3240	48.0820
 1.3250	47.9830
 1.3260	47.8820
 1.3270	47.7700
 1.3280	47.6570
 1.3290	47.5410
 1.3300	47.4220
 1.3310	47.3060
 1.3320	47.1850
 1.3330	47.0570
 1.3340	46.9280
 1.3350	46.7990
 1.3360	46.6710
 1.3370	46.5380
 1.3380	46.4020
 1.3390	46.2640
 1.3400	46.1190
 1.3410	45.9790
 1.3420	45.8420
 1.3430	45.7030
 1.3440	45.5700
 1.3450	45.4380
 1.3460	45.3110
 1.3470	45.1840
 1.3480	45.0580
 1.3490	44.9310
 1.3500	44.8040
 1.3510	44.6760
 1.3520	44.5500
 1.3530	44.4270
 1.3540	44.3070
 1.3550	44.1860
 1.3560	44.0640
 1.3570	43.9470
 1.3580	43.8270
 1.3590	43.7040
 1.3600	43.5790
 1.3610	43.4470
 1.3620	43.3120
 1.3630	43.1780
 1.3640	43.0380
 1.3650	42.8910
 1.3660	42.7370
 1.3670	42.5710
 1.3680	42.3910
 1.3690	42.2050
 1.3700	42.0120
 1.3710	41.8080
 1.3720	41.5970
 1.3730	41.3700
 1.3740	41.1270
 1.3750	40.8720
 1.3760	40.6000
 1.3770	40.3050
 1.3780	39.9900
 1.3790	39.6590
 1.3800	39.3050
 1.3810	38.9320
 1.3820	38.5390
 1.3830	38.1270
 1.3840	37.6920
 1.3850	37.2340
 1.3860	36.7600
 1.3870	36.2650
 1.3880	35.7600
 1.3890	35.2400
 1.3900	34.7040
 1.3910	34.1640
 1.3920	33.6140
 1.3930	33.0550
 1.3940	32.4960
 1.3950	31.9260
 1.3960	31.3580
 1.3970	30.8010
 1.3980	30.2450
 1.3990	29.7030
 1.4000	29.1730
 1.4010	28.6490
 1.4020	28.1420
 1.4030	27.6520
 1.4040	27.1800
 1.4050	26.7290
 1.4060	26.2940
 1.4070	25.8840
 1.4080	25.4920
 1.4090	25.1170
 1.4100	24.7650
 1.4110	24.4290
 1.4120	24.1150
 1.4130	23.8230
 1.4140	23.5510
 1.4150	23.3040
 1.4160	23.0740
 1.4170	22.8600
 1.4180	22.6650
 1.4190	22.4840
 1.4200	22.3180
 1.4210	22.1700
 1.4220	22.0330
 1.4230	21.9100
 1.4240	21.7970
 1.4250	21.6950
 1.4260	21.6030
 1.4270	21.5210
 1.4280	21.4500
 1.4290	21.3880
 1.4300	21.3340
 1.4310	21.2870
 1.4320	21.2500
 1.4330	21.2180
 1.4340	21.1930
 1.4350	21.1730
 1.4360	21.1580
 1.4370	21.1500
 1.4380	21.1460
 1.4390	21.1450
 1.4400	21.1500
 1.4410	21.1560
 1.4420	21.1640
 1.4430	21.1740
 1.4440	21.1910
 1.4450	21.2080
 1.4460	21.2280
 1.4470	21.2530
 1.4480	21.2740
 1.4490	21.2960
 1.4500	21.3220
 1.4510	21.3460
 1.4520	21.3740
 1.4530	21.4040
 1.4540	21.4320
 1.4550	21.4630
 1.4560	21.4920
 1.4570	21.5250
 1.4580	21.5640
 1.4590	21.6040
 1.4600	21.6490
 1.4610	21.7000
 1.4620	21.7530
 1.4630	21.8110
 1.4640	21.8730
 1.4650	21.9360
 1.4660	22.0050
 1.4670	22.0790
 1.4680	22.1580
 1.4690	22.2430
 1.4700	22.3310
 1.4710	22.4240
 1.4720	22.5210
 1.4730	22.6210
 1.4740	22.7240
 1.4750	22.8280
 1.4760	22.9360
 1.4770	23.0450
 1.4780	23.1570
 1.4790	23.2750
 1.4800	23.3930
 1.4810	23.5150
 1.4820	23.6380
 1.4830	23.7580
 1.4840	23.8800
 1.4850	24.0020
 1.4860	24.1260
 1.4870	24.2530
 1.4880	24.3760
 1.4890	24.4970
 1.4900	24.6190
 1.4910	24.7400
 1.4920	24.8620
 1.4930	24.9860
 1.4940	25.1080
 1.4950	25.2290
 1.4960	25.3530
 1.4970	25.4780
 1.4980	25.6020
 1.4990	25.7260
 1.5000	25.8500
 1.5010	25.9730
 1.5020	26.0930
 1.5030	26.2130
 1.5040	26.3310
 1.5050	26.4460
 1.5060	26.5640
 1.5070	26.6840
 1.5080	26.8000
 1.5090	26.9130
 1.5100	27.0260
 1.5110	27.1360
 1.5120	27.2480
 1.5130	27.3590
 1.5140	27.4670
 1.5150	27.5750
 1.5160	27.6800
 1.5170	27.7870
 1.5180	27.8920
 1.5190	27.9980
 1.5200	28.1030
 1.5210	28.2050
 1.5220	28.3080
 1.5230	28.4110
 1.5240	28.5100
 1.5250	28.6110
 1.5260	28.7100
 1.5270	28.8050
 1.5280	28.8990
 1.5290	28.9920
 1.5300	29.0830
 1.5310	29.1750
 1.5320	29.2670
 1.5330	29.3580
 1.5340	29.4470
 1.5350	29.5370
 1.5360	29.6270
 1.5370	29.7170
 1.5380	29.8060
 1.5390	29.8930
 1.5400	29.9770
 1.5410	30.0590
 1.5420	30.1380
 1.5430	30.2180
 1.5440	30.2980
 1.5450	30.3750
 1.5460	30.4520
 1.5470	30.5310
 1.5480	30.6100
 1.5490	30.6900
 1.5500	30.7620
 1.5510	30.8350
 1.5520	30.9070
 1.5530	30.9760
 1.5540	31.0480
 1.5550	31.1220
 1.5560	31.1880
 1.5570	31.2510
 1.5580	31.3160
 1.5590	31.3760
 1.5600	31.4380
 1.5610	31.5020
 1.5620	31.5670
 1.5630	31.6330
 1.5640	31.6990
 1.5650	31.7650
 1.5660	31.8280
 1.5670	31.8890
 1.5680	31.9500
 1.5690	32.0080
 1.5700	32.0690
 1.5710	32.1310
 1.5720	32.1920
 1.5730	32.2520
 1.5740	32.3080
 1.5750	32.3650
 1.5760	32.4240
 1.5770	32.4820
 1.5780	32.5420
 1.5790	32.6050
 1.5800	32.6630
 1.5810	32.7210
 1.5820	32.7810
 1.5830	32.8380
 1.5840	32.8950
 1.5850	32.9540
 1.5860	33.0090
 1.5870	33.0640
 1.5880	33.1200
 1.5890	33.1770
 1.5900	33.2340
 1.5910	33.2860
 1.5920	33.3390
 1.5930	33.3880
 1.5940	33.4370
 1.5950	33.4900
 1.5960	33.5380
 1.5970	33.5850
 1.5980	33.6360
 1.5990	33.6830
 1.6000	33.7290
 1.6010	33.7780
 1.6020	33.8230
 1.6030	33.8680
 1.6040	33.9150
 1.6050	33.9630
 1.6060	34.0090
 1.6070	34.0560
 1.6080	34.1020
 1.6090	34.1430
 1.6100	34.1840
 1.6110	34.2240
 1.6120	34.2640
 1.6130	34.3040
 1.6140	34.3400
 1.6150	34.3770
 1.6160	34.4150
 1.6170	34.4520
 1.6180	34.4860
 1.6190	34.5170
 1.6200	34.5540
 1.6210	34.5910
 1.6220	34.6300
 1.6230	34.6720
 1.6240	34.7120
 1.6250	34.7450
 1.6260	34.7770
 1.6270	34.8110
 1.6280	34.8380
 1.6290	34.8660
 1.6300	34.8950
 1.6310	34.9200
 1.6320	34.9410
 1.6330	34.9630
 1.6340	34.9830
 1.6350	35.0030
 1.6360	35.0240
 1.6370	35.0430
 1.6380	35.0620
 1.6390	35.0790
 1.6400	35.0960
 1.6410	35.1080
 1.6420	35.1190
 1.6430	35.1260
 1.6440	35.1260
 1.6450	35.1320
 1.6460	35.1350
 1.6470	35.1310
 1.6480	35.1220
 1.6490	35.1090
 1.6500	35.0930
 1.6510	35.0820
 1.6520	35.0710
 1.6530	35.0590
 1.6540	35.0410
 1.6550	35.0170
 1.6560	34.9940
 1.6570	34.9690
 1.6580	34.9490
 1.6590	34.9280
 1.6600	34.9100
 1.6610	34.8970
 1.6620	34.8820
 1.6630	34.8710
 1.6640	34.8580
 1.6650	34.8430
 1.6660	34.8280
 1.6670	34.8200
 1.6680	34.8160
 1.6690	34.8130
 1.6700	34.8150
 1.6710	34.8160
 1.6720	34.8140
 1.6730	34.8170
 1.6740	34.8180
 1.6750	34.8090
 1.6760	34.8010
 1.6770	34.7880
 1.6780	34.7670
 1.6790	34.7490
 1.6800	34.7280
 1.6810	34.7030
 1.6820	34.6800
 1.6830	34.6540
 1.6840	34.6270
 1.6850	34.6010
 1.6860	34.5730
 1.6870	34.5430
 1.6880	34.5110
 1.6890	34.4830
 1.6900	34.4530
 1.6910	34.4220
 1.6920	34.3910
 1.6930	34.3560
 1.6940	34.3230
 1.6950	34.2900
 1.6960	34.2600
 1.6970	34.2350
 1.6980	34.2040
 1.6990	34.1730
 1.7000	34.1400
 1.7010	34.1000
 1.7020	34.0630
 1.7030	34.0300
 1.7040	33.9910
 1.7050	33.9490
 1.7060	33.9070
 1.7070	33.8630
 1.7080	33.8210
 1.7090	33.7810
 1.7100	33.7410
 1.7110	33.7030
 1.7120	33.6630
 1.7130	33.6180
 1.7140	33.5690
 1.7150	33.5230
 1.7160	33.4730
 1.7170	33.4230
 1.7180	33.3790
 1.7190	33.3290
 1.7200	33.2800
 1.7210	33.2350
 1.7220	33.1860
 1.7230	33.1410
 1.7240	33.0940
 1.7250	33.0440
 1.7260	32.9970
 1.7270	32.9460
 1.7280	32.8970
 1.7290	32.8530
 1.7300	32.8060
 1.7310	32.7610
 1.7320	32.7180
 1.7330	32.6750
 1.7340	32.6350
 1.7350	32.5940
 1.7360	32.5550
 1.7370	32.5150
 1.7380	32.4770
 1.7390	32.4370
 1.7400	32.3950
 1.7410	32.3570
 1.7420	32.3180
 1.7430	32.2800
 1.7440	32.2500
 1.7450	32.2120
 1.7460	32.1730
 1.7470	32.1290
 1.7480	32.0780
 1.7490	32.0320
 1.7500	31.9870
 1.7510	31.9410
 1.7520	31.8970
 1.7530	31.8510
 1.7540	31.8020
 1.7550	31.7560
 1.7560	31.7100
 1.7570	31.6640
 1.7580	31.6280
 1.7590	31.6000
 1.7600	31.5670
 1.7610	31.5300
 1.7620	31.4920
 1.7630	31.4450
 1.7640	31.4030
 1.7650	31.3620
 1.7660	31.3260
 1.7670	31.2970
 1.7680	31.2620
 1.7690	31.2290
 1.7700	31.1920
 1.7710	31.1420
 1.7720	31.1070
 1.7730	31.0810
 1.7740	31.0520
 1.7750	31.0340
 1.7760	31.0050
 1.7770	30.9680
 1.7780	30.9350
 1.7790	30.8960
 1.7800	30.8700
 1.7810	30.8540
 1.7820	30.8310
 1.7830	30.8120
 1.7840	30.7900
 1.7850	30.7590
 1.7860	30.7440
 1.7870	30.7370
 1.7880	30.7370
 1.7890	30.7350
 1.7900	30.7270
 1.7910	30.7210
 1.7920	30.7110
 1.7930	30.7020
 1.7940	30.6970
 1.7950	30.6920
 1.7960	30.6860
 1.7970	30.6790
 1.7980	30.6720
 1.7990	30.6660
 1.8000	30.6560
 1.8010	30.6540
 1.8020	30.6570
 1.8030	30.6610
 1.8040	30.6740
 1.8050	30.6790
 1.8060	30.6820
 1.8070	30.6870
 1.8080	30.6900
 1.8090	30.6910
 1.8100	30.6910
 1.8110	30.6890
 1.8120	30.6930
 1.8130	30.6930
 1.8140	30.6940
 1.8150	30.6980
 1.8160	30.6920
 1.8170	30.6930
 1.8180	30.7000
 1.8190	30.6990
 1.8200	30.6990
 1.8210	30.6960
 1.8220	30.6960
 1.8230	30.6990
 1.8240	30.7010
 1.8250	30.7140
 1.8260	30.7100
 1.8270	30.6070
 1.8280	30.5040
 1.8290	30.4010
 1.8300	30.2980
 1.8310	30.1950
 1.8320	30.0920
 1.8330	29.9890
 1.8340	29.8860
 1.8350	29.8860
 1.8360	29.8540
 1.8370	29.8200
 1.8380	29.7750
 1.8390	29.7290
 1.8400	29.6810
 1.8410	29.6290
 1.8420	29.5760
 1.8430	29.5160
 1.8440	29.4470
 1.8450	29.3730
 1.8460	29.3020
 1.8470	29.2260
 1.8480	29.1390
 1.8490	29.0340
 1.8500	28.9210
 1.8510	28.7930
 1.8520	28.6560
 1.8530	28.5130
 1.8540	28.3690
 1.8550	28.2170
 1.8560	28.0460
 1.8570	27.8570
 1.8580	27.6530
 1.8590	27.4380
 1.8600	27.2070
 1.8610	26.9610
 1.8620	26.7070
 1.8630	26.4460
 1.8640	26.1570
 1.8650	25.8510
 1.8660	25.5280
 1.8670	25.1780
 1.8680	24.8180
 1.8690	24.4420
 1.8700	24.0430
 1.8710	23.6260
 1.8720	23.1930
 1.8730	22.7450
 1.8740	22.2860
 1.8750	21.8180
 1.8760	21.3360
 1.8770	20.8420
 1.8780	20.3330
 1.8790	19.8120
 1.8800	19.2980
 1.8810	18.7850
 1.8820	18.2680
 1.8830	17.7540
 1.8840	17.2400
 1.8850	16.7210
 1.8860	16.2140
 1.8870	15.7170
 1.8880	15.2370
 1.8890	14.7750
 1.8900	14.3210
 1.8910	13.8870
 1.8920	13.4650
 1.8930	13.0640
 1.8940	12.6930
 1.8950	12.3490
 1.8960	12.0290
 1.8970	11.7350
 1.8980	11.4590
 1.8990	11.2010
 1.9000	10.9640
 1.9010	10.7530
 1.9020	10.5520
 1.9030	10.3700
 1.9040	10.2030
 1.9050	10.0570
 1.9060	 9.9220
 1.9070	 9.8070
 1.9080	 9.7150
 1.9090	 9.6240
 1.9100	 9.5450
 1.9110	 9.4760
 1.9120	 9.4190
 1.9130	 9.3640
 1.9140	 9.3180
 1.9150	 9.2800
 1.9160	 9.2480
 1.9170	 9.2190
 1.9180	 9.1970
 1.9190	 9.1810
 1.9200	 9.1620
 1.9210	 9.1520
 1.9220	 9.1440
 1.9230	 9.1400
 1.9240	 9.1370
 1.9250	 9.1360
 1.9260	 9.1390
 1.9270	 9.1450
 1.9280	 9.1550
 1.9290	 9.1670
 1.9300	 9.1780
 1.9310	 9.1900
 1.9320	 9.2100
 1.9330	 9.2330
 1.9340	 9.2620
 1.9350	 9.2880
 1.9360	 9.3140
 1.9370	 9.3430
 1.9380	 9.3710
 1.9390	 9.4030
 1.9400	 9.4360
 1.9410	 9.4710
 1.9420	 9.5020
 1.9430	 9.5290
 1.9440	 9.5620
 1.9450	 9.5960
 1.9460	 9.6330
 1.9470	 9.6760
 1.9480	 9.7200
 1.9490	 9.7710
 1.9500	 9.8110
 1.9510	 9.8510
 1.9520	 9.8940
 1.9530	 9.9400
 1.9540	 9.9930
 1.9550	10.0470
 1.9560	10.1090
 1.9570	10.1660
 1.9580	10.2240
 1.9590	10.2800
 1.9600	10.3360
 1.9610	10.3900
 1.9620	10.4390
 1.9630	10.4880
 1.9640	10.5390
 1.9650	10.5930
 1.9660	10.6500
 1.9670	10.7140
 1.9680	10.7820
 1.9690	10.8630
 1.9700	10.9320
 1.9710	11.0020
 1.9720	11.0670
 1.9730	11.1190
 1.9740	11.1780
 1.9750	11.2450
 1.9760	11.3120
 1.9770	11.3830
 1.9780	11.4610
 1.9790	11.5340
 1.9800	11.6040
 1.9810	11.6790
 1.9820	11.7580
 1.9830	11.8340
 1.9840	11.9130
 1.9850	11.9860
 1.9860	12.0550
 1.9870	12.1210
 1.9880	12.1870
 1.9890	12.2550
 1.9900	12.3320
 1.9910	12.4120
 1.9920	12.4880
 1.9930	12.5640
 1.9940	12.6440
 1.9950	12.7240
 1.9960	12.8040
 1.9970	12.8910
 1.9980	12.9730
 1.9990	13.0540
 2.0000	13.1280
 2.0010	13.1990
 2.0020	13.2730
 2.0030	13.3480
 2.0040	13.4240
 2.0050	13.5030
 2.0060	13.5890
 2.0070	13.6660
 2.0080	13.7390
 2.0090	13.8140
 2.0100	13.8880
 2.0110	13.9590
 2.0120	14.0310
 2.0130	14.0960
 2.0140	14.1590
 2.0150	14.2200
 2.0160	14.2880
 2.0170	14.3530
 2.0180	14.4130
 2.0190	14.4710
 2.0200	14.5310
 2.0210	14.5890
 2.0220	14.6460
 2.0230	14.7020
 2.0240	14.7600
 2.0250	14.8160
 2.0260	14.8690
 2.0270	14.9260
 2.0280	14.9800
 2.0290	15.0220
 2.0300	15.0650
 2.0310	15.1070
 2.0320	15.1430
 2.0330	15.1880
 2.0340	15.2400
 2.0350	15.2840
 2.0360	15.3270
 2.0370	15.3680
 2.0380	15.4030
 2.0390	15.4390
 2.0400	15.4770
 2.0410	15.5140
 2.0420	15.5540
 2.0430	15.5830
 2.0440	15.6110
 2.0450	15.6340
 2.0460	15.6590
 2.0470	15.6820
 2.0480	15.7060
 2.0490	15.7360
 2.0500	15.7620
 2.0510	15.7790
 2.0520	15.8060
 2.0530	15.8410
 2.0540	15.8700
 2.0550	15.9020
 2.0560	15.9390
 2.0570	15.9670
 2.0580	15.9880
 2.0590	16.0110
 2.0600	16.0290
 2.0610	16.0530
 2.0620	16.0760
 2.0630	16.1040
 2.0640	16.1380
 2.0650	16.1720
 2.0660	16.2110
 2.0670	16.2430
 2.0680	16.2750
 2.0690	16.3060
 2.0700	16.3360
 2.0710	16.3630
 2.0720	16.3950
 2.0730	16.4200
 2.0740	16.4380
 2.0750	16.4470
 2.0760	16.4620
 2.0770	16.4710
 2.0780	16.4880
 2.0790	16.5100
 2.0800	16.5300
 2.0810	16.5550
 2.0820	16.5750
 2.0830	16.5910
 2.0840	16.6100
 2.0850	16.6210
 2.0860	16.6450
 2.0870	16.6830
 2.0880	16.7170
 2.0890	16.7480
 2.0900	16.7890
 2.0910	16.8140
 2.0920	16.8240
 2.0930	16.8450
 2.0940	16.8660
 2.0950	16.8880
 2.0960	16.9200
 2.0970	16.9400
 2.0980	16.9500
 2.0990	16.9660
 2.1000	16.9840
 2.1010	16.9970
 2.1020	17.0090
 2.1030	17.0240
 2.1040	17.0420
 2.1050	17.0500
 2.1060	17.0660
 2.1070	17.0920
 2.1080	17.1090
 2.1090	17.1200
 2.1100	17.1350
 2.1110	17.1450
 2.1120	17.1630
 2.1130	17.1900
 2.1140	17.2100
 2.1150	17.2310
 2.1160	17.2490
 2.1170	17.2540
 2.1180	17.2700
 2.1190	17.2850
 2.1200	17.3070
 2.1210	17.3390
 2.1220	17.3740
 2.1230	17.4000
 2.1240	17.4270
 2.1250	17.4490
 2.1260	17.4650
 2.1270	17.4820
 2.1280	17.5020
 2.1290	17.5140
 2.1300	17.5170
 2.1310	17.5250
 2.1320	17.5280
 2.1330	17.5380
 2.1340	17.5550
 2.1350	17.5690
 2.1360	17.5850
 2.1370	17.6010
 2.1380	17.6130
 2.1390	17.6320
 2.1400	17.6520
 2.1410	17.6790
 2.1420	17.7030
 2.1430	17.7320
 2.1440	17.7570
 2.1450	17.7780
 2.1460	17.8030
 2.1470	17.8330
 2.1480	17.8540
 2.1490	17.8700
 2.1500	17.8920
 2.1510	17.9150
 2.1520	17.9280
 2.1530	17.9320
 2.1540	17.9480
 2.1550	17.9550
 2.1560	17.9750
 2.1570	18.0140
 2.1580	18.0500
 2.1590	18.0930
 2.1600	18.1250
 2.1610	18.1590
 2.1620	18.1930
 2.1630	18.2230
 2.1640	18.2460
 2.1650	18.2750
 2.1660	18.3100
 2.1670	18.3370
 2.1680	18.3610
 2.1690	18.3860
 2.1700	18.4060
 2.1710	18.4280
 2.1720	18.4550
 2.1730	18.4770
 2.1740	18.4940
 2.1750	18.5160
 2.1760	18.5420
 2.1770	18.5620
 2.1780	18.5840
 2.1790	18.6030
 2.1800	18.6150
 2.1810	18.6310
 2.1820	18.6480
 2.1830	18.6690
 2.1840	18.6940
 2.1850	18.7240
 2.1860	18.7550
 2.1870	18.7940
 2.1880	18.8240
 2.1890	18.8510
 2.1900	18.8780
 2.1910	18.8980
 2.1920	18.9290
 2.1930	18.9700
 2.1940	19.0060
 2.1950	19.0510
 2.1960	19.0810
 2.1970	19.0990
 2.1980	19.1210
 2.1990	19.1380
 2.2000	19.1560
 2.2010	19.1730
 2.2020	19.1970
 2.2030	19.2280
 2.2040	19.2540
 2.2050	19.2830
 2.2060	19.3110
 2.2070	19.3360
 2.2080	19.3510
 2.2090	19.3770
 2.2100	19.4090
 2.2110	19.4370
 2.2120	19.4690
 2.2130	19.4930
 2.2140	19.5170
 2.2150	19.5300
 2.2160	19.5320
 2.2170	19.5390
 2.2180	19.5380
 2.2190	19.5430
 2.2200	19.5600
 2.2210	19.5660
 2.2220	19.5700
 2.2230	19.5720
 2.2240	19.5740
 2.2250	19.5660
 2.2260	19.5560
 2.2270	19.5370
 2.2280	19.4950
 2.2290	19.4690
 2.2300	19.4450
 2.2310	19.4310
 2.2320	19.4070
 2.2330	19.3910
 2.2340	19.3620
 2.2350	19.3140
 2.2360	19.2880
 2.2370	19.2710
 2.2380	19.2460
 2.2390	19.2280
 2.2400	19.1970
 2.2410	19.1540
 2.2420	19.1140
 2.2430	19.0720
 2.2440	19.0240
 2.2450	18.9730
 2.2460	18.9180
 2.2470	18.8500
 2.2480	18.7950
 2.2490	18.7440
 2.2500	18.6930
 2.2510	18.6520
 2.2520	18.6020
 2.2530	18.5460
 2.2540	18.4880
 2.2550	18.4210
 2.2560	18.3600
 2.2570	18.3040
 2.2580	18.2440
 2.2590	18.1800
 2.2600	18.1260
 2.2610	18.0760
 2.2620	18.0280
 2.2630	17.9730
 2.2640	17.9220
 2.2650	17.8650
 2.2660	17.8060
 2.2670	17.7610
 2.2680	17.7290
 2.2690	17.6930
 2.2700	17.6640
 2.2710	17.6220
 2.2720	17.5740
 2.2730	17.5340
 2.2740	17.4840
 2.2750	17.4510
 2.2760	17.4380
 2.2770	17.4120
 2.2780	17.3900
 2.2790	17.3620
 2.2800	17.3240
 2.2810	17.2940
 2.2820	17.2660
 2.2830	17.2330
 2.2840	17.2060
 2.2850	17.1650
 2.2860	17.1080
 2.2870	17.0620
 2.2880	17.0010
 2.2890	16.9620
 2.2900	16.9340
 2.2910	16.9110
 2.2920	16.9230
 2.2930	16.9050
 2.2940	16.8720
 2.2950	16.8440
 2.2960	16.7950
 2.2970	16.7500
 2.2980	16.7040
 2.2990	16.6730
 2.3000	16.6370
 2.3010	16.6080
 2.3020	16.5780
 2.3030	16.5360
 2.3040	16.4900
 2.3050	16.4540
 2.3060	16.4220
 2.3070	16.4000
 2.3080	16.3830
 2.3090	16.3400
 2.3100	16.3030
 2.3110	16.2600
 2.3120	16.2290
 2.3130	16.1980
 2.3140	16.1770
 2.3150	16.1670
 2.3160	16.1550
 2.3170	16.1460
 2.3180	16.1250
 2.3190	16.1090
 2.3200	16.0770
 2.3210	16.0210
 2.3220	15.9890
 2.3230	15.9610
 2.3240	15.9340
 2.3250	15.9250
 2.3260	15.8900
 2.3270	15.8330
 2.3280	15.7940
 2.3290	15.7450
 2.3300	15.7140
 2.3310	15.7110
 2.3320	15.6820
 2.3330	15.6460
 2.3340	15.6090
 2.3350	15.5530
 2.3360	15.5150
 2.3370	15.4940
 2.3380	15.4580
 2.3390	15.4110
 2.3400	15.3820
 2.3410	15.3630
 2.3420	15.3340
 2.3430	15.3190
 2.3440	15.2880
 2.3450	15.2310
 2.3460	15.1940
 2.3470	15.1710
 2.3480	15.1410
 2.3490	15.1050
 2.3500	15.0760
 2.3510	15.0450
 2.3520	15.0190
 2.3530	15.0000
 2.3540	14.9930
 2.3550	14.9900
 2.3560	14.9640
 2.3570	14.9090
 2.3580	14.8690
 2.3590	14.8160
 2.3600	14.7490
 2.3610	14.7330
 2.3620	14.7240
 2.3630	14.6980
 2.3640	14.6830
 2.3650	14.6620
 2.3660	14.6310
 2.3670	14.6010
 2.3680	14.5750
 2.3690	14.5350
 2.3700	14.4740
 2.3710	14.4310
 2.3720	14.4190
 2.3730	14.3900
 2.3740	14.3660
 2.3750	14.3630
 2.3760	14.3310
 2.3770	14.3020
 2.3780	14.2770
 2.3790	14.2230
 2.3800	14.1700
 2.3810	14.1460
 2.3820	14.1420
 2.3830	14.1070
 2.3840	14.0590
 2.3850	14.0100
 2.3860	13.9510
 2.3870	13.9240
 2.3880	13.8870
 2.3890	13.8180
 2.3900	13.7590
 2.3910	13.7000
 2.3920	13.6720
 2.3930	13.6740
 2.3940	13.6440
 2.3950	13.6060
 2.3960	13.5650
 2.3970	13.4940
 2.3980	13.4180
 2.3990	13.3560
 2.4000	13.2930
 2.4010	13.2840
 2.4020	13.2920
 2.4030	13.2230
 2.4040	13.1840
 2.4050	13.1180
 2.4060	13.0370
 2.4070	13.0360
 2.4080	12.9910
 2.4090	12.9000
 2.4100	12.8150
 2.4110	12.7200
 2.4120	12.6390
 2.4130	12.6260
 2.4140	12.6260
 2.4150	12.6040
 2.4160	12.6010
 2.4170	12.5790
 2.4180	12.5080
 2.4190	12.4490
 2.4200	12.4100
 2.4210	12.3530
 2.4220	12.2810
 2.4230	12.2550
 2.4240	12.2290
 2.4250	12.1480
 2.4260	12.1260
 2.4270	12.1030
 2.4280	12.0370
 2.4290	12.0210
 2.4300	12.0090
 2.4310	11.9730
 2.4320	11.9230
 2.4330	11.8580
 2.4340	11.7820
 2.4350	11.7170
 2.4360	11.6900
 2.4370	11.6870
 2.4380	11.7120
 2.4390	11.7050
 2.4400	11.6000
 2.4410	11.4490
 2.4420	11.3330
 2.4430	11.2840
 2.4440	11.2650
 2.4450	11.2730
 2.4460	11.2680
 2.4470	11.1920
 2.4480	11.1370
 2.4490	11.1310
 2.4500	11.0900
 2.4510	11.0170
 2.4520	10.9790
 2.4530	10.9440
 2.4540	10.9280
 2.4550	10.9430
 2.4560	10.9030
 2.4570	10.8760
 2.4580	10.8290
 2.4590	10.7560
 2.4600	10.7260
 2.4610	10.6820
 2.4620	10.6270
 2.4630	10.5960
 2.4640	10.5760
 2.4650	10.5490
 2.4660	10.5500
 2.4670	10.5470
 2.4680	10.5600
 2.4690	10.5020
 2.4700	10.4520
 2.4710	10.4080
 2.4720	10.3480
 2.4730	10.2720
 2.4740	10.2380
 2.4750	10.1760
 2.4760	10.1730
 2.4770	10.2680
 2.4780	10.2710
 2.4790	10.2830
 2.4800	10.2470
 2.4810	10.0950
 2.4820	10.1510
 2.4830	10.1860
 2.4840	10.2650
 2.4850	10.3120
 2.4860	10.2730
 2.4870	10.2540
 2.4880	10.2590
 2.4890	10.2670
 2.4900	10.1670
 2.4910	10.0120
 2.4920	 9.9230
 2.4930	 9.8330
 2.4940	 9.7470
 2.4950	 9.7450
 2.4960	 9.7350
 2.4970	 9.6960
 2.4980	 9.7740
 2.4990	 9.8040
 2.5000	 9.6360
