Name: Bambusa tuldoides
Type: vegetation
Class: Tree
Genus: Bambusa
Species: tuldoides
Sample No.: JPL145
Owner: JPL
Wavelength Range: VSWIR
Origin: 34.12526; -118.11174; WGS84
Collection Date: 9/14/2016
Description: Samples were collected at the Huntington Garden in San Marino California as part of a JPL Subcontract studying HyTES imagery. Samples were taken to JPL and processed within 48 hours of collection. The same leaves were processed in the Nicolet and then measured using the ASD.
Measurement: Bidirectional reflectance
First Column: X
Second Column: Y
X Units: Wavelength (micrometer)
Y Units: Reflectance (percentage)
First X Value: 0.35
Last X Value: 2.5
Number of X Values: 2151
Additional Information: vegetation.tree.bambusa.tuldoides.vswir.jpl145.jpl.asd.ancillary.txt

 0.3500	 6.5790
 0.3510	 6.4820
 0.3520	 6.4680
 0.3530	 6.5040
 0.3540	 6.5530
 0.3550	 6.6170
 0.3560	 6.5410
 0.3570	 6.4200
 0.3580	 6.4460
 0.3590	 6.5140
 0.3600	 6.5250
 0.3610	 6.4600
 0.3620	 6.4050
 0.3630	 6.3650
 0.3640	 6.3690
 0.3650	 6.4120
 0.3660	 6.3580
 0.3670	 6.3350
 0.3680	 6.3360
 0.3690	 6.2730
 0.3700	 6.3040
 0.3710	 6.3600
 0.3720	 6.3820
 0.3730	 6.3790
 0.3740	 6.3450
 0.3750	 6.3010
 0.3760	 6.2750
 0.3770	 6.2770
 0.3780	 6.2750
 0.3790	 6.2750
 0.3800	 6.3100
 0.3810	 6.3120
 0.3820	 6.2980
 0.3830	 6.2850
 0.3840	 6.2510
 0.3850	 6.2080
 0.3860	 6.1900
 0.3870	 6.2180
 0.3880	 6.1990
 0.3890	 6.1850
 0.3900	 6.2010
 0.3910	 6.2310
 0.3920	 6.2510
 0.3930	 6.2440
 0.3940	 6.2140
 0.3950	 6.2060
 0.3960	 6.1780
 0.3970	 6.1600
 0.3980	 6.1990
 0.3990	 6.2170
 0.4000	 6.2040
 0.4010	 6.1770
 0.4020	 6.1710
 0.4030	 6.1800
 0.4040	 6.1900
 0.4050	 6.1900
 0.4060	 6.1850
 0.4070	 6.1980
 0.4080	 6.2180
 0.4090	 6.2100
 0.4100	 6.1990
 0.4110	 6.2140
 0.4120	 6.2480
 0.4130	 6.2330
 0.4140	 6.2250
 0.4150	 6.2330
 0.4160	 6.2470
 0.4170	 6.2510
 0.4180	 6.2610
 0.4190	 6.2800
 0.4200	 6.2950
 0.4210	 6.2920
 0.4220	 6.2900
 0.4230	 6.3020
 0.4240	 6.3130
 0.4250	 6.3200
 0.4260	 6.3220
 0.4270	 6.3220
 0.4280	 6.3240
 0.4290	 6.3260
 0.4300	 6.3280
 0.4310	 6.3370
 0.4320	 6.3290
 0.4330	 6.3160
 0.4340	 6.3140
 0.4350	 6.3110
 0.4360	 6.3080
 0.4370	 6.3090
 0.4380	 6.3180
 0.4390	 6.3310
 0.4400	 6.3480
 0.4410	 6.3660
 0.4420	 6.3820
 0.4430	 6.3910
 0.4440	 6.3970
 0.4450	 6.4050
 0.4460	 6.4120
 0.4470	 6.4160
 0.4480	 6.4190
 0.4490	 6.4290
 0.4500	 6.4390
 0.4510	 6.4470
 0.4520	 6.4540
 0.4530	 6.4490
 0.4540	 6.4550
 0.4550	 6.4700
 0.4560	 6.4730
 0.4570	 6.4790
 0.4580	 6.4830
 0.4590	 6.4840
 0.4600	 6.4910
 0.4610	 6.4940
 0.4620	 6.4980
 0.4630	 6.5090
 0.4640	 6.5120
 0.4650	 6.5180
 0.4660	 6.5250
 0.4670	 6.5130
 0.4680	 6.5110
 0.4690	 6.5160
 0.4700	 6.5200
 0.4710	 6.5250
 0.4720	 6.5250
 0.4730	 6.5250
 0.4740	 6.5280
 0.4750	 6.5340
 0.4760	 6.5370
 0.4770	 6.5370
 0.4780	 6.5410
 0.4790	 6.5450
 0.4800	 6.5490
 0.4810	 6.5520
 0.4820	 6.5460
 0.4830	 6.5440
 0.4840	 6.5470
 0.4850	 6.5450
 0.4860	 6.5500
 0.4870	 6.5610
 0.4880	 6.5720
 0.4890	 6.5770
 0.4900	 6.5940
 0.4910	 6.6200
 0.4920	 6.6430
 0.4930	 6.6620
 0.4940	 6.6830
 0.4950	 6.7090
 0.4960	 6.7480
 0.4970	 6.7850
 0.4980	 6.8220
 0.4990	 6.8640
 0.5000	 6.9130
 0.5010	 6.9660
 0.5020	 7.0240
 0.5030	 7.0860
 0.5040	 7.1600
 0.5050	 7.2390
 0.5060	 7.3220
 0.5070	 7.4200
 0.5080	 7.5290
 0.5090	 7.6460
 0.5100	 7.7690
 0.5110	 7.9030
 0.5120	 8.0510
 0.5130	 8.2140
 0.5140	 8.3860
 0.5150	 8.5750
 0.5160	 8.7790
 0.5170	 8.9950
 0.5180	 9.2150
 0.5190	 9.4440
 0.5200	 9.6820
 0.5210	 9.9300
 0.5220	10.1770
 0.5230	10.4230
 0.5240	10.6680
 0.5250	10.9100
 0.5260	11.1460
 0.5270	11.3730
 0.5280	11.5860
 0.5290	11.7900
 0.5300	11.9830
 0.5310	12.1630
 0.5320	12.3250
 0.5330	12.4730
 0.5340	12.6100
 0.5350	12.7390
 0.5360	12.8510
 0.5370	12.9500
 0.5380	13.0390
 0.5390	13.1180
 0.5400	13.1900
 0.5410	13.2550
 0.5420	13.3110
 0.5430	13.3640
 0.5440	13.4170
 0.5450	13.4720
 0.5460	13.5300
 0.5470	13.5870
 0.5480	13.6390
 0.5490	13.6830
 0.5500	13.7180
 0.5510	13.7420
 0.5520	13.7560
 0.5530	13.7600
 0.5540	13.7490
 0.5550	13.7240
 0.5560	13.6850
 0.5570	13.6320
 0.5580	13.5630
 0.5590	13.4780
 0.5600	13.3810
 0.5610	13.2760
 0.5620	13.1600
 0.5630	13.0360
 0.5640	12.9070
 0.5650	12.7730
 0.5660	12.6320
 0.5670	12.4860
 0.5680	12.3400
 0.5690	12.1910
 0.5700	12.0390
 0.5710	11.8850
 0.5720	11.7370
 0.5730	11.5990
 0.5740	11.4690
 0.5750	11.3420
 0.5760	11.2260
 0.5770	11.1190
 0.5780	11.0170
 0.5790	10.9180
 0.5800	10.8280
 0.5810	10.7430
 0.5820	10.6600
 0.5830	10.5860
 0.5840	10.5150
 0.5850	10.4450
 0.5860	10.3790
 0.5870	10.3180
 0.5880	10.2620
 0.5890	10.2110
 0.5900	10.1630
 0.5910	10.1180
 0.5920	10.0770
 0.5930	10.0400
 0.5940	10.0100
 0.5950	 9.9850
 0.5960	 9.9640
 0.5970	 9.9410
 0.5980	 9.9180
 0.5990	 9.8920
 0.6000	 9.8650
 0.6010	 9.8330
 0.6020	 9.7970
 0.6030	 9.7560
 0.6040	 9.7060
 0.6050	 9.6540
 0.6060	 9.5980
 0.6070	 9.5370
 0.6080	 9.4700
 0.6090	 9.3930
 0.6100	 9.3050
 0.6110	 9.2110
 0.6120	 9.1410
 0.6130	 9.0860
 0.6140	 9.0340
 0.6150	 8.9750
 0.6160	 8.9140
 0.6170	 8.8560
 0.6180	 8.8050
 0.6190	 8.7540
 0.6200	 8.7050
 0.6210	 8.6620
 0.6220	 8.6270
 0.6230	 8.5970
 0.6240	 8.5710
 0.6250	 8.5520
 0.6260	 8.5360
 0.6270	 8.5230
 0.6280	 8.5130
 0.6290	 8.5020
 0.6300	 8.4900
 0.6310	 8.4790
 0.6320	 8.4660
 0.6330	 8.4470
 0.6340	 8.4210
 0.6350	 8.3860
 0.6360	 8.3390
 0.6370	 8.2870
 0.6380	 8.2280
 0.6390	 8.1620
 0.6400	 8.0910
 0.6410	 8.0170
 0.6420	 7.9400
 0.6430	 7.8630
 0.6440	 7.7880
 0.6450	 7.7150
 0.6460	 7.6450
 0.6470	 7.5800
 0.6480	 7.5200
 0.6490	 7.4660
 0.6500	 7.4220
 0.6510	 7.3870
 0.6520	 7.3590
 0.6530	 7.3360
 0.6540	 7.3130
 0.6550	 7.2890
 0.6560	 7.2620
 0.6570	 7.2310
 0.6580	 7.1990
 0.6590	 7.1640
 0.6600	 7.1250
 0.6610	 7.0840
 0.6620	 7.0420
 0.6630	 7.0070
 0.6640	 6.9760
 0.6650	 6.9470
 0.6660	 6.9220
 0.6670	 6.9020
 0.6680	 6.8870
 0.6690	 6.8790
 0.6700	 6.8770
 0.6710	 6.8780
 0.6720	 6.8830
 0.6730	 6.8920
 0.6740	 6.9080
 0.6750	 6.9290
 0.6760	 6.9510
 0.6770	 6.9770
 0.6780	 7.0080
 0.6790	 7.0440
 0.6800	 7.0860
 0.6810	 7.1330
 0.6820	 7.1880
 0.6830	 7.2530
 0.6840	 7.3320
 0.6850	 7.4240
 0.6860	 7.5350
 0.6870	 7.6700
 0.6880	 7.8330
 0.6890	 8.0340
 0.6900	 8.2810
 0.6910	 8.5800
 0.6920	 8.9350
 0.6930	 9.3510
 0.6940	 9.8320
 0.6950	10.3780
 0.6960	10.9900
 0.6970	11.6630
 0.6980	12.3880
 0.6990	13.1620
 0.7000	13.9750
 0.7010	14.8170
 0.7020	15.6770
 0.7030	16.5440
 0.7040	17.4120
 0.7050	18.2740
 0.7060	19.1280
 0.7070	19.9700
 0.7080	20.7990
 0.7090	21.6150
 0.7100	22.4150
 0.7110	23.2070
 0.7120	23.9910
 0.7130	24.7600
 0.7140	25.5170
 0.7150	26.2640
 0.7160	27.0000
 0.7170	27.7240
 0.7180	28.4350
 0.7190	29.1350
 0.7200	29.8230
 0.7210	30.4990
 0.7220	31.1580
 0.7230	31.8000
 0.7240	32.4280
 0.7250	33.0380
 0.7260	33.6280
 0.7270	34.1960
 0.7280	34.7470
 0.7290	35.2750
 0.7300	35.7830
 0.7310	36.2710
 0.7320	36.7370
 0.7330	37.1810
 0.7340	37.6040
 0.7350	38.0050
 0.7360	38.3860
 0.7370	38.7480
 0.7380	39.0910
 0.7390	39.4110
 0.7400	39.7130
 0.7410	39.9970
 0.7420	40.2620
 0.7430	40.5080
 0.7440	40.7370
 0.7450	40.9480
 0.7460	41.1450
 0.7470	41.3260
 0.7480	41.4930
 0.7490	41.6460
 0.7500	41.7850
 0.7510	41.9120
 0.7520	42.0280
 0.7530	42.1340
 0.7540	42.2300
 0.7550	42.3180
 0.7560	42.4000
 0.7570	42.4730
 0.7580	42.5390
 0.7590	42.6010
 0.7600	42.6570
 0.7610	42.7060
 0.7620	42.7500
 0.7630	42.7900
 0.7640	42.8270
 0.7650	42.8580
 0.7660	42.8840
 0.7670	42.9080
 0.7680	42.9320
 0.7690	42.9550
 0.7700	42.9750
 0.7710	42.9910
 0.7720	43.0070
 0.7730	43.0210
 0.7740	43.0340
 0.7750	43.0460
 0.7760	43.0550
 0.7770	43.0630
 0.7780	43.0700
 0.7790	43.0780
 0.7800	43.0850
 0.7810	43.0930
 0.7820	43.1010
 0.7830	43.1050
 0.7840	43.1080
 0.7850	43.1100
 0.7860	43.1120
 0.7870	43.1140
 0.7880	43.1160
 0.7890	43.1150
 0.7900	43.1120
 0.7910	43.1100
 0.7920	43.1060
 0.7930	43.1010
 0.7940	43.0970
 0.7950	43.0940
 0.7960	43.0880
 0.7970	43.0780
 0.7980	43.0700
 0.7990	43.0600
 0.8000	43.0510
 0.8010	43.0420
 0.8020	43.0330
 0.8030	43.0220
 0.8040	43.0100
 0.8050	42.9970
 0.8060	42.9830
 0.8070	42.9680
 0.8080	42.9520
 0.8090	42.9370
 0.8100	42.9210
 0.8110	42.9060
 0.8120	42.8900
 0.8130	42.8710
 0.8140	42.8540
 0.8150	42.8360
 0.8160	42.8160
 0.8170	42.7980
 0.8180	42.7800
 0.8190	42.7620
 0.8200	42.7440
 0.8210	42.7300
 0.8220	42.7140
 0.8230	42.6940
 0.8240	42.6730
 0.8250	42.6570
 0.8260	42.6420
 0.8270	42.6260
 0.8280	42.6070
 0.8290	42.5900
 0.8300	42.5730
 0.8310	42.5550
 0.8320	42.5430
 0.8330	42.5270
 0.8340	42.5100
 0.8350	42.4980
 0.8360	42.4870
 0.8370	42.4750
 0.8380	42.4610
 0.8390	42.4490
 0.8400	42.4390
 0.8410	42.4300
 0.8420	42.4190
 0.8430	42.4100
 0.8440	42.4020
 0.8450	42.3960
 0.8460	42.3910
 0.8470	42.3800
 0.8480	42.3710
 0.8490	42.3670
 0.8500	42.3650
 0.8510	42.3630
 0.8520	42.3590
 0.8530	42.3540
 0.8540	42.3490
 0.8550	42.3490
 0.8560	42.3490
 0.8570	42.3480
 0.8580	42.3450
 0.8590	42.3470
 0.8600	42.3500
 0.8610	42.3500
 0.8620	42.3500
 0.8630	42.3530
 0.8640	42.3560
 0.8650	42.3590
 0.8660	42.3650
 0.8670	42.3690
 0.8680	42.3730
 0.8690	42.3780
 0.8700	42.3810
 0.8710	42.3880
 0.8720	42.3970
 0.8730	42.4040
 0.8740	42.4090
 0.8750	42.4150
 0.8760	42.4220
 0.8770	42.4280
 0.8780	42.4370
 0.8790	42.4460
 0.8800	42.4520
 0.8810	42.4610
 0.8820	42.4720
 0.8830	42.4820
 0.8840	42.4890
 0.8850	42.4940
 0.8860	42.5040
 0.8870	42.5140
 0.8880	42.5210
 0.8890	42.5280
 0.8900	42.5350
 0.8910	42.5440
 0.8920	42.5570
 0.8930	42.5640
 0.8940	42.5690
 0.8950	42.5750
 0.8960	42.5850
 0.8970	42.5900
 0.8980	42.5960
 0.8990	42.6040
 0.9000	42.6150
 0.9010	42.6250
 0.9020	42.6350
 0.9030	42.6440
 0.9040	42.6490
 0.9050	42.6520
 0.9060	42.6560
 0.9070	42.6640
 0.9080	42.6670
 0.9090	42.6700
 0.9100	42.6750
 0.9110	42.6830
 0.9120	42.6890
 0.9130	42.6930
 0.9140	42.6970
 0.9150	42.7040
 0.9160	42.6980
 0.9170	42.6980
 0.9180	42.7050
 0.9190	42.7080
 0.9200	42.7040
 0.9210	42.7030
 0.9220	42.7050
 0.9230	42.7020
 0.9240	42.6970
 0.9250	42.6940
 0.9260	42.6920
 0.9270	42.6880
 0.9280	42.6830
 0.9290	42.6780
 0.9300	42.6710
 0.9310	42.6580
 0.9320	42.6470
 0.9330	42.6390
 0.9340	42.6310
 0.9350	42.6240
 0.9360	42.6120
 0.9370	42.5960
 0.9380	42.5810
 0.9390	42.5750
 0.9400	42.5640
 0.9410	42.5480
 0.9420	42.5310
 0.9430	42.5160
 0.9440	42.5080
 0.9450	42.4960
 0.9460	42.4740
 0.9470	42.4560
 0.9480	42.4270
 0.9490	42.3970
 0.9500	42.3770
 0.9510	42.3550
 0.9520	42.3370
 0.9530	42.3210
 0.9540	42.3010
 0.9550	42.2680
 0.9560	42.2350
 0.9570	42.2100
 0.9580	42.1960
 0.9590	42.1800
 0.9600	42.1540
 0.9610	42.1230
 0.9620	42.0960
 0.9630	42.0870
 0.9640	42.0730
 0.9650	42.0560
 0.9660	42.0420
 0.9670	42.0200
 0.9680	42.0000
 0.9690	41.9870
 0.9700	41.9800
 0.9710	41.9730
 0.9720	41.9620
 0.9730	41.9490
 0.9740	41.9400
 0.9750	41.9410
 0.9760	41.9280
 0.9770	41.9110
 0.9780	41.9120
 0.9790	41.9090
 0.9800	41.8960
 0.9810	41.8780
 0.9820	41.8660
 0.9830	41.8720
 0.9840	41.8760
 0.9850	41.8700
 0.9860	41.8610
 0.9870	41.8580
 0.9880	41.8490
 0.9890	41.8400
 0.9900	41.8410
 0.9910	41.8350
 0.9920	41.8350
 0.9930	41.8390
 0.9940	41.8400
 0.9950	41.8430
 0.9960	41.8400
 0.9970	41.8310
 0.9980	41.8220
 0.9990	41.8200
 1.0000	41.8090
 1.0010	42.4960
 1.0020	42.4900
 1.0030	42.4840
 1.0040	42.4830
 1.0050	42.4800
 1.0060	42.4800
 1.0070	42.4860
 1.0080	42.4870
 1.0090	42.4900
 1.0100	42.4890
 1.0110	42.4840
 1.0120	42.4840
 1.0130	42.4870
 1.0140	42.4880
 1.0150	42.4900
 1.0160	42.4940
 1.0170	42.4940
 1.0180	42.4920
 1.0190	42.4930
 1.0200	42.4930
 1.0210	42.4900
 1.0220	42.4900
 1.0230	42.4920
 1.0240	42.4940
 1.0250	42.4970
 1.0260	42.5030
 1.0270	42.5050
 1.0280	42.5030
 1.0290	42.5040
 1.0300	42.5020
 1.0310	42.5020
 1.0320	42.5040
 1.0330	42.5060
 1.0340	42.5070
 1.0350	42.5080
 1.0360	42.5100
 1.0370	42.5130
 1.0380	42.5150
 1.0390	42.5180
 1.0400	42.5200
 1.0410	42.5190
 1.0420	42.5190
 1.0430	42.5190
 1.0440	42.5200
 1.0450	42.5190
 1.0460	42.5200
 1.0470	42.5260
 1.0480	42.5290
 1.0490	42.5330
 1.0500	42.5330
 1.0510	42.5280
 1.0520	42.5240
 1.0530	42.5240
 1.0540	42.5230
 1.0550	42.5250
 1.0560	42.5320
 1.0570	42.5340
 1.0580	42.5310
 1.0590	42.5310
 1.0600	42.5300
 1.0610	42.5290
 1.0620	42.5280
 1.0630	42.5280
 1.0640	42.5260
 1.0650	42.5250
 1.0660	42.5260
 1.0670	42.5240
 1.0680	42.5210
 1.0690	42.5160
 1.0700	42.5140
 1.0710	42.5120
 1.0720	42.5100
 1.0730	42.5110
 1.0740	42.5100
 1.0750	42.5070
 1.0760	42.5060
 1.0770	42.5060
 1.0780	42.5040
 1.0790	42.5020
 1.0800	42.5000
 1.0810	42.4980
 1.0820	42.4960
 1.0830	42.4940
 1.0840	42.4910
 1.0850	42.4900
 1.0860	42.4850
 1.0870	42.4820
 1.0880	42.4800
 1.0890	42.4770
 1.0900	42.4750
 1.0910	42.4730
 1.0920	42.4730
 1.0930	42.4710
 1.0940	42.4670
 1.0950	42.4640
 1.0960	42.4600
 1.0970	42.4570
 1.0980	42.4560
 1.0990	42.4550
 1.1000	42.4520
 1.1010	42.4500
 1.1020	42.4470
 1.1030	42.4430
 1.1040	42.4400
 1.1050	42.4370
 1.1060	42.4320
 1.1070	42.4260
 1.1080	42.4210
 1.1090	42.4150
 1.1100	42.4110
 1.1110	42.4090
 1.1120	42.4050
 1.1130	42.4000
 1.1140	42.3950
 1.1150	42.3910
 1.1160	42.3840
 1.1170	42.3750
 1.1180	42.3670
 1.1190	42.3580
 1.1200	42.3490
 1.1210	42.3420
 1.1220	42.3340
 1.1230	42.3220
 1.1240	42.3080
 1.1250	42.2940
 1.1260	42.2760
 1.1270	42.2580
 1.1280	42.2390
 1.1290	42.2170
 1.1300	42.1940
 1.1310	42.1680
 1.1320	42.1410
 1.1330	42.1110
 1.1340	42.0800
 1.1350	42.0450
 1.1360	42.0070
 1.1370	41.9680
 1.1380	41.9260
 1.1390	41.8820
 1.1400	41.8380
 1.1410	41.7910
 1.1420	41.7430
 1.1430	41.6950
 1.1440	41.6470
 1.1450	41.5990
 1.1460	41.5510
 1.1470	41.5030
 1.1480	41.4570
 1.1490	41.4090
 1.1500	41.3650
 1.1510	41.3240
 1.1520	41.2850
 1.1530	41.2500
 1.1540	41.2170
 1.1550	41.1850
 1.1560	41.1540
 1.1570	41.1260
 1.1580	41.1010
 1.1590	41.0780
 1.1600	41.0600
 1.1610	41.0420
 1.1620	41.0240
 1.1630	41.0070
 1.1640	40.9930
 1.1650	40.9790
 1.1660	40.9680
 1.1670	40.9570
 1.1680	40.9480
 1.1690	40.9390
 1.1700	40.9310
 1.1710	40.9220
 1.1720	40.9140
 1.1730	40.9050
 1.1740	40.8960
 1.1750	40.8870
 1.1760	40.8780
 1.1770	40.8700
 1.1780	40.8630
 1.1790	40.8540
 1.1800	40.8440
 1.1810	40.8340
 1.1820	40.8240
 1.1830	40.8140
 1.1840	40.8040
 1.1850	40.7930
 1.1860	40.7820
 1.1870	40.7710
 1.1880	40.7620
 1.1890	40.7550
 1.1900	40.7470
 1.1910	40.7410
 1.1920	40.7340
 1.1930	40.7250
 1.1940	40.7180
 1.1950	40.7110
 1.1960	40.7050
 1.1970	40.7000
 1.1980	40.6970
 1.1990	40.6950
 1.2000	40.6930
 1.2010	40.6910
 1.2020	40.6880
 1.2030	40.6830
 1.2040	40.6810
 1.2050	40.6820
 1.2060	40.6820
 1.2070	40.6820
 1.2080	40.6850
 1.2090	40.6850
 1.2100	40.6860
 1.2110	40.6880
 1.2120	40.6920
 1.2130	40.6950
 1.2140	40.6980
 1.2150	40.7020
 1.2160	40.7070
 1.2170	40.7120
 1.2180	40.7160
 1.2190	40.7220
 1.2200	40.7270
 1.2210	40.7300
 1.2220	40.7350
 1.2230	40.7430
 1.2240	40.7500
 1.2250	40.7570
 1.2260	40.7630
 1.2270	40.7690
 1.2280	40.7740
 1.2290	40.7800
 1.2300	40.7860
 1.2310	40.7920
 1.2320	40.7970
 1.2330	40.8010
 1.2340	40.8050
 1.2350	40.8070
 1.2360	40.8100
 1.2370	40.8140
 1.2380	40.8180
 1.2390	40.8230
 1.2400	40.8270
 1.2410	40.8270
 1.2420	40.8280
 1.2430	40.8290
 1.2440	40.8300
 1.2450	40.8320
 1.2460	40.8330
 1.2470	40.8340
 1.2480	40.8350
 1.2490	40.8370
 1.2500	40.8390
 1.2510	40.8400
 1.2520	40.8400
 1.2530	40.8380
 1.2540	40.8360
 1.2550	40.8330
 1.2560	40.8320
 1.2570	40.8300
 1.2580	40.8280
 1.2590	40.8260
 1.2600	40.8250
 1.2610	40.8210
 1.2620	40.8170
 1.2630	40.8140
 1.2640	40.8090
 1.2650	40.8030
 1.2660	40.7980
 1.2670	40.7920
 1.2680	40.7860
 1.2690	40.7820
 1.2700	40.7760
 1.2710	40.7710
 1.2720	40.7660
 1.2730	40.7590
 1.2740	40.7510
 1.2750	40.7440
 1.2760	40.7340
 1.2770	40.7260
 1.2780	40.7200
 1.2790	40.7120
 1.2800	40.7020
 1.2810	40.6890
 1.2820	40.6770
 1.2830	40.6650
 1.2840	40.6530
 1.2850	40.6410
 1.2860	40.6280
 1.2870	40.6140
 1.2880	40.5980
 1.2890	40.5840
 1.2900	40.5680
 1.2910	40.5500
 1.2920	40.5330
 1.2930	40.5140
 1.2940	40.4940
 1.2950	40.4730
 1.2960	40.4510
 1.2970	40.4290
 1.2980	40.4050
 1.2990	40.3820
 1.3000	40.3570
 1.3010	40.3320
 1.3020	40.3060
 1.3030	40.2780
 1.3040	40.2480
 1.3050	40.2170
 1.3060	40.1850
 1.3070	40.1550
 1.3080	40.1240
 1.3090	40.0940
 1.3100	40.0620
 1.3110	40.0280
 1.3120	39.9940
 1.3130	39.9590
 1.3140	39.9230
 1.3150	39.8880
 1.3160	39.8510
 1.3170	39.8140
 1.3180	39.7750
 1.3190	39.7350
 1.3200	39.6940
 1.3210	39.6510
 1.3220	39.6100
 1.3230	39.5660
 1.3240	39.5220
 1.3250	39.4760
 1.3260	39.4290
 1.3270	39.3820
 1.3280	39.3350
 1.3290	39.2860
 1.3300	39.2350
 1.3310	39.1840
 1.3320	39.1330
 1.3330	39.0820
 1.3340	39.0300
 1.3350	38.9750
 1.3360	38.9210
 1.3370	38.8660
 1.3380	38.8120
 1.3390	38.7590
 1.3400	38.7050
 1.3410	38.6500
 1.3420	38.5960
 1.3430	38.5410
 1.3440	38.4870
 1.3450	38.4320
 1.3460	38.3770
 1.3470	38.3220
 1.3480	38.2680
 1.3490	38.2140
 1.3500	38.1610
 1.3510	38.1070
 1.3520	38.0530
 1.3530	37.9970
 1.3540	37.9410
 1.3550	37.8850
 1.3560	37.8280
 1.3570	37.7720
 1.3580	37.7150
 1.3590	37.6570
 1.3600	37.5990
 1.3610	37.5400
 1.3620	37.4760
 1.3630	37.4120
 1.3640	37.3440
 1.3650	37.2720
 1.3660	37.1970
 1.3670	37.1160
 1.3680	37.0310
 1.3690	36.9410
 1.3700	36.8440
 1.3710	36.7410
 1.3720	36.6310
 1.3730	36.5080
 1.3740	36.3800
 1.3750	36.2400
 1.3760	36.0890
 1.3770	35.9260
 1.3780	35.7470
 1.3790	35.5530
 1.3800	35.3450
 1.3810	35.1220
 1.3820	34.8850
 1.3830	34.6340
 1.3840	34.3680
 1.3850	34.0880
 1.3860	33.7930
 1.3870	33.4830
 1.3880	33.1630
 1.3890	32.8300
 1.3900	32.4850
 1.3910	32.1330
 1.3920	31.7700
 1.3930	31.3990
 1.3940	31.0230
 1.3950	30.6390
 1.3960	30.2550
 1.3970	29.8730
 1.3980	29.4900
 1.3990	29.1160
 1.4000	28.7460
 1.4010	28.3810
 1.4020	28.0260
 1.4030	27.6780
 1.4040	27.3420
 1.4050	27.0170
 1.4060	26.7040
 1.4070	26.4080
 1.4080	26.1280
 1.4090	25.8590
 1.4100	25.6070
 1.4110	25.3670
 1.4120	25.1400
 1.4130	24.9280
 1.4140	24.7310
 1.4150	24.5500
 1.4160	24.3800
 1.4170	24.2220
 1.4180	24.0770
 1.4190	23.9400
 1.4200	23.8150
 1.4210	23.7010
 1.4220	23.5950
 1.4230	23.4990
 1.4240	23.4120
 1.4250	23.3310
 1.4260	23.2600
 1.4270	23.1950
 1.4280	23.1380
 1.4290	23.0860
 1.4300	23.0410
 1.4310	23.0000
 1.4320	22.9650
 1.4330	22.9350
 1.4340	22.9110
 1.4350	22.8910
 1.4360	22.8750
 1.4370	22.8620
 1.4380	22.8530
 1.4390	22.8490
 1.4400	22.8470
 1.4410	22.8480
 1.4420	22.8520
 1.4430	22.8570
 1.4440	22.8640
 1.4450	22.8730
 1.4460	22.8840
 1.4470	22.8970
 1.4480	22.9110
 1.4490	22.9270
 1.4500	22.9440
 1.4510	22.9610
 1.4520	22.9800
 1.4530	22.9980
 1.4540	23.0180
 1.4550	23.0420
 1.4560	23.0660
 1.4570	23.0950
 1.4580	23.1250
 1.4590	23.1570
 1.4600	23.1920
 1.4610	23.2300
 1.4620	23.2720
 1.4630	23.3200
 1.4640	23.3710
 1.4650	23.4280
 1.4660	23.4880
 1.4670	23.5510
 1.4680	23.6190
 1.4690	23.6920
 1.4700	23.7670
 1.4710	23.8470
 1.4720	23.9310
 1.4730	24.0170
 1.4740	24.1070
 1.4750	24.1990
 1.4760	24.2920
 1.4770	24.3870
 1.4780	24.4830
 1.4790	24.5810
 1.4800	24.6800
 1.4810	24.7790
 1.4820	24.8790
 1.4830	24.9790
 1.4840	25.0810
 1.4850	25.1840
 1.4860	25.2870
 1.4870	25.3900
 1.4880	25.4920
 1.4890	25.5930
 1.4900	25.6960
 1.4910	25.7990
 1.4920	25.9020
 1.4930	26.0070
 1.4940	26.1100
 1.4950	26.2140
 1.4960	26.3170
 1.4970	26.4180
 1.4980	26.5210
 1.4990	26.6250
 1.5000	26.7270
 1.5010	26.8300
 1.5020	26.9320
 1.5030	27.0320
 1.5040	27.1330
 1.5050	27.2320
 1.5060	27.3320
 1.5070	27.4310
 1.5080	27.5300
 1.5090	27.6290
 1.5100	27.7270
 1.5110	27.8230
 1.5120	27.9190
 1.5130	28.0140
 1.5140	28.1080
 1.5150	28.2020
 1.5160	28.2960
 1.5170	28.3880
 1.5180	28.4780
 1.5190	28.5680
 1.5200	28.6570
 1.5210	28.7440
 1.5220	28.8310
 1.5230	28.9180
 1.5240	29.0030
 1.5250	29.0870
 1.5260	29.1700
 1.5270	29.2510
 1.5280	29.3320
 1.5290	29.4110
 1.5300	29.4900
 1.5310	29.5670
 1.5320	29.6430
 1.5330	29.7170
 1.5340	29.7910
 1.5350	29.8650
 1.5360	29.9380
 1.5370	30.0090
 1.5380	30.0810
 1.5390	30.1510
 1.5400	30.2200
 1.5410	30.2890
 1.5420	30.3540
 1.5430	30.4210
 1.5440	30.4860
 1.5450	30.5510
 1.5460	30.6170
 1.5470	30.6800
 1.5480	30.7420
 1.5490	30.8040
 1.5500	30.8650
 1.5510	30.9260
 1.5520	30.9870
 1.5530	31.0440
 1.5540	31.1010
 1.5550	31.1580
 1.5560	31.2120
 1.5570	31.2680
 1.5580	31.3220
 1.5590	31.3740
 1.5600	31.4260
 1.5610	31.4750
 1.5620	31.5250
 1.5630	31.5740
 1.5640	31.6230
 1.5650	31.6700
 1.5660	31.7160
 1.5670	31.7620
 1.5680	31.8070
 1.5690	31.8530
 1.5700	31.8990
 1.5710	31.9450
 1.5720	31.9910
 1.5730	32.0350
 1.5740	32.0770
 1.5750	32.1190
 1.5760	32.1600
 1.5770	32.2020
 1.5780	32.2450
 1.5790	32.2870
 1.5800	32.3270
 1.5810	32.3660
 1.5820	32.4050
 1.5830	32.4440
 1.5840	32.4850
 1.5850	32.5260
 1.5860	32.5650
 1.5870	32.6050
 1.5880	32.6450
 1.5890	32.6830
 1.5900	32.7220
 1.5910	32.7610
 1.5920	32.7980
 1.5930	32.8360
 1.5940	32.8750
 1.5950	32.9130
 1.5960	32.9510
 1.5970	32.9900
 1.5980	33.0260
 1.5990	33.0620
 1.6000	33.0970
 1.6010	33.1320
 1.6020	33.1670
 1.6030	33.2030
 1.6040	33.2370
 1.6050	33.2700
 1.6060	33.3040
 1.6070	33.3370
 1.6080	33.3700
 1.6090	33.4020
 1.6100	33.4320
 1.6110	33.4620
 1.6120	33.4920
 1.6130	33.5210
 1.6140	33.5520
 1.6150	33.5810
 1.6160	33.6080
 1.6170	33.6350
 1.6180	33.6610
 1.6190	33.6870
 1.6200	33.7140
 1.6210	33.7400
 1.6220	33.7630
 1.6230	33.7860
 1.6240	33.8070
 1.6250	33.8280
 1.6260	33.8500
 1.6270	33.8710
 1.6280	33.8930
 1.6290	33.9130
 1.6300	33.9320
 1.6310	33.9510
 1.6320	33.9680
 1.6330	33.9850
 1.6340	34.0020
 1.6350	34.0180
 1.6360	34.0340
 1.6370	34.0490
 1.6380	34.0640
 1.6390	34.0780
 1.6400	34.0900
 1.6410	34.1020
 1.6420	34.1120
 1.6430	34.1230
 1.6440	34.1320
 1.6450	34.1420
 1.6460	34.1510
 1.6470	34.1590
 1.6480	34.1680
 1.6490	34.1750
 1.6500	34.1810
 1.6510	34.1870
 1.6520	34.1880
 1.6530	34.1860
 1.6540	34.1850
 1.6550	34.1820
 1.6560	34.1770
 1.6570	34.1730
 1.6580	34.1670
 1.6590	34.1590
 1.6600	34.1530
 1.6610	34.1460
 1.6620	34.1380
 1.6630	34.1290
 1.6640	34.1200
 1.6650	34.1120
 1.6660	34.1030
 1.6670	34.0940
 1.6680	34.0850
 1.6690	34.0740
 1.6700	34.0610
 1.6710	34.0460
 1.6720	34.0310
 1.6730	34.0150
 1.6740	33.9970
 1.6750	33.9780
 1.6760	33.9580
 1.6770	33.9380
 1.6780	33.9170
 1.6790	33.8940
 1.6800	33.8690
 1.6810	33.8420
 1.6820	33.8120
 1.6830	33.7840
 1.6840	33.7560
 1.6850	33.7260
 1.6860	33.6950
 1.6870	33.6620
 1.6880	33.6280
 1.6890	33.5950
 1.6900	33.5630
 1.6910	33.5320
 1.6920	33.5010
 1.6930	33.4710
 1.6940	33.4410
 1.6950	33.4110
 1.6960	33.3820
 1.6970	33.3520
 1.6980	33.3220
 1.6990	33.2920
 1.7000	33.2620
 1.7010	33.2330
 1.7020	33.2030
 1.7030	33.1730
 1.7040	33.1420
 1.7050	33.1120
 1.7060	33.0810
 1.7070	33.0490
 1.7080	33.0170
 1.7090	32.9860
 1.7100	32.9530
 1.7110	32.9190
 1.7120	32.8860
 1.7130	32.8510
 1.7140	32.8190
 1.7150	32.7880
 1.7160	32.7560
 1.7170	32.7250
 1.7180	32.6930
 1.7190	32.6630
 1.7200	32.6340
 1.7210	32.6060
 1.7220	32.5760
 1.7230	32.5450
 1.7240	32.5150
 1.7250	32.4860
 1.7260	32.4590
 1.7270	32.4350
 1.7280	32.4110
 1.7290	32.3890
 1.7300	32.3700
 1.7310	32.3510
 1.7320	32.3330
 1.7330	32.3170
 1.7340	32.3030
 1.7350	32.2880
 1.7360	32.2760
 1.7370	32.2590
 1.7380	32.2400
 1.7390	32.2210
 1.7400	32.2000
 1.7410	32.1770
 1.7420	32.1540
 1.7430	32.1260
 1.7440	32.0940
 1.7450	32.0620
 1.7460	32.0250
 1.7470	31.9890
 1.7480	31.9520
 1.7490	31.9150
 1.7500	31.8790
 1.7510	31.8420
 1.7520	31.8050
 1.7530	31.7670
 1.7540	31.7270
 1.7550	31.6860
 1.7560	31.6460
 1.7570	31.6070
 1.7580	31.5680
 1.7590	31.5290
 1.7600	31.4900
 1.7610	31.4530
 1.7620	31.4160
 1.7630	31.3820
 1.7640	31.3500
 1.7650	31.3170
 1.7660	31.2880
 1.7670	31.2670
 1.7680	31.2410
 1.7690	31.2150
 1.7700	31.1910
 1.7710	31.1650
 1.7720	31.1410
 1.7730	31.1210
 1.7740	31.1010
 1.7750	31.0810
 1.7760	31.0620
 1.7770	31.0460
 1.7780	31.0280
 1.7790	31.0110
 1.7800	30.9940
 1.7810	30.9760
 1.7820	30.9620
 1.7830	30.9500
 1.7840	30.9390
 1.7850	30.9310
 1.7860	30.9210
 1.7870	30.9110
 1.7880	30.9040
 1.7890	30.8960
 1.7900	30.8920
 1.7910	30.8880
 1.7920	30.8850
 1.7930	30.8830
 1.7940	30.8830
 1.7950	30.8830
 1.7960	30.8830
 1.7970	30.8840
 1.7980	30.8840
 1.7990	30.8850
 1.8000	30.8880
 1.8010	30.8910
 1.8020	30.8940
 1.8030	30.8970
 1.8040	30.8990
 1.8050	30.9020
 1.8060	30.9030
 1.8070	30.9050
 1.8080	30.9080
 1.8090	30.9100
 1.8100	30.9120
 1.8110	30.9150
 1.8120	30.9160
 1.8130	30.9180
 1.8140	30.9160
 1.8150	30.9140
 1.8160	30.9140
 1.8170	30.9100
 1.8180	30.9100
 1.8190	30.9120
 1.8200	30.9100
 1.8210	30.9070
 1.8220	30.9040
 1.8230	30.8990
 1.8240	30.8950
 1.8250	30.8930
 1.8260	30.8890
 1.8270	30.8820
 1.8280	30.8730
 1.8290	30.8650
 1.8300	30.8510
 1.8310	30.8740
 1.8320	30.8530
 1.8330	30.8310
 1.8340	30.8080
 1.8350	30.7900
 1.8360	30.7710
 1.8370	30.7480
 1.8380	30.7230
 1.8390	30.6890
 1.8400	30.6490
 1.8410	30.6070
 1.8420	30.5590
 1.8430	30.5070
 1.8440	30.4530
 1.8450	30.3940
 1.8460	30.3320
 1.8470	30.2640
 1.8480	30.1900
 1.8490	30.1080
 1.8500	30.0200
 1.8510	29.9260
 1.8520	29.8240
 1.8530	29.7090
 1.8540	29.5900
 1.8550	29.4600
 1.8560	29.3180
 1.8570	29.1700
 1.8580	29.0040
 1.8590	28.8280
 1.8600	28.6400
 1.8610	28.4390
 1.8620	28.2210
 1.8630	27.9950
 1.8640	27.7520
 1.8650	27.4930
 1.8660	27.2200
 1.8670	26.9240
 1.8680	26.6100
 1.8690	26.2790
 1.8700	25.9280
 1.8710	25.5570
 1.8720	25.1740
 1.8730	24.7740
 1.8740	24.3550
 1.8750	23.9210
 1.8760	23.4690
 1.8770	23.0070
 1.8780	22.5350
 1.8790	22.0490
 1.8800	21.5610
 1.8810	21.0660
 1.8820	20.5610
 1.8830	20.0480
 1.8840	19.5350
 1.8850	19.0180
 1.8860	18.5010
 1.8870	17.9900
 1.8880	17.4830
 1.8890	16.9880
 1.8900	16.5050
 1.8910	16.0390
 1.8920	15.5840
 1.8930	15.1500
 1.8940	14.7320
 1.8950	14.3360
 1.8960	13.9630
 1.8970	13.6150
 1.8980	13.2880
 1.8990	12.9830
 1.9000	12.6990
 1.9010	12.4360
 1.9020	12.1940
 1.9030	11.9740
 1.9040	11.7780
 1.9050	11.5990
 1.9060	11.4370
 1.9070	11.2900
 1.9080	11.1580
 1.9090	11.0400
 1.9100	10.9360
 1.9110	10.8420
 1.9120	10.7640
 1.9130	10.6900
 1.9140	10.6260
 1.9150	10.5690
 1.9160	10.5200
 1.9170	10.4790
 1.9180	10.4420
 1.9190	10.4130
 1.9200	10.3900
 1.9210	10.3700
 1.9220	10.3550
 1.9230	10.3480
 1.9240	10.3420
 1.9250	10.3390
 1.9260	10.3390
 1.9270	10.3440
 1.9280	10.3520
 1.9290	10.3620
 1.9300	10.3760
 1.9310	10.3910
 1.9320	10.4090
 1.9330	10.4320
 1.9340	10.4590
 1.9350	10.4870
 1.9360	10.5170
 1.9370	10.5500
 1.9380	10.5840
 1.9390	10.6240
 1.9400	10.6640
 1.9410	10.7080
 1.9420	10.7530
 1.9430	10.7980
 1.9440	10.8450
 1.9450	10.8930
 1.9460	10.9450
 1.9470	10.9980
 1.9480	11.0540
 1.9490	11.1130
 1.9500	11.1740
 1.9510	11.2360
 1.9520	11.2970
 1.9530	11.3570
 1.9540	11.4210
 1.9550	11.4860
 1.9560	11.5520
 1.9570	11.6200
 1.9580	11.6920
 1.9590	11.7630
 1.9600	11.8350
 1.9610	11.9070
 1.9620	11.9800
 1.9630	12.0530
 1.9640	12.1270
 1.9650	12.2010
 1.9660	12.2760
 1.9670	12.3570
 1.9680	12.4370
 1.9690	12.5190
 1.9700	12.6000
 1.9710	12.6820
 1.9720	12.7650
 1.9730	12.8480
 1.9740	12.9330
 1.9750	13.0200
 1.9760	13.1110
 1.9770	13.2000
 1.9780	13.2890
 1.9790	13.3760
 1.9800	13.4600
 1.9810	13.5480
 1.9820	13.6360
 1.9830	13.7270
 1.9840	13.8220
 1.9850	13.9160
 1.9860	14.0100
 1.9870	14.1060
 1.9880	14.2020
 1.9890	14.2980
 1.9900	14.3920
 1.9910	14.4860
 1.9920	14.5780
 1.9930	14.6670
 1.9940	14.7590
 1.9950	14.8520
 1.9960	14.9450
 1.9970	15.0400
 1.9980	15.1340
 1.9990	15.2270
 2.0000	15.3210
 2.0010	15.4140
 2.0020	15.5080
 2.0030	15.6000
 2.0040	15.6910
 2.0050	15.7810
 2.0060	15.8690
 2.0070	15.9590
 2.0080	16.0510
 2.0090	16.1410
 2.0100	16.2320
 2.0110	16.3200
 2.0120	16.4050
 2.0130	16.4880
 2.0140	16.5720
 2.0150	16.6530
 2.0160	16.7350
 2.0170	16.8170
 2.0180	16.8970
 2.0190	16.9760
 2.0200	17.0540
 2.0210	17.1290
 2.0220	17.2050
 2.0230	17.2830
 2.0240	17.3580
 2.0250	17.4330
 2.0260	17.5050
 2.0270	17.5730
 2.0280	17.6400
 2.0290	17.7050
 2.0300	17.7650
 2.0310	17.8270
 2.0320	17.8900
 2.0330	17.9500
 2.0340	18.0110
 2.0350	18.0690
 2.0360	18.1260
 2.0370	18.1810
 2.0380	18.2330
 2.0390	18.2850
 2.0400	18.3360
 2.0410	18.3860
 2.0420	18.4340
 2.0430	18.4830
 2.0440	18.5300
 2.0450	18.5750
 2.0460	18.6220
 2.0470	18.6700
 2.0480	18.7170
 2.0490	18.7660
 2.0500	18.8120
 2.0510	18.8550
 2.0520	18.8990
 2.0530	18.9420
 2.0540	18.9850
 2.0550	19.0280
 2.0560	19.0710
 2.0570	19.1170
 2.0580	19.1620
 2.0590	19.2110
 2.0600	19.2640
 2.0610	19.3130
 2.0620	19.3630
 2.0630	19.4120
 2.0640	19.4610
 2.0650	19.5090
 2.0660	19.5570
 2.0670	19.6070
 2.0680	19.6560
 2.0690	19.7060
 2.0700	19.7560
 2.0710	19.8070
 2.0720	19.8590
 2.0730	19.9070
 2.0740	19.9570
 2.0750	20.0070
 2.0760	20.0560
 2.0770	20.1040
 2.0780	20.1520
 2.0790	20.2020
 2.0800	20.2500
 2.0810	20.2980
 2.0820	20.3440
 2.0830	20.3850
 2.0840	20.4300
 2.0850	20.4750
 2.0860	20.5210
 2.0870	20.5700
 2.0880	20.6180
 2.0890	20.6650
 2.0900	20.7110
 2.0910	20.7590
 2.0920	20.8090
 2.0930	20.8570
 2.0940	20.9050
 2.0950	20.9510
 2.0960	20.9940
 2.0970	21.0360
 2.0980	21.0770
 2.0990	21.1200
 2.1000	21.1640
 2.1010	21.2080
 2.1020	21.2530
 2.1030	21.2970
 2.1040	21.3400
 2.1050	21.3810
 2.1060	21.4220
 2.1070	21.4610
 2.1080	21.5030
 2.1090	21.5440
 2.1100	21.5870
 2.1110	21.6330
 2.1120	21.6760
 2.1130	21.7160
 2.1140	21.7580
 2.1150	21.8010
 2.1160	21.8430
 2.1170	21.8900
 2.1180	21.9290
 2.1190	21.9580
 2.1200	21.9950
 2.1210	22.0330
 2.1220	22.0720
 2.1230	22.1110
 2.1240	22.1560
 2.1250	22.1970
 2.1260	22.2360
 2.1270	22.2760
 2.1280	22.3190
 2.1290	22.3560
 2.1300	22.3880
 2.1310	22.4210
 2.1320	22.4500
 2.1330	22.4800
 2.1340	22.5110
 2.1350	22.5390
 2.1360	22.5630
 2.1370	22.5900
 2.1380	22.6170
 2.1390	22.6450
 2.1400	22.6740
 2.1410	22.7050
 2.1420	22.7280
 2.1430	22.7470
 2.1440	22.7680
 2.1450	22.7850
 2.1460	22.8080
 2.1470	22.8370
 2.1480	22.8600
 2.1490	22.8820
 2.1500	22.9010
 2.1510	22.9170
 2.1520	22.9330
 2.1530	22.9480
 2.1540	22.9640
 2.1550	22.9810
 2.1560	22.9960
 2.1570	23.0130
 2.1580	23.0260
 2.1590	23.0360
 2.1600	23.0450
 2.1610	23.0520
 2.1620	23.0610
 2.1630	23.0710
 2.1640	23.0830
 2.1650	23.0940
 2.1660	23.1080
 2.1670	23.1180
 2.1680	23.1260
 2.1690	23.1360
 2.1700	23.1470
 2.1710	23.1570
 2.1720	23.1700
 2.1730	23.1820
 2.1740	23.1940
 2.1750	23.2060
 2.1760	23.2170
 2.1770	23.2300
 2.1780	23.2430
 2.1790	23.2550
 2.1800	23.2660
 2.1810	23.2800
 2.1820	23.2970
 2.1830	23.3100
 2.1840	23.3220
 2.1850	23.3370
 2.1860	23.3480
 2.1870	23.3520
 2.1880	23.3630
 2.1890	23.3780
 2.1900	23.3910
 2.1910	23.4040
 2.1920	23.4160
 2.1930	23.4260
 2.1940	23.4380
 2.1950	23.4530
 2.1960	23.4640
 2.1970	23.4750
 2.1980	23.4840
 2.1990	23.4890
 2.2000	23.4940
 2.2010	23.4950
 2.2020	23.4990
 2.2030	23.5040
 2.2040	23.5060
 2.2050	23.5080
 2.2060	23.5100
 2.2070	23.5110
 2.2080	23.5110
 2.2090	23.5070
 2.2100	23.5000
 2.2110	23.4960
 2.2120	23.4900
 2.2130	23.4840
 2.2140	23.4830
 2.2150	23.4760
 2.2160	23.4640
 2.2170	23.4530
 2.2180	23.4420
 2.2190	23.4290
 2.2200	23.4150
 2.2210	23.3980
 2.2220	23.3790
 2.2230	23.3590
 2.2240	23.3380
 2.2250	23.3140
 2.2260	23.2860
 2.2270	23.2590
 2.2280	23.2320
 2.2290	23.2000
 2.2300	23.1670
 2.2310	23.1300
 2.2320	23.0840
 2.2330	23.0330
 2.2340	22.9780
 2.2350	22.9180
 2.2360	22.8570
 2.2370	22.7910
 2.2380	22.7260
 2.2390	22.6580
 2.2400	22.5910
 2.2410	22.5200
 2.2420	22.4570
 2.2430	22.3950
 2.2440	22.3360
 2.2450	22.2810
 2.2460	22.2260
 2.2470	22.1730
 2.2480	22.1210
 2.2490	22.0690
 2.2500	22.0210
 2.2510	21.9760
 2.2520	21.9310
 2.2530	21.8920
 2.2540	21.8470
 2.2550	21.8010
 2.2560	21.7540
 2.2570	21.7050
 2.2580	21.6550
 2.2590	21.6030
 2.2600	21.5510
 2.2610	21.4980
 2.2620	21.4420
 2.2630	21.3860
 2.2640	21.3300
 2.2650	21.2720
 2.2660	21.2140
 2.2670	21.1610
 2.2680	21.1100
 2.2690	21.0600
 2.2700	21.0120
 2.2710	20.9670
 2.2720	20.9220
 2.2730	20.8790
 2.2740	20.8430
 2.2750	20.8050
 2.2760	20.7660
 2.2770	20.7280
 2.2780	20.6910
 2.2790	20.6540
 2.2800	20.6160
 2.2810	20.5810
 2.2820	20.5470
 2.2830	20.5150
 2.2840	20.4840
 2.2850	20.4570
 2.2860	20.4380
 2.2870	20.4090
 2.2880	20.3790
 2.2890	20.3460
 2.2900	20.3070
 2.2910	20.2640
 2.2920	20.2140
 2.2930	20.1670
 2.2940	20.1130
 2.2950	20.0630
 2.2960	20.0200
 2.2970	19.9730
 2.2980	19.9270
 2.2990	19.8770
 2.3000	19.8170
 2.3010	19.7540
 2.3020	19.6950
 2.3030	19.6330
 2.3040	19.5750
 2.3050	19.5220
 2.3060	19.4690
 2.3070	19.4150
 2.3080	19.3650
 2.3090	19.3180
 2.3100	19.2690
 2.3110	19.2240
 2.3120	19.1870
 2.3130	19.1570
 2.3140	19.1310
 2.3150	19.1110
 2.3160	19.0930
 2.3170	19.0800
 2.3180	19.0620
 2.3190	19.0410
 2.3200	19.0270
 2.3210	19.0150
 2.3220	19.0020
 2.3230	18.9990
 2.3240	18.9810
 2.3250	18.9500
 2.3260	18.9250
 2.3270	18.8980
 2.3280	18.8670
 2.3290	18.8370
 2.3300	18.8040
 2.3310	18.7640
 2.3320	18.7280
 2.3330	18.6970
 2.3340	18.6600
 2.3350	18.6190
 2.3360	18.5790
 2.3370	18.5360
 2.3380	18.4970
 2.3390	18.4620
 2.3400	18.4250
 2.3410	18.3890
 2.3420	18.3490
 2.3430	18.3050
 2.3440	18.2630
 2.3450	18.2190
 2.3460	18.1790
 2.3470	18.1400
 2.3480	18.1040
 2.3490	18.0730
 2.3500	18.0410
 2.3510	18.0080
 2.3520	17.9770
 2.3530	17.9460
 2.3540	17.9130
 2.3550	17.8870
 2.3560	17.8740
 2.3570	17.8630
 2.3580	17.8430
 2.3590	17.8150
 2.3600	17.7850
 2.3610	17.7520
 2.3620	17.7250
 2.3630	17.6980
 2.3640	17.6660
 2.3650	17.6370
 2.3660	17.6010
 2.3670	17.5630
 2.3680	17.5250
 2.3690	17.4790
 2.3700	17.4430
 2.3710	17.4140
 2.3720	17.3790
 2.3730	17.3370
 2.3740	17.2930
 2.3750	17.2500
 2.3760	17.2090
 2.3770	17.1800
 2.3780	17.1480
 2.3790	17.1150
 2.3800	17.0780
 2.3810	17.0300
 2.3820	16.9830
 2.3830	16.9320
 2.3840	16.8860
 2.3850	16.8490
 2.3860	16.8150
 2.3870	16.7840
 2.3880	16.7410
 2.3890	16.6890
 2.3900	16.6420
 2.3910	16.5880
 2.3920	16.5350
 2.3930	16.4930
 2.3940	16.4510
 2.3950	16.4210
 2.3960	16.3900
 2.3970	16.3440
 2.3980	16.2970
 2.3990	16.2480
 2.4000	16.2050
 2.4010	16.1690
 2.4020	16.1290
 2.4030	16.0670
 2.4040	16.0000
 2.4050	15.9570
 2.4060	15.9140
 2.4070	15.8810
 2.4080	15.8480
 2.4090	15.7970
 2.4100	15.7520
 2.4110	15.7020
 2.4120	15.6450
 2.4130	15.5990
 2.4140	15.5460
 2.4150	15.4940
 2.4160	15.4480
 2.4170	15.3830
 2.4180	15.3120
 2.4190	15.2580
 2.4200	15.2180
 2.4210	15.1840
 2.4220	15.1430
 2.4230	15.0880
 2.4240	15.0250
 2.4250	14.9600
 2.4260	14.9120
 2.4270	14.8730
 2.4280	14.8220
 2.4290	14.7680
 2.4300	14.7070
 2.4310	14.6580
 2.4320	14.6000
 2.4330	14.5500
 2.4340	14.5180
 2.4350	14.4470
 2.4360	14.3780
 2.4370	14.3170
 2.4380	14.2440
 2.4390	14.1830
 2.4400	14.1230
 2.4410	14.0580
 2.4420	14.0100
 2.4430	13.9700
 2.4440	13.9140
 2.4450	13.8640
 2.4460	13.7940
 2.4470	13.7000
 2.4480	13.6380
 2.4490	13.5800
 2.4500	13.5200
 2.4510	13.4880
 2.4520	13.4640
 2.4530	13.4130
 2.4540	13.3640
 2.4550	13.3200
 2.4560	13.2530
 2.4570	13.1970
 2.4580	13.1510
 2.4590	13.0910
 2.4600	13.0410
 2.4610	12.9840
 2.4620	12.9250
 2.4630	12.8860
 2.4640	12.8400
 2.4650	12.8080
 2.4660	12.7980
 2.4670	12.7550
 2.4680	12.6900
 2.4690	12.6380
 2.4700	12.5860
 2.4710	12.5390
 2.4720	12.5000
 2.4730	12.4680
 2.4740	12.4260
 2.4750	12.3710
 2.4760	12.3370
 2.4770	12.3170
 2.4780	12.2980
 2.4790	12.3020
 2.4800	12.2730
 2.4810	12.2190
 2.4820	12.1750
 2.4830	12.1330
 2.4840	12.1100
 2.4850	12.0630
 2.4860	12.0110
 2.4870	11.9940
 2.4880	11.9600
 2.4890	11.9700
 2.4900	12.0110
 2.4910	12.0040
 2.4920	11.9710
 2.4930	11.9210
 2.4940	11.8270
 2.4950	11.7470
 2.4960	11.7490
 2.4970	11.7540
 2.4980	11.7740
 2.4990	11.8250
 2.5000	11.8310
