Name: Acer paxii
Type: vegetation
Class: Tree
Genus: Acer
Species: paxii
Sample No.: JPL225
Owner: JPL
Wavelength Range: TIR
Origin: 34.12661; -118.11491; WGS84
Collection Date: 10/3/2016
Description: Samples were collected at the Huntington Garden in San Marino California as part of a JPL Subcontract studying HyTES imagery. Samples were taken to JPL and processed within 48 hours of collection. The same leaves were processed in the Nicolet and then measured using the ASD.
Measurement: Hemispherical reflectance
First Column: X
Second Column: Y
X Units: Wavelength (micrometer)
Y Units: Reflectance (percentage)
First X Value: 2.501
Last X Value: 15.387
Number of X Values: 1737
Additional Information: vegetation.tree.acer.paxii.tir.jpl225.jpl.nicolet.ancillary.txt

 2.5010	13.1910
 2.5030	13.0900
 2.5040	13.0180
 2.5050	13.0000
 2.5060	13.0100
 2.5070	12.9770
 2.5090	12.9520
 2.5100	12.8910
 2.5110	12.9780
 2.5120	13.0310
 2.5140	13.0470
 2.5150	12.9620
 2.5160	12.9090
 2.5170	12.9290
 2.5180	12.9770
 2.5200	12.9290
 2.5210	12.9770
 2.5220	12.9670
 2.5230	12.9490
 2.5250	12.8900
 2.5260	12.8630
 2.5270	12.8970
 2.5280	12.8940
 2.5300	12.8250
 2.5310	12.7930
 2.5320	12.7350
 2.5330	12.7440
 2.5340	12.7780
 2.5360	12.7980
 2.5370	12.7340
 2.5380	12.8290
 2.5390	12.8880
 2.5410	12.9390
 2.5420	12.9010
 2.5430	12.8460
 2.5440	12.8510
 2.5460	12.9330
 2.5470	12.9210
 2.5480	12.8700
 2.5490	12.8680
 2.5510	12.8870
 2.5520	12.7780
 2.5530	12.8210
 2.5540	12.8820
 2.5560	12.9400
 2.5570	12.9390
 2.5580	12.9400
 2.5590	12.8490
 2.5610	12.7110
 2.5620	12.5410
 2.5630	12.5410
 2.5650	12.5650
 2.5660	12.7120
 2.5670	12.8470
 2.5680	12.8390
 2.5700	12.6660
 2.5710	12.7080
 2.5720	12.8200
 2.5730	12.5990
 2.5750	12.5550
 2.5760	12.7650
 2.5770	12.6560
 2.5790	12.7280
 2.5800	12.7950
 2.5810	12.6950
 2.5820	12.7030
 2.5840	12.5390
 2.5850	12.4630
 2.5860	12.7400
 2.5880	12.6020
 2.5890	12.5610
 2.5900	12.6660
 2.5910	12.7780
 2.5930	12.6400
 2.5940	12.1860
 2.5950	11.7210
 2.5970	12.0530
 2.5980	12.5350
 2.5990	12.7270
 2.6010	12.6170
 2.6020	12.5150
 2.6030	12.4280
 2.6040	12.2340
 2.6060	11.9670
 2.6070	12.1020
 2.6080	12.3320
 2.6100	12.4240
 2.6110	12.3890
 2.6120	12.4420
 2.6140	12.4270
 2.6150	12.4140
 2.6160	12.1540
 2.6180	11.9720
 2.6190	12.1410
 2.6200	11.9650
 2.6220	11.8950
 2.6230	12.2510
 2.6240	12.3550
 2.6260	12.2830
 2.6270	11.9790
 2.6280	12.0590
 2.6300	12.0200
 2.6310	11.6600
 2.6320	11.7710
 2.6340	12.0080
 2.6350	12.0050
 2.6360	12.1230
 2.6380	12.1040
 2.6390	12.1240
 2.6400	12.1250
 2.6420	12.0380
 2.6430	11.9100
 2.6440	11.9730
 2.6460	11.8700
 2.6470	11.8340
 2.6480	11.8860
 2.6500	11.9480
 2.6510	11.9040
 2.6520	11.7680
 2.6540	11.6850
 2.6550	11.7480
 2.6570	11.6950
 2.6580	11.7750
 2.6590	11.6640
 2.6610	11.5640
 2.6620	11.5330
 2.6630	11.5760
 2.6650	11.2810
 2.6660	10.9950
 2.6670	10.9520
 2.6690	11.2070
 2.6700	10.9110
 2.6720	10.7100
 2.6730	11.2110
 2.6740	11.3540
 2.6760	11.1390
 2.6770	10.9270
 2.6780	10.9670
 2.6800	11.0780
 2.6810	11.2460
 2.6830	11.2900
 2.6840	11.2050
 2.6850	11.2400
 2.6870	11.1520
 2.6880	11.1930
 2.6900	11.3390
 2.6910	11.3950
 2.6920	11.2540
 2.6940	10.9890
 2.6950	10.8990
 2.6970	11.0900
 2.6980	11.2270
 2.6990	11.2900
 2.7010	11.1530
 2.7020	11.0620
 2.7040	11.1590
 2.7050	11.2180
 2.7060	11.1280
 2.7080	11.1190
 2.7090	10.9840
 2.7110	10.7580
 2.7120	10.7130
 2.7130	11.0780
 2.7150	11.2220
 2.7160	11.1950
 2.7180	11.0440
 2.7190	10.9650
 2.7210	10.6260
 2.7220	10.6840
 2.7230	10.8350
 2.7250	10.7070
 2.7260	10.8330
 2.7280	11.0700
 2.7290	11.1430
 2.7310	11.1750
 2.7320	11.1820
 2.7340	11.1440
 2.7350	10.9100
 2.7360	10.9150
 2.7380	10.9760
 2.7390	10.7100
 2.7410	10.4830
 2.7420	10.6410
 2.7440	10.9060
 2.7450	11.0450
 2.7470	11.0700
 2.7480	11.1390
 2.7490	11.1070
 2.7510	11.0680
 2.7520	10.9970
 2.7540	11.0070
 2.7550	10.7290
 2.7570	10.6590
 2.7580	10.9420
 2.7600	11.0480
 2.7610	10.9550
 2.7630	10.9030
 2.7640	10.8560
 2.7660	10.9350
 2.7670	10.9040
 2.7690	10.8730
 2.7700	10.8390
 2.7720	10.8260
 2.7730	10.9010
 2.7740	11.0190
 2.7760	11.0610
 2.7770	11.0760
 2.7790	11.0590
 2.7800	11.1120
 2.7820	11.0660
 2.7830	11.0510
 2.7850	11.0560
 2.7860	10.9480
 2.7880	10.7670
 2.7890	10.8630
 2.7910	11.0360
 2.7920	11.0910
 2.7940	11.0790
 2.7950	11.1270
 2.7970	11.0730
 2.7980	11.0800
 2.8000	11.0880
 2.8010	11.0610
 2.8030	10.9370
 2.8040	10.9150
 2.8060	10.9040
 2.8080	10.9950
 2.8090	11.0500
 2.8110	11.1040
 2.8120	11.0830
 2.8140	11.0630
 2.8150	11.0070
 2.8170	11.0710
 2.8180	11.1030
 2.8200	11.1240
 2.8210	11.1330
 2.8230	11.0630
 2.8240	11.0240
 2.8260	11.0630
 2.8270	11.0810
 2.8290	11.1620
 2.8310	11.1220
 2.8320	11.0600
 2.8340	11.0170
 2.8350	11.0880
 2.8370	11.0660
 2.8380	11.0610
 2.8400	11.1060
 2.8410	11.1740
 2.8430	11.1520
 2.8440	11.1830
 2.8460	11.1220
 2.8480	11.0840
 2.8490	11.0890
 2.8510	11.1120
 2.8520	11.1190
 2.8540	11.1820
 2.8550	11.1590
 2.8570	11.1570
 2.8590	11.1480
 2.8600	11.1410
 2.8620	11.1210
 2.8630	11.1830
 2.8650	11.1770
 2.8660	11.1800
 2.8680	11.1420
 2.8700	11.1620
 2.8710	11.1460
 2.8730	11.1780
 2.8740	11.1780
 2.8760	11.1940
 2.8780	11.1840
 2.8790	11.2610
 2.8810	11.2780
 2.8820	11.2410
 2.8840	11.1930
 2.8860	11.2170
 2.8870	11.1720
 2.8890	11.1960
 2.8900	11.2140
 2.8920	11.2460
 2.8940	11.2280
 2.8950	11.2690
 2.8970	11.2180
 2.8990	11.1940
 2.9000	11.1500
 2.9020	11.1880
 2.9030	11.2380
 2.9050	11.2060
 2.9070	11.1070
 2.9080	11.1830
 2.9100	11.2510
 2.9120	11.2550
 2.9130	11.1470
 2.9150	11.1390
 2.9160	11.1930
 2.9180	11.2710
 2.9200	11.2880
 2.9210	11.3280
 2.9230	11.2620
 2.9250	11.2290
 2.9260	11.2500
 2.9280	11.2830
 2.9300	11.2320
 2.9310	11.2860
 2.9330	11.2850
 2.9350	11.3010
 2.9360	11.2630
 2.9380	11.2930
 2.9400	11.3010
 2.9410	11.2880
 2.9430	11.2200
 2.9450	11.2140
 2.9460	11.2350
 2.9480	11.2730
 2.9500	11.2290
 2.9510	11.2140
 2.9530	11.2640
 2.9550	11.3310
 2.9560	11.2770
 2.9580	11.2590
 2.9600	11.2330
 2.9610	11.3260
 2.9630	11.3480
 2.9650	11.3090
 2.9670	11.3040
 2.9680	11.3880
 2.9700	11.4060
 2.9720	11.3480
 2.9730	11.3130
 2.9750	11.2910
 2.9770	11.2430
 2.9780	11.3010
 2.9800	11.3350
 2.9820	11.3540
 2.9840	11.2800
 2.9850	11.3330
 2.9870	11.3270
 2.9890	11.3010
 2.9900	11.3560
 2.9920	11.3910
 2.9940	11.2980
 2.9960	11.3160
 2.9970	11.3490
 2.9990	11.3760
 3.0010	11.3280
 3.0030	11.3490
 3.0040	11.3460
 3.0060	11.3690
 3.0080	11.3120
 3.0100	11.3270
 3.0110	11.3660
 3.0130	11.3810
 3.0150	11.3440
 3.0170	11.3480
 3.0180	11.3550
 3.0200	11.4000
 3.0220	11.3460
 3.0240	11.3350
 3.0250	11.3160
 3.0270	11.3630
 3.0290	11.3840
 3.0310	11.4320
 3.0320	11.3960
 3.0340	11.3950
 3.0360	11.4180
 3.0380	11.3930
 3.0400	11.3400
 3.0410	11.3260
 3.0430	11.3010
 3.0450	11.4070
 3.0470	11.4970
 3.0480	11.4530
 3.0500	11.3510
 3.0520	11.3560
 3.0540	11.3440
 3.0560	11.3510
 3.0570	11.3880
 3.0590	11.4040
 3.0610	11.3070
 3.0630	11.3030
 3.0650	11.3340
 3.0670	11.4130
 3.0680	11.3640
 3.0700	11.3250
 3.0720	11.3180
 3.0740	11.3300
 3.0760	11.3820
 3.0770	11.4420
 3.0790	11.4130
 3.0810	11.3750
 3.0830	11.3090
 3.0850	11.3690
 3.0870	11.3770
 3.0880	11.3410
 3.0900	11.3000
 3.0920	11.3390
 3.0940	11.3600
 3.0960	11.3350
 3.0980	11.3030
 3.1000	11.3580
 3.1010	11.4010
 3.1030	11.3730
 3.1050	11.3080
 3.1070	11.3620
 3.1090	11.3530
 3.1110	11.3640
 3.1130	11.3580
 3.1140	11.3620
 3.1160	11.3160
 3.1180	11.3340
 3.1200	11.3510
 3.1220	11.3940
 3.1240	11.3630
 3.1260	11.3370
 3.1280	11.3190
 3.1290	11.3390
 3.1310	11.3300
 3.1330	11.3560
 3.1350	11.3590
 3.1370	11.3870
 3.1390	11.3650
 3.1410	11.3230
 3.1430	11.2830
 3.1450	11.2950
 3.1470	11.2960
 3.1480	11.3250
 3.1500	11.3140
 3.1520	11.3370
 3.1540	11.3300
 3.1560	11.3320
 3.1580	11.2850
 3.1600	11.3270
 3.1620	11.3150
 3.1640	11.3170
 3.1660	11.3410
 3.1680	11.3440
 3.1700	11.2730
 3.1720	11.2800
 3.1730	11.2880
 3.1750	11.2920
 3.1770	11.2720
 3.1790	11.3130
 3.1810	11.3350
 3.1830	11.3700
 3.1850	11.3270
 3.1870	11.3150
 3.1890	11.3200
 3.1910	11.3340
 3.1930	11.2700
 3.1950	11.2810
 3.1970	11.2880
 3.1990	11.3030
 3.2010	11.2810
 3.2030	11.2960
 3.2050	11.3010
 3.2070	11.2850
 3.2090	11.2420
 3.2110	11.2940
 3.2130	11.3090
 3.2150	11.3210
 3.2170	11.2920
 3.2190	11.3490
 3.2210	11.3350
 3.2230	11.2790
 3.2250	11.2340
 3.2270	11.2810
 3.2290	11.3140
 3.2310	11.3080
 3.2330	11.2600
 3.2350	11.2470
 3.2370	11.1910
 3.2390	11.2250
 3.2410	11.2830
 3.2430	11.3230
 3.2450	11.3100
 3.2470	11.2630
 3.2490	11.2240
 3.2510	11.2400
 3.2530	11.2510
 3.2550	11.2680
 3.2570	11.2190
 3.2590	11.2340
 3.2610	11.2320
 3.2630	11.2010
 3.2650	11.1880
 3.2670	11.2360
 3.2700	11.2270
 3.2720	11.1820
 3.2740	11.1410
 3.2760	11.1800
 3.2780	11.1700
 3.2800	11.2000
 3.2820	11.1960
 3.2840	11.2300
 3.2860	11.2140
 3.2880	11.1940
 3.2900	11.1790
 3.2920	11.1950
 3.2940	11.1510
 3.2970	11.1180
 3.2990	11.1330
 3.3010	11.1840
 3.3030	11.1440
 3.3050	11.1280
 3.3070	11.1190
 3.3090	11.1190
 3.3110	11.0870
 3.3130	11.1200
 3.3160	11.1350
 3.3180	11.1350
 3.3200	11.0980
 3.3220	11.0840
 3.3240	11.0530
 3.3260	11.0670
 3.3280	11.1090
 3.3300	11.1130
 3.3330	11.0570
 3.3350	11.0330
 3.3370	10.9940
 3.3390	11.0070
 3.3410	11.0030
 3.3430	11.0200
 3.3450	10.9840
 3.3480	10.9660
 3.3500	10.9420
 3.3520	10.9340
 3.3540	10.9000
 3.3560	10.9300
 3.3580	10.9050
 3.3610	10.8950
 3.3630	10.8760
 3.3650	10.8500
 3.3670	10.8290
 3.3690	10.8220
 3.3720	10.7790
 3.3740	10.7980
 3.3760	10.8170
 3.3780	10.8220
 3.3800	10.7500
 3.3830	10.7590
 3.3850	10.7550
 3.3870	10.7350
 3.3890	10.6990
 3.3910	10.6840
 3.3940	10.6200
 3.3960	10.6080
 3.3980	10.5630
 3.4000	10.5130
 3.4030	10.4430
 3.4050	10.4460
 3.4070	10.4960
 3.4090	10.5600
 3.4110	10.5790
 3.4140	10.6560
 3.4160	10.7880
 3.4180	11.0470
 3.4200	11.4600
 3.4230	12.0680
 3.4250	12.7850
 3.4270	13.6060
 3.4300	14.1840
 3.4320	14.2420
 3.4340	13.8210
 3.4360	13.3740
 3.4390	13.0010
 3.4410	12.7240
 3.4430	12.5570
 3.4450	12.4900
 3.4480	12.3900
 3.4500	12.3200
 3.4520	12.2590
 3.4550	12.1870
 3.4570	12.1050
 3.4590	12.1220
 3.4620	12.0810
 3.4640	12.0380
 3.4660	12.0070
 3.4690	11.9830
 3.4710	11.9130
 3.4730	11.8590
 3.4760	11.7950
 3.4780	11.7470
 3.4800	11.6660
 3.4830	11.6380
 3.4850	11.6080
 3.4870	11.5640
 3.4900	11.4350
 3.4920	11.3740
 3.4940	11.3280
 3.4970	11.2590
 3.4990	11.1500
 3.5010	11.1480
 3.5040	11.2690
 3.5060	11.7130
 3.5080	12.6180
 3.5110	13.6440
 3.5130	13.9700
 3.5160	13.6730
 3.5180	13.2550
 3.5200	12.9470
 3.5230	12.7530
 3.5250	12.6060
 3.5280	12.4620
 3.5300	12.3880
 3.5320	12.3510
 3.5350	12.3350
 3.5370	12.2630
 3.5400	12.1790
 3.5420	12.1230
 3.5440	12.1190
 3.5470	12.0830
 3.5490	12.0820
 3.5520	12.0780
 3.5540	12.0520
 3.5570	11.9910
 3.5590	11.9760
 3.5610	11.9300
 3.5640	11.9100
 3.5660	11.9070
 3.5690	11.9130
 3.5710	11.9140
 3.5740	11.9460
 3.5760	11.9550
 3.5790	11.8950
 3.5810	11.8340
 3.5840	11.8670
 3.5860	11.8450
 3.5890	11.8380
 3.5910	11.8650
 3.5940	11.8620
 3.5960	11.8250
 3.5990	11.8590
 3.6010	11.8410
 3.6040	11.8300
 3.6060	11.8010
 3.6090	11.7790
 3.6110	11.7760
 3.6140	11.8260
 3.6160	11.8130
 3.6190	11.8040
 3.6210	11.7920
 3.6240	11.7790
 3.6260	11.7550
 3.6290	11.7520
 3.6310	11.7460
 3.6340	11.7760
 3.6360	11.7790
 3.6390	11.7720
 3.6410	11.7380
 3.6440	11.7120
 3.6470	11.6950
 3.6490	11.7340
 3.6520	11.7250
 3.6540	11.7470
 3.6570	11.7340
 3.6590	11.7110
 3.6620	11.6990
 3.6650	11.7040
 3.6670	11.6890
 3.6700	11.7310
 3.6720	11.7480
 3.6750	11.7730
 3.6780	11.7750
 3.6800	11.7370
 3.6830	11.6900
 3.6850	11.6980
 3.6880	11.7050
 3.6910	11.7040
 3.6930	11.6710
 3.6960	11.6750
 3.6990	11.6980
 3.7010	11.6950
 3.7040	11.6540
 3.7070	11.6680
 3.7090	11.6810
 3.7120	11.7120
 3.7150	11.7120
 3.7170	11.6980
 3.7200	11.6780
 3.7230	11.7030
 3.7250	11.7020
 3.7280	11.6780
 3.7310	11.6640
 3.7330	11.6810
 3.7360	11.6960
 3.7390	11.7450
 3.7410	11.7370
 3.7440	11.6810
 3.7470	11.6720
 3.7490	11.7200
 3.7520	11.6820
 3.7550	11.6690
 3.7580	11.6880
 3.7600	11.7150
 3.7630	11.7200
 3.7660	11.6950
 3.7690	11.7030
 3.7710	11.7200
 3.7740	11.6860
 3.7770	11.6990
 3.7790	11.6960
 3.7820	11.7020
 3.7850	11.7000
 3.7880	11.7090
 3.7910	11.7180
 3.7930	11.7230
 3.7960	11.6930
 3.7990	11.6840
 3.8020	11.7090
 3.8040	11.7220
 3.8070	11.6820
 3.8100	11.6920
 3.8130	11.7280
 3.8160	11.7420
 3.8180	11.7250
 3.8210	11.7210
 3.8240	11.7030
 3.8270	11.7160
 3.8300	11.7270
 3.8330	11.7250
 3.8350	11.7090
 3.8380	11.7100
 3.8410	11.7140
 3.8440	11.7460
 3.8470	11.7280
 3.8500	11.7190
 3.8520	11.7140
 3.8550	11.7170
 3.8580	11.7020
 3.8610	11.7120
 3.8640	11.7280
 3.8670	11.7650
 3.8700	11.7600
 3.8730	11.7320
 3.8760	11.6670
 3.8780	11.6710
 3.8810	11.7170
 3.8840	11.7590
 3.8870	11.7390
 3.8900	11.7400
 3.8930	11.7510
 3.8960	11.7450
 3.8990	11.7100
 3.9020	11.7130
 3.9050	11.7520
 3.9080	11.7690
 3.9110	11.7430
 3.9140	11.7370
 3.9170	11.7400
 3.9190	11.7530
 3.9220	11.7460
 3.9250	11.7650
 3.9280	11.7490
 3.9310	11.7450
 3.9340	11.7550
 3.9370	11.7720
 3.9400	11.7240
 3.9430	11.7230
 3.9460	11.7220
 3.9490	11.7260
 3.9520	11.7260
 3.9550	11.7520
 3.9580	11.7610
 3.9610	11.7700
 3.9640	11.7550
 3.9670	11.7570
 3.9700	11.7660
 3.9740	11.7460
 3.9770	11.7260
 3.9800	11.7560
 3.9830	11.7260
 3.9860	11.7290
 3.9890	11.7220
 3.9920	11.7350
 3.9950	11.7230
 3.9980	11.7200
 4.0010	11.7170
 4.0040	11.7380
 4.0070	11.7600
 4.0100	11.7720
 4.0140	11.7600
 4.0170	11.7660
 4.0200	11.7500
 4.0230	11.7230
 4.0260	11.7220
 4.0290	11.7420
 4.0320	11.7380
 4.0350	11.7680
 4.0390	11.7720
 4.0420	11.7430
 4.0450	11.7240
 4.0480	11.7290
 4.0510	11.7460
 4.0540	11.7560
 4.0570	11.7310
 4.0610	11.7460
 4.0640	11.7920
 4.0670	11.8140
 4.0700	11.7680
 4.0730	11.7220
 4.0770	11.7060
 4.0800	11.7450
 4.0830	11.7580
 4.0860	11.7720
 4.0890	11.7710
 4.0930	11.7370
 4.0960	11.7280
 4.0990	11.7560
 4.1020	11.7550
 4.1060	11.7460
 4.1090	11.7120
 4.1120	11.6990
 4.1150	11.7040
 4.1190	11.7280
 4.1220	11.7490
 4.1250	11.7310
 4.1290	11.7250
 4.1320	11.7310
 4.1350	11.7110
 4.1380	11.7210
 4.1420	11.7360
 4.1450	11.7310
 4.1480	11.7530
 4.1520	11.7580
 4.1550	11.7140
 4.1580	11.7120
 4.1620	11.7100
 4.1650	11.6980
 4.1680	11.6890
 4.1720	11.7040
 4.1750	11.7200
 4.1780	11.7480
 4.1820	11.7340
 4.1850	11.7280
 4.1890	11.7260
 4.1920	11.6980
 4.1950	11.6350
 4.1990	11.6060
 4.2020	11.5790
 4.2060	11.5590
 4.2090	11.4760
 4.2120	11.3760
 4.2160	11.3220
 4.2190	11.2230
 4.2230	11.1460
 4.2260	11.1800
 4.2300	11.0830
 4.2330	10.8870
 4.2360	10.7860
 4.2400	10.8800
 4.2430	11.0180
 4.2470	10.9920
 4.2500	10.9560
 4.2540	11.0590
 4.2570	11.2010
 4.2610	11.2890
 4.2640	11.1810
 4.2680	11.1240
 4.2710	11.0580
 4.2750	11.0190
 4.2780	11.0090
 4.2820	10.9600
 4.2850	10.9900
 4.2890	11.0590
 4.2930	11.0470
 4.2960	11.0650
 4.3000	11.1250
 4.3030	11.1790
 4.3070	11.1510
 4.3100	11.1930
 4.3140	11.2090
 4.3180	11.1950
 4.3210	11.2540
 4.3250	11.3110
 4.3280	11.3320
 4.3320	11.3410
 4.3360	11.3460
 4.3390	11.3580
 4.3430	11.4060
 4.3470	11.4290
 4.3500	11.4550
 4.3540	11.4810
 4.3580	11.4620
 4.3610	11.4600
 4.3650	11.4450
 4.3690	11.4420
 4.3720	11.4350
 4.3760	11.4630
 4.3800	11.4700
 4.3830	11.4590
 4.3870	11.4740
 4.3910	11.4930
 4.3940	11.4870
 4.3980	11.4810
 4.4020	11.4510
 4.4060	11.4210
 4.4090	11.4080
 4.4130	11.3990
 4.4170	11.4050
 4.4210	11.4110
 4.4240	11.4250
 4.4280	11.4390
 4.4320	11.4890
 4.4360	11.5100
 4.4400	11.4750
 4.4430	11.4270
 4.4470	11.4100
 4.4510	11.4240
 4.4550	11.4230
 4.4590	11.4270
 4.4630	11.4590
 4.4660	11.4530
 4.4700	11.4530
 4.4740	11.4470
 4.4780	11.4420
 4.4820	11.4670
 4.4860	11.4710
 4.4900	11.4480
 4.4930	11.4320
 4.4970	11.4250
 4.5010	11.4110
 4.5050	11.4220
 4.5090	11.4460
 4.5130	11.4070
 4.5170	11.3750
 4.5210	11.3820
 4.5250	11.3840
 4.5290	11.3800
 4.5330	11.3990
 4.5370	11.4410
 4.5410	11.4440
 4.5450	11.4050
 4.5490	11.3850
 4.5530	11.4150
 4.5570	11.4050
 4.5610	11.4080
 4.5650	11.4140
 4.5690	11.3840
 4.5730	11.3900
 4.5770	11.4340
 4.5810	11.4170
 4.5850	11.3680
 4.5890	11.3870
 4.5930	11.4040
 4.5970	11.3930
 4.6010	11.3820
 4.6050	11.3670
 4.6090	11.3540
 4.6130	11.3650
 4.6170	11.3770
 4.6220	11.4110
 4.6260	11.4320
 4.6300	11.4130
 4.6340	11.3900
 4.6380	11.3680
 4.6420	11.3580
 4.6460	11.4080
 4.6510	11.4290
 4.6550	11.3970
 4.6590	11.3700
 4.6630	11.3940
 4.6670	11.4080
 4.6720	11.3990
 4.6760	11.3900
 4.6800	11.3820
 4.6840	11.3790
 4.6880	11.3790
 4.6930	11.3540
 4.6970	11.3840
 4.7010	11.4210
 4.7050	11.4180
 4.7100	11.3700
 4.7140	11.3610
 4.7180	11.3490
 4.7230	11.3270
 4.7270	11.3340
 4.7310	11.3690
 4.7360	11.3890
 4.7400	11.3910
 4.7440	11.3820
 4.7490	11.3930
 4.7530	11.3930
 4.7570	11.3900
 4.7620	11.3790
 4.7660	11.3670
 4.7700	11.3710
 4.7750	11.3700
 4.7790	11.3610
 4.7840	11.3650
 4.7880	11.3500
 4.7920	11.3270
 4.7970	11.3270
 4.8010	11.3360
 4.8060	11.3120
 4.8100	11.2770
 4.8150	11.2830
 4.8190	11.3200
 4.8240	11.2740
 4.8280	11.2670
 4.8330	11.2920
 4.8370	11.3250
 4.8420	11.3470
 4.8460	11.3650
 4.8510	11.3440
 4.8550	11.3250
 4.8600	11.3150
 4.8640	11.3310
 4.8690	11.3240
 4.8740	11.3120
 4.8780	11.2930
 4.8830	11.3210
 4.8870	11.3310
 4.8920	11.3080
 4.8970	11.2970
 4.9010	11.3030
 4.9060	11.2960
 4.9100	11.2900
 4.9150	11.2890
 4.9200	11.2870
 4.9240	11.2680
 4.9290	11.2680
 4.9340	11.2800
 4.9390	11.3000
 4.9430	11.2660
 4.9480	11.2510
 4.9530	11.2540
 4.9570	11.2440
 4.9620	11.2440
 4.9670	11.3030
 4.9720	11.3260
 4.9760	11.3160
 4.9810	11.2890
 4.9860	11.3050
 4.9910	11.3190
 4.9960	11.3150
 5.0000	11.3000
 5.0050	11.2850
 5.0100	11.2810
 5.0150	11.2930
 5.0200	11.2470
 5.0250	11.2250
 5.0300	11.2490
 5.0340	11.2790
 5.0390	11.2730
 5.0440	11.2580
 5.0490	11.2200
 5.0540	11.2220
 5.0590	11.2490
 5.0640	11.2880
 5.0690	11.2670
 5.0740	11.2940
 5.0790	11.2970
 5.0840	11.2630
 5.0890	11.2770
 5.0940	11.3010
 5.0990	11.3140
 5.1040	11.3270
 5.1090	11.3150
 5.1140	11.3100
 5.1190	11.3130
 5.1240	11.3330
 5.1290	11.3160
 5.1340	11.2930
 5.1390	11.2690
 5.1440	11.2370
 5.1490	11.2450
 5.1550	11.3420
 5.1600	11.3230
 5.1650	11.3160
 5.1700	11.3220
 5.1750	11.3070
 5.1800	11.2840
 5.1850	11.3030
 5.1910	11.3210
 5.1960	11.3300
 5.2010	11.3130
 5.2060	11.3040
 5.2110	11.2180
 5.2170	11.1960
 5.2220	11.2540
 5.2270	11.2810
 5.2330	11.3020
 5.2380	11.3120
 5.2430	11.3200
 5.2480	11.3310
 5.2540	11.3430
 5.2590	11.3480
 5.2640	11.3310
 5.2700	11.3210
 5.2750	11.3040
 5.2800	11.3380
 5.2860	11.3390
 5.2910	11.2660
 5.2970	11.2710
 5.3020	11.3250
 5.3080	11.2980
 5.3130	11.2820
 5.3180	11.2740
 5.3240	11.3240
 5.3290	11.3420
 5.3350	11.3560
 5.3400	11.3790
 5.3460	11.2960
 5.3510	11.1400
 5.3570	11.1880
 5.3620	11.2730
 5.3680	11.2870
 5.3740	11.2880
 5.3790	11.2940
 5.3850	11.3220
 5.3900	11.3380
 5.3960	11.2690
 5.4010	11.2760
 5.4070	11.2620
 5.4130	11.2560
 5.4180	11.1320
 5.4240	10.9880
 5.4300	11.1290
 5.4350	11.2410
 5.4410	11.2300
 5.4470	11.2490
 5.4530	11.2600
 5.4580	11.1990
 5.4640	11.0560
 5.4700	11.1360
 5.4760	11.1940
 5.4810	11.1650
 5.4870	11.2180
 5.4930	11.2500
 5.4990	11.2400
 5.5050	11.2340
 5.5110	11.2420
 5.5160	11.2080
 5.5220	11.1570
 5.5280	11.2020
 5.5340	11.2350
 5.5400	11.2500
 5.5460	11.1900
 5.5520	11.1200
 5.5580	11.1120
 5.5640	11.1510
 5.5700	11.1520
 5.5760	11.0210
 5.5820	10.9230
 5.5880	11.1010
 5.5940	11.1860
 5.6000	11.1770
 5.6060	11.1600
 5.6120	11.1840
 5.6180	11.1420
 5.6240	11.2000
 5.6300	11.1470
 5.6360	10.9590
 5.6420	10.7130
 5.6490	10.8750
 5.6550	10.9880
 5.6610	11.0780
 5.6670	11.2050
 5.6730	11.0850
 5.6800	11.0350
 5.6860	11.1180
 5.6920	11.0310
 5.6980	11.1120
 5.7050	11.0840
 5.7110	10.8750
 5.7170	10.8830
 5.7230	11.0250
 5.7300	11.0880
 5.7360	11.0600
 5.7420	11.0120
 5.7490	10.9400
 5.7550	11.0450
 5.7620	10.8470
 5.7680	10.4530
 5.7740	10.7990
 5.7810	11.0730
 5.7870	11.1520
 5.7940	11.1710
 5.8000	11.1860
 5.8070	11.1860
 5.8130	11.0830
 5.8200	10.6650
 5.8260	10.5600
 5.8330	10.8410
 5.8390	11.0980
 5.8460	11.2040
 5.8530	11.1780
 5.8590	11.0850
 5.8660	11.0900
 5.8730	11.0930
 5.8790	10.5910
 5.8860	10.5240
 5.8930	10.7320
 5.8990	10.6510
 5.9060	11.1510
 5.9130	11.3680
 5.9190	11.3450
 5.9260	11.2480
 5.9330	10.7850
 5.9400	10.5380
 5.9470	11.1260
 5.9530	11.3810
 5.9600	11.4130
 5.9670	11.1470
 5.9740	11.1510
 5.9810	11.2350
 5.9880	11.0870
 5.9950	11.1160
 6.0020	11.4190
 6.0090	11.4180
 6.0160	11.3400
 6.0230	11.4170
 6.0300	11.5000
 6.0370	11.4110
 6.0440	10.8660
 6.0510	10.3240
 6.0580	10.9560
 6.0650	11.2880
 6.0720	11.0360
 6.0790	11.1090
 6.0860	11.4520
 6.0930	11.5260
 6.1010	11.5070
 6.1080	11.2210
 6.1150	10.8960
 6.1220	11.1590
 6.1290	11.4810
 6.1370	11.4430
 6.1440	11.3740
 6.1510	11.3590
 6.1580	11.2980
 6.1660	11.3480
 6.1730	11.4910
 6.1800	11.1590
 6.1880	10.9890
 6.1950	11.3070
 6.2030	11.5110
 6.2100	11.4570
 6.2180	11.4910
 6.2250	11.5080
 6.2320	11.5130
 6.2400	11.4680
 6.2480	11.5310
 6.2550	11.5760
 6.2630	11.5920
 6.2700	11.4840
 6.2780	11.4890
 6.2850	11.4880
 6.2930	11.5050
 6.3010	11.4610
 6.3080	11.4860
 6.3160	11.4960
 6.3240	11.5540
 6.3310	11.5160
 6.3390	11.2100
 6.3470	10.9450
 6.3550	11.3330
 6.3620	11.4160
 6.3700	11.2200
 6.3780	11.2720
 6.3860	11.4360
 6.3940	11.3810
 6.4020	11.2420
 6.4100	10.5720
 6.4180	10.3180
 6.4260	10.8470
 6.4340	11.1140
 6.4420	11.2300
 6.4500	11.3190
 6.4580	11.2970
 6.4660	11.3140
 6.4740	11.1290
 6.4820	10.9080
 6.4900	10.5030
 6.4980	10.5120
 6.5060	11.0300
 6.5140	11.2130
 6.5230	11.0620
 6.5310	11.2740
 6.5390	11.2840
 6.5470	11.2010
 6.5560	11.0840
 6.5640	11.0400
 6.5720	10.6840
 6.5800	10.7680
 6.5890	10.9180
 6.5970	10.9450
 6.6060	11.0360
 6.6140	11.0840
 6.6230	10.9670
 6.6310	10.5670
 6.6390	10.2130
 6.6480	10.7100
 6.6570	11.1540
 6.6650	11.1480
 6.6740	10.9390
 6.6820	10.8090
 6.6910	10.9500
 6.7000	11.1210
 6.7080	10.9080
 6.7170	10.8490
 6.7260	10.9290
 6.7340	11.0470
 6.7430	11.0510
 6.7520	11.0400
 6.7610	10.9800
 6.7690	10.8670
 6.7780	10.7730
 6.7870	10.9360
 6.7960	11.1740
 6.8050	11.4370
 6.8140	11.3910
 6.8230	11.2160
 6.8320	11.3760
 6.8410	11.8810
 6.8500	11.6920
 6.8590	11.0920
 6.8680	10.8570
 6.8770	11.3410
 6.8860	11.4960
 6.8960	11.5380
 6.9050	11.3890
 6.9140	11.4300
 6.9230	11.5120
 6.9320	11.5510
 6.9420	11.4940
 6.9510	11.3950
 6.9600	11.1170
 6.9700	11.3230
 6.9790	11.4980
 6.9880	11.4930
 6.9980	11.4560
 7.0070	11.5880
 7.0170	11.5350
 7.0260	11.5360
 7.0360	11.4330
 7.0450	11.1860
 7.0550	11.2610
 7.0650	11.5330
 7.0740	11.5840
 7.0840	11.5750
 7.0940	11.5070
 7.1030	11.5400
 7.1130	11.4540
 7.1230	11.4770
 7.1330	11.4970
 7.1420	11.4450
 7.1520	11.3150
 7.1620	11.2730
 7.1720	11.1250
 7.1820	11.2360
 7.1920	11.2530
 7.2020	11.2540
 7.2120	11.2770
 7.2220	11.4570
 7.2320	11.4900
 7.2420	11.5250
 7.2520	11.4770
 7.2620	11.5490
 7.2730	11.4510
 7.2830	11.4500
 7.2930	11.4440
 7.3030	11.4880
 7.3140	11.4410
 7.3240	11.4440
 7.3340	11.3680
 7.3450	11.4220
 7.3550	11.4300
 7.3660	11.4360
 7.3760	11.4210
 7.3870	11.5260
 7.3970	11.4770
 7.4080	11.4930
 7.4180	11.4990
 7.4290	11.5160
 7.4400	11.4400
 7.4500	11.4510
 7.4610	11.3570
 7.4720	11.3990
 7.4830	11.4480
 7.4930	11.5020
 7.5040	11.4360
 7.5150	11.4760
 7.5260	11.4760
 7.5370	11.4940
 7.5480	11.4080
 7.5590	11.4310
 7.5700	11.4160
 7.5810	11.4390
 7.5920	11.3830
 7.6030	11.4590
 7.6140	11.4400
 7.6260	11.4730
 7.6370	11.4360
 7.6480	11.4770
 7.6590	11.4000
 7.6710	11.4070
 7.6820	11.3680
 7.6940	11.3920
 7.7050	11.3590
 7.7160	11.4130
 7.7280	11.3910
 7.7390	11.4190
 7.7510	11.3640
 7.7630	11.3850
 7.7740	11.3340
 7.7860	11.3530
 7.7980	11.3230
 7.8090	11.3280
 7.8210	11.2640
 7.8330	11.2940
 7.8450	11.2510
 7.8570	11.3000
 7.8690	11.2910
 7.8810	11.3090
 7.8930	11.2530
 7.9050	11.3140
 7.9170	11.2630
 7.9290	11.2760
 7.9410	11.2610
 7.9530	11.3380
 7.9650	11.2980
 7.9780	11.3450
 7.9900	11.3230
 8.0020	11.3970
 8.0150	11.3360
 8.0270	11.3820
 8.0390	11.3660
 8.0520	11.4450
 8.0640	11.4230
 8.0770	11.4820
 8.0900	11.4100
 8.1020	11.4690
 8.1150	11.4370
 8.1280	11.4660
 8.1400	11.4100
 8.1530	11.4820
 8.1660	11.5050
 8.1790	11.5700
 8.1920	11.5050
 8.2050	11.5600
 8.2180	11.4810
 8.2310	11.4960
 8.2440	11.4050
 8.2570	11.4550
 8.2700	11.4600
 8.2830	11.5870
 8.2970	11.5750
 8.3100	11.6460
 8.3230	11.5270
 8.3370	11.5760
 8.3500	11.5390
 8.3640	11.6540
 8.3770	11.6030
 8.3910	11.6180
 8.4040	11.5940
 8.4180	11.6800
 8.4320	11.6250
 8.4450	11.6800
 8.4590	11.6250
 8.4730	11.6990
 8.4870	11.6510
 8.5010	11.6580
 8.5150	11.5920
 8.5290	11.6910
 8.5430	11.6840
 8.5570	11.8110
 8.5710	11.7970
 8.5850	11.8710
 8.5990	11.7480
 8.6140	11.7750
 8.6280	11.7790
 8.6420	11.9240
 8.6570	11.8890
 8.6710	11.9450
 8.6860	11.9100
 8.7000	12.0110
 8.7150	11.9100
 8.7300	11.9760
 8.7440	11.9520
 8.7590	12.0770
 8.7740	11.9820
 8.7890	12.0130
 8.8040	12.0450
 8.8190	12.1850
 8.8340	12.1760
 8.8490	12.2690
 8.8640	12.2020
 8.8790	12.2370
 8.8940	12.1710
 8.9100	12.2690
 8.9250	12.2390
 8.9400	12.3630
 8.9560	12.3290
 8.9710	12.3410
 8.9870	12.2280
 9.0020	12.3450
 9.0180	12.2750
 9.0340	12.3460
 9.0500	12.2250
 9.0650	12.2640
 9.0810	12.2310
 9.0970	12.3240
 9.1130	12.2870
 9.1290	12.3530
 9.1450	12.2680
 9.1620	12.4110
 9.1780	12.3720
 9.1940	12.3690
 9.2100	12.2380
 9.2270	12.3340
 9.2430	12.2600
 9.2600	12.2390
 9.2760	12.1240
 9.2930	12.2970
 9.3100	12.2890
 9.3260	12.2860
 9.3430	12.1540
 9.3600	12.2590
 9.3770	12.2090
 9.3940	12.3130
 9.4110	12.2400
 9.4280	12.2600
 9.4450	12.0710
 9.4620	12.1610
 9.4800	12.1610
 9.4970	12.2830
 9.5150	12.1600
 9.5320	12.2010
 9.5500	12.1360
 9.5670	12.2130
 9.5850	12.1420
 9.6030	12.2070
 9.6200	12.1660
 9.6380	12.3370
 9.6560	12.2560
 9.6740	12.3160
 9.6920	12.2610
 9.7110	12.3510
 9.7290	12.1910
 9.7470	12.1610
 9.7650	12.0640
 9.7840	12.1400
 9.8020	12.0550
 9.8210	12.2280
 9.8390	12.2030
 9.8580	12.2010
 9.8770	12.0830
 9.8960	12.1590
 9.9150	12.0470
 9.9340	12.0850
 9.9530	12.0090
 9.9720	12.0650
 9.9910	11.9790
10.0100	11.9900
10.0300	11.8680
10.0490	11.9370
10.0690	11.8690
10.0880	11.9340
10.1080	11.8370
10.1280	11.9540
10.1480	11.8290
10.1670	11.8230
10.1870	11.7670
10.2070	11.8460
10.2280	11.6960
10.2480	11.7720
10.2680	11.6800
10.2890	11.7130
10.3090	11.5990
10.3300	11.6890
10.3500	11.6280
10.3710	11.7290
10.3920	11.6880
10.4120	11.7330
10.4330	11.6140
10.4540	11.6620
10.4760	11.5850
10.4970	11.6870
10.5180	11.5290
10.5390	11.6350
10.5610	11.5720
10.5820	11.6500
10.6040	11.6030
10.6260	11.6830
10.6480	11.5510
10.6700	11.5460
10.6920	11.4040
10.7140	11.4840
10.7360	11.4300
10.7580	11.5860
10.7800	11.4900
10.8030	11.5290
10.8250	11.4470
10.8480	11.4920
10.8710	11.3480
10.8940	11.4810
10.9170	11.4360
10.9400	11.4540
10.9630	11.2750
10.9860	11.3570
11.0090	11.2830
11.0330	11.3890
11.0560	11.2660
11.0800	11.3560
11.1040	11.3070
11.1270	11.3970
11.1510	11.2490
11.1750	11.2880
11.2000	11.2420
11.2240	11.4130
11.2480	11.3180
11.2730	11.3860
11.2970	11.3200
11.3220	11.4170
11.3470	11.2880
11.3720	11.3430
11.3970	11.2070
11.4220	11.3600
11.4470	11.3500
11.4720	11.4160
11.4980	11.3350
11.5230	11.5120
11.5490	11.3520
11.5750	11.4020
11.6000	11.2750
11.6260	11.3760
11.6530	11.2870
11.6790	11.4020
11.7050	11.3050
11.7320	11.4020
11.7580	11.2870
11.7850	11.3840
11.8120	11.2520
11.8390	11.2990
11.8660	11.1940
11.8930	11.3480
11.9200	11.3050
11.9480	11.3660
11.9760	11.1810
12.0030	11.3350
12.0310	11.2330
12.0590	11.3700
12.0870	11.2550
12.1150	11.3350
12.1440	11.2360
12.1720	11.3900
12.2010	11.2410
12.2300	11.3610
12.2590	11.2920
12.2880	11.4930
12.3170	11.3770
12.3460	11.5590
12.3760	11.4000
12.4050	11.5570
12.4350	11.3830
12.4650	11.5020
12.4950	11.3970
12.5250	11.6300
12.5550	11.4940
12.5860	11.6000
12.6170	11.5600
12.6470	11.7980
12.6780	11.6320
12.7090	11.7070
12.7410	11.5360
12.7720	11.6290
12.8030	11.5160
12.8350	11.7030
12.8670	11.5820
12.8990	11.7180
12.9310	11.5220
12.9640	11.6150
12.9960	11.5080
13.0290	11.6880
13.0610	11.6000
13.0940	11.7330
13.1280	11.5310
13.1610	11.6690
13.1940	11.4940
13.2280	11.7210
13.2620	11.7240
13.2960	11.8350
13.3300	11.6380
13.3640	11.7830
13.3990	11.6220
13.4340	11.7660
13.4690	11.5600
13.5040	11.7390
13.5390	11.6410
13.5740	11.7860
13.6100	11.5860
13.6460	11.8920
13.6820	11.9760
13.7180	12.2380
13.7540	12.0010
13.7910	12.1080
13.8280	11.9120
13.8650	12.2820
13.9020	12.3680
13.9390	12.5870
13.9770	12.2770
14.0150	12.3210
14.0530	11.9990
14.0910	12.0410
14.1290	11.8210
14.1680	12.1690
14.2070	12.0720
14.2460	12.1800
14.2850	11.9820
14.3240	12.2010
14.3640	12.0340
14.4040	12.2790
14.4440	12.0450
14.4840	12.2460
14.5250	12.0190
14.5660	12.2300
14.6070	11.9470
14.6480	12.3280
14.6900	12.0760
14.7310	12.2720
14.7730	12.0610
14.8150	12.3710
14.8580	12.0060
14.9010	11.9570
14.9440	10.8710
14.9870	11.2240
15.0300	11.6060
15.0740	11.9740
15.1180	11.7390
15.1620	12.0810
15.2060	11.8510
15.2510	12.2420
15.2960	11.9680
15.3410	12.4150
15.3870	11.9260
