Name: Baccharis pilularis 3
Type: vegetation
Class: Shrub
Genus: Baccharis
Species: pilularis
Sample No.: VH198
Owner: UCSB
Wavelength Range: VSWIR
Origin: 34.4185; -119.8457; WGS84
Collection Date: 10/13/2013
Description: Samples were collected as part of the HyspIRI Airborne Campaign. 48 individual plants were sampled in three times in 2013 - spring  summer  and fall. The name of the sample includes a 1  2  or 3 which references a different individual of the species. Samples were taken to JPL and processed within 48 hours of collection. The same leaves were processed in the Nicolet and then measured using the ASD.
Measurement: Bidirectional reflectance
First Column: X
Second Column: Y
X Units: Wavelength (micrometers)
Y Units: Reflectance (percentage)
First X Value: 0.35
Last X Value: 2.5
Number of X Values: 2151
Additional Information: vegetation.shrub.baccharis.pilularis.vswir.vh198.ucsb.asd.ancillary.txt

 0.3500	 6.1730
 0.3510	 6.4590
 0.3520	 6.4400
 0.3530	 6.4020
 0.3540	 6.4810
 0.3550	 6.0270
 0.3560	 6.0900
 0.3570	 6.5010
 0.3580	 6.5230
 0.3590	 6.4310
 0.3600	 6.3180
 0.3610	 6.2680
 0.3620	 6.3810
 0.3630	 6.3950
 0.3640	 6.3480
 0.3650	 6.3460
 0.3660	 6.4280
 0.3670	 6.4080
 0.3680	 6.3340
 0.3690	 6.4010
 0.3700	 6.5020
 0.3710	 6.5530
 0.3720	 6.5260
 0.3730	 6.4800
 0.3740	 6.3710
 0.3750	 6.3160
 0.3760	 6.4080
 0.3770	 6.3960
 0.3780	 6.3530
 0.3790	 6.3540
 0.3800	 6.4440
 0.3810	 6.4220
 0.3820	 6.3810
 0.3830	 6.3830
 0.3840	 6.2770
 0.3850	 6.3800
 0.3860	 6.5750
 0.3870	 6.6240
 0.3880	 6.6420
 0.3890	 6.6590
 0.3900	 6.6730
 0.3910	 6.6550
 0.3920	 6.6390
 0.3930	 6.7190
 0.3940	 6.8860
 0.3950	 6.8360
 0.3960	 6.8720
 0.3970	 6.9760
 0.3980	 6.9980
 0.3990	 6.9860
 0.4000	 7.0180
 0.4010	 7.1090
 0.4020	 7.1910
 0.4030	 7.1830
 0.4040	 7.1830
 0.4050	 7.2810
 0.4060	 7.3740
 0.4070	 7.4060
 0.4080	 7.4130
 0.4090	 7.4790
 0.4100	 7.5290
 0.4110	 7.5830
 0.4120	 7.6570
 0.4130	 7.7350
 0.4140	 7.7830
 0.4150	 7.8360
 0.4160	 7.9310
 0.4170	 7.9970
 0.4180	 8.0480
 0.4190	 8.0990
 0.4200	 8.1600
 0.4210	 8.2570
 0.4220	 8.3370
 0.4230	 8.3770
 0.4240	 8.4730
 0.4250	 8.5240
 0.4260	 8.5410
 0.4270	 8.5830
 0.4280	 8.6430
 0.4290	 8.7110
 0.4300	 8.7710
 0.4310	 8.8060
 0.4320	 8.8740
 0.4330	 8.9320
 0.4340	 8.9410
 0.4350	 8.9980
 0.4360	 9.0420
 0.4370	 9.0620
 0.4380	 9.0910
 0.4390	 9.1510
 0.4400	 9.2080
 0.4410	 9.2390
 0.4420	 9.2630
 0.4430	 9.3190
 0.4440	 9.3850
 0.4450	 9.4220
 0.4460	 9.4570
 0.4470	 9.5020
 0.4480	 9.5510
 0.4490	 9.5780
 0.4500	 9.6130
 0.4510	 9.6490
 0.4520	 9.6810
 0.4530	 9.7150
 0.4540	 9.7630
 0.4550	 9.8080
 0.4560	 9.8160
 0.4570	 9.8480
 0.4580	 9.8800
 0.4590	 9.8990
 0.4600	 9.9240
 0.4610	 9.9400
 0.4620	 9.9650
 0.4630	10.0170
 0.4640	10.0310
 0.4650	10.0250
 0.4660	10.0300
 0.4670	10.0800
 0.4680	10.1010
 0.4690	10.1060
 0.4700	10.1150
 0.4710	10.1330
 0.4720	10.1440
 0.4730	10.1550
 0.4740	10.1750
 0.4750	10.1860
 0.4760	10.2080
 0.4770	10.2350
 0.4780	10.2100
 0.4790	10.2110
 0.4800	10.2450
 0.4810	10.2880
 0.4820	10.3090
 0.4830	10.3140
 0.4840	10.3180
 0.4850	10.3410
 0.4860	10.3870
 0.4870	10.4260
 0.4880	10.4430
 0.4890	10.4800
 0.4900	10.5280
 0.4910	10.5730
 0.4920	10.6070
 0.4930	10.6370
 0.4940	10.6970
 0.4950	10.7840
 0.4960	10.8420
 0.4970	10.9190
 0.4980	10.9990
 0.4990	11.0630
 0.5000	11.1340
 0.5010	11.2240
 0.5020	11.3330
 0.5030	11.4530
 0.5040	11.5820
 0.5050	11.7140
 0.5060	11.8490
 0.5070	11.9960
 0.5080	12.1520
 0.5090	12.3190
 0.5100	12.5080
 0.5110	12.7040
 0.5120	12.9060
 0.5130	13.1180
 0.5140	13.3540
 0.5150	13.5900
 0.5160	13.8310
 0.5170	14.0860
 0.5180	14.3610
 0.5190	14.6360
 0.5200	14.9090
 0.5210	15.1910
 0.5220	15.4720
 0.5230	15.7410
 0.5240	15.9940
 0.5250	16.2460
 0.5260	16.4930
 0.5270	16.7300
 0.5280	16.9550
 0.5290	17.1590
 0.5300	17.3580
 0.5310	17.5500
 0.5320	17.7110
 0.5330	17.8580
 0.5340	17.9990
 0.5350	18.1350
 0.5360	18.2580
 0.5370	18.3690
 0.5380	18.4680
 0.5390	18.5530
 0.5400	18.6350
 0.5410	18.7110
 0.5420	18.7810
 0.5430	18.8430
 0.5440	18.9140
 0.5450	18.9930
 0.5460	19.0770
 0.5470	19.1510
 0.5480	19.2200
 0.5490	19.2850
 0.5500	19.3390
 0.5510	19.3790
 0.5520	19.4120
 0.5530	19.4420
 0.5540	19.4570
 0.5550	19.4610
 0.5560	19.4520
 0.5570	19.4220
 0.5580	19.3790
 0.5590	19.3300
 0.5600	19.2750
 0.5610	19.1960
 0.5620	19.1050
 0.5630	19.0030
 0.5640	18.8860
 0.5650	18.7700
 0.5660	18.6500
 0.5670	18.5190
 0.5680	18.3710
 0.5690	18.2270
 0.5700	18.0820
 0.5710	17.9300
 0.5720	17.7870
 0.5730	17.6590
 0.5740	17.5380
 0.5750	17.4110
 0.5760	17.3050
 0.5770	17.2110
 0.5780	17.1180
 0.5790	17.0270
 0.5800	16.9340
 0.5810	16.8400
 0.5820	16.7510
 0.5830	16.6690
 0.5840	16.5980
 0.5850	16.5430
 0.5860	16.5050
 0.5870	16.4480
 0.5880	16.3780
 0.5890	16.3110
 0.5900	16.2530
 0.5910	16.2060
 0.5920	16.1670
 0.5930	16.1300
 0.5940	16.1010
 0.5950	16.0820
 0.5960	16.0670
 0.5970	16.0460
 0.5980	16.0240
 0.5990	16.0030
 0.6000	15.9810
 0.6010	15.9410
 0.6020	15.8900
 0.6030	15.8330
 0.6040	15.7740
 0.6050	15.7100
 0.6060	15.6350
 0.6070	15.5470
 0.6080	15.4520
 0.6090	15.3490
 0.6100	15.2400
 0.6110	15.1300
 0.6120	15.0370
 0.6130	14.9490
 0.6140	14.8610
 0.6150	14.7790
 0.6160	14.6970
 0.6170	14.6190
 0.6180	14.5530
 0.6190	14.4890
 0.6200	14.4290
 0.6210	14.3760
 0.6220	14.3330
 0.6230	14.2900
 0.6240	14.2600
 0.6250	14.2450
 0.6260	14.2290
 0.6270	14.2160
 0.6280	14.2070
 0.6290	14.1990
 0.6300	14.1850
 0.6310	14.1790
 0.6320	14.1820
 0.6330	14.1750
 0.6340	14.1550
 0.6350	14.1230
 0.6360	14.0850
 0.6370	14.0460
 0.6380	13.9830
 0.6390	13.9000
 0.6400	13.8150
 0.6410	13.7280
 0.6420	13.6280
 0.6430	13.5140
 0.6440	13.4150
 0.6450	13.3040
 0.6460	13.1880
 0.6470	13.0800
 0.6480	12.9730
 0.6490	12.8740
 0.6500	12.7840
 0.6510	12.7040
 0.6520	12.6250
 0.6530	12.5470
 0.6540	12.4660
 0.6550	12.3790
 0.6560	12.2900
 0.6570	12.1960
 0.6580	12.0950
 0.6590	11.9940
 0.6600	11.8900
 0.6610	11.7830
 0.6620	11.6780
 0.6630	11.5790
 0.6640	11.4870
 0.6650	11.4060
 0.6660	11.3360
 0.6670	11.2830
 0.6680	11.2390
 0.6690	11.1940
 0.6700	11.1690
 0.6710	11.1540
 0.6720	11.1430
 0.6730	11.1460
 0.6740	11.1520
 0.6750	11.1680
 0.6760	11.2000
 0.6770	11.2310
 0.6780	11.2680
 0.6790	11.3160
 0.6800	11.3770
 0.6810	11.4550
 0.6820	11.5460
 0.6830	11.6530
 0.6840	11.7800
 0.6850	11.9420
 0.6860	12.1350
 0.6870	12.3570
 0.6880	12.6360
 0.6890	12.9630
 0.6900	13.3440
 0.6910	13.7980
 0.6920	14.3060
 0.6930	14.8800
 0.6940	15.5280
 0.6950	16.2350
 0.6960	17.0070
 0.6970	17.8410
 0.6980	18.7310
 0.6990	19.6570
 0.7000	20.6140
 0.7010	21.6000
 0.7020	22.6080
 0.7030	23.6120
 0.7040	24.6100
 0.7050	25.6010
 0.7060	26.5860
 0.7070	27.5440
 0.7080	28.4800
 0.7090	29.4070
 0.7100	30.2890
 0.7110	31.1500
 0.7120	31.9930
 0.7130	32.7940
 0.7140	33.5690
 0.7150	34.3180
 0.7160	35.0410
 0.7170	35.7310
 0.7180	36.3920
 0.7190	37.0210
 0.7200	37.6170
 0.7210	38.2020
 0.7220	38.7530
 0.7230	39.2680
 0.7240	39.7660
 0.7250	40.2400
 0.7260	40.6860
 0.7270	41.1040
 0.7280	41.4980
 0.7290	41.8760
 0.7300	42.2300
 0.7310	42.5520
 0.7320	42.8600
 0.7330	43.1540
 0.7340	43.4310
 0.7350	43.6860
 0.7360	43.9260
 0.7370	44.1500
 0.7380	44.3600
 0.7390	44.5680
 0.7400	44.7520
 0.7410	44.9170
 0.7420	45.0770
 0.7430	45.2390
 0.7440	45.3840
 0.7450	45.5110
 0.7460	45.6330
 0.7470	45.7350
 0.7480	45.8370
 0.7490	45.9440
 0.7500	46.0150
 0.7510	46.1020
 0.7520	46.1940
 0.7530	46.2620
 0.7540	46.3270
 0.7550	46.3850
 0.7560	46.4370
 0.7570	46.4910
 0.7580	46.5400
 0.7590	46.5900
 0.7600	46.6380
 0.7610	46.6700
 0.7620	46.7060
 0.7630	46.7480
 0.7640	46.7860
 0.7650	46.8130
 0.7660	46.8430
 0.7670	46.8750
 0.7680	46.8970
 0.7690	46.9100
 0.7700	46.9290
 0.7710	46.9630
 0.7720	47.0110
 0.7730	47.0350
 0.7740	47.0480
 0.7750	47.0700
 0.7760	47.1040
 0.7770	47.1360
 0.7780	47.1610
 0.7790	47.1830
 0.7800	47.2000
 0.7810	47.2240
 0.7820	47.2560
 0.7830	47.2850
 0.7840	47.3030
 0.7850	47.3390
 0.7860	47.3950
 0.7870	47.4030
 0.7880	47.4240
 0.7890	47.4570
 0.7900	47.4880
 0.7910	47.5190
 0.7920	47.5470
 0.7930	47.5770
 0.7940	47.6130
 0.7950	47.6300
 0.7960	47.6530
 0.7970	47.6900
 0.7980	47.7190
 0.7990	47.7490
 0.8000	47.7800
 0.8010	47.8100
 0.8020	47.8350
 0.8030	47.8650
 0.8040	47.8920
 0.8050	47.9090
 0.8060	47.9650
 0.8070	48.0090
 0.8080	48.0260
 0.8090	48.0370
 0.8100	48.0630
 0.8110	48.1040
 0.8120	48.1450
 0.8130	48.1730
 0.8140	48.1980
 0.8150	48.2250
 0.8160	48.2580
 0.8170	48.3020
 0.8180	48.3100
 0.8190	48.3100
 0.8200	48.3560
 0.8210	48.3990
 0.8220	48.4290
 0.8230	48.4500
 0.8240	48.4760
 0.8250	48.4960
 0.8260	48.5140
 0.8270	48.5370
 0.8280	48.5690
 0.8290	48.5870
 0.8300	48.5910
 0.8310	48.6000
 0.8320	48.6550
 0.8330	48.6950
 0.8340	48.7150
 0.8350	48.7360
 0.8360	48.7570
 0.8370	48.7860
 0.8380	48.8140
 0.8390	48.8180
 0.8400	48.8410
 0.8410	48.8690
 0.8420	48.8940
 0.8430	48.9370
 0.8440	48.9550
 0.8450	48.9670
 0.8460	48.9940
 0.8470	49.0310
 0.8480	49.0420
 0.8490	49.0460
 0.8500	49.0700
 0.8510	49.0990
 0.8520	49.1320
 0.8530	49.1660
 0.8540	49.1960
 0.8550	49.2300
 0.8560	49.2430
 0.8570	49.2480
 0.8580	49.2950
 0.8590	49.3220
 0.8600	49.3310
 0.8610	49.3370
 0.8620	49.3650
 0.8630	49.4060
 0.8640	49.4390
 0.8650	49.4580
 0.8660	49.5000
 0.8670	49.5170
 0.8680	49.5180
 0.8690	49.5310
 0.8700	49.5820
 0.8710	49.6190
 0.8720	49.6410
 0.8730	49.6720
 0.8740	49.6990
 0.8750	49.7320
 0.8760	49.7730
 0.8770	49.8110
 0.8780	49.8150
 0.8790	49.8370
 0.8800	49.8920
 0.8810	49.9230
 0.8820	49.9490
 0.8830	49.9720
 0.8840	49.9990
 0.8850	50.0630
 0.8860	50.0850
 0.8870	50.0960
 0.8880	50.1390
 0.8890	50.1840
 0.8900	50.2170
 0.8910	50.2430
 0.8920	50.2730
 0.8930	50.3100
 0.8940	50.3440
 0.8950	50.3810
 0.8960	50.4320
 0.8970	50.4710
 0.8980	50.5010
 0.8990	50.5290
 0.9000	50.5600
 0.9010	50.5880
 0.9020	50.6310
 0.9030	50.6880
 0.9040	50.7330
 0.9050	50.7400
 0.9060	50.7390
 0.9070	50.7630
 0.9080	50.8380
 0.9090	50.8900
 0.9100	50.9190
 0.9110	50.9390
 0.9120	50.9500
 0.9130	50.9860
 0.9140	51.0320
 0.9150	51.0640
 0.9160	51.0810
 0.9170	51.1180
 0.9180	51.1560
 0.9190	51.1710
 0.9200	51.1990
 0.9210	51.2340
 0.9220	51.2640
 0.9230	51.2830
 0.9240	51.2950
 0.9250	51.3270
 0.9260	51.3690
 0.9270	51.3900
 0.9280	51.4150
 0.9290	51.4340
 0.9300	51.4420
 0.9310	51.4440
 0.9320	51.4610
 0.9330	51.4570
 0.9340	51.4410
 0.9350	51.4730
 0.9360	51.5020
 0.9370	51.5220
 0.9380	51.5280
 0.9390	51.5050
 0.9400	51.4700
 0.9410	51.4680
 0.9420	51.5020
 0.9430	51.4950
 0.9440	51.5200
 0.9450	51.5210
 0.9460	51.4700
 0.9470	51.4470
 0.9480	51.4390
 0.9490	51.4380
 0.9500	51.4320
 0.9510	51.4050
 0.9520	51.3680
 0.9530	51.3430
 0.9540	51.3380
 0.9550	51.3330
 0.9560	51.2690
 0.9570	51.2010
 0.9580	51.1870
 0.9590	51.1660
 0.9600	51.1430
 0.9610	51.1300
 0.9620	51.1320
 0.9630	51.1310
 0.9640	51.1060
 0.9650	51.0740
 0.9660	51.0670
 0.9670	51.0860
 0.9680	51.1050
 0.9690	51.1080
 0.9700	51.0990
 0.9710	51.1380
 0.9720	51.1490
 0.9730	51.1530
 0.9740	51.1950
 0.9750	51.2100
 0.9760	51.2340
 0.9770	51.2640
 0.9780	51.2860
 0.9790	51.3470
 0.9800	51.3200
 0.9810	51.2690
 0.9820	51.3230
 0.9830	51.3970
 0.9840	51.4180
 0.9850	51.4320
 0.9860	51.5050
 0.9870	51.4910
 0.9880	51.5100
 0.9890	51.5490
 0.9900	51.5520
 0.9910	51.5800
 0.9920	51.7290
 0.9930	51.8780
 0.9940	52.0260
 0.9950	52.1750
 0.9960	52.3240
 0.9970	52.4730
 0.9980	52.6220
 0.9990	52.7700
 1.0000	52.9190
 1.0010	53.0680
 1.0020	53.2170
 1.0030	53.3650
 1.0040	53.5140
 1.0050	53.6630
 1.0060	53.8120
 1.0070	53.9600
 1.0080	54.1090
 1.0090	54.2580
 1.0100	54.2580
 1.0110	54.2760
 1.0120	54.2990
 1.0130	54.3370
 1.0140	54.3600
 1.0150	54.3660
 1.0160	54.3880
 1.0170	54.4240
 1.0180	54.4410
 1.0190	54.4750
 1.0200	54.5090
 1.0210	54.5230
 1.0220	54.5530
 1.0230	54.5790
 1.0240	54.6060
 1.0250	54.6310
 1.0260	54.6490
 1.0270	54.6790
 1.0280	54.7200
 1.0290	54.7520
 1.0300	54.7980
 1.0310	54.8220
 1.0320	54.8350
 1.0330	54.8300
 1.0340	54.8370
 1.0350	54.8510
 1.0360	54.8680
 1.0370	54.8980
 1.0380	54.9190
 1.0390	54.9360
 1.0400	54.9580
 1.0410	54.9860
 1.0420	55.0070
 1.0430	55.0290
 1.0440	55.0450
 1.0450	55.0570
 1.0460	55.0660
 1.0470	55.0650
 1.0480	55.0740
 1.0490	55.0880
 1.0500	55.0990
 1.0510	55.1160
 1.0520	55.1330
 1.0530	55.1420
 1.0540	55.1410
 1.0550	55.1520
 1.0560	55.1650
 1.0570	55.1720
 1.0580	55.1810
 1.0590	55.1900
 1.0600	55.1960
 1.0610	55.1970
 1.0620	55.1980
 1.0630	55.2010
 1.0640	55.1930
 1.0650	55.1940
 1.0660	55.2070
 1.0670	55.2150
 1.0680	55.2210
 1.0690	55.2280
 1.0700	55.2290
 1.0710	55.2280
 1.0720	55.2210
 1.0730	55.2000
 1.0740	55.1980
 1.0750	55.2030
 1.0760	55.2030
 1.0770	55.2160
 1.0780	55.2170
 1.0790	55.2020
 1.0800	55.1970
 1.0810	55.1950
 1.0820	55.1940
 1.0830	55.2050
 1.0840	55.2030
 1.0850	55.1900
 1.0860	55.1790
 1.0870	55.1720
 1.0880	55.1580
 1.0890	55.1520
 1.0900	55.1600
 1.0910	55.1550
 1.0920	55.1430
 1.0930	55.1370
 1.0940	55.1350
 1.0950	55.1280
 1.0960	55.1230
 1.0970	55.1140
 1.0980	55.0950
 1.0990	55.0800
 1.1000	55.0600
 1.1010	55.0470
 1.1020	55.0340
 1.1030	55.0290
 1.1040	55.0230
 1.1050	55.0130
 1.1060	55.0060
 1.1070	55.0000
 1.1080	54.9890
 1.1090	54.9770
 1.1100	54.9650
 1.1110	54.9490
 1.1120	54.9340
 1.1130	54.9220
 1.1140	54.9070
 1.1150	54.8890
 1.1160	54.8720
 1.1170	54.8570
 1.1180	54.8400
 1.1190	54.8270
 1.1200	54.8080
 1.1210	54.7820
 1.1220	54.7600
 1.1230	54.7330
 1.1240	54.6950
 1.1250	54.6540
 1.1260	54.6090
 1.1270	54.5560
 1.1280	54.4940
 1.1290	54.4290
 1.1300	54.3590
 1.1310	54.2820
 1.1320	54.2050
 1.1330	54.1140
 1.1340	54.0070
 1.1350	53.9020
 1.1360	53.7900
 1.1370	53.6770
 1.1380	53.5610
 1.1390	53.4390
 1.1400	53.3130
 1.1410	53.1860
 1.1420	53.0590
 1.1430	52.9290
 1.1440	52.7940
 1.1450	52.6470
 1.1460	52.5150
 1.1470	52.3810
 1.1480	52.2590
 1.1490	52.1450
 1.1500	52.0360
 1.1510	51.9310
 1.1520	51.8340
 1.1530	51.7440
 1.1540	51.6640
 1.1550	51.5930
 1.1560	51.5270
 1.1570	51.4710
 1.1580	51.4150
 1.1590	51.3680
 1.1600	51.3370
 1.1610	51.3100
 1.1620	51.2970
 1.1630	51.2900
 1.1640	51.2710
 1.1650	51.2540
 1.1660	51.2340
 1.1670	51.2230
 1.1680	51.2120
 1.1690	51.2070
 1.1700	51.2160
 1.1710	51.2120
 1.1720	51.2010
 1.1730	51.1950
 1.1740	51.1900
 1.1750	51.1790
 1.1760	51.1740
 1.1770	51.1710
 1.1780	51.1600
 1.1790	51.1550
 1.1800	51.1540
 1.1810	51.1470
 1.1820	51.1370
 1.1830	51.1230
 1.1840	51.1060
 1.1850	51.0950
 1.1860	51.0820
 1.1870	51.0740
 1.1880	51.0670
 1.1890	51.0560
 1.1900	51.0520
 1.1910	51.0560
 1.1920	51.0550
 1.1930	51.0550
 1.1940	51.0550
 1.1950	51.0510
 1.1960	51.0530
 1.1970	51.0620
 1.1980	51.0790
 1.1990	51.1020
 1.2000	51.1220
 1.2010	51.1450
 1.2020	51.1680
 1.2030	51.1830
 1.2040	51.2070
 1.2050	51.2350
 1.2060	51.2570
 1.2070	51.2860
 1.2080	51.3160
 1.2090	51.3440
 1.2100	51.3770
 1.2110	51.4060
 1.2120	51.4310
 1.2130	51.4630
 1.2140	51.4960
 1.2150	51.5270
 1.2160	51.5620
 1.2170	51.5980
 1.2180	51.6280
 1.2190	51.6600
 1.2200	51.6970
 1.2210	51.7310
 1.2220	51.7660
 1.2230	51.8030
 1.2240	51.8390
 1.2250	51.8720
 1.2260	51.9030
 1.2270	51.9390
 1.2280	51.9730
 1.2290	52.0060
 1.2300	52.0380
 1.2310	52.0650
 1.2320	52.0910
 1.2330	52.1190
 1.2340	52.1470
 1.2350	52.1800
 1.2360	52.2060
 1.2370	52.2280
 1.2380	52.2510
 1.2390	52.2670
 1.2400	52.2860
 1.2410	52.3180
 1.2420	52.3440
 1.2430	52.3670
 1.2440	52.3890
 1.2450	52.4000
 1.2460	52.4150
 1.2470	52.4350
 1.2480	52.4530
 1.2490	52.4740
 1.2500	52.4890
 1.2510	52.5020
 1.2520	52.5140
 1.2530	52.5240
 1.2540	52.5340
 1.2550	52.5420
 1.2560	52.5540
 1.2570	52.5620
 1.2580	52.5680
 1.2590	52.5750
 1.2600	52.5770
 1.2610	52.5810
 1.2620	52.5870
 1.2630	52.5950
 1.2640	52.5980
 1.2650	52.6040
 1.2660	52.6070
 1.2670	52.6080
 1.2680	52.6100
 1.2690	52.6120
 1.2700	52.6110
 1.2710	52.6070
 1.2720	52.6020
 1.2730	52.5980
 1.2740	52.5950
 1.2750	52.5900
 1.2760	52.5820
 1.2770	52.5710
 1.2780	52.5530
 1.2790	52.5350
 1.2800	52.5190
 1.2810	52.4970
 1.2820	52.4800
 1.2830	52.4630
 1.2840	52.4390
 1.2850	52.4160
 1.2860	52.3860
 1.2870	52.3550
 1.2880	52.3180
 1.2890	52.2820
 1.2900	52.2450
 1.2910	52.2070
 1.2920	52.1660
 1.2930	52.1270
 1.2940	52.0860
 1.2950	52.0410
 1.2960	51.9970
 1.2970	51.9520
 1.2980	51.9010
 1.2990	51.8500
 1.3000	51.7990
 1.3010	51.7370
 1.3020	51.6690
 1.3030	51.6030
 1.3040	51.5320
 1.3050	51.4600
 1.3060	51.3890
 1.3070	51.3130
 1.3080	51.2360
 1.3090	51.1570
 1.3100	51.0730
 1.3110	50.9880
 1.3120	50.8990
 1.3130	50.8100
 1.3140	50.7170
 1.3150	50.6170
 1.3160	50.5200
 1.3170	50.4240
 1.3180	50.3210
 1.3190	50.2160
 1.3200	50.1140
 1.3210	50.0050
 1.3220	49.8940
 1.3230	49.7830
 1.3240	49.6650
 1.3250	49.5410
 1.3260	49.4180
 1.3270	49.2940
 1.3280	49.1640
 1.3290	49.0350
 1.3300	48.9000
 1.3310	48.7570
 1.3320	48.6160
 1.3330	48.4750
 1.3340	48.3340
 1.3350	48.1930
 1.3360	48.0550
 1.3370	47.9170
 1.3380	47.7760
 1.3390	47.6340
 1.3400	47.4890
 1.3410	47.3460
 1.3420	47.2030
 1.3430	47.0660
 1.3440	46.9300
 1.3450	46.7930
 1.3460	46.6600
 1.3470	46.5260
 1.3480	46.3870
 1.3490	46.2540
 1.3500	46.1240
 1.3510	45.9880
 1.3520	45.8530
 1.3530	45.7220
 1.3540	45.5850
 1.3550	45.4500
 1.3560	45.3180
 1.3570	45.1830
 1.3580	45.0470
 1.3590	44.9020
 1.3600	44.7530
 1.3610	44.6010
 1.3620	44.4400
 1.3630	44.2790
 1.3640	44.1150
 1.3650	43.9390
 1.3660	43.7580
 1.3670	43.5680
 1.3680	43.3630
 1.3690	43.1410
 1.3700	42.9080
 1.3710	42.6590
 1.3720	42.3930
 1.3730	42.1110
 1.3740	41.8100
 1.3750	41.4890
 1.3760	41.1460
 1.3770	40.7810
 1.3780	40.3920
 1.3790	39.9790
 1.3800	39.5460
 1.3810	39.0880
 1.3820	38.6110
 1.3830	38.1160
 1.3840	37.5990
 1.3850	37.0580
 1.3860	36.5020
 1.3870	35.9220
 1.3880	35.3390
 1.3890	34.7410
 1.3900	34.1360
 1.3910	33.5370
 1.3920	32.9330
 1.3930	32.3220
 1.3940	31.7170
 1.3950	31.1140
 1.3960	30.5160
 1.3970	29.9320
 1.3980	29.3680
 1.3990	28.8260
 1.4000	28.3000
 1.4010	27.7930
 1.4020	27.3090
 1.4030	26.8390
 1.4040	26.3910
 1.4050	25.9720
 1.4060	25.5810
 1.4070	25.2160
 1.4080	24.8750
 1.4090	24.5530
 1.4100	24.2550
 1.4110	23.9760
 1.4120	23.7200
 1.4130	23.4890
 1.4140	23.2760
 1.4150	23.0850
 1.4160	22.9080
 1.4170	22.7470
 1.4180	22.6020
 1.4190	22.4710
 1.4200	22.3580
 1.4210	22.2580
 1.4220	22.1670
 1.4230	22.0870
 1.4240	22.0120
 1.4250	21.9490
 1.4260	21.8960
 1.4270	21.8500
 1.4280	21.8170
 1.4290	21.7870
 1.4300	21.7640
 1.4310	21.7440
 1.4320	21.7270
 1.4330	21.7160
 1.4340	21.7130
 1.4350	21.7130
 1.4360	21.7180
 1.4370	21.7280
 1.4380	21.7430
 1.4390	21.7600
 1.4400	21.7820
 1.4410	21.8060
 1.4420	21.8260
 1.4430	21.8470
 1.4440	21.8730
 1.4450	21.9010
 1.4460	21.9300
 1.4470	21.9620
 1.4480	21.9940
 1.4490	22.0250
 1.4500	22.0590
 1.4510	22.0950
 1.4520	22.1340
 1.4530	22.1750
 1.4540	22.2150
 1.4550	22.2570
 1.4560	22.3040
 1.4570	22.3570
 1.4580	22.4130
 1.4590	22.4720
 1.4600	22.5300
 1.4610	22.5870
 1.4620	22.6530
 1.4630	22.7240
 1.4640	22.7990
 1.4650	22.8810
 1.4660	22.9690
 1.4670	23.0620
 1.4680	23.1570
 1.4690	23.2560
 1.4700	23.3590
 1.4710	23.4700
 1.4720	23.5870
 1.4730	23.7070
 1.4740	23.8320
 1.4750	23.9590
 1.4760	24.0830
 1.4770	24.2150
 1.4780	24.3530
 1.4790	24.4910
 1.4800	24.6320
 1.4810	24.7760
 1.4820	24.9220
 1.4830	25.0660
 1.4840	25.2130
 1.4850	25.3600
 1.4860	25.5020
 1.4870	25.6450
 1.4880	25.7920
 1.4890	25.9370
 1.4900	26.0850
 1.4910	26.2360
 1.4920	26.3860
 1.4930	26.5380
 1.4940	26.6880
 1.4950	26.8400
 1.4960	26.9890
 1.4970	27.1350
 1.4980	27.2850
 1.4990	27.4360
 1.5000	27.5850
 1.5010	27.7310
 1.5020	27.8810
 1.5030	28.0330
 1.5040	28.1830
 1.5050	28.3360
 1.5060	28.4850
 1.5070	28.6270
 1.5080	28.7720
 1.5090	28.9170
 1.5100	29.0640
 1.5110	29.2090
 1.5120	29.3580
 1.5130	29.5020
 1.5140	29.6420
 1.5150	29.7790
 1.5160	29.9120
 1.5170	30.0450
 1.5180	30.1770
 1.5190	30.3140
 1.5200	30.4490
 1.5210	30.5850
 1.5220	30.7260
 1.5230	30.8670
 1.5240	31.0080
 1.5250	31.1400
 1.5260	31.2680
 1.5270	31.3950
 1.5280	31.5150
 1.5290	31.6400
 1.5300	31.7680
 1.5310	31.8940
 1.5320	32.0220
 1.5330	32.1450
 1.5340	32.2650
 1.5350	32.3860
 1.5360	32.5050
 1.5370	32.6220
 1.5380	32.7410
 1.5390	32.8570
 1.5400	32.9680
 1.5410	33.0790
 1.5420	33.1890
 1.5430	33.2960
 1.5440	33.4040
 1.5450	33.5210
 1.5460	33.6350
 1.5470	33.7430
 1.5480	33.8510
 1.5490	33.9540
 1.5500	34.0520
 1.5510	34.1580
 1.5520	34.2580
 1.5530	34.3560
 1.5540	34.4540
 1.5550	34.5420
 1.5560	34.6370
 1.5570	34.7340
 1.5580	34.8290
 1.5590	34.9300
 1.5600	35.0310
 1.5610	35.1280
 1.5620	35.2250
 1.5630	35.3200
 1.5640	35.4080
 1.5650	35.4940
 1.5660	35.5780
 1.5670	35.6570
 1.5680	35.7390
 1.5690	35.8220
 1.5700	35.9030
 1.5710	35.9880
 1.5720	36.0750
 1.5730	36.1600
 1.5740	36.2490
 1.5750	36.3340
 1.5760	36.4120
 1.5770	36.4910
 1.5780	36.5650
 1.5790	36.6430
 1.5800	36.7270
 1.5810	36.8060
 1.5820	36.8790
 1.5830	36.9520
 1.5840	37.0180
 1.5850	37.0850
 1.5860	37.1590
 1.5870	37.2330
 1.5880	37.3050
 1.5890	37.3780
 1.5900	37.4500
 1.5910	37.5180
 1.5920	37.5810
 1.5930	37.6480
 1.5940	37.7150
 1.5950	37.7800
 1.5960	37.8520
 1.5970	37.9240
 1.5980	37.9880
 1.5990	38.0450
 1.6000	38.1050
 1.6010	38.1610
 1.6020	38.2170
 1.6030	38.2840
 1.6040	38.3520
 1.6050	38.4140
 1.6060	38.4750
 1.6070	38.5350
 1.6080	38.5910
 1.6090	38.6460
 1.6100	38.6970
 1.6110	38.7480
 1.6120	38.8030
 1.6130	38.8540
 1.6140	38.9100
 1.6150	38.9650
 1.6160	39.0090
 1.6170	39.0540
 1.6180	39.0950
 1.6190	39.1390
 1.6200	39.1870
 1.6210	39.2280
 1.6220	39.2690
 1.6230	39.3080
 1.6240	39.3380
 1.6250	39.3710
 1.6260	39.4050
 1.6270	39.4360
 1.6280	39.4680
 1.6290	39.4990
 1.6300	39.5300
 1.6310	39.5620
 1.6320	39.5900
 1.6330	39.6200
 1.6340	39.6490
 1.6350	39.6800
 1.6360	39.7130
 1.6370	39.7450
 1.6380	39.7780
 1.6390	39.8110
 1.6400	39.8420
 1.6410	39.8700
 1.6420	39.8970
 1.6430	39.9240
 1.6440	39.9500
 1.6450	39.9690
 1.6460	39.9890
 1.6470	40.0000
 1.6480	40.0010
 1.6490	40.0110
 1.6500	40.0180
 1.6510	40.0170
 1.6520	40.0190
 1.6530	40.0160
 1.6540	40.0060
 1.6550	39.9890
 1.6560	39.9740
 1.6570	39.9600
 1.6580	39.9400
 1.6590	39.9270
 1.6600	39.9160
 1.6610	39.8970
 1.6620	39.8760
 1.6630	39.8540
 1.6640	39.8250
 1.6650	39.8020
 1.6660	39.7770
 1.6670	39.7480
 1.6680	39.7220
 1.6690	39.6880
 1.6700	39.6520
 1.6710	39.6200
 1.6720	39.5830
 1.6730	39.5420
 1.6740	39.4900
 1.6750	39.4340
 1.6760	39.3760
 1.6770	39.3140
 1.6780	39.2550
 1.6790	39.2010
 1.6800	39.1460
 1.6810	39.0830
 1.6820	39.0190
 1.6830	38.9460
 1.6840	38.8640
 1.6850	38.7890
 1.6860	38.7190
 1.6870	38.6480
 1.6880	38.5780
 1.6890	38.5080
 1.6900	38.4320
 1.6910	38.3450
 1.6920	38.2680
 1.6930	38.1930
 1.6940	38.1180
 1.6950	38.0500
 1.6960	37.9790
 1.6970	37.9000
 1.6980	37.8290
 1.6990	37.7640
 1.7000	37.6990
 1.7010	37.6410
 1.7020	37.5760
 1.7030	37.5060
 1.7040	37.4390
 1.7050	37.3690
 1.7060	37.3030
 1.7070	37.2410
 1.7080	37.1760
 1.7090	37.1110
 1.7100	37.0450
 1.7110	36.9770
 1.7120	36.9130
 1.7130	36.8520
 1.7140	36.7910
 1.7150	36.7310
 1.7160	36.6710
 1.7170	36.6080
 1.7180	36.5480
 1.7190	36.4960
 1.7200	36.4510
 1.7210	36.4110
 1.7220	36.3740
 1.7230	36.3350
 1.7240	36.2960
 1.7250	36.2570
 1.7260	36.2190
 1.7270	36.1860
 1.7280	36.1580
 1.7290	36.1310
 1.7300	36.1080
 1.7310	36.0810
 1.7320	36.0490
 1.7330	36.0170
 1.7340	35.9850
 1.7350	35.9480
 1.7360	35.9060
 1.7370	35.8690
 1.7380	35.8330
 1.7390	35.7930
 1.7400	35.7590
 1.7410	35.7150
 1.7420	35.6630
 1.7430	35.6110
 1.7440	35.5570
 1.7450	35.4960
 1.7460	35.4270
 1.7470	35.3650
 1.7480	35.3000
 1.7490	35.2350
 1.7500	35.1760
 1.7510	35.1080
 1.7520	35.0320
 1.7530	34.9610
 1.7540	34.8900
 1.7550	34.8180
 1.7560	34.7490
 1.7570	34.6780
 1.7580	34.6130
 1.7590	34.5630
 1.7600	34.5090
 1.7610	34.4610
 1.7620	34.4140
 1.7630	34.3610
 1.7640	34.3130
 1.7650	34.2710
 1.7660	34.2260
 1.7670	34.1810
 1.7680	34.1330
 1.7690	34.0810
 1.7700	34.0350
 1.7710	33.9880
 1.7720	33.9460
 1.7730	33.9080
 1.7740	33.8750
 1.7750	33.8480
 1.7760	33.8210
 1.7770	33.8020
 1.7780	33.7720
 1.7790	33.7300
 1.7800	33.7040
 1.7810	33.6810
 1.7820	33.6620
 1.7830	33.6590
 1.7840	33.6420
 1.7850	33.6160
 1.7860	33.6020
 1.7870	33.5880
 1.7880	33.5770
 1.7890	33.5730
 1.7900	33.5560
 1.7910	33.5430
 1.7920	33.5310
 1.7930	33.5170
 1.7940	33.4990
 1.7950	33.4920
 1.7960	33.4920
 1.7970	33.4900
 1.7980	33.4970
 1.7990	33.5010
 1.8000	33.5020
 1.8010	33.5050
 1.8020	33.5170
 1.8030	33.5190
 1.8040	33.5130
 1.8050	33.5140
 1.8060	33.5150
 1.8070	33.5140
 1.8080	33.5170
 1.8090	33.5150
 1.8100	33.5040
 1.8110	33.5010
 1.8120	33.4980
 1.8130	33.4900
 1.8140	33.4920
 1.8150	33.4950
 1.8160	33.5010
 1.8170	33.5120
 1.8180	33.5110
 1.8190	33.4990
 1.8200	33.4880
 1.8210	33.4620
 1.8220	33.4470
 1.8230	33.4460
 1.8240	33.4310
 1.8250	33.4100
 1.8260	33.3960
 1.8270	33.3560
 1.8280	33.3160
 1.8290	33.2770
 1.8300	33.2370
 1.8310	33.1970
 1.8320	33.1580
 1.8330	33.1180
 1.8340	33.0780
 1.8350	33.0780
 1.8360	33.0230
 1.8370	32.9790
 1.8380	32.9300
 1.8390	32.8590
 1.8400	32.7700
 1.8410	32.6850
 1.8420	32.5880
 1.8430	32.4780
 1.8440	32.3840
 1.8450	32.2970
 1.8460	32.1890
 1.8470	32.0750
 1.8480	31.9460
 1.8490	31.7900
 1.8500	31.6340
 1.8510	31.4710
 1.8520	31.3000
 1.8530	31.1080
 1.8540	30.9070
 1.8550	30.6790
 1.8560	30.4290
 1.8570	30.1690
 1.8580	29.8900
 1.8590	29.5990
 1.8600	29.2960
 1.8610	28.9710
 1.8620	28.6340
 1.8630	28.2840
 1.8640	27.9120
 1.8650	27.5200
 1.8660	27.1080
 1.8670	26.6830
 1.8680	26.2400
 1.8690	25.7740
 1.8700	25.2990
 1.8710	24.8100
 1.8720	24.3050
 1.8730	23.7880
 1.8740	23.2750
 1.8750	22.7550
 1.8760	22.2130
 1.8770	21.6690
 1.8780	21.1350
 1.8790	20.5980
 1.8800	20.0690
 1.8810	19.5480
 1.8820	19.0390
 1.8830	18.5260
 1.8840	18.0210
 1.8850	17.5380
 1.8860	17.0730
 1.8870	16.6280
 1.8880	16.1970
 1.8890	15.7840
 1.8900	15.3870
 1.8910	15.0190
 1.8920	14.6690
 1.8930	14.3520
 1.8940	14.0470
 1.8950	13.7750
 1.8960	13.5200
 1.8970	13.2790
 1.8980	13.0820
 1.8990	12.8990
 1.9000	12.7200
 1.9010	12.5580
 1.9020	12.4080
 1.9030	12.2660
 1.9040	12.1360
 1.9050	12.0290
 1.9060	11.9340
 1.9070	11.8480
 1.9080	11.7790
 1.9090	11.7200
 1.9100	11.6680
 1.9110	11.6230
 1.9120	11.5930
 1.9130	11.5580
 1.9140	11.5260
 1.9150	11.4960
 1.9160	11.4710
 1.9170	11.4400
 1.9180	11.4160
 1.9190	11.4030
 1.9200	11.3960
 1.9210	11.3950
 1.9220	11.3940
 1.9230	11.3990
 1.9240	11.4040
 1.9250	11.4100
 1.9260	11.4150
 1.9270	11.4210
 1.9280	11.4290
 1.9290	11.4420
 1.9300	11.4580
 1.9310	11.4780
 1.9320	11.4960
 1.9330	11.5170
 1.9340	11.5370
 1.9350	11.5590
 1.9360	11.5850
 1.9370	11.6130
 1.9380	11.6380
 1.9390	11.6730
 1.9400	11.7200
 1.9410	11.7640
 1.9420	11.8030
 1.9430	11.8300
 1.9440	11.8600
 1.9450	11.8730
 1.9460	11.9000
 1.9470	11.9340
 1.9480	11.9760
 1.9490	12.0260
 1.9500	12.0810
 1.9510	12.1310
 1.9520	12.1710
 1.9530	12.2060
 1.9540	12.2470
 1.9550	12.2900
 1.9560	12.3380
 1.9570	12.3780
 1.9580	12.4130
 1.9590	12.4540
 1.9600	12.4930
 1.9610	12.5440
 1.9620	12.6040
 1.9630	12.6560
 1.9640	12.7280
 1.9650	12.7890
 1.9660	12.8440
 1.9670	12.9030
 1.9680	12.9600
 1.9690	13.0090
 1.9700	13.0660
 1.9710	13.1290
 1.9720	13.1900
 1.9730	13.2560
 1.9740	13.3170
 1.9750	13.3760
 1.9760	13.4350
 1.9770	13.4980
 1.9780	13.5490
 1.9790	13.6050
 1.9800	13.6600
 1.9810	13.7230
 1.9820	13.7870
 1.9830	13.8570
 1.9840	13.9380
 1.9850	14.0130
 1.9860	14.0890
 1.9870	14.1620
 1.9880	14.2360
 1.9890	14.3060
 1.9900	14.3760
 1.9910	14.4510
 1.9920	14.5290
 1.9930	14.6140
 1.9940	14.6930
 1.9950	14.7730
 1.9960	14.8550
 1.9970	14.9320
 1.9980	15.0120
 1.9990	15.1020
 2.0000	15.1800
 2.0010	15.2520
 2.0020	15.3300
 2.0030	15.3990
 2.0040	15.4680
 2.0050	15.5370
 2.0060	15.6050
 2.0070	15.6730
 2.0080	15.7420
 2.0090	15.8090
 2.0100	15.8750
 2.0110	15.9390
 2.0120	15.9980
 2.0130	16.0630
 2.0140	16.1300
 2.0150	16.1960
 2.0160	16.2680
 2.0170	16.3470
 2.0180	16.4170
 2.0190	16.4790
 2.0200	16.5530
 2.0210	16.6320
 2.0220	16.7070
 2.0230	16.7970
 2.0240	16.8680
 2.0250	16.9210
 2.0260	16.9790
 2.0270	17.0260
 2.0280	17.0780
 2.0290	17.1380
 2.0300	17.2020
 2.0310	17.2690
 2.0320	17.3500
 2.0330	17.4120
 2.0340	17.4720
 2.0350	17.5270
 2.0360	17.5650
 2.0370	17.6150
 2.0380	17.6730
 2.0390	17.7280
 2.0400	17.7870
 2.0410	17.8430
 2.0420	17.9010
 2.0430	17.9530
 2.0440	18.0110
 2.0450	18.0790
 2.0460	18.1320
 2.0470	18.1840
 2.0480	18.2300
 2.0490	18.2610
 2.0500	18.3010
 2.0510	18.3450
 2.0520	18.3850
 2.0530	18.4220
 2.0540	18.4650
 2.0550	18.5100
 2.0560	18.5600
 2.0570	18.6060
 2.0580	18.6650
 2.0590	18.7190
 2.0600	18.7780
 2.0610	18.8220
 2.0620	18.8550
 2.0630	18.9010
 2.0640	18.9380
 2.0650	18.9890
 2.0660	19.0650
 2.0670	19.1270
 2.0680	19.1800
 2.0690	19.2410
 2.0700	19.3110
 2.0710	19.3700
 2.0720	19.4290
 2.0730	19.4860
 2.0740	19.5290
 2.0750	19.5510
 2.0760	19.5910
 2.0770	19.6230
 2.0780	19.6770
 2.0790	19.7580
 2.0800	19.8170
 2.0810	19.8810
 2.0820	19.9330
 2.0830	19.9610
 2.0840	20.0040
 2.0850	20.0540
 2.0860	20.1020
 2.0870	20.1580
 2.0880	20.2040
 2.0890	20.2540
 2.0900	20.3030
 2.0910	20.3490
 2.0920	20.3930
 2.0930	20.4380
 2.0940	20.4830
 2.0950	20.5240
 2.0960	20.5620
 2.0970	20.6060
 2.0980	20.6460
 2.0990	20.6920
 2.1000	20.7520
 2.1010	20.8030
 2.1020	20.8540
 2.1030	20.9020
 2.1040	20.9480
 2.1050	20.9890
 2.1060	21.0330
 2.1070	21.0730
 2.1080	21.1250
 2.1090	21.1880
 2.1100	21.2410
 2.1110	21.3050
 2.1120	21.3510
 2.1130	21.3750
 2.1140	21.4160
 2.1150	21.4570
 2.1160	21.4960
 2.1170	21.5490
 2.1180	21.5860
 2.1190	21.6080
 2.1200	21.6360
 2.1210	21.6580
 2.1220	21.6850
 2.1230	21.7160
 2.1240	21.7520
 2.1250	21.7900
 2.1260	21.8300
 2.1270	21.8710
 2.1280	21.9220
 2.1290	21.9600
 2.1300	21.9950
 2.1310	22.0280
 2.1320	22.0470
 2.1330	22.0780
 2.1340	22.1180
 2.1350	22.1500
 2.1360	22.1840
 2.1370	22.2130
 2.1380	22.2350
 2.1390	22.2570
 2.1400	22.2710
 2.1410	22.2960
 2.1420	22.3160
 2.1430	22.3340
 2.1440	22.3550
 2.1450	22.3760
 2.1460	22.4000
 2.1470	22.4240
 2.1480	22.4520
 2.1490	22.4850
 2.1500	22.5130
 2.1510	22.5450
 2.1520	22.5660
 2.1530	22.5710
 2.1540	22.5900
 2.1550	22.6160
 2.1560	22.6330
 2.1570	22.6570
 2.1580	22.6740
 2.1590	22.6790
 2.1600	22.6800
 2.1610	22.6860
 2.1620	22.7060
 2.1630	22.7260
 2.1640	22.7560
 2.1650	22.7690
 2.1660	22.7790
 2.1670	22.7880
 2.1680	22.7810
 2.1690	22.7910
 2.1700	22.8100
 2.1710	22.8260
 2.1720	22.8480
 2.1730	22.8640
 2.1740	22.8720
 2.1750	22.8870
 2.1760	22.9080
 2.1770	22.9230
 2.1780	22.9310
 2.1790	22.9510
 2.1800	22.9760
 2.1810	22.9960
 2.1820	23.0130
 2.1830	23.0530
 2.1840	23.0720
 2.1850	23.0760
 2.1860	23.0940
 2.1870	23.1180
 2.1880	23.1380
 2.1890	23.1600
 2.1900	23.1820
 2.1910	23.2060
 2.1920	23.2220
 2.1930	23.2380
 2.1940	23.2470
 2.1950	23.2480
 2.1960	23.2500
 2.1970	23.2450
 2.1980	23.2500
 2.1990	23.2660
 2.2000	23.2680
 2.2010	23.2700
 2.2020	23.2640
 2.2030	23.2300
 2.2040	23.2170
 2.2050	23.2080
 2.2060	23.2140
 2.2070	23.2160
 2.2080	23.2320
 2.2090	23.2340
 2.2100	23.2270
 2.2110	23.2280
 2.2120	23.2350
 2.2130	23.2320
 2.2140	23.2340
 2.2150	23.2190
 2.2160	23.1770
 2.2170	23.1610
 2.2180	23.1540
 2.2190	23.1370
 2.2200	23.1350
 2.2210	23.1150
 2.2220	23.0760
 2.2230	23.0400
 2.2240	22.9950
 2.2250	22.9530
 2.2260	22.9020
 2.2270	22.8610
 2.2280	22.8410
 2.2290	22.8010
 2.2300	22.7540
 2.2310	22.7010
 2.2320	22.6680
 2.2330	22.6150
 2.2340	22.5470
 2.2350	22.4820
 2.2360	22.4110
 2.2370	22.3010
 2.2380	22.2310
 2.2390	22.1880
 2.2400	22.1290
 2.2410	22.0720
 2.2420	22.0120
 2.2430	21.9520
 2.2440	21.8820
 2.2450	21.7940
 2.2460	21.7270
 2.2470	21.6650
 2.2480	21.6030
 2.2490	21.5590
 2.2500	21.5030
 2.2510	21.4390
 2.2520	21.3680
 2.2530	21.2950
 2.2540	21.2140
 2.2550	21.1020
 2.2560	21.0240
 2.2570	20.9680
 2.2580	20.9020
 2.2590	20.8600
 2.2600	20.7980
 2.2610	20.7220
 2.2620	20.6280
 2.2630	20.5400
 2.2640	20.4530
 2.2650	20.3940
 2.2660	20.3370
 2.2670	20.2710
 2.2680	20.2220
 2.2690	20.1500
 2.2700	20.0480
 2.2710	19.9830
 2.2720	19.9250
 2.2730	19.8740
 2.2740	19.8480
 2.2750	19.8040
 2.2760	19.7620
 2.2770	19.7050
 2.2780	19.6430
 2.2790	19.5730
 2.2800	19.4820
 2.2810	19.4150
 2.2820	19.3490
 2.2830	19.2910
 2.2840	19.2500
 2.2850	19.2000
 2.2860	19.1510
 2.2870	19.1050
 2.2880	19.0590
 2.2890	19.0200
 2.2900	18.9950
 2.2910	18.9480
 2.2920	18.8900
 2.2930	18.8310
 2.2940	18.7520
 2.2950	18.6880
 2.2960	18.6240
 2.2970	18.5750
 2.2980	18.5490
 2.2990	18.5060
 2.3000	18.4640
 2.3010	18.4370
 2.3020	18.3860
 2.3030	18.3460
 2.3040	18.3300
 2.3050	18.3000
 2.3060	18.2600
 2.3070	18.2160
 2.3080	18.1720
 2.3090	18.1330
 2.3100	18.1210
 2.3110	18.1250
 2.3120	18.1180
 2.3130	18.1180
 2.3140	18.1110
 2.3150	18.1040
 2.3160	18.0770
 2.3170	18.0300
 2.3180	17.9980
 2.3190	17.9510
 2.3200	17.9340
 2.3210	17.9520
 2.3220	17.9480
 2.3230	17.9510
 2.3240	17.9370
 2.3250	17.8990
 2.3260	17.8800
 2.3270	17.8750
 2.3280	17.8400
 2.3290	17.8020
 2.3300	17.7670
 2.3310	17.7020
 2.3320	17.6640
 2.3330	17.6500
 2.3340	17.6230
 2.3350	17.5990
 2.3360	17.5670
 2.3370	17.5290
 2.3380	17.4870
 2.3390	17.4360
 2.3400	17.3890
 2.3410	17.3360
 2.3420	17.2940
 2.3430	17.2670
 2.3440	17.2220
 2.3450	17.1720
 2.3460	17.1350
 2.3470	17.0840
 2.3480	17.0510
 2.3490	17.0530
 2.3500	17.0270
 2.3510	16.9830
 2.3520	16.9460
 2.3530	16.9050
 2.3540	16.8510
 2.3550	16.8280
 2.3560	16.8300
 2.3570	16.8040
 2.3580	16.8140
 2.3590	16.8000
 2.3600	16.7750
 2.3610	16.7400
 2.3620	16.6780
 2.3630	16.6230
 2.3640	16.5590
 2.3650	16.5440
 2.3660	16.5410
 2.3670	16.5450
 2.3680	16.5700
 2.3690	16.5300
 2.3700	16.5220
 2.3710	16.5180
 2.3720	16.4460
 2.3730	16.4570
 2.3740	16.4210
 2.3750	16.3170
 2.3760	16.2860
 2.3770	16.2040
 2.3780	16.1160
 2.3790	16.0890
 2.3800	16.0680
 2.3810	16.0360
 2.3820	16.0040
 2.3830	15.9700
 2.3840	15.9100
 2.3850	15.8690
 2.3860	15.8610
 2.3870	15.8440
 2.3880	15.8360
 2.3890	15.8410
 2.3900	15.8100
 2.3910	15.7640
 2.3920	15.7110
 2.3930	15.6430
 2.3940	15.5720
 2.3950	15.5310
 2.3960	15.4900
 2.3970	15.3920
 2.3980	15.3290
 2.3990	15.2970
 2.4000	15.2490
 2.4010	15.2430
 2.4020	15.2680
 2.4030	15.2790
 2.4040	15.2670
 2.4050	15.2570
 2.4060	15.2290
 2.4070	15.1750
 2.4080	15.1100
 2.4090	15.0410
 2.4100	15.0260
 2.4110	15.0060
 2.4120	14.9470
 2.4130	14.9010
 2.4140	14.8290
 2.4150	14.7340
 2.4160	14.7050
 2.4170	14.7010
 2.4180	14.6740
 2.4190	14.6160
 2.4200	14.5370
 2.4210	14.4910
 2.4220	14.4160
 2.4230	14.3650
 2.4240	14.3370
 2.4250	14.2750
 2.4260	14.2730
 2.4270	14.3200
 2.4280	14.3480
 2.4290	14.3530
 2.4300	14.3500
 2.4310	14.2500
 2.4320	14.0750
 2.4330	13.9500
 2.4340	13.8160
 2.4350	13.7690
 2.4360	13.8910
 2.4370	13.9320
 2.4380	13.9060
 2.4390	13.8550
 2.4400	13.7140
 2.4410	13.6210
 2.4420	13.5690
 2.4430	13.5040
 2.4440	13.4760
 2.4450	13.4440
 2.4460	13.3630
 2.4470	13.3120
 2.4480	13.2670
 2.4490	13.2650
 2.4500	13.3830
 2.4510	13.4640
 2.4520	13.4790
 2.4530	13.4960
 2.4540	13.4140
 2.4550	13.2730
 2.4560	13.1880
 2.4570	13.0950
 2.4580	12.9990
 2.4590	12.9300
 2.4600	12.8760
 2.4610	12.7780
 2.4620	12.6930
 2.4630	12.6570
 2.4640	12.5800
 2.4650	12.5650
 2.4660	12.5400
 2.4670	12.5250
 2.4680	12.6490
 2.4690	12.6880
 2.4700	12.7340
 2.4710	12.8230
 2.4720	12.8100
 2.4730	12.7860
 2.4740	12.7000
 2.4750	12.4740
 2.4760	12.4100
 2.4770	12.3160
 2.4780	12.3170
 2.4790	12.4550
 2.4800	12.4870
 2.4810	12.6520
 2.4820	12.5490
 2.4830	12.5350
 2.4840	12.5770
 2.4850	12.2590
 2.4860	12.2760
 2.4870	12.3340
 2.4880	12.2140
 2.4890	12.3950
 2.4900	12.4360
 2.4910	12.5300
 2.4920	12.7470
 2.4930	12.7470
 2.4940	12.6330
 2.4950	12.3560
 2.4960	12.2180
 2.4970	12.1000
 2.4980	12.0200
 2.4990	12.1540
 2.5000	12.1860
