Name: Melaleuca linariifolia
Type: vegetation
Class: Tree
Genus: Melaleuca
Species: linariifolia
Sample No.: JPL197
Owner: JPL
Wavelength Range: VSWIR
Origin: 34.12556; -118.11365; WGS84
Collection Date: 10/3/2016
Description: Samples were collected at the Huntington Garden in San Marino California as part of a JPL Subcontract studying HyTES imagery. Samples were taken to JPL and processed within 48 hours of collection. The same leaves were processed in the Nicolet and then measured using the ASD.
Measurement: Bidirectional reflectance
First Column: X
Second Column: Y
X Units: Wavelength (micrometer)
Y Units: Reflectance (percentage)
First X Value: 0.35
Last X Value: 2.5
Number of X Values: 2151
Additional Information: vegetation.tree.melaleuca.linariifolia.vswir.jpl197.jpl.asd.ancillary.txt

 0.3500	 6.2060
 0.3510	 6.2900
 0.3520	 6.2480
 0.3530	 6.1440
 0.3540	 6.0750
 0.3550	 6.0740
 0.3560	 6.0820
 0.3570	 6.0760
 0.3580	 6.0610
 0.3590	 6.1240
 0.3600	 6.1520
 0.3610	 6.0820
 0.3620	 5.9420
 0.3630	 5.9220
 0.3640	 5.9530
 0.3650	 5.9220
 0.3660	 5.8220
 0.3670	 5.8080
 0.3680	 5.8330
 0.3690	 5.7360
 0.3700	 5.7540
 0.3710	 5.7640
 0.3720	 5.7170
 0.3730	 5.7810
 0.3740	 5.7950
 0.3750	 5.7640
 0.3760	 5.7380
 0.3770	 5.6800
 0.3780	 5.6980
 0.3790	 5.7440
 0.3800	 5.6540
 0.3810	 5.6260
 0.3820	 5.6720
 0.3830	 5.7370
 0.3840	 5.6850
 0.3850	 5.6440
 0.3860	 5.6360
 0.3870	 5.6380
 0.3880	 5.6540
 0.3890	 5.6280
 0.3900	 5.5810
 0.3910	 5.6070
 0.3920	 5.6170
 0.3930	 5.6170
 0.3940	 5.6190
 0.3950	 5.6090
 0.3960	 5.5960
 0.3970	 5.5810
 0.3980	 5.5620
 0.3990	 5.5800
 0.4000	 5.5950
 0.4010	 5.5880
 0.4020	 5.5780
 0.4030	 5.5880
 0.4040	 5.6090
 0.4050	 5.6240
 0.4060	 5.6300
 0.4070	 5.6360
 0.4080	 5.6440
 0.4090	 5.6530
 0.4100	 5.6910
 0.4110	 5.7120
 0.4120	 5.7060
 0.4130	 5.7400
 0.4140	 5.7610
 0.4150	 5.7810
 0.4160	 5.8230
 0.4170	 5.8780
 0.4180	 5.9160
 0.4190	 5.9360
 0.4200	 5.9620
 0.4210	 6.0030
 0.4220	 6.0470
 0.4230	 6.0850
 0.4240	 6.1230
 0.4250	 6.1550
 0.4260	 6.1870
 0.4270	 6.2290
 0.4280	 6.2750
 0.4290	 6.3160
 0.4300	 6.3530
 0.4310	 6.3920
 0.4320	 6.4350
 0.4330	 6.4730
 0.4340	 6.4960
 0.4350	 6.5320
 0.4360	 6.5700
 0.4370	 6.6030
 0.4380	 6.6320
 0.4390	 6.6550
 0.4400	 6.6800
 0.4410	 6.7110
 0.4420	 6.7340
 0.4430	 6.7630
 0.4440	 6.8030
 0.4450	 6.8520
 0.4460	 6.8940
 0.4470	 6.9270
 0.4480	 6.9600
 0.4490	 7.0110
 0.4500	 7.0530
 0.4510	 7.0910
 0.4520	 7.1310
 0.4530	 7.1600
 0.4540	 7.1940
 0.4550	 7.2300
 0.4560	 7.2530
 0.4570	 7.2680
 0.4580	 7.2840
 0.4590	 7.3040
 0.4600	 7.3180
 0.4610	 7.3330
 0.4620	 7.3430
 0.4630	 7.3440
 0.4640	 7.3530
 0.4650	 7.3620
 0.4660	 7.3680
 0.4670	 7.3720
 0.4680	 7.3800
 0.4690	 7.3820
 0.4700	 7.3770
 0.4710	 7.3780
 0.4720	 7.3820
 0.4730	 7.3850
 0.4740	 7.3810
 0.4750	 7.3820
 0.4760	 7.3850
 0.4770	 7.3880
 0.4780	 7.3920
 0.4790	 7.4000
 0.4800	 7.4060
 0.4810	 7.4110
 0.4820	 7.4180
 0.4830	 7.4280
 0.4840	 7.4410
 0.4850	 7.4530
 0.4860	 7.4790
 0.4870	 7.5090
 0.4880	 7.5360
 0.4890	 7.5680
 0.4900	 7.6050
 0.4910	 7.6490
 0.4920	 7.6990
 0.4930	 7.7560
 0.4940	 7.8230
 0.4950	 7.8990
 0.4960	 7.9770
 0.4970	 8.0630
 0.4980	 8.1560
 0.4990	 8.2540
 0.5000	 8.3660
 0.5010	 8.4900
 0.5020	 8.6220
 0.5030	 8.7620
 0.5040	 8.9110
 0.5050	 9.0700
 0.5060	 9.2420
 0.5070	 9.4270
 0.5080	 9.6180
 0.5090	 9.8130
 0.5100	10.0150
 0.5110	10.2280
 0.5120	10.4480
 0.5130	10.6760
 0.5140	10.9130
 0.5150	11.1560
 0.5160	11.4020
 0.5170	11.6520
 0.5180	11.8980
 0.5190	12.1540
 0.5200	12.4160
 0.5210	12.6640
 0.5220	12.9150
 0.5230	13.1620
 0.5240	13.3960
 0.5250	13.6200
 0.5260	13.8350
 0.5270	14.0390
 0.5280	14.2290
 0.5290	14.4130
 0.5300	14.5870
 0.5310	14.7460
 0.5320	14.8920
 0.5330	15.0320
 0.5340	15.1610
 0.5350	15.2750
 0.5360	15.3840
 0.5370	15.4890
 0.5380	15.5910
 0.5390	15.6950
 0.5400	15.8100
 0.5410	15.9370
 0.5420	16.0650
 0.5430	16.1680
 0.5440	16.2440
 0.5450	16.2930
 0.5460	16.3170
 0.5470	16.3230
 0.5480	16.3330
 0.5490	16.3570
 0.5500	16.3880
 0.5510	16.4160
 0.5520	16.4350
 0.5530	16.4430
 0.5540	16.4410
 0.5550	16.4290
 0.5560	16.4090
 0.5570	16.3820
 0.5580	16.3450
 0.5590	16.3010
 0.5600	16.2510
 0.5610	16.1980
 0.5620	16.1370
 0.5630	16.0690
 0.5640	15.9910
 0.5650	15.9030
 0.5660	15.8080
 0.5670	15.7060
 0.5680	15.5950
 0.5690	15.4780
 0.5700	15.3570
 0.5710	15.2360
 0.5720	15.1180
 0.5730	15.0050
 0.5740	14.8990
 0.5750	14.8040
 0.5760	14.7170
 0.5770	14.6350
 0.5780	14.5520
 0.5790	14.4740
 0.5800	14.4010
 0.5810	14.3300
 0.5820	14.2590
 0.5830	14.1960
 0.5840	14.1360
 0.5850	14.0750
 0.5860	14.0130
 0.5870	13.9530
 0.5880	13.8940
 0.5890	13.8370
 0.5900	13.7940
 0.5910	13.7620
 0.5920	13.7360
 0.5930	13.7110
 0.5940	13.6870
 0.5950	13.6620
 0.5960	13.6360
 0.5970	13.6130
 0.5980	13.5920
 0.5990	13.5670
 0.6000	13.5340
 0.6010	13.4960
 0.6020	13.4530
 0.6030	13.4070
 0.6040	13.3550
 0.6050	13.2930
 0.6060	13.2230
 0.6070	13.1480
 0.6080	13.0640
 0.6090	12.9890
 0.6100	12.9320
 0.6110	12.8890
 0.6120	12.7890
 0.6130	12.6510
 0.6140	12.5070
 0.6150	12.3910
 0.6160	12.2830
 0.6170	12.1800
 0.6180	12.0890
 0.6190	12.0070
 0.6200	11.9360
 0.6210	11.8730
 0.6220	11.8130
 0.6230	11.7580
 0.6240	11.7120
 0.6250	11.6770
 0.6260	11.6480
 0.6270	11.6250
 0.6280	11.6100
 0.6290	11.6010
 0.6300	11.5940
 0.6310	11.5830
 0.6320	11.5620
 0.6330	11.5310
 0.6340	11.4910
 0.6350	11.4400
 0.6360	11.3740
 0.6370	11.2890
 0.6380	11.1910
 0.6390	11.0800
 0.6400	10.9550
 0.6410	10.8150
 0.6420	10.6680
 0.6430	10.5150
 0.6440	10.3550
 0.6450	10.1950
 0.6460	10.0370
 0.6470	 9.8820
 0.6480	 9.7390
 0.6490	 9.6120
 0.6500	 9.5010
 0.6510	 9.4090
 0.6520	 9.3210
 0.6530	 9.2370
 0.6540	 9.1560
 0.6550	 9.0680
 0.6560	 8.9670
 0.6570	 8.8520
 0.6580	 8.7240
 0.6590	 8.5790
 0.6600	 8.4230
 0.6610	 8.2610
 0.6620	 8.0940
 0.6630	 7.9270
 0.6640	 7.7650
 0.6650	 7.6130
 0.6660	 7.4690
 0.6670	 7.3430
 0.6680	 7.2340
 0.6690	 7.1390
 0.6700	 7.0620
 0.6710	 7.0010
 0.6720	 6.9560
 0.6730	 6.9270
 0.6740	 6.9090
 0.6750	 6.9030
 0.6760	 6.9120
 0.6770	 6.9290
 0.6780	 6.9600
 0.6790	 7.0080
 0.6800	 7.0760
 0.6810	 7.1750
 0.6820	 7.3090
 0.6830	 7.4810
 0.6840	 7.6970
 0.6850	 7.9660
 0.6860	 8.2940
 0.6870	 8.6850
 0.6880	 9.1390
 0.6890	 9.6650
 0.6900	10.2600
 0.6910	10.9180
 0.6920	11.6360
 0.6930	12.4080
 0.6940	13.2280
 0.6950	14.0890
 0.6960	14.9800
 0.6970	15.8910
 0.6980	16.8160
 0.6990	17.7520
 0.7000	18.6890
 0.7010	19.6220
 0.7020	20.5460
 0.7030	21.4510
 0.7040	22.3380
 0.7050	23.2090
 0.7060	24.0640
 0.7070	24.8990
 0.7080	25.7140
 0.7090	26.5120
 0.7100	27.2930
 0.7110	28.0630
 0.7120	28.8240
 0.7130	29.5700
 0.7140	30.2990
 0.7150	31.0150
 0.7160	31.7190
 0.7170	32.4160
 0.7180	33.0930
 0.7190	33.7530
 0.7200	34.4000
 0.7210	35.0270
 0.7220	35.6350
 0.7230	36.2230
 0.7240	36.7890
 0.7250	37.3330
 0.7260	37.8550
 0.7270	38.3540
 0.7280	38.8260
 0.7290	39.2740
 0.7300	39.7000
 0.7310	40.1020
 0.7320	40.4870
 0.7330	40.8480
 0.7340	41.1840
 0.7350	41.5000
 0.7360	41.7950
 0.7370	42.0720
 0.7380	42.3340
 0.7390	42.5760
 0.7400	42.8010
 0.7410	43.0100
 0.7420	43.2040
 0.7430	43.3830
 0.7440	43.5460
 0.7450	43.6950
 0.7460	43.8340
 0.7470	43.9590
 0.7480	44.0730
 0.7490	44.1780
 0.7500	44.2740
 0.7510	44.3600
 0.7520	44.4380
 0.7530	44.5120
 0.7540	44.5760
 0.7550	44.6360
 0.7560	44.6940
 0.7570	44.7480
 0.7580	44.7970
 0.7590	44.8430
 0.7600	44.8870
 0.7610	44.9260
 0.7620	44.9610
 0.7630	44.9950
 0.7640	45.0270
 0.7650	45.0570
 0.7660	45.0850
 0.7670	45.1090
 0.7680	45.1320
 0.7690	45.1550
 0.7700	45.1800
 0.7710	45.2030
 0.7720	45.2190
 0.7730	45.2360
 0.7740	45.2560
 0.7750	45.2770
 0.7760	45.2920
 0.7770	45.3120
 0.7780	45.3340
 0.7790	45.3500
 0.7800	45.3650
 0.7810	45.3830
 0.7820	45.4030
 0.7830	45.4170
 0.7840	45.4340
 0.7850	45.4500
 0.7860	45.4620
 0.7870	45.4740
 0.7880	45.4860
 0.7890	45.4970
 0.7900	45.5070
 0.7910	45.5170
 0.7920	45.5270
 0.7930	45.5370
 0.7940	45.5460
 0.7950	45.5560
 0.7960	45.5620
 0.7970	45.5640
 0.7980	45.5690
 0.7990	45.5750
 0.8000	45.5770
 0.8010	45.5730
 0.8020	45.5790
 0.8030	45.5800
 0.8040	45.5780
 0.8050	45.5790
 0.8060	45.5770
 0.8070	45.5740
 0.8080	45.5710
 0.8090	45.5700
 0.8100	45.5650
 0.8110	45.5610
 0.8120	45.5570
 0.8130	45.5500
 0.8140	45.5420
 0.8150	45.5340
 0.8160	45.5270
 0.8170	45.5190
 0.8180	45.5120
 0.8190	45.5060
 0.8200	45.5020
 0.8210	45.4950
 0.8220	45.4850
 0.8230	45.4740
 0.8240	45.4650
 0.8250	45.4570
 0.8260	45.4500
 0.8270	45.4420
 0.8280	45.4330
 0.8290	45.4230
 0.8300	45.4120
 0.8310	45.4020
 0.8320	45.3920
 0.8330	45.3830
 0.8340	45.3740
 0.8350	45.3660
 0.8360	45.3630
 0.8370	45.3580
 0.8380	45.3510
 0.8390	45.3500
 0.8400	45.3510
 0.8410	45.3500
 0.8420	45.3450
 0.8430	45.3420
 0.8440	45.3400
 0.8450	45.3400
 0.8460	45.3410
 0.8470	45.3420
 0.8480	45.3420
 0.8490	45.3430
 0.8500	45.3460
 0.8510	45.3480
 0.8520	45.3500
 0.8530	45.3550
 0.8540	45.3630
 0.8550	45.3620
 0.8560	45.3620
 0.8570	45.3680
 0.8580	45.3720
 0.8590	45.3760
 0.8600	45.3810
 0.8610	45.3870
 0.8620	45.3950
 0.8630	45.4020
 0.8640	45.4070
 0.8650	45.4110
 0.8660	45.4200
 0.8670	45.4260
 0.8680	45.4300
 0.8690	45.4360
 0.8700	45.4430
 0.8710	45.4520
 0.8720	45.4620
 0.8730	45.4710
 0.8740	45.4810
 0.8750	45.4900
 0.8760	45.4990
 0.8770	45.5100
 0.8780	45.5180
 0.8790	45.5220
 0.8800	45.5250
 0.8810	45.5410
 0.8820	45.5540
 0.8830	45.5620
 0.8840	45.5680
 0.8850	45.5750
 0.8860	45.5820
 0.8870	45.5870
 0.8880	45.5940
 0.8890	45.5990
 0.8900	45.6070
 0.8910	45.6150
 0.8920	45.6190
 0.8930	45.6230
 0.8940	45.6300
 0.8950	45.6360
 0.8960	45.6380
 0.8970	45.6430
 0.8980	45.6490
 0.8990	45.6550
 0.9000	45.6600
 0.9010	45.6640
 0.9020	45.6670
 0.9030	45.6690
 0.9040	45.6730
 0.9050	45.6800
 0.9060	45.6860
 0.9070	45.6860
 0.9080	45.6850
 0.9090	45.6870
 0.9100	45.6890
 0.9110	45.6840
 0.9120	45.6840
 0.9130	45.6930
 0.9140	45.7000
 0.9150	45.6980
 0.9160	45.6960
 0.9170	45.6980
 0.9180	45.7000
 0.9190	45.6930
 0.9200	45.6910
 0.9210	45.6870
 0.9220	45.6850
 0.9230	45.6850
 0.9240	45.6750
 0.9250	45.6560
 0.9260	45.6380
 0.9270	45.6340
 0.9280	45.6200
 0.9290	45.6020
 0.9300	45.5840
 0.9310	45.5710
 0.9320	45.5590
 0.9330	45.5340
 0.9340	45.5010
 0.9350	45.4800
 0.9360	45.4590
 0.9370	45.4300
 0.9380	45.3950
 0.9390	45.3670
 0.9400	45.3450
 0.9410	45.3190
 0.9420	45.2790
 0.9430	45.2320
 0.9440	45.1930
 0.9450	45.1590
 0.9460	45.1190
 0.9470	45.0640
 0.9480	45.0070
 0.9490	44.9480
 0.9500	44.8880
 0.9510	44.8340
 0.9520	44.7660
 0.9530	44.6880
 0.9540	44.6130
 0.9550	44.5480
 0.9560	44.4860
 0.9570	44.4230
 0.9580	44.3610
 0.9590	44.2970
 0.9600	44.2470
 0.9610	44.2000
 0.9620	44.1440
 0.9630	44.0980
 0.9640	44.0580
 0.9650	44.0230
 0.9660	43.9880
 0.9670	43.9520
 0.9680	43.9240
 0.9690	43.9010
 0.9700	43.8780
 0.9710	43.8670
 0.9720	43.8590
 0.9730	43.8390
 0.9740	43.8040
 0.9750	43.7950
 0.9760	43.7860
 0.9770	43.7760
 0.9780	43.7760
 0.9790	43.7780
 0.9800	43.7630
 0.9810	43.7410
 0.9820	43.7390
 0.9830	43.7410
 0.9840	43.7390
 0.9850	43.7400
 0.9860	43.7560
 0.9870	43.7530
 0.9880	43.7580
 0.9890	43.7670
 0.9900	43.7610
 0.9910	43.7590
 0.9920	43.7750
 0.9930	43.7980
 0.9940	43.8100
 0.9950	43.8350
 0.9960	43.8400
 0.9970	43.8400
 0.9980	43.8620
 0.9990	43.8620
 1.0000	43.8860
 1.0010	44.3680
 1.0020	44.3850
 1.0030	44.4030
 1.0040	44.4240
 1.0050	44.4460
 1.0060	44.4700
 1.0070	44.4940
 1.0080	44.5140
 1.0090	44.5270
 1.0100	44.5460
 1.0110	44.5630
 1.0120	44.5830
 1.0130	44.6090
 1.0140	44.6320
 1.0150	44.6540
 1.0160	44.6770
 1.0170	44.7030
 1.0180	44.7220
 1.0190	44.7380
 1.0200	44.7580
 1.0210	44.7800
 1.0220	44.8030
 1.0230	44.8250
 1.0240	44.8490
 1.0250	44.8710
 1.0260	44.8900
 1.0270	44.9090
 1.0280	44.9280
 1.0290	44.9480
 1.0300	44.9680
 1.0310	44.9870
 1.0320	45.0060
 1.0330	45.0280
 1.0340	45.0500
 1.0350	45.0710
 1.0360	45.0950
 1.0370	45.1190
 1.0380	45.1390
 1.0390	45.1550
 1.0400	45.1720
 1.0410	45.1830
 1.0420	45.1990
 1.0430	45.2190
 1.0440	45.2340
 1.0450	45.2480
 1.0460	45.2630
 1.0470	45.2750
 1.0480	45.2880
 1.0490	45.3050
 1.0500	45.3200
 1.0510	45.3330
 1.0520	45.3450
 1.0530	45.3560
 1.0540	45.3660
 1.0550	45.3770
 1.0560	45.3890
 1.0570	45.3990
 1.0580	45.4080
 1.0590	45.4160
 1.0600	45.4220
 1.0610	45.4290
 1.0620	45.4360
 1.0630	45.4410
 1.0640	45.4460
 1.0650	45.4510
 1.0660	45.4530
 1.0670	45.4560
 1.0680	45.4590
 1.0690	45.4610
 1.0700	45.4630
 1.0710	45.4660
 1.0720	45.4660
 1.0730	45.4660
 1.0740	45.4650
 1.0750	45.4620
 1.0760	45.4620
 1.0770	45.4630
 1.0780	45.4600
 1.0790	45.4560
 1.0800	45.4530
 1.0810	45.4470
 1.0820	45.4420
 1.0830	45.4390
 1.0840	45.4340
 1.0850	45.4290
 1.0860	45.4210
 1.0870	45.4120
 1.0880	45.4030
 1.0890	45.3940
 1.0900	45.3830
 1.0910	45.3740
 1.0920	45.3670
 1.0930	45.3580
 1.0940	45.3500
 1.0950	45.3410
 1.0960	45.3320
 1.0970	45.3200
 1.0980	45.3060
 1.0990	45.2920
 1.1000	45.2760
 1.1010	45.2610
 1.1020	45.2450
 1.1030	45.2290
 1.1040	45.2150
 1.1050	45.2000
 1.1060	45.1840
 1.1070	45.1680
 1.1080	45.1520
 1.1090	45.1350
 1.1100	45.1160
 1.1110	45.0970
 1.1120	45.0780
 1.1130	45.0560
 1.1140	45.0330
 1.1150	45.0120
 1.1160	44.9860
 1.1170	44.9580
 1.1180	44.9280
 1.1190	44.8960
 1.1200	44.8610
 1.1210	44.8250
 1.1220	44.7850
 1.1230	44.7430
 1.1240	44.6960
 1.1250	44.6430
 1.1260	44.5840
 1.1270	44.5180
 1.1280	44.4460
 1.1290	44.3680
 1.1300	44.2860
 1.1310	44.1940
 1.1320	44.0960
 1.1330	43.9890
 1.1340	43.8740
 1.1350	43.7520
 1.1360	43.6230
 1.1370	43.4840
 1.1380	43.3380
 1.1390	43.1880
 1.1400	43.0320
 1.1410	42.8720
 1.1420	42.7110
 1.1430	42.5470
 1.1440	42.3850
 1.1450	42.2200
 1.1460	42.0600
 1.1470	41.8990
 1.1480	41.7440
 1.1490	41.5910
 1.1500	41.4470
 1.1510	41.3070
 1.1520	41.1750
 1.1530	41.0520
 1.1540	40.9360
 1.1550	40.8260
 1.1560	40.7240
 1.1570	40.6300
 1.1580	40.5420
 1.1590	40.4630
 1.1600	40.3890
 1.1610	40.3180
 1.1620	40.2540
 1.1630	40.1960
 1.1640	40.1410
 1.1650	40.0900
 1.1660	40.0450
 1.1670	39.9990
 1.1680	39.9540
 1.1690	39.9100
 1.1700	39.8680
 1.1710	39.8270
 1.1720	39.7880
 1.1730	39.7480
 1.1740	39.7090
 1.1750	39.6700
 1.1760	39.6290
 1.1770	39.5900
 1.1780	39.5510
 1.1790	39.5110
 1.1800	39.4710
 1.1810	39.4290
 1.1820	39.3890
 1.1830	39.3530
 1.1840	39.3170
 1.1850	39.2840
 1.1860	39.2530
 1.1870	39.2220
 1.1880	39.1960
 1.1890	39.1710
 1.1900	39.1510
 1.1910	39.1340
 1.1920	39.1190
 1.1930	39.1090
 1.1940	39.1000
 1.1950	39.0930
 1.1960	39.0900
 1.1970	39.0890
 1.1980	39.0910
 1.1990	39.0970
 1.2000	39.1060
 1.2010	39.1150
 1.2020	39.1260
 1.2030	39.1390
 1.2040	39.1550
 1.2050	39.1700
 1.2060	39.1860
 1.2070	39.2060
 1.2080	39.2260
 1.2090	39.2500
 1.2100	39.2780
 1.2110	39.3050
 1.2120	39.3320
 1.2130	39.3610
 1.2140	39.3910
 1.2150	39.4220
 1.2160	39.4560
 1.2170	39.4920
 1.2180	39.5290
 1.2190	39.5660
 1.2200	39.6050
 1.2210	39.6450
 1.2220	39.6840
 1.2230	39.7210
 1.2240	39.7600
 1.2250	39.7990
 1.2260	39.8370
 1.2270	39.8750
 1.2280	39.9100
 1.2290	39.9430
 1.2300	39.9760
 1.2310	40.0090
 1.2320	40.0410
 1.2330	40.0710
 1.2340	40.0990
 1.2350	40.1240
 1.2360	40.1490
 1.2370	40.1740
 1.2380	40.2000
 1.2390	40.2230
 1.2400	40.2460
 1.2410	40.2680
 1.2420	40.2890
 1.2430	40.3100
 1.2440	40.3310
 1.2450	40.3520
 1.2460	40.3710
 1.2470	40.3890
 1.2480	40.4070
 1.2490	40.4240
 1.2500	40.4390
 1.2510	40.4540
 1.2520	40.4690
 1.2530	40.4810
 1.2540	40.4940
 1.2550	40.5050
 1.2560	40.5150
 1.2570	40.5250
 1.2580	40.5340
 1.2590	40.5410
 1.2600	40.5490
 1.2610	40.5540
 1.2620	40.5570
 1.2630	40.5590
 1.2640	40.5600
 1.2650	40.5600
 1.2660	40.5590
 1.2670	40.5580
 1.2680	40.5560
 1.2690	40.5540
 1.2700	40.5500
 1.2710	40.5440
 1.2720	40.5380
 1.2730	40.5300
 1.2740	40.5200
 1.2750	40.5100
 1.2760	40.4980
 1.2770	40.4860
 1.2780	40.4750
 1.2790	40.4600
 1.2800	40.4430
 1.2810	40.4250
 1.2820	40.4020
 1.2830	40.3790
 1.2840	40.3560
 1.2850	40.3290
 1.2860	40.3020
 1.2870	40.2720
 1.2880	40.2410
 1.2890	40.2060
 1.2900	40.1690
 1.2910	40.1300
 1.2920	40.0900
 1.2930	40.0460
 1.2940	40.0020
 1.2950	39.9560
 1.2960	39.9060
 1.2970	39.8550
 1.2980	39.8000
 1.2990	39.7400
 1.3000	39.6790
 1.3010	39.6170
 1.3020	39.5520
 1.3030	39.4810
 1.3040	39.4070
 1.3050	39.3320
 1.3060	39.2530
 1.3070	39.1720
 1.3080	39.0900
 1.3090	39.0020
 1.3100	38.9110
 1.3110	38.8190
 1.3120	38.7230
 1.3130	38.6250
 1.3140	38.5220
 1.3150	38.4160
 1.3160	38.3070
 1.3170	38.1950
 1.3180	38.0790
 1.3190	37.9600
 1.3200	37.8380
 1.3210	37.7110
 1.3220	37.5820
 1.3230	37.4510
 1.3240	37.3170
 1.3250	37.1830
 1.3260	37.0440
 1.3270	36.9020
 1.3280	36.7580
 1.3290	36.6120
 1.3300	36.4650
 1.3310	36.3160
 1.3320	36.1620
 1.3330	36.0100
 1.3340	35.8560
 1.3350	35.6980
 1.3360	35.5420
 1.3370	35.3850
 1.3380	35.2280
 1.3390	35.0760
 1.3400	34.9220
 1.3410	34.7680
 1.3420	34.6160
 1.3430	34.4630
 1.3440	34.3120
 1.3450	34.1640
 1.3460	34.0180
 1.3470	33.8740
 1.3480	33.7310
 1.3490	33.5900
 1.3500	33.4520
 1.3510	33.3150
 1.3520	33.1780
 1.3530	33.0410
 1.3540	32.9030
 1.3550	32.7670
 1.3560	32.6310
 1.3570	32.4930
 1.3580	32.3570
 1.3590	32.2180
 1.3600	32.0760
 1.3610	31.9330
 1.3620	31.7840
 1.3630	31.6300
 1.3640	31.4720
 1.3650	31.3060
 1.3660	31.1360
 1.3670	30.9590
 1.3680	30.7710
 1.3690	30.5740
 1.3700	30.3630
 1.3710	30.1400
 1.3720	29.9030
 1.3730	29.6520
 1.3740	29.3850
 1.3750	29.1000
 1.3760	28.7970
 1.3770	28.4730
 1.3780	28.1260
 1.3790	27.7590
 1.3800	27.3710
 1.3810	26.9580
 1.3820	26.5290
 1.3830	26.0790
 1.3840	25.6140
 1.3850	25.1290
 1.3860	24.6340
 1.3870	24.1190
 1.3880	23.6030
 1.3890	23.0760
 1.3900	22.5410
 1.3910	22.0100
 1.3920	21.4750
 1.3930	20.9390
 1.3940	20.4100
 1.3950	19.8820
 1.3960	19.3630
 1.3970	18.8580
 1.3980	18.3630
 1.3990	17.8890
 1.4000	17.4300
 1.4010	16.9850
 1.4020	16.5610
 1.4030	16.1520
 1.4040	15.7620
 1.4050	15.3920
 1.4060	15.0390
 1.4070	14.7100
 1.4080	14.3980
 1.4090	14.1030
 1.4100	13.8280
 1.4110	13.5670
 1.4120	13.3230
 1.4130	13.0970
 1.4140	12.8850
 1.4150	12.6890
 1.4160	12.5080
 1.4170	12.3370
 1.4180	12.1790
 1.4190	12.0300
 1.4200	11.8930
 1.4210	11.7640
 1.4220	11.6450
 1.4230	11.5360
 1.4240	11.4340
 1.4250	11.3390
 1.4260	11.2520
 1.4270	11.1700
 1.4280	11.0950
 1.4290	11.0240
 1.4300	10.9600
 1.4310	10.9000
 1.4320	10.8480
 1.4330	10.7980
 1.4340	10.7540
 1.4350	10.7130
 1.4360	10.6770
 1.4370	10.6440
 1.4380	10.6150
 1.4390	10.5880
 1.4400	10.5640
 1.4410	10.5430
 1.4420	10.5240
 1.4430	10.5090
 1.4440	10.4950
 1.4450	10.4840
 1.4460	10.4760
 1.4470	10.4700
 1.4480	10.4650
 1.4490	10.4630
 1.4500	10.4610
 1.4510	10.4590
 1.4520	10.4620
 1.4530	10.4650
 1.4540	10.4690
 1.4550	10.4760
 1.4560	10.4850
 1.4570	10.4950
 1.4580	10.5080
 1.4590	10.5240
 1.4600	10.5420
 1.4610	10.5630
 1.4620	10.5880
 1.4630	10.6160
 1.4640	10.6480
 1.4650	10.6830
 1.4660	10.7220
 1.4670	10.7650
 1.4680	10.8110
 1.4690	10.8600
 1.4700	10.9130
 1.4710	10.9690
 1.4720	11.0280
 1.4730	11.0910
 1.4740	11.1560
 1.4750	11.2240
 1.4760	11.2940
 1.4770	11.3660
 1.4780	11.4410
 1.4790	11.5180
 1.4800	11.5970
 1.4810	11.6790
 1.4820	11.7610
 1.4830	11.8430
 1.4840	11.9280
 1.4850	12.0140
 1.4860	12.1020
 1.4870	12.1920
 1.4880	12.2810
 1.4890	12.3700
 1.4900	12.4610
 1.4910	12.5520
 1.4920	12.6450
 1.4930	12.7420
 1.4940	12.8380
 1.4950	12.9350
 1.4960	13.0320
 1.4970	13.1270
 1.4980	13.2240
 1.4990	13.3210
 1.5000	13.4200
 1.5010	13.5190
 1.5020	13.6190
 1.5030	13.7200
 1.5040	13.8210
 1.5050	13.9210
 1.5060	14.0210
 1.5070	14.1210
 1.5080	14.2220
 1.5090	14.3240
 1.5100	14.4280
 1.5110	14.5300
 1.5120	14.6310
 1.5130	14.7310
 1.5140	14.8320
 1.5150	14.9330
 1.5160	15.0340
 1.5170	15.1350
 1.5180	15.2350
 1.5190	15.3350
 1.5200	15.4370
 1.5210	15.5370
 1.5220	15.6360
 1.5230	15.7350
 1.5240	15.8330
 1.5250	15.9310
 1.5260	16.0290
 1.5270	16.1260
 1.5280	16.2240
 1.5290	16.3190
 1.5300	16.4140
 1.5310	16.5080
 1.5320	16.6000
 1.5330	16.6930
 1.5340	16.7860
 1.5350	16.8780
 1.5360	16.9710
 1.5370	17.0610
 1.5380	17.1520
 1.5390	17.2410
 1.5400	17.3300
 1.5410	17.4190
 1.5420	17.5080
 1.5430	17.5950
 1.5440	17.6830
 1.5450	17.7680
 1.5460	17.8540
 1.5470	17.9410
 1.5480	18.0250
 1.5490	18.1100
 1.5500	18.1930
 1.5510	18.2730
 1.5520	18.3560
 1.5530	18.4370
 1.5540	18.5180
 1.5550	18.5970
 1.5560	18.6750
 1.5570	18.7540
 1.5580	18.8320
 1.5590	18.9090
 1.5600	18.9860
 1.5610	19.0610
 1.5620	19.1370
 1.5630	19.2120
 1.5640	19.2860
 1.5650	19.3590
 1.5660	19.4330
 1.5670	19.5050
 1.5680	19.5780
 1.5690	19.6500
 1.5700	19.7200
 1.5710	19.7890
 1.5720	19.8560
 1.5730	19.9240
 1.5740	19.9920
 1.5750	20.0600
 1.5760	20.1280
 1.5770	20.1940
 1.5780	20.2600
 1.5790	20.3250
 1.5800	20.3900
 1.5810	20.4560
 1.5820	20.5200
 1.5830	20.5840
 1.5840	20.6490
 1.5850	20.7100
 1.5860	20.7730
 1.5870	20.8370
 1.5880	20.8990
 1.5890	20.9620
 1.5900	21.0250
 1.5910	21.0850
 1.5920	21.1460
 1.5930	21.2070
 1.5940	21.2660
 1.5950	21.3280
 1.5960	21.3860
 1.5970	21.4450
 1.5980	21.5050
 1.5990	21.5640
 1.6000	21.6230
 1.6010	21.6800
 1.6020	21.7360
 1.6030	21.7920
 1.6040	21.8470
 1.6050	21.9030
 1.6060	21.9580
 1.6070	22.0110
 1.6080	22.0630
 1.6090	22.1130
 1.6100	22.1630
 1.6110	22.2120
 1.6120	22.2610
 1.6130	22.3100
 1.6140	22.3580
 1.6150	22.4040
 1.6160	22.4490
 1.6170	22.4930
 1.6180	22.5380
 1.6190	22.5810
 1.6200	22.6240
 1.6210	22.6650
 1.6220	22.7050
 1.6230	22.7430
 1.6240	22.7810
 1.6250	22.8180
 1.6260	22.8540
 1.6270	22.8880
 1.6280	22.9200
 1.6290	22.9520
 1.6300	22.9820
 1.6310	23.0130
 1.6320	23.0450
 1.6330	23.0750
 1.6340	23.1040
 1.6350	23.1330
 1.6360	23.1590
 1.6370	23.1880
 1.6380	23.2170
 1.6390	23.2450
 1.6400	23.2720
 1.6410	23.2970
 1.6420	23.3200
 1.6430	23.3410
 1.6440	23.3630
 1.6450	23.3810
 1.6460	23.3960
 1.6470	23.4100
 1.6480	23.4220
 1.6490	23.4310
 1.6500	23.4380
 1.6510	23.4410
 1.6520	23.4430
 1.6530	23.4420
 1.6540	23.4380
 1.6550	23.4350
 1.6560	23.4310
 1.6570	23.4240
 1.6580	23.4180
 1.6590	23.4120
 1.6600	23.4020
 1.6610	23.3920
 1.6620	23.3830
 1.6630	23.3720
 1.6640	23.3610
 1.6650	23.3500
 1.6660	23.3360
 1.6670	23.3220
 1.6680	23.3050
 1.6690	23.2880
 1.6700	23.2680
 1.6710	23.2460
 1.6720	23.2210
 1.6730	23.1920
 1.6740	23.1610
 1.6750	23.1270
 1.6760	23.0900
 1.6770	23.0490
 1.6780	23.0040
 1.6790	22.9560
 1.6800	22.9050
 1.6810	22.8520
 1.6820	22.7990
 1.6830	22.7430
 1.6840	22.6860
 1.6850	22.6270
 1.6860	22.5660
 1.6870	22.5040
 1.6880	22.4430
 1.6890	22.3800
 1.6900	22.3180
 1.6910	22.2560
 1.6920	22.1950
 1.6930	22.1340
 1.6940	22.0740
 1.6950	22.0150
 1.6960	21.9580
 1.6970	21.9000
 1.6980	21.8460
 1.6990	21.7930
 1.7000	21.7420
 1.7010	21.6940
 1.7020	21.6460
 1.7030	21.6000
 1.7040	21.5550
 1.7050	21.5110
 1.7060	21.4650
 1.7070	21.4180
 1.7080	21.3740
 1.7090	21.3280
 1.7100	21.2860
 1.7110	21.2470
 1.7120	21.2060
 1.7130	21.1660
 1.7140	21.1260
 1.7150	21.0840
 1.7160	21.0440
 1.7170	21.0060
 1.7180	20.9650
 1.7190	20.9270
 1.7200	20.8880
 1.7210	20.8480
 1.7220	20.8090
 1.7230	20.7680
 1.7240	20.7270
 1.7250	20.6870
 1.7260	20.6480
 1.7270	20.6100
 1.7280	20.5740
 1.7290	20.5390
 1.7300	20.5040
 1.7310	20.4730
 1.7320	20.4430
 1.7330	20.4150
 1.7340	20.3910
 1.7350	20.3650
 1.7360	20.3400
 1.7370	20.3130
 1.7380	20.2860
 1.7390	20.2560
 1.7400	20.2240
 1.7410	20.1870
 1.7420	20.1450
 1.7430	20.1040
 1.7440	20.0600
 1.7450	20.0150
 1.7460	19.9680
 1.7470	19.9200
 1.7480	19.8670
 1.7490	19.8170
 1.7500	19.7650
 1.7510	19.7170
 1.7520	19.6690
 1.7530	19.6230
 1.7540	19.5790
 1.7550	19.5340
 1.7560	19.4910
 1.7570	19.4490
 1.7580	19.4080
 1.7590	19.3670
 1.7600	19.3300
 1.7610	19.2930
 1.7620	19.2590
 1.7630	19.2280
 1.7640	19.1970
 1.7650	19.1660
 1.7660	19.1380
 1.7670	19.1130
 1.7680	19.0890
 1.7690	19.0690
 1.7700	19.0470
 1.7710	19.0220
 1.7720	19.0000
 1.7730	18.9800
 1.7740	18.9600
 1.7750	18.9430
 1.7760	18.9240
 1.7770	18.9040
 1.7780	18.8860
 1.7790	18.8680
 1.7800	18.8540
 1.7810	18.8410
 1.7820	18.8290
 1.7830	18.8180
 1.7840	18.8080
 1.7850	18.7980
 1.7860	18.7910
 1.7870	18.7860
 1.7880	18.7840
 1.7890	18.7810
 1.7900	18.7800
 1.7910	18.7800
 1.7920	18.7800
 1.7930	18.7810
 1.7940	18.7850
 1.7950	18.7890
 1.7960	18.7950
 1.7970	18.8020
 1.7980	18.8090
 1.7990	18.8160
 1.8000	18.8250
 1.8010	18.8330
 1.8020	18.8420
 1.8030	18.8510
 1.8040	18.8600
 1.8050	18.8700
 1.8060	18.8810
 1.8070	18.8930
 1.8080	18.9050
 1.8090	18.9160
 1.8100	18.9290
 1.8110	18.9380
 1.8120	18.9470
 1.8130	18.9540
 1.8140	18.9580
 1.8150	18.9650
 1.8160	18.9720
 1.8170	18.9770
 1.8180	18.9840
 1.8190	18.9870
 1.8200	18.9900
 1.8210	18.9920
 1.8220	18.9930
 1.8230	18.9920
 1.8240	18.9910
 1.8250	18.9890
 1.8260	18.9870
 1.8270	18.9840
 1.8280	18.9790
 1.8290	18.9710
 1.8300	18.9620
 1.8310	18.8090
 1.8320	18.7930
 1.8330	18.7720
 1.8340	18.7460
 1.8350	18.7190
 1.8360	18.6860
 1.8370	18.6490
 1.8380	18.6140
 1.8390	18.5740
 1.8400	18.5330
 1.8410	18.4830
 1.8420	18.4280
 1.8430	18.3650
 1.8440	18.2940
 1.8450	18.2190
 1.8460	18.1360
 1.8470	18.0460
 1.8480	17.9510
 1.8490	17.8470
 1.8500	17.7340
 1.8510	17.6150
 1.8520	17.4850
 1.8530	17.3450
 1.8540	17.1940
 1.8550	17.0340
 1.8560	16.8620
 1.8570	16.6760
 1.8580	16.4820
 1.8590	16.2800
 1.8600	16.0670
 1.8610	15.8430
 1.8620	15.6060
 1.8630	15.3560
 1.8640	15.0890
 1.8650	14.8110
 1.8660	14.5260
 1.8670	14.2230
 1.8680	13.9070
 1.8690	13.5800
 1.8700	13.2380
 1.8710	12.8800
 1.8720	12.5170
 1.8730	12.1480
 1.8740	11.7730
 1.8750	11.3950
 1.8760	11.0150
 1.8770	10.6330
 1.8780	10.2530
 1.8790	 9.8750
 1.8800	 9.5050
 1.8810	 9.1380
 1.8820	 8.7770
 1.8830	 8.4190
 1.8840	 8.0680
 1.8850	 7.7240
 1.8860	 7.3920
 1.8870	 7.0720
 1.8880	 6.7620
 1.8890	 6.4670
 1.8900	 6.1870
 1.8910	 5.9230
 1.8920	 5.6710
 1.8930	 5.4400
 1.8940	 5.2230
 1.8950	 5.0200
 1.8960	 4.8320
 1.8970	 4.6610
 1.8980	 4.5040
 1.8990	 4.3630
 1.9000	 4.2310
 1.9010	 4.1130
 1.9020	 4.0030
 1.9030	 3.9030
 1.9040	 3.8130
 1.9050	 3.7330
 1.9060	 3.6620
 1.9070	 3.5990
 1.9080	 3.5430
 1.9090	 3.4920
 1.9100	 3.4460
 1.9110	 3.4030
 1.9120	 3.3620
 1.9130	 3.3270
 1.9140	 3.2960
 1.9150	 3.2720
 1.9160	 3.2530
 1.9170	 3.2340
 1.9180	 3.2160
 1.9190	 3.1970
 1.9200	 3.1780
 1.9210	 3.1650
 1.9220	 3.1530
 1.9230	 3.1450
 1.9240	 3.1380
 1.9250	 3.1340
 1.9260	 3.1280
 1.9270	 3.1230
 1.9280	 3.1210
 1.9290	 3.1210
 1.9300	 3.1200
 1.9310	 3.1230
 1.9320	 3.1280
 1.9330	 3.1310
 1.9340	 3.1320
 1.9350	 3.1360
 1.9360	 3.1390
 1.9370	 3.1450
 1.9380	 3.1540
 1.9390	 3.1650
 1.9400	 3.1730
 1.9410	 3.1820
 1.9420	 3.1920
 1.9430	 3.2020
 1.9440	 3.2140
 1.9450	 3.2290
 1.9460	 3.2410
 1.9470	 3.2500
 1.9480	 3.2630
 1.9490	 3.2760
 1.9500	 3.2920
 1.9510	 3.3100
 1.9520	 3.3320
 1.9530	 3.3500
 1.9540	 3.3690
 1.9550	 3.3880
 1.9560	 3.4070
 1.9570	 3.4250
 1.9580	 3.4440
 1.9590	 3.4630
 1.9600	 3.4820
 1.9610	 3.5030
 1.9620	 3.5260
 1.9630	 3.5470
 1.9640	 3.5680
 1.9650	 3.5900
 1.9660	 3.6120
 1.9670	 3.6370
 1.9680	 3.6630
 1.9690	 3.6940
 1.9700	 3.7210
 1.9710	 3.7490
 1.9720	 3.7760
 1.9730	 3.8030
 1.9740	 3.8290
 1.9750	 3.8530
 1.9760	 3.8790
 1.9770	 3.9070
 1.9780	 3.9340
 1.9790	 3.9650
 1.9800	 4.0030
 1.9810	 4.0350
 1.9820	 4.0650
 1.9830	 4.0970
 1.9840	 4.1290
 1.9850	 4.1600
 1.9860	 4.1930
 1.9870	 4.2270
 1.9880	 4.2590
 1.9890	 4.2910
 1.9900	 4.3240
 1.9910	 4.3590
 1.9920	 4.3960
 1.9930	 4.4360
 1.9940	 4.4720
 1.9950	 4.5110
 1.9960	 4.5460
 1.9970	 4.5750
 1.9980	 4.6090
 1.9990	 4.6470
 2.0000	 4.6820
 2.0010	 4.7180
 2.0020	 4.7570
 2.0030	 4.7920
 2.0040	 4.8270
 2.0050	 4.8660
 2.0060	 4.9070
 2.0070	 4.9460
 2.0080	 4.9860
 2.0090	 5.0240
 2.0100	 5.0610
 2.0110	 5.0970
 2.0120	 5.1300
 2.0130	 5.1690
 2.0140	 5.2060
 2.0150	 5.2420
 2.0160	 5.2810
 2.0170	 5.3190
 2.0180	 5.3580
 2.0190	 5.4000
 2.0200	 5.4380
 2.0210	 5.4760
 2.0220	 5.5140
 2.0230	 5.5500
 2.0240	 5.5860
 2.0250	 5.6210
 2.0260	 5.6560
 2.0270	 5.6880
 2.0280	 5.7240
 2.0290	 5.7590
 2.0300	 5.7900
 2.0310	 5.8220
 2.0320	 5.8510
 2.0330	 5.8830
 2.0340	 5.9170
 2.0350	 5.9490
 2.0360	 5.9840
 2.0370	 6.0150
 2.0380	 6.0430
 2.0390	 6.0730
 2.0400	 6.1030
 2.0410	 6.1330
 2.0420	 6.1620
 2.0430	 6.1900
 2.0440	 6.2200
 2.0450	 6.2480
 2.0460	 6.2780
 2.0470	 6.3090
 2.0480	 6.3380
 2.0490	 6.3670
 2.0500	 6.3940
 2.0510	 6.4150
 2.0520	 6.4410
 2.0530	 6.4660
 2.0540	 6.4930
 2.0550	 6.5220
 2.0560	 6.5520
 2.0570	 6.5800
 2.0580	 6.6060
 2.0590	 6.6360
 2.0600	 6.6670
 2.0610	 6.6960
 2.0620	 6.7260
 2.0630	 6.7550
 2.0640	 6.7810
 2.0650	 6.8080
 2.0660	 6.8360
 2.0670	 6.8630
 2.0680	 6.8870
 2.0690	 6.9140
 2.0700	 6.9440
 2.0710	 6.9730
 2.0720	 7.0030
 2.0730	 7.0360
 2.0740	 7.0670
 2.0750	 7.0980
 2.0760	 7.1280
 2.0770	 7.1600
 2.0780	 7.1880
 2.0790	 7.2130
 2.0800	 7.2400
 2.0810	 7.2640
 2.0820	 7.2920
 2.0830	 7.3240
 2.0840	 7.3520
 2.0850	 7.3780
 2.0860	 7.4060
 2.0870	 7.4320
 2.0880	 7.4600
 2.0890	 7.4900
 2.0900	 7.5210
 2.0910	 7.5520
 2.0920	 7.5850
 2.0930	 7.6160
 2.0940	 7.6470
 2.0950	 7.6770
 2.0960	 7.7080
 2.0970	 7.7370
 2.0980	 7.7640
 2.0990	 7.7920
 2.1000	 7.8230
 2.1010	 7.8490
 2.1020	 7.8750
 2.1030	 7.9010
 2.1040	 7.9240
 2.1050	 7.9460
 2.1060	 7.9740
 2.1070	 8.0080
 2.1080	 8.0370
 2.1090	 8.0680
 2.1100	 8.0960
 2.1110	 8.1210
 2.1120	 8.1470
 2.1130	 8.1740
 2.1140	 8.2000
 2.1150	 8.2240
 2.1160	 8.2480
 2.1170	 8.2720
 2.1180	 8.2960
 2.1190	 8.3210
 2.1200	 8.3450
 2.1210	 8.3710
 2.1220	 8.3960
 2.1230	 8.4200
 2.1240	 8.4460
 2.1250	 8.4680
 2.1260	 8.4890
 2.1270	 8.5120
 2.1280	 8.5350
 2.1290	 8.5590
 2.1300	 8.5870
 2.1310	 8.6110
 2.1320	 8.6310
 2.1330	 8.6540
 2.1340	 8.6760
 2.1350	 8.6990
 2.1360	 8.7240
 2.1370	 8.7480
 2.1380	 8.7720
 2.1390	 8.7940
 2.1400	 8.8160
 2.1410	 8.8360
 2.1420	 8.8590
 2.1430	 8.8820
 2.1440	 8.9060
 2.1450	 8.9310
 2.1460	 8.9570
 2.1470	 8.9850
 2.1480	 9.0080
 2.1490	 9.0300
 2.1500	 9.0500
 2.1510	 9.0650
 2.1520	 9.0830
 2.1530	 9.1010
 2.1540	 9.1210
 2.1550	 9.1440
 2.1560	 9.1650
 2.1570	 9.1870
 2.1580	 9.2080
 2.1590	 9.2300
 2.1600	 9.2490
 2.1610	 9.2680
 2.1620	 9.2850
 2.1630	 9.3030
 2.1640	 9.3180
 2.1650	 9.3360
 2.1660	 9.3560
 2.1670	 9.3760
 2.1680	 9.3960
 2.1690	 9.4140
 2.1700	 9.4310
 2.1710	 9.4460
 2.1720	 9.4580
 2.1730	 9.4720
 2.1740	 9.4880
 2.1750	 9.5040
 2.1760	 9.5200
 2.1770	 9.5370
 2.1780	 9.5570
 2.1790	 9.5720
 2.1800	 9.5860
 2.1810	 9.6010
 2.1820	 9.6140
 2.1830	 9.6270
 2.1840	 9.6440
 2.1850	 9.6660
 2.1860	 9.6850
 2.1870	 9.7060
 2.1880	 9.7240
 2.1890	 9.7410
 2.1900	 9.7580
 2.1910	 9.7730
 2.1920	 9.7870
 2.1930	 9.7980
 2.1940	 9.8110
 2.1950	 9.8200
 2.1960	 9.8330
 2.1970	 9.8480
 2.1980	 9.8630
 2.1990	 9.8810
 2.2000	 9.8950
 2.2010	 9.9060
 2.2020	 9.9170
 2.2030	 9.9260
 2.2040	 9.9340
 2.2050	 9.9430
 2.2060	 9.9510
 2.2070	 9.9610
 2.2080	 9.9700
 2.2090	 9.9780
 2.2100	 9.9900
 2.2110	 9.9960
 2.2120	 9.9970
 2.2130	10.0010
 2.2140	10.0040
 2.2150	10.0060
 2.2160	10.0110
 2.2170	10.0090
 2.2180	10.0010
 2.2190	 9.9980
 2.2200	 9.9970
 2.2210	 9.9930
 2.2220	 9.9930
 2.2230	 9.9840
 2.2240	 9.9640
 2.2250	 9.9480
 2.2260	 9.9290
 2.2270	 9.9110
 2.2280	 9.8990
 2.2290	 9.8800
 2.2300	 9.8570
 2.2310	 9.8330
 2.2320	 9.8040
 2.2330	 9.7680
 2.2340	 9.7310
 2.2350	 9.6880
 2.2360	 9.6490
 2.2370	 9.6070
 2.2380	 9.5650
 2.2390	 9.5230
 2.2400	 9.4790
 2.2410	 9.4320
 2.2420	 9.3810
 2.2430	 9.3290
 2.2440	 9.2740
 2.2450	 9.2120
 2.2460	 9.1530
 2.2470	 9.0940
 2.2480	 9.0360
 2.2490	 8.9800
 2.2500	 8.9200
 2.2510	 8.8570
 2.2520	 8.7980
 2.2530	 8.7380
 2.2540	 8.6790
 2.2550	 8.6250
 2.2560	 8.5710
 2.2570	 8.5180
 2.2580	 8.4630
 2.2590	 8.4040
 2.2600	 8.3490
 2.2610	 8.2960
 2.2620	 8.2370
 2.2630	 8.1890
 2.2640	 8.1450
 2.2650	 8.0980
 2.2660	 8.0530
 2.2670	 8.0100
 2.2680	 7.9650
 2.2690	 7.9250
 2.2700	 7.8890
 2.2710	 7.8540
 2.2720	 7.8220
 2.2730	 7.7900
 2.2740	 7.7590
 2.2750	 7.7280
 2.2760	 7.6940
 2.2770	 7.6640
 2.2780	 7.6350
 2.2790	 7.6090
 2.2800	 7.5870
 2.2810	 7.5630
 2.2820	 7.5420
 2.2830	 7.5170
 2.2840	 7.4880
 2.2850	 7.4600
 2.2860	 7.4330
 2.2870	 7.4000
 2.2880	 7.3590
 2.2890	 7.3250
 2.2900	 7.2900
 2.2910	 7.2570
 2.2920	 7.2380
 2.2930	 7.2030
 2.2940	 7.1510
 2.2950	 7.1090
 2.2960	 7.0600
 2.2970	 7.0180
 2.2980	 6.9860
 2.2990	 6.9550
 2.3000	 6.9280
 2.3010	 6.8960
 2.3020	 6.8600
 2.3030	 6.8240
 2.3040	 6.7870
 2.3050	 6.7510
 2.3060	 6.7250
 2.3070	 6.7100
 2.3080	 6.6890
 2.3090	 6.6660
 2.3100	 6.6480
 2.3110	 6.6250
 2.3120	 6.6120
 2.3130	 6.6070
 2.3140	 6.6020
 2.3150	 6.6020
 2.3160	 6.6000
 2.3170	 6.5980
 2.3180	 6.5950
 2.3190	 6.5920
 2.3200	 6.5890
 2.3210	 6.5870
 2.3220	 6.5800
 2.3230	 6.5710
 2.3240	 6.5580
 2.3250	 6.5380
 2.3260	 6.5200
 2.3270	 6.4990
 2.3280	 6.4810
 2.3290	 6.4640
 2.3300	 6.4460
 2.3310	 6.4290
 2.3320	 6.4100
 2.3330	 6.3910
 2.3340	 6.3660
 2.3350	 6.3340
 2.3360	 6.3070
 2.3370	 6.2760
 2.3380	 6.2490
 2.3390	 6.2290
 2.3400	 6.2030
 2.3410	 6.1700
 2.3420	 6.1440
 2.3430	 6.1230
 2.3440	 6.1000
 2.3450	 6.0810
 2.3460	 6.0610
 2.3470	 6.0380
 2.3480	 6.0150
 2.3490	 5.9940
 2.3500	 5.9740
 2.3510	 5.9540
 2.3520	 5.9350
 2.3530	 5.9120
 2.3540	 5.8990
 2.3550	 5.8980
 2.3560	 5.8920
 2.3570	 5.8880
 2.3580	 5.8820
 2.3590	 5.8630
 2.3600	 5.8460
 2.3610	 5.8270
 2.3620	 5.8050
 2.3630	 5.7890
 2.3640	 5.7690
 2.3650	 5.7500
 2.3660	 5.7330
 2.3670	 5.6980
 2.3680	 5.6650
 2.3690	 5.6440
 2.3700	 5.6230
 2.3710	 5.6120
 2.3720	 5.5990
 2.3730	 5.5840
 2.3740	 5.5670
 2.3750	 5.5480
 2.3760	 5.5370
 2.3770	 5.5200
 2.3780	 5.5000
 2.3790	 5.4720
 2.3800	 5.4400
 2.3810	 5.4070
 2.3820	 5.3690
 2.3830	 5.3520
 2.3840	 5.3370
 2.3850	 5.3120
 2.3860	 5.2980
 2.3870	 5.2750
 2.3880	 5.2410
 2.3890	 5.2200
 2.3900	 5.2000
 2.3910	 5.1860
 2.3920	 5.1680
 2.3930	 5.1400
 2.3940	 5.1190
 2.3950	 5.0910
 2.3960	 5.0660
 2.3970	 5.0550
 2.3980	 5.0360
 2.3990	 5.0140
 2.4000	 4.9940
 2.4010	 4.9720
 2.4020	 4.9540
 2.4030	 4.9280
 2.4040	 4.9030
 2.4050	 4.8820
 2.4060	 4.8550
 2.4070	 4.8460
 2.4080	 4.8320
 2.4090	 4.7960
 2.4100	 4.7700
 2.4110	 4.7350
 2.4120	 4.6930
 2.4130	 4.6620
 2.4140	 4.6390
 2.4150	 4.6220
 2.4160	 4.6030
 2.4170	 4.5870
 2.4180	 4.5650
 2.4190	 4.5350
 2.4200	 4.5150
 2.4210	 4.4950
 2.4220	 4.4650
 2.4230	 4.4330
 2.4240	 4.4050
 2.4250	 4.3870
 2.4260	 4.3750
 2.4270	 4.3600
 2.4280	 4.3370
 2.4290	 4.3180
 2.4300	 4.3070
 2.4310	 4.2960
 2.4320	 4.2970
 2.4330	 4.2800
 2.4340	 4.2400
 2.4350	 4.2090
 2.4360	 4.1570
 2.4370	 4.1070
 2.4380	 4.0780
 2.4390	 4.0560
 2.4400	 4.0510
 2.4410	 4.0410
 2.4420	 4.0280
 2.4430	 4.0110
 2.4440	 3.9800
 2.4450	 3.9620
 2.4460	 3.9410
 2.4470	 3.9150
 2.4480	 3.9040
 2.4490	 3.8840
 2.4500	 3.8690
 2.4510	 3.8640
 2.4520	 3.8540
 2.4530	 3.8340
 2.4540	 3.8140
 2.4550	 3.7940
 2.4560	 3.7550
 2.4570	 3.7230
 2.4580	 3.7060
 2.4590	 3.6620
 2.4600	 3.6310
 2.4610	 3.6090
 2.4620	 3.5650
 2.4630	 3.5620
 2.4640	 3.5700
 2.4650	 3.5590
 2.4660	 3.5580
 2.4670	 3.5290
 2.4680	 3.5100
 2.4690	 3.5100
 2.4700	 3.4920
 2.4710	 3.4610
 2.4720	 3.4360
 2.4730	 3.3950
 2.4740	 3.3930
 2.4750	 3.4370
 2.4760	 3.4520
 2.4770	 3.4870
 2.4780	 3.4880
 2.4790	 3.4460
 2.4800	 3.4140
 2.4810	 3.3660
 2.4820	 3.3310
 2.4830	 3.3000
 2.4840	 3.2950
 2.4850	 3.2840
 2.4860	 3.2840
 2.4870	 3.3370
 2.4880	 3.3400
 2.4890	 3.2940
 2.4900	 3.2520
 2.4910	 3.2030
 2.4920	 3.1980
 2.4930	 3.2120
 2.4940	 3.2190
 2.4950	 3.2090
 2.4960	 3.1890
 2.4970	 3.1760
 2.4980	 3.1460
 2.4990	 3.1430
 2.5000	 3.1140
