Name: Taxodium mucronatum
Type: vegetation
Class: Tree
Genus: Taxodium
Species: mucronatum
Sample No.: JPL118
Owner: JPL
Wavelength Range: VSWIR
Origin: 34.12622; -118.11437;; WGS84
Collection Date: 9/7/2016
Description: Samples were collected at the Huntington Garden in San Marino California as part of a JPL Subcontract studying HyTES imagery. Samples were taken to JPL and processed within 48 hours of collection. The same leaves were processed in the Nicolet and then measured using the ASD.
Measurement: Bidirectional reflectance
First Column: X
Second Column: Y
X Units: Wavelength (micrometer)
Y Units: Reflectance (percentage)
First X Value: 0.35
Last X Value: 2.5
Number of X Values: 2151
Additional Information: vegetation.tree.taxodium.mucronatum.vswir.jpl118.jpl.asd.ancillary.txt

 0.3500	 3.3200
 0.3510	 3.2570
 0.3520	 3.3400
 0.3530	 3.3870
 0.3540	 3.2790
 0.3550	 3.2950
 0.3560	 3.3380
 0.3570	 3.3440
 0.3580	 3.2880
 0.3590	 3.2590
 0.3600	 3.2100
 0.3610	 3.1420
 0.3620	 3.1460
 0.3630	 3.1290
 0.3640	 3.1150
 0.3650	 3.1430
 0.3660	 3.1680
 0.3670	 3.1710
 0.3680	 3.1610
 0.3690	 3.1670
 0.3700	 3.1950
 0.3710	 3.2010
 0.3720	 3.1710
 0.3730	 3.1530
 0.3740	 3.1400
 0.3750	 3.1340
 0.3760	 3.1330
 0.3770	 3.1210
 0.3780	 3.1550
 0.3790	 3.2000
 0.3800	 3.1530
 0.3810	 3.1450
 0.3820	 3.1520
 0.3830	 3.1400
 0.3840	 3.1080
 0.3850	 3.1170
 0.3860	 3.1510
 0.3870	 3.1670
 0.3880	 3.1620
 0.3890	 3.1520
 0.3900	 3.1560
 0.3910	 3.1940
 0.3920	 3.2130
 0.3930	 3.2200
 0.3940	 3.2300
 0.3950	 3.2310
 0.3960	 3.2500
 0.3970	 3.2740
 0.3980	 3.2770
 0.3990	 3.2690
 0.4000	 3.2760
 0.4010	 3.2940
 0.4020	 3.2810
 0.4030	 3.2940
 0.4040	 3.3130
 0.4050	 3.3140
 0.4060	 3.3360
 0.4070	 3.3650
 0.4080	 3.3770
 0.4090	 3.3530
 0.4100	 3.3680
 0.4110	 3.3940
 0.4120	 3.4090
 0.4130	 3.4240
 0.4140	 3.4460
 0.4150	 3.4690
 0.4160	 3.4850
 0.4170	 3.5090
 0.4180	 3.5200
 0.4190	 3.5170
 0.4200	 3.5220
 0.4210	 3.5490
 0.4220	 3.5770
 0.4230	 3.5910
 0.4240	 3.6010
 0.4250	 3.6140
 0.4260	 3.6280
 0.4270	 3.6400
 0.4280	 3.6600
 0.4290	 3.6670
 0.4300	 3.6620
 0.4310	 3.6710
 0.4320	 3.6790
 0.4330	 3.6850
 0.4340	 3.6920
 0.4350	 3.7030
 0.4360	 3.7140
 0.4370	 3.7220
 0.4380	 3.7250
 0.4390	 3.7340
 0.4400	 3.7440
 0.4410	 3.7530
 0.4420	 3.7570
 0.4430	 3.7690
 0.4440	 3.7870
 0.4450	 3.8000
 0.4460	 3.8140
 0.4470	 3.8210
 0.4480	 3.8280
 0.4490	 3.8530
 0.4500	 3.8710
 0.4510	 3.8840
 0.4520	 3.8980
 0.4530	 3.9070
 0.4540	 3.9120
 0.4550	 3.9180
 0.4560	 3.9310
 0.4570	 3.9400
 0.4580	 3.9480
 0.4590	 3.9530
 0.4600	 3.9550
 0.4610	 3.9550
 0.4620	 3.9560
 0.4630	 3.9570
 0.4640	 3.9620
 0.4650	 3.9660
 0.4660	 3.9660
 0.4670	 3.9590
 0.4680	 3.9580
 0.4690	 3.9640
 0.4700	 3.9720
 0.4710	 3.9710
 0.4720	 3.9690
 0.4730	 3.9680
 0.4740	 3.9630
 0.4750	 3.9650
 0.4760	 3.9680
 0.4770	 3.9690
 0.4780	 3.9710
 0.4790	 3.9730
 0.4800	 3.9750
 0.4810	 3.9770
 0.4820	 3.9820
 0.4830	 3.9850
 0.4840	 3.9850
 0.4850	 3.9900
 0.4860	 3.9990
 0.4870	 4.0120
 0.4880	 4.0260
 0.4890	 4.0420
 0.4900	 4.0630
 0.4910	 4.0850
 0.4920	 4.1020
 0.4930	 4.1310
 0.4940	 4.1620
 0.4950	 4.1920
 0.4960	 4.2280
 0.4970	 4.2720
 0.4980	 4.3230
 0.4990	 4.3780
 0.5000	 4.4360
 0.5010	 4.5000
 0.5020	 4.5680
 0.5030	 4.6380
 0.5040	 4.7190
 0.5050	 4.8100
 0.5060	 4.9100
 0.5070	 5.0190
 0.5080	 5.1290
 0.5090	 5.2440
 0.5100	 5.3770
 0.5110	 5.5160
 0.5120	 5.6590
 0.5130	 5.8080
 0.5140	 5.9660
 0.5150	 6.1360
 0.5160	 6.3090
 0.5170	 6.4780
 0.5180	 6.6590
 0.5190	 6.8440
 0.5200	 7.0290
 0.5210	 7.2160
 0.5220	 7.3970
 0.5230	 7.5730
 0.5240	 7.7430
 0.5250	 7.9040
 0.5260	 8.0590
 0.5270	 8.2070
 0.5280	 8.3410
 0.5290	 8.4630
 0.5300	 8.5780
 0.5310	 8.6840
 0.5320	 8.7760
 0.5330	 8.8590
 0.5340	 8.9350
 0.5350	 9.0040
 0.5360	 9.0630
 0.5370	 9.1160
 0.5380	 9.1650
 0.5390	 9.2120
 0.5400	 9.2600
 0.5410	 9.3070
 0.5420	 9.3530
 0.5430	 9.3990
 0.5440	 9.4340
 0.5450	 9.4590
 0.5460	 9.4790
 0.5470	 9.4930
 0.5480	 9.5060
 0.5490	 9.5190
 0.5500	 9.5360
 0.5510	 9.5450
 0.5520	 9.5450
 0.5530	 9.5360
 0.5540	 9.5150
 0.5550	 9.4870
 0.5560	 9.4490
 0.5570	 9.4000
 0.5580	 9.3410
 0.5590	 9.2750
 0.5600	 9.2030
 0.5610	 9.1260
 0.5620	 9.0440
 0.5630	 8.9580
 0.5640	 8.8710
 0.5650	 8.7760
 0.5660	 8.6760
 0.5670	 8.5720
 0.5680	 8.4670
 0.5690	 8.3590
 0.5700	 8.2490
 0.5710	 8.1410
 0.5720	 8.0390
 0.5730	 7.9410
 0.5740	 7.8490
 0.5750	 7.7630
 0.5760	 7.6850
 0.5770	 7.6110
 0.5780	 7.5380
 0.5790	 7.4640
 0.5800	 7.3930
 0.5810	 7.3290
 0.5820	 7.2720
 0.5830	 7.2180
 0.5840	 7.1660
 0.5850	 7.1160
 0.5860	 7.0670
 0.5870	 7.0190
 0.5880	 6.9730
 0.5890	 6.9270
 0.5900	 6.8850
 0.5910	 6.8540
 0.5920	 6.8300
 0.5930	 6.8070
 0.5940	 6.7800
 0.5950	 6.7540
 0.5960	 6.7290
 0.5970	 6.7060
 0.5980	 6.6810
 0.5990	 6.6540
 0.6000	 6.6260
 0.6010	 6.5970
 0.6020	 6.5640
 0.6030	 6.5260
 0.6040	 6.4890
 0.6050	 6.4470
 0.6060	 6.4000
 0.6070	 6.3480
 0.6080	 6.2940
 0.6090	 6.2410
 0.6100	 6.1910
 0.6110	 6.1390
 0.6120	 6.0810
 0.6130	 6.0170
 0.6140	 5.9520
 0.6150	 5.8950
 0.6160	 5.8380
 0.6170	 5.7860
 0.6180	 5.7410
 0.6190	 5.6970
 0.6200	 5.6580
 0.6210	 5.6250
 0.6220	 5.5950
 0.6230	 5.5680
 0.6240	 5.5440
 0.6250	 5.5250
 0.6260	 5.5100
 0.6270	 5.5010
 0.6280	 5.4930
 0.6290	 5.4840
 0.6300	 5.4790
 0.6310	 5.4730
 0.6320	 5.4620
 0.6330	 5.4460
 0.6340	 5.4250
 0.6350	 5.3990
 0.6360	 5.3670
 0.6370	 5.3310
 0.6380	 5.2870
 0.6390	 5.2360
 0.6400	 5.1780
 0.6410	 5.1150
 0.6420	 5.0500
 0.6430	 4.9830
 0.6440	 4.9140
 0.6450	 4.8440
 0.6460	 4.7750
 0.6470	 4.7090
 0.6480	 4.6460
 0.6490	 4.5880
 0.6500	 4.5380
 0.6510	 4.4950
 0.6520	 4.4570
 0.6530	 4.4200
 0.6540	 4.3840
 0.6550	 4.3480
 0.6560	 4.3080
 0.6570	 4.2630
 0.6580	 4.2150
 0.6590	 4.1670
 0.6600	 4.1160
 0.6610	 4.0630
 0.6620	 4.0120
 0.6630	 3.9610
 0.6640	 3.9130
 0.6650	 3.8690
 0.6660	 3.8290
 0.6670	 3.7930
 0.6680	 3.7630
 0.6690	 3.7390
 0.6700	 3.7220
 0.6710	 3.7100
 0.6720	 3.7030
 0.6730	 3.6980
 0.6740	 3.7010
 0.6750	 3.7070
 0.6760	 3.7170
 0.6770	 3.7340
 0.6780	 3.7540
 0.6790	 3.7790
 0.6800	 3.8100
 0.6810	 3.8480
 0.6820	 3.8980
 0.6830	 3.9600
 0.6840	 4.0340
 0.6850	 4.1300
 0.6860	 4.2470
 0.6870	 4.3860
 0.6880	 4.5560
 0.6890	 4.7630
 0.6900	 5.0080
 0.6910	 5.2930
 0.6920	 5.6170
 0.6930	 5.9800
 0.6940	 6.3810
 0.6950	 6.8160
 0.6960	 7.2820
 0.6970	 7.7760
 0.6980	 8.2950
 0.6990	 8.8310
 0.7000	 9.3850
 0.7010	 9.9530
 0.7020	10.5300
 0.7030	11.1150
 0.7040	11.7070
 0.7050	12.3010
 0.7060	12.8940
 0.7070	13.4900
 0.7080	14.0880
 0.7090	14.6890
 0.7100	15.2910
 0.7110	15.8930
 0.7120	16.4940
 0.7130	17.0960
 0.7140	17.6960
 0.7150	18.2930
 0.7160	18.8890
 0.7170	19.4800
 0.7180	20.0640
 0.7190	20.6420
 0.7200	21.2130
 0.7210	21.7740
 0.7220	22.3200
 0.7230	22.8510
 0.7240	23.3710
 0.7250	23.8690
 0.7260	24.3470
 0.7270	24.8070
 0.7280	25.2490
 0.7290	25.6690
 0.7300	26.0680
 0.7310	26.4470
 0.7320	26.8030
 0.7330	27.1380
 0.7340	27.4520
 0.7350	27.7480
 0.7360	28.0290
 0.7370	28.2920
 0.7380	28.5340
 0.7390	28.7620
 0.7400	28.9720
 0.7410	29.1670
 0.7420	29.3510
 0.7430	29.5200
 0.7440	29.6760
 0.7450	29.8180
 0.7460	29.9450
 0.7470	30.0650
 0.7480	30.1770
 0.7490	30.2810
 0.7500	30.3690
 0.7510	30.4500
 0.7520	30.5270
 0.7530	30.6000
 0.7540	30.6630
 0.7550	30.7200
 0.7560	30.7730
 0.7570	30.8210
 0.7580	30.8650
 0.7590	30.9070
 0.7600	30.9470
 0.7610	30.9800
 0.7620	31.0110
 0.7630	31.0400
 0.7640	31.0660
 0.7650	31.0890
 0.7660	31.1130
 0.7670	31.1370
 0.7680	31.1580
 0.7690	31.1740
 0.7700	31.1890
 0.7710	31.2040
 0.7720	31.2200
 0.7730	31.2360
 0.7740	31.2510
 0.7750	31.2640
 0.7760	31.2770
 0.7770	31.2880
 0.7780	31.3000
 0.7790	31.3160
 0.7800	31.3290
 0.7810	31.3380
 0.7820	31.3470
 0.7830	31.3590
 0.7840	31.3690
 0.7850	31.3790
 0.7860	31.3880
 0.7870	31.3960
 0.7880	31.4040
 0.7890	31.4120
 0.7900	31.4200
 0.7910	31.4270
 0.7920	31.4330
 0.7930	31.4400
 0.7940	31.4440
 0.7950	31.4490
 0.7960	31.4530
 0.7970	31.4560
 0.7980	31.4580
 0.7990	31.4600
 0.8000	31.4630
 0.8010	31.4660
 0.8020	31.4670
 0.8030	31.4650
 0.8040	31.4630
 0.8050	31.4630
 0.8060	31.4630
 0.8070	31.4610
 0.8080	31.4580
 0.8090	31.4550
 0.8100	31.4510
 0.8110	31.4500
 0.8120	31.4510
 0.8130	31.4460
 0.8140	31.4410
 0.8150	31.4350
 0.8160	31.4290
 0.8170	31.4270
 0.8180	31.4210
 0.8190	31.4150
 0.8200	31.4130
 0.8210	31.4080
 0.8220	31.3990
 0.8230	31.3900
 0.8240	31.3850
 0.8250	31.3780
 0.8260	31.3700
 0.8270	31.3650
 0.8280	31.3610
 0.8290	31.3530
 0.8300	31.3430
 0.8310	31.3370
 0.8320	31.3270
 0.8330	31.3200
 0.8340	31.3150
 0.8350	31.3080
 0.8360	31.3010
 0.8370	31.2950
 0.8380	31.2910
 0.8390	31.2910
 0.8400	31.2870
 0.8410	31.2850
 0.8420	31.2870
 0.8430	31.2880
 0.8440	31.2880
 0.8450	31.2890
 0.8460	31.2910
 0.8470	31.2900
 0.8480	31.2890
 0.8490	31.2870
 0.8500	31.2840
 0.8510	31.2800
 0.8520	31.2810
 0.8530	31.2840
 0.8540	31.2830
 0.8550	31.2870
 0.8560	31.2900
 0.8570	31.2900
 0.8580	31.2930
 0.8590	31.3000
 0.8600	31.3080
 0.8610	31.3130
 0.8620	31.3130
 0.8630	31.3160
 0.8640	31.3210
 0.8650	31.3230
 0.8660	31.3250
 0.8670	31.3270
 0.8680	31.3320
 0.8690	31.3420
 0.8700	31.3460
 0.8710	31.3480
 0.8720	31.3510
 0.8730	31.3590
 0.8740	31.3670
 0.8750	31.3740
 0.8760	31.3800
 0.8770	31.3870
 0.8780	31.3940
 0.8790	31.4010
 0.8800	31.4070
 0.8810	31.4110
 0.8820	31.4140
 0.8830	31.4200
 0.8840	31.4290
 0.8850	31.4360
 0.8860	31.4400
 0.8870	31.4450
 0.8880	31.4530
 0.8890	31.4630
 0.8900	31.4720
 0.8910	31.4790
 0.8920	31.4840
 0.8930	31.4900
 0.8940	31.4950
 0.8950	31.5000
 0.8960	31.5030
 0.8970	31.5120
 0.8980	31.5200
 0.8990	31.5240
 0.9000	31.5260
 0.9010	31.5300
 0.9020	31.5400
 0.9030	31.5520
 0.9040	31.5560
 0.9050	31.5580
 0.9060	31.5610
 0.9070	31.5680
 0.9080	31.5730
 0.9090	31.5740
 0.9100	31.5730
 0.9110	31.5730
 0.9120	31.5770
 0.9130	31.5840
 0.9140	31.5910
 0.9150	31.5930
 0.9160	31.5880
 0.9170	31.5880
 0.9180	31.5900
 0.9190	31.5870
 0.9200	31.5840
 0.9210	31.5830
 0.9220	31.5810
 0.9230	31.5720
 0.9240	31.5640
 0.9250	31.5570
 0.9260	31.5490
 0.9270	31.5350
 0.9280	31.5200
 0.9290	31.5090
 0.9300	31.4970
 0.9310	31.4760
 0.9320	31.4610
 0.9330	31.4400
 0.9340	31.4110
 0.9350	31.3900
 0.9360	31.3690
 0.9370	31.3480
 0.9380	31.3270
 0.9390	31.3050
 0.9400	31.2730
 0.9410	31.2400
 0.9420	31.2080
 0.9430	31.1730
 0.9440	31.1400
 0.9450	31.1070
 0.9460	31.0670
 0.9470	31.0180
 0.9480	30.9710
 0.9490	30.9240
 0.9500	30.8720
 0.9510	30.8080
 0.9520	30.7510
 0.9530	30.6950
 0.9540	30.6330
 0.9550	30.5750
 0.9560	30.5210
 0.9570	30.4670
 0.9580	30.4110
 0.9590	30.3620
 0.9600	30.3210
 0.9610	30.2820
 0.9620	30.2380
 0.9630	30.2090
 0.9640	30.1850
 0.9650	30.1620
 0.9660	30.1400
 0.9670	30.1210
 0.9680	30.1060
 0.9690	30.0950
 0.9700	30.0880
 0.9710	30.0730
 0.9720	30.0570
 0.9730	30.0450
 0.9740	30.0420
 0.9750	30.0380
 0.9760	30.0380
 0.9770	30.0390
 0.9780	30.0390
 0.9790	30.0320
 0.9800	30.0290
 0.9810	30.0290
 0.9820	30.0280
 0.9830	30.0440
 0.9840	30.0560
 0.9850	30.0620
 0.9860	30.0720
 0.9870	30.0870
 0.9880	30.0920
 0.9890	30.0940
 0.9900	30.1100
 0.9910	30.1320
 0.9920	30.1430
 0.9930	30.1460
 0.9940	30.1560
 0.9950	30.1730
 0.9960	30.1960
 0.9970	30.2240
 0.9980	30.2520
 0.9990	30.2580
 1.0000	30.2760
 1.0010	31.2930
 1.0020	31.3100
 1.0030	31.3300
 1.0040	31.3510
 1.0050	31.3710
 1.0060	31.3910
 1.0070	31.4100
 1.0080	31.4300
 1.0090	31.4490
 1.0100	31.4690
 1.0110	31.4890
 1.0120	31.5100
 1.0130	31.5320
 1.0140	31.5530
 1.0150	31.5740
 1.0160	31.5950
 1.0170	31.6170
 1.0180	31.6360
 1.0190	31.6560
 1.0200	31.6770
 1.0210	31.6960
 1.0220	31.7150
 1.0230	31.7350
 1.0240	31.7550
 1.0250	31.7750
 1.0260	31.7940
 1.0270	31.8140
 1.0280	31.8350
 1.0290	31.8550
 1.0300	31.8740
 1.0310	31.8940
 1.0320	31.9150
 1.0330	31.9350
 1.0340	31.9530
 1.0350	31.9700
 1.0360	31.9840
 1.0370	31.9970
 1.0380	32.0130
 1.0390	32.0300
 1.0400	32.0470
 1.0410	32.0640
 1.0420	32.0790
 1.0430	32.0930
 1.0440	32.1060
 1.0450	32.1140
 1.0460	32.1260
 1.0470	32.1400
 1.0480	32.1520
 1.0490	32.1630
 1.0500	32.1750
 1.0510	32.1870
 1.0520	32.1990
 1.0530	32.2090
 1.0540	32.2220
 1.0550	32.2290
 1.0560	32.2320
 1.0570	32.2380
 1.0580	32.2450
 1.0590	32.2490
 1.0600	32.2530
 1.0610	32.2570
 1.0620	32.2600
 1.0630	32.2620
 1.0640	32.2650
 1.0650	32.2670
 1.0660	32.2680
 1.0670	32.2700
 1.0680	32.2710
 1.0690	32.2730
 1.0700	32.2740
 1.0710	32.2750
 1.0720	32.2740
 1.0730	32.2720
 1.0740	32.2700
 1.0750	32.2680
 1.0760	32.2650
 1.0770	32.2630
 1.0780	32.2610
 1.0790	32.2570
 1.0800	32.2530
 1.0810	32.2510
 1.0820	32.2470
 1.0830	32.2420
 1.0840	32.2370
 1.0850	32.2340
 1.0860	32.2280
 1.0870	32.2210
 1.0880	32.2120
 1.0890	32.2050
 1.0900	32.1950
 1.0910	32.1870
 1.0920	32.1810
 1.0930	32.1730
 1.0940	32.1640
 1.0950	32.1550
 1.0960	32.1460
 1.0970	32.1370
 1.0980	32.1280
 1.0990	32.1180
 1.1000	32.1080
 1.1010	32.0970
 1.1020	32.0860
 1.1030	32.0730
 1.1040	32.0590
 1.1050	32.0460
 1.1060	32.0320
 1.1070	32.0190
 1.1080	32.0040
 1.1090	31.9880
 1.1100	31.9740
 1.1110	31.9620
 1.1120	31.9470
 1.1130	31.9330
 1.1140	31.9170
 1.1150	31.8980
 1.1160	31.8790
 1.1170	31.8600
 1.1180	31.8390
 1.1190	31.8160
 1.1200	31.7920
 1.1210	31.7660
 1.1220	31.7370
 1.1230	31.7050
 1.1240	31.6680
 1.1250	31.6260
 1.1260	31.5800
 1.1270	31.5260
 1.1280	31.4660
 1.1290	31.4010
 1.1300	31.3300
 1.1310	31.2520
 1.1320	31.1690
 1.1330	31.0780
 1.1340	30.9790
 1.1350	30.8740
 1.1360	30.7610
 1.1370	30.6410
 1.1380	30.5160
 1.1390	30.3880
 1.1400	30.2550
 1.1410	30.1210
 1.1420	29.9850
 1.1430	29.8480
 1.1440	29.7130
 1.1450	29.5780
 1.1460	29.4470
 1.1470	29.3160
 1.1480	29.1930
 1.1490	29.0730
 1.1500	28.9630
 1.1510	28.8600
 1.1520	28.7640
 1.1530	28.6750
 1.1540	28.5940
 1.1550	28.5190
 1.1560	28.4500
 1.1570	28.3900
 1.1580	28.3370
 1.1590	28.2870
 1.1600	28.2430
 1.1610	28.2040
 1.1620	28.1670
 1.1630	28.1360
 1.1640	28.1070
 1.1650	28.0810
 1.1660	28.0580
 1.1670	28.0360
 1.1680	28.0150
 1.1690	27.9960
 1.1700	27.9790
 1.1710	27.9610
 1.1720	27.9450
 1.1730	27.9280
 1.1740	27.9120
 1.1750	27.8950
 1.1760	27.8790
 1.1770	27.8640
 1.1780	27.8460
 1.1790	27.8280
 1.1800	27.8100
 1.1810	27.7930
 1.1820	27.7760
 1.1830	27.7600
 1.1840	27.7420
 1.1850	27.7250
 1.1860	27.7070
 1.1870	27.6900
 1.1880	27.6760
 1.1890	27.6640
 1.1900	27.6530
 1.1910	27.6450
 1.1920	27.6380
 1.1930	27.6300
 1.1940	27.6250
 1.1950	27.6200
 1.1960	27.6180
 1.1970	27.6190
 1.1980	27.6210
 1.1990	27.6260
 1.2000	27.6310
 1.2010	27.6390
 1.2020	27.6480
 1.2030	27.6580
 1.2040	27.6710
 1.2050	27.6830
 1.2060	27.6970
 1.2070	27.7130
 1.2080	27.7290
 1.2090	27.7450
 1.2100	27.7630
 1.2110	27.7820
 1.2120	27.8020
 1.2130	27.8210
 1.2140	27.8400
 1.2150	27.8600
 1.2160	27.8810
 1.2170	27.9010
 1.2180	27.9230
 1.2190	27.9460
 1.2200	27.9670
 1.2210	27.9900
 1.2220	28.0130
 1.2230	28.0360
 1.2240	28.0600
 1.2250	28.0830
 1.2260	28.1050
 1.2270	28.1260
 1.2280	28.1460
 1.2290	28.1660
 1.2300	28.1870
 1.2310	28.2090
 1.2320	28.2290
 1.2330	28.2480
 1.2340	28.2660
 1.2350	28.2840
 1.2360	28.3010
 1.2370	28.3170
 1.2380	28.3330
 1.2390	28.3500
 1.2400	28.3650
 1.2410	28.3810
 1.2420	28.3960
 1.2430	28.4090
 1.2440	28.4230
 1.2450	28.4370
 1.2460	28.4500
 1.2470	28.4630
 1.2480	28.4760
 1.2490	28.4890
 1.2500	28.5010
 1.2510	28.5110
 1.2520	28.5210
 1.2530	28.5300
 1.2540	28.5390
 1.2550	28.5480
 1.2560	28.5550
 1.2570	28.5600
 1.2580	28.5650
 1.2590	28.5690
 1.2600	28.5730
 1.2610	28.5760
 1.2620	28.5780
 1.2630	28.5790
 1.2640	28.5790
 1.2650	28.5780
 1.2660	28.5780
 1.2670	28.5770
 1.2680	28.5750
 1.2690	28.5710
 1.2700	28.5670
 1.2710	28.5610
 1.2720	28.5560
 1.2730	28.5490
 1.2740	28.5390
 1.2750	28.5290
 1.2760	28.5180
 1.2770	28.5050
 1.2780	28.4920
 1.2790	28.4770
 1.2800	28.4600
 1.2810	28.4420
 1.2820	28.4210
 1.2830	28.3990
 1.2840	28.3750
 1.2850	28.3490
 1.2860	28.3220
 1.2870	28.2940
 1.2880	28.2640
 1.2890	28.2340
 1.2900	28.2000
 1.2910	28.1630
 1.2920	28.1240
 1.2930	28.0820
 1.2940	28.0380
 1.2950	27.9930
 1.2960	27.9450
 1.2970	27.8950
 1.2980	27.8430
 1.2990	27.7890
 1.3000	27.7360
 1.3010	27.6790
 1.3020	27.6200
 1.3030	27.5590
 1.3040	27.4960
 1.3050	27.4310
 1.3060	27.3630
 1.3070	27.2950
 1.3080	27.2230
 1.3090	27.1500
 1.3100	27.0760
 1.3110	26.9980
 1.3120	26.9160
 1.3130	26.8310
 1.3140	26.7450
 1.3150	26.6560
 1.3160	26.5650
 1.3170	26.4750
 1.3180	26.3810
 1.3190	26.2840
 1.3200	26.1860
 1.3210	26.0840
 1.3220	25.9810
 1.3230	25.8750
 1.3240	25.7680
 1.3250	25.6610
 1.3260	25.5520
 1.3270	25.4410
 1.3280	25.3280
 1.3290	25.2140
 1.3300	25.0980
 1.3310	24.9810
 1.3320	24.8620
 1.3330	24.7450
 1.3340	24.6280
 1.3350	24.5110
 1.3360	24.3950
 1.3370	24.2780
 1.3380	24.1620
 1.3390	24.0460
 1.3400	23.9310
 1.3410	23.8180
 1.3420	23.7070
 1.3430	23.5970
 1.3440	23.4880
 1.3450	23.3800
 1.3460	23.2720
 1.3470	23.1670
 1.3480	23.0630
 1.3490	22.9610
 1.3500	22.8600
 1.3510	22.7600
 1.3520	22.6600
 1.3530	22.5620
 1.3540	22.4630
 1.3550	22.3640
 1.3560	22.2650
 1.3570	22.1640
 1.3580	22.0620
 1.3590	21.9590
 1.3600	21.8540
 1.3610	21.7460
 1.3620	21.6350
 1.3630	21.5200
 1.3640	21.4010
 1.3650	21.2740
 1.3660	21.1410
 1.3670	21.0020
 1.3680	20.8540
 1.3690	20.6980
 1.3700	20.5320
 1.3710	20.3560
 1.3720	20.1690
 1.3730	19.9700
 1.3740	19.7620
 1.3750	19.5390
 1.3760	19.3020
 1.3770	19.0500
 1.3780	18.7800
 1.3790	18.4950
 1.3800	18.1970
 1.3810	17.8810
 1.3820	17.5560
 1.3830	17.2170
 1.3840	16.8690
 1.3850	16.5090
 1.3860	16.1450
 1.3870	15.7690
 1.3880	15.3970
 1.3890	15.0200
 1.3900	14.6430
 1.3910	14.2700
 1.3920	13.8990
 1.3930	13.5290
 1.3940	13.1660
 1.3950	12.8080
 1.3960	12.4600
 1.3970	12.1250
 1.3980	11.8010
 1.3990	11.4930
 1.4000	11.1980
 1.4010	10.9140
 1.4020	10.6450
 1.4030	10.3890
 1.4040	10.1480
 1.4050	 9.9220
 1.4060	 9.7090
 1.4070	 9.5120
 1.4080	 9.3280
 1.4090	 9.1540
 1.4100	 8.9950
 1.4110	 8.8450
 1.4120	 8.7070
 1.4130	 8.5790
 1.4140	 8.4590
 1.4150	 8.3500
 1.4160	 8.2490
 1.4170	 8.1550
 1.4180	 8.0690
 1.4190	 7.9890
 1.4200	 7.9160
 1.4210	 7.8480
 1.4220	 7.7850
 1.4230	 7.7280
 1.4240	 7.6750
 1.4250	 7.6260
 1.4260	 7.5820
 1.4270	 7.5410
 1.4280	 7.5040
 1.4290	 7.4700
 1.4300	 7.4390
 1.4310	 7.4110
 1.4320	 7.3860
 1.4330	 7.3640
 1.4340	 7.3440
 1.4350	 7.3260
 1.4360	 7.3110
 1.4370	 7.2960
 1.4380	 7.2840
 1.4390	 7.2750
 1.4400	 7.2680
 1.4410	 7.2610
 1.4420	 7.2560
 1.4430	 7.2530
 1.4440	 7.2500
 1.4450	 7.2490
 1.4460	 7.2490
 1.4470	 7.2510
 1.4480	 7.2540
 1.4490	 7.2570
 1.4500	 7.2620
 1.4510	 7.2670
 1.4520	 7.2730
 1.4530	 7.2800
 1.4540	 7.2880
 1.4550	 7.2980
 1.4560	 7.3090
 1.4570	 7.3210
 1.4580	 7.3340
 1.4590	 7.3500
 1.4600	 7.3680
 1.4610	 7.3880
 1.4620	 7.4100
 1.4630	 7.4340
 1.4640	 7.4600
 1.4650	 7.4890
 1.4660	 7.5200
 1.4670	 7.5530
 1.4680	 7.5890
 1.4690	 7.6270
 1.4700	 7.6670
 1.4710	 7.7100
 1.4720	 7.7550
 1.4730	 7.8010
 1.4740	 7.8500
 1.4750	 7.9000
 1.4760	 7.9520
 1.4770	 8.0050
 1.4780	 8.0590
 1.4790	 8.1150
 1.4800	 8.1720
 1.4810	 8.2300
 1.4820	 8.2890
 1.4830	 8.3480
 1.4840	 8.4090
 1.4850	 8.4720
 1.4860	 8.5340
 1.4870	 8.5990
 1.4880	 8.6630
 1.4890	 8.7280
 1.4900	 8.7950
 1.4910	 8.8620
 1.4920	 8.9300
 1.4930	 8.9980
 1.4940	 9.0670
 1.4950	 9.1370
 1.4960	 9.2070
 1.4970	 9.2780
 1.4980	 9.3480
 1.4990	 9.4190
 1.5000	 9.4900
 1.5010	 9.5620
 1.5020	 9.6350
 1.5030	 9.7090
 1.5040	 9.7820
 1.5050	 9.8550
 1.5060	 9.9290
 1.5070	10.0020
 1.5080	10.0760
 1.5090	10.1500
 1.5100	10.2250
 1.5110	10.2990
 1.5120	10.3740
 1.5130	10.4480
 1.5140	10.5230
 1.5150	10.5980
 1.5160	10.6720
 1.5170	10.7470
 1.5180	10.8220
 1.5190	10.8970
 1.5200	10.9720
 1.5210	11.0450
 1.5220	11.1190
 1.5230	11.1920
 1.5240	11.2650
 1.5250	11.3390
 1.5260	11.4120
 1.5270	11.4840
 1.5280	11.5580
 1.5290	11.6300
 1.5300	11.7020
 1.5310	11.7740
 1.5320	11.8450
 1.5330	11.9170
 1.5340	11.9880
 1.5350	12.0590
 1.5360	12.1290
 1.5370	12.1990
 1.5380	12.2690
 1.5390	12.3390
 1.5400	12.4090
 1.5410	12.4790
 1.5420	12.5480
 1.5430	12.6160
 1.5440	12.6850
 1.5450	12.7520
 1.5460	12.8180
 1.5470	12.8850
 1.5480	12.9510
 1.5490	13.0190
 1.5500	13.0850
 1.5510	13.1500
 1.5520	13.2150
 1.5530	13.2790
 1.5540	13.3420
 1.5550	13.4060
 1.5560	13.4700
 1.5570	13.5330
 1.5580	13.5950
 1.5590	13.6560
 1.5600	13.7160
 1.5610	13.7760
 1.5620	13.8360
 1.5630	13.8960
 1.5640	13.9540
 1.5650	14.0130
 1.5660	14.0710
 1.5670	14.1280
 1.5680	14.1860
 1.5690	14.2420
 1.5700	14.2980
 1.5710	14.3550
 1.5720	14.4080
 1.5730	14.4620
 1.5740	14.5160
 1.5750	14.5680
 1.5760	14.6220
 1.5770	14.6760
 1.5780	14.7280
 1.5790	14.7810
 1.5800	14.8320
 1.5810	14.8840
 1.5820	14.9360
 1.5830	14.9870
 1.5840	15.0380
 1.5850	15.0880
 1.5860	15.1370
 1.5870	15.1860
 1.5880	15.2340
 1.5890	15.2820
 1.5900	15.3290
 1.5910	15.3750
 1.5920	15.4220
 1.5930	15.4680
 1.5940	15.5140
 1.5950	15.5610
 1.5960	15.6060
 1.5970	15.6510
 1.5980	15.6950
 1.5990	15.7370
 1.6000	15.7800
 1.6010	15.8220
 1.6020	15.8640
 1.6030	15.9070
 1.6040	15.9490
 1.6050	15.9900
 1.6060	16.0310
 1.6070	16.0700
 1.6080	16.1100
 1.6090	16.1480
 1.6100	16.1860
 1.6110	16.2240
 1.6120	16.2600
 1.6130	16.2960
 1.6140	16.3310
 1.6150	16.3650
 1.6160	16.3990
 1.6170	16.4330
 1.6180	16.4650
 1.6190	16.4970
 1.6200	16.5280
 1.6210	16.5570
 1.6220	16.5850
 1.6230	16.6130
 1.6240	16.6400
 1.6250	16.6670
 1.6260	16.6920
 1.6270	16.7170
 1.6280	16.7410
 1.6290	16.7660
 1.6300	16.7900
 1.6310	16.8150
 1.6320	16.8380
 1.6330	16.8630
 1.6340	16.8890
 1.6350	16.9160
 1.6360	16.9450
 1.6370	16.9720
 1.6380	16.9980
 1.6390	17.0250
 1.6400	17.0510
 1.6410	17.0760
 1.6420	17.1000
 1.6430	17.1230
 1.6440	17.1450
 1.6450	17.1660
 1.6460	17.1850
 1.6470	17.2040
 1.6480	17.2210
 1.6490	17.2380
 1.6500	17.2530
 1.6510	17.2660
 1.6520	17.2780
 1.6530	17.2880
 1.6540	17.2970
 1.6550	17.3060
 1.6560	17.3150
 1.6570	17.3220
 1.6580	17.3290
 1.6590	17.3330
 1.6600	17.3350
 1.6610	17.3380
 1.6620	17.3400
 1.6630	17.3420
 1.6640	17.3440
 1.6650	17.3450
 1.6660	17.3440
 1.6670	17.3420
 1.6680	17.3380
 1.6690	17.3330
 1.6700	17.3260
 1.6710	17.3180
 1.6720	17.3100
 1.6730	17.3010
 1.6740	17.2900
 1.6750	17.2770
 1.6760	17.2630
 1.6770	17.2450
 1.6780	17.2250
 1.6790	17.2050
 1.6800	17.1810
 1.6810	17.1550
 1.6820	17.1280
 1.6830	17.0990
 1.6840	17.0690
 1.6850	17.0380
 1.6860	17.0060
 1.6870	16.9750
 1.6880	16.9420
 1.6890	16.9100
 1.6900	16.8790
 1.6910	16.8480
 1.6920	16.8170
 1.6930	16.7880
 1.6940	16.7590
 1.6950	16.7320
 1.6960	16.7060
 1.6970	16.6820
 1.6980	16.6560
 1.6990	16.6320
 1.7000	16.6070
 1.7010	16.5800
 1.7020	16.5540
 1.7030	16.5260
 1.7040	16.5000
 1.7050	16.4750
 1.7060	16.4470
 1.7070	16.4190
 1.7080	16.3890
 1.7090	16.3570
 1.7100	16.3260
 1.7110	16.2940
 1.7120	16.2610
 1.7130	16.2290
 1.7140	16.1950
 1.7150	16.1610
 1.7160	16.1280
 1.7170	16.0940
 1.7180	16.0590
 1.7190	16.0260
 1.7200	15.9920
 1.7210	15.9560
 1.7220	15.9220
 1.7230	15.8870
 1.7240	15.8520
 1.7250	15.8170
 1.7260	15.7820
 1.7270	15.7470
 1.7280	15.7120
 1.7290	15.6780
 1.7300	15.6430
 1.7310	15.6090
 1.7320	15.5750
 1.7330	15.5410
 1.7340	15.5080
 1.7350	15.4740
 1.7360	15.4400
 1.7370	15.4060
 1.7380	15.3700
 1.7390	15.3340
 1.7400	15.2990
 1.7410	15.2630
 1.7420	15.2270
 1.7430	15.1900
 1.7440	15.1530
 1.7450	15.1150
 1.7460	15.0750
 1.7470	15.0360
 1.7480	14.9950
 1.7490	14.9550
 1.7500	14.9160
 1.7510	14.8760
 1.7520	14.8370
 1.7530	14.7960
 1.7540	14.7530
 1.7550	14.7120
 1.7560	14.6700
 1.7570	14.6290
 1.7580	14.5890
 1.7590	14.5490
 1.7600	14.5100
 1.7610	14.4700
 1.7620	14.4320
 1.7630	14.3950
 1.7640	14.3590
 1.7650	14.3230
 1.7660	14.2890
 1.7670	14.2560
 1.7680	14.2230
 1.7690	14.1920
 1.7700	14.1610
 1.7710	14.1290
 1.7720	14.0990
 1.7730	14.0690
 1.7740	14.0410
 1.7750	14.0170
 1.7760	13.9930
 1.7770	13.9680
 1.7780	13.9460
 1.7790	13.9230
 1.7800	13.9020
 1.7810	13.8840
 1.7820	13.8670
 1.7830	13.8530
 1.7840	13.8390
 1.7850	13.8260
 1.7860	13.8150
 1.7870	13.8040
 1.7880	13.7950
 1.7890	13.7870
 1.7900	13.7810
 1.7910	13.7750
 1.7920	13.7710
 1.7930	13.7670
 1.7940	13.7640
 1.7950	13.7610
 1.7960	13.7610
 1.7970	13.7600
 1.7980	13.7590
 1.7990	13.7600
 1.8000	13.7610
 1.8010	13.7620
 1.8020	13.7630
 1.8030	13.7650
 1.8040	13.7670
 1.8050	13.7700
 1.8060	13.7750
 1.8070	13.7780
 1.8080	13.7810
 1.8090	13.7830
 1.8100	13.7840
 1.8110	13.7840
 1.8120	13.7840
 1.8130	13.7840
 1.8140	13.7840
 1.8150	13.7860
 1.8160	13.7860
 1.8170	13.7850
 1.8180	13.7830
 1.8190	13.7820
 1.8200	13.7790
 1.8210	13.7770
 1.8220	13.7730
 1.8230	13.7660
 1.8240	13.7600
 1.8250	13.7530
 1.8260	13.7450
 1.8270	13.7370
 1.8280	13.7260
 1.8290	13.7110
 1.8300	13.6980
 1.8310	13.2000
 1.8320	13.1780
 1.8330	13.1520
 1.8340	13.1270
 1.8350	13.0970
 1.8360	13.0670
 1.8370	13.0360
 1.8380	12.9980
 1.8390	12.9590
 1.8400	12.9180
 1.8410	12.8730
 1.8420	12.8240
 1.8430	12.7720
 1.8440	12.7140
 1.8450	12.6530
 1.8460	12.5870
 1.8470	12.5140
 1.8480	12.4370
 1.8490	12.3550
 1.8500	12.2670
 1.8510	12.1740
 1.8520	12.0770
 1.8530	11.9720
 1.8540	11.8590
 1.8550	11.7390
 1.8560	11.6090
 1.8570	11.4700
 1.8580	11.3250
 1.8590	11.1750
 1.8600	11.0160
 1.8610	10.8520
 1.8620	10.6830
 1.8630	10.5080
 1.8640	10.3240
 1.8650	10.1310
 1.8660	 9.9300
 1.8670	 9.7180
 1.8680	 9.4990
 1.8690	 9.2740
 1.8700	 9.0410
 1.8710	 8.8020
 1.8720	 8.5600
 1.8730	 8.3140
 1.8740	 8.0650
 1.8750	 7.8160
 1.8760	 7.5670
 1.8770	 7.3200
 1.8780	 7.0750
 1.8790	 6.8320
 1.8800	 6.5970
 1.8810	 6.3660
 1.8820	 6.1380
 1.8830	 5.9160
 1.8840	 5.7010
 1.8850	 5.4890
 1.8860	 5.2840
 1.8870	 5.0870
 1.8880	 4.8950
 1.8890	 4.7150
 1.8900	 4.5450
 1.8910	 4.3830
 1.8920	 4.2290
 1.8930	 4.0890
 1.8940	 3.9590
 1.8950	 3.8370
 1.8960	 3.7240
 1.8970	 3.6190
 1.8980	 3.5220
 1.8990	 3.4330
 1.9000	 3.3510
 1.9010	 3.2790
 1.9020	 3.2120
 1.9030	 3.1510
 1.9040	 3.0970
 1.9050	 3.0490
 1.9060	 3.0070
 1.9070	 2.9690
 1.9080	 2.9350
 1.9090	 2.9040
 1.9100	 2.8760
 1.9110	 2.8520
 1.9120	 2.8320
 1.9130	 2.8120
 1.9140	 2.7940
 1.9150	 2.7780
 1.9160	 2.7610
 1.9170	 2.7480
 1.9180	 2.7380
 1.9190	 2.7280
 1.9200	 2.7190
 1.9210	 2.7120
 1.9220	 2.7060
 1.9230	 2.7030
 1.9240	 2.7000
 1.9250	 2.6980
 1.9260	 2.6970
 1.9270	 2.6960
 1.9280	 2.6950
 1.9290	 2.6940
 1.9300	 2.6950
 1.9310	 2.6980
 1.9320	 2.6990
 1.9330	 2.7020
 1.9340	 2.7070
 1.9350	 2.7120
 1.9360	 2.7170
 1.9370	 2.7230
 1.9380	 2.7300
 1.9390	 2.7370
 1.9400	 2.7470
 1.9410	 2.7560
 1.9420	 2.7640
 1.9430	 2.7740
 1.9440	 2.7850
 1.9450	 2.7940
 1.9460	 2.8060
 1.9470	 2.8190
 1.9480	 2.8310
 1.9490	 2.8450
 1.9500	 2.8590
 1.9510	 2.8730
 1.9520	 2.8860
 1.9530	 2.8990
 1.9540	 2.9120
 1.9550	 2.9260
 1.9560	 2.9400
 1.9570	 2.9560
 1.9580	 2.9740
 1.9590	 2.9900
 1.9600	 3.0040
 1.9610	 3.0210
 1.9620	 3.0380
 1.9630	 3.0530
 1.9640	 3.0720
 1.9650	 3.0930
 1.9660	 3.1100
 1.9670	 3.1280
 1.9680	 3.1480
 1.9690	 3.1670
 1.9700	 3.1860
 1.9710	 3.2070
 1.9720	 3.2270
 1.9730	 3.2460
 1.9740	 3.2670
 1.9750	 3.2880
 1.9760	 3.3110
 1.9770	 3.3350
 1.9780	 3.3590
 1.9790	 3.3820
 1.9800	 3.4050
 1.9810	 3.4280
 1.9820	 3.4510
 1.9830	 3.4740
 1.9840	 3.5000
 1.9850	 3.5240
 1.9860	 3.5480
 1.9870	 3.5720
 1.9880	 3.5940
 1.9890	 3.6180
 1.9900	 3.6430
 1.9910	 3.6690
 1.9920	 3.6950
 1.9930	 3.7240
 1.9940	 3.7510
 1.9950	 3.7770
 1.9960	 3.8030
 1.9970	 3.8300
 1.9980	 3.8560
 1.9990	 3.8810
 2.0000	 3.9080
 2.0010	 3.9340
 2.0020	 3.9590
 2.0030	 3.9880
 2.0040	 4.0160
 2.0050	 4.0430
 2.0060	 4.0710
 2.0070	 4.0990
 2.0080	 4.1250
 2.0090	 4.1520
 2.0100	 4.1800
 2.0110	 4.2080
 2.0120	 4.2350
 2.0130	 4.2620
 2.0140	 4.2870
 2.0150	 4.3150
 2.0160	 4.3410
 2.0170	 4.3660
 2.0180	 4.3930
 2.0190	 4.4240
 2.0200	 4.4520
 2.0210	 4.4800
 2.0220	 4.5070
 2.0230	 4.5310
 2.0240	 4.5570
 2.0250	 4.5850
 2.0260	 4.6110
 2.0270	 4.6370
 2.0280	 4.6610
 2.0290	 4.6860
 2.0300	 4.7100
 2.0310	 4.7350
 2.0320	 4.7630
 2.0330	 4.7880
 2.0340	 4.8110
 2.0350	 4.8360
 2.0360	 4.8590
 2.0370	 4.8830
 2.0380	 4.9080
 2.0390	 4.9310
 2.0400	 4.9540
 2.0410	 4.9780
 2.0420	 5.0020
 2.0430	 5.0260
 2.0440	 5.0490
 2.0450	 5.0740
 2.0460	 5.0970
 2.0470	 5.1190
 2.0480	 5.1410
 2.0490	 5.1630
 2.0500	 5.1860
 2.0510	 5.2100
 2.0520	 5.2330
 2.0530	 5.2560
 2.0540	 5.2790
 2.0550	 5.3040
 2.0560	 5.3280
 2.0570	 5.3540
 2.0580	 5.3790
 2.0590	 5.4030
 2.0600	 5.4250
 2.0610	 5.4480
 2.0620	 5.4730
 2.0630	 5.4970
 2.0640	 5.5220
 2.0650	 5.5460
 2.0660	 5.5700
 2.0670	 5.5940
 2.0680	 5.6190
 2.0690	 5.6440
 2.0700	 5.6700
 2.0710	 5.6960
 2.0720	 5.7200
 2.0730	 5.7460
 2.0740	 5.7700
 2.0750	 5.7930
 2.0760	 5.8180
 2.0770	 5.8420
 2.0780	 5.8660
 2.0790	 5.8900
 2.0800	 5.9140
 2.0810	 5.9370
 2.0820	 5.9610
 2.0830	 5.9850
 2.0840	 6.0100
 2.0850	 6.0350
 2.0860	 6.0610
 2.0870	 6.0870
 2.0880	 6.1130
 2.0890	 6.1380
 2.0900	 6.1620
 2.0910	 6.1860
 2.0920	 6.2090
 2.0930	 6.2330
 2.0940	 6.2580
 2.0950	 6.2820
 2.0960	 6.3040
 2.0970	 6.3270
 2.0980	 6.3500
 2.0990	 6.3740
 2.1000	 6.3970
 2.1010	 6.4210
 2.1020	 6.4460
 2.1030	 6.4700
 2.1040	 6.4940
 2.1050	 6.5160
 2.1060	 6.5400
 2.1070	 6.5630
 2.1080	 6.5850
 2.1090	 6.6080
 2.1100	 6.6310
 2.1110	 6.6540
 2.1120	 6.6750
 2.1130	 6.6970
 2.1140	 6.7190
 2.1150	 6.7390
 2.1160	 6.7600
 2.1170	 6.7840
 2.1180	 6.8070
 2.1190	 6.8290
 2.1200	 6.8510
 2.1210	 6.8740
 2.1220	 6.8970
 2.1230	 6.9180
 2.1240	 6.9390
 2.1250	 6.9600
 2.1260	 6.9800
 2.1270	 7.0000
 2.1280	 7.0220
 2.1290	 7.0420
 2.1300	 7.0590
 2.1310	 7.0790
 2.1320	 7.0990
 2.1330	 7.1180
 2.1340	 7.1380
 2.1350	 7.1560
 2.1360	 7.1710
 2.1370	 7.1880
 2.1380	 7.2040
 2.1390	 7.2210
 2.1400	 7.2390
 2.1410	 7.2580
 2.1420	 7.2740
 2.1430	 7.2900
 2.1440	 7.3060
 2.1450	 7.3220
 2.1460	 7.3360
 2.1470	 7.3500
 2.1480	 7.3640
 2.1490	 7.3740
 2.1500	 7.3870
 2.1510	 7.4010
 2.1520	 7.4150
 2.1530	 7.4290
 2.1540	 7.4430
 2.1550	 7.4550
 2.1560	 7.4680
 2.1570	 7.4800
 2.1580	 7.4920
 2.1590	 7.5070
 2.1600	 7.5200
 2.1610	 7.5320
 2.1620	 7.5480
 2.1630	 7.5590
 2.1640	 7.5680
 2.1650	 7.5780
 2.1660	 7.5860
 2.1670	 7.5950
 2.1680	 7.6040
 2.1690	 7.6130
 2.1700	 7.6230
 2.1710	 7.6320
 2.1720	 7.6420
 2.1730	 7.6510
 2.1740	 7.6590
 2.1750	 7.6700
 2.1760	 7.6830
 2.1770	 7.6950
 2.1780	 7.7090
 2.1790	 7.7210
 2.1800	 7.7290
 2.1810	 7.7400
 2.1820	 7.7520
 2.1830	 7.7650
 2.1840	 7.7760
 2.1850	 7.7870
 2.1860	 7.7970
 2.1870	 7.8050
 2.1880	 7.8150
 2.1890	 7.8270
 2.1900	 7.8380
 2.1910	 7.8490
 2.1920	 7.8600
 2.1930	 7.8730
 2.1940	 7.8820
 2.1950	 7.8900
 2.1960	 7.8970
 2.1970	 7.9010
 2.1980	 7.9080
 2.1990	 7.9170
 2.2000	 7.9240
 2.2010	 7.9330
 2.2020	 7.9400
 2.2030	 7.9460
 2.2040	 7.9510
 2.2050	 7.9550
 2.2060	 7.9580
 2.2070	 7.9620
 2.2080	 7.9670
 2.2090	 7.9710
 2.2100	 7.9750
 2.2110	 7.9790
 2.2120	 7.9810
 2.2130	 7.9840
 2.2140	 7.9880
 2.2150	 7.9900
 2.2160	 7.9890
 2.2170	 7.9890
 2.2180	 7.9880
 2.2190	 7.9860
 2.2200	 7.9820
 2.2210	 7.9790
 2.2220	 7.9750
 2.2230	 7.9700
 2.2240	 7.9650
 2.2250	 7.9590
 2.2260	 7.9510
 2.2270	 7.9430
 2.2280	 7.9360
 2.2290	 7.9260
 2.2300	 7.9130
 2.2310	 7.9000
 2.2320	 7.8870
 2.2330	 7.8760
 2.2340	 7.8640
 2.2350	 7.8560
 2.2360	 7.8430
 2.2370	 7.8280
 2.2380	 7.8120
 2.2390	 7.7940
 2.2400	 7.7760
 2.2410	 7.7560
 2.2420	 7.7380
 2.2430	 7.7190
 2.2440	 7.7010
 2.2450	 7.6850
 2.2460	 7.6660
 2.2470	 7.6470
 2.2480	 7.6260
 2.2490	 7.6030
 2.2500	 7.5800
 2.2510	 7.5550
 2.2520	 7.5290
 2.2530	 7.4980
 2.2540	 7.4700
 2.2550	 7.4400
 2.2560	 7.4110
 2.2570	 7.3850
 2.2580	 7.3570
 2.2590	 7.3260
 2.2600	 7.2960
 2.2610	 7.2660
 2.2620	 7.2350
 2.2630	 7.2050
 2.2640	 7.1760
 2.2650	 7.1440
 2.2660	 7.1130
 2.2670	 7.0830
 2.2680	 7.0530
 2.2690	 7.0230
 2.2700	 6.9950
 2.2710	 6.9670
 2.2720	 6.9410
 2.2730	 6.9150
 2.2740	 6.8910
 2.2750	 6.8650
 2.2760	 6.8360
 2.2770	 6.8100
 2.2780	 6.7840
 2.2790	 6.7610
 2.2800	 6.7420
 2.2810	 6.7230
 2.2820	 6.7070
 2.2830	 6.6870
 2.2840	 6.6670
 2.2850	 6.6460
 2.2860	 6.6200
 2.2870	 6.5980
 2.2880	 6.5790
 2.2890	 6.5590
 2.2900	 6.5410
 2.2910	 6.5200
 2.2920	 6.4980
 2.2930	 6.4760
 2.2940	 6.4540
 2.2950	 6.4310
 2.2960	 6.4080
 2.2970	 6.3850
 2.2980	 6.3630
 2.2990	 6.3400
 2.3000	 6.3170
 2.3010	 6.2920
 2.3020	 6.2690
 2.3030	 6.2460
 2.3040	 6.2240
 2.3050	 6.2040
 2.3060	 6.1820
 2.3070	 6.1630
 2.3080	 6.1450
 2.3090	 6.1250
 2.3100	 6.1100
 2.3110	 6.0940
 2.3120	 6.0790
 2.3130	 6.0640
 2.3140	 6.0510
 2.3150	 6.0390
 2.3160	 6.0260
 2.3170	 6.0140
 2.3180	 6.0010
 2.3190	 5.9850
 2.3200	 5.9700
 2.3210	 5.9570
 2.3220	 5.9440
 2.3230	 5.9330
 2.3240	 5.9170
 2.3250	 5.8990
 2.3260	 5.8810
 2.3270	 5.8600
 2.3280	 5.8420
 2.3290	 5.8270
 2.3300	 5.8090
 2.3310	 5.7920
 2.3320	 5.7710
 2.3330	 5.7470
 2.3340	 5.7250
 2.3350	 5.7000
 2.3360	 5.6780
 2.3370	 5.6600
 2.3380	 5.6380
 2.3390	 5.6140
 2.3400	 5.5910
 2.3410	 5.5670
 2.3420	 5.5440
 2.3430	 5.5240
 2.3440	 5.5020
 2.3450	 5.4770
 2.3460	 5.4550
 2.3470	 5.4320
 2.3480	 5.4120
 2.3490	 5.3930
 2.3500	 5.3760
 2.3510	 5.3630
 2.3520	 5.3480
 2.3530	 5.3360
 2.3540	 5.3240
 2.3550	 5.3030
 2.3560	 5.2870
 2.3570	 5.2720
 2.3580	 5.2530
 2.3590	 5.2400
 2.3600	 5.2210
 2.3610	 5.2020
 2.3620	 5.1880
 2.3630	 5.1710
 2.3640	 5.1560
 2.3650	 5.1390
 2.3660	 5.1180
 2.3670	 5.1010
 2.3680	 5.0860
 2.3690	 5.0710
 2.3700	 5.0520
 2.3710	 5.0360
 2.3720	 5.0180
 2.3730	 5.0020
 2.3740	 4.9870
 2.3750	 4.9680
 2.3760	 4.9540
 2.3770	 4.9330
 2.3780	 4.9160
 2.3790	 4.9030
 2.3800	 4.8790
 2.3810	 4.8570
 2.3820	 4.8340
 2.3830	 4.8090
 2.3840	 4.7870
 2.3850	 4.7670
 2.3860	 4.7470
 2.3870	 4.7260
 2.3880	 4.7130
 2.3890	 4.6970
 2.3900	 4.6810
 2.3910	 4.6620
 2.3920	 4.6380
 2.3930	 4.6210
 2.3940	 4.6010
 2.3950	 4.5890
 2.3960	 4.5780
 2.3970	 4.5510
 2.3980	 4.5330
 2.3990	 4.5190
 2.4000	 4.4960
 2.4010	 4.4860
 2.4020	 4.4720
 2.4030	 4.4440
 2.4040	 4.4240
 2.4050	 4.4030
 2.4060	 4.3820
 2.4070	 4.3630
 2.4080	 4.3440
 2.4090	 4.3290
 2.4100	 4.3110
 2.4110	 4.2980
 2.4120	 4.2830
 2.4130	 4.2630
 2.4140	 4.2500
 2.4150	 4.2310
 2.4160	 4.2110
 2.4170	 4.1960
 2.4180	 4.1740
 2.4190	 4.1580
 2.4200	 4.1460
 2.4210	 4.1210
 2.4220	 4.1090
 2.4230	 4.0920
 2.4240	 4.0620
 2.4250	 4.0470
 2.4260	 4.0220
 2.4270	 4.0040
 2.4280	 3.9960
 2.4290	 3.9750
 2.4300	 3.9500
 2.4310	 3.9280
 2.4320	 3.9080
 2.4330	 3.8890
 2.4340	 3.8800
 2.4350	 3.8620
 2.4360	 3.8390
 2.4370	 3.8230
 2.4380	 3.8120
 2.4390	 3.8030
 2.4400	 3.7830
 2.4410	 3.7620
 2.4420	 3.7410
 2.4430	 3.7180
 2.4440	 3.7160
 2.4450	 3.7130
 2.4460	 3.7010
 2.4470	 3.6920
 2.4480	 3.6700
 2.4490	 3.6440
 2.4500	 3.6280
 2.4510	 3.6180
 2.4520	 3.6100
 2.4530	 3.5940
 2.4540	 3.5770
 2.4550	 3.5570
 2.4560	 3.5360
 2.4570	 3.5200
 2.4580	 3.5040
 2.4590	 3.4780
 2.4600	 3.4520
 2.4610	 3.4310
 2.4620	 3.4120
 2.4630	 3.3940
 2.4640	 3.3840
 2.4650	 3.3860
 2.4660	 3.3900
 2.4670	 3.3860
 2.4680	 3.3610
 2.4690	 3.3150
 2.4700	 3.2850
 2.4710	 3.2630
 2.4720	 3.2500
 2.4730	 3.2550
 2.4740	 3.2500
 2.4750	 3.2450
 2.4760	 3.2390
 2.4770	 3.2210
 2.4780	 3.2160
 2.4790	 3.2290
 2.4800	 3.2230
 2.4810	 3.2040
 2.4820	 3.1820
 2.4830	 3.1710
 2.4840	 3.1590
 2.4850	 3.1670
 2.4860	 3.1940
 2.4870	 3.1940
 2.4880	 3.1940
 2.4890	 3.2040
 2.4900	 3.1650
 2.4910	 3.1360
 2.4920	 3.1480
 2.4930	 3.1410
 2.4940	 3.1420
 2.4950	 3.1250
 2.4960	 3.0940
 2.4970	 3.1040
 2.4980	 3.1190
 2.4990	 3.1360
 2.5000	 3.1420
