Name: Adenostoma fasciculatum 1
Type: vegetation
Class: Shrub
Genus: Adenostoma
Species: fasciculatum
Sample No.: VH112
Owner: UCSB
Wavelength Range: VSWIR
Origin: 34.5084; -119.7687; WGS84
Collection Date: 6/3/2013
Description: Samples were collected as part of the HyspIRI Airborne Campaign. 48 individual plants were sampled in three times in 2013 - spring  summer  and fall. The name of the sample includes a 1  2  or 3 which references a different individual of the species. Samples were taken to JPL and processed within 48 hours of collection. The same leaves were processed in the Nicolet and then measured using the ASD.
Measurement: Bidirectional reflectance
First Column: X
Second Column: Y
X Units: Wavelength (micrometers)
Y Units: Reflectance (percentage)
First X Value: 0.35
Last X Value: 2.5
Number of X Values: 2151
Additional Information: vegetation.shrub.adenostoma.fasciculatum.vswir.vh112.ucsb.asd.ancillary.txt

 0.3500	 2.1720
 0.3510	 1.9360
 0.3520	 1.9500
 0.3530	 2.0870
 0.3540	 2.1140
 0.3550	 1.9670
 0.3560	 1.9260
 0.3570	 1.9920
 0.3580	 2.0260
 0.3590	 2.0550
 0.3600	 2.0070
 0.3610	 1.9020
 0.3620	 1.8960
 0.3630	 1.9710
 0.3640	 2.0590
 0.3650	 2.0890
 0.3660	 2.0400
 0.3670	 1.9570
 0.3680	 1.9000
 0.3690	 1.9260
 0.3700	 1.9360
 0.3710	 1.9530
 0.3720	 1.9870
 0.3730	 1.9750
 0.3740	 1.9890
 0.3750	 2.0400
 0.3760	 2.0970
 0.3770	 2.0290
 0.3780	 1.9320
 0.3790	 1.8860
 0.3800	 1.9350
 0.3810	 1.9590
 0.3820	 1.9700
 0.3830	 1.9900
 0.3840	 2.0000
 0.3850	 1.9710
 0.3860	 1.9510
 0.3870	 1.9890
 0.3880	 1.9880
 0.3890	 1.9750
 0.3900	 1.9800
 0.3910	 2.0240
 0.3920	 2.0490
 0.3930	 2.0340
 0.3940	 1.9920
 0.3950	 1.9930
 0.3960	 2.0540
 0.3970	 2.1200
 0.3980	 2.1170
 0.3990	 2.1160
 0.4000	 2.0840
 0.4010	 2.0450
 0.4020	 2.1070
 0.4030	 2.1480
 0.4040	 2.1420
 0.4050	 2.1110
 0.4060	 2.1320
 0.4070	 2.1660
 0.4080	 2.1930
 0.4090	 2.2130
 0.4100	 2.2390
 0.4110	 2.2680
 0.4120	 2.2920
 0.4130	 2.2930
 0.4140	 2.3020
 0.4150	 2.3280
 0.4160	 2.3680
 0.4170	 2.3880
 0.4180	 2.3970
 0.4190	 2.4090
 0.4200	 2.4410
 0.4210	 2.4450
 0.4220	 2.4660
 0.4230	 2.5260
 0.4240	 2.5610
 0.4250	 2.5790
 0.4260	 2.5910
 0.4270	 2.6130
 0.4280	 2.6260
 0.4290	 2.6500
 0.4300	 2.6870
 0.4310	 2.7040
 0.4320	 2.7270
 0.4330	 2.7530
 0.4340	 2.7750
 0.4350	 2.8020
 0.4360	 2.8250
 0.4370	 2.8450
 0.4380	 2.8720
 0.4390	 2.8840
 0.4400	 2.8920
 0.4410	 2.9080
 0.4420	 2.9320
 0.4430	 2.9510
 0.4440	 2.9650
 0.4450	 2.9810
 0.4460	 3.0000
 0.4470	 3.0230
 0.4480	 3.0470
 0.4490	 3.0640
 0.4500	 3.0850
 0.4510	 3.1120
 0.4520	 3.1420
 0.4530	 3.1500
 0.4540	 3.1590
 0.4550	 3.1760
 0.4560	 3.1980
 0.4570	 3.2110
 0.4580	 3.2190
 0.4590	 3.2310
 0.4600	 3.2610
 0.4610	 3.2830
 0.4620	 3.2960
 0.4630	 3.3050
 0.4640	 3.3020
 0.4650	 3.3100
 0.4660	 3.3310
 0.4670	 3.3460
 0.4680	 3.3600
 0.4690	 3.3730
 0.4700	 3.3850
 0.4710	 3.3990
 0.4720	 3.3980
 0.4730	 3.3960
 0.4740	 3.4180
 0.4750	 3.4190
 0.4760	 3.4210
 0.4770	 3.4380
 0.4780	 3.4530
 0.4790	 3.4610
 0.4800	 3.4660
 0.4810	 3.4740
 0.4820	 3.4920
 0.4830	 3.5020
 0.4840	 3.5060
 0.4850	 3.5220
 0.4860	 3.5400
 0.4870	 3.5560
 0.4880	 3.5740
 0.4890	 3.5990
 0.4900	 3.6190
 0.4910	 3.6360
 0.4920	 3.6520
 0.4930	 3.6900
 0.4940	 3.7280
 0.4950	 3.7580
 0.4960	 3.7920
 0.4970	 3.8260
 0.4980	 3.8640
 0.4990	 3.9100
 0.5000	 3.9520
 0.5010	 4.0020
 0.5020	 4.0610
 0.5030	 4.1200
 0.5040	 4.1780
 0.5050	 4.2450
 0.5060	 4.3240
 0.5070	 4.4030
 0.5080	 4.4840
 0.5090	 4.5710
 0.5100	 4.6690
 0.5110	 4.7740
 0.5120	 4.8840
 0.5130	 5.0020
 0.5140	 5.1280
 0.5150	 5.2560
 0.5160	 5.3910
 0.5170	 5.5360
 0.5180	 5.6890
 0.5190	 5.8390
 0.5200	 5.9900
 0.5210	 6.1510
 0.5220	 6.3080
 0.5230	 6.4620
 0.5240	 6.6160
 0.5250	 6.7720
 0.5260	 6.9210
 0.5270	 7.0580
 0.5280	 7.1830
 0.5290	 7.3080
 0.5300	 7.4250
 0.5310	 7.5300
 0.5320	 7.6260
 0.5330	 7.7160
 0.5340	 7.8010
 0.5350	 7.8820
 0.5360	 7.9560
 0.5370	 8.0160
 0.5380	 8.0690
 0.5390	 8.1280
 0.5400	 8.1810
 0.5410	 8.2360
 0.5420	 8.2930
 0.5430	 8.3420
 0.5440	 8.3860
 0.5450	 8.4260
 0.5460	 8.4600
 0.5470	 8.4860
 0.5480	 8.5090
 0.5490	 8.5330
 0.5500	 8.5580
 0.5510	 8.5810
 0.5520	 8.5960
 0.5530	 8.6000
 0.5540	 8.5960
 0.5550	 8.5840
 0.5560	 8.5660
 0.5570	 8.5390
 0.5580	 8.5010
 0.5590	 8.4560
 0.5600	 8.4050
 0.5610	 8.3540
 0.5620	 8.2980
 0.5630	 8.2360
 0.5640	 8.1680
 0.5650	 8.0940
 0.5660	 8.0230
 0.5670	 7.9540
 0.5680	 7.8800
 0.5690	 7.7960
 0.5700	 7.7060
 0.5710	 7.6190
 0.5720	 7.5420
 0.5730	 7.4660
 0.5740	 7.3910
 0.5750	 7.3200
 0.5760	 7.2530
 0.5770	 7.1920
 0.5780	 7.1390
 0.5790	 7.0870
 0.5800	 7.0330
 0.5810	 6.9800
 0.5820	 6.9360
 0.5830	 6.8970
 0.5840	 6.8610
 0.5850	 6.8270
 0.5860	 6.7960
 0.5870	 6.7680
 0.5880	 6.7420
 0.5890	 6.7170
 0.5900	 6.6940
 0.5910	 6.6790
 0.5920	 6.6690
 0.5930	 6.6590
 0.5940	 6.6480
 0.5950	 6.6350
 0.5960	 6.6220
 0.5970	 6.6180
 0.5980	 6.6150
 0.5990	 6.6090
 0.6000	 6.5980
 0.6010	 6.5860
 0.6020	 6.5680
 0.6030	 6.5470
 0.6040	 6.5290
 0.6050	 6.5040
 0.6060	 6.4760
 0.6070	 6.4470
 0.6080	 6.4110
 0.6090	 6.3790
 0.6100	 6.3510
 0.6110	 6.3260
 0.6120	 6.2840
 0.6130	 6.2330
 0.6140	 6.1850
 0.6150	 6.1410
 0.6160	 6.1010
 0.6170	 6.0670
 0.6180	 6.0420
 0.6190	 6.0150
 0.6200	 5.9890
 0.6210	 5.9680
 0.6220	 5.9550
 0.6230	 5.9440
 0.6240	 5.9340
 0.6250	 5.9280
 0.6260	 5.9260
 0.6270	 5.9250
 0.6280	 5.9260
 0.6290	 5.9300
 0.6300	 5.9320
 0.6310	 5.9340
 0.6320	 5.9350
 0.6330	 5.9360
 0.6340	 5.9310
 0.6350	 5.9180
 0.6360	 5.8990
 0.6370	 5.8750
 0.6380	 5.8460
 0.6390	 5.8130
 0.6400	 5.7790
 0.6410	 5.7430
 0.6420	 5.7030
 0.6430	 5.6590
 0.6440	 5.6140
 0.6450	 5.5670
 0.6460	 5.5190
 0.6470	 5.4770
 0.6480	 5.4390
 0.6490	 5.4010
 0.6500	 5.3650
 0.6510	 5.3400
 0.6520	 5.3190
 0.6530	 5.2980
 0.6540	 5.2750
 0.6550	 5.2530
 0.6560	 5.2250
 0.6570	 5.1920
 0.6580	 5.1570
 0.6590	 5.1180
 0.6600	 5.0750
 0.6610	 5.0320
 0.6620	 4.9860
 0.6630	 4.9420
 0.6640	 4.9020
 0.6650	 4.8650
 0.6660	 4.8320
 0.6670	 4.8050
 0.6680	 4.7840
 0.6690	 4.7680
 0.6700	 4.7530
 0.6710	 4.7460
 0.6720	 4.7480
 0.6730	 4.7510
 0.6740	 4.7570
 0.6750	 4.7680
 0.6760	 4.7820
 0.6770	 4.8050
 0.6780	 4.8330
 0.6790	 4.8630
 0.6800	 4.9000
 0.6810	 4.9430
 0.6820	 4.9950
 0.6830	 5.0590
 0.6840	 5.1410
 0.6850	 5.2350
 0.6860	 5.3430
 0.6870	 5.4700
 0.6880	 5.6220
 0.6890	 5.7950
 0.6900	 5.9930
 0.6910	 6.2290
 0.6920	 6.5030
 0.6930	 6.8130
 0.6940	 7.1590
 0.6950	 7.5450
 0.6960	 7.9660
 0.6970	 8.4230
 0.6980	 8.9180
 0.6990	 9.4450
 0.7000	10.0000
 0.7010	10.5790
 0.7020	11.1770
 0.7030	11.7900
 0.7040	12.4170
 0.7050	13.0580
 0.7060	13.7120
 0.7070	14.3730
 0.7080	15.0410
 0.7090	15.7190
 0.7100	16.4030
 0.7110	17.1000
 0.7120	17.8090
 0.7130	18.5260
 0.7140	19.2520
 0.7150	19.9850
 0.7160	20.7240
 0.7170	21.4690
 0.7180	22.2200
 0.7190	22.9750
 0.7200	23.7330
 0.7210	24.4880
 0.7220	25.2380
 0.7230	25.9830
 0.7240	26.7180
 0.7250	27.4430
 0.7260	28.1560
 0.7270	28.8520
 0.7280	29.5290
 0.7290	30.1870
 0.7300	30.8260
 0.7310	31.4420
 0.7320	32.0320
 0.7330	32.6000
 0.7340	33.1470
 0.7350	33.6660
 0.7360	34.1560
 0.7370	34.6230
 0.7380	35.0720
 0.7390	35.4980
 0.7400	35.8960
 0.7410	36.2670
 0.7420	36.6190
 0.7430	36.9520
 0.7440	37.2580
 0.7450	37.5430
 0.7460	37.8170
 0.7470	38.0690
 0.7480	38.2970
 0.7490	38.5030
 0.7500	38.7060
 0.7510	38.8970
 0.7520	39.0690
 0.7530	39.2200
 0.7540	39.3710
 0.7550	39.5070
 0.7560	39.6290
 0.7570	39.7480
 0.7580	39.8540
 0.7590	39.9530
 0.7600	40.0480
 0.7610	40.1340
 0.7620	40.2180
 0.7630	40.2980
 0.7640	40.3680
 0.7650	40.4350
 0.7660	40.5030
 0.7670	40.5680
 0.7680	40.6190
 0.7690	40.6760
 0.7700	40.7340
 0.7710	40.7860
 0.7720	40.8280
 0.7730	40.8720
 0.7740	40.9230
 0.7750	40.9740
 0.7760	41.0130
 0.7770	41.0530
 0.7780	41.0980
 0.7790	41.1470
 0.7800	41.1940
 0.7810	41.2340
 0.7820	41.2690
 0.7830	41.3100
 0.7840	41.3510
 0.7850	41.3900
 0.7860	41.4280
 0.7870	41.4750
 0.7880	41.5160
 0.7890	41.5470
 0.7900	41.5730
 0.7910	41.6160
 0.7920	41.6540
 0.7930	41.6870
 0.7940	41.7280
 0.7950	41.7560
 0.7960	41.7850
 0.7970	41.8240
 0.7980	41.8610
 0.7990	41.8920
 0.8000	41.9190
 0.8010	41.9450
 0.8020	41.9730
 0.8030	42.0060
 0.8040	42.0390
 0.8050	42.0670
 0.8060	42.0930
 0.8070	42.1190
 0.8080	42.1430
 0.8090	42.1620
 0.8100	42.1840
 0.8110	42.2100
 0.8120	42.2380
 0.8130	42.2570
 0.8140	42.2770
 0.8150	42.2950
 0.8160	42.3100
 0.8170	42.3390
 0.8180	42.3670
 0.8190	42.3860
 0.8200	42.3960
 0.8210	42.4190
 0.8220	42.4400
 0.8230	42.4560
 0.8240	42.4790
 0.8250	42.4910
 0.8260	42.5020
 0.8270	42.5180
 0.8280	42.5360
 0.8290	42.5440
 0.8300	42.5490
 0.8310	42.5590
 0.8320	42.5730
 0.8330	42.5940
 0.8340	42.6110
 0.8350	42.6140
 0.8360	42.6360
 0.8370	42.6580
 0.8380	42.6720
 0.8390	42.6850
 0.8400	42.6990
 0.8410	42.7170
 0.8420	42.7410
 0.8430	42.7630
 0.8440	42.7810
 0.8450	42.7980
 0.8460	42.8130
 0.8470	42.8350
 0.8480	42.8570
 0.8490	42.8760
 0.8500	42.8900
 0.8510	42.9140
 0.8520	42.9380
 0.8530	42.9580
 0.8540	42.9760
 0.8550	42.9920
 0.8560	43.0120
 0.8570	43.0290
 0.8580	43.0340
 0.8590	43.0600
 0.8600	43.0880
 0.8610	43.1060
 0.8620	43.1220
 0.8630	43.1360
 0.8640	43.1520
 0.8650	43.1730
 0.8660	43.1970
 0.8670	43.2160
 0.8680	43.2310
 0.8690	43.2460
 0.8700	43.2650
 0.8710	43.2870
 0.8720	43.3030
 0.8730	43.3080
 0.8740	43.3270
 0.8750	43.3510
 0.8760	43.3700
 0.8770	43.3850
 0.8780	43.4090
 0.8790	43.4270
 0.8800	43.4330
 0.8810	43.4440
 0.8820	43.4640
 0.8830	43.4840
 0.8840	43.4960
 0.8850	43.5100
 0.8860	43.5230
 0.8870	43.5350
 0.8880	43.5470
 0.8890	43.5500
 0.8900	43.5590
 0.8910	43.5750
 0.8920	43.5920
 0.8930	43.6020
 0.8940	43.6050
 0.8950	43.6100
 0.8960	43.6250
 0.8970	43.6370
 0.8980	43.6490
 0.8990	43.6640
 0.9000	43.6740
 0.9010	43.6870
 0.9020	43.7000
 0.9030	43.7080
 0.9040	43.7080
 0.9050	43.7120
 0.9060	43.7150
 0.9070	43.7170
 0.9080	43.7310
 0.9090	43.7380
 0.9100	43.7470
 0.9110	43.7640
 0.9120	43.7720
 0.9130	43.7740
 0.9140	43.7720
 0.9150	43.7690
 0.9160	43.7840
 0.9170	43.7910
 0.9180	43.7920
 0.9190	43.7990
 0.9200	43.8000
 0.9210	43.7970
 0.9220	43.7940
 0.9230	43.7950
 0.9240	43.7920
 0.9250	43.7850
 0.9260	43.7760
 0.9270	43.7710
 0.9280	43.7530
 0.9290	43.7340
 0.9300	43.7220
 0.9310	43.7100
 0.9320	43.6990
 0.9330	43.6830
 0.9340	43.6590
 0.9350	43.6270
 0.9360	43.6020
 0.9370	43.5800
 0.9380	43.5540
 0.9390	43.5250
 0.9400	43.4880
 0.9410	43.4470
 0.9420	43.4080
 0.9430	43.3800
 0.9440	43.3360
 0.9450	43.2870
 0.9460	43.2390
 0.9470	43.1640
 0.9480	43.0960
 0.9490	43.0190
 0.9500	42.9210
 0.9510	42.8410
 0.9520	42.7610
 0.9530	42.6760
 0.9540	42.5860
 0.9550	42.4830
 0.9560	42.3880
 0.9570	42.2900
 0.9580	42.1850
 0.9590	42.1080
 0.9600	42.0410
 0.9610	41.9780
 0.9620	41.9170
 0.9630	41.8660
 0.9640	41.8180
 0.9650	41.7730
 0.9660	41.7330
 0.9670	41.7030
 0.9680	41.6810
 0.9690	41.6620
 0.9700	41.6410
 0.9710	41.5940
 0.9720	41.5680
 0.9730	41.5600
 0.9740	41.5470
 0.9750	41.5430
 0.9760	41.5480
 0.9770	41.5520
 0.9780	41.5450
 0.9790	41.5560
 0.9800	41.5570
 0.9810	41.5480
 0.9820	41.5450
 0.9830	41.5700
 0.9840	41.5880
 0.9850	41.5990
 0.9860	41.6250
 0.9870	41.6560
 0.9880	41.6760
 0.9890	41.6970
 0.9900	41.7380
 0.9910	41.7620
 0.9920	41.8430
 0.9930	41.9230
 0.9940	42.0030
 0.9950	42.0830
 0.9960	42.1630
 0.9970	42.2430
 0.9980	42.3230
 0.9990	42.4030
 1.0000	42.4830
 1.0010	42.5630
 1.0020	42.6430
 1.0030	42.7240
 1.0040	42.8040
 1.0050	42.8840
 1.0060	42.9640
 1.0070	43.0440
 1.0080	43.1240
 1.0090	43.2040
 1.0100	43.2040
 1.0110	43.2490
 1.0120	43.2960
 1.0130	43.3490
 1.0140	43.3990
 1.0150	43.4470
 1.0160	43.4950
 1.0170	43.5420
 1.0180	43.5870
 1.0190	43.6300
 1.0200	43.6770
 1.0210	43.7220
 1.0220	43.7730
 1.0230	43.8220
 1.0240	43.8710
 1.0250	43.9190
 1.0260	43.9690
 1.0270	44.0150
 1.0280	44.0590
 1.0290	44.1030
 1.0300	44.1430
 1.0310	44.1860
 1.0320	44.2300
 1.0330	44.2700
 1.0340	44.3130
 1.0350	44.3520
 1.0360	44.3900
 1.0370	44.4320
 1.0380	44.4710
 1.0390	44.5090
 1.0400	44.5470
 1.0410	44.5840
 1.0420	44.6200
 1.0430	44.6540
 1.0440	44.6890
 1.0450	44.7220
 1.0460	44.7550
 1.0470	44.7910
 1.0480	44.8230
 1.0490	44.8500
 1.0500	44.8790
 1.0510	44.9090
 1.0520	44.9310
 1.0530	44.9550
 1.0540	44.9790
 1.0550	45.0020
 1.0560	45.0220
 1.0570	45.0430
 1.0580	45.0680
 1.0590	45.0870
 1.0600	45.1010
 1.0610	45.1190
 1.0620	45.1400
 1.0630	45.1580
 1.0640	45.1800
 1.0650	45.1960
 1.0660	45.2020
 1.0670	45.2130
 1.0680	45.2240
 1.0690	45.2350
 1.0700	45.2450
 1.0710	45.2580
 1.0720	45.2670
 1.0730	45.2720
 1.0740	45.2780
 1.0750	45.2810
 1.0760	45.2850
 1.0770	45.2900
 1.0780	45.2930
 1.0790	45.2940
 1.0800	45.2950
 1.0810	45.2910
 1.0820	45.2900
 1.0830	45.2890
 1.0840	45.2880
 1.0850	45.2880
 1.0860	45.2860
 1.0870	45.2830
 1.0880	45.2800
 1.0890	45.2740
 1.0900	45.2670
 1.0910	45.2590
 1.0920	45.2480
 1.0930	45.2390
 1.0940	45.2290
 1.0950	45.2180
 1.0960	45.2090
 1.0970	45.1950
 1.0980	45.1760
 1.0990	45.1600
 1.1000	45.1420
 1.1010	45.1230
 1.1020	45.1050
 1.1030	45.0870
 1.1040	45.0660
 1.1050	45.0450
 1.1060	45.0220
 1.1070	44.9990
 1.1080	44.9760
 1.1090	44.9530
 1.1100	44.9280
 1.1110	44.9050
 1.1120	44.8770
 1.1130	44.8450
 1.1140	44.8120
 1.1150	44.7750
 1.1160	44.7360
 1.1170	44.6960
 1.1180	44.6520
 1.1190	44.6070
 1.1200	44.5560
 1.1210	44.4970
 1.1220	44.4320
 1.1230	44.3580
 1.1240	44.2790
 1.1250	44.1920
 1.1260	44.1020
 1.1270	43.9980
 1.1280	43.8880
 1.1290	43.7650
 1.1300	43.6330
 1.1310	43.4880
 1.1320	43.3310
 1.1330	43.1650
 1.1340	42.9850
 1.1350	42.7980
 1.1360	42.6020
 1.1370	42.3960
 1.1380	42.1820
 1.1390	41.9630
 1.1400	41.7340
 1.1410	41.5020
 1.1420	41.2700
 1.1430	41.0330
 1.1440	40.8000
 1.1450	40.5660
 1.1460	40.3370
 1.1470	40.1090
 1.1480	39.8890
 1.1490	39.6720
 1.1500	39.4680
 1.1510	39.2700
 1.1520	39.0850
 1.1530	38.9120
 1.1540	38.7510
 1.1550	38.5990
 1.1560	38.4600
 1.1570	38.3330
 1.1580	38.2160
 1.1590	38.1110
 1.1600	38.0160
 1.1610	37.9310
 1.1620	37.8510
 1.1630	37.7780
 1.1640	37.7110
 1.1650	37.6490
 1.1660	37.5940
 1.1670	37.5430
 1.1680	37.4990
 1.1690	37.4550
 1.1700	37.4150
 1.1710	37.3740
 1.1720	37.3340
 1.1730	37.2950
 1.1740	37.2560
 1.1750	37.2190
 1.1760	37.1810
 1.1770	37.1420
 1.1780	37.1000
 1.1790	37.0580
 1.1800	37.0160
 1.1810	36.9740
 1.1820	36.9310
 1.1830	36.8890
 1.1840	36.8480
 1.1850	36.8080
 1.1860	36.7690
 1.1870	36.7340
 1.1880	36.7010
 1.1890	36.6710
 1.1900	36.6420
 1.1910	36.6150
 1.1920	36.5910
 1.1930	36.5670
 1.1940	36.5490
 1.1950	36.5340
 1.1960	36.5220
 1.1970	36.5130
 1.1980	36.5070
 1.1990	36.5030
 1.2000	36.5000
 1.2010	36.5040
 1.2020	36.5110
 1.2030	36.5240
 1.2040	36.5420
 1.2050	36.5620
 1.2060	36.5870
 1.2070	36.6150
 1.2080	36.6470
 1.2090	36.6820
 1.2100	36.7190
 1.2110	36.7630
 1.2120	36.8100
 1.2130	36.8610
 1.2140	36.9190
 1.2150	36.9780
 1.2160	37.0390
 1.2170	37.1020
 1.2180	37.1680
 1.2190	37.2370
 1.2200	37.3050
 1.2210	37.3740
 1.2220	37.4440
 1.2230	37.5120
 1.2240	37.5810
 1.2250	37.6480
 1.2260	37.7130
 1.2270	37.7770
 1.2280	37.8390
 1.2290	37.9000
 1.2300	37.9590
 1.2310	38.0140
 1.2320	38.0680
 1.2330	38.1200
 1.2340	38.1700
 1.2350	38.2190
 1.2360	38.2670
 1.2370	38.3140
 1.2380	38.3600
 1.2390	38.4060
 1.2400	38.4500
 1.2410	38.4920
 1.2420	38.5310
 1.2430	38.5670
 1.2440	38.6040
 1.2450	38.6420
 1.2460	38.6800
 1.2470	38.7150
 1.2480	38.7490
 1.2490	38.7800
 1.2500	38.8070
 1.2510	38.8350
 1.2520	38.8620
 1.2530	38.8880
 1.2540	38.9150
 1.2550	38.9400
 1.2560	38.9640
 1.2570	38.9870
 1.2580	39.0080
 1.2590	39.0270
 1.2600	39.0450
 1.2610	39.0610
 1.2620	39.0740
 1.2630	39.0860
 1.2640	39.0980
 1.2650	39.1070
 1.2660	39.1140
 1.2670	39.1200
 1.2680	39.1240
 1.2690	39.1270
 1.2700	39.1270
 1.2710	39.1280
 1.2720	39.1260
 1.2730	39.1230
 1.2740	39.1190
 1.2750	39.1110
 1.2760	39.1020
 1.2770	39.0930
 1.2780	39.0800
 1.2790	39.0660
 1.2800	39.0520
 1.2810	39.0340
 1.2820	39.0150
 1.2830	38.9930
 1.2840	38.9660
 1.2850	38.9360
 1.2860	38.9030
 1.2870	38.8680
 1.2880	38.8310
 1.2890	38.7910
 1.2900	38.7460
 1.2910	38.6990
 1.2920	38.6460
 1.2930	38.5910
 1.2940	38.5320
 1.2950	38.4690
 1.2960	38.4050
 1.2970	38.3370
 1.2980	38.2650
 1.2990	38.1900
 1.3000	38.1110
 1.3010	38.0280
 1.3020	37.9450
 1.3030	37.8580
 1.3040	37.7660
 1.3050	37.6700
 1.3060	37.5680
 1.3070	37.4620
 1.3080	37.3510
 1.3090	37.2370
 1.3100	37.1190
 1.3110	36.9960
 1.3120	36.8710
 1.3130	36.7420
 1.3140	36.6090
 1.3150	36.4750
 1.3160	36.3350
 1.3170	36.1920
 1.3180	36.0450
 1.3190	35.8940
 1.3200	35.7370
 1.3210	35.5750
 1.3220	35.4100
 1.3230	35.2410
 1.3240	35.0690
 1.3250	34.8960
 1.3260	34.7210
 1.3270	34.5410
 1.3280	34.3620
 1.3290	34.1790
 1.3300	33.9940
 1.3310	33.8100
 1.3320	33.6220
 1.3330	33.4340
 1.3340	33.2460
 1.3350	33.0590
 1.3360	32.8710
 1.3370	32.6830
 1.3380	32.4970
 1.3390	32.3110
 1.3400	32.1260
 1.3410	31.9450
 1.3420	31.7660
 1.3430	31.5890
 1.3440	31.4140
 1.3450	31.2410
 1.3460	31.0690
 1.3470	30.9020
 1.3480	30.7360
 1.3490	30.5740
 1.3500	30.4160
 1.3510	30.2580
 1.3520	30.1020
 1.3530	29.9470
 1.3540	29.7920
 1.3550	29.6390
 1.3560	29.4870
 1.3570	29.3330
 1.3580	29.1810
 1.3590	29.0250
 1.3600	28.8670
 1.3610	28.7080
 1.3620	28.5460
 1.3630	28.3800
 1.3640	28.2080
 1.3650	28.0300
 1.3660	27.8460
 1.3670	27.6540
 1.3680	27.4540
 1.3690	27.2440
 1.3700	27.0220
 1.3710	26.7880
 1.3720	26.5420
 1.3730	26.2810
 1.3740	26.0090
 1.3750	25.7210
 1.3760	25.4120
 1.3770	25.0860
 1.3780	24.7390
 1.3790	24.3750
 1.3800	23.9960
 1.3810	23.5970
 1.3820	23.1880
 1.3830	22.7650
 1.3840	22.3310
 1.3850	21.8840
 1.3860	21.4320
 1.3870	20.9680
 1.3880	20.5060
 1.3890	20.0400
 1.3900	19.5720
 1.3910	19.1090
 1.3920	18.6480
 1.3930	18.1900
 1.3940	17.7400
 1.3950	17.2950
 1.3960	16.8600
 1.3970	16.4380
 1.3980	16.0280
 1.3990	15.6360
 1.4000	15.2570
 1.4010	14.8900
 1.4020	14.5430
 1.4030	14.2090
 1.4040	13.8920
 1.4050	13.5920
 1.4060	13.3070
 1.4070	13.0400
 1.4080	12.7880
 1.4090	12.5500
 1.4100	12.3280
 1.4110	12.1190
 1.4120	11.9230
 1.4130	11.7410
 1.4140	11.5720
 1.4150	11.4150
 1.4160	11.2690
 1.4170	11.1340
 1.4180	11.0080
 1.4190	10.8900
 1.4200	10.7820
 1.4210	10.6810
 1.4220	10.5870
 1.4230	10.5020
 1.4240	10.4230
 1.4250	10.3490
 1.4260	10.2820
 1.4270	10.2200
 1.4280	10.1630
 1.4290	10.1110
 1.4300	10.0640
 1.4310	10.0210
 1.4320	 9.9830
 1.4330	 9.9470
 1.4340	 9.9160
 1.4350	 9.8880
 1.4360	 9.8630
 1.4370	 9.8420
 1.4380	 9.8240
 1.4390	 9.8070
 1.4400	 9.7930
 1.4410	 9.7820
 1.4420	 9.7720
 1.4430	 9.7660
 1.4440	 9.7620
 1.4450	 9.7590
 1.4460	 9.7580
 1.4470	 9.7580
 1.4480	 9.7590
 1.4490	 9.7620
 1.4500	 9.7660
 1.4510	 9.7710
 1.4520	 9.7780
 1.4530	 9.7840
 1.4540	 9.7930
 1.4550	 9.8040
 1.4560	 9.8160
 1.4570	 9.8300
 1.4580	 9.8460
 1.4590	 9.8630
 1.4600	 9.8830
 1.4610	 9.9050
 1.4620	 9.9290
 1.4630	 9.9570
 1.4640	 9.9860
 1.4650	10.0180
 1.4660	10.0540
 1.4670	10.0920
 1.4680	10.1340
 1.4690	10.1790
 1.4700	10.2250
 1.4710	10.2750
 1.4720	10.3260
 1.4730	10.3800
 1.4740	10.4370
 1.4750	10.4950
 1.4760	10.5570
 1.4770	10.6200
 1.4780	10.6840
 1.4790	10.7500
 1.4800	10.8170
 1.4810	10.8850
 1.4820	10.9540
 1.4830	11.0240
 1.4840	11.0960
 1.4850	11.1680
 1.4860	11.2420
 1.4870	11.3180
 1.4880	11.3940
 1.4890	11.4690
 1.4900	11.5460
 1.4910	11.6220
 1.4920	11.6990
 1.4930	11.7790
 1.4940	11.8580
 1.4950	11.9380
 1.4960	12.0180
 1.4970	12.0970
 1.4980	12.1780
 1.4990	12.2600
 1.5000	12.3420
 1.5010	12.4250
 1.5020	12.5070
 1.5030	12.5890
 1.5040	12.6710
 1.5050	12.7520
 1.5060	12.8340
 1.5070	12.9170
 1.5080	13.0000
 1.5090	13.0820
 1.5100	13.1640
 1.5110	13.2460
 1.5120	13.3270
 1.5130	13.4070
 1.5140	13.4880
 1.5150	13.5700
 1.5160	13.6510
 1.5170	13.7320
 1.5180	13.8130
 1.5190	13.8920
 1.5200	13.9720
 1.5210	14.0520
 1.5220	14.1300
 1.5230	14.2090
 1.5240	14.2870
 1.5250	14.3640
 1.5260	14.4410
 1.5270	14.5180
 1.5280	14.5940
 1.5290	14.6690
 1.5300	14.7450
 1.5310	14.8200
 1.5320	14.8940
 1.5330	14.9670
 1.5340	15.0390
 1.5350	15.1120
 1.5360	15.1840
 1.5370	15.2570
 1.5380	15.3290
 1.5390	15.4000
 1.5400	15.4700
 1.5410	15.5400
 1.5420	15.6090
 1.5430	15.6790
 1.5440	15.7480
 1.5450	15.8160
 1.5460	15.8840
 1.5470	15.9530
 1.5480	16.0200
 1.5490	16.0870
 1.5500	16.1540
 1.5510	16.2190
 1.5520	16.2840
 1.5530	16.3490
 1.5540	16.4130
 1.5550	16.4770
 1.5560	16.5400
 1.5570	16.6030
 1.5580	16.6650
 1.5590	16.7260
 1.5600	16.7880
 1.5610	16.8480
 1.5620	16.9070
 1.5630	16.9670
 1.5640	17.0270
 1.5650	17.0880
 1.5660	17.1480
 1.5670	17.2060
 1.5680	17.2670
 1.5690	17.3250
 1.5700	17.3840
 1.5710	17.4440
 1.5720	17.5010
 1.5730	17.5590
 1.5740	17.6170
 1.5750	17.6740
 1.5760	17.7310
 1.5770	17.7870
 1.5780	17.8430
 1.5790	17.9000
 1.5800	17.9550
 1.5810	18.0110
 1.5820	18.0670
 1.5830	18.1240
 1.5840	18.1810
 1.5850	18.2370
 1.5860	18.2940
 1.5870	18.3500
 1.5880	18.4040
 1.5890	18.4600
 1.5900	18.5150
 1.5910	18.5700
 1.5920	18.6270
 1.5930	18.6820
 1.5940	18.7370
 1.5950	18.7930
 1.5960	18.8480
 1.5970	18.9020
 1.5980	18.9570
 1.5990	19.0110
 1.6000	19.0660
 1.6010	19.1210
 1.6020	19.1750
 1.6030	19.2280
 1.6040	19.2800
 1.6050	19.3320
 1.6060	19.3850
 1.6070	19.4360
 1.6080	19.4860
 1.6090	19.5360
 1.6100	19.5860
 1.6110	19.6360
 1.6120	19.6850
 1.6130	19.7340
 1.6140	19.7810
 1.6150	19.8280
 1.6160	19.8750
 1.6170	19.9200
 1.6180	19.9640
 1.6190	20.0080
 1.6200	20.0520
 1.6210	20.0950
 1.6220	20.1370
 1.6230	20.1790
 1.6240	20.2180
 1.6250	20.2560
 1.6260	20.2950
 1.6270	20.3330
 1.6280	20.3730
 1.6290	20.4100
 1.6300	20.4460
 1.6310	20.4810
 1.6320	20.5140
 1.6330	20.5470
 1.6340	20.5800
 1.6350	20.6120
 1.6360	20.6450
 1.6370	20.6750
 1.6380	20.7010
 1.6390	20.7280
 1.6400	20.7530
 1.6410	20.7760
 1.6420	20.7970
 1.6430	20.8160
 1.6440	20.8320
 1.6450	20.8470
 1.6460	20.8600
 1.6470	20.8700
 1.6480	20.8770
 1.6490	20.8820
 1.6500	20.8850
 1.6510	20.8850
 1.6520	20.8830
 1.6530	20.8780
 1.6540	20.8710
 1.6550	20.8630
 1.6560	20.8530
 1.6570	20.8430
 1.6580	20.8320
 1.6590	20.8200
 1.6600	20.8080
 1.6610	20.7940
 1.6620	20.7820
 1.6630	20.7670
 1.6640	20.7540
 1.6650	20.7440
 1.6660	20.7330
 1.6670	20.7240
 1.6680	20.7150
 1.6690	20.7050
 1.6700	20.6930
 1.6710	20.6800
 1.6720	20.6660
 1.6730	20.6530
 1.6740	20.6390
 1.6750	20.6240
 1.6760	20.6060
 1.6770	20.5840
 1.6780	20.5600
 1.6790	20.5350
 1.6800	20.5060
 1.6810	20.4750
 1.6820	20.4410
 1.6830	20.4030
 1.6840	20.3650
 1.6850	20.3220
 1.6860	20.2780
 1.6870	20.2320
 1.6880	20.1840
 1.6890	20.1340
 1.6900	20.0830
 1.6910	20.0280
 1.6920	19.9740
 1.6930	19.9160
 1.6940	19.8600
 1.6950	19.8040
 1.6960	19.7470
 1.6970	19.6870
 1.6980	19.6280
 1.6990	19.5680
 1.7000	19.5080
 1.7010	19.4510
 1.7020	19.3920
 1.7030	19.3320
 1.7040	19.2750
 1.7050	19.2170
 1.7060	19.1610
 1.7070	19.1070
 1.7080	19.0530
 1.7090	18.9990
 1.7100	18.9480
 1.7110	18.8980
 1.7120	18.8500
 1.7130	18.8060
 1.7140	18.7610
 1.7150	18.7190
 1.7160	18.6790
 1.7170	18.6400
 1.7180	18.6030
 1.7190	18.5670
 1.7200	18.5330
 1.7210	18.4990
 1.7220	18.4670
 1.7230	18.4380
 1.7240	18.4090
 1.7250	18.3830
 1.7260	18.3600
 1.7270	18.3380
 1.7280	18.3180
 1.7290	18.2990
 1.7300	18.2830
 1.7310	18.2680
 1.7320	18.2570
 1.7330	18.2440
 1.7340	18.2340
 1.7350	18.2190
 1.7360	18.2040
 1.7370	18.1850
 1.7380	18.1610
 1.7390	18.1350
 1.7400	18.1070
 1.7410	18.0750
 1.7420	18.0390
 1.7430	18.0000
 1.7440	17.9570
 1.7450	17.9130
 1.7460	17.8680
 1.7470	17.8220
 1.7480	17.7760
 1.7490	17.7300
 1.7500	17.6840
 1.7510	17.6390
 1.7520	17.5950
 1.7530	17.5520
 1.7540	17.5100
 1.7550	17.4690
 1.7560	17.4310
 1.7570	17.3950
 1.7580	17.3610
 1.7590	17.3280
 1.7600	17.2980
 1.7610	17.2710
 1.7620	17.2440
 1.7630	17.2180
 1.7640	17.1960
 1.7650	17.1760
 1.7660	17.1560
 1.7670	17.1390
 1.7680	17.1220
 1.7690	17.1020
 1.7700	17.0860
 1.7710	17.0720
 1.7720	17.0570
 1.7730	17.0440
 1.7740	17.0300
 1.7750	17.0130
 1.7760	16.9990
 1.7770	16.9870
 1.7780	16.9750
 1.7790	16.9660
 1.7800	16.9560
 1.7810	16.9470
 1.7820	16.9390
 1.7830	16.9330
 1.7840	16.9270
 1.7850	16.9220
 1.7860	16.9190
 1.7870	16.9170
 1.7880	16.9150
 1.7890	16.9150
 1.7900	16.9150
 1.7910	16.9170
 1.7920	16.9210
 1.7930	16.9260
 1.7940	16.9310
 1.7950	16.9370
 1.7960	16.9430
 1.7970	16.9510
 1.7980	16.9610
 1.7990	16.9710
 1.8000	16.9820
 1.8010	16.9920
 1.8020	17.0020
 1.8030	17.0110
 1.8040	17.0210
 1.8050	17.0300
 1.8060	17.0380
 1.8070	17.0470
 1.8080	17.0570
 1.8090	17.0670
 1.8100	17.0770
 1.8110	17.0860
 1.8120	17.0970
 1.8130	17.1050
 1.8140	17.1130
 1.8150	17.1210
 1.8160	17.1270
 1.8170	17.1350
 1.8180	17.1430
 1.8190	17.1500
 1.8200	17.1550
 1.8210	17.1590
 1.8220	17.1610
 1.8230	17.1630
 1.8240	17.1630
 1.8250	17.1640
 1.8260	17.1630
 1.8270	17.1560
 1.8280	17.1500
 1.8290	17.1430
 1.8300	17.1370
 1.8310	17.1300
 1.8320	17.1240
 1.8330	17.1170
 1.8340	17.1110
 1.8350	17.1110
 1.8360	17.0870
 1.8370	17.0630
 1.8380	17.0370
 1.8390	17.0070
 1.8400	16.9770
 1.8410	16.9380
 1.8420	16.8940
 1.8430	16.8470
 1.8440	16.7920
 1.8450	16.7310
 1.8460	16.6700
 1.8470	16.6010
 1.8480	16.5220
 1.8490	16.4350
 1.8500	16.3440
 1.8510	16.2460
 1.8520	16.1400
 1.8530	16.0270
 1.8540	15.9060
 1.8550	15.7760
 1.8560	15.6340
 1.8570	15.4830
 1.8580	15.3260
 1.8590	15.1600
 1.8600	14.9840
 1.8610	14.7970
 1.8620	14.6010
 1.8630	14.3940
 1.8640	14.1760
 1.8650	13.9470
 1.8660	13.7100
 1.8670	13.4620
 1.8680	13.2040
 1.8690	12.9340
 1.8700	12.6520
 1.8710	12.3580
 1.8720	12.0590
 1.8730	11.7530
 1.8740	11.4410
 1.8750	11.1280
 1.8760	10.8090
 1.8770	10.4900
 1.8780	10.1730
 1.8790	 9.8550
 1.8800	 9.5430
 1.8810	 9.2370
 1.8820	 8.9300
 1.8830	 8.6230
 1.8840	 8.3250
 1.8850	 8.0270
 1.8860	 7.7340
 1.8870	 7.4500
 1.8880	 7.1730
 1.8890	 6.9080
 1.8900	 6.6550
 1.8910	 6.4130
 1.8920	 6.1830
 1.8930	 5.9660
 1.8940	 5.7580
 1.8950	 5.5620
 1.8960	 5.3780
 1.8970	 5.2040
 1.8980	 5.0420
 1.8990	 4.8920
 1.9000	 4.7540
 1.9010	 4.6310
 1.9020	 4.5140
 1.9030	 4.4070
 1.9040	 4.3100
 1.9050	 4.2200
 1.9060	 4.1370
 1.9070	 4.0650
 1.9080	 4.0010
 1.9090	 3.9440
 1.9100	 3.8930
 1.9110	 3.8440
 1.9120	 3.7990
 1.9130	 3.7580
 1.9140	 3.7210
 1.9150	 3.6870
 1.9160	 3.6580
 1.9170	 3.6350
 1.9180	 3.6120
 1.9190	 3.5910
 1.9200	 3.5750
 1.9210	 3.5600
 1.9220	 3.5470
 1.9230	 3.5380
 1.9240	 3.5310
 1.9250	 3.5260
 1.9260	 3.5230
 1.9270	 3.5220
 1.9280	 3.5220
 1.9290	 3.5240
 1.9300	 3.5260
 1.9310	 3.5270
 1.9320	 3.5300
 1.9330	 3.5350
 1.9340	 3.5410
 1.9350	 3.5500
 1.9360	 3.5630
 1.9370	 3.5760
 1.9380	 3.5890
 1.9390	 3.6030
 1.9400	 3.6160
 1.9410	 3.6290
 1.9420	 3.6430
 1.9430	 3.6600
 1.9440	 3.6780
 1.9450	 3.6970
 1.9460	 3.7170
 1.9470	 3.7390
 1.9480	 3.7600
 1.9490	 3.7810
 1.9500	 3.8040
 1.9510	 3.8270
 1.9520	 3.8540
 1.9530	 3.8810
 1.9540	 3.9060
 1.9550	 3.9310
 1.9560	 3.9560
 1.9570	 3.9820
 1.9580	 4.0080
 1.9590	 4.0350
 1.9600	 4.0600
 1.9610	 4.0880
 1.9620	 4.1180
 1.9630	 4.1480
 1.9640	 4.1790
 1.9650	 4.2110
 1.9660	 4.2410
 1.9670	 4.2730
 1.9680	 4.3040
 1.9690	 4.3350
 1.9700	 4.3660
 1.9710	 4.3980
 1.9720	 4.4290
 1.9730	 4.4600
 1.9740	 4.4930
 1.9750	 4.5250
 1.9760	 4.5590
 1.9770	 4.5980
 1.9780	 4.6350
 1.9790	 4.6720
 1.9800	 4.7100
 1.9810	 4.7470
 1.9820	 4.7830
 1.9830	 4.8200
 1.9840	 4.8590
 1.9850	 4.8970
 1.9860	 4.9350
 1.9870	 4.9750
 1.9880	 5.0150
 1.9890	 5.0520
 1.9900	 5.0930
 1.9910	 5.1330
 1.9920	 5.1710
 1.9930	 5.2090
 1.9940	 5.2460
 1.9950	 5.2790
 1.9960	 5.3170
 1.9970	 5.3570
 1.9980	 5.3970
 1.9990	 5.4390
 2.0000	 5.4820
 2.0010	 5.5200
 2.0020	 5.5580
 2.0030	 5.5950
 2.0040	 5.6310
 2.0050	 5.6690
 2.0060	 5.7110
 2.0070	 5.7500
 2.0080	 5.7900
 2.0090	 5.8270
 2.0100	 5.8610
 2.0110	 5.8970
 2.0120	 5.9330
 2.0130	 5.9700
 2.0140	 6.0070
 2.0150	 6.0420
 2.0160	 6.0770
 2.0170	 6.1140
 2.0180	 6.1480
 2.0190	 6.1820
 2.0200	 6.2160
 2.0210	 6.2500
 2.0220	 6.2820
 2.0230	 6.3120
 2.0240	 6.3420
 2.0250	 6.3700
 2.0260	 6.3990
 2.0270	 6.4310
 2.0280	 6.4630
 2.0290	 6.4910
 2.0300	 6.5170
 2.0310	 6.5440
 2.0320	 6.5680
 2.0330	 6.5930
 2.0340	 6.6200
 2.0350	 6.6450
 2.0360	 6.6690
 2.0370	 6.6910
 2.0380	 6.7110
 2.0390	 6.7330
 2.0400	 6.7570
 2.0410	 6.7790
 2.0420	 6.8020
 2.0430	 6.8260
 2.0440	 6.8480
 2.0450	 6.8670
 2.0460	 6.8870
 2.0470	 6.9060
 2.0480	 6.9260
 2.0490	 6.9450
 2.0500	 6.9640
 2.0510	 6.9840
 2.0520	 7.0030
 2.0530	 7.0200
 2.0540	 7.0380
 2.0550	 7.0590
 2.0560	 7.0800
 2.0570	 7.1020
 2.0580	 7.1230
 2.0590	 7.1420
 2.0600	 7.1600
 2.0610	 7.1780
 2.0620	 7.1950
 2.0630	 7.2140
 2.0640	 7.2350
 2.0650	 7.2550
 2.0660	 7.2760
 2.0670	 7.2960
 2.0680	 7.3170
 2.0690	 7.3380
 2.0700	 7.3590
 2.0710	 7.3800
 2.0720	 7.4000
 2.0730	 7.4180
 2.0740	 7.4390
 2.0750	 7.4590
 2.0760	 7.4800
 2.0770	 7.5020
 2.0780	 7.5220
 2.0790	 7.5420
 2.0800	 7.5600
 2.0810	 7.5770
 2.0820	 7.5950
 2.0830	 7.6150
 2.0840	 7.6340
 2.0850	 7.6550
 2.0860	 7.6750
 2.0870	 7.6940
 2.0880	 7.7140
 2.0890	 7.7350
 2.0900	 7.7600
 2.0910	 7.7800
 2.0920	 7.8000
 2.0930	 7.8200
 2.0940	 7.8370
 2.0950	 7.8560
 2.0960	 7.8800
 2.0970	 7.9000
 2.0980	 7.9200
 2.0990	 7.9390
 2.1000	 7.9550
 2.1010	 7.9750
 2.1020	 7.9980
 2.1030	 8.0180
 2.1040	 8.0380
 2.1050	 8.0610
 2.1060	 8.0820
 2.1070	 8.1000
 2.1080	 8.1220
 2.1090	 8.1450
 2.1100	 8.1670
 2.1110	 8.1870
 2.1120	 8.2080
 2.1130	 8.2280
 2.1140	 8.2480
 2.1150	 8.2670
 2.1160	 8.2860
 2.1170	 8.3050
 2.1180	 8.3230
 2.1190	 8.3390
 2.1200	 8.3560
 2.1210	 8.3750
 2.1220	 8.3900
 2.1230	 8.4100
 2.1240	 8.4320
 2.1250	 8.4520
 2.1260	 8.4730
 2.1270	 8.4910
 2.1280	 8.5070
 2.1290	 8.5240
 2.1300	 8.5410
 2.1310	 8.5590
 2.1320	 8.5780
 2.1330	 8.5970
 2.1340	 8.6140
 2.1350	 8.6320
 2.1360	 8.6500
 2.1370	 8.6690
 2.1380	 8.6880
 2.1390	 8.7060
 2.1400	 8.7240
 2.1410	 8.7410
 2.1420	 8.7600
 2.1430	 8.7780
 2.1440	 8.7990
 2.1450	 8.8250
 2.1460	 8.8470
 2.1470	 8.8700
 2.1480	 8.8920
 2.1490	 8.9110
 2.1500	 8.9320
 2.1510	 8.9540
 2.1520	 8.9770
 2.1530	 9.0030
 2.1540	 9.0250
 2.1550	 9.0430
 2.1560	 9.0640
 2.1570	 9.0790
 2.1580	 9.1000
 2.1590	 9.1260
 2.1600	 9.1510
 2.1610	 9.1730
 2.1620	 9.1980
 2.1630	 9.2210
 2.1640	 9.2420
 2.1650	 9.2630
 2.1660	 9.2850
 2.1670	 9.3040
 2.1680	 9.3190
 2.1690	 9.3390
 2.1700	 9.3600
 2.1710	 9.3800
 2.1720	 9.4030
 2.1730	 9.4230
 2.1740	 9.4360
 2.1750	 9.4530
 2.1760	 9.4710
 2.1770	 9.4880
 2.1780	 9.5060
 2.1790	 9.5260
 2.1800	 9.5470
 2.1810	 9.5670
 2.1820	 9.5860
 2.1830	 9.6090
 2.1840	 9.6280
 2.1850	 9.6450
 2.1860	 9.6630
 2.1870	 9.6810
 2.1880	 9.7000
 2.1890	 9.7200
 2.1900	 9.7380
 2.1910	 9.7580
 2.1920	 9.7760
 2.1930	 9.7910
 2.1940	 9.8090
 2.1950	 9.8270
 2.1960	 9.8450
 2.1970	 9.8640
 2.1980	 9.8820
 2.1990	 9.9000
 2.2000	 9.9170
 2.2010	 9.9330
 2.2020	 9.9480
 2.2030	 9.9610
 2.2040	 9.9760
 2.2050	 9.9930
 2.2060	10.0060
 2.2070	10.0190
 2.2080	10.0330
 2.2090	10.0440
 2.2100	10.0530
 2.2110	10.0630
 2.2120	10.0750
 2.2130	10.0830
 2.2140	10.0900
 2.2150	10.0940
 2.2160	10.0940
 2.2170	10.0980
 2.2180	10.1020
 2.2190	10.1040
 2.2200	10.1070
 2.2210	10.1050
 2.2220	10.0980
 2.2230	10.0920
 2.2240	10.0850
 2.2250	10.0770
 2.2260	10.0680
 2.2270	10.0570
 2.2280	10.0420
 2.2290	10.0260
 2.2300	10.0070
 2.2310	 9.9880
 2.2320	 9.9670
 2.2330	 9.9410
 2.2340	 9.9130
 2.2350	 9.8800
 2.2360	 9.8480
 2.2370	 9.8140
 2.2380	 9.7780
 2.2390	 9.7420
 2.2400	 9.7030
 2.2410	 9.6640
 2.2420	 9.6180
 2.2430	 9.5660
 2.2440	 9.5160
 2.2450	 9.4580
 2.2460	 9.4070
 2.2470	 9.3620
 2.2480	 9.3110
 2.2490	 9.2590
 2.2500	 9.2070
 2.2510	 9.1500
 2.2520	 9.0960
 2.2530	 9.0440
 2.2540	 8.9910
 2.2550	 8.9350
 2.2560	 8.8820
 2.2570	 8.8250
 2.2580	 8.7730
 2.2590	 8.7280
 2.2600	 8.6770
 2.2610	 8.6250
 2.2620	 8.5740
 2.2630	 8.5210
 2.2640	 8.4680
 2.2650	 8.4220
 2.2660	 8.3790
 2.2670	 8.3360
 2.2680	 8.2970
 2.2690	 8.2540
 2.2700	 8.2100
 2.2710	 8.1680
 2.2720	 8.1250
 2.2730	 8.0830
 2.2740	 8.0440
 2.2750	 8.0050
 2.2760	 7.9650
 2.2770	 7.9260
 2.2780	 7.8860
 2.2790	 7.8510
 2.2800	 7.8210
 2.2810	 7.7880
 2.2820	 7.7610
 2.2830	 7.7290
 2.2840	 7.6910
 2.2850	 7.6560
 2.2860	 7.6250
 2.2870	 7.5900
 2.2880	 7.5520
 2.2890	 7.5150
 2.2900	 7.4760
 2.2910	 7.4370
 2.2920	 7.3990
 2.2930	 7.3590
 2.2940	 7.3130
 2.2950	 7.2730
 2.2960	 7.2380
 2.2970	 7.2010
 2.2980	 7.1650
 2.2990	 7.1310
 2.3000	 7.0940
 2.3010	 7.0560
 2.3020	 7.0250
 2.3030	 6.9960
 2.3040	 6.9700
 2.3050	 6.9500
 2.3060	 6.9330
 2.3070	 6.9190
 2.3080	 6.9070
 2.3090	 6.8990
 2.3100	 6.8930
 2.3110	 6.8850
 2.3120	 6.8770
 2.3130	 6.8700
 2.3140	 6.8670
 2.3150	 6.8630
 2.3160	 6.8630
 2.3170	 6.8690
 2.3180	 6.8710
 2.3190	 6.8760
 2.3200	 6.8730
 2.3210	 6.8680
 2.3220	 6.8630
 2.3230	 6.8550
 2.3240	 6.8430
 2.3250	 6.8290
 2.3260	 6.8130
 2.3270	 6.7870
 2.3280	 6.7680
 2.3290	 6.7560
 2.3300	 6.7370
 2.3310	 6.7180
 2.3320	 6.6950
 2.3330	 6.6630
 2.3340	 6.6390
 2.3350	 6.6220
 2.3360	 6.5970
 2.3370	 6.5720
 2.3380	 6.5480
 2.3390	 6.5180
 2.3400	 6.4900
 2.3410	 6.4670
 2.3420	 6.4410
 2.3430	 6.4110
 2.3440	 6.3850
 2.3450	 6.3620
 2.3460	 6.3420
 2.3470	 6.3260
 2.3480	 6.3110
 2.3490	 6.3030
 2.3500	 6.2900
 2.3510	 6.2770
 2.3520	 6.2640
 2.3530	 6.2530
 2.3540	 6.2360
 2.3550	 6.2240
 2.3560	 6.2100
 2.3570	 6.1940
 2.3580	 6.1830
 2.3590	 6.1730
 2.3600	 6.1620
 2.3610	 6.1450
 2.3620	 6.1280
 2.3630	 6.1130
 2.3640	 6.1010
 2.3650	 6.0900
 2.3660	 6.0740
 2.3670	 6.0580
 2.3680	 6.0360
 2.3690	 6.0170
 2.3700	 5.9990
 2.3710	 5.9720
 2.3720	 5.9570
 2.3730	 5.9400
 2.3740	 5.9180
 2.3750	 5.9100
 2.3760	 5.8950
 2.3770	 5.8710
 2.3780	 5.8540
 2.3790	 5.8360
 2.3800	 5.8130
 2.3810	 5.8050
 2.3820	 5.7970
 2.3830	 5.7830
 2.3840	 5.7580
 2.3850	 5.7290
 2.3860	 5.7030
 2.3870	 5.6740
 2.3880	 5.6570
 2.3890	 5.6380
 2.3900	 5.6190
 2.3910	 5.6080
 2.3920	 5.5850
 2.3930	 5.5720
 2.3940	 5.5570
 2.3950	 5.5300
 2.3960	 5.5090
 2.3970	 5.4800
 2.3980	 5.4510
 2.3990	 5.4320
 2.4000	 5.4170
 2.4010	 5.4000
 2.4020	 5.3780
 2.4030	 5.3540
 2.4040	 5.3210
 2.4050	 5.2940
 2.4060	 5.2740
 2.4070	 5.2410
 2.4080	 5.2190
 2.4090	 5.1970
 2.4100	 5.1720
 2.4110	 5.1610
 2.4120	 5.1470
 2.4130	 5.1190
 2.4140	 5.0860
 2.4150	 5.0590
 2.4160	 5.0330
 2.4170	 5.0090
 2.4180	 4.9900
 2.4190	 4.9670
 2.4200	 4.9420
 2.4210	 4.9260
 2.4220	 4.9060
 2.4230	 4.8770
 2.4240	 4.8510
 2.4250	 4.8230
 2.4260	 4.7940
 2.4270	 4.7650
 2.4280	 4.7340
 2.4290	 4.7070
 2.4300	 4.6760
 2.4310	 4.6580
 2.4320	 4.6490
 2.4330	 4.6310
 2.4340	 4.6190
 2.4350	 4.6140
 2.4360	 4.5900
 2.4370	 4.5590
 2.4380	 4.5320
 2.4390	 4.5010
 2.4400	 4.4700
 2.4410	 4.4450
 2.4420	 4.4260
 2.4430	 4.3990
 2.4440	 4.3650
 2.4450	 4.3250
 2.4460	 4.2810
 2.4470	 4.2380
 2.4480	 4.1970
 2.4490	 4.1740
 2.4500	 4.1640
 2.4510	 4.1480
 2.4520	 4.1340
 2.4530	 4.1180
 2.4540	 4.0930
 2.4550	 4.0780
 2.4560	 4.0790
 2.4570	 4.0630
 2.4580	 4.0350
 2.4590	 4.0020
 2.4600	 3.9580
 2.4610	 3.9280
 2.4620	 3.9140
 2.4630	 3.8970
 2.4640	 3.8830
 2.4650	 3.8780
 2.4660	 3.8470
 2.4670	 3.8290
 2.4680	 3.8230
 2.4690	 3.7910
 2.4700	 3.7830
 2.4710	 3.7700
 2.4720	 3.7600
 2.4730	 3.7700
 2.4740	 3.7590
 2.4750	 3.7460
 2.4760	 3.7220
 2.4770	 3.6730
 2.4780	 3.6450
 2.4790	 3.6150
 2.4800	 3.5980
 2.4810	 3.6040
 2.4820	 3.6090
 2.4830	 3.6060
 2.4840	 3.6000
 2.4850	 3.5800
 2.4860	 3.5490
 2.4870	 3.5250
 2.4880	 3.5210
 2.4890	 3.5150
 2.4900	 3.5020
 2.4910	 3.5250
 2.4920	 3.5350
 2.4930	 3.5590
 2.4940	 3.5800
 2.4950	 3.5280
 2.4960	 3.5150
 2.4970	 3.4890
 2.4980	 3.4660
 2.4990	 3.4840
 2.5000	 3.4360
