Name: Pinus ponderosa 2
Type: vegetation
Class: Tree
Genus: Pinus
Species: ponderosa
Sample No.: VH255
Owner: UCSB
Wavelength Range: VSWIR
Origin: 37.044; -119.3023; WGS84
Collection Date: 11/2/2013
Description: Samples were collected as part of the HyspIRI Airborne Campaign. 48 individual plants were sampled in three times in 2013 - spring  summer  and fall. The name of the sample includes a 1  2  or 3 which references a different individual of the species. Samples were taken to JPL and processed within 48 hours of collection. The same leaves were processed in the Nicolet and then measured using the ASD.
Measurement: Bidirectional reflectance
First Column: X
Second Column: Y
X Units: Wavelength (micrometers)
Y Units: Reflectance (percentage)
First X Value: 0.35
Last X Value: 2.5
Number of X Values: 2151
Additional Information: vegetation.tree.pinus.ponderosa.vswir.vh255.ucsb.asd.ancillary.txt

 0.3500	 5.9490
 0.3510	 5.8170
 0.3520	 5.6180
 0.3530	 5.5650
 0.3540	 5.6820
 0.3550	 5.6610
 0.3560	 5.5800
 0.3570	 5.5100
 0.3580	 5.5120
 0.3590	 5.5790
 0.3600	 5.6240
 0.3610	 5.5940
 0.3620	 5.4800
 0.3630	 5.3970
 0.3640	 5.3690
 0.3650	 5.3880
 0.3660	 5.4510
 0.3670	 5.4760
 0.3680	 5.4360
 0.3690	 5.3600
 0.3700	 5.4050
 0.3710	 5.4100
 0.3720	 5.3310
 0.3730	 5.4210
 0.3740	 5.4320
 0.3750	 5.4010
 0.3760	 5.4290
 0.3770	 5.4340
 0.3780	 5.4300
 0.3790	 5.4070
 0.3800	 5.3380
 0.3810	 5.3170
 0.3820	 5.2980
 0.3830	 5.2760
 0.3840	 5.4160
 0.3850	 5.4300
 0.3860	 5.3530
 0.3870	 5.3320
 0.3880	 5.4040
 0.3890	 5.4020
 0.3900	 5.3270
 0.3910	 5.3490
 0.3920	 5.3550
 0.3930	 5.3310
 0.3940	 5.3040
 0.3950	 5.3350
 0.3960	 5.3660
 0.3970	 5.3670
 0.3980	 5.3340
 0.3990	 5.3320
 0.4000	 5.3370
 0.4010	 5.3330
 0.4020	 5.3220
 0.4030	 5.3080
 0.4040	 5.3200
 0.4050	 5.3700
 0.4060	 5.3850
 0.4070	 5.4070
 0.4080	 5.4380
 0.4090	 5.4540
 0.4100	 5.4640
 0.4110	 5.5080
 0.4120	 5.5820
 0.4130	 5.5950
 0.4140	 5.6210
 0.4150	 5.6530
 0.4160	 5.6780
 0.4170	 5.7490
 0.4180	 5.8110
 0.4190	 5.8510
 0.4200	 5.8990
 0.4210	 5.9480
 0.4220	 6.0030
 0.4230	 6.0600
 0.4240	 6.0970
 0.4250	 6.1470
 0.4260	 6.1930
 0.4270	 6.2070
 0.4280	 6.2730
 0.4290	 6.3340
 0.4300	 6.3630
 0.4310	 6.3970
 0.4320	 6.4320
 0.4330	 6.4560
 0.4340	 6.4650
 0.4350	 6.4850
 0.4360	 6.5120
 0.4370	 6.5480
 0.4380	 6.5950
 0.4390	 6.6240
 0.4400	 6.6570
 0.4410	 6.7020
 0.4420	 6.7260
 0.4430	 6.7420
 0.4440	 6.7650
 0.4450	 6.8070
 0.4460	 6.8220
 0.4470	 6.8400
 0.4480	 6.8730
 0.4490	 6.9000
 0.4500	 6.9250
 0.4510	 6.9410
 0.4520	 6.9490
 0.4530	 6.9790
 0.4540	 7.0040
 0.4550	 7.0160
 0.4560	 7.0210
 0.4570	 7.0450
 0.4580	 7.0650
 0.4590	 7.0730
 0.4600	 7.0900
 0.4610	 7.1010
 0.4620	 7.1020
 0.4630	 7.0960
 0.4640	 7.1150
 0.4650	 7.1380
 0.4660	 7.1510
 0.4670	 7.1470
 0.4680	 7.1450
 0.4690	 7.1490
 0.4700	 7.1580
 0.4710	 7.1550
 0.4720	 7.1570
 0.4730	 7.1610
 0.4740	 7.1590
 0.4750	 7.1640
 0.4760	 7.1690
 0.4770	 7.1710
 0.4780	 7.1770
 0.4790	 7.1870
 0.4800	 7.1960
 0.4810	 7.2000
 0.4820	 7.2070
 0.4830	 7.2070
 0.4840	 7.2050
 0.4850	 7.2170
 0.4860	 7.2240
 0.4870	 7.2330
 0.4880	 7.2500
 0.4890	 7.2740
 0.4900	 7.3000
 0.4910	 7.3270
 0.4920	 7.3570
 0.4930	 7.3900
 0.4940	 7.4280
 0.4950	 7.4700
 0.4960	 7.5160
 0.4970	 7.5630
 0.4980	 7.6160
 0.4990	 7.6760
 0.5000	 7.7350
 0.5010	 7.8080
 0.5020	 7.8940
 0.5030	 7.9830
 0.5040	 8.0810
 0.5050	 8.1880
 0.5060	 8.3040
 0.5070	 8.4280
 0.5080	 8.5590
 0.5090	 8.7030
 0.5100	 8.8670
 0.5110	 9.0410
 0.5120	 9.2250
 0.5130	 9.4210
 0.5140	 9.6340
 0.5150	 9.8550
 0.5160	10.0870
 0.5170	10.3340
 0.5180	10.5940
 0.5190	10.8600
 0.5200	11.1330
 0.5210	11.4130
 0.5220	11.6910
 0.5230	11.9650
 0.5240	12.2340
 0.5250	12.5020
 0.5260	12.7660
 0.5270	13.0200
 0.5280	13.2540
 0.5290	13.4790
 0.5300	13.6890
 0.5310	13.8840
 0.5320	14.0710
 0.5330	14.2390
 0.5340	14.3940
 0.5350	14.5420
 0.5360	14.6700
 0.5370	14.7860
 0.5380	14.8940
 0.5390	14.9900
 0.5400	15.0730
 0.5410	15.1440
 0.5420	15.2080
 0.5430	15.2770
 0.5440	15.3470
 0.5450	15.4150
 0.5460	15.4840
 0.5470	15.5700
 0.5480	15.6530
 0.5490	15.7210
 0.5500	15.7730
 0.5510	15.8130
 0.5520	15.8430
 0.5530	15.8600
 0.5540	15.8570
 0.5550	15.8390
 0.5560	15.8030
 0.5570	15.7440
 0.5580	15.6720
 0.5590	15.5880
 0.5600	15.4940
 0.5610	15.3900
 0.5620	15.2750
 0.5630	15.1510
 0.5640	15.0180
 0.5650	14.8810
 0.5660	14.7400
 0.5670	14.5920
 0.5680	14.4310
 0.5690	14.2630
 0.5700	14.0950
 0.5710	13.9350
 0.5720	13.7770
 0.5730	13.6250
 0.5740	13.4790
 0.5750	13.3370
 0.5760	13.1960
 0.5770	13.0640
 0.5780	12.9420
 0.5790	12.8170
 0.5800	12.7120
 0.5810	12.6230
 0.5820	12.5380
 0.5830	12.4580
 0.5840	12.3790
 0.5850	12.2990
 0.5860	12.2260
 0.5870	12.1590
 0.5880	12.0970
 0.5890	12.0360
 0.5900	11.9760
 0.5910	11.9230
 0.5920	11.8760
 0.5930	11.8350
 0.5940	11.8010
 0.5950	11.7690
 0.5960	11.7360
 0.5970	11.7040
 0.5980	11.6710
 0.5990	11.6360
 0.6000	11.5990
 0.6010	11.5590
 0.6020	11.5150
 0.6030	11.4670
 0.6040	11.4120
 0.6050	11.3470
 0.6060	11.2770
 0.6070	11.2070
 0.6080	11.1300
 0.6090	11.0410
 0.6100	10.9400
 0.6110	10.8340
 0.6120	10.7560
 0.6130	10.6830
 0.6140	10.6040
 0.6150	10.5270
 0.6160	10.4520
 0.6170	10.3790
 0.6180	10.3110
 0.6190	10.2500
 0.6200	10.1930
 0.6210	10.1430
 0.6220	10.1050
 0.6230	10.0690
 0.6240	10.0390
 0.6250	10.0160
 0.6260	10.0000
 0.6270	 9.9870
 0.6280	 9.9770
 0.6290	 9.9680
 0.6300	 9.9610
 0.6310	 9.9520
 0.6320	 9.9400
 0.6330	 9.9270
 0.6340	 9.9030
 0.6350	 9.8650
 0.6360	 9.8150
 0.6370	 9.7530
 0.6380	 9.6790
 0.6390	 9.5940
 0.6400	 9.5010
 0.6410	 9.4040
 0.6420	 9.3000
 0.6430	 9.1910
 0.6440	 9.0890
 0.6450	 8.9870
 0.6460	 8.8840
 0.6470	 8.7850
 0.6480	 8.6980
 0.6490	 8.6210
 0.6500	 8.5520
 0.6510	 8.4930
 0.6520	 8.4430
 0.6530	 8.3950
 0.6540	 8.3470
 0.6550	 8.2970
 0.6560	 8.2440
 0.6570	 8.1820
 0.6580	 8.1090
 0.6590	 8.0350
 0.6600	 7.9570
 0.6610	 7.8750
 0.6620	 7.7890
 0.6630	 7.7080
 0.6640	 7.6320
 0.6650	 7.5600
 0.6660	 7.4990
 0.6670	 7.4470
 0.6680	 7.4020
 0.6690	 7.3620
 0.6700	 7.3340
 0.6710	 7.3120
 0.6720	 7.2950
 0.6730	 7.2890
 0.6740	 7.2890
 0.6750	 7.2910
 0.6760	 7.2990
 0.6770	 7.3120
 0.6780	 7.3320
 0.6790	 7.3590
 0.6800	 7.3960
 0.6810	 7.4450
 0.6820	 7.5070
 0.6830	 7.5870
 0.6840	 7.6910
 0.6850	 7.8240
 0.6860	 7.9900
 0.6870	 8.1950
 0.6880	 8.4550
 0.6890	 8.7700
 0.6900	 9.1430
 0.6910	 9.5850
 0.6920	10.1000
 0.6930	10.6850
 0.6940	11.3370
 0.6950	12.0600
 0.6960	12.8430
 0.6970	13.6810
 0.6980	14.5670
 0.6990	15.4960
 0.7000	16.4630
 0.7010	17.4610
 0.7020	18.4800
 0.7030	19.5100
 0.7040	20.5570
 0.7050	21.6200
 0.7060	22.6720
 0.7070	23.7330
 0.7080	24.8020
 0.7090	25.8700
 0.7100	26.9500
 0.7110	28.0280
 0.7120	29.1040
 0.7130	30.1900
 0.7140	31.2660
 0.7150	32.3420
 0.7160	33.4200
 0.7170	34.4820
 0.7180	35.5400
 0.7190	36.5930
 0.7200	37.6310
 0.7210	38.6540
 0.7220	39.6590
 0.7230	40.6450
 0.7240	41.6150
 0.7250	42.5480
 0.7260	43.4560
 0.7270	44.3410
 0.7280	45.1780
 0.7290	45.9830
 0.7300	46.7510
 0.7310	47.4740
 0.7320	48.1740
 0.7330	48.8330
 0.7340	49.4510
 0.7350	50.0470
 0.7360	50.6060
 0.7370	51.1330
 0.7380	51.6300
 0.7390	52.0860
 0.7400	52.5110
 0.7410	52.9100
 0.7420	53.2880
 0.7430	53.6340
 0.7440	53.9560
 0.7450	54.2530
 0.7460	54.5230
 0.7470	54.7800
 0.7480	55.0120
 0.7490	55.2140
 0.7500	55.4020
 0.7510	55.5720
 0.7520	55.7210
 0.7530	55.8520
 0.7540	55.9940
 0.7550	56.1210
 0.7560	56.2210
 0.7570	56.3000
 0.7580	56.3790
 0.7590	56.4610
 0.7600	56.5380
 0.7610	56.5900
 0.7620	56.6460
 0.7630	56.7040
 0.7640	56.7500
 0.7650	56.7770
 0.7660	56.7980
 0.7670	56.8210
 0.7680	56.8490
 0.7690	56.8780
 0.7700	56.9070
 0.7710	56.9300
 0.7720	56.9410
 0.7730	56.9490
 0.7740	56.9670
 0.7750	56.9950
 0.7760	56.9980
 0.7770	57.0030
 0.7780	57.0150
 0.7790	57.0290
 0.7800	57.0420
 0.7810	57.0430
 0.7820	57.0390
 0.7830	57.0550
 0.7840	57.0710
 0.7850	57.0800
 0.7860	57.0820
 0.7870	57.0840
 0.7880	57.0990
 0.7890	57.1180
 0.7900	57.1300
 0.7910	57.1390
 0.7920	57.1410
 0.7930	57.1440
 0.7940	57.1560
 0.7950	57.1700
 0.7960	57.1740
 0.7970	57.1700
 0.7980	57.1800
 0.7990	57.1940
 0.8000	57.2040
 0.8010	57.2060
 0.8020	57.2210
 0.8030	57.2300
 0.8040	57.2350
 0.8050	57.2450
 0.8060	57.2630
 0.8070	57.2690
 0.8080	57.2630
 0.8090	57.2680
 0.8100	57.2810
 0.8110	57.2880
 0.8120	57.2870
 0.8130	57.3080
 0.8140	57.3090
 0.8150	57.3100
 0.8160	57.3320
 0.8170	57.3500
 0.8180	57.3670
 0.8190	57.3790
 0.8200	57.3810
 0.8210	57.3810
 0.8220	57.3780
 0.8230	57.3780
 0.8240	57.3920
 0.8250	57.4040
 0.8260	57.4010
 0.8270	57.3860
 0.8280	57.3970
 0.8290	57.4150
 0.8300	57.4220
 0.8310	57.4130
 0.8320	57.4120
 0.8330	57.4250
 0.8340	57.4350
 0.8350	57.4260
 0.8360	57.4280
 0.8370	57.4380
 0.8380	57.4540
 0.8390	57.4710
 0.8400	57.4770
 0.8410	57.4810
 0.8420	57.4930
 0.8430	57.5190
 0.8440	57.5340
 0.8450	57.5470
 0.8460	57.5660
 0.8470	57.5800
 0.8480	57.5780
 0.8490	57.5820
 0.8500	57.6110
 0.8510	57.6300
 0.8520	57.6350
 0.8530	57.6360
 0.8540	57.6510
 0.8550	57.6480
 0.8560	57.6600
 0.8570	57.6840
 0.8580	57.6820
 0.8590	57.6940
 0.8600	57.7060
 0.8610	57.7090
 0.8620	57.7170
 0.8630	57.7170
 0.8640	57.7200
 0.8650	57.7300
 0.8660	57.7300
 0.8670	57.7320
 0.8680	57.7330
 0.8690	57.7280
 0.8700	57.7340
 0.8710	57.7370
 0.8720	57.7300
 0.8730	57.7200
 0.8740	57.7270
 0.8750	57.7400
 0.8760	57.7450
 0.8770	57.7320
 0.8780	57.7270
 0.8790	57.7220
 0.8800	57.7120
 0.8810	57.6950
 0.8820	57.6900
 0.8830	57.6880
 0.8840	57.6790
 0.8850	57.6610
 0.8860	57.6570
 0.8870	57.6560
 0.8880	57.6400
 0.8890	57.6290
 0.8900	57.6090
 0.8910	57.5890
 0.8920	57.5780
 0.8930	57.5580
 0.8940	57.5530
 0.8950	57.5540
 0.8960	57.5310
 0.8970	57.5110
 0.8980	57.4970
 0.8990	57.4810
 0.9000	57.4520
 0.9010	57.4380
 0.9020	57.4230
 0.9030	57.4050
 0.9040	57.4020
 0.9050	57.3750
 0.9060	57.3390
 0.9070	57.3130
 0.9080	57.3060
 0.9090	57.2870
 0.9100	57.2580
 0.9110	57.2300
 0.9120	57.2140
 0.9130	57.1830
 0.9140	57.1540
 0.9150	57.1420
 0.9160	57.1090
 0.9170	57.0810
 0.9180	57.0520
 0.9190	57.0110
 0.9200	56.9940
 0.9210	56.9730
 0.9220	56.9380
 0.9230	56.8970
 0.9240	56.8600
 0.9250	56.8150
 0.9260	56.7650
 0.9270	56.7200
 0.9280	56.6580
 0.9290	56.5970
 0.9300	56.5400
 0.9310	56.4720
 0.9320	56.4210
 0.9330	56.3670
 0.9340	56.2930
 0.9350	56.2040
 0.9360	56.1320
 0.9370	56.0560
 0.9380	55.9690
 0.9390	55.8940
 0.9400	55.8100
 0.9410	55.7140
 0.9420	55.6090
 0.9430	55.5050
 0.9440	55.4070
 0.9450	55.3040
 0.9460	55.1830
 0.9470	55.0280
 0.9480	54.8800
 0.9490	54.7380
 0.9500	54.5880
 0.9510	54.4190
 0.9520	54.2560
 0.9530	54.0810
 0.9540	53.8810
 0.9550	53.6950
 0.9560	53.5170
 0.9570	53.3480
 0.9580	53.1900
 0.9590	53.0340
 0.9600	52.8840
 0.9610	52.7620
 0.9620	52.6820
 0.9630	52.5920
 0.9640	52.4890
 0.9650	52.3980
 0.9660	52.3420
 0.9670	52.2990
 0.9680	52.2340
 0.9690	52.1680
 0.9700	52.1330
 0.9710	52.1010
 0.9720	52.0650
 0.9730	52.0400
 0.9740	52.0350
 0.9750	52.0120
 0.9760	51.9830
 0.9770	51.9670
 0.9780	51.9730
 0.9790	51.9710
 0.9800	51.9680
 0.9810	51.9780
 0.9820	52.0060
 0.9830	52.0280
 0.9840	52.0470
 0.9850	52.0740
 0.9860	52.1160
 0.9870	52.1540
 0.9880	52.1940
 0.9890	52.2360
 0.9900	52.2800
 0.9910	52.3440
 0.9920	52.3930
 0.9930	52.4270
 0.9940	52.4680
 0.9950	52.5360
 0.9960	52.6070
 0.9970	52.6650
 0.9980	52.7070
 0.9990	52.7780
 1.0000	52.6480
 1.0010	52.2430
 1.0020	52.1130
 1.0030	52.1890
 1.0040	52.2600
 1.0050	52.3310
 1.0060	52.4060
 1.0070	52.4750
 1.0080	52.5450
 1.0090	52.6140
 1.0100	52.6830
 1.0110	52.7520
 1.0120	52.8210
 1.0130	52.8880
 1.0140	52.9590
 1.0150	53.0330
 1.0160	53.1050
 1.0170	53.1760
 1.0180	53.2490
 1.0190	53.3180
 1.0200	53.3860
 1.0210	53.4620
 1.0220	53.5400
 1.0230	53.6150
 1.0240	53.6950
 1.0250	53.7630
 1.0260	53.8250
 1.0270	53.8860
 1.0280	53.9370
 1.0290	53.9960
 1.0300	54.0600
 1.0310	54.1180
 1.0320	54.1760
 1.0330	54.2370
 1.0340	54.2920
 1.0350	54.3420
 1.0360	54.3910
 1.0370	54.4440
 1.0380	54.4940
 1.0390	54.5410
 1.0400	54.5890
 1.0410	54.6380
 1.0420	54.6820
 1.0430	54.7210
 1.0440	54.7610
 1.0450	54.7980
 1.0460	54.8350
 1.0470	54.8710
 1.0480	54.9100
 1.0490	54.9550
 1.0500	54.9930
 1.0510	55.0290
 1.0520	55.0640
 1.0530	55.0950
 1.0540	55.1170
 1.0550	55.1440
 1.0560	55.1690
 1.0570	55.1960
 1.0580	55.2230
 1.0590	55.2470
 1.0600	55.2680
 1.0610	55.2910
 1.0620	55.3100
 1.0630	55.3310
 1.0640	55.3530
 1.0650	55.3740
 1.0660	55.3960
 1.0670	55.4130
 1.0680	55.4270
 1.0690	55.4390
 1.0700	55.4500
 1.0710	55.4570
 1.0720	55.4660
 1.0730	55.4800
 1.0740	55.4850
 1.0750	55.4820
 1.0760	55.4850
 1.0770	55.4860
 1.0780	55.4860
 1.0790	55.4930
 1.0800	55.4920
 1.0810	55.4870
 1.0820	55.4800
 1.0830	55.4690
 1.0840	55.4570
 1.0850	55.4400
 1.0860	55.4290
 1.0870	55.4150
 1.0880	55.4040
 1.0890	55.3860
 1.0900	55.3640
 1.0910	55.3410
 1.0920	55.3120
 1.0930	55.2860
 1.0940	55.2640
 1.0950	55.2360
 1.0960	55.2100
 1.0970	55.1790
 1.0980	55.1430
 1.0990	55.1060
 1.1000	55.0650
 1.1010	55.0260
 1.1020	54.9890
 1.1030	54.9520
 1.1040	54.9090
 1.1050	54.8660
 1.1060	54.8220
 1.1070	54.7740
 1.1080	54.7260
 1.1090	54.6790
 1.1100	54.6290
 1.1110	54.5770
 1.1120	54.5220
 1.1130	54.4690
 1.1140	54.4080
 1.1150	54.3430
 1.1160	54.2730
 1.1170	54.1990
 1.1180	54.1180
 1.1190	54.0330
 1.1200	53.9380
 1.1210	53.8350
 1.1220	53.7290
 1.1230	53.6100
 1.1240	53.4810
 1.1250	53.3390
 1.1260	53.1880
 1.1270	53.0190
 1.1280	52.8380
 1.1290	52.6380
 1.1300	52.4250
 1.1310	52.1910
 1.1320	51.9390
 1.1330	51.6700
 1.1340	51.3830
 1.1350	51.0830
 1.1360	50.7660
 1.1370	50.4380
 1.1380	50.1010
 1.1390	49.7550
 1.1400	49.3980
 1.1410	49.0410
 1.1420	48.6800
 1.1430	48.3170
 1.1440	47.9620
 1.1450	47.6070
 1.1460	47.2640
 1.1470	46.9220
 1.1480	46.6020
 1.1490	46.2900
 1.1500	46.0000
 1.1510	45.7250
 1.1520	45.4690
 1.1530	45.2300
 1.1540	45.0090
 1.1550	44.8060
 1.1560	44.6230
 1.1570	44.4590
 1.1580	44.3120
 1.1590	44.1780
 1.1600	44.0560
 1.1610	43.9430
 1.1620	43.8410
 1.1630	43.7510
 1.1640	43.6680
 1.1650	43.5940
 1.1660	43.5290
 1.1670	43.4690
 1.1680	43.4170
 1.1690	43.3660
 1.1700	43.3210
 1.1710	43.2740
 1.1720	43.2320
 1.1730	43.1880
 1.1740	43.1430
 1.1750	43.1000
 1.1760	43.0560
 1.1770	43.0090
 1.1780	42.9610
 1.1790	42.9120
 1.1800	42.8630
 1.1810	42.8130
 1.1820	42.7630
 1.1830	42.7100
 1.1840	42.6580
 1.1850	42.6060
 1.1860	42.5560
 1.1870	42.5070
 1.1880	42.4610
 1.1890	42.4180
 1.1900	42.3780
 1.1910	42.3420
 1.1920	42.3110
 1.1930	42.2860
 1.1940	42.2630
 1.1950	42.2420
 1.1960	42.2260
 1.1970	42.2130
 1.1980	42.2030
 1.1990	42.2010
 1.2000	42.2050
 1.2010	42.2120
 1.2020	42.2230
 1.2030	42.2350
 1.2040	42.2520
 1.2050	42.2750
 1.2060	42.3010
 1.2070	42.3310
 1.2080	42.3660
 1.2090	42.4020
 1.2100	42.4430
 1.2110	42.4860
 1.2120	42.5320
 1.2130	42.5830
 1.2140	42.6370
 1.2150	42.6950
 1.2160	42.7600
 1.2170	42.8260
 1.2180	42.8930
 1.2190	42.9630
 1.2200	43.0310
 1.2210	43.1020
 1.2220	43.1770
 1.2230	43.2500
 1.2240	43.3240
 1.2250	43.3970
 1.2260	43.4690
 1.2270	43.5410
 1.2280	43.6120
 1.2290	43.6840
 1.2300	43.7550
 1.2310	43.8240
 1.2320	43.8920
 1.2330	43.9570
 1.2340	44.0200
 1.2350	44.0790
 1.2360	44.1400
 1.2370	44.1990
 1.2380	44.2570
 1.2390	44.3140
 1.2400	44.3710
 1.2410	44.4270
 1.2420	44.4800
 1.2430	44.5330
 1.2440	44.5830
 1.2450	44.6290
 1.2460	44.6740
 1.2470	44.7160
 1.2480	44.7570
 1.2490	44.7980
 1.2500	44.8380
 1.2510	44.8780
 1.2520	44.9170
 1.2530	44.9520
 1.2540	44.9840
 1.2550	45.0150
 1.2560	45.0430
 1.2570	45.0680
 1.2580	45.0910
 1.2590	45.1130
 1.2600	45.1300
 1.2610	45.1480
 1.2620	45.1660
 1.2630	45.1820
 1.2640	45.1950
 1.2650	45.2040
 1.2660	45.2110
 1.2670	45.2170
 1.2680	45.2220
 1.2690	45.2250
 1.2700	45.2230
 1.2710	45.2160
 1.2720	45.2050
 1.2730	45.1940
 1.2740	45.1810
 1.2750	45.1670
 1.2760	45.1490
 1.2770	45.1270
 1.2780	45.1050
 1.2790	45.0800
 1.2800	45.0510
 1.2810	45.0200
 1.2820	44.9830
 1.2830	44.9430
 1.2840	44.9040
 1.2850	44.8630
 1.2860	44.8170
 1.2870	44.7680
 1.2880	44.7180
 1.2890	44.6620
 1.2900	44.6020
 1.2910	44.5410
 1.2920	44.4760
 1.2930	44.4060
 1.2940	44.3330
 1.2950	44.2560
 1.2960	44.1730
 1.2970	44.0880
 1.2980	43.9950
 1.2990	43.8980
 1.3000	43.7990
 1.3010	43.6940
 1.3020	43.5820
 1.3030	43.4630
 1.3040	43.3380
 1.3050	43.2100
 1.3060	43.0790
 1.3070	42.9440
 1.3080	42.8030
 1.3090	42.6530
 1.3100	42.4940
 1.3110	42.3280
 1.3120	42.1550
 1.3130	41.9780
 1.3140	41.7940
 1.3150	41.6040
 1.3160	41.4080
 1.3170	41.2090
 1.3180	41.0020
 1.3190	40.7910
 1.3200	40.5740
 1.3210	40.3500
 1.3220	40.1230
 1.3230	39.8930
 1.3240	39.6580
 1.3250	39.4230
 1.3260	39.1840
 1.3270	38.9400
 1.3280	38.6950
 1.3290	38.4460
 1.3300	38.1940
 1.3310	37.9410
 1.3320	37.6860
 1.3330	37.4330
 1.3340	37.1800
 1.3350	36.9270
 1.3360	36.6760
 1.3370	36.4240
 1.3380	36.1720
 1.3390	35.9260
 1.3400	35.6820
 1.3410	35.4440
 1.3420	35.2130
 1.3430	34.9830
 1.3440	34.7570
 1.3450	34.5350
 1.3460	34.3150
 1.3470	34.1010
 1.3480	33.8930
 1.3490	33.6890
 1.3500	33.4890
 1.3510	33.2920
 1.3520	33.0970
 1.3530	32.9050
 1.3540	32.7150
 1.3550	32.5280
 1.3560	32.3420
 1.3570	32.1550
 1.3580	31.9660
 1.3590	31.7750
 1.3600	31.5820
 1.3610	31.3840
 1.3620	31.1770
 1.3630	30.9670
 1.3640	30.7520
 1.3650	30.5260
 1.3660	30.2960
 1.3670	30.0550
 1.3680	29.8010
 1.3690	29.5370
 1.3700	29.2590
 1.3710	28.9690
 1.3720	28.6650
 1.3730	28.3460
 1.3740	28.0140
 1.3750	27.6660
 1.3760	27.2980
 1.3770	26.9130
 1.3780	26.5050
 1.3790	26.0800
 1.3800	25.6380
 1.3810	25.1740
 1.3820	24.6990
 1.3830	24.2090
 1.3840	23.7100
 1.3850	23.1970
 1.3860	22.6820
 1.3870	22.1550
 1.3880	21.6340
 1.3890	21.1110
 1.3900	20.5880
 1.3910	20.0770
 1.3920	19.5720
 1.3930	19.0730
 1.3940	18.5890
 1.3950	18.1110
 1.3960	17.6490
 1.3970	17.2040
 1.3980	16.7760
 1.3990	16.3700
 1.4000	15.9820
 1.4010	15.6100
 1.4020	15.2590
 1.4030	14.9250
 1.4040	14.6110
 1.4050	14.3170
 1.4060	14.0400
 1.4070	13.7820
 1.4080	13.5410
 1.4090	13.3140
 1.4100	13.1040
 1.4110	12.9080
 1.4120	12.7260
 1.4130	12.5570
 1.4140	12.4000
 1.4150	12.2560
 1.4160	12.1220
 1.4170	11.9970
 1.4180	11.8820
 1.4190	11.7740
 1.4200	11.6750
 1.4210	11.5840
 1.4220	11.5000
 1.4230	11.4230
 1.4240	11.3520
 1.4250	11.2850
 1.4260	11.2250
 1.4270	11.1690
 1.4280	11.1180
 1.4290	11.0720
 1.4300	11.0310
 1.4310	10.9930
 1.4320	10.9590
 1.4330	10.9290
 1.4340	10.9020
 1.4350	10.8780
 1.4360	10.8570
 1.4370	10.8380
 1.4380	10.8220
 1.4390	10.8070
 1.4400	10.7960
 1.4410	10.7870
 1.4420	10.7810
 1.4430	10.7760
 1.4440	10.7730
 1.4450	10.7700
 1.4460	10.7690
 1.4470	10.7700
 1.4480	10.7720
 1.4490	10.7740
 1.4500	10.7770
 1.4510	10.7810
 1.4520	10.7870
 1.4530	10.7930
 1.4540	10.8020
 1.4550	10.8130
 1.4560	10.8230
 1.4570	10.8350
 1.4580	10.8480
 1.4590	10.8630
 1.4600	10.8810
 1.4610	10.9010
 1.4620	10.9240
 1.4630	10.9480
 1.4640	10.9760
 1.4650	11.0060
 1.4660	11.0390
 1.4670	11.0740
 1.4680	11.1120
 1.4690	11.1520
 1.4700	11.1950
 1.4710	11.2410
 1.4720	11.2890
 1.4730	11.3390
 1.4740	11.3910
 1.4750	11.4450
 1.4760	11.5010
 1.4770	11.5580
 1.4780	11.6190
 1.4790	11.6810
 1.4800	11.7430
 1.4810	11.8090
 1.4820	11.8740
 1.4830	11.9400
 1.4840	12.0090
 1.4850	12.0770
 1.4860	12.1460
 1.4870	12.2170
 1.4880	12.2890
 1.4890	12.3620
 1.4900	12.4360
 1.4910	12.5110
 1.4920	12.5870
 1.4930	12.6640
 1.4940	12.7410
 1.4950	12.8190
 1.4960	12.8980
 1.4970	12.9750
 1.4980	13.0540
 1.4990	13.1330
 1.5000	13.2130
 1.5010	13.2950
 1.5020	13.3770
 1.5030	13.4600
 1.5040	13.5430
 1.5050	13.6260
 1.5060	13.7090
 1.5070	13.7930
 1.5080	13.8770
 1.5090	13.9610
 1.5100	14.0450
 1.5110	14.1290
 1.5120	14.2130
 1.5130	14.2960
 1.5140	14.3800
 1.5150	14.4640
 1.5160	14.5480
 1.5170	14.6310
 1.5180	14.7140
 1.5190	14.7950
 1.5200	14.8780
 1.5210	14.9610
 1.5220	15.0430
 1.5230	15.1250
 1.5240	15.2060
 1.5250	15.2880
 1.5260	15.3700
 1.5270	15.4510
 1.5280	15.5330
 1.5290	15.6110
 1.5300	15.6900
 1.5310	15.7710
 1.5320	15.8510
 1.5330	15.9310
 1.5340	16.0090
 1.5350	16.0850
 1.5360	16.1610
 1.5370	16.2380
 1.5380	16.3160
 1.5390	16.3960
 1.5400	16.4730
 1.5410	16.5510
 1.5420	16.6260
 1.5430	16.7010
 1.5440	16.7770
 1.5450	16.8530
 1.5460	16.9290
 1.5470	17.0060
 1.5480	17.0810
 1.5490	17.1580
 1.5500	17.2330
 1.5510	17.3060
 1.5520	17.3800
 1.5530	17.4530
 1.5540	17.5240
 1.5550	17.5980
 1.5560	17.6710
 1.5570	17.7420
 1.5580	17.8140
 1.5590	17.8850
 1.5600	17.9550
 1.5610	18.0260
 1.5620	18.0960
 1.5630	18.1670
 1.5640	18.2360
 1.5650	18.3050
 1.5660	18.3730
 1.5670	18.4410
 1.5680	18.5080
 1.5690	18.5750
 1.5700	18.6420
 1.5710	18.7090
 1.5720	18.7750
 1.5730	18.8430
 1.5740	18.9090
 1.5750	18.9730
 1.5760	19.0410
 1.5770	19.1060
 1.5780	19.1690
 1.5790	19.2350
 1.5800	19.2980
 1.5810	19.3610
 1.5820	19.4280
 1.5830	19.4930
 1.5840	19.5560
 1.5850	19.6200
 1.5860	19.6830
 1.5870	19.7470
 1.5880	19.8130
 1.5890	19.8800
 1.5900	19.9450
 1.5910	20.0100
 1.5920	20.0750
 1.5930	20.1390
 1.5940	20.2030
 1.5950	20.2680
 1.5960	20.3330
 1.5970	20.3970
 1.5980	20.4630
 1.5990	20.5270
 1.6000	20.5910
 1.6010	20.6540
 1.6020	20.7180
 1.6030	20.7830
 1.6040	20.8470
 1.6050	20.9100
 1.6060	20.9740
 1.6070	21.0370
 1.6080	21.1000
 1.6090	21.1620
 1.6100	21.2220
 1.6110	21.2810
 1.6120	21.3380
 1.6130	21.3940
 1.6140	21.4510
 1.6150	21.5060
 1.6160	21.5610
 1.6170	21.6140
 1.6180	21.6690
 1.6190	21.7220
 1.6200	21.7730
 1.6210	21.8250
 1.6220	21.8710
 1.6230	21.9160
 1.6240	21.9600
 1.6250	22.0000
 1.6260	22.0420
 1.6270	22.0850
 1.6280	22.1230
 1.6290	22.1630
 1.6300	22.2010
 1.6310	22.2400
 1.6320	22.2810
 1.6330	22.3210
 1.6340	22.3610
 1.6350	22.4010
 1.6360	22.4410
 1.6370	22.4810
 1.6380	22.5220
 1.6390	22.5620
 1.6400	22.6010
 1.6410	22.6380
 1.6420	22.6750
 1.6430	22.7080
 1.6440	22.7390
 1.6450	22.7670
 1.6460	22.7930
 1.6470	22.8160
 1.6480	22.8360
 1.6490	22.8540
 1.6500	22.8690
 1.6510	22.8800
 1.6520	22.8900
 1.6530	22.8970
 1.6540	22.9010
 1.6550	22.9040
 1.6560	22.9040
 1.6570	22.9020
 1.6580	22.8990
 1.6590	22.8930
 1.6600	22.8870
 1.6610	22.8770
 1.6620	22.8670
 1.6630	22.8570
 1.6640	22.8470
 1.6650	22.8390
 1.6660	22.8310
 1.6670	22.8210
 1.6680	22.8130
 1.6690	22.8040
 1.6700	22.7940
 1.6710	22.7870
 1.6720	22.7780
 1.6730	22.7670
 1.6740	22.7560
 1.6750	22.7450
 1.6760	22.7320
 1.6770	22.7200
 1.6780	22.7050
 1.6790	22.6870
 1.6800	22.6670
 1.6810	22.6440
 1.6820	22.6190
 1.6830	22.5930
 1.6840	22.5630
 1.6850	22.5310
 1.6860	22.4980
 1.6870	22.4610
 1.6880	22.4220
 1.6890	22.3800
 1.6900	22.3370
 1.6910	22.2910
 1.6920	22.2460
 1.6930	22.2010
 1.6940	22.1560
 1.6950	22.1100
 1.6960	22.0630
 1.6970	22.0150
 1.6980	21.9670
 1.6990	21.9180
 1.7000	21.8690
 1.7010	21.8190
 1.7020	21.7680
 1.7030	21.7170
 1.7040	21.6660
 1.7050	21.6120
 1.7060	21.5600
 1.7070	21.5090
 1.7080	21.4570
 1.7090	21.4040
 1.7100	21.3520
 1.7110	21.3020
 1.7120	21.2510
 1.7130	21.2030
 1.7140	21.1560
 1.7150	21.1080
 1.7160	21.0630
 1.7170	21.0190
 1.7180	20.9740
 1.7190	20.9290
 1.7200	20.8830
 1.7210	20.8360
 1.7220	20.7930
 1.7230	20.7500
 1.7240	20.7090
 1.7250	20.6680
 1.7260	20.6270
 1.7270	20.5860
 1.7280	20.5480
 1.7290	20.5120
 1.7300	20.4780
 1.7310	20.4450
 1.7320	20.4140
 1.7330	20.3820
 1.7340	20.3500
 1.7350	20.3180
 1.7360	20.2870
 1.7370	20.2530
 1.7380	20.2190
 1.7390	20.1800
 1.7400	20.1340
 1.7410	20.0890
 1.7420	20.0400
 1.7430	19.9910
 1.7440	19.9410
 1.7450	19.8870
 1.7460	19.8290
 1.7470	19.7740
 1.7480	19.7170
 1.7490	19.6610
 1.7500	19.6070
 1.7510	19.5500
 1.7520	19.4900
 1.7530	19.4330
 1.7540	19.3750
 1.7550	19.3200
 1.7560	19.2640
 1.7570	19.2080
 1.7580	19.1550
 1.7590	19.1050
 1.7600	19.0590
 1.7610	19.0170
 1.7620	18.9750
 1.7630	18.9350
 1.7640	18.8960
 1.7650	18.8580
 1.7660	18.8220
 1.7670	18.7850
 1.7680	18.7510
 1.7690	18.7190
 1.7700	18.6880
 1.7710	18.6570
 1.7720	18.6290
 1.7730	18.6010
 1.7740	18.5750
 1.7750	18.5540
 1.7760	18.5310
 1.7770	18.5080
 1.7780	18.4860
 1.7790	18.4650
 1.7800	18.4450
 1.7810	18.4250
 1.7820	18.4100
 1.7830	18.3960
 1.7840	18.3830
 1.7850	18.3740
 1.7860	18.3650
 1.7870	18.3560
 1.7880	18.3500
 1.7890	18.3460
 1.7900	18.3450
 1.7910	18.3430
 1.7920	18.3410
 1.7930	18.3420
 1.7940	18.3440
 1.7950	18.3470
 1.7960	18.3560
 1.7970	18.3620
 1.7980	18.3680
 1.7990	18.3750
 1.8000	18.3810
 1.8010	18.3880
 1.8020	18.3990
 1.8030	18.4070
 1.8040	18.4140
 1.8050	18.4230
 1.8060	18.4300
 1.8070	18.4390
 1.8080	18.4490
 1.8090	18.4570
 1.8100	18.4640
 1.8110	18.4710
 1.8120	18.4770
 1.8130	18.4820
 1.8140	18.4870
 1.8150	18.4910
 1.8160	18.4950
 1.8170	18.4990
 1.8180	18.5030
 1.8190	18.5070
 1.8200	18.5100
 1.8210	18.5120
 1.8220	18.5110
 1.8230	18.5080
 1.8240	18.5050
 1.8250	18.5000
 1.8260	18.4960
 1.8270	18.4950
 1.8280	18.4890
 1.8290	18.4780
 1.8300	18.4930
 1.8310	18.5400
 1.8320	18.5490
 1.8330	18.5320
 1.8340	18.5120
 1.8350	18.4850
 1.8360	18.4540
 1.8370	18.4210
 1.8380	18.3810
 1.8390	18.3400
 1.8400	18.2970
 1.8410	18.2480
 1.8420	18.1960
 1.8430	18.1390
 1.8440	18.0750
 1.8450	18.0050
 1.8460	17.9310
 1.8470	17.8490
 1.8480	17.7610
 1.8490	17.6650
 1.8500	17.5600
 1.8510	17.4450
 1.8520	17.3230
 1.8530	17.1950
 1.8540	17.0590
 1.8550	16.9150
 1.8560	16.7630
 1.8570	16.5980
 1.8580	16.4220
 1.8590	16.2420
 1.8600	16.0550
 1.8610	15.8570
 1.8620	15.6520
 1.8630	15.4410
 1.8640	15.2160
 1.8650	14.9810
 1.8660	14.7390
 1.8670	14.4860
 1.8680	14.2260
 1.8690	13.9570
 1.8700	13.6810
 1.8710	13.3980
 1.8720	13.1100
 1.8730	12.8190
 1.8740	12.5290
 1.8750	12.2340
 1.8760	11.9370
 1.8770	11.6420
 1.8780	11.3490
 1.8790	11.0600
 1.8800	10.7790
 1.8810	10.5040
 1.8820	10.2330
 1.8830	 9.9680
 1.8840	 9.7100
 1.8850	 9.4600
 1.8860	 9.2190
 1.8870	 8.9870
 1.8880	 8.7670
 1.8890	 8.5610
 1.8900	 8.3630
 1.8910	 8.1750
 1.8920	 7.9960
 1.8930	 7.8270
 1.8940	 7.6690
 1.8950	 7.5240
 1.8960	 7.3920
 1.8970	 7.2720
 1.8980	 7.1600
 1.8990	 7.0570
 1.9000	 6.9620
 1.9010	 6.8780
 1.9020	 6.7990
 1.9030	 6.7290
 1.9040	 6.6640
 1.9050	 6.6050
 1.9060	 6.5530
 1.9070	 6.5070
 1.9080	 6.4680
 1.9090	 6.4310
 1.9100	 6.3940
 1.9110	 6.3630
 1.9120	 6.3340
 1.9130	 6.3090
 1.9140	 6.2880
 1.9150	 6.2720
 1.9160	 6.2550
 1.9170	 6.2370
 1.9180	 6.2220
 1.9190	 6.2090
 1.9200	 6.1960
 1.9210	 6.1870
 1.9220	 6.1790
 1.9230	 6.1730
 1.9240	 6.1680
 1.9250	 6.1670
 1.9260	 6.1650
 1.9270	 6.1640
 1.9280	 6.1620
 1.9290	 6.1590
 1.9300	 6.1590
 1.9310	 6.1590
 1.9320	 6.1610
 1.9330	 6.1650
 1.9340	 6.1710
 1.9350	 6.1780
 1.9360	 6.1890
 1.9370	 6.1980
 1.9380	 6.2070
 1.9390	 6.2160
 1.9400	 6.2250
 1.9410	 6.2350
 1.9420	 6.2460
 1.9430	 6.2550
 1.9440	 6.2660
 1.9450	 6.2770
 1.9460	 6.2900
 1.9470	 6.3070
 1.9480	 6.3210
 1.9490	 6.3340
 1.9500	 6.3480
 1.9510	 6.3630
 1.9520	 6.3770
 1.9530	 6.3950
 1.9540	 6.4120
 1.9550	 6.4290
 1.9560	 6.4470
 1.9570	 6.4660
 1.9580	 6.4840
 1.9590	 6.5040
 1.9600	 6.5250
 1.9610	 6.5450
 1.9620	 6.5650
 1.9630	 6.5830
 1.9640	 6.6000
 1.9650	 6.6200
 1.9660	 6.6410
 1.9670	 6.6630
 1.9680	 6.6870
 1.9690	 6.7110
 1.9700	 6.7360
 1.9710	 6.7640
 1.9720	 6.7890
 1.9730	 6.8140
 1.9740	 6.8380
 1.9750	 6.8610
 1.9760	 6.8840
 1.9770	 6.9110
 1.9780	 6.9380
 1.9790	 6.9640
 1.9800	 6.9910
 1.9810	 7.0170
 1.9820	 7.0420
 1.9830	 7.0700
 1.9840	 7.0990
 1.9850	 7.1280
 1.9860	 7.1590
 1.9870	 7.1900
 1.9880	 7.2190
 1.9890	 7.2460
 1.9900	 7.2750
 1.9910	 7.3050
 1.9920	 7.3360
 1.9930	 7.3700
 1.9940	 7.4010
 1.9950	 7.4270
 1.9960	 7.4570
 1.9970	 7.4870
 1.9980	 7.5160
 1.9990	 7.5450
 2.0000	 7.5760
 2.0010	 7.6040
 2.0020	 7.6320
 2.0030	 7.6650
 2.0040	 7.6970
 2.0050	 7.7290
 2.0060	 7.7610
 2.0070	 7.7920
 2.0080	 7.8210
 2.0090	 7.8520
 2.0100	 7.8820
 2.0110	 7.9140
 2.0120	 7.9470
 2.0130	 7.9790
 2.0140	 8.0120
 2.0150	 8.0430
 2.0160	 8.0700
 2.0170	 8.0950
 2.0180	 8.1230
 2.0190	 8.1500
 2.0200	 8.1790
 2.0210	 8.2120
 2.0220	 8.2420
 2.0230	 8.2690
 2.0240	 8.2970
 2.0250	 8.3240
 2.0260	 8.3510
 2.0270	 8.3780
 2.0280	 8.4050
 2.0290	 8.4310
 2.0300	 8.4560
 2.0310	 8.4810
 2.0320	 8.5060
 2.0330	 8.5310
 2.0340	 8.5550
 2.0350	 8.5790
 2.0360	 8.6020
 2.0370	 8.6240
 2.0380	 8.6460
 2.0390	 8.6670
 2.0400	 8.6890
 2.0410	 8.7090
 2.0420	 8.7260
 2.0430	 8.7470
 2.0440	 8.7660
 2.0450	 8.7830
 2.0460	 8.8010
 2.0470	 8.8190
 2.0480	 8.8370
 2.0490	 8.8540
 2.0500	 8.8720
 2.0510	 8.8910
 2.0520	 8.9090
 2.0530	 8.9240
 2.0540	 8.9430
 2.0550	 8.9640
 2.0560	 8.9840
 2.0570	 9.0040
 2.0580	 9.0240
 2.0590	 9.0440
 2.0600	 9.0620
 2.0610	 9.0810
 2.0620	 9.1020
 2.0630	 9.1210
 2.0640	 9.1380
 2.0650	 9.1570
 2.0660	 9.1790
 2.0670	 9.1990
 2.0680	 9.2210
 2.0690	 9.2400
 2.0700	 9.2560
 2.0710	 9.2720
 2.0720	 9.2870
 2.0730	 9.2980
 2.0740	 9.3150
 2.0750	 9.3340
 2.0760	 9.3530
 2.0770	 9.3760
 2.0780	 9.3940
 2.0790	 9.4100
 2.0800	 9.4280
 2.0810	 9.4450
 2.0820	 9.4640
 2.0830	 9.4860
 2.0840	 9.5070
 2.0850	 9.5290
 2.0860	 9.5480
 2.0870	 9.5660
 2.0880	 9.5820
 2.0890	 9.6010
 2.0900	 9.6180
 2.0910	 9.6380
 2.0920	 9.6630
 2.0930	 9.6840
 2.0940	 9.7060
 2.0950	 9.7270
 2.0960	 9.7480
 2.0970	 9.7700
 2.0980	 9.7920
 2.0990	 9.8150
 2.1000	 9.8410
 2.1010	 9.8630
 2.1020	 9.8810
 2.1030	 9.9010
 2.1040	 9.9230
 2.1050	 9.9400
 2.1060	 9.9600
 2.1070	 9.9840
 2.1080	10.0030
 2.1090	10.0210
 2.1100	10.0410
 2.1110	10.0630
 2.1120	10.0840
 2.1130	10.1060
 2.1140	10.1270
 2.1150	10.1450
 2.1160	10.1660
 2.1170	10.1880
 2.1180	10.2110
 2.1190	10.2380
 2.1200	10.2620
 2.1210	10.2820
 2.1220	10.3070
 2.1230	10.3300
 2.1240	10.3540
 2.1250	10.3760
 2.1260	10.4000
 2.1270	10.4220
 2.1280	10.4410
 2.1290	10.4620
 2.1300	10.4830
 2.1310	10.5060
 2.1320	10.5300
 2.1330	10.5510
 2.1340	10.5720
 2.1350	10.5910
 2.1360	10.6040
 2.1370	10.6210
 2.1380	10.6390
 2.1390	10.6580
 2.1400	10.6800
 2.1410	10.7030
 2.1420	10.7260
 2.1430	10.7510
 2.1440	10.7720
 2.1450	10.7950
 2.1460	10.8130
 2.1470	10.8270
 2.1480	10.8420
 2.1490	10.8520
 2.1500	10.8700
 2.1510	10.8910
 2.1520	10.9100
 2.1530	10.9320
 2.1540	10.9520
 2.1550	10.9700
 2.1560	10.9890
 2.1570	11.0110
 2.1580	11.0290
 2.1590	11.0450
 2.1600	11.0610
 2.1610	11.0780
 2.1620	11.0950
 2.1630	11.1120
 2.1640	11.1320
 2.1650	11.1480
 2.1660	11.1610
 2.1670	11.1770
 2.1680	11.1910
 2.1690	11.2070
 2.1700	11.2260
 2.1710	11.2440
 2.1720	11.2630
 2.1730	11.2800
 2.1740	11.2960
 2.1750	11.3130
 2.1760	11.3300
 2.1770	11.3450
 2.1780	11.3610
 2.1790	11.3770
 2.1800	11.3910
 2.1810	11.4040
 2.1820	11.4160
 2.1830	11.4290
 2.1840	11.4430
 2.1850	11.4560
 2.1860	11.4700
 2.1870	11.4880
 2.1880	11.5030
 2.1890	11.5170
 2.1900	11.5310
 2.1910	11.5450
 2.1920	11.5580
 2.1930	11.5700
 2.1940	11.5840
 2.1950	11.6000
 2.1960	11.6130
 2.1970	11.6260
 2.1980	11.6370
 2.1990	11.6400
 2.2000	11.6490
 2.2010	11.6600
 2.2020	11.6710
 2.2030	11.6870
 2.2040	11.7000
 2.2050	11.7130
 2.2060	11.7260
 2.2070	11.7350
 2.2080	11.7410
 2.2090	11.7470
 2.2100	11.7490
 2.2110	11.7540
 2.2120	11.7600
 2.2130	11.7630
 2.2140	11.7640
 2.2150	11.7650
 2.2160	11.7630
 2.2170	11.7630
 2.2180	11.7620
 2.2190	11.7610
 2.2200	11.7630
 2.2210	11.7560
 2.2220	11.7420
 2.2230	11.7320
 2.2240	11.7160
 2.2250	11.7040
 2.2260	11.6970
 2.2270	11.6860
 2.2280	11.6740
 2.2290	11.6570
 2.2300	11.6340
 2.2310	11.6080
 2.2320	11.5800
 2.2330	11.5480
 2.2340	11.5240
 2.2350	11.5050
 2.2360	11.4810
 2.2370	11.4600
 2.2380	11.4330
 2.2390	11.4000
 2.2400	11.3690
 2.2410	11.3360
 2.2420	11.3030
 2.2430	11.2680
 2.2440	11.2340
 2.2450	11.2020
 2.2460	11.1680
 2.2470	11.1360
 2.2480	11.1000
 2.2490	11.0640
 2.2500	11.0230
 2.2510	10.9770
 2.2520	10.9320
 2.2530	10.8840
 2.2540	10.8360
 2.2550	10.7860
 2.2560	10.7380
 2.2570	10.6880
 2.2580	10.6420
 2.2590	10.6000
 2.2600	10.5580
 2.2610	10.5180
 2.2620	10.4780
 2.2630	10.4420
 2.2640	10.3990
 2.2650	10.3600
 2.2660	10.3240
 2.2670	10.2890
 2.2680	10.2560
 2.2690	10.2230
 2.2700	10.1930
 2.2710	10.1610
 2.2720	10.1270
 2.2730	10.1000
 2.2740	10.0720
 2.2750	10.0510
 2.2760	10.0400
 2.2770	10.0210
 2.2780	 9.9990
 2.2790	 9.9830
 2.2800	 9.9630
 2.2810	 9.9490
 2.2820	 9.9460
 2.2830	 9.9320
 2.2840	 9.9160
 2.2850	 9.8970
 2.2860	 9.8720
 2.2870	 9.8470
 2.2880	 9.8180
 2.2890	 9.7930
 2.2900	 9.7670
 2.2910	 9.7430
 2.2920	 9.7250
 2.2930	 9.7030
 2.2940	 9.6830
 2.2950	 9.6580
 2.2960	 9.6260
 2.2970	 9.5990
 2.2980	 9.5730
 2.2990	 9.5430
 2.3000	 9.5110
 2.3010	 9.4840
 2.3020	 9.4520
 2.3030	 9.4200
 2.3040	 9.3940
 2.3050	 9.3690
 2.3060	 9.3510
 2.3070	 9.3330
 2.3080	 9.3160
 2.3090	 9.3050
 2.3100	 9.2910
 2.3110	 9.2830
 2.3120	 9.2750
 2.3130	 9.2720
 2.3140	 9.2670
 2.3150	 9.2630
 2.3160	 9.2570
 2.3170	 9.2540
 2.3180	 9.2460
 2.3190	 9.2330
 2.3200	 9.2240
 2.3210	 9.2160
 2.3220	 9.2070
 2.3230	 9.2000
 2.3240	 9.1910
 2.3250	 9.1770
 2.3260	 9.1640
 2.3270	 9.1510
 2.3280	 9.1330
 2.3290	 9.1090
 2.3300	 9.0900
 2.3310	 9.0660
 2.3320	 9.0480
 2.3330	 9.0400
 2.3340	 9.0230
 2.3350	 9.0040
 2.3360	 8.9840
 2.3370	 8.9570
 2.3380	 8.9350
 2.3390	 8.9150
 2.3400	 8.8950
 2.3410	 8.8810
 2.3420	 8.8610
 2.3430	 8.8360
 2.3440	 8.8150
 2.3450	 8.7910
 2.3460	 8.7710
 2.3470	 8.7570
 2.3480	 8.7420
 2.3490	 8.7290
 2.3500	 8.7160
 2.3510	 8.7020
 2.3520	 8.6940
 2.3530	 8.6880
 2.3540	 8.6850
 2.3550	 8.6810
 2.3560	 8.6700
 2.3570	 8.6470
 2.3580	 8.6230
 2.3590	 8.6040
 2.3600	 8.5880
 2.3610	 8.5790
 2.3620	 8.5670
 2.3630	 8.5570
 2.3640	 8.5520
 2.3650	 8.5340
 2.3660	 8.5250
 2.3670	 8.5190
 2.3680	 8.4960
 2.3690	 8.4840
 2.3700	 8.4670
 2.3710	 8.4380
 2.3720	 8.4180
 2.3730	 8.3970
 2.3740	 8.3790
 2.3750	 8.3720
 2.3760	 8.3580
 2.3770	 8.3370
 2.3780	 8.3200
 2.3790	 8.2890
 2.3800	 8.2580
 2.3810	 8.2460
 2.3820	 8.2300
 2.3830	 8.2240
 2.3840	 8.2280
 2.3850	 8.2250
 2.3860	 8.2280
 2.3870	 8.2280
 2.3880	 8.2170
 2.3890	 8.2070
 2.3900	 8.1830
 2.3910	 8.1580
 2.3920	 8.1420
 2.3930	 8.1210
 2.3940	 8.1060
 2.3950	 8.0930
 2.3960	 8.0740
 2.3970	 8.0440
 2.3980	 8.0190
 2.3990	 8.0060
 2.4000	 7.9830
 2.4010	 7.9710
 2.4020	 7.9570
 2.4030	 7.9410
 2.4040	 7.9340
 2.4050	 7.9280
 2.4060	 7.9220
 2.4070	 7.9030
 2.4080	 7.8910
 2.4090	 7.8830
 2.4100	 7.8560
 2.4110	 7.8310
 2.4120	 7.8090
 2.4130	 7.7730
 2.4140	 7.7480
 2.4150	 7.7350
 2.4160	 7.7190
 2.4170	 7.7130
 2.4180	 7.7170
 2.4190	 7.7080
 2.4200	 7.6830
 2.4210	 7.6620
 2.4220	 7.6290
 2.4230	 7.6040
 2.4240	 7.5920
 2.4250	 7.5660
 2.4260	 7.5560
 2.4270	 7.5480
 2.4280	 7.5370
 2.4290	 7.5270
 2.4300	 7.4930
 2.4310	 7.4570
 2.4320	 7.4320
 2.4330	 7.4190
 2.4340	 7.4230
 2.4350	 7.4250
 2.4360	 7.4130
 2.4370	 7.3950
 2.4380	 7.3690
 2.4390	 7.3340
 2.4400	 7.3050
 2.4410	 7.2680
 2.4420	 7.2330
 2.4430	 7.2100
 2.4440	 7.1860
 2.4450	 7.1770
 2.4460	 7.1790
 2.4470	 7.1790
 2.4480	 7.1700
 2.4490	 7.1400
 2.4500	 7.0930
 2.4510	 7.0500
 2.4520	 7.0310
 2.4530	 7.0430
 2.4540	 7.0530
 2.4550	 7.0640
 2.4560	 7.0770
 2.4570	 7.0420
 2.4580	 7.0170
 2.4590	 7.0140
 2.4600	 6.9770
 2.4610	 6.9420
 2.4620	 6.9270
 2.4630	 6.9130
 2.4640	 6.8990
 2.4650	 6.9010
 2.4660	 6.9010
 2.4670	 6.8840
 2.4680	 6.8660
 2.4690	 6.8750
 2.4700	 6.8590
 2.4710	 6.8160
 2.4720	 6.7920
 2.4730	 6.7600
 2.4740	 6.7420
 2.4750	 6.7400
 2.4760	 6.7440
 2.4770	 6.7740
 2.4780	 6.7790
 2.4790	 6.7840
 2.4800	 6.7850
 2.4810	 6.7550
 2.4820	 6.7110
 2.4830	 6.6940
 2.4840	 6.6710
 2.4850	 6.6820
 2.4860	 6.7320
 2.4870	 6.7500
 2.4880	 6.7370
 2.4890	 6.7380
 2.4900	 6.7190
 2.4910	 6.6880
 2.4920	 6.6620
 2.4930	 6.6170
 2.4940	 6.5840
 2.4950	 6.6030
 2.4960	 6.6240
 2.4970	 6.6260
 2.4980	 6.6480
 2.4990	 6.6060
 2.5000	 6.5680
