Name: Aloe arborescens
Type: vegetation
Class: Shrub
Genus: Aloe
Species: arborescens
Sample No.: JPL075
Owner: JPL
Wavelength Range: VSWIR
Origin: 34.12593; - 118.10983; WGS84
Collection Date: 2/2/2016
Description: Samples were collected at the Huntington Garden in San Marino California as part of a JPL Subcontract studying HyTES imagery. Samples were taken to JPL and processed within 48 hours of collection. The same leaves were processed in the Nicolet and then measured using the ASD.
Measurement: Bidirectional reflectance
First Column: X
Second Column: Y
X Units: Wavelength (micrometer)
Y Units: Reflectance (percentage)
First X Value: 0.35
Last X Value: 2.5
Number of X Values: 2151
Additional Information: 

 0.3500	 7.3180
 0.3510	 6.9720
 0.3520	 7.1020
 0.3530	 7.9750
 0.3540	 9.1220
 0.3550	 8.1620
 0.3560	 8.0150
 0.3570	 8.4620
 0.3580	 7.9160
 0.3590	 7.8300
 0.3600	 7.9750
 0.3610	 8.0230
 0.3620	 7.7490
 0.3630	 7.7540
 0.3640	 8.0910
 0.3650	 8.5240
 0.3660	 8.4560
 0.3670	 8.4150
 0.3680	 8.3620
 0.3690	 7.9310
 0.3700	 7.7570
 0.3710	 7.4270
 0.3720	 7.0240
 0.3730	 7.8470
 0.3740	 8.1560
 0.3750	 7.8820
 0.3760	 7.5820
 0.3770	 7.8060
 0.3780	 7.6040
 0.3790	 7.1290
 0.3800	 7.4500
 0.3810	 8.0740
 0.3820	 8.2130
 0.3830	 7.7840
 0.3840	 8.2270
 0.3850	 8.5930
 0.3860	 8.6370
 0.3870	 8.4320
 0.3880	 8.2470
 0.3890	 7.9980
 0.3900	 7.7940
 0.3910	 7.9650
 0.3920	 8.4220
 0.3930	 8.5230
 0.3940	 8.0200
 0.3950	 7.9190
 0.3960	 8.0820
 0.3970	 8.1230
 0.3980	 7.6910
 0.3990	 7.7120
 0.4000	 8.0030
 0.4010	 8.2910
 0.4020	 8.3280
 0.4030	 8.2170
 0.4040	 8.1690
 0.4050	 8.2800
 0.4060	 8.1810
 0.4070	 8.0880
 0.4080	 8.0880
 0.4090	 8.1590
 0.4100	 8.1670
 0.4110	 8.2650
 0.4120	 8.4550
 0.4130	 8.3750
 0.4140	 8.4250
 0.4150	 8.5350
 0.4160	 8.5230
 0.4170	 8.4080
 0.4180	 8.3630
 0.4190	 8.3780
 0.4200	 8.2830
 0.4210	 8.4070
 0.4220	 8.5660
 0.4230	 8.5910
 0.4240	 8.5950
 0.4250	 8.5330
 0.4260	 8.4980
 0.4270	 8.6140
 0.4280	 8.7940
 0.4290	 8.8390
 0.4300	 8.7390
 0.4310	 8.7320
 0.4320	 8.6960
 0.4330	 8.6700
 0.4340	 8.7200
 0.4350	 8.8510
 0.4360	 9.0050
 0.4370	 9.0690
 0.4380	 8.9210
 0.4390	 8.8920
 0.4400	 8.9330
 0.4410	 8.9700
 0.4420	 9.0200
 0.4430	 9.0690
 0.4440	 9.0940
 0.4450	 9.0790
 0.4460	 9.1010
 0.4470	 9.1320
 0.4480	 9.1610
 0.4490	 9.2010
 0.4500	 9.2800
 0.4510	 9.3100
 0.4520	 9.2510
 0.4530	 9.3180
 0.4540	 9.2820
 0.4550	 9.2070
 0.4560	 9.3100
 0.4570	 9.3330
 0.4580	 9.3540
 0.4590	 9.4170
 0.4600	 9.4150
 0.4610	 9.3910
 0.4620	 9.3720
 0.4630	 9.3740
 0.4640	 9.3390
 0.4650	 9.3750
 0.4660	 9.4460
 0.4670	 9.3700
 0.4680	 9.3690
 0.4690	 9.4030
 0.4700	 9.4070
 0.4710	 9.4000
 0.4720	 9.3660
 0.4730	 9.3430
 0.4740	 9.3910
 0.4750	 9.4710
 0.4760	 9.4940
 0.4770	 9.4420
 0.4780	 9.4100
 0.4790	 9.3500
 0.4800	 9.3070
 0.4810	 9.3270
 0.4820	 9.3580
 0.4830	 9.3910
 0.4840	 9.4210
 0.4850	 9.4450
 0.4860	 9.4080
 0.4870	 9.4130
 0.4880	 9.4970
 0.4890	 9.4650
 0.4900	 9.4390
 0.4910	 9.4530
 0.4920	 9.4910
 0.4930	 9.4660
 0.4940	 9.4930
 0.4950	 9.5970
 0.4960	 9.6530
 0.4970	 9.6510
 0.4980	 9.6440
 0.4990	 9.6950
 0.5000	 9.8290
 0.5010	 9.9330
 0.5020	 9.9860
 0.5030	10.0530
 0.5040	10.1230
 0.5050	10.2360
 0.5060	10.3950
 0.5070	10.5150
 0.5080	10.6180
 0.5090	10.7340
 0.5100	10.8940
 0.5110	11.0710
 0.5120	11.2460
 0.5130	11.4230
 0.5140	11.6420
 0.5150	11.9060
 0.5160	12.1720
 0.5170	12.3950
 0.5180	12.5650
 0.5190	12.8230
 0.5200	13.1530
 0.5210	13.4250
 0.5220	13.6760
 0.5230	13.9280
 0.5240	14.1920
 0.5250	14.4530
 0.5260	14.7110
 0.5270	14.9540
 0.5280	15.1740
 0.5290	15.3900
 0.5300	15.5810
 0.5310	15.7540
 0.5320	15.9530
 0.5330	16.1490
 0.5340	16.3070
 0.5350	16.4200
 0.5360	16.5870
 0.5370	16.7140
 0.5380	16.7930
 0.5390	16.8780
 0.5400	17.0010
 0.5410	17.1180
 0.5420	17.1990
 0.5430	17.2730
 0.5440	17.3470
 0.5450	17.4220
 0.5460	17.4940
 0.5470	17.5330
 0.5480	17.5540
 0.5490	17.5770
 0.5500	17.6160
 0.5510	17.6650
 0.5520	17.6990
 0.5530	17.7010
 0.5540	17.7000
 0.5550	17.6660
 0.5560	17.6020
 0.5570	17.5420
 0.5580	17.5040
 0.5590	17.4540
 0.5600	17.3710
 0.5610	17.2720
 0.5620	17.1850
 0.5630	17.0950
 0.5640	16.9750
 0.5650	16.8800
 0.5660	16.7810
 0.5670	16.6580
 0.5680	16.4990
 0.5690	16.3580
 0.5700	16.2370
 0.5710	16.1160
 0.5720	15.9460
 0.5730	15.7690
 0.5740	15.6160
 0.5750	15.5050
 0.5760	15.3880
 0.5770	15.2650
 0.5780	15.1430
 0.5790	15.0250
 0.5800	14.9290
 0.5810	14.8400
 0.5820	14.7400
 0.5830	14.6670
 0.5840	14.6070
 0.5850	14.5360
 0.5860	14.4280
 0.5870	14.3510
 0.5880	14.2830
 0.5890	14.2030
 0.5900	14.1610
 0.5910	14.1270
 0.5920	14.0820
 0.5930	14.0190
 0.5940	13.9670
 0.5950	13.9350
 0.5960	13.9160
 0.5970	13.8810
 0.5980	13.8470
 0.5990	13.8280
 0.6000	13.8200
 0.6010	13.7590
 0.6020	13.6840
 0.6030	13.6180
 0.6040	13.5640
 0.6050	13.4960
 0.6060	13.4180
 0.6070	13.3360
 0.6080	13.2410
 0.6090	13.1660
 0.6100	13.0930
 0.6110	12.9830
 0.6120	12.8530
 0.6130	12.7440
 0.6140	12.6610
 0.6150	12.5470
 0.6160	12.4400
 0.6170	12.3430
 0.6180	12.2520
 0.6190	12.1570
 0.6200	12.0860
 0.6210	12.0410
 0.6220	12.0010
 0.6230	11.9410
 0.6240	11.8840
 0.6250	11.8490
 0.6260	11.8310
 0.6270	11.8190
 0.6280	11.8080
 0.6290	11.7930
 0.6300	11.7740
 0.6310	11.7570
 0.6320	11.7450
 0.6330	11.7300
 0.6340	11.7080
 0.6350	11.6610
 0.6360	11.5800
 0.6370	11.4910
 0.6380	11.3900
 0.6390	11.2870
 0.6400	11.1980
 0.6410	11.1010
 0.6420	10.9910
 0.6430	10.8690
 0.6440	10.7440
 0.6450	10.6070
 0.6460	10.4810
 0.6470	10.3830
 0.6480	10.2730
 0.6490	10.1820
 0.6500	10.1050
 0.6510	10.0110
 0.6520	 9.9570
 0.6530	 9.9160
 0.6540	 9.8610
 0.6550	 9.7940
 0.6560	 9.7230
 0.6570	 9.6400
 0.6580	 9.5370
 0.6590	 9.4530
 0.6600	 9.3660
 0.6610	 9.2600
 0.6620	 9.1340
 0.6630	 9.0240
 0.6640	 8.9390
 0.6650	 8.8700
 0.6660	 8.7790
 0.6670	 8.7090
 0.6680	 8.6580
 0.6690	 8.6070
 0.6700	 8.5600
 0.6710	 8.5340
 0.6720	 8.5340
 0.6730	 8.5400
 0.6740	 8.5450
 0.6750	 8.5470
 0.6760	 8.5510
 0.6770	 8.5660
 0.6780	 8.6100
 0.6790	 8.6740
 0.6800	 8.7370
 0.6810	 8.8000
 0.6820	 8.8800
 0.6830	 8.9900
 0.6840	 9.1270
 0.6850	 9.2980
 0.6860	 9.5150
 0.6870	 9.7850
 0.6880	10.0850
 0.6890	10.4400
 0.6900	10.8620
 0.6910	11.3450
 0.6920	11.9140
 0.6930	12.5460
 0.6940	13.2220
 0.6950	13.9360
 0.6960	14.7210
 0.6970	15.5510
 0.6980	16.3860
 0.6990	17.2670
 0.7000	18.1720
 0.7010	19.0710
 0.7020	19.9390
 0.7030	20.8130
 0.7040	21.6840
 0.7050	22.5400
 0.7060	23.3810
 0.7070	24.2120
 0.7080	25.0170
 0.7090	25.7910
 0.7100	26.6050
 0.7110	27.4120
 0.7120	28.1900
 0.7130	28.9620
 0.7140	29.7200
 0.7150	30.4820
 0.7160	31.2540
 0.7170	31.9990
 0.7180	32.7300
 0.7190	33.4510
 0.7200	34.1660
 0.7210	34.8610
 0.7220	35.5340
 0.7230	36.1910
 0.7240	36.8380
 0.7250	37.4400
 0.7260	38.0000
 0.7270	38.5320
 0.7280	39.0580
 0.7290	39.5460
 0.7300	39.9960
 0.7310	40.4150
 0.7320	40.7780
 0.7330	41.1260
 0.7340	41.4640
 0.7350	41.7650
 0.7360	42.0610
 0.7370	42.3390
 0.7380	42.5860
 0.7390	42.8090
 0.7400	43.0390
 0.7410	43.2540
 0.7420	43.4250
 0.7430	43.5910
 0.7440	43.7530
 0.7450	43.8970
 0.7460	43.9960
 0.7470	44.1180
 0.7480	44.2360
 0.7490	44.3260
 0.7500	44.4030
 0.7510	44.4690
 0.7520	44.5210
 0.7530	44.5580
 0.7540	44.6070
 0.7550	44.6460
 0.7560	44.6780
 0.7570	44.7190
 0.7580	44.7280
 0.7590	44.7370
 0.7600	44.7620
 0.7610	44.7700
 0.7620	44.7780
 0.7630	44.7900
 0.7640	44.8060
 0.7650	44.8180
 0.7660	44.8280
 0.7670	44.8340
 0.7680	44.8330
 0.7690	44.8110
 0.7700	44.7970
 0.7710	44.8020
 0.7720	44.8080
 0.7730	44.8150
 0.7740	44.8260
 0.7750	44.8380
 0.7760	44.8260
 0.7770	44.8260
 0.7780	44.8340
 0.7790	44.8330
 0.7800	44.8320
 0.7810	44.8440
 0.7820	44.8680
 0.7830	44.8930
 0.7840	44.9040
 0.7850	44.9080
 0.7860	44.9120
 0.7870	44.9100
 0.7880	44.9180
 0.7890	44.9390
 0.7900	44.9620
 0.7910	44.9670
 0.7920	44.9700
 0.7930	44.9790
 0.7940	44.9950
 0.7950	45.0260
 0.7960	45.0370
 0.7970	45.0240
 0.7980	45.0270
 0.7990	45.0380
 0.8000	45.0460
 0.8010	45.0470
 0.8020	45.0610
 0.8030	45.0690
 0.8040	45.0720
 0.8050	45.0800
 0.8060	45.0960
 0.8070	45.0910
 0.8080	45.0670
 0.8090	45.0570
 0.8100	45.0630
 0.8110	45.0680
 0.8120	45.0640
 0.8130	45.0510
 0.8140	45.0190
 0.8150	44.9950
 0.8160	44.9950
 0.8170	44.9680
 0.8180	44.9370
 0.8190	44.9130
 0.8200	44.9000
 0.8210	44.8870
 0.8220	44.8590
 0.8230	44.8120
 0.8240	44.7510
 0.8250	44.6850
 0.8260	44.6210
 0.8270	44.5600
 0.8280	44.5010
 0.8290	44.4100
 0.8300	44.3140
 0.8310	44.2350
 0.8320	44.1270
 0.8330	44.0630
 0.8340	44.0170
 0.8350	43.9420
 0.8360	43.9280
 0.8370	43.8990
 0.8380	43.8520
 0.8390	43.8400
 0.8400	43.8350
 0.8410	43.8100
 0.8420	43.7640
 0.8430	43.7240
 0.8440	43.7110
 0.8450	43.7150
 0.8460	43.7190
 0.8470	43.6990
 0.8480	43.6370
 0.8490	43.5850
 0.8500	43.5930
 0.8510	43.6010
 0.8520	43.5800
 0.8530	43.5500
 0.8540	43.5510
 0.8550	43.5390
 0.8560	43.5130
 0.8570	43.4800
 0.8580	43.4550
 0.8590	43.4700
 0.8600	43.4710
 0.8610	43.4290
 0.8620	43.3810
 0.8630	43.3580
 0.8640	43.3590
 0.8650	43.3720
 0.8660	43.3870
 0.8670	43.3610
 0.8680	43.3090
 0.8690	43.2680
 0.8700	43.2660
 0.8710	43.2410
 0.8720	43.1970
 0.8730	43.1700
 0.8740	43.1320
 0.8750	43.1170
 0.8760	43.1120
 0.8770	43.0620
 0.8780	43.0470
 0.8790	43.0140
 0.8800	42.9510
 0.8810	42.9230
 0.8820	42.8730
 0.8830	42.8360
 0.8840	42.8230
 0.8850	42.7480
 0.8860	42.6910
 0.8870	42.6700
 0.8880	42.6720
 0.8890	42.6620
 0.8900	42.6250
 0.8910	42.5750
 0.8920	42.5360
 0.8930	42.4700
 0.8940	42.4190
 0.8950	42.4130
 0.8960	42.4470
 0.8970	42.3720
 0.8980	42.3040
 0.8990	42.2820
 0.9000	42.2450
 0.9010	42.2040
 0.9020	42.1650
 0.9030	42.1270
 0.9040	42.0840
 0.9050	42.0430
 0.9060	41.9980
 0.9070	41.9480
 0.9080	41.9030
 0.9090	41.8550
 0.9100	41.7930
 0.9110	41.7200
 0.9120	41.6620
 0.9130	41.6150
 0.9140	41.5510
 0.9150	41.4530
 0.9160	41.3560
 0.9170	41.2640
 0.9180	41.1670
 0.9190	41.0530
 0.9200	40.9410
 0.9210	40.8170
 0.9220	40.6720
 0.9230	40.5030
 0.9240	40.3610
 0.9250	40.1930
 0.9260	39.9950
 0.9270	39.8120
 0.9280	39.6490
 0.9290	39.4450
 0.9300	39.1920
 0.9310	38.9430
 0.9320	38.7250
 0.9330	38.5200
 0.9340	38.3000
 0.9350	38.0340
 0.9360	37.7550
 0.9370	37.5070
 0.9380	37.2890
 0.9390	37.0340
 0.9400	36.7430
 0.9410	36.4430
 0.9420	36.1570
 0.9430	35.8860
 0.9440	35.5960
 0.9450	35.2910
 0.9460	34.9890
 0.9470	34.7060
 0.9480	34.3870
 0.9490	34.0170
 0.9500	33.6310
 0.9510	33.3300
 0.9520	32.9970
 0.9530	32.6480
 0.9540	32.3130
 0.9550	31.9210
 0.9560	31.6320
 0.9570	31.4080
 0.9580	31.1700
 0.9590	30.9590
 0.9600	30.7800
 0.9610	30.6130
 0.9620	30.4550
 0.9630	30.3940
 0.9640	30.3030
 0.9650	30.1880
 0.9660	30.1050
 0.9670	30.0520
 0.9680	29.9990
 0.9690	29.9530
 0.9700	29.9250
 0.9710	29.8420
 0.9720	29.8330
 0.9730	29.8640
 0.9740	29.8430
 0.9750	29.8310
 0.9760	29.7860
 0.9770	29.7330
 0.9780	29.7260
 0.9790	29.8080
 0.9800	29.8220
 0.9810	29.7840
 0.9820	29.7870
 0.9830	29.8190
 0.9840	29.8120
 0.9850	29.8090
 0.9860	29.8730
 0.9870	29.8920
 0.9880	29.9960
 0.9890	30.0880
 0.9900	30.0380
 0.9910	30.1160
 0.9920	30.2010
 0.9930	30.2450
 0.9940	30.2510
 0.9950	30.1990
 0.9960	30.3360
 0.9970	30.5650
 0.9980	30.6650
 0.9990	30.6710
 1.0000	30.6660
 1.0010	31.2100
 1.0020	31.3030
 1.0030	31.4040
 1.0040	31.5060
 1.0050	31.6290
 1.0060	31.7460
 1.0070	31.8530
 1.0080	31.9630
 1.0090	32.0740
 1.0100	32.1740
 1.0110	32.2520
 1.0120	32.3660
 1.0130	32.4880
 1.0140	32.6110
 1.0150	32.7550
 1.0160	32.9130
 1.0170	33.0450
 1.0180	33.1520
 1.0190	33.2630
 1.0200	33.3910
 1.0210	33.5300
 1.0220	33.6660
 1.0230	33.8120
 1.0240	33.9830
 1.0250	34.1270
 1.0260	34.2560
 1.0270	34.3970
 1.0280	34.5400
 1.0290	34.6710
 1.0300	34.8040
 1.0310	34.9370
 1.0320	35.0590
 1.0330	35.1740
 1.0340	35.3240
 1.0350	35.4670
 1.0360	35.6000
 1.0370	35.7480
 1.0380	35.8810
 1.0390	35.9970
 1.0400	36.1260
 1.0410	36.2640
 1.0420	36.3940
 1.0430	36.5320
 1.0440	36.6470
 1.0450	36.7420
 1.0460	36.8410
 1.0470	36.9170
 1.0480	37.0110
 1.0490	37.1310
 1.0500	37.2250
 1.0510	37.3020
 1.0520	37.3980
 1.0530	37.4730
 1.0540	37.5200
 1.0550	37.5960
 1.0560	37.6910
 1.0570	37.7580
 1.0580	37.8250
 1.0590	37.8770
 1.0600	37.8950
 1.0610	37.9350
 1.0620	37.9910
 1.0630	38.0290
 1.0640	38.0580
 1.0650	38.0940
 1.0660	38.1340
 1.0670	38.1540
 1.0680	38.1650
 1.0690	38.1840
 1.0700	38.1760
 1.0710	38.1350
 1.0720	38.1190
 1.0730	38.1060
 1.0740	38.0880
 1.0750	38.0810
 1.0760	38.0530
 1.0770	38.0160
 1.0780	37.9710
 1.0790	37.9070
 1.0800	37.8550
 1.0810	37.8020
 1.0820	37.7470
 1.0830	37.7080
 1.0840	37.6460
 1.0850	37.5650
 1.0860	37.4840
 1.0870	37.4070
 1.0880	37.3180
 1.0890	37.2410
 1.0900	37.1840
 1.0910	37.0970
 1.0920	36.9970
 1.0930	36.8980
 1.0940	36.7760
 1.0950	36.6760
 1.0960	36.5890
 1.0970	36.4970
 1.0980	36.4240
 1.0990	36.3230
 1.1000	36.1940
 1.1010	36.0850
 1.1020	35.9700
 1.1030	35.8580
 1.1040	35.7730
 1.1050	35.6760
 1.1060	35.5700
 1.1070	35.4550
 1.1080	35.3410
 1.1090	35.2180
 1.1100	35.1020
 1.1110	34.9820
 1.1120	34.8710
 1.1130	34.7760
 1.1140	34.6560
 1.1150	34.5340
 1.1160	34.4040
 1.1170	34.2580
 1.1180	34.1090
 1.1190	33.9700
 1.1200	33.8030
 1.1210	33.6300
 1.1220	33.4450
 1.1230	33.2420
 1.1240	33.0350
 1.1250	32.8070
 1.1260	32.5710
 1.1270	32.2990
 1.1280	32.0030
 1.1290	31.6940
 1.1300	31.3560
 1.1310	31.0110
 1.1320	30.6530
 1.1330	30.2820
 1.1340	29.8900
 1.1350	29.4960
 1.1360	29.0910
 1.1370	28.6820
 1.1380	28.2670
 1.1390	27.8710
 1.1400	27.4930
 1.1410	27.1290
 1.1420	26.7810
 1.1430	26.4440
 1.1440	26.1200
 1.1450	25.7990
 1.1460	25.5060
 1.1470	25.2280
 1.1480	24.9740
 1.1490	24.7390
 1.1500	24.5280
 1.1510	24.3400
 1.1520	24.1700
 1.1530	24.0200
 1.1540	23.8840
 1.1550	23.7640
 1.1560	23.6550
 1.1570	23.5680
 1.1580	23.4860
 1.1590	23.4120
 1.1600	23.3490
 1.1610	23.2840
 1.1620	23.2290
 1.1630	23.1690
 1.1640	23.1180
 1.1650	23.0720
 1.1660	23.0240
 1.1670	22.9860
 1.1680	22.9640
 1.1690	22.9340
 1.1700	22.9060
 1.1710	22.8810
 1.1720	22.8570
 1.1730	22.8350
 1.1740	22.8170
 1.1750	22.7980
 1.1760	22.7750
 1.1770	22.7460
 1.1780	22.7120
 1.1790	22.6830
 1.1800	22.6600
 1.1810	22.6410
 1.1820	22.6280
 1.1830	22.6110
 1.1840	22.5840
 1.1850	22.5580
 1.1860	22.5350
 1.1870	22.5140
 1.1880	22.4930
 1.1890	22.4750
 1.1900	22.4590
 1.1910	22.4400
 1.1920	22.4280
 1.1930	22.4220
 1.1940	22.4170
 1.1950	22.4180
 1.1960	22.4120
 1.1970	22.3990
 1.1980	22.4020
 1.1990	22.3990
 1.2000	22.3910
 1.2010	22.3880
 1.2020	22.3830
 1.2030	22.3740
 1.2040	22.3700
 1.2050	22.3790
 1.2060	22.3850
 1.2070	22.3920
 1.2080	22.4030
 1.2090	22.4110
 1.2100	22.4230
 1.2110	22.4340
 1.2120	22.4490
 1.2130	22.4630
 1.2140	22.4760
 1.2150	22.4920
 1.2160	22.5110
 1.2170	22.5250
 1.2180	22.5400
 1.2190	22.5540
 1.2200	22.5630
 1.2210	22.5760
 1.2220	22.5970
 1.2230	22.6160
 1.2240	22.6440
 1.2250	22.6660
 1.2260	22.6800
 1.2270	22.7010
 1.2280	22.7160
 1.2290	22.7350
 1.2300	22.7590
 1.2310	22.7730
 1.2320	22.7870
 1.2330	22.8010
 1.2340	22.8150
 1.2350	22.8300
 1.2360	22.8430
 1.2370	22.8540
 1.2380	22.8680
 1.2390	22.8840
 1.2400	22.9010
 1.2410	22.9190
 1.2420	22.9380
 1.2430	22.9540
 1.2440	22.9680
 1.2450	22.9910
 1.2460	23.0090
 1.2470	23.0190
 1.2480	23.0390
 1.2490	23.0550
 1.2500	23.0630
 1.2510	23.0780
 1.2520	23.0860
 1.2530	23.0940
 1.2540	23.1100
 1.2550	23.1200
 1.2560	23.1300
 1.2570	23.1400
 1.2580	23.1410
 1.2590	23.1470
 1.2600	23.1610
 1.2610	23.1660
 1.2620	23.1660
 1.2630	23.1650
 1.2640	23.1620
 1.2650	23.1460
 1.2660	23.1370
 1.2670	23.1360
 1.2680	23.1340
 1.2690	23.1350
 1.2700	23.1350
 1.2710	23.1260
 1.2720	23.1060
 1.2730	23.0870
 1.2740	23.0650
 1.2750	23.0370
 1.2760	23.0170
 1.2770	22.9930
 1.2780	22.9640
 1.2790	22.9400
 1.2800	22.9120
 1.2810	22.8800
 1.2820	22.8480
 1.2830	22.8090
 1.2840	22.7700
 1.2850	22.7290
 1.2860	22.6840
 1.2870	22.6410
 1.2880	22.5990
 1.2890	22.5570
 1.2900	22.5110
 1.2910	22.4580
 1.2920	22.3990
 1.2930	22.3300
 1.2940	22.2550
 1.2950	22.1870
 1.2960	22.1160
 1.2970	22.0490
 1.2980	21.9860
 1.2990	21.9170
 1.3000	21.8420
 1.3010	21.7620
 1.3020	21.6790
 1.3030	21.5920
 1.3040	21.5120
 1.3050	21.4340
 1.3060	21.3550
 1.3070	21.2820
 1.3080	21.1960
 1.3090	21.1070
 1.3100	21.0110
 1.3110	20.9070
 1.3120	20.8100
 1.3130	20.7070
 1.3140	20.6040
 1.3150	20.5000
 1.3160	20.3960
 1.3170	20.2890
 1.3180	20.1880
 1.3190	20.0830
 1.3200	19.9740
 1.3210	19.8660
 1.3220	19.7530
 1.3230	19.6490
 1.3240	19.5480
 1.3250	19.4420
 1.3260	19.3350
 1.3270	19.2230
 1.3280	19.1060
 1.3290	18.9960
 1.3300	18.8940
 1.3310	18.7970
 1.3320	18.6960
 1.3330	18.5980
 1.3340	18.4980
 1.3350	18.3940
 1.3360	18.2930
 1.3370	18.1900
 1.3380	18.0840
 1.3390	17.9840
 1.3400	17.8890
 1.3410	17.8060
 1.3420	17.7270
 1.3430	17.6390
 1.3440	17.5500
 1.3450	17.4590
 1.3460	17.3540
 1.3470	17.2660
 1.3480	17.1870
 1.3490	17.1100
 1.3500	17.0400
 1.3510	16.9700
 1.3520	16.8940
 1.3530	16.8210
 1.3540	16.7460
 1.3550	16.6710
 1.3560	16.5990
 1.3570	16.5260
 1.3580	16.4500
 1.3590	16.3770
 1.3600	16.2950
 1.3610	16.2070
 1.3620	16.1230
 1.3630	16.0280
 1.3640	15.9290
 1.3650	15.8340
 1.3660	15.7330
 1.3670	15.6300
 1.3680	15.5270
 1.3690	15.4120
 1.3700	15.2910
 1.3710	15.1570
 1.3720	15.0130
 1.3730	14.8630
 1.3740	14.6980
 1.3750	14.5290
 1.3760	14.3540
 1.3770	14.1650
 1.3780	13.9680
 1.3790	13.7630
 1.3800	13.5430
 1.3810	13.3150
 1.3820	13.0790
 1.3830	12.8310
 1.3840	12.5850
 1.3850	12.3350
 1.3860	12.0830
 1.3870	11.8280
 1.3880	11.5760
 1.3890	11.3220
 1.3900	11.0670
 1.3910	10.8200
 1.3920	10.5750
 1.3930	10.3330
 1.3940	10.1040
 1.3950	 9.8810
 1.3960	 9.6680
 1.3970	 9.4660
 1.3980	 9.2750
 1.3990	 9.0920
 1.4000	 8.9200
 1.4010	 8.7590
 1.4020	 8.5990
 1.4030	 8.4520
 1.4040	 8.3130
 1.4050	 8.1800
 1.4060	 8.0680
 1.4070	 7.9650
 1.4080	 7.8670
 1.4090	 7.7760
 1.4100	 7.6850
 1.4110	 7.5990
 1.4120	 7.5200
 1.4130	 7.4510
 1.4140	 7.3900
 1.4150	 7.3390
 1.4160	 7.2880
 1.4170	 7.2350
 1.4180	 7.1870
 1.4190	 7.1390
 1.4200	 7.0920
 1.4210	 7.0540
 1.4220	 7.0210
 1.4230	 6.9890
 1.4240	 6.9590
 1.4250	 6.9300
 1.4260	 6.9010
 1.4270	 6.8730
 1.4280	 6.8450
 1.4290	 6.8220
 1.4300	 6.8010
 1.4310	 6.7830
 1.4320	 6.7720
 1.4330	 6.7580
 1.4340	 6.7430
 1.4350	 6.7300
 1.4360	 6.7170
 1.4370	 6.7060
 1.4380	 6.6920
 1.4390	 6.6830
 1.4400	 6.6730
 1.4410	 6.6630
 1.4420	 6.6590
 1.4430	 6.6520
 1.4440	 6.6410
 1.4450	 6.6320
 1.4460	 6.6250
 1.4470	 6.6230
 1.4480	 6.6240
 1.4490	 6.6250
 1.4500	 6.6200
 1.4510	 6.6160
 1.4520	 6.6130
 1.4530	 6.6090
 1.4540	 6.6070
 1.4550	 6.6100
 1.4560	 6.6110
 1.4570	 6.6130
 1.4580	 6.6160
 1.4590	 6.6170
 1.4600	 6.6170
 1.4610	 6.6220
 1.4620	 6.6290
 1.4630	 6.6390
 1.4640	 6.6500
 1.4650	 6.6640
 1.4660	 6.6760
 1.4670	 6.6860
 1.4680	 6.6980
 1.4690	 6.7120
 1.4700	 6.7230
 1.4710	 6.7370
 1.4720	 6.7540
 1.4730	 6.7710
 1.4740	 6.7930
 1.4750	 6.8180
 1.4760	 6.8410
 1.4770	 6.8630
 1.4780	 6.8840
 1.4790	 6.9040
 1.4800	 6.9260
 1.4810	 6.9480
 1.4820	 6.9720
 1.4830	 6.9980
 1.4840	 7.0200
 1.4850	 7.0420
 1.4860	 7.0650
 1.4870	 7.0880
 1.4880	 7.1150
 1.4890	 7.1440
 1.4900	 7.1740
 1.4910	 7.2060
 1.4920	 7.2370
 1.4930	 7.2700
 1.4940	 7.3020
 1.4950	 7.3350
 1.4960	 7.3690
 1.4970	 7.4020
 1.4980	 7.4360
 1.4990	 7.4720
 1.5000	 7.5060
 1.5010	 7.5400
 1.5020	 7.5750
 1.5030	 7.6120
 1.5040	 7.6470
 1.5050	 7.6810
 1.5060	 7.7160
 1.5070	 7.7490
 1.5080	 7.7830
 1.5090	 7.8170
 1.5100	 7.8540
 1.5110	 7.8930
 1.5120	 7.9320
 1.5130	 7.9740
 1.5140	 8.0140
 1.5150	 8.0560
 1.5160	 8.0920
 1.5170	 8.1270
 1.5180	 8.1670
 1.5190	 8.2060
 1.5200	 8.2480
 1.5210	 8.2910
 1.5220	 8.3300
 1.5230	 8.3630
 1.5240	 8.3980
 1.5250	 8.4360
 1.5260	 8.4750
 1.5270	 8.5210
 1.5280	 8.5640
 1.5290	 8.6010
 1.5300	 8.6410
 1.5310	 8.6800
 1.5320	 8.7180
 1.5330	 8.7610
 1.5340	 8.8040
 1.5350	 8.8430
 1.5360	 8.8860
 1.5370	 8.9300
 1.5380	 8.9720
 1.5390	 9.0140
 1.5400	 9.0540
 1.5410	 9.0910
 1.5420	 9.1310
 1.5430	 9.1720
 1.5440	 9.2100
 1.5450	 9.2490
 1.5460	 9.2900
 1.5470	 9.3280
 1.5480	 9.3680
 1.5490	 9.4090
 1.5500	 9.4460
 1.5510	 9.4830
 1.5520	 9.5280
 1.5530	 9.5740
 1.5540	 9.6170
 1.5550	 9.6590
 1.5560	 9.6980
 1.5570	 9.7340
 1.5580	 9.7720
 1.5590	 9.8140
 1.5600	 9.8530
 1.5610	 9.8920
 1.5620	 9.9310
 1.5630	 9.9680
 1.5640	10.0040
 1.5650	10.0400
 1.5660	10.0750
 1.5670	10.1030
 1.5680	10.1370
 1.5690	10.1760
 1.5700	10.2130
 1.5710	10.2540
 1.5720	10.2930
 1.5730	10.3260
 1.5740	10.3630
 1.5750	10.3970
 1.5760	10.4330
 1.5770	10.4710
 1.5780	10.5060
 1.5790	10.5440
 1.5800	10.5780
 1.5810	10.6030
 1.5820	10.6320
 1.5830	10.6630
 1.5840	10.6940
 1.5850	10.7290
 1.5860	10.7660
 1.5870	10.7960
 1.5880	10.8250
 1.5890	10.8520
 1.5900	10.8750
 1.5910	10.9020
 1.5920	10.9340
 1.5930	10.9670
 1.5940	10.9990
 1.5950	11.0270
 1.5960	11.0580
 1.5970	11.0870
 1.5980	11.1140
 1.5990	11.1410
 1.6000	11.1630
 1.6010	11.1860
 1.6020	11.2080
 1.6030	11.2330
 1.6040	11.2610
 1.6050	11.2830
 1.6060	11.3110
 1.6070	11.3420
 1.6080	11.3710
 1.6090	11.4000
 1.6100	11.4300
 1.6110	11.4540
 1.6120	11.4710
 1.6130	11.4900
 1.6140	11.5100
 1.6150	11.5250
 1.6160	11.5420
 1.6170	11.5640
 1.6180	11.5800
 1.6190	11.5990
 1.6200	11.6190
 1.6210	11.6390
 1.6220	11.6590
 1.6230	11.6820
 1.6240	11.7100
 1.6250	11.7300
 1.6260	11.7480
 1.6270	11.7640
 1.6280	11.7700
 1.6290	11.7850
 1.6300	11.8020
 1.6310	11.8210
 1.6320	11.8430
 1.6330	11.8590
 1.6340	11.8720
 1.6350	11.8880
 1.6360	11.9010
 1.6370	11.9190
 1.6380	11.9410
 1.6390	11.9600
 1.6400	11.9790
 1.6410	11.9940
 1.6420	12.0100
 1.6430	12.0210
 1.6440	12.0250
 1.6450	12.0330
 1.6460	12.0370
 1.6470	12.0440
 1.6480	12.0570
 1.6490	12.0690
 1.6500	12.0800
 1.6510	12.0920
 1.6520	12.0980
 1.6530	12.1010
 1.6540	12.1080
 1.6550	12.1160
 1.6560	12.1270
 1.6570	12.1390
 1.6580	12.1510
 1.6590	12.1590
 1.6600	12.1680
 1.6610	12.1780
 1.6620	12.1820
 1.6630	12.1890
 1.6640	12.1900
 1.6650	12.1860
 1.6660	12.1890
 1.6670	12.1870
 1.6680	12.1870
 1.6690	12.1910
 1.6700	12.1860
 1.6710	12.1840
 1.6720	12.1890
 1.6730	12.1940
 1.6740	12.2030
 1.6750	12.2070
 1.6760	12.2050
 1.6770	12.2060
 1.6780	12.2010
 1.6790	12.1940
 1.6800	12.1920
 1.6810	12.1810
 1.6820	12.1730
 1.6830	12.1720
 1.6840	12.1610
 1.6850	12.1480
 1.6860	12.1340
 1.6870	12.1160
 1.6880	12.1060
 1.6890	12.1000
 1.6900	12.0900
 1.6910	12.0800
 1.6920	12.0690
 1.6930	12.0540
 1.6940	12.0440
 1.6950	12.0370
 1.6960	12.0300
 1.6970	12.0320
 1.6980	12.0200
 1.6990	12.0050
 1.7000	11.9870
 1.7010	11.9530
 1.7020	11.9340
 1.7030	11.9200
 1.7040	11.9070
 1.7050	11.9080
 1.7060	11.8960
 1.7070	11.8810
 1.7080	11.8600
 1.7090	11.8280
 1.7100	11.8050
 1.7110	11.7810
 1.7120	11.7710
 1.7130	11.7570
 1.7140	11.7420
 1.7150	11.7210
 1.7160	11.6870
 1.7170	11.6600
 1.7180	11.6330
 1.7190	11.6050
 1.7200	11.5890
 1.7210	11.5630
 1.7220	11.5270
 1.7230	11.5040
 1.7240	11.4740
 1.7250	11.4440
 1.7260	11.4310
 1.7270	11.4100
 1.7280	11.3860
 1.7290	11.3720
 1.7300	11.3480
 1.7310	11.3220
 1.7320	11.2880
 1.7330	11.2620
 1.7340	11.2390
 1.7350	11.2160
 1.7360	11.2010
 1.7370	11.1830
 1.7380	11.1640
 1.7390	11.1400
 1.7400	11.1130
 1.7410	11.0860
 1.7420	11.0540
 1.7430	11.0220
 1.7440	10.9890
 1.7450	10.9630
 1.7460	10.9390
 1.7470	10.9100
 1.7480	10.8860
 1.7490	10.8540
 1.7500	10.8100
 1.7510	10.7810
 1.7520	10.7630
 1.7530	10.7330
 1.7540	10.7050
 1.7550	10.6690
 1.7560	10.6270
 1.7570	10.5940
 1.7580	10.5690
 1.7590	10.5390
 1.7600	10.5090
 1.7610	10.4730
 1.7620	10.4440
 1.7630	10.4180
 1.7640	10.3970
 1.7650	10.3860
 1.7660	10.3680
 1.7670	10.3530
 1.7680	10.3310
 1.7690	10.2990
 1.7700	10.2760
 1.7710	10.2520
 1.7720	10.2340
 1.7730	10.2250
 1.7740	10.2110
 1.7750	10.1970
 1.7760	10.1790
 1.7770	10.1540
 1.7780	10.1370
 1.7790	10.1210
 1.7800	10.1120
 1.7810	10.1130
 1.7820	10.1050
 1.7830	10.0960
 1.7840	10.0870
 1.7850	10.0750
 1.7860	10.0660
 1.7870	10.0590
 1.7880	10.0540
 1.7890	10.0530
 1.7900	10.0450
 1.7910	10.0380
 1.7920	10.0200
 1.7930	10.0130
 1.7940	10.0170
 1.7950	10.0190
 1.7960	10.0330
 1.7970	10.0340
 1.7980	10.0230
 1.7990	10.0210
 1.8000	10.0130
 1.8010	10.0140
 1.8020	10.0300
 1.8030	10.0380
 1.8040	10.0460
 1.8050	10.0490
 1.8060	10.0470
 1.8070	10.0460
 1.8080	10.0390
 1.8090	10.0420
 1.8100	10.0480
 1.8110	10.0530
 1.8120	10.0660
 1.8130	10.0770
 1.8140	10.0730
 1.8150	10.0620
 1.8160	10.0570
 1.8170	10.0470
 1.8180	10.0390
 1.8190	10.0370
 1.8200	10.0380
 1.8210	10.0490
 1.8220	10.0530
 1.8230	10.0650
 1.8240	10.0610
 1.8250	10.0360
 1.8260	10.0290
 1.8270	10.0260
 1.8280	10.0170
 1.8290	10.0190
 1.8300	10.0040
 1.8310	10.2260
 1.8320	10.2130
 1.8330	10.2010
 1.8340	10.1820
 1.8350	10.1690
 1.8360	10.1560
 1.8370	10.1480
 1.8380	10.1390
 1.8390	10.1110
 1.8400	10.0680
 1.8410	10.0350
 1.8420	 9.9910
 1.8430	 9.9460
 1.8440	 9.9220
 1.8450	 9.8910
 1.8460	 9.8470
 1.8470	 9.7830
 1.8480	 9.7200
 1.8490	 9.6630
 1.8500	 9.5990
 1.8510	 9.5300
 1.8520	 9.4710
 1.8530	 9.3990
 1.8540	 9.3250
 1.8550	 9.2500
 1.8560	 9.1640
 1.8570	 9.0870
 1.8580	 8.9980
 1.8590	 8.9020
 1.8600	 8.7980
 1.8610	 8.6930
 1.8620	 8.5810
 1.8630	 8.4790
 1.8640	 8.3950
 1.8650	 8.3100
 1.8660	 8.2290
 1.8670	 8.1330
 1.8680	 7.9910
 1.8690	 7.8490
 1.8700	 7.7170
 1.8710	 7.5820
 1.8720	 7.4440
 1.8730	 7.3220
 1.8740	 7.1910
 1.8750	 7.0560
 1.8760	 6.9410
 1.8770	 6.8290
 1.8780	 6.7310
 1.8790	 6.6430
 1.8800	 6.5500
 1.8810	 6.4500
 1.8820	 6.3620
 1.8830	 6.2810
 1.8840	 6.1900
 1.8850	 6.0940
 1.8860	 6.0080
 1.8870	 5.9190
 1.8880	 5.8390
 1.8890	 5.7850
 1.8900	 5.7260
 1.8910	 5.6680
 1.8920	 5.6140
 1.8930	 5.5630
 1.8940	 5.5030
 1.8950	 5.4460
 1.8960	 5.3990
 1.8970	 5.3720
 1.8980	 5.3580
 1.8990	 5.3560
 1.9000	 5.3380
 1.9010	 5.3250
 1.9020	 5.2980
 1.9030	 5.2550
 1.9040	 5.2100
 1.9050	 5.1850
 1.9060	 5.1570
 1.9070	 5.1630
 1.9080	 5.1640
 1.9090	 5.1320
 1.9100	 5.1280
 1.9110	 5.1190
 1.9120	 5.0890
 1.9130	 5.0790
 1.9140	 5.0900
 1.9150	 5.0960
 1.9160	 5.0970
 1.9170	 5.1200
 1.9180	 5.1300
 1.9190	 5.1320
 1.9200	 5.1310
 1.9210	 5.1010
 1.9220	 5.0940
 1.9230	 5.1020
 1.9240	 5.1030
 1.9250	 5.1030
 1.9260	 5.1170
 1.9270	 5.1230
 1.9280	 5.1130
 1.9290	 5.1140
 1.9300	 5.1180
 1.9310	 5.1250
 1.9320	 5.1420
 1.9330	 5.1430
 1.9340	 5.1320
 1.9350	 5.1270
 1.9360	 5.1070
 1.9370	 5.0990
 1.9380	 5.0960
 1.9390	 5.1080
 1.9400	 5.1130
 1.9410	 5.1190
 1.9420	 5.1150
 1.9430	 5.1070
 1.9440	 5.1090
 1.9450	 5.1130
 1.9460	 5.1200
 1.9470	 5.1480
 1.9480	 5.1510
 1.9490	 5.1380
 1.9500	 5.1260
 1.9510	 5.1220
 1.9520	 5.1040
 1.9530	 5.1140
 1.9540	 5.1400
 1.9550	 5.1510
 1.9560	 5.1630
 1.9570	 5.1690
 1.9580	 5.1630
 1.9590	 5.1650
 1.9600	 5.1670
 1.9610	 5.1740
 1.9620	 5.1910
 1.9630	 5.2020
 1.9640	 5.2100
 1.9650	 5.2120
 1.9660	 5.2080
 1.9670	 5.2100
 1.9680	 5.2130
 1.9690	 5.2210
 1.9700	 5.2260
 1.9710	 5.2290
 1.9720	 5.2350
 1.9730	 5.2450
 1.9740	 5.2400
 1.9750	 5.2420
 1.9760	 5.2550
 1.9770	 5.2640
 1.9780	 5.2900
 1.9790	 5.3040
 1.9800	 5.3200
 1.9810	 5.3280
 1.9820	 5.3270
 1.9830	 5.3300
 1.9840	 5.3290
 1.9850	 5.3330
 1.9860	 5.3390
 1.9870	 5.3460
 1.9880	 5.3500
 1.9890	 5.3540
 1.9900	 5.3690
 1.9910	 5.3630
 1.9920	 5.3720
 1.9930	 5.3920
 1.9940	 5.4070
 1.9950	 5.4230
 1.9960	 5.4380
 1.9970	 5.4540
 1.9980	 5.4600
 1.9990	 5.4630
 2.0000	 5.4580
 2.0010	 5.4410
 2.0020	 5.4430
 2.0030	 5.4540
 2.0040	 5.4610
 2.0050	 5.4740
 2.0060	 5.4990
 2.0070	 5.5190
 2.0080	 5.5430
 2.0090	 5.5590
 2.0100	 5.5840
 2.0110	 5.5900
 2.0120	 5.5740
 2.0130	 5.5730
 2.0140	 5.5610
 2.0150	 5.5540
 2.0160	 5.5810
 2.0170	 5.6010
 2.0180	 5.6180
 2.0190	 5.6540
 2.0200	 5.6610
 2.0210	 5.6370
 2.0220	 5.6380
 2.0230	 5.6390
 2.0240	 5.6410
 2.0250	 5.6490
 2.0260	 5.6600
 2.0270	 5.6760
 2.0280	 5.6780
 2.0290	 5.6770
 2.0300	 5.6940
 2.0310	 5.7060
 2.0320	 5.7110
 2.0330	 5.7220
 2.0340	 5.7390
 2.0350	 5.7600
 2.0360	 5.7850
 2.0370	 5.8020
 2.0380	 5.8340
 2.0390	 5.8490
 2.0400	 5.8440
 2.0410	 5.8440
 2.0420	 5.8270
 2.0430	 5.8280
 2.0440	 5.8360
 2.0450	 5.8500
 2.0460	 5.8650
 2.0470	 5.8980
 2.0480	 5.9120
 2.0490	 5.9160
 2.0500	 5.9250
 2.0510	 5.9310
 2.0520	 5.9410
 2.0530	 5.9600
 2.0540	 5.9700
 2.0550	 5.9840
 2.0560	 5.9840
 2.0570	 5.9830
 2.0580	 5.9910
 2.0590	 5.9980
 2.0600	 6.0110
 2.0610	 6.0190
 2.0620	 6.0260
 2.0630	 6.0380
 2.0640	 6.0510
 2.0650	 6.0670
 2.0660	 6.0930
 2.0670	 6.1090
 2.0680	 6.1190
 2.0690	 6.1350
 2.0700	 6.1530
 2.0710	 6.1670
 2.0720	 6.1770
 2.0730	 6.1910
 2.0740	 6.2070
 2.0750	 6.2170
 2.0760	 6.2350
 2.0770	 6.2710
 2.0780	 6.2820
 2.0790	 6.2800
 2.0800	 6.2840
 2.0810	 6.2760
 2.0820	 6.2790
 2.0830	 6.2920
 2.0840	 6.3020
 2.0850	 6.3150
 2.0860	 6.3270
 2.0870	 6.3450
 2.0880	 6.3520
 2.0890	 6.3700
 2.0900	 6.3940
 2.0910	 6.4070
 2.0920	 6.4230
 2.0930	 6.4330
 2.0940	 6.4210
 2.0950	 6.4400
 2.0960	 6.4760
 2.0970	 6.5040
 2.0980	 6.5590
 2.0990	 6.5850
 2.1000	 6.5890
 2.1010	 6.5990
 2.1020	 6.5910
 2.1030	 6.5960
 2.1040	 6.6200
 2.1050	 6.6270
 2.1060	 6.6270
 2.1070	 6.6170
 2.1080	 6.6300
 2.1090	 6.6380
 2.1100	 6.6620
 2.1110	 6.7280
 2.1120	 6.7500
 2.1130	 6.7520
 2.1140	 6.7570
 2.1150	 6.7390
 2.1160	 6.7420
 2.1170	 6.7510
 2.1180	 6.7630
 2.1190	 6.7880
 2.1200	 6.8070
 2.1210	 6.8230
 2.1220	 6.8480
 2.1230	 6.8530
 2.1240	 6.8420
 2.1250	 6.8520
 2.1260	 6.8630
 2.1270	 6.8720
 2.1280	 6.8920
 2.1290	 6.9090
 2.1300	 6.9170
 2.1310	 6.9320
 2.1320	 6.9650
 2.1330	 6.9810
 2.1340	 6.9820
 2.1350	 6.9910
 2.1360	 6.9910
 2.1370	 7.0040
 2.1380	 7.0380
 2.1390	 7.0550
 2.1400	 7.0610
 2.1410	 7.0830
 2.1420	 7.0920
 2.1430	 7.0870
 2.1440	 7.0860
 2.1450	 7.0840
 2.1460	 7.0840
 2.1470	 7.0720
 2.1480	 7.0820
 2.1490	 7.1080
 2.1500	 7.1270
 2.1510	 7.1650
 2.1520	 7.1770
 2.1530	 7.1750
 2.1540	 7.1740
 2.1550	 7.1460
 2.1560	 7.1430
 2.1570	 7.1570
 2.1580	 7.1630
 2.1590	 7.1770
 2.1600	 7.1900
 2.1610	 7.1850
 2.1620	 7.1920
 2.1630	 7.1940
 2.1640	 7.1930
 2.1650	 7.2010
 2.1660	 7.2130
 2.1670	 7.2230
 2.1680	 7.2360
 2.1690	 7.2490
 2.1700	 7.2730
 2.1710	 7.2720
 2.1720	 7.2560
 2.1730	 7.2520
 2.1740	 7.2200
 2.1750	 7.2170
 2.1760	 7.2500
 2.1770	 7.2660
 2.1780	 7.2840
 2.1790	 7.3010
 2.1800	 7.3090
 2.1810	 7.3210
 2.1820	 7.3330
 2.1830	 7.3480
 2.1840	 7.3590
 2.1850	 7.3720
 2.1860	 7.3730
 2.1870	 7.3660
 2.1880	 7.3620
 2.1890	 7.3400
 2.1900	 7.3470
 2.1910	 7.3780
 2.1920	 7.3860
 2.1930	 7.4060
 2.1940	 7.4040
 2.1950	 7.3690
 2.1960	 7.3510
 2.1970	 7.3240
 2.1980	 7.3150
 2.1990	 7.3230
 2.2000	 7.3280
 2.2010	 7.3480
 2.2020	 7.3600
 2.2030	 7.3540
 2.2040	 7.3670
 2.2050	 7.3980
 2.2060	 7.4160
 2.2070	 7.4360
 2.2080	 7.4750
 2.2090	 7.4780
 2.2100	 7.4630
 2.2110	 7.4440
 2.2120	 7.3960
 2.2130	 7.3820
 2.2140	 7.3740
 2.2150	 7.3660
 2.2160	 7.3830
 2.2170	 7.3770
 2.2180	 7.3430
 2.2190	 7.3440
 2.2200	 7.3600
 2.2210	 7.3680
 2.2220	 7.4120
 2.2230	 7.4170
 2.2240	 7.3860
 2.2250	 7.3740
 2.2260	 7.3440
 2.2270	 7.3300
 2.2280	 7.3450
 2.2290	 7.3460
 2.2300	 7.3430
 2.2310	 7.3470
 2.2320	 7.3320
 2.2330	 7.3000
 2.2340	 7.2730
 2.2350	 7.2250
 2.2360	 7.2230
 2.2370	 7.2430
 2.2380	 7.2460
 2.2390	 7.2760
 2.2400	 7.2710
 2.2410	 7.2350
 2.2420	 7.2190
 2.2430	 7.2000
 2.2440	 7.1890
 2.2450	 7.1840
 2.2460	 7.1760
 2.2470	 7.1750
 2.2480	 7.1620
 2.2490	 7.1330
 2.2500	 7.1230
 2.2510	 7.1090
 2.2520	 7.1120
 2.2530	 7.1570
 2.2540	 7.1680
 2.2550	 7.1810
 2.2560	 7.1750
 2.2570	 7.1210
 2.2580	 7.0980
 2.2590	 7.0830
 2.2600	 7.0670
 2.2610	 7.0680
 2.2620	 7.0620
 2.2630	 7.0450
 2.2640	 7.0340
 2.2650	 7.0130
 2.2660	 7.0170
 2.2670	 7.0010
 2.2680	 6.9760
 2.2690	 6.9570
 2.2700	 6.9270
 2.2710	 6.9200
 2.2720	 6.9300
 2.2730	 6.9380
 2.2740	 6.9580
 2.2750	 6.9730
 2.2760	 7.0010
 2.2770	 6.9970
 2.2780	 6.9830
 2.2790	 6.9560
 2.2800	 6.8820
 2.2810	 6.8540
 2.2820	 6.8520
 2.2830	 6.8330
 2.2840	 6.8200
 2.2850	 6.8090
 2.2860	 6.7830
 2.2870	 6.7700
 2.2880	 6.7770
 2.2890	 6.7750
 2.2900	 6.7810
 2.2910	 6.7700
 2.2920	 6.7510
 2.2930	 6.7300
 2.2940	 6.6880
 2.2950	 6.6540
 2.2960	 6.6110
 2.2970	 6.5920
 2.2980	 6.5860
 2.2990	 6.5850
 2.3000	 6.6210
 2.3010	 6.6440
 2.3020	 6.6540
 2.3030	 6.6390
 2.3040	 6.5980
 2.3050	 6.5560
 2.3060	 6.5490
 2.3070	 6.5770
 2.3080	 6.5770
 2.3090	 6.5880
 2.3100	 6.5610
 2.3110	 6.5120
 2.3120	 6.5010
 2.3130	 6.5070
 2.3140	 6.5060
 2.3150	 6.5250
 2.3160	 6.5240
 2.3170	 6.5060
 2.3180	 6.5050
 2.3190	 6.5110
 2.3200	 6.5030
 2.3210	 6.4880
 2.3220	 6.5020
 2.3230	 6.5300
 2.3240	 6.5290
 2.3250	 6.5400
 2.3260	 6.5220
 2.3270	 6.4490
 2.3280	 6.4250
 2.3290	 6.4250
 2.3300	 6.4140
 2.3310	 6.4030
 2.3320	 6.4070
 2.3330	 6.4200
 2.3340	 6.4250
 2.3350	 6.4420
 2.3360	 6.4540
 2.3370	 6.4670
 2.3380	 6.4670
 2.3390	 6.4690
 2.3400	 6.4580
 2.3410	 6.4180
 2.3420	 6.3790
 2.3430	 6.3440
 2.3440	 6.3090
 2.3450	 6.2500
 2.3460	 6.2270
 2.3470	 6.2240
 2.3480	 6.2140
 2.3490	 6.2320
 2.3500	 6.2430
 2.3510	 6.2410
 2.3520	 6.2450
 2.3530	 6.2690
 2.3540	 6.2530
 2.3550	 6.2320
 2.3560	 6.2240
 2.3570	 6.2490
 2.3580	 6.2360
 2.3590	 6.1920
 2.3600	 6.1660
 2.3610	 6.0610
 2.3620	 5.9950
 2.3630	 6.0110
 2.3640	 6.0170
 2.3650	 6.0510
 2.3660	 6.0620
 2.3670	 6.0550
 2.3680	 6.0780
 2.3690	 6.0960
 2.3700	 6.1300
 2.3710	 6.0930
 2.3720	 6.0500
 2.3730	 6.0390
 2.3740	 5.9770
 2.3750	 6.0210
 2.3760	 6.0770
 2.3770	 6.0520
 2.3780	 6.0960
 2.3790	 6.0630
 2.3800	 5.9770
 2.3810	 5.9960
 2.3820	 5.9990
 2.3830	 6.0210
 2.3840	 6.0880
 2.3850	 6.1090
 2.3860	 6.1330
 2.3870	 6.1490
 2.3880	 6.1630
 2.3890	 6.1890
 2.3900	 6.1320
 2.3910	 6.0850
 2.3920	 6.0550
 2.3930	 5.9940
 2.3940	 6.0170
 2.3950	 6.0300
 2.3960	 5.9880
 2.3970	 5.9960
 2.3980	 5.9790
 2.3990	 6.0100
 2.4000	 6.0830
 2.4010	 6.0760
 2.4020	 6.0770
 2.4030	 6.0420
 2.4040	 6.0010
 2.4050	 6.0140
 2.4060	 6.0240
 2.4070	 6.0150
 2.4080	 5.9170
 2.4090	 5.8070
 2.4100	 5.7450
 2.4110	 5.7170
 2.4120	 5.7820
 2.4130	 5.8210
 2.4140	 5.7980
 2.4150	 5.7590
 2.4160	 5.6630
 2.4170	 5.6620
 2.4180	 5.7250
 2.4190	 5.7850
 2.4200	 5.9270
 2.4210	 5.9850
 2.4220	 5.9020
 2.4230	 5.8300
 2.4240	 5.7490
 2.4250	 5.6290
 2.4260	 5.6720
 2.4270	 5.7660
 2.4280	 5.7600
 2.4290	 5.8760
 2.4300	 5.9260
 2.4310	 5.8550
 2.4320	 5.8730
 2.4330	 5.8400
 2.4340	 5.8160
 2.4350	 5.8630
 2.4360	 5.8550
 2.4370	 5.7950
 2.4380	 5.7410
 2.4390	 5.6920
 2.4400	 5.6530
 2.4410	 5.6770
 2.4420	 5.6370
 2.4430	 5.6160
 2.4440	 5.6290
 2.4450	 5.6060
 2.4460	 5.6680
 2.4470	 5.7180
 2.4480	 5.7410
 2.4490	 5.6640
 2.4500	 5.6230
 2.4510	 5.6640
 2.4520	 5.5520
 2.4530	 5.5750
 2.4540	 5.6830
 2.4550	 5.6770
 2.4560	 5.7800
 2.4570	 5.8840
 2.4580	 5.9250
 2.4590	 5.9080
 2.4600	 5.8490
 2.4610	 5.7940
 2.4620	 5.6430
 2.4630	 5.4580
 2.4640	 5.3130
 2.4650	 5.2940
 2.4660	 5.4130
 2.4670	 5.5480
 2.4680	 5.8280
 2.4690	 5.9330
 2.4700	 5.9730
 2.4710	 6.0880
 2.4720	 6.0380
 2.4730	 5.8160
 2.4740	 5.8060
 2.4750	 5.7040
 2.4760	 5.6450
 2.4770	 5.8130
 2.4780	 5.8320
 2.4790	 5.7000
 2.4800	 5.6700
 2.4810	 5.7360
 2.4820	 5.6090
 2.4830	 5.7310
 2.4840	 5.9820
 2.4850	 5.9530
 2.4860	 6.0330
 2.4870	 5.9960
 2.4880	 5.8910
 2.4890	 5.7580
 2.4900	 5.7000
 2.4910	 5.9490
 2.4920	 6.0150
 2.4930	 5.8270
 2.4940	 5.7690
 2.4950	 5.5740
 2.4960	 5.4300
 2.4970	 5.7650
 2.4980	 6.0530
 2.4990	 6.2480
 2.5000	 6.2350
