Name: Chorisia insignis
Type: vegetation
Class: Tree
Genus: Chorisia
Species: insignis
Sample No.: JPL258
Owner: JPL
Wavelength Range: VSWIR
Origin: 34.13149; -118.11296; WGS84
Collection Date: 10/6/2016
Description: Samples were collected at the Huntington Garden in San Marino California as part of a JPL Subcontract studying HyTES imagery. Samples were taken to JPL and processed within 48 hours of collection. The same leaves were processed in the Nicolet and then measured using the ASD.
Measurement: Bidirectional reflectance
First Column: X
Second Column: Y
X Units: Wavelength (micrometer)
Y Units: Reflectance (percentage)
First X Value: 0.35
Last X Value: 2.5
Number of X Values: 2151
Additional Information: vegetation.tree.chorisia.insignis.vswir.jpl258.jpl.asd.ancillary.txt

 0.3500	 8.6700
 0.3510	 8.6140
 0.3520	 8.5050
 0.3530	 8.3950
 0.3540	 8.3270
 0.3550	 8.4030
 0.3560	 8.3920
 0.3570	 8.3250
 0.3580	 8.3500
 0.3590	 8.4180
 0.3600	 8.3880
 0.3610	 8.2670
 0.3620	 8.2720
 0.3630	 8.3100
 0.3640	 8.3180
 0.3650	 8.2650
 0.3660	 8.1970
 0.3670	 8.1670
 0.3680	 8.1760
 0.3690	 8.1910
 0.3700	 8.2340
 0.3710	 8.2190
 0.3720	 8.1410
 0.3730	 8.1550
 0.3740	 8.1510
 0.3750	 8.1390
 0.3760	 8.1520
 0.3770	 8.1600
 0.3780	 8.1280
 0.3790	 8.0880
 0.3800	 8.1220
 0.3810	 8.1550
 0.3820	 8.1620
 0.3830	 8.1420
 0.3840	 8.1130
 0.3850	 8.1080
 0.3860	 8.1260
 0.3870	 8.1480
 0.3880	 8.1720
 0.3890	 8.1780
 0.3900	 8.1770
 0.3910	 8.2180
 0.3920	 8.2130
 0.3930	 8.2010
 0.3940	 8.2230
 0.3950	 8.2470
 0.3960	 8.2790
 0.3970	 8.3100
 0.3980	 8.3280
 0.3990	 8.3530
 0.4000	 8.3850
 0.4010	 8.4160
 0.4020	 8.4270
 0.4030	 8.4350
 0.4040	 8.4520
 0.4050	 8.4860
 0.4060	 8.5200
 0.4070	 8.5410
 0.4080	 8.5560
 0.4090	 8.5850
 0.4100	 8.6290
 0.4110	 8.6680
 0.4120	 8.6880
 0.4130	 8.7000
 0.4140	 8.7090
 0.4150	 8.7210
 0.4160	 8.7390
 0.4170	 8.7540
 0.4180	 8.7660
 0.4190	 8.7750
 0.4200	 8.7870
 0.4210	 8.7930
 0.4220	 8.7940
 0.4230	 8.7970
 0.4240	 8.8170
 0.4250	 8.8250
 0.4260	 8.8250
 0.4270	 8.8340
 0.4280	 8.8370
 0.4290	 8.8280
 0.4300	 8.8090
 0.4310	 8.8000
 0.4320	 8.7860
 0.4330	 8.7750
 0.4340	 8.7750
 0.4350	 8.7760
 0.4360	 8.7730
 0.4370	 8.7720
 0.4380	 8.7810
 0.4390	 8.7980
 0.4400	 8.8230
 0.4410	 8.8500
 0.4420	 8.8630
 0.4430	 8.8740
 0.4440	 8.8860
 0.4450	 8.8980
 0.4460	 8.9110
 0.4470	 8.9240
 0.4480	 8.9350
 0.4490	 8.9450
 0.4500	 8.9580
 0.4510	 8.9720
 0.4520	 8.9860
 0.4530	 8.9940
 0.4540	 9.0110
 0.4550	 9.0300
 0.4560	 9.0320
 0.4570	 9.0340
 0.4580	 9.0400
 0.4590	 9.0500
 0.4600	 9.0570
 0.4610	 9.0600
 0.4620	 9.0620
 0.4630	 9.0660
 0.4640	 9.0770
 0.4650	 9.0830
 0.4660	 9.0800
 0.4670	 9.0770
 0.4680	 9.0790
 0.4690	 9.0850
 0.4700	 9.0900
 0.4710	 9.0910
 0.4720	 9.0920
 0.4730	 9.0930
 0.4740	 9.0930
 0.4750	 9.0970
 0.4760	 9.1010
 0.4770	 9.1040
 0.4780	 9.1050
 0.4790	 9.1050
 0.4800	 9.1040
 0.4810	 9.1040
 0.4820	 9.1070
 0.4830	 9.1060
 0.4840	 9.1050
 0.4850	 9.1060
 0.4860	 9.1040
 0.4870	 9.1090
 0.4880	 9.1250
 0.4890	 9.1280
 0.4900	 9.1380
 0.4910	 9.1590
 0.4920	 9.1860
 0.4930	 9.2110
 0.4940	 9.2360
 0.4950	 9.2610
 0.4960	 9.2880
 0.4970	 9.3230
 0.4980	 9.3600
 0.4990	 9.3940
 0.5000	 9.4300
 0.5010	 9.4740
 0.5020	 9.5260
 0.5030	 9.5780
 0.5040	 9.6360
 0.5050	 9.6960
 0.5060	 9.7610
 0.5070	 9.8440
 0.5080	 9.9340
 0.5090	10.0300
 0.5100	10.1390
 0.5110	10.2570
 0.5120	10.3850
 0.5130	10.5250
 0.5140	10.6810
 0.5150	10.8440
 0.5160	11.0200
 0.5170	11.2110
 0.5180	11.4160
 0.5190	11.6340
 0.5200	11.8630
 0.5210	12.0990
 0.5220	12.3370
 0.5230	12.5780
 0.5240	12.8170
 0.5250	13.0490
 0.5260	13.2800
 0.5270	13.5060
 0.5280	13.7190
 0.5290	13.9170
 0.5300	14.1010
 0.5310	14.2710
 0.5320	14.4280
 0.5330	14.5720
 0.5340	14.7010
 0.5350	14.8140
 0.5360	14.9140
 0.5370	15.0000
 0.5380	15.0710
 0.5390	15.1270
 0.5400	15.1680
 0.5410	15.1950
 0.5420	15.2140
 0.5430	15.2370
 0.5440	15.2710
 0.5450	15.3160
 0.5460	15.3700
 0.5470	15.4280
 0.5480	15.4800
 0.5490	15.5200
 0.5500	15.5480
 0.5510	15.5670
 0.5520	15.5740
 0.5530	15.5670
 0.5540	15.5480
 0.5550	15.5150
 0.5560	15.4640
 0.5570	15.3910
 0.5580	15.3080
 0.5590	15.2120
 0.5600	15.1000
 0.5610	14.9770
 0.5620	14.8480
 0.5630	14.7140
 0.5640	14.5750
 0.5650	14.4300
 0.5660	14.2820
 0.5670	14.1330
 0.5680	13.9810
 0.5690	13.8260
 0.5700	13.6690
 0.5710	13.5140
 0.5720	13.3570
 0.5730	13.2060
 0.5740	13.0660
 0.5750	12.9390
 0.5760	12.8180
 0.5770	12.7030
 0.5780	12.5950
 0.5790	12.4920
 0.5800	12.3910
 0.5810	12.2950
 0.5820	12.2120
 0.5830	12.1340
 0.5840	12.0620
 0.5850	11.9980
 0.5860	11.9410
 0.5870	11.8860
 0.5880	11.8360
 0.5890	11.7950
 0.5900	11.7550
 0.5910	11.7150
 0.5920	11.6740
 0.5930	11.6390
 0.5940	11.6110
 0.5950	11.5930
 0.5960	11.5790
 0.5970	11.5620
 0.5980	11.5400
 0.5990	11.5140
 0.6000	11.4890
 0.6010	11.4620
 0.6020	11.4300
 0.6030	11.3910
 0.6040	11.3450
 0.6050	11.2900
 0.6060	11.2310
 0.6070	11.1690
 0.6080	11.0970
 0.6090	11.0120
 0.6100	10.9090
 0.6110	10.7930
 0.6120	10.7230
 0.6130	10.6810
 0.6140	10.6440
 0.6150	10.5940
 0.6160	10.5440
 0.6170	10.4920
 0.6180	10.4390
 0.6190	10.3920
 0.6200	10.3480
 0.6210	10.3080
 0.6220	10.2780
 0.6230	10.2520
 0.6240	10.2300
 0.6250	10.2120
 0.6260	10.1940
 0.6270	10.1820
 0.6280	10.1730
 0.6290	10.1630
 0.6300	10.1500
 0.6310	10.1380
 0.6320	10.1300
 0.6330	10.1240
 0.6340	10.1100
 0.6350	10.0880
 0.6360	10.0600
 0.6370	10.0260
 0.6380	 9.9860
 0.6390	 9.9420
 0.6400	 9.8990
 0.6410	 9.8540
 0.6420	 9.8080
 0.6430	 9.7620
 0.6440	 9.7140
 0.6450	 9.6670
 0.6460	 9.6220
 0.6470	 9.5790
 0.6480	 9.5360
 0.6490	 9.4990
 0.6500	 9.4680
 0.6510	 9.4430
 0.6520	 9.4230
 0.6530	 9.4030
 0.6540	 9.3850
 0.6550	 9.3700
 0.6560	 9.3500
 0.6570	 9.3260
 0.6580	 9.3000
 0.6590	 9.2740
 0.6600	 9.2470
 0.6610	 9.2210
 0.6620	 9.1970
 0.6630	 9.1750
 0.6640	 9.1580
 0.6650	 9.1490
 0.6660	 9.1410
 0.6670	 9.1390
 0.6680	 9.1430
 0.6690	 9.1500
 0.6700	 9.1630
 0.6710	 9.1830
 0.6720	 9.2090
 0.6730	 9.2380
 0.6740	 9.2680
 0.6750	 9.3030
 0.6760	 9.3480
 0.6770	 9.3940
 0.6780	 9.4470
 0.6790	 9.5070
 0.6800	 9.5710
 0.6810	 9.6400
 0.6820	 9.7130
 0.6830	 9.7890
 0.6840	 9.8710
 0.6850	 9.9560
 0.6860	10.0440
 0.6870	10.1420
 0.6880	10.2550
 0.6890	10.3890
 0.6900	10.5540
 0.6910	10.7600
 0.6920	11.0170
 0.6930	11.3330
 0.6940	11.7150
 0.6950	12.1660
 0.6960	12.6890
 0.6970	13.2770
 0.6980	13.9250
 0.6990	14.6370
 0.7000	15.3990
 0.7010	16.2040
 0.7020	17.0480
 0.7030	17.9230
 0.7040	18.8200
 0.7050	19.7350
 0.7060	20.6630
 0.7070	21.6020
 0.7080	22.5500
 0.7090	23.5060
 0.7100	24.4720
 0.7110	25.4440
 0.7120	26.4200
 0.7130	27.3990
 0.7140	28.3790
 0.7150	29.3600
 0.7160	30.3410
 0.7170	31.3140
 0.7180	32.2830
 0.7190	33.2440
 0.7200	34.1900
 0.7210	35.1250
 0.7220	36.0420
 0.7230	36.9380
 0.7240	37.8090
 0.7250	38.6570
 0.7260	39.4790
 0.7270	40.2700
 0.7280	41.0290
 0.7290	41.7580
 0.7300	42.4540
 0.7310	43.1140
 0.7320	43.7430
 0.7330	44.3430
 0.7340	44.9100
 0.7350	45.4410
 0.7360	45.9410
 0.7370	46.4100
 0.7380	46.8470
 0.7390	47.2550
 0.7400	47.6340
 0.7410	47.9850
 0.7420	48.3080
 0.7430	48.6060
 0.7440	48.8740
 0.7450	49.1170
 0.7460	49.3420
 0.7470	49.5430
 0.7480	49.7230
 0.7490	49.8840
 0.7500	50.0290
 0.7510	50.1570
 0.7520	50.2710
 0.7530	50.3720
 0.7540	50.4640
 0.7550	50.5440
 0.7560	50.6150
 0.7570	50.6770
 0.7580	50.7340
 0.7590	50.7850
 0.7600	50.8300
 0.7610	50.8660
 0.7620	50.8990
 0.7630	50.9280
 0.7640	50.9520
 0.7650	50.9710
 0.7660	50.9860
 0.7670	50.9980
 0.7680	51.0100
 0.7690	51.0180
 0.7700	51.0240
 0.7710	51.0280
 0.7720	51.0320
 0.7730	51.0350
 0.7740	51.0360
 0.7750	51.0370
 0.7760	51.0430
 0.7770	51.0460
 0.7780	51.0470
 0.7790	51.0490
 0.7800	51.0510
 0.7810	51.0540
 0.7820	51.0560
 0.7830	51.0600
 0.7840	51.0630
 0.7850	51.0650
 0.7860	51.0630
 0.7870	51.0600
 0.7880	51.0570
 0.7890	51.0560
 0.7900	51.0560
 0.7910	51.0500
 0.7920	51.0460
 0.7930	51.0440
 0.7940	51.0390
 0.7950	51.0350
 0.7960	51.0300
 0.7970	51.0240
 0.7980	51.0130
 0.7990	51.0020
 0.8000	50.9910
 0.8010	50.9800
 0.8020	50.9690
 0.8030	50.9580
 0.8040	50.9460
 0.8050	50.9330
 0.8060	50.9210
 0.8070	50.9060
 0.8080	50.8900
 0.8090	50.8760
 0.8100	50.8590
 0.8110	50.8430
 0.8120	50.8260
 0.8130	50.8080
 0.8140	50.7870
 0.8150	50.7650
 0.8160	50.7450
 0.8170	50.7300
 0.8180	50.7140
 0.8190	50.6950
 0.8200	50.6740
 0.8210	50.6530
 0.8220	50.6340
 0.8230	50.6150
 0.8240	50.5970
 0.8250	50.5770
 0.8260	50.5570
 0.8270	50.5360
 0.8280	50.5160
 0.8290	50.4950
 0.8300	50.4740
 0.8310	50.4550
 0.8320	50.4340
 0.8330	50.4160
 0.8340	50.4000
 0.8350	50.3850
 0.8360	50.3710
 0.8370	50.3570
 0.8380	50.3430
 0.8390	50.3270
 0.8400	50.3140
 0.8410	50.3040
 0.8420	50.2940
 0.8430	50.2790
 0.8440	50.2690
 0.8450	50.2640
 0.8460	50.2590
 0.8470	50.2480
 0.8480	50.2440
 0.8490	50.2410
 0.8500	50.2350
 0.8510	50.2270
 0.8520	50.2220
 0.8530	50.2200
 0.8540	50.2160
 0.8550	50.2130
 0.8560	50.2110
 0.8570	50.2120
 0.8580	50.2140
 0.8590	50.2170
 0.8600	50.2190
 0.8610	50.2190
 0.8620	50.2250
 0.8630	50.2290
 0.8640	50.2320
 0.8650	50.2340
 0.8660	50.2380
 0.8670	50.2420
 0.8680	50.2490
 0.8690	50.2600
 0.8700	50.2620
 0.8710	50.2660
 0.8720	50.2760
 0.8730	50.2890
 0.8740	50.2960
 0.8750	50.3050
 0.8760	50.3140
 0.8770	50.3230
 0.8780	50.3300
 0.8790	50.3380
 0.8800	50.3490
 0.8810	50.3550
 0.8820	50.3650
 0.8830	50.3760
 0.8840	50.3850
 0.8850	50.3930
 0.8860	50.4030
 0.8870	50.4140
 0.8880	50.4250
 0.8890	50.4360
 0.8900	50.4460
 0.8910	50.4550
 0.8920	50.4630
 0.8930	50.4740
 0.8940	50.4850
 0.8950	50.4960
 0.8960	50.5100
 0.8970	50.5220
 0.8980	50.5300
 0.8990	50.5380
 0.9000	50.5480
 0.9010	50.5590
 0.9020	50.5660
 0.9030	50.5710
 0.9040	50.5840
 0.9050	50.5920
 0.9060	50.5960
 0.9070	50.5990
 0.9080	50.6070
 0.9090	50.6140
 0.9100	50.6190
 0.9110	50.6240
 0.9120	50.6310
 0.9130	50.6300
 0.9140	50.6290
 0.9150	50.6390
 0.9160	50.6430
 0.9170	50.6450
 0.9180	50.6450
 0.9190	50.6440
 0.9200	50.6410
 0.9210	50.6380
 0.9220	50.6340
 0.9230	50.6310
 0.9240	50.6280
 0.9250	50.6240
 0.9260	50.6170
 0.9270	50.6100
 0.9280	50.5960
 0.9290	50.5790
 0.9300	50.5620
 0.9310	50.5510
 0.9320	50.5350
 0.9330	50.5170
 0.9340	50.5020
 0.9350	50.4870
 0.9360	50.4700
 0.9370	50.4460
 0.9380	50.4190
 0.9390	50.4030
 0.9400	50.3800
 0.9410	50.3520
 0.9420	50.3250
 0.9430	50.2970
 0.9440	50.2700
 0.9450	50.2390
 0.9460	50.2060
 0.9470	50.1740
 0.9480	50.1390
 0.9490	50.0920
 0.9500	50.0320
 0.9510	49.9940
 0.9520	49.9540
 0.9530	49.9120
 0.9540	49.8700
 0.9550	49.8180
 0.9560	49.7700
 0.9570	49.7260
 0.9580	49.6830
 0.9590	49.6400
 0.9600	49.6020
 0.9610	49.5690
 0.9620	49.5390
 0.9630	49.5120
 0.9640	49.4900
 0.9650	49.4700
 0.9660	49.4480
 0.9670	49.4250
 0.9680	49.4100
 0.9690	49.3980
 0.9700	49.3800
 0.9710	49.3710
 0.9720	49.3570
 0.9730	49.3430
 0.9740	49.3380
 0.9750	49.3310
 0.9760	49.3190
 0.9770	49.3090
 0.9780	49.3090
 0.9790	49.3090
 0.9800	49.2950
 0.9810	49.2840
 0.9820	49.3000
 0.9830	49.2990
 0.9840	49.2890
 0.9850	49.2810
 0.9860	49.2830
 0.9870	49.2920
 0.9880	49.2960
 0.9890	49.2980
 0.9900	49.3040
 0.9910	49.2940
 0.9920	49.2990
 0.9930	49.3120
 0.9940	49.3180
 0.9950	49.3280
 0.9960	49.3300
 0.9970	49.3300
 0.9980	49.3370
 0.9990	49.3420
 1.0000	49.3560
 1.0010	50.2700
 1.0020	50.2810
 1.0030	50.2890
 1.0040	50.2970
 1.0050	50.3060
 1.0060	50.3120
 1.0070	50.3160
 1.0080	50.3260
 1.0090	50.3410
 1.0100	50.3500
 1.0110	50.3580
 1.0120	50.3660
 1.0130	50.3660
 1.0140	50.3720
 1.0150	50.3790
 1.0160	50.3920
 1.0170	50.4040
 1.0180	50.4140
 1.0190	50.4240
 1.0200	50.4310
 1.0210	50.4380
 1.0220	50.4440
 1.0230	50.4520
 1.0240	50.4590
 1.0250	50.4660
 1.0260	50.4740
 1.0270	50.4830
 1.0280	50.4930
 1.0290	50.5020
 1.0300	50.5090
 1.0310	50.5200
 1.0320	50.5340
 1.0330	50.5420
 1.0340	50.5500
 1.0350	50.5600
 1.0360	50.5630
 1.0370	50.5670
 1.0380	50.5730
 1.0390	50.5840
 1.0400	50.5910
 1.0410	50.5980
 1.0420	50.6050
 1.0430	50.6120
 1.0440	50.6190
 1.0450	50.6270
 1.0460	50.6340
 1.0470	50.6410
 1.0480	50.6450
 1.0490	50.6460
 1.0500	50.6480
 1.0510	50.6480
 1.0520	50.6480
 1.0530	50.6510
 1.0540	50.6570
 1.0550	50.6610
 1.0560	50.6650
 1.0570	50.6670
 1.0580	50.6670
 1.0590	50.6680
 1.0600	50.6710
 1.0610	50.6720
 1.0620	50.6730
 1.0630	50.6710
 1.0640	50.6670
 1.0650	50.6630
 1.0660	50.6550
 1.0670	50.6510
 1.0680	50.6500
 1.0690	50.6500
 1.0700	50.6490
 1.0710	50.6530
 1.0720	50.6500
 1.0730	50.6430
 1.0740	50.6380
 1.0750	50.6320
 1.0760	50.6260
 1.0770	50.6210
 1.0780	50.6160
 1.0790	50.6100
 1.0800	50.6050
 1.0810	50.6020
 1.0820	50.6000
 1.0830	50.6010
 1.0840	50.5980
 1.0850	50.5930
 1.0860	50.5890
 1.0870	50.5820
 1.0880	50.5700
 1.0890	50.5630
 1.0900	50.5570
 1.0910	50.5520
 1.0920	50.5490
 1.0930	50.5440
 1.0940	50.5370
 1.0950	50.5300
 1.0960	50.5190
 1.0970	50.5130
 1.0980	50.5110
 1.0990	50.5070
 1.1000	50.5060
 1.1010	50.5020
 1.1020	50.4940
 1.1030	50.4870
 1.1040	50.4800
 1.1050	50.4710
 1.1060	50.4640
 1.1070	50.4580
 1.1080	50.4530
 1.1090	50.4510
 1.1100	50.4460
 1.1110	50.4390
 1.1120	50.4320
 1.1130	50.4220
 1.1140	50.4140
 1.1150	50.4060
 1.1160	50.3970
 1.1170	50.3880
 1.1180	50.3760
 1.1190	50.3600
 1.1200	50.3440
 1.1210	50.3300
 1.1220	50.3120
 1.1230	50.2920
 1.1240	50.2710
 1.1250	50.2460
 1.1260	50.2180
 1.1270	50.1840
 1.1280	50.1480
 1.1290	50.1050
 1.1300	50.0530
 1.1310	50.0000
 1.1320	49.9430
 1.1330	49.8810
 1.1340	49.8150
 1.1350	49.7450
 1.1360	49.6690
 1.1370	49.5890
 1.1380	49.5020
 1.1390	49.4120
 1.1400	49.3170
 1.1410	49.2200
 1.1420	49.1240
 1.1430	49.0280
 1.1440	48.9310
 1.1450	48.8330
 1.1460	48.7390
 1.1470	48.6430
 1.1480	48.5540
 1.1490	48.4640
 1.1500	48.3830
 1.1510	48.3050
 1.1520	48.2330
 1.1530	48.1660
 1.1540	48.1040
 1.1550	48.0480
 1.1560	47.9970
 1.1570	47.9510
 1.1580	47.9100
 1.1590	47.8720
 1.1600	47.8370
 1.1610	47.8050
 1.1620	47.7780
 1.1630	47.7530
 1.1640	47.7290
 1.1650	47.7090
 1.1660	47.6920
 1.1670	47.6750
 1.1680	47.6590
 1.1690	47.6450
 1.1700	47.6300
 1.1710	47.6170
 1.1720	47.6060
 1.1730	47.5950
 1.1740	47.5840
 1.1750	47.5730
 1.1760	47.5610
 1.1770	47.5490
 1.1780	47.5360
 1.1790	47.5230
 1.1800	47.5120
 1.1810	47.4990
 1.1820	47.4890
 1.1830	47.4770
 1.1840	47.4640
 1.1850	47.4520
 1.1860	47.4380
 1.1870	47.4240
 1.1880	47.4120
 1.1890	47.4000
 1.1900	47.3900
 1.1910	47.3830
 1.1920	47.3770
 1.1930	47.3720
 1.1940	47.3670
 1.1950	47.3620
 1.1960	47.3580
 1.1970	47.3540
 1.1980	47.3500
 1.1990	47.3470
 1.2000	47.3460
 1.2010	47.3470
 1.2020	47.3500
 1.2030	47.3540
 1.2040	47.3600
 1.2050	47.3670
 1.2060	47.3740
 1.2070	47.3810
 1.2080	47.3890
 1.2090	47.3980
 1.2100	47.4080
 1.2110	47.4170
 1.2120	47.4270
 1.2130	47.4370
 1.2140	47.4460
 1.2150	47.4560
 1.2160	47.4680
 1.2170	47.4810
 1.2180	47.4910
 1.2190	47.5030
 1.2200	47.5160
 1.2210	47.5260
 1.2220	47.5390
 1.2230	47.5510
 1.2240	47.5600
 1.2250	47.5710
 1.2260	47.5820
 1.2270	47.5940
 1.2280	47.6060
 1.2290	47.6180
 1.2300	47.6300
 1.2310	47.6400
 1.2320	47.6500
 1.2330	47.6600
 1.2340	47.6690
 1.2350	47.6760
 1.2360	47.6840
 1.2370	47.6920
 1.2380	47.7000
 1.2390	47.7090
 1.2400	47.7170
 1.2410	47.7260
 1.2420	47.7350
 1.2430	47.7430
 1.2440	47.7490
 1.2450	47.7540
 1.2460	47.7580
 1.2470	47.7630
 1.2480	47.7680
 1.2490	47.7730
 1.2500	47.7770
 1.2510	47.7800
 1.2520	47.7830
 1.2530	47.7870
 1.2540	47.7880
 1.2550	47.7890
 1.2560	47.7900
 1.2570	47.7900
 1.2580	47.7920
 1.2590	47.7920
 1.2600	47.7920
 1.2610	47.7890
 1.2620	47.7850
 1.2630	47.7810
 1.2640	47.7760
 1.2650	47.7710
 1.2660	47.7660
 1.2670	47.7580
 1.2680	47.7510
 1.2690	47.7440
 1.2700	47.7360
 1.2710	47.7300
 1.2720	47.7210
 1.2730	47.7100
 1.2740	47.7000
 1.2750	47.6870
 1.2760	47.6730
 1.2770	47.6600
 1.2780	47.6440
 1.2790	47.6270
 1.2800	47.6120
 1.2810	47.5940
 1.2820	47.5740
 1.2830	47.5520
 1.2840	47.5280
 1.2850	47.5020
 1.2860	47.4770
 1.2870	47.4500
 1.2880	47.4230
 1.2890	47.3930
 1.2900	47.3610
 1.2910	47.3270
 1.2920	47.2900
 1.2930	47.2520
 1.2940	47.2120
 1.2950	47.1710
 1.2960	47.1290
 1.2970	47.0860
 1.2980	47.0430
 1.2990	46.9950
 1.3000	46.9440
 1.3010	46.8920
 1.3020	46.8390
 1.3030	46.7860
 1.3040	46.7330
 1.3050	46.6780
 1.3060	46.6210
 1.3070	46.5620
 1.3080	46.5010
 1.3090	46.4400
 1.3100	46.3760
 1.3110	46.3090
 1.3120	46.2430
 1.3130	46.1760
 1.3140	46.1070
 1.3150	46.0360
 1.3160	45.9640
 1.3170	45.8900
 1.3180	45.8120
 1.3190	45.7350
 1.3200	45.6560
 1.3210	45.5740
 1.3220	45.4910
 1.3230	45.4060
 1.3240	45.3210
 1.3250	45.2350
 1.3260	45.1510
 1.3270	45.0630
 1.3280	44.9740
 1.3290	44.8820
 1.3300	44.7860
 1.3310	44.6890
 1.3320	44.5930
 1.3330	44.4980
 1.3340	44.4020
 1.3350	44.3050
 1.3360	44.2060
 1.3370	44.1050
 1.3380	44.0070
 1.3390	43.9100
 1.3400	43.8120
 1.3410	43.7150
 1.3420	43.6200
 1.3430	43.5240
 1.3440	43.4300
 1.3450	43.3370
 1.3460	43.2460
 1.3470	43.1550
 1.3480	43.0640
 1.3490	42.9750
 1.3500	42.8880
 1.3510	42.7980
 1.3520	42.7070
 1.3530	42.6170
 1.3540	42.5260
 1.3550	42.4350
 1.3560	42.3450
 1.3570	42.2530
 1.3580	42.1610
 1.3590	42.0650
 1.3600	41.9650
 1.3610	41.8640
 1.3620	41.7560
 1.3630	41.6430
 1.3640	41.5250
 1.3650	41.3980
 1.3660	41.2660
 1.3670	41.1260
 1.3680	40.9740
 1.3690	40.8140
 1.3700	40.6400
 1.3710	40.4510
 1.3720	40.2500
 1.3730	40.0310
 1.3740	39.7970
 1.3750	39.5470
 1.3760	39.2760
 1.3770	38.9860
 1.3780	38.6720
 1.3790	38.3360
 1.3800	37.9790
 1.3810	37.5960
 1.3820	37.1940
 1.3830	36.7710
 1.3840	36.3280
 1.3850	35.8640
 1.3860	35.3810
 1.3870	34.8740
 1.3880	34.3600
 1.3890	33.8300
 1.3900	33.2890
 1.3910	32.7480
 1.3920	32.1990
 1.3930	31.6450
 1.3940	31.0940
 1.3950	30.5390
 1.3960	29.9920
 1.3970	29.4530
 1.3980	28.9250
 1.3990	28.4160
 1.4000	27.9200
 1.4010	27.4390
 1.4020	26.9780
 1.4030	26.5320
 1.4040	26.1070
 1.4050	25.7030
 1.4060	25.3190
 1.4070	24.9580
 1.4080	24.6180
 1.4090	24.2950
 1.4100	23.9950
 1.4110	23.7120
 1.4120	23.4470
 1.4130	23.2010
 1.4140	22.9720
 1.4150	22.7620
 1.4160	22.5650
 1.4170	22.3830
 1.4180	22.2140
 1.4190	22.0560
 1.4200	21.9110
 1.4210	21.7760
 1.4220	21.6510
 1.4230	21.5370
 1.4240	21.4330
 1.4250	21.3370
 1.4260	21.2500
 1.4270	21.1690
 1.4280	21.0950
 1.4290	21.0270
 1.4300	20.9660
 1.4310	20.9100
 1.4320	20.8590
 1.4330	20.8140
 1.4340	20.7740
 1.4350	20.7390
 1.4360	20.7100
 1.4370	20.6860
 1.4380	20.6640
 1.4390	20.6470
 1.4400	20.6330
 1.4410	20.6230
 1.4420	20.6160
 1.4430	20.6120
 1.4440	20.6100
 1.4450	20.6110
 1.4460	20.6130
 1.4470	20.6190
 1.4480	20.6280
 1.4490	20.6380
 1.4500	20.6510
 1.4510	20.6660
 1.4520	20.6830
 1.4530	20.7010
 1.4540	20.7220
 1.4550	20.7450
 1.4560	20.7720
 1.4570	20.8040
 1.4580	20.8380
 1.4590	20.8760
 1.4600	20.9190
 1.4610	20.9660
 1.4620	21.0170
 1.4630	21.0740
 1.4640	21.1360
 1.4650	21.2030
 1.4660	21.2760
 1.4670	21.3530
 1.4680	21.4360
 1.4690	21.5240
 1.4700	21.6150
 1.4710	21.7130
 1.4720	21.8120
 1.4730	21.9150
 1.4740	22.0230
 1.4750	22.1330
 1.4760	22.2480
 1.4770	22.3660
 1.4780	22.4860
 1.4790	22.6090
 1.4800	22.7310
 1.4810	22.8560
 1.4820	22.9820
 1.4830	23.1090
 1.4840	23.2380
 1.4850	23.3690
 1.4860	23.5010
 1.4870	23.6360
 1.4880	23.7710
 1.4890	23.9070
 1.4900	24.0440
 1.4910	24.1820
 1.4920	24.3220
 1.4930	24.4620
 1.4940	24.6020
 1.4950	24.7430
 1.4960	24.8840
 1.4970	25.0240
 1.4980	25.1650
 1.4990	25.3080
 1.5000	25.4510
 1.5010	25.5950
 1.5020	25.7380
 1.5030	25.8810
 1.5040	26.0240
 1.5050	26.1650
 1.5060	26.3080
 1.5070	26.4500
 1.5080	26.5930
 1.5090	26.7360
 1.5100	26.8800
 1.5110	27.0230
 1.5120	27.1650
 1.5130	27.3040
 1.5140	27.4430
 1.5150	27.5830
 1.5160	27.7210
 1.5170	27.8620
 1.5180	28.0010
 1.5190	28.1380
 1.5200	28.2760
 1.5210	28.4110
 1.5220	28.5460
 1.5230	28.6810
 1.5240	28.8150
 1.5250	28.9490
 1.5260	29.0820
 1.5270	29.2140
 1.5280	29.3450
 1.5290	29.4730
 1.5300	29.6010
 1.5310	29.7300
 1.5320	29.8570
 1.5330	29.9850
 1.5340	30.1110
 1.5350	30.2360
 1.5360	30.3610
 1.5370	30.4830
 1.5380	30.6040
 1.5390	30.7250
 1.5400	30.8430
 1.5410	30.9630
 1.5420	31.0820
 1.5430	31.2000
 1.5440	31.3170
 1.5450	31.4310
 1.5460	31.5440
 1.5470	31.6570
 1.5480	31.7680
 1.5490	31.8800
 1.5500	31.9900
 1.5510	32.0980
 1.5520	32.2050
 1.5530	32.3090
 1.5540	32.4120
 1.5550	32.5160
 1.5560	32.6180
 1.5570	32.7190
 1.5580	32.8190
 1.5590	32.9170
 1.5600	33.0140
 1.5610	33.1080
 1.5620	33.2010
 1.5630	33.2960
 1.5640	33.3890
 1.5650	33.4800
 1.5660	33.5710
 1.5670	33.6600
 1.5680	33.7490
 1.5690	33.8360
 1.5700	33.9210
 1.5710	34.0070
 1.5720	34.0910
 1.5730	34.1750
 1.5740	34.2590
 1.5750	34.3420
 1.5760	34.4240
 1.5770	34.5060
 1.5780	34.5870
 1.5790	34.6660
 1.5800	34.7440
 1.5810	34.8210
 1.5820	34.8960
 1.5830	34.9730
 1.5840	35.0500
 1.5850	35.1240
 1.5860	35.1970
 1.5870	35.2690
 1.5880	35.3400
 1.5890	35.4110
 1.5900	35.4800
 1.5910	35.5500
 1.5920	35.6190
 1.5930	35.6880
 1.5940	35.7550
 1.5950	35.8230
 1.5960	35.8890
 1.5970	35.9530
 1.5980	36.0170
 1.5990	36.0810
 1.6000	36.1460
 1.6010	36.2070
 1.6020	36.2680
 1.6030	36.3300
 1.6040	36.3890
 1.6050	36.4490
 1.6060	36.5080
 1.6070	36.5650
 1.6080	36.6200
 1.6090	36.6740
 1.6100	36.7280
 1.6110	36.7820
 1.6120	36.8350
 1.6130	36.8880
 1.6140	36.9400
 1.6150	36.9900
 1.6160	37.0410
 1.6170	37.0910
 1.6180	37.1400
 1.6190	37.1880
 1.6200	37.2350
 1.6210	37.2790
 1.6220	37.3220
 1.6230	37.3660
 1.6240	37.4100
 1.6250	37.4540
 1.6260	37.4990
 1.6270	37.5430
 1.6280	37.5850
 1.6290	37.6250
 1.6300	37.6650
 1.6310	37.7040
 1.6320	37.7420
 1.6330	37.7800
 1.6340	37.8190
 1.6350	37.8560
 1.6360	37.8930
 1.6370	37.9280
 1.6380	37.9600
 1.6390	37.9930
 1.6400	38.0250
 1.6410	38.0560
 1.6420	38.0870
 1.6430	38.1180
 1.6440	38.1490
 1.6450	38.1790
 1.6460	38.2050
 1.6470	38.2300
 1.6480	38.2530
 1.6490	38.2750
 1.6500	38.2970
 1.6510	38.3200
 1.6520	38.3410
 1.6530	38.3600
 1.6540	38.3770
 1.6550	38.3910
 1.6560	38.4020
 1.6570	38.4140
 1.6580	38.4250
 1.6590	38.4350
 1.6600	38.4470
 1.6610	38.4550
 1.6620	38.4650
 1.6630	38.4740
 1.6640	38.4810
 1.6650	38.4920
 1.6660	38.4980
 1.6670	38.5010
 1.6680	38.5040
 1.6690	38.5040
 1.6700	38.5030
 1.6710	38.5020
 1.6720	38.4980
 1.6730	38.4910
 1.6740	38.4820
 1.6750	38.4720
 1.6760	38.4610
 1.6770	38.4480
 1.6780	38.4350
 1.6790	38.4190
 1.6800	38.4040
 1.6810	38.3870
 1.6820	38.3660
 1.6830	38.3440
 1.6840	38.3210
 1.6850	38.2960
 1.6860	38.2720
 1.6870	38.2470
 1.6880	38.2210
 1.6890	38.1940
 1.6900	38.1670
 1.6910	38.1390
 1.6920	38.1110
 1.6930	38.0830
 1.6940	38.0560
 1.6950	38.0290
 1.6960	38.0000
 1.6970	37.9710
 1.6980	37.9420
 1.6990	37.9110
 1.7000	37.8810
 1.7010	37.8510
 1.7020	37.8210
 1.7030	37.7900
 1.7040	37.7590
 1.7050	37.7260
 1.7060	37.6930
 1.7070	37.6590
 1.7080	37.6270
 1.7090	37.5950
 1.7100	37.5610
 1.7110	37.5260
 1.7120	37.4920
 1.7130	37.4560
 1.7140	37.4220
 1.7150	37.3880
 1.7160	37.3540
 1.7170	37.3200
 1.7180	37.2870
 1.7190	37.2540
 1.7200	37.2210
 1.7210	37.1870
 1.7220	37.1550
 1.7230	37.1220
 1.7240	37.0870
 1.7250	37.0530
 1.7260	37.0200
 1.7270	36.9850
 1.7280	36.9520
 1.7290	36.9190
 1.7300	36.8830
 1.7310	36.8470
 1.7320	36.8100
 1.7330	36.7740
 1.7340	36.7380
 1.7350	36.7020
 1.7360	36.6670
 1.7370	36.6290
 1.7380	36.5870
 1.7390	36.5450
 1.7400	36.5000
 1.7410	36.4540
 1.7420	36.4090
 1.7430	36.3610
 1.7440	36.3100
 1.7450	36.2580
 1.7460	36.2030
 1.7470	36.1490
 1.7480	36.0950
 1.7490	36.0380
 1.7500	35.9780
 1.7510	35.9200
 1.7520	35.8610
 1.7530	35.8040
 1.7540	35.7500
 1.7550	35.6920
 1.7560	35.6340
 1.7570	35.5750
 1.7580	35.5170
 1.7590	35.4600
 1.7600	35.4060
 1.7610	35.3490
 1.7620	35.2960
 1.7630	35.2420
 1.7640	35.1920
 1.7650	35.1460
 1.7660	35.1010
 1.7670	35.0560
 1.7680	35.0140
 1.7690	34.9740
 1.7700	34.9340
 1.7710	34.8960
 1.7720	34.8580
 1.7730	34.8190
 1.7740	34.7830
 1.7750	34.7470
 1.7760	34.7140
 1.7770	34.6820
 1.7780	34.6530
 1.7790	34.6270
 1.7800	34.6040
 1.7810	34.5860
 1.7820	34.5680
 1.7830	34.5540
 1.7840	34.5390
 1.7850	34.5240
 1.7860	34.5130
 1.7870	34.5030
 1.7880	34.4980
 1.7890	34.4950
 1.7900	34.4900
 1.7910	34.4890
 1.7920	34.4910
 1.7930	34.4940
 1.7940	34.4980
 1.7950	34.5040
 1.7960	34.5100
 1.7970	34.5170
 1.7980	34.5280
 1.7990	34.5370
 1.8000	34.5460
 1.8010	34.5550
 1.8020	34.5650
 1.8030	34.5760
 1.8040	34.5890
 1.8050	34.6010
 1.8060	34.6130
 1.8070	34.6230
 1.8080	34.6330
 1.8090	34.6440
 1.8100	34.6570
 1.8110	34.6660
 1.8120	34.6730
 1.8130	34.6770
 1.8140	34.6800
 1.8150	34.6870
 1.8160	34.6940
 1.8170	34.6980
 1.8180	34.7010
 1.8190	34.7020
 1.8200	34.7030
 1.8210	34.7050
 1.8220	34.7040
 1.8230	34.6990
 1.8240	34.6950
 1.8250	34.6870
 1.8260	34.6790
 1.8270	34.6700
 1.8280	34.6590
 1.8290	34.6460
 1.8300	34.6300
 1.8310	34.3830
 1.8320	34.3530
 1.8330	34.3200
 1.8340	34.2840
 1.8350	34.2480
 1.8360	34.2130
 1.8370	34.1690
 1.8380	34.1200
 1.8390	34.0650
 1.8400	34.0000
 1.8410	33.9320
 1.8420	33.8600
 1.8430	33.7810
 1.8440	33.6920
 1.8450	33.6030
 1.8460	33.5020
 1.8470	33.3890
 1.8480	33.2690
 1.8490	33.1360
 1.8500	32.9940
 1.8510	32.8420
 1.8520	32.6820
 1.8530	32.5090
 1.8540	32.3250
 1.8550	32.1260
 1.8560	31.9120
 1.8570	31.6830
 1.8580	31.4390
 1.8590	31.1810
 1.8600	30.9110
 1.8610	30.6240
 1.8620	30.3170
 1.8630	29.9950
 1.8640	29.6550
 1.8650	29.2950
 1.8660	28.9170
 1.8670	28.5190
 1.8680	28.1030
 1.8690	27.6690
 1.8700	27.2170
 1.8710	26.7470
 1.8720	26.2660
 1.8730	25.7690
 1.8740	25.2610
 1.8750	24.7470
 1.8760	24.2180
 1.8770	23.6840
 1.8780	23.1490
 1.8790	22.6060
 1.8800	22.0740
 1.8810	21.5470
 1.8820	21.0260
 1.8830	20.5050
 1.8840	19.9940
 1.8850	19.4880
 1.8860	18.9950
 1.8870	18.5210
 1.8880	18.0630
 1.8890	17.6290
 1.8900	17.2160
 1.8910	16.8250
 1.8920	16.4520
 1.8930	16.1100
 1.8940	15.7900
 1.8950	15.4960
 1.8960	15.2280
 1.8970	14.9800
 1.8980	14.7560
 1.8990	14.5530
 1.9000	14.3660
 1.9010	14.2020
 1.9020	14.0520
 1.9030	13.9220
 1.9040	13.8060
 1.9050	13.7080
 1.9060	13.6200
 1.9070	13.5440
 1.9080	13.4770
 1.9090	13.4140
 1.9100	13.3610
 1.9110	13.3130
 1.9120	13.2720
 1.9130	13.2360
 1.9140	13.2060
 1.9150	13.1810
 1.9160	13.1610
 1.9170	13.1450
 1.9180	13.1300
 1.9190	13.1170
 1.9200	13.1010
 1.9210	13.0880
 1.9220	13.0810
 1.9230	13.0800
 1.9240	13.0790
 1.9250	13.0830
 1.9260	13.0870
 1.9270	13.0860
 1.9280	13.0870
 1.9290	13.0940
 1.9300	13.1000
 1.9310	13.1100
 1.9320	13.1210
 1.9330	13.1300
 1.9340	13.1360
 1.9350	13.1480
 1.9360	13.1600
 1.9370	13.1760
 1.9380	13.1970
 1.9390	13.2170
 1.9400	13.2360
 1.9410	13.2620
 1.9420	13.2840
 1.9430	13.3060
 1.9440	13.3290
 1.9450	13.3500
 1.9460	13.3740
 1.9470	13.4010
 1.9480	13.4290
 1.9490	13.4560
 1.9500	13.4870
 1.9510	13.5200
 1.9520	13.5510
 1.9530	13.5850
 1.9540	13.6200
 1.9550	13.6560
 1.9560	13.6920
 1.9570	13.7290
 1.9580	13.7670
 1.9590	13.8050
 1.9600	13.8440
 1.9610	13.8840
 1.9620	13.9270
 1.9630	13.9690
 1.9640	14.0120
 1.9650	14.0580
 1.9660	14.1070
 1.9670	14.1550
 1.9680	14.2020
 1.9690	14.2500
 1.9700	14.2970
 1.9710	14.3430
 1.9720	14.3930
 1.9730	14.4450
 1.9740	14.4980
 1.9750	14.5540
 1.9760	14.6100
 1.9770	14.6670
 1.9780	14.7250
 1.9790	14.7820
 1.9800	14.8390
 1.9810	14.8980
 1.9820	14.9570
 1.9830	15.0190
 1.9840	15.0820
 1.9850	15.1460
 1.9860	15.2090
 1.9870	15.2740
 1.9880	15.3380
 1.9890	15.4040
 1.9900	15.4710
 1.9910	15.5400
 1.9920	15.6100
 1.9930	15.6830
 1.9940	15.7550
 1.9950	15.8300
 1.9960	15.9020
 1.9970	15.9740
 1.9980	16.0460
 1.9990	16.1180
 2.0000	16.1880
 2.0010	16.2640
 2.0020	16.3390
 2.0030	16.4120
 2.0040	16.4890
 2.0050	16.5650
 2.0060	16.6390
 2.0070	16.7150
 2.0080	16.7920
 2.0090	16.8690
 2.0100	16.9460
 2.0110	17.0240
 2.0120	17.1030
 2.0130	17.1830
 2.0140	17.2620
 2.0150	17.3410
 2.0160	17.4160
 2.0170	17.4920
 2.0180	17.5700
 2.0190	17.6480
 2.0200	17.7250
 2.0210	17.8050
 2.0220	17.8840
 2.0230	17.9630
 2.0240	18.0420
 2.0250	18.1220
 2.0260	18.2000
 2.0270	18.2740
 2.0280	18.3490
 2.0290	18.4230
 2.0300	18.4960
 2.0310	18.5690
 2.0320	18.6420
 2.0330	18.7160
 2.0340	18.7900
 2.0350	18.8640
 2.0360	18.9380
 2.0370	19.0120
 2.0380	19.0880
 2.0390	19.1610
 2.0400	19.2330
 2.0410	19.3050
 2.0420	19.3740
 2.0430	19.4420
 2.0440	19.5130
 2.0450	19.5860
 2.0460	19.6560
 2.0470	19.7260
 2.0480	19.7950
 2.0490	19.8610
 2.0500	19.9300
 2.0510	20.0010
 2.0520	20.0720
 2.0530	20.1420
 2.0540	20.2140
 2.0550	20.2860
 2.0560	20.3570
 2.0570	20.4290
 2.0580	20.5030
 2.0590	20.5770
 2.0600	20.6500
 2.0610	20.7250
 2.0620	20.8020
 2.0630	20.8770
 2.0640	20.9510
 2.0650	21.0260
 2.0660	21.1010
 2.0670	21.1780
 2.0680	21.2570
 2.0690	21.3350
 2.0700	21.4160
 2.0710	21.4950
 2.0720	21.5760
 2.0730	21.6530
 2.0740	21.7300
 2.0750	21.8040
 2.0760	21.8810
 2.0770	21.9590
 2.0780	22.0360
 2.0790	22.1150
 2.0800	22.1910
 2.0810	22.2650
 2.0820	22.3400
 2.0830	22.4150
 2.0840	22.4910
 2.0850	22.5700
 2.0860	22.6470
 2.0870	22.7260
 2.0880	22.8050
 2.0890	22.8790
 2.0900	22.9510
 2.0910	23.0220
 2.0920	23.0900
 2.0930	23.1600
 2.0940	23.2330
 2.0950	23.3040
 2.0960	23.3760
 2.0970	23.4470
 2.0980	23.5170
 2.0990	23.5880
 2.1000	23.6590
 2.1010	23.7310
 2.1020	23.8060
 2.1030	23.8780
 2.1040	23.9450
 2.1050	24.0170
 2.1060	24.0870
 2.1070	24.1540
 2.1080	24.2210
 2.1090	24.2890
 2.1100	24.3560
 2.1110	24.4190
 2.1120	24.4880
 2.1130	24.5610
 2.1140	24.6310
 2.1150	24.7020
 2.1160	24.7710
 2.1170	24.8360
 2.1180	24.9010
 2.1190	24.9650
 2.1200	25.0290
 2.1210	25.0940
 2.1220	25.1590
 2.1230	25.2210
 2.1240	25.2840
 2.1250	25.3450
 2.1260	25.4030
 2.1270	25.4600
 2.1280	25.5180
 2.1290	25.5740
 2.1300	25.6280
 2.1310	25.6810
 2.1320	25.7350
 2.1330	25.7850
 2.1340	25.8330
 2.1350	25.8790
 2.1360	25.9200
 2.1370	25.9650
 2.1380	26.0100
 2.1390	26.0540
 2.1400	26.0990
 2.1410	26.1420
 2.1420	26.1830
 2.1430	26.2190
 2.1440	26.2580
 2.1450	26.2970
 2.1460	26.3330
 2.1470	26.3690
 2.1480	26.4030
 2.1490	26.4340
 2.1500	26.4650
 2.1510	26.4950
 2.1520	26.5250
 2.1530	26.5530
 2.1540	26.5800
 2.1550	26.6070
 2.1560	26.6340
 2.1570	26.6620
 2.1580	26.6860
 2.1590	26.7110
 2.1600	26.7310
 2.1610	26.7460
 2.1620	26.7660
 2.1630	26.7860
 2.1640	26.8050
 2.1650	26.8240
 2.1660	26.8440
 2.1670	26.8630
 2.1680	26.8790
 2.1690	26.8980
 2.1700	26.9190
 2.1710	26.9380
 2.1720	26.9570
 2.1730	26.9780
 2.1740	26.9990
 2.1750	27.0190
 2.1760	27.0380
 2.1770	27.0600
 2.1780	27.0840
 2.1790	27.1080
 2.1800	27.1400
 2.1810	27.1670
 2.1820	27.1940
 2.1830	27.2180
 2.1840	27.2430
 2.1850	27.2670
 2.1860	27.2910
 2.1870	27.3150
 2.1880	27.3380
 2.1890	27.3610
 2.1900	27.3840
 2.1910	27.4080
 2.1920	27.4320
 2.1930	27.4590
 2.1940	27.4810
 2.1950	27.5020
 2.1960	27.5220
 2.1970	27.5350
 2.1980	27.5530
 2.1990	27.5760
 2.2000	27.5940
 2.2010	27.6120
 2.2020	27.6290
 2.2030	27.6450
 2.2040	27.6600
 2.2050	27.6740
 2.2060	27.6920
 2.2070	27.7060
 2.2080	27.7180
 2.2090	27.7300
 2.2100	27.7410
 2.2110	27.7510
 2.2120	27.7600
 2.2130	27.7660
 2.2140	27.7690
 2.2150	27.7730
 2.2160	27.7740
 2.2170	27.7770
 2.2180	27.7820
 2.2190	27.7850
 2.2200	27.7880
 2.2210	27.7890
 2.2220	27.7880
 2.2230	27.7870
 2.2240	27.7890
 2.2250	27.7860
 2.2260	27.7830
 2.2270	27.7760
 2.2280	27.7630
 2.2290	27.7510
 2.2300	27.7380
 2.2310	27.7220
 2.2320	27.7040
 2.2330	27.6830
 2.2340	27.6580
 2.2350	27.6280
 2.2360	27.5960
 2.2370	27.5600
 2.2380	27.5230
 2.2390	27.4810
 2.2400	27.4440
 2.2410	27.4060
 2.2420	27.3690
 2.2430	27.3340
 2.2440	27.2970
 2.2450	27.2600
 2.2460	27.2210
 2.2470	27.1820
 2.2480	27.1440
 2.2490	27.1030
 2.2500	27.0680
 2.2510	27.0370
 2.2520	27.0060
 2.2530	26.9830
 2.2540	26.9510
 2.2550	26.9140
 2.2560	26.8760
 2.2570	26.8270
 2.2580	26.7840
 2.2590	26.7430
 2.2600	26.6990
 2.2610	26.6530
 2.2620	26.6100
 2.2630	26.5580
 2.2640	26.5080
 2.2650	26.4570
 2.2660	26.4070
 2.2670	26.3590
 2.2680	26.3140
 2.2690	26.2710
 2.2700	26.2320
 2.2710	26.1890
 2.2720	26.1450
 2.2730	26.1030
 2.2740	26.0600
 2.2750	26.0160
 2.2760	25.9750
 2.2770	25.9310
 2.2780	25.8840
 2.2790	25.8400
 2.2800	25.7990
 2.2810	25.7590
 2.2820	25.7200
 2.2830	25.6830
 2.2840	25.6490
 2.2850	25.6120
 2.2860	25.5770
 2.2870	25.5400
 2.2880	25.4980
 2.2890	25.4600
 2.2900	25.4210
 2.2910	25.3830
 2.2920	25.3480
 2.2930	25.3090
 2.2940	25.2700
 2.2950	25.2280
 2.2960	25.1830
 2.2970	25.1380
 2.2980	25.0880
 2.2990	25.0400
 2.3000	24.9950
 2.3010	24.9530
 2.3020	24.9090
 2.3030	24.8650
 2.3040	24.8240
 2.3050	24.7840
 2.3060	24.7460
 2.3070	24.7110
 2.3080	24.6790
 2.3090	24.6410
 2.3100	24.6070
 2.3110	24.5820
 2.3120	24.5580
 2.3130	24.5370
 2.3140	24.5200
 2.3150	24.5110
 2.3160	24.4930
 2.3170	24.4710
 2.3180	24.4530
 2.3190	24.4320
 2.3200	24.4150
 2.3210	24.4050
 2.3220	24.3830
 2.3230	24.3580
 2.3240	24.3300
 2.3250	24.2940
 2.3260	24.2590
 2.3270	24.2210
 2.3280	24.1870
 2.3290	24.1500
 2.3300	24.1200
 2.3310	24.0970
 2.3320	24.0680
 2.3330	24.0410
 2.3340	24.0090
 2.3350	23.9700
 2.3360	23.9340
 2.3370	23.9020
 2.3380	23.8650
 2.3390	23.8280
 2.3400	23.7870
 2.3410	23.7380
 2.3420	23.6950
 2.3430	23.6530
 2.3440	23.6110
 2.3450	23.5690
 2.3460	23.5330
 2.3470	23.5030
 2.3480	23.4690
 2.3490	23.4400
 2.3500	23.4050
 2.3510	23.3580
 2.3520	23.3230
 2.3530	23.2960
 2.3540	23.2650
 2.3550	23.2410
 2.3560	23.2130
 2.3570	23.1840
 2.3580	23.1590
 2.3590	23.1260
 2.3600	23.1060
 2.3610	23.0820
 2.3620	23.0460
 2.3630	23.0240
 2.3640	22.9900
 2.3650	22.9510
 2.3660	22.9210
 2.3670	22.8790
 2.3680	22.8350
 2.3690	22.7940
 2.3700	22.7560
 2.3710	22.7210
 2.3720	22.6950
 2.3730	22.6770
 2.3740	22.6500
 2.3750	22.6200
 2.3760	22.5880
 2.3770	22.5460
 2.3780	22.5110
 2.3790	22.4780
 2.3800	22.4420
 2.3810	22.3960
 2.3820	22.3440
 2.3830	22.2980
 2.3840	22.2560
 2.3850	22.2230
 2.3860	22.1970
 2.3870	22.1660
 2.3880	22.1280
 2.3890	22.0900
 2.3900	22.0570
 2.3910	22.0290
 2.3920	22.0020
 2.3930	21.9780
 2.3940	21.9560
 2.3950	21.9270
 2.3960	21.8950
 2.3970	21.8590
 2.3980	21.8080
 2.3990	21.7510
 2.4000	21.7040
 2.4010	21.6630
 2.4020	21.6310
 2.4030	21.6150
 2.4040	21.5930
 2.4050	21.5770
 2.4060	21.5610
 2.4070	21.5270
 2.4080	21.4930
 2.4090	21.4530
 2.4100	21.4130
 2.4110	21.3850
 2.4120	21.3660
 2.4130	21.3450
 2.4140	21.3040
 2.4150	21.2480
 2.4160	21.1910
 2.4170	21.1480
 2.4180	21.1230
 2.4190	21.1110
 2.4200	21.0910
 2.4210	21.0700
 2.4220	21.0410
 2.4230	20.9910
 2.4240	20.9680
 2.4250	20.9350
 2.4260	20.8960
 2.4270	20.8810
 2.4280	20.8330
 2.4290	20.7840
 2.4300	20.7450
 2.4310	20.7010
 2.4320	20.6720
 2.4330	20.6350
 2.4340	20.6030
 2.4350	20.5800
 2.4360	20.5540
 2.4370	20.5200
 2.4380	20.4820
 2.4390	20.4700
 2.4400	20.4480
 2.4410	20.4370
 2.4420	20.4380
 2.4430	20.3880
 2.4440	20.3480
 2.4450	20.3060
 2.4460	20.2680
 2.4470	20.2660
 2.4480	20.2490
 2.4490	20.2370
 2.4500	20.2320
 2.4510	20.1950
 2.4520	20.1450
 2.4530	20.1140
 2.4540	20.0700
 2.4550	20.0240
 2.4560	20.0020
 2.4570	19.9850
 2.4580	19.9830
 2.4590	19.9770
 2.4600	19.9720
 2.4610	19.9570
 2.4620	19.9090
 2.4630	19.8730
 2.4640	19.8370
 2.4650	19.7950
 2.4660	19.7540
 2.4670	19.7060
 2.4680	19.6610
 2.4690	19.6480
 2.4700	19.6390
 2.4710	19.6540
 2.4720	19.6590
 2.4730	19.6530
 2.4740	19.6430
 2.4750	19.6380
 2.4760	19.6340
 2.4770	19.6270
 2.4780	19.6240
 2.4790	19.6210
 2.4800	19.6300
 2.4810	19.6470
 2.4820	19.6430
 2.4830	19.6670
 2.4840	19.6930
 2.4850	19.7210
 2.4860	19.7450
 2.4870	19.7160
 2.4880	19.6790
 2.4890	19.6310
 2.4900	19.6100
 2.4910	19.6210
 2.4920	19.6290
 2.4930	19.6450
 2.4940	19.6310
 2.4950	19.6450
 2.4960	19.6520
 2.4970	19.6310
 2.4980	19.6550
 2.4990	19.6570
 2.5000	19.6440
