Name: Salix babylonica
Type: vegetation
Class: Tree
Genus: Salix
Species: babylonica
Sample No.: JPL185
Owner: JPL
Wavelength Range: TIR
Origin: 34.12829; -118.11638; WGS84
Collection Date: 10/3/2016
Description: Samples were collected at the Huntington Garden in San Marino California as part of a JPL Subcontract studying HyTES imagery. Samples were taken to JPL and processed within 48 hours of collection. The same leaves were processed in the Nicolet and then measured using the ASD.
Measurement: Hemispherical reflectance
First Column: X
Second Column: Y
X Units: Wavelength (micrometer)
Y Units: Reflectance (percentage)
First X Value: 2.501
Last X Value: 15.387
Number of X Values: 1737
Additional Information: vegetation.tree.salix.babylonica.tir.jpl185.jpl.nicolet.ancillary.txt

 2.5010	 4.2550
 2.5030	 4.2290
 2.5040	 4.2090
 2.5050	 4.1460
 2.5060	 4.1220
 2.5070	 4.1220
 2.5090	 4.1760
 2.5100	 4.1370
 2.5110	 4.1030
 2.5120	 4.0340
 2.5140	 4.0020
 2.5150	 4.0040
 2.5160	 4.0550
 2.5170	 3.9900
 2.5180	 4.0330
 2.5200	 4.0690
 2.5210	 4.1450
 2.5220	 4.0970
 2.5230	 4.0360
 2.5250	 3.9930
 2.5260	 4.0130
 2.5270	 3.9750
 2.5280	 3.9580
 2.5300	 3.9860
 2.5310	 4.0040
 2.5320	 3.9500
 2.5330	 4.0160
 2.5340	 4.0050
 2.5360	 3.9860
 2.5370	 3.9450
 2.5380	 3.9520
 2.5390	 3.9350
 2.5410	 4.0480
 2.5420	 4.0200
 2.5430	 3.9680
 2.5440	 3.9610
 2.5460	 4.0120
 2.5470	 4.0020
 2.5480	 4.0130
 2.5490	 3.9700
 2.5510	 3.9450
 2.5520	 3.9210
 2.5530	 3.9510
 2.5540	 3.9590
 2.5560	 4.0290
 2.5570	 4.0230
 2.5580	 3.9890
 2.5590	 3.9060
 2.5610	 3.7920
 2.5620	 3.7050
 2.5630	 3.7640
 2.5650	 3.7570
 2.5660	 3.9100
 2.5670	 4.0090
 2.5680	 3.9640
 2.5700	 3.8820
 2.5710	 3.9370
 2.5720	 3.9320
 2.5730	 3.7420
 2.5750	 3.7300
 2.5760	 3.8280
 2.5770	 3.7760
 2.5790	 3.8600
 2.5800	 3.9210
 2.5810	 3.8600
 2.5820	 3.7670
 2.5840	 3.6450
 2.5850	 3.6230
 2.5860	 3.7590
 2.5880	 3.6760
 2.5890	 3.7450
 2.5900	 3.7950
 2.5910	 3.8460
 2.5930	 3.7490
 2.5940	 3.4550
 2.5950	 3.1890
 2.5970	 3.4700
 2.5980	 3.7810
 2.5990	 3.9000
 2.6010	 3.7900
 2.6020	 3.6960
 2.6030	 3.6000
 2.6040	 3.5470
 2.6060	 3.4550
 2.6070	 3.5470
 2.6080	 3.5800
 2.6100	 3.5970
 2.6110	 3.6230
 2.6120	 3.6430
 2.6140	 3.5590
 2.6150	 3.6030
 2.6160	 3.4790
 2.6180	 3.4090
 2.6190	 3.4320
 2.6200	 3.3290
 2.6220	 3.3540
 2.6230	 3.5330
 2.6240	 3.5110
 2.6260	 3.4640
 2.6270	 3.2720
 2.6280	 3.2990
 2.6300	 3.2370
 2.6310	 3.1270
 2.6320	 3.2520
 2.6340	 3.3720
 2.6350	 3.3880
 2.6360	 3.4340
 2.6380	 3.3920
 2.6390	 3.4230
 2.6400	 3.3860
 2.6420	 3.3560
 2.6430	 3.2970
 2.6440	 3.2630
 2.6460	 3.1660
 2.6470	 3.1330
 2.6480	 3.1380
 2.6500	 3.1680
 2.6510	 3.1500
 2.6520	 3.0780
 2.6540	 3.0170
 2.6550	 3.0480
 2.6570	 3.0030
 2.6580	 3.0840
 2.6590	 3.0340
 2.6610	 3.0180
 2.6620	 2.9750
 2.6630	 2.9710
 2.6650	 2.7440
 2.6660	 2.6160
 2.6670	 2.6600
 2.6690	 2.7920
 2.6700	 2.6330
 2.6720	 2.6040
 2.6730	 2.7930
 2.6740	 2.8620
 2.6760	 2.7940
 2.6770	 2.7270
 2.6780	 2.6960
 2.6800	 2.7460
 2.6810	 2.8330
 2.6830	 2.9020
 2.6840	 2.8350
 2.6850	 2.8240
 2.6870	 2.8170
 2.6880	 2.8020
 2.6900	 2.7970
 2.6910	 2.8870
 2.6920	 2.8490
 2.6940	 2.7530
 2.6950	 2.6710
 2.6970	 2.7140
 2.6980	 2.7890
 2.6990	 2.8790
 2.7010	 2.8210
 2.7020	 2.8070
 2.7040	 2.8010
 2.7050	 2.7940
 2.7060	 2.8090
 2.7080	 2.8740
 2.7090	 2.7390
 2.7110	 2.6360
 2.7120	 2.6330
 2.7130	 2.7580
 2.7150	 2.7790
 2.7160	 2.8240
 2.7180	 2.7800
 2.7190	 2.6890
 2.7210	 2.4960
 2.7220	 2.5920
 2.7230	 2.6640
 2.7250	 2.5860
 2.7260	 2.6230
 2.7280	 2.7700
 2.7290	 2.7590
 2.7310	 2.7970
 2.7320	 2.7980
 2.7340	 2.7490
 2.7350	 2.6360
 2.7360	 2.7100
 2.7380	 2.7150
 2.7390	 2.5720
 2.7410	 2.5280
 2.7420	 2.6730
 2.7440	 2.7500
 2.7450	 2.8140
 2.7470	 2.8000
 2.7480	 2.7670
 2.7490	 2.6840
 2.7510	 2.7180
 2.7520	 2.7180
 2.7540	 2.6690
 2.7550	 2.4460
 2.7570	 2.5180
 2.7580	 2.7060
 2.7600	 2.7730
 2.7610	 2.7190
 2.7630	 2.6660
 2.7640	 2.6340
 2.7660	 2.7810
 2.7670	 2.7630
 2.7690	 2.7270
 2.7700	 2.7290
 2.7720	 2.6770
 2.7730	 2.6740
 2.7740	 2.7680
 2.7760	 2.7350
 2.7770	 2.7340
 2.7790	 2.7900
 2.7800	 2.8130
 2.7820	 2.6950
 2.7830	 2.7280
 2.7850	 2.7300
 2.7860	 2.6670
 2.7880	 2.5950
 2.7890	 2.6960
 2.7910	 2.7590
 2.7920	 2.7720
 2.7940	 2.7210
 2.7950	 2.7340
 2.7970	 2.7480
 2.7980	 2.7790
 2.8000	 2.6970
 2.8010	 2.6670
 2.8030	 2.5980
 2.8040	 2.6540
 2.8060	 2.7360
 2.8080	 2.7730
 2.8090	 2.7550
 2.8110	 2.7650
 2.8120	 2.7310
 2.8140	 2.7790
 2.8150	 2.7930
 2.8170	 2.8400
 2.8180	 2.8280
 2.8200	 2.8020
 2.8210	 2.6970
 2.8230	 2.6980
 2.8240	 2.7110
 2.8260	 2.7660
 2.8270	 2.7740
 2.8290	 2.8090
 2.8310	 2.7660
 2.8320	 2.7150
 2.8340	 2.6600
 2.8350	 2.7660
 2.8370	 2.8060
 2.8380	 2.7980
 2.8400	 2.7630
 2.8410	 2.7760
 2.8430	 2.7330
 2.8440	 2.7560
 2.8460	 2.7550
 2.8480	 2.7950
 2.8490	 2.7430
 2.8510	 2.7390
 2.8520	 2.7100
 2.8540	 2.7370
 2.8550	 2.7480
 2.8570	 2.8100
 2.8590	 2.7950
 2.8600	 2.8080
 2.8620	 2.8290
 2.8630	 2.8820
 2.8650	 2.8510
 2.8660	 2.8290
 2.8680	 2.7770
 2.8700	 2.8140
 2.8710	 2.8000
 2.8730	 2.8160
 2.8740	 2.7930
 2.8760	 2.8040
 2.8780	 2.7920
 2.8790	 2.8080
 2.8810	 2.7530
 2.8820	 2.8460
 2.8840	 2.8980
 2.8860	 2.9090
 2.8870	 2.8310
 2.8890	 2.8470
 2.8900	 2.8630
 2.8920	 2.8450
 2.8940	 2.8210
 2.8950	 2.8830
 2.8970	 2.8670
 2.8990	 2.8460
 2.9000	 2.7780
 2.9020	 2.7970
 2.9030	 2.7970
 2.9050	 2.8750
 2.9070	 2.8390
 2.9080	 2.8380
 2.9100	 2.8760
 2.9120	 2.8850
 2.9130	 2.8070
 2.9150	 2.8080
 2.9160	 2.7920
 2.9180	 2.8620
 2.9200	 2.8300
 2.9210	 2.8750
 2.9230	 2.8970
 2.9250	 2.9090
 2.9260	 2.8770
 2.9280	 2.9080
 2.9300	 2.8880
 2.9310	 2.9680
 2.9330	 2.9250
 2.9350	 2.9070
 2.9360	 2.8460
 2.9380	 2.8250
 2.9400	 2.8070
 2.9410	 2.8970
 2.9430	 2.9080
 2.9450	 2.9370
 2.9460	 2.9530
 2.9480	 3.0050
 2.9500	 2.9200
 2.9510	 2.8480
 2.9530	 2.8260
 2.9550	 2.9020
 2.9560	 2.9040
 2.9580	 2.9200
 2.9600	 2.8800
 2.9610	 2.8670
 2.9630	 2.8700
 2.9650	 2.9670
 2.9670	 2.9250
 2.9680	 2.9060
 2.9700	 2.8970
 2.9720	 2.9270
 2.9730	 2.8940
 2.9750	 2.9110
 2.9770	 2.8600
 2.9780	 2.8660
 2.9800	 2.8880
 2.9820	 2.9580
 2.9840	 2.9160
 2.9850	 2.9010
 2.9870	 2.8480
 2.9890	 2.8820
 2.9900	 2.8660
 2.9920	 2.8610
 2.9940	 2.8450
 2.9960	 2.8740
 2.9970	 2.8450
 2.9990	 2.8680
 3.0010	 2.8430
 3.0030	 2.8790
 3.0040	 2.8830
 3.0060	 2.8900
 3.0080	 2.8990
 3.0100	 2.9550
 3.0110	 2.8810
 3.0130	 2.8420
 3.0150	 2.8560
 3.0170	 2.9330
 3.0180	 2.9070
 3.0200	 2.9080
 3.0220	 2.8670
 3.0240	 2.8580
 3.0250	 2.8310
 3.0270	 2.8530
 3.0290	 2.8250
 3.0310	 2.8610
 3.0320	 2.8650
 3.0340	 2.9110
 3.0360	 2.8950
 3.0380	 2.9110
 3.0400	 2.8740
 3.0410	 2.8290
 3.0430	 2.7670
 3.0450	 2.7500
 3.0470	 2.7710
 3.0480	 2.8310
 3.0500	 2.8370
 3.0520	 2.8830
 3.0540	 2.8480
 3.0560	 2.8550
 3.0570	 2.8670
 3.0590	 2.8890
 3.0610	 2.8790
 3.0630	 2.8950
 3.0650	 2.8640
 3.0670	 2.8540
 3.0680	 2.8400
 3.0700	 2.8890
 3.0720	 2.8520
 3.0740	 2.8570
 3.0760	 2.8510
 3.0770	 2.8960
 3.0790	 2.8780
 3.0810	 2.8660
 3.0830	 2.7900
 3.0850	 2.8190
 3.0870	 2.8360
 3.0880	 2.8450
 3.0900	 2.7950
 3.0920	 2.8190
 3.0940	 2.8210
 3.0960	 2.7910
 3.0980	 2.7650
 3.1000	 2.8170
 3.1010	 2.8100
 3.1030	 2.8530
 3.1050	 2.8290
 3.1070	 2.8090
 3.1090	 2.8030
 3.1110	 2.8230
 3.1130	 2.7850
 3.1140	 2.8040
 3.1160	 2.7700
 3.1180	 2.7770
 3.1200	 2.7850
 3.1220	 2.7960
 3.1240	 2.7540
 3.1260	 2.7880
 3.1280	 2.7640
 3.1290	 2.7830
 3.1310	 2.8330
 3.1330	 2.8880
 3.1350	 2.8100
 3.1370	 2.7870
 3.1390	 2.7430
 3.1410	 2.7100
 3.1430	 2.6920
 3.1450	 2.7680
 3.1470	 2.8060
 3.1480	 2.8230
 3.1500	 2.7670
 3.1520	 2.7700
 3.1540	 2.7590
 3.1560	 2.7780
 3.1580	 2.7590
 3.1600	 2.7790
 3.1620	 2.7580
 3.1640	 2.7570
 3.1660	 2.7200
 3.1680	 2.7670
 3.1700	 2.7340
 3.1720	 2.6870
 3.1730	 2.6490
 3.1750	 2.7410
 3.1770	 2.7730
 3.1790	 2.7740
 3.1810	 2.7510
 3.1830	 2.7750
 3.1850	 2.7450
 3.1870	 2.7500
 3.1890	 2.7260
 3.1910	 2.7410
 3.1930	 2.6980
 3.1950	 2.7590
 3.1970	 2.7310
 3.1990	 2.6920
 3.2010	 2.6730
 3.2030	 2.7420
 3.2050	 2.7060
 3.2070	 2.6610
 3.2090	 2.6690
 3.2110	 2.7080
 3.2130	 2.7370
 3.2150	 2.7200
 3.2170	 2.6580
 3.2190	 2.6460
 3.2210	 2.6490
 3.2230	 2.6950
 3.2250	 2.6940
 3.2270	 2.6910
 3.2290	 2.6890
 3.2310	 2.7070
 3.2330	 2.6770
 3.2350	 2.6870
 3.2370	 2.6620
 3.2390	 2.6300
 3.2410	 2.6090
 3.2430	 2.6520
 3.2450	 2.6470
 3.2470	 2.6420
 3.2490	 2.6570
 3.2510	 2.6910
 3.2530	 2.6600
 3.2550	 2.6600
 3.2570	 2.6740
 3.2590	 2.6950
 3.2610	 2.6810
 3.2630	 2.7400
 3.2650	 2.7090
 3.2670	 2.6530
 3.2700	 2.6430
 3.2720	 2.6760
 3.2740	 2.6650
 3.2760	 2.6320
 3.2780	 2.5870
 3.2800	 2.6420
 3.2820	 2.6280
 3.2840	 2.6320
 3.2860	 2.6110
 3.2880	 2.6010
 3.2900	 2.6040
 3.2920	 2.6290
 3.2940	 2.5920
 3.2970	 2.5760
 3.2990	 2.5560
 3.3010	 2.5810
 3.3030	 2.5750
 3.3050	 2.5960
 3.3070	 2.5860
 3.3090	 2.6150
 3.3110	 2.6260
 3.3130	 2.6200
 3.3160	 2.6140
 3.3180	 2.6460
 3.3200	 2.6210
 3.3220	 2.5990
 3.3240	 2.5240
 3.3260	 2.4950
 3.3280	 2.4740
 3.3300	 2.4990
 3.3330	 2.5020
 3.3350	 2.5280
 3.3370	 2.5450
 3.3390	 2.5500
 3.3410	 2.5090
 3.3430	 2.5050
 3.3450	 2.4530
 3.3480	 2.4530
 3.3500	 2.4530
 3.3520	 2.4400
 3.3540	 2.4270
 3.3560	 2.4510
 3.3580	 2.4290
 3.3610	 2.4330
 3.3630	 2.3760
 3.3650	 2.3730
 3.3670	 2.3720
 3.3690	 2.4160
 3.3720	 2.4190
 3.3740	 2.3650
 3.3760	 2.3000
 3.3780	 2.2970
 3.3800	 2.2540
 3.3830	 2.2810
 3.3850	 2.3010
 3.3870	 2.3030
 3.3890	 2.2760
 3.3910	 2.3110
 3.3940	 2.2960
 3.3960	 2.2790
 3.3980	 2.2430
 3.4000	 2.2830
 3.4030	 2.3530
 3.4050	 2.4280
 3.4070	 2.4040
 3.4090	 2.4450
 3.4110	 2.4980
 3.4140	 2.5880
 3.4160	 2.6890
 3.4180	 2.7870
 3.4200	 2.8960
 3.4230	 3.1360
 3.4250	 3.3420
 3.4270	 3.6070
 3.4300	 3.7730
 3.4320	 3.7410
 3.4340	 3.5190
 3.4360	 3.3700
 3.4390	 3.2690
 3.4410	 3.1930
 3.4430	 3.1750
 3.4450	 3.2010
 3.4480	 3.1190
 3.4500	 3.1240
 3.4520	 3.0930
 3.4550	 3.0550
 3.4570	 3.0230
 3.4590	 3.0230
 3.4620	 3.0130
 3.4640	 3.0210
 3.4660	 3.0060
 3.4690	 2.9900
 3.4710	 2.9380
 3.4730	 2.9380
 3.4760	 2.8810
 3.4780	 2.8630
 3.4800	 2.8560
 3.4830	 2.8340
 3.4850	 2.7530
 3.4870	 2.7340
 3.4900	 2.7250
 3.4920	 2.7230
 3.4940	 2.7160
 3.4970	 2.7550
 3.4990	 2.8160
 3.5010	 2.8960
 3.5040	 2.9620
 3.5060	 3.1320
 3.5080	 3.3880
 3.5110	 3.6320
 3.5130	 3.6460
 3.5160	 3.5240
 3.5180	 3.3870
 3.5200	 3.3110
 3.5230	 3.2290
 3.5250	 3.1910
 3.5280	 3.1670
 3.5300	 3.1450
 3.5320	 3.0810
 3.5350	 3.0700
 3.5370	 3.0530
 3.5400	 3.0740
 3.5420	 3.0290
 3.5440	 3.0260
 3.5470	 2.9930
 3.5490	 2.9940
 3.5520	 3.0140
 3.5540	 3.0170
 3.5570	 2.9630
 3.5590	 2.9870
 3.5610	 2.9900
 3.5640	 2.9830
 3.5660	 2.9680
 3.5690	 2.9460
 3.5710	 2.9130
 3.5740	 2.9420
 3.5760	 2.9630
 3.5790	 2.9800
 3.5810	 2.9240
 3.5840	 2.9250
 3.5860	 2.9510
 3.5890	 2.9660
 3.5910	 2.9390
 3.5940	 2.9390
 3.5960	 2.9180
 3.5990	 2.9150
 3.6010	 2.9250
 3.6040	 2.9320
 3.6060	 2.9140
 3.6090	 2.9240
 3.6110	 2.9070
 3.6140	 2.9010
 3.6160	 2.8930
 3.6190	 2.9350
 3.6210	 2.9390
 3.6240	 2.9350
 3.6260	 2.9200
 3.6290	 2.9140
 3.6310	 2.8860
 3.6340	 2.8980
 3.6360	 2.8810
 3.6390	 2.9000
 3.6410	 2.9220
 3.6440	 2.9450
 3.6470	 2.8970
 3.6490	 2.8840
 3.6520	 2.8910
 3.6540	 2.8850
 3.6570	 2.8440
 3.6590	 2.8670
 3.6620	 2.8800
 3.6650	 2.8720
 3.6670	 2.8710
 3.6700	 2.9110
 3.6720	 2.9040
 3.6750	 2.8990
 3.6780	 2.8730
 3.6800	 2.8950
 3.6830	 2.9240
 3.6850	 2.9320
 3.6880	 2.8910
 3.6910	 2.8700
 3.6930	 2.8840
 3.6960	 2.8970
 3.6990	 2.8670
 3.7010	 2.8590
 3.7040	 2.8620
 3.7070	 2.8930
 3.7090	 2.8750
 3.7120	 2.8600
 3.7150	 2.8690
 3.7170	 2.9080
 3.7200	 2.8910
 3.7230	 2.8820
 3.7250	 2.8700
 3.7280	 2.8770
 3.7310	 2.8810
 3.7330	 2.8940
 3.7360	 2.9020
 3.7390	 2.9170
 3.7410	 2.8820
 3.7440	 2.8930
 3.7470	 2.9120
 3.7490	 2.9270
 3.7520	 2.8950
 3.7550	 2.8720
 3.7580	 2.8540
 3.7600	 2.8870
 3.7630	 2.8960
 3.7660	 2.9200
 3.7690	 2.9030
 3.7710	 2.9050
 3.7740	 2.8900
 3.7770	 2.9140
 3.7790	 2.9010
 3.7820	 2.8970
 3.7850	 2.8810
 3.7880	 2.8830
 3.7910	 2.8890
 3.7930	 2.9060
 3.7960	 2.8920
 3.7990	 2.8940
 3.8020	 2.9210
 3.8040	 2.9450
 3.8070	 2.9420
 3.8100	 2.9790
 3.8130	 2.9600
 3.8160	 2.9240
 3.8180	 2.9160
 3.8210	 2.9260
 3.8240	 2.9000
 3.8270	 2.9010
 3.8300	 2.9130
 3.8330	 2.9210
 3.8350	 2.9060
 3.8380	 2.9290
 3.8410	 2.9460
 3.8440	 2.9580
 3.8470	 2.9370
 3.8500	 2.9360
 3.8520	 2.9080
 3.8550	 2.9410
 3.8580	 2.9370
 3.8610	 2.9040
 3.8640	 2.8950
 3.8670	 2.9330
 3.8700	 2.9380
 3.8730	 2.9160
 3.8760	 2.8900
 3.8780	 2.9470
 3.8810	 2.9580
 3.8840	 2.9530
 3.8870	 2.9250
 3.8900	 2.9420
 3.8930	 2.9630
 3.8960	 2.9560
 3.8990	 2.9630
 3.9020	 2.9810
 3.9050	 2.9550
 3.9080	 2.9350
 3.9110	 2.9050
 3.9140	 2.9290
 3.9170	 2.9400
 3.9190	 2.9640
 3.9220	 2.9550
 3.9250	 2.9740
 3.9280	 2.9440
 3.9310	 2.9480
 3.9340	 2.9630
 3.9370	 2.9650
 3.9400	 2.9330
 3.9430	 2.9400
 3.9460	 2.9440
 3.9490	 2.9370
 3.9520	 2.9330
 3.9550	 2.9790
 3.9580	 2.9850
 3.9610	 2.9880
 3.9640	 2.9720
 3.9670	 2.9620
 3.9700	 2.9420
 3.9740	 2.9250
 3.9770	 2.9120
 3.9800	 2.9470
 3.9830	 2.9600
 3.9860	 2.9490
 3.9890	 2.9380
 3.9920	 2.9580
 3.9950	 2.9560
 3.9980	 2.9820
 4.0010	 2.9760
 4.0040	 2.9360
 4.0070	 2.8860
 4.0100	 2.8950
 4.0140	 2.9120
 4.0170	 2.9350
 4.0200	 2.9420
 4.0230	 2.9490
 4.0260	 2.9120
 4.0290	 2.9030
 4.0320	 2.9140
 4.0350	 2.9440
 4.0390	 2.9220
 4.0420	 2.9290
 4.0450	 2.9290
 4.0480	 2.9270
 4.0510	 2.9300
 4.0540	 2.9470
 4.0570	 2.9690
 4.0610	 2.9770
 4.0640	 2.9420
 4.0670	 2.9550
 4.0700	 2.9520
 4.0730	 2.9110
 4.0770	 2.8850
 4.0800	 2.9390
 4.0830	 2.9600
 4.0860	 2.9180
 4.0890	 2.8910
 4.0930	 2.9210
 4.0960	 2.9050
 4.0990	 2.9080
 4.1020	 2.8930
 4.1060	 2.8990
 4.1090	 2.8950
 4.1120	 2.8820
 4.1150	 2.8860
 4.1190	 2.9030
 4.1220	 2.8920
 4.1250	 2.8810
 4.1290	 2.8730
 4.1320	 2.8530
 4.1350	 2.8210
 4.1380	 2.8500
 4.1420	 2.8640
 4.1450	 2.8590
 4.1480	 2.8470
 4.1520	 2.8510
 4.1550	 2.8590
 4.1580	 2.8950
 4.1620	 2.8940
 4.1650	 2.9000
 4.1680	 2.8960
 4.1720	 2.8710
 4.1750	 2.8570
 4.1780	 2.8520
 4.1820	 2.8380
 4.1850	 2.8400
 4.1890	 2.8150
 4.1920	 2.8180
 4.1950	 2.8240
 4.1990	 2.8280
 4.2020	 2.8230
 4.2060	 2.7920
 4.2090	 2.7760
 4.2120	 2.7670
 4.2160	 2.7360
 4.2190	 2.7470
 4.2230	 2.7040
 4.2260	 2.6600
 4.2300	 2.6400
 4.2330	 2.6520
 4.2360	 2.6790
 4.2400	 2.7200
 4.2430	 2.7150
 4.2470	 2.7690
 4.2500	 2.7410
 4.2540	 2.7180
 4.2570	 2.7920
 4.2610	 2.8120
 4.2640	 2.7280
 4.2680	 2.6980
 4.2710	 2.7000
 4.2750	 2.7060
 4.2780	 2.7050
 4.2820	 2.7650
 4.2850	 2.7670
 4.2890	 2.7010
 4.2930	 2.6850
 4.2960	 2.7190
 4.3000	 2.6560
 4.3030	 2.6650
 4.3070	 2.7240
 4.3100	 2.7420
 4.3140	 2.7130
 4.3180	 2.7100
 4.3210	 2.7080
 4.3250	 2.6960
 4.3280	 2.7100
 4.3320	 2.7470
 4.3360	 2.7360
 4.3390	 2.7310
 4.3430	 2.6990
 4.3470	 2.6930
 4.3500	 2.7130
 4.3540	 2.7100
 4.3580	 2.6890
 4.3610	 2.6880
 4.3650	 2.6820
 4.3690	 2.6920
 4.3720	 2.7180
 4.3760	 2.7390
 4.3800	 2.7110
 4.3830	 2.6700
 4.3870	 2.6830
 4.3910	 2.7090
 4.3940	 2.7040
 4.3980	 2.7160
 4.4020	 2.6910
 4.4060	 2.6810
 4.4090	 2.6840
 4.4130	 2.7010
 4.4170	 2.6970
 4.4210	 2.6770
 4.4240	 2.6690
 4.4280	 2.6860
 4.4320	 2.6990
 4.4360	 2.6730
 4.4400	 2.6380
 4.4430	 2.6500
 4.4470	 2.6840
 4.4510	 2.6790
 4.4550	 2.6710
 4.4590	 2.6950
 4.4630	 2.7020
 4.4660	 2.6920
 4.4700	 2.6760
 4.4740	 2.6820
 4.4780	 2.6640
 4.4820	 2.6410
 4.4860	 2.6570
 4.4900	 2.6390
 4.4930	 2.6290
 4.4970	 2.6420
 4.5010	 2.6420
 4.5050	 2.6410
 4.5090	 2.6240
 4.5130	 2.6190
 4.5170	 2.6010
 4.5210	 2.6040
 4.5250	 2.6160
 4.5290	 2.6080
 4.5330	 2.6120
 4.5370	 2.6330
 4.5410	 2.6160
 4.5450	 2.6040
 4.5490	 2.6050
 4.5530	 2.5970
 4.5570	 2.5930
 4.5610	 2.6170
 4.5650	 2.6110
 4.5690	 2.5830
 4.5730	 2.5830
 4.5770	 2.6020
 4.5810	 2.6100
 4.5850	 2.5860
 4.5890	 2.5810
 4.5930	 2.5920
 4.5970	 2.6070
 4.6010	 2.6090
 4.6050	 2.5600
 4.6090	 2.5420
 4.6130	 2.5790
 4.6170	 2.5620
 4.6220	 2.5560
 4.6260	 2.5690
 4.6300	 2.5850
 4.6340	 2.5790
 4.6380	 2.5570
 4.6420	 2.5500
 4.6460	 2.5380
 4.6510	 2.5280
 4.6550	 2.5230
 4.6590	 2.5170
 4.6630	 2.5520
 4.6670	 2.5920
 4.6720	 2.5950
 4.6760	 2.5560
 4.6800	 2.5360
 4.6840	 2.5300
 4.6880	 2.5250
 4.6930	 2.5500
 4.6970	 2.5540
 4.7010	 2.5380
 4.7050	 2.5200
 4.7100	 2.5080
 4.7140	 2.4880
 4.7180	 2.4890
 4.7230	 2.5120
 4.7270	 2.4990
 4.7310	 2.5200
 4.7360	 2.5170
 4.7400	 2.4990
 4.7440	 2.5050
 4.7490	 2.5140
 4.7530	 2.5090
 4.7570	 2.5020
 4.7620	 2.4730
 4.7660	 2.4680
 4.7700	 2.4660
 4.7750	 2.4820
 4.7790	 2.4790
 4.7840	 2.4900
 4.7880	 2.4910
 4.7920	 2.4860
 4.7970	 2.4810
 4.8010	 2.4700
 4.8060	 2.4620
 4.8100	 2.4210
 4.8150	 2.4160
 4.8190	 2.4630
 4.8240	 2.4730
 4.8280	 2.4680
 4.8330	 2.4730
 4.8370	 2.4760
 4.8420	 2.4620
 4.8460	 2.4650
 4.8510	 2.4760
 4.8550	 2.4580
 4.8600	 2.4000
 4.8640	 2.4090
 4.8690	 2.4450
 4.8740	 2.4820
 4.8780	 2.4550
 4.8830	 2.4240
 4.8870	 2.4360
 4.8920	 2.4440
 4.8970	 2.4300
 4.9010	 2.4380
 4.9060	 2.4220
 4.9100	 2.4290
 4.9150	 2.4250
 4.9200	 2.4180
 4.9240	 2.4180
 4.9290	 2.4330
 4.9340	 2.4340
 4.9390	 2.4180
 4.9430	 2.3770
 4.9480	 2.3710
 4.9530	 2.3960
 4.9570	 2.4260
 4.9620	 2.4200
 4.9670	 2.3910
 4.9720	 2.3730
 4.9760	 2.3800
 4.9810	 2.3680
 4.9860	 2.3830
 4.9910	 2.3730
 4.9960	 2.3600
 5.0000	 2.3790
 5.0050	 2.4010
 5.0100	 2.3840
 5.0150	 2.3680
 5.0200	 2.3490
 5.0250	 2.3610
 5.0300	 2.3520
 5.0340	 2.3770
 5.0390	 2.3860
 5.0440	 2.3570
 5.0490	 2.3330
 5.0540	 2.3440
 5.0590	 2.3490
 5.0640	 2.3630
 5.0690	 2.3390
 5.0740	 2.3110
 5.0790	 2.3260
 5.0840	 2.3490
 5.0890	 2.3720
 5.0940	 2.3620
 5.0990	 2.3500
 5.1040	 2.3870
 5.1090	 2.3670
 5.1140	 2.3570
 5.1190	 2.3280
 5.1240	 2.3160
 5.1290	 2.3070
 5.1340	 2.3080
 5.1390	 2.3010
 5.1440	 2.3140
 5.1490	 2.2910
 5.1550	 2.3010
 5.1600	 2.2980
 5.1650	 2.3230
 5.1700	 2.3310
 5.1750	 2.3250
 5.1800	 2.3000
 5.1850	 2.3110
 5.1910	 2.3090
 5.1960	 2.2890
 5.2010	 2.2680
 5.2060	 2.2750
 5.2110	 2.2570
 5.2170	 2.2960
 5.2220	 2.3200
 5.2270	 2.2870
 5.2330	 2.2540
 5.2380	 2.2810
 5.2430	 2.2810
 5.2480	 2.2840
 5.2540	 2.2800
 5.2590	 2.2920
 5.2640	 2.2720
 5.2700	 2.2570
 5.2750	 2.2290
 5.2800	 2.2310
 5.2860	 2.2400
 5.2910	 2.2360
 5.2970	 2.2340
 5.3020	 2.2320
 5.3080	 2.2100
 5.3130	 2.2190
 5.3180	 2.2110
 5.3240	 2.2210
 5.3290	 2.2050
 5.3350	 2.2170
 5.3400	 2.2240
 5.3460	 2.1680
 5.3510	 2.1150
 5.3570	 2.1820
 5.3620	 2.2170
 5.3680	 2.2320
 5.3740	 2.2070
 5.3790	 2.1710
 5.3850	 2.1430
 5.3900	 2.1920
 5.3960	 2.2100
 5.4010	 2.2070
 5.4070	 2.1610
 5.4130	 2.1310
 5.4180	 2.0570
 5.4240	 2.0430
 5.4300	 2.1140
 5.4350	 2.1730
 5.4410	 2.1440
 5.4470	 2.1320
 5.4530	 2.1040
 5.4580	 2.0910
 5.4640	 2.0220
 5.4700	 2.0740
 5.4760	 2.0790
 5.4810	 2.0420
 5.4870	 2.0720
 5.4930	 2.1060
 5.4990	 2.0790
 5.5050	 2.0890
 5.5110	 2.0910
 5.5160	 2.0620
 5.5220	 2.0160
 5.5280	 2.0260
 5.5340	 2.0340
 5.5400	 2.0240
 5.5460	 1.9620
 5.5520	 1.9200
 5.5580	 1.9350
 5.5640	 1.9780
 5.5700	 1.9410
 5.5760	 1.8650
 5.5820	 1.8200
 5.5880	 1.9180
 5.5940	 1.9740
 5.6000	 1.9340
 5.6060	 1.9120
 5.6120	 1.9100
 5.6180	 1.8620
 5.6240	 1.9080
 5.6300	 1.8950
 5.6360	 1.8140
 5.6420	 1.6590
 5.6490	 1.7290
 5.6550	 1.7850
 5.6610	 1.8180
 5.6670	 1.8250
 5.6730	 1.7600
 5.6800	 1.7210
 5.6860	 1.7560
 5.6920	 1.7000
 5.6980	 1.7140
 5.7050	 1.6530
 5.7110	 1.5670
 5.7170	 1.5460
 5.7230	 1.5760
 5.7300	 1.5500
 5.7360	 1.5780
 5.7420	 1.5800
 5.7490	 1.5860
 5.7550	 1.6490
 5.7620	 1.6670
 5.7680	 1.6480
 5.7740	 1.8300
 5.7810	 1.9510
 5.7870	 2.0580
 5.7940	 2.1220
 5.8000	 2.1820
 5.8070	 2.1990
 5.8130	 2.1820
 5.8200	 2.0490
 5.8260	 2.0610
 5.8330	 2.2000
 5.8390	 2.3530
 5.8460	 2.3830
 5.8530	 2.4090
 5.8590	 2.3690
 5.8660	 2.3630
 5.8730	 2.3460
 5.8790	 2.1480
 5.8860	 2.1380
 5.8930	 2.2330
 5.8990	 2.2200
 5.9060	 2.4260
 5.9130	 2.4570
 5.9190	 2.4090
 5.9260	 2.3490
 5.9330	 2.2310
 5.9400	 2.1580
 5.9470	 2.3510
 5.9530	 2.3800
 5.9600	 2.4040
 5.9670	 2.2760
 5.9740	 2.2730
 5.9810	 2.3150
 5.9880	 2.2980
 5.9950	 2.2890
 6.0020	 2.4350
 6.0090	 2.4340
 6.0160	 2.4300
 6.0230	 2.4490
 6.0300	 2.4950
 6.0370	 2.4080
 6.0440	 2.1940
 6.0510	 2.0310
 6.0580	 2.3120
 6.0650	 2.3530
 6.0720	 2.2400
 6.0790	 2.2850
 6.0860	 2.4820
 6.0930	 2.4910
 6.1010	 2.5050
 6.1080	 2.3920
 6.1150	 2.3050
 6.1220	 2.4550
 6.1290	 2.6170
 6.1370	 2.5810
 6.1440	 2.5530
 6.1510	 2.5160
 6.1580	 2.4520
 6.1660	 2.4820
 6.1730	 2.6120
 6.1800	 2.4730
 6.1880	 2.4240
 6.1950	 2.5860
 6.2030	 2.6500
 6.2100	 2.5770
 6.2180	 2.6420
 6.2250	 2.6610
 6.2320	 2.6790
 6.2400	 2.6610
 6.2480	 2.6960
 6.2550	 2.6540
 6.2630	 2.6600
 6.2700	 2.6260
 6.2780	 2.6450
 6.2850	 2.6290
 6.2930	 2.6430
 6.3010	 2.6520
 6.3080	 2.6840
 6.3160	 2.6100
 6.3240	 2.6310
 6.3310	 2.6180
 6.3390	 2.4700
 6.3470	 2.3830
 6.3550	 2.5570
 6.3620	 2.5400
 6.3700	 2.4640
 6.3780	 2.5260
 6.3860	 2.5740
 6.3940	 2.5030
 6.4020	 2.4660
 6.4100	 2.1010
 6.4180	 2.0100
 6.4260	 2.2190
 6.4340	 2.3170
 6.4420	 2.3390
 6.4500	 2.3710
 6.4580	 2.3660
 6.4660	 2.3810
 6.4740	 2.2470
 6.4820	 2.1920
 6.4900	 2.0330
 6.4980	 2.0390
 6.5060	 2.1750
 6.5140	 2.2340
 6.5230	 2.1930
 6.5310	 2.3080
 6.5390	 2.2750
 6.5470	 2.2330
 6.5560	 2.1200
 6.5640	 2.0960
 6.5720	 2.0050
 6.5800	 2.0910
 6.5890	 2.0930
 6.5970	 2.1090
 6.6060	 2.1800
 6.6140	 2.2130
 6.6230	 2.1400
 6.6310	 1.9810
 6.6390	 1.8820
 6.6480	 2.1440
 6.6570	 2.2640
 6.6650	 2.2740
 6.6740	 2.1690
 6.6820	 2.1400
 6.6910	 2.1890
 6.7000	 2.2470
 6.7080	 2.1210
 6.7170	 2.1200
 6.7260	 2.1380
 6.7340	 2.2360
 6.7430	 2.2210
 6.7520	 2.2210
 6.7610	 2.2030
 6.7690	 2.1290
 6.7780	 2.0090
 6.7870	 1.9770
 6.7960	 1.9650
 6.8050	 2.0980
 6.8140	 2.0970
 6.8230	 2.0720
 6.8320	 2.1090
 6.8410	 2.2550
 6.8500	 2.1760
 6.8590	 2.0260
 6.8680	 1.9890
 6.8770	 2.2200
 6.8860	 2.2270
 6.8960	 2.2810
 6.9050	 2.2770
 6.9140	 2.3480
 6.9230	 2.3370
 6.9320	 2.3880
 6.9420	 2.3890
 6.9510	 2.3380
 6.9600	 2.1870
 6.9700	 2.3600
 6.9790	 2.4320
 6.9880	 2.4660
 6.9980	 2.4790
 7.0070	 2.5570
 7.0170	 2.4670
 7.0260	 2.4690
 7.0360	 2.4050
 7.0450	 2.3010
 7.0550	 2.3290
 7.0650	 2.4990
 7.0740	 2.4910
 7.0840	 2.5210
 7.0940	 2.5060
 7.1030	 2.5290
 7.1130	 2.4330
 7.1230	 2.4220
 7.1330	 2.3760
 7.1420	 2.3310
 7.1520	 2.2640
 7.1620	 2.2890
 7.1720	 2.2560
 7.1820	 2.3670
 7.1920	 2.3600
 7.2020	 2.3190
 7.2120	 2.2840
 7.2220	 2.4090
 7.2320	 2.3680
 7.2420	 2.3880
 7.2520	 2.3370
 7.2620	 2.3690
 7.2730	 2.3310
 7.2830	 2.3930
 7.2930	 2.4080
 7.3030	 2.4190
 7.3140	 2.3910
 7.3240	 2.4430
 7.3340	 2.3710
 7.3450	 2.3770
 7.3550	 2.3690
 7.3660	 2.4650
 7.3760	 2.4320
 7.3870	 2.4800
 7.3970	 2.4250
 7.4080	 2.4220
 7.4180	 2.4170
 7.4290	 2.4890
 7.4400	 2.4850
 7.4500	 2.5210
 7.4610	 2.4530
 7.4720	 2.4660
 7.4830	 2.4360
 7.4930	 2.4910
 7.5040	 2.4400
 7.5150	 2.4780
 7.5260	 2.4740
 7.5370	 2.5180
 7.5480	 2.4440
 7.5590	 2.4760
 7.5700	 2.4560
 7.5810	 2.4610
 7.5920	 2.4000
 7.6030	 2.4520
 7.6140	 2.4110
 7.6260	 2.4480
 7.6370	 2.4090
 7.6480	 2.4410
 7.6590	 2.3740
 7.6710	 2.3890
 7.6820	 2.3430
 7.6940	 2.3960
 7.7050	 2.3270
 7.7160	 2.2910
 7.7280	 2.2100
 7.7390	 2.2450
 7.7510	 2.2280
 7.7630	 2.2990
 7.7740	 2.2700
 7.7860	 2.2870
 7.7980	 2.2410
 7.8090	 2.2880
 7.8210	 2.2700
 7.8330	 2.3380
 7.8450	 2.2900
 7.8570	 2.3240
 7.8690	 2.3200
 7.8810	 2.4550
 7.8930	 2.4340
 7.9050	 2.4960
 7.9170	 2.4570
 7.9290	 2.5210
 7.9410	 2.4600
 7.9530	 2.5360
 7.9650	 2.5390
 7.9780	 2.6150
 7.9900	 2.6110
 8.0020	 2.6750
 8.0150	 2.5880
 8.0270	 2.6050
 8.0390	 2.5810
 8.0520	 2.6760
 8.0640	 2.6380
 8.0770	 2.7300
 8.0900	 2.6780
 8.1020	 2.7150
 8.1150	 2.6370
 8.1280	 2.7230
 8.1400	 2.6880
 8.1530	 2.7000
 8.1660	 2.5830
 8.1790	 2.6330
 8.1920	 2.5610
 8.2050	 2.6170
 8.2180	 2.5850
 8.2310	 2.7220
 8.2440	 2.6570
 8.2570	 2.7090
 8.2700	 2.6580
 8.2830	 2.7210
 8.2970	 2.7230
 8.3100	 2.8500
 8.3230	 2.7900
 8.3370	 2.8530
 8.3500	 2.7710
 8.3640	 2.8370
 8.3770	 2.8370
 8.3910	 2.9490
 8.4040	 2.8890
 8.4180	 2.9980
 8.4320	 3.0030
 8.4450	 3.1570
 8.4590	 3.1500
 8.4730	 3.2530
 8.4870	 3.2490
 8.5010	 3.4770
 8.5150	 3.5330
 8.5290	 3.6420
 8.5430	 3.7190
 8.5570	 3.9990
 8.5710	 4.0430
 8.5850	 4.1530
 8.5990	 4.1030
 8.6140	 4.2020
 8.6280	 4.1300
 8.6420	 4.1850
 8.6570	 4.1250
 8.6710	 4.1710
 8.6860	 4.1500
 8.7000	 4.2470
 8.7150	 4.1490
 8.7300	 4.1790
 8.7440	 4.0860
 8.7590	 4.0860
 8.7740	 3.9760
 8.7890	 4.0460
 8.8040	 4.0130
 8.8190	 4.1090
 8.8340	 4.0420
 8.8490	 4.1960
 8.8640	 4.2080
 8.8790	 4.3250
 8.8940	 4.2910
 8.9100	 4.4540
 8.9250	 4.4260
 8.9400	 4.5770
 8.9560	 4.5610
 8.9710	 4.6170
 8.9870	 4.5670
 9.0020	 4.6480
 9.0180	 4.5830
 9.0340	 4.6290
 9.0500	 4.4590
 9.0650	 4.4580
 9.0810	 4.3380
 9.0970	 4.4080
 9.1130	 4.2910
 9.1290	 4.3640
 9.1450	 4.3130
 9.1620	 4.3690
 9.1780	 4.2710
 9.1940	 4.4510
 9.2100	 4.4430
 9.2270	 4.5310
 9.2430	 4.5190
 9.2600	 4.7230
 9.2760	 4.7210
 9.2930	 4.8140
 9.3100	 4.8360
 9.3260	 5.0090
 9.3430	 4.8740
 9.3600	 4.8890
 9.3770	 4.7740
 9.3940	 4.8100
 9.4110	 4.7090
 9.4280	 4.8090
 9.4450	 4.7700
 9.4620	 4.9100
 9.4800	 4.8500
 9.4970	 4.8880
 9.5150	 4.7090
 9.5320	 4.7300
 9.5500	 4.6460
 9.5670	 4.8070
 9.5850	 4.8120
 9.6030	 4.8590
 9.6200	 4.7700
 9.6380	 4.9040
 9.6560	 4.7980
 9.6740	 4.8220
 9.6920	 4.7340
 9.7110	 4.7710
 9.7290	 4.6280
 9.7470	 4.6490
 9.7650	 4.5040
 9.7840	 4.5850
 9.8020	 4.5100
 9.8210	 4.5710
 9.8390	 4.4090
 9.8580	 4.3880
 9.8770	 4.2430
 9.8960	 4.2770
 9.9150	 4.1400
 9.9340	 4.0560
 9.9530	 3.7880
 9.9720	 3.7800
 9.9910	 3.6410
10.0100	 3.6720
10.0300	 3.5650
10.0490	 3.5780
10.0690	 3.4200
10.0880	 3.4050
10.1080	 3.2670
10.1280	 3.3590
10.1480	 3.2880
10.1670	 3.3430
10.1870	 3.2240
10.2070	 3.2920
10.2280	 3.1920
10.2480	 3.2670
10.2680	 3.1980
10.2890	 3.3640
10.3090	 3.3620
10.3300	 3.4250
10.3500	 3.3270
10.3710	 3.4060
10.3920	 3.3500
10.4120	 3.4110
10.4330	 3.2040
10.4540	 3.1730
10.4760	 3.0110
10.4970	 3.0380
10.5180	 2.9390
10.5390	 2.9470
10.5610	 2.8170
10.5820	 2.9510
10.6040	 2.9080
10.6260	 2.9930
10.6480	 2.8780
10.6700	 2.9610
10.6920	 2.9380
10.7140	 3.0620
10.7360	 2.9590
10.7580	 3.0850
10.7800	 3.0000
10.8030	 3.1000
10.8250	 2.9970
10.8480	 3.0970
10.8710	 3.0420
10.8940	 3.1460
10.9170	 3.0560
10.9400	 3.1390
10.9630	 3.0140
10.9860	 3.1070
11.0090	 3.0670
11.0330	 3.2140
11.0560	 3.1330
11.0800	 3.2430
11.1040	 3.1140
11.1270	 3.1830
11.1510	 3.0520
11.1750	 3.1300
11.2000	 3.0690
11.2240	 3.2100
11.2480	 3.1060
11.2730	 3.1840
11.2970	 3.1220
11.3220	 3.2820
11.3470	 3.1820
11.3720	 3.2730
11.3970	 3.2440
11.4220	 3.4240
11.4470	 3.2760
11.4720	 3.3220
11.4980	 3.3190
11.5230	 3.4630
11.5490	 3.2610
11.5750	 3.3720
11.6000	 3.3370
11.6260	 3.5450
11.6530	 3.4330
11.6790	 3.4620
11.7050	 3.3880
11.7320	 3.6160
11.7580	 3.5040
11.7850	 3.5890
11.8120	 3.5710
11.8390	 3.7300
11.8660	 3.5750
11.8930	 3.7120
11.9200	 3.6040
11.9480	 3.6630
11.9760	 3.5160
12.0030	 3.5610
12.0310	 3.4310
12.0590	 3.5880
12.0870	 3.5050
12.1150	 3.7230
12.1440	 3.6670
12.1720	 3.7880
12.2010	 3.6750
12.2300	 3.7860
12.2590	 3.6150
12.2880	 3.7640
12.3170	 3.7770
12.3460	 3.9430
12.3760	 3.7280
12.4050	 3.8600
12.4350	 3.8010
12.4650	 3.9520
12.4950	 3.7920
12.5250	 3.8930
12.5550	 3.6750
12.5860	 3.8080
12.6170	 3.7580
12.6470	 3.9350
12.6780	 3.7780
12.7090	 3.8840
12.7410	 3.7010
12.7720	 3.7930
12.8030	 3.6120
12.8350	 3.7930
12.8670	 3.6390
12.8990	 3.6970
12.9310	 3.5510
12.9640	 3.7210
12.9960	 3.6410
13.0290	 3.7470
13.0610	 3.5110
13.0940	 3.6700
13.1280	 3.5210
13.1610	 3.6610
13.1940	 3.4140
13.2280	 3.5470
13.2620	 3.4680
13.2960	 3.5880
13.3300	 3.3170
13.3640	 3.4490
13.3990	 3.2910
13.4340	 3.5470
13.4690	 3.4100
13.5040	 3.5820
13.5390	 3.4090
13.5740	 3.5390
13.6100	 3.2510
13.6460	 3.4140
13.6820	 3.2630
13.7180	 3.5270
13.7540	 3.4750
13.7910	 3.5700
13.8280	 3.2230
13.8650	 3.3920
13.9020	 3.2750
13.9390	 3.6190
13.9770	 3.4910
14.0150	 3.6050
14.0530	 3.3460
14.0910	 3.5140
14.1290	 3.2200
14.1680	 3.4350
14.2070	 3.1260
14.2460	 3.2790
14.2850	 3.1160
14.3240	 3.3370
14.3640	 3.0330
14.4040	 3.2500
14.4440	 2.9580
14.4840	 3.1450
14.5250	 2.9410
14.5660	 3.1430
14.6070	 2.7760
14.6480	 3.0400
14.6900	 2.7930
14.7310	 2.9800
14.7730	 2.5130
14.8150	 2.9590
14.8580	 2.9100
14.9010	 3.2410
14.9440	 3.1930
14.9870	 3.6660
15.0300	 2.6750
15.0740	 2.7670
15.1180	 2.2980
15.1620	 2.6890
15.2060	 2.3470
15.2510	 2.7670
15.2960	 2.4610
15.3410	 2.8290
15.3870	 2.3390
