Name: Heteromeles arbutifolia 3
Type: vegetation
Class: Shrub
Genus: Heteromeles
Species: arbutifolia
Sample No.: VH138
Owner: UCSB
Wavelength Range: VSWIR
Origin: 34.4908; -119.7912; WGS84
Collection Date: 6/3/2013
Description: Samples were collected as part of the HyspIRI Airborne Campaign. 48 individual plants were sampled in three times in 2013 - spring  summer  and fall. The name of the sample includes a 1  2  or 3 which references a different individual of the species. Samples were taken to JPL and processed within 48 hours of collection. The same leaves were processed in the Nicolet and then measured using the ASD.
Measurement: Bidirectional reflectance
First Column: X
Second Column: Y
X Units: Wavelength (micrometers)
Y Units: Reflectance (percentage)
First X Value: 0.35
Last X Value: 2.5
Number of X Values: 2151
Additional Information: vegetation.shrub.heteromeles.arbutifolia.vswir.vh138.ucsb.asd.ancillary.txt

 0.3500	 6.1490
 0.3510	 6.2430
 0.3520	 6.1950
 0.3530	 6.1430
 0.3540	 6.2060
 0.3550	 6.1180
 0.3560	 6.1920
 0.3570	 6.2620
 0.3580	 6.0070
 0.3590	 5.9660
 0.3600	 6.1150
 0.3610	 6.2740
 0.3620	 6.1470
 0.3630	 6.1100
 0.3640	 6.1090
 0.3650	 6.0390
 0.3660	 6.0370
 0.3670	 6.0620
 0.3680	 6.0690
 0.3690	 6.0260
 0.3700	 6.0400
 0.3710	 6.0540
 0.3720	 6.0250
 0.3730	 5.9590
 0.3740	 5.9970
 0.3750	 6.0620
 0.3760	 6.0450
 0.3770	 6.0370
 0.3780	 6.0680
 0.3790	 6.1080
 0.3800	 6.0770
 0.3810	 6.0180
 0.3820	 5.9620
 0.3830	 5.9320
 0.3840	 5.9540
 0.3850	 5.8800
 0.3860	 5.8240
 0.3870	 5.9330
 0.3880	 5.9580
 0.3890	 5.9570
 0.3900	 5.9510
 0.3910	 5.9080
 0.3920	 5.8580
 0.3930	 5.8600
 0.3940	 5.9260
 0.3950	 5.9400
 0.3960	 5.9200
 0.3970	 5.8970
 0.3980	 5.8950
 0.3990	 5.8420
 0.4000	 5.8120
 0.4010	 5.8250
 0.4020	 5.8210
 0.4030	 5.8480
 0.4040	 5.8690
 0.4050	 5.8520
 0.4060	 5.8490
 0.4070	 5.8480
 0.4080	 5.8410
 0.4090	 5.8260
 0.4100	 5.8570
 0.4110	 5.8790
 0.4120	 5.8610
 0.4130	 5.8230
 0.4140	 5.8410
 0.4150	 5.8830
 0.4160	 5.8930
 0.4170	 5.9020
 0.4180	 5.9080
 0.4190	 5.9090
 0.4200	 5.9080
 0.4210	 5.9230
 0.4220	 5.9450
 0.4230	 5.9610
 0.4240	 5.9600
 0.4250	 5.9700
 0.4260	 5.9750
 0.4270	 5.9480
 0.4280	 5.9680
 0.4290	 5.9910
 0.4300	 5.9980
 0.4310	 6.0220
 0.4320	 6.0150
 0.4330	 5.9930
 0.4340	 5.9840
 0.4350	 5.9860
 0.4360	 5.9930
 0.4370	 6.0020
 0.4380	 6.0100
 0.4390	 6.0060
 0.4400	 6.0040
 0.4410	 6.0110
 0.4420	 6.0170
 0.4430	 6.0160
 0.4440	 6.0120
 0.4450	 6.0160
 0.4460	 6.0140
 0.4470	 6.0180
 0.4480	 6.0270
 0.4490	 6.0270
 0.4500	 6.0340
 0.4510	 6.0410
 0.4520	 6.0410
 0.4530	 6.0480
 0.4540	 6.0570
 0.4550	 6.0640
 0.4560	 6.0590
 0.4570	 6.0590
 0.4580	 6.0570
 0.4590	 6.0540
 0.4600	 6.0550
 0.4610	 6.0470
 0.4620	 6.0410
 0.4630	 6.0510
 0.4640	 6.0590
 0.4650	 6.0600
 0.4660	 6.0560
 0.4670	 6.0520
 0.4680	 6.0450
 0.4690	 6.0410
 0.4700	 6.0440
 0.4710	 6.0410
 0.4720	 6.0400
 0.4730	 6.0420
 0.4740	 6.0430
 0.4750	 6.0390
 0.4760	 6.0320
 0.4770	 6.0270
 0.4780	 6.0290
 0.4790	 6.0350
 0.4800	 6.0390
 0.4810	 6.0360
 0.4820	 6.0360
 0.4830	 6.0400
 0.4840	 6.0450
 0.4850	 6.0420
 0.4860	 6.0470
 0.4870	 6.0600
 0.4880	 6.0720
 0.4890	 6.0690
 0.4900	 6.0720
 0.4910	 6.0840
 0.4920	 6.1000
 0.4930	 6.1100
 0.4940	 6.1190
 0.4950	 6.1340
 0.4960	 6.1630
 0.4970	 6.1780
 0.4980	 6.1940
 0.4990	 6.2260
 0.5000	 6.2610
 0.5010	 6.2920
 0.5020	 6.3240
 0.5030	 6.3660
 0.5040	 6.4230
 0.5050	 6.4820
 0.5060	 6.5380
 0.5070	 6.6140
 0.5080	 6.6960
 0.5090	 6.7840
 0.5100	 6.8830
 0.5110	 7.0010
 0.5120	 7.1310
 0.5130	 7.2700
 0.5140	 7.4180
 0.5150	 7.5780
 0.5160	 7.7560
 0.5170	 7.9540
 0.5180	 8.1590
 0.5190	 8.3770
 0.5200	 8.6070
 0.5210	 8.8430
 0.5220	 9.0840
 0.5230	 9.3260
 0.5240	 9.5650
 0.5250	 9.8060
 0.5260	10.0390
 0.5270	10.2620
 0.5280	10.4710
 0.5290	10.6690
 0.5300	10.8530
 0.5310	11.0230
 0.5320	11.1830
 0.5330	11.3250
 0.5340	11.4530
 0.5350	11.5740
 0.5360	11.6770
 0.5370	11.7710
 0.5380	11.8570
 0.5390	11.9300
 0.5400	12.0000
 0.5410	12.0650
 0.5420	12.1230
 0.5430	12.1770
 0.5440	12.2300
 0.5450	12.2810
 0.5460	12.3290
 0.5470	12.3670
 0.5480	12.4010
 0.5490	12.4310
 0.5500	12.4620
 0.5510	12.4770
 0.5520	12.4820
 0.5530	12.4800
 0.5540	12.4640
 0.5550	12.4320
 0.5560	12.3840
 0.5570	12.3160
 0.5580	12.2370
 0.5590	12.1450
 0.5600	12.0400
 0.5610	11.9280
 0.5620	11.8040
 0.5630	11.6680
 0.5640	11.5200
 0.5650	11.3630
 0.5660	11.2020
 0.5670	11.0390
 0.5680	10.8720
 0.5690	10.7020
 0.5700	10.5320
 0.5710	10.3640
 0.5720	10.2010
 0.5730	10.0440
 0.5740	 9.8970
 0.5750	 9.7690
 0.5760	 9.6510
 0.5770	 9.5400
 0.5780	 9.4330
 0.5790	 9.3350
 0.5800	 9.2420
 0.5810	 9.1530
 0.5820	 9.0690
 0.5830	 8.9960
 0.5840	 8.9260
 0.5850	 8.8570
 0.5860	 8.7940
 0.5870	 8.7330
 0.5880	 8.6750
 0.5890	 8.6250
 0.5900	 8.5850
 0.5910	 8.5490
 0.5920	 8.5140
 0.5930	 8.4800
 0.5940	 8.4450
 0.5950	 8.4150
 0.5960	 8.3900
 0.5970	 8.3600
 0.5980	 8.3360
 0.5990	 8.3140
 0.6000	 8.2850
 0.6010	 8.2540
 0.6020	 8.2150
 0.6030	 8.1720
 0.6040	 8.1390
 0.6050	 8.0950
 0.6060	 8.0410
 0.6070	 7.9810
 0.6080	 7.9260
 0.6090	 7.8690
 0.6100	 7.8110
 0.6110	 7.7510
 0.6120	 7.6940
 0.6130	 7.6330
 0.6140	 7.5670
 0.6150	 7.5090
 0.6160	 7.4540
 0.6170	 7.4030
 0.6180	 7.3600
 0.6190	 7.3190
 0.6200	 7.2790
 0.6210	 7.2430
 0.6220	 7.2170
 0.6230	 7.1920
 0.6240	 7.1710
 0.6250	 7.1540
 0.6260	 7.1400
 0.6270	 7.1260
 0.6280	 7.1120
 0.6290	 7.1010
 0.6300	 7.0950
 0.6310	 7.0870
 0.6320	 7.0740
 0.6330	 7.0580
 0.6340	 7.0360
 0.6350	 7.0120
 0.6360	 6.9840
 0.6370	 6.9440
 0.6380	 6.8990
 0.6390	 6.8500
 0.6400	 6.7970
 0.6410	 6.7400
 0.6420	 6.6860
 0.6430	 6.6360
 0.6440	 6.5780
 0.6450	 6.5230
 0.6460	 6.4730
 0.6470	 6.4280
 0.6480	 6.3870
 0.6490	 6.3530
 0.6500	 6.3240
 0.6510	 6.2980
 0.6520	 6.2770
 0.6530	 6.2580
 0.6540	 6.2390
 0.6550	 6.2220
 0.6560	 6.2010
 0.6570	 6.1770
 0.6580	 6.1580
 0.6590	 6.1340
 0.6600	 6.1080
 0.6610	 6.0840
 0.6620	 6.0650
 0.6630	 6.0460
 0.6640	 6.0290
 0.6650	 6.0160
 0.6660	 6.0050
 0.6670	 5.9990
 0.6680	 5.9980
 0.6690	 6.0000
 0.6700	 6.0020
 0.6710	 6.0070
 0.6720	 6.0190
 0.6730	 6.0350
 0.6740	 6.0530
 0.6750	 6.0720
 0.6760	 6.0920
 0.6770	 6.1140
 0.6780	 6.1390
 0.6790	 6.1680
 0.6800	 6.2010
 0.6810	 6.2340
 0.6820	 6.2710
 0.6830	 6.3140
 0.6840	 6.3610
 0.6850	 6.4120
 0.6860	 6.4710
 0.6870	 6.5450
 0.6880	 6.6380
 0.6890	 6.7570
 0.6900	 6.9120
 0.6910	 7.1090
 0.6920	 7.3610
 0.6930	 7.6780
 0.6940	 8.0680
 0.6950	 8.5330
 0.6960	 9.0800
 0.6970	 9.7080
 0.6980	10.4160
 0.6990	11.2040
 0.7000	12.0640
 0.7010	12.9850
 0.7020	13.9560
 0.7030	14.9680
 0.7040	16.0150
 0.7050	17.0890
 0.7060	18.1830
 0.7070	19.2900
 0.7080	20.4040
 0.7090	21.5260
 0.7100	22.6530
 0.7110	23.7820
 0.7120	24.9120
 0.7130	26.0420
 0.7140	27.1650
 0.7150	28.2830
 0.7160	29.3930
 0.7170	30.4900
 0.7180	31.5740
 0.7190	32.6440
 0.7200	33.6960
 0.7210	34.7240
 0.7220	35.7320
 0.7230	36.7180
 0.7240	37.6730
 0.7250	38.5960
 0.7260	39.4880
 0.7270	40.3460
 0.7280	41.1680
 0.7290	41.9570
 0.7300	42.7080
 0.7310	43.4200
 0.7320	44.0990
 0.7330	44.7450
 0.7340	45.3580
 0.7350	45.9340
 0.7360	46.4790
 0.7370	46.9920
 0.7380	47.4730
 0.7390	47.9260
 0.7400	48.3500
 0.7410	48.7460
 0.7420	49.1170
 0.7430	49.4620
 0.7440	49.7820
 0.7450	50.0780
 0.7460	50.3510
 0.7470	50.6060
 0.7480	50.8390
 0.7490	51.0490
 0.7500	51.2420
 0.7510	51.4210
 0.7520	51.5850
 0.7530	51.7330
 0.7540	51.8700
 0.7550	51.9920
 0.7560	52.1020
 0.7570	52.2050
 0.7580	52.3000
 0.7590	52.3850
 0.7600	52.4610
 0.7610	52.5340
 0.7620	52.6010
 0.7630	52.6590
 0.7640	52.7100
 0.7650	52.7580
 0.7660	52.8000
 0.7670	52.8370
 0.7680	52.8730
 0.7690	52.9110
 0.7700	52.9450
 0.7710	52.9710
 0.7720	52.9930
 0.7730	53.0180
 0.7740	53.0440
 0.7750	53.0680
 0.7760	53.0870
 0.7770	53.1080
 0.7780	53.1310
 0.7790	53.1520
 0.7800	53.1670
 0.7810	53.1840
 0.7820	53.2030
 0.7830	53.2170
 0.7840	53.2340
 0.7850	53.2510
 0.7860	53.2660
 0.7870	53.2850
 0.7880	53.3000
 0.7890	53.3120
 0.7900	53.3240
 0.7910	53.3390
 0.7920	53.3520
 0.7930	53.3610
 0.7940	53.3700
 0.7950	53.3830
 0.7960	53.3960
 0.7970	53.4040
 0.7980	53.4110
 0.7990	53.4170
 0.8000	53.4230
 0.8010	53.4320
 0.8020	53.4350
 0.8030	53.4380
 0.8040	53.4450
 0.8050	53.4510
 0.8060	53.4510
 0.8070	53.4500
 0.8080	53.4510
 0.8090	53.4520
 0.8100	53.4560
 0.8110	53.4560
 0.8120	53.4510
 0.8130	53.4540
 0.8140	53.4510
 0.8150	53.4480
 0.8160	53.4480
 0.8170	53.4420
 0.8180	53.4350
 0.8190	53.4310
 0.8200	53.4310
 0.8210	53.4320
 0.8220	53.4290
 0.8230	53.4200
 0.8240	53.4070
 0.8250	53.4050
 0.8260	53.4030
 0.8270	53.3940
 0.8280	53.3850
 0.8290	53.3800
 0.8300	53.3740
 0.8310	53.3610
 0.8320	53.3480
 0.8330	53.3430
 0.8340	53.3390
 0.8350	53.3290
 0.8360	53.3250
 0.8370	53.3250
 0.8380	53.3250
 0.8390	53.3200
 0.8400	53.3210
 0.8410	53.3190
 0.8420	53.3130
 0.8430	53.3160
 0.8440	53.3200
 0.8450	53.3260
 0.8460	53.3310
 0.8470	53.3270
 0.8480	53.3260
 0.8490	53.3290
 0.8500	53.3330
 0.8510	53.3370
 0.8520	53.3360
 0.8530	53.3350
 0.8540	53.3450
 0.8550	53.3520
 0.8560	53.3510
 0.8570	53.3470
 0.8580	53.3520
 0.8590	53.3540
 0.8600	53.3590
 0.8610	53.3670
 0.8620	53.3640
 0.8630	53.3690
 0.8640	53.3770
 0.8650	53.3830
 0.8660	53.3900
 0.8670	53.3830
 0.8680	53.3760
 0.8690	53.3830
 0.8700	53.3920
 0.8710	53.4000
 0.8720	53.4040
 0.8730	53.4060
 0.8740	53.4120
 0.8750	53.4190
 0.8760	53.4250
 0.8770	53.4330
 0.8780	53.4420
 0.8790	53.4460
 0.8800	53.4430
 0.8810	53.4460
 0.8820	53.4550
 0.8830	53.4620
 0.8840	53.4630
 0.8850	53.4630
 0.8860	53.4650
 0.8870	53.4720
 0.8880	53.4790
 0.8890	53.4770
 0.8900	53.4750
 0.8910	53.4780
 0.8920	53.4850
 0.8930	53.4940
 0.8940	53.4930
 0.8950	53.4850
 0.8960	53.4840
 0.8970	53.4870
 0.8980	53.4860
 0.8990	53.4830
 0.9000	53.4860
 0.9010	53.4920
 0.9020	53.4970
 0.9030	53.4980
 0.9040	53.4930
 0.9050	53.4990
 0.9060	53.5030
 0.9070	53.4970
 0.9080	53.4940
 0.9090	53.5000
 0.9100	53.5030
 0.9110	53.4940
 0.9120	53.4960
 0.9130	53.4970
 0.9140	53.5010
 0.9150	53.5050
 0.9160	53.4930
 0.9170	53.4820
 0.9180	53.4790
 0.9190	53.4810
 0.9200	53.4710
 0.9210	53.4610
 0.9220	53.4580
 0.9230	53.4600
 0.9240	53.4460
 0.9250	53.4280
 0.9260	53.4110
 0.9270	53.3960
 0.9280	53.3790
 0.9290	53.3560
 0.9300	53.3270
 0.9310	53.3020
 0.9320	53.2740
 0.9330	53.2510
 0.9340	53.2330
 0.9350	53.2030
 0.9360	53.1750
 0.9370	53.1410
 0.9380	53.1020
 0.9390	53.0700
 0.9400	53.0410
 0.9410	53.0050
 0.9420	52.9570
 0.9430	52.9060
 0.9440	52.8580
 0.9450	52.8100
 0.9460	52.7560
 0.9470	52.6960
 0.9480	52.6310
 0.9490	52.5650
 0.9500	52.4940
 0.9510	52.4050
 0.9520	52.3160
 0.9530	52.2250
 0.9540	52.1290
 0.9550	52.0400
 0.9560	51.9520
 0.9570	51.8610
 0.9580	51.7710
 0.9590	51.7040
 0.9600	51.6460
 0.9610	51.5820
 0.9620	51.5110
 0.9630	51.4690
 0.9640	51.4250
 0.9650	51.3780
 0.9660	51.3380
 0.9670	51.2960
 0.9680	51.2670
 0.9690	51.2510
 0.9700	51.2380
 0.9710	51.2070
 0.9720	51.1800
 0.9730	51.1680
 0.9740	51.1680
 0.9750	51.1690
 0.9760	51.1570
 0.9770	51.1370
 0.9780	51.1220
 0.9790	51.1370
 0.9800	51.1460
 0.9810	51.1430
 0.9820	51.1450
 0.9830	51.1610
 0.9840	51.1800
 0.9850	51.1910
 0.9860	51.1920
 0.9870	51.2190
 0.9880	51.2430
 0.9890	51.2550
 0.9900	51.2620
 0.9910	51.3010
 0.9920	51.3420
 0.9930	51.3830
 0.9940	51.4240
 0.9950	51.4650
 0.9960	51.5060
 0.9970	51.5470
 0.9980	51.5880
 0.9990	51.6290
 1.0000	51.6700
 1.0010	51.7110
 1.0020	51.7520
 1.0030	51.7930
 1.0040	51.8340
 1.0050	51.8750
 1.0060	51.9160
 1.0070	51.9570
 1.0080	51.9980
 1.0090	52.0390
 1.0100	52.0390
 1.0110	52.0690
 1.0120	52.1010
 1.0130	52.1320
 1.0140	52.1640
 1.0150	52.1990
 1.0160	52.2300
 1.0170	52.2620
 1.0180	52.2920
 1.0190	52.3200
 1.0200	52.3500
 1.0210	52.3750
 1.0220	52.4050
 1.0230	52.4340
 1.0240	52.4670
 1.0250	52.4970
 1.0260	52.5260
 1.0270	52.5530
 1.0280	52.5770
 1.0290	52.6020
 1.0300	52.6250
 1.0310	52.6490
 1.0320	52.6710
 1.0330	52.6940
 1.0340	52.7150
 1.0350	52.7360
 1.0360	52.7580
 1.0370	52.7750
 1.0380	52.7940
 1.0390	52.8130
 1.0400	52.8330
 1.0410	52.8560
 1.0420	52.8740
 1.0430	52.8920
 1.0440	52.9090
 1.0450	52.9220
 1.0460	52.9380
 1.0470	52.9540
 1.0480	52.9690
 1.0490	52.9850
 1.0500	53.0010
 1.0510	53.0140
 1.0520	53.0320
 1.0530	53.0450
 1.0540	53.0560
 1.0550	53.0660
 1.0560	53.0710
 1.0570	53.0810
 1.0580	53.0940
 1.0590	53.1040
 1.0600	53.1140
 1.0610	53.1240
 1.0620	53.1320
 1.0630	53.1380
 1.0640	53.1430
 1.0650	53.1480
 1.0660	53.1490
 1.0670	53.1530
 1.0680	53.1580
 1.0690	53.1660
 1.0700	53.1700
 1.0710	53.1740
 1.0720	53.1760
 1.0730	53.1750
 1.0740	53.1770
 1.0750	53.1800
 1.0760	53.1800
 1.0770	53.1770
 1.0780	53.1750
 1.0790	53.1710
 1.0800	53.1680
 1.0810	53.1650
 1.0820	53.1630
 1.0830	53.1580
 1.0840	53.1540
 1.0850	53.1520
 1.0860	53.1470
 1.0870	53.1410
 1.0880	53.1340
 1.0890	53.1240
 1.0900	53.1110
 1.0910	53.0980
 1.0920	53.0820
 1.0930	53.0680
 1.0940	53.0550
 1.0950	53.0420
 1.0960	53.0320
 1.0970	53.0190
 1.0980	53.0030
 1.0990	52.9880
 1.1000	52.9690
 1.1010	52.9520
 1.1020	52.9370
 1.1030	52.9220
 1.1040	52.9030
 1.1050	52.8830
 1.1060	52.8630
 1.1070	52.8410
 1.1080	52.8180
 1.1090	52.7950
 1.1100	52.7700
 1.1110	52.7430
 1.1120	52.7160
 1.1130	52.6890
 1.1140	52.6590
 1.1150	52.6280
 1.1160	52.5940
 1.1170	52.5590
 1.1180	52.5200
 1.1190	52.4800
 1.1200	52.4350
 1.1210	52.3840
 1.1220	52.3290
 1.1230	52.2690
 1.1240	52.2050
 1.1250	52.1320
 1.1260	52.0520
 1.1270	51.9660
 1.1280	51.8770
 1.1290	51.7740
 1.1300	51.6670
 1.1310	51.5480
 1.1320	51.4160
 1.1330	51.2770
 1.1340	51.1300
 1.1350	50.9740
 1.1360	50.8090
 1.1370	50.6360
 1.1380	50.4610
 1.1390	50.2830
 1.1400	50.0960
 1.1410	49.9040
 1.1420	49.7040
 1.1430	49.4990
 1.1440	49.3010
 1.1450	49.1000
 1.1460	48.9060
 1.1470	48.7140
 1.1480	48.5320
 1.1490	48.3530
 1.1500	48.1860
 1.1510	48.0270
 1.1520	47.8790
 1.1530	47.7410
 1.1540	47.6140
 1.1550	47.4960
 1.1560	47.3910
 1.1570	47.2970
 1.1580	47.2110
 1.1590	47.1350
 1.1600	47.0690
 1.1610	47.0110
 1.1620	46.9580
 1.1630	46.9120
 1.1640	46.8720
 1.1650	46.8370
 1.1660	46.8100
 1.1670	46.7830
 1.1680	46.7600
 1.1690	46.7360
 1.1700	46.7120
 1.1710	46.6900
 1.1720	46.6700
 1.1730	46.6490
 1.1740	46.6290
 1.1750	46.6090
 1.1760	46.5880
 1.1770	46.5660
 1.1780	46.5410
 1.1790	46.5180
 1.1800	46.4940
 1.1810	46.4680
 1.1820	46.4440
 1.1830	46.4190
 1.1840	46.3950
 1.1850	46.3730
 1.1860	46.3520
 1.1870	46.3320
 1.1880	46.3130
 1.1890	46.2930
 1.1900	46.2760
 1.1910	46.2630
 1.1920	46.2510
 1.1930	46.2410
 1.1940	46.2330
 1.1950	46.2260
 1.1960	46.2220
 1.1970	46.2190
 1.1980	46.2190
 1.1990	46.2230
 1.2000	46.2300
 1.2010	46.2370
 1.2020	46.2470
 1.2030	46.2590
 1.2040	46.2740
 1.2050	46.2910
 1.2060	46.3110
 1.2070	46.3350
 1.2080	46.3590
 1.2090	46.3840
 1.2100	46.4150
 1.2110	46.4470
 1.2120	46.4820
 1.2130	46.5200
 1.2140	46.5610
 1.2150	46.6010
 1.2160	46.6410
 1.2170	46.6820
 1.2180	46.7250
 1.2190	46.7690
 1.2200	46.8150
 1.2210	46.8630
 1.2220	46.9110
 1.2230	46.9560
 1.2240	47.0000
 1.2250	47.0430
 1.2260	47.0840
 1.2270	47.1270
 1.2280	47.1690
 1.2290	47.2100
 1.2300	47.2480
 1.2310	47.2820
 1.2320	47.3170
 1.2330	47.3500
 1.2340	47.3840
 1.2350	47.4200
 1.2360	47.4530
 1.2370	47.4850
 1.2380	47.5140
 1.2390	47.5410
 1.2400	47.5660
 1.2410	47.5920
 1.2420	47.6170
 1.2430	47.6430
 1.2440	47.6700
 1.2450	47.6930
 1.2460	47.7150
 1.2470	47.7370
 1.2480	47.7570
 1.2490	47.7740
 1.2500	47.7920
 1.2510	47.8100
 1.2520	47.8260
 1.2530	47.8430
 1.2540	47.8580
 1.2550	47.8680
 1.2560	47.8770
 1.2570	47.8870
 1.2580	47.8980
 1.2590	47.9070
 1.2600	47.9160
 1.2610	47.9230
 1.2620	47.9280
 1.2630	47.9280
 1.2640	47.9290
 1.2650	47.9270
 1.2660	47.9240
 1.2670	47.9220
 1.2680	47.9180
 1.2690	47.9100
 1.2700	47.9040
 1.2710	47.8930
 1.2720	47.8820
 1.2730	47.8750
 1.2740	47.8630
 1.2750	47.8490
 1.2760	47.8340
 1.2770	47.8150
 1.2780	47.7970
 1.2790	47.7760
 1.2800	47.7540
 1.2810	47.7320
 1.2820	47.7080
 1.2830	47.6830
 1.2840	47.6570
 1.2850	47.6270
 1.2860	47.5940
 1.2870	47.5590
 1.2880	47.5230
 1.2890	47.4850
 1.2900	47.4440
 1.2910	47.4020
 1.2920	47.3550
 1.2930	47.3060
 1.2940	47.2550
 1.2950	47.2020
 1.2960	47.1480
 1.2970	47.0910
 1.2980	47.0280
 1.2990	46.9620
 1.3000	46.8920
 1.3010	46.8180
 1.3020	46.7420
 1.3030	46.6650
 1.3040	46.5850
 1.3050	46.5010
 1.3060	46.4120
 1.3070	46.3190
 1.3080	46.2230
 1.3090	46.1230
 1.3100	46.0180
 1.3110	45.9090
 1.3120	45.7950
 1.3130	45.6770
 1.3140	45.5560
 1.3150	45.4340
 1.3160	45.3060
 1.3170	45.1740
 1.3180	45.0360
 1.3190	44.8930
 1.3200	44.7440
 1.3210	44.5900
 1.3220	44.4320
 1.3230	44.2720
 1.3240	44.1080
 1.3250	43.9440
 1.3260	43.7780
 1.3270	43.6060
 1.3280	43.4320
 1.3290	43.2530
 1.3300	43.0700
 1.3310	42.8860
 1.3320	42.7010
 1.3330	42.5150
 1.3340	42.3250
 1.3350	42.1360
 1.3360	41.9490
 1.3370	41.7590
 1.3380	41.5700
 1.3390	41.3820
 1.3400	41.1900
 1.3410	41.0030
 1.3420	40.8190
 1.3430	40.6340
 1.3440	40.4520
 1.3450	40.2720
 1.3460	40.0920
 1.3470	39.9150
 1.3480	39.7410
 1.3490	39.5690
 1.3500	39.4000
 1.3510	39.2320
 1.3520	39.0660
 1.3530	38.9000
 1.3540	38.7320
 1.3550	38.5650
 1.3560	38.3980
 1.3570	38.2290
 1.3580	38.0610
 1.3590	37.8900
 1.3600	37.7140
 1.3610	37.5360
 1.3620	37.3510
 1.3630	37.1610
 1.3640	36.9650
 1.3650	36.7600
 1.3660	36.5490
 1.3670	36.3250
 1.3680	36.0890
 1.3690	35.8430
 1.3700	35.5800
 1.3710	35.3040
 1.3720	35.0140
 1.3730	34.7030
 1.3740	34.3770
 1.3750	34.0310
 1.3760	33.6630
 1.3770	33.2730
 1.3780	32.8530
 1.3790	32.4130
 1.3800	31.9500
 1.3810	31.4610
 1.3820	30.9550
 1.3830	30.4300
 1.3840	29.8860
 1.3850	29.3200
 1.3860	28.7450
 1.3870	28.1480
 1.3880	27.5510
 1.3890	26.9440
 1.3900	26.3300
 1.3910	25.7220
 1.3920	25.1120
 1.3930	24.5010
 1.3940	23.8980
 1.3950	23.2950
 1.3960	22.7040
 1.3970	22.1280
 1.3980	21.5650
 1.3990	21.0270
 1.4000	20.5060
 1.4010	20.0020
 1.4020	19.5240
 1.4030	19.0630
 1.4040	18.6270
 1.4050	18.2150
 1.4060	17.8230
 1.4070	17.4600
 1.4080	17.1180
 1.4090	16.7960
 1.4100	16.4990
 1.4110	16.2220
 1.4120	15.9640
 1.4130	15.7270
 1.4140	15.5070
 1.4150	15.3060
 1.4160	15.1210
 1.4170	14.9510
 1.4180	14.7970
 1.4190	14.6550
 1.4200	14.5260
 1.4210	14.4080
 1.4220	14.3000
 1.4230	14.2030
 1.4240	14.1160
 1.4250	14.0360
 1.4260	13.9660
 1.4270	13.9030
 1.4280	13.8470
 1.4290	13.7980
 1.4300	13.7560
 1.4310	13.7190
 1.4320	13.6880
 1.4330	13.6620
 1.4340	13.6420
 1.4350	13.6250
 1.4360	13.6130
 1.4370	13.6050
 1.4380	13.6010
 1.4390	13.6000
 1.4400	13.6010
 1.4410	13.6050
 1.4420	13.6130
 1.4430	13.6240
 1.4440	13.6380
 1.4450	13.6510
 1.4460	13.6660
 1.4470	13.6820
 1.4480	13.6990
 1.4490	13.7180
 1.4500	13.7390
 1.4510	13.7620
 1.4520	13.7840
 1.4530	13.8080
 1.4540	13.8330
 1.4550	13.8600
 1.4560	13.8900
 1.4570	13.9220
 1.4580	13.9570
 1.4590	13.9930
 1.4600	14.0330
 1.4610	14.0760
 1.4620	14.1230
 1.4630	14.1760
 1.4640	14.2310
 1.4650	14.2910
 1.4660	14.3560
 1.4670	14.4240
 1.4680	14.4970
 1.4690	14.5750
 1.4700	14.6570
 1.4710	14.7440
 1.4720	14.8330
 1.4730	14.9260
 1.4740	15.0220
 1.4750	15.1210
 1.4760	15.2230
 1.4770	15.3270
 1.4780	15.4340
 1.4790	15.5440
 1.4800	15.6530
 1.4810	15.7640
 1.4820	15.8770
 1.4830	15.9910
 1.4840	16.1080
 1.4850	16.2260
 1.4860	16.3440
 1.4870	16.4640
 1.4880	16.5830
 1.4890	16.7030
 1.4900	16.8240
 1.4910	16.9470
 1.4920	17.0700
 1.4930	17.1940
 1.4940	17.3180
 1.4950	17.4430
 1.4960	17.5670
 1.4970	17.6910
 1.4980	17.8150
 1.4990	17.9400
 1.5000	18.0650
 1.5010	18.1920
 1.5020	18.3170
 1.5030	18.4420
 1.5040	18.5670
 1.5050	18.6910
 1.5060	18.8160
 1.5070	18.9420
 1.5080	19.0660
 1.5090	19.1900
 1.5100	19.3120
 1.5110	19.4330
 1.5120	19.5540
 1.5130	19.6730
 1.5140	19.7940
 1.5150	19.9150
 1.5160	20.0340
 1.5170	20.1540
 1.5180	20.2730
 1.5190	20.3900
 1.5200	20.5070
 1.5210	20.6220
 1.5220	20.7360
 1.5230	20.8510
 1.5240	20.9650
 1.5250	21.0790
 1.5260	21.1920
 1.5270	21.3030
 1.5280	21.4120
 1.5290	21.5190
 1.5300	21.6270
 1.5310	21.7340
 1.5320	21.8400
 1.5330	21.9460
 1.5340	22.0500
 1.5350	22.1530
 1.5360	22.2560
 1.5370	22.3560
 1.5380	22.4560
 1.5390	22.5570
 1.5400	22.6560
 1.5410	22.7570
 1.5420	22.8570
 1.5430	22.9540
 1.5440	23.0500
 1.5450	23.1430
 1.5460	23.2350
 1.5470	23.3280
 1.5480	23.4210
 1.5490	23.5150
 1.5500	23.6090
 1.5510	23.6990
 1.5520	23.7890
 1.5530	23.8790
 1.5540	23.9670
 1.5550	24.0550
 1.5560	24.1410
 1.5570	24.2270
 1.5580	24.3110
 1.5590	24.3940
 1.5600	24.4770
 1.5610	24.5590
 1.5620	24.6410
 1.5630	24.7250
 1.5640	24.8050
 1.5650	24.8860
 1.5660	24.9670
 1.5670	25.0450
 1.5680	25.1250
 1.5690	25.2030
 1.5700	25.2790
 1.5710	25.3550
 1.5720	25.4300
 1.5730	25.5050
 1.5740	25.5800
 1.5750	25.6540
 1.5760	25.7300
 1.5770	25.8060
 1.5780	25.8800
 1.5790	25.9530
 1.5800	26.0260
 1.5810	26.0970
 1.5820	26.1690
 1.5830	26.2430
 1.5840	26.3170
 1.5850	26.3880
 1.5860	26.4610
 1.5870	26.5310
 1.5880	26.6010
 1.5890	26.6730
 1.5900	26.7430
 1.5910	26.8130
 1.5920	26.8820
 1.5930	26.9500
 1.5940	27.0190
 1.5950	27.0890
 1.5960	27.1570
 1.5970	27.2240
 1.5980	27.2900
 1.5990	27.3550
 1.6000	27.4220
 1.6010	27.4860
 1.6020	27.5510
 1.6030	27.6170
 1.6040	27.6800
 1.6050	27.7450
 1.6060	27.8100
 1.6070	27.8720
 1.6080	27.9340
 1.6090	27.9950
 1.6100	28.0550
 1.6110	28.1160
 1.6120	28.1740
 1.6130	28.2300
 1.6140	28.2860
 1.6150	28.3390
 1.6160	28.3930
 1.6170	28.4460
 1.6180	28.5000
 1.6190	28.5530
 1.6200	28.6040
 1.6210	28.6530
 1.6220	28.7010
 1.6230	28.7490
 1.6240	28.7980
 1.6250	28.8460
 1.6260	28.8920
 1.6270	28.9360
 1.6280	28.9780
 1.6290	29.0200
 1.6300	29.0610
 1.6310	29.1020
 1.6320	29.1410
 1.6330	29.1800
 1.6340	29.2180
 1.6350	29.2550
 1.6360	29.2910
 1.6370	29.3250
 1.6380	29.3600
 1.6390	29.3920
 1.6400	29.4220
 1.6410	29.4500
 1.6420	29.4760
 1.6430	29.4980
 1.6440	29.5180
 1.6450	29.5340
 1.6460	29.5480
 1.6470	29.5610
 1.6480	29.5710
 1.6490	29.5770
 1.6500	29.5800
 1.6510	29.5790
 1.6520	29.5770
 1.6530	29.5700
 1.6540	29.5620
 1.6550	29.5500
 1.6560	29.5340
 1.6570	29.5200
 1.6580	29.5040
 1.6590	29.4870
 1.6600	29.4710
 1.6610	29.4520
 1.6620	29.4330
 1.6630	29.4150
 1.6640	29.3970
 1.6650	29.3820
 1.6660	29.3680
 1.6670	29.3540
 1.6680	29.3410
 1.6690	29.3300
 1.6700	29.3180
 1.6710	29.3050
 1.6720	29.2950
 1.6730	29.2840
 1.6740	29.2690
 1.6750	29.2550
 1.6760	29.2360
 1.6770	29.2150
 1.6780	29.1910
 1.6790	29.1670
 1.6800	29.1410
 1.6810	29.1110
 1.6820	29.0800
 1.6830	29.0450
 1.6840	29.0070
 1.6850	28.9670
 1.6860	28.9250
 1.6870	28.8800
 1.6880	28.8340
 1.6890	28.7870
 1.6900	28.7390
 1.6910	28.6880
 1.6920	28.6400
 1.6930	28.5930
 1.6940	28.5440
 1.6950	28.4970
 1.6960	28.4470
 1.6970	28.3950
 1.6980	28.3420
 1.6990	28.2880
 1.7000	28.2340
 1.7010	28.1780
 1.7020	28.1220
 1.7030	28.0670
 1.7040	28.0080
 1.7050	27.9470
 1.7060	27.8860
 1.7070	27.8220
 1.7080	27.7600
 1.7090	27.6990
 1.7100	27.6380
 1.7110	27.5770
 1.7120	27.5150
 1.7130	27.4550
 1.7140	27.3950
 1.7150	27.3330
 1.7160	27.2740
 1.7170	27.2170
 1.7180	27.1580
 1.7190	27.1030
 1.7200	27.0490
 1.7210	26.9920
 1.7220	26.9350
 1.7230	26.8770
 1.7240	26.8200
 1.7250	26.7640
 1.7260	26.7120
 1.7270	26.6630
 1.7280	26.6170
 1.7290	26.5730
 1.7300	26.5300
 1.7310	26.4870
 1.7320	26.4460
 1.7330	26.4030
 1.7340	26.3620
 1.7350	26.3190
 1.7360	26.2760
 1.7370	26.2320
 1.7380	26.1890
 1.7390	26.1420
 1.7400	26.0940
 1.7410	26.0420
 1.7420	25.9860
 1.7430	25.9290
 1.7440	25.8680
 1.7450	25.8090
 1.7460	25.7520
 1.7470	25.6940
 1.7480	25.6360
 1.7490	25.5770
 1.7500	25.5150
 1.7510	25.4570
 1.7520	25.4010
 1.7530	25.3440
 1.7540	25.2890
 1.7550	25.2310
 1.7560	25.1740
 1.7570	25.1180
 1.7580	25.0660
 1.7590	25.0160
 1.7600	24.9670
 1.7610	24.9200
 1.7620	24.8740
 1.7630	24.8270
 1.7640	24.7830
 1.7650	24.7390
 1.7660	24.6980
 1.7670	24.6610
 1.7680	24.6220
 1.7690	24.5850
 1.7700	24.5480
 1.7710	24.5100
 1.7720	24.4730
 1.7730	24.4380
 1.7740	24.4040
 1.7750	24.3720
 1.7760	24.3400
 1.7770	24.3060
 1.7780	24.2760
 1.7790	24.2450
 1.7800	24.2180
 1.7810	24.1940
 1.7820	24.1720
 1.7830	24.1520
 1.7840	24.1320
 1.7850	24.1130
 1.7860	24.0950
 1.7870	24.0790
 1.7880	24.0650
 1.7890	24.0520
 1.7900	24.0420
 1.7910	24.0320
 1.7920	24.0270
 1.7930	24.0220
 1.7940	24.0180
 1.7950	24.0150
 1.7960	24.0130
 1.7970	24.0130
 1.7980	24.0160
 1.7990	24.0180
 1.8000	24.0210
 1.8010	24.0240
 1.8020	24.0270
 1.8030	24.0310
 1.8040	24.0360
 1.8050	24.0410
 1.8060	24.0430
 1.8070	24.0480
 1.8080	24.0540
 1.8090	24.0590
 1.8100	24.0660
 1.8110	24.0710
 1.8120	24.0770
 1.8130	24.0820
 1.8140	24.0840
 1.8150	24.0830
 1.8160	24.0820
 1.8170	24.0860
 1.8180	24.0890
 1.8190	24.0930
 1.8200	24.0940
 1.8210	24.0880
 1.8220	24.0830
 1.8230	24.0770
 1.8240	24.0710
 1.8250	24.0650
 1.8260	24.0570
 1.8270	24.0710
 1.8280	24.0860
 1.8290	24.1000
 1.8300	24.1140
 1.8310	24.1280
 1.8320	24.1420
 1.8330	24.1560
 1.8340	24.1700
 1.8350	24.1700
 1.8360	24.1280
 1.8370	24.0850
 1.8380	24.0370
 1.8390	23.9810
 1.8400	23.9250
 1.8410	23.8580
 1.8420	23.7800
 1.8430	23.7000
 1.8440	23.6140
 1.8450	23.5220
 1.8460	23.4220
 1.8470	23.3130
 1.8480	23.1940
 1.8490	23.0650
 1.8500	22.9240
 1.8510	22.7720
 1.8520	22.6090
 1.8530	22.4340
 1.8540	22.2490
 1.8550	22.0540
 1.8560	21.8490
 1.8570	21.6270
 1.8580	21.3910
 1.8590	21.1410
 1.8600	20.8750
 1.8610	20.5960
 1.8620	20.3020
 1.8630	20.0000
 1.8640	19.6820
 1.8650	19.3430
 1.8660	18.9900
 1.8670	18.6150
 1.8680	18.2270
 1.8690	17.8250
 1.8700	17.4060
 1.8710	16.9710
 1.8720	16.5300
 1.8730	16.0780
 1.8740	15.6150
 1.8750	15.1540
 1.8760	14.6880
 1.8770	14.2230
 1.8780	13.7640
 1.8790	13.3040
 1.8800	12.8540
 1.8810	12.4070
 1.8820	11.9660
 1.8830	11.5290
 1.8840	11.1090
 1.8850	10.6980
 1.8860	10.3010
 1.8870	 9.9210
 1.8880	 9.5550
 1.8890	 9.2100
 1.8900	 8.8820
 1.8910	 8.5740
 1.8920	 8.2830
 1.8930	 8.0150
 1.8940	 7.7650
 1.8950	 7.5350
 1.8960	 7.3230
 1.8970	 7.1300
 1.8980	 6.9560
 1.8990	 6.7980
 1.9000	 6.6550
 1.9010	 6.5350
 1.9020	 6.4210
 1.9030	 6.3210
 1.9040	 6.2330
 1.9050	 6.1550
 1.9060	 6.0840
 1.9070	 6.0260
 1.9080	 5.9780
 1.9090	 5.9340
 1.9100	 5.8950
 1.9110	 5.8590
 1.9120	 5.8290
 1.9130	 5.8010
 1.9140	 5.7760
 1.9150	 5.7590
 1.9160	 5.7440
 1.9170	 5.7300
 1.9180	 5.7210
 1.9190	 5.7100
 1.9200	 5.6980
 1.9210	 5.6910
 1.9220	 5.6870
 1.9230	 5.6860
 1.9240	 5.6860
 1.9250	 5.6900
 1.9260	 5.6930
 1.9270	 5.6940
 1.9280	 5.6950
 1.9290	 5.6970
 1.9300	 5.6980
 1.9310	 5.7040
 1.9320	 5.7130
 1.9330	 5.7210
 1.9340	 5.7310
 1.9350	 5.7410
 1.9360	 5.7500
 1.9370	 5.7610
 1.9380	 5.7730
 1.9390	 5.7860
 1.9400	 5.8010
 1.9410	 5.8180
 1.9420	 5.8350
 1.9430	 5.8540
 1.9440	 5.8720
 1.9450	 5.8900
 1.9460	 5.9090
 1.9470	 5.9270
 1.9480	 5.9470
 1.9490	 5.9680
 1.9500	 5.9910
 1.9510	 6.0160
 1.9520	 6.0420
 1.9530	 6.0660
 1.9540	 6.0890
 1.9550	 6.1150
 1.9560	 6.1390
 1.9570	 6.1660
 1.9580	 6.1970
 1.9590	 6.2270
 1.9600	 6.2560
 1.9610	 6.2870
 1.9620	 6.3210
 1.9630	 6.3520
 1.9640	 6.3850
 1.9650	 6.4200
 1.9660	 6.4550
 1.9670	 6.4920
 1.9680	 6.5280
 1.9690	 6.5640
 1.9700	 6.6010
 1.9710	 6.6400
 1.9720	 6.6790
 1.9730	 6.7200
 1.9740	 6.7610
 1.9750	 6.8030
 1.9760	 6.8470
 1.9770	 6.8900
 1.9780	 6.9340
 1.9790	 6.9780
 1.9800	 7.0220
 1.9810	 7.0670
 1.9820	 7.1140
 1.9830	 7.1600
 1.9840	 7.2050
 1.9850	 7.2520
 1.9860	 7.3020
 1.9870	 7.3510
 1.9880	 7.4020
 1.9890	 7.4530
 1.9900	 7.5040
 1.9910	 7.5540
 1.9920	 7.6040
 1.9930	 7.6560
 1.9940	 7.7070
 1.9950	 7.7570
 1.9960	 7.8070
 1.9970	 7.8550
 1.9980	 7.9060
 1.9990	 7.9600
 2.0000	 8.0130
 2.0010	 8.0660
 2.0020	 8.1220
 2.0030	 8.1750
 2.0040	 8.2270
 2.0050	 8.2810
 2.0060	 8.3390
 2.0070	 8.3930
 2.0080	 8.4470
 2.0090	 8.4980
 2.0100	 8.5440
 2.0110	 8.5930
 2.0120	 8.6440
 2.0130	 8.6960
 2.0140	 8.7490
 2.0150	 8.8010
 2.0160	 8.8520
 2.0170	 8.9010
 2.0180	 8.9480
 2.0190	 8.9930
 2.0200	 9.0390
 2.0210	 9.0860
 2.0220	 9.1300
 2.0230	 9.1740
 2.0240	 9.2190
 2.0250	 9.2620
 2.0260	 9.3050
 2.0270	 9.3500
 2.0280	 9.3930
 2.0290	 9.4330
 2.0300	 9.4710
 2.0310	 9.5110
 2.0320	 9.5490
 2.0330	 9.5880
 2.0340	 9.6270
 2.0350	 9.6650
 2.0360	 9.7010
 2.0370	 9.7350
 2.0380	 9.7660
 2.0390	 9.7990
 2.0400	 9.8310
 2.0410	 9.8640
 2.0420	 9.8970
 2.0430	 9.9330
 2.0440	 9.9650
 2.0450	 9.9960
 2.0460	10.0260
 2.0470	10.0540
 2.0480	10.0830
 2.0490	10.1080
 2.0500	10.1370
 2.0510	10.1690
 2.0520	10.1990
 2.0530	10.2330
 2.0540	10.2640
 2.0550	10.2930
 2.0560	10.3200
 2.0570	10.3470
 2.0580	10.3770
 2.0590	10.4060
 2.0600	10.4360
 2.0610	10.4640
 2.0620	10.4910
 2.0630	10.5190
 2.0640	10.5460
 2.0650	10.5750
 2.0660	10.6070
 2.0670	10.6380
 2.0680	10.6710
 2.0690	10.7020
 2.0700	10.7310
 2.0710	10.7620
 2.0720	10.7930
 2.0730	10.8220
 2.0740	10.8520
 2.0750	10.8810
 2.0760	10.9100
 2.0770	10.9390
 2.0780	10.9690
 2.0790	11.0020
 2.0800	11.0320
 2.0810	11.0610
 2.0820	11.0910
 2.0830	11.1180
 2.0840	11.1470
 2.0850	11.1780
 2.0860	11.2080
 2.0870	11.2370
 2.0880	11.2670
 2.0890	11.2950
 2.0900	11.3210
 2.0910	11.3490
 2.0920	11.3760
 2.0930	11.4050
 2.0940	11.4370
 2.0950	11.4660
 2.0960	11.4940
 2.0970	11.5220
 2.0980	11.5460
 2.0990	11.5730
 2.1000	11.6000
 2.1010	11.6290
 2.1020	11.6600
 2.1030	11.6890
 2.1040	11.7170
 2.1050	11.7480
 2.1060	11.7770
 2.1070	11.8040
 2.1080	11.8340
 2.1090	11.8650
 2.1100	11.8970
 2.1110	11.9310
 2.1120	11.9610
 2.1130	11.9890
 2.1140	12.0190
 2.1150	12.0460
 2.1160	12.0740
 2.1170	12.1020
 2.1180	12.1310
 2.1190	12.1580
 2.1200	12.1860
 2.1210	12.2150
 2.1220	12.2470
 2.1230	12.2740
 2.1240	12.3000
 2.1250	12.3260
 2.1260	12.3480
 2.1270	12.3750
 2.1280	12.4030
 2.1290	12.4290
 2.1300	12.4560
 2.1310	12.4810
 2.1320	12.5020
 2.1330	12.5260
 2.1340	12.5490
 2.1350	12.5730
 2.1360	12.5990
 2.1370	12.6240
 2.1380	12.6490
 2.1390	12.6740
 2.1400	12.6990
 2.1410	12.7220
 2.1420	12.7460
 2.1430	12.7690
 2.1440	12.7940
 2.1450	12.8190
 2.1460	12.8440
 2.1470	12.8670
 2.1480	12.8930
 2.1490	12.9190
 2.1500	12.9460
 2.1510	12.9760
 2.1520	13.0040
 2.1530	13.0300
 2.1540	13.0570
 2.1550	13.0830
 2.1560	13.1090
 2.1570	13.1340
 2.1580	13.1610
 2.1590	13.1900
 2.1600	13.2170
 2.1610	13.2460
 2.1620	13.2740
 2.1630	13.2980
 2.1640	13.3180
 2.1650	13.3440
 2.1660	13.3710
 2.1670	13.3970
 2.1680	13.4250
 2.1690	13.4520
 2.1700	13.4730
 2.1710	13.4990
 2.1720	13.5290
 2.1730	13.5560
 2.1740	13.5820
 2.1750	13.6080
 2.1760	13.6320
 2.1770	13.6580
 2.1780	13.6870
 2.1790	13.7130
 2.1800	13.7380
 2.1810	13.7630
 2.1820	13.7850
 2.1830	13.8080
 2.1840	13.8310
 2.1850	13.8560
 2.1860	13.8800
 2.1870	13.9050
 2.1880	13.9290
 2.1890	13.9540
 2.1900	13.9780
 2.1910	14.0020
 2.1920	14.0260
 2.1930	14.0490
 2.1940	14.0740
 2.1950	14.1010
 2.1960	14.1270
 2.1970	14.1570
 2.1980	14.1820
 2.1990	14.2050
 2.2000	14.2270
 2.2010	14.2460
 2.2020	14.2640
 2.2030	14.2820
 2.2040	14.2990
 2.2050	14.3130
 2.2060	14.3280
 2.2070	14.3430
 2.2080	14.3580
 2.2090	14.3730
 2.2100	14.3900
 2.2110	14.4040
 2.2120	14.4200
 2.2130	14.4310
 2.2140	14.4380
 2.2150	14.4460
 2.2160	14.4520
 2.2170	14.4580
 2.2180	14.4660
 2.2190	14.4690
 2.2200	14.4710
 2.2210	14.4710
 2.2220	14.4670
 2.2230	14.4630
 2.2240	14.4580
 2.2250	14.4520
 2.2260	14.4480
 2.2270	14.4390
 2.2280	14.4310
 2.2290	14.4170
 2.2300	14.3990
 2.2310	14.3760
 2.2320	14.3530
 2.2330	14.3270
 2.2340	14.3010
 2.2350	14.2750
 2.2360	14.2450
 2.2370	14.2130
 2.2380	14.1770
 2.2390	14.1360
 2.2400	14.0960
 2.2410	14.0550
 2.2420	14.0110
 2.2430	13.9670
 2.2440	13.9180
 2.2450	13.8630
 2.2460	13.8100
 2.2470	13.7570
 2.2480	13.7010
 2.2490	13.6430
 2.2500	13.5840
 2.2510	13.5180
 2.2520	13.4560
 2.2530	13.3950
 2.2540	13.3310
 2.2550	13.2640
 2.2560	13.1990
 2.2570	13.1330
 2.2580	13.0670
 2.2590	13.0040
 2.2600	12.9390
 2.2610	12.8700
 2.2620	12.8040
 2.2630	12.7370
 2.2640	12.6710
 2.2650	12.6070
 2.2660	12.5390
 2.2670	12.4780
 2.2680	12.4200
 2.2690	12.3610
 2.2700	12.3060
 2.2710	12.2480
 2.2720	12.1870
 2.2730	12.1290
 2.2740	12.0700
 2.2750	12.0150
 2.2760	11.9610
 2.2770	11.9100
 2.2780	11.8660
 2.2790	11.8190
 2.2800	11.7730
 2.2810	11.7290
 2.2820	11.6840
 2.2830	11.6430
 2.2840	11.6070
 2.2850	11.5650
 2.2860	11.5210
 2.2870	11.4770
 2.2880	11.4290
 2.2890	11.3850
 2.2900	11.3440
 2.2910	11.3040
 2.2920	11.2640
 2.2930	11.2250
 2.2940	11.1900
 2.2950	11.1510
 2.2960	11.1120
 2.2970	11.0730
 2.2980	11.0300
 2.2990	10.9870
 2.3000	10.9490
 2.3010	10.9120
 2.3020	10.8810
 2.3030	10.8490
 2.3040	10.8160
 2.3050	10.7850
 2.3060	10.7530
 2.3070	10.7240
 2.3080	10.7040
 2.3090	10.6900
 2.3100	10.6780
 2.3110	10.6720
 2.3120	10.6600
 2.3130	10.6470
 2.3140	10.6360
 2.3150	10.6280
 2.3160	10.6160
 2.3170	10.6070
 2.3180	10.5920
 2.3190	10.5710
 2.3200	10.5510
 2.3210	10.5290
 2.3220	10.5050
 2.3230	10.4780
 2.3240	10.4520
 2.3250	10.4280
 2.3260	10.4020
 2.3270	10.3750
 2.3280	10.3500
 2.3290	10.3240
 2.3300	10.2940
 2.3310	10.2650
 2.3320	10.2310
 2.3330	10.1880
 2.3340	10.1510
 2.3350	10.1140
 2.3360	10.0770
 2.3370	10.0430
 2.3380	10.0060
 2.3390	 9.9650
 2.3400	 9.9270
 2.3410	 9.8870
 2.3420	 9.8490
 2.3430	 9.8140
 2.3440	 9.7820
 2.3450	 9.7550
 2.3460	 9.7270
 2.3470	 9.7030
 2.3480	 9.6760
 2.3490	 9.6440
 2.3500	 9.6210
 2.3510	 9.6080
 2.3520	 9.5880
 2.3530	 9.5730
 2.3540	 9.5520
 2.3550	 9.5230
 2.3560	 9.4910
 2.3570	 9.4680
 2.3580	 9.4440
 2.3590	 9.4230
 2.3600	 9.4030
 2.3610	 9.3750
 2.3620	 9.3540
 2.3630	 9.3320
 2.3640	 9.3040
 2.3650	 9.2700
 2.3660	 9.2310
 2.3670	 9.2010
 2.3680	 9.1660
 2.3690	 9.1340
 2.3700	 9.1110
 2.3710	 9.0860
 2.3720	 9.0590
 2.3730	 9.0380
 2.3740	 9.0190
 2.3750	 8.9880
 2.3760	 8.9590
 2.3770	 8.9340
 2.3780	 8.9010
 2.3790	 8.8660
 2.3800	 8.8350
 2.3810	 8.8060
 2.3820	 8.7780
 2.3830	 8.7520
 2.3840	 8.7240
 2.3850	 8.6870
 2.3860	 8.6470
 2.3870	 8.6130
 2.3880	 8.5840
 2.3890	 8.5550
 2.3900	 8.5300
 2.3910	 8.5010
 2.3920	 8.4650
 2.3930	 8.4280
 2.3940	 8.3860
 2.3950	 8.3490
 2.3960	 8.3170
 2.3970	 8.2830
 2.3980	 8.2550
 2.3990	 8.2330
 2.4000	 8.2030
 2.4010	 8.1690
 2.4020	 8.1440
 2.4030	 8.1080
 2.4040	 8.0750
 2.4050	 8.0540
 2.4060	 8.0270
 2.4070	 7.9930
 2.4080	 7.9620
 2.4090	 7.9300
 2.4100	 7.8910
 2.4110	 7.8640
 2.4120	 7.8350
 2.4130	 7.7920
 2.4140	 7.7600
 2.4150	 7.7180
 2.4160	 7.6680
 2.4170	 7.6370
 2.4180	 7.6140
 2.4190	 7.5920
 2.4200	 7.5730
 2.4210	 7.5550
 2.4220	 7.5220
 2.4230	 7.4960
 2.4240	 7.4690
 2.4250	 7.4220
 2.4260	 7.3860
 2.4270	 7.3580
 2.4280	 7.3210
 2.4290	 7.2870
 2.4300	 7.2590
 2.4310	 7.2270
 2.4320	 7.1940
 2.4330	 7.1660
 2.4340	 7.1320
 2.4350	 7.0830
 2.4360	 7.0450
 2.4370	 7.0130
 2.4380	 6.9840
 2.4390	 6.9710
 2.4400	 6.9370
 2.4410	 6.9110
 2.4420	 6.8920
 2.4430	 6.8460
 2.4440	 6.8200
 2.4450	 6.8020
 2.4460	 6.7720
 2.4470	 6.7620
 2.4480	 6.7390
 2.4490	 6.6950
 2.4500	 6.6630
 2.4510	 6.6260
 2.4520	 6.5880
 2.4530	 6.5670
 2.4540	 6.5370
 2.4550	 6.4990
 2.4560	 6.4730
 2.4570	 6.4500
 2.4580	 6.4430
 2.4590	 6.4430
 2.4600	 6.4280
 2.4610	 6.4110
 2.4620	 6.3810
 2.4630	 6.3470
 2.4640	 6.3240
 2.4650	 6.3020
 2.4660	 6.2680
 2.4670	 6.2390
 2.4680	 6.2240
 2.4690	 6.2180
 2.4700	 6.2040
 2.4710	 6.1930
 2.4720	 6.1700
 2.4730	 6.1270
 2.4740	 6.1060
 2.4750	 6.0900
 2.4760	 6.0860
 2.4770	 6.1070
 2.4780	 6.1020
 2.4790	 6.0910
 2.4800	 6.0770
 2.4810	 6.0430
 2.4820	 6.0310
 2.4830	 6.0090
 2.4840	 5.9970
 2.4850	 6.0070
 2.4860	 5.9960
 2.4870	 6.0170
 2.4880	 6.0190
 2.4890	 6.0000
 2.4900	 5.9950
 2.4910	 5.9450
 2.4920	 5.9140
 2.4930	 5.8670
 2.4940	 5.8480
 2.4950	 5.8920
 2.4960	 5.8800
 2.4970	 5.8870
 2.4980	 5.8810
 2.4990	 5.7760
 2.5000	 5.7300
