Name: Calocedrus decrruens 1
Type: vegetation
Class: Tree
Genus: Calocedrus
Species: decurrens
Sample No.: VH050
Owner: UCSB
Wavelength Range: VSWIR
Origin: 37.0432; -119.304; WGS84
Collection Date: 4/20/2013
Description: Samples were collected as part of the HyspIRI Airborne Campaign. 48 individual plants were sampled in three times in 2013 - spring  summer  and fall. The name of the sample includes a 1  2  or 3 which references a different individual of the species. Samples were taken to JPL and processed within 48 hours of collection. The same leaves were processed in the Nicolet and then measured using the ASD.
Measurement: Bidirectional reflectance
First Column: X
Second Column: Y
X Units: Wavelength (micrometers)
Y Units: Reflectance (percentage)
First X Value: 0.35
Last X Value: 2.5
Number of X Values: 2151
Additional Information: vegetation.tree.calocedrus.decurrens.vswir.vh050.ucsb.asd.ancillary.txt

 0.3500	 4.9430
 0.3510	 5.0630
 0.3520	 5.0390
 0.3530	 4.8980
 0.3540	 4.7280
 0.3550	 4.5850
 0.3560	 4.5430
 0.3570	 4.5700
 0.3580	 4.5790
 0.3590	 4.5160
 0.3600	 4.5030
 0.3610	 4.5580
 0.3620	 4.5330
 0.3630	 4.5980
 0.3640	 4.6580
 0.3650	 4.6210
 0.3660	 4.6400
 0.3670	 4.6550
 0.3680	 4.6120
 0.3690	 4.4940
 0.3700	 4.5970
 0.3710	 4.6280
 0.3720	 4.4880
 0.3730	 4.5720
 0.3740	 4.5870
 0.3750	 4.5500
 0.3760	 4.5520
 0.3770	 4.5530
 0.3780	 4.5100
 0.3790	 4.4290
 0.3800	 4.3620
 0.3810	 4.4580
 0.3820	 4.5170
 0.3830	 4.4410
 0.3840	 4.4770
 0.3850	 4.5370
 0.3860	 4.5540
 0.3870	 4.4990
 0.3880	 4.5300
 0.3890	 4.5500
 0.3900	 4.5240
 0.3910	 4.5020
 0.3920	 4.5310
 0.3930	 4.5930
 0.3940	 4.6470
 0.3950	 4.6370
 0.3960	 4.6370
 0.3970	 4.6800
 0.3980	 4.7600
 0.3990	 4.7590
 0.4000	 4.7500
 0.4010	 4.7840
 0.4020	 4.8630
 0.4030	 4.8490
 0.4040	 4.8310
 0.4050	 4.9040
 0.4060	 4.9740
 0.4070	 4.9840
 0.4080	 4.9710
 0.4090	 5.0260
 0.4100	 5.0800
 0.4110	 5.1150
 0.4120	 5.1350
 0.4130	 5.1720
 0.4140	 5.2170
 0.4150	 5.2550
 0.4160	 5.2770
 0.4170	 5.3190
 0.4180	 5.3470
 0.4190	 5.3650
 0.4200	 5.4080
 0.4210	 5.4420
 0.4220	 5.4750
 0.4230	 5.5100
 0.4240	 5.5200
 0.4250	 5.5310
 0.4260	 5.5510
 0.4270	 5.5790
 0.4280	 5.5930
 0.4290	 5.6080
 0.4300	 5.6290
 0.4310	 5.6430
 0.4320	 5.6520
 0.4330	 5.6680
 0.4340	 5.6990
 0.4350	 5.7180
 0.4360	 5.7380
 0.4370	 5.7580
 0.4380	 5.7660
 0.4390	 5.7970
 0.4400	 5.8340
 0.4410	 5.8610
 0.4420	 5.8780
 0.4430	 5.9030
 0.4440	 5.9370
 0.4450	 5.9730
 0.4460	 6.0110
 0.4470	 6.0500
 0.4480	 6.0840
 0.4490	 6.1060
 0.4500	 6.1430
 0.4510	 6.1840
 0.4520	 6.2160
 0.4530	 6.2610
 0.4540	 6.3040
 0.4550	 6.3390
 0.4560	 6.3690
 0.4570	 6.3840
 0.4580	 6.4000
 0.4590	 6.4240
 0.4600	 6.4460
 0.4610	 6.4570
 0.4620	 6.4670
 0.4630	 6.4900
 0.4640	 6.5080
 0.4650	 6.5200
 0.4660	 6.5280
 0.4670	 6.5320
 0.4680	 6.5360
 0.4690	 6.5430
 0.4700	 6.5520
 0.4710	 6.5580
 0.4720	 6.5650
 0.4730	 6.5760
 0.4740	 6.5940
 0.4750	 6.6050
 0.4760	 6.6020
 0.4770	 6.5940
 0.4780	 6.6110
 0.4790	 6.6260
 0.4800	 6.6370
 0.4810	 6.6490
 0.4820	 6.6650
 0.4830	 6.6790
 0.4840	 6.6880
 0.4850	 6.6990
 0.4860	 6.7190
 0.4870	 6.7470
 0.4880	 6.7790
 0.4890	 6.8110
 0.4900	 6.8490
 0.4910	 6.8990
 0.4920	 6.9640
 0.4930	 7.0240
 0.4940	 7.0870
 0.4950	 7.1570
 0.4960	 7.2350
 0.4970	 7.3210
 0.4980	 7.4250
 0.4990	 7.5520
 0.5000	 7.6700
 0.5010	 7.8020
 0.5020	 7.9570
 0.5030	 8.1310
 0.5040	 8.3110
 0.5050	 8.5060
 0.5060	 8.7210
 0.5070	 8.9510
 0.5080	 9.1940
 0.5090	 9.4590
 0.5100	 9.7520
 0.5110	10.0470
 0.5120	10.3580
 0.5130	10.6920
 0.5140	11.0360
 0.5150	11.3960
 0.5160	11.7710
 0.5170	12.1560
 0.5180	12.5410
 0.5190	12.9310
 0.5200	13.3270
 0.5210	13.7240
 0.5220	14.1110
 0.5230	14.4860
 0.5240	14.8490
 0.5250	15.2010
 0.5260	15.5380
 0.5270	15.8540
 0.5280	16.1480
 0.5290	16.4240
 0.5300	16.6830
 0.5310	16.9220
 0.5320	17.1350
 0.5330	17.3360
 0.5340	17.5210
 0.5350	17.6860
 0.5360	17.8410
 0.5370	17.9770
 0.5380	18.0980
 0.5390	18.2130
 0.5400	18.3220
 0.5410	18.4230
 0.5420	18.5180
 0.5430	18.6130
 0.5440	18.7040
 0.5450	18.7910
 0.5460	18.8760
 0.5470	18.9490
 0.5480	19.0200
 0.5490	19.0860
 0.5500	19.1360
 0.5510	19.1850
 0.5520	19.2200
 0.5530	19.2280
 0.5540	19.2180
 0.5550	19.1860
 0.5560	19.1330
 0.5570	19.0650
 0.5580	18.9750
 0.5590	18.8670
 0.5600	18.7480
 0.5610	18.6180
 0.5620	18.4730
 0.5630	18.3140
 0.5640	18.1430
 0.5650	17.9610
 0.5660	17.7670
 0.5670	17.5640
 0.5680	17.3530
 0.5690	17.1320
 0.5700	16.9050
 0.5710	16.6770
 0.5720	16.4530
 0.5730	16.2310
 0.5740	16.0150
 0.5750	15.8140
 0.5760	15.6230
 0.5770	15.4430
 0.5780	15.2750
 0.5790	15.1240
 0.5800	14.9820
 0.5810	14.8460
 0.5820	14.7130
 0.5830	14.5880
 0.5840	14.4710
 0.5850	14.3620
 0.5860	14.2580
 0.5870	14.1650
 0.5880	14.0760
 0.5890	13.9880
 0.5900	13.9150
 0.5910	13.8490
 0.5920	13.7880
 0.5930	13.7320
 0.5940	13.6810
 0.5950	13.6330
 0.5960	13.5880
 0.5970	13.5430
 0.5980	13.5050
 0.5990	13.4640
 0.6000	13.4110
 0.6010	13.3570
 0.6020	13.2950
 0.6030	13.2230
 0.6040	13.1400
 0.6050	13.0480
 0.6060	12.9460
 0.6070	12.8320
 0.6080	12.7100
 0.6090	12.5810
 0.6100	12.4500
 0.6110	12.3190
 0.6120	12.1830
 0.6130	12.0450
 0.6140	11.9090
 0.6150	11.7810
 0.6160	11.6560
 0.6170	11.5360
 0.6180	11.4250
 0.6190	11.3310
 0.6200	11.2470
 0.6210	11.1710
 0.6220	11.1060
 0.6230	11.0430
 0.6240	10.9910
 0.6250	10.9520
 0.6260	10.9230
 0.6270	10.9010
 0.6280	10.8820
 0.6290	10.8660
 0.6300	10.8610
 0.6310	10.8500
 0.6320	10.8290
 0.6330	10.8050
 0.6340	10.7660
 0.6350	10.7120
 0.6360	10.6450
 0.6370	10.5630
 0.6380	10.4650
 0.6390	10.3530
 0.6400	10.2290
 0.6410	10.0850
 0.6420	 9.9340
 0.6430	 9.7800
 0.6440	 9.6210
 0.6450	 9.4570
 0.6460	 9.2920
 0.6470	 9.1350
 0.6480	 8.9920
 0.6490	 8.8630
 0.6500	 8.7490
 0.6510	 8.6540
 0.6520	 8.5690
 0.6530	 8.4900
 0.6540	 8.4110
 0.6550	 8.3260
 0.6560	 8.2310
 0.6570	 8.1240
 0.6580	 8.0030
 0.6590	 7.8710
 0.6600	 7.7330
 0.6610	 7.5910
 0.6620	 7.4470
 0.6630	 7.3090
 0.6640	 7.1810
 0.6650	 7.0640
 0.6660	 6.9590
 0.6670	 6.8660
 0.6680	 6.7860
 0.6690	 6.7170
 0.6700	 6.6650
 0.6710	 6.6280
 0.6720	 6.6020
 0.6730	 6.5840
 0.6740	 6.5750
 0.6750	 6.5760
 0.6760	 6.5860
 0.6770	 6.6010
 0.6780	 6.6290
 0.6790	 6.6700
 0.6800	 6.7190
 0.6810	 6.7870
 0.6820	 6.8790
 0.6830	 6.9960
 0.6840	 7.1450
 0.6850	 7.3340
 0.6860	 7.5750
 0.6870	 7.8790
 0.6880	 8.2580
 0.6890	 8.7190
 0.6900	 9.2720
 0.6910	 9.9180
 0.6920	10.6610
 0.6930	11.4940
 0.6940	12.4090
 0.6950	13.3990
 0.6960	14.4560
 0.6970	15.5680
 0.6980	16.7160
 0.6990	17.9020
 0.7000	19.1120
 0.7010	20.3350
 0.7020	21.5650
 0.7030	22.8030
 0.7040	24.0400
 0.7050	25.2680
 0.7060	26.4820
 0.7070	27.6890
 0.7080	28.8850
 0.7090	30.0700
 0.7100	31.2560
 0.7110	32.4330
 0.7120	33.6000
 0.7130	34.7670
 0.7140	35.9300
 0.7150	37.0870
 0.7160	38.2360
 0.7170	39.3740
 0.7180	40.5060
 0.7190	41.6270
 0.7200	42.7310
 0.7210	43.8220
 0.7220	44.9020
 0.7230	45.9680
 0.7240	47.0060
 0.7250	48.0150
 0.7260	48.9990
 0.7270	49.9590
 0.7280	50.8810
 0.7290	51.7680
 0.7300	52.6230
 0.7310	53.4470
 0.7320	54.2320
 0.7330	54.9820
 0.7340	55.6990
 0.7350	56.3770
 0.7360	57.0250
 0.7370	57.6430
 0.7380	58.2290
 0.7390	58.7740
 0.7400	59.2880
 0.7410	59.7730
 0.7420	60.2270
 0.7430	60.6530
 0.7440	61.0450
 0.7450	61.4060
 0.7460	61.7440
 0.7470	62.0640
 0.7480	62.3550
 0.7490	62.6120
 0.7500	62.8590
 0.7510	63.0900
 0.7520	63.3020
 0.7530	63.4930
 0.7540	63.6650
 0.7550	63.8230
 0.7560	63.9670
 0.7570	64.0920
 0.7580	64.2170
 0.7590	64.3300
 0.7600	64.4250
 0.7610	64.5250
 0.7620	64.6110
 0.7630	64.6890
 0.7640	64.7670
 0.7650	64.8270
 0.7660	64.8820
 0.7670	64.9390
 0.7680	65.0000
 0.7690	65.0430
 0.7700	65.0810
 0.7710	65.1250
 0.7720	65.1720
 0.7730	65.2010
 0.7740	65.2250
 0.7750	65.2590
 0.7760	65.2910
 0.7770	65.3260
 0.7780	65.3610
 0.7790	65.3900
 0.7800	65.4200
 0.7810	65.4480
 0.7820	65.4710
 0.7830	65.4910
 0.7840	65.5130
 0.7850	65.5380
 0.7860	65.5620
 0.7870	65.5840
 0.7880	65.5990
 0.7890	65.6180
 0.7900	65.6470
 0.7910	65.6600
 0.7920	65.6770
 0.7930	65.7000
 0.7940	65.7210
 0.7950	65.7300
 0.7960	65.7400
 0.7970	65.7560
 0.7980	65.7740
 0.7990	65.7920
 0.8000	65.8040
 0.8010	65.8110
 0.8020	65.8220
 0.8030	65.8370
 0.8040	65.8490
 0.8050	65.8510
 0.8060	65.8500
 0.8070	65.8560
 0.8080	65.8680
 0.8090	65.8780
 0.8100	65.8770
 0.8110	65.8770
 0.8120	65.8840
 0.8130	65.8860
 0.8140	65.8880
 0.8150	65.8940
 0.8160	65.9060
 0.8170	65.9070
 0.8180	65.9100
 0.8190	65.9120
 0.8200	65.9080
 0.8210	65.9160
 0.8220	65.9260
 0.8230	65.9290
 0.8240	65.9220
 0.8250	65.9080
 0.8260	65.9010
 0.8270	65.9010
 0.8280	65.8890
 0.8290	65.8810
 0.8300	65.8780
 0.8310	65.8760
 0.8320	65.8540
 0.8330	65.8410
 0.8340	65.8410
 0.8350	65.8430
 0.8360	65.8480
 0.8370	65.8510
 0.8380	65.8530
 0.8390	65.8590
 0.8400	65.8630
 0.8410	65.8640
 0.8420	65.8630
 0.8430	65.8680
 0.8440	65.8770
 0.8450	65.8910
 0.8460	65.9080
 0.8470	65.9170
 0.8480	65.9240
 0.8490	65.9310
 0.8500	65.9360
 0.8510	65.9510
 0.8520	65.9540
 0.8530	65.9520
 0.8540	65.9650
 0.8550	65.9760
 0.8560	65.9830
 0.8570	65.9890
 0.8580	65.9970
 0.8590	65.9930
 0.8600	65.9950
 0.8610	66.0070
 0.8620	66.0060
 0.8630	66.0270
 0.8640	66.0440
 0.8650	66.0350
 0.8660	66.0400
 0.8670	66.0470
 0.8680	66.0540
 0.8690	66.0610
 0.8700	66.0640
 0.8710	66.0650
 0.8720	66.0680
 0.8730	66.0770
 0.8740	66.0750
 0.8750	66.0790
 0.8760	66.0880
 0.8770	66.0860
 0.8780	66.0670
 0.8790	66.0650
 0.8800	66.0860
 0.8810	66.0780
 0.8820	66.0760
 0.8830	66.0790
 0.8840	66.0760
 0.8850	66.0610
 0.8860	66.0580
 0.8870	66.0560
 0.8880	66.0420
 0.8890	66.0360
 0.8900	66.0230
 0.8910	66.0120
 0.8920	66.0140
 0.8930	66.0100
 0.8940	65.9960
 0.8950	65.9780
 0.8960	65.9640
 0.8970	65.9480
 0.8980	65.9350
 0.8990	65.9320
 0.9000	65.9400
 0.9010	65.9310
 0.9020	65.9150
 0.9030	65.8990
 0.9040	65.8780
 0.9050	65.8500
 0.9060	65.8340
 0.9070	65.8330
 0.9080	65.8090
 0.9090	65.8010
 0.9100	65.7870
 0.9110	65.7510
 0.9120	65.7340
 0.9130	65.7340
 0.9140	65.7270
 0.9150	65.6990
 0.9160	65.6890
 0.9170	65.6570
 0.9180	65.6210
 0.9190	65.6100
 0.9200	65.5880
 0.9210	65.5600
 0.9220	65.5310
 0.9230	65.5040
 0.9240	65.4610
 0.9250	65.4280
 0.9260	65.4030
 0.9270	65.3640
 0.9280	65.3130
 0.9290	65.2650
 0.9300	65.2220
 0.9310	65.1680
 0.9320	65.1160
 0.9330	65.0610
 0.9340	65.0020
 0.9350	64.9470
 0.9360	64.8910
 0.9370	64.8210
 0.9380	64.7420
 0.9390	64.6770
 0.9400	64.6000
 0.9410	64.5060
 0.9420	64.4090
 0.9430	64.3300
 0.9440	64.2370
 0.9450	64.1220
 0.9460	63.9920
 0.9470	63.8720
 0.9480	63.7490
 0.9490	63.6130
 0.9500	63.4580
 0.9510	63.2820
 0.9520	63.0900
 0.9530	62.9030
 0.9540	62.7330
 0.9550	62.5620
 0.9560	62.3860
 0.9570	62.2140
 0.9580	62.0560
 0.9590	61.8970
 0.9600	61.7620
 0.9610	61.6470
 0.9620	61.5380
 0.9630	61.4370
 0.9640	61.3320
 0.9650	61.2320
 0.9660	61.1540
 0.9670	61.1050
 0.9680	61.0460
 0.9690	60.9840
 0.9700	60.9380
 0.9710	60.8950
 0.9720	60.8550
 0.9730	60.8160
 0.9740	60.7740
 0.9750	60.7370
 0.9760	60.7110
 0.9770	60.6980
 0.9780	60.6930
 0.9790	60.6920
 0.9800	60.6890
 0.9810	60.6970
 0.9820	60.7280
 0.9830	60.7320
 0.9840	60.7510
 0.9850	60.7710
 0.9860	60.7580
 0.9870	60.7760
 0.9880	60.8250
 0.9890	60.8850
 0.9900	60.9310
 0.9910	60.9780
 0.9920	61.0490
 0.9930	61.1200
 0.9940	61.1910
 0.9950	61.2620
 0.9960	61.3330
 0.9970	61.4040
 0.9980	61.4750
 0.9990	61.5460
 1.0000	61.6170
 1.0010	61.6880
 1.0020	61.7590
 1.0030	61.8290
 1.0040	61.9000
 1.0050	61.9710
 1.0060	62.0420
 1.0070	62.1130
 1.0080	62.1840
 1.0090	62.2550
 1.0100	62.2550
 1.0110	62.3200
 1.0120	62.3900
 1.0130	62.4640
 1.0140	62.5370
 1.0150	62.6190
 1.0160	62.6890
 1.0170	62.7540
 1.0180	62.8230
 1.0190	62.8880
 1.0200	62.9570
 1.0210	63.0310
 1.0220	63.1010
 1.0230	63.1720
 1.0240	63.2430
 1.0250	63.3120
 1.0260	63.3830
 1.0270	63.4490
 1.0280	63.5070
 1.0290	63.5700
 1.0300	63.6330
 1.0310	63.6970
 1.0320	63.7620
 1.0330	63.8310
 1.0340	63.8970
 1.0350	63.9560
 1.0360	64.0170
 1.0370	64.0790
 1.0380	64.1360
 1.0390	64.1930
 1.0400	64.2480
 1.0410	64.2980
 1.0420	64.3500
 1.0430	64.4010
 1.0440	64.4520
 1.0450	64.5010
 1.0460	64.5510
 1.0470	64.6050
 1.0480	64.6520
 1.0490	64.6970
 1.0500	64.7400
 1.0510	64.7790
 1.0520	64.8110
 1.0530	64.8480
 1.0540	64.8880
 1.0550	64.9210
 1.0560	64.9540
 1.0570	64.9860
 1.0580	65.0110
 1.0590	65.0400
 1.0600	65.0710
 1.0610	65.0980
 1.0620	65.1230
 1.0630	65.1470
 1.0640	65.1690
 1.0650	65.1890
 1.0660	65.2060
 1.0670	65.2220
 1.0680	65.2370
 1.0690	65.2490
 1.0700	65.2620
 1.0710	65.2780
 1.0720	65.2860
 1.0730	65.2920
 1.0740	65.2970
 1.0750	65.2980
 1.0760	65.3010
 1.0770	65.3090
 1.0780	65.3100
 1.0790	65.3100
 1.0800	65.3050
 1.0810	65.2940
 1.0820	65.2850
 1.0830	65.2800
 1.0840	65.2680
 1.0850	65.2540
 1.0860	65.2410
 1.0870	65.2240
 1.0880	65.2020
 1.0890	65.1830
 1.0900	65.1660
 1.0910	65.1450
 1.0920	65.1260
 1.0930	65.0980
 1.0940	65.0600
 1.0950	65.0290
 1.0960	64.9950
 1.0970	64.9620
 1.0980	64.9330
 1.0990	64.9000
 1.1000	64.8630
 1.1010	64.8250
 1.1020	64.7860
 1.1030	64.7490
 1.1040	64.7090
 1.1050	64.6640
 1.1060	64.6200
 1.1070	64.5740
 1.1080	64.5270
 1.1090	64.4800
 1.1100	64.4300
 1.1110	64.3780
 1.1120	64.3250
 1.1130	64.2710
 1.1140	64.2120
 1.1150	64.1530
 1.1160	64.0870
 1.1170	64.0150
 1.1180	63.9380
 1.1190	63.8580
 1.1200	63.7680
 1.1210	63.6710
 1.1220	63.5660
 1.1230	63.4480
 1.1240	63.3180
 1.1250	63.1750
 1.1260	63.0240
 1.1270	62.8530
 1.1280	62.6720
 1.1290	62.4680
 1.1300	62.2470
 1.1310	62.0060
 1.1320	61.7460
 1.1330	61.4700
 1.1340	61.1740
 1.1350	60.8640
 1.1360	60.5380
 1.1370	60.1960
 1.1380	59.8450
 1.1390	59.4860
 1.1400	59.1170
 1.1410	58.7460
 1.1420	58.3710
 1.1430	57.9950
 1.1440	57.6260
 1.1450	57.2530
 1.1460	56.8990
 1.1470	56.5490
 1.1480	56.2180
 1.1490	55.8990
 1.1500	55.5960
 1.1510	55.3020
 1.1520	55.0310
 1.1530	54.7780
 1.1540	54.5420
 1.1550	54.3250
 1.1560	54.1230
 1.1570	53.9380
 1.1580	53.7700
 1.1590	53.6160
 1.1600	53.4780
 1.1610	53.3500
 1.1620	53.2270
 1.1630	53.1160
 1.1640	53.0170
 1.1650	52.9250
 1.1660	52.8460
 1.1670	52.7690
 1.1680	52.7000
 1.1690	52.6320
 1.1700	52.5690
 1.1710	52.5060
 1.1720	52.4480
 1.1730	52.3870
 1.1740	52.3260
 1.1750	52.2640
 1.1760	52.2000
 1.1770	52.1320
 1.1780	52.0630
 1.1790	51.9910
 1.1800	51.9210
 1.1810	51.8510
 1.1820	51.7780
 1.1830	51.7080
 1.1840	51.6390
 1.1850	51.5670
 1.1860	51.4990
 1.1870	51.4340
 1.1880	51.3720
 1.1890	51.3120
 1.1900	51.2540
 1.1910	51.1990
 1.1920	51.1470
 1.1930	51.0950
 1.1940	51.0490
 1.1950	51.0080
 1.1960	50.9700
 1.1970	50.9380
 1.1980	50.9150
 1.1990	50.8980
 1.2000	50.8870
 1.2010	50.8850
 1.2020	50.8910
 1.2030	50.9060
 1.2040	50.9260
 1.2050	50.9520
 1.2060	50.9830
 1.2070	51.0200
 1.2080	51.0650
 1.2090	51.1180
 1.2100	51.1770
 1.2110	51.2410
 1.2120	51.3120
 1.2130	51.3860
 1.2140	51.4640
 1.2150	51.5490
 1.2160	51.6400
 1.2170	51.7330
 1.2180	51.8290
 1.2190	51.9290
 1.2200	52.0270
 1.2210	52.1280
 1.2220	52.2310
 1.2230	52.3320
 1.2240	52.4350
 1.2250	52.5370
 1.2260	52.6380
 1.2270	52.7380
 1.2280	52.8320
 1.2290	52.9270
 1.2300	53.0170
 1.2310	53.1050
 1.2320	53.1940
 1.2330	53.2780
 1.2340	53.3590
 1.2350	53.4390
 1.2360	53.5140
 1.2370	53.5830
 1.2380	53.6520
 1.2390	53.7190
 1.2400	53.7850
 1.2410	53.8500
 1.2420	53.9130
 1.2430	53.9700
 1.2440	54.0230
 1.2450	54.0750
 1.2460	54.1270
 1.2470	54.1800
 1.2480	54.2310
 1.2490	54.2810
 1.2500	54.3250
 1.2510	54.3660
 1.2520	54.4040
 1.2530	54.4420
 1.2540	54.4780
 1.2550	54.5110
 1.2560	54.5440
 1.2570	54.5760
 1.2580	54.6050
 1.2590	54.6310
 1.2600	54.6550
 1.2610	54.6760
 1.2620	54.6930
 1.2630	54.7100
 1.2640	54.7240
 1.2650	54.7350
 1.2660	54.7440
 1.2670	54.7500
 1.2680	54.7520
 1.2690	54.7560
 1.2700	54.7560
 1.2710	54.7550
 1.2720	54.7520
 1.2730	54.7440
 1.2740	54.7340
 1.2750	54.7230
 1.2760	54.7100
 1.2770	54.6960
 1.2780	54.6800
 1.2790	54.6570
 1.2800	54.6340
 1.2810	54.6090
 1.2820	54.5800
 1.2830	54.5480
 1.2840	54.5100
 1.2850	54.4690
 1.2860	54.4230
 1.2870	54.3750
 1.2880	54.3230
 1.2890	54.2710
 1.2900	54.2100
 1.2910	54.1470
 1.2920	54.0810
 1.2930	54.0070
 1.2940	53.9310
 1.2950	53.8520
 1.2960	53.7670
 1.2970	53.6750
 1.2980	53.5790
 1.2990	53.4760
 1.3000	53.3680
 1.3010	53.2560
 1.3020	53.1380
 1.3030	53.0150
 1.3040	52.8870
 1.3050	52.7510
 1.3060	52.6120
 1.3070	52.4680
 1.3080	52.3180
 1.3090	52.1660
 1.3100	52.0060
 1.3110	51.8380
 1.3120	51.6670
 1.3130	51.4890
 1.3140	51.3060
 1.3150	51.1170
 1.3160	50.9240
 1.3170	50.7260
 1.3180	50.5220
 1.3190	50.3160
 1.3200	50.1040
 1.3210	49.8860
 1.3220	49.6650
 1.3230	49.4420
 1.3240	49.2120
 1.3250	48.9820
 1.3260	48.7480
 1.3270	48.5100
 1.3280	48.2710
 1.3290	48.0300
 1.3300	47.7860
 1.3310	47.5430
 1.3320	47.2960
 1.3330	47.0510
 1.3340	46.8080
 1.3350	46.5630
 1.3360	46.3220
 1.3370	46.0850
 1.3380	45.8460
 1.3390	45.6110
 1.3400	45.3760
 1.3410	45.1450
 1.3420	44.9190
 1.3430	44.6960
 1.3440	44.4780
 1.3450	44.2620
 1.3460	44.0480
 1.3470	43.8400
 1.3480	43.6340
 1.3490	43.4340
 1.3500	43.2390
 1.3510	43.0450
 1.3520	42.8520
 1.3530	42.6610
 1.3540	42.4690
 1.3550	42.2790
 1.3560	42.0900
 1.3570	41.9000
 1.3580	41.7110
 1.3590	41.5190
 1.3600	41.3220
 1.3610	41.1220
 1.3620	40.9160
 1.3630	40.7050
 1.3640	40.4870
 1.3650	40.2620
 1.3660	40.0290
 1.3670	39.7860
 1.3680	39.5320
 1.3690	39.2660
 1.3700	38.9830
 1.3710	38.6890
 1.3720	38.3800
 1.3730	38.0520
 1.3740	37.7090
 1.3750	37.3490
 1.3760	36.9680
 1.3770	36.5660
 1.3780	36.1380
 1.3790	35.6880
 1.3800	35.2170
 1.3810	34.7230
 1.3820	34.2150
 1.3830	33.6910
 1.3840	33.1510
 1.3850	32.5920
 1.3860	32.0260
 1.3870	31.4430
 1.3880	30.8600
 1.3890	30.2700
 1.3900	29.6740
 1.3910	29.0850
 1.3920	28.4940
 1.3930	27.9050
 1.3940	27.3260
 1.3950	26.7460
 1.3960	26.1790
 1.3970	25.6250
 1.3980	25.0840
 1.3990	24.5660
 1.4000	24.0630
 1.4010	23.5730
 1.4020	23.1050
 1.4030	22.6510
 1.4040	22.2180
 1.4050	21.8060
 1.4060	21.4110
 1.4070	21.0400
 1.4080	20.6890
 1.4090	20.3540
 1.4100	20.0400
 1.4110	19.7440
 1.4120	19.4650
 1.4130	19.2050
 1.4140	18.9610
 1.4150	18.7350
 1.4160	18.5240
 1.4170	18.3240
 1.4180	18.1390
 1.4190	17.9650
 1.4200	17.8020
 1.4210	17.6510
 1.4220	17.5110
 1.4230	17.3830
 1.4240	17.2650
 1.4250	17.1530
 1.4260	17.0510
 1.4270	16.9560
 1.4280	16.8700
 1.4290	16.7900
 1.4300	16.7180
 1.4310	16.6520
 1.4320	16.5920
 1.4330	16.5360
 1.4340	16.4860
 1.4350	16.4420
 1.4360	16.4050
 1.4370	16.3710
 1.4380	16.3420
 1.4390	16.3170
 1.4400	16.2960
 1.4410	16.2800
 1.4420	16.2670
 1.4430	16.2580
 1.4440	16.2520
 1.4450	16.2480
 1.4460	16.2460
 1.4470	16.2460
 1.4480	16.2480
 1.4490	16.2510
 1.4500	16.2570
 1.4510	16.2660
 1.4520	16.2760
 1.4530	16.2880
 1.4540	16.3020
 1.4550	16.3170
 1.4560	16.3330
 1.4570	16.3530
 1.4580	16.3770
 1.4590	16.4030
 1.4600	16.4340
 1.4610	16.4700
 1.4620	16.5060
 1.4630	16.5470
 1.4640	16.5920
 1.4650	16.6400
 1.4660	16.6930
 1.4670	16.7500
 1.4680	16.8120
 1.4690	16.8760
 1.4700	16.9450
 1.4710	17.0180
 1.4720	17.0920
 1.4730	17.1730
 1.4740	17.2580
 1.4750	17.3440
 1.4760	17.4340
 1.4770	17.5250
 1.4780	17.6170
 1.4790	17.7140
 1.4800	17.8110
 1.4810	17.9100
 1.4820	18.0110
 1.4830	18.1130
 1.4840	18.2180
 1.4850	18.3240
 1.4860	18.4310
 1.4870	18.5390
 1.4880	18.6470
 1.4890	18.7550
 1.4900	18.8650
 1.4910	18.9760
 1.4920	19.0890
 1.4930	19.2040
 1.4940	19.3180
 1.4950	19.4310
 1.4960	19.5450
 1.4970	19.6580
 1.4980	19.7720
 1.4990	19.8870
 1.5000	20.0030
 1.5010	20.1200
 1.5020	20.2350
 1.5030	20.3520
 1.5040	20.4680
 1.5050	20.5840
 1.5060	20.6980
 1.5070	20.8120
 1.5080	20.9260
 1.5090	21.0410
 1.5100	21.1550
 1.5110	21.2680
 1.5120	21.3820
 1.5130	21.4940
 1.5140	21.6060
 1.5150	21.7180
 1.5160	21.8290
 1.5170	21.9390
 1.5180	22.0470
 1.5190	22.1550
 1.5200	22.2620
 1.5210	22.3660
 1.5220	22.4700
 1.5230	22.5750
 1.5240	22.6780
 1.5250	22.7810
 1.5260	22.8850
 1.5270	22.9860
 1.5280	23.0870
 1.5290	23.1880
 1.5300	23.2870
 1.5310	23.3860
 1.5320	23.4840
 1.5330	23.5810
 1.5340	23.6760
 1.5350	23.7710
 1.5360	23.8660
 1.5370	23.9590
 1.5380	24.0510
 1.5390	24.1430
 1.5400	24.2320
 1.5410	24.3220
 1.5420	24.4130
 1.5430	24.5020
 1.5440	24.5930
 1.5450	24.6820
 1.5460	24.7710
 1.5470	24.8600
 1.5480	24.9460
 1.5490	25.0320
 1.5500	25.1170
 1.5510	25.2010
 1.5520	25.2870
 1.5530	25.3720
 1.5540	25.4550
 1.5550	25.5390
 1.5560	25.6210
 1.5570	25.7020
 1.5580	25.7820
 1.5590	25.8620
 1.5600	25.9410
 1.5610	26.0200
 1.5620	26.1000
 1.5630	26.1780
 1.5640	26.2550
 1.5650	26.3320
 1.5660	26.4070
 1.5670	26.4830
 1.5680	26.5590
 1.5690	26.6340
 1.5700	26.7100
 1.5710	26.7860
 1.5720	26.8620
 1.5730	26.9390
 1.5740	27.0130
 1.5750	27.0850
 1.5760	27.1570
 1.5770	27.2280
 1.5780	27.3030
 1.5790	27.3780
 1.5800	27.4510
 1.5810	27.5250
 1.5820	27.6000
 1.5830	27.6720
 1.5840	27.7450
 1.5850	27.8180
 1.5860	27.8890
 1.5870	27.9610
 1.5880	28.0340
 1.5890	28.1080
 1.5900	28.1800
 1.5910	28.2530
 1.5920	28.3270
 1.5930	28.3990
 1.5940	28.4710
 1.5950	28.5430
 1.5960	28.6150
 1.5970	28.6850
 1.5980	28.7570
 1.5990	28.8300
 1.6000	28.9040
 1.6010	28.9790
 1.6020	29.0540
 1.6030	29.1270
 1.6040	29.1980
 1.6050	29.2720
 1.6060	29.3440
 1.6070	29.4160
 1.6080	29.4870
 1.6090	29.5550
 1.6100	29.6220
 1.6110	29.6900
 1.6120	29.7570
 1.6130	29.8250
 1.6140	29.8930
 1.6150	29.9580
 1.6160	30.0230
 1.6170	30.0850
 1.6180	30.1440
 1.6190	30.2030
 1.6200	30.2610
 1.6210	30.3180
 1.6220	30.3720
 1.6230	30.4240
 1.6240	30.4740
 1.6250	30.5220
 1.6260	30.5690
 1.6270	30.6190
 1.6280	30.6690
 1.6290	30.7190
 1.6300	30.7700
 1.6310	30.8200
 1.6320	30.8700
 1.6330	30.9200
 1.6340	30.9720
 1.6350	31.0220
 1.6360	31.0710
 1.6370	31.1190
 1.6380	31.1660
 1.6390	31.2110
 1.6400	31.2560
 1.6410	31.2980
 1.6420	31.3370
 1.6430	31.3740
 1.6440	31.4100
 1.6450	31.4420
 1.6460	31.4730
 1.6470	31.5010
 1.6480	31.5250
 1.6490	31.5470
 1.6500	31.5640
 1.6510	31.5790
 1.6520	31.5920
 1.6530	31.6030
 1.6540	31.6110
 1.6550	31.6180
 1.6560	31.6210
 1.6570	31.6210
 1.6580	31.6200
 1.6590	31.6180
 1.6600	31.6140
 1.6610	31.6090
 1.6620	31.6010
 1.6630	31.5930
 1.6640	31.5850
 1.6650	31.5760
 1.6660	31.5680
 1.6670	31.5580
 1.6680	31.5470
 1.6690	31.5380
 1.6700	31.5270
 1.6710	31.5140
 1.6720	31.5020
 1.6730	31.4870
 1.6740	31.4670
 1.6750	31.4470
 1.6760	31.4230
 1.6770	31.3950
 1.6780	31.3640
 1.6790	31.3290
 1.6800	31.2900
 1.6810	31.2440
 1.6820	31.1940
 1.6830	31.1410
 1.6840	31.0810
 1.6850	31.0170
 1.6860	30.9510
 1.6870	30.8790
 1.6880	30.8070
 1.6890	30.7340
 1.6900	30.6550
 1.6910	30.5700
 1.6920	30.4860
 1.6930	30.3970
 1.6940	30.3100
 1.6950	30.2250
 1.6960	30.1390
 1.6970	30.0510
 1.6980	29.9630
 1.6990	29.8740
 1.7000	29.7840
 1.7010	29.6920
 1.7020	29.6030
 1.7030	29.5130
 1.7040	29.4270
 1.7050	29.3420
 1.7060	29.2580
 1.7070	29.1740
 1.7080	29.0940
 1.7090	29.0160
 1.7100	28.9420
 1.7110	28.8700
 1.7120	28.8020
 1.7130	28.7360
 1.7140	28.6760
 1.7150	28.6180
 1.7160	28.5630
 1.7170	28.5100
 1.7180	28.4590
 1.7190	28.4110
 1.7200	28.3660
 1.7210	28.3240
 1.7220	28.2840
 1.7230	28.2450
 1.7240	28.2070
 1.7250	28.1700
 1.7260	28.1350
 1.7270	28.1040
 1.7280	28.0780
 1.7290	28.0550
 1.7300	28.0370
 1.7310	28.0190
 1.7320	28.0040
 1.7330	27.9870
 1.7340	27.9730
 1.7350	27.9550
 1.7360	27.9380
 1.7370	27.9140
 1.7380	27.8870
 1.7390	27.8540
 1.7400	27.8150
 1.7410	27.7720
 1.7420	27.7220
 1.7430	27.6700
 1.7440	27.6120
 1.7450	27.5530
 1.7460	27.4910
 1.7470	27.4270
 1.7480	27.3600
 1.7490	27.2950
 1.7500	27.2270
 1.7510	27.1630
 1.7520	27.1000
 1.7530	27.0400
 1.7540	26.9830
 1.7550	26.9270
 1.7560	26.8740
 1.7570	26.8230
 1.7580	26.7750
 1.7590	26.7300
 1.7600	26.6870
 1.7610	26.6470
 1.7620	26.6090
 1.7630	26.5750
 1.7640	26.5430
 1.7650	26.5140
 1.7660	26.4860
 1.7670	26.4590
 1.7680	26.4330
 1.7690	26.4060
 1.7700	26.3810
 1.7710	26.3560
 1.7720	26.3330
 1.7730	26.3100
 1.7740	26.2880
 1.7750	26.2660
 1.7760	26.2470
 1.7770	26.2290
 1.7780	26.2130
 1.7790	26.1980
 1.7800	26.1870
 1.7810	26.1790
 1.7820	26.1730
 1.7830	26.1710
 1.7840	26.1710
 1.7850	26.1750
 1.7860	26.1790
 1.7870	26.1850
 1.7880	26.1910
 1.7890	26.2000
 1.7900	26.2120
 1.7910	26.2240
 1.7920	26.2360
 1.7930	26.2500
 1.7940	26.2660
 1.7950	26.2830
 1.7960	26.3040
 1.7970	26.3220
 1.7980	26.3410
 1.7990	26.3610
 1.8000	26.3820
 1.8010	26.4020
 1.8020	26.4230
 1.8030	26.4440
 1.8040	26.4650
 1.8050	26.4850
 1.8060	26.5070
 1.8070	26.5260
 1.8080	26.5440
 1.8090	26.5610
 1.8100	26.5770
 1.8110	26.5910
 1.8120	26.6050
 1.8130	26.6200
 1.8140	26.6320
 1.8150	26.6460
 1.8160	26.6590
 1.8170	26.6700
 1.8180	26.6840
 1.8190	26.7040
 1.8200	26.7160
 1.8210	26.7270
 1.8220	26.7350
 1.8230	26.7320
 1.8240	26.7360
 1.8250	26.7430
 1.8260	26.7480
 1.8270	26.7570
 1.8280	26.7650
 1.8290	26.7740
 1.8300	26.7820
 1.8310	26.7910
 1.8320	26.7990
 1.8330	26.8080
 1.8340	26.8160
 1.8350	26.8160
 1.8360	26.7850
 1.8370	26.7530
 1.8380	26.7160
 1.8390	26.6750
 1.8400	26.6290
 1.8410	26.5770
 1.8420	26.5180
 1.8430	26.4570
 1.8440	26.3880
 1.8450	26.3080
 1.8460	26.2220
 1.8470	26.1310
 1.8480	26.0310
 1.8490	25.9230
 1.8500	25.8030
 1.8510	25.6760
 1.8520	25.5340
 1.8530	25.3790
 1.8540	25.2120
 1.8550	25.0330
 1.8560	24.8450
 1.8570	24.6430
 1.8580	24.4230
 1.8590	24.1920
 1.8600	23.9480
 1.8610	23.6860
 1.8620	23.4120
 1.8630	23.1320
 1.8640	22.8310
 1.8650	22.5140
 1.8660	22.1840
 1.8670	21.8280
 1.8680	21.4560
 1.8690	21.0690
 1.8700	20.6650
 1.8710	20.2420
 1.8720	19.8110
 1.8730	19.3700
 1.8740	18.9170
 1.8750	18.4550
 1.8760	17.9780
 1.8770	17.4990
 1.8780	17.0150
 1.8790	16.5270
 1.8800	16.0440
 1.8810	15.5630
 1.8820	15.0790
 1.8830	14.5960
 1.8840	14.1160
 1.8850	13.6360
 1.8860	13.1670
 1.8870	12.7060
 1.8880	12.2540
 1.8890	11.8200
 1.8900	11.4000
 1.8910	11.0000
 1.8920	10.6140
 1.8930	10.2480
 1.8940	 9.9000
 1.8950	 9.5720
 1.8960	 9.2630
 1.8970	 8.9740
 1.8980	 8.7050
 1.8990	 8.4550
 1.9000	 8.2220
 1.9010	 8.0080
 1.9020	 7.8100
 1.9030	 7.6310
 1.9040	 7.4660
 1.9050	 7.3170
 1.9060	 7.1790
 1.9070	 7.0560
 1.9080	 6.9450
 1.9090	 6.8460
 1.9100	 6.7580
 1.9110	 6.6750
 1.9120	 6.6040
 1.9130	 6.5370
 1.9140	 6.4750
 1.9150	 6.4210
 1.9160	 6.3750
 1.9170	 6.3310
 1.9180	 6.2940
 1.9190	 6.2630
 1.9200	 6.2330
 1.9210	 6.2070
 1.9220	 6.1860
 1.9230	 6.1720
 1.9240	 6.1570
 1.9250	 6.1450
 1.9260	 6.1390
 1.9270	 6.1340
 1.9280	 6.1290
 1.9290	 6.1290
 1.9300	 6.1300
 1.9310	 6.1350
 1.9320	 6.1420
 1.9330	 6.1510
 1.9340	 6.1650
 1.9350	 6.1790
 1.9360	 6.1920
 1.9370	 6.2100
 1.9380	 6.2300
 1.9390	 6.2540
 1.9400	 6.2820
 1.9410	 6.3100
 1.9420	 6.3400
 1.9430	 6.3700
 1.9440	 6.4000
 1.9450	 6.4290
 1.9460	 6.4610
 1.9470	 6.4900
 1.9480	 6.5250
 1.9490	 6.5640
 1.9500	 6.6040
 1.9510	 6.6430
 1.9520	 6.6840
 1.9530	 6.7270
 1.9540	 6.7710
 1.9550	 6.8160
 1.9560	 6.8670
 1.9570	 6.9150
 1.9580	 6.9620
 1.9590	 7.0110
 1.9600	 7.0600
 1.9610	 7.1100
 1.9620	 7.1610
 1.9630	 7.2110
 1.9640	 7.2630
 1.9650	 7.3150
 1.9660	 7.3670
 1.9670	 7.4240
 1.9680	 7.4810
 1.9690	 7.5410
 1.9700	 7.5990
 1.9710	 7.6590
 1.9720	 7.7190
 1.9730	 7.7790
 1.9740	 7.8390
 1.9750	 7.9010
 1.9760	 7.9650
 1.9770	 8.0270
 1.9780	 8.0920
 1.9790	 8.1570
 1.9800	 8.2220
 1.9810	 8.2870
 1.9820	 8.3540
 1.9830	 8.4210
 1.9840	 8.4870
 1.9850	 8.5540
 1.9860	 8.6220
 1.9870	 8.6890
 1.9880	 8.7570
 1.9890	 8.8240
 1.9900	 8.8910
 1.9910	 8.9610
 1.9920	 9.0310
 1.9930	 9.1020
 1.9940	 9.1720
 1.9950	 9.2440
 1.9960	 9.3140
 1.9970	 9.3830
 1.9980	 9.4510
 1.9990	 9.5180
 2.0000	 9.5860
 2.0010	 9.6520
 2.0020	 9.7210
 2.0030	 9.7900
 2.0040	 9.8590
 2.0050	 9.9260
 2.0060	 9.9910
 2.0070	10.0580
 2.0080	10.1230
 2.0090	10.1880
 2.0100	10.2520
 2.0110	10.3170
 2.0120	10.3800
 2.0130	10.4450
 2.0140	10.5090
 2.0150	10.5720
 2.0160	10.6330
 2.0170	10.6930
 2.0180	10.7530
 2.0190	10.8150
 2.0200	10.8740
 2.0210	10.9310
 2.0220	10.9880
 2.0230	11.0460
 2.0240	11.1000
 2.0250	11.1540
 2.0260	11.2050
 2.0270	11.2530
 2.0280	11.3000
 2.0290	11.3470
 2.0300	11.3930
 2.0310	11.4400
 2.0320	11.4870
 2.0330	11.5320
 2.0340	11.5760
 2.0350	11.6190
 2.0360	11.6620
 2.0370	11.7040
 2.0380	11.7460
 2.0390	11.7860
 2.0400	11.8230
 2.0410	11.8590
 2.0420	11.8940
 2.0430	11.9270
 2.0440	11.9610
 2.0450	11.9950
 2.0460	12.0270
 2.0470	12.0590
 2.0480	12.0920
 2.0490	12.1250
 2.0500	12.1570
 2.0510	12.1880
 2.0520	12.2200
 2.0530	12.2520
 2.0540	12.2830
 2.0550	12.3150
 2.0560	12.3450
 2.0570	12.3750
 2.0580	12.4040
 2.0590	12.4340
 2.0600	12.4640
 2.0610	12.4940
 2.0620	12.5230
 2.0630	12.5530
 2.0640	12.5850
 2.0650	12.6160
 2.0660	12.6480
 2.0670	12.6790
 2.0680	12.7120
 2.0690	12.7420
 2.0700	12.7700
 2.0710	12.7970
 2.0720	12.8220
 2.0730	12.8490
 2.0740	12.8790
 2.0750	12.9110
 2.0760	12.9430
 2.0770	12.9770
 2.0780	13.0070
 2.0790	13.0330
 2.0800	13.0630
 2.0810	13.0930
 2.0820	13.1230
 2.0830	13.1550
 2.0840	13.1860
 2.0850	13.2160
 2.0860	13.2470
 2.0870	13.2780
 2.0880	13.3110
 2.0890	13.3420
 2.0900	13.3730
 2.0910	13.4050
 2.0920	13.4380
 2.0930	13.4710
 2.0940	13.5040
 2.0950	13.5370
 2.0960	13.5700
 2.0970	13.6030
 2.0980	13.6350
 2.0990	13.6700
 2.1000	13.7060
 2.1010	13.7420
 2.1020	13.7810
 2.1030	13.8180
 2.1040	13.8550
 2.1050	13.8900
 2.1060	13.9270
 2.1070	13.9630
 2.1080	14.0010
 2.1090	14.0410
 2.1100	14.0780
 2.1110	14.1140
 2.1120	14.1520
 2.1130	14.1870
 2.1140	14.2250
 2.1150	14.2640
 2.1160	14.3030
 2.1170	14.3400
 2.1180	14.3770
 2.1190	14.4140
 2.1200	14.4500
 2.1210	14.4860
 2.1220	14.5240
 2.1230	14.5600
 2.1240	14.5980
 2.1250	14.6330
 2.1260	14.6660
 2.1270	14.7010
 2.1280	14.7350
 2.1290	14.7700
 2.1300	14.8070
 2.1310	14.8400
 2.1320	14.8710
 2.1330	14.9040
 2.1340	14.9370
 2.1350	14.9710
 2.1360	15.0050
 2.1370	15.0390
 2.1380	15.0720
 2.1390	15.1050
 2.1400	15.1360
 2.1410	15.1700
 2.1420	15.2050
 2.1430	15.2410
 2.1440	15.2770
 2.1450	15.3170
 2.1460	15.3520
 2.1470	15.3850
 2.1480	15.4210
 2.1490	15.4580
 2.1500	15.4920
 2.1510	15.5270
 2.1520	15.5610
 2.1530	15.5880
 2.1540	15.6200
 2.1550	15.6580
 2.1560	15.6900
 2.1570	15.7220
 2.1580	15.7540
 2.1590	15.7840
 2.1600	15.8140
 2.1610	15.8480
 2.1620	15.8820
 2.1630	15.9150
 2.1640	15.9490
 2.1650	15.9800
 2.1660	16.0100
 2.1670	16.0420
 2.1680	16.0730
 2.1690	16.1070
 2.1700	16.1460
 2.1710	16.1780
 2.1720	16.2070
 2.1730	16.2380
 2.1740	16.2660
 2.1750	16.2970
 2.1760	16.3310
 2.1770	16.3620
 2.1780	16.3930
 2.1790	16.4230
 2.1800	16.4490
 2.1810	16.4770
 2.1820	16.5070
 2.1830	16.5340
 2.1840	16.5620
 2.1850	16.5900
 2.1860	16.6180
 2.1870	16.6440
 2.1880	16.6700
 2.1890	16.6970
 2.1900	16.7240
 2.1910	16.7510
 2.1920	16.7780
 2.1930	16.8050
 2.1940	16.8310
 2.1950	16.8530
 2.1960	16.8780
 2.1970	16.9080
 2.1980	16.9320
 2.1990	16.9540
 2.2000	16.9760
 2.2010	16.9960
 2.2020	17.0150
 2.2030	17.0360
 2.2040	17.0560
 2.2050	17.0750
 2.2060	17.0930
 2.2070	17.1080
 2.2080	17.1240
 2.2090	17.1360
 2.2100	17.1430
 2.2110	17.1530
 2.2120	17.1610
 2.2130	17.1680
 2.2140	17.1740
 2.2150	17.1770
 2.2160	17.1790
 2.2170	17.1800
 2.2180	17.1790
 2.2190	17.1760
 2.2200	17.1710
 2.2210	17.1640
 2.2220	17.1550
 2.2230	17.1430
 2.2240	17.1290
 2.2250	17.1130
 2.2260	17.0970
 2.2270	17.0770
 2.2280	17.0570
 2.2290	17.0300
 2.2300	16.9990
 2.2310	16.9650
 2.2320	16.9290
 2.2330	16.8910
 2.2340	16.8500
 2.2350	16.8090
 2.2360	16.7620
 2.2370	16.7090
 2.2380	16.6570
 2.2390	16.6050
 2.2400	16.5510
 2.2410	16.4970
 2.2420	16.4360
 2.2430	16.3680
 2.2440	16.3040
 2.2450	16.2400
 2.2460	16.1700
 2.2470	16.0970
 2.2480	16.0220
 2.2490	15.9390
 2.2500	15.8600
 2.2510	15.7870
 2.2520	15.7060
 2.2530	15.6200
 2.2540	15.5360
 2.2550	15.4470
 2.2560	15.3600
 2.2570	15.2770
 2.2580	15.1890
 2.2590	15.0960
 2.2600	15.0040
 2.2610	14.9080
 2.2620	14.8150
 2.2630	14.7250
 2.2640	14.6350
 2.2650	14.5490
 2.2660	14.4630
 2.2670	14.3800
 2.2680	14.2990
 2.2690	14.2190
 2.2700	14.1400
 2.2710	14.0630
 2.2720	13.9850
 2.2730	13.9140
 2.2740	13.8460
 2.2750	13.7840
 2.2760	13.7300
 2.2770	13.6730
 2.2780	13.6180
 2.2790	13.5640
 2.2800	13.5090
 2.2810	13.4570
 2.2820	13.4090
 2.2830	13.3570
 2.2840	13.3060
 2.2850	13.2530
 2.2860	13.2000
 2.2870	13.1460
 2.2880	13.0920
 2.2890	13.0370
 2.2900	12.9800
 2.2910	12.9230
 2.2920	12.8670
 2.2930	12.8080
 2.2940	12.7490
 2.2950	12.6890
 2.2960	12.6250
 2.2970	12.5630
 2.2980	12.5050
 2.2990	12.4390
 2.3000	12.3730
 2.3010	12.3160
 2.3020	12.2600
 2.3030	12.2130
 2.3040	12.1710
 2.3050	12.1320
 2.3060	12.0980
 2.3070	12.0720
 2.3080	12.0480
 2.3090	12.0260
 2.3100	12.0110
 2.3110	11.9920
 2.3120	11.9830
 2.3130	11.9830
 2.3140	11.9820
 2.3150	11.9860
 2.3160	11.9880
 2.3170	11.9890
 2.3180	11.9900
 2.3190	11.9940
 2.3200	11.9900
 2.3210	11.9830
 2.3220	11.9760
 2.3230	11.9690
 2.3240	11.9510
 2.3250	11.9300
 2.3260	11.9050
 2.3270	11.8660
 2.3280	11.8370
 2.3290	11.8170
 2.3300	11.7860
 2.3310	11.7520
 2.3320	11.7180
 2.3330	11.6750
 2.3340	11.6370
 2.3350	11.6040
 2.3360	11.5660
 2.3370	11.5280
 2.3380	11.4860
 2.3390	11.4350
 2.3400	11.3910
 2.3410	11.3480
 2.3420	11.3060
 2.3430	11.2680
 2.3440	11.2310
 2.3450	11.1900
 2.3460	11.1550
 2.3470	11.1260
 2.3480	11.0980
 2.3490	11.0720
 2.3500	11.0520
 2.3510	11.0390
 2.3520	11.0220
 2.3530	11.0060
 2.3540	10.9940
 2.3550	10.9700
 2.3560	10.9440
 2.3570	10.9200
 2.3580	10.8930
 2.3590	10.8770
 2.3600	10.8620
 2.3610	10.8420
 2.3620	10.8250
 2.3630	10.8020
 2.3640	10.7690
 2.3650	10.7410
 2.3660	10.7140
 2.3670	10.6810
 2.3680	10.6470
 2.3690	10.6120
 2.3700	10.5760
 2.3710	10.5390
 2.3720	10.5050
 2.3730	10.4740
 2.3740	10.4440
 2.3750	10.4120
 2.3760	10.3790
 2.3770	10.3540
 2.3780	10.3250
 2.3790	10.2940
 2.3800	10.2680
 2.3810	10.2290
 2.3820	10.1960
 2.3830	10.1710
 2.3840	10.1380
 2.3850	10.1150
 2.3860	10.0780
 2.3870	10.0360
 2.3880	10.0050
 2.3890	 9.9700
 2.3900	 9.9330
 2.3910	 9.9060
 2.3920	 9.8780
 2.3930	 9.8440
 2.3940	 9.8150
 2.3950	 9.7820
 2.3960	 9.7430
 2.3970	 9.7050
 2.3980	 9.6720
 2.3990	 9.6420
 2.4000	 9.6040
 2.4010	 9.5750
 2.4020	 9.5400
 2.4030	 9.4990
 2.4040	 9.4700
 2.4050	 9.4330
 2.4060	 9.3930
 2.4070	 9.3580
 2.4080	 9.3170
 2.4090	 9.2840
 2.4100	 9.2590
 2.4110	 9.2260
 2.4120	 9.1900
 2.4130	 9.1390
 2.4140	 9.0880
 2.4150	 9.0450
 2.4160	 8.9980
 2.4170	 8.9570
 2.4180	 8.9030
 2.4190	 8.8560
 2.4200	 8.8120
 2.4210	 8.7690
 2.4220	 8.7310
 2.4230	 8.6820
 2.4240	 8.6300
 2.4250	 8.5730
 2.4260	 8.5240
 2.4270	 8.4840
 2.4280	 8.4540
 2.4290	 8.4260
 2.4300	 8.3990
 2.4310	 8.3690
 2.4320	 8.3190
 2.4330	 8.2800
 2.4340	 8.2460
 2.4350	 8.1970
 2.4360	 8.1500
 2.4370	 8.1010
 2.4380	 8.0450
 2.4390	 7.9940
 2.4400	 7.9560
 2.4410	 7.9160
 2.4420	 7.8600
 2.4430	 7.8200
 2.4440	 7.7760
 2.4450	 7.7270
 2.4460	 7.7040
 2.4470	 7.6790
 2.4480	 7.6410
 2.4490	 7.6040
 2.4500	 7.5590
 2.4510	 7.4990
 2.4520	 7.4470
 2.4530	 7.4150
 2.4540	 7.3730
 2.4550	 7.3330
 2.4560	 7.3020
 2.4570	 7.2580
 2.4580	 7.2170
 2.4590	 7.1820
 2.4600	 7.1390
 2.4610	 7.1130
 2.4620	 7.1030
 2.4630	 7.0670
 2.4640	 7.0320
 2.4650	 6.9860
 2.4660	 6.9180
 2.4670	 6.8900
 2.4680	 6.8810
 2.4690	 6.8470
 2.4700	 6.8150
 2.4710	 6.7650
 2.4720	 6.7280
 2.4730	 6.7070
 2.4740	 6.6760
 2.4750	 6.6380
 2.4760	 6.6150
 2.4770	 6.6000
 2.4780	 6.5820
 2.4790	 6.5770
 2.4800	 6.5560
 2.4810	 6.5160
 2.4820	 6.4560
 2.4830	 6.4170
 2.4840	 6.3750
 2.4850	 6.3630
 2.4860	 6.3620
 2.4870	 6.3560
 2.4880	 6.3560
 2.4890	 6.3680
 2.4900	 6.3900
 2.4910	 6.4300
 2.4920	 6.4410
 2.4930	 6.3970
 2.4940	 6.3820
 2.4950	 6.3600
 2.4960	 6.2880
 2.4970	 6.2200
 2.4980	 6.1530
 2.4990	 6.0730
 2.5000	 6.0760
