Name: Adenostoma fasciculatum 1
Type: vegetation
Class: Shrub
Genus: Adenostoma
Species: fasciculatum
Sample No.: VH111
Owner: UCSB
Wavelength Range: VSWIR
Origin: 34.5084; -119.7687; WGS84
Collection Date: 6/3/2013
Description: Samples were collected as part of the HyspIRI Airborne Campaign. 48 individual plants were sampled in three times in 2013 - spring  summer  and fall. The name of the sample includes a 1  2  or 3 which references a different individual of the species. Samples were taken to JPL and processed within 48 hours of collection. The same leaves were processed in the Nicolet and then measured using the ASD.
Measurement: Bidirectional reflectance
First Column: X
Second Column: Y
X Units: Wavelength (micrometers)
Y Units: Reflectance (percentage)
First X Value: 0.35
Last X Value: 2.5
Number of X Values: 2151
Additional Information: vegetation.shrub.adenostoma.fasciculatum.vswir.vh111.ucsb.asd.ancillary.txt

 0.3500	 1.3950
 0.3510	 1.5490
 0.3520	 1.7050
 0.3530	 1.6700
 0.3540	 1.4390
 0.3550	 1.4100
 0.3560	 1.4590
 0.3570	 1.5300
 0.3580	 1.6000
 0.3590	 1.6200
 0.3600	 1.5860
 0.3610	 1.5130
 0.3620	 1.4290
 0.3630	 1.4450
 0.3640	 1.5890
 0.3650	 1.7720
 0.3660	 1.5920
 0.3670	 1.4680
 0.3680	 1.4830
 0.3690	 1.4850
 0.3700	 1.6140
 0.3710	 1.6770
 0.3720	 1.5700
 0.3730	 1.4040
 0.3740	 1.4160
 0.3750	 1.4630
 0.3760	 1.3680
 0.3770	 1.4510
 0.3780	 1.5780
 0.3790	 1.6380
 0.3800	 1.5820
 0.3810	 1.6330
 0.3820	 1.6780
 0.3830	 1.6330
 0.3840	 1.5850
 0.3850	 1.6350
 0.3860	 1.7120
 0.3870	 1.7030
 0.3880	 1.6490
 0.3890	 1.6330
 0.3900	 1.6640
 0.3910	 1.6700
 0.3920	 1.6450
 0.3930	 1.6220
 0.3940	 1.6220
 0.3950	 1.6170
 0.3960	 1.6350
 0.3970	 1.6730
 0.3980	 1.7140
 0.3990	 1.7100
 0.4000	 1.6920
 0.4010	 1.6930
 0.4020	 1.7360
 0.4030	 1.7850
 0.4040	 1.8060
 0.4050	 1.7880
 0.4060	 1.7930
 0.4070	 1.7920
 0.4080	 1.7950
 0.4090	 1.8260
 0.4100	 1.8310
 0.4110	 1.8380
 0.4120	 1.8620
 0.4130	 1.8900
 0.4140	 1.9120
 0.4150	 1.9350
 0.4160	 1.9640
 0.4170	 1.9760
 0.4180	 1.9840
 0.4190	 1.9950
 0.4200	 2.0120
 0.4210	 2.0510
 0.4220	 2.0880
 0.4230	 2.1050
 0.4240	 2.1110
 0.4250	 2.1060
 0.4260	 2.1030
 0.4270	 2.1170
 0.4280	 2.1460
 0.4290	 2.1720
 0.4300	 2.1900
 0.4310	 2.2110
 0.4320	 2.2480
 0.4330	 2.2660
 0.4340	 2.2450
 0.4350	 2.2720
 0.4360	 2.2820
 0.4370	 2.2710
 0.4380	 2.2810
 0.4390	 2.2950
 0.4400	 2.3110
 0.4410	 2.3290
 0.4420	 2.3400
 0.4430	 2.3530
 0.4440	 2.3690
 0.4450	 2.3840
 0.4460	 2.3860
 0.4470	 2.3930
 0.4480	 2.4120
 0.4490	 2.4410
 0.4500	 2.4620
 0.4510	 2.4710
 0.4520	 2.4720
 0.4530	 2.4780
 0.4540	 2.4930
 0.4550	 2.5070
 0.4560	 2.5070
 0.4570	 2.5220
 0.4580	 2.5430
 0.4590	 2.5600
 0.4600	 2.5600
 0.4610	 2.5570
 0.4620	 2.5620
 0.4630	 2.5780
 0.4640	 2.5810
 0.4650	 2.5830
 0.4660	 2.5900
 0.4670	 2.5990
 0.4680	 2.6010
 0.4690	 2.6060
 0.4700	 2.6200
 0.4710	 2.6260
 0.4720	 2.6240
 0.4730	 2.6220
 0.4740	 2.6290
 0.4750	 2.6410
 0.4760	 2.6480
 0.4770	 2.6500
 0.4780	 2.6570
 0.4790	 2.6640
 0.4800	 2.6680
 0.4810	 2.6670
 0.4820	 2.6650
 0.4830	 2.6770
 0.4840	 2.6990
 0.4850	 2.7100
 0.4860	 2.7180
 0.4870	 2.7250
 0.4880	 2.7320
 0.4890	 2.7420
 0.4900	 2.7580
 0.4910	 2.7760
 0.4920	 2.7890
 0.4930	 2.8140
 0.4940	 2.8370
 0.4950	 2.8510
 0.4960	 2.8650
 0.4970	 2.8880
 0.4980	 2.9200
 0.4990	 2.9520
 0.5000	 2.9770
 0.5010	 3.0160
 0.5020	 3.0650
 0.5030	 3.1010
 0.5040	 3.1420
 0.5050	 3.1890
 0.5060	 3.2400
 0.5070	 3.3020
 0.5080	 3.3660
 0.5090	 3.4340
 0.5100	 3.5090
 0.5110	 3.5820
 0.5120	 3.6620
 0.5130	 3.7520
 0.5140	 3.8460
 0.5150	 3.9400
 0.5160	 4.0390
 0.5170	 4.1480
 0.5180	 4.2660
 0.5190	 4.3840
 0.5200	 4.5020
 0.5210	 4.6260
 0.5220	 4.7500
 0.5230	 4.8680
 0.5240	 4.9840
 0.5250	 5.1040
 0.5260	 5.2170
 0.5270	 5.3240
 0.5280	 5.4300
 0.5290	 5.5240
 0.5300	 5.6130
 0.5310	 5.6980
 0.5320	 5.7750
 0.5330	 5.8440
 0.5340	 5.9090
 0.5350	 5.9730
 0.5360	 6.0250
 0.5370	 6.0750
 0.5380	 6.1210
 0.5390	 6.1590
 0.5400	 6.2060
 0.5410	 6.2550
 0.5420	 6.2990
 0.5430	 6.3390
 0.5440	 6.3760
 0.5450	 6.4100
 0.5460	 6.4390
 0.5470	 6.4550
 0.5480	 6.4730
 0.5490	 6.4970
 0.5500	 6.5200
 0.5510	 6.5380
 0.5520	 6.5520
 0.5530	 6.5610
 0.5540	 6.5630
 0.5550	 6.5580
 0.5560	 6.5440
 0.5570	 6.5230
 0.5580	 6.4950
 0.5590	 6.4650
 0.5600	 6.4340
 0.5610	 6.3920
 0.5620	 6.3440
 0.5630	 6.2930
 0.5640	 6.2390
 0.5650	 6.1870
 0.5660	 6.1330
 0.5670	 6.0740
 0.5680	 6.0070
 0.5690	 5.9350
 0.5700	 5.8630
 0.5710	 5.7950
 0.5720	 5.7260
 0.5730	 5.6570
 0.5740	 5.5890
 0.5750	 5.5270
 0.5760	 5.4730
 0.5770	 5.4240
 0.5780	 5.3750
 0.5790	 5.3310
 0.5800	 5.2850
 0.5810	 5.2410
 0.5820	 5.2040
 0.5830	 5.1720
 0.5840	 5.1440
 0.5850	 5.1170
 0.5860	 5.0920
 0.5870	 5.0680
 0.5880	 5.0430
 0.5890	 5.0190
 0.5900	 4.9970
 0.5910	 4.9800
 0.5920	 4.9680
 0.5930	 4.9540
 0.5940	 4.9410
 0.5950	 4.9290
 0.5960	 4.9180
 0.5970	 4.9130
 0.5980	 4.9070
 0.5990	 4.8990
 0.6000	 4.8900
 0.6010	 4.8820
 0.6020	 4.8690
 0.6030	 4.8500
 0.6040	 4.8310
 0.6050	 4.8070
 0.6060	 4.7810
 0.6070	 4.7550
 0.6080	 4.7280
 0.6090	 4.7020
 0.6100	 4.6770
 0.6110	 4.6540
 0.6120	 4.6160
 0.6130	 4.5730
 0.6140	 4.5310
 0.6150	 4.4950
 0.6160	 4.4600
 0.6170	 4.4290
 0.6180	 4.4030
 0.6190	 4.3780
 0.6200	 4.3570
 0.6210	 4.3410
 0.6220	 4.3260
 0.6230	 4.3110
 0.6240	 4.3020
 0.6250	 4.2980
 0.6260	 4.2920
 0.6270	 4.2880
 0.6280	 4.2870
 0.6290	 4.2850
 0.6300	 4.2850
 0.6310	 4.2850
 0.6320	 4.2820
 0.6330	 4.2730
 0.6340	 4.2610
 0.6350	 4.2450
 0.6360	 4.2260
 0.6370	 4.2040
 0.6380	 4.1800
 0.6390	 4.1530
 0.6400	 4.1180
 0.6410	 4.0780
 0.6420	 4.0390
 0.6430	 4.0030
 0.6440	 3.9630
 0.6450	 3.9210
 0.6460	 3.8830
 0.6470	 3.8490
 0.6480	 3.8120
 0.6490	 3.7800
 0.6500	 3.7550
 0.6510	 3.7360
 0.6520	 3.7170
 0.6530	 3.6980
 0.6540	 3.6780
 0.6550	 3.6560
 0.6560	 3.6360
 0.6570	 3.6150
 0.6580	 3.5900
 0.6590	 3.5570
 0.6600	 3.5220
 0.6610	 3.4880
 0.6620	 3.4560
 0.6630	 3.4260
 0.6640	 3.3980
 0.6650	 3.3720
 0.6660	 3.3480
 0.6670	 3.3280
 0.6680	 3.3130
 0.6690	 3.3030
 0.6700	 3.2980
 0.6710	 3.2930
 0.6720	 3.2900
 0.6730	 3.2950
 0.6740	 3.3040
 0.6750	 3.3140
 0.6760	 3.3270
 0.6770	 3.3430
 0.6780	 3.3640
 0.6790	 3.3890
 0.6800	 3.4140
 0.6810	 3.4510
 0.6820	 3.4940
 0.6830	 3.5400
 0.6840	 3.5920
 0.6850	 3.6590
 0.6860	 3.7410
 0.6870	 3.8340
 0.6880	 3.9440
 0.6890	 4.0730
 0.6900	 4.2260
 0.6910	 4.4120
 0.6920	 4.6290
 0.6930	 4.8770
 0.6940	 5.1570
 0.6950	 5.4780
 0.6960	 5.8330
 0.6970	 6.2170
 0.6980	 6.6310
 0.6990	 7.0760
 0.7000	 7.5470
 0.7010	 8.0390
 0.7020	 8.5460
 0.7030	 9.0750
 0.7040	 9.6180
 0.7050	10.1680
 0.7060	10.7250
 0.7070	11.2940
 0.7080	11.8710
 0.7090	12.4540
 0.7100	13.0470
 0.7110	13.6470
 0.7120	14.2550
 0.7130	14.8750
 0.7140	15.4970
 0.7150	16.1250
 0.7160	16.7620
 0.7170	17.4020
 0.7180	18.0410
 0.7190	18.6820
 0.7200	19.3270
 0.7210	19.9650
 0.7220	20.6000
 0.7230	21.2290
 0.7240	21.8450
 0.7250	22.4520
 0.7260	23.0480
 0.7270	23.6280
 0.7280	24.1890
 0.7290	24.7340
 0.7300	25.2610
 0.7310	25.7660
 0.7320	26.2520
 0.7330	26.7140
 0.7340	27.1540
 0.7350	27.5760
 0.7360	27.9770
 0.7370	28.3570
 0.7380	28.7160
 0.7390	29.0540
 0.7400	29.3740
 0.7410	29.6750
 0.7420	29.9540
 0.7430	30.2200
 0.7440	30.4630
 0.7450	30.6880
 0.7460	30.9050
 0.7470	31.1010
 0.7480	31.2810
 0.7490	31.4500
 0.7500	31.6060
 0.7510	31.7530
 0.7520	31.8860
 0.7530	32.0030
 0.7540	32.1210
 0.7550	32.2290
 0.7560	32.3240
 0.7570	32.4120
 0.7580	32.4960
 0.7590	32.5750
 0.7600	32.6470
 0.7610	32.7140
 0.7620	32.7780
 0.7630	32.8370
 0.7640	32.8900
 0.7650	32.9400
 0.7660	32.9900
 0.7670	33.0390
 0.7680	33.0860
 0.7690	33.1220
 0.7700	33.1580
 0.7710	33.1960
 0.7720	33.2360
 0.7730	33.2740
 0.7740	33.3060
 0.7750	33.3370
 0.7760	33.3750
 0.7770	33.4130
 0.7780	33.4460
 0.7790	33.4730
 0.7800	33.5030
 0.7810	33.5330
 0.7820	33.5620
 0.7830	33.5920
 0.7840	33.6200
 0.7850	33.6490
 0.7860	33.6800
 0.7870	33.7100
 0.7880	33.7380
 0.7890	33.7660
 0.7900	33.7950
 0.7910	33.8240
 0.7920	33.8490
 0.7930	33.8730
 0.7940	33.9010
 0.7950	33.9260
 0.7960	33.9500
 0.7970	33.9750
 0.7980	33.9990
 0.7990	34.0210
 0.8000	34.0460
 0.8010	34.0720
 0.8020	34.0900
 0.8030	34.1110
 0.8040	34.1330
 0.8050	34.1520
 0.8060	34.1750
 0.8070	34.1940
 0.8080	34.2130
 0.8090	34.2370
 0.8100	34.2550
 0.8110	34.2710
 0.8120	34.2910
 0.8130	34.3110
 0.8140	34.3280
 0.8150	34.3410
 0.8160	34.3570
 0.8170	34.3760
 0.8180	34.3880
 0.8190	34.3990
 0.8200	34.4160
 0.8210	34.4340
 0.8220	34.4510
 0.8230	34.4670
 0.8240	34.4800
 0.8250	34.4960
 0.8260	34.5110
 0.8270	34.5220
 0.8280	34.5300
 0.8290	34.5440
 0.8300	34.5590
 0.8310	34.5680
 0.8320	34.5770
 0.8330	34.5890
 0.8340	34.6000
 0.8350	34.6050
 0.8360	34.6200
 0.8370	34.6370
 0.8380	34.6530
 0.8390	34.6720
 0.8400	34.6880
 0.8410	34.7010
 0.8420	34.7150
 0.8430	34.7340
 0.8440	34.7480
 0.8450	34.7610
 0.8460	34.7800
 0.8470	34.7990
 0.8480	34.8120
 0.8490	34.8240
 0.8500	34.8410
 0.8510	34.8590
 0.8520	34.8750
 0.8530	34.8890
 0.8540	34.9040
 0.8550	34.9230
 0.8560	34.9380
 0.8570	34.9490
 0.8580	34.9700
 0.8590	34.9890
 0.8600	35.0040
 0.8610	35.0160
 0.8620	35.0320
 0.8630	35.0460
 0.8640	35.0600
 0.8650	35.0780
 0.8660	35.0960
 0.8670	35.1130
 0.8680	35.1300
 0.8690	35.1420
 0.8700	35.1480
 0.8710	35.1620
 0.8720	35.1820
 0.8730	35.1970
 0.8740	35.2150
 0.8750	35.2320
 0.8760	35.2460
 0.8770	35.2590
 0.8780	35.2760
 0.8790	35.2910
 0.8800	35.3020
 0.8810	35.3150
 0.8820	35.3280
 0.8830	35.3380
 0.8840	35.3450
 0.8850	35.3530
 0.8860	35.3710
 0.8870	35.3880
 0.8880	35.3940
 0.8890	35.4010
 0.8900	35.4140
 0.8910	35.4260
 0.8920	35.4320
 0.8930	35.4390
 0.8940	35.4470
 0.8950	35.4570
 0.8960	35.4640
 0.8970	35.4670
 0.8980	35.4760
 0.8990	35.4890
 0.9000	35.4990
 0.9010	35.5140
 0.9020	35.5220
 0.9030	35.5210
 0.9040	35.5240
 0.9050	35.5350
 0.9060	35.5470
 0.9070	35.5550
 0.9080	35.5550
 0.9090	35.5660
 0.9100	35.5780
 0.9110	35.5820
 0.9120	35.5860
 0.9130	35.5950
 0.9140	35.6010
 0.9150	35.6010
 0.9160	35.6080
 0.9170	35.6160
 0.9180	35.6230
 0.9190	35.6310
 0.9200	35.6300
 0.9210	35.6320
 0.9220	35.6360
 0.9230	35.6360
 0.9240	35.6360
 0.9250	35.6350
 0.9260	35.6340
 0.9270	35.6340
 0.9280	35.6270
 0.9290	35.6200
 0.9300	35.6120
 0.9310	35.5960
 0.9320	35.5910
 0.9330	35.5870
 0.9340	35.5750
 0.9350	35.5560
 0.9360	35.5440
 0.9370	35.5280
 0.9380	35.5070
 0.9390	35.4980
 0.9400	35.4720
 0.9410	35.4440
 0.9420	35.4250
 0.9430	35.3930
 0.9440	35.3710
 0.9450	35.3420
 0.9460	35.2950
 0.9470	35.2560
 0.9480	35.2010
 0.9490	35.1470
 0.9500	35.1040
 0.9510	35.0390
 0.9520	34.9750
 0.9530	34.9120
 0.9540	34.8430
 0.9550	34.7760
 0.9560	34.7060
 0.9570	34.6390
 0.9580	34.5820
 0.9590	34.5240
 0.9600	34.4630
 0.9610	34.4110
 0.9620	34.3770
 0.9630	34.3290
 0.9640	34.2970
 0.9650	34.2740
 0.9660	34.2420
 0.9670	34.2130
 0.9680	34.2050
 0.9690	34.1970
 0.9700	34.1640
 0.9710	34.1450
 0.9720	34.1270
 0.9730	34.1160
 0.9740	34.1180
 0.9750	34.1070
 0.9760	34.1090
 0.9770	34.1160
 0.9780	34.1060
 0.9790	34.1070
 0.9800	34.1150
 0.9810	34.1280
 0.9820	34.1430
 0.9830	34.1450
 0.9840	34.1600
 0.9850	34.1800
 0.9860	34.1870
 0.9870	34.2080
 0.9880	34.2390
 0.9890	34.2760
 0.9900	34.3070
 0.9910	34.3170
 0.9920	34.3400
 0.9930	34.3620
 0.9940	34.3840
 0.9950	34.4070
 0.9960	34.4290
 0.9970	34.4510
 0.9980	34.4740
 0.9990	34.4960
 1.0000	34.5190
 1.0010	34.5410
 1.0020	34.5630
 1.0030	34.5860
 1.0040	34.6080
 1.0050	34.6310
 1.0060	34.6530
 1.0070	34.6750
 1.0080	34.6980
 1.0090	34.7200
 1.0100	34.7200
 1.0110	34.7570
 1.0120	34.7940
 1.0130	34.8310
 1.0140	34.8690
 1.0150	34.9050
 1.0160	34.9430
 1.0170	34.9850
 1.0180	35.0240
 1.0190	35.0640
 1.0200	35.1050
 1.0210	35.1460
 1.0220	35.1830
 1.0230	35.2180
 1.0240	35.2530
 1.0250	35.2890
 1.0260	35.3220
 1.0270	35.3560
 1.0280	35.3920
 1.0290	35.4280
 1.0300	35.4660
 1.0310	35.5000
 1.0320	35.5320
 1.0330	35.5650
 1.0340	35.5960
 1.0350	35.6250
 1.0360	35.6550
 1.0370	35.6870
 1.0380	35.7170
 1.0390	35.7440
 1.0400	35.7730
 1.0410	35.8060
 1.0420	35.8340
 1.0430	35.8600
 1.0440	35.8870
 1.0450	35.9110
 1.0460	35.9370
 1.0470	35.9650
 1.0480	35.9900
 1.0490	36.0130
 1.0500	36.0360
 1.0510	36.0580
 1.0520	36.0800
 1.0530	36.1020
 1.0540	36.1250
 1.0550	36.1480
 1.0560	36.1720
 1.0570	36.1930
 1.0580	36.2120
 1.0590	36.2310
 1.0600	36.2450
 1.0610	36.2630
 1.0620	36.2820
 1.0630	36.3000
 1.0640	36.3210
 1.0650	36.3390
 1.0660	36.3590
 1.0670	36.3750
 1.0680	36.3890
 1.0690	36.4010
 1.0700	36.4140
 1.0710	36.4240
 1.0720	36.4350
 1.0730	36.4470
 1.0740	36.4580
 1.0750	36.4710
 1.0760	36.4800
 1.0770	36.4880
 1.0780	36.4960
 1.0790	36.5020
 1.0800	36.5090
 1.0810	36.5160
 1.0820	36.5220
 1.0830	36.5270
 1.0840	36.5320
 1.0850	36.5360
 1.0860	36.5410
 1.0870	36.5440
 1.0880	36.5450
 1.0890	36.5480
 1.0900	36.5520
 1.0910	36.5520
 1.0920	36.5510
 1.0930	36.5510
 1.0940	36.5470
 1.0950	36.5440
 1.0960	36.5450
 1.0970	36.5410
 1.0980	36.5350
 1.0990	36.5280
 1.1000	36.5190
 1.1010	36.5100
 1.1020	36.5040
 1.1030	36.4940
 1.1040	36.4850
 1.1050	36.4770
 1.1060	36.4650
 1.1070	36.4510
 1.1080	36.4380
 1.1090	36.4260
 1.1100	36.4090
 1.1110	36.3940
 1.1120	36.3750
 1.1130	36.3500
 1.1140	36.3270
 1.1150	36.3060
 1.1160	36.2810
 1.1170	36.2590
 1.1180	36.2290
 1.1190	36.1950
 1.1200	36.1560
 1.1210	36.1120
 1.1220	36.0640
 1.1230	36.0110
 1.1240	35.9560
 1.1250	35.8920
 1.1260	35.8230
 1.1270	35.7460
 1.1280	35.6630
 1.1290	35.5730
 1.1300	35.4790
 1.1310	35.3740
 1.1320	35.2610
 1.1330	35.1410
 1.1340	35.0110
 1.1350	34.8760
 1.1360	34.7330
 1.1370	34.5840
 1.1380	34.4290
 1.1390	34.2680
 1.1400	34.1020
 1.1410	33.9330
 1.1420	33.7600
 1.1430	33.5830
 1.1440	33.4080
 1.1450	33.2300
 1.1460	33.0560
 1.1470	32.8820
 1.1480	32.7140
 1.1490	32.5470
 1.1500	32.3910
 1.1510	32.2370
 1.1520	32.0950
 1.1530	31.9610
 1.1540	31.8360
 1.1550	31.7200
 1.1560	31.6110
 1.1570	31.5100
 1.1580	31.4180
 1.1590	31.3330
 1.1600	31.2550
 1.1610	31.1850
 1.1620	31.1220
 1.1630	31.0630
 1.1640	31.0100
 1.1650	30.9600
 1.1660	30.9140
 1.1670	30.8710
 1.1680	30.8340
 1.1690	30.7970
 1.1700	30.7640
 1.1710	30.7310
 1.1720	30.6990
 1.1730	30.6670
 1.1740	30.6380
 1.1750	30.6070
 1.1760	30.5750
 1.1770	30.5440
 1.1780	30.5110
 1.1790	30.4790
 1.1800	30.4470
 1.1810	30.4150
 1.1820	30.3820
 1.1830	30.3500
 1.1840	30.3180
 1.1850	30.2880
 1.1860	30.2590
 1.1870	30.2300
 1.1880	30.2040
 1.1890	30.1820
 1.1900	30.1600
 1.1910	30.1400
 1.1920	30.1210
 1.1930	30.1040
 1.1940	30.0890
 1.1950	30.0770
 1.1960	30.0670
 1.1970	30.0600
 1.1980	30.0550
 1.1990	30.0530
 1.2000	30.0550
 1.2010	30.0600
 1.2020	30.0700
 1.2030	30.0820
 1.2040	30.0980
 1.2050	30.1200
 1.2060	30.1440
 1.2070	30.1710
 1.2080	30.2050
 1.2090	30.2420
 1.2100	30.2790
 1.2110	30.3200
 1.2120	30.3660
 1.2130	30.4130
 1.2140	30.4630
 1.2150	30.5160
 1.2160	30.5720
 1.2170	30.6300
 1.2180	30.6900
 1.2190	30.7510
 1.2200	30.8120
 1.2210	30.8730
 1.2220	30.9350
 1.2230	30.9970
 1.2240	31.0590
 1.2250	31.1190
 1.2260	31.1770
 1.2270	31.2350
 1.2280	31.2920
 1.2290	31.3480
 1.2300	31.4010
 1.2310	31.4530
 1.2320	31.5030
 1.2330	31.5490
 1.2340	31.5940
 1.2350	31.6400
 1.2360	31.6840
 1.2370	31.7260
 1.2380	31.7680
 1.2390	31.8070
 1.2400	31.8440
 1.2410	31.8800
 1.2420	31.9180
 1.2430	31.9560
 1.2440	31.9920
 1.2450	32.0260
 1.2460	32.0580
 1.2470	32.0910
 1.2480	32.1230
 1.2490	32.1550
 1.2500	32.1850
 1.2510	32.2120
 1.2520	32.2380
 1.2530	32.2640
 1.2540	32.2880
 1.2550	32.3110
 1.2560	32.3320
 1.2570	32.3510
 1.2580	32.3700
 1.2590	32.3870
 1.2600	32.4030
 1.2610	32.4190
 1.2620	32.4340
 1.2630	32.4480
 1.2640	32.4600
 1.2650	32.4700
 1.2660	32.4800
 1.2670	32.4880
 1.2680	32.4950
 1.2690	32.5030
 1.2700	32.5080
 1.2710	32.5130
 1.2720	32.5160
 1.2730	32.5160
 1.2740	32.5150
 1.2750	32.5110
 1.2760	32.5060
 1.2770	32.5010
 1.2780	32.4940
 1.2790	32.4870
 1.2800	32.4770
 1.2810	32.4630
 1.2820	32.4490
 1.2830	32.4320
 1.2840	32.4140
 1.2850	32.3950
 1.2860	32.3740
 1.2870	32.3510
 1.2880	32.3270
 1.2890	32.3020
 1.2900	32.2750
 1.2910	32.2450
 1.2920	32.2110
 1.2930	32.1730
 1.2940	32.1340
 1.2950	32.0960
 1.2960	32.0530
 1.2970	32.0090
 1.2980	31.9620
 1.2990	31.9100
 1.3000	31.8560
 1.3010	31.8000
 1.3020	31.7370
 1.3030	31.6720
 1.3040	31.6050
 1.3050	31.5360
 1.3060	31.4640
 1.3070	31.3900
 1.3080	31.3130
 1.3090	31.2330
 1.3100	31.1480
 1.3110	31.0580
 1.3120	30.9650
 1.3130	30.8660
 1.3140	30.7640
 1.3150	30.6590
 1.3160	30.5510
 1.3170	30.4400
 1.3180	30.3240
 1.3190	30.2060
 1.3200	30.0840
 1.3210	29.9580
 1.3220	29.8300
 1.3230	29.6990
 1.3240	29.5630
 1.3250	29.4270
 1.3260	29.2880
 1.3270	29.1450
 1.3280	28.9990
 1.3290	28.8480
 1.3300	28.6960
 1.3310	28.5450
 1.3320	28.3910
 1.3330	28.2380
 1.3340	28.0830
 1.3350	27.9260
 1.3360	27.7710
 1.3370	27.6140
 1.3380	27.4570
 1.3390	27.3000
 1.3400	27.1430
 1.3410	26.9880
 1.3420	26.8350
 1.3430	26.6840
 1.3440	26.5340
 1.3450	26.3860
 1.3460	26.2380
 1.3470	26.0940
 1.3480	25.9530
 1.3490	25.8140
 1.3500	25.6780
 1.3510	25.5440
 1.3520	25.4100
 1.3530	25.2770
 1.3540	25.1440
 1.3550	25.0130
 1.3560	24.8820
 1.3570	24.7500
 1.3580	24.6200
 1.3590	24.4890
 1.3600	24.3550
 1.3610	24.2210
 1.3620	24.0820
 1.3630	23.9390
 1.3640	23.7940
 1.3650	23.6430
 1.3660	23.4880
 1.3670	23.3260
 1.3680	23.1580
 1.3690	22.9820
 1.3700	22.7940
 1.3710	22.5990
 1.3720	22.3940
 1.3730	22.1760
 1.3740	21.9490
 1.3750	21.7080
 1.3760	21.4510
 1.3770	21.1790
 1.3780	20.8900
 1.3790	20.5870
 1.3800	20.2700
 1.3810	19.9360
 1.3820	19.5920
 1.3830	19.2350
 1.3840	18.8690
 1.3850	18.4910
 1.3860	18.1100
 1.3870	17.7160
 1.3880	17.3250
 1.3890	16.9290
 1.3900	16.5300
 1.3910	16.1360
 1.3920	15.7410
 1.3930	15.3470
 1.3940	14.9600
 1.3950	14.5750
 1.3960	14.1980
 1.3970	13.8320
 1.3980	13.4760
 1.3990	13.1360
 1.4000	12.8070
 1.4010	12.4890
 1.4020	12.1840
 1.4030	11.8910
 1.4040	11.6130
 1.4050	11.3480
 1.4060	11.0970
 1.4070	10.8620
 1.4080	10.6410
 1.4090	10.4320
 1.4100	10.2380
 1.4110	10.0540
 1.4120	 9.8820
 1.4130	 9.7210
 1.4140	 9.5720
 1.4150	 9.4350
 1.4160	 9.3070
 1.4170	 9.1880
 1.4180	 9.0780
 1.4190	 8.9750
 1.4200	 8.8800
 1.4210	 8.7920
 1.4220	 8.7100
 1.4230	 8.6360
 1.4240	 8.5670
 1.4250	 8.5040
 1.4260	 8.4460
 1.4270	 8.3930
 1.4280	 8.3430
 1.4290	 8.2980
 1.4300	 8.2580
 1.4310	 8.2210
 1.4320	 8.1900
 1.4330	 8.1610
 1.4340	 8.1350
 1.4350	 8.1120
 1.4360	 8.0910
 1.4370	 8.0730
 1.4380	 8.0580
 1.4390	 8.0450
 1.4400	 8.0350
 1.4410	 8.0270
 1.4420	 8.0200
 1.4430	 8.0140
 1.4440	 8.0110
 1.4450	 8.0090
 1.4460	 8.0090
 1.4470	 8.0100
 1.4480	 8.0130
 1.4490	 8.0170
 1.4500	 8.0200
 1.4510	 8.0260
 1.4520	 8.0320
 1.4530	 8.0400
 1.4540	 8.0480
 1.4550	 8.0590
 1.4560	 8.0690
 1.4570	 8.0820
 1.4580	 8.0960
 1.4590	 8.1110
 1.4600	 8.1280
 1.4610	 8.1470
 1.4620	 8.1680
 1.4630	 8.1920
 1.4640	 8.2180
 1.4650	 8.2460
 1.4660	 8.2760
 1.4670	 8.3100
 1.4680	 8.3450
 1.4690	 8.3840
 1.4700	 8.4230
 1.4710	 8.4660
 1.4720	 8.5100
 1.4730	 8.5560
 1.4740	 8.6040
 1.4750	 8.6540
 1.4760	 8.7060
 1.4770	 8.7600
 1.4780	 8.8150
 1.4790	 8.8730
 1.4800	 8.9310
 1.4810	 8.9890
 1.4820	 9.0500
 1.4830	 9.1100
 1.4840	 9.1710
 1.4850	 9.2330
 1.4860	 9.2950
 1.4870	 9.3590
 1.4880	 9.4240
 1.4890	 9.4900
 1.4900	 9.5570
 1.4910	 9.6230
 1.4920	 9.6900
 1.4930	 9.7580
 1.4940	 9.8260
 1.4950	 9.8940
 1.4960	 9.9630
 1.4970	10.0310
 1.4980	10.1000
 1.4990	10.1700
 1.5000	10.2390
 1.5010	10.3100
 1.5020	10.3800
 1.5030	10.4520
 1.5040	10.5220
 1.5050	10.5920
 1.5060	10.6630
 1.5070	10.7330
 1.5080	10.8030
 1.5090	10.8720
 1.5100	10.9420
 1.5110	11.0110
 1.5120	11.0810
 1.5130	11.1500
 1.5140	11.2190
 1.5150	11.2880
 1.5160	11.3570
 1.5170	11.4250
 1.5180	11.4920
 1.5190	11.5590
 1.5200	11.6280
 1.5210	11.6950
 1.5220	11.7620
 1.5230	11.8290
 1.5240	11.8940
 1.5250	11.9600
 1.5260	12.0260
 1.5270	12.0910
 1.5280	12.1560
 1.5290	12.2190
 1.5300	12.2810
 1.5310	12.3420
 1.5320	12.4040
 1.5330	12.4650
 1.5340	12.5280
 1.5350	12.5900
 1.5360	12.6520
 1.5370	12.7120
 1.5380	12.7710
 1.5390	12.8300
 1.5400	12.8890
 1.5410	12.9500
 1.5420	13.0100
 1.5430	13.0690
 1.5440	13.1270
 1.5450	13.1840
 1.5460	13.2400
 1.5470	13.2970
 1.5480	13.3530
 1.5490	13.4080
 1.5500	13.4630
 1.5510	13.5170
 1.5520	13.5710
 1.5530	13.6230
 1.5540	13.6760
 1.5550	13.7290
 1.5560	13.7820
 1.5570	13.8350
 1.5580	13.8870
 1.5590	13.9390
 1.5600	13.9910
 1.5610	14.0420
 1.5620	14.0920
 1.5630	14.1420
 1.5640	14.1920
 1.5650	14.2410
 1.5660	14.2910
 1.5670	14.3410
 1.5680	14.3900
 1.5690	14.4380
 1.5700	14.4870
 1.5710	14.5350
 1.5720	14.5830
 1.5730	14.6310
 1.5740	14.6790
 1.5750	14.7270
 1.5760	14.7760
 1.5770	14.8240
 1.5780	14.8720
 1.5790	14.9200
 1.5800	14.9660
 1.5810	15.0130
 1.5820	15.0610
 1.5830	15.1070
 1.5840	15.1540
 1.5850	15.2000
 1.5860	15.2470
 1.5870	15.2930
 1.5880	15.3390
 1.5890	15.3850
 1.5900	15.4320
 1.5910	15.4780
 1.5920	15.5250
 1.5930	15.5720
 1.5940	15.6190
 1.5950	15.6660
 1.5960	15.7110
 1.5970	15.7560
 1.5980	15.8020
 1.5990	15.8480
 1.6000	15.8940
 1.6010	15.9390
 1.6020	15.9830
 1.6030	16.0270
 1.6040	16.0710
 1.6050	16.1140
 1.6060	16.1580
 1.6070	16.2010
 1.6080	16.2440
 1.6090	16.2860
 1.6100	16.3280
 1.6110	16.3690
 1.6120	16.4100
 1.6130	16.4500
 1.6140	16.4890
 1.6150	16.5280
 1.6160	16.5670
 1.6170	16.6050
 1.6180	16.6430
 1.6190	16.6790
 1.6200	16.7140
 1.6210	16.7490
 1.6220	16.7830
 1.6230	16.8170
 1.6240	16.8510
 1.6250	16.8830
 1.6260	16.9140
 1.6270	16.9460
 1.6280	16.9770
 1.6290	17.0070
 1.6300	17.0360
 1.6310	17.0640
 1.6320	17.0910
 1.6330	17.1180
 1.6340	17.1450
 1.6350	17.1710
 1.6360	17.1980
 1.6370	17.2220
 1.6380	17.2440
 1.6390	17.2640
 1.6400	17.2810
 1.6410	17.2980
 1.6420	17.3140
 1.6430	17.3280
 1.6440	17.3400
 1.6450	17.3510
 1.6460	17.3590
 1.6470	17.3650
 1.6480	17.3690
 1.6490	17.3700
 1.6500	17.3680
 1.6510	17.3640
 1.6520	17.3580
 1.6530	17.3510
 1.6540	17.3420
 1.6550	17.3320
 1.6560	17.3220
 1.6570	17.3090
 1.6580	17.2950
 1.6590	17.2800
 1.6600	17.2640
 1.6610	17.2480
 1.6620	17.2310
 1.6630	17.2150
 1.6640	17.1990
 1.6650	17.1840
 1.6660	17.1720
 1.6670	17.1600
 1.6680	17.1480
 1.6690	17.1360
 1.6700	17.1220
 1.6710	17.1080
 1.6720	17.0950
 1.6730	17.0810
 1.6740	17.0680
 1.6750	17.0510
 1.6760	17.0320
 1.6770	17.0100
 1.6780	16.9840
 1.6790	16.9580
 1.6800	16.9300
 1.6810	16.9000
 1.6820	16.8670
 1.6830	16.8310
 1.6840	16.7920
 1.6850	16.7510
 1.6860	16.7080
 1.6870	16.6630
 1.6880	16.6160
 1.6890	16.5660
 1.6900	16.5160
 1.6910	16.4650
 1.6920	16.4130
 1.6930	16.3600
 1.6940	16.3070
 1.6950	16.2530
 1.6960	16.1990
 1.6970	16.1440
 1.6980	16.0890
 1.6990	16.0330
 1.7000	15.9780
 1.7010	15.9240
 1.7020	15.8700
 1.7030	15.8170
 1.7040	15.7640
 1.7050	15.7110
 1.7060	15.6600
 1.7070	15.6090
 1.7080	15.5590
 1.7090	15.5090
 1.7100	15.4610
 1.7110	15.4120
 1.7120	15.3680
 1.7130	15.3260
 1.7140	15.2850
 1.7150	15.2480
 1.7160	15.2130
 1.7170	15.1800
 1.7180	15.1480
 1.7190	15.1190
 1.7200	15.0930
 1.7210	15.0700
 1.7220	15.0500
 1.7230	15.0310
 1.7240	15.0110
 1.7250	14.9920
 1.7260	14.9760
 1.7270	14.9620
 1.7280	14.9520
 1.7290	14.9430
 1.7300	14.9370
 1.7310	14.9320
 1.7320	14.9300
 1.7330	14.9250
 1.7340	14.9220
 1.7350	14.9160
 1.7360	14.9070
 1.7370	14.8960
 1.7380	14.8840
 1.7390	14.8670
 1.7400	14.8480
 1.7410	14.8240
 1.7420	14.7920
 1.7430	14.7620
 1.7440	14.7280
 1.7450	14.6940
 1.7460	14.6590
 1.7470	14.6240
 1.7480	14.5850
 1.7490	14.5500
 1.7500	14.5160
 1.7510	14.4820
 1.7520	14.4480
 1.7530	14.4140
 1.7540	14.3790
 1.7550	14.3470
 1.7560	14.3170
 1.7570	14.2910
 1.7580	14.2670
 1.7590	14.2440
 1.7600	14.2230
 1.7610	14.2030
 1.7620	14.1850
 1.7630	14.1680
 1.7640	14.1530
 1.7650	14.1420
 1.7660	14.1300
 1.7670	14.1180
 1.7680	14.1080
 1.7690	14.0980
 1.7700	14.0890
 1.7710	14.0810
 1.7720	14.0720
 1.7730	14.0620
 1.7740	14.0530
 1.7750	14.0420
 1.7760	14.0330
 1.7770	14.0250
 1.7780	14.0170
 1.7790	14.0100
 1.7800	14.0050
 1.7810	14.0000
 1.7820	13.9980
 1.7830	13.9990
 1.7840	13.9990
 1.7850	13.9990
 1.7860	14.0000
 1.7870	14.0010
 1.7880	14.0030
 1.7890	14.0070
 1.7900	14.0090
 1.7910	14.0140
 1.7920	14.0190
 1.7930	14.0260
 1.7940	14.0350
 1.7950	14.0440
 1.7960	14.0510
 1.7970	14.0600
 1.7980	14.0700
 1.7990	14.0800
 1.8000	14.0920
 1.8010	14.1030
 1.8020	14.1130
 1.8030	14.1220
 1.8040	14.1290
 1.8050	14.1390
 1.8060	14.1490
 1.8070	14.1590
 1.8080	14.1700
 1.8090	14.1800
 1.8100	14.1880
 1.8110	14.1970
 1.8120	14.2070
 1.8130	14.2160
 1.8140	14.2230
 1.8150	14.2290
 1.8160	14.2340
 1.8170	14.2390
 1.8180	14.2450
 1.8190	14.2540
 1.8200	14.2610
 1.8210	14.2680
 1.8220	14.2720
 1.8230	14.2730
 1.8240	14.2740
 1.8250	14.2740
 1.8260	14.2750
 1.8270	14.2860
 1.8280	14.2980
 1.8290	14.3100
 1.8300	14.3210
 1.8310	14.3330
 1.8320	14.3450
 1.8330	14.3560
 1.8340	14.3680
 1.8350	14.3680
 1.8360	14.3530
 1.8370	14.3340
 1.8380	14.3120
 1.8390	14.2850
 1.8400	14.2560
 1.8410	14.2240
 1.8420	14.1890
 1.8430	14.1480
 1.8440	14.1040
 1.8450	14.0550
 1.8460	14.0020
 1.8470	13.9480
 1.8480	13.8850
 1.8490	13.8160
 1.8500	13.7420
 1.8510	13.6630
 1.8520	13.5730
 1.8530	13.4770
 1.8540	13.3790
 1.8550	13.2700
 1.8560	13.1540
 1.8570	13.0310
 1.8580	12.8980
 1.8590	12.7580
 1.8600	12.6100
 1.8610	12.4550
 1.8620	12.2900
 1.8630	12.1170
 1.8640	11.9380
 1.8650	11.7480
 1.8660	11.5460
 1.8670	11.3320
 1.8680	11.1080
 1.8690	10.8730
 1.8700	10.6300
 1.8710	10.3820
 1.8720	10.1270
 1.8730	 9.8630
 1.8740	 9.5970
 1.8750	 9.3270
 1.8760	 9.0520
 1.8770	 8.7780
 1.8780	 8.5040
 1.8790	 8.2270
 1.8800	 7.9570
 1.8810	 7.6890
 1.8820	 7.4220
 1.8830	 7.1570
 1.8840	 6.8960
 1.8850	 6.6360
 1.8860	 6.3810
 1.8870	 6.1340
 1.8880	 5.8930
 1.8890	 5.6640
 1.8900	 5.4460
 1.8910	 5.2360
 1.8920	 5.0330
 1.8930	 4.8420
 1.8940	 4.6590
 1.8950	 4.4880
 1.8960	 4.3300
 1.8970	 4.1810
 1.8980	 4.0450
 1.8990	 3.9180
 1.9000	 3.7990
 1.9010	 3.6890
 1.9020	 3.5890
 1.9030	 3.4980
 1.9040	 3.4150
 1.9050	 3.3420
 1.9060	 3.2740
 1.9070	 3.2140
 1.9080	 3.1590
 1.9090	 3.1080
 1.9100	 3.0610
 1.9110	 3.0190
 1.9120	 2.9800
 1.9130	 2.9480
 1.9140	 2.9220
 1.9150	 2.8990
 1.9160	 2.8780
 1.9170	 2.8580
 1.9180	 2.8360
 1.9190	 2.8160
 1.9200	 2.8020
 1.9210	 2.7910
 1.9220	 2.7820
 1.9230	 2.7770
 1.9240	 2.7720
 1.9250	 2.7690
 1.9260	 2.7650
 1.9270	 2.7620
 1.9280	 2.7600
 1.9290	 2.7580
 1.9300	 2.7600
 1.9310	 2.7620
 1.9320	 2.7680
 1.9330	 2.7740
 1.9340	 2.7820
 1.9350	 2.7900
 1.9360	 2.8000
 1.9370	 2.8100
 1.9380	 2.8190
 1.9390	 2.8300
 1.9400	 2.8390
 1.9410	 2.8490
 1.9420	 2.8620
 1.9430	 2.8760
 1.9440	 2.8900
 1.9450	 2.9070
 1.9460	 2.9220
 1.9470	 2.9340
 1.9480	 2.9500
 1.9490	 2.9670
 1.9500	 2.9850
 1.9510	 3.0070
 1.9520	 3.0300
 1.9530	 3.0510
 1.9540	 3.0730
 1.9550	 3.0950
 1.9560	 3.1140
 1.9570	 3.1350
 1.9580	 3.1560
 1.9590	 3.1780
 1.9600	 3.2010
 1.9610	 3.2250
 1.9620	 3.2490
 1.9630	 3.2730
 1.9640	 3.2990
 1.9650	 3.3250
 1.9660	 3.3490
 1.9670	 3.3740
 1.9680	 3.4000
 1.9690	 3.4240
 1.9700	 3.4510
 1.9710	 3.4820
 1.9720	 3.5100
 1.9730	 3.5400
 1.9740	 3.5690
 1.9750	 3.5960
 1.9760	 3.6250
 1.9770	 3.6550
 1.9780	 3.6830
 1.9790	 3.7140
 1.9800	 3.7480
 1.9810	 3.7800
 1.9820	 3.8100
 1.9830	 3.8420
 1.9840	 3.8730
 1.9850	 3.9040
 1.9860	 3.9360
 1.9870	 3.9660
 1.9880	 3.9980
 1.9890	 4.0300
 1.9900	 4.0650
 1.9910	 4.0990
 1.9920	 4.1320
 1.9930	 4.1630
 1.9940	 4.1960
 1.9950	 4.2280
 1.9960	 4.2620
 1.9970	 4.2970
 1.9980	 4.3330
 1.9990	 4.3690
 2.0000	 4.4030
 2.0010	 4.4370
 2.0020	 4.4690
 2.0030	 4.5000
 2.0040	 4.5300
 2.0050	 4.5620
 2.0060	 4.5950
 2.0070	 4.6280
 2.0080	 4.6620
 2.0090	 4.6950
 2.0100	 4.7280
 2.0110	 4.7590
 2.0120	 4.7890
 2.0130	 4.8210
 2.0140	 4.8520
 2.0150	 4.8810
 2.0160	 4.9110
 2.0170	 4.9400
 2.0180	 4.9680
 2.0190	 4.9960
 2.0200	 5.0240
 2.0210	 5.0490
 2.0220	 5.0760
 2.0230	 5.1040
 2.0240	 5.1310
 2.0250	 5.1600
 2.0260	 5.1870
 2.0270	 5.2120
 2.0280	 5.2350
 2.0290	 5.2570
 2.0300	 5.2780
 2.0310	 5.3000
 2.0320	 5.3210
 2.0330	 5.3420
 2.0340	 5.3640
 2.0350	 5.3860
 2.0360	 5.4090
 2.0370	 5.4300
 2.0380	 5.4520
 2.0390	 5.4720
 2.0400	 5.4890
 2.0410	 5.5070
 2.0420	 5.5240
 2.0430	 5.5390
 2.0440	 5.5550
 2.0450	 5.5710
 2.0460	 5.5870
 2.0470	 5.6030
 2.0480	 5.6190
 2.0490	 5.6350
 2.0500	 5.6510
 2.0510	 5.6660
 2.0520	 5.6820
 2.0530	 5.6990
 2.0540	 5.7160
 2.0550	 5.7350
 2.0560	 5.7520
 2.0570	 5.7670
 2.0580	 5.7820
 2.0590	 5.7980
 2.0600	 5.8140
 2.0610	 5.8300
 2.0620	 5.8490
 2.0630	 5.8660
 2.0640	 5.8830
 2.0650	 5.8990
 2.0660	 5.9150
 2.0670	 5.9320
 2.0680	 5.9480
 2.0690	 5.9630
 2.0700	 5.9810
 2.0710	 5.9970
 2.0720	 6.0100
 2.0730	 6.0240
 2.0740	 6.0400
 2.0750	 6.0560
 2.0760	 6.0740
 2.0770	 6.0940
 2.0780	 6.1120
 2.0790	 6.1310
 2.0800	 6.1480
 2.0810	 6.1620
 2.0820	 6.1770
 2.0830	 6.1880
 2.0840	 6.2010
 2.0850	 6.2140
 2.0860	 6.2290
 2.0870	 6.2450
 2.0880	 6.2600
 2.0890	 6.2780
 2.0900	 6.2980
 2.0910	 6.3160
 2.0920	 6.3360
 2.0930	 6.3530
 2.0940	 6.3660
 2.0950	 6.3830
 2.0960	 6.4000
 2.0970	 6.4160
 2.0980	 6.4320
 2.0990	 6.4480
 2.1000	 6.4630
 2.1010	 6.4790
 2.1020	 6.4910
 2.1030	 6.5090
 2.1040	 6.5310
 2.1050	 6.5500
 2.1060	 6.5690
 2.1070	 6.5930
 2.1080	 6.6100
 2.1090	 6.6190
 2.1100	 6.6360
 2.1110	 6.6530
 2.1120	 6.6700
 2.1130	 6.6890
 2.1140	 6.7060
 2.1150	 6.7200
 2.1160	 6.7360
 2.1170	 6.7530
 2.1180	 6.7690
 2.1190	 6.7890
 2.1200	 6.8050
 2.1210	 6.8200
 2.1220	 6.8330
 2.1230	 6.8470
 2.1240	 6.8580
 2.1250	 6.8710
 2.1260	 6.8850
 2.1270	 6.9000
 2.1280	 6.9150
 2.1290	 6.9300
 2.1300	 6.9460
 2.1310	 6.9620
 2.1320	 6.9780
 2.1330	 6.9920
 2.1340	 7.0040
 2.1350	 7.0180
 2.1360	 7.0320
 2.1370	 7.0470
 2.1380	 7.0660
 2.1390	 7.0820
 2.1400	 7.0970
 2.1410	 7.1120
 2.1420	 7.1280
 2.1430	 7.1440
 2.1440	 7.1610
 2.1450	 7.1790
 2.1460	 7.1980
 2.1470	 7.2180
 2.1480	 7.2370
 2.1490	 7.2570
 2.1500	 7.2740
 2.1510	 7.2880
 2.1520	 7.3040
 2.1530	 7.3170
 2.1540	 7.3340
 2.1550	 7.3510
 2.1560	 7.3700
 2.1570	 7.3940
 2.1580	 7.4150
 2.1590	 7.4350
 2.1600	 7.4550
 2.1610	 7.4710
 2.1620	 7.4890
 2.1630	 7.5080
 2.1640	 7.5300
 2.1650	 7.5490
 2.1660	 7.5660
 2.1670	 7.5840
 2.1680	 7.6030
 2.1690	 7.6210
 2.1700	 7.6410
 2.1710	 7.6610
 2.1720	 7.6800
 2.1730	 7.6980
 2.1740	 7.7150
 2.1750	 7.7310
 2.1760	 7.7440
 2.1770	 7.7580
 2.1780	 7.7730
 2.1790	 7.7890
 2.1800	 7.8070
 2.1810	 7.8240
 2.1820	 7.8400
 2.1830	 7.8590
 2.1840	 7.8770
 2.1850	 7.8960
 2.1860	 7.9120
 2.1870	 7.9270
 2.1880	 7.9440
 2.1890	 7.9610
 2.1900	 7.9780
 2.1910	 7.9970
 2.1920	 8.0130
 2.1930	 8.0230
 2.1940	 8.0380
 2.1950	 8.0550
 2.1960	 8.0690
 2.1970	 8.0850
 2.1980	 8.1010
 2.1990	 8.1170
 2.2000	 8.1320
 2.2010	 8.1460
 2.2020	 8.1600
 2.2030	 8.1720
 2.2040	 8.1830
 2.2050	 8.1930
 2.2060	 8.2040
 2.2070	 8.2120
 2.2080	 8.2150
 2.2090	 8.2250
 2.2100	 8.2380
 2.2110	 8.2470
 2.2120	 8.2590
 2.2130	 8.2660
 2.2140	 8.2680
 2.2150	 8.2720
 2.2160	 8.2770
 2.2170	 8.2780
 2.2180	 8.2760
 2.2190	 8.2770
 2.2200	 8.2780
 2.2210	 8.2770
 2.2220	 8.2800
 2.2230	 8.2770
 2.2240	 8.2690
 2.2250	 8.2610
 2.2260	 8.2540
 2.2270	 8.2420
 2.2280	 8.2270
 2.2290	 8.2090
 2.2300	 8.1820
 2.2310	 8.1570
 2.2320	 8.1380
 2.2330	 8.1160
 2.2340	 8.0910
 2.2350	 8.0680
 2.2360	 8.0390
 2.2370	 8.0030
 2.2380	 7.9700
 2.2390	 7.9370
 2.2400	 7.9000
 2.2410	 7.8630
 2.2420	 7.8200
 2.2430	 7.7700
 2.2440	 7.7230
 2.2450	 7.6740
 2.2460	 7.6270
 2.2470	 7.5830
 2.2480	 7.5360
 2.2490	 7.4870
 2.2500	 7.4380
 2.2510	 7.3900
 2.2520	 7.3400
 2.2530	 7.2890
 2.2540	 7.2380
 2.2550	 7.1860
 2.2560	 7.1370
 2.2570	 7.0880
 2.2580	 7.0400
 2.2590	 6.9920
 2.2600	 6.9440
 2.2610	 6.8940
 2.2620	 6.8440
 2.2630	 6.7960
 2.2640	 6.7550
 2.2650	 6.7140
 2.2660	 6.6730
 2.2670	 6.6320
 2.2680	 6.5910
 2.2690	 6.5520
 2.2700	 6.5130
 2.2710	 6.4760
 2.2720	 6.4400
 2.2730	 6.4060
 2.2740	 6.3740
 2.2750	 6.3420
 2.2760	 6.3110
 2.2770	 6.2800
 2.2780	 6.2510
 2.2790	 6.2210
 2.2800	 6.1910
 2.2810	 6.1590
 2.2820	 6.1230
 2.2830	 6.0890
 2.2840	 6.0570
 2.2850	 6.0240
 2.2860	 5.9910
 2.2870	 5.9600
 2.2880	 5.9280
 2.2890	 5.8970
 2.2900	 5.8730
 2.2910	 5.8410
 2.2920	 5.8030
 2.2930	 5.7660
 2.2940	 5.7210
 2.2950	 5.6830
 2.2960	 5.6510
 2.2970	 5.6180
 2.2980	 5.5860
 2.2990	 5.5590
 2.3000	 5.5290
 2.3010	 5.5030
 2.3020	 5.4810
 2.3030	 5.4590
 2.3040	 5.4430
 2.3050	 5.4230
 2.3060	 5.4050
 2.3070	 5.3880
 2.3080	 5.3740
 2.3090	 5.3650
 2.3100	 5.3590
 2.3110	 5.3570
 2.3120	 5.3590
 2.3130	 5.3670
 2.3140	 5.3700
 2.3150	 5.3790
 2.3160	 5.3800
 2.3170	 5.3770
 2.3180	 5.3730
 2.3190	 5.3630
 2.3200	 5.3630
 2.3210	 5.3670
 2.3220	 5.3640
 2.3230	 5.3690
 2.3240	 5.3640
 2.3250	 5.3480
 2.3260	 5.3350
 2.3270	 5.3200
 2.3280	 5.3040
 2.3290	 5.2840
 2.3300	 5.2670
 2.3310	 5.2510
 2.3320	 5.2330
 2.3330	 5.2140
 2.3340	 5.1960
 2.3350	 5.1790
 2.3360	 5.1590
 2.3370	 5.1370
 2.3380	 5.1170
 2.3390	 5.0970
 2.3400	 5.0780
 2.3410	 5.0660
 2.3420	 5.0490
 2.3430	 5.0280
 2.3440	 5.0090
 2.3450	 4.9850
 2.3460	 4.9680
 2.3470	 4.9560
 2.3480	 4.9420
 2.3490	 4.9310
 2.3500	 4.9200
 2.3510	 4.9070
 2.3520	 4.8970
 2.3530	 4.8890
 2.3540	 4.8820
 2.3550	 4.8740
 2.3560	 4.8700
 2.3570	 4.8690
 2.3580	 4.8630
 2.3590	 4.8580
 2.3600	 4.8530
 2.3610	 4.8420
 2.3620	 4.8350
 2.3630	 4.8260
 2.3640	 4.8130
 2.3650	 4.7920
 2.3660	 4.7710
 2.3670	 4.7570
 2.3680	 4.7410
 2.3690	 4.7320
 2.3700	 4.7250
 2.3710	 4.7100
 2.3720	 4.6950
 2.3730	 4.6830
 2.3740	 4.6720
 2.3750	 4.6540
 2.3760	 4.6310
 2.3770	 4.6150
 2.3780	 4.5980
 2.3790	 4.5820
 2.3800	 4.5800
 2.3810	 4.5750
 2.3820	 4.5600
 2.3830	 4.5470
 2.3840	 4.5310
 2.3850	 4.5090
 2.3860	 4.4890
 2.3870	 4.4720
 2.3880	 4.4640
 2.3890	 4.4460
 2.3900	 4.4260
 2.3910	 4.4130
 2.3920	 4.3840
 2.3930	 4.3520
 2.3940	 4.3350
 2.3950	 4.3230
 2.3960	 4.3100
 2.3970	 4.3020
 2.3980	 4.2960
 2.3990	 4.2820
 2.4000	 4.2640
 2.4010	 4.2510
 2.4020	 4.2310
 2.4030	 4.2070
 2.4040	 4.1920
 2.4050	 4.1750
 2.4060	 4.1590
 2.4070	 4.1370
 2.4080	 4.1130
 2.4090	 4.0910
 2.4100	 4.0670
 2.4110	 4.0500
 2.4120	 4.0350
 2.4130	 4.0190
 2.4140	 4.0130
 2.4150	 4.0030
 2.4160	 3.9830
 2.4170	 3.9570
 2.4180	 3.9270
 2.4190	 3.9040
 2.4200	 3.8810
 2.4210	 3.8700
 2.4220	 3.8540
 2.4230	 3.8160
 2.4240	 3.7900
 2.4250	 3.7690
 2.4260	 3.7460
 2.4270	 3.7390
 2.4280	 3.7280
 2.4290	 3.7220
 2.4300	 3.7100
 2.4310	 3.6920
 2.4320	 3.6810
 2.4330	 3.6550
 2.4340	 3.6190
 2.4350	 3.5920
 2.4360	 3.5680
 2.4370	 3.5370
 2.4380	 3.5050
 2.4390	 3.4870
 2.4400	 3.4600
 2.4410	 3.4370
 2.4420	 3.4400
 2.4430	 3.4290
 2.4440	 3.4060
 2.4450	 3.3880
 2.4460	 3.3400
 2.4470	 3.3050
 2.4480	 3.2890
 2.4490	 3.2620
 2.4500	 3.2570
 2.4510	 3.2490
 2.4520	 3.2200
 2.4530	 3.2140
 2.4540	 3.2100
 2.4550	 3.1960
 2.4560	 3.1970
 2.4570	 3.1890
 2.4580	 3.1730
 2.4590	 3.1490
 2.4600	 3.1150
 2.4610	 3.0950
 2.4620	 3.0630
 2.4630	 3.0480
 2.4640	 3.0580
 2.4650	 3.0380
 2.4660	 3.0130
 2.4670	 2.9930
 2.4680	 2.9470
 2.4690	 2.9300
 2.4700	 2.9150
 2.4710	 2.9140
 2.4720	 2.9040
 2.4730	 2.8780
 2.4740	 2.8680
 2.4750	 2.8610
 2.4760	 2.8490
 2.4770	 2.8580
 2.4780	 2.8530
 2.4790	 2.8310
 2.4800	 2.8280
 2.4810	 2.8250
 2.4820	 2.8140
 2.4830	 2.8090
 2.4840	 2.7860
 2.4850	 2.7820
 2.4860	 2.7920
 2.4870	 2.7890
 2.4880	 2.7770
 2.4890	 2.7680
 2.4900	 2.7550
 2.4910	 2.7390
 2.4920	 2.7500
 2.4930	 2.7820
 2.4940	 2.8070
 2.4950	 2.8240
 2.4960	 2.8590
 2.4970	 2.8730
 2.4980	 2.8680
 2.4990	 2.8490
 2.5000	 2.8060
