Name: Ceanothus spinosus 3
Type: vegetation
Class: Shrub
Genus: Ceanothus
Species: spinosus
Sample No.: VH203
Owner: UCSB
Wavelength Range: TIR
Origin: 34.4906; -119.7908; WGS84
Collection Date: 10/13/2013
Description: Samples were collected as part of the HyspIRI Airborne Campaign. 48 individual plants were sampled in three times in 2013 - spring  summer  and fall. The name of the sample includes a 1  2  or 3 which references a different individual of the species. Samples were taken to JPL and processed within 48 hours of collection. The same leaves were processed in the Nicolet and then measured using the ASD.
Measurement: Hemispherical reflectance
First Column: X
Second Column: Y
X Units: Wavelength (micrometers)
Y Units: Reflectance (percentage)
First X Value: 2.501
Last X Value: 15.387
Number of X Values: 1737
Additional Information: vegetation.shrub.ceanothus.spinosus.tir.vh203.ucsb.nicolet.ancillary.txt

 2.5010	10.4550
 2.5030	10.1550
 2.5040	10.2090
 2.5050	10.4920
 2.5060	10.3980
 2.5070	10.2890
 2.5090	10.3820
 2.5100	10.1360
 2.5110	10.0740
 2.5120	10.2090
 2.5140	10.2630
 2.5150	10.1160
 2.5160	10.0990
 2.5170	10.1430
 2.5180	10.1450
 2.5200	10.0600
 2.5210	10.1490
 2.5220	10.1370
 2.5230	 9.9520
 2.5250	 9.9880
 2.5260	10.2320
 2.5270	10.2220
 2.5280	10.0890
 2.5290	 9.8020
 2.5310	 9.7080
 2.5320	 9.8840
 2.5330	10.0890
 2.5340	10.1420
 2.5360	10.2580
 2.5370	10.1950
 2.5380	 9.9910
 2.5390	 9.9000
 2.5410	10.0050
 2.5420	 9.8680
 2.5430	 9.8700
 2.5440	 9.9510
 2.5460	 9.9520
 2.5470	 9.8980
 2.5480	10.0140
 2.5490	 9.9720
 2.5510	 9.9780
 2.5520	 9.8900
 2.5530	 9.9880
 2.5540	 9.9830
 2.5560	 9.9090
 2.5570	 9.9060
 2.5580	10.0750
 2.5590	10.1600
 2.5610	10.1400
 2.5620	10.1490
 2.5630	10.2970
 2.5640	10.3230
 2.5660	10.2130
 2.5670	10.0430
 2.5680	10.1180
 2.5700	10.1750
 2.5710	10.1410
 2.5720	10.0610
 2.5730	10.0230
 2.5750	 9.9450
 2.5760	10.0730
 2.5770	10.1810
 2.5790	10.3940
 2.5800	10.2420
 2.5810	 9.9670
 2.5820	10.0030
 2.5840	10.2570
 2.5850	10.1280
 2.5860	 9.8590
 2.5880	 9.9250
 2.5890	10.1410
 2.5900	10.0490
 2.5910	 9.9540
 2.5930	 9.9810
 2.5940	 9.9390
 2.5950	 9.9190
 2.5970	 9.8760
 2.5980	 9.7530
 2.5990	 9.7420
 2.6000	 9.7480
 2.6020	 9.8270
 2.6030	 9.9290
 2.6040	10.0170
 2.6060	 9.8430
 2.6070	 9.7770
 2.6080	 9.7290
 2.6100	 9.7360
 2.6110	 9.6300
 2.6120	 9.5880
 2.6140	 9.5930
 2.6150	 9.4680
 2.6160	 9.2550
 2.6180	 9.2530
 2.6190	 9.3110
 2.6200	 9.3970
 2.6220	 9.2950
 2.6230	 9.1790
 2.6240	 9.4160
 2.6260	 9.4410
 2.6270	 9.0780
 2.6280	 8.7910
 2.6300	 8.8070
 2.6310	 9.0650
 2.6320	 9.0530
 2.6340	 9.0700
 2.6350	 8.8010
 2.6360	 8.6920
 2.6380	 8.7010
 2.6390	 8.5910
 2.6400	 8.5940
 2.6420	 8.4880
 2.6430	 8.4000
 2.6440	 8.4960
 2.6460	 8.4750
 2.6470	 8.3960
 2.6480	 8.1880
 2.6500	 8.0090
 2.6510	 7.9080
 2.6520	 7.8290
 2.6540	 7.7480
 2.6550	 7.7780
 2.6560	 7.7180
 2.6580	 7.7520
 2.6590	 7.7550
 2.6610	 7.7990
 2.6620	 7.5950
 2.6630	 7.4440
 2.6650	 7.5400
 2.6660	 7.5650
 2.6670	 7.3320
 2.6690	 7.0590
 2.6700	 7.1640
 2.6720	 7.2190
 2.6730	 7.0880
 2.6740	 6.8750
 2.6760	 6.7520
 2.6770	 6.9250
 2.6780	 6.9550
 2.6800	 6.9040
 2.6810	 6.7080
 2.6830	 6.7900
 2.6840	 6.8590
 2.6850	 6.5740
 2.6870	 6.3200
 2.6880	 6.2120
 2.6900	 6.1010
 2.6910	 6.0310
 2.6920	 6.0850
 2.6940	 5.9150
 2.6950	 5.6440
 2.6970	 5.5450
 2.6980	 5.5470
 2.6990	 5.5680
 2.7010	 5.5780
 2.7020	 5.5200
 2.7040	 5.2000
 2.7050	 4.9880
 2.7060	 4.9730
 2.7080	 5.1290
 2.7090	 5.1870
 2.7110	 5.0020
 2.7120	 4.8020
 2.7130	 4.7830
 2.7150	 4.8240
 2.7160	 4.7350
 2.7180	 4.6930
 2.7190	 4.8990
 2.7210	 4.8600
 2.7220	 4.5880
 2.7230	 4.6910
 2.7250	 4.9440
 2.7260	 4.8030
 2.7280	 4.8480
 2.7290	 4.8700
 2.7310	 4.9150
 2.7320	 4.8760
 2.7330	 4.4990
 2.7350	 4.4180
 2.7360	 4.3610
 2.7380	 4.2530
 2.7390	 4.3390
 2.7410	 4.3310
 2.7420	 4.2840
 2.7440	 4.0690
 2.7450	 3.6010
 2.7470	 3.5710
 2.7480	 3.8020
 2.7490	 4.7070
 2.7510	 5.1030
 2.7520	 4.4010
 2.7540	 3.9500
 2.7550	 4.7260
 2.7570	 5.2440
 2.7580	 5.1180
 2.7600	 4.8560
 2.7610	 4.6300
 2.7630	 4.2840
 2.7640	 4.2080
 2.7660	 4.5350
 2.7670	 4.2950
 2.7680	 4.1320
 2.7700	 4.0790
 2.7710	 4.1900
 2.7730	 3.7570
 2.7740	 3.8890
 2.7760	 4.0880
 2.7770	 4.3320
 2.7790	 4.4800
 2.7800	 4.6740
 2.7820	 4.3210
 2.7830	 4.1400
 2.7850	 4.1730
 2.7860	 4.2530
 2.7880	 4.3840
 2.7890	 4.6710
 2.7910	 4.6770
 2.7920	 4.6670
 2.7940	 4.7660
 2.7950	 4.8520
 2.7970	 4.7910
 2.7980	 4.9900
 2.8000	 4.9930
 2.8010	 4.7640
 2.8030	 4.3480
 2.8040	 4.2690
 2.8060	 4.3150
 2.8070	 4.4790
 2.8090	 4.3830
 2.8110	 4.4170
 2.8120	 4.5390
 2.8140	 4.5970
 2.8150	 4.7270
 2.8170	 4.7330
 2.8180	 4.5620
 2.8200	 4.6230
 2.8210	 4.5650
 2.8230	 4.6330
 2.8240	 4.6120
 2.8260	 4.9160
 2.8270	 5.0340
 2.8290	 4.7690
 2.8300	 4.3830
 2.8320	 4.3770
 2.8340	 4.3130
 2.8350	 4.4700
 2.8370	 4.6430
 2.8380	 4.3850
 2.8400	 4.2160
 2.8410	 4.5070
 2.8430	 4.5570
 2.8440	 4.8300
 2.8460	 4.9430
 2.8480	 4.6670
 2.8490	 4.6470
 2.8510	 4.9060
 2.8520	 4.8580
 2.8540	 4.7990
 2.8550	 4.5070
 2.8570	 4.5130
 2.8590	 4.5660
 2.8600	 4.6210
 2.8620	 4.5550
 2.8630	 4.6330
 2.8650	 4.7000
 2.8660	 4.7730
 2.8680	 4.5400
 2.8700	 4.9250
 2.8710	 5.1920
 2.8730	 4.9740
 2.8740	 4.5920
 2.8760	 4.5530
 2.8780	 4.8310
 2.8790	 4.4300
 2.8810	 3.6360
 2.8820	 3.9570
 2.8840	 4.4250
 2.8860	 4.8030
 2.8870	 5.0580
 2.8890	 4.7180
 2.8900	 4.3920
 2.8920	 4.4670
 2.8940	 4.6370
 2.8950	 4.5080
 2.8970	 4.2100
 2.8980	 3.9320
 2.9000	 4.2250
 2.9020	 4.7050
 2.9030	 4.6970
 2.9050	 4.7420
 2.9070	 5.0740
 2.9080	 5.1850
 2.9100	 4.8400
 2.9120	 4.5670
 2.9130	 4.7080
 2.9150	 4.8910
 2.9160	 4.8600
 2.9180	 4.8000
 2.9200	 4.6620
 2.9210	 4.7680
 2.9230	 4.7550
 2.9250	 4.7100
 2.9260	 4.7140
 2.9280	 4.7620
 2.9300	 4.7330
 2.9310	 4.9300
 2.9330	 4.9590
 2.9350	 4.9570
 2.9360	 4.7770
 2.9380	 4.7050
 2.9400	 4.8070
 2.9410	 4.9000
 2.9430	 4.7000
 2.9450	 4.8710
 2.9460	 5.0370
 2.9480	 4.9630
 2.9500	 4.8480
 2.9510	 4.7810
 2.9530	 5.4840
 2.9550	 4.6910
 2.9560	 3.7670
 2.9580	 3.7050
 2.9600	 3.9470
 2.9610	 3.8260
 2.9630	 4.3960
 2.9650	 6.6880
 2.9660	 6.7040
 2.9680	 4.0160
 2.9700	 4.2380
 2.9720	 3.8000
 2.9730	 1.7890
 2.9750	 1.8350
 2.9770	 2.4200
 2.9780	 1.6070
 2.9800	 3.0030
 2.9820	 4.3580
 2.9840	 3.3330
 2.9850	 3.6730
 2.9870	 5.4070
 2.9890	 5.7170
 2.9900	 4.8880
 2.9920	 2.2440
 2.9940	 1.3090
 2.9960	 3.0240
 2.9970	 2.5360
 2.9990	 2.2460
 3.0010	 3.0060
 3.0030	 3.8220
 3.0040	 2.3150
 3.0060	 2.5770
 3.0080	 3.3830
 3.0100	 2.3810
 3.0110	 2.4430
 3.0130	 3.8110
 3.0150	 4.2560
 3.0170	 4.5360
 3.0180	 4.4630
 3.0200	 3.5120
 3.0220	 3.1310
 3.0240	 3.3880
 3.0250	 3.9490
 3.0270	 4.9910
 3.0290	 4.5750
 3.0310	 4.0750
 3.0320	 3.5890
 3.0340	 4.0420
 3.0360	 3.2190
 3.0380	 3.4900
 3.0400	 3.4780
 3.0410	 3.3950
 3.0430	 4.7120
 3.0450	 5.4250
 3.0470	 4.7010
 3.0480	 4.3900
 3.0500	 5.5690
 3.0520	 7.4500
 3.0540	 7.0490
 3.0560	 6.5830
 3.0570	 5.8530
 3.0590	 4.4450
 3.0610	 4.7780
 3.0630	 4.7620
 3.0650	 3.4770
 3.0660	 3.2830
 3.0680	 4.3700
 3.0700	 4.6460
 3.0720	 4.2630
 3.0740	 4.7360
 3.0760	 4.4110
 3.0770	 4.4570
 3.0790	 4.4830
 3.0810	 4.2490
 3.0830	 4.2740
 3.0850	 4.5340
 3.0870	 4.5510
 3.0880	 4.6060
 3.0900	 4.7360
 3.0920	 4.4430
 3.0940	 4.0140
 3.0960	 4.0620
 3.0980	 4.0230
 3.0990	 4.0800
 3.1010	 4.0870
 3.1030	 4.5610
 3.1050	 4.8280
 3.1070	 4.6970
 3.1090	 4.5890
 3.1110	 4.6010
 3.1120	 4.6590
 3.1140	 4.7240
 3.1160	 4.0810
 3.1180	 4.0140
 3.1200	 4.4490
 3.1220	 4.4520
 3.1240	 4.0050
 3.1260	 3.7540
 3.1270	 4.1290
 3.1290	 4.5740
 3.1310	 4.5690
 3.1330	 4.4970
 3.1350	 4.9580
 3.1370	 4.6040
 3.1390	 3.6670
 3.1410	 4.3270
 3.1430	 4.6830
 3.1450	 4.4450
 3.1460	 4.1280
 3.1480	 4.1520
 3.1500	 5.1900
 3.1520	 5.0510
 3.1540	 4.0910
 3.1560	 3.8810
 3.1580	 5.2390
 3.1600	 6.4950
 3.1620	 6.9310
 3.1640	 5.8100
 3.1660	 2.7570
 3.1680	 3.0680
 3.1700	 6.3670
 3.1710	 8.9120
 3.1730	 8.9040
 3.1750	 7.9340
 3.1770	 6.6540
 3.1790	 4.7860
 3.1810	 4.3190
 3.1830	 4.6100
 3.1850	 4.7820
 3.1870	 4.6770
 3.1890	 4.4400
 3.1910	 4.6650
 3.1930	 4.7860
 3.1950	 4.3590
 3.1970	 4.0370
 3.1990	 3.9470
 3.2010	 3.8240
 3.2030	 4.4790
 3.2050	 4.6610
 3.2070	 4.3300
 3.2090	 4.2620
 3.2110	 4.6480
 3.2130	 4.6080
 3.2150	 4.6260
 3.2170	 4.2710
 3.2190	 4.1880
 3.2210	 4.2850
 3.2230	 4.3490
 3.2250	 4.2950
 3.2270	 4.1660
 3.2290	 3.8830
 3.2310	 4.1250
 3.2330	 4.4310
 3.2350	 4.4700
 3.2370	 4.1880
 3.2390	 4.0290
 3.2410	 3.9340
 3.2430	 4.1690
 3.2450	 4.3190
 3.2470	 4.3060
 3.2490	 4.2170
 3.2510	 4.5240
 3.2530	 4.5920
 3.2550	 4.3740
 3.2570	 3.9290
 3.2590	 3.5530
 3.2610	 4.2630
 3.2630	 4.4130
 3.2650	 4.2500
 3.2670	 4.3450
 3.2690	 4.0190
 3.2720	 4.0640
 3.2740	 4.1280
 3.2760	 4.0500
 3.2780	 3.9250
 3.2800	 3.8960
 3.2820	 3.8360
 3.2840	 4.0870
 3.2860	 4.3370
 3.2880	 4.4760
 3.2900	 3.9430
 3.2920	 3.8880
 3.2940	 4.0790
 3.2960	 4.6300
 3.2990	 4.5440
 3.3010	 4.2350
 3.3030	 4.6390
 3.3050	 4.4110
 3.3070	 3.6840
 3.3090	 3.8850
 3.3110	 3.7940
 3.3130	 3.5490
 3.3150	 3.9310
 3.3180	 4.2640
 3.3200	 4.4550
 3.3220	 4.2280
 3.3240	 3.8540
 3.3260	 3.9200
 3.3280	 3.8270
 3.3300	 3.8360
 3.3330	 3.9620
 3.3350	 4.2050
 3.3370	 4.3100
 3.3390	 3.9700
 3.3410	 3.6110
 3.3430	 3.5450
 3.3450	 3.7600
 3.3480	 3.8880
 3.3500	 3.8850
 3.3520	 3.8810
 3.3540	 3.7500
 3.3560	 3.7830
 3.3580	 3.5960
 3.3610	 3.5470
 3.3630	 3.8360
 3.3650	 3.9210
 3.3670	 3.7410
 3.3690	 3.8300
 3.3720	 3.7960
 3.3740	 3.6810
 3.3760	 3.6820
 3.3780	 3.9100
 3.3800	 3.9390
 3.3830	 3.8920
 3.3850	 3.7030
 3.3870	 3.6660
 3.3890	 3.7410
 3.3910	 3.5380
 3.3940	 3.4910
 3.3960	 3.5680
 3.3980	 3.5430
 3.4000	 3.6950
 3.4020	 3.6750
 3.4050	 3.9510
 3.4070	 4.0990
 3.4090	 4.1310
 3.4110	 4.2370
 3.4140	 4.5550
 3.4160	 4.6520
 3.4180	 4.7320
 3.4200	 4.9100
 3.4230	 5.3430
 3.4250	 5.7370
 3.4270	 6.2340
 3.4290	 6.4080
 3.4320	 6.0780
 3.4340	 5.7070
 3.4360	 5.7000
 3.4390	 5.5910
 3.4410	 5.4270
 3.4430	 5.1760
 3.4450	 4.6290
 3.4480	 4.1950
 3.4500	 4.2280
 3.4520	 4.3530
 3.4550	 4.5120
 3.4570	 4.4840
 3.4590	 4.6880
 3.4620	 4.8660
 3.4640	 4.9380
 3.4660	 4.8340
 3.4680	 4.8590
 3.4710	 4.8970
 3.4730	 4.9180
 3.4750	 4.7690
 3.4780	 4.6760
 3.4800	 4.6160
 3.4820	 4.6720
 3.4850	 4.6490
 3.4870	 4.5710
 3.4890	 4.3950
 3.4920	 4.2700
 3.4940	 4.3770
 3.4970	 4.6880
 3.4990	 4.7150
 3.5010	 4.8360
 3.5040	 5.1650
 3.5060	 5.5050
 3.5080	 6.1460
 3.5110	 6.5720
 3.5130	 6.3150
 3.5160	 5.9890
 3.5180	 5.7190
 3.5200	 5.5360
 3.5230	 5.4410
 3.5250	 5.5290
 3.5270	 5.3770
 3.5300	 5.1390
 3.5320	 5.1270
 3.5350	 5.2630
 3.5370	 5.1860
 3.5400	 5.2390
 3.5420	 5.2620
 3.5440	 5.1510
 3.5470	 5.1390
 3.5490	 5.1720
 3.5520	 5.0660
 3.5540	 5.0290
 3.5570	 4.9640
 3.5590	 5.0100
 3.5610	 5.0930
 3.5640	 5.0850
 3.5660	 5.0490
 3.5690	 5.0820
 3.5710	 5.0060
 3.5740	 4.9950
 3.5760	 5.0540
 3.5790	 5.1210
 3.5810	 5.2770
 3.5840	 5.3320
 3.5860	 5.0440
 3.5890	 5.0840
 3.5910	 5.1450
 3.5930	 4.7560
 3.5960	 4.4690
 3.5980	 4.5290
 3.6010	 4.6870
 3.6030	 5.0650
 3.6060	 5.1590
 3.6080	 4.9940
 3.6110	 4.7770
 3.6140	 4.8110
 3.6160	 4.8370
 3.6190	 5.0200
 3.6210	 5.0360
 3.6240	 4.8780
 3.6260	 4.8230
 3.6290	 4.9800
 3.6310	 5.0800
 3.6340	 5.1710
 3.6360	 5.0540
 3.6390	 5.0130
 3.6410	 5.0550
 3.6440	 5.1730
 3.6470	 5.1530
 3.6490	 5.0860
 3.6520	 5.0440
 3.6540	 4.9570
 3.6570	 4.8560
 3.6590	 4.9920
 3.6620	 5.1200
 3.6650	 5.3420
 3.6670	 5.3520
 3.6700	 5.2080
 3.6720	 5.1020
 3.6750	 5.0920
 3.6780	 4.9890
 3.6800	 5.0740
 3.6830	 5.1420
 3.6850	 5.0730
 3.6880	 5.0650
 3.6910	 5.1600
 3.6930	 5.1880
 3.6960	 5.1870
 3.6990	 5.1780
 3.7010	 5.2070
 3.7040	 5.2770
 3.7060	 5.4140
 3.7090	 5.3140
 3.7120	 5.1680
 3.7140	 5.1350
 3.7170	 5.1990
 3.7200	 5.1080
 3.7220	 5.1530
 3.7250	 5.2510
 3.7280	 5.3130
 3.7300	 5.1760
 3.7330	 5.1560
 3.7360	 5.3540
 3.7390	 5.4130
 3.7410	 5.2900
 3.7440	 5.2520
 3.7470	 5.2780
 3.7490	 5.3380
 3.7520	 5.2180
 3.7550	 5.1150
 3.7580	 5.1510
 3.7600	 5.2180
 3.7630	 5.1290
 3.7660	 5.1750
 3.7680	 5.2480
 3.7710	 5.2890
 3.7740	 5.4030
 3.7770	 5.4220
 3.7790	 5.4110
 3.7820	 5.4790
 3.7850	 5.5070
 3.7880	 5.5560
 3.7900	 5.4890
 3.7930	 5.5030
 3.7960	 5.5010
 3.7990	 5.5100
 3.8020	 5.6220
 3.8040	 5.6420
 3.8070	 5.6120
 3.8100	 5.6750
 3.8130	 5.7510
 3.8160	 5.6420
 3.8180	 5.5000
 3.8210	 5.5310
 3.8240	 5.5780
 3.8270	 5.6900
 3.8300	 5.7810
 3.8330	 5.6190
 3.8350	 5.5360
 3.8380	 5.5800
 3.8410	 5.3920
 3.8440	 5.3930
 3.8470	 5.4830
 3.8500	 5.6280
 3.8520	 5.7510
 3.8550	 5.6920
 3.8580	 5.6810
 3.8610	 5.8530
 3.8640	 5.9040
 3.8670	 5.8190
 3.8700	 5.8250
 3.8730	 5.8640
 3.8750	 5.8850
 3.8780	 5.8560
 3.8810	 5.7100
 3.8840	 5.6870
 3.8870	 5.7510
 3.8900	 5.8710
 3.8930	 5.8880
 3.8960	 5.9030
 3.8990	 6.0790
 3.9020	 6.1800
 3.9050	 6.0480
 3.9080	 5.8650
 3.9110	 5.8960
 3.9140	 5.9250
 3.9160	 5.8930
 3.9190	 5.9560
 3.9220	 6.0070
 3.9250	 6.1550
 3.9280	 6.2010
 3.9310	 6.1370
 3.9340	 6.1370
 3.9370	 6.1070
 3.9400	 6.0610
 3.9430	 6.0790
 3.9460	 6.0650
 3.9490	 6.1140
 3.9520	 6.1220
 3.9550	 6.0870
 3.9580	 6.0050
 3.9610	 6.0760
 3.9640	 6.1480
 3.9670	 6.2250
 3.9700	 6.2260
 3.9730	 6.1810
 3.9770	 6.1210
 3.9800	 6.1130
 3.9830	 6.1840
 3.9860	 6.2560
 3.9890	 6.3090
 3.9920	 6.4240
 3.9950	 6.4210
 3.9980	 6.3370
 4.0010	 6.2570
 4.0040	 6.2960
 4.0070	 6.2970
 4.0100	 6.3830
 4.0130	 6.3530
 4.0170	 6.3600
 4.0200	 6.3400
 4.0230	 6.3280
 4.0260	 6.2840
 4.0290	 6.2540
 4.0320	 6.2720
 4.0350	 6.2850
 4.0380	 6.2430
 4.0420	 6.2640
 4.0450	 6.3720
 4.0480	 6.4100
 4.0510	 6.3230
 4.0540	 6.3290
 4.0570	 6.4080
 4.0610	 6.5460
 4.0640	 6.3840
 4.0670	 6.2620
 4.0700	 6.4200
 4.0730	 6.5910
 4.0770	 6.5680
 4.0800	 6.4560
 4.0830	 6.4470
 4.0860	 6.4020
 4.0890	 6.4100
 4.0930	 6.5320
 4.0960	 6.5090
 4.0990	 6.3760
 4.1020	 6.3170
 4.1060	 6.3690
 4.1090	 6.5950
 4.1120	 6.7070
 4.1150	 6.5500
 4.1190	 6.5890
 4.1220	 6.5700
 4.1250	 6.5000
 4.1280	 6.4490
 4.1320	 6.4750
 4.1350	 6.4440
 4.1380	 6.4810
 4.1420	 6.4670
 4.1450	 6.4670
 4.1480	 6.4390
 4.1520	 6.4290
 4.1550	 6.4580
 4.1580	 6.4390
 4.1620	 6.4530
 4.1650	 6.4620
 4.1680	 6.4960
 4.1720	 6.5420
 4.1750	 6.5530
 4.1780	 6.5500
 4.1820	 6.5500
 4.1850	 6.6890
 4.1890	 6.7260
 4.1920	 6.5630
 4.1950	 6.3670
 4.1990	 6.3650
 4.2020	 6.5660
 4.2060	 6.6220
 4.2090	 6.5560
 4.2120	 6.4460
 4.2160	 6.5060
 4.2190	 6.9300
 4.2230	 7.2230
 4.2260	 7.2690
 4.2300	 6.9450
 4.2330	 6.5850
 4.2360	 6.8600
 4.2400	 6.8290
 4.2430	 6.4220
 4.2470	 6.4430
 4.2500	 6.6700
 4.2540	 6.8120
 4.2570	 6.7570
 4.2610	 6.6410
 4.2640	 6.4980
 4.2680	 6.5530
 4.2710	 6.4990
 4.2750	 6.5050
 4.2780	 6.5230
 4.2820	 6.5690
 4.2850	 6.4110
 4.2890	 6.3140
 4.2930	 6.2380
 4.2960	 6.3110
 4.3000	 6.4560
 4.3030	 6.5920
 4.3070	 6.5530
 4.3100	 6.3610
 4.3140	 6.3160
 4.3180	 6.3940
 4.3210	 6.3720
 4.3250	 6.4200
 4.3280	 6.3200
 4.3320	 6.1850
 4.3360	 6.2110
 4.3390	 6.3640
 4.3430	 6.2840
 4.3470	 6.1940
 4.3500	 6.1630
 4.3540	 6.2520
 4.3570	 6.2640
 4.3610	 6.0370
 4.3650	 5.9550
 4.3680	 6.0130
 4.3720	 5.9840
 4.3760	 5.9360
 4.3800	 6.0450
 4.3830	 6.0040
 4.3870	 5.8720
 4.3910	 5.7410
 4.3940	 5.8070
 4.3980	 5.9650
 4.4020	 5.9170
 4.4060	 5.9290
 4.4090	 5.9850
 4.4130	 6.0040
 4.4170	 6.0070
 4.4210	 5.9680
 4.4240	 5.9220
 4.4280	 5.9300
 4.4320	 5.8740
 4.4360	 5.8200
 4.4400	 5.8090
 4.4430	 5.8740
 4.4470	 5.8870
 4.4510	 5.8430
 4.4550	 5.8460
 4.4590	 5.8740
 4.4620	 5.7930
 4.4660	 5.7520
 4.4700	 5.7890
 4.4740	 5.7280
 4.4780	 5.6880
 4.4820	 5.7440
 4.4860	 5.6840
 4.4900	 5.6150
 4.4930	 5.6680
 4.4970	 5.6700
 4.5010	 5.6520
 4.5050	 5.6170
 4.5090	 5.6260
 4.5130	 5.6060
 4.5170	 5.6040
 4.5210	 5.6230
 4.5250	 5.6490
 4.5290	 5.6480
 4.5330	 5.5380
 4.5370	 5.5210
 4.5410	 5.5460
 4.5450	 5.5350
 4.5490	 5.6020
 4.5530	 5.6330
 4.5570	 5.5070
 4.5610	 5.4510
 4.5650	 5.4470
 4.5690	 5.4570
 4.5730	 5.4100
 4.5770	 5.3770
 4.5810	 5.4170
 4.5850	 5.3970
 4.5890	 5.4860
 4.5930	 5.5440
 4.5970	 5.5240
 4.6010	 5.4220
 4.6050	 5.5010
 4.6090	 5.4080
 4.6130	 5.3710
 4.6170	 5.6430
 4.6220	 5.6430
 4.6260	 5.4060
 4.6300	 5.3350
 4.6340	 5.4680
 4.6380	 5.5050
 4.6420	 5.4500
 4.6460	 5.4410
 4.6510	 5.4260
 4.6550	 5.3580
 4.6590	 5.4230
 4.6630	 5.3600
 4.6670	 5.1730
 4.6720	 5.1880
 4.6760	 5.2920
 4.6800	 5.3560
 4.6840	 5.3020
 4.6880	 5.2460
 4.6930	 5.2720
 4.6970	 5.3260
 4.7010	 5.4070
 4.7050	 5.4130
 4.7100	 5.3900
 4.7140	 5.4100
 4.7180	 5.4790
 4.7230	 5.3920
 4.7270	 5.2730
 4.7310	 5.2830
 4.7360	 5.3980
 4.7400	 5.4240
 4.7440	 5.4380
 4.7490	 5.4460
 4.7530	 5.3780
 4.7570	 5.3460
 4.7620	 5.2280
 4.7660	 5.0940
 4.7700	 5.1880
 4.7750	 5.3950
 4.7790	 5.4190
 4.7840	 5.2480
 4.7880	 5.1500
 4.7920	 5.1100
 4.7970	 5.3820
 4.8010	 5.5190
 4.8060	 5.3600
 4.8100	 5.3010
 4.8150	 5.2440
 4.8190	 5.3220
 4.8240	 5.3280
 4.8280	 5.3870
 4.8330	 5.4580
 4.8370	 5.4890
 4.8420	 5.4150
 4.8460	 5.3450
 4.8510	 5.2570
 4.8550	 5.2120
 4.8600	 5.2330
 4.8640	 5.3190
 4.8690	 5.3850
 4.8730	 5.3090
 4.8780	 5.2540
 4.8830	 5.3710
 4.8870	 5.3540
 4.8920	 5.3750
 4.8960	 5.3790
 4.9010	 5.4760
 4.9060	 5.5300
 4.9100	 5.4760
 4.9150	 5.4300
 4.9200	 5.4990
 4.9240	 5.5090
 4.9290	 5.5140
 4.9340	 5.3890
 4.9380	 5.3940
 4.9430	 5.5350
 4.9480	 5.6290
 4.9530	 5.6080
 4.9570	 5.5730
 4.9620	 5.5530
 4.9670	 5.5810
 4.9720	 5.5640
 4.9760	 5.5390
 4.9810	 5.5250
 4.9860	 5.5450
 4.9910	 5.4820
 4.9960	 5.5810
 5.0000	 5.6680
 5.0050	 5.6610
 5.0100	 5.7270
 5.0150	 5.7510
 5.0200	 5.6890
 5.0250	 5.6320
 5.0290	 5.6090
 5.0340	 5.6380
 5.0390	 5.5830
 5.0440	 5.5800
 5.0490	 5.6090
 5.0540	 5.6710
 5.0590	 5.7040
 5.0640	 5.6900
 5.0690	 5.6640
 5.0740	 5.6300
 5.0790	 5.6820
 5.0840	 5.8180
 5.0890	 5.8090
 5.0940	 5.7160
 5.0990	 5.7250
 5.1040	 5.8610
 5.1090	 5.9280
 5.1140	 5.8820
 5.1190	 5.7940
 5.1240	 5.7960
 5.1290	 5.7770
 5.1340	 5.7800
 5.1390	 5.8160
 5.1440	 5.8230
 5.1490	 5.8380
 5.1540	 5.8050
 5.1600	 5.7650
 5.1650	 5.8570
 5.1700	 5.8600
 5.1750	 5.8650
 5.1800	 5.8600
 5.1850	 5.8590
 5.1910	 5.8580
 5.1960	 5.9180
 5.2010	 5.9020
 5.2060	 5.8510
 5.2110	 5.8010
 5.2170	 5.8110
 5.2220	 5.7860
 5.2270	 5.7970
 5.2320	 5.7510
 5.2380	 5.7870
 5.2430	 5.7700
 5.2480	 5.7740
 5.2540	 5.8460
 5.2590	 5.8570
 5.2640	 5.8940
 5.2700	 5.9040
 5.2750	 5.8030
 5.2800	 5.8540
 5.2860	 5.8770
 5.2910	 5.7880
 5.2970	 5.7020
 5.3020	 5.7740
 5.3070	 5.7340
 5.3130	 5.7130
 5.3180	 5.7270
 5.3240	 5.7670
 5.3290	 5.8050
 5.3350	 5.8350
 5.3400	 5.7040
 5.3460	 5.6360
 5.3510	 5.6290
 5.3570	 5.6430
 5.3620	 5.6230
 5.3680	 5.7380
 5.3730	 5.6870
 5.3790	 5.6220
 5.3850	 5.6410
 5.3900	 5.7190
 5.3960	 5.6550
 5.4010	 5.5930
 5.4070	 5.5340
 5.4130	 5.5010
 5.4180	 5.5220
 5.4240	 5.5240
 5.4300	 5.4870
 5.4350	 5.5240
 5.4410	 5.5680
 5.4470	 5.5180
 5.4530	 5.4640
 5.4580	 5.4210
 5.4640	 5.3800
 5.4700	 5.3820
 5.4760	 5.2960
 5.4810	 5.2830
 5.4870	 5.2950
 5.4930	 5.3380
 5.4990	 5.2280
 5.5050	 5.1720
 5.5110	 5.1320
 5.5160	 5.1530
 5.5220	 5.1080
 5.5280	 5.0800
 5.5340	 5.0470
 5.5400	 5.0540
 5.5460	 4.9930
 5.5520	 4.9680
 5.5580	 4.9350
 5.5640	 4.9140
 5.5700	 4.7920
 5.5760	 4.8120
 5.5820	 4.8320
 5.5880	 4.8540
 5.5940	 4.7070
 5.6000	 4.5540
 5.6060	 4.5550
 5.6120	 4.6430
 5.6180	 4.5510
 5.6240	 4.4460
 5.6300	 4.3420
 5.6360	 4.2750
 5.6420	 4.2330
 5.6490	 4.2290
 5.6550	 4.1410
 5.6610	 4.0880
 5.6670	 3.9740
 5.6730	 3.8730
 5.6800	 3.7970
 5.6860	 3.8410
 5.6920	 3.7520
 5.6980	 3.6810
 5.7040	 3.6100
 5.7110	 3.5260
 5.7170	 3.4120
 5.7230	 3.3780
 5.7300	 3.2610
 5.7360	 3.2240
 5.7420	 3.3680
 5.7490	 3.6310
 5.7550	 3.8570
 5.7620	 4.1510
 5.7680	 4.3800
 5.7740	 4.6170
 5.7810	 4.6590
 5.7870	 4.7640
 5.7940	 4.8620
 5.8000	 4.9430
 5.8070	 4.8040
 5.8130	 4.7960
 5.8200	 4.8230
 5.8260	 4.9260
 5.8330	 4.9240
 5.8390	 4.9990
 5.8460	 5.0530
 5.8530	 5.1000
 5.8590	 5.0340
 5.8660	 5.0250
 5.8720	 4.9200
 5.8790	 4.9240
 5.8860	 4.9480
 5.8920	 4.9570
 5.8990	 4.7510
 5.9060	 4.7330
 5.9130	 4.8180
 5.9190	 4.7320
 5.9260	 4.5270
 5.9330	 4.5300
 5.9400	 4.5070
 5.9470	 4.5410
 5.9530	 4.5190
 5.9600	 4.5280
 5.9670	 4.4760
 5.9740	 4.4180
 5.9810	 4.3490
 5.9880	 4.4010
 5.9950	 4.3080
 6.0020	 4.3470
 6.0090	 4.3300
 6.0160	 4.2820
 6.0230	 4.1220
 6.0300	 4.1620
 6.0370	 4.2560
 6.0440	 4.2780
 6.0510	 4.1910
 6.0580	 4.2450
 6.0650	 4.1650
 6.0720	 4.1980
 6.0790	 4.1030
 6.0860	 4.1240
 6.0930	 4.0210
 6.1000	 4.0510
 6.1080	 4.0630
 6.1150	 4.1210
 6.1220	 3.9750
 6.1290	 4.0390
 6.1370	 4.0260
 6.1440	 4.0460
 6.1510	 3.9850
 6.1580	 4.0710
 6.1660	 4.0590
 6.1730	 4.1460
 6.1800	 4.1440
 6.1880	 4.1310
 6.1950	 3.9800
 6.2030	 3.9900
 6.2100	 3.9390
 6.2170	 3.9610
 6.2250	 3.9480
 6.2320	 4.0310
 6.2400	 4.0520
 6.2470	 4.0620
 6.2550	 4.0240
 6.2630	 4.0560
 6.2700	 3.9420
 6.2780	 4.0030
 6.2850	 4.0150
 6.2930	 4.1370
 6.3010	 4.0990
 6.3080	 4.1050
 6.3160	 4.0780
 6.3240	 4.1050
 6.3310	 4.1370
 6.3390	 4.1590
 6.3470	 3.9670
 6.3550	 3.9920
 6.3620	 4.0080
 6.3700	 4.0140
 6.3780	 3.8850
 6.3860	 3.9700
 6.3940	 3.9980
 6.4020	 4.1290
 6.4100	 4.1360
 6.4180	 4.1650
 6.4260	 4.0970
 6.4330	 4.2010
 6.4410	 4.1520
 6.4490	 4.1830
 6.4580	 4.2010
 6.4660	 4.1430
 6.4740	 3.9960
 6.4820	 3.9890
 6.4900	 4.0070
 6.4980	 4.1430
 6.5060	 4.0720
 6.5140	 4.0850
 6.5230	 4.0790
 6.5310	 4.1810
 6.5390	 4.2210
 6.5470	 4.2390
 6.5550	 4.1580
 6.5640	 4.1450
 6.5720	 4.1250
 6.5800	 4.1270
 6.5890	 4.0320
 6.5970	 4.0750
 6.6060	 4.0810
 6.6140	 4.2470
 6.6220	 4.2520
 6.6310	 4.2480
 6.6390	 4.1940
 6.6480	 4.1890
 6.6560	 4.0850
 6.6650	 4.2350
 6.6740	 4.2910
 6.6820	 4.2490
 6.6910	 4.0070
 6.6990	 3.9920
 6.7080	 4.0430
 6.7170	 4.0500
 6.7260	 3.8780
 6.7340	 3.9950
 6.7430	 3.9430
 6.7520	 3.8100
 6.7610	 3.7650
 6.7690	 3.8840
 6.7780	 3.8680
 6.7870	 3.9060
 6.7960	 3.8490
 6.8050	 3.9520
 6.8140	 3.9910
 6.8230	 4.0760
 6.8320	 4.1230
 6.8410	 4.2740
 6.8500	 4.3070
 6.8590	 4.3550
 6.8680	 4.2810
 6.8770	 4.2430
 6.8860	 4.1840
 6.8950	 4.1930
 6.9050	 4.1630
 6.9140	 4.1650
 6.9230	 4.0120
 6.9320	 4.1310
 6.9420	 4.2130
 6.9510	 4.2840
 6.9600	 4.3110
 6.9700	 4.2800
 6.9790	 4.1110
 6.9880	 4.1380
 6.9980	 4.1570
 7.0070	 4.2170
 7.0170	 4.1020
 7.0260	 4.1140
 7.0360	 4.0560
 7.0450	 4.1710
 7.0550	 4.1490
 7.0650	 4.0870
 7.0740	 4.0260
 7.0840	 4.1840
 7.0940	 4.0540
 7.1030	 3.8810
 7.1130	 3.7990
 7.1230	 3.9660
 7.1330	 4.0420
 7.1420	 4.0310
 7.1520	 3.9250
 7.1620	 4.0280
 7.1720	 3.9990
 7.1820	 4.0950
 7.1920	 3.9660
 7.2020	 3.9720
 7.2120	 3.9440
 7.2220	 4.0280
 7.2320	 3.9000
 7.2420	 3.8080
 7.2520	 3.7510
 7.2620	 3.9190
 7.2730	 3.8920
 7.2830	 3.9860
 7.2930	 3.8790
 7.3030	 3.8780
 7.3140	 3.8360
 7.3240	 3.9630
 7.3340	 3.9010
 7.3450	 3.9020
 7.3550	 3.7550
 7.3660	 3.8300
 7.3760	 4.0370
 7.3870	 4.1780
 7.3970	 4.0300
 7.4080	 4.1340
 7.4180	 4.0400
 7.4290	 4.0150
 7.4400	 3.9650
 7.4500	 4.0310
 7.4610	 4.0260
 7.4720	 4.0460
 7.4830	 3.8610
 7.4930	 4.0160
 7.5040	 3.9730
 7.5150	 3.9750
 7.5260	 3.9140
 7.5370	 4.0020
 7.5480	 3.9920
 7.5590	 3.9790
 7.5700	 3.8420
 7.5810	 3.9260
 7.5920	 3.8590
 7.6030	 3.9150
 7.6140	 3.8790
 7.6260	 3.9210
 7.6370	 3.9080
 7.6480	 4.0130
 7.6590	 3.9060
 7.6710	 3.9160
 7.6820	 3.9880
 7.6930	 4.1770
 7.7050	 4.1020
 7.7160	 4.0990
 7.7280	 3.8820
 7.7390	 3.9080
 7.7510	 3.9370
 7.7630	 3.9890
 7.7740	 3.8800
 7.7860	 3.9740
 7.7980	 3.9460
 7.8090	 4.0860
 7.8210	 4.0850
 7.8330	 4.0760
 7.8450	 4.0140
 7.8570	 4.2520
 7.8690	 4.1700
 7.8810	 4.1170
 7.8930	 4.0120
 7.9050	 4.1250
 7.9170	 4.0640
 7.9290	 4.1790
 7.9410	 4.1250
 7.9530	 4.1680
 7.9650	 3.9790
 7.9780	 4.0570
 7.9900	 4.0210
 8.0020	 4.1940
 8.0150	 4.1180
 8.0270	 4.2680
 8.0390	 4.3640
 8.0520	 4.4160
 8.0640	 4.2350
 8.0770	 4.3370
 8.0900	 4.2050
 8.1020	 4.2960
 8.1150	 4.2730
 8.1280	 4.3730
 8.1400	 4.2490
 8.1530	 4.3800
 8.1660	 4.3340
 8.1790	 4.2810
 8.1920	 4.0780
 8.2050	 4.3530
 8.2180	 4.3370
 8.2310	 4.3710
 8.2440	 4.2410
 8.2570	 4.5360
 8.2700	 4.6430
 8.2830	 4.7380
 8.2970	 4.5560
 8.3100	 4.5630
 8.3230	 4.5670
 8.3370	 4.9980
 8.3500	 5.0320
 8.3640	 5.0500
 8.3770	 4.7240
 8.3910	 4.7590
 8.4040	 4.7880
 8.4180	 5.1420
 8.4320	 5.1650
 8.4450	 5.1320
 8.4590	 5.0120
 8.4730	 5.1860
 8.4870	 5.1650
 8.5010	 5.4150
 8.5150	 5.2060
 8.5290	 5.3110
 8.5430	 5.2090
 8.5570	 5.2640
 8.5710	 5.1200
 8.5850	 5.0360
 8.5990	 4.8180
 8.6140	 4.7960
 8.6280	 4.5520
 8.6420	 4.7060
 8.6570	 4.4790
 8.6710	 4.4590
 8.6860	 4.4380
 8.7000	 4.6870
 8.7150	 4.5160
 8.7300	 4.4790
 8.7440	 4.4280
 8.7590	 4.6580
 8.7740	 4.5380
 8.7890	 4.6290
 8.8040	 4.4110
 8.8190	 4.4290
 8.8340	 4.2950
 8.8490	 4.4630
 8.8640	 4.4350
 8.8790	 4.6180
 8.8940	 4.2710
 8.9100	 4.1440
 8.9250	 3.8990
 8.9400	 4.0170
 8.9560	 3.9270
 8.9710	 3.9930
 8.9870	 3.7950
 9.0020	 3.7830
 9.0180	 3.5850
 9.0340	 3.5950
 9.0500	 3.3740
 9.0650	 3.6100
 9.0810	 3.5900
 9.0970	 3.5640
 9.1130	 3.5080
 9.1290	 3.8380
 9.1450	 3.9280
 9.1610	 3.9530
 9.1780	 3.6600
 9.1940	 3.8960
 9.2100	 3.8090
 9.2270	 4.0030
 9.2430	 3.8080
 9.2600	 3.9110
 9.2760	 3.7240
 9.2930	 3.6780
 9.3090	 3.4980
 9.3260	 3.6940
 9.3430	 3.5100
 9.3600	 3.4310
 9.3770	 3.2950
 9.3940	 3.7090
 9.4110	 3.6510
 9.4280	 3.8080
 9.4450	 3.5090
 9.4620	 3.5320
 9.4800	 3.3280
 9.4970	 3.5580
 9.5140	 3.6150
 9.5320	 3.9140
 9.5500	 3.7570
 9.5670	 3.7750
 9.5850	 3.5770
 9.6030	 3.6250
 9.6200	 3.3560
 9.6380	 3.6670
 9.6560	 3.4780
 9.6740	 3.5760
 9.6920	 3.5730
 9.7100	 3.7380
 9.7290	 3.3680
 9.7470	 3.6100
 9.7650	 3.7010
 9.7840	 3.8320
 9.8020	 3.5960
 9.8210	 3.6630
 9.8390	 3.3720
 9.8580	 3.4170
 9.8770	 3.4080
 9.8960	 3.7320
 9.9150	 3.7280
 9.9340	 3.8890
 9.9530	 3.8770
 9.9720	 4.1270
 9.9910	 3.9650
10.0100	 4.1220
10.0300	 3.9740
10.0490	 4.0190
10.0690	 3.9370
10.0880	 4.1450
10.1080	 3.9810
10.1280	 4.0900
10.1480	 4.0130
10.1670	 4.1870
10.1870	 3.9690
10.2070	 3.9410
10.2280	 3.8520
10.2480	 4.2920
10.2680	 4.3180
10.2890	 4.2460
10.3090	 3.9890
10.3300	 4.0320
10.3500	 3.7090
10.3710	 3.8910
10.3920	 3.9100
10.4120	 4.0790
10.4330	 4.1330
10.4540	 4.4940
10.4760	 4.3200
10.4970	 4.1750
10.5180	 4.0470
10.5390	 4.2770
10.5610	 4.1050
10.5820	 4.2500
10.6040	 4.2050
10.6260	 4.4140
10.6480	 4.1430
10.6700	 4.2360
10.6920	 4.0010
10.7140	 4.0390
10.7360	 3.9750
10.7580	 4.1530
10.7800	 4.0690
10.8030	 4.1490
10.8250	 3.8600
10.8480	 4.2300
10.8710	 4.1520
10.8940	 4.1160
10.9170	 3.9620
10.9400	 4.1640
10.9630	 3.8940
10.9860	 3.9470
11.0090	 3.8600
11.0330	 4.1100
11.0560	 3.8940
11.0800	 3.8850
11.1040	 3.6090
11.1270	 3.8560
11.1510	 3.8350
11.1750	 3.8790
11.2000	 3.5580
11.2240	 3.7430
11.2480	 3.6510
11.2730	 3.4620
11.2970	 3.8120
11.3220	 4.5150
11.3470	 3.9220
11.3720	 3.8220
11.3970	 3.5110
11.4220	 3.5950
11.4470	 3.4520
11.4720	 3.7490
11.4980	 3.5910
11.5230	 3.7810
11.5490	 3.4710
11.5750	 3.6620
11.6000	 3.4110
11.6260	 3.5090
11.6530	 3.4830
11.6790	 3.7400
11.7050	 3.4800
11.7320	 3.6530
11.7580	 3.4510
11.7850	 3.5630
11.8120	 3.3890
11.8390	 3.4470
11.8660	 3.1570
11.8930	 3.3190
11.9200	 3.1520
11.9480	 3.3930
11.9760	 3.1830
12.0030	 3.3650
12.0310	 3.1430
12.0590	 3.3020
12.0870	 3.1510
12.1150	 3.2190
12.1440	 2.9900
12.1720	 3.0260
12.2010	 2.9430
12.2300	 3.3010
12.2590	 2.9350
12.2880	 2.9480
12.3170	 2.7760
12.3460	 3.0510
12.3760	 2.7450
12.4050	 3.0540
12.4350	 2.8100
12.4650	 3.0910
12.4950	 2.9690
12.5250	 2.9890
12.5550	 2.2930
12.5860	 2.6560
12.6170	 2.7380
12.6470	 3.0840
12.6780	 2.6310
12.7090	 2.7710
12.7410	 2.5270
12.7720	 2.8140
12.8030	 2.7700
12.8350	 2.9550
12.8670	 2.5200
12.8990	 2.7000
12.9310	 2.4400
12.9640	 2.6870
12.9960	 2.4930
13.0290	 2.9050
13.0610	 2.6060
13.0940	 2.6460
13.1280	 2.3700
13.1610	 2.6640
13.1940	 2.3690
13.2280	 2.2860
13.2620	 2.3990
13.2960	 2.9580
13.3300	 2.4600
13.3640	 2.7630
13.3990	 2.7080
13.4340	 2.9980
13.4690	 2.5410
13.5040	 2.7910
13.5390	 2.4020
13.5740	 2.6640
13.6100	 2.5120
13.6460	 2.7830
13.6820	 2.3000
13.7180	 2.7940
13.7540	 2.4080
13.7910	 2.7280
13.8280	 2.4760
13.8650	 2.8600
13.9020	 2.7340
13.9390	 2.7170
13.9770	 2.1000
14.0150	 2.5960
14.0530	 2.4840
14.0910	 2.6660
14.1290	 2.0680
14.1680	 2.7260
14.2070	 2.2870
14.2460	 2.7240
14.2850	 2.5200
14.3240	 2.6430
14.3640	 2.0290
14.4040	 2.4790
14.4440	 2.2020
14.4840	 2.9420
14.5250	 2.6840
14.5660	 2.8520
14.6070	 2.4870
14.6480	 3.3260
14.6900	 2.6260
14.7310	 2.8440
14.7730	 2.1070
14.8150	 2.6530
14.8580	 2.1750
14.9010	 2.4780
14.9440	 1.6000
14.9870	 2.9790
15.0300	 2.6600
15.0740	 2.8180
15.1180	 2.3820
15.1620	 3.5720
15.2060	 2.4780
15.2510	 2.4040
15.2960	 1.6090
15.3410	 3.0050
15.3870	 2.5920
