Name: Pinus lambertiana 3
Type: vegetation
Class: Tree
Genus: Pinus
Species: lambertiana
Sample No.: VH070
Owner: UCSB
Wavelength Range: VSWIR
Origin: 37.0433; -119.3048; WGS84
Collection Date: 4/20/2013
Description: Samples were collected as part of the HyspIRI Airborne Campaign. 48 individual plants were sampled in three times in 2013 - spring  summer  and fall. The name of the sample includes a 1  2  or 3 which references a different individual of the species. Samples were taken to JPL and processed within 48 hours of collection. The same leaves were processed in the Nicolet and then measured using the ASD.
Measurement: Bidirectional reflectance
First Column: X
Second Column: Y
X Units: Wavelength (micrometers)
Y Units: Reflectance (percentage)
First X Value: 0.35
Last X Value: 2.5
Number of X Values: 2151
Additional Information: vegetation.tree.pinus.lambertiana.vswir.vh070.ucsb.asd.ancillary.txt

 0.3500	 6.7530
 0.3510	 6.8750
 0.3520	 6.8020
 0.3530	 6.6990
 0.3540	 6.7160
 0.3550	 6.6480
 0.3560	 6.4920
 0.3570	 6.4240
 0.3580	 6.6310
 0.3590	 6.6230
 0.3600	 6.6070
 0.3610	 6.6410
 0.3620	 6.4690
 0.3630	 6.4080
 0.3640	 6.3950
 0.3650	 6.3320
 0.3660	 6.3820
 0.3670	 6.4390
 0.3680	 6.4400
 0.3690	 6.3680
 0.3700	 6.3160
 0.3710	 6.2960
 0.3720	 6.3060
 0.3730	 6.3430
 0.3740	 6.3110
 0.3750	 6.2440
 0.3760	 6.2100
 0.3770	 6.2170
 0.3780	 6.2460
 0.3790	 6.2880
 0.3800	 6.3320
 0.3810	 6.2170
 0.3820	 6.1310
 0.3830	 6.1780
 0.3840	 6.1470
 0.3850	 6.1650
 0.3860	 6.2000
 0.3870	 6.1820
 0.3880	 6.1620
 0.3890	 6.1190
 0.3900	 6.0820
 0.3910	 6.1280
 0.3920	 6.1300
 0.3930	 6.1000
 0.3940	 6.0790
 0.3950	 6.1130
 0.3960	 6.1070
 0.3970	 6.0880
 0.3980	 6.1220
 0.3990	 6.1100
 0.4000	 6.0830
 0.4010	 6.0680
 0.4020	 6.0780
 0.4030	 6.1050
 0.4040	 6.1380
 0.4050	 6.1640
 0.4060	 6.1690
 0.4070	 6.1980
 0.4080	 6.2410
 0.4090	 6.2600
 0.4100	 6.2720
 0.4110	 6.3010
 0.4120	 6.3470
 0.4130	 6.3700
 0.4140	 6.4040
 0.4150	 6.4360
 0.4160	 6.4570
 0.4170	 6.5400
 0.4180	 6.5820
 0.4190	 6.5760
 0.4200	 6.6090
 0.4210	 6.6550
 0.4220	 6.7120
 0.4230	 6.7700
 0.4240	 6.7950
 0.4250	 6.8330
 0.4260	 6.8760
 0.4270	 6.8980
 0.4280	 6.9220
 0.4290	 6.9630
 0.4300	 7.0150
 0.4310	 7.0410
 0.4320	 7.0690
 0.4330	 7.0950
 0.4340	 7.1070
 0.4350	 7.1120
 0.4360	 7.1240
 0.4370	 7.1450
 0.4380	 7.1610
 0.4390	 7.2000
 0.4400	 7.2180
 0.4410	 7.2060
 0.4420	 7.2390
 0.4430	 7.2580
 0.4440	 7.2590
 0.4450	 7.2620
 0.4460	 7.2800
 0.4470	 7.3000
 0.4480	 7.3130
 0.4490	 7.3200
 0.4500	 7.3190
 0.4510	 7.3240
 0.4520	 7.3430
 0.4530	 7.3420
 0.4540	 7.3410
 0.4550	 7.3470
 0.4560	 7.3610
 0.4570	 7.3600
 0.4580	 7.3580
 0.4590	 7.3670
 0.4600	 7.3750
 0.4610	 7.3790
 0.4620	 7.3750
 0.4630	 7.3620
 0.4640	 7.3590
 0.4650	 7.3490
 0.4660	 7.3380
 0.4670	 7.3480
 0.4680	 7.3500
 0.4690	 7.3420
 0.4700	 7.3320
 0.4710	 7.3330
 0.4720	 7.3420
 0.4730	 7.3430
 0.4740	 7.3190
 0.4750	 7.3180
 0.4760	 7.3230
 0.4770	 7.3200
 0.4780	 7.3100
 0.4790	 7.3140
 0.4800	 7.3160
 0.4810	 7.3000
 0.4820	 7.3020
 0.4830	 7.3100
 0.4840	 7.3150
 0.4850	 7.3090
 0.4860	 7.3050
 0.4870	 7.3020
 0.4880	 7.2990
 0.4890	 7.3110
 0.4900	 7.3210
 0.4910	 7.3280
 0.4920	 7.3360
 0.4930	 7.3470
 0.4940	 7.3590
 0.4950	 7.3750
 0.4960	 7.3990
 0.4970	 7.4170
 0.4980	 7.4400
 0.4990	 7.4800
 0.5000	 7.5170
 0.5010	 7.5540
 0.5020	 7.5970
 0.5030	 7.6490
 0.5040	 7.7090
 0.5050	 7.7750
 0.5060	 7.8480
 0.5070	 7.9330
 0.5080	 8.0220
 0.5090	 8.1230
 0.5100	 8.2480
 0.5110	 8.3740
 0.5120	 8.5090
 0.5130	 8.6600
 0.5140	 8.8230
 0.5150	 9.0120
 0.5160	 9.2150
 0.5170	 9.4180
 0.5180	 9.6370
 0.5190	 9.8650
 0.5200	10.0980
 0.5210	10.3320
 0.5220	10.5690
 0.5230	10.8060
 0.5240	11.0400
 0.5250	11.2700
 0.5260	11.4910
 0.5270	11.6990
 0.5280	11.8920
 0.5290	12.0670
 0.5300	12.2290
 0.5310	12.3810
 0.5320	12.5270
 0.5330	12.6530
 0.5340	12.7610
 0.5350	12.8580
 0.5360	12.9470
 0.5370	13.0230
 0.5380	13.0880
 0.5390	13.1490
 0.5400	13.1960
 0.5410	13.2320
 0.5420	13.2650
 0.5430	13.2990
 0.5440	13.3380
 0.5450	13.3810
 0.5460	13.4290
 0.5470	13.4750
 0.5480	13.5190
 0.5490	13.5570
 0.5500	13.5850
 0.5510	13.6010
 0.5520	13.6090
 0.5530	13.6110
 0.5540	13.5890
 0.5550	13.5510
 0.5560	13.5010
 0.5570	13.4430
 0.5580	13.3720
 0.5590	13.2880
 0.5600	13.1890
 0.5610	13.0750
 0.5620	12.9530
 0.5630	12.8230
 0.5640	12.6870
 0.5650	12.5450
 0.5660	12.3930
 0.5670	12.2340
 0.5680	12.0740
 0.5690	11.9090
 0.5700	11.7450
 0.5710	11.5890
 0.5720	11.4340
 0.5730	11.2850
 0.5740	11.1440
 0.5750	11.0160
 0.5760	10.8980
 0.5770	10.7950
 0.5780	10.7050
 0.5790	10.6110
 0.5800	10.5210
 0.5810	10.4380
 0.5820	10.3610
 0.5830	10.2830
 0.5840	10.2050
 0.5850	10.1300
 0.5860	10.0600
 0.5870	 9.9870
 0.5880	 9.9140
 0.5890	 9.8470
 0.5900	 9.7940
 0.5910	 9.7470
 0.5920	 9.7060
 0.5930	 9.6700
 0.5940	 9.6380
 0.5950	 9.6100
 0.5960	 9.5830
 0.5970	 9.5520
 0.5980	 9.5200
 0.5990	 9.4890
 0.6000	 9.4560
 0.6010	 9.4250
 0.6020	 9.3910
 0.6030	 9.3510
 0.6040	 9.3080
 0.6050	 9.2590
 0.6060	 9.2050
 0.6070	 9.1470
 0.6080	 9.0860
 0.6090	 9.0190
 0.6100	 8.9450
 0.6110	 8.8640
 0.6120	 8.8000
 0.6130	 8.7450
 0.6140	 8.6900
 0.6150	 8.6330
 0.6160	 8.5780
 0.6170	 8.5250
 0.6180	 8.4730
 0.6190	 8.4250
 0.6200	 8.3830
 0.6210	 8.3460
 0.6220	 8.3150
 0.6230	 8.2870
 0.6240	 8.2640
 0.6250	 8.2480
 0.6260	 8.2330
 0.6270	 8.2180
 0.6280	 8.2060
 0.6290	 8.2020
 0.6300	 8.1880
 0.6310	 8.1770
 0.6320	 8.1690
 0.6330	 8.1510
 0.6340	 8.1240
 0.6350	 8.0900
 0.6360	 8.0500
 0.6370	 7.9970
 0.6380	 7.9360
 0.6390	 7.8690
 0.6400	 7.7940
 0.6410	 7.7200
 0.6420	 7.6460
 0.6430	 7.5730
 0.6440	 7.4950
 0.6450	 7.4240
 0.6460	 7.3580
 0.6470	 7.2920
 0.6480	 7.2390
 0.6490	 7.1960
 0.6500	 7.1610
 0.6510	 7.1310
 0.6520	 7.1080
 0.6530	 7.0850
 0.6540	 7.0620
 0.6550	 7.0430
 0.6560	 7.0190
 0.6570	 6.9910
 0.6580	 6.9590
 0.6590	 6.9290
 0.6600	 6.8980
 0.6610	 6.8630
 0.6620	 6.8260
 0.6630	 6.7950
 0.6640	 6.7680
 0.6650	 6.7420
 0.6660	 6.7170
 0.6670	 6.6970
 0.6680	 6.6850
 0.6690	 6.6820
 0.6700	 6.6770
 0.6710	 6.6730
 0.6720	 6.6730
 0.6730	 6.6800
 0.6740	 6.6890
 0.6750	 6.7010
 0.6760	 6.7180
 0.6770	 6.7350
 0.6780	 6.7550
 0.6790	 6.7800
 0.6800	 6.8090
 0.6810	 6.8430
 0.6820	 6.8820
 0.6830	 6.9270
 0.6840	 6.9790
 0.6850	 7.0460
 0.6860	 7.1310
 0.6870	 7.2350
 0.6880	 7.3740
 0.6890	 7.5570
 0.6900	 7.7920
 0.6910	 8.0860
 0.6920	 8.4520
 0.6930	 8.8950
 0.6940	 9.4140
 0.6950	10.0000
 0.6960	10.6580
 0.6970	11.3800
 0.6980	12.1560
 0.6990	12.9910
 0.7000	13.8720
 0.7010	14.7920
 0.7020	15.7400
 0.7030	16.7130
 0.7040	17.7050
 0.7050	18.7140
 0.7060	19.7320
 0.7070	20.7640
 0.7080	21.8110
 0.7090	22.8760
 0.7100	23.9560
 0.7110	25.0520
 0.7120	26.1640
 0.7130	27.2920
 0.7140	28.4350
 0.7150	29.5960
 0.7160	30.7750
 0.7170	31.9640
 0.7180	33.1690
 0.7190	34.3910
 0.7200	35.6260
 0.7210	36.8700
 0.7220	38.1190
 0.7230	39.3720
 0.7240	40.6240
 0.7250	41.8770
 0.7260	43.1190
 0.7270	44.3450
 0.7280	45.5570
 0.7290	46.7530
 0.7300	47.9260
 0.7310	49.0680
 0.7320	50.1900
 0.7330	51.2850
 0.7340	52.3470
 0.7350	53.3730
 0.7360	54.3690
 0.7370	55.3300
 0.7380	56.2500
 0.7390	57.1320
 0.7400	57.9790
 0.7410	58.7890
 0.7420	59.5580
 0.7430	60.2810
 0.7440	60.9720
 0.7450	61.6300
 0.7460	62.2390
 0.7470	62.8060
 0.7480	63.3380
 0.7490	63.8370
 0.7500	64.2980
 0.7510	64.7230
 0.7520	65.1150
 0.7530	65.4780
 0.7540	65.8070
 0.7550	66.1080
 0.7560	66.3850
 0.7570	66.6450
 0.7580	66.8780
 0.7590	67.0860
 0.7600	67.2750
 0.7610	67.4530
 0.7620	67.6130
 0.7630	67.7580
 0.7640	67.8880
 0.7650	68.0130
 0.7660	68.1280
 0.7670	68.2290
 0.7680	68.3120
 0.7690	68.3950
 0.7700	68.4750
 0.7710	68.5490
 0.7720	68.6140
 0.7730	68.6690
 0.7740	68.7220
 0.7750	68.7780
 0.7760	68.8260
 0.7770	68.8730
 0.7780	68.9210
 0.7790	68.9650
 0.7800	69.0020
 0.7810	69.0370
 0.7820	69.0730
 0.7830	69.1120
 0.7840	69.1450
 0.7850	69.1760
 0.7860	69.2080
 0.7870	69.2320
 0.7880	69.2580
 0.7890	69.2860
 0.7900	69.3150
 0.7910	69.3410
 0.7920	69.3660
 0.7930	69.3890
 0.7940	69.4090
 0.7950	69.4280
 0.7960	69.4520
 0.7970	69.4790
 0.7980	69.4960
 0.7990	69.5120
 0.8000	69.5300
 0.8010	69.5510
 0.8020	69.5730
 0.8030	69.5860
 0.8040	69.5960
 0.8050	69.6130
 0.8060	69.6290
 0.8070	69.6390
 0.8080	69.6490
 0.8090	69.6680
 0.8100	69.6800
 0.8110	69.6940
 0.8120	69.7130
 0.8130	69.7240
 0.8140	69.7350
 0.8150	69.7490
 0.8160	69.7670
 0.8170	69.7840
 0.8180	69.8020
 0.8190	69.8170
 0.8200	69.8270
 0.8210	69.8470
 0.8220	69.8620
 0.8230	69.8700
 0.8240	69.8830
 0.8250	69.8960
 0.8260	69.9070
 0.8270	69.9120
 0.8280	69.9130
 0.8290	69.9140
 0.8300	69.9190
 0.8310	69.9280
 0.8320	69.9320
 0.8330	69.9340
 0.8340	69.9390
 0.8350	69.9530
 0.8360	69.9730
 0.8370	69.9920
 0.8380	70.0120
 0.8390	70.0380
 0.8400	70.0590
 0.8410	70.0840
 0.8420	70.1130
 0.8430	70.1380
 0.8440	70.1620
 0.8450	70.1860
 0.8460	70.2120
 0.8470	70.2410
 0.8480	70.2670
 0.8490	70.2890
 0.8500	70.3090
 0.8510	70.3320
 0.8520	70.3590
 0.8530	70.3850
 0.8540	70.4050
 0.8550	70.4260
 0.8560	70.4490
 0.8570	70.4720
 0.8580	70.4910
 0.8590	70.5130
 0.8600	70.5270
 0.8610	70.5370
 0.8620	70.5620
 0.8630	70.5790
 0.8640	70.5880
 0.8650	70.5950
 0.8660	70.6070
 0.8670	70.6180
 0.8680	70.6300
 0.8690	70.6450
 0.8700	70.6580
 0.8710	70.6690
 0.8720	70.6840
 0.8730	70.7030
 0.8740	70.7100
 0.8750	70.7130
 0.8760	70.7180
 0.8770	70.7200
 0.8780	70.7230
 0.8790	70.7270
 0.8800	70.7350
 0.8810	70.7450
 0.8820	70.7440
 0.8830	70.7390
 0.8840	70.7360
 0.8850	70.7220
 0.8860	70.7190
 0.8870	70.7160
 0.8880	70.7040
 0.8890	70.7010
 0.8900	70.6870
 0.8910	70.6700
 0.8920	70.6620
 0.8930	70.6490
 0.8940	70.6360
 0.8950	70.6270
 0.8960	70.6190
 0.8970	70.6080
 0.8980	70.5850
 0.8990	70.5570
 0.9000	70.5420
 0.9010	70.5280
 0.9020	70.5060
 0.9030	70.4770
 0.9040	70.4570
 0.9050	70.4300
 0.9060	70.4070
 0.9070	70.3950
 0.9080	70.3870
 0.9090	70.3750
 0.9100	70.3500
 0.9110	70.3140
 0.9120	70.2930
 0.9130	70.2730
 0.9140	70.2500
 0.9150	70.2270
 0.9160	70.2020
 0.9170	70.1730
 0.9180	70.1440
 0.9190	70.1190
 0.9200	70.0720
 0.9210	70.0250
 0.9220	69.9830
 0.9230	69.9370
 0.9240	69.8870
 0.9250	69.8350
 0.9260	69.7760
 0.9270	69.7080
 0.9280	69.6180
 0.9290	69.5330
 0.9300	69.4550
 0.9310	69.3590
 0.9320	69.2580
 0.9330	69.1570
 0.9340	69.0590
 0.9350	68.9590
 0.9360	68.8450
 0.9370	68.7340
 0.9380	68.6240
 0.9390	68.4820
 0.9400	68.3480
 0.9410	68.2210
 0.9420	68.0850
 0.9430	67.9280
 0.9440	67.7560
 0.9450	67.5800
 0.9460	67.4020
 0.9470	67.2040
 0.9480	67.0180
 0.9490	66.8110
 0.9500	66.5580
 0.9510	66.2830
 0.9520	66.0280
 0.9530	65.7690
 0.9540	65.4870
 0.9550	65.2350
 0.9560	64.9720
 0.9570	64.7110
 0.9580	64.4700
 0.9590	64.2290
 0.9600	64.0310
 0.9610	63.8620
 0.9620	63.6960
 0.9630	63.5560
 0.9640	63.4300
 0.9650	63.3110
 0.9660	63.1990
 0.9670	63.1180
 0.9680	63.0360
 0.9690	62.9470
 0.9700	62.8610
 0.9710	62.8210
 0.9720	62.7660
 0.9730	62.6990
 0.9740	62.6470
 0.9750	62.6180
 0.9760	62.6010
 0.9770	62.5870
 0.9780	62.5680
 0.9790	62.5590
 0.9800	62.5640
 0.9810	62.5760
 0.9820	62.5830
 0.9830	62.5940
 0.9840	62.6350
 0.9850	62.6790
 0.9860	62.6870
 0.9870	62.7000
 0.9880	62.7700
 0.9890	62.8610
 0.9900	62.9080
 0.9910	62.9480
 0.9920	63.1170
 0.9930	63.2860
 0.9940	63.4550
 0.9950	63.6240
 0.9960	63.7930
 0.9970	63.9620
 0.9980	64.1310
 0.9990	64.3000
 1.0000	64.4690
 1.0010	64.6380
 1.0020	64.8070
 1.0030	64.9760
 1.0040	65.1450
 1.0050	65.3140
 1.0060	65.4830
 1.0070	65.6520
 1.0080	65.8210
 1.0090	65.9900
 1.0100	65.9900
 1.0110	66.1080
 1.0120	66.2210
 1.0130	66.3320
 1.0140	66.4460
 1.0150	66.5580
 1.0160	66.6710
 1.0170	66.7920
 1.0180	66.9050
 1.0190	67.0140
 1.0200	67.1280
 1.0210	67.2430
 1.0220	67.3540
 1.0230	67.4640
 1.0240	67.5750
 1.0250	67.6830
 1.0260	67.7850
 1.0270	67.8900
 1.0280	68.0000
 1.0290	68.1030
 1.0300	68.2000
 1.0310	68.3010
 1.0320	68.4020
 1.0330	68.4990
 1.0340	68.6000
 1.0350	68.7030
 1.0360	68.7870
 1.0370	68.8700
 1.0380	68.9600
 1.0390	69.0490
 1.0400	69.1380
 1.0410	69.2390
 1.0420	69.3240
 1.0430	69.3980
 1.0440	69.4750
 1.0450	69.5520
 1.0460	69.6260
 1.0470	69.7010
 1.0480	69.7700
 1.0490	69.8350
 1.0500	69.8980
 1.0510	69.9570
 1.0520	70.0170
 1.0530	70.0750
 1.0540	70.1330
 1.0550	70.1840
 1.0560	70.2300
 1.0570	70.2770
 1.0580	70.3200
 1.0590	70.3640
 1.0600	70.4130
 1.0610	70.4550
 1.0620	70.4940
 1.0630	70.5290
 1.0640	70.5610
 1.0650	70.5890
 1.0660	70.6150
 1.0670	70.6380
 1.0680	70.6600
 1.0690	70.6780
 1.0700	70.6940
 1.0710	70.7080
 1.0720	70.7190
 1.0730	70.7260
 1.0740	70.7340
 1.0750	70.7410
 1.0760	70.7440
 1.0770	70.7450
 1.0780	70.7410
 1.0790	70.7330
 1.0800	70.7220
 1.0810	70.7090
 1.0820	70.6900
 1.0830	70.6630
 1.0840	70.6390
 1.0850	70.6120
 1.0860	70.5860
 1.0870	70.5580
 1.0880	70.5330
 1.0890	70.4990
 1.0900	70.4600
 1.0910	70.4180
 1.0920	70.3710
 1.0930	70.3250
 1.0940	70.2810
 1.0950	70.2300
 1.0960	70.1750
 1.0970	70.1200
 1.0980	70.0590
 1.0990	70.0000
 1.1000	69.9430
 1.1010	69.8850
 1.1020	69.8280
 1.1030	69.7670
 1.1040	69.7030
 1.1050	69.6350
 1.1060	69.5650
 1.1070	69.4910
 1.1080	69.4180
 1.1090	69.3460
 1.1100	69.2690
 1.1110	69.1900
 1.1120	69.1080
 1.1130	69.0240
 1.1140	68.9320
 1.1150	68.8370
 1.1160	68.7330
 1.1170	68.6240
 1.1180	68.5040
 1.1190	68.3790
 1.1200	68.2400
 1.1210	68.0870
 1.1220	67.9250
 1.1230	67.7440
 1.1240	67.5480
 1.1250	67.3310
 1.1260	67.1010
 1.1270	66.8430
 1.1280	66.5660
 1.1290	66.2640
 1.1300	65.9400
 1.1310	65.5920
 1.1320	65.2210
 1.1330	64.8300
 1.1340	64.4130
 1.1350	63.9780
 1.1360	63.5210
 1.1370	63.0490
 1.1380	62.5600
 1.1390	62.0620
 1.1400	61.5520
 1.1410	61.0380
 1.1420	60.5230
 1.1430	60.0110
 1.1440	59.5100
 1.1450	59.0080
 1.1460	58.5300
 1.1470	58.0570
 1.1480	57.6110
 1.1490	57.1820
 1.1500	56.7800
 1.1510	56.3980
 1.1520	56.0430
 1.1530	55.7120
 1.1540	55.4060
 1.1550	55.1230
 1.1560	54.8660
 1.1570	54.6330
 1.1580	54.4230
 1.1590	54.2340
 1.1600	54.0610
 1.1610	53.9060
 1.1620	53.7660
 1.1630	53.6400
 1.1640	53.5280
 1.1650	53.4230
 1.1660	53.3320
 1.1670	53.2440
 1.1680	53.1650
 1.1690	53.0890
 1.1700	53.0190
 1.1710	52.9510
 1.1720	52.8870
 1.1730	52.8230
 1.1740	52.7610
 1.1750	52.7020
 1.1760	52.6400
 1.1770	52.5760
 1.1780	52.5140
 1.1790	52.4490
 1.1800	52.3830
 1.1810	52.3200
 1.1820	52.2550
 1.1830	52.1890
 1.1840	52.1240
 1.1850	52.0590
 1.1860	51.9920
 1.1870	51.9280
 1.1880	51.8700
 1.1890	51.8150
 1.1900	51.7650
 1.1910	51.7220
 1.1920	51.6820
 1.1930	51.6450
 1.1940	51.6160
 1.1950	51.5920
 1.1960	51.5730
 1.1970	51.5620
 1.1980	51.5570
 1.1990	51.5520
 1.2000	51.5540
 1.2010	51.5620
 1.2020	51.5750
 1.2030	51.5960
 1.2040	51.6220
 1.2050	51.6490
 1.2060	51.6780
 1.2070	51.7110
 1.2080	51.7510
 1.2090	51.7940
 1.2100	51.8420
 1.2110	51.8950
 1.2120	51.9520
 1.2130	52.0130
 1.2140	52.0790
 1.2150	52.1490
 1.2160	52.2240
 1.2170	52.3020
 1.2180	52.3820
 1.2190	52.4660
 1.2200	52.5510
 1.2210	52.6370
 1.2220	52.7280
 1.2230	52.8190
 1.2240	52.9100
 1.2250	53.0000
 1.2260	53.0880
 1.2270	53.1740
 1.2280	53.2630
 1.2290	53.3510
 1.2300	53.4340
 1.2310	53.5160
 1.2320	53.5970
 1.2330	53.6730
 1.2340	53.7490
 1.2350	53.8250
 1.2360	53.8980
 1.2370	53.9670
 1.2380	54.0370
 1.2390	54.1080
 1.2400	54.1760
 1.2410	54.2430
 1.2420	54.3080
 1.2430	54.3710
 1.2440	54.4320
 1.2450	54.4920
 1.2460	54.5470
 1.2470	54.6000
 1.2480	54.6530
 1.2490	54.7040
 1.2500	54.7530
 1.2510	54.8000
 1.2520	54.8470
 1.2530	54.8880
 1.2540	54.9290
 1.2550	54.9690
 1.2560	55.0030
 1.2570	55.0360
 1.2580	55.0660
 1.2590	55.0950
 1.2600	55.1240
 1.2610	55.1500
 1.2620	55.1740
 1.2630	55.1930
 1.2640	55.2060
 1.2650	55.2160
 1.2660	55.2250
 1.2670	55.2310
 1.2680	55.2380
 1.2690	55.2430
 1.2700	55.2420
 1.2710	55.2380
 1.2720	55.2310
 1.2730	55.2190
 1.2740	55.2060
 1.2750	55.1910
 1.2760	55.1700
 1.2770	55.1450
 1.2780	55.1160
 1.2790	55.0850
 1.2800	55.0500
 1.2810	55.0120
 1.2820	54.9700
 1.2830	54.9220
 1.2840	54.8690
 1.2850	54.8100
 1.2860	54.7470
 1.2870	54.6790
 1.2880	54.6060
 1.2890	54.5250
 1.2900	54.4380
 1.2910	54.3460
 1.2920	54.2480
 1.2930	54.1450
 1.2940	54.0390
 1.2950	53.9240
 1.2960	53.8000
 1.2970	53.6720
 1.2980	53.5390
 1.2990	53.3960
 1.3000	53.2490
 1.3010	53.0970
 1.3020	52.9340
 1.3030	52.7680
 1.3040	52.5930
 1.3050	52.4070
 1.3060	52.2140
 1.3070	52.0140
 1.3080	51.8080
 1.3090	51.5980
 1.3100	51.3810
 1.3110	51.1570
 1.3120	50.9270
 1.3130	50.6930
 1.3140	50.4490
 1.3150	50.1960
 1.3160	49.9390
 1.3170	49.6760
 1.3180	49.4070
 1.3190	49.1310
 1.3200	48.8530
 1.3210	48.5660
 1.3220	48.2740
 1.3230	47.9810
 1.3240	47.6830
 1.3250	47.3860
 1.3260	47.0830
 1.3270	46.7740
 1.3280	46.4640
 1.3290	46.1490
 1.3300	45.8350
 1.3310	45.5220
 1.3320	45.2050
 1.3330	44.8910
 1.3340	44.5790
 1.3350	44.2660
 1.3360	43.9600
 1.3370	43.6560
 1.3380	43.3520
 1.3390	43.0530
 1.3400	42.7570
 1.3410	42.4680
 1.3420	42.1840
 1.3430	41.9050
 1.3440	41.6320
 1.3450	41.3640
 1.3460	41.1000
 1.3470	40.8430
 1.3480	40.5920
 1.3490	40.3460
 1.3500	40.1070
 1.3510	39.8700
 1.3520	39.6360
 1.3530	39.4070
 1.3540	39.1790
 1.3550	38.9530
 1.3560	38.7300
 1.3570	38.5040
 1.3580	38.2790
 1.3590	38.0510
 1.3600	37.8170
 1.3610	37.5810
 1.3620	37.3360
 1.3630	37.0890
 1.3640	36.8340
 1.3650	36.5670
 1.3660	36.2940
 1.3670	36.0080
 1.3680	35.7100
 1.3690	35.3990
 1.3700	35.0680
 1.3710	34.7230
 1.3720	34.3610
 1.3730	33.9780
 1.3740	33.5800
 1.3750	33.1580
 1.3760	32.7130
 1.3770	32.2470
 1.3780	31.7500
 1.3790	31.2340
 1.3800	30.6960
 1.3810	30.1310
 1.3820	29.5540
 1.3830	28.9600
 1.3840	28.3530
 1.3850	27.7290
 1.3860	27.1000
 1.3870	26.4530
 1.3880	25.8140
 1.3890	25.1710
 1.3900	24.5290
 1.3910	23.8990
 1.3920	23.2760
 1.3930	22.6590
 1.3940	22.0570
 1.3950	21.4620
 1.3960	20.8860
 1.3970	20.3310
 1.3980	19.7970
 1.3990	19.2910
 1.4000	18.8050
 1.4010	18.3390
 1.4020	17.8970
 1.4030	17.4750
 1.4040	17.0760
 1.4050	16.7020
 1.4060	16.3480
 1.4070	16.0200
 1.4080	15.7120
 1.4090	15.4220
 1.4100	15.1530
 1.4110	14.9000
 1.4120	14.6660
 1.4130	14.4480
 1.4140	14.2460
 1.4150	14.0600
 1.4160	13.8860
 1.4170	13.7250
 1.4180	13.5760
 1.4190	13.4370
 1.4200	13.3090
 1.4210	13.1900
 1.4220	13.0800
 1.4230	12.9790
 1.4240	12.8870
 1.4250	12.8010
 1.4260	12.7230
 1.4270	12.6510
 1.4280	12.5860
 1.4290	12.5260
 1.4300	12.4710
 1.4310	12.4210
 1.4320	12.3780
 1.4330	12.3380
 1.4340	12.3030
 1.4350	12.2710
 1.4360	12.2420
 1.4370	12.2160
 1.4380	12.1940
 1.4390	12.1760
 1.4400	12.1600
 1.4410	12.1480
 1.4420	12.1370
 1.4430	12.1290
 1.4440	12.1230
 1.4450	12.1190
 1.4460	12.1170
 1.4470	12.1180
 1.4480	12.1210
 1.4490	12.1240
 1.4500	12.1280
 1.4510	12.1330
 1.4520	12.1400
 1.4530	12.1470
 1.4540	12.1570
 1.4550	12.1700
 1.4560	12.1830
 1.4570	12.1980
 1.4580	12.2150
 1.4590	12.2340
 1.4600	12.2560
 1.4610	12.2820
 1.4620	12.3100
 1.4630	12.3410
 1.4640	12.3740
 1.4650	12.4100
 1.4660	12.4490
 1.4670	12.4930
 1.4680	12.5410
 1.4690	12.5910
 1.4700	12.6440
 1.4710	12.7020
 1.4720	12.7610
 1.4730	12.8240
 1.4740	12.8900
 1.4750	12.9570
 1.4760	13.0270
 1.4770	13.0980
 1.4780	13.1720
 1.4790	13.2500
 1.4800	13.3280
 1.4810	13.4080
 1.4820	13.4900
 1.4830	13.5720
 1.4840	13.6560
 1.4850	13.7420
 1.4860	13.8280
 1.4870	13.9170
 1.4880	14.0060
 1.4890	14.0970
 1.4900	14.1880
 1.4910	14.2810
 1.4920	14.3740
 1.4930	14.4680
 1.4940	14.5620
 1.4950	14.6580
 1.4960	14.7540
 1.4970	14.8490
 1.4980	14.9460
 1.4990	15.0440
 1.5000	15.1430
 1.5010	15.2440
 1.5020	15.3430
 1.5030	15.4430
 1.5040	15.5430
 1.5050	15.6410
 1.5060	15.7410
 1.5070	15.8430
 1.5080	15.9440
 1.5090	16.0450
 1.5100	16.1460
 1.5110	16.2470
 1.5120	16.3470
 1.5130	16.4460
 1.5140	16.5460
 1.5150	16.6460
 1.5160	16.7450
 1.5170	16.8460
 1.5180	16.9460
 1.5190	17.0450
 1.5200	17.1430
 1.5210	17.2390
 1.5220	17.3360
 1.5230	17.4340
 1.5240	17.5310
 1.5250	17.6280
 1.5260	17.7240
 1.5270	17.8190
 1.5280	17.9130
 1.5290	18.0060
 1.5300	18.0990
 1.5310	18.1930
 1.5320	18.2850
 1.5330	18.3780
 1.5340	18.4720
 1.5350	18.5630
 1.5360	18.6550
 1.5370	18.7450
 1.5380	18.8330
 1.5390	18.9230
 1.5400	19.0130
 1.5410	19.1030
 1.5420	19.1930
 1.5430	19.2820
 1.5440	19.3690
 1.5450	19.4560
 1.5460	19.5430
 1.5470	19.6310
 1.5480	19.7170
 1.5490	19.8040
 1.5500	19.8880
 1.5510	19.9730
 1.5520	20.0590
 1.5530	20.1430
 1.5540	20.2260
 1.5550	20.3090
 1.5560	20.3900
 1.5570	20.4700
 1.5580	20.5520
 1.5590	20.6330
 1.5600	20.7140
 1.5610	20.7930
 1.5620	20.8720
 1.5630	20.9510
 1.5640	21.0300
 1.5650	21.1090
 1.5660	21.1880
 1.5670	21.2650
 1.5680	21.3430
 1.5690	21.4200
 1.5700	21.4960
 1.5710	21.5720
 1.5720	21.6460
 1.5730	21.7200
 1.5740	21.7950
 1.5750	21.8680
 1.5760	21.9420
 1.5770	22.0170
 1.5780	22.0910
 1.5790	22.1650
 1.5800	22.2390
 1.5810	22.3130
 1.5820	22.3880
 1.5830	22.4620
 1.5840	22.5360
 1.5850	22.6090
 1.5860	22.6800
 1.5870	22.7540
 1.5880	22.8290
 1.5890	22.9050
 1.5900	22.9810
 1.5910	23.0560
 1.5920	23.1310
 1.5930	23.2060
 1.5940	23.2810
 1.5950	23.3560
 1.5960	23.4310
 1.5970	23.5040
 1.5980	23.5790
 1.5990	23.6530
 1.6000	23.7260
 1.6010	23.7990
 1.6020	23.8720
 1.6030	23.9450
 1.6040	24.0150
 1.6050	24.0860
 1.6060	24.1570
 1.6070	24.2270
 1.6080	24.2990
 1.6090	24.3680
 1.6100	24.4370
 1.6110	24.5050
 1.6120	24.5710
 1.6130	24.6380
 1.6140	24.7030
 1.6150	24.7670
 1.6160	24.8310
 1.6170	24.8950
 1.6180	24.9580
 1.6190	25.0210
 1.6200	25.0800
 1.6210	25.1380
 1.6220	25.1940
 1.6230	25.2490
 1.6240	25.3030
 1.6250	25.3560
 1.6260	25.4090
 1.6270	25.4620
 1.6280	25.5130
 1.6290	25.5630
 1.6300	25.6120
 1.6310	25.6600
 1.6320	25.7090
 1.6330	25.7560
 1.6340	25.8030
 1.6350	25.8490
 1.6360	25.8940
 1.6370	25.9380
 1.6380	25.9810
 1.6390	26.0230
 1.6400	26.0660
 1.6410	26.1040
 1.6420	26.1410
 1.6430	26.1760
 1.6440	26.2080
 1.6450	26.2400
 1.6460	26.2690
 1.6470	26.2940
 1.6480	26.3150
 1.6490	26.3310
 1.6500	26.3440
 1.6510	26.3550
 1.6520	26.3650
 1.6530	26.3720
 1.6540	26.3760
 1.6550	26.3780
 1.6560	26.3770
 1.6570	26.3750
 1.6580	26.3720
 1.6590	26.3690
 1.6600	26.3660
 1.6610	26.3630
 1.6620	26.3620
 1.6630	26.3590
 1.6640	26.3570
 1.6650	26.3550
 1.6660	26.3520
 1.6670	26.3510
 1.6680	26.3500
 1.6690	26.3460
 1.6700	26.3440
 1.6710	26.3400
 1.6720	26.3360
 1.6730	26.3330
 1.6740	26.3290
 1.6750	26.3240
 1.6760	26.3170
 1.6770	26.3080
 1.6780	26.3000
 1.6790	26.2920
 1.6800	26.2810
 1.6810	26.2710
 1.6820	26.2570
 1.6830	26.2390
 1.6840	26.2200
 1.6850	26.1960
 1.6860	26.1700
 1.6870	26.1410
 1.6880	26.1100
 1.6890	26.0760
 1.6900	26.0400
 1.6910	26.0020
 1.6920	25.9610
 1.6930	25.9190
 1.6940	25.8760
 1.6950	25.8300
 1.6960	25.7850
 1.6970	25.7380
 1.6980	25.6920
 1.6990	25.6430
 1.7000	25.5970
 1.7010	25.5510
 1.7020	25.5040
 1.7030	25.4590
 1.7040	25.4150
 1.7050	25.3700
 1.7060	25.3260
 1.7070	25.2820
 1.7080	25.2370
 1.7090	25.1920
 1.7100	25.1460
 1.7110	25.1010
 1.7120	25.0570
 1.7130	25.0110
 1.7140	24.9650
 1.7150	24.9160
 1.7160	24.8660
 1.7170	24.8150
 1.7180	24.7630
 1.7190	24.7100
 1.7200	24.6540
 1.7210	24.5970
 1.7220	24.5400
 1.7230	24.4820
 1.7240	24.4250
 1.7250	24.3680
 1.7260	24.3110
 1.7270	24.2540
 1.7280	24.1990
 1.7290	24.1440
 1.7300	24.0900
 1.7310	24.0360
 1.7320	23.9820
 1.7330	23.9280
 1.7340	23.8750
 1.7350	23.8210
 1.7360	23.7660
 1.7370	23.7100
 1.7380	23.6530
 1.7390	23.5940
 1.7400	23.5320
 1.7410	23.4720
 1.7420	23.4100
 1.7430	23.3480
 1.7440	23.2870
 1.7450	23.2250
 1.7460	23.1630
 1.7470	23.0990
 1.7480	23.0360
 1.7490	22.9710
 1.7500	22.9030
 1.7510	22.8400
 1.7520	22.7780
 1.7530	22.7160
 1.7540	22.6570
 1.7550	22.5940
 1.7560	22.5320
 1.7570	22.4720
 1.7580	22.4140
 1.7590	22.3550
 1.7600	22.2980
 1.7610	22.2420
 1.7620	22.1870
 1.7630	22.1360
 1.7640	22.0850
 1.7650	22.0340
 1.7660	21.9860
 1.7670	21.9410
 1.7680	21.8970
 1.7690	21.8560
 1.7700	21.8150
 1.7710	21.7720
 1.7720	21.7340
 1.7730	21.7000
 1.7740	21.6660
 1.7750	21.6350
 1.7760	21.6040
 1.7770	21.5720
 1.7780	21.5440
 1.7790	21.5190
 1.7800	21.4960
 1.7810	21.4750
 1.7820	21.4560
 1.7830	21.4400
 1.7840	21.4250
 1.7850	21.4090
 1.7860	21.3980
 1.7870	21.3880
 1.7880	21.3810
 1.7890	21.3760
 1.7900	21.3720
 1.7910	21.3710
 1.7920	21.3730
 1.7930	21.3740
 1.7940	21.3740
 1.7950	21.3780
 1.7960	21.3820
 1.7970	21.3880
 1.7980	21.3990
 1.7990	21.4070
 1.8000	21.4130
 1.8010	21.4220
 1.8020	21.4320
 1.8030	21.4410
 1.8040	21.4520
 1.8050	21.4610
 1.8060	21.4680
 1.8070	21.4770
 1.8080	21.4870
 1.8090	21.4950
 1.8100	21.5040
 1.8110	21.5110
 1.8120	21.5200
 1.8130	21.5310
 1.8140	21.5410
 1.8150	21.5490
 1.8160	21.5560
 1.8170	21.5630
 1.8180	21.5660
 1.8190	21.5700
 1.8200	21.5720
 1.8210	21.5710
 1.8220	21.5720
 1.8230	21.5720
 1.8240	21.5710
 1.8250	21.5690
 1.8260	21.5690
 1.8270	21.5230
 1.8280	21.4770
 1.8290	21.4310
 1.8300	21.3850
 1.8310	21.3390
 1.8320	21.2930
 1.8330	21.2470
 1.8340	21.2010
 1.8350	21.2010
 1.8360	21.1700
 1.8370	21.1340
 1.8380	21.0920
 1.8390	21.0450
 1.8400	20.9990
 1.8410	20.9410
 1.8420	20.8760
 1.8430	20.8050
 1.8440	20.7280
 1.8450	20.6440
 1.8460	20.5570
 1.8470	20.4680
 1.8480	20.3680
 1.8490	20.2580
 1.8500	20.1360
 1.8510	20.0050
 1.8520	19.8590
 1.8530	19.7010
 1.8540	19.5380
 1.8550	19.3620
 1.8560	19.1740
 1.8570	18.9800
 1.8580	18.7750
 1.8590	18.5580
 1.8600	18.3290
 1.8610	18.0900
 1.8620	17.8370
 1.8630	17.5750
 1.8640	17.3020
 1.8650	17.0150
 1.8660	16.7200
 1.8670	16.4080
 1.8680	16.0820
 1.8690	15.7470
 1.8700	15.4020
 1.8710	15.0470
 1.8720	14.6890
 1.8730	14.3240
 1.8740	13.9550
 1.8750	13.5830
 1.8760	13.2060
 1.8770	12.8320
 1.8780	12.4630
 1.8790	12.0970
 1.8800	11.7410
 1.8810	11.3910
 1.8820	11.0460
 1.8830	10.7060
 1.8840	10.3720
 1.8850	10.0450
 1.8860	 9.7300
 1.8870	 9.4290
 1.8880	 9.1420
 1.8890	 8.8710
 1.8900	 8.6130
 1.8910	 8.3680
 1.8920	 8.1360
 1.8930	 7.9200
 1.8940	 7.7170
 1.8950	 7.5280
 1.8960	 7.3530
 1.8970	 7.1920
 1.8980	 7.0450
 1.8990	 6.9110
 1.9000	 6.7880
 1.9010	 6.6800
 1.9020	 6.5770
 1.9030	 6.4840
 1.9040	 6.4010
 1.9050	 6.3270
 1.9060	 6.2620
 1.9070	 6.2060
 1.9080	 6.1560
 1.9090	 6.1100
 1.9100	 6.0690
 1.9110	 6.0310
 1.9120	 6.0010
 1.9130	 5.9710
 1.9140	 5.9440
 1.9150	 5.9180
 1.9160	 5.8940
 1.9170	 5.8730
 1.9180	 5.8550
 1.9190	 5.8370
 1.9200	 5.8220
 1.9210	 5.8100
 1.9220	 5.8010
 1.9230	 5.7950
 1.9240	 5.7880
 1.9250	 5.7840
 1.9260	 5.7800
 1.9270	 5.7770
 1.9280	 5.7760
 1.9290	 5.7780
 1.9300	 5.7820
 1.9310	 5.7870
 1.9320	 5.7920
 1.9330	 5.7960
 1.9340	 5.8000
 1.9350	 5.8050
 1.9360	 5.8100
 1.9370	 5.8170
 1.9380	 5.8250
 1.9390	 5.8350
 1.9400	 5.8460
 1.9410	 5.8560
 1.9420	 5.8690
 1.9430	 5.8830
 1.9440	 5.8980
 1.9450	 5.9140
 1.9460	 5.9300
 1.9470	 5.9460
 1.9480	 5.9620
 1.9490	 5.9790
 1.9500	 5.9960
 1.9510	 6.0120
 1.9520	 6.0300
 1.9530	 6.0480
 1.9540	 6.0650
 1.9550	 6.0840
 1.9560	 6.1020
 1.9570	 6.1240
 1.9580	 6.1490
 1.9590	 6.1720
 1.9600	 6.1950
 1.9610	 6.2190
 1.9620	 6.2400
 1.9630	 6.2640
 1.9640	 6.2890
 1.9650	 6.3140
 1.9660	 6.3410
 1.9670	 6.3680
 1.9680	 6.3950
 1.9690	 6.4230
 1.9700	 6.4520
 1.9710	 6.4800
 1.9720	 6.5100
 1.9730	 6.5410
 1.9740	 6.5730
 1.9750	 6.6040
 1.9760	 6.6360
 1.9770	 6.6700
 1.9780	 6.7030
 1.9790	 6.7360
 1.9800	 6.7680
 1.9810	 6.8000
 1.9820	 6.8300
 1.9830	 6.8610
 1.9840	 6.8910
 1.9850	 6.9230
 1.9860	 6.9560
 1.9870	 6.9910
 1.9880	 7.0250
 1.9890	 7.0600
 1.9900	 7.0970
 1.9910	 7.1330
 1.9920	 7.1700
 1.9930	 7.2100
 1.9940	 7.2480
 1.9950	 7.2840
 1.9960	 7.3220
 1.9970	 7.3610
 1.9980	 7.3990
 1.9990	 7.4370
 2.0000	 7.4740
 2.0010	 7.5110
 2.0020	 7.5490
 2.0030	 7.5910
 2.0040	 7.6330
 2.0050	 7.6710
 2.0060	 7.7080
 2.0070	 7.7450
 2.0080	 7.7790
 2.0090	 7.8150
 2.0100	 7.8530
 2.0110	 7.8910
 2.0120	 7.9290
 2.0130	 7.9660
 2.0140	 8.0040
 2.0150	 8.0400
 2.0160	 8.0750
 2.0170	 8.1080
 2.0180	 8.1420
 2.0190	 8.1750
 2.0200	 8.2100
 2.0210	 8.2440
 2.0220	 8.2790
 2.0230	 8.3160
 2.0240	 8.3520
 2.0250	 8.3890
 2.0260	 8.4230
 2.0270	 8.4550
 2.0280	 8.4850
 2.0290	 8.5140
 2.0300	 8.5450
 2.0310	 8.5740
 2.0320	 8.6020
 2.0330	 8.6310
 2.0340	 8.6590
 2.0350	 8.6860
 2.0360	 8.7120
 2.0370	 8.7390
 2.0380	 8.7660
 2.0390	 8.7920
 2.0400	 8.8170
 2.0410	 8.8420
 2.0420	 8.8660
 2.0430	 8.8880
 2.0440	 8.9110
 2.0450	 8.9370
 2.0460	 8.9600
 2.0470	 8.9830
 2.0480	 9.0060
 2.0490	 9.0300
 2.0500	 9.0530
 2.0510	 9.0770
 2.0520	 9.0990
 2.0530	 9.1210
 2.0540	 9.1410
 2.0550	 9.1600
 2.0560	 9.1770
 2.0570	 9.1970
 2.0580	 9.2180
 2.0590	 9.2380
 2.0600	 9.2610
 2.0610	 9.2810
 2.0620	 9.3000
 2.0630	 9.3190
 2.0640	 9.3370
 2.0650	 9.3570
 2.0660	 9.3760
 2.0670	 9.3960
 2.0680	 9.4150
 2.0690	 9.4360
 2.0700	 9.4580
 2.0710	 9.4790
 2.0720	 9.5020
 2.0730	 9.5230
 2.0740	 9.5430
 2.0750	 9.5620
 2.0760	 9.5830
 2.0770	 9.6060
 2.0780	 9.6260
 2.0790	 9.6450
 2.0800	 9.6650
 2.0810	 9.6840
 2.0820	 9.7030
 2.0830	 9.7210
 2.0840	 9.7420
 2.0850	 9.7630
 2.0860	 9.7830
 2.0870	 9.8050
 2.0880	 9.8300
 2.0890	 9.8490
 2.0900	 9.8640
 2.0910	 9.8840
 2.0920	 9.9040
 2.0930	 9.9240
 2.0940	 9.9440
 2.0950	 9.9670
 2.0960	 9.9920
 2.0970	10.0150
 2.0980	10.0420
 2.0990	10.0650
 2.1000	10.0860
 2.1010	10.1070
 2.1020	10.1290
 2.1030	10.1500
 2.1040	10.1720
 2.1050	10.1940
 2.1060	10.2160
 2.1070	10.2390
 2.1080	10.2620
 2.1090	10.2860
 2.1100	10.3090
 2.1110	10.3320
 2.1120	10.3560
 2.1130	10.3800
 2.1140	10.4040
 2.1150	10.4270
 2.1160	10.4520
 2.1170	10.4780
 2.1180	10.5030
 2.1190	10.5270
 2.1200	10.5520
 2.1210	10.5770
 2.1220	10.6010
 2.1230	10.6260
 2.1240	10.6530
 2.1250	10.6760
 2.1260	10.6960
 2.1270	10.7170
 2.1280	10.7350
 2.1290	10.7580
 2.1300	10.7860
 2.1310	10.8110
 2.1320	10.8390
 2.1330	10.8640
 2.1340	10.8870
 2.1350	10.9090
 2.1360	10.9310
 2.1370	10.9530
 2.1380	10.9740
 2.1390	10.9970
 2.1400	11.0200
 2.1410	11.0450
 2.1420	11.0680
 2.1430	11.0890
 2.1440	11.1130
 2.1450	11.1360
 2.1460	11.1620
 2.1470	11.1940
 2.1480	11.2200
 2.1490	11.2430
 2.1500	11.2670
 2.1510	11.2910
 2.1520	11.3140
 2.1530	11.3370
 2.1540	11.3620
 2.1550	11.3860
 2.1560	11.4090
 2.1570	11.4330
 2.1580	11.4550
 2.1590	11.4720
 2.1600	11.4900
 2.1610	11.5120
 2.1620	11.5340
 2.1630	11.5560
 2.1640	11.5810
 2.1650	11.6040
 2.1660	11.6270
 2.1670	11.6490
 2.1680	11.6710
 2.1690	11.6910
 2.1700	11.7080
 2.1710	11.7280
 2.1720	11.7490
 2.1730	11.7700
 2.1740	11.7940
 2.1750	11.8140
 2.1760	11.8340
 2.1770	11.8530
 2.1780	11.8670
 2.1790	11.8860
 2.1800	11.9090
 2.1810	11.9310
 2.1820	11.9550
 2.1830	11.9810
 2.1840	12.0040
 2.1850	12.0260
 2.1860	12.0460
 2.1870	12.0660
 2.1880	12.0860
 2.1890	12.1050
 2.1900	12.1250
 2.1910	12.1510
 2.1920	12.1700
 2.1930	12.1860
 2.1940	12.2020
 2.1950	12.2130
 2.1960	12.2280
 2.1970	12.2460
 2.1980	12.2640
 2.1990	12.2850
 2.2000	12.3010
 2.2010	12.3130
 2.2020	12.3260
 2.2030	12.3370
 2.2040	12.3490
 2.2050	12.3640
 2.2060	12.3800
 2.2070	12.3930
 2.2080	12.4070
 2.2090	12.4170
 2.2100	12.4260
 2.2110	12.4350
 2.2120	12.4420
 2.2130	12.4510
 2.2140	12.4620
 2.2150	12.4690
 2.2160	12.4770
 2.2170	12.4800
 2.2180	12.4780
 2.2190	12.4780
 2.2200	12.4750
 2.2210	12.4720
 2.2220	12.4710
 2.2230	12.4660
 2.2240	12.4570
 2.2250	12.4470
 2.2260	12.4350
 2.2270	12.4220
 2.2280	12.4090
 2.2290	12.3930
 2.2300	12.3730
 2.2310	12.3570
 2.2320	12.3350
 2.2330	12.3080
 2.2340	12.2820
 2.2350	12.2530
 2.2360	12.2260
 2.2370	12.1980
 2.2380	12.1690
 2.2390	12.1380
 2.2400	12.1060
 2.2410	12.0720
 2.2420	12.0360
 2.2430	11.9970
 2.2440	11.9610
 2.2450	11.9270
 2.2460	11.8860
 2.2470	11.8410
 2.2480	11.7970
 2.2490	11.7460
 2.2500	11.7000
 2.2510	11.6610
 2.2520	11.6140
 2.2530	11.5590
 2.2540	11.5080
 2.2550	11.4530
 2.2560	11.4000
 2.2570	11.3520
 2.2580	11.3010
 2.2590	11.2430
 2.2600	11.1900
 2.2610	11.1370
 2.2620	11.0840
 2.2630	11.0330
 2.2640	10.9870
 2.2650	10.9420
 2.2660	10.8980
 2.2670	10.8530
 2.2680	10.8080
 2.2690	10.7650
 2.2700	10.7190
 2.2710	10.6770
 2.2720	10.6390
 2.2730	10.6030
 2.2740	10.5690
 2.2750	10.5360
 2.2760	10.5070
 2.2770	10.4800
 2.2780	10.4540
 2.2790	10.4310
 2.2800	10.4140
 2.2810	10.3930
 2.2820	10.3710
 2.2830	10.3490
 2.2840	10.3260
 2.2850	10.3050
 2.2860	10.2860
 2.2870	10.2660
 2.2880	10.2500
 2.2890	10.2270
 2.2900	10.2020
 2.2910	10.1760
 2.2920	10.1410
 2.2930	10.1130
 2.2940	10.0860
 2.2950	10.0610
 2.2960	10.0450
 2.2970	10.0210
 2.2980	 9.9930
 2.2990	 9.9670
 2.3000	 9.9300
 2.3010	 9.8940
 2.3020	 9.8650
 2.3030	 9.8300
 2.3040	 9.8020
 2.3050	 9.7730
 2.3060	 9.7410
 2.3070	 9.7130
 2.3080	 9.6870
 2.3090	 9.6650
 2.3100	 9.6490
 2.3110	 9.6310
 2.3120	 9.6110
 2.3130	 9.5890
 2.3140	 9.5710
 2.3150	 9.5520
 2.3160	 9.5350
 2.3170	 9.5220
 2.3180	 9.5070
 2.3190	 9.4920
 2.3200	 9.4770
 2.3210	 9.4660
 2.3220	 9.4480
 2.3230	 9.4230
 2.3240	 9.4030
 2.3250	 9.3810
 2.3260	 9.3600
 2.3270	 9.3440
 2.3280	 9.3230
 2.3290	 9.2970
 2.3300	 9.2740
 2.3310	 9.2490
 2.3320	 9.2260
 2.3330	 9.2070
 2.3340	 9.1840
 2.3350	 9.1570
 2.3360	 9.1350
 2.3370	 9.1130
 2.3380	 9.0870
 2.3390	 9.0590
 2.3400	 9.0350
 2.3410	 9.0100
 2.3420	 8.9870
 2.3430	 8.9730
 2.3440	 8.9540
 2.3450	 8.9340
 2.3460	 8.9090
 2.3470	 8.8800
 2.3480	 8.8560
 2.3490	 8.8270
 2.3500	 8.8020
 2.3510	 8.7850
 2.3520	 8.7630
 2.3530	 8.7380
 2.3540	 8.7170
 2.3550	 8.7030
 2.3560	 8.6800
 2.3570	 8.6620
 2.3580	 8.6500
 2.3590	 8.6370
 2.3600	 8.6280
 2.3610	 8.6180
 2.3620	 8.6030
 2.3630	 8.5780
 2.3640	 8.5550
 2.3650	 8.5280
 2.3660	 8.5000
 2.3670	 8.4750
 2.3680	 8.4420
 2.3690	 8.4160
 2.3700	 8.3920
 2.3710	 8.3620
 2.3720	 8.3430
 2.3730	 8.3260
 2.3740	 8.3050
 2.3750	 8.2990
 2.3760	 8.2890
 2.3770	 8.2640
 2.3780	 8.2410
 2.3790	 8.2090
 2.3800	 8.1770
 2.3810	 8.1550
 2.3820	 8.1420
 2.3830	 8.1310
 2.3840	 8.1130
 2.3850	 8.0870
 2.3860	 8.0610
 2.3870	 8.0390
 2.3880	 8.0140
 2.3890	 7.9900
 2.3900	 7.9650
 2.3910	 7.9320
 2.3920	 7.9070
 2.3930	 7.8820
 2.3940	 7.8550
 2.3950	 7.8360
 2.3960	 7.8120
 2.3970	 7.7970
 2.3980	 7.7830
 2.3990	 7.7640
 2.4000	 7.7470
 2.4010	 7.7250
 2.4020	 7.7020
 2.4030	 7.6720
 2.4040	 7.6430
 2.4050	 7.6180
 2.4060	 7.5960
 2.4070	 7.5760
 2.4080	 7.5470
 2.4090	 7.5090
 2.4100	 7.4750
 2.4110	 7.4460
 2.4120	 7.4320
 2.4130	 7.4240
 2.4140	 7.4180
 2.4150	 7.4080
 2.4160	 7.3800
 2.4170	 7.3440
 2.4180	 7.3070
 2.4190	 7.2780
 2.4200	 7.2570
 2.4210	 7.2470
 2.4220	 7.2310
 2.4230	 7.1960
 2.4240	 7.1710
 2.4250	 7.1390
 2.4260	 7.1120
 2.4270	 7.0970
 2.4280	 7.0710
 2.4290	 7.0450
 2.4300	 7.0210
 2.4310	 7.0060
 2.4320	 6.9840
 2.4330	 6.9530
 2.4340	 6.9300
 2.4350	 6.8930
 2.4360	 6.8620
 2.4370	 6.8430
 2.4380	 6.8170
 2.4390	 6.7930
 2.4400	 6.7570
 2.4410	 6.7160
 2.4420	 6.6840
 2.4430	 6.6600
 2.4440	 6.6440
 2.4450	 6.6300
 2.4460	 6.6230
 2.4470	 6.6090
 2.4480	 6.5810
 2.4490	 6.5510
 2.4500	 6.5100
 2.4510	 6.4660
 2.4520	 6.4360
 2.4530	 6.4170
 2.4540	 6.4000
 2.4550	 6.3790
 2.4560	 6.3620
 2.4570	 6.3370
 2.4580	 6.3070
 2.4590	 6.2970
 2.4600	 6.2680
 2.4610	 6.2480
 2.4620	 6.2430
 2.4630	 6.2170
 2.4640	 6.1980
 2.4650	 6.1900
 2.4660	 6.1960
 2.4670	 6.2100
 2.4680	 6.2150
 2.4690	 6.1950
 2.4700	 6.1830
 2.4710	 6.1680
 2.4720	 6.1550
 2.4730	 6.1680
 2.4740	 6.1490
 2.4750	 6.0950
 2.4760	 6.0680
 2.4770	 6.0200
 2.4780	 6.0060
 2.4790	 6.0420
 2.4800	 6.0360
 2.4810	 6.0210
 2.4820	 6.0080
 2.4830	 5.9910
 2.4840	 5.9720
 2.4850	 5.9530
 2.4860	 5.9240
 2.4870	 5.9080
 2.4880	 5.9050
 2.4890	 5.9040
 2.4900	 5.9140
 2.4910	 5.9160
 2.4920	 5.9230
 2.4930	 5.9640
 2.4940	 5.9950
 2.4950	 5.9740
 2.4960	 5.9670
 2.4970	 5.9200
 2.4980	 5.8440
 2.4990	 5.8520
 2.5000	 5.8390
