Name: Baccharis pilularis 1
Type: vegetation
Class: Shrub
Genus: Baccharis
Species: pilularis
Sample No.: VH032
Owner: UCSB
Wavelength Range: VSWIR
Origin: 34.5084; -119.7687; WGS84
Collection Date: 4/1/2013
Description: Samples were collected as part of the HyspIRI Airborne Campaign. 48 individual plants were sampled in three times in 2013 - spring  summer  and fall. The name of the sample includes a 1  2  or 3 which references a different individual of the species. Samples were taken to JPL and processed within 48 hours of collection. The same leaves were processed in the Nicolet and then measured using the ASD.
Measurement: Bidirectional reflectance
First Column: X
Second Column: Y
X Units: Wavelength (micrometers)
Y Units: Reflectance (percentage)
First X Value: 0.35
Last X Value: 2.5
Number of X Values: 2151
Additional Information: vegetation.shrub.baccharis.pilularis.vswir.vh032.ucsb.asd.ancillary.txt

 0.3500	 4.7130
 0.3510	 4.7770
 0.3520	 4.4950
 0.3530	 4.3300
 0.3540	 4.5630
 0.3550	 4.4370
 0.3560	 4.3410
 0.3570	 4.3380
 0.3580	 4.3240
 0.3590	 4.3470
 0.3600	 4.3290
 0.3610	 4.2900
 0.3620	 4.4050
 0.3630	 4.4910
 0.3640	 4.4280
 0.3650	 4.2230
 0.3660	 4.2590
 0.3670	 4.2650
 0.3680	 4.2280
 0.3690	 4.3030
 0.3700	 4.3150
 0.3710	 4.3060
 0.3720	 4.3250
 0.3730	 4.3900
 0.3740	 4.3370
 0.3750	 4.2510
 0.3760	 4.2590
 0.3770	 4.2550
 0.3780	 4.2340
 0.3790	 4.2100
 0.3800	 4.2100
 0.3810	 4.2680
 0.3820	 4.2970
 0.3830	 4.2510
 0.3840	 4.2010
 0.3850	 4.2900
 0.3860	 4.3550
 0.3870	 4.2070
 0.3880	 4.2080
 0.3890	 4.2150
 0.3900	 4.1810
 0.3910	 4.1940
 0.3920	 4.2330
 0.3930	 4.2450
 0.3940	 4.2100
 0.3950	 4.1990
 0.3960	 4.2400
 0.3970	 4.2810
 0.3980	 4.2490
 0.3990	 4.2450
 0.4000	 4.2440
 0.4010	 4.2270
 0.4020	 4.1940
 0.4030	 4.2000
 0.4040	 4.2080
 0.4050	 4.1870
 0.4060	 4.2260
 0.4070	 4.2560
 0.4080	 4.2440
 0.4090	 4.1900
 0.4100	 4.1850
 0.4110	 4.2030
 0.4120	 4.2160
 0.4130	 4.2220
 0.4140	 4.2220
 0.4150	 4.2210
 0.4160	 4.2250
 0.4170	 4.2310
 0.4180	 4.2550
 0.4190	 4.2800
 0.4200	 4.2600
 0.4210	 4.2580
 0.4220	 4.2750
 0.4230	 4.2940
 0.4240	 4.2980
 0.4250	 4.3130
 0.4260	 4.3300
 0.4270	 4.3310
 0.4280	 4.3540
 0.4290	 4.3850
 0.4300	 4.4080
 0.4310	 4.4160
 0.4320	 4.4350
 0.4330	 4.4500
 0.4340	 4.4490
 0.4350	 4.4680
 0.4360	 4.4910
 0.4370	 4.5030
 0.4380	 4.4960
 0.4390	 4.5030
 0.4400	 4.5200
 0.4410	 4.5360
 0.4420	 4.5500
 0.4430	 4.5640
 0.4440	 4.5710
 0.4450	 4.5680
 0.4460	 4.5920
 0.4470	 4.6130
 0.4480	 4.6210
 0.4490	 4.6360
 0.4500	 4.6470
 0.4510	 4.6530
 0.4520	 4.6620
 0.4530	 4.6890
 0.4540	 4.6990
 0.4550	 4.6960
 0.4560	 4.7080
 0.4570	 4.7060
 0.4580	 4.7090
 0.4590	 4.7270
 0.4600	 4.7340
 0.4610	 4.7450
 0.4620	 4.7560
 0.4630	 4.7560
 0.4640	 4.7590
 0.4650	 4.7620
 0.4660	 4.7640
 0.4670	 4.7720
 0.4680	 4.7720
 0.4690	 4.7700
 0.4700	 4.7700
 0.4710	 4.7560
 0.4720	 4.7560
 0.4730	 4.7690
 0.4740	 4.7790
 0.4750	 4.7750
 0.4760	 4.7760
 0.4770	 4.7860
 0.4780	 4.7800
 0.4790	 4.7750
 0.4800	 4.7790
 0.4810	 4.7940
 0.4820	 4.7870
 0.4830	 4.7900
 0.4840	 4.8020
 0.4850	 4.7930
 0.4860	 4.8080
 0.4870	 4.8250
 0.4880	 4.8230
 0.4890	 4.8290
 0.4900	 4.8390
 0.4910	 4.8540
 0.4920	 4.8700
 0.4930	 4.8860
 0.4940	 4.9030
 0.4950	 4.9230
 0.4960	 4.9450
 0.4970	 4.9650
 0.4980	 4.9860
 0.4990	 5.0120
 0.5000	 5.0440
 0.5010	 5.0770
 0.5020	 5.1090
 0.5030	 5.1400
 0.5040	 5.1780
 0.5050	 5.2250
 0.5060	 5.2810
 0.5070	 5.3360
 0.5080	 5.3980
 0.5090	 5.4650
 0.5100	 5.5330
 0.5110	 5.6170
 0.5120	 5.7130
 0.5130	 5.8190
 0.5140	 5.9300
 0.5150	 6.0510
 0.5160	 6.1850
 0.5170	 6.3360
 0.5180	 6.4890
 0.5190	 6.6460
 0.5200	 6.8120
 0.5210	 6.9920
 0.5220	 7.1740
 0.5230	 7.3610
 0.5240	 7.5520
 0.5250	 7.7360
 0.5260	 7.9190
 0.5270	 8.1000
 0.5280	 8.2760
 0.5290	 8.4380
 0.5300	 8.5880
 0.5310	 8.7300
 0.5320	 8.8700
 0.5330	 9.0050
 0.5340	 9.1290
 0.5350	 9.2410
 0.5360	 9.3430
 0.5370	 9.4400
 0.5380	 9.5320
 0.5390	 9.6120
 0.5400	 9.6910
 0.5410	 9.7670
 0.5420	 9.8400
 0.5430	 9.9080
 0.5440	 9.9720
 0.5450	10.0330
 0.5460	10.0910
 0.5470	10.1330
 0.5480	10.1680
 0.5490	10.2030
 0.5500	10.2320
 0.5510	10.2550
 0.5520	10.2670
 0.5530	10.2640
 0.5540	10.2530
 0.5550	10.2300
 0.5560	10.1930
 0.5570	10.1450
 0.5580	10.0890
 0.5590	10.0220
 0.5600	 9.9410
 0.5610	 9.8610
 0.5620	 9.7730
 0.5630	 9.6740
 0.5640	 9.5650
 0.5650	 9.4550
 0.5660	 9.3410
 0.5670	 9.2220
 0.5680	 9.1070
 0.5690	 8.9880
 0.5700	 8.8610
 0.5710	 8.7310
 0.5720	 8.6120
 0.5730	 8.4980
 0.5740	 8.3890
 0.5750	 8.2860
 0.5760	 8.1860
 0.5770	 8.0910
 0.5780	 8.0040
 0.5790	 7.9200
 0.5800	 7.8430
 0.5810	 7.7710
 0.5820	 7.7040
 0.5830	 7.6470
 0.5840	 7.6000
 0.5850	 7.5590
 0.5860	 7.5170
 0.5870	 7.4750
 0.5880	 7.4370
 0.5890	 7.4050
 0.5900	 7.3720
 0.5910	 7.3450
 0.5920	 7.3240
 0.5930	 7.3080
 0.5940	 7.2890
 0.5950	 7.2680
 0.5960	 7.2480
 0.5970	 7.2350
 0.5980	 7.2210
 0.5990	 7.2040
 0.6000	 7.1860
 0.6010	 7.1600
 0.6020	 7.1270
 0.6030	 7.0890
 0.6040	 7.0490
 0.6050	 7.0040
 0.6060	 6.9540
 0.6070	 6.9000
 0.6080	 6.8400
 0.6090	 6.7820
 0.6100	 6.7270
 0.6110	 6.6740
 0.6120	 6.6150
 0.6130	 6.5520
 0.6140	 6.4890
 0.6150	 6.4360
 0.6160	 6.3840
 0.6170	 6.3340
 0.6180	 6.2900
 0.6190	 6.2530
 0.6200	 6.2220
 0.6210	 6.1940
 0.6220	 6.1680
 0.6230	 6.1410
 0.6240	 6.1200
 0.6250	 6.1080
 0.6260	 6.0950
 0.6270	 6.0850
 0.6280	 6.0760
 0.6290	 6.0650
 0.6300	 6.0630
 0.6310	 6.0620
 0.6320	 6.0580
 0.6330	 6.0530
 0.6340	 6.0390
 0.6350	 6.0210
 0.6360	 6.0040
 0.6370	 5.9860
 0.6380	 5.9610
 0.6390	 5.9320
 0.6400	 5.8990
 0.6410	 5.8620
 0.6420	 5.8240
 0.6430	 5.7840
 0.6440	 5.7400
 0.6450	 5.6980
 0.6460	 5.6550
 0.6470	 5.6090
 0.6480	 5.5680
 0.6490	 5.5270
 0.6500	 5.4860
 0.6510	 5.4560
 0.6520	 5.4260
 0.6530	 5.3950
 0.6540	 5.3620
 0.6550	 5.3310
 0.6560	 5.2960
 0.6570	 5.2580
 0.6580	 5.2180
 0.6590	 5.1790
 0.6600	 5.1410
 0.6610	 5.1050
 0.6620	 5.0670
 0.6630	 5.0350
 0.6640	 5.0080
 0.6650	 4.9820
 0.6660	 4.9640
 0.6670	 4.9460
 0.6680	 4.9300
 0.6690	 4.9220
 0.6700	 4.9190
 0.6710	 4.9190
 0.6720	 4.9210
 0.6730	 4.9240
 0.6740	 4.9310
 0.6750	 4.9390
 0.6760	 4.9460
 0.6770	 4.9620
 0.6780	 4.9770
 0.6790	 4.9900
 0.6800	 5.0090
 0.6810	 5.0370
 0.6820	 5.0670
 0.6830	 5.1000
 0.6840	 5.1460
 0.6850	 5.2000
 0.6860	 5.2610
 0.6870	 5.3320
 0.6880	 5.4280
 0.6890	 5.5480
 0.6900	 5.6970
 0.6910	 5.8820
 0.6920	 6.1070
 0.6930	 6.3760
 0.6940	 6.6920
 0.6950	 7.0640
 0.6960	 7.4920
 0.6970	 7.9770
 0.6980	 8.5170
 0.6990	 9.1100
 0.7000	 9.7540
 0.7010	10.4450
 0.7020	11.1790
 0.7030	11.9510
 0.7040	12.7560
 0.7050	13.5880
 0.7060	14.4450
 0.7070	15.3220
 0.7080	16.2160
 0.7090	17.1300
 0.7100	18.0600
 0.7110	19.0030
 0.7120	19.9590
 0.7130	20.9250
 0.7140	21.8960
 0.7150	22.8740
 0.7160	23.8600
 0.7170	24.8470
 0.7180	25.8300
 0.7190	26.8100
 0.7200	27.7870
 0.7210	28.7540
 0.7220	29.7140
 0.7230	30.6600
 0.7240	31.5800
 0.7250	32.4820
 0.7260	33.3610
 0.7270	34.2120
 0.7280	35.0460
 0.7290	35.8390
 0.7300	36.5990
 0.7310	37.3380
 0.7320	38.0370
 0.7330	38.7010
 0.7340	39.3350
 0.7350	39.9440
 0.7360	40.5260
 0.7370	41.0700
 0.7380	41.5740
 0.7390	42.0620
 0.7400	42.5280
 0.7410	42.9630
 0.7420	43.3630
 0.7430	43.7460
 0.7440	44.1040
 0.7450	44.4350
 0.7460	44.7470
 0.7470	45.0380
 0.7480	45.3070
 0.7490	45.5510
 0.7500	45.7760
 0.7510	45.9840
 0.7520	46.1760
 0.7530	46.3530
 0.7540	46.5090
 0.7550	46.6550
 0.7560	46.7960
 0.7570	46.9280
 0.7580	47.0380
 0.7590	47.1430
 0.7600	47.2500
 0.7610	47.3340
 0.7620	47.4100
 0.7630	47.4860
 0.7640	47.5640
 0.7650	47.6190
 0.7660	47.6700
 0.7670	47.7250
 0.7680	47.7850
 0.7690	47.8260
 0.7700	47.8620
 0.7710	47.9010
 0.7720	47.9450
 0.7730	47.9800
 0.7740	48.0130
 0.7750	48.0490
 0.7760	48.0720
 0.7770	48.1010
 0.7780	48.1290
 0.7790	48.1430
 0.7800	48.1680
 0.7810	48.2000
 0.7820	48.2320
 0.7830	48.2610
 0.7840	48.2780
 0.7850	48.2940
 0.7860	48.3170
 0.7870	48.3380
 0.7880	48.3530
 0.7890	48.3680
 0.7900	48.3900
 0.7910	48.4000
 0.7920	48.4130
 0.7930	48.4310
 0.7940	48.4440
 0.7950	48.4560
 0.7960	48.4710
 0.7970	48.4860
 0.7980	48.4890
 0.7990	48.4980
 0.8000	48.5060
 0.8010	48.5050
 0.8020	48.5060
 0.8030	48.5130
 0.8040	48.5200
 0.8050	48.5210
 0.8060	48.5170
 0.8070	48.5120
 0.8080	48.5110
 0.8090	48.5120
 0.8100	48.5070
 0.8110	48.5020
 0.8120	48.5000
 0.8130	48.4910
 0.8140	48.4740
 0.8150	48.4630
 0.8160	48.4640
 0.8170	48.4560
 0.8180	48.4400
 0.8190	48.4220
 0.8200	48.4130
 0.8210	48.4010
 0.8220	48.3860
 0.8230	48.3710
 0.8240	48.3600
 0.8250	48.3390
 0.8260	48.3160
 0.8270	48.2980
 0.8280	48.2820
 0.8290	48.2600
 0.8300	48.2330
 0.8310	48.2060
 0.8320	48.1920
 0.8330	48.1690
 0.8340	48.1380
 0.8350	48.1120
 0.8360	48.0950
 0.8370	48.0840
 0.8380	48.0760
 0.8390	48.0710
 0.8400	48.0560
 0.8410	48.0460
 0.8420	48.0450
 0.8430	48.0420
 0.8440	48.0330
 0.8450	48.0260
 0.8460	48.0240
 0.8470	48.0110
 0.8480	47.9980
 0.8490	47.9930
 0.8500	47.9990
 0.8510	47.9900
 0.8520	47.9870
 0.8530	47.9910
 0.8540	47.9900
 0.8550	47.9770
 0.8560	47.9730
 0.8570	47.9850
 0.8580	47.9930
 0.8590	47.9920
 0.8600	47.9920
 0.8610	47.9970
 0.8620	47.9850
 0.8630	47.9810
 0.8640	47.9850
 0.8650	47.9910
 0.8660	47.9950
 0.8670	47.9930
 0.8680	47.9860
 0.8690	47.9790
 0.8700	47.9940
 0.8710	48.0090
 0.8720	48.0210
 0.8730	48.0330
 0.8740	48.0370
 0.8750	48.0350
 0.8760	48.0330
 0.8770	48.0360
 0.8780	48.0440
 0.8790	48.0480
 0.8800	48.0490
 0.8810	48.0540
 0.8820	48.0530
 0.8830	48.0550
 0.8840	48.0660
 0.8850	48.0810
 0.8860	48.0760
 0.8870	48.0730
 0.8880	48.0910
 0.8890	48.0870
 0.8900	48.0850
 0.8910	48.0900
 0.8920	48.0990
 0.8930	48.0940
 0.8940	48.0980
 0.8950	48.1040
 0.8960	48.0920
 0.8970	48.0890
 0.8980	48.0970
 0.8990	48.1080
 0.9000	48.1070
 0.9010	48.1000
 0.9020	48.0990
 0.9030	48.1070
 0.9040	48.1200
 0.9050	48.1320
 0.9060	48.1350
 0.9070	48.1310
 0.9080	48.1290
 0.9090	48.1220
 0.9100	48.1150
 0.9110	48.1160
 0.9120	48.1260
 0.9130	48.1130
 0.9140	48.0880
 0.9150	48.0760
 0.9160	48.0850
 0.9170	48.0870
 0.9180	48.0740
 0.9190	48.0550
 0.9200	48.0400
 0.9210	48.0200
 0.9220	48.0030
 0.9230	47.9990
 0.9240	47.9550
 0.9250	47.9200
 0.9260	47.8940
 0.9270	47.8460
 0.9280	47.8160
 0.9290	47.7750
 0.9300	47.7180
 0.9310	47.6660
 0.9320	47.6030
 0.9330	47.5430
 0.9340	47.4940
 0.9350	47.4510
 0.9360	47.3800
 0.9370	47.2920
 0.9380	47.2020
 0.9390	47.1240
 0.9400	47.0610
 0.9410	46.9970
 0.9420	46.9200
 0.9430	46.8290
 0.9440	46.7390
 0.9450	46.6420
 0.9460	46.5300
 0.9470	46.4040
 0.9480	46.2850
 0.9490	46.1570
 0.9500	46.0070
 0.9510	45.8580
 0.9520	45.6940
 0.9530	45.5270
 0.9540	45.3710
 0.9550	45.2180
 0.9560	45.0560
 0.9570	44.8950
 0.9580	44.7520
 0.9590	44.6440
 0.9600	44.5300
 0.9610	44.4310
 0.9620	44.3660
 0.9630	44.2820
 0.9640	44.1980
 0.9650	44.1320
 0.9660	44.0900
 0.9670	44.0480
 0.9680	44.0210
 0.9690	44.0020
 0.9700	43.9770
 0.9710	43.9380
 0.9720	43.9270
 0.9730	43.9230
 0.9740	43.8900
 0.9750	43.8900
 0.9760	43.9120
 0.9770	43.9280
 0.9780	43.9180
 0.9790	43.9250
 0.9800	43.9350
 0.9810	43.9540
 0.9820	43.9920
 0.9830	44.0190
 0.9840	44.0560
 0.9850	44.0930
 0.9860	44.1170
 0.9870	44.1470
 0.9880	44.1840
 0.9890	44.2300
 0.9900	44.2840
 0.9910	44.3300
 0.9920	44.4090
 0.9930	44.4880
 0.9940	44.5670
 0.9950	44.6450
 0.9960	44.7240
 0.9970	44.8030
 0.9980	44.8810
 0.9990	44.9600
 1.0000	45.0390
 1.0010	45.1170
 1.0020	45.1960
 1.0030	45.2750
 1.0040	45.3540
 1.0050	45.4320
 1.0060	45.5110
 1.0070	45.5900
 1.0080	45.6680
 1.0090	45.7470
 1.0100	45.7470
 1.0110	45.8040
 1.0120	45.8590
 1.0130	45.9100
 1.0140	45.9630
 1.0150	46.0150
 1.0160	46.0690
 1.0170	46.1200
 1.0180	46.1720
 1.0190	46.2210
 1.0200	46.2690
 1.0210	46.3200
 1.0220	46.3710
 1.0230	46.4220
 1.0240	46.4770
 1.0250	46.5260
 1.0260	46.5720
 1.0270	46.6180
 1.0280	46.6610
 1.0290	46.7060
 1.0300	46.7540
 1.0310	46.7980
 1.0320	46.8430
 1.0330	46.8850
 1.0340	46.9270
 1.0350	46.9690
 1.0360	47.0090
 1.0370	47.0520
 1.0380	47.0930
 1.0390	47.1350
 1.0400	47.1720
 1.0410	47.2080
 1.0420	47.2410
 1.0430	47.2670
 1.0440	47.2970
 1.0450	47.3260
 1.0460	47.3550
 1.0470	47.3880
 1.0480	47.4160
 1.0490	47.4410
 1.0500	47.4660
 1.0510	47.4920
 1.0520	47.5120
 1.0530	47.5340
 1.0540	47.5570
 1.0550	47.5770
 1.0560	47.5970
 1.0570	47.6140
 1.0580	47.6300
 1.0590	47.6450
 1.0600	47.6600
 1.0610	47.6710
 1.0620	47.6780
 1.0630	47.6850
 1.0640	47.6900
 1.0650	47.6940
 1.0660	47.7010
 1.0670	47.7030
 1.0680	47.7030
 1.0690	47.6990
 1.0700	47.6960
 1.0710	47.6910
 1.0720	47.6860
 1.0730	47.6810
 1.0740	47.6760
 1.0750	47.6710
 1.0760	47.6640
 1.0770	47.6580
 1.0780	47.6460
 1.0790	47.6270
 1.0800	47.6140
 1.0810	47.6050
 1.0820	47.5900
 1.0830	47.5740
 1.0840	47.5580
 1.0850	47.5360
 1.0860	47.5140
 1.0870	47.4930
 1.0880	47.4760
 1.0890	47.4550
 1.0900	47.4300
 1.0910	47.4070
 1.0920	47.3860
 1.0930	47.3610
 1.0940	47.3360
 1.0950	47.3090
 1.0960	47.2800
 1.0970	47.2510
 1.0980	47.2230
 1.0990	47.1940
 1.1000	47.1640
 1.1010	47.1330
 1.1020	47.1010
 1.1030	47.0680
 1.1040	47.0320
 1.1050	46.9990
 1.1060	46.9640
 1.1070	46.9310
 1.1080	46.8950
 1.1090	46.8600
 1.1100	46.8200
 1.1110	46.7760
 1.1120	46.7330
 1.1130	46.6870
 1.1140	46.6420
 1.1150	46.6020
 1.1160	46.5520
 1.1170	46.5010
 1.1180	46.4400
 1.1190	46.3720
 1.1200	46.2960
 1.1210	46.2200
 1.1220	46.1370
 1.1230	46.0440
 1.1240	45.9430
 1.1250	45.8300
 1.1260	45.7050
 1.1270	45.5690
 1.1280	45.4270
 1.1290	45.2660
 1.1300	45.0940
 1.1310	44.9020
 1.1320	44.6930
 1.1330	44.4710
 1.1340	44.2320
 1.1350	43.9810
 1.1360	43.7150
 1.1370	43.4370
 1.1380	43.1470
 1.1390	42.8480
 1.1400	42.5380
 1.1410	42.2270
 1.1420	41.9140
 1.1430	41.5980
 1.1440	41.2870
 1.1450	40.9720
 1.1460	40.6740
 1.1470	40.3750
 1.1480	40.0990
 1.1490	39.8340
 1.1500	39.5900
 1.1510	39.3600
 1.1520	39.1480
 1.1530	38.9530
 1.1540	38.7770
 1.1550	38.6200
 1.1560	38.4810
 1.1570	38.3620
 1.1580	38.2580
 1.1590	38.1680
 1.1600	38.0900
 1.1610	38.0260
 1.1620	37.9730
 1.1630	37.9290
 1.1640	37.8950
 1.1650	37.8650
 1.1660	37.8420
 1.1670	37.8220
 1.1680	37.8080
 1.1690	37.7950
 1.1700	37.7880
 1.1710	37.7800
 1.1720	37.7740
 1.1730	37.7680
 1.1740	37.7610
 1.1750	37.7550
 1.1760	37.7500
 1.1770	37.7430
 1.1780	37.7340
 1.1790	37.7240
 1.1800	37.7130
 1.1810	37.7000
 1.1820	37.6880
 1.1830	37.6760
 1.1840	37.6630
 1.1850	37.6500
 1.1860	37.6370
 1.1870	37.6240
 1.1880	37.6130
 1.1890	37.5990
 1.1900	37.5910
 1.1910	37.5850
 1.1920	37.5820
 1.1930	37.5830
 1.1940	37.5850
 1.1950	37.5910
 1.1960	37.5980
 1.1970	37.6070
 1.1980	37.6200
 1.1990	37.6360
 1.2000	37.6530
 1.2010	37.6730
 1.2020	37.6940
 1.2030	37.7190
 1.2040	37.7480
 1.2050	37.7760
 1.2060	37.8080
 1.2070	37.8440
 1.2080	37.8780
 1.2090	37.9140
 1.2100	37.9530
 1.2110	37.9920
 1.2120	38.0300
 1.2130	38.0710
 1.2140	38.1160
 1.2150	38.1590
 1.2160	38.2040
 1.2170	38.2490
 1.2180	38.2930
 1.2190	38.3380
 1.2200	38.3850
 1.2210	38.4310
 1.2220	38.4780
 1.2230	38.5260
 1.2240	38.5690
 1.2250	38.6140
 1.2260	38.6580
 1.2270	38.7000
 1.2280	38.7440
 1.2290	38.7870
 1.2300	38.8290
 1.2310	38.8670
 1.2320	38.9040
 1.2330	38.9380
 1.2340	38.9730
 1.2350	39.0080
 1.2360	39.0440
 1.2370	39.0800
 1.2380	39.1160
 1.2390	39.1500
 1.2400	39.1810
 1.2410	39.2110
 1.2420	39.2400
 1.2430	39.2670
 1.2440	39.2960
 1.2450	39.3250
 1.2460	39.3520
 1.2470	39.3770
 1.2480	39.4000
 1.2490	39.4220
 1.2500	39.4440
 1.2510	39.4640
 1.2520	39.4830
 1.2530	39.4980
 1.2540	39.5120
 1.2550	39.5250
 1.2560	39.5370
 1.2570	39.5460
 1.2580	39.5550
 1.2590	39.5610
 1.2600	39.5670
 1.2610	39.5690
 1.2620	39.5690
 1.2630	39.5660
 1.2640	39.5630
 1.2650	39.5580
 1.2660	39.5520
 1.2670	39.5440
 1.2680	39.5330
 1.2690	39.5200
 1.2700	39.5050
 1.2710	39.4910
 1.2720	39.4740
 1.2730	39.4520
 1.2740	39.4270
 1.2750	39.4010
 1.2760	39.3720
 1.2770	39.3400
 1.2780	39.3090
 1.2790	39.2730
 1.2800	39.2330
 1.2810	39.1930
 1.2820	39.1490
 1.2830	39.1020
 1.2840	39.0530
 1.2850	39.0000
 1.2860	38.9450
 1.2870	38.8840
 1.2880	38.8190
 1.2890	38.7510
 1.2900	38.6770
 1.2910	38.5990
 1.2920	38.5180
 1.2930	38.4320
 1.2940	38.3450
 1.2950	38.2520
 1.2960	38.1550
 1.2970	38.0550
 1.2980	37.9470
 1.2990	37.8340
 1.3000	37.7180
 1.3010	37.5940
 1.3020	37.4670
 1.3030	37.3380
 1.3040	37.2020
 1.3050	37.0610
 1.3060	36.9180
 1.3070	36.7660
 1.3080	36.6120
 1.3090	36.4570
 1.3100	36.2940
 1.3110	36.1260
 1.3120	35.9550
 1.3130	35.7780
 1.3140	35.5980
 1.3150	35.4140
 1.3160	35.2260
 1.3170	35.0350
 1.3180	34.8390
 1.3190	34.6380
 1.3200	34.4350
 1.3210	34.2240
 1.3220	34.0080
 1.3230	33.7910
 1.3240	33.5690
 1.3250	33.3490
 1.3260	33.1260
 1.3270	32.9000
 1.3280	32.6740
 1.3290	32.4430
 1.3300	32.2110
 1.3310	31.9780
 1.3320	31.7420
 1.3330	31.5090
 1.3340	31.2770
 1.3350	31.0460
 1.3360	30.8160
 1.3370	30.5850
 1.3380	30.3570
 1.3390	30.1320
 1.3400	29.9090
 1.3410	29.6910
 1.3420	29.4750
 1.3430	29.2620
 1.3440	29.0540
 1.3450	28.8480
 1.3460	28.6450
 1.3470	28.4460
 1.3480	28.2500
 1.3490	28.0570
 1.3500	27.8700
 1.3510	27.6820
 1.3520	27.4950
 1.3530	27.3090
 1.3540	27.1240
 1.3550	26.9400
 1.3560	26.7560
 1.3570	26.5710
 1.3580	26.3850
 1.3590	26.1960
 1.3600	26.0030
 1.3610	25.8070
 1.3620	25.6020
 1.3630	25.3890
 1.3640	25.1700
 1.3650	24.9410
 1.3660	24.7070
 1.3670	24.4630
 1.3680	24.2040
 1.3690	23.9300
 1.3700	23.6390
 1.3710	23.3340
 1.3720	23.0150
 1.3730	22.6780
 1.3740	22.3280
 1.3750	21.9600
 1.3760	21.5710
 1.3770	21.1640
 1.3780	20.7350
 1.3790	20.2890
 1.3800	19.8280
 1.3810	19.3480
 1.3820	18.8620
 1.3830	18.3640
 1.3840	17.8610
 1.3850	17.3470
 1.3860	16.8380
 1.3870	16.3180
 1.3880	15.8110
 1.3890	15.3060
 1.3900	14.8070
 1.3910	14.3230
 1.3920	13.8480
 1.3930	13.3840
 1.3940	12.9390
 1.3950	12.5050
 1.3960	12.0920
 1.3970	11.6990
 1.3980	11.3240
 1.3990	10.9750
 1.4000	10.6470
 1.4010	10.3370
 1.4020	10.0490
 1.4030	 9.7800
 1.4040	 9.5290
 1.4050	 9.2980
 1.4060	 9.0850
 1.4070	 8.8920
 1.4080	 8.7140
 1.4090	 8.5500
 1.4100	 8.4010
 1.4110	 8.2650
 1.4120	 8.1400
 1.4130	 8.0270
 1.4140	 7.9240
 1.4150	 7.8310
 1.4160	 7.7470
 1.4170	 7.6710
 1.4180	 7.6030
 1.4190	 7.5410
 1.4200	 7.4850
 1.4210	 7.4350
 1.4220	 7.3900
 1.4230	 7.3500
 1.4240	 7.3150
 1.4250	 7.2820
 1.4260	 7.2540
 1.4270	 7.2290
 1.4280	 7.2070
 1.4290	 7.1870
 1.4300	 7.1700
 1.4310	 7.1560
 1.4320	 7.1460
 1.4330	 7.1370
 1.4340	 7.1300
 1.4350	 7.1250
 1.4360	 7.1200
 1.4370	 7.1170
 1.4380	 7.1170
 1.4390	 7.1170
 1.4400	 7.1200
 1.4410	 7.1230
 1.4420	 7.1280
 1.4430	 7.1320
 1.4440	 7.1380
 1.4450	 7.1450
 1.4460	 7.1520
 1.4470	 7.1600
 1.4480	 7.1690
 1.4490	 7.1780
 1.4500	 7.1880
 1.4510	 7.1980
 1.4520	 7.2090
 1.4530	 7.2200
 1.4540	 7.2310
 1.4550	 7.2450
 1.4560	 7.2600
 1.4570	 7.2750
 1.4580	 7.2930
 1.4590	 7.3120
 1.4600	 7.3330
 1.4610	 7.3550
 1.4620	 7.3790
 1.4630	 7.4060
 1.4640	 7.4350
 1.4650	 7.4660
 1.4660	 7.5000
 1.4670	 7.5350
 1.4680	 7.5730
 1.4690	 7.6130
 1.4700	 7.6550
 1.4710	 7.7000
 1.4720	 7.7470
 1.4730	 7.7950
 1.4740	 7.8470
 1.4750	 7.8990
 1.4760	 7.9530
 1.4770	 8.0090
 1.4780	 8.0660
 1.4790	 8.1260
 1.4800	 8.1860
 1.4810	 8.2480
 1.4820	 8.3100
 1.4830	 8.3730
 1.4840	 8.4380
 1.4850	 8.5040
 1.4860	 8.5710
 1.4870	 8.6410
 1.4880	 8.7100
 1.4890	 8.7790
 1.4900	 8.8490
 1.4910	 8.9190
 1.4920	 8.9910
 1.4930	 9.0650
 1.4940	 9.1390
 1.4950	 9.2140
 1.4960	 9.2890
 1.4970	 9.3630
 1.4980	 9.4390
 1.4990	 9.5170
 1.5000	 9.5960
 1.5010	 9.6760
 1.5020	 9.7550
 1.5030	 9.8340
 1.5040	 9.9150
 1.5050	 9.9950
 1.5060	10.0760
 1.5070	10.1590
 1.5080	10.2410
 1.5090	10.3230
 1.5100	10.4070
 1.5110	10.4910
 1.5120	10.5750
 1.5130	10.6590
 1.5140	10.7420
 1.5150	10.8260
 1.5160	10.9090
 1.5170	10.9940
 1.5180	11.0780
 1.5190	11.1630
 1.5200	11.2490
 1.5210	11.3340
 1.5220	11.4190
 1.5230	11.5040
 1.5240	11.5880
 1.5250	11.6730
 1.5260	11.7580
 1.5270	11.8440
 1.5280	11.9300
 1.5290	12.0140
 1.5300	12.0990
 1.5310	12.1830
 1.5320	12.2680
 1.5330	12.3530
 1.5340	12.4370
 1.5350	12.5220
 1.5360	12.6070
 1.5370	12.6910
 1.5380	12.7760
 1.5390	12.8590
 1.5400	12.9410
 1.5410	13.0240
 1.5420	13.1070
 1.5430	13.1900
 1.5440	13.2730
 1.5450	13.3560
 1.5460	13.4390
 1.5470	13.5220
 1.5480	13.6040
 1.5490	13.6850
 1.5500	13.7660
 1.5510	13.8470
 1.5520	13.9280
 1.5530	14.0080
 1.5540	14.0870
 1.5550	14.1670
 1.5560	14.2450
 1.5570	14.3230
 1.5580	14.4000
 1.5590	14.4750
 1.5600	14.5520
 1.5610	14.6260
 1.5620	14.7010
 1.5630	14.7760
 1.5640	14.8500
 1.5650	14.9230
 1.5660	14.9960
 1.5670	15.0680
 1.5680	15.1400
 1.5690	15.2090
 1.5700	15.2790
 1.5710	15.3490
 1.5720	15.4180
 1.5730	15.4890
 1.5740	15.5600
 1.5750	15.6300
 1.5760	15.7000
 1.5770	15.7670
 1.5780	15.8350
 1.5790	15.9030
 1.5800	15.9690
 1.5810	16.0350
 1.5820	16.1010
 1.5830	16.1660
 1.5840	16.2310
 1.5850	16.2960
 1.5860	16.3600
 1.5870	16.4260
 1.5880	16.4900
 1.5890	16.5530
 1.5900	16.6150
 1.5910	16.6760
 1.5920	16.7360
 1.5930	16.7960
 1.5940	16.8570
 1.5950	16.9170
 1.5960	16.9770
 1.5970	17.0360
 1.5980	17.0940
 1.5990	17.1510
 1.6000	17.2090
 1.6010	17.2660
 1.6020	17.3230
 1.6030	17.3790
 1.6040	17.4340
 1.6050	17.4880
 1.6060	17.5420
 1.6070	17.5970
 1.6080	17.6510
 1.6090	17.7040
 1.6100	17.7550
 1.6110	17.8040
 1.6120	17.8530
 1.6130	17.9030
 1.6140	17.9510
 1.6150	17.9990
 1.6160	18.0460
 1.6170	18.0920
 1.6180	18.1380
 1.6190	18.1850
 1.6200	18.2300
 1.6210	18.2760
 1.6220	18.3190
 1.6230	18.3610
 1.6240	18.4020
 1.6250	18.4430
 1.6260	18.4830
 1.6270	18.5220
 1.6280	18.5620
 1.6290	18.6000
 1.6300	18.6370
 1.6310	18.6740
 1.6320	18.7100
 1.6330	18.7440
 1.6340	18.7770
 1.6350	18.8080
 1.6360	18.8360
 1.6370	18.8630
 1.6380	18.8910
 1.6390	18.9150
 1.6400	18.9380
 1.6410	18.9590
 1.6420	18.9790
 1.6430	18.9960
 1.6440	19.0120
 1.6450	19.0250
 1.6460	19.0340
 1.6470	19.0440
 1.6480	19.0530
 1.6490	19.0610
 1.6500	19.0670
 1.6510	19.0710
 1.6520	19.0710
 1.6530	19.0690
 1.6540	19.0660
 1.6550	19.0640
 1.6560	19.0610
 1.6570	19.0580
 1.6580	19.0530
 1.6590	19.0480
 1.6600	19.0450
 1.6610	19.0410
 1.6620	19.0390
 1.6630	19.0380
 1.6640	19.0380
 1.6650	19.0390
 1.6660	19.0410
 1.6670	19.0440
 1.6680	19.0450
 1.6690	19.0460
 1.6700	19.0480
 1.6710	19.0500
 1.6720	19.0520
 1.6730	19.0540
 1.6740	19.0560
 1.6750	19.0540
 1.6760	19.0510
 1.6770	19.0460
 1.6780	19.0380
 1.6790	19.0290
 1.6800	19.0180
 1.6810	19.0070
 1.6820	18.9930
 1.6830	18.9760
 1.6840	18.9580
 1.6850	18.9370
 1.6860	18.9140
 1.6870	18.8920
 1.6880	18.8690
 1.6890	18.8440
 1.6900	18.8180
 1.6910	18.7900
 1.6920	18.7620
 1.6930	18.7310
 1.6940	18.7010
 1.6950	18.6710
 1.6960	18.6390
 1.6970	18.6070
 1.6980	18.5730
 1.6990	18.5370
 1.7000	18.5010
 1.7010	18.4640
 1.7020	18.4250
 1.7030	18.3870
 1.7040	18.3460
 1.7050	18.3040
 1.7060	18.2600
 1.7070	18.2130
 1.7080	18.1680
 1.7090	18.1230
 1.7100	18.0760
 1.7110	18.0290
 1.7120	17.9810
 1.7130	17.9330
 1.7140	17.8810
 1.7150	17.8300
 1.7160	17.7770
 1.7170	17.7220
 1.7180	17.6690
 1.7190	17.6190
 1.7200	17.5680
 1.7210	17.5160
 1.7220	17.4620
 1.7230	17.4080
 1.7240	17.3530
 1.7250	17.3000
 1.7260	17.2480
 1.7270	17.1950
 1.7280	17.1430
 1.7290	17.0930
 1.7300	17.0420
 1.7310	16.9920
 1.7320	16.9440
 1.7330	16.8950
 1.7340	16.8470
 1.7350	16.7970
 1.7360	16.7460
 1.7370	16.6950
 1.7380	16.6420
 1.7390	16.5900
 1.7400	16.5370
 1.7410	16.4840
 1.7420	16.4310
 1.7430	16.3760
 1.7440	16.3200
 1.7450	16.2630
 1.7460	16.2050
 1.7470	16.1460
 1.7480	16.0850
 1.7490	16.0270
 1.7500	15.9690
 1.7510	15.9110
 1.7520	15.8550
 1.7530	15.7970
 1.7540	15.7380
 1.7550	15.6800
 1.7560	15.6220
 1.7570	15.5640
 1.7580	15.5070
 1.7590	15.4530
 1.7600	15.3980
 1.7610	15.3440
 1.7620	15.2910
 1.7630	15.2380
 1.7640	15.1870
 1.7650	15.1390
 1.7660	15.0910
 1.7670	15.0460
 1.7680	15.0010
 1.7690	14.9580
 1.7700	14.9140
 1.7710	14.8710
 1.7720	14.8300
 1.7730	14.7900
 1.7740	14.7520
 1.7750	14.7170
 1.7760	14.6810
 1.7770	14.6470
 1.7780	14.6130
 1.7790	14.5810
 1.7800	14.5510
 1.7810	14.5240
 1.7820	14.4960
 1.7830	14.4700
 1.7840	14.4450
 1.7850	14.4210
 1.7860	14.4000
 1.7870	14.3810
 1.7880	14.3600
 1.7890	14.3450
 1.7900	14.3310
 1.7910	14.3170
 1.7920	14.3060
 1.7930	14.2950
 1.7940	14.2860
 1.7950	14.2780
 1.7960	14.2720
 1.7970	14.2660
 1.7980	14.2600
 1.7990	14.2560
 1.8000	14.2560
 1.8010	14.2530
 1.8020	14.2510
 1.8030	14.2500
 1.8040	14.2480
 1.8050	14.2470
 1.8060	14.2490
 1.8070	14.2490
 1.8080	14.2470
 1.8090	14.2460
 1.8100	14.2450
 1.8110	14.2450
 1.8120	14.2460
 1.8130	14.2460
 1.8140	14.2440
 1.8150	14.2420
 1.8160	14.2380
 1.8170	14.2340
 1.8180	14.2290
 1.8190	14.2200
 1.8200	14.2120
 1.8210	14.2020
 1.8220	14.1930
 1.8230	14.1860
 1.8240	14.1750
 1.8250	14.1640
 1.8260	14.1500
 1.8270	14.1390
 1.8280	14.1270
 1.8290	14.1160
 1.8300	14.1050
 1.8310	14.0930
 1.8320	14.0820
 1.8330	14.0710
 1.8340	14.0590
 1.8350	14.0590
 1.8360	14.0160
 1.8370	13.9700
 1.8380	13.9210
 1.8390	13.8670
 1.8400	13.8140
 1.8410	13.7510
 1.8420	13.6840
 1.8430	13.6120
 1.8440	13.5320
 1.8450	13.4470
 1.8460	13.3600
 1.8470	13.2660
 1.8480	13.1640
 1.8490	13.0560
 1.8500	12.9390
 1.8510	12.8140
 1.8520	12.6820
 1.8530	12.5440
 1.8540	12.3980
 1.8550	12.2450
 1.8560	12.0820
 1.8570	11.9130
 1.8580	11.7340
 1.8590	11.5490
 1.8600	11.3570
 1.8610	11.1610
 1.8620	10.9550
 1.8630	10.7440
 1.8640	10.5260
 1.8650	10.2980
 1.8660	10.0680
 1.8670	 9.8310
 1.8680	 9.5870
 1.8690	 9.3410
 1.8700	 9.0930
 1.8710	 8.8400
 1.8720	 8.5890
 1.8730	 8.3440
 1.8740	 8.0980
 1.8750	 7.8560
 1.8760	 7.6200
 1.8770	 7.3900
 1.8780	 7.1670
 1.8790	 6.9540
 1.8800	 6.7500
 1.8810	 6.5530
 1.8820	 6.3650
 1.8830	 6.1860
 1.8840	 6.0170
 1.8850	 5.8580
 1.8860	 5.7090
 1.8870	 5.5720
 1.8880	 5.4450
 1.8890	 5.3290
 1.8900	 5.2240
 1.8910	 5.1260
 1.8920	 5.0370
 1.8930	 4.9580
 1.8940	 4.8870
 1.8950	 4.8240
 1.8960	 4.7680
 1.8970	 4.7190
 1.8980	 4.6750
 1.8990	 4.6330
 1.9000	 4.5960
 1.9010	 4.5640
 1.9020	 4.5360
 1.9030	 4.5140
 1.9040	 4.4940
 1.9050	 4.4770
 1.9060	 4.4640
 1.9070	 4.4480
 1.9080	 4.4380
 1.9090	 4.4290
 1.9100	 4.4180
 1.9110	 4.4100
 1.9120	 4.4050
 1.9130	 4.3990
 1.9140	 4.3920
 1.9150	 4.3880
 1.9160	 4.3830
 1.9170	 4.3790
 1.9180	 4.3760
 1.9190	 4.3730
 1.9200	 4.3720
 1.9210	 4.3710
 1.9220	 4.3700
 1.9230	 4.3700
 1.9240	 4.3710
 1.9250	 4.3720
 1.9260	 4.3740
 1.9270	 4.3770
 1.9280	 4.3780
 1.9290	 4.3770
 1.9300	 4.3770
 1.9310	 4.3770
 1.9320	 4.3800
 1.9330	 4.3830
 1.9340	 4.3870
 1.9350	 4.3910
 1.9360	 4.3950
 1.9370	 4.3990
 1.9380	 4.4020
 1.9390	 4.4080
 1.9400	 4.4110
 1.9410	 4.4140
 1.9420	 4.4170
 1.9430	 4.4180
 1.9440	 4.4200
 1.9450	 4.4220
 1.9460	 4.4250
 1.9470	 4.4310
 1.9480	 4.4360
 1.9490	 4.4400
 1.9500	 4.4470
 1.9510	 4.4530
 1.9520	 4.4590
 1.9530	 4.4660
 1.9540	 4.4710
 1.9550	 4.4780
 1.9560	 4.4840
 1.9570	 4.4920
 1.9580	 4.5000
 1.9590	 4.5080
 1.9600	 4.5140
 1.9610	 4.5210
 1.9620	 4.5290
 1.9630	 4.5380
 1.9640	 4.5480
 1.9650	 4.5570
 1.9660	 4.5650
 1.9670	 4.5720
 1.9680	 4.5810
 1.9690	 4.5900
 1.9700	 4.6000
 1.9710	 4.6130
 1.9720	 4.6240
 1.9730	 4.6330
 1.9740	 4.6420
 1.9750	 4.6510
 1.9760	 4.6600
 1.9770	 4.6710
 1.9780	 4.6820
 1.9790	 4.6950
 1.9800	 4.7090
 1.9810	 4.7230
 1.9820	 4.7370
 1.9830	 4.7510
 1.9840	 4.7670
 1.9850	 4.7810
 1.9860	 4.7960
 1.9870	 4.8110
 1.9880	 4.8240
 1.9890	 4.8380
 1.9900	 4.8530
 1.9910	 4.8690
 1.9920	 4.8840
 1.9930	 4.9020
 1.9940	 4.9180
 1.9950	 4.9340
 1.9960	 4.9490
 1.9970	 4.9620
 1.9980	 4.9780
 1.9990	 4.9950
 2.0000	 5.0100
 2.0010	 5.0280
 2.0020	 5.0470
 2.0030	 5.0640
 2.0040	 5.0810
 2.0050	 5.0990
 2.0060	 5.1160
 2.0070	 5.1340
 2.0080	 5.1530
 2.0090	 5.1710
 2.0100	 5.1880
 2.0110	 5.2060
 2.0120	 5.2220
 2.0130	 5.2400
 2.0140	 5.2590
 2.0150	 5.2800
 2.0160	 5.3010
 2.0170	 5.3210
 2.0180	 5.3400
 2.0190	 5.3570
 2.0200	 5.3770
 2.0210	 5.3980
 2.0220	 5.4170
 2.0230	 5.4380
 2.0240	 5.4570
 2.0250	 5.4740
 2.0260	 5.4920
 2.0270	 5.5110
 2.0280	 5.5280
 2.0290	 5.5440
 2.0300	 5.5610
 2.0310	 5.5780
 2.0320	 5.5950
 2.0330	 5.6130
 2.0340	 5.6330
 2.0350	 5.6520
 2.0360	 5.6720
 2.0370	 5.6890
 2.0380	 5.7040
 2.0390	 5.7210
 2.0400	 5.7370
 2.0410	 5.7540
 2.0420	 5.7710
 2.0430	 5.7920
 2.0440	 5.8080
 2.0450	 5.8230
 2.0460	 5.8390
 2.0470	 5.8530
 2.0480	 5.8690
 2.0490	 5.8880
 2.0500	 5.9050
 2.0510	 5.9210
 2.0520	 5.9380
 2.0530	 5.9550
 2.0540	 5.9730
 2.0550	 5.9940
 2.0560	 6.0130
 2.0570	 6.0310
 2.0580	 6.0470
 2.0590	 6.0650
 2.0600	 6.0820
 2.0610	 6.0990
 2.0620	 6.1170
 2.0630	 6.1350
 2.0640	 6.1500
 2.0650	 6.1690
 2.0660	 6.1880
 2.0670	 6.2090
 2.0680	 6.2320
 2.0690	 6.2540
 2.0700	 6.2760
 2.0710	 6.2970
 2.0720	 6.3150
 2.0730	 6.3340
 2.0740	 6.3520
 2.0750	 6.3690
 2.0760	 6.3880
 2.0770	 6.4080
 2.0780	 6.4270
 2.0790	 6.4460
 2.0800	 6.4650
 2.0810	 6.4810
 2.0820	 6.5000
 2.0830	 6.5210
 2.0840	 6.5400
 2.0850	 6.5590
 2.0860	 6.5780
 2.0870	 6.5950
 2.0880	 6.6130
 2.0890	 6.6320
 2.0900	 6.6540
 2.0910	 6.6730
 2.0920	 6.6920
 2.0930	 6.7120
 2.0940	 6.7320
 2.0950	 6.7510
 2.0960	 6.7700
 2.0970	 6.7900
 2.0980	 6.8080
 2.0990	 6.8280
 2.1000	 6.8510
 2.1010	 6.8690
 2.1020	 6.8840
 2.1030	 6.9010
 2.1040	 6.9140
 2.1050	 6.9290
 2.1060	 6.9470
 2.1070	 6.9690
 2.1080	 6.9870
 2.1090	 7.0050
 2.1100	 7.0220
 2.1110	 7.0370
 2.1120	 7.0540
 2.1130	 7.0710
 2.1140	 7.0890
 2.1150	 7.1070
 2.1160	 7.1250
 2.1170	 7.1430
 2.1180	 7.1610
 2.1190	 7.1770
 2.1200	 7.1930
 2.1210	 7.2090
 2.1220	 7.2260
 2.1230	 7.2430
 2.1240	 7.2600
 2.1250	 7.2760
 2.1260	 7.2920
 2.1270	 7.3050
 2.1280	 7.3160
 2.1290	 7.3280
 2.1300	 7.3380
 2.1310	 7.3500
 2.1320	 7.3630
 2.1330	 7.3760
 2.1340	 7.3890
 2.1350	 7.4030
 2.1360	 7.4170
 2.1370	 7.4300
 2.1380	 7.4430
 2.1390	 7.4560
 2.1400	 7.4700
 2.1410	 7.4810
 2.1420	 7.4900
 2.1430	 7.5000
 2.1440	 7.5090
 2.1450	 7.5140
 2.1460	 7.5250
 2.1470	 7.5420
 2.1480	 7.5530
 2.1490	 7.5640
 2.1500	 7.5760
 2.1510	 7.5830
 2.1520	 7.5940
 2.1530	 7.6100
 2.1540	 7.6210
 2.1550	 7.6310
 2.1560	 7.6400
 2.1570	 7.6450
 2.1580	 7.6530
 2.1590	 7.6630
 2.1600	 7.6710
 2.1610	 7.6820
 2.1620	 7.6930
 2.1630	 7.7030
 2.1640	 7.7140
 2.1650	 7.7230
 2.1660	 7.7310
 2.1670	 7.7410
 2.1680	 7.7520
 2.1690	 7.7600
 2.1700	 7.7680
 2.1710	 7.7760
 2.1720	 7.7800
 2.1730	 7.7870
 2.1740	 7.7970
 2.1750	 7.8060
 2.1760	 7.8180
 2.1770	 7.8280
 2.1780	 7.8360
 2.1790	 7.8450
 2.1800	 7.8520
 2.1810	 7.8600
 2.1820	 7.8670
 2.1830	 7.8770
 2.1840	 7.8860
 2.1850	 7.8940
 2.1860	 7.9040
 2.1870	 7.9140
 2.1880	 7.9230
 2.1890	 7.9330
 2.1900	 7.9420
 2.1910	 7.9490
 2.1920	 7.9580
 2.1930	 7.9650
 2.1940	 7.9740
 2.1950	 7.9850
 2.1960	 7.9950
 2.1970	 8.0070
 2.1980	 8.0160
 2.1990	 8.0210
 2.2000	 8.0290
 2.2010	 8.0370
 2.2020	 8.0450
 2.2030	 8.0590
 2.2040	 8.0670
 2.2050	 8.0720
 2.2060	 8.0780
 2.2070	 8.0830
 2.2080	 8.0870
 2.2090	 8.0900
 2.2100	 8.0940
 2.2110	 8.0970
 2.2120	 8.0990
 2.2130	 8.1010
 2.2140	 8.1050
 2.2150	 8.1050
 2.2160	 8.1010
 2.2170	 8.0990
 2.2180	 8.0970
 2.2190	 8.0960
 2.2200	 8.0990
 2.2210	 8.0990
 2.2220	 8.1010
 2.2230	 8.0980
 2.2240	 8.0930
 2.2250	 8.0870
 2.2260	 8.0800
 2.2270	 8.0720
 2.2280	 8.0630
 2.2290	 8.0540
 2.2300	 8.0440
 2.2310	 8.0320
 2.2320	 8.0180
 2.2330	 8.0080
 2.2340	 7.9970
 2.2350	 7.9840
 2.2360	 7.9730
 2.2370	 7.9660
 2.2380	 7.9520
 2.2390	 7.9360
 2.2400	 7.9190
 2.2410	 7.8980
 2.2420	 7.8770
 2.2430	 7.8570
 2.2440	 7.8360
 2.2450	 7.8120
 2.2460	 7.7900
 2.2470	 7.7680
 2.2480	 7.7460
 2.2490	 7.7230
 2.2500	 7.7030
 2.2510	 7.6870
 2.2520	 7.6680
 2.2530	 7.6510
 2.2540	 7.6300
 2.2550	 7.6020
 2.2560	 7.5770
 2.2570	 7.5490
 2.2580	 7.5240
 2.2590	 7.5030
 2.2600	 7.4790
 2.2610	 7.4560
 2.2620	 7.4300
 2.2630	 7.4040
 2.2640	 7.3800
 2.2650	 7.3580
 2.2660	 7.3350
 2.2670	 7.3120
 2.2680	 7.2880
 2.2690	 7.2630
 2.2700	 7.2350
 2.2710	 7.2120
 2.2720	 7.1890
 2.2730	 7.1690
 2.2740	 7.1540
 2.2750	 7.1350
 2.2760	 7.1160
 2.2770	 7.0950
 2.2780	 7.0730
 2.2790	 7.0520
 2.2800	 7.0300
 2.2810	 7.0110
 2.2820	 6.9950
 2.2830	 6.9760
 2.2840	 6.9590
 2.2850	 6.9390
 2.2860	 6.9150
 2.2870	 6.8940
 2.2880	 6.8700
 2.2890	 6.8490
 2.2900	 6.8320
 2.2910	 6.8120
 2.2920	 6.7920
 2.2930	 6.7720
 2.2940	 6.7500
 2.2950	 6.7280
 2.2960	 6.7050
 2.2970	 6.6820
 2.2980	 6.6540
 2.2990	 6.6300
 2.3000	 6.6100
 2.3010	 6.5940
 2.3020	 6.5820
 2.3030	 6.5660
 2.3040	 6.5490
 2.3050	 6.5300
 2.3060	 6.5080
 2.3070	 6.4930
 2.3080	 6.4800
 2.3090	 6.4710
 2.3100	 6.4640
 2.3110	 6.4530
 2.3120	 6.4420
 2.3130	 6.4280
 2.3140	 6.4170
 2.3150	 6.4070
 2.3160	 6.3950
 2.3170	 6.3810
 2.3180	 6.3690
 2.3190	 6.3540
 2.3200	 6.3400
 2.3210	 6.3310
 2.3220	 6.3160
 2.3230	 6.2980
 2.3240	 6.2830
 2.3250	 6.2670
 2.3260	 6.2510
 2.3270	 6.2370
 2.3280	 6.2240
 2.3290	 6.2140
 2.3300	 6.1960
 2.3310	 6.1740
 2.3320	 6.1530
 2.3330	 6.1230
 2.3340	 6.1050
 2.3350	 6.1010
 2.3360	 6.0870
 2.3370	 6.0720
 2.3380	 6.0560
 2.3390	 6.0330
 2.3400	 6.0130
 2.3410	 5.9950
 2.3420	 5.9810
 2.3430	 5.9720
 2.3440	 5.9570
 2.3450	 5.9430
 2.3460	 5.9290
 2.3470	 5.9080
 2.3480	 5.8940
 2.3490	 5.8880
 2.3500	 5.8760
 2.3510	 5.8620
 2.3520	 5.8480
 2.3530	 5.8270
 2.3540	 5.8140
 2.3550	 5.8020
 2.3560	 5.7940
 2.3570	 5.7900
 2.3580	 5.7790
 2.3590	 5.7680
 2.3600	 5.7570
 2.3610	 5.7410
 2.3620	 5.7250
 2.3630	 5.7050
 2.3640	 5.6890
 2.3650	 5.6770
 2.3660	 5.6670
 2.3670	 5.6570
 2.3680	 5.6450
 2.3690	 5.6270
 2.3700	 5.6110
 2.3710	 5.6020
 2.3720	 5.5920
 2.3730	 5.5870
 2.3740	 5.5810
 2.3750	 5.5580
 2.3760	 5.5420
 2.3770	 5.5270
 2.3780	 5.5040
 2.3790	 5.4920
 2.3800	 5.4820
 2.3810	 5.4700
 2.3820	 5.4630
 2.3830	 5.4570
 2.3840	 5.4500
 2.3850	 5.4390
 2.3860	 5.4250
 2.3870	 5.4100
 2.3880	 5.3920
 2.3890	 5.3770
 2.3900	 5.3670
 2.3910	 5.3630
 2.3920	 5.3530
 2.3930	 5.3380
 2.3940	 5.3200
 2.3950	 5.3040
 2.3960	 5.2920
 2.3970	 5.2780
 2.3980	 5.2650
 2.3990	 5.2510
 2.4000	 5.2310
 2.4010	 5.2190
 2.4020	 5.2080
 2.4030	 5.1920
 2.4040	 5.1830
 2.4050	 5.1710
 2.4060	 5.1590
 2.4070	 5.1510
 2.4080	 5.1390
 2.4090	 5.1260
 2.4100	 5.1170
 2.4110	 5.1120
 2.4120	 5.1090
 2.4130	 5.1070
 2.4140	 5.1030
 2.4150	 5.0980
 2.4160	 5.0840
 2.4170	 5.0710
 2.4180	 5.0600
 2.4190	 5.0480
 2.4200	 5.0470
 2.4210	 5.0450
 2.4220	 5.0450
 2.4230	 5.0470
 2.4240	 5.0370
 2.4250	 5.0180
 2.4260	 4.9980
 2.4270	 4.9730
 2.4280	 4.9510
 2.4290	 4.9390
 2.4300	 4.9290
 2.4310	 4.9180
 2.4320	 4.9060
 2.4330	 4.8930
 2.4340	 4.8820
 2.4350	 4.8700
 2.4360	 4.8620
 2.4370	 4.8580
 2.4380	 4.8460
 2.4390	 4.8300
 2.4400	 4.8250
 2.4410	 4.8150
 2.4420	 4.8060
 2.4430	 4.8070
 2.4440	 4.7970
 2.4450	 4.7820
 2.4460	 4.7710
 2.4470	 4.7650
 2.4480	 4.7550
 2.4490	 4.7420
 2.4500	 4.7450
 2.4510	 4.7330
 2.4520	 4.7130
 2.4530	 4.6990
 2.4540	 4.6820
 2.4550	 4.6610
 2.4560	 4.6460
 2.4570	 4.6500
 2.4580	 4.6530
 2.4590	 4.6530
 2.4600	 4.6500
 2.4610	 4.6360
 2.4620	 4.6070
 2.4630	 4.5830
 2.4640	 4.5650
 2.4650	 4.5670
 2.4660	 4.5720
 2.4670	 4.5610
 2.4680	 4.5790
 2.4690	 4.5450
 2.4700	 4.5370
 2.4710	 4.5500
 2.4720	 4.5480
 2.4730	 4.5570
 2.4740	 4.5670
 2.4750	 4.5570
 2.4760	 4.5610
 2.4770	 4.5930
 2.4780	 4.6020
 2.4790	 4.6100
 2.4800	 4.6080
 2.4810	 4.5770
 2.4820	 4.5490
 2.4830	 4.5380
 2.4840	 4.5190
 2.4850	 4.5150
 2.4860	 4.4910
 2.4870	 4.4850
 2.4880	 4.5240
 2.4890	 4.5090
 2.4900	 4.5110
 2.4910	 4.5280
 2.4920	 4.4820
 2.4930	 4.4760
 2.4940	 4.4540
 2.4950	 4.3970
 2.4960	 4.4120
 2.4970	 4.4710
 2.4980	 4.5360
 2.4990	 4.5790
 2.5000	 4.5800
