Name: Pinus ponderosa 2
Type: vegetation
Class: Tree
Genus: Pinus
Species: ponderosa
Sample No.: VH255
Owner: UCSB
Wavelength Range: TIR
Origin: 37.044; -119.3023; WGS84
Collection Date: 11/2/2013
Description: Samples were collected as part of the HyspIRI Airborne Campaign. 48 individual plants were sampled in three times in 2013 - spring  summer  and fall. The name of the sample includes a 1  2  or 3 which references a different individual of the species. Samples were taken to JPL and processed within 48 hours of collection. The same leaves were processed in the Nicolet and then measured using the ASD.
Measurement: Hemispherical reflectance
First Column: X
Second Column: Y
X Units: Wavelength (micrometers)
Y Units: Reflectance (percentage)
First X Value: 2.501
Last X Value: 15.387
Number of X Values: 1737
Additional Information: vegetation.tree.pinus.ponderosa.tir.vh255.ucsb.nicolet.ancillary.txt

 2.5010	 3.7050
 2.5030	 3.7820
 2.5040	 3.6620
 2.5050	 3.6120
 2.5060	 3.3690
 2.5070	 3.2980
 2.5090	 3.3380
 2.5100	 3.5490
 2.5110	 3.6000
 2.5120	 3.6340
 2.5140	 3.6150
 2.5150	 3.5910
 2.5160	 3.5330
 2.5170	 3.5490
 2.5180	 3.5120
 2.5200	 3.6320
 2.5210	 3.5870
 2.5220	 3.4740
 2.5230	 3.3400
 2.5250	 3.4770
 2.5260	 3.4910
 2.5270	 3.3820
 2.5280	 3.4040
 2.5290	 3.5700
 2.5310	 3.5900
 2.5320	 3.5750
 2.5330	 3.5280
 2.5340	 3.6460
 2.5360	 3.6470
 2.5370	 3.6780
 2.5380	 3.4740
 2.5390	 3.4180
 2.5410	 3.4920
 2.5420	 3.5990
 2.5430	 3.5470
 2.5440	 3.6290
 2.5460	 3.6160
 2.5470	 3.5780
 2.5480	 3.4630
 2.5490	 3.6360
 2.5510	 3.7690
 2.5520	 3.8350
 2.5530	 3.7630
 2.5540	 3.6150
 2.5560	 3.5280
 2.5570	 3.6940
 2.5580	 3.5940
 2.5590	 3.5960
 2.5610	 3.5040
 2.5620	 3.5970
 2.5630	 3.6410
 2.5640	 3.7080
 2.5660	 3.6570
 2.5670	 3.6070
 2.5680	 3.7290
 2.5700	 3.7590
 2.5710	 3.6600
 2.5720	 3.6150
 2.5730	 3.5740
 2.5750	 3.6110
 2.5760	 3.5820
 2.5770	 3.7820
 2.5790	 3.8970
 2.5800	 3.8460
 2.5810	 3.8090
 2.5820	 3.9080
 2.5840	 3.8730
 2.5850	 3.8060
 2.5860	 3.6520
 2.5880	 3.6620
 2.5890	 3.6150
 2.5900	 3.4730
 2.5910	 3.2850
 2.5930	 3.3810
 2.5940	 3.4890
 2.5950	 3.5730
 2.5970	 3.6070
 2.5980	 3.6550
 2.5990	 3.4480
 2.6000	 3.3940
 2.6020	 3.5280
 2.6030	 3.5660
 2.6040	 3.3740
 2.6060	 3.4780
 2.6070	 3.5630
 2.6080	 3.6620
 2.6100	 3.6730
 2.6110	 3.7890
 2.6120	 3.7410
 2.6140	 3.5270
 2.6150	 3.4680
 2.6160	 3.6050
 2.6180	 3.6370
 2.6190	 3.5800
 2.6200	 3.4060
 2.6220	 3.4720
 2.6230	 3.5290
 2.6240	 3.6400
 2.6260	 3.5410
 2.6270	 3.3400
 2.6280	 3.3050
 2.6300	 3.4890
 2.6310	 3.5650
 2.6320	 3.5080
 2.6340	 3.2970
 2.6350	 3.4490
 2.6360	 3.4210
 2.6380	 3.1700
 2.6390	 3.0640
 2.6400	 3.0810
 2.6420	 3.1030
 2.6430	 3.1680
 2.6440	 3.0350
 2.6460	 3.0900
 2.6470	 3.1520
 2.6480	 3.2440
 2.6500	 3.2710
 2.6510	 3.2100
 2.6520	 3.0050
 2.6540	 3.0700
 2.6550	 3.1100
 2.6560	 2.9540
 2.6580	 2.8940
 2.6590	 3.0570
 2.6610	 3.0420
 2.6620	 3.1200
 2.6630	 3.0970
 2.6650	 3.0020
 2.6660	 2.9250
 2.6670	 3.0580
 2.6690	 3.0320
 2.6700	 2.9310
 2.6720	 2.9960
 2.6730	 3.0350
 2.6740	 2.8150
 2.6760	 2.7940
 2.6770	 2.8810
 2.6780	 2.9650
 2.6800	 2.9750
 2.6810	 3.0830
 2.6830	 2.9850
 2.6840	 2.9310
 2.6850	 2.7780
 2.6870	 2.6690
 2.6880	 2.6270
 2.6900	 2.8450
 2.6910	 2.9770
 2.6920	 2.8060
 2.6940	 2.6710
 2.6950	 2.6500
 2.6970	 2.6830
 2.6980	 2.7970
 2.6990	 2.6430
 2.7010	 2.6510
 2.7020	 2.6580
 2.7040	 2.7800
 2.7050	 2.8630
 2.7060	 2.8320
 2.7080	 2.6480
 2.7090	 2.5080
 2.7110	 2.4590
 2.7120	 2.5280
 2.7130	 2.4080
 2.7150	 2.3270
 2.7160	 2.3820
 2.7180	 2.4340
 2.7190	 2.3230
 2.7210	 2.4120
 2.7220	 2.5170
 2.7230	 2.5980
 2.7250	 2.4890
 2.7260	 2.3830
 2.7280	 2.2480
 2.7290	 2.4530
 2.7310	 2.3480
 2.7320	 2.2100
 2.7330	 2.2370
 2.7350	 2.3720
 2.7360	 2.4280
 2.7380	 2.4240
 2.7390	 2.4440
 2.7410	 2.3390
 2.7420	 2.1510
 2.7440	 2.1040
 2.7450	 2.3120
 2.7470	 2.4810
 2.7480	 2.4640
 2.7490	 2.3200
 2.7510	 2.2280
 2.7520	 2.2540
 2.7540	 2.1480
 2.7550	 2.0750
 2.7570	 1.9550
 2.7580	 2.2120
 2.7600	 2.3100
 2.7610	 2.3440
 2.7630	 2.2950
 2.7640	 2.3370
 2.7660	 2.3360
 2.7670	 2.3160
 2.7680	 2.3000
 2.7700	 2.3970
 2.7710	 2.2540
 2.7730	 2.2450
 2.7740	 2.2160
 2.7760	 2.3530
 2.7770	 2.3290
 2.7790	 2.2790
 2.7800	 2.1860
 2.7820	 2.3900
 2.7830	 2.2380
 2.7850	 2.2680
 2.7860	 2.3830
 2.7880	 2.4560
 2.7890	 2.1810
 2.7910	 2.0220
 2.7920	 2.1170
 2.7940	 2.3640
 2.7950	 2.2230
 2.7970	 2.1100
 2.7980	 2.1000
 2.8000	 2.1480
 2.8010	 2.2220
 2.8030	 2.3250
 2.8040	 2.3270
 2.8060	 2.3760
 2.8070	 2.2390
 2.8090	 2.3100
 2.8110	 2.4940
 2.8120	 2.4410
 2.8140	 2.1830
 2.8150	 2.2060
 2.8170	 2.2110
 2.8180	 2.4300
 2.8200	 2.4040
 2.8210	 2.3500
 2.8230	 2.2410
 2.8240	 2.3260
 2.8260	 2.3720
 2.8270	 2.3620
 2.8290	 2.3080
 2.8300	 2.4690
 2.8320	 2.5200
 2.8340	 2.3900
 2.8350	 2.0810
 2.8370	 2.1280
 2.8380	 2.2880
 2.8400	 2.5130
 2.8410	 2.4450
 2.8430	 2.3260
 2.8440	 2.1830
 2.8460	 2.4060
 2.8480	 2.3820
 2.8490	 2.2420
 2.8510	 2.1210
 2.8520	 2.2840
 2.8540	 2.3020
 2.8550	 2.2620
 2.8570	 2.1220
 2.8590	 2.1440
 2.8600	 2.2170
 2.8620	 2.3600
 2.8630	 2.1780
 2.8650	 2.1690
 2.8660	 2.1990
 2.8680	 2.2440
 2.8700	 2.2280
 2.8710	 2.3400
 2.8730	 2.3770
 2.8740	 2.3320
 2.8760	 2.4010
 2.8780	 2.5700
 2.8790	 2.4960
 2.8810	 2.4360
 2.8820	 2.0410
 2.8840	 1.9310
 2.8860	 2.1740
 2.8870	 2.3780
 2.8890	 2.4440
 2.8900	 2.5360
 2.8920	 2.6270
 2.8940	 2.4820
 2.8950	 2.1210
 2.8970	 2.2080
 2.8980	 2.4580
 2.9000	 2.4980
 2.9020	 2.2080
 2.9030	 2.3520
 2.9050	 2.5430
 2.9070	 2.5810
 2.9080	 2.5620
 2.9100	 2.4900
 2.9120	 2.2300
 2.9130	 2.5280
 2.9150	 2.7300
 2.9160	 2.5580
 2.9180	 2.2370
 2.9200	 2.1140
 2.9210	 2.1410
 2.9230	 2.2810
 2.9250	 2.2760
 2.9260	 2.3730
 2.9280	 2.3820
 2.9300	 2.3960
 2.9310	 2.2880
 2.9330	 2.2450
 2.9350	 2.1110
 2.9360	 2.0630
 2.9380	 2.0110
 2.9400	 2.0970
 2.9410	 2.0930
 2.9430	 2.1570
 2.9450	 2.0660
 2.9460	 2.0070
 2.9480	 2.1610
 2.9500	 2.2840
 2.9510	 2.3320
 2.9530	 2.3290
 2.9550	 2.2320
 2.9560	 2.1410
 2.9580	 1.9130
 2.9600	 1.9080
 2.9610	 1.8930
 2.9630	 2.1720
 2.9650	 1.9370
 2.9660	 2.6000
 2.9680	 3.2250
 2.9700	 3.0140
 2.9720	 2.3730
 2.9730	 1.8140
 2.9750	 1.4890
 2.9770	 1.5870
 2.9780	 1.1980
 2.9800	 1.6790
 2.9820	 2.1970
 2.9840	 2.0760
 2.9850	 2.2510
 2.9870	 1.9760
 2.9890	 1.6050
 2.9900	 1.9770
 2.9920	 2.1220
 2.9940	 1.8410
 2.9960	 2.5990
 2.9970	 3.8230
 2.9990	 3.5050
 3.0010	 2.4040
 3.0030	 2.0010
 3.0040	 1.9870
 3.0060	 2.2400
 3.0080	 2.5810
 3.0100	 2.4740
 3.0110	 3.1120
 3.0130	 3.3280
 3.0150	 3.0010
 3.0170	 3.2070
 3.0180	 2.8500
 3.0200	 2.5560
 3.0220	 2.0910
 3.0240	 1.7130
 3.0250	 1.7790
 3.0270	 1.9830
 3.0290	 1.8690
 3.0310	 2.3070
 3.0320	 2.5240
 3.0340	 2.8450
 3.0360	 2.4920
 3.0380	 2.3700
 3.0400	 3.1300
 3.0410	 3.2780
 3.0430	 2.5360
 3.0450	 2.3770
 3.0470	 3.5120
 3.0480	 3.0970
 3.0500	 2.1070
 3.0520	 1.6720
 3.0540	 1.7760
 3.0560	 1.6520
 3.0570	 1.0760
 3.0590	 1.2060
 3.0610	 2.2980
 3.0630	 2.6420
 3.0650	 2.0740
 3.0660	 1.7430
 3.0680	 2.0890
 3.0700	 2.2330
 3.0720	 2.4500
 3.0740	 2.0690
 3.0760	 2.0000
 3.0770	 2.1220
 3.0790	 2.3940
 3.0810	 2.1970
 3.0830	 2.2730
 3.0850	 2.3460
 3.0870	 2.3660
 3.0880	 2.2720
 3.0900	 2.5200
 3.0920	 2.4940
 3.0940	 2.5260
 3.0960	 2.4420
 3.0980	 2.3410
 3.0990	 2.2360
 3.1010	 2.3650
 3.1030	 2.1800
 3.1050	 2.1960
 3.1070	 2.3050
 3.1090	 2.4670
 3.1110	 2.2600
 3.1120	 2.1550
 3.1140	 2.0980
 3.1160	 2.3830
 3.1180	 2.4150
 3.1200	 2.3240
 3.1220	 2.2680
 3.1240	 2.3830
 3.1260	 2.3280
 3.1270	 2.2000
 3.1290	 2.1320
 3.1310	 2.1300
 3.1330	 1.9980
 3.1350	 1.9810
 3.1370	 2.3180
 3.1390	 2.2050
 3.1410	 1.2390
 3.1430	 1.1540
 3.1450	 1.4540
 3.1460	 3.2340
 3.1480	 2.8090
 3.1500	 1.2650
 3.1520	 1.1810
 3.1540	 1.9820
 3.1560	 2.2790
 3.1580	 2.1810
 3.1600	 1.7260
 3.1620	 2.3200
 3.1640	 2.9240
 3.1660	 3.2050
 3.1680	 2.6270
 3.1700	 2.5100
 3.1710	 2.6500
 3.1730	 2.8270
 3.1750	 2.1760
 3.1770	 1.3780
 3.1790	 2.0400
 3.1810	 2.7170
 3.1830	 2.0450
 3.1850	 2.1570
 3.1870	 2.7060
 3.1890	 2.6160
 3.1910	 2.2800
 3.1930	 2.1220
 3.1950	 2.2090
 3.1970	 2.3580
 3.1990	 2.3580
 3.2010	 2.3470
 3.2030	 2.1270
 3.2050	 2.0360
 3.2070	 2.0700
 3.2090	 2.2020
 3.2110	 2.2060
 3.2130	 2.0750
 3.2150	 2.0070
 3.2170	 2.1130
 3.2190	 2.0960
 3.2210	 2.1870
 3.2230	 2.0830
 3.2250	 1.9560
 3.2270	 2.0600
 3.2290	 2.3170
 3.2310	 2.1240
 3.2330	 2.0980
 3.2350	 2.1460
 3.2370	 1.9780
 3.2390	 1.6720
 3.2410	 1.5440
 3.2430	 1.6140
 3.2450	 2.0020
 3.2470	 2.3230
 3.2490	 2.4390
 3.2510	 2.3190
 3.2530	 2.2420
 3.2550	 2.1280
 3.2570	 2.1750
 3.2590	 2.0350
 3.2610	 1.9980
 3.2630	 2.1440
 3.2650	 2.2740
 3.2670	 2.0920
 3.2690	 2.0110
 3.2720	 2.0300
 3.2740	 2.0270
 3.2760	 2.0300
 3.2780	 2.0500
 3.2800	 2.0020
 3.2820	 2.0490
 3.2840	 2.0520
 3.2860	 2.1420
 3.2880	 2.0480
 3.2900	 2.0050
 3.2920	 2.1040
 3.2940	 2.1950
 3.2960	 1.7880
 3.2990	 1.6320
 3.3010	 1.9040
 3.3030	 2.2650
 3.3050	 2.1820
 3.3070	 2.1160
 3.3090	 1.9610
 3.3110	 1.8350
 3.3130	 1.8150
 3.3150	 1.8310
 3.3180	 1.7450
 3.3200	 1.7810
 3.3220	 1.7400
 3.3240	 1.8130
 3.3260	 1.9310
 3.3280	 2.0180
 3.3300	 1.8600
 3.3330	 1.7530
 3.3350	 1.7220
 3.3370	 1.9750
 3.3390	 1.9670
 3.3410	 2.0070
 3.3430	 2.0750
 3.3450	 2.1170
 3.3480	 1.9520
 3.3500	 1.9990
 3.3520	 1.9480
 3.3540	 1.9470
 3.3560	 1.9800
 3.3580	 2.1620
 3.3610	 2.1420
 3.3630	 1.9770
 3.3650	 1.8450
 3.3670	 1.8870
 3.3690	 1.8520
 3.3720	 1.8450
 3.3740	 1.7040
 3.3760	 1.7080
 3.3780	 1.6570
 3.3800	 1.8490
 3.3830	 1.8900
 3.3850	 1.8520
 3.3870	 1.7210
 3.3890	 1.7340
 3.3910	 1.6500
 3.3940	 1.7740
 3.3960	 1.7700
 3.3980	 1.8570
 3.4000	 1.7910
 3.4020	 1.7010
 3.4050	 1.6340
 3.4070	 1.7980
 3.4090	 1.9050
 3.4110	 1.9320
 3.4140	 1.9840
 3.4160	 2.3300
 3.4180	 2.4990
 3.4200	 2.7920
 3.4230	 3.1130
 3.4250	 3.5030
 3.4270	 3.7000
 3.4290	 3.9330
 3.4320	 3.9480
 3.4340	 3.9750
 3.4360	 3.7450
 3.4390	 3.4760
 3.4410	 3.2350
 3.4430	 3.2000
 3.4450	 3.1130
 3.4480	 2.9960
 3.4500	 2.5630
 3.4520	 2.5010
 3.4550	 2.8400
 3.4570	 3.1720
 3.4590	 2.9370
 3.4620	 2.8960
 3.4640	 2.7720
 3.4660	 2.6410
 3.4680	 2.5650
 3.4710	 2.5910
 3.4730	 2.6820
 3.4750	 2.7500
 3.4780	 2.4950
 3.4800	 2.3220
 3.4820	 2.3770
 3.4850	 2.4560
 3.4870	 2.4140
 3.4890	 2.3930
 3.4920	 2.2930
 3.4940	 2.2570
 3.4970	 2.3120
 3.4990	 2.4000
 3.5010	 2.4360
 3.5040	 2.7150
 3.5060	 3.1380
 3.5080	 3.7630
 3.5110	 4.0230
 3.5130	 4.0070
 3.5160	 3.8080
 3.5180	 3.6230
 3.5200	 3.4600
 3.5230	 3.3880
 3.5250	 3.1680
 3.5270	 3.1330
 3.5300	 3.0710
 3.5320	 2.9760
 3.5350	 2.8540
 3.5370	 2.7840
 3.5400	 2.6120
 3.5420	 2.7370
 3.5440	 2.8280
 3.5470	 2.8990
 3.5490	 2.8620
 3.5520	 2.8390
 3.5540	 2.6750
 3.5570	 2.6620
 3.5590	 2.6630
 3.5610	 2.7240
 3.5640	 2.7180
 3.5660	 2.7450
 3.5690	 2.6270
 3.5710	 2.6250
 3.5740	 2.7200
 3.5760	 2.7710
 3.5790	 2.6630
 3.5810	 2.6690
 3.5840	 2.6330
 3.5860	 2.5800
 3.5890	 2.4730
 3.5910	 2.4830
 3.5930	 2.4510
 3.5960	 2.6450
 3.5980	 2.6030
 3.6010	 2.5730
 3.6030	 2.5680
 3.6060	 2.6100
 3.6080	 2.5610
 3.6110	 2.6420
 3.6140	 2.6590
 3.6160	 2.6780
 3.6190	 2.5820
 3.6210	 2.7140
 3.6240	 2.6710
 3.6260	 2.6270
 3.6290	 2.5950
 3.6310	 2.6150
 3.6340	 2.5700
 3.6360	 2.6180
 3.6390	 2.5440
 3.6410	 2.6250
 3.6440	 2.6220
 3.6470	 2.5920
 3.6490	 2.4110
 3.6520	 2.4550
 3.6540	 2.4480
 3.6570	 2.4440
 3.6590	 2.4520
 3.6620	 2.5000
 3.6650	 2.5040
 3.6670	 2.5720
 3.6700	 2.5270
 3.6720	 2.5420
 3.6750	 2.4180
 3.6780	 2.4690
 3.6800	 2.4850
 3.6830	 2.5010
 3.6850	 2.4970
 3.6880	 2.6360
 3.6910	 2.6260
 3.6930	 2.4810
 3.6960	 2.3500
 3.6990	 2.4000
 3.7010	 2.3790
 3.7040	 2.5070
 3.7060	 2.5000
 3.7090	 2.5020
 3.7120	 2.4730
 3.7140	 2.4800
 3.7170	 2.4730
 3.7200	 2.6030
 3.7220	 2.6410
 3.7250	 2.6580
 3.7280	 2.5680
 3.7300	 2.5550
 3.7330	 2.5470
 3.7360	 2.6050
 3.7390	 2.5050
 3.7410	 2.6030
 3.7440	 2.5880
 3.7470	 2.4490
 3.7490	 2.3930
 3.7520	 2.4570
 3.7550	 2.4620
 3.7580	 2.5440
 3.7600	 2.4830
 3.7630	 2.6360
 3.7660	 2.6420
 3.7680	 2.5580
 3.7710	 2.5170
 3.7740	 2.5330
 3.7770	 2.4610
 3.7790	 2.5740
 3.7820	 2.5490
 3.7850	 2.4790
 3.7880	 2.3550
 3.7900	 2.3140
 3.7930	 2.3640
 3.7960	 2.4340
 3.7990	 2.3010
 3.8020	 2.4190
 3.8040	 2.4590
 3.8070	 2.5300
 3.8100	 2.5230
 3.8130	 2.4900
 3.8160	 2.4950
 3.8180	 2.5760
 3.8210	 2.5310
 3.8240	 2.5970
 3.8270	 2.5750
 3.8300	 2.5760
 3.8330	 2.5130
 3.8350	 2.5560
 3.8380	 2.5300
 3.8410	 2.5070
 3.8440	 2.3710
 3.8470	 2.4740
 3.8500	 2.5490
 3.8520	 2.5890
 3.8550	 2.5290
 3.8580	 2.5310
 3.8610	 2.5280
 3.8640	 2.5710
 3.8670	 2.6020
 3.8700	 2.6350
 3.8730	 2.5310
 3.8750	 2.5130
 3.8780	 2.4930
 3.8810	 2.5790
 3.8840	 2.5080
 3.8870	 2.5230
 3.8900	 2.4780
 3.8930	 2.5090
 3.8960	 2.4680
 3.8990	 2.5260
 3.9020	 2.5420
 3.9050	 2.5310
 3.9080	 2.4910
 3.9110	 2.6150
 3.9140	 2.6310
 3.9160	 2.6290
 3.9190	 2.5770
 3.9220	 2.6170
 3.9250	 2.5870
 3.9280	 2.5400
 3.9310	 2.4470
 3.9340	 2.4910
 3.9370	 2.5340
 3.9400	 2.5850
 3.9430	 2.4510
 3.9460	 2.4850
 3.9490	 2.5270
 3.9520	 2.6150
 3.9550	 2.5470
 3.9580	 2.5920
 3.9610	 2.5580
 3.9640	 2.5370
 3.9670	 2.4970
 3.9700	 2.5680
 3.9730	 2.5910
 3.9770	 2.5580
 3.9800	 2.4330
 3.9830	 2.5350
 3.9860	 2.5780
 3.9890	 2.6130
 3.9920	 2.4530
 3.9950	 2.4130
 3.9980	 2.4020
 4.0010	 2.5370
 4.0040	 2.5890
 4.0070	 2.6010
 4.0100	 2.5470
 4.0130	 2.5520
 4.0170	 2.5150
 4.0200	 2.5100
 4.0230	 2.4860
 4.0260	 2.5880
 4.0290	 2.4780
 4.0320	 2.4890
 4.0350	 2.4930
 4.0380	 2.6130
 4.0420	 2.5750
 4.0450	 2.5180
 4.0480	 2.4340
 4.0510	 2.4930
 4.0540	 2.5100
 4.0570	 2.6790
 4.0610	 2.6130
 4.0640	 2.5470
 4.0670	 2.4490
 4.0700	 2.5650
 4.0730	 2.6250
 4.0770	 2.6240
 4.0800	 2.5610
 4.0830	 2.4970
 4.0860	 2.4760
 4.0890	 2.5880
 4.0930	 2.6030
 4.0960	 2.5820
 4.0990	 2.4320
 4.1020	 2.4900
 4.1060	 2.5770
 4.1090	 2.5960
 4.1120	 2.4860
 4.1150	 2.5340
 4.1190	 2.5660
 4.1220	 2.5950
 4.1250	 2.5540
 4.1280	 2.6260
 4.1320	 2.5640
 4.1350	 2.4970
 4.1380	 2.4430
 4.1420	 2.5200
 4.1450	 2.5170
 4.1480	 2.5660
 4.1520	 2.4730
 4.1550	 2.4470
 4.1580	 2.4490
 4.1620	 2.5630
 4.1650	 2.5830
 4.1680	 2.6120
 4.1720	 2.4930
 4.1750	 2.5190
 4.1780	 2.5250
 4.1820	 2.5550
 4.1850	 2.4610
 4.1890	 2.5020
 4.1920	 2.5320
 4.1950	 2.6180
 4.1990	 2.5670
 4.2020	 2.4930
 4.2060	 2.3060
 4.2090	 2.3940
 4.2120	 2.3870
 4.2160	 2.4090
 4.2190	 2.2200
 4.2230	 2.5540
 4.2260	 2.7020
 4.2300	 2.4380
 4.2330	 2.1930
 4.2360	 2.4210
 4.2400	 2.4040
 4.2430	 2.5350
 4.2470	 2.1570
 4.2500	 2.1520
 4.2540	 2.1430
 4.2570	 2.5370
 4.2610	 2.6850
 4.2640	 2.5410
 4.2680	 2.1860
 4.2710	 2.4570
 4.2750	 2.5650
 4.2780	 2.9040
 4.2820	 3.0820
 4.2850	 2.9460
 4.2890	 2.4370
 4.2930	 2.5670
 4.2960	 2.5900
 4.3000	 2.6640
 4.3030	 2.4780
 4.3070	 2.3850
 4.3100	 2.3540
 4.3140	 2.5520
 4.3180	 2.4880
 4.3210	 2.5070
 4.3250	 2.3970
 4.3280	 2.3630
 4.3320	 2.3960
 4.3360	 2.4760
 4.3390	 2.3730
 4.3430	 2.4520
 4.3470	 2.5100
 4.3500	 2.5210
 4.3540	 2.4350
 4.3570	 2.4670
 4.3610	 2.3900
 4.3650	 2.4010
 4.3680	 2.3550
 4.3720	 2.4430
 4.3760	 2.3860
 4.3800	 2.3830
 4.3830	 2.3610
 4.3870	 2.4350
 4.3910	 2.4390
 4.3940	 2.4440
 4.3980	 2.3460
 4.4020	 2.4220
 4.4060	 2.4010
 4.4090	 2.4420
 4.4130	 2.3760
 4.4170	 2.3670
 4.4210	 2.3380
 4.4240	 2.4040
 4.4280	 2.4200
 4.4320	 2.4290
 4.4360	 2.3730
 4.4400	 2.4060
 4.4430	 2.3320
 4.4470	 2.4220
 4.4510	 2.4060
 4.4550	 2.3370
 4.4590	 2.2420
 4.4620	 2.3720
 4.4660	 2.4150
 4.4700	 2.4240
 4.4740	 2.2850
 4.4780	 2.3140
 4.4820	 2.3170
 4.4860	 2.4050
 4.4900	 2.3880
 4.4930	 2.3130
 4.4970	 2.2640
 4.5010	 2.3510
 4.5050	 2.2530
 4.5090	 2.2640
 4.5130	 2.2900
 4.5170	 2.4150
 4.5210	 2.3670
 4.5250	 2.2940
 4.5290	 2.2350
 4.5330	 2.3490
 4.5370	 2.2930
 4.5410	 2.3340
 4.5450	 2.3140
 4.5490	 2.3280
 4.5530	 2.3300
 4.5570	 2.4050
 4.5610	 2.3380
 4.5650	 2.3620
 4.5690	 2.2820
 4.5730	 2.3210
 4.5770	 2.3640
 4.5810	 2.3550
 4.5850	 2.2450
 4.5890	 2.3880
 4.5930	 2.3860
 4.5970	 2.3480
 4.6010	 2.2560
 4.6050	 2.2420
 4.6090	 2.3480
 4.6130	 2.4800
 4.6170	 2.3040
 4.6220	 2.2550
 4.6260	 2.2960
 4.6300	 2.3400
 4.6340	 2.2060
 4.6380	 2.2130
 4.6420	 2.1520
 4.6460	 2.2140
 4.6510	 2.2650
 4.6550	 2.3200
 4.6590	 2.2820
 4.6630	 2.3340
 4.6670	 2.3190
 4.6720	 2.3290
 4.6760	 2.2890
 4.6800	 2.4080
 4.6840	 2.4160
 4.6880	 2.3820
 4.6930	 2.2230
 4.6970	 2.2510
 4.7010	 2.2270
 4.7050	 2.2840
 4.7100	 2.2500
 4.7140	 2.2080
 4.7180	 2.1880
 4.7230	 2.2970
 4.7270	 2.2470
 4.7310	 2.2860
 4.7360	 2.2150
 4.7400	 2.2140
 4.7440	 2.2330
 4.7490	 2.3740
 4.7530	 2.3100
 4.7570	 2.3100
 4.7620	 2.2270
 4.7660	 2.2750
 4.7700	 2.2740
 4.7750	 2.2880
 4.7790	 2.1620
 4.7840	 2.1900
 4.7880	 2.1550
 4.7920	 2.1770
 4.7970	 2.2930
 4.8010	 2.4580
 4.8060	 2.3430
 4.8100	 2.3020
 4.8150	 2.3150
 4.8190	 2.4170
 4.8240	 2.3530
 4.8280	 2.3070
 4.8330	 2.1990
 4.8370	 2.1900
 4.8420	 2.2310
 4.8460	 2.2910
 4.8510	 2.1590
 4.8550	 2.2220
 4.8600	 2.2350
 4.8640	 2.3040
 4.8690	 2.3310
 4.8730	 2.3200
 4.8780	 2.2560
 4.8830	 2.3070
 4.8870	 2.1880
 4.8920	 2.2270
 4.8960	 2.2220
 4.9010	 2.2210
 4.9060	 2.2640
 4.9100	 2.3280
 4.9150	 2.2700
 4.9200	 2.3630
 4.9240	 2.3440
 4.9290	 2.3910
 4.9340	 2.2800
 4.9380	 2.2170
 4.9430	 2.2800
 4.9480	 2.3430
 4.9530	 2.3080
 4.9570	 2.2910
 4.9620	 2.2090
 4.9670	 2.2720
 4.9720	 2.2490
 4.9760	 2.3190
 4.9810	 2.2920
 4.9860	 2.2770
 4.9910	 2.1450
 4.9960	 2.2040
 5.0000	 2.2540
 5.0050	 2.2900
 5.0100	 2.2310
 5.0150	 2.3040
 5.0200	 2.2820
 5.0250	 2.3490
 5.0290	 2.3080
 5.0340	 2.3670
 5.0390	 2.3410
 5.0440	 2.2990
 5.0490	 2.2330
 5.0540	 2.3170
 5.0590	 2.2140
 5.0640	 2.1880
 5.0690	 2.1650
 5.0740	 2.2820
 5.0790	 2.2360
 5.0840	 2.3360
 5.0890	 2.3750
 5.0940	 2.4560
 5.0990	 2.3170
 5.1040	 2.2650
 5.1090	 2.2660
 5.1140	 2.4240
 5.1190	 2.3850
 5.1240	 2.3350
 5.1290	 2.2900
 5.1340	 2.3390
 5.1390	 2.2970
 5.1440	 2.3770
 5.1490	 2.3240
 5.1540	 2.3410
 5.1600	 2.3900
 5.1650	 2.5100
 5.1700	 2.3780
 5.1750	 2.2960
 5.1800	 2.2720
 5.1850	 2.3130
 5.1910	 2.3100
 5.1960	 2.3780
 5.2010	 2.3730
 5.2060	 2.3850
 5.2110	 2.2820
 5.2170	 2.2890
 5.2220	 2.2250
 5.2270	 2.2700
 5.2320	 2.2590
 5.2380	 2.4270
 5.2430	 2.3610
 5.2480	 2.3660
 5.2540	 2.2660
 5.2590	 2.2980
 5.2640	 2.3060
 5.2700	 2.3420
 5.2750	 2.2910
 5.2800	 2.3410
 5.2860	 2.2540
 5.2910	 2.2710
 5.2970	 2.2970
 5.3020	 2.3270
 5.3070	 2.2320
 5.3130	 2.2480
 5.3180	 2.2270
 5.3240	 2.2690
 5.3290	 2.2500
 5.3350	 2.2530
 5.3400	 2.1470
 5.3460	 2.2570
 5.3510	 2.3850
 5.3570	 2.4140
 5.3620	 2.2900
 5.3680	 2.2870
 5.3730	 2.2540
 5.3790	 2.3440
 5.3850	 2.2310
 5.3900	 2.2560
 5.3960	 2.2890
 5.4010	 2.3330
 5.4070	 2.2940
 5.4130	 2.3250
 5.4180	 2.2480
 5.4240	 2.2750
 5.4300	 2.2710
 5.4350	 2.3850
 5.4410	 2.2790
 5.4470	 2.2040
 5.4530	 2.2040
 5.4580	 2.3320
 5.4640	 2.2530
 5.4700	 2.2520
 5.4760	 2.2210
 5.4810	 2.2320
 5.4870	 2.1960
 5.4930	 2.2600
 5.4990	 2.2040
 5.5050	 2.2520
 5.5110	 2.2010
 5.5160	 2.2010
 5.5220	 2.1230
 5.5280	 2.1750
 5.5340	 2.1720
 5.5400	 2.2530
 5.5460	 2.1640
 5.5520	 2.2000
 5.5580	 2.1710
 5.5640	 2.1180
 5.5700	 1.9730
 5.5760	 2.0350
 5.5820	 2.0450
 5.5880	 2.1450
 5.5940	 2.0440
 5.6000	 2.0510
 5.6060	 2.0080
 5.6120	 2.1270
 5.6180	 2.0330
 5.6240	 1.9780
 5.6300	 1.9360
 5.6360	 1.9560
 5.6420	 1.9180
 5.6490	 1.9680
 5.6550	 1.8930
 5.6610	 1.8940
 5.6670	 1.7900
 5.6730	 1.7590
 5.6800	 1.6510
 5.6860	 1.6400
 5.6920	 1.6400
 5.6980	 1.7540
 5.7040	 1.6540
 5.7110	 1.6290
 5.7170	 1.4750
 5.7230	 1.4060
 5.7300	 1.3840
 5.7360	 1.5820
 5.7420	 1.7720
 5.7490	 2.1140
 5.7550	 2.4020
 5.7620	 2.9110
 5.7680	 3.1340
 5.7740	 3.2250
 5.7810	 3.1580
 5.7870	 3.1100
 5.7940	 2.9070
 5.8000	 2.7600
 5.8070	 2.6620
 5.8130	 2.6960
 5.8200	 2.5160
 5.8260	 2.6470
 5.8330	 2.7460
 5.8390	 2.7190
 5.8460	 2.5670
 5.8530	 2.5930
 5.8590	 2.5270
 5.8660	 2.5590
 5.8720	 2.4790
 5.8790	 2.5330
 5.8860	 2.5670
 5.8920	 2.6150
 5.8990	 2.5430
 5.9060	 2.5540
 5.9130	 2.5530
 5.9190	 2.6920
 5.9260	 2.6580
 5.9330	 2.6190
 5.9400	 2.5430
 5.9470	 2.6110
 5.9530	 2.4940
 5.9600	 2.4720
 5.9670	 2.4790
 5.9740	 2.6240
 5.9810	 2.4920
 5.9880	 2.4730
 5.9950	 2.3640
 6.0020	 2.4060
 6.0090	 2.4880
 6.0160	 2.6180
 6.0230	 2.4930
 6.0300	 2.4590
 6.0370	 2.3890
 6.0440	 2.5020
 6.0510	 2.4290
 6.0580	 2.5790
 6.0650	 2.4900
 6.0720	 2.5150
 6.0790	 2.3970
 6.0860	 2.4910
 6.0930	 2.5270
 6.1000	 2.4930
 6.1080	 2.3190
 6.1150	 2.5790
 6.1220	 2.6270
 6.1290	 2.7220
 6.1370	 2.7010
 6.1440	 2.7770
 6.1510	 2.5800
 6.1580	 2.5730
 6.1660	 2.6480
 6.1730	 2.9380
 6.1800	 2.8480
 6.1880	 2.8020
 6.1950	 2.7320
 6.2030	 2.7340
 6.2100	 2.5570
 6.2170	 2.4800
 6.2250	 2.3340
 6.2320	 2.4070
 6.2400	 2.2740
 6.2470	 2.1780
 6.2550	 2.0470
 6.2630	 2.1510
 6.2700	 2.1510
 6.2780	 2.1590
 6.2850	 2.0560
 6.2930	 2.0590
 6.3010	 2.0660
 6.3080	 2.1860
 6.3160	 2.1430
 6.3240	 2.2660
 6.3310	 2.1440
 6.3390	 2.1880
 6.3470	 2.1010
 6.3550	 2.1390
 6.3620	 2.0330
 6.3700	 2.0600
 6.3780	 2.0210
 6.3860	 2.1880
 6.3940	 2.1770
 6.4020	 2.1770
 6.4100	 2.1500
 6.4180	 2.2960
 6.4260	 2.1520
 6.4330	 2.1890
 6.4410	 2.0610
 6.4490	 1.9600
 6.4580	 1.8580
 6.4660	 2.0610
 6.4740	 2.1940
 6.4820	 2.3390
 6.4900	 2.1120
 6.4980	 2.1030
 6.5060	 2.0920
 6.5140	 2.1410
 6.5230	 2.1370
 6.5310	 2.2440
 6.5390	 2.2440
 6.5470	 2.2520
 6.5550	 2.0690
 6.5640	 2.1280
 6.5720	 2.1130
 6.5800	 2.1620
 6.5890	 2.0560
 6.5970	 2.0730
 6.6060	 1.9940
 6.6140	 2.0450
 6.6220	 1.9900
 6.6310	 2.0670
 6.6390	 1.9340
 6.6480	 2.0150
 6.6560	 2.1020
 6.6650	 2.2520
 6.6740	 2.1140
 6.6820	 2.0920
 6.6910	 1.9640
 6.6990	 1.9710
 6.7080	 1.9130
 6.7170	 2.0030
 6.7260	 1.9590
 6.7340	 2.1230
 6.7430	 1.9560
 6.7520	 1.8870
 6.7610	 1.8800
 6.7690	 2.0150
 6.7780	 2.1030
 6.7870	 2.4220
 6.7960	 2.3670
 6.8050	 2.2910
 6.8140	 2.1310
 6.8230	 2.2410
 6.8320	 2.3560
 6.8410	 2.5470
 6.8500	 2.3050
 6.8590	 2.2130
 6.8680	 2.1320
 6.8770	 2.2160
 6.8860	 2.1450
 6.8950	 2.1880
 6.9050	 2.1880
 6.9140	 2.3040
 6.9230	 2.1920
 6.9320	 2.1850
 6.9420	 2.1350
 6.9510	 2.2440
 6.9600	 2.0830
 6.9700	 2.0750
 6.9790	 2.0590
 6.9880	 2.1070
 6.9980	 2.0460
 7.0070	 2.0940
 7.0170	 2.0020
 7.0260	 2.1500
 7.0360	 2.0300
 7.0450	 2.0290
 7.0550	 2.1210
 7.0650	 2.4170
 7.0740	 2.3610
 7.0840	 2.3050
 7.0940	 2.2640
 7.1030	 2.3950
 7.1130	 2.2690
 7.1230	 2.2890
 7.1330	 2.1800
 7.1420	 2.2240
 7.1520	 2.0790
 7.1620	 2.1550
 7.1720	 2.2030
 7.1820	 2.2200
 7.1920	 2.0560
 7.2020	 2.1370
 7.2120	 2.2100
 7.2220	 2.2890
 7.2320	 2.0450
 7.2420	 2.0820
 7.2520	 2.0980
 7.2620	 2.1220
 7.2730	 2.0020
 7.2830	 2.1100
 7.2930	 2.0960
 7.3030	 2.0940
 7.3140	 1.9460
 7.3240	 2.1160
 7.3340	 2.0700
 7.3450	 2.1750
 7.3550	 2.1100
 7.3660	 2.1720
 7.3760	 2.0820
 7.3870	 2.1240
 7.3970	 2.0510
 7.4080	 2.1170
 7.4180	 2.0730
 7.4290	 2.1940
 7.4400	 1.9960
 7.4500	 2.0440
 7.4610	 2.0500
 7.4720	 2.1490
 7.4830	 2.1120
 7.4930	 2.1380
 7.5040	 1.9470
 7.5150	 1.9570
 7.5260	 1.8900
 7.5370	 2.0970
 7.5480	 2.0580
 7.5590	 2.0130
 7.5700	 1.8890
 7.5810	 1.9770
 7.5920	 1.8460
 7.6030	 1.8920
 7.6140	 1.8280
 7.6260	 1.9070
 7.6370	 1.8070
 7.6480	 1.9180
 7.6590	 1.8340
 7.6710	 1.8440
 7.6820	 1.8890
 7.6930	 2.0800
 7.7050	 2.0090
 7.7160	 2.0310
 7.7280	 1.9960
 7.7390	 1.9790
 7.7510	 1.8420
 7.7630	 1.9610
 7.7740	 1.8660
 7.7860	 1.9790
 7.7980	 2.0200
 7.8090	 2.1120
 7.8210	 2.0280
 7.8330	 2.0770
 7.8450	 1.9730
 7.8570	 2.0190
 7.8690	 1.8290
 7.8810	 1.9150
 7.8930	 1.9460
 7.9050	 2.0270
 7.9170	 1.8330
 7.9290	 1.9640
 7.9410	 1.9750
 7.9530	 2.0230
 7.9650	 1.8630
 7.9780	 1.9000
 7.9900	 1.7500
 8.0020	 1.7490
 8.0150	 1.6580
 8.0270	 1.9160
 8.0390	 1.9700
 8.0520	 2.0120
 8.0640	 1.8710
 8.0770	 2.1500
 8.0900	 2.0430
 8.1020	 2.0240
 8.1150	 1.8500
 8.1280	 2.0520
 8.1400	 1.9930
 8.1530	 2.1750
 8.1660	 2.0900
 8.1790	 1.9310
 8.1920	 1.7460
 8.2050	 2.0390
 8.2180	 1.9730
 8.2310	 1.9480
 8.2440	 1.8030
 8.2570	 1.9030
 8.2700	 1.9480
 8.2830	 2.0730
 8.2970	 1.8750
 8.3100	 1.9950
 8.3230	 1.8330
 8.3370	 1.9490
 8.3500	 1.9750
 8.3640	 2.2000
 8.3770	 2.0450
 8.3910	 2.0480
 8.4040	 1.8860
 8.4180	 2.0910
 8.4320	 2.0630
 8.4450	 2.1200
 8.4590	 1.9210
 8.4730	 1.9280
 8.4870	 1.8640
 8.5010	 2.1000
 8.5150	 2.1460
 8.5290	 2.2590
 8.5430	 2.1030
 8.5570	 2.2390
 8.5710	 2.3410
 8.5850	 2.5920
 8.5990	 2.3700
 8.6140	 2.4400
 8.6280	 2.4220
 8.6420	 2.5120
 8.6570	 2.2730
 8.6710	 2.3590
 8.6860	 2.3710
 8.7000	 2.6570
 8.7150	 2.4650
 8.7300	 2.4460
 8.7440	 2.2140
 8.7590	 2.3990
 8.7740	 2.2850
 8.7890	 2.2700
 8.8040	 2.2390
 8.8190	 2.4840
 8.8340	 2.1870
 8.8490	 2.3120
 8.8640	 2.3240
 8.8790	 2.3360
 8.8940	 2.2180
 8.9100	 2.4810
 8.9250	 2.2230
 8.9400	 2.4240
 8.9560	 2.3630
 8.9710	 2.3230
 8.9870	 2.0740
 9.0020	 2.0820
 9.0180	 1.9100
 9.0340	 2.2710
 9.0500	 2.2670
 9.0650	 2.6380
 9.0810	 2.3990
 9.0970	 2.4320
 9.1130	 2.2050
 9.1290	 2.2950
 9.1450	 2.2240
 9.1610	 2.4290
 9.1780	 2.4160
 9.1940	 2.3050
 9.2100	 1.9030
 9.2270	 2.1250
 9.2430	 2.1670
 9.2600	 2.3950
 9.2760	 2.0930
 9.2930	 2.3130
 9.3090	 2.3190
 9.3260	 2.5430
 9.3430	 2.3800
 9.3600	 2.4650
 9.3770	 2.1090
 9.3940	 2.2750
 9.4110	 2.1300
 9.4280	 2.2810
 9.4450	 2.2310
 9.4620	 2.4380
 9.4800	 2.4420
 9.4970	 2.6440
 9.5140	 2.3220
 9.5320	 2.3920
 9.5500	 2.2120
 9.5670	 2.4480
 9.5850	 2.2500
 9.6030	 2.3760
 9.6200	 2.1760
 9.6380	 2.2960
 9.6560	 2.1040
 9.6740	 2.3000
 9.6920	 2.2490
 9.7100	 2.4640
 9.7290	 2.1920
 9.7470	 2.2720
 9.7650	 2.2460
 9.7840	 2.4350
 9.8020	 2.2250
 9.8210	 2.2650
 9.8390	 2.0950
 9.8580	 2.3150
 9.8770	 2.3110
 9.8960	 2.5260
 9.9150	 2.3750
 9.9340	 2.3980
 9.9530	 2.2150
 9.9720	 2.3790
 9.9910	 2.1630
10.0100	 2.4300
10.0300	 2.3410
10.0490	 2.3360
10.0690	 2.2090
10.0880	 2.3410
10.1080	 2.0470
10.1280	 2.2740
10.1480	 2.3110
10.1670	 2.4090
10.1870	 2.3220
10.2070	 2.4690
10.2280	 2.1380
10.2480	 2.3630
10.2680	 2.3590
10.2890	 2.5520
10.3090	 2.3780
10.3300	 2.5450
10.3500	 2.2760
10.3710	 2.3840
10.3920	 2.1670
10.4120	 2.3050
10.4330	 2.2080
10.4540	 2.4500
10.4760	 2.3310
10.4970	 2.5940
10.5180	 2.4550
10.5390	 2.4130
10.5610	 2.1540
10.5820	 2.3450
10.6040	 2.3590
10.6260	 2.5210
10.6480	 2.3480
10.6700	 2.4310
10.6920	 2.2730
10.7140	 2.4490
10.7360	 2.3300
10.7580	 2.3650
10.7800	 2.0510
10.8030	 2.2770
10.8250	 2.2980
10.8480	 2.5830
10.8710	 2.4610
10.8940	 2.5130
10.9170	 2.2180
10.9400	 2.3580
10.9630	 2.1980
10.9860	 2.2860
11.0090	 1.9980
11.0330	 2.3660
11.0560	 2.2620
11.0800	 2.3130
11.1040	 2.0870
11.1270	 2.2930
11.1510	 1.9550
11.1750	 2.1810
11.2000	 2.1220
11.2240	 2.3210
11.2480	 2.1600
11.2730	 2.4510
11.2970	 2.3380
11.3220	 2.3130
11.3470	 2.0050
11.3720	 2.2300
11.3970	 2.1750
11.4220	 2.3730
11.4470	 1.9060
11.4720	 1.6910
11.4980	 1.7060
11.5230	 2.3600
11.5490	 2.3160
11.5750	 2.3340
11.6000	 2.0880
11.6260	 2.5250
11.6530	 2.4850
11.6790	 2.6230
11.7050	 2.3890
11.7320	 2.6890
11.7580	 2.3590
11.7850	 2.3620
11.8120	 2.1510
11.8390	 2.2850
11.8660	 2.0220
11.8930	 2.2900
11.9200	 2.0920
11.9480	 2.3060
11.9760	 2.2280
12.0030	 2.5450
12.0310	 2.3840
12.0590	 2.5630
12.0870	 2.3620
12.1150	 2.2590
12.1440	 1.8150
12.1720	 2.2490
12.2010	 2.2580
12.2300	 2.4820
12.2590	 2.0560
12.2880	 2.2270
12.3170	 2.1590
12.3460	 2.3660
12.3760	 1.9630
12.4050	 2.0560
12.4350	 1.7740
12.4650	 1.9560
12.4950	 1.7900
12.5250	 2.3750
12.5550	 2.3460
12.5860	 2.5780
12.6170	 2.3550
12.6470	 2.4520
12.6780	 2.2130
12.7090	 2.4000
12.7410	 2.0970
12.7720	 2.2750
12.8030	 2.1720
12.8350	 2.7080
12.8670	 2.6200
12.8990	 2.6570
12.9310	 2.0710
12.9640	 2.2720
12.9960	 2.1180
13.0290	 2.5260
13.0610	 2.6680
13.0940	 2.8870
13.1280	 2.2140
13.1610	 2.3070
13.1940	 2.2900
13.2280	 2.6990
13.2620	 2.3840
13.2960	 2.5880
13.3300	 2.3040
13.3640	 2.5500
13.3990	 2.1740
13.4340	 2.3800
13.4690	 2.0430
13.5040	 2.3880
13.5390	 2.1860
13.5740	 2.5680
13.6100	 2.1990
13.6460	 2.4570
13.6820	 2.4820
13.7180	 3.0920
13.7540	 2.1530
13.7910	 2.3920
13.8280	 2.4540
13.8650	 2.6230
13.9020	 2.1510
13.9390	 2.5220
13.9770	 2.3700
14.0150	 2.5800
14.0530	 2.2930
14.0910	 2.7930
14.1290	 2.7440
14.1680	 3.0940
14.2070	 2.7430
14.2460	 3.0940
14.2850	 2.3500
14.3240	 2.7650
14.3640	 2.6710
14.4040	 3.1580
14.4440	 2.8860
14.4840	 3.1440
14.5250	 2.2080
14.5660	 2.6740
14.6070	 2.3220
14.6480	 3.1230
14.6900	 2.7540
14.7310	 3.0270
14.7730	 2.7560
14.8150	 3.4030
14.8580	 2.6720
14.9010	 3.5050
14.9440	 4.6530
14.9870	 6.0270
15.0300	 3.0690
15.0740	 2.8430
15.1180	 2.1580
15.1620	 2.9970
15.2060	 2.9860
15.2510	 3.8110
15.2960	 2.7290
15.3410	 2.8620
15.3870	 2.2420
