Name: Calocedrus decrruens 3
Type: vegetation
Class: Tree
Genus: Calocedrus
Species: decurrens
Sample No.: VH060
Owner: UCSB
Wavelength Range: VSWIR
Origin: 37.0443; -119.3026; WGS84
Collection Date: 4/20/2013
Description: Samples were collected as part of the HyspIRI Airborne Campaign. 48 individual plants were sampled in three times in 2013 - spring  summer  and fall. The name of the sample includes a 1  2  or 3 which references a different individual of the species. Samples were taken to JPL and processed within 48 hours of collection. The same leaves were processed in the Nicolet and then measured using the ASD.
Measurement: Bidirectional reflectance
First Column: X
Second Column: Y
X Units: Wavelength (micrometers)
Y Units: Reflectance (percentage)
First X Value: 0.35
Last X Value: 2.5
Number of X Values: 2151
Additional Information: vegetation.tree.calocedrus.decurrens.vswir.vh060.ucsb.asd.ancillary.txt

 0.3500	 4.3550
 0.3510	 4.3100
 0.3520	 4.2790
 0.3530	 4.1860
 0.3540	 4.0220
 0.3550	 4.0560
 0.3560	 4.0100
 0.3570	 3.9440
 0.3580	 4.0390
 0.3590	 3.9660
 0.3600	 3.9620
 0.3610	 4.0750
 0.3620	 4.0160
 0.3630	 3.9830
 0.3640	 3.9720
 0.3650	 3.9420
 0.3660	 3.9060
 0.3670	 3.9010
 0.3680	 3.9350
 0.3690	 3.9850
 0.3700	 3.8970
 0.3710	 3.8700
 0.3720	 3.9730
 0.3730	 3.9610
 0.3740	 3.8640
 0.3750	 3.7930
 0.3760	 3.8270
 0.3770	 3.7730
 0.3780	 3.7830
 0.3790	 3.8530
 0.3800	 3.8490
 0.3810	 3.8540
 0.3820	 3.8140
 0.3830	 3.7330
 0.3840	 3.7940
 0.3850	 3.7560
 0.3860	 3.7050
 0.3870	 3.7900
 0.3880	 3.7760
 0.3890	 3.7770
 0.3900	 3.8210
 0.3910	 3.8330
 0.3920	 3.8180
 0.3930	 3.8130
 0.3940	 3.8320
 0.3950	 3.8150
 0.3960	 3.8020
 0.3970	 3.8030
 0.3980	 3.8080
 0.3990	 3.7900
 0.4000	 3.8050
 0.4010	 3.8540
 0.4020	 3.8590
 0.4030	 3.8890
 0.4040	 3.9250
 0.4050	 3.9390
 0.4060	 3.9420
 0.4070	 3.9550
 0.4080	 3.9780
 0.4090	 3.9950
 0.4100	 4.0050
 0.4110	 4.0400
 0.4120	 4.0970
 0.4130	 4.0980
 0.4140	 4.1090
 0.4150	 4.1330
 0.4160	 4.1590
 0.4170	 4.2080
 0.4180	 4.2430
 0.4190	 4.2620
 0.4200	 4.2950
 0.4210	 4.3130
 0.4220	 4.3240
 0.4230	 4.3450
 0.4240	 4.3900
 0.4250	 4.4190
 0.4260	 4.4330
 0.4270	 4.4530
 0.4280	 4.4800
 0.4290	 4.5080
 0.4300	 4.5300
 0.4310	 4.5370
 0.4320	 4.5580
 0.4330	 4.5880
 0.4340	 4.6120
 0.4350	 4.6370
 0.4360	 4.6610
 0.4370	 4.6830
 0.4380	 4.7020
 0.4390	 4.7210
 0.4400	 4.7440
 0.4410	 4.7730
 0.4420	 4.7940
 0.4430	 4.8140
 0.4440	 4.8350
 0.4450	 4.8570
 0.4460	 4.8770
 0.4470	 4.9070
 0.4480	 4.9400
 0.4490	 4.9390
 0.4500	 4.9590
 0.4510	 4.9890
 0.4520	 5.0120
 0.4530	 5.0440
 0.4540	 5.0650
 0.4550	 5.0800
 0.4560	 5.1070
 0.4570	 5.1230
 0.4580	 5.1360
 0.4590	 5.1500
 0.4600	 5.1620
 0.4610	 5.1850
 0.4620	 5.2020
 0.4630	 5.1950
 0.4640	 5.2130
 0.4650	 5.2290
 0.4660	 5.2370
 0.4670	 5.2560
 0.4680	 5.2670
 0.4690	 5.2720
 0.4700	 5.2740
 0.4710	 5.2720
 0.4720	 5.2730
 0.4730	 5.2800
 0.4740	 5.2940
 0.4750	 5.3040
 0.4760	 5.3050
 0.4770	 5.3030
 0.4780	 5.3120
 0.4790	 5.3160
 0.4800	 5.3150
 0.4810	 5.3170
 0.4820	 5.3170
 0.4830	 5.3180
 0.4840	 5.3250
 0.4850	 5.3450
 0.4860	 5.3650
 0.4870	 5.3830
 0.4880	 5.3980
 0.4890	 5.4050
 0.4900	 5.4210
 0.4910	 5.4470
 0.4920	 5.4770
 0.4930	 5.5100
 0.4940	 5.5420
 0.4950	 5.5720
 0.4960	 5.6110
 0.4970	 5.6640
 0.4980	 5.7180
 0.4990	 5.7670
 0.5000	 5.8250
 0.5010	 5.8860
 0.5020	 5.9530
 0.5030	 6.0310
 0.5040	 6.1210
 0.5050	 6.2140
 0.5060	 6.3090
 0.5070	 6.4290
 0.5080	 6.5520
 0.5090	 6.6820
 0.5100	 6.8340
 0.5110	 6.9910
 0.5120	 7.1570
 0.5130	 7.3370
 0.5140	 7.5270
 0.5150	 7.7260
 0.5160	 7.9370
 0.5170	 8.1610
 0.5180	 8.3930
 0.5190	 8.6280
 0.5200	 8.8710
 0.5210	 9.1340
 0.5220	 9.3880
 0.5230	 9.6350
 0.5240	 9.8820
 0.5250	10.1210
 0.5260	10.3610
 0.5270	10.5940
 0.5280	10.8100
 0.5290	11.0170
 0.5300	11.2100
 0.5310	11.3900
 0.5320	11.5610
 0.5330	11.7300
 0.5340	11.8860
 0.5350	12.0210
 0.5360	12.1460
 0.5370	12.2610
 0.5380	12.3670
 0.5390	12.4630
 0.5400	12.5600
 0.5410	12.6550
 0.5420	12.7420
 0.5430	12.8230
 0.5440	12.8970
 0.5450	12.9680
 0.5460	13.0380
 0.5470	13.0950
 0.5480	13.1480
 0.5490	13.1990
 0.5500	13.2450
 0.5510	13.2800
 0.5520	13.3020
 0.5530	13.3110
 0.5540	13.3030
 0.5550	13.2800
 0.5560	13.2430
 0.5570	13.1900
 0.5580	13.1260
 0.5590	13.0470
 0.5600	12.9550
 0.5610	12.8640
 0.5620	12.7570
 0.5630	12.6360
 0.5640	12.5110
 0.5650	12.3730
 0.5660	12.2320
 0.5670	12.0900
 0.5680	11.9370
 0.5690	11.7790
 0.5700	11.6210
 0.5710	11.4680
 0.5720	11.3090
 0.5730	11.1530
 0.5740	11.0040
 0.5750	10.8680
 0.5760	10.7470
 0.5770	10.6330
 0.5780	10.5210
 0.5790	10.4230
 0.5800	10.3270
 0.5810	10.2320
 0.5820	10.1420
 0.5830	10.0550
 0.5840	 9.9730
 0.5850	 9.9010
 0.5860	 9.8410
 0.5870	 9.7830
 0.5880	 9.7250
 0.5890	 9.6710
 0.5900	 9.6240
 0.5910	 9.5800
 0.5920	 9.5390
 0.5930	 9.5030
 0.5940	 9.4700
 0.5950	 9.4390
 0.5960	 9.4120
 0.5970	 9.3820
 0.5980	 9.3570
 0.5990	 9.3320
 0.6000	 9.3010
 0.6010	 9.2610
 0.6020	 9.2180
 0.6030	 9.1710
 0.6040	 9.1160
 0.6050	 9.0570
 0.6060	 8.9920
 0.6070	 8.9190
 0.6080	 8.8370
 0.6090	 8.7550
 0.6100	 8.6760
 0.6110	 8.6000
 0.6120	 8.5170
 0.6130	 8.4290
 0.6140	 8.3430
 0.6150	 8.2620
 0.6160	 8.1840
 0.6170	 8.1120
 0.6180	 8.0470
 0.6190	 7.9840
 0.6200	 7.9320
 0.6210	 7.8920
 0.6220	 7.8540
 0.6230	 7.8150
 0.6240	 7.7810
 0.6250	 7.7580
 0.6260	 7.7390
 0.6270	 7.7280
 0.6280	 7.7190
 0.6290	 7.7090
 0.6300	 7.7080
 0.6310	 7.7040
 0.6320	 7.6940
 0.6330	 7.6810
 0.6340	 7.6590
 0.6350	 7.6280
 0.6360	 7.5910
 0.6370	 7.5460
 0.6380	 7.4940
 0.6390	 7.4360
 0.6400	 7.3680
 0.6410	 7.2920
 0.6420	 7.2090
 0.6430	 7.1230
 0.6440	 7.0340
 0.6450	 6.9430
 0.6460	 6.8530
 0.6470	 6.7690
 0.6480	 6.6890
 0.6490	 6.6220
 0.6500	 6.5670
 0.6510	 6.5170
 0.6520	 6.4710
 0.6530	 6.4270
 0.6540	 6.3850
 0.6550	 6.3420
 0.6560	 6.2930
 0.6570	 6.2370
 0.6580	 6.1770
 0.6590	 6.1090
 0.6600	 6.0380
 0.6610	 5.9670
 0.6620	 5.8940
 0.6630	 5.8270
 0.6640	 5.7680
 0.6650	 5.7170
 0.6660	 5.6690
 0.6670	 5.6270
 0.6680	 5.5920
 0.6690	 5.5650
 0.6700	 5.5450
 0.6710	 5.5300
 0.6720	 5.5220
 0.6730	 5.5240
 0.6740	 5.5250
 0.6750	 5.5270
 0.6760	 5.5360
 0.6770	 5.5550
 0.6780	 5.5760
 0.6790	 5.6000
 0.6800	 5.6330
 0.6810	 5.6740
 0.6820	 5.7240
 0.6830	 5.7860
 0.6840	 5.8630
 0.6850	 5.9550
 0.6860	 6.0710
 0.6870	 6.2210
 0.6880	 6.4070
 0.6890	 6.6400
 0.6900	 6.9300
 0.6910	 7.2790
 0.6920	 7.6970
 0.6930	 8.1860
 0.6940	 8.7480
 0.6950	 9.3800
 0.6960	10.0760
 0.6970	10.8310
 0.6980	11.6390
 0.6990	12.4940
 0.7000	13.3930
 0.7010	14.3260
 0.7020	15.2850
 0.7030	16.2680
 0.7040	17.2690
 0.7050	18.2820
 0.7060	19.2970
 0.7070	20.3230
 0.7080	21.3590
 0.7090	22.4000
 0.7100	23.4440
 0.7110	24.4960
 0.7120	25.5570
 0.7130	26.6190
 0.7140	27.6880
 0.7150	28.7640
 0.7160	29.8390
 0.7170	30.9160
 0.7180	31.9870
 0.7190	33.0560
 0.7200	34.1290
 0.7210	35.1950
 0.7220	36.2510
 0.7230	37.2930
 0.7240	38.3140
 0.7250	39.3190
 0.7260	40.3030
 0.7270	41.2630
 0.7280	42.1950
 0.7290	43.0960
 0.7300	43.9660
 0.7310	44.8050
 0.7320	45.6070
 0.7330	46.3810
 0.7340	47.1260
 0.7350	47.8220
 0.7360	48.4890
 0.7370	49.1270
 0.7380	49.7310
 0.7390	50.3010
 0.7400	50.8380
 0.7410	51.3420
 0.7420	51.8110
 0.7430	52.2560
 0.7440	52.6800
 0.7450	53.0750
 0.7460	53.4230
 0.7470	53.7590
 0.7480	54.0710
 0.7490	54.3490
 0.7500	54.6110
 0.7510	54.8520
 0.7520	55.0720
 0.7530	55.2740
 0.7540	55.4570
 0.7550	55.6290
 0.7560	55.7850
 0.7570	55.9180
 0.7580	56.0500
 0.7590	56.1720
 0.7600	56.2770
 0.7610	56.3700
 0.7620	56.4660
 0.7630	56.5550
 0.7640	56.6270
 0.7650	56.6980
 0.7660	56.7620
 0.7670	56.8180
 0.7680	56.8670
 0.7690	56.9190
 0.7700	56.9680
 0.7710	57.0130
 0.7720	57.0600
 0.7730	57.0960
 0.7740	57.1280
 0.7750	57.1620
 0.7760	57.1880
 0.7770	57.2230
 0.7780	57.2610
 0.7790	57.2890
 0.7800	57.3180
 0.7810	57.3470
 0.7820	57.3730
 0.7830	57.3950
 0.7840	57.4220
 0.7850	57.4470
 0.7860	57.4670
 0.7870	57.4960
 0.7880	57.5200
 0.7890	57.5390
 0.7900	57.5580
 0.7910	57.5710
 0.7920	57.5960
 0.7930	57.6230
 0.7940	57.6300
 0.7950	57.6430
 0.7960	57.6610
 0.7970	57.6810
 0.7980	57.7030
 0.7990	57.7110
 0.8000	57.7200
 0.8010	57.7410
 0.8020	57.7560
 0.8030	57.7690
 0.8040	57.7770
 0.8050	57.7800
 0.8060	57.8000
 0.8070	57.8110
 0.8080	57.8120
 0.8090	57.8220
 0.8100	57.8320
 0.8110	57.8430
 0.8120	57.8520
 0.8130	57.8540
 0.8140	57.8590
 0.8150	57.8660
 0.8160	57.8730
 0.8170	57.8870
 0.8180	57.8900
 0.8190	57.8900
 0.8200	57.9060
 0.8210	57.9120
 0.8220	57.9150
 0.8230	57.9200
 0.8240	57.9270
 0.8250	57.9270
 0.8260	57.9220
 0.8270	57.9200
 0.8280	57.9340
 0.8290	57.9330
 0.8300	57.9250
 0.8310	57.9220
 0.8320	57.9270
 0.8330	57.9280
 0.8340	57.9260
 0.8350	57.9290
 0.8360	57.9330
 0.8370	57.9440
 0.8380	57.9590
 0.8390	57.9640
 0.8400	57.9740
 0.8410	57.9840
 0.8420	57.9910
 0.8430	57.9970
 0.8440	58.0120
 0.8450	58.0320
 0.8460	58.0470
 0.8470	58.0490
 0.8480	58.0560
 0.8490	58.0710
 0.8500	58.0900
 0.8510	58.1050
 0.8520	58.1160
 0.8530	58.1250
 0.8540	58.1390
 0.8550	58.1470
 0.8560	58.1550
 0.8570	58.1680
 0.8580	58.1880
 0.8590	58.2010
 0.8600	58.2120
 0.8610	58.2240
 0.8620	58.2350
 0.8630	58.2430
 0.8640	58.2520
 0.8650	58.2630
 0.8660	58.2680
 0.8670	58.2780
 0.8680	58.2910
 0.8690	58.3020
 0.8700	58.3130
 0.8710	58.3210
 0.8720	58.3290
 0.8730	58.3400
 0.8740	58.3510
 0.8750	58.3580
 0.8760	58.3610
 0.8770	58.3640
 0.8780	58.3680
 0.8790	58.3740
 0.8800	58.3820
 0.8810	58.3930
 0.8820	58.3950
 0.8830	58.3960
 0.8840	58.4000
 0.8850	58.3960
 0.8860	58.3980
 0.8870	58.4010
 0.8880	58.3980
 0.8890	58.4100
 0.8900	58.4080
 0.8910	58.3980
 0.8920	58.3950
 0.8930	58.3930
 0.8940	58.3920
 0.8950	58.3940
 0.8960	58.4000
 0.8970	58.4000
 0.8980	58.3930
 0.8990	58.3850
 0.9000	58.3890
 0.9010	58.3790
 0.9020	58.3670
 0.9030	58.3620
 0.9040	58.3630
 0.9050	58.3590
 0.9060	58.3540
 0.9070	58.3520
 0.9080	58.3500
 0.9090	58.3330
 0.9100	58.3190
 0.9110	58.3260
 0.9120	58.3300
 0.9130	58.3140
 0.9140	58.2920
 0.9150	58.2800
 0.9160	58.2780
 0.9170	58.2750
 0.9180	58.2660
 0.9190	58.2500
 0.9200	58.2370
 0.9210	58.2190
 0.9220	58.1990
 0.9230	58.1790
 0.9240	58.1600
 0.9250	58.1360
 0.9260	58.1160
 0.9270	58.1100
 0.9280	58.0830
 0.9290	58.0500
 0.9300	58.0200
 0.9310	57.9920
 0.9320	57.9510
 0.9330	57.9020
 0.9340	57.8570
 0.9350	57.8280
 0.9360	57.7930
 0.9370	57.7390
 0.9380	57.6730
 0.9390	57.6190
 0.9400	57.5670
 0.9410	57.5150
 0.9420	57.4600
 0.9430	57.4000
 0.9440	57.3180
 0.9450	57.2270
 0.9460	57.1390
 0.9470	57.0510
 0.9480	56.9600
 0.9490	56.8430
 0.9500	56.6970
 0.9510	56.5730
 0.9520	56.4600
 0.9530	56.3320
 0.9540	56.1770
 0.9550	56.0190
 0.9560	55.8730
 0.9570	55.7390
 0.9580	55.6150
 0.9590	55.5150
 0.9600	55.4090
 0.9610	55.3030
 0.9620	55.2150
 0.9630	55.1380
 0.9640	55.0630
 0.9650	54.9970
 0.9660	54.9470
 0.9670	54.8910
 0.9680	54.8390
 0.9690	54.8000
 0.9700	54.7730
 0.9710	54.7300
 0.9720	54.7050
 0.9730	54.6850
 0.9740	54.6500
 0.9750	54.6230
 0.9760	54.6100
 0.9770	54.6020
 0.9780	54.5870
 0.9790	54.5830
 0.9800	54.5820
 0.9810	54.5900
 0.9820	54.6100
 0.9830	54.6230
 0.9840	54.6400
 0.9850	54.6620
 0.9860	54.6840
 0.9870	54.7000
 0.9880	54.7280
 0.9890	54.7720
 0.9900	54.8200
 0.9910	54.8540
 0.9920	54.9700
 0.9930	55.0860
 0.9940	55.2020
 0.9950	55.3180
 0.9960	55.4340
 0.9970	55.5500
 0.9980	55.6660
 0.9990	55.7820
 1.0000	55.8980
 1.0010	56.0140
 1.0020	56.1300
 1.0030	56.2460
 1.0040	56.3620
 1.0050	56.4780
 1.0060	56.5940
 1.0070	56.7100
 1.0080	56.8260
 1.0090	56.9420
 1.0100	56.9420
 1.0110	57.0020
 1.0120	57.0660
 1.0130	57.1270
 1.0140	57.1900
 1.0150	57.2560
 1.0160	57.3230
 1.0170	57.3870
 1.0180	57.4440
 1.0190	57.5050
 1.0200	57.5720
 1.0210	57.6350
 1.0220	57.6990
 1.0230	57.7630
 1.0240	57.8240
 1.0250	57.8850
 1.0260	57.9480
 1.0270	58.0090
 1.0280	58.0670
 1.0290	58.1260
 1.0300	58.1880
 1.0310	58.2470
 1.0320	58.3020
 1.0330	58.3600
 1.0340	58.4190
 1.0350	58.4780
 1.0360	58.5400
 1.0370	58.5930
 1.0380	58.6480
 1.0390	58.7030
 1.0400	58.7550
 1.0410	58.8060
 1.0420	58.8560
 1.0430	58.9040
 1.0440	58.9510
 1.0450	58.9970
 1.0460	59.0440
 1.0470	59.0910
 1.0480	59.1340
 1.0490	59.1780
 1.0500	59.2190
 1.0510	59.2520
 1.0520	59.2890
 1.0530	59.3240
 1.0540	59.3590
 1.0550	59.3930
 1.0560	59.4250
 1.0570	59.4590
 1.0580	59.4940
 1.0590	59.5250
 1.0600	59.5540
 1.0610	59.5810
 1.0620	59.6040
 1.0630	59.6260
 1.0640	59.6450
 1.0650	59.6650
 1.0660	59.6840
 1.0670	59.7010
 1.0680	59.7180
 1.0690	59.7360
 1.0700	59.7510
 1.0710	59.7620
 1.0720	59.7750
 1.0730	59.7870
 1.0740	59.7970
 1.0750	59.8100
 1.0760	59.8150
 1.0770	59.8130
 1.0780	59.8130
 1.0790	59.8080
 1.0800	59.8070
 1.0810	59.8100
 1.0820	59.8090
 1.0830	59.8070
 1.0840	59.8030
 1.0850	59.7970
 1.0860	59.7900
 1.0870	59.7810
 1.0880	59.7700
 1.0890	59.7580
 1.0900	59.7430
 1.0910	59.7280
 1.0920	59.7150
 1.0930	59.6960
 1.0940	59.6730
 1.0950	59.6520
 1.0960	59.6300
 1.0970	59.6070
 1.0980	59.5870
 1.0990	59.5640
 1.1000	59.5350
 1.1010	59.5090
 1.1020	59.4860
 1.1030	59.4580
 1.1040	59.4280
 1.1050	59.3970
 1.1060	59.3670
 1.1070	59.3350
 1.1080	59.3030
 1.1090	59.2740
 1.1100	59.2400
 1.1110	59.2050
 1.1120	59.1670
 1.1130	59.1300
 1.1140	59.0860
 1.1150	59.0380
 1.1160	58.9870
 1.1170	58.9320
 1.1180	58.8730
 1.1190	58.8150
 1.1200	58.7460
 1.1210	58.6710
 1.1220	58.5890
 1.1230	58.4910
 1.1240	58.3860
 1.1250	58.2660
 1.1260	58.1340
 1.1270	57.9880
 1.1280	57.8310
 1.1290	57.6580
 1.1300	57.4730
 1.1310	57.2690
 1.1320	57.0490
 1.1330	56.8120
 1.1340	56.5580
 1.1350	56.2890
 1.1360	56.0040
 1.1370	55.7060
 1.1380	55.4000
 1.1390	55.0850
 1.1400	54.7600
 1.1410	54.4310
 1.1420	54.0980
 1.1430	53.7620
 1.1440	53.4310
 1.1450	53.0970
 1.1460	52.7760
 1.1470	52.4550
 1.1480	52.1520
 1.1490	51.8560
 1.1500	51.5790
 1.1510	51.3140
 1.1520	51.0650
 1.1530	50.8340
 1.1540	50.6180
 1.1550	50.4170
 1.1560	50.2310
 1.1570	50.0610
 1.1580	49.9040
 1.1590	49.7610
 1.1600	49.6310
 1.1610	49.5140
 1.1620	49.4050
 1.1630	49.3040
 1.1640	49.2130
 1.1650	49.1280
 1.1660	49.0510
 1.1670	48.9780
 1.1680	48.9140
 1.1690	48.8500
 1.1700	48.7890
 1.1710	48.7300
 1.1720	48.6760
 1.1730	48.6190
 1.1740	48.5610
 1.1750	48.5060
 1.1760	48.4490
 1.1770	48.3890
 1.1780	48.3260
 1.1790	48.2650
 1.1800	48.1990
 1.1810	48.1310
 1.1820	48.0650
 1.1830	47.9990
 1.1840	47.9340
 1.1850	47.8710
 1.1860	47.8100
 1.1870	47.7510
 1.1880	47.6930
 1.1890	47.6360
 1.1900	47.5820
 1.1910	47.5290
 1.1920	47.4810
 1.1930	47.4370
 1.1940	47.3960
 1.1950	47.3600
 1.1960	47.3270
 1.1970	47.3010
 1.1980	47.2790
 1.1990	47.2670
 1.2000	47.2610
 1.2010	47.2590
 1.2020	47.2650
 1.2030	47.2750
 1.2040	47.2920
 1.2050	47.3170
 1.2060	47.3480
 1.2070	47.3860
 1.2080	47.4330
 1.2090	47.4840
 1.2100	47.5430
 1.2110	47.6070
 1.2120	47.6790
 1.2130	47.7540
 1.2140	47.8340
 1.2150	47.9190
 1.2160	48.0090
 1.2170	48.1010
 1.2180	48.1980
 1.2190	48.3000
 1.2200	48.3990
 1.2210	48.5000
 1.2220	48.6050
 1.2230	48.7090
 1.2240	48.8160
 1.2250	48.9240
 1.2260	49.0290
 1.2270	49.1310
 1.2280	49.2290
 1.2290	49.3230
 1.2300	49.4150
 1.2310	49.5040
 1.2320	49.5890
 1.2330	49.6710
 1.2340	49.7520
 1.2350	49.8290
 1.2360	49.9050
 1.2370	49.9810
 1.2380	50.0540
 1.2390	50.1220
 1.2400	50.1870
 1.2410	50.2480
 1.2420	50.3080
 1.2430	50.3670
 1.2440	50.4260
 1.2450	50.4830
 1.2460	50.5390
 1.2470	50.5920
 1.2480	50.6430
 1.2490	50.6890
 1.2500	50.7340
 1.2510	50.7790
 1.2520	50.8220
 1.2530	50.8620
 1.2540	50.9020
 1.2550	50.9400
 1.2560	50.9770
 1.2570	51.0090
 1.2580	51.0400
 1.2590	51.0680
 1.2600	51.0930
 1.2610	51.1150
 1.2620	51.1350
 1.2630	51.1530
 1.2640	51.1680
 1.2650	51.1800
 1.2660	51.1940
 1.2670	51.2050
 1.2680	51.2160
 1.2690	51.2260
 1.2700	51.2310
 1.2710	51.2360
 1.2720	51.2360
 1.2730	51.2330
 1.2740	51.2300
 1.2750	51.2250
 1.2760	51.2200
 1.2770	51.2130
 1.2780	51.2030
 1.2790	51.1900
 1.2800	51.1690
 1.2810	51.1440
 1.2820	51.1200
 1.2830	51.0920
 1.2840	51.0610
 1.2850	51.0290
 1.2860	50.9920
 1.2870	50.9490
 1.2880	50.9010
 1.2890	50.8500
 1.2900	50.7950
 1.2910	50.7370
 1.2920	50.6750
 1.2930	50.6100
 1.2940	50.5400
 1.2950	50.4630
 1.2960	50.3800
 1.2970	50.2910
 1.2980	50.1970
 1.2990	50.0980
 1.3000	49.9950
 1.3010	49.8920
 1.3020	49.7810
 1.3030	49.6620
 1.3040	49.5410
 1.3050	49.4130
 1.3060	49.2790
 1.3070	49.1410
 1.3080	48.9970
 1.3090	48.8460
 1.3100	48.6910
 1.3110	48.5310
 1.3120	48.3640
 1.3130	48.1910
 1.3140	48.0140
 1.3150	47.8300
 1.3160	47.6430
 1.3170	47.4530
 1.3180	47.2580
 1.3190	47.0580
 1.3200	46.8510
 1.3210	46.6390
 1.3220	46.4240
 1.3230	46.2020
 1.3240	45.9770
 1.3250	45.7510
 1.3260	45.5220
 1.3270	45.2890
 1.3280	45.0550
 1.3290	44.8170
 1.3300	44.5750
 1.3310	44.3330
 1.3320	44.0910
 1.3330	43.8480
 1.3340	43.6040
 1.3350	43.3630
 1.3360	43.1230
 1.3370	42.8830
 1.3380	42.6460
 1.3390	42.4110
 1.3400	42.1760
 1.3410	41.9480
 1.3420	41.7220
 1.3430	41.4980
 1.3440	41.2770
 1.3450	41.0590
 1.3460	40.8430
 1.3470	40.6330
 1.3480	40.4260
 1.3490	40.2240
 1.3500	40.0280
 1.3510	39.8330
 1.3520	39.6400
 1.3530	39.4480
 1.3540	39.2560
 1.3550	39.0660
 1.3560	38.8760
 1.3570	38.6840
 1.3580	38.4910
 1.3590	38.2930
 1.3600	38.0920
 1.3610	37.8890
 1.3620	37.6790
 1.3630	37.4630
 1.3640	37.2400
 1.3650	37.0060
 1.3660	36.7680
 1.3670	36.5200
 1.3680	36.2590
 1.3690	35.9880
 1.3700	35.6980
 1.3710	35.3940
 1.3720	35.0770
 1.3730	34.7390
 1.3740	34.3870
 1.3750	34.0150
 1.3760	33.6190
 1.3770	33.2050
 1.3780	32.7640
 1.3790	32.3000
 1.3800	31.8140
 1.3810	31.3030
 1.3820	30.7780
 1.3830	30.2350
 1.3840	29.6780
 1.3850	29.1030
 1.3860	28.5200
 1.3870	27.9180
 1.3880	27.3200
 1.3890	26.7140
 1.3900	26.1050
 1.3910	25.5030
 1.3920	24.9030
 1.3930	24.3050
 1.3940	23.7180
 1.3950	23.1350
 1.3960	22.5670
 1.3970	22.0140
 1.3980	21.4770
 1.3990	20.9630
 1.4000	20.4670
 1.4010	19.9860
 1.4020	19.5270
 1.4030	19.0850
 1.4040	18.6640
 1.4050	18.2660
 1.4060	17.8860
 1.4070	17.5310
 1.4080	17.1960
 1.4090	16.8790
 1.4100	16.5830
 1.4110	16.3030
 1.4120	16.0420
 1.4130	15.7990
 1.4140	15.5710
 1.4150	15.3610
 1.4160	15.1650
 1.4170	14.9810
 1.4180	14.8120
 1.4190	14.6540
 1.4200	14.5060
 1.4210	14.3690
 1.4220	14.2420
 1.4230	14.1260
 1.4240	14.0180
 1.4250	13.9180
 1.4260	13.8270
 1.4270	13.7410
 1.4280	13.6600
 1.4290	13.5860
 1.4300	13.5200
 1.4310	13.4600
 1.4320	13.4070
 1.4330	13.3580
 1.4340	13.3140
 1.4350	13.2750
 1.4360	13.2410
 1.4370	13.2130
 1.4380	13.1880
 1.4390	13.1670
 1.4400	13.1490
 1.4410	13.1340
 1.4420	13.1220
 1.4430	13.1130
 1.4440	13.1080
 1.4450	13.1040
 1.4460	13.1040
 1.4470	13.1060
 1.4480	13.1080
 1.4490	13.1130
 1.4500	13.1190
 1.4510	13.1270
 1.4520	13.1380
 1.4530	13.1490
 1.4540	13.1610
 1.4550	13.1770
 1.4560	13.1930
 1.4570	13.2130
 1.4580	13.2370
 1.4590	13.2610
 1.4600	13.2890
 1.4610	13.3190
 1.4620	13.3530
 1.4630	13.3930
 1.4640	13.4360
 1.4650	13.4830
 1.4660	13.5340
 1.4670	13.5880
 1.4680	13.6460
 1.4690	13.7070
 1.4700	13.7710
 1.4710	13.8390
 1.4720	13.9110
 1.4730	13.9870
 1.4740	14.0660
 1.4750	14.1470
 1.4760	14.2320
 1.4770	14.3190
 1.4780	14.4080
 1.4790	14.4990
 1.4800	14.5920
 1.4810	14.6860
 1.4820	14.7820
 1.4830	14.8780
 1.4840	14.9780
 1.4850	15.0780
 1.4860	15.1800
 1.4870	15.2860
 1.4880	15.3890
 1.4890	15.4930
 1.4900	15.5980
 1.4910	15.7030
 1.4920	15.8100
 1.4930	15.9190
 1.4940	16.0280
 1.4950	16.1390
 1.4960	16.2490
 1.4970	16.3580
 1.4980	16.4690
 1.4990	16.5800
 1.5000	16.6920
 1.5010	16.8060
 1.5020	16.9180
 1.5030	17.0320
 1.5040	17.1450
 1.5050	17.2570
 1.5060	17.3710
 1.5070	17.4840
 1.5080	17.5970
 1.5090	17.7100
 1.5100	17.8230
 1.5110	17.9350
 1.5120	18.0480
 1.5130	18.1590
 1.5140	18.2710
 1.5150	18.3820
 1.5160	18.4920
 1.5170	18.6030
 1.5180	18.7120
 1.5190	18.8210
 1.5200	18.9290
 1.5210	19.0340
 1.5220	19.1400
 1.5230	19.2460
 1.5240	19.3490
 1.5250	19.4540
 1.5260	19.5570
 1.5270	19.6580
 1.5280	19.7610
 1.5290	19.8620
 1.5300	19.9610
 1.5310	20.0600
 1.5320	20.1570
 1.5330	20.2550
 1.5340	20.3520
 1.5350	20.4480
 1.5360	20.5440
 1.5370	20.6390
 1.5380	20.7340
 1.5390	20.8280
 1.5400	20.9210
 1.5410	21.0140
 1.5420	21.1070
 1.5430	21.2000
 1.5440	21.2930
 1.5450	21.3830
 1.5460	21.4740
 1.5470	21.5650
 1.5480	21.6540
 1.5490	21.7440
 1.5500	21.8340
 1.5510	21.9210
 1.5520	22.0090
 1.5530	22.0950
 1.5540	22.1790
 1.5550	22.2650
 1.5560	22.3490
 1.5570	22.4340
 1.5580	22.5190
 1.5590	22.6010
 1.5600	22.6830
 1.5610	22.7640
 1.5620	22.8440
 1.5630	22.9240
 1.5640	23.0040
 1.5650	23.0840
 1.5660	23.1640
 1.5670	23.2430
 1.5680	23.3220
 1.5690	23.4000
 1.5700	23.4780
 1.5710	23.5550
 1.5720	23.6330
 1.5730	23.7110
 1.5740	23.7890
 1.5750	23.8660
 1.5760	23.9420
 1.5770	24.0170
 1.5780	24.0920
 1.5790	24.1660
 1.5800	24.2400
 1.5810	24.3170
 1.5820	24.3940
 1.5830	24.4700
 1.5840	24.5490
 1.5850	24.6250
 1.5860	24.7000
 1.5870	24.7770
 1.5880	24.8520
 1.5890	24.9270
 1.5900	25.0040
 1.5910	25.0790
 1.5920	25.1560
 1.5930	25.2330
 1.5940	25.3110
 1.5950	25.3890
 1.5960	25.4660
 1.5970	25.5430
 1.5980	25.6190
 1.5990	25.6940
 1.6000	25.7710
 1.6010	25.8470
 1.6020	25.9220
 1.6030	25.9980
 1.6040	26.0710
 1.6050	26.1470
 1.6060	26.2230
 1.6070	26.2960
 1.6080	26.3700
 1.6090	26.4400
 1.6100	26.5100
 1.6110	26.5810
 1.6120	26.6520
 1.6130	26.7220
 1.6140	26.7900
 1.6150	26.8570
 1.6160	26.9220
 1.6170	26.9850
 1.6180	27.0460
 1.6190	27.1080
 1.6200	27.1700
 1.6210	27.2310
 1.6220	27.2910
 1.6230	27.3490
 1.6240	27.4040
 1.6250	27.4590
 1.6260	27.5150
 1.6270	27.5700
 1.6280	27.6260
 1.6290	27.6800
 1.6300	27.7320
 1.6310	27.7850
 1.6320	27.8380
 1.6330	27.8900
 1.6340	27.9410
 1.6350	27.9920
 1.6360	28.0430
 1.6370	28.0910
 1.6380	28.1390
 1.6390	28.1840
 1.6400	28.2260
 1.6410	28.2670
 1.6420	28.3060
 1.6430	28.3440
 1.6440	28.3810
 1.6450	28.4160
 1.6460	28.4480
 1.6470	28.4750
 1.6480	28.5010
 1.6490	28.5230
 1.6500	28.5420
 1.6510	28.5590
 1.6520	28.5730
 1.6530	28.5860
 1.6540	28.5970
 1.6550	28.6030
 1.6560	28.6070
 1.6570	28.6080
 1.6580	28.6050
 1.6590	28.6020
 1.6600	28.5980
 1.6610	28.5910
 1.6620	28.5830
 1.6630	28.5760
 1.6640	28.5670
 1.6650	28.5580
 1.6660	28.5490
 1.6670	28.5370
 1.6680	28.5230
 1.6690	28.5080
 1.6700	28.4920
 1.6710	28.4760
 1.6720	28.4580
 1.6730	28.4390
 1.6740	28.4170
 1.6750	28.3920
 1.6760	28.3640
 1.6770	28.3340
 1.6780	28.2980
 1.6790	28.2590
 1.6800	28.2170
 1.6810	28.1700
 1.6820	28.1210
 1.6830	28.0660
 1.6840	28.0060
 1.6850	27.9430
 1.6860	27.8740
 1.6870	27.8010
 1.6880	27.7270
 1.6890	27.6470
 1.6900	27.5670
 1.6910	27.4840
 1.6920	27.3990
 1.6930	27.3120
 1.6940	27.2240
 1.6950	27.1330
 1.6960	27.0430
 1.6970	26.9500
 1.6980	26.8590
 1.6990	26.7680
 1.7000	26.6780
 1.7010	26.5900
 1.7020	26.4990
 1.7030	26.4080
 1.7040	26.3180
 1.7050	26.2260
 1.7060	26.1400
 1.7070	26.0580
 1.7080	25.9760
 1.7090	25.8950
 1.7100	25.8170
 1.7110	25.7390
 1.7120	25.6660
 1.7130	25.5970
 1.7140	25.5310
 1.7150	25.4690
 1.7160	25.4080
 1.7170	25.3500
 1.7180	25.2960
 1.7190	25.2430
 1.7200	25.1940
 1.7210	25.1470
 1.7220	25.1010
 1.7230	25.0570
 1.7240	25.0150
 1.7250	24.9750
 1.7260	24.9370
 1.7270	24.9040
 1.7280	24.8750
 1.7290	24.8490
 1.7300	24.8270
 1.7310	24.8090
 1.7320	24.7960
 1.7330	24.7820
 1.7340	24.7720
 1.7350	24.7570
 1.7360	24.7410
 1.7370	24.7210
 1.7380	24.7000
 1.7390	24.6700
 1.7400	24.6370
 1.7410	24.5960
 1.7420	24.5470
 1.7430	24.4950
 1.7440	24.4380
 1.7450	24.3780
 1.7460	24.3120
 1.7470	24.2470
 1.7480	24.1800
 1.7490	24.1140
 1.7500	24.0500
 1.7510	23.9850
 1.7520	23.9190
 1.7530	23.8580
 1.7540	23.7990
 1.7550	23.7400
 1.7560	23.6860
 1.7570	23.6340
 1.7580	23.5850
 1.7590	23.5390
 1.7600	23.4980
 1.7610	23.4550
 1.7620	23.4160
 1.7630	23.3830
 1.7640	23.3490
 1.7650	23.3160
 1.7660	23.2860
 1.7670	23.2590
 1.7680	23.2320
 1.7690	23.2080
 1.7700	23.1850
 1.7710	23.1610
 1.7720	23.1380
 1.7730	23.1170
 1.7740	23.0960
 1.7750	23.0730
 1.7760	23.0520
 1.7770	23.0320
 1.7780	23.0160
 1.7790	23.0040
 1.7800	22.9930
 1.7810	22.9860
 1.7820	22.9800
 1.7830	22.9760
 1.7840	22.9730
 1.7850	22.9740
 1.7860	22.9770
 1.7870	22.9830
 1.7880	22.9910
 1.7890	22.9990
 1.7900	23.0070
 1.7910	23.0160
 1.7920	23.0250
 1.7930	23.0370
 1.7940	23.0500
 1.7950	23.0650
 1.7960	23.0850
 1.7970	23.1030
 1.7980	23.1200
 1.7990	23.1390
 1.8000	23.1580
 1.8010	23.1780
 1.8020	23.2000
 1.8030	23.2200
 1.8040	23.2400
 1.8050	23.2610
 1.8060	23.2810
 1.8070	23.3010
 1.8080	23.3200
 1.8090	23.3370
 1.8100	23.3500
 1.8110	23.3680
 1.8120	23.3830
 1.8130	23.4000
 1.8140	23.4150
 1.8150	23.4250
 1.8160	23.4330
 1.8170	23.4410
 1.8180	23.4500
 1.8190	23.4600
 1.8200	23.4690
 1.8210	23.4790
 1.8220	23.4880
 1.8230	23.4960
 1.8240	23.5030
 1.8250	23.5080
 1.8260	23.5110
 1.8270	23.4760
 1.8280	23.4410
 1.8290	23.4060
 1.8300	23.3710
 1.8310	23.3360
 1.8320	23.3010
 1.8330	23.2660
 1.8340	23.2300
 1.8350	23.2300
 1.8360	23.2050
 1.8370	23.1740
 1.8380	23.1390
 1.8390	23.0970
 1.8400	23.0520
 1.8410	22.9990
 1.8420	22.9410
 1.8430	22.8760
 1.8440	22.8030
 1.8450	22.7210
 1.8460	22.6320
 1.8470	22.5370
 1.8480	22.4290
 1.8490	22.3080
 1.8500	22.1800
 1.8510	22.0430
 1.8520	21.8930
 1.8530	21.7360
 1.8540	21.5710
 1.8550	21.3910
 1.8560	21.1960
 1.8570	20.9880
 1.8580	20.7670
 1.8590	20.5340
 1.8600	20.2890
 1.8610	20.0310
 1.8620	19.7610
 1.8630	19.4810
 1.8640	19.1860
 1.8650	18.8720
 1.8660	18.5410
 1.8670	18.1880
 1.8680	17.8200
 1.8690	17.4390
 1.8700	17.0460
 1.8710	16.6410
 1.8720	16.2300
 1.8730	15.8060
 1.8740	15.3740
 1.8750	14.9320
 1.8760	14.4830
 1.8770	14.0340
 1.8780	13.5870
 1.8790	13.1420
 1.8800	12.7020
 1.8810	12.2670
 1.8820	11.8330
 1.8830	11.4020
 1.8840	10.9770
 1.8850	10.5590
 1.8860	10.1520
 1.8870	 9.7570
 1.8880	 9.3730
 1.8890	 9.0080
 1.8900	 8.6600
 1.8910	 8.3300
 1.8920	 8.0150
 1.8930	 7.7230
 1.8940	 7.4460
 1.8950	 7.1880
 1.8960	 6.9480
 1.8970	 6.7250
 1.8980	 6.5240
 1.8990	 6.3380
 1.9000	 6.1660
 1.9010	 6.0120
 1.9020	 5.8690
 1.9030	 5.7410
 1.9040	 5.6240
 1.9050	 5.5210
 1.9060	 5.4260
 1.9070	 5.3410
 1.9080	 5.2680
 1.9090	 5.2010
 1.9100	 5.1380
 1.9110	 5.0830
 1.9120	 5.0330
 1.9130	 4.9890
 1.9140	 4.9520
 1.9150	 4.9210
 1.9160	 4.8910
 1.9170	 4.8650
 1.9180	 4.8420
 1.9190	 4.8190
 1.9200	 4.8000
 1.9210	 4.7830
 1.9220	 4.7700
 1.9230	 4.7590
 1.9240	 4.7500
 1.9250	 4.7450
 1.9260	 4.7400
 1.9270	 4.7350
 1.9280	 4.7320
 1.9290	 4.7310
 1.9300	 4.7300
 1.9310	 4.7330
 1.9320	 4.7370
 1.9330	 4.7430
 1.9340	 4.7510
 1.9350	 4.7600
 1.9360	 4.7700
 1.9370	 4.7820
 1.9380	 4.7960
 1.9390	 4.8120
 1.9400	 4.8290
 1.9410	 4.8490
 1.9420	 4.8680
 1.9430	 4.8870
 1.9440	 4.9070
 1.9450	 4.9260
 1.9460	 4.9470
 1.9470	 4.9690
 1.9480	 4.9930
 1.9490	 5.0190
 1.9500	 5.0430
 1.9510	 5.0690
 1.9520	 5.0960
 1.9530	 5.1250
 1.9540	 5.1530
 1.9550	 5.1840
 1.9560	 5.2190
 1.9570	 5.2510
 1.9580	 5.2810
 1.9590	 5.3140
 1.9600	 5.3460
 1.9610	 5.3800
 1.9620	 5.4140
 1.9630	 5.4530
 1.9640	 5.4920
 1.9650	 5.5270
 1.9660	 5.5640
 1.9670	 5.6010
 1.9680	 5.6400
 1.9690	 5.6790
 1.9700	 5.7200
 1.9710	 5.7640
 1.9720	 5.8060
 1.9730	 5.8510
 1.9740	 5.8930
 1.9750	 5.9330
 1.9760	 5.9780
 1.9770	 6.0220
 1.9780	 6.0680
 1.9790	 6.1160
 1.9800	 6.1660
 1.9810	 6.2160
 1.9820	 6.2650
 1.9830	 6.3160
 1.9840	 6.3670
 1.9850	 6.4190
 1.9860	 6.4710
 1.9870	 6.5230
 1.9880	 6.5750
 1.9890	 6.6260
 1.9900	 6.6770
 1.9910	 6.7300
 1.9920	 6.7820
 1.9930	 6.8340
 1.9940	 6.8860
 1.9950	 6.9380
 1.9960	 6.9910
 1.9970	 7.0440
 1.9980	 7.0970
 1.9990	 7.1510
 2.0000	 7.2030
 2.0010	 7.2560
 2.0020	 7.3090
 2.0030	 7.3600
 2.0040	 7.4120
 2.0050	 7.4650
 2.0060	 7.5190
 2.0070	 7.5720
 2.0080	 7.6250
 2.0090	 7.6780
 2.0100	 7.7300
 2.0110	 7.7810
 2.0120	 7.8290
 2.0130	 7.8810
 2.0140	 7.9320
 2.0150	 7.9780
 2.0160	 8.0290
 2.0170	 8.0820
 2.0180	 8.1320
 2.0190	 8.1810
 2.0200	 8.2280
 2.0210	 8.2710
 2.0220	 8.3150
 2.0230	 8.3600
 2.0240	 8.4040
 2.0250	 8.4500
 2.0260	 8.4940
 2.0270	 8.5370
 2.0280	 8.5800
 2.0290	 8.6210
 2.0300	 8.6610
 2.0310	 8.7000
 2.0320	 8.7380
 2.0330	 8.7760
 2.0340	 8.8130
 2.0350	 8.8490
 2.0360	 8.8820
 2.0370	 8.9150
 2.0380	 8.9450
 2.0390	 8.9770
 2.0400	 9.0100
 2.0410	 9.0420
 2.0420	 9.0780
 2.0430	 9.1110
 2.0440	 9.1420
 2.0450	 9.1720
 2.0460	 9.2010
 2.0470	 9.2270
 2.0480	 9.2540
 2.0490	 9.2800
 2.0500	 9.3080
 2.0510	 9.3390
 2.0520	 9.3680
 2.0530	 9.3970
 2.0540	 9.4260
 2.0550	 9.4540
 2.0560	 9.4790
 2.0570	 9.5080
 2.0580	 9.5370
 2.0590	 9.5660
 2.0600	 9.5970
 2.0610	 9.6260
 2.0620	 9.6540
 2.0630	 9.6820
 2.0640	 9.7110
 2.0650	 9.7400
 2.0660	 9.7670
 2.0670	 9.7960
 2.0680	 9.8230
 2.0690	 9.8520
 2.0700	 9.8810
 2.0710	 9.9110
 2.0720	 9.9410
 2.0730	 9.9700
 2.0740	 9.9990
 2.0750	10.0290
 2.0760	10.0580
 2.0770	10.0860
 2.0780	10.1150
 2.0790	10.1460
 2.0800	10.1760
 2.0810	10.2090
 2.0820	10.2380
 2.0830	10.2640
 2.0840	10.2920
 2.0850	10.3180
 2.0860	10.3450
 2.0870	10.3730
 2.0880	10.4020
 2.0890	10.4320
 2.0900	10.4620
 2.0910	10.4930
 2.0920	10.5270
 2.0930	10.5600
 2.0940	10.5940
 2.0950	10.6260
 2.0960	10.6570
 2.0970	10.6880
 2.0980	10.7190
 2.0990	10.7480
 2.1000	10.7780
 2.1010	10.8090
 2.1020	10.8390
 2.1030	10.8690
 2.1040	10.8980
 2.1050	10.9310
 2.1060	10.9630
 2.1070	10.9940
 2.1080	11.0260
 2.1090	11.0590
 2.1100	11.0920
 2.1110	11.1250
 2.1120	11.1570
 2.1130	11.1920
 2.1140	11.2250
 2.1150	11.2560
 2.1160	11.2890
 2.1170	11.3240
 2.1180	11.3580
 2.1190	11.3920
 2.1200	11.4270
 2.1210	11.4610
 2.1220	11.4940
 2.1230	11.5270
 2.1240	11.5590
 2.1250	11.5900
 2.1260	11.6200
 2.1270	11.6510
 2.1280	11.6820
 2.1290	11.7110
 2.1300	11.7410
 2.1310	11.7710
 2.1320	11.7990
 2.1330	11.8290
 2.1340	11.8590
 2.1350	11.8890
 2.1360	11.9200
 2.1370	11.9480
 2.1380	11.9740
 2.1390	12.0030
 2.1400	12.0300
 2.1410	12.0590
 2.1420	12.0880
 2.1430	12.1200
 2.1440	12.1500
 2.1450	12.1790
 2.1460	12.2090
 2.1470	12.2410
 2.1480	12.2700
 2.1490	12.2970
 2.1500	12.3250
 2.1510	12.3520
 2.1520	12.3790
 2.1530	12.4070
 2.1540	12.4340
 2.1550	12.4600
 2.1560	12.4860
 2.1570	12.5100
 2.1580	12.5370
 2.1590	12.5630
 2.1600	12.5910
 2.1610	12.6230
 2.1620	12.6520
 2.1630	12.6800
 2.1640	12.7080
 2.1650	12.7340
 2.1660	12.7570
 2.1670	12.7830
 2.1680	12.8100
 2.1690	12.8360
 2.1700	12.8640
 2.1710	12.8910
 2.1720	12.9170
 2.1730	12.9440
 2.1740	12.9720
 2.1750	12.9990
 2.1760	13.0240
 2.1770	13.0500
 2.1780	13.0750
 2.1790	13.1020
 2.1800	13.1340
 2.1810	13.1620
 2.1820	13.1890
 2.1830	13.2140
 2.1840	13.2380
 2.1850	13.2590
 2.1860	13.2840
 2.1870	13.3090
 2.1880	13.3360
 2.1890	13.3660
 2.1900	13.3930
 2.1910	13.4220
 2.1920	13.4460
 2.1930	13.4670
 2.1940	13.4890
 2.1950	13.5100
 2.1960	13.5320
 2.1970	13.5560
 2.1980	13.5770
 2.1990	13.5960
 2.2000	13.6180
 2.2010	13.6400
 2.2020	13.6600
 2.2030	13.6810
 2.2040	13.7000
 2.2050	13.7180
 2.2060	13.7330
 2.2070	13.7460
 2.2080	13.7570
 2.2090	13.7680
 2.2100	13.7760
 2.2110	13.7850
 2.2120	13.7920
 2.2130	13.7990
 2.2140	13.8050
 2.2150	13.8100
 2.2160	13.8150
 2.2170	13.8180
 2.2180	13.8190
 2.2190	13.8180
 2.2200	13.8180
 2.2210	13.8120
 2.2220	13.8030
 2.2230	13.7930
 2.2240	13.7800
 2.2250	13.7650
 2.2260	13.7510
 2.2270	13.7330
 2.2280	13.7110
 2.2290	13.6870
 2.2300	13.6630
 2.2310	13.6340
 2.2320	13.6000
 2.2330	13.5650
 2.2340	13.5290
 2.2350	13.4910
 2.2360	13.4500
 2.2370	13.4110
 2.2380	13.3640
 2.2390	13.3100
 2.2400	13.2550
 2.2410	13.1950
 2.2420	13.1370
 2.2430	13.0780
 2.2440	13.0190
 2.2450	12.9630
 2.2460	12.8990
 2.2470	12.8310
 2.2480	12.7620
 2.2490	12.6890
 2.2500	12.6160
 2.2510	12.5420
 2.2520	12.4670
 2.2530	12.3890
 2.2540	12.3110
 2.2550	12.2310
 2.2560	12.1530
 2.2570	12.0780
 2.2580	12.0010
 2.2590	11.9240
 2.2600	11.8460
 2.2610	11.7640
 2.2620	11.6850
 2.2630	11.6040
 2.2640	11.5300
 2.2650	11.4550
 2.2660	11.3780
 2.2670	11.3050
 2.2680	11.2320
 2.2690	11.1640
 2.2700	11.0970
 2.2710	11.0340
 2.2720	10.9760
 2.2730	10.9180
 2.2740	10.8650
 2.2750	10.8110
 2.2760	10.7560
 2.2770	10.7050
 2.2780	10.6520
 2.2790	10.6050
 2.2800	10.5660
 2.2810	10.5240
 2.2820	10.4860
 2.2830	10.4440
 2.2840	10.3980
 2.2850	10.3540
 2.2860	10.3110
 2.2870	10.2660
 2.2880	10.2220
 2.2890	10.1750
 2.2900	10.1220
 2.2910	10.0700
 2.2920	10.0200
 2.2930	 9.9670
 2.2940	 9.9130
 2.2950	 9.8580
 2.2960	 9.7990
 2.2970	 9.7420
 2.2980	 9.6870
 2.2990	 9.6300
 2.3000	 9.5790
 2.3010	 9.5320
 2.3020	 9.4820
 2.3030	 9.4390
 2.3040	 9.3990
 2.3050	 9.3600
 2.3060	 9.3280
 2.3070	 9.3030
 2.3080	 9.2810
 2.3090	 9.2660
 2.3100	 9.2570
 2.3110	 9.2450
 2.3120	 9.2360
 2.3130	 9.2270
 2.3140	 9.2280
 2.3150	 9.2380
 2.3160	 9.2430
 2.3170	 9.2570
 2.3180	 9.2570
 2.3190	 9.2450
 2.3200	 9.2410
 2.3210	 9.2350
 2.3220	 9.2280
 2.3230	 9.2270
 2.3240	 9.2140
 2.3250	 9.1920
 2.3260	 9.1740
 2.3270	 9.1570
 2.3280	 9.1340
 2.3290	 9.1090
 2.3300	 9.0780
 2.3310	 9.0340
 2.3320	 8.9980
 2.3330	 8.9630
 2.3340	 8.9300
 2.3350	 8.9040
 2.3360	 8.8700
 2.3370	 8.8310
 2.3380	 8.7960
 2.3390	 8.7590
 2.3400	 8.7230
 2.3410	 8.6920
 2.3420	 8.6590
 2.3430	 8.6180
 2.3440	 8.5830
 2.3450	 8.5490
 2.3460	 8.5190
 2.3470	 8.4930
 2.3480	 8.4680
 2.3490	 8.4480
 2.3500	 8.4290
 2.3510	 8.4140
 2.3520	 8.3970
 2.3530	 8.3820
 2.3540	 8.3650
 2.3550	 8.3500
 2.3560	 8.3330
 2.3570	 8.3130
 2.3580	 8.2960
 2.3590	 8.2840
 2.3600	 8.2730
 2.3610	 8.2630
 2.3620	 8.2490
 2.3630	 8.2250
 2.3640	 8.2010
 2.3650	 8.1810
 2.3660	 8.1640
 2.3670	 8.1460
 2.3680	 8.1160
 2.3690	 8.0840
 2.3700	 8.0500
 2.3710	 8.0090
 2.3720	 7.9820
 2.3730	 7.9560
 2.3740	 7.9320
 2.3750	 7.9160
 2.3760	 7.8940
 2.3770	 7.8650
 2.3780	 7.8360
 2.3790	 7.8110
 2.3800	 7.7820
 2.3810	 7.7580
 2.3820	 7.7370
 2.3830	 7.7120
 2.3840	 7.6850
 2.3850	 7.6540
 2.3860	 7.6330
 2.3870	 7.6010
 2.3880	 7.5790
 2.3890	 7.5680
 2.3900	 7.5380
 2.3910	 7.5130
 2.3920	 7.4830
 2.3930	 7.4400
 2.3940	 7.4050
 2.3950	 7.3760
 2.3960	 7.3500
 2.3970	 7.3210
 2.3980	 7.2930
 2.3990	 7.2690
 2.4000	 7.2420
 2.4010	 7.2200
 2.4020	 7.1990
 2.4030	 7.1780
 2.4040	 7.1550
 2.4050	 7.1290
 2.4060	 7.1050
 2.4070	 7.0750
 2.4080	 7.0280
 2.4090	 6.9870
 2.4100	 6.9610
 2.4110	 6.9240
 2.4120	 6.9030
 2.4130	 6.8890
 2.4140	 6.8560
 2.4150	 6.8330
 2.4160	 6.8070
 2.4170	 6.7720
 2.4180	 6.7350
 2.4190	 6.6880
 2.4200	 6.6470
 2.4210	 6.6070
 2.4220	 6.5750
 2.4230	 6.5560
 2.4240	 6.5200
 2.4250	 6.4840
 2.4260	 6.4450
 2.4270	 6.4010
 2.4280	 6.3670
 2.4290	 6.3320
 2.4300	 6.3020
 2.4310	 6.2730
 2.4320	 6.2450
 2.4330	 6.2290
 2.4340	 6.2130
 2.4350	 6.1900
 2.4360	 6.1690
 2.4370	 6.1350
 2.4380	 6.0880
 2.4390	 6.0460
 2.4400	 6.0110
 2.4410	 5.9740
 2.4420	 5.9380
 2.4430	 5.9130
 2.4440	 5.8720
 2.4450	 5.8270
 2.4460	 5.8100
 2.4470	 5.7900
 2.4480	 5.7630
 2.4490	 5.7470
 2.4500	 5.7300
 2.4510	 5.6950
 2.4520	 5.6570
 2.4530	 5.6260
 2.4540	 5.5810
 2.4550	 5.5610
 2.4560	 5.5400
 2.4570	 5.5090
 2.4580	 5.4980
 2.4590	 5.4540
 2.4600	 5.4180
 2.4610	 5.4030
 2.4620	 5.3760
 2.4630	 5.3530
 2.4640	 5.3420
 2.4650	 5.3240
 2.4660	 5.3030
 2.4670	 5.2810
 2.4680	 5.2540
 2.4690	 5.2210
 2.4700	 5.1890
 2.4710	 5.1390
 2.4720	 5.1160
 2.4730	 5.1180
 2.4740	 5.1090
 2.4750	 5.1100
 2.4760	 5.1020
 2.4770	 5.0820
 2.4780	 5.0580
 2.4790	 5.0380
 2.4800	 5.0160
 2.4810	 4.9710
 2.4820	 5.0020
 2.4830	 4.9970
 2.4840	 4.9790
 2.4850	 4.9760
 2.4860	 4.9470
 2.4870	 4.9060
 2.4880	 4.9220
 2.4890	 4.9440
 2.4900	 4.9460
 2.4910	 4.9610
 2.4920	 4.9580
 2.4930	 4.9390
 2.4940	 4.8840
 2.4950	 4.8500
 2.4960	 4.8290
 2.4970	 4.7820
 2.4980	 4.7980
 2.4990	 4.8160
 2.5000	 4.8080
