Name: Calocedrus decrruens 1
Type: vegetation
Class: Tree
Genus: Calocedrus
Species: decurrens
Sample No.: VH145
Owner: UCSB
Wavelength Range: TIR
Origin: 37.0432; -119.304; WGS84
Collection Date: 6/8/2013
Description: Samples were collected as part of the HyspIRI Airborne Campaign. 48 individual plants were sampled in three times in 2013 - spring  summer  and fall. The name of the sample includes a 1  2  or 3 which references a different individual of the species. Samples were taken to JPL and processed within 48 hours of collection. The same leaves were processed in the Nicolet and then measured using the ASD.
Measurement: Hemispherical reflectance
First Column: X
Second Column: Y
X Units: Wavelength (micrometers)
Y Units: Reflectance (percentage)
First X Value: 2.501
Last X Value: 15.387
Number of X Values: 1737
Additional Information: vegetation.tree.calocedrus.decurrens.tir.vh145.ucsb.nicolet.ancillary.txt

 2.5010	 6.2980
 2.5030	 6.1970
 2.5040	 6.1740
 2.5050	 6.1440
 2.5060	 6.2270
 2.5070	 6.1160
 2.5090	 5.9900
 2.5100	 5.9820
 2.5110	 6.0710
 2.5120	 5.9940
 2.5140	 6.0130
 2.5150	 5.9660
 2.5160	 6.0090
 2.5170	 5.9340
 2.5180	 5.8620
 2.5200	 5.9150
 2.5210	 5.9530
 2.5220	 5.8930
 2.5230	 5.9450
 2.5250	 5.9690
 2.5260	 6.0140
 2.5270	 6.0370
 2.5280	 6.0760
 2.5290	 5.9920
 2.5310	 6.0610
 2.5320	 6.0120
 2.5330	 6.0740
 2.5340	 6.0910
 2.5360	 6.0700
 2.5370	 6.0570
 2.5380	 6.0750
 2.5390	 6.0070
 2.5410	 6.0400
 2.5420	 6.0650
 2.5430	 6.0440
 2.5440	 6.0250
 2.5460	 6.0680
 2.5470	 6.0800
 2.5480	 6.1070
 2.5490	 6.0960
 2.5510	 6.1830
 2.5520	 6.0960
 2.5530	 6.1150
 2.5540	 6.1850
 2.5560	 6.2110
 2.5570	 6.1390
 2.5580	 6.2060
 2.5590	 6.1560
 2.5610	 6.1210
 2.5620	 6.1240
 2.5630	 6.2070
 2.5640	 6.1800
 2.5660	 6.2060
 2.5670	 6.2080
 2.5680	 6.2300
 2.5700	 6.2050
 2.5710	 6.2830
 2.5720	 6.2420
 2.5730	 6.2040
 2.5750	 6.1940
 2.5760	 6.3020
 2.5770	 6.3350
 2.5790	 6.2530
 2.5800	 6.1520
 2.5810	 6.1150
 2.5820	 6.0960
 2.5840	 6.2580
 2.5850	 6.2580
 2.5860	 6.1330
 2.5880	 5.9450
 2.5890	 6.0640
 2.5900	 6.1250
 2.5910	 6.0870
 2.5930	 6.0100
 2.5940	 6.1290
 2.5950	 6.0550
 2.5970	 6.0140
 2.5980	 6.0890
 2.5990	 6.2130
 2.6000	 6.0710
 2.6020	 6.0460
 2.6030	 6.0050
 2.6040	 6.0400
 2.6060	 6.0350
 2.6070	 6.0460
 2.6080	 5.9870
 2.6100	 6.0460
 2.6110	 5.9250
 2.6120	 5.8130
 2.6140	 5.7150
 2.6150	 5.7950
 2.6160	 5.7470
 2.6180	 5.7370
 2.6190	 5.7080
 2.6200	 5.7010
 2.6220	 5.6350
 2.6230	 5.6600
 2.6240	 5.5760
 2.6260	 5.6150
 2.6270	 5.5610
 2.6280	 5.5700
 2.6300	 5.5960
 2.6310	 5.5700
 2.6320	 5.4670
 2.6340	 5.4560
 2.6350	 5.3950
 2.6360	 5.4210
 2.6380	 5.3450
 2.6390	 5.3390
 2.6400	 5.2350
 2.6420	 5.2700
 2.6430	 5.1940
 2.6440	 5.0750
 2.6460	 4.9920
 2.6470	 5.0700
 2.6480	 5.0210
 2.6500	 4.9880
 2.6510	 4.9010
 2.6520	 4.9610
 2.6540	 4.9300
 2.6550	 4.8780
 2.6560	 4.7690
 2.6580	 4.7490
 2.6590	 4.7750
 2.6610	 4.8660
 2.6620	 4.8070
 2.6630	 4.8160
 2.6650	 4.7690
 2.6660	 4.7330
 2.6670	 4.6040
 2.6690	 4.6540
 2.6700	 4.7290
 2.6720	 4.6140
 2.6730	 4.3550
 2.6740	 4.3590
 2.6760	 4.3080
 2.6770	 4.2790
 2.6780	 4.3180
 2.6800	 4.3830
 2.6810	 4.2320
 2.6830	 4.1270
 2.6840	 4.0350
 2.6850	 4.0050
 2.6870	 3.9500
 2.6880	 3.9160
 2.6900	 3.9150
 2.6910	 3.9120
 2.6920	 3.7610
 2.6940	 3.7780
 2.6950	 3.7760
 2.6970	 3.6770
 2.6980	 3.5230
 2.6990	 3.5140
 2.7010	 3.4630
 2.7020	 3.4180
 2.7040	 3.4040
 2.7050	 3.5410
 2.7060	 3.4570
 2.7080	 3.3880
 2.7090	 3.2700
 2.7110	 3.2380
 2.7120	 3.2150
 2.7130	 3.3110
 2.7150	 3.3240
 2.7160	 3.2590
 2.7180	 3.1520
 2.7190	 3.0610
 2.7210	 3.0020
 2.7220	 3.1350
 2.7230	 3.0690
 2.7250	 3.0170
 2.7260	 3.0520
 2.7280	 3.0950
 2.7290	 3.0380
 2.7310	 3.0580
 2.7320	 3.0110
 2.7330	 3.0590
 2.7350	 3.0240
 2.7360	 3.1390
 2.7380	 3.1970
 2.7390	 3.1190
 2.7410	 3.0050
 2.7420	 2.9650
 2.7440	 2.8540
 2.7450	 2.9140
 2.7470	 2.9480
 2.7480	 3.0290
 2.7490	 2.9930
 2.7510	 2.9170
 2.7520	 2.8580
 2.7540	 3.2250
 2.7550	 3.2030
 2.7570	 3.0330
 2.7580	 3.0350
 2.7600	 2.9430
 2.7610	 2.7990
 2.7630	 2.8880
 2.7640	 2.9350
 2.7660	 3.0390
 2.7670	 3.0310
 2.7680	 3.0430
 2.7700	 3.0170
 2.7710	 3.0120
 2.7730	 2.9860
 2.7740	 3.0040
 2.7760	 3.0870
 2.7770	 3.2100
 2.7790	 3.1340
 2.7800	 3.1850
 2.7820	 2.9620
 2.7830	 2.8370
 2.7850	 2.8710
 2.7860	 2.9990
 2.7880	 2.9900
 2.7890	 3.1000
 2.7910	 3.0540
 2.7920	 3.0290
 2.7940	 2.9680
 2.7950	 2.9270
 2.7970	 2.8300
 2.7980	 2.9100
 2.8000	 2.9100
 2.8010	 2.8780
 2.8030	 2.8540
 2.8040	 2.9390
 2.8060	 2.9680
 2.8070	 2.9100
 2.8090	 2.8650
 2.8110	 2.9440
 2.8120	 2.9550
 2.8140	 2.9360
 2.8150	 2.8190
 2.8170	 2.8750
 2.8180	 2.9740
 2.8200	 2.9260
 2.8210	 2.7570
 2.8230	 2.8680
 2.8240	 2.8570
 2.8260	 2.7850
 2.8270	 2.8350
 2.8290	 3.0210
 2.8300	 2.9340
 2.8320	 2.7560
 2.8340	 2.7900
 2.8350	 2.9180
 2.8370	 2.9320
 2.8380	 2.9980
 2.8400	 2.9430
 2.8410	 2.9070
 2.8430	 2.8640
 2.8440	 2.9200
 2.8460	 2.8210
 2.8480	 2.8560
 2.8490	 2.8830
 2.8510	 2.8260
 2.8520	 2.8070
 2.8540	 2.9370
 2.8550	 2.8990
 2.8570	 2.8950
 2.8590	 2.8500
 2.8600	 2.7630
 2.8620	 2.6560
 2.8630	 2.7920
 2.8650	 2.8790
 2.8660	 3.0740
 2.8680	 3.0850
 2.8700	 3.0140
 2.8710	 2.8430
 2.8730	 2.8260
 2.8740	 2.9750
 2.8760	 2.9590
 2.8780	 2.9970
 2.8790	 3.0890
 2.8810	 3.0370
 2.8820	 3.1860
 2.8840	 2.9980
 2.8860	 2.9630
 2.8870	 2.9210
 2.8890	 2.9350
 2.8900	 2.7600
 2.8920	 2.6810
 2.8940	 2.7900
 2.8950	 2.8430
 2.8970	 2.9340
 2.8980	 3.0290
 2.9000	 2.8750
 2.9020	 2.8330
 2.9030	 2.7900
 2.9050	 2.9210
 2.9070	 3.0140
 2.9080	 2.9700
 2.9100	 2.9730
 2.9120	 3.0120
 2.9130	 2.9580
 2.9150	 2.9440
 2.9160	 2.8110
 2.9180	 2.8850
 2.9200	 2.8330
 2.9210	 2.8420
 2.9230	 2.7800
 2.9250	 2.8490
 2.9260	 2.9460
 2.9280	 3.0160
 2.9300	 2.9050
 2.9310	 2.8170
 2.9330	 2.7850
 2.9350	 2.9560
 2.9360	 3.0280
 2.9380	 2.8600
 2.9400	 2.8530
 2.9410	 2.9420
 2.9430	 2.7860
 2.9450	 3.0830
 2.9460	 2.8840
 2.9480	 2.6870
 2.9500	 2.7580
 2.9510	 2.9980
 2.9530	 3.0640
 2.9550	 3.0130
 2.9560	 2.8080
 2.9580	 2.6780
 2.9600	 2.2960
 2.9610	 1.8750
 2.9630	 2.0670
 2.9650	 2.5540
 2.9660	 2.5030
 2.9680	 2.9960
 2.9700	 2.8830
 2.9720	 1.7390
 2.9730	 2.3210
 2.9750	 4.0300
 2.9770	 3.5100
 2.9780	 2.4210
 2.9800	 2.5280
 2.9820	 2.4450
 2.9840	 2.3230
 2.9850	 2.9130
 2.9870	 3.0380
 2.9890	 3.1600
 2.9900	 2.9670
 2.9920	 3.1530
 2.9940	 3.1940
 2.9960	 3.5170
 2.9970	 3.4970
 2.9990	 3.5370
 3.0010	 3.6240
 3.0030	 3.3870
 3.0040	 3.1190
 3.0060	 3.2560
 3.0080	 3.2450
 3.0100	 3.0000
 3.0110	 2.9860
 3.0130	 3.2370
 3.0150	 3.3640
 3.0170	 2.9540
 3.0180	 2.8910
 3.0200	 3.2900
 3.0220	 3.3660
 3.0240	 3.2600
 3.0250	 3.1770
 3.0270	 3.0940
 3.0290	 3.0740
 3.0310	 3.1240
 3.0320	 3.4710
 3.0340	 3.5690
 3.0360	 3.1510
 3.0380	 2.6750
 3.0400	 2.6150
 3.0410	 3.6190
 3.0430	 3.5780
 3.0450	 3.2460
 3.0470	 3.3140
 3.0480	 2.6140
 3.0500	 2.7890
 3.0520	 3.4010
 3.0540	 2.6440
 3.0560	 2.3660
 3.0570	 2.3790
 3.0590	 4.5480
 3.0610	 5.3860
 3.0630	 3.4500
 3.0650	 2.5980
 3.0660	 2.7230
 3.0680	 2.6840
 3.0700	 2.6360
 3.0720	 2.8320
 3.0740	 2.8710
 3.0760	 2.8690
 3.0770	 2.8810
 3.0790	 2.8370
 3.0810	 2.9520
 3.0830	 2.9990
 3.0850	 3.1080
 3.0870	 3.0510
 3.0880	 2.8370
 3.0900	 2.8540
 3.0920	 3.0130
 3.0940	 2.9980
 3.0960	 3.0070
 3.0980	 3.0270
 3.0990	 3.0650
 3.1010	 2.8960
 3.1030	 2.8160
 3.1050	 2.9660
 3.1070	 3.1640
 3.1090	 3.1800
 3.1110	 3.1890
 3.1120	 3.0710
 3.1140	 2.8780
 3.1160	 2.6460
 3.1180	 2.8400
 3.1200	 3.1470
 3.1220	 3.3880
 3.1240	 3.2970
 3.1260	 3.1250
 3.1270	 2.8430
 3.1290	 2.6320
 3.1310	 2.9000
 3.1330	 3.0080
 3.1350	 3.0200
 3.1370	 2.9510
 3.1390	 2.2630
 3.1410	 2.2830
 3.1430	 2.6040
 3.1450	 2.9560
 3.1460	 3.3370
 3.1480	 3.5190
 3.1500	 3.2740
 3.1520	 2.8190
 3.1540	 2.5240
 3.1560	 2.6770
 3.1580	 2.7830
 3.1600	 2.8380
 3.1620	 3.6560
 3.1640	 4.3710
 3.1660	 3.7390
 3.1680	 2.8410
 3.1700	 1.9360
 3.1710	 2.3610
 3.1730	 2.5780
 3.1750	 2.3220
 3.1770	 2.6570
 3.1790	 3.3420
 3.1810	 3.3290
 3.1830	 2.8330
 3.1850	 2.5940
 3.1870	 2.7710
 3.1890	 2.7740
 3.1910	 2.9120
 3.1930	 2.9440
 3.1950	 3.0570
 3.1970	 3.0260
 3.1990	 2.9390
 3.2010	 2.7770
 3.2030	 2.8050
 3.2050	 2.8650
 3.2070	 2.9410
 3.2090	 2.9890
 3.2110	 3.1860
 3.2130	 3.0070
 3.2150	 2.9370
 3.2170	 3.0240
 3.2190	 3.1540
 3.2210	 3.0420
 3.2230	 3.0180
 3.2250	 2.9670
 3.2270	 2.8580
 3.2290	 2.8450
 3.2310	 2.9400
 3.2330	 2.8260
 3.2350	 2.8500
 3.2370	 2.9190
 3.2390	 2.9570
 3.2410	 2.8710
 3.2430	 2.9530
 3.2450	 2.8350
 3.2470	 2.8030
 3.2490	 2.8720
 3.2510	 2.9440
 3.2530	 2.8790
 3.2550	 2.8490
 3.2570	 2.9670
 3.2590	 3.1170
 3.2610	 3.2280
 3.2630	 3.3060
 3.2650	 3.1080
 3.2670	 3.1410
 3.2690	 3.1280
 3.2720	 3.0770
 3.2740	 2.8970
 3.2760	 2.7910
 3.2780	 2.7110
 3.2800	 2.7560
 3.2820	 2.8200
 3.2840	 2.8620
 3.2860	 2.8200
 3.2880	 2.8070
 3.2900	 2.7960
 3.2920	 2.8760
 3.2940	 2.8770
 3.2960	 2.9790
 3.2990	 2.9430
 3.3010	 2.9380
 3.3030	 2.8830
 3.3050	 2.7590
 3.3070	 2.7530
 3.3090	 2.8830
 3.3110	 2.8870
 3.3130	 2.8540
 3.3150	 2.8120
 3.3180	 2.8260
 3.3200	 2.7500
 3.3220	 2.8700
 3.3240	 2.8890
 3.3260	 2.8450
 3.3280	 2.7260
 3.3300	 2.7630
 3.3330	 2.8330
 3.3350	 2.7760
 3.3370	 2.7110
 3.3390	 2.7560
 3.3410	 2.7680
 3.3430	 2.7150
 3.3450	 2.7220
 3.3480	 2.7780
 3.3500	 2.6900
 3.3520	 2.6310
 3.3540	 2.5580
 3.3560	 2.5400
 3.3580	 2.4560
 3.3610	 2.4530
 3.3630	 2.5060
 3.3650	 2.5600
 3.3670	 2.5860
 3.3690	 2.5330
 3.3720	 2.4230
 3.3740	 2.4750
 3.3760	 2.4960
 3.3780	 2.5830
 3.3800	 2.5090
 3.3830	 2.3810
 3.3850	 2.2420
 3.3870	 2.2740
 3.3890	 2.3610
 3.3910	 2.3000
 3.3940	 2.2090
 3.3960	 2.3580
 3.3980	 2.3810
 3.4000	 2.2230
 3.4020	 2.1520
 3.4050	 2.2350
 3.4070	 2.2350
 3.4090	 2.4210
 3.4110	 2.5230
 3.4140	 2.6320
 3.4160	 2.7220
 3.4180	 2.9230
 3.4200	 3.2300
 3.4230	 3.6730
 3.4250	 4.0560
 3.4270	 4.4400
 3.4290	 4.6320
 3.4320	 4.6040
 3.4340	 4.4180
 3.4360	 4.2730
 3.4390	 4.0170
 3.4410	 3.9090
 3.4430	 3.7190
 3.4450	 3.7540
 3.4480	 3.8620
 3.4500	 3.8100
 3.4520	 3.8010
 3.4550	 3.9560
 3.4570	 3.8120
 3.4590	 3.5150
 3.4620	 3.4020
 3.4640	 3.6740
 3.4660	 3.6350
 3.4680	 3.5450
 3.4710	 3.4480
 3.4730	 3.3390
 3.4750	 3.2770
 3.4780	 3.1990
 3.4800	 3.0680
 3.4820	 3.0860
 3.4850	 3.1160
 3.4870	 3.0260
 3.4890	 2.8660
 3.4920	 2.9310
 3.4940	 2.9110
 3.4970	 2.8910
 3.4990	 2.8760
 3.5010	 2.8960
 3.5040	 2.9680
 3.5060	 3.4060
 3.5080	 4.0640
 3.5110	 4.7110
 3.5130	 4.7720
 3.5160	 4.5180
 3.5180	 4.2720
 3.5200	 4.0780
 3.5230	 3.8940
 3.5250	 3.9000
 3.5270	 3.8210
 3.5300	 3.7990
 3.5320	 3.7830
 3.5350	 3.7070
 3.5370	 3.6330
 3.5400	 3.6450
 3.5420	 3.6250
 3.5440	 3.6290
 3.5470	 3.6440
 3.5490	 3.6410
 3.5520	 3.5490
 3.5540	 3.6190
 3.5570	 3.6540
 3.5590	 3.6180
 3.5610	 3.5120
 3.5640	 3.5510
 3.5660	 3.4920
 3.5690	 3.5790
 3.5710	 3.5530
 3.5740	 3.4390
 3.5760	 3.3900
 3.5790	 3.4310
 3.5810	 3.5120
 3.5840	 3.6020
 3.5860	 3.4450
 3.5890	 3.4170
 3.5910	 3.3810
 3.5930	 3.3060
 3.5960	 3.3240
 3.5980	 3.4020
 3.6010	 3.4390
 3.6030	 3.3600
 3.6060	 3.3240
 3.6080	 3.4050
 3.6110	 3.4310
 3.6140	 3.4610
 3.6160	 3.3810
 3.6190	 3.4000
 3.6210	 3.4700
 3.6240	 3.5340
 3.6260	 3.5010
 3.6290	 3.4560
 3.6310	 3.4350
 3.6340	 3.4300
 3.6360	 3.3870
 3.6390	 3.3990
 3.6410	 3.4530
 3.6440	 3.4440
 3.6470	 3.3870
 3.6490	 3.4240
 3.6520	 3.4720
 3.6540	 3.4930
 3.6570	 3.4170
 3.6590	 3.3800
 3.6620	 3.3770
 3.6650	 3.3870
 3.6670	 3.4060
 3.6700	 3.4260
 3.6720	 3.3920
 3.6750	 3.4050
 3.6780	 3.4060
 3.6800	 3.5020
 3.6830	 3.5640
 3.6850	 3.5020
 3.6880	 3.4530
 3.6910	 3.4600
 3.6930	 3.3860
 3.6960	 3.3980
 3.6990	 3.4510
 3.7010	 3.4290
 3.7040	 3.3880
 3.7060	 3.4830
 3.7090	 3.4700
 3.7120	 3.4870
 3.7140	 3.5050
 3.7170	 3.4570
 3.7200	 3.4210
 3.7220	 3.4950
 3.7250	 3.4390
 3.7280	 3.4160
 3.7300	 3.4220
 3.7330	 3.4900
 3.7360	 3.6520
 3.7390	 3.7440
 3.7410	 3.6330
 3.7440	 3.5360
 3.7470	 3.3500
 3.7490	 3.3550
 3.7520	 3.4870
 3.7550	 3.5980
 3.7580	 3.5980
 3.7600	 3.5590
 3.7630	 3.5320
 3.7660	 3.6160
 3.7680	 3.5920
 3.7710	 3.5480
 3.7740	 3.5210
 3.7770	 3.5820
 3.7790	 3.6090
 3.7820	 3.5550
 3.7850	 3.5250
 3.7880	 3.5810
 3.7900	 3.5490
 3.7930	 3.5310
 3.7960	 3.5250
 3.7990	 3.6050
 3.8020	 3.6140
 3.8040	 3.6170
 3.8070	 3.5930
 3.8100	 3.5950
 3.8130	 3.6030
 3.8160	 3.6520
 3.8180	 3.6300
 3.8210	 3.6760
 3.8240	 3.6840
 3.8270	 3.6300
 3.8300	 3.6040
 3.8330	 3.5780
 3.8350	 3.5100
 3.8380	 3.5470
 3.8410	 3.7190
 3.8440	 3.7070
 3.8470	 3.7220
 3.8500	 3.7990
 3.8520	 3.7540
 3.8550	 3.7340
 3.8580	 3.7150
 3.8610	 3.7190
 3.8640	 3.7160
 3.8670	 3.7120
 3.8700	 3.6590
 3.8730	 3.6510
 3.8750	 3.6720
 3.8780	 3.7370
 3.8810	 3.7340
 3.8840	 3.7220
 3.8870	 3.7200
 3.8900	 3.7150
 3.8930	 3.7060
 3.8960	 3.7560
 3.8990	 3.7800
 3.9020	 3.8160
 3.9050	 3.7470
 3.9080	 3.6880
 3.9110	 3.7300
 3.9140	 3.7730
 3.9160	 3.7600
 3.9190	 3.7560
 3.9220	 3.7460
 3.9250	 3.8030
 3.9280	 3.7640
 3.9310	 3.6990
 3.9340	 3.7480
 3.9370	 3.8140
 3.9400	 3.7870
 3.9430	 3.7560
 3.9460	 3.7300
 3.9490	 3.7720
 3.9520	 3.7580
 3.9550	 3.7740
 3.9580	 3.8110
 3.9610	 3.8580
 3.9640	 3.7660
 3.9670	 3.7380
 3.9700	 3.8050
 3.9730	 3.8130
 3.9770	 3.7860
 3.9800	 3.8390
 3.9830	 3.8660
 3.9860	 3.8220
 3.9890	 3.8120
 3.9920	 3.8440
 3.9950	 3.8420
 3.9980	 3.8330
 4.0010	 3.7940
 4.0040	 3.8090
 4.0070	 3.8440
 4.0100	 3.8680
 4.0130	 3.8760
 4.0170	 3.8730
 4.0200	 3.7730
 4.0230	 3.7630
 4.0260	 3.7970
 4.0290	 3.8180
 4.0320	 3.8930
 4.0350	 3.9150
 4.0380	 3.8230
 4.0420	 3.7760
 4.0450	 3.7940
 4.0480	 3.8400
 4.0510	 3.8660
 4.0540	 3.8820
 4.0570	 3.9080
 4.0610	 3.9690
 4.0640	 3.9350
 4.0670	 3.8830
 4.0700	 3.8860
 4.0730	 3.8950
 4.0770	 3.8650
 4.0800	 3.8480
 4.0830	 3.8290
 4.0860	 3.8590
 4.0890	 3.8620
 4.0930	 3.8890
 4.0960	 3.8800
 4.0990	 3.8580
 4.1020	 3.8860
 4.1060	 3.9660
 4.1090	 3.9250
 4.1120	 3.9680
 4.1150	 3.9760
 4.1190	 3.9800
 4.1220	 3.9390
 4.1250	 3.8770
 4.1280	 3.8600
 4.1320	 3.8740
 4.1350	 3.8660
 4.1380	 3.9250
 4.1420	 3.9300
 4.1450	 3.9190
 4.1480	 3.8900
 4.1520	 3.8350
 4.1550	 3.7940
 4.1580	 3.8250
 4.1620	 3.8260
 4.1650	 3.7900
 4.1680	 3.7720
 4.1720	 3.7970
 4.1750	 3.8280
 4.1780	 3.8750
 4.1820	 3.8540
 4.1850	 3.8120
 4.1890	 3.7800
 4.1920	 3.7830
 4.1950	 3.8130
 4.1990	 3.9190
 4.2020	 4.0010
 4.2060	 3.9560
 4.2090	 3.8130
 4.2120	 3.8450
 4.2160	 3.9580
 4.2190	 4.0910
 4.2230	 4.0880
 4.2260	 3.9620
 4.2300	 3.7250
 4.2330	 3.8110
 4.2360	 4.0650
 4.2400	 4.1270
 4.2430	 3.8240
 4.2470	 3.8530
 4.2500	 4.0010
 4.2540	 3.9380
 4.2570	 3.9620
 4.2610	 3.9690
 4.2640	 3.7890
 4.2680	 3.7930
 4.2710	 3.8880
 4.2750	 3.8920
 4.2780	 3.8340
 4.2820	 3.7670
 4.2850	 3.7820
 4.2890	 3.9390
 4.2930	 3.9050
 4.2960	 3.8020
 4.3000	 3.7740
 4.3030	 3.7640
 4.3070	 3.8050
 4.3100	 3.8200
 4.3140	 3.7490
 4.3180	 3.7350
 4.3210	 3.7270
 4.3250	 3.7260
 4.3280	 3.6800
 4.3320	 3.6860
 4.3360	 3.6990
 4.3390	 3.6610
 4.3430	 3.6260
 4.3470	 3.6390
 4.3500	 3.5880
 4.3540	 3.5750
 4.3570	 3.5460
 4.3610	 3.5590
 4.3650	 3.6490
 4.3680	 3.5870
 4.3720	 3.5320
 4.3760	 3.5750
 4.3800	 3.5700
 4.3830	 3.5430
 4.3870	 3.5260
 4.3910	 3.5050
 4.3940	 3.5220
 4.3980	 3.5340
 4.4020	 3.5060
 4.4060	 3.4770
 4.4090	 3.4450
 4.4130	 3.4650
 4.4170	 3.4710
 4.4210	 3.4390
 4.4240	 3.4580
 4.4280	 3.4820
 4.4320	 3.4930
 4.4360	 3.4610
 4.4400	 3.4330
 4.4430	 3.4840
 4.4470	 3.5030
 4.4510	 3.4720
 4.4550	 3.4540
 4.4590	 3.4560
 4.4620	 3.4240
 4.4660	 3.3770
 4.4700	 3.3740
 4.4740	 3.4320
 4.4780	 3.4520
 4.4820	 3.4110
 4.4860	 3.4030
 4.4900	 3.4110
 4.4930	 3.3850
 4.4970	 3.3830
 4.5010	 3.4160
 4.5050	 3.4100
 4.5090	 3.3840
 4.5130	 3.3680
 4.5170	 3.3300
 4.5210	 3.3450
 4.5250	 3.3890
 4.5290	 3.3670
 4.5330	 3.3770
 4.5370	 3.4340
 4.5410	 3.4140
 4.5450	 3.3400
 4.5490	 3.2870
 4.5530	 3.3230
 4.5570	 3.3590
 4.5610	 3.3630
 4.5650	 3.3140
 4.5690	 3.2770
 4.5730	 3.3220
 4.5770	 3.3990
 4.5810	 3.3330
 4.5850	 3.3030
 4.5890	 3.3210
 4.5930	 3.2840
 4.5970	 3.2800
 4.6010	 3.3700
 4.6050	 3.3560
 4.6090	 3.2450
 4.6130	 3.3990
 4.6170	 3.5200
 4.6220	 3.4900
 4.6260	 3.3760
 4.6300	 3.2990
 4.6340	 3.2670
 4.6380	 3.2010
 4.6420	 3.1880
 4.6460	 3.2050
 4.6510	 3.2010
 4.6550	 3.2290
 4.6590	 3.2630
 4.6630	 3.2680
 4.6670	 3.2850
 4.6720	 3.2370
 4.6760	 3.1680
 4.6800	 3.1870
 4.6840	 3.2720
 4.6880	 3.2710
 4.6930	 3.2580
 4.6970	 3.2810
 4.7010	 3.2670
 4.7050	 3.2560
 4.7100	 3.2160
 4.7140	 3.2580
 4.7180	 3.2760
 4.7230	 3.1970
 4.7270	 3.1470
 4.7310	 3.1750
 4.7360	 3.2230
 4.7400	 3.2440
 4.7440	 3.2280
 4.7490	 3.1830
 4.7530	 3.1740
 4.7570	 3.1710
 4.7620	 3.1810
 4.7660	 3.2950
 4.7700	 3.3290
 4.7750	 3.2900
 4.7790	 3.3640
 4.7840	 3.3760
 4.7880	 3.4130
 4.7920	 3.4390
 4.7970	 3.2760
 4.8010	 3.1890
 4.8060	 3.2470
 4.8100	 3.2610
 4.8150	 3.2170
 4.8190	 3.2770
 4.8240	 3.3070
 4.8280	 3.2870
 4.8330	 3.2820
 4.8370	 3.2960
 4.8420	 3.2980
 4.8460	 3.3030
 4.8510	 3.2660
 4.8550	 3.2750
 4.8600	 3.2610
 4.8640	 3.2620
 4.8690	 3.2540
 4.8730	 3.2940
 4.8780	 3.2470
 4.8830	 3.2060
 4.8870	 3.2060
 4.8920	 3.2410
 4.8960	 3.2560
 4.9010	 3.2740
 4.9060	 3.2720
 4.9100	 3.2950
 4.9150	 3.2890
 4.9200	 3.2770
 4.9240	 3.2830
 4.9290	 3.2510
 4.9340	 3.2530
 4.9380	 3.3180
 4.9430	 3.3150
 4.9480	 3.3290
 4.9530	 3.2960
 4.9570	 3.2710
 4.9620	 3.2740
 4.9670	 3.2810
 4.9720	 3.3060
 4.9760	 3.3040
 4.9810	 3.2720
 4.9860	 3.3090
 4.9910	 3.3070
 4.9960	 3.3620
 5.0000	 3.3830
 5.0050	 3.3590
 5.0100	 3.2950
 5.0150	 3.3290
 5.0200	 3.3820
 5.0250	 3.3700
 5.0290	 3.3300
 5.0340	 3.3580
 5.0390	 3.3810
 5.0440	 3.3800
 5.0490	 3.3180
 5.0540	 3.3070
 5.0590	 3.3750
 5.0640	 3.4100
 5.0690	 3.3740
 5.0740	 3.3980
 5.0790	 3.3910
 5.0840	 3.3870
 5.0890	 3.3610
 5.0940	 3.3840
 5.0990	 3.3700
 5.1040	 3.3730
 5.1090	 3.3860
 5.1140	 3.3930
 5.1190	 3.3850
 5.1240	 3.3660
 5.1290	 3.3900
 5.1340	 3.4840
 5.1390	 3.4850
 5.1440	 3.4870
 5.1490	 3.4460
 5.1540	 3.4030
 5.1600	 3.3750
 5.1650	 3.4220
 5.1700	 3.4550
 5.1750	 3.5070
 5.1800	 3.4740
 5.1850	 3.4620
 5.1910	 3.4510
 5.1960	 3.4590
 5.2010	 3.4210
 5.2060	 3.4030
 5.2110	 3.3790
 5.2170	 3.3660
 5.2220	 3.3800
 5.2270	 3.4070
 5.2320	 3.4070
 5.2380	 3.4810
 5.2430	 3.4290
 5.2480	 3.3980
 5.2540	 3.4190
 5.2590	 3.4200
 5.2640	 3.4370
 5.2700	 3.4650
 5.2750	 3.3590
 5.2800	 3.3300
 5.2860	 3.3950
 5.2910	 3.4900
 5.2970	 3.4290
 5.3020	 3.3700
 5.3070	 3.3700
 5.3130	 3.4060
 5.3180	 3.3970
 5.3240	 3.4460
 5.3290	 3.4080
 5.3350	 3.4110
 5.3400	 3.4320
 5.3460	 3.4170
 5.3510	 3.3700
 5.3570	 3.3550
 5.3620	 3.3020
 5.3680	 3.3620
 5.3730	 3.4410
 5.3790	 3.4410
 5.3850	 3.3650
 5.3900	 3.3910
 5.3960	 3.4010
 5.4010	 3.3580
 5.4070	 3.3090
 5.4130	 3.2860
 5.4180	 3.2880
 5.4240	 3.3060
 5.4300	 3.2650
 5.4350	 3.2970
 5.4410	 3.2610
 5.4470	 3.2830
 5.4530	 3.2640
 5.4580	 3.2730
 5.4640	 3.1950
 5.4700	 3.1980
 5.4760	 3.2070
 5.4810	 3.2090
 5.4870	 3.1710
 5.4930	 3.1720
 5.4990	 3.1450
 5.5050	 3.1450
 5.5110	 3.0890
 5.5160	 3.0220
 5.5220	 2.9840
 5.5280	 3.0390
 5.5340	 3.0250
 5.5400	 3.0420
 5.5460	 3.0080
 5.5520	 2.9710
 5.5580	 2.9210
 5.5640	 2.9710
 5.5700	 2.9600
 5.5760	 2.8720
 5.5820	 2.8150
 5.5880	 2.8540
 5.5940	 2.8270
 5.6000	 2.8210
 5.6060	 2.7530
 5.6120	 2.7110
 5.6180	 2.6910
 5.6240	 2.7510
 5.6300	 2.6880
 5.6360	 2.5890
 5.6420	 2.4760
 5.6490	 2.4810
 5.6550	 2.4690
 5.6610	 2.4680
 5.6670	 2.3690
 5.6730	 2.2980
 5.6800	 2.2270
 5.6860	 2.2020
 5.6920	 2.1450
 5.6980	 2.1490
 5.7040	 2.0680
 5.7110	 1.9560
 5.7170	 1.7950
 5.7230	 1.7170
 5.7300	 1.6570
 5.7360	 1.6580
 5.7420	 1.7200
 5.7490	 2.0310
 5.7550	 2.4480
 5.7620	 3.0480
 5.7680	 3.6110
 5.7740	 4.0250
 5.7810	 4.1780
 5.7870	 4.2290
 5.7940	 4.0880
 5.8000	 3.9180
 5.8070	 3.7220
 5.8130	 3.6840
 5.8200	 3.6330
 5.8260	 3.6050
 5.8330	 3.5250
 5.8390	 3.4960
 5.8460	 3.4480
 5.8530	 3.5140
 5.8590	 3.4760
 5.8660	 3.4720
 5.8720	 3.4450
 5.8790	 3.4870
 5.8860	 3.4910
 5.8920	 3.4940
 5.8990	 3.4870
 5.9060	 3.5530
 5.9130	 3.5430
 5.9190	 3.5770
 5.9260	 3.5590
 5.9330	 3.6030
 5.9400	 3.6560
 5.9470	 3.7180
 5.9530	 3.7000
 5.9600	 3.7440
 5.9670	 3.7150
 5.9740	 3.7000
 5.9810	 3.6640
 5.9880	 3.7180
 5.9950	 3.6820
 6.0020	 3.7020
 6.0090	 3.6830
 6.0160	 3.6590
 6.0230	 3.5780
 6.0300	 3.6220
 6.0370	 3.6400
 6.0440	 3.6540
 6.0510	 3.6550
 6.0580	 3.6970
 6.0650	 3.6940
 6.0720	 3.7240
 6.0790	 3.7220
 6.0860	 3.8600
 6.0930	 3.8880
 6.1000	 3.9740
 6.1080	 4.0050
 6.1150	 4.1580
 6.1220	 4.2380
 6.1290	 4.3720
 6.1370	 4.4380
 6.1440	 4.5740
 6.1510	 4.6460
 6.1580	 4.6550
 6.1660	 4.6290
 6.1730	 4.6970
 6.1800	 4.5420
 6.1880	 4.4820
 6.1950	 4.3790
 6.2030	 4.3260
 6.2100	 4.1790
 6.2170	 4.1120
 6.2250	 4.0090
 6.2320	 3.9670
 6.2400	 3.8770
 6.2470	 3.8930
 6.2550	 3.8310
 6.2630	 3.8200
 6.2700	 3.7660
 6.2780	 3.7260
 6.2850	 3.5780
 6.2930	 3.5990
 6.3010	 3.5440
 6.3080	 3.5600
 6.3160	 3.5370
 6.3240	 3.5410
 6.3310	 3.3860
 6.3390	 3.3760
 6.3470	 3.3530
 6.3550	 3.4000
 6.3620	 3.3700
 6.3700	 3.4650
 6.3780	 3.4450
 6.3860	 3.4620
 6.3940	 3.3820
 6.4020	 3.3710
 6.4100	 3.3580
 6.4180	 3.3950
 6.4260	 3.3170
 6.4330	 3.3270
 6.4410	 3.2500
 6.4490	 3.2290
 6.4580	 3.2150
 6.4660	 3.3020
 6.4740	 3.2730
 6.4820	 3.2420
 6.4900	 3.2170
 6.4980	 3.2340
 6.5060	 3.1400
 6.5140	 3.2100
 6.5230	 3.1820
 6.5310	 3.1990
 6.5390	 3.1480
 6.5470	 3.1450
 6.5550	 3.0520
 6.5640	 3.0670
 6.5720	 3.0450
 6.5800	 3.0710
 6.5890	 2.9940
 6.5970	 2.9730
 6.6060	 2.9100
 6.6140	 2.9540
 6.6220	 2.9630
 6.6310	 2.9840
 6.6390	 2.8680
 6.6480	 2.9200
 6.6560	 2.9570
 6.6650	 2.9790
 6.6740	 2.8840
 6.6820	 2.8710
 6.6910	 2.8820
 6.6990	 2.9650
 6.7080	 2.8980
 6.7170	 2.8360
 6.7260	 2.6730
 6.7340	 2.6210
 6.7430	 2.5900
 6.7520	 2.6110
 6.7610	 2.5180
 6.7690	 2.6300
 6.7780	 2.7260
 6.7870	 2.9220
 6.7960	 3.0040
 6.8050	 3.0950
 6.8140	 3.0270
 6.8230	 3.0790
 6.8320	 3.1560
 6.8410	 3.3470
 6.8500	 3.3410
 6.8590	 3.2730
 6.8680	 3.1480
 6.8770	 3.2050
 6.8860	 3.1070
 6.8950	 3.0680
 6.9050	 3.0270
 6.9140	 3.1260
 6.9230	 3.0740
 6.9320	 3.0600
 6.9420	 2.9220
 6.9510	 2.9830
 6.9600	 3.0470
 6.9700	 3.1020
 6.9790	 3.0260
 6.9880	 3.0320
 6.9980	 2.9240
 7.0070	 2.9950
 7.0170	 2.9080
 7.0260	 2.8810
 7.0360	 2.8500
 7.0450	 2.9310
 7.0550	 2.9340
 7.0650	 2.9980
 7.0740	 2.9730
 7.0840	 3.0760
 7.0940	 3.0790
 7.1030	 3.0920
 7.1130	 3.0310
 7.1230	 3.1120
 7.1330	 3.0970
 7.1420	 3.1200
 7.1520	 3.0150
 7.1620	 3.0560
 7.1720	 3.0030
 7.1820	 3.0500
 7.1920	 3.0060
 7.2020	 3.0090
 7.2120	 2.9100
 7.2220	 2.9760
 7.2320	 2.9850
 7.2420	 3.0400
 7.2520	 2.9630
 7.2620	 3.0430
 7.2730	 3.0140
 7.2830	 3.0560
 7.2930	 2.9580
 7.3030	 2.9900
 7.3140	 2.9350
 7.3240	 2.9240
 7.3340	 2.8080
 7.3450	 2.8640
 7.3550	 2.9010
 7.3660	 3.0010
 7.3760	 2.9570
 7.3870	 2.9940
 7.3970	 2.9090
 7.4080	 2.9520
 7.4180	 2.9100
 7.4290	 2.9750
 7.4400	 2.8880
 7.4500	 3.0130
 7.4610	 3.0520
 7.4720	 3.0970
 7.4830	 3.0240
 7.4930	 3.1410
 7.5040	 3.1040
 7.5150	 3.2070
 7.5260	 3.1890
 7.5370	 3.2840
 7.5480	 3.3260
 7.5590	 3.5180
 7.5700	 3.5460
 7.5810	 3.7010
 7.5920	 3.6990
 7.6030	 3.6940
 7.6140	 3.5110
 7.6260	 3.3570
 7.6370	 3.1830
 7.6480	 3.2930
 7.6590	 3.2130
 7.6710	 3.1230
 7.6820	 2.9530
 7.6930	 2.9610
 7.7050	 2.8940
 7.7160	 2.9050
 7.7280	 2.7640
 7.7390	 2.8190
 7.7510	 2.7800
 7.7630	 2.8430
 7.7740	 2.7340
 7.7860	 2.7390
 7.7980	 2.7360
 7.8090	 2.8130
 7.8210	 2.7220
 7.8330	 2.8430
 7.8450	 2.8400
 7.8570	 2.8470
 7.8690	 2.7480
 7.8810	 2.7960
 7.8930	 2.6980
 7.9050	 2.7350
 7.9170	 2.6960
 7.9290	 2.8030
 7.9410	 2.7630
 7.9530	 2.8510
 7.9650	 2.6880
 7.9780	 2.7020
 7.9900	 2.6540
 8.0020	 2.7580
 8.0150	 2.7410
 8.0270	 2.7950
 8.0390	 2.6570
 8.0520	 2.7530
 8.0640	 2.7110
 8.0770	 2.7840
 8.0900	 2.7010
 8.1020	 2.8050
 8.1150	 2.7880
 8.1280	 2.8660
 8.1400	 2.7840
 8.1530	 2.9260
 8.1660	 2.8050
 8.1790	 2.8920
 8.1920	 2.8370
 8.2050	 2.8710
 8.2180	 2.7060
 8.2310	 2.7430
 8.2440	 2.6210
 8.2570	 2.8160
 8.2700	 2.8150
 8.2830	 2.8110
 8.2970	 2.7250
 8.3100	 2.9430
 8.3230	 2.8600
 8.3370	 2.9430
 8.3500	 2.7760
 8.3640	 2.7470
 8.3770	 2.5810
 8.3910	 2.7560
 8.4040	 2.7490
 8.4180	 2.8350
 8.4320	 2.7110
 8.4450	 2.8550
 8.4590	 2.7340
 8.4730	 2.8210
 8.4870	 2.7710
 8.5010	 2.8640
 8.5150	 2.7530
 8.5290	 2.8620
 8.5430	 2.7580
 8.5570	 2.9280
 8.5710	 2.8450
 8.5850	 2.8650
 8.5990	 2.8330
 8.6140	 3.0410
 8.6280	 2.9200
 8.6420	 2.9470
 8.6570	 2.8070
 8.6710	 2.9490
 8.6860	 2.9270
 8.7000	 3.0740
 8.7150	 3.0250
 8.7300	 3.1500
 8.7440	 2.9500
 8.7590	 2.9410
 8.7740	 2.8320
 8.7890	 2.9420
 8.8040	 2.8730
 8.8190	 2.9990
 8.8340	 2.8590
 8.8490	 3.0170
 8.8640	 2.9660
 8.8790	 3.0990
 8.8940	 2.9410
 8.9100	 3.0680
 8.9250	 2.9460
 8.9400	 3.0980
 8.9560	 3.0760
 8.9710	 3.2590
 8.9870	 3.0980
 9.0020	 3.1780
 9.0180	 2.9930
 9.0340	 2.9830
 9.0500	 2.8200
 9.0650	 3.0210
 9.0810	 3.0110
 9.0970	 3.1270
 9.1130	 2.9580
 9.1290	 3.0440
 9.1450	 2.9020
 9.1610	 3.0890
 9.1780	 3.0560
 9.1940	 3.1830
 9.2100	 3.0110
 9.2270	 3.0850
 9.2430	 2.9420
 9.2600	 3.2230
 9.2760	 3.1470
 9.2930	 3.2780
 9.3090	 3.2020
 9.3260	 3.3060
 9.3430	 3.1450
 9.3600	 3.3120
 9.3770	 3.1240
 9.3940	 3.1040
 9.4110	 3.0290
 9.4280	 3.3080
 9.4450	 3.2490
 9.4620	 3.3050
 9.4800	 3.1360
 9.4970	 3.2890
 9.5140	 3.2200
 9.5320	 3.4460
 9.5500	 3.2360
 9.5670	 3.3200
 9.5850	 3.2170
 9.6030	 3.3620
 9.6200	 3.2930
 9.6380	 3.5210
 9.6560	 3.3650
 9.6740	 3.2960
 9.6920	 3.1480
 9.7100	 3.4600
 9.7290	 3.3300
 9.7470	 3.4570
 9.7650	 3.3930
 9.7840	 3.5350
 9.8020	 3.3460
 9.8210	 3.3710
 9.8390	 3.2400
 9.8580	 3.3430
 9.8770	 3.1600
 9.8960	 3.3750
 9.9150	 3.2870
 9.9340	 3.2960
 9.9530	 3.1000
 9.9720	 3.2590
 9.9910	 3.1210
10.0100	 3.4110
10.0300	 3.3500
10.0490	 3.3290
10.0690	 3.1490
10.0880	 3.2970
10.1080	 3.2210
10.1280	 3.2320
10.1480	 2.9720
10.1670	 3.1110
10.1870	 2.9910
10.2070	 3.2300
10.2280	 3.0550
10.2480	 3.0710
10.2680	 2.9410
10.2890	 3.0570
10.3090	 2.9390
10.3300	 3.0970
10.3500	 2.9720
10.3710	 3.1050
10.3920	 3.0110
10.4120	 3.1090
10.4330	 2.8710
10.4540	 2.9300
10.4760	 2.9150
10.4970	 3.2180
10.5180	 3.0490
10.5390	 3.1150
10.5610	 3.0180
10.5820	 3.1360
10.6040	 3.0060
10.6260	 3.1100
10.6480	 3.0130
10.6700	 3.1400
10.6920	 2.8640
10.7140	 3.0240
10.7360	 2.9480
10.7580	 3.0910
10.7800	 2.9320
10.8030	 3.1080
10.8250	 2.9560
10.8480	 3.1930
10.8710	 3.1210
10.8940	 3.1950
10.9170	 3.0680
10.9400	 3.3270
10.9630	 3.1010
10.9860	 3.1080
11.0090	 2.8990
11.0330	 3.0340
11.0560	 3.0380
11.0800	 3.2240
11.1040	 3.0060
11.1270	 3.0720
11.1510	 2.8380
11.1750	 3.0370
11.2000	 2.8830
11.2240	 3.0980
11.2480	 2.9860
11.2730	 2.6540
11.2970	 1.8560
11.3220	 2.5460
11.3470	 2.9110
11.3720	 3.1110
11.3970	 2.9100
11.4220	 2.9120
11.4470	 2.5270
11.4720	 2.6110
11.4980	 2.6520
11.5230	 3.0430
11.5490	 2.9360
11.5750	 3.0260
11.6000	 2.8710
11.6260	 3.0580
11.6530	 2.7690
11.6790	 3.0030
11.7050	 2.9080
11.7320	 3.0570
11.7580	 2.8480
11.7850	 3.0030
11.8120	 2.7880
11.8390	 2.8660
11.8660	 2.6370
11.8930	 2.8650
11.9200	 2.7100
11.9480	 2.9090
11.9760	 2.6930
12.0030	 2.7850
12.0310	 2.6750
12.0590	 3.0300
12.0870	 2.7530
12.1150	 2.8860
12.1440	 2.7590
12.1720	 2.9830
12.2010	 2.6290
12.2300	 2.8090
12.2590	 2.7700
12.2880	 3.0330
12.3170	 2.9100
12.3460	 3.1990
12.3760	 2.9710
12.4050	 3.2050
12.4350	 2.8620
12.4650	 3.0900
12.4950	 2.9650
12.5250	 3.1430
12.5550	 2.9880
12.5860	 3.2810
12.6170	 3.0090
12.6470	 3.2670
12.6780	 3.1130
12.7090	 3.3550
12.7410	 3.1380
12.7720	 3.2400
12.8030	 2.8390
12.8350	 2.8450
12.8670	 2.4370
12.8990	 2.6250
12.9310	 2.4160
12.9640	 2.6470
12.9960	 2.4750
13.0290	 2.8300
13.0610	 2.6790
13.0940	 2.8490
13.1280	 2.4010
13.1610	 2.5410
13.1940	 2.3320
13.2280	 2.5930
13.2620	 2.3610
13.2960	 2.6890
13.3300	 2.3440
13.3640	 2.6030
13.3990	 2.3820
13.4340	 2.6290
13.4690	 2.3410
13.5040	 2.6910
13.5390	 2.4730
13.5740	 2.8460
13.6100	 2.6330
13.6460	 2.9470
13.6820	 2.7760
13.7180	 3.1370
13.7540	 2.6490
13.7910	 2.8360
13.8280	 2.7310
13.8650	 3.3440
13.9020	 3.3930
13.9390	 3.6300
13.9770	 2.9210
14.0150	 3.1840
14.0530	 2.9390
14.0910	 3.1690
14.1290	 2.8720
14.1680	 3.3000
14.2070	 2.8420
14.2460	 3.0130
14.2850	 2.5790
14.3240	 2.9320
14.3640	 2.5310
14.4040	 3.1310
14.4440	 2.8670
14.4840	 3.1040
14.5250	 2.3690
14.5660	 2.7810
14.6070	 2.6830
14.6480	 3.2120
14.6900	 2.6140
14.7310	 2.9640
14.7730	 2.4860
14.8150	 3.1060
14.8580	 2.4220
14.9010	 2.5590
14.9440	 0.2480
14.9870	 0.9830
15.0300	 2.0780
15.0740	 2.8260
15.1180	 2.1970
15.1620	 2.7850
15.2060	 2.4180
15.2510	 3.3010
15.2960	 2.7750
15.3410	 3.1520
15.3870	 2.2020
