Name: Heteromeles arbutifolia 1
Type: vegetation
Class: Shrub
Genus: Heteromeles
Species: arbutifolia
Sample No.: VH206
Owner: UCSB
Wavelength Range: VSWIR
Origin: 34.4907; -119.791; WGS84
Collection Date: 10/13/2013
Description: Samples were collected as part of the HyspIRI Airborne Campaign. 48 individual plants were sampled in three times in 2013 - spring  summer  and fall. The name of the sample includes a 1  2  or 3 which references a different individual of the species. Samples were taken to JPL and processed within 48 hours of collection. The same leaves were processed in the Nicolet and then measured using the ASD.
Measurement: Bidirectional reflectance
First Column: X
Second Column: Y
X Units: Wavelength (micrometers)
Y Units: Reflectance (percentage)
First X Value: 0.35
Last X Value: 2.5
Number of X Values: 2151
Additional Information: vegetation.shrub.heteromeles.arbutifolia.vswir.vh206.ucsb.asd.ancillary.txt

 0.3500	11.4790
 0.3510	11.4270
 0.3520	11.3540
 0.3530	11.2620
 0.3540	11.1660
 0.3550	11.1010
 0.3560	11.0760
 0.3570	11.1030
 0.3580	11.1660
 0.3590	11.0100
 0.3600	10.9410
 0.3610	11.0270
 0.3620	10.9330
 0.3630	10.9080
 0.3640	10.9570
 0.3650	10.9910
 0.3660	10.7950
 0.3670	10.6930
 0.3680	10.7260
 0.3690	10.7370
 0.3700	10.7790
 0.3710	10.7570
 0.3720	10.6730
 0.3730	10.7370
 0.3740	10.8070
 0.3750	10.7670
 0.3760	10.5940
 0.3770	10.6330
 0.3780	10.7320
 0.3790	10.8020
 0.3800	10.8240
 0.3810	10.7480
 0.3820	10.7130
 0.3830	10.7470
 0.3840	10.5530
 0.3850	10.4420
 0.3860	10.4900
 0.3870	10.6420
 0.3880	10.6870
 0.3890	10.6490
 0.3900	10.5850
 0.3910	10.5620
 0.3920	10.4950
 0.3930	10.4580
 0.3940	10.4980
 0.3950	10.5120
 0.3960	10.5360
 0.3970	10.5150
 0.3980	10.3910
 0.3990	10.4020
 0.4000	10.4600
 0.4010	10.4710
 0.4020	10.3800
 0.4030	10.3830
 0.4040	10.4090
 0.4050	10.3750
 0.4060	10.4140
 0.4070	10.4060
 0.4080	10.3810
 0.4090	10.4460
 0.4100	10.4410
 0.4110	10.4360
 0.4120	10.4650
 0.4130	10.4480
 0.4140	10.4240
 0.4150	10.4270
 0.4160	10.4690
 0.4170	10.4860
 0.4180	10.4900
 0.4190	10.4960
 0.4200	10.5220
 0.4210	10.5470
 0.4220	10.5520
 0.4230	10.5380
 0.4240	10.5640
 0.4250	10.5890
 0.4260	10.6080
 0.4270	10.6300
 0.4280	10.6350
 0.4290	10.6290
 0.4300	10.6210
 0.4310	10.6270
 0.4320	10.6250
 0.4330	10.6220
 0.4340	10.6230
 0.4350	10.6050
 0.4360	10.6070
 0.4370	10.6310
 0.4380	10.6470
 0.4390	10.6490
 0.4400	10.6730
 0.4410	10.7270
 0.4420	10.7500
 0.4430	10.7510
 0.4440	10.7450
 0.4450	10.7480
 0.4460	10.7730
 0.4470	10.7890
 0.4480	10.7840
 0.4490	10.7750
 0.4500	10.7820
 0.4510	10.7930
 0.4520	10.7970
 0.4530	10.8080
 0.4540	10.8260
 0.4550	10.8390
 0.4560	10.8300
 0.4570	10.8350
 0.4580	10.8270
 0.4590	10.8040
 0.4600	10.8160
 0.4610	10.8350
 0.4620	10.8360
 0.4630	10.8110
 0.4640	10.8210
 0.4650	10.8320
 0.4660	10.8260
 0.4670	10.8100
 0.4680	10.8080
 0.4690	10.8080
 0.4700	10.8010
 0.4710	10.8140
 0.4720	10.8170
 0.4730	10.8110
 0.4740	10.8070
 0.4750	10.8020
 0.4760	10.8030
 0.4770	10.8110
 0.4780	10.8190
 0.4790	10.8090
 0.4800	10.7950
 0.4810	10.7960
 0.4820	10.8010
 0.4830	10.7960
 0.4840	10.7830
 0.4850	10.7800
 0.4860	10.7790
 0.4870	10.7820
 0.4880	10.7910
 0.4890	10.7830
 0.4900	10.7920
 0.4910	10.8140
 0.4920	10.8270
 0.4930	10.8560
 0.4940	10.8770
 0.4950	10.8880
 0.4960	10.9190
 0.4970	10.9480
 0.4980	10.9750
 0.4990	11.0030
 0.5000	11.0340
 0.5010	11.0600
 0.5020	11.0900
 0.5030	11.1450
 0.5040	11.1930
 0.5050	11.2440
 0.5060	11.3040
 0.5070	11.3660
 0.5080	11.4330
 0.5090	11.5060
 0.5100	11.5870
 0.5110	11.6770
 0.5120	11.7790
 0.5130	11.8920
 0.5140	12.0050
 0.5150	12.1370
 0.5160	12.2770
 0.5170	12.4150
 0.5180	12.5690
 0.5190	12.7340
 0.5200	12.9060
 0.5210	13.0820
 0.5220	13.2600
 0.5230	13.4500
 0.5240	13.6470
 0.5250	13.8210
 0.5260	13.9900
 0.5270	14.1610
 0.5280	14.3330
 0.5290	14.4930
 0.5300	14.6400
 0.5310	14.7760
 0.5320	14.9010
 0.5330	15.0150
 0.5340	15.1230
 0.5350	15.2250
 0.5360	15.3190
 0.5370	15.3990
 0.5380	15.4650
 0.5390	15.5210
 0.5400	15.5650
 0.5410	15.5990
 0.5420	15.6260
 0.5430	15.6460
 0.5440	15.6840
 0.5450	15.7360
 0.5460	15.7940
 0.5470	15.8800
 0.5480	15.9630
 0.5490	16.0240
 0.5500	16.0660
 0.5510	16.0900
 0.5520	16.1050
 0.5530	16.1180
 0.5540	16.1190
 0.5550	16.1030
 0.5560	16.0730
 0.5570	16.0410
 0.5580	15.9980
 0.5590	15.9370
 0.5600	15.8580
 0.5610	15.7730
 0.5620	15.6800
 0.5630	15.5770
 0.5640	15.4620
 0.5650	15.3360
 0.5660	15.2090
 0.5670	15.0840
 0.5680	14.9520
 0.5690	14.8240
 0.5700	14.6980
 0.5710	14.5690
 0.5720	14.4400
 0.5730	14.3210
 0.5740	14.2110
 0.5750	14.1040
 0.5760	13.9890
 0.5770	13.8870
 0.5780	13.8060
 0.5790	13.7220
 0.5800	13.6510
 0.5810	13.5850
 0.5820	13.5160
 0.5830	13.4510
 0.5840	13.4000
 0.5850	13.3590
 0.5860	13.3110
 0.5870	13.2590
 0.5880	13.2070
 0.5890	13.1600
 0.5900	13.1120
 0.5910	13.0690
 0.5920	13.0310
 0.5930	12.9960
 0.5940	12.9730
 0.5950	12.9570
 0.5960	12.9390
 0.5970	12.9150
 0.5980	12.8980
 0.5990	12.8800
 0.6000	12.8520
 0.6010	12.8250
 0.6020	12.7990
 0.6030	12.7700
 0.6040	12.7320
 0.6050	12.6920
 0.6060	12.6480
 0.6070	12.6010
 0.6080	12.5480
 0.6090	12.4820
 0.6100	12.3950
 0.6110	12.2920
 0.6120	12.2470
 0.6130	12.2330
 0.6140	12.2190
 0.6150	12.1830
 0.6160	12.1490
 0.6170	12.1180
 0.6180	12.0840
 0.6190	12.0540
 0.6200	12.0200
 0.6210	11.9880
 0.6220	11.9720
 0.6230	11.9580
 0.6240	11.9440
 0.6250	11.9310
 0.6260	11.9190
 0.6270	11.9110
 0.6280	11.9060
 0.6290	11.9000
 0.6300	11.8900
 0.6310	11.8810
 0.6320	11.8750
 0.6330	11.8700
 0.6340	11.8570
 0.6350	11.8370
 0.6360	11.8100
 0.6370	11.7760
 0.6380	11.7380
 0.6390	11.6940
 0.6400	11.6400
 0.6410	11.5900
 0.6420	11.5380
 0.6430	11.4820
 0.6440	11.4300
 0.6450	11.3800
 0.6460	11.3310
 0.6470	11.2800
 0.6480	11.2360
 0.6490	11.2000
 0.6500	11.1680
 0.6510	11.1360
 0.6520	11.1150
 0.6530	11.0970
 0.6540	11.0730
 0.6550	11.0540
 0.6560	11.0320
 0.6570	11.0090
 0.6580	10.9850
 0.6590	10.9550
 0.6600	10.9250
 0.6610	10.8980
 0.6620	10.8740
 0.6630	10.8480
 0.6640	10.8260
 0.6650	10.8100
 0.6660	10.7910
 0.6670	10.7800
 0.6680	10.7760
 0.6690	10.7730
 0.6700	10.7730
 0.6710	10.7780
 0.6720	10.7880
 0.6730	10.8000
 0.6740	10.8180
 0.6750	10.8390
 0.6760	10.8590
 0.6770	10.8770
 0.6780	10.9070
 0.6790	10.9460
 0.6800	10.9810
 0.6810	11.0270
 0.6820	11.0750
 0.6830	11.1240
 0.6840	11.1830
 0.6850	11.2580
 0.6860	11.3440
 0.6870	11.4380
 0.6880	11.5560
 0.6890	11.6990
 0.6900	11.8730
 0.6910	12.0830
 0.6920	12.3360
 0.6930	12.6450
 0.6940	13.0210
 0.6950	13.4720
 0.6960	14.0070
 0.6970	14.6230
 0.6980	15.3190
 0.6990	16.1120
 0.7000	16.9880
 0.7010	17.9350
 0.7020	18.9440
 0.7030	20.0260
 0.7040	21.1540
 0.7050	22.3070
 0.7060	23.5050
 0.7070	24.7250
 0.7080	25.9610
 0.7090	27.2190
 0.7100	28.4890
 0.7110	29.7550
 0.7120	31.0140
 0.7130	32.2770
 0.7140	33.5430
 0.7150	34.7910
 0.7160	36.0080
 0.7170	37.2220
 0.7180	38.4110
 0.7190	39.5760
 0.7200	40.7200
 0.7210	41.8310
 0.7220	42.9100
 0.7230	43.9610
 0.7240	44.9800
 0.7250	45.9590
 0.7260	46.8950
 0.7270	47.7900
 0.7280	48.6490
 0.7290	49.4710
 0.7300	50.2510
 0.7310	50.9860
 0.7320	51.6840
 0.7330	52.3420
 0.7340	52.9660
 0.7350	53.5680
 0.7360	54.1290
 0.7370	54.6480
 0.7380	55.1310
 0.7390	55.5770
 0.7400	56.0210
 0.7410	56.4490
 0.7420	56.8300
 0.7430	57.1760
 0.7440	57.4970
 0.7450	57.7990
 0.7460	58.0880
 0.7470	58.3480
 0.7480	58.5890
 0.7490	58.8160
 0.7500	59.0130
 0.7510	59.2010
 0.7520	59.3740
 0.7530	59.5220
 0.7540	59.6870
 0.7550	59.8190
 0.7560	59.9190
 0.7570	60.0300
 0.7580	60.1280
 0.7590	60.2190
 0.7600	60.3060
 0.7610	60.3860
 0.7620	60.4500
 0.7630	60.5050
 0.7640	60.5560
 0.7650	60.6040
 0.7660	60.6460
 0.7670	60.6830
 0.7680	60.7170
 0.7690	60.7500
 0.7700	60.7900
 0.7710	60.8310
 0.7720	60.8610
 0.7730	60.8810
 0.7740	60.8990
 0.7750	60.9230
 0.7760	60.9410
 0.7770	60.9520
 0.7780	60.9730
 0.7790	61.0190
 0.7800	61.0360
 0.7810	61.0370
 0.7820	61.0460
 0.7830	61.0850
 0.7840	61.1070
 0.7850	61.1220
 0.7860	61.1440
 0.7870	61.1680
 0.7880	61.1740
 0.7890	61.1810
 0.7900	61.2100
 0.7910	61.2230
 0.7920	61.2500
 0.7930	61.2780
 0.7940	61.2760
 0.7950	61.2870
 0.7960	61.3120
 0.7970	61.3350
 0.7980	61.3350
 0.7990	61.3650
 0.8000	61.4030
 0.8010	61.4260
 0.8020	61.4420
 0.8030	61.4580
 0.8040	61.4740
 0.8050	61.4860
 0.8060	61.5180
 0.8070	61.5320
 0.8080	61.5320
 0.8090	61.5630
 0.8100	61.5810
 0.8110	61.5950
 0.8120	61.6140
 0.8130	61.6320
 0.8140	61.6570
 0.8150	61.6830
 0.8160	61.7040
 0.8170	61.7070
 0.8180	61.7330
 0.8190	61.7700
 0.8200	61.7910
 0.8210	61.8080
 0.8220	61.8270
 0.8230	61.8460
 0.8240	61.8550
 0.8250	61.8830
 0.8260	61.8990
 0.8270	61.9030
 0.8280	61.9560
 0.8290	61.9740
 0.8300	61.9790
 0.8310	62.0010
 0.8320	62.0100
 0.8330	62.0200
 0.8340	62.0370
 0.8350	62.0590
 0.8360	62.0820
 0.8370	62.1030
 0.8380	62.1240
 0.8390	62.1530
 0.8400	62.1810
 0.8410	62.1940
 0.8420	62.1930
 0.8430	62.2000
 0.8440	62.2150
 0.8450	62.2440
 0.8460	62.2870
 0.8470	62.3300
 0.8480	62.3350
 0.8490	62.3250
 0.8500	62.3410
 0.8510	62.3790
 0.8520	62.4000
 0.8530	62.4020
 0.8540	62.4090
 0.8550	62.4370
 0.8560	62.4620
 0.8570	62.4750
 0.8580	62.4880
 0.8590	62.4860
 0.8600	62.5030
 0.8610	62.5400
 0.8620	62.5260
 0.8630	62.5170
 0.8640	62.5330
 0.8650	62.5700
 0.8660	62.5760
 0.8670	62.5850
 0.8680	62.6030
 0.8690	62.6160
 0.8700	62.5970
 0.8710	62.6130
 0.8720	62.6440
 0.8730	62.6320
 0.8740	62.6340
 0.8750	62.6410
 0.8760	62.6480
 0.8770	62.6600
 0.8780	62.6790
 0.8790	62.6810
 0.8800	62.6670
 0.8810	62.6810
 0.8820	62.6760
 0.8830	62.6680
 0.8840	62.6740
 0.8850	62.6770
 0.8860	62.6810
 0.8870	62.6850
 0.8880	62.6870
 0.8890	62.6940
 0.8900	62.7100
 0.8910	62.7220
 0.8920	62.7130
 0.8930	62.7030
 0.8940	62.6970
 0.8950	62.6930
 0.8960	62.6870
 0.8970	62.7010
 0.8980	62.7030
 0.8990	62.6880
 0.9000	62.6730
 0.9010	62.6640
 0.9020	62.6630
 0.9030	62.6690
 0.9040	62.6800
 0.9050	62.6850
 0.9060	62.6730
 0.9070	62.6480
 0.9080	62.6510
 0.9090	62.6650
 0.9100	62.6780
 0.9110	62.6790
 0.9120	62.6610
 0.9130	62.6460
 0.9140	62.6430
 0.9150	62.6510
 0.9160	62.6450
 0.9170	62.6420
 0.9180	62.6510
 0.9190	62.6680
 0.9200	62.6810
 0.9210	62.6500
 0.9220	62.6000
 0.9230	62.5840
 0.9240	62.5770
 0.9250	62.5770
 0.9260	62.5820
 0.9270	62.5880
 0.9280	62.5610
 0.9290	62.5420
 0.9300	62.5270
 0.9310	62.4750
 0.9320	62.4740
 0.9330	62.4810
 0.9340	62.4680
 0.9350	62.4510
 0.9360	62.4330
 0.9370	62.4060
 0.9380	62.3690
 0.9390	62.3380
 0.9400	62.3090
 0.9410	62.2900
 0.9420	62.2690
 0.9430	62.2010
 0.9440	62.1640
 0.9450	62.1430
 0.9460	62.1120
 0.9470	62.0700
 0.9480	62.0360
 0.9490	61.9900
 0.9500	61.9180
 0.9510	61.8600
 0.9520	61.7680
 0.9530	61.6770
 0.9540	61.6180
 0.9550	61.5390
 0.9560	61.4840
 0.9570	61.4360
 0.9580	61.3730
 0.9590	61.3240
 0.9600	61.2580
 0.9610	61.1900
 0.9620	61.1430
 0.9630	61.0970
 0.9640	61.0450
 0.9650	61.0110
 0.9660	61.0120
 0.9670	60.9680
 0.9680	60.9440
 0.9690	60.9500
 0.9700	60.9600
 0.9710	60.9230
 0.9720	60.8940
 0.9730	60.8820
 0.9740	60.8800
 0.9750	60.9040
 0.9760	60.8800
 0.9770	60.8500
 0.9780	60.8860
 0.9790	60.9200
 0.9800	60.9370
 0.9810	60.9240
 0.9820	60.8880
 0.9830	60.9330
 0.9840	60.9340
 0.9850	60.9100
 0.9860	60.9460
 0.9870	61.0360
 0.9880	61.0820
 0.9890	61.0860
 0.9900	61.1030
 0.9910	61.1440
 0.9920	61.1970
 0.9930	61.2500
 0.9940	61.3030
 0.9950	61.3560
 0.9960	61.4090
 0.9970	61.4620
 0.9980	61.5150
 0.9990	61.5670
 1.0000	61.6200
 1.0010	61.6730
 1.0020	61.7260
 1.0030	61.7790
 1.0040	61.8320
 1.0050	61.8850
 1.0060	61.9370
 1.0070	61.9900
 1.0080	62.0430
 1.0090	62.0960
 1.0100	62.0960
 1.0110	62.1220
 1.0120	62.1450
 1.0130	62.1590
 1.0140	62.1860
 1.0150	62.2180
 1.0160	62.2440
 1.0170	62.2780
 1.0180	62.3190
 1.0190	62.3580
 1.0200	62.3880
 1.0210	62.4230
 1.0220	62.4560
 1.0230	62.4880
 1.0240	62.5200
 1.0250	62.5520
 1.0260	62.5810
 1.0270	62.6110
 1.0280	62.6480
 1.0290	62.6710
 1.0300	62.6770
 1.0310	62.6990
 1.0320	62.7220
 1.0330	62.7420
 1.0340	62.7710
 1.0350	62.8160
 1.0360	62.8450
 1.0370	62.8560
 1.0380	62.8780
 1.0390	62.8980
 1.0400	62.9170
 1.0410	62.9380
 1.0420	62.9600
 1.0430	62.9850
 1.0440	63.0030
 1.0450	63.0260
 1.0460	63.0390
 1.0470	63.0310
 1.0480	63.0390
 1.0490	63.0520
 1.0500	63.0620
 1.0510	63.0740
 1.0520	63.0990
 1.0530	63.1130
 1.0540	63.1210
 1.0550	63.1340
 1.0560	63.1540
 1.0570	63.1630
 1.0580	63.1720
 1.0590	63.1750
 1.0600	63.1640
 1.0610	63.1650
 1.0620	63.1710
 1.0630	63.1760
 1.0640	63.1890
 1.0650	63.1960
 1.0660	63.2010
 1.0670	63.2030
 1.0680	63.2040
 1.0690	63.2020
 1.0700	63.2000
 1.0710	63.1970
 1.0720	63.1910
 1.0730	63.1820
 1.0740	63.1740
 1.0750	63.1620
 1.0760	63.1560
 1.0770	63.1560
 1.0780	63.1540
 1.0790	63.1600
 1.0800	63.1560
 1.0810	63.1470
 1.0820	63.1400
 1.0830	63.1270
 1.0840	63.1180
 1.0850	63.1120
 1.0860	63.1090
 1.0870	63.1030
 1.0880	63.1010
 1.0890	63.0890
 1.0900	63.0690
 1.0910	63.0620
 1.0920	63.0630
 1.0930	63.0520
 1.0940	63.0480
 1.0950	63.0330
 1.0960	62.9980
 1.0970	62.9780
 1.0980	62.9680
 1.0990	62.9500
 1.1000	62.9320
 1.1010	62.9140
 1.1020	62.8910
 1.1030	62.8700
 1.1040	62.8570
 1.1050	62.8420
 1.1060	62.8310
 1.1070	62.8280
 1.1080	62.8170
 1.1090	62.8080
 1.1100	62.7930
 1.1110	62.7730
 1.1120	62.7550
 1.1130	62.7360
 1.1140	62.7170
 1.1150	62.7040
 1.1160	62.6780
 1.1170	62.6510
 1.1180	62.6130
 1.1190	62.5620
 1.1200	62.5090
 1.1210	62.4520
 1.1220	62.3960
 1.1230	62.3420
 1.1240	62.2820
 1.1250	62.2150
 1.1260	62.1470
 1.1270	62.0690
 1.1280	61.9840
 1.1290	61.8930
 1.1300	61.7970
 1.1310	61.6930
 1.1320	61.5830
 1.1330	61.4630
 1.1340	61.3330
 1.1350	61.1940
 1.1360	61.0460
 1.1370	60.8870
 1.1380	60.7250
 1.1390	60.5590
 1.1400	60.3880
 1.1410	60.2190
 1.1420	60.0470
 1.1430	59.8700
 1.1440	59.6930
 1.1450	59.5090
 1.1460	59.3300
 1.1470	59.1460
 1.1480	58.9750
 1.1490	58.8060
 1.1500	58.6470
 1.1510	58.4960
 1.1520	58.3550
 1.1530	58.2210
 1.1540	58.0970
 1.1550	57.9840
 1.1560	57.8810
 1.1570	57.7800
 1.1580	57.6950
 1.1590	57.6160
 1.1600	57.5370
 1.1610	57.4750
 1.1620	57.4170
 1.1630	57.3630
 1.1640	57.3220
 1.1650	57.2810
 1.1660	57.2420
 1.1670	57.2090
 1.1680	57.1830
 1.1690	57.1570
 1.1700	57.1360
 1.1710	57.1120
 1.1720	57.0850
 1.1730	57.0630
 1.1740	57.0430
 1.1750	57.0260
 1.1760	57.0120
 1.1770	56.9960
 1.1780	56.9690
 1.1790	56.9420
 1.1800	56.9120
 1.1810	56.8750
 1.1820	56.8430
 1.1830	56.8140
 1.1840	56.7840
 1.1850	56.7530
 1.1860	56.7270
 1.1870	56.7070
 1.1880	56.6870
 1.1890	56.6700
 1.1900	56.6560
 1.1910	56.6430
 1.1920	56.6280
 1.1930	56.6170
 1.1940	56.6060
 1.1950	56.5940
 1.1960	56.5830
 1.1970	56.5770
 1.1980	56.5730
 1.1990	56.5750
 1.2000	56.5790
 1.2010	56.5910
 1.2020	56.6030
 1.2030	56.6190
 1.2040	56.6460
 1.2050	56.6730
 1.2060	56.7050
 1.2070	56.7370
 1.2080	56.7660
 1.2090	56.7970
 1.2100	56.8350
 1.2110	56.8780
 1.2120	56.9260
 1.2130	56.9760
 1.2140	57.0380
 1.2150	57.0920
 1.2160	57.1430
 1.2170	57.1980
 1.2180	57.2530
 1.2190	57.2990
 1.2200	57.3490
 1.2210	57.4030
 1.2220	57.4560
 1.2230	57.5080
 1.2240	57.5560
 1.2250	57.6080
 1.2260	57.6570
 1.2270	57.7040
 1.2280	57.7560
 1.2290	57.8040
 1.2300	57.8510
 1.2310	57.9010
 1.2320	57.9390
 1.2330	57.9780
 1.2340	58.0200
 1.2350	58.0640
 1.2360	58.1040
 1.2370	58.1480
 1.2380	58.1870
 1.2390	58.2190
 1.2400	58.2460
 1.2410	58.2790
 1.2420	58.3140
 1.2430	58.3460
 1.2440	58.3820
 1.2450	58.4120
 1.2460	58.4370
 1.2470	58.4620
 1.2480	58.4790
 1.2490	58.5000
 1.2500	58.5260
 1.2510	58.5510
 1.2520	58.5800
 1.2530	58.5980
 1.2540	58.6080
 1.2550	58.6190
 1.2560	58.6230
 1.2570	58.6310
 1.2580	58.6470
 1.2590	58.6630
 1.2600	58.6840
 1.2610	58.6990
 1.2620	58.7150
 1.2630	58.7230
 1.2640	58.7210
 1.2650	58.7260
 1.2660	58.7330
 1.2670	58.7280
 1.2680	58.7250
 1.2690	58.7180
 1.2700	58.7090
 1.2710	58.7080
 1.2720	58.7090
 1.2730	58.7030
 1.2740	58.6920
 1.2750	58.6780
 1.2760	58.6670
 1.2770	58.6590
 1.2780	58.6480
 1.2790	58.6340
 1.2800	58.6230
 1.2810	58.6090
 1.2820	58.5910
 1.2830	58.5750
 1.2840	58.5520
 1.2850	58.5260
 1.2860	58.5070
 1.2870	58.4790
 1.2880	58.4460
 1.2890	58.4120
 1.2900	58.3760
 1.2910	58.3250
 1.2920	58.2830
 1.2930	58.2390
 1.2940	58.1900
 1.2950	58.1500
 1.2960	58.1040
 1.2970	58.0550
 1.2980	58.0040
 1.2990	57.9420
 1.3000	57.8750
 1.3010	57.8050
 1.3020	57.7300
 1.3030	57.6560
 1.3040	57.5810
 1.3050	57.5000
 1.3060	57.4160
 1.3070	57.3250
 1.3080	57.2250
 1.3090	57.1260
 1.3100	57.0240
 1.3110	56.9160
 1.3120	56.8090
 1.3130	56.7000
 1.3140	56.5850
 1.3150	56.4670
 1.3160	56.3440
 1.3170	56.2160
 1.3180	56.0840
 1.3190	55.9490
 1.3200	55.8100
 1.3210	55.6640
 1.3220	55.5140
 1.3230	55.3650
 1.3240	55.2120
 1.3250	55.0640
 1.3260	54.9150
 1.3270	54.7500
 1.3280	54.5840
 1.3290	54.4150
 1.3300	54.2420
 1.3310	54.0780
 1.3320	53.9060
 1.3330	53.7260
 1.3340	53.5440
 1.3350	53.3570
 1.3360	53.1690
 1.3370	52.9830
 1.3380	52.7940
 1.3390	52.6020
 1.3400	52.4080
 1.3410	52.2180
 1.3420	52.0280
 1.3430	51.8390
 1.3440	51.6550
 1.3450	51.4710
 1.3460	51.2880
 1.3470	51.1110
 1.3480	50.9390
 1.3490	50.7650
 1.3500	50.5950
 1.3510	50.4220
 1.3520	50.2450
 1.3530	50.0690
 1.3540	49.8950
 1.3550	49.7230
 1.3560	49.5510
 1.3570	49.3800
 1.3580	49.2040
 1.3590	49.0220
 1.3600	48.8320
 1.3610	48.6370
 1.3620	48.4400
 1.3630	48.2390
 1.3640	48.0320
 1.3650	47.8150
 1.3660	47.5860
 1.3670	47.3430
 1.3680	47.0810
 1.3690	46.8080
 1.3700	46.5250
 1.3710	46.2270
 1.3720	45.9180
 1.3730	45.5880
 1.3740	45.2380
 1.3750	44.8700
 1.3760	44.4790
 1.3770	44.0620
 1.3780	43.6210
 1.3790	43.1550
 1.3800	42.6650
 1.3810	42.1510
 1.3820	41.6110
 1.3830	41.0470
 1.3840	40.4580
 1.3850	39.8390
 1.3860	39.2070
 1.3870	38.5510
 1.3880	37.8880
 1.3890	37.2100
 1.3900	36.5200
 1.3910	35.8310
 1.3920	35.1360
 1.3930	34.4380
 1.3940	33.7450
 1.3950	33.0460
 1.3960	32.3600
 1.3970	31.6890
 1.3980	31.0280
 1.3990	30.3940
 1.4000	29.7740
 1.4010	29.1700
 1.4020	28.5930
 1.4030	28.0360
 1.4040	27.5070
 1.4050	27.0080
 1.4060	26.5300
 1.4070	26.0820
 1.4080	25.6580
 1.4090	25.2560
 1.4100	24.8790
 1.4110	24.5260
 1.4120	24.1990
 1.4130	23.8950
 1.4140	23.6180
 1.4150	23.3680
 1.4160	23.1350
 1.4170	22.9190
 1.4180	22.7220
 1.4190	22.5410
 1.4200	22.3780
 1.4210	22.2310
 1.4220	22.0990
 1.4230	21.9810
 1.4240	21.8730
 1.4250	21.7760
 1.4260	21.6900
 1.4270	21.6130
 1.4280	21.5460
 1.4290	21.4880
 1.4300	21.4410
 1.4310	21.3980
 1.4320	21.3630
 1.4330	21.3340
 1.4340	21.3100
 1.4350	21.2930
 1.4360	21.2830
 1.4370	21.2770
 1.4380	21.2760
 1.4390	21.2810
 1.4400	21.2900
 1.4410	21.3020
 1.4420	21.3180
 1.4430	21.3370
 1.4440	21.3600
 1.4450	21.3850
 1.4460	21.4110
 1.4470	21.4420
 1.4480	21.4740
 1.4490	21.5060
 1.4500	21.5410
 1.4510	21.5750
 1.4520	21.6110
 1.4530	21.6470
 1.4540	21.6810
 1.4550	21.7150
 1.4560	21.7500
 1.4570	21.7920
 1.4580	21.8390
 1.4590	21.8900
 1.4600	21.9460
 1.4610	22.0030
 1.4620	22.0630
 1.4630	22.1310
 1.4640	22.2040
 1.4650	22.2840
 1.4660	22.3690
 1.4670	22.4580
 1.4680	22.5510
 1.4690	22.6490
 1.4700	22.7550
 1.4710	22.8630
 1.4720	22.9710
 1.4730	23.0870
 1.4740	23.2060
 1.4750	23.3280
 1.4760	23.4560
 1.4770	23.5840
 1.4780	23.7140
 1.4790	23.8490
 1.4800	23.9880
 1.4810	24.1340
 1.4820	24.2830
 1.4830	24.4280
 1.4840	24.5740
 1.4850	24.7180
 1.4860	24.8610
 1.4870	25.0070
 1.4880	25.1570
 1.4890	25.3060
 1.4900	25.4540
 1.4910	25.6030
 1.4920	25.7500
 1.4930	25.8940
 1.4940	26.0400
 1.4950	26.1870
 1.4960	26.3360
 1.4970	26.4860
 1.4980	26.6350
 1.4990	26.7840
 1.5000	26.9350
 1.5010	27.0860
 1.5020	27.2360
 1.5030	27.3860
 1.5040	27.5340
 1.5050	27.6770
 1.5060	27.8240
 1.5070	27.9740
 1.5080	28.1200
 1.5090	28.2640
 1.5100	28.4060
 1.5110	28.5470
 1.5120	28.6900
 1.5130	28.8310
 1.5140	28.9750
 1.5150	29.1180
 1.5160	29.2550
 1.5170	29.3960
 1.5180	29.5330
 1.5190	29.6650
 1.5200	29.7990
 1.5210	29.9290
 1.5220	30.0590
 1.5230	30.1890
 1.5240	30.3160
 1.5250	30.4430
 1.5260	30.5680
 1.5270	30.6910
 1.5280	30.8130
 1.5290	30.9330
 1.5300	31.0560
 1.5310	31.1790
 1.5320	31.3010
 1.5330	31.4220
 1.5340	31.5390
 1.5350	31.6530
 1.5360	31.7680
 1.5370	31.8830
 1.5380	31.9980
 1.5390	32.1110
 1.5400	32.2230
 1.5410	32.3340
 1.5420	32.4390
 1.5430	32.5430
 1.5440	32.6490
 1.5450	32.7520
 1.5460	32.8590
 1.5470	32.9660
 1.5480	33.0680
 1.5490	33.1720
 1.5500	33.2710
 1.5510	33.3670
 1.5520	33.4630
 1.5530	33.5560
 1.5540	33.6500
 1.5550	33.7500
 1.5560	33.8440
 1.5570	33.9320
 1.5580	34.0200
 1.5590	34.1040
 1.5600	34.1910
 1.5610	34.2840
 1.5620	34.3740
 1.5630	34.4650
 1.5640	34.5540
 1.5650	34.6430
 1.5660	34.7310
 1.5670	34.8200
 1.5680	34.9070
 1.5690	34.9910
 1.5700	35.0740
 1.5710	35.1570
 1.5720	35.2360
 1.5730	35.3140
 1.5740	35.3940
 1.5750	35.4750
 1.5760	35.5600
 1.5770	35.6480
 1.5780	35.7340
 1.5790	35.8200
 1.5800	35.9040
 1.5810	35.9870
 1.5820	36.0710
 1.5830	36.1520
 1.5840	36.2330
 1.5850	36.3160
 1.5860	36.3980
 1.5870	36.4800
 1.5880	36.5630
 1.5890	36.6440
 1.5900	36.7220
 1.5910	36.8000
 1.5920	36.8770
 1.5930	36.9530
 1.5940	37.0280
 1.5950	37.1050
 1.5960	37.1790
 1.5970	37.2540
 1.5980	37.3350
 1.5990	37.4100
 1.6000	37.4850
 1.6010	37.5610
 1.6020	37.6300
 1.6030	37.7030
 1.6040	37.7790
 1.6050	37.8530
 1.6060	37.9280
 1.6070	37.9970
 1.6080	38.0620
 1.6090	38.1280
 1.6100	38.1880
 1.6110	38.2510
 1.6120	38.3200
 1.6130	38.3840
 1.6140	38.4490
 1.6150	38.5140
 1.6160	38.5730
 1.6170	38.6310
 1.6180	38.6840
 1.6190	38.7340
 1.6200	38.7910
 1.6210	38.8470
 1.6220	38.9030
 1.6230	38.9600
 1.6240	39.0120
 1.6250	39.0610
 1.6260	39.1110
 1.6270	39.1600
 1.6280	39.2100
 1.6290	39.2550
 1.6300	39.2960
 1.6310	39.3380
 1.6320	39.3780
 1.6330	39.4180
 1.6340	39.4600
 1.6350	39.4970
 1.6360	39.5320
 1.6370	39.5680
 1.6380	39.6040
 1.6390	39.6380
 1.6400	39.6740
 1.6410	39.7040
 1.6420	39.7320
 1.6430	39.7570
 1.6440	39.7800
 1.6450	39.8020
 1.6460	39.8170
 1.6470	39.8250
 1.6480	39.8250
 1.6490	39.8180
 1.6500	39.8080
 1.6510	39.8000
 1.6520	39.7880
 1.6530	39.7730
 1.6540	39.7520
 1.6550	39.7260
 1.6560	39.7000
 1.6570	39.6690
 1.6580	39.6340
 1.6590	39.5980
 1.6600	39.5600
 1.6610	39.5260
 1.6620	39.4930
 1.6630	39.4600
 1.6640	39.4230
 1.6650	39.3820
 1.6660	39.3430
 1.6670	39.3100
 1.6680	39.2810
 1.6690	39.2560
 1.6700	39.2330
 1.6710	39.2050
 1.6720	39.1760
 1.6730	39.1500
 1.6740	39.1230
 1.6750	39.0940
 1.6760	39.0630
 1.6770	39.0230
 1.6780	38.9750
 1.6790	38.9270
 1.6800	38.8750
 1.6810	38.8210
 1.6820	38.7680
 1.6830	38.7060
 1.6840	38.6380
 1.6850	38.5660
 1.6860	38.4870
 1.6870	38.4040
 1.6880	38.3230
 1.6890	38.2430
 1.6900	38.1610
 1.6910	38.0810
 1.6920	37.9970
 1.6930	37.9040
 1.6940	37.8180
 1.6950	37.7340
 1.6960	37.6530
 1.6970	37.5800
 1.6980	37.5000
 1.6990	37.4210
 1.7000	37.3370
 1.7010	37.2480
 1.7020	37.1580
 1.7030	37.0660
 1.7040	36.9720
 1.7050	36.8720
 1.7060	36.7740
 1.7070	36.6750
 1.7080	36.5780
 1.7090	36.4800
 1.7100	36.3890
 1.7110	36.2980
 1.7120	36.2150
 1.7130	36.1320
 1.7140	36.0490
 1.7150	35.9800
 1.7160	35.9180
 1.7170	35.8600
 1.7180	35.8120
 1.7190	35.7650
 1.7200	35.7230
 1.7210	35.6860
 1.7220	35.6510
 1.7230	35.6230
 1.7240	35.5930
 1.7250	35.5660
 1.7260	35.5420
 1.7270	35.5120
 1.7280	35.4820
 1.7290	35.4550
 1.7300	35.4270
 1.7310	35.4010
 1.7320	35.3810
 1.7330	35.3530
 1.7340	35.3200
 1.7350	35.2890
 1.7360	35.2550
 1.7370	35.2160
 1.7380	35.1810
 1.7390	35.1350
 1.7400	35.0780
 1.7410	35.0240
 1.7420	34.9680
 1.7430	34.9080
 1.7440	34.8470
 1.7450	34.7840
 1.7460	34.7140
 1.7470	34.6460
 1.7480	34.5750
 1.7490	34.5070
 1.7500	34.4360
 1.7510	34.3740
 1.7520	34.3190
 1.7530	34.2620
 1.7540	34.2080
 1.7550	34.1510
 1.7560	34.0950
 1.7570	34.0430
 1.7580	34.0000
 1.7590	33.9670
 1.7600	33.9330
 1.7610	33.8950
 1.7620	33.8580
 1.7630	33.8150
 1.7640	33.7750
 1.7650	33.7390
 1.7660	33.7060
 1.7670	33.6770
 1.7680	33.6470
 1.7690	33.6250
 1.7700	33.5930
 1.7710	33.5530
 1.7720	33.5170
 1.7730	33.4780
 1.7740	33.4420
 1.7750	33.4120
 1.7760	33.3770
 1.7770	33.3350
 1.7780	33.3050
 1.7790	33.2730
 1.7800	33.2550
 1.7810	33.2520
 1.7820	33.2450
 1.7830	33.2440
 1.7840	33.2440
 1.7850	33.2410
 1.7860	33.2530
 1.7870	33.2750
 1.7880	33.2950
 1.7890	33.3150
 1.7900	33.3250
 1.7910	33.3360
 1.7920	33.3470
 1.7930	33.3560
 1.7940	33.3600
 1.7950	33.3680
 1.7960	33.3740
 1.7970	33.3820
 1.7980	33.3950
 1.7990	33.4040
 1.8000	33.4070
 1.8010	33.4170
 1.8020	33.4270
 1.8030	33.4430
 1.8040	33.4670
 1.8050	33.4860
 1.8060	33.5060
 1.8070	33.5230
 1.8080	33.5360
 1.8090	33.5500
 1.8100	33.5630
 1.8110	33.5720
 1.8120	33.5830
 1.8130	33.5930
 1.8140	33.5990
 1.8150	33.6050
 1.8160	33.6060
 1.8170	33.6050
 1.8180	33.6120
 1.8190	33.6160
 1.8200	33.6220
 1.8210	33.6300
 1.8220	33.6370
 1.8230	33.6520
 1.8240	33.6550
 1.8250	33.6530
 1.8260	33.6440
 1.8270	33.6290
 1.8280	33.6150
 1.8290	33.6010
 1.8300	33.5860
 1.8310	33.5720
 1.8320	33.5580
 1.8330	33.5430
 1.8340	33.5290
 1.8350	33.5290
 1.8360	33.4880
 1.8370	33.4550
 1.8380	33.4060
 1.8390	33.3510
 1.8400	33.2920
 1.8410	33.2250
 1.8420	33.1480
 1.8430	33.0730
 1.8440	32.9900
 1.8450	32.8990
 1.8460	32.8050
 1.8470	32.6930
 1.8480	32.5670
 1.8490	32.4280
 1.8500	32.2750
 1.8510	32.1040
 1.8520	31.9260
 1.8530	31.7430
 1.8540	31.5490
 1.8550	31.3420
 1.8560	31.1230
 1.8570	30.8820
 1.8580	30.6280
 1.8590	30.3630
 1.8600	30.0870
 1.8610	29.7910
 1.8620	29.4740
 1.8630	29.1360
 1.8640	28.7800
 1.8650	28.4190
 1.8660	28.0360
 1.8670	27.6300
 1.8680	27.2140
 1.8690	26.7710
 1.8700	26.3050
 1.8710	25.8190
 1.8720	25.3280
 1.8730	24.8100
 1.8740	24.2710
 1.8750	23.7390
 1.8760	23.2020
 1.8770	22.6580
 1.8780	22.1200
 1.8790	21.5840
 1.8800	21.0520
 1.8810	20.5200
 1.8820	19.9900
 1.8830	19.4630
 1.8840	18.9380
 1.8850	18.4210
 1.8860	17.9300
 1.8870	17.4610
 1.8880	17.0120
 1.8890	16.5840
 1.8900	16.1630
 1.8910	15.7710
 1.8920	15.3960
 1.8930	15.0510
 1.8940	14.7290
 1.8950	14.4440
 1.8960	14.1760
 1.8970	13.9200
 1.8980	13.6880
 1.8990	13.4780
 1.9000	13.2890
 1.9010	13.1290
 1.9020	12.9750
 1.9030	12.8420
 1.9040	12.7140
 1.9050	12.5970
 1.9060	12.4930
 1.9070	12.4080
 1.9080	12.3410
 1.9090	12.2720
 1.9100	12.2110
 1.9110	12.1580
 1.9120	12.1040
 1.9130	12.0650
 1.9140	12.0410
 1.9150	12.0230
 1.9160	12.0120
 1.9170	12.0030
 1.9180	11.9840
 1.9190	11.9710
 1.9200	11.9580
 1.9210	11.9460
 1.9220	11.9370
 1.9230	11.9330
 1.9240	11.9280
 1.9250	11.9210
 1.9260	11.9180
 1.9270	11.9280
 1.9280	11.9370
 1.9290	11.9440
 1.9300	11.9560
 1.9310	11.9600
 1.9320	11.9680
 1.9330	11.9810
 1.9340	12.0050
 1.9350	12.0230
 1.9360	12.0360
 1.9370	12.0600
 1.9380	12.0880
 1.9390	12.1230
 1.9400	12.1510
 1.9410	12.1830
 1.9420	12.2050
 1.9430	12.2170
 1.9440	12.2430
 1.9450	12.2800
 1.9460	12.3130
 1.9470	12.3520
 1.9480	12.3880
 1.9490	12.4250
 1.9500	12.4540
 1.9510	12.4910
 1.9520	12.5320
 1.9530	12.5730
 1.9540	12.6110
 1.9550	12.6500
 1.9560	12.6860
 1.9570	12.7290
 1.9580	12.7750
 1.9590	12.8200
 1.9600	12.8680
 1.9610	12.9150
 1.9620	12.9610
 1.9630	13.0070
 1.9640	13.0570
 1.9650	13.1040
 1.9660	13.1470
 1.9670	13.1950
 1.9680	13.2490
 1.9690	13.3050
 1.9700	13.3640
 1.9710	13.4320
 1.9720	13.4950
 1.9730	13.5550
 1.9740	13.6170
 1.9750	13.6780
 1.9760	13.7390
 1.9770	13.8020
 1.9780	13.8640
 1.9790	13.9270
 1.9800	13.9900
 1.9810	14.0530
 1.9820	14.1200
 1.9830	14.1840
 1.9840	14.2400
 1.9850	14.3080
 1.9860	14.3850
 1.9870	14.4560
 1.9880	14.5300
 1.9890	14.5970
 1.9900	14.6540
 1.9910	14.7170
 1.9920	14.7840
 1.9930	14.8570
 1.9940	14.9310
 1.9950	15.0110
 1.9960	15.0840
 1.9970	15.1610
 1.9980	15.2320
 1.9990	15.2940
 2.0000	15.3600
 2.0010	15.4280
 2.0020	15.4940
 2.0030	15.5640
 2.0040	15.6360
 2.0050	15.7010
 2.0060	15.7550
 2.0070	15.8230
 2.0080	15.8960
 2.0090	15.9640
 2.0100	16.0390
 2.0110	16.1070
 2.0120	16.1640
 2.0130	16.2220
 2.0140	16.2890
 2.0150	16.3510
 2.0160	16.4120
 2.0170	16.4710
 2.0180	16.5280
 2.0190	16.5770
 2.0200	16.6340
 2.0210	16.6970
 2.0220	16.7530
 2.0230	16.8130
 2.0240	16.8640
 2.0250	16.9020
 2.0260	16.9450
 2.0270	16.9890
 2.0280	17.0310
 2.0290	17.0720
 2.0300	17.1180
 2.0310	17.1590
 2.0320	17.1960
 2.0330	17.2340
 2.0340	17.2720
 2.0350	17.3080
 2.0360	17.3390
 2.0370	17.3760
 2.0380	17.4140
 2.0390	17.4530
 2.0400	17.5000
 2.0410	17.5380
 2.0420	17.5710
 2.0430	17.6090
 2.0440	17.6380
 2.0450	17.6560
 2.0460	17.6840
 2.0470	17.7090
 2.0480	17.7380
 2.0490	17.7750
 2.0500	17.8060
 2.0510	17.8360
 2.0520	17.8690
 2.0530	17.9050
 2.0540	17.9350
 2.0550	17.9670
 2.0560	17.9940
 2.0570	18.0200
 2.0580	18.0430
 2.0590	18.0660
 2.0600	18.0910
 2.0610	18.1110
 2.0620	18.1220
 2.0630	18.1460
 2.0640	18.1760
 2.0650	18.2040
 2.0660	18.2390
 2.0670	18.2710
 2.0680	18.2930
 2.0690	18.3250
 2.0700	18.3670
 2.0710	18.4030
 2.0720	18.4440
 2.0730	18.4780
 2.0740	18.5090
 2.0750	18.5340
 2.0760	18.5610
 2.0770	18.5890
 2.0780	18.6130
 2.0790	18.6340
 2.0800	18.6600
 2.0810	18.6850
 2.0820	18.7130
 2.0830	18.7560
 2.0840	18.7830
 2.0850	18.7940
 2.0860	18.8190
 2.0870	18.8420
 2.0880	18.8650
 2.0890	18.8980
 2.0900	18.9480
 2.0910	18.9820
 2.0920	19.0100
 2.0930	19.0430
 2.0940	19.0750
 2.0950	19.1090
 2.0960	19.1530
 2.0970	19.1850
 2.0980	19.2120
 2.0990	19.2370
 2.1000	19.2520
 2.1010	19.2730
 2.1020	19.2920
 2.1030	19.3160
 2.1040	19.3440
 2.1050	19.3750
 2.1060	19.4040
 2.1070	19.4350
 2.1080	19.4650
 2.1090	19.4920
 2.1100	19.5250
 2.1110	19.5660
 2.1120	19.5980
 2.1130	19.6300
 2.1140	19.6620
 2.1150	19.6900
 2.1160	19.7190
 2.1170	19.7510
 2.1180	19.7810
 2.1190	19.8060
 2.1200	19.8340
 2.1210	19.8580
 2.1220	19.8960
 2.1230	19.9310
 2.1240	19.9710
 2.1250	20.0070
 2.1260	20.0480
 2.1270	20.0760
 2.1280	20.0950
 2.1290	20.1180
 2.1300	20.1340
 2.1310	20.1560
 2.1320	20.1820
 2.1330	20.2060
 2.1340	20.2300
 2.1350	20.2560
 2.1360	20.2850
 2.1370	20.3120
 2.1380	20.3370
 2.1390	20.3650
 2.1400	20.3920
 2.1410	20.4160
 2.1420	20.4490
 2.1430	20.4870
 2.1440	20.5220
 2.1450	20.5640
 2.1460	20.5950
 2.1470	20.6210
 2.1480	20.6480
 2.1490	20.6720
 2.1500	20.6950
 2.1510	20.7160
 2.1520	20.7400
 2.1530	20.7640
 2.1540	20.7880
 2.1550	20.8150
 2.1560	20.8410
 2.1570	20.8680
 2.1580	20.8920
 2.1590	20.9130
 2.1600	20.9380
 2.1610	20.9630
 2.1620	20.9960
 2.1630	21.0410
 2.1640	21.1060
 2.1650	21.1530
 2.1660	21.2050
 2.1670	21.2450
 2.1680	21.2720
 2.1690	21.3030
 2.1700	21.3340
 2.1710	21.3620
 2.1720	21.3850
 2.1730	21.4130
 2.1740	21.4380
 2.1750	21.4690
 2.1760	21.5110
 2.1770	21.5430
 2.1780	21.5730
 2.1790	21.6010
 2.1800	21.6180
 2.1810	21.6450
 2.1820	21.6780
 2.1830	21.7160
 2.1840	21.7470
 2.1850	21.7810
 2.1860	21.8130
 2.1870	21.8370
 2.1880	21.8680
 2.1890	21.8980
 2.1900	21.9370
 2.1910	21.9870
 2.1920	22.0230
 2.1930	22.0640
 2.1940	22.0960
 2.1950	22.1130
 2.1960	22.1330
 2.1970	22.1530
 2.1980	22.1720
 2.1990	22.1850
 2.2000	22.2020
 2.2010	22.2180
 2.2020	22.2400
 2.2030	22.2690
 2.2040	22.2930
 2.2050	22.3170
 2.2060	22.3420
 2.2070	22.3700
 2.2080	22.3960
 2.2090	22.4230
 2.2100	22.4560
 2.2110	22.4800
 2.2120	22.4980
 2.2130	22.5180
 2.2140	22.5390
 2.2150	22.5540
 2.2160	22.5670
 2.2170	22.5740
 2.2180	22.5710
 2.2190	22.5750
 2.2200	22.5780
 2.2210	22.5830
 2.2220	22.5950
 2.2230	22.6010
 2.2240	22.6070
 2.2250	22.6060
 2.2260	22.6010
 2.2270	22.5920
 2.2280	22.5770
 2.2290	22.5560
 2.2300	22.5280
 2.2310	22.5010
 2.2320	22.4740
 2.2330	22.4430
 2.2340	22.4070
 2.2350	22.3720
 2.2360	22.3220
 2.2370	22.2610
 2.2380	22.1970
 2.2390	22.1160
 2.2400	22.0580
 2.2410	22.0040
 2.2420	21.9440
 2.2430	21.9010
 2.2440	21.8380
 2.2450	21.7590
 2.2460	21.6800
 2.2470	21.6010
 2.2480	21.5110
 2.2490	21.4020
 2.2500	21.3110
 2.2510	21.2240
 2.2520	21.1350
 2.2530	21.0600
 2.2540	20.9740
 2.2550	20.8720
 2.2560	20.7810
 2.2570	20.6920
 2.2580	20.6050
 2.2590	20.5340
 2.2600	20.4460
 2.2610	20.3560
 2.2620	20.2440
 2.2630	20.1390
 2.2640	20.0410
 2.2650	19.9430
 2.2660	19.8650
 2.2670	19.7820
 2.2680	19.7000
 2.2690	19.6160
 2.2700	19.5370
 2.2710	19.4520
 2.2720	19.3580
 2.2730	19.2780
 2.2740	19.1950
 2.2750	19.1300
 2.2760	19.0860
 2.2770	19.0290
 2.2780	18.9810
 2.2790	18.9240
 2.2800	18.8560
 2.2810	18.7930
 2.2820	18.7300
 2.2830	18.6680
 2.2840	18.6050
 2.2850	18.5450
 2.2860	18.4830
 2.2870	18.4310
 2.2880	18.3850
 2.2890	18.3430
 2.2900	18.3210
 2.2910	18.2800
 2.2920	18.2280
 2.2930	18.1800
 2.2940	18.1110
 2.2950	18.0620
 2.2960	18.0380
 2.2970	17.9950
 2.2980	17.9490
 2.2990	17.9070
 2.3000	17.8420
 2.3010	17.7910
 2.3020	17.7540
 2.3030	17.7090
 2.3040	17.6750
 2.3050	17.6450
 2.3060	17.6080
 2.3070	17.5930
 2.3080	17.5870
 2.3090	17.5520
 2.3100	17.5280
 2.3110	17.5060
 2.3120	17.5000
 2.3130	17.5080
 2.3140	17.5140
 2.3150	17.5290
 2.3160	17.5480
 2.3170	17.5790
 2.3180	17.5840
 2.3190	17.5950
 2.3200	17.5810
 2.3210	17.5260
 2.3220	17.4920
 2.3230	17.4560
 2.3240	17.4260
 2.3250	17.4010
 2.3260	17.3710
 2.3270	17.3430
 2.3280	17.3100
 2.3290	17.2720
 2.3300	17.2380
 2.3310	17.1920
 2.3320	17.1690
 2.3330	17.1630
 2.3340	17.1430
 2.3350	17.1430
 2.3360	17.1210
 2.3370	17.0630
 2.3380	17.0380
 2.3390	17.0320
 2.3400	17.0070
 2.3410	16.9810
 2.3420	16.9610
 2.3430	16.9330
 2.3440	16.9000
 2.3450	16.8810
 2.3460	16.8510
 2.3470	16.7840
 2.3480	16.7520
 2.3490	16.7580
 2.3500	16.7340
 2.3510	16.6980
 2.3520	16.6870
 2.3530	16.6670
 2.3540	16.6630
 2.3550	16.6900
 2.3560	16.6920
 2.3570	16.6650
 2.3580	16.6250
 2.3590	16.6000
 2.3600	16.5900
 2.3610	16.5840
 2.3620	16.5620
 2.3630	16.5230
 2.3640	16.4970
 2.3650	16.4640
 2.3660	16.4470
 2.3670	16.4420
 2.3680	16.4290
 2.3690	16.4200
 2.3700	16.4080
 2.3710	16.3860
 2.3720	16.3570
 2.3730	16.3180
 2.3740	16.2700
 2.3750	16.2550
 2.3760	16.2160
 2.3770	16.1690
 2.3780	16.1590
 2.3790	16.1410
 2.3800	16.1230
 2.3810	16.1170
 2.3820	16.1200
 2.3830	16.1000
 2.3840	16.0800
 2.3850	16.0600
 2.3860	16.0140
 2.3870	15.9680
 2.3880	15.9070
 2.3890	15.8650
 2.3900	15.8350
 2.3910	15.7980
 2.3920	15.8020
 2.3930	15.7780
 2.3940	15.7490
 2.3950	15.7280
 2.3960	15.6600
 2.3970	15.6130
 2.3980	15.5600
 2.3990	15.5000
 2.4000	15.4810
 2.4010	15.4440
 2.4020	15.4340
 2.4030	15.4170
 2.4040	15.3600
 2.4050	15.3480
 2.4060	15.3230
 2.4070	15.2870
 2.4080	15.2550
 2.4090	15.1920
 2.4100	15.1370
 2.4110	15.0800
 2.4120	15.0410
 2.4130	15.0270
 2.4140	15.0290
 2.4150	15.0350
 2.4160	15.0380
 2.4170	15.0510
 2.4180	15.0130
 2.4190	14.9800
 2.4200	14.9920
 2.4210	14.9740
 2.4220	14.9370
 2.4230	14.8660
 2.4240	14.7950
 2.4250	14.7600
 2.4260	14.7120
 2.4270	14.6750
 2.4280	14.6660
 2.4290	14.6310
 2.4300	14.5740
 2.4310	14.5660
 2.4320	14.5220
 2.4330	14.4010
 2.4340	14.3770
 2.4350	14.3760
 2.4360	14.3520
 2.4370	14.4310
 2.4380	14.4600
 2.4390	14.4060
 2.4400	14.3640
 2.4410	14.2530
 2.4420	14.1490
 2.4430	14.1350
 2.4440	14.1180
 2.4450	14.0730
 2.4460	14.0280
 2.4470	13.9570
 2.4480	13.8380
 2.4490	13.7660
 2.4500	13.7330
 2.4510	13.7200
 2.4520	13.7580
 2.4530	13.8010
 2.4540	13.8290
 2.4550	13.8080
 2.4560	13.7430
 2.4570	13.6870
 2.4580	13.6540
 2.4590	13.6040
 2.4600	13.5290
 2.4610	13.5070
 2.4620	13.4630
 2.4630	13.3250
 2.4640	13.2480
 2.4650	13.1870
 2.4660	13.1500
 2.4670	13.2420
 2.4680	13.3420
 2.4690	13.2980
 2.4700	13.2500
 2.4710	13.1120
 2.4720	13.0640
 2.4730	13.0900
 2.4740	13.1080
 2.4750	13.1450
 2.4760	13.1520
 2.4770	13.1680
 2.4780	13.1730
 2.4790	13.2020
 2.4800	13.1970
 2.4810	13.0780
 2.4820	13.0560
 2.4830	13.1310
 2.4840	13.1640
 2.4850	13.2070
 2.4860	13.2450
 2.4870	13.2240
 2.4880	13.1820
 2.4890	13.1350
 2.4900	13.1160
 2.4910	13.0000
 2.4920	12.9020
 2.4930	13.0250
 2.4940	13.0110
 2.4950	13.0360
 2.4960	13.1390
 2.4970	13.0460
 2.4980	13.0750
 2.4990	12.9170
 2.5000	12.6510
