Name: Fagus sylvatica 'atropurpurea'
Type: vegetation
Class: Tree
Genus: Fagus
Species: sylvatica_atropurpurea
Sample No.: JPL180
Owner: JPL
Wavelength Range: TIR
Origin: 34.12826; -118.11349; WGS84
Collection Date: 10/3/2016
Description: Samples were collected at the Huntington Garden in San Marino California as part of a JPL Subcontract studying HyTES imagery. Samples were taken to JPL and processed within 48 hours of collection. The same leaves were processed in the Nicolet and then measured using the ASD.
Measurement: Hemispherical reflectance
First Column: X
Second Column: Y
X Units: Wavelength (micrometer)
Y Units: Reflectance (percentage)
First X Value: 2.501
Last X Value: 15.387
Number of X Values: 1737
Additional Information: vegetation.tree.fagus.sylvatica_atropurpurea.tir.jpl180.jpl.nicolet.ancillary.txt

 2.5010	 8.4910
 2.5030	 8.4610
 2.5040	 8.4230
 2.5050	 8.3300
 2.5060	 8.2980
 2.5070	 8.2530
 2.5090	 8.2930
 2.5100	 8.3270
 2.5110	 8.3100
 2.5120	 8.2610
 2.5140	 8.2860
 2.5150	 8.2410
 2.5160	 8.1990
 2.5170	 8.1240
 2.5180	 8.0960
 2.5200	 8.0890
 2.5210	 8.1090
 2.5220	 8.0740
 2.5230	 8.1190
 2.5250	 8.1200
 2.5260	 8.1130
 2.5270	 8.1210
 2.5280	 8.0930
 2.5300	 8.0800
 2.5310	 8.0910
 2.5320	 7.9630
 2.5330	 7.9800
 2.5340	 8.0690
 2.5360	 7.9990
 2.5370	 7.9390
 2.5380	 8.0610
 2.5390	 8.1050
 2.5410	 8.1570
 2.5420	 8.0380
 2.5430	 7.9250
 2.5440	 7.9580
 2.5460	 8.1080
 2.5470	 8.0730
 2.5480	 7.9840
 2.5490	 8.0370
 2.5510	 8.0190
 2.5520	 7.9370
 2.5530	 7.9100
 2.5540	 7.9970
 2.5560	 8.1370
 2.5570	 8.1190
 2.5580	 8.1700
 2.5590	 8.0870
 2.5610	 7.8130
 2.5620	 7.5890
 2.5630	 7.6290
 2.5650	 7.6150
 2.5660	 7.8820
 2.5670	 8.1500
 2.5680	 8.1280
 2.5700	 7.9120
 2.5710	 7.9920
 2.5720	 8.0550
 2.5730	 7.7280
 2.5750	 7.7400
 2.5760	 7.8160
 2.5770	 7.6820
 2.5790	 7.9950
 2.5800	 8.1240
 2.5810	 7.8680
 2.5820	 7.7970
 2.5840	 7.6160
 2.5850	 7.5470
 2.5860	 7.7500
 2.5880	 7.6470
 2.5890	 7.6890
 2.5900	 7.7320
 2.5910	 7.8030
 2.5930	 7.6260
 2.5940	 7.0510
 2.5950	 6.4580
 2.5970	 7.0920
 2.5980	 7.6640
 2.5990	 7.8210
 2.6010	 7.6990
 2.6020	 7.5250
 2.6030	 7.3710
 2.6040	 7.1710
 2.6060	 6.9420
 2.6070	 7.0490
 2.6080	 7.1500
 2.6100	 7.1700
 2.6110	 7.2530
 2.6120	 7.3040
 2.6140	 7.1800
 2.6150	 7.1590
 2.6160	 6.7480
 2.6180	 6.5120
 2.6190	 6.7620
 2.6200	 6.5840
 2.6220	 6.5660
 2.6230	 6.9530
 2.6240	 7.0040
 2.6260	 6.8370
 2.6270	 6.4500
 2.6280	 6.5060
 2.6300	 6.3750
 2.6310	 6.0900
 2.6320	 6.2980
 2.6340	 6.3810
 2.6350	 6.3410
 2.6360	 6.4860
 2.6380	 6.4700
 2.6390	 6.4380
 2.6400	 6.3320
 2.6420	 6.2390
 2.6430	 6.0960
 2.6440	 6.0750
 2.6460	 5.8600
 2.6470	 5.8710
 2.6480	 5.9380
 2.6500	 5.8870
 2.6510	 5.7670
 2.6520	 5.6230
 2.6540	 5.5960
 2.6550	 5.5950
 2.6570	 5.5140
 2.6580	 5.5610
 2.6590	 5.3620
 2.6610	 5.2490
 2.6620	 5.2210
 2.6630	 5.2500
 2.6650	 4.8920
 2.6660	 4.5630
 2.6670	 4.5390
 2.6690	 4.7740
 2.6700	 4.5210
 2.6720	 4.4340
 2.6730	 4.6560
 2.6740	 4.6890
 2.6760	 4.4900
 2.6770	 4.3050
 2.6780	 4.3110
 2.6800	 4.4070
 2.6810	 4.5530
 2.6830	 4.5280
 2.6840	 4.3840
 2.6850	 4.3950
 2.6870	 4.3240
 2.6880	 4.3540
 2.6900	 4.3400
 2.6910	 4.3050
 2.6920	 4.1390
 2.6940	 3.9590
 2.6950	 3.7980
 2.6970	 3.8650
 2.6980	 3.9710
 2.6990	 3.9930
 2.7010	 3.7870
 2.7020	 3.7250
 2.7040	 3.7640
 2.7050	 3.8650
 2.7060	 3.8290
 2.7080	 3.7550
 2.7090	 3.5450
 2.7110	 3.3890
 2.7120	 3.3720
 2.7130	 3.5920
 2.7150	 3.6010
 2.7160	 3.5970
 2.7180	 3.5780
 2.7190	 3.4990
 2.7210	 3.1400
 2.7220	 3.1550
 2.7230	 3.2420
 2.7250	 3.1460
 2.7260	 3.1940
 2.7280	 3.4110
 2.7290	 3.4440
 2.7310	 3.4160
 2.7320	 3.3660
 2.7340	 3.2890
 2.7350	 3.1340
 2.7360	 3.1630
 2.7380	 3.0730
 2.7390	 2.8800
 2.7410	 2.7660
 2.7420	 2.9360
 2.7440	 3.2000
 2.7450	 3.2070
 2.7470	 3.0930
 2.7480	 3.0990
 2.7490	 3.0970
 2.7510	 3.0810
 2.7520	 2.9780
 2.7540	 2.9070
 2.7550	 2.6920
 2.7570	 2.7640
 2.7580	 2.8940
 2.7600	 2.9320
 2.7610	 2.8570
 2.7630	 2.7720
 2.7640	 2.7840
 2.7660	 2.9280
 2.7670	 2.9010
 2.7690	 2.8560
 2.7700	 2.8150
 2.7720	 2.7870
 2.7730	 2.8180
 2.7740	 2.9040
 2.7760	 2.8510
 2.7770	 2.8330
 2.7790	 2.8280
 2.7800	 2.8480
 2.7820	 2.7820
 2.7830	 2.8230
 2.7850	 2.8250
 2.7860	 2.7720
 2.7880	 2.6910
 2.7890	 2.7680
 2.7910	 2.7520
 2.7920	 2.7550
 2.7940	 2.7500
 2.7950	 2.8300
 2.7970	 2.7740
 2.7980	 2.7510
 2.8000	 2.7260
 2.8010	 2.7460
 2.8030	 2.6480
 2.8040	 2.6590
 2.8060	 2.6790
 2.8080	 2.6720
 2.8090	 2.6050
 2.8110	 2.7050
 2.8120	 2.7470
 2.8140	 2.7730
 2.8150	 2.7420
 2.8170	 2.7370
 2.8180	 2.6870
 2.8200	 2.7280
 2.8210	 2.7130
 2.8230	 2.7130
 2.8240	 2.6270
 2.8260	 2.6570
 2.8270	 2.6380
 2.8290	 2.6990
 2.8310	 2.7670
 2.8320	 2.8040
 2.8340	 2.6980
 2.8350	 2.6270
 2.8370	 2.6200
 2.8380	 2.6980
 2.8400	 2.6980
 2.8410	 2.7330
 2.8430	 2.6930
 2.8440	 2.6460
 2.8460	 2.6100
 2.8480	 2.6930
 2.8490	 2.7180
 2.8510	 2.7160
 2.8520	 2.6890
 2.8540	 2.6540
 2.8550	 2.5410
 2.8570	 2.5650
 2.8590	 2.5650
 2.8600	 2.6630
 2.8620	 2.6910
 2.8630	 2.6820
 2.8650	 2.5940
 2.8660	 2.6240
 2.8680	 2.6340
 2.8700	 2.6080
 2.8710	 2.5760
 2.8730	 2.6330
 2.8740	 2.6270
 2.8760	 2.6570
 2.8780	 2.5900
 2.8790	 2.5930
 2.8810	 2.6080
 2.8820	 2.6780
 2.8840	 2.6560
 2.8860	 2.5840
 2.8870	 2.6060
 2.8890	 2.6630
 2.8900	 2.5600
 2.8920	 2.5980
 2.8940	 2.6430
 2.8950	 2.6310
 2.8970	 2.5590
 2.8990	 2.5740
 2.9000	 2.5340
 2.9020	 2.5280
 2.9030	 2.5340
 2.9050	 2.6040
 2.9070	 2.6470
 2.9080	 2.6570
 2.9100	 2.6650
 2.9120	 2.7140
 2.9130	 2.6230
 2.9150	 2.6320
 2.9160	 2.6460
 2.9180	 2.7170
 2.9200	 2.6700
 2.9210	 2.6640
 2.9230	 2.6850
 2.9250	 2.7110
 2.9260	 2.6500
 2.9280	 2.6550
 2.9300	 2.6220
 2.9310	 2.6300
 2.9330	 2.6310
 2.9350	 2.7060
 2.9360	 2.6670
 2.9380	 2.6590
 2.9400	 2.6630
 2.9410	 2.6790
 2.9430	 2.6310
 2.9450	 2.6670
 2.9460	 2.6630
 2.9480	 2.6420
 2.9500	 2.6290
 2.9510	 2.6690
 2.9530	 2.6270
 2.9550	 2.6720
 2.9560	 2.7050
 2.9580	 2.6860
 2.9600	 2.6100
 2.9610	 2.6530
 2.9630	 2.6690
 2.9650	 2.6850
 2.9670	 2.6540
 2.9680	 2.6580
 2.9700	 2.6710
 2.9720	 2.7400
 2.9730	 2.7250
 2.9750	 2.6990
 2.9770	 2.6790
 2.9780	 2.7540
 2.9800	 2.7850
 2.9820	 2.7150
 2.9840	 2.5910
 2.9850	 2.6280
 2.9870	 2.6660
 2.9890	 2.6770
 2.9900	 2.6200
 2.9920	 2.6820
 2.9940	 2.7440
 2.9960	 2.8110
 2.9970	 2.7290
 2.9990	 2.7560
 3.0010	 2.7600
 3.0030	 2.7150
 3.0040	 2.7110
 3.0060	 2.7010
 3.0080	 2.7000
 3.0100	 2.7480
 3.0110	 2.7370
 3.0130	 2.7870
 3.0150	 2.7220
 3.0170	 2.7110
 3.0180	 2.6860
 3.0200	 2.7340
 3.0220	 2.7020
 3.0240	 2.6850
 3.0250	 2.6530
 3.0270	 2.6800
 3.0290	 2.6520
 3.0310	 2.6940
 3.0320	 2.6930
 3.0340	 2.7720
 3.0360	 2.7760
 3.0380	 2.7600
 3.0400	 2.6890
 3.0410	 2.6940
 3.0430	 2.7150
 3.0450	 2.7640
 3.0470	 2.7260
 3.0480	 2.7680
 3.0500	 2.7440
 3.0520	 2.7160
 3.0540	 2.6610
 3.0560	 2.7220
 3.0570	 2.7220
 3.0590	 2.7380
 3.0610	 2.7140
 3.0630	 2.7460
 3.0650	 2.7220
 3.0670	 2.7580
 3.0680	 2.7380
 3.0700	 2.7690
 3.0720	 2.7430
 3.0740	 2.7890
 3.0760	 2.7490
 3.0770	 2.7890
 3.0790	 2.8130
 3.0810	 2.8080
 3.0830	 2.7790
 3.0850	 2.8020
 3.0870	 2.7830
 3.0880	 2.8120
 3.0900	 2.8220
 3.0920	 2.8320
 3.0940	 2.7340
 3.0960	 2.7400
 3.0980	 2.7450
 3.1000	 2.7820
 3.1010	 2.7470
 3.1030	 2.7790
 3.1050	 2.8010
 3.1070	 2.8480
 3.1090	 2.7690
 3.1110	 2.7700
 3.1130	 2.7990
 3.1140	 2.8070
 3.1160	 2.7950
 3.1180	 2.8450
 3.1200	 2.8110
 3.1220	 2.7920
 3.1240	 2.7500
 3.1260	 2.7720
 3.1280	 2.7980
 3.1290	 2.8040
 3.1310	 2.8020
 3.1330	 2.8370
 3.1350	 2.8090
 3.1370	 2.8700
 3.1390	 2.9010
 3.1410	 2.9200
 3.1430	 2.8490
 3.1450	 2.8480
 3.1470	 2.8530
 3.1480	 2.8850
 3.1500	 2.8850
 3.1520	 2.9120
 3.1540	 2.8630
 3.1560	 2.8770
 3.1580	 2.9000
 3.1600	 2.9320
 3.1620	 2.8870
 3.1640	 2.8730
 3.1660	 2.8420
 3.1680	 2.8480
 3.1700	 2.8370
 3.1720	 2.8560
 3.1730	 2.8470
 3.1750	 2.8740
 3.1770	 2.8710
 3.1790	 2.9040
 3.1810	 2.8710
 3.1830	 2.9180
 3.1850	 2.9410
 3.1870	 2.9950
 3.1890	 2.9730
 3.1910	 2.9600
 3.1930	 2.9350
 3.1950	 2.9590
 3.1970	 2.9050
 3.1990	 2.9390
 3.2010	 2.9760
 3.2030	 2.9900
 3.2050	 2.9370
 3.2070	 2.9140
 3.2090	 2.8850
 3.2110	 2.9540
 3.2130	 2.9590
 3.2150	 2.9470
 3.2170	 2.9060
 3.2190	 2.9450
 3.2210	 2.9440
 3.2230	 2.9830
 3.2250	 2.9640
 3.2270	 2.9780
 3.2290	 2.9740
 3.2310	 2.9960
 3.2330	 2.9540
 3.2350	 3.0010
 3.2370	 3.0140
 3.2390	 3.0470
 3.2410	 3.0140
 3.2430	 2.9870
 3.2450	 2.9380
 3.2470	 2.9440
 3.2490	 2.9560
 3.2510	 3.0170
 3.2530	 3.0450
 3.2550	 3.0630
 3.2570	 3.0480
 3.2590	 3.0460
 3.2610	 3.0040
 3.2630	 3.0620
 3.2650	 3.0810
 3.2670	 3.0660
 3.2700	 3.0290
 3.2720	 3.0400
 3.2740	 3.0310
 3.2760	 3.0490
 3.2780	 3.0300
 3.2800	 3.0330
 3.2820	 3.0000
 3.2840	 3.0240
 3.2860	 2.9960
 3.2880	 3.0280
 3.2900	 3.0890
 3.2920	 3.1150
 3.2940	 3.0530
 3.2970	 3.0430
 3.2990	 3.0490
 3.3010	 3.0760
 3.3030	 3.0350
 3.3050	 3.0480
 3.3070	 3.0510
 3.3090	 3.0900
 3.3110	 3.0720
 3.3130	 3.0460
 3.3160	 3.0070
 3.3180	 3.0400
 3.3200	 3.0420
 3.3220	 3.0790
 3.3240	 3.0550
 3.3260	 3.0390
 3.3280	 3.0290
 3.3300	 3.0060
 3.3330	 2.9710
 3.3350	 2.9670
 3.3370	 2.9240
 3.3390	 2.9520
 3.3410	 2.9400
 3.3430	 2.9350
 3.3450	 2.9270
 3.3480	 2.9380
 3.3500	 2.9330
 3.3520	 2.9490
 3.3540	 2.9300
 3.3560	 2.9290
 3.3580	 2.8670
 3.3610	 2.8370
 3.3630	 2.8090
 3.3650	 2.8110
 3.3670	 2.7600
 3.3690	 2.7540
 3.3720	 2.7240
 3.3740	 2.7520
 3.3760	 2.7630
 3.3780	 2.7690
 3.3800	 2.7450
 3.3830	 2.7570
 3.3850	 2.7700
 3.3870	 2.7630
 3.3890	 2.6790
 3.3910	 2.6800
 3.3940	 2.6480
 3.3960	 2.6070
 3.3980	 2.5950
 3.4000	 2.6100
 3.4030	 2.5770
 3.4050	 2.6010
 3.4070	 2.6080
 3.4090	 2.6990
 3.4110	 2.8100
 3.4140	 2.9250
 3.4160	 3.0690
 3.4180	 3.3330
 3.4200	 3.6630
 3.4230	 4.1110
 3.4250	 4.6430
 3.4270	 5.2640
 3.4300	 5.6990
 3.4320	 5.6720
 3.4340	 5.1770
 3.4360	 4.7090
 3.4390	 4.3990
 3.4410	 4.2150
 3.4430	 4.0630
 3.4450	 4.0230
 3.4480	 3.9720
 3.4500	 3.8830
 3.4520	 3.7610
 3.4550	 3.7620
 3.4570	 3.7780
 3.4590	 3.7470
 3.4620	 3.6970
 3.4640	 3.7250
 3.4660	 3.6620
 3.4690	 3.6030
 3.4710	 3.5570
 3.4730	 3.5410
 3.4760	 3.4720
 3.4780	 3.4120
 3.4800	 3.3560
 3.4830	 3.3280
 3.4850	 3.2690
 3.4870	 3.2060
 3.4900	 3.1190
 3.4920	 3.0910
 3.4940	 3.0880
 3.4970	 3.1180
 3.4990	 3.0970
 3.5010	 3.1780
 3.5040	 3.3690
 3.5060	 3.8390
 3.5080	 4.6060
 3.5110	 5.3440
 3.5130	 5.4330
 3.5160	 5.1110
 3.5180	 4.7510
 3.5200	 4.4990
 3.5230	 4.3100
 3.5250	 4.2270
 3.5280	 4.1470
 3.5300	 4.0720
 3.5320	 3.9890
 3.5350	 3.9520
 3.5370	 3.9210
 3.5400	 3.9300
 3.5420	 3.9060
 3.5440	 3.9080
 3.5470	 3.8680
 3.5490	 3.8780
 3.5520	 3.8350
 3.5540	 3.8220
 3.5570	 3.8180
 3.5590	 3.7980
 3.5610	 3.7790
 3.5640	 3.8280
 3.5660	 3.8170
 3.5690	 3.8140
 3.5710	 3.8100
 3.5740	 3.8060
 3.5760	 3.8060
 3.5790	 3.8270
 3.5810	 3.7850
 3.5840	 3.7570
 3.5860	 3.7710
 3.5890	 3.8250
 3.5910	 3.8220
 3.5940	 3.8250
 3.5960	 3.8080
 3.5990	 3.8680
 3.6010	 3.8470
 3.6040	 3.7780
 3.6060	 3.7430
 3.6090	 3.7830
 3.6110	 3.8110
 3.6140	 3.7860
 3.6160	 3.7460
 3.6190	 3.7900
 3.6210	 3.7810
 3.6240	 3.7950
 3.6260	 3.7910
 3.6290	 3.7920
 3.6310	 3.8010
 3.6340	 3.8240
 3.6360	 3.8040
 3.6390	 3.8010
 3.6410	 3.7960
 3.6440	 3.8080
 3.6470	 3.7730
 3.6490	 3.7680
 3.6520	 3.7630
 3.6540	 3.8120
 3.6570	 3.8300
 3.6590	 3.8310
 3.6620	 3.7770
 3.6650	 3.8050
 3.6670	 3.8440
 3.6700	 3.8760
 3.6720	 3.8600
 3.6750	 3.8640
 3.6780	 3.8740
 3.6800	 3.8760
 3.6830	 3.8350
 3.6850	 3.8340
 3.6880	 3.8390
 3.6910	 3.8720
 3.6930	 3.8490
 3.6960	 3.8470
 3.6990	 3.8450
 3.7010	 3.8750
 3.7040	 3.8770
 3.7070	 3.8980
 3.7090	 3.9070
 3.7120	 3.8990
 3.7150	 3.9230
 3.7170	 3.9430
 3.7200	 3.9020
 3.7230	 3.9350
 3.7250	 3.9560
 3.7280	 3.9480
 3.7310	 3.9460
 3.7330	 3.9810
 3.7360	 3.9700
 3.7390	 3.9490
 3.7410	 3.9670
 3.7440	 4.0160
 3.7470	 3.9850
 3.7490	 4.0060
 3.7520	 4.0060
 3.7550	 4.0160
 3.7580	 4.0480
 3.7600	 4.0740
 3.7630	 4.0480
 3.7660	 4.0530
 3.7690	 4.0760
 3.7710	 4.0870
 3.7740	 4.0730
 3.7770	 4.1010
 3.7790	 4.0870
 3.7820	 4.0890
 3.7850	 4.0700
 3.7880	 4.0710
 3.7910	 4.0890
 3.7930	 4.1390
 3.7960	 4.1420
 3.7990	 4.1750
 3.8020	 4.1840
 3.8040	 4.1870
 3.8070	 4.1770
 3.8100	 4.1780
 3.8130	 4.1750
 3.8160	 4.1990
 3.8180	 4.2150
 3.8210	 4.2710
 3.8240	 4.2670
 3.8270	 4.2480
 3.8300	 4.2020
 3.8330	 4.2010
 3.8350	 4.2520
 3.8380	 4.2600
 3.8410	 4.2230
 3.8440	 4.2730
 3.8470	 4.3030
 3.8500	 4.3080
 3.8520	 4.3120
 3.8550	 4.3550
 3.8580	 4.3470
 3.8610	 4.3360
 3.8640	 4.3380
 3.8670	 4.3570
 3.8700	 4.3550
 3.8730	 4.3370
 3.8760	 4.3340
 3.8780	 4.3690
 3.8810	 4.3360
 3.8840	 4.3400
 3.8870	 4.3750
 3.8900	 4.3820
 3.8930	 4.3550
 3.8960	 4.3640
 3.8990	 4.3990
 3.9020	 4.4170
 3.9050	 4.3740
 3.9080	 4.3660
 3.9110	 4.3600
 3.9140	 4.3920
 3.9170	 4.4180
 3.9190	 4.4200
 3.9220	 4.3850
 3.9250	 4.3750
 3.9280	 4.3580
 3.9310	 4.3410
 3.9340	 4.3690
 3.9370	 4.4160
 3.9400	 4.3890
 3.9430	 4.3690
 3.9460	 4.3580
 3.9490	 4.3800
 3.9520	 4.3880
 3.9550	 4.3940
 3.9580	 4.3780
 3.9610	 4.3790
 3.9640	 4.3970
 3.9670	 4.3930
 3.9700	 4.3620
 3.9740	 4.3750
 3.9770	 4.3870
 3.9800	 4.4080
 3.9830	 4.4090
 3.9860	 4.4020
 3.9890	 4.3520
 3.9920	 4.3270
 3.9950	 4.3320
 3.9980	 4.3650
 4.0010	 4.3980
 4.0040	 4.4160
 4.0070	 4.3950
 4.0100	 4.4010
 4.0140	 4.4020
 4.0170	 4.4150
 4.0200	 4.4220
 4.0230	 4.4290
 4.0260	 4.4310
 4.0290	 4.4740
 4.0320	 4.4680
 4.0350	 4.4580
 4.0390	 4.4370
 4.0420	 4.4260
 4.0450	 4.4200
 4.0480	 4.4290
 4.0510	 4.4140
 4.0540	 4.4320
 4.0570	 4.4340
 4.0610	 4.4460
 4.0640	 4.4720
 4.0670	 4.4750
 4.0700	 4.4510
 4.0730	 4.4550
 4.0770	 4.4180
 4.0800	 4.3930
 4.0830	 4.3990
 4.0860	 4.4050
 4.0890	 4.3830
 4.0930	 4.3700
 4.0960	 4.3650
 4.0990	 4.3970
 4.1020	 4.4070
 4.1060	 4.4280
 4.1090	 4.4170
 4.1120	 4.3970
 4.1150	 4.4010
 4.1190	 4.4070
 4.1220	 4.3650
 4.1250	 4.3620
 4.1290	 4.3840
 4.1320	 4.4150
 4.1350	 4.3970
 4.1380	 4.3820
 4.1420	 4.3430
 4.1450	 4.3620
 4.1480	 4.3500
 4.1520	 4.3210
 4.1550	 4.3060
 4.1580	 4.3250
 4.1620	 4.3200
 4.1650	 4.2840
 4.1680	 4.2650
 4.1720	 4.2750
 4.1750	 4.2480
 4.1780	 4.2420
 4.1820	 4.2670
 4.1850	 4.2750
 4.1890	 4.2170
 4.1920	 4.2270
 4.1950	 4.2480
 4.1990	 4.2410
 4.2020	 4.2720
 4.2060	 4.2980
 4.2090	 4.2610
 4.2120	 4.2690
 4.2160	 4.2930
 4.2190	 4.2780
 4.2230	 4.3280
 4.2260	 4.3730
 4.2300	 4.3480
 4.2330	 4.3550
 4.2360	 4.2960
 4.2400	 4.3050
 4.2430	 4.3080
 4.2470	 4.2750
 4.2500	 4.2030
 4.2540	 4.2090
 4.2570	 4.2160
 4.2610	 4.2380
 4.2640	 4.1980
 4.2680	 4.1470
 4.2710	 4.0900
 4.2750	 4.1220
 4.2780	 4.1330
 4.2820	 4.1440
 4.2850	 4.1580
 4.2890	 4.1360
 4.2930	 4.1200
 4.2960	 4.1230
 4.3000	 4.1090
 4.3030	 4.0560
 4.3070	 3.9970
 4.3100	 3.9790
 4.3140	 3.9780
 4.3180	 3.9780
 4.3210	 3.9880
 4.3250	 4.0100
 4.3280	 3.9710
 4.3320	 3.9490
 4.3360	 3.9440
 4.3390	 3.9340
 4.3430	 3.8960
 4.3470	 3.8810
 4.3500	 3.8600
 4.3540	 3.8440
 4.3580	 3.8350
 4.3610	 3.8410
 4.3650	 3.8310
 4.3690	 3.8320
 4.3720	 3.8310
 4.3760	 3.8130
 4.3800	 3.8030
 4.3830	 3.7960
 4.3870	 3.7440
 4.3910	 3.7390
 4.3940	 3.7680
 4.3980	 3.7700
 4.4020	 3.7290
 4.4060	 3.7160
 4.4090	 3.7080
 4.4130	 3.6630
 4.4170	 3.6520
 4.4210	 3.6940
 4.4240	 3.6920
 4.4280	 3.6980
 4.4320	 3.7170
 4.4360	 3.6740
 4.4400	 3.6450
 4.4430	 3.6760
 4.4470	 3.7050
 4.4510	 3.6750
 4.4550	 3.6190
 4.4590	 3.6200
 4.4630	 3.6610
 4.4660	 3.6760
 4.4700	 3.6370
 4.4740	 3.6030
 4.4780	 3.5820
 4.4820	 3.5980
 4.4860	 3.6110
 4.4900	 3.6100
 4.4930	 3.5990
 4.4970	 3.6250
 4.5010	 3.6410
 4.5050	 3.5970
 4.5090	 3.5710
 4.5130	 3.5860
 4.5170	 3.6030
 4.5210	 3.6070
 4.5250	 3.5890
 4.5290	 3.5590
 4.5330	 3.5650
 4.5370	 3.5660
 4.5410	 3.5390
 4.5450	 3.5470
 4.5490	 3.5560
 4.5530	 3.5530
 4.5570	 3.5500
 4.5610	 3.5200
 4.5650	 3.5300
 4.5690	 3.5310
 4.5730	 3.5170
 4.5770	 3.5130
 4.5810	 3.5110
 4.5850	 3.5230
 4.5890	 3.5400
 4.5930	 3.5420
 4.5970	 3.5370
 4.6010	 3.5300
 4.6050	 3.5070
 4.6090	 3.5200
 4.6130	 3.5390
 4.6170	 3.5470
 4.6220	 3.5260
 4.6260	 3.5130
 4.6300	 3.5180
 4.6340	 3.5000
 4.6380	 3.5000
 4.6420	 3.5060
 4.6460	 3.5070
 4.6510	 3.4940
 4.6550	 3.4570
 4.6590	 3.4700
 4.6630	 3.4820
 4.6670	 3.4850
 4.6720	 3.5000
 4.6760	 3.4870
 4.6800	 3.4900
 4.6840	 3.4880
 4.6880	 3.4850
 4.6930	 3.4870
 4.6970	 3.4820
 4.7010	 3.4840
 4.7050	 3.5060
 4.7100	 3.4890
 4.7140	 3.4780
 4.7180	 3.4550
 4.7230	 3.4470
 4.7270	 3.4760
 4.7310	 3.5020
 4.7360	 3.5030
 4.7400	 3.5130
 4.7440	 3.5150
 4.7490	 3.4980
 4.7530	 3.5070
 4.7570	 3.5160
 4.7620	 3.4960
 4.7660	 3.5230
 4.7700	 3.5530
 4.7750	 3.5650
 4.7790	 3.5250
 4.7840	 3.4760
 4.7880	 3.4680
 4.7920	 3.5130
 4.7970	 3.5400
 4.8010	 3.5380
 4.8060	 3.5080
 4.8100	 3.5060
 4.8150	 3.5280
 4.8190	 3.5430
 4.8240	 3.5310
 4.8280	 3.5320
 4.8330	 3.5370
 4.8370	 3.5340
 4.8420	 3.5110
 4.8460	 3.5330
 4.8510	 3.5500
 4.8550	 3.5510
 4.8600	 3.5400
 4.8640	 3.5500
 4.8690	 3.5500
 4.8740	 3.5520
 4.8780	 3.5720
 4.8830	 3.5680
 4.8870	 3.5570
 4.8920	 3.5560
 4.8970	 3.5470
 4.9010	 3.5610
 4.9060	 3.5870
 4.9100	 3.6210
 4.9150	 3.6110
 4.9200	 3.5820
 4.9240	 3.5620
 4.9290	 3.5750
 4.9340	 3.6160
 4.9390	 3.6580
 4.9430	 3.6500
 4.9480	 3.6290
 4.9530	 3.6280
 4.9570	 3.6460
 4.9620	 3.6410
 4.9670	 3.6500
 4.9720	 3.6470
 4.9760	 3.6490
 4.9810	 3.6750
 4.9860	 3.6880
 4.9910	 3.6750
 4.9960	 3.6720
 5.0000	 3.6560
 5.0050	 3.6660
 5.0100	 3.6690
 5.0150	 3.6880
 5.0200	 3.6800
 5.0250	 3.6930
 5.0300	 3.7020
 5.0340	 3.7520
 5.0390	 3.7370
 5.0440	 3.7200
 5.0490	 3.7490
 5.0540	 3.7930
 5.0590	 3.7580
 5.0640	 3.7500
 5.0690	 3.7680
 5.0740	 3.7740
 5.0790	 3.7280
 5.0840	 3.7420
 5.0890	 3.7950
 5.0940	 3.8200
 5.0990	 3.8280
 5.1040	 3.8320
 5.1090	 3.7820
 5.1140	 3.7520
 5.1190	 3.7350
 5.1240	 3.7720
 5.1290	 3.8050
 5.1340	 3.8480
 5.1390	 3.8500
 5.1440	 3.8180
 5.1490	 3.7850
 5.1550	 3.8220
 5.1600	 3.8370
 5.1650	 3.8720
 5.1700	 3.8970
 5.1750	 3.9180
 5.1800	 3.9220
 5.1850	 3.9390
 5.1910	 3.9140
 5.1960	 3.8750
 5.2010	 3.8400
 5.2060	 3.8880
 5.2110	 3.8690
 5.2170	 3.8620
 5.2220	 3.8880
 5.2270	 3.9220
 5.2330	 3.8880
 5.2380	 3.8430
 5.2430	 3.8480
 5.2480	 3.8830
 5.2540	 3.8540
 5.2590	 3.8800
 5.2640	 3.9310
 5.2700	 3.9410
 5.2750	 3.8910
 5.2800	 3.8660
 5.2860	 3.8560
 5.2910	 3.7980
 5.2970	 3.7840
 5.3020	 3.8630
 5.3080	 3.8730
 5.3130	 3.8790
 5.3180	 3.8580
 5.3240	 3.8490
 5.3290	 3.8760
 5.3350	 3.9010
 5.3400	 3.8720
 5.3460	 3.8140
 5.3510	 3.6860
 5.3570	 3.7320
 5.3620	 3.8160
 5.3680	 3.8340
 5.3740	 3.8060
 5.3790	 3.8460
 5.3850	 3.8400
 5.3900	 3.8300
 5.3960	 3.8060
 5.4010	 3.8220
 5.4070	 3.8000
 5.4130	 3.7260
 5.4180	 3.5840
 5.4240	 3.5510
 5.4300	 3.7040
 5.4350	 3.7650
 5.4410	 3.7120
 5.4470	 3.7130
 5.4530	 3.6990
 5.4580	 3.6240
 5.4640	 3.4920
 5.4700	 3.4970
 5.4760	 3.4870
 5.4810	 3.5060
 5.4870	 3.6030
 5.4930	 3.6080
 5.4990	 3.5530
 5.5050	 3.5350
 5.5110	 3.5620
 5.5160	 3.5470
 5.5220	 3.4790
 5.5280	 3.4630
 5.5340	 3.4750
 5.5400	 3.4640
 5.5460	 3.3760
 5.5520	 3.2600
 5.5580	 3.2170
 5.5640	 3.3090
 5.5700	 3.2870
 5.5760	 3.1490
 5.5820	 3.0530
 5.5880	 3.1630
 5.5940	 3.2150
 5.6000	 3.1710
 5.6060	 3.1380
 5.6120	 3.1280
 5.6180	 3.0650
 5.6240	 3.0630
 5.6300	 2.9870
 5.6360	 2.8930
 5.6420	 2.7680
 5.6490	 2.8220
 5.6550	 2.8200
 5.6610	 2.8030
 5.6670	 2.7920
 5.6730	 2.6810
 5.6800	 2.6190
 5.6860	 2.6660
 5.6920	 2.5920
 5.6980	 2.5420
 5.7050	 2.4130
 5.7110	 2.2680
 5.7170	 2.2080
 5.7230	 2.2070
 5.7300	 2.1860
 5.7360	 2.1500
 5.7420	 2.1100
 5.7490	 2.0890
 5.7550	 2.1480
 5.7620	 2.1340
 5.7680	 2.0810
 5.7740	 2.3340
 5.7810	 2.4990
 5.7870	 2.6410
 5.7940	 2.7030
 5.8000	 2.7530
 5.8070	 2.7710
 5.8130	 2.7770
 5.8200	 2.5870
 5.8260	 2.5840
 5.8330	 2.7550
 5.8390	 2.9360
 5.8460	 3.0310
 5.8530	 3.0490
 5.8590	 2.9590
 5.8660	 2.9170
 5.8730	 2.9250
 5.8790	 2.7340
 5.8860	 2.8050
 5.8930	 2.9690
 5.8990	 2.9820
 5.9060	 3.2380
 5.9130	 3.2380
 5.9190	 3.2320
 5.9260	 3.1960
 5.9330	 2.9520
 5.9400	 2.8000
 5.9470	 3.0760
 5.9530	 3.1970
 5.9600	 3.2250
 5.9670	 2.9820
 5.9740	 3.0110
 5.9810	 3.0390
 5.9880	 2.8970
 5.9950	 2.9280
 6.0020	 3.0930
 6.0090	 2.9830
 6.0160	 2.9220
 6.0230	 3.0010
 6.0300	 3.0770
 6.0370	 2.9720
 6.0440	 2.6530
 6.0510	 2.3840
 6.0580	 2.7970
 6.0650	 2.9370
 6.0720	 2.8360
 6.0790	 2.8990
 6.0860	 3.0850
 6.0930	 3.1010
 6.1010	 3.0510
 6.1080	 2.8450
 6.1150	 2.7350
 6.1220	 2.8850
 6.1290	 3.0650
 6.1370	 3.0420
 6.1440	 3.0270
 6.1510	 3.0070
 6.1580	 2.9780
 6.1660	 2.9170
 6.1730	 2.9200
 6.1800	 2.7110
 6.1880	 2.6380
 6.1950	 2.8200
 6.2030	 2.9530
 6.2100	 2.9390
 6.2180	 2.9890
 6.2250	 2.9980
 6.2320	 3.0080
 6.2400	 3.0070
 6.2480	 3.0460
 6.2550	 3.0040
 6.2630	 2.9960
 6.2700	 2.9820
 6.2780	 3.0400
 6.2850	 3.0080
 6.2930	 3.0100
 6.3010	 3.0120
 6.3080	 3.0960
 6.3160	 3.0740
 6.3240	 3.0940
 6.3310	 3.0690
 6.3390	 2.9190
 6.3470	 2.7500
 6.3550	 2.9550
 6.3620	 2.9790
 6.3700	 2.8820
 6.3780	 2.9160
 6.3860	 3.0040
 6.3940	 2.9910
 6.4020	 2.9490
 6.4100	 2.5600
 6.4180	 2.4810
 6.4260	 2.7720
 6.4340	 2.9220
 6.4420	 2.9620
 6.4500	 3.0090
 6.4580	 2.9870
 6.4660	 2.9790
 6.4740	 2.8260
 6.4820	 2.7310
 6.4900	 2.5200
 6.4980	 2.6150
 6.5060	 2.9340
 6.5140	 2.9660
 6.5230	 2.7830
 6.5310	 2.9310
 6.5390	 2.9480
 6.5470	 2.8960
 6.5560	 2.7910
 6.5640	 2.7230
 6.5720	 2.4970
 6.5800	 2.5630
 6.5890	 2.6550
 6.5970	 2.7830
 6.6060	 2.8810
 6.6140	 2.9600
 6.6230	 2.8870
 6.6310	 2.6750
 6.6390	 2.5760
 6.6480	 2.9100
 6.6570	 3.0820
 6.6650	 3.0570
 6.6740	 2.8970
 6.6820	 2.8590
 6.6910	 2.9520
 6.7000	 3.0170
 6.7080	 2.8600
 6.7170	 2.8760
 6.7260	 2.9000
 6.7340	 2.9910
 6.7430	 2.9660
 6.7520	 2.9200
 6.7610	 2.8810
 6.7690	 2.8190
 6.7780	 2.7570
 6.7870	 2.7900
 6.7960	 2.7830
 6.8050	 2.9210
 6.8140	 2.8900
 6.8230	 2.8660
 6.8320	 3.0320
 6.8410	 3.2870
 6.8500	 3.0810
 6.8590	 2.7880
 6.8680	 2.7420
 6.8770	 3.0370
 6.8860	 3.1160
 6.8960	 3.1530
 6.9050	 3.0700
 6.9140	 3.1520
 6.9230	 3.1670
 6.9320	 3.1910
 6.9420	 3.1480
 6.9510	 3.0730
 6.9600	 2.9280
 6.9700	 3.0980
 6.9790	 3.1810
 6.9880	 3.1730
 6.9980	 3.1190
 7.0070	 3.1930
 7.0170	 3.1070
 7.0260	 3.1570
 7.0360	 3.1140
 7.0450	 2.9650
 7.0550	 3.0150
 7.0650	 3.2330
 7.0740	 3.2550
 7.0840	 3.2680
 7.0940	 3.2030
 7.1030	 3.2290
 7.1130	 3.1710
 7.1230	 3.2250
 7.1330	 3.1750
 7.1420	 3.0870
 7.1520	 3.0320
 7.1620	 3.0460
 7.1720	 2.9410
 7.1820	 3.0540
 7.1920	 3.0920
 7.2020	 3.0400
 7.2120	 2.9100
 7.2220	 3.0370
 7.2320	 3.0370
 7.2420	 3.0440
 7.2520	 3.0110
 7.2620	 3.0530
 7.2730	 2.9760
 7.2830	 2.9750
 7.2930	 2.9180
 7.3030	 2.9130
 7.3140	 2.8950
 7.3240	 2.9430
 7.3340	 2.8280
 7.3450	 2.8810
 7.3550	 2.9070
 7.3660	 2.8970
 7.3760	 2.8040
 7.3870	 2.8730
 7.3970	 2.8580
 7.4080	 2.9140
 7.4180	 2.8710
 7.4290	 2.9300
 7.4400	 2.8920
 7.4500	 2.8810
 7.4610	 2.8360
 7.4720	 2.8840
 7.4830	 2.8420
 7.4930	 2.8710
 7.5040	 2.8410
 7.5150	 2.8970
 7.5260	 2.8580
 7.5370	 2.8620
 7.5480	 2.8320
 7.5590	 2.8930
 7.5700	 2.8450
 7.5810	 2.8160
 7.5920	 2.7630
 7.6030	 2.8220
 7.6140	 2.7660
 7.6260	 2.7670
 7.6370	 2.7380
 7.6480	 2.7950
 7.6590	 2.7670
 7.6710	 2.8400
 7.6820	 2.7660
 7.6940	 2.7550
 7.7050	 2.7140
 7.7160	 2.7450
 7.7280	 2.6750
 7.7390	 2.6900
 7.7510	 2.6640
 7.7630	 2.7210
 7.7740	 2.6860
 7.7860	 2.6670
 7.7980	 2.6100
 7.8090	 2.7270
 7.8210	 2.7230
 7.8330	 2.7580
 7.8450	 2.6800
 7.8570	 2.7020
 7.8690	 2.7600
 7.8810	 2.8730
 7.8930	 2.8040
 7.9050	 2.8640
 7.9170	 2.8730
 7.9290	 2.9200
 7.9410	 2.8450
 7.9530	 2.8860
 7.9650	 2.8630
 7.9780	 2.8940
 7.9900	 2.8180
 8.0020	 2.8490
 8.0150	 2.8170
 8.0270	 2.8800
 8.0390	 2.8250
 8.0520	 2.8620
 8.0640	 2.8100
 8.0770	 2.9230
 8.0900	 2.8990
 8.1020	 2.9390
 8.1150	 2.8680
 8.1280	 2.9180
 8.1400	 2.8110
 8.1530	 2.8850
 8.1660	 2.8830
 8.1790	 2.9090
 8.1920	 2.7850
 8.2050	 2.8960
 8.2180	 2.8800
 8.2310	 2.9420
 8.2440	 2.8730
 8.2570	 2.9540
 8.2700	 2.9220
 8.2830	 3.0230
 8.2970	 2.9630
 8.3100	 3.0390
 8.3230	 3.0530
 8.3370	 3.1580
 8.3500	 3.0790
 8.3640	 3.1400
 8.3770	 3.1310
 8.3910	 3.2470
 8.4040	 3.1840
 8.4180	 3.2590
 8.4320	 3.2390
 8.4450	 3.2580
 8.4590	 3.1670
 8.4730	 3.3120
 8.4870	 3.3090
 8.5010	 3.4570
 8.5150	 3.5380
 8.5290	 3.6810
 8.5430	 3.6730
 8.5570	 3.8180
 8.5710	 3.8200
 8.5850	 3.9000
 8.5990	 3.8500
 8.6140	 3.8740
 8.6280	 3.7920
 8.6420	 3.8920
 8.6570	 3.7990
 8.6710	 3.8510
 8.6860	 3.8340
 8.7000	 3.9760
 8.7150	 3.9230
 8.7300	 3.9910
 8.7440	 3.9610
 8.7590	 4.0570
 8.7740	 3.9830
 8.7890	 4.0630
 8.8040	 4.0370
 8.8190	 4.1300
 8.8340	 4.0200
 8.8490	 4.1180
 8.8640	 3.9920
 8.8790	 3.9860
 8.8940	 3.8630
 8.9100	 3.9350
 8.9250	 3.8560
 8.9400	 3.8330
 8.9560	 3.6640
 8.9710	 3.7760
 8.9870	 3.7700
 9.0020	 3.8330
 9.0180	 3.6610
 9.0340	 3.6740
 9.0500	 3.5800
 9.0650	 3.6380
 9.0810	 3.4910
 9.0970	 3.5070
 9.1130	 3.4890
 9.1290	 3.6290
 9.1450	 3.5090
 9.1620	 3.6230
 9.1780	 3.5810
 9.1940	 3.6640
 9.2100	 3.6140
 9.2270	 3.7290
 9.2430	 3.6130
 9.2600	 3.6990
 9.2760	 3.6650
 9.2930	 3.7650
 9.3100	 3.6020
 9.3260	 3.7000
 9.3430	 3.6720
 9.3600	 3.7860
 9.3770	 3.6720
 9.3940	 3.6750
 9.4110	 3.5810
 9.4280	 3.7450
 9.4450	 3.6380
 9.4620	 3.6460
 9.4800	 3.6050
 9.4970	 3.7140
 9.5150	 3.5960
 9.5320	 3.6440
 9.5500	 3.6110
 9.5670	 3.7450
 9.5850	 3.6370
 9.6030	 3.6650
 9.6200	 3.4950
 9.6380	 3.5270
 9.6560	 3.4000
 9.6740	 3.4720
 9.6920	 3.3400
 9.7110	 3.3520
 9.7290	 3.2790
 9.7470	 3.3850
 9.7650	 3.2240
 9.7840	 3.3220
 9.8020	 3.2070
 9.8210	 3.1530
 9.8390	 3.0400
 9.8580	 3.1250
 9.8770	 3.0950
 9.8960	 3.2020
 9.9150	 3.0570
 9.9340	 3.1220
 9.9530	 2.9660
 9.9720	 3.0370
 9.9910	 2.9900
10.0100	 3.0830
10.0300	 3.0240
10.0490	 3.0780
10.0690	 2.9690
10.0880	 3.0270
10.1080	 2.9100
10.1280	 2.9690
10.1480	 2.8620
10.1670	 2.9280
10.1870	 2.8090
10.2070	 2.9130
10.2280	 2.9190
10.2480	 2.9900
10.2680	 2.8580
10.2890	 2.9140
10.3090	 2.8300
10.3300	 2.9810
10.3500	 2.9790
10.3710	 3.0470
10.3920	 2.9000
10.4120	 2.9450
10.4330	 2.8550
10.4540	 2.9860
10.4760	 2.9900
10.4970	 3.1250
10.5180	 3.0390
10.5390	 3.1590
10.5610	 3.0570
10.5820	 3.1320
10.6040	 3.0790
10.6260	 3.2160
10.6480	 3.1370
10.6700	 3.2470
10.6920	 3.1810
10.7140	 3.2830
10.7360	 3.2320
10.7580	 3.2850
10.7800	 3.1510
10.8030	 3.2660
10.8250	 3.2150
10.8480	 3.3110
10.8710	 3.1710
10.8940	 3.2460
10.9170	 3.1950
10.9400	 3.3330
10.9630	 3.2550
10.9860	 3.4020
11.0090	 3.3640
11.0330	 3.4340
11.0560	 3.2970
11.0800	 3.4030
11.1040	 3.2890
11.1270	 3.3570
11.1510	 3.2120
11.1750	 3.2920
11.2000	 3.2310
11.2240	 3.3270
11.2480	 3.2480
11.2730	 3.4540
11.2970	 3.4340
11.3220	 3.5780
11.3470	 3.4800
11.3720	 3.5080
11.3970	 3.4250
11.4220	 3.7010
11.4470	 3.6780
11.4720	 3.7600
11.4980	 3.6120
11.5230	 3.6520
11.5490	 3.5570
11.5750	 3.7150
11.6000	 3.5610
11.6260	 3.6850
11.6530	 3.6110
11.6790	 3.6410
11.7050	 3.3980
11.7320	 3.5150
11.7580	 3.3780
11.7850	 3.4210
11.8120	 3.3400
11.8390	 3.4930
11.8660	 3.3400
11.8930	 3.4480
11.9200	 3.2960
11.9480	 3.3910
11.9760	 3.2620
12.0030	 3.3920
12.0310	 3.3300
12.0590	 3.5390
12.0870	 3.4820
12.1150	 3.5650
12.1440	 3.3720
12.1720	 3.5990
12.2010	 3.5090
12.2300	 3.5380
12.2590	 3.4030
12.2880	 3.6240
12.3170	 3.4600
12.3460	 3.6040
12.3760	 3.5150
12.4050	 3.6860
12.4350	 3.5370
12.4650	 3.7070
12.4950	 3.5780
12.5250	 3.6710
12.5550	 3.5460
12.5860	 3.6390
12.6170	 3.4410
12.6470	 3.5890
12.6780	 3.4800
12.7090	 3.6380
12.7410	 3.4930
12.7720	 3.6190
12.8030	 3.4240
12.8350	 3.6190
12.8670	 3.4620
12.8990	 3.5410
12.9310	 3.4650
12.9640	 3.6690
12.9960	 3.4070
13.0290	 3.4920
13.0610	 3.3720
13.0940	 3.4980
13.1280	 3.3060
13.1610	 3.5150
13.1940	 3.2840
13.2280	 3.1630
13.2620	 3.1220
13.2960	 3.4720
13.3300	 3.2960
13.3640	 3.3600
13.3990	 3.1250
13.4340	 3.3060
13.4690	 3.1650
13.5040	 3.3330
13.5390	 3.1650
13.5740	 3.3270
13.6100	 3.0650
13.6460	 3.2390
13.6820	 3.1330
13.7180	 3.3780
13.7540	 3.1280
13.7910	 3.3380
13.8280	 3.2180
13.8650	 3.3910
13.9020	 3.3010
13.9390	 3.5240
13.9770	 3.1790
14.0150	 3.2200
14.0530	 2.9590
14.0910	 3.2450
14.1290	 3.0840
14.1680	 3.1830
14.2070	 2.8960
14.2460	 3.0820
14.2850	 2.8240
14.3240	 3.0160
14.3640	 2.6940
14.4040	 2.9430
14.4440	 2.7100
14.4840	 2.8870
14.5250	 2.7460
14.5660	 3.1820
14.6070	 2.8600
14.6480	 2.9800
14.6900	 2.6730
14.7310	 2.9910
14.7730	 2.5530
14.8150	 2.7880
14.8580	 2.6210
14.9010	 2.9730
14.9440	 2.3990
14.9870	 2.8770
15.0300	 2.2650
15.0740	 2.6050
15.1180	 2.4910
15.1620	 2.8410
15.2060	 2.4220
15.2510	 2.7450
15.2960	 2.3730
15.3410	 2.7730
15.3870	 2.1010
