Name: Salvia leucophylla 2
Type: vegetation
Class: Shrub
Genus: Salvia
Species: leucophylla
Sample No.: VH094
Owner: UCSB
Wavelength Range: VSWIR
Origin: 34.698; -120.0477; WGS84
Collection Date: 4/21/2013
Description: Samples were collected as part of the HyspIRI Airborne Campaign. 48 individual plants were sampled in three times in 2013 - spring  summer  and fall. The name of the sample includes a 1  2  or 3 which references a different individual of the species. Samples were taken to JPL and processed within 48 hours of collection. The same leaves were processed in the Nicolet and then measured using the ASD.
Measurement: Bidirectional reflectance
First Column: X
Second Column: Y
X Units: Wavelength (micrometers)
Y Units: Reflectance (percentage)
First X Value: 0.35
Last X Value: 2.5
Number of X Values: 2151
Additional Information: vegetation.shrub.salvia.leucophylla.vswir.vh094.ucsb.asd.ancillary.txt

 0.3500	 4.3880
 0.3510	 4.2690
 0.3520	 4.2280
 0.3530	 4.1830
 0.3540	 4.0800
 0.3550	 4.1670
 0.3560	 4.2220
 0.3570	 4.2300
 0.3580	 4.2670
 0.3590	 4.2360
 0.3600	 4.2040
 0.3610	 4.2380
 0.3620	 4.3940
 0.3630	 4.5000
 0.3640	 4.5410
 0.3650	 4.5660
 0.3660	 4.6830
 0.3670	 4.7360
 0.3680	 4.7850
 0.3690	 5.0070
 0.3700	 5.0650
 0.3710	 5.1410
 0.3720	 5.3300
 0.3730	 5.4440
 0.3740	 5.5870
 0.3750	 5.7460
 0.3760	 5.8900
 0.3770	 6.0770
 0.3780	 6.2400
 0.3790	 6.3730
 0.3800	 6.5230
 0.3810	 6.7020
 0.3820	 6.9410
 0.3830	 7.2110
 0.3840	 7.3560
 0.3850	 7.4890
 0.3860	 7.6600
 0.3870	 7.8770
 0.3880	 8.0370
 0.3890	 8.2420
 0.3900	 8.4840
 0.3910	 8.6260
 0.3920	 8.8190
 0.3930	 9.0390
 0.3940	 9.2330
 0.3950	 9.3590
 0.3960	 9.4770
 0.3970	 9.6100
 0.3980	 9.7620
 0.3990	 9.9530
 0.4000	10.1300
 0.4010	10.2660
 0.4020	10.3690
 0.4030	10.5040
 0.4040	10.6560
 0.4050	10.8030
 0.4060	10.9700
 0.4070	11.1160
 0.4080	11.2310
 0.4090	11.3310
 0.4100	11.4620
 0.4110	11.6000
 0.4120	11.7340
 0.4130	11.8920
 0.4140	12.0200
 0.4150	12.1370
 0.4160	12.2720
 0.4170	12.3970
 0.4180	12.5220
 0.4190	12.6490
 0.4200	12.7740
 0.4210	12.9150
 0.4220	13.0530
 0.4230	13.1800
 0.4240	13.3150
 0.4250	13.4420
 0.4260	13.5600
 0.4270	13.6760
 0.4280	13.7890
 0.4290	13.9060
 0.4300	14.0240
 0.4310	14.1320
 0.4320	14.2530
 0.4330	14.3720
 0.4340	14.4760
 0.4350	14.5660
 0.4360	14.6540
 0.4370	14.7390
 0.4380	14.8090
 0.4390	14.8900
 0.4400	14.9720
 0.4410	15.0430
 0.4420	15.1000
 0.4430	15.1690
 0.4440	15.2420
 0.4450	15.3020
 0.4460	15.3690
 0.4470	15.4210
 0.4480	15.4590
 0.4490	15.5120
 0.4500	15.5640
 0.4510	15.6070
 0.4520	15.6440
 0.4530	15.7000
 0.4540	15.7440
 0.4550	15.7760
 0.4560	15.8170
 0.4570	15.8500
 0.4580	15.8790
 0.4590	15.9100
 0.4600	15.9420
 0.4610	15.9660
 0.4620	15.9960
 0.4630	16.0410
 0.4640	16.0480
 0.4650	16.0570
 0.4660	16.0820
 0.4670	16.1070
 0.4680	16.1240
 0.4690	16.1330
 0.4700	16.1420
 0.4710	16.1690
 0.4720	16.1880
 0.4730	16.1980
 0.4740	16.2120
 0.4750	16.2210
 0.4760	16.2370
 0.4770	16.2610
 0.4780	16.2710
 0.4790	16.2800
 0.4800	16.2950
 0.4810	16.3180
 0.4820	16.3260
 0.4830	16.3310
 0.4840	16.3400
 0.4850	16.3570
 0.4860	16.3830
 0.4870	16.4070
 0.4880	16.4190
 0.4890	16.4300
 0.4900	16.4400
 0.4910	16.4530
 0.4920	16.4730
 0.4930	16.4930
 0.4940	16.5150
 0.4950	16.5400
 0.4960	16.5660
 0.4970	16.5920
 0.4980	16.6230
 0.4990	16.6610
 0.5000	16.6850
 0.5010	16.7180
 0.5020	16.7600
 0.5030	16.7960
 0.5040	16.8400
 0.5050	16.8910
 0.5060	16.9450
 0.5070	16.9970
 0.5080	17.0630
 0.5090	17.1400
 0.5100	17.2140
 0.5110	17.2880
 0.5120	17.3710
 0.5130	17.4710
 0.5140	17.5830
 0.5150	17.7020
 0.5160	17.8250
 0.5170	17.9510
 0.5180	18.0820
 0.5190	18.2210
 0.5200	18.3690
 0.5210	18.5290
 0.5220	18.6890
 0.5230	18.8520
 0.5240	19.0170
 0.5250	19.1810
 0.5260	19.3440
 0.5270	19.5060
 0.5280	19.6620
 0.5290	19.8150
 0.5300	19.9610
 0.5310	20.1000
 0.5320	20.2390
 0.5330	20.3640
 0.5340	20.4840
 0.5350	20.6050
 0.5360	20.7190
 0.5370	20.8260
 0.5380	20.9270
 0.5390	21.0220
 0.5400	21.1190
 0.5410	21.2200
 0.5420	21.3200
 0.5430	21.4070
 0.5440	21.4890
 0.5450	21.5630
 0.5460	21.6250
 0.5470	21.6690
 0.5480	21.7120
 0.5490	21.7590
 0.5500	21.8080
 0.5510	21.8540
 0.5520	21.8900
 0.5530	21.9110
 0.5540	21.9230
 0.5550	21.9290
 0.5560	21.9270
 0.5570	21.9130
 0.5580	21.8920
 0.5590	21.8630
 0.5600	21.8250
 0.5610	21.7770
 0.5620	21.7200
 0.5630	21.6580
 0.5640	21.5930
 0.5650	21.5250
 0.5660	21.4540
 0.5670	21.3790
 0.5680	21.3030
 0.5690	21.2150
 0.5700	21.1250
 0.5710	21.0400
 0.5720	20.9560
 0.5730	20.8680
 0.5740	20.7790
 0.5750	20.6920
 0.5760	20.6180
 0.5770	20.5520
 0.5780	20.4910
 0.5790	20.4380
 0.5800	20.3820
 0.5810	20.3250
 0.5820	20.2720
 0.5830	20.2270
 0.5840	20.1940
 0.5850	20.1680
 0.5860	20.1280
 0.5870	20.0930
 0.5880	20.0610
 0.5890	20.0290
 0.5900	19.9970
 0.5910	19.9720
 0.5920	19.9530
 0.5930	19.9320
 0.5940	19.9140
 0.5950	19.9020
 0.5960	19.8980
 0.5970	19.8950
 0.5980	19.8920
 0.5990	19.8870
 0.6000	19.8790
 0.6010	19.8650
 0.6020	19.8440
 0.6030	19.8170
 0.6040	19.7860
 0.6050	19.7490
 0.6060	19.7030
 0.6070	19.6500
 0.6080	19.6000
 0.6090	19.5510
 0.6100	19.5100
 0.6110	19.4820
 0.6120	19.4230
 0.6130	19.3460
 0.6140	19.2660
 0.6150	19.2010
 0.6160	19.1480
 0.6170	19.0990
 0.6180	19.0480
 0.6190	19.0040
 0.6200	18.9740
 0.6210	18.9500
 0.6220	18.9170
 0.6230	18.8890
 0.6240	18.8670
 0.6250	18.8520
 0.6260	18.8440
 0.6270	18.8350
 0.6280	18.8250
 0.6290	18.8170
 0.6300	18.8130
 0.6310	18.8140
 0.6320	18.8120
 0.6330	18.7980
 0.6340	18.7800
 0.6350	18.7610
 0.6360	18.7400
 0.6370	18.7070
 0.6380	18.6740
 0.6390	18.6400
 0.6400	18.5950
 0.6410	18.5480
 0.6420	18.4940
 0.6430	18.4360
 0.6440	18.3830
 0.6450	18.3260
 0.6460	18.2680
 0.6470	18.2110
 0.6480	18.1600
 0.6490	18.1070
 0.6500	18.0550
 0.6510	18.0090
 0.6520	17.9610
 0.6530	17.9160
 0.6540	17.8770
 0.6550	17.8320
 0.6560	17.7840
 0.6570	17.7310
 0.6580	17.6720
 0.6590	17.6100
 0.6600	17.5500
 0.6610	17.4930
 0.6620	17.4370
 0.6630	17.3810
 0.6640	17.3310
 0.6650	17.2880
 0.6660	17.2450
 0.6670	17.2060
 0.6680	17.1750
 0.6690	17.1540
 0.6700	17.1380
 0.6710	17.1230
 0.6720	17.1130
 0.6730	17.1130
 0.6740	17.1120
 0.6750	17.1120
 0.6760	17.1200
 0.6770	17.1330
 0.6780	17.1470
 0.6790	17.1620
 0.6800	17.1810
 0.6810	17.2080
 0.6820	17.2420
 0.6830	17.2830
 0.6840	17.3420
 0.6850	17.4140
 0.6860	17.5050
 0.6870	17.6180
 0.6880	17.7560
 0.6890	17.9310
 0.6900	18.1480
 0.6910	18.4080
 0.6920	18.7100
 0.6930	19.0640
 0.6940	19.4770
 0.6950	19.9350
 0.6960	20.4450
 0.6970	21.0030
 0.6980	21.6040
 0.6990	22.2460
 0.7000	22.9260
 0.7010	23.6380
 0.7020	24.3720
 0.7030	25.1300
 0.7040	25.9070
 0.7050	26.6940
 0.7060	27.4840
 0.7070	28.2800
 0.7080	29.0800
 0.7090	29.8830
 0.7100	30.6840
 0.7110	31.4860
 0.7120	32.2880
 0.7130	33.0890
 0.7140	33.8820
 0.7150	34.6700
 0.7160	35.4590
 0.7170	36.2480
 0.7180	37.0230
 0.7190	37.7850
 0.7200	38.5410
 0.7210	39.2880
 0.7220	40.0180
 0.7230	40.7290
 0.7240	41.4240
 0.7250	42.0980
 0.7260	42.7510
 0.7270	43.3810
 0.7280	43.9900
 0.7290	44.5750
 0.7300	45.1390
 0.7310	45.6810
 0.7320	46.1930
 0.7330	46.6780
 0.7340	47.1410
 0.7350	47.5880
 0.7360	48.0100
 0.7370	48.4040
 0.7380	48.7760
 0.7390	49.1370
 0.7400	49.4790
 0.7410	49.8010
 0.7420	50.1030
 0.7430	50.3840
 0.7440	50.6530
 0.7450	50.9080
 0.7460	51.1410
 0.7470	51.3620
 0.7480	51.5710
 0.7490	51.7690
 0.7500	51.9590
 0.7510	52.1300
 0.7520	52.2870
 0.7530	52.4370
 0.7540	52.5740
 0.7550	52.7040
 0.7560	52.8290
 0.7570	52.9500
 0.7580	53.0610
 0.7590	53.1660
 0.7600	53.2670
 0.7610	53.3550
 0.7620	53.4400
 0.7630	53.5230
 0.7640	53.6020
 0.7650	53.6780
 0.7660	53.7540
 0.7670	53.8260
 0.7680	53.8850
 0.7690	53.9570
 0.7700	54.0200
 0.7710	54.0690
 0.7720	54.1380
 0.7730	54.1900
 0.7740	54.2400
 0.7750	54.3020
 0.7760	54.3560
 0.7770	54.4050
 0.7780	54.4530
 0.7790	54.5040
 0.7800	54.5580
 0.7810	54.6050
 0.7820	54.6480
 0.7830	54.6970
 0.7840	54.7450
 0.7850	54.7940
 0.7860	54.8420
 0.7870	54.8840
 0.7880	54.9230
 0.7890	54.9620
 0.7900	55.0020
 0.7910	55.0440
 0.7920	55.0820
 0.7930	55.1180
 0.7940	55.1610
 0.7950	55.2040
 0.7960	55.2380
 0.7970	55.2660
 0.7980	55.3070
 0.7990	55.3390
 0.8000	55.3650
 0.8010	55.3950
 0.8020	55.4330
 0.8030	55.4590
 0.8040	55.4800
 0.8050	55.5150
 0.8060	55.5380
 0.8070	55.5670
 0.8080	55.6010
 0.8090	55.6200
 0.8100	55.6370
 0.8110	55.6560
 0.8120	55.6800
 0.8130	55.7110
 0.8140	55.7370
 0.8150	55.7550
 0.8160	55.7680
 0.8170	55.7890
 0.8180	55.8050
 0.8190	55.8170
 0.8200	55.8320
 0.8210	55.8550
 0.8220	55.8730
 0.8230	55.8850
 0.8240	55.9040
 0.8250	55.9130
 0.8260	55.9250
 0.8270	55.9440
 0.8280	55.9600
 0.8290	55.9710
 0.8300	55.9780
 0.8310	55.9840
 0.8320	55.9940
 0.8330	56.0050
 0.8340	56.0170
 0.8350	56.0310
 0.8360	56.0470
 0.8370	56.0620
 0.8380	56.0780
 0.8390	56.0980
 0.8400	56.1140
 0.8410	56.1260
 0.8420	56.1360
 0.8430	56.1560
 0.8440	56.1710
 0.8450	56.1850
 0.8460	56.2040
 0.8470	56.2310
 0.8480	56.2590
 0.8490	56.2820
 0.8500	56.2960
 0.8510	56.3060
 0.8520	56.3220
 0.8530	56.3470
 0.8540	56.3760
 0.8550	56.3940
 0.8560	56.4150
 0.8570	56.4410
 0.8580	56.4640
 0.8590	56.4760
 0.8600	56.4940
 0.8610	56.5220
 0.8620	56.5450
 0.8630	56.5700
 0.8640	56.5950
 0.8650	56.6190
 0.8660	56.6430
 0.8670	56.6690
 0.8680	56.6980
 0.8690	56.7260
 0.8700	56.7520
 0.8710	56.7710
 0.8720	56.7900
 0.8730	56.8180
 0.8740	56.8440
 0.8750	56.8750
 0.8760	56.9080
 0.8770	56.9280
 0.8780	56.9570
 0.8790	56.9900
 0.8800	57.0200
 0.8810	57.0430
 0.8820	57.0700
 0.8830	57.0990
 0.8840	57.1240
 0.8850	57.1530
 0.8860	57.1840
 0.8870	57.2170
 0.8880	57.2480
 0.8890	57.2740
 0.8900	57.3000
 0.8910	57.3280
 0.8920	57.3580
 0.8930	57.3880
 0.8940	57.4110
 0.8950	57.4330
 0.8960	57.4650
 0.8970	57.4920
 0.8980	57.5110
 0.8990	57.5300
 0.9000	57.5590
 0.9010	57.5930
 0.9020	57.6260
 0.9030	57.6560
 0.9040	57.6810
 0.9050	57.7070
 0.9060	57.7390
 0.9070	57.7720
 0.9080	57.7910
 0.9090	57.8070
 0.9100	57.8310
 0.9110	57.8650
 0.9120	57.8980
 0.9130	57.9140
 0.9140	57.9290
 0.9150	57.9580
 0.9160	57.9820
 0.9170	58.0090
 0.9180	58.0370
 0.9190	58.0620
 0.9200	58.0900
 0.9210	58.1100
 0.9220	58.1210
 0.9230	58.1310
 0.9240	58.1410
 0.9250	58.1560
 0.9260	58.1690
 0.9270	58.1640
 0.9280	58.1700
 0.9290	58.1820
 0.9300	58.1900
 0.9310	58.1890
 0.9320	58.1800
 0.9330	58.1760
 0.9340	58.1770
 0.9350	58.1620
 0.9360	58.1730
 0.9370	58.1750
 0.9380	58.1520
 0.9390	58.1310
 0.9400	58.1180
 0.9410	58.1070
 0.9420	58.0880
 0.9430	58.0500
 0.9440	58.0210
 0.9450	57.9940
 0.9460	57.9620
 0.9470	57.9370
 0.9480	57.8870
 0.9490	57.8230
 0.9500	57.7650
 0.9510	57.7220
 0.9520	57.6700
 0.9530	57.6110
 0.9540	57.5520
 0.9550	57.4700
 0.9560	57.3980
 0.9570	57.3340
 0.9580	57.2690
 0.9590	57.2160
 0.9600	57.1600
 0.9610	57.1220
 0.9620	57.1130
 0.9630	57.0630
 0.9640	57.0210
 0.9650	57.0030
 0.9660	57.0020
 0.9670	56.9850
 0.9680	56.9710
 0.9690	56.9580
 0.9700	56.9430
 0.9710	56.9580
 0.9720	56.9510
 0.9730	56.9320
 0.9740	56.9350
 0.9750	56.9490
 0.9760	56.9590
 0.9770	56.9640
 0.9780	56.9730
 0.9790	56.9880
 0.9800	57.0010
 0.9810	57.0160
 0.9820	57.0360
 0.9830	57.0170
 0.9840	57.0360
 0.9850	57.0960
 0.9860	57.1480
 0.9870	57.1380
 0.9880	57.1570
 0.9890	57.1970
 0.9900	57.2140
 0.9910	57.2440
 0.9920	57.3270
 0.9930	57.4110
 0.9940	57.4950
 0.9950	57.5780
 0.9960	57.6620
 0.9970	57.7460
 0.9980	57.8290
 0.9990	57.9130
 1.0000	57.9970
 1.0010	58.0800
 1.0020	58.1640
 1.0030	58.2470
 1.0040	58.3310
 1.0050	58.4150
 1.0060	58.4980
 1.0070	58.5820
 1.0080	58.6660
 1.0090	58.7490
 1.0100	58.7490
 1.0110	58.7820
 1.0120	58.8180
 1.0130	58.8570
 1.0140	58.8950
 1.0150	58.9350
 1.0160	58.9680
 1.0170	58.9980
 1.0180	59.0350
 1.0190	59.0700
 1.0200	59.1030
 1.0210	59.1380
 1.0220	59.1710
 1.0230	59.2060
 1.0240	59.2410
 1.0250	59.2750
 1.0260	59.3110
 1.0270	59.3420
 1.0280	59.3680
 1.0290	59.3990
 1.0300	59.4300
 1.0310	59.4600
 1.0320	59.4930
 1.0330	59.5250
 1.0340	59.5520
 1.0350	59.5800
 1.0360	59.6090
 1.0370	59.6370
 1.0380	59.6650
 1.0390	59.6940
 1.0400	59.7200
 1.0410	59.7450
 1.0420	59.7690
 1.0430	59.7930
 1.0440	59.8160
 1.0450	59.8370
 1.0460	59.8630
 1.0470	59.8920
 1.0480	59.9180
 1.0490	59.9470
 1.0500	59.9710
 1.0510	59.9900
 1.0520	60.0080
 1.0530	60.0240
 1.0540	60.0340
 1.0550	60.0500
 1.0560	60.0670
 1.0570	60.0820
 1.0580	60.0980
 1.0590	60.1130
 1.0600	60.1230
 1.0610	60.1370
 1.0620	60.1540
 1.0630	60.1690
 1.0640	60.1850
 1.0650	60.1970
 1.0660	60.2070
 1.0670	60.2150
 1.0680	60.2210
 1.0690	60.2210
 1.0700	60.2270
 1.0710	60.2340
 1.0720	60.2400
 1.0730	60.2490
 1.0740	60.2520
 1.0750	60.2500
 1.0760	60.2520
 1.0770	60.2510
 1.0780	60.2550
 1.0790	60.2640
 1.0800	60.2680
 1.0810	60.2720
 1.0820	60.2740
 1.0830	60.2710
 1.0840	60.2680
 1.0850	60.2640
 1.0860	60.2580
 1.0870	60.2550
 1.0880	60.2520
 1.0890	60.2490
 1.0900	60.2500
 1.0910	60.2450
 1.0920	60.2360
 1.0930	60.2270
 1.0940	60.2170
 1.0950	60.2060
 1.0960	60.1960
 1.0970	60.1840
 1.0980	60.1690
 1.0990	60.1550
 1.1000	60.1410
 1.1010	60.1280
 1.1020	60.1180
 1.1030	60.1060
 1.1040	60.0940
 1.1050	60.0810
 1.1060	60.0680
 1.1070	60.0540
 1.1080	60.0390
 1.1090	60.0220
 1.1100	60.0040
 1.1110	59.9830
 1.1120	59.9640
 1.1130	59.9440
 1.1140	59.9230
 1.1150	59.9040
 1.1160	59.8800
 1.1170	59.8560
 1.1180	59.8270
 1.1190	59.7940
 1.1200	59.7590
 1.1210	59.7160
 1.1220	59.6690
 1.1230	59.6190
 1.1240	59.5640
 1.1250	59.5030
 1.1260	59.4400
 1.1270	59.3640
 1.1280	59.2810
 1.1290	59.1870
 1.1300	59.0860
 1.1310	58.9720
 1.1320	58.8460
 1.1330	58.7120
 1.1340	58.5700
 1.1350	58.4170
 1.1360	58.2570
 1.1370	58.0870
 1.1380	57.9070
 1.1390	57.7200
 1.1400	57.5260
 1.1410	57.3340
 1.1420	57.1380
 1.1430	56.9400
 1.1440	56.7460
 1.1450	56.5490
 1.1460	56.3610
 1.1470	56.1760
 1.1480	56.0000
 1.1490	55.8280
 1.1500	55.6680
 1.1510	55.5150
 1.1520	55.3730
 1.1530	55.2420
 1.1540	55.1210
 1.1550	55.0080
 1.1560	54.9060
 1.1570	54.8150
 1.1580	54.7320
 1.1590	54.6590
 1.1600	54.5890
 1.1610	54.5230
 1.1620	54.4660
 1.1630	54.4130
 1.1640	54.3650
 1.1650	54.3220
 1.1660	54.2850
 1.1670	54.2480
 1.1680	54.2150
 1.1690	54.1810
 1.1700	54.1510
 1.1710	54.1180
 1.1720	54.0860
 1.1730	54.0520
 1.1740	54.0160
 1.1750	53.9780
 1.1760	53.9410
 1.1770	53.9030
 1.1780	53.8660
 1.1790	53.8290
 1.1800	53.7930
 1.1810	53.7570
 1.1820	53.7190
 1.1830	53.6820
 1.1840	53.6520
 1.1850	53.6210
 1.1860	53.5930
 1.1870	53.5710
 1.1880	53.5520
 1.1890	53.5330
 1.1900	53.5210
 1.1910	53.5160
 1.1920	53.5120
 1.1930	53.5120
 1.1940	53.5160
 1.1950	53.5250
 1.1960	53.5370
 1.1970	53.5470
 1.1980	53.5620
 1.1990	53.5800
 1.2000	53.5970
 1.2010	53.6200
 1.2020	53.6470
 1.2030	53.6740
 1.2040	53.7010
 1.2050	53.7320
 1.2060	53.7650
 1.2070	53.7990
 1.2080	53.8350
 1.2090	53.8760
 1.2100	53.9190
 1.2110	53.9650
 1.2120	54.0160
 1.2130	54.0670
 1.2140	54.1180
 1.2150	54.1730
 1.2160	54.2310
 1.2170	54.2900
 1.2180	54.3500
 1.2190	54.4080
 1.2200	54.4670
 1.2210	54.5260
 1.2220	54.5860
 1.2230	54.6470
 1.2240	54.7050
 1.2250	54.7600
 1.2260	54.8140
 1.2270	54.8680
 1.2280	54.9220
 1.2290	54.9750
 1.2300	55.0230
 1.2310	55.0680
 1.2320	55.1120
 1.2330	55.1540
 1.2340	55.1960
 1.2350	55.2410
 1.2360	55.2810
 1.2370	55.3190
 1.2380	55.3550
 1.2390	55.3890
 1.2400	55.4220
 1.2410	55.4570
 1.2420	55.4910
 1.2430	55.5220
 1.2440	55.5540
 1.2450	55.5860
 1.2460	55.6160
 1.2470	55.6450
 1.2480	55.6750
 1.2490	55.7030
 1.2500	55.7270
 1.2510	55.7510
 1.2520	55.7720
 1.2530	55.7890
 1.2540	55.8070
 1.2550	55.8230
 1.2560	55.8360
 1.2570	55.8520
 1.2580	55.8650
 1.2590	55.8770
 1.2600	55.8880
 1.2610	55.8980
 1.2620	55.9060
 1.2630	55.9130
 1.2640	55.9200
 1.2650	55.9260
 1.2660	55.9290
 1.2670	55.9280
 1.2680	55.9270
 1.2690	55.9250
 1.2700	55.9210
 1.2710	55.9190
 1.2720	55.9140
 1.2730	55.9070
 1.2740	55.8960
 1.2750	55.8860
 1.2760	55.8730
 1.2770	55.8580
 1.2780	55.8450
 1.2790	55.8290
 1.2800	55.8110
 1.2810	55.7940
 1.2820	55.7720
 1.2830	55.7470
 1.2840	55.7230
 1.2850	55.6960
 1.2860	55.6670
 1.2870	55.6350
 1.2880	55.6000
 1.2890	55.5590
 1.2900	55.5170
 1.2910	55.4710
 1.2920	55.4240
 1.2930	55.3770
 1.2940	55.3260
 1.2950	55.2720
 1.2960	55.2150
 1.2970	55.1530
 1.2980	55.0860
 1.2990	55.0160
 1.3000	54.9450
 1.3010	54.8730
 1.3020	54.7970
 1.3030	54.7190
 1.3040	54.6360
 1.3050	54.5490
 1.3060	54.4570
 1.3070	54.3610
 1.3080	54.2640
 1.3090	54.1600
 1.3100	54.0530
 1.3110	53.9450
 1.3120	53.8320
 1.3130	53.7190
 1.3140	53.6000
 1.3150	53.4750
 1.3160	53.3480
 1.3170	53.2170
 1.3180	53.0800
 1.3190	52.9410
 1.3200	52.7990
 1.3210	52.6500
 1.3220	52.5020
 1.3230	52.3510
 1.3240	52.1950
 1.3250	52.0380
 1.3260	51.8770
 1.3270	51.7130
 1.3280	51.5500
 1.3290	51.3830
 1.3300	51.2130
 1.3310	51.0420
 1.3320	50.8660
 1.3330	50.6920
 1.3340	50.5170
 1.3350	50.3400
 1.3360	50.1640
 1.3370	49.9860
 1.3380	49.8120
 1.3390	49.6400
 1.3400	49.4680
 1.3410	49.2980
 1.3420	49.1260
 1.3430	48.9550
 1.3440	48.7830
 1.3450	48.6150
 1.3460	48.4480
 1.3470	48.2820
 1.3480	48.1180
 1.3490	47.9550
 1.3500	47.7940
 1.3510	47.6310
 1.3520	47.4720
 1.3530	47.3120
 1.3540	47.1500
 1.3550	46.9910
 1.3560	46.8310
 1.3570	46.6680
 1.3580	46.5060
 1.3590	46.3410
 1.3600	46.1730
 1.3610	46.0040
 1.3620	45.8290
 1.3630	45.6500
 1.3640	45.4620
 1.3650	45.2660
 1.3660	45.0630
 1.3670	44.8490
 1.3680	44.6260
 1.3690	44.3910
 1.3700	44.1380
 1.3710	43.8720
 1.3720	43.5910
 1.3730	43.2900
 1.3740	42.9730
 1.3750	42.6380
 1.3760	42.2810
 1.3770	41.9030
 1.3780	41.4990
 1.3790	41.0750
 1.3800	40.6300
 1.3810	40.1610
 1.3820	39.6790
 1.3830	39.1810
 1.3840	38.6660
 1.3850	38.1340
 1.3860	37.5920
 1.3870	37.0290
 1.3880	36.4680
 1.3890	35.8970
 1.3900	35.3230
 1.3910	34.7550
 1.3920	34.1860
 1.3930	33.6170
 1.3940	33.0560
 1.3950	32.4970
 1.3960	31.9510
 1.3970	31.4200
 1.3980	30.9030
 1.3990	30.4070
 1.4000	29.9290
 1.4010	29.4660
 1.4020	29.0260
 1.4030	28.6020
 1.4040	28.2000
 1.4050	27.8190
 1.4060	27.4580
 1.4070	27.1210
 1.4080	26.8050
 1.4090	26.5080
 1.4100	26.2330
 1.4110	25.9760
 1.4120	25.7370
 1.4130	25.5160
 1.4140	25.3120
 1.4150	25.1250
 1.4160	24.9530
 1.4170	24.7950
 1.4180	24.6510
 1.4190	24.5170
 1.4200	24.3950
 1.4210	24.2830
 1.4220	24.1810
 1.4230	24.0900
 1.4240	24.0060
 1.4250	23.9290
 1.4260	23.8610
 1.4270	23.7980
 1.4280	23.7430
 1.4290	23.6930
 1.4300	23.6510
 1.4310	23.6130
 1.4320	23.5810
 1.4330	23.5520
 1.4340	23.5300
 1.4350	23.5110
 1.4360	23.4950
 1.4370	23.4830
 1.4380	23.4760
 1.4390	23.4700
 1.4400	23.4680
 1.4410	23.4690
 1.4420	23.4710
 1.4430	23.4760
 1.4440	23.4840
 1.4450	23.4930
 1.4460	23.5040
 1.4470	23.5160
 1.4480	23.5280
 1.4490	23.5440
 1.4500	23.5590
 1.4510	23.5760
 1.4520	23.5940
 1.4530	23.6130
 1.4540	23.6340
 1.4550	23.6580
 1.4560	23.6830
 1.4570	23.7110
 1.4580	23.7420
 1.4590	23.7760
 1.4600	23.8140
 1.4610	23.8540
 1.4620	23.8990
 1.4630	23.9470
 1.4640	23.9990
 1.4650	24.0560
 1.4660	24.1170
 1.4670	24.1820
 1.4680	24.2530
 1.4690	24.3270
 1.4700	24.4070
 1.4710	24.4910
 1.4720	24.5770
 1.4730	24.6670
 1.4740	24.7590
 1.4750	24.8530
 1.4760	24.9510
 1.4770	25.0500
 1.4780	25.1530
 1.4790	25.2590
 1.4800	25.3640
 1.4810	25.4720
 1.4820	25.5800
 1.4830	25.6900
 1.4840	25.8030
 1.4850	25.9150
 1.4860	26.0280
 1.4870	26.1420
 1.4880	26.2560
 1.4890	26.3710
 1.4900	26.4880
 1.4910	26.6060
 1.4920	26.7240
 1.4930	26.8440
 1.4940	26.9640
 1.4950	27.0830
 1.4960	27.2030
 1.4970	27.3220
 1.4980	27.4420
 1.4990	27.5620
 1.5000	27.6820
 1.5010	27.8030
 1.5020	27.9240
 1.5030	28.0470
 1.5040	28.1690
 1.5050	28.2910
 1.5060	28.4120
 1.5070	28.5330
 1.5080	28.6540
 1.5090	28.7760
 1.5100	28.8980
 1.5110	29.0200
 1.5120	29.1420
 1.5130	29.2610
 1.5140	29.3810
 1.5150	29.5000
 1.5160	29.6180
 1.5170	29.7370
 1.5180	29.8530
 1.5190	29.9690
 1.5200	30.0850
 1.5210	30.1980
 1.5220	30.3140
 1.5230	30.4280
 1.5240	30.5400
 1.5250	30.6550
 1.5260	30.7670
 1.5270	30.8760
 1.5280	30.9880
 1.5290	31.0970
 1.5300	31.2050
 1.5310	31.3140
 1.5320	31.4200
 1.5330	31.5270
 1.5340	31.6320
 1.5350	31.7360
 1.5360	31.8420
 1.5370	31.9420
 1.5380	32.0440
 1.5390	32.1450
 1.5400	32.2440
 1.5410	32.3450
 1.5420	32.4460
 1.5430	32.5440
 1.5440	32.6430
 1.5450	32.7400
 1.5460	32.8370
 1.5470	32.9350
 1.5480	33.0310
 1.5490	33.1260
 1.5500	33.2190
 1.5510	33.3100
 1.5520	33.4020
 1.5530	33.4930
 1.5540	33.5830
 1.5550	33.6750
 1.5560	33.7630
 1.5570	33.8500
 1.5580	33.9370
 1.5590	34.0210
 1.5600	34.1050
 1.5610	34.1870
 1.5620	34.2680
 1.5630	34.3490
 1.5640	34.4290
 1.5650	34.5100
 1.5660	34.5920
 1.5670	34.6720
 1.5680	34.7530
 1.5690	34.8320
 1.5700	34.9080
 1.5710	34.9840
 1.5720	35.0580
 1.5730	35.1320
 1.5740	35.2070
 1.5750	35.2810
 1.5760	35.3550
 1.5770	35.4280
 1.5780	35.5030
 1.5790	35.5780
 1.5800	35.6510
 1.5810	35.7250
 1.5820	35.7960
 1.5830	35.8670
 1.5840	35.9390
 1.5850	36.0090
 1.5860	36.0780
 1.5870	36.1470
 1.5880	36.2160
 1.5890	36.2850
 1.5900	36.3520
 1.5910	36.4190
 1.5920	36.4840
 1.5930	36.5460
 1.5940	36.6110
 1.5950	36.6770
 1.5960	36.7430
 1.5970	36.8100
 1.5980	36.8740
 1.5990	36.9360
 1.6000	36.9970
 1.6010	37.0570
 1.6020	37.1180
 1.6030	37.1790
 1.6040	37.2370
 1.6050	37.2970
 1.6060	37.3530
 1.6070	37.4080
 1.6080	37.4640
 1.6090	37.5170
 1.6100	37.5690
 1.6110	37.6220
 1.6120	37.6740
 1.6130	37.7260
 1.6140	37.7750
 1.6150	37.8210
 1.6160	37.8670
 1.6170	37.9130
 1.6180	37.9570
 1.6190	38.0030
 1.6200	38.0440
 1.6210	38.0850
 1.6220	38.1250
 1.6230	38.1610
 1.6240	38.1990
 1.6250	38.2340
 1.6260	38.2690
 1.6270	38.3060
 1.6280	38.3380
 1.6290	38.3710
 1.6300	38.4040
 1.6310	38.4370
 1.6320	38.4710
 1.6330	38.5040
 1.6340	38.5360
 1.6350	38.5670
 1.6360	38.5980
 1.6370	38.6280
 1.6380	38.6560
 1.6390	38.6840
 1.6400	38.7120
 1.6410	38.7350
 1.6420	38.7560
 1.6430	38.7770
 1.6440	38.7950
 1.6450	38.8140
 1.6460	38.8330
 1.6470	38.8500
 1.6480	38.8630
 1.6490	38.8750
 1.6500	38.8850
 1.6510	38.8910
 1.6520	38.8960
 1.6530	38.8940
 1.6540	38.8900
 1.6550	38.8850
 1.6560	38.8750
 1.6570	38.8650
 1.6580	38.8510
 1.6590	38.8340
 1.6600	38.8170
 1.6610	38.7990
 1.6620	38.7810
 1.6630	38.7590
 1.6640	38.7350
 1.6650	38.7100
 1.6660	38.6810
 1.6670	38.6490
 1.6680	38.6120
 1.6690	38.5680
 1.6700	38.5210
 1.6710	38.4730
 1.6720	38.4230
 1.6730	38.3700
 1.6740	38.3120
 1.6750	38.2480
 1.6760	38.1780
 1.6770	38.1060
 1.6780	38.0310
 1.6790	37.9530
 1.6800	37.8730
 1.6810	37.7880
 1.6820	37.6990
 1.6830	37.6070
 1.6840	37.5150
 1.6850	37.4240
 1.6860	37.3310
 1.6870	37.2380
 1.6880	37.1460
 1.6890	37.0490
 1.6900	36.9540
 1.6910	36.8590
 1.6920	36.7660
 1.6930	36.6750
 1.6940	36.5860
 1.6950	36.4990
 1.6960	36.4120
 1.6970	36.3250
 1.6980	36.2430
 1.6990	36.1630
 1.7000	36.0850
 1.7010	36.0130
 1.7020	35.9390
 1.7030	35.8680
 1.7040	35.7970
 1.7050	35.7260
 1.7060	35.6570
 1.7070	35.5890
 1.7080	35.5220
 1.7090	35.4580
 1.7100	35.3940
 1.7110	35.3290
 1.7120	35.2700
 1.7130	35.2120
 1.7140	35.1560
 1.7150	35.1020
 1.7160	35.0500
 1.7170	34.9960
 1.7180	34.9450
 1.7190	34.8970
 1.7200	34.8520
 1.7210	34.8070
 1.7220	34.7620
 1.7230	34.7200
 1.7240	34.6800
 1.7250	34.6430
 1.7260	34.6090
 1.7270	34.5780
 1.7280	34.5500
 1.7290	34.5270
 1.7300	34.5100
 1.7310	34.4940
 1.7320	34.4810
 1.7330	34.4670
 1.7340	34.4550
 1.7350	34.4410
 1.7360	34.4260
 1.7370	34.4070
 1.7380	34.3870
 1.7390	34.3630
 1.7400	34.3370
 1.7410	34.3030
 1.7420	34.2650
 1.7430	34.2230
 1.7440	34.1710
 1.7450	34.1210
 1.7460	34.0690
 1.7470	34.0170
 1.7480	33.9620
 1.7490	33.9100
 1.7500	33.8570
 1.7510	33.8060
 1.7520	33.7550
 1.7530	33.7060
 1.7540	33.6570
 1.7550	33.6110
 1.7560	33.5690
 1.7570	33.5280
 1.7580	33.4910
 1.7590	33.4570
 1.7600	33.4230
 1.7610	33.3900
 1.7620	33.3620
 1.7630	33.3390
 1.7640	33.3170
 1.7650	33.2980
 1.7660	33.2800
 1.7670	33.2610
 1.7680	33.2440
 1.7690	33.2300
 1.7700	33.2160
 1.7710	33.2040
 1.7720	33.1900
 1.7730	33.1750
 1.7740	33.1610
 1.7750	33.1460
 1.7760	33.1340
 1.7770	33.1260
 1.7780	33.1150
 1.7790	33.1060
 1.7800	33.0960
 1.7810	33.0840
 1.7820	33.0750
 1.7830	33.0670
 1.7840	33.0590
 1.7850	33.0510
 1.7860	33.0440
 1.7870	33.0350
 1.7880	33.0310
 1.7890	33.0270
 1.7900	33.0270
 1.7910	33.0260
 1.7920	33.0230
 1.7930	33.0230
 1.7940	33.0250
 1.7950	33.0280
 1.7960	33.0340
 1.7970	33.0390
 1.7980	33.0420
 1.7990	33.0470
 1.8000	33.0540
 1.8010	33.0600
 1.8020	33.0680
 1.8030	33.0760
 1.8040	33.0840
 1.8050	33.0930
 1.8060	33.1040
 1.8070	33.1120
 1.8080	33.1210
 1.8090	33.1280
 1.8100	33.1320
 1.8110	33.1380
 1.8120	33.1440
 1.8130	33.1520
 1.8140	33.1600
 1.8150	33.1690
 1.8160	33.1730
 1.8170	33.1760
 1.8180	33.1800
 1.8190	33.1800
 1.8200	33.1810
 1.8210	33.1850
 1.8220	33.1840
 1.8230	33.1810
 1.8240	33.1770
 1.8250	33.1720
 1.8260	33.1660
 1.8270	33.1490
 1.8280	33.1310
 1.8290	33.1140
 1.8300	33.0960
 1.8310	33.0790
 1.8320	33.0610
 1.8330	33.0440
 1.8340	33.0260
 1.8350	33.0260
 1.8360	32.9840
 1.8370	32.9390
 1.8380	32.8910
 1.8390	32.8360
 1.8400	32.7780
 1.8410	32.7140
 1.8420	32.6450
 1.8430	32.5700
 1.8440	32.4920
 1.8450	32.4030
 1.8460	32.3080
 1.8470	32.2040
 1.8480	32.0880
 1.8490	31.9630
 1.8500	31.8280
 1.8510	31.6820
 1.8520	31.5240
 1.8530	31.3550
 1.8540	31.1780
 1.8550	30.9850
 1.8560	30.7840
 1.8570	30.5740
 1.8580	30.3440
 1.8590	30.1020
 1.8600	29.8490
 1.8610	29.5820
 1.8620	29.2960
 1.8630	29.0020
 1.8640	28.6920
 1.8650	28.3610
 1.8660	28.0160
 1.8670	27.6520
 1.8680	27.2760
 1.8690	26.8870
 1.8700	26.4840
 1.8710	26.0670
 1.8720	25.6430
 1.8730	25.2080
 1.8740	24.7650
 1.8750	24.3200
 1.8760	23.8680
 1.8770	23.4120
 1.8780	22.9560
 1.8790	22.4970
 1.8800	22.0450
 1.8810	21.5930
 1.8820	21.1470
 1.8830	20.7080
 1.8840	20.2730
 1.8850	19.8420
 1.8860	19.4220
 1.8870	19.0100
 1.8880	18.6100
 1.8890	18.2280
 1.8900	17.8620
 1.8910	17.5140
 1.8920	17.1820
 1.8930	16.8710
 1.8940	16.5760
 1.8950	16.2980
 1.8960	16.0380
 1.8970	15.7960
 1.8980	15.5700
 1.8990	15.3610
 1.9000	15.1680
 1.9010	14.9920
 1.9020	14.8280
 1.9030	14.6800
 1.9040	14.5460
 1.9050	14.4220
 1.9060	14.3100
 1.9070	14.2120
 1.9080	14.1220
 1.9090	14.0410
 1.9100	13.9680
 1.9110	13.9010
 1.9120	13.8410
 1.9130	13.7880
 1.9140	13.7420
 1.9150	13.6980
 1.9160	13.6610
 1.9170	13.6270
 1.9180	13.5950
 1.9190	13.5710
 1.9200	13.5510
 1.9210	13.5320
 1.9220	13.5180
 1.9230	13.5100
 1.9240	13.5030
 1.9250	13.5000
 1.9260	13.5020
 1.9270	13.5020
 1.9280	13.5030
 1.9290	13.5080
 1.9300	13.5140
 1.9310	13.5220
 1.9320	13.5370
 1.9330	13.5520
 1.9340	13.5690
 1.9350	13.5870
 1.9360	13.6060
 1.9370	13.6270
 1.9380	13.6490
 1.9390	13.6740
 1.9400	13.7000
 1.9410	13.7310
 1.9420	13.7600
 1.9430	13.7920
 1.9440	13.8240
 1.9450	13.8560
 1.9460	13.8890
 1.9470	13.9240
 1.9480	13.9590
 1.9490	13.9970
 1.9500	14.0360
 1.9510	14.0750
 1.9520	14.1170
 1.9530	14.1590
 1.9540	14.2000
 1.9550	14.2430
 1.9560	14.2900
 1.9570	14.3330
 1.9580	14.3760
 1.9590	14.4210
 1.9600	14.4670
 1.9610	14.5140
 1.9620	14.5650
 1.9630	14.6140
 1.9640	14.6640
 1.9650	14.7110
 1.9660	14.7590
 1.9670	14.8110
 1.9680	14.8640
 1.9690	14.9190
 1.9700	14.9730
 1.9710	15.0280
 1.9720	15.0830
 1.9730	15.1370
 1.9740	15.1920
 1.9750	15.2500
 1.9760	15.3080
 1.9770	15.3650
 1.9780	15.4250
 1.9790	15.4860
 1.9800	15.5470
 1.9810	15.6090
 1.9820	15.6720
 1.9830	15.7350
 1.9840	15.7970
 1.9850	15.8600
 1.9860	15.9220
 1.9870	15.9840
 1.9880	16.0440
 1.9890	16.1050
 1.9900	16.1680
 1.9910	16.2320
 1.9920	16.2970
 1.9930	16.3650
 1.9940	16.4310
 1.9950	16.5000
 1.9960	16.5650
 1.9970	16.6260
 1.9980	16.6890
 1.9990	16.7530
 2.0000	16.8130
 2.0010	16.8780
 2.0020	16.9440
 2.0030	17.0070
 2.0040	17.0720
 2.0050	17.1360
 2.0060	17.1990
 2.0070	17.2620
 2.0080	17.3270
 2.0090	17.3910
 2.0100	17.4550
 2.0110	17.5180
 2.0120	17.5800
 2.0130	17.6390
 2.0140	17.7000
 2.0150	17.7590
 2.0160	17.8160
 2.0170	17.8760
 2.0180	17.9350
 2.0190	17.9940
 2.0200	18.0500
 2.0210	18.1060
 2.0220	18.1600
 2.0230	18.2110
 2.0240	18.2620
 2.0250	18.3130
 2.0260	18.3650
 2.0270	18.4150
 2.0280	18.4660
 2.0290	18.5160
 2.0300	18.5650
 2.0310	18.6150
 2.0320	18.6640
 2.0330	18.7110
 2.0340	18.7570
 2.0350	18.8020
 2.0360	18.8440
 2.0370	18.8860
 2.0380	18.9280
 2.0390	18.9700
 2.0400	19.0080
 2.0410	19.0480
 2.0420	19.0890
 2.0430	19.1320
 2.0440	19.1700
 2.0450	19.2070
 2.0460	19.2440
 2.0470	19.2770
 2.0480	19.3130
 2.0490	19.3500
 2.0500	19.3870
 2.0510	19.4230
 2.0520	19.4580
 2.0530	19.4920
 2.0540	19.5290
 2.0550	19.5650
 2.0560	19.6040
 2.0570	19.6430
 2.0580	19.6840
 2.0590	19.7230
 2.0600	19.7620
 2.0610	19.8020
 2.0620	19.8450
 2.0630	19.8870
 2.0640	19.9290
 2.0650	19.9710
 2.0660	20.0110
 2.0670	20.0520
 2.0680	20.0960
 2.0690	20.1380
 2.0700	20.1770
 2.0710	20.2190
 2.0720	20.2630
 2.0730	20.3060
 2.0740	20.3490
 2.0750	20.3940
 2.0760	20.4370
 2.0770	20.4770
 2.0780	20.5180
 2.0790	20.5570
 2.0800	20.5980
 2.0810	20.6360
 2.0820	20.6790
 2.0830	20.7280
 2.0840	20.7730
 2.0850	20.8180
 2.0860	20.8610
 2.0870	20.9000
 2.0880	20.9410
 2.0890	20.9820
 2.0900	21.0270
 2.0910	21.0680
 2.0920	21.1080
 2.0930	21.1470
 2.0940	21.1830
 2.0950	21.2220
 2.0960	21.2630
 2.0970	21.3030
 2.0980	21.3440
 2.0990	21.3850
 2.1000	21.4290
 2.1010	21.4690
 2.1020	21.5080
 2.1030	21.5460
 2.1040	21.5790
 2.1050	21.6130
 2.1060	21.6510
 2.1070	21.6910
 2.1080	21.7290
 2.1090	21.7680
 2.1100	21.8080
 2.1110	21.8470
 2.1120	21.8860
 2.1130	21.9260
 2.1140	21.9640
 2.1150	21.9980
 2.1160	22.0340
 2.1170	22.0740
 2.1180	22.1100
 2.1190	22.1440
 2.1200	22.1790
 2.1210	22.2130
 2.1220	22.2450
 2.1230	22.2800
 2.1240	22.3180
 2.1250	22.3510
 2.1260	22.3860
 2.1270	22.4170
 2.1280	22.4410
 2.1290	22.4690
 2.1300	22.4970
 2.1310	22.5240
 2.1320	22.5500
 2.1330	22.5760
 2.1340	22.6010
 2.1350	22.6270
 2.1360	22.6570
 2.1370	22.6830
 2.1380	22.7060
 2.1390	22.7290
 2.1400	22.7490
 2.1410	22.7700
 2.1420	22.7930
 2.1430	22.8170
 2.1440	22.8410
 2.1450	22.8690
 2.1460	22.8920
 2.1470	22.9110
 2.1480	22.9320
 2.1490	22.9520
 2.1500	22.9710
 2.1510	22.9900
 2.1520	23.0110
 2.1530	23.0310
 2.1540	23.0500
 2.1550	23.0730
 2.1560	23.0920
 2.1570	23.1070
 2.1580	23.1230
 2.1590	23.1380
 2.1600	23.1500
 2.1610	23.1620
 2.1620	23.1760
 2.1630	23.1910
 2.1640	23.2080
 2.1650	23.2220
 2.1660	23.2360
 2.1670	23.2510
 2.1680	23.2620
 2.1690	23.2760
 2.1700	23.2930
 2.1710	23.3080
 2.1720	23.3230
 2.1730	23.3390
 2.1740	23.3550
 2.1750	23.3710
 2.1760	23.3870
 2.1770	23.4040
 2.1780	23.4230
 2.1790	23.4420
 2.1800	23.4610
 2.1810	23.4800
 2.1820	23.4990
 2.1830	23.5140
 2.1840	23.5320
 2.1850	23.5500
 2.1860	23.5680
 2.1870	23.5880
 2.1880	23.6040
 2.1890	23.6160
 2.1900	23.6310
 2.1910	23.6430
 2.1920	23.6570
 2.1930	23.6730
 2.1940	23.6900
 2.1950	23.7110
 2.1960	23.7280
 2.1970	23.7460
 2.1980	23.7600
 2.1990	23.7700
 2.2000	23.7780
 2.2010	23.7800
 2.2020	23.7870
 2.2030	23.7920
 2.2040	23.8010
 2.2050	23.8160
 2.2060	23.8320
 2.2070	23.8450
 2.2080	23.8610
 2.2090	23.8680
 2.2100	23.8730
 2.2110	23.8750
 2.2120	23.8700
 2.2130	23.8670
 2.2140	23.8640
 2.2150	23.8610
 2.2160	23.8590
 2.2170	23.8530
 2.2180	23.8460
 2.2190	23.8350
 2.2200	23.8170
 2.2210	23.8010
 2.2220	23.7830
 2.2230	23.7650
 2.2240	23.7500
 2.2250	23.7300
 2.2260	23.7080
 2.2270	23.6830
 2.2280	23.6550
 2.2290	23.6240
 2.2300	23.5930
 2.2310	23.5580
 2.2320	23.5150
 2.2330	23.4750
 2.2340	23.4300
 2.2350	23.3810
 2.2360	23.3320
 2.2370	23.2820
 2.2380	23.2270
 2.2390	23.1700
 2.2400	23.1090
 2.2410	23.0440
 2.2420	22.9780
 2.2430	22.9100
 2.2440	22.8350
 2.2450	22.7530
 2.2460	22.6730
 2.2470	22.5860
 2.2480	22.5010
 2.2490	22.4200
 2.2500	22.3330
 2.2510	22.2440
 2.2520	22.1520
 2.2530	22.0560
 2.2540	21.9610
 2.2550	21.8620
 2.2560	21.7690
 2.2570	21.6810
 2.2580	21.5890
 2.2590	21.4990
 2.2600	21.4080
 2.2610	21.3150
 2.2620	21.2190
 2.2630	21.1310
 2.2640	21.0410
 2.2650	20.9570
 2.2660	20.8780
 2.2670	20.7940
 2.2680	20.7090
 2.2690	20.6320
 2.2700	20.5560
 2.2710	20.4810
 2.2720	20.4110
 2.2730	20.3370
 2.2740	20.2560
 2.2750	20.1860
 2.2760	20.1200
 2.2770	20.0570
 2.2780	20.0050
 2.2790	19.9410
 2.2800	19.8730
 2.2810	19.8040
 2.2820	19.7280
 2.2830	19.6540
 2.2840	19.5810
 2.2850	19.5070
 2.2860	19.4310
 2.2870	19.3520
 2.2880	19.2700
 2.2890	19.1900
 2.2900	19.1120
 2.2910	19.0290
 2.2920	18.9450
 2.2930	18.8610
 2.2940	18.7700
 2.2950	18.6850
 2.2960	18.6010
 2.2970	18.5220
 2.2980	18.4480
 2.2990	18.3760
 2.3000	18.3100
 2.3010	18.2500
 2.3020	18.1950
 2.3030	18.1520
 2.3040	18.1170
 2.3050	18.0900
 2.3060	18.0750
 2.3070	18.0670
 2.3080	18.0650
 2.3090	18.0710
 2.3100	18.0800
 2.3110	18.0900
 2.3120	18.1120
 2.3130	18.1470
 2.3140	18.1770
 2.3150	18.2150
 2.3160	18.2450
 2.3170	18.2720
 2.3180	18.2960
 2.3190	18.3170
 2.3200	18.3370
 2.3210	18.3570
 2.3220	18.3660
 2.3230	18.3730
 2.3240	18.3710
 2.3250	18.3520
 2.3260	18.3380
 2.3270	18.3210
 2.3280	18.3000
 2.3290	18.2780
 2.3300	18.2510
 2.3310	18.2190
 2.3320	18.1820
 2.3330	18.1380
 2.3340	18.0940
 2.3350	18.0400
 2.3360	17.9940
 2.3370	17.9560
 2.3380	17.9060
 2.3390	17.8530
 2.3400	17.8010
 2.3410	17.7370
 2.3420	17.6860
 2.3430	17.6410
 2.3440	17.6010
 2.3450	17.5680
 2.3460	17.5370
 2.3470	17.5150
 2.3480	17.4900
 2.3490	17.4620
 2.3500	17.4420
 2.3510	17.4260
 2.3520	17.4120
 2.3530	17.4070
 2.3540	17.3980
 2.3550	17.3830
 2.3560	17.3700
 2.3570	17.3540
 2.3580	17.3410
 2.3590	17.3340
 2.3600	17.3200
 2.3610	17.3010
 2.3620	17.2880
 2.3630	17.2710
 2.3640	17.2520
 2.3650	17.2380
 2.3660	17.2230
 2.3670	17.2010
 2.3680	17.1800
 2.3690	17.1590
 2.3700	17.1380
 2.3710	17.1220
 2.3720	17.1070
 2.3730	17.0860
 2.3740	17.0610
 2.3750	17.0350
 2.3760	17.0040
 2.3770	16.9770
 2.3780	16.9530
 2.3790	16.9260
 2.3800	16.9010
 2.3810	16.8810
 2.3820	16.8570
 2.3830	16.8200
 2.3840	16.7840
 2.3850	16.7500
 2.3860	16.7190
 2.3870	16.6940
 2.3880	16.6710
 2.3890	16.6320
 2.3900	16.5860
 2.3910	16.5500
 2.3920	16.5140
 2.3930	16.4920
 2.3940	16.4700
 2.3950	16.4330
 2.3960	16.4020
 2.3970	16.3650
 2.3980	16.3300
 2.3990	16.3080
 2.4000	16.2820
 2.4010	16.2500
 2.4020	16.2200
 2.4030	16.1840
 2.4040	16.1450
 2.4050	16.1120
 2.4060	16.0780
 2.4070	16.0500
 2.4080	16.0320
 2.4090	16.0100
 2.4100	15.9790
 2.4110	15.9470
 2.4120	15.9050
 2.4130	15.8570
 2.4140	15.8150
 2.4150	15.7790
 2.4160	15.7390
 2.4170	15.7110
 2.4180	15.6890
 2.4190	15.6480
 2.4200	15.6200
 2.4210	15.6090
 2.4220	15.5860
 2.4230	15.5640
 2.4240	15.5410
 2.4250	15.4990
 2.4260	15.4470
 2.4270	15.4140
 2.4280	15.3670
 2.4290	15.3050
 2.4300	15.2650
 2.4310	15.2170
 2.4320	15.1680
 2.4330	15.1340
 2.4340	15.1050
 2.4350	15.0740
 2.4360	15.0490
 2.4370	15.0210
 2.4380	14.9780
 2.4390	14.9430
 2.4400	14.9050
 2.4410	14.8870
 2.4420	14.8840
 2.4430	14.8640
 2.4440	14.8480
 2.4450	14.7950
 2.4460	14.7080
 2.4470	14.6330
 2.4480	14.5720
 2.4490	14.5420
 2.4500	14.5210
 2.4510	14.4950
 2.4520	14.4620
 2.4530	14.4090
 2.4540	14.3680
 2.4550	14.3440
 2.4560	14.3080
 2.4570	14.2790
 2.4580	14.2490
 2.4590	14.2040
 2.4600	14.1640
 2.4610	14.1410
 2.4620	14.1070
 2.4630	14.0690
 2.4640	14.0480
 2.4650	13.9940
 2.4660	13.9560
 2.4670	13.9430
 2.4680	13.9000
 2.4690	13.8740
 2.4700	13.8500
 2.4710	13.8290
 2.4720	13.7970
 2.4730	13.7670
 2.4740	13.7290
 2.4750	13.6640
 2.4760	13.6330
 2.4770	13.6330
 2.4780	13.6290
 2.4790	13.6290
 2.4800	13.6220
 2.4810	13.6200
 2.4820	13.5630
 2.4830	13.5470
 2.4840	13.5460
 2.4850	13.5200
 2.4860	13.5490
 2.4870	13.5560
 2.4880	13.5390
 2.4890	13.5440
 2.4900	13.5240
 2.4910	13.5040
 2.4920	13.4540
 2.4930	13.4040
 2.4940	13.4420
 2.4950	13.5080
 2.4960	13.5320
 2.4970	13.5300
 2.4980	13.4740
 2.4990	13.3920
 2.5000	13.3960
