Name: Beaucarnea recurvata
Type: vegetation
Class: Tree
Genus: Beaucarnea
Species: recurvata
Sample No.: JPL068
Owner: JPL
Wavelength Range: VSWIR
Origin: 34.12603; - 118.11015; WGS84
Collection Date: 2/2/2016
Description: Samples were collected at the Huntington Garden in San Marino California as part of a JPL Subcontract studying HyTES imagery. Samples were taken to JPL and processed within 48 hours of collection. The same leaves were processed in the Nicolet and then measured using the ASD.
Measurement: Bidirectional reflectance
First Column: X
Second Column: Y
X Units: Wavelength (micrometer)
Y Units: Reflectance (percentage)
First X Value: 0.35
Last X Value: 2.5
Number of X Values: 2151
Additional Information: 

 0.3500	 7.3590
 0.3510	 7.2020
 0.3520	 6.6330
 0.3530	 5.3210
 0.3540	 3.6060
 0.3550	 3.6480
 0.3560	 4.3740
 0.3570	 5.4650
 0.3580	 6.8350
 0.3590	 6.1500
 0.3600	 5.9020
 0.3610	 6.7300
 0.3620	 6.0580
 0.3630	 5.5120
 0.3640	 5.5540
 0.3650	 6.1020
 0.3660	 6.4330
 0.3670	 6.2360
 0.3680	 5.6080
 0.3690	 4.9790
 0.3700	 4.9500
 0.3710	 5.3420
 0.3720	 5.8310
 0.3730	 6.1400
 0.3740	 6.1470
 0.3750	 6.0090
 0.3760	 5.9140
 0.3770	 5.6150
 0.3780	 5.3550
 0.3790	 5.4230
 0.3800	 6.0230
 0.3810	 6.0280
 0.3820	 5.7190
 0.3830	 5.5980
 0.3840	 6.2050
 0.3850	 5.8340
 0.3860	 5.3440
 0.3870	 6.0540
 0.3880	 6.1730
 0.3890	 6.0790
 0.3900	 6.0220
 0.3910	 5.9600
 0.3920	 5.4570
 0.3930	 5.1620
 0.3940	 5.5110
 0.3950	 5.9240
 0.3960	 5.8300
 0.3970	 5.5730
 0.3980	 5.8010
 0.3990	 5.7100
 0.4000	 5.7430
 0.4010	 5.9860
 0.4020	 5.9250
 0.4030	 5.9660
 0.4040	 6.0260
 0.4050	 5.9930
 0.4060	 6.0970
 0.4070	 6.0480
 0.4080	 6.0170
 0.4090	 6.3920
 0.4100	 6.5650
 0.4110	 6.5660
 0.4120	 6.4700
 0.4130	 6.2630
 0.4140	 6.1270
 0.4150	 6.1190
 0.4160	 6.2390
 0.4170	 6.5260
 0.4180	 6.6450
 0.4190	 6.5610
 0.4200	 6.5110
 0.4210	 6.3330
 0.4220	 6.2870
 0.4230	 6.4990
 0.4240	 6.5970
 0.4250	 6.7010
 0.4260	 6.7280
 0.4270	 6.5710
 0.4280	 6.6560
 0.4290	 6.7300
 0.4300	 6.6670
 0.4310	 6.5990
 0.4320	 6.5990
 0.4330	 6.5820
 0.4340	 6.4850
 0.4350	 6.5060
 0.4360	 6.5950
 0.4370	 6.6690
 0.4380	 6.6330
 0.4390	 6.6310
 0.4400	 6.6380
 0.4410	 6.6300
 0.4420	 6.6380
 0.4430	 6.6770
 0.4440	 6.7490
 0.4450	 6.8280
 0.4460	 6.7910
 0.4470	 6.7900
 0.4480	 6.8540
 0.4490	 6.8490
 0.4500	 6.8070
 0.4510	 6.7930
 0.4520	 6.8460
 0.4530	 6.9100
 0.4540	 6.9660
 0.4550	 7.0060
 0.4560	 7.0250
 0.4570	 6.9950
 0.4580	 6.9950
 0.4590	 7.0340
 0.4600	 6.9750
 0.4610	 6.9920
 0.4620	 7.0700
 0.4630	 7.1290
 0.4640	 7.1060
 0.4650	 7.0840
 0.4660	 7.0940
 0.4670	 7.0980
 0.4680	 7.0910
 0.4690	 7.0940
 0.4700	 7.1150
 0.4710	 7.1060
 0.4720	 7.1100
 0.4730	 7.1150
 0.4740	 7.0920
 0.4750	 7.1060
 0.4760	 7.1350
 0.4770	 7.1610
 0.4780	 7.1800
 0.4790	 7.2050
 0.4800	 7.2120
 0.4810	 7.1860
 0.4820	 7.1940
 0.4830	 7.1870
 0.4840	 7.1690
 0.4850	 7.1880
 0.4860	 7.1980
 0.4870	 7.2350
 0.4880	 7.3020
 0.4890	 7.2810
 0.4900	 7.3110
 0.4910	 7.3730
 0.4920	 7.3790
 0.4930	 7.3970
 0.4940	 7.4510
 0.4950	 7.5400
 0.4960	 7.6360
 0.4970	 7.6690
 0.4980	 7.6970
 0.4990	 7.7970
 0.5000	 7.9430
 0.5010	 8.0370
 0.5020	 8.0910
 0.5030	 8.2110
 0.5040	 8.3690
 0.5050	 8.5150
 0.5060	 8.6350
 0.5070	 8.8130
 0.5080	 9.0180
 0.5090	 9.2290
 0.5100	 9.4360
 0.5110	 9.6450
 0.5120	 9.8770
 0.5130	10.1320
 0.5140	10.3860
 0.5150	10.6450
 0.5160	10.9350
 0.5170	11.2630
 0.5180	11.5590
 0.5190	11.8470
 0.5200	12.1410
 0.5210	12.4530
 0.5220	12.8320
 0.5230	13.1630
 0.5240	13.3990
 0.5250	13.6800
 0.5260	13.9920
 0.5270	14.2990
 0.5280	14.5570
 0.5290	14.7490
 0.5300	14.9650
 0.5310	15.2200
 0.5320	15.4230
 0.5330	15.5850
 0.5340	15.7260
 0.5350	15.8650
 0.5360	15.9820
 0.5370	16.0870
 0.5380	16.1840
 0.5390	16.2740
 0.5400	16.3640
 0.5410	16.4710
 0.5420	16.5860
 0.5430	16.6450
 0.5440	16.6870
 0.5450	16.7340
 0.5460	16.7950
 0.5470	16.8200
 0.5480	16.8190
 0.5490	16.8200
 0.5500	16.8690
 0.5510	16.9250
 0.5520	16.9440
 0.5530	16.9050
 0.5540	16.8550
 0.5550	16.8200
 0.5560	16.7860
 0.5570	16.7130
 0.5580	16.6320
 0.5590	16.5390
 0.5600	16.4380
 0.5610	16.3730
 0.5620	16.2520
 0.5630	16.0890
 0.5640	15.9370
 0.5650	15.7870
 0.5660	15.6330
 0.5670	15.4640
 0.5680	15.2760
 0.5690	15.0970
 0.5700	14.9290
 0.5710	14.7620
 0.5720	14.5770
 0.5730	14.4010
 0.5740	14.2330
 0.5750	14.0580
 0.5760	13.9250
 0.5770	13.8170
 0.5780	13.7150
 0.5790	13.6180
 0.5800	13.5190
 0.5810	13.4140
 0.5820	13.3010
 0.5830	13.1760
 0.5840	13.0740
 0.5850	12.9950
 0.5860	12.9030
 0.5870	12.8250
 0.5880	12.7580
 0.5890	12.6920
 0.5900	12.6350
 0.5910	12.5780
 0.5920	12.5310
 0.5930	12.5030
 0.5940	12.4520
 0.5950	12.4030
 0.5960	12.3690
 0.5970	12.3380
 0.5980	12.3130
 0.5990	12.2780
 0.6000	12.2180
 0.6010	12.1630
 0.6020	12.1290
 0.6030	12.0980
 0.6040	12.0230
 0.6050	11.9430
 0.6060	11.8670
 0.6070	11.7980
 0.6080	11.7300
 0.6090	11.6350
 0.6100	11.5290
 0.6110	11.4460
 0.6120	11.3430
 0.6130	11.2320
 0.6140	11.1270
 0.6150	11.0310
 0.6160	10.9320
 0.6170	10.8520
 0.6180	10.8010
 0.6190	10.7150
 0.6200	10.6500
 0.6210	10.6060
 0.6220	10.5490
 0.6230	10.5090
 0.6240	10.4770
 0.6250	10.4430
 0.6260	10.4140
 0.6270	10.3980
 0.6280	10.3880
 0.6290	10.3780
 0.6300	10.3870
 0.6310	10.3790
 0.6320	10.3480
 0.6330	10.3230
 0.6340	10.2900
 0.6350	10.2490
 0.6360	10.1990
 0.6370	10.1290
 0.6380	10.0520
 0.6390	 9.9640
 0.6400	 9.8530
 0.6410	 9.7460
 0.6420	 9.6490
 0.6430	 9.5490
 0.6440	 9.4150
 0.6450	 9.2990
 0.6460	 9.1970
 0.6470	 9.0930
 0.6480	 9.0000
 0.6490	 8.9170
 0.6500	 8.8470
 0.6510	 8.7930
 0.6520	 8.7250
 0.6530	 8.6770
 0.6540	 8.6590
 0.6550	 8.6120
 0.6560	 8.5490
 0.6570	 8.4800
 0.6580	 8.4120
 0.6590	 8.3370
 0.6600	 8.2470
 0.6610	 8.1500
 0.6620	 8.0680
 0.6630	 7.9760
 0.6640	 7.8860
 0.6650	 7.8130
 0.6660	 7.7620
 0.6670	 7.7280
 0.6680	 7.6980
 0.6690	 7.6620
 0.6700	 7.6400
 0.6710	 7.6300
 0.6720	 7.6300
 0.6730	 7.6500
 0.6740	 7.6700
 0.6750	 7.6940
 0.6760	 7.7260
 0.6770	 7.7500
 0.6780	 7.7910
 0.6790	 7.8530
 0.6800	 7.9310
 0.6810	 8.0280
 0.6820	 8.1210
 0.6830	 8.2170
 0.6840	 8.3690
 0.6850	 8.5230
 0.6860	 8.7040
 0.6870	 8.9470
 0.6880	 9.2200
 0.6890	 9.5470
 0.6900	 9.9390
 0.6910	10.3920
 0.6920	10.9170
 0.6930	11.5180
 0.6940	12.1960
 0.6950	12.9400
 0.6960	13.7430
 0.6970	14.5880
 0.6980	15.4610
 0.6990	16.3780
 0.7000	17.3300
 0.7010	18.3020
 0.7020	19.2700
 0.7030	20.2320
 0.7040	21.1920
 0.7050	22.1510
 0.7060	23.1030
 0.7070	24.0370
 0.7080	24.9670
 0.7090	25.9080
 0.7100	26.8240
 0.7110	27.7180
 0.7120	28.6040
 0.7130	29.5050
 0.7140	30.4160
 0.7150	31.3220
 0.7160	32.2090
 0.7170	33.0800
 0.7180	33.9630
 0.7190	34.8360
 0.7200	35.6700
 0.7210	36.5070
 0.7220	37.3210
 0.7230	38.1110
 0.7240	38.8990
 0.7250	39.6540
 0.7260	40.3770
 0.7270	41.0730
 0.7280	41.7410
 0.7290	42.3900
 0.7300	43.0170
 0.7310	43.6060
 0.7320	44.1550
 0.7330	44.6730
 0.7340	45.1700
 0.7350	45.6620
 0.7360	46.0930
 0.7370	46.4920
 0.7380	46.8870
 0.7390	47.2540
 0.7400	47.5850
 0.7410	47.8800
 0.7420	48.1460
 0.7430	48.3970
 0.7440	48.6200
 0.7450	48.8320
 0.7460	49.0760
 0.7470	49.2520
 0.7480	49.3770
 0.7490	49.4890
 0.7500	49.6270
 0.7510	49.7280
 0.7520	49.8160
 0.7530	49.9250
 0.7540	50.0050
 0.7550	50.0660
 0.7560	50.1110
 0.7570	50.1370
 0.7580	50.2180
 0.7590	50.2770
 0.7600	50.2830
 0.7610	50.3130
 0.7620	50.3410
 0.7630	50.3690
 0.7640	50.3940
 0.7650	50.3890
 0.7660	50.3920
 0.7670	50.4000
 0.7680	50.3950
 0.7690	50.4120
 0.7700	50.4200
 0.7710	50.4130
 0.7720	50.4310
 0.7730	50.4330
 0.7740	50.4200
 0.7750	50.4060
 0.7760	50.4000
 0.7770	50.4070
 0.7780	50.4110
 0.7790	50.3970
 0.7800	50.4060
 0.7810	50.4210
 0.7820	50.4240
 0.7830	50.4040
 0.7840	50.4020
 0.7850	50.3940
 0.7860	50.3720
 0.7870	50.3910
 0.7880	50.4010
 0.7890	50.3940
 0.7900	50.3770
 0.7910	50.3770
 0.7920	50.3780
 0.7930	50.3750
 0.7940	50.3700
 0.7950	50.3800
 0.7960	50.3800
 0.7970	50.3650
 0.7980	50.3580
 0.7990	50.3420
 0.8000	50.3360
 0.8010	50.3520
 0.8020	50.3370
 0.8030	50.3100
 0.8040	50.2940
 0.8050	50.3060
 0.8060	50.3100
 0.8070	50.2960
 0.8080	50.2740
 0.8090	50.2580
 0.8100	50.2470
 0.8110	50.2460
 0.8120	50.2500
 0.8130	50.2400
 0.8140	50.2070
 0.8150	50.1970
 0.8160	50.2240
 0.8170	50.1800
 0.8180	50.1580
 0.8190	50.1630
 0.8200	50.1530
 0.8210	50.1100
 0.8220	50.0930
 0.8230	50.1110
 0.8240	50.1230
 0.8250	50.1020
 0.8260	50.0680
 0.8270	50.0390
 0.8280	50.0120
 0.8290	50.0150
 0.8300	50.0300
 0.8310	50.0290
 0.8320	50.0050
 0.8330	49.9900
 0.8340	49.9880
 0.8350	49.9850
 0.8360	49.9810
 0.8370	49.9800
 0.8380	49.9740
 0.8390	49.9440
 0.8400	49.9430
 0.8410	49.9540
 0.8420	49.9640
 0.8430	49.9720
 0.8440	49.9810
 0.8450	49.9940
 0.8460	50.0020
 0.8470	49.9680
 0.8480	49.9580
 0.8490	49.9650
 0.8500	49.9630
 0.8510	49.9640
 0.8520	49.9930
 0.8530	50.0230
 0.8540	50.0100
 0.8550	50.0030
 0.8560	50.0050
 0.8570	50.0140
 0.8580	50.0260
 0.8590	50.0420
 0.8600	50.0620
 0.8610	50.0790
 0.8620	50.0750
 0.8630	50.0690
 0.8640	50.0680
 0.8650	50.0730
 0.8660	50.0780
 0.8670	50.0990
 0.8680	50.1240
 0.8690	50.1320
 0.8700	50.1130
 0.8710	50.1120
 0.8720	50.1250
 0.8730	50.1270
 0.8740	50.1410
 0.8750	50.1560
 0.8760	50.1700
 0.8770	50.1890
 0.8780	50.1960
 0.8790	50.1780
 0.8800	50.1540
 0.8810	50.1780
 0.8820	50.1970
 0.8830	50.1920
 0.8840	50.1740
 0.8850	50.1980
 0.8860	50.2150
 0.8870	50.2220
 0.8880	50.2250
 0.8890	50.2010
 0.8900	50.1960
 0.8910	50.2190
 0.8920	50.2460
 0.8930	50.2160
 0.8940	50.2050
 0.8950	50.2250
 0.8960	50.2380
 0.8970	50.1970
 0.8980	50.1810
 0.8990	50.2170
 0.9000	50.2660
 0.9010	50.2240
 0.9020	50.1930
 0.9030	50.2150
 0.9040	50.2140
 0.9050	50.1820
 0.9060	50.1590
 0.9070	50.1640
 0.9080	50.1570
 0.9090	50.1720
 0.9100	50.1940
 0.9110	50.2000
 0.9120	50.2000
 0.9130	50.1790
 0.9140	50.1440
 0.9150	50.1110
 0.9160	50.0690
 0.9170	50.0770
 0.9180	50.1100
 0.9190	50.1080
 0.9200	50.0370
 0.9210	49.9850
 0.9220	49.9690
 0.9230	49.9580
 0.9240	49.9460
 0.9250	49.9160
 0.9260	49.8740
 0.9270	49.8350
 0.9280	49.7460
 0.9290	49.7210
 0.9300	49.7610
 0.9310	49.7530
 0.9320	49.6770
 0.9330	49.5880
 0.9340	49.5280
 0.9350	49.4970
 0.9360	49.4340
 0.9370	49.3720
 0.9380	49.3250
 0.9390	49.2520
 0.9400	49.2060
 0.9410	49.1810
 0.9420	49.1460
 0.9430	49.0600
 0.9440	48.9550
 0.9450	48.8740
 0.9460	48.8330
 0.9470	48.7840
 0.9480	48.6360
 0.9490	48.4950
 0.9500	48.4400
 0.9510	48.3310
 0.9520	48.2380
 0.9530	48.1420
 0.9540	48.0150
 0.9550	47.8960
 0.9560	47.7250
 0.9570	47.5900
 0.9580	47.5550
 0.9590	47.4450
 0.9600	47.3390
 0.9610	47.2640
 0.9620	47.2170
 0.9630	47.1640
 0.9640	47.1090
 0.9650	47.0300
 0.9660	46.9290
 0.9670	46.9210
 0.9680	46.9250
 0.9690	46.9340
 0.9700	46.9550
 0.9710	46.8850
 0.9720	46.8700
 0.9730	46.8750
 0.9740	46.8120
 0.9750	46.7900
 0.9760	46.7830
 0.9770	46.7700
 0.9780	46.7350
 0.9790	46.6660
 0.9800	46.6820
 0.9810	46.7430
 0.9820	46.7420
 0.9830	46.7060
 0.9840	46.6950
 0.9850	46.7330
 0.9860	46.8040
 0.9870	46.7810
 0.9880	46.8270
 0.9890	46.8860
 0.9900	46.8430
 0.9910	46.8870
 0.9920	46.9110
 0.9930	46.9220
 0.9940	46.9720
 0.9950	46.9950
 0.9960	47.0200
 0.9970	47.0610
 0.9980	47.1090
 0.9990	47.0790
 1.0000	47.1300
 1.0010	46.9860
 1.0020	47.0310
 1.0030	47.0970
 1.0040	47.1580
 1.0050	47.1680
 1.0060	47.1990
 1.0070	47.2290
 1.0080	47.2730
 1.0090	47.3520
 1.0100	47.4100
 1.0110	47.4530
 1.0120	47.5030
 1.0130	47.5610
 1.0140	47.6060
 1.0150	47.6430
 1.0160	47.6790
 1.0170	47.7280
 1.0180	47.7460
 1.0190	47.7950
 1.0200	47.8600
 1.0210	47.8780
 1.0220	47.9340
 1.0230	47.9870
 1.0240	48.0400
 1.0250	48.0790
 1.0260	48.1280
 1.0270	48.1650
 1.0280	48.1740
 1.0290	48.2000
 1.0300	48.2390
 1.0310	48.2770
 1.0320	48.3070
 1.0330	48.3600
 1.0340	48.4070
 1.0350	48.4330
 1.0360	48.4700
 1.0370	48.4910
 1.0380	48.5190
 1.0390	48.5490
 1.0400	48.5890
 1.0410	48.6330
 1.0420	48.6680
 1.0430	48.6990
 1.0440	48.7370
 1.0450	48.7750
 1.0460	48.8110
 1.0470	48.8580
 1.0480	48.8970
 1.0490	48.9330
 1.0500	48.9540
 1.0510	48.9580
 1.0520	48.9770
 1.0530	48.9900
 1.0540	48.9880
 1.0550	48.9980
 1.0560	49.0170
 1.0570	49.0350
 1.0580	49.0560
 1.0590	49.0720
 1.0600	49.0880
 1.0610	49.1090
 1.0620	49.1300
 1.0630	49.1490
 1.0640	49.1790
 1.0650	49.1950
 1.0660	49.1870
 1.0670	49.1980
 1.0680	49.2150
 1.0690	49.2420
 1.0700	49.2460
 1.0710	49.2560
 1.0720	49.2540
 1.0730	49.2280
 1.0740	49.2140
 1.0750	49.1980
 1.0760	49.1960
 1.0770	49.1870
 1.0780	49.2040
 1.0790	49.2740
 1.0800	49.2920
 1.0810	49.3070
 1.0820	49.3050
 1.0830	49.2560
 1.0840	49.2270
 1.0850	49.1950
 1.0860	49.1740
 1.0870	49.1620
 1.0880	49.1640
 1.0890	49.1590
 1.0900	49.1600
 1.0910	49.1590
 1.0920	49.1580
 1.0930	49.1470
 1.0940	49.1450
 1.0950	49.1220
 1.0960	49.0700
 1.0970	49.0380
 1.0980	48.9910
 1.0990	48.9690
 1.1000	48.9770
 1.1010	48.9730
 1.1020	48.9860
 1.1030	48.9870
 1.1040	48.9510
 1.1050	48.9220
 1.1060	48.8930
 1.1070	48.8530
 1.1080	48.8220
 1.1090	48.7960
 1.1100	48.7760
 1.1110	48.7650
 1.1120	48.7410
 1.1130	48.7260
 1.1140	48.6930
 1.1150	48.6300
 1.1160	48.5900
 1.1170	48.5730
 1.1180	48.5310
 1.1190	48.4790
 1.1200	48.4380
 1.1210	48.3670
 1.1220	48.2790
 1.1230	48.2180
 1.1240	48.1390
 1.1250	48.0580
 1.1260	47.9860
 1.1270	47.8810
 1.1280	47.7590
 1.1290	47.6310
 1.1300	47.4850
 1.1310	47.3330
 1.1320	47.1800
 1.1330	47.0100
 1.1340	46.8240
 1.1350	46.6310
 1.1360	46.4360
 1.1370	46.2170
 1.1380	45.9810
 1.1390	45.7500
 1.1400	45.5030
 1.1410	45.2710
 1.1420	45.0390
 1.1430	44.7870
 1.1440	44.5460
 1.1450	44.2930
 1.1460	44.0660
 1.1470	43.8590
 1.1480	43.6440
 1.1490	43.4360
 1.1500	43.2310
 1.1510	43.0090
 1.1520	42.8230
 1.1530	42.6570
 1.1540	42.5040
 1.1550	42.3700
 1.1560	42.2520
 1.1570	42.1420
 1.1580	42.0450
 1.1590	41.9530
 1.1600	41.8570
 1.1610	41.7600
 1.1620	41.6790
 1.1630	41.6130
 1.1640	41.5520
 1.1650	41.4960
 1.1660	41.4490
 1.1670	41.4030
 1.1680	41.3640
 1.1690	41.3200
 1.1700	41.2790
 1.1710	41.2360
 1.1720	41.1850
 1.1730	41.1450
 1.1740	41.1100
 1.1750	41.0770
 1.1760	41.0500
 1.1770	41.0150
 1.1780	40.9740
 1.1790	40.9380
 1.1800	40.9120
 1.1810	40.8890
 1.1820	40.8600
 1.1830	40.8280
 1.1840	40.7840
 1.1850	40.7350
 1.1860	40.6960
 1.1870	40.6670
 1.1880	40.6360
 1.1890	40.6070
 1.1900	40.5820
 1.1910	40.5610
 1.1920	40.5340
 1.1930	40.5030
 1.1940	40.4830
 1.1950	40.4650
 1.1960	40.4460
 1.1970	40.4430
 1.1980	40.4380
 1.1990	40.4250
 1.2000	40.4220
 1.2010	40.4100
 1.2020	40.4020
 1.2030	40.3980
 1.2040	40.3880
 1.2050	40.3960
 1.2060	40.3970
 1.2070	40.3970
 1.2080	40.4120
 1.2090	40.4270
 1.2100	40.4550
 1.2110	40.4830
 1.2120	40.5160
 1.2130	40.5500
 1.2140	40.5820
 1.2150	40.6260
 1.2160	40.6820
 1.2170	40.7330
 1.2180	40.7810
 1.2190	40.8260
 1.2200	40.8600
 1.2210	40.9040
 1.2220	40.9590
 1.2230	41.0170
 1.2240	41.0750
 1.2250	41.1330
 1.2260	41.1780
 1.2270	41.2180
 1.2280	41.2530
 1.2290	41.2820
 1.2300	41.3300
 1.2310	41.3810
 1.2320	41.4370
 1.2330	41.5040
 1.2340	41.5600
 1.2350	41.6150
 1.2360	41.6570
 1.2370	41.6910
 1.2380	41.7160
 1.2390	41.7390
 1.2400	41.7630
 1.2410	41.7980
 1.2420	41.8350
 1.2430	41.8650
 1.2440	41.9020
 1.2450	41.9440
 1.2460	41.9800
 1.2470	42.0150
 1.2480	42.0440
 1.2490	42.0640
 1.2500	42.0860
 1.2510	42.1090
 1.2520	42.1460
 1.2530	42.1780
 1.2540	42.1970
 1.2550	42.2200
 1.2560	42.2350
 1.2570	42.2470
 1.2580	42.2640
 1.2590	42.2790
 1.2600	42.2900
 1.2610	42.3010
 1.2620	42.3070
 1.2630	42.3230
 1.2640	42.3390
 1.2650	42.3580
 1.2660	42.3840
 1.2670	42.3910
 1.2680	42.3810
 1.2690	42.3660
 1.2700	42.3460
 1.2710	42.3230
 1.2720	42.3070
 1.2730	42.3000
 1.2740	42.2850
 1.2750	42.2820
 1.2760	42.2790
 1.2770	42.2660
 1.2780	42.2450
 1.2790	42.2080
 1.2800	42.1860
 1.2810	42.1700
 1.2820	42.1380
 1.2830	42.1040
 1.2840	42.0660
 1.2850	42.0170
 1.2860	41.9650
 1.2870	41.9180
 1.2880	41.8780
 1.2890	41.8320
 1.2900	41.7930
 1.2910	41.7650
 1.2920	41.7310
 1.2930	41.6970
 1.2940	41.6530
 1.2950	41.5980
 1.2960	41.5480
 1.2970	41.4750
 1.2980	41.3840
 1.2990	41.3060
 1.3000	41.2190
 1.3010	41.1300
 1.3020	41.0460
 1.3030	40.9460
 1.3040	40.8490
 1.3050	40.7570
 1.3060	40.6620
 1.3070	40.5670
 1.3080	40.4640
 1.3090	40.3560
 1.3100	40.2370
 1.3110	40.1110
 1.3120	39.9870
 1.3130	39.8480
 1.3140	39.7070
 1.3150	39.5700
 1.3160	39.4250
 1.3170	39.2710
 1.3180	39.1160
 1.3190	38.9590
 1.3200	38.7890
 1.3210	38.6200
 1.3220	38.4420
 1.3230	38.2650
 1.3240	38.0970
 1.3250	37.9200
 1.3260	37.7420
 1.3270	37.5640
 1.3280	37.3720
 1.3290	37.1780
 1.3300	36.9860
 1.3310	36.7920
 1.3320	36.6010
 1.3330	36.4130
 1.3340	36.2220
 1.3350	36.0180
 1.3360	35.8100
 1.3370	35.6060
 1.3380	35.4060
 1.3390	35.2200
 1.3400	35.0450
 1.3410	34.8710
 1.3420	34.6940
 1.3430	34.5190
 1.3440	34.3430
 1.3450	34.1680
 1.3460	33.9870
 1.3470	33.8230
 1.3480	33.6690
 1.3490	33.5110
 1.3500	33.3610
 1.3510	33.2110
 1.3520	33.0510
 1.3530	32.8920
 1.3540	32.7380
 1.3550	32.5830
 1.3560	32.4350
 1.3570	32.2820
 1.3580	32.1180
 1.3590	31.9580
 1.3600	31.7920
 1.3610	31.6200
 1.3620	31.4460
 1.3630	31.2640
 1.3640	31.0760
 1.3650	30.8780
 1.3660	30.6780
 1.3670	30.4740
 1.3680	30.2590
 1.3690	30.0290
 1.3700	29.7810
 1.3710	29.5240
 1.3720	29.2500
 1.3730	28.9630
 1.3740	28.6680
 1.3750	28.3570
 1.3760	28.0240
 1.3770	27.6720
 1.3780	27.2930
 1.3790	26.8930
 1.3800	26.4770
 1.3810	26.0430
 1.3820	25.5960
 1.3830	25.1350
 1.3840	24.6630
 1.3850	24.1770
 1.3860	23.6830
 1.3870	23.1730
 1.3880	22.6700
 1.3890	22.1600
 1.3900	21.6460
 1.3910	21.1490
 1.3920	20.6630
 1.3930	20.1840
 1.3940	19.7190
 1.3950	19.2590
 1.3960	18.8060
 1.3970	18.3710
 1.3980	17.9580
 1.3990	17.5720
 1.4000	17.1990
 1.4010	16.8410
 1.4020	16.4990
 1.4030	16.1670
 1.4040	15.8570
 1.4050	15.5650
 1.4060	15.2860
 1.4070	15.0290
 1.4080	14.7870
 1.4090	14.5610
 1.4100	14.3480
 1.4110	14.1440
 1.4120	13.9570
 1.4130	13.7850
 1.4140	13.6300
 1.4150	13.4950
 1.4160	13.3650
 1.4170	13.2430
 1.4180	13.1300
 1.4190	13.0140
 1.4200	12.9050
 1.4210	12.8030
 1.4220	12.7080
 1.4230	12.6240
 1.4240	12.5480
 1.4250	12.4770
 1.4260	12.4140
 1.4270	12.3510
 1.4280	12.2900
 1.4290	12.2350
 1.4300	12.1840
 1.4310	12.1390
 1.4320	12.1030
 1.4330	12.0680
 1.4340	12.0360
 1.4350	12.0050
 1.4360	11.9780
 1.4370	11.9480
 1.4380	11.9190
 1.4390	11.8980
 1.4400	11.8750
 1.4410	11.8560
 1.4420	11.8460
 1.4430	11.8340
 1.4440	11.8290
 1.4450	11.8250
 1.4460	11.8160
 1.4470	11.8180
 1.4480	11.8160
 1.4490	11.8150
 1.4500	11.8200
 1.4510	11.8180
 1.4520	11.8190
 1.4530	11.8250
 1.4540	11.8300
 1.4550	11.8370
 1.4560	11.8480
 1.4570	11.8600
 1.4580	11.8710
 1.4590	11.8860
 1.4600	11.9030
 1.4610	11.9200
 1.4620	11.9410
 1.4630	11.9670
 1.4640	11.9940
 1.4650	12.0240
 1.4660	12.0550
 1.4670	12.0860
 1.4680	12.1220
 1.4690	12.1610
 1.4700	12.2050
 1.4710	12.2550
 1.4720	12.3030
 1.4730	12.3570
 1.4740	12.4130
 1.4750	12.4660
 1.4760	12.5250
 1.4770	12.5860
 1.4780	12.6460
 1.4790	12.7160
 1.4800	12.7800
 1.4810	12.8460
 1.4820	12.9170
 1.4830	12.9830
 1.4840	13.0540
 1.4850	13.1210
 1.4860	13.1870
 1.4870	13.2610
 1.4880	13.3340
 1.4890	13.4120
 1.4900	13.4900
 1.4910	13.5700
 1.4920	13.6460
 1.4930	13.7200
 1.4940	13.7980
 1.4950	13.8750
 1.4960	13.9550
 1.4970	14.0370
 1.4980	14.1210
 1.4990	14.2020
 1.5000	14.2890
 1.5010	14.3850
 1.5020	14.4730
 1.5030	14.5590
 1.5040	14.6480
 1.5050	14.7350
 1.5060	14.8230
 1.5070	14.9140
 1.5080	15.0000
 1.5090	15.0840
 1.5100	15.1660
 1.5110	15.2510
 1.5120	15.3450
 1.5130	15.4340
 1.5140	15.5240
 1.5150	15.6110
 1.5160	15.6960
 1.5170	15.7850
 1.5180	15.8760
 1.5190	15.9710
 1.5200	16.0670
 1.5210	16.1620
 1.5220	16.2580
 1.5230	16.3490
 1.5240	16.4320
 1.5250	16.5120
 1.5260	16.5900
 1.5270	16.6740
 1.5280	16.7640
 1.5290	16.8580
 1.5300	16.9560
 1.5310	17.0460
 1.5320	17.1300
 1.5330	17.2160
 1.5340	17.3010
 1.5350	17.3850
 1.5360	17.4770
 1.5370	17.5640
 1.5380	17.6460
 1.5390	17.7310
 1.5400	17.8110
 1.5410	17.8940
 1.5420	17.9750
 1.5430	18.0590
 1.5440	18.1470
 1.5450	18.2250
 1.5460	18.3110
 1.5470	18.3960
 1.5480	18.4740
 1.5490	18.5600
 1.5500	18.6450
 1.5510	18.7240
 1.5520	18.8030
 1.5530	18.8830
 1.5540	18.9570
 1.5550	19.0360
 1.5560	19.1170
 1.5570	19.1890
 1.5580	19.2660
 1.5590	19.3420
 1.5600	19.4240
 1.5610	19.5110
 1.5620	19.5930
 1.5630	19.6700
 1.5640	19.7410
 1.5650	19.8070
 1.5660	19.8760
 1.5670	19.9480
 1.5680	20.0240
 1.5690	20.0940
 1.5700	20.1600
 1.5710	20.2260
 1.5720	20.2930
 1.5730	20.3680
 1.5740	20.4470
 1.5750	20.5240
 1.5760	20.6010
 1.5770	20.6690
 1.5780	20.7370
 1.5790	20.8060
 1.5800	20.8700
 1.5810	20.9350
 1.5820	20.9990
 1.5830	21.0640
 1.5840	21.1350
 1.5850	21.2040
 1.5860	21.2720
 1.5870	21.3410
 1.5880	21.4040
 1.5890	21.4680
 1.5900	21.5410
 1.5910	21.6130
 1.5920	21.6900
 1.5930	21.7660
 1.5940	21.8340
 1.5950	21.8970
 1.5960	21.9580
 1.5970	22.0220
 1.5980	22.0840
 1.5990	22.1490
 1.6000	22.2150
 1.6010	22.2750
 1.6020	22.3420
 1.6030	22.4110
 1.6040	22.4760
 1.6050	22.5450
 1.6060	22.6120
 1.6070	22.6720
 1.6080	22.7320
 1.6090	22.7920
 1.6100	22.8500
 1.6110	22.9070
 1.6120	22.9590
 1.6130	23.0180
 1.6140	23.0740
 1.6150	23.1240
 1.6160	23.1840
 1.6170	23.2390
 1.6180	23.2880
 1.6190	23.3470
 1.6200	23.3970
 1.6210	23.4400
 1.6220	23.4940
 1.6230	23.5490
 1.6240	23.6010
 1.6250	23.6560
 1.6260	23.7030
 1.6270	23.7440
 1.6280	23.7920
 1.6290	23.8420
 1.6300	23.8930
 1.6310	23.9410
 1.6320	23.9930
 1.6330	24.0380
 1.6340	24.0790
 1.6350	24.1190
 1.6360	24.1490
 1.6370	24.1860
 1.6380	24.2270
 1.6390	24.2670
 1.6400	24.3120
 1.6410	24.3470
 1.6420	24.3750
 1.6430	24.4030
 1.6440	24.4220
 1.6450	24.4490
 1.6460	24.4740
 1.6470	24.5010
 1.6480	24.5290
 1.6490	24.5540
 1.6500	24.5760
 1.6510	24.5940
 1.6520	24.6180
 1.6530	24.6450
 1.6540	24.6640
 1.6550	24.6870
 1.6560	24.7020
 1.6570	24.7090
 1.6580	24.7210
 1.6590	24.7320
 1.6600	24.7380
 1.6610	24.7460
 1.6620	24.7630
 1.6630	24.7760
 1.6640	24.7910
 1.6650	24.8000
 1.6660	24.7920
 1.6670	24.7830
 1.6680	24.7640
 1.6690	24.7490
 1.6700	24.7480
 1.6710	24.7410
 1.6720	24.7390
 1.6730	24.7390
 1.6740	24.7250
 1.6750	24.7040
 1.6760	24.6840
 1.6770	24.6580
 1.6780	24.6310
 1.6790	24.6100
 1.6800	24.5890
 1.6810	24.5700
 1.6820	24.5450
 1.6830	24.5160
 1.6840	24.4890
 1.6850	24.4540
 1.6860	24.4190
 1.6870	24.3820
 1.6880	24.3410
 1.6890	24.3050
 1.6900	24.2630
 1.6910	24.2230
 1.6920	24.1740
 1.6930	24.1110
 1.6940	24.0620
 1.6950	24.0210
 1.6960	23.9710
 1.6970	23.9270
 1.6980	23.8770
 1.6990	23.8150
 1.7000	23.7580
 1.7010	23.7040
 1.7020	23.6450
 1.7030	23.5800
 1.7040	23.5190
 1.7050	23.4600
 1.7060	23.3970
 1.7070	23.3340
 1.7080	23.2730
 1.7090	23.2120
 1.7100	23.1490
 1.7110	23.0850
 1.7120	23.0240
 1.7130	22.9620
 1.7140	22.9040
 1.7150	22.8480
 1.7160	22.7850
 1.7170	22.7240
 1.7180	22.6600
 1.7190	22.5900
 1.7200	22.5310
 1.7210	22.4730
 1.7220	22.4190
 1.7230	22.3780
 1.7240	22.3290
 1.7250	22.2710
 1.7260	22.2180
 1.7270	22.1670
 1.7280	22.1270
 1.7290	22.1000
 1.7300	22.0630
 1.7310	22.0360
 1.7320	22.0050
 1.7330	21.9850
 1.7340	21.9930
 1.7350	21.9800
 1.7360	21.9620
 1.7370	21.9430
 1.7380	21.9110
 1.7390	21.8850
 1.7400	21.8630
 1.7410	21.8380
 1.7420	21.8160
 1.7430	21.7800
 1.7440	21.7370
 1.7450	21.6920
 1.7460	21.6360
 1.7470	21.5820
 1.7480	21.5270
 1.7490	21.4720
 1.7500	21.4170
 1.7510	21.3530
 1.7520	21.2860
 1.7530	21.2180
 1.7540	21.1360
 1.7550	21.0760
 1.7560	21.0190
 1.7570	20.9640
 1.7580	20.9100
 1.7590	20.8510
 1.7600	20.7960
 1.7610	20.7360
 1.7620	20.6810
 1.7630	20.6230
 1.7640	20.5750
 1.7650	20.5400
 1.7660	20.5040
 1.7670	20.4800
 1.7680	20.4480
 1.7690	20.4110
 1.7700	20.3780
 1.7710	20.3420
 1.7720	20.3140
 1.7730	20.2960
 1.7740	20.2740
 1.7750	20.2600
 1.7760	20.2350
 1.7770	20.1980
 1.7780	20.1750
 1.7790	20.1520
 1.7800	20.1360
 1.7810	20.1330
 1.7820	20.1230
 1.7830	20.1090
 1.7840	20.1030
 1.7850	20.1010
 1.7860	20.0980
 1.7870	20.1010
 1.7880	20.1000
 1.7890	20.0990
 1.7900	20.0980
 1.7910	20.0960
 1.7920	20.0890
 1.7930	20.0870
 1.7940	20.0900
 1.7950	20.0900
 1.7960	20.0940
 1.7970	20.0940
 1.7980	20.0830
 1.7990	20.0870
 1.8000	20.0970
 1.8010	20.1110
 1.8020	20.1410
 1.8030	20.1620
 1.8040	20.1830
 1.8050	20.1980
 1.8060	20.2090
 1.8070	20.2160
 1.8080	20.2140
 1.8090	20.2180
 1.8100	20.2200
 1.8110	20.2280
 1.8120	20.2400
 1.8130	20.2440
 1.8140	20.2420
 1.8150	20.2440
 1.8160	20.2480
 1.8170	20.2530
 1.8180	20.2710
 1.8190	20.2900
 1.8200	20.3040
 1.8210	20.3300
 1.8220	20.3360
 1.8230	20.3270
 1.8240	20.3110
 1.8250	20.2660
 1.8260	20.2510
 1.8270	20.2490
 1.8280	20.2410
 1.8290	20.2510
 1.8300	20.2500
 1.8310	20.2980
 1.8320	20.3090
 1.8330	20.2940
 1.8340	20.2550
 1.8350	20.2080
 1.8360	20.1620
 1.8370	20.1060
 1.8380	20.0580
 1.8390	20.0140
 1.8400	19.9880
 1.8410	19.9400
 1.8420	19.8890
 1.8430	19.8220
 1.8440	19.7630
 1.8450	19.6680
 1.8460	19.6000
 1.8470	19.5320
 1.8480	19.4200
 1.8490	19.3160
 1.8500	19.2020
 1.8510	19.0680
 1.8520	18.9370
 1.8530	18.8060
 1.8540	18.6630
 1.8550	18.5030
 1.8560	18.3130
 1.8570	18.1430
 1.8580	17.9680
 1.8590	17.7820
 1.8600	17.5890
 1.8610	17.4060
 1.8620	17.1900
 1.8630	16.9530
 1.8640	16.7210
 1.8650	16.4720
 1.8660	16.2110
 1.8670	15.9430
 1.8680	15.6700
 1.8690	15.3680
 1.8700	15.0700
 1.8710	14.7680
 1.8720	14.4740
 1.8730	14.1600
 1.8740	13.8560
 1.8750	13.5290
 1.8760	13.1980
 1.8770	12.8840
 1.8780	12.5750
 1.8790	12.2790
 1.8800	11.9810
 1.8810	11.6890
 1.8820	11.3930
 1.8830	11.0950
 1.8840	10.7980
 1.8850	10.4970
 1.8860	10.1910
 1.8870	 9.8950
 1.8880	 9.6210
 1.8890	 9.3870
 1.8900	 9.1650
 1.8910	 8.9490
 1.8920	 8.7480
 1.8930	 8.5580
 1.8940	 8.3660
 1.8950	 8.1970
 1.8960	 8.0470
 1.8970	 7.9140
 1.8980	 7.7890
 1.8990	 7.6650
 1.9000	 7.5490
 1.9010	 7.4320
 1.9020	 7.3330
 1.9030	 7.2500
 1.9040	 7.1760
 1.9050	 7.1030
 1.9060	 7.0420
 1.9070	 6.9710
 1.9080	 6.9150
 1.9090	 6.8830
 1.9100	 6.8400
 1.9110	 6.7940
 1.9120	 6.7470
 1.9130	 6.7110
 1.9140	 6.6660
 1.9150	 6.6480
 1.9160	 6.6330
 1.9170	 6.6050
 1.9180	 6.5960
 1.9190	 6.5790
 1.9200	 6.5810
 1.9210	 6.6040
 1.9220	 6.6060
 1.9230	 6.5950
 1.9240	 6.5940
 1.9250	 6.5990
 1.9260	 6.5800
 1.9270	 6.5630
 1.9280	 6.5490
 1.9290	 6.5170
 1.9300	 6.4930
 1.9310	 6.5030
 1.9320	 6.5100
 1.9330	 6.5130
 1.9340	 6.5300
 1.9350	 6.5360
 1.9360	 6.5320
 1.9370	 6.5280
 1.9380	 6.5200
 1.9390	 6.5130
 1.9400	 6.5110
 1.9410	 6.5170
 1.9420	 6.5420
 1.9430	 6.5910
 1.9440	 6.6290
 1.9450	 6.6830
 1.9460	 6.7120
 1.9470	 6.7230
 1.9480	 6.7380
 1.9490	 6.7350
 1.9500	 6.7560
 1.9510	 6.7800
 1.9520	 6.7960
 1.9530	 6.8260
 1.9540	 6.8410
 1.9550	 6.8570
 1.9560	 6.8720
 1.9570	 6.8870
 1.9580	 6.8910
 1.9590	 6.9120
 1.9600	 6.9500
 1.9610	 6.9790
 1.9620	 7.0120
 1.9630	 7.0410
 1.9640	 7.0610
 1.9650	 7.0760
 1.9660	 7.1040
 1.9670	 7.1330
 1.9680	 7.1630
 1.9690	 7.2000
 1.9700	 7.2330
 1.9710	 7.2680
 1.9720	 7.2950
 1.9730	 7.3200
 1.9740	 7.3360
 1.9750	 7.3610
 1.9760	 7.3890
 1.9770	 7.4250
 1.9780	 7.4600
 1.9790	 7.4860
 1.9800	 7.5000
 1.9810	 7.5240
 1.9820	 7.5470
 1.9830	 7.5810
 1.9840	 7.6170
 1.9850	 7.6630
 1.9860	 7.7300
 1.9870	 7.7770
 1.9880	 7.8270
 1.9890	 7.8690
 1.9900	 7.8730
 1.9910	 7.8900
 1.9920	 7.9170
 1.9930	 7.9400
 1.9940	 7.9780
 1.9950	 8.0450
 1.9960	 8.0850
 1.9970	 8.1200
 1.9980	 8.1520
 1.9990	 8.1740
 2.0000	 8.1880
 2.0010	 8.2180
 2.0020	 8.2570
 2.0030	 8.3090
 2.0040	 8.3660
 2.0050	 8.4080
 2.0060	 8.4460
 2.0070	 8.4810
 2.0080	 8.4970
 2.0090	 8.5270
 2.0100	 8.5690
 2.0110	 8.6010
 2.0120	 8.6280
 2.0130	 8.6600
 2.0140	 8.6920
 2.0150	 8.7300
 2.0160	 8.7610
 2.0170	 8.7970
 2.0180	 8.8320
 2.0190	 8.8620
 2.0200	 8.8910
 2.0210	 8.9160
 2.0220	 8.9480
 2.0230	 8.9780
 2.0240	 9.0150
 2.0250	 9.0640
 2.0260	 9.1140
 2.0270	 9.1820
 2.0280	 9.2190
 2.0290	 9.2560
 2.0300	 9.3070
 2.0310	 9.3450
 2.0320	 9.3690
 2.0330	 9.4020
 2.0340	 9.4470
 2.0350	 9.4660
 2.0360	 9.4630
 2.0370	 9.4800
 2.0380	 9.4860
 2.0390	 9.5090
 2.0400	 9.5660
 2.0410	 9.6020
 2.0420	 9.6380
 2.0430	 9.6610
 2.0440	 9.6830
 2.0450	 9.6870
 2.0460	 9.7240
 2.0470	 9.7790
 2.0480	 9.8180
 2.0490	 9.8710
 2.0500	 9.9060
 2.0510	 9.9190
 2.0520	 9.9430
 2.0530	 9.9740
 2.0540	 9.9980
 2.0550	10.0180
 2.0560	10.0380
 2.0570	10.0510
 2.0580	10.0650
 2.0590	10.0930
 2.0600	10.1330
 2.0610	10.1600
 2.0620	10.1960
 2.0630	10.2210
 2.0640	10.2300
 2.0650	10.2500
 2.0660	10.2700
 2.0670	10.3010
 2.0680	10.3440
 2.0690	10.3790
 2.0700	10.4270
 2.0710	10.4600
 2.0720	10.4700
 2.0730	10.4900
 2.0740	10.5210
 2.0750	10.5540
 2.0760	10.5830
 2.0770	10.6260
 2.0780	10.6540
 2.0790	10.6630
 2.0800	10.6890
 2.0810	10.7240
 2.0820	10.7500
 2.0830	10.7750
 2.0840	10.8000
 2.0850	10.8160
 2.0860	10.8420
 2.0870	10.8740
 2.0880	10.9150
 2.0890	10.9460
 2.0900	10.9790
 2.0910	11.0080
 2.0920	11.0240
 2.0930	11.0600
 2.0940	11.1090
 2.0950	11.1490
 2.0960	11.2030
 2.0970	11.2390
 2.0980	11.2570
 2.0990	11.2810
 2.1000	11.2960
 2.1010	11.3200
 2.1020	11.3430
 2.1030	11.3760
 2.1040	11.4180
 2.1050	11.4690
 2.1060	11.5060
 2.1070	11.5470
 2.1080	11.5860
 2.1090	11.6160
 2.1100	11.6480
 2.1110	11.6860
 2.1120	11.7190
 2.1130	11.7420
 2.1140	11.7720
 2.1150	11.8120
 2.1160	11.8420
 2.1170	11.8690
 2.1180	11.8950
 2.1190	11.9090
 2.1200	11.9340
 2.1210	11.9580
 2.1220	12.0000
 2.1230	12.0290
 2.1240	12.0580
 2.1250	12.0980
 2.1260	12.1380
 2.1270	12.1730
 2.1280	12.2250
 2.1290	12.2510
 2.1300	12.2440
 2.1310	12.2680
 2.1320	12.2980
 2.1330	12.3300
 2.1340	12.3890
 2.1350	12.4240
 2.1360	12.4440
 2.1370	12.4690
 2.1380	12.4890
 2.1390	12.5110
 2.1400	12.5430
 2.1410	12.5570
 2.1420	12.5840
 2.1430	12.6070
 2.1440	12.6430
 2.1450	12.6990
 2.1460	12.7280
 2.1470	12.7510
 2.1480	12.7720
 2.1490	12.7720
 2.1500	12.7930
 2.1510	12.8360
 2.1520	12.8590
 2.1530	12.8790
 2.1540	12.8960
 2.1550	12.8960
 2.1560	12.9080
 2.1570	12.9270
 2.1580	12.9450
 2.1590	12.9700
 2.1600	12.9960
 2.1610	12.9960
 2.1620	13.0150
 2.1630	13.0270
 2.1640	13.0250
 2.1650	13.0440
 2.1660	13.0810
 2.1670	13.1080
 2.1680	13.1390
 2.1690	13.1680
 2.1700	13.1980
 2.1710	13.2190
 2.1720	13.2330
 2.1730	13.2500
 2.1740	13.2580
 2.1750	13.2690
 2.1760	13.2830
 2.1770	13.2940
 2.1780	13.3060
 2.1790	13.3100
 2.1800	13.2950
 2.1810	13.3020
 2.1820	13.3150
 2.1830	13.3310
 2.1840	13.3610
 2.1850	13.4200
 2.1860	13.4550
 2.1870	13.4940
 2.1880	13.5110
 2.1890	13.5170
 2.1900	13.5170
 2.1910	13.4870
 2.1920	13.4880
 2.1930	13.4980
 2.1940	13.5100
 2.1950	13.5360
 2.1960	13.5590
 2.1970	13.5760
 2.1980	13.6020
 2.1990	13.6560
 2.2000	13.6750
 2.2010	13.6730
 2.2020	13.6780
 2.2030	13.6460
 2.2040	13.6420
 2.2050	13.6550
 2.2060	13.6830
 2.2070	13.6970
 2.2080	13.7240
 2.2090	13.7180
 2.2100	13.6820
 2.2110	13.6750
 2.2120	13.6640
 2.2130	13.6550
 2.2140	13.6600
 2.2150	13.6580
 2.2160	13.6390
 2.2170	13.6370
 2.2180	13.6530
 2.2190	13.6550
 2.2200	13.6480
 2.2210	13.6480
 2.2220	13.6640
 2.2230	13.6510
 2.2240	13.6150
 2.2250	13.6000
 2.2260	13.5820
 2.2270	13.5560
 2.2280	13.5540
 2.2290	13.5350
 2.2300	13.4840
 2.2310	13.4480
 2.2320	13.4030
 2.2330	13.3620
 2.2340	13.3200
 2.2350	13.2730
 2.2360	13.2340
 2.2370	13.2010
 2.2380	13.1730
 2.2390	13.1520
 2.2400	13.1220
 2.2410	13.1010
 2.2420	13.0580
 2.2430	12.9970
 2.2440	12.9390
 2.2450	12.8690
 2.2460	12.8100
 2.2470	12.7450
 2.2480	12.6950
 2.2490	12.6510
 2.2500	12.6080
 2.2510	12.5680
 2.2520	12.5440
 2.2530	12.5560
 2.2540	12.5270
 2.2550	12.4860
 2.2560	12.4420
 2.2570	12.3560
 2.2580	12.2910
 2.2590	12.2410
 2.2600	12.1920
 2.2610	12.1320
 2.2620	12.0930
 2.2630	12.0820
 2.2640	12.0550
 2.2650	12.0270
 2.2660	11.9950
 2.2670	11.9470
 2.2680	11.8750
 2.2690	11.8090
 2.2700	11.7290
 2.2710	11.6850
 2.2720	11.6490
 2.2730	11.6160
 2.2740	11.6240
 2.2750	11.5820
 2.2760	11.5020
 2.2770	11.4580
 2.2780	11.4030
 2.2790	11.3780
 2.2800	11.3820
 2.2810	11.3950
 2.2820	11.4460
 2.2830	11.4480
 2.2840	11.4520
 2.2850	11.4230
 2.2860	11.3300
 2.2870	11.2780
 2.2880	11.2310
 2.2890	11.1890
 2.2900	11.1610
 2.2910	11.1280
 2.2920	11.0970
 2.2930	11.0570
 2.2940	11.0220
 2.2950	10.9770
 2.2960	10.9080
 2.2970	10.8620
 2.2980	10.8340
 2.2990	10.7910
 2.3000	10.7230
 2.3010	10.6860
 2.3020	10.6400
 2.3030	10.5690
 2.3040	10.5570
 2.3050	10.5460
 2.3060	10.5330
 2.3070	10.5510
 2.3080	10.5290
 2.3090	10.5140
 2.3100	10.5060
 2.3110	10.4660
 2.3120	10.4430
 2.3130	10.4340
 2.3140	10.4170
 2.3150	10.3810
 2.3160	10.3940
 2.3170	10.4440
 2.3180	10.4460
 2.3190	10.4450
 2.3200	10.4560
 2.3210	10.4540
 2.3220	10.4490
 2.3230	10.4650
 2.3240	10.4700
 2.3250	10.4350
 2.3260	10.4240
 2.3270	10.4490
 2.3280	10.4370
 2.3290	10.3840
 2.3300	10.3730
 2.3310	10.3980
 2.3320	10.3670
 2.3330	10.3140
 2.3340	10.2850
 2.3350	10.2140
 2.3360	10.1820
 2.3370	10.2210
 2.3380	10.2140
 2.3390	10.1800
 2.3400	10.1500
 2.3410	10.0940
 2.3420	10.0660
 2.3430	10.0680
 2.3440	10.0490
 2.3450	10.0330
 2.3460	10.0150
 2.3470	 9.9820
 2.3480	 9.9500
 2.3490	 9.9350
 2.3500	 9.8970
 2.3510	 9.8210
 2.3520	 9.7770
 2.3530	 9.7350
 2.3540	 9.7040
 2.3550	 9.7050
 2.3560	 9.7190
 2.3570	 9.7300
 2.3580	 9.7210
 2.3590	 9.6680
 2.3600	 9.6550
 2.3610	 9.6150
 2.3620	 9.5690
 2.3630	 9.5520
 2.3640	 9.5040
 2.3650	 9.5500
 2.3660	 9.5850
 2.3670	 9.5860
 2.3680	 9.6410
 2.3690	 9.5940
 2.3700	 9.5540
 2.3710	 9.6000
 2.3720	 9.5960
 2.3730	 9.5490
 2.3740	 9.5320
 2.3750	 9.4840
 2.3760	 9.3940
 2.3770	 9.3630
 2.3780	 9.3360
 2.3790	 9.3430
 2.3800	 9.3980
 2.3810	 9.4490
 2.3820	 9.4780
 2.3830	 9.3940
 2.3840	 9.2920
 2.3850	 9.2370
 2.3860	 9.1620
 2.3870	 9.1680
 2.3880	 9.2690
 2.3890	 9.2600
 2.3900	 9.2420
 2.3910	 9.2320
 2.3920	 9.1260
 2.3930	 9.1010
 2.3940	 9.0850
 2.3950	 9.0550
 2.3960	 9.0620
 2.3970	 9.0720
 2.3980	 9.0750
 2.3990	 9.1150
 2.4000	 9.1940
 2.4010	 9.1560
 2.4020	 9.1040
 2.4030	 9.0360
 2.4040	 8.9510
 2.4050	 8.8990
 2.4060	 8.9060
 2.4070	 8.9740
 2.4080	 8.9070
 2.4090	 8.8500
 2.4100	 8.8280
 2.4110	 8.7650
 2.4120	 8.7850
 2.4130	 8.8890
 2.4140	 8.9840
 2.4150	 8.9110
 2.4160	 8.8650
 2.4170	 8.8370
 2.4180	 8.6920
 2.4190	 8.7040
 2.4200	 8.7220
 2.4210	 8.6210
 2.4220	 8.5470
 2.4230	 8.4420
 2.4240	 8.3670
 2.4250	 8.3610
 2.4260	 8.3790
 2.4270	 8.4120
 2.4280	 8.4180
 2.4290	 8.4510
 2.4300	 8.4380
 2.4310	 8.3680
 2.4320	 8.3490
 2.4330	 8.2690
 2.4340	 8.2600
 2.4350	 8.4040
 2.4360	 8.4890
 2.4370	 8.5840
 2.4380	 8.6280
 2.4390	 8.5550
 2.4400	 8.4720
 2.4410	 8.3790
 2.4420	 8.3580
 2.4430	 8.3340
 2.4440	 8.3560
 2.4450	 8.3900
 2.4460	 8.2930
 2.4470	 8.2640
 2.4480	 8.2550
 2.4490	 8.1770
 2.4500	 8.1410
 2.4510	 8.1540
 2.4520	 8.0740
 2.4530	 8.0390
 2.4540	 8.0510
 2.4550	 7.9170
 2.4560	 7.8330
 2.4570	 7.7290
 2.4580	 7.6790
 2.4590	 7.7400
 2.4600	 7.7720
 2.4610	 7.8510
 2.4620	 7.7610
 2.4630	 7.5420
 2.4640	 7.3700
 2.4650	 7.1550
 2.4660	 7.1190
 2.4670	 7.2920
 2.4680	 7.5130
 2.4690	 7.7220
 2.4700	 7.8410
 2.4710	 7.8220
 2.4720	 7.7900
 2.4730	 7.7910
 2.4740	 7.7190
 2.4750	 7.5280
 2.4760	 7.5170
 2.4770	 7.5360
 2.4780	 7.5930
 2.4790	 7.7750
 2.4800	 7.8910
 2.4810	 7.9790
 2.4820	 7.9380
 2.4830	 7.9490
 2.4840	 7.7640
 2.4850	 7.7370
 2.4860	 7.7940
 2.4870	 7.7510
 2.4880	 7.6330
 2.4890	 7.5130
 2.4900	 7.2230
 2.4910	 7.0710
 2.4920	 7.3540
 2.4930	 7.4320
 2.4940	 7.6170
 2.4950	 8.0440
 2.4960	 8.2410
 2.4970	 8.3950
 2.4980	 8.5150
 2.4990	 8.3790
 2.5000	 8.0200
