Name: Calocedrus decrruens 2
Type: vegetation
Class: Tree
Genus: Calocedrus
Species: decurrens
Sample No.: VH055
Owner: UCSB
Wavelength Range: VSWIR
Origin: 37.0441; -119.3033; WGS84
Collection Date: 4/20/2013
Description: Samples were collected as part of the HyspIRI Airborne Campaign. 48 individual plants were sampled in three times in 2013 - spring  summer  and fall. The name of the sample includes a 1  2  or 3 which references a different individual of the species. Samples were taken to JPL and processed within 48 hours of collection. The same leaves were processed in the Nicolet and then measured using the ASD.
Measurement: Bidirectional reflectance
First Column: X
Second Column: Y
X Units: Wavelength (micrometers)
Y Units: Reflectance (percentage)
First X Value: 0.35
Last X Value: 2.5
Number of X Values: 2151
Additional Information: vegetation.tree.calocedrus.decurrens.vswir.vh055.ucsb.asd.ancillary.txt

 0.3500	 3.8210
 0.3510	 3.9150
 0.3520	 3.8430
 0.3530	 3.7460
 0.3540	 3.7690
 0.3550	 3.8190
 0.3560	 3.7820
 0.3570	 3.7450
 0.3580	 3.8510
 0.3590	 3.7650
 0.3600	 3.6200
 0.3610	 3.5520
 0.3620	 3.6540
 0.3630	 3.6710
 0.3640	 3.6620
 0.3650	 3.7110
 0.3660	 3.6640
 0.3670	 3.6300
 0.3680	 3.6420
 0.3690	 3.6680
 0.3700	 3.6560
 0.3710	 3.6140
 0.3720	 3.5730
 0.3730	 3.5780
 0.3740	 3.5880
 0.3750	 3.6170
 0.3760	 3.6700
 0.3770	 3.6060
 0.3780	 3.5670
 0.3790	 3.5920
 0.3800	 3.6180
 0.3810	 3.6430
 0.3820	 3.6360
 0.3830	 3.5920
 0.3840	 3.5430
 0.3850	 3.5720
 0.3860	 3.6170
 0.3870	 3.5960
 0.3880	 3.6630
 0.3890	 3.6490
 0.3900	 3.5760
 0.3910	 3.6590
 0.3920	 3.7080
 0.3930	 3.6970
 0.3940	 3.6560
 0.3950	 3.6760
 0.3960	 3.6340
 0.3970	 3.5940
 0.3980	 3.6760
 0.3990	 3.7230
 0.4000	 3.7610
 0.4010	 3.7830
 0.4020	 3.7170
 0.4030	 3.7280
 0.4040	 3.7640
 0.4050	 3.7670
 0.4060	 3.8590
 0.4070	 3.9000
 0.4080	 3.8890
 0.4090	 3.9120
 0.4100	 3.9480
 0.4110	 4.0000
 0.4120	 4.0630
 0.4130	 4.1030
 0.4140	 4.1490
 0.4150	 4.1840
 0.4160	 4.1990
 0.4170	 4.2700
 0.4180	 4.3190
 0.4190	 4.3390
 0.4200	 4.3920
 0.4210	 4.4360
 0.4220	 4.4820
 0.4230	 4.5370
 0.4240	 4.5790
 0.4250	 4.6200
 0.4260	 4.6600
 0.4270	 4.6930
 0.4280	 4.7290
 0.4290	 4.7640
 0.4300	 4.7950
 0.4310	 4.8180
 0.4320	 4.8350
 0.4330	 4.8560
 0.4340	 4.8880
 0.4350	 4.9160
 0.4360	 4.9510
 0.4370	 4.9870
 0.4380	 5.0030
 0.4390	 5.0140
 0.4400	 5.0350
 0.4410	 5.0680
 0.4420	 5.0920
 0.4430	 5.1220
 0.4440	 5.1540
 0.4450	 5.1760
 0.4460	 5.2060
 0.4470	 5.2430
 0.4480	 5.2780
 0.4490	 5.2990
 0.4500	 5.3200
 0.4510	 5.3450
 0.4520	 5.3760
 0.4530	 5.4080
 0.4540	 5.4390
 0.4550	 5.4640
 0.4560	 5.4800
 0.4570	 5.4940
 0.4580	 5.5050
 0.4590	 5.5150
 0.4600	 5.5310
 0.4610	 5.5480
 0.4620	 5.5650
 0.4630	 5.5800
 0.4640	 5.5840
 0.4650	 5.5960
 0.4660	 5.6140
 0.4670	 5.6170
 0.4680	 5.6200
 0.4690	 5.6200
 0.4700	 5.6150
 0.4710	 5.6280
 0.4720	 5.6450
 0.4730	 5.6580
 0.4740	 5.6640
 0.4750	 5.6720
 0.4760	 5.6770
 0.4770	 5.6810
 0.4780	 5.7000
 0.4790	 5.7080
 0.4800	 5.7160
 0.4810	 5.7370
 0.4820	 5.7400
 0.4830	 5.7390
 0.4840	 5.7450
 0.4850	 5.7640
 0.4860	 5.7850
 0.4870	 5.7970
 0.4880	 5.8000
 0.4890	 5.8250
 0.4900	 5.8540
 0.4910	 5.8860
 0.4920	 5.9230
 0.4930	 5.9520
 0.4940	 5.9840
 0.4950	 6.0260
 0.4960	 6.0730
 0.4970	 6.1350
 0.4980	 6.1990
 0.4990	 6.2510
 0.5000	 6.3300
 0.5010	 6.4190
 0.5020	 6.5110
 0.5030	 6.6100
 0.5040	 6.7280
 0.5050	 6.8460
 0.5060	 6.9600
 0.5070	 7.1090
 0.5080	 7.2690
 0.5090	 7.4360
 0.5100	 7.6150
 0.5110	 7.8090
 0.5120	 8.0120
 0.5130	 8.2250
 0.5140	 8.4560
 0.5150	 8.7010
 0.5160	 8.9530
 0.5170	 9.2070
 0.5180	 9.4680
 0.5190	 9.7380
 0.5200	10.0130
 0.5210	10.2890
 0.5220	10.5550
 0.5230	10.8190
 0.5240	11.0820
 0.5250	11.3290
 0.5260	11.5660
 0.5270	11.7870
 0.5280	11.9860
 0.5290	12.1740
 0.5300	12.3480
 0.5310	12.5070
 0.5320	12.6550
 0.5330	12.7950
 0.5340	12.9210
 0.5350	13.0310
 0.5360	13.1290
 0.5370	13.2150
 0.5380	13.2920
 0.5390	13.3630
 0.5400	13.4260
 0.5410	13.4820
 0.5420	13.5330
 0.5430	13.5890
 0.5440	13.6460
 0.5450	13.7020
 0.5460	13.7580
 0.5470	13.8100
 0.5480	13.8560
 0.5490	13.8980
 0.5500	13.9370
 0.5510	13.9700
 0.5520	13.9890
 0.5530	13.9890
 0.5540	13.9780
 0.5550	13.9540
 0.5560	13.9150
 0.5570	13.8630
 0.5580	13.7980
 0.5590	13.7190
 0.5600	13.6270
 0.5610	13.5230
 0.5620	13.4100
 0.5630	13.2890
 0.5640	13.1600
 0.5650	13.0270
 0.5660	12.8860
 0.5670	12.7370
 0.5680	12.5770
 0.5690	12.4160
 0.5700	12.2510
 0.5710	12.0820
 0.5720	11.9250
 0.5730	11.7690
 0.5740	11.6170
 0.5750	11.4820
 0.5760	11.3590
 0.5770	11.2450
 0.5780	11.1380
 0.5790	11.0440
 0.5800	10.9470
 0.5810	10.8510
 0.5820	10.7660
 0.5830	10.6860
 0.5840	10.6040
 0.5850	10.5210
 0.5860	10.4480
 0.5870	10.3800
 0.5880	10.3110
 0.5890	10.2420
 0.5900	10.1830
 0.5910	10.1320
 0.5920	10.0890
 0.5930	10.0530
 0.5940	10.0200
 0.5950	 9.9910
 0.5960	 9.9660
 0.5970	 9.9380
 0.5980	 9.9110
 0.5990	 9.8840
 0.6000	 9.8550
 0.6010	 9.8250
 0.6020	 9.7900
 0.6030	 9.7470
 0.6040	 9.6950
 0.6050	 9.6360
 0.6060	 9.5750
 0.6070	 9.5110
 0.6080	 9.4350
 0.6090	 9.3530
 0.6100	 9.2690
 0.6110	 9.1880
 0.6120	 9.1080
 0.6130	 9.0260
 0.6140	 8.9450
 0.6150	 8.8680
 0.6160	 8.7980
 0.6170	 8.7320
 0.6180	 8.6670
 0.6190	 8.6010
 0.6200	 8.5430
 0.6210	 8.4950
 0.6220	 8.4570
 0.6230	 8.4240
 0.6240	 8.3980
 0.6250	 8.3790
 0.6260	 8.3570
 0.6270	 8.3430
 0.6280	 8.3370
 0.6290	 8.3300
 0.6300	 8.3230
 0.6310	 8.3120
 0.6320	 8.2980
 0.6330	 8.2820
 0.6340	 8.2520
 0.6350	 8.2130
 0.6360	 8.1680
 0.6370	 8.1110
 0.6380	 8.0380
 0.6390	 7.9580
 0.6400	 7.8790
 0.6410	 7.7880
 0.6420	 7.6900
 0.6430	 7.5880
 0.6440	 7.4800
 0.6450	 7.3770
 0.6460	 7.2820
 0.6470	 7.1930
 0.6480	 7.1110
 0.6490	 7.0400
 0.6500	 6.9800
 0.6510	 6.9290
 0.6520	 6.8850
 0.6530	 6.8470
 0.6540	 6.8090
 0.6550	 6.7670
 0.6560	 6.7190
 0.6570	 6.6650
 0.6580	 6.6050
 0.6590	 6.5400
 0.6600	 6.4720
 0.6610	 6.4020
 0.6620	 6.3320
 0.6630	 6.2660
 0.6640	 6.2030
 0.6650	 6.1420
 0.6660	 6.0900
 0.6670	 6.0480
 0.6680	 6.0140
 0.6690	 5.9830
 0.6700	 5.9630
 0.6710	 5.9520
 0.6720	 5.9490
 0.6730	 5.9500
 0.6740	 5.9600
 0.6750	 5.9770
 0.6760	 6.0000
 0.6770	 6.0210
 0.6780	 6.0530
 0.6790	 6.0960
 0.6800	 6.1430
 0.6810	 6.2010
 0.6820	 6.2720
 0.6830	 6.3580
 0.6840	 6.4620
 0.6850	 6.5860
 0.6860	 6.7370
 0.6870	 6.9220
 0.6880	 7.1550
 0.6890	 7.4400
 0.6900	 7.7870
 0.6910	 8.2050
 0.6920	 8.7000
 0.6930	 9.2710
 0.6940	 9.9160
 0.6950	10.6390
 0.6960	11.4340
 0.6970	12.2910
 0.6980	13.1990
 0.6990	14.1570
 0.7000	15.1550
 0.7010	16.1880
 0.7020	17.2480
 0.7030	18.3230
 0.7040	19.4110
 0.7050	20.5090
 0.7060	21.6100
 0.7070	22.7180
 0.7080	23.8270
 0.7090	24.9330
 0.7100	26.0500
 0.7110	27.1720
 0.7120	28.2930
 0.7130	29.4120
 0.7140	30.5420
 0.7150	31.6740
 0.7160	32.7970
 0.7170	33.9190
 0.7180	35.0430
 0.7190	36.1570
 0.7200	37.2550
 0.7210	38.3390
 0.7220	39.4170
 0.7230	40.4830
 0.7240	41.5160
 0.7250	42.5240
 0.7260	43.5070
 0.7270	44.4630
 0.7280	45.3910
 0.7290	46.2820
 0.7300	47.1330
 0.7310	47.9470
 0.7320	48.7300
 0.7330	49.4750
 0.7340	50.1820
 0.7350	50.8580
 0.7360	51.5000
 0.7370	52.1080
 0.7380	52.6800
 0.7390	53.2130
 0.7400	53.7090
 0.7410	54.1770
 0.7420	54.6250
 0.7430	55.0320
 0.7440	55.4140
 0.7450	55.7750
 0.7460	56.1040
 0.7470	56.4070
 0.7480	56.6800
 0.7490	56.9250
 0.7500	57.1570
 0.7510	57.3680
 0.7520	57.5600
 0.7530	57.7380
 0.7540	57.9060
 0.7550	58.0570
 0.7560	58.1910
 0.7570	58.3140
 0.7580	58.4300
 0.7590	58.5320
 0.7600	58.6220
 0.7610	58.7150
 0.7620	58.8030
 0.7630	58.8810
 0.7640	58.9450
 0.7650	58.9990
 0.7660	59.0560
 0.7670	59.1150
 0.7680	59.1650
 0.7690	59.2110
 0.7700	59.2540
 0.7710	59.2960
 0.7720	59.3420
 0.7730	59.3750
 0.7740	59.4070
 0.7750	59.4470
 0.7760	59.4790
 0.7770	59.5130
 0.7780	59.5490
 0.7790	59.5850
 0.7800	59.6150
 0.7810	59.6480
 0.7820	59.6830
 0.7830	59.7080
 0.7840	59.7360
 0.7850	59.7670
 0.7860	59.7990
 0.7870	59.8340
 0.7880	59.8630
 0.7890	59.8860
 0.7900	59.9080
 0.7910	59.9370
 0.7920	59.9680
 0.7930	59.9950
 0.7940	60.0180
 0.7950	60.0410
 0.7960	60.0610
 0.7970	60.0820
 0.7980	60.1070
 0.7990	60.1310
 0.8000	60.1540
 0.8010	60.1790
 0.8020	60.1980
 0.8030	60.2050
 0.8040	60.2140
 0.8050	60.2380
 0.8060	60.2600
 0.8070	60.2750
 0.8080	60.2860
 0.8090	60.3000
 0.8100	60.3150
 0.8110	60.3330
 0.8120	60.3500
 0.8130	60.3590
 0.8140	60.3640
 0.8150	60.3770
 0.8160	60.4000
 0.8170	60.4070
 0.8180	60.4150
 0.8190	60.4270
 0.8200	60.4360
 0.8210	60.4440
 0.8220	60.4570
 0.8230	60.4740
 0.8240	60.4880
 0.8250	60.4850
 0.8260	60.4850
 0.8270	60.5000
 0.8280	60.5140
 0.8290	60.5200
 0.8300	60.5240
 0.8310	60.5320
 0.8320	60.5390
 0.8330	60.5480
 0.8340	60.5580
 0.8350	60.5650
 0.8360	60.5710
 0.8370	60.5820
 0.8380	60.5980
 0.8390	60.6130
 0.8400	60.6220
 0.8410	60.6330
 0.8420	60.6490
 0.8430	60.6690
 0.8440	60.6880
 0.8450	60.7100
 0.8460	60.7320
 0.8470	60.7360
 0.8480	60.7410
 0.8490	60.7590
 0.8500	60.7890
 0.8510	60.8000
 0.8520	60.8150
 0.8530	60.8320
 0.8540	60.8380
 0.8550	60.8590
 0.8560	60.8800
 0.8570	60.8960
 0.8580	60.9070
 0.8590	60.9270
 0.8600	60.9480
 0.8610	60.9620
 0.8620	60.9770
 0.8630	60.9850
 0.8640	60.9890
 0.8650	60.9980
 0.8660	61.0200
 0.8670	61.0400
 0.8680	61.0510
 0.8690	61.0540
 0.8700	61.0690
 0.8710	61.0930
 0.8720	61.1150
 0.8730	61.1260
 0.8740	61.1350
 0.8750	61.1430
 0.8760	61.1510
 0.8770	61.1630
 0.8780	61.1820
 0.8790	61.1980
 0.8800	61.2090
 0.8810	61.2200
 0.8820	61.2290
 0.8830	61.2390
 0.8840	61.2510
 0.8850	61.2580
 0.8860	61.2650
 0.8870	61.2760
 0.8880	61.2910
 0.8890	61.2990
 0.8900	61.2950
 0.8910	61.2900
 0.8920	61.2960
 0.8930	61.3080
 0.8940	61.3140
 0.8950	61.3180
 0.8960	61.3290
 0.8970	61.3230
 0.8980	61.3220
 0.8990	61.3360
 0.9000	61.3510
 0.9010	61.3480
 0.9020	61.3360
 0.9030	61.3300
 0.9040	61.3420
 0.9050	61.3510
 0.9060	61.3630
 0.9070	61.3760
 0.9080	61.3610
 0.9090	61.3560
 0.9100	61.3640
 0.9110	61.3730
 0.9120	61.3630
 0.9130	61.3780
 0.9140	61.3910
 0.9150	61.3700
 0.9160	61.3650
 0.9170	61.3700
 0.9180	61.3740
 0.9190	61.3700
 0.9200	61.3660
 0.9210	61.3540
 0.9220	61.3440
 0.9230	61.3480
 0.9240	61.3470
 0.9250	61.3390
 0.9260	61.3250
 0.9270	61.3060
 0.9280	61.2860
 0.9290	61.2750
 0.9300	61.2720
 0.9310	61.2620
 0.9320	61.2290
 0.9330	61.1970
 0.9340	61.1780
 0.9350	61.1610
 0.9360	61.1430
 0.9370	61.1200
 0.9380	61.0880
 0.9390	61.0440
 0.9400	61.0070
 0.9410	60.9720
 0.9420	60.9330
 0.9430	60.8850
 0.9440	60.8390
 0.9450	60.7860
 0.9460	60.7190
 0.9470	60.6520
 0.9480	60.5730
 0.9490	60.4830
 0.9500	60.3860
 0.9510	60.2790
 0.9520	60.1780
 0.9530	60.0750
 0.9540	59.9660
 0.9550	59.8740
 0.9560	59.7560
 0.9570	59.6410
 0.9580	59.5560
 0.9590	59.4330
 0.9600	59.3510
 0.9610	59.2960
 0.9620	59.2280
 0.9630	59.1560
 0.9640	59.0920
 0.9650	59.0440
 0.9660	59.0130
 0.9670	58.9770
 0.9680	58.9440
 0.9690	58.9120
 0.9700	58.8820
 0.9710	58.8710
 0.9720	58.8370
 0.9730	58.7930
 0.9740	58.7740
 0.9750	58.7700
 0.9760	58.7570
 0.9770	58.7420
 0.9780	58.7410
 0.9790	58.7400
 0.9800	58.7410
 0.9810	58.7440
 0.9820	58.7510
 0.9830	58.7580
 0.9840	58.7770
 0.9850	58.7880
 0.9860	58.7800
 0.9870	58.8490
 0.9880	58.9070
 0.9890	58.9280
 0.9900	58.9360
 0.9910	58.9870
 0.9920	59.1100
 0.9930	59.2340
 0.9940	59.3570
 0.9950	59.4800
 0.9960	59.6040
 0.9970	59.7270
 0.9980	59.8510
 0.9990	59.9740
 1.0000	60.0970
 1.0010	60.2210
 1.0020	60.3440
 1.0030	60.4670
 1.0040	60.5910
 1.0050	60.7140
 1.0060	60.8380
 1.0070	60.9610
 1.0080	61.0840
 1.0090	61.2080
 1.0100	61.2080
 1.0110	61.2650
 1.0120	61.3210
 1.0130	61.3760
 1.0140	61.4300
 1.0150	61.4860
 1.0160	61.5360
 1.0170	61.5830
 1.0180	61.6370
 1.0190	61.6910
 1.0200	61.7440
 1.0210	61.7970
 1.0220	61.8510
 1.0230	61.9060
 1.0240	61.9620
 1.0250	62.0150
 1.0260	62.0700
 1.0270	62.1220
 1.0280	62.1710
 1.0290	62.2200
 1.0300	62.2670
 1.0310	62.3190
 1.0320	62.3740
 1.0330	62.4280
 1.0340	62.4800
 1.0350	62.5280
 1.0360	62.5730
 1.0370	62.6200
 1.0380	62.6670
 1.0390	62.7170
 1.0400	62.7630
 1.0410	62.8020
 1.0420	62.8480
 1.0430	62.8990
 1.0440	62.9430
 1.0450	62.9900
 1.0460	63.0320
 1.0470	63.0610
 1.0480	63.0970
 1.0490	63.1400
 1.0500	63.1770
 1.0510	63.2130
 1.0520	63.2500
 1.0530	63.2810
 1.0540	63.3030
 1.0550	63.3310
 1.0560	63.3600
 1.0570	63.3850
 1.0580	63.4090
 1.0590	63.4340
 1.0600	63.4530
 1.0610	63.4780
 1.0620	63.5100
 1.0630	63.5360
 1.0640	63.5610
 1.0650	63.5820
 1.0660	63.5980
 1.0670	63.6140
 1.0680	63.6290
 1.0690	63.6430
 1.0700	63.6550
 1.0710	63.6660
 1.0720	63.6790
 1.0730	63.6930
 1.0740	63.7030
 1.0750	63.7140
 1.0760	63.7200
 1.0770	63.7200
 1.0780	63.7250
 1.0790	63.7310
 1.0800	63.7350
 1.0810	63.7410
 1.0820	63.7430
 1.0830	63.7420
 1.0840	63.7400
 1.0850	63.7360
 1.0860	63.7320
 1.0870	63.7270
 1.0880	63.7220
 1.0890	63.7150
 1.0900	63.7080
 1.0910	63.6990
 1.0920	63.6910
 1.0930	63.6780
 1.0940	63.6610
 1.0950	63.6480
 1.0960	63.6330
 1.0970	63.6200
 1.0980	63.6130
 1.0990	63.6010
 1.1000	63.5870
 1.1010	63.5710
 1.1020	63.5510
 1.1030	63.5290
 1.1040	63.5080
 1.1050	63.4850
 1.1060	63.4640
 1.1070	63.4430
 1.1080	63.4210
 1.1090	63.4000
 1.1100	63.3750
 1.1110	63.3480
 1.1120	63.3190
 1.1130	63.2890
 1.1140	63.2560
 1.1150	63.2230
 1.1160	63.1860
 1.1170	63.1500
 1.1180	63.1050
 1.1190	63.0550
 1.1200	63.0040
 1.1210	62.9430
 1.1220	62.8720
 1.1230	62.7970
 1.1240	62.7130
 1.1250	62.6200
 1.1260	62.5250
 1.1270	62.4090
 1.1280	62.2810
 1.1290	62.1380
 1.1300	61.9790
 1.1310	61.8100
 1.1320	61.6310
 1.1330	61.4380
 1.1340	61.2310
 1.1350	61.0100
 1.1360	60.7750
 1.1370	60.5300
 1.1380	60.2760
 1.1390	60.0110
 1.1400	59.7390
 1.1410	59.4650
 1.1420	59.1830
 1.1430	58.8970
 1.1440	58.6140
 1.1450	58.3240
 1.1460	58.0480
 1.1470	57.7720
 1.1480	57.5090
 1.1490	57.2540
 1.1500	57.0130
 1.1510	56.7810
 1.1520	56.5600
 1.1530	56.3450
 1.1540	56.1470
 1.1550	55.9610
 1.1560	55.7890
 1.1570	55.6290
 1.1580	55.4840
 1.1590	55.3480
 1.1600	55.2190
 1.1610	55.1010
 1.1620	54.9930
 1.1630	54.8910
 1.1640	54.7970
 1.1650	54.7120
 1.1660	54.6370
 1.1670	54.5630
 1.1680	54.4970
 1.1690	54.4300
 1.1700	54.3650
 1.1710	54.3030
 1.1720	54.2460
 1.1730	54.1870
 1.1740	54.1300
 1.1750	54.0710
 1.1760	54.0110
 1.1770	53.9510
 1.1780	53.8900
 1.1790	53.8260
 1.1800	53.7630
 1.1810	53.6960
 1.1820	53.6270
 1.1830	53.5640
 1.1840	53.4990
 1.1850	53.4310
 1.1860	53.3700
 1.1870	53.3060
 1.1880	53.2460
 1.1890	53.1900
 1.1900	53.1370
 1.1910	53.0860
 1.1920	53.0370
 1.1930	52.9890
 1.1940	52.9450
 1.1950	52.9020
 1.1960	52.8650
 1.1970	52.8310
 1.1980	52.8040
 1.1990	52.7830
 1.2000	52.7720
 1.2010	52.7680
 1.2020	52.7710
 1.2030	52.7830
 1.2040	52.8020
 1.2050	52.8300
 1.2060	52.8690
 1.2070	52.9160
 1.2080	52.9670
 1.2090	53.0240
 1.2100	53.0880
 1.2110	53.1570
 1.2120	53.2290
 1.2130	53.3090
 1.2140	53.3960
 1.2150	53.4860
 1.2160	53.5830
 1.2170	53.6830
 1.2180	53.7840
 1.2190	53.8880
 1.2200	53.9940
 1.2210	54.1020
 1.2220	54.2140
 1.2230	54.3240
 1.2240	54.4320
 1.2250	54.5390
 1.2260	54.6420
 1.2270	54.7440
 1.2280	54.8430
 1.2290	54.9400
 1.2300	55.0350
 1.2310	55.1260
 1.2320	55.2140
 1.2330	55.2970
 1.2340	55.3800
 1.2350	55.4600
 1.2360	55.5370
 1.2370	55.6110
 1.2380	55.6840
 1.2390	55.7550
 1.2400	55.8210
 1.2410	55.8880
 1.2420	55.9510
 1.2430	56.0130
 1.2440	56.0740
 1.2450	56.1320
 1.2460	56.1870
 1.2470	56.2380
 1.2480	56.2850
 1.2490	56.3320
 1.2500	56.3780
 1.2510	56.4250
 1.2520	56.4700
 1.2530	56.5100
 1.2540	56.5490
 1.2550	56.5860
 1.2560	56.6190
 1.2570	56.6540
 1.2580	56.6880
 1.2590	56.7180
 1.2600	56.7460
 1.2610	56.7720
 1.2620	56.7950
 1.2630	56.8170
 1.2640	56.8400
 1.2650	56.8600
 1.2660	56.8800
 1.2670	56.8960
 1.2680	56.9080
 1.2690	56.9180
 1.2700	56.9280
 1.2710	56.9360
 1.2720	56.9410
 1.2730	56.9450
 1.2740	56.9440
 1.2750	56.9440
 1.2760	56.9430
 1.2770	56.9410
 1.2780	56.9350
 1.2790	56.9260
 1.2800	56.9160
 1.2810	56.9000
 1.2820	56.8820
 1.2830	56.8640
 1.2840	56.8390
 1.2850	56.8100
 1.2860	56.7790
 1.2870	56.7440
 1.2880	56.7050
 1.2890	56.6630
 1.2900	56.6160
 1.2910	56.5660
 1.2920	56.5090
 1.2930	56.4480
 1.2940	56.3830
 1.2950	56.3120
 1.2960	56.2360
 1.2970	56.1540
 1.2980	56.0690
 1.2990	55.9820
 1.3000	55.8920
 1.3010	55.7950
 1.3020	55.6890
 1.3030	55.5810
 1.3040	55.4680
 1.3050	55.3500
 1.3060	55.2310
 1.3070	55.1040
 1.3080	54.9720
 1.3090	54.8350
 1.3100	54.6930
 1.3110	54.5450
 1.3120	54.3910
 1.3130	54.2360
 1.3140	54.0730
 1.3150	53.9040
 1.3160	53.7310
 1.3170	53.5550
 1.3180	53.3720
 1.3190	53.1840
 1.3200	52.9960
 1.3210	52.8000
 1.3220	52.5970
 1.3230	52.3940
 1.3240	52.1850
 1.3250	51.9750
 1.3260	51.7620
 1.3270	51.5420
 1.3280	51.3220
 1.3290	51.1000
 1.3300	50.8770
 1.3310	50.6510
 1.3320	50.4230
 1.3330	50.1940
 1.3340	49.9660
 1.3350	49.7380
 1.3360	49.5110
 1.3370	49.2820
 1.3380	49.0530
 1.3390	48.8250
 1.3400	48.5980
 1.3410	48.3770
 1.3420	48.1570
 1.3430	47.9390
 1.3440	47.7260
 1.3450	47.5150
 1.3460	47.3070
 1.3470	47.1030
 1.3480	46.9020
 1.3490	46.7040
 1.3500	46.5110
 1.3510	46.3170
 1.3520	46.1250
 1.3530	45.9340
 1.3540	45.7420
 1.3550	45.5490
 1.3560	45.3570
 1.3570	45.1620
 1.3580	44.9690
 1.3590	44.7730
 1.3600	44.5740
 1.3610	44.3700
 1.3620	44.1580
 1.3630	43.9400
 1.3640	43.7140
 1.3650	43.4790
 1.3660	43.2390
 1.3670	42.9870
 1.3680	42.7230
 1.3690	42.4460
 1.3700	42.1510
 1.3710	41.8430
 1.3720	41.5190
 1.3730	41.1740
 1.3740	40.8160
 1.3750	40.4350
 1.3760	40.0320
 1.3770	39.6050
 1.3780	39.1470
 1.3790	38.6650
 1.3800	38.1620
 1.3810	37.6280
 1.3820	37.0790
 1.3830	36.5080
 1.3840	35.9200
 1.3850	35.3100
 1.3860	34.6900
 1.3870	34.0500
 1.3880	33.4100
 1.3890	32.7590
 1.3900	32.1020
 1.3910	31.4520
 1.3920	30.7990
 1.3930	30.1460
 1.3940	29.5020
 1.3950	28.8560
 1.3960	28.2230
 1.3970	27.6050
 1.3980	26.9980
 1.3990	26.4150
 1.4000	25.8490
 1.4010	25.2980
 1.4020	24.7700
 1.4030	24.2590
 1.4040	23.7680
 1.4050	23.3020
 1.4060	22.8550
 1.4070	22.4350
 1.4080	22.0370
 1.4090	21.6590
 1.4100	21.3050
 1.4110	20.9700
 1.4120	20.6540
 1.4130	20.3590
 1.4140	20.0800
 1.4150	19.8220
 1.4160	19.5820
 1.4170	19.3560
 1.4180	19.1460
 1.4190	18.9490
 1.4200	18.7650
 1.4210	18.5930
 1.4220	18.4340
 1.4230	18.2890
 1.4240	18.1530
 1.4250	18.0260
 1.4260	17.9100
 1.4270	17.8020
 1.4280	17.7030
 1.4290	17.6120
 1.4300	17.5300
 1.4310	17.4540
 1.4320	17.3870
 1.4330	17.3250
 1.4340	17.2700
 1.4350	17.2200
 1.4360	17.1770
 1.4370	17.1380
 1.4380	17.1050
 1.4390	17.0780
 1.4400	17.0560
 1.4410	17.0370
 1.4420	17.0220
 1.4430	17.0110
 1.4440	17.0030
 1.4450	16.9980
 1.4460	16.9960
 1.4470	16.9950
 1.4480	16.9970
 1.4490	17.0030
 1.4500	17.0110
 1.4510	17.0200
 1.4520	17.0310
 1.4530	17.0430
 1.4540	17.0570
 1.4550	17.0750
 1.4560	17.0950
 1.4570	17.1190
 1.4580	17.1460
 1.4590	17.1760
 1.4600	17.2100
 1.4610	17.2480
 1.4620	17.2890
 1.4630	17.3350
 1.4640	17.3860
 1.4650	17.4400
 1.4660	17.5000
 1.4670	17.5650
 1.4680	17.6340
 1.4690	17.7070
 1.4700	17.7850
 1.4710	17.8670
 1.4720	17.9520
 1.4730	18.0420
 1.4740	18.1350
 1.4750	18.2310
 1.4760	18.3310
 1.4770	18.4330
 1.4780	18.5390
 1.4790	18.6480
 1.4800	18.7580
 1.4810	18.8700
 1.4820	18.9850
 1.4830	19.1010
 1.4840	19.2190
 1.4850	19.3390
 1.4860	19.4590
 1.4870	19.5810
 1.4880	19.7030
 1.4890	19.8270
 1.4900	19.9520
 1.4910	20.0780
 1.4920	20.2050
 1.4930	20.3340
 1.4940	20.4620
 1.4950	20.5920
 1.4960	20.7220
 1.4970	20.8510
 1.4980	20.9820
 1.4990	21.1130
 1.5000	21.2440
 1.5010	21.3750
 1.5020	21.5060
 1.5030	21.6370
 1.5040	21.7680
 1.5050	21.8990
 1.5060	22.0300
 1.5070	22.1610
 1.5080	22.2910
 1.5090	22.4210
 1.5100	22.5490
 1.5110	22.6770
 1.5120	22.8050
 1.5130	22.9320
 1.5140	23.0590
 1.5150	23.1860
 1.5160	23.3110
 1.5170	23.4380
 1.5180	23.5630
 1.5190	23.6880
 1.5200	23.8130
 1.5210	23.9340
 1.5220	24.0550
 1.5230	24.1750
 1.5240	24.2920
 1.5250	24.4090
 1.5260	24.5260
 1.5270	24.6410
 1.5280	24.7550
 1.5290	24.8680
 1.5300	24.9800
 1.5310	25.0920
 1.5320	25.2020
 1.5330	25.3130
 1.5340	25.4230
 1.5350	25.5320
 1.5360	25.6400
 1.5370	25.7460
 1.5380	25.8500
 1.5390	25.9550
 1.5400	26.0570
 1.5410	26.1610
 1.5420	26.2640
 1.5430	26.3670
 1.5440	26.4710
 1.5450	26.5720
 1.5460	26.6720
 1.5470	26.7720
 1.5480	26.8690
 1.5490	26.9680
 1.5500	27.0670
 1.5510	27.1630
 1.5520	27.2600
 1.5530	27.3550
 1.5540	27.4490
 1.5550	27.5450
 1.5560	27.6380
 1.5570	27.7300
 1.5580	27.8230
 1.5590	27.9140
 1.5600	28.0060
 1.5610	28.0960
 1.5620	28.1850
 1.5630	28.2730
 1.5640	28.3600
 1.5650	28.4480
 1.5660	28.5360
 1.5670	28.6240
 1.5680	28.7130
 1.5690	28.7980
 1.5700	28.8830
 1.5710	28.9680
 1.5720	29.0510
 1.5730	29.1370
 1.5740	29.2210
 1.5750	29.3050
 1.5760	29.3890
 1.5770	29.4730
 1.5780	29.5570
 1.5790	29.6410
 1.5800	29.7240
 1.5810	29.8090
 1.5820	29.8930
 1.5830	29.9770
 1.5840	30.0630
 1.5850	30.1450
 1.5860	30.2280
 1.5870	30.3120
 1.5880	30.3930
 1.5890	30.4750
 1.5900	30.5580
 1.5910	30.6410
 1.5920	30.7260
 1.5930	30.8080
 1.5940	30.8920
 1.5950	30.9750
 1.5960	31.0560
 1.5970	31.1390
 1.5980	31.2220
 1.5990	31.3050
 1.6000	31.3890
 1.6010	31.4720
 1.6020	31.5540
 1.6030	31.6360
 1.6040	31.7170
 1.6050	31.8010
 1.6060	31.8830
 1.6070	31.9650
 1.6080	32.0470
 1.6090	32.1260
 1.6100	32.2040
 1.6110	32.2820
 1.6120	32.3590
 1.6130	32.4340
 1.6140	32.5090
 1.6150	32.5810
 1.6160	32.6530
 1.6170	32.7230
 1.6180	32.7910
 1.6190	32.8590
 1.6200	32.9250
 1.6210	32.9890
 1.6220	33.0530
 1.6230	33.1150
 1.6240	33.1740
 1.6250	33.2330
 1.6260	33.2910
 1.6270	33.3490
 1.6280	33.4060
 1.6290	33.4620
 1.6300	33.5170
 1.6310	33.5710
 1.6320	33.6250
 1.6330	33.6790
 1.6340	33.7350
 1.6350	33.7900
 1.6360	33.8440
 1.6370	33.8960
 1.6380	33.9450
 1.6390	33.9930
 1.6400	34.0400
 1.6410	34.0830
 1.6420	34.1220
 1.6430	34.1590
 1.6440	34.1930
 1.6450	34.2250
 1.6460	34.2530
 1.6470	34.2770
 1.6480	34.2980
 1.6490	34.3130
 1.6500	34.3270
 1.6510	34.3380
 1.6520	34.3460
 1.6530	34.3520
 1.6540	34.3530
 1.6550	34.3520
 1.6560	34.3490
 1.6570	34.3410
 1.6580	34.3350
 1.6590	34.3260
 1.6600	34.3130
 1.6610	34.2990
 1.6620	34.2820
 1.6630	34.2640
 1.6640	34.2460
 1.6650	34.2300
 1.6660	34.2130
 1.6670	34.1940
 1.6680	34.1750
 1.6690	34.1530
 1.6700	34.1300
 1.6710	34.1070
 1.6720	34.0790
 1.6730	34.0490
 1.6740	34.0170
 1.6750	33.9820
 1.6760	33.9450
 1.6770	33.9030
 1.6780	33.8550
 1.6790	33.8000
 1.6800	33.7410
 1.6810	33.6790
 1.6820	33.6090
 1.6830	33.5340
 1.6840	33.4510
 1.6850	33.3610
 1.6860	33.2680
 1.6870	33.1700
 1.6880	33.0650
 1.6890	32.9560
 1.6900	32.8430
 1.6910	32.7220
 1.6920	32.6020
 1.6930	32.4770
 1.6940	32.3540
 1.6950	32.2330
 1.6960	32.1110
 1.6970	31.9880
 1.6980	31.8670
 1.6990	31.7480
 1.7000	31.6290
 1.7010	31.5130
 1.7020	31.3930
 1.7030	31.2710
 1.7040	31.1490
 1.7050	31.0250
 1.7060	30.9030
 1.7070	30.7800
 1.7080	30.6620
 1.7090	30.5440
 1.7100	30.4330
 1.7110	30.3240
 1.7120	30.2260
 1.7130	30.1330
 1.7140	30.0510
 1.7150	29.9770
 1.7160	29.9100
 1.7170	29.8530
 1.7180	29.8000
 1.7190	29.7530
 1.7200	29.7120
 1.7210	29.6740
 1.7220	29.6380
 1.7230	29.6070
 1.7240	29.5800
 1.7250	29.5580
 1.7260	29.5420
 1.7270	29.5290
 1.7280	29.5200
 1.7290	29.5160
 1.7300	29.5130
 1.7310	29.5130
 1.7320	29.5200
 1.7330	29.5220
 1.7340	29.5250
 1.7350	29.5230
 1.7360	29.5190
 1.7370	29.5060
 1.7380	29.4900
 1.7390	29.4650
 1.7400	29.4320
 1.7410	29.3920
 1.7420	29.3420
 1.7430	29.2910
 1.7440	29.2330
 1.7450	29.1720
 1.7460	29.1060
 1.7470	29.0380
 1.7480	28.9640
 1.7490	28.8940
 1.7500	28.8230
 1.7510	28.7560
 1.7520	28.6900
 1.7530	28.6260
 1.7540	28.5620
 1.7550	28.5010
 1.7560	28.4430
 1.7570	28.3880
 1.7580	28.3400
 1.7590	28.2970
 1.7600	28.2570
 1.7610	28.2210
 1.7620	28.1870
 1.7630	28.1570
 1.7640	28.1290
 1.7650	28.1060
 1.7660	28.0820
 1.7670	28.0640
 1.7680	28.0420
 1.7690	28.0200
 1.7700	27.9960
 1.7710	27.9680
 1.7720	27.9450
 1.7730	27.9230
 1.7740	27.9020
 1.7750	27.8830
 1.7760	27.8670
 1.7770	27.8490
 1.7780	27.8400
 1.7790	27.8370
 1.7800	27.8370
 1.7810	27.8430
 1.7820	27.8520
 1.7830	27.8660
 1.7840	27.8810
 1.7850	27.9010
 1.7860	27.9240
 1.7870	27.9480
 1.7880	27.9750
 1.7890	28.0060
 1.7900	28.0320
 1.7910	28.0610
 1.7920	28.0920
 1.7930	28.1220
 1.7940	28.1510
 1.7950	28.1830
 1.7960	28.2160
 1.7970	28.2480
 1.7980	28.2840
 1.7990	28.3150
 1.8000	28.3400
 1.8010	28.3680
 1.8020	28.3940
 1.8030	28.4220
 1.8040	28.4520
 1.8050	28.4790
 1.8060	28.5060
 1.8070	28.5300
 1.8080	28.5510
 1.8090	28.5720
 1.8100	28.5910
 1.8110	28.6130
 1.8120	28.6340
 1.8130	28.6570
 1.8140	28.6790
 1.8150	28.6990
 1.8160	28.7150
 1.8170	28.7330
 1.8180	28.7480
 1.8190	28.7630
 1.8200	28.7770
 1.8210	28.7880
 1.8220	28.8000
 1.8230	28.8110
 1.8240	28.8200
 1.8250	28.8280
 1.8260	28.8340
 1.8270	28.8080
 1.8280	28.7810
 1.8290	28.7550
 1.8300	28.7280
 1.8310	28.7010
 1.8320	28.6750
 1.8330	28.6480
 1.8340	28.6210
 1.8350	28.6210
 1.8360	28.5950
 1.8370	28.5640
 1.8380	28.5250
 1.8390	28.4810
 1.8400	28.4320
 1.8410	28.3770
 1.8420	28.3150
 1.8430	28.2490
 1.8440	28.1740
 1.8450	28.0870
 1.8460	27.9940
 1.8470	27.8900
 1.8480	27.7760
 1.8490	27.6530
 1.8500	27.5190
 1.8510	27.3740
 1.8520	27.2170
 1.8530	27.0440
 1.8540	26.8650
 1.8550	26.6720
 1.8560	26.4630
 1.8570	26.2440
 1.8580	26.0030
 1.8590	25.7490
 1.8600	25.4760
 1.8610	25.1910
 1.8620	24.8860
 1.8630	24.5700
 1.8640	24.2360
 1.8650	23.8820
 1.8660	23.5130
 1.8670	23.1190
 1.8680	22.7040
 1.8690	22.2680
 1.8700	21.8140
 1.8710	21.3400
 1.8720	20.8580
 1.8730	20.3610
 1.8740	19.8500
 1.8750	19.3320
 1.8760	18.8000
 1.8770	18.2660
 1.8780	17.7310
 1.8790	17.1890
 1.8800	16.6520
 1.8810	16.1170
 1.8820	15.5820
 1.8830	15.0460
 1.8840	14.5190
 1.8850	13.9940
 1.8860	13.4740
 1.8870	12.9700
 1.8880	12.4740
 1.8890	11.9990
 1.8900	11.5420
 1.8910	11.1050
 1.8920	10.6820
 1.8930	10.2870
 1.8940	 9.9110
 1.8950	 9.5560
 1.8960	 9.2260
 1.8970	 8.9160
 1.8980	 8.6300
 1.8990	 8.3650
 1.9000	 8.1170
 1.9010	 7.8920
 1.9020	 7.6810
 1.9030	 7.4870
 1.9040	 7.3100
 1.9050	 7.1530
 1.9060	 7.0080
 1.9070	 6.8800
 1.9080	 6.7660
 1.9090	 6.6610
 1.9100	 6.5680
 1.9110	 6.4830
 1.9120	 6.4080
 1.9130	 6.3390
 1.9140	 6.2790
 1.9150	 6.2250
 1.9160	 6.1770
 1.9170	 6.1330
 1.9180	 6.0920
 1.9190	 6.0590
 1.9200	 6.0270
 1.9210	 5.9980
 1.9220	 5.9740
 1.9230	 5.9550
 1.9240	 5.9390
 1.9250	 5.9290
 1.9260	 5.9220
 1.9270	 5.9170
 1.9280	 5.9160
 1.9290	 5.9160
 1.9300	 5.9180
 1.9310	 5.9240
 1.9320	 5.9310
 1.9330	 5.9380
 1.9340	 5.9460
 1.9350	 5.9590
 1.9360	 5.9760
 1.9370	 5.9930
 1.9380	 6.0130
 1.9390	 6.0370
 1.9400	 6.0590
 1.9410	 6.0830
 1.9420	 6.1110
 1.9430	 6.1400
 1.9440	 6.1700
 1.9450	 6.2030
 1.9460	 6.2360
 1.9470	 6.2700
 1.9480	 6.3050
 1.9490	 6.3410
 1.9500	 6.3760
 1.9510	 6.4150
 1.9520	 6.4540
 1.9530	 6.4960
 1.9540	 6.5410
 1.9550	 6.5880
 1.9560	 6.6370
 1.9570	 6.6850
 1.9580	 6.7320
 1.9590	 6.7820
 1.9600	 6.8310
 1.9610	 6.8820
 1.9620	 6.9350
 1.9630	 6.9900
 1.9640	 7.0460
 1.9650	 7.1020
 1.9660	 7.1580
 1.9670	 7.2140
 1.9680	 7.2710
 1.9690	 7.3270
 1.9700	 7.3860
 1.9710	 7.4480
 1.9720	 7.5100
 1.9730	 7.5730
 1.9740	 7.6380
 1.9750	 7.7020
 1.9760	 7.7650
 1.9770	 7.8290
 1.9780	 7.8930
 1.9790	 7.9590
 1.9800	 8.0260
 1.9810	 8.0950
 1.9820	 8.1640
 1.9830	 8.2330
 1.9840	 8.3020
 1.9850	 8.3720
 1.9860	 8.4420
 1.9870	 8.5110
 1.9880	 8.5840
 1.9890	 8.6560
 1.9900	 8.7280
 1.9910	 8.8000
 1.9920	 8.8730
 1.9930	 8.9470
 1.9940	 9.0180
 1.9950	 9.0890
 1.9960	 9.1600
 1.9970	 9.2290
 1.9980	 9.3000
 1.9990	 9.3710
 2.0000	 9.4420
 2.0010	 9.5130
 2.0020	 9.5840
 2.0030	 9.6560
 2.0040	 9.7300
 2.0050	 9.8010
 2.0060	 9.8720
 2.0070	 9.9420
 2.0080	10.0120
 2.0090	10.0800
 2.0100	10.1460
 2.0110	10.2140
 2.0120	10.2820
 2.0130	10.3480
 2.0140	10.4150
 2.0150	10.4830
 2.0160	10.5490
 2.0170	10.6140
 2.0180	10.6780
 2.0190	10.7410
 2.0200	10.8030
 2.0210	10.8620
 2.0220	10.9210
 2.0230	10.9790
 2.0240	11.0370
 2.0250	11.0950
 2.0260	11.1500
 2.0270	11.2040
 2.0280	11.2590
 2.0290	11.3110
 2.0300	11.3620
 2.0310	11.4120
 2.0320	11.4600
 2.0330	11.5080
 2.0340	11.5540
 2.0350	11.6010
 2.0360	11.6500
 2.0370	11.6960
 2.0380	11.7390
 2.0390	11.7830
 2.0400	11.8240
 2.0410	11.8650
 2.0420	11.9060
 2.0430	11.9470
 2.0440	11.9850
 2.0450	12.0200
 2.0460	12.0550
 2.0470	12.0870
 2.0480	12.1210
 2.0490	12.1550
 2.0500	12.1900
 2.0510	12.2280
 2.0520	12.2620
 2.0530	12.2970
 2.0540	12.3300
 2.0550	12.3590
 2.0560	12.3890
 2.0570	12.4210
 2.0580	12.4520
 2.0590	12.4850
 2.0600	12.5190
 2.0610	12.5520
 2.0620	12.5840
 2.0630	12.6170
 2.0640	12.6500
 2.0650	12.6820
 2.0660	12.7120
 2.0670	12.7440
 2.0680	12.7740
 2.0690	12.8050
 2.0700	12.8380
 2.0710	12.8690
 2.0720	12.9010
 2.0730	12.9320
 2.0740	12.9640
 2.0750	12.9950
 2.0760	13.0260
 2.0770	13.0570
 2.0780	13.0900
 2.0790	13.1240
 2.0800	13.1580
 2.0810	13.1950
 2.0820	13.2270
 2.0830	13.2550
 2.0840	13.2850
 2.0850	13.3130
 2.0860	13.3440
 2.0870	13.3790
 2.0880	13.4140
 2.0890	13.4500
 2.0900	13.4870
 2.0910	13.5240
 2.0920	13.5620
 2.0930	13.5980
 2.0940	13.6330
 2.0950	13.6690
 2.0960	13.7020
 2.0970	13.7380
 2.0980	13.7760
 2.0990	13.8130
 2.1000	13.8520
 2.1010	13.8900
 2.1020	13.9250
 2.1030	13.9630
 2.1040	14.0010
 2.1050	14.0400
 2.1060	14.0790
 2.1070	14.1200
 2.1080	14.1600
 2.1090	14.2000
 2.1100	14.2390
 2.1110	14.2770
 2.1120	14.3170
 2.1130	14.3540
 2.1140	14.3930
 2.1150	14.4360
 2.1160	14.4760
 2.1170	14.5170
 2.1180	14.5560
 2.1190	14.5920
 2.1200	14.6300
 2.1210	14.6690
 2.1220	14.7060
 2.1230	14.7450
 2.1240	14.7850
 2.1250	14.8240
 2.1260	14.8620
 2.1270	14.8980
 2.1280	14.9330
 2.1290	14.9670
 2.1300	14.9970
 2.1310	15.0300
 2.1320	15.0630
 2.1330	15.0990
 2.1340	15.1360
 2.1350	15.1730
 2.1360	15.2130
 2.1370	15.2510
 2.1380	15.2850
 2.1390	15.3200
 2.1400	15.3550
 2.1410	15.3900
 2.1420	15.4270
 2.1430	15.4670
 2.1440	15.5050
 2.1450	15.5470
 2.1460	15.5810
 2.1470	15.6110
 2.1480	15.6420
 2.1490	15.6680
 2.1500	15.7000
 2.1510	15.7380
 2.1520	15.7730
 2.1530	15.8090
 2.1540	15.8440
 2.1550	15.8780
 2.1560	15.9120
 2.1570	15.9440
 2.1580	15.9780
 2.1590	16.0140
 2.1600	16.0480
 2.1610	16.0870
 2.1620	16.1270
 2.1630	16.1650
 2.1640	16.2020
 2.1650	16.2410
 2.1660	16.2780
 2.1670	16.3170
 2.1680	16.3580
 2.1690	16.3960
 2.1700	16.4340
 2.1710	16.4710
 2.1720	16.5040
 2.1730	16.5400
 2.1740	16.5780
 2.1750	16.6150
 2.1760	16.6530
 2.1770	16.6900
 2.1780	16.7240
 2.1790	16.7580
 2.1800	16.7940
 2.1810	16.8280
 2.1820	16.8580
 2.1830	16.8940
 2.1840	16.9300
 2.1850	16.9660
 2.1860	17.0030
 2.1870	17.0420
 2.1880	17.0760
 2.1890	17.1070
 2.1900	17.1390
 2.1910	17.1690
 2.1920	17.1980
 2.1930	17.2280
 2.1940	17.2540
 2.1950	17.2760
 2.1960	17.3000
 2.1970	17.3220
 2.1980	17.3460
 2.1990	17.3730
 2.2000	17.3970
 2.2010	17.4210
 2.2020	17.4430
 2.2030	17.4610
 2.2040	17.4790
 2.2050	17.4950
 2.2060	17.5120
 2.2070	17.5270
 2.2080	17.5420
 2.2090	17.5560
 2.2100	17.5690
 2.2110	17.5800
 2.2120	17.5910
 2.2130	17.5980
 2.2140	17.6000
 2.2150	17.6040
 2.2160	17.6090
 2.2170	17.6100
 2.2180	17.6100
 2.2190	17.6060
 2.2200	17.5980
 2.2210	17.5870
 2.2220	17.5700
 2.2230	17.5550
 2.2240	17.5370
 2.2250	17.5170
 2.2260	17.4990
 2.2270	17.4730
 2.2280	17.4400
 2.2290	17.4050
 2.2300	17.3640
 2.2310	17.3240
 2.2320	17.2860
 2.2330	17.2420
 2.2340	17.1940
 2.2350	17.1470
 2.2360	17.0900
 2.2370	17.0230
 2.2380	16.9580
 2.2390	16.8890
 2.2400	16.8170
 2.2410	16.7430
 2.2420	16.6670
 2.2430	16.5870
 2.2440	16.5050
 2.2450	16.4260
 2.2460	16.3390
 2.2470	16.2430
 2.2480	16.1500
 2.2490	16.0580
 2.2500	15.9590
 2.2510	15.8570
 2.2520	15.7520
 2.2530	15.6370
 2.2540	15.5260
 2.2550	15.4180
 2.2560	15.3060
 2.2570	15.1900
 2.2580	15.0740
 2.2590	14.9550
 2.2600	14.8370
 2.2610	14.7160
 2.2620	14.5980
 2.2630	14.4840
 2.2640	14.3700
 2.2650	14.2630
 2.2660	14.1620
 2.2670	14.0620
 2.2680	13.9640
 2.2690	13.8680
 2.2700	13.7760
 2.2710	13.6850
 2.2720	13.5960
 2.2730	13.5100
 2.2740	13.4260
 2.2750	13.3460
 2.2760	13.2690
 2.2770	13.1970
 2.2780	13.1310
 2.2790	13.0630
 2.2800	12.9970
 2.2810	12.9330
 2.2820	12.8680
 2.2830	12.8070
 2.2840	12.7510
 2.2850	12.6920
 2.2860	12.6330
 2.2870	12.5720
 2.2880	12.5110
 2.2890	12.4450
 2.2900	12.3730
 2.2910	12.3020
 2.2920	12.2270
 2.2930	12.1520
 2.2940	12.0770
 2.2950	12.0020
 2.2960	11.9240
 2.2970	11.8480
 2.2980	11.7750
 2.2990	11.6990
 2.3000	11.6250
 2.3010	11.5580
 2.3020	11.4950
 2.3030	11.4410
 2.3040	11.3920
 2.3050	11.3420
 2.3060	11.2990
 2.3070	11.2670
 2.3080	11.2340
 2.3090	11.2130
 2.3100	11.1980
 2.3110	11.1840
 2.3120	11.1830
 2.3130	11.1960
 2.3140	11.2040
 2.3150	11.2180
 2.3160	11.2320
 2.3170	11.2470
 2.3180	11.2580
 2.3190	11.2740
 2.3200	11.2790
 2.3210	11.2760
 2.3220	11.2710
 2.3230	11.2620
 2.3240	11.2490
 2.3250	11.2320
 2.3260	11.2130
 2.3270	11.1920
 2.3280	11.1660
 2.3290	11.1360
 2.3300	11.1020
 2.3310	11.0590
 2.3320	11.0240
 2.3330	10.9920
 2.3340	10.9570
 2.3350	10.9230
 2.3360	10.8900
 2.3370	10.8550
 2.3380	10.8210
 2.3390	10.7960
 2.3400	10.7590
 2.3410	10.7120
 2.3420	10.6700
 2.3430	10.6240
 2.3440	10.5830
 2.3450	10.5480
 2.3460	10.5150
 2.3470	10.4840
 2.3480	10.4540
 2.3490	10.4260
 2.3500	10.4000
 2.3510	10.3740
 2.3520	10.3520
 2.3530	10.3350
 2.3540	10.3170
 2.3550	10.3050
 2.3560	10.2950
 2.3570	10.2890
 2.3580	10.2890
 2.3590	10.2790
 2.3600	10.2590
 2.3610	10.2350
 2.3620	10.2040
 2.3630	10.1790
 2.3640	10.1620
 2.3650	10.1350
 2.3660	10.1060
 2.3670	10.0850
 2.3680	10.0560
 2.3690	10.0210
 2.3700	 9.9950
 2.3710	 9.9660
 2.3720	 9.9420
 2.3730	 9.9270
 2.3740	 9.9110
 2.3750	 9.8850
 2.3760	 9.8520
 2.3770	 9.8250
 2.3780	 9.8020
 2.3790	 9.7770
 2.3800	 9.7590
 2.3810	 9.7270
 2.3820	 9.6940
 2.3830	 9.6800
 2.3840	 9.6510
 2.3850	 9.6170
 2.3860	 9.5880
 2.3870	 9.5420
 2.3880	 9.5040
 2.3890	 9.4830
 2.3900	 9.4590
 2.3910	 9.4290
 2.3920	 9.4030
 2.3930	 9.3750
 2.3940	 9.3440
 2.3950	 9.3240
 2.3960	 9.2990
 2.3970	 9.2570
 2.3980	 9.2180
 2.3990	 9.1750
 2.4000	 9.1250
 2.4010	 9.0830
 2.4020	 9.0490
 2.4030	 9.0180
 2.4040	 8.9910
 2.4050	 8.9680
 2.4060	 8.9490
 2.4070	 8.9220
 2.4080	 8.8890
 2.4090	 8.8610
 2.4100	 8.8250
 2.4110	 8.7850
 2.4120	 8.7540
 2.4130	 8.7000
 2.4140	 8.6450
 2.4150	 8.6040
 2.4160	 8.5580
 2.4170	 8.5160
 2.4180	 8.4800
 2.4190	 8.4540
 2.4200	 8.4240
 2.4210	 8.4030
 2.4220	 8.3820
 2.4230	 8.3330
 2.4240	 8.2820
 2.4250	 8.2380
 2.4260	 8.1940
 2.4270	 8.1520
 2.4280	 8.1070
 2.4290	 8.0540
 2.4300	 7.9940
 2.4310	 7.9570
 2.4320	 7.9280
 2.4330	 7.8920
 2.4340	 7.8770
 2.4350	 7.8390
 2.4360	 7.7870
 2.4370	 7.7470
 2.4380	 7.6990
 2.4390	 7.6550
 2.4400	 7.6050
 2.4410	 7.5550
 2.4420	 7.5080
 2.4430	 7.4680
 2.4440	 7.4290
 2.4450	 7.3880
 2.4460	 7.3540
 2.4470	 7.3100
 2.4480	 7.2690
 2.4490	 7.2350
 2.4500	 7.1860
 2.4510	 7.1290
 2.4520	 7.0870
 2.4530	 7.0230
 2.4540	 6.9620
 2.4550	 6.9440
 2.4560	 6.9090
 2.4570	 6.8710
 2.4580	 6.8630
 2.4590	 6.8210
 2.4600	 6.7580
 2.4610	 6.7280
 2.4620	 6.6960
 2.4630	 6.6650
 2.4640	 6.6430
 2.4650	 6.6210
 2.4660	 6.6000
 2.4670	 6.5710
 2.4680	 6.5490
 2.4690	 6.5280
 2.4700	 6.4980
 2.4710	 6.4500
 2.4720	 6.4150
 2.4730	 6.3850
 2.4740	 6.3590
 2.4750	 6.3440
 2.4760	 6.3220
 2.4770	 6.2940
 2.4780	 6.2720
 2.4790	 6.2480
 2.4800	 6.2240
 2.4810	 6.2080
 2.4820	 6.1780
 2.4830	 6.1600
 2.4840	 6.1340
 2.4850	 6.1150
 2.4860	 6.1120
 2.4870	 6.1270
 2.4880	 6.1140
 2.4890	 6.0840
 2.4900	 6.0990
 2.4910	 6.0750
 2.4920	 6.0470
 2.4930	 6.0960
 2.4940	 6.1040
 2.4950	 6.0350
 2.4960	 5.9770
 2.4970	 5.9200
 2.4980	 5.8770
 2.4990	 5.9180
 2.5000	 5.9830
