Name: Quercus lobata 2
Type: vegetation
Class: Tree
Genus: Quercus
Species: lobata
Sample No.: VH184
Owner: UCSB
Wavelength Range: VSWIR
Origin: 34.7146; -120.0588; WGS84
Collection Date: 6/9/2013
Description: Samples were collected as part of the HyspIRI Airborne Campaign. 48 individual plants were sampled in three times in 2013 - spring  summer  and fall. The name of the sample includes a 1  2  or 3 which references a different individual of the species. Samples were taken to JPL and processed within 48 hours of collection. The same leaves were processed in the Nicolet and then measured using the ASD.
Measurement: Bidirectional reflectance
First Column: X
Second Column: Y
X Units: Wavelength (micrometers)
Y Units: Reflectance (percentage)
First X Value: 0.35
Last X Value: 2.5
Number of X Values: 2151
Additional Information: vegetation.tree.quercus.lobata.vswir.vh184.ucsb.asd.ancillary.txt

 0.3500	 3.8060
 0.3510	 3.9340
 0.3520	 3.8260
 0.3530	 3.7310
 0.3540	 3.8380
 0.3550	 3.8710
 0.3560	 3.7870
 0.3570	 3.6960
 0.3580	 3.7520
 0.3590	 3.8390
 0.3600	 3.9330
 0.3610	 3.9910
 0.3620	 3.9310
 0.3630	 3.7180
 0.3640	 3.6230
 0.3650	 3.8240
 0.3660	 3.9120
 0.3670	 3.8870
 0.3680	 3.8510
 0.3690	 3.9410
 0.3700	 3.9410
 0.3710	 3.8860
 0.3720	 3.8450
 0.3730	 3.9310
 0.3740	 3.9560
 0.3750	 3.9470
 0.3760	 3.9660
 0.3770	 3.9560
 0.3780	 3.9340
 0.3790	 3.9230
 0.3800	 3.9430
 0.3810	 3.9920
 0.3820	 3.9790
 0.3830	 3.9010
 0.3840	 4.0140
 0.3850	 4.1020
 0.3860	 4.1160
 0.3870	 4.0880
 0.3880	 4.1390
 0.3890	 4.2250
 0.3900	 4.2890
 0.3910	 4.2620
 0.3920	 4.2430
 0.3930	 4.2400
 0.3940	 4.2510
 0.3950	 4.2890
 0.3960	 4.3490
 0.3970	 4.4240
 0.3980	 4.5030
 0.3990	 4.5570
 0.4000	 4.5660
 0.4010	 4.5690
 0.4020	 4.6710
 0.4030	 4.7310
 0.4040	 4.7640
 0.4050	 4.8140
 0.4060	 4.8740
 0.4070	 4.9430
 0.4080	 5.0060
 0.4090	 5.0520
 0.4100	 5.1190
 0.4110	 5.2060
 0.4120	 5.2960
 0.4130	 5.3420
 0.4140	 5.3910
 0.4150	 5.4650
 0.4160	 5.5650
 0.4170	 5.6310
 0.4180	 5.6730
 0.4190	 5.7140
 0.4200	 5.7780
 0.4210	 5.8360
 0.4220	 5.8860
 0.4230	 5.9440
 0.4240	 6.0240
 0.4250	 6.0760
 0.4260	 6.1130
 0.4270	 6.1700
 0.4280	 6.2250
 0.4290	 6.2730
 0.4300	 6.3120
 0.4310	 6.3750
 0.4320	 6.3980
 0.4330	 6.4140
 0.4340	 6.4500
 0.4350	 6.4890
 0.4360	 6.5210
 0.4370	 6.5400
 0.4380	 6.5600
 0.4390	 6.5980
 0.4400	 6.6260
 0.4410	 6.6320
 0.4420	 6.6580
 0.4430	 6.6820
 0.4440	 6.7010
 0.4450	 6.7280
 0.4460	 6.7520
 0.4470	 6.7720
 0.4480	 6.7880
 0.4490	 6.8060
 0.4500	 6.8290
 0.4510	 6.8480
 0.4520	 6.8560
 0.4530	 6.8770
 0.4540	 6.8910
 0.4550	 6.8990
 0.4560	 6.9090
 0.4570	 6.9310
 0.4580	 6.9450
 0.4590	 6.9440
 0.4600	 6.9610
 0.4610	 6.9670
 0.4620	 6.9670
 0.4630	 6.9730
 0.4640	 6.9780
 0.4650	 6.9850
 0.4660	 6.9950
 0.4670	 7.0080
 0.4680	 7.0110
 0.4690	 7.0160
 0.4700	 7.0320
 0.4710	 7.0360
 0.4720	 7.0370
 0.4730	 7.0340
 0.4740	 7.0340
 0.4750	 7.0520
 0.4760	 7.0610
 0.4770	 7.0560
 0.4780	 7.0540
 0.4790	 7.0640
 0.4800	 7.0740
 0.4810	 7.0750
 0.4820	 7.0770
 0.4830	 7.0840
 0.4840	 7.0920
 0.4850	 7.1010
 0.4860	 7.1200
 0.4870	 7.1320
 0.4880	 7.1290
 0.4890	 7.1510
 0.4900	 7.1670
 0.4910	 7.1780
 0.4920	 7.1940
 0.4930	 7.2060
 0.4940	 7.2230
 0.4950	 7.2410
 0.4960	 7.2640
 0.4970	 7.2830
 0.4980	 7.3040
 0.4990	 7.3380
 0.5000	 7.3670
 0.5010	 7.3990
 0.5020	 7.4320
 0.5030	 7.4840
 0.5040	 7.5350
 0.5050	 7.5910
 0.5060	 7.6560
 0.5070	 7.7240
 0.5080	 7.7970
 0.5090	 7.8860
 0.5100	 7.9880
 0.5110	 8.1040
 0.5120	 8.2260
 0.5130	 8.3540
 0.5140	 8.5050
 0.5150	 8.6710
 0.5160	 8.8530
 0.5170	 9.0470
 0.5180	 9.2580
 0.5190	 9.4730
 0.5200	 9.6950
 0.5210	 9.9290
 0.5220	10.1640
 0.5230	10.4020
 0.5240	10.6420
 0.5250	10.8690
 0.5260	11.0980
 0.5270	11.3220
 0.5280	11.5270
 0.5290	11.7240
 0.5300	11.9070
 0.5310	12.0760
 0.5320	12.2380
 0.5330	12.3830
 0.5340	12.5120
 0.5350	12.6310
 0.5360	12.7460
 0.5370	12.8450
 0.5380	12.9350
 0.5390	13.0250
 0.5400	13.1090
 0.5410	13.1880
 0.5420	13.2670
 0.5430	13.3440
 0.5440	13.4120
 0.5450	13.4730
 0.5460	13.5300
 0.5470	13.5780
 0.5480	13.6210
 0.5490	13.6600
 0.5500	13.6950
 0.5510	13.7230
 0.5520	13.7350
 0.5530	13.7270
 0.5540	13.7090
 0.5550	13.6770
 0.5560	13.6320
 0.5570	13.5710
 0.5580	13.4980
 0.5590	13.4130
 0.5600	13.3190
 0.5610	13.2160
 0.5620	13.1060
 0.5630	12.9920
 0.5640	12.8700
 0.5650	12.7410
 0.5660	12.6070
 0.5670	12.4690
 0.5680	12.3210
 0.5690	12.1650
 0.5700	12.0080
 0.5710	11.8530
 0.5720	11.7040
 0.5730	11.5650
 0.5740	11.4370
 0.5750	11.3210
 0.5760	11.2140
 0.5770	11.1120
 0.5780	11.0170
 0.5790	10.9360
 0.5800	10.8580
 0.5810	10.7790
 0.5820	10.7010
 0.5830	10.6220
 0.5840	10.5450
 0.5850	10.4740
 0.5860	10.4060
 0.5870	10.3450
 0.5880	10.2920
 0.5890	10.2440
 0.5900	10.1980
 0.5910	10.1630
 0.5920	10.1390
 0.5930	10.1200
 0.5940	10.1050
 0.5950	10.0910
 0.5960	10.0750
 0.5970	10.0500
 0.5980	10.0230
 0.5990	 9.9970
 0.6000	 9.9660
 0.6010	 9.9320
 0.6020	 9.8930
 0.6030	 9.8520
 0.6040	 9.8060
 0.6050	 9.7520
 0.6060	 9.6930
 0.6070	 9.6310
 0.6080	 9.5630
 0.6090	 9.4970
 0.6100	 9.4320
 0.6110	 9.3710
 0.6120	 9.3020
 0.6130	 9.2280
 0.6140	 9.1540
 0.6150	 9.0890
 0.6160	 9.0270
 0.6170	 8.9700
 0.6180	 8.9170
 0.6190	 8.8710
 0.6200	 8.8340
 0.6210	 8.8020
 0.6220	 8.7670
 0.6230	 8.7390
 0.6240	 8.7190
 0.6250	 8.6990
 0.6260	 8.6840
 0.6270	 8.6710
 0.6280	 8.6640
 0.6290	 8.6610
 0.6300	 8.6520
 0.6310	 8.6440
 0.6320	 8.6420
 0.6330	 8.6300
 0.6340	 8.6140
 0.6350	 8.5960
 0.6360	 8.5740
 0.6370	 8.5440
 0.6380	 8.5110
 0.6390	 8.4720
 0.6400	 8.4240
 0.6410	 8.3770
 0.6420	 8.3260
 0.6430	 8.2710
 0.6440	 8.2120
 0.6450	 8.1590
 0.6460	 8.1080
 0.6470	 8.0570
 0.6480	 8.0120
 0.6490	 7.9700
 0.6500	 7.9330
 0.6510	 7.8990
 0.6520	 7.8680
 0.6530	 7.8400
 0.6540	 7.8090
 0.6550	 7.7780
 0.6560	 7.7460
 0.6570	 7.7140
 0.6580	 7.6800
 0.6590	 7.6450
 0.6600	 7.6110
 0.6610	 7.5790
 0.6620	 7.5450
 0.6630	 7.5240
 0.6640	 7.5080
 0.6650	 7.4910
 0.6660	 7.4780
 0.6670	 7.4660
 0.6680	 7.4620
 0.6690	 7.4630
 0.6700	 7.4630
 0.6710	 7.4660
 0.6720	 7.4740
 0.6730	 7.4820
 0.6740	 7.4960
 0.6750	 7.5110
 0.6760	 7.5260
 0.6770	 7.5470
 0.6780	 7.5680
 0.6790	 7.5940
 0.6800	 7.6170
 0.6810	 7.6450
 0.6820	 7.6790
 0.6830	 7.7140
 0.6840	 7.7580
 0.6850	 7.8050
 0.6860	 7.8630
 0.6870	 7.9370
 0.6880	 8.0340
 0.6890	 8.1610
 0.6900	 8.3210
 0.6910	 8.5280
 0.6920	 8.7880
 0.6930	 9.1100
 0.6940	 9.5040
 0.6950	 9.9730
 0.6960	10.5200
 0.6970	11.1400
 0.6980	11.8260
 0.6990	12.5800
 0.7000	13.3900
 0.7010	14.2480
 0.7020	15.1420
 0.7030	16.0580
 0.7040	16.9930
 0.7050	17.9410
 0.7060	18.8880
 0.7070	19.8350
 0.7080	20.7760
 0.7090	21.7060
 0.7100	22.6290
 0.7110	23.5390
 0.7120	24.4350
 0.7130	25.3190
 0.7140	26.1850
 0.7150	27.0320
 0.7160	27.8610
 0.7170	28.6780
 0.7180	29.4720
 0.7190	30.2440
 0.7200	30.9950
 0.7210	31.7190
 0.7220	32.4240
 0.7230	33.1080
 0.7240	33.7640
 0.7250	34.3890
 0.7260	34.9890
 0.7270	35.5670
 0.7280	36.1190
 0.7290	36.6410
 0.7300	37.1380
 0.7310	37.6160
 0.7320	38.0610
 0.7330	38.4820
 0.7340	38.8830
 0.7350	39.2630
 0.7360	39.6200
 0.7370	39.9520
 0.7380	40.2630
 0.7390	40.5560
 0.7400	40.8360
 0.7410	41.0960
 0.7420	41.3290
 0.7430	41.5520
 0.7440	41.7600
 0.7450	41.9550
 0.7460	42.1420
 0.7470	42.3070
 0.7480	42.4560
 0.7490	42.5960
 0.7500	42.7310
 0.7510	42.8500
 0.7520	42.9560
 0.7530	43.0560
 0.7540	43.1480
 0.7550	43.2390
 0.7560	43.3220
 0.7570	43.3840
 0.7580	43.4510
 0.7590	43.5120
 0.7600	43.5620
 0.7610	43.6110
 0.7620	43.6560
 0.7630	43.6980
 0.7640	43.7400
 0.7650	43.7830
 0.7660	43.8180
 0.7670	43.8480
 0.7680	43.8820
 0.7690	43.9020
 0.7700	43.9270
 0.7710	43.9600
 0.7720	43.9780
 0.7730	43.9950
 0.7740	44.0150
 0.7750	44.0370
 0.7760	44.0540
 0.7770	44.0770
 0.7780	44.0990
 0.7790	44.1090
 0.7800	44.1220
 0.7810	44.1450
 0.7820	44.1700
 0.7830	44.1750
 0.7840	44.1890
 0.7850	44.2090
 0.7860	44.2290
 0.7870	44.2390
 0.7880	44.2530
 0.7890	44.2680
 0.7900	44.2750
 0.7910	44.2880
 0.7920	44.2950
 0.7930	44.3020
 0.7940	44.3230
 0.7950	44.3320
 0.7960	44.3340
 0.7970	44.3400
 0.7980	44.3530
 0.7990	44.3630
 0.8000	44.3680
 0.8010	44.3710
 0.8020	44.3790
 0.8030	44.3830
 0.8040	44.3840
 0.8050	44.3830
 0.8060	44.3830
 0.8070	44.3830
 0.8080	44.3850
 0.8090	44.3910
 0.8100	44.3800
 0.8110	44.3730
 0.8120	44.3810
 0.8130	44.3900
 0.8140	44.3850
 0.8150	44.3770
 0.8160	44.3760
 0.8170	44.3770
 0.8180	44.3670
 0.8190	44.3560
 0.8200	44.3600
 0.8210	44.3590
 0.8220	44.3510
 0.8230	44.3420
 0.8240	44.3380
 0.8250	44.3320
 0.8260	44.3240
 0.8270	44.3180
 0.8280	44.3140
 0.8290	44.3080
 0.8300	44.3040
 0.8310	44.2990
 0.8320	44.2870
 0.8330	44.2830
 0.8340	44.2840
 0.8350	44.2780
 0.8360	44.2650
 0.8370	44.2590
 0.8380	44.2640
 0.8390	44.2730
 0.8400	44.2650
 0.8410	44.2590
 0.8420	44.2640
 0.8430	44.2600
 0.8440	44.2610
 0.8450	44.2640
 0.8460	44.2640
 0.8470	44.2580
 0.8480	44.2590
 0.8490	44.2640
 0.8500	44.2670
 0.8510	44.2780
 0.8520	44.2790
 0.8530	44.2710
 0.8540	44.2700
 0.8550	44.2690
 0.8560	44.2720
 0.8570	44.2780
 0.8580	44.2820
 0.8590	44.2970
 0.8600	44.3020
 0.8610	44.2910
 0.8620	44.2950
 0.8630	44.2940
 0.8640	44.2980
 0.8650	44.3130
 0.8660	44.3180
 0.8670	44.3250
 0.8680	44.3320
 0.8690	44.3350
 0.8700	44.3410
 0.8710	44.3390
 0.8720	44.3360
 0.8730	44.3440
 0.8740	44.3630
 0.8750	44.3730
 0.8760	44.3730
 0.8770	44.3860
 0.8780	44.3890
 0.8790	44.3950
 0.8800	44.4050
 0.8810	44.4010
 0.8820	44.4050
 0.8830	44.4210
 0.8840	44.4400
 0.8850	44.4380
 0.8860	44.4370
 0.8870	44.4440
 0.8880	44.4550
 0.8890	44.4550
 0.8900	44.4680
 0.8910	44.4810
 0.8920	44.4780
 0.8930	44.4810
 0.8940	44.4890
 0.8950	44.5000
 0.8960	44.5070
 0.8970	44.5090
 0.8980	44.5130
 0.8990	44.5200
 0.9000	44.5290
 0.9010	44.5350
 0.9020	44.5400
 0.9030	44.5450
 0.9040	44.5610
 0.9050	44.5630
 0.9060	44.5660
 0.9070	44.5780
 0.9080	44.5850
 0.9090	44.5840
 0.9100	44.5870
 0.9110	44.5960
 0.9120	44.5910
 0.9130	44.5980
 0.9140	44.6090
 0.9150	44.6120
 0.9160	44.6240
 0.9170	44.6370
 0.9180	44.6430
 0.9190	44.6350
 0.9200	44.6390
 0.9210	44.6340
 0.9220	44.6280
 0.9230	44.6390
 0.9240	44.6420
 0.9250	44.6400
 0.9260	44.6300
 0.9270	44.6120
 0.9280	44.6150
 0.9290	44.6110
 0.9300	44.6000
 0.9310	44.6110
 0.9320	44.5980
 0.9330	44.5800
 0.9340	44.5710
 0.9350	44.5560
 0.9360	44.5340
 0.9370	44.5140
 0.9380	44.5000
 0.9390	44.4880
 0.9400	44.4720
 0.9410	44.4560
 0.9420	44.4420
 0.9430	44.4320
 0.9440	44.4110
 0.9450	44.3880
 0.9460	44.3620
 0.9470	44.3100
 0.9480	44.2830
 0.9490	44.2640
 0.9500	44.2300
 0.9510	44.1970
 0.9520	44.1580
 0.9530	44.1100
 0.9540	44.0560
 0.9550	44.0210
 0.9560	43.9820
 0.9570	43.9440
 0.9580	43.9140
 0.9590	43.8620
 0.9600	43.8140
 0.9610	43.7830
 0.9620	43.7660
 0.9630	43.7270
 0.9640	43.6970
 0.9650	43.6760
 0.9660	43.6610
 0.9670	43.6610
 0.9680	43.6470
 0.9690	43.6290
 0.9700	43.6280
 0.9710	43.6130
 0.9720	43.5950
 0.9730	43.5770
 0.9740	43.5620
 0.9750	43.5650
 0.9760	43.5620
 0.9770	43.5580
 0.9780	43.5640
 0.9790	43.5560
 0.9800	43.5480
 0.9810	43.5500
 0.9820	43.5630
 0.9830	43.5670
 0.9840	43.5870
 0.9850	43.6050
 0.9860	43.5910
 0.9870	43.5910
 0.9880	43.5980
 0.9890	43.6060
 0.9900	43.6150
 0.9910	43.6480
 0.9920	43.6510
 0.9930	43.6400
 0.9940	43.6540
 0.9950	43.6670
 0.9960	43.6730
 0.9970	43.6840
 0.9980	43.7110
 0.9990	43.7220
 1.0000	43.9840
 1.0010	44.5160
 1.0020	44.7910
 1.0030	44.8030
 1.0040	44.8150
 1.0050	44.8270
 1.0060	44.8410
 1.0070	44.8570
 1.0080	44.8720
 1.0090	44.8880
 1.0100	44.9000
 1.0110	44.9100
 1.0120	44.9240
 1.0130	44.9400
 1.0140	44.9520
 1.0150	44.9630
 1.0160	44.9770
 1.0170	44.9840
 1.0180	44.9890
 1.0190	45.0030
 1.0200	45.0130
 1.0210	45.0180
 1.0220	45.0290
 1.0230	45.0410
 1.0240	45.0510
 1.0250	45.0640
 1.0260	45.0810
 1.0270	45.0950
 1.0280	45.1090
 1.0290	45.1200
 1.0300	45.1280
 1.0310	45.1380
 1.0320	45.1470
 1.0330	45.1580
 1.0340	45.1720
 1.0350	45.1840
 1.0360	45.1920
 1.0370	45.1970
 1.0380	45.2050
 1.0390	45.2130
 1.0400	45.2210
 1.0410	45.2330
 1.0420	45.2420
 1.0430	45.2500
 1.0440	45.2580
 1.0450	45.2640
 1.0460	45.2740
 1.0470	45.2850
 1.0480	45.2940
 1.0490	45.3050
 1.0500	45.3120
 1.0510	45.3170
 1.0520	45.3180
 1.0530	45.3220
 1.0540	45.3220
 1.0550	45.3280
 1.0560	45.3370
 1.0570	45.3430
 1.0580	45.3500
 1.0590	45.3550
 1.0600	45.3560
 1.0610	45.3580
 1.0620	45.3610
 1.0630	45.3620
 1.0640	45.3600
 1.0650	45.3590
 1.0660	45.3580
 1.0670	45.3560
 1.0680	45.3550
 1.0690	45.3550
 1.0700	45.3530
 1.0710	45.3500
 1.0720	45.3470
 1.0730	45.3440
 1.0740	45.3410
 1.0750	45.3400
 1.0760	45.3370
 1.0770	45.3350
 1.0780	45.3330
 1.0790	45.3300
 1.0800	45.3260
 1.0810	45.3200
 1.0820	45.3160
 1.0830	45.3160
 1.0840	45.3120
 1.0850	45.3080
 1.0860	45.3030
 1.0870	45.2980
 1.0880	45.2880
 1.0890	45.2820
 1.0900	45.2780
 1.0910	45.2710
 1.0920	45.2630
 1.0930	45.2550
 1.0940	45.2450
 1.0950	45.2360
 1.0960	45.2280
 1.0970	45.2200
 1.0980	45.2130
 1.0990	45.2060
 1.1000	45.1990
 1.1010	45.1910
 1.1020	45.1820
 1.1030	45.1740
 1.1040	45.1650
 1.1050	45.1550
 1.1060	45.1480
 1.1070	45.1440
 1.1080	45.1350
 1.1090	45.1280
 1.1100	45.1160
 1.1110	45.0990
 1.1120	45.0850
 1.1130	45.0690
 1.1140	45.0560
 1.1150	45.0460
 1.1160	45.0330
 1.1170	45.0220
 1.1180	45.0060
 1.1190	44.9860
 1.1200	44.9650
 1.1210	44.9460
 1.1220	44.9240
 1.1230	44.9010
 1.1240	44.8780
 1.1250	44.8480
 1.1260	44.8130
 1.1270	44.7730
 1.1280	44.7310
 1.1290	44.6840
 1.1300	44.6340
 1.1310	44.5790
 1.1320	44.5230
 1.1330	44.4610
 1.1340	44.3960
 1.1350	44.3250
 1.1360	44.2480
 1.1370	44.1660
 1.1380	44.0790
 1.1390	43.9890
 1.1400	43.8940
 1.1410	43.7980
 1.1420	43.7000
 1.1430	43.5980
 1.1440	43.4970
 1.1450	43.3930
 1.1460	43.2920
 1.1470	43.1890
 1.1480	43.0920
 1.1490	42.9960
 1.1500	42.9060
 1.1510	42.8150
 1.1520	42.7350
 1.1530	42.6590
 1.1540	42.5900
 1.1550	42.5280
 1.1560	42.4740
 1.1570	42.4240
 1.1580	42.3800
 1.1590	42.3420
 1.1600	42.3050
 1.1610	42.2720
 1.1620	42.2450
 1.1630	42.2240
 1.1640	42.2080
 1.1650	42.1930
 1.1660	42.1840
 1.1670	42.1730
 1.1680	42.1650
 1.1690	42.1560
 1.1700	42.1490
 1.1710	42.1430
 1.1720	42.1350
 1.1730	42.1290
 1.1740	42.1250
 1.1750	42.1200
 1.1760	42.1130
 1.1770	42.1070
 1.1780	42.1000
 1.1790	42.0910
 1.1800	42.0800
 1.1810	42.0710
 1.1820	42.0610
 1.1830	42.0500
 1.1840	42.0430
 1.1850	42.0360
 1.1860	42.0260
 1.1870	42.0180
 1.1880	42.0090
 1.1890	41.9990
 1.1900	41.9910
 1.1910	41.9860
 1.1920	41.9820
 1.1930	41.9800
 1.1940	41.9780
 1.1950	41.9780
 1.1960	41.9790
 1.1970	41.9810
 1.1980	41.9830
 1.1990	41.9860
 1.2000	41.9910
 1.2010	41.9950
 1.2020	42.0010
 1.2030	42.0080
 1.2040	42.0140
 1.2050	42.0220
 1.2060	42.0290
 1.2070	42.0390
 1.2080	42.0500
 1.2090	42.0600
 1.2100	42.0730
 1.2110	42.0850
 1.2120	42.0960
 1.2130	42.1100
 1.2140	42.1260
 1.2150	42.1430
 1.2160	42.1610
 1.2170	42.1790
 1.2180	42.1970
 1.2190	42.2160
 1.2200	42.2330
 1.2210	42.2510
 1.2220	42.2700
 1.2230	42.2860
 1.2240	42.3040
 1.2250	42.3220
 1.2260	42.3400
 1.2270	42.3560
 1.2280	42.3710
 1.2290	42.3880
 1.2300	42.4030
 1.2310	42.4170
 1.2320	42.4320
 1.2330	42.4460
 1.2340	42.4590
 1.2350	42.4730
 1.2360	42.4870
 1.2370	42.4990
 1.2380	42.5110
 1.2390	42.5230
 1.2400	42.5340
 1.2410	42.5470
 1.2420	42.5620
 1.2430	42.5740
 1.2440	42.5850
 1.2450	42.5950
 1.2460	42.6040
 1.2470	42.6120
 1.2480	42.6210
 1.2490	42.6300
 1.2500	42.6370
 1.2510	42.6430
 1.2520	42.6480
 1.2530	42.6500
 1.2540	42.6540
 1.2550	42.6610
 1.2560	42.6680
 1.2570	42.6740
 1.2580	42.6770
 1.2590	42.6780
 1.2600	42.6770
 1.2610	42.6770
 1.2620	42.6760
 1.2630	42.6740
 1.2640	42.6730
 1.2650	42.6710
 1.2660	42.6680
 1.2670	42.6660
 1.2680	42.6620
 1.2690	42.6580
 1.2700	42.6550
 1.2710	42.6500
 1.2720	42.6460
 1.2730	42.6410
 1.2740	42.6310
 1.2750	42.6220
 1.2760	42.6130
 1.2770	42.6010
 1.2780	42.5920
 1.2790	42.5830
 1.2800	42.5720
 1.2810	42.5610
 1.2820	42.5490
 1.2830	42.5340
 1.2840	42.5150
 1.2850	42.4980
 1.2860	42.4780
 1.2870	42.4560
 1.2880	42.4330
 1.2890	42.4110
 1.2900	42.3860
 1.2910	42.3580
 1.2920	42.3310
 1.2930	42.3000
 1.2940	42.2670
 1.2950	42.2340
 1.2960	42.1990
 1.2970	42.1630
 1.2980	42.1270
 1.2990	42.0890
 1.3000	42.0470
 1.3010	42.0040
 1.3020	41.9580
 1.3030	41.9110
 1.3040	41.8630
 1.3050	41.8150
 1.3060	41.7630
 1.3070	41.7080
 1.3080	41.6490
 1.3090	41.5870
 1.3100	41.5240
 1.3110	41.4610
 1.3120	41.3950
 1.3130	41.3250
 1.3140	41.2550
 1.3150	41.1820
 1.3160	41.1070
 1.3170	41.0320
 1.3180	40.9540
 1.3190	40.8710
 1.3200	40.7870
 1.3210	40.7000
 1.3220	40.6130
 1.3230	40.5230
 1.3240	40.4290
 1.3250	40.3360
 1.3260	40.2390
 1.3270	40.1420
 1.3280	40.0460
 1.3290	39.9450
 1.3300	39.8430
 1.3310	39.7390
 1.3320	39.6330
 1.3330	39.5240
 1.3340	39.4140
 1.3350	39.3020
 1.3360	39.1900
 1.3370	39.0790
 1.3380	38.9690
 1.3390	38.8560
 1.3400	38.7430
 1.3410	38.6330
 1.3420	38.5230
 1.3430	38.4130
 1.3440	38.3060
 1.3450	38.1960
 1.3460	38.0830
 1.3470	37.9760
 1.3480	37.8710
 1.3490	37.7660
 1.3500	37.6640
 1.3510	37.5620
 1.3520	37.4570
 1.3530	37.3540
 1.3540	37.2500
 1.3550	37.1460
 1.3560	37.0400
 1.3570	36.9340
 1.3580	36.8260
 1.3590	36.7160
 1.3600	36.6030
 1.3610	36.4880
 1.3620	36.3690
 1.3630	36.2440
 1.3640	36.1150
 1.3650	35.9790
 1.3660	35.8370
 1.3670	35.6890
 1.3680	35.5320
 1.3690	35.3660
 1.3700	35.1870
 1.3710	34.9980
 1.3720	34.7960
 1.3730	34.5790
 1.3740	34.3500
 1.3750	34.1050
 1.3760	33.8410
 1.3770	33.5590
 1.3780	33.2520
 1.3790	32.9260
 1.3800	32.5800
 1.3810	32.2100
 1.3820	31.8260
 1.3830	31.4260
 1.3840	31.0060
 1.3850	30.5680
 1.3860	30.1150
 1.3870	29.6400
 1.3880	29.1600
 1.3890	28.6660
 1.3900	28.1620
 1.3910	27.6560
 1.3920	27.1420
 1.3930	26.6220
 1.3940	26.1020
 1.3950	25.5780
 1.3960	25.0590
 1.3970	24.5480
 1.3980	24.0450
 1.3990	23.5590
 1.4000	23.0850
 1.4010	22.6210
 1.4020	22.1770
 1.4030	21.7480
 1.4040	21.3360
 1.4050	20.9460
 1.4060	20.5750
 1.4070	20.2270
 1.4080	19.8980
 1.4090	19.5890
 1.4100	19.3000
 1.4110	19.0290
 1.4120	18.7780
 1.4130	18.5480
 1.4140	18.3350
 1.4150	18.1420
 1.4160	17.9650
 1.4170	17.8020
 1.4180	17.6540
 1.4190	17.5190
 1.4200	17.3970
 1.4210	17.2870
 1.4220	17.1900
 1.4230	17.1030
 1.4240	17.0250
 1.4250	16.9560
 1.4260	16.8980
 1.4270	16.8450
 1.4280	16.8000
 1.4290	16.7600
 1.4300	16.7260
 1.4310	16.6980
 1.4320	16.6770
 1.4330	16.6590
 1.4340	16.6470
 1.4350	16.6380
 1.4360	16.6340
 1.4370	16.6330
 1.4380	16.6360
 1.4390	16.6430
 1.4400	16.6520
 1.4410	16.6610
 1.4420	16.6730
 1.4430	16.6870
 1.4440	16.7030
 1.4450	16.7210
 1.4460	16.7400
 1.4470	16.7600
 1.4480	16.7800
 1.4490	16.8010
 1.4500	16.8230
 1.4510	16.8460
 1.4520	16.8710
 1.4530	16.8970
 1.4540	16.9230
 1.4550	16.9530
 1.4560	16.9820
 1.4570	17.0130
 1.4580	17.0480
 1.4590	17.0850
 1.4600	17.1260
 1.4610	17.1710
 1.4620	17.2190
 1.4630	17.2710
 1.4640	17.3270
 1.4650	17.3880
 1.4660	17.4540
 1.4670	17.5240
 1.4680	17.5990
 1.4690	17.6780
 1.4700	17.7610
 1.4710	17.8490
 1.4720	17.9410
 1.4730	18.0360
 1.4740	18.1350
 1.4750	18.2370
 1.4760	18.3420
 1.4770	18.4470
 1.4780	18.5540
 1.4790	18.6640
 1.4800	18.7740
 1.4810	18.8880
 1.4820	19.0030
 1.4830	19.1170
 1.4840	19.2340
 1.4850	19.3510
 1.4860	19.4670
 1.4870	19.5860
 1.4880	19.7030
 1.4890	19.8190
 1.4900	19.9370
 1.4910	20.0550
 1.4920	20.1740
 1.4930	20.2950
 1.4940	20.4140
 1.4950	20.5340
 1.4960	20.6530
 1.4970	20.7700
 1.4980	20.8880
 1.4990	21.0070
 1.5000	21.1250
 1.5010	21.2440
 1.5020	21.3610
 1.5030	21.4770
 1.5040	21.5920
 1.5050	21.7050
 1.5060	21.8200
 1.5070	21.9370
 1.5080	22.0510
 1.5090	22.1650
 1.5100	22.2780
 1.5110	22.3900
 1.5120	22.5020
 1.5130	22.6130
 1.5140	22.7230
 1.5150	22.8330
 1.5160	22.9400
 1.5170	23.0470
 1.5180	23.1530
 1.5190	23.2570
 1.5200	23.3610
 1.5210	23.4650
 1.5220	23.5690
 1.5230	23.6710
 1.5240	23.7720
 1.5250	23.8740
 1.5260	23.9730
 1.5270	24.0710
 1.5280	24.1660
 1.5290	24.2600
 1.5300	24.3530
 1.5310	24.4470
 1.5320	24.5400
 1.5330	24.6330
 1.5340	24.7240
 1.5350	24.8140
 1.5360	24.9040
 1.5370	24.9920
 1.5380	25.0790
 1.5390	25.1640
 1.5400	25.2490
 1.5410	25.3340
 1.5420	25.4160
 1.5430	25.4970
 1.5440	25.5800
 1.5450	25.6600
 1.5460	25.7410
 1.5470	25.8210
 1.5480	25.8990
 1.5490	25.9770
 1.5500	26.0540
 1.5510	26.1310
 1.5520	26.2070
 1.5530	26.2830
 1.5540	26.3590
 1.5550	26.4340
 1.5560	26.5060
 1.5570	26.5770
 1.5580	26.6480
 1.5590	26.7160
 1.5600	26.7830
 1.5610	26.8500
 1.5620	26.9160
 1.5630	26.9830
 1.5640	27.0500
 1.5650	27.1160
 1.5660	27.1810
 1.5670	27.2440
 1.5680	27.3080
 1.5690	27.3680
 1.5700	27.4280
 1.5710	27.4890
 1.5720	27.5500
 1.5730	27.6120
 1.5740	27.6730
 1.5750	27.7330
 1.5760	27.7920
 1.5770	27.8510
 1.5780	27.9100
 1.5790	27.9670
 1.5800	28.0240
 1.5810	28.0800
 1.5820	28.1340
 1.5830	28.1890
 1.5840	28.2440
 1.5850	28.2980
 1.5860	28.3550
 1.5870	28.4100
 1.5880	28.4640
 1.5890	28.5190
 1.5900	28.5710
 1.5910	28.6230
 1.5920	28.6770
 1.5930	28.7300
 1.5940	28.7820
 1.5950	28.8340
 1.5960	28.8820
 1.5970	28.9320
 1.5980	28.9830
 1.5990	29.0320
 1.6000	29.0830
 1.6010	29.1320
 1.6020	29.1780
 1.6030	29.2250
 1.6040	29.2720
 1.6050	29.3180
 1.6060	29.3630
 1.6070	29.4070
 1.6080	29.4510
 1.6090	29.4940
 1.6100	29.5360
 1.6110	29.5770
 1.6120	29.6170
 1.6130	29.6580
 1.6140	29.7010
 1.6150	29.7410
 1.6160	29.7780
 1.6170	29.8150
 1.6180	29.8520
 1.6190	29.8880
 1.6200	29.9260
 1.6210	29.9610
 1.6220	29.9940
 1.6230	30.0270
 1.6240	30.0610
 1.6250	30.0930
 1.6260	30.1250
 1.6270	30.1550
 1.6280	30.1840
 1.6290	30.2130
 1.6300	30.2430
 1.6310	30.2700
 1.6320	30.2970
 1.6330	30.3220
 1.6340	30.3470
 1.6350	30.3700
 1.6360	30.3920
 1.6370	30.4120
 1.6380	30.4290
 1.6390	30.4460
 1.6400	30.4630
 1.6410	30.4770
 1.6420	30.4920
 1.6430	30.5030
 1.6440	30.5100
 1.6450	30.5180
 1.6460	30.5220
 1.6470	30.5260
 1.6480	30.5310
 1.6490	30.5300
 1.6500	30.5280
 1.6510	30.5260
 1.6520	30.5210
 1.6530	30.5160
 1.6540	30.5090
 1.6550	30.5000
 1.6560	30.4910
 1.6570	30.4840
 1.6580	30.4770
 1.6590	30.4690
 1.6600	30.4610
 1.6610	30.4530
 1.6620	30.4460
 1.6630	30.4390
 1.6640	30.4320
 1.6650	30.4270
 1.6660	30.4230
 1.6670	30.4190
 1.6680	30.4190
 1.6690	30.4160
 1.6700	30.4130
 1.6710	30.4090
 1.6720	30.4010
 1.6730	30.3940
 1.6740	30.3840
 1.6750	30.3740
 1.6760	30.3620
 1.6770	30.3460
 1.6780	30.3290
 1.6790	30.3100
 1.6800	30.2870
 1.6810	30.2630
 1.6820	30.2380
 1.6830	30.2060
 1.6840	30.1750
 1.6850	30.1440
 1.6860	30.1110
 1.6870	30.0780
 1.6880	30.0440
 1.6890	30.0060
 1.6900	29.9680
 1.6910	29.9300
 1.6920	29.8900
 1.6930	29.8490
 1.6940	29.8100
 1.6950	29.7720
 1.6960	29.7330
 1.6970	29.6940
 1.6980	29.6550
 1.6990	29.6130
 1.7000	29.5710
 1.7010	29.5320
 1.7020	29.4890
 1.7030	29.4460
 1.7040	29.4020
 1.7050	29.3550
 1.7060	29.3090
 1.7070	29.2630
 1.7080	29.2170
 1.7090	29.1700
 1.7100	29.1240
 1.7110	29.0790
 1.7120	29.0330
 1.7130	28.9870
 1.7140	28.9420
 1.7150	28.8990
 1.7160	28.8570
 1.7170	28.8150
 1.7180	28.7730
 1.7190	28.7320
 1.7200	28.6920
 1.7210	28.6520
 1.7220	28.6100
 1.7230	28.5670
 1.7240	28.5260
 1.7250	28.4870
 1.7260	28.4510
 1.7270	28.4160
 1.7280	28.3820
 1.7290	28.3480
 1.7300	28.3130
 1.7310	28.2790
 1.7320	28.2430
 1.7330	28.2090
 1.7340	28.1770
 1.7350	28.1430
 1.7360	28.1100
 1.7370	28.0750
 1.7380	28.0380
 1.7390	28.0010
 1.7400	27.9630
 1.7410	27.9230
 1.7420	27.8820
 1.7430	27.8390
 1.7440	27.7950
 1.7450	27.7480
 1.7460	27.7010
 1.7470	27.6520
 1.7480	27.5990
 1.7490	27.5490
 1.7500	27.4980
 1.7510	27.4470
 1.7520	27.3990
 1.7530	27.3480
 1.7540	27.2960
 1.7550	27.2430
 1.7560	27.1920
 1.7570	27.1440
 1.7580	27.0940
 1.7590	27.0470
 1.7600	27.0020
 1.7610	26.9530
 1.7620	26.9070
 1.7630	26.8600
 1.7640	26.8170
 1.7650	26.7780
 1.7660	26.7380
 1.7670	26.7010
 1.7680	26.6630
 1.7690	26.6240
 1.7700	26.5880
 1.7710	26.5520
 1.7720	26.5170
 1.7730	26.4840
 1.7740	26.4510
 1.7750	26.4170
 1.7760	26.3850
 1.7770	26.3530
 1.7780	26.3230
 1.7790	26.2940
 1.7800	26.2660
 1.7810	26.2400
 1.7820	26.2160
 1.7830	26.1930
 1.7840	26.1710
 1.7850	26.1500
 1.7860	26.1290
 1.7870	26.1070
 1.7880	26.0890
 1.7890	26.0740
 1.7900	26.0630
 1.7910	26.0520
 1.7920	26.0400
 1.7930	26.0310
 1.7940	26.0220
 1.7950	26.0150
 1.7960	26.0100
 1.7970	26.0070
 1.7980	26.0070
 1.7990	26.0040
 1.8000	26.0000
 1.8010	25.9980
 1.8020	25.9940
 1.8030	25.9940
 1.8040	25.9980
 1.8050	25.9980
 1.8060	25.9980
 1.8070	26.0000
 1.8080	26.0010
 1.8090	26.0030
 1.8100	26.0080
 1.8110	26.0080
 1.8120	26.0100
 1.8130	26.0120
 1.8140	26.0140
 1.8150	26.0180
 1.8160	26.0170
 1.8170	26.0120
 1.8180	26.0100
 1.8190	26.0060
 1.8200	26.0020
 1.8210	25.9990
 1.8220	25.9950
 1.8230	25.9890
 1.8240	25.9830
 1.8250	25.9750
 1.8260	25.9680
 1.8270	25.9600
 1.8280	25.9510
 1.8290	25.9420
 1.8300	25.8380
 1.8310	25.6580
 1.8320	25.5440
 1.8330	25.5160
 1.8340	25.4890
 1.8350	25.4580
 1.8360	25.4180
 1.8370	25.3750
 1.8380	25.3310
 1.8390	25.2810
 1.8400	25.2300
 1.8410	25.1720
 1.8420	25.1100
 1.8430	25.0400
 1.8440	24.9660
 1.8450	24.8830
 1.8460	24.7940
 1.8470	24.7040
 1.8480	24.6040
 1.8490	24.4910
 1.8500	24.3710
 1.8510	24.2440
 1.8520	24.1030
 1.8530	23.9480
 1.8540	23.7880
 1.8550	23.6170
 1.8560	23.4350
 1.8570	23.2410
 1.8580	23.0360
 1.8590	22.8160
 1.8600	22.5810
 1.8610	22.3330
 1.8620	22.0750
 1.8630	21.8030
 1.8640	21.5180
 1.8650	21.2160
 1.8660	20.8930
 1.8670	20.5480
 1.8680	20.1870
 1.8690	19.8120
 1.8700	19.4220
 1.8710	19.0180
 1.8720	18.6050
 1.8730	18.1800
 1.8740	17.7440
 1.8750	17.2990
 1.8760	16.8460
 1.8770	16.3920
 1.8780	15.9350
 1.8790	15.4770
 1.8800	15.0260
 1.8810	14.5800
 1.8820	14.1340
 1.8830	13.6890
 1.8840	13.2520
 1.8850	12.8180
 1.8860	12.3930
 1.8870	11.9840
 1.8880	11.5910
 1.8890	11.2140
 1.8900	10.8550
 1.8910	10.5160
 1.8920	10.1930
 1.8930	 9.8930
 1.8940	 9.6100
 1.8950	 9.3480
 1.8960	 9.1100
 1.8970	 8.8890
 1.8980	 8.6900
 1.8990	 8.5090
 1.9000	 8.3400
 1.9010	 8.1910
 1.9020	 8.0510
 1.9030	 7.9280
 1.9040	 7.8160
 1.9050	 7.7210
 1.9060	 7.6350
 1.9070	 7.5610
 1.9080	 7.4970
 1.9090	 7.4380
 1.9100	 7.3870
 1.9110	 7.3440
 1.9120	 7.3060
 1.9130	 7.2740
 1.9140	 7.2480
 1.9150	 7.2250
 1.9160	 7.2060
 1.9170	 7.1910
 1.9180	 7.1780
 1.9190	 7.1670
 1.9200	 7.1600
 1.9210	 7.1550
 1.9220	 7.1500
 1.9230	 7.1510
 1.9240	 7.1550
 1.9250	 7.1550
 1.9260	 7.1600
 1.9270	 7.1670
 1.9280	 7.1740
 1.9290	 7.1820
 1.9300	 7.1910
 1.9310	 7.2030
 1.9320	 7.2190
 1.9330	 7.2310
 1.9340	 7.2490
 1.9350	 7.2670
 1.9360	 7.2830
 1.9370	 7.3010
 1.9380	 7.3220
 1.9390	 7.3420
 1.9400	 7.3620
 1.9410	 7.3860
 1.9420	 7.4120
 1.9430	 7.4370
 1.9440	 7.4630
 1.9450	 7.4900
 1.9460	 7.5160
 1.9470	 7.5410
 1.9480	 7.5720
 1.9490	 7.5980
 1.9500	 7.6310
 1.9510	 7.6630
 1.9520	 7.6950
 1.9530	 7.7280
 1.9540	 7.7620
 1.9550	 7.7990
 1.9560	 7.8360
 1.9570	 7.8710
 1.9580	 7.9060
 1.9590	 7.9440
 1.9600	 7.9780
 1.9610	 8.0180
 1.9620	 8.0620
 1.9630	 8.1040
 1.9640	 8.1500
 1.9650	 8.1930
 1.9660	 8.2350
 1.9670	 8.2780
 1.9680	 8.3220
 1.9690	 8.3660
 1.9700	 8.4110
 1.9710	 8.4600
 1.9720	 8.5070
 1.9730	 8.5570
 1.9740	 8.6050
 1.9750	 8.6580
 1.9760	 8.7100
 1.9770	 8.7630
 1.9780	 8.8160
 1.9790	 8.8690
 1.9800	 8.9210
 1.9810	 8.9750
 1.9820	 9.0280
 1.9830	 9.0850
 1.9840	 9.1430
 1.9850	 9.2000
 1.9860	 9.2550
 1.9870	 9.3130
 1.9880	 9.3720
 1.9890	 9.4290
 1.9900	 9.4920
 1.9910	 9.5550
 1.9920	 9.6150
 1.9930	 9.6780
 1.9940	 9.7400
 1.9950	 9.8030
 1.9960	 9.8650
 1.9970	 9.9260
 1.9980	 9.9880
 1.9990	10.0490
 2.0000	10.1100
 2.0010	10.1700
 2.0020	10.2320
 2.0030	10.2930
 2.0040	10.3540
 2.0050	10.4170
 2.0060	10.4820
 2.0070	10.5440
 2.0080	10.6050
 2.0090	10.6660
 2.0100	10.7260
 2.0110	10.7850
 2.0120	10.8440
 2.0130	10.9030
 2.0140	10.9600
 2.0150	11.0140
 2.0160	11.0720
 2.0170	11.1300
 2.0180	11.1860
 2.0190	11.2440
 2.0200	11.2980
 2.0210	11.3460
 2.0220	11.3980
 2.0230	11.4500
 2.0240	11.5000
 2.0250	11.5530
 2.0260	11.6030
 2.0270	11.6510
 2.0280	11.6980
 2.0290	11.7440
 2.0300	11.7880
 2.0310	11.8300
 2.0320	11.8700
 2.0330	11.9110
 2.0340	11.9510
 2.0350	11.9910
 2.0360	12.0310
 2.0370	12.0700
 2.0380	12.1070
 2.0390	12.1440
 2.0400	12.1790
 2.0410	12.2150
 2.0420	12.2500
 2.0430	12.2850
 2.0440	12.3200
 2.0450	12.3560
 2.0460	12.3870
 2.0470	12.4150
 2.0480	12.4440
 2.0490	12.4690
 2.0500	12.4990
 2.0510	12.5320
 2.0520	12.5620
 2.0530	12.5910
 2.0540	12.6210
 2.0550	12.6490
 2.0560	12.6780
 2.0570	12.7080
 2.0580	12.7380
 2.0590	12.7700
 2.0600	12.8030
 2.0610	12.8350
 2.0620	12.8670
 2.0630	12.8980
 2.0640	12.9260
 2.0650	12.9560
 2.0660	12.9870
 2.0670	13.0170
 2.0680	13.0480
 2.0690	13.0790
 2.0700	13.1120
 2.0710	13.1440
 2.0720	13.1750
 2.0730	13.2030
 2.0740	13.2330
 2.0750	13.2610
 2.0760	13.2900
 2.0770	13.3230
 2.0780	13.3520
 2.0790	13.3800
 2.0800	13.4070
 2.0810	13.4300
 2.0820	13.4580
 2.0830	13.4870
 2.0840	13.5150
 2.0850	13.5460
 2.0860	13.5760
 2.0870	13.6040
 2.0880	13.6320
 2.0890	13.6600
 2.0900	13.6860
 2.0910	13.7130
 2.0920	13.7400
 2.0930	13.7680
 2.0940	13.7960
 2.0950	13.8240
 2.0960	13.8530
 2.0970	13.8800
 2.0980	13.9090
 2.0990	13.9340
 2.1000	13.9550
 2.1010	13.9780
 2.1020	13.9990
 2.1030	14.0220
 2.1040	14.0460
 2.1050	14.0700
 2.1060	14.0940
 2.1070	14.1190
 2.1080	14.1450
 2.1090	14.1700
 2.1100	14.1950
 2.1110	14.2210
 2.1120	14.2450
 2.1130	14.2680
 2.1140	14.2920
 2.1150	14.3140
 2.1160	14.3370
 2.1170	14.3610
 2.1180	14.3840
 2.1190	14.4040
 2.1200	14.4260
 2.1210	14.4470
 2.1220	14.4680
 2.1230	14.4890
 2.1240	14.5110
 2.1250	14.5300
 2.1260	14.5470
 2.1270	14.5670
 2.1280	14.5880
 2.1290	14.6070
 2.1300	14.6270
 2.1310	14.6450
 2.1320	14.6620
 2.1330	14.6790
 2.1340	14.6990
 2.1350	14.7160
 2.1360	14.7290
 2.1370	14.7460
 2.1380	14.7640
 2.1390	14.7810
 2.1400	14.8000
 2.1410	14.8220
 2.1420	14.8390
 2.1430	14.8530
 2.1440	14.8680
 2.1450	14.8810
 2.1460	14.8980
 2.1470	14.9150
 2.1480	14.9330
 2.1490	14.9540
 2.1500	14.9730
 2.1510	14.9920
 2.1520	15.0090
 2.1530	15.0280
 2.1540	15.0430
 2.1550	15.0530
 2.1560	15.0670
 2.1570	15.0810
 2.1580	15.0950
 2.1590	15.1100
 2.1600	15.1290
 2.1610	15.1420
 2.1620	15.1510
 2.1630	15.1650
 2.1640	15.1790
 2.1650	15.1940
 2.1660	15.2130
 2.1670	15.2280
 2.1680	15.2410
 2.1690	15.2540
 2.1700	15.2670
 2.1710	15.2820
 2.1720	15.2980
 2.1730	15.3140
 2.1740	15.3310
 2.1750	15.3470
 2.1760	15.3600
 2.1770	15.3770
 2.1780	15.3980
 2.1790	15.4170
 2.1800	15.4370
 2.1810	15.4560
 2.1820	15.4710
 2.1830	15.4880
 2.1840	15.5070
 2.1850	15.5270
 2.1860	15.5460
 2.1870	15.5660
 2.1880	15.5850
 2.1890	15.6040
 2.1900	15.6240
 2.1910	15.6440
 2.1920	15.6640
 2.1930	15.6840
 2.1940	15.7030
 2.1950	15.7230
 2.1960	15.7430
 2.1970	15.7630
 2.1980	15.7830
 2.1990	15.8060
 2.2000	15.8240
 2.2010	15.8360
 2.2020	15.8530
 2.2030	15.8700
 2.2040	15.8860
 2.2050	15.9050
 2.2060	15.9270
 2.2070	15.9430
 2.2080	15.9570
 2.2090	15.9710
 2.2100	15.9850
 2.2110	15.9990
 2.2120	16.0120
 2.2130	16.0240
 2.2140	16.0350
 2.2150	16.0440
 2.2160	16.0510
 2.2170	16.0590
 2.2180	16.0660
 2.2190	16.0710
 2.2200	16.0770
 2.2210	16.0800
 2.2220	16.0840
 2.2230	16.0830
 2.2240	16.0780
 2.2250	16.0730
 2.2260	16.0630
 2.2270	16.0530
 2.2280	16.0450
 2.2290	16.0330
 2.2300	16.0170
 2.2310	15.9990
 2.2320	15.9770
 2.2330	15.9530
 2.2340	15.9290
 2.2350	15.9040
 2.2360	15.8760
 2.2370	15.8460
 2.2380	15.8110
 2.2390	15.7720
 2.2400	15.7340
 2.2410	15.6930
 2.2420	15.6510
 2.2430	15.6080
 2.2440	15.5650
 2.2450	15.5210
 2.2460	15.4760
 2.2470	15.4310
 2.2480	15.3830
 2.2490	15.3320
 2.2500	15.2810
 2.2510	15.2270
 2.2520	15.1750
 2.2530	15.1240
 2.2540	15.0740
 2.2550	15.0270
 2.2560	14.9790
 2.2570	14.9340
 2.2580	14.8860
 2.2590	14.8350
 2.2600	14.7870
 2.2610	14.7400
 2.2620	14.6910
 2.2630	14.6490
 2.2640	14.6060
 2.2650	14.5620
 2.2660	14.5180
 2.2670	14.4730
 2.2680	14.4280
 2.2690	14.3830
 2.2700	14.3370
 2.2710	14.2940
 2.2720	14.2520
 2.2730	14.2100
 2.2740	14.1730
 2.2750	14.1300
 2.2760	14.0820
 2.2770	14.0400
 2.2780	14.0010
 2.2790	13.9620
 2.2800	13.9260
 2.2810	13.8900
 2.2820	13.8540
 2.2830	13.8160
 2.2840	13.7760
 2.2850	13.7390
 2.2860	13.7000
 2.2870	13.6620
 2.2880	13.6290
 2.2890	13.5920
 2.2900	13.5550
 2.2910	13.5170
 2.2920	13.4780
 2.2930	13.4390
 2.2940	13.3970
 2.2950	13.3570
 2.2960	13.3170
 2.2970	13.2760
 2.2980	13.2350
 2.2990	13.1920
 2.3000	13.1490
 2.3010	13.1090
 2.3020	13.0680
 2.3030	13.0290
 2.3040	12.9880
 2.3050	12.9490
 2.3060	12.9180
 2.3070	12.8890
 2.3080	12.8640
 2.3090	12.8390
 2.3100	12.8110
 2.3110	12.7870
 2.3120	12.7620
 2.3130	12.7370
 2.3140	12.7160
 2.3150	12.6940
 2.3160	12.6770
 2.3170	12.6680
 2.3180	12.6520
 2.3190	12.6380
 2.3200	12.6190
 2.3210	12.5940
 2.3220	12.5700
 2.3230	12.5450
 2.3240	12.5200
 2.3250	12.4950
 2.3260	12.4690
 2.3270	12.4440
 2.3280	12.4180
 2.3290	12.3930
 2.3300	12.3630
 2.3310	12.3310
 2.3320	12.2990
 2.3330	12.2640
 2.3340	12.2270
 2.3350	12.1890
 2.3360	12.1490
 2.3370	12.1010
 2.3380	12.0620
 2.3390	12.0270
 2.3400	11.9910
 2.3410	11.9610
 2.3420	11.9270
 2.3430	11.8890
 2.3440	11.8540
 2.3450	11.8170
 2.3460	11.7840
 2.3470	11.7550
 2.3480	11.7280
 2.3490	11.7060
 2.3500	11.6820
 2.3510	11.6590
 2.3520	11.6350
 2.3530	11.6080
 2.3540	11.5860
 2.3550	11.5640
 2.3560	11.5390
 2.3570	11.5210
 2.3580	11.5080
 2.3590	11.4890
 2.3600	11.4730
 2.3610	11.4540
 2.3620	11.4230
 2.3630	11.3960
 2.3640	11.3720
 2.3650	11.3430
 2.3660	11.3230
 2.3670	11.3020
 2.3680	11.2760
 2.3690	11.2480
 2.3700	11.2210
 2.3710	11.1880
 2.3720	11.1520
 2.3730	11.1260
 2.3740	11.0970
 2.3750	11.0660
 2.3760	11.0400
 2.3770	11.0070
 2.3780	10.9690
 2.3790	10.9270
 2.3800	10.8930
 2.3810	10.8610
 2.3820	10.8210
 2.3830	10.7880
 2.3840	10.7540
 2.3850	10.7140
 2.3860	10.6860
 2.3870	10.6590
 2.3880	10.6370
 2.3890	10.6170
 2.3900	10.5950
 2.3910	10.5700
 2.3920	10.5310
 2.3930	10.4880
 2.3940	10.4370
 2.3950	10.3880
 2.3960	10.3480
 2.3970	10.3150
 2.3980	10.2960
 2.3990	10.2760
 2.4000	10.2420
 2.4010	10.1910
 2.4020	10.1410
 2.4030	10.0970
 2.4040	10.0620
 2.4050	10.0440
 2.4060	10.0130
 2.4070	 9.9720
 2.4080	 9.9270
 2.4090	 9.8770
 2.4100	 9.8390
 2.4110	 9.8050
 2.4120	 9.7730
 2.4130	 9.7460
 2.4140	 9.7170
 2.4150	 9.6890
 2.4160	 9.6520
 2.4170	 9.6090
 2.4180	 9.5740
 2.4190	 9.5250
 2.4200	 9.4830
 2.4210	 9.4470
 2.4220	 9.3990
 2.4230	 9.3520
 2.4240	 9.3140
 2.4250	 9.2780
 2.4260	 9.2430
 2.4270	 9.2030
 2.4280	 9.1580
 2.4290	 9.1090
 2.4300	 9.0690
 2.4310	 9.0330
 2.4320	 8.9900
 2.4330	 8.9480
 2.4340	 8.9070
 2.4350	 8.8820
 2.4360	 8.8580
 2.4370	 8.8300
 2.4380	 8.7930
 2.4390	 8.7420
 2.4400	 8.6800
 2.4410	 8.6410
 2.4420	 8.6160
 2.4430	 8.5860
 2.4440	 8.5640
 2.4450	 8.5310
 2.4460	 8.4670
 2.4470	 8.4210
 2.4480	 8.3980
 2.4490	 8.3670
 2.4500	 8.3320
 2.4510	 8.3010
 2.4520	 8.2490
 2.4530	 8.2130
 2.4540	 8.2030
 2.4550	 8.1760
 2.4560	 8.1610
 2.4570	 8.1340
 2.4580	 8.0910
 2.4590	 8.0580
 2.4600	 8.0230
 2.4610	 8.0070
 2.4620	 7.9900
 2.4630	 7.9800
 2.4640	 7.9700
 2.4650	 7.9230
 2.4660	 7.8820
 2.4670	 7.8550
 2.4680	 7.8210
 2.4690	 7.7990
 2.4700	 7.7830
 2.4710	 7.7500
 2.4720	 7.7290
 2.4730	 7.7390
 2.4740	 7.7230
 2.4750	 7.7060
 2.4760	 7.6860
 2.4770	 7.6490
 2.4780	 7.6220
 2.4790	 7.5930
 2.4800	 7.5720
 2.4810	 7.5650
 2.4820	 7.5410
 2.4830	 7.5230
 2.4840	 7.5160
 2.4850	 7.5000
 2.4860	 7.4770
 2.4870	 7.4670
 2.4880	 7.4340
 2.4890	 7.4060
 2.4900	 7.4460
 2.4910	 7.4320
 2.4920	 7.4010
 2.4930	 7.4160
 2.4940	 7.4030
 2.4950	 7.3910
 2.4960	 7.3890
 2.4970	 7.3820
 2.4980	 7.3340
 2.4990	 7.3130
 2.5000	 7.3200
