Name: Salvia leucophylla 3
Type: vegetation
Class: Shrub
Genus: Salvia
Species: leucophylla
Sample No.: VH289
Owner: UCSB
Wavelength Range: VSWIR
Origin: 34.698; -120.0477; WGS84
Collection Date: 11/2/2013
Description: Samples were collected as part of the HyspIRI Airborne Campaign. 48 individual plants were sampled in three times in 2013 - spring  summer  and fall. The name of the sample includes a 1  2  or 3 which references a different individual of the species. Samples were taken to JPL and processed within 48 hours of collection. The same leaves were processed in the Nicolet and then measured using the ASD.
Measurement: Bidirectional reflectance
First Column: X
Second Column: Y
X Units: Wavelength (micrometers)
Y Units: Reflectance (percentage)
First X Value: 0.35
Last X Value: 2.5
Number of X Values: 2151
Additional Information: vegetation.shrub.salvia.leucophylla.vswir.vh289.ucsb.asd.ancillary.txt

 0.3500	 6.6560
 0.3510	 7.1440
 0.3520	 7.3410
 0.3530	 7.2280
 0.3540	 7.1180
 0.3550	 7.4610
 0.3560	 7.4380
 0.3570	 7.2460
 0.3580	 7.5030
 0.3590	 7.5870
 0.3600	 7.5470
 0.3610	 7.5040
 0.3620	 7.5710
 0.3630	 7.7290
 0.3640	 7.8830
 0.3650	 7.9370
 0.3660	 7.8380
 0.3670	 7.9180
 0.3680	 8.0970
 0.3690	 8.0480
 0.3700	 8.1860
 0.3710	 8.3410
 0.3720	 8.4050
 0.3730	 8.5240
 0.3740	 8.5530
 0.3750	 8.5680
 0.3760	 8.6750
 0.3770	 8.7530
 0.3780	 8.9430
 0.3790	 9.1600
 0.3800	 9.1490
 0.3810	 9.2320
 0.3820	 9.4230
 0.3830	 9.6260
 0.3840	 9.6140
 0.3850	 9.6330
 0.3860	 9.7350
 0.3870	 9.8830
 0.3880	10.0130
 0.3890	10.0750
 0.3900	10.0950
 0.3910	10.1750
 0.3920	10.2260
 0.3930	10.2970
 0.3940	10.4190
 0.3950	10.5230
 0.3960	10.5950
 0.3970	10.6380
 0.3980	10.6750
 0.3990	10.8060
 0.4000	10.9050
 0.4010	10.9310
 0.4020	10.9750
 0.4030	11.1120
 0.4040	11.2350
 0.4050	11.2570
 0.4060	11.3090
 0.4070	11.3930
 0.4080	11.4720
 0.4090	11.4960
 0.4100	11.5450
 0.4110	11.6320
 0.4120	11.7270
 0.4130	11.7340
 0.4140	11.7910
 0.4150	11.8870
 0.4160	11.9660
 0.4170	11.9930
 0.4180	12.0500
 0.4190	12.1370
 0.4200	12.1830
 0.4210	12.2460
 0.4220	12.3090
 0.4230	12.3590
 0.4240	12.4430
 0.4250	12.5130
 0.4260	12.5620
 0.4270	12.6080
 0.4280	12.6830
 0.4290	12.7630
 0.4300	12.8330
 0.4310	12.8900
 0.4320	12.9630
 0.4330	13.0310
 0.4340	13.0780
 0.4350	13.1450
 0.4360	13.2120
 0.4370	13.2720
 0.4380	13.3280
 0.4390	13.3880
 0.4400	13.4410
 0.4410	13.4850
 0.4420	13.5380
 0.4430	13.5960
 0.4440	13.6570
 0.4450	13.7140
 0.4460	13.7550
 0.4470	13.7930
 0.4480	13.8360
 0.4490	13.8860
 0.4500	13.9260
 0.4510	13.9760
 0.4520	14.0450
 0.4530	14.0720
 0.4540	14.1140
 0.4550	14.1700
 0.4560	14.2040
 0.4570	14.2320
 0.4580	14.2750
 0.4590	14.3310
 0.4600	14.3640
 0.4610	14.3910
 0.4620	14.4270
 0.4630	14.4800
 0.4640	14.5260
 0.4650	14.5580
 0.4660	14.5860
 0.4670	14.6350
 0.4680	14.6610
 0.4690	14.6860
 0.4700	14.7310
 0.4710	14.7760
 0.4720	14.8140
 0.4730	14.8420
 0.4740	14.8580
 0.4750	14.9050
 0.4760	14.9440
 0.4770	14.9610
 0.4780	14.9910
 0.4790	15.0250
 0.4800	15.0590
 0.4810	15.0920
 0.4820	15.1170
 0.4830	15.1430
 0.4840	15.1760
 0.4850	15.2160
 0.4860	15.2450
 0.4870	15.2740
 0.4880	15.3100
 0.4890	15.3410
 0.4900	15.3770
 0.4910	15.4180
 0.4920	15.4580
 0.4930	15.4870
 0.4940	15.5250
 0.4950	15.5730
 0.4960	15.6040
 0.4970	15.6520
 0.4980	15.7100
 0.4990	15.7620
 0.5000	15.8050
 0.5010	15.8510
 0.5020	15.9090
 0.5030	15.9770
 0.5040	16.0340
 0.5050	16.0860
 0.5060	16.1430
 0.5070	16.2210
 0.5080	16.3000
 0.5090	16.3760
 0.5100	16.4520
 0.5110	16.5370
 0.5120	16.6300
 0.5130	16.7270
 0.5140	16.8220
 0.5150	16.9140
 0.5160	17.0030
 0.5170	17.0970
 0.5180	17.2020
 0.5190	17.3150
 0.5200	17.4290
 0.5210	17.5360
 0.5220	17.6330
 0.5230	17.7380
 0.5240	17.8550
 0.5250	17.9590
 0.5260	18.0620
 0.5270	18.1660
 0.5280	18.2680
 0.5290	18.3640
 0.5300	18.4620
 0.5310	18.5650
 0.5320	18.6670
 0.5330	18.7620
 0.5340	18.8580
 0.5350	18.9590
 0.5360	19.0490
 0.5370	19.1320
 0.5380	19.2140
 0.5390	19.3050
 0.5400	19.3970
 0.5410	19.4850
 0.5420	19.5660
 0.5430	19.6480
 0.5440	19.7300
 0.5450	19.8110
 0.5460	19.8870
 0.5470	19.9710
 0.5480	20.0520
 0.5490	20.1270
 0.5500	20.2000
 0.5510	20.2780
 0.5520	20.3590
 0.5530	20.4350
 0.5540	20.5020
 0.5550	20.5730
 0.5560	20.6450
 0.5570	20.7050
 0.5580	20.7650
 0.5590	20.8240
 0.5600	20.8800
 0.5610	20.9210
 0.5620	20.9700
 0.5630	21.0240
 0.5640	21.0730
 0.5650	21.1070
 0.5660	21.1360
 0.5670	21.1710
 0.5680	21.2250
 0.5690	21.2550
 0.5700	21.2780
 0.5710	21.3170
 0.5720	21.3660
 0.5730	21.4130
 0.5740	21.4570
 0.5750	21.5020
 0.5760	21.5380
 0.5770	21.5670
 0.5780	21.5960
 0.5790	21.6410
 0.5800	21.6800
 0.5810	21.7170
 0.5820	21.7650
 0.5830	21.8210
 0.5840	21.8710
 0.5850	21.9140
 0.5860	21.9610
 0.5870	22.0130
 0.5880	22.0620
 0.5890	22.1040
 0.5900	22.1390
 0.5910	22.1680
 0.5920	22.2010
 0.5930	22.2530
 0.5940	22.3030
 0.5950	22.3440
 0.5960	22.3770
 0.5970	22.4100
 0.5980	22.4560
 0.5990	22.5070
 0.6000	22.5540
 0.6010	22.6000
 0.6020	22.6460
 0.6030	22.6880
 0.6040	22.7230
 0.6050	22.7640
 0.6060	22.8030
 0.6070	22.8350
 0.6080	22.8710
 0.6090	22.9110
 0.6100	22.9490
 0.6110	22.9800
 0.6120	23.0120
 0.6130	23.0500
 0.6140	23.0920
 0.6150	23.1280
 0.6160	23.1660
 0.6170	23.2040
 0.6180	23.2390
 0.6190	23.2820
 0.6200	23.3240
 0.6210	23.3640
 0.6220	23.4060
 0.6230	23.4570
 0.6240	23.5100
 0.6250	23.5610
 0.6260	23.6100
 0.6270	23.6630
 0.6280	23.7180
 0.6290	23.7740
 0.6300	23.8270
 0.6310	23.8830
 0.6320	23.9340
 0.6330	23.9690
 0.6340	24.0090
 0.6350	24.0460
 0.6360	24.0710
 0.6370	24.0920
 0.6380	24.0950
 0.6390	24.0900
 0.6400	24.0930
 0.6410	24.0740
 0.6420	24.0450
 0.6430	24.0180
 0.6440	23.9980
 0.6450	23.9700
 0.6460	23.9430
 0.6470	23.9280
 0.6480	23.9150
 0.6490	23.9100
 0.6500	23.9120
 0.6510	23.9100
 0.6520	23.9240
 0.6530	23.9450
 0.6540	23.9620
 0.6550	23.9730
 0.6560	23.9790
 0.6570	23.9840
 0.6580	23.9910
 0.6590	23.9920
 0.6600	23.9810
 0.6610	23.9560
 0.6620	23.9220
 0.6630	23.9040
 0.6640	23.8800
 0.6650	23.8320
 0.6660	23.8040
 0.6670	23.7910
 0.6680	23.7820
 0.6690	23.7640
 0.6700	23.7610
 0.6710	23.7640
 0.6720	23.7700
 0.6730	23.7880
 0.6740	23.8110
 0.6750	23.8430
 0.6760	23.8840
 0.6770	23.9270
 0.6780	23.9750
 0.6790	24.0330
 0.6800	24.1070
 0.6810	24.1870
 0.6820	24.2890
 0.6830	24.4210
 0.6840	24.5660
 0.6850	24.7500
 0.6860	24.9630
 0.6870	25.1920
 0.6880	25.4650
 0.6890	25.7720
 0.6900	26.1040
 0.6910	26.4570
 0.6920	26.8470
 0.6930	27.2520
 0.6940	27.6600
 0.6950	28.0910
 0.6960	28.5330
 0.6970	28.9770
 0.6980	29.4150
 0.6990	29.8450
 0.7000	30.2770
 0.7010	30.7080
 0.7020	31.1260
 0.7030	31.5270
 0.7040	31.9140
 0.7050	32.2870
 0.7060	32.6370
 0.7070	32.9940
 0.7080	33.3360
 0.7090	33.6360
 0.7100	33.9360
 0.7110	34.2270
 0.7120	34.4990
 0.7130	34.7450
 0.7140	34.9920
 0.7150	35.2320
 0.7160	35.4580
 0.7170	35.6730
 0.7180	35.8870
 0.7190	36.0900
 0.7200	36.2700
 0.7210	36.4480
 0.7220	36.6260
 0.7230	36.7990
 0.7240	36.9570
 0.7250	37.1120
 0.7260	37.2650
 0.7270	37.4130
 0.7280	37.5440
 0.7290	37.6770
 0.7300	37.8100
 0.7310	37.9330
 0.7320	38.0600
 0.7330	38.1810
 0.7340	38.2950
 0.7350	38.4130
 0.7360	38.5070
 0.7370	38.6100
 0.7380	38.7380
 0.7390	38.8280
 0.7400	38.9210
 0.7410	39.0230
 0.7420	39.1270
 0.7430	39.2140
 0.7440	39.3070
 0.7450	39.4040
 0.7460	39.4840
 0.7470	39.5670
 0.7480	39.6540
 0.7490	39.7420
 0.7500	39.8270
 0.7510	39.9060
 0.7520	39.9810
 0.7530	40.0570
 0.7540	40.1350
 0.7550	40.2170
 0.7560	40.2990
 0.7570	40.3680
 0.7580	40.4320
 0.7590	40.5110
 0.7600	40.6020
 0.7610	40.6570
 0.7620	40.7190
 0.7630	40.7920
 0.7640	40.8680
 0.7650	40.9350
 0.7660	41.0030
 0.7670	41.0740
 0.7680	41.1440
 0.7690	41.2050
 0.7700	41.2680
 0.7710	41.3380
 0.7720	41.4070
 0.7730	41.4690
 0.7740	41.5290
 0.7750	41.5930
 0.7760	41.6560
 0.7770	41.7200
 0.7780	41.7870
 0.7790	41.8600
 0.7800	41.9300
 0.7810	41.9870
 0.7820	42.0430
 0.7830	42.1220
 0.7840	42.1960
 0.7850	42.2570
 0.7860	42.3070
 0.7870	42.3680
 0.7880	42.4370
 0.7890	42.5060
 0.7900	42.5700
 0.7910	42.6290
 0.7920	42.6850
 0.7930	42.7410
 0.7940	42.8020
 0.7950	42.8790
 0.7960	42.9560
 0.7970	43.0230
 0.7980	43.0860
 0.7990	43.1580
 0.8000	43.2220
 0.8010	43.2720
 0.8020	43.3390
 0.8030	43.4110
 0.8040	43.4800
 0.8050	43.5450
 0.8060	43.6140
 0.8070	43.6850
 0.8080	43.7500
 0.8090	43.8000
 0.8100	43.8790
 0.8110	43.9480
 0.8120	43.9910
 0.8130	44.0560
 0.8140	44.1350
 0.8150	44.2160
 0.8160	44.2850
 0.8170	44.3320
 0.8180	44.3920
 0.8190	44.4640
 0.8200	44.5290
 0.8210	44.5920
 0.8220	44.6580
 0.8230	44.7240
 0.8240	44.7790
 0.8250	44.8500
 0.8260	44.9200
 0.8270	44.9790
 0.8280	45.0410
 0.8290	45.1070
 0.8300	45.1740
 0.8310	45.2380
 0.8320	45.2880
 0.8330	45.3370
 0.8340	45.3970
 0.8350	45.4720
 0.8360	45.5400
 0.8370	45.5840
 0.8380	45.6230
 0.8390	45.7000
 0.8400	45.7810
 0.8410	45.8440
 0.8420	45.8930
 0.8430	45.9540
 0.8440	46.0150
 0.8450	46.0710
 0.8460	46.1250
 0.8470	46.1920
 0.8480	46.2500
 0.8490	46.3000
 0.8500	46.3540
 0.8510	46.4240
 0.8520	46.4910
 0.8530	46.5460
 0.8540	46.5870
 0.8550	46.6300
 0.8560	46.6910
 0.8570	46.7610
 0.8580	46.8140
 0.8590	46.8660
 0.8600	46.9090
 0.8610	46.9490
 0.8620	47.0170
 0.8630	47.0820
 0.8640	47.1320
 0.8650	47.1690
 0.8660	47.2250
 0.8670	47.2610
 0.8680	47.3010
 0.8690	47.3720
 0.8700	47.4010
 0.8710	47.4270
 0.8720	47.4750
 0.8730	47.5490
 0.8740	47.6110
 0.8750	47.6600
 0.8760	47.7050
 0.8770	47.7600
 0.8780	47.7890
 0.8790	47.8220
 0.8800	47.8760
 0.8810	47.9360
 0.8820	47.9790
 0.8830	48.0110
 0.8840	48.0440
 0.8850	48.0800
 0.8860	48.1240
 0.8870	48.1660
 0.8880	48.1990
 0.8890	48.2500
 0.8900	48.2920
 0.8910	48.3230
 0.8920	48.3530
 0.8930	48.3980
 0.8940	48.4300
 0.8950	48.4580
 0.8960	48.5110
 0.8970	48.5470
 0.8980	48.5880
 0.8990	48.6350
 0.9000	48.6700
 0.9010	48.6890
 0.9020	48.7130
 0.9030	48.7520
 0.9040	48.8000
 0.9050	48.8400
 0.9060	48.8760
 0.9070	48.9110
 0.9080	48.9370
 0.9090	48.9550
 0.9100	48.9840
 0.9110	49.0290
 0.9120	49.0620
 0.9130	49.0960
 0.9140	49.1320
 0.9150	49.1690
 0.9160	49.2080
 0.9170	49.2460
 0.9180	49.2870
 0.9190	49.3350
 0.9200	49.3840
 0.9210	49.4260
 0.9220	49.4710
 0.9230	49.5270
 0.9240	49.5440
 0.9250	49.5460
 0.9260	49.5640
 0.9270	49.6250
 0.9280	49.6780
 0.9290	49.7040
 0.9300	49.7170
 0.9310	49.7510
 0.9320	49.7980
 0.9330	49.8490
 0.9340	49.8870
 0.9350	49.8920
 0.9360	49.9260
 0.9370	49.9510
 0.9380	49.9600
 0.9390	50.0090
 0.9400	50.0540
 0.9410	50.0800
 0.9420	50.0920
 0.9430	50.1230
 0.9440	50.1460
 0.9450	50.1570
 0.9460	50.1650
 0.9470	50.1950
 0.9480	50.2260
 0.9490	50.2270
 0.9500	50.2030
 0.9510	50.2370
 0.9520	50.2680
 0.9530	50.2750
 0.9540	50.2650
 0.9550	50.2800
 0.9560	50.2910
 0.9570	50.2940
 0.9580	50.2950
 0.9590	50.3110
 0.9600	50.3100
 0.9610	50.3140
 0.9620	50.3510
 0.9630	50.3820
 0.9640	50.3990
 0.9650	50.4200
 0.9660	50.4580
 0.9670	50.4710
 0.9680	50.5000
 0.9690	50.5340
 0.9700	50.5470
 0.9710	50.5790
 0.9720	50.5940
 0.9730	50.6070
 0.9740	50.6500
 0.9750	50.7050
 0.9760	50.7330
 0.9770	50.7590
 0.9780	50.8170
 0.9790	50.8510
 0.9800	50.8660
 0.9810	50.8930
 0.9820	50.9520
 0.9830	50.9790
 0.9840	50.9960
 0.9850	51.0460
 0.9860	51.1450
 0.9870	51.1590
 0.9880	51.1950
 0.9890	51.2500
 0.9900	51.2780
 0.9910	51.3200
 0.9920	51.3780
 0.9930	51.4320
 0.9940	51.4670
 0.9950	51.5170
 0.9960	51.5530
 0.9970	51.5760
 0.9980	51.6080
 0.9990	51.6870
 1.0000	51.7940
 1.0010	51.9010
 1.0020	52.0100
 1.0030	52.0600
 1.0040	52.1100
 1.0050	52.1530
 1.0060	52.1920
 1.0070	52.2350
 1.0080	52.2800
 1.0090	52.3240
 1.0100	52.3750
 1.0110	52.4390
 1.0120	52.4910
 1.0130	52.5380
 1.0140	52.5890
 1.0150	52.6360
 1.0160	52.6820
 1.0170	52.7380
 1.0180	52.7870
 1.0190	52.8280
 1.0200	52.8690
 1.0210	52.9090
 1.0220	52.9580
 1.0230	53.0070
 1.0240	53.0650
 1.0250	53.1130
 1.0260	53.1580
 1.0270	53.2040
 1.0280	53.2470
 1.0290	53.2930
 1.0300	53.3410
 1.0310	53.3870
 1.0320	53.4350
 1.0330	53.4790
 1.0340	53.5220
 1.0350	53.5610
 1.0360	53.6020
 1.0370	53.6410
 1.0380	53.6840
 1.0390	53.7360
 1.0400	53.7750
 1.0410	53.8060
 1.0420	53.8440
 1.0430	53.8750
 1.0440	53.9110
 1.0450	53.9550
 1.0460	53.9970
 1.0470	54.0350
 1.0480	54.0750
 1.0490	54.1200
 1.0500	54.1580
 1.0510	54.1910
 1.0520	54.2270
 1.0530	54.2600
 1.0540	54.2860
 1.0550	54.3240
 1.0560	54.3690
 1.0570	54.4050
 1.0580	54.4450
 1.0590	54.4780
 1.0600	54.4970
 1.0610	54.5280
 1.0620	54.5690
 1.0630	54.6010
 1.0640	54.6310
 1.0650	54.6630
 1.0660	54.6960
 1.0670	54.7240
 1.0680	54.7490
 1.0690	54.7740
 1.0700	54.8020
 1.0710	54.8270
 1.0720	54.8540
 1.0730	54.8900
 1.0740	54.9200
 1.0750	54.9460
 1.0760	54.9740
 1.0770	55.0080
 1.0780	55.0370
 1.0790	55.0610
 1.0800	55.0880
 1.0810	55.1180
 1.0820	55.1440
 1.0830	55.1730
 1.0840	55.1950
 1.0850	55.2130
 1.0860	55.2230
 1.0870	55.2400
 1.0880	55.2560
 1.0890	55.2730
 1.0900	55.2950
 1.0910	55.3140
 1.0920	55.3300
 1.0930	55.3480
 1.0940	55.3670
 1.0950	55.3850
 1.0960	55.4020
 1.0970	55.4170
 1.0980	55.4280
 1.0990	55.4430
 1.1000	55.4590
 1.1010	55.4740
 1.1020	55.4910
 1.1030	55.5100
 1.1040	55.5240
 1.1050	55.5340
 1.1060	55.5460
 1.1070	55.5570
 1.1080	55.5680
 1.1090	55.5800
 1.1100	55.5900
 1.1110	55.5960
 1.1120	55.6060
 1.1130	55.6190
 1.1140	55.6300
 1.1150	55.6450
 1.1160	55.6550
 1.1170	55.6630
 1.1180	55.6650
 1.1190	55.6610
 1.1200	55.6580
 1.1210	55.6550
 1.1220	55.6480
 1.1230	55.6520
 1.1240	55.6510
 1.1250	55.6420
 1.1260	55.6300
 1.1270	55.6120
 1.1280	55.5840
 1.1290	55.5550
 1.1300	55.5260
 1.1310	55.4880
 1.1320	55.4450
 1.1330	55.3960
 1.1340	55.3390
 1.1350	55.2780
 1.1360	55.2110
 1.1370	55.1440
 1.1380	55.0760
 1.1390	55.0040
 1.1400	54.9310
 1.1410	54.8550
 1.1420	54.7710
 1.1430	54.6880
 1.1440	54.6060
 1.1450	54.5240
 1.1460	54.4430
 1.1470	54.3620
 1.1480	54.2840
 1.1490	54.2040
 1.1500	54.1330
 1.1510	54.0680
 1.1520	54.0030
 1.1530	53.9420
 1.1540	53.8860
 1.1550	53.8320
 1.1560	53.7800
 1.1570	53.7370
 1.1580	53.6970
 1.1590	53.6590
 1.1600	53.6290
 1.1610	53.6010
 1.1620	53.5720
 1.1630	53.5440
 1.1640	53.5170
 1.1650	53.4900
 1.1660	53.4640
 1.1670	53.4370
 1.1680	53.4100
 1.1690	53.3840
 1.1700	53.3620
 1.1710	53.3360
 1.1720	53.3100
 1.1730	53.2850
 1.1740	53.2590
 1.1750	53.2300
 1.1760	53.2020
 1.1770	53.1730
 1.1780	53.1380
 1.1790	53.1020
 1.1800	53.0690
 1.1810	53.0370
 1.1820	53.0080
 1.1830	52.9850
 1.1840	52.9620
 1.1850	52.9420
 1.1860	52.9290
 1.1870	52.9210
 1.1880	52.9200
 1.1890	52.9260
 1.1900	52.9360
 1.1910	52.9550
 1.1920	52.9740
 1.1930	52.9990
 1.1940	53.0270
 1.1950	53.0580
 1.1960	53.0930
 1.1970	53.1330
 1.1980	53.1710
 1.1990	53.2110
 1.2000	53.2550
 1.2010	53.3010
 1.2020	53.3500
 1.2030	53.3960
 1.2040	53.4450
 1.2050	53.4970
 1.2060	53.5500
 1.2070	53.6070
 1.2080	53.6640
 1.2090	53.7270
 1.2100	53.7940
 1.2110	53.8580
 1.2120	53.9220
 1.2130	53.9900
 1.2140	54.0520
 1.2150	54.1230
 1.2160	54.2010
 1.2170	54.2810
 1.2180	54.3600
 1.2190	54.4410
 1.2200	54.5210
 1.2210	54.6010
 1.2220	54.6790
 1.2230	54.7540
 1.2240	54.8310
 1.2250	54.9070
 1.2260	54.9820
 1.2270	55.0590
 1.2280	55.1290
 1.2290	55.1950
 1.2300	55.2610
 1.2310	55.3270
 1.2320	55.3950
 1.2330	55.4630
 1.2340	55.5260
 1.2350	55.5860
 1.2360	55.6420
 1.2370	55.6930
 1.2380	55.7450
 1.2390	55.7970
 1.2400	55.8530
 1.2410	55.9070
 1.2420	55.9590
 1.2430	56.0100
 1.2440	56.0590
 1.2450	56.1090
 1.2460	56.1590
 1.2470	56.2030
 1.2480	56.2440
 1.2490	56.2850
 1.2500	56.3240
 1.2510	56.3660
 1.2520	56.4080
 1.2530	56.4490
 1.2540	56.4890
 1.2550	56.5250
 1.2560	56.5610
 1.2570	56.5980
 1.2580	56.6320
 1.2590	56.6660
 1.2600	56.7000
 1.2610	56.7310
 1.2620	56.7570
 1.2630	56.7860
 1.2640	56.8130
 1.2650	56.8380
 1.2660	56.8630
 1.2670	56.8870
 1.2680	56.9120
 1.2690	56.9360
 1.2700	56.9640
 1.2710	56.9910
 1.2720	57.0130
 1.2730	57.0370
 1.2740	57.0590
 1.2750	57.0780
 1.2760	57.0980
 1.2770	57.1150
 1.2780	57.1320
 1.2790	57.1520
 1.2800	57.1730
 1.2810	57.1910
 1.2820	57.2100
 1.2830	57.2260
 1.2840	57.2390
 1.2850	57.2550
 1.2860	57.2630
 1.2870	57.2690
 1.2880	57.2720
 1.2890	57.2750
 1.2900	57.2740
 1.2910	57.2770
 1.2920	57.2760
 1.2930	57.2740
 1.2940	57.2700
 1.2950	57.2620
 1.2960	57.2560
 1.2970	57.2480
 1.2980	57.2360
 1.2990	57.2220
 1.3000	57.2030
 1.3010	57.1820
 1.3020	57.1620
 1.3030	57.1400
 1.3040	57.1170
 1.3050	57.0940
 1.3060	57.0690
 1.3070	57.0380
 1.3080	57.0020
 1.3090	56.9580
 1.3100	56.9110
 1.3110	56.8660
 1.3120	56.8200
 1.3130	56.7790
 1.3140	56.7330
 1.3150	56.6820
 1.3160	56.6300
 1.3170	56.5760
 1.3180	56.5170
 1.3190	56.4540
 1.3200	56.3940
 1.3210	56.3330
 1.3220	56.2680
 1.3230	56.1980
 1.3240	56.1230
 1.3250	56.0420
 1.3260	55.9600
 1.3270	55.8810
 1.3280	55.8040
 1.3290	55.7270
 1.3300	55.6500
 1.3310	55.5650
 1.3320	55.4770
 1.3330	55.3850
 1.3340	55.2900
 1.3350	55.1950
 1.3360	55.1000
 1.3370	55.0030
 1.3380	54.9080
 1.3390	54.8100
 1.3400	54.7100
 1.3410	54.6140
 1.3420	54.5170
 1.3430	54.4170
 1.3440	54.3160
 1.3450	54.2140
 1.3460	54.1060
 1.3470	54.0020
 1.3480	53.8970
 1.3490	53.7930
 1.3500	53.6900
 1.3510	53.5850
 1.3520	53.4790
 1.3530	53.3720
 1.3540	53.2600
 1.3550	53.1490
 1.3560	53.0400
 1.3570	52.9290
 1.3580	52.8230
 1.3590	52.7160
 1.3600	52.6080
 1.3610	52.4980
 1.3620	52.3870
 1.3630	52.2810
 1.3640	52.1720
 1.3650	52.0560
 1.3660	51.9410
 1.3670	51.8150
 1.3680	51.6800
 1.3690	51.5450
 1.3700	51.4000
 1.3710	51.2480
 1.3720	51.0900
 1.3730	50.9220
 1.3740	50.7450
 1.3750	50.5560
 1.3760	50.3550
 1.3770	50.1450
 1.3780	49.9160
 1.3790	49.6760
 1.3800	49.4230
 1.3810	49.1570
 1.3820	48.8800
 1.3830	48.5930
 1.3840	48.2920
 1.3850	47.9810
 1.3860	47.6570
 1.3870	47.3190
 1.3880	46.9780
 1.3890	46.6260
 1.3900	46.2650
 1.3910	45.9060
 1.3920	45.5400
 1.3930	45.1700
 1.3940	44.8000
 1.3950	44.4240
 1.3960	44.0500
 1.3970	43.6800
 1.3980	43.3120
 1.3990	42.9520
 1.4000	42.5960
 1.4010	42.2420
 1.4020	41.8980
 1.4030	41.5620
 1.4040	41.2340
 1.4050	40.9180
 1.4060	40.6070
 1.4070	40.3110
 1.4080	40.0260
 1.4090	39.7510
 1.4100	39.4930
 1.4110	39.2480
 1.4120	39.0140
 1.4130	38.7960
 1.4140	38.5910
 1.4150	38.3990
 1.4160	38.2220
 1.4170	38.0590
 1.4180	37.9060
 1.4190	37.7620
 1.4200	37.6280
 1.4210	37.5040
 1.4220	37.3890
 1.4230	37.2870
 1.4240	37.1930
 1.4250	37.1070
 1.4260	37.0290
 1.4270	36.9560
 1.4280	36.8890
 1.4290	36.8280
 1.4300	36.7730
 1.4310	36.7260
 1.4320	36.6880
 1.4330	36.6540
 1.4340	36.6280
 1.4350	36.6040
 1.4360	36.5860
 1.4370	36.5730
 1.4380	36.5630
 1.4390	36.5590
 1.4400	36.5590
 1.4410	36.5600
 1.4420	36.5660
 1.4430	36.5740
 1.4440	36.5790
 1.4450	36.5870
 1.4460	36.5960
 1.4470	36.6070
 1.4480	36.6230
 1.4490	36.6410
 1.4500	36.6600
 1.4510	36.6810
 1.4520	36.7030
 1.4530	36.7280
 1.4540	36.7570
 1.4550	36.7860
 1.4560	36.8180
 1.4570	36.8490
 1.4580	36.8800
 1.4590	36.9160
 1.4600	36.9560
 1.4610	37.0010
 1.4620	37.0520
 1.4630	37.1050
 1.4640	37.1590
 1.4650	37.2170
 1.4660	37.2780
 1.4670	37.3420
 1.4680	37.4130
 1.4690	37.4860
 1.4700	37.5580
 1.4710	37.6350
 1.4720	37.7140
 1.4730	37.7920
 1.4740	37.8770
 1.4750	37.9640
 1.4760	38.0550
 1.4770	38.1490
 1.4780	38.2450
 1.4790	38.3430
 1.4800	38.4390
 1.4810	38.5380
 1.4820	38.6360
 1.4830	38.7330
 1.4840	38.8310
 1.4850	38.9300
 1.4860	39.0290
 1.4870	39.1290
 1.4880	39.2300
 1.4890	39.3290
 1.4900	39.4290
 1.4910	39.5280
 1.4920	39.6300
 1.4930	39.7350
 1.4940	39.8390
 1.4950	39.9450
 1.4960	40.0480
 1.4970	40.1480
 1.4980	40.2500
 1.4990	40.3520
 1.5000	40.4530
 1.5010	40.5540
 1.5020	40.6540
 1.5030	40.7530
 1.5040	40.8520
 1.5050	40.9530
 1.5060	41.0530
 1.5070	41.1500
 1.5080	41.2510
 1.5090	41.3540
 1.5100	41.4530
 1.5110	41.5540
 1.5120	41.6550
 1.5130	41.7510
 1.5140	41.8450
 1.5150	41.9380
 1.5160	42.0280
 1.5170	42.1190
 1.5180	42.2060
 1.5190	42.2920
 1.5200	42.3800
 1.5210	42.4640
 1.5220	42.5490
 1.5230	42.6310
 1.5240	42.7100
 1.5250	42.7910
 1.5260	42.8700
 1.5270	42.9500
 1.5280	43.0310
 1.5290	43.1070
 1.5300	43.1800
 1.5310	43.2540
 1.5320	43.3250
 1.5330	43.3960
 1.5340	43.4670
 1.5350	43.5380
 1.5360	43.6090
 1.5370	43.6780
 1.5380	43.7470
 1.5390	43.8160
 1.5400	43.8830
 1.5410	43.9490
 1.5420	44.0160
 1.5430	44.0840
 1.5440	44.1530
 1.5450	44.2200
 1.5460	44.2870
 1.5470	44.3520
 1.5480	44.4160
 1.5490	44.4780
 1.5500	44.5380
 1.5510	44.5970
 1.5520	44.6570
 1.5530	44.7200
 1.5540	44.7850
 1.5550	44.8470
 1.5560	44.9050
 1.5570	44.9620
 1.5580	45.0170
 1.5590	45.0740
 1.5600	45.1340
 1.5610	45.1890
 1.5620	45.2440
 1.5630	45.3020
 1.5640	45.3520
 1.5650	45.4040
 1.5660	45.4570
 1.5670	45.5040
 1.5680	45.5570
 1.5690	45.6130
 1.5700	45.6680
 1.5710	45.7260
 1.5720	45.7810
 1.5730	45.8330
 1.5740	45.8860
 1.5750	45.9380
 1.5760	45.9930
 1.5770	46.0470
 1.5780	46.0990
 1.5790	46.1520
 1.5800	46.2020
 1.5810	46.2530
 1.5820	46.3050
 1.5830	46.3580
 1.5840	46.4100
 1.5850	46.4630
 1.5860	46.5150
 1.5870	46.5700
 1.5880	46.6240
 1.5890	46.6770
 1.5900	46.7320
 1.5910	46.7860
 1.5920	46.8400
 1.5930	46.8950
 1.5940	46.9470
 1.5950	47.0010
 1.5960	47.0570
 1.5970	47.1150
 1.5980	47.1710
 1.5990	47.2260
 1.6000	47.2780
 1.6010	47.3290
 1.6020	47.3810
 1.6030	47.4320
 1.6040	47.4830
 1.6050	47.5320
 1.6060	47.5820
 1.6070	47.6310
 1.6080	47.6790
 1.6090	47.7230
 1.6100	47.7670
 1.6110	47.8110
 1.6120	47.8500
 1.6130	47.8920
 1.6140	47.9350
 1.6150	47.9740
 1.6160	48.0150
 1.6170	48.0550
 1.6180	48.0870
 1.6190	48.1200
 1.6200	48.1510
 1.6210	48.1810
 1.6220	48.2110
 1.6230	48.2350
 1.6240	48.2590
 1.6250	48.2820
 1.6260	48.3010
 1.6270	48.3230
 1.6280	48.3470
 1.6290	48.3670
 1.6300	48.3840
 1.6310	48.4050
 1.6320	48.4230
 1.6330	48.4450
 1.6340	48.4750
 1.6350	48.4980
 1.6360	48.5190
 1.6370	48.5410
 1.6380	48.5610
 1.6390	48.5850
 1.6400	48.6120
 1.6410	48.6350
 1.6420	48.6590
 1.6430	48.6790
 1.6440	48.6940
 1.6450	48.7100
 1.6460	48.7210
 1.6470	48.7320
 1.6480	48.7420
 1.6490	48.7490
 1.6500	48.7520
 1.6510	48.7480
 1.6520	48.7390
 1.6530	48.7260
 1.6540	48.7110
 1.6550	48.6960
 1.6560	48.6780
 1.6570	48.6550
 1.6580	48.6260
 1.6590	48.5910
 1.6600	48.5540
 1.6610	48.5150
 1.6620	48.4730
 1.6630	48.4280
 1.6640	48.3790
 1.6650	48.3280
 1.6660	48.2750
 1.6670	48.2150
 1.6680	48.1470
 1.6690	48.0690
 1.6700	47.9850
 1.6710	47.8950
 1.6720	47.8010
 1.6730	47.7000
 1.6740	47.5870
 1.6750	47.4670
 1.6760	47.3400
 1.6770	47.2060
 1.6780	47.0660
 1.6790	46.9220
 1.6800	46.7740
 1.6810	46.6210
 1.6820	46.4700
 1.6830	46.3170
 1.6840	46.1610
 1.6850	46.0090
 1.6860	45.8550
 1.6870	45.7000
 1.6880	45.5470
 1.6890	45.3880
 1.6900	45.2380
 1.6910	45.0940
 1.6920	44.9530
 1.6930	44.8150
 1.6940	44.6860
 1.6950	44.5600
 1.6960	44.4430
 1.6970	44.3390
 1.6980	44.2380
 1.6990	44.1430
 1.7000	44.0570
 1.7010	43.9790
 1.7020	43.9040
 1.7030	43.8390
 1.7040	43.7750
 1.7050	43.7140
 1.7060	43.6550
 1.7070	43.6010
 1.7080	43.5450
 1.7090	43.4890
 1.7100	43.4360
 1.7110	43.3800
 1.7120	43.3380
 1.7130	43.2940
 1.7140	43.2510
 1.7150	43.2100
 1.7160	43.1630
 1.7170	43.1180
 1.7180	43.0770
 1.7190	43.0400
 1.7200	43.0050
 1.7210	42.9750
 1.7220	42.9520
 1.7230	42.9280
 1.7240	42.9050
 1.7250	42.8850
 1.7260	42.8660
 1.7270	42.8500
 1.7280	42.8410
 1.7290	42.8390
 1.7300	42.8400
 1.7310	42.8500
 1.7320	42.8710
 1.7330	42.8940
 1.7340	42.9260
 1.7350	42.9570
 1.7360	42.9940
 1.7370	43.0250
 1.7380	43.0590
 1.7390	43.0820
 1.7400	43.0940
 1.7410	43.1060
 1.7420	43.1120
 1.7430	43.1140
 1.7440	43.1170
 1.7450	43.1100
 1.7460	43.0920
 1.7470	43.0780
 1.7480	43.0580
 1.7490	43.0450
 1.7500	43.0350
 1.7510	43.0290
 1.7520	43.0250
 1.7530	43.0260
 1.7540	43.0310
 1.7550	43.0390
 1.7560	43.0490
 1.7570	43.0660
 1.7580	43.0850
 1.7590	43.1060
 1.7600	43.1320
 1.7610	43.1600
 1.7620	43.1910
 1.7630	43.2280
 1.7640	43.2660
 1.7650	43.3080
 1.7660	43.3500
 1.7670	43.3930
 1.7680	43.4380
 1.7690	43.4810
 1.7700	43.5270
 1.7710	43.5790
 1.7720	43.6260
 1.7730	43.6750
 1.7740	43.7160
 1.7750	43.7480
 1.7760	43.7860
 1.7770	43.8220
 1.7780	43.8580
 1.7790	43.9000
 1.7800	43.9330
 1.7810	43.9610
 1.7820	43.9900
 1.7830	44.0170
 1.7840	44.0430
 1.7850	44.0690
 1.7860	44.0920
 1.7870	44.1120
 1.7880	44.1290
 1.7890	44.1470
 1.7900	44.1660
 1.7910	44.1830
 1.7920	44.2020
 1.7930	44.2210
 1.7940	44.2400
 1.7950	44.2600
 1.7960	44.2830
 1.7970	44.3040
 1.7980	44.3230
 1.7990	44.3430
 1.8000	44.3600
 1.8010	44.3820
 1.8020	44.4060
 1.8030	44.4310
 1.8040	44.4630
 1.8050	44.4870
 1.8060	44.5080
 1.8070	44.5270
 1.8080	44.5380
 1.8090	44.5560
 1.8100	44.5770
 1.8110	44.5980
 1.8120	44.6180
 1.8130	44.6370
 1.8140	44.6540
 1.8150	44.6720
 1.8160	44.6950
 1.8170	44.7140
 1.8180	44.7340
 1.8190	44.7590
 1.8200	44.7810
 1.8210	44.8010
 1.8220	44.8250
 1.8230	44.8520
 1.8240	44.8730
 1.8250	44.8960
 1.8260	44.9150
 1.8270	44.9260
 1.8280	44.9360
 1.8290	44.9450
 1.8300	44.8310
 1.8310	44.5930
 1.8320	44.4660
 1.8330	44.4590
 1.8340	44.4500
 1.8350	44.4430
 1.8360	44.4370
 1.8370	44.4340
 1.8380	44.4230
 1.8390	44.4080
 1.8400	44.3930
 1.8410	44.3710
 1.8420	44.3420
 1.8430	44.3100
 1.8440	44.2810
 1.8450	44.2430
 1.8460	44.2010
 1.8470	44.1560
 1.8480	44.0970
 1.8490	44.0350
 1.8500	43.9660
 1.8510	43.8910
 1.8520	43.8060
 1.8530	43.7200
 1.8540	43.6230
 1.8550	43.5110
 1.8560	43.3910
 1.8570	43.2520
 1.8580	43.1010
 1.8590	42.9460
 1.8600	42.7840
 1.8610	42.6080
 1.8620	42.4220
 1.8630	42.2260
 1.8640	42.0130
 1.8650	41.7920
 1.8660	41.5570
 1.8670	41.3020
 1.8680	41.0380
 1.8690	40.7510
 1.8700	40.4450
 1.8710	40.1220
 1.8720	39.7890
 1.8730	39.4370
 1.8740	39.0720
 1.8750	38.7030
 1.8760	38.3140
 1.8770	37.9170
 1.8780	37.5140
 1.8790	37.0930
 1.8800	36.6720
 1.8810	36.2480
 1.8820	35.8150
 1.8830	35.3710
 1.8840	34.9280
 1.8850	34.4730
 1.8860	34.0160
 1.8870	33.5550
 1.8880	33.0910
 1.8890	32.6380
 1.8900	32.1890
 1.8910	31.7510
 1.8920	31.3200
 1.8930	30.9050
 1.8940	30.4940
 1.8950	30.0970
 1.8960	29.7200
 1.8970	29.3560
 1.8980	29.0130
 1.8990	28.6850
 1.9000	28.3710
 1.9010	28.0700
 1.9020	27.7870
 1.9030	27.5200
 1.9040	27.2730
 1.9050	27.0430
 1.9060	26.8300
 1.9070	26.6410
 1.9080	26.4630
 1.9090	26.2970
 1.9100	26.1470
 1.9110	26.0080
 1.9120	25.8750
 1.9130	25.7630
 1.9140	25.6680
 1.9150	25.5830
 1.9160	25.5110
 1.9170	25.4520
 1.9180	25.3940
 1.9190	25.3440
 1.9200	25.3030
 1.9210	25.2700
 1.9220	25.2440
 1.9230	25.2250
 1.9240	25.2130
 1.9250	25.2090
 1.9260	25.2110
 1.9270	25.2210
 1.9280	25.2370
 1.9290	25.2570
 1.9300	25.2770
 1.9310	25.2960
 1.9320	25.3200
 1.9330	25.3500
 1.9340	25.3890
 1.9350	25.4240
 1.9360	25.4580
 1.9370	25.4990
 1.9380	25.5410
 1.9390	25.5840
 1.9400	25.6330
 1.9410	25.6900
 1.9420	25.7450
 1.9430	25.8020
 1.9440	25.8630
 1.9450	25.9270
 1.9460	25.9930
 1.9470	26.0620
 1.9480	26.1320
 1.9490	26.2040
 1.9500	26.2760
 1.9510	26.3490
 1.9520	26.4190
 1.9530	26.4850
 1.9540	26.5540
 1.9550	26.6290
 1.9560	26.7060
 1.9570	26.7860
 1.9580	26.8750
 1.9590	26.9620
 1.9600	27.0520
 1.9610	27.1390
 1.9620	27.2250
 1.9630	27.3110
 1.9640	27.4000
 1.9650	27.4820
 1.9660	27.5640
 1.9670	27.6530
 1.9680	27.7390
 1.9690	27.8230
 1.9700	27.9090
 1.9710	27.9960
 1.9720	28.0830
 1.9730	28.1730
 1.9740	28.2600
 1.9750	28.3490
 1.9760	28.4380
 1.9770	28.5260
 1.9780	28.6150
 1.9790	28.7020
 1.9800	28.7880
 1.9810	28.8760
 1.9820	28.9640
 1.9830	29.0510
 1.9840	29.1380
 1.9850	29.2250
 1.9860	29.3120
 1.9870	29.3990
 1.9880	29.4890
 1.9890	29.5780
 1.9900	29.6660
 1.9910	29.7540
 1.9920	29.8410
 1.9930	29.9310
 1.9940	30.0140
 1.9950	30.0890
 1.9960	30.1690
 1.9970	30.2450
 1.9980	30.3230
 1.9990	30.4020
 2.0000	30.4820
 2.0010	30.5570
 2.0020	30.6280
 2.0030	30.6990
 2.0040	30.7670
 2.0050	30.8370
 2.0060	30.9110
 2.0070	30.9750
 2.0080	31.0370
 2.0090	31.0960
 2.0100	31.1460
 2.0110	31.2000
 2.0120	31.2560
 2.0130	31.3070
 2.0140	31.3560
 2.0150	31.4050
 2.0160	31.4500
 2.0170	31.4980
 2.0180	31.5420
 2.0190	31.5830
 2.0200	31.6260
 2.0210	31.6690
 2.0220	31.7060
 2.0230	31.7450
 2.0240	31.7770
 2.0250	31.8000
 2.0260	31.8230
 2.0270	31.8420
 2.0280	31.8600
 2.0290	31.8770
 2.0300	31.8970
 2.0310	31.9120
 2.0320	31.9250
 2.0330	31.9360
 2.0340	31.9440
 2.0350	31.9520
 2.0360	31.9610
 2.0370	31.9670
 2.0380	31.9710
 2.0390	31.9740
 2.0400	31.9740
 2.0410	31.9730
 2.0420	31.9710
 2.0430	31.9650
 2.0440	31.9600
 2.0450	31.9520
 2.0460	31.9450
 2.0470	31.9400
 2.0480	31.9340
 2.0490	31.9240
 2.0500	31.9200
 2.0510	31.9170
 2.0520	31.9160
 2.0530	31.9190
 2.0540	31.9210
 2.0550	31.9240
 2.0560	31.9270
 2.0570	31.9290
 2.0580	31.9320
 2.0590	31.9370
 2.0600	31.9450
 2.0610	31.9500
 2.0620	31.9580
 2.0630	31.9630
 2.0640	31.9640
 2.0650	31.9680
 2.0660	31.9730
 2.0670	31.9790
 2.0680	31.9860
 2.0690	31.9950
 2.0700	32.0070
 2.0710	32.0180
 2.0720	32.0270
 2.0730	32.0420
 2.0740	32.0520
 2.0750	32.0570
 2.0760	32.0710
 2.0770	32.0890
 2.0780	32.1040
 2.0790	32.1250
 2.0800	32.1450
 2.0810	32.1610
 2.0820	32.1810
 2.0830	32.2060
 2.0840	32.2280
 2.0850	32.2470
 2.0860	32.2670
 2.0870	32.2860
 2.0880	32.3060
 2.0890	32.3250
 2.0900	32.3440
 2.0910	32.3620
 2.0920	32.3820
 2.0930	32.4000
 2.0940	32.4170
 2.0950	32.4360
 2.0960	32.4530
 2.0970	32.4750
 2.0980	32.5020
 2.0990	32.5250
 2.1000	32.5510
 2.1010	32.5740
 2.1020	32.5920
 2.1030	32.6130
 2.1040	32.6340
 2.1050	32.6540
 2.1060	32.6770
 2.1070	32.7000
 2.1080	32.7240
 2.1090	32.7490
 2.1100	32.7720
 2.1110	32.7920
 2.1120	32.8140
 2.1130	32.8360
 2.1140	32.8590
 2.1150	32.8870
 2.1160	32.9130
 2.1170	32.9370
 2.1180	32.9630
 2.1190	32.9910
 2.1200	33.0160
 2.1210	33.0430
 2.1220	33.0660
 2.1230	33.0870
 2.1240	33.1050
 2.1250	33.1270
 2.1260	33.1470
 2.1270	33.1740
 2.1280	33.2080
 2.1290	33.2380
 2.1300	33.2730
 2.1310	33.2990
 2.1320	33.3160
 2.1330	33.3380
 2.1340	33.3620
 2.1350	33.3810
 2.1360	33.4010
 2.1370	33.4190
 2.1380	33.4300
 2.1390	33.4440
 2.1400	33.4580
 2.1410	33.4740
 2.1420	33.4910
 2.1430	33.5090
 2.1440	33.5300
 2.1450	33.5550
 2.1460	33.5770
 2.1470	33.6040
 2.1480	33.6230
 2.1490	33.6380
 2.1500	33.6540
 2.1510	33.6630
 2.1520	33.6800
 2.1530	33.7040
 2.1540	33.7250
 2.1550	33.7500
 2.1560	33.7720
 2.1570	33.7900
 2.1580	33.8080
 2.1590	33.8230
 2.1600	33.8440
 2.1610	33.8650
 2.1620	33.8840
 2.1630	33.9080
 2.1640	33.9380
 2.1650	33.9610
 2.1660	33.9860
 2.1670	34.0060
 2.1680	34.0210
 2.1690	34.0380
 2.1700	34.0510
 2.1710	34.0700
 2.1720	34.0940
 2.1730	34.1130
 2.1740	34.1320
 2.1750	34.1540
 2.1760	34.1760
 2.1770	34.1960
 2.1780	34.2240
 2.1790	34.2440
 2.1800	34.2510
 2.1810	34.2670
 2.1820	34.2910
 2.1830	34.3050
 2.1840	34.3270
 2.1850	34.3590
 2.1860	34.3790
 2.1870	34.3960
 2.1880	34.4140
 2.1890	34.4280
 2.1900	34.4470
 2.1910	34.4740
 2.1920	34.4930
 2.1930	34.5080
 2.1940	34.5270
 2.1950	34.5440
 2.1960	34.5610
 2.1970	34.5820
 2.1980	34.5980
 2.1990	34.6040
 2.2000	34.6190
 2.2010	34.6390
 2.2020	34.6560
 2.2030	34.6760
 2.2040	34.6950
 2.2050	34.7130
 2.2060	34.7240
 2.2070	34.7370
 2.2080	34.7530
 2.2090	34.7600
 2.2100	34.7640
 2.2110	34.7610
 2.2120	34.7500
 2.2130	34.7420
 2.2140	34.7280
 2.2150	34.7170
 2.2160	34.7110
 2.2170	34.6960
 2.2180	34.6760
 2.2190	34.6550
 2.2200	34.6320
 2.2210	34.6030
 2.2220	34.5760
 2.2230	34.5390
 2.2240	34.4930
 2.2250	34.4460
 2.2260	34.3950
 2.2270	34.3430
 2.2280	34.2930
 2.2290	34.2340
 2.2300	34.1710
 2.2310	34.1000
 2.2320	34.0340
 2.2330	33.9600
 2.2340	33.8820
 2.2350	33.8080
 2.2360	33.7150
 2.2370	33.6080
 2.2380	33.5030
 2.2390	33.3900
 2.2400	33.2730
 2.2410	33.1510
 2.2420	33.0300
 2.2430	32.9070
 2.2440	32.7760
 2.2450	32.6430
 2.2460	32.5030
 2.2470	32.3510
 2.2480	32.1990
 2.2490	32.0430
 2.2500	31.8860
 2.2510	31.7210
 2.2520	31.5620
 2.2530	31.4070
 2.2540	31.2500
 2.2550	31.0940
 2.2560	30.9360
 2.2570	30.7760
 2.2580	30.6160
 2.2590	30.4500
 2.2600	30.2940
 2.2610	30.1420
 2.2620	29.9970
 2.2630	29.8630
 2.2640	29.7350
 2.2650	29.6110
 2.2660	29.4900
 2.2670	29.3730
 2.2680	29.2620
 2.2690	29.1490
 2.2700	29.0370
 2.2710	28.9330
 2.2720	28.8320
 2.2730	28.7320
 2.2740	28.6400
 2.2750	28.5440
 2.2760	28.4460
 2.2770	28.3490
 2.2780	28.2520
 2.2790	28.1600
 2.2800	28.0700
 2.2810	27.9810
 2.2820	27.8990
 2.2830	27.8140
 2.2840	27.7270
 2.2850	27.6390
 2.2860	27.5570
 2.2870	27.4630
 2.2880	27.3590
 2.2890	27.2590
 2.2900	27.1530
 2.2910	27.0460
 2.2920	26.9380
 2.2930	26.8310
 2.2940	26.7190
 2.2950	26.6140
 2.2960	26.5070
 2.2970	26.4130
 2.2980	26.3280
 2.2990	26.2450
 2.3000	26.1760
 2.3010	26.1190
 2.3020	26.0650
 2.3030	26.0250
 2.3040	25.9990
 2.3050	25.9850
 2.3060	25.9800
 2.3070	25.9830
 2.3080	25.9980
 2.3090	26.0270
 2.3100	26.0670
 2.3110	26.1190
 2.3120	26.1710
 2.3130	26.2310
 2.3140	26.2890
 2.3150	26.3490
 2.3160	26.4140
 2.3170	26.4850
 2.3180	26.5490
 2.3190	26.6240
 2.3200	26.6750
 2.3210	26.7160
 2.3220	26.7450
 2.3230	26.7560
 2.3240	26.7700
 2.3250	26.7810
 2.3260	26.7840
 2.3270	26.7820
 2.3280	26.7720
 2.3290	26.7510
 2.3300	26.7270
 2.3310	26.7010
 2.3320	26.6640
 2.3330	26.6090
 2.3340	26.5640
 2.3350	26.5110
 2.3360	26.4650
 2.3370	26.4270
 2.3380	26.3860
 2.3390	26.3470
 2.3400	26.3010
 2.3410	26.2470
 2.3420	26.2050
 2.3430	26.1640
 2.3440	26.1260
 2.3450	26.0940
 2.3460	26.0720
 2.3470	26.0510
 2.3480	26.0350
 2.3490	26.0320
 2.3500	26.0300
 2.3510	26.0300
 2.3520	26.0340
 2.3530	26.0470
 2.3540	26.0590
 2.3550	26.0640
 2.3560	26.0770
 2.3570	26.0850
 2.3580	26.0970
 2.3590	26.1170
 2.3600	26.1410
 2.3610	26.1760
 2.3620	26.2020
 2.3630	26.2050
 2.3640	26.2070
 2.3650	26.2100
 2.3660	26.2090
 2.3670	26.2200
 2.3680	26.2280
 2.3690	26.2200
 2.3700	26.2060
 2.3710	26.1880
 2.3720	26.1820
 2.3730	26.1750
 2.3740	26.1650
 2.3750	26.1470
 2.3760	26.1190
 2.3770	26.0910
 2.3780	26.0780
 2.3790	26.0640
 2.3800	26.0460
 2.3810	26.0420
 2.3820	26.0170
 2.3830	26.0000
 2.3840	26.0070
 2.3850	26.0000
 2.3860	25.9970
 2.3870	25.9930
 2.3880	25.9690
 2.3890	25.9440
 2.3900	25.9280
 2.3910	25.9020
 2.3920	25.8810
 2.3930	25.8590
 2.3940	25.8220
 2.3950	25.7920
 2.3960	25.7540
 2.3970	25.7150
 2.3980	25.6810
 2.3990	25.6520
 2.4000	25.6290
 2.4010	25.5850
 2.4020	25.5400
 2.4030	25.5060
 2.4040	25.4840
 2.4050	25.4690
 2.4060	25.4500
 2.4070	25.4180
 2.4080	25.3740
 2.4090	25.3350
 2.4100	25.2920
 2.4110	25.2460
 2.4120	25.2170
 2.4130	25.2020
 2.4140	25.2160
 2.4150	25.2190
 2.4160	25.1880
 2.4170	25.1350
 2.4180	25.0350
 2.4190	24.9690
 2.4200	24.9350
 2.4210	24.8710
 2.4220	24.8490
 2.4230	24.8360
 2.4240	24.7930
 2.4250	24.7760
 2.4260	24.7520
 2.4270	24.7110
 2.4280	24.6650
 2.4290	24.5960
 2.4300	24.5490
 2.4310	24.5060
 2.4320	24.4260
 2.4330	24.3570
 2.4340	24.2880
 2.4350	24.2030
 2.4360	24.1660
 2.4370	24.1480
 2.4380	24.1230
 2.4390	24.1170
 2.4400	24.0670
 2.4410	23.9780
 2.4420	23.9170
 2.4430	23.8220
 2.4440	23.7310
 2.4450	23.7110
 2.4460	23.6700
 2.4470	23.6210
 2.4480	23.5780
 2.4490	23.4870
 2.4500	23.3990
 2.4510	23.3530
 2.4520	23.3230
 2.4530	23.2780
 2.4540	23.2380
 2.4550	23.1670
 2.4560	23.0580
 2.4570	23.0040
 2.4580	22.9470
 2.4590	22.8760
 2.4600	22.8440
 2.4610	22.8050
 2.4620	22.7330
 2.4630	22.6590
 2.4640	22.6050
 2.4650	22.5090
 2.4660	22.4560
 2.4670	22.4750
 2.4680	22.4230
 2.4690	22.3830
 2.4700	22.3370
 2.4710	22.2340
 2.4720	22.2000
 2.4730	22.2230
 2.4740	22.1930
 2.4750	22.1500
 2.4760	22.1250
 2.4770	22.0770
 2.4780	22.0280
 2.4790	22.0330
 2.4800	22.0080
 2.4810	21.9070
 2.4820	21.9390
 2.4830	21.9310
 2.4840	21.8800
 2.4850	21.9130
 2.4860	21.9440
 2.4870	21.9060
 2.4880	21.8690
 2.4890	21.8600
 2.4900	21.8290
 2.4910	21.8470
 2.4920	21.8860
 2.4930	21.8600
 2.4940	21.8230
 2.4950	21.7220
 2.4960	21.6770
 2.4970	21.7300
 2.4980	21.7280
 2.4990	21.7580
 2.5000	21.8010
