Name: Peltophorum dubium
Type: vegetation
Class: Tree
Genus: Peltophorum
Species: dubium
Sample No.: JPL169
Owner: JPL
Wavelength Range: VSWIR
Origin: 34.12584; -118.11246; WGS84
Collection Date: 9/14/2016
Description: Samples were collected at the Huntington Garden in San Marino California as part of a JPL Subcontract studying HyTES imagery. Samples were taken to JPL and processed within 48 hours of collection. The same leaves were processed in the Nicolet and then measured using the ASD.
Measurement: Bidirectional reflectance
First Column: X
Second Column: Y
X Units: Wavelength (micrometer)
Y Units: Reflectance (percentage)
First X Value: 0.35
Last X Value: 2.5
Number of X Values: 2151
Additional Information: vegetation.tree.peltophorum.dubium.vswir.jpl169.jpl.asd.ancillary.txt

 0.3500	 2.7840
 0.3510	 2.8700
 0.3520	 2.9580
 0.3530	 2.9390
 0.3540	 2.8040
 0.3550	 2.8380
 0.3560	 2.9040
 0.3570	 2.9140
 0.3580	 2.8280
 0.3590	 2.7300
 0.3600	 2.6830
 0.3610	 2.7090
 0.3620	 2.7880
 0.3630	 2.8260
 0.3640	 2.8160
 0.3650	 2.7920
 0.3660	 2.8500
 0.3670	 2.8400
 0.3680	 2.7690
 0.3690	 2.7520
 0.3700	 2.7500
 0.3710	 2.7430
 0.3720	 2.7350
 0.3730	 2.7670
 0.3740	 2.7380
 0.3750	 2.6850
 0.3760	 2.6810
 0.3770	 2.7420
 0.3780	 2.7440
 0.3790	 2.6940
 0.3800	 2.7100
 0.3810	 2.7280
 0.3820	 2.7260
 0.3830	 2.7090
 0.3840	 2.7270
 0.3850	 2.6710
 0.3860	 2.6200
 0.3870	 2.6870
 0.3880	 2.7330
 0.3890	 2.7360
 0.3900	 2.7050
 0.3910	 2.6760
 0.3920	 2.7090
 0.3930	 2.7400
 0.3940	 2.7160
 0.3950	 2.6760
 0.3960	 2.6960
 0.3970	 2.7230
 0.3980	 2.6700
 0.3990	 2.6750
 0.4000	 2.6860
 0.4010	 2.6770
 0.4020	 2.6850
 0.4030	 2.6920
 0.4040	 2.7050
 0.4050	 2.7240
 0.4060	 2.7050
 0.4070	 2.6830
 0.4080	 2.6820
 0.4090	 2.7070
 0.4100	 2.7100
 0.4110	 2.7030
 0.4120	 2.6940
 0.4130	 2.6720
 0.4140	 2.6800
 0.4150	 2.6960
 0.4160	 2.6940
 0.4170	 2.7060
 0.4180	 2.7200
 0.4190	 2.7280
 0.4200	 2.7240
 0.4210	 2.7080
 0.4220	 2.7040
 0.4230	 2.7210
 0.4240	 2.7240
 0.4250	 2.7290
 0.4260	 2.7320
 0.4270	 2.7270
 0.4280	 2.7260
 0.4290	 2.7250
 0.4300	 2.7250
 0.4310	 2.7350
 0.4320	 2.7310
 0.4330	 2.7190
 0.4340	 2.7100
 0.4350	 2.7150
 0.4360	 2.7240
 0.4370	 2.7310
 0.4380	 2.7330
 0.4390	 2.7320
 0.4400	 2.7350
 0.4410	 2.7450
 0.4420	 2.7540
 0.4430	 2.7580
 0.4440	 2.7600
 0.4450	 2.7680
 0.4460	 2.7710
 0.4470	 2.7760
 0.4480	 2.7840
 0.4490	 2.7850
 0.4500	 2.7870
 0.4510	 2.7920
 0.4520	 2.8000
 0.4530	 2.8100
 0.4540	 2.8130
 0.4550	 2.8100
 0.4560	 2.8120
 0.4570	 2.8180
 0.4580	 2.8250
 0.4590	 2.8300
 0.4600	 2.8310
 0.4610	 2.8370
 0.4620	 2.8400
 0.4630	 2.8310
 0.4640	 2.8230
 0.4650	 2.8260
 0.4660	 2.8350
 0.4670	 2.8340
 0.4680	 2.8330
 0.4690	 2.8360
 0.4700	 2.8440
 0.4710	 2.8410
 0.4720	 2.8450
 0.4730	 2.8510
 0.4740	 2.8440
 0.4750	 2.8500
 0.4760	 2.8590
 0.4770	 2.8620
 0.4780	 2.8590
 0.4790	 2.8570
 0.4800	 2.8590
 0.4810	 2.8660
 0.4820	 2.8740
 0.4830	 2.8780
 0.4840	 2.8780
 0.4850	 2.8810
 0.4860	 2.8820
 0.4870	 2.8870
 0.4880	 2.8980
 0.4890	 2.9060
 0.4900	 2.9120
 0.4910	 2.9190
 0.4920	 2.9350
 0.4930	 2.9560
 0.4940	 2.9740
 0.4950	 2.9890
 0.4960	 3.0080
 0.4970	 3.0310
 0.4980	 3.0580
 0.4990	 3.0910
 0.5000	 3.1220
 0.5010	 3.1580
 0.5020	 3.2010
 0.5030	 3.2470
 0.5040	 3.3030
 0.5050	 3.3660
 0.5060	 3.4330
 0.5070	 3.5100
 0.5080	 3.5920
 0.5090	 3.6800
 0.5100	 3.7780
 0.5110	 3.8860
 0.5120	 4.0060
 0.5130	 4.1370
 0.5140	 4.2710
 0.5150	 4.4110
 0.5160	 4.5630
 0.5170	 4.7270
 0.5180	 4.8950
 0.5190	 5.0710
 0.5200	 5.2530
 0.5210	 5.4390
 0.5220	 5.6200
 0.5230	 5.8000
 0.5240	 5.9820
 0.5250	 6.1630
 0.5260	 6.3300
 0.5270	 6.4890
 0.5280	 6.6490
 0.5290	 6.7910
 0.5300	 6.9180
 0.5310	 7.0370
 0.5320	 7.1530
 0.5330	 7.2530
 0.5340	 7.3440
 0.5350	 7.4290
 0.5360	 7.5060
 0.5370	 7.5710
 0.5380	 7.6300
 0.5390	 7.6900
 0.5400	 7.7580
 0.5410	 7.8310
 0.5420	 7.9040
 0.5430	 7.9620
 0.5440	 8.0010
 0.5450	 8.0220
 0.5460	 8.0300
 0.5470	 8.0290
 0.5480	 8.0290
 0.5490	 8.0350
 0.5500	 8.0460
 0.5510	 8.0540
 0.5520	 8.0520
 0.5530	 8.0390
 0.5540	 8.0150
 0.5550	 7.9830
 0.5560	 7.9420
 0.5570	 7.8880
 0.5580	 7.8240
 0.5590	 7.7520
 0.5600	 7.6750
 0.5610	 7.5950
 0.5620	 7.5110
 0.5630	 7.4190
 0.5640	 7.3200
 0.5650	 7.2240
 0.5660	 7.1270
 0.5670	 7.0240
 0.5680	 6.9170
 0.5690	 6.8100
 0.5700	 6.7030
 0.5710	 6.5940
 0.5720	 6.4860
 0.5730	 6.3840
 0.5740	 6.2880
 0.5750	 6.1940
 0.5760	 6.1080
 0.5770	 6.0270
 0.5780	 5.9500
 0.5790	 5.8810
 0.5800	 5.8180
 0.5810	 5.7580
 0.5820	 5.6990
 0.5830	 5.6440
 0.5840	 5.5900
 0.5850	 5.5370
 0.5860	 5.4900
 0.5870	 5.4500
 0.5880	 5.4130
 0.5890	 5.3750
 0.5900	 5.3420
 0.5910	 5.3090
 0.5920	 5.2780
 0.5930	 5.2520
 0.5940	 5.2270
 0.5950	 5.2050
 0.5960	 5.1880
 0.5970	 5.1740
 0.5980	 5.1590
 0.5990	 5.1410
 0.6000	 5.1190
 0.6010	 5.0940
 0.6020	 5.0670
 0.6030	 5.0390
 0.6040	 5.0060
 0.6050	 4.9650
 0.6060	 4.9220
 0.6070	 4.8800
 0.6080	 4.8320
 0.6090	 4.7870
 0.6100	 4.7450
 0.6110	 4.7050
 0.6120	 4.6530
 0.6130	 4.5920
 0.6140	 4.5280
 0.6150	 4.4740
 0.6160	 4.4240
 0.6170	 4.3770
 0.6180	 4.3340
 0.6190	 4.2980
 0.6200	 4.2680
 0.6210	 4.2400
 0.6220	 4.2130
 0.6230	 4.1880
 0.6240	 4.1690
 0.6250	 4.1570
 0.6260	 4.1440
 0.6270	 4.1350
 0.6280	 4.1290
 0.6290	 4.1240
 0.6300	 4.1200
 0.6310	 4.1140
 0.6320	 4.1050
 0.6330	 4.0960
 0.6340	 4.0820
 0.6350	 4.0630
 0.6360	 4.0380
 0.6370	 4.0070
 0.6380	 3.9690
 0.6390	 3.9270
 0.6400	 3.8820
 0.6410	 3.8360
 0.6420	 3.7870
 0.6430	 3.7360
 0.6440	 3.6830
 0.6450	 3.6350
 0.6460	 3.5880
 0.6470	 3.5410
 0.6480	 3.5030
 0.6490	 3.4700
 0.6500	 3.4430
 0.6510	 3.4200
 0.6520	 3.3990
 0.6530	 3.3790
 0.6540	 3.3600
 0.6550	 3.3400
 0.6560	 3.3190
 0.6570	 3.2930
 0.6580	 3.2630
 0.6590	 3.2350
 0.6600	 3.2070
 0.6610	 3.1780
 0.6620	 3.1490
 0.6630	 3.1220
 0.6640	 3.0990
 0.6650	 3.0810
 0.6660	 3.0660
 0.6670	 3.0540
 0.6680	 3.0460
 0.6690	 3.0420
 0.6700	 3.0430
 0.6710	 3.0470
 0.6720	 3.0520
 0.6730	 3.0590
 0.6740	 3.0700
 0.6750	 3.0840
 0.6760	 3.1020
 0.6770	 3.1210
 0.6780	 3.1420
 0.6790	 3.1650
 0.6800	 3.1910
 0.6810	 3.2220
 0.6820	 3.2540
 0.6830	 3.2890
 0.6840	 3.3330
 0.6850	 3.3850
 0.6860	 3.4490
 0.6870	 3.5270
 0.6880	 3.6240
 0.6890	 3.7500
 0.6900	 3.9110
 0.6910	 4.1120
 0.6920	 4.3550
 0.6930	 4.6430
 0.6940	 4.9810
 0.6950	 5.3650
 0.6960	 5.7970
 0.6970	 6.2680
 0.6980	 6.7710
 0.6990	 7.3090
 0.7000	 7.8760
 0.7010	 8.4630
 0.7020	 9.0670
 0.7030	 9.6800
 0.7040	10.3010
 0.7050	10.9260
 0.7060	11.5560
 0.7070	12.1870
 0.7080	12.8180
 0.7090	13.4460
 0.7100	14.0700
 0.7110	14.6970
 0.7120	15.3240
 0.7130	15.9460
 0.7140	16.5650
 0.7150	17.1810
 0.7160	17.7950
 0.7170	18.4050
 0.7180	19.0050
 0.7190	19.5970
 0.7200	20.1800
 0.7210	20.7540
 0.7220	21.3130
 0.7230	21.8560
 0.7240	22.3870
 0.7250	22.8990
 0.7260	23.3910
 0.7270	23.8650
 0.7280	24.3180
 0.7290	24.7510
 0.7300	25.1660
 0.7310	25.5580
 0.7320	25.9330
 0.7330	26.2860
 0.7340	26.6180
 0.7350	26.9280
 0.7360	27.2200
 0.7370	27.4950
 0.7380	27.7530
 0.7390	27.9930
 0.7400	28.2150
 0.7410	28.4210
 0.7420	28.6110
 0.7430	28.7880
 0.7440	28.9500
 0.7450	29.0960
 0.7460	29.2290
 0.7470	29.3520
 0.7480	29.4630
 0.7490	29.5620
 0.7500	29.6500
 0.7510	29.7300
 0.7520	29.8060
 0.7530	29.8770
 0.7540	29.9350
 0.7550	29.9890
 0.7560	30.0390
 0.7570	30.0820
 0.7580	30.1230
 0.7590	30.1610
 0.7600	30.1950
 0.7610	30.2250
 0.7620	30.2510
 0.7630	30.2730
 0.7640	30.2940
 0.7650	30.3130
 0.7660	30.3300
 0.7670	30.3440
 0.7680	30.3560
 0.7690	30.3670
 0.7700	30.3780
 0.7710	30.3890
 0.7720	30.3980
 0.7730	30.4040
 0.7740	30.4110
 0.7750	30.4200
 0.7760	30.4270
 0.7770	30.4320
 0.7780	30.4360
 0.7790	30.4410
 0.7800	30.4490
 0.7810	30.4570
 0.7820	30.4630
 0.7830	30.4660
 0.7840	30.4700
 0.7850	30.4740
 0.7860	30.4790
 0.7870	30.4830
 0.7880	30.4860
 0.7890	30.4890
 0.7900	30.4890
 0.7910	30.4850
 0.7920	30.4850
 0.7930	30.4880
 0.7940	30.4920
 0.7950	30.4950
 0.7960	30.4940
 0.7970	30.4890
 0.7980	30.4860
 0.7990	30.4830
 0.8000	30.4820
 0.8010	30.4820
 0.8020	30.4780
 0.8030	30.4750
 0.8040	30.4710
 0.8050	30.4660
 0.8060	30.4640
 0.8070	30.4590
 0.8080	30.4530
 0.8090	30.4470
 0.8100	30.4430
 0.8110	30.4390
 0.8120	30.4330
 0.8130	30.4270
 0.8140	30.4180
 0.8150	30.4090
 0.8160	30.4020
 0.8170	30.3960
 0.8180	30.3900
 0.8190	30.3830
 0.8200	30.3740
 0.8210	30.3670
 0.8220	30.3580
 0.8230	30.3480
 0.8240	30.3390
 0.8250	30.3340
 0.8260	30.3300
 0.8270	30.3250
 0.8280	30.3150
 0.8290	30.3080
 0.8300	30.3010
 0.8310	30.2910
 0.8320	30.2840
 0.8330	30.2770
 0.8340	30.2680
 0.8350	30.2600
 0.8360	30.2570
 0.8370	30.2540
 0.8380	30.2510
 0.8390	30.2450
 0.8400	30.2390
 0.8410	30.2370
 0.8420	30.2370
 0.8430	30.2330
 0.8440	30.2300
 0.8450	30.2270
 0.8460	30.2240
 0.8470	30.2190
 0.8480	30.2200
 0.8490	30.2220
 0.8500	30.2190
 0.8510	30.2180
 0.8520	30.2180
 0.8530	30.2200
 0.8540	30.2230
 0.8550	30.2200
 0.8560	30.2170
 0.8570	30.2190
 0.8580	30.2240
 0.8590	30.2310
 0.8600	30.2340
 0.8610	30.2340
 0.8620	30.2360
 0.8630	30.2410
 0.8640	30.2460
 0.8650	30.2520
 0.8660	30.2550
 0.8670	30.2600
 0.8680	30.2660
 0.8690	30.2730
 0.8700	30.2770
 0.8710	30.2810
 0.8720	30.2880
 0.8730	30.2990
 0.8740	30.3060
 0.8750	30.3150
 0.8760	30.3270
 0.8770	30.3350
 0.8780	30.3350
 0.8790	30.3380
 0.8800	30.3470
 0.8810	30.3530
 0.8820	30.3590
 0.8830	30.3660
 0.8840	30.3750
 0.8850	30.3820
 0.8860	30.3940
 0.8870	30.4050
 0.8880	30.4110
 0.8890	30.4160
 0.8900	30.4220
 0.8910	30.4280
 0.8920	30.4360
 0.8930	30.4480
 0.8940	30.4570
 0.8950	30.4590
 0.8960	30.4580
 0.8970	30.4610
 0.8980	30.4700
 0.8990	30.4810
 0.9000	30.4890
 0.9010	30.4950
 0.9020	30.5040
 0.9030	30.5130
 0.9040	30.5190
 0.9050	30.5230
 0.9060	30.5260
 0.9070	30.5270
 0.9080	30.5350
 0.9090	30.5400
 0.9100	30.5400
 0.9110	30.5370
 0.9120	30.5470
 0.9130	30.5540
 0.9140	30.5560
 0.9150	30.5580
 0.9160	30.5620
 0.9170	30.5610
 0.9180	30.5580
 0.9190	30.5580
 0.9200	30.5620
 0.9210	30.5630
 0.9220	30.5600
 0.9230	30.5510
 0.9240	30.5500
 0.9250	30.5520
 0.9260	30.5510
 0.9270	30.5410
 0.9280	30.5350
 0.9290	30.5310
 0.9300	30.5280
 0.9310	30.5210
 0.9320	30.5110
 0.9330	30.5000
 0.9340	30.4910
 0.9350	30.4830
 0.9360	30.4700
 0.9370	30.4620
 0.9380	30.4600
 0.9390	30.4500
 0.9400	30.4320
 0.9410	30.4180
 0.9420	30.4120
 0.9430	30.4070
 0.9440	30.3910
 0.9450	30.3740
 0.9460	30.3600
 0.9470	30.3320
 0.9480	30.3120
 0.9490	30.2920
 0.9500	30.2640
 0.9510	30.2360
 0.9520	30.2110
 0.9530	30.1860
 0.9540	30.1610
 0.9550	30.1360
 0.9560	30.1080
 0.9570	30.0820
 0.9580	30.0620
 0.9590	30.0350
 0.9600	30.0120
 0.9610	29.9960
 0.9620	29.9800
 0.9630	29.9540
 0.9640	29.9360
 0.9650	29.9230
 0.9660	29.9020
 0.9670	29.8900
 0.9680	29.8800
 0.9690	29.8760
 0.9700	29.8740
 0.9710	29.8600
 0.9720	29.8430
 0.9730	29.8340
 0.9740	29.8330
 0.9750	29.8140
 0.9760	29.8100
 0.9770	29.8180
 0.9780	29.8220
 0.9790	29.8190
 0.9800	29.8140
 0.9810	29.8100
 0.9820	29.8120
 0.9830	29.8130
 0.9840	29.8060
 0.9850	29.7980
 0.9860	29.8020
 0.9870	29.8040
 0.9880	29.8040
 0.9890	29.8080
 0.9900	29.8210
 0.9910	29.8190
 0.9920	29.8130
 0.9930	29.8150
 0.9940	29.8290
 0.9950	29.8080
 0.9960	29.8120
 0.9970	29.8310
 0.9980	29.8260
 0.9990	29.8150
 1.0000	29.8140
 1.0010	30.5020
 1.0020	30.5030
 1.0030	30.5070
 1.0040	30.5080
 1.0050	30.5130
 1.0060	30.5200
 1.0070	30.5260
 1.0080	30.5330
 1.0090	30.5440
 1.0100	30.5490
 1.0110	30.5520
 1.0120	30.5580
 1.0130	30.5600
 1.0140	30.5670
 1.0150	30.5780
 1.0160	30.5860
 1.0170	30.5920
 1.0180	30.5960
 1.0190	30.6000
 1.0200	30.6060
 1.0210	30.6120
 1.0220	30.6210
 1.0230	30.6290
 1.0240	30.6370
 1.0250	30.6440
 1.0260	30.6520
 1.0270	30.6580
 1.0280	30.6630
 1.0290	30.6670
 1.0300	30.6700
 1.0310	30.6740
 1.0320	30.6790
 1.0330	30.6860
 1.0340	30.6970
 1.0350	30.7050
 1.0360	30.7120
 1.0370	30.7220
 1.0380	30.7290
 1.0390	30.7350
 1.0400	30.7400
 1.0410	30.7430
 1.0420	30.7480
 1.0430	30.7490
 1.0440	30.7540
 1.0450	30.7600
 1.0460	30.7660
 1.0470	30.7730
 1.0480	30.7770
 1.0490	30.7820
 1.0500	30.7850
 1.0510	30.7870
 1.0520	30.7880
 1.0530	30.7910
 1.0540	30.7940
 1.0550	30.7980
 1.0560	30.8030
 1.0570	30.8080
 1.0580	30.8140
 1.0590	30.8170
 1.0600	30.8200
 1.0610	30.8230
 1.0620	30.8260
 1.0630	30.8280
 1.0640	30.8320
 1.0650	30.8340
 1.0660	30.8340
 1.0670	30.8350
 1.0680	30.8360
 1.0690	30.8370
 1.0700	30.8390
 1.0710	30.8420
 1.0720	30.8440
 1.0730	30.8450
 1.0740	30.8460
 1.0750	30.8470
 1.0760	30.8460
 1.0770	30.8440
 1.0780	30.8430
 1.0790	30.8400
 1.0800	30.8400
 1.0810	30.8430
 1.0820	30.8440
 1.0830	30.8450
 1.0840	30.8440
 1.0850	30.8430
 1.0860	30.8400
 1.0870	30.8380
 1.0880	30.8350
 1.0890	30.8340
 1.0900	30.8330
 1.0910	30.8310
 1.0920	30.8280
 1.0930	30.8260
 1.0940	30.8230
 1.0950	30.8210
 1.0960	30.8200
 1.0970	30.8180
 1.0980	30.8150
 1.0990	30.8120
 1.1000	30.8070
 1.1010	30.8020
 1.1020	30.7960
 1.1030	30.7910
 1.1040	30.7860
 1.1050	30.7820
 1.1060	30.7770
 1.1070	30.7720
 1.1080	30.7670
 1.1090	30.7620
 1.1100	30.7550
 1.1110	30.7500
 1.1120	30.7410
 1.1130	30.7290
 1.1140	30.7190
 1.1150	30.7090
 1.1160	30.6990
 1.1170	30.6910
 1.1180	30.6800
 1.1190	30.6660
 1.1200	30.6530
 1.1210	30.6390
 1.1220	30.6220
 1.1230	30.6070
 1.1240	30.5890
 1.1250	30.5690
 1.1260	30.5480
 1.1270	30.5230
 1.1280	30.4940
 1.1290	30.4660
 1.1300	30.4350
 1.1310	30.4020
 1.1320	30.3690
 1.1330	30.3310
 1.1340	30.2880
 1.1350	30.2430
 1.1360	30.1940
 1.1370	30.1430
 1.1380	30.0920
 1.1390	30.0390
 1.1400	29.9840
 1.1410	29.9280
 1.1420	29.8680
 1.1430	29.8080
 1.1440	29.7480
 1.1450	29.6850
 1.1460	29.6230
 1.1470	29.5610
 1.1480	29.5010
 1.1490	29.4420
 1.1500	29.3870
 1.1510	29.3350
 1.1520	29.2840
 1.1530	29.2360
 1.1540	29.1910
 1.1550	29.1470
 1.1560	29.1060
 1.1570	29.0690
 1.1580	29.0350
 1.1590	29.0040
 1.1600	28.9780
 1.1610	28.9530
 1.1620	28.9320
 1.1630	28.9130
 1.1640	28.8950
 1.1650	28.8770
 1.1660	28.8620
 1.1670	28.8470
 1.1680	28.8330
 1.1690	28.8210
 1.1700	28.8100
 1.1710	28.8000
 1.1720	28.7910
 1.1730	28.7820
 1.1740	28.7710
 1.1750	28.7620
 1.1760	28.7520
 1.1770	28.7430
 1.1780	28.7340
 1.1790	28.7230
 1.1800	28.7120
 1.1810	28.6990
 1.1820	28.6870
 1.1830	28.6780
 1.1840	28.6670
 1.1850	28.6560
 1.1860	28.6460
 1.1870	28.6340
 1.1880	28.6230
 1.1890	28.6140
 1.1900	28.6050
 1.1910	28.5960
 1.1920	28.5890
 1.1930	28.5820
 1.1940	28.5760
 1.1950	28.5700
 1.1960	28.5660
 1.1970	28.5610
 1.1980	28.5570
 1.1990	28.5560
 1.2000	28.5550
 1.2010	28.5540
 1.2020	28.5540
 1.2030	28.5540
 1.2040	28.5570
 1.2050	28.5590
 1.2060	28.5610
 1.2070	28.5660
 1.2080	28.5710
 1.2090	28.5770
 1.2100	28.5840
 1.2110	28.5920
 1.2120	28.6010
 1.2130	28.6110
 1.2140	28.6230
 1.2150	28.6350
 1.2160	28.6470
 1.2170	28.6590
 1.2180	28.6710
 1.2190	28.6820
 1.2200	28.6950
 1.2210	28.7080
 1.2220	28.7230
 1.2230	28.7370
 1.2240	28.7510
 1.2250	28.7650
 1.2260	28.7760
 1.2270	28.7880
 1.2280	28.8020
 1.2290	28.8150
 1.2300	28.8270
 1.2310	28.8400
 1.2320	28.8500
 1.2330	28.8580
 1.2340	28.8660
 1.2350	28.8740
 1.2360	28.8820
 1.2370	28.8890
 1.2380	28.8970
 1.2390	28.9060
 1.2400	28.9140
 1.2410	28.9210
 1.2420	28.9280
 1.2430	28.9360
 1.2440	28.9420
 1.2450	28.9480
 1.2460	28.9550
 1.2470	28.9600
 1.2480	28.9640
 1.2490	28.9690
 1.2500	28.9720
 1.2510	28.9750
 1.2520	28.9770
 1.2530	28.9820
 1.2540	28.9860
 1.2550	28.9880
 1.2560	28.9900
 1.2570	28.9920
 1.2580	28.9930
 1.2590	28.9940
 1.2600	28.9940
 1.2610	28.9940
 1.2620	28.9930
 1.2630	28.9920
 1.2640	28.9900
 1.2650	28.9880
 1.2660	28.9850
 1.2670	28.9820
 1.2680	28.9790
 1.2690	28.9750
 1.2700	28.9710
 1.2710	28.9660
 1.2720	28.9600
 1.2730	28.9550
 1.2740	28.9500
 1.2750	28.9450
 1.2760	28.9400
 1.2770	28.9350
 1.2780	28.9280
 1.2790	28.9190
 1.2800	28.9110
 1.2810	28.9020
 1.2820	28.8930
 1.2830	28.8820
 1.2840	28.8700
 1.2850	28.8570
 1.2860	28.8450
 1.2870	28.8310
 1.2880	28.8170
 1.2890	28.8030
 1.2900	28.7870
 1.2910	28.7690
 1.2920	28.7510
 1.2930	28.7330
 1.2940	28.7130
 1.2950	28.6920
 1.2960	28.6710
 1.2970	28.6480
 1.2980	28.6250
 1.2990	28.6020
 1.3000	28.5770
 1.3010	28.5500
 1.3020	28.5210
 1.3030	28.4920
 1.3040	28.4610
 1.3050	28.4300
 1.3060	28.3990
 1.3070	28.3680
 1.3080	28.3350
 1.3090	28.2990
 1.3100	28.2620
 1.3110	28.2260
 1.3120	28.1870
 1.3130	28.1490
 1.3140	28.1090
 1.3150	28.0670
 1.3160	28.0240
 1.3170	27.9810
 1.3180	27.9370
 1.3190	27.8910
 1.3200	27.8430
 1.3210	27.7920
 1.3220	27.7410
 1.3230	27.6880
 1.3240	27.6340
 1.3250	27.5790
 1.3260	27.5230
 1.3270	27.4650
 1.3280	27.4060
 1.3290	27.3460
 1.3300	27.2860
 1.3310	27.2250
 1.3320	27.1620
 1.3330	27.0980
 1.3340	27.0320
 1.3350	26.9670
 1.3360	26.9010
 1.3370	26.8340
 1.3380	26.7680
 1.3390	26.7010
 1.3400	26.6350
 1.3410	26.5690
 1.3420	26.5020
 1.3430	26.4350
 1.3440	26.3680
 1.3450	26.3020
 1.3460	26.2360
 1.3470	26.1710
 1.3480	26.1060
 1.3490	26.0420
 1.3500	25.9790
 1.3510	25.9160
 1.3520	25.8540
 1.3530	25.7920
 1.3540	25.7290
 1.3550	25.6650
 1.3560	25.6020
 1.3570	25.5380
 1.3580	25.4740
 1.3590	25.4090
 1.3600	25.3430
 1.3610	25.2740
 1.3620	25.2020
 1.3630	25.1290
 1.3640	25.0530
 1.3650	24.9760
 1.3660	24.8950
 1.3670	24.8090
 1.3680	24.7170
 1.3690	24.6190
 1.3700	24.5150
 1.3710	24.4050
 1.3720	24.2860
 1.3730	24.1570
 1.3740	24.0200
 1.3750	23.8730
 1.3760	23.7150
 1.3770	23.5450
 1.3780	23.3600
 1.3790	23.1640
 1.3800	22.9550
 1.3810	22.7290
 1.3820	22.4930
 1.3830	22.2450
 1.3840	21.9830
 1.3850	21.7100
 1.3860	21.4260
 1.3870	21.1270
 1.3880	20.8240
 1.3890	20.5100
 1.3900	20.1890
 1.3910	19.8650
 1.3920	19.5340
 1.3930	19.1970
 1.3940	18.8590
 1.3950	18.5160
 1.3960	18.1760
 1.3970	17.8390
 1.3980	17.5050
 1.3990	17.1800
 1.4000	16.8600
 1.4010	16.5460
 1.4020	16.2420
 1.4030	15.9460
 1.4040	15.6610
 1.4050	15.3880
 1.4060	15.1240
 1.4070	14.8750
 1.4080	14.6390
 1.4090	14.4140
 1.4100	14.2030
 1.4110	14.0020
 1.4120	13.8120
 1.4130	13.6340
 1.4140	13.4690
 1.4150	13.3170
 1.4160	13.1760
 1.4170	13.0440
 1.4180	12.9220
 1.4190	12.8070
 1.4200	12.7010
 1.4210	12.6040
 1.4220	12.5140
 1.4230	12.4310
 1.4240	12.3560
 1.4250	12.2860
 1.4260	12.2230
 1.4270	12.1640
 1.4280	12.1120
 1.4290	12.0620
 1.4300	12.0170
 1.4310	11.9770
 1.4320	11.9420
 1.4330	11.9090
 1.4340	11.8810
 1.4350	11.8560
 1.4360	11.8330
 1.4370	11.8130
 1.4380	11.7950
 1.4390	11.7800
 1.4400	11.7680
 1.4410	11.7580
 1.4420	11.7500
 1.4430	11.7440
 1.4440	11.7390
 1.4450	11.7360
 1.4460	11.7350
 1.4470	11.7360
 1.4480	11.7380
 1.4490	11.7400
 1.4500	11.7440
 1.4510	11.7490
 1.4520	11.7540
 1.4530	11.7620
 1.4540	11.7710
 1.4550	11.7810
 1.4560	11.7930
 1.4570	11.8070
 1.4580	11.8230
 1.4590	11.8410
 1.4600	11.8610
 1.4610	11.8830
 1.4620	11.9080
 1.4630	11.9360
 1.4640	11.9670
 1.4650	12.0020
 1.4660	12.0400
 1.4670	12.0800
 1.4680	12.1240
 1.4690	12.1700
 1.4700	12.2200
 1.4710	12.2740
 1.4720	12.3290
 1.4730	12.3870
 1.4740	12.4470
 1.4750	12.5090
 1.4760	12.5740
 1.4770	12.6400
 1.4780	12.7060
 1.4790	12.7740
 1.4800	12.8420
 1.4810	12.9120
 1.4820	12.9840
 1.4830	13.0550
 1.4840	13.1290
 1.4850	13.2040
 1.4860	13.2780
 1.4870	13.3530
 1.4880	13.4270
 1.4890	13.5010
 1.4900	13.5760
 1.4910	13.6510
 1.4920	13.7270
 1.4930	13.8060
 1.4940	13.8830
 1.4950	13.9590
 1.4960	14.0350
 1.4970	14.1110
 1.4980	14.1880
 1.4990	14.2650
 1.5000	14.3420
 1.5010	14.4200
 1.5020	14.4980
 1.5030	14.5750
 1.5040	14.6520
 1.5050	14.7280
 1.5060	14.8030
 1.5070	14.8780
 1.5080	14.9530
 1.5090	15.0280
 1.5100	15.1040
 1.5110	15.1790
 1.5120	15.2550
 1.5130	15.3290
 1.5140	15.4030
 1.5150	15.4770
 1.5160	15.5510
 1.5170	15.6250
 1.5180	15.6970
 1.5190	15.7680
 1.5200	15.8390
 1.5210	15.9100
 1.5220	15.9810
 1.5230	16.0520
 1.5240	16.1220
 1.5250	16.1920
 1.5260	16.2620
 1.5270	16.3310
 1.5280	16.3990
 1.5290	16.4650
 1.5300	16.5310
 1.5310	16.5960
 1.5320	16.6600
 1.5330	16.7240
 1.5340	16.7870
 1.5350	16.8480
 1.5360	16.9110
 1.5370	16.9710
 1.5380	17.0310
 1.5390	17.0930
 1.5400	17.1540
 1.5410	17.2140
 1.5420	17.2740
 1.5430	17.3330
 1.5440	17.3910
 1.5450	17.4490
 1.5460	17.5080
 1.5470	17.5650
 1.5480	17.6200
 1.5490	17.6750
 1.5500	17.7290
 1.5510	17.7830
 1.5520	17.8360
 1.5530	17.8880
 1.5540	17.9400
 1.5550	17.9930
 1.5560	18.0430
 1.5570	18.0940
 1.5580	18.1430
 1.5590	18.1890
 1.5600	18.2380
 1.5610	18.2850
 1.5620	18.3310
 1.5630	18.3780
 1.5640	18.4230
 1.5650	18.4670
 1.5660	18.5110
 1.5670	18.5540
 1.5680	18.5960
 1.5690	18.6380
 1.5700	18.6800
 1.5710	18.7210
 1.5720	18.7610
 1.5730	18.8000
 1.5740	18.8390
 1.5750	18.8780
 1.5760	18.9170
 1.5770	18.9570
 1.5780	18.9970
 1.5790	19.0370
 1.5800	19.0760
 1.5810	19.1150
 1.5820	19.1530
 1.5830	19.1900
 1.5840	19.2280
 1.5850	19.2650
 1.5860	19.3020
 1.5870	19.3390
 1.5880	19.3760
 1.5890	19.4120
 1.5900	19.4490
 1.5910	19.4850
 1.5920	19.5220
 1.5930	19.5560
 1.5940	19.5890
 1.5950	19.6230
 1.5960	19.6560
 1.5970	19.6900
 1.5980	19.7240
 1.5990	19.7570
 1.6000	19.7900
 1.6010	19.8220
 1.6020	19.8540
 1.6030	19.8850
 1.6040	19.9150
 1.6050	19.9440
 1.6060	19.9740
 1.6070	20.0050
 1.6080	20.0330
 1.6090	20.0610
 1.6100	20.0880
 1.6110	20.1150
 1.6120	20.1440
 1.6130	20.1730
 1.6140	20.2000
 1.6150	20.2260
 1.6160	20.2520
 1.6170	20.2770
 1.6180	20.3020
 1.6190	20.3280
 1.6200	20.3510
 1.6210	20.3740
 1.6220	20.3960
 1.6230	20.4170
 1.6240	20.4380
 1.6250	20.4590
 1.6260	20.4800
 1.6270	20.5010
 1.6280	20.5210
 1.6290	20.5400
 1.6300	20.5590
 1.6310	20.5760
 1.6320	20.5910
 1.6330	20.6070
 1.6340	20.6240
 1.6350	20.6380
 1.6360	20.6530
 1.6370	20.6660
 1.6380	20.6760
 1.6390	20.6850
 1.6400	20.6930
 1.6410	20.6990
 1.6420	20.7030
 1.6430	20.7070
 1.6440	20.7080
 1.6450	20.7090
 1.6460	20.7090
 1.6470	20.7070
 1.6480	20.7030
 1.6490	20.6990
 1.6500	20.6920
 1.6510	20.6860
 1.6520	20.6810
 1.6530	20.6750
 1.6540	20.6680
 1.6550	20.6600
 1.6560	20.6490
 1.6570	20.6400
 1.6580	20.6310
 1.6590	20.6240
 1.6600	20.6180
 1.6610	20.6120
 1.6620	20.6070
 1.6630	20.6040
 1.6640	20.6010
 1.6650	20.5990
 1.6660	20.5970
 1.6670	20.5940
 1.6680	20.5910
 1.6690	20.5900
 1.6700	20.5880
 1.6710	20.5860
 1.6720	20.5870
 1.6730	20.5860
 1.6740	20.5860
 1.6750	20.5850
 1.6760	20.5810
 1.6770	20.5770
 1.6780	20.5720
 1.6790	20.5640
 1.6800	20.5550
 1.6810	20.5440
 1.6820	20.5320
 1.6830	20.5190
 1.6840	20.5040
 1.6850	20.4870
 1.6860	20.4700
 1.6870	20.4490
 1.6880	20.4290
 1.6890	20.4070
 1.6900	20.3840
 1.6910	20.3610
 1.6920	20.3380
 1.6930	20.3130
 1.6940	20.2890
 1.6950	20.2640
 1.6960	20.2390
 1.6970	20.2150
 1.6980	20.1890
 1.6990	20.1640
 1.7000	20.1370
 1.7010	20.1090
 1.7020	20.0810
 1.7030	20.0530
 1.7040	20.0250
 1.7050	19.9970
 1.7060	19.9700
 1.7070	19.9430
 1.7080	19.9150
 1.7090	19.8860
 1.7100	19.8580
 1.7110	19.8300
 1.7120	19.8030
 1.7130	19.7750
 1.7140	19.7480
 1.7150	19.7190
 1.7160	19.6900
 1.7170	19.6620
 1.7180	19.6320
 1.7190	19.6030
 1.7200	19.5750
 1.7210	19.5460
 1.7220	19.5170
 1.7230	19.4880
 1.7240	19.4570
 1.7250	19.4270
 1.7260	19.3990
 1.7270	19.3730
 1.7280	19.3490
 1.7290	19.3270
 1.7300	19.3080
 1.7310	19.2890
 1.7320	19.2720
 1.7330	19.2550
 1.7340	19.2370
 1.7350	19.2220
 1.7360	19.2120
 1.7370	19.1970
 1.7380	19.1820
 1.7390	19.1640
 1.7400	19.1410
 1.7410	19.1200
 1.7420	19.1010
 1.7430	19.0780
 1.7440	19.0530
 1.7450	19.0260
 1.7460	18.9940
 1.7470	18.9640
 1.7480	18.9350
 1.7490	18.9070
 1.7500	18.8800
 1.7510	18.8500
 1.7520	18.8180
 1.7530	18.7870
 1.7540	18.7540
 1.7550	18.7250
 1.7560	18.6960
 1.7570	18.6670
 1.7580	18.6380
 1.7590	18.6110
 1.7600	18.5850
 1.7610	18.5590
 1.7620	18.5350
 1.7630	18.5120
 1.7640	18.4910
 1.7650	18.4730
 1.7660	18.4540
 1.7670	18.4350
 1.7680	18.4170
 1.7690	18.3970
 1.7700	18.3810
 1.7710	18.3650
 1.7720	18.3510
 1.7730	18.3390
 1.7740	18.3250
 1.7750	18.3120
 1.7760	18.2980
 1.7770	18.2820
 1.7780	18.2690
 1.7790	18.2560
 1.7800	18.2440
 1.7810	18.2330
 1.7820	18.2210
 1.7830	18.2080
 1.7840	18.1970
 1.7850	18.1870
 1.7860	18.1770
 1.7870	18.1680
 1.7880	18.1630
 1.7890	18.1570
 1.7900	18.1550
 1.7910	18.1520
 1.7920	18.1510
 1.7930	18.1490
 1.7940	18.1470
 1.7950	18.1450
 1.7960	18.1440
 1.7970	18.1440
 1.7980	18.1430
 1.7990	18.1460
 1.8000	18.1500
 1.8010	18.1530
 1.8020	18.1590
 1.8030	18.1630
 1.8040	18.1650
 1.8050	18.1690
 1.8060	18.1720
 1.8070	18.1750
 1.8080	18.1780
 1.8090	18.1810
 1.8100	18.1840
 1.8110	18.1890
 1.8120	18.1930
 1.8130	18.1980
 1.8140	18.2020
 1.8150	18.2040
 1.8160	18.2060
 1.8170	18.2110
 1.8180	18.2130
 1.8190	18.2170
 1.8200	18.2190
 1.8210	18.2180
 1.8220	18.2180
 1.8230	18.2180
 1.8240	18.2160
 1.8250	18.2110
 1.8260	18.2110
 1.8270	18.2140
 1.8280	18.2110
 1.8290	18.2090
 1.8300	18.2030
 1.8310	17.6600
 1.8320	17.6460
 1.8330	17.6360
 1.8340	17.6220
 1.8350	17.6040
 1.8360	17.5860
 1.8370	17.5670
 1.8380	17.5420
 1.8390	17.5160
 1.8400	17.4870
 1.8410	17.4550
 1.8420	17.4220
 1.8430	17.3840
 1.8440	17.3450
 1.8450	17.3030
 1.8460	17.2510
 1.8470	17.1970
 1.8480	17.1390
 1.8490	17.0780
 1.8500	17.0100
 1.8510	16.9400
 1.8520	16.8610
 1.8530	16.7740
 1.8540	16.6770
 1.8550	16.5740
 1.8560	16.4660
 1.8570	16.3510
 1.8580	16.2260
 1.8590	16.0930
 1.8600	15.9520
 1.8610	15.8020
 1.8620	15.6420
 1.8630	15.4770
 1.8640	15.3020
 1.8650	15.1120
 1.8660	14.9080
 1.8670	14.6910
 1.8680	14.4660
 1.8690	14.2270
 1.8700	13.9770
 1.8710	13.7170
 1.8720	13.4490
 1.8730	13.1660
 1.8740	12.8730
 1.8750	12.5730
 1.8760	12.2630
 1.8770	11.9500
 1.8780	11.6350
 1.8790	11.3130
 1.8800	10.9900
 1.8810	10.6660
 1.8820	10.3370
 1.8830	10.0060
 1.8840	 9.6770
 1.8850	 9.3430
 1.8860	 9.0160
 1.8870	 8.6940
 1.8880	 8.3780
 1.8890	 8.0760
 1.8900	 7.7830
 1.8910	 7.5010
 1.8920	 7.2270
 1.8930	 6.9670
 1.8940	 6.7160
 1.8950	 6.4800
 1.8960	 6.2570
 1.8970	 6.0470
 1.8980	 5.8540
 1.8990	 5.6730
 1.9000	 5.5050
 1.9010	 5.3530
 1.9020	 5.2090
 1.9030	 5.0760
 1.9040	 4.9580
 1.9050	 4.8490
 1.9060	 4.7520
 1.9070	 4.6690
 1.9080	 4.5940
 1.9090	 4.5250
 1.9100	 4.4640
 1.9110	 4.4090
 1.9120	 4.3610
 1.9130	 4.3180
 1.9140	 4.2820
 1.9150	 4.2480
 1.9160	 4.2170
 1.9170	 4.1900
 1.9180	 4.1680
 1.9190	 4.1490
 1.9200	 4.1350
 1.9210	 4.1250
 1.9220	 4.1150
 1.9230	 4.1050
 1.9240	 4.0990
 1.9250	 4.0960
 1.9260	 4.0940
 1.9270	 4.0960
 1.9280	 4.0990
 1.9290	 4.0990
 1.9300	 4.1020
 1.9310	 4.1060
 1.9320	 4.1110
 1.9330	 4.1180
 1.9340	 4.1300
 1.9350	 4.1410
 1.9360	 4.1530
 1.9370	 4.1680
 1.9380	 4.1840
 1.9390	 4.2040
 1.9400	 4.2230
 1.9410	 4.2420
 1.9420	 4.2650
 1.9430	 4.2860
 1.9440	 4.3080
 1.9450	 4.3320
 1.9460	 4.3550
 1.9470	 4.3770
 1.9480	 4.4010
 1.9490	 4.4260
 1.9500	 4.4540
 1.9510	 4.4820
 1.9520	 4.5090
 1.9530	 4.5370
 1.9540	 4.5640
 1.9550	 4.5920
 1.9560	 4.6190
 1.9570	 4.6510
 1.9580	 4.6860
 1.9590	 4.7200
 1.9600	 4.7560
 1.9610	 4.7920
 1.9620	 4.8250
 1.9630	 4.8610
 1.9640	 4.9000
 1.9650	 4.9350
 1.9660	 4.9720
 1.9670	 5.0100
 1.9680	 5.0480
 1.9690	 5.0840
 1.9700	 5.1230
 1.9710	 5.1630
 1.9720	 5.2030
 1.9730	 5.2440
 1.9740	 5.2870
 1.9750	 5.3310
 1.9760	 5.3750
 1.9770	 5.4170
 1.9780	 5.4610
 1.9790	 5.5050
 1.9800	 5.5470
 1.9810	 5.5920
 1.9820	 5.6390
 1.9830	 5.6850
 1.9840	 5.7320
 1.9850	 5.7780
 1.9860	 5.8220
 1.9870	 5.8670
 1.9880	 5.9140
 1.9890	 5.9630
 1.9900	 6.0120
 1.9910	 6.0630
 1.9920	 6.1120
 1.9930	 6.1590
 1.9940	 6.2080
 1.9950	 6.2560
 1.9960	 6.3050
 1.9970	 6.3560
 1.9980	 6.4040
 1.9990	 6.4520
 2.0000	 6.5010
 2.0010	 6.5480
 2.0020	 6.5960
 2.0030	 6.6450
 2.0040	 6.6950
 2.0050	 6.7450
 2.0060	 6.7950
 2.0070	 6.8440
 2.0080	 6.8910
 2.0090	 6.9390
 2.0100	 6.9890
 2.0110	 7.0360
 2.0120	 7.0820
 2.0130	 7.1280
 2.0140	 7.1760
 2.0150	 7.2210
 2.0160	 7.2680
 2.0170	 7.3130
 2.0180	 7.3570
 2.0190	 7.3980
 2.0200	 7.4410
 2.0210	 7.4830
 2.0220	 7.5270
 2.0230	 7.5730
 2.0240	 7.6160
 2.0250	 7.6580
 2.0260	 7.6990
 2.0270	 7.7400
 2.0280	 7.7770
 2.0290	 7.8170
 2.0300	 7.8550
 2.0310	 7.8910
 2.0320	 7.9250
 2.0330	 7.9580
 2.0340	 7.9870
 2.0350	 8.0200
 2.0360	 8.0560
 2.0370	 8.0880
 2.0380	 8.1220
 2.0390	 8.1520
 2.0400	 8.1750
 2.0410	 8.2010
 2.0420	 8.2260
 2.0430	 8.2510
 2.0440	 8.2780
 2.0450	 8.3060
 2.0460	 8.3330
 2.0470	 8.3640
 2.0480	 8.3900
 2.0490	 8.4150
 2.0500	 8.4420
 2.0510	 8.4670
 2.0520	 8.4920
 2.0530	 8.5190
 2.0540	 8.5450
 2.0550	 8.5700
 2.0560	 8.5960
 2.0570	 8.6230
 2.0580	 8.6540
 2.0590	 8.6830
 2.0600	 8.7140
 2.0610	 8.7460
 2.0620	 8.7800
 2.0630	 8.8120
 2.0640	 8.8460
 2.0650	 8.8760
 2.0660	 8.9020
 2.0670	 8.9290
 2.0680	 8.9530
 2.0690	 8.9810
 2.0700	 9.0140
 2.0710	 9.0440
 2.0720	 9.0760
 2.0730	 9.1070
 2.0740	 9.1360
 2.0750	 9.1600
 2.0760	 9.1880
 2.0770	 9.2180
 2.0780	 9.2480
 2.0790	 9.2800
 2.0800	 9.3090
 2.0810	 9.3370
 2.0820	 9.3660
 2.0830	 9.3930
 2.0840	 9.4190
 2.0850	 9.4450
 2.0860	 9.4700
 2.0870	 9.4910
 2.0880	 9.5120
 2.0890	 9.5350
 2.0900	 9.5580
 2.0910	 9.5800
 2.0920	 9.6030
 2.0930	 9.6250
 2.0940	 9.6480
 2.0950	 9.6700
 2.0960	 9.6970
 2.0970	 9.7170
 2.0980	 9.7320
 2.0990	 9.7510
 2.1000	 9.7690
 2.1010	 9.7880
 2.1020	 9.8100
 2.1030	 9.8300
 2.1040	 9.8470
 2.1050	 9.8620
 2.1060	 9.8780
 2.1070	 9.8930
 2.1080	 9.9100
 2.1090	 9.9290
 2.1100	 9.9460
 2.1110	 9.9650
 2.1120	 9.9800
 2.1130	 9.9920
 2.1140	10.0030
 2.1150	10.0100
 2.1160	10.0230
 2.1170	10.0390
 2.1180	10.0510
 2.1190	10.0640
 2.1200	10.0760
 2.1210	10.0840
 2.1220	10.0910
 2.1230	10.1000
 2.1240	10.1110
 2.1250	10.1190
 2.1260	10.1250
 2.1270	10.1330
 2.1280	10.1400
 2.1290	10.1470
 2.1300	10.1550
 2.1310	10.1610
 2.1320	10.1660
 2.1330	10.1730
 2.1340	10.1810
 2.1350	10.1900
 2.1360	10.2000
 2.1370	10.2110
 2.1380	10.2260
 2.1390	10.2360
 2.1400	10.2430
 2.1410	10.2520
 2.1420	10.2630
 2.1430	10.2730
 2.1440	10.2860
 2.1450	10.3040
 2.1460	10.3200
 2.1470	10.3380
 2.1480	10.3520
 2.1490	10.3680
 2.1500	10.3810
 2.1510	10.3880
 2.1520	10.4000
 2.1530	10.4120
 2.1540	10.4260
 2.1550	10.4450
 2.1560	10.4600
 2.1570	10.4790
 2.1580	10.4930
 2.1590	10.5040
 2.1600	10.5130
 2.1610	10.5200
 2.1620	10.5280
 2.1630	10.5390
 2.1640	10.5520
 2.1650	10.5630
 2.1660	10.5770
 2.1670	10.5860
 2.1680	10.5910
 2.1690	10.5980
 2.1700	10.6050
 2.1710	10.6150
 2.1720	10.6260
 2.1730	10.6390
 2.1740	10.6590
 2.1750	10.6750
 2.1760	10.6900
 2.1770	10.7060
 2.1780	10.7190
 2.1790	10.7340
 2.1800	10.7500
 2.1810	10.7670
 2.1820	10.7830
 2.1830	10.8000
 2.1840	10.8180
 2.1850	10.8380
 2.1860	10.8570
 2.1870	10.8770
 2.1880	10.8960
 2.1890	10.9160
 2.1900	10.9340
 2.1910	10.9510
 2.1920	10.9690
 2.1930	10.9860
 2.1940	11.0050
 2.1950	11.0270
 2.1960	11.0460
 2.1970	11.0640
 2.1980	11.0820
 2.1990	11.0970
 2.2000	11.1140
 2.2010	11.1310
 2.2020	11.1490
 2.2030	11.1690
 2.2040	11.1880
 2.2050	11.2080
 2.2060	11.2260
 2.2070	11.2440
 2.2080	11.2620
 2.2090	11.2780
 2.2100	11.2950
 2.2110	11.3090
 2.2120	11.3200
 2.2130	11.3330
 2.2140	11.3450
 2.2150	11.3560
 2.2160	11.3680
 2.2170	11.3790
 2.2180	11.3880
 2.2190	11.3990
 2.2200	11.4140
 2.2210	11.4230
 2.2220	11.4310
 2.2230	11.4360
 2.2240	11.4340
 2.2250	11.4370
 2.2260	11.4440
 2.2270	11.4450
 2.2280	11.4400
 2.2290	11.4380
 2.2300	11.4350
 2.2310	11.4260
 2.2320	11.4200
 2.2330	11.4150
 2.2340	11.4030
 2.2350	11.3840
 2.2360	11.3670
 2.2370	11.3490
 2.2380	11.3300
 2.2390	11.3120
 2.2400	11.2890
 2.2410	11.2640
 2.2420	11.2370
 2.2430	11.2060
 2.2440	11.1760
 2.2450	11.1440
 2.2460	11.1140
 2.2470	11.0880
 2.2480	11.0550
 2.2490	11.0220
 2.2500	10.9850
 2.2510	10.9420
 2.2520	10.9030
 2.2530	10.8680
 2.2540	10.8290
 2.2550	10.7890
 2.2560	10.7510
 2.2570	10.7070
 2.2580	10.6680
 2.2590	10.6350
 2.2600	10.5980
 2.2610	10.5560
 2.2620	10.5220
 2.2630	10.4850
 2.2640	10.4460
 2.2650	10.4120
 2.2660	10.3750
 2.2670	10.3380
 2.2680	10.2990
 2.2690	10.2660
 2.2700	10.2330
 2.2710	10.2050
 2.2720	10.1840
 2.2730	10.1590
 2.2740	10.1400
 2.2750	10.1130
 2.2760	10.0840
 2.2770	10.0530
 2.2780	10.0170
 2.2790	 9.9830
 2.2800	 9.9470
 2.2810	 9.9160
 2.2820	 9.8870
 2.2830	 9.8590
 2.2840	 9.8330
 2.2850	 9.8090
 2.2860	 9.7870
 2.2870	 9.7630
 2.2880	 9.7410
 2.2890	 9.7140
 2.2900	 9.6850
 2.2910	 9.6500
 2.2920	 9.6070
 2.2930	 9.5670
 2.2940	 9.5200
 2.2950	 9.4790
 2.2960	 9.4480
 2.2970	 9.4130
 2.2980	 9.3810
 2.2990	 9.3460
 2.3000	 9.3110
 2.3010	 9.2790
 2.3020	 9.2480
 2.3030	 9.2190
 2.3040	 9.1910
 2.3050	 9.1610
 2.3060	 9.1320
 2.3070	 9.1030
 2.3080	 9.0820
 2.3090	 9.0620
 2.3100	 9.0380
 2.3110	 9.0220
 2.3120	 9.0100
 2.3130	 8.9970
 2.3140	 8.9940
 2.3150	 9.0050
 2.3160	 9.0050
 2.3170	 9.0050
 2.3180	 8.9990
 2.3190	 8.9850
 2.3200	 8.9760
 2.3210	 8.9640
 2.3220	 8.9550
 2.3230	 8.9540
 2.3240	 8.9400
 2.3250	 8.9210
 2.3260	 8.9010
 2.3270	 8.8710
 2.3280	 8.8500
 2.3290	 8.8350
 2.3300	 8.8180
 2.3310	 8.8050
 2.3320	 8.7860
 2.3330	 8.7650
 2.3340	 8.7400
 2.3350	 8.7100
 2.3360	 8.6800
 2.3370	 8.6410
 2.3380	 8.6090
 2.3390	 8.5780
 2.3400	 8.5490
 2.3410	 8.5300
 2.3420	 8.5030
 2.3430	 8.4700
 2.3440	 8.4390
 2.3450	 8.3990
 2.3460	 8.3690
 2.3470	 8.3460
 2.3480	 8.3240
 2.3490	 8.3040
 2.3500	 8.2900
 2.3510	 8.2830
 2.3520	 8.2740
 2.3530	 8.2690
 2.3540	 8.2610
 2.3550	 8.2460
 2.3560	 8.2330
 2.3570	 8.2190
 2.3580	 8.2050
 2.3590	 8.1990
 2.3600	 8.1840
 2.3610	 8.1590
 2.3620	 8.1420
 2.3630	 8.1180
 2.3640	 8.0920
 2.3650	 8.0800
 2.3660	 8.0590
 2.3670	 8.0390
 2.3680	 8.0220
 2.3690	 7.9950
 2.3700	 7.9720
 2.3710	 7.9420
 2.3720	 7.9140
 2.3730	 7.8980
 2.3740	 7.8770
 2.3750	 7.8520
 2.3760	 7.8180
 2.3770	 7.7790
 2.3780	 7.7440
 2.3790	 7.7230
 2.3800	 7.7000
 2.3810	 7.6660
 2.3820	 7.6410
 2.3830	 7.6190
 2.3840	 7.5980
 2.3850	 7.5850
 2.3860	 7.5660
 2.3870	 7.5310
 2.3880	 7.4960
 2.3890	 7.4730
 2.3900	 7.4510
 2.3910	 7.4290
 2.3920	 7.4060
 2.3930	 7.3630
 2.3940	 7.3160
 2.3950	 7.2820
 2.3960	 7.2580
 2.3970	 7.2380
 2.3980	 7.2100
 2.3990	 7.1840
 2.4000	 7.1490
 2.4010	 7.1180
 2.4020	 7.1060
 2.4030	 7.0920
 2.4040	 7.0820
 2.4050	 7.0710
 2.4060	 7.0440
 2.4070	 6.9930
 2.4080	 6.9280
 2.4090	 6.8740
 2.4100	 6.8350
 2.4110	 6.8190
 2.4120	 6.8070
 2.4130	 6.7840
 2.4140	 6.7430
 2.4150	 6.6880
 2.4160	 6.6610
 2.4170	 6.6330
 2.4180	 6.6130
 2.4190	 6.6080
 2.4200	 6.5700
 2.4210	 6.5410
 2.4220	 6.5060
 2.4230	 6.4500
 2.4240	 6.4220
 2.4250	 6.4030
 2.4260	 6.3780
 2.4270	 6.3570
 2.4280	 6.3220
 2.4290	 6.2650
 2.4300	 6.2140
 2.4310	 6.1910
 2.4320	 6.1770
 2.4330	 6.1640
 2.4340	 6.1530
 2.4350	 6.1180
 2.4360	 6.0660
 2.4370	 6.0320
 2.4380	 5.9940
 2.4390	 5.9640
 2.4400	 5.9490
 2.4410	 5.9090
 2.4420	 5.8690
 2.4430	 5.8330
 2.4440	 5.8000
 2.4450	 5.7740
 2.4460	 5.7490
 2.4470	 5.7210
 2.4480	 5.6890
 2.4490	 5.6570
 2.4500	 5.6160
 2.4510	 5.5720
 2.4520	 5.5310
 2.4530	 5.5140
 2.4540	 5.4940
 2.4550	 5.4800
 2.4560	 5.4770
 2.4570	 5.4240
 2.4580	 5.3800
 2.4590	 5.3580
 2.4600	 5.3240
 2.4610	 5.3200
 2.4620	 5.3110
 2.4630	 5.2800
 2.4640	 5.2620
 2.4650	 5.2440
 2.4660	 5.2320
 2.4670	 5.2350
 2.4680	 5.2130
 2.4690	 5.1420
 2.4700	 5.0910
 2.4710	 5.0110
 2.4720	 4.9690
 2.4730	 4.9740
 2.4740	 4.9750
 2.4750	 4.9990
 2.4760	 4.9920
 2.4770	 4.9630
 2.4780	 4.9340
 2.4790	 4.8890
 2.4800	 4.8670
 2.4810	 4.8410
 2.4820	 4.8290
 2.4830	 4.8280
 2.4840	 4.7910
 2.4850	 4.8370
 2.4860	 4.8670
 2.4870	 4.8590
 2.4880	 4.9000
 2.4890	 4.8980
 2.4900	 4.8660
 2.4910	 4.8590
 2.4920	 4.8460
 2.4930	 4.8180
 2.4940	 4.8290
 2.4950	 4.8220
 2.4960	 4.7820
 2.4970	 4.7870
 2.4980	 4.7450
 2.4990	 4.7270
 2.5000	 4.7420
