Name: Pinus ponderosa 1
Type: vegetation
Class: Tree
Genus: Pinus
Species: ponderosa
Sample No.: VH249
Owner: UCSB
Wavelength Range: TIR
Origin: 37.0443; -119.3026; WGS84
Collection Date: 11/2/2013
Description: Samples were collected as part of the HyspIRI Airborne Campaign. 48 individual plants were sampled in three times in 2013 - spring  summer  and fall. The name of the sample includes a 1  2  or 3 which references a different individual of the species. Samples were taken to JPL and processed within 48 hours of collection. The same leaves were processed in the Nicolet and then measured using the ASD.
Measurement: Hemispherical reflectance
First Column: X
Second Column: Y
X Units: Wavelength (micrometers)
Y Units: Reflectance (percentage)
First X Value: 2.501
Last X Value: 15.387
Number of X Values: 1737
Additional Information: vegetation.tree.pinus.ponderosa.tir.vh249.ucsb.nicolet.ancillary.txt

 2.5010	 4.6400
 2.5030	 4.3840
 2.5040	 4.1630
 2.5050	 4.1870
 2.5060	 4.1260
 2.5070	 4.1580
 2.5090	 4.2580
 2.5100	 4.3670
 2.5110	 4.2880
 2.5120	 4.3250
 2.5140	 4.1650
 2.5150	 4.3120
 2.5160	 4.3330
 2.5170	 4.2260
 2.5180	 4.2140
 2.5200	 4.3840
 2.5210	 4.3230
 2.5220	 4.2230
 2.5230	 4.1890
 2.5250	 4.4010
 2.5260	 4.3900
 2.5270	 4.3070
 2.5280	 4.3460
 2.5290	 4.4780
 2.5310	 4.4310
 2.5320	 4.5220
 2.5330	 4.5240
 2.5340	 4.4150
 2.5360	 4.3760
 2.5370	 4.4120
 2.5380	 4.2710
 2.5390	 4.2830
 2.5410	 4.2340
 2.5420	 4.3840
 2.5430	 4.4310
 2.5440	 4.3920
 2.5460	 4.3050
 2.5470	 4.4030
 2.5480	 4.4300
 2.5490	 4.5390
 2.5510	 4.4850
 2.5520	 4.4630
 2.5530	 4.3150
 2.5540	 4.3920
 2.5560	 4.4580
 2.5570	 4.4920
 2.5580	 4.5350
 2.5590	 4.5130
 2.5610	 4.3580
 2.5620	 4.3300
 2.5630	 4.4120
 2.5640	 4.5410
 2.5660	 4.4730
 2.5670	 4.2980
 2.5680	 4.2750
 2.5700	 4.4970
 2.5710	 4.4410
 2.5720	 4.3720
 2.5730	 4.4620
 2.5750	 4.6080
 2.5760	 4.4210
 2.5770	 4.3860
 2.5790	 4.4120
 2.5800	 4.4510
 2.5810	 4.3150
 2.5820	 4.4310
 2.5840	 4.4610
 2.5850	 4.5540
 2.5860	 4.4960
 2.5880	 4.5510
 2.5890	 4.5690
 2.5900	 4.5810
 2.5910	 4.3800
 2.5930	 4.4310
 2.5940	 4.4770
 2.5950	 4.7210
 2.5970	 4.6780
 2.5980	 4.5600
 2.5990	 4.4230
 2.6000	 4.4070
 2.6020	 4.2700
 2.6030	 4.3550
 2.6040	 4.3760
 2.6060	 4.3290
 2.6070	 4.3630
 2.6080	 4.3760
 2.6100	 4.3320
 2.6110	 4.4290
 2.6120	 4.3090
 2.6140	 4.3300
 2.6150	 4.2460
 2.6160	 4.2670
 2.6180	 4.2740
 2.6190	 4.2720
 2.6200	 4.2900
 2.6220	 4.2360
 2.6230	 4.2440
 2.6240	 4.3050
 2.6260	 4.0850
 2.6270	 4.1200
 2.6280	 4.1050
 2.6300	 4.0220
 2.6310	 4.0610
 2.6320	 4.1350
 2.6340	 4.0530
 2.6350	 4.1750
 2.6360	 4.2520
 2.6380	 4.1940
 2.6390	 4.0030
 2.6400	 3.8830
 2.6420	 3.7360
 2.6430	 3.8280
 2.6440	 3.8200
 2.6460	 3.8240
 2.6470	 3.8540
 2.6480	 3.9560
 2.6500	 3.7590
 2.6510	 3.5890
 2.6520	 3.6170
 2.6540	 3.7520
 2.6550	 3.8050
 2.6560	 3.8300
 2.6580	 3.6730
 2.6590	 3.6330
 2.6610	 3.5210
 2.6620	 3.6010
 2.6630	 3.5690
 2.6650	 3.6910
 2.6660	 3.6590
 2.6670	 3.5420
 2.6690	 3.4360
 2.6700	 3.7010
 2.6720	 3.8150
 2.6730	 3.7050
 2.6740	 3.3490
 2.6760	 3.3310
 2.6770	 3.4580
 2.6780	 3.3810
 2.6800	 3.2130
 2.6810	 3.2600
 2.6830	 3.3100
 2.6840	 3.3160
 2.6850	 3.1850
 2.6870	 3.1470
 2.6880	 3.0590
 2.6900	 3.1450
 2.6910	 3.2310
 2.6920	 3.1710
 2.6940	 3.1060
 2.6950	 3.2780
 2.6970	 3.1390
 2.6980	 2.8830
 2.6990	 2.8540
 2.7010	 3.0050
 2.7020	 2.9990
 2.7040	 2.9790
 2.7050	 2.9150
 2.7060	 2.8710
 2.7080	 2.9310
 2.7090	 3.0650
 2.7110	 2.8520
 2.7120	 2.7160
 2.7130	 2.7550
 2.7150	 2.9190
 2.7160	 2.7430
 2.7180	 2.6760
 2.7190	 2.6670
 2.7210	 2.7710
 2.7220	 2.6040
 2.7230	 2.4720
 2.7250	 2.5140
 2.7260	 2.6020
 2.7280	 2.6450
 2.7290	 2.9790
 2.7310	 2.8800
 2.7320	 2.5840
 2.7330	 2.5060
 2.7350	 2.6920
 2.7360	 2.7200
 2.7380	 2.5750
 2.7390	 2.5800
 2.7410	 2.6660
 2.7420	 2.5990
 2.7440	 2.5020
 2.7450	 2.4390
 2.7470	 2.4820
 2.7480	 2.5180
 2.7490	 2.3760
 2.7510	 2.3230
 2.7520	 2.4560
 2.7540	 2.3320
 2.7550	 2.2490
 2.7570	 2.1580
 2.7580	 2.4140
 2.7600	 2.5100
 2.7610	 2.6830
 2.7630	 2.5620
 2.7640	 2.5270
 2.7660	 2.4860
 2.7670	 2.6070
 2.7680	 2.7710
 2.7700	 2.6300
 2.7710	 2.2770
 2.7730	 2.5110
 2.7740	 2.7520
 2.7760	 2.6490
 2.7770	 2.5430
 2.7790	 2.8520
 2.7800	 2.7600
 2.7820	 2.6020
 2.7830	 2.2600
 2.7850	 2.1220
 2.7860	 2.3700
 2.7880	 2.6070
 2.7890	 2.4860
 2.7910	 2.4000
 2.7920	 2.5270
 2.7940	 2.6800
 2.7950	 2.4840
 2.7970	 2.3850
 2.7980	 2.4100
 2.8000	 2.6590
 2.8010	 2.6750
 2.8030	 2.6400
 2.8040	 2.5720
 2.8060	 2.5740
 2.8070	 2.4130
 2.8090	 2.5380
 2.8110	 2.6980
 2.8120	 2.6050
 2.8140	 2.3130
 2.8150	 2.5090
 2.8170	 2.5970
 2.8180	 2.5760
 2.8200	 2.3190
 2.8210	 2.2420
 2.8230	 2.2370
 2.8240	 2.3580
 2.8260	 2.4620
 2.8270	 2.5550
 2.8290	 2.2850
 2.8300	 2.2540
 2.8320	 2.2720
 2.8340	 2.5520
 2.8350	 2.6310
 2.8370	 2.5170
 2.8380	 2.4020
 2.8400	 2.6130
 2.8410	 2.6240
 2.8430	 2.6950
 2.8440	 2.7170
 2.8460	 2.6690
 2.8480	 2.4010
 2.8490	 2.3570
 2.8510	 2.2930
 2.8520	 2.3960
 2.8540	 2.4490
 2.8550	 2.5220
 2.8570	 2.3880
 2.8590	 2.4510
 2.8600	 2.4260
 2.8620	 2.5200
 2.8630	 2.3460
 2.8650	 2.1930
 2.8660	 2.2080
 2.8680	 2.4750
 2.8700	 2.4450
 2.8710	 2.4700
 2.8730	 2.3610
 2.8740	 2.3430
 2.8760	 2.2470
 2.8780	 2.4850
 2.8790	 2.6040
 2.8810	 2.4080
 2.8820	 2.3300
 2.8840	 2.6700
 2.8860	 2.6330
 2.8870	 2.5580
 2.8890	 2.4240
 2.8900	 2.3990
 2.8920	 2.2400
 2.8940	 2.1790
 2.8950	 2.2960
 2.8970	 2.4650
 2.8980	 2.3140
 2.9000	 2.2000
 2.9020	 2.1990
 2.9030	 2.4120
 2.9050	 2.4530
 2.9070	 2.5210
 2.9080	 2.4590
 2.9100	 2.3800
 2.9120	 2.2460
 2.9130	 2.4000
 2.9150	 2.5500
 2.9160	 2.6880
 2.9180	 2.5790
 2.9200	 2.3950
 2.9210	 2.2180
 2.9230	 2.4610
 2.9250	 2.4080
 2.9260	 2.3930
 2.9280	 2.3660
 2.9300	 2.4920
 2.9310	 2.5270
 2.9330	 2.4960
 2.9350	 2.2890
 2.9360	 2.3140
 2.9380	 2.5260
 2.9400	 2.6420
 2.9410	 2.5120
 2.9430	 2.6740
 2.9450	 2.2410
 2.9460	 1.9250
 2.9480	 2.0500
 2.9500	 2.1140
 2.9510	 2.0480
 2.9530	 2.0440
 2.9550	 1.7070
 2.9560	 2.0820
 2.9580	 2.3660
 2.9600	 1.9600
 2.9610	 1.7520
 2.9630	 2.4820
 2.9650	 3.2560
 2.9660	 3.2060
 2.9680	 2.7320
 2.9700	 2.7200
 2.9720	 2.3040
 2.9730	 1.5970
 2.9750	 1.8880
 2.9770	 2.3430
 2.9780	 1.9480
 2.9800	 2.0380
 2.9820	 2.4100
 2.9840	 2.0840
 2.9850	 1.7100
 2.9870	 2.0280
 2.9890	 2.3210
 2.9900	 2.8050
 2.9920	 1.7050
 2.9940	 1.8310
 2.9960	 3.7610
 2.9970	 4.8050
 2.9990	 3.8310
 3.0010	 1.7500
 3.0030	 1.1710
 3.0040	 1.7240
 3.0060	 2.0950
 3.0080	 1.9840
 3.0100	 2.0190
 3.0110	 2.1760
 3.0130	 1.4520
 3.0150	 1.3190
 3.0170	 1.6560
 3.0180	 2.0960
 3.0200	 2.0850
 3.0220	 2.2770
 3.0240	 2.7050
 3.0250	 2.6270
 3.0270	 2.6260
 3.0290	 2.6480
 3.0310	 2.4410
 3.0320	 2.1630
 3.0340	 2.4190
 3.0360	 2.7450
 3.0380	 2.9350
 3.0400	 3.2100
 3.0410	 2.1820
 3.0430	 1.0240
 3.0450	 0.7110
 3.0470	 2.1440
 3.0480	 2.6980
 3.0500	 2.1250
 3.0520	 2.7580
 3.0540	 3.2390
 3.0560	 2.2680
 3.0570	 2.0100
 3.0590	 1.9890
 3.0610	 1.7400
 3.0630	 2.0430
 3.0650	 2.2330
 3.0660	 2.2050
 3.0680	 2.2040
 3.0700	 2.0410
 3.0720	 2.3050
 3.0740	 2.2530
 3.0760	 2.4770
 3.0770	 2.4900
 3.0790	 2.5320
 3.0810	 2.4660
 3.0830	 2.4480
 3.0850	 2.2990
 3.0870	 2.2940
 3.0880	 2.3100
 3.0900	 2.4570
 3.0920	 2.5580
 3.0940	 2.6520
 3.0960	 2.5300
 3.0980	 2.4370
 3.0990	 2.2950
 3.1010	 2.4140
 3.1030	 2.3210
 3.1050	 2.4310
 3.1070	 2.5920
 3.1090	 2.6200
 3.1110	 2.5020
 3.1120	 2.3390
 3.1140	 1.9720
 3.1160	 2.1390
 3.1180	 2.1920
 3.1200	 2.1720
 3.1220	 2.2490
 3.1240	 2.5080
 3.1260	 2.4860
 3.1270	 2.3770
 3.1290	 2.1280
 3.1310	 2.1590
 3.1330	 2.0550
 3.1350	 2.1490
 3.1370	 2.2320
 3.1390	 2.3040
 3.1410	 2.2960
 3.1430	 1.5380
 3.1450	 1.0860
 3.1460	 1.9090
 3.1480	 1.7590
 3.1500	 2.1500
 3.1520	 2.6660
 3.1540	 2.3290
 3.1560	 2.1970
 3.1580	 2.0210
 3.1600	 1.6470
 3.1620	 2.0490
 3.1640	 2.5190
 3.1660	 2.6050
 3.1680	 2.6660
 3.1700	 2.8980
 3.1710	 3.0210
 3.1730	 3.1250
 3.1750	 2.3740
 3.1770	 1.6670
 3.1790	 2.2390
 3.1810	 2.0060
 3.1830	 1.8360
 3.1850	 2.2740
 3.1870	 2.5940
 3.1890	 2.7620
 3.1910	 2.6160
 3.1930	 2.3540
 3.1950	 2.3410
 3.1970	 2.3610
 3.1990	 2.3480
 3.2010	 2.4070
 3.2030	 2.3510
 3.2050	 2.4250
 3.2070	 2.4490
 3.2090	 2.4620
 3.2110	 2.3990
 3.2130	 2.2230
 3.2150	 2.2220
 3.2170	 2.4040
 3.2190	 2.4120
 3.2210	 2.3860
 3.2230	 2.2070
 3.2250	 2.2270
 3.2270	 2.1100
 3.2290	 2.0170
 3.2310	 2.2000
 3.2330	 2.4070
 3.2350	 2.4160
 3.2370	 2.3420
 3.2390	 1.9850
 3.2410	 1.8490
 3.2430	 2.2880
 3.2450	 2.4720
 3.2470	 2.3720
 3.2490	 2.6300
 3.2510	 2.7160
 3.2530	 2.4530
 3.2550	 2.1260
 3.2570	 2.2810
 3.2590	 2.4180
 3.2610	 2.3770
 3.2630	 2.2510
 3.2650	 2.2640
 3.2670	 2.0760
 3.2690	 2.0360
 3.2720	 2.2030
 3.2740	 2.3930
 3.2760	 2.3860
 3.2780	 2.3030
 3.2800	 2.1230
 3.2820	 2.1770
 3.2840	 2.1560
 3.2860	 2.2520
 3.2880	 2.2530
 3.2900	 2.2520
 3.2920	 2.2000
 3.2940	 2.2900
 3.2960	 2.3300
 3.2990	 2.3230
 3.3010	 2.1350
 3.3030	 2.3280
 3.3050	 2.5390
 3.3070	 2.4460
 3.3090	 2.3390
 3.3110	 2.4480
 3.3130	 2.3120
 3.3150	 2.3560
 3.3180	 2.3950
 3.3200	 2.0330
 3.3220	 1.8230
 3.3240	 2.0570
 3.3260	 2.0780
 3.3280	 2.0840
 3.3300	 2.0350
 3.3330	 2.1080
 3.3350	 2.0770
 3.3370	 2.2070
 3.3390	 2.0880
 3.3410	 1.9800
 3.3430	 2.1220
 3.3450	 2.3480
 3.3480	 2.2120
 3.3500	 2.1050
 3.3520	 2.0040
 3.3540	 2.0200
 3.3560	 2.0570
 3.3580	 2.1080
 3.3610	 2.0140
 3.3630	 2.0030
 3.3650	 1.9330
 3.3670	 1.9680
 3.3690	 1.9280
 3.3720	 1.9880
 3.3740	 1.8990
 3.3760	 1.9250
 3.3780	 1.9750
 3.3800	 2.0810
 3.3830	 1.9160
 3.3850	 1.8830
 3.3870	 1.9470
 3.3890	 2.0030
 3.3910	 1.8650
 3.3940	 1.7810
 3.3960	 1.7270
 3.3980	 1.8460
 3.4000	 1.8670
 3.4020	 1.9940
 3.4050	 2.0160
 3.4070	 1.9410
 3.4090	 1.8880
 3.4110	 2.0420
 3.4140	 2.1740
 3.4160	 2.3400
 3.4180	 2.4170
 3.4200	 2.6360
 3.4230	 2.9530
 3.4250	 3.4740
 3.4270	 3.7360
 3.4290	 3.8450
 3.4320	 3.8920
 3.4340	 3.8540
 3.4360	 3.6940
 3.4390	 3.6990
 3.4410	 3.4960
 3.4430	 3.3000
 3.4450	 3.0840
 3.4480	 3.2560
 3.4500	 3.1650
 3.4520	 2.9870
 3.4550	 2.9370
 3.4570	 3.0440
 3.4590	 3.0550
 3.4620	 3.1600
 3.4640	 3.0550
 3.4660	 2.8460
 3.4680	 2.8150
 3.4710	 2.9300
 3.4730	 2.8410
 3.4750	 2.7080
 3.4780	 2.5740
 3.4800	 2.6120
 3.4820	 2.5730
 3.4850	 2.6180
 3.4870	 2.6200
 3.4890	 2.6040
 3.4920	 2.5160
 3.4940	 2.4750
 3.4970	 2.4180
 3.4990	 2.3220
 3.5010	 2.3980
 3.5040	 2.6520
 3.5060	 2.9990
 3.5080	 3.6950
 3.5110	 4.0840
 3.5130	 4.1950
 3.5160	 4.1840
 3.5180	 4.1310
 3.5200	 3.7930
 3.5230	 3.7020
 3.5250	 3.5750
 3.5270	 3.3650
 3.5300	 3.2190
 3.5320	 3.3340
 3.5350	 3.2800
 3.5370	 3.1490
 3.5400	 2.9360
 3.5420	 2.9030
 3.5440	 2.9630
 3.5470	 2.9580
 3.5490	 2.8670
 3.5520	 3.0630
 3.5540	 3.2390
 3.5570	 3.2340
 3.5590	 3.0190
 3.5610	 2.8870
 3.5640	 2.7510
 3.5660	 2.9150
 3.5690	 3.0250
 3.5710	 3.0550
 3.5740	 2.8040
 3.5760	 2.8350
 3.5790	 2.9610
 3.5810	 2.9860
 3.5840	 2.9090
 3.5860	 3.0010
 3.5890	 3.0200
 3.5910	 3.0500
 3.5930	 2.9760
 3.5960	 2.8690
 3.5980	 2.7430
 3.6010	 2.8920
 3.6030	 2.8290
 3.6060	 2.7750
 3.6080	 2.6860
 3.6110	 2.7630
 3.6140	 2.8430
 3.6160	 2.9000
 3.6190	 2.8900
 3.6210	 2.8780
 3.6240	 2.8050
 3.6260	 2.8680
 3.6290	 2.8330
 3.6310	 2.8250
 3.6340	 2.8190
 3.6360	 2.8270
 3.6390	 2.7450
 3.6410	 2.8060
 3.6440	 2.7690
 3.6470	 2.8310
 3.6490	 2.8220
 3.6520	 2.8660
 3.6540	 2.7560
 3.6570	 2.7240
 3.6590	 2.6530
 3.6620	 2.7760
 3.6650	 2.8070
 3.6670	 2.7710
 3.6700	 2.7890
 3.6720	 2.8270
 3.6750	 2.7630
 3.6780	 2.8040
 3.6800	 2.7820
 3.6830	 2.8510
 3.6850	 2.8040
 3.6880	 2.7830
 3.6910	 2.7050
 3.6930	 2.7320
 3.6960	 2.7100
 3.6990	 2.7570
 3.7010	 2.8100
 3.7040	 2.8880
 3.7060	 2.8070
 3.7090	 2.7690
 3.7120	 2.7620
 3.7140	 2.8120
 3.7170	 2.7720
 3.7200	 2.7990
 3.7220	 2.7660
 3.7250	 2.8110
 3.7280	 2.8630
 3.7300	 2.8880
 3.7330	 2.8520
 3.7360	 2.8820
 3.7390	 2.7510
 3.7410	 2.7850
 3.7440	 2.8080
 3.7470	 2.8560
 3.7490	 2.8700
 3.7520	 2.9280
 3.7550	 2.8880
 3.7580	 2.8610
 3.7600	 2.8400
 3.7630	 2.8000
 3.7660	 2.9040
 3.7680	 3.0370
 3.7710	 2.8530
 3.7740	 2.8150
 3.7770	 2.7580
 3.7790	 2.8530
 3.7820	 2.8870
 3.7850	 2.9610
 3.7880	 2.8760
 3.7900	 2.8760
 3.7930	 2.8530
 3.7960	 2.9210
 3.7990	 2.8250
 3.8020	 2.8250
 3.8040	 2.7710
 3.8070	 2.8430
 3.8100	 2.8290
 3.8130	 2.8980
 3.8160	 2.8820
 3.8180	 2.9370
 3.8210	 2.8810
 3.8240	 2.8750
 3.8270	 2.8350
 3.8300	 2.8520
 3.8330	 2.8730
 3.8350	 2.9120
 3.8380	 2.8170
 3.8410	 2.8500
 3.8440	 2.9110
 3.8470	 2.9960
 3.8500	 2.9810
 3.8520	 3.0610
 3.8550	 2.9440
 3.8580	 2.8540
 3.8610	 2.8030
 3.8640	 2.7450
 3.8670	 2.7250
 3.8700	 2.8840
 3.8730	 2.8800
 3.8750	 2.9380
 3.8780	 2.9120
 3.8810	 2.9680
 3.8840	 2.8950
 3.8870	 2.9480
 3.8900	 2.9630
 3.8930	 2.9480
 3.8960	 2.8820
 3.8990	 2.9050
 3.9020	 2.9550
 3.9050	 3.0330
 3.9080	 2.9740
 3.9110	 3.0240
 3.9140	 2.9220
 3.9160	 2.9780
 3.9190	 2.9670
 3.9220	 2.9610
 3.9250	 2.8900
 3.9280	 2.9030
 3.9310	 2.9100
 3.9340	 3.0220
 3.9370	 3.0420
 3.9400	 2.9940
 3.9430	 2.9680
 3.9460	 3.0080
 3.9490	 2.8970
 3.9520	 2.9230
 3.9550	 2.9940
 3.9580	 3.0680
 3.9610	 3.0460
 3.9640	 3.0350
 3.9670	 3.0100
 3.9700	 3.0600
 3.9730	 3.0170
 3.9770	 2.9850
 3.9800	 2.8940
 3.9830	 2.8970
 3.9860	 2.9030
 3.9890	 2.9800
 3.9920	 2.9200
 3.9950	 2.9620
 3.9980	 2.9770
 4.0010	 2.9380
 4.0040	 2.7890
 4.0070	 2.8810
 4.0100	 2.9530
 4.0130	 3.0460
 4.0170	 2.9940
 4.0200	 2.9120
 4.0230	 2.8430
 4.0260	 2.8810
 4.0290	 2.8200
 4.0320	 2.8920
 4.0350	 2.9410
 4.0380	 2.9740
 4.0420	 2.9020
 4.0450	 2.9090
 4.0480	 2.9060
 4.0510	 2.9980
 4.0540	 2.9580
 4.0570	 2.9780
 4.0610	 2.9760
 4.0640	 3.0470
 4.0670	 2.9750
 4.0700	 2.9030
 4.0730	 2.8570
 4.0770	 2.9270
 4.0800	 2.8850
 4.0830	 2.9320
 4.0860	 2.9240
 4.0890	 2.9680
 4.0930	 2.8530
 4.0960	 2.9250
 4.0990	 3.0120
 4.1020	 3.0880
 4.1060	 2.9900
 4.1090	 2.9490
 4.1120	 2.8790
 4.1150	 2.9610
 4.1190	 3.0120
 4.1220	 3.0380
 4.1250	 2.9910
 4.1280	 3.0060
 4.1320	 2.8740
 4.1350	 2.7930
 4.1380	 2.7820
 4.1420	 2.9340
 4.1450	 2.9230
 4.1480	 2.9180
 4.1520	 2.8910
 4.1550	 2.9900
 4.1580	 2.9960
 4.1620	 2.9340
 4.1650	 2.8400
 4.1680	 2.8760
 4.1720	 2.8990
 4.1750	 2.9450
 4.1780	 2.9760
 4.1820	 3.0670
 4.1850	 2.9270
 4.1890	 2.8820
 4.1920	 2.8910
 4.1950	 3.1120
 4.1990	 3.1320
 4.2020	 3.0740
 4.2060	 2.9900
 4.2090	 3.1010
 4.2120	 3.0840
 4.2160	 3.2730
 4.2190	 3.1990
 4.2230	 3.2640
 4.2260	 3.0970
 4.2300	 3.0930
 4.2330	 2.9560
 4.2360	 3.1560
 4.2400	 3.1170
 4.2430	 3.0520
 4.2470	 2.8410
 4.2500	 3.1520
 4.2540	 3.0430
 4.2570	 3.2490
 4.2610	 3.3360
 4.2640	 3.3270
 4.2680	 3.3200
 4.2710	 3.3690
 4.2750	 3.1440
 4.2780	 3.4820
 4.2820	 3.5410
 4.2850	 3.6480
 4.2890	 3.5160
 4.2930	 3.4090
 4.2960	 3.1460
 4.3000	 3.1920
 4.3030	 3.0370
 4.3070	 3.1220
 4.3100	 3.1630
 4.3140	 3.3300
 4.3180	 3.3080
 4.3210	 3.2520
 4.3250	 3.0420
 4.3280	 2.8440
 4.3320	 2.8480
 4.3360	 3.0020
 4.3390	 2.9440
 4.3430	 2.9650
 4.3470	 2.9650
 4.3500	 2.9400
 4.3540	 2.8230
 4.3570	 2.9510
 4.3610	 2.9790
 4.3650	 2.9920
 4.3680	 2.9730
 4.3720	 2.9690
 4.3760	 2.8120
 4.3800	 2.7910
 4.3830	 2.8300
 4.3870	 2.9240
 4.3910	 2.8580
 4.3940	 2.9080
 4.3980	 2.8550
 4.4020	 2.9130
 4.4060	 2.8980
 4.4090	 2.9930
 4.4130	 2.9790
 4.4170	 2.8930
 4.4210	 2.7990
 4.4240	 2.8590
 4.4280	 2.9020
 4.4320	 2.8630
 4.4360	 2.7460
 4.4400	 2.7950
 4.4430	 2.7870
 4.4470	 2.7890
 4.4510	 2.7300
 4.4550	 2.8760
 4.4590	 2.8570
 4.4620	 2.7440
 4.4660	 2.6980
 4.4700	 2.8070
 4.4740	 2.7980
 4.4780	 2.8170
 4.4820	 2.7990
 4.4860	 2.8290
 4.4900	 2.8190
 4.4930	 2.8450
 4.4970	 2.7420
 4.5010	 2.7210
 4.5050	 2.6680
 4.5090	 2.7980
 4.5130	 2.8210
 4.5170	 2.8110
 4.5210	 2.6880
 4.5250	 2.7140
 4.5290	 2.7000
 4.5330	 2.7820
 4.5370	 2.7850
 4.5410	 2.7670
 4.5450	 2.7370
 4.5490	 2.7670
 4.5530	 2.6890
 4.5570	 2.7310
 4.5610	 2.7010
 4.5650	 2.7610
 4.5690	 2.6550
 4.5730	 2.7280
 4.5770	 2.7890
 4.5810	 2.7350
 4.5850	 2.6120
 4.5890	 2.7960
 4.5930	 2.8780
 4.5970	 2.7040
 4.6010	 2.5540
 4.6050	 2.7340
 4.6090	 2.7310
 4.6130	 2.7460
 4.6170	 2.7030
 4.6220	 2.6380
 4.6260	 2.5820
 4.6300	 2.7440
 4.6340	 2.7010
 4.6380	 2.6730
 4.6420	 2.5610
 4.6460	 2.5390
 4.6510	 2.5510
 4.6550	 2.6650
 4.6590	 2.5350
 4.6630	 2.5410
 4.6670	 2.6490
 4.6720	 2.6230
 4.6760	 2.5920
 4.6800	 2.6590
 4.6840	 2.6250
 4.6880	 2.6690
 4.6930	 2.6690
 4.6970	 2.6470
 4.7010	 2.5010
 4.7050	 2.5660
 4.7100	 2.6330
 4.7140	 2.8100
 4.7180	 2.7500
 4.7230	 2.7010
 4.7270	 2.6780
 4.7310	 2.7050
 4.7360	 2.6300
 4.7400	 2.5440
 4.7440	 2.5430
 4.7490	 2.6670
 4.7530	 2.6030
 4.7570	 2.6270
 4.7620	 2.6110
 4.7660	 2.6850
 4.7700	 2.5850
 4.7750	 2.6500
 4.7790	 2.7780
 4.7840	 2.6910
 4.7880	 2.6050
 4.7920	 2.8760
 4.7970	 2.7980
 4.8010	 2.7960
 4.8060	 2.8310
 4.8100	 2.8250
 4.8150	 2.7040
 4.8190	 2.7150
 4.8240	 2.6190
 4.8280	 2.5900
 4.8330	 2.4580
 4.8370	 2.5700
 4.8420	 2.5670
 4.8460	 2.6110
 4.8510	 2.6650
 4.8550	 2.7960
 4.8600	 2.7070
 4.8640	 2.6360
 4.8690	 2.5940
 4.8730	 2.6800
 4.8780	 2.6120
 4.8830	 2.6100
 4.8870	 2.5710
 4.8920	 2.6470
 4.8960	 2.6480
 4.9010	 2.7020
 4.9060	 2.6250
 4.9100	 2.5930
 4.9150	 2.5660
 4.9200	 2.6810
 4.9240	 2.6820
 4.9290	 2.6970
 4.9340	 2.6270
 4.9380	 2.7010
 4.9430	 2.6520
 4.9480	 2.6010
 4.9530	 2.6000
 4.9570	 2.7140
 4.9620	 2.6660
 4.9670	 2.6730
 4.9720	 2.6120
 4.9760	 2.6800
 4.9810	 2.6930
 4.9860	 2.6830
 4.9910	 2.5880
 4.9960	 2.7050
 5.0000	 2.7920
 5.0050	 2.8400
 5.0100	 2.6880
 5.0150	 2.6080
 5.0200	 2.5690
 5.0250	 2.6840
 5.0290	 2.6570
 5.0340	 2.6980
 5.0390	 2.6810
 5.0440	 2.6780
 5.0490	 2.6680
 5.0540	 2.7180
 5.0590	 2.6270
 5.0640	 2.6830
 5.0690	 2.6670
 5.0740	 2.7040
 5.0790	 2.6920
 5.0840	 2.7100
 5.0890	 2.6190
 5.0940	 2.6120
 5.0990	 2.6300
 5.1040	 2.7460
 5.1090	 2.6940
 5.1140	 2.7220
 5.1190	 2.6490
 5.1240	 2.7300
 5.1290	 2.7070
 5.1340	 2.6950
 5.1390	 2.6780
 5.1440	 2.8300
 5.1490	 2.7940
 5.1540	 2.7490
 5.1600	 2.6630
 5.1650	 2.6910
 5.1700	 2.7020
 5.1750	 2.7840
 5.1800	 2.8510
 5.1850	 2.8850
 5.1910	 2.7440
 5.1960	 2.7180
 5.2010	 2.6680
 5.2060	 2.6690
 5.2110	 2.6800
 5.2170	 2.7520
 5.2220	 2.7050
 5.2270	 2.8080
 5.2320	 2.8290
 5.2380	 2.8600
 5.2430	 2.7270
 5.2480	 2.7770
 5.2540	 2.8470
 5.2590	 2.8850
 5.2640	 2.8030
 5.2700	 2.7060
 5.2750	 2.6050
 5.2800	 2.6450
 5.2860	 2.6150
 5.2910	 2.6660
 5.2970	 2.6840
 5.3020	 2.6830
 5.3070	 2.6420
 5.3130	 2.8050
 5.3180	 2.8060
 5.3240	 2.7610
 5.3290	 2.7180
 5.3350	 2.8340
 5.3400	 2.7830
 5.3460	 2.7370
 5.3510	 2.6070
 5.3570	 2.6240
 5.3620	 2.5840
 5.3680	 2.7300
 5.3730	 2.7020
 5.3790	 2.6450
 5.3850	 2.5930
 5.3900	 2.7510
 5.3960	 2.8350
 5.4010	 2.8230
 5.4070	 2.6560
 5.4130	 2.6840
 5.4180	 2.6700
 5.4240	 2.7680
 5.4300	 2.7630
 5.4350	 2.7270
 5.4410	 2.5930
 5.4470	 2.6640
 5.4530	 2.6420
 5.4580	 2.7040
 5.4640	 2.6430
 5.4700	 2.6720
 5.4760	 2.6360
 5.4810	 2.6050
 5.4870	 2.5790
 5.4930	 2.5940
 5.4990	 2.5330
 5.5050	 2.6400
 5.5110	 2.5960
 5.5160	 2.6760
 5.5220	 2.6440
 5.5280	 2.5350
 5.5340	 2.4600
 5.5400	 2.4660
 5.5460	 2.4310
 5.5520	 2.5170
 5.5580	 2.4870
 5.5640	 2.4510
 5.5700	 2.3300
 5.5760	 2.3600
 5.5820	 2.3700
 5.5880	 2.4380
 5.5940	 2.4090
 5.6000	 2.4340
 5.6060	 2.3620
 5.6120	 2.3510
 5.6180	 2.2500
 5.6240	 2.2880
 5.6300	 2.1910
 5.6360	 2.2130
 5.6420	 2.2150
 5.6490	 2.2450
 5.6550	 2.1830
 5.6610	 2.1840
 5.6670	 2.0170
 5.6730	 2.0540
 5.6800	 2.0410
 5.6860	 2.0370
 5.6920	 1.8250
 5.6980	 1.7820
 5.7040	 1.7220
 5.7110	 1.7330
 5.7170	 1.7200
 5.7230	 1.7220
 5.7300	 1.5530
 5.7360	 1.7280
 5.7420	 1.8970
 5.7490	 2.2840
 5.7550	 2.8070
 5.7620	 3.4850
 5.7680	 3.9140
 5.7740	 4.0450
 5.7810	 3.8080
 5.7870	 3.6620
 5.7940	 3.4010
 5.8000	 3.2120
 5.8070	 2.9790
 5.8130	 3.0410
 5.8200	 2.9650
 5.8260	 2.9830
 5.8330	 2.8840
 5.8390	 2.8940
 5.8460	 2.8820
 5.8530	 2.8740
 5.8590	 2.7780
 5.8660	 2.7510
 5.8720	 2.6890
 5.8790	 2.8290
 5.8860	 2.7940
 5.8920	 2.8320
 5.8990	 2.7290
 5.9060	 2.8490
 5.9130	 2.8920
 5.9190	 2.8530
 5.9260	 2.7170
 5.9330	 2.9230
 5.9400	 3.0080
 5.9470	 3.0150
 5.9530	 2.8360
 5.9600	 2.8410
 5.9670	 2.7740
 5.9740	 2.8090
 5.9810	 2.7870
 5.9880	 2.9300
 5.9950	 2.9400
 6.0020	 2.9380
 6.0090	 2.8560
 6.0160	 3.0460
 6.0230	 2.9870
 6.0300	 2.8770
 6.0370	 2.6960
 6.0440	 2.8090
 6.0510	 2.9200
 6.0580	 2.8700
 6.0650	 2.7780
 6.0720	 2.8840
 6.0790	 2.7800
 6.0860	 2.9190
 6.0930	 2.9020
 6.1000	 3.0530
 6.1080	 2.9900
 6.1150	 3.0550
 6.1220	 3.0840
 6.1290	 3.2220
 6.1370	 3.1730
 6.1440	 3.2980
 6.1510	 3.3940
 6.1580	 3.6230
 6.1660	 3.5430
 6.1730	 3.6980
 6.1800	 3.8560
 6.1880	 4.0370
 6.1950	 4.0170
 6.2030	 4.1110
 6.2100	 3.9790
 6.2170	 3.9540
 6.2250	 3.7600
 6.2320	 3.5950
 6.2400	 3.2530
 6.2470	 3.0460
 6.2550	 2.8140
 6.2630	 2.7560
 6.2700	 2.6610
 6.2780	 2.6440
 6.2850	 2.5640
 6.2930	 2.6570
 6.3010	 2.5700
 6.3080	 2.5880
 6.3160	 2.4690
 6.3240	 2.4960
 6.3310	 2.4000
 6.3390	 2.5260
 6.3470	 2.5330
 6.3550	 2.6090
 6.3620	 2.4440
 6.3700	 2.3750
 6.3780	 2.2460
 6.3860	 2.3180
 6.3940	 2.3140
 6.4020	 2.4860
 6.4100	 2.5320
 6.4180	 2.5500
 6.4260	 2.4520
 6.4330	 2.5280
 6.4410	 2.3540
 6.4490	 2.2890
 6.4580	 2.2030
 6.4660	 2.4940
 6.4740	 2.4810
 6.4820	 2.5480
 6.4900	 2.5250
 6.4980	 2.3980
 6.5060	 2.1960
 6.5140	 2.3390
 6.5230	 2.4290
 6.5310	 2.5540
 6.5390	 2.4230
 6.5470	 2.3850
 6.5550	 2.3030
 6.5640	 2.2870
 6.5720	 2.2040
 6.5800	 2.2360
 6.5890	 2.2320
 6.5970	 2.3100
 6.6060	 2.1990
 6.6140	 2.3010
 6.6220	 2.2790
 6.6310	 2.3920
 6.6390	 2.3130
 6.6480	 2.4140
 6.6560	 2.3560
 6.6650	 2.3730
 6.6740	 2.2750
 6.6820	 2.2120
 6.6910	 2.1280
 6.6990	 2.2920
 6.7080	 2.2530
 6.7170	 2.3250
 6.7260	 2.2720
 6.7340	 2.2370
 6.7430	 2.1300
 6.7520	 2.1920
 6.7610	 2.0790
 6.7690	 2.1640
 6.7780	 2.2520
 6.7870	 2.4590
 6.7960	 2.4590
 6.8050	 2.4470
 6.8140	 2.3730
 6.8230	 2.6700
 6.8320	 2.7910
 6.8410	 2.7960
 6.8500	 2.5270
 6.8590	 2.4920
 6.8680	 2.4330
 6.8770	 2.5840
 6.8860	 2.5200
 6.8950	 2.4710
 6.9050	 2.3160
 6.9140	 2.3670
 6.9230	 2.3520
 6.9320	 2.4310
 6.9420	 2.2660
 6.9510	 2.3240
 6.9600	 2.4370
 6.9700	 2.6360
 6.9790	 2.5040
 6.9880	 2.5580
 6.9980	 2.4770
 7.0070	 2.4910
 7.0170	 2.3700
 7.0260	 2.4720
 7.0360	 2.3290
 7.0450	 2.3290
 7.0550	 2.3200
 7.0650	 2.5230
 7.0740	 2.5970
 7.0840	 2.7150
 7.0940	 2.5210
 7.1030	 2.5560
 7.1130	 2.4680
 7.1230	 2.4570
 7.1330	 2.4120
 7.1420	 2.4740
 7.1520	 2.3990
 7.1620	 2.6150
 7.1720	 2.6150
 7.1820	 2.5490
 7.1920	 2.4270
 7.2020	 2.5070
 7.2120	 2.4290
 7.2220	 2.3930
 7.2320	 2.3830
 7.2420	 2.4970
 7.2520	 2.3580
 7.2620	 2.3960
 7.2730	 2.3100
 7.2830	 2.3330
 7.2930	 2.3050
 7.3030	 2.4240
 7.3140	 2.2940
 7.3240	 2.3540
 7.3340	 2.3510
 7.3450	 2.4510
 7.3550	 2.2920
 7.3660	 2.3280
 7.3760	 2.3340
 7.3870	 2.5000
 7.3970	 2.4270
 7.4080	 2.4090
 7.4180	 2.3630
 7.4290	 2.4330
 7.4400	 2.3660
 7.4500	 2.4520
 7.4610	 2.3900
 7.4720	 2.5640
 7.4830	 2.6260
 7.4930	 2.7310
 7.5040	 2.5080
 7.5150	 2.5020
 7.5260	 2.3940
 7.5370	 2.4690
 7.5480	 2.3970
 7.5590	 2.3720
 7.5700	 2.3180
 7.5810	 2.3420
 7.5920	 2.2130
 7.6030	 2.2250
 7.6140	 1.9810
 7.6260	 1.9900
 7.6370	 1.9090
 7.6480	 1.9130
 7.6590	 1.8200
 7.6710	 2.1140
 7.6820	 2.1950
 7.6930	 2.2280
 7.7050	 2.1570
 7.7160	 2.2490
 7.7280	 2.1200
 7.7390	 2.0620
 7.7510	 2.0280
 7.7630	 2.1990
 7.7740	 2.1610
 7.7860	 2.2100
 7.7980	 2.0120
 7.8090	 2.0470
 7.8210	 2.0090
 7.8330	 2.1860
 7.8450	 2.0900
 7.8570	 2.1720
 7.8690	 2.1360
 7.8810	 2.1830
 7.8930	 2.1300
 7.9050	 2.2260
 7.9170	 2.0800
 7.9290	 2.1540
 7.9410	 2.1130
 7.9530	 2.3270
 7.9650	 2.1850
 7.9780	 2.1570
 7.9900	 2.1710
 8.0020	 2.3560
 8.0150	 2.1520
 8.0270	 2.0360
 8.0390	 1.9760
 8.0520	 2.2210
 8.0640	 2.1320
 8.0770	 2.2360
 8.0900	 2.1930
 8.1020	 2.2340
 8.1150	 2.0290
 8.1280	 2.2330
 8.1400	 2.1410
 8.1530	 2.2100
 8.1660	 2.2010
 8.1790	 2.3710
 8.1920	 2.1330
 8.2050	 2.2140
 8.2180	 2.1180
 8.2310	 2.2760
 8.2440	 2.1450
 8.2570	 2.2050
 8.2700	 2.0100
 8.2830	 1.9020
 8.2970	 1.8410
 8.3100	 2.1490
 8.3230	 2.1320
 8.3370	 2.1990
 8.3500	 2.0530
 8.3640	 2.2840
 8.3770	 2.2450
 8.3910	 2.1620
 8.4040	 2.0710
 8.4180	 2.3010
 8.4320	 2.2450
 8.4450	 2.1720
 8.4590	 1.8690
 8.4730	 2.1000
 8.4870	 2.2610
 8.5010	 2.3610
 8.5150	 2.1270
 8.5290	 2.2480
 8.5430	 2.2720
 8.5570	 2.5850
 8.5710	 2.5790
 8.5850	 2.6790
 8.5990	 2.4840
 8.6140	 2.5180
 8.6280	 2.3660
 8.6420	 2.4440
 8.6570	 2.3980
 8.6710	 2.5970
 8.6860	 2.4160
 8.7000	 2.4390
 8.7150	 2.4350
 8.7300	 2.6790
 8.7440	 2.5350
 8.7590	 2.5130
 8.7740	 2.2710
 8.7890	 2.6530
 8.8040	 2.6630
 8.8190	 2.7410
 8.8340	 2.5000
 8.8490	 2.5430
 8.8640	 2.4490
 8.8790	 2.3630
 8.8940	 2.2630
 8.9100	 2.6110
 8.9250	 2.5140
 8.9400	 2.5550
 8.9560	 2.4140
 8.9710	 2.5050
 8.9870	 2.1700
 9.0020	 2.3350
 9.0180	 2.3150
 9.0340	 2.4170
 9.0500	 2.3700
 9.0650	 2.6320
 9.0810	 2.4030
 9.0970	 2.5050
 9.1130	 2.6140
 9.1290	 2.8010
 9.1450	 2.4450
 9.1610	 2.4950
 9.1780	 2.5850
 9.1940	 2.8420
 9.2100	 2.4670
 9.2270	 2.4530
 9.2430	 2.3750
 9.2600	 2.5370
 9.2760	 2.3330
 9.2930	 2.6040
 9.3090	 2.6960
 9.3260	 2.8130
 9.3430	 2.5980
 9.3600	 2.7750
 9.3770	 2.5280
 9.3940	 2.5710
 9.4110	 2.5110
 9.4280	 2.6990
 9.4450	 2.5460
 9.4620	 2.6310
 9.4800	 2.4070
 9.4970	 2.4500
 9.5140	 2.3570
 9.5320	 2.7410
 9.5500	 2.8090
 9.5670	 2.8910
 9.5850	 2.5740
 9.6030	 2.6290
 9.6200	 2.6310
 9.6380	 2.7570
 9.6560	 2.5670
 9.6740	 2.7380
 9.6920	 2.6390
 9.7100	 2.7990
 9.7290	 2.5400
 9.7470	 2.6690
 9.7650	 2.7510
 9.7840	 2.9340
 9.8020	 2.5760
 9.8210	 2.3510
 9.8390	 2.2490
 9.8580	 2.7890
 9.8770	 2.7060
 9.8960	 2.7070
 9.9150	 2.6340
 9.9340	 2.9590
 9.9530	 2.7970
 9.9720	 2.8290
 9.9910	 2.5130
10.0100	 2.6480
10.0300	 2.5150
10.0490	 2.5970
10.0690	 2.5560
10.0880	 2.8000
10.1080	 2.5540
10.1280	 2.6220
10.1480	 2.4690
10.1670	 2.5020
10.1870	 2.4040
10.2070	 2.6190
10.2280	 2.4830
10.2480	 2.6820
10.2680	 2.5380
10.2890	 2.6300
10.3090	 2.5640
10.3300	 2.7810
10.3500	 2.5160
10.3710	 2.6270
10.3920	 2.5510
10.4120	 2.7190
10.4330	 2.6290
10.4540	 2.7240
10.4760	 2.6540
10.4970	 2.7690
10.5180	 2.4250
10.5390	 2.4850
10.5610	 2.4310
10.5820	 2.7740
10.6040	 2.7700
10.6260	 2.8320
10.6480	 2.5450
10.6700	 2.6270
10.6920	 2.4850
10.7140	 2.6080
10.7360	 2.4110
10.7580	 2.6030
10.7800	 2.5070
10.8030	 2.7680
10.8250	 2.6600
10.8480	 2.5470
10.8710	 2.4210
10.8940	 2.7310
10.9170	 2.5280
10.9400	 2.6080
10.9630	 2.3550
10.9860	 2.4970
11.0090	 2.3790
11.0330	 2.5590
11.0560	 2.3200
11.0800	 2.5610
11.1040	 2.4810
11.1270	 2.5590
11.1510	 2.3190
11.1750	 2.2960
11.2000	 2.2700
11.2240	 2.6660
11.2480	 2.4360
11.2730	 2.5520
11.2970	 2.4370
11.3220	 2.6340
11.3470	 2.4390
11.3720	 2.5420
11.3970	 2.3580
11.4220	 2.5020
11.4470	 2.4960
11.4720	 2.8790
11.4980	 2.4770
11.5230	 2.6380
11.5490	 2.5570
11.5750	 2.7370
11.6000	 2.4070
11.6260	 2.6180
11.6530	 2.5650
11.6790	 2.7020
11.7050	 2.4050
11.7320	 2.5930
11.7580	 2.4760
11.7850	 2.7610
11.8120	 2.4780
11.8390	 2.4770
11.8660	 2.2880
11.8930	 2.5550
11.9200	 2.4770
11.9480	 2.6740
11.9760	 2.3100
12.0030	 2.4190
12.0310	 2.4230
12.0590	 2.8650
12.0870	 2.6500
12.1150	 2.5590
12.1440	 2.2710
12.1720	 2.6720
12.2010	 2.7690
12.2300	 2.9460
12.2590	 2.5600
12.2880	 2.8200
12.3170	 2.7130
12.3460	 2.8290
12.3760	 2.5810
12.4050	 2.7990
12.4350	 2.3450
12.4650	 2.3260
12.4950	 2.0590
12.5250	 2.5030
12.5550	 2.3000
12.5860	 2.5550
12.6170	 2.5420
12.6470	 2.9320
12.6780	 2.6580
12.7090	 2.6850
12.7410	 2.2260
12.7720	 2.3750
12.8030	 2.1890
12.8350	 2.5140
12.8670	 2.2090
12.8990	 2.6750
12.9310	 2.6570
12.9640	 2.8500
12.9960	 2.7010
13.0290	 2.9430
13.0610	 2.5860
13.0940	 2.6860
13.1280	 2.5030
13.1610	 2.7350
13.1940	 2.6670
13.2280	 3.2690
13.2620	 2.8820
13.2960	 2.6060
13.3300	 2.2080
13.3640	 2.6910
13.3990	 2.5380
13.4340	 2.7860
13.4690	 2.5960
13.5040	 2.8090
13.5390	 2.3920
13.5740	 2.5870
13.6100	 2.2440
13.6460	 2.6420
13.6820	 2.7200
13.7180	 3.0540
13.7540	 2.6410
13.7910	 2.8160
13.8280	 2.6560
13.8650	 3.4500
13.9020	 3.2470
13.9390	 3.1900
13.9770	 2.7490
14.0150	 2.8530
14.0530	 2.2740
14.0910	 2.8130
14.1290	 2.7790
14.1680	 3.2040
14.2070	 2.9360
14.2460	 3.1640
14.2850	 2.7950
14.3240	 3.1150
14.3640	 2.7120
14.4040	 3.2940
14.4440	 3.2200
14.4840	 3.7190
14.5250	 2.9710
14.5660	 2.9480
14.6070	 2.5880
14.6480	 3.2050
14.6900	 2.7810
14.7310	 3.4190
14.7730	 3.0790
14.8150	 3.2580
14.8580	 2.6500
14.9010	 3.1870
14.9440	 3.4280
14.9870	 4.5940
15.0300	 2.7220
15.0740	 3.0070
15.1180	 2.2450
15.1620	 2.5730
15.2060	 2.1020
15.2510	 2.7000
15.2960	 1.6980
15.3410	 2.3780
15.3870	 2.0660
