Name: Pinus lambertiana 1
Type: vegetation
Class: Tree
Genus: Pinus
Species: lambertiana
Sample No.: VH148
Owner: UCSB
Wavelength Range: VSWIR
Origin: 37.043; -119.3043; WGS84
Collection Date: 6/8/2013
Description: Samples were collected as part of the HyspIRI Airborne Campaign. 48 individual plants were sampled in three times in 2013 - spring  summer  and fall. The name of the sample includes a 1  2  or 3 which references a different individual of the species. Samples were taken to JPL and processed within 48 hours of collection. The same leaves were processed in the Nicolet and then measured using the ASD.
Measurement: Bidirectional reflectance
First Column: X
Second Column: Y
X Units: Wavelength (micrometers)
Y Units: Reflectance (percentage)
First X Value: 0.35
Last X Value: 2.5
Number of X Values: 2151
Additional Information: vegetation.tree.pinus.lambertiana.vswir.vh148.ucsb.asd.ancillary.txt

 0.3500	 7.4560
 0.3510	 7.5510
 0.3520	 7.6130
 0.3530	 7.6070
 0.3540	 7.5790
 0.3550	 7.5050
 0.3560	 7.4700
 0.3570	 7.4830
 0.3580	 7.5110
 0.3590	 7.4780
 0.3600	 7.3840
 0.3610	 7.2760
 0.3620	 7.2500
 0.3630	 7.2470
 0.3640	 7.2450
 0.3650	 7.2570
 0.3660	 7.3920
 0.3670	 7.3810
 0.3680	 7.2840
 0.3690	 7.3530
 0.3700	 7.2560
 0.3710	 7.1710
 0.3720	 7.2030
 0.3730	 7.2180
 0.3740	 7.2660
 0.3750	 7.2850
 0.3760	 7.2130
 0.3770	 7.2020
 0.3780	 7.1500
 0.3790	 7.0880
 0.3800	 7.1560
 0.3810	 7.2170
 0.3820	 7.1990
 0.3830	 7.1190
 0.3840	 7.1180
 0.3850	 7.1100
 0.3860	 7.1060
 0.3870	 7.1300
 0.3880	 7.1100
 0.3890	 7.0750
 0.3900	 7.0450
 0.3910	 7.0180
 0.3920	 7.0070
 0.3930	 7.0180
 0.3940	 7.0450
 0.3950	 7.0360
 0.3960	 6.9990
 0.3970	 6.9860
 0.3980	 7.0450
 0.3990	 7.0400
 0.4000	 7.0690
 0.4010	 7.1280
 0.4020	 7.0630
 0.4030	 7.0680
 0.4040	 7.0910
 0.4050	 7.0570
 0.4060	 7.0520
 0.4070	 7.0750
 0.4080	 7.1150
 0.4090	 7.1460
 0.4100	 7.1770
 0.4110	 7.2060
 0.4120	 7.2370
 0.4130	 7.2650
 0.4140	 7.3030
 0.4150	 7.3570
 0.4160	 7.4200
 0.4170	 7.4870
 0.4180	 7.5490
 0.4190	 7.6090
 0.4200	 7.6650
 0.4210	 7.7330
 0.4220	 7.7940
 0.4230	 7.8470
 0.4240	 7.8990
 0.4250	 7.9460
 0.4260	 7.9920
 0.4270	 8.0440
 0.4280	 8.0990
 0.4290	 8.1460
 0.4300	 8.1810
 0.4310	 8.2150
 0.4320	 8.2490
 0.4330	 8.2720
 0.4340	 8.2880
 0.4350	 8.3200
 0.4360	 8.3580
 0.4370	 8.3980
 0.4380	 8.4210
 0.4390	 8.4430
 0.4400	 8.4660
 0.4410	 8.4910
 0.4420	 8.5190
 0.4430	 8.5410
 0.4440	 8.5610
 0.4450	 8.5890
 0.4460	 8.5910
 0.4470	 8.6010
 0.4480	 8.6260
 0.4490	 8.6500
 0.4500	 8.6700
 0.4510	 8.6840
 0.4520	 8.6890
 0.4530	 8.6940
 0.4540	 8.7010
 0.4550	 8.7140
 0.4560	 8.7360
 0.4570	 8.7500
 0.4580	 8.7590
 0.4590	 8.7620
 0.4600	 8.7720
 0.4610	 8.7740
 0.4620	 8.7710
 0.4630	 8.7720
 0.4640	 8.7730
 0.4650	 8.7690
 0.4660	 8.7620
 0.4670	 8.7590
 0.4680	 8.7650
 0.4690	 8.7630
 0.4700	 8.7570
 0.4710	 8.7420
 0.4720	 8.7370
 0.4730	 8.7420
 0.4740	 8.7490
 0.4750	 8.7450
 0.4760	 8.7410
 0.4770	 8.7490
 0.4780	 8.7530
 0.4790	 8.7520
 0.4800	 8.7460
 0.4810	 8.7460
 0.4820	 8.7460
 0.4830	 8.7460
 0.4840	 8.7470
 0.4850	 8.7400
 0.4860	 8.7410
 0.4870	 8.7480
 0.4880	 8.7500
 0.4890	 8.7470
 0.4900	 8.7620
 0.4910	 8.7820
 0.4920	 8.7860
 0.4930	 8.7980
 0.4940	 8.8130
 0.4950	 8.8320
 0.4960	 8.8530
 0.4970	 8.8790
 0.4980	 8.9110
 0.4990	 8.9470
 0.5000	 8.9920
 0.5010	 9.0340
 0.5020	 9.0790
 0.5030	 9.1460
 0.5040	 9.2130
 0.5050	 9.2790
 0.5060	 9.3550
 0.5070	 9.4500
 0.5080	 9.5560
 0.5090	 9.6690
 0.5100	 9.7910
 0.5110	 9.9250
 0.5120	10.0730
 0.5130	10.2350
 0.5140	10.4080
 0.5150	10.5970
 0.5160	10.8020
 0.5170	11.0200
 0.5180	11.2440
 0.5190	11.4760
 0.5200	11.7140
 0.5210	11.9560
 0.5220	12.1970
 0.5230	12.4360
 0.5240	12.6700
 0.5250	12.8940
 0.5260	13.1080
 0.5270	13.3100
 0.5280	13.4950
 0.5290	13.6660
 0.5300	13.8230
 0.5310	13.9650
 0.5320	14.0910
 0.5330	14.2050
 0.5340	14.3090
 0.5350	14.4040
 0.5360	14.4860
 0.5370	14.5560
 0.5380	14.6140
 0.5390	14.6620
 0.5400	14.7050
 0.5410	14.7440
 0.5420	14.7810
 0.5430	14.8120
 0.5440	14.8530
 0.5450	14.8990
 0.5460	14.9440
 0.5470	15.0040
 0.5480	15.0630
 0.5490	15.1070
 0.5500	15.1400
 0.5510	15.1660
 0.5520	15.1800
 0.5530	15.1770
 0.5540	15.1590
 0.5550	15.1250
 0.5560	15.0730
 0.5570	15.0040
 0.5580	14.9220
 0.5590	14.8300
 0.5600	14.7290
 0.5610	14.6120
 0.5620	14.4890
 0.5630	14.3620
 0.5640	14.2280
 0.5650	14.0870
 0.5660	13.9390
 0.5670	13.7870
 0.5680	13.6240
 0.5690	13.4590
 0.5700	13.2960
 0.5710	13.1330
 0.5720	12.9730
 0.5730	12.8150
 0.5740	12.6660
 0.5750	12.5310
 0.5760	12.4080
 0.5770	12.2960
 0.5780	12.1940
 0.5790	12.0960
 0.5800	12.0020
 0.5810	11.9130
 0.5820	11.8290
 0.5830	11.7470
 0.5840	11.6710
 0.5850	11.6010
 0.5860	11.5330
 0.5870	11.4680
 0.5880	11.4070
 0.5890	11.3500
 0.5900	11.2920
 0.5910	11.2390
 0.5920	11.1970
 0.5930	11.1700
 0.5940	11.1420
 0.5950	11.1150
 0.5960	11.0910
 0.5970	11.0690
 0.5980	11.0460
 0.5990	11.0220
 0.6000	11.0000
 0.6010	10.9710
 0.6020	10.9360
 0.6030	10.8960
 0.6040	10.8480
 0.6050	10.8000
 0.6060	10.7450
 0.6070	10.6750
 0.6080	10.6020
 0.6090	10.5220
 0.6100	10.4330
 0.6110	10.3390
 0.6120	10.2690
 0.6130	10.2100
 0.6140	10.1500
 0.6150	10.0850
 0.6160	10.0250
 0.6170	 9.9690
 0.6180	 9.9100
 0.6190	 9.8580
 0.6200	 9.8110
 0.6210	 9.7670
 0.6220	 9.7360
 0.6230	 9.7090
 0.6240	 9.6840
 0.6250	 9.6590
 0.6260	 9.6430
 0.6270	 9.6270
 0.6280	 9.6130
 0.6290	 9.6030
 0.6300	 9.5910
 0.6310	 9.5800
 0.6320	 9.5650
 0.6330	 9.5520
 0.6340	 9.5290
 0.6350	 9.4970
 0.6360	 9.4570
 0.6370	 9.4120
 0.6380	 9.3610
 0.6390	 9.3040
 0.6400	 9.2440
 0.6410	 9.1800
 0.6420	 9.1130
 0.6430	 9.0450
 0.6440	 8.9820
 0.6450	 8.9210
 0.6460	 8.8560
 0.6470	 8.7980
 0.6480	 8.7450
 0.6490	 8.6990
 0.6500	 8.6560
 0.6510	 8.6240
 0.6520	 8.5880
 0.6530	 8.5590
 0.6540	 8.5340
 0.6550	 8.5000
 0.6560	 8.4670
 0.6570	 8.4290
 0.6580	 8.3850
 0.6590	 8.3450
 0.6600	 8.3010
 0.6610	 8.2590
 0.6620	 8.2150
 0.6630	 8.1800
 0.6640	 8.1500
 0.6650	 8.1210
 0.6660	 8.0930
 0.6670	 8.0720
 0.6680	 8.0590
 0.6690	 8.0460
 0.6700	 8.0400
 0.6710	 8.0360
 0.6720	 8.0330
 0.6730	 8.0420
 0.6740	 8.0490
 0.6750	 8.0600
 0.6760	 8.0710
 0.6770	 8.0910
 0.6780	 8.1090
 0.6790	 8.1280
 0.6800	 8.1580
 0.6810	 8.1890
 0.6820	 8.2240
 0.6830	 8.2710
 0.6840	 8.3200
 0.6850	 8.3840
 0.6860	 8.4620
 0.6870	 8.5620
 0.6880	 8.6960
 0.6890	 8.8670
 0.6900	 9.0850
 0.6910	 9.3640
 0.6920	 9.7070
 0.6930	10.1230
 0.6940	10.6140
 0.6950	11.1760
 0.6960	11.8060
 0.6970	12.4980
 0.6980	13.2460
 0.6990	14.0530
 0.7000	14.9080
 0.7010	15.8010
 0.7020	16.7200
 0.7030	17.6700
 0.7040	18.6430
 0.7050	19.6330
 0.7060	20.6300
 0.7070	21.6410
 0.7080	22.6670
 0.7090	23.7050
 0.7100	24.7600
 0.7110	25.8250
 0.7120	26.8990
 0.7130	27.9870
 0.7140	29.0900
 0.7150	30.2060
 0.7160	31.3310
 0.7170	32.4650
 0.7180	33.6090
 0.7190	34.7600
 0.7200	35.9160
 0.7210	37.0800
 0.7220	38.2440
 0.7230	39.4030
 0.7240	40.5640
 0.7250	41.7080
 0.7260	42.8360
 0.7270	43.9510
 0.7280	45.0420
 0.7290	46.1110
 0.7300	47.1590
 0.7310	48.1790
 0.7320	49.1710
 0.7330	50.1310
 0.7340	51.0590
 0.7350	51.9580
 0.7360	52.8220
 0.7370	53.6530
 0.7380	54.4490
 0.7390	55.2120
 0.7400	55.9410
 0.7410	56.6330
 0.7420	57.2880
 0.7430	57.9090
 0.7440	58.4960
 0.7450	59.0500
 0.7460	59.5690
 0.7470	60.0540
 0.7480	60.5070
 0.7490	60.9280
 0.7500	61.3220
 0.7510	61.6840
 0.7520	62.0180
 0.7530	62.3280
 0.7540	62.6100
 0.7550	62.8710
 0.7560	63.1140
 0.7570	63.3360
 0.7580	63.5370
 0.7590	63.7180
 0.7600	63.8850
 0.7610	64.0460
 0.7620	64.1910
 0.7630	64.3220
 0.7640	64.4430
 0.7650	64.5490
 0.7660	64.6530
 0.7670	64.7530
 0.7680	64.8400
 0.7690	64.9220
 0.7700	65.0000
 0.7710	65.0720
 0.7720	65.1370
 0.7730	65.2010
 0.7740	65.2600
 0.7750	65.3130
 0.7760	65.3670
 0.7770	65.4170
 0.7780	65.4640
 0.7790	65.5100
 0.7800	65.5530
 0.7810	65.5970
 0.7820	65.6420
 0.7830	65.6860
 0.7840	65.7230
 0.7850	65.7580
 0.7860	65.7940
 0.7870	65.8320
 0.7880	65.8670
 0.7890	65.9000
 0.7900	65.9340
 0.7910	65.9650
 0.7920	65.9960
 0.7930	66.0250
 0.7940	66.0510
 0.7950	66.0750
 0.7960	66.1030
 0.7970	66.1350
 0.7980	66.1570
 0.7990	66.1800
 0.8000	66.1980
 0.8010	66.2120
 0.8020	66.2360
 0.8030	66.2600
 0.8040	66.2770
 0.8050	66.2850
 0.8060	66.3010
 0.8070	66.3160
 0.8080	66.3300
 0.8090	66.3470
 0.8100	66.3600
 0.8110	66.3690
 0.8120	66.3780
 0.8130	66.3860
 0.8140	66.3980
 0.8150	66.4110
 0.8160	66.4200
 0.8170	66.4280
 0.8180	66.4390
 0.8190	66.4490
 0.8200	66.4550
 0.8210	66.4600
 0.8220	66.4660
 0.8230	66.4730
 0.8240	66.4840
 0.8250	66.4850
 0.8260	66.4840
 0.8270	66.4850
 0.8280	66.4810
 0.8290	66.4790
 0.8300	66.4790
 0.8310	66.4780
 0.8320	66.4760
 0.8330	66.4710
 0.8340	66.4710
 0.8350	66.4780
 0.8360	66.4900
 0.8370	66.5010
 0.8380	66.5100
 0.8390	66.5220
 0.8400	66.5320
 0.8410	66.5450
 0.8420	66.5630
 0.8430	66.5780
 0.8440	66.5910
 0.8450	66.6070
 0.8460	66.6280
 0.8470	66.6480
 0.8480	66.6640
 0.8490	66.6770
 0.8500	66.6930
 0.8510	66.7120
 0.8520	66.7320
 0.8530	66.7480
 0.8540	66.7570
 0.8550	66.7770
 0.8560	66.7900
 0.8570	66.7980
 0.8580	66.8250
 0.8590	66.8440
 0.8600	66.8600
 0.8610	66.8760
 0.8620	66.8890
 0.8630	66.8960
 0.8640	66.9040
 0.8650	66.9190
 0.8660	66.9290
 0.8670	66.9430
 0.8680	66.9590
 0.8690	66.9730
 0.8700	66.9840
 0.8710	67.0020
 0.8720	67.0200
 0.8730	67.0300
 0.8740	67.0410
 0.8750	67.0550
 0.8760	67.0670
 0.8770	67.0710
 0.8780	67.0860
 0.8790	67.1050
 0.8800	67.1160
 0.8810	67.1150
 0.8820	67.1240
 0.8830	67.1330
 0.8840	67.1380
 0.8850	67.1480
 0.8860	67.1520
 0.8870	67.1530
 0.8880	67.1530
 0.8890	67.1590
 0.8900	67.1620
 0.8910	67.1600
 0.8920	67.1560
 0.8930	67.1610
 0.8940	67.1660
 0.8950	67.1670
 0.8960	67.1680
 0.8970	67.1620
 0.8980	67.1630
 0.8990	67.1710
 0.9000	67.1690
 0.9010	67.1570
 0.9020	67.1490
 0.9030	67.1480
 0.9040	67.1410
 0.9050	67.1390
 0.9060	67.1370
 0.9070	67.1330
 0.9080	67.1330
 0.9090	67.1190
 0.9100	67.1090
 0.9110	67.1140
 0.9120	67.1090
 0.9130	67.0980
 0.9140	67.0860
 0.9150	67.0800
 0.9160	67.0700
 0.9170	67.0610
 0.9180	67.0460
 0.9190	67.0250
 0.9200	67.0170
 0.9210	66.9950
 0.9220	66.9610
 0.9230	66.9320
 0.9240	66.9000
 0.9250	66.8600
 0.9260	66.8120
 0.9270	66.7620
 0.9280	66.7170
 0.9290	66.6650
 0.9300	66.6040
 0.9310	66.5430
 0.9320	66.4750
 0.9330	66.3970
 0.9340	66.3200
 0.9350	66.2640
 0.9360	66.1810
 0.9370	66.0820
 0.9380	65.9870
 0.9390	65.9080
 0.9400	65.8110
 0.9410	65.7020
 0.9420	65.5920
 0.9430	65.4770
 0.9440	65.3560
 0.9450	65.2230
 0.9460	65.0790
 0.9470	64.9340
 0.9480	64.7670
 0.9490	64.5870
 0.9500	64.4010
 0.9510	64.1950
 0.9520	63.9960
 0.9530	63.7930
 0.9540	63.5730
 0.9550	63.3580
 0.9560	63.1520
 0.9570	62.9520
 0.9580	62.7620
 0.9590	62.5970
 0.9600	62.4230
 0.9610	62.2670
 0.9620	62.1600
 0.9630	62.0540
 0.9640	61.9440
 0.9650	61.8410
 0.9660	61.7580
 0.9670	61.6870
 0.9680	61.6430
 0.9690	61.5970
 0.9700	61.5230
 0.9710	61.4830
 0.9720	61.4440
 0.9730	61.4030
 0.9740	61.3730
 0.9750	61.3600
 0.9760	61.3420
 0.9770	61.3240
 0.9780	61.3230
 0.9790	61.3320
 0.9800	61.3300
 0.9810	61.3270
 0.9820	61.3480
 0.9830	61.3810
 0.9840	61.4180
 0.9850	61.4500
 0.9860	61.4750
 0.9870	61.5030
 0.9880	61.5450
 0.9890	61.6020
 0.9900	61.6630
 0.9910	61.7070
 0.9920	61.7670
 0.9930	61.8370
 0.9940	61.8970
 0.9950	61.9680
 0.9960	62.0420
 0.9970	62.1120
 0.9980	62.1750
 0.9990	62.2540
 1.0000	62.6370
 1.0010	63.2640
 1.0020	63.6570
 1.0030	63.7380
 1.0040	63.8170
 1.0050	63.9050
 1.0060	63.9910
 1.0070	64.0750
 1.0080	64.1580
 1.0090	64.2360
 1.0100	64.3240
 1.0110	64.4170
 1.0120	64.5080
 1.0130	64.6050
 1.0140	64.6950
 1.0150	64.7790
 1.0160	64.8620
 1.0170	64.9470
 1.0180	65.0360
 1.0190	65.1270
 1.0200	65.2130
 1.0210	65.2990
 1.0220	65.3820
 1.0230	65.4660
 1.0240	65.5510
 1.0250	65.6340
 1.0260	65.7160
 1.0270	65.7980
 1.0280	65.8820
 1.0290	65.9640
 1.0300	66.0470
 1.0310	66.1260
 1.0320	66.2030
 1.0330	66.2820
 1.0340	66.3610
 1.0350	66.4370
 1.0360	66.5070
 1.0370	66.5780
 1.0380	66.6470
 1.0390	66.7110
 1.0400	66.7770
 1.0410	66.8480
 1.0420	66.9110
 1.0430	66.9700
 1.0440	67.0280
 1.0450	67.0820
 1.0460	67.1370
 1.0470	67.1920
 1.0480	67.2450
 1.0490	67.2970
 1.0500	67.3470
 1.0510	67.3900
 1.0520	67.4390
 1.0530	67.4860
 1.0540	67.5340
 1.0550	67.5760
 1.0560	67.6170
 1.0570	67.6540
 1.0580	67.6860
 1.0590	67.7170
 1.0600	67.7480
 1.0610	67.7750
 1.0620	67.7990
 1.0630	67.8230
 1.0640	67.8470
 1.0650	67.8700
 1.0660	67.8940
 1.0670	67.9120
 1.0680	67.9260
 1.0690	67.9380
 1.0700	67.9490
 1.0710	67.9540
 1.0720	67.9630
 1.0730	67.9740
 1.0740	67.9810
 1.0750	67.9900
 1.0760	67.9920
 1.0770	67.9890
 1.0780	67.9850
 1.0790	67.9770
 1.0800	67.9680
 1.0810	67.9580
 1.0820	67.9470
 1.0830	67.9370
 1.0840	67.9230
 1.0850	67.9070
 1.0860	67.8880
 1.0870	67.8650
 1.0880	67.8370
 1.0890	67.8100
 1.0900	67.7790
 1.0910	67.7490
 1.0920	67.7200
 1.0930	67.6870
 1.0940	67.6550
 1.0950	67.6160
 1.0960	67.5730
 1.0970	67.5280
 1.0980	67.4760
 1.0990	67.4300
 1.1000	67.3880
 1.1010	67.3420
 1.1020	67.2990
 1.1030	67.2530
 1.1040	67.2030
 1.1050	67.1520
 1.1060	67.1000
 1.1070	67.0480
 1.1080	66.9940
 1.1090	66.9370
 1.1100	66.8790
 1.1110	66.8230
 1.1120	66.7600
 1.1130	66.6930
 1.1140	66.6220
 1.1150	66.5470
 1.1160	66.4650
 1.1170	66.3830
 1.1180	66.2870
 1.1190	66.1840
 1.1200	66.0690
 1.1210	65.9490
 1.1220	65.8150
 1.1230	65.6720
 1.1240	65.5220
 1.1250	65.3510
 1.1260	65.1680
 1.1270	64.9630
 1.1280	64.7430
 1.1290	64.5010
 1.1300	64.2430
 1.1310	63.9630
 1.1320	63.6630
 1.1330	63.3450
 1.1340	63.0080
 1.1350	62.6540
 1.1360	62.2800
 1.1370	61.8930
 1.1380	61.4930
 1.1390	61.0830
 1.1400	60.6620
 1.1410	60.2380
 1.1420	59.8120
 1.1430	59.3860
 1.1440	58.9690
 1.1450	58.5520
 1.1460	58.1520
 1.1470	57.7550
 1.1480	57.3810
 1.1490	57.0180
 1.1500	56.6800
 1.1510	56.3570
 1.1520	56.0590
 1.1530	55.7810
 1.1540	55.5250
 1.1550	55.2910
 1.1560	55.0790
 1.1570	54.8820
 1.1580	54.7100
 1.1590	54.5520
 1.1600	54.4090
 1.1610	54.2850
 1.1620	54.1710
 1.1630	54.0730
 1.1640	53.9860
 1.1650	53.9050
 1.1660	53.8370
 1.1670	53.7700
 1.1680	53.7100
 1.1690	53.6520
 1.1700	53.5980
 1.1710	53.5460
 1.1720	53.4990
 1.1730	53.4510
 1.1740	53.4050
 1.1750	53.3620
 1.1760	53.3170
 1.1770	53.2700
 1.1780	53.2220
 1.1790	53.1740
 1.1800	53.1230
 1.1810	53.0700
 1.1820	53.0190
 1.1830	52.9660
 1.1840	52.9150
 1.1850	52.8680
 1.1860	52.8170
 1.1870	52.7660
 1.1880	52.7220
 1.1890	52.6780
 1.1900	52.6400
 1.1910	52.6080
 1.1920	52.5790
 1.1930	52.5540
 1.1940	52.5330
 1.1950	52.5160
 1.1960	52.5040
 1.1970	52.4960
 1.1980	52.4920
 1.1990	52.4950
 1.2000	52.5010
 1.2010	52.5100
 1.2020	52.5240
 1.2030	52.5390
 1.2040	52.5580
 1.2050	52.5830
 1.2060	52.6090
 1.2070	52.6400
 1.2080	52.6770
 1.2090	52.7140
 1.2100	52.7560
 1.2110	52.8010
 1.2120	52.8480
 1.2130	52.8990
 1.2140	52.9520
 1.2150	53.0100
 1.2160	53.0710
 1.2170	53.1380
 1.2180	53.2060
 1.2190	53.2740
 1.2200	53.3450
 1.2210	53.4190
 1.2220	53.4940
 1.2230	53.5710
 1.2240	53.6450
 1.2250	53.7160
 1.2260	53.7890
 1.2270	53.8610
 1.2280	53.9320
 1.2290	54.0070
 1.2300	54.0780
 1.2310	54.1460
 1.2320	54.2140
 1.2330	54.2770
 1.2340	54.3400
 1.2350	54.3980
 1.2360	54.4600
 1.2370	54.5220
 1.2380	54.5830
 1.2390	54.6430
 1.2400	54.7000
 1.2410	54.7550
 1.2420	54.8070
 1.2430	54.8610
 1.2440	54.9130
 1.2450	54.9640
 1.2460	55.0130
 1.2470	55.0560
 1.2480	55.0990
 1.2490	55.1410
 1.2500	55.1790
 1.2510	55.2190
 1.2520	55.2570
 1.2530	55.2940
 1.2540	55.3300
 1.2550	55.3630
 1.2560	55.3940
 1.2570	55.4200
 1.2580	55.4420
 1.2590	55.4630
 1.2600	55.4800
 1.2610	55.4950
 1.2620	55.5090
 1.2630	55.5220
 1.2640	55.5320
 1.2650	55.5400
 1.2660	55.5470
 1.2670	55.5500
 1.2680	55.5490
 1.2690	55.5470
 1.2700	55.5420
 1.2710	55.5320
 1.2720	55.5230
 1.2730	55.5120
 1.2740	55.4960
 1.2750	55.4790
 1.2760	55.4600
 1.2770	55.4350
 1.2780	55.4070
 1.2790	55.3770
 1.2800	55.3450
 1.2810	55.3090
 1.2820	55.2680
 1.2830	55.2220
 1.2840	55.1740
 1.2850	55.1210
 1.2860	55.0640
 1.2870	55.0020
 1.2880	54.9350
 1.2890	54.8630
 1.2900	54.7860
 1.2910	54.7050
 1.2920	54.6180
 1.2930	54.5260
 1.2940	54.4270
 1.2950	54.3210
 1.2960	54.2110
 1.2970	54.0960
 1.2980	53.9760
 1.2990	53.8510
 1.3000	53.7200
 1.3010	53.5810
 1.3020	53.4330
 1.3030	53.2790
 1.3040	53.1200
 1.3050	52.9570
 1.3060	52.7880
 1.3070	52.6100
 1.3080	52.4280
 1.3090	52.2390
 1.3100	52.0440
 1.3110	51.8480
 1.3120	51.6430
 1.3130	51.4330
 1.3140	51.2160
 1.3150	50.9900
 1.3160	50.7600
 1.3170	50.5260
 1.3180	50.2840
 1.3190	50.0400
 1.3200	49.7910
 1.3210	49.5320
 1.3220	49.2680
 1.3230	49.0020
 1.3240	48.7300
 1.3250	48.4600
 1.3260	48.1890
 1.3270	47.9090
 1.3280	47.6290
 1.3290	47.3460
 1.3300	47.0640
 1.3310	46.7830
 1.3320	46.5000
 1.3330	46.2190
 1.3340	45.9370
 1.3350	45.6520
 1.3360	45.3720
 1.3370	45.0910
 1.3380	44.8130
 1.3390	44.5400
 1.3400	44.2690
 1.3410	44.0040
 1.3420	43.7430
 1.3430	43.4840
 1.3440	43.2310
 1.3450	42.9820
 1.3460	42.7340
 1.3470	42.4940
 1.3480	42.2570
 1.3490	42.0270
 1.3500	41.8020
 1.3510	41.5810
 1.3520	41.3620
 1.3530	41.1470
 1.3540	40.9300
 1.3550	40.7170
 1.3560	40.5060
 1.3570	40.2920
 1.3580	40.0810
 1.3590	39.8640
 1.3600	39.6430
 1.3610	39.4190
 1.3620	39.1880
 1.3630	38.9520
 1.3640	38.7090
 1.3650	38.4580
 1.3660	38.2010
 1.3670	37.9320
 1.3680	37.6490
 1.3690	37.3540
 1.3700	37.0390
 1.3710	36.7110
 1.3720	36.3670
 1.3730	35.9990
 1.3740	35.6160
 1.3750	35.2110
 1.3760	34.7790
 1.3770	34.3280
 1.3780	33.8490
 1.3790	33.3480
 1.3800	32.8250
 1.3810	32.2760
 1.3820	31.7130
 1.3830	31.1320
 1.3840	30.5370
 1.3850	29.9240
 1.3860	29.3050
 1.3870	28.6670
 1.3880	28.0360
 1.3890	27.4000
 1.3900	26.7620
 1.3910	26.1360
 1.3920	25.5130
 1.3930	24.8950
 1.3940	24.2920
 1.3950	23.6930
 1.3960	23.1120
 1.3970	22.5500
 1.3980	22.0050
 1.3990	21.4880
 1.4000	20.9920
 1.4010	20.5140
 1.4020	20.0610
 1.4030	19.6260
 1.4040	19.2160
 1.4050	18.8310
 1.4060	18.4670
 1.4070	18.1290
 1.4080	17.8110
 1.4090	17.5110
 1.4100	17.2340
 1.4110	16.9730
 1.4120	16.7300
 1.4130	16.5060
 1.4140	16.2950
 1.4150	16.1030
 1.4160	15.9250
 1.4170	15.7580
 1.4180	15.6050
 1.4190	15.4600
 1.4200	15.3270
 1.4210	15.2060
 1.4220	15.0920
 1.4230	14.9890
 1.4240	14.8950
 1.4250	14.8080
 1.4260	14.7290
 1.4270	14.6550
 1.4280	14.5880
 1.4290	14.5270
 1.4300	14.4720
 1.4310	14.4230
 1.4320	14.3800
 1.4330	14.3400
 1.4340	14.3040
 1.4350	14.2720
 1.4360	14.2420
 1.4370	14.2180
 1.4380	14.1980
 1.4390	14.1810
 1.4400	14.1680
 1.4410	14.1570
 1.4420	14.1490
 1.4430	14.1420
 1.4440	14.1390
 1.4450	14.1380
 1.4460	14.1380
 1.4470	14.1390
 1.4480	14.1430
 1.4490	14.1480
 1.4500	14.1550
 1.4510	14.1630
 1.4520	14.1730
 1.4530	14.1850
 1.4540	14.1990
 1.4550	14.2140
 1.4560	14.2300
 1.4570	14.2470
 1.4580	14.2670
 1.4590	14.2890
 1.4600	14.3140
 1.4610	14.3430
 1.4620	14.3750
 1.4630	14.4100
 1.4640	14.4480
 1.4650	14.4900
 1.4660	14.5350
 1.4670	14.5840
 1.4680	14.6380
 1.4690	14.6950
 1.4700	14.7550
 1.4710	14.8190
 1.4720	14.8850
 1.4730	14.9550
 1.4740	15.0280
 1.4750	15.1040
 1.4760	15.1830
 1.4770	15.2630
 1.4780	15.3440
 1.4790	15.4280
 1.4800	15.5130
 1.4810	15.6000
 1.4820	15.6910
 1.4830	15.7830
 1.4840	15.8770
 1.4850	15.9720
 1.4860	16.0660
 1.4870	16.1630
 1.4880	16.2590
 1.4890	16.3570
 1.4900	16.4570
 1.4910	16.5590
 1.4920	16.6610
 1.4930	16.7640
 1.4940	16.8670
 1.4950	16.9720
 1.4960	17.0760
 1.4970	17.1820
 1.4980	17.2870
 1.4990	17.3910
 1.5000	17.4970
 1.5010	17.6040
 1.5020	17.7110
 1.5030	17.8190
 1.5040	17.9270
 1.5050	18.0340
 1.5060	18.1420
 1.5070	18.2500
 1.5080	18.3580
 1.5090	18.4680
 1.5100	18.5770
 1.5110	18.6850
 1.5120	18.7950
 1.5130	18.9020
 1.5140	19.0090
 1.5150	19.1160
 1.5160	19.2230
 1.5170	19.3300
 1.5180	19.4360
 1.5190	19.5430
 1.5200	19.6490
 1.5210	19.7530
 1.5220	19.8580
 1.5230	19.9630
 1.5240	20.0660
 1.5250	20.1690
 1.5260	20.2710
 1.5270	20.3730
 1.5280	20.4770
 1.5290	20.5770
 1.5300	20.6790
 1.5310	20.7790
 1.5320	20.8760
 1.5330	20.9740
 1.5340	21.0730
 1.5350	21.1710
 1.5360	21.2700
 1.5370	21.3680
 1.5380	21.4640
 1.5390	21.5600
 1.5400	21.6560
 1.5410	21.7520
 1.5420	21.8490
 1.5430	21.9440
 1.5440	22.0390
 1.5450	22.1320
 1.5460	22.2230
 1.5470	22.3140
 1.5480	22.4050
 1.5490	22.4960
 1.5500	22.5870
 1.5510	22.6780
 1.5520	22.7690
 1.5530	22.8600
 1.5540	22.9490
 1.5550	23.0370
 1.5560	23.1250
 1.5570	23.2120
 1.5580	23.2990
 1.5590	23.3870
 1.5600	23.4720
 1.5610	23.5550
 1.5620	23.6380
 1.5630	23.7200
 1.5640	23.8010
 1.5650	23.8840
 1.5660	23.9670
 1.5670	24.0480
 1.5680	24.1300
 1.5690	24.2100
 1.5700	24.2900
 1.5710	24.3710
 1.5720	24.4490
 1.5730	24.5280
 1.5740	24.6060
 1.5750	24.6820
 1.5760	24.7600
 1.5770	24.8380
 1.5780	24.9160
 1.5790	24.9940
 1.5800	25.0710
 1.5810	25.1480
 1.5820	25.2230
 1.5830	25.2980
 1.5840	25.3730
 1.5850	25.4460
 1.5860	25.5210
 1.5870	25.5970
 1.5880	25.6730
 1.5890	25.7480
 1.5900	25.8230
 1.5910	25.8980
 1.5920	25.9740
 1.5930	26.0500
 1.5940	26.1260
 1.5950	26.2010
 1.5960	26.2740
 1.5970	26.3480
 1.5980	26.4230
 1.5990	26.4970
 1.6000	26.5710
 1.6010	26.6440
 1.6020	26.7170
 1.6030	26.7890
 1.6040	26.8610
 1.6050	26.9350
 1.6060	27.0080
 1.6070	27.0810
 1.6080	27.1530
 1.6090	27.2210
 1.6100	27.2870
 1.6110	27.3540
 1.6120	27.4200
 1.6130	27.4860
 1.6140	27.5520
 1.6150	27.6170
 1.6160	27.6810
 1.6170	27.7430
 1.6180	27.8040
 1.6190	27.8630
 1.6200	27.9190
 1.6210	27.9750
 1.6220	28.0320
 1.6230	28.0870
 1.6240	28.1420
 1.6250	28.1940
 1.6260	28.2440
 1.6270	28.2950
 1.6280	28.3450
 1.6290	28.3940
 1.6300	28.4420
 1.6310	28.4900
 1.6320	28.5370
 1.6330	28.5830
 1.6340	28.6280
 1.6350	28.6730
 1.6360	28.7170
 1.6370	28.7590
 1.6380	28.8000
 1.6390	28.8390
 1.6400	28.8760
 1.6410	28.9100
 1.6420	28.9420
 1.6430	28.9720
 1.6440	29.0010
 1.6450	29.0250
 1.6460	29.0470
 1.6470	29.0670
 1.6480	29.0820
 1.6490	29.0940
 1.6500	29.1050
 1.6510	29.1120
 1.6520	29.1170
 1.6530	29.1200
 1.6540	29.1200
 1.6550	29.1190
 1.6560	29.1160
 1.6570	29.1130
 1.6580	29.1080
 1.6590	29.1010
 1.6600	29.0940
 1.6610	29.0870
 1.6620	29.0810
 1.6630	29.0750
 1.6640	29.0690
 1.6650	29.0630
 1.6660	29.0570
 1.6670	29.0530
 1.6680	29.0500
 1.6690	29.0460
 1.6700	29.0400
 1.6710	29.0350
 1.6720	29.0300
 1.6730	29.0240
 1.6740	29.0170
 1.6750	29.0110
 1.6760	29.0020
 1.6770	28.9960
 1.6780	28.9890
 1.6790	28.9810
 1.6800	28.9710
 1.6810	28.9580
 1.6820	28.9430
 1.6830	28.9270
 1.6840	28.9090
 1.6850	28.8890
 1.6860	28.8660
 1.6870	28.8400
 1.6880	28.8100
 1.6890	28.7790
 1.6900	28.7450
 1.6910	28.7080
 1.6920	28.6710
 1.6930	28.6300
 1.6940	28.5900
 1.6950	28.5500
 1.6960	28.5070
 1.6970	28.4640
 1.6980	28.4180
 1.6990	28.3700
 1.7000	28.3220
 1.7010	28.2720
 1.7020	28.2230
 1.7030	28.1740
 1.7040	28.1240
 1.7050	28.0740
 1.7060	28.0250
 1.7070	27.9780
 1.7080	27.9310
 1.7090	27.8860
 1.7100	27.8380
 1.7110	27.7880
 1.7120	27.7390
 1.7130	27.6880
 1.7140	27.6380
 1.7150	27.5880
 1.7160	27.5350
 1.7170	27.4810
 1.7180	27.4250
 1.7190	27.3690
 1.7200	27.3120
 1.7210	27.2530
 1.7220	27.1940
 1.7230	27.1330
 1.7240	27.0720
 1.7250	27.0130
 1.7260	26.9520
 1.7270	26.8930
 1.7280	26.8360
 1.7290	26.7780
 1.7300	26.7230
 1.7310	26.6680
 1.7320	26.6150
 1.7330	26.5600
 1.7340	26.5050
 1.7350	26.4510
 1.7360	26.3970
 1.7370	26.3420
 1.7380	26.2870
 1.7390	26.2300
 1.7400	26.1730
 1.7410	26.1120
 1.7420	26.0480
 1.7430	25.9870
 1.7440	25.9240
 1.7450	25.8610
 1.7460	25.7990
 1.7470	25.7350
 1.7480	25.6660
 1.7490	25.6010
 1.7500	25.5350
 1.7510	25.4720
 1.7520	25.4100
 1.7530	25.3450
 1.7540	25.2800
 1.7550	25.2130
 1.7560	25.1480
 1.7570	25.0850
 1.7580	25.0230
 1.7590	24.9630
 1.7600	24.9030
 1.7610	24.8420
 1.7620	24.7850
 1.7630	24.7300
 1.7640	24.6770
 1.7650	24.6250
 1.7660	24.5760
 1.7670	24.5270
 1.7680	24.4810
 1.7690	24.4380
 1.7700	24.3950
 1.7710	24.3550
 1.7720	24.3150
 1.7730	24.2750
 1.7740	24.2390
 1.7750	24.2030
 1.7760	24.1700
 1.7770	24.1400
 1.7780	24.1100
 1.7790	24.0800
 1.7800	24.0520
 1.7810	24.0250
 1.7820	24.0030
 1.7830	23.9840
 1.7840	23.9670
 1.7850	23.9540
 1.7860	23.9410
 1.7870	23.9280
 1.7880	23.9170
 1.7890	23.9100
 1.7900	23.9040
 1.7910	23.8990
 1.7920	23.8980
 1.7930	23.8960
 1.7940	23.8960
 1.7950	23.8960
 1.7960	23.8960
 1.7970	23.8990
 1.7980	23.9030
 1.7990	23.9080
 1.8000	23.9150
 1.8010	23.9200
 1.8020	23.9250
 1.8030	23.9330
 1.8040	23.9420
 1.8050	23.9500
 1.8060	23.9610
 1.8070	23.9670
 1.8080	23.9680
 1.8090	23.9740
 1.8100	23.9790
 1.8110	23.9860
 1.8120	23.9960
 1.8130	24.0020
 1.8140	24.0050
 1.8150	24.0100
 1.8160	24.0110
 1.8170	24.0110
 1.8180	24.0160
 1.8190	24.0170
 1.8200	24.0150
 1.8210	24.0130
 1.8220	24.0110
 1.8230	24.0090
 1.8240	24.0060
 1.8250	24.0060
 1.8260	24.0000
 1.8270	23.9890
 1.8280	23.9800
 1.8290	23.9720
 1.8300	23.8720
 1.8310	23.6950
 1.8320	23.5810
 1.8330	23.5540
 1.8340	23.5250
 1.8350	23.4920
 1.8360	23.4570
 1.8370	23.4170
 1.8380	23.3720
 1.8390	23.3230
 1.8400	23.2730
 1.8410	23.2160
 1.8420	23.1560
 1.8430	23.0870
 1.8440	23.0090
 1.8450	22.9270
 1.8460	22.8340
 1.8470	22.7330
 1.8480	22.6270
 1.8490	22.5060
 1.8500	22.3760
 1.8510	22.2340
 1.8520	22.0840
 1.8530	21.9250
 1.8540	21.7580
 1.8550	21.5770
 1.8560	21.3850
 1.8570	21.1820
 1.8580	20.9630
 1.8590	20.7360
 1.8600	20.5000
 1.8610	20.2530
 1.8620	19.9860
 1.8630	19.7120
 1.8640	19.4260
 1.8650	19.1240
 1.8660	18.8120
 1.8670	18.4840
 1.8680	18.1400
 1.8690	17.7850
 1.8700	17.4200
 1.8710	17.0420
 1.8720	16.6600
 1.8730	16.2690
 1.8740	15.8700
 1.8750	15.4710
 1.8760	15.0660
 1.8770	14.6640
 1.8780	14.2660
 1.8790	13.8700
 1.8800	13.4810
 1.8810	13.0950
 1.8820	12.7170
 1.8830	12.3430
 1.8840	11.9770
 1.8850	11.6190
 1.8860	11.2730
 1.8870	10.9380
 1.8880	10.6130
 1.8890	10.3050
 1.8900	10.0090
 1.8910	 9.7320
 1.8920	 9.4670
 1.8930	 9.2210
 1.8940	 8.9910
 1.8950	 8.7740
 1.8960	 8.5740
 1.8970	 8.3880
 1.8980	 8.2180
 1.8990	 8.0630
 1.9000	 7.9170
 1.9010	 7.7850
 1.9020	 7.6630
 1.9030	 7.5540
 1.9040	 7.4570
 1.9050	 7.3690
 1.9060	 7.2920
 1.9070	 7.2220
 1.9080	 7.1590
 1.9090	 7.1020
 1.9100	 7.0500
 1.9110	 7.0040
 1.9120	 6.9640
 1.9130	 6.9260
 1.9140	 6.8940
 1.9150	 6.8630
 1.9160	 6.8380
 1.9170	 6.8140
 1.9180	 6.7930
 1.9190	 6.7760
 1.9200	 6.7610
 1.9210	 6.7470
 1.9220	 6.7370
 1.9230	 6.7300
 1.9240	 6.7240
 1.9250	 6.7160
 1.9260	 6.7120
 1.9270	 6.7080
 1.9280	 6.7080
 1.9290	 6.7080
 1.9300	 6.7110
 1.9310	 6.7180
 1.9320	 6.7230
 1.9330	 6.7290
 1.9340	 6.7350
 1.9350	 6.7440
 1.9360	 6.7540
 1.9370	 6.7650
 1.9380	 6.7750
 1.9390	 6.7890
 1.9400	 6.8050
 1.9410	 6.8210
 1.9420	 6.8380
 1.9430	 6.8530
 1.9440	 6.8710
 1.9450	 6.8900
 1.9460	 6.9110
 1.9470	 6.9330
 1.9480	 6.9550
 1.9490	 6.9780
 1.9500	 6.9990
 1.9510	 7.0200
 1.9520	 7.0440
 1.9530	 7.0660
 1.9540	 7.0910
 1.9550	 7.1150
 1.9560	 7.1380
 1.9570	 7.1640
 1.9580	 7.1910
 1.9590	 7.2190
 1.9600	 7.2450
 1.9610	 7.2730
 1.9620	 7.3060
 1.9630	 7.3350
 1.9640	 7.3680
 1.9650	 7.4010
 1.9660	 7.4340
 1.9670	 7.4680
 1.9680	 7.5030
 1.9690	 7.5350
 1.9700	 7.5720
 1.9710	 7.6090
 1.9720	 7.6450
 1.9730	 7.6810
 1.9740	 7.7180
 1.9750	 7.7540
 1.9760	 7.7900
 1.9770	 7.8270
 1.9780	 7.8660
 1.9790	 7.9050
 1.9800	 7.9460
 1.9810	 7.9860
 1.9820	 8.0260
 1.9830	 8.0660
 1.9840	 8.1020
 1.9850	 8.1440
 1.9860	 8.1840
 1.9870	 8.2280
 1.9880	 8.2760
 1.9890	 8.3230
 1.9900	 8.3660
 1.9910	 8.4100
 1.9920	 8.4550
 1.9930	 8.4940
 1.9940	 8.5360
 1.9950	 8.5830
 1.9960	 8.6260
 1.9970	 8.6660
 1.9980	 8.7100
 1.9990	 8.7520
 2.0000	 8.7990
 2.0010	 8.8440
 2.0020	 8.8940
 2.0030	 8.9400
 2.0040	 8.9830
 2.0050	 9.0280
 2.0060	 9.0700
 2.0070	 9.1160
 2.0080	 9.1640
 2.0090	 9.2100
 2.0100	 9.2550
 2.0110	 9.2990
 2.0120	 9.3430
 2.0130	 9.3840
 2.0140	 9.4290
 2.0150	 9.4740
 2.0160	 9.5180
 2.0170	 9.5630
 2.0180	 9.6060
 2.0190	 9.6470
 2.0200	 9.6880
 2.0210	 9.7290
 2.0220	 9.7700
 2.0230	 9.8120
 2.0240	 9.8520
 2.0250	 9.8930
 2.0260	 9.9310
 2.0270	 9.9700
 2.0280	10.0040
 2.0290	10.0390
 2.0300	10.0740
 2.0310	10.1080
 2.0320	10.1430
 2.0330	10.1780
 2.0340	10.2160
 2.0350	10.2510
 2.0360	10.2860
 2.0370	10.3200
 2.0380	10.3510
 2.0390	10.3840
 2.0400	10.4190
 2.0410	10.4490
 2.0420	10.4780
 2.0430	10.5050
 2.0440	10.5330
 2.0450	10.5560
 2.0460	10.5830
 2.0470	10.6130
 2.0480	10.6410
 2.0490	10.6700
 2.0500	10.6970
 2.0510	10.7250
 2.0520	10.7500
 2.0530	10.7710
 2.0540	10.7950
 2.0550	10.8190
 2.0560	10.8410
 2.0570	10.8680
 2.0580	10.8960
 2.0590	10.9230
 2.0600	10.9510
 2.0610	10.9770
 2.0620	11.0020
 2.0630	11.0280
 2.0640	11.0550
 2.0650	11.0800
 2.0660	11.1040
 2.0670	11.1290
 2.0680	11.1540
 2.0690	11.1800
 2.0700	11.2080
 2.0710	11.2350
 2.0720	11.2620
 2.0730	11.2890
 2.0740	11.3170
 2.0750	11.3450
 2.0760	11.3710
 2.0770	11.3980
 2.0780	11.4240
 2.0790	11.4480
 2.0800	11.4740
 2.0810	11.4980
 2.0820	11.5230
 2.0830	11.5480
 2.0840	11.5730
 2.0850	11.5970
 2.0860	11.6230
 2.0870	11.6510
 2.0880	11.6800
 2.0890	11.7070
 2.0900	11.7350
 2.0910	11.7620
 2.0920	11.7840
 2.0930	11.8110
 2.0940	11.8400
 2.0950	11.8680
 2.0960	11.8970
 2.0970	11.9250
 2.0980	11.9500
 2.0990	11.9760
 2.1000	12.0050
 2.1010	12.0310
 2.1020	12.0550
 2.1030	12.0810
 2.1040	12.1070
 2.1050	12.1330
 2.1060	12.1590
 2.1070	12.1850
 2.1080	12.2140
 2.1090	12.2450
 2.1100	12.2730
 2.1110	12.3050
 2.1120	12.3330
 2.1130	12.3550
 2.1140	12.3810
 2.1150	12.4090
 2.1160	12.4360
 2.1170	12.4630
 2.1180	12.4900
 2.1190	12.5180
 2.1200	12.5450
 2.1210	12.5730
 2.1220	12.6010
 2.1230	12.6270
 2.1240	12.6510
 2.1250	12.6780
 2.1260	12.7080
 2.1270	12.7340
 2.1280	12.7640
 2.1290	12.7880
 2.1300	12.8070
 2.1310	12.8310
 2.1320	12.8540
 2.1330	12.8790
 2.1340	12.9050
 2.1350	12.9300
 2.1360	12.9550
 2.1370	12.9790
 2.1380	13.0020
 2.1390	13.0260
 2.1400	13.0500
 2.1410	13.0740
 2.1420	13.0990
 2.1430	13.1260
 2.1440	13.1500
 2.1450	13.1740
 2.1460	13.1980
 2.1470	13.2220
 2.1480	13.2470
 2.1490	13.2740
 2.1500	13.2990
 2.1510	13.3220
 2.1520	13.3460
 2.1530	13.3690
 2.1540	13.3930
 2.1550	13.4170
 2.1560	13.4410
 2.1570	13.4630
 2.1580	13.4870
 2.1590	13.5110
 2.1600	13.5350
 2.1610	13.5580
 2.1620	13.5800
 2.1630	13.6020
 2.1640	13.6200
 2.1650	13.6420
 2.1660	13.6660
 2.1670	13.6880
 2.1680	13.7110
 2.1690	13.7330
 2.1700	13.7550
 2.1710	13.7760
 2.1720	13.7960
 2.1730	13.8170
 2.1740	13.8370
 2.1750	13.8570
 2.1760	13.8800
 2.1770	13.9000
 2.1780	13.9170
 2.1790	13.9370
 2.1800	13.9590
 2.1810	13.9800
 2.1820	14.0010
 2.1830	14.0220
 2.1840	14.0430
 2.1850	14.0610
 2.1860	14.0800
 2.1870	14.0980
 2.1880	14.1170
 2.1890	14.1350
 2.1900	14.1540
 2.1910	14.1760
 2.1920	14.1970
 2.1930	14.2180
 2.1940	14.2380
 2.1950	14.2590
 2.1960	14.2780
 2.1970	14.2990
 2.1980	14.3160
 2.1990	14.3310
 2.2000	14.3450
 2.2010	14.3560
 2.2020	14.3690
 2.2030	14.3790
 2.2040	14.3940
 2.2050	14.4120
 2.2060	14.4320
 2.2070	14.4480
 2.2080	14.4650
 2.2090	14.4780
 2.2100	14.4850
 2.2110	14.4950
 2.2120	14.5090
 2.2130	14.5140
 2.2140	14.5160
 2.2150	14.5190
 2.2160	14.5190
 2.2170	14.5220
 2.2180	14.5270
 2.2190	14.5300
 2.2200	14.5320
 2.2210	14.5320
 2.2220	14.5350
 2.2230	14.5320
 2.2240	14.5260
 2.2250	14.5150
 2.2260	14.4950
 2.2270	14.4800
 2.2280	14.4640
 2.2290	14.4470
 2.2300	14.4300
 2.2310	14.4140
 2.2320	14.3910
 2.2330	14.3640
 2.2340	14.3360
 2.2350	14.3050
 2.2360	14.2740
 2.2370	14.2420
 2.2380	14.2090
 2.2390	14.1780
 2.2400	14.1430
 2.2410	14.1080
 2.2420	14.0670
 2.2430	14.0210
 2.2440	13.9760
 2.2450	13.9270
 2.2460	13.8780
 2.2470	13.8290
 2.2480	13.7800
 2.2490	13.7320
 2.2500	13.6840
 2.2510	13.6370
 2.2520	13.5870
 2.2530	13.5340
 2.2540	13.4800
 2.2550	13.4220
 2.2560	13.3660
 2.2570	13.3100
 2.2580	13.2540
 2.2590	13.1990
 2.2600	13.1450
 2.2610	13.0900
 2.2620	13.0350
 2.2630	12.9800
 2.2640	12.9290
 2.2650	12.8790
 2.2660	12.8280
 2.2670	12.7790
 2.2680	12.7320
 2.2690	12.6860
 2.2700	12.6400
 2.2710	12.5990
 2.2720	12.5610
 2.2730	12.5270
 2.2740	12.5010
 2.2750	12.4690
 2.2760	12.4360
 2.2770	12.4070
 2.2780	12.3770
 2.2790	12.3490
 2.2800	12.3260
 2.2810	12.3030
 2.2820	12.2790
 2.2830	12.2570
 2.2840	12.2370
 2.2850	12.2160
 2.2860	12.1970
 2.2870	12.1730
 2.2880	12.1470
 2.2890	12.1200
 2.2900	12.0890
 2.2910	12.0570
 2.2920	12.0220
 2.2930	11.9910
 2.2940	11.9610
 2.2950	11.9290
 2.2960	11.9000
 2.2970	11.8680
 2.2980	11.8300
 2.2990	11.7920
 2.3000	11.7560
 2.3010	11.7150
 2.3020	11.6750
 2.3030	11.6350
 2.3040	11.5980
 2.3050	11.5640
 2.3060	11.5320
 2.3070	11.5020
 2.3080	11.4760
 2.3090	11.4460
 2.3100	11.4180
 2.3110	11.3970
 2.3120	11.3800
 2.3130	11.3690
 2.3140	11.3550
 2.3150	11.3460
 2.3160	11.3310
 2.3170	11.3110
 2.3180	11.2950
 2.3190	11.2840
 2.3200	11.2670
 2.3210	11.2500
 2.3220	11.2300
 2.3230	11.2040
 2.3240	11.1830
 2.3250	11.1680
 2.3260	11.1460
 2.3270	11.1240
 2.3280	11.0980
 2.3290	11.0630
 2.3300	11.0330
 2.3310	11.0040
 2.3320	10.9740
 2.3330	10.9450
 2.3340	10.9140
 2.3350	10.8800
 2.3360	10.8490
 2.3370	10.8190
 2.3380	10.7920
 2.3390	10.7720
 2.3400	10.7440
 2.3410	10.7120
 2.3420	10.6830
 2.3430	10.6510
 2.3440	10.6230
 2.3450	10.6020
 2.3460	10.5770
 2.3470	10.5490
 2.3480	10.5220
 2.3490	10.4930
 2.3500	10.4670
 2.3510	10.4460
 2.3520	10.4250
 2.3530	10.4040
 2.3540	10.3850
 2.3550	10.3700
 2.3560	10.3500
 2.3570	10.3300
 2.3580	10.3100
 2.3590	10.2810
 2.3600	10.2550
 2.3610	10.2300
 2.3620	10.2010
 2.3630	10.1760
 2.3640	10.1470
 2.3650	10.1210
 2.3660	10.0990
 2.3670	10.0700
 2.3680	10.0370
 2.3690	10.0050
 2.3700	 9.9800
 2.3710	 9.9600
 2.3720	 9.9440
 2.3730	 9.9310
 2.3740	 9.9030
 2.3750	 9.8720
 2.3760	 9.8440
 2.3770	 9.8060
 2.3780	 9.7750
 2.3790	 9.7490
 2.3800	 9.7160
 2.3810	 9.6900
 2.3820	 9.6630
 2.3830	 9.6350
 2.3840	 9.6120
 2.3850	 9.5910
 2.3860	 9.5750
 2.3870	 9.5540
 2.3880	 9.5320
 2.3890	 9.5090
 2.3900	 9.4810
 2.3910	 9.4510
 2.3920	 9.4190
 2.3930	 9.3980
 2.3940	 9.3840
 2.3950	 9.3680
 2.3960	 9.3480
 2.3970	 9.3160
 2.3980	 9.2760
 2.3990	 9.2410
 2.4000	 9.2090
 2.4010	 9.1780
 2.4020	 9.1500
 2.4030	 9.1210
 2.4040	 9.1060
 2.4050	 9.0950
 2.4060	 9.0700
 2.4070	 9.0450
 2.4080	 9.0290
 2.4090	 8.9880
 2.4100	 8.9530
 2.4110	 8.9200
 2.4120	 8.8760
 2.4130	 8.8500
 2.4140	 8.8280
 2.4150	 8.8030
 2.4160	 8.7720
 2.4170	 8.7390
 2.4180	 8.7100
 2.4190	 8.6790
 2.4200	 8.6510
 2.4210	 8.6230
 2.4220	 8.5980
 2.4230	 8.5690
 2.4240	 8.5440
 2.4250	 8.5120
 2.4260	 8.4830
 2.4270	 8.4530
 2.4280	 8.4160
 2.4290	 8.3920
 2.4300	 8.3670
 2.4310	 8.3440
 2.4320	 8.3240
 2.4330	 8.2920
 2.4340	 8.2480
 2.4350	 8.2050
 2.4360	 8.1660
 2.4370	 8.1320
 2.4380	 8.1190
 2.4390	 8.1030
 2.4400	 8.0740
 2.4410	 8.0520
 2.4420	 8.0270
 2.4430	 7.9970
 2.4440	 7.9700
 2.4450	 7.9340
 2.4460	 7.8960
 2.4470	 7.8730
 2.4480	 7.8500
 2.4490	 7.8260
 2.4500	 7.7980
 2.4510	 7.7610
 2.4520	 7.7260
 2.4530	 7.7070
 2.4540	 7.6920
 2.4550	 7.6630
 2.4560	 7.6490
 2.4570	 7.6240
 2.4580	 7.5810
 2.4590	 7.5430
 2.4600	 7.5050
 2.4610	 7.4770
 2.4620	 7.4510
 2.4630	 7.4440
 2.4640	 7.4310
 2.4650	 7.3930
 2.4660	 7.3730
 2.4670	 7.3560
 2.4680	 7.3280
 2.4690	 7.3260
 2.4700	 7.3280
 2.4710	 7.3260
 2.4720	 7.3150
 2.4730	 7.3120
 2.4740	 7.2940
 2.4750	 7.2580
 2.4760	 7.2410
 2.4770	 7.2250
 2.4780	 7.2130
 2.4790	 7.2170
 2.4800	 7.2060
 2.4810	 7.1980
 2.4820	 7.1640
 2.4830	 7.1360
 2.4840	 7.1110
 2.4850	 7.0690
 2.4860	 7.0710
 2.4870	 7.0650
 2.4880	 7.0450
 2.4890	 7.0480
 2.4900	 7.0240
 2.4910	 7.0240
 2.4920	 7.0490
 2.4930	 7.0390
 2.4940	 7.0400
 2.4950	 7.0530
 2.4960	 7.0610
 2.4970	 7.0940
 2.4980	 7.0800
 2.4990	 7.0470
 2.5000	 7.0100
