Name: Quercus virginana
Type: vegetation
Class: Tree
Genus: Quercus
Species: virginana
Sample No.: JPL107
Owner: JPL
Wavelength Range: VSWIR
Origin: 34.12893; -118.11242;; WGS84
Collection Date: 9/7/2016
Description: Samples were collected at the Huntington Garden in San Marino California as part of a JPL Subcontract studying HyTES imagery. Samples were taken to JPL and processed within 48 hours of collection. The same leaves were processed in the Nicolet and then measured using the ASD.
Measurement: Bidirectional reflectance
First Column: X
Second Column: Y
X Units: Wavelength (micrometer)
Y Units: Reflectance (percentage)
First X Value: 0.35
Last X Value: 2.5
Number of X Values: 2151
Additional Information: vegetation.tree.quercus.virginana.vswir.jpl107.jpl.asd.ancillary.txt

 0.3500	 7.9160
 0.3510	 8.0460
 0.3520	 8.1070
 0.3530	 8.1190
 0.3540	 8.1490
 0.3550	 8.0610
 0.3560	 8.0150
 0.3570	 8.0000
 0.3580	 7.9380
 0.3590	 7.9830
 0.3600	 7.9750
 0.3610	 7.8740
 0.3620	 7.8390
 0.3630	 7.8560
 0.3640	 7.8760
 0.3650	 7.8620
 0.3660	 7.8630
 0.3670	 7.8450
 0.3680	 7.8140
 0.3690	 7.8000
 0.3700	 7.8100
 0.3710	 7.8570
 0.3720	 7.8970
 0.3730	 7.7740
 0.3740	 7.7520
 0.3750	 7.7990
 0.3760	 7.8090
 0.3770	 7.8080
 0.3780	 7.7790
 0.3790	 7.7570
 0.3800	 7.8050
 0.3810	 7.8240
 0.3820	 7.8200
 0.3830	 7.8120
 0.3840	 7.7940
 0.3850	 7.7890
 0.3860	 7.7800
 0.3870	 7.7540
 0.3880	 7.7720
 0.3890	 7.7980
 0.3900	 7.8030
 0.3910	 7.7810
 0.3920	 7.8030
 0.3930	 7.8070
 0.3940	 7.7560
 0.3950	 7.7690
 0.3960	 7.7770
 0.3970	 7.7740
 0.3980	 7.7820
 0.3990	 7.7850
 0.4000	 7.7860
 0.4010	 7.7870
 0.4020	 7.7830
 0.4030	 7.7750
 0.4040	 7.7680
 0.4050	 7.7680
 0.4060	 7.7930
 0.4070	 7.8130
 0.4080	 7.8170
 0.4090	 7.8070
 0.4100	 7.8160
 0.4110	 7.8340
 0.4120	 7.8500
 0.4130	 7.8610
 0.4140	 7.8810
 0.4150	 7.8970
 0.4160	 7.8940
 0.4170	 7.9110
 0.4180	 7.9280
 0.4190	 7.9420
 0.4200	 7.9650
 0.4210	 7.9790
 0.4220	 7.9840
 0.4230	 7.9830
 0.4240	 7.9980
 0.4250	 8.0010
 0.4260	 8.0020
 0.4270	 8.0230
 0.4280	 8.0300
 0.4290	 8.0350
 0.4300	 8.0410
 0.4310	 8.0250
 0.4320	 8.0050
 0.4330	 7.9850
 0.4340	 7.9700
 0.4350	 7.9710
 0.4360	 7.9840
 0.4370	 8.0030
 0.4380	 8.0190
 0.4390	 8.0390
 0.4400	 8.0670
 0.4410	 8.0980
 0.4420	 8.1160
 0.4430	 8.1280
 0.4440	 8.1330
 0.4450	 8.1320
 0.4460	 8.1460
 0.4470	 8.1580
 0.4480	 8.1620
 0.4490	 8.1640
 0.4500	 8.1810
 0.4510	 8.1950
 0.4520	 8.1920
 0.4530	 8.2020
 0.4540	 8.2110
 0.4550	 8.2170
 0.4560	 8.2240
 0.4570	 8.2310
 0.4580	 8.2360
 0.4590	 8.2410
 0.4600	 8.2460
 0.4610	 8.2470
 0.4620	 8.2470
 0.4630	 8.2480
 0.4640	 8.2510
 0.4650	 8.2520
 0.4660	 8.2520
 0.4670	 8.2560
 0.4680	 8.2560
 0.4690	 8.2590
 0.4700	 8.2680
 0.4710	 8.2690
 0.4720	 8.2740
 0.4730	 8.2790
 0.4740	 8.2770
 0.4750	 8.2790
 0.4760	 8.2810
 0.4770	 8.2820
 0.4780	 8.2870
 0.4790	 8.2900
 0.4800	 8.2910
 0.4810	 8.2920
 0.4820	 8.2860
 0.4830	 8.2810
 0.4840	 8.2770
 0.4850	 8.2700
 0.4860	 8.2610
 0.4870	 8.2570
 0.4880	 8.2590
 0.4890	 8.2640
 0.4900	 8.2730
 0.4910	 8.2860
 0.4920	 8.3010
 0.4930	 8.3170
 0.4940	 8.3340
 0.4950	 8.3520
 0.4960	 8.3680
 0.4970	 8.3880
 0.4980	 8.4090
 0.4990	 8.4300
 0.5000	 8.4570
 0.5010	 8.4830
 0.5020	 8.5080
 0.5030	 8.5360
 0.5040	 8.5730
 0.5050	 8.6120
 0.5060	 8.6520
 0.5070	 8.7000
 0.5080	 8.7470
 0.5090	 8.7950
 0.5100	 8.8540
 0.5110	 8.9200
 0.5120	 8.9920
 0.5130	 9.0690
 0.5140	 9.1480
 0.5150	 9.2400
 0.5160	 9.3420
 0.5170	 9.4470
 0.5180	 9.5570
 0.5190	 9.6740
 0.5200	 9.8000
 0.5210	 9.9340
 0.5220	10.0690
 0.5230	10.2010
 0.5240	10.3320
 0.5250	10.4640
 0.5260	10.5930
 0.5270	10.7140
 0.5280	10.8270
 0.5290	10.9370
 0.5300	11.0410
 0.5310	11.1370
 0.5320	11.2210
 0.5330	11.3030
 0.5340	11.3780
 0.5350	11.4410
 0.5360	11.5000
 0.5370	11.5460
 0.5380	11.5800
 0.5390	11.6110
 0.5400	11.6230
 0.5410	11.6180
 0.5420	11.6080
 0.5430	11.6090
 0.5440	11.6300
 0.5450	11.6740
 0.5460	11.7380
 0.5470	11.8060
 0.5480	11.8670
 0.5490	11.9110
 0.5500	11.9330
 0.5510	11.9480
 0.5520	11.9570
 0.5530	11.9610
 0.5540	11.9570
 0.5550	11.9440
 0.5560	11.9190
 0.5570	11.8790
 0.5580	11.8310
 0.5590	11.7770
 0.5600	11.7180
 0.5610	11.6520
 0.5620	11.5820
 0.5630	11.5070
 0.5640	11.4230
 0.5650	11.3320
 0.5660	11.2390
 0.5670	11.1460
 0.5680	11.0510
 0.5690	10.9510
 0.5700	10.8520
 0.5710	10.7590
 0.5720	10.6670
 0.5730	10.5780
 0.5740	10.4980
 0.5750	10.4330
 0.5760	10.3780
 0.5770	10.3290
 0.5780	10.2850
 0.5790	10.2430
 0.5800	10.1990
 0.5810	10.1520
 0.5820	10.1050
 0.5830	10.0620
 0.5840	10.0250
 0.5850	 9.9900
 0.5860	 9.9500
 0.5870	 9.9030
 0.5880	 9.8570
 0.5890	 9.8230
 0.5900	 9.8020
 0.5910	 9.7940
 0.5920	 9.7870
 0.5930	 9.7720
 0.5940	 9.7600
 0.5950	 9.7590
 0.5960	 9.7650
 0.5970	 9.7620
 0.5980	 9.7520
 0.5990	 9.7390
 0.6000	 9.7250
 0.6010	 9.7140
 0.6020	 9.6980
 0.6030	 9.6770
 0.6040	 9.6520
 0.6050	 9.6230
 0.6060	 9.5890
 0.6070	 9.5500
 0.6080	 9.5080
 0.6090	 9.4450
 0.6100	 9.3580
 0.6110	 9.2570
 0.6120	 9.2210
 0.6130	 9.2180
 0.6140	 9.2190
 0.6150	 9.2000
 0.6160	 9.1780
 0.6170	 9.1550
 0.6180	 9.1270
 0.6190	 9.1020
 0.6200	 9.0790
 0.6210	 9.0570
 0.6220	 9.0410
 0.6230	 9.0300
 0.6240	 9.0190
 0.6250	 9.0090
 0.6260	 9.0030
 0.6270	 8.9970
 0.6280	 8.9900
 0.6290	 8.9830
 0.6300	 8.9740
 0.6310	 8.9690
 0.6320	 8.9720
 0.6330	 8.9760
 0.6340	 8.9720
 0.6350	 8.9630
 0.6360	 8.9530
 0.6370	 8.9400
 0.6380	 8.9270
 0.6390	 8.9100
 0.6400	 8.8890
 0.6410	 8.8660
 0.6420	 8.8420
 0.6430	 8.8170
 0.6440	 8.7930
 0.6450	 8.7680
 0.6460	 8.7440
 0.6470	 8.7200
 0.6480	 8.6990
 0.6490	 8.6770
 0.6500	 8.6560
 0.6510	 8.6400
 0.6520	 8.6250
 0.6530	 8.6110
 0.6540	 8.5970
 0.6550	 8.5810
 0.6560	 8.5630
 0.6570	 8.5440
 0.6580	 8.5230
 0.6590	 8.5020
 0.6600	 8.4800
 0.6610	 8.4570
 0.6620	 8.4350
 0.6630	 8.4160
 0.6640	 8.4010
 0.6650	 8.3900
 0.6660	 8.3760
 0.6670	 8.3650
 0.6680	 8.3570
 0.6690	 8.3510
 0.6700	 8.3500
 0.6710	 8.3530
 0.6720	 8.3560
 0.6730	 8.3610
 0.6740	 8.3670
 0.6750	 8.3770
 0.6760	 8.3910
 0.6770	 8.3990
 0.6780	 8.4080
 0.6790	 8.4220
 0.6800	 8.4420
 0.6810	 8.4640
 0.6820	 8.4890
 0.6830	 8.5170
 0.6840	 8.5490
 0.6850	 8.5870
 0.6860	 8.6320
 0.6870	 8.6850
 0.6880	 8.7440
 0.6890	 8.8180
 0.6900	 8.9100
 0.6910	 9.0220
 0.6920	 9.1540
 0.6930	 9.3140
 0.6940	 9.5050
 0.6950	 9.7360
 0.6960	10.0060
 0.6970	10.3190
 0.6980	10.6740
 0.6990	11.0800
 0.7000	11.5320
 0.7010	12.0290
 0.7020	12.5680
 0.7030	13.1490
 0.7040	13.7650
 0.7050	14.4130
 0.7060	15.0920
 0.7070	15.7970
 0.7080	16.5300
 0.7090	17.2930
 0.7100	18.0770
 0.7110	18.8820
 0.7120	19.7090
 0.7130	20.5560
 0.7140	21.4210
 0.7150	22.3010
 0.7160	23.1960
 0.7170	24.1030
 0.7180	25.0200
 0.7190	25.9440
 0.7200	26.8730
 0.7210	27.8040
 0.7220	28.7350
 0.7230	29.6620
 0.7240	30.5810
 0.7250	31.4890
 0.7260	32.3830
 0.7270	33.2600
 0.7280	34.1160
 0.7290	34.9470
 0.7300	35.7540
 0.7310	36.5370
 0.7320	37.2930
 0.7330	38.0210
 0.7340	38.7180
 0.7350	39.3860
 0.7360	40.0270
 0.7370	40.6380
 0.7380	41.2200
 0.7390	41.7730
 0.7400	42.2950
 0.7410	42.7870
 0.7420	43.2540
 0.7430	43.6930
 0.7440	44.1050
 0.7450	44.4920
 0.7460	44.8560
 0.7470	45.1950
 0.7480	45.5110
 0.7490	45.8050
 0.7500	46.0780
 0.7510	46.3280
 0.7520	46.5580
 0.7530	46.7750
 0.7540	46.9730
 0.7550	47.1560
 0.7560	47.3260
 0.7570	47.4820
 0.7580	47.6260
 0.7590	47.7570
 0.7600	47.8760
 0.7610	47.9860
 0.7620	48.0870
 0.7630	48.1790
 0.7640	48.2650
 0.7650	48.3470
 0.7660	48.4220
 0.7670	48.4910
 0.7680	48.5540
 0.7690	48.6120
 0.7700	48.6670
 0.7710	48.7190
 0.7720	48.7660
 0.7730	48.8080
 0.7740	48.8510
 0.7750	48.8920
 0.7760	48.9280
 0.7770	48.9610
 0.7780	48.9940
 0.7790	49.0270
 0.7800	49.0550
 0.7810	49.0790
 0.7820	49.1020
 0.7830	49.1270
 0.7840	49.1510
 0.7850	49.1730
 0.7860	49.1940
 0.7870	49.2110
 0.7880	49.2310
 0.7890	49.2500
 0.7900	49.2640
 0.7910	49.2800
 0.7920	49.2930
 0.7930	49.3020
 0.7940	49.3120
 0.7950	49.3230
 0.7960	49.3320
 0.7970	49.3390
 0.7980	49.3410
 0.7990	49.3490
 0.8000	49.3590
 0.8010	49.3650
 0.8020	49.3650
 0.8030	49.3670
 0.8040	49.3690
 0.8050	49.3680
 0.8060	49.3700
 0.8070	49.3710
 0.8080	49.3690
 0.8090	49.3680
 0.8100	49.3640
 0.8110	49.3610
 0.8120	49.3580
 0.8130	49.3550
 0.8140	49.3490
 0.8150	49.3430
 0.8160	49.3410
 0.8170	49.3360
 0.8180	49.3320
 0.8190	49.3280
 0.8200	49.3250
 0.8210	49.3200
 0.8220	49.3140
 0.8230	49.3050
 0.8240	49.2990
 0.8250	49.2920
 0.8260	49.2860
 0.8270	49.2810
 0.8280	49.2710
 0.8290	49.2600
 0.8300	49.2510
 0.8310	49.2480
 0.8320	49.2430
 0.8330	49.2350
 0.8340	49.2260
 0.8350	49.2200
 0.8360	49.2170
 0.8370	49.2160
 0.8380	49.2150
 0.8390	49.2110
 0.8400	49.2060
 0.8410	49.2060
 0.8420	49.2100
 0.8430	49.2110
 0.8440	49.2120
 0.8450	49.2150
 0.8460	49.2190
 0.8470	49.2190
 0.8480	49.2190
 0.8490	49.2220
 0.8500	49.2290
 0.8510	49.2320
 0.8520	49.2350
 0.8530	49.2410
 0.8540	49.2470
 0.8550	49.2510
 0.8560	49.2550
 0.8570	49.2600
 0.8580	49.2700
 0.8590	49.2770
 0.8600	49.2830
 0.8610	49.2910
 0.8620	49.3060
 0.8630	49.3110
 0.8640	49.3150
 0.8650	49.3270
 0.8660	49.3400
 0.8670	49.3480
 0.8680	49.3550
 0.8690	49.3670
 0.8700	49.3760
 0.8710	49.3880
 0.8720	49.4020
 0.8730	49.4140
 0.8740	49.4240
 0.8750	49.4370
 0.8760	49.4530
 0.8770	49.4650
 0.8780	49.4780
 0.8790	49.4930
 0.8800	49.5060
 0.8810	49.5130
 0.8820	49.5260
 0.8830	49.5400
 0.8840	49.5520
 0.8850	49.5640
 0.8860	49.5800
 0.8870	49.5930
 0.8880	49.6010
 0.8890	49.6160
 0.8900	49.6300
 0.8910	49.6430
 0.8920	49.6570
 0.8930	49.6720
 0.8940	49.6830
 0.8950	49.6920
 0.8960	49.7070
 0.8970	49.7200
 0.8980	49.7310
 0.8990	49.7430
 0.9000	49.7540
 0.9010	49.7610
 0.9020	49.7700
 0.9030	49.7840
 0.9040	49.7990
 0.9050	49.8060
 0.9060	49.8140
 0.9070	49.8280
 0.9080	49.8380
 0.9090	49.8470
 0.9100	49.8550
 0.9110	49.8620
 0.9120	49.8730
 0.9130	49.8840
 0.9140	49.8920
 0.9150	49.9000
 0.9160	49.9080
 0.9170	49.9150
 0.9180	49.9160
 0.9190	49.9150
 0.9200	49.9240
 0.9210	49.9270
 0.9220	49.9220
 0.9230	49.9190
 0.9240	49.9200
 0.9250	49.9180
 0.9260	49.9090
 0.9270	49.8960
 0.9280	49.8950
 0.9290	49.8890
 0.9300	49.8740
 0.9310	49.8590
 0.9320	49.8430
 0.9330	49.8250
 0.9340	49.8050
 0.9350	49.7840
 0.9360	49.7630
 0.9370	49.7420
 0.9380	49.7220
 0.9390	49.7050
 0.9400	49.6840
 0.9410	49.6550
 0.9420	49.6250
 0.9430	49.5990
 0.9440	49.5710
 0.9450	49.5350
 0.9460	49.4940
 0.9470	49.4560
 0.9480	49.4140
 0.9490	49.3640
 0.9500	49.3060
 0.9510	49.2410
 0.9520	49.1780
 0.9530	49.1210
 0.9540	49.0690
 0.9550	49.0120
 0.9560	48.9460
 0.9570	48.8840
 0.9580	48.8340
 0.9590	48.7750
 0.9600	48.7170
 0.9610	48.6650
 0.9620	48.6210
 0.9630	48.5880
 0.9640	48.5620
 0.9650	48.5360
 0.9660	48.5060
 0.9670	48.4780
 0.9680	48.4570
 0.9690	48.4380
 0.9700	48.4170
 0.9710	48.4000
 0.9720	48.3900
 0.9730	48.3820
 0.9740	48.3700
 0.9750	48.3670
 0.9760	48.3530
 0.9770	48.3420
 0.9780	48.3520
 0.9790	48.3560
 0.9800	48.3590
 0.9810	48.3630
 0.9820	48.3660
 0.9830	48.3590
 0.9840	48.3690
 0.9850	48.3870
 0.9860	48.3900
 0.9870	48.4040
 0.9880	48.4180
 0.9890	48.4310
 0.9900	48.4500
 0.9910	48.4640
 0.9920	48.4800
 0.9930	48.4980
 0.9940	48.5140
 0.9950	48.5320
 0.9960	48.5490
 0.9970	48.5650
 0.9980	48.5810
 0.9990	48.6090
 1.0000	48.6200
 1.0010	50.0400
 1.0020	50.0630
 1.0030	50.0910
 1.0040	50.1140
 1.0050	50.1340
 1.0060	50.1590
 1.0070	50.1820
 1.0080	50.2050
 1.0090	50.2310
 1.0100	50.2550
 1.0110	50.2780
 1.0120	50.3010
 1.0130	50.3250
 1.0140	50.3480
 1.0150	50.3720
 1.0160	50.3910
 1.0170	50.4090
 1.0180	50.4250
 1.0190	50.4440
 1.0200	50.4660
 1.0210	50.4910
 1.0220	50.5180
 1.0230	50.5430
 1.0240	50.5650
 1.0250	50.5880
 1.0260	50.6080
 1.0270	50.6300
 1.0280	50.6510
 1.0290	50.6720
 1.0300	50.6940
 1.0310	50.7170
 1.0320	50.7430
 1.0330	50.7650
 1.0340	50.7840
 1.0350	50.8030
 1.0360	50.8180
 1.0370	50.8330
 1.0380	50.8500
 1.0390	50.8690
 1.0400	50.8870
 1.0410	50.9050
 1.0420	50.9210
 1.0430	50.9400
 1.0440	50.9530
 1.0450	50.9600
 1.0460	50.9720
 1.0470	50.9840
 1.0480	50.9960
 1.0490	51.0100
 1.0500	51.0230
 1.0510	51.0340
 1.0520	51.0460
 1.0530	51.0590
 1.0540	51.0770
 1.0550	51.0870
 1.0560	51.0930
 1.0570	51.1020
 1.0580	51.1090
 1.0590	51.1160
 1.0600	51.1260
 1.0610	51.1340
 1.0620	51.1390
 1.0630	51.1440
 1.0640	51.1480
 1.0650	51.1520
 1.0660	51.1540
 1.0670	51.1570
 1.0680	51.1610
 1.0690	51.1660
 1.0700	51.1700
 1.0710	51.1730
 1.0720	51.1760
 1.0730	51.1790
 1.0740	51.1800
 1.0750	51.1790
 1.0760	51.1790
 1.0770	51.1780
 1.0780	51.1780
 1.0790	51.1800
 1.0800	51.1810
 1.0810	51.1830
 1.0820	51.1820
 1.0830	51.1810
 1.0840	51.1780
 1.0850	51.1730
 1.0860	51.1670
 1.0870	51.1610
 1.0880	51.1540
 1.0890	51.1490
 1.0900	51.1450
 1.0910	51.1410
 1.0920	51.1390
 1.0930	51.1350
 1.0940	51.1280
 1.0950	51.1220
 1.0960	51.1150
 1.0970	51.1070
 1.0980	51.1000
 1.0990	51.0930
 1.1000	51.0850
 1.1010	51.0770
 1.1020	51.0680
 1.1030	51.0600
 1.1040	51.0530
 1.1050	51.0450
 1.1060	51.0360
 1.1070	51.0290
 1.1080	51.0200
 1.1090	51.0090
 1.1100	50.9980
 1.1110	50.9890
 1.1120	50.9750
 1.1130	50.9600
 1.1140	50.9440
 1.1150	50.9270
 1.1160	50.9080
 1.1170	50.8900
 1.1180	50.8690
 1.1190	50.8470
 1.1200	50.8200
 1.1210	50.7890
 1.1220	50.7590
 1.1230	50.7250
 1.1240	50.6870
 1.1250	50.6430
 1.1260	50.5970
 1.1270	50.5420
 1.1280	50.4790
 1.1290	50.4120
 1.1300	50.3400
 1.1310	50.2610
 1.1320	50.1760
 1.1330	50.0840
 1.1340	49.9860
 1.1350	49.8790
 1.1360	49.7640
 1.1370	49.6440
 1.1380	49.5160
 1.1390	49.3830
 1.1400	49.2460
 1.1410	49.1070
 1.1420	48.9630
 1.1430	48.8140
 1.1440	48.6660
 1.1450	48.5160
 1.1460	48.3680
 1.1470	48.2200
 1.1480	48.0770
 1.1490	47.9350
 1.1500	47.8010
 1.1510	47.6700
 1.1520	47.5500
 1.1530	47.4370
 1.1540	47.3350
 1.1550	47.2410
 1.1560	47.1560
 1.1570	47.0780
 1.1580	47.0090
 1.1590	46.9460
 1.1600	46.8910
 1.1610	46.8420
 1.1620	46.7990
 1.1630	46.7640
 1.1640	46.7350
 1.1650	46.7070
 1.1660	46.6850
 1.1670	46.6630
 1.1680	46.6420
 1.1690	46.6240
 1.1700	46.6110
 1.1710	46.5970
 1.1720	46.5870
 1.1730	46.5740
 1.1740	46.5610
 1.1750	46.5490
 1.1760	46.5370
 1.1770	46.5240
 1.1780	46.5100
 1.1790	46.4940
 1.1800	46.4770
 1.1810	46.4600
 1.1820	46.4440
 1.1830	46.4290
 1.1840	46.4130
 1.1850	46.3980
 1.1860	46.3810
 1.1870	46.3650
 1.1880	46.3510
 1.1890	46.3410
 1.1900	46.3300
 1.1910	46.3210
 1.1920	46.3140
 1.1930	46.3080
 1.1940	46.3040
 1.1950	46.3020
 1.1960	46.3010
 1.1970	46.3000
 1.1980	46.3020
 1.1990	46.3060
 1.2000	46.3130
 1.2010	46.3210
 1.2020	46.3280
 1.2030	46.3390
 1.2040	46.3520
 1.2050	46.3660
 1.2060	46.3820
 1.2070	46.3990
 1.2080	46.4150
 1.2090	46.4340
 1.2100	46.4540
 1.2110	46.4760
 1.2120	46.4990
 1.2130	46.5240
 1.2140	46.5510
 1.2150	46.5780
 1.2160	46.6060
 1.2170	46.6350
 1.2180	46.6630
 1.2190	46.6940
 1.2200	46.7250
 1.2210	46.7550
 1.2220	46.7870
 1.2230	46.8180
 1.2240	46.8490
 1.2250	46.8810
 1.2260	46.9110
 1.2270	46.9420
 1.2280	46.9710
 1.2290	46.9980
 1.2300	47.0280
 1.2310	47.0550
 1.2320	47.0810
 1.2330	47.1080
 1.2340	47.1330
 1.2350	47.1550
 1.2360	47.1790
 1.2370	47.2040
 1.2380	47.2270
 1.2390	47.2500
 1.2400	47.2720
 1.2410	47.2910
 1.2420	47.3100
 1.2430	47.3320
 1.2440	47.3510
 1.2450	47.3700
 1.2460	47.3900
 1.2470	47.4070
 1.2480	47.4250
 1.2490	47.4420
 1.2500	47.4560
 1.2510	47.4690
 1.2520	47.4830
 1.2530	47.4950
 1.2540	47.5080
 1.2550	47.5220
 1.2560	47.5330
 1.2570	47.5420
 1.2580	47.5510
 1.2590	47.5580
 1.2600	47.5610
 1.2610	47.5650
 1.2620	47.5670
 1.2630	47.5700
 1.2640	47.5710
 1.2650	47.5710
 1.2660	47.5710
 1.2670	47.5700
 1.2680	47.5690
 1.2690	47.5670
 1.2700	47.5620
 1.2710	47.5540
 1.2720	47.5480
 1.2730	47.5420
 1.2740	47.5350
 1.2750	47.5270
 1.2760	47.5180
 1.2770	47.5040
 1.2780	47.4890
 1.2790	47.4760
 1.2800	47.4630
 1.2810	47.4480
 1.2820	47.4320
 1.2830	47.4140
 1.2840	47.3920
 1.2850	47.3680
 1.2860	47.3400
 1.2870	47.3110
 1.2880	47.2780
 1.2890	47.2440
 1.2900	47.2080
 1.2910	47.1700
 1.2920	47.1330
 1.2930	47.0930
 1.2940	47.0480
 1.2950	47.0030
 1.2960	46.9530
 1.2970	46.9000
 1.2980	46.8460
 1.2990	46.7880
 1.3000	46.7280
 1.3010	46.6630
 1.3020	46.5960
 1.3030	46.5240
 1.3040	46.4500
 1.3050	46.3770
 1.3060	46.3010
 1.3070	46.2220
 1.3080	46.1410
 1.3090	46.0560
 1.3100	45.9670
 1.3110	45.8780
 1.3120	45.7840
 1.3130	45.6860
 1.3140	45.5860
 1.3150	45.4840
 1.3160	45.3790
 1.3170	45.2730
 1.3180	45.1640
 1.3190	45.0510
 1.3200	44.9330
 1.3210	44.8120
 1.3220	44.6890
 1.3230	44.5640
 1.3240	44.4350
 1.3250	44.3060
 1.3260	44.1730
 1.3270	44.0370
 1.3280	43.8990
 1.3290	43.7550
 1.3300	43.6100
 1.3310	43.4620
 1.3320	43.3110
 1.3330	43.1620
 1.3340	43.0100
 1.3350	42.8580
 1.3360	42.7060
 1.3370	42.5510
 1.3380	42.3960
 1.3390	42.2410
 1.3400	42.0850
 1.3410	41.9320
 1.3420	41.7800
 1.3430	41.6300
 1.3440	41.4810
 1.3450	41.3320
 1.3460	41.1830
 1.3470	41.0370
 1.3480	40.8900
 1.3490	40.7460
 1.3500	40.6050
 1.3510	40.4650
 1.3520	40.3250
 1.3530	40.1860
 1.3540	40.0450
 1.3550	39.9040
 1.3560	39.7630
 1.3570	39.6230
 1.3580	39.4840
 1.3590	39.3410
 1.3600	39.1950
 1.3610	39.0450
 1.3620	38.8900
 1.3630	38.7300
 1.3640	38.5650
 1.3650	38.3940
 1.3660	38.2160
 1.3670	38.0300
 1.3680	37.8330
 1.3690	37.6260
 1.3700	37.4030
 1.3710	37.1680
 1.3720	36.9200
 1.3730	36.6530
 1.3740	36.3710
 1.3750	36.0700
 1.3760	35.7470
 1.3770	35.4000
 1.3780	35.0280
 1.3790	34.6330
 1.3800	34.2130
 1.3810	33.7670
 1.3820	33.3020
 1.3830	32.8160
 1.3840	32.3110
 1.3850	31.7850
 1.3860	31.2440
 1.3870	30.6800
 1.3880	30.1130
 1.3890	29.5340
 1.3900	28.9450
 1.3910	28.3560
 1.3920	27.7630
 1.3930	27.1660
 1.3940	26.5750
 1.3950	25.9820
 1.3960	25.3990
 1.3970	24.8290
 1.3980	24.2690
 1.3990	23.7330
 1.4000	23.2140
 1.4010	22.7100
 1.4020	22.2300
 1.4030	21.7670
 1.4040	21.3260
 1.4050	20.9110
 1.4060	20.5160
 1.4070	20.1480
 1.4080	19.8030
 1.4090	19.4770
 1.4100	19.1750
 1.4110	18.8930
 1.4120	18.6310
 1.4130	18.3900
 1.4140	18.1660
 1.4150	17.9630
 1.4160	17.7750
 1.4170	17.6020
 1.4180	17.4450
 1.4190	17.2990
 1.4200	17.1660
 1.4210	17.0460
 1.4220	16.9360
 1.4230	16.8380
 1.4240	16.7490
 1.4250	16.6680
 1.4260	16.5960
 1.4270	16.5310
 1.4280	16.4730
 1.4290	16.4210
 1.4300	16.3780
 1.4310	16.3380
 1.4320	16.3060
 1.4330	16.2780
 1.4340	16.2530
 1.4350	16.2330
 1.4360	16.2180
 1.4370	16.2070
 1.4380	16.2000
 1.4390	16.1970
 1.4400	16.1960
 1.4410	16.1970
 1.4420	16.2010
 1.4430	16.2070
 1.4440	16.2140
 1.4450	16.2230
 1.4460	16.2330
 1.4470	16.2440
 1.4480	16.2580
 1.4490	16.2720
 1.4500	16.2880
 1.4510	16.3060
 1.4520	16.3260
 1.4530	16.3460
 1.4540	16.3680
 1.4550	16.3910
 1.4560	16.4140
 1.4570	16.4390
 1.4580	16.4680
 1.4590	16.4980
 1.4600	16.5320
 1.4610	16.5700
 1.4620	16.6110
 1.4630	16.6570
 1.4640	16.7070
 1.4650	16.7600
 1.4660	16.8170
 1.4670	16.8770
 1.4680	16.9420
 1.4690	17.0120
 1.4700	17.0860
 1.4710	17.1640
 1.4720	17.2460
 1.4730	17.3310
 1.4740	17.4200
 1.4750	17.5110
 1.4760	17.6050
 1.4770	17.7010
 1.4780	17.7990
 1.4790	17.9000
 1.4800	18.0020
 1.4810	18.1050
 1.4820	18.2110
 1.4830	18.3170
 1.4840	18.4260
 1.4850	18.5350
 1.4860	18.6450
 1.4870	18.7570
 1.4880	18.8690
 1.4890	18.9820
 1.4900	19.0960
 1.4910	19.2090
 1.4920	19.3250
 1.4930	19.4420
 1.4940	19.5580
 1.4950	19.6760
 1.4960	19.7930
 1.4970	19.9080
 1.4980	20.0250
 1.4990	20.1430
 1.5000	20.2620
 1.5010	20.3830
 1.5020	20.5020
 1.5030	20.6220
 1.5040	20.7410
 1.5050	20.8590
 1.5060	20.9780
 1.5070	21.0970
 1.5080	21.2160
 1.5090	21.3360
 1.5100	21.4550
 1.5110	21.5740
 1.5120	21.6930
 1.5130	21.8100
 1.5140	21.9270
 1.5150	22.0450
 1.5160	22.1610
 1.5170	22.2780
 1.5180	22.3940
 1.5190	22.5090
 1.5200	22.6240
 1.5210	22.7360
 1.5220	22.8480
 1.5230	22.9600
 1.5240	23.0700
 1.5250	23.1810
 1.5260	23.2910
 1.5270	23.3990
 1.5280	23.5080
 1.5290	23.6150
 1.5300	23.7210
 1.5310	23.8270
 1.5320	23.9320
 1.5330	24.0360
 1.5340	24.1390
 1.5350	24.2410
 1.5360	24.3430
 1.5370	24.4450
 1.5380	24.5460
 1.5390	24.6470
 1.5400	24.7460
 1.5410	24.8460
 1.5420	24.9440
 1.5430	25.0400
 1.5440	25.1360
 1.5450	25.2310
 1.5460	25.3260
 1.5470	25.4220
 1.5480	25.5160
 1.5490	25.6120
 1.5500	25.7050
 1.5510	25.7970
 1.5520	25.8890
 1.5530	25.9770
 1.5540	26.0640
 1.5550	26.1520
 1.5560	26.2400
 1.5570	26.3260
 1.5580	26.4120
 1.5590	26.4960
 1.5600	26.5800
 1.5610	26.6620
 1.5620	26.7440
 1.5630	26.8240
 1.5640	26.9030
 1.5650	26.9820
 1.5660	27.0620
 1.5670	27.1410
 1.5680	27.2200
 1.5690	27.2970
 1.5700	27.3730
 1.5710	27.4480
 1.5720	27.5240
 1.5730	27.5990
 1.5740	27.6740
 1.5750	27.7480
 1.5760	27.8220
 1.5770	27.8950
 1.5780	27.9670
 1.5790	28.0400
 1.5800	28.1120
 1.5810	28.1850
 1.5820	28.2560
 1.5830	28.3270
 1.5840	28.3980
 1.5850	28.4680
 1.5860	28.5370
 1.5870	28.6080
 1.5880	28.6760
 1.5890	28.7450
 1.5900	28.8160
 1.5910	28.8860
 1.5920	28.9560
 1.5930	29.0260
 1.5940	29.0950
 1.5950	29.1650
 1.5960	29.2340
 1.5970	29.3030
 1.5980	29.3720
 1.5990	29.4400
 1.6000	29.5080
 1.6010	29.5760
 1.6020	29.6430
 1.6030	29.7090
 1.6040	29.7740
 1.6050	29.8370
 1.6060	29.9010
 1.6070	29.9640
 1.6080	30.0290
 1.6090	30.0910
 1.6100	30.1500
 1.6110	30.2090
 1.6120	30.2660
 1.6130	30.3230
 1.6140	30.3810
 1.6150	30.4370
 1.6160	30.4930
 1.6170	30.5460
 1.6180	30.6000
 1.6190	30.6530
 1.6200	30.7040
 1.6210	30.7560
 1.6220	30.8070
 1.6230	30.8560
 1.6240	30.9060
 1.6250	30.9530
 1.6260	31.0010
 1.6270	31.0470
 1.6280	31.0930
 1.6290	31.1370
 1.6300	31.1810
 1.6310	31.2240
 1.6320	31.2660
 1.6330	31.3060
 1.6340	31.3440
 1.6350	31.3800
 1.6360	31.4130
 1.6370	31.4460
 1.6380	31.4770
 1.6390	31.5080
 1.6400	31.5380
 1.6410	31.5640
 1.6420	31.5880
 1.6430	31.6100
 1.6440	31.6300
 1.6450	31.6480
 1.6460	31.6650
 1.6470	31.6790
 1.6480	31.6880
 1.6490	31.6950
 1.6500	31.6990
 1.6510	31.7010
 1.6520	31.7010
 1.6530	31.6980
 1.6540	31.6920
 1.6550	31.6840
 1.6560	31.6740
 1.6570	31.6630
 1.6580	31.6530
 1.6590	31.6420
 1.6600	31.6300
 1.6610	31.6180
 1.6620	31.6060
 1.6630	31.5930
 1.6640	31.5820
 1.6650	31.5710
 1.6660	31.5620
 1.6670	31.5530
 1.6680	31.5450
 1.6690	31.5360
 1.6700	31.5270
 1.6710	31.5170
 1.6720	31.5080
 1.6730	31.4990
 1.6740	31.4880
 1.6750	31.4760
 1.6760	31.4630
 1.6770	31.4460
 1.6780	31.4260
 1.6790	31.4050
 1.6800	31.3820
 1.6810	31.3550
 1.6820	31.3280
 1.6830	31.2980
 1.6840	31.2650
 1.6850	31.2310
 1.6860	31.1960
 1.6870	31.1570
 1.6880	31.1170
 1.6890	31.0740
 1.6900	31.0320
 1.6910	30.9880
 1.6920	30.9440
 1.6930	30.8990
 1.6940	30.8550
 1.6950	30.8100
 1.6960	30.7670
 1.6970	30.7270
 1.6980	30.6850
 1.6990	30.6420
 1.7000	30.5990
 1.7010	30.5540
 1.7020	30.5090
 1.7030	30.4660
 1.7040	30.4210
 1.7050	30.3760
 1.7060	30.3290
 1.7070	30.2810
 1.7080	30.2300
 1.7090	30.1780
 1.7100	30.1260
 1.7110	30.0740
 1.7120	30.0250
 1.7130	29.9740
 1.7140	29.9240
 1.7150	29.8750
 1.7160	29.8250
 1.7170	29.7770
 1.7180	29.7290
 1.7190	29.6800
 1.7200	29.6330
 1.7210	29.5870
 1.7220	29.5430
 1.7230	29.5000
 1.7240	29.4580
 1.7250	29.4150
 1.7260	29.3730
 1.7270	29.3320
 1.7280	29.2920
 1.7290	29.2520
 1.7300	29.2130
 1.7310	29.1730
 1.7320	29.1330
 1.7330	29.0920
 1.7340	29.0510
 1.7350	29.0070
 1.7360	28.9630
 1.7370	28.9180
 1.7380	28.8720
 1.7390	28.8240
 1.7400	28.7760
 1.7410	28.7260
 1.7420	28.6740
 1.7430	28.6220
 1.7440	28.5680
 1.7450	28.5130
 1.7460	28.4590
 1.7470	28.4030
 1.7480	28.3450
 1.7490	28.2880
 1.7500	28.2310
 1.7510	28.1730
 1.7520	28.1160
 1.7530	28.0590
 1.7540	28.0000
 1.7550	27.9420
 1.7560	27.8840
 1.7570	27.8280
 1.7580	27.7720
 1.7590	27.7160
 1.7600	27.6620
 1.7610	27.6060
 1.7620	27.5530
 1.7630	27.5030
 1.7640	27.4540
 1.7650	27.4080
 1.7660	27.3630
 1.7670	27.3200
 1.7680	27.2760
 1.7690	27.2330
 1.7700	27.1910
 1.7710	27.1500
 1.7720	27.1110
 1.7730	27.0760
 1.7740	27.0390
 1.7750	27.0020
 1.7760	26.9680
 1.7770	26.9350
 1.7780	26.9040
 1.7790	26.8740
 1.7800	26.8470
 1.7810	26.8210
 1.7820	26.7980
 1.7830	26.7780
 1.7840	26.7580
 1.7850	26.7380
 1.7860	26.7210
 1.7870	26.7070
 1.7880	26.6920
 1.7890	26.6790
 1.7900	26.6660
 1.7910	26.6560
 1.7920	26.6520
 1.7930	26.6480
 1.7940	26.6470
 1.7950	26.6460
 1.7960	26.6470
 1.7970	26.6480
 1.7980	26.6490
 1.7990	26.6520
 1.8000	26.6560
 1.8010	26.6600
 1.8020	26.6660
 1.8030	26.6710
 1.8040	26.6770
 1.8050	26.6830
 1.8060	26.6890
 1.8070	26.6950
 1.8080	26.7020
 1.8090	26.7080
 1.8100	26.7140
 1.8110	26.7200
 1.8120	26.7250
 1.8130	26.7300
 1.8140	26.7350
 1.8150	26.7360
 1.8160	26.7380
 1.8170	26.7400
 1.8180	26.7410
 1.8190	26.7470
 1.8200	26.7500
 1.8210	26.7530
 1.8220	26.7550
 1.8230	26.7560
 1.8240	26.7540
 1.8250	26.7520
 1.8260	26.7480
 1.8270	26.7400
 1.8280	26.7330
 1.8290	26.7270
 1.8300	26.7150
 1.8310	26.6830
 1.8320	26.6610
 1.8330	26.6370
 1.8340	26.6100
 1.8350	26.5780
 1.8360	26.5440
 1.8370	26.5080
 1.8380	26.4670
 1.8390	26.4200
 1.8400	26.3700
 1.8410	26.3120
 1.8420	26.2480
 1.8430	26.1780
 1.8440	26.1040
 1.8450	26.0250
 1.8460	25.9360
 1.8470	25.8370
 1.8480	25.7270
 1.8490	25.6080
 1.8500	25.4790
 1.8510	25.3420
 1.8520	25.1950
 1.8530	25.0380
 1.8540	24.8670
 1.8550	24.6830
 1.8560	24.4910
 1.8570	24.2850
 1.8580	24.0630
 1.8590	23.8310
 1.8600	23.5870
 1.8610	23.3290
 1.8620	23.0560
 1.8630	22.7760
 1.8640	22.4790
 1.8650	22.1620
 1.8660	21.8340
 1.8670	21.4840
 1.8680	21.1200
 1.8690	20.7440
 1.8700	20.3540
 1.8710	19.9500
 1.8720	19.5400
 1.8730	19.1210
 1.8740	18.6920
 1.8750	18.2620
 1.8760	17.8260
 1.8770	17.3900
 1.8780	16.9590
 1.8790	16.5300
 1.8800	16.1140
 1.8810	15.7060
 1.8820	15.3050
 1.8830	14.9100
 1.8840	14.5310
 1.8850	14.1570
 1.8860	13.7970
 1.8870	13.4560
 1.8880	13.1280
 1.8890	12.8190
 1.8900	12.5280
 1.8910	12.2560
 1.8920	11.9990
 1.8930	11.7650
 1.8940	11.5490
 1.8950	11.3530
 1.8960	11.1770
 1.8970	11.0160
 1.8980	10.8710
 1.8990	10.7420
 1.9000	10.6250
 1.9010	10.5240
 1.9020	10.4310
 1.9030	10.3500
 1.9040	10.2790
 1.9050	10.2170
 1.9060	10.1650
 1.9070	10.1210
 1.9080	10.0830
 1.9090	10.0500
 1.9100	10.0220
 1.9110	 9.9970
 1.9120	 9.9770
 1.9130	 9.9580
 1.9140	 9.9420
 1.9150	 9.9290
 1.9160	 9.9180
 1.9170	 9.9080
 1.9180	 9.9020
 1.9190	 9.8960
 1.9200	 9.8920
 1.9210	 9.8900
 1.9220	 9.8880
 1.9230	 9.8860
 1.9240	 9.8850
 1.9250	 9.8860
 1.9260	 9.8880
 1.9270	 9.8920
 1.9280	 9.8980
 1.9290	 9.9040
 1.9300	 9.9080
 1.9310	 9.9130
 1.9320	 9.9180
 1.9330	 9.9240
 1.9340	 9.9340
 1.9350	 9.9420
 1.9360	 9.9500
 1.9370	 9.9600
 1.9380	 9.9690
 1.9390	 9.9810
 1.9400	 9.9940
 1.9410	10.0060
 1.9420	10.0180
 1.9430	10.0290
 1.9440	10.0420
 1.9450	10.0550
 1.9460	10.0690
 1.9470	10.0860
 1.9480	10.1020
 1.9490	10.1190
 1.9500	10.1350
 1.9510	10.1510
 1.9520	10.1690
 1.9530	10.1840
 1.9540	10.2010
 1.9550	10.2190
 1.9560	10.2370
 1.9570	10.2570
 1.9580	10.2800
 1.9590	10.3020
 1.9600	10.3250
 1.9610	10.3480
 1.9620	10.3710
 1.9630	10.3930
 1.9640	10.4190
 1.9650	10.4450
 1.9660	10.4730
 1.9670	10.5020
 1.9680	10.5290
 1.9690	10.5540
 1.9700	10.5830
 1.9710	10.6130
 1.9720	10.6440
 1.9730	10.6770
 1.9740	10.7100
 1.9750	10.7420
 1.9760	10.7750
 1.9770	10.8100
 1.9780	10.8470
 1.9790	10.8840
 1.9800	10.9200
 1.9810	10.9570
 1.9820	10.9950
 1.9830	11.0340
 1.9840	11.0740
 1.9850	11.1120
 1.9860	11.1500
 1.9870	11.1890
 1.9880	11.2280
 1.9890	11.2680
 1.9900	11.3100
 1.9910	11.3520
 1.9920	11.3940
 1.9930	11.4380
 1.9940	11.4800
 1.9950	11.5230
 1.9960	11.5660
 1.9970	11.6070
 1.9980	11.6500
 1.9990	11.6950
 2.0000	11.7400
 2.0010	11.7880
 2.0020	11.8360
 2.0030	11.8830
 2.0040	11.9300
 2.0050	11.9760
 2.0060	12.0200
 2.0070	12.0660
 2.0080	12.1130
 2.0090	12.1580
 2.0100	12.2010
 2.0110	12.2450
 2.0120	12.2880
 2.0130	12.3300
 2.0140	12.3740
 2.0150	12.4200
 2.0160	12.4650
 2.0170	12.5100
 2.0180	12.5540
 2.0190	12.5980
 2.0200	12.6420
 2.0210	12.6830
 2.0220	12.7270
 2.0230	12.7720
 2.0240	12.8140
 2.0250	12.8560
 2.0260	12.8960
 2.0270	12.9340
 2.0280	12.9720
 2.0290	13.0090
 2.0300	13.0450
 2.0310	13.0790
 2.0320	13.1120
 2.0330	13.1440
 2.0340	13.1750
 2.0350	13.2060
 2.0360	13.2360
 2.0370	13.2660
 2.0380	13.2970
 2.0390	13.3260
 2.0400	13.3540
 2.0410	13.3820
 2.0420	13.4100
 2.0430	13.4370
 2.0440	13.4630
 2.0450	13.4880
 2.0460	13.5140
 2.0470	13.5390
 2.0480	13.5640
 2.0490	13.5890
 2.0500	13.6150
 2.0510	13.6390
 2.0520	13.6660
 2.0530	13.6970
 2.0540	13.7240
 2.0550	13.7520
 2.0560	13.7790
 2.0570	13.8030
 2.0580	13.8270
 2.0590	13.8540
 2.0600	13.8830
 2.0610	13.9100
 2.0620	13.9390
 2.0630	13.9680
 2.0640	13.9960
 2.0650	14.0250
 2.0660	14.0570
 2.0670	14.0860
 2.0680	14.1150
 2.0690	14.1440
 2.0700	14.1740
 2.0710	14.2020
 2.0720	14.2300
 2.0730	14.2590
 2.0740	14.2860
 2.0750	14.3120
 2.0760	14.3390
 2.0770	14.3660
 2.0780	14.3930
 2.0790	14.4200
 2.0800	14.4470
 2.0810	14.4710
 2.0820	14.4980
 2.0830	14.5250
 2.0840	14.5530
 2.0850	14.5840
 2.0860	14.6120
 2.0870	14.6390
 2.0880	14.6650
 2.0890	14.6910
 2.0900	14.7160
 2.0910	14.7420
 2.0920	14.7720
 2.0930	14.7970
 2.0940	14.8210
 2.0950	14.8460
 2.0960	14.8680
 2.0970	14.8930
 2.0980	14.9210
 2.0990	14.9470
 2.1000	14.9740
 2.1010	15.0010
 2.1020	15.0290
 2.1030	15.0560
 2.1040	15.0840
 2.1050	15.1090
 2.1060	15.1340
 2.1070	15.1600
 2.1080	15.1850
 2.1090	15.2110
 2.1100	15.2370
 2.1110	15.2610
 2.1120	15.2870
 2.1130	15.3150
 2.1140	15.3400
 2.1150	15.3630
 2.1160	15.3880
 2.1170	15.4110
 2.1180	15.4340
 2.1190	15.4570
 2.1200	15.4810
 2.1210	15.5030
 2.1220	15.5260
 2.1230	15.5480
 2.1240	15.5720
 2.1250	15.5950
 2.1260	15.6160
 2.1270	15.6360
 2.1280	15.6560
 2.1290	15.6770
 2.1300	15.7000
 2.1310	15.7190
 2.1320	15.7370
 2.1330	15.7560
 2.1340	15.7710
 2.1350	15.7900
 2.1360	15.8140
 2.1370	15.8340
 2.1380	15.8520
 2.1390	15.8710
 2.1400	15.8890
 2.1410	15.9060
 2.1420	15.9250
 2.1430	15.9450
 2.1440	15.9650
 2.1450	15.9850
 2.1460	16.0060
 2.1470	16.0280
 2.1480	16.0470
 2.1490	16.0660
 2.1500	16.0840
 2.1510	16.1010
 2.1520	16.1190
 2.1530	16.1400
 2.1540	16.1580
 2.1550	16.1780
 2.1560	16.1940
 2.1570	16.2070
 2.1580	16.2210
 2.1590	16.2330
 2.1600	16.2440
 2.1610	16.2590
 2.1620	16.2740
 2.1630	16.2890
 2.1640	16.3060
 2.1650	16.3220
 2.1660	16.3380
 2.1670	16.3530
 2.1680	16.3690
 2.1690	16.3850
 2.1700	16.4000
 2.1710	16.4160
 2.1720	16.4320
 2.1730	16.4480
 2.1740	16.4650
 2.1750	16.4810
 2.1760	16.4970
 2.1770	16.5160
 2.1780	16.5360
 2.1790	16.5550
 2.1800	16.5750
 2.1810	16.5950
 2.1820	16.6140
 2.1830	16.6330
 2.1840	16.6540
 2.1850	16.6780
 2.1860	16.6990
 2.1870	16.7210
 2.1880	16.7410
 2.1890	16.7580
 2.1900	16.7790
 2.1910	16.8000
 2.1920	16.8240
 2.1930	16.8510
 2.1940	16.8760
 2.1950	16.9010
 2.1960	16.9240
 2.1970	16.9450
 2.1980	16.9660
 2.1990	16.9850
 2.2000	17.0030
 2.2010	17.0190
 2.2020	17.0370
 2.2030	17.0550
 2.2040	17.0740
 2.2050	17.0940
 2.2060	17.1140
 2.2070	17.1290
 2.2080	17.1430
 2.2090	17.1580
 2.2100	17.1690
 2.2110	17.1820
 2.2120	17.1950
 2.2130	17.2060
 2.2140	17.2160
 2.2150	17.2250
 2.2160	17.2350
 2.2170	17.2420
 2.2180	17.2470
 2.2190	17.2500
 2.2200	17.2520
 2.2210	17.2520
 2.2220	17.2490
 2.2230	17.2470
 2.2240	17.2460
 2.2250	17.2420
 2.2260	17.2400
 2.2270	17.2320
 2.2280	17.2190
 2.2290	17.2040
 2.2300	17.1850
 2.2310	17.1630
 2.2320	17.1380
 2.2330	17.1100
 2.2340	17.0810
 2.2350	17.0490
 2.2360	17.0180
 2.2370	16.9870
 2.2380	16.9520
 2.2390	16.9160
 2.2400	16.8760
 2.2410	16.8280
 2.2420	16.7850
 2.2430	16.7400
 2.2440	16.6940
 2.2450	16.6500
 2.2460	16.6010
 2.2470	16.5440
 2.2480	16.4940
 2.2490	16.4450
 2.2500	16.3960
 2.2510	16.3510
 2.2520	16.3030
 2.2530	16.2520
 2.2540	16.2010
 2.2550	16.1460
 2.2560	16.0940
 2.2570	16.0440
 2.2580	15.9940
 2.2590	15.9470
 2.2600	15.9000
 2.2610	15.8540
 2.2620	15.8070
 2.2630	15.7620
 2.2640	15.7190
 2.2650	15.6770
 2.2660	15.6380
 2.2670	15.5950
 2.2680	15.5530
 2.2690	15.5110
 2.2700	15.4650
 2.2710	15.4300
 2.2720	15.4000
 2.2730	15.3680
 2.2740	15.3430
 2.2750	15.3150
 2.2760	15.2850
 2.2770	15.2560
 2.2780	15.2300
 2.2790	15.2030
 2.2800	15.1760
 2.2810	15.1480
 2.2820	15.1200
 2.2830	15.0940
 2.2840	15.0700
 2.2850	15.0450
 2.2860	15.0240
 2.2870	15.0000
 2.2880	14.9760
 2.2890	14.9510
 2.2900	14.9280
 2.2910	14.9010
 2.2920	14.8710
 2.2930	14.8400
 2.2940	14.8030
 2.2950	14.7700
 2.2960	14.7360
 2.2970	14.7040
 2.2980	14.6760
 2.2990	14.6450
 2.3000	14.6160
 2.3010	14.5900
 2.3020	14.5610
 2.3030	14.5340
 2.3040	14.5080
 2.3050	14.4790
 2.3060	14.4500
 2.3070	14.4210
 2.3080	14.3950
 2.3090	14.3730
 2.3100	14.3560
 2.3110	14.3400
 2.3120	14.3210
 2.3130	14.3020
 2.3140	14.2810
 2.3150	14.2560
 2.3160	14.2360
 2.3170	14.2170
 2.3180	14.1990
 2.3190	14.1850
 2.3200	14.1670
 2.3210	14.1450
 2.3220	14.1250
 2.3230	14.1040
 2.3240	14.0830
 2.3250	14.0630
 2.3260	14.0420
 2.3270	14.0200
 2.3280	13.9980
 2.3290	13.9770
 2.3300	13.9530
 2.3310	13.9250
 2.3320	13.9000
 2.3330	13.8770
 2.3340	13.8520
 2.3350	13.8280
 2.3360	13.8000
 2.3370	13.7650
 2.3380	13.7360
 2.3390	13.7070
 2.3400	13.6820
 2.3410	13.6620
 2.3420	13.6410
 2.3430	13.6250
 2.3440	13.6040
 2.3450	13.5810
 2.3460	13.5600
 2.3470	13.5380
 2.3480	13.5170
 2.3490	13.4990
 2.3500	13.4790
 2.3510	13.4560
 2.3520	13.4380
 2.3530	13.4230
 2.3540	13.4090
 2.3550	13.3960
 2.3560	13.3840
 2.3570	13.3620
 2.3580	13.3410
 2.3590	13.3210
 2.3600	13.3000
 2.3610	13.2840
 2.3620	13.2660
 2.3630	13.2490
 2.3640	13.2260
 2.3650	13.2020
 2.3660	13.1840
 2.3670	13.1640
 2.3680	13.1460
 2.3690	13.1270
 2.3700	13.1020
 2.3710	13.0810
 2.3720	13.0610
 2.3730	13.0450
 2.3740	13.0240
 2.3750	12.9990
 2.3760	12.9740
 2.3770	12.9430
 2.3780	12.9230
 2.3790	12.9070
 2.3800	12.8900
 2.3810	12.8750
 2.3820	12.8560
 2.3830	12.8340
 2.3840	12.8120
 2.3850	12.7880
 2.3860	12.7630
 2.3870	12.7350
 2.3880	12.7090
 2.3890	12.6840
 2.3900	12.6670
 2.3910	12.6500
 2.3920	12.6210
 2.3930	12.5910
 2.3940	12.5680
 2.3950	12.5410
 2.3960	12.5230
 2.3970	12.5050
 2.3980	12.4710
 2.3990	12.4460
 2.4000	12.4240
 2.4010	12.3970
 2.4020	12.3750
 2.4030	12.3490
 2.4040	12.3200
 2.4050	12.3000
 2.4060	12.2840
 2.4070	12.2640
 2.4080	12.2440
 2.4090	12.2240
 2.4100	12.2000
 2.4110	12.1740
 2.4120	12.1530
 2.4130	12.1380
 2.4140	12.1140
 2.4150	12.0860
 2.4160	12.0580
 2.4170	12.0180
 2.4180	11.9850
 2.4190	11.9670
 2.4200	11.9470
 2.4210	11.9280
 2.4220	11.9110
 2.4230	11.8900
 2.4240	11.8700
 2.4250	11.8510
 2.4260	11.8280
 2.4270	11.7960
 2.4280	11.7650
 2.4290	11.7390
 2.4300	11.7160
 2.4310	11.6940
 2.4320	11.6740
 2.4330	11.6530
 2.4340	11.6280
 2.4350	11.5980
 2.4360	11.5820
 2.4370	11.5660
 2.4380	11.5480
 2.4390	11.5350
 2.4400	11.5050
 2.4410	11.4740
 2.4420	11.4440
 2.4430	11.4210
 2.4440	11.4140
 2.4450	11.3900
 2.4460	11.3620
 2.4470	11.3390
 2.4480	11.3130
 2.4490	11.3050
 2.4500	11.2900
 2.4510	11.2630
 2.4520	11.2380
 2.4530	11.2090
 2.4540	11.1960
 2.4550	11.1990
 2.4560	11.1870
 2.4570	11.1630
 2.4580	11.1400
 2.4590	11.1260
 2.4600	11.1220
 2.4610	11.1220
 2.4620	11.1190
 2.4630	11.0990
 2.4640	11.0750
 2.4650	11.0620
 2.4660	11.0480
 2.4670	11.0380
 2.4680	11.0270
 2.4690	11.0270
 2.4700	11.0210
 2.4710	11.0120
 2.4720	11.0030
 2.4730	10.9920
 2.4740	10.9720
 2.4750	10.9530
 2.4760	10.9360
 2.4770	10.8990
 2.4780	10.8800
 2.4790	10.8700
 2.4800	10.8680
 2.4810	10.8880
 2.4820	10.8810
 2.4830	10.8650
 2.4840	10.8360
 2.4850	10.8370
 2.4860	10.8580
 2.4870	10.8610
 2.4880	10.8460
 2.4890	10.8280
 2.4900	10.8290
 2.4910	10.8380
 2.4920	10.8300
 2.4930	10.8390
 2.4940	10.8270
 2.4950	10.8060
 2.4960	10.8490
 2.4970	10.8700
 2.4980	10.8720
 2.4990	10.8670
 2.5000	10.8380
