Name: Quercus rubra
Type: Vegetation
Class: Tree
Genus: Quercus
Species: rubra
Sample No.: QURU-2-7
Owner: UCSB
Wavelength Range: VSWIR
Origin: USA; Massachusetts; Harvard Forest
Collection Date: 7/8/2013
Description: Samples were collected as part of NSF Macrosystem Biology proposal titled: Collaborative Research: Thermal controls on ecosystem metabolism and function: scaling from leaves to canopies to regions. Samples were collected and overnighted to JPL facilities for processing. The same leaves were processed in the Nicolet and then measured using the ASD.
Measurement: Bidirectional reflectance
First Column: X
Second Column: Y
X Units: Wavelength (micrometers)
Y Units: Reflectance (percentage)
First X Value: 0.35
Last X Value: 2.5
Number of X Values: 2151
Additional Information: vegetation.tree.quercus.rubra.vswir.quru-2-7.ucsb.asd.ancillary.txt

 0.3500	 4.6220
 0.3510	 4.6060
 0.3520	 4.7620
 0.3530	 4.8320
 0.3540	 4.6390
 0.3550	 4.5430
 0.3560	 4.4960
 0.3570	 4.4480
 0.3580	 4.3780
 0.3590	 4.4910
 0.3600	 4.5740
 0.3610	 4.5220
 0.3620	 4.4300
 0.3630	 4.4220
 0.3640	 4.5050
 0.3650	 4.6240
 0.3660	 4.6760
 0.3670	 4.6110
 0.3680	 4.4990
 0.3690	 4.4760
 0.3700	 4.4690
 0.3710	 4.5280
 0.3720	 4.6210
 0.3730	 4.5300
 0.3740	 4.5600
 0.3750	 4.5950
 0.3760	 4.4830
 0.3770	 4.5790
 0.3780	 4.5980
 0.3790	 4.5080
 0.3800	 4.5120
 0.3810	 4.5460
 0.3820	 4.5550
 0.3830	 4.5170
 0.3840	 4.4800
 0.3850	 4.5920
 0.3860	 4.6800
 0.3870	 4.5430
 0.3880	 4.5460
 0.3890	 4.5880
 0.3900	 4.6000
 0.3910	 4.5760
 0.3920	 4.5940
 0.3930	 4.6440
 0.3940	 4.6890
 0.3950	 4.6800
 0.3960	 4.6580
 0.3970	 4.6570
 0.3980	 4.6900
 0.3990	 4.6790
 0.4000	 4.6750
 0.4010	 4.7000
 0.4020	 4.7270
 0.4030	 4.7750
 0.4040	 4.7730
 0.4050	 4.6930
 0.4060	 4.7170
 0.4070	 4.7690
 0.4080	 4.7990
 0.4090	 4.7900
 0.4100	 4.7810
 0.4110	 4.7710
 0.4120	 4.7650
 0.4130	 4.7810
 0.4140	 4.8280
 0.4150	 4.8660
 0.4160	 4.8620
 0.4170	 4.8960
 0.4180	 4.8950
 0.4190	 4.8670
 0.4200	 4.8950
 0.4210	 4.9220
 0.4220	 4.9280
 0.4230	 4.9200
 0.4240	 4.9450
 0.4250	 4.9640
 0.4260	 4.9620
 0.4270	 4.9440
 0.4280	 4.9470
 0.4290	 4.9690
 0.4300	 4.9900
 0.4310	 4.9730
 0.4320	 4.9730
 0.4330	 4.9870
 0.4340	 5.0000
 0.4350	 5.0080
 0.4360	 5.0180
 0.4370	 5.0230
 0.4380	 5.0100
 0.4390	 5.0010
 0.4400	 5.0030
 0.4410	 5.0110
 0.4420	 5.0040
 0.4430	 5.0220
 0.4440	 5.0400
 0.4450	 5.0210
 0.4460	 5.0330
 0.4470	 5.0480
 0.4480	 5.0590
 0.4490	 5.0910
 0.4500	 5.1280
 0.4510	 5.1430
 0.4520	 5.1250
 0.4530	 5.1260
 0.4540	 5.1380
 0.4550	 5.1490
 0.4560	 5.1460
 0.4570	 5.1510
 0.4580	 5.1520
 0.4590	 5.1490
 0.4600	 5.1650
 0.4610	 5.1780
 0.4620	 5.1800
 0.4630	 5.1740
 0.4640	 5.1840
 0.4650	 5.1850
 0.4660	 5.1770
 0.4670	 5.1960
 0.4680	 5.1910
 0.4690	 5.1760
 0.4700	 5.1740
 0.4710	 5.1840
 0.4720	 5.1910
 0.4730	 5.1940
 0.4740	 5.2000
 0.4750	 5.2040
 0.4760	 5.2160
 0.4770	 5.2290
 0.4780	 5.2170
 0.4790	 5.2220
 0.4800	 5.2340
 0.4810	 5.2320
 0.4820	 5.2310
 0.4830	 5.2430
 0.4840	 5.2610
 0.4850	 5.2560
 0.4860	 5.2600
 0.4870	 5.2750
 0.4880	 5.2940
 0.4890	 5.3110
 0.4900	 5.3250
 0.4910	 5.3420
 0.4920	 5.3640
 0.4930	 5.3740
 0.4940	 5.3970
 0.4950	 5.4350
 0.4960	 5.4600
 0.4970	 5.4900
 0.4980	 5.5300
 0.4990	 5.5780
 0.5000	 5.6180
 0.5010	 5.6660
 0.5020	 5.7200
 0.5030	 5.7720
 0.5040	 5.8370
 0.5050	 5.9110
 0.5060	 5.9910
 0.5070	 6.0760
 0.5080	 6.1740
 0.5090	 6.2860
 0.5100	 6.4050
 0.5110	 6.5290
 0.5120	 6.6680
 0.5130	 6.8220
 0.5140	 6.9840
 0.5150	 7.1570
 0.5160	 7.3430
 0.5170	 7.5460
 0.5180	 7.7480
 0.5190	 7.9540
 0.5200	 8.1700
 0.5210	 8.3990
 0.5220	 8.6290
 0.5230	 8.8480
 0.5240	 9.0550
 0.5250	 9.2710
 0.5260	 9.4690
 0.5270	 9.6490
 0.5280	 9.8190
 0.5290	 9.9770
 0.5300	10.1240
 0.5310	10.2570
 0.5320	10.3670
 0.5330	10.4630
 0.5340	10.5500
 0.5350	10.6310
 0.5360	10.7010
 0.5370	10.7580
 0.5380	10.8080
 0.5390	10.8600
 0.5400	10.9020
 0.5410	10.9410
 0.5420	10.9800
 0.5430	11.0140
 0.5440	11.0590
 0.5450	11.1080
 0.5460	11.1420
 0.5470	11.1540
 0.5480	11.1580
 0.5490	11.1640
 0.5500	11.1800
 0.5510	11.1930
 0.5520	11.1970
 0.5530	11.1870
 0.5540	11.1610
 0.5550	11.1270
 0.5560	11.0810
 0.5570	11.0150
 0.5580	10.9450
 0.5590	10.8640
 0.5600	10.7690
 0.5610	10.6610
 0.5620	10.5510
 0.5630	10.4350
 0.5640	10.3070
 0.5650	10.1780
 0.5660	10.0420
 0.5670	 9.8980
 0.5680	 9.7560
 0.5690	 9.6090
 0.5700	 9.4610
 0.5710	 9.3190
 0.5720	 9.1830
 0.5730	 9.0580
 0.5740	 8.9420
 0.5750	 8.8310
 0.5760	 8.7360
 0.5770	 8.6460
 0.5780	 8.5560
 0.5790	 8.4710
 0.5800	 8.3900
 0.5810	 8.3140
 0.5820	 8.2440
 0.5830	 8.1760
 0.5840	 8.1100
 0.5850	 8.0500
 0.5860	 8.0030
 0.5870	 7.9550
 0.5880	 7.9070
 0.5890	 7.8630
 0.5900	 7.8210
 0.5910	 7.7850
 0.5920	 7.7570
 0.5930	 7.7340
 0.5940	 7.7120
 0.5950	 7.6860
 0.5960	 7.6580
 0.5970	 7.6350
 0.5980	 7.6120
 0.5990	 7.5910
 0.6000	 7.5690
 0.6010	 7.5430
 0.6020	 7.5120
 0.6030	 7.4800
 0.6040	 7.4490
 0.6050	 7.4100
 0.6060	 7.3680
 0.6070	 7.3250
 0.6080	 7.2770
 0.6090	 7.2300
 0.6100	 7.1820
 0.6110	 7.1320
 0.6120	 7.0850
 0.6130	 7.0310
 0.6140	 6.9710
 0.6150	 6.9220
 0.6160	 6.8790
 0.6170	 6.8400
 0.6180	 6.8040
 0.6190	 6.7710
 0.6200	 6.7370
 0.6210	 6.7050
 0.6220	 6.6810
 0.6230	 6.6620
 0.6240	 6.6480
 0.6250	 6.6360
 0.6260	 6.6170
 0.6270	 6.6080
 0.6280	 6.6070
 0.6290	 6.6000
 0.6300	 6.5910
 0.6310	 6.5830
 0.6320	 6.5740
 0.6330	 6.5600
 0.6340	 6.5460
 0.6350	 6.5240
 0.6360	 6.4890
 0.6370	 6.4540
 0.6380	 6.4130
 0.6390	 6.3670
 0.6400	 6.3170
 0.6410	 6.2640
 0.6420	 6.2120
 0.6430	 6.1620
 0.6440	 6.1090
 0.6450	 6.0570
 0.6460	 6.0090
 0.6470	 5.9700
 0.6480	 5.9330
 0.6490	 5.8970
 0.6500	 5.8630
 0.6510	 5.8400
 0.6520	 5.8230
 0.6530	 5.8020
 0.6540	 5.7790
 0.6550	 5.7640
 0.6560	 5.7420
 0.6570	 5.7160
 0.6580	 5.6930
 0.6590	 5.6650
 0.6600	 5.6390
 0.6610	 5.6120
 0.6620	 5.5720
 0.6630	 5.5460
 0.6640	 5.5270
 0.6650	 5.5080
 0.6660	 5.4900
 0.6670	 5.4770
 0.6680	 5.4710
 0.6690	 5.4710
 0.6700	 5.4710
 0.6710	 5.4770
 0.6720	 5.4920
 0.6730	 5.5140
 0.6740	 5.5330
 0.6750	 5.5550
 0.6760	 5.5880
 0.6770	 5.6200
 0.6780	 5.6530
 0.6790	 5.6940
 0.6800	 5.7480
 0.6810	 5.8010
 0.6820	 5.8560
 0.6830	 5.9200
 0.6840	 5.9960
 0.6850	 6.0750
 0.6860	 6.1660
 0.6870	 6.2750
 0.6880	 6.3970
 0.6890	 6.5430
 0.6900	 6.7180
 0.6910	 6.9210
 0.6920	 7.1740
 0.6930	 7.4780
 0.6940	 7.8350
 0.6950	 8.2600
 0.6960	 8.7470
 0.6970	 9.2970
 0.6980	 9.9110
 0.6990	10.5790
 0.7000	11.3020
 0.7010	12.0710
 0.7020	12.8660
 0.7030	13.6890
 0.7040	14.5350
 0.7050	15.3950
 0.7060	16.2610
 0.7070	17.1280
 0.7080	17.9960
 0.7090	18.8690
 0.7100	19.7330
 0.7110	20.5940
 0.7120	21.4510
 0.7130	22.2960
 0.7140	23.1430
 0.7150	23.9860
 0.7160	24.8120
 0.7170	25.6240
 0.7180	26.4220
 0.7190	27.2110
 0.7200	27.9870
 0.7210	28.7380
 0.7220	29.4730
 0.7230	30.1910
 0.7240	30.8850
 0.7250	31.5500
 0.7260	32.1910
 0.7270	32.8130
 0.7280	33.4070
 0.7290	33.9770
 0.7300	34.5210
 0.7310	35.0340
 0.7320	35.5270
 0.7330	35.9960
 0.7340	36.4330
 0.7350	36.8310
 0.7360	37.2200
 0.7370	37.5930
 0.7380	37.9430
 0.7390	38.2670
 0.7400	38.5660
 0.7410	38.8410
 0.7420	39.0960
 0.7430	39.3260
 0.7440	39.5420
 0.7450	39.7490
 0.7460	39.9430
 0.7470	40.1010
 0.7480	40.2440
 0.7490	40.3860
 0.7500	40.5100
 0.7510	40.6250
 0.7520	40.7250
 0.7530	40.8050
 0.7540	40.8790
 0.7550	40.9450
 0.7560	41.0070
 0.7570	41.0700
 0.7580	41.1180
 0.7590	41.1580
 0.7600	41.1970
 0.7610	41.2360
 0.7620	41.2660
 0.7630	41.2890
 0.7640	41.3120
 0.7650	41.3240
 0.7660	41.3420
 0.7670	41.3640
 0.7680	41.3770
 0.7690	41.3820
 0.7700	41.3870
 0.7710	41.3980
 0.7720	41.4140
 0.7730	41.4100
 0.7740	41.4030
 0.7750	41.4080
 0.7760	41.4230
 0.7770	41.4250
 0.7780	41.4210
 0.7790	41.4270
 0.7800	41.4280
 0.7810	41.4290
 0.7820	41.4350
 0.7830	41.4480
 0.7840	41.4530
 0.7850	41.4600
 0.7860	41.4700
 0.7870	41.4720
 0.7880	41.4710
 0.7890	41.4730
 0.7900	41.4780
 0.7910	41.4770
 0.7920	41.4810
 0.7930	41.4880
 0.7940	41.4880
 0.7950	41.4990
 0.7960	41.5070
 0.7970	41.5040
 0.7980	41.5010
 0.7990	41.4910
 0.8000	41.4890
 0.8010	41.5020
 0.8020	41.5040
 0.8030	41.5040
 0.8040	41.5000
 0.8050	41.4900
 0.8060	41.5010
 0.8070	41.5030
 0.8080	41.4920
 0.8090	41.4920
 0.8100	41.4930
 0.8110	41.4890
 0.8120	41.4820
 0.8130	41.4840
 0.8140	41.4860
 0.8150	41.4840
 0.8160	41.4760
 0.8170	41.4650
 0.8180	41.4630
 0.8190	41.4670
 0.8200	41.4650
 0.8210	41.4590
 0.8220	41.4590
 0.8230	41.4600
 0.8240	41.4450
 0.8250	41.4370
 0.8260	41.4360
 0.8270	41.4370
 0.8280	41.4340
 0.8290	41.4440
 0.8300	41.4420
 0.8310	41.4140
 0.8320	41.4150
 0.8330	41.4290
 0.8340	41.4360
 0.8350	41.4190
 0.8360	41.4110
 0.8370	41.4130
 0.8380	41.4150
 0.8390	41.4030
 0.8400	41.4020
 0.8410	41.4030
 0.8420	41.4040
 0.8430	41.4140
 0.8440	41.4170
 0.8450	41.4170
 0.8460	41.4200
 0.8470	41.4230
 0.8480	41.3990
 0.8490	41.3810
 0.8500	41.3990
 0.8510	41.4070
 0.8520	41.4070
 0.8530	41.4060
 0.8540	41.4130
 0.8550	41.4180
 0.8560	41.4180
 0.8570	41.4200
 0.8580	41.4370
 0.8590	41.4460
 0.8600	41.4430
 0.8610	41.4340
 0.8620	41.4370
 0.8630	41.4410
 0.8640	41.4520
 0.8650	41.4650
 0.8660	41.4540
 0.8670	41.4500
 0.8680	41.4530
 0.8690	41.4540
 0.8700	41.4540
 0.8710	41.4570
 0.8720	41.4570
 0.8730	41.4520
 0.8740	41.4730
 0.8750	41.4910
 0.8760	41.4910
 0.8770	41.4830
 0.8780	41.4830
 0.8790	41.4890
 0.8800	41.4980
 0.8810	41.5010
 0.8820	41.5030
 0.8830	41.5060
 0.8840	41.5090
 0.8850	41.5030
 0.8860	41.5050
 0.8870	41.5120
 0.8880	41.5180
 0.8890	41.5220
 0.8900	41.5290
 0.8910	41.5350
 0.8920	41.5300
 0.8930	41.5310
 0.8940	41.5320
 0.8950	41.5330
 0.8960	41.5360
 0.8970	41.5440
 0.8980	41.5580
 0.8990	41.5700
 0.9000	41.5690
 0.9010	41.5620
 0.9020	41.5660
 0.9030	41.5780
 0.9040	41.5790
 0.9050	41.5750
 0.9060	41.5800
 0.9070	41.5950
 0.9080	41.5990
 0.9090	41.5900
 0.9100	41.5920
 0.9110	41.6130
 0.9120	41.5950
 0.9130	41.5960
 0.9140	41.6020
 0.9150	41.5910
 0.9160	41.6100
 0.9170	41.6210
 0.9180	41.6200
 0.9190	41.6190
 0.9200	41.6030
 0.9210	41.5950
 0.9220	41.6000
 0.9230	41.6060
 0.9240	41.5990
 0.9250	41.6000
 0.9260	41.6080
 0.9270	41.6040
 0.9280	41.5980
 0.9290	41.5820
 0.9300	41.5660
 0.9310	41.5730
 0.9320	41.5730
 0.9330	41.5750
 0.9340	41.5790
 0.9350	41.5650
 0.9360	41.5480
 0.9370	41.5510
 0.9380	41.5580
 0.9390	41.5120
 0.9400	41.4980
 0.9410	41.5050
 0.9420	41.5050
 0.9430	41.4690
 0.9440	41.4480
 0.9450	41.4400
 0.9460	41.4320
 0.9470	41.4040
 0.9480	41.3770
 0.9490	41.3580
 0.9500	41.3440
 0.9510	41.3360
 0.9520	41.3240
 0.9530	41.2970
 0.9540	41.2540
 0.9550	41.2220
 0.9560	41.1950
 0.9570	41.1700
 0.9580	41.1480
 0.9590	41.1320
 0.9600	41.1200
 0.9610	41.1020
 0.9620	41.0730
 0.9630	41.0700
 0.9640	41.0660
 0.9650	41.0580
 0.9660	41.0500
 0.9670	41.0370
 0.9680	41.0200
 0.9690	41.0050
 0.9700	40.9980
 0.9710	40.9950
 0.9720	40.9860
 0.9730	40.9750
 0.9740	40.9750
 0.9750	40.9790
 0.9760	40.9870
 0.9770	40.9930
 0.9780	40.9920
 0.9790	40.9790
 0.9800	40.9610
 0.9810	40.9560
 0.9820	40.9730
 0.9830	40.9610
 0.9840	40.9620
 0.9850	40.9750
 0.9860	40.9840
 0.9870	40.9960
 0.9880	40.9950
 0.9890	40.9860
 0.9900	40.9870
 0.9910	41.0180
 0.9920	41.0510
 0.9930	41.0840
 0.9940	41.1170
 0.9950	41.1500
 0.9960	41.1830
 0.9970	41.2160
 0.9980	41.2490
 0.9990	41.2820
 1.0000	41.3150
 1.0010	41.3480
 1.0020	41.3810
 1.0030	41.4140
 1.0040	41.4470
 1.0050	41.4800
 1.0060	41.5130
 1.0070	41.5460
 1.0080	41.5790
 1.0090	41.6120
 1.0100	41.6120
 1.0110	41.6140
 1.0120	41.6220
 1.0130	41.6420
 1.0140	41.6490
 1.0150	41.6500
 1.0160	41.6510
 1.0170	41.6530
 1.0180	41.6480
 1.0190	41.6540
 1.0200	41.6630
 1.0210	41.6640
 1.0220	41.6660
 1.0230	41.6690
 1.0240	41.6690
 1.0250	41.6750
 1.0260	41.6850
 1.0270	41.6910
 1.0280	41.6980
 1.0290	41.7040
 1.0300	41.7040
 1.0310	41.7100
 1.0320	41.7210
 1.0330	41.7290
 1.0340	41.7380
 1.0350	41.7480
 1.0360	41.7490
 1.0370	41.7570
 1.0380	41.7650
 1.0390	41.7740
 1.0400	41.7800
 1.0410	41.7900
 1.0420	41.7930
 1.0430	41.7870
 1.0440	41.7870
 1.0450	41.7870
 1.0460	41.7890
 1.0470	41.7950
 1.0480	41.8010
 1.0490	41.8110
 1.0500	41.8160
 1.0510	41.8170
 1.0520	41.8240
 1.0530	41.8240
 1.0540	41.8180
 1.0550	41.8220
 1.0560	41.8330
 1.0570	41.8360
 1.0580	41.8410
 1.0590	41.8450
 1.0600	41.8430
 1.0610	41.8450
 1.0620	41.8540
 1.0630	41.8560
 1.0640	41.8520
 1.0650	41.8520
 1.0660	41.8520
 1.0670	41.8530
 1.0680	41.8560
 1.0690	41.8640
 1.0700	41.8640
 1.0710	41.8610
 1.0720	41.8600
 1.0730	41.8580
 1.0740	41.8570
 1.0750	41.8600
 1.0760	41.8600
 1.0770	41.8550
 1.0780	41.8530
 1.0790	41.8510
 1.0800	41.8490
 1.0810	41.8480
 1.0820	41.8450
 1.0830	41.8380
 1.0840	41.8350
 1.0850	41.8320
 1.0860	41.8290
 1.0870	41.8270
 1.0880	41.8270
 1.0890	41.8240
 1.0900	41.8210
 1.0910	41.8180
 1.0920	41.8160
 1.0930	41.8130
 1.0940	41.8100
 1.0950	41.8060
 1.0960	41.8000
 1.0970	41.7940
 1.0980	41.7860
 1.0990	41.7790
 1.1000	41.7720
 1.1010	41.7640
 1.1020	41.7550
 1.1030	41.7480
 1.1040	41.7390
 1.1050	41.7270
 1.1060	41.7190
 1.1070	41.7140
 1.1080	41.7060
 1.1090	41.7000
 1.1100	41.6910
 1.1110	41.6800
 1.1120	41.6690
 1.1130	41.6580
 1.1140	41.6460
 1.1150	41.6340
 1.1160	41.6220
 1.1170	41.6090
 1.1180	41.5970
 1.1190	41.5860
 1.1200	41.5720
 1.1210	41.5570
 1.1220	41.5380
 1.1230	41.5180
 1.1240	41.4950
 1.1250	41.4720
 1.1260	41.4500
 1.1270	41.4250
 1.1280	41.3970
 1.1290	41.3690
 1.1300	41.3420
 1.1310	41.3100
 1.1320	41.2780
 1.1330	41.2390
 1.1340	41.1960
 1.1350	41.1500
 1.1360	41.0980
 1.1370	41.0440
 1.1380	40.9900
 1.1390	40.9330
 1.1400	40.8720
 1.1410	40.8120
 1.1420	40.7530
 1.1430	40.6890
 1.1440	40.6260
 1.1450	40.5650
 1.1460	40.5030
 1.1470	40.4370
 1.1480	40.3780
 1.1490	40.3200
 1.1500	40.2690
 1.1510	40.2220
 1.1520	40.1770
 1.1530	40.1350
 1.1540	40.0950
 1.1550	40.0560
 1.1560	40.0220
 1.1570	39.9930
 1.1580	39.9690
 1.1590	39.9470
 1.1600	39.9250
 1.1610	39.9030
 1.1620	39.8820
 1.1630	39.8650
 1.1640	39.8530
 1.1650	39.8430
 1.1660	39.8380
 1.1670	39.8310
 1.1680	39.8250
 1.1690	39.8170
 1.1700	39.8090
 1.1710	39.8000
 1.1720	39.7890
 1.1730	39.7820
 1.1740	39.7790
 1.1750	39.7710
 1.1760	39.7670
 1.1770	39.7660
 1.1780	39.7590
 1.1790	39.7540
 1.1800	39.7500
 1.1810	39.7420
 1.1820	39.7390
 1.1830	39.7330
 1.1840	39.7220
 1.1850	39.7150
 1.1860	39.7060
 1.1870	39.6980
 1.1880	39.6910
 1.1890	39.6880
 1.1900	39.6830
 1.1910	39.6770
 1.1920	39.6730
 1.1930	39.6690
 1.1940	39.6670
 1.1950	39.6690
 1.1960	39.6670
 1.1970	39.6630
 1.1980	39.6620
 1.1990	39.6620
 1.2000	39.6640
 1.2010	39.6680
 1.2020	39.6710
 1.2030	39.6710
 1.2040	39.6690
 1.2050	39.6680
 1.2060	39.6700
 1.2070	39.6730
 1.2080	39.6790
 1.2090	39.6890
 1.2100	39.6990
 1.2110	39.7070
 1.2120	39.7130
 1.2130	39.7220
 1.2140	39.7300
 1.2150	39.7390
 1.2160	39.7510
 1.2170	39.7620
 1.2180	39.7670
 1.2190	39.7740
 1.2200	39.7840
 1.2210	39.7970
 1.2220	39.8130
 1.2230	39.8300
 1.2240	39.8450
 1.2250	39.8560
 1.2260	39.8680
 1.2270	39.8800
 1.2280	39.8870
 1.2290	39.8970
 1.2300	39.9060
 1.2310	39.9140
 1.2320	39.9260
 1.2330	39.9360
 1.2340	39.9440
 1.2350	39.9540
 1.2360	39.9620
 1.2370	39.9670
 1.2380	39.9750
 1.2390	39.9850
 1.2400	39.9910
 1.2410	39.9980
 1.2420	40.0030
 1.2430	40.0070
 1.2440	40.0120
 1.2450	40.0150
 1.2460	40.0200
 1.2470	40.0260
 1.2480	40.0330
 1.2490	40.0420
 1.2500	40.0480
 1.2510	40.0550
 1.2520	40.0620
 1.2530	40.0630
 1.2540	40.0670
 1.2550	40.0670
 1.2560	40.0670
 1.2570	40.0680
 1.2580	40.0670
 1.2590	40.0690
 1.2600	40.0740
 1.2610	40.0740
 1.2620	40.0740
 1.2630	40.0760
 1.2640	40.0730
 1.2650	40.0670
 1.2660	40.0630
 1.2670	40.0640
 1.2680	40.0630
 1.2690	40.0590
 1.2700	40.0590
 1.2710	40.0540
 1.2720	40.0480
 1.2730	40.0460
 1.2740	40.0420
 1.2750	40.0340
 1.2760	40.0290
 1.2770	40.0240
 1.2780	40.0150
 1.2790	40.0070
 1.2800	39.9990
 1.2810	39.9880
 1.2820	39.9800
 1.2830	39.9730
 1.2840	39.9680
 1.2850	39.9630
 1.2860	39.9510
 1.2870	39.9390
 1.2880	39.9270
 1.2890	39.9160
 1.2900	39.9010
 1.2910	39.8910
 1.2920	39.8820
 1.2930	39.8640
 1.2940	39.8450
 1.2950	39.8260
 1.2960	39.8060
 1.2970	39.7870
 1.2980	39.7670
 1.2990	39.7470
 1.3000	39.7250
 1.3010	39.6990
 1.3020	39.6720
 1.3030	39.6420
 1.3040	39.6130
 1.3050	39.5830
 1.3060	39.5570
 1.3070	39.5320
 1.3080	39.5000
 1.3090	39.4640
 1.3100	39.4190
 1.3110	39.3700
 1.3120	39.3270
 1.3130	39.2890
 1.3140	39.2460
 1.3150	39.2060
 1.3160	39.1600
 1.3170	39.1100
 1.3180	39.0540
 1.3190	39.0000
 1.3200	38.9430
 1.3210	38.8820
 1.3220	38.8240
 1.3230	38.7640
 1.3240	38.7000
 1.3250	38.6360
 1.3260	38.5700
 1.3270	38.5030
 1.3280	38.4400
 1.3290	38.3760
 1.3300	38.3120
 1.3310	38.2480
 1.3320	38.1820
 1.3330	38.1150
 1.3340	38.0470
 1.3350	37.9720
 1.3360	37.8960
 1.3370	37.8190
 1.3380	37.7390
 1.3390	37.6640
 1.3400	37.5880
 1.3410	37.5110
 1.3420	37.4340
 1.3430	37.3570
 1.3440	37.2810
 1.3450	37.2020
 1.3460	37.1220
 1.3470	37.0420
 1.3480	36.9590
 1.3490	36.8780
 1.3500	36.7990
 1.3510	36.7210
 1.3520	36.6420
 1.3530	36.5600
 1.3540	36.4760
 1.3550	36.3930
 1.3560	36.3120
 1.3570	36.2320
 1.3580	36.1530
 1.3590	36.0740
 1.3600	35.9930
 1.3610	35.9100
 1.3620	35.8250
 1.3630	35.7410
 1.3640	35.6560
 1.3650	35.5670
 1.3660	35.4760
 1.3670	35.3830
 1.3680	35.2800
 1.3690	35.1710
 1.3700	35.0560
 1.3710	34.9300
 1.3720	34.7940
 1.3730	34.6460
 1.3740	34.4870
 1.3750	34.3170
 1.3760	34.1330
 1.3770	33.9330
 1.3780	33.7130
 1.3790	33.4780
 1.3800	33.2290
 1.3810	32.9610
 1.3820	32.6800
 1.3830	32.3870
 1.3840	32.0810
 1.3850	31.7620
 1.3860	31.4300
 1.3870	31.0830
 1.3880	30.7280
 1.3890	30.3590
 1.3900	29.9810
 1.3910	29.5990
 1.3920	29.2050
 1.3930	28.8010
 1.3940	28.3930
 1.3950	27.9810
 1.3960	27.5700
 1.3970	27.1600
 1.3980	26.7570
 1.3990	26.3660
 1.4000	25.9800
 1.4010	25.6040
 1.4020	25.2380
 1.4030	24.8790
 1.4040	24.5370
 1.4050	24.2100
 1.4060	23.8950
 1.4070	23.5980
 1.4080	23.3130
 1.4090	23.0410
 1.4100	22.7870
 1.4110	22.5490
 1.4120	22.3250
 1.4130	22.1170
 1.4140	21.9220
 1.4150	21.7440
 1.4160	21.5790
 1.4170	21.4260
 1.4180	21.2890
 1.4190	21.1630
 1.4200	21.0480
 1.4210	20.9440
 1.4220	20.8470
 1.4230	20.7590
 1.4240	20.6790
 1.4250	20.6070
 1.4260	20.5420
 1.4270	20.4840
 1.4280	20.4310
 1.4290	20.3860
 1.4300	20.3490
 1.4310	20.3170
 1.4320	20.2940
 1.4330	20.2730
 1.4340	20.2570
 1.4350	20.2440
 1.4360	20.2350
 1.4370	20.2290
 1.4380	20.2250
 1.4390	20.2260
 1.4400	20.2290
 1.4410	20.2360
 1.4420	20.2470
 1.4430	20.2610
 1.4440	20.2730
 1.4450	20.2870
 1.4460	20.3030
 1.4470	20.3200
 1.4480	20.3390
 1.4490	20.3590
 1.4500	20.3790
 1.4510	20.4000
 1.4520	20.4240
 1.4530	20.4480
 1.4540	20.4730
 1.4550	20.5020
 1.4560	20.5330
 1.4570	20.5680
 1.4580	20.6070
 1.4590	20.6480
 1.4600	20.6920
 1.4610	20.7400
 1.4620	20.7920
 1.4630	20.8470
 1.4640	20.9050
 1.4650	20.9680
 1.4660	21.0340
 1.4670	21.1040
 1.4680	21.1790
 1.4690	21.2570
 1.4700	21.3400
 1.4710	21.4260
 1.4720	21.5130
 1.4730	21.6070
 1.4740	21.7030
 1.4750	21.8010
 1.4760	21.9040
 1.4770	22.0060
 1.4780	22.1110
 1.4790	22.2180
 1.4800	22.3260
 1.4810	22.4380
 1.4820	22.5510
 1.4830	22.6620
 1.4840	22.7720
 1.4850	22.8810
 1.4860	22.9890
 1.4870	23.0990
 1.4880	23.2120
 1.4890	23.3240
 1.4900	23.4340
 1.4910	23.5420
 1.4920	23.6510
 1.4930	23.7590
 1.4940	23.8670
 1.4950	23.9780
 1.4960	24.0880
 1.4970	24.1970
 1.4980	24.3050
 1.4990	24.4130
 1.5000	24.5210
 1.5010	24.6300
 1.5020	24.7370
 1.5030	24.8450
 1.5040	24.9510
 1.5050	25.0530
 1.5060	25.1580
 1.5070	25.2640
 1.5080	25.3680
 1.5090	25.4720
 1.5100	25.5750
 1.5110	25.6750
 1.5120	25.7750
 1.5130	25.8730
 1.5140	25.9700
 1.5150	26.0650
 1.5160	26.1590
 1.5170	26.2550
 1.5180	26.3490
 1.5190	26.4420
 1.5200	26.5360
 1.5210	26.6270
 1.5220	26.7180
 1.5230	26.8120
 1.5240	26.9030
 1.5250	26.9910
 1.5260	27.0790
 1.5270	27.1630
 1.5280	27.2450
 1.5290	27.3270
 1.5300	27.4070
 1.5310	27.4880
 1.5320	27.5690
 1.5330	27.6500
 1.5340	27.7290
 1.5350	27.8070
 1.5360	27.8820
 1.5370	27.9540
 1.5380	28.0250
 1.5390	28.0980
 1.5400	28.1710
 1.5410	28.2460
 1.5420	28.3190
 1.5430	28.3910
 1.5440	28.4630
 1.5450	28.5330
 1.5460	28.6040
 1.5470	28.6750
 1.5480	28.7430
 1.5490	28.8110
 1.5500	28.8780
 1.5510	28.9420
 1.5520	29.0050
 1.5530	29.0680
 1.5540	29.1270
 1.5550	29.1860
 1.5560	29.2450
 1.5570	29.3020
 1.5580	29.3610
 1.5590	29.4200
 1.5600	29.4760
 1.5610	29.5320
 1.5620	29.5860
 1.5630	29.6390
 1.5640	29.6910
 1.5650	29.7450
 1.5660	29.7980
 1.5670	29.8500
 1.5680	29.9050
 1.5690	29.9600
 1.5700	30.0110
 1.5710	30.0590
 1.5720	30.1080
 1.5730	30.1540
 1.5740	30.2010
 1.5750	30.2500
 1.5760	30.2980
 1.5770	30.3460
 1.5780	30.3920
 1.5790	30.4350
 1.5800	30.4780
 1.5810	30.5220
 1.5820	30.5680
 1.5830	30.6130
 1.5840	30.6560
 1.5850	30.6990
 1.5860	30.7410
 1.5870	30.7840
 1.5880	30.8270
 1.5890	30.8680
 1.5900	30.9050
 1.5910	30.9420
 1.5920	30.9810
 1.5930	31.0200
 1.5940	31.0560
 1.5950	31.0930
 1.5960	31.1300
 1.5970	31.1660
 1.5980	31.2060
 1.5990	31.2470
 1.6000	31.2850
 1.6010	31.3200
 1.6020	31.3560
 1.6030	31.3920
 1.6040	31.4280
 1.6050	31.4670
 1.6060	31.5030
 1.6070	31.5370
 1.6080	31.5710
 1.6090	31.6030
 1.6100	31.6360
 1.6110	31.6680
 1.6120	31.7000
 1.6130	31.7300
 1.6140	31.7580
 1.6150	31.7830
 1.6160	31.8080
 1.6170	31.8310
 1.6180	31.8550
 1.6190	31.8800
 1.6200	31.9050
 1.6210	31.9300
 1.6220	31.9550
 1.6230	31.9800
 1.6240	32.0060
 1.6250	32.0320
 1.6260	32.0570
 1.6270	32.0810
 1.6280	32.1060
 1.6290	32.1300
 1.6300	32.1540
 1.6310	32.1780
 1.6320	32.2010
 1.6330	32.2200
 1.6340	32.2360
 1.6350	32.2520
 1.6360	32.2640
 1.6370	32.2790
 1.6380	32.2980
 1.6390	32.3130
 1.6400	32.3280
 1.6410	32.3390
 1.6420	32.3450
 1.6430	32.3530
 1.6440	32.3600
 1.6450	32.3680
 1.6460	32.3740
 1.6470	32.3740
 1.6480	32.3760
 1.6490	32.3790
 1.6500	32.3790
 1.6510	32.3800
 1.6520	32.3800
 1.6530	32.3760
 1.6540	32.3710
 1.6550	32.3670
 1.6560	32.3610
 1.6570	32.3560
 1.6580	32.3530
 1.6590	32.3460
 1.6600	32.3380
 1.6610	32.3340
 1.6620	32.3260
 1.6630	32.3160
 1.6640	32.3110
 1.6650	32.3020
 1.6660	32.2940
 1.6670	32.2910
 1.6680	32.2810
 1.6690	32.2700
 1.6700	32.2600
 1.6710	32.2500
 1.6720	32.2400
 1.6730	32.2310
 1.6740	32.2210
 1.6750	32.2050
 1.6760	32.1920
 1.6770	32.1810
 1.6780	32.1690
 1.6790	32.1610
 1.6800	32.1530
 1.6810	32.1450
 1.6820	32.1340
 1.6830	32.1170
 1.6840	32.1000
 1.6850	32.0780
 1.6860	32.0530
 1.6870	32.0320
 1.6880	32.0070
 1.6890	31.9740
 1.6900	31.9440
 1.6910	31.9090
 1.6920	31.8790
 1.6930	31.8510
 1.6940	31.8240
 1.6950	31.8010
 1.6960	31.7730
 1.6970	31.7440
 1.6980	31.7150
 1.6990	31.6810
 1.7000	31.6470
 1.7010	31.6140
 1.7020	31.5780
 1.7030	31.5370
 1.7040	31.4990
 1.7050	31.4600
 1.7060	31.4220
 1.7070	31.3860
 1.7080	31.3480
 1.7090	31.3100
 1.7100	31.2700
 1.7110	31.2300
 1.7120	31.1890
 1.7130	31.1500
 1.7140	31.1080
 1.7150	31.0680
 1.7160	31.0320
 1.7170	30.9930
 1.7180	30.9570
 1.7190	30.9190
 1.7200	30.8780
 1.7210	30.8400
 1.7220	30.8040
 1.7230	30.7680
 1.7240	30.7350
 1.7250	30.7000
 1.7260	30.6640
 1.7270	30.6350
 1.7280	30.6060
 1.7290	30.5730
 1.7300	30.5450
 1.7310	30.5180
 1.7320	30.4920
 1.7330	30.4690
 1.7340	30.4500
 1.7350	30.4280
 1.7360	30.4090
 1.7370	30.3880
 1.7380	30.3640
 1.7390	30.3410
 1.7400	30.3190
 1.7410	30.2950
 1.7420	30.2720
 1.7430	30.2430
 1.7440	30.2080
 1.7450	30.1740
 1.7460	30.1360
 1.7470	30.0990
 1.7480	30.0640
 1.7490	30.0240
 1.7500	29.9800
 1.7510	29.9370
 1.7520	29.8910
 1.7530	29.8460
 1.7540	29.8010
 1.7550	29.7550
 1.7560	29.7080
 1.7570	29.6630
 1.7580	29.6220
 1.7590	29.5790
 1.7600	29.5390
 1.7610	29.4960
 1.7620	29.4530
 1.7630	29.4060
 1.7640	29.3650
 1.7650	29.3240
 1.7660	29.2880
 1.7670	29.2600
 1.7680	29.2310
 1.7690	29.2070
 1.7700	29.1830
 1.7710	29.1610
 1.7720	29.1390
 1.7730	29.1190
 1.7740	29.0960
 1.7750	29.0700
 1.7760	29.0440
 1.7770	29.0150
 1.7780	28.9920
 1.7790	28.9690
 1.7800	28.9510
 1.7810	28.9380
 1.7820	28.9210
 1.7830	28.9040
 1.7840	28.8880
 1.7850	28.8700
 1.7860	28.8560
 1.7870	28.8470
 1.7880	28.8350
 1.7890	28.8200
 1.7900	28.8080
 1.7910	28.7940
 1.7920	28.7790
 1.7930	28.7690
 1.7940	28.7610
 1.7950	28.7530
 1.7960	28.7540
 1.7970	28.7500
 1.7980	28.7410
 1.7990	28.7350
 1.8000	28.7250
 1.8010	28.7230
 1.8020	28.7260
 1.8030	28.7250
 1.8040	28.7250
 1.8050	28.7260
 1.8060	28.7260
 1.8070	28.7240
 1.8080	28.7240
 1.8090	28.7220
 1.8100	28.7150
 1.8110	28.7160
 1.8120	28.7150
 1.8130	28.7130
 1.8140	28.7100
 1.8150	28.7040
 1.8160	28.6950
 1.8170	28.6830
 1.8180	28.6730
 1.8190	28.6630
 1.8200	28.6550
 1.8210	28.6480
 1.8220	28.6400
 1.8230	28.6330
 1.8240	28.6240
 1.8250	28.6160
 1.8260	28.6040
 1.8270	28.5820
 1.8280	28.5590
 1.8290	28.5370
 1.8300	28.5140
 1.8310	28.4920
 1.8320	28.4690
 1.8330	28.4470
 1.8340	28.4250
 1.8350	28.4250
 1.8360	28.3900
 1.8370	28.3500
 1.8380	28.3160
 1.8390	28.2770
 1.8400	28.2390
 1.8410	28.1910
 1.8420	28.1410
 1.8430	28.0760
 1.8440	28.0060
 1.8450	27.9310
 1.8460	27.8570
 1.8470	27.7780
 1.8480	27.6830
 1.8490	27.5850
 1.8500	27.4800
 1.8510	27.3670
 1.8520	27.2410
 1.8530	27.1100
 1.8540	26.9770
 1.8550	26.8310
 1.8560	26.6730
 1.8570	26.5060
 1.8580	26.3250
 1.8590	26.1320
 1.8600	25.9240
 1.8610	25.7060
 1.8620	25.4750
 1.8630	25.2320
 1.8640	24.9670
 1.8650	24.6780
 1.8660	24.3720
 1.8670	24.0440
 1.8680	23.7030
 1.8690	23.3510
 1.8700	22.9760
 1.8710	22.5850
 1.8720	22.1820
 1.8730	21.7610
 1.8740	21.3220
 1.8750	20.8780
 1.8760	20.4220
 1.8770	19.9540
 1.8780	19.4800
 1.8790	18.9930
 1.8800	18.5070
 1.8810	18.0160
 1.8820	17.5170
 1.8830	17.0100
 1.8840	16.5030
 1.8850	15.9850
 1.8860	15.4710
 1.8870	14.9730
 1.8880	14.4750
 1.8890	13.9960
 1.8900	13.5340
 1.8910	13.0840
 1.8920	12.6420
 1.8930	12.2280
 1.8940	11.8340
 1.8950	11.4580
 1.8960	11.1080
 1.8970	10.7790
 1.8980	10.4730
 1.8990	10.1890
 1.9000	 9.9250
 1.9010	 9.6840
 1.9020	 9.4620
 1.9030	 9.2630
 1.9040	 9.0800
 1.9050	 8.9170
 1.9060	 8.7700
 1.9070	 8.6370
 1.9080	 8.5200
 1.9090	 8.4130
 1.9100	 8.3170
 1.9110	 8.2320
 1.9120	 8.1590
 1.9130	 8.0960
 1.9140	 8.0460
 1.9150	 8.0040
 1.9160	 7.9670
 1.9170	 7.9330
 1.9180	 7.9030
 1.9190	 7.8760
 1.9200	 7.8540
 1.9210	 7.8340
 1.9220	 7.8220
 1.9230	 7.8150
 1.9240	 7.8140
 1.9250	 7.8210
 1.9260	 7.8310
 1.9270	 7.8380
 1.9280	 7.8460
 1.9290	 7.8620
 1.9300	 7.8820
 1.9310	 7.9060
 1.9320	 7.9400
 1.9330	 7.9700
 1.9340	 7.9980
 1.9350	 8.0300
 1.9360	 8.0650
 1.9370	 8.1000
 1.9380	 8.1350
 1.9390	 8.1760
 1.9400	 8.2180
 1.9410	 8.2610
 1.9420	 8.3080
 1.9430	 8.3560
 1.9440	 8.4050
 1.9450	 8.4550
 1.9460	 8.5070
 1.9470	 8.5580
 1.9480	 8.6140
 1.9490	 8.6720
 1.9500	 8.7330
 1.9510	 8.7970
 1.9520	 8.8580
 1.9530	 8.9190
 1.9540	 8.9830
 1.9550	 9.0480
 1.9560	 9.1150
 1.9570	 9.1820
 1.9580	 9.2500
 1.9590	 9.3150
 1.9600	 9.3750
 1.9610	 9.4420
 1.9620	 9.5100
 1.9630	 9.5810
 1.9640	 9.6550
 1.9650	 9.7340
 1.9660	 9.8100
 1.9670	 9.8850
 1.9680	 9.9630
 1.9690	10.0420
 1.9700	10.1240
 1.9710	10.2120
 1.9720	10.2960
 1.9730	10.3810
 1.9740	10.4660
 1.9750	10.5490
 1.9760	10.6290
 1.9770	10.7120
 1.9780	10.7940
 1.9790	10.8780
 1.9800	10.9590
 1.9810	11.0480
 1.9820	11.1460
 1.9830	11.2380
 1.9840	11.3360
 1.9850	11.4260
 1.9860	11.5110
 1.9870	11.5920
 1.9880	11.6790
 1.9890	11.7670
 1.9900	11.8570
 1.9910	11.9470
 1.9920	12.0350
 1.9930	12.1200
 1.9940	12.2080
 1.9950	12.2960
 1.9960	12.3870
 1.9970	12.4830
 1.9980	12.5730
 1.9990	12.6630
 2.0000	12.7500
 2.0010	12.8350
 2.0020	12.9190
 2.0030	13.0050
 2.0040	13.0940
 2.0050	13.1830
 2.0060	13.2750
 2.0070	13.3650
 2.0080	13.4580
 2.0090	13.5460
 2.0100	13.6310
 2.0110	13.7140
 2.0120	13.7930
 2.0130	13.8750
 2.0140	13.9590
 2.0150	14.0430
 2.0160	14.1300
 2.0170	14.2120
 2.0180	14.2890
 2.0190	14.3600
 2.0200	14.4340
 2.0210	14.5030
 2.0220	14.5750
 2.0230	14.6530
 2.0240	14.7260
 2.0250	14.7980
 2.0260	14.8670
 2.0270	14.9350
 2.0280	14.9980
 2.0290	15.0550
 2.0300	15.1150
 2.0310	15.1730
 2.0320	15.2270
 2.0330	15.2830
 2.0340	15.3390
 2.0350	15.3990
 2.0360	15.4630
 2.0370	15.5200
 2.0380	15.5750
 2.0390	15.6320
 2.0400	15.6830
 2.0410	15.7370
 2.0420	15.7970
 2.0430	15.8550
 2.0440	15.9070
 2.0450	15.9540
 2.0460	16.0000
 2.0470	16.0410
 2.0480	16.0860
 2.0490	16.1310
 2.0500	16.1760
 2.0510	16.2200
 2.0520	16.2680
 2.0530	16.3210
 2.0540	16.3710
 2.0550	16.4220
 2.0560	16.4720
 2.0570	16.5190
 2.0580	16.5650
 2.0590	16.6090
 2.0600	16.6510
 2.0610	16.7000
 2.0620	16.7480
 2.0630	16.7980
 2.0640	16.8560
 2.0650	16.9070
 2.0660	16.9550
 2.0670	17.0030
 2.0680	17.0510
 2.0690	17.0970
 2.0700	17.1380
 2.0710	17.1830
 2.0720	17.2280
 2.0730	17.2780
 2.0740	17.3260
 2.0750	17.3750
 2.0760	17.4250
 2.0770	17.4750
 2.0780	17.5230
 2.0790	17.5740
 2.0800	17.6200
 2.0810	17.6600
 2.0820	17.7040
 2.0830	17.7480
 2.0840	17.7930
 2.0850	17.8380
 2.0860	17.8840
 2.0870	17.9330
 2.0880	17.9800
 2.0890	18.0240
 2.0900	18.0680
 2.0910	18.1140
 2.0920	18.1580
 2.0930	18.2010
 2.0940	18.2460
 2.0950	18.2870
 2.0960	18.3250
 2.0970	18.3630
 2.0980	18.4020
 2.0990	18.4390
 2.1000	18.4710
 2.1010	18.5060
 2.1020	18.5410
 2.1030	18.5790
 2.1040	18.6250
 2.1050	18.6670
 2.1060	18.7090
 2.1070	18.7540
 2.1080	18.7950
 2.1090	18.8310
 2.1100	18.8700
 2.1110	18.9080
 2.1120	18.9460
 2.1130	18.9860
 2.1140	19.0210
 2.1150	19.0550
 2.1160	19.0880
 2.1170	19.1180
 2.1180	19.1480
 2.1190	19.1810
 2.1200	19.2100
 2.1210	19.2330
 2.1220	19.2580
 2.1230	19.2910
 2.1240	19.3270
 2.1250	19.3580
 2.1260	19.3970
 2.1270	19.4210
 2.1280	19.4280
 2.1290	19.4480
 2.1300	19.4660
 2.1310	19.4900
 2.1320	19.5270
 2.1330	19.5540
 2.1340	19.5780
 2.1350	19.6020
 2.1360	19.6210
 2.1370	19.6420
 2.1380	19.6680
 2.1390	19.6920
 2.1400	19.7140
 2.1410	19.7340
 2.1420	19.7580
 2.1430	19.7820
 2.1440	19.8080
 2.1450	19.8380
 2.1460	19.8640
 2.1470	19.8900
 2.1480	19.9120
 2.1490	19.9300
 2.1500	19.9480
 2.1510	19.9640
 2.1520	19.9790
 2.1530	19.9920
 2.1540	20.0060
 2.1550	20.0190
 2.1560	20.0320
 2.1570	20.0460
 2.1580	20.0590
 2.1590	20.0700
 2.1600	20.0840
 2.1610	20.0960
 2.1620	20.1070
 2.1630	20.1180
 2.1640	20.1260
 2.1650	20.1380
 2.1660	20.1490
 2.1670	20.1630
 2.1680	20.1840
 2.1690	20.1950
 2.1700	20.2000
 2.1710	20.2090
 2.1720	20.2140
 2.1730	20.2220
 2.1740	20.2360
 2.1750	20.2510
 2.1760	20.2640
 2.1770	20.2810
 2.1780	20.3040
 2.1790	20.3230
 2.1800	20.3420
 2.1810	20.3600
 2.1820	20.3730
 2.1830	20.3860
 2.1840	20.4060
 2.1850	20.4300
 2.1860	20.4500
 2.1870	20.4770
 2.1880	20.4960
 2.1890	20.5060
 2.1900	20.5230
 2.1910	20.5450
 2.1920	20.5600
 2.1930	20.5760
 2.1940	20.5890
 2.1950	20.5970
 2.1960	20.6070
 2.1970	20.6130
 2.1980	20.6250
 2.1990	20.6420
 2.2000	20.6580
 2.2010	20.6850
 2.2020	20.7010
 2.2030	20.7050
 2.2040	20.7170
 2.2050	20.7240
 2.2060	20.7370
 2.2070	20.7470
 2.2080	20.7630
 2.2090	20.7720
 2.2100	20.7720
 2.2110	20.7810
 2.2120	20.7940
 2.2130	20.8040
 2.2140	20.8190
 2.2150	20.8230
 2.2160	20.8190
 2.2170	20.8150
 2.2180	20.8010
 2.2190	20.7950
 2.2200	20.7930
 2.2210	20.7880
 2.2220	20.7880
 2.2230	20.7800
 2.2240	20.7610
 2.2250	20.7460
 2.2260	20.7220
 2.2270	20.7060
 2.2280	20.7000
 2.2290	20.6870
 2.2300	20.6780
 2.2310	20.6620
 2.2320	20.6420
 2.2330	20.6160
 2.2340	20.5820
 2.2350	20.5400
 2.2360	20.5010
 2.2370	20.4520
 2.2380	20.4100
 2.2390	20.3730
 2.2400	20.3310
 2.2410	20.2910
 2.2420	20.2400
 2.2430	20.1830
 2.2440	20.1270
 2.2450	20.0590
 2.2460	20.0020
 2.2470	19.9550
 2.2480	19.9000
 2.2490	19.8420
 2.2500	19.7870
 2.2510	19.7300
 2.2520	19.6770
 2.2530	19.6330
 2.2540	19.5820
 2.2550	19.5260
 2.2560	19.4750
 2.2570	19.4330
 2.2580	19.3790
 2.2590	19.3160
 2.2600	19.2630
 2.2610	19.2080
 2.2620	19.1530
 2.2630	19.1020
 2.2640	19.0560
 2.2650	19.0030
 2.2660	18.9490
 2.2670	18.9000
 2.2680	18.8650
 2.2690	18.8110
 2.2700	18.7480
 2.2710	18.6920
 2.2720	18.6300
 2.2730	18.5760
 2.2740	18.5300
 2.2750	18.4840
 2.2760	18.4400
 2.2770	18.3940
 2.2780	18.3530
 2.2790	18.3070
 2.2800	18.2560
 2.2810	18.2080
 2.2820	18.1550
 2.2830	18.1110
 2.2840	18.0730
 2.2850	18.0340
 2.2860	18.0090
 2.2870	17.9670
 2.2880	17.9160
 2.2890	17.8660
 2.2900	17.8070
 2.2910	17.7540
 2.2920	17.7040
 2.2930	17.6510
 2.2940	17.5970
 2.2950	17.5390
 2.2960	17.4760
 2.2970	17.4150
 2.2980	17.3510
 2.2990	17.2880
 2.3000	17.2390
 2.3010	17.1850
 2.3020	17.1280
 2.3030	17.0740
 2.3040	17.0120
 2.3050	16.9500
 2.3060	16.8980
 2.3070	16.8510
 2.3080	16.7970
 2.3090	16.7550
 2.3100	16.7250
 2.3110	16.6860
 2.3120	16.6620
 2.3130	16.6500
 2.3140	16.6430
 2.3150	16.6500
 2.3160	16.6400
 2.3170	16.6320
 2.3180	16.6140
 2.3190	16.5720
 2.3200	16.5530
 2.3210	16.5450
 2.3220	16.5250
 2.3230	16.5070
 2.3240	16.4860
 2.3250	16.4560
 2.3260	16.4280
 2.3270	16.4060
 2.3280	16.3710
 2.3290	16.3220
 2.3300	16.2840
 2.3310	16.2400
 2.3320	16.2070
 2.3330	16.1930
 2.3340	16.1560
 2.3350	16.1110
 2.3360	16.0620
 2.3370	15.9880
 2.3380	15.9360
 2.3390	15.8950
 2.3400	15.8510
 2.3410	15.8180
 2.3420	15.7750
 2.3430	15.7210
 2.3440	15.6730
 2.3450	15.6260
 2.3460	15.5780
 2.3470	15.5310
 2.3480	15.4880
 2.3490	15.4430
 2.3500	15.4020
 2.3510	15.3660
 2.3520	15.3330
 2.3530	15.3040
 2.3540	15.2740
 2.3550	15.2570
 2.3560	15.2330
 2.3570	15.1930
 2.3580	15.1650
 2.3590	15.1250
 2.3600	15.0780
 2.3610	15.0550
 2.3620	15.0180
 2.3630	14.9800
 2.3640	14.9640
 2.3650	14.9330
 2.3660	14.9070
 2.3670	14.8880
 2.3680	14.8390
 2.3690	14.7860
 2.3700	14.7430
 2.3710	14.6880
 2.3720	14.6460
 2.3730	14.6130
 2.3740	14.5570
 2.3750	14.4960
 2.3760	14.4510
 2.3770	14.4030
 2.3780	14.3540
 2.3790	14.3190
 2.3800	14.2770
 2.3810	14.2380
 2.3820	14.2140
 2.3830	14.1750
 2.3840	14.1260
 2.3850	14.0600
 2.3860	13.9830
 2.3870	13.9300
 2.3880	13.8820
 2.3890	13.8380
 2.3900	13.8050
 2.3910	13.7740
 2.3920	13.7300
 2.3930	13.6800
 2.3940	13.6300
 2.3950	13.5760
 2.3960	13.5240
 2.3970	13.4850
 2.3980	13.4570
 2.3990	13.4040
 2.4000	13.3450
 2.4010	13.2930
 2.4020	13.2270
 2.4030	13.1760
 2.4040	13.1400
 2.4050	13.0840
 2.4060	13.0270
 2.4070	12.9810
 2.4080	12.9240
 2.4090	12.8720
 2.4100	12.8230
 2.4110	12.7520
 2.4120	12.6820
 2.4130	12.5960
 2.4140	12.5350
 2.4150	12.5030
 2.4160	12.4620
 2.4170	12.4470
 2.4180	12.4230
 2.4190	12.3610
 2.4200	12.2810
 2.4210	12.2120
 2.4220	12.1380
 2.4230	12.0740
 2.4240	12.0230
 2.4250	11.9450
 2.4260	11.8860
 2.4270	11.8200
 2.4280	11.7510
 2.4290	11.7110
 2.4300	11.6350
 2.4310	11.5660
 2.4320	11.5110
 2.4330	11.4350
 2.4340	11.3950
 2.4350	11.3530
 2.4360	11.3110
 2.4370	11.2680
 2.4380	11.1900
 2.4390	11.1590
 2.4400	11.1070
 2.4410	11.0500
 2.4420	11.0080
 2.4430	10.9280
 2.4440	10.8670
 2.4450	10.7940
 2.4460	10.7540
 2.4470	10.7080
 2.4480	10.6340
 2.4490	10.6000
 2.4500	10.5480
 2.4510	10.4840
 2.4520	10.4290
 2.4530	10.3590
 2.4540	10.2830
 2.4550	10.2160
 2.4560	10.1420
 2.4570	10.0960
 2.4580	10.0630
 2.4590	10.0210
 2.4600	 9.9980
 2.4610	 9.9460
 2.4620	 9.8940
 2.4630	 9.8550
 2.4640	 9.7810
 2.4650	 9.7460
 2.4660	 9.7230
 2.4670	 9.6620
 2.4680	 9.6370
 2.4690	 9.5470
 2.4700	 9.4690
 2.4710	 9.3890
 2.4720	 9.3410
 2.4730	 9.3120
 2.4740	 9.3030
 2.4750	 9.3180
 2.4760	 9.3260
 2.4770	 9.3750
 2.4780	 9.3710
 2.4790	 9.3660
 2.4800	 9.3020
 2.4810	 9.1440
 2.4820	 9.0340
 2.4830	 8.9420
 2.4840	 8.9200
 2.4850	 8.8770
 2.4860	 8.8750
 2.4870	 8.8850
 2.4880	 8.8480
 2.4890	 8.8890
 2.4900	 8.9160
 2.4910	 8.9410
 2.4920	 9.0240
 2.4930	 9.0570
 2.4940	 9.0370
 2.4950	 8.9720
 2.4960	 8.8910
 2.4970	 8.7110
 2.4980	 8.5220
 2.4990	 8.5300
 2.5000	 8.5310
