Name: Cassia leptophylla
Type: vegetation
Class: Tree
Genus: Cassia
Species: leptophylla
Sample No.: JPL254
Owner: JPL
Wavelength Range: VSWIR
Origin: 34.13105; -118.11109; WGS84
Collection Date: 10/6/2016
Description: Samples were collected at the Huntington Garden in San Marino California as part of a JPL Subcontract studying HyTES imagery. Samples were taken to JPL and processed within 48 hours of collection. The same leaves were processed in the Nicolet and then measured using the ASD.
Measurement: Bidirectional reflectance
First Column: X
Second Column: Y
X Units: Wavelength (micrometer)
Y Units: Reflectance (percentage)
First X Value: 0.35
Last X Value: 2.5
Number of X Values: 2151
Additional Information: vegetation.tree.cassia.leptophylla.vswir.jpl254.jpl.asd.ancillary.txt

 0.3500	 6.3630
 0.3510	 6.2070
 0.3520	 6.0030
 0.3530	 5.9730
 0.3540	 6.1710
 0.3550	 6.1270
 0.3560	 6.0690
 0.3570	 6.0570
 0.3580	 6.0500
 0.3590	 6.0520
 0.3600	 6.0150
 0.3610	 5.9560
 0.3620	 5.9900
 0.3630	 5.9620
 0.3640	 5.9330
 0.3650	 5.9670
 0.3660	 5.9390
 0.3670	 5.8960
 0.3680	 5.8850
 0.3690	 5.9320
 0.3700	 5.9100
 0.3710	 5.8940
 0.3720	 5.9230
 0.3730	 5.9220
 0.3740	 5.8620
 0.3750	 5.8030
 0.3760	 5.8180
 0.3770	 5.8690
 0.3780	 5.8900
 0.3790	 5.8850
 0.3800	 5.9130
 0.3810	 5.8810
 0.3820	 5.8510
 0.3830	 5.8610
 0.3840	 5.8430
 0.3850	 5.7940
 0.3860	 5.7820
 0.3870	 5.8630
 0.3880	 5.8580
 0.3890	 5.8220
 0.3900	 5.7950
 0.3910	 5.7850
 0.3920	 5.7750
 0.3930	 5.7670
 0.3940	 5.7680
 0.3950	 5.7920
 0.3960	 5.8110
 0.3970	 5.8100
 0.3980	 5.7890
 0.3990	 5.7960
 0.4000	 5.7980
 0.4010	 5.7890
 0.4020	 5.8030
 0.4030	 5.8100
 0.4040	 5.8080
 0.4050	 5.8020
 0.4060	 5.8020
 0.4070	 5.8170
 0.4080	 5.8350
 0.4090	 5.8320
 0.4100	 5.8270
 0.4110	 5.8320
 0.4120	 5.8480
 0.4130	 5.8520
 0.4140	 5.8780
 0.4150	 5.9040
 0.4160	 5.9060
 0.4170	 5.9310
 0.4180	 5.9620
 0.4190	 5.9880
 0.4200	 6.0020
 0.4210	 6.0180
 0.4220	 6.0380
 0.4230	 6.0600
 0.4240	 6.0710
 0.4250	 6.0960
 0.4260	 6.1290
 0.4270	 6.1470
 0.4280	 6.1700
 0.4290	 6.1920
 0.4300	 6.2110
 0.4310	 6.2300
 0.4320	 6.2390
 0.4330	 6.2510
 0.4340	 6.2760
 0.4350	 6.2920
 0.4360	 6.3080
 0.4370	 6.3250
 0.4380	 6.3400
 0.4390	 6.3640
 0.4400	 6.3860
 0.4410	 6.4030
 0.4420	 6.4200
 0.4430	 6.4340
 0.4440	 6.4470
 0.4450	 6.4620
 0.4460	 6.4830
 0.4470	 6.5040
 0.4480	 6.5200
 0.4490	 6.5280
 0.4500	 6.5460
 0.4510	 6.5680
 0.4520	 6.5840
 0.4530	 6.5920
 0.4540	 6.6010
 0.4550	 6.6160
 0.4560	 6.6390
 0.4570	 6.6510
 0.4580	 6.6560
 0.4590	 6.6620
 0.4600	 6.6710
 0.4610	 6.6800
 0.4620	 6.6860
 0.4630	 6.6920
 0.4640	 6.7010
 0.4650	 6.7050
 0.4660	 6.7060
 0.4670	 6.7080
 0.4680	 6.7120
 0.4690	 6.7180
 0.4700	 6.7240
 0.4710	 6.7240
 0.4720	 6.7280
 0.4730	 6.7340
 0.4740	 6.7350
 0.4750	 6.7390
 0.4760	 6.7440
 0.4770	 6.7470
 0.4780	 6.7470
 0.4790	 6.7510
 0.4800	 6.7530
 0.4810	 6.7500
 0.4820	 6.7580
 0.4830	 6.7690
 0.4840	 6.7780
 0.4850	 6.7840
 0.4860	 6.7890
 0.4870	 6.7950
 0.4880	 6.8040
 0.4890	 6.8230
 0.4900	 6.8410
 0.4910	 6.8580
 0.4920	 6.8800
 0.4930	 6.8970
 0.4940	 6.9190
 0.4950	 6.9500
 0.4960	 6.9830
 0.4970	 7.0130
 0.4980	 7.0450
 0.4990	 7.0820
 0.5000	 7.1270
 0.5010	 7.1750
 0.5020	 7.2260
 0.5030	 7.2840
 0.5040	 7.3450
 0.5050	 7.4110
 0.5060	 7.4840
 0.5070	 7.5690
 0.5080	 7.6610
 0.5090	 7.7590
 0.5100	 7.8640
 0.5110	 7.9800
 0.5120	 8.1080
 0.5130	 8.2440
 0.5140	 8.3900
 0.5150	 8.5480
 0.5160	 8.7180
 0.5170	 8.8970
 0.5180	 9.0800
 0.5190	 9.2740
 0.5200	 9.4770
 0.5210	 9.6890
 0.5220	 9.8950
 0.5230	10.1020
 0.5240	10.3100
 0.5250	10.5160
 0.5260	10.7180
 0.5270	10.9120
 0.5280	11.0960
 0.5290	11.2700
 0.5300	11.4340
 0.5310	11.5880
 0.5320	11.7350
 0.5330	11.8720
 0.5340	11.9980
 0.5350	12.1110
 0.5360	12.2150
 0.5370	12.3100
 0.5380	12.3960
 0.5390	12.4760
 0.5400	12.5530
 0.5410	12.6290
 0.5420	12.7030
 0.5430	12.7670
 0.5440	12.8210
 0.5450	12.8670
 0.5460	12.9070
 0.5470	12.9390
 0.5480	12.9680
 0.5490	12.9990
 0.5500	13.0270
 0.5510	13.0460
 0.5520	13.0540
 0.5530	13.0490
 0.5540	13.0320
 0.5550	12.9970
 0.5560	12.9470
 0.5570	12.8880
 0.5580	12.8160
 0.5590	12.7380
 0.5600	12.6550
 0.5610	12.5610
 0.5620	12.4620
 0.5630	12.3590
 0.5640	12.2520
 0.5650	12.1460
 0.5660	12.0410
 0.5670	11.9350
 0.5680	11.8210
 0.5690	11.6960
 0.5700	11.5650
 0.5710	11.4350
 0.5720	11.3070
 0.5730	11.1840
 0.5740	11.0650
 0.5750	10.9520
 0.5760	10.8480
 0.5770	10.7510
 0.5780	10.6610
 0.5790	10.5810
 0.5800	10.5060
 0.5810	10.4330
 0.5820	10.3580
 0.5830	10.2890
 0.5840	10.2240
 0.5850	10.1610
 0.5860	10.1000
 0.5870	10.0470
 0.5880	10.0030
 0.5890	 9.9640
 0.5900	 9.9270
 0.5910	 9.8890
 0.5920	 9.8530
 0.5930	 9.8200
 0.5940	 9.7910
 0.5950	 9.7700
 0.5960	 9.7540
 0.5970	 9.7410
 0.5980	 9.7250
 0.5990	 9.7050
 0.6000	 9.6820
 0.6010	 9.6530
 0.6020	 9.6180
 0.6030	 9.5760
 0.6040	 9.5290
 0.6050	 9.4770
 0.6060	 9.4210
 0.6070	 9.3590
 0.6080	 9.2940
 0.6090	 9.2290
 0.6100	 9.1660
 0.6110	 9.1010
 0.6120	 9.0360
 0.6130	 8.9680
 0.6140	 8.8990
 0.6150	 8.8380
 0.6160	 8.7790
 0.6170	 8.7230
 0.6180	 8.6710
 0.6190	 8.6280
 0.6200	 8.5880
 0.6210	 8.5520
 0.6220	 8.5190
 0.6230	 8.4930
 0.6240	 8.4700
 0.6250	 8.4480
 0.6260	 8.4350
 0.6270	 8.4240
 0.6280	 8.4150
 0.6290	 8.4070
 0.6300	 8.4000
 0.6310	 8.3920
 0.6320	 8.3840
 0.6330	 8.3750
 0.6340	 8.3580
 0.6350	 8.3340
 0.6360	 8.3040
 0.6370	 8.2640
 0.6380	 8.2180
 0.6390	 8.1670
 0.6400	 8.1120
 0.6410	 8.0560
 0.6420	 7.9970
 0.6430	 7.9350
 0.6440	 7.8740
 0.6450	 7.8160
 0.6460	 7.7620
 0.6470	 7.7110
 0.6480	 7.6620
 0.6490	 7.6200
 0.6500	 7.5850
 0.6510	 7.5530
 0.6520	 7.5240
 0.6530	 7.5000
 0.6540	 7.4780
 0.6550	 7.4520
 0.6560	 7.4240
 0.6570	 7.3920
 0.6580	 7.3580
 0.6590	 7.3230
 0.6600	 7.2850
 0.6610	 7.2460
 0.6620	 7.2110
 0.6630	 7.1780
 0.6640	 7.1500
 0.6650	 7.1260
 0.6660	 7.1060
 0.6670	 7.0910
 0.6680	 7.0830
 0.6690	 7.0810
 0.6700	 7.0840
 0.6710	 7.0920
 0.6720	 7.1060
 0.6730	 7.1230
 0.6740	 7.1450
 0.6750	 7.1710
 0.6760	 7.2010
 0.6770	 7.2350
 0.6780	 7.2750
 0.6790	 7.3210
 0.6800	 7.3670
 0.6810	 7.4210
 0.6820	 7.4820
 0.6830	 7.5500
 0.6840	 7.6230
 0.6850	 7.7040
 0.6860	 7.7980
 0.6870	 7.9080
 0.6880	 8.0380
 0.6890	 8.2000
 0.6900	 8.4030
 0.6910	 8.6540
 0.6920	 8.9680
 0.6930	 9.3500
 0.6940	 9.8040
 0.6950	10.3350
 0.6960	10.9440
 0.6970	11.6280
 0.6980	12.3840
 0.6990	13.2050
 0.7000	14.0820
 0.7010	15.0050
 0.7020	15.9650
 0.7030	16.9520
 0.7040	17.9610
 0.7050	18.9820
 0.7060	20.0110
 0.7070	21.0410
 0.7080	22.0680
 0.7090	23.0920
 0.7100	24.1150
 0.7110	25.1350
 0.7120	26.1470
 0.7130	27.1510
 0.7140	28.1490
 0.7150	29.1390
 0.7160	30.1170
 0.7170	31.0860
 0.7180	32.0420
 0.7190	32.9810
 0.7200	33.9000
 0.7210	34.8040
 0.7220	35.6890
 0.7230	36.5520
 0.7240	37.3900
 0.7250	38.2010
 0.7260	38.9850
 0.7270	39.7400
 0.7280	40.4620
 0.7290	41.1570
 0.7300	41.8220
 0.7310	42.4540
 0.7320	43.0580
 0.7330	43.6330
 0.7340	44.1740
 0.7350	44.6830
 0.7360	45.1680
 0.7370	45.6280
 0.7380	46.0580
 0.7390	46.4610
 0.7400	46.8390
 0.7410	47.1940
 0.7420	47.5260
 0.7430	47.8310
 0.7440	48.1150
 0.7450	48.3790
 0.7460	48.6210
 0.7470	48.8450
 0.7480	49.0490
 0.7490	49.2330
 0.7500	49.4070
 0.7510	49.5650
 0.7520	49.7060
 0.7530	49.8350
 0.7540	49.9540
 0.7550	50.0610
 0.7560	50.1580
 0.7570	50.2480
 0.7580	50.3300
 0.7590	50.4050
 0.7600	50.4750
 0.7610	50.5370
 0.7620	50.5930
 0.7630	50.6450
 0.7640	50.6930
 0.7650	50.7350
 0.7660	50.7740
 0.7670	50.8090
 0.7680	50.8400
 0.7690	50.8670
 0.7700	50.8930
 0.7710	50.9180
 0.7720	50.9430
 0.7730	50.9640
 0.7740	50.9850
 0.7750	51.0080
 0.7760	51.0240
 0.7770	51.0390
 0.7780	51.0550
 0.7790	51.0710
 0.7800	51.0890
 0.7810	51.1060
 0.7820	51.1220
 0.7830	51.1350
 0.7840	51.1480
 0.7850	51.1610
 0.7860	51.1720
 0.7870	51.1820
 0.7880	51.1910
 0.7890	51.2000
 0.7900	51.2050
 0.7910	51.2140
 0.7920	51.2210
 0.7930	51.2270
 0.7940	51.2330
 0.7950	51.2380
 0.7960	51.2410
 0.7970	51.2420
 0.7980	51.2420
 0.7990	51.2430
 0.8000	51.2430
 0.8010	51.2410
 0.8020	51.2420
 0.8030	51.2410
 0.8040	51.2380
 0.8050	51.2350
 0.8060	51.2300
 0.8070	51.2250
 0.8080	51.2200
 0.8090	51.2150
 0.8100	51.2090
 0.8110	51.2010
 0.8120	51.1910
 0.8130	51.1820
 0.8140	51.1720
 0.8150	51.1640
 0.8160	51.1560
 0.8170	51.1460
 0.8180	51.1390
 0.8190	51.1310
 0.8200	51.1190
 0.8210	51.1090
 0.8220	51.1010
 0.8230	51.0920
 0.8240	51.0770
 0.8250	51.0650
 0.8260	51.0550
 0.8270	51.0450
 0.8280	51.0390
 0.8290	51.0280
 0.8300	51.0170
 0.8310	51.0110
 0.8320	51.0020
 0.8330	50.9970
 0.8340	50.9910
 0.8350	50.9810
 0.8360	50.9760
 0.8370	50.9720
 0.8380	50.9690
 0.8390	50.9670
 0.8400	50.9630
 0.8410	50.9610
 0.8420	50.9600
 0.8430	50.9540
 0.8440	50.9530
 0.8450	50.9540
 0.8460	50.9540
 0.8470	50.9580
 0.8480	50.9590
 0.8490	50.9580
 0.8500	50.9590
 0.8510	50.9600
 0.8520	50.9640
 0.8530	50.9680
 0.8540	50.9700
 0.8550	50.9760
 0.8560	50.9800
 0.8570	50.9820
 0.8580	50.9900
 0.8590	50.9980
 0.8600	51.0070
 0.8610	51.0160
 0.8620	51.0260
 0.8630	51.0350
 0.8640	51.0450
 0.8650	51.0560
 0.8660	51.0650
 0.8670	51.0750
 0.8680	51.0850
 0.8690	51.0960
 0.8700	51.1090
 0.8710	51.1240
 0.8720	51.1370
 0.8730	51.1450
 0.8740	51.1610
 0.8750	51.1780
 0.8760	51.1920
 0.8770	51.1990
 0.8780	51.2090
 0.8790	51.2220
 0.8800	51.2360
 0.8810	51.2520
 0.8820	51.2660
 0.8830	51.2800
 0.8840	51.2970
 0.8850	51.3040
 0.8860	51.3170
 0.8870	51.3320
 0.8880	51.3450
 0.8890	51.3570
 0.8900	51.3710
 0.8910	51.3860
 0.8920	51.3990
 0.8930	51.4110
 0.8940	51.4210
 0.8950	51.4330
 0.8960	51.4470
 0.8970	51.4630
 0.8980	51.4750
 0.8990	51.4850
 0.9000	51.5030
 0.9010	51.5150
 0.9020	51.5270
 0.9030	51.5410
 0.9040	51.5540
 0.9050	51.5630
 0.9060	51.5740
 0.9070	51.5870
 0.9080	51.5930
 0.9090	51.6010
 0.9100	51.6110
 0.9110	51.6240
 0.9120	51.6340
 0.9130	51.6440
 0.9140	51.6510
 0.9150	51.6520
 0.9160	51.6600
 0.9170	51.6660
 0.9180	51.6710
 0.9190	51.6780
 0.9200	51.6810
 0.9210	51.6790
 0.9220	51.6780
 0.9230	51.6840
 0.9240	51.6860
 0.9250	51.6830
 0.9260	51.6790
 0.9270	51.6820
 0.9280	51.6770
 0.9290	51.6660
 0.9300	51.6570
 0.9310	51.6560
 0.9320	51.6530
 0.9330	51.6440
 0.9340	51.6300
 0.9350	51.6150
 0.9360	51.6050
 0.9370	51.5940
 0.9380	51.5780
 0.9390	51.5640
 0.9400	51.5480
 0.9410	51.5350
 0.9420	51.5230
 0.9430	51.5030
 0.9440	51.4810
 0.9450	51.4590
 0.9460	51.4350
 0.9470	51.4070
 0.9480	51.3850
 0.9490	51.3600
 0.9500	51.3250
 0.9510	51.2900
 0.9520	51.2510
 0.9530	51.2110
 0.9540	51.1760
 0.9550	51.1350
 0.9560	51.0960
 0.9570	51.0590
 0.9580	51.0210
 0.9590	50.9940
 0.9600	50.9630
 0.9610	50.9310
 0.9620	50.9080
 0.9630	50.8870
 0.9640	50.8730
 0.9650	50.8580
 0.9660	50.8340
 0.9670	50.8290
 0.9680	50.8220
 0.9690	50.8130
 0.9700	50.8040
 0.9710	50.7920
 0.9720	50.7800
 0.9730	50.7740
 0.9740	50.7760
 0.9750	50.7670
 0.9760	50.7640
 0.9770	50.7670
 0.9780	50.7720
 0.9790	50.7720
 0.9800	50.7620
 0.9810	50.7520
 0.9820	50.7530
 0.9830	50.7570
 0.9840	50.7580
 0.9850	50.7600
 0.9860	50.7700
 0.9870	50.7830
 0.9880	50.7900
 0.9890	50.7990
 0.9900	50.8200
 0.9910	50.8240
 0.9920	50.8260
 0.9930	50.8400
 0.9940	50.8680
 0.9950	50.8790
 0.9960	50.8910
 0.9970	50.9010
 0.9980	50.8990
 0.9990	50.9080
 1.0000	50.9190
 1.0010	53.1280
 1.0020	53.1360
 1.0030	53.1420
 1.0040	53.1500
 1.0050	53.1580
 1.0060	53.1650
 1.0070	53.1770
 1.0080	53.1880
 1.0090	53.2020
 1.0100	53.2110
 1.0110	53.2190
 1.0120	53.2280
 1.0130	53.2360
 1.0140	53.2450
 1.0150	53.2550
 1.0160	53.2630
 1.0170	53.2720
 1.0180	53.2800
 1.0190	53.2900
 1.0200	53.2990
 1.0210	53.3050
 1.0220	53.3110
 1.0230	53.3190
 1.0240	53.3280
 1.0250	53.3370
 1.0260	53.3500
 1.0270	53.3610
 1.0280	53.3720
 1.0290	53.3820
 1.0300	53.3900
 1.0310	53.4000
 1.0320	53.4120
 1.0330	53.4240
 1.0340	53.4360
 1.0350	53.4490
 1.0360	53.4570
 1.0370	53.4620
 1.0380	53.4690
 1.0390	53.4740
 1.0400	53.4820
 1.0410	53.4930
 1.0420	53.5010
 1.0430	53.5080
 1.0440	53.5150
 1.0450	53.5210
 1.0460	53.5260
 1.0470	53.5300
 1.0480	53.5360
 1.0490	53.5410
 1.0500	53.5450
 1.0510	53.5510
 1.0520	53.5550
 1.0530	53.5590
 1.0540	53.5600
 1.0550	53.5610
 1.0560	53.5610
 1.0570	53.5630
 1.0580	53.5650
 1.0590	53.5660
 1.0600	53.5700
 1.0610	53.5710
 1.0620	53.5690
 1.0630	53.5680
 1.0640	53.5650
 1.0650	53.5620
 1.0660	53.5570
 1.0670	53.5540
 1.0680	53.5530
 1.0690	53.5530
 1.0700	53.5520
 1.0710	53.5520
 1.0720	53.5500
 1.0730	53.5500
 1.0740	53.5450
 1.0750	53.5370
 1.0760	53.5310
 1.0770	53.5210
 1.0780	53.5160
 1.0790	53.5170
 1.0800	53.5130
 1.0810	53.5100
 1.0820	53.5050
 1.0830	53.4960
 1.0840	53.4880
 1.0850	53.4790
 1.0860	53.4710
 1.0870	53.4630
 1.0880	53.4550
 1.0890	53.4480
 1.0900	53.4430
 1.0910	53.4370
 1.0920	53.4330
 1.0930	53.4260
 1.0940	53.4160
 1.0950	53.4060
 1.0960	53.3940
 1.0970	53.3860
 1.0980	53.3840
 1.0990	53.3760
 1.1000	53.3650
 1.1010	53.3560
 1.1020	53.3440
 1.1030	53.3340
 1.1040	53.3260
 1.1050	53.3190
 1.1060	53.3090
 1.1070	53.2950
 1.1080	53.2840
 1.1090	53.2740
 1.1100	53.2630
 1.1110	53.2540
 1.1120	53.2440
 1.1130	53.2320
 1.1140	53.2200
 1.1150	53.2070
 1.1160	53.1930
 1.1170	53.1760
 1.1180	53.1600
 1.1190	53.1430
 1.1200	53.1240
 1.1210	53.1030
 1.1220	53.0820
 1.1230	53.0570
 1.1240	53.0290
 1.1250	52.9980
 1.1260	52.9660
 1.1270	52.9280
 1.1280	52.8860
 1.1290	52.8410
 1.1300	52.7910
 1.1310	52.7370
 1.1320	52.6780
 1.1330	52.6150
 1.1340	52.5490
 1.1350	52.4760
 1.1360	52.3990
 1.1370	52.3170
 1.1380	52.2290
 1.1390	52.1370
 1.1400	52.0420
 1.1410	51.9460
 1.1420	51.8480
 1.1430	51.7470
 1.1440	51.6480
 1.1450	51.5480
 1.1460	51.4530
 1.1470	51.3590
 1.1480	51.2680
 1.1490	51.1780
 1.1500	51.0930
 1.1510	51.0080
 1.1520	50.9310
 1.1530	50.8580
 1.1540	50.7920
 1.1550	50.7320
 1.1560	50.6770
 1.1570	50.6260
 1.1580	50.5800
 1.1590	50.5360
 1.1600	50.4960
 1.1610	50.4620
 1.1620	50.4300
 1.1630	50.4030
 1.1640	50.3770
 1.1650	50.3530
 1.1660	50.3290
 1.1670	50.3090
 1.1680	50.2920
 1.1690	50.2750
 1.1700	50.2610
 1.1710	50.2460
 1.1720	50.2310
 1.1730	50.2150
 1.1740	50.1990
 1.1750	50.1840
 1.1760	50.1680
 1.1770	50.1510
 1.1780	50.1330
 1.1790	50.1140
 1.1800	50.0990
 1.1810	50.0820
 1.1820	50.0640
 1.1830	50.0500
 1.1840	50.0320
 1.1850	50.0120
 1.1860	49.9960
 1.1870	49.9790
 1.1880	49.9630
 1.1890	49.9500
 1.1900	49.9370
 1.1910	49.9250
 1.1920	49.9140
 1.1930	49.9020
 1.1940	49.8920
 1.1950	49.8840
 1.1960	49.8740
 1.1970	49.8660
 1.1980	49.8600
 1.1990	49.8550
 1.2000	49.8530
 1.2010	49.8520
 1.2020	49.8520
 1.2030	49.8550
 1.2040	49.8610
 1.2050	49.8670
 1.2060	49.8740
 1.2070	49.8850
 1.2080	49.8930
 1.2090	49.9040
 1.2100	49.9170
 1.2110	49.9300
 1.2120	49.9430
 1.2130	49.9590
 1.2140	49.9770
 1.2150	49.9940
 1.2160	50.0120
 1.2170	50.0290
 1.2180	50.0470
 1.2190	50.0650
 1.2200	50.0810
 1.2210	50.0990
 1.2220	50.1180
 1.2230	50.1380
 1.2240	50.1610
 1.2250	50.1820
 1.2260	50.2010
 1.2270	50.2190
 1.2280	50.2350
 1.2290	50.2500
 1.2300	50.2640
 1.2310	50.2780
 1.2320	50.2920
 1.2330	50.3070
 1.2340	50.3210
 1.2350	50.3360
 1.2360	50.3500
 1.2370	50.3630
 1.2380	50.3760
 1.2390	50.3870
 1.2400	50.3970
 1.2410	50.4080
 1.2420	50.4160
 1.2430	50.4230
 1.2440	50.4310
 1.2450	50.4380
 1.2460	50.4420
 1.2470	50.4480
 1.2480	50.4550
 1.2490	50.4620
 1.2500	50.4700
 1.2510	50.4770
 1.2520	50.4820
 1.2530	50.4830
 1.2540	50.4840
 1.2550	50.4860
 1.2560	50.4860
 1.2570	50.4890
 1.2580	50.4890
 1.2590	50.4890
 1.2600	50.4910
 1.2610	50.4890
 1.2620	50.4840
 1.2630	50.4800
 1.2640	50.4740
 1.2650	50.4670
 1.2660	50.4600
 1.2670	50.4530
 1.2680	50.4480
 1.2690	50.4430
 1.2700	50.4390
 1.2710	50.4330
 1.2720	50.4240
 1.2730	50.4130
 1.2740	50.4020
 1.2750	50.3910
 1.2760	50.3800
 1.2770	50.3670
 1.2780	50.3530
 1.2790	50.3380
 1.2800	50.3210
 1.2810	50.3030
 1.2820	50.2830
 1.2830	50.2620
 1.2840	50.2380
 1.2850	50.2140
 1.2860	50.1880
 1.2870	50.1610
 1.2880	50.1310
 1.2890	50.1020
 1.2900	50.0690
 1.2910	50.0350
 1.2920	50.0000
 1.2930	49.9610
 1.2940	49.9190
 1.2950	49.8770
 1.2960	49.8310
 1.2970	49.7850
 1.2980	49.7380
 1.2990	49.6890
 1.3000	49.6400
 1.3010	49.5860
 1.3020	49.5320
 1.3030	49.4770
 1.3040	49.4190
 1.3050	49.3590
 1.3060	49.2980
 1.3070	49.2360
 1.3080	49.1730
 1.3090	49.1100
 1.3100	49.0450
 1.3110	48.9790
 1.3120	48.9100
 1.3130	48.8410
 1.3140	48.7700
 1.3150	48.6980
 1.3160	48.6230
 1.3170	48.5470
 1.3180	48.4680
 1.3190	48.3880
 1.3200	48.3060
 1.3210	48.2220
 1.3220	48.1380
 1.3230	48.0530
 1.3240	47.9670
 1.3250	47.8790
 1.3260	47.7890
 1.3270	47.6950
 1.3280	47.6000
 1.3290	47.5030
 1.3300	47.4050
 1.3310	47.3070
 1.3320	47.2060
 1.3330	47.1030
 1.3340	47.0020
 1.3350	46.9010
 1.3360	46.7990
 1.3370	46.6970
 1.3380	46.5940
 1.3390	46.4900
 1.3400	46.3850
 1.3410	46.2810
 1.3420	46.1770
 1.3430	46.0740
 1.3440	45.9710
 1.3450	45.8710
 1.3460	45.7720
 1.3470	45.6730
 1.3480	45.5730
 1.3490	45.4740
 1.3500	45.3770
 1.3510	45.2780
 1.3520	45.1810
 1.3530	45.0860
 1.3540	44.9890
 1.3550	44.8910
 1.3560	44.7920
 1.3570	44.6920
 1.3580	44.5920
 1.3590	44.4880
 1.3600	44.3820
 1.3610	44.2730
 1.3620	44.1590
 1.3630	44.0400
 1.3640	43.9150
 1.3650	43.7810
 1.3660	43.6420
 1.3670	43.4950
 1.3680	43.3360
 1.3690	43.1700
 1.3700	42.9900
 1.3710	42.7960
 1.3720	42.5910
 1.3730	42.3680
 1.3740	42.1310
 1.3750	41.8760
 1.3760	41.6000
 1.3770	41.3050
 1.3780	40.9850
 1.3790	40.6440
 1.3800	40.2800
 1.3810	39.8900
 1.3820	39.4810
 1.3830	39.0490
 1.3840	38.5970
 1.3850	38.1230
 1.3860	37.6300
 1.3870	37.1130
 1.3880	36.5860
 1.3890	36.0410
 1.3900	35.4810
 1.3910	34.9180
 1.3920	34.3460
 1.3930	33.7660
 1.3940	33.1880
 1.3950	32.6040
 1.3960	32.0260
 1.3970	31.4570
 1.3980	30.8940
 1.3990	30.3490
 1.4000	29.8160
 1.4010	29.2940
 1.4020	28.7920
 1.4030	28.3040
 1.4040	27.8360
 1.4050	27.3900
 1.4060	26.9640
 1.4070	26.5640
 1.4080	26.1840
 1.4090	25.8240
 1.4100	25.4880
 1.4110	25.1710
 1.4120	24.8750
 1.4130	24.6020
 1.4140	24.3460
 1.4150	24.1110
 1.4160	23.8940
 1.4170	23.6930
 1.4180	23.5090
 1.4190	23.3370
 1.4200	23.1790
 1.4210	23.0360
 1.4220	22.9030
 1.4230	22.7830
 1.4240	22.6730
 1.4250	22.5730
 1.4260	22.4820
 1.4270	22.3990
 1.4280	22.3270
 1.4290	22.2610
 1.4300	22.2030
 1.4310	22.1510
 1.4320	22.1070
 1.4330	22.0670
 1.4340	22.0350
 1.4350	22.0060
 1.4360	21.9830
 1.4370	21.9640
 1.4380	21.9500
 1.4390	21.9410
 1.4400	21.9380
 1.4410	21.9380
 1.4420	21.9410
 1.4430	21.9470
 1.4440	21.9550
 1.4450	21.9630
 1.4460	21.9750
 1.4470	21.9890
 1.4480	22.0060
 1.4490	22.0250
 1.4500	22.0460
 1.4510	22.0680
 1.4520	22.0910
 1.4530	22.1170
 1.4540	22.1430
 1.4550	22.1730
 1.4560	22.2050
 1.4570	22.2410
 1.4580	22.2800
 1.4590	22.3220
 1.4600	22.3690
 1.4610	22.4220
 1.4620	22.4790
 1.4630	22.5420
 1.4640	22.6110
 1.4650	22.6830
 1.4660	22.7610
 1.4670	22.8450
 1.4680	22.9350
 1.4690	23.0300
 1.4700	23.1290
 1.4710	23.2340
 1.4720	23.3410
 1.4730	23.4530
 1.4740	23.5690
 1.4750	23.6870
 1.4760	23.8110
 1.4770	23.9360
 1.4780	24.0640
 1.4790	24.1940
 1.4800	24.3240
 1.4810	24.4560
 1.4820	24.5890
 1.4830	24.7230
 1.4840	24.8620
 1.4850	25.0010
 1.4860	25.1400
 1.4870	25.2810
 1.4880	25.4190
 1.4890	25.5580
 1.4900	25.6990
 1.4910	25.8400
 1.4920	25.9810
 1.4930	26.1260
 1.4940	26.2690
 1.4950	26.4120
 1.4960	26.5550
 1.4970	26.6960
 1.4980	26.8390
 1.4990	26.9830
 1.5000	27.1270
 1.5010	27.2730
 1.5020	27.4180
 1.5030	27.5630
 1.5040	27.7060
 1.5050	27.8460
 1.5060	27.9880
 1.5070	28.1290
 1.5080	28.2690
 1.5090	28.4100
 1.5100	28.5510
 1.5110	28.6900
 1.5120	28.8290
 1.5130	28.9680
 1.5140	29.1060
 1.5150	29.2430
 1.5160	29.3790
 1.5170	29.5150
 1.5180	29.6490
 1.5190	29.7830
 1.5200	29.9150
 1.5210	30.0450
 1.5220	30.1770
 1.5230	30.3070
 1.5240	30.4360
 1.5250	30.5650
 1.5260	30.6900
 1.5270	30.8150
 1.5280	30.9390
 1.5290	31.0600
 1.5300	31.1810
 1.5310	31.3010
 1.5320	31.4200
 1.5330	31.5410
 1.5340	31.6580
 1.5350	31.7740
 1.5360	31.8900
 1.5370	32.0030
 1.5380	32.1140
 1.5390	32.2260
 1.5400	32.3370
 1.5410	32.4470
 1.5420	32.5560
 1.5430	32.6650
 1.5440	32.7730
 1.5450	32.8770
 1.5460	32.9820
 1.5470	33.0880
 1.5480	33.1900
 1.5490	33.2930
 1.5500	33.3940
 1.5510	33.4920
 1.5520	33.5910
 1.5530	33.6860
 1.5540	33.7820
 1.5550	33.8780
 1.5560	33.9710
 1.5570	34.0630
 1.5580	34.1540
 1.5590	34.2440
 1.5600	34.3320
 1.5610	34.4180
 1.5620	34.5040
 1.5630	34.5860
 1.5640	34.6670
 1.5650	34.7500
 1.5660	34.8310
 1.5670	34.9090
 1.5680	34.9900
 1.5690	35.0670
 1.5700	35.1430
 1.5710	35.2210
 1.5720	35.2980
 1.5730	35.3750
 1.5740	35.4500
 1.5750	35.5230
 1.5760	35.5970
 1.5770	35.6680
 1.5780	35.7390
 1.5790	35.8100
 1.5800	35.8800
 1.5810	35.9510
 1.5820	36.0200
 1.5830	36.0890
 1.5840	36.1580
 1.5850	36.2260
 1.5860	36.2940
 1.5870	36.3620
 1.5880	36.4290
 1.5890	36.4950
 1.5900	36.5600
 1.5910	36.6250
 1.5920	36.6880
 1.5930	36.7510
 1.5940	36.8140
 1.5950	36.8770
 1.5960	36.9390
 1.5970	37.0000
 1.5980	37.0610
 1.5990	37.1200
 1.6000	37.1790
 1.6010	37.2380
 1.6020	37.2950
 1.6030	37.3530
 1.6040	37.4100
 1.6050	37.4640
 1.6060	37.5170
 1.6070	37.5700
 1.6080	37.6220
 1.6090	37.6730
 1.6100	37.7250
 1.6110	37.7760
 1.6120	37.8240
 1.6130	37.8720
 1.6140	37.9210
 1.6150	37.9680
 1.6160	38.0140
 1.6170	38.0590
 1.6180	38.1010
 1.6190	38.1440
 1.6200	38.1870
 1.6210	38.2280
 1.6220	38.2680
 1.6230	38.3050
 1.6240	38.3430
 1.6250	38.3810
 1.6260	38.4170
 1.6270	38.4530
 1.6280	38.4870
 1.6290	38.5200
 1.6300	38.5550
 1.6310	38.5880
 1.6320	38.6210
 1.6330	38.6520
 1.6340	38.6820
 1.6350	38.7110
 1.6360	38.7380
 1.6370	38.7640
 1.6380	38.7910
 1.6390	38.8150
 1.6400	38.8380
 1.6410	38.8580
 1.6420	38.8740
 1.6430	38.8910
 1.6440	38.9070
 1.6450	38.9210
 1.6460	38.9340
 1.6470	38.9430
 1.6480	38.9500
 1.6490	38.9540
 1.6500	38.9570
 1.6510	38.9560
 1.6520	38.9550
 1.6530	38.9540
 1.6540	38.9510
 1.6550	38.9470
 1.6560	38.9420
 1.6570	38.9330
 1.6580	38.9230
 1.6590	38.9140
 1.6600	38.9030
 1.6610	38.8930
 1.6620	38.8840
 1.6630	38.8750
 1.6640	38.8660
 1.6650	38.8530
 1.6660	38.8380
 1.6670	38.8250
 1.6680	38.8110
 1.6690	38.7980
 1.6700	38.7850
 1.6710	38.7700
 1.6720	38.7530
 1.6730	38.7330
 1.6740	38.7140
 1.6750	38.6930
 1.6760	38.6690
 1.6770	38.6460
 1.6780	38.6220
 1.6790	38.5940
 1.6800	38.5650
 1.6810	38.5350
 1.6820	38.5010
 1.6830	38.4630
 1.6840	38.4220
 1.6850	38.3770
 1.6860	38.3300
 1.6870	38.2820
 1.6880	38.2330
 1.6890	38.1800
 1.6900	38.1270
 1.6910	38.0720
 1.6920	38.0170
 1.6930	37.9610
 1.6940	37.9060
 1.6950	37.8510
 1.6960	37.7970
 1.6970	37.7440
 1.6980	37.6900
 1.6990	37.6370
 1.7000	37.5830
 1.7010	37.5290
 1.7020	37.4730
 1.7030	37.4140
 1.7040	37.3560
 1.7050	37.2980
 1.7060	37.2380
 1.7070	37.1770
 1.7080	37.1150
 1.7090	37.0490
 1.7100	36.9860
 1.7110	36.9240
 1.7120	36.8630
 1.7130	36.8040
 1.7140	36.7480
 1.7150	36.6940
 1.7160	36.6430
 1.7170	36.5950
 1.7180	36.5500
 1.7190	36.5070
 1.7200	36.4660
 1.7210	36.4260
 1.7220	36.3860
 1.7230	36.3480
 1.7240	36.3120
 1.7250	36.2740
 1.7260	36.2390
 1.7270	36.2070
 1.7280	36.1740
 1.7290	36.1440
 1.7300	36.1160
 1.7310	36.0880
 1.7320	36.0640
 1.7330	36.0360
 1.7340	36.0050
 1.7350	35.9750
 1.7360	35.9440
 1.7370	35.9100
 1.7380	35.8770
 1.7390	35.8390
 1.7400	35.7970
 1.7410	35.7530
 1.7420	35.7050
 1.7430	35.6550
 1.7440	35.6010
 1.7450	35.5460
 1.7460	35.4890
 1.7470	35.4310
 1.7480	35.3720
 1.7490	35.3120
 1.7500	35.2500
 1.7510	35.1890
 1.7520	35.1270
 1.7530	35.0660
 1.7540	35.0040
 1.7550	34.9410
 1.7560	34.8810
 1.7570	34.8240
 1.7580	34.7680
 1.7590	34.7150
 1.7600	34.6640
 1.7610	34.6120
 1.7620	34.5620
 1.7630	34.5130
 1.7640	34.4660
 1.7650	34.4200
 1.7660	34.3770
 1.7670	34.3360
 1.7680	34.2960
 1.7690	34.2590
 1.7700	34.2210
 1.7710	34.1810
 1.7720	34.1440
 1.7730	34.1070
 1.7740	34.0720
 1.7750	34.0370
 1.7760	34.0040
 1.7770	33.9700
 1.7780	33.9420
 1.7790	33.9160
 1.7800	33.8950
 1.7810	33.8780
 1.7820	33.8620
 1.7830	33.8500
 1.7840	33.8390
 1.7850	33.8320
 1.7860	33.8240
 1.7870	33.8190
 1.7880	33.8140
 1.7890	33.8120
 1.7900	33.8130
 1.7910	33.8130
 1.7920	33.8160
 1.7930	33.8180
 1.7940	33.8230
 1.7950	33.8270
 1.7960	33.8300
 1.7970	33.8350
 1.7980	33.8410
 1.7990	33.8470
 1.8000	33.8560
 1.8010	33.8640
 1.8020	33.8730
 1.8030	33.8810
 1.8040	33.8870
 1.8050	33.8940
 1.8060	33.9000
 1.8070	33.9060
 1.8080	33.9140
 1.8090	33.9190
 1.8100	33.9230
 1.8110	33.9280
 1.8120	33.9320
 1.8130	33.9340
 1.8140	33.9360
 1.8150	33.9360
 1.8160	33.9350
 1.8170	33.9360
 1.8180	33.9350
 1.8190	33.9320
 1.8200	33.9290
 1.8210	33.9240
 1.8220	33.9180
 1.8230	33.9120
 1.8240	33.9020
 1.8250	33.8880
 1.8260	33.8760
 1.8270	33.8640
 1.8280	33.8500
 1.8290	33.8370
 1.8300	33.8190
 1.8310	34.0250
 1.8320	34.0000
 1.8330	33.9700
 1.8340	33.9380
 1.8350	33.9000
 1.8360	33.8600
 1.8370	33.8130
 1.8380	33.7580
 1.8390	33.7000
 1.8400	33.6380
 1.8410	33.5680
 1.8420	33.4920
 1.8430	33.4110
 1.8440	33.3260
 1.8450	33.2320
 1.8460	33.1320
 1.8470	33.0240
 1.8480	32.9020
 1.8490	32.7670
 1.8500	32.6220
 1.8510	32.4690
 1.8520	32.3030
 1.8530	32.1200
 1.8540	31.9280
 1.8550	31.7220
 1.8560	31.4980
 1.8570	31.2630
 1.8580	31.0090
 1.8590	30.7380
 1.8600	30.4500
 1.8610	30.1450
 1.8620	29.8210
 1.8630	29.4840
 1.8640	29.1320
 1.8650	28.7570
 1.8660	28.3610
 1.8670	27.9390
 1.8680	27.4930
 1.8690	27.0210
 1.8700	26.5310
 1.8710	26.0170
 1.8720	25.4970
 1.8730	24.9560
 1.8740	24.4000
 1.8750	23.8330
 1.8760	23.2430
 1.8770	22.6440
 1.8780	22.0420
 1.8790	21.4300
 1.8800	20.8220
 1.8810	20.2140
 1.8820	19.6050
 1.8830	18.9940
 1.8840	18.3950
 1.8850	17.7980
 1.8860	17.2120
 1.8870	16.6420
 1.8880	16.0830
 1.8890	15.5440
 1.8900	15.0310
 1.8910	14.5420
 1.8920	14.0720
 1.8930	13.6320
 1.8940	13.2180
 1.8950	12.8270
 1.8960	12.4630
 1.8970	12.1260
 1.8980	11.8140
 1.8990	11.5290
 1.9000	11.2650
 1.9010	11.0260
 1.9020	10.8060
 1.9030	10.6090
 1.9040	10.4320
 1.9050	10.2730
 1.9060	10.1300
 1.9070	10.0050
 1.9080	 9.8920
 1.9090	 9.7910
 1.9100	 9.7030
 1.9110	 9.6220
 1.9120	 9.5520
 1.9130	 9.4900
 1.9140	 9.4360
 1.9150	 9.3890
 1.9160	 9.3490
 1.9170	 9.3150
 1.9180	 9.2840
 1.9190	 9.2600
 1.9200	 9.2420
 1.9210	 9.2270
 1.9220	 9.2120
 1.9230	 9.2010
 1.9240	 9.1920
 1.9250	 9.1850
 1.9260	 9.1800
 1.9270	 9.1800
 1.9280	 9.1820
 1.9290	 9.1880
 1.9300	 9.1970
 1.9310	 9.2080
 1.9320	 9.2220
 1.9330	 9.2380
 1.9340	 9.2550
 1.9350	 9.2760
 1.9360	 9.3020
 1.9370	 9.3260
 1.9380	 9.3510
 1.9390	 9.3780
 1.9400	 9.4080
 1.9410	 9.4420
 1.9420	 9.4780
 1.9430	 9.5150
 1.9440	 9.5520
 1.9450	 9.5900
 1.9460	 9.6290
 1.9470	 9.6710
 1.9480	 9.7140
 1.9490	 9.7600
 1.9500	 9.8070
 1.9510	 9.8550
 1.9520	 9.9020
 1.9530	 9.9500
 1.9540	 9.9990
 1.9550	10.0510
 1.9560	10.1070
 1.9570	10.1630
 1.9580	10.2230
 1.9590	10.2810
 1.9600	10.3390
 1.9610	10.3990
 1.9620	10.4590
 1.9630	10.5220
 1.9640	10.5880
 1.9650	10.6520
 1.9660	10.7180
 1.9670	10.7880
 1.9680	10.8570
 1.9690	10.9260
 1.9700	10.9960
 1.9710	11.0620
 1.9720	11.1330
 1.9730	11.2070
 1.9740	11.2820
 1.9750	11.3570
 1.9760	11.4340
 1.9770	11.5080
 1.9780	11.5880
 1.9790	11.6680
 1.9800	11.7520
 1.9810	11.8350
 1.9820	11.9190
 1.9830	12.0020
 1.9840	12.0840
 1.9850	12.1670
 1.9860	12.2510
 1.9870	12.3330
 1.9880	12.4180
 1.9890	12.5070
 1.9900	12.5960
 1.9910	12.6870
 1.9920	12.7750
 1.9930	12.8630
 1.9940	12.9510
 1.9950	13.0360
 1.9960	13.1250
 1.9970	13.2180
 1.9980	13.3090
 1.9990	13.3970
 2.0000	13.4900
 2.0010	13.5830
 2.0020	13.6750
 2.0030	13.7690
 2.0040	13.8600
 2.0050	13.9500
 2.0060	14.0360
 2.0070	14.1250
 2.0080	14.2150
 2.0090	14.3030
 2.0100	14.3910
 2.0110	14.4790
 2.0120	14.5670
 2.0130	14.6540
 2.0140	14.7410
 2.0150	14.8260
 2.0160	14.9120
 2.0170	14.9970
 2.0180	15.0820
 2.0190	15.1700
 2.0200	15.2520
 2.0210	15.3310
 2.0220	15.4110
 2.0230	15.4880
 2.0240	15.5670
 2.0250	15.6490
 2.0260	15.7270
 2.0270	15.8020
 2.0280	15.8790
 2.0290	15.9560
 2.0300	16.0260
 2.0310	16.0990
 2.0320	16.1750
 2.0330	16.2440
 2.0340	16.3110
 2.0350	16.3760
 2.0360	16.4360
 2.0370	16.4990
 2.0380	16.5630
 2.0390	16.6250
 2.0400	16.6880
 2.0410	16.7500
 2.0420	16.8110
 2.0430	16.8700
 2.0440	16.9300
 2.0450	16.9900
 2.0460	17.0480
 2.0470	17.1050
 2.0480	17.1640
 2.0490	17.2240
 2.0500	17.2820
 2.0510	17.3380
 2.0520	17.3970
 2.0530	17.4560
 2.0540	17.5160
 2.0550	17.5770
 2.0560	17.6420
 2.0570	17.7060
 2.0580	17.7690
 2.0590	17.8340
 2.0600	17.9000
 2.0610	17.9650
 2.0620	18.0280
 2.0630	18.0930
 2.0640	18.1570
 2.0650	18.2220
 2.0660	18.2850
 2.0670	18.3530
 2.0680	18.4270
 2.0690	18.4970
 2.0700	18.5690
 2.0710	18.6390
 2.0720	18.7080
 2.0730	18.7750
 2.0740	18.8420
 2.0750	18.9080
 2.0760	18.9750
 2.0770	19.0410
 2.0780	19.1070
 2.0790	19.1760
 2.0800	19.2400
 2.0810	19.3000
 2.0820	19.3620
 2.0830	19.4270
 2.0840	19.4890
 2.0850	19.5510
 2.0860	19.6130
 2.0870	19.6730
 2.0880	19.7310
 2.0890	19.7910
 2.0900	19.8510
 2.0910	19.9100
 2.0920	19.9700
 2.0930	20.0290
 2.0940	20.0870
 2.0950	20.1450
 2.0960	20.2010
 2.0970	20.2580
 2.0980	20.3130
 2.0990	20.3680
 2.1000	20.4260
 2.1010	20.4810
 2.1020	20.5360
 2.1030	20.5900
 2.1040	20.6410
 2.1050	20.6940
 2.1060	20.7460
 2.1070	20.7980
 2.1080	20.8490
 2.1090	20.9000
 2.1100	20.9520
 2.1110	21.0050
 2.1120	21.0570
 2.1130	21.1110
 2.1140	21.1610
 2.1150	21.2060
 2.1160	21.2530
 2.1170	21.3000
 2.1180	21.3450
 2.1190	21.3920
 2.1200	21.4370
 2.1210	21.4800
 2.1220	21.5240
 2.1230	21.5660
 2.1240	21.6060
 2.1250	21.6450
 2.1260	21.6800
 2.1270	21.7180
 2.1280	21.7560
 2.1290	21.7940
 2.1300	21.8320
 2.1310	21.8670
 2.1320	21.9020
 2.1330	21.9350
 2.1340	21.9660
 2.1350	21.9970
 2.1360	22.0270
 2.1370	22.0560
 2.1380	22.0830
 2.1390	22.1100
 2.1400	22.1360
 2.1410	22.1600
 2.1420	22.1850
 2.1430	22.2130
 2.1440	22.2350
 2.1450	22.2540
 2.1460	22.2730
 2.1470	22.2890
 2.1480	22.3070
 2.1490	22.3280
 2.1500	22.3470
 2.1510	22.3670
 2.1520	22.3850
 2.1530	22.4000
 2.1540	22.4160
 2.1550	22.4310
 2.1560	22.4470
 2.1570	22.4660
 2.1580	22.4820
 2.1590	22.4950
 2.1600	22.5090
 2.1610	22.5190
 2.1620	22.5270
 2.1630	22.5390
 2.1640	22.5520
 2.1650	22.5660
 2.1660	22.5820
 2.1670	22.5990
 2.1680	22.6150
 2.1690	22.6320
 2.1700	22.6510
 2.1710	22.6690
 2.1720	22.6840
 2.1730	22.7020
 2.1740	22.7210
 2.1750	22.7410
 2.1760	22.7630
 2.1770	22.7860
 2.1780	22.8130
 2.1790	22.8380
 2.1800	22.8660
 2.1810	22.8920
 2.1820	22.9150
 2.1830	22.9390
 2.1840	22.9630
 2.1850	22.9860
 2.1860	23.0120
 2.1870	23.0390
 2.1880	23.0660
 2.1890	23.0950
 2.1900	23.1240
 2.1910	23.1530
 2.1920	23.1790
 2.1930	23.2030
 2.1940	23.2280
 2.1950	23.2510
 2.1960	23.2740
 2.1970	23.2990
 2.1980	23.3220
 2.1990	23.3440
 2.2000	23.3640
 2.2010	23.3800
 2.2020	23.3970
 2.2030	23.4090
 2.2040	23.4260
 2.2050	23.4490
 2.2060	23.4690
 2.2070	23.4870
 2.2080	23.5080
 2.2090	23.5210
 2.2100	23.5290
 2.2110	23.5390
 2.2120	23.5470
 2.2130	23.5550
 2.2140	23.5650
 2.2150	23.5720
 2.2160	23.5750
 2.2170	23.5790
 2.2180	23.5840
 2.2190	23.5870
 2.2200	23.5890
 2.2210	23.5890
 2.2220	23.5880
 2.2230	23.5810
 2.2240	23.5720
 2.2250	23.5600
 2.2260	23.5430
 2.2270	23.5240
 2.2280	23.5010
 2.2290	23.4780
 2.2300	23.4530
 2.2310	23.4260
 2.2320	23.4060
 2.2330	23.3790
 2.2340	23.3440
 2.2350	23.3030
 2.2360	23.2580
 2.2370	23.2040
 2.2380	23.1500
 2.2390	23.0930
 2.2400	23.0370
 2.2410	22.9770
 2.2420	22.9160
 2.2430	22.8580
 2.2440	22.7930
 2.2450	22.7250
 2.2460	22.6540
 2.2470	22.5810
 2.2480	22.5040
 2.2490	22.4230
 2.2500	22.3430
 2.2510	22.2610
 2.2520	22.1790
 2.2530	22.0960
 2.2540	22.0130
 2.2550	21.9280
 2.2560	21.8440
 2.2570	21.7610
 2.2580	21.6780
 2.2590	21.5970
 2.2600	21.5110
 2.2610	21.4230
 2.2620	21.3320
 2.2630	21.2400
 2.2640	21.1560
 2.2650	21.0780
 2.2660	21.0050
 2.2670	20.9280
 2.2680	20.8530
 2.2690	20.7790
 2.2700	20.7030
 2.2710	20.6350
 2.2720	20.5740
 2.2730	20.5140
 2.2740	20.4570
 2.2750	20.4020
 2.2760	20.3500
 2.2770	20.2970
 2.2780	20.2490
 2.2790	20.1950
 2.2800	20.1390
 2.2810	20.0830
 2.2820	20.0220
 2.2830	19.9640
 2.2840	19.9060
 2.2850	19.8480
 2.2860	19.7900
 2.2870	19.7300
 2.2880	19.6660
 2.2890	19.6040
 2.2900	19.5440
 2.2910	19.4810
 2.2920	19.4190
 2.2930	19.3540
 2.2940	19.2820
 2.2950	19.2140
 2.2960	19.1440
 2.2970	19.0770
 2.2980	19.0110
 2.2990	18.9450
 2.3000	18.8810
 2.3010	18.8140
 2.3020	18.7480
 2.3030	18.6910
 2.3040	18.6270
 2.3050	18.5660
 2.3060	18.5160
 2.3070	18.4670
 2.3080	18.4240
 2.3090	18.3870
 2.3100	18.3470
 2.3110	18.3110
 2.3120	18.2810
 2.3130	18.2590
 2.3140	18.2370
 2.3150	18.2200
 2.3160	18.2000
 2.3170	18.1810
 2.3180	18.1620
 2.3190	18.1440
 2.3200	18.1250
 2.3210	18.1110
 2.3220	18.0870
 2.3230	18.0550
 2.3240	18.0230
 2.3250	17.9850
 2.3260	17.9470
 2.3270	17.9120
 2.3280	17.8660
 2.3290	17.8090
 2.3300	17.7610
 2.3310	17.7100
 2.3320	17.6650
 2.3330	17.6300
 2.3340	17.5860
 2.3350	17.5380
 2.3360	17.4860
 2.3370	17.4260
 2.3380	17.3700
 2.3390	17.3110
 2.3400	17.2560
 2.3410	17.2050
 2.3420	17.1550
 2.3430	17.1090
 2.3440	17.0600
 2.3450	17.0100
 2.3460	16.9630
 2.3470	16.9190
 2.3480	16.8720
 2.3490	16.8250
 2.3500	16.7820
 2.3510	16.7320
 2.3520	16.6920
 2.3530	16.6640
 2.3540	16.6390
 2.3550	16.6130
 2.3560	16.5940
 2.3570	16.5640
 2.3580	16.5310
 2.3590	16.4980
 2.3600	16.4550
 2.3610	16.4150
 2.3620	16.3760
 2.3630	16.3330
 2.3640	16.2950
 2.3650	16.2550
 2.3660	16.2120
 2.3670	16.1730
 2.3680	16.1360
 2.3690	16.1010
 2.3700	16.0680
 2.3710	16.0330
 2.3720	15.9900
 2.3730	15.9420
 2.3740	15.8970
 2.3750	15.8550
 2.3760	15.8160
 2.3770	15.7760
 2.3780	15.7350
 2.3790	15.6930
 2.3800	15.6420
 2.3810	15.5940
 2.3820	15.5490
 2.3830	15.4920
 2.3840	15.4370
 2.3850	15.3790
 2.3860	15.3230
 2.3870	15.2840
 2.3880	15.2450
 2.3890	15.1990
 2.3900	15.1580
 2.3910	15.1090
 2.3920	15.0500
 2.3930	15.0080
 2.3940	14.9680
 2.3950	14.9140
 2.3960	14.8720
 2.3970	14.8280
 2.3980	14.7670
 2.3990	14.7150
 2.4000	14.6550
 2.4010	14.5980
 2.4020	14.5530
 2.4030	14.5050
 2.4040	14.4640
 2.4050	14.4190
 2.4060	14.3640
 2.4070	14.3130
 2.4080	14.2640
 2.4090	14.2100
 2.4100	14.1700
 2.4110	14.1350
 2.4120	14.0870
 2.4130	14.0340
 2.4140	13.9840
 2.4150	13.9290
 2.4160	13.8670
 2.4170	13.8110
 2.4180	13.7570
 2.4190	13.7050
 2.4200	13.6630
 2.4210	13.6190
 2.4220	13.5660
 2.4230	13.5020
 2.4240	13.4330
 2.4250	13.3790
 2.4260	13.3240
 2.4270	13.2670
 2.4280	13.2140
 2.4290	13.1470
 2.4300	13.0770
 2.4310	13.0200
 2.4320	12.9680
 2.4330	12.9150
 2.4340	12.8670
 2.4350	12.8240
 2.4360	12.7600
 2.4370	12.7030
 2.4380	12.6530
 2.4390	12.5890
 2.4400	12.5330
 2.4410	12.4800
 2.4420	12.4260
 2.4430	12.3620
 2.4440	12.3100
 2.4450	12.2650
 2.4460	12.1960
 2.4470	12.1410
 2.4480	12.0840
 2.4490	12.0190
 2.4500	11.9670
 2.4510	11.9120
 2.4520	11.8630
 2.4530	11.8210
 2.4540	11.7790
 2.4550	11.7370
 2.4560	11.6780
 2.4570	11.6170
 2.4580	11.5610
 2.4590	11.5030
 2.4600	11.4670
 2.4610	11.4210
 2.4620	11.3770
 2.4630	11.3600
 2.4640	11.3340
 2.4650	11.3100
 2.4660	11.2550
 2.4670	11.1690
 2.4680	11.1010
 2.4690	11.0270
 2.4700	10.9780
 2.4710	10.9540
 2.4720	10.9170
 2.4730	10.8880
 2.4740	10.8610
 2.4750	10.8300
 2.4760	10.8140
 2.4770	10.8160
 2.4780	10.7900
 2.4790	10.7590
 2.4800	10.7400
 2.4810	10.6990
 2.4820	10.6870
 2.4830	10.6730
 2.4840	10.6290
 2.4850	10.6040
 2.4860	10.5990
 2.4870	10.5840
 2.4880	10.5540
 2.4890	10.5320
 2.4900	10.5160
 2.4910	10.4700
 2.4920	10.4590
 2.4930	10.4330
 2.4940	10.3500
 2.4950	10.3140
 2.4960	10.2930
 2.4970	10.3270
 2.4980	10.4220
 2.4990	10.5070
 2.5000	10.5830
