Name: Quercus lobata 3
Type: vegetation
Class: Tree
Genus: Quercus
Species: lobata
Sample No.: VH286
Owner: UCSB
Wavelength Range: VSWIR
Origin: 34.7151; -120.0588; WGS84
Collection Date: 11/2/2013
Description: Samples were collected as part of the HyspIRI Airborne Campaign. 48 individual plants were sampled in three times in 2013 - spring  summer  and fall. The name of the sample includes a 1  2  or 3 which references a different individual of the species. Samples were taken to JPL and processed within 48 hours of collection. The same leaves were processed in the Nicolet and then measured using the ASD.
Measurement: Bidirectional reflectance
First Column: X
Second Column: Y
X Units: Wavelength (micrometers)
Y Units: Reflectance (percentage)
First X Value: 0.35
Last X Value: 2.5
Number of X Values: 2151
Additional Information: vegetation.tree.quercus.lobata.vswir.vh286.ucsb.asd.ancillary.txt

 0.3500	 5.0440
 0.3510	 5.0440
 0.3520	 5.0390
 0.3530	 5.1190
 0.3540	 5.2670
 0.3550	 5.1960
 0.3560	 5.0600
 0.3570	 4.9960
 0.3580	 5.0790
 0.3590	 4.9660
 0.3600	 4.9210
 0.3610	 5.0130
 0.3620	 4.9520
 0.3630	 4.9330
 0.3640	 4.9620
 0.3650	 4.9980
 0.3660	 5.0140
 0.3670	 5.0220
 0.3680	 5.0000
 0.3690	 4.9190
 0.3700	 4.9830
 0.3710	 5.0470
 0.3720	 5.0270
 0.3730	 5.0470
 0.3740	 5.0800
 0.3750	 5.1000
 0.3760	 5.0870
 0.3770	 5.0660
 0.3780	 5.0680
 0.3790	 5.0960
 0.3800	 5.1320
 0.3810	 5.1990
 0.3820	 5.2270
 0.3830	 5.1950
 0.3840	 5.2040
 0.3850	 5.2080
 0.3860	 5.2300
 0.3870	 5.2940
 0.3880	 5.3140
 0.3890	 5.3000
 0.3900	 5.2820
 0.3910	 5.3010
 0.3920	 5.4120
 0.3930	 5.5020
 0.3940	 5.4990
 0.3950	 5.5220
 0.3960	 5.5190
 0.3970	 5.5050
 0.3980	 5.5220
 0.3990	 5.5780
 0.4000	 5.6240
 0.4010	 5.6540
 0.4020	 5.7250
 0.4030	 5.7860
 0.4040	 5.8130
 0.4050	 5.8110
 0.4060	 5.8370
 0.4070	 5.8840
 0.4080	 5.9350
 0.4090	 5.9720
 0.4100	 6.0190
 0.4110	 6.0710
 0.4120	 6.1210
 0.4130	 6.1610
 0.4140	 6.1980
 0.4150	 6.2380
 0.4160	 6.2890
 0.4170	 6.3430
 0.4180	 6.3830
 0.4190	 6.4190
 0.4200	 6.4880
 0.4210	 6.5260
 0.4220	 6.5560
 0.4230	 6.6020
 0.4240	 6.6440
 0.4250	 6.6830
 0.4260	 6.7220
 0.4270	 6.7660
 0.4280	 6.8190
 0.4290	 6.8580
 0.4300	 6.8850
 0.4310	 6.9350
 0.4320	 6.9710
 0.4330	 7.0030
 0.4340	 7.0480
 0.4350	 7.0810
 0.4360	 7.1110
 0.4370	 7.1430
 0.4380	 7.1730
 0.4390	 7.1880
 0.4400	 7.2070
 0.4410	 7.2440
 0.4420	 7.2720
 0.4430	 7.2990
 0.4440	 7.3190
 0.4450	 7.3280
 0.4460	 7.3620
 0.4470	 7.4000
 0.4480	 7.4280
 0.4490	 7.4450
 0.4500	 7.4530
 0.4510	 7.4690
 0.4520	 7.5040
 0.4530	 7.5240
 0.4540	 7.5420
 0.4550	 7.5680
 0.4560	 7.6070
 0.4570	 7.6190
 0.4580	 7.6260
 0.4590	 7.6440
 0.4600	 7.6620
 0.4610	 7.6760
 0.4620	 7.6960
 0.4630	 7.7310
 0.4640	 7.7510
 0.4650	 7.7670
 0.4660	 7.7830
 0.4670	 7.7960
 0.4680	 7.8240
 0.4690	 7.8430
 0.4700	 7.8410
 0.4710	 7.8650
 0.4720	 7.8930
 0.4730	 7.9130
 0.4740	 7.9220
 0.4750	 7.9300
 0.4760	 7.9370
 0.4770	 7.9470
 0.4780	 7.9720
 0.4790	 7.9800
 0.4800	 7.9820
 0.4810	 7.9940
 0.4820	 8.0120
 0.4830	 8.0260
 0.4840	 8.0370
 0.4850	 8.0580
 0.4860	 8.0770
 0.4870	 8.0990
 0.4880	 8.1250
 0.4890	 8.1510
 0.4900	 8.1750
 0.4910	 8.1960
 0.4920	 8.2160
 0.4930	 8.2360
 0.4940	 8.2640
 0.4950	 8.3000
 0.4960	 8.3410
 0.4970	 8.3800
 0.4980	 8.4210
 0.4990	 8.4680
 0.5000	 8.5140
 0.5010	 8.5720
 0.5020	 8.6390
 0.5030	 8.7020
 0.5040	 8.7740
 0.5050	 8.8630
 0.5060	 8.9640
 0.5070	 9.0560
 0.5080	 9.1620
 0.5090	 9.2890
 0.5100	 9.4330
 0.5110	 9.5870
 0.5120	 9.7510
 0.5130	 9.9290
 0.5140	10.1230
 0.5150	10.3430
 0.5160	10.5780
 0.5170	10.8210
 0.5180	11.0780
 0.5190	11.3500
 0.5200	11.6350
 0.5210	11.9320
 0.5220	12.2310
 0.5230	12.5300
 0.5240	12.8280
 0.5250	13.1300
 0.5260	13.4330
 0.5270	13.7260
 0.5280	14.0010
 0.5290	14.2800
 0.5300	14.5510
 0.5310	14.8050
 0.5320	15.0490
 0.5330	15.2800
 0.5340	15.4950
 0.5350	15.6970
 0.5360	15.8980
 0.5370	16.0880
 0.5380	16.2650
 0.5390	16.4360
 0.5400	16.5970
 0.5410	16.7560
 0.5420	16.9160
 0.5430	17.0600
 0.5440	17.2030
 0.5450	17.3440
 0.5460	17.4800
 0.5470	17.6000
 0.5480	17.7080
 0.5490	17.8080
 0.5500	17.9090
 0.5510	18.0000
 0.5520	18.0750
 0.5530	18.1300
 0.5540	18.1800
 0.5550	18.2180
 0.5560	18.2400
 0.5570	18.2420
 0.5580	18.2400
 0.5590	18.2320
 0.5600	18.2130
 0.5610	18.1780
 0.5620	18.1330
 0.5630	18.0840
 0.5640	18.0380
 0.5650	17.9890
 0.5660	17.9380
 0.5670	17.8820
 0.5680	17.8070
 0.5690	17.7350
 0.5700	17.6610
 0.5710	17.5770
 0.5720	17.4730
 0.5730	17.3690
 0.5740	17.2790
 0.5750	17.2080
 0.5760	17.1400
 0.5770	17.0720
 0.5780	17.0010
 0.5790	16.9260
 0.5800	16.8490
 0.5810	16.7730
 0.5820	16.6970
 0.5830	16.6300
 0.5840	16.5650
 0.5850	16.4990
 0.5860	16.4380
 0.5870	16.3880
 0.5880	16.3460
 0.5890	16.3110
 0.5900	16.2900
 0.5910	16.2800
 0.5920	16.2730
 0.5930	16.2640
 0.5940	16.2510
 0.5950	16.2320
 0.5960	16.2060
 0.5970	16.1680
 0.5980	16.1380
 0.5990	16.1090
 0.6000	16.0700
 0.6010	16.0410
 0.6020	16.0050
 0.6030	15.9600
 0.6040	15.9210
 0.6050	15.8610
 0.6060	15.7940
 0.6070	15.7310
 0.6080	15.6590
 0.6090	15.5790
 0.6100	15.4950
 0.6110	15.4090
 0.6120	15.3290
 0.6130	15.2430
 0.6140	15.1500
 0.6150	15.0640
 0.6160	14.9860
 0.6170	14.9140
 0.6180	14.8460
 0.6190	14.7810
 0.6200	14.7250
 0.6210	14.6800
 0.6220	14.6470
 0.6230	14.6180
 0.6240	14.5940
 0.6250	14.5750
 0.6260	14.5690
 0.6270	14.5710
 0.6280	14.5760
 0.6290	14.5830
 0.6300	14.5970
 0.6310	14.6080
 0.6320	14.6130
 0.6330	14.6160
 0.6340	14.6040
 0.6350	14.5800
 0.6360	14.5440
 0.6370	14.4850
 0.6380	14.4140
 0.6390	14.3300
 0.6400	14.2250
 0.6410	14.1110
 0.6420	13.9830
 0.6430	13.8440
 0.6440	13.7100
 0.6450	13.5710
 0.6460	13.4300
 0.6470	13.2940
 0.6480	13.1580
 0.6490	13.0390
 0.6500	12.9390
 0.6510	12.8440
 0.6520	12.7550
 0.6530	12.6730
 0.6540	12.5910
 0.6550	12.4920
 0.6560	12.3910
 0.6570	12.2830
 0.6580	12.1610
 0.6590	12.0280
 0.6600	11.8960
 0.6610	11.7640
 0.6620	11.6220
 0.6630	11.4830
 0.6640	11.3560
 0.6650	11.2420
 0.6660	11.1420
 0.6670	11.0550
 0.6680	10.9810
 0.6690	10.9200
 0.6700	10.8710
 0.6710	10.8370
 0.6720	10.8160
 0.6730	10.8010
 0.6740	10.7950
 0.6750	10.7980
 0.6760	10.8090
 0.6770	10.8320
 0.6780	10.8640
 0.6790	10.9070
 0.6800	10.9650
 0.6810	11.0430
 0.6820	11.1370
 0.6830	11.2530
 0.6840	11.4210
 0.6850	11.6170
 0.6860	11.8590
 0.6870	12.1700
 0.6880	12.5450
 0.6890	12.9860
 0.6900	13.5070
 0.6910	14.1260
 0.6920	14.8170
 0.6930	15.5860
 0.6940	16.4360
 0.6950	17.3470
 0.6960	18.3120
 0.6970	19.3230
 0.6980	20.3690
 0.6990	21.4300
 0.7000	22.4940
 0.7010	23.5480
 0.7020	24.5780
 0.7030	25.5740
 0.7040	26.5410
 0.7050	27.4770
 0.7060	28.3660
 0.7070	29.1960
 0.7080	29.9800
 0.7090	30.7370
 0.7100	31.4600
 0.7110	32.1460
 0.7120	32.7950
 0.7130	33.4030
 0.7140	33.9790
 0.7150	34.5330
 0.7160	35.0670
 0.7170	35.5670
 0.7180	36.0240
 0.7190	36.4560
 0.7200	36.8870
 0.7210	37.2810
 0.7220	37.6560
 0.7230	38.0210
 0.7240	38.3660
 0.7250	38.6740
 0.7260	38.9590
 0.7270	39.2380
 0.7280	39.5240
 0.7290	39.7730
 0.7300	39.9990
 0.7310	40.2320
 0.7320	40.4250
 0.7330	40.6190
 0.7340	40.8180
 0.7350	40.9850
 0.7360	41.1420
 0.7370	41.2850
 0.7380	41.4170
 0.7390	41.5680
 0.7400	41.7050
 0.7410	41.8250
 0.7420	41.9380
 0.7430	42.0460
 0.7440	42.1450
 0.7450	42.2290
 0.7460	42.2910
 0.7470	42.3650
 0.7480	42.4500
 0.7490	42.5340
 0.7500	42.5910
 0.7510	42.6550
 0.7520	42.7130
 0.7530	42.7440
 0.7540	42.7970
 0.7550	42.8430
 0.7560	42.8760
 0.7570	42.9130
 0.7580	42.9530
 0.7590	42.9910
 0.7600	43.0250
 0.7610	43.0580
 0.7620	43.0900
 0.7630	43.1190
 0.7640	43.1430
 0.7650	43.1530
 0.7660	43.1620
 0.7670	43.1830
 0.7680	43.2290
 0.7690	43.2410
 0.7700	43.2420
 0.7710	43.2540
 0.7720	43.2890
 0.7730	43.3120
 0.7740	43.3250
 0.7750	43.3360
 0.7760	43.3480
 0.7770	43.3630
 0.7780	43.3780
 0.7790	43.3930
 0.7800	43.4080
 0.7810	43.4210
 0.7820	43.4370
 0.7830	43.4710
 0.7840	43.4810
 0.7850	43.4850
 0.7860	43.4970
 0.7870	43.5160
 0.7880	43.5290
 0.7890	43.5440
 0.7900	43.5660
 0.7910	43.5830
 0.7920	43.5940
 0.7930	43.6060
 0.7940	43.6290
 0.7950	43.6590
 0.7960	43.6850
 0.7970	43.7010
 0.7980	43.7050
 0.7990	43.7230
 0.8000	43.7510
 0.8010	43.7780
 0.8020	43.8000
 0.8030	43.8270
 0.8040	43.8470
 0.8050	43.8460
 0.8060	43.8480
 0.8070	43.8620
 0.8080	43.8890
 0.8090	43.9210
 0.8100	43.9470
 0.8110	43.9620
 0.8120	43.9740
 0.8130	44.0090
 0.8140	44.0320
 0.8150	44.0410
 0.8160	44.0500
 0.8170	44.0990
 0.8180	44.1420
 0.8190	44.1630
 0.8200	44.1660
 0.8210	44.1860
 0.8220	44.2070
 0.8230	44.2250
 0.8240	44.2430
 0.8250	44.2680
 0.8260	44.2980
 0.8270	44.3280
 0.8280	44.3460
 0.8290	44.3580
 0.8300	44.3630
 0.8310	44.3690
 0.8320	44.4200
 0.8330	44.4580
 0.8340	44.4660
 0.8350	44.4570
 0.8360	44.4760
 0.8370	44.5090
 0.8380	44.5440
 0.8390	44.5760
 0.8400	44.5760
 0.8410	44.5910
 0.8420	44.6300
 0.8430	44.6340
 0.8440	44.6570
 0.8450	44.6880
 0.8460	44.7100
 0.8470	44.7300
 0.8480	44.7410
 0.8490	44.7480
 0.8500	44.7580
 0.8510	44.7760
 0.8520	44.7990
 0.8530	44.8300
 0.8540	44.8660
 0.8550	44.8550
 0.8560	44.8560
 0.8570	44.8880
 0.8580	44.9110
 0.8590	44.9290
 0.8600	44.9480
 0.8610	44.9610
 0.8620	44.9470
 0.8630	44.9680
 0.8640	44.9990
 0.8650	45.0050
 0.8660	44.9910
 0.8670	45.0030
 0.8680	45.0270
 0.8690	45.0370
 0.8700	45.0610
 0.8710	45.0650
 0.8720	45.0610
 0.8730	45.0810
 0.8740	45.0870
 0.8750	45.0890
 0.8760	45.0940
 0.8770	45.0980
 0.8780	45.1200
 0.8790	45.1260
 0.8800	45.1160
 0.8810	45.1400
 0.8820	45.1430
 0.8830	45.1400
 0.8840	45.1490
 0.8850	45.1530
 0.8860	45.1550
 0.8870	45.1530
 0.8880	45.1470
 0.8890	45.1380
 0.8900	45.1530
 0.8910	45.1710
 0.8920	45.1640
 0.8930	45.1690
 0.8940	45.1730
 0.8950	45.1670
 0.8960	45.1490
 0.8970	45.1470
 0.8980	45.1550
 0.8990	45.1640
 0.9000	45.1600
 0.9010	45.1470
 0.9020	45.1280
 0.9030	45.1200
 0.9040	45.1420
 0.9050	45.1280
 0.9060	45.1230
 0.9070	45.1530
 0.9080	45.1700
 0.9090	45.1710
 0.9100	45.1530
 0.9110	45.1310
 0.9120	45.1410
 0.9130	45.1430
 0.9140	45.1410
 0.9150	45.1460
 0.9160	45.1380
 0.9170	45.1110
 0.9180	45.0870
 0.9190	45.0940
 0.9200	45.1120
 0.9210	45.1150
 0.9220	45.0990
 0.9230	45.0760
 0.9240	45.0830
 0.9250	45.0910
 0.9260	45.0900
 0.9270	45.0850
 0.9280	45.0430
 0.9290	45.0150
 0.9300	45.0110
 0.9310	44.9970
 0.9320	44.9910
 0.9330	44.9930
 0.9340	44.9890
 0.9350	44.9640
 0.9360	44.9530
 0.9370	44.9420
 0.9380	44.9210
 0.9390	44.9030
 0.9400	44.8930
 0.9410	44.8860
 0.9420	44.8740
 0.9430	44.8450
 0.9440	44.8460
 0.9450	44.8370
 0.9460	44.7920
 0.9470	44.7700
 0.9480	44.7340
 0.9490	44.7060
 0.9500	44.6940
 0.9510	44.6500
 0.9520	44.6060
 0.9530	44.5660
 0.9540	44.5240
 0.9550	44.4790
 0.9560	44.4600
 0.9570	44.4510
 0.9580	44.4230
 0.9590	44.3440
 0.9600	44.2930
 0.9610	44.2690
 0.9620	44.2450
 0.9630	44.2140
 0.9640	44.2030
 0.9650	44.2010
 0.9660	44.1880
 0.9670	44.1780
 0.9680	44.1750
 0.9690	44.1730
 0.9700	44.1670
 0.9710	44.1920
 0.9720	44.1960
 0.9730	44.1890
 0.9740	44.2000
 0.9750	44.2120
 0.9760	44.2290
 0.9770	44.2430
 0.9780	44.2440
 0.9790	44.2470
 0.9800	44.2380
 0.9810	44.2420
 0.9820	44.2850
 0.9830	44.2900
 0.9840	44.3140
 0.9850	44.3290
 0.9860	44.2970
 0.9870	44.3140
 0.9880	44.3360
 0.9890	44.3610
 0.9900	44.4070
 0.9910	44.4300
 0.9920	44.4400
 0.9930	44.4560
 0.9940	44.4940
 0.9950	44.5290
 0.9960	44.5420
 0.9970	44.5450
 0.9980	44.5570
 0.9990	44.5570
 1.0000	44.6190
 1.0010	44.7080
 1.0020	44.7730
 1.0030	44.7950
 1.0040	44.8270
 1.0050	44.8630
 1.0060	44.8930
 1.0070	44.9230
 1.0080	44.9490
 1.0090	44.9660
 1.0100	44.9870
 1.0110	45.0030
 1.0120	45.0260
 1.0130	45.0520
 1.0140	45.0740
 1.0150	45.0960
 1.0160	45.1210
 1.0170	45.1440
 1.0180	45.1640
 1.0190	45.1850
 1.0200	45.2080
 1.0210	45.2270
 1.0220	45.2450
 1.0230	45.2680
 1.0240	45.2970
 1.0250	45.3200
 1.0260	45.3450
 1.0270	45.3670
 1.0280	45.3830
 1.0290	45.4010
 1.0300	45.4190
 1.0310	45.4370
 1.0320	45.4530
 1.0330	45.4690
 1.0340	45.4850
 1.0350	45.5000
 1.0360	45.5180
 1.0370	45.5390
 1.0380	45.5550
 1.0390	45.5680
 1.0400	45.5860
 1.0410	45.6030
 1.0420	45.6200
 1.0430	45.6420
 1.0440	45.6590
 1.0450	45.6700
 1.0460	45.6840
 1.0470	45.7010
 1.0480	45.7120
 1.0490	45.7190
 1.0500	45.7280
 1.0510	45.7340
 1.0520	45.7410
 1.0530	45.7490
 1.0540	45.7620
 1.0550	45.7720
 1.0560	45.7810
 1.0570	45.7900
 1.0580	45.8000
 1.0590	45.8070
 1.0600	45.8110
 1.0610	45.8160
 1.0620	45.8180
 1.0630	45.8240
 1.0640	45.8350
 1.0650	45.8410
 1.0660	45.8480
 1.0670	45.8520
 1.0680	45.8550
 1.0690	45.8520
 1.0700	45.8540
 1.0710	45.8560
 1.0720	45.8580
 1.0730	45.8640
 1.0740	45.8630
 1.0750	45.8590
 1.0760	45.8550
 1.0770	45.8470
 1.0780	45.8430
 1.0790	45.8410
 1.0800	45.8390
 1.0810	45.8400
 1.0820	45.8370
 1.0830	45.8340
 1.0840	45.8290
 1.0850	45.8220
 1.0860	45.8160
 1.0870	45.8090
 1.0880	45.8030
 1.0890	45.7940
 1.0900	45.7830
 1.0910	45.7740
 1.0920	45.7670
 1.0930	45.7590
 1.0940	45.7530
 1.0950	45.7450
 1.0960	45.7370
 1.0970	45.7260
 1.0980	45.7090
 1.0990	45.6970
 1.1000	45.6810
 1.1010	45.6700
 1.1020	45.6640
 1.1030	45.6590
 1.1040	45.6500
 1.1050	45.6390
 1.1060	45.6280
 1.1070	45.6150
 1.1080	45.6040
 1.1090	45.5960
 1.1100	45.5830
 1.1110	45.5650
 1.1120	45.5510
 1.1130	45.5380
 1.1140	45.5220
 1.1150	45.5090
 1.1160	45.4920
 1.1170	45.4700
 1.1180	45.4480
 1.1190	45.4250
 1.1200	45.4020
 1.1210	45.3770
 1.1220	45.3530
 1.1230	45.3270
 1.1240	45.2970
 1.1250	45.2640
 1.1260	45.2300
 1.1270	45.1900
 1.1280	45.1460
 1.1290	45.0970
 1.1300	45.0440
 1.1310	44.9850
 1.1320	44.9210
 1.1330	44.8520
 1.1340	44.7750
 1.1350	44.6960
 1.1360	44.6130
 1.1370	44.5230
 1.1380	44.4310
 1.1390	44.3360
 1.1400	44.2350
 1.1410	44.1330
 1.1420	44.0270
 1.1430	43.9180
 1.1440	43.8090
 1.1450	43.6970
 1.1460	43.5890
 1.1470	43.4800
 1.1480	43.3780
 1.1490	43.2790
 1.1500	43.1860
 1.1510	43.0980
 1.1520	43.0140
 1.1530	42.9340
 1.1540	42.8630
 1.1550	42.7970
 1.1560	42.7400
 1.1570	42.6900
 1.1580	42.6440
 1.1590	42.6040
 1.1600	42.5710
 1.1610	42.5420
 1.1620	42.5220
 1.1630	42.5060
 1.1640	42.4880
 1.1650	42.4760
 1.1660	42.4690
 1.1670	42.4610
 1.1680	42.4540
 1.1690	42.4510
 1.1700	42.4500
 1.1710	42.4470
 1.1720	42.4480
 1.1730	42.4470
 1.1740	42.4430
 1.1750	42.4400
 1.1760	42.4380
 1.1770	42.4350
 1.1780	42.4310
 1.1790	42.4280
 1.1800	42.4240
 1.1810	42.4190
 1.1820	42.4120
 1.1830	42.4050
 1.1840	42.4010
 1.1850	42.3980
 1.1860	42.3940
 1.1870	42.3910
 1.1880	42.3870
 1.1890	42.3770
 1.1900	42.3730
 1.1910	42.3720
 1.1920	42.3720
 1.1930	42.3760
 1.1940	42.3790
 1.1950	42.3840
 1.1960	42.3890
 1.1970	42.3960
 1.1980	42.4040
 1.1990	42.4120
 1.2000	42.4210
 1.2010	42.4290
 1.2020	42.4390
 1.2030	42.4500
 1.2040	42.4620
 1.2050	42.4770
 1.2060	42.4920
 1.2070	42.5070
 1.2080	42.5250
 1.2090	42.5410
 1.2100	42.5600
 1.2110	42.5780
 1.2120	42.5960
 1.2130	42.6160
 1.2140	42.6380
 1.2150	42.6590
 1.2160	42.6800
 1.2170	42.7040
 1.2180	42.7260
 1.2190	42.7470
 1.2200	42.7720
 1.2210	42.7960
 1.2220	42.8210
 1.2230	42.8490
 1.2240	42.8770
 1.2250	42.9040
 1.2260	42.9280
 1.2270	42.9490
 1.2280	42.9710
 1.2290	42.9920
 1.2300	43.0110
 1.2310	43.0320
 1.2320	43.0520
 1.2330	43.0720
 1.2340	43.0930
 1.2350	43.1150
 1.2360	43.1350
 1.2370	43.1550
 1.2380	43.1730
 1.2390	43.1930
 1.2400	43.2120
 1.2410	43.2290
 1.2420	43.2450
 1.2430	43.2570
 1.2440	43.2720
 1.2450	43.2880
 1.2460	43.3050
 1.2470	43.3230
 1.2480	43.3410
 1.2490	43.3570
 1.2500	43.3720
 1.2510	43.3840
 1.2520	43.3950
 1.2530	43.4040
 1.2540	43.4140
 1.2550	43.4210
 1.2560	43.4290
 1.2570	43.4370
 1.2580	43.4420
 1.2590	43.4480
 1.2600	43.4560
 1.2610	43.4630
 1.2620	43.4700
 1.2630	43.4790
 1.2640	43.4870
 1.2650	43.4900
 1.2660	43.4930
 1.2670	43.4960
 1.2680	43.4920
 1.2690	43.4910
 1.2700	43.4920
 1.2710	43.4890
 1.2720	43.4860
 1.2730	43.4860
 1.2740	43.4820
 1.2750	43.4760
 1.2760	43.4730
 1.2770	43.4680
 1.2780	43.4600
 1.2790	43.4540
 1.2800	43.4480
 1.2810	43.4390
 1.2820	43.4290
 1.2830	43.4200
 1.2840	43.4050
 1.2850	43.3920
 1.2860	43.3830
 1.2870	43.3700
 1.2880	43.3550
 1.2890	43.3400
 1.2900	43.3220
 1.2910	43.3000
 1.2920	43.2770
 1.2930	43.2500
 1.2940	43.2230
 1.2950	43.1920
 1.2960	43.1590
 1.2970	43.1260
 1.2980	43.0910
 1.2990	43.0540
 1.3000	43.0150
 1.3010	42.9730
 1.3020	42.9300
 1.3030	42.8850
 1.3040	42.8390
 1.3050	42.7930
 1.3060	42.7410
 1.3070	42.6840
 1.3080	42.6280
 1.3090	42.5650
 1.3100	42.5030
 1.3110	42.4390
 1.3120	42.3680
 1.3130	42.3000
 1.3140	42.2270
 1.3150	42.1500
 1.3160	42.0730
 1.3170	41.9960
 1.3180	41.9140
 1.3190	41.8310
 1.3200	41.7460
 1.3210	41.6550
 1.3220	41.5640
 1.3230	41.4700
 1.3240	41.3730
 1.3250	41.2740
 1.3260	41.1700
 1.3270	41.0660
 1.3280	40.9600
 1.3290	40.8510
 1.3300	40.7440
 1.3310	40.6310
 1.3320	40.5160
 1.3330	40.4010
 1.3340	40.2820
 1.3350	40.1620
 1.3360	40.0430
 1.3370	39.9230
 1.3380	39.8040
 1.3390	39.6860
 1.3400	39.5660
 1.3410	39.4470
 1.3420	39.3310
 1.3430	39.2140
 1.3440	39.1000
 1.3450	38.9860
 1.3460	38.8720
 1.3470	38.7590
 1.3480	38.6490
 1.3490	38.5390
 1.3500	38.4310
 1.3510	38.3240
 1.3520	38.2160
 1.3530	38.1080
 1.3540	37.9990
 1.3550	37.8920
 1.3560	37.7860
 1.3570	37.6800
 1.3580	37.5720
 1.3590	37.4580
 1.3600	37.3430
 1.3610	37.2230
 1.3620	37.0970
 1.3630	36.9670
 1.3640	36.8290
 1.3650	36.6820
 1.3660	36.5310
 1.3670	36.3730
 1.3680	36.2060
 1.3690	36.0290
 1.3700	35.8410
 1.3710	35.6410
 1.3720	35.4280
 1.3730	35.2040
 1.3740	34.9690
 1.3750	34.7190
 1.3760	34.4520
 1.3770	34.1650
 1.3780	33.8550
 1.3790	33.5230
 1.3800	33.1730
 1.3810	32.8020
 1.3820	32.4130
 1.3830	32.0060
 1.3840	31.5810
 1.3850	31.1360
 1.3860	30.6780
 1.3870	30.2000
 1.3880	29.7160
 1.3890	29.2190
 1.3900	28.7120
 1.3910	28.2050
 1.3920	27.6920
 1.3930	27.1750
 1.3940	26.6610
 1.3950	26.1440
 1.3960	25.6330
 1.3970	25.1290
 1.3980	24.6340
 1.3990	24.1560
 1.4000	23.6880
 1.4010	23.2350
 1.4020	22.8010
 1.4030	22.3810
 1.4040	21.9810
 1.4050	21.6030
 1.4060	21.2410
 1.4070	20.9030
 1.4080	20.5830
 1.4090	20.2820
 1.4100	20.0020
 1.4110	19.7400
 1.4120	19.5000
 1.4130	19.2780
 1.4140	19.0730
 1.4150	18.8870
 1.4160	18.7170
 1.4170	18.5610
 1.4180	18.4210
 1.4190	18.2920
 1.4200	18.1750
 1.4210	18.0690
 1.4220	17.9740
 1.4230	17.8900
 1.4240	17.8160
 1.4250	17.7490
 1.4260	17.6910
 1.4270	17.6390
 1.4280	17.5950
 1.4290	17.5560
 1.4300	17.5240
 1.4310	17.4970
 1.4320	17.4750
 1.4330	17.4590
 1.4340	17.4490
 1.4350	17.4420
 1.4360	17.4390
 1.4370	17.4390
 1.4380	17.4400
 1.4390	17.4440
 1.4400	17.4520
 1.4410	17.4640
 1.4420	17.4780
 1.4430	17.4930
 1.4440	17.5070
 1.4450	17.5210
 1.4460	17.5390
 1.4470	17.5570
 1.4480	17.5750
 1.4490	17.5940
 1.4500	17.6130
 1.4510	17.6330
 1.4520	17.6560
 1.4530	17.6810
 1.4540	17.7060
 1.4550	17.7330
 1.4560	17.7610
 1.4570	17.7920
 1.4580	17.8240
 1.4590	17.8590
 1.4600	17.8980
 1.4610	17.9380
 1.4620	17.9830
 1.4630	18.0330
 1.4640	18.0860
 1.4650	18.1440
 1.4660	18.2070
 1.4670	18.2730
 1.4680	18.3460
 1.4690	18.4210
 1.4700	18.4990
 1.4710	18.5830
 1.4720	18.6690
 1.4730	18.7570
 1.4740	18.8500
 1.4750	18.9450
 1.4760	19.0440
 1.4770	19.1440
 1.4780	19.2460
 1.4790	19.3520
 1.4800	19.4580
 1.4810	19.5660
 1.4820	19.6770
 1.4830	19.7880
 1.4840	19.9030
 1.4850	20.0180
 1.4860	20.1310
 1.4870	20.2450
 1.4880	20.3580
 1.4890	20.4710
 1.4900	20.5850
 1.4910	20.7000
 1.4920	20.8150
 1.4930	20.9300
 1.4940	21.0450
 1.4950	21.1610
 1.4960	21.2750
 1.4970	21.3880
 1.4980	21.5020
 1.4990	21.6140
 1.5000	21.7290
 1.5010	21.8460
 1.5020	21.9610
 1.5030	22.0750
 1.5040	22.1880
 1.5050	22.2990
 1.5060	22.4110
 1.5070	22.5250
 1.5080	22.6390
 1.5090	22.7530
 1.5100	22.8650
 1.5110	22.9760
 1.5120	23.0830
 1.5130	23.1890
 1.5140	23.2960
 1.5150	23.4050
 1.5160	23.5140
 1.5170	23.6230
 1.5180	23.7290
 1.5190	23.8340
 1.5200	23.9370
 1.5210	24.0370
 1.5220	24.1360
 1.5230	24.2360
 1.5240	24.3360
 1.5250	24.4350
 1.5260	24.5340
 1.5270	24.6310
 1.5280	24.7260
 1.5290	24.8200
 1.5300	24.9160
 1.5310	25.0110
 1.5320	25.1020
 1.5330	25.1950
 1.5340	25.2860
 1.5350	25.3740
 1.5360	25.4630
 1.5370	25.5500
 1.5380	25.6390
 1.5390	25.7270
 1.5400	25.8140
 1.5410	25.9000
 1.5420	25.9800
 1.5430	26.0590
 1.5440	26.1380
 1.5450	26.2140
 1.5460	26.2920
 1.5470	26.3720
 1.5480	26.4500
 1.5490	26.5310
 1.5500	26.6110
 1.5510	26.6860
 1.5520	26.7600
 1.5530	26.8330
 1.5540	26.9030
 1.5550	26.9750
 1.5560	27.0460
 1.5570	27.1160
 1.5580	27.1870
 1.5590	27.2580
 1.5600	27.3260
 1.5610	27.3930
 1.5620	27.4590
 1.5630	27.5280
 1.5640	27.5970
 1.5650	27.6650
 1.5660	27.7330
 1.5670	27.7980
 1.5680	27.8620
 1.5690	27.9260
 1.5700	27.9910
 1.5710	28.0540
 1.5720	28.1150
 1.5730	28.1760
 1.5740	28.2370
 1.5750	28.2960
 1.5760	28.3550
 1.5770	28.4130
 1.5780	28.4700
 1.5790	28.5250
 1.5800	28.5800
 1.5810	28.6340
 1.5820	28.6890
 1.5830	28.7450
 1.5840	28.8010
 1.5850	28.8560
 1.5860	28.9110
 1.5870	28.9660
 1.5880	29.0200
 1.5890	29.0720
 1.5900	29.1230
 1.5910	29.1750
 1.5920	29.2290
 1.5930	29.2820
 1.5940	29.3330
 1.5950	29.3830
 1.5960	29.4320
 1.5970	29.4800
 1.5980	29.5270
 1.5990	29.5740
 1.6000	29.6210
 1.6010	29.6660
 1.6020	29.7140
 1.6030	29.7640
 1.6040	29.8110
 1.6050	29.8580
 1.6060	29.9060
 1.6070	29.9530
 1.6080	30.0010
 1.6090	30.0490
 1.6100	30.0960
 1.6110	30.1420
 1.6120	30.1860
 1.6130	30.2270
 1.6140	30.2640
 1.6150	30.2980
 1.6160	30.3330
 1.6170	30.3690
 1.6180	30.4060
 1.6190	30.4440
 1.6200	30.4770
 1.6210	30.5070
 1.6220	30.5390
 1.6230	30.5680
 1.6240	30.6020
 1.6250	30.6380
 1.6260	30.6680
 1.6270	30.7010
 1.6280	30.7310
 1.6290	30.7620
 1.6300	30.7970
 1.6310	30.8260
 1.6320	30.8530
 1.6330	30.8780
 1.6340	30.9010
 1.6350	30.9240
 1.6360	30.9470
 1.6370	30.9650
 1.6380	30.9790
 1.6390	30.9940
 1.6400	31.0020
 1.6410	31.0150
 1.6420	31.0320
 1.6430	31.0450
 1.6440	31.0570
 1.6450	31.0650
 1.6460	31.0700
 1.6470	31.0740
 1.6480	31.0790
 1.6490	31.0830
 1.6500	31.0850
 1.6510	31.0840
 1.6520	31.0790
 1.6530	31.0710
 1.6540	31.0600
 1.6550	31.0540
 1.6560	31.0470
 1.6570	31.0410
 1.6580	31.0340
 1.6590	31.0260
 1.6600	31.0190
 1.6610	31.0120
 1.6620	31.0060
 1.6630	31.0000
 1.6640	30.9910
 1.6650	30.9810
 1.6660	30.9730
 1.6670	30.9660
 1.6680	30.9630
 1.6690	30.9640
 1.6700	30.9620
 1.6710	30.9610
 1.6720	30.9600
 1.6730	30.9520
 1.6740	30.9440
 1.6750	30.9350
 1.6760	30.9230
 1.6770	30.9170
 1.6780	30.9070
 1.6790	30.8950
 1.6800	30.8800
 1.6810	30.8560
 1.6820	30.8280
 1.6830	30.7990
 1.6840	30.7670
 1.6850	30.7390
 1.6860	30.7100
 1.6870	30.6780
 1.6880	30.6460
 1.6890	30.6060
 1.6900	30.5660
 1.6910	30.5240
 1.6920	30.4830
 1.6930	30.4410
 1.6940	30.4020
 1.6950	30.3660
 1.6960	30.3290
 1.6970	30.2950
 1.6980	30.2590
 1.6990	30.2200
 1.7000	30.1820
 1.7010	30.1430
 1.7020	30.1040
 1.7030	30.0660
 1.7040	30.0230
 1.7050	29.9770
 1.7060	29.9300
 1.7070	29.8760
 1.7080	29.8260
 1.7090	29.7750
 1.7100	29.7270
 1.7110	29.6800
 1.7120	29.6340
 1.7130	29.5910
 1.7140	29.5430
 1.7150	29.4980
 1.7160	29.4510
 1.7170	29.4020
 1.7180	29.3600
 1.7190	29.3180
 1.7200	29.2770
 1.7210	29.2410
 1.7220	29.2020
 1.7230	29.1650
 1.7240	29.1330
 1.7250	29.0990
 1.7260	29.0680
 1.7270	29.0400
 1.7280	29.0100
 1.7290	28.9840
 1.7300	28.9560
 1.7310	28.9290
 1.7320	28.9030
 1.7330	28.8760
 1.7340	28.8540
 1.7350	28.8250
 1.7360	28.7930
 1.7370	28.7590
 1.7380	28.7220
 1.7390	28.6830
 1.7400	28.6440
 1.7410	28.6010
 1.7420	28.5550
 1.7430	28.5080
 1.7440	28.4590
 1.7450	28.4080
 1.7460	28.3530
 1.7470	28.3010
 1.7480	28.2470
 1.7490	28.1940
 1.7500	28.1430
 1.7510	28.0900
 1.7520	28.0350
 1.7530	27.9820
 1.7540	27.9270
 1.7550	27.8730
 1.7560	27.8220
 1.7570	27.7750
 1.7580	27.7300
 1.7590	27.6880
 1.7600	27.6460
 1.7610	27.5990
 1.7620	27.5540
 1.7630	27.5040
 1.7640	27.4590
 1.7650	27.4180
 1.7660	27.3770
 1.7670	27.3390
 1.7680	27.3000
 1.7690	27.2610
 1.7700	27.2240
 1.7710	27.1870
 1.7720	27.1520
 1.7730	27.1190
 1.7740	27.0870
 1.7750	27.0530
 1.7760	27.0230
 1.7770	26.9960
 1.7780	26.9700
 1.7790	26.9470
 1.7800	26.9220
 1.7810	26.8950
 1.7820	26.8730
 1.7830	26.8550
 1.7840	26.8360
 1.7850	26.8190
 1.7860	26.8030
 1.7870	26.7860
 1.7880	26.7730
 1.7890	26.7640
 1.7900	26.7560
 1.7910	26.7470
 1.7920	26.7360
 1.7930	26.7290
 1.7940	26.7240
 1.7950	26.7200
 1.7960	26.7180
 1.7970	26.7160
 1.7980	26.7140
 1.7990	26.7100
 1.8000	26.7050
 1.8010	26.7030
 1.8020	26.6990
 1.8030	26.6990
 1.8040	26.7030
 1.8050	26.7060
 1.8060	26.7100
 1.8070	26.7130
 1.8080	26.7160
 1.8090	26.7180
 1.8100	26.7210
 1.8110	26.7210
 1.8120	26.7230
 1.8130	26.7220
 1.8140	26.7190
 1.8150	26.7180
 1.8160	26.7140
 1.8170	26.7090
 1.8180	26.7090
 1.8190	26.7100
 1.8200	26.7090
 1.8210	26.7090
 1.8220	26.7040
 1.8230	26.6930
 1.8240	26.6840
 1.8250	26.6750
 1.8260	26.6620
 1.8270	26.6450
 1.8280	26.6330
 1.8290	26.6230
 1.8300	26.6750
 1.8310	26.8040
 1.8320	26.8460
 1.8330	26.8210
 1.8340	26.7900
 1.8350	26.7560
 1.8360	26.7190
 1.8370	26.6840
 1.8380	26.6420
 1.8390	26.5920
 1.8400	26.5360
 1.8410	26.4750
 1.8420	26.4040
 1.8430	26.3310
 1.8440	26.2550
 1.8450	26.1790
 1.8460	26.0980
 1.8470	26.0060
 1.8480	25.9060
 1.8490	25.7930
 1.8500	25.6700
 1.8510	25.5330
 1.8520	25.3940
 1.8530	25.2420
 1.8540	25.0800
 1.8550	24.9100
 1.8560	24.7260
 1.8570	24.5270
 1.8580	24.3160
 1.8590	24.0940
 1.8600	23.8620
 1.8610	23.6120
 1.8620	23.3520
 1.8630	23.0850
 1.8640	22.8000
 1.8650	22.4990
 1.8660	22.1830
 1.8670	21.8450
 1.8680	21.4930
 1.8690	21.1250
 1.8700	20.7420
 1.8710	20.3440
 1.8720	19.9370
 1.8730	19.5170
 1.8740	19.0910
 1.8750	18.6600
 1.8760	18.2200
 1.8770	17.7810
 1.8780	17.3410
 1.8790	16.9000
 1.8800	16.4670
 1.8810	16.0380
 1.8820	15.6100
 1.8830	15.1850
 1.8840	14.7680
 1.8850	14.3610
 1.8860	13.9660
 1.8870	13.5830
 1.8880	13.2200
 1.8890	12.8750
 1.8900	12.5420
 1.8910	12.2290
 1.8920	11.9350
 1.8930	11.6590
 1.8940	11.4030
 1.8950	11.1680
 1.8960	10.9520
 1.8970	10.7550
 1.8980	10.5750
 1.8990	10.4140
 1.9000	10.2660
 1.9010	10.1390
 1.9020	10.0170
 1.9030	 9.9100
 1.9040	 9.8110
 1.9050	 9.7220
 1.9060	 9.6480
 1.9070	 9.5810
 1.9080	 9.5220
 1.9090	 9.4730
 1.9100	 9.4280
 1.9110	 9.3890
 1.9120	 9.3570
 1.9130	 9.3290
 1.9140	 9.3060
 1.9150	 9.2840
 1.9160	 9.2670
 1.9170	 9.2540
 1.9180	 9.2430
 1.9190	 9.2350
 1.9200	 9.2290
 1.9210	 9.2230
 1.9220	 9.2180
 1.9230	 9.2150
 1.9240	 9.2140
 1.9250	 9.2170
 1.9260	 9.2190
 1.9270	 9.2240
 1.9280	 9.2310
 1.9290	 9.2390
 1.9300	 9.2490
 1.9310	 9.2590
 1.9320	 9.2720
 1.9330	 9.2850
 1.9340	 9.2960
 1.9350	 9.3100
 1.9360	 9.3260
 1.9370	 9.3430
 1.9380	 9.3600
 1.9390	 9.3780
 1.9400	 9.3980
 1.9410	 9.4210
 1.9420	 9.4420
 1.9430	 9.4620
 1.9440	 9.4850
 1.9450	 9.5110
 1.9460	 9.5340
 1.9470	 9.5600
 1.9480	 9.5860
 1.9490	 9.6120
 1.9500	 9.6370
 1.9510	 9.6670
 1.9520	 9.6960
 1.9530	 9.7240
 1.9540	 9.7540
 1.9550	 9.7830
 1.9560	 9.8120
 1.9570	 9.8430
 1.9580	 9.8760
 1.9590	 9.9090
 1.9600	 9.9420
 1.9610	 9.9760
 1.9620	10.0110
 1.9630	10.0440
 1.9640	10.0760
 1.9650	10.1140
 1.9660	10.1540
 1.9670	10.1950
 1.9680	10.2350
 1.9690	10.2790
 1.9700	10.3210
 1.9710	10.3580
 1.9720	10.3990
 1.9730	10.4430
 1.9740	10.4830
 1.9750	10.5250
 1.9760	10.5720
 1.9770	10.6200
 1.9780	10.6730
 1.9790	10.7240
 1.9800	10.7770
 1.9810	10.8290
 1.9820	10.8800
 1.9830	10.9320
 1.9840	10.9850
 1.9850	11.0370
 1.9860	11.0900
 1.9870	11.1420
 1.9880	11.1960
 1.9890	11.2490
 1.9900	11.2990
 1.9910	11.3480
 1.9920	11.3990
 1.9930	11.4490
 1.9940	11.5030
 1.9950	11.5610
 1.9960	11.6170
 1.9970	11.6720
 1.9980	11.7290
 1.9990	11.7860
 2.0000	11.8430
 2.0010	11.9000
 2.0020	11.9590
 2.0030	12.0130
 2.0040	12.0670
 2.0050	12.1230
 2.0060	12.1790
 2.0070	12.2360
 2.0080	12.2970
 2.0090	12.3550
 2.0100	12.4140
 2.0110	12.4710
 2.0120	12.5250
 2.0130	12.5800
 2.0140	12.6310
 2.0150	12.6800
 2.0160	12.7330
 2.0170	12.7840
 2.0180	12.8360
 2.0190	12.8920
 2.0200	12.9430
 2.0210	12.9920
 2.0220	13.0420
 2.0230	13.0910
 2.0240	13.1390
 2.0250	13.1870
 2.0260	13.2340
 2.0270	13.2820
 2.0280	13.3280
 2.0290	13.3730
 2.0300	13.4200
 2.0310	13.4660
 2.0320	13.5110
 2.0330	13.5560
 2.0340	13.6000
 2.0350	13.6420
 2.0360	13.6800
 2.0370	13.7190
 2.0380	13.7580
 2.0390	13.7950
 2.0400	13.8290
 2.0410	13.8650
 2.0420	13.8990
 2.0430	13.9340
 2.0440	13.9680
 2.0450	14.0050
 2.0460	14.0380
 2.0470	14.0660
 2.0480	14.0980
 2.0490	14.1280
 2.0500	14.1600
 2.0510	14.1970
 2.0520	14.2290
 2.0530	14.2610
 2.0540	14.2920
 2.0550	14.3200
 2.0560	14.3480
 2.0570	14.3780
 2.0580	14.4080
 2.0590	14.4360
 2.0600	14.4650
 2.0610	14.4930
 2.0620	14.5190
 2.0630	14.5480
 2.0640	14.5800
 2.0650	14.6120
 2.0660	14.6480
 2.0670	14.6800
 2.0680	14.7130
 2.0690	14.7440
 2.0700	14.7740
 2.0710	14.8040
 2.0720	14.8340
 2.0730	14.8620
 2.0740	14.8900
 2.0750	14.9160
 2.0760	14.9470
 2.0770	14.9790
 2.0780	15.0120
 2.0790	15.0470
 2.0800	15.0810
 2.0810	15.1150
 2.0820	15.1450
 2.0830	15.1730
 2.0840	15.2000
 2.0850	15.2180
 2.0860	15.2410
 2.0870	15.2670
 2.0880	15.2940
 2.0890	15.3200
 2.0900	15.3500
 2.0910	15.3750
 2.0920	15.3960
 2.0930	15.4210
 2.0940	15.4450
 2.0950	15.4710
 2.0960	15.4980
 2.0970	15.5240
 2.0980	15.5500
 2.0990	15.5770
 2.1000	15.6070
 2.1010	15.6350
 2.1020	15.6630
 2.1030	15.6880
 2.1040	15.7120
 2.1050	15.7310
 2.1060	15.7550
 2.1070	15.7770
 2.1080	15.8050
 2.1090	15.8400
 2.1100	15.8680
 2.1110	15.8970
 2.1120	15.9220
 2.1130	15.9420
 2.1140	15.9650
 2.1150	15.9880
 2.1160	16.0130
 2.1170	16.0400
 2.1180	16.0640
 2.1190	16.0900
 2.1200	16.1140
 2.1210	16.1380
 2.1220	16.1580
 2.1230	16.1810
 2.1240	16.2040
 2.1250	16.2260
 2.1260	16.2460
 2.1270	16.2690
 2.1280	16.2930
 2.1290	16.3150
 2.1300	16.3390
 2.1310	16.3580
 2.1320	16.3720
 2.1330	16.3890
 2.1340	16.4050
 2.1350	16.4230
 2.1360	16.4450
 2.1370	16.4630
 2.1380	16.4810
 2.1390	16.4990
 2.1400	16.5140
 2.1410	16.5330
 2.1420	16.5550
 2.1430	16.5810
 2.1440	16.6040
 2.1450	16.6300
 2.1460	16.6510
 2.1470	16.6700
 2.1480	16.6880
 2.1490	16.7010
 2.1500	16.7190
 2.1510	16.7380
 2.1520	16.7580
 2.1530	16.7860
 2.1540	16.8070
 2.1550	16.8220
 2.1560	16.8410
 2.1570	16.8600
 2.1580	16.8770
 2.1590	16.8950
 2.1600	16.9090
 2.1610	16.9230
 2.1620	16.9330
 2.1630	16.9450
 2.1640	16.9580
 2.1650	16.9700
 2.1660	16.9810
 2.1670	16.9920
 2.1680	17.0000
 2.1690	17.0150
 2.1700	17.0360
 2.1710	17.0510
 2.1720	17.0700
 2.1730	17.0850
 2.1740	17.0890
 2.1750	17.1030
 2.1760	17.1240
 2.1770	17.1410
 2.1780	17.1580
 2.1790	17.1760
 2.1800	17.1940
 2.1810	17.2110
 2.1820	17.2270
 2.1830	17.2480
 2.1840	17.2650
 2.1850	17.2780
 2.1860	17.2950
 2.1870	17.3110
 2.1880	17.3310
 2.1890	17.3540
 2.1900	17.3710
 2.1910	17.3870
 2.1920	17.4010
 2.1930	17.4090
 2.1940	17.4200
 2.1950	17.4330
 2.1960	17.4470
 2.1970	17.4600
 2.1980	17.4770
 2.1990	17.4980
 2.2000	17.5150
 2.2010	17.5330
 2.2020	17.5510
 2.2030	17.5700
 2.2040	17.5860
 2.2050	17.5990
 2.2060	17.6120
 2.2070	17.6230
 2.2080	17.6280
 2.2090	17.6350
 2.2100	17.6430
 2.2110	17.6520
 2.2120	17.6610
 2.2130	17.6700
 2.2140	17.6830
 2.2150	17.6920
 2.2160	17.6990
 2.2170	17.7060
 2.2180	17.7100
 2.2190	17.7130
 2.2200	17.7170
 2.2210	17.7180
 2.2220	17.7160
 2.2230	17.7160
 2.2240	17.7180
 2.2250	17.7150
 2.2260	17.7130
 2.2270	17.7050
 2.2280	17.6880
 2.2290	17.6690
 2.2300	17.6450
 2.2310	17.6220
 2.2320	17.5960
 2.2330	17.5730
 2.2340	17.5450
 2.2350	17.5160
 2.2360	17.4840
 2.2370	17.4450
 2.2380	17.4140
 2.2390	17.3900
 2.2400	17.3530
 2.2410	17.3130
 2.2420	17.2710
 2.2430	17.2180
 2.2440	17.1700
 2.2450	17.1280
 2.2460	17.0780
 2.2470	17.0200
 2.2480	16.9690
 2.2490	16.9190
 2.2500	16.8690
 2.2510	16.8230
 2.2520	16.7770
 2.2530	16.7320
 2.2540	16.6870
 2.2550	16.6460
 2.2560	16.6000
 2.2570	16.5500
 2.2580	16.5030
 2.2590	16.4550
 2.2600	16.4080
 2.2610	16.3650
 2.2620	16.3190
 2.2630	16.2730
 2.2640	16.2270
 2.2650	16.1770
 2.2660	16.1330
 2.2670	16.0880
 2.2680	16.0420
 2.2690	15.9990
 2.2700	15.9590
 2.2710	15.9180
 2.2720	15.8790
 2.2730	15.8410
 2.2740	15.8010
 2.2750	15.7660
 2.2760	15.7340
 2.2770	15.6990
 2.2780	15.6640
 2.2790	15.6320
 2.2800	15.6020
 2.2810	15.5670
 2.2820	15.5310
 2.2830	15.4930
 2.2840	15.4460
 2.2850	15.4040
 2.2860	15.3690
 2.2870	15.3280
 2.2880	15.2850
 2.2890	15.2470
 2.2900	15.2110
 2.2910	15.1720
 2.2920	15.1350
 2.2930	15.0960
 2.2940	15.0470
 2.2950	15.0050
 2.2960	14.9720
 2.2970	14.9340
 2.2980	14.8970
 2.2990	14.8580
 2.3000	14.8110
 2.3010	14.7600
 2.3020	14.7110
 2.3030	14.6660
 2.3040	14.6280
 2.3050	14.5950
 2.3060	14.5630
 2.3070	14.5320
 2.3080	14.4930
 2.3090	14.4570
 2.3100	14.4340
 2.3110	14.4110
 2.3120	14.3900
 2.3130	14.3810
 2.3140	14.3640
 2.3150	14.3390
 2.3160	14.3200
 2.3170	14.3050
 2.3180	14.2890
 2.3190	14.2720
 2.3200	14.2570
 2.3210	14.2460
 2.3220	14.2260
 2.3230	14.2030
 2.3240	14.1790
 2.3250	14.1510
 2.3260	14.1210
 2.3270	14.0890
 2.3280	14.0560
 2.3290	14.0110
 2.3300	13.9800
 2.3310	13.9550
 2.3320	13.9290
 2.3330	13.9130
 2.3340	13.8820
 2.3350	13.8410
 2.3360	13.8030
 2.3370	13.7520
 2.3380	13.7170
 2.3390	13.6960
 2.3400	13.6650
 2.3410	13.6410
 2.3420	13.6100
 2.3430	13.5670
 2.3440	13.5300
 2.3450	13.4910
 2.3460	13.4610
 2.3470	13.4370
 2.3480	13.4170
 2.3490	13.4130
 2.3500	13.3920
 2.3510	13.3610
 2.3520	13.3360
 2.3530	13.3050
 2.3540	13.2750
 2.3550	13.2490
 2.3560	13.2220
 2.3570	13.1980
 2.3580	13.1710
 2.3590	13.1490
 2.3600	13.1300
 2.3610	13.1090
 2.3620	13.0860
 2.3630	13.0580
 2.3640	13.0300
 2.3650	13.0020
 2.3660	12.9760
 2.3670	12.9560
 2.3680	12.9370
 2.3690	12.9060
 2.3700	12.8670
 2.3710	12.8350
 2.3720	12.8040
 2.3730	12.7820
 2.3740	12.7660
 2.3750	12.7420
 2.3760	12.7210
 2.3770	12.6990
 2.3780	12.6710
 2.3790	12.6380
 2.3800	12.5940
 2.3810	12.5450
 2.3820	12.4990
 2.3830	12.4630
 2.3840	12.4340
 2.3850	12.4040
 2.3860	12.3750
 2.3870	12.3310
 2.3880	12.2820
 2.3890	12.2470
 2.3900	12.2080
 2.3910	12.1780
 2.3920	12.1640
 2.3930	12.1360
 2.3940	12.1020
 2.3950	12.0830
 2.3960	12.0550
 2.3970	12.0190
 2.3980	11.9930
 2.3990	11.9610
 2.4000	11.9140
 2.4010	11.8930
 2.4020	11.8800
 2.4030	11.8460
 2.4040	11.8300
 2.4050	11.7960
 2.4060	11.7310
 2.4070	11.6940
 2.4080	11.6590
 2.4090	11.6210
 2.4100	11.6030
 2.4110	11.5700
 2.4120	11.5220
 2.4130	11.4770
 2.4140	11.4240
 2.4150	11.3740
 2.4160	11.3320
 2.4170	11.2900
 2.4180	11.2630
 2.4190	11.2510
 2.4200	11.2330
 2.4210	11.2140
 2.4220	11.1920
 2.4230	11.1500
 2.4240	11.1000
 2.4250	11.0550
 2.4260	11.0160
 2.4270	10.9870
 2.4280	10.9640
 2.4290	10.9250
 2.4300	10.8920
 2.4310	10.8510
 2.4320	10.8130
 2.4330	10.8000
 2.4340	10.7680
 2.4350	10.7270
 2.4360	10.6940
 2.4370	10.6500
 2.4380	10.6030
 2.4390	10.5720
 2.4400	10.5430
 2.4410	10.5280
 2.4420	10.5150
 2.4430	10.5020
 2.4440	10.4910
 2.4450	10.4460
 2.4460	10.4030
 2.4470	10.3880
 2.4480	10.3600
 2.4490	10.3240
 2.4500	10.3070
 2.4510	10.2820
 2.4520	10.2430
 2.4530	10.2100
 2.4540	10.1810
 2.4550	10.1300
 2.4560	10.0760
 2.4570	10.0440
 2.4580	10.0090
 2.4590	 9.9790
 2.4600	 9.9550
 2.4610	 9.9310
 2.4620	 9.9220
 2.4630	 9.8910
 2.4640	 9.8540
 2.4650	 9.8220
 2.4660	 9.7540
 2.4670	 9.6930
 2.4680	 9.6590
 2.4690	 9.6420
 2.4700	 9.6290
 2.4710	 9.6310
 2.4720	 9.6430
 2.4730	 9.6710
 2.4740	 9.6680
 2.4750	 9.6590
 2.4760	 9.6520
 2.4770	 9.6190
 2.4780	 9.6000
 2.4790	 9.6160
 2.4800	 9.5970
 2.4810	 9.5330
 2.4820	 9.4990
 2.4830	 9.4510
 2.4840	 9.4120
 2.4850	 9.4000
 2.4860	 9.3780
 2.4870	 9.3900
 2.4880	 9.4200
 2.4890	 9.4380
 2.4900	 9.4660
 2.4910	 9.4830
 2.4920	 9.4560
 2.4930	 9.4540
 2.4940	 9.4620
 2.4950	 9.4100
 2.4960	 9.3550
 2.4970	 9.3090
 2.4980	 9.3400
 2.4990	 9.3900
 2.5000	 9.4430
