Name: Portulacaria afra 'Variegata'
Type: vegetation
Class: Shrub
Genus: Portulacaria
Species: afra_variegata
Sample No.: JPL066
Owner: JPL
Wavelength Range: VSWIR
Origin: 34.12675; - 118.10997; WGS84
Collection Date: 2/2/2016
Description: Samples were collected at the Huntington Garden in San Marino California as part of a JPL Subcontract studying HyTES imagery. Samples were taken to JPL and processed within 48 hours of collection. The same leaves were processed in the Nicolet and then measured using the ASD.
Measurement: Bidirectional reflectance
First Column: X
Second Column: Y
X Units: Wavelength (micrometer)
Y Units: Reflectance (percentage)
First X Value: 0.35
Last X Value: 2.5
Number of X Values: 2151
Additional Information: 

 0.3500	 1.7090
 0.3510	 2.1210
 0.3520	 2.0570
 0.3530	 2.6140
 0.3540	 4.1060
 0.3550	 3.0370
 0.3560	 2.7680
 0.3570	 3.4590
 0.3580	 3.6280
 0.3590	 2.9810
 0.3600	 2.6230
 0.3610	 2.8300
 0.3620	 2.5180
 0.3630	 2.3760
 0.3640	 2.7520
 0.3650	 3.5720
 0.3660	 3.8120
 0.3670	 3.6290
 0.3680	 3.2170
 0.3690	 2.8230
 0.3700	 2.7950
 0.3710	 2.7080
 0.3720	 2.4960
 0.3730	 2.9590
 0.3740	 3.1660
 0.3750	 2.9620
 0.3760	 2.6010
 0.3770	 2.8920
 0.3780	 2.6520
 0.3790	 2.0690
 0.3800	 2.4650
 0.3810	 3.1730
 0.3820	 3.2670
 0.3830	 2.7050
 0.3840	 3.3360
 0.3850	 3.7720
 0.3860	 3.6910
 0.3870	 3.2990
 0.3880	 3.3300
 0.3890	 3.1660
 0.3900	 2.7970
 0.3910	 2.9090
 0.3920	 3.3680
 0.3930	 3.5220
 0.3940	 3.0840
 0.3950	 2.9370
 0.3960	 3.0320
 0.3970	 3.1280
 0.3980	 2.9530
 0.3990	 2.8460
 0.4000	 3.0340
 0.4010	 3.3960
 0.4020	 3.3910
 0.4030	 3.2340
 0.4040	 3.2180
 0.4050	 3.4610
 0.4060	 3.4320
 0.4070	 3.3380
 0.4080	 3.3050
 0.4090	 3.3840
 0.4100	 3.4580
 0.4110	 3.6630
 0.4120	 3.9660
 0.4130	 3.9420
 0.4140	 4.1390
 0.4150	 4.3870
 0.4160	 4.3920
 0.4170	 4.4030
 0.4180	 4.6130
 0.4190	 4.8940
 0.4200	 4.8620
 0.4210	 5.0290
 0.4220	 5.3790
 0.4230	 5.7570
 0.4240	 5.9370
 0.4250	 6.0920
 0.4260	 6.3200
 0.4270	 6.6600
 0.4280	 7.0620
 0.4290	 7.3400
 0.4300	 7.4900
 0.4310	 7.7470
 0.4320	 7.9900
 0.4330	 8.2360
 0.4340	 8.5350
 0.4350	 8.9390
 0.4360	 9.3190
 0.4370	 9.5930
 0.4380	 9.7290
 0.4390	 9.9060
 0.4400	10.1010
 0.4410	10.2800
 0.4420	10.4490
 0.4430	10.6150
 0.4440	10.7710
 0.4450	10.9110
 0.4460	11.0520
 0.4470	11.1590
 0.4480	11.2550
 0.4490	11.4410
 0.4500	11.6360
 0.4510	11.7530
 0.4520	11.7890
 0.4530	12.0280
 0.4540	12.1180
 0.4550	12.1200
 0.4560	12.3260
 0.4570	12.4700
 0.4580	12.6320
 0.4590	12.8470
 0.4600	12.9870
 0.4610	13.0950
 0.4620	13.2020
 0.4630	13.3220
 0.4640	13.4030
 0.4650	13.5660
 0.4660	13.7500
 0.4670	13.7240
 0.4680	13.8030
 0.4690	13.9060
 0.4700	13.9290
 0.4710	13.9700
 0.4720	13.9520
 0.4730	13.9000
 0.4740	13.8920
 0.4750	13.9600
 0.4760	13.9470
 0.4770	13.8300
 0.4780	13.8270
 0.4790	13.7730
 0.4800	13.7140
 0.4810	13.7370
 0.4820	13.8290
 0.4830	13.9320
 0.4840	14.0430
 0.4850	14.2010
 0.4860	14.2740
 0.4870	14.3860
 0.4880	14.6080
 0.4890	14.7620
 0.4900	14.9280
 0.4910	15.1050
 0.4920	15.2630
 0.4930	15.4120
 0.4940	15.6350
 0.4950	15.9360
 0.4960	16.2130
 0.4970	16.3980
 0.4980	16.5660
 0.4990	16.8080
 0.5000	17.1100
 0.5010	17.3850
 0.5020	17.6170
 0.5030	17.8550
 0.5040	18.0970
 0.5050	18.3720
 0.5060	18.6770
 0.5070	18.9240
 0.5080	19.1540
 0.5090	19.3970
 0.5100	19.6700
 0.5110	19.9440
 0.5120	20.1990
 0.5130	20.4330
 0.5140	20.6710
 0.5150	20.9570
 0.5160	21.2410
 0.5170	21.4700
 0.5180	21.6480
 0.5190	21.8890
 0.5200	22.1720
 0.5210	22.3710
 0.5220	22.5720
 0.5230	22.7740
 0.5240	22.9720
 0.5250	23.1700
 0.5260	23.3720
 0.5270	23.5560
 0.5280	23.7020
 0.5290	23.8530
 0.5300	23.9930
 0.5310	24.1210
 0.5320	24.2610
 0.5330	24.4110
 0.5340	24.5470
 0.5350	24.6550
 0.5360	24.7790
 0.5370	24.8890
 0.5380	24.9920
 0.5390	25.1210
 0.5400	25.2760
 0.5410	25.4510
 0.5420	25.6250
 0.5430	25.7810
 0.5440	25.8760
 0.5450	25.9120
 0.5460	25.9080
 0.5470	25.8550
 0.5480	25.7930
 0.5490	25.7590
 0.5500	25.7770
 0.5510	25.8030
 0.5520	25.8170
 0.5530	25.8110
 0.5540	25.7960
 0.5550	25.7450
 0.5560	25.6780
 0.5570	25.6430
 0.5580	25.6450
 0.5590	25.6370
 0.5600	25.5970
 0.5610	25.5620
 0.5620	25.5440
 0.5630	25.5260
 0.5640	25.4880
 0.5650	25.5090
 0.5660	25.5380
 0.5670	25.5430
 0.5680	25.5260
 0.5690	25.5140
 0.5700	25.5080
 0.5710	25.4940
 0.5720	25.4360
 0.5730	25.3710
 0.5740	25.3220
 0.5750	25.3020
 0.5760	25.2740
 0.5770	25.2390
 0.5780	25.2030
 0.5790	25.1660
 0.5800	25.1500
 0.5810	25.1340
 0.5820	25.0940
 0.5830	25.0970
 0.5840	25.1100
 0.5850	25.1050
 0.5860	25.0720
 0.5870	25.0620
 0.5880	25.0530
 0.5890	25.0240
 0.5900	25.0110
 0.5910	25.0050
 0.5920	24.9960
 0.5930	24.9760
 0.5940	24.9610
 0.5950	24.9620
 0.5960	24.9750
 0.5970	24.9650
 0.5980	24.9780
 0.5990	25.0110
 0.6000	25.0360
 0.6010	24.9970
 0.6020	24.9460
 0.6030	24.9120
 0.6040	24.9000
 0.6050	24.8880
 0.6060	24.8580
 0.6070	24.8110
 0.6080	24.7710
 0.6090	24.7660
 0.6100	24.8060
 0.6110	24.8670
 0.6120	24.7980
 0.6130	24.6630
 0.6140	24.5270
 0.6150	24.4290
 0.6160	24.3410
 0.6170	24.2610
 0.6180	24.1930
 0.6190	24.1310
 0.6200	24.0930
 0.6210	24.0750
 0.6220	24.0530
 0.6230	24.0270
 0.6240	23.9910
 0.6250	23.9500
 0.6260	23.9300
 0.6270	23.9340
 0.6280	23.9500
 0.6290	23.9620
 0.6300	23.9670
 0.6310	23.9750
 0.6320	23.9840
 0.6330	23.9750
 0.6340	23.9740
 0.6350	23.9650
 0.6360	23.9300
 0.6370	23.8920
 0.6380	23.8430
 0.6390	23.7940
 0.6400	23.7650
 0.6410	23.7160
 0.6420	23.6540
 0.6430	23.5830
 0.6440	23.4990
 0.6450	23.4110
 0.6460	23.3300
 0.6470	23.2630
 0.6480	23.1870
 0.6490	23.1160
 0.6500	23.0490
 0.6510	22.9710
 0.6520	22.9090
 0.6530	22.8520
 0.6540	22.7880
 0.6550	22.7130
 0.6560	22.6210
 0.6570	22.5100
 0.6580	22.3820
 0.6590	22.2520
 0.6600	22.1120
 0.6610	21.9550
 0.6620	21.7780
 0.6630	21.6050
 0.6640	21.4460
 0.6650	21.2960
 0.6660	21.1180
 0.6670	20.9480
 0.6680	20.8020
 0.6690	20.6800
 0.6700	20.5590
 0.6710	20.4640
 0.6720	20.4020
 0.6730	20.3380
 0.6740	20.2920
 0.6750	20.2570
 0.6760	20.2270
 0.6770	20.2150
 0.6780	20.2320
 0.6790	20.2760
 0.6800	20.3390
 0.6810	20.4320
 0.6820	20.5720
 0.6830	20.7650
 0.6840	21.0070
 0.6850	21.3050
 0.6860	21.6560
 0.6870	22.0450
 0.6880	22.4400
 0.6890	22.8480
 0.6900	23.2750
 0.6910	23.7280
 0.6920	24.2190
 0.6930	24.7160
 0.6940	25.2000
 0.6950	25.6880
 0.6960	26.1910
 0.6970	26.6910
 0.6980	27.1700
 0.6990	27.6820
 0.7000	28.1940
 0.7010	28.6770
 0.7020	29.1170
 0.7030	29.5700
 0.7040	30.0210
 0.7050	30.4530
 0.7060	30.8740
 0.7070	31.2900
 0.7080	31.6820
 0.7090	32.0330
 0.7100	32.3980
 0.7110	32.7650
 0.7120	33.1150
 0.7130	33.4340
 0.7140	33.7310
 0.7150	34.0310
 0.7160	34.3420
 0.7170	34.6270
 0.7180	34.9120
 0.7190	35.1920
 0.7200	35.4510
 0.7210	35.6930
 0.7220	35.9280
 0.7230	36.1590
 0.7240	36.3790
 0.7250	36.5850
 0.7260	36.7690
 0.7270	36.9340
 0.7280	37.1080
 0.7290	37.2620
 0.7300	37.4010
 0.7310	37.5390
 0.7320	37.6350
 0.7330	37.7460
 0.7340	37.8710
 0.7350	37.9540
 0.7360	38.0550
 0.7370	38.1470
 0.7380	38.2130
 0.7390	38.2860
 0.7400	38.3630
 0.7410	38.4360
 0.7420	38.5000
 0.7430	38.5510
 0.7440	38.6070
 0.7450	38.6640
 0.7460	38.7010
 0.7470	38.7500
 0.7480	38.7980
 0.7490	38.8330
 0.7500	38.8630
 0.7510	38.8950
 0.7520	38.9260
 0.7530	38.9530
 0.7540	38.9880
 0.7550	39.0110
 0.7560	39.0210
 0.7570	39.0350
 0.7580	39.0490
 0.7590	39.0710
 0.7600	39.0970
 0.7610	39.1020
 0.7620	39.1150
 0.7630	39.1320
 0.7640	39.1470
 0.7650	39.1680
 0.7660	39.1850
 0.7670	39.1990
 0.7680	39.2160
 0.7690	39.2080
 0.7700	39.2050
 0.7710	39.2210
 0.7720	39.2260
 0.7730	39.2380
 0.7740	39.2550
 0.7750	39.2690
 0.7760	39.2570
 0.7770	39.2530
 0.7780	39.2660
 0.7790	39.2870
 0.7800	39.2800
 0.7810	39.2830
 0.7820	39.3050
 0.7830	39.3280
 0.7840	39.3230
 0.7850	39.3110
 0.7860	39.3100
 0.7870	39.3170
 0.7880	39.3270
 0.7890	39.3340
 0.7900	39.3350
 0.7910	39.3340
 0.7920	39.3330
 0.7930	39.3370
 0.7940	39.3450
 0.7950	39.3480
 0.7960	39.3370
 0.7970	39.3190
 0.7980	39.3190
 0.7990	39.3220
 0.8000	39.3180
 0.8010	39.3040
 0.8020	39.2900
 0.8030	39.2900
 0.8040	39.2950
 0.8050	39.2870
 0.8060	39.2940
 0.8070	39.2820
 0.8080	39.2550
 0.8090	39.2510
 0.8100	39.2490
 0.8110	39.2450
 0.8120	39.2370
 0.8130	39.2220
 0.8140	39.1940
 0.8150	39.1760
 0.8160	39.1780
 0.8170	39.1600
 0.8180	39.1400
 0.8190	39.1240
 0.8200	39.1090
 0.8210	39.0930
 0.8220	39.0870
 0.8230	39.0790
 0.8240	39.0410
 0.8250	39.0060
 0.8260	38.9770
 0.8270	38.9580
 0.8280	38.9610
 0.8290	38.9110
 0.8300	38.8600
 0.8310	38.8540
 0.8320	38.8180
 0.8330	38.7800
 0.8340	38.7510
 0.8350	38.7380
 0.8360	38.7400
 0.8370	38.7160
 0.8380	38.6780
 0.8390	38.6750
 0.8400	38.6960
 0.8410	38.6940
 0.8420	38.6610
 0.8430	38.6450
 0.8440	38.6400
 0.8450	38.6510
 0.8460	38.6670
 0.8470	38.6450
 0.8480	38.6190
 0.8490	38.6080
 0.8500	38.6190
 0.8510	38.6320
 0.8520	38.6300
 0.8530	38.6240
 0.8540	38.6350
 0.8550	38.6420
 0.8560	38.6360
 0.8570	38.6200
 0.8580	38.6100
 0.8590	38.6270
 0.8600	38.6410
 0.8610	38.6310
 0.8620	38.6100
 0.8630	38.6040
 0.8640	38.6230
 0.8650	38.6630
 0.8660	38.6910
 0.8670	38.6900
 0.8680	38.6700
 0.8690	38.6560
 0.8700	38.6830
 0.8710	38.7030
 0.8720	38.6990
 0.8730	38.6780
 0.8740	38.6500
 0.8750	38.6510
 0.8760	38.6750
 0.8770	38.6760
 0.8780	38.6840
 0.8790	38.6790
 0.8800	38.6640
 0.8810	38.6760
 0.8820	38.6680
 0.8830	38.6690
 0.8840	38.6870
 0.8850	38.6520
 0.8860	38.6360
 0.8870	38.6420
 0.8880	38.6540
 0.8890	38.6960
 0.8900	38.7030
 0.8910	38.6830
 0.8920	38.6730
 0.8930	38.6410
 0.8940	38.6160
 0.8950	38.6310
 0.8960	38.6950
 0.8970	38.6780
 0.8980	38.6420
 0.8990	38.6270
 0.9000	38.6260
 0.9010	38.6210
 0.9020	38.6140
 0.9030	38.6020
 0.9040	38.5660
 0.9050	38.5690
 0.9060	38.5920
 0.9070	38.6020
 0.9080	38.5740
 0.9090	38.5540
 0.9100	38.5290
 0.9110	38.4910
 0.9120	38.4860
 0.9130	38.4890
 0.9140	38.4720
 0.9150	38.4260
 0.9160	38.4050
 0.9170	38.3810
 0.9180	38.3440
 0.9190	38.2900
 0.9200	38.2500
 0.9210	38.2020
 0.9220	38.1350
 0.9230	38.0570
 0.9240	38.0280
 0.9250	37.9840
 0.9260	37.9040
 0.9270	37.8110
 0.9280	37.7510
 0.9290	37.6960
 0.9300	37.6070
 0.9310	37.4590
 0.9320	37.3500
 0.9330	37.2900
 0.9340	37.2290
 0.9350	37.0780
 0.9360	36.9250
 0.9370	36.8180
 0.9380	36.7480
 0.9390	36.6390
 0.9400	36.4580
 0.9410	36.2900
 0.9420	36.1800
 0.9430	36.0630
 0.9440	35.8910
 0.9450	35.7170
 0.9460	35.5740
 0.9470	35.3910
 0.9480	35.2160
 0.9490	35.0150
 0.9500	34.7790
 0.9510	34.6160
 0.9520	34.4090
 0.9530	34.1720
 0.9540	33.9380
 0.9550	33.6670
 0.9560	33.4420
 0.9570	33.2410
 0.9580	33.0360
 0.9590	32.9350
 0.9600	32.8140
 0.9610	32.6830
 0.9620	32.5930
 0.9630	32.5370
 0.9640	32.4340
 0.9650	32.3220
 0.9660	32.2680
 0.9670	32.2420
 0.9680	32.2070
 0.9690	32.1830
 0.9700	32.1870
 0.9710	32.0930
 0.9720	32.0520
 0.9730	32.0720
 0.9740	32.0880
 0.9750	32.0930
 0.9760	32.0670
 0.9770	32.0400
 0.9780	32.0610
 0.9790	32.1550
 0.9800	32.1460
 0.9810	32.0850
 0.9820	32.1040
 0.9830	32.1250
 0.9840	32.1320
 0.9850	32.1570
 0.9860	32.2320
 0.9870	32.2380
 0.9880	32.3140
 0.9890	32.3750
 0.9900	32.3020
 0.9910	32.3860
 0.9920	32.4910
 0.9930	32.5430
 0.9940	32.5260
 0.9950	32.4770
 0.9960	32.5910
 0.9970	32.7770
 0.9980	32.8510
 0.9990	32.8790
 1.0000	32.8450
 1.0010	33.2530
 1.0020	33.3550
 1.0030	33.4400
 1.0040	33.5110
 1.0050	33.5770
 1.0060	33.6400
 1.0070	33.7340
 1.0080	33.8180
 1.0090	33.9210
 1.0100	33.9900
 1.0110	34.0230
 1.0120	34.0910
 1.0130	34.1590
 1.0140	34.2340
 1.0150	34.3380
 1.0160	34.4340
 1.0170	34.5060
 1.0180	34.5690
 1.0190	34.6280
 1.0200	34.6960
 1.0210	34.7800
 1.0220	34.8690
 1.0230	34.9650
 1.0240	35.0860
 1.0250	35.1780
 1.0260	35.2670
 1.0270	35.3430
 1.0280	35.3910
 1.0290	35.4610
 1.0300	35.5430
 1.0310	35.6110
 1.0320	35.6740
 1.0330	35.7500
 1.0340	35.8150
 1.0350	35.8680
 1.0360	35.9300
 1.0370	35.9930
 1.0380	36.0590
 1.0390	36.1210
 1.0400	36.1880
 1.0410	36.2730
 1.0420	36.3360
 1.0430	36.3890
 1.0440	36.4400
 1.0450	36.4770
 1.0460	36.5210
 1.0470	36.5660
 1.0480	36.6120
 1.0490	36.6680
 1.0500	36.7110
 1.0510	36.7440
 1.0520	36.7810
 1.0530	36.8090
 1.0540	36.8220
 1.0550	36.8530
 1.0560	36.8930
 1.0570	36.9230
 1.0580	36.9640
 1.0590	36.9830
 1.0600	36.9790
 1.0610	36.9900
 1.0620	36.9990
 1.0630	37.0090
 1.0640	37.0220
 1.0650	37.0390
 1.0660	37.0630
 1.0670	37.0740
 1.0680	37.0800
 1.0690	37.0900
 1.0700	37.0890
 1.0710	37.0680
 1.0720	37.0660
 1.0730	37.0780
 1.0740	37.0680
 1.0750	37.0550
 1.0760	37.0390
 1.0770	37.0090
 1.0780	36.9830
 1.0790	36.9560
 1.0800	36.9370
 1.0810	36.9200
 1.0820	36.9010
 1.0830	36.8960
 1.0840	36.8760
 1.0850	36.8410
 1.0860	36.8080
 1.0870	36.7810
 1.0880	36.7510
 1.0890	36.7250
 1.0900	36.7130
 1.0910	36.6800
 1.0920	36.6360
 1.0930	36.5950
 1.0940	36.5410
 1.0950	36.4980
 1.0960	36.4600
 1.0970	36.4240
 1.0980	36.4030
 1.0990	36.3600
 1.1000	36.3000
 1.1010	36.2540
 1.1020	36.2030
 1.1030	36.1500
 1.1040	36.1130
 1.1050	36.0630
 1.1060	36.0110
 1.1070	35.9480
 1.1080	35.8890
 1.1090	35.8310
 1.1100	35.7690
 1.1110	35.6990
 1.1120	35.6400
 1.1130	35.5870
 1.1140	35.5250
 1.1150	35.4700
 1.1160	35.4030
 1.1170	35.3290
 1.1180	35.2470
 1.1190	35.1610
 1.1200	35.0620
 1.1210	34.9580
 1.1220	34.8450
 1.1230	34.7290
 1.1240	34.6050
 1.1250	34.4660
 1.1260	34.3290
 1.1270	34.1490
 1.1280	33.9450
 1.1290	33.7270
 1.1300	33.4790
 1.1310	33.2250
 1.1320	32.9690
 1.1330	32.6830
 1.1340	32.3760
 1.1350	32.0500
 1.1360	31.6960
 1.1370	31.3350
 1.1380	30.9600
 1.1390	30.5970
 1.1400	30.2390
 1.1410	29.8800
 1.1420	29.5290
 1.1430	29.1770
 1.1440	28.8320
 1.1450	28.4810
 1.1460	28.1560
 1.1470	27.8400
 1.1480	27.5480
 1.1490	27.2740
 1.1500	27.0250
 1.1510	26.7910
 1.1520	26.5830
 1.1530	26.4020
 1.1540	26.2360
 1.1550	26.0910
 1.1560	25.9620
 1.1570	25.8510
 1.1580	25.7520
 1.1590	25.6590
 1.1600	25.5770
 1.1610	25.5010
 1.1620	25.4350
 1.1630	25.3780
 1.1640	25.3290
 1.1650	25.2840
 1.1660	25.2410
 1.1670	25.2060
 1.1680	25.1800
 1.1690	25.1530
 1.1700	25.1320
 1.1710	25.1110
 1.1720	25.0860
 1.1730	25.0670
 1.1740	25.0580
 1.1750	25.0420
 1.1760	25.0210
 1.1770	25.0040
 1.1780	24.9740
 1.1790	24.9520
 1.1800	24.9360
 1.1810	24.9190
 1.1820	24.9080
 1.1830	24.8890
 1.1840	24.8620
 1.1850	24.8430
 1.1860	24.8270
 1.1870	24.8060
 1.1880	24.7850
 1.1890	24.7640
 1.1900	24.7430
 1.1910	24.7100
 1.1920	24.6980
 1.1930	24.6950
 1.1940	24.6940
 1.1950	24.7070
 1.1960	24.7100
 1.1970	24.7030
 1.1980	24.7080
 1.1990	24.7130
 1.2000	24.7230
 1.2010	24.7350
 1.2020	24.7530
 1.2030	24.7700
 1.2040	24.7900
 1.2050	24.8180
 1.2060	24.8350
 1.2070	24.8430
 1.2080	24.8490
 1.2090	24.8570
 1.2100	24.8780
 1.2110	24.9010
 1.2120	24.9390
 1.2130	24.9660
 1.2140	24.9860
 1.2150	25.0130
 1.2160	25.0440
 1.2170	25.0700
 1.2180	25.0980
 1.2190	25.1300
 1.2200	25.1540
 1.2210	25.1750
 1.2220	25.2060
 1.2230	25.2400
 1.2240	25.2720
 1.2250	25.2990
 1.2260	25.3250
 1.2270	25.3550
 1.2280	25.3780
 1.2290	25.4090
 1.2300	25.4450
 1.2310	25.4730
 1.2320	25.5060
 1.2330	25.5360
 1.2340	25.5630
 1.2350	25.5840
 1.2360	25.6060
 1.2370	25.6250
 1.2380	25.6520
 1.2390	25.6810
 1.2400	25.7140
 1.2410	25.7440
 1.2420	25.7740
 1.2430	25.8040
 1.2440	25.8200
 1.2450	25.8410
 1.2460	25.8650
 1.2470	25.8780
 1.2480	25.9130
 1.2490	25.9560
 1.2500	25.9830
 1.2510	26.0120
 1.2520	26.0230
 1.2530	26.0240
 1.2540	26.0370
 1.2550	26.0550
 1.2560	26.0740
 1.2570	26.0920
 1.2580	26.1000
 1.2590	26.1110
 1.2600	26.1220
 1.2610	26.1280
 1.2620	26.1310
 1.2630	26.1380
 1.2640	26.1440
 1.2650	26.1360
 1.2660	26.1390
 1.2670	26.1440
 1.2680	26.1350
 1.2690	26.1340
 1.2700	26.1240
 1.2710	26.1030
 1.2720	26.0780
 1.2730	26.0490
 1.2740	26.0190
 1.2750	25.9870
 1.2760	25.9590
 1.2770	25.9220
 1.2780	25.8830
 1.2790	25.8460
 1.2800	25.8030
 1.2810	25.7630
 1.2820	25.7220
 1.2830	25.6680
 1.2840	25.6090
 1.2850	25.5470
 1.2860	25.4760
 1.2870	25.4090
 1.2880	25.3440
 1.2890	25.2780
 1.2900	25.2080
 1.2910	25.1440
 1.2920	25.0720
 1.2930	24.9870
 1.2940	24.8910
 1.2950	24.7870
 1.2960	24.6810
 1.2970	24.5780
 1.2980	24.4870
 1.2990	24.3850
 1.3000	24.2700
 1.3010	24.1560
 1.3020	24.0380
 1.3030	23.9160
 1.3040	23.7980
 1.3050	23.6750
 1.3060	23.5450
 1.3070	23.4190
 1.3080	23.2800
 1.3090	23.1400
 1.3100	22.9960
 1.3110	22.8390
 1.3120	22.6850
 1.3130	22.5270
 1.3140	22.3670
 1.3150	22.2020
 1.3160	22.0410
 1.3170	21.8810
 1.3180	21.7200
 1.3190	21.5490
 1.3200	21.3760
 1.3210	21.1950
 1.3220	21.0130
 1.3230	20.8420
 1.3240	20.6730
 1.3250	20.5020
 1.3260	20.3320
 1.3270	20.1570
 1.3280	19.9740
 1.3290	19.7920
 1.3300	19.6180
 1.3310	19.4420
 1.3320	19.2700
 1.3330	19.1070
 1.3340	18.9420
 1.3350	18.7810
 1.3360	18.6190
 1.3370	18.4530
 1.3380	18.2850
 1.3390	18.1250
 1.3400	17.9770
 1.3410	17.8370
 1.3420	17.7020
 1.3430	17.5630
 1.3440	17.4250
 1.3450	17.2900
 1.3460	17.1520
 1.3470	17.0260
 1.3480	16.9090
 1.3490	16.7930
 1.3500	16.6820
 1.3510	16.5770
 1.3520	16.4650
 1.3530	16.3530
 1.3540	16.2420
 1.3550	16.1260
 1.3560	16.0120
 1.3570	15.9030
 1.3580	15.7920
 1.3590	15.6820
 1.3600	15.5690
 1.3610	15.4500
 1.3620	15.3290
 1.3630	15.2020
 1.3640	15.0730
 1.3650	14.9390
 1.3660	14.7990
 1.3670	14.6570
 1.3680	14.5040
 1.3690	14.3410
 1.3700	14.1730
 1.3710	13.9910
 1.3720	13.8000
 1.3730	13.6020
 1.3740	13.3950
 1.3750	13.1750
 1.3760	12.9470
 1.3770	12.7140
 1.3780	12.4670
 1.3790	12.2160
 1.3800	11.9560
 1.3810	11.6900
 1.3820	11.4230
 1.3830	11.1530
 1.3840	10.8830
 1.3850	10.6090
 1.3860	10.3360
 1.3870	10.0590
 1.3880	 9.7930
 1.3890	 9.5280
 1.3900	 9.2720
 1.3910	 9.0270
 1.3920	 8.7880
 1.3930	 8.5570
 1.3940	 8.3400
 1.3950	 8.1310
 1.3960	 7.9320
 1.3970	 7.7440
 1.3980	 7.5660
 1.3990	 7.4000
 1.4000	 7.2420
 1.4010	 7.0920
 1.4020	 6.9520
 1.4030	 6.8200
 1.4040	 6.6970
 1.4050	 6.5830
 1.4060	 6.4800
 1.4070	 6.3900
 1.4080	 6.3060
 1.4090	 6.2260
 1.4100	 6.1480
 1.4110	 6.0700
 1.4120	 6.0000
 1.4130	 5.9400
 1.4140	 5.8910
 1.4150	 5.8450
 1.4160	 5.8010
 1.4170	 5.7590
 1.4180	 5.7140
 1.4190	 5.6730
 1.4200	 5.6360
 1.4210	 5.5980
 1.4220	 5.5720
 1.4230	 5.5470
 1.4240	 5.5200
 1.4250	 5.4950
 1.4260	 5.4690
 1.4270	 5.4470
 1.4280	 5.4280
 1.4290	 5.4110
 1.4300	 5.3990
 1.4310	 5.3860
 1.4320	 5.3710
 1.4330	 5.3580
 1.4340	 5.3450
 1.4350	 5.3320
 1.4360	 5.3220
 1.4370	 5.3090
 1.4380	 5.2960
 1.4390	 5.2870
 1.4400	 5.2770
 1.4410	 5.2730
 1.4420	 5.2690
 1.4430	 5.2650
 1.4440	 5.2620
 1.4450	 5.2570
 1.4460	 5.2570
 1.4470	 5.2610
 1.4480	 5.2640
 1.4490	 5.2670
 1.4500	 5.2660
 1.4510	 5.2620
 1.4520	 5.2580
 1.4530	 5.2550
 1.4540	 5.2540
 1.4550	 5.2550
 1.4560	 5.2610
 1.4570	 5.2680
 1.4580	 5.2720
 1.4590	 5.2810
 1.4600	 5.2910
 1.4610	 5.3010
 1.4620	 5.3190
 1.4630	 5.3350
 1.4640	 5.3420
 1.4650	 5.3550
 1.4660	 5.3630
 1.4670	 5.3720
 1.4680	 5.3890
 1.4690	 5.4000
 1.4700	 5.4160
 1.4710	 5.4370
 1.4720	 5.4550
 1.4730	 5.4750
 1.4740	 5.4970
 1.4750	 5.5170
 1.4760	 5.5380
 1.4770	 5.5630
 1.4780	 5.5860
 1.4790	 5.6090
 1.4800	 5.6350
 1.4810	 5.6640
 1.4820	 5.6950
 1.4830	 5.7200
 1.4840	 5.7460
 1.4850	 5.7710
 1.4860	 5.7940
 1.4870	 5.8250
 1.4880	 5.8540
 1.4890	 5.8870
 1.4900	 5.9190
 1.4910	 5.9490
 1.4920	 5.9820
 1.4930	 6.0170
 1.4940	 6.0490
 1.4950	 6.0830
 1.4960	 6.1170
 1.4970	 6.1490
 1.4980	 6.1840
 1.4990	 6.2190
 1.5000	 6.2540
 1.5010	 6.2910
 1.5020	 6.3260
 1.5030	 6.3600
 1.5040	 6.3970
 1.5050	 6.4360
 1.5060	 6.4710
 1.5070	 6.5040
 1.5080	 6.5400
 1.5090	 6.5750
 1.5100	 6.6130
 1.5110	 6.6520
 1.5120	 6.6960
 1.5130	 6.7380
 1.5140	 6.7810
 1.5150	 6.8290
 1.5160	 6.8730
 1.5170	 6.9100
 1.5180	 6.9480
 1.5190	 6.9860
 1.5200	 7.0240
 1.5210	 7.0660
 1.5220	 7.1070
 1.5230	 7.1450
 1.5240	 7.1850
 1.5250	 7.2260
 1.5260	 7.2710
 1.5270	 7.3150
 1.5280	 7.3600
 1.5290	 7.4050
 1.5300	 7.4450
 1.5310	 7.4880
 1.5320	 7.5330
 1.5330	 7.5740
 1.5340	 7.6190
 1.5350	 7.6660
 1.5360	 7.7110
 1.5370	 7.7560
 1.5380	 7.7990
 1.5390	 7.8390
 1.5400	 7.8780
 1.5410	 7.9170
 1.5420	 7.9590
 1.5430	 8.0010
 1.5440	 8.0430
 1.5450	 8.0880
 1.5460	 8.1300
 1.5470	 8.1720
 1.5480	 8.2130
 1.5490	 8.2560
 1.5500	 8.2960
 1.5510	 8.3340
 1.5520	 8.3850
 1.5530	 8.4280
 1.5540	 8.4730
 1.5550	 8.5270
 1.5560	 8.5700
 1.5570	 8.6120
 1.5580	 8.6540
 1.5590	 8.6940
 1.5600	 8.7350
 1.5610	 8.7790
 1.5620	 8.8220
 1.5630	 8.8630
 1.5640	 8.9030
 1.5650	 8.9450
 1.5660	 8.9850
 1.5670	 9.0230
 1.5680	 9.0660
 1.5690	 9.1070
 1.5700	 9.1480
 1.5710	 9.1950
 1.5720	 9.2330
 1.5730	 9.2660
 1.5740	 9.3040
 1.5750	 9.3420
 1.5760	 9.3850
 1.5770	 9.4300
 1.5780	 9.4720
 1.5790	 9.5070
 1.5800	 9.5390
 1.5810	 9.5740
 1.5820	 9.6090
 1.5830	 9.6470
 1.5840	 9.6870
 1.5850	 9.7270
 1.5860	 9.7610
 1.5870	 9.7940
 1.5880	 9.8280
 1.5890	 9.8620
 1.5900	 9.8960
 1.5910	 9.9340
 1.5920	 9.9730
 1.5930	10.0100
 1.5940	10.0500
 1.5950	10.0920
 1.5960	10.1290
 1.5970	10.1630
 1.5980	10.1940
 1.5990	10.2210
 1.6000	10.2470
 1.6010	10.2770
 1.6020	10.3090
 1.6030	10.3420
 1.6040	10.3680
 1.6050	10.3970
 1.6060	10.4260
 1.6070	10.4550
 1.6080	10.4900
 1.6090	10.5190
 1.6100	10.5490
 1.6110	10.5820
 1.6120	10.6090
 1.6130	10.6370
 1.6140	10.6610
 1.6150	10.6830
 1.6160	10.7100
 1.6170	10.7370
 1.6180	10.7660
 1.6190	10.7960
 1.6200	10.8200
 1.6210	10.8460
 1.6220	10.8710
 1.6230	10.8920
 1.6240	10.9170
 1.6250	10.9400
 1.6260	10.9630
 1.6270	10.9900
 1.6280	11.0160
 1.6290	11.0410
 1.6300	11.0620
 1.6310	11.0840
 1.6320	11.1070
 1.6330	11.1280
 1.6340	11.1500
 1.6350	11.1710
 1.6360	11.1910
 1.6370	11.2100
 1.6380	11.2260
 1.6390	11.2430
 1.6400	11.2590
 1.6410	11.2720
 1.6420	11.2860
 1.6430	11.3010
 1.6440	11.3120
 1.6450	11.3250
 1.6460	11.3410
 1.6470	11.3600
 1.6480	11.3770
 1.6490	11.4000
 1.6500	11.4170
 1.6510	11.4250
 1.6520	11.4400
 1.6530	11.4520
 1.6540	11.4660
 1.6550	11.4880
 1.6560	11.5010
 1.6570	11.5120
 1.6580	11.5230
 1.6590	11.5240
 1.6600	11.5270
 1.6610	11.5310
 1.6620	11.5310
 1.6630	11.5390
 1.6640	11.5500
 1.6650	11.5580
 1.6660	11.5650
 1.6670	11.5690
 1.6680	11.5710
 1.6690	11.5740
 1.6700	11.5760
 1.6710	11.5860
 1.6720	11.5980
 1.6730	11.6110
 1.6740	11.6260
 1.6750	11.6260
 1.6760	11.6190
 1.6770	11.6190
 1.6780	11.6140
 1.6790	11.6110
 1.6800	11.6140
 1.6810	11.6080
 1.6820	11.6000
 1.6830	11.5980
 1.6840	11.5920
 1.6850	11.5870
 1.6860	11.5830
 1.6870	11.5740
 1.6880	11.5620
 1.6890	11.5430
 1.6900	11.5330
 1.6910	11.5280
 1.6920	11.5200
 1.6930	11.5160
 1.6940	11.5060
 1.6950	11.4890
 1.6960	11.4760
 1.6970	11.4660
 1.6980	11.4510
 1.6990	11.4330
 1.7000	11.4180
 1.7010	11.4000
 1.7020	11.3840
 1.7030	11.3760
 1.7040	11.3580
 1.7050	11.3370
 1.7060	11.3130
 1.7070	11.2810
 1.7080	11.2580
 1.7090	11.2380
 1.7100	11.2160
 1.7110	11.1980
 1.7120	11.1770
 1.7130	11.1510
 1.7140	11.1190
 1.7150	11.0910
 1.7160	11.0600
 1.7170	11.0240
 1.7180	11.0010
 1.7190	10.9790
 1.7200	10.9530
 1.7210	10.9230
 1.7220	10.8900
 1.7230	10.8590
 1.7240	10.8240
 1.7250	10.7980
 1.7260	10.7700
 1.7270	10.7300
 1.7280	10.6960
 1.7290	10.6640
 1.7300	10.6410
 1.7310	10.6120
 1.7320	10.5800
 1.7330	10.5520
 1.7340	10.5270
 1.7350	10.4960
 1.7360	10.4690
 1.7370	10.4360
 1.7380	10.3870
 1.7390	10.3500
 1.7400	10.3160
 1.7410	10.2840
 1.7420	10.2600
 1.7430	10.2270
 1.7440	10.1900
 1.7450	10.1550
 1.7460	10.1190
 1.7470	10.0800
 1.7480	10.0420
 1.7490	10.0000
 1.7500	 9.9500
 1.7510	 9.9070
 1.7520	 9.8680
 1.7530	 9.8270
 1.7540	 9.7890
 1.7550	 9.7520
 1.7560	 9.7070
 1.7570	 9.6670
 1.7580	 9.6270
 1.7590	 9.5960
 1.7600	 9.5650
 1.7610	 9.5160
 1.7620	 9.4770
 1.7630	 9.4310
 1.7640	 9.3920
 1.7650	 9.3670
 1.7660	 9.3410
 1.7670	 9.3190
 1.7680	 9.2900
 1.7690	 9.2590
 1.7700	 9.2290
 1.7710	 9.1870
 1.7720	 9.1580
 1.7730	 9.1340
 1.7740	 9.1150
 1.7750	 9.1090
 1.7760	 9.0900
 1.7770	 9.0670
 1.7780	 9.0450
 1.7790	 9.0120
 1.7800	 8.9930
 1.7810	 8.9840
 1.7820	 8.9700
 1.7830	 8.9580
 1.7840	 8.9440
 1.7850	 8.9230
 1.7860	 8.9160
 1.7870	 8.9130
 1.7880	 8.9150
 1.7890	 8.9100
 1.7900	 8.9040
 1.7910	 8.8970
 1.7920	 8.8920
 1.7930	 8.8870
 1.7940	 8.8790
 1.7950	 8.8760
 1.7960	 8.8810
 1.7970	 8.8840
 1.7980	 8.8970
 1.7990	 8.8930
 1.8000	 8.8700
 1.8010	 8.8660
 1.8020	 8.8600
 1.8030	 8.8590
 1.8040	 8.8780
 1.8050	 8.8820
 1.8060	 8.8730
 1.8070	 8.8730
 1.8080	 8.8760
 1.8090	 8.8770
 1.8100	 8.8770
 1.8110	 8.8890
 1.8120	 8.8930
 1.8130	 8.8950
 1.8140	 8.8930
 1.8150	 8.8770
 1.8160	 8.8580
 1.8170	 8.8460
 1.8180	 8.8440
 1.8190	 8.8550
 1.8200	 8.8600
 1.8210	 8.8760
 1.8220	 8.8780
 1.8230	 8.8690
 1.8240	 8.8590
 1.8250	 8.8350
 1.8260	 8.8230
 1.8270	 8.8130
 1.8280	 8.8020
 1.8290	 8.8020
 1.8300	 8.7830
 1.8310	 8.8450
 1.8320	 8.8230
 1.8330	 8.7970
 1.8340	 8.7880
 1.8350	 8.7730
 1.8360	 8.7420
 1.8370	 8.7190
 1.8380	 8.6950
 1.8390	 8.6660
 1.8400	 8.6370
 1.8410	 8.5990
 1.8420	 8.5560
 1.8430	 8.5110
 1.8440	 8.4590
 1.8450	 8.4100
 1.8460	 8.3740
 1.8470	 8.3190
 1.8480	 8.2710
 1.8490	 8.2240
 1.8500	 8.1600
 1.8510	 8.0810
 1.8520	 8.0200
 1.8530	 7.9440
 1.8540	 7.8550
 1.8550	 7.7860
 1.8560	 7.7050
 1.8570	 7.6070
 1.8580	 7.5130
 1.8590	 7.4160
 1.8600	 7.3150
 1.8610	 7.2030
 1.8620	 7.0970
 1.8630	 6.9800
 1.8640	 6.8610
 1.8650	 6.7470
 1.8660	 6.6240
 1.8670	 6.5220
 1.8680	 6.4240
 1.8690	 6.3170
 1.8700	 6.2140
 1.8710	 6.1240
 1.8720	 6.0100
 1.8730	 5.8780
 1.8740	 5.7540
 1.8750	 5.6180
 1.8760	 5.4930
 1.8770	 5.3810
 1.8780	 5.2650
 1.8790	 5.1580
 1.8800	 5.0460
 1.8810	 4.9310
 1.8820	 4.8110
 1.8830	 4.7050
 1.8840	 4.5920
 1.8850	 4.4790
 1.8860	 4.3920
 1.8870	 4.3040
 1.8880	 4.2200
 1.8890	 4.1450
 1.8900	 4.0690
 1.8910	 3.9930
 1.8920	 3.9190
 1.8930	 3.8360
 1.8940	 3.7660
 1.8950	 3.7050
 1.8960	 3.6350
 1.8970	 3.5920
 1.8980	 3.5500
 1.8990	 3.5010
 1.9000	 3.4610
 1.9010	 3.4290
 1.9020	 3.3960
 1.9030	 3.3650
 1.9040	 3.3360
 1.9050	 3.3190
 1.9060	 3.2990
 1.9070	 3.2780
 1.9080	 3.2680
 1.9090	 3.2560
 1.9100	 3.2400
 1.9110	 3.2230
 1.9120	 3.2070
 1.9130	 3.1920
 1.9140	 3.1670
 1.9150	 3.1580
 1.9160	 3.1540
 1.9170	 3.1410
 1.9180	 3.1450
 1.9190	 3.1580
 1.9200	 3.1660
 1.9210	 3.1640
 1.9220	 3.1550
 1.9230	 3.1260
 1.9240	 3.1080
 1.9250	 3.0790
 1.9260	 3.0740
 1.9270	 3.0930
 1.9280	 3.1020
 1.9290	 3.1070
 1.9300	 3.1180
 1.9310	 3.1100
 1.9320	 3.0920
 1.9330	 3.0900
 1.9340	 3.0960
 1.9350	 3.1000
 1.9360	 3.1140
 1.9370	 3.1200
 1.9380	 3.1220
 1.9390	 3.1220
 1.9400	 3.1230
 1.9410	 3.1190
 1.9420	 3.1210
 1.9430	 3.1300
 1.9440	 3.1320
 1.9450	 3.1360
 1.9460	 3.1360
 1.9470	 3.1220
 1.9480	 3.1210
 1.9490	 3.1200
 1.9500	 3.1370
 1.9510	 3.1600
 1.9520	 3.1840
 1.9530	 3.1910
 1.9540	 3.1950
 1.9550	 3.2110
 1.9560	 3.2280
 1.9570	 3.2420
 1.9580	 3.2720
 1.9590	 3.2830
 1.9600	 3.2730
 1.9610	 3.2700
 1.9620	 3.2670
 1.9630	 3.2620
 1.9640	 3.2590
 1.9650	 3.2540
 1.9660	 3.2520
 1.9670	 3.2600
 1.9680	 3.2710
 1.9690	 3.2890
 1.9700	 3.3040
 1.9710	 3.3240
 1.9720	 3.3380
 1.9730	 3.3430
 1.9740	 3.3610
 1.9750	 3.3830
 1.9760	 3.4020
 1.9770	 3.4130
 1.9780	 3.4150
 1.9790	 3.4300
 1.9800	 3.4410
 1.9810	 3.4550
 1.9820	 3.4880
 1.9830	 3.5030
 1.9840	 3.5070
 1.9850	 3.5120
 1.9860	 3.5080
 1.9870	 3.5030
 1.9880	 3.5140
 1.9890	 3.5190
 1.9900	 3.5470
 1.9910	 3.5840
 1.9920	 3.6070
 1.9930	 3.6340
 1.9940	 3.6500
 1.9950	 3.6560
 1.9960	 3.6580
 1.9970	 3.6390
 1.9980	 3.6430
 1.9990	 3.6560
 2.0000	 3.6670
 2.0010	 3.6720
 2.0020	 3.7070
 2.0030	 3.7290
 2.0040	 3.7390
 2.0050	 3.7580
 2.0060	 3.7910
 2.0070	 3.8100
 2.0080	 3.8190
 2.0090	 3.8340
 2.0100	 3.8540
 2.0110	 3.8620
 2.0120	 3.8640
 2.0130	 3.8630
 2.0140	 3.8560
 2.0150	 3.8600
 2.0160	 3.8740
 2.0170	 3.8850
 2.0180	 3.9030
 2.0190	 3.9280
 2.0200	 3.9480
 2.0210	 3.9760
 2.0220	 3.9920
 2.0230	 3.9890
 2.0240	 4.0050
 2.0250	 4.0280
 2.0260	 4.0480
 2.0270	 4.0760
 2.0280	 4.1090
 2.0290	 4.1130
 2.0300	 4.1110
 2.0310	 4.1150
 2.0320	 4.1050
 2.0330	 4.1120
 2.0340	 4.1260
 2.0350	 4.1450
 2.0360	 4.1780
 2.0370	 4.1970
 2.0380	 4.2170
 2.0390	 4.2320
 2.0400	 4.2360
 2.0410	 4.2440
 2.0420	 4.2510
 2.0430	 4.2580
 2.0440	 4.2750
 2.0450	 4.3010
 2.0460	 4.3120
 2.0470	 4.3230
 2.0480	 4.3360
 2.0490	 4.3350
 2.0500	 4.3450
 2.0510	 4.3730
 2.0520	 4.3890
 2.0530	 4.3950
 2.0540	 4.4100
 2.0550	 4.4290
 2.0560	 4.4440
 2.0570	 4.4750
 2.0580	 4.4860
 2.0590	 4.5010
 2.0600	 4.5170
 2.0610	 4.5270
 2.0620	 4.5300
 2.0630	 4.5400
 2.0640	 4.5470
 2.0650	 4.5530
 2.0660	 4.5520
 2.0670	 4.5630
 2.0680	 4.5760
 2.0690	 4.5940
 2.0700	 4.6300
 2.0710	 4.6610
 2.0720	 4.6940
 2.0730	 4.7250
 2.0740	 4.7480
 2.0750	 4.7720
 2.0760	 4.7830
 2.0770	 4.7820
 2.0780	 4.7830
 2.0790	 4.7750
 2.0800	 4.7740
 2.0810	 4.7670
 2.0820	 4.7780
 2.0830	 4.8120
 2.0840	 4.8260
 2.0850	 4.8410
 2.0860	 4.8520
 2.0870	 4.8480
 2.0880	 4.8390
 2.0890	 4.8560
 2.0900	 4.8930
 2.0910	 4.9100
 2.0920	 4.9300
 2.0930	 4.9490
 2.0940	 4.9550
 2.0950	 4.9680
 2.0960	 4.9870
 2.0970	 5.0090
 2.0980	 5.0300
 2.0990	 5.0530
 2.1000	 5.0890
 2.1010	 5.1110
 2.1020	 5.1270
 2.1030	 5.1360
 2.1040	 5.1260
 2.1050	 5.1300
 2.1060	 5.1390
 2.1070	 5.1510
 2.1080	 5.1560
 2.1090	 5.1670
 2.1100	 5.1790
 2.1110	 5.1880
 2.1120	 5.1930
 2.1130	 5.2020
 2.1140	 5.2130
 2.1150	 5.2130
 2.1160	 5.2190
 2.1170	 5.2330
 2.1180	 5.2530
 2.1190	 5.2740
 2.1200	 5.2950
 2.1210	 5.3240
 2.1220	 5.3540
 2.1230	 5.3760
 2.1240	 5.3900
 2.1250	 5.4090
 2.1260	 5.4290
 2.1270	 5.4390
 2.1280	 5.4450
 2.1290	 5.4490
 2.1300	 5.4400
 2.1310	 5.4440
 2.1320	 5.4560
 2.1330	 5.4630
 2.1340	 5.4690
 2.1350	 5.4790
 2.1360	 5.4800
 2.1370	 5.4940
 2.1380	 5.5280
 2.1390	 5.5470
 2.1400	 5.5670
 2.1410	 5.5860
 2.1420	 5.5920
 2.1430	 5.5840
 2.1440	 5.5760
 2.1450	 5.5540
 2.1460	 5.5500
 2.1470	 5.5460
 2.1480	 5.5500
 2.1490	 5.5700
 2.1500	 5.5840
 2.1510	 5.5980
 2.1520	 5.6100
 2.1530	 5.6260
 2.1540	 5.6350
 2.1550	 5.6360
 2.1560	 5.6440
 2.1570	 5.6430
 2.1580	 5.6610
 2.1590	 5.7050
 2.1600	 5.7300
 2.1610	 5.7560
 2.1620	 5.7790
 2.1630	 5.8010
 2.1640	 5.8110
 2.1650	 5.8230
 2.1660	 5.8460
 2.1670	 5.8430
 2.1680	 5.8100
 2.1690	 5.8030
 2.1700	 5.7900
 2.1710	 5.7880
 2.1720	 5.8100
 2.1730	 5.8150
 2.1740	 5.8170
 2.1750	 5.8140
 2.1760	 5.8030
 2.1770	 5.7940
 2.1780	 5.7680
 2.1790	 5.7650
 2.1800	 5.7790
 2.1810	 5.7900
 2.1820	 5.8110
 2.1830	 5.8460
 2.1840	 5.8530
 2.1850	 5.8470
 2.1860	 5.8410
 2.1870	 5.8110
 2.1880	 5.8170
 2.1890	 5.8420
 2.1900	 5.8510
 2.1910	 5.8780
 2.1920	 5.8870
 2.1930	 5.8740
 2.1940	 5.8700
 2.1950	 5.8570
 2.1960	 5.8660
 2.1970	 5.8900
 2.1980	 5.9030
 2.1990	 5.9400
 2.2000	 5.9470
 2.2010	 5.9200
 2.2020	 5.9040
 2.2030	 5.8680
 2.2040	 5.8490
 2.2050	 5.8470
 2.2060	 5.8350
 2.2070	 5.8280
 2.2080	 5.8300
 2.2090	 5.8310
 2.2100	 5.8350
 2.2110	 5.8310
 2.2120	 5.8230
 2.2130	 5.8230
 2.2140	 5.8200
 2.2150	 5.8170
 2.2160	 5.8210
 2.2170	 5.8230
 2.2180	 5.8070
 2.2190	 5.8170
 2.2200	 5.8590
 2.2210	 5.8690
 2.2220	 5.8760
 2.2230	 5.8760
 2.2240	 5.8400
 2.2250	 5.8330
 2.2260	 5.8480
 2.2270	 5.8470
 2.2280	 5.8400
 2.2290	 5.8390
 2.2300	 5.8270
 2.2310	 5.8270
 2.2320	 5.8290
 2.2330	 5.8380
 2.2340	 5.8210
 2.2350	 5.7840
 2.2360	 5.7590
 2.2370	 5.7240
 2.2380	 5.6990
 2.2390	 5.6780
 2.2400	 5.6660
 2.2410	 5.6490
 2.2420	 5.6560
 2.2430	 5.6860
 2.2440	 5.7080
 2.2450	 5.7530
 2.2460	 5.7650
 2.2470	 5.7630
 2.2480	 5.7530
 2.2490	 5.7180
 2.2500	 5.6930
 2.2510	 5.6490
 2.2520	 5.6380
 2.2530	 5.6550
 2.2540	 5.6540
 2.2550	 5.6800
 2.2560	 5.6770
 2.2570	 5.6280
 2.2580	 5.6080
 2.2590	 5.6010
 2.2600	 5.5820
 2.2610	 5.5770
 2.2620	 5.5600
 2.2630	 5.5160
 2.2640	 5.4900
 2.2650	 5.4720
 2.2660	 5.4900
 2.2670	 5.4910
 2.2680	 5.5130
 2.2690	 5.5000
 2.2700	 5.4630
 2.2710	 5.4400
 2.2720	 5.4050
 2.2730	 5.3890
 2.2740	 5.3980
 2.2750	 5.3790
 2.2760	 5.3510
 2.2770	 5.3330
 2.2780	 5.2960
 2.2790	 5.2830
 2.2800	 5.2930
 2.2810	 5.2930
 2.2820	 5.3060
 2.2830	 5.3070
 2.2840	 5.3040
 2.2850	 5.2930
 2.2860	 5.2760
 2.2870	 5.2520
 2.2880	 5.2170
 2.2890	 5.1860
 2.2900	 5.1300
 2.2910	 5.1060
 2.2920	 5.1020
 2.2930	 5.0980
 2.2940	 5.1170
 2.2950	 5.1280
 2.2960	 5.1390
 2.2970	 5.1400
 2.2980	 5.1520
 2.2990	 5.1380
 2.3000	 5.0790
 2.3010	 5.0310
 2.3020	 4.9850
 2.3030	 4.9670
 2.3040	 5.0060
 2.3050	 5.0200
 2.3060	 4.9970
 2.3070	 4.9650
 2.3080	 4.8930
 2.3090	 4.8530
 2.3100	 4.8630
 2.3110	 4.8560
 2.3120	 4.8460
 2.3130	 4.8520
 2.3140	 4.8480
 2.3150	 4.8140
 2.3160	 4.8210
 2.3170	 4.8570
 2.3180	 4.8600
 2.3190	 4.8720
 2.3200	 4.8680
 2.3210	 4.8300
 2.3220	 4.8290
 2.3230	 4.8580
 2.3240	 4.8470
 2.3250	 4.8290
 2.3260	 4.8050
 2.3270	 4.7320
 2.3280	 4.7130
 2.3290	 4.7220
 2.3300	 4.7260
 2.3310	 4.7600
 2.3320	 4.7690
 2.3330	 4.7820
 2.3340	 4.7720
 2.3350	 4.7230
 2.3360	 4.7010
 2.3370	 4.6790
 2.3380	 4.6570
 2.3390	 4.6550
 2.3400	 4.6480
 2.3410	 4.6270
 2.3420	 4.6110
 2.3430	 4.6040
 2.3440	 4.5940
 2.3450	 4.5740
 2.3460	 4.5780
 2.3470	 4.6080
 2.3480	 4.6180
 2.3490	 4.6380
 2.3500	 4.6330
 2.3510	 4.5920
 2.3520	 4.5720
 2.3530	 4.5590
 2.3540	 4.5360
 2.3550	 4.5030
 2.3560	 4.5010
 2.3570	 4.4550
 2.3580	 4.4030
 2.3590	 4.4140
 2.3600	 4.4020
 2.3610	 4.4310
 2.3620	 4.4750
 2.3630	 4.4590
 2.3640	 4.4360
 2.3650	 4.3910
 2.3660	 4.3380
 2.3670	 4.3000
 2.3680	 4.2470
 2.3690	 4.2140
 2.3700	 4.1870
 2.3710	 4.1840
 2.3720	 4.2170
 2.3730	 4.2010
 2.3740	 4.1710
 2.3750	 4.1440
 2.3760	 4.1060
 2.3770	 4.1200
 2.3780	 4.1790
 2.3790	 4.2250
 2.3800	 4.2550
 2.3810	 4.2550
 2.3820	 4.2540
 2.3830	 4.2390
 2.3840	 4.1800
 2.3850	 4.1450
 2.3860	 4.1330
 2.3870	 4.1310
 2.3880	 4.1710
 2.3890	 4.2160
 2.3900	 4.2150
 2.3910	 4.1800
 2.3920	 4.1420
 2.3930	 4.1210
 2.3940	 4.1100
 2.3950	 4.0860
 2.3960	 4.1040
 2.3970	 4.1280
 2.3980	 4.1560
 2.3990	 4.2740
 2.4000	 4.3070
 2.4010	 4.2740
 2.4020	 4.2340
 2.4030	 4.1200
 2.4040	 4.0840
 2.4050	 4.0840
 2.4060	 4.0610
 2.4070	 4.0290
 2.4080	 3.9750
 2.4090	 3.9120
 2.4100	 3.8480
 2.4110	 3.8400
 2.4120	 3.8510
 2.4130	 3.8840
 2.4140	 3.9060
 2.4150	 3.9360
 2.4160	 3.9980
 2.4170	 3.9850
 2.4180	 3.9700
 2.4190	 3.9580
 2.4200	 3.9230
 2.4210	 3.9370
 2.4220	 4.0220
 2.4230	 4.0820
 2.4240	 4.0400
 2.4250	 4.0310
 2.4260	 3.9660
 2.4270	 3.8390
 2.4280	 3.8230
 2.4290	 3.7600
 2.4300	 3.7000
 2.4310	 3.7250
 2.4320	 3.7290
 2.4330	 3.7780
 2.4340	 3.8730
 2.4350	 3.9570
 2.4360	 3.9270
 2.4370	 3.8540
 2.4380	 3.7740
 2.4390	 3.5530
 2.4400	 3.5790
 2.4410	 3.6700
 2.4420	 3.6630
 2.4430	 3.8620
 2.4440	 3.8300
 2.4450	 3.7570
 2.4460	 3.7340
 2.4470	 3.5550
 2.4480	 3.4690
 2.4490	 3.3490
 2.4500	 3.2500
 2.4510	 3.3650
 2.4520	 3.5150
 2.4530	 3.6650
 2.4540	 3.8030
 2.4550	 3.7500
 2.4560	 3.7040
 2.4570	 3.7250
 2.4580	 3.7790
 2.4590	 3.8620
 2.4600	 3.8520
 2.4610	 3.7610
 2.4620	 3.6260
 2.4630	 3.5220
 2.4640	 3.5120
 2.4650	 3.5360
 2.4660	 3.5580
 2.4670	 3.6400
 2.4680	 3.6220
 2.4690	 3.5230
 2.4700	 3.4850
 2.4710	 3.3000
 2.4720	 3.3090
 2.4730	 3.6560
 2.4740	 3.6490
 2.4750	 3.5110
 2.4760	 3.4790
 2.4770	 3.1740
 2.4780	 3.0720
 2.4790	 3.1470
 2.4800	 3.1760
 2.4810	 3.2930
 2.4820	 3.4300
 2.4830	 3.6640
 2.4840	 3.8780
 2.4850	 3.8690
 2.4860	 3.7960
 2.4870	 3.7640
 2.4880	 3.6890
 2.4890	 3.6170
 2.4900	 3.6160
 2.4910	 3.8030
 2.4920	 3.9980
 2.4930	 4.0230
 2.4940	 4.1280
 2.4950	 4.1360
 2.4960	 4.1430
 2.4970	 4.2490
 2.4980	 4.2780
 2.4990	 4.2200
 2.5000	 3.8070
