Name: Baccharis pilularis 2
Type: vegetation
Class: Shrub
Genus: Baccharis
Species: pilularis
Sample No.: VH232
Owner: UCSB
Wavelength Range: VSWIR
Origin: 34.5084; -119.7683; WGS84
Collection Date: 10/13/2013
Description: Samples were collected as part of the HyspIRI Airborne Campaign. 48 individual plants were sampled in three times in 2013 - spring  summer  and fall. The name of the sample includes a 1  2  or 3 which references a different individual of the species. Samples were taken to JPL and processed within 48 hours of collection. The same leaves were processed in the Nicolet and then measured using the ASD.
Measurement: Bidirectional reflectance
First Column: X
Second Column: Y
X Units: Wavelength (micrometers)
Y Units: Reflectance (percentage)
First X Value: 0.35
Last X Value: 2.5
Number of X Values: 2151
Additional Information: vegetation.shrub.baccharis.pilularis.vswir.vh232.ucsb.asd.ancillary.txt

 0.3500	 7.2140
 0.3510	 7.2170
 0.3520	 7.1120
 0.3530	 7.0700
 0.3540	 7.2570
 0.3550	 7.5030
 0.3560	 7.5200
 0.3570	 7.3630
 0.3580	 7.2590
 0.3590	 7.1990
 0.3600	 7.1800
 0.3610	 7.1840
 0.3620	 7.1750
 0.3630	 7.2230
 0.3640	 7.1970
 0.3650	 7.0310
 0.3660	 7.0560
 0.3670	 7.1080
 0.3680	 7.1020
 0.3690	 7.0350
 0.3700	 7.0880
 0.3710	 7.1480
 0.3720	 7.1480
 0.3730	 7.1930
 0.3740	 7.1710
 0.3750	 7.2180
 0.3760	 7.4040
 0.3770	 7.1170
 0.3780	 7.0340
 0.3790	 7.2170
 0.3800	 7.1840
 0.3810	 7.1010
 0.3820	 7.0790
 0.3830	 7.1440
 0.3840	 7.1640
 0.3850	 7.1400
 0.3860	 7.0870
 0.3870	 7.0460
 0.3880	 7.1520
 0.3890	 7.2110
 0.3900	 7.1770
 0.3910	 7.1750
 0.3920	 7.1590
 0.3930	 7.1650
 0.3940	 7.1950
 0.3950	 7.1030
 0.3960	 7.0770
 0.3970	 7.1030
 0.3980	 7.0820
 0.3990	 7.1150
 0.4000	 7.1330
 0.4010	 7.1070
 0.4020	 7.0710
 0.4030	 7.0390
 0.4040	 7.0550
 0.4050	 7.1280
 0.4060	 7.1270
 0.4070	 7.0850
 0.4080	 7.0440
 0.4090	 7.0450
 0.4100	 7.0750
 0.4110	 7.0950
 0.4120	 7.0850
 0.4130	 7.0570
 0.4140	 7.1040
 0.4150	 7.1590
 0.4160	 7.1330
 0.4170	 7.1080
 0.4180	 7.1070
 0.4190	 7.1280
 0.4200	 7.1440
 0.4210	 7.1430
 0.4220	 7.1630
 0.4230	 7.2100
 0.4240	 7.1760
 0.4250	 7.1920
 0.4260	 7.2380
 0.4270	 7.2360
 0.4280	 7.2530
 0.4290	 7.2790
 0.4300	 7.3030
 0.4310	 7.3270
 0.4320	 7.3020
 0.4330	 7.2730
 0.4340	 7.2870
 0.4350	 7.3050
 0.4360	 7.3220
 0.4370	 7.3420
 0.4380	 7.3740
 0.4390	 7.4070
 0.4400	 7.4320
 0.4410	 7.4470
 0.4420	 7.4450
 0.4430	 7.4440
 0.4440	 7.4630
 0.4450	 7.5060
 0.4460	 7.5070
 0.4470	 7.5030
 0.4480	 7.5150
 0.4490	 7.5390
 0.4500	 7.5620
 0.4510	 7.5780
 0.4520	 7.5850
 0.4530	 7.5960
 0.4540	 7.6190
 0.4550	 7.6390
 0.4560	 7.6330
 0.4570	 7.6500
 0.4580	 7.6790
 0.4590	 7.6970
 0.4600	 7.6600
 0.4610	 7.6740
 0.4620	 7.7090
 0.4630	 7.7000
 0.4640	 7.6970
 0.4650	 7.7130
 0.4660	 7.7360
 0.4670	 7.7280
 0.4680	 7.7220
 0.4690	 7.7260
 0.4700	 7.7370
 0.4710	 7.7360
 0.4720	 7.7420
 0.4730	 7.7510
 0.4740	 7.7530
 0.4750	 7.7500
 0.4760	 7.7620
 0.4770	 7.7850
 0.4780	 7.7740
 0.4790	 7.7640
 0.4800	 7.7660
 0.4810	 7.7790
 0.4820	 7.7840
 0.4830	 7.7890
 0.4840	 7.7950
 0.4850	 7.7970
 0.4860	 7.7900
 0.4870	 7.7900
 0.4880	 7.8050
 0.4890	 7.8030
 0.4900	 7.8150
 0.4910	 7.8380
 0.4920	 7.8510
 0.4930	 7.8570
 0.4940	 7.8710
 0.4950	 7.8890
 0.4960	 7.8900
 0.4970	 7.9090
 0.4980	 7.9400
 0.4990	 7.9660
 0.5000	 7.9720
 0.5010	 7.9960
 0.5020	 8.0340
 0.5030	 8.0490
 0.5040	 8.0710
 0.5050	 8.1100
 0.5060	 8.1630
 0.5070	 8.1990
 0.5080	 8.2390
 0.5090	 8.2920
 0.5100	 8.3540
 0.5110	 8.4210
 0.5120	 8.4880
 0.5130	 8.5560
 0.5140	 8.6320
 0.5150	 8.7180
 0.5160	 8.8190
 0.5170	 8.9360
 0.5180	 9.0450
 0.5190	 9.1570
 0.5200	 9.2790
 0.5210	 9.4140
 0.5220	 9.5410
 0.5230	 9.6740
 0.5240	 9.8210
 0.5250	 9.9570
 0.5260	10.0860
 0.5270	10.2150
 0.5280	10.3490
 0.5290	10.4700
 0.5300	10.5840
 0.5310	10.6980
 0.5320	10.8080
 0.5330	10.9070
 0.5340	10.9990
 0.5350	11.0900
 0.5360	11.1670
 0.5370	11.2380
 0.5380	11.3080
 0.5390	11.3720
 0.5400	11.4230
 0.5410	11.4650
 0.5420	11.5060
 0.5430	11.5590
 0.5440	11.6030
 0.5450	11.6450
 0.5460	11.6970
 0.5470	11.7660
 0.5480	11.8260
 0.5490	11.8670
 0.5500	11.8980
 0.5510	11.9170
 0.5520	11.9280
 0.5530	11.9330
 0.5540	11.9220
 0.5550	11.9060
 0.5560	11.8840
 0.5570	11.8500
 0.5580	11.8060
 0.5590	11.7550
 0.5600	11.6990
 0.5610	11.6370
 0.5620	11.5720
 0.5630	11.5020
 0.5640	11.4260
 0.5650	11.3520
 0.5660	11.2710
 0.5670	11.1820
 0.5680	11.0930
 0.5690	10.9980
 0.5700	10.8960
 0.5710	10.7880
 0.5720	10.6880
 0.5730	10.5910
 0.5740	10.4960
 0.5750	10.4080
 0.5760	10.3270
 0.5770	10.2560
 0.5780	10.1930
 0.5790	10.1320
 0.5800	10.0790
 0.5810	10.0320
 0.5820	 9.9840
 0.5830	 9.9420
 0.5840	 9.9040
 0.5850	 9.8680
 0.5860	 9.8290
 0.5870	 9.7830
 0.5880	 9.7370
 0.5890	 9.6970
 0.5900	 9.6570
 0.5910	 9.6260
 0.5920	 9.6050
 0.5930	 9.5920
 0.5940	 9.5750
 0.5950	 9.5620
 0.5960	 9.5560
 0.5970	 9.5390
 0.5980	 9.5300
 0.5990	 9.5200
 0.6000	 9.4970
 0.6010	 9.4790
 0.6020	 9.4630
 0.6030	 9.4400
 0.6040	 9.4020
 0.6050	 9.3700
 0.6060	 9.3350
 0.6070	 9.2930
 0.6080	 9.2500
 0.6090	 9.1990
 0.6100	 9.1390
 0.6110	 9.0720
 0.6120	 9.0330
 0.6130	 9.0070
 0.6140	 8.9810
 0.6150	 8.9500
 0.6160	 8.9220
 0.6170	 8.8950
 0.6180	 8.8630
 0.6190	 8.8350
 0.6200	 8.8130
 0.6210	 8.7940
 0.6220	 8.7790
 0.6230	 8.7610
 0.6240	 8.7450
 0.6250	 8.7350
 0.6260	 8.7260
 0.6270	 8.7200
 0.6280	 8.7180
 0.6290	 8.7200
 0.6300	 8.7170
 0.6310	 8.7100
 0.6320	 8.7050
 0.6330	 8.7060
 0.6340	 8.7010
 0.6350	 8.6880
 0.6360	 8.6700
 0.6370	 8.6520
 0.6380	 8.6310
 0.6390	 8.6050
 0.6400	 8.5710
 0.6410	 8.5360
 0.6420	 8.5030
 0.6430	 8.4680
 0.6440	 8.4270
 0.6450	 8.3930
 0.6460	 8.3600
 0.6470	 8.3230
 0.6480	 8.2980
 0.6490	 8.2680
 0.6500	 8.2360
 0.6510	 8.2130
 0.6520	 8.1950
 0.6530	 8.1800
 0.6540	 8.1620
 0.6550	 8.1380
 0.6560	 8.1180
 0.6570	 8.1010
 0.6580	 8.0790
 0.6590	 8.0530
 0.6600	 8.0260
 0.6610	 8.0010
 0.6620	 7.9840
 0.6630	 7.9690
 0.6640	 7.9520
 0.6650	 7.9330
 0.6660	 7.9230
 0.6670	 7.9180
 0.6680	 7.9110
 0.6690	 7.9000
 0.6700	 7.8990
 0.6710	 7.9040
 0.6720	 7.9100
 0.6730	 7.9110
 0.6740	 7.9140
 0.6750	 7.9240
 0.6760	 7.9410
 0.6770	 7.9530
 0.6780	 7.9660
 0.6790	 7.9840
 0.6800	 8.0050
 0.6810	 8.0240
 0.6820	 8.0470
 0.6830	 8.0810
 0.6840	 8.1230
 0.6850	 8.1660
 0.6860	 8.2140
 0.6870	 8.2750
 0.6880	 8.3520
 0.6890	 8.4450
 0.6900	 8.5590
 0.6910	 8.7020
 0.6920	 8.8790
 0.6930	 9.0940
 0.6940	 9.3540
 0.6950	 9.6640
 0.6960	10.0340
 0.6970	10.4640
 0.6980	10.9530
 0.6990	11.5120
 0.7000	12.1370
 0.7010	12.8260
 0.7020	13.5740
 0.7030	14.3700
 0.7040	15.2170
 0.7050	16.1120
 0.7060	17.0430
 0.7070	18.0100
 0.7080	19.0060
 0.7090	20.0290
 0.7100	21.0700
 0.7110	22.1400
 0.7120	23.2320
 0.7130	24.3210
 0.7140	25.4250
 0.7150	26.5450
 0.7160	27.6710
 0.7170	28.7800
 0.7180	29.8890
 0.7190	30.9980
 0.7200	32.0980
 0.7210	33.1910
 0.7220	34.2690
 0.7230	35.3210
 0.7240	36.3350
 0.7250	37.3410
 0.7260	38.3230
 0.7270	39.2660
 0.7280	40.1790
 0.7290	41.0670
 0.7300	41.9140
 0.7310	42.7020
 0.7320	43.4800
 0.7330	44.2260
 0.7340	44.9320
 0.7350	45.6130
 0.7360	46.2450
 0.7370	46.8320
 0.7380	47.3900
 0.7390	47.9550
 0.7400	48.4670
 0.7410	48.9350
 0.7420	49.3900
 0.7430	49.8040
 0.7440	50.1980
 0.7450	50.5810
 0.7460	50.9500
 0.7470	51.2550
 0.7480	51.5380
 0.7490	51.8240
 0.7500	52.0890
 0.7510	52.3160
 0.7520	52.5220
 0.7530	52.7330
 0.7540	52.9280
 0.7550	53.0910
 0.7560	53.2320
 0.7570	53.3810
 0.7580	53.5130
 0.7590	53.6290
 0.7600	53.7340
 0.7610	53.8410
 0.7620	53.9220
 0.7630	53.9950
 0.7640	54.0780
 0.7650	54.1340
 0.7660	54.1890
 0.7670	54.2510
 0.7680	54.3160
 0.7690	54.3790
 0.7700	54.4150
 0.7710	54.4280
 0.7720	54.4640
 0.7730	54.5050
 0.7740	54.5380
 0.7750	54.5610
 0.7760	54.5880
 0.7770	54.6060
 0.7780	54.6230
 0.7790	54.6560
 0.7800	54.6900
 0.7810	54.7080
 0.7820	54.7180
 0.7830	54.7540
 0.7840	54.7660
 0.7850	54.7780
 0.7860	54.8060
 0.7870	54.8070
 0.7880	54.8270
 0.7890	54.8520
 0.7900	54.8590
 0.7910	54.8790
 0.7920	54.8990
 0.7930	54.9090
 0.7940	54.9050
 0.7950	54.9410
 0.7960	54.9600
 0.7970	54.9520
 0.7980	54.9850
 0.7990	54.9940
 0.8000	54.9990
 0.8010	55.0250
 0.8020	55.0550
 0.8030	55.0660
 0.8040	55.0710
 0.8050	55.0920
 0.8060	55.0890
 0.8070	55.0940
 0.8080	55.1140
 0.8090	55.1270
 0.8100	55.1500
 0.8110	55.1760
 0.8120	55.1940
 0.8130	55.1920
 0.8140	55.2030
 0.8150	55.2250
 0.8160	55.2510
 0.8170	55.2680
 0.8180	55.2850
 0.8190	55.3060
 0.8200	55.3300
 0.8210	55.3410
 0.8220	55.3600
 0.8230	55.3760
 0.8240	55.3650
 0.8250	55.3960
 0.8260	55.4240
 0.8270	55.4240
 0.8280	55.4290
 0.8290	55.4500
 0.8300	55.4680
 0.8310	55.4690
 0.8320	55.4900
 0.8330	55.5070
 0.8340	55.5120
 0.8350	55.5120
 0.8360	55.5340
 0.8370	55.5500
 0.8380	55.5570
 0.8390	55.5750
 0.8400	55.6070
 0.8410	55.6320
 0.8420	55.6400
 0.8430	55.6460
 0.8440	55.6680
 0.8450	55.6840
 0.8460	55.6820
 0.8470	55.6970
 0.8480	55.7150
 0.8490	55.7310
 0.8500	55.7460
 0.8510	55.7640
 0.8520	55.7740
 0.8530	55.7890
 0.8540	55.8240
 0.8550	55.8180
 0.8560	55.8260
 0.8570	55.8590
 0.8580	55.8700
 0.8590	55.8680
 0.8600	55.8740
 0.8610	55.8920
 0.8620	55.8980
 0.8630	55.9080
 0.8640	55.9070
 0.8650	55.8950
 0.8660	55.9250
 0.8670	55.9330
 0.8680	55.9290
 0.8690	55.9420
 0.8700	55.9590
 0.8710	55.9530
 0.8720	55.9390
 0.8730	55.9460
 0.8740	55.9790
 0.8750	55.9880
 0.8760	55.9690
 0.8770	55.9710
 0.8780	55.9910
 0.8790	55.9950
 0.8800	55.9790
 0.8810	55.9930
 0.8820	56.0200
 0.8830	56.0370
 0.8840	56.0300
 0.8850	56.0100
 0.8860	56.0000
 0.8870	55.9930
 0.8880	55.9830
 0.8890	56.0030
 0.8900	56.0140
 0.8910	56.0120
 0.8920	56.0110
 0.8930	56.0300
 0.8940	56.0170
 0.8950	55.9900
 0.8960	55.9980
 0.8970	55.9710
 0.8980	55.9520
 0.8990	55.9560
 0.9000	55.9610
 0.9010	55.9650
 0.9020	55.9600
 0.9030	55.9470
 0.9040	55.9340
 0.9050	55.9290
 0.9060	55.9290
 0.9070	55.9270
 0.9080	55.9070
 0.9090	55.8940
 0.9100	55.9020
 0.9110	55.9200
 0.9120	55.8910
 0.9130	55.8830
 0.9140	55.8890
 0.9150	55.8860
 0.9160	55.8780
 0.9170	55.8710
 0.9180	55.8670
 0.9190	55.8600
 0.9200	55.8290
 0.9210	55.8100
 0.9220	55.8090
 0.9230	55.8060
 0.9240	55.7810
 0.9250	55.7670
 0.9260	55.7650
 0.9270	55.7490
 0.9280	55.7400
 0.9290	55.7330
 0.9300	55.7160
 0.9310	55.6720
 0.9320	55.6410
 0.9330	55.6070
 0.9340	55.5740
 0.9350	55.5650
 0.9360	55.5430
 0.9370	55.5090
 0.9380	55.4730
 0.9390	55.4510
 0.9400	55.4050
 0.9410	55.3750
 0.9420	55.3700
 0.9430	55.3220
 0.9440	55.2760
 0.9450	55.2180
 0.9460	55.1420
 0.9470	55.0820
 0.9480	55.0420
 0.9490	54.9850
 0.9500	54.8930
 0.9510	54.8310
 0.9520	54.7820
 0.9530	54.7270
 0.9540	54.6480
 0.9550	54.5340
 0.9560	54.4510
 0.9570	54.3800
 0.9580	54.2900
 0.9590	54.1970
 0.9600	54.1460
 0.9610	54.0960
 0.9620	54.0060
 0.9630	53.9610
 0.9640	53.9430
 0.9650	53.9130
 0.9660	53.8510
 0.9670	53.8520
 0.9680	53.8230
 0.9690	53.7720
 0.9700	53.7470
 0.9710	53.7570
 0.9720	53.7630
 0.9730	53.7490
 0.9740	53.7190
 0.9750	53.7130
 0.9760	53.6920
 0.9770	53.6940
 0.9780	53.7520
 0.9790	53.7320
 0.9800	53.7150
 0.9810	53.7190
 0.9820	53.7320
 0.9830	53.7770
 0.9840	53.7960
 0.9850	53.8080
 0.9860	53.8590
 0.9870	53.8970
 0.9880	53.9110
 0.9890	53.9310
 0.9900	53.9860
 0.9910	54.0220
 0.9920	54.1260
 0.9930	54.2290
 0.9940	54.3320
 0.9950	54.4350
 0.9960	54.5380
 0.9970	54.6420
 0.9980	54.7450
 0.9990	54.8480
 1.0000	54.9510
 1.0010	55.0540
 1.0020	55.1570
 1.0030	55.2610
 1.0040	55.3640
 1.0050	55.4670
 1.0060	55.5700
 1.0070	55.6730
 1.0080	55.7770
 1.0090	55.8800
 1.0100	55.8800
 1.0110	55.9170
 1.0120	55.9560
 1.0130	56.0050
 1.0140	56.0480
 1.0150	56.0840
 1.0160	56.1180
 1.0170	56.1600
 1.0180	56.1910
 1.0190	56.2080
 1.0200	56.2390
 1.0210	56.2850
 1.0220	56.3250
 1.0230	56.3630
 1.0240	56.4160
 1.0250	56.4520
 1.0260	56.4710
 1.0270	56.4970
 1.0280	56.5260
 1.0290	56.5520
 1.0300	56.5720
 1.0310	56.6000
 1.0320	56.6340
 1.0330	56.6650
 1.0340	56.6850
 1.0350	56.7130
 1.0360	56.7500
 1.0370	56.7690
 1.0380	56.7940
 1.0390	56.8260
 1.0400	56.8550
 1.0410	56.8820
 1.0420	56.9060
 1.0430	56.9300
 1.0440	56.9540
 1.0450	56.9690
 1.0460	56.9890
 1.0470	57.0230
 1.0480	57.0410
 1.0490	57.0420
 1.0500	57.0560
 1.0510	57.0700
 1.0520	57.0780
 1.0530	57.0970
 1.0540	57.1360
 1.0550	57.1480
 1.0560	57.1490
 1.0570	57.1570
 1.0580	57.1540
 1.0590	57.1580
 1.0600	57.1700
 1.0610	57.1780
 1.0620	57.1880
 1.0630	57.1920
 1.0640	57.1910
 1.0650	57.1970
 1.0660	57.2010
 1.0670	57.2090
 1.0680	57.2210
 1.0690	57.2450
 1.0700	57.2550
 1.0710	57.2610
 1.0720	57.2640
 1.0730	57.2620
 1.0740	57.2620
 1.0750	57.2580
 1.0760	57.2590
 1.0770	57.2640
 1.0780	57.2650
 1.0790	57.2700
 1.0800	57.2680
 1.0810	57.2590
 1.0820	57.2520
 1.0830	57.2380
 1.0840	57.2300
 1.0850	57.2300
 1.0860	57.2260
 1.0870	57.2130
 1.0880	57.1930
 1.0890	57.1820
 1.0900	57.1650
 1.0910	57.1510
 1.0920	57.1490
 1.0930	57.1370
 1.0940	57.1180
 1.0950	57.1000
 1.0960	57.0810
 1.0970	57.0640
 1.0980	57.0520
 1.0990	57.0320
 1.1000	57.0080
 1.1010	56.9880
 1.1020	56.9660
 1.1030	56.9460
 1.1040	56.9260
 1.1050	56.9060
 1.1060	56.8840
 1.1070	56.8550
 1.1080	56.8300
 1.1090	56.8080
 1.1100	56.7830
 1.1110	56.7580
 1.1120	56.7290
 1.1130	56.6990
 1.1140	56.6670
 1.1150	56.6340
 1.1160	56.5930
 1.1170	56.5470
 1.1180	56.4980
 1.1190	56.4450
 1.1200	56.3880
 1.1210	56.3290
 1.1220	56.2630
 1.1230	56.1910
 1.1240	56.1160
 1.1250	56.0320
 1.1260	55.9440
 1.1270	55.8450
 1.1280	55.7360
 1.1290	55.6240
 1.1300	55.5070
 1.1310	55.3800
 1.1320	55.2490
 1.1330	55.1050
 1.1340	54.9510
 1.1350	54.7880
 1.1360	54.6160
 1.1370	54.4330
 1.1380	54.2470
 1.1390	54.0530
 1.1400	53.8520
 1.1410	53.6550
 1.1420	53.4600
 1.1430	53.2570
 1.1440	53.0530
 1.1450	52.8450
 1.1460	52.6400
 1.1470	52.4230
 1.1480	52.2260
 1.1490	52.0330
 1.1500	51.8520
 1.1510	51.6780
 1.1520	51.5170
 1.1530	51.3650
 1.1540	51.2240
 1.1550	51.0980
 1.1560	50.9790
 1.1570	50.8650
 1.1580	50.7680
 1.1590	50.6790
 1.1600	50.6000
 1.1610	50.5360
 1.1620	50.4780
 1.1630	50.4240
 1.1640	50.3820
 1.1650	50.3440
 1.1660	50.3120
 1.1670	50.2810
 1.1680	50.2560
 1.1690	50.2330
 1.1700	50.2120
 1.1710	50.1910
 1.1720	50.1740
 1.1730	50.1550
 1.1740	50.1360
 1.1750	50.1150
 1.1760	50.0960
 1.1770	50.0740
 1.1780	50.0460
 1.1790	50.0190
 1.1800	49.9900
 1.1810	49.9590
 1.1820	49.9280
 1.1830	49.8920
 1.1840	49.8610
 1.1850	49.8360
 1.1860	49.8120
 1.1870	49.7930
 1.1880	49.7720
 1.1890	49.7500
 1.1900	49.7310
 1.1910	49.7120
 1.1920	49.6940
 1.1930	49.6740
 1.1940	49.6610
 1.1950	49.6480
 1.1960	49.6440
 1.1970	49.6450
 1.1980	49.6520
 1.1990	49.6650
 1.2000	49.6740
 1.2010	49.6830
 1.2020	49.7000
 1.2030	49.7220
 1.2040	49.7500
 1.2050	49.7850
 1.2060	49.8200
 1.2070	49.8520
 1.2080	49.8870
 1.2090	49.9280
 1.2100	49.9690
 1.2110	50.0120
 1.2120	50.0570
 1.2130	50.1090
 1.2140	50.1650
 1.2150	50.2220
 1.2160	50.2860
 1.2170	50.3490
 1.2180	50.4060
 1.2190	50.4680
 1.2200	50.5350
 1.2210	50.5990
 1.2220	50.6650
 1.2230	50.7340
 1.2240	50.8030
 1.2250	50.8630
 1.2260	50.9200
 1.2270	50.9780
 1.2280	51.0260
 1.2290	51.0790
 1.2300	51.1360
 1.2310	51.1840
 1.2320	51.2270
 1.2330	51.2690
 1.2340	51.3130
 1.2350	51.3540
 1.2360	51.3970
 1.2370	51.4450
 1.2380	51.4920
 1.2390	51.5320
 1.2400	51.5710
 1.2410	51.6120
 1.2420	51.6490
 1.2430	51.6830
 1.2440	51.7120
 1.2450	51.7360
 1.2460	51.7650
 1.2470	51.7910
 1.2480	51.8220
 1.2490	51.8530
 1.2500	51.8720
 1.2510	51.8890
 1.2520	51.9070
 1.2530	51.9200
 1.2540	51.9380
 1.2550	51.9560
 1.2560	51.9630
 1.2570	51.9740
 1.2580	51.9870
 1.2590	51.9970
 1.2600	52.0060
 1.2610	52.0170
 1.2620	52.0290
 1.2630	52.0350
 1.2640	52.0420
 1.2650	52.0460
 1.2660	52.0490
 1.2670	52.0520
 1.2680	52.0540
 1.2690	52.0570
 1.2700	52.0580
 1.2710	52.0550
 1.2720	52.0480
 1.2730	52.0360
 1.2740	52.0240
 1.2750	52.0150
 1.2760	52.0070
 1.2770	51.9970
 1.2780	51.9850
 1.2790	51.9680
 1.2800	51.9450
 1.2810	51.9280
 1.2820	51.9040
 1.2830	51.8720
 1.2840	51.8470
 1.2850	51.8150
 1.2860	51.7790
 1.2870	51.7440
 1.2880	51.7090
 1.2890	51.6650
 1.2900	51.6200
 1.2910	51.5810
 1.2920	51.5420
 1.2930	51.5000
 1.2940	51.4520
 1.2950	51.3940
 1.2960	51.3250
 1.2970	51.2550
 1.2980	51.1830
 1.2990	51.1090
 1.3000	51.0380
 1.3010	50.9570
 1.3020	50.8790
 1.3030	50.8070
 1.3040	50.7250
 1.3050	50.6450
 1.3060	50.5570
 1.3070	50.4570
 1.3080	50.3580
 1.3090	50.2550
 1.3100	50.1430
 1.3110	50.0320
 1.3120	49.9100
 1.3130	49.7820
 1.3140	49.6510
 1.3150	49.5160
 1.3160	49.3770
 1.3170	49.2360
 1.3180	49.0930
 1.3190	48.9480
 1.3200	48.7990
 1.3210	48.6430
 1.3220	48.4800
 1.3230	48.3100
 1.3240	48.1410
 1.3250	47.9680
 1.3260	47.7910
 1.3270	47.6160
 1.3280	47.4260
 1.3290	47.2330
 1.3300	47.0420
 1.3310	46.8410
 1.3320	46.6410
 1.3330	46.4400
 1.3340	46.2360
 1.3350	46.0330
 1.3360	45.8320
 1.3370	45.6310
 1.3380	45.4260
 1.3390	45.2210
 1.3400	45.0110
 1.3410	44.8060
 1.3420	44.6070
 1.3430	44.4030
 1.3440	44.2010
 1.3450	43.9990
 1.3460	43.7910
 1.3470	43.5870
 1.3480	43.3850
 1.3490	43.1900
 1.3500	42.9970
 1.3510	42.8100
 1.3520	42.6240
 1.3530	42.4350
 1.3540	42.2430
 1.3550	42.0530
 1.3560	41.8680
 1.3570	41.6820
 1.3580	41.4950
 1.3590	41.3060
 1.3600	41.1100
 1.3610	40.9070
 1.3620	40.7000
 1.3630	40.4920
 1.3640	40.2790
 1.3650	40.0610
 1.3660	39.8400
 1.3670	39.6100
 1.3680	39.3670
 1.3690	39.1120
 1.3700	38.8400
 1.3710	38.5510
 1.3720	38.2440
 1.3730	37.9190
 1.3740	37.5780
 1.3750	37.2170
 1.3760	36.8340
 1.3770	36.4310
 1.3780	36.0000
 1.3790	35.5480
 1.3800	35.0740
 1.3810	34.5720
 1.3820	34.0530
 1.3830	33.5130
 1.3840	32.9560
 1.3850	32.3770
 1.3860	31.7870
 1.3870	31.1760
 1.3880	30.5620
 1.3890	29.9350
 1.3900	29.3010
 1.3910	28.6700
 1.3920	28.0350
 1.3930	27.3990
 1.3940	26.7720
 1.3950	26.1500
 1.3960	25.5400
 1.3970	24.9440
 1.3980	24.3600
 1.3990	23.8000
 1.4000	23.2570
 1.4010	22.7300
 1.4020	22.2290
 1.4030	21.7470
 1.4040	21.2890
 1.4050	20.8560
 1.4060	20.4450
 1.4070	20.0610
 1.4080	19.7010
 1.4090	19.3660
 1.4100	19.0560
 1.4110	18.7670
 1.4120	18.4980
 1.4130	18.2510
 1.4140	18.0220
 1.4150	17.8150
 1.4160	17.6240
 1.4170	17.4490
 1.4180	17.2910
 1.4190	17.1440
 1.4200	17.0130
 1.4210	16.8940
 1.4220	16.7860
 1.4230	16.6910
 1.4240	16.6070
 1.4250	16.5310
 1.4260	16.4670
 1.4270	16.4080
 1.4280	16.3600
 1.4290	16.3160
 1.4300	16.2800
 1.4310	16.2490
 1.4320	16.2280
 1.4330	16.2090
 1.4340	16.1940
 1.4350	16.1830
 1.4360	16.1760
 1.4370	16.1720
 1.4380	16.1730
 1.4390	16.1800
 1.4400	16.1910
 1.4410	16.2050
 1.4420	16.2190
 1.4430	16.2370
 1.4440	16.2570
 1.4450	16.2770
 1.4460	16.3020
 1.4470	16.3260
 1.4480	16.3500
 1.4490	16.3760
 1.4500	16.4010
 1.4510	16.4290
 1.4520	16.4580
 1.4530	16.4870
 1.4540	16.5170
 1.4550	16.5470
 1.4560	16.5760
 1.4570	16.6090
 1.4580	16.6450
 1.4590	16.6830
 1.4600	16.7230
 1.4610	16.7670
 1.4620	16.8130
 1.4630	16.8640
 1.4640	16.9190
 1.4650	16.9770
 1.4660	17.0390
 1.4670	17.1040
 1.4680	17.1760
 1.4690	17.2510
 1.4700	17.3310
 1.4710	17.4160
 1.4720	17.5030
 1.4730	17.5930
 1.4740	17.6850
 1.4750	17.7820
 1.4760	17.8860
 1.4770	17.9900
 1.4780	18.0970
 1.4790	18.2100
 1.4800	18.3210
 1.4810	18.4350
 1.4820	18.5510
 1.4830	18.6650
 1.4840	18.7820
 1.4850	18.8980
 1.4860	19.0130
 1.4870	19.1300
 1.4880	19.2450
 1.4890	19.3620
 1.4900	19.4800
 1.4910	19.6010
 1.4920	19.7190
 1.4930	19.8360
 1.4940	19.9530
 1.4950	20.0700
 1.4960	20.1870
 1.4970	20.3030
 1.4980	20.4220
 1.4990	20.5390
 1.5000	20.6590
 1.5010	20.7840
 1.5020	20.9040
 1.5030	21.0220
 1.5040	21.1410
 1.5050	21.2580
 1.5060	21.3770
 1.5070	21.4970
 1.5080	21.6160
 1.5090	21.7330
 1.5100	21.8510
 1.5110	21.9700
 1.5120	22.0900
 1.5130	22.2070
 1.5140	22.3260
 1.5150	22.4440
 1.5160	22.5600
 1.5170	22.6750
 1.5180	22.7900
 1.5190	22.9020
 1.5200	23.0160
 1.5210	23.1300
 1.5220	23.2420
 1.5230	23.3550
 1.5240	23.4670
 1.5250	23.5750
 1.5260	23.6830
 1.5270	23.7900
 1.5280	23.8930
 1.5290	23.9950
 1.5300	24.0950
 1.5310	24.1960
 1.5320	24.2970
 1.5330	24.3970
 1.5340	24.4960
 1.5350	24.5900
 1.5360	24.6830
 1.5370	24.7800
 1.5380	24.8790
 1.5390	24.9800
 1.5400	25.0840
 1.5410	25.1860
 1.5420	25.2800
 1.5430	25.3760
 1.5440	25.4720
 1.5450	25.5650
 1.5460	25.6600
 1.5470	25.7540
 1.5480	25.8450
 1.5490	25.9330
 1.5500	26.0220
 1.5510	26.1110
 1.5520	26.1980
 1.5530	26.2850
 1.5540	26.3700
 1.5550	26.4510
 1.5560	26.5320
 1.5570	26.6130
 1.5580	26.6950
 1.5590	26.7750
 1.5600	26.8530
 1.5610	26.9300
 1.5620	27.0080
 1.5630	27.0860
 1.5640	27.1640
 1.5650	27.2440
 1.5660	27.3190
 1.5670	27.3950
 1.5680	27.4700
 1.5690	27.5410
 1.5700	27.6130
 1.5710	27.6860
 1.5720	27.7580
 1.5730	27.8340
 1.5740	27.9100
 1.5750	27.9840
 1.5760	28.0560
 1.5770	28.1240
 1.5780	28.1940
 1.5790	28.2660
 1.5800	28.3400
 1.5810	28.4190
 1.5820	28.4920
 1.5830	28.5620
 1.5840	28.6320
 1.5850	28.6990
 1.5860	28.7670
 1.5870	28.8380
 1.5880	28.9080
 1.5890	28.9800
 1.5900	29.0510
 1.5910	29.1210
 1.5920	29.1900
 1.5930	29.2550
 1.5940	29.3190
 1.5950	29.3840
 1.5960	29.4440
 1.5970	29.5050
 1.5980	29.5670
 1.5990	29.6290
 1.6000	29.6980
 1.6010	29.7660
 1.6020	29.8350
 1.6030	29.9040
 1.6040	29.9700
 1.6050	30.0360
 1.6060	30.1030
 1.6070	30.1670
 1.6080	30.2290
 1.6090	30.2880
 1.6100	30.3440
 1.6110	30.3990
 1.6120	30.4540
 1.6130	30.5020
 1.6140	30.5480
 1.6150	30.5990
 1.6160	30.6510
 1.6170	30.7040
 1.6180	30.7640
 1.6190	30.8190
 1.6200	30.8670
 1.6210	30.9150
 1.6220	30.9590
 1.6230	31.0000
 1.6240	31.0460
 1.6250	31.0920
 1.6260	31.1370
 1.6270	31.1790
 1.6280	31.2170
 1.6290	31.2550
 1.6300	31.2910
 1.6310	31.3260
 1.6320	31.3600
 1.6330	31.3910
 1.6340	31.4180
 1.6350	31.4470
 1.6360	31.4750
 1.6370	31.4980
 1.6380	31.5210
 1.6390	31.5390
 1.6400	31.5500
 1.6410	31.5630
 1.6420	31.5740
 1.6430	31.5830
 1.6440	31.5940
 1.6450	31.6010
 1.6460	31.6040
 1.6470	31.6060
 1.6480	31.6050
 1.6490	31.5930
 1.6500	31.5780
 1.6510	31.5600
 1.6520	31.5340
 1.6530	31.5120
 1.6540	31.4850
 1.6550	31.4470
 1.6560	31.4080
 1.6570	31.3610
 1.6580	31.3130
 1.6590	31.2680
 1.6600	31.2200
 1.6610	31.1730
 1.6620	31.1260
 1.6630	31.0790
 1.6640	31.0340
 1.6650	30.9890
 1.6660	30.9440
 1.6670	30.8980
 1.6680	30.8550
 1.6690	30.8200
 1.6700	30.7910
 1.6710	30.7640
 1.6720	30.7390
 1.6730	30.7110
 1.6740	30.6790
 1.6750	30.6520
 1.6760	30.6270
 1.6770	30.6060
 1.6780	30.5850
 1.6790	30.5610
 1.6800	30.5350
 1.6810	30.5060
 1.6820	30.4690
 1.6830	30.4300
 1.6840	30.3900
 1.6850	30.3430
 1.6860	30.2970
 1.6870	30.2460
 1.6880	30.1900
 1.6890	30.1350
 1.6900	30.0850
 1.6910	30.0440
 1.6920	29.9950
 1.6930	29.9450
 1.6940	29.8900
 1.6950	29.8280
 1.6960	29.7680
 1.6970	29.7070
 1.6980	29.6450
 1.6990	29.5840
 1.7000	29.5180
 1.7010	29.4490
 1.7020	29.3790
 1.7030	29.3040
 1.7040	29.2320
 1.7050	29.1610
 1.7060	29.0910
 1.7070	29.0220
 1.7080	28.9550
 1.7090	28.8910
 1.7100	28.8220
 1.7110	28.7500
 1.7120	28.6840
 1.7130	28.6210
 1.7140	28.5640
 1.7150	28.5060
 1.7160	28.4500
 1.7170	28.3950
 1.7180	28.3450
 1.7190	28.3010
 1.7200	28.2600
 1.7210	28.2190
 1.7220	28.1800
 1.7230	28.1420
 1.7240	28.1000
 1.7250	28.0560
 1.7260	28.0170
 1.7270	27.9790
 1.7280	27.9440
 1.7290	27.9110
 1.7300	27.8760
 1.7310	27.8460
 1.7320	27.8240
 1.7330	27.7970
 1.7340	27.7750
 1.7350	27.7450
 1.7360	27.7060
 1.7370	27.6680
 1.7380	27.6250
 1.7390	27.5820
 1.7400	27.5430
 1.7410	27.4920
 1.7420	27.4320
 1.7430	27.3730
 1.7440	27.3040
 1.7450	27.2430
 1.7460	27.1830
 1.7470	27.1260
 1.7480	27.0720
 1.7490	27.0160
 1.7500	26.9620
 1.7510	26.9070
 1.7520	26.8470
 1.7530	26.7940
 1.7540	26.7440
 1.7550	26.6960
 1.7560	26.6570
 1.7570	26.6160
 1.7580	26.5710
 1.7590	26.5270
 1.7600	26.4850
 1.7610	26.4440
 1.7620	26.4080
 1.7630	26.3800
 1.7640	26.3500
 1.7650	26.3220
 1.7660	26.2950
 1.7670	26.2650
 1.7680	26.2380
 1.7690	26.2150
 1.7700	26.1900
 1.7710	26.1650
 1.7720	26.1410
 1.7730	26.1180
 1.7740	26.0920
 1.7750	26.0620
 1.7760	26.0390
 1.7770	26.0180
 1.7780	25.9940
 1.7790	25.9720
 1.7800	25.9510
 1.7810	25.9270
 1.7820	25.9090
 1.7830	25.9000
 1.7840	25.8870
 1.7850	25.8710
 1.7860	25.8620
 1.7870	25.8570
 1.7880	25.8560
 1.7890	25.8560
 1.7900	25.8490
 1.7910	25.8470
 1.7920	25.8450
 1.7930	25.8460
 1.7940	25.8580
 1.7950	25.8610
 1.7960	25.8600
 1.7970	25.8610
 1.7980	25.8580
 1.7990	25.8620
 1.8000	25.8740
 1.8010	25.8840
 1.8020	25.8980
 1.8030	25.9100
 1.8040	25.9230
 1.8050	25.9340
 1.8060	25.9440
 1.8070	25.9550
 1.8080	25.9690
 1.8090	25.9760
 1.8100	25.9800
 1.8110	25.9830
 1.8120	25.9830
 1.8130	25.9860
 1.8140	25.9830
 1.8150	25.9790
 1.8160	25.9750
 1.8170	25.9700
 1.8180	25.9770
 1.8190	25.9900
 1.8200	25.9930
 1.8210	25.9880
 1.8220	25.9890
 1.8230	25.9880
 1.8240	25.9830
 1.8250	25.9860
 1.8260	25.9810
 1.8270	25.9330
 1.8280	25.8850
 1.8290	25.8370
 1.8300	25.7900
 1.8310	25.7420
 1.8320	25.6940
 1.8330	25.6460
 1.8340	25.5980
 1.8350	25.5980
 1.8360	25.5610
 1.8370	25.5260
 1.8380	25.4970
 1.8390	25.4580
 1.8400	25.4140
 1.8410	25.3580
 1.8420	25.2970
 1.8430	25.2280
 1.8440	25.1430
 1.8450	25.0530
 1.8460	24.9560
 1.8470	24.8520
 1.8480	24.7470
 1.8490	24.6300
 1.8500	24.5060
 1.8510	24.3790
 1.8520	24.2360
 1.8530	24.0800
 1.8540	23.9190
 1.8550	23.7410
 1.8560	23.5540
 1.8570	23.3540
 1.8580	23.1490
 1.8590	22.9310
 1.8600	22.7030
 1.8610	22.4630
 1.8620	22.2090
 1.8630	21.9330
 1.8640	21.6430
 1.8650	21.3380
 1.8660	21.0150
 1.8670	20.6750
 1.8680	20.3300
 1.8690	19.9700
 1.8700	19.5960
 1.8710	19.2080
 1.8720	18.8170
 1.8730	18.4100
 1.8740	17.9920
 1.8750	17.5750
 1.8760	17.1490
 1.8770	16.7190
 1.8780	16.2970
 1.8790	15.8710
 1.8800	15.4530
 1.8810	15.0390
 1.8820	14.6340
 1.8830	14.2280
 1.8840	13.8430
 1.8850	13.4750
 1.8860	13.1120
 1.8870	12.7670
 1.8880	12.4310
 1.8890	12.1070
 1.8900	11.8050
 1.8910	11.5260
 1.8920	11.2690
 1.8930	11.0310
 1.8940	10.7990
 1.8950	10.5900
 1.8960	10.4000
 1.8970	10.2210
 1.8980	10.0670
 1.8990	 9.9300
 1.9000	 9.8050
 1.9010	 9.6950
 1.9020	 9.5960
 1.9030	 9.5140
 1.9040	 9.4410
 1.9050	 9.3760
 1.9060	 9.3150
 1.9070	 9.2640
 1.9080	 9.2200
 1.9090	 9.1760
 1.9100	 9.1370
 1.9110	 9.1080
 1.9120	 9.0920
 1.9130	 9.0700
 1.9140	 9.0530
 1.9150	 9.0420
 1.9160	 9.0240
 1.9170	 9.0070
 1.9180	 8.9980
 1.9190	 8.9950
 1.9200	 8.9930
 1.9210	 8.9930
 1.9220	 8.9940
 1.9230	 9.0010
 1.9240	 9.0000
 1.9250	 8.9960
 1.9260	 8.9910
 1.9270	 8.9850
 1.9280	 8.9800
 1.9290	 8.9940
 1.9300	 9.0090
 1.9310	 9.0250
 1.9320	 9.0450
 1.9330	 9.0610
 1.9340	 9.0670
 1.9350	 9.0840
 1.9360	 9.1110
 1.9370	 9.1280
 1.9380	 9.1430
 1.9390	 9.1610
 1.9400	 9.1730
 1.9410	 9.1770
 1.9420	 9.1910
 1.9430	 9.2080
 1.9440	 9.2230
 1.9450	 9.2360
 1.9460	 9.2550
 1.9470	 9.2760
 1.9480	 9.2960
 1.9490	 9.3160
 1.9500	 9.3420
 1.9510	 9.3630
 1.9520	 9.3840
 1.9530	 9.4150
 1.9540	 9.4440
 1.9550	 9.4710
 1.9560	 9.4990
 1.9570	 9.5270
 1.9580	 9.5510
 1.9590	 9.5800
 1.9600	 9.6140
 1.9610	 9.6430
 1.9620	 9.6730
 1.9630	 9.7010
 1.9640	 9.7200
 1.9650	 9.7480
 1.9660	 9.7740
 1.9670	 9.8040
 1.9680	 9.8340
 1.9690	 9.8630
 1.9700	 9.8960
 1.9710	 9.9300
 1.9720	 9.9690
 1.9730	10.0140
 1.9740	10.0610
 1.9750	10.0950
 1.9760	10.1310
 1.9770	10.1660
 1.9780	10.2020
 1.9790	10.2430
 1.9800	10.2960
 1.9810	10.3390
 1.9820	10.3780
 1.9830	10.4190
 1.9840	10.4530
 1.9850	10.4960
 1.9860	10.5470
 1.9870	10.5910
 1.9880	10.6390
 1.9890	10.6890
 1.9900	10.7350
 1.9910	10.7850
 1.9920	10.8340
 1.9930	10.8880
 1.9940	10.9330
 1.9950	10.9650
 1.9960	11.0100
 1.9970	11.0540
 1.9980	11.1010
 1.9990	11.1580
 2.0000	11.2140
 2.0010	11.2610
 2.0020	11.3090
 2.0030	11.3550
 2.0040	11.4000
 2.0050	11.4470
 2.0060	11.4960
 2.0070	11.5450
 2.0080	11.6000
 2.0090	11.6480
 2.0100	11.6900
 2.0110	11.7360
 2.0120	11.7820
 2.0130	11.8240
 2.0140	11.8750
 2.0150	11.9340
 2.0160	11.9830
 2.0170	12.0280
 2.0180	12.0680
 2.0190	12.0960
 2.0200	12.1320
 2.0210	12.1660
 2.0220	12.2060
 2.0230	12.2540
 2.0240	12.2930
 2.0250	12.3300
 2.0260	12.3660
 2.0270	12.3970
 2.0280	12.4280
 2.0290	12.4640
 2.0300	12.5070
 2.0310	12.5470
 2.0320	12.5940
 2.0330	12.6260
 2.0340	12.6510
 2.0350	12.6770
 2.0360	12.6900
 2.0370	12.7130
 2.0380	12.7420
 2.0390	12.7690
 2.0400	12.7970
 2.0410	12.8270
 2.0420	12.8570
 2.0430	12.8850
 2.0440	12.9110
 2.0450	12.9390
 2.0460	12.9570
 2.0470	12.9610
 2.0480	12.9770
 2.0490	12.9910
 2.0500	13.0100
 2.0510	13.0420
 2.0520	13.0650
 2.0530	13.0840
 2.0540	13.1060
 2.0550	13.1310
 2.0560	13.1510
 2.0570	13.1740
 2.0580	13.1940
 2.0590	13.2120
 2.0600	13.2250
 2.0610	13.2450
 2.0620	13.2650
 2.0630	13.2850
 2.0640	13.3060
 2.0650	13.3310
 2.0660	13.3600
 2.0670	13.3820
 2.0680	13.4060
 2.0690	13.4260
 2.0700	13.4270
 2.0710	13.4460
 2.0720	13.4770
 2.0730	13.5050
 2.0740	13.5350
 2.0750	13.5780
 2.0760	13.6060
 2.0770	13.6270
 2.0780	13.6470
 2.0790	13.6600
 2.0800	13.6820
 2.0810	13.7040
 2.0820	13.7280
 2.0830	13.7620
 2.0840	13.7830
 2.0850	13.7920
 2.0860	13.8070
 2.0870	13.8180
 2.0880	13.8260
 2.0890	13.8420
 2.0900	13.8630
 2.0910	13.8860
 2.0920	13.9170
 2.0930	13.9370
 2.0940	13.9560
 2.0950	13.9730
 2.0960	13.9830
 2.0970	13.9960
 2.0980	14.0060
 2.0990	14.0260
 2.1000	14.0570
 2.1010	14.0770
 2.1020	14.0960
 2.1030	14.1180
 2.1040	14.1310
 2.1050	14.1470
 2.1060	14.1710
 2.1070	14.2080
 2.1080	14.2330
 2.1090	14.2560
 2.1100	14.2800
 2.1110	14.3020
 2.1120	14.3230
 2.1130	14.3460
 2.1140	14.3650
 2.1150	14.3770
 2.1160	14.3960
 2.1170	14.4190
 2.1180	14.4360
 2.1190	14.4590
 2.1200	14.4730
 2.1210	14.4780
 2.1220	14.4810
 2.1230	14.4880
 2.1240	14.4890
 2.1250	14.5000
 2.1260	14.5210
 2.1270	14.5300
 2.1280	14.5390
 2.1290	14.5460
 2.1300	14.5400
 2.1310	14.5480
 2.1320	14.5620
 2.1330	14.5760
 2.1340	14.5980
 2.1350	14.6170
 2.1360	14.6390
 2.1370	14.6560
 2.1380	14.6700
 2.1390	14.6850
 2.1400	14.6990
 2.1410	14.7110
 2.1420	14.7250
 2.1430	14.7420
 2.1440	14.7540
 2.1450	14.7620
 2.1460	14.7750
 2.1470	14.7870
 2.1480	14.8030
 2.1490	14.8230
 2.1500	14.8450
 2.1510	14.8740
 2.1520	14.8910
 2.1530	14.9010
 2.1540	14.9180
 2.1550	14.9320
 2.1560	14.9500
 2.1570	14.9860
 2.1580	15.0090
 2.1590	15.0270
 2.1600	15.0390
 2.1610	15.0450
 2.1620	15.0500
 2.1630	15.0660
 2.1640	15.0830
 2.1650	15.1100
 2.1660	15.1570
 2.1670	15.1820
 2.1680	15.2060
 2.1690	15.2270
 2.1700	15.2310
 2.1710	15.2510
 2.1720	15.2860
 2.1730	15.3110
 2.1740	15.3360
 2.1750	15.3620
 2.1760	15.3870
 2.1770	15.4070
 2.1780	15.4210
 2.1790	15.4410
 2.1800	15.4530
 2.1810	15.4700
 2.1820	15.4990
 2.1830	15.5200
 2.1840	15.5410
 2.1850	15.5610
 2.1860	15.5800
 2.1870	15.5950
 2.1880	15.6200
 2.1890	15.6480
 2.1900	15.6770
 2.1910	15.7180
 2.1920	15.7460
 2.1930	15.7710
 2.1940	15.7870
 2.1950	15.7880
 2.1960	15.7990
 2.1970	15.8050
 2.1980	15.8200
 2.1990	15.8400
 2.2000	15.8660
 2.2010	15.9060
 2.2020	15.9330
 2.2030	15.9600
 2.2040	15.9830
 2.2050	15.9990
 2.2060	16.0070
 2.2070	16.0190
 2.2080	16.0330
 2.2090	16.0430
 2.2100	16.0490
 2.2110	16.0540
 2.2120	16.0550
 2.2130	16.0650
 2.2140	16.0790
 2.2150	16.0920
 2.2160	16.1170
 2.2170	16.1270
 2.2180	16.1280
 2.2190	16.1320
 2.2200	16.1310
 2.2210	16.1270
 2.2220	16.1230
 2.2230	16.1150
 2.2240	16.0930
 2.2250	16.0870
 2.2260	16.0910
 2.2270	16.0880
 2.2280	16.0930
 2.2290	16.0910
 2.2300	16.0790
 2.2310	16.0670
 2.2320	16.0570
 2.2330	16.0420
 2.2340	16.0130
 2.2350	15.9740
 2.2360	15.9360
 2.2370	15.8830
 2.2380	15.8460
 2.2390	15.8170
 2.2400	15.7810
 2.2410	15.7520
 2.2420	15.7080
 2.2430	15.6540
 2.2440	15.6020
 2.2450	15.5420
 2.2460	15.4870
 2.2470	15.4370
 2.2480	15.3790
 2.2490	15.3130
 2.2500	15.2560
 2.2510	15.2030
 2.2520	15.1480
 2.2530	15.1010
 2.2540	15.0470
 2.2550	14.9880
 2.2560	14.9280
 2.2570	14.8640
 2.2580	14.8060
 2.2590	14.7500
 2.2600	14.6940
 2.2610	14.6450
 2.2620	14.5950
 2.2630	14.5390
 2.2640	14.4860
 2.2650	14.4510
 2.2660	14.4030
 2.2670	14.3550
 2.2680	14.3130
 2.2690	14.2620
 2.2700	14.1960
 2.2710	14.1430
 2.2720	14.0940
 2.2730	14.0490
 2.2740	14.0040
 2.2750	13.9750
 2.2760	13.9580
 2.2770	13.9320
 2.2780	13.9130
 2.2790	13.8850
 2.2800	13.8480
 2.2810	13.8180
 2.2820	13.8030
 2.2830	13.7660
 2.2840	13.7110
 2.2850	13.6690
 2.2860	13.6150
 2.2870	13.5690
 2.2880	13.5340
 2.2890	13.5060
 2.2900	13.4900
 2.2910	13.4640
 2.2920	13.4490
 2.2930	13.4210
 2.2940	13.3740
 2.2950	13.3310
 2.2960	13.2790
 2.2970	13.2390
 2.2980	13.2010
 2.2990	13.1720
 2.3000	13.1470
 2.3010	13.1270
 2.3020	13.0990
 2.3030	13.0670
 2.3040	13.0470
 2.3050	13.0250
 2.3060	13.0060
 2.3070	12.9960
 2.3080	12.9710
 2.3090	12.9620
 2.3100	12.9640
 2.3110	12.9450
 2.3120	12.9290
 2.3130	12.9090
 2.3140	12.9010
 2.3150	12.8900
 2.3160	12.8880
 2.3170	12.9050
 2.3180	12.8970
 2.3190	12.8820
 2.3200	12.8610
 2.3210	12.8220
 2.3220	12.7980
 2.3230	12.7700
 2.3240	12.7550
 2.3250	12.7580
 2.3260	12.7440
 2.3270	12.7270
 2.3280	12.7160
 2.3290	12.7040
 2.3300	12.6890
 2.3310	12.6890
 2.3320	12.6660
 2.3330	12.6120
 2.3340	12.5820
 2.3350	12.5520
 2.3360	12.5330
 2.3370	12.5480
 2.3380	12.5350
 2.3390	12.5030
 2.3400	12.4840
 2.3410	12.4580
 2.3420	12.4370
 2.3430	12.4340
 2.3440	12.4200
 2.3450	12.4030
 2.3460	12.3730
 2.3470	12.3130
 2.3480	12.2880
 2.3490	12.2750
 2.3500	12.2590
 2.3510	12.2830
 2.3520	12.2840
 2.3530	12.2650
 2.3540	12.2350
 2.3550	12.2370
 2.3560	12.2230
 2.3570	12.2150
 2.3580	12.2290
 2.3590	12.2370
 2.3600	12.2260
 2.3610	12.2010
 2.3620	12.1840
 2.3630	12.1540
 2.3640	12.1400
 2.3650	12.1280
 2.3660	12.0920
 2.3670	12.0690
 2.3680	12.0420
 2.3690	12.0250
 2.3700	12.0550
 2.3710	12.0790
 2.3720	12.0630
 2.3730	12.0470
 2.3740	12.0100
 2.3750	11.9600
 2.3760	11.9450
 2.3770	11.9350
 2.3780	11.9110
 2.3790	11.8710
 2.3800	11.8300
 2.3810	11.8080
 2.3820	11.7890
 2.3830	11.7830
 2.3840	11.7820
 2.3850	11.7730
 2.3860	11.7720
 2.3870	11.7670
 2.3880	11.7440
 2.3890	11.7070
 2.3900	11.6700
 2.3910	11.6480
 2.3920	11.6280
 2.3930	11.5760
 2.3940	11.5190
 2.3950	11.4620
 2.3960	11.4180
 2.3970	11.4300
 2.3980	11.4390
 2.3990	11.4420
 2.4000	11.4440
 2.4010	11.4350
 2.4020	11.4140
 2.4030	11.3660
 2.4040	11.3160
 2.4050	11.2730
 2.4060	11.2540
 2.4070	11.2370
 2.4080	11.2290
 2.4090	11.2150
 2.4100	11.1540
 2.4110	11.1130
 2.4120	11.0740
 2.4130	11.0230
 2.4140	11.0190
 2.4150	11.0270
 2.4160	11.0230
 2.4170	11.0300
 2.4180	11.0130
 2.4190	11.0000
 2.4200	11.0170
 2.4210	10.9900
 2.4220	10.9590
 2.4230	10.9160
 2.4240	10.8520
 2.4250	10.8570
 2.4260	10.8540
 2.4270	10.8410
 2.4280	10.8490
 2.4290	10.7880
 2.4300	10.7280
 2.4310	10.7110
 2.4320	10.6660
 2.4330	10.6570
 2.4340	10.6780
 2.4350	10.6420
 2.4360	10.5990
 2.4370	10.5440
 2.4380	10.4820
 2.4390	10.4560
 2.4400	10.4360
 2.4410	10.4010
 2.4420	10.3680
 2.4430	10.3350
 2.4440	10.3080
 2.4450	10.3210
 2.4460	10.3360
 2.4470	10.3200
 2.4480	10.2930
 2.4490	10.2340
 2.4500	10.1590
 2.4510	10.1020
 2.4520	10.0910
 2.4530	10.1460
 2.4540	10.1710
 2.4550	10.1540
 2.4560	10.0960
 2.4570	10.0030
 2.4580	 9.9530
 2.4590	 9.9550
 2.4600	 9.9880
 2.4610	 9.9840
 2.4620	 9.9430
 2.4630	 9.8950
 2.4640	 9.8740
 2.4650	 9.8440
 2.4660	 9.8320
 2.4670	 9.8720
 2.4680	 9.8730
 2.4690	 9.9330
 2.4700	 9.9560
 2.4710	 9.9410
 2.4720	 9.9470
 2.4730	 9.9580
 2.4740	 9.9690
 2.4750	10.0240
 2.4760	10.0110
 2.4770	 9.8910
 2.4780	 9.8380
 2.4790	 9.7950
 2.4800	 9.7820
 2.4810	 9.8060
 2.4820	 9.8970
 2.4830	10.0000
 2.4840	10.0770
 2.4850	10.1540
 2.4860	10.1540
 2.4870	10.0300
 2.4880	 9.8770
 2.4890	 9.8040
 2.4900	 9.7170
 2.4910	 9.5800
 2.4920	 9.5320
 2.4930	 9.4750
 2.4940	 9.4090
 2.4950	 9.4100
 2.4960	 9.4440
 2.4970	 9.4930
 2.4980	 9.6130
 2.4990	 9.7510
 2.5000	 9.8400
