Name: Pinus ponderosa 1
Type: vegetation
Class: Tree
Genus: Pinus
Species: ponderosa
Sample No.: VH057
Owner: UCSB
Wavelength Range: VSWIR
Origin: 37.0443; -119.3026; WGS84
Collection Date: 4/20/2013
Description: Samples were collected as part of the HyspIRI Airborne Campaign. 48 individual plants were sampled in three times in 2013 - spring  summer  and fall. The name of the sample includes a 1  2  or 3 which references a different individual of the species. Samples were taken to JPL and processed within 48 hours of collection. The same leaves were processed in the Nicolet and then measured using the ASD.
Measurement: Bidirectional reflectance
First Column: X
Second Column: Y
X Units: Wavelength (micrometers)
Y Units: Reflectance (percentage)
First X Value: 0.35
Last X Value: 2.5
Number of X Values: 2151
Additional Information: vegetation.tree.pinus.ponderosa.vswir.vh057.ucsb.asd.ancillary.txt

 0.3500	 6.0270
 0.3510	 6.2550
 0.3520	 6.1790
 0.3530	 5.9650
 0.3540	 5.8650
 0.3550	 5.9330
 0.3560	 5.8970
 0.3570	 5.8170
 0.3580	 5.8860
 0.3590	 5.9060
 0.3600	 5.8540
 0.3610	 5.7970
 0.3620	 5.9040
 0.3630	 5.8590
 0.3640	 5.7060
 0.3650	 5.6050
 0.3660	 5.7820
 0.3670	 5.8300
 0.3680	 5.7170
 0.3690	 5.6690
 0.3700	 5.6330
 0.3710	 5.6340
 0.3720	 5.6680
 0.3730	 5.6780
 0.3740	 5.7100
 0.3750	 5.7180
 0.3760	 5.6600
 0.3770	 5.6590
 0.3780	 5.6880
 0.3790	 5.7000
 0.3800	 5.6410
 0.3810	 5.6000
 0.3820	 5.6360
 0.3830	 5.7340
 0.3840	 5.7590
 0.3850	 5.7320
 0.3860	 5.6690
 0.3870	 5.6040
 0.3880	 5.6300
 0.3890	 5.6550
 0.3900	 5.6410
 0.3910	 5.6190
 0.3920	 5.6370
 0.3930	 5.6480
 0.3940	 5.6190
 0.3950	 5.6090
 0.3960	 5.6200
 0.3970	 5.6310
 0.3980	 5.6250
 0.3990	 5.6700
 0.4000	 5.6540
 0.4010	 5.5710
 0.4020	 5.5710
 0.4030	 5.6200
 0.4040	 5.6350
 0.4050	 5.5780
 0.4060	 5.6200
 0.4070	 5.6660
 0.4080	 5.6900
 0.4090	 5.7100
 0.4100	 5.7280
 0.4110	 5.7480
 0.4120	 5.7720
 0.4130	 5.8150
 0.4140	 5.8520
 0.4150	 5.8730
 0.4160	 5.8860
 0.4170	 5.9360
 0.4180	 6.0070
 0.4190	 6.0840
 0.4200	 6.1580
 0.4210	 6.1990
 0.4220	 6.2550
 0.4230	 6.3470
 0.4240	 6.3980
 0.4250	 6.4420
 0.4260	 6.4980
 0.4270	 6.5690
 0.4280	 6.6310
 0.4290	 6.6970
 0.4300	 6.7650
 0.4310	 6.8180
 0.4320	 6.8600
 0.4330	 6.9050
 0.4340	 6.9610
 0.4350	 7.0020
 0.4360	 7.0470
 0.4370	 7.1040
 0.4380	 7.1670
 0.4390	 7.2200
 0.4400	 7.2630
 0.4410	 7.3040
 0.4420	 7.3530
 0.4430	 7.3830
 0.4440	 7.4040
 0.4450	 7.4380
 0.4460	 7.4840
 0.4470	 7.5170
 0.4480	 7.5370
 0.4490	 7.5720
 0.4500	 7.5960
 0.4510	 7.6210
 0.4520	 7.6560
 0.4530	 7.6700
 0.4540	 7.6890
 0.4550	 7.7100
 0.4560	 7.7220
 0.4570	 7.7470
 0.4580	 7.7660
 0.4590	 7.7740
 0.4600	 7.7970
 0.4610	 7.8110
 0.4620	 7.8220
 0.4630	 7.8420
 0.4640	 7.8620
 0.4650	 7.8740
 0.4660	 7.8780
 0.4670	 7.8810
 0.4680	 7.8910
 0.4690	 7.9050
 0.4700	 7.9180
 0.4710	 7.9250
 0.4720	 7.9270
 0.4730	 7.9280
 0.4740	 7.9330
 0.4750	 7.9480
 0.4760	 7.9530
 0.4770	 7.9450
 0.4780	 7.9610
 0.4790	 7.9710
 0.4800	 7.9700
 0.4810	 7.9640
 0.4820	 7.9610
 0.4830	 7.9670
 0.4840	 7.9770
 0.4850	 7.9830
 0.4860	 7.9880
 0.4870	 7.9950
 0.4880	 8.0060
 0.4890	 8.0230
 0.4900	 8.0380
 0.4910	 8.0540
 0.4920	 8.0760
 0.4930	 8.0900
 0.4940	 8.1050
 0.4950	 8.1280
 0.4960	 8.1620
 0.4970	 8.1960
 0.4980	 8.2310
 0.4990	 8.2670
 0.5000	 8.3020
 0.5010	 8.3390
 0.5020	 8.3850
 0.5030	 8.4440
 0.5040	 8.5040
 0.5050	 8.5650
 0.5060	 8.6300
 0.5070	 8.7010
 0.5080	 8.7780
 0.5090	 8.8630
 0.5100	 8.9560
 0.5110	 9.0600
 0.5120	 9.1630
 0.5130	 9.2650
 0.5140	 9.3830
 0.5150	 9.5170
 0.5160	 9.6570
 0.5170	 9.7940
 0.5180	 9.9400
 0.5190	10.0940
 0.5200	10.2560
 0.5210	10.4200
 0.5220	10.5790
 0.5230	10.7360
 0.5240	10.8950
 0.5250	11.0530
 0.5260	11.2070
 0.5270	11.3560
 0.5280	11.5050
 0.5290	11.6430
 0.5300	11.7720
 0.5310	11.8950
 0.5320	12.0130
 0.5330	12.1180
 0.5340	12.2150
 0.5350	12.3110
 0.5360	12.3990
 0.5370	12.4790
 0.5380	12.5500
 0.5390	12.6150
 0.5400	12.6720
 0.5410	12.7230
 0.5420	12.7710
 0.5430	12.8200
 0.5440	12.8650
 0.5450	12.9120
 0.5460	12.9720
 0.5470	13.0370
 0.5480	13.1000
 0.5490	13.1510
 0.5500	13.1870
 0.5510	13.2150
 0.5520	13.2400
 0.5530	13.2600
 0.5540	13.2620
 0.5550	13.2530
 0.5560	13.2320
 0.5570	13.1950
 0.5580	13.1530
 0.5590	13.1070
 0.5600	13.0550
 0.5610	12.9970
 0.5620	12.9340
 0.5630	12.8640
 0.5640	12.7850
 0.5650	12.7000
 0.5660	12.6100
 0.5670	12.5160
 0.5680	12.4120
 0.5690	12.3050
 0.5700	12.1980
 0.5710	12.0920
 0.5720	12.0000
 0.5730	11.9110
 0.5740	11.8230
 0.5750	11.7390
 0.5760	11.6620
 0.5770	11.5900
 0.5780	11.5220
 0.5790	11.4560
 0.5800	11.3940
 0.5810	11.3380
 0.5820	11.2870
 0.5830	11.2380
 0.5840	11.1880
 0.5850	11.1360
 0.5860	11.0840
 0.5870	11.0380
 0.5880	10.9990
 0.5890	10.9680
 0.5900	10.9440
 0.5910	10.9270
 0.5920	10.9120
 0.5930	10.8930
 0.5940	10.8770
 0.5950	10.8600
 0.5960	10.8420
 0.5970	10.8240
 0.5980	10.8050
 0.5990	10.7820
 0.6000	10.7530
 0.6010	10.7240
 0.6020	10.6960
 0.6030	10.6660
 0.6040	10.6300
 0.6050	10.5880
 0.6060	10.5420
 0.6070	10.4930
 0.6080	10.4380
 0.6090	10.3770
 0.6100	10.3080
 0.6110	10.2310
 0.6120	10.1730
 0.6130	10.1250
 0.6140	10.0780
 0.6150	10.0320
 0.6160	 9.9850
 0.6170	 9.9400
 0.6180	 9.9000
 0.6190	 9.8630
 0.6200	 9.8250
 0.6210	 9.7900
 0.6220	 9.7660
 0.6230	 9.7450
 0.6240	 9.7250
 0.6250	 9.7090
 0.6260	 9.6990
 0.6270	 9.6930
 0.6280	 9.6870
 0.6290	 9.6800
 0.6300	 9.6750
 0.6310	 9.6720
 0.6320	 9.6700
 0.6330	 9.6650
 0.6340	 9.6560
 0.6350	 9.6410
 0.6360	 9.6180
 0.6370	 9.5940
 0.6380	 9.5590
 0.6390	 9.5170
 0.6400	 9.4800
 0.6410	 9.4310
 0.6420	 9.3790
 0.6430	 9.3270
 0.6440	 9.2690
 0.6450	 9.2140
 0.6460	 9.1580
 0.6470	 9.1010
 0.6480	 9.0550
 0.6490	 9.0100
 0.6500	 8.9670
 0.6510	 8.9290
 0.6520	 8.8940
 0.6530	 8.8600
 0.6540	 8.8250
 0.6550	 8.7840
 0.6560	 8.7410
 0.6570	 8.6950
 0.6580	 8.6430
 0.6590	 8.5890
 0.6600	 8.5290
 0.6610	 8.4660
 0.6620	 8.4090
 0.6630	 8.3540
 0.6640	 8.3010
 0.6650	 8.2500
 0.6660	 8.2040
 0.6670	 8.1680
 0.6680	 8.1370
 0.6690	 8.1030
 0.6700	 8.0830
 0.6710	 8.0670
 0.6720	 8.0520
 0.6730	 8.0450
 0.6740	 8.0430
 0.6750	 8.0430
 0.6760	 8.0440
 0.6770	 8.0490
 0.6780	 8.0570
 0.6790	 8.0710
 0.6800	 8.0960
 0.6810	 8.1260
 0.6820	 8.1660
 0.6830	 8.2170
 0.6840	 8.2830
 0.6850	 8.3650
 0.6860	 8.4680
 0.6870	 8.5920
 0.6880	 8.7480
 0.6890	 8.9370
 0.6900	 9.1630
 0.6910	 9.4300
 0.6920	 9.7360
 0.6930	10.0890
 0.6940	10.4910
 0.6950	10.9410
 0.6960	11.4320
 0.6970	11.9630
 0.6980	12.5330
 0.6990	13.1450
 0.7000	13.7900
 0.7010	14.4660
 0.7020	15.1730
 0.7030	15.9010
 0.7040	16.6500
 0.7050	17.4190
 0.7060	18.2030
 0.7070	19.0020
 0.7080	19.8170
 0.7090	20.6520
 0.7100	21.4990
 0.7110	22.3650
 0.7120	23.2510
 0.7130	24.1480
 0.7140	25.0640
 0.7150	25.9990
 0.7160	26.9500
 0.7170	27.9060
 0.7180	28.8790
 0.7190	29.8680
 0.7200	30.8690
 0.7210	31.8780
 0.7220	32.8970
 0.7230	33.9210
 0.7240	34.9410
 0.7250	35.9630
 0.7260	36.9780
 0.7270	37.9790
 0.7280	38.9680
 0.7290	39.9410
 0.7300	40.8970
 0.7310	41.8360
 0.7320	42.7530
 0.7330	43.6420
 0.7340	44.5000
 0.7350	45.3370
 0.7360	46.1490
 0.7370	46.9330
 0.7380	47.6840
 0.7390	48.4010
 0.7400	49.0890
 0.7410	49.7470
 0.7420	50.3740
 0.7430	50.9600
 0.7440	51.5180
 0.7450	52.0510
 0.7460	52.5580
 0.7470	53.0210
 0.7480	53.4490
 0.7490	53.8520
 0.7500	54.2300
 0.7510	54.5820
 0.7520	54.9070
 0.7530	55.2030
 0.7540	55.4670
 0.7550	55.7120
 0.7560	55.9420
 0.7570	56.1560
 0.7580	56.3460
 0.7590	56.5200
 0.7600	56.6840
 0.7610	56.8330
 0.7620	56.9660
 0.7630	57.0860
 0.7640	57.1980
 0.7650	57.2980
 0.7660	57.3860
 0.7670	57.4720
 0.7680	57.5610
 0.7690	57.6290
 0.7700	57.6900
 0.7710	57.7530
 0.7720	57.8070
 0.7730	57.8610
 0.7740	57.9090
 0.7750	57.9500
 0.7760	57.9960
 0.7770	58.0350
 0.7780	58.0680
 0.7790	58.1020
 0.7800	58.1360
 0.7810	58.1690
 0.7820	58.2030
 0.7830	58.2360
 0.7840	58.2590
 0.7850	58.2820
 0.7860	58.3120
 0.7870	58.3360
 0.7880	58.3630
 0.7890	58.3900
 0.7900	58.4100
 0.7910	58.4350
 0.7920	58.4520
 0.7930	58.4670
 0.7940	58.4960
 0.7950	58.5190
 0.7960	58.5380
 0.7970	58.5550
 0.7980	58.5700
 0.7990	58.5900
 0.8000	58.6120
 0.8010	58.6320
 0.8020	58.6550
 0.8030	58.6740
 0.8040	58.6910
 0.8050	58.7100
 0.8060	58.7250
 0.8070	58.7430
 0.8080	58.7630
 0.8090	58.7780
 0.8100	58.7930
 0.8110	58.8080
 0.8120	58.8250
 0.8130	58.8530
 0.8140	58.8760
 0.8150	58.8940
 0.8160	58.9110
 0.8170	58.9320
 0.8180	58.9590
 0.8190	58.9870
 0.8200	59.0090
 0.8210	59.0190
 0.8220	59.0350
 0.8230	59.0590
 0.8240	59.0760
 0.8250	59.0990
 0.8260	59.1230
 0.8270	59.1430
 0.8280	59.1540
 0.8290	59.1710
 0.8300	59.1910
 0.8310	59.2100
 0.8320	59.2160
 0.8330	59.2340
 0.8340	59.2590
 0.8350	59.2750
 0.8360	59.2890
 0.8370	59.3130
 0.8380	59.3460
 0.8390	59.3790
 0.8400	59.3980
 0.8410	59.4180
 0.8420	59.4470
 0.8430	59.4780
 0.8440	59.5110
 0.8450	59.5370
 0.8460	59.5550
 0.8470	59.5790
 0.8480	59.6090
 0.8490	59.6410
 0.8500	59.6690
 0.8510	59.6960
 0.8520	59.7160
 0.8530	59.7350
 0.8540	59.7640
 0.8550	59.7970
 0.8560	59.8240
 0.8570	59.8450
 0.8580	59.8690
 0.8590	59.8890
 0.8600	59.9110
 0.8610	59.9360
 0.8620	59.9490
 0.8630	59.9610
 0.8640	59.9720
 0.8650	59.9830
 0.8660	59.9960
 0.8670	60.0030
 0.8680	60.0100
 0.8690	60.0230
 0.8700	60.0420
 0.8710	60.0610
 0.8720	60.0790
 0.8730	60.0950
 0.8740	60.0930
 0.8750	60.0920
 0.8760	60.1020
 0.8770	60.1220
 0.8780	60.1290
 0.8790	60.1310
 0.8800	60.1350
 0.8810	60.1440
 0.8820	60.1390
 0.8830	60.1310
 0.8840	60.1290
 0.8850	60.1360
 0.8860	60.1250
 0.8870	60.1140
 0.8880	60.1210
 0.8890	60.1150
 0.8900	60.1040
 0.8910	60.0930
 0.8920	60.0810
 0.8930	60.0670
 0.8940	60.0610
 0.8950	60.0620
 0.8960	60.0600
 0.8970	60.0220
 0.8980	60.0020
 0.8990	60.0090
 0.9000	60.0000
 0.9010	59.9790
 0.9020	59.9540
 0.9030	59.9370
 0.9040	59.9310
 0.9050	59.9210
 0.9060	59.9090
 0.9070	59.8920
 0.9080	59.8590
 0.9090	59.8360
 0.9100	59.8150
 0.9110	59.7890
 0.9120	59.7760
 0.9130	59.7660
 0.9140	59.7500
 0.9150	59.7240
 0.9160	59.7090
 0.9170	59.6930
 0.9180	59.6730
 0.9190	59.6500
 0.9200	59.6170
 0.9210	59.5840
 0.9220	59.5590
 0.9230	59.5450
 0.9240	59.5060
 0.9250	59.4810
 0.9260	59.4640
 0.9270	59.4140
 0.9280	59.3570
 0.9290	59.3060
 0.9300	59.2600
 0.9310	59.2090
 0.9320	59.1430
 0.9330	59.0850
 0.9340	59.0390
 0.9350	58.9850
 0.9360	58.9270
 0.9370	58.8560
 0.9380	58.7750
 0.9390	58.7010
 0.9400	58.6200
 0.9410	58.5340
 0.9420	58.4520
 0.9430	58.3840
 0.9440	58.2820
 0.9450	58.1670
 0.9460	58.0590
 0.9470	57.9400
 0.9480	57.7970
 0.9490	57.6410
 0.9500	57.4830
 0.9510	57.3100
 0.9520	57.1310
 0.9530	56.9570
 0.9540	56.7910
 0.9550	56.6070
 0.9560	56.4270
 0.9570	56.2490
 0.9580	56.0730
 0.9590	55.9210
 0.9600	55.7790
 0.9610	55.6510
 0.9620	55.5430
 0.9630	55.4570
 0.9640	55.3790
 0.9650	55.3010
 0.9660	55.2240
 0.9670	55.1370
 0.9680	55.0740
 0.9690	55.0230
 0.9700	54.9660
 0.9710	54.9320
 0.9720	54.8870
 0.9730	54.8400
 0.9740	54.8130
 0.9750	54.7710
 0.9760	54.7510
 0.9770	54.7470
 0.9780	54.7350
 0.9790	54.7070
 0.9800	54.7040
 0.9810	54.7190
 0.9820	54.7220
 0.9830	54.7410
 0.9840	54.7830
 0.9850	54.8230
 0.9860	54.8360
 0.9870	54.8700
 0.9880	54.9190
 0.9890	54.9610
 0.9900	54.9810
 0.9910	55.0300
 0.9920	55.0830
 0.9930	55.1370
 0.9940	55.1900
 0.9950	55.2430
 0.9960	55.2960
 0.9970	55.3500
 0.9980	55.4030
 0.9990	55.4560
 1.0000	55.5090
 1.0010	55.5630
 1.0020	55.6160
 1.0030	55.6690
 1.0040	55.7220
 1.0050	55.7760
 1.0060	55.8290
 1.0070	55.8820
 1.0080	55.9350
 1.0090	55.9880
 1.0100	55.9880
 1.0110	56.0660
 1.0120	56.1490
 1.0130	56.2370
 1.0140	56.3200
 1.0150	56.3990
 1.0160	56.4800
 1.0170	56.5660
 1.0180	56.6470
 1.0190	56.7320
 1.0200	56.8230
 1.0210	56.9050
 1.0220	56.9850
 1.0230	57.0700
 1.0240	57.1560
 1.0250	57.2410
 1.0260	57.3310
 1.0270	57.4130
 1.0280	57.4910
 1.0290	57.5680
 1.0300	57.6390
 1.0310	57.7130
 1.0320	57.7950
 1.0330	57.8690
 1.0340	57.9370
 1.0350	58.0110
 1.0360	58.0760
 1.0370	58.1440
 1.0380	58.2150
 1.0390	58.2920
 1.0400	58.3580
 1.0410	58.4210
 1.0420	58.4830
 1.0430	58.5390
 1.0440	58.5970
 1.0450	58.6570
 1.0460	58.7150
 1.0470	58.7720
 1.0480	58.8270
 1.0490	58.8810
 1.0500	58.9340
 1.0510	58.9850
 1.0520	59.0340
 1.0530	59.0830
 1.0540	59.1300
 1.0550	59.1800
 1.0560	59.2310
 1.0570	59.2770
 1.0580	59.3240
 1.0590	59.3650
 1.0600	59.4000
 1.0610	59.4360
 1.0620	59.4700
 1.0630	59.5030
 1.0640	59.5360
 1.0650	59.5660
 1.0660	59.5950
 1.0670	59.6220
 1.0680	59.6470
 1.0690	59.6680
 1.0700	59.6910
 1.0710	59.7160
 1.0720	59.7370
 1.0730	59.7550
 1.0740	59.7730
 1.0750	59.7900
 1.0760	59.8020
 1.0770	59.8130
 1.0780	59.8220
 1.0790	59.8230
 1.0800	59.8270
 1.0810	59.8350
 1.0820	59.8380
 1.0830	59.8430
 1.0840	59.8420
 1.0850	59.8380
 1.0860	59.8290
 1.0870	59.8170
 1.0880	59.8000
 1.0890	59.7870
 1.0900	59.7750
 1.0910	59.7570
 1.0920	59.7430
 1.0930	59.7200
 1.0940	59.6890
 1.0950	59.6610
 1.0960	59.6320
 1.0970	59.6000
 1.0980	59.5670
 1.0990	59.5330
 1.1000	59.4960
 1.1010	59.4600
 1.1020	59.4230
 1.1030	59.3870
 1.1040	59.3500
 1.1050	59.3070
 1.1060	59.2620
 1.1070	59.2160
 1.1080	59.1660
 1.1090	59.1140
 1.1100	59.0600
 1.1110	59.0050
 1.1120	58.9460
 1.1130	58.8860
 1.1140	58.8190
 1.1150	58.7460
 1.1160	58.6710
 1.1170	58.5960
 1.1180	58.5090
 1.1190	58.4170
 1.1200	58.3170
 1.1210	58.2030
 1.1220	58.0780
 1.1230	57.9430
 1.1240	57.7990
 1.1250	57.6400
 1.1260	57.4750
 1.1270	57.2840
 1.1280	57.0790
 1.1290	56.8540
 1.1300	56.6070
 1.1310	56.3440
 1.1320	56.0650
 1.1330	55.7690
 1.1340	55.4550
 1.1350	55.1240
 1.1360	54.7760
 1.1370	54.4120
 1.1380	54.0360
 1.1390	53.6520
 1.1400	53.2610
 1.1410	52.8700
 1.1420	52.4760
 1.1430	52.0770
 1.1440	51.6860
 1.1450	51.2930
 1.1460	50.9170
 1.1470	50.5450
 1.1480	50.1920
 1.1490	49.8490
 1.1500	49.5260
 1.1510	49.2140
 1.1520	48.9230
 1.1530	48.6480
 1.1540	48.3940
 1.1550	48.1590
 1.1560	47.9410
 1.1570	47.7380
 1.1580	47.5550
 1.1590	47.3830
 1.1600	47.2240
 1.1610	47.0820
 1.1620	46.9510
 1.1630	46.8290
 1.1640	46.7210
 1.1650	46.6190
 1.1660	46.5260
 1.1670	46.4380
 1.1680	46.3610
 1.1690	46.2820
 1.1700	46.2080
 1.1710	46.1360
 1.1720	46.0660
 1.1730	45.9970
 1.1740	45.9320
 1.1750	45.8660
 1.1760	45.7970
 1.1770	45.7270
 1.1780	45.6540
 1.1790	45.5800
 1.1800	45.5070
 1.1810	45.4330
 1.1820	45.3570
 1.1830	45.2820
 1.1840	45.2060
 1.1850	45.1330
 1.1860	45.0610
 1.1870	44.9920
 1.1880	44.9280
 1.1890	44.8670
 1.1900	44.8110
 1.1910	44.7600
 1.1920	44.7150
 1.1930	44.6720
 1.1940	44.6380
 1.1950	44.6100
 1.1960	44.5860
 1.1970	44.5670
 1.1980	44.5580
 1.1990	44.5550
 1.2000	44.5540
 1.2010	44.5610
 1.2020	44.5730
 1.2030	44.5890
 1.2040	44.6130
 1.2050	44.6390
 1.2060	44.6700
 1.2070	44.7080
 1.2080	44.7490
 1.2090	44.7950
 1.2100	44.8480
 1.2110	44.9070
 1.2120	44.9730
 1.2130	45.0440
 1.2140	45.1230
 1.2150	45.2060
 1.2160	45.2950
 1.2170	45.3830
 1.2180	45.4770
 1.2190	45.5730
 1.2200	45.6700
 1.2210	45.7710
 1.2220	45.8740
 1.2230	45.9770
 1.2240	46.0810
 1.2250	46.1830
 1.2260	46.2810
 1.2270	46.3810
 1.2280	46.4770
 1.2290	46.5680
 1.2300	46.6620
 1.2310	46.7560
 1.2320	46.8470
 1.2330	46.9360
 1.2340	47.0210
 1.2350	47.1000
 1.2360	47.1790
 1.2370	47.2560
 1.2380	47.3320
 1.2390	47.4080
 1.2400	47.4830
 1.2410	47.5560
 1.2420	47.6260
 1.2430	47.6910
 1.2440	47.7540
 1.2450	47.8140
 1.2460	47.8720
 1.2470	47.9290
 1.2480	47.9850
 1.2490	48.0400
 1.2500	48.0910
 1.2510	48.1420
 1.2520	48.1880
 1.2530	48.2300
 1.2540	48.2720
 1.2550	48.3130
 1.2560	48.3540
 1.2570	48.3930
 1.2580	48.4270
 1.2590	48.4600
 1.2600	48.4900
 1.2610	48.5190
 1.2620	48.5450
 1.2630	48.5710
 1.2640	48.5940
 1.2650	48.6110
 1.2660	48.6270
 1.2670	48.6410
 1.2680	48.6530
 1.2690	48.6630
 1.2700	48.6700
 1.2710	48.6760
 1.2720	48.6780
 1.2730	48.6780
 1.2740	48.6760
 1.2750	48.6690
 1.2760	48.6620
 1.2770	48.6540
 1.2780	48.6430
 1.2790	48.6270
 1.2800	48.6050
 1.2810	48.5810
 1.2820	48.5560
 1.2830	48.5300
 1.2840	48.5030
 1.2850	48.4690
 1.2860	48.4320
 1.2870	48.3900
 1.2880	48.3430
 1.2890	48.2900
 1.2900	48.2370
 1.2910	48.1800
 1.2920	48.1180
 1.2930	48.0530
 1.2940	47.9840
 1.2950	47.9090
 1.2960	47.8300
 1.2970	47.7500
 1.2980	47.6620
 1.2990	47.5650
 1.3000	47.4620
 1.3010	47.3540
 1.3020	47.2400
 1.3030	47.1220
 1.3040	46.9990
 1.3050	46.8720
 1.3060	46.7360
 1.3070	46.5920
 1.3080	46.4400
 1.3090	46.2820
 1.3100	46.1200
 1.3110	45.9530
 1.3120	45.7790
 1.3130	45.5990
 1.3140	45.4130
 1.3150	45.2210
 1.3160	45.0220
 1.3170	44.8180
 1.3180	44.6070
 1.3190	44.3880
 1.3200	44.1650
 1.3210	43.9370
 1.3220	43.7050
 1.3230	43.4700
 1.3240	43.2290
 1.3250	42.9850
 1.3260	42.7350
 1.3270	42.4820
 1.3280	42.2290
 1.3290	41.9740
 1.3300	41.7180
 1.3310	41.4590
 1.3320	41.1970
 1.3330	40.9380
 1.3340	40.6790
 1.3350	40.4180
 1.3360	40.1610
 1.3370	39.9010
 1.3380	39.6430
 1.3390	39.3910
 1.3400	39.1400
 1.3410	38.8960
 1.3420	38.6540
 1.3430	38.4150
 1.3440	38.1820
 1.3450	37.9520
 1.3460	37.7230
 1.3470	37.5030
 1.3480	37.2880
 1.3490	37.0760
 1.3500	36.8690
 1.3510	36.6650
 1.3520	36.4640
 1.3530	36.2650
 1.3540	36.0690
 1.3550	35.8740
 1.3560	35.6790
 1.3570	35.4840
 1.3580	35.2900
 1.3590	35.0940
 1.3600	34.8960
 1.3610	34.6950
 1.3620	34.4870
 1.3630	34.2760
 1.3640	34.0590
 1.3650	33.8340
 1.3660	33.6050
 1.3670	33.3680
 1.3680	33.1210
 1.3690	32.8630
 1.3700	32.5900
 1.3710	32.3060
 1.3720	32.0080
 1.3730	31.6950
 1.3740	31.3720
 1.3750	31.0300
 1.3760	30.6690
 1.3770	30.2920
 1.3780	29.8890
 1.3790	29.4680
 1.3800	29.0300
 1.3810	28.5700
 1.3820	28.0980
 1.3830	27.6110
 1.3840	27.1120
 1.3850	26.5980
 1.3860	26.0790
 1.3870	25.5440
 1.3880	25.0150
 1.3890	24.4820
 1.3900	23.9460
 1.3910	23.4200
 1.3920	22.8960
 1.3930	22.3770
 1.3940	21.8680
 1.3950	21.3650
 1.3960	20.8740
 1.3970	20.3990
 1.3980	19.9380
 1.3990	19.4970
 1.4000	19.0730
 1.4010	18.6630
 1.4020	18.2740
 1.4030	17.9010
 1.4040	17.5450
 1.4050	17.2090
 1.4060	16.8900
 1.4070	16.5910
 1.4080	16.3100
 1.4090	16.0440
 1.4100	15.7950
 1.4110	15.5590
 1.4120	15.3390
 1.4130	15.1340
 1.4140	14.9410
 1.4150	14.7630
 1.4160	14.5960
 1.4170	14.4390
 1.4180	14.2950
 1.4190	14.1590
 1.4200	14.0320
 1.4210	13.9150
 1.4220	13.8060
 1.4230	13.7050
 1.4240	13.6120
 1.4250	13.5240
 1.4260	13.4430
 1.4270	13.3680
 1.4280	13.3000
 1.4290	13.2360
 1.4300	13.1790
 1.4310	13.1250
 1.4320	13.0770
 1.4330	13.0320
 1.4340	12.9920
 1.4350	12.9560
 1.4360	12.9230
 1.4370	12.8930
 1.4380	12.8680
 1.4390	12.8470
 1.4400	12.8280
 1.4410	12.8120
 1.4420	12.7980
 1.4430	12.7850
 1.4440	12.7740
 1.4450	12.7650
 1.4460	12.7580
 1.4470	12.7540
 1.4480	12.7520
 1.4490	12.7520
 1.4500	12.7530
 1.4510	12.7540
 1.4520	12.7570
 1.4530	12.7610
 1.4540	12.7670
 1.4550	12.7740
 1.4560	12.7830
 1.4570	12.7930
 1.4580	12.8040
 1.4590	12.8180
 1.4600	12.8340
 1.4610	12.8530
 1.4620	12.8750
 1.4630	12.9000
 1.4640	12.9270
 1.4650	12.9560
 1.4660	12.9870
 1.4670	13.0210
 1.4680	13.0590
 1.4690	13.1010
 1.4700	13.1450
 1.4710	13.1930
 1.4720	13.2430
 1.4730	13.2930
 1.4740	13.3470
 1.4750	13.4040
 1.4760	13.4630
 1.4770	13.5240
 1.4780	13.5870
 1.4790	13.6520
 1.4800	13.7170
 1.4810	13.7840
 1.4820	13.8520
 1.4830	13.9200
 1.4840	13.9910
 1.4850	14.0620
 1.4860	14.1350
 1.4870	14.2100
 1.4880	14.2840
 1.4890	14.3580
 1.4900	14.4340
 1.4910	14.5110
 1.4920	14.5890
 1.4930	14.6700
 1.4940	14.7490
 1.4950	14.8290
 1.4960	14.9090
 1.4970	14.9880
 1.4980	15.0690
 1.4990	15.1510
 1.5000	15.2340
 1.5010	15.3170
 1.5020	15.4000
 1.5030	15.4840
 1.5040	15.5670
 1.5050	15.6500
 1.5060	15.7330
 1.5070	15.8170
 1.5080	15.9010
 1.5090	15.9850
 1.5100	16.0690
 1.5110	16.1530
 1.5120	16.2370
 1.5130	16.3200
 1.5140	16.4030
 1.5150	16.4850
 1.5160	16.5670
 1.5170	16.6510
 1.5180	16.7330
 1.5190	16.8140
 1.5200	16.8950
 1.5210	16.9730
 1.5220	17.0520
 1.5230	17.1330
 1.5240	17.2130
 1.5250	17.2940
 1.5260	17.3720
 1.5270	17.4480
 1.5280	17.5250
 1.5290	17.6000
 1.5300	17.6760
 1.5310	17.7530
 1.5320	17.8270
 1.5330	17.9020
 1.5340	17.9770
 1.5350	18.0500
 1.5360	18.1230
 1.5370	18.1970
 1.5380	18.2690
 1.5390	18.3420
 1.5400	18.4140
 1.5410	18.4850
 1.5420	18.5570
 1.5430	18.6280
 1.5440	18.6990
 1.5450	18.7700
 1.5460	18.8390
 1.5470	18.9090
 1.5480	18.9780
 1.5490	19.0490
 1.5500	19.1190
 1.5510	19.1880
 1.5520	19.2580
 1.5530	19.3270
 1.5540	19.3940
 1.5550	19.4620
 1.5560	19.5280
 1.5570	19.5950
 1.5580	19.6610
 1.5590	19.7280
 1.5600	19.7940
 1.5610	19.8570
 1.5620	19.9200
 1.5630	19.9830
 1.5640	20.0450
 1.5650	20.1070
 1.5660	20.1690
 1.5670	20.2320
 1.5680	20.2940
 1.5690	20.3560
 1.5700	20.4180
 1.5710	20.4800
 1.5720	20.5420
 1.5730	20.6040
 1.5740	20.6650
 1.5750	20.7260
 1.5760	20.7880
 1.5770	20.8490
 1.5780	20.9090
 1.5790	20.9710
 1.5800	21.0310
 1.5810	21.0940
 1.5820	21.1560
 1.5830	21.2160
 1.5840	21.2780
 1.5850	21.3390
 1.5860	21.4000
 1.5870	21.4610
 1.5880	21.5220
 1.5890	21.5830
 1.5900	21.6440
 1.5910	21.7070
 1.5920	21.7720
 1.5930	21.8370
 1.5940	21.9000
 1.5950	21.9650
 1.5960	22.0290
 1.5970	22.0920
 1.5980	22.1570
 1.5990	22.2230
 1.6000	22.2880
 1.6010	22.3540
 1.6020	22.4200
 1.6030	22.4840
 1.6040	22.5480
 1.6050	22.6120
 1.6060	22.6730
 1.6070	22.7360
 1.6080	22.7990
 1.6090	22.8620
 1.6100	22.9250
 1.6110	22.9870
 1.6120	23.0490
 1.6130	23.1100
 1.6140	23.1700
 1.6150	23.2270
 1.6160	23.2840
 1.6170	23.3380
 1.6180	23.3930
 1.6190	23.4470
 1.6200	23.4980
 1.6210	23.5500
 1.6220	23.5970
 1.6230	23.6430
 1.6240	23.6870
 1.6250	23.7280
 1.6260	23.7690
 1.6270	23.8100
 1.6280	23.8490
 1.6290	23.8880
 1.6300	23.9250
 1.6310	23.9640
 1.6320	24.0020
 1.6330	24.0410
 1.6340	24.0810
 1.6350	24.1220
 1.6360	24.1650
 1.6370	24.2060
 1.6380	24.2490
 1.6390	24.2900
 1.6400	24.3300
 1.6410	24.3690
 1.6420	24.4080
 1.6430	24.4430
 1.6440	24.4740
 1.6450	24.5040
 1.6460	24.5320
 1.6470	24.5570
 1.6480	24.5810
 1.6490	24.5990
 1.6500	24.6120
 1.6510	24.6230
 1.6520	24.6300
 1.6530	24.6340
 1.6540	24.6350
 1.6550	24.6330
 1.6560	24.6290
 1.6570	24.6220
 1.6580	24.6140
 1.6590	24.6040
 1.6600	24.5920
 1.6610	24.5800
 1.6620	24.5670
 1.6630	24.5560
 1.6640	24.5440
 1.6650	24.5320
 1.6660	24.5190
 1.6670	24.5040
 1.6680	24.4900
 1.6690	24.4750
 1.6700	24.4610
 1.6710	24.4440
 1.6720	24.4250
 1.6730	24.4060
 1.6740	24.3850
 1.6750	24.3640
 1.6760	24.3420
 1.6770	24.3170
 1.6780	24.2880
 1.6790	24.2580
 1.6800	24.2260
 1.6810	24.1900
 1.6820	24.1510
 1.6830	24.1080
 1.6840	24.0600
 1.6850	24.0110
 1.6860	23.9600
 1.6870	23.9050
 1.6880	23.8480
 1.6890	23.7890
 1.6900	23.7300
 1.6910	23.6690
 1.6920	23.6090
 1.6930	23.5470
 1.6940	23.4840
 1.6950	23.4220
 1.6960	23.3590
 1.6970	23.2950
 1.6980	23.2320
 1.6990	23.1680
 1.7000	23.1070
 1.7010	23.0480
 1.7020	22.9870
 1.7030	22.9270
 1.7040	22.8680
 1.7050	22.8080
 1.7060	22.7510
 1.7070	22.6990
 1.7080	22.6460
 1.7090	22.5950
 1.7100	22.5450
 1.7110	22.4970
 1.7120	22.4510
 1.7130	22.4080
 1.7140	22.3650
 1.7150	22.3240
 1.7160	22.2850
 1.7170	22.2450
 1.7180	22.2060
 1.7190	22.1680
 1.7200	22.1300
 1.7210	22.0940
 1.7220	22.0570
 1.7230	22.0210
 1.7240	21.9870
 1.7250	21.9540
 1.7260	21.9260
 1.7270	21.8990
 1.7280	21.8720
 1.7290	21.8480
 1.7300	21.8250
 1.7310	21.8040
 1.7320	21.7870
 1.7330	21.7670
 1.7340	21.7490
 1.7350	21.7290
 1.7360	21.7090
 1.7370	21.6850
 1.7380	21.6590
 1.7390	21.6280
 1.7400	21.5920
 1.7410	21.5540
 1.7420	21.5120
 1.7430	21.4690
 1.7440	21.4230
 1.7450	21.3760
 1.7460	21.3250
 1.7470	21.2750
 1.7480	21.2230
 1.7490	21.1730
 1.7500	21.1220
 1.7510	21.0730
 1.7520	21.0220
 1.7530	20.9740
 1.7540	20.9280
 1.7550	20.8800
 1.7560	20.8360
 1.7570	20.7930
 1.7580	20.7530
 1.7590	20.7150
 1.7600	20.6800
 1.7610	20.6470
 1.7620	20.6150
 1.7630	20.5850
 1.7640	20.5570
 1.7650	20.5280
 1.7660	20.5030
 1.7670	20.4820
 1.7680	20.4610
 1.7690	20.4420
 1.7700	20.4220
 1.7710	20.4000
 1.7720	20.3810
 1.7730	20.3640
 1.7740	20.3470
 1.7750	20.3300
 1.7760	20.3150
 1.7770	20.3000
 1.7780	20.2890
 1.7790	20.2800
 1.7800	20.2720
 1.7810	20.2640
 1.7820	20.2590
 1.7830	20.2540
 1.7840	20.2530
 1.7850	20.2540
 1.7860	20.2570
 1.7870	20.2630
 1.7880	20.2690
 1.7890	20.2770
 1.7900	20.2850
 1.7910	20.2940
 1.7920	20.3040
 1.7930	20.3150
 1.7940	20.3280
 1.7950	20.3410
 1.7960	20.3580
 1.7970	20.3730
 1.7980	20.3870
 1.7990	20.4020
 1.8000	20.4160
 1.8010	20.4320
 1.8020	20.4480
 1.8030	20.4640
 1.8040	20.4810
 1.8050	20.4950
 1.8060	20.5080
 1.8070	20.5220
 1.8080	20.5360
 1.8090	20.5500
 1.8100	20.5650
 1.8110	20.5770
 1.8120	20.5860
 1.8130	20.5950
 1.8140	20.6040
 1.8150	20.6170
 1.8160	20.6290
 1.8170	20.6390
 1.8180	20.6480
 1.8190	20.6560
 1.8200	20.6650
 1.8210	20.6760
 1.8220	20.6840
 1.8230	20.6900
 1.8240	20.6950
 1.8250	20.6980
 1.8260	20.7020
 1.8270	20.7080
 1.8280	20.7150
 1.8290	20.7210
 1.8300	20.7270
 1.8310	20.7330
 1.8320	20.7400
 1.8330	20.7460
 1.8340	20.7520
 1.8350	20.7520
 1.8360	20.7350
 1.8370	20.7170
 1.8380	20.6900
 1.8390	20.6600
 1.8400	20.6270
 1.8410	20.5880
 1.8420	20.5440
 1.8430	20.4980
 1.8440	20.4470
 1.8450	20.3870
 1.8460	20.3200
 1.8470	20.2450
 1.8480	20.1630
 1.8490	20.0720
 1.8500	19.9740
 1.8510	19.8700
 1.8520	19.7560
 1.8530	19.6310
 1.8540	19.5040
 1.8550	19.3650
 1.8560	19.2130
 1.8570	19.0590
 1.8580	18.8890
 1.8590	18.7090
 1.8600	18.5200
 1.8610	18.3250
 1.8620	18.1140
 1.8630	17.8920
 1.8640	17.6600
 1.8650	17.4150
 1.8660	17.1590
 1.8670	16.8940
 1.8680	16.6180
 1.8690	16.3310
 1.8700	16.0330
 1.8710	15.7260
 1.8720	15.4090
 1.8730	15.0850
 1.8740	14.7550
 1.8750	14.4170
 1.8760	14.0780
 1.8770	13.7400
 1.8780	13.4010
 1.8790	13.0650
 1.8800	12.7320
 1.8810	12.4030
 1.8820	12.0730
 1.8830	11.7460
 1.8840	11.4250
 1.8850	11.1060
 1.8860	10.7980
 1.8870	10.5000
 1.8880	10.2070
 1.8890	 9.9280
 1.8900	 9.6590
 1.8910	 9.4030
 1.8920	 9.1560
 1.8930	 8.9240
 1.8940	 8.7040
 1.8950	 8.4970
 1.8960	 8.3020
 1.8970	 8.1240
 1.8980	 7.9620
 1.8990	 7.8090
 1.9000	 7.6670
 1.9010	 7.5420
 1.9020	 7.4200
 1.9030	 7.3050
 1.9040	 7.2020
 1.9050	 7.1060
 1.9060	 7.0190
 1.9070	 6.9470
 1.9080	 6.8780
 1.9090	 6.8160
 1.9100	 6.7620
 1.9110	 6.7100
 1.9120	 6.6640
 1.9130	 6.6230
 1.9140	 6.5860
 1.9150	 6.5540
 1.9160	 6.5250
 1.9170	 6.4990
 1.9180	 6.4740
 1.9190	 6.4510
 1.9200	 6.4320
 1.9210	 6.4150
 1.9220	 6.4010
 1.9230	 6.3930
 1.9240	 6.3820
 1.9250	 6.3710
 1.9260	 6.3620
 1.9270	 6.3560
 1.9280	 6.3540
 1.9290	 6.3570
 1.9300	 6.3600
 1.9310	 6.3640
 1.9320	 6.3670
 1.9330	 6.3730
 1.9340	 6.3800
 1.9350	 6.3890
 1.9360	 6.4020
 1.9370	 6.4140
 1.9380	 6.4270
 1.9390	 6.4370
 1.9400	 6.4500
 1.9410	 6.4630
 1.9420	 6.4790
 1.9430	 6.4960
 1.9440	 6.5140
 1.9450	 6.5320
 1.9460	 6.5510
 1.9470	 6.5690
 1.9480	 6.5900
 1.9490	 6.6140
 1.9500	 6.6380
 1.9510	 6.6600
 1.9520	 6.6860
 1.9530	 6.7120
 1.9540	 6.7360
 1.9550	 6.7630
 1.9560	 6.7910
 1.9570	 6.8180
 1.9580	 6.8430
 1.9590	 6.8700
 1.9600	 6.8940
 1.9610	 6.9210
 1.9620	 6.9480
 1.9630	 6.9770
 1.9640	 7.0070
 1.9650	 7.0380
 1.9660	 7.0690
 1.9670	 7.1000
 1.9680	 7.1320
 1.9690	 7.1660
 1.9700	 7.2000
 1.9710	 7.2360
 1.9720	 7.2710
 1.9730	 7.3060
 1.9740	 7.3430
 1.9750	 7.3770
 1.9760	 7.4130
 1.9770	 7.4490
 1.9780	 7.4860
 1.9790	 7.5220
 1.9800	 7.5590
 1.9810	 7.5960
 1.9820	 7.6330
 1.9830	 7.6710
 1.9840	 7.7100
 1.9850	 7.7500
 1.9860	 7.7920
 1.9870	 7.8320
 1.9880	 7.8710
 1.9890	 7.9110
 1.9900	 7.9480
 1.9910	 7.9860
 1.9920	 8.0250
 1.9930	 8.0630
 1.9940	 8.1030
 1.9950	 8.1440
 1.9960	 8.1840
 1.9970	 8.2240
 1.9980	 8.2650
 1.9990	 8.3070
 2.0000	 8.3470
 2.0010	 8.3890
 2.0020	 8.4330
 2.0030	 8.4760
 2.0040	 8.5200
 2.0050	 8.5590
 2.0060	 8.5960
 2.0070	 8.6350
 2.0080	 8.6710
 2.0090	 8.7100
 2.0100	 8.7530
 2.0110	 8.7930
 2.0120	 8.8320
 2.0130	 8.8710
 2.0140	 8.9070
 2.0150	 8.9430
 2.0160	 8.9790
 2.0170	 9.0120
 2.0180	 9.0480
 2.0190	 9.0850
 2.0200	 9.1190
 2.0210	 9.1540
 2.0220	 9.1860
 2.0230	 9.2140
 2.0240	 9.2430
 2.0250	 9.2690
 2.0260	 9.2990
 2.0270	 9.3300
 2.0280	 9.3590
 2.0290	 9.3900
 2.0300	 9.4200
 2.0310	 9.4470
 2.0320	 9.4690
 2.0330	 9.4940
 2.0340	 9.5170
 2.0350	 9.5410
 2.0360	 9.5650
 2.0370	 9.5890
 2.0380	 9.6110
 2.0390	 9.6340
 2.0400	 9.6590
 2.0410	 9.6810
 2.0420	 9.7030
 2.0430	 9.7230
 2.0440	 9.7410
 2.0450	 9.7540
 2.0460	 9.7710
 2.0470	 9.7860
 2.0480	 9.8020
 2.0490	 9.8220
 2.0500	 9.8380
 2.0510	 9.8520
 2.0520	 9.8680
 2.0530	 9.8850
 2.0540	 9.9010
 2.0550	 9.9170
 2.0560	 9.9330
 2.0570	 9.9460
 2.0580	 9.9600
 2.0590	 9.9750
 2.0600	 9.9890
 2.0610	10.0060
 2.0620	10.0240
 2.0630	10.0410
 2.0640	10.0590
 2.0650	10.0770
 2.0660	10.0970
 2.0670	10.1130
 2.0680	10.1280
 2.0690	10.1440
 2.0700	10.1580
 2.0710	10.1740
 2.0720	10.1930
 2.0730	10.2110
 2.0740	10.2270
 2.0750	10.2430
 2.0760	10.2600
 2.0770	10.2750
 2.0780	10.2930
 2.0790	10.3120
 2.0800	10.3310
 2.0810	10.3500
 2.0820	10.3690
 2.0830	10.3860
 2.0840	10.4040
 2.0850	10.4230
 2.0860	10.4400
 2.0870	10.4560
 2.0880	10.4690
 2.0890	10.4860
 2.0900	10.5030
 2.0910	10.5210
 2.0920	10.5430
 2.0930	10.5620
 2.0940	10.5810
 2.0950	10.6000
 2.0960	10.6190
 2.0970	10.6380
 2.0980	10.6560
 2.0990	10.6750
 2.1000	10.6960
 2.1010	10.7160
 2.1020	10.7350
 2.1030	10.7540
 2.1040	10.7730
 2.1050	10.7920
 2.1060	10.8090
 2.1070	10.8250
 2.1080	10.8440
 2.1090	10.8620
 2.1100	10.8830
 2.1110	10.9080
 2.1120	10.9300
 2.1130	10.9520
 2.1140	10.9730
 2.1150	10.9890
 2.1160	11.0100
 2.1170	11.0300
 2.1180	11.0510
 2.1190	11.0770
 2.1200	11.0990
 2.1210	11.1190
 2.1220	11.1400
 2.1230	11.1600
 2.1240	11.1800
 2.1250	11.2000
 2.1260	11.2220
 2.1270	11.2420
 2.1280	11.2590
 2.1290	11.2800
 2.1300	11.3030
 2.1310	11.3240
 2.1320	11.3460
 2.1330	11.3690
 2.1340	11.3930
 2.1350	11.4160
 2.1360	11.4390
 2.1370	11.4600
 2.1380	11.4760
 2.1390	11.4960
 2.1400	11.5190
 2.1410	11.5390
 2.1420	11.5600
 2.1430	11.5830
 2.1440	11.6070
 2.1450	11.6340
 2.1460	11.6550
 2.1470	11.6760
 2.1480	11.6960
 2.1490	11.7100
 2.1500	11.7280
 2.1510	11.7490
 2.1520	11.7690
 2.1530	11.7910
 2.1540	11.8110
 2.1550	11.8290
 2.1560	11.8490
 2.1570	11.8680
 2.1580	11.8880
 2.1590	11.9090
 2.1600	11.9320
 2.1610	11.9560
 2.1620	11.9750
 2.1630	11.9930
 2.1640	12.0100
 2.1650	12.0280
 2.1660	12.0440
 2.1670	12.0610
 2.1680	12.0790
 2.1690	12.0970
 2.1700	12.1140
 2.1710	12.1340
 2.1720	12.1580
 2.1730	12.1780
 2.1740	12.2010
 2.1750	12.2200
 2.1760	12.2330
 2.1770	12.2510
 2.1780	12.2690
 2.1790	12.2880
 2.1800	12.3110
 2.1810	12.3320
 2.1820	12.3550
 2.1830	12.3780
 2.1840	12.3970
 2.1850	12.4140
 2.1860	12.4320
 2.1870	12.4460
 2.1880	12.4630
 2.1890	12.4830
 2.1900	12.5020
 2.1910	12.5210
 2.1920	12.5400
 2.1930	12.5580
 2.1940	12.5760
 2.1950	12.5940
 2.1960	12.6100
 2.1970	12.6250
 2.1980	12.6420
 2.1990	12.6620
 2.2000	12.6780
 2.2010	12.6960
 2.2020	12.7120
 2.2030	12.7210
 2.2040	12.7330
 2.2050	12.7480
 2.2060	12.7600
 2.2070	12.7710
 2.2080	12.7820
 2.2090	12.7900
 2.2100	12.7940
 2.2110	12.8010
 2.2120	12.8080
 2.2130	12.8140
 2.2140	12.8220
 2.2150	12.8270
 2.2160	12.8340
 2.2170	12.8350
 2.2180	12.8360
 2.2190	12.8310
 2.2200	12.8210
 2.2210	12.8130
 2.2220	12.8000
 2.2230	12.7910
 2.2240	12.7880
 2.2250	12.7780
 2.2260	12.7700
 2.2270	12.7550
 2.2280	12.7320
 2.2290	12.7090
 2.2300	12.6840
 2.2310	12.6540
 2.2320	12.6240
 2.2330	12.5960
 2.2340	12.5650
 2.2350	12.5330
 2.2360	12.5000
 2.2370	12.4660
 2.2380	12.4290
 2.2390	12.3880
 2.2400	12.3480
 2.2410	12.3090
 2.2420	12.2650
 2.2430	12.2190
 2.2440	12.1710
 2.2450	12.1160
 2.2460	12.0650
 2.2470	12.0170
 2.2480	11.9620
 2.2490	11.9060
 2.2500	11.8480
 2.2510	11.7850
 2.2520	11.7230
 2.2530	11.6600
 2.2540	11.5990
 2.2550	11.5390
 2.2560	11.4790
 2.2570	11.4210
 2.2580	11.3620
 2.2590	11.3000
 2.2600	11.2400
 2.2610	11.1820
 2.2620	11.1190
 2.2630	11.0580
 2.2640	11.0000
 2.2650	10.9460
 2.2660	10.8950
 2.2670	10.8440
 2.2680	10.7950
 2.2690	10.7510
 2.2700	10.7090
 2.2710	10.6720
 2.2720	10.6410
 2.2730	10.6100
 2.2740	10.5820
 2.2750	10.5540
 2.2760	10.5280
 2.2770	10.5010
 2.2780	10.4700
 2.2790	10.4460
 2.2800	10.4270
 2.2810	10.4070
 2.2820	10.3930
 2.2830	10.3740
 2.2840	10.3520
 2.2850	10.3320
 2.2860	10.3100
 2.2870	10.2900
 2.2880	10.2720
 2.2890	10.2500
 2.2900	10.2260
 2.2910	10.2020
 2.2920	10.1760
 2.2930	10.1490
 2.2940	10.1180
 2.2950	10.0890
 2.2960	10.0570
 2.2970	10.0250
 2.2980	 9.9930
 2.2990	 9.9610
 2.3000	 9.9240
 2.3010	 9.8920
 2.3020	 9.8580
 2.3030	 9.8200
 2.3040	 9.7870
 2.3050	 9.7520
 2.3060	 9.7250
 2.3070	 9.7000
 2.3080	 9.6740
 2.3090	 9.6570
 2.3100	 9.6410
 2.3110	 9.6300
 2.3120	 9.6200
 2.3130	 9.6150
 2.3140	 9.6130
 2.3150	 9.6130
 2.3160	 9.6160
 2.3170	 9.6270
 2.3180	 9.6300
 2.3190	 9.6330
 2.3200	 9.6300
 2.3210	 9.6250
 2.3220	 9.6150
 2.3230	 9.5980
 2.3240	 9.5870
 2.3250	 9.5760
 2.3260	 9.5640
 2.3270	 9.5540
 2.3280	 9.5400
 2.3290	 9.5210
 2.3300	 9.5040
 2.3310	 9.4900
 2.3320	 9.4720
 2.3330	 9.4500
 2.3340	 9.4320
 2.3350	 9.4170
 2.3360	 9.3990
 2.3370	 9.3850
 2.3380	 9.3650
 2.3390	 9.3370
 2.3400	 9.3140
 2.3410	 9.2910
 2.3420	 9.2680
 2.3430	 9.2470
 2.3440	 9.2230
 2.3450	 9.1900
 2.3460	 9.1670
 2.3470	 9.1480
 2.3480	 9.1300
 2.3490	 9.1270
 2.3500	 9.1140
 2.3510	 9.0930
 2.3520	 9.0760
 2.3530	 9.0580
 2.3540	 9.0390
 2.3550	 9.0330
 2.3560	 9.0370
 2.3570	 9.0360
 2.3580	 9.0320
 2.3590	 9.0330
 2.3600	 9.0180
 2.3610	 9.0070
 2.3620	 8.9990
 2.3630	 8.9730
 2.3640	 8.9560
 2.3650	 8.9350
 2.3660	 8.9140
 2.3670	 8.9080
 2.3680	 8.8970
 2.3690	 8.8880
 2.3700	 8.8730
 2.3710	 8.8490
 2.3720	 8.8300
 2.3730	 8.8100
 2.3740	 8.7930
 2.3750	 8.7760
 2.3760	 8.7560
 2.3770	 8.7410
 2.3780	 8.7290
 2.3790	 8.7140
 2.3800	 8.6970
 2.3810	 8.6750
 2.3820	 8.6550
 2.3830	 8.6380
 2.3840	 8.6180
 2.3850	 8.6040
 2.3860	 8.5830
 2.3870	 8.5520
 2.3880	 8.5360
 2.3890	 8.5160
 2.3900	 8.4980
 2.3910	 8.4870
 2.3920	 8.4670
 2.3930	 8.4530
 2.3940	 8.4380
 2.3950	 8.4200
 2.3960	 8.4090
 2.3970	 8.3960
 2.3980	 8.3770
 2.3990	 8.3590
 2.4000	 8.3400
 2.4010	 8.3140
 2.4020	 8.2910
 2.4030	 8.2800
 2.4040	 8.2650
 2.4050	 8.2340
 2.4060	 8.2100
 2.4070	 8.1820
 2.4080	 8.1490
 2.4090	 8.1340
 2.4100	 8.1190
 2.4110	 8.0960
 2.4120	 8.0790
 2.4130	 8.0630
 2.4140	 8.0430
 2.4150	 8.0290
 2.4160	 8.0150
 2.4170	 7.9990
 2.4180	 7.9790
 2.4190	 7.9450
 2.4200	 7.9120
 2.4210	 7.8860
 2.4220	 7.8600
 2.4230	 7.8380
 2.4240	 7.8120
 2.4250	 7.7770
 2.4260	 7.7430
 2.4270	 7.7270
 2.4280	 7.7110
 2.4290	 7.6870
 2.4300	 7.6660
 2.4310	 7.6280
 2.4320	 7.5920
 2.4330	 7.5710
 2.4340	 7.5610
 2.4350	 7.5470
 2.4360	 7.5220
 2.4370	 7.4970
 2.4380	 7.4590
 2.4390	 7.4310
 2.4400	 7.4110
 2.4410	 7.3730
 2.4420	 7.3500
 2.4430	 7.3300
 2.4440	 7.3120
 2.4450	 7.3110
 2.4460	 7.2940
 2.4470	 7.2730
 2.4480	 7.2320
 2.4490	 7.1880
 2.4500	 7.1570
 2.4510	 7.1060
 2.4520	 7.0700
 2.4530	 7.0540
 2.4540	 7.0400
 2.4550	 7.0300
 2.4560	 7.0220
 2.4570	 6.9940
 2.4580	 6.9700
 2.4590	 6.9580
 2.4600	 6.9320
 2.4610	 6.9270
 2.4620	 6.9060
 2.4630	 6.8660
 2.4640	 6.8440
 2.4650	 6.8170
 2.4660	 6.7870
 2.4670	 6.7640
 2.4680	 6.7640
 2.4690	 6.7500
 2.4700	 6.7300
 2.4710	 6.7120
 2.4720	 6.6980
 2.4730	 6.6850
 2.4740	 6.6730
 2.4750	 6.6590
 2.4760	 6.6530
 2.4770	 6.6590
 2.4780	 6.6460
 2.4790	 6.6340
 2.4800	 6.6190
 2.4810	 6.5840
 2.4820	 6.5820
 2.4830	 6.5940
 2.4840	 6.6310
 2.4850	 6.6260
 2.4860	 6.5970
 2.4870	 6.5700
 2.4880	 6.5260
 2.4890	 6.4960
 2.4900	 6.4640
 2.4910	 6.4650
 2.4920	 6.4720
 2.4930	 6.4530
 2.4940	 6.4390
 2.4950	 6.4140
 2.4960	 6.3940
 2.4970	 6.4090
 2.4980	 6.4900
 2.4990	 6.5480
 2.5000	 6.5660
