Name: Casimiroa edulis
Type: vegetation
Class: Tree
Genus: Casimiroa
Species: edulis
Sample No.: JPL217
Owner: JPL
Wavelength Range: VSWIR
Origin: 34.12482; -118.1195; WGS84
Collection Date: 10/3/2016
Description: Samples were collected at the Huntington Garden in San Marino California as part of a JPL Subcontract studying HyTES imagery. Samples were taken to JPL and processed within 48 hours of collection. The same leaves were processed in the Nicolet and then measured using the ASD.
Measurement: Bidirectional reflectance
First Column: X
Second Column: Y
X Units: Wavelength (micrometer)
Y Units: Reflectance (percentage)
First X Value: 0.35
Last X Value: 2.5
Number of X Values: 2151
Additional Information: vegetation.tree.casimiroa.edulis.vswir.jpl217.jpl.asd.ancillary.txt

 0.3500	 5.8400
 0.3510	 5.4850
 0.3520	 5.3920
 0.3530	 5.4690
 0.3540	 5.4990
 0.3550	 5.4270
 0.3560	 5.4020
 0.3570	 5.3900
 0.3580	 5.2850
 0.3590	 5.2740
 0.3600	 5.2980
 0.3610	 5.3050
 0.3620	 5.2880
 0.3630	 5.2670
 0.3640	 5.2710
 0.3650	 5.3050
 0.3660	 5.2900
 0.3670	 5.2150
 0.3680	 5.1480
 0.3690	 5.1950
 0.3700	 5.1960
 0.3710	 5.1730
 0.3720	 5.1710
 0.3730	 5.2480
 0.3740	 5.2520
 0.3750	 5.2050
 0.3760	 5.1760
 0.3770	 5.1410
 0.3780	 5.1070
 0.3790	 5.0960
 0.3800	 5.1300
 0.3810	 5.1190
 0.3820	 5.0970
 0.3830	 5.1020
 0.3840	 5.1480
 0.3850	 5.1370
 0.3860	 5.0990
 0.3870	 5.0940
 0.3880	 5.0640
 0.3890	 5.0560
 0.3900	 5.0730
 0.3910	 5.0690
 0.3920	 5.0910
 0.3930	 5.0990
 0.3940	 5.0680
 0.3950	 5.0510
 0.3960	 5.0400
 0.3970	 5.0410
 0.3980	 5.0580
 0.3990	 5.0610
 0.4000	 5.0550
 0.4010	 5.0470
 0.4020	 5.0380
 0.4030	 5.0380
 0.4040	 5.0460
 0.4050	 5.0540
 0.4060	 5.0470
 0.4070	 5.0390
 0.4080	 5.0460
 0.4090	 5.0770
 0.4100	 5.0670
 0.4110	 5.0510
 0.4120	 5.0550
 0.4130	 5.0780
 0.4140	 5.1040
 0.4150	 5.1190
 0.4160	 5.1160
 0.4170	 5.1320
 0.4180	 5.1520
 0.4190	 5.1680
 0.4200	 5.1860
 0.4210	 5.2180
 0.4220	 5.2430
 0.4230	 5.2490
 0.4240	 5.2660
 0.4250	 5.2840
 0.4260	 5.3030
 0.4270	 5.3260
 0.4280	 5.3460
 0.4290	 5.3640
 0.4300	 5.3780
 0.4310	 5.3830
 0.4320	 5.4070
 0.4330	 5.4300
 0.4340	 5.4330
 0.4350	 5.4440
 0.4360	 5.4530
 0.4370	 5.4600
 0.4380	 5.4750
 0.4390	 5.5030
 0.4400	 5.5260
 0.4410	 5.5370
 0.4420	 5.5530
 0.4430	 5.5660
 0.4440	 5.5780
 0.4450	 5.5930
 0.4460	 5.6050
 0.4470	 5.6180
 0.4480	 5.6320
 0.4490	 5.6500
 0.4500	 5.6590
 0.4510	 5.6660
 0.4520	 5.6770
 0.4530	 5.6990
 0.4540	 5.7130
 0.4550	 5.7160
 0.4560	 5.7210
 0.4570	 5.7270
 0.4580	 5.7380
 0.4590	 5.7540
 0.4600	 5.7660
 0.4610	 5.7660
 0.4620	 5.7580
 0.4630	 5.7530
 0.4640	 5.7580
 0.4650	 5.7690
 0.4660	 5.7790
 0.4670	 5.7770
 0.4680	 5.7760
 0.4690	 5.7790
 0.4700	 5.7850
 0.4710	 5.7860
 0.4720	 5.7880
 0.4730	 5.7900
 0.4740	 5.7860
 0.4750	 5.7940
 0.4760	 5.7990
 0.4770	 5.7930
 0.4780	 5.7920
 0.4790	 5.7940
 0.4800	 5.7980
 0.4810	 5.8020
 0.4820	 5.8030
 0.4830	 5.8040
 0.4840	 5.8090
 0.4850	 5.8140
 0.4860	 5.8170
 0.4870	 5.8210
 0.4880	 5.8280
 0.4890	 5.8380
 0.4900	 5.8550
 0.4910	 5.8740
 0.4920	 5.8870
 0.4930	 5.9060
 0.4940	 5.9270
 0.4950	 5.9470
 0.4960	 5.9710
 0.4970	 5.9990
 0.4980	 6.0290
 0.4990	 6.0590
 0.5000	 6.0880
 0.5010	 6.1200
 0.5020	 6.1580
 0.5030	 6.1990
 0.5040	 6.2440
 0.5050	 6.2920
 0.5060	 6.3450
 0.5070	 6.4030
 0.5080	 6.4730
 0.5090	 6.5520
 0.5100	 6.6330
 0.5110	 6.7150
 0.5120	 6.8090
 0.5130	 6.9170
 0.5140	 7.0300
 0.5150	 7.1510
 0.5160	 7.2820
 0.5170	 7.4250
 0.5180	 7.5810
 0.5190	 7.7440
 0.5200	 7.9120
 0.5210	 8.0890
 0.5220	 8.2730
 0.5230	 8.4590
 0.5240	 8.6450
 0.5250	 8.8320
 0.5260	 9.0100
 0.5270	 9.1810
 0.5280	 9.3470
 0.5290	 9.5040
 0.5300	 9.6530
 0.5310	 9.7920
 0.5320	 9.9150
 0.5330	10.0310
 0.5340	10.1360
 0.5350	10.2280
 0.5360	10.3120
 0.5370	10.3850
 0.5380	10.4460
 0.5390	10.4990
 0.5400	10.5440
 0.5410	10.5850
 0.5420	10.6230
 0.5430	10.6600
 0.5440	10.6960
 0.5450	10.7320
 0.5460	10.7660
 0.5470	10.7980
 0.5480	10.8300
 0.5490	10.8600
 0.5500	10.8800
 0.5510	10.8940
 0.5520	10.9010
 0.5530	10.8970
 0.5540	10.8790
 0.5550	10.8490
 0.5560	10.8040
 0.5570	10.7470
 0.5580	10.6800
 0.5590	10.6030
 0.5600	10.5150
 0.5610	10.4220
 0.5620	10.3210
 0.5630	10.2140
 0.5640	10.1070
 0.5650	 9.9990
 0.5660	 9.8870
 0.5670	 9.7710
 0.5680	 9.6520
 0.5690	 9.5290
 0.5700	 9.4070
 0.5710	 9.2880
 0.5720	 9.1700
 0.5730	 9.0560
 0.5740	 8.9520
 0.5750	 8.8570
 0.5760	 8.7640
 0.5770	 8.6770
 0.5780	 8.5980
 0.5790	 8.5230
 0.5800	 8.4560
 0.5810	 8.3920
 0.5820	 8.3300
 0.5830	 8.2720
 0.5840	 8.2180
 0.5850	 8.1690
 0.5860	 8.1230
 0.5870	 8.0780
 0.5880	 8.0360
 0.5890	 7.9970
 0.5900	 7.9630
 0.5910	 7.9310
 0.5920	 7.9010
 0.5930	 7.8750
 0.5940	 7.8550
 0.5950	 7.8360
 0.5960	 7.8190
 0.5970	 7.8050
 0.5980	 7.7900
 0.5990	 7.7750
 0.6000	 7.7560
 0.6010	 7.7350
 0.6020	 7.7110
 0.6030	 7.6830
 0.6040	 7.6510
 0.6050	 7.6140
 0.6060	 7.5740
 0.6070	 7.5310
 0.6080	 7.4830
 0.6090	 7.4280
 0.6100	 7.3690
 0.6110	 7.3140
 0.6120	 7.2670
 0.6130	 7.2230
 0.6140	 7.1800
 0.6150	 7.1370
 0.6160	 7.0950
 0.6170	 7.0570
 0.6180	 7.0220
 0.6190	 6.9850
 0.6200	 6.9540
 0.6210	 6.9280
 0.6220	 6.9050
 0.6230	 6.8870
 0.6240	 6.8720
 0.6250	 6.8580
 0.6260	 6.8470
 0.6270	 6.8370
 0.6280	 6.8300
 0.6290	 6.8250
 0.6300	 6.8200
 0.6310	 6.8140
 0.6320	 6.8070
 0.6330	 6.7990
 0.6340	 6.7870
 0.6350	 6.7690
 0.6360	 6.7460
 0.6370	 6.7180
 0.6380	 6.6850
 0.6390	 6.6490
 0.6400	 6.6110
 0.6410	 6.5710
 0.6420	 6.5290
 0.6430	 6.4870
 0.6440	 6.4470
 0.6450	 6.4110
 0.6460	 6.3750
 0.6470	 6.3380
 0.6480	 6.3060
 0.6490	 6.2810
 0.6500	 6.2600
 0.6510	 6.2410
 0.6520	 6.2250
 0.6530	 6.2120
 0.6540	 6.2010
 0.6550	 6.1870
 0.6560	 6.1720
 0.6570	 6.1560
 0.6580	 6.1360
 0.6590	 6.1130
 0.6600	 6.0900
 0.6610	 6.0700
 0.6620	 6.0500
 0.6630	 6.0320
 0.6640	 6.0160
 0.6650	 6.0020
 0.6660	 5.9960
 0.6670	 5.9940
 0.6680	 5.9960
 0.6690	 6.0050
 0.6700	 6.0160
 0.6710	 6.0300
 0.6720	 6.0500
 0.6730	 6.0760
 0.6740	 6.1060
 0.6750	 6.1410
 0.6760	 6.1810
 0.6770	 6.2210
 0.6780	 6.2680
 0.6790	 6.3230
 0.6800	 6.3790
 0.6810	 6.4400
 0.6820	 6.5050
 0.6830	 6.5730
 0.6840	 6.6420
 0.6850	 6.7120
 0.6860	 6.7830
 0.6870	 6.8570
 0.6880	 6.9450
 0.6890	 7.0480
 0.6900	 7.1740
 0.6910	 7.3320
 0.6920	 7.5310
 0.6930	 7.7810
 0.6940	 8.0900
 0.6950	 8.4620
 0.6960	 8.9010
 0.6970	 9.4070
 0.6980	 9.9780
 0.6990	10.6100
 0.7000	11.3010
 0.7010	12.0410
 0.7020	12.8200
 0.7030	13.6310
 0.7040	14.4660
 0.7050	15.3180
 0.7060	16.1860
 0.7070	17.0660
 0.7080	17.9540
 0.7090	18.8550
 0.7100	19.7660
 0.7110	20.6870
 0.7120	21.6150
 0.7130	22.5490
 0.7140	23.4910
 0.7150	24.4390
 0.7160	25.3880
 0.7170	26.3370
 0.7180	27.2860
 0.7190	28.2320
 0.7200	29.1700
 0.7210	30.1000
 0.7220	31.0170
 0.7230	31.9180
 0.7240	32.8020
 0.7250	33.6620
 0.7260	34.5010
 0.7270	35.3170
 0.7280	36.1050
 0.7290	36.8610
 0.7300	37.5870
 0.7310	38.2830
 0.7320	38.9470
 0.7330	39.5810
 0.7340	40.1830
 0.7350	40.7510
 0.7360	41.2880
 0.7370	41.7930
 0.7380	42.2670
 0.7390	42.7120
 0.7400	43.1280
 0.7410	43.5140
 0.7420	43.8700
 0.7430	44.2010
 0.7440	44.5030
 0.7450	44.7800
 0.7460	45.0350
 0.7470	45.2650
 0.7480	45.4730
 0.7490	45.6610
 0.7500	45.8310
 0.7510	45.9860
 0.7520	46.1260
 0.7530	46.2540
 0.7540	46.3660
 0.7550	46.4680
 0.7560	46.5610
 0.7570	46.6420
 0.7580	46.7200
 0.7590	46.7900
 0.7600	46.8520
 0.7610	46.9060
 0.7620	46.9550
 0.7630	46.9990
 0.7640	47.0400
 0.7650	47.0750
 0.7660	47.1060
 0.7670	47.1310
 0.7680	47.1550
 0.7690	47.1780
 0.7700	47.1970
 0.7710	47.2150
 0.7720	47.2340
 0.7730	47.2510
 0.7740	47.2670
 0.7750	47.2810
 0.7760	47.2950
 0.7770	47.3110
 0.7780	47.3260
 0.7790	47.3390
 0.7800	47.3510
 0.7810	47.3640
 0.7820	47.3780
 0.7830	47.3940
 0.7840	47.4080
 0.7850	47.4190
 0.7860	47.4300
 0.7870	47.4410
 0.7880	47.4520
 0.7890	47.4600
 0.7900	47.4660
 0.7910	47.4770
 0.7920	47.4870
 0.7930	47.4950
 0.7940	47.5000
 0.7950	47.5080
 0.7960	47.5120
 0.7970	47.5130
 0.7980	47.5160
 0.7990	47.5180
 0.8000	47.5180
 0.8010	47.5170
 0.8020	47.5190
 0.8030	47.5210
 0.8040	47.5200
 0.8050	47.5180
 0.8060	47.5140
 0.8070	47.5110
 0.8080	47.5080
 0.8090	47.5050
 0.8100	47.5000
 0.8110	47.4940
 0.8120	47.4870
 0.8130	47.4780
 0.8140	47.4710
 0.8150	47.4650
 0.8160	47.4550
 0.8170	47.4500
 0.8180	47.4460
 0.8190	47.4390
 0.8200	47.4290
 0.8210	47.4210
 0.8220	47.4120
 0.8230	47.4020
 0.8240	47.3930
 0.8250	47.3860
 0.8260	47.3770
 0.8270	47.3650
 0.8280	47.3590
 0.8290	47.3510
 0.8300	47.3410
 0.8310	47.3310
 0.8320	47.3220
 0.8330	47.3160
 0.8340	47.3100
 0.8350	47.3040
 0.8360	47.2990
 0.8370	47.2930
 0.8380	47.2870
 0.8390	47.2810
 0.8400	47.2780
 0.8410	47.2750
 0.8420	47.2710
 0.8430	47.2720
 0.8440	47.2730
 0.8450	47.2710
 0.8460	47.2680
 0.8470	47.2710
 0.8480	47.2730
 0.8490	47.2720
 0.8500	47.2700
 0.8510	47.2740
 0.8520	47.2780
 0.8530	47.2810
 0.8540	47.2840
 0.8550	47.2850
 0.8560	47.2860
 0.8570	47.2890
 0.8580	47.2960
 0.8590	47.3010
 0.8600	47.3050
 0.8610	47.3100
 0.8620	47.3210
 0.8630	47.3280
 0.8640	47.3340
 0.8650	47.3400
 0.8660	47.3480
 0.8670	47.3560
 0.8680	47.3630
 0.8690	47.3730
 0.8700	47.3770
 0.8710	47.3820
 0.8720	47.3890
 0.8730	47.3990
 0.8740	47.4080
 0.8750	47.4210
 0.8760	47.4340
 0.8770	47.4400
 0.8780	47.4510
 0.8790	47.4610
 0.8800	47.4690
 0.8810	47.4790
 0.8820	47.4880
 0.8830	47.4950
 0.8840	47.5040
 0.8850	47.5160
 0.8860	47.5250
 0.8870	47.5310
 0.8880	47.5410
 0.8890	47.5490
 0.8900	47.5570
 0.8910	47.5660
 0.8920	47.5760
 0.8930	47.5850
 0.8940	47.5980
 0.8950	47.6100
 0.8960	47.6170
 0.8970	47.6270
 0.8980	47.6340
 0.8990	47.6380
 0.9000	47.6470
 0.9010	47.6540
 0.9020	47.6640
 0.9030	47.6730
 0.9040	47.6770
 0.9050	47.6820
 0.9060	47.6860
 0.9070	47.6910
 0.9080	47.7040
 0.9090	47.7120
 0.9100	47.7160
 0.9110	47.7220
 0.9120	47.7270
 0.9130	47.7320
 0.9140	47.7360
 0.9150	47.7370
 0.9160	47.7400
 0.9170	47.7420
 0.9180	47.7440
 0.9190	47.7490
 0.9200	47.7510
 0.9210	47.7470
 0.9220	47.7420
 0.9230	47.7380
 0.9240	47.7410
 0.9250	47.7370
 0.9260	47.7270
 0.9270	47.7220
 0.9280	47.7180
 0.9290	47.7100
 0.9300	47.6990
 0.9310	47.6870
 0.9320	47.6650
 0.9330	47.6500
 0.9340	47.6440
 0.9350	47.6270
 0.9360	47.6120
 0.9370	47.5960
 0.9380	47.5750
 0.9390	47.5520
 0.9400	47.5350
 0.9410	47.5150
 0.9420	47.4870
 0.9430	47.4510
 0.9440	47.4260
 0.9450	47.4020
 0.9460	47.3700
 0.9470	47.3390
 0.9480	47.3020
 0.9490	47.2580
 0.9500	47.2110
 0.9510	47.1680
 0.9520	47.1250
 0.9530	47.0770
 0.9540	47.0200
 0.9550	46.9800
 0.9560	46.9380
 0.9570	46.8920
 0.9580	46.8460
 0.9590	46.8030
 0.9600	46.7710
 0.9610	46.7400
 0.9620	46.7010
 0.9630	46.6700
 0.9640	46.6440
 0.9650	46.6240
 0.9660	46.6100
 0.9670	46.5850
 0.9680	46.5660
 0.9690	46.5500
 0.9700	46.5320
 0.9710	46.5190
 0.9720	46.5030
 0.9730	46.4920
 0.9740	46.4970
 0.9750	46.4920
 0.9760	46.4800
 0.9770	46.4710
 0.9780	46.4700
 0.9790	46.4520
 0.9800	46.4510
 0.9810	46.4580
 0.9820	46.4500
 0.9830	46.4550
 0.9840	46.4580
 0.9850	46.4590
 0.9860	46.4630
 0.9870	46.4740
 0.9880	46.4730
 0.9890	46.4690
 0.9900	46.4840
 0.9910	46.4960
 0.9920	46.4950
 0.9930	46.4930
 0.9940	46.5060
 0.9950	46.5110
 0.9960	46.5280
 0.9970	46.5450
 0.9980	46.5450
 0.9990	46.5650
 1.0000	46.5750
 1.0010	47.7370
 1.0020	47.7450
 1.0030	47.7490
 1.0040	47.7590
 1.0050	47.7720
 1.0060	47.7870
 1.0070	47.7990
 1.0080	47.8140
 1.0090	47.8310
 1.0100	47.8450
 1.0110	47.8610
 1.0120	47.8740
 1.0130	47.8820
 1.0140	47.8930
 1.0150	47.9040
 1.0160	47.9160
 1.0170	47.9300
 1.0180	47.9450
 1.0190	47.9580
 1.0200	47.9720
 1.0210	47.9840
 1.0220	47.9970
 1.0230	48.0100
 1.0240	48.0250
 1.0250	48.0390
 1.0260	48.0540
 1.0270	48.0680
 1.0280	48.0860
 1.0290	48.1000
 1.0300	48.1110
 1.0310	48.1230
 1.0320	48.1360
 1.0330	48.1450
 1.0340	48.1560
 1.0350	48.1660
 1.0360	48.1750
 1.0370	48.1850
 1.0380	48.1980
 1.0390	48.2130
 1.0400	48.2260
 1.0410	48.2410
 1.0420	48.2530
 1.0430	48.2630
 1.0440	48.2710
 1.0450	48.2760
 1.0460	48.2840
 1.0470	48.2960
 1.0480	48.3040
 1.0490	48.3140
 1.0500	48.3220
 1.0510	48.3300
 1.0520	48.3330
 1.0530	48.3400
 1.0540	48.3490
 1.0550	48.3540
 1.0560	48.3580
 1.0570	48.3620
 1.0580	48.3630
 1.0590	48.3660
 1.0600	48.3680
 1.0610	48.3740
 1.0620	48.3850
 1.0630	48.3890
 1.0640	48.3910
 1.0650	48.3930
 1.0660	48.3900
 1.0670	48.3880
 1.0680	48.3870
 1.0690	48.3890
 1.0700	48.3870
 1.0710	48.3820
 1.0720	48.3780
 1.0730	48.3710
 1.0740	48.3690
 1.0750	48.3700
 1.0760	48.3680
 1.0770	48.3680
 1.0780	48.3660
 1.0790	48.3610
 1.0800	48.3570
 1.0810	48.3520
 1.0820	48.3490
 1.0830	48.3500
 1.0840	48.3450
 1.0850	48.3370
 1.0860	48.3310
 1.0870	48.3240
 1.0880	48.3120
 1.0890	48.3050
 1.0900	48.3030
 1.0910	48.2970
 1.0920	48.2900
 1.0930	48.2810
 1.0940	48.2690
 1.0950	48.2610
 1.0960	48.2540
 1.0970	48.2450
 1.0980	48.2370
 1.0990	48.2290
 1.1000	48.2170
 1.1010	48.2070
 1.1020	48.1980
 1.1030	48.1880
 1.1040	48.1800
 1.1050	48.1740
 1.1060	48.1660
 1.1070	48.1570
 1.1080	48.1500
 1.1090	48.1440
 1.1100	48.1350
 1.1110	48.1300
 1.1120	48.1190
 1.1130	48.1030
 1.1140	48.0900
 1.1150	48.0760
 1.1160	48.0620
 1.1170	48.0500
 1.1180	48.0330
 1.1190	48.0120
 1.1200	47.9900
 1.1210	47.9670
 1.1220	47.9410
 1.1230	47.9170
 1.1240	47.8890
 1.1250	47.8560
 1.1260	47.8200
 1.1270	47.7780
 1.1280	47.7310
 1.1290	47.6790
 1.1300	47.6210
 1.1310	47.5600
 1.1320	47.4960
 1.1330	47.4250
 1.1340	47.3510
 1.1350	47.2690
 1.1360	47.1790
 1.1370	47.0840
 1.1380	46.9860
 1.1390	46.8820
 1.1400	46.7740
 1.1410	46.6650
 1.1420	46.5520
 1.1430	46.4360
 1.1440	46.3230
 1.1450	46.2090
 1.1460	46.0980
 1.1470	45.9880
 1.1480	45.8810
 1.1490	45.7720
 1.1500	45.6720
 1.1510	45.5740
 1.1520	45.4830
 1.1530	45.3970
 1.1540	45.3170
 1.1550	45.2410
 1.1560	45.1720
 1.1570	45.1080
 1.1580	45.0480
 1.1590	44.9920
 1.1600	44.9410
 1.1610	44.8960
 1.1620	44.8550
 1.1630	44.8160
 1.1640	44.7800
 1.1650	44.7460
 1.1660	44.7120
 1.1670	44.6820
 1.1680	44.6560
 1.1690	44.6290
 1.1700	44.6040
 1.1710	44.5790
 1.1720	44.5570
 1.1730	44.5340
 1.1740	44.5130
 1.1750	44.4930
 1.1760	44.4730
 1.1770	44.4530
 1.1780	44.4350
 1.1790	44.4160
 1.1800	44.3960
 1.1810	44.3750
 1.1820	44.3540
 1.1830	44.3320
 1.1840	44.3110
 1.1850	44.2900
 1.1860	44.2680
 1.1870	44.2460
 1.1880	44.2270
 1.1890	44.2080
 1.1900	44.1920
 1.1910	44.1810
 1.1920	44.1690
 1.1930	44.1580
 1.1940	44.1470
 1.1950	44.1350
 1.1960	44.1250
 1.1970	44.1150
 1.1980	44.1080
 1.1990	44.1050
 1.2000	44.1030
 1.2010	44.1040
 1.2020	44.1090
 1.2030	44.1130
 1.2040	44.1180
 1.2050	44.1280
 1.2060	44.1370
 1.2070	44.1490
 1.2080	44.1660
 1.2090	44.1830
 1.2100	44.1990
 1.2110	44.2170
 1.2120	44.2350
 1.2130	44.2530
 1.2140	44.2700
 1.2150	44.2910
 1.2160	44.3130
 1.2170	44.3360
 1.2180	44.3590
 1.2190	44.3830
 1.2200	44.4080
 1.2210	44.4310
 1.2220	44.4560
 1.2230	44.4810
 1.2240	44.5030
 1.2250	44.5260
 1.2260	44.5480
 1.2270	44.5690
 1.2280	44.5890
 1.2290	44.6100
 1.2300	44.6300
 1.2310	44.6500
 1.2320	44.6700
 1.2330	44.6890
 1.2340	44.7070
 1.2350	44.7230
 1.2360	44.7380
 1.2370	44.7520
 1.2380	44.7650
 1.2390	44.7810
 1.2400	44.7940
 1.2410	44.8060
 1.2420	44.8200
 1.2430	44.8330
 1.2440	44.8460
 1.2450	44.8600
 1.2460	44.8720
 1.2470	44.8820
 1.2480	44.8890
 1.2490	44.8960
 1.2500	44.9040
 1.2510	44.9110
 1.2520	44.9180
 1.2530	44.9230
 1.2540	44.9290
 1.2550	44.9350
 1.2560	44.9400
 1.2570	44.9440
 1.2580	44.9480
 1.2590	44.9500
 1.2600	44.9500
 1.2610	44.9500
 1.2620	44.9500
 1.2630	44.9490
 1.2640	44.9480
 1.2650	44.9480
 1.2660	44.9460
 1.2670	44.9430
 1.2680	44.9360
 1.2690	44.9290
 1.2700	44.9230
 1.2710	44.9170
 1.2720	44.9110
 1.2730	44.9030
 1.2740	44.8960
 1.2750	44.8890
 1.2760	44.8790
 1.2770	44.8680
 1.2780	44.8550
 1.2790	44.8390
 1.2800	44.8230
 1.2810	44.8080
 1.2820	44.7900
 1.2830	44.7680
 1.2840	44.7470
 1.2850	44.7230
 1.2860	44.6980
 1.2870	44.6710
 1.2880	44.6440
 1.2890	44.6140
 1.2900	44.5810
 1.2910	44.5470
 1.2920	44.5110
 1.2930	44.4740
 1.2940	44.4320
 1.2950	44.3890
 1.2960	44.3420
 1.2970	44.2940
 1.2980	44.2450
 1.2990	44.1950
 1.3000	44.1430
 1.3010	44.0900
 1.3020	44.0340
 1.3030	43.9770
 1.3040	43.9170
 1.3050	43.8540
 1.3060	43.7900
 1.3070	43.7230
 1.3080	43.6560
 1.3090	43.5880
 1.3100	43.5170
 1.3110	43.4460
 1.3120	43.3700
 1.3130	43.2930
 1.3140	43.2130
 1.3150	43.1310
 1.3160	43.0470
 1.3170	42.9600
 1.3180	42.8710
 1.3190	42.7790
 1.3200	42.6840
 1.3210	42.5900
 1.3220	42.4940
 1.3230	42.3970
 1.3240	42.2990
 1.3250	42.1980
 1.3260	42.0940
 1.3270	41.9860
 1.3280	41.8760
 1.3290	41.7640
 1.3300	41.6520
 1.3310	41.5390
 1.3320	41.4260
 1.3330	41.3130
 1.3340	41.1960
 1.3350	41.0790
 1.3360	40.9610
 1.3370	40.8420
 1.3380	40.7250
 1.3390	40.6090
 1.3400	40.4910
 1.3410	40.3770
 1.3420	40.2640
 1.3430	40.1510
 1.3440	40.0390
 1.3450	39.9280
 1.3460	39.8160
 1.3470	39.7060
 1.3480	39.5960
 1.3490	39.4890
 1.3500	39.3840
 1.3510	39.2780
 1.3520	39.1720
 1.3530	39.0690
 1.3540	38.9630
 1.3550	38.8580
 1.3560	38.7540
 1.3570	38.6490
 1.3580	38.5420
 1.3590	38.4320
 1.3600	38.3190
 1.3610	38.2010
 1.3620	38.0770
 1.3630	37.9500
 1.3640	37.8180
 1.3650	37.6800
 1.3660	37.5350
 1.3670	37.3830
 1.3680	37.2190
 1.3690	37.0440
 1.3700	36.8570
 1.3710	36.6570
 1.3720	36.4440
 1.3730	36.2150
 1.3740	35.9700
 1.3750	35.7070
 1.3760	35.4250
 1.3770	35.1210
 1.3780	34.7910
 1.3790	34.4390
 1.3800	34.0640
 1.3810	33.6620
 1.3820	33.2410
 1.3830	32.8000
 1.3840	32.3370
 1.3850	31.8520
 1.3860	31.3510
 1.3870	30.8250
 1.3880	30.2930
 1.3890	29.7480
 1.3900	29.1910
 1.3910	28.6320
 1.3920	28.0660
 1.3930	27.4940
 1.3940	26.9240
 1.3950	26.3510
 1.3960	25.7850
 1.3970	25.2290
 1.3980	24.6810
 1.3990	24.1530
 1.4000	23.6380
 1.4010	23.1360
 1.4020	22.6560
 1.4030	22.1910
 1.4040	21.7450
 1.4050	21.3220
 1.4060	20.9170
 1.4070	20.5380
 1.4080	20.1780
 1.4090	19.8360
 1.4100	19.5170
 1.4110	19.2140
 1.4120	18.9310
 1.4130	18.6670
 1.4140	18.4190
 1.4150	18.1890
 1.4160	17.9750
 1.4170	17.7730
 1.4180	17.5870
 1.4190	17.4130
 1.4200	17.2500
 1.4210	17.0980
 1.4220	16.9570
 1.4230	16.8260
 1.4240	16.7050
 1.4250	16.5910
 1.4260	16.4870
 1.4270	16.3880
 1.4280	16.2970
 1.4290	16.2130
 1.4300	16.1370
 1.4310	16.0660
 1.4320	16.0020
 1.4330	15.9430
 1.4340	15.8900
 1.4350	15.8400
 1.4360	15.7950
 1.4370	15.7550
 1.4380	15.7200
 1.4390	15.6880
 1.4400	15.6610
 1.4410	15.6370
 1.4420	15.6140
 1.4430	15.5960
 1.4440	15.5820
 1.4450	15.5700
 1.4460	15.5620
 1.4470	15.5560
 1.4480	15.5510
 1.4490	15.5490
 1.4500	15.5490
 1.4510	15.5510
 1.4520	15.5550
 1.4530	15.5620
 1.4540	15.5700
 1.4550	15.5800
 1.4560	15.5930
 1.4570	15.6090
 1.4580	15.6290
 1.4590	15.6520
 1.4600	15.6790
 1.4610	15.7100
 1.4620	15.7440
 1.4630	15.7840
 1.4640	15.8280
 1.4650	15.8760
 1.4660	15.9290
 1.4670	15.9860
 1.4680	16.0480
 1.4690	16.1150
 1.4700	16.1870
 1.4710	16.2640
 1.4720	16.3430
 1.4730	16.4260
 1.4740	16.5130
 1.4750	16.6030
 1.4760	16.6970
 1.4770	16.7930
 1.4780	16.8900
 1.4790	16.9920
 1.4800	17.0940
 1.4810	17.1990
 1.4820	17.3060
 1.4830	17.4150
 1.4840	17.5250
 1.4850	17.6380
 1.4860	17.7510
 1.4870	17.8670
 1.4880	17.9840
 1.4890	18.1010
 1.4900	18.2200
 1.4910	18.3390
 1.4920	18.4600
 1.4930	18.5830
 1.4940	18.7050
 1.4950	18.8300
 1.4960	18.9540
 1.4970	19.0760
 1.4980	19.2010
 1.4990	19.3270
 1.5000	19.4530
 1.5010	19.5810
 1.5020	19.7080
 1.5030	19.8350
 1.5040	19.9610
 1.5050	20.0870
 1.5060	20.2140
 1.5070	20.3400
 1.5080	20.4680
 1.5090	20.5970
 1.5100	20.7250
 1.5110	20.8530
 1.5120	20.9810
 1.5130	21.1060
 1.5140	21.2320
 1.5150	21.3570
 1.5160	21.4820
 1.5170	21.6070
 1.5180	21.7310
 1.5190	21.8550
 1.5200	21.9790
 1.5210	22.1000
 1.5220	22.2210
 1.5230	22.3420
 1.5240	22.4630
 1.5250	22.5840
 1.5260	22.7040
 1.5270	22.8230
 1.5280	22.9410
 1.5290	23.0570
 1.5300	23.1740
 1.5310	23.2900
 1.5320	23.4040
 1.5330	23.5180
 1.5340	23.6300
 1.5350	23.7400
 1.5360	23.8520
 1.5370	23.9610
 1.5380	24.0700
 1.5390	24.1810
 1.5400	24.2890
 1.5410	24.3970
 1.5420	24.5030
 1.5430	24.6090
 1.5440	24.7140
 1.5450	24.8170
 1.5460	24.9210
 1.5470	25.0230
 1.5480	25.1230
 1.5490	25.2240
 1.5500	25.3250
 1.5510	25.4230
 1.5520	25.5210
 1.5530	25.6180
 1.5540	25.7140
 1.5550	25.8080
 1.5560	25.9020
 1.5570	25.9950
 1.5580	26.0870
 1.5590	26.1770
 1.5600	26.2670
 1.5610	26.3550
 1.5620	26.4430
 1.5630	26.5300
 1.5640	26.6150
 1.5650	26.6990
 1.5660	26.7820
 1.5670	26.8630
 1.5680	26.9450
 1.5690	27.0250
 1.5700	27.1050
 1.5710	27.1850
 1.5720	27.2650
 1.5730	27.3440
 1.5740	27.4210
 1.5750	27.4980
 1.5760	27.5740
 1.5770	27.6500
 1.5780	27.7250
 1.5790	27.7980
 1.5800	27.8700
 1.5810	27.9430
 1.5820	28.0150
 1.5830	28.0880
 1.5840	28.1600
 1.5850	28.2290
 1.5860	28.2970
 1.5870	28.3670
 1.5880	28.4350
 1.5890	28.5020
 1.5900	28.5680
 1.5910	28.6320
 1.5920	28.6970
 1.5930	28.7610
 1.5940	28.8250
 1.5950	28.8880
 1.5960	28.9490
 1.5970	29.0110
 1.5980	29.0720
 1.5990	29.1310
 1.6000	29.1910
 1.6010	29.2480
 1.6020	29.3040
 1.6030	29.3610
 1.6040	29.4160
 1.6050	29.4720
 1.6060	29.5270
 1.6070	29.5810
 1.6080	29.6340
 1.6090	29.6860
 1.6100	29.7360
 1.6110	29.7860
 1.6120	29.8340
 1.6130	29.8820
 1.6140	29.9300
 1.6150	29.9770
 1.6160	30.0240
 1.6170	30.0690
 1.6180	30.1130
 1.6190	30.1550
 1.6200	30.1970
 1.6210	30.2390
 1.6220	30.2800
 1.6230	30.3200
 1.6240	30.3610
 1.6250	30.4000
 1.6260	30.4370
 1.6270	30.4750
 1.6280	30.5130
 1.6290	30.5490
 1.6300	30.5860
 1.6310	30.6210
 1.6320	30.6550
 1.6330	30.6890
 1.6340	30.7220
 1.6350	30.7540
 1.6360	30.7870
 1.6370	30.8180
 1.6380	30.8480
 1.6390	30.8760
 1.6400	30.9010
 1.6410	30.9260
 1.6420	30.9510
 1.6430	30.9740
 1.6440	30.9960
 1.6450	31.0180
 1.6460	31.0360
 1.6470	31.0530
 1.6480	31.0680
 1.6490	31.0810
 1.6500	31.0920
 1.6510	31.1030
 1.6520	31.1110
 1.6530	31.1160
 1.6540	31.1200
 1.6550	31.1230
 1.6560	31.1210
 1.6570	31.1180
 1.6580	31.1130
 1.6590	31.1050
 1.6600	31.0980
 1.6610	31.0900
 1.6620	31.0800
 1.6630	31.0680
 1.6640	31.0550
 1.6650	31.0420
 1.6660	31.0290
 1.6670	31.0160
 1.6680	31.0020
 1.6690	30.9860
 1.6700	30.9680
 1.6710	30.9480
 1.6720	30.9280
 1.6730	30.9070
 1.6740	30.8850
 1.6750	30.8610
 1.6760	30.8350
 1.6770	30.8060
 1.6780	30.7760
 1.6790	30.7440
 1.6800	30.7110
 1.6810	30.6760
 1.6820	30.6390
 1.6830	30.6000
 1.6840	30.5600
 1.6850	30.5170
 1.6860	30.4720
 1.6870	30.4270
 1.6880	30.3810
 1.6890	30.3350
 1.6900	30.2870
 1.6910	30.2370
 1.6920	30.1870
 1.6930	30.1340
 1.6940	30.0830
 1.6950	30.0340
 1.6960	29.9840
 1.6970	29.9350
 1.6980	29.8840
 1.6990	29.8310
 1.7000	29.7770
 1.7010	29.7210
 1.7020	29.6640
 1.7030	29.6060
 1.7040	29.5460
 1.7050	29.4860
 1.7060	29.4240
 1.7070	29.3620
 1.7080	29.2980
 1.7090	29.2330
 1.7100	29.1710
 1.7110	29.1070
 1.7120	29.0500
 1.7130	28.9950
 1.7140	28.9440
 1.7150	28.8960
 1.7160	28.8490
 1.7170	28.8070
 1.7180	28.7650
 1.7190	28.7270
 1.7200	28.6930
 1.7210	28.6590
 1.7220	28.6260
 1.7230	28.5940
 1.7240	28.5630
 1.7250	28.5330
 1.7260	28.5050
 1.7270	28.4810
 1.7280	28.4560
 1.7290	28.4320
 1.7300	28.4100
 1.7310	28.3880
 1.7320	28.3650
 1.7330	28.3420
 1.7340	28.3190
 1.7350	28.2940
 1.7360	28.2690
 1.7370	28.2410
 1.7380	28.2120
 1.7390	28.1780
 1.7400	28.1400
 1.7410	28.0990
 1.7420	28.0520
 1.7430	28.0040
 1.7440	27.9540
 1.7450	27.9020
 1.7460	27.8460
 1.7470	27.7910
 1.7480	27.7340
 1.7490	27.6770
 1.7500	27.6210
 1.7510	27.5650
 1.7520	27.5090
 1.7530	27.4530
 1.7540	27.3970
 1.7550	27.3430
 1.7560	27.2900
 1.7570	27.2410
 1.7580	27.1930
 1.7590	27.1460
 1.7600	27.1010
 1.7610	27.0590
 1.7620	27.0190
 1.7630	26.9800
 1.7640	26.9430
 1.7650	26.9100
 1.7660	26.8760
 1.7670	26.8440
 1.7680	26.8110
 1.7690	26.7770
 1.7700	26.7450
 1.7710	26.7150
 1.7720	26.6840
 1.7730	26.6530
 1.7740	26.6240
 1.7750	26.5950
 1.7760	26.5690
 1.7770	26.5440
 1.7780	26.5230
 1.7790	26.5020
 1.7800	26.4870
 1.7810	26.4750
 1.7820	26.4660
 1.7830	26.4590
 1.7840	26.4540
 1.7850	26.4510
 1.7860	26.4500
 1.7870	26.4500
 1.7880	26.4540
 1.7890	26.4590
 1.7900	26.4670
 1.7910	26.4740
 1.7920	26.4800
 1.7930	26.4880
 1.7940	26.4990
 1.7950	26.5100
 1.7960	26.5220
 1.7970	26.5340
 1.7980	26.5470
 1.7990	26.5600
 1.8000	26.5740
 1.8010	26.5880
 1.8020	26.6010
 1.8030	26.6140
 1.8040	26.6290
 1.8050	26.6430
 1.8060	26.6550
 1.8070	26.6690
 1.8080	26.6830
 1.8090	26.6960
 1.8100	26.7100
 1.8110	26.7220
 1.8120	26.7320
 1.8130	26.7430
 1.8140	26.7540
 1.8150	26.7610
 1.8160	26.7670
 1.8170	26.7730
 1.8180	26.7770
 1.8190	26.7850
 1.8200	26.7900
 1.8210	26.7940
 1.8220	26.7970
 1.8230	26.7960
 1.8240	26.7950
 1.8250	26.7940
 1.8260	26.7900
 1.8270	26.7820
 1.8280	26.7760
 1.8290	26.7700
 1.8300	26.7590
 1.8310	26.6430
 1.8320	26.6210
 1.8330	26.5920
 1.8340	26.5610
 1.8350	26.5290
 1.8360	26.4930
 1.8370	26.4550
 1.8380	26.4120
 1.8390	26.3610
 1.8400	26.3040
 1.8410	26.2420
 1.8420	26.1740
 1.8430	26.0990
 1.8440	26.0170
 1.8450	25.9320
 1.8460	25.8390
 1.8470	25.7310
 1.8480	25.6160
 1.8490	25.4940
 1.8500	25.3590
 1.8510	25.2140
 1.8520	25.0630
 1.8530	24.8950
 1.8540	24.7160
 1.8550	24.5280
 1.8560	24.3240
 1.8570	24.1100
 1.8580	23.8790
 1.8590	23.6330
 1.8600	23.3700
 1.8610	23.0960
 1.8620	22.8060
 1.8630	22.5040
 1.8640	22.1870
 1.8650	21.8500
 1.8660	21.4970
 1.8670	21.1230
 1.8680	20.7340
 1.8690	20.3290
 1.8700	19.9060
 1.8710	19.4640
 1.8720	19.0120
 1.8730	18.5440
 1.8740	18.0650
 1.8750	17.5820
 1.8760	17.0890
 1.8770	16.5980
 1.8780	16.1080
 1.8790	15.6120
 1.8800	15.1240
 1.8810	14.6410
 1.8820	14.1590
 1.8830	13.6780
 1.8840	13.2080
 1.8850	12.7440
 1.8860	12.2900
 1.8870	11.8530
 1.8880	11.4320
 1.8890	11.0300
 1.8900	10.6470
 1.8910	10.2850
 1.8920	 9.9410
 1.8930	 9.6190
 1.8940	 9.3170
 1.8950	 9.0350
 1.8960	 8.7750
 1.8970	 8.5360
 1.8980	 8.3180
 1.8990	 8.1200
 1.9000	 7.9360
 1.9010	 7.7730
 1.9020	 7.6210
 1.9030	 7.4840
 1.9040	 7.3640
 1.9050	 7.2560
 1.9060	 7.1610
 1.9070	 7.0780
 1.9080	 7.0010
 1.9090	 6.9340
 1.9100	 6.8730
 1.9110	 6.8180
 1.9120	 6.7710
 1.9130	 6.7280
 1.9140	 6.6900
 1.9150	 6.6550
 1.9160	 6.6250
 1.9170	 6.6000
 1.9180	 6.5750
 1.9190	 6.5520
 1.9200	 6.5330
 1.9210	 6.5140
 1.9220	 6.4990
 1.9230	 6.4910
 1.9240	 6.4820
 1.9250	 6.4750
 1.9260	 6.4730
 1.9270	 6.4690
 1.9280	 6.4650
 1.9290	 6.4630
 1.9300	 6.4610
 1.9310	 6.4600
 1.9320	 6.4630
 1.9330	 6.4670
 1.9340	 6.4710
 1.9350	 6.4760
 1.9360	 6.4810
 1.9370	 6.4890
 1.9380	 6.4980
 1.9390	 6.5090
 1.9400	 6.5210
 1.9410	 6.5320
 1.9420	 6.5440
 1.9430	 6.5590
 1.9440	 6.5760
 1.9450	 6.5960
 1.9460	 6.6140
 1.9470	 6.6320
 1.9480	 6.6520
 1.9490	 6.6720
 1.9500	 6.6940
 1.9510	 6.7170
 1.9520	 6.7420
 1.9530	 6.7640
 1.9540	 6.7860
 1.9550	 6.8090
 1.9560	 6.8290
 1.9570	 6.8550
 1.9580	 6.8870
 1.9590	 6.9160
 1.9600	 6.9470
 1.9610	 6.9780
 1.9620	 7.0070
 1.9630	 7.0350
 1.9640	 7.0680
 1.9650	 7.1030
 1.9660	 7.1370
 1.9670	 7.1730
 1.9680	 7.2080
 1.9690	 7.2410
 1.9700	 7.2760
 1.9710	 7.3110
 1.9720	 7.3470
 1.9730	 7.3840
 1.9740	 7.4230
 1.9750	 7.4620
 1.9760	 7.5030
 1.9770	 7.5450
 1.9780	 7.5870
 1.9790	 7.6300
 1.9800	 7.6750
 1.9810	 7.7190
 1.9820	 7.7650
 1.9830	 7.8100
 1.9840	 7.8530
 1.9850	 7.8980
 1.9860	 7.9440
 1.9870	 7.9890
 1.9880	 8.0380
 1.9890	 8.0890
 1.9900	 8.1400
 1.9910	 8.1900
 1.9920	 8.2420
 1.9930	 8.2930
 1.9940	 8.3460
 1.9950	 8.4020
 1.9960	 8.4570
 1.9970	 8.5120
 1.9980	 8.5660
 1.9990	 8.6170
 2.0000	 8.6680
 2.0010	 8.7220
 2.0020	 8.7740
 2.0030	 8.8290
 2.0040	 8.8840
 2.0050	 8.9390
 2.0060	 8.9920
 2.0070	 9.0470
 2.0080	 9.1000
 2.0090	 9.1560
 2.0100	 9.2160
 2.0110	 9.2730
 2.0120	 9.3310
 2.0130	 9.3890
 2.0140	 9.4460
 2.0150	 9.5000
 2.0160	 9.5570
 2.0170	 9.6130
 2.0180	 9.6700
 2.0190	 9.7270
 2.0200	 9.7840
 2.0210	 9.8420
 2.0220	 9.8980
 2.0230	 9.9530
 2.0240	10.0090
 2.0250	10.0640
 2.0260	10.1180
 2.0270	10.1710
 2.0280	10.2240
 2.0290	10.2770
 2.0300	10.3340
 2.0310	10.3860
 2.0320	10.4390
 2.0330	10.4910
 2.0340	10.5400
 2.0350	10.5920
 2.0360	10.6460
 2.0370	10.6980
 2.0380	10.7490
 2.0390	10.8000
 2.0400	10.8490
 2.0410	10.8980
 2.0420	10.9470
 2.0430	10.9970
 2.0440	11.0450
 2.0450	11.0910
 2.0460	11.1390
 2.0470	11.1870
 2.0480	11.2340
 2.0490	11.2830
 2.0500	11.3290
 2.0510	11.3710
 2.0520	11.4180
 2.0530	11.4670
 2.0540	11.5140
 2.0550	11.5620
 2.0560	11.6120
 2.0570	11.6620
 2.0580	11.7090
 2.0590	11.7600
 2.0600	11.8120
 2.0610	11.8640
 2.0620	11.9180
 2.0630	11.9710
 2.0640	12.0260
 2.0650	12.0800
 2.0660	12.1320
 2.0670	12.1840
 2.0680	12.2360
 2.0690	12.2890
 2.0700	12.3460
 2.0710	12.3990
 2.0720	12.4510
 2.0730	12.5040
 2.0740	12.5580
 2.0750	12.6100
 2.0760	12.6650
 2.0770	12.7260
 2.0780	12.7790
 2.0790	12.8260
 2.0800	12.8790
 2.0810	12.9290
 2.0820	12.9820
 2.0830	13.0430
 2.0840	13.0980
 2.0850	13.1500
 2.0860	13.2020
 2.0870	13.2540
 2.0880	13.3020
 2.0890	13.3520
 2.0900	13.4010
 2.0910	13.4520
 2.0920	13.5040
 2.0930	13.5560
 2.0940	13.6090
 2.0950	13.6610
 2.0960	13.7140
 2.0970	13.7650
 2.0980	13.8130
 2.0990	13.8620
 2.1000	13.9110
 2.1010	13.9620
 2.1020	14.0160
 2.1030	14.0670
 2.1040	14.1180
 2.1050	14.1690
 2.1060	14.2180
 2.1070	14.2650
 2.1080	14.3140
 2.1090	14.3610
 2.1100	14.4100
 2.1110	14.4610
 2.1120	14.5090
 2.1130	14.5560
 2.1140	14.6030
 2.1150	14.6490
 2.1160	14.6940
 2.1170	14.7400
 2.1180	14.7840
 2.1190	14.8230
 2.1200	14.8660
 2.1210	14.9110
 2.1220	14.9570
 2.1230	14.9980
 2.1240	15.0400
 2.1250	15.0810
 2.1260	15.1150
 2.1270	15.1550
 2.1280	15.2010
 2.1290	15.2400
 2.1300	15.2760
 2.1310	15.3120
 2.1320	15.3440
 2.1330	15.3780
 2.1340	15.4140
 2.1350	15.4500
 2.1360	15.4880
 2.1370	15.5230
 2.1380	15.5550
 2.1390	15.5870
 2.1400	15.6170
 2.1410	15.6480
 2.1420	15.6780
 2.1430	15.7090
 2.1440	15.7390
 2.1450	15.7690
 2.1460	15.7960
 2.1470	15.8230
 2.1480	15.8500
 2.1490	15.8720
 2.1500	15.8970
 2.1510	15.9250
 2.1520	15.9490
 2.1530	15.9710
 2.1540	15.9930
 2.1550	16.0130
 2.1560	16.0350
 2.1570	16.0590
 2.1580	16.0800
 2.1590	16.1020
 2.1600	16.1230
 2.1610	16.1430
 2.1620	16.1660
 2.1630	16.1880
 2.1640	16.2140
 2.1650	16.2340
 2.1660	16.2500
 2.1670	16.2710
 2.1680	16.2920
 2.1690	16.3120
 2.1700	16.3380
 2.1710	16.3590
 2.1720	16.3760
 2.1730	16.3970
 2.1740	16.4210
 2.1750	16.4430
 2.1760	16.4660
 2.1770	16.4880
 2.1780	16.5100
 2.1790	16.5320
 2.1800	16.5530
 2.1810	16.5750
 2.1820	16.5990
 2.1830	16.6210
 2.1840	16.6430
 2.1850	16.6650
 2.1860	16.6880
 2.1870	16.7120
 2.1880	16.7360
 2.1890	16.7620
 2.1900	16.7860
 2.1910	16.8070
 2.1920	16.8290
 2.1930	16.8510
 2.1940	16.8730
 2.1950	16.8940
 2.1960	16.9130
 2.1970	16.9320
 2.1980	16.9510
 2.1990	16.9670
 2.2000	16.9840
 2.2010	17.0050
 2.2020	17.0220
 2.2030	17.0400
 2.2040	17.0550
 2.2050	17.0660
 2.2060	17.0750
 2.2070	17.0870
 2.2080	17.0990
 2.2090	17.1090
 2.2100	17.1210
 2.2110	17.1290
 2.2120	17.1330
 2.2130	17.1370
 2.2140	17.1390
 2.2150	17.1400
 2.2160	17.1380
 2.2170	17.1370
 2.2180	17.1350
 2.2190	17.1320
 2.2200	17.1280
 2.2210	17.1220
 2.2220	17.1210
 2.2230	17.1100
 2.2240	17.0930
 2.2250	17.0760
 2.2260	17.0520
 2.2270	17.0290
 2.2280	17.0090
 2.2290	16.9840
 2.2300	16.9580
 2.2310	16.9270
 2.2320	16.8940
 2.2330	16.8590
 2.2340	16.8210
 2.2350	16.7780
 2.2360	16.7350
 2.2370	16.6910
 2.2380	16.6450
 2.2390	16.5990
 2.2400	16.5530
 2.2410	16.5040
 2.2420	16.4550
 2.2430	16.4100
 2.2440	16.3560
 2.2450	16.2960
 2.2460	16.2410
 2.2470	16.1830
 2.2480	16.1280
 2.2490	16.0790
 2.2500	16.0260
 2.2510	15.9710
 2.2520	15.9140
 2.2530	15.8530
 2.2540	15.7950
 2.2550	15.7340
 2.2560	15.6730
 2.2570	15.6160
 2.2580	15.5560
 2.2590	15.4900
 2.2600	15.4260
 2.2610	15.3620
 2.2620	15.2950
 2.2630	15.2340
 2.2640	15.1760
 2.2650	15.1150
 2.2660	15.0580
 2.2670	14.9990
 2.2680	14.9380
 2.2690	14.8780
 2.2700	14.8190
 2.2710	14.7610
 2.2720	14.6990
 2.2730	14.6450
 2.2740	14.5940
 2.2750	14.5430
 2.2760	14.4990
 2.2770	14.4480
 2.2780	14.3960
 2.2790	14.3430
 2.2800	14.2870
 2.2810	14.2340
 2.2820	14.1840
 2.2830	14.1290
 2.2840	14.0700
 2.2850	14.0140
 2.2860	13.9520
 2.2870	13.9010
 2.2880	13.8620
 2.2890	13.8140
 2.2900	13.7660
 2.2910	13.7150
 2.2920	13.6580
 2.2930	13.6010
 2.2940	13.5440
 2.2950	13.4870
 2.2960	13.4260
 2.2970	13.3680
 2.2980	13.3140
 2.2990	13.2590
 2.3000	13.2120
 2.3010	13.1720
 2.3020	13.1340
 2.3030	13.1030
 2.3040	13.0700
 2.3050	13.0370
 2.3060	13.0100
 2.3070	12.9860
 2.3080	12.9610
 2.3090	12.9400
 2.3100	12.9210
 2.3110	12.9000
 2.3120	12.8810
 2.3130	12.8650
 2.3140	12.8500
 2.3150	12.8370
 2.3160	12.8260
 2.3170	12.8190
 2.3180	12.8040
 2.3190	12.7890
 2.3200	12.7700
 2.3210	12.7480
 2.3220	12.7230
 2.3230	12.6940
 2.3240	12.6640
 2.3250	12.6300
 2.3260	12.5960
 2.3270	12.5620
 2.3280	12.5270
 2.3290	12.4870
 2.3300	12.4490
 2.3310	12.4100
 2.3320	12.3730
 2.3330	12.3410
 2.3340	12.3030
 2.3350	12.2610
 2.3360	12.2230
 2.3370	12.1830
 2.3380	12.1440
 2.3390	12.1080
 2.3400	12.0710
 2.3410	12.0320
 2.3420	11.9910
 2.3430	11.9530
 2.3440	11.9130
 2.3450	11.8630
 2.3460	11.8230
 2.3470	11.7870
 2.3480	11.7540
 2.3490	11.7300
 2.3500	11.7020
 2.3510	11.6790
 2.3520	11.6500
 2.3530	11.6130
 2.3540	11.5810
 2.3550	11.5470
 2.3560	11.5100
 2.3570	11.4830
 2.3580	11.4610
 2.3590	11.4340
 2.3600	11.4040
 2.3610	11.3710
 2.3620	11.3300
 2.3630	11.2950
 2.3640	11.2630
 2.3650	11.2320
 2.3660	11.2000
 2.3670	11.1690
 2.3680	11.1420
 2.3690	11.1090
 2.3700	11.0770
 2.3710	11.0430
 2.3720	11.0060
 2.3730	10.9770
 2.3740	10.9490
 2.3750	10.9230
 2.3760	10.8930
 2.3770	10.8610
 2.3780	10.8280
 2.3790	10.7960
 2.3800	10.7570
 2.3810	10.7160
 2.3820	10.6820
 2.3830	10.6400
 2.3840	10.6000
 2.3850	10.5750
 2.3860	10.5420
 2.3870	10.5050
 2.3880	10.4810
 2.3890	10.4370
 2.3900	10.3940
 2.3910	10.3620
 2.3920	10.3150
 2.3930	10.2750
 2.3940	10.2370
 2.3950	10.1990
 2.3960	10.1730
 2.3970	10.1470
 2.3980	10.1340
 2.3990	10.1100
 2.4000	10.0680
 2.4010	10.0300
 2.4020	 9.9860
 2.4030	 9.9460
 2.4040	 9.9170
 2.4050	 9.8860
 2.4060	 9.8420
 2.4070	 9.8060
 2.4080	 9.7710
 2.4090	 9.7300
 2.4100	 9.7080
 2.4110	 9.6840
 2.4120	 9.6480
 2.4130	 9.6190
 2.4140	 9.5790
 2.4150	 9.5230
 2.4160	 9.4820
 2.4170	 9.4490
 2.4180	 9.4150
 2.4190	 9.4020
 2.4200	 9.3810
 2.4210	 9.3570
 2.4220	 9.3260
 2.4230	 9.2830
 2.4240	 9.2480
 2.4250	 9.2150
 2.4260	 9.1870
 2.4270	 9.1540
 2.4280	 9.1240
 2.4290	 9.0860
 2.4300	 9.0370
 2.4310	 9.0040
 2.4320	 8.9590
 2.4330	 8.9090
 2.4340	 8.8850
 2.4350	 8.8740
 2.4360	 8.8550
 2.4370	 8.8270
 2.4380	 8.7940
 2.4390	 8.7440
 2.4400	 8.6980
 2.4410	 8.6720
 2.4420	 8.6450
 2.4430	 8.6150
 2.4440	 8.5910
 2.4450	 8.5620
 2.4460	 8.5230
 2.4470	 8.4900
 2.4480	 8.4550
 2.4490	 8.4250
 2.4500	 8.4000
 2.4510	 8.3670
 2.4520	 8.3340
 2.4530	 8.3040
 2.4540	 8.2740
 2.4550	 8.2520
 2.4560	 8.2170
 2.4570	 8.1790
 2.4580	 8.1460
 2.4590	 8.1030
 2.4600	 8.0670
 2.4610	 8.0240
 2.4620	 7.9920
 2.4630	 7.9710
 2.4640	 7.9490
 2.4650	 7.9430
 2.4660	 7.9290
 2.4670	 7.9120
 2.4680	 7.8870
 2.4690	 7.8810
 2.4700	 7.8640
 2.4710	 7.8480
 2.4720	 7.8290
 2.4730	 7.7860
 2.4740	 7.7560
 2.4750	 7.7410
 2.4760	 7.7270
 2.4770	 7.7190
 2.4780	 7.7190
 2.4790	 7.7240
 2.4800	 7.7040
 2.4810	 7.6700
 2.4820	 7.6600
 2.4830	 7.6330
 2.4840	 7.6120
 2.4850	 7.5900
 2.4860	 7.5600
 2.4870	 7.5530
 2.4880	 7.5680
 2.4890	 7.6000
 2.4900	 7.5930
 2.4910	 7.5570
 2.4920	 7.5250
 2.4930	 7.4970
 2.4940	 7.5120
 2.4950	 7.5260
 2.4960	 7.5690
 2.4970	 7.6790
 2.4980	 7.6840
 2.4990	 7.6230
 2.5000	 7.5820
