Name: Lagerstroemia indica
Type: vegetation
Class: Tree
Genus: Lagerstroemia
Species: indica
Sample No.: JPL227
Owner: JPL
Wavelength Range: VSWIR
Origin: 34.126825; -118.114904; WGS84
Collection Date: 10/3/2016
Description: Samples were collected at the Huntington Garden in San Marino California as part of a JPL Subcontract studying HyTES imagery. Samples were taken to JPL and processed within 48 hours of collection. The same leaves were processed in the Nicolet and then measured using the ASD.
Measurement: Bidirectional reflectance
First Column: X
Second Column: Y
X Units: Wavelength (micrometer)
Y Units: Reflectance (percentage)
First X Value: 0.35
Last X Value: 2.5
Number of X Values: 2151
Additional Information: vegetation.tree.lagerstroemia.indica.vswir.jpl227.jpl.asd.ancillary.txt

 0.3500	 4.1120
 0.3510	 4.1140
 0.3520	 4.0930
 0.3530	 4.0330
 0.3540	 3.9530
 0.3550	 3.9770
 0.3560	 3.9750
 0.3570	 3.9300
 0.3580	 3.8890
 0.3590	 3.9340
 0.3600	 3.8960
 0.3610	 3.7740
 0.3620	 3.8240
 0.3630	 3.8690
 0.3640	 3.8590
 0.3650	 3.8120
 0.3660	 3.8570
 0.3670	 3.8620
 0.3680	 3.8510
 0.3690	 3.9370
 0.3700	 3.9170
 0.3710	 3.8550
 0.3720	 3.8100
 0.3730	 3.7600
 0.3740	 3.7570
 0.3750	 3.7740
 0.3760	 3.7680
 0.3770	 3.7710
 0.3780	 3.7630
 0.3790	 3.7570
 0.3800	 3.7920
 0.3810	 3.7860
 0.3820	 3.7770
 0.3830	 3.7890
 0.3840	 3.7490
 0.3850	 3.7670
 0.3860	 3.7940
 0.3870	 3.7540
 0.3880	 3.7670
 0.3890	 3.7720
 0.3900	 3.7490
 0.3910	 3.7300
 0.3920	 3.7440
 0.3930	 3.7630
 0.3940	 3.7590
 0.3950	 3.7390
 0.3960	 3.7380
 0.3970	 3.7480
 0.3980	 3.7480
 0.3990	 3.7540
 0.4000	 3.7420
 0.4010	 3.7160
 0.4020	 3.7270
 0.4030	 3.7400
 0.4040	 3.7560
 0.4050	 3.7730
 0.4060	 3.7640
 0.4070	 3.7630
 0.4080	 3.7710
 0.4090	 3.7650
 0.4100	 3.7620
 0.4110	 3.7680
 0.4120	 3.7860
 0.4130	 3.8120
 0.4140	 3.8230
 0.4150	 3.8200
 0.4160	 3.8180
 0.4170	 3.8400
 0.4180	 3.8470
 0.4190	 3.8370
 0.4200	 3.8480
 0.4210	 3.8480
 0.4220	 3.8520
 0.4230	 3.8720
 0.4240	 3.8930
 0.4250	 3.8980
 0.4260	 3.8950
 0.4270	 3.9070
 0.4280	 3.9220
 0.4290	 3.9270
 0.4300	 3.9230
 0.4310	 3.9330
 0.4320	 3.9320
 0.4330	 3.9310
 0.4340	 3.9440
 0.4350	 3.9460
 0.4360	 3.9450
 0.4370	 3.9510
 0.4380	 3.9700
 0.4390	 3.9830
 0.4400	 3.9880
 0.4410	 3.9870
 0.4420	 4.0010
 0.4430	 4.0110
 0.4440	 4.0210
 0.4450	 4.0440
 0.4460	 4.0480
 0.4470	 4.0550
 0.4480	 4.0720
 0.4490	 4.0810
 0.4500	 4.0930
 0.4510	 4.1040
 0.4520	 4.1120
 0.4530	 4.1300
 0.4540	 4.1420
 0.4550	 4.1500
 0.4560	 4.1650
 0.4570	 4.1740
 0.4580	 4.1810
 0.4590	 4.1920
 0.4600	 4.2040
 0.4610	 4.2060
 0.4620	 4.2060
 0.4630	 4.2160
 0.4640	 4.2160
 0.4650	 4.2130
 0.4660	 4.2150
 0.4670	 4.2230
 0.4680	 4.2290
 0.4690	 4.2340
 0.4700	 4.2390
 0.4710	 4.2350
 0.4720	 4.2360
 0.4730	 4.2410
 0.4740	 4.2440
 0.4750	 4.2440
 0.4760	 4.2450
 0.4770	 4.2500
 0.4780	 4.2570
 0.4790	 4.2590
 0.4800	 4.2560
 0.4810	 4.2560
 0.4820	 4.2630
 0.4830	 4.2670
 0.4840	 4.2700
 0.4850	 4.2830
 0.4860	 4.2960
 0.4870	 4.3080
 0.4880	 4.3190
 0.4890	 4.3340
 0.4900	 4.3490
 0.4910	 4.3660
 0.4920	 4.3930
 0.4930	 4.4140
 0.4940	 4.4360
 0.4950	 4.4630
 0.4960	 4.4980
 0.4970	 4.5310
 0.4980	 4.5650
 0.4990	 4.6050
 0.5000	 4.6540
 0.5010	 4.7070
 0.5020	 4.7600
 0.5030	 4.8140
 0.5040	 4.8740
 0.5050	 4.9410
 0.5060	 5.0160
 0.5070	 5.0980
 0.5080	 5.1840
 0.5090	 5.2740
 0.5100	 5.3730
 0.5110	 5.4780
 0.5120	 5.5940
 0.5130	 5.7200
 0.5140	 5.8530
 0.5150	 5.9950
 0.5160	 6.1450
 0.5170	 6.3000
 0.5180	 6.4580
 0.5190	 6.6250
 0.5200	 6.8000
 0.5210	 6.9790
 0.5220	 7.1630
 0.5230	 7.3450
 0.5240	 7.5200
 0.5250	 7.6960
 0.5260	 7.8640
 0.5270	 8.0260
 0.5280	 8.1850
 0.5290	 8.3350
 0.5300	 8.4740
 0.5310	 8.6010
 0.5320	 8.7240
 0.5330	 8.8360
 0.5340	 8.9380
 0.5350	 9.0370
 0.5360	 9.1260
 0.5370	 9.2040
 0.5380	 9.2770
 0.5390	 9.3510
 0.5400	 9.4230
 0.5410	 9.4990
 0.5420	 9.5780
 0.5430	 9.6430
 0.5440	 9.6970
 0.5450	 9.7390
 0.5460	 9.7670
 0.5470	 9.7880
 0.5480	 9.8100
 0.5490	 9.8350
 0.5500	 9.8620
 0.5510	 9.8830
 0.5520	 9.8950
 0.5530	 9.8950
 0.5540	 9.8840
 0.5550	 9.8610
 0.5560	 9.8260
 0.5570	 9.7790
 0.5580	 9.7220
 0.5590	 9.6580
 0.5600	 9.5900
 0.5610	 9.5170
 0.5620	 9.4420
 0.5630	 9.3640
 0.5640	 9.2810
 0.5650	 9.1940
 0.5660	 9.1060
 0.5670	 9.0150
 0.5680	 8.9170
 0.5690	 8.8140
 0.5700	 8.7050
 0.5710	 8.5940
 0.5720	 8.4850
 0.5730	 8.3820
 0.5740	 8.2840
 0.5750	 8.1860
 0.5760	 8.0860
 0.5770	 7.9860
 0.5780	 7.8920
 0.5790	 7.8140
 0.5800	 7.7460
 0.5810	 7.6870
 0.5820	 7.6340
 0.5830	 7.5850
 0.5840	 7.5370
 0.5850	 7.4900
 0.5860	 7.4420
 0.5870	 7.4050
 0.5880	 7.3730
 0.5890	 7.3390
 0.5900	 7.3040
 0.5910	 7.2730
 0.5920	 7.2440
 0.5930	 7.2160
 0.5940	 7.1920
 0.5950	 7.1740
 0.5960	 7.1630
 0.5970	 7.1500
 0.5980	 7.1340
 0.5990	 7.1150
 0.6000	 7.0970
 0.6010	 7.0740
 0.6020	 7.0470
 0.6030	 7.0160
 0.6040	 6.9780
 0.6050	 6.9340
 0.6060	 6.8870
 0.6070	 6.8380
 0.6080	 6.7840
 0.6090	 6.7300
 0.6100	 6.6770
 0.6110	 6.6290
 0.6120	 6.5710
 0.6130	 6.5050
 0.6140	 6.4370
 0.6150	 6.3750
 0.6160	 6.3180
 0.6170	 6.2660
 0.6180	 6.2150
 0.6190	 6.1700
 0.6200	 6.1330
 0.6210	 6.1010
 0.6220	 6.0720
 0.6230	 6.0470
 0.6240	 6.0250
 0.6250	 6.0050
 0.6260	 5.9920
 0.6270	 5.9850
 0.6280	 5.9800
 0.6290	 5.9760
 0.6300	 5.9710
 0.6310	 5.9680
 0.6320	 5.9640
 0.6330	 5.9540
 0.6340	 5.9380
 0.6350	 5.9190
 0.6360	 5.8950
 0.6370	 5.8640
 0.6380	 5.8240
 0.6390	 5.7790
 0.6400	 5.7320
 0.6410	 5.6790
 0.6420	 5.6230
 0.6430	 5.5670
 0.6440	 5.5090
 0.6450	 5.4480
 0.6460	 5.3890
 0.6470	 5.3360
 0.6480	 5.2860
 0.6490	 5.2410
 0.6500	 5.2030
 0.6510	 5.1690
 0.6520	 5.1400
 0.6530	 5.1130
 0.6540	 5.0850
 0.6550	 5.0550
 0.6560	 5.0220
 0.6570	 4.9850
 0.6580	 4.9420
 0.6590	 4.8970
 0.6600	 4.8490
 0.6610	 4.8000
 0.6620	 4.7540
 0.6630	 4.7100
 0.6640	 4.6700
 0.6650	 4.6360
 0.6660	 4.6070
 0.6670	 4.5830
 0.6680	 4.5640
 0.6690	 4.5520
 0.6700	 4.5450
 0.6710	 4.5440
 0.6720	 4.5480
 0.6730	 4.5590
 0.6740	 4.5730
 0.6750	 4.5910
 0.6760	 4.6120
 0.6770	 4.6420
 0.6780	 4.6740
 0.6790	 4.7080
 0.6800	 4.7510
 0.6810	 4.8000
 0.6820	 4.8560
 0.6830	 4.9220
 0.6840	 4.9950
 0.6850	 5.0800
 0.6860	 5.1800
 0.6870	 5.3020
 0.6880	 5.4430
 0.6890	 5.6110
 0.6900	 5.8130
 0.6910	 6.0590
 0.6920	 6.3460
 0.6930	 6.6800
 0.6940	 7.0650
 0.6950	 7.5040
 0.6960	 7.9950
 0.6970	 8.5360
 0.6980	 9.1250
 0.6990	 9.7580
 0.7000	10.4260
 0.7010	11.1240
 0.7020	11.8440
 0.7030	12.5780
 0.7040	13.3210
 0.7050	14.0720
 0.7060	14.8280
 0.7070	15.5890
 0.7080	16.3540
 0.7090	17.1240
 0.7100	17.9000
 0.7110	18.6860
 0.7120	19.4800
 0.7130	20.2810
 0.7140	21.0890
 0.7150	21.9050
 0.7160	22.7270
 0.7170	23.5510
 0.7180	24.3780
 0.7190	25.2050
 0.7200	26.0320
 0.7210	26.8550
 0.7220	27.6690
 0.7230	28.4710
 0.7240	29.2610
 0.7250	30.0330
 0.7260	30.7850
 0.7270	31.5160
 0.7280	32.2250
 0.7290	32.9090
 0.7300	33.5680
 0.7310	34.2000
 0.7320	34.8040
 0.7330	35.3790
 0.7340	35.9240
 0.7350	36.4390
 0.7360	36.9280
 0.7370	37.3910
 0.7380	37.8260
 0.7390	38.2330
 0.7400	38.6140
 0.7410	38.9700
 0.7420	39.3020
 0.7430	39.6080
 0.7440	39.8900
 0.7450	40.1500
 0.7460	40.3890
 0.7470	40.6110
 0.7480	40.8130
 0.7490	40.9930
 0.7500	41.1620
 0.7510	41.3150
 0.7520	41.4530
 0.7530	41.5810
 0.7540	41.6980
 0.7550	41.8050
 0.7560	41.9020
 0.7570	41.9890
 0.7580	42.0700
 0.7590	42.1440
 0.7600	42.2120
 0.7610	42.2770
 0.7620	42.3360
 0.7630	42.3910
 0.7640	42.4420
 0.7650	42.4870
 0.7660	42.5250
 0.7670	42.5580
 0.7680	42.5920
 0.7690	42.6270
 0.7700	42.6580
 0.7710	42.6850
 0.7720	42.7150
 0.7730	42.7430
 0.7740	42.7690
 0.7750	42.7930
 0.7760	42.8180
 0.7770	42.8430
 0.7780	42.8660
 0.7790	42.8870
 0.7800	42.9120
 0.7810	42.9370
 0.7820	42.9590
 0.7830	42.9770
 0.7840	42.9990
 0.7850	43.0210
 0.7860	43.0420
 0.7870	43.0600
 0.7880	43.0770
 0.7890	43.0920
 0.7900	43.1070
 0.7910	43.1240
 0.7920	43.1420
 0.7930	43.1580
 0.7940	43.1720
 0.7950	43.1880
 0.7960	43.2000
 0.7970	43.2090
 0.7980	43.2160
 0.7990	43.2220
 0.8000	43.2310
 0.8010	43.2430
 0.8020	43.2490
 0.8030	43.2570
 0.8040	43.2660
 0.8050	43.2730
 0.8060	43.2780
 0.8070	43.2830
 0.8080	43.2860
 0.8090	43.2880
 0.8100	43.2900
 0.8110	43.2910
 0.8120	43.2930
 0.8130	43.2910
 0.8140	43.2940
 0.8150	43.2980
 0.8160	43.3000
 0.8170	43.3020
 0.8180	43.3020
 0.8190	43.3010
 0.8200	43.2990
 0.8210	43.3000
 0.8220	43.3030
 0.8230	43.3070
 0.8240	43.3050
 0.8250	43.3040
 0.8260	43.3000
 0.8270	43.2960
 0.8280	43.3000
 0.8290	43.2970
 0.8300	43.2930
 0.8310	43.2920
 0.8320	43.2910
 0.8330	43.2910
 0.8340	43.2920
 0.8350	43.2930
 0.8360	43.2970
 0.8370	43.3030
 0.8380	43.3080
 0.8390	43.3130
 0.8400	43.3210
 0.8410	43.3290
 0.8420	43.3370
 0.8430	43.3430
 0.8440	43.3520
 0.8450	43.3620
 0.8460	43.3710
 0.8470	43.3820
 0.8480	43.3930
 0.8490	43.4050
 0.8500	43.4170
 0.8510	43.4300
 0.8520	43.4430
 0.8530	43.4530
 0.8540	43.4600
 0.8550	43.4720
 0.8560	43.4870
 0.8570	43.5010
 0.8580	43.5130
 0.8590	43.5270
 0.8600	43.5400
 0.8610	43.5550
 0.8620	43.5730
 0.8630	43.5830
 0.8640	43.5930
 0.8650	43.6100
 0.8660	43.6290
 0.8670	43.6430
 0.8680	43.6520
 0.8690	43.6600
 0.8700	43.6760
 0.8710	43.6950
 0.8720	43.7120
 0.8730	43.7200
 0.8740	43.7310
 0.8750	43.7460
 0.8760	43.7640
 0.8770	43.7750
 0.8780	43.7850
 0.8790	43.7980
 0.8800	43.8160
 0.8810	43.8330
 0.8820	43.8430
 0.8830	43.8510
 0.8840	43.8620
 0.8850	43.8760
 0.8860	43.8860
 0.8870	43.8970
 0.8880	43.9130
 0.8890	43.9260
 0.8900	43.9340
 0.8910	43.9410
 0.8920	43.9530
 0.8930	43.9680
 0.8940	43.9770
 0.8950	43.9810
 0.8960	43.9880
 0.8970	43.9970
 0.8980	44.0080
 0.8990	44.0180
 0.9000	44.0280
 0.9010	44.0390
 0.9020	44.0480
 0.9030	44.0550
 0.9040	44.0670
 0.9050	44.0720
 0.9060	44.0760
 0.9070	44.0870
 0.9080	44.0950
 0.9090	44.1060
 0.9100	44.1120
 0.9110	44.1110
 0.9120	44.1130
 0.9130	44.1160
 0.9140	44.1200
 0.9150	44.1240
 0.9160	44.1260
 0.9170	44.1250
 0.9180	44.1210
 0.9190	44.1120
 0.9200	44.1030
 0.9210	44.0940
 0.9220	44.0860
 0.9230	44.0820
 0.9240	44.0650
 0.9250	44.0500
 0.9260	44.0370
 0.9270	44.0150
 0.9280	43.9830
 0.9290	43.9560
 0.9300	43.9370
 0.9310	43.9110
 0.9320	43.8780
 0.9330	43.8480
 0.9340	43.8200
 0.9350	43.7780
 0.9360	43.7410
 0.9370	43.7030
 0.9380	43.6620
 0.9390	43.6250
 0.9400	43.5820
 0.9410	43.5310
 0.9420	43.4760
 0.9430	43.4300
 0.9440	43.3710
 0.9450	43.3080
 0.9460	43.2440
 0.9470	43.1650
 0.9480	43.0910
 0.9490	43.0160
 0.9500	42.9290
 0.9510	42.8350
 0.9520	42.7420
 0.9530	42.6510
 0.9540	42.5600
 0.9550	42.4590
 0.9560	42.3550
 0.9570	42.2630
 0.9580	42.1900
 0.9590	42.1110
 0.9600	42.0380
 0.9610	41.9680
 0.9620	41.9000
 0.9630	41.8530
 0.9640	41.8070
 0.9650	41.7630
 0.9660	41.7300
 0.9670	41.7140
 0.9680	41.6930
 0.9690	41.6650
 0.9700	41.6360
 0.9710	41.6290
 0.9720	41.6210
 0.9730	41.6080
 0.9740	41.5930
 0.9750	41.5910
 0.9760	41.5940
 0.9770	41.5890
 0.9780	41.5710
 0.9790	41.5780
 0.9800	41.5890
 0.9810	41.5920
 0.9820	41.5870
 0.9830	41.6040
 0.9840	41.6260
 0.9850	41.6390
 0.9860	41.6390
 0.9870	41.6760
 0.9880	41.7030
 0.9890	41.7160
 0.9900	41.7350
 0.9910	41.7600
 0.9920	41.7850
 0.9930	41.8080
 0.9940	41.8330
 0.9950	41.8530
 0.9960	41.8820
 0.9970	41.9180
 0.9980	41.9550
 0.9990	41.9890
 1.0000	42.0140
 1.0010	42.3110
 1.0020	42.3460
 1.0030	42.3820
 1.0040	42.4160
 1.0050	42.4520
 1.0060	42.4910
 1.0070	42.5260
 1.0080	42.5640
 1.0090	42.6050
 1.0100	42.6430
 1.0110	42.6780
 1.0120	42.7170
 1.0130	42.7570
 1.0140	42.7940
 1.0150	42.8310
 1.0160	42.8710
 1.0170	42.9050
 1.0180	42.9410
 1.0190	42.9820
 1.0200	43.0200
 1.0210	43.0600
 1.0220	43.0990
 1.0230	43.1370
 1.0240	43.1730
 1.0250	43.2080
 1.0260	43.2420
 1.0270	43.2770
 1.0280	43.3120
 1.0290	43.3460
 1.0300	43.3790
 1.0310	43.4120
 1.0320	43.4470
 1.0330	43.4800
 1.0340	43.5090
 1.0350	43.5390
 1.0360	43.5680
 1.0370	43.5940
 1.0380	43.6220
 1.0390	43.6540
 1.0400	43.6810
 1.0410	43.7070
 1.0420	43.7320
 1.0430	43.7550
 1.0440	43.7790
 1.0450	43.8020
 1.0460	43.8220
 1.0470	43.8390
 1.0480	43.8590
 1.0490	43.8810
 1.0500	43.9010
 1.0510	43.9260
 1.0520	43.9480
 1.0530	43.9660
 1.0540	43.9780
 1.0550	43.9950
 1.0560	44.0140
 1.0570	44.0300
 1.0580	44.0490
 1.0590	44.0610
 1.0600	44.0660
 1.0610	44.0760
 1.0620	44.0850
 1.0630	44.0950
 1.0640	44.1090
 1.0650	44.1180
 1.0660	44.1230
 1.0670	44.1300
 1.0680	44.1360
 1.0690	44.1400
 1.0700	44.1450
 1.0710	44.1510
 1.0720	44.1550
 1.0730	44.1560
 1.0740	44.1590
 1.0750	44.1630
 1.0760	44.1650
 1.0770	44.1680
 1.0780	44.1680
 1.0790	44.1670
 1.0800	44.1650
 1.0810	44.1610
 1.0820	44.1570
 1.0830	44.1490
 1.0840	44.1430
 1.0850	44.1380
 1.0860	44.1330
 1.0870	44.1250
 1.0880	44.1160
 1.0890	44.1070
 1.0900	44.0960
 1.0910	44.0860
 1.0920	44.0790
 1.0930	44.0670
 1.0940	44.0510
 1.0950	44.0370
 1.0960	44.0210
 1.0970	44.0040
 1.0980	43.9890
 1.0990	43.9730
 1.1000	43.9550
 1.1010	43.9370
 1.1020	43.9190
 1.1030	43.9020
 1.1040	43.8840
 1.1050	43.8660
 1.1060	43.8480
 1.1070	43.8310
 1.1080	43.8110
 1.1090	43.7900
 1.1100	43.7680
 1.1110	43.7450
 1.1120	43.7200
 1.1130	43.6950
 1.1140	43.6680
 1.1150	43.6400
 1.1160	43.6090
 1.1170	43.5760
 1.1180	43.5390
 1.1190	43.4990
 1.1200	43.4570
 1.1210	43.4120
 1.1220	43.3630
 1.1230	43.3100
 1.1240	43.2490
 1.1250	43.1790
 1.1260	43.1050
 1.1270	43.0180
 1.1280	42.9240
 1.1290	42.8180
 1.1300	42.7040
 1.1310	42.5780
 1.1320	42.4440
 1.1330	42.2960
 1.1340	42.1370
 1.1350	41.9680
 1.1360	41.7850
 1.1370	41.5940
 1.1380	41.3960
 1.1390	41.1900
 1.1400	40.9750
 1.1410	40.7570
 1.1420	40.5340
 1.1430	40.3070
 1.1440	40.0830
 1.1450	39.8540
 1.1460	39.6360
 1.1470	39.4170
 1.1480	39.2110
 1.1490	39.0110
 1.1500	38.8240
 1.1510	38.6420
 1.1520	38.4740
 1.1530	38.3160
 1.1540	38.1720
 1.1550	38.0410
 1.1560	37.9220
 1.1570	37.8160
 1.1580	37.7210
 1.1590	37.6330
 1.1600	37.5560
 1.1610	37.4890
 1.1620	37.4300
 1.1630	37.3760
 1.1640	37.3260
 1.1650	37.2810
 1.1660	37.2420
 1.1670	37.2060
 1.1680	37.1760
 1.1690	37.1480
 1.1700	37.1210
 1.1710	37.0970
 1.1720	37.0770
 1.1730	37.0560
 1.1740	37.0380
 1.1750	37.0190
 1.1760	37.0000
 1.1770	36.9800
 1.1780	36.9580
 1.1790	36.9360
 1.1800	36.9150
 1.1810	36.8920
 1.1820	36.8700
 1.1830	36.8480
 1.1840	36.8260
 1.1850	36.8050
 1.1860	36.7850
 1.1870	36.7660
 1.1880	36.7480
 1.1890	36.7300
 1.1900	36.7150
 1.1910	36.7010
 1.1920	36.6880
 1.1930	36.6760
 1.1940	36.6660
 1.1950	36.6560
 1.1960	36.6490
 1.1970	36.6440
 1.1980	36.6440
 1.1990	36.6460
 1.2000	36.6500
 1.2010	36.6590
 1.2020	36.6700
 1.2030	36.6820
 1.2040	36.6990
 1.2050	36.7200
 1.2060	36.7390
 1.2070	36.7620
 1.2080	36.7880
 1.2090	36.8130
 1.2100	36.8440
 1.2110	36.8740
 1.2120	36.9060
 1.2130	36.9400
 1.2140	36.9740
 1.2150	37.0090
 1.2160	37.0440
 1.2170	37.0810
 1.2180	37.1170
 1.2190	37.1540
 1.2200	37.1910
 1.2210	37.2310
 1.2220	37.2690
 1.2230	37.3060
 1.2240	37.3440
 1.2250	37.3800
 1.2260	37.4170
 1.2270	37.4550
 1.2280	37.4890
 1.2290	37.5230
 1.2300	37.5560
 1.2310	37.5880
 1.2320	37.6190
 1.2330	37.6520
 1.2340	37.6840
 1.2350	37.7150
 1.2360	37.7440
 1.2370	37.7730
 1.2380	37.8000
 1.2390	37.8260
 1.2400	37.8500
 1.2410	37.8760
 1.2420	37.9010
 1.2430	37.9240
 1.2440	37.9490
 1.2450	37.9730
 1.2460	37.9960
 1.2470	38.0220
 1.2480	38.0470
 1.2490	38.0690
 1.2500	38.0890
 1.2510	38.1070
 1.2520	38.1250
 1.2530	38.1420
 1.2540	38.1600
 1.2550	38.1750
 1.2560	38.1890
 1.2570	38.2010
 1.2580	38.2120
 1.2590	38.2220
 1.2600	38.2300
 1.2610	38.2370
 1.2620	38.2430
 1.2630	38.2480
 1.2640	38.2520
 1.2650	38.2530
 1.2660	38.2520
 1.2670	38.2490
 1.2680	38.2440
 1.2690	38.2370
 1.2700	38.2300
 1.2710	38.2210
 1.2720	38.2110
 1.2730	38.1980
 1.2740	38.1820
 1.2750	38.1630
 1.2760	38.1400
 1.2770	38.1170
 1.2780	38.0930
 1.2790	38.0660
 1.2800	38.0370
 1.2810	38.0060
 1.2820	37.9730
 1.2830	37.9400
 1.2840	37.9060
 1.2850	37.8670
 1.2860	37.8260
 1.2870	37.7820
 1.2880	37.7350
 1.2890	37.6830
 1.2900	37.6290
 1.2910	37.5740
 1.2920	37.5160
 1.2930	37.4570
 1.2940	37.3960
 1.2950	37.3310
 1.2960	37.2630
 1.2970	37.1910
 1.2980	37.1160
 1.2990	37.0380
 1.3000	36.9580
 1.3010	36.8760
 1.3020	36.7900
 1.3030	36.7020
 1.3040	36.6080
 1.3050	36.5090
 1.3060	36.4080
 1.3070	36.3030
 1.3080	36.1950
 1.3090	36.0840
 1.3100	35.9660
 1.3110	35.8460
 1.3120	35.7220
 1.3130	35.5920
 1.3140	35.4600
 1.3150	35.3230
 1.3160	35.1830
 1.3170	35.0410
 1.3180	34.8940
 1.3190	34.7410
 1.3200	34.5850
 1.3210	34.4230
 1.3220	34.2600
 1.3230	34.0970
 1.3240	33.9290
 1.3250	33.7590
 1.3260	33.5850
 1.3270	33.4040
 1.3280	33.2220
 1.3290	33.0380
 1.3300	32.8510
 1.3310	32.6650
 1.3320	32.4760
 1.3330	32.2870
 1.3340	32.0990
 1.3350	31.9080
 1.3360	31.7200
 1.3370	31.5310
 1.3380	31.3440
 1.3390	31.1610
 1.3400	30.9760
 1.3410	30.7940
 1.3420	30.6130
 1.3430	30.4330
 1.3440	30.2580
 1.3450	30.0850
 1.3460	29.9130
 1.3470	29.7460
 1.3480	29.5810
 1.3490	29.4190
 1.3500	29.2600
 1.3510	29.1030
 1.3520	28.9470
 1.3530	28.7930
 1.3540	28.6380
 1.3550	28.4830
 1.3560	28.3280
 1.3570	28.1700
 1.3580	28.0130
 1.3590	27.8530
 1.3600	27.6870
 1.3610	27.5180
 1.3620	27.3420
 1.3630	27.1600
 1.3640	26.9720
 1.3650	26.7740
 1.3660	26.5680
 1.3670	26.3510
 1.3680	26.1220
 1.3690	25.8820
 1.3700	25.6250
 1.3710	25.3530
 1.3720	25.0650
 1.3730	24.7580
 1.3740	24.4370
 1.3750	24.0970
 1.3760	23.7340
 1.3770	23.3500
 1.3780	22.9400
 1.3790	22.5080
 1.3800	22.0560
 1.3810	21.5800
 1.3820	21.0910
 1.3830	20.5820
 1.3840	20.0630
 1.3850	19.5270
 1.3860	18.9880
 1.3870	18.4320
 1.3880	17.8850
 1.3890	17.3340
 1.3900	16.7850
 1.3910	16.2460
 1.3920	15.7110
 1.3930	15.1840
 1.3940	14.6710
 1.3950	14.1670
 1.3960	13.6800
 1.3970	13.2120
 1.3980	12.7620
 1.3990	12.3390
 1.4000	11.9360
 1.4010	11.5520
 1.4020	11.1920
 1.4030	10.8510
 1.4040	10.5320
 1.4050	10.2360
 1.4060	 9.9590
 1.4070	 9.7040
 1.4080	 9.4660
 1.4090	 9.2440
 1.4100	 9.0410
 1.4110	 8.8530
 1.4120	 8.6800
 1.4130	 8.5210
 1.4140	 8.3730
 1.4150	 8.2400
 1.4160	 8.1160
 1.4170	 8.0030
 1.4180	 7.9000
 1.4190	 7.8030
 1.4200	 7.7150
 1.4210	 7.6330
 1.4220	 7.5580
 1.4230	 7.4910
 1.4240	 7.4290
 1.4250	 7.3710
 1.4260	 7.3200
 1.4270	 7.2710
 1.4280	 7.2260
 1.4290	 7.1850
 1.4300	 7.1490
 1.4310	 7.1150
 1.4320	 7.0860
 1.4330	 7.0580
 1.4340	 7.0320
 1.4350	 7.0100
 1.4360	 6.9910
 1.4370	 6.9730
 1.4380	 6.9560
 1.4390	 6.9430
 1.4400	 6.9310
 1.4410	 6.9210
 1.4420	 6.9140
 1.4430	 6.9070
 1.4440	 6.9010
 1.4450	 6.8970
 1.4460	 6.8950
 1.4470	 6.8940
 1.4480	 6.8940
 1.4490	 6.8940
 1.4500	 6.8970
 1.4510	 6.9000
 1.4520	 6.9050
 1.4530	 6.9100
 1.4540	 6.9160
 1.4550	 6.9240
 1.4560	 6.9340
 1.4570	 6.9450
 1.4580	 6.9590
 1.4590	 6.9730
 1.4600	 6.9900
 1.4610	 7.0090
 1.4620	 7.0290
 1.4630	 7.0530
 1.4640	 7.0790
 1.4650	 7.1070
 1.4660	 7.1380
 1.4670	 7.1720
 1.4680	 7.2100
 1.4690	 7.2500
 1.4700	 7.2910
 1.4710	 7.3370
 1.4720	 7.3830
 1.4730	 7.4320
 1.4740	 7.4840
 1.4750	 7.5370
 1.4760	 7.5930
 1.4770	 7.6520
 1.4780	 7.7120
 1.4790	 7.7740
 1.4800	 7.8360
 1.4810	 7.9000
 1.4820	 7.9670
 1.4830	 8.0340
 1.4840	 8.1040
 1.4850	 8.1750
 1.4860	 8.2460
 1.4870	 8.3200
 1.4880	 8.3940
 1.4890	 8.4690
 1.4900	 8.5450
 1.4910	 8.6230
 1.4920	 8.7020
 1.4930	 8.7830
 1.4940	 8.8640
 1.4950	 8.9460
 1.4960	 9.0290
 1.4970	 9.1110
 1.4980	 9.1960
 1.4990	 9.2820
 1.5000	 9.3690
 1.5010	 9.4580
 1.5020	 9.5460
 1.5030	 9.6360
 1.5040	 9.7260
 1.5050	 9.8150
 1.5060	 9.9060
 1.5070	 9.9960
 1.5080	10.0880
 1.5090	10.1800
 1.5100	10.2740
 1.5110	10.3680
 1.5120	10.4620
 1.5130	10.5550
 1.5140	10.6480
 1.5150	10.7420
 1.5160	10.8360
 1.5170	10.9330
 1.5180	11.0290
 1.5190	11.1250
 1.5200	11.2220
 1.5210	11.3170
 1.5220	11.4130
 1.5230	11.5090
 1.5240	11.6050
 1.5250	11.7010
 1.5260	11.7970
 1.5270	11.8930
 1.5280	11.9890
 1.5290	12.0840
 1.5300	12.1790
 1.5310	12.2740
 1.5320	12.3670
 1.5330	12.4630
 1.5340	12.5580
 1.5350	12.6530
 1.5360	12.7490
 1.5370	12.8430
 1.5380	12.9360
 1.5390	13.0300
 1.5400	13.1230
 1.5410	13.2150
 1.5420	13.3080
 1.5430	13.4000
 1.5440	13.4920
 1.5450	13.5840
 1.5460	13.6750
 1.5470	13.7670
 1.5480	13.8570
 1.5490	13.9480
 1.5500	14.0380
 1.5510	14.1280
 1.5520	14.2180
 1.5530	14.3060
 1.5540	14.3940
 1.5550	14.4810
 1.5560	14.5660
 1.5570	14.6520
 1.5580	14.7360
 1.5590	14.8210
 1.5600	14.9070
 1.5610	14.9890
 1.5620	15.0720
 1.5630	15.1540
 1.5640	15.2350
 1.5650	15.3160
 1.5660	15.3970
 1.5670	15.4750
 1.5680	15.5550
 1.5690	15.6330
 1.5700	15.7110
 1.5710	15.7890
 1.5720	15.8660
 1.5730	15.9420
 1.5740	16.0190
 1.5750	16.0940
 1.5760	16.1700
 1.5770	16.2430
 1.5780	16.3170
 1.5790	16.3900
 1.5800	16.4630
 1.5810	16.5350
 1.5820	16.6070
 1.5830	16.6770
 1.5840	16.7480
 1.5850	16.8170
 1.5860	16.8850
 1.5870	16.9530
 1.5880	17.0210
 1.5890	17.0890
 1.5900	17.1560
 1.5910	17.2210
 1.5920	17.2860
 1.5930	17.3500
 1.5940	17.4140
 1.5950	17.4780
 1.5960	17.5410
 1.5970	17.6030
 1.5980	17.6650
 1.5990	17.7260
 1.6000	17.7870
 1.6010	17.8450
 1.6020	17.9040
 1.6030	17.9640
 1.6040	18.0230
 1.6050	18.0810
 1.6060	18.1380
 1.6070	18.1940
 1.6080	18.2500
 1.6090	18.3050
 1.6100	18.3590
 1.6110	18.4140
 1.6120	18.4660
 1.6130	18.5180
 1.6140	18.5690
 1.6150	18.6180
 1.6160	18.6700
 1.6170	18.7200
 1.6180	18.7710
 1.6190	18.8210
 1.6200	18.8690
 1.6210	18.9160
 1.6220	18.9620
 1.6230	19.0070
 1.6240	19.0510
 1.6250	19.0930
 1.6260	19.1360
 1.6270	19.1790
 1.6280	19.2220
 1.6290	19.2640
 1.6300	19.3030
 1.6310	19.3420
 1.6320	19.3800
 1.6330	19.4180
 1.6340	19.4560
 1.6350	19.4930
 1.6360	19.5280
 1.6370	19.5620
 1.6380	19.5960
 1.6390	19.6290
 1.6400	19.6600
 1.6410	19.6910
 1.6420	19.7200
 1.6430	19.7470
 1.6440	19.7730
 1.6450	19.7970
 1.6460	19.8210
 1.6470	19.8440
 1.6480	19.8660
 1.6490	19.8860
 1.6500	19.9020
 1.6510	19.9180
 1.6520	19.9310
 1.6530	19.9440
 1.6540	19.9560
 1.6550	19.9680
 1.6560	19.9780
 1.6570	19.9880
 1.6580	19.9960
 1.6590	20.0040
 1.6600	20.0100
 1.6610	20.0170
 1.6620	20.0240
 1.6630	20.0310
 1.6640	20.0370
 1.6650	20.0420
 1.6660	20.0460
 1.6670	20.0500
 1.6680	20.0540
 1.6690	20.0590
 1.6700	20.0620
 1.6710	20.0650
 1.6720	20.0660
 1.6730	20.0660
 1.6740	20.0630
 1.6750	20.0540
 1.6760	20.0440
 1.6770	20.0330
 1.6780	20.0190
 1.6790	20.0060
 1.6800	19.9920
 1.6810	19.9730
 1.6820	19.9500
 1.6830	19.9250
 1.6840	19.8970
 1.6850	19.8660
 1.6860	19.8330
 1.6870	19.8000
 1.6880	19.7670
 1.6890	19.7330
 1.6900	19.6960
 1.6910	19.6570
 1.6920	19.6170
 1.6930	19.5740
 1.6940	19.5320
 1.6950	19.4910
 1.6960	19.4490
 1.6970	19.4060
 1.6980	19.3620
 1.6990	19.3160
 1.7000	19.2700
 1.7010	19.2240
 1.7020	19.1760
 1.7030	19.1260
 1.7040	19.0750
 1.7050	19.0220
 1.7060	18.9680
 1.7070	18.9120
 1.7080	18.8570
 1.7090	18.8010
 1.7100	18.7470
 1.7110	18.6930
 1.7120	18.6420
 1.7130	18.5930
 1.7140	18.5460
 1.7150	18.4990
 1.7160	18.4560
 1.7170	18.4160
 1.7180	18.3780
 1.7190	18.3400
 1.7200	18.3040
 1.7210	18.2690
 1.7220	18.2370
 1.7230	18.2040
 1.7240	18.1710
 1.7250	18.1390
 1.7260	18.1070
 1.7270	18.0750
 1.7280	18.0450
 1.7290	18.0150
 1.7300	17.9810
 1.7310	17.9490
 1.7320	17.9180
 1.7330	17.8840
 1.7340	17.8510
 1.7350	17.8150
 1.7360	17.7760
 1.7370	17.7360
 1.7380	17.6950
 1.7390	17.6470
 1.7400	17.5950
 1.7410	17.5420
 1.7420	17.4840
 1.7430	17.4270
 1.7440	17.3700
 1.7450	17.3100
 1.7460	17.2460
 1.7470	17.1830
 1.7480	17.1200
 1.7490	17.0560
 1.7500	16.9920
 1.7510	16.9270
 1.7520	16.8580
 1.7530	16.7930
 1.7540	16.7280
 1.7550	16.6640
 1.7560	16.6010
 1.7570	16.5380
 1.7580	16.4770
 1.7590	16.4190
 1.7600	16.3620
 1.7610	16.3040
 1.7620	16.2490
 1.7630	16.1940
 1.7640	16.1420
 1.7650	16.0930
 1.7660	16.0440
 1.7670	15.9950
 1.7680	15.9480
 1.7690	15.9030
 1.7700	15.8580
 1.7710	15.8160
 1.7720	15.7750
 1.7730	15.7360
 1.7740	15.6990
 1.7750	15.6650
 1.7760	15.6310
 1.7770	15.5990
 1.7780	15.5670
 1.7790	15.5350
 1.7800	15.5100
 1.7810	15.4880
 1.7820	15.4680
 1.7830	15.4530
 1.7840	15.4390
 1.7850	15.4250
 1.7860	15.4140
 1.7870	15.4040
 1.7880	15.3960
 1.7890	15.3890
 1.7900	15.3870
 1.7910	15.3840
 1.7920	15.3850
 1.7930	15.3840
 1.7940	15.3810
 1.7950	15.3830
 1.7960	15.3890
 1.7970	15.3930
 1.7980	15.4010
 1.7990	15.4070
 1.8000	15.4110
 1.8010	15.4180
 1.8020	15.4260
 1.8030	15.4340
 1.8040	15.4440
 1.8050	15.4520
 1.8060	15.4590
 1.8070	15.4660
 1.8080	15.4700
 1.8090	15.4760
 1.8100	15.4820
 1.8110	15.4870
 1.8120	15.4950
 1.8130	15.5010
 1.8140	15.5070
 1.8150	15.5110
 1.8160	15.5120
 1.8170	15.5120
 1.8180	15.5120
 1.8190	15.5150
 1.8200	15.5150
 1.8210	15.5130
 1.8220	15.5090
 1.8230	15.5010
 1.8240	15.4930
 1.8250	15.4850
 1.8260	15.4750
 1.8270	15.4630
 1.8280	15.4490
 1.8290	15.4310
 1.8300	15.4120
 1.8310	15.9520
 1.8320	15.9260
 1.8330	15.8970
 1.8340	15.8630
 1.8350	15.8250
 1.8360	15.7810
 1.8370	15.7350
 1.8380	15.6850
 1.8390	15.6320
 1.8400	15.5780
 1.8410	15.5160
 1.8420	15.4500
 1.8430	15.3770
 1.8440	15.2980
 1.8450	15.2100
 1.8460	15.1160
 1.8470	15.0160
 1.8480	14.9070
 1.8490	14.7930
 1.8500	14.6690
 1.8510	14.5380
 1.8520	14.3960
 1.8530	14.2450
 1.8540	14.0830
 1.8550	13.9110
 1.8560	13.7330
 1.8570	13.5450
 1.8580	13.3480
 1.8590	13.1430
 1.8600	12.9290
 1.8610	12.7060
 1.8620	12.4690
 1.8630	12.2270
 1.8640	11.9760
 1.8650	11.7090
 1.8660	11.4370
 1.8670	11.1550
 1.8680	10.8670
 1.8690	10.5750
 1.8700	10.2760
 1.8710	 9.9720
 1.8720	 9.6680
 1.8730	 9.3610
 1.8740	 9.0570
 1.8750	 8.7580
 1.8760	 8.4590
 1.8770	 8.1680
 1.8780	 7.8830
 1.8790	 7.6060
 1.8800	 7.3430
 1.8810	 7.0920
 1.8820	 6.8500
 1.8830	 6.6170
 1.8840	 6.3970
 1.8850	 6.1870
 1.8860	 5.9900
 1.8870	 5.8080
 1.8880	 5.6340
 1.8890	 5.4730
 1.8900	 5.3260
 1.8910	 5.1910
 1.8920	 5.0680
 1.8930	 4.9600
 1.8940	 4.8630
 1.8950	 4.7750
 1.8960	 4.6960
 1.8970	 4.6250
 1.8980	 4.5630
 1.8990	 4.5090
 1.9000	 4.4580
 1.9010	 4.4130
 1.9020	 4.3740
 1.9030	 4.3430
 1.9040	 4.3160
 1.9050	 4.2930
 1.9060	 4.2750
 1.9070	 4.2590
 1.9080	 4.2430
 1.9090	 4.2280
 1.9100	 4.2150
 1.9110	 4.2030
 1.9120	 4.1910
 1.9130	 4.1830
 1.9140	 4.1780
 1.9150	 4.1720
 1.9160	 4.1670
 1.9170	 4.1640
 1.9180	 4.1580
 1.9190	 4.1540
 1.9200	 4.1530
 1.9210	 4.1480
 1.9220	 4.1470
 1.9230	 4.1470
 1.9240	 4.1470
 1.9250	 4.1470
 1.9260	 4.1500
 1.9270	 4.1490
 1.9280	 4.1470
 1.9290	 4.1460
 1.9300	 4.1470
 1.9310	 4.1490
 1.9320	 4.1510
 1.9330	 4.1530
 1.9340	 4.1540
 1.9350	 4.1570
 1.9360	 4.1610
 1.9370	 4.1640
 1.9380	 4.1670
 1.9390	 4.1690
 1.9400	 4.1690
 1.9410	 4.1710
 1.9420	 4.1750
 1.9430	 4.1810
 1.9440	 4.1880
 1.9450	 4.1990
 1.9460	 4.2060
 1.9470	 4.2100
 1.9480	 4.2150
 1.9490	 4.2190
 1.9500	 4.2220
 1.9510	 4.2260
 1.9520	 4.2330
 1.9530	 4.2380
 1.9540	 4.2410
 1.9550	 4.2470
 1.9560	 4.2530
 1.9570	 4.2600
 1.9580	 4.2680
 1.9590	 4.2760
 1.9600	 4.2810
 1.9610	 4.2880
 1.9620	 4.2950
 1.9630	 4.3040
 1.9640	 4.3140
 1.9650	 4.3270
 1.9660	 4.3360
 1.9670	 4.3430
 1.9680	 4.3520
 1.9690	 4.3570
 1.9700	 4.3660
 1.9710	 4.3790
 1.9720	 4.3890
 1.9730	 4.3980
 1.9740	 4.4100
 1.9750	 4.4170
 1.9760	 4.4250
 1.9770	 4.4390
 1.9780	 4.4500
 1.9790	 4.4640
 1.9800	 4.4810
 1.9810	 4.4960
 1.9820	 4.5110
 1.9830	 4.5260
 1.9840	 4.5430
 1.9850	 4.5570
 1.9860	 4.5700
 1.9870	 4.5840
 1.9880	 4.5970
 1.9890	 4.6100
 1.9900	 4.6270
 1.9910	 4.6410
 1.9920	 4.6570
 1.9930	 4.6730
 1.9940	 4.6900
 1.9950	 4.7060
 1.9960	 4.7230
 1.9970	 4.7410
 1.9980	 4.7600
 1.9990	 4.7800
 2.0000	 4.8010
 2.0010	 4.8180
 2.0020	 4.8330
 2.0030	 4.8460
 2.0040	 4.8620
 2.0050	 4.8800
 2.0060	 4.9020
 2.0070	 4.9220
 2.0080	 4.9430
 2.0090	 4.9630
 2.0100	 4.9810
 2.0110	 5.0010
 2.0120	 5.0200
 2.0130	 5.0390
 2.0140	 5.0620
 2.0150	 5.0840
 2.0160	 5.1060
 2.0170	 5.1300
 2.0180	 5.1520
 2.0190	 5.1710
 2.0200	 5.1930
 2.0210	 5.2140
 2.0220	 5.2360
 2.0230	 5.2580
 2.0240	 5.2800
 2.0250	 5.3010
 2.0260	 5.3220
 2.0270	 5.3410
 2.0280	 5.3620
 2.0290	 5.3850
 2.0300	 5.4070
 2.0310	 5.4280
 2.0320	 5.4500
 2.0330	 5.4720
 2.0340	 5.4920
 2.0350	 5.5140
 2.0360	 5.5390
 2.0370	 5.5620
 2.0380	 5.5830
 2.0390	 5.6050
 2.0400	 5.6280
 2.0410	 5.6500
 2.0420	 5.6730
 2.0430	 5.6950
 2.0440	 5.7160
 2.0450	 5.7350
 2.0460	 5.7560
 2.0470	 5.7780
 2.0480	 5.8000
 2.0490	 5.8210
 2.0500	 5.8440
 2.0510	 5.8670
 2.0520	 5.8900
 2.0530	 5.9140
 2.0540	 5.9380
 2.0550	 5.9640
 2.0560	 5.9860
 2.0570	 6.0090
 2.0580	 6.0310
 2.0590	 6.0540
 2.0600	 6.0740
 2.0610	 6.0970
 2.0620	 6.1240
 2.0630	 6.1480
 2.0640	 6.1730
 2.0650	 6.1970
 2.0660	 6.2200
 2.0670	 6.2430
 2.0680	 6.2660
 2.0690	 6.2900
 2.0700	 6.3130
 2.0710	 6.3370
 2.0720	 6.3640
 2.0730	 6.3890
 2.0740	 6.4150
 2.0750	 6.4430
 2.0760	 6.4690
 2.0770	 6.4940
 2.0780	 6.5200
 2.0790	 6.5470
 2.0800	 6.5720
 2.0810	 6.5970
 2.0820	 6.6210
 2.0830	 6.6430
 2.0840	 6.6670
 2.0850	 6.6930
 2.0860	 6.7180
 2.0870	 6.7440
 2.0880	 6.7700
 2.0890	 6.7950
 2.0900	 6.8190
 2.0910	 6.8470
 2.0920	 6.8780
 2.0930	 6.9050
 2.0940	 6.9300
 2.0950	 6.9570
 2.0960	 6.9840
 2.0970	 7.0090
 2.0980	 7.0360
 2.0990	 7.0600
 2.1000	 7.0800
 2.1010	 7.1030
 2.1020	 7.1290
 2.1030	 7.1540
 2.1040	 7.1790
 2.1050	 7.2060
 2.1060	 7.2290
 2.1070	 7.2500
 2.1080	 7.2730
 2.1090	 7.2960
 2.1100	 7.3220
 2.1110	 7.3500
 2.1120	 7.3770
 2.1130	 7.4070
 2.1140	 7.4330
 2.1150	 7.4590
 2.1160	 7.4850
 2.1170	 7.5090
 2.1180	 7.5330
 2.1190	 7.5580
 2.1200	 7.5820
 2.1210	 7.6070
 2.1220	 7.6320
 2.1230	 7.6520
 2.1240	 7.6700
 2.1250	 7.6890
 2.1260	 7.7030
 2.1270	 7.7240
 2.1280	 7.7490
 2.1290	 7.7700
 2.1300	 7.7940
 2.1310	 7.8150
 2.1320	 7.8320
 2.1330	 7.8520
 2.1340	 7.8740
 2.1350	 7.8950
 2.1360	 7.9190
 2.1370	 7.9410
 2.1380	 7.9640
 2.1390	 7.9820
 2.1400	 7.9950
 2.1410	 8.0110
 2.1420	 8.0280
 2.1430	 8.0440
 2.1440	 8.0620
 2.1450	 8.0830
 2.1460	 8.1020
 2.1470	 8.1190
 2.1480	 8.1370
 2.1490	 8.1550
 2.1500	 8.1720
 2.1510	 8.1880
 2.1520	 8.2040
 2.1530	 8.2200
 2.1540	 8.2350
 2.1550	 8.2490
 2.1560	 8.2630
 2.1570	 8.2750
 2.1580	 8.2870
 2.1590	 8.2990
 2.1600	 8.3080
 2.1610	 8.3220
 2.1620	 8.3390
 2.1630	 8.3520
 2.1640	 8.3640
 2.1650	 8.3790
 2.1660	 8.3930
 2.1670	 8.4070
 2.1680	 8.4260
 2.1690	 8.4400
 2.1700	 8.4490
 2.1710	 8.4610
 2.1720	 8.4730
 2.1730	 8.4860
 2.1740	 8.4980
 2.1750	 8.5110
 2.1760	 8.5230
 2.1770	 8.5370
 2.1780	 8.5530
 2.1790	 8.5670
 2.1800	 8.5780
 2.1810	 8.5910
 2.1820	 8.6060
 2.1830	 8.6170
 2.1840	 8.6310
 2.1850	 8.6480
 2.1860	 8.6610
 2.1870	 8.6720
 2.1880	 8.6850
 2.1890	 8.6960
 2.1900	 8.7100
 2.1910	 8.7250
 2.1920	 8.7390
 2.1930	 8.7530
 2.1940	 8.7670
 2.1950	 8.7820
 2.1960	 8.7950
 2.1970	 8.8070
 2.1980	 8.8200
 2.1990	 8.8300
 2.2000	 8.8410
 2.2010	 8.8550
 2.2020	 8.8670
 2.2030	 8.8800
 2.2040	 8.8910
 2.2050	 8.9040
 2.2060	 8.9110
 2.2070	 8.9180
 2.2080	 8.9210
 2.2090	 8.9290
 2.2100	 8.9350
 2.2110	 8.9430
 2.2120	 8.9540
 2.2130	 8.9610
 2.2140	 8.9670
 2.2150	 8.9700
 2.2160	 8.9700
 2.2170	 8.9730
 2.2180	 8.9760
 2.2190	 8.9780
 2.2200	 8.9810
 2.2210	 8.9840
 2.2220	 8.9890
 2.2230	 8.9910
 2.2240	 8.9930
 2.2250	 8.9920
 2.2260	 8.9840
 2.2270	 8.9800
 2.2280	 8.9800
 2.2290	 8.9750
 2.2300	 8.9670
 2.2310	 8.9600
 2.2320	 8.9460
 2.2330	 8.9270
 2.2340	 8.9100
 2.2350	 8.8900
 2.2360	 8.8740
 2.2370	 8.8620
 2.2380	 8.8460
 2.2390	 8.8350
 2.2400	 8.8130
 2.2410	 8.7840
 2.2420	 8.7590
 2.2430	 8.7320
 2.2440	 8.7070
 2.2450	 8.6850
 2.2460	 8.6590
 2.2470	 8.6290
 2.2480	 8.6020
 2.2490	 8.5770
 2.2500	 8.5470
 2.2510	 8.5140
 2.2520	 8.4850
 2.2530	 8.4550
 2.2540	 8.4270
 2.2550	 8.4080
 2.2560	 8.3830
 2.2570	 8.3560
 2.2580	 8.3260
 2.2590	 8.2910
 2.2600	 8.2580
 2.2610	 8.2260
 2.2620	 8.1900
 2.2630	 8.1590
 2.2640	 8.1330
 2.2650	 8.1100
 2.2660	 8.0880
 2.2670	 8.0580
 2.2680	 8.0270
 2.2690	 7.9940
 2.2700	 7.9540
 2.2710	 7.9210
 2.2720	 7.8920
 2.2730	 7.8630
 2.2740	 7.8340
 2.2750	 7.8080
 2.2760	 7.7830
 2.2770	 7.7570
 2.2780	 7.7340
 2.2790	 7.7080
 2.2800	 7.6810
 2.2810	 7.6530
 2.2820	 7.6230
 2.2830	 7.5940
 2.2840	 7.5600
 2.2850	 7.5330
 2.2860	 7.5080
 2.2870	 7.4850
 2.2880	 7.4720
 2.2890	 7.4500
 2.2900	 7.4220
 2.2910	 7.3960
 2.2920	 7.3660
 2.2930	 7.3370
 2.2940	 7.3100
 2.2950	 7.2830
 2.2960	 7.2540
 2.2970	 7.2280
 2.2980	 7.2070
 2.2990	 7.1850
 2.3000	 7.1630
 2.3010	 7.1410
 2.3020	 7.1150
 2.3030	 7.0900
 2.3040	 7.0660
 2.3050	 7.0420
 2.3060	 7.0140
 2.3070	 6.9900
 2.3080	 6.9710
 2.3090	 6.9510
 2.3100	 6.9340
 2.3110	 6.9200
 2.3120	 6.9070
 2.3130	 6.8950
 2.3140	 6.8820
 2.3150	 6.8710
 2.3160	 6.8590
 2.3170	 6.8440
 2.3180	 6.8280
 2.3190	 6.8150
 2.3200	 6.8000
 2.3210	 6.7800
 2.3220	 6.7640
 2.3230	 6.7510
 2.3240	 6.7340
 2.3250	 6.7140
 2.3260	 6.6980
 2.3270	 6.6810
 2.3280	 6.6660
 2.3290	 6.6550
 2.3300	 6.6370
 2.3310	 6.6100
 2.3320	 6.5910
 2.3330	 6.5760
 2.3340	 6.5580
 2.3350	 6.5440
 2.3360	 6.5270
 2.3370	 6.5060
 2.3380	 6.4850
 2.3390	 6.4630
 2.3400	 6.4470
 2.3410	 6.4290
 2.3420	 6.4140
 2.3430	 6.4080
 2.3440	 6.3910
 2.3450	 6.3640
 2.3460	 6.3420
 2.3470	 6.3130
 2.3480	 6.2920
 2.3490	 6.2780
 2.3500	 6.2640
 2.3510	 6.2580
 2.3520	 6.2470
 2.3530	 6.2340
 2.3540	 6.2230
 2.3550	 6.2150
 2.3560	 6.2010
 2.3570	 6.1870
 2.3580	 6.1730
 2.3590	 6.1620
 2.3600	 6.1460
 2.3610	 6.1290
 2.3620	 6.1180
 2.3630	 6.1010
 2.3640	 6.0810
 2.3650	 6.0690
 2.3660	 6.0570
 2.3670	 6.0450
 2.3680	 6.0290
 2.3690	 6.0110
 2.3700	 5.9960
 2.3710	 5.9790
 2.3720	 5.9670
 2.3730	 5.9600
 2.3740	 5.9460
 2.3750	 5.9360
 2.3760	 5.9340
 2.3770	 5.9200
 2.3780	 5.8990
 2.3790	 5.8850
 2.3800	 5.8700
 2.3810	 5.8550
 2.3820	 5.8590
 2.3830	 5.8480
 2.3840	 5.8230
 2.3850	 5.8150
 2.3860	 5.7900
 2.3870	 5.7700
 2.3880	 5.7600
 2.3890	 5.7310
 2.3900	 5.7140
 2.3910	 5.6990
 2.3920	 5.6730
 2.3930	 5.6600
 2.3940	 5.6560
 2.3950	 5.6500
 2.3960	 5.6530
 2.3970	 5.6550
 2.3980	 5.6410
 2.3990	 5.6170
 2.4000	 5.5950
 2.4010	 5.5750
 2.4020	 5.5530
 2.4030	 5.5300
 2.4040	 5.5220
 2.4050	 5.5150
 2.4060	 5.5010
 2.4070	 5.4970
 2.4080	 5.4870
 2.4090	 5.4730
 2.4100	 5.4650
 2.4110	 5.4600
 2.4120	 5.4510
 2.4130	 5.4220
 2.4140	 5.3940
 2.4150	 5.3730
 2.4160	 5.3580
 2.4170	 5.3450
 2.4180	 5.3210
 2.4190	 5.3070
 2.4200	 5.2920
 2.4210	 5.2810
 2.4220	 5.2850
 2.4230	 5.2870
 2.4240	 5.2710
 2.4250	 5.2440
 2.4260	 5.2350
 2.4270	 5.2230
 2.4280	 5.2130
 2.4290	 5.2200
 2.4300	 5.2080
 2.4310	 5.1900
 2.4320	 5.1650
 2.4330	 5.1380
 2.4340	 5.1240
 2.4350	 5.1110
 2.4360	 5.1060
 2.4370	 5.0950
 2.4380	 5.0880
 2.4390	 5.0900
 2.4400	 5.0770
 2.4410	 5.0690
 2.4420	 5.0660
 2.4430	 5.0600
 2.4440	 5.0660
 2.4450	 5.0560
 2.4460	 5.0350
 2.4470	 5.0170
 2.4480	 4.9910
 2.4490	 4.9870
 2.4500	 4.9950
 2.4510	 4.9900
 2.4520	 4.9720
 2.4530	 4.9660
 2.4540	 4.9770
 2.4550	 4.9800
 2.4560	 4.9910
 2.4570	 4.9960
 2.4580	 4.9770
 2.4590	 4.9490
 2.4600	 4.9330
 2.4610	 4.9160
 2.4620	 4.8930
 2.4630	 4.9030
 2.4640	 4.9020
 2.4650	 4.8930
 2.4660	 4.8930
 2.4670	 4.8660
 2.4680	 4.8390
 2.4690	 4.8430
 2.4700	 4.8450
 2.4710	 4.8560
 2.4720	 4.8640
 2.4730	 4.8650
 2.4740	 4.8610
 2.4750	 4.8590
 2.4760	 4.8520
 2.4770	 4.8450
 2.4780	 4.8330
 2.4790	 4.7990
 2.4800	 4.7940
 2.4810	 4.8040
 2.4820	 4.8000
 2.4830	 4.8220
 2.4840	 4.8420
 2.4850	 4.8420
 2.4860	 4.8580
 2.4870	 4.8330
 2.4880	 4.8390
 2.4890	 4.8550
 2.4900	 4.8080
 2.4910	 4.8160
 2.4920	 4.7990
 2.4930	 4.7640
 2.4940	 4.8140
 2.4950	 4.8490
 2.4960	 4.8940
 2.4970	 4.9210
 2.4980	 4.8880
 2.4990	 4.8930
 2.5000	 4.8590
