Name: Umbellularia californica 3
Type: vegetation
Class: Shrub
Genus: Umbellularia
Species: californica
Sample No.: VH108
Owner: UCSB
Wavelength Range: VSWIR
Origin: 34.5075; -119.763; WGS84
Collection Date: 6/3/2013
Description: Samples were collected as part of the HyspIRI Airborne Campaign. 48 individual plants were sampled in three times in 2013 - spring  summer  and fall. The name of the sample includes a 1  2  or 3 which references a different individual of the species. Samples were taken to JPL and processed within 48 hours of collection. The same leaves were processed in the Nicolet and then measured using the ASD.
Measurement: Bidirectional reflectance
First Column: X
Second Column: Y
X Units: Wavelength (micrometers)
Y Units: Reflectance (percentage)
First X Value: 0.35
Last X Value: 2.5
Number of X Values: 2151
Additional Information: vegetation.shrub.umbellularia.californica.vswir.vh108.ucsb.asd.ancillary.txt

 0.3500	 8.9760
 0.3510	 9.0780
 0.3520	 9.0820
 0.3530	 9.0420
 0.3540	 9.0410
 0.3550	 8.9460
 0.3560	 8.9820
 0.3570	 9.0300
 0.3580	 8.8610
 0.3590	 8.9120
 0.3600	 8.9600
 0.3610	 8.9100
 0.3620	 8.9430
 0.3630	 8.8800
 0.3640	 8.8140
 0.3650	 8.8580
 0.3660	 8.9740
 0.3670	 8.9390
 0.3680	 8.8140
 0.3690	 8.8430
 0.3700	 8.8970
 0.3710	 8.8980
 0.3720	 8.8440
 0.3730	 8.8550
 0.3740	 8.8250
 0.3750	 8.7730
 0.3760	 8.7570
 0.3770	 8.8310
 0.3780	 8.8570
 0.3790	 8.8090
 0.3800	 8.7670
 0.3810	 8.7400
 0.3820	 8.7560
 0.3830	 8.8000
 0.3840	 8.7560
 0.3850	 8.7480
 0.3860	 8.7710
 0.3870	 8.7780
 0.3880	 8.7930
 0.3890	 8.7950
 0.3900	 8.7780
 0.3910	 8.7520
 0.3920	 8.7270
 0.3930	 8.7110
 0.3940	 8.7120
 0.3950	 8.7450
 0.3960	 8.7620
 0.3970	 8.7430
 0.3980	 8.6920
 0.3990	 8.6940
 0.4000	 8.7170
 0.4010	 8.7320
 0.4020	 8.7230
 0.4030	 8.7080
 0.4040	 8.6990
 0.4050	 8.7040
 0.4060	 8.7210
 0.4070	 8.7140
 0.4080	 8.6970
 0.4090	 8.7100
 0.4100	 8.7420
 0.4110	 8.7690
 0.4120	 8.7800
 0.4130	 8.7910
 0.4140	 8.8140
 0.4150	 8.8480
 0.4160	 8.8890
 0.4170	 8.9160
 0.4180	 8.9340
 0.4190	 8.9590
 0.4200	 9.0140
 0.4210	 9.0350
 0.4220	 9.0560
 0.4230	 9.1040
 0.4240	 9.1340
 0.4250	 9.1560
 0.4260	 9.1840
 0.4270	 9.2240
 0.4280	 9.2650
 0.4290	 9.2980
 0.4300	 9.3230
 0.4310	 9.3610
 0.4320	 9.3720
 0.4330	 9.3780
 0.4340	 9.4060
 0.4350	 9.4350
 0.4360	 9.4500
 0.4370	 9.4620
 0.4380	 9.5010
 0.4390	 9.5240
 0.4400	 9.5510
 0.4410	 9.5890
 0.4420	 9.5970
 0.4430	 9.6170
 0.4440	 9.6420
 0.4450	 9.6520
 0.4460	 9.6730
 0.4470	 9.7000
 0.4480	 9.7220
 0.4490	 9.7260
 0.4500	 9.7520
 0.4510	 9.7830
 0.4520	 9.7950
 0.4530	 9.8080
 0.4540	 9.8250
 0.4550	 9.8420
 0.4560	 9.8520
 0.4570	 9.8710
 0.4580	 9.8810
 0.4590	 9.8770
 0.4600	 9.8970
 0.4610	 9.9030
 0.4620	 9.8980
 0.4630	 9.8970
 0.4640	 9.9100
 0.4650	 9.9230
 0.4660	 9.9290
 0.4670	 9.9350
 0.4680	 9.9410
 0.4690	 9.9420
 0.4700	 9.9410
 0.4710	 9.9430
 0.4720	 9.9440
 0.4730	 9.9450
 0.4740	 9.9490
 0.4750	 9.9530
 0.4760	 9.9560
 0.4770	 9.9560
 0.4780	 9.9470
 0.4790	 9.9550
 0.4800	 9.9670
 0.4810	 9.9660
 0.4820	 9.9810
 0.4830	 9.9980
 0.4840	10.0090
 0.4850	10.0130
 0.4860	10.0220
 0.4870	10.0380
 0.4880	10.0570
 0.4890	10.0770
 0.4900	10.0920
 0.4910	10.1100
 0.4920	10.1430
 0.4930	10.1740
 0.4940	10.2080
 0.4950	10.2470
 0.4960	10.2870
 0.4970	10.3320
 0.4980	10.3800
 0.4990	10.4280
 0.5000	10.4840
 0.5010	10.5460
 0.5020	10.6160
 0.5030	10.6940
 0.5040	10.7790
 0.5050	10.8730
 0.5060	10.9800
 0.5070	11.0940
 0.5080	11.2200
 0.5090	11.3610
 0.5100	11.5170
 0.5110	11.6880
 0.5120	11.8670
 0.5130	12.0570
 0.5140	12.2680
 0.5150	12.4930
 0.5160	12.7360
 0.5170	12.9980
 0.5180	13.2680
 0.5190	13.5540
 0.5200	13.8540
 0.5210	14.1510
 0.5220	14.4480
 0.5230	14.7470
 0.5240	15.0450
 0.5250	15.3440
 0.5260	15.6340
 0.5270	15.9110
 0.5280	16.1700
 0.5290	16.4110
 0.5300	16.6410
 0.5310	16.8600
 0.5320	17.0590
 0.5330	17.2440
 0.5340	17.4120
 0.5350	17.5590
 0.5360	17.6920
 0.5370	17.8160
 0.5380	17.9270
 0.5390	18.0230
 0.5400	18.1110
 0.5410	18.1920
 0.5420	18.2680
 0.5430	18.3390
 0.5440	18.4100
 0.5450	18.4750
 0.5460	18.5290
 0.5470	18.5860
 0.5480	18.6350
 0.5490	18.6730
 0.5500	18.7040
 0.5510	18.7250
 0.5520	18.7360
 0.5530	18.7330
 0.5540	18.7070
 0.5550	18.6660
 0.5560	18.6090
 0.5570	18.5370
 0.5580	18.4550
 0.5590	18.3560
 0.5600	18.2370
 0.5610	18.1090
 0.5620	17.9640
 0.5630	17.8020
 0.5640	17.6260
 0.5650	17.4430
 0.5660	17.2530
 0.5670	17.0580
 0.5680	16.8640
 0.5690	16.6690
 0.5700	16.4760
 0.5710	16.2860
 0.5720	16.1050
 0.5730	15.9290
 0.5740	15.7630
 0.5750	15.6150
 0.5760	15.4750
 0.5770	15.3480
 0.5780	15.2340
 0.5790	15.1270
 0.5800	15.0210
 0.5810	14.9200
 0.5820	14.8260
 0.5830	14.7300
 0.5840	14.6370
 0.5850	14.5500
 0.5860	14.4670
 0.5870	14.3840
 0.5880	14.3040
 0.5890	14.2290
 0.5900	14.1660
 0.5910	14.1100
 0.5920	14.0610
 0.5930	14.0200
 0.5940	13.9850
 0.5950	13.9510
 0.5960	13.9180
 0.5970	13.8810
 0.5980	13.8440
 0.5990	13.8060
 0.6000	13.7650
 0.6010	13.7200
 0.6020	13.6700
 0.6030	13.6170
 0.6040	13.5580
 0.6050	13.4930
 0.6060	13.4240
 0.6070	13.3490
 0.6080	13.2710
 0.6090	13.1840
 0.6100	13.0900
 0.6110	12.9960
 0.6120	12.9170
 0.6130	12.8430
 0.6140	12.7690
 0.6150	12.6960
 0.6160	12.6250
 0.6170	12.5580
 0.6180	12.4940
 0.6190	12.4310
 0.6200	12.3750
 0.6210	12.3280
 0.6220	12.2900
 0.6230	12.2540
 0.6240	12.2210
 0.6250	12.1940
 0.6260	12.1710
 0.6270	12.1540
 0.6280	12.1410
 0.6290	12.1260
 0.6300	12.1090
 0.6310	12.0930
 0.6320	12.0770
 0.6330	12.0540
 0.6340	12.0250
 0.6350	11.9870
 0.6360	11.9370
 0.6370	11.8770
 0.6380	11.8080
 0.6390	11.7300
 0.6400	11.6490
 0.6410	11.5610
 0.6420	11.4720
 0.6430	11.3850
 0.6440	11.2930
 0.6450	11.2020
 0.6460	11.1180
 0.6470	11.0440
 0.6480	10.9760
 0.6490	10.9160
 0.6500	10.8640
 0.6510	10.8190
 0.6520	10.7800
 0.6530	10.7440
 0.6540	10.7070
 0.6550	10.6670
 0.6560	10.6290
 0.6570	10.5900
 0.6580	10.5460
 0.6590	10.4970
 0.6600	10.4450
 0.6610	10.3930
 0.6620	10.3460
 0.6630	10.3000
 0.6640	10.2580
 0.6650	10.2220
 0.6660	10.1900
 0.6670	10.1640
 0.6680	10.1460
 0.6690	10.1330
 0.6700	10.1270
 0.6710	10.1280
 0.6720	10.1330
 0.6730	10.1360
 0.6740	10.1460
 0.6750	10.1620
 0.6760	10.1830
 0.6770	10.2110
 0.6780	10.2420
 0.6790	10.2730
 0.6800	10.3110
 0.6810	10.3560
 0.6820	10.4110
 0.6830	10.4760
 0.6840	10.5500
 0.6850	10.6410
 0.6860	10.7520
 0.6870	10.8870
 0.6880	11.0550
 0.6890	11.2660
 0.6900	11.5260
 0.6910	11.8430
 0.6920	12.2290
 0.6930	12.6870
 0.6940	13.2230
 0.6950	13.8400
 0.6960	14.5440
 0.6970	15.3300
 0.6980	16.1880
 0.6990	17.1190
 0.7000	18.1110
 0.7010	19.1540
 0.7020	20.2360
 0.7030	21.3420
 0.7040	22.4670
 0.7050	23.6040
 0.7060	24.7440
 0.7070	25.8810
 0.7080	27.0120
 0.7090	28.1340
 0.7100	29.2470
 0.7110	30.3500
 0.7120	31.4410
 0.7130	32.5160
 0.7140	33.5750
 0.7150	34.6180
 0.7160	35.6410
 0.7170	36.6470
 0.7180	37.6290
 0.7190	38.5900
 0.7200	39.5360
 0.7210	40.4530
 0.7220	41.3440
 0.7230	42.2110
 0.7240	43.0550
 0.7250	43.8700
 0.7260	44.6550
 0.7270	45.4120
 0.7280	46.1380
 0.7290	46.8290
 0.7300	47.4900
 0.7310	48.1230
 0.7320	48.7270
 0.7330	49.3020
 0.7340	49.8480
 0.7350	50.3670
 0.7360	50.8580
 0.7370	51.3200
 0.7380	51.7560
 0.7390	52.1650
 0.7400	52.5590
 0.7410	52.9310
 0.7420	53.2700
 0.7430	53.5880
 0.7440	53.8860
 0.7450	54.1640
 0.7460	54.4190
 0.7470	54.6530
 0.7480	54.8700
 0.7490	55.0740
 0.7500	55.2610
 0.7510	55.4300
 0.7520	55.5820
 0.7530	55.7200
 0.7540	55.8480
 0.7550	55.9610
 0.7560	56.0640
 0.7570	56.1670
 0.7580	56.2530
 0.7590	56.3300
 0.7600	56.4010
 0.7610	56.4640
 0.7620	56.5240
 0.7630	56.5780
 0.7640	56.6220
 0.7650	56.6650
 0.7660	56.7040
 0.7670	56.7370
 0.7680	56.7630
 0.7690	56.7920
 0.7700	56.8190
 0.7710	56.8420
 0.7720	56.8560
 0.7730	56.8750
 0.7740	56.8940
 0.7750	56.9060
 0.7760	56.9200
 0.7770	56.9360
 0.7780	56.9530
 0.7790	56.9680
 0.7800	56.9810
 0.7810	56.9920
 0.7820	57.0030
 0.7830	57.0130
 0.7840	57.0190
 0.7850	57.0290
 0.7860	57.0450
 0.7870	57.0490
 0.7880	57.0540
 0.7890	57.0620
 0.7900	57.0720
 0.7910	57.0750
 0.7920	57.0820
 0.7930	57.0910
 0.7940	57.0980
 0.7950	57.0990
 0.7960	57.1010
 0.7970	57.1060
 0.7980	57.1050
 0.7990	57.1060
 0.8000	57.1040
 0.8010	57.0970
 0.8020	57.0990
 0.8030	57.0980
 0.8040	57.0940
 0.8050	57.0910
 0.8060	57.0870
 0.8070	57.0800
 0.8080	57.0730
 0.8090	57.0710
 0.8100	57.0630
 0.8110	57.0510
 0.8120	57.0430
 0.8130	57.0390
 0.8140	57.0300
 0.8150	57.0180
 0.8160	57.0070
 0.8170	56.9950
 0.8180	56.9840
 0.8190	56.9730
 0.8200	56.9600
 0.8210	56.9530
 0.8220	56.9450
 0.8230	56.9330
 0.8240	56.9180
 0.8250	56.9010
 0.8260	56.8870
 0.8270	56.8740
 0.8280	56.8560
 0.8290	56.8410
 0.8300	56.8300
 0.8310	56.8210
 0.8320	56.8110
 0.8330	56.7970
 0.8340	56.7790
 0.8350	56.7610
 0.8360	56.7540
 0.8370	56.7500
 0.8380	56.7450
 0.8390	56.7360
 0.8400	56.7290
 0.8410	56.7240
 0.8420	56.7210
 0.8430	56.7230
 0.8440	56.7240
 0.8450	56.7200
 0.8460	56.7120
 0.8470	56.7060
 0.8480	56.7050
 0.8490	56.7030
 0.8500	56.6990
 0.8510	56.7030
 0.8520	56.6980
 0.8530	56.6910
 0.8540	56.6990
 0.8550	56.6970
 0.8560	56.6960
 0.8570	56.6970
 0.8580	56.6930
 0.8590	56.6860
 0.8600	56.6900
 0.8610	56.7040
 0.8620	56.6970
 0.8630	56.6960
 0.8640	56.6990
 0.8650	56.7010
 0.8660	56.7110
 0.8670	56.7110
 0.8680	56.7070
 0.8690	56.7070
 0.8700	56.7030
 0.8710	56.7030
 0.8720	56.7090
 0.8730	56.7140
 0.8740	56.7140
 0.8750	56.7160
 0.8760	56.7200
 0.8770	56.7230
 0.8780	56.7280
 0.8790	56.7320
 0.8800	56.7370
 0.8810	56.7440
 0.8820	56.7500
 0.8830	56.7540
 0.8840	56.7560
 0.8850	56.7500
 0.8860	56.7510
 0.8870	56.7620
 0.8880	56.7750
 0.8890	56.7630
 0.8900	56.7640
 0.8910	56.7760
 0.8920	56.7810
 0.8930	56.7860
 0.8940	56.7880
 0.8950	56.7880
 0.8960	56.7860
 0.8970	56.7930
 0.8980	56.7980
 0.8990	56.7950
 0.9000	56.7920
 0.9010	56.8020
 0.9020	56.8090
 0.9030	56.8080
 0.9040	56.8160
 0.9050	56.8150
 0.9060	56.8080
 0.9070	56.8040
 0.9080	56.8150
 0.9090	56.8150
 0.9100	56.8120
 0.9110	56.8170
 0.9120	56.8170
 0.9130	56.8090
 0.9140	56.8080
 0.9150	56.8240
 0.9160	56.8150
 0.9170	56.8080
 0.9180	56.8070
 0.9190	56.8040
 0.9200	56.7980
 0.9210	56.7910
 0.9220	56.7820
 0.9230	56.7700
 0.9240	56.7630
 0.9250	56.7440
 0.9260	56.7190
 0.9270	56.7090
 0.9280	56.6860
 0.9290	56.6670
 0.9300	56.6530
 0.9310	56.6250
 0.9320	56.6000
 0.9330	56.5770
 0.9340	56.5490
 0.9350	56.5140
 0.9360	56.4870
 0.9370	56.4570
 0.9380	56.4200
 0.9390	56.3870
 0.9400	56.3440
 0.9410	56.3040
 0.9420	56.2710
 0.9430	56.2240
 0.9440	56.1810
 0.9450	56.1320
 0.9460	56.0740
 0.9470	56.0160
 0.9480	55.9500
 0.9490	55.8790
 0.9500	55.8070
 0.9510	55.7380
 0.9520	55.6470
 0.9530	55.5540
 0.9540	55.4780
 0.9550	55.4000
 0.9560	55.3170
 0.9570	55.2310
 0.9580	55.1550
 0.9590	55.1060
 0.9600	55.0600
 0.9610	55.0030
 0.9620	54.9390
 0.9630	54.9070
 0.9640	54.8750
 0.9650	54.8450
 0.9660	54.8250
 0.9670	54.7960
 0.9680	54.7780
 0.9690	54.7750
 0.9700	54.7750
 0.9710	54.7550
 0.9720	54.7490
 0.9730	54.7460
 0.9740	54.7280
 0.9750	54.7390
 0.9760	54.7510
 0.9770	54.7530
 0.9780	54.7450
 0.9790	54.7550
 0.9800	54.7520
 0.9810	54.7550
 0.9820	54.7930
 0.9830	54.8120
 0.9840	54.8260
 0.9850	54.8400
 0.9860	54.8550
 0.9870	54.8700
 0.9880	54.8830
 0.9890	54.9070
 0.9900	54.9500
 0.9910	54.9740
 0.9920	55.0780
 0.9930	55.1820
 0.9940	55.2860
 0.9950	55.3900
 0.9960	55.4940
 0.9970	55.5980
 0.9980	55.7020
 0.9990	55.8060
 1.0000	55.9100
 1.0010	56.0150
 1.0020	56.1190
 1.0030	56.2230
 1.0040	56.3270
 1.0050	56.4310
 1.0060	56.5350
 1.0070	56.6390
 1.0080	56.7430
 1.0090	56.8470
 1.0100	56.8470
 1.0110	56.8620
 1.0120	56.8810
 1.0130	56.9010
 1.0140	56.9240
 1.0150	56.9520
 1.0160	56.9710
 1.0170	56.9970
 1.0180	57.0200
 1.0190	57.0390
 1.0200	57.0620
 1.0210	57.0800
 1.0220	57.1000
 1.0230	57.1210
 1.0240	57.1450
 1.0250	57.1660
 1.0260	57.1880
 1.0270	57.2090
 1.0280	57.2280
 1.0290	57.2460
 1.0300	57.2630
 1.0310	57.2820
 1.0320	57.3010
 1.0330	57.3230
 1.0340	57.3400
 1.0350	57.3550
 1.0360	57.3680
 1.0370	57.3770
 1.0380	57.3950
 1.0390	57.4180
 1.0400	57.4400
 1.0410	57.4670
 1.0420	57.4870
 1.0430	57.5040
 1.0440	57.5190
 1.0450	57.5280
 1.0460	57.5390
 1.0470	57.5490
 1.0480	57.5610
 1.0490	57.5790
 1.0500	57.5920
 1.0510	57.6070
 1.0520	57.6180
 1.0530	57.6250
 1.0540	57.6250
 1.0550	57.6300
 1.0560	57.6340
 1.0570	57.6410
 1.0580	57.6550
 1.0590	57.6610
 1.0600	57.6630
 1.0610	57.6660
 1.0620	57.6640
 1.0630	57.6650
 1.0640	57.6690
 1.0650	57.6690
 1.0660	57.6660
 1.0670	57.6640
 1.0680	57.6620
 1.0690	57.6570
 1.0700	57.6530
 1.0710	57.6500
 1.0720	57.6430
 1.0730	57.6330
 1.0740	57.6260
 1.0750	57.6170
 1.0760	57.6090
 1.0770	57.6000
 1.0780	57.5930
 1.0790	57.5890
 1.0800	57.5810
 1.0810	57.5740
 1.0820	57.5660
 1.0830	57.5570
 1.0840	57.5440
 1.0850	57.5280
 1.0860	57.5130
 1.0870	57.4990
 1.0880	57.4810
 1.0890	57.4660
 1.0900	57.4540
 1.0910	57.4380
 1.0920	57.4190
 1.0930	57.4030
 1.0940	57.3880
 1.0950	57.3710
 1.0960	57.3560
 1.0970	57.3370
 1.0980	57.3130
 1.0990	57.2940
 1.1000	57.2760
 1.1010	57.2570
 1.1020	57.2400
 1.1030	57.2210
 1.1040	57.1970
 1.1050	57.1770
 1.1060	57.1570
 1.1070	57.1390
 1.1080	57.1180
 1.1090	57.0990
 1.1100	57.0760
 1.1110	57.0500
 1.1120	57.0240
 1.1130	56.9940
 1.1140	56.9670
 1.1150	56.9400
 1.1160	56.9110
 1.1170	56.8830
 1.1180	56.8510
 1.1190	56.8160
 1.1200	56.7790
 1.1210	56.7390
 1.1220	56.6960
 1.1230	56.6460
 1.1240	56.5910
 1.1250	56.5300
 1.1260	56.4640
 1.1270	56.3890
 1.1280	56.3100
 1.1290	56.2180
 1.1300	56.1180
 1.1310	56.0070
 1.1320	55.8830
 1.1330	55.7540
 1.1340	55.6190
 1.1350	55.4730
 1.1360	55.3170
 1.1370	55.1530
 1.1380	54.9810
 1.1390	54.8000
 1.1400	54.6140
 1.1410	54.4300
 1.1420	54.2420
 1.1430	54.0520
 1.1440	53.8680
 1.1450	53.6820
 1.1460	53.5070
 1.1470	53.3360
 1.1480	53.1770
 1.1490	53.0250
 1.1500	52.8860
 1.1510	52.7560
 1.1520	52.6380
 1.1530	52.5310
 1.1540	52.4350
 1.1550	52.3500
 1.1560	52.2750
 1.1570	52.2120
 1.1580	52.1590
 1.1590	52.1120
 1.1600	52.0720
 1.1610	52.0390
 1.1620	52.0120
 1.1630	51.9920
 1.1640	51.9750
 1.1650	51.9610
 1.1660	51.9490
 1.1670	51.9400
 1.1680	51.9350
 1.1690	51.9270
 1.1700	51.9190
 1.1710	51.9120
 1.1720	51.9030
 1.1730	51.8960
 1.1740	51.8900
 1.1750	51.8840
 1.1760	51.8770
 1.1770	51.8690
 1.1780	51.8560
 1.1790	51.8400
 1.1800	51.8260
 1.1810	51.8080
 1.1820	51.7900
 1.1830	51.7750
 1.1840	51.7590
 1.1850	51.7430
 1.1860	51.7290
 1.1870	51.7180
 1.1880	51.7070
 1.1890	51.6930
 1.1900	51.6850
 1.1910	51.6800
 1.1920	51.6770
 1.1930	51.6770
 1.1940	51.6790
 1.1950	51.6820
 1.1960	51.6880
 1.1970	51.6950
 1.1980	51.7050
 1.1990	51.7160
 1.2000	51.7280
 1.2010	51.7430
 1.2020	51.7590
 1.2030	51.7760
 1.2040	51.7960
 1.2050	51.8180
 1.2060	51.8420
 1.2070	51.8660
 1.2080	51.8880
 1.2090	51.9120
 1.2100	51.9370
 1.2110	51.9640
 1.2120	51.9960
 1.2130	52.0260
 1.2140	52.0550
 1.2150	52.0880
 1.2160	52.1240
 1.2170	52.1600
 1.2180	52.1970
 1.2190	52.2350
 1.2200	52.2710
 1.2210	52.3080
 1.2220	52.3470
 1.2230	52.3830
 1.2240	52.4160
 1.2250	52.4510
 1.2260	52.4860
 1.2270	52.5220
 1.2280	52.5580
 1.2290	52.5890
 1.2300	52.6190
 1.2310	52.6460
 1.2320	52.6740
 1.2330	52.7030
 1.2340	52.7290
 1.2350	52.7540
 1.2360	52.7780
 1.2370	52.8000
 1.2380	52.8190
 1.2390	52.8380
 1.2400	52.8570
 1.2410	52.8740
 1.2420	52.8910
 1.2430	52.9070
 1.2440	52.9250
 1.2450	52.9400
 1.2460	52.9550
 1.2470	52.9720
 1.2480	52.9870
 1.2490	53.0000
 1.2500	53.0140
 1.2510	53.0240
 1.2520	53.0340
 1.2530	53.0450
 1.2540	53.0530
 1.2550	53.0580
 1.2560	53.0590
 1.2570	53.0600
 1.2580	53.0610
 1.2590	53.0600
 1.2600	53.0620
 1.2610	53.0620
 1.2620	53.0590
 1.2630	53.0570
 1.2640	53.0550
 1.2650	53.0510
 1.2660	53.0460
 1.2670	53.0390
 1.2680	53.0290
 1.2690	53.0170
 1.2700	53.0050
 1.2710	52.9940
 1.2720	52.9830
 1.2730	52.9720
 1.2740	52.9580
 1.2750	52.9410
 1.2760	52.9230
 1.2770	52.9060
 1.2780	52.8870
 1.2790	52.8660
 1.2800	52.8440
 1.2810	52.8210
 1.2820	52.7930
 1.2830	52.7680
 1.2840	52.7390
 1.2850	52.7050
 1.2860	52.6720
 1.2870	52.6350
 1.2880	52.5950
 1.2890	52.5530
 1.2900	52.5100
 1.2910	52.4620
 1.2920	52.4110
 1.2930	52.3570
 1.2940	52.3000
 1.2950	52.2410
 1.2960	52.1770
 1.2970	52.1070
 1.2980	52.0340
 1.2990	51.9580
 1.3000	51.8800
 1.3010	51.7990
 1.3020	51.7160
 1.3030	51.6320
 1.3040	51.5410
 1.3050	51.4460
 1.3060	51.3500
 1.3070	51.2480
 1.3080	51.1410
 1.3090	51.0360
 1.3100	50.9260
 1.3110	50.8100
 1.3120	50.6930
 1.3130	50.5720
 1.3140	50.4480
 1.3150	50.3210
 1.3160	50.1900
 1.3170	50.0570
 1.3180	49.9220
 1.3190	49.7840
 1.3200	49.6390
 1.3210	49.4930
 1.3220	49.3430
 1.3230	49.1870
 1.3240	49.0320
 1.3250	48.8750
 1.3260	48.7130
 1.3270	48.5520
 1.3280	48.3900
 1.3290	48.2210
 1.3300	48.0520
 1.3310	47.8810
 1.3320	47.7070
 1.3330	47.5370
 1.3340	47.3680
 1.3350	47.1970
 1.3360	47.0270
 1.3370	46.8530
 1.3380	46.6790
 1.3390	46.5080
 1.3400	46.3370
 1.3410	46.1680
 1.3420	46.0030
 1.3430	45.8360
 1.3440	45.6690
 1.3450	45.5040
 1.3460	45.3370
 1.3470	45.1750
 1.3480	45.0130
 1.3490	44.8530
 1.3500	44.6950
 1.3510	44.5390
 1.3520	44.3810
 1.3530	44.2220
 1.3540	44.0630
 1.3550	43.9020
 1.3560	43.7390
 1.3570	43.5760
 1.3580	43.4110
 1.3590	43.2410
 1.3600	43.0670
 1.3610	42.8890
 1.3620	42.7010
 1.3630	42.5090
 1.3640	42.3080
 1.3650	42.0950
 1.3660	41.8740
 1.3670	41.6410
 1.3680	41.3940
 1.3690	41.1340
 1.3700	40.8550
 1.3710	40.5600
 1.3720	40.2470
 1.3730	39.9130
 1.3740	39.5640
 1.3750	39.1920
 1.3760	38.7950
 1.3770	38.3750
 1.3780	37.9270
 1.3790	37.4540
 1.3800	36.9590
 1.3810	36.4370
 1.3820	35.8990
 1.3830	35.3410
 1.3840	34.7660
 1.3850	34.1710
 1.3860	33.5690
 1.3870	32.9460
 1.3880	32.3270
 1.3890	31.6990
 1.3900	31.0680
 1.3910	30.4430
 1.3920	29.8180
 1.3930	29.1960
 1.3940	28.5850
 1.3950	27.9760
 1.3960	27.3830
 1.3970	26.8090
 1.3980	26.2510
 1.3990	25.7210
 1.4000	25.2110
 1.4010	24.7210
 1.4020	24.2570
 1.4030	23.8150
 1.4040	23.3990
 1.4050	23.0110
 1.4060	22.6460
 1.4070	22.3090
 1.4080	21.9950
 1.4090	21.7020
 1.4100	21.4350
 1.4110	21.1880
 1.4120	20.9610
 1.4130	20.7560
 1.4140	20.5700
 1.4150	20.4030
 1.4160	20.2530
 1.4170	20.1160
 1.4180	19.9940
 1.4190	19.8850
 1.4200	19.7870
 1.4210	19.7000
 1.4220	19.6230
 1.4230	19.5560
 1.4240	19.4980
 1.4250	19.4480
 1.4260	19.4090
 1.4270	19.3740
 1.4280	19.3470
 1.4290	19.3240
 1.4300	19.3070
 1.4310	19.2950
 1.4320	19.2890
 1.4330	19.2870
 1.4340	19.2900
 1.4350	19.2960
 1.4360	19.3050
 1.4370	19.3170
 1.4380	19.3330
 1.4390	19.3510
 1.4400	19.3720
 1.4410	19.3950
 1.4420	19.4180
 1.4430	19.4450
 1.4440	19.4730
 1.4450	19.5010
 1.4460	19.5310
 1.4470	19.5620
 1.4480	19.5930
 1.4490	19.6260
 1.4500	19.6610
 1.4510	19.6950
 1.4520	19.7300
 1.4530	19.7660
 1.4540	19.8030
 1.4550	19.8440
 1.4560	19.8860
 1.4570	19.9320
 1.4580	19.9810
 1.4590	20.0310
 1.4600	20.0880
 1.4610	20.1490
 1.4620	20.2140
 1.4630	20.2850
 1.4640	20.3600
 1.4650	20.4390
 1.4660	20.5240
 1.4670	20.6140
 1.4680	20.7110
 1.4690	20.8120
 1.4700	20.9170
 1.4710	21.0270
 1.4720	21.1390
 1.4730	21.2540
 1.4740	21.3750
 1.4750	21.4980
 1.4760	21.6250
 1.4770	21.7550
 1.4780	21.8850
 1.4790	22.0170
 1.4800	22.1490
 1.4810	22.2840
 1.4820	22.4210
 1.4830	22.5600
 1.4840	22.7010
 1.4850	22.8440
 1.4860	22.9840
 1.4870	23.1270
 1.4880	23.2710
 1.4890	23.4140
 1.4900	23.5590
 1.4910	23.7040
 1.4920	23.8510
 1.4930	23.9990
 1.4940	24.1460
 1.4950	24.2960
 1.4960	24.4440
 1.4970	24.5900
 1.4980	24.7390
 1.4990	24.8880
 1.5000	25.0380
 1.5010	25.1890
 1.5020	25.3380
 1.5030	25.4860
 1.5040	25.6340
 1.5050	25.7800
 1.5060	25.9270
 1.5070	26.0760
 1.5080	26.2230
 1.5090	26.3690
 1.5100	26.5160
 1.5110	26.6620
 1.5120	26.8090
 1.5130	26.9530
 1.5140	27.0970
 1.5150	27.2400
 1.5160	27.3820
 1.5170	27.5260
 1.5180	27.6680
 1.5190	27.8100
 1.5200	27.9500
 1.5210	28.0880
 1.5220	28.2260
 1.5230	28.3630
 1.5240	28.4980
 1.5250	28.6340
 1.5260	28.7680
 1.5270	28.9030
 1.5280	29.0370
 1.5290	29.1700
 1.5300	29.3020
 1.5310	29.4320
 1.5320	29.5600
 1.5330	29.6880
 1.5340	29.8140
 1.5350	29.9400
 1.5360	30.0680
 1.5370	30.1930
 1.5380	30.3170
 1.5390	30.4410
 1.5400	30.5620
 1.5410	30.6810
 1.5420	30.8000
 1.5430	30.9180
 1.5440	31.0350
 1.5450	31.1510
 1.5460	31.2690
 1.5470	31.3860
 1.5480	31.4980
 1.5490	31.6110
 1.5500	31.7230
 1.5510	31.8340
 1.5520	31.9460
 1.5530	32.0540
 1.5540	32.1600
 1.5550	32.2640
 1.5560	32.3670
 1.5570	32.4710
 1.5580	32.5730
 1.5590	32.6760
 1.5600	32.7780
 1.5610	32.8760
 1.5620	32.9750
 1.5630	33.0730
 1.5640	33.1680
 1.5650	33.2640
 1.5660	33.3600
 1.5670	33.4530
 1.5680	33.5460
 1.5690	33.6380
 1.5700	33.7260
 1.5710	33.8150
 1.5720	33.9020
 1.5730	33.9880
 1.5740	34.0760
 1.5750	34.1630
 1.5760	34.2510
 1.5770	34.3360
 1.5780	34.4200
 1.5790	34.5030
 1.5800	34.5840
 1.5810	34.6660
 1.5820	34.7480
 1.5830	34.8300
 1.5840	34.9110
 1.5850	34.9890
 1.5860	35.0660
 1.5870	35.1430
 1.5880	35.2190
 1.5890	35.2940
 1.5900	35.3710
 1.5910	35.4440
 1.5920	35.5160
 1.5930	35.5880
 1.5940	35.6580
 1.5950	35.7300
 1.5960	35.8010
 1.5970	35.8700
 1.5980	35.9400
 1.5990	36.0070
 1.6000	36.0710
 1.6010	36.1360
 1.6020	36.1990
 1.6030	36.2620
 1.6040	36.3240
 1.6050	36.3840
 1.6060	36.4430
 1.6070	36.5010
 1.6080	36.5590
 1.6090	36.6160
 1.6100	36.6720
 1.6110	36.7290
 1.6120	36.7830
 1.6130	36.8370
 1.6140	36.8860
 1.6150	36.9320
 1.6160	36.9780
 1.6170	37.0200
 1.6180	37.0600
 1.6190	37.1000
 1.6200	37.1370
 1.6210	37.1720
 1.6220	37.2060
 1.6230	37.2350
 1.6240	37.2610
 1.6250	37.2850
 1.6260	37.3050
 1.6270	37.3230
 1.6280	37.3390
 1.6290	37.3590
 1.6300	37.3790
 1.6310	37.4020
 1.6320	37.4250
 1.6330	37.4530
 1.6340	37.4850
 1.6350	37.5200
 1.6360	37.5600
 1.6370	37.6010
 1.6380	37.6470
 1.6390	37.6900
 1.6400	37.7350
 1.6410	37.7770
 1.6420	37.8180
 1.6430	37.8580
 1.6440	37.8970
 1.6450	37.9320
 1.6460	37.9640
 1.6470	37.9930
 1.6480	38.0170
 1.6490	38.0400
 1.6500	38.0590
 1.6510	38.0750
 1.6520	38.0870
 1.6530	38.0940
 1.6540	38.1000
 1.6550	38.1000
 1.6560	38.0970
 1.6570	38.0950
 1.6580	38.0900
 1.6590	38.0810
 1.6600	38.0710
 1.6610	38.0580
 1.6620	38.0400
 1.6630	38.0230
 1.6640	38.0050
 1.6650	37.9840
 1.6660	37.9590
 1.6670	37.9330
 1.6680	37.9020
 1.6690	37.8690
 1.6700	37.8360
 1.6710	37.8030
 1.6720	37.7690
 1.6730	37.7340
 1.6740	37.6950
 1.6750	37.6520
 1.6760	37.6080
 1.6770	37.5650
 1.6780	37.5200
 1.6790	37.4750
 1.6800	37.4280
 1.6810	37.3790
 1.6820	37.3260
 1.6830	37.2720
 1.6840	37.2140
 1.6850	37.1540
 1.6860	37.0970
 1.6870	37.0400
 1.6880	36.9850
 1.6890	36.9300
 1.6900	36.8740
 1.6910	36.8170
 1.6920	36.7620
 1.6930	36.7080
 1.6940	36.6540
 1.6950	36.6020
 1.6960	36.5490
 1.6970	36.4950
 1.6980	36.4430
 1.6990	36.3890
 1.7000	36.3370
 1.7010	36.2880
 1.7020	36.2360
 1.7030	36.1840
 1.7040	36.1340
 1.7050	36.0840
 1.7060	36.0340
 1.7070	35.9860
 1.7080	35.9360
 1.7090	35.8820
 1.7100	35.8310
 1.7110	35.7810
 1.7120	35.7320
 1.7130	35.6820
 1.7140	35.6270
 1.7150	35.5730
 1.7160	35.5190
 1.7170	35.4630
 1.7180	35.4100
 1.7190	35.3580
 1.7200	35.3040
 1.7210	35.2490
 1.7220	35.1940
 1.7230	35.1380
 1.7240	35.0840
 1.7250	35.0310
 1.7260	34.9780
 1.7270	34.9260
 1.7280	34.8730
 1.7290	34.8210
 1.7300	34.7730
 1.7310	34.7250
 1.7320	34.6770
 1.7330	34.6290
 1.7340	34.5850
 1.7350	34.5370
 1.7360	34.4890
 1.7370	34.4380
 1.7380	34.3820
 1.7390	34.3250
 1.7400	34.2670
 1.7410	34.2040
 1.7420	34.1370
 1.7430	34.0670
 1.7440	33.9940
 1.7450	33.9180
 1.7460	33.8380
 1.7470	33.7580
 1.7480	33.6730
 1.7490	33.5920
 1.7500	33.5130
 1.7510	33.4320
 1.7520	33.3520
 1.7530	33.2720
 1.7540	33.1920
 1.7550	33.1140
 1.7560	33.0390
 1.7570	32.9640
 1.7580	32.8930
 1.7590	32.8240
 1.7600	32.7550
 1.7610	32.6900
 1.7620	32.6270
 1.7630	32.5650
 1.7640	32.5070
 1.7650	32.4540
 1.7660	32.4010
 1.7670	32.3500
 1.7680	32.2980
 1.7690	32.2440
 1.7700	32.1940
 1.7710	32.1470
 1.7720	32.1000
 1.7730	32.0580
 1.7740	32.0150
 1.7750	31.9720
 1.7760	31.9310
 1.7770	31.8930
 1.7780	31.8550
 1.7790	31.8190
 1.7800	31.7860
 1.7810	31.7560
 1.7820	31.7260
 1.7830	31.6990
 1.7840	31.6710
 1.7850	31.6430
 1.7860	31.6180
 1.7870	31.5950
 1.7880	31.5700
 1.7890	31.5470
 1.7900	31.5270
 1.7910	31.5080
 1.7920	31.4920
 1.7930	31.4770
 1.7940	31.4630
 1.7950	31.4510
 1.7960	31.4400
 1.7970	31.4310
 1.7980	31.4230
 1.7990	31.4140
 1.8000	31.4050
 1.8010	31.4000
 1.8020	31.3960
 1.8030	31.3920
 1.8040	31.3910
 1.8050	31.3880
 1.8060	31.3830
 1.8070	31.3790
 1.8080	31.3760
 1.8090	31.3720
 1.8100	31.3680
 1.8110	31.3620
 1.8120	31.3550
 1.8130	31.3460
 1.8140	31.3380
 1.8150	31.3330
 1.8160	31.3240
 1.8170	31.3150
 1.8180	31.3060
 1.8190	31.2920
 1.8200	31.2780
 1.8210	31.2630
 1.8220	31.2480
 1.8230	31.2350
 1.8240	31.2170
 1.8250	31.1980
 1.8260	31.1770
 1.8270	31.1150
 1.8280	31.0530
 1.8290	30.9920
 1.8300	30.9300
 1.8310	30.8680
 1.8320	30.8070
 1.8330	30.7450
 1.8340	30.6830
 1.8350	30.6830
 1.8360	30.6200
 1.8370	30.5470
 1.8380	30.4680
 1.8390	30.3850
 1.8400	30.2980
 1.8410	30.2010
 1.8420	30.0980
 1.8430	29.9870
 1.8440	29.8660
 1.8450	29.7430
 1.8460	29.6080
 1.8470	29.4630
 1.8480	29.3090
 1.8490	29.1350
 1.8500	28.9510
 1.8510	28.7560
 1.8520	28.5500
 1.8530	28.3280
 1.8540	28.1000
 1.8550	27.8580
 1.8560	27.5970
 1.8570	27.3250
 1.8580	27.0330
 1.8590	26.7290
 1.8600	26.4090
 1.8610	26.0790
 1.8620	25.7290
 1.8630	25.3650
 1.8640	24.9880
 1.8650	24.5900
 1.8660	24.1740
 1.8670	23.7420
 1.8680	23.2950
 1.8690	22.8310
 1.8700	22.3520
 1.8710	21.8580
 1.8720	21.3580
 1.8730	20.8480
 1.8740	20.3340
 1.8750	19.8230
 1.8760	19.3060
 1.8770	18.7930
 1.8780	18.2870
 1.8790	17.7860
 1.8800	17.3010
 1.8810	16.8310
 1.8820	16.3690
 1.8830	15.9140
 1.8840	15.4740
 1.8850	15.0430
 1.8860	14.6320
 1.8870	14.2400
 1.8880	13.8660
 1.8890	13.5160
 1.8900	13.1820
 1.8910	12.8710
 1.8920	12.5810
 1.8930	12.3160
 1.8940	12.0710
 1.8950	11.8510
 1.8960	11.6500
 1.8970	11.4670
 1.8980	11.3030
 1.8990	11.1520
 1.9000	11.0170
 1.9010	10.9010
 1.9020	10.7930
 1.9030	10.6990
 1.9040	10.6170
 1.9050	10.5440
 1.9060	10.4790
 1.9070	10.4230
 1.9080	10.3750
 1.9090	10.3320
 1.9100	10.2960
 1.9110	10.2650
 1.9120	10.2400
 1.9130	10.2170
 1.9140	10.1990
 1.9150	10.1820
 1.9160	10.1680
 1.9170	10.1570
 1.9180	10.1500
 1.9190	10.1440
 1.9200	10.1360
 1.9210	10.1330
 1.9220	10.1310
 1.9230	10.1310
 1.9240	10.1340
 1.9250	10.1410
 1.9260	10.1460
 1.9270	10.1510
 1.9280	10.1590
 1.9290	10.1650
 1.9300	10.1750
 1.9310	10.1880
 1.9320	10.2000
 1.9330	10.2140
 1.9340	10.2320
 1.9350	10.2480
 1.9360	10.2620
 1.9370	10.2800
 1.9380	10.2990
 1.9390	10.3170
 1.9400	10.3360
 1.9410	10.3590
 1.9420	10.3800
 1.9430	10.4030
 1.9440	10.4260
 1.9450	10.4500
 1.9460	10.4750
 1.9470	10.5030
 1.9480	10.5300
 1.9490	10.5570
 1.9500	10.5870
 1.9510	10.6170
 1.9520	10.6450
 1.9530	10.6760
 1.9540	10.7090
 1.9550	10.7430
 1.9560	10.7780
 1.9570	10.8130
 1.9580	10.8480
 1.9590	10.8840
 1.9600	10.9210
 1.9610	10.9590
 1.9620	10.9970
 1.9630	11.0380
 1.9640	11.0790
 1.9650	11.1200
 1.9660	11.1640
 1.9670	11.2080
 1.9680	11.2520
 1.9690	11.2970
 1.9700	11.3430
 1.9710	11.3890
 1.9720	11.4360
 1.9730	11.4820
 1.9740	11.5290
 1.9750	11.5780
 1.9760	11.6260
 1.9770	11.6780
 1.9780	11.7320
 1.9790	11.7860
 1.9800	11.8390
 1.9810	11.8950
 1.9820	11.9510
 1.9830	12.0070
 1.9840	12.0620
 1.9850	12.1200
 1.9860	12.1790
 1.9870	12.2390
 1.9880	12.3010
 1.9890	12.3640
 1.9900	12.4240
 1.9910	12.4850
 1.9920	12.5470
 1.9930	12.6090
 1.9940	12.6720
 1.9950	12.7370
 1.9960	12.8020
 1.9970	12.8690
 1.9980	12.9340
 1.9990	12.9980
 2.0000	13.0640
 2.0010	13.1310
 2.0020	13.1980
 2.0030	13.2650
 2.0040	13.3310
 2.0050	13.3980
 2.0060	13.4630
 2.0070	13.5300
 2.0080	13.6020
 2.0090	13.6690
 2.0100	13.7370
 2.0110	13.8020
 2.0120	13.8630
 2.0130	13.9260
 2.0140	13.9920
 2.0150	14.0570
 2.0160	14.1240
 2.0170	14.1890
 2.0180	14.2540
 2.0190	14.3180
 2.0200	14.3820
 2.0210	14.4460
 2.0220	14.5090
 2.0230	14.5710
 2.0240	14.6330
 2.0250	14.6950
 2.0260	14.7580
 2.0270	14.8220
 2.0280	14.8840
 2.0290	14.9460
 2.0300	15.0060
 2.0310	15.0650
 2.0320	15.1220
 2.0330	15.1790
 2.0340	15.2350
 2.0350	15.2900
 2.0360	15.3430
 2.0370	15.3970
 2.0380	15.4510
 2.0390	15.5050
 2.0400	15.5590
 2.0410	15.6130
 2.0420	15.6690
 2.0430	15.7220
 2.0440	15.7740
 2.0450	15.8250
 2.0460	15.8790
 2.0470	15.9330
 2.0480	15.9850
 2.0490	16.0370
 2.0500	16.0890
 2.0510	16.1390
 2.0520	16.1910
 2.0530	16.2450
 2.0540	16.2980
 2.0550	16.3500
 2.0560	16.4050
 2.0570	16.4600
 2.0580	16.5120
 2.0590	16.5660
 2.0600	16.6210
 2.0610	16.6760
 2.0620	16.7320
 2.0630	16.7860
 2.0640	16.8380
 2.0650	16.8900
 2.0660	16.9370
 2.0670	16.9900
 2.0680	17.0450
 2.0690	17.1000
 2.0700	17.1570
 2.0710	17.2120
 2.0720	17.2660
 2.0730	17.3180
 2.0740	17.3730
 2.0750	17.4290
 2.0760	17.4830
 2.0770	17.5400
 2.0780	17.5940
 2.0790	17.6470
 2.0800	17.7000
 2.0810	17.7540
 2.0820	17.8080
 2.0830	17.8620
 2.0840	17.9150
 2.0850	17.9680
 2.0860	18.0200
 2.0870	18.0700
 2.0880	18.1200
 2.0890	18.1710
 2.0900	18.2220
 2.0910	18.2730
 2.0920	18.3240
 2.0930	18.3740
 2.0940	18.4200
 2.0950	18.4700
 2.0960	18.5200
 2.0970	18.5700
 2.0980	18.6200
 2.0990	18.6700
 2.1000	18.7200
 2.1010	18.7680
 2.1020	18.8120
 2.1030	18.8590
 2.1040	18.9060
 2.1050	18.9510
 2.1060	18.9960
 2.1070	19.0430
 2.1080	19.0880
 2.1090	19.1300
 2.1100	19.1750
 2.1110	19.2220
 2.1120	19.2680
 2.1130	19.3130
 2.1140	19.3580
 2.1150	19.4040
 2.1160	19.4480
 2.1170	19.4920
 2.1180	19.5350
 2.1190	19.5780
 2.1200	19.6210
 2.1210	19.6650
 2.1220	19.7090
 2.1230	19.7490
 2.1240	19.7880
 2.1250	19.8270
 2.1260	19.8630
 2.1270	19.9010
 2.1280	19.9390
 2.1290	19.9760
 2.1300	20.0130
 2.1310	20.0490
 2.1320	20.0840
 2.1330	20.1190
 2.1340	20.1530
 2.1350	20.1860
 2.1360	20.2170
 2.1370	20.2480
 2.1380	20.2780
 2.1390	20.3060
 2.1400	20.3310
 2.1410	20.3580
 2.1420	20.3820
 2.1430	20.4020
 2.1440	20.4250
 2.1450	20.4490
 2.1460	20.4700
 2.1470	20.4900
 2.1480	20.5100
 2.1490	20.5280
 2.1500	20.5470
 2.1510	20.5650
 2.1520	20.5830
 2.1530	20.6010
 2.1540	20.6200
 2.1550	20.6410
 2.1560	20.6610
 2.1570	20.6820
 2.1580	20.6990
 2.1590	20.7120
 2.1600	20.7240
 2.1610	20.7390
 2.1620	20.7550
 2.1630	20.7700
 2.1640	20.7860
 2.1650	20.8020
 2.1660	20.8160
 2.1670	20.8300
 2.1680	20.8440
 2.1690	20.8590
 2.1700	20.8730
 2.1710	20.8860
 2.1720	20.8990
 2.1730	20.9120
 2.1740	20.9220
 2.1750	20.9360
 2.1760	20.9540
 2.1770	20.9710
 2.1780	20.9890
 2.1790	21.0050
 2.1800	21.0190
 2.1810	21.0330
 2.1820	21.0470
 2.1830	21.0570
 2.1840	21.0670
 2.1850	21.0760
 2.1860	21.0860
 2.1870	21.0960
 2.1880	21.1080
 2.1890	21.1210
 2.1900	21.1340
 2.1910	21.1500
 2.1920	21.1610
 2.1930	21.1700
 2.1940	21.1770
 2.1950	21.1780
 2.1960	21.1830
 2.1970	21.1920
 2.1980	21.1960
 2.1990	21.2010
 2.2000	21.2040
 2.2010	21.2000
 2.2020	21.1990
 2.2030	21.1990
 2.2040	21.1980
 2.2050	21.1940
 2.2060	21.1910
 2.2070	21.1870
 2.2080	21.1830
 2.2090	21.1750
 2.2100	21.1660
 2.2110	21.1550
 2.2120	21.1380
 2.2130	21.1280
 2.2140	21.1220
 2.2150	21.1130
 2.2160	21.1070
 2.2170	21.0960
 2.2180	21.0830
 2.2190	21.0670
 2.2200	21.0490
 2.2210	21.0310
 2.2220	21.0090
 2.2230	20.9880
 2.2240	20.9670
 2.2250	20.9450
 2.2260	20.9220
 2.2270	20.8980
 2.2280	20.8710
 2.2290	20.8450
 2.2300	20.8180
 2.2310	20.7910
 2.2320	20.7620
 2.2330	20.7330
 2.2340	20.7020
 2.2350	20.6700
 2.2360	20.6330
 2.2370	20.5940
 2.2380	20.5530
 2.2390	20.5060
 2.2400	20.4640
 2.2410	20.4250
 2.2420	20.3830
 2.2430	20.3420
 2.2440	20.2960
 2.2450	20.2500
 2.2460	20.1970
 2.2470	20.1360
 2.2480	20.0820
 2.2490	20.0250
 2.2500	19.9710
 2.2510	19.9240
 2.2520	19.8700
 2.2530	19.8120
 2.2540	19.7540
 2.2550	19.6920
 2.2560	19.6300
 2.2570	19.5700
 2.2580	19.5080
 2.2590	19.4430
 2.2600	19.3790
 2.2610	19.3160
 2.2620	19.2520
 2.2630	19.1870
 2.2640	19.1220
 2.2650	19.0550
 2.2660	18.9860
 2.2670	18.9220
 2.2680	18.8590
 2.2690	18.8000
 2.2700	18.7450
 2.2710	18.6890
 2.2720	18.6350
 2.2730	18.5820
 2.2740	18.5290
 2.2750	18.4780
 2.2760	18.4310
 2.2770	18.3820
 2.2780	18.3340
 2.2790	18.2840
 2.2800	18.2320
 2.2810	18.1830
 2.2820	18.1380
 2.2830	18.0870
 2.2840	18.0390
 2.2850	17.9860
 2.2860	17.9260
 2.2870	17.8680
 2.2880	17.8060
 2.2890	17.7480
 2.2900	17.6900
 2.2910	17.6300
 2.2920	17.5710
 2.2930	17.5110
 2.2940	17.4470
 2.2950	17.3840
 2.2960	17.3170
 2.2970	17.2550
 2.2980	17.1950
 2.2990	17.1360
 2.3000	17.0850
 2.3010	17.0360
 2.3020	16.9790
 2.3030	16.9290
 2.3040	16.8890
 2.3050	16.8510
 2.3060	16.8210
 2.3070	16.7960
 2.3080	16.7690
 2.3090	16.7490
 2.3100	16.7330
 2.3110	16.7150
 2.3120	16.7010
 2.3130	16.6860
 2.3140	16.6730
 2.3150	16.6660
 2.3160	16.6560
 2.3170	16.6470
 2.3180	16.6330
 2.3190	16.6180
 2.3200	16.5970
 2.3210	16.5670
 2.3220	16.5400
 2.3230	16.5120
 2.3240	16.4830
 2.3250	16.4560
 2.3260	16.4230
 2.3270	16.3880
 2.3280	16.3520
 2.3290	16.3140
 2.3300	16.2770
 2.3310	16.2380
 2.3320	16.1990
 2.3330	16.1610
 2.3340	16.1170
 2.3350	16.0680
 2.3360	16.0200
 2.3370	15.9610
 2.3380	15.9120
 2.3390	15.8690
 2.3400	15.8250
 2.3410	15.7850
 2.3420	15.7440
 2.3430	15.7000
 2.3440	15.6600
 2.3450	15.6220
 2.3460	15.5850
 2.3470	15.5500
 2.3480	15.5140
 2.3490	15.4760
 2.3500	15.4390
 2.3510	15.4010
 2.3520	15.3670
 2.3530	15.3340
 2.3540	15.3040
 2.3550	15.2830
 2.3560	15.2570
 2.3570	15.2230
 2.3580	15.1980
 2.3590	15.1720
 2.3600	15.1360
 2.3610	15.1100
 2.3620	15.0750
 2.3630	15.0280
 2.3640	14.9860
 2.3650	14.9470
 2.3660	14.9100
 2.3670	14.8840
 2.3680	14.8560
 2.3690	14.8170
 2.3700	14.7820
 2.3710	14.7390
 2.3720	14.6960
 2.3730	14.6620
 2.3740	14.6230
 2.3750	14.5800
 2.3760	14.5330
 2.3770	14.4880
 2.3780	14.4510
 2.3790	14.4150
 2.3800	14.3830
 2.3810	14.3530
 2.3820	14.3150
 2.3830	14.2780
 2.3840	14.2440
 2.3850	14.1990
 2.3860	14.1590
 2.3870	14.1320
 2.3880	14.0970
 2.3890	14.0590
 2.3900	14.0110
 2.3910	13.9530
 2.3920	13.9140
 2.3930	13.8770
 2.3940	13.8390
 2.3950	13.8050
 2.3960	13.7530
 2.3970	13.7040
 2.3980	13.6630
 2.3990	13.6160
 2.4000	13.5740
 2.4010	13.5400
 2.4020	13.4990
 2.4030	13.4650
 2.4040	13.4320
 2.4050	13.3980
 2.4060	13.3590
 2.4070	13.3110
 2.4080	13.2720
 2.4090	13.2250
 2.4100	13.1800
 2.4110	13.1420
 2.4120	13.0990
 2.4130	13.0700
 2.4140	13.0460
 2.4150	13.0260
 2.4160	12.9910
 2.4170	12.9400
 2.4180	12.8930
 2.4190	12.8540
 2.4200	12.8240
 2.4210	12.7920
 2.4220	12.7550
 2.4230	12.7170
 2.4240	12.6810
 2.4250	12.6350
 2.4260	12.5920
 2.4270	12.5390
 2.4280	12.4800
 2.4290	12.4450
 2.4300	12.4260
 2.4310	12.4100
 2.4320	12.3850
 2.4330	12.3540
 2.4340	12.3140
 2.4350	12.2850
 2.4360	12.2690
 2.4370	12.2480
 2.4380	12.2190
 2.4390	12.1790
 2.4400	12.1330
 2.4410	12.0950
 2.4420	12.0570
 2.4430	12.0140
 2.4440	11.9820
 2.4450	11.9390
 2.4460	11.9020
 2.4470	11.8730
 2.4480	11.8370
 2.4490	11.7950
 2.4500	11.7580
 2.4510	11.7230
 2.4520	11.6770
 2.4530	11.6540
 2.4540	11.6260
 2.4550	11.5890
 2.4560	11.5590
 2.4570	11.5200
 2.4580	11.4810
 2.4590	11.4390
 2.4600	11.4050
 2.4610	11.3770
 2.4620	11.3600
 2.4630	11.3420
 2.4640	11.3230
 2.4650	11.3130
 2.4660	11.2900
 2.4670	11.2820
 2.4680	11.2720
 2.4690	11.2210
 2.4700	11.1840
 2.4710	11.1510
 2.4720	11.1220
 2.4730	11.0960
 2.4740	11.0780
 2.4750	11.0650
 2.4760	11.0370
 2.4770	11.0110
 2.4780	10.9900
 2.4790	10.9690
 2.4800	10.9490
 2.4810	10.9420
 2.4820	10.9170
 2.4830	10.8760
 2.4840	10.8800
 2.4850	10.8680
 2.4860	10.8490
 2.4870	10.8510
 2.4880	10.8310
 2.4890	10.8240
 2.4900	10.8240
 2.4910	10.8140
 2.4920	10.7940
 2.4930	10.7570
 2.4940	10.7580
 2.4950	10.7200
 2.4960	10.6740
 2.4970	10.6940
 2.4980	10.6470
 2.4990	10.6330
 2.5000	10.6410
