Name: Umbellularia californica 3
Type: vegetation
Class: Shrub
Genus: Umbellularia
Species: californica
Sample No.: VH107
Owner: UCSB
Wavelength Range: VSWIR
Origin: 34.5075; -119.763; WGS84
Collection Date: 6/3/2013
Description: Samples were collected as part of the HyspIRI Airborne Campaign. 48 individual plants were sampled in three times in 2013 - spring  summer  and fall. The name of the sample includes a 1  2  or 3 which references a different individual of the species. Samples were taken to JPL and processed within 48 hours of collection. The same leaves were processed in the Nicolet and then measured using the ASD.
Measurement: Bidirectional reflectance
First Column: X
Second Column: Y
X Units: Wavelength (micrometers)
Y Units: Reflectance (percentage)
First X Value: 0.35
Last X Value: 2.5
Number of X Values: 2151
Additional Information: vegetation.shrub.umbellularia.californica.vswir.vh107.ucsb.asd.ancillary.txt

 0.3500	 5.2350
 0.3510	 4.9970
 0.3520	 4.9150
 0.3530	 4.9230
 0.3540	 4.9070
 0.3550	 5.0220
 0.3560	 4.9830
 0.3570	 4.8730
 0.3580	 4.9330
 0.3590	 4.9630
 0.3600	 4.9210
 0.3610	 4.8430
 0.3620	 4.8360
 0.3630	 4.8830
 0.3640	 4.9440
 0.3650	 4.9590
 0.3660	 4.8090
 0.3670	 4.7810
 0.3680	 4.8470
 0.3690	 4.7770
 0.3700	 4.7690
 0.3710	 4.7900
 0.3720	 4.7940
 0.3730	 4.7750
 0.3740	 4.7860
 0.3750	 4.8050
 0.3760	 4.7990
 0.3770	 4.7920
 0.3780	 4.8120
 0.3790	 4.8370
 0.3800	 4.8140
 0.3810	 4.7390
 0.3820	 4.7270
 0.3830	 4.8130
 0.3840	 4.8140
 0.3850	 4.8190
 0.3860	 4.8200
 0.3870	 4.7880
 0.3880	 4.7620
 0.3890	 4.7710
 0.3900	 4.7850
 0.3910	 4.7230
 0.3920	 4.7000
 0.3930	 4.6950
 0.3940	 4.6850
 0.3950	 4.7320
 0.3960	 4.7590
 0.3970	 4.7460
 0.3980	 4.7110
 0.3990	 4.7080
 0.4000	 4.7220
 0.4010	 4.7290
 0.4020	 4.7100
 0.4030	 4.7160
 0.4040	 4.7470
 0.4050	 4.7830
 0.4060	 4.7640
 0.4070	 4.7480
 0.4080	 4.7520
 0.4090	 4.7700
 0.4100	 4.7830
 0.4110	 4.7930
 0.4120	 4.7970
 0.4130	 4.7870
 0.4140	 4.7940
 0.4150	 4.8160
 0.4160	 4.8410
 0.4170	 4.8510
 0.4180	 4.8630
 0.4190	 4.8900
 0.4200	 4.9370
 0.4210	 4.9530
 0.4220	 4.9660
 0.4230	 5.0000
 0.4240	 5.0290
 0.4250	 5.0590
 0.4260	 5.0870
 0.4270	 5.1060
 0.4280	 5.1220
 0.4290	 5.1410
 0.4300	 5.1660
 0.4310	 5.2020
 0.4320	 5.2310
 0.4330	 5.2500
 0.4340	 5.2630
 0.4350	 5.2810
 0.4360	 5.2860
 0.4370	 5.2870
 0.4380	 5.3160
 0.4390	 5.3450
 0.4400	 5.3640
 0.4410	 5.3740
 0.4420	 5.3790
 0.4430	 5.3970
 0.4440	 5.4170
 0.4450	 5.4240
 0.4460	 5.4500
 0.4470	 5.4660
 0.4480	 5.4680
 0.4490	 5.4780
 0.4500	 5.5000
 0.4510	 5.5260
 0.4520	 5.5480
 0.4530	 5.5580
 0.4540	 5.5690
 0.4550	 5.5780
 0.4560	 5.5740
 0.4570	 5.5770
 0.4580	 5.5830
 0.4590	 5.5880
 0.4600	 5.5960
 0.4610	 5.6010
 0.4620	 5.6000
 0.4630	 5.5970
 0.4640	 5.6210
 0.4650	 5.6300
 0.4660	 5.6200
 0.4670	 5.6300
 0.4680	 5.6360
 0.4690	 5.6340
 0.4700	 5.6270
 0.4710	 5.6240
 0.4720	 5.6290
 0.4730	 5.6350
 0.4740	 5.6350
 0.4750	 5.6300
 0.4760	 5.6300
 0.4770	 5.6370
 0.4780	 5.6330
 0.4790	 5.6390
 0.4800	 5.6470
 0.4810	 5.6500
 0.4820	 5.6540
 0.4830	 5.6590
 0.4840	 5.6660
 0.4850	 5.6760
 0.4860	 5.6900
 0.4870	 5.7020
 0.4880	 5.7140
 0.4890	 5.7240
 0.4900	 5.7410
 0.4910	 5.7620
 0.4920	 5.7840
 0.4930	 5.8080
 0.4940	 5.8340
 0.4950	 5.8620
 0.4960	 5.8960
 0.4970	 5.9320
 0.4980	 5.9670
 0.4990	 6.0020
 0.5000	 6.0530
 0.5010	 6.1060
 0.5020	 6.1620
 0.5030	 6.2300
 0.5040	 6.3050
 0.5050	 6.3880
 0.5060	 6.4790
 0.5070	 6.5770
 0.5080	 6.6800
 0.5090	 6.7930
 0.5100	 6.9230
 0.5110	 7.0580
 0.5120	 7.2040
 0.5130	 7.3660
 0.5140	 7.5400
 0.5150	 7.7210
 0.5160	 7.9160
 0.5170	 8.1300
 0.5180	 8.3520
 0.5190	 8.5730
 0.5200	 8.7970
 0.5210	 9.0350
 0.5220	 9.2650
 0.5230	 9.4920
 0.5240	 9.7220
 0.5250	 9.9490
 0.5260	10.1670
 0.5270	10.3720
 0.5280	10.5650
 0.5290	10.7450
 0.5300	10.9150
 0.5310	11.0700
 0.5320	11.2080
 0.5330	11.3340
 0.5340	11.4500
 0.5350	11.5560
 0.5360	11.6530
 0.5370	11.7390
 0.5380	11.8160
 0.5390	11.8880
 0.5400	11.9530
 0.5410	12.0160
 0.5420	12.0760
 0.5430	12.1360
 0.5440	12.1920
 0.5450	12.2420
 0.5460	12.2820
 0.5470	12.3160
 0.5480	12.3470
 0.5490	12.3760
 0.5500	12.4030
 0.5510	12.4180
 0.5520	12.4260
 0.5530	12.4280
 0.5540	12.4080
 0.5550	12.3730
 0.5560	12.3250
 0.5570	12.2600
 0.5580	12.1840
 0.5590	12.0990
 0.5600	12.0040
 0.5610	11.8970
 0.5620	11.7840
 0.5630	11.6650
 0.5640	11.5380
 0.5650	11.3960
 0.5660	11.2480
 0.5670	11.0990
 0.5680	10.9550
 0.5690	10.8050
 0.5700	10.6480
 0.5710	10.4900
 0.5720	10.3450
 0.5730	10.2080
 0.5740	10.0760
 0.5750	 9.9410
 0.5760	 9.8100
 0.5770	 9.6850
 0.5780	 9.5690
 0.5790	 9.4650
 0.5800	 9.3700
 0.5810	 9.2840
 0.5820	 9.2100
 0.5830	 9.1370
 0.5840	 9.0650
 0.5850	 8.9960
 0.5860	 8.9370
 0.5870	 8.8890
 0.5880	 8.8490
 0.5890	 8.8140
 0.5900	 8.7780
 0.5910	 8.7360
 0.5920	 8.6940
 0.5930	 8.6620
 0.5940	 8.6330
 0.5950	 8.6060
 0.5960	 8.5810
 0.5970	 8.5570
 0.5980	 8.5240
 0.5990	 8.4900
 0.6000	 8.4600
 0.6010	 8.4260
 0.6020	 8.3850
 0.6030	 8.3380
 0.6040	 8.2950
 0.6050	 8.2470
 0.6060	 8.1920
 0.6070	 8.1340
 0.6080	 8.0780
 0.6090	 8.0200
 0.6100	 7.9600
 0.6110	 7.8990
 0.6120	 7.8330
 0.6130	 7.7640
 0.6140	 7.6950
 0.6150	 7.6300
 0.6160	 7.5700
 0.6170	 7.5130
 0.6180	 7.4600
 0.6190	 7.4110
 0.6200	 7.3670
 0.6210	 7.3280
 0.6220	 7.3000
 0.6230	 7.2730
 0.6240	 7.2470
 0.6250	 7.2260
 0.6260	 7.2110
 0.6270	 7.1970
 0.6280	 7.1830
 0.6290	 7.1700
 0.6300	 7.1590
 0.6310	 7.1480
 0.6320	 7.1360
 0.6330	 7.1190
 0.6340	 7.0980
 0.6350	 7.0700
 0.6360	 7.0360
 0.6370	 6.9960
 0.6380	 6.9490
 0.6390	 6.8960
 0.6400	 6.8400
 0.6410	 6.7770
 0.6420	 6.7130
 0.6430	 6.6500
 0.6440	 6.5890
 0.6450	 6.5260
 0.6460	 6.4650
 0.6470	 6.4110
 0.6480	 6.3580
 0.6490	 6.3140
 0.6500	 6.2770
 0.6510	 6.2390
 0.6520	 6.2060
 0.6530	 6.1760
 0.6540	 6.1450
 0.6550	 6.1120
 0.6560	 6.0800
 0.6570	 6.0450
 0.6580	 6.0060
 0.6590	 5.9670
 0.6600	 5.9260
 0.6610	 5.8830
 0.6620	 5.8380
 0.6630	 5.8000
 0.6640	 5.7650
 0.6650	 5.7290
 0.6660	 5.7050
 0.6670	 5.6850
 0.6680	 5.6690
 0.6690	 5.6570
 0.6700	 5.6500
 0.6710	 5.6490
 0.6720	 5.6530
 0.6730	 5.6580
 0.6740	 5.6690
 0.6750	 5.6830
 0.6760	 5.6990
 0.6770	 5.7200
 0.6780	 5.7440
 0.6790	 5.7710
 0.6800	 5.8020
 0.6810	 5.8410
 0.6820	 5.8840
 0.6830	 5.9320
 0.6840	 5.9880
 0.6850	 6.0560
 0.6860	 6.1390
 0.6870	 6.2420
 0.6880	 6.3690
 0.6890	 6.5250
 0.6900	 6.7160
 0.6910	 6.9540
 0.6920	 7.2410
 0.6930	 7.5870
 0.6940	 7.9990
 0.6950	 8.4730
 0.6960	 9.0120
 0.6970	 9.6190
 0.6980	10.2920
 0.6990	11.0260
 0.7000	11.8150
 0.7010	12.6530
 0.7020	13.5310
 0.7030	14.4390
 0.7040	15.3720
 0.7050	16.3260
 0.7060	17.2910
 0.7070	18.2680
 0.7080	19.2540
 0.7090	20.2480
 0.7100	21.2460
 0.7110	22.2480
 0.7120	23.2520
 0.7130	24.2640
 0.7140	25.2750
 0.7150	26.2920
 0.7160	27.3100
 0.7170	28.3230
 0.7180	29.3350
 0.7190	30.3460
 0.7200	31.3530
 0.7210	32.3510
 0.7220	33.3390
 0.7230	34.3170
 0.7240	35.2850
 0.7250	36.2400
 0.7260	37.1760
 0.7270	38.0910
 0.7280	38.9800
 0.7290	39.8470
 0.7300	40.6890
 0.7310	41.5000
 0.7320	42.2950
 0.7330	43.0580
 0.7340	43.7860
 0.7350	44.4850
 0.7360	45.1670
 0.7370	45.8190
 0.7380	46.4310
 0.7390	47.0160
 0.7400	47.5730
 0.7410	48.1010
 0.7420	48.5990
 0.7430	49.0840
 0.7440	49.5340
 0.7450	49.9460
 0.7460	50.3340
 0.7470	50.6980
 0.7480	51.0390
 0.7490	51.3530
 0.7500	51.6430
 0.7510	51.9180
 0.7520	52.1720
 0.7530	52.3980
 0.7540	52.6110
 0.7550	52.8040
 0.7560	52.9820
 0.7570	53.1560
 0.7580	53.3050
 0.7590	53.4390
 0.7600	53.5670
 0.7610	53.6820
 0.7620	53.7890
 0.7630	53.8870
 0.7640	53.9720
 0.7650	54.0490
 0.7660	54.1250
 0.7670	54.1940
 0.7680	54.2460
 0.7690	54.3010
 0.7700	54.3580
 0.7710	54.4120
 0.7720	54.4500
 0.7730	54.4870
 0.7740	54.5260
 0.7750	54.5610
 0.7760	54.5840
 0.7770	54.6210
 0.7780	54.6570
 0.7790	54.6650
 0.7800	54.6910
 0.7810	54.7210
 0.7820	54.7520
 0.7830	54.7870
 0.7840	54.8020
 0.7850	54.8070
 0.7860	54.8170
 0.7870	54.8460
 0.7880	54.8660
 0.7890	54.8780
 0.7900	54.8940
 0.7910	54.9120
 0.7920	54.9220
 0.7930	54.9280
 0.7940	54.9370
 0.7950	54.9490
 0.7960	54.9590
 0.7970	54.9670
 0.7980	54.9730
 0.7990	54.9800
 0.8000	54.9890
 0.8010	55.0010
 0.8020	55.0010
 0.8030	54.9980
 0.8040	54.9930
 0.8050	54.9870
 0.8060	54.9820
 0.8070	54.9830
 0.8080	54.9840
 0.8090	54.9680
 0.8100	54.9710
 0.8110	54.9740
 0.8120	54.9670
 0.8130	54.9610
 0.8140	54.9540
 0.8150	54.9440
 0.8160	54.9320
 0.8170	54.9250
 0.8180	54.9200
 0.8190	54.9150
 0.8200	54.9070
 0.8210	54.8990
 0.8220	54.8870
 0.8230	54.8760
 0.8240	54.8700
 0.8250	54.8520
 0.8260	54.8370
 0.8270	54.8280
 0.8280	54.8150
 0.8290	54.8020
 0.8300	54.7930
 0.8310	54.7840
 0.8320	54.7650
 0.8330	54.7550
 0.8340	54.7490
 0.8350	54.7350
 0.8360	54.7330
 0.8370	54.7290
 0.8380	54.7190
 0.8390	54.7140
 0.8400	54.7060
 0.8410	54.7000
 0.8420	54.7010
 0.8430	54.7060
 0.8440	54.7040
 0.8450	54.7000
 0.8460	54.7000
 0.8470	54.6980
 0.8480	54.6870
 0.8490	54.6830
 0.8500	54.6990
 0.8510	54.7090
 0.8520	54.7020
 0.8530	54.6910
 0.8540	54.6960
 0.8550	54.7080
 0.8560	54.7100
 0.8570	54.7010
 0.8580	54.6990
 0.8590	54.6950
 0.8600	54.7010
 0.8610	54.7170
 0.8620	54.7170
 0.8630	54.7230
 0.8640	54.7240
 0.8650	54.7150
 0.8660	54.7310
 0.8670	54.7380
 0.8680	54.7320
 0.8690	54.7240
 0.8700	54.7270
 0.8710	54.7370
 0.8720	54.7500
 0.8730	54.7640
 0.8740	54.7710
 0.8750	54.7640
 0.8760	54.7540
 0.8770	54.7680
 0.8780	54.7820
 0.8790	54.7870
 0.8800	54.7860
 0.8810	54.7920
 0.8820	54.7990
 0.8830	54.8070
 0.8840	54.8140
 0.8850	54.8190
 0.8860	54.8150
 0.8870	54.8130
 0.8880	54.8230
 0.8890	54.8260
 0.8900	54.8260
 0.8910	54.8240
 0.8920	54.8240
 0.8930	54.8350
 0.8940	54.8460
 0.8950	54.8480
 0.8960	54.8390
 0.8970	54.8420
 0.8980	54.8490
 0.8990	54.8550
 0.9000	54.8590
 0.9010	54.8590
 0.9020	54.8620
 0.9030	54.8680
 0.9040	54.8570
 0.9050	54.8530
 0.9060	54.8590
 0.9070	54.8690
 0.9080	54.8680
 0.9090	54.8690
 0.9100	54.8680
 0.9110	54.8640
 0.9120	54.8630
 0.9130	54.8600
 0.9140	54.8580
 0.9150	54.8600
 0.9160	54.8540
 0.9170	54.8530
 0.9180	54.8600
 0.9190	54.8690
 0.9200	54.8550
 0.9210	54.8490
 0.9220	54.8520
 0.9230	54.8470
 0.9240	54.8360
 0.9250	54.8330
 0.9260	54.8250
 0.9270	54.7890
 0.9280	54.7730
 0.9290	54.7490
 0.9300	54.7170
 0.9310	54.7100
 0.9320	54.6950
 0.9330	54.6740
 0.9340	54.6510
 0.9350	54.6260
 0.9360	54.5890
 0.9370	54.5560
 0.9380	54.5320
 0.9390	54.5040
 0.9400	54.4730
 0.9410	54.4410
 0.9420	54.4030
 0.9430	54.3540
 0.9440	54.3070
 0.9450	54.2530
 0.9460	54.1910
 0.9470	54.1490
 0.9480	54.0980
 0.9490	54.0310
 0.9500	53.9540
 0.9510	53.8650
 0.9520	53.7840
 0.9530	53.7000
 0.9540	53.6060
 0.9550	53.5360
 0.9560	53.4490
 0.9570	53.3540
 0.9580	53.2760
 0.9590	53.2170
 0.9600	53.1590
 0.9610	53.1060
 0.9620	53.0610
 0.9630	53.0130
 0.9640	52.9690
 0.9650	52.9280
 0.9660	52.8870
 0.9670	52.8730
 0.9680	52.8460
 0.9690	52.8140
 0.9700	52.8040
 0.9710	52.7940
 0.9720	52.7810
 0.9730	52.7670
 0.9740	52.7570
 0.9750	52.7430
 0.9760	52.7280
 0.9770	52.7300
 0.9780	52.7530
 0.9790	52.7430
 0.9800	52.7400
 0.9810	52.7450
 0.9820	52.7420
 0.9830	52.7540
 0.9840	52.7700
 0.9850	52.7800
 0.9860	52.7810
 0.9870	52.7990
 0.9880	52.8260
 0.9890	52.8480
 0.9900	52.8560
 0.9910	52.8830
 0.9920	52.8960
 0.9930	52.9090
 0.9940	52.9220
 0.9950	52.9340
 0.9960	52.9470
 0.9970	52.9600
 0.9980	52.9730
 0.9990	52.9860
 1.0000	52.9990
 1.0010	53.0120
 1.0020	53.0240
 1.0030	53.0370
 1.0040	53.0500
 1.0050	53.0630
 1.0060	53.0760
 1.0070	53.0890
 1.0080	53.1010
 1.0090	53.1140
 1.0100	53.1140
 1.0110	53.1400
 1.0120	53.1640
 1.0130	53.1890
 1.0140	53.2110
 1.0150	53.2300
 1.0160	53.2490
 1.0170	53.2710
 1.0180	53.2890
 1.0190	53.3140
 1.0200	53.3430
 1.0210	53.3690
 1.0220	53.3960
 1.0230	53.4180
 1.0240	53.4340
 1.0250	53.4550
 1.0260	53.4750
 1.0270	53.4950
 1.0280	53.5160
 1.0290	53.5370
 1.0300	53.5580
 1.0310	53.5780
 1.0320	53.5980
 1.0330	53.6200
 1.0340	53.6390
 1.0350	53.6580
 1.0360	53.6730
 1.0370	53.6880
 1.0380	53.7030
 1.0390	53.7130
 1.0400	53.7280
 1.0410	53.7470
 1.0420	53.7650
 1.0430	53.7860
 1.0440	53.8020
 1.0450	53.8120
 1.0460	53.8260
 1.0470	53.8370
 1.0480	53.8490
 1.0490	53.8650
 1.0500	53.8780
 1.0510	53.8890
 1.0520	53.9030
 1.0530	53.9120
 1.0540	53.9180
 1.0550	53.9250
 1.0560	53.9270
 1.0570	53.9340
 1.0580	53.9450
 1.0590	53.9530
 1.0600	53.9640
 1.0610	53.9690
 1.0620	53.9690
 1.0630	53.9730
 1.0640	53.9780
 1.0650	53.9810
 1.0660	53.9850
 1.0670	53.9880
 1.0680	53.9880
 1.0690	53.9840
 1.0700	53.9830
 1.0710	53.9830
 1.0720	53.9830
 1.0730	53.9860
 1.0740	53.9840
 1.0750	53.9820
 1.0760	53.9760
 1.0770	53.9630
 1.0780	53.9550
 1.0790	53.9470
 1.0800	53.9400
 1.0810	53.9360
 1.0820	53.9320
 1.0830	53.9330
 1.0840	53.9280
 1.0850	53.9200
 1.0860	53.9130
 1.0870	53.9050
 1.0880	53.8930
 1.0890	53.8810
 1.0900	53.8700
 1.0910	53.8610
 1.0920	53.8510
 1.0930	53.8420
 1.0940	53.8370
 1.0950	53.8280
 1.0960	53.8140
 1.0970	53.8020
 1.0980	53.7900
 1.0990	53.7760
 1.1000	53.7620
 1.1010	53.7470
 1.1020	53.7310
 1.1030	53.7140
 1.1040	53.6970
 1.1050	53.6810
 1.1060	53.6640
 1.1070	53.6470
 1.1080	53.6290
 1.1090	53.6100
 1.1100	53.5900
 1.1110	53.5670
 1.1120	53.5460
 1.1130	53.5260
 1.1140	53.5030
 1.1150	53.4820
 1.1160	53.4560
 1.1170	53.4250
 1.1180	53.3930
 1.1190	53.3610
 1.1200	53.3240
 1.1210	53.2830
 1.1220	53.2390
 1.1230	53.1880
 1.1240	53.1320
 1.1250	53.0680
 1.1260	53.0000
 1.1270	52.9220
 1.1280	52.8370
 1.1290	52.7430
 1.1300	52.6430
 1.1310	52.5300
 1.1320	52.4080
 1.1330	52.2770
 1.1340	52.1350
 1.1350	51.9850
 1.1360	51.8270
 1.1370	51.6580
 1.1380	51.4830
 1.1390	51.2990
 1.1400	51.1070
 1.1410	50.9160
 1.1420	50.7210
 1.1430	50.5210
 1.1440	50.3270
 1.1450	50.1310
 1.1460	49.9440
 1.1470	49.7590
 1.1480	49.5850
 1.1490	49.4170
 1.1500	49.2600
 1.1510	49.1100
 1.1520	48.9720
 1.1530	48.8470
 1.1540	48.7310
 1.1550	48.6260
 1.1560	48.5310
 1.1570	48.4460
 1.1580	48.3690
 1.1590	48.2980
 1.1600	48.2360
 1.1610	48.1780
 1.1620	48.1260
 1.1630	48.0800
 1.1640	48.0380
 1.1650	47.9990
 1.1660	47.9670
 1.1670	47.9360
 1.1680	47.9100
 1.1690	47.8830
 1.1700	47.8590
 1.1710	47.8320
 1.1720	47.8050
 1.1730	47.7780
 1.1740	47.7500
 1.1750	47.7220
 1.1760	47.6930
 1.1770	47.6630
 1.1780	47.6300
 1.1790	47.5930
 1.1800	47.5550
 1.1810	47.5180
 1.1820	47.4790
 1.1830	47.4410
 1.1840	47.4040
 1.1850	47.3670
 1.1860	47.3310
 1.1870	47.2980
 1.1880	47.2690
 1.1890	47.2450
 1.1900	47.2230
 1.1910	47.2050
 1.1920	47.1920
 1.1930	47.1820
 1.1940	47.1740
 1.1950	47.1700
 1.1960	47.1670
 1.1970	47.1650
 1.1980	47.1700
 1.1990	47.1800
 1.2000	47.1920
 1.2010	47.2080
 1.2020	47.2250
 1.2030	47.2430
 1.2040	47.2680
 1.2050	47.2950
 1.2060	47.3230
 1.2070	47.3540
 1.2080	47.3870
 1.2090	47.4230
 1.2100	47.4620
 1.2110	47.5030
 1.2120	47.5450
 1.2130	47.5890
 1.2140	47.6360
 1.2150	47.6850
 1.2160	47.7360
 1.2170	47.7900
 1.2180	47.8460
 1.2190	47.9010
 1.2200	47.9560
 1.2210	48.0120
 1.2220	48.0670
 1.2230	48.1200
 1.2240	48.1710
 1.2250	48.2230
 1.2260	48.2720
 1.2270	48.3200
 1.2280	48.3670
 1.2290	48.4140
 1.2300	48.4570
 1.2310	48.5010
 1.2320	48.5440
 1.2330	48.5840
 1.2340	48.6230
 1.2350	48.6600
 1.2360	48.6960
 1.2370	48.7300
 1.2380	48.7640
 1.2390	48.7980
 1.2400	48.8290
 1.2410	48.8610
 1.2420	48.8900
 1.2430	48.9190
 1.2440	48.9500
 1.2450	48.9770
 1.2460	49.0010
 1.2470	49.0210
 1.2480	49.0380
 1.2490	49.0550
 1.2500	49.0720
 1.2510	49.0890
 1.2520	49.1040
 1.2530	49.1200
 1.2540	49.1310
 1.2550	49.1420
 1.2560	49.1510
 1.2570	49.1570
 1.2580	49.1630
 1.2590	49.1680
 1.2600	49.1740
 1.2610	49.1780
 1.2620	49.1820
 1.2630	49.1820
 1.2640	49.1810
 1.2650	49.1780
 1.2660	49.1740
 1.2670	49.1710
 1.2680	49.1670
 1.2690	49.1590
 1.2700	49.1520
 1.2710	49.1420
 1.2720	49.1340
 1.2730	49.1230
 1.2740	49.1080
 1.2750	49.0910
 1.2760	49.0720
 1.2770	49.0510
 1.2780	49.0310
 1.2790	49.0110
 1.2800	48.9890
 1.2810	48.9660
 1.2820	48.9430
 1.2830	48.9180
 1.2840	48.8880
 1.2850	48.8570
 1.2860	48.8230
 1.2870	48.7870
 1.2880	48.7480
 1.2890	48.7110
 1.2900	48.6700
 1.2910	48.6240
 1.2920	48.5750
 1.2930	48.5200
 1.2940	48.4620
 1.2950	48.4030
 1.2960	48.3420
 1.2970	48.2760
 1.2980	48.2070
 1.2990	48.1350
 1.3000	48.0630
 1.3010	47.9910
 1.3020	47.9130
 1.3030	47.8330
 1.3040	47.7490
 1.3050	47.6580
 1.3060	47.5650
 1.3070	47.4690
 1.3080	47.3710
 1.3090	47.2720
 1.3100	47.1670
 1.3110	47.0590
 1.3120	46.9460
 1.3130	46.8280
 1.3140	46.7080
 1.3150	46.5850
 1.3160	46.4590
 1.3170	46.3310
 1.3180	46.2000
 1.3190	46.0630
 1.3200	45.9220
 1.3210	45.7750
 1.3220	45.6240
 1.3230	45.4700
 1.3240	45.3150
 1.3250	45.1570
 1.3260	44.9950
 1.3270	44.8310
 1.3280	44.6640
 1.3290	44.4930
 1.3300	44.3220
 1.3310	44.1490
 1.3320	43.9740
 1.3330	43.7990
 1.3340	43.6220
 1.3350	43.4430
 1.3360	43.2620
 1.3370	43.0780
 1.3380	42.8960
 1.3390	42.7160
 1.3400	42.5350
 1.3410	42.3560
 1.3420	42.1790
 1.3430	42.0010
 1.3440	41.8250
 1.3450	41.6500
 1.3460	41.4750
 1.3470	41.3020
 1.3480	41.1290
 1.3490	40.9580
 1.3500	40.7880
 1.3510	40.6180
 1.3520	40.4480
 1.3530	40.2780
 1.3540	40.1060
 1.3550	39.9330
 1.3560	39.7610
 1.3570	39.5880
 1.3580	39.4140
 1.3590	39.2360
 1.3600	39.0520
 1.3610	38.8650
 1.3620	38.6700
 1.3630	38.4710
 1.3640	38.2640
 1.3650	38.0470
 1.3660	37.8230
 1.3670	37.5880
 1.3680	37.3390
 1.3690	37.0790
 1.3700	36.8030
 1.3710	36.5110
 1.3720	36.2020
 1.3730	35.8730
 1.3740	35.5270
 1.3750	35.1600
 1.3760	34.7680
 1.3770	34.3560
 1.3780	33.9130
 1.3790	33.4460
 1.3800	32.9560
 1.3810	32.4370
 1.3820	31.9020
 1.3830	31.3470
 1.3840	30.7740
 1.3850	30.1800
 1.3860	29.5760
 1.3870	28.9500
 1.3880	28.3270
 1.3890	27.6930
 1.3900	27.0550
 1.3910	26.4240
 1.3920	25.7880
 1.3930	25.1530
 1.3940	24.5260
 1.3950	23.9010
 1.3960	23.2890
 1.3970	22.6960
 1.3980	22.1160
 1.3990	21.5620
 1.4000	21.0280
 1.4010	20.5110
 1.4020	20.0210
 1.4030	19.5510
 1.4040	19.1040
 1.4050	18.6840
 1.4060	18.2840
 1.4070	17.9130
 1.4080	17.5650
 1.4090	17.2390
 1.4100	16.9390
 1.4110	16.6590
 1.4120	16.3990
 1.4130	16.1610
 1.4140	15.9420
 1.4150	15.7420
 1.4160	15.5590
 1.4170	15.3930
 1.4180	15.2410
 1.4190	15.1020
 1.4200	14.9760
 1.4210	14.8630
 1.4220	14.7600
 1.4230	14.6690
 1.4240	14.5880
 1.4250	14.5140
 1.4260	14.4490
 1.4270	14.3900
 1.4280	14.3400
 1.4290	14.2950
 1.4300	14.2560
 1.4310	14.2240
 1.4320	14.1990
 1.4330	14.1770
 1.4340	14.1610
 1.4350	14.1490
 1.4360	14.1410
 1.4370	14.1370
 1.4380	14.1370
 1.4390	14.1410
 1.4400	14.1470
 1.4410	14.1570
 1.4420	14.1690
 1.4430	14.1820
 1.4440	14.1980
 1.4450	14.2160
 1.4460	14.2350
 1.4470	14.2570
 1.4480	14.2800
 1.4490	14.3040
 1.4500	14.3290
 1.4510	14.3550
 1.4520	14.3810
 1.4530	14.4090
 1.4540	14.4390
 1.4550	14.4730
 1.4560	14.5080
 1.4570	14.5460
 1.4580	14.5870
 1.4590	14.6300
 1.4600	14.6780
 1.4610	14.7310
 1.4620	14.7870
 1.4630	14.8470
 1.4640	14.9110
 1.4650	14.9810
 1.4660	15.0550
 1.4670	15.1350
 1.4680	15.2210
 1.4690	15.3110
 1.4700	15.4050
 1.4710	15.5040
 1.4720	15.6050
 1.4730	15.7110
 1.4740	15.8190
 1.4750	15.9310
 1.4760	16.0470
 1.4770	16.1640
 1.4780	16.2830
 1.4790	16.4060
 1.4800	16.5280
 1.4810	16.6530
 1.4820	16.7800
 1.4830	16.9070
 1.4840	17.0360
 1.4850	17.1650
 1.4860	17.2960
 1.4870	17.4310
 1.4880	17.5640
 1.4890	17.6980
 1.4900	17.8330
 1.4910	17.9690
 1.4920	18.1050
 1.4930	18.2440
 1.4940	18.3820
 1.4950	18.5200
 1.4960	18.6590
 1.4970	18.7960
 1.4980	18.9350
 1.4990	19.0740
 1.5000	19.2140
 1.5010	19.3550
 1.5020	19.4940
 1.5030	19.6330
 1.5040	19.7730
 1.5050	19.9110
 1.5060	20.0500
 1.5070	20.1910
 1.5080	20.3290
 1.5090	20.4670
 1.5100	20.6020
 1.5110	20.7370
 1.5120	20.8740
 1.5130	21.0080
 1.5140	21.1430
 1.5150	21.2810
 1.5160	21.4160
 1.5170	21.5520
 1.5180	21.6850
 1.5190	21.8160
 1.5200	21.9480
 1.5210	22.0770
 1.5220	22.2040
 1.5230	22.3330
 1.5240	22.4590
 1.5250	22.5850
 1.5260	22.7110
 1.5270	22.8340
 1.5280	22.9560
 1.5290	23.0760
 1.5300	23.1950
 1.5310	23.3160
 1.5320	23.4360
 1.5330	23.5550
 1.5340	23.6730
 1.5350	23.7880
 1.5360	23.9020
 1.5370	24.0160
 1.5380	24.1290
 1.5390	24.2430
 1.5400	24.3540
 1.5410	24.4650
 1.5420	24.5750
 1.5430	24.6830
 1.5440	24.7910
 1.5450	24.8990
 1.5460	25.0040
 1.5470	25.1110
 1.5480	25.2160
 1.5490	25.3200
 1.5500	25.4240
 1.5510	25.5250
 1.5520	25.6260
 1.5530	25.7260
 1.5540	25.8260
 1.5550	25.9250
 1.5560	26.0220
 1.5570	26.1190
 1.5580	26.2160
 1.5590	26.3110
 1.5600	26.4060
 1.5610	26.4990
 1.5620	26.5900
 1.5630	26.6810
 1.5640	26.7700
 1.5650	26.8600
 1.5660	26.9490
 1.5670	27.0360
 1.5680	27.1250
 1.5690	27.2120
 1.5700	27.2970
 1.5710	27.3830
 1.5720	27.4660
 1.5730	27.5510
 1.5740	27.6360
 1.5750	27.7180
 1.5760	27.8010
 1.5770	27.8830
 1.5780	27.9640
 1.5790	28.0460
 1.5800	28.1280
 1.5810	28.2080
 1.5820	28.2880
 1.5830	28.3670
 1.5840	28.4480
 1.5850	28.5260
 1.5860	28.6030
 1.5870	28.6790
 1.5880	28.7560
 1.5890	28.8320
 1.5900	28.9090
 1.5910	28.9870
 1.5920	29.0620
 1.5930	29.1360
 1.5940	29.2110
 1.5950	29.2840
 1.5960	29.3600
 1.5970	29.4350
 1.5980	29.5090
 1.5990	29.5810
 1.6000	29.6510
 1.6010	29.7180
 1.6020	29.7850
 1.6030	29.8540
 1.6040	29.9230
 1.6050	29.9890
 1.6060	30.0540
 1.6070	30.1200
 1.6080	30.1850
 1.6090	30.2480
 1.6100	30.3120
 1.6110	30.3750
 1.6120	30.4350
 1.6130	30.4940
 1.6140	30.5520
 1.6150	30.6040
 1.6160	30.6570
 1.6170	30.7090
 1.6180	30.7580
 1.6190	30.8070
 1.6200	30.8530
 1.6210	30.8950
 1.6220	30.9380
 1.6230	30.9810
 1.6240	31.0190
 1.6250	31.0560
 1.6260	31.0910
 1.6270	31.1230
 1.6280	31.1560
 1.6290	31.1870
 1.6300	31.2150
 1.6310	31.2430
 1.6320	31.2680
 1.6330	31.2960
 1.6340	31.3250
 1.6350	31.3560
 1.6360	31.3900
 1.6370	31.4230
 1.6380	31.4580
 1.6390	31.4930
 1.6400	31.5280
 1.6410	31.5640
 1.6420	31.6020
 1.6430	31.6370
 1.6440	31.6710
 1.6450	31.7020
 1.6460	31.7300
 1.6470	31.7550
 1.6480	31.7780
 1.6490	31.7960
 1.6500	31.8110
 1.6510	31.8230
 1.6520	31.8290
 1.6530	31.8310
 1.6540	31.8270
 1.6550	31.8200
 1.6560	31.8090
 1.6570	31.8000
 1.6580	31.7880
 1.6590	31.7740
 1.6600	31.7580
 1.6610	31.7400
 1.6620	31.7190
 1.6630	31.6980
 1.6640	31.6740
 1.6650	31.6450
 1.6660	31.6140
 1.6670	31.5780
 1.6680	31.5380
 1.6690	31.4940
 1.6700	31.4470
 1.6710	31.3950
 1.6720	31.3410
 1.6730	31.2860
 1.6740	31.2280
 1.6750	31.1680
 1.6760	31.1040
 1.6770	31.0360
 1.6780	30.9650
 1.6790	30.8870
 1.6800	30.8080
 1.6810	30.7270
 1.6820	30.6430
 1.6830	30.5590
 1.6840	30.4720
 1.6850	30.3790
 1.6860	30.2860
 1.6870	30.1920
 1.6880	30.0970
 1.6890	30.0030
 1.6900	29.9100
 1.6910	29.8160
 1.6920	29.7250
 1.6930	29.6340
 1.6940	29.5480
 1.6950	29.4640
 1.6960	29.3820
 1.6970	29.3050
 1.6980	29.2270
 1.6990	29.1500
 1.7000	29.0740
 1.7010	28.9990
 1.7020	28.9250
 1.7030	28.8540
 1.7040	28.7810
 1.7050	28.7090
 1.7060	28.6390
 1.7070	28.5690
 1.7080	28.5030
 1.7090	28.4390
 1.7100	28.3780
 1.7110	28.3190
 1.7120	28.2640
 1.7130	28.2080
 1.7140	28.1560
 1.7150	28.1060
 1.7160	28.0580
 1.7170	28.0150
 1.7180	27.9740
 1.7190	27.9330
 1.7200	27.8930
 1.7210	27.8530
 1.7220	27.8110
 1.7230	27.7720
 1.7240	27.7350
 1.7250	27.6980
 1.7260	27.6610
 1.7270	27.6260
 1.7280	27.5940
 1.7290	27.5620
 1.7300	27.5340
 1.7310	27.5060
 1.7320	27.4800
 1.7330	27.4550
 1.7340	27.4350
 1.7350	27.4090
 1.7360	27.3830
 1.7370	27.3500
 1.7380	27.3110
 1.7390	27.2700
 1.7400	27.2260
 1.7410	27.1760
 1.7420	27.1210
 1.7430	27.0620
 1.7440	26.9970
 1.7450	26.9310
 1.7460	26.8610
 1.7470	26.7920
 1.7480	26.7190
 1.7490	26.6470
 1.7500	26.5740
 1.7510	26.5050
 1.7520	26.4380
 1.7530	26.3730
 1.7540	26.3110
 1.7550	26.2480
 1.7560	26.1870
 1.7570	26.1290
 1.7580	26.0740
 1.7590	26.0230
 1.7600	25.9720
 1.7610	25.9230
 1.7620	25.8780
 1.7630	25.8360
 1.7640	25.7950
 1.7650	25.7580
 1.7660	25.7200
 1.7670	25.6830
 1.7680	25.6470
 1.7690	25.6110
 1.7700	25.5780
 1.7710	25.5460
 1.7720	25.5160
 1.7730	25.4890
 1.7740	25.4620
 1.7750	25.4350
 1.7760	25.4100
 1.7770	25.3860
 1.7780	25.3640
 1.7790	25.3450
 1.7800	25.3290
 1.7810	25.3160
 1.7820	25.3060
 1.7830	25.2990
 1.7840	25.2930
 1.7850	25.2890
 1.7860	25.2880
 1.7870	25.2890
 1.7880	25.2910
 1.7890	25.2930
 1.7900	25.2970
 1.7910	25.3010
 1.7920	25.3070
 1.7930	25.3130
 1.7940	25.3170
 1.7950	25.3240
 1.7960	25.3340
 1.7970	25.3420
 1.7980	25.3520
 1.7990	25.3620
 1.8000	25.3730
 1.8010	25.3840
 1.8020	25.3970
 1.8030	25.4080
 1.8040	25.4180
 1.8050	25.4280
 1.8060	25.4390
 1.8070	25.4470
 1.8080	25.4540
 1.8090	25.4600
 1.8100	25.4660
 1.8110	25.4720
 1.8120	25.4790
 1.8130	25.4840
 1.8140	25.4860
 1.8150	25.4900
 1.8160	25.4900
 1.8170	25.4900
 1.8180	25.4930
 1.8190	25.4920
 1.8200	25.4900
 1.8210	25.4850
 1.8220	25.4800
 1.8230	25.4720
 1.8240	25.4640
 1.8250	25.4580
 1.8260	25.4460
 1.8270	25.4740
 1.8280	25.5010
 1.8290	25.5290
 1.8300	25.5560
 1.8310	25.5840
 1.8320	25.6110
 1.8330	25.6390
 1.8340	25.6660
 1.8350	25.6660
 1.8360	25.6150
 1.8370	25.5640
 1.8380	25.5090
 1.8390	25.4430
 1.8400	25.3740
 1.8410	25.2960
 1.8420	25.2100
 1.8430	25.1150
 1.8440	25.0170
 1.8450	24.9120
 1.8460	24.7940
 1.8470	24.6630
 1.8480	24.5210
 1.8490	24.3680
 1.8500	24.2020
 1.8510	24.0230
 1.8520	23.8370
 1.8530	23.6340
 1.8540	23.4190
 1.8550	23.1940
 1.8560	22.9520
 1.8570	22.6960
 1.8580	22.4220
 1.8590	22.1340
 1.8600	21.8270
 1.8610	21.5090
 1.8620	21.1720
 1.8630	20.8230
 1.8640	20.4590
 1.8650	20.0730
 1.8660	19.6700
 1.8670	19.2470
 1.8680	18.8050
 1.8690	18.3480
 1.8700	17.8740
 1.8710	17.3820
 1.8720	16.8830
 1.8730	16.3720
 1.8740	15.8520
 1.8750	15.3320
 1.8760	14.8050
 1.8770	14.2830
 1.8780	13.7650
 1.8790	13.2480
 1.8800	12.7460
 1.8810	12.2530
 1.8820	11.7630
 1.8830	11.2800
 1.8840	10.8140
 1.8850	10.3520
 1.8860	 9.9030
 1.8870	 9.4800
 1.8880	 9.0700
 1.8890	 8.6830
 1.8900	 8.3190
 1.8910	 7.9770
 1.8920	 7.6530
 1.8930	 7.3530
 1.8940	 7.0750
 1.8950	 6.8200
 1.8960	 6.5840
 1.8970	 6.3660
 1.8980	 6.1730
 1.8990	 5.9990
 1.9000	 5.8380
 1.9010	 5.6980
 1.9020	 5.5670
 1.9030	 5.4490
 1.9040	 5.3440
 1.9050	 5.2510
 1.9060	 5.1670
 1.9070	 5.0960
 1.9080	 5.0340
 1.9090	 4.9780
 1.9100	 4.9310
 1.9110	 4.8890
 1.9120	 4.8520
 1.9130	 4.8180
 1.9140	 4.7910
 1.9150	 4.7700
 1.9160	 4.7490
 1.9170	 4.7310
 1.9180	 4.7190
 1.9190	 4.7060
 1.9200	 4.6980
 1.9210	 4.6960
 1.9220	 4.6920
 1.9230	 4.6880
 1.9240	 4.6860
 1.9250	 4.6870
 1.9260	 4.6870
 1.9270	 4.6880
 1.9280	 4.6930
 1.9290	 4.6990
 1.9300	 4.7040
 1.9310	 4.7150
 1.9320	 4.7260
 1.9330	 4.7390
 1.9340	 4.7530
 1.9350	 4.7680
 1.9360	 4.7850
 1.9370	 4.8020
 1.9380	 4.8200
 1.9390	 4.8400
 1.9400	 4.8600
 1.9410	 4.8820
 1.9420	 4.9050
 1.9430	 4.9290
 1.9440	 4.9550
 1.9450	 4.9810
 1.9460	 5.0090
 1.9470	 5.0390
 1.9480	 5.0680
 1.9490	 5.0940
 1.9500	 5.1240
 1.9510	 5.1530
 1.9520	 5.1830
 1.9530	 5.2170
 1.9540	 5.2520
 1.9550	 5.2880
 1.9560	 5.3250
 1.9570	 5.3630
 1.9580	 5.4030
 1.9590	 5.4430
 1.9600	 5.4840
 1.9610	 5.5250
 1.9620	 5.5650
 1.9630	 5.6070
 1.9640	 5.6510
 1.9650	 5.6930
 1.9660	 5.7370
 1.9670	 5.7810
 1.9680	 5.8270
 1.9690	 5.8720
 1.9700	 5.9190
 1.9710	 5.9670
 1.9720	 6.0160
 1.9730	 6.0660
 1.9740	 6.1160
 1.9750	 6.1680
 1.9760	 6.2210
 1.9770	 6.2750
 1.9780	 6.3300
 1.9790	 6.3860
 1.9800	 6.4450
 1.9810	 6.5020
 1.9820	 6.5570
 1.9830	 6.6160
 1.9840	 6.6770
 1.9850	 6.7360
 1.9860	 6.7930
 1.9870	 6.8540
 1.9880	 6.9100
 1.9890	 6.9700
 1.9900	 7.0340
 1.9910	 7.0990
 1.9920	 7.1630
 1.9930	 7.2280
 1.9940	 7.2910
 1.9950	 7.3530
 1.9960	 7.4150
 1.9970	 7.4750
 1.9980	 7.5370
 1.9990	 7.6000
 2.0000	 7.6630
 2.0010	 7.7270
 2.0020	 7.7910
 2.0030	 7.8550
 2.0040	 7.9180
 2.0050	 7.9830
 2.0060	 8.0490
 2.0070	 8.1160
 2.0080	 8.1820
 2.0090	 8.2480
 2.0100	 8.3150
 2.0110	 8.3790
 2.0120	 8.4400
 2.0130	 8.5030
 2.0140	 8.5650
 2.0150	 8.6250
 2.0160	 8.6860
 2.0170	 8.7480
 2.0180	 8.8080
 2.0190	 8.8680
 2.0200	 8.9270
 2.0210	 8.9850
 2.0220	 9.0420
 2.0230	 9.0980
 2.0240	 9.1530
 2.0250	 9.2070
 2.0260	 9.2620
 2.0270	 9.3190
 2.0280	 9.3740
 2.0290	 9.4270
 2.0300	 9.4780
 2.0310	 9.5290
 2.0320	 9.5750
 2.0330	 9.6250
 2.0340	 9.6750
 2.0350	 9.7240
 2.0360	 9.7730
 2.0370	 9.8190
 2.0380	 9.8650
 2.0390	 9.9090
 2.0400	 9.9520
 2.0410	 9.9940
 2.0420	10.0340
 2.0430	10.0740
 2.0440	10.1140
 2.0450	10.1520
 2.0460	10.1940
 2.0470	10.2370
 2.0480	10.2800
 2.0490	10.3240
 2.0500	10.3660
 2.0510	10.4070
 2.0520	10.4480
 2.0530	10.4870
 2.0540	10.5270
 2.0550	10.5660
 2.0560	10.6050
 2.0570	10.6450
 2.0580	10.6850
 2.0590	10.7260
 2.0600	10.7660
 2.0610	10.8080
 2.0620	10.8500
 2.0630	10.8940
 2.0640	10.9420
 2.0650	10.9860
 2.0660	11.0310
 2.0670	11.0740
 2.0680	11.1160
 2.0690	11.1580
 2.0700	11.1990
 2.0710	11.2410
 2.0720	11.2850
 2.0730	11.3250
 2.0740	11.3650
 2.0750	11.4050
 2.0760	11.4460
 2.0770	11.4850
 2.0780	11.5270
 2.0790	11.5740
 2.0800	11.6170
 2.0810	11.6590
 2.0820	11.7010
 2.0830	11.7390
 2.0840	11.7810
 2.0850	11.8290
 2.0860	11.8720
 2.0870	11.9140
 2.0880	11.9570
 2.0890	11.9970
 2.0900	12.0320
 2.0910	12.0710
 2.0920	12.1120
 2.0930	12.1530
 2.0940	12.1970
 2.0950	12.2390
 2.0960	12.2790
 2.0970	12.3200
 2.0980	12.3630
 2.0990	12.4040
 2.1000	12.4450
 2.1010	12.4870
 2.1020	12.5260
 2.1030	12.5670
 2.1040	12.6100
 2.1050	12.6530
 2.1060	12.6940
 2.1070	12.7350
 2.1080	12.7760
 2.1090	12.8170
 2.1100	12.8590
 2.1110	12.9020
 2.1120	12.9410
 2.1130	12.9780
 2.1140	13.0170
 2.1150	13.0550
 2.1160	13.0940
 2.1170	13.1380
 2.1180	13.1780
 2.1190	13.2170
 2.1200	13.2560
 2.1210	13.2950
 2.1220	13.3320
 2.1230	13.3710
 2.1240	13.4120
 2.1250	13.4490
 2.1260	13.4850
 2.1270	13.5190
 2.1280	13.5510
 2.1290	13.5850
 2.1300	13.6200
 2.1310	13.6520
 2.1320	13.6790
 2.1330	13.7110
 2.1340	13.7440
 2.1350	13.7740
 2.1360	13.8080
 2.1370	13.8390
 2.1380	13.8650
 2.1390	13.8920
 2.1400	13.9180
 2.1410	13.9440
 2.1420	13.9710
 2.1430	13.9990
 2.1440	14.0270
 2.1450	14.0580
 2.1460	14.0860
 2.1470	14.1140
 2.1480	14.1400
 2.1490	14.1660
 2.1500	14.1910
 2.1510	14.2130
 2.1520	14.2360
 2.1530	14.2600
 2.1540	14.2840
 2.1550	14.3120
 2.1560	14.3350
 2.1570	14.3550
 2.1580	14.3770
 2.1590	14.4000
 2.1600	14.4210
 2.1610	14.4440
 2.1620	14.4700
 2.1630	14.4930
 2.1640	14.5140
 2.1650	14.5350
 2.1660	14.5560
 2.1670	14.5770
 2.1680	14.5960
 2.1690	14.6170
 2.1700	14.6400
 2.1710	14.6620
 2.1720	14.6860
 2.1730	14.7090
 2.1740	14.7330
 2.1750	14.7560
 2.1760	14.7790
 2.1770	14.8020
 2.1780	14.8260
 2.1790	14.8500
 2.1800	14.8750
 2.1810	14.8990
 2.1820	14.9230
 2.1830	14.9450
 2.1840	14.9670
 2.1850	14.9870
 2.1860	15.0080
 2.1870	15.0270
 2.1880	15.0490
 2.1890	15.0740
 2.1900	15.0960
 2.1910	15.1170
 2.1920	15.1390
 2.1930	15.1600
 2.1940	15.1800
 2.1950	15.2040
 2.1960	15.2230
 2.1970	15.2400
 2.1980	15.2560
 2.1990	15.2700
 2.2000	15.2840
 2.2010	15.3000
 2.2020	15.3110
 2.2030	15.3200
 2.2040	15.3270
 2.2050	15.3300
 2.2060	15.3350
 2.2070	15.3380
 2.2080	15.3410
 2.2090	15.3400
 2.2100	15.3360
 2.2110	15.3320
 2.2120	15.3280
 2.2130	15.3200
 2.2140	15.3110
 2.2150	15.3000
 2.2160	15.2860
 2.2170	15.2740
 2.2180	15.2620
 2.2190	15.2470
 2.2200	15.2300
 2.2210	15.2130
 2.2220	15.1920
 2.2230	15.1730
 2.2240	15.1560
 2.2250	15.1370
 2.2260	15.1200
 2.2270	15.0990
 2.2280	15.0770
 2.2290	15.0510
 2.2300	15.0190
 2.2310	14.9840
 2.2320	14.9480
 2.2330	14.9080
 2.2340	14.8700
 2.2350	14.8340
 2.2360	14.7900
 2.2370	14.7430
 2.2380	14.6910
 2.2390	14.6290
 2.2400	14.5720
 2.2410	14.5140
 2.2420	14.4520
 2.2430	14.3890
 2.2440	14.3220
 2.2450	14.2470
 2.2460	14.1760
 2.2470	14.1040
 2.2480	14.0300
 2.2490	13.9560
 2.2500	13.8780
 2.2510	13.7960
 2.2520	13.7140
 2.2530	13.6310
 2.2540	13.5450
 2.2550	13.4570
 2.2560	13.3670
 2.2570	13.2710
 2.2580	13.1800
 2.2590	13.0890
 2.2600	13.0010
 2.2610	12.9140
 2.2620	12.8300
 2.2630	12.7510
 2.2640	12.6660
 2.2650	12.5840
 2.2660	12.5030
 2.2670	12.4230
 2.2680	12.3410
 2.2690	12.2690
 2.2700	12.2000
 2.2710	12.1360
 2.2720	12.0810
 2.2730	12.0240
 2.2740	11.9690
 2.2750	11.9150
 2.2760	11.8620
 2.2770	11.8110
 2.2780	11.7650
 2.2790	11.7140
 2.2800	11.6630
 2.2810	11.6100
 2.2820	11.5530
 2.2830	11.5020
 2.2840	11.4570
 2.2850	11.4040
 2.2860	11.3540
 2.2870	11.2980
 2.2880	11.2310
 2.2890	11.1690
 2.2900	11.1080
 2.2910	11.0480
 2.2920	10.9900
 2.2930	10.9320
 2.2940	10.8750
 2.2950	10.8160
 2.2960	10.7520
 2.2970	10.6920
 2.2980	10.6340
 2.2990	10.5730
 2.3000	10.5150
 2.3010	10.4600
 2.3020	10.4080
 2.3030	10.3600
 2.3040	10.3200
 2.3050	10.2870
 2.3060	10.2550
 2.3070	10.2240
 2.3080	10.1990
 2.3090	10.1730
 2.3100	10.1500
 2.3110	10.1350
 2.3120	10.1210
 2.3130	10.1090
 2.3140	10.1020
 2.3150	10.0990
 2.3160	10.0970
 2.3170	10.1030
 2.3180	10.0970
 2.3190	10.0910
 2.3200	10.0800
 2.3210	10.0570
 2.3220	10.0410
 2.3230	10.0280
 2.3240	10.0090
 2.3250	 9.9870
 2.3260	 9.9670
 2.3270	 9.9450
 2.3280	 9.9220
 2.3290	 9.9030
 2.3300	 9.8760
 2.3310	 9.8390
 2.3320	 9.8070
 2.3330	 9.7750
 2.3340	 9.7400
 2.3350	 9.7040
 2.3360	 9.6730
 2.3370	 9.6420
 2.3380	 9.6080
 2.3390	 9.5790
 2.3400	 9.5440
 2.3410	 9.5000
 2.3420	 9.4620
 2.3430	 9.4260
 2.3440	 9.3900
 2.3450	 9.3540
 2.3460	 9.3220
 2.3470	 9.2900
 2.3480	 9.2630
 2.3490	 9.2470
 2.3500	 9.2240
 2.3510	 9.1950
 2.3520	 9.1730
 2.3530	 9.1560
 2.3540	 9.1280
 2.3550	 9.1030
 2.3560	 9.0850
 2.3570	 9.0660
 2.3580	 9.0430
 2.3590	 9.0270
 2.3600	 9.0080
 2.3610	 8.9760
 2.3620	 8.9420
 2.3630	 8.9030
 2.3640	 8.8630
 2.3650	 8.8330
 2.3660	 8.8050
 2.3670	 8.7900
 2.3680	 8.7780
 2.3690	 8.7520
 2.3700	 8.7310
 2.3710	 8.7030
 2.3720	 8.6700
 2.3730	 8.6550
 2.3740	 8.6340
 2.3750	 8.6120
 2.3760	 8.5820
 2.3770	 8.5430
 2.3780	 8.5040
 2.3790	 8.4640
 2.3800	 8.4360
 2.3810	 8.4120
 2.3820	 8.3810
 2.3830	 8.3480
 2.3840	 8.3080
 2.3850	 8.2680
 2.3860	 8.2360
 2.3870	 8.2070
 2.3880	 8.1790
 2.3890	 8.1520
 2.3900	 8.1180
 2.3910	 8.0840
 2.3920	 8.0520
 2.3930	 8.0190
 2.3940	 7.9830
 2.3950	 7.9500
 2.3960	 7.9140
 2.3970	 7.8680
 2.3980	 7.8330
 2.3990	 7.8020
 2.4000	 7.7670
 2.4010	 7.7420
 2.4020	 7.7120
 2.4030	 7.6690
 2.4040	 7.6360
 2.4050	 7.6000
 2.4060	 7.5560
 2.4070	 7.5220
 2.4080	 7.4830
 2.4090	 7.4430
 2.4100	 7.4110
 2.4110	 7.3660
 2.4120	 7.3280
 2.4130	 7.2990
 2.4140	 7.2630
 2.4150	 7.2350
 2.4160	 7.2010
 2.4170	 7.1620
 2.4180	 7.1260
 2.4190	 7.0920
 2.4200	 7.0630
 2.4210	 7.0230
 2.4220	 6.9770
 2.4230	 6.9310
 2.4240	 6.8900
 2.4250	 6.8600
 2.4260	 6.8280
 2.4270	 6.8070
 2.4280	 6.7750
 2.4290	 6.7300
 2.4300	 6.7030
 2.4310	 6.6580
 2.4320	 6.6150
 2.4330	 6.5800
 2.4340	 6.5260
 2.4350	 6.4920
 2.4360	 6.4610
 2.4370	 6.4160
 2.4380	 6.3940
 2.4390	 6.3700
 2.4400	 6.3210
 2.4410	 6.2880
 2.4420	 6.2570
 2.4430	 6.2110
 2.4440	 6.1800
 2.4450	 6.1470
 2.4460	 6.1060
 2.4470	 6.0770
 2.4480	 6.0450
 2.4490	 6.0100
 2.4500	 5.9800
 2.4510	 5.9450
 2.4520	 5.9060
 2.4530	 5.8750
 2.4540	 5.8480
 2.4550	 5.8010
 2.4560	 5.7670
 2.4570	 5.7320
 2.4580	 5.6870
 2.4590	 5.6700
 2.4600	 5.6490
 2.4610	 5.6180
 2.4620	 5.6090
 2.4630	 5.5880
 2.4640	 5.5470
 2.4650	 5.5250
 2.4660	 5.5120
 2.4670	 5.4890
 2.4680	 5.4760
 2.4690	 5.4570
 2.4700	 5.4340
 2.4710	 5.4140
 2.4720	 5.3900
 2.4730	 5.3580
 2.4740	 5.3350
 2.4750	 5.3120
 2.4760	 5.2840
 2.4770	 5.2620
 2.4780	 5.2440
 2.4790	 5.2210
 2.4800	 5.1970
 2.4810	 5.1900
 2.4820	 5.1540
 2.4830	 5.1200
 2.4840	 5.1280
 2.4850	 5.0920
 2.4860	 5.0580
 2.4870	 5.0480
 2.4880	 4.9800
 2.4890	 4.9560
 2.4900	 4.9770
 2.4910	 4.9500
 2.4920	 4.9700
 2.4930	 5.0150
 2.4940	 5.0240
 2.4950	 5.0420
 2.4960	 5.0370
 2.4970	 5.0440
 2.4980	 5.0540
 2.4990	 5.0650
 2.5000	 5.0970
