Name: Quercus ilex
Type: vegetation
Class: Tree
Genus: Quercus
Species: ilex
Sample No.: JPL232
Owner: JPL
Wavelength Range: VSWIR
Origin: 34.12768; -118.1133; WGS84
Collection Date: 10/3/2016
Description: Samples were collected at the Huntington Garden in San Marino California as part of a JPL Subcontract studying HyTES imagery. Samples were taken to JPL and processed within 48 hours of collection. The same leaves were processed in the Nicolet and then measured using the ASD.
Measurement: Bidirectional reflectance
First Column: X
Second Column: Y
X Units: Wavelength (micrometer)
Y Units: Reflectance (percentage)
First X Value: 0.35
Last X Value: 2.5
Number of X Values: 2151
Additional Information: vegetation.tree.quercus.ilex.vswir.jpl232.jpl.asd.ancillary.txt

 0.3500	 8.8560
 0.3510	 8.7930
 0.3520	 8.7970
 0.3530	 8.7690
 0.3540	 8.6740
 0.3550	 8.6830
 0.3560	 8.6880
 0.3570	 8.6850
 0.3580	 8.7150
 0.3590	 8.7180
 0.3600	 8.6740
 0.3610	 8.6020
 0.3620	 8.5680
 0.3630	 8.5380
 0.3640	 8.5370
 0.3650	 8.5790
 0.3660	 8.6080
 0.3670	 8.6050
 0.3680	 8.6000
 0.3690	 8.6430
 0.3700	 8.5660
 0.3710	 8.5000
 0.3720	 8.5090
 0.3730	 8.4630
 0.3740	 8.4410
 0.3750	 8.4450
 0.3760	 8.4510
 0.3770	 8.4190
 0.3780	 8.3880
 0.3790	 8.3990
 0.3800	 8.4820
 0.3810	 8.5120
 0.3820	 8.4910
 0.3830	 8.4480
 0.3840	 8.4130
 0.3850	 8.4360
 0.3860	 8.4610
 0.3870	 8.4180
 0.3880	 8.4230
 0.3890	 8.4210
 0.3900	 8.4000
 0.3910	 8.4010
 0.3920	 8.4250
 0.3930	 8.4350
 0.3940	 8.4120
 0.3950	 8.4000
 0.3960	 8.3880
 0.3970	 8.3880
 0.3980	 8.4110
 0.3990	 8.4110
 0.4000	 8.3820
 0.4010	 8.3500
 0.4020	 8.3760
 0.4030	 8.4070
 0.4040	 8.4230
 0.4050	 8.4200
 0.4060	 8.4270
 0.4070	 8.4480
 0.4080	 8.4740
 0.4090	 8.4810
 0.4100	 8.4850
 0.4110	 8.5070
 0.4120	 8.5510
 0.4130	 8.5850
 0.4140	 8.6000
 0.4150	 8.6020
 0.4160	 8.6060
 0.4170	 8.6270
 0.4180	 8.6370
 0.4190	 8.6360
 0.4200	 8.6520
 0.4210	 8.6590
 0.4220	 8.6660
 0.4230	 8.6820
 0.4240	 8.7030
 0.4250	 8.7150
 0.4260	 8.7180
 0.4270	 8.7200
 0.4280	 8.7330
 0.4290	 8.7290
 0.4300	 8.7040
 0.4310	 8.7010
 0.4320	 8.6880
 0.4330	 8.6700
 0.4340	 8.6580
 0.4350	 8.6590
 0.4360	 8.6580
 0.4370	 8.6640
 0.4380	 8.6950
 0.4390	 8.7180
 0.4400	 8.7370
 0.4410	 8.7590
 0.4420	 8.7850
 0.4430	 8.8000
 0.4440	 8.8090
 0.4450	 8.8240
 0.4460	 8.8280
 0.4470	 8.8330
 0.4480	 8.8430
 0.4490	 8.8520
 0.4500	 8.8600
 0.4510	 8.8660
 0.4520	 8.8690
 0.4530	 8.8790
 0.4540	 8.8850
 0.4550	 8.8890
 0.4560	 8.8960
 0.4570	 8.9060
 0.4580	 8.9130
 0.4590	 8.9150
 0.4600	 8.9160
 0.4610	 8.9180
 0.4620	 8.9220
 0.4630	 8.9300
 0.4640	 8.9270
 0.4650	 8.9260
 0.4660	 8.9290
 0.4670	 8.9320
 0.4680	 8.9360
 0.4690	 8.9410
 0.4700	 8.9460
 0.4710	 8.9380
 0.4720	 8.9420
 0.4730	 8.9540
 0.4740	 8.9570
 0.4750	 8.9570
 0.4760	 8.9570
 0.4770	 8.9570
 0.4780	 8.9620
 0.4790	 8.9630
 0.4800	 8.9620
 0.4810	 8.9610
 0.4820	 8.9510
 0.4830	 8.9420
 0.4840	 8.9370
 0.4850	 8.9320
 0.4860	 8.9330
 0.4870	 8.9350
 0.4880	 8.9350
 0.4890	 8.9390
 0.4900	 8.9450
 0.4910	 8.9550
 0.4920	 8.9700
 0.4930	 8.9830
 0.4940	 8.9980
 0.4950	 9.0130
 0.4960	 9.0240
 0.4970	 9.0380
 0.4980	 9.0550
 0.4990	 9.0730
 0.5000	 9.0950
 0.5010	 9.1150
 0.5020	 9.1320
 0.5030	 9.1510
 0.5040	 9.1680
 0.5050	 9.1890
 0.5060	 9.2130
 0.5070	 9.2390
 0.5080	 9.2640
 0.5090	 9.2900
 0.5100	 9.3200
 0.5110	 9.3500
 0.5120	 9.3850
 0.5130	 9.4250
 0.5140	 9.4700
 0.5150	 9.5150
 0.5160	 9.5640
 0.5170	 9.6180
 0.5180	 9.6720
 0.5190	 9.7290
 0.5200	 9.7940
 0.5210	 9.8630
 0.5220	 9.9310
 0.5230	 9.9990
 0.5240	10.0670
 0.5250	10.1350
 0.5260	10.2000
 0.5270	10.2640
 0.5280	10.3290
 0.5290	10.3940
 0.5300	10.4490
 0.5310	10.4950
 0.5320	10.5420
 0.5330	10.5850
 0.5340	10.6240
 0.5350	10.6590
 0.5360	10.6900
 0.5370	10.7080
 0.5380	10.7150
 0.5390	10.7190
 0.5400	10.7010
 0.5410	10.6640
 0.5420	10.6220
 0.5430	10.5950
 0.5440	10.5950
 0.5450	10.6230
 0.5460	10.6720
 0.5470	10.7340
 0.5480	10.7900
 0.5490	10.8280
 0.5500	10.8500
 0.5510	10.8680
 0.5520	10.8820
 0.5530	10.8920
 0.5540	10.9010
 0.5550	10.9060
 0.5560	10.9020
 0.5570	10.8880
 0.5580	10.8670
 0.5590	10.8430
 0.5600	10.8140
 0.5610	10.7780
 0.5620	10.7390
 0.5630	10.6990
 0.5640	10.6520
 0.5650	10.6060
 0.5660	10.5570
 0.5670	10.5060
 0.5680	10.4540
 0.5690	10.4000
 0.5700	10.3470
 0.5710	10.2980
 0.5720	10.2530
 0.5730	10.2150
 0.5740	10.1860
 0.5750	10.1650
 0.5760	10.1470
 0.5770	10.1280
 0.5780	10.1060
 0.5790	10.0820
 0.5800	10.0570
 0.5810	10.0310
 0.5820	10.0050
 0.5830	 9.9720
 0.5840	 9.9430
 0.5850	 9.9220
 0.5860	 9.8990
 0.5870	 9.8740
 0.5880	 9.8530
 0.5890	 9.8410
 0.5900	 9.8430
 0.5910	 9.8520
 0.5920	 9.8600
 0.5930	 9.8590
 0.5940	 9.8580
 0.5950	 9.8640
 0.5960	 9.8730
 0.5970	 9.8740
 0.5980	 9.8700
 0.5990	 9.8650
 0.6000	 9.8640
 0.6010	 9.8620
 0.6020	 9.8580
 0.6030	 9.8540
 0.6040	 9.8470
 0.6050	 9.8330
 0.6060	 9.8160
 0.6070	 9.7970
 0.6080	 9.7730
 0.6090	 9.7290
 0.6100	 9.6570
 0.6110	 9.5660
 0.6120	 9.5480
 0.6130	 9.5740
 0.6140	 9.6050
 0.6150	 9.6090
 0.6160	 9.6090
 0.6170	 9.6050
 0.6180	 9.5920
 0.6190	 9.5780
 0.6200	 9.5630
 0.6210	 9.5530
 0.6220	 9.5500
 0.6230	 9.5490
 0.6240	 9.5470
 0.6250	 9.5420
 0.6260	 9.5420
 0.6270	 9.5410
 0.6280	 9.5400
 0.6290	 9.5390
 0.6300	 9.5290
 0.6310	 9.5220
 0.6320	 9.5260
 0.6330	 9.5350
 0.6340	 9.5340
 0.6350	 9.5290
 0.6360	 9.5250
 0.6370	 9.5150
 0.6380	 9.5020
 0.6390	 9.4880
 0.6400	 9.4770
 0.6410	 9.4620
 0.6420	 9.4480
 0.6430	 9.4360
 0.6440	 9.4220
 0.6450	 9.4080
 0.6460	 9.3970
 0.6470	 9.3890
 0.6480	 9.3800
 0.6490	 9.3720
 0.6500	 9.3640
 0.6510	 9.3600
 0.6520	 9.3600
 0.6530	 9.3620
 0.6540	 9.3630
 0.6550	 9.3640
 0.6560	 9.3630
 0.6570	 9.3600
 0.6580	 9.3590
 0.6590	 9.3560
 0.6600	 9.3520
 0.6610	 9.3460
 0.6620	 9.3420
 0.6630	 9.3390
 0.6640	 9.3380
 0.6650	 9.3410
 0.6660	 9.3460
 0.6670	 9.3520
 0.6680	 9.3590
 0.6690	 9.3700
 0.6700	 9.3860
 0.6710	 9.4020
 0.6720	 9.4190
 0.6730	 9.4410
 0.6740	 9.4680
 0.6750	 9.4960
 0.6760	 9.5230
 0.6770	 9.5560
 0.6780	 9.5920
 0.6790	 9.6280
 0.6800	 9.6690
 0.6810	 9.7100
 0.6820	 9.7540
 0.6830	 9.8020
 0.6840	 9.8490
 0.6850	 9.8950
 0.6860	 9.9380
 0.6870	 9.9800
 0.6880	10.0220
 0.6890	10.0700
 0.6900	10.1270
 0.6910	10.1960
 0.6920	10.2770
 0.6930	10.3750
 0.6940	10.4950
 0.6950	10.6460
 0.6960	10.8270
 0.6970	11.0400
 0.6980	11.2890
 0.6990	11.5800
 0.7000	11.9110
 0.7010	12.2810
 0.7020	12.6870
 0.7030	13.1280
 0.7040	13.6040
 0.7050	14.1100
 0.7060	14.6430
 0.7070	15.2040
 0.7080	15.7940
 0.7090	16.4170
 0.7100	17.0680
 0.7110	17.7450
 0.7120	18.4480
 0.7130	19.1790
 0.7140	19.9380
 0.7150	20.7240
 0.7160	21.5340
 0.7170	22.3600
 0.7180	23.2060
 0.7190	24.0730
 0.7200	24.9590
 0.7210	25.8600
 0.7220	26.7700
 0.7230	27.6840
 0.7240	28.6000
 0.7250	29.5170
 0.7260	30.4290
 0.7270	31.3320
 0.7280	32.2240
 0.7290	33.1000
 0.7300	33.9580
 0.7310	34.7980
 0.7320	35.6150
 0.7330	36.4090
 0.7340	37.1750
 0.7350	37.9090
 0.7360	38.6180
 0.7370	39.2970
 0.7380	39.9430
 0.7390	40.5600
 0.7400	41.1440
 0.7410	41.6960
 0.7420	42.2160
 0.7430	42.7070
 0.7440	43.1640
 0.7450	43.5890
 0.7460	43.9850
 0.7470	44.3560
 0.7480	44.6970
 0.7490	45.0060
 0.7500	45.2990
 0.7510	45.5650
 0.7520	45.8050
 0.7530	46.0260
 0.7540	46.2320
 0.7550	46.4210
 0.7560	46.5910
 0.7570	46.7440
 0.7580	46.8860
 0.7590	47.0180
 0.7600	47.1370
 0.7610	47.2450
 0.7620	47.3440
 0.7630	47.4340
 0.7640	47.5160
 0.7650	47.5910
 0.7660	47.6580
 0.7670	47.7180
 0.7680	47.7740
 0.7690	47.8250
 0.7700	47.8720
 0.7710	47.9160
 0.7720	47.9600
 0.7730	48.0010
 0.7740	48.0370
 0.7750	48.0700
 0.7760	48.1050
 0.7770	48.1390
 0.7780	48.1700
 0.7790	48.1970
 0.7800	48.2280
 0.7810	48.2580
 0.7820	48.2880
 0.7830	48.3170
 0.7840	48.3440
 0.7850	48.3690
 0.7860	48.3910
 0.7870	48.4150
 0.7880	48.4350
 0.7890	48.4540
 0.7900	48.4770
 0.7910	48.5000
 0.7920	48.5200
 0.7930	48.5370
 0.7940	48.5560
 0.7950	48.5750
 0.7960	48.5920
 0.7970	48.6050
 0.7980	48.6180
 0.7990	48.6310
 0.8000	48.6430
 0.8010	48.6550
 0.8020	48.6680
 0.8030	48.6820
 0.8040	48.6940
 0.8050	48.7070
 0.8060	48.7160
 0.8070	48.7230
 0.8080	48.7320
 0.8090	48.7420
 0.8100	48.7490
 0.8110	48.7540
 0.8120	48.7600
 0.8130	48.7670
 0.8140	48.7760
 0.8150	48.7850
 0.8160	48.7920
 0.8170	48.7960
 0.8180	48.8020
 0.8190	48.8080
 0.8200	48.8140
 0.8210	48.8190
 0.8220	48.8270
 0.8230	48.8350
 0.8240	48.8420
 0.8250	48.8500
 0.8260	48.8550
 0.8270	48.8600
 0.8280	48.8690
 0.8290	48.8780
 0.8300	48.8870
 0.8310	48.8950
 0.8320	48.9060
 0.8330	48.9130
 0.8340	48.9190
 0.8350	48.9270
 0.8360	48.9390
 0.8370	48.9520
 0.8380	48.9640
 0.8390	48.9770
 0.8400	48.9870
 0.8410	49.0000
 0.8420	49.0140
 0.8430	49.0280
 0.8440	49.0410
 0.8450	49.0560
 0.8460	49.0710
 0.8470	49.0840
 0.8480	49.1000
 0.8490	49.1190
 0.8500	49.1340
 0.8510	49.1510
 0.8520	49.1710
 0.8530	49.1870
 0.8540	49.1960
 0.8550	49.2160
 0.8560	49.2350
 0.8570	49.2500
 0.8580	49.2660
 0.8590	49.2870
 0.8600	49.3070
 0.8610	49.3230
 0.8620	49.3440
 0.8630	49.3580
 0.8640	49.3730
 0.8650	49.3950
 0.8660	49.4200
 0.8670	49.4410
 0.8680	49.4590
 0.8690	49.4760
 0.8700	49.4970
 0.8710	49.5180
 0.8720	49.5380
 0.8730	49.5580
 0.8740	49.5750
 0.8750	49.5970
 0.8760	49.6230
 0.8770	49.6360
 0.8780	49.6520
 0.8790	49.6720
 0.8800	49.6950
 0.8810	49.7180
 0.8820	49.7390
 0.8830	49.7580
 0.8840	49.7760
 0.8850	49.7940
 0.8860	49.8120
 0.8870	49.8320
 0.8880	49.8540
 0.8890	49.8730
 0.8900	49.8900
 0.8910	49.9050
 0.8920	49.9200
 0.8930	49.9440
 0.8940	49.9670
 0.8950	49.9830
 0.8960	49.9970
 0.8970	50.0110
 0.8980	50.0290
 0.8990	50.0500
 0.9000	50.0690
 0.9010	50.0860
 0.9020	50.1020
 0.9030	50.1200
 0.9040	50.1430
 0.9050	50.1570
 0.9060	50.1690
 0.9070	50.1850
 0.9080	50.2040
 0.9090	50.2210
 0.9100	50.2350
 0.9110	50.2460
 0.9120	50.2640
 0.9130	50.2780
 0.9140	50.2870
 0.9150	50.2960
 0.9160	50.3130
 0.9170	50.3290
 0.9180	50.3390
 0.9190	50.3430
 0.9200	50.3530
 0.9210	50.3650
 0.9220	50.3780
 0.9230	50.3930
 0.9240	50.3950
 0.9250	50.4030
 0.9260	50.4140
 0.9270	50.4140
 0.9280	50.4030
 0.9290	50.4030
 0.9300	50.4160
 0.9310	50.4190
 0.9320	50.4180
 0.9330	50.4190
 0.9340	50.4200
 0.9350	50.4160
 0.9360	50.4110
 0.9370	50.4070
 0.9380	50.4050
 0.9390	50.4010
 0.9400	50.3960
 0.9410	50.3900
 0.9420	50.3850
 0.9430	50.3840
 0.9440	50.3680
 0.9450	50.3520
 0.9460	50.3450
 0.9470	50.3230
 0.9480	50.3080
 0.9490	50.2910
 0.9500	50.2620
 0.9510	50.2290
 0.9520	50.2010
 0.9530	50.1780
 0.9540	50.1560
 0.9550	50.1290
 0.9560	50.0910
 0.9570	50.0570
 0.9580	50.0390
 0.9590	50.0190
 0.9600	49.9930
 0.9610	49.9660
 0.9620	49.9460
 0.9630	49.9280
 0.9640	49.9020
 0.9650	49.8810
 0.9660	49.8760
 0.9670	49.8720
 0.9680	49.8670
 0.9690	49.8580
 0.9700	49.8460
 0.9710	49.8440
 0.9720	49.8440
 0.9730	49.8400
 0.9740	49.8310
 0.9750	49.8310
 0.9760	49.8370
 0.9770	49.8410
 0.9780	49.8370
 0.9790	49.8480
 0.9800	49.8570
 0.9810	49.8570
 0.9820	49.8520
 0.9830	49.8660
 0.9840	49.8830
 0.9850	49.8930
 0.9860	49.8990
 0.9870	49.9260
 0.9880	49.9370
 0.9890	49.9430
 0.9900	49.9680
 0.9910	49.9770
 0.9920	49.9880
 0.9930	50.0060
 0.9940	50.0220
 0.9950	50.0330
 0.9960	50.0510
 0.9970	50.0730
 0.9980	50.0920
 0.9990	50.1160
 1.0000	50.1290
 1.0010	51.2950
 1.0020	51.3130
 1.0030	51.3290
 1.0040	51.3440
 1.0050	51.3610
 1.0060	51.3770
 1.0070	51.3960
 1.0080	51.4140
 1.0090	51.4320
 1.0100	51.4500
 1.0110	51.4680
 1.0120	51.4860
 1.0130	51.5030
 1.0140	51.5210
 1.0150	51.5370
 1.0160	51.5600
 1.0170	51.5800
 1.0180	51.5990
 1.0190	51.6190
 1.0200	51.6360
 1.0210	51.6560
 1.0220	51.6800
 1.0230	51.6990
 1.0240	51.7180
 1.0250	51.7370
 1.0260	51.7540
 1.0270	51.7720
 1.0280	51.7930
 1.0290	51.8130
 1.0300	51.8290
 1.0310	51.8480
 1.0320	51.8700
 1.0330	51.8900
 1.0340	51.9070
 1.0350	51.9260
 1.0360	51.9400
 1.0370	51.9540
 1.0380	51.9680
 1.0390	51.9810
 1.0400	51.9970
 1.0410	52.0130
 1.0420	52.0280
 1.0430	52.0450
 1.0440	52.0600
 1.0450	52.0720
 1.0460	52.0850
 1.0470	52.0960
 1.0480	52.1090
 1.0490	52.1250
 1.0500	52.1390
 1.0510	52.1540
 1.0520	52.1680
 1.0530	52.1810
 1.0540	52.1890
 1.0550	52.2020
 1.0560	52.2180
 1.0570	52.2290
 1.0580	52.2390
 1.0590	52.2490
 1.0600	52.2540
 1.0610	52.2620
 1.0620	52.2720
 1.0630	52.2820
 1.0640	52.2930
 1.0650	52.3010
 1.0660	52.3080
 1.0670	52.3160
 1.0680	52.3240
 1.0690	52.3300
 1.0700	52.3370
 1.0710	52.3480
 1.0720	52.3560
 1.0730	52.3590
 1.0740	52.3670
 1.0750	52.3760
 1.0760	52.3850
 1.0770	52.3950
 1.0780	52.4040
 1.0790	52.4100
 1.0800	52.4160
 1.0810	52.4230
 1.0820	52.4290
 1.0830	52.4340
 1.0840	52.4410
 1.0850	52.4480
 1.0860	52.4560
 1.0870	52.4620
 1.0880	52.4660
 1.0890	52.4720
 1.0900	52.4770
 1.0910	52.4840
 1.0920	52.4970
 1.0930	52.5030
 1.0940	52.5070
 1.0950	52.5100
 1.0960	52.5090
 1.0970	52.5120
 1.0980	52.5180
 1.0990	52.5220
 1.1000	52.5280
 1.1010	52.5330
 1.1020	52.5370
 1.1030	52.5390
 1.1040	52.5440
 1.1050	52.5490
 1.1060	52.5510
 1.1070	52.5540
 1.1080	52.5560
 1.1090	52.5570
 1.1100	52.5580
 1.1110	52.5620
 1.1120	52.5620
 1.1130	52.5620
 1.1140	52.5600
 1.1150	52.5570
 1.1160	52.5520
 1.1170	52.5440
 1.1180	52.5360
 1.1190	52.5260
 1.1200	52.5170
 1.1210	52.5070
 1.1220	52.4960
 1.1230	52.4820
 1.1240	52.4630
 1.1250	52.4410
 1.1260	52.4140
 1.1270	52.3850
 1.1280	52.3530
 1.1290	52.3160
 1.1300	52.2760
 1.1310	52.2300
 1.1320	52.1780
 1.1330	52.1230
 1.1340	52.0640
 1.1350	52.0000
 1.1360	51.9330
 1.1370	51.8610
 1.1380	51.7840
 1.1390	51.7020
 1.1400	51.6170
 1.1410	51.5300
 1.1420	51.4400
 1.1430	51.3470
 1.1440	51.2530
 1.1450	51.1520
 1.1460	51.0590
 1.1470	50.9660
 1.1480	50.8760
 1.1490	50.7880
 1.1500	50.7030
 1.1510	50.6180
 1.1520	50.5380
 1.1530	50.4610
 1.1540	50.3910
 1.1550	50.3250
 1.1560	50.2650
 1.1570	50.2120
 1.1580	50.1620
 1.1590	50.1160
 1.1600	50.0760
 1.1610	50.0390
 1.1620	50.0060
 1.1630	49.9750
 1.1640	49.9460
 1.1650	49.9200
 1.1660	49.8980
 1.1670	49.8780
 1.1680	49.8620
 1.1690	49.8460
 1.1700	49.8320
 1.1710	49.8180
 1.1720	49.8070
 1.1730	49.7940
 1.1740	49.7830
 1.1750	49.7720
 1.1760	49.7600
 1.1770	49.7490
 1.1780	49.7360
 1.1790	49.7220
 1.1800	49.7060
 1.1810	49.6880
 1.1820	49.6710
 1.1830	49.6550
 1.1840	49.6380
 1.1850	49.6230
 1.1860	49.6080
 1.1870	49.5950
 1.1880	49.5820
 1.1890	49.5690
 1.1900	49.5590
 1.1910	49.5520
 1.1920	49.5450
 1.1930	49.5370
 1.1940	49.5330
 1.1950	49.5300
 1.1960	49.5290
 1.1970	49.5280
 1.1980	49.5290
 1.1990	49.5280
 1.2000	49.5290
 1.2010	49.5350
 1.2020	49.5440
 1.2030	49.5530
 1.2040	49.5650
 1.2050	49.5780
 1.2060	49.5910
 1.2070	49.6060
 1.2080	49.6200
 1.2090	49.6360
 1.2100	49.6570
 1.2110	49.6800
 1.2120	49.7060
 1.2130	49.7340
 1.2140	49.7640
 1.2150	49.7930
 1.2160	49.8250
 1.2170	49.8610
 1.2180	49.8940
 1.2190	49.9280
 1.2200	49.9650
 1.2210	50.0040
 1.2220	50.0420
 1.2230	50.0800
 1.2240	50.1210
 1.2250	50.1590
 1.2260	50.1980
 1.2270	50.2370
 1.2280	50.2740
 1.2290	50.3080
 1.2300	50.3430
 1.2310	50.3770
 1.2320	50.4090
 1.2330	50.4410
 1.2340	50.4730
 1.2350	50.5040
 1.2360	50.5330
 1.2370	50.5600
 1.2380	50.5880
 1.2390	50.6130
 1.2400	50.6350
 1.2410	50.6610
 1.2420	50.6840
 1.2430	50.7050
 1.2440	50.7290
 1.2450	50.7500
 1.2460	50.7700
 1.2470	50.7930
 1.2480	50.8180
 1.2490	50.8400
 1.2500	50.8600
 1.2510	50.8790
 1.2520	50.8960
 1.2530	50.9130
 1.2540	50.9300
 1.2550	50.9470
 1.2560	50.9620
 1.2570	50.9740
 1.2580	50.9860
 1.2590	50.9970
 1.2600	51.0070
 1.2610	51.0160
 1.2620	51.0250
 1.2630	51.0330
 1.2640	51.0410
 1.2650	51.0480
 1.2660	51.0530
 1.2670	51.0600
 1.2680	51.0650
 1.2690	51.0690
 1.2700	51.0720
 1.2710	51.0770
 1.2720	51.0780
 1.2730	51.0780
 1.2740	51.0790
 1.2750	51.0750
 1.2760	51.0700
 1.2770	51.0670
 1.2780	51.0630
 1.2790	51.0570
 1.2800	51.0500
 1.2810	51.0430
 1.2820	51.0350
 1.2830	51.0250
 1.2840	51.0150
 1.2850	51.0040
 1.2860	50.9910
 1.2870	50.9740
 1.2880	50.9560
 1.2890	50.9360
 1.2900	50.9130
 1.2910	50.8890
 1.2920	50.8640
 1.2930	50.8390
 1.2940	50.8110
 1.2950	50.7830
 1.2960	50.7530
 1.2970	50.7180
 1.2980	50.6830
 1.2990	50.6470
 1.3000	50.6100
 1.3010	50.5730
 1.3020	50.5330
 1.3030	50.4900
 1.3040	50.4440
 1.3050	50.3980
 1.3060	50.3510
 1.3070	50.3030
 1.3080	50.2540
 1.3090	50.2030
 1.3100	50.1480
 1.3110	50.0910
 1.3120	50.0320
 1.3130	49.9690
 1.3140	49.9050
 1.3150	49.8390
 1.3160	49.7720
 1.3170	49.7040
 1.3180	49.6350
 1.3190	49.5620
 1.3200	49.4850
 1.3210	49.4030
 1.3220	49.3210
 1.3230	49.2390
 1.3240	49.1550
 1.3250	49.0700
 1.3260	48.9810
 1.3270	48.8870
 1.3280	48.7910
 1.3290	48.6930
 1.3300	48.5920
 1.3310	48.4900
 1.3320	48.3870
 1.3330	48.2800
 1.3340	48.1730
 1.3350	48.0640
 1.3360	47.9530
 1.3370	47.8420
 1.3380	47.7300
 1.3390	47.6200
 1.3400	47.5070
 1.3410	47.3950
 1.3420	47.2830
 1.3430	47.1700
 1.3440	47.0580
 1.3450	46.9480
 1.3460	46.8380
 1.3470	46.7290
 1.3480	46.6200
 1.3490	46.5130
 1.3500	46.4070
 1.3510	46.3020
 1.3520	46.1980
 1.3530	46.0930
 1.3540	45.9880
 1.3550	45.8820
 1.3560	45.7760
 1.3570	45.6680
 1.3580	45.5590
 1.3590	45.4480
 1.3600	45.3320
 1.3610	45.2130
 1.3620	45.0910
 1.3630	44.9650
 1.3640	44.8360
 1.3650	44.7020
 1.3660	44.5610
 1.3670	44.4150
 1.3680	44.2600
 1.3690	44.0950
 1.3700	43.9200
 1.3710	43.7330
 1.3720	43.5340
 1.3730	43.3190
 1.3740	43.0900
 1.3750	42.8430
 1.3760	42.5740
 1.3770	42.2850
 1.3780	41.9720
 1.3790	41.6370
 1.3800	41.2790
 1.3810	40.8940
 1.3820	40.4890
 1.3830	40.0620
 1.3840	39.6110
 1.3850	39.1380
 1.3860	38.6470
 1.3870	38.1310
 1.3880	37.6060
 1.3890	37.0620
 1.3900	36.5050
 1.3910	35.9440
 1.3920	35.3710
 1.3930	34.7900
 1.3940	34.2070
 1.3950	33.6160
 1.3960	33.0290
 1.3970	32.4480
 1.3980	31.8730
 1.3990	31.3150
 1.4000	30.7670
 1.4010	30.2290
 1.4020	29.7100
 1.4030	29.2020
 1.4040	28.7140
 1.4050	28.2480
 1.4060	27.7990
 1.4070	27.3760
 1.4080	26.9730
 1.4090	26.5870
 1.4100	26.2250
 1.4110	25.8810
 1.4120	25.5580
 1.4130	25.2560
 1.4140	24.9730
 1.4150	24.7110
 1.4160	24.4660
 1.4170	24.2370
 1.4180	24.0270
 1.4190	23.8300
 1.4200	23.6470
 1.4210	23.4790
 1.4220	23.3220
 1.4230	23.1780
 1.4240	23.0470
 1.4250	22.9250
 1.4260	22.8140
 1.4270	22.7110
 1.4280	22.6180
 1.4290	22.5320
 1.4300	22.4560
 1.4310	22.3870
 1.4320	22.3260
 1.4330	22.2710
 1.4340	22.2240
 1.4350	22.1810
 1.4360	22.1430
 1.4370	22.1120
 1.4380	22.0840
 1.4390	22.0600
 1.4400	22.0430
 1.4410	22.0290
 1.4420	22.0190
 1.4430	22.0130
 1.4440	22.0090
 1.4450	22.0080
 1.4460	22.0100
 1.4470	22.0140
 1.4480	22.0200
 1.4490	22.0290
 1.4500	22.0400
 1.4510	22.0520
 1.4520	22.0670
 1.4530	22.0840
 1.4540	22.1020
 1.4550	22.1230
 1.4560	22.1450
 1.4570	22.1700
 1.4580	22.1980
 1.4590	22.2300
 1.4600	22.2650
 1.4610	22.3050
 1.4620	22.3490
 1.4630	22.3960
 1.4640	22.4490
 1.4650	22.5070
 1.4660	22.5710
 1.4670	22.6390
 1.4680	22.7130
 1.4690	22.7910
 1.4700	22.8740
 1.4710	22.9620
 1.4720	23.0540
 1.4730	23.1500
 1.4740	23.2500
 1.4750	23.3520
 1.4760	23.4590
 1.4770	23.5690
 1.4780	23.6820
 1.4790	23.8000
 1.4800	23.9160
 1.4810	24.0340
 1.4820	24.1540
 1.4830	24.2740
 1.4840	24.3990
 1.4850	24.5260
 1.4860	24.6530
 1.4870	24.7800
 1.4880	24.9050
 1.4890	25.0320
 1.4900	25.1610
 1.4910	25.2910
 1.4920	25.4210
 1.4930	25.5540
 1.4940	25.6860
 1.4950	25.8190
 1.4960	25.9510
 1.4970	26.0820
 1.4980	26.2150
 1.4990	26.3480
 1.5000	26.4820
 1.5010	26.6170
 1.5020	26.7510
 1.5030	26.8860
 1.5040	27.0200
 1.5050	27.1520
 1.5060	27.2850
 1.5070	27.4190
 1.5080	27.5520
 1.5090	27.6840
 1.5100	27.8140
 1.5110	27.9440
 1.5120	28.0760
 1.5130	28.2050
 1.5140	28.3360
 1.5150	28.4650
 1.5160	28.5910
 1.5170	28.7190
 1.5180	28.8440
 1.5190	28.9690
 1.5200	29.0940
 1.5210	29.2180
 1.5220	29.3410
 1.5230	29.4630
 1.5240	29.5820
 1.5250	29.7010
 1.5260	29.8180
 1.5270	29.9330
 1.5280	30.0490
 1.5290	30.1630
 1.5300	30.2750
 1.5310	30.3880
 1.5320	30.4990
 1.5330	30.6090
 1.5340	30.7190
 1.5350	30.8280
 1.5360	30.9380
 1.5370	31.0450
 1.5380	31.1520
 1.5390	31.2570
 1.5400	31.3610
 1.5410	31.4640
 1.5420	31.5670
 1.5430	31.6670
 1.5440	31.7680
 1.5450	31.8660
 1.5460	31.9650
 1.5470	32.0650
 1.5480	32.1650
 1.5490	32.2630
 1.5500	32.3600
 1.5510	32.4540
 1.5520	32.5470
 1.5530	32.6380
 1.5540	32.7310
 1.5550	32.8220
 1.5560	32.9110
 1.5570	33.0020
 1.5580	33.0900
 1.5590	33.1770
 1.5600	33.2640
 1.5610	33.3480
 1.5620	33.4330
 1.5630	33.5170
 1.5640	33.6000
 1.5650	33.6830
 1.5660	33.7650
 1.5670	33.8460
 1.5680	33.9270
 1.5690	34.0050
 1.5700	34.0820
 1.5710	34.1580
 1.5720	34.2350
 1.5730	34.3110
 1.5740	34.3870
 1.5750	34.4620
 1.5760	34.5380
 1.5770	34.6140
 1.5780	34.6900
 1.5790	34.7670
 1.5800	34.8430
 1.5810	34.9170
 1.5820	34.9920
 1.5830	35.0630
 1.5840	35.1360
 1.5850	35.2080
 1.5860	35.2790
 1.5870	35.3520
 1.5880	35.4250
 1.5890	35.4990
 1.5900	35.5730
 1.5910	35.6450
 1.5920	35.7190
 1.5930	35.7920
 1.5940	35.8640
 1.5950	35.9380
 1.5960	36.0100
 1.5970	36.0810
 1.5980	36.1520
 1.5990	36.2210
 1.6000	36.2900
 1.6010	36.3590
 1.6020	36.4270
 1.6030	36.4960
 1.6040	36.5650
 1.6050	36.6320
 1.6060	36.6990
 1.6070	36.7650
 1.6080	36.8290
 1.6090	36.8920
 1.6100	36.9560
 1.6110	37.0190
 1.6120	37.0810
 1.6130	37.1430
 1.6140	37.2020
 1.6150	37.2600
 1.6160	37.3160
 1.6170	37.3710
 1.6180	37.4270
 1.6190	37.4820
 1.6200	37.5370
 1.6210	37.5910
 1.6220	37.6420
 1.6230	37.6900
 1.6240	37.7370
 1.6250	37.7830
 1.6260	37.8300
 1.6270	37.8770
 1.6280	37.9240
 1.6290	37.9690
 1.6300	38.0120
 1.6310	38.0550
 1.6320	38.0960
 1.6330	38.1370
 1.6340	38.1760
 1.6350	38.2140
 1.6360	38.2520
 1.6370	38.2860
 1.6380	38.3200
 1.6390	38.3510
 1.6400	38.3810
 1.6410	38.4070
 1.6420	38.4300
 1.6430	38.4520
 1.6440	38.4700
 1.6450	38.4880
 1.6460	38.5030
 1.6470	38.5160
 1.6480	38.5250
 1.6490	38.5310
 1.6500	38.5340
 1.6510	38.5340
 1.6520	38.5300
 1.6530	38.5220
 1.6540	38.5130
 1.6550	38.5000
 1.6560	38.4850
 1.6570	38.4700
 1.6580	38.4530
 1.6590	38.4350
 1.6600	38.4140
 1.6610	38.3930
 1.6620	38.3730
 1.6630	38.3500
 1.6640	38.3280
 1.6650	38.3080
 1.6660	38.2860
 1.6670	38.2650
 1.6680	38.2460
 1.6690	38.2270
 1.6700	38.2070
 1.6710	38.1860
 1.6720	38.1670
 1.6730	38.1470
 1.6740	38.1250
 1.6750	38.1030
 1.6760	38.0780
 1.6770	38.0520
 1.6780	38.0250
 1.6790	37.9960
 1.6800	37.9650
 1.6810	37.9330
 1.6820	37.8980
 1.6830	37.8600
 1.6840	37.8190
 1.6850	37.7740
 1.6860	37.7250
 1.6870	37.6760
 1.6880	37.6250
 1.6890	37.5740
 1.6900	37.5210
 1.6910	37.4640
 1.6920	37.4090
 1.6930	37.3530
 1.6940	37.2970
 1.6950	37.2430
 1.6960	37.1860
 1.6970	37.1280
 1.6980	37.0690
 1.6990	37.0070
 1.7000	36.9460
 1.7010	36.8860
 1.7020	36.8220
 1.7030	36.7570
 1.7040	36.6920
 1.7050	36.6270
 1.7060	36.5610
 1.7070	36.4960
 1.7080	36.4320
 1.7090	36.3660
 1.7100	36.3010
 1.7110	36.2370
 1.7120	36.1740
 1.7130	36.1100
 1.7140	36.0470
 1.7150	35.9870
 1.7160	35.9260
 1.7170	35.8670
 1.7180	35.8110
 1.7190	35.7550
 1.7200	35.7020
 1.7210	35.6520
 1.7220	35.6050
 1.7230	35.5580
 1.7240	35.5080
 1.7250	35.4640
 1.7260	35.4220
 1.7270	35.3840
 1.7280	35.3570
 1.7290	35.3330
 1.7300	35.3130
 1.7310	35.2970
 1.7320	35.2840
 1.7330	35.2740
 1.7340	35.2700
 1.7350	35.2630
 1.7360	35.2580
 1.7370	35.2490
 1.7380	35.2390
 1.7390	35.2220
 1.7400	35.2030
 1.7410	35.1770
 1.7420	35.1430
 1.7430	35.1070
 1.7440	35.0630
 1.7450	35.0190
 1.7460	34.9740
 1.7470	34.9250
 1.7480	34.8740
 1.7490	34.8210
 1.7500	34.7660
 1.7510	34.7110
 1.7520	34.6530
 1.7530	34.5980
 1.7540	34.5420
 1.7550	34.4890
 1.7560	34.4360
 1.7570	34.3820
 1.7580	34.3280
 1.7590	34.2770
 1.7600	34.2300
 1.7610	34.1850
 1.7620	34.1420
 1.7630	34.1020
 1.7640	34.0660
 1.7650	34.0350
 1.7660	34.0050
 1.7670	33.9790
 1.7680	33.9540
 1.7690	33.9310
 1.7700	33.9080
 1.7710	33.8870
 1.7720	33.8680
 1.7730	33.8510
 1.7740	33.8330
 1.7750	33.8160
 1.7760	33.7990
 1.7770	33.7790
 1.7780	33.7620
 1.7790	33.7460
 1.7800	33.7320
 1.7810	33.7200
 1.7820	33.7090
 1.7830	33.6990
 1.7840	33.6910
 1.7850	33.6830
 1.7860	33.6780
 1.7870	33.6750
 1.7880	33.6710
 1.7890	33.6690
 1.7900	33.6690
 1.7910	33.6710
 1.7920	33.6760
 1.7930	33.6820
 1.7940	33.6880
 1.7950	33.6960
 1.7960	33.7080
 1.7970	33.7200
 1.7980	33.7340
 1.7990	33.7480
 1.8000	33.7640
 1.8010	33.7790
 1.8020	33.7940
 1.8030	33.8090
 1.8040	33.8230
 1.8050	33.8380
 1.8060	33.8540
 1.8070	33.8680
 1.8080	33.8830
 1.8090	33.8980
 1.8100	33.9120
 1.8110	33.9250
 1.8120	33.9390
 1.8130	33.9520
 1.8140	33.9630
 1.8150	33.9750
 1.8160	33.9840
 1.8170	33.9930
 1.8180	34.0020
 1.8190	34.0110
 1.8200	34.0190
 1.8210	34.0260
 1.8220	34.0320
 1.8230	34.0380
 1.8240	34.0410
 1.8250	34.0410
 1.8260	34.0410
 1.8270	34.0400
 1.8280	34.0360
 1.8290	34.0310
 1.8300	34.0240
 1.8310	34.5540
 1.8320	34.5390
 1.8330	34.5190
 1.8340	34.4980
 1.8350	34.4750
 1.8360	34.4480
 1.8370	34.4220
 1.8380	34.3890
 1.8390	34.3510
 1.8400	34.3090
 1.8410	34.2600
 1.8420	34.2040
 1.8430	34.1410
 1.8440	34.0730
 1.8450	33.9970
 1.8460	33.9150
 1.8470	33.8240
 1.8480	33.7220
 1.8490	33.6110
 1.8500	33.4890
 1.8510	33.3570
 1.8520	33.2110
 1.8530	33.0550
 1.8540	32.8880
 1.8550	32.7020
 1.8560	32.5060
 1.8570	32.2980
 1.8580	32.0700
 1.8590	31.8310
 1.8600	31.5810
 1.8610	31.3140
 1.8620	31.0240
 1.8630	30.7220
 1.8640	30.3970
 1.8650	30.0480
 1.8660	29.6820
 1.8670	29.2940
 1.8680	28.8850
 1.8690	28.4570
 1.8700	28.0070
 1.8710	27.5370
 1.8720	27.0530
 1.8730	26.5510
 1.8740	26.0350
 1.8750	25.5140
 1.8760	24.9790
 1.8770	24.4390
 1.8780	23.8960
 1.8790	23.3390
 1.8800	22.7890
 1.8810	22.2370
 1.8820	21.6870
 1.8830	21.1370
 1.8840	20.5950
 1.8850	20.0520
 1.8860	19.5180
 1.8870	19.0010
 1.8880	18.4970
 1.8890	18.0160
 1.8900	17.5560
 1.8910	17.1180
 1.8920	16.6950
 1.8930	16.3020
 1.8940	15.9300
 1.8950	15.5810
 1.8960	15.2600
 1.8970	14.9630
 1.8980	14.6890
 1.8990	14.4420
 1.9000	14.2120
 1.9010	14.0050
 1.9020	13.8140
 1.9030	13.6440
 1.9040	13.4930
 1.9050	13.3580
 1.9060	13.2410
 1.9070	13.1390
 1.9080	13.0470
 1.9090	12.9640
 1.9100	12.8900
 1.9110	12.8230
 1.9120	12.7660
 1.9130	12.7140
 1.9140	12.6680
 1.9150	12.6280
 1.9160	12.5950
 1.9170	12.5670
 1.9180	12.5430
 1.9190	12.5230
 1.9200	12.5070
 1.9210	12.4920
 1.9220	12.4790
 1.9230	12.4700
 1.9240	12.4630
 1.9250	12.4580
 1.9260	12.4560
 1.9270	12.4580
 1.9280	12.4600
 1.9290	12.4660
 1.9300	12.4730
 1.9310	12.4760
 1.9320	12.4820
 1.9330	12.4910
 1.9340	12.5000
 1.9350	12.5120
 1.9360	12.5280
 1.9370	12.5440
 1.9380	12.5620
 1.9390	12.5810
 1.9400	12.6030
 1.9410	12.6270
 1.9420	12.6480
 1.9430	12.6730
 1.9440	12.6990
 1.9450	12.7260
 1.9460	12.7550
 1.9470	12.7870
 1.9480	12.8190
 1.9490	12.8520
 1.9500	12.8830
 1.9510	12.9180
 1.9520	12.9530
 1.9530	12.9900
 1.9540	13.0310
 1.9550	13.0710
 1.9560	13.1140
 1.9570	13.1550
 1.9580	13.1960
 1.9590	13.2370
 1.9600	13.2770
 1.9610	13.3190
 1.9620	13.3620
 1.9630	13.4060
 1.9640	13.4520
 1.9650	13.4990
 1.9660	13.5480
 1.9670	13.5970
 1.9680	13.6490
 1.9690	13.7010
 1.9700	13.7560
 1.9710	13.8120
 1.9720	13.8690
 1.9730	13.9280
 1.9740	13.9850
 1.9750	14.0410
 1.9760	14.0980
 1.9770	14.1560
 1.9780	14.2150
 1.9790	14.2770
 1.9800	14.3410
 1.9810	14.4050
 1.9820	14.4700
 1.9830	14.5350
 1.9840	14.6010
 1.9850	14.6680
 1.9860	14.7350
 1.9870	14.8010
 1.9880	14.8700
 1.9890	14.9410
 1.9900	15.0150
 1.9910	15.0930
 1.9920	15.1660
 1.9930	15.2380
 1.9940	15.3100
 1.9950	15.3770
 1.9960	15.4480
 1.9970	15.5190
 1.9980	15.5910
 1.9990	15.6630
 2.0000	15.7350
 2.0010	15.8060
 2.0020	15.8830
 2.0030	15.9620
 2.0040	16.0400
 2.0050	16.1160
 2.0060	16.1910
 2.0070	16.2660
 2.0080	16.3400
 2.0090	16.4110
 2.0100	16.4820
 2.0110	16.5530
 2.0120	16.6190
 2.0130	16.6860
 2.0140	16.7580
 2.0150	16.8250
 2.0160	16.8900
 2.0170	16.9560
 2.0180	17.0220
 2.0190	17.0860
 2.0200	17.1500
 2.0210	17.2140
 2.0220	17.2760
 2.0230	17.3350
 2.0240	17.3940
 2.0250	17.4530
 2.0260	17.5100
 2.0270	17.5670
 2.0280	17.6220
 2.0290	17.6770
 2.0300	17.7300
 2.0310	17.7830
 2.0320	17.8380
 2.0330	17.8890
 2.0340	17.9390
 2.0350	17.9890
 2.0360	18.0350
 2.0370	18.0810
 2.0380	18.1250
 2.0390	18.1700
 2.0400	18.2150
 2.0410	18.2570
 2.0420	18.2970
 2.0430	18.3350
 2.0440	18.3740
 2.0450	18.4090
 2.0460	18.4470
 2.0470	18.4890
 2.0480	18.5270
 2.0490	18.5640
 2.0500	18.6000
 2.0510	18.6340
 2.0520	18.6690
 2.0530	18.7040
 2.0540	18.7400
 2.0550	18.7780
 2.0560	18.8170
 2.0570	18.8550
 2.0580	18.8920
 2.0590	18.9290
 2.0600	18.9650
 2.0610	19.0020
 2.0620	19.0410
 2.0630	19.0800
 2.0640	19.1190
 2.0650	19.1580
 2.0660	19.2000
 2.0670	19.2390
 2.0680	19.2760
 2.0690	19.3160
 2.0700	19.3600
 2.0710	19.4000
 2.0720	19.4390
 2.0730	19.4810
 2.0740	19.5190
 2.0750	19.5520
 2.0760	19.5880
 2.0770	19.6230
 2.0780	19.6610
 2.0790	19.6990
 2.0800	19.7380
 2.0810	19.7820
 2.0820	19.8230
 2.0830	19.8620
 2.0840	19.9010
 2.0850	19.9380
 2.0860	19.9760
 2.0870	20.0150
 2.0880	20.0540
 2.0890	20.0910
 2.0900	20.1250
 2.0910	20.1620
 2.0920	20.1990
 2.0930	20.2350
 2.0940	20.2720
 2.0950	20.3060
 2.0960	20.3350
 2.0970	20.3680
 2.0980	20.4020
 2.0990	20.4360
 2.1000	20.4710
 2.1010	20.5060
 2.1020	20.5400
 2.1030	20.5730
 2.1040	20.6030
 2.1050	20.6360
 2.1060	20.6700
 2.1070	20.7070
 2.1080	20.7410
 2.1090	20.7790
 2.1100	20.8130
 2.1110	20.8400
 2.1120	20.8750
 2.1130	20.9130
 2.1140	20.9470
 2.1150	20.9840
 2.1160	21.0180
 2.1170	21.0480
 2.1180	21.0810
 2.1190	21.1180
 2.1200	21.1530
 2.1210	21.1880
 2.1220	21.2210
 2.1230	21.2520
 2.1240	21.2800
 2.1250	21.3090
 2.1260	21.3360
 2.1270	21.3640
 2.1280	21.3920
 2.1290	21.4200
 2.1300	21.4470
 2.1310	21.4740
 2.1320	21.5030
 2.1330	21.5310
 2.1340	21.5570
 2.1350	21.5830
 2.1360	21.6060
 2.1370	21.6310
 2.1380	21.6520
 2.1390	21.6780
 2.1400	21.7070
 2.1410	21.7380
 2.1420	21.7680
 2.1430	21.8030
 2.1440	21.8300
 2.1450	21.8520
 2.1460	21.8770
 2.1470	21.8980
 2.1480	21.9230
 2.1490	21.9500
 2.1500	21.9770
 2.1510	22.0070
 2.1520	22.0350
 2.1530	22.0630
 2.1540	22.0890
 2.1550	22.1120
 2.1560	22.1370
 2.1570	22.1620
 2.1580	22.1860
 2.1590	22.2110
 2.1600	22.2370
 2.1610	22.2600
 2.1620	22.2830
 2.1630	22.3060
 2.1640	22.3270
 2.1650	22.3490
 2.1660	22.3700
 2.1670	22.3940
 2.1680	22.4210
 2.1690	22.4450
 2.1700	22.4680
 2.1710	22.4920
 2.1720	22.5130
 2.1730	22.5370
 2.1740	22.5630
 2.1750	22.5880
 2.1760	22.6150
 2.1770	22.6420
 2.1780	22.6700
 2.1790	22.6970
 2.1800	22.7250
 2.1810	22.7530
 2.1820	22.7800
 2.1830	22.8090
 2.1840	22.8370
 2.1850	22.8640
 2.1860	22.8920
 2.1870	22.9200
 2.1880	22.9490
 2.1890	22.9800
 2.1900	23.0090
 2.1910	23.0380
 2.1920	23.0670
 2.1930	23.0950
 2.1940	23.1230
 2.1950	23.1550
 2.1960	23.1820
 2.1970	23.2070
 2.1980	23.2310
 2.1990	23.2500
 2.2000	23.2740
 2.2010	23.3040
 2.2020	23.3310
 2.2030	23.3630
 2.2040	23.3890
 2.2050	23.4090
 2.2060	23.4280
 2.2070	23.4480
 2.2080	23.4640
 2.2090	23.4820
 2.2100	23.5010
 2.2110	23.5190
 2.2120	23.5380
 2.2130	23.5520
 2.2140	23.5650
 2.2150	23.5750
 2.2160	23.5830
 2.2170	23.5860
 2.2180	23.5870
 2.2190	23.5850
 2.2200	23.5750
 2.2210	23.5680
 2.2220	23.5660
 2.2230	23.5560
 2.2240	23.5440
 2.2250	23.5290
 2.2260	23.5100
 2.2270	23.4870
 2.2280	23.4640
 2.2290	23.4340
 2.2300	23.4000
 2.2310	23.3570
 2.2320	23.3090
 2.2330	23.2580
 2.2340	23.2040
 2.2350	23.1450
 2.2360	23.0860
 2.2370	23.0250
 2.2380	22.9620
 2.2390	22.9000
 2.2400	22.8310
 2.2410	22.7570
 2.2420	22.6820
 2.2430	22.6010
 2.2440	22.5220
 2.2450	22.4440
 2.2460	22.3630
 2.2470	22.2800
 2.2480	22.1970
 2.2490	22.1100
 2.2500	22.0260
 2.2510	21.9420
 2.2520	21.8590
 2.2530	21.7780
 2.2540	21.6990
 2.2550	21.6200
 2.2560	21.5410
 2.2570	21.4610
 2.2580	21.3820
 2.2590	21.3020
 2.2600	21.2250
 2.2610	21.1500
 2.2620	21.0770
 2.2630	21.0070
 2.2640	20.9370
 2.2650	20.8730
 2.2660	20.8150
 2.2670	20.7550
 2.2680	20.6960
 2.2690	20.6400
 2.2700	20.5830
 2.2710	20.5340
 2.2720	20.4920
 2.2730	20.4490
 2.2740	20.4120
 2.2750	20.3710
 2.2760	20.3280
 2.2770	20.2880
 2.2780	20.2480
 2.2790	20.2090
 2.2800	20.1740
 2.2810	20.1380
 2.2820	20.1040
 2.2830	20.0670
 2.2840	20.0300
 2.2850	19.9930
 2.2860	19.9530
 2.2870	19.9120
 2.2880	19.8710
 2.2890	19.8280
 2.2900	19.7820
 2.2910	19.7350
 2.2920	19.6830
 2.2930	19.6320
 2.2940	19.5810
 2.2950	19.5300
 2.2960	19.4840
 2.2970	19.4310
 2.2980	19.3740
 2.2990	19.3160
 2.3000	19.2540
 2.3010	19.1900
 2.3020	19.1310
 2.3030	19.0710
 2.3040	19.0130
 2.3050	18.9600
 2.3060	18.9120
 2.3070	18.8730
 2.3080	18.8390
 2.3090	18.8090
 2.3100	18.7840
 2.3110	18.7650
 2.3120	18.7510
 2.3130	18.7450
 2.3140	18.7380
 2.3150	18.7360
 2.3160	18.7340
 2.3170	18.7350
 2.3180	18.7380
 2.3190	18.7500
 2.3200	18.7480
 2.3210	18.7450
 2.3220	18.7330
 2.3230	18.7070
 2.3240	18.6880
 2.3250	18.6690
 2.3260	18.6490
 2.3270	18.6310
 2.3280	18.6050
 2.3290	18.5760
 2.3300	18.5450
 2.3310	18.5070
 2.3320	18.4740
 2.3330	18.4410
 2.3340	18.4050
 2.3350	18.3680
 2.3360	18.3310
 2.3370	18.2950
 2.3380	18.2550
 2.3390	18.2130
 2.3400	18.1740
 2.3410	18.1310
 2.3420	18.0930
 2.3430	18.0670
 2.3440	18.0300
 2.3450	17.9820
 2.3460	17.9450
 2.3470	17.9040
 2.3480	17.8730
 2.3490	17.8540
 2.3500	17.8350
 2.3510	17.8220
 2.3520	17.8060
 2.3530	17.7940
 2.3540	17.7840
 2.3550	17.7580
 2.3560	17.7410
 2.3570	17.7280
 2.3580	17.7170
 2.3590	17.7160
 2.3600	17.7080
 2.3610	17.6980
 2.3620	17.6800
 2.3630	17.6560
 2.3640	17.6380
 2.3650	17.6070
 2.3660	17.5770
 2.3670	17.5560
 2.3680	17.5280
 2.3690	17.4940
 2.3700	17.4590
 2.3710	17.4130
 2.3720	17.3720
 2.3730	17.3450
 2.3740	17.3170
 2.3750	17.2940
 2.3760	17.2720
 2.3770	17.2540
 2.3780	17.2300
 2.3790	17.2020
 2.3800	17.1710
 2.3810	17.1340
 2.3820	17.1060
 2.3830	17.0740
 2.3840	17.0380
 2.3850	17.0050
 2.3860	16.9730
 2.3870	16.9440
 2.3880	16.9150
 2.3890	16.8860
 2.3900	16.8500
 2.3910	16.8200
 2.3920	16.8020
 2.3930	16.7820
 2.3940	16.7490
 2.3950	16.7100
 2.3960	16.6730
 2.3970	16.6330
 2.3980	16.5960
 2.3990	16.5650
 2.4000	16.5260
 2.4010	16.4850
 2.4020	16.4430
 2.4030	16.3970
 2.4040	16.3630
 2.4050	16.3370
 2.4060	16.3110
 2.4070	16.2860
 2.4080	16.2560
 2.4090	16.2240
 2.4100	16.2030
 2.4110	16.1880
 2.4120	16.1710
 2.4130	16.1340
 2.4140	16.0860
 2.4150	16.0340
 2.4160	15.9800
 2.4170	15.9360
 2.4180	15.8900
 2.4190	15.8490
 2.4200	15.8110
 2.4210	15.7790
 2.4220	15.7420
 2.4230	15.6940
 2.4240	15.6540
 2.4250	15.6090
 2.4260	15.5710
 2.4270	15.5400
 2.4280	15.5060
 2.4290	15.4670
 2.4300	15.4340
 2.4310	15.3890
 2.4320	15.3380
 2.4330	15.2990
 2.4340	15.2550
 2.4350	15.2390
 2.4360	15.2160
 2.4370	15.1820
 2.4380	15.1570
 2.4390	15.1130
 2.4400	15.0830
 2.4410	15.0640
 2.4420	15.0330
 2.4430	14.9990
 2.4440	14.9600
 2.4450	14.9070
 2.4460	14.8500
 2.4470	14.8190
 2.4480	14.7830
 2.4490	14.7500
 2.4500	14.7300
 2.4510	14.6820
 2.4520	14.6480
 2.4530	14.6240
 2.4540	14.5950
 2.4550	14.5870
 2.4560	14.5510
 2.4570	14.4970
 2.4580	14.4650
 2.4590	14.4210
 2.4600	14.3850
 2.4610	14.3630
 2.4620	14.3160
 2.4630	14.2690
 2.4640	14.2350
 2.4650	14.1850
 2.4660	14.1530
 2.4670	14.1530
 2.4680	14.1300
 2.4690	14.1110
 2.4700	14.0980
 2.4710	14.0730
 2.4720	14.0560
 2.4730	14.0520
 2.4740	14.0430
 2.4750	14.0220
 2.4760	14.0100
 2.4770	14.0290
 2.4780	14.0130
 2.4790	13.9500
 2.4800	13.9210
 2.4810	13.8800
 2.4820	13.8870
 2.4830	13.9460
 2.4840	13.9570
 2.4850	13.9550
 2.4860	13.9210
 2.4870	13.8660
 2.4880	13.8580
 2.4890	13.8500
 2.4900	13.8160
 2.4910	13.7950
 2.4920	13.7850
 2.4930	13.7700
 2.4940	13.8120
 2.4950	13.8340
 2.4960	13.7870
 2.4970	13.7710
 2.4980	13.7430
 2.4990	13.7180
 2.5000	13.7510
