Name: Adenostoma fasciculatum 1
Type: vegetation
Class: Shrub
Genus: Adenostoma
Species: fasciculatum
Sample No.: VH218
Owner: UCSB
Wavelength Range: TIR
Origin: 34.5084; -119.7687; WGS84
Collection Date: 10/13/2013
Description: Samples were collected as part of the HyspIRI Airborne Campaign. 48 individual plants were sampled in three times in 2013 - spring  summer  and fall. The name of the sample includes a 1  2  or 3 which references a different individual of the species. Samples were taken to JPL and processed within 48 hours of collection. The same leaves were processed in the Nicolet and then measured using the ASD.
Measurement: Hemispherical reflectance
First Column: X
Second Column: Y
X Units: Wavelength (micrometers)
Y Units: Reflectance (percentage)
First X Value: 2.501
Last X Value: 15.387
Number of X Values: 1737
Additional Information: vegetation.shrub.adenostoma.fasciculatum.tir.vh218.ucsb.nicolet.ancillary.txt

 2.5010	 7.7030
 2.5030	 7.4200
 2.5040	 7.4340
 2.5050	 7.4090
 2.5060	 7.2950
 2.5070	 7.1270
 2.5090	 7.2990
 2.5100	 7.3980
 2.5110	 7.2880
 2.5120	 7.4910
 2.5140	 7.7160
 2.5150	 7.7130
 2.5160	 7.6580
 2.5170	 7.5240
 2.5180	 7.4620
 2.5200	 7.2400
 2.5210	 7.0810
 2.5220	 7.1960
 2.5230	 7.3960
 2.5250	 7.3960
 2.5260	 7.3540
 2.5270	 7.2520
 2.5280	 7.3540
 2.5290	 7.4890
 2.5310	 7.6080
 2.5320	 7.5320
 2.5330	 7.4080
 2.5340	 7.3310
 2.5360	 7.4190
 2.5370	 7.5920
 2.5380	 7.6640
 2.5390	 7.3960
 2.5410	 7.2410
 2.5420	 7.1790
 2.5430	 7.2990
 2.5440	 7.4350
 2.5460	 7.4720
 2.5470	 7.3540
 2.5480	 7.5270
 2.5490	 7.4080
 2.5510	 7.3770
 2.5520	 7.3770
 2.5530	 7.4660
 2.5540	 7.4960
 2.5560	 7.5170
 2.5570	 7.6450
 2.5580	 7.7120
 2.5590	 7.5660
 2.5610	 7.4630
 2.5620	 7.4400
 2.5630	 7.4320
 2.5640	 7.4820
 2.5660	 7.5890
 2.5670	 7.4650
 2.5680	 7.5250
 2.5700	 7.5580
 2.5710	 7.7650
 2.5720	 7.7900
 2.5730	 7.6620
 2.5750	 7.4520
 2.5760	 7.5710
 2.5770	 7.6700
 2.5790	 7.6660
 2.5800	 7.5850
 2.5810	 7.3430
 2.5820	 7.2000
 2.5840	 7.1980
 2.5850	 7.2240
 2.5860	 7.2950
 2.5880	 7.3270
 2.5890	 7.4190
 2.5900	 7.4220
 2.5910	 7.6510
 2.5930	 7.5330
 2.5940	 7.3730
 2.5950	 7.4450
 2.5970	 7.6720
 2.5980	 7.6230
 2.5990	 7.4290
 2.6000	 7.5030
 2.6020	 7.4650
 2.6030	 7.3600
 2.6040	 7.3940
 2.6060	 7.2330
 2.6070	 7.1560
 2.6080	 7.2110
 2.6100	 7.3140
 2.6110	 7.2470
 2.6120	 7.3750
 2.6140	 7.4360
 2.6150	 7.2650
 2.6160	 7.0240
 2.6180	 7.1400
 2.6190	 7.2570
 2.6200	 7.3020
 2.6220	 7.2370
 2.6230	 7.2230
 2.6240	 7.2020
 2.6260	 7.1900
 2.6270	 7.2420
 2.6280	 7.2590
 2.6300	 6.9270
 2.6310	 6.8240
 2.6320	 6.9810
 2.6340	 7.1630
 2.6350	 7.2720
 2.6360	 7.3690
 2.6380	 7.2150
 2.6390	 7.0200
 2.6400	 6.9190
 2.6420	 6.8340
 2.6430	 6.7650
 2.6440	 6.7880
 2.6460	 6.8220
 2.6470	 6.8500
 2.6480	 6.7040
 2.6500	 6.7350
 2.6510	 6.7110
 2.6520	 6.7840
 2.6540	 6.7530
 2.6550	 6.7730
 2.6560	 6.6590
 2.6580	 6.6070
 2.6590	 6.6360
 2.6610	 6.7780
 2.6620	 6.6430
 2.6630	 6.5280
 2.6650	 6.3700
 2.6660	 6.3700
 2.6670	 6.4530
 2.6690	 6.3450
 2.6700	 6.2510
 2.6720	 6.2520
 2.6730	 6.2360
 2.6740	 6.4000
 2.6760	 6.2220
 2.6770	 5.8960
 2.6780	 5.7480
 2.6800	 5.7960
 2.6810	 5.6610
 2.6830	 5.8300
 2.6840	 6.0020
 2.6850	 6.0830
 2.6870	 6.0430
 2.6880	 6.0580
 2.6900	 5.8740
 2.6910	 5.8460
 2.6920	 5.9310
 2.6940	 6.0090
 2.6950	 5.7660
 2.6970	 5.5490
 2.6980	 5.5090
 2.6990	 5.6530
 2.7010	 5.4800
 2.7020	 5.2630
 2.7040	 5.3730
 2.7050	 5.5430
 2.7060	 5.5940
 2.7080	 5.5160
 2.7090	 5.3860
 2.7110	 5.3690
 2.7120	 5.4180
 2.7130	 5.4990
 2.7150	 5.3730
 2.7160	 5.3250
 2.7180	 5.2570
 2.7190	 5.2820
 2.7210	 5.0750
 2.7220	 5.1470
 2.7230	 5.2220
 2.7250	 5.2110
 2.7260	 5.2310
 2.7280	 5.4210
 2.7290	 5.2250
 2.7310	 4.9550
 2.7320	 5.1330
 2.7330	 5.0200
 2.7350	 4.9590
 2.7360	 5.0970
 2.7380	 5.0370
 2.7390	 5.0560
 2.7410	 4.9070
 2.7420	 4.5530
 2.7440	 4.3440
 2.7450	 5.0470
 2.7470	 5.3000
 2.7480	 5.1130
 2.7490	 5.0200
 2.7510	 4.6400
 2.7520	 4.0080
 2.7540	 4.1410
 2.7550	 4.2560
 2.7570	 3.7510
 2.7580	 4.0250
 2.7600	 4.5050
 2.7610	 4.4180
 2.7630	 4.6570
 2.7640	 5.0710
 2.7660	 4.9890
 2.7670	 4.5470
 2.7680	 4.8730
 2.7700	 4.5770
 2.7710	 4.3260
 2.7730	 4.8110
 2.7740	 5.0440
 2.7760	 5.3270
 2.7770	 5.1080
 2.7790	 4.7450
 2.7800	 4.9300
 2.7820	 5.0790
 2.7830	 5.1430
 2.7850	 5.0620
 2.7860	 4.9370
 2.7880	 4.6890
 2.7890	 4.6720
 2.7910	 4.7500
 2.7920	 4.8820
 2.7940	 5.3770
 2.7950	 5.4180
 2.7970	 5.2270
 2.7980	 4.8530
 2.8000	 4.4340
 2.8010	 4.5350
 2.8030	 4.7450
 2.8040	 4.7310
 2.8060	 4.5400
 2.8070	 4.5830
 2.8090	 4.8330
 2.8110	 4.9220
 2.8120	 4.8410
 2.8140	 4.6540
 2.8150	 4.6350
 2.8170	 4.9650
 2.8180	 5.1210
 2.8200	 4.7650
 2.8210	 4.6560
 2.8230	 4.6030
 2.8240	 4.4140
 2.8260	 4.4580
 2.8270	 4.5150
 2.8290	 4.6680
 2.8300	 4.7000
 2.8320	 4.9830
 2.8340	 5.2210
 2.8350	 5.1830
 2.8370	 4.7630
 2.8380	 4.5780
 2.8400	 4.8090
 2.8410	 4.8430
 2.8430	 4.8100
 2.8440	 4.9780
 2.8460	 4.8480
 2.8480	 4.7170
 2.8490	 4.6960
 2.8510	 4.7920
 2.8520	 4.9190
 2.8540	 5.0150
 2.8550	 4.8860
 2.8570	 4.9350
 2.8590	 4.7840
 2.8600	 4.6900
 2.8620	 4.6200
 2.8630	 4.7270
 2.8650	 4.8200
 2.8660	 4.8810
 2.8680	 4.9740
 2.8700	 5.0610
 2.8710	 5.0810
 2.8730	 5.2430
 2.8740	 5.2560
 2.8760	 5.1690
 2.8780	 4.9600
 2.8790	 4.6250
 2.8810	 4.6630
 2.8820	 4.9410
 2.8840	 4.2630
 2.8860	 3.9590
 2.8870	 4.3410
 2.8890	 4.7020
 2.8900	 4.6170
 2.8920	 4.4500
 2.8940	 4.4380
 2.8950	 4.5680
 2.8970	 4.7360
 2.8980	 4.9570
 2.9000	 5.1040
 2.9020	 5.1170
 2.9030	 4.9850
 2.9050	 4.9930
 2.9070	 4.9140
 2.9080	 4.5090
 2.9100	 4.5950
 2.9120	 4.8660
 2.9130	 5.3160
 2.9150	 5.3180
 2.9160	 4.9770
 2.9180	 5.0130
 2.9200	 5.0670
 2.9210	 5.1580
 2.9230	 4.9670
 2.9250	 4.9240
 2.9260	 4.8740
 2.9280	 4.8510
 2.9300	 4.7500
 2.9310	 4.8320
 2.9330	 4.8910
 2.9350	 4.8140
 2.9360	 4.7240
 2.9380	 4.8270
 2.9400	 5.1040
 2.9410	 5.0130
 2.9430	 4.6320
 2.9450	 4.6540
 2.9460	 4.8810
 2.9480	 5.0590
 2.9500	 5.1400
 2.9510	 5.3580
 2.9530	 4.6440
 2.9550	 4.6360
 2.9560	 5.1530
 2.9580	 5.5510
 2.9600	 5.8360
 2.9610	 5.3530
 2.9630	 4.8580
 2.9650	 5.9350
 2.9660	 6.9480
 2.9680	 6.2300
 2.9700	 6.3330
 2.9720	 5.2490
 2.9730	 4.7780
 2.9750	 6.1990
 2.9770	 5.8980
 2.9780	 5.1110
 2.9800	 2.8470
 2.9820	 2.7340
 2.9840	 3.1270
 2.9850	 4.9190
 2.9870	 6.2290
 2.9890	 7.1160
 2.9900	 5.7060
 2.9920	 6.7580
 2.9940	 8.1380
 2.9960	 7.6790
 2.9970	 7.8440
 2.9990	 7.2100
 3.0010	 5.3560
 3.0030	 3.9820
 3.0040	 6.0700
 3.0060	 6.2800
 3.0080	 4.5930
 3.0100	 1.5070
 3.0110	 1.6710
 3.0130	 3.8650
 3.0150	 4.4860
 3.0170	 5.4490
 3.0180	 5.7340
 3.0200	 5.0140
 3.0220	 4.4740
 3.0240	 4.6620
 3.0250	 4.3820
 3.0270	 4.6620
 3.0290	 4.3310
 3.0310	 3.7780
 3.0320	 4.3710
 3.0340	 3.7970
 3.0360	 3.8830
 3.0380	 5.2540
 3.0400	 4.0000
 3.0410	 2.0310
 3.0430	 2.6370
 3.0450	 4.2150
 3.0470	 5.1510
 3.0480	 5.8120
 3.0500	 5.3410
 3.0520	 2.8960
 3.0540	 3.2130
 3.0560	 5.9970
 3.0570	 5.7400
 3.0590	 3.2900
 3.0610	 2.6100
 3.0630	 3.1860
 3.0650	 4.9780
 3.0660	 4.8630
 3.0680	 3.6730
 3.0700	 5.3540
 3.0720	 6.3470
 3.0740	 4.5770
 3.0760	 4.6230
 3.0770	 5.1470
 3.0790	 5.5380
 3.0810	 5.4120
 3.0830	 4.6360
 3.0850	 4.4460
 3.0870	 4.5080
 3.0880	 4.4530
 3.0900	 4.5370
 3.0920	 4.8610
 3.0940	 5.3290
 3.0960	 5.2960
 3.0980	 5.0730
 3.0990	 5.0820
 3.1010	 5.1590
 3.1030	 5.1230
 3.1050	 5.0340
 3.1070	 4.7670
 3.1090	 4.5480
 3.1110	 4.6550
 3.1120	 4.8990
 3.1140	 5.0920
 3.1160	 5.0920
 3.1180	 4.5980
 3.1200	 4.6150
 3.1220	 4.6370
 3.1240	 4.5910
 3.1260	 4.9350
 3.1270	 5.0030
 3.1290	 4.7910
 3.1310	 5.0110
 3.1330	 4.9620
 3.1350	 4.3970
 3.1370	 4.3170
 3.1390	 5.1490
 3.1410	 5.7180
 3.1430	 4.1330
 3.1450	 4.0250
 3.1460	 3.7980
 3.1480	 2.4160
 3.1500	 3.5740
 3.1520	 4.6400
 3.1540	 4.9930
 3.1560	 5.6340
 3.1580	 5.7820
 3.1600	 5.8060
 3.1620	 6.8880
 3.1640	 6.8160
 3.1660	 3.9860
 3.1680	 2.3670
 3.1700	 1.8930
 3.1710	 0.3680
 3.1730	 3.4480
 3.1750	 7.6850
 3.1770	 4.5590
 3.1790	 3.0700
 3.1810	 3.6000
 3.1830	 3.0080
 3.1850	 3.0930
 3.1870	 3.7330
 3.1890	 4.7750
 3.1910	 5.0920
 3.1930	 4.4300
 3.1950	 4.0810
 3.1970	 4.5200
 3.1990	 5.0840
 3.2010	 4.9070
 3.2030	 4.8290
 3.2050	 4.6580
 3.2070	 4.4410
 3.2090	 4.5350
 3.2110	 4.7790
 3.2130	 4.7930
 3.2150	 4.6180
 3.2170	 4.5200
 3.2190	 4.8330
 3.2210	 4.9430
 3.2230	 4.8600
 3.2250	 4.6530
 3.2270	 4.7030
 3.2290	 4.7470
 3.2310	 4.7820
 3.2330	 4.6390
 3.2350	 4.8000
 3.2370	 4.7400
 3.2390	 4.5360
 3.2410	 4.5670
 3.2430	 4.6090
 3.2450	 4.1910
 3.2470	 4.3200
 3.2490	 4.6280
 3.2510	 4.9690
 3.2530	 4.7540
 3.2550	 4.3140
 3.2570	 4.1880
 3.2590	 4.7130
 3.2610	 5.5800
 3.2630	 5.9160
 3.2650	 5.7070
 3.2670	 5.1070
 3.2690	 4.5920
 3.2720	 4.6820
 3.2740	 4.6760
 3.2760	 4.6970
 3.2780	 4.7230
 3.2800	 4.8470
 3.2820	 4.7910
 3.2840	 4.7870
 3.2860	 5.0170
 3.2880	 5.1680
 3.2900	 5.0570
 3.2920	 4.5570
 3.2940	 4.6600
 3.2960	 4.5090
 3.2990	 4.0980
 3.3010	 4.0410
 3.3030	 3.9790
 3.3050	 4.5140
 3.3070	 4.6940
 3.3090	 4.2420
 3.3110	 4.2350
 3.3130	 4.8060
 3.3150	 4.9090
 3.3180	 4.7230
 3.3200	 4.5740
 3.3220	 4.9690
 3.3240	 4.9240
 3.3260	 4.6310
 3.3280	 4.8280
 3.3300	 4.8460
 3.3330	 4.7110
 3.3350	 4.4750
 3.3370	 4.2640
 3.3390	 4.4310
 3.3410	 4.6630
 3.3430	 4.7920
 3.3450	 4.7370
 3.3480	 4.7030
 3.3500	 4.7410
 3.3520	 4.7470
 3.3540	 4.6510
 3.3560	 4.7560
 3.3580	 4.8070
 3.3610	 4.7140
 3.3630	 4.6040
 3.3650	 4.6510
 3.3670	 4.6810
 3.3690	 4.6360
 3.3720	 4.4720
 3.3740	 4.5030
 3.3760	 4.5710
 3.3780	 4.5970
 3.3800	 4.6270
 3.3830	 4.4220
 3.3850	 4.2620
 3.3870	 4.4610
 3.3890	 4.5510
 3.3910	 4.6150
 3.3940	 4.5630
 3.3960	 4.2090
 3.3980	 3.9310
 3.4000	 4.2420
 3.4020	 4.7670
 3.4050	 4.8740
 3.4070	 4.7780
 3.4090	 4.7700
 3.4110	 4.7160
 3.4140	 4.7610
 3.4160	 4.8140
 3.4180	 5.1000
 3.4200	 5.2480
 3.4230	 5.2530
 3.4250	 5.6870
 3.4270	 6.1220
 3.4290	 5.9590
 3.4320	 5.6170
 3.4340	 5.4910
 3.4360	 5.3280
 3.4390	 5.4410
 3.4410	 5.4050
 3.4430	 4.9990
 3.4450	 5.0500
 3.4480	 5.2730
 3.4500	 5.2180
 3.4520	 5.1290
 3.4550	 5.1160
 3.4570	 5.4190
 3.4590	 5.2630
 3.4620	 4.8550
 3.4640	 5.0160
 3.4660	 5.2020
 3.4680	 5.1990
 3.4710	 5.1690
 3.4730	 5.1110
 3.4750	 4.8480
 3.4780	 4.8470
 3.4800	 4.8570
 3.4820	 4.9200
 3.4850	 4.7780
 3.4870	 4.7600
 3.4890	 4.8840
 3.4920	 4.9410
 3.4940	 4.9110
 3.4970	 4.9120
 3.4990	 4.9620
 3.5010	 5.0980
 3.5040	 5.1070
 3.5060	 5.2610
 3.5080	 5.5810
 3.5110	 5.8140
 3.5130	 5.6570
 3.5160	 5.5490
 3.5180	 5.4190
 3.5200	 5.2970
 3.5230	 5.0060
 3.5250	 4.7980
 3.5270	 4.9640
 3.5300	 5.0620
 3.5320	 5.0380
 3.5350	 5.1110
 3.5370	 5.1240
 3.5400	 5.1090
 3.5420	 5.1790
 3.5440	 5.3900
 3.5470	 5.0820
 3.5490	 4.8610
 3.5520	 4.9930
 3.5540	 5.0540
 3.5570	 4.9470
 3.5590	 4.9770
 3.5610	 5.0580
 3.5640	 5.0080
 3.5660	 4.8730
 3.5690	 4.9250
 3.5710	 5.2730
 3.5740	 5.1070
 3.5760	 4.7660
 3.5790	 4.9460
 3.5810	 5.0440
 3.5840	 5.0010
 3.5860	 4.9620
 3.5890	 4.8580
 3.5910	 5.0960
 3.5930	 5.5100
 3.5960	 5.4870
 3.5980	 5.3610
 3.6010	 5.1250
 3.6030	 5.1850
 3.6060	 5.3360
 3.6080	 5.3650
 3.6110	 5.4720
 3.6140	 5.5060
 3.6160	 5.1230
 3.6190	 4.8770
 3.6210	 4.9820
 3.6240	 5.0590
 3.6260	 4.9780
 3.6290	 4.9980
 3.6310	 5.0420
 3.6340	 5.1060
 3.6360	 5.1430
 3.6390	 5.2400
 3.6410	 5.2540
 3.6440	 5.2200
 3.6470	 5.1270
 3.6490	 5.0940
 3.6520	 5.0120
 3.6540	 5.2140
 3.6570	 5.1740
 3.6590	 4.9670
 3.6620	 5.0130
 3.6650	 4.9810
 3.6670	 4.9500
 3.6700	 5.1570
 3.6720	 5.3330
 3.6750	 5.2510
 3.6780	 5.0270
 3.6800	 5.0730
 3.6830	 5.0680
 3.6850	 4.9750
 3.6880	 4.9580
 3.6910	 5.0920
 3.6930	 5.1430
 3.6960	 5.0940
 3.6990	 5.0670
 3.7010	 5.1140
 3.7040	 5.1200
 3.7060	 5.0730
 3.7090	 4.9750
 3.7120	 4.9020
 3.7140	 4.9420
 3.7170	 5.0940
 3.7200	 5.1340
 3.7220	 5.0650
 3.7250	 5.1260
 3.7280	 5.2400
 3.7300	 5.2280
 3.7330	 5.1370
 3.7360	 5.1520
 3.7390	 5.1440
 3.7410	 5.1640
 3.7440	 5.1990
 3.7470	 5.1500
 3.7490	 5.1100
 3.7520	 5.2060
 3.7550	 5.3780
 3.7580	 5.4080
 3.7600	 5.1660
 3.7630	 4.8290
 3.7660	 4.6930
 3.7680	 5.0030
 3.7710	 5.1230
 3.7740	 4.9950
 3.7770	 5.0990
 3.7790	 5.1420
 3.7820	 5.2250
 3.7850	 5.3250
 3.7880	 5.2900
 3.7900	 5.2690
 3.7930	 5.3550
 3.7960	 5.1760
 3.7990	 5.0770
 3.8020	 5.0810
 3.8040	 5.1020
 3.8070	 5.1880
 3.8100	 5.2420
 3.8130	 5.2140
 3.8160	 5.2650
 3.8180	 5.2220
 3.8210	 5.2680
 3.8240	 5.1350
 3.8270	 5.0090
 3.8300	 4.9170
 3.8330	 5.0800
 3.8350	 5.1890
 3.8380	 5.1780
 3.8410	 5.1670
 3.8440	 5.2580
 3.8470	 5.2820
 3.8500	 5.2070
 3.8520	 5.2730
 3.8550	 5.3510
 3.8580	 5.3710
 3.8610	 5.3010
 3.8640	 5.1640
 3.8670	 5.2110
 3.8700	 5.3970
 3.8730	 5.4550
 3.8750	 5.3510
 3.8780	 5.2230
 3.8810	 5.1750
 3.8840	 5.2550
 3.8870	 5.3860
 3.8900	 5.4080
 3.8930	 5.3340
 3.8960	 5.3140
 3.8990	 5.1980
 3.9020	 5.1780
 3.9050	 5.0690
 3.9080	 5.1850
 3.9110	 5.4340
 3.9140	 5.4680
 3.9160	 5.4660
 3.9190	 5.4100
 3.9220	 5.2210
 3.9250	 5.2460
 3.9280	 5.3490
 3.9310	 5.3930
 3.9340	 5.4530
 3.9370	 5.4630
 3.9400	 5.3460
 3.9430	 5.3300
 3.9460	 5.4140
 3.9490	 5.3810
 3.9520	 5.3580
 3.9550	 5.3920
 3.9580	 5.3350
 3.9610	 5.3260
 3.9640	 5.4190
 3.9670	 5.3960
 3.9700	 5.3480
 3.9730	 5.3590
 3.9770	 5.2890
 3.9800	 5.2920
 3.9830	 5.4130
 3.9860	 5.4330
 3.9890	 5.3660
 3.9920	 5.3890
 3.9950	 5.4400
 3.9980	 5.4030
 4.0010	 5.3330
 4.0040	 5.3060
 4.0070	 5.2790
 4.0100	 5.3200
 4.0130	 5.3830
 4.0170	 5.4370
 4.0200	 5.4110
 4.0230	 5.3640
 4.0260	 5.3290
 4.0290	 5.4120
 4.0320	 5.4480
 4.0350	 5.4250
 4.0380	 5.3840
 4.0420	 5.4360
 4.0450	 5.4720
 4.0480	 5.3450
 4.0510	 5.2780
 4.0540	 5.4280
 4.0570	 5.5130
 4.0610	 5.4810
 4.0640	 5.5790
 4.0670	 5.5570
 4.0700	 5.4370
 4.0730	 5.4470
 4.0770	 5.4680
 4.0800	 5.6080
 4.0830	 5.5510
 4.0860	 5.4890
 4.0890	 5.4890
 4.0930	 5.3950
 4.0960	 5.3330
 4.0990	 5.4720
 4.1020	 5.5640
 4.1060	 5.4930
 4.1090	 5.3800
 4.1120	 5.5920
 4.1150	 5.7960
 4.1190	 5.6850
 4.1220	 5.4840
 4.1250	 5.4000
 4.1280	 5.4210
 4.1320	 5.5650
 4.1350	 5.5960
 4.1380	 5.4920
 4.1420	 5.4350
 4.1450	 5.3850
 4.1480	 5.4390
 4.1520	 5.5240
 4.1550	 5.5140
 4.1580	 5.4480
 4.1620	 5.3490
 4.1650	 5.4850
 4.1680	 5.6150
 4.1720	 5.5710
 4.1750	 5.5800
 4.1780	 5.5900
 4.1820	 5.5740
 4.1850	 5.5580
 4.1890	 5.5050
 4.1920	 5.4460
 4.1950	 5.4730
 4.1990	 5.5860
 4.2020	 5.6460
 4.2060	 5.6980
 4.2090	 5.7670
 4.2120	 5.6430
 4.2160	 5.6850
 4.2190	 5.9690
 4.2230	 6.0570
 4.2260	 5.9070
 4.2300	 6.1950
 4.2330	 6.1220
 4.2360	 5.7110
 4.2400	 5.6120
 4.2430	 5.7840
 4.2470	 5.9170
 4.2500	 6.0650
 4.2540	 5.7430
 4.2570	 5.5320
 4.2610	 5.6050
 4.2640	 5.8140
 4.2680	 5.9200
 4.2710	 6.0290
 4.2750	 5.8710
 4.2780	 5.6190
 4.2820	 5.6920
 4.2850	 6.0450
 4.2890	 6.0680
 4.2930	 5.7750
 4.2960	 5.6560
 4.3000	 5.7960
 4.3030	 5.9220
 4.3070	 5.7250
 4.3100	 5.6480
 4.3140	 5.6700
 4.3180	 5.6380
 4.3210	 5.6230
 4.3250	 5.5710
 4.3280	 5.6350
 4.3320	 5.6730
 4.3360	 5.6130
 4.3390	 5.5910
 4.3430	 5.6460
 4.3470	 5.5630
 4.3500	 5.4360
 4.3540	 5.3420
 4.3570	 5.3310
 4.3610	 5.3520
 4.3650	 5.4880
 4.3680	 5.5630
 4.3720	 5.5390
 4.3760	 5.4530
 4.3800	 5.3350
 4.3830	 5.3230
 4.3870	 5.4110
 4.3910	 5.4530
 4.3940	 5.5240
 4.3980	 5.4990
 4.4020	 5.5300
 4.4060	 5.5300
 4.4090	 5.4430
 4.4130	 5.3600
 4.4170	 5.3840
 4.4210	 5.4570
 4.4240	 5.4290
 4.4280	 5.4480
 4.4320	 5.4550
 4.4360	 5.4260
 4.4400	 5.3820
 4.4430	 5.2700
 4.4470	 5.2550
 4.4510	 5.3400
 4.4550	 5.3930
 4.4590	 5.4030
 4.4620	 5.4320
 4.4660	 5.4570
 4.4700	 5.3930
 4.4740	 5.3060
 4.4780	 5.4100
 4.4820	 5.4580
 4.4860	 5.4660
 4.4900	 5.4600
 4.4930	 5.3280
 4.4970	 5.2270
 4.5010	 5.3330
 4.5050	 5.3880
 4.5090	 5.3490
 4.5130	 5.3020
 4.5170	 5.2430
 4.5210	 5.2540
 4.5250	 5.2960
 4.5290	 5.2720
 4.5330	 5.2180
 4.5370	 5.2770
 4.5410	 5.3630
 4.5450	 5.3160
 4.5490	 5.3550
 4.5530	 5.3830
 4.5570	 5.3080
 4.5610	 5.2520
 4.5650	 5.2710
 4.5690	 5.2880
 4.5730	 5.2360
 4.5770	 5.2160
 4.5810	 5.3680
 4.5850	 5.2650
 4.5890	 5.1500
 4.5930	 5.2550
 4.5970	 5.3090
 4.6010	 5.1950
 4.6050	 5.1410
 4.6090	 5.1440
 4.6130	 5.1140
 4.6170	 4.9960
 4.6220	 4.9670
 4.6260	 5.1250
 4.6300	 5.3440
 4.6340	 5.3520
 4.6380	 5.3620
 4.6420	 5.2980
 4.6460	 5.2890
 4.6510	 5.3130
 4.6550	 5.2280
 4.6590	 5.2460
 4.6630	 5.2410
 4.6670	 5.1680
 4.6720	 5.2790
 4.6760	 5.2270
 4.6800	 5.2230
 4.6840	 5.3060
 4.6880	 5.2550
 4.6930	 5.2490
 4.6970	 5.3580
 4.7010	 5.3570
 4.7050	 5.2500
 4.7100	 5.2770
 4.7140	 5.3110
 4.7180	 5.2510
 4.7230	 5.2710
 4.7270	 5.3580
 4.7310	 5.3430
 4.7360	 5.2430
 4.7400	 5.2560
 4.7440	 5.2360
 4.7490	 5.2260
 4.7530	 5.1990
 4.7570	 5.1010
 4.7620	 5.0930
 4.7660	 5.2330
 4.7700	 5.2410
 4.7750	 5.2040
 4.7790	 5.0930
 4.7840	 4.9910
 4.7880	 4.8650
 4.7920	 5.0960
 4.7970	 5.1880
 4.8010	 5.1500
 4.8060	 5.2110
 4.8100	 5.2490
 4.8150	 5.2970
 4.8190	 5.2420
 4.8240	 5.0610
 4.8280	 5.1870
 4.8330	 5.2690
 4.8370	 5.3090
 4.8420	 5.2470
 4.8460	 5.3060
 4.8510	 5.3430
 4.8550	 5.3210
 4.8600	 5.2820
 4.8640	 5.3830
 4.8690	 5.4440
 4.8730	 5.3870
 4.8780	 5.3320
 4.8830	 5.3890
 4.8870	 5.4420
 4.8920	 5.4900
 4.8960	 5.4450
 4.9010	 5.4040
 4.9060	 5.3430
 4.9100	 5.2780
 4.9150	 5.2080
 4.9200	 5.3410
 4.9240	 5.4180
 4.9290	 5.4540
 4.9340	 5.4300
 4.9380	 5.4420
 4.9430	 5.4220
 4.9480	 5.4340
 4.9530	 5.3150
 4.9570	 5.2810
 4.9620	 5.3660
 4.9670	 5.4670
 4.9720	 5.4650
 4.9760	 5.4100
 4.9810	 5.3890
 4.9860	 5.4280
 4.9910	 5.4210
 4.9960	 5.4490
 5.0000	 5.3510
 5.0050	 5.3230
 5.0100	 5.3300
 5.0150	 5.4000
 5.0200	 5.4510
 5.0250	 5.4490
 5.0290	 5.3960
 5.0340	 5.4310
 5.0390	 5.4490
 5.0440	 5.4360
 5.0490	 5.3380
 5.0540	 5.3430
 5.0590	 5.3990
 5.0640	 5.4200
 5.0690	 5.4000
 5.0740	 5.5080
 5.0790	 5.6160
 5.0840	 5.5690
 5.0890	 5.4310
 5.0940	 5.4600
 5.0990	 5.4870
 5.1040	 5.4870
 5.1090	 5.4020
 5.1140	 5.4020
 5.1190	 5.4320
 5.1240	 5.4720
 5.1290	 5.4640
 5.1340	 5.4650
 5.1390	 5.4790
 5.1440	 5.5370
 5.1490	 5.4020
 5.1540	 5.3910
 5.1600	 5.4710
 5.1650	 5.4920
 5.1700	 5.5090
 5.1750	 5.5290
 5.1800	 5.5170
 5.1850	 5.4860
 5.1910	 5.4760
 5.1960	 5.4750
 5.2010	 5.4170
 5.2060	 5.4360
 5.2110	 5.5250
 5.2170	 5.5920
 5.2220	 5.5190
 5.2270	 5.5460
 5.2320	 5.5300
 5.2380	 5.5590
 5.2430	 5.5640
 5.2480	 5.4790
 5.2540	 5.4810
 5.2590	 5.5520
 5.2640	 5.5000
 5.2700	 5.4890
 5.2750	 5.5160
 5.2800	 5.5110
 5.2860	 5.4370
 5.2910	 5.4840
 5.2970	 5.5430
 5.3020	 5.6630
 5.3070	 5.6170
 5.3130	 5.4360
 5.3180	 5.2570
 5.3240	 5.2420
 5.3290	 5.3360
 5.3350	 5.4930
 5.3400	 5.4560
 5.3460	 5.4340
 5.3510	 5.4520
 5.3570	 5.4860
 5.3620	 5.4610
 5.3680	 5.4820
 5.3730	 5.4920
 5.3790	 5.4950
 5.3850	 5.3490
 5.3900	 5.2940
 5.3960	 5.4610
 5.4010	 5.6070
 5.4070	 5.4410
 5.4130	 5.3740
 5.4180	 5.4110
 5.4240	 5.3830
 5.4300	 5.3530
 5.4350	 5.4300
 5.4410	 5.3430
 5.4470	 5.3160
 5.4530	 5.3970
 5.4580	 5.4110
 5.4640	 5.2690
 5.4700	 5.2100
 5.4760	 5.1670
 5.4810	 5.2100
 5.4870	 5.1890
 5.4930	 5.2180
 5.4990	 5.1840
 5.5050	 5.1580
 5.5110	 5.1720
 5.5160	 5.2250
 5.5220	 5.1710
 5.5280	 5.1350
 5.5340	 5.0590
 5.5400	 5.0790
 5.5460	 5.1160
 5.5520	 5.1300
 5.5580	 5.0690
 5.5640	 5.0410
 5.5700	 4.9780
 5.5760	 4.9490
 5.5820	 4.8470
 5.5880	 4.8680
 5.5940	 4.8080
 5.6000	 4.8390
 5.6060	 4.8980
 5.6120	 4.8950
 5.6180	 4.8340
 5.6240	 4.8080
 5.6300	 4.6880
 5.6360	 4.6570
 5.6420	 4.6350
 5.6490	 4.7300
 5.6550	 4.7420
 5.6610	 4.7350
 5.6670	 4.7020
 5.6730	 4.7720
 5.6800	 4.7970
 5.6860	 4.6940
 5.6920	 4.5240
 5.6980	 4.5810
 5.7040	 4.5730
 5.7110	 4.4830
 5.7170	 4.3420
 5.7230	 4.4260
 5.7300	 4.5420
 5.7360	 4.5850
 5.7420	 4.5110
 5.7490	 4.5640
 5.7550	 4.5530
 5.7620	 4.5300
 5.7680	 4.5410
 5.7740	 4.6570
 5.7810	 4.7080
 5.7870	 4.7070
 5.7940	 4.6910
 5.8000	 4.8270
 5.8070	 4.8360
 5.8130	 4.8120
 5.8200	 4.8560
 5.8260	 4.8790
 5.8330	 4.7650
 5.8390	 4.7950
 5.8460	 4.7530
 5.8530	 4.8490
 5.8590	 4.9370
 5.8660	 4.9520
 5.8720	 4.8290
 5.8790	 4.7540
 5.8860	 4.8840
 5.8920	 5.0480
 5.8990	 4.9690
 5.9060	 5.0130
 5.9130	 4.8940
 5.9190	 4.9390
 5.9260	 4.9690
 5.9330	 5.0090
 5.9400	 4.9790
 5.9470	 5.1040
 5.9530	 5.1310
 5.9600	 5.1710
 5.9670	 5.1890
 5.9740	 5.3660
 5.9810	 5.2810
 5.9880	 5.1630
 5.9950	 5.1410
 6.0020	 5.1940
 6.0090	 5.0830
 6.0160	 5.0170
 6.0230	 4.9920
 6.0300	 5.0720
 6.0370	 5.0930
 6.0440	 5.1140
 6.0510	 4.9440
 6.0580	 5.0550
 6.0650	 5.0300
 6.0720	 5.0490
 6.0790	 5.1250
 6.0860	 5.1040
 6.0930	 5.0190
 6.1000	 5.1360
 6.1080	 5.1010
 6.1150	 5.0930
 6.1220	 5.0920
 6.1290	 5.1120
 6.1370	 4.9930
 6.1440	 5.0470
 6.1510	 5.0040
 6.1580	 5.0010
 6.1660	 5.0480
 6.1730	 5.1910
 6.1800	 5.1750
 6.1880	 5.2310
 6.1950	 5.2200
 6.2030	 5.1560
 6.2100	 5.0040
 6.2170	 5.1760
 6.2250	 5.2570
 6.2320	 5.2260
 6.2400	 5.1580
 6.2470	 5.1390
 6.2550	 5.0250
 6.2630	 5.0730
 6.2700	 5.1240
 6.2780	 5.1780
 6.2850	 5.1640
 6.2930	 5.2210
 6.3010	 5.2410
 6.3080	 5.2890
 6.3160	 5.1620
 6.3240	 5.2310
 6.3310	 5.1310
 6.3390	 5.1270
 6.3470	 5.1890
 6.3550	 5.3210
 6.3620	 5.1870
 6.3700	 5.0450
 6.3780	 4.9090
 6.3860	 4.9190
 6.3940	 4.9000
 6.4020	 4.9410
 6.4100	 4.8610
 6.4180	 4.9150
 6.4260	 4.9070
 6.4330	 4.9660
 6.4410	 5.0400
 6.4490	 5.1050
 6.4580	 4.9940
 6.4660	 5.0680
 6.4740	 4.9730
 6.4820	 4.9440
 6.4900	 4.9030
 6.4980	 4.9890
 6.5060	 5.0230
 6.5140	 5.0660
 6.5230	 4.8460
 6.5310	 4.8780
 6.5390	 4.9570
 6.5470	 4.9830
 6.5550	 4.9100
 6.5640	 4.9120
 6.5720	 4.7270
 6.5800	 4.8400
 6.5890	 4.9280
 6.5970	 4.9570
 6.6060	 4.8280
 6.6140	 4.9410
 6.6220	 4.9550
 6.6310	 4.8900
 6.6390	 4.7910
 6.6480	 4.8970
 6.6560	 4.8070
 6.6650	 4.8840
 6.6740	 5.0010
 6.6820	 4.9530
 6.6910	 4.8000
 6.6990	 4.8620
 6.7080	 4.8210
 6.7170	 4.9050
 6.7260	 4.8180
 6.7340	 4.7400
 6.7430	 4.7070
 6.7520	 4.8040
 6.7610	 4.7450
 6.7690	 4.7580
 6.7780	 4.7740
 6.7870	 4.8850
 6.7960	 4.7450
 6.8050	 4.7000
 6.8140	 4.6310
 6.8230	 4.7370
 6.8320	 4.8140
 6.8410	 4.9130
 6.8500	 4.8020
 6.8590	 4.8240
 6.8680	 4.8010
 6.8770	 4.8260
 6.8860	 4.7830
 6.8950	 4.8640
 6.9050	 4.8100
 6.9140	 4.9090
 6.9230	 4.8240
 6.9320	 4.8130
 6.9420	 4.8670
 6.9510	 4.9370
 6.9600	 4.7930
 6.9700	 4.8950
 6.9790	 5.0180
 6.9880	 5.0950
 6.9980	 5.0000
 7.0070	 5.0280
 7.0170	 4.9570
 7.0260	 4.9810
 7.0360	 4.9670
 7.0450	 4.9920
 7.0550	 4.8820
 7.0650	 4.9420
 7.0740	 4.9330
 7.0840	 4.9210
 7.0940	 4.8250
 7.1030	 4.9560
 7.1130	 4.8990
 7.1230	 4.8810
 7.1330	 4.8440
 7.1420	 4.9610
 7.1520	 4.8640
 7.1620	 4.9460
 7.1720	 5.0220
 7.1820	 5.0470
 7.1920	 4.9090
 7.2020	 4.9040
 7.2120	 4.8050
 7.2220	 4.9160
 7.2320	 4.9060
 7.2420	 4.9490
 7.2520	 4.8720
 7.2620	 4.9430
 7.2730	 4.8260
 7.2830	 4.8040
 7.2930	 4.7360
 7.3030	 4.8120
 7.3140	 4.8690
 7.3240	 4.9840
 7.3340	 4.9490
 7.3450	 4.8990
 7.3550	 4.7370
 7.3660	 4.7680
 7.3760	 4.8020
 7.3870	 4.8770
 7.3970	 4.8730
 7.4080	 4.9140
 7.4180	 4.7510
 7.4290	 4.8000
 7.4400	 4.7870
 7.4500	 4.8480
 7.4610	 4.7970
 7.4720	 4.8950
 7.4830	 4.8390
 7.4930	 4.8630
 7.5040	 4.7480
 7.5150	 4.8510
 7.5260	 4.8030
 7.5370	 4.8340
 7.5480	 4.8270
 7.5590	 4.9030
 7.5700	 4.7180
 7.5810	 4.7240
 7.5920	 4.7920
 7.6030	 4.8740
 7.6140	 4.8360
 7.6260	 4.9610
 7.6370	 4.8110
 7.6480	 4.7720
 7.6590	 4.6400
 7.6710	 4.7050
 7.6820	 4.7770
 7.6930	 4.8860
 7.7050	 4.8860
 7.7160	 4.8810
 7.7280	 4.7330
 7.7390	 4.7640
 7.7510	 4.7100
 7.7630	 4.7680
 7.7740	 4.6400
 7.7860	 4.7150
 7.7980	 4.7250
 7.8090	 4.9130
 7.8210	 4.8610
 7.8330	 4.7630
 7.8450	 4.6460
 7.8570	 4.8700
 7.8690	 4.8450
 7.8810	 4.9010
 7.8930	 4.8000
 7.9050	 4.7370
 7.9170	 4.6420
 7.9290	 4.7130
 7.9410	 4.6780
 7.9530	 4.8800
 7.9650	 4.8450
 7.9780	 4.8500
 7.9900	 4.7780
 8.0020	 4.9050
 8.0150	 4.7680
 8.0270	 4.7800
 8.0390	 4.8620
 8.0520	 5.0360
 8.0640	 5.0520
 8.0770	 5.1610
 8.0900	 5.0070
 8.1020	 5.0500
 8.1150	 4.8890
 8.1280	 4.9830
 8.1400	 4.8710
 8.1530	 5.0030
 8.1660	 4.9030
 8.1790	 5.0070
 8.1920	 4.9730
 8.2050	 4.9740
 8.2180	 4.8900
 8.2310	 5.0450
 8.2440	 5.0180
 8.2570	 5.0100
 8.2700	 4.9730
 8.2830	 5.2120
 8.2970	 4.9420
 8.3100	 4.8630
 8.3230	 4.7470
 8.3370	 4.9150
 8.3500	 4.7830
 8.3640	 4.8130
 8.3770	 4.7530
 8.3910	 4.9010
 8.4040	 4.8140
 8.4180	 4.9280
 8.4320	 5.0290
 8.4450	 5.3110
 8.4590	 5.1510
 8.4730	 5.1910
 8.4870	 5.2520
 8.5010	 5.3430
 8.5150	 5.0620
 8.5290	 5.0810
 8.5430	 5.1340
 8.5570	 5.3460
 8.5710	 5.2320
 8.5850	 5.2480
 8.5990	 5.0450
 8.6140	 5.1580
 8.6280	 5.1710
 8.6420	 5.3150
 8.6570	 5.1340
 8.6710	 5.2260
 8.6860	 5.1640
 8.7000	 5.3550
 8.7150	 5.3170
 8.7300	 5.3510
 8.7440	 5.2510
 8.7590	 5.4830
 8.7740	 5.3120
 8.7890	 5.3600
 8.8040	 5.2590
 8.8190	 5.2510
 8.8340	 5.2640
 8.8490	 5.5130
 8.8640	 5.4320
 8.8790	 5.3910
 8.8940	 5.1990
 8.9100	 5.3700
 8.9250	 5.2000
 8.9400	 5.3750
 8.9560	 5.1670
 8.9710	 5.2190
 8.9870	 5.0850
 9.0020	 5.1220
 9.0180	 4.9440
 9.0340	 5.2070
 9.0500	 5.2470
 9.0650	 5.3460
 9.0810	 5.2510
 9.0970	 5.5380
 9.1130	 5.4100
 9.1290	 5.3380
 9.1450	 5.1710
 9.1610	 5.2490
 9.1780	 5.2290
 9.1940	 5.4300
 9.2100	 5.2920
 9.2270	 5.4920
 9.2430	 5.2900
 9.2600	 5.4420
 9.2760	 5.3600
 9.2930	 5.3610
 9.3090	 5.3030
 9.3260	 5.4170
 9.3430	 5.1500
 9.3600	 5.3530
 9.3770	 5.3690
 9.3940	 5.2860
 9.4110	 4.9520
 9.4280	 5.2470
 9.4450	 5.2220
 9.4620	 5.2660
 9.4800	 5.2230
 9.4970	 5.4400
 9.5140	 5.1810
 9.5320	 5.2280
 9.5500	 5.0810
 9.5670	 5.2610
 9.5850	 5.3570
 9.6030	 5.5520
 9.6200	 5.3810
 9.6380	 5.5270
 9.6560	 5.4280
 9.6740	 5.6490
 9.6920	 5.6820
 9.7100	 5.7260
 9.7290	 5.5190
 9.7470	 5.4870
 9.7650	 5.1990
 9.7840	 5.2870
 9.8020	 5.3060
 9.8210	 5.6610
 9.8390	 5.5190
 9.8580	 5.5520
 9.8770	 5.3000
 9.8960	 5.3200
 9.9150	 5.2230
 9.9340	 5.4160
 9.9530	 5.3610
 9.9720	 5.4920
 9.9910	 5.2480
10.0100	 5.4060
10.0300	 5.3080
10.0490	 5.3590
10.0690	 5.3970
10.0880	 5.7070
10.1080	 5.4410
10.1280	 5.4010
10.1480	 5.2340
10.1670	 5.3150
10.1870	 5.2470
10.2070	 5.3360
10.2280	 5.0660
10.2480	 5.1570
10.2680	 4.9350
10.2890	 5.0260
10.3090	 5.1740
10.3300	 5.3430
10.3500	 5.1080
10.3710	 5.1600
10.3920	 4.9860
10.4120	 5.1900
10.4330	 5.2070
10.4540	 5.2680
10.4760	 5.0910
10.4970	 5.3250
10.5180	 5.1860
10.5390	 5.1510
10.5610	 4.8480
10.5820	 5.0470
10.6040	 5.0420
10.6260	 5.2430
10.6480	 5.0840
10.6700	 5.1740
10.6920	 5.2260
10.7140	 5.3430
10.7360	 4.9370
10.7580	 5.0960
10.7800	 5.0700
10.8030	 5.2660
10.8250	 5.0640
10.8480	 5.1900
10.8710	 5.0970
10.8940	 5.3370
10.9170	 5.2480
10.9400	 5.3190
10.9630	 4.9310
10.9860	 4.9300
11.0090	 4.9220
11.0330	 5.2550
11.0560	 5.1300
11.0800	 5.2440
11.1040	 4.9240
11.1270	 4.8950
11.1510	 4.7770
11.1750	 5.1780
11.2000	 5.1350
11.2240	 5.2070
11.2480	 4.8600
11.2730	 3.8650
11.2970	 2.7320
11.3220	 4.3090
11.3470	 4.9300
11.3720	 5.1480
11.3970	 4.9110
11.4220	 4.8840
11.4470	 4.7340
11.4720	 4.8430
11.4980	 4.9630
11.5230	 5.1220
11.5490	 4.6600
11.5750	 4.7190
11.6000	 4.7410
11.6260	 5.1480
11.6530	 4.9540
11.6790	 4.9450
11.7050	 4.8500
11.7320	 5.1080
11.7580	 4.9540
11.7850	 5.1640
11.8120	 4.8650
11.8390	 5.1450
11.8660	 4.9860
11.8930	 4.7960
11.9200	 4.5530
11.9480	 4.9260
11.9760	 4.7050
12.0030	 4.9940
12.0310	 4.7790
12.0590	 5.0190
12.0870	 4.8320
12.1150	 5.0510
12.1440	 4.7240
12.1720	 4.6620
12.2010	 4.6980
12.2300	 5.1580
12.2590	 4.8900
12.2880	 4.9360
12.3170	 4.7130
12.3460	 4.9970
12.3760	 4.9440
12.4050	 5.2090
12.4350	 4.8400
12.4650	 4.8560
12.4950	 4.6710
12.5250	 4.9030
12.5550	 4.7950
12.5860	 5.0940
12.6170	 4.7760
12.6470	 5.0660
12.6780	 4.9080
12.7090	 5.0850
12.7410	 4.8060
12.7720	 4.9670
12.8030	 4.8050
12.8350	 5.0520
12.8670	 4.6420
12.8990	 4.8450
12.9310	 4.8540
12.9640	 5.0360
12.9960	 4.9200
13.0290	 5.1650
13.0610	 4.7190
13.0940	 4.7670
13.1280	 4.4150
13.1610	 4.6880
13.1940	 4.6260
13.2280	 4.7800
13.2620	 4.2490
13.2960	 4.7280
13.3300	 4.7200
13.3640	 4.9490
13.3990	 4.7050
13.4340	 5.1270
13.4690	 4.9250
13.5040	 5.0010
13.5390	 4.8220
13.5740	 5.4780
13.6100	 5.0090
13.6460	 5.0830
13.6820	 4.7300
13.7180	 4.9610
13.7540	 4.6440
13.7910	 4.9370
13.8280	 4.7310
13.8650	 4.9510
13.9020	 4.6460
13.9390	 5.0350
13.9770	 4.8860
14.0150	 5.0380
14.0530	 4.6230
14.0910	 4.9390
14.1290	 4.4470
14.1680	 4.8900
14.2070	 4.6400
14.2460	 4.8380
14.2850	 4.5180
14.3240	 5.1680
14.3640	 4.6710
14.4040	 4.8500
14.4440	 4.4180
14.4840	 5.1710
14.5250	 4.7810
14.5660	 4.9350
14.6070	 4.4220
14.6480	 4.6800
14.6900	 4.4820
14.7310	 5.0120
14.7730	 4.4140
14.8150	 4.9630
14.8580	 4.5110
14.9010	 5.3550
14.9440	 5.1600
14.9870	 5.1840
15.0300	 4.2620
15.0740	 4.6980
15.1180	 4.0930
15.1620	 5.0020
15.2060	 4.7740
15.2510	 5.2910
15.2960	 4.4150
15.3410	 4.7940
15.3870	 4.8230
