Name: Salvia leucophylla 2
Type: vegetation
Class: Shrub
Genus: Salvia
Species: leucophylla
Sample No.: VH190
Owner: UCSB
Wavelength Range: TIR
Origin: 34.698; -120.0477; WGS84
Collection Date: 6/9/2013
Description: Samples were collected as part of the HyspIRI Airborne Campaign. 48 individual plants were sampled in three times in 2013 - spring  summer  and fall. The name of the sample includes a 1  2  or 3 which references a different individual of the species. Samples were taken to JPL and processed within 48 hours of collection. The same leaves were processed in the Nicolet and then measured using the ASD.
Measurement: Hemispherical reflectance
First Column: X
Second Column: Y
X Units: Wavelength (micrometers)
Y Units: Reflectance (percentage)
First X Value: 2.501
Last X Value: 15.387
Number of X Values: 1737
Additional Information: vegetation.shrub.salvia.leucophylla.tir.vh190.ucsb.nicolet.ancillary.txt

 2.5010	23.4270
 2.5030	23.2030
 2.5040	23.2160
 2.5050	23.0890
 2.5060	22.9270
 2.5070	22.6930
 2.5090	22.7390
 2.5100	23.0290
 2.5110	23.0320
 2.5120	22.8730
 2.5140	22.9900
 2.5150	22.8630
 2.5160	22.9550
 2.5170	23.0580
 2.5180	23.0920
 2.5200	23.0740
 2.5210	23.2160
 2.5220	23.1340
 2.5230	22.8880
 2.5250	22.8500
 2.5260	23.0460
 2.5270	23.1260
 2.5280	23.1010
 2.5290	23.1090
 2.5310	23.1300
 2.5320	23.0520
 2.5330	23.0980
 2.5340	23.1760
 2.5360	23.2190
 2.5370	23.1380
 2.5380	23.0360
 2.5390	23.0860
 2.5410	23.3110
 2.5420	23.2990
 2.5430	23.2210
 2.5440	23.0980
 2.5460	23.0960
 2.5470	23.1720
 2.5480	23.3880
 2.5490	23.4960
 2.5510	23.4660
 2.5520	23.2700
 2.5530	23.3220
 2.5540	23.3430
 2.5560	23.3240
 2.5570	23.5660
 2.5580	23.7050
 2.5590	23.6090
 2.5610	23.4590
 2.5620	23.3720
 2.5630	23.4320
 2.5640	23.4310
 2.5660	23.4120
 2.5670	23.4730
 2.5680	23.5130
 2.5700	23.4670
 2.5710	23.4860
 2.5720	23.5250
 2.5730	23.5690
 2.5750	23.5710
 2.5760	23.4100
 2.5770	23.4180
 2.5790	23.6080
 2.5800	23.6370
 2.5810	23.6410
 2.5820	23.5470
 2.5840	23.4080
 2.5850	23.2930
 2.5860	23.3700
 2.5880	23.3610
 2.5890	23.3960
 2.5900	23.3760
 2.5910	23.4820
 2.5930	23.3680
 2.5940	23.4310
 2.5950	23.4420
 2.5970	23.4820
 2.5980	23.3870
 2.5990	23.3520
 2.6000	23.5020
 2.6020	23.5520
 2.6030	23.4280
 2.6040	23.2940
 2.6060	23.1050
 2.6070	23.1190
 2.6080	23.0440
 2.6100	23.0530
 2.6110	23.1740
 2.6120	23.1690
 2.6140	23.0850
 2.6150	23.0000
 2.6160	23.0060
 2.6180	23.0210
 2.6190	22.9510
 2.6200	22.9570
 2.6220	22.8460
 2.6230	22.8820
 2.6240	22.9180
 2.6260	22.9450
 2.6270	22.9560
 2.6280	22.9540
 2.6300	22.8060
 2.6310	22.4700
 2.6320	22.3450
 2.6340	22.3490
 2.6350	22.3820
 2.6360	22.3860
 2.6380	22.3740
 2.6390	22.3200
 2.6400	22.2550
 2.6420	22.3150
 2.6430	22.1020
 2.6440	21.9600
 2.6460	21.7860
 2.6470	21.7880
 2.6480	21.9300
 2.6500	22.0100
 2.6510	21.9170
 2.6520	21.6620
 2.6540	21.3960
 2.6550	21.2890
 2.6560	21.3060
 2.6580	21.3770
 2.6590	21.4890
 2.6610	21.4270
 2.6620	21.0540
 2.6630	20.9600
 2.6650	21.0000
 2.6660	20.8860
 2.6670	20.5480
 2.6690	20.5830
 2.6700	20.7440
 2.6720	20.7820
 2.6730	20.4720
 2.6740	20.2340
 2.6760	20.0840
 2.6770	20.0490
 2.6780	19.9710
 2.6800	20.0880
 2.6810	20.1160
 2.6830	19.8980
 2.6840	19.4990
 2.6850	19.3590
 2.6870	19.0110
 2.6880	18.9150
 2.6900	18.8860
 2.6910	18.6740
 2.6920	18.4260
 2.6940	18.3530
 2.6950	18.1860
 2.6970	17.9170
 2.6980	17.6270
 2.6990	17.7050
 2.7010	17.4110
 2.7020	17.0260
 2.7040	16.7670
 2.7050	16.5080
 2.7060	16.2430
 2.7080	16.0710
 2.7090	15.7850
 2.7110	15.5910
 2.7120	15.5050
 2.7130	15.4890
 2.7150	15.4080
 2.7160	15.3130
 2.7180	14.8950
 2.7190	14.5570
 2.7210	14.2890
 2.7220	14.1320
 2.7230	13.8600
 2.7250	13.3230
 2.7260	13.0050
 2.7280	12.9950
 2.7290	12.8780
 2.7310	12.7120
 2.7320	12.4570
 2.7330	12.2500
 2.7350	12.0460
 2.7360	11.9560
 2.7380	11.6440
 2.7390	11.2220
 2.7410	10.8390
 2.7420	10.8510
 2.7440	10.8410
 2.7450	10.7650
 2.7470	10.7360
 2.7480	10.9270
 2.7490	10.7270
 2.7510	10.5050
 2.7520	10.0020
 2.7540	 9.4870
 2.7550	 9.2350
 2.7570	 9.1390
 2.7580	 8.9880
 2.7600	 9.0760
 2.7610	 8.8290
 2.7630	 8.6340
 2.7640	 8.5850
 2.7660	 8.7690
 2.7670	 8.7820
 2.7680	 8.2970
 2.7700	 8.0530
 2.7710	 8.0090
 2.7730	 7.9090
 2.7740	 7.9080
 2.7760	 7.7460
 2.7770	 7.6850
 2.7790	 7.4090
 2.7800	 7.2160
 2.7820	 7.1390
 2.7830	 7.1030
 2.7850	 6.9220
 2.7860	 6.8890
 2.7880	 6.8930
 2.7890	 6.7450
 2.7910	 6.5230
 2.7920	 6.3180
 2.7940	 6.1370
 2.7950	 6.2590
 2.7970	 6.0120
 2.7980	 5.8120
 2.8000	 5.8140
 2.8010	 5.9380
 2.8030	 5.8220
 2.8040	 5.8010
 2.8060	 5.7270
 2.8070	 5.7830
 2.8090	 5.7960
 2.8110	 5.5490
 2.8120	 5.1810
 2.8140	 5.3470
 2.8150	 5.4580
 2.8170	 5.4500
 2.8180	 5.3230
 2.8200	 5.2930
 2.8210	 5.2130
 2.8230	 5.0630
 2.8240	 4.7850
 2.8260	 4.6200
 2.8270	 4.2820
 2.8290	 4.4860
 2.8300	 4.6250
 2.8320	 4.4540
 2.8340	 4.1750
 2.8350	 4.4170
 2.8370	 4.4910
 2.8380	 4.3290
 2.8400	 4.4560
 2.8410	 4.5500
 2.8430	 4.2430
 2.8440	 4.1650
 2.8460	 4.2280
 2.8480	 4.2490
 2.8490	 4.1170
 2.8510	 4.1590
 2.8520	 4.1570
 2.8540	 4.1050
 2.8550	 4.0740
 2.8570	 3.9310
 2.8590	 3.6690
 2.8600	 3.7500
 2.8620	 3.8880
 2.8630	 3.8350
 2.8650	 3.6920
 2.8660	 3.6940
 2.8680	 3.6340
 2.8700	 3.5100
 2.8710	 3.4930
 2.8730	 3.6030
 2.8740	 3.3990
 2.8760	 3.4080
 2.8780	 3.7600
 2.8790	 3.8100
 2.8810	 3.6470
 2.8820	 3.1850
 2.8840	 2.9230
 2.8860	 3.7110
 2.8870	 3.8540
 2.8890	 3.3340
 2.8900	 3.3700
 2.8920	 3.5910
 2.8940	 3.3300
 2.8950	 3.0750
 2.8970	 3.0920
 2.8980	 3.2230
 2.9000	 3.1050
 2.9020	 3.0580
 2.9030	 3.1340
 2.9050	 3.3900
 2.9070	 3.3320
 2.9080	 3.2850
 2.9100	 3.3760
 2.9120	 3.4610
 2.9130	 3.2260
 2.9150	 3.1060
 2.9160	 3.1280
 2.9180	 3.2370
 2.9200	 3.1740
 2.9210	 3.1780
 2.9230	 3.2730
 2.9250	 3.2990
 2.9260	 3.0780
 2.9280	 3.0430
 2.9300	 3.0200
 2.9310	 3.1360
 2.9330	 3.3120
 2.9350	 3.3530
 2.9360	 3.0630
 2.9380	 3.0560
 2.9400	 3.1440
 2.9410	 3.2720
 2.9430	 3.4890
 2.9450	 3.4220
 2.9460	 3.0620
 2.9480	 3.1650
 2.9500	 3.3120
 2.9510	 3.2580
 2.9530	 3.1390
 2.9550	 3.1550
 2.9560	 2.9990
 2.9580	 2.5780
 2.9600	 2.4430
 2.9610	 3.0440
 2.9630	 4.0000
 2.9650	 4.2960
 2.9660	 3.6680
 2.9680	 2.8980
 2.9700	 1.9570
 2.9720	 2.4270
 2.9730	 2.8350
 2.9750	 2.5400
 2.9770	 1.4850
 2.9780	 2.2820
 2.9800	 3.3380
 2.9820	 1.6520
 2.9840	 0.6850
 2.9850	 2.0940
 2.9870	 2.9080
 2.9890	 2.3870
 2.9900	 3.2380
 2.9920	 5.7780
 2.9940	 5.2450
 2.9960	 3.4840
 2.9970	 2.6480
 2.9990	 2.3740
 3.0010	 2.6000
 3.0030	 3.1520
 3.0040	 3.3030
 3.0060	 3.9040
 3.0080	 3.9460
 3.0100	 3.5760
 3.0110	 3.6800
 3.0130	 4.2650
 3.0150	 3.9340
 3.0170	 3.7130
 3.0180	 3.9230
 3.0200	 3.7270
 3.0220	 3.5320
 3.0240	 3.5130
 3.0250	 3.6050
 3.0270	 3.9430
 3.0290	 4.1190
 3.0310	 4.7540
 3.0320	 5.0090
 3.0340	 3.9620
 3.0360	 3.6910
 3.0380	 4.7180
 3.0400	 5.9180
 3.0410	 6.2840
 3.0430	 5.8270
 3.0450	 0.1980
 3.0470	 -2.460
 3.0480	 2.6590
 3.0500	 5.9920
 3.0520	 7.1540
 3.0540	 6.6510
 3.0560	 5.3360
 3.0570	 2.9890
 3.0590	 3.0730
 3.0610	 4.7070
 3.0630	 5.7590
 3.0650	 4.8770
 3.0660	 3.4150
 3.0680	 3.7030
 3.0700	 3.9610
 3.0720	 4.4750
 3.0740	 4.1790
 3.0760	 3.8170
 3.0770	 4.1780
 3.0790	 4.3870
 3.0810	 4.6680
 3.0830	 4.7160
 3.0850	 4.5710
 3.0870	 4.4520
 3.0880	 4.7500
 3.0900	 4.8110
 3.0920	 4.4530
 3.0940	 4.3620
 3.0960	 4.6740
 3.0980	 4.7350
 3.0990	 4.9280
 3.1010	 5.0310
 3.1030	 4.9030
 3.1050	 5.0350
 3.1070	 5.4310
 3.1090	 4.7350
 3.1110	 4.9800
 3.1120	 5.5850
 3.1140	 5.1160
 3.1160	 4.8470
 3.1180	 5.0480
 3.1200	 5.0080
 3.1220	 5.4280
 3.1240	 5.4050
 3.1260	 5.4170
 3.1270	 5.2720
 3.1290	 5.2620
 3.1310	 5.0320
 3.1330	 4.5170
 3.1350	 5.1400
 3.1370	 6.0140
 3.1390	 5.4740
 3.1410	 4.6610
 3.1430	 5.4930
 3.1450	 7.0570
 3.1460	 7.3700
 3.1480	 6.2900
 3.1500	 5.4740
 3.1520	 4.9470
 3.1540	 5.0560
 3.1560	 5.8090
 3.1580	 6.5220
 3.1600	 7.1490
 3.1620	 7.4640
 3.1640	 6.4230
 3.1660	 5.9770
 3.1680	 6.2500
 3.1700	 6.5260
 3.1710	 7.1020
 3.1730	 6.8990
 3.1750	 6.9750
 3.1770	 6.8040
 3.1790	 6.1530
 3.1810	 6.3550
 3.1830	 6.6850
 3.1850	 7.3020
 3.1870	 7.3790
 3.1890	 6.3770
 3.1910	 6.1690
 3.1930	 6.2580
 3.1950	 6.1900
 3.1970	 5.9920
 3.1990	 6.2830
 3.2010	 6.2970
 3.2030	 6.2070
 3.2050	 6.2730
 3.2070	 6.4940
 3.2090	 6.5130
 3.2110	 6.6920
 3.2130	 6.4210
 3.2150	 6.3560
 3.2170	 6.5950
 3.2190	 6.9480
 3.2210	 6.8830
 3.2230	 6.6130
 3.2250	 6.5670
 3.2270	 6.6290
 3.2290	 6.4320
 3.2310	 6.8710
 3.2330	 7.1200
 3.2350	 6.8960
 3.2370	 6.6120
 3.2390	 6.5900
 3.2410	 6.4600
 3.2430	 6.5040
 3.2450	 6.4800
 3.2470	 6.3230
 3.2490	 6.2270
 3.2510	 6.4980
 3.2530	 6.4750
 3.2550	 6.6330
 3.2570	 6.4090
 3.2590	 6.4310
 3.2610	 6.4330
 3.2630	 6.3420
 3.2650	 6.5730
 3.2670	 6.5370
 3.2690	 6.3980
 3.2720	 6.7820
 3.2740	 6.6960
 3.2760	 6.6120
 3.2780	 6.9080
 3.2800	 7.0540
 3.2820	 7.0060
 3.2840	 7.1050
 3.2860	 6.9170
 3.2880	 6.7710
 3.2900	 6.8010
 3.2920	 6.5210
 3.2940	 6.3120
 3.2960	 6.6030
 3.2990	 6.8470
 3.3010	 7.1960
 3.3030	 6.9220
 3.3050	 6.6300
 3.3070	 6.5740
 3.3090	 6.4300
 3.3110	 6.4980
 3.3130	 6.5090
 3.3150	 6.3270
 3.3180	 6.2150
 3.3200	 6.0610
 3.3220	 6.1270
 3.3240	 5.8870
 3.3260	 5.8690
 3.3280	 5.9580
 3.3300	 5.8500
 3.3330	 5.4700
 3.3350	 5.3410
 3.3370	 5.2090
 3.3390	 5.0950
 3.3410	 4.8960
 3.3430	 4.8340
 3.3450	 4.7190
 3.3480	 4.7300
 3.3500	 4.5200
 3.3520	 4.2670
 3.3540	 4.3310
 3.3560	 4.2840
 3.3580	 4.2800
 3.3610	 4.3620
 3.3630	 3.8810
 3.3650	 3.5210
 3.3670	 3.3870
 3.3690	 3.4120
 3.3720	 3.2080
 3.3740	 3.1850
 3.3760	 3.0930
 3.3780	 2.9420
 3.3800	 2.8700
 3.3830	 2.8080
 3.3850	 2.7760
 3.3870	 2.9110
 3.3890	 2.9310
 3.3910	 2.7060
 3.3940	 2.4010
 3.3960	 2.4510
 3.3980	 2.3800
 3.4000	 2.5030
 3.4020	 2.4790
 3.4050	 2.4020
 3.4070	 2.3840
 3.4090	 2.3650
 3.4110	 2.2810
 3.4140	 2.3720
 3.4160	 2.3540
 3.4180	 2.4620
 3.4200	 2.5460
 3.4230	 2.7110
 3.4250	 2.7520
 3.4270	 2.9030
 3.4290	 2.9710
 3.4320	 3.0070
 3.4340	 2.9640
 3.4360	 3.1380
 3.4390	 3.2450
 3.4410	 3.3280
 3.4430	 3.3180
 3.4450	 3.3020
 3.4480	 3.2590
 3.4500	 3.4380
 3.4520	 3.4840
 3.4550	 3.7000
 3.4570	 3.9500
 3.4590	 4.1090
 3.4620	 4.3210
 3.4640	 4.3330
 3.4660	 4.1530
 3.4680	 4.2740
 3.4710	 4.3780
 3.4730	 4.4790
 3.4750	 4.3840
 3.4780	 4.2470
 3.4800	 4.0470
 3.4820	 4.0330
 3.4850	 4.0710
 3.4870	 4.1440
 3.4890	 4.1650
 3.4920	 4.0590
 3.4940	 3.9280
 3.4970	 3.7730
 3.4990	 3.5770
 3.5010	 3.6330
 3.5040	 3.6880
 3.5060	 3.7160
 3.5080	 3.7780
 3.5110	 4.2410
 3.5130	 4.6840
 3.5160	 4.9710
 3.5180	 5.3120
 3.5200	 5.7330
 3.5230	 5.9670
 3.5250	 6.2690
 3.5270	 6.4150
 3.5300	 6.6420
 3.5320	 6.9640
 3.5350	 7.2640
 3.5370	 7.3800
 3.5400	 7.5450
 3.5420	 7.7110
 3.5440	 8.0480
 3.5470	 8.1780
 3.5490	 8.2140
 3.5520	 8.1580
 3.5540	 8.2280
 3.5570	 8.3830
 3.5590	 8.4630
 3.5610	 8.4770
 3.5640	 8.7430
 3.5660	 8.9320
 3.5690	 8.9260
 3.5710	 8.9360
 3.5740	 9.1030
 3.5760	 9.1950
 3.5790	 9.0980
 3.5810	 8.9370
 3.5840	 9.0040
 3.5860	 9.1400
 3.5890	 9.1950
 3.5910	 9.1690
 3.5930	 9.4990
 3.5960	 9.6340
 3.5980	 9.6390
 3.6010	 9.8150
 3.6030	10.0040
 3.6060	 9.6740
 3.6080	 9.6290
 3.6110	 9.8980
 3.6140	 9.9620
 3.6160	 9.9010
 3.6190	 9.9560
 3.6210	 9.9830
 3.6240	10.0820
 3.6260	10.2370
 3.6290	10.3530
 3.6310	10.2510
 3.6340	10.1280
 3.6360	 9.9990
 3.6390	10.1350
 3.6410	10.1520
 3.6440	10.0660
 3.6470	10.0310
 3.6490	10.1010
 3.6520	10.0500
 3.6540	10.1190
 3.6570	10.1310
 3.6590	10.1520
 3.6620	10.1900
 3.6650	10.3110
 3.6670	10.2540
 3.6700	10.2640
 3.6720	10.2430
 3.6750	10.2680
 3.6780	10.3440
 3.6800	10.4200
 3.6830	10.4310
 3.6850	10.4580
 3.6880	10.4120
 3.6910	10.4820
 3.6930	10.4850
 3.6960	10.4750
 3.6990	10.4990
 3.7010	10.5720
 3.7040	10.6000
 3.7060	10.6390
 3.7090	10.5630
 3.7120	10.5920
 3.7140	10.7300
 3.7170	10.7920
 3.7200	10.6230
 3.7220	10.6010
 3.7250	10.5910
 3.7280	10.6000
 3.7300	10.7110
 3.7330	10.8440
 3.7360	10.7870
 3.7390	10.6070
 3.7410	10.6830
 3.7440	10.9500
 3.7470	10.8540
 3.7490	10.7480
 3.7520	10.7130
 3.7550	10.6760
 3.7580	10.7800
 3.7600	10.8470
 3.7630	10.7430
 3.7660	10.8610
 3.7680	11.0160
 3.7710	10.9260
 3.7740	10.7250
 3.7770	10.7110
 3.7790	10.7640
 3.7820	10.8750
 3.7850	10.9770
 3.7880	11.0270
 3.7900	10.9910
 3.7930	11.0500
 3.7960	11.1010
 3.7990	11.0620
 3.8020	10.9850
 3.8040	11.1560
 3.8070	11.2260
 3.8100	11.1680
 3.8130	11.2440
 3.8160	11.3180
 3.8180	11.2180
 3.8210	11.2420
 3.8240	11.3000
 3.8270	11.3960
 3.8300	11.4010
 3.8330	11.4520
 3.8350	11.4860
 3.8380	11.6370
 3.8410	11.8240
 3.8440	11.8640
 3.8470	11.6480
 3.8500	11.7590
 3.8520	11.8930
 3.8550	11.8350
 3.8580	11.7620
 3.8610	11.7650
 3.8640	11.7730
 3.8670	11.8270
 3.8700	11.8510
 3.8730	11.9410
 3.8750	11.9840
 3.8780	12.0320
 3.8810	12.0660
 3.8840	12.1140
 3.8870	12.0660
 3.8900	12.1200
 3.8930	12.2220
 3.8960	12.3350
 3.8990	12.3820
 3.9020	12.3190
 3.9050	12.1710
 3.9080	12.2510
 3.9110	12.4230
 3.9140	12.5550
 3.9160	12.5850
 3.9190	12.5580
 3.9220	12.4990
 3.9250	12.4900
 3.9280	12.5180
 3.9310	12.6410
 3.9340	12.7010
 3.9370	12.6440
 3.9400	12.6250
 3.9430	12.6870
 3.9460	12.6690
 3.9490	12.7880
 3.9520	12.8060
 3.9550	12.8120
 3.9580	12.8170
 3.9610	12.9060
 3.9640	12.9740
 3.9670	13.0020
 3.9700	13.1120
 3.9730	13.2030
 3.9770	13.2080
 3.9800	13.3330
 3.9830	13.4410
 3.9860	13.5250
 3.9890	13.5510
 3.9920	13.5800
 3.9950	13.5830
 3.9980	13.7470
 4.0010	13.8220
 4.0040	13.8410
 4.0070	13.8770
 4.0100	13.8680
 4.0130	13.8870
 4.0170	14.0110
 4.0200	14.0480
 4.0230	14.1100
 4.0260	14.1340
 4.0290	14.1290
 4.0320	14.1500
 4.0350	14.3090
 4.0380	14.4150
 4.0420	14.4290
 4.0450	14.4520
 4.0480	14.4920
 4.0510	14.5270
 4.0540	14.6030
 4.0570	14.6540
 4.0610	14.6930
 4.0640	14.7590
 4.0670	14.7730
 4.0700	14.8110
 4.0730	14.8430
 4.0770	14.9000
 4.0800	15.0400
 4.0830	15.0760
 4.0860	15.1560
 4.0890	15.2450
 4.0930	15.1910
 4.0960	15.1870
 4.0990	15.2450
 4.1020	15.2820
 4.1060	15.3560
 4.1090	15.4730
 4.1120	15.6390
 4.1150	15.7650
 4.1190	15.7040
 4.1220	15.5010
 4.1250	15.5410
 4.1280	15.6090
 4.1320	15.6310
 4.1350	15.6670
 4.1380	15.7550
 4.1420	15.7770
 4.1450	15.8090
 4.1480	15.8610
 4.1520	15.9260
 4.1550	15.9480
 4.1580	15.9750
 4.1620	15.9470
 4.1650	15.9700
 4.1680	15.9070
 4.1720	15.9270
 4.1750	15.9490
 4.1780	15.9910
 4.1820	16.0550
 4.1850	16.1060
 4.1890	16.0620
 4.1920	16.1300
 4.1950	16.2060
 4.1990	16.2530
 4.2020	16.3130
 4.2060	16.3160
 4.2090	16.3130
 4.2120	16.3730
 4.2160	16.3660
 4.2190	16.4850
 4.2230	16.5980
 4.2260	16.8890
 4.2300	16.6490
 4.2330	16.4730
 4.2360	16.8520
 4.2400	16.7910
 4.2430	16.3920
 4.2470	16.5540
 4.2500	16.5380
 4.2540	16.4590
 4.2570	16.5050
 4.2610	16.5220
 4.2640	16.4530
 4.2680	16.6240
 4.2710	16.9830
 4.2750	16.8890
 4.2780	16.5050
 4.2820	16.4330
 4.2850	16.4460
 4.2890	16.5470
 4.2930	16.6110
 4.2960	16.6790
 4.3000	16.6160
 4.3030	16.5780
 4.3070	16.5350
 4.3100	16.6690
 4.3140	16.6090
 4.3180	16.5070
 4.3210	16.5980
 4.3250	16.6760
 4.3280	16.5960
 4.3320	16.5190
 4.3360	16.5410
 4.3390	16.6550
 4.3430	16.6300
 4.3470	16.5430
 4.3500	16.4970
 4.3540	16.5960
 4.3570	16.6750
 4.3610	16.6520
 4.3650	16.5600
 4.3680	16.5620
 4.3720	16.5860
 4.3760	16.6310
 4.3800	16.6380
 4.3830	16.6870
 4.3870	16.7090
 4.3910	16.6760
 4.3940	16.6010
 4.3980	16.5630
 4.4020	16.5900
 4.4060	16.6560
 4.4090	16.6620
 4.4130	16.6660
 4.4170	16.5790
 4.4210	16.5090
 4.4240	16.5210
 4.4280	16.5690
 4.4320	16.6280
 4.4360	16.6600
 4.4400	16.6320
 4.4430	16.6710
 4.4470	16.6450
 4.4510	16.5990
 4.4550	16.5570
 4.4590	16.5730
 4.4620	16.6200
 4.4660	16.6960
 4.4700	16.6180
 4.4740	16.5920
 4.4780	16.6410
 4.4820	16.5490
 4.4860	16.4660
 4.4900	16.4080
 4.4930	16.3040
 4.4970	16.3360
 4.5010	16.4440
 4.5050	16.4390
 4.5090	16.4380
 4.5130	16.4000
 4.5170	16.4090
 4.5210	16.4550
 4.5250	16.3540
 4.5290	16.3980
 4.5330	16.4600
 4.5370	16.4430
 4.5410	16.4180
 4.5450	16.4020
 4.5490	16.4120
 4.5530	16.3580
 4.5570	16.3510
 4.5610	16.3460
 4.5650	16.3020
 4.5690	16.2960
 4.5730	16.3050
 4.5770	16.2820
 4.5810	16.2700
 4.5850	16.3410
 4.5890	16.3160
 4.5930	16.2320
 4.5970	16.1300
 4.6010	16.0690
 4.6050	16.0510
 4.6090	16.2770
 4.6130	16.2940
 4.6170	16.3350
 4.6220	16.4250
 4.6260	16.4690
 4.6300	16.4370
 4.6340	16.3070
 4.6380	16.2450
 4.6420	16.1710
 4.6460	16.0090
 4.6510	15.9490
 4.6550	16.0530
 4.6590	16.0490
 4.6630	16.0110
 4.6670	16.0870
 4.6720	16.1500
 4.6760	16.1560
 4.6800	16.1180
 4.6840	16.1510
 4.6880	16.1990
 4.6930	16.1080
 4.6970	16.1140
 4.7010	16.1780
 4.7050	16.2270
 4.7100	16.2110
 4.7140	16.1510
 4.7180	16.2230
 4.7230	16.2500
 4.7270	16.3050
 4.7310	16.2690
 4.7360	16.2000
 4.7400	16.1980
 4.7440	16.1930
 4.7490	16.1720
 4.7530	16.1660
 4.7570	16.2330
 4.7620	16.2280
 4.7660	16.3360
 4.7700	16.3580
 4.7750	16.3630
 4.7790	16.2650
 4.7840	16.2280
 4.7880	16.2400
 4.7920	16.1870
 4.7970	16.2400
 4.8010	16.2840
 4.8060	16.4220
 4.8100	16.4150
 4.8150	16.3050
 4.8190	16.3350
 4.8240	16.4420
 4.8280	16.4390
 4.8330	16.4570
 4.8370	16.5510
 4.8420	16.4830
 4.8460	16.4190
 4.8510	16.4420
 4.8550	16.4910
 4.8600	16.5250
 4.8640	16.5530
 4.8690	16.5650
 4.8730	16.5470
 4.8780	16.5090
 4.8830	16.4860
 4.8870	16.5140
 4.8920	16.5410
 4.8960	16.5630
 4.9010	16.6260
 4.9060	16.6440
 4.9100	16.6460
 4.9150	16.6860
 4.9200	16.7120
 4.9240	16.6180
 4.9290	16.5790
 4.9340	16.6550
 4.9380	16.7130
 4.9430	16.7260
 4.9480	16.7640
 4.9530	16.7830
 4.9570	16.7100
 4.9620	16.7390
 4.9670	16.8470
 4.9720	16.8240
 4.9760	16.7760
 4.9810	16.8270
 4.9860	16.8850
 4.9910	16.9100
 4.9960	16.9460
 5.0000	17.0210
 5.0050	17.0590
 5.0100	16.9820
 5.0150	17.0160
 5.0200	16.9990
 5.0250	16.9450
 5.0290	16.9470
 5.0340	17.0250
 5.0390	17.0920
 5.0440	17.1110
 5.0490	17.1040
 5.0540	17.0940
 5.0590	17.1320
 5.0640	17.1970
 5.0690	17.2270
 5.0740	17.2560
 5.0790	17.1740
 5.0840	17.2070
 5.0890	17.2690
 5.0940	17.1890
 5.0990	17.1690
 5.1040	17.2250
 5.1090	17.2260
 5.1140	17.2350
 5.1190	17.2640
 5.1240	17.3040
 5.1290	17.2270
 5.1340	17.1990
 5.1390	17.2180
 5.1440	17.2040
 5.1490	17.1820
 5.1540	17.2290
 5.1600	17.2030
 5.1650	17.2510
 5.1700	17.2620
 5.1750	17.2000
 5.1800	17.1600
 5.1850	17.1990
 5.1910	17.1790
 5.1960	17.1370
 5.2010	17.0590
 5.2060	17.1010
 5.2110	17.2100
 5.2170	17.2090
 5.2220	17.1580
 5.2270	17.1830
 5.2320	17.1960
 5.2380	17.1310
 5.2430	17.0770
 5.2480	17.0890
 5.2540	17.0500
 5.2590	17.0180
 5.2640	17.0320
 5.2700	17.0830
 5.2750	17.0640
 5.2800	16.9730
 5.2860	16.9050
 5.2910	16.9500
 5.2970	16.9350
 5.3020	16.8580
 5.3070	16.7960
 5.3130	16.7610
 5.3180	16.7660
 5.3240	16.7300
 5.3290	16.6020
 5.3350	16.5550
 5.3400	16.5720
 5.3460	16.5760
 5.3510	16.4910
 5.3570	16.4680
 5.3620	16.5200
 5.3680	16.5210
 5.3730	16.3990
 5.3790	16.3990
 5.3850	16.4750
 5.3900	16.4620
 5.3960	16.3430
 5.4010	16.3300
 5.4070	16.2300
 5.4130	16.1560
 5.4180	16.1040
 5.4240	16.0520
 5.4300	16.0220
 5.4350	15.9900
 5.4410	15.9240
 5.4470	15.8730
 5.4530	15.8390
 5.4580	15.8290
 5.4640	15.7760
 5.4700	15.6760
 5.4760	15.6320
 5.4810	15.6250
 5.4870	15.4840
 5.4930	15.3370
 5.4990	15.1560
 5.5050	15.0050
 5.5110	14.8900
 5.5160	14.8410
 5.5220	14.7010
 5.5280	14.4850
 5.5340	14.3090
 5.5400	14.2300
 5.5460	14.1450
 5.5520	13.9250
 5.5580	13.6140
 5.5640	13.3810
 5.5700	13.1440
 5.5760	12.9250
 5.5820	12.6920
 5.5880	12.4740
 5.5940	12.1710
 5.6000	11.8880
 5.6060	11.5690
 5.6120	11.2690
 5.6180	11.0250
 5.6240	10.8360
 5.6300	10.5910
 5.6360	10.3090
 5.6420	 9.9550
 5.6490	 9.6170
 5.6550	 9.2100
 5.6610	 8.9040
 5.6670	 8.5170
 5.6730	 8.0660
 5.6800	 7.5960
 5.6860	 7.2070
 5.6920	 6.7980
 5.6980	 6.2920
 5.7040	 5.8340
 5.7110	 5.3930
 5.7170	 4.9140
 5.7230	 4.5340
 5.7300	 4.0530
 5.7360	 3.6270
 5.7420	 3.2780
 5.7490	 3.0980
 5.7550	 2.9600
 5.7620	 2.9970
 5.7680	 3.0870
 5.7740	 3.1150
 5.7810	 3.2320
 5.7870	 3.3850
 5.7940	 3.4660
 5.8000	 3.5630
 5.8070	 3.6240
 5.8130	 3.7520
 5.8200	 3.8320
 5.8260	 3.9340
 5.8330	 4.0070
 5.8390	 4.0940
 5.8460	 4.1330
 5.8530	 4.3190
 5.8590	 4.4050
 5.8660	 4.4560
 5.8720	 4.5070
 5.8790	 4.4240
 5.8860	 4.1920
 5.8920	 4.1410
 5.8990	 4.0350
 5.9060	 3.8630
 5.9130	 3.7960
 5.9190	 3.8410
 5.9260	 3.9450
 5.9330	 4.2420
 5.9400	 4.4940
 5.9470	 4.8890
 5.9530	 5.4290
 5.9600	 5.8800
 5.9670	 6.0770
 5.9740	 6.3370
 5.9810	 6.5010
 5.9880	 6.7150
 5.9950	 6.7930
 6.0020	 6.7650
 6.0090	 6.6950
 6.0160	 6.6640
 6.0230	 6.5370
 6.0300	 6.5180
 6.0370	 6.4790
 6.0440	 6.5610
 6.0510	 6.6240
 6.0580	 6.7410
 6.0650	 6.7690
 6.0720	 6.6820
 6.0790	 6.6700
 6.0860	 6.8050
 6.0930	 6.8550
 6.1000	 6.9120
 6.1080	 6.9420
 6.1150	 6.9890
 6.1220	 6.9300
 6.1290	 6.9870
 6.1370	 6.9920
 6.1440	 7.0520
 6.1510	 7.0890
 6.1580	 7.2200
 6.1660	 7.2620
 6.1730	 7.2610
 6.1800	 7.0450
 6.1880	 6.9910
 6.1950	 7.0540
 6.2030	 7.0890
 6.2100	 6.8740
 6.2170	 6.8010
 6.2250	 6.9730
 6.2320	 7.2290
 6.2400	 7.3740
 6.2470	 7.7250
 6.2550	 7.9470
 6.2630	 8.1170
 6.2700	 8.2490
 6.2780	 8.4920
 6.2850	 8.6280
 6.2930	 8.9190
 6.3010	 9.0250
 6.3080	 9.1140
 6.3160	 9.3870
 6.3240	 9.5990
 6.3310	 9.6010
 6.3390	 9.7870
 6.3470	 9.9780
 6.3550	10.1580
 6.3620	10.3430
 6.3700	10.4650
 6.3780	10.4660
 6.3860	10.6430
 6.3940	10.6840
 6.4020	10.7290
 6.4100	10.8440
 6.4180	11.0400
 6.4260	11.0140
 6.4330	11.0440
 6.4410	11.1060
 6.4490	11.1300
 6.4580	11.1160
 6.4660	11.1780
 6.4740	11.2200
 6.4820	11.3480
 6.4900	11.3080
 6.4980	11.3470
 6.5060	11.3630
 6.5140	11.4110
 6.5230	11.3320
 6.5310	11.3830
 6.5390	11.4090
 6.5470	11.3800
 6.5550	11.2460
 6.5640	11.1490
 6.5720	10.9850
 6.5800	10.8120
 6.5890	10.7020
 6.5970	10.7730
 6.6060	10.7780
 6.6140	10.9000
 6.6220	10.9640
 6.6310	10.9760
 6.6390	10.9960
 6.6480	11.1180
 6.6560	11.0170
 6.6650	11.0240
 6.6740	10.8560
 6.6820	10.8000
 6.6910	10.6610
 6.6990	10.4870
 6.7080	10.2430
 6.7170	 9.9120
 6.7260	 9.5460
 6.7340	 9.0960
 6.7430	 8.5440
 6.7520	 8.2340
 6.7610	 7.8300
 6.7690	 7.3620
 6.7780	 6.8290
 6.7870	 6.4380
 6.7960	 5.9790
 6.8050	 5.5720
 6.8140	 5.1760
 6.8230	 4.9540
 6.8320	 4.7820
 6.8410	 4.9480
 6.8500	 5.0360
 6.8590	 5.1240
 6.8680	 5.2080
 6.8770	 5.3870
 6.8860	 5.4510
 6.8950	 5.4850
 6.9050	 5.4720
 6.9140	 5.5900
 6.9230	 5.6380
 6.9320	 5.7120
 6.9420	 5.7070
 6.9510	 5.6790
 6.9600	 5.6370
 6.9700	 5.7230
 6.9790	 5.6410
 6.9880	 5.6600
 6.9980	 5.7100
 7.0070	 5.7950
 7.0170	 5.7590
 7.0260	 5.9830
 7.0360	 6.0530
 7.0450	 6.1290
 7.0550	 6.0420
 7.0650	 6.0510
 7.0740	 6.1070
 7.0840	 6.2320
 7.0940	 6.2240
 7.1030	 6.3100
 7.1130	 6.3710
 7.1230	 6.5330
 7.1330	 6.4450
 7.1420	 6.4000
 7.1520	 6.3460
 7.1620	 6.3240
 7.1720	 6.0980
 7.1820	 5.8720
 7.1920	 5.4170
 7.2020	 5.2730
 7.2120	 5.2020
 7.2220	 5.3960
 7.2320	 5.5430
 7.2420	 5.5400
 7.2520	 5.3460
 7.2620	 5.2500
 7.2730	 5.1250
 7.2830	 5.1720
 7.2930	 5.0920
 7.3030	 5.0710
 7.3140	 5.1130
 7.3240	 5.2650
 7.3340	 5.3330
 7.3450	 5.6140
 7.3550	 5.5660
 7.3660	 5.6000
 7.3760	 5.6690
 7.3870	 5.8160
 7.3970	 5.8470
 7.4080	 5.9910
 7.4180	 5.9130
 7.4290	 5.9360
 7.4400	 6.0050
 7.4500	 5.9890
 7.4610	 5.7650
 7.4720	 5.7850
 7.4830	 5.6990
 7.4930	 5.5440
 7.5040	 5.3870
 7.5150	 5.4780
 7.5260	 5.4000
 7.5370	 5.2420
 7.5480	 5.0690
 7.5590	 5.0830
 7.5700	 4.9050
 7.5810	 5.0010
 7.5920	 4.9770
 7.6030	 4.9760
 7.6140	 4.9410
 7.6260	 5.1610
 7.6370	 5.3790
 7.6480	 5.5520
 7.6590	 5.5060
 7.6710	 5.5830
 7.6820	 5.6240
 7.6930	 5.6450
 7.7050	 5.4430
 7.7160	 5.3490
 7.7280	 5.2790
 7.7390	 5.3010
 7.7510	 5.2150
 7.7630	 5.2420
 7.7740	 5.1100
 7.7860	 5.0820
 7.7980	 4.9780
 7.8090	 5.0350
 7.8210	 4.9560
 7.8330	 4.9490
 7.8450	 4.8380
 7.8570	 4.8260
 7.8690	 4.8130
 7.8810	 4.9410
 7.8930	 4.8190
 7.9050	 4.8210
 7.9170	 4.6970
 7.9290	 4.6980
 7.9410	 4.7350
 7.9530	 4.8040
 7.9650	 4.6100
 7.9780	 4.6810
 7.9900	 4.7550
 8.0020	 4.7860
 8.0150	 4.7700
 8.0270	 4.9510
 8.0390	 4.8330
 8.0520	 4.7780
 8.0640	 4.7220
 8.0770	 4.9260
 8.0900	 4.8790
 8.1020	 5.1480
 8.1150	 5.1660
 8.1280	 5.1330
 8.1400	 5.0740
 8.1530	 5.2660
 8.1660	 5.2550
 8.1790	 5.3520
 8.1920	 5.3460
 8.2050	 5.3260
 8.2180	 5.1440
 8.2310	 5.4070
 8.2440	 5.3590
 8.2570	 5.3080
 8.2700	 5.2270
 8.2830	 5.2710
 8.2970	 5.2060
 8.3100	 5.2870
 8.3230	 5.1370
 8.3370	 5.1640
 8.3500	 5.0140
 8.3640	 5.0070
 8.3770	 4.8810
 8.3910	 4.9850
 8.4040	 4.8410
 8.4180	 4.8750
 8.4320	 4.6840
 8.4450	 4.7760
 8.4590	 4.7620
 8.4730	 4.7480
 8.4870	 4.3620
 8.5010	 4.2360
 8.5150	 4.1550
 8.5290	 4.2690
 8.5430	 4.2240
 8.5570	 4.3330
 8.5710	 4.1410
 8.5850	 4.1460
 8.5990	 4.0430
 8.6140	 4.1750
 8.6280	 4.2200
 8.6420	 4.6090
 8.6570	 4.5860
 8.6710	 4.6330
 8.6860	 4.7850
 8.7000	 5.1580
 8.7150	 5.0430
 8.7300	 5.0110
 8.7440	 4.9380
 8.7590	 5.1600
 8.7740	 5.0130
 8.7890	 5.1230
 8.8040	 5.1430
 8.8190	 5.2140
 8.8340	 5.0330
 8.8490	 5.0270
 8.8640	 4.6040
 8.8790	 4.5680
 8.8940	 4.4730
 8.9100	 4.4250
 8.9250	 4.1350
 8.9400	 4.0290
 8.9560	 3.7340
 8.9710	 3.8170
 8.9870	 3.7260
 9.0020	 3.8430
 9.0180	 3.7020
 9.0340	 3.6720
 9.0500	 3.4930
 9.0650	 3.5080
 9.0810	 3.6770
 9.0970	 4.0170
 9.1130	 3.9410
 9.1290	 4.0640
 9.1450	 4.0040
 9.1610	 4.2700
 9.1780	 4.1720
 9.1940	 4.2090
 9.2100	 3.8820
 9.2270	 3.8680
 9.2430	 3.6920
 9.2600	 3.6190
 9.2760	 3.4640
 9.2930	 3.5070
 9.3090	 3.3230
 9.3260	 3.5930
 9.3430	 3.3870
 9.3600	 3.4380
 9.3770	 3.4700
 9.3940	 3.5230
 9.4110	 3.1970
 9.4280	 3.3450
 9.4450	 3.2930
 9.4620	 3.4630
 9.4800	 3.2970
 9.4970	 3.3470
 9.5140	 3.3740
 9.5320	 3.6750
 9.5500	 3.5710
 9.5670	 3.5900
 9.5850	 3.4540
 9.6030	 3.6340
 9.6200	 3.4500
 9.6380	 3.5000
 9.6560	 3.3870
 9.6740	 3.6350
 9.6920	 3.7580
 9.7100	 4.0010
 9.7290	 3.9010
 9.7470	 4.2250
 9.7650	 4.2600
 9.7840	 4.5880
 9.8020	 4.5700
 9.8210	 4.5930
 9.8390	 4.3030
 9.8580	 4.6150
 9.8770	 4.8040
 9.8960	 5.1100
 9.9150	 4.9510
 9.9340	 5.0420
 9.9530	 4.9890
 9.9720	 5.2170
 9.9910	 4.9520
10.0100	 5.0730
10.0300	 5.1230
10.0490	 5.4580
10.0690	 5.6850
10.0880	 5.9220
10.1080	 5.7510
10.1280	 6.0210
10.1480	 6.1620
10.1670	 6.5230
10.1870	 6.5430
10.2070	 6.7270
10.2280	 6.5350
10.2480	 6.6880
10.2680	 6.7880
10.2890	 6.9960
10.3090	 6.9480
10.3300	 7.1520
10.3500	 7.0980
10.3710	 7.0300
10.3920	 6.7380
10.4120	 6.9920
10.4330	 7.0810
10.4540	 7.3620
10.4760	 7.1120
10.4970	 7.2940
10.5180	 7.2570
10.5390	 7.5070
10.5610	 7.6470
10.5820	 7.9240
10.6040	 7.8570
10.6260	 8.0320
10.6480	 7.9510
10.6700	 8.0670
10.6920	 7.9790
10.7140	 8.2020
10.7360	 8.2780
10.7580	 8.5320
10.7800	 8.4440
10.8030	 8.5790
10.8250	 8.3490
10.8480	 8.3240
10.8710	 8.0850
10.8940	 8.2790
10.9170	 8.0420
10.9400	 8.0420
10.9630	 7.9480
10.9860	 8.3920
11.0090	 8.2620
11.0330	 8.2740
11.0560	 8.0780
11.0800	 8.2120
11.1040	 7.7580
11.1270	 7.5180
11.1510	 7.7760
11.1750	 7.9700
11.2000	 7.6240
11.2240	 7.7040
11.2480	 7.7280
11.2730	 8.4280
11.2970	 8.6080
11.3220	 8.4550
11.3470	 8.2880
11.3720	 8.4950
11.3970	 8.4300
11.4220	 8.6110
11.4470	 8.5200
11.4720	 8.6760
11.4980	 8.4270
11.5230	 8.4620
11.5490	 8.3510
11.5750	 8.4630
11.6000	 8.2840
11.6260	 8.3650
11.6530	 8.1010
11.6790	 8.0450
11.7050	 7.8730
11.7320	 8.1020
11.7580	 7.9710
11.7850	 8.0030
11.8120	 7.7190
11.8390	 7.8570
11.8660	 7.7490
11.8930	 7.7500
11.9200	 7.4140
11.9480	 7.5150
11.9760	 7.0790
12.0030	 7.2230
12.0310	 7.1570
12.0590	 7.0980
12.0870	 6.7540
12.1150	 7.0340
12.1440	 6.8720
12.1720	 6.9880
12.2010	 6.8090
12.2300	 6.8140
12.2590	 6.5190
12.2880	 6.7080
12.3170	 6.5970
12.3460	 6.8270
12.3760	 6.5430
12.4050	 6.6630
12.4350	 6.4640
12.4650	 6.5000
12.4950	 6.0990
12.5250	 6.2240
12.5550	 6.0980
12.5860	 6.4110
12.6170	 6.2310
12.6470	 6.1820
12.6780	 5.9080
12.7090	 6.0220
12.7410	 5.6200
12.7720	 5.7690
12.8030	 5.5920
12.8350	 5.7110
12.8670	 5.3400
12.8990	 5.4440
12.9310	 5.2310
12.9640	 5.4550
12.9960	 5.1690
13.0290	 5.3480
13.0610	 5.2980
13.0940	 5.7020
13.1280	 5.5510
13.1610	 5.6540
13.1940	 5.1230
13.2280	 4.5040
13.2620	 4.5570
13.2960	 5.3560
13.3300	 4.9920
13.3640	 5.2020
13.3990	 5.0400
13.4340	 5.3320
13.4690	 4.9770
13.5040	 5.1920
13.5390	 4.8440
13.5740	 5.1350
13.6100	 4.8480
13.6460	 4.9180
13.6820	 4.4560
13.7180	 4.5070
13.7540	 4.2630
13.7910	 5.0760
13.8280	 4.8100
13.8650	 4.7850
13.9020	 4.5560
13.9390	 4.8740
13.9770	 4.3470
14.0150	 4.5970
14.0530	 4.0840
14.0910	 4.4030
14.1290	 4.1280
14.1680	 4.3230
14.2070	 4.0640
14.2460	 4.5140
14.2850	 4.1520
14.3240	 4.5110
14.3640	 3.9560
14.4040	 4.0050
14.4440	 4.0040
14.4840	 4.8930
14.5250	 4.3070
14.5660	 4.3960
14.6070	 3.9350
14.6480	 4.1530
14.6900	 3.6690
14.7310	 4.4030
14.7730	 4.0810
14.8150	 4.5350
14.8580	 3.3020
14.9010	 3.7860
14.9440	 3.2770
14.9870	 3.1320
15.0300	 2.5080
15.0740	 3.1970
15.1180	 2.9730
15.1620	 4.0520
15.2060	 3.5210
15.2510	 4.1270
15.2960	 3.7860
15.3410	 4.4090
15.3870	 3.5330
