Name: Salix babylonica
Type: vegetation
Class: Tree
Genus: Salix
Species: babylonica
Sample No.: JPL131
Owner: JPL
Wavelength Range: VSWIR
Origin: 34.12829; -118.11638;; WGS84
Collection Date: 9/7/2016
Description: Samples were collected at the Huntington Garden in San Marino California as part of a JPL Subcontract studying HyTES imagery. Samples were taken to JPL and processed within 48 hours of collection. The same leaves were processed in the Nicolet and then measured using the ASD.
Measurement: Bidirectional reflectance
First Column: X
Second Column: Y
X Units: Wavelength (micrometer)
Y Units: Reflectance (percentage)
First X Value: 0.35
Last X Value: 2.5
Number of X Values: 2151
Additional Information: vegetation.tree.salix.babylonica.vswir.jpl131.jpl.asd.ancillary.txt

 0.3500	 6.6220
 0.3510	 6.7480
 0.3520	 6.8470
 0.3530	 6.8050
 0.3540	 6.6510
 0.3550	 6.7370
 0.3560	 6.7710
 0.3570	 6.7050
 0.3580	 6.6280
 0.3590	 6.6280
 0.3600	 6.5910
 0.3610	 6.5000
 0.3620	 6.5020
 0.3630	 6.5270
 0.3640	 6.5440
 0.3650	 6.5420
 0.3660	 6.5540
 0.3670	 6.5200
 0.3680	 6.4670
 0.3690	 6.4760
 0.3700	 6.5090
 0.3710	 6.4970
 0.3720	 6.4380
 0.3730	 6.4560
 0.3740	 6.4500
 0.3750	 6.4610
 0.3760	 6.5310
 0.3770	 6.4800
 0.3780	 6.4430
 0.3790	 6.4560
 0.3800	 6.4630
 0.3810	 6.4370
 0.3820	 6.4120
 0.3830	 6.4160
 0.3840	 6.4280
 0.3850	 6.4110
 0.3860	 6.4040
 0.3870	 6.4520
 0.3880	 6.4380
 0.3890	 6.4000
 0.3900	 6.3790
 0.3910	 6.4070
 0.3920	 6.4000
 0.3930	 6.3860
 0.3940	 6.3900
 0.3950	 6.3700
 0.3960	 6.3430
 0.3970	 6.3400
 0.3980	 6.3800
 0.3990	 6.3650
 0.4000	 6.3450
 0.4010	 6.3410
 0.4020	 6.3170
 0.4030	 6.3120
 0.4040	 6.3220
 0.4050	 6.3310
 0.4060	 6.3180
 0.4070	 6.3060
 0.4080	 6.3080
 0.4090	 6.3310
 0.4100	 6.3350
 0.4110	 6.3320
 0.4120	 6.3340
 0.4130	 6.3400
 0.4140	 6.3450
 0.4150	 6.3520
 0.4160	 6.3640
 0.4170	 6.3690
 0.4180	 6.3840
 0.4190	 6.4010
 0.4200	 6.3880
 0.4210	 6.3880
 0.4220	 6.3930
 0.4230	 6.3920
 0.4240	 6.4030
 0.4250	 6.4130
 0.4260	 6.4180
 0.4270	 6.4190
 0.4280	 6.4150
 0.4290	 6.4210
 0.4300	 6.4350
 0.4310	 6.4300
 0.4320	 6.4300
 0.4330	 6.4290
 0.4340	 6.4210
 0.4350	 6.4240
 0.4360	 6.4340
 0.4370	 6.4420
 0.4380	 6.4450
 0.4390	 6.4510
 0.4400	 6.4650
 0.4410	 6.4840
 0.4420	 6.4980
 0.4430	 6.5020
 0.4440	 6.5040
 0.4450	 6.5150
 0.4460	 6.5210
 0.4470	 6.5240
 0.4480	 6.5290
 0.4490	 6.5410
 0.4500	 6.5480
 0.4510	 6.5500
 0.4520	 6.5510
 0.4530	 6.5580
 0.4540	 6.5630
 0.4550	 6.5660
 0.4560	 6.5730
 0.4570	 6.5780
 0.4580	 6.5790
 0.4590	 6.5780
 0.4600	 6.5830
 0.4610	 6.5840
 0.4620	 6.5840
 0.4630	 6.5880
 0.4640	 6.5960
 0.4650	 6.5990
 0.4660	 6.5960
 0.4670	 6.5950
 0.4680	 6.5930
 0.4690	 6.5980
 0.4700	 6.6080
 0.4710	 6.6010
 0.4720	 6.6010
 0.4730	 6.6070
 0.4740	 6.6060
 0.4750	 6.6100
 0.4760	 6.6120
 0.4770	 6.6140
 0.4780	 6.6240
 0.4790	 6.6240
 0.4800	 6.6200
 0.4810	 6.6240
 0.4820	 6.6200
 0.4830	 6.6140
 0.4840	 6.6120
 0.4850	 6.6210
 0.4860	 6.6230
 0.4870	 6.6210
 0.4880	 6.6210
 0.4890	 6.6320
 0.4900	 6.6410
 0.4910	 6.6490
 0.4920	 6.6590
 0.4930	 6.6670
 0.4940	 6.6780
 0.4950	 6.6930
 0.4960	 6.7060
 0.4970	 6.7210
 0.4980	 6.7380
 0.4990	 6.7570
 0.5000	 6.7750
 0.5010	 6.7960
 0.5020	 6.8210
 0.5030	 6.8450
 0.5040	 6.8730
 0.5050	 6.9080
 0.5060	 6.9470
 0.5070	 6.9930
 0.5080	 7.0380
 0.5090	 7.0870
 0.5100	 7.1510
 0.5110	 7.2190
 0.5120	 7.2910
 0.5130	 7.3700
 0.5140	 7.4560
 0.5150	 7.5520
 0.5160	 7.6590
 0.5170	 7.7760
 0.5180	 7.8950
 0.5190	 8.0240
 0.5200	 8.1610
 0.5210	 8.2940
 0.5220	 8.4290
 0.5230	 8.5730
 0.5240	 8.7240
 0.5250	 8.8670
 0.5260	 9.0040
 0.5270	 9.1380
 0.5280	 9.2670
 0.5290	 9.3870
 0.5300	 9.5000
 0.5310	 9.6060
 0.5320	 9.6980
 0.5330	 9.7860
 0.5340	 9.8660
 0.5350	 9.9350
 0.5360	 9.9950
 0.5370	10.0450
 0.5380	10.0880
 0.5390	10.1300
 0.5400	10.1640
 0.5410	10.1900
 0.5420	10.2130
 0.5430	10.2360
 0.5440	10.2610
 0.5450	10.2900
 0.5460	10.3230
 0.5470	10.3520
 0.5480	10.3780
 0.5490	10.4030
 0.5500	10.4210
 0.5510	10.4350
 0.5520	10.4420
 0.5530	10.4400
 0.5540	10.4310
 0.5550	10.4130
 0.5560	10.3840
 0.5570	10.3460
 0.5580	10.2990
 0.5590	10.2420
 0.5600	10.1750
 0.5610	10.0980
 0.5620	10.0160
 0.5630	 9.9310
 0.5640	 9.8420
 0.5650	 9.7470
 0.5660	 9.6480
 0.5670	 9.5490
 0.5680	 9.4520
 0.5690	 9.3580
 0.5700	 9.2660
 0.5710	 9.1770
 0.5720	 9.0860
 0.5730	 9.0030
 0.5740	 8.9280
 0.5750	 8.8580
 0.5760	 8.7970
 0.5770	 8.7400
 0.5780	 8.6810
 0.5790	 8.6210
 0.5800	 8.5650
 0.5810	 8.5170
 0.5820	 8.4770
 0.5830	 8.4370
 0.5840	 8.3990
 0.5850	 8.3630
 0.5860	 8.3230
 0.5870	 8.2830
 0.5880	 8.2420
 0.5890	 8.2030
 0.5900	 8.1830
 0.5910	 8.1710
 0.5920	 8.1620
 0.5930	 8.1490
 0.5940	 8.1330
 0.5950	 8.1170
 0.5960	 8.1030
 0.5970	 8.0890
 0.5980	 8.0770
 0.5990	 8.0670
 0.6000	 8.0540
 0.6010	 8.0410
 0.6020	 8.0260
 0.6030	 8.0070
 0.6040	 7.9840
 0.6050	 7.9560
 0.6060	 7.9250
 0.6070	 7.8900
 0.6080	 7.8520
 0.6090	 7.8080
 0.6100	 7.7570
 0.6110	 7.7010
 0.6120	 7.6650
 0.6130	 7.6390
 0.6140	 7.6160
 0.6150	 7.5860
 0.6160	 7.5560
 0.6170	 7.5260
 0.6180	 7.4980
 0.6190	 7.4700
 0.6200	 7.4460
 0.6210	 7.4270
 0.6220	 7.4130
 0.6230	 7.3960
 0.6240	 7.3810
 0.6250	 7.3710
 0.6260	 7.3640
 0.6270	 7.3560
 0.6280	 7.3470
 0.6290	 7.3400
 0.6300	 7.3350
 0.6310	 7.3300
 0.6320	 7.3250
 0.6330	 7.3200
 0.6340	 7.3110
 0.6350	 7.2960
 0.6360	 7.2770
 0.6370	 7.2590
 0.6380	 7.2350
 0.6390	 7.2060
 0.6400	 7.1800
 0.6410	 7.1530
 0.6420	 7.1240
 0.6430	 7.0950
 0.6440	 7.0680
 0.6450	 7.0430
 0.6460	 7.0180
 0.6470	 6.9940
 0.6480	 6.9760
 0.6490	 6.9600
 0.6500	 6.9440
 0.6510	 6.9320
 0.6520	 6.9230
 0.6530	 6.9160
 0.6540	 6.9100
 0.6550	 6.9050
 0.6560	 6.8960
 0.6570	 6.8830
 0.6580	 6.8690
 0.6590	 6.8620
 0.6600	 6.8510
 0.6610	 6.8360
 0.6620	 6.8250
 0.6630	 6.8170
 0.6640	 6.8100
 0.6650	 6.8040
 0.6660	 6.8000
 0.6670	 6.8010
 0.6680	 6.8060
 0.6690	 6.8130
 0.6700	 6.8220
 0.6710	 6.8350
 0.6720	 6.8500
 0.6730	 6.8660
 0.6740	 6.8840
 0.6750	 6.9060
 0.6760	 6.9310
 0.6770	 6.9600
 0.6780	 6.9880
 0.6790	 7.0180
 0.6800	 7.0530
 0.6810	 7.0880
 0.6820	 7.1260
 0.6830	 7.1680
 0.6840	 7.2100
 0.6850	 7.2520
 0.6860	 7.2980
 0.6870	 7.3490
 0.6880	 7.4070
 0.6890	 7.4800
 0.6900	 7.5730
 0.6910	 7.6930
 0.6920	 7.8410
 0.6930	 8.0240
 0.6940	 8.2470
 0.6950	 8.5200
 0.6960	 8.8460
 0.6970	 9.2230
 0.6980	 9.6480
 0.6990	10.1200
 0.7000	10.6380
 0.7010	11.1990
 0.7020	11.7940
 0.7030	12.4190
 0.7040	13.0710
 0.7050	13.7470
 0.7060	14.4400
 0.7070	15.1520
 0.7080	15.8800
 0.7090	16.6240
 0.7100	17.3840
 0.7110	18.1600
 0.7120	18.9500
 0.7130	19.7480
 0.7140	20.5560
 0.7150	21.3720
 0.7160	22.1920
 0.7170	23.0200
 0.7180	23.8500
 0.7190	24.6790
 0.7200	25.5060
 0.7210	26.3250
 0.7220	27.1360
 0.7230	27.9340
 0.7240	28.7140
 0.7250	29.4780
 0.7260	30.2210
 0.7270	30.9410
 0.7280	31.6330
 0.7290	32.3000
 0.7300	32.9420
 0.7310	33.5550
 0.7320	34.1370
 0.7330	34.6920
 0.7340	35.2180
 0.7350	35.7130
 0.7360	36.1820
 0.7370	36.6230
 0.7380	37.0350
 0.7390	37.4190
 0.7400	37.7800
 0.7410	38.1170
 0.7420	38.4290
 0.7430	38.7160
 0.7440	38.9790
 0.7450	39.2210
 0.7460	39.4430
 0.7470	39.6460
 0.7480	39.8320
 0.7490	40.0020
 0.7500	40.1530
 0.7510	40.2910
 0.7520	40.4190
 0.7530	40.5380
 0.7540	40.6430
 0.7550	40.7380
 0.7560	40.8230
 0.7570	40.8990
 0.7580	40.9650
 0.7590	41.0260
 0.7600	41.0870
 0.7610	41.1410
 0.7620	41.1880
 0.7630	41.2300
 0.7640	41.2670
 0.7650	41.3030
 0.7660	41.3340
 0.7670	41.3610
 0.7680	41.3850
 0.7690	41.4050
 0.7700	41.4240
 0.7710	41.4430
 0.7720	41.4600
 0.7730	41.4750
 0.7740	41.4900
 0.7750	41.5030
 0.7760	41.5190
 0.7770	41.5300
 0.7780	41.5380
 0.7790	41.5490
 0.7800	41.5620
 0.7810	41.5750
 0.7820	41.5860
 0.7830	41.5910
 0.7840	41.5970
 0.7850	41.6050
 0.7860	41.6140
 0.7870	41.6200
 0.7880	41.6250
 0.7890	41.6290
 0.7900	41.6290
 0.7910	41.6320
 0.7920	41.6360
 0.7930	41.6390
 0.7940	41.6390
 0.7950	41.6400
 0.7960	41.6390
 0.7970	41.6360
 0.7980	41.6340
 0.7990	41.6290
 0.8000	41.6240
 0.8010	41.6200
 0.8020	41.6150
 0.8030	41.6070
 0.8040	41.6010
 0.8050	41.6010
 0.8060	41.5940
 0.8070	41.5830
 0.8080	41.5720
 0.8090	41.5640
 0.8100	41.5550
 0.8110	41.5470
 0.8120	41.5390
 0.8130	41.5270
 0.8140	41.5140
 0.8150	41.5010
 0.8160	41.4880
 0.8170	41.4770
 0.8180	41.4670
 0.8190	41.4560
 0.8200	41.4430
 0.8210	41.4290
 0.8220	41.4170
 0.8230	41.4060
 0.8240	41.3910
 0.8250	41.3770
 0.8260	41.3660
 0.8270	41.3560
 0.8280	41.3470
 0.8290	41.3320
 0.8300	41.3170
 0.8310	41.3060
 0.8320	41.2920
 0.8330	41.2820
 0.8340	41.2730
 0.8350	41.2630
 0.8360	41.2550
 0.8370	41.2450
 0.8380	41.2340
 0.8390	41.2250
 0.8400	41.2200
 0.8410	41.2160
 0.8420	41.2110
 0.8430	41.2070
 0.8440	41.2040
 0.8450	41.2010
 0.8460	41.1970
 0.8470	41.1910
 0.8480	41.1890
 0.8490	41.1880
 0.8500	41.1850
 0.8510	41.1820
 0.8520	41.1790
 0.8530	41.1760
 0.8540	41.1760
 0.8550	41.1790
 0.8560	41.1800
 0.8570	41.1800
 0.8580	41.1850
 0.8590	41.1940
 0.8600	41.2000
 0.8610	41.2010
 0.8620	41.2040
 0.8630	41.2080
 0.8640	41.2100
 0.8650	41.2130
 0.8660	41.2180
 0.8670	41.2260
 0.8680	41.2350
 0.8690	41.2450
 0.8700	41.2490
 0.8710	41.2550
 0.8720	41.2640
 0.8730	41.2730
 0.8740	41.2840
 0.8750	41.2920
 0.8760	41.2980
 0.8770	41.3100
 0.8780	41.3220
 0.8790	41.3330
 0.8800	41.3420
 0.8810	41.3530
 0.8820	41.3620
 0.8830	41.3730
 0.8840	41.3870
 0.8850	41.3960
 0.8860	41.4050
 0.8870	41.4150
 0.8880	41.4240
 0.8890	41.4340
 0.8900	41.4470
 0.8910	41.4600
 0.8920	41.4660
 0.8930	41.4730
 0.8940	41.4840
 0.8950	41.4980
 0.8960	41.5100
 0.8970	41.5240
 0.8980	41.5330
 0.8990	41.5380
 0.9000	41.5510
 0.9010	41.5630
 0.9020	41.5720
 0.9030	41.5800
 0.9040	41.5870
 0.9050	41.5960
 0.9060	41.6080
 0.9070	41.6190
 0.9080	41.6250
 0.9090	41.6290
 0.9100	41.6330
 0.9110	41.6350
 0.9120	41.6430
 0.9130	41.6510
 0.9140	41.6560
 0.9150	41.6590
 0.9160	41.6620
 0.9170	41.6640
 0.9180	41.6640
 0.9190	41.6600
 0.9200	41.6630
 0.9210	41.6650
 0.9220	41.6630
 0.9230	41.6580
 0.9240	41.6560
 0.9250	41.6540
 0.9260	41.6480
 0.9270	41.6340
 0.9280	41.6220
 0.9290	41.6090
 0.9300	41.5950
 0.9310	41.5830
 0.9320	41.5700
 0.9330	41.5550
 0.9340	41.5400
 0.9350	41.5290
 0.9360	41.5070
 0.9370	41.4850
 0.9380	41.4700
 0.9390	41.4520
 0.9400	41.4270
 0.9410	41.3990
 0.9420	41.3730
 0.9430	41.3490
 0.9440	41.3280
 0.9450	41.3000
 0.9460	41.2580
 0.9470	41.2220
 0.9480	41.1930
 0.9490	41.1590
 0.9500	41.1110
 0.9510	41.0570
 0.9520	41.0090
 0.9530	40.9640
 0.9540	40.9150
 0.9550	40.8660
 0.9560	40.8260
 0.9570	40.7850
 0.9580	40.7340
 0.9590	40.6850
 0.9600	40.6510
 0.9610	40.6220
 0.9620	40.5830
 0.9630	40.5520
 0.9640	40.5260
 0.9650	40.5070
 0.9660	40.4940
 0.9670	40.4700
 0.9680	40.4480
 0.9690	40.4290
 0.9700	40.4120
 0.9710	40.3980
 0.9720	40.3900
 0.9730	40.3830
 0.9740	40.3730
 0.9750	40.3650
 0.9760	40.3640
 0.9770	40.3620
 0.9780	40.3530
 0.9790	40.3540
 0.9800	40.3480
 0.9810	40.3410
 0.9820	40.3450
 0.9830	40.3440
 0.9840	40.3390
 0.9850	40.3400
 0.9860	40.3520
 0.9870	40.3660
 0.9880	40.3730
 0.9890	40.3760
 0.9900	40.3830
 0.9910	40.3820
 0.9920	40.3940
 0.9930	40.4100
 0.9940	40.4150
 0.9950	40.4200
 0.9960	40.4270
 0.9970	40.4340
 0.9980	40.4440
 0.9990	40.4640
 1.0000	40.4810
 1.0010	42.0950
 1.0020	42.1090
 1.0030	42.1200
 1.0040	42.1330
 1.0050	42.1460
 1.0060	42.1560
 1.0070	42.1670
 1.0080	42.1770
 1.0090	42.1850
 1.0100	42.1950
 1.0110	42.2060
 1.0120	42.2190
 1.0130	42.2320
 1.0140	42.2450
 1.0150	42.2590
 1.0160	42.2740
 1.0170	42.2870
 1.0180	42.2930
 1.0190	42.3000
 1.0200	42.3120
 1.0210	42.3210
 1.0220	42.3330
 1.0230	42.3450
 1.0240	42.3590
 1.0250	42.3710
 1.0260	42.3820
 1.0270	42.3940
 1.0280	42.4030
 1.0290	42.4150
 1.0300	42.4300
 1.0310	42.4430
 1.0320	42.4560
 1.0330	42.4680
 1.0340	42.4800
 1.0350	42.4930
 1.0360	42.5040
 1.0370	42.5190
 1.0380	42.5310
 1.0390	42.5430
 1.0400	42.5550
 1.0410	42.5650
 1.0420	42.5770
 1.0430	42.5890
 1.0440	42.6020
 1.0450	42.6170
 1.0460	42.6290
 1.0470	42.6390
 1.0480	42.6470
 1.0490	42.6530
 1.0500	42.6600
 1.0510	42.6680
 1.0520	42.6730
 1.0530	42.6790
 1.0540	42.6840
 1.0550	42.6890
 1.0560	42.6940
 1.0570	42.6960
 1.0580	42.6960
 1.0590	42.6950
 1.0600	42.6910
 1.0610	42.6890
 1.0620	42.6880
 1.0630	42.6860
 1.0640	42.6820
 1.0650	42.6790
 1.0660	42.6760
 1.0670	42.6710
 1.0680	42.6660
 1.0690	42.6610
 1.0700	42.6550
 1.0710	42.6470
 1.0720	42.6390
 1.0730	42.6310
 1.0740	42.6220
 1.0750	42.6130
 1.0760	42.6030
 1.0770	42.5920
 1.0780	42.5830
 1.0790	42.5740
 1.0800	42.5650
 1.0810	42.5580
 1.0820	42.5490
 1.0830	42.5380
 1.0840	42.5270
 1.0850	42.5150
 1.0860	42.5020
 1.0870	42.4910
 1.0880	42.4810
 1.0890	42.4710
 1.0900	42.4640
 1.0910	42.4540
 1.0920	42.4420
 1.0930	42.4320
 1.0940	42.4210
 1.0950	42.4110
 1.0960	42.4040
 1.0970	42.3950
 1.0980	42.3830
 1.0990	42.3750
 1.1000	42.3690
 1.1010	42.3610
 1.1020	42.3530
 1.1030	42.3470
 1.1040	42.3350
 1.1050	42.3220
 1.1060	42.3110
 1.1070	42.3010
 1.1080	42.2920
 1.1090	42.2850
 1.1100	42.2770
 1.1110	42.2690
 1.1120	42.2590
 1.1130	42.2500
 1.1140	42.2400
 1.1150	42.2290
 1.1160	42.2180
 1.1170	42.2060
 1.1180	42.1920
 1.1190	42.1770
 1.1200	42.1600
 1.1210	42.1410
 1.1220	42.1210
 1.1230	42.1000
 1.1240	42.0750
 1.1250	42.0450
 1.1260	42.0140
 1.1270	41.9770
 1.1280	41.9370
 1.1290	41.8910
 1.1300	41.8410
 1.1310	41.7850
 1.1320	41.7220
 1.1330	41.6560
 1.1340	41.5870
 1.1350	41.5120
 1.1360	41.4330
 1.1370	41.3490
 1.1380	41.2590
 1.1390	41.1660
 1.1400	41.0690
 1.1410	40.9680
 1.1420	40.8650
 1.1430	40.7600
 1.1440	40.6540
 1.1450	40.5450
 1.1460	40.4420
 1.1470	40.3370
 1.1480	40.2390
 1.1490	40.1440
 1.1500	40.0540
 1.1510	39.9660
 1.1520	39.8850
 1.1530	39.8070
 1.1540	39.7360
 1.1550	39.6700
 1.1560	39.6110
 1.1570	39.5590
 1.1580	39.5130
 1.1590	39.4710
 1.1600	39.4310
 1.1610	39.3950
 1.1620	39.3620
 1.1630	39.3340
 1.1640	39.3080
 1.1650	39.2860
 1.1660	39.2670
 1.1670	39.2490
 1.1680	39.2340
 1.1690	39.2200
 1.1700	39.2080
 1.1710	39.1950
 1.1720	39.1840
 1.1730	39.1720
 1.1740	39.1590
 1.1750	39.1480
 1.1760	39.1360
 1.1770	39.1230
 1.1780	39.1110
 1.1790	39.0970
 1.1800	39.0820
 1.1810	39.0670
 1.1820	39.0530
 1.1830	39.0380
 1.1840	39.0230
 1.1850	39.0080
 1.1860	38.9950
 1.1870	38.9800
 1.1880	38.9660
 1.1890	38.9520
 1.1900	38.9410
 1.1910	38.9290
 1.1920	38.9190
 1.1930	38.9130
 1.1940	38.9060
 1.1950	38.8980
 1.1960	38.8920
 1.1970	38.8870
 1.1980	38.8830
 1.1990	38.8820
 1.2000	38.8810
 1.2010	38.8810
 1.2020	38.8850
 1.2030	38.8870
 1.2040	38.8900
 1.2050	38.8950
 1.2060	38.9010
 1.2070	38.9080
 1.2080	38.9160
 1.2090	38.9250
 1.2100	38.9340
 1.2110	38.9430
 1.2120	38.9530
 1.2130	38.9650
 1.2140	38.9760
 1.2150	38.9900
 1.2160	39.0040
 1.2170	39.0210
 1.2180	39.0360
 1.2190	39.0530
 1.2200	39.0710
 1.2210	39.0870
 1.2220	39.1020
 1.2230	39.1190
 1.2240	39.1340
 1.2250	39.1490
 1.2260	39.1650
 1.2270	39.1820
 1.2280	39.1980
 1.2290	39.2130
 1.2300	39.2280
 1.2310	39.2420
 1.2320	39.2550
 1.2330	39.2690
 1.2340	39.2820
 1.2350	39.2920
 1.2360	39.3040
 1.2370	39.3150
 1.2380	39.3260
 1.2390	39.3370
 1.2400	39.3460
 1.2410	39.3540
 1.2420	39.3610
 1.2430	39.3680
 1.2440	39.3760
 1.2450	39.3840
 1.2460	39.3930
 1.2470	39.4000
 1.2480	39.4060
 1.2490	39.4120
 1.2500	39.4180
 1.2510	39.4220
 1.2520	39.4280
 1.2530	39.4300
 1.2540	39.4330
 1.2550	39.4360
 1.2560	39.4370
 1.2570	39.4400
 1.2580	39.4420
 1.2590	39.4420
 1.2600	39.4420
 1.2610	39.4400
 1.2620	39.4370
 1.2630	39.4340
 1.2640	39.4290
 1.2650	39.4250
 1.2660	39.4210
 1.2670	39.4160
 1.2680	39.4120
 1.2690	39.4070
 1.2700	39.4030
 1.2710	39.3970
 1.2720	39.3920
 1.2730	39.3870
 1.2740	39.3810
 1.2750	39.3730
 1.2760	39.3650
 1.2770	39.3570
 1.2780	39.3470
 1.2790	39.3360
 1.2800	39.3230
 1.2810	39.3070
 1.2820	39.2910
 1.2830	39.2730
 1.2840	39.2540
 1.2850	39.2320
 1.2860	39.2070
 1.2870	39.1810
 1.2880	39.1530
 1.2890	39.1220
 1.2900	39.0890
 1.2910	39.0510
 1.2920	39.0100
 1.2930	38.9660
 1.2940	38.9190
 1.2950	38.8700
 1.2960	38.8180
 1.2970	38.7650
 1.2980	38.7110
 1.2990	38.6540
 1.3000	38.5950
 1.3010	38.5320
 1.3020	38.4680
 1.3030	38.4040
 1.3040	38.3370
 1.3050	38.2710
 1.3060	38.2030
 1.3070	38.1320
 1.3080	38.0610
 1.3090	37.9880
 1.3100	37.9120
 1.3110	37.8350
 1.3120	37.7580
 1.3130	37.6790
 1.3140	37.5980
 1.3150	37.5170
 1.3160	37.4340
 1.3170	37.3500
 1.3180	37.2640
 1.3190	37.1770
 1.3200	37.0910
 1.3210	37.0030
 1.3220	36.9140
 1.3230	36.8230
 1.3240	36.7310
 1.3250	36.6380
 1.3260	36.5430
 1.3270	36.4470
 1.3280	36.3490
 1.3290	36.2500
 1.3300	36.1510
 1.3310	36.0510
 1.3320	35.9510
 1.3330	35.8500
 1.3340	35.7480
 1.3350	35.6450
 1.3360	35.5420
 1.3370	35.4380
 1.3380	35.3360
 1.3390	35.2340
 1.3400	35.1310
 1.3410	35.0310
 1.3420	34.9320
 1.3430	34.8320
 1.3440	34.7350
 1.3450	34.6370
 1.3460	34.5400
 1.3470	34.4440
 1.3480	34.3480
 1.3490	34.2540
 1.3500	34.1600
 1.3510	34.0650
 1.3520	33.9710
 1.3530	33.8780
 1.3540	33.7840
 1.3550	33.6890
 1.3560	33.5930
 1.3570	33.4960
 1.3580	33.3980
 1.3590	33.2980
 1.3600	33.1950
 1.3610	33.0900
 1.3620	32.9780
 1.3630	32.8640
 1.3640	32.7440
 1.3650	32.6170
 1.3660	32.4840
 1.3670	32.3440
 1.3680	32.1950
 1.3690	32.0370
 1.3700	31.8660
 1.3710	31.6850
 1.3720	31.4910
 1.3730	31.2820
 1.3740	31.0590
 1.3750	30.8180
 1.3760	30.5580
 1.3770	30.2780
 1.3780	29.9760
 1.3790	29.6560
 1.3800	29.3160
 1.3810	28.9510
 1.3820	28.5700
 1.3830	28.1700
 1.3840	27.7530
 1.3850	27.3170
 1.3860	26.8690
 1.3870	26.4020
 1.3880	25.9310
 1.3890	25.4490
 1.3900	24.9580
 1.3910	24.4660
 1.3920	23.9690
 1.3930	23.4680
 1.3940	22.9700
 1.3950	22.4700
 1.3960	21.9790
 1.3970	21.4990
 1.3980	21.0280
 1.3990	20.5750
 1.4000	20.1360
 1.4010	19.7090
 1.4020	19.3010
 1.4030	18.9090
 1.4040	18.5350
 1.4050	18.1820
 1.4060	17.8480
 1.4070	17.5360
 1.4080	17.2420
 1.4090	16.9640
 1.4100	16.7060
 1.4110	16.4640
 1.4120	16.2380
 1.4130	16.0300
 1.4140	15.8360
 1.4150	15.6590
 1.4160	15.4960
 1.4170	15.3450
 1.4180	15.2060
 1.4190	15.0760
 1.4200	14.9570
 1.4210	14.8470
 1.4220	14.7470
 1.4230	14.6570
 1.4240	14.5740
 1.4250	14.4980
 1.4260	14.4300
 1.4270	14.3660
 1.4280	14.3090
 1.4290	14.2570
 1.4300	14.2110
 1.4310	14.1690
 1.4320	14.1340
 1.4330	14.1020
 1.4340	14.0750
 1.4350	14.0510
 1.4360	14.0310
 1.4370	14.0140
 1.4380	14.0010
 1.4390	13.9910
 1.4400	13.9830
 1.4410	13.9780
 1.4420	13.9760
 1.4430	13.9760
 1.4440	13.9770
 1.4450	13.9800
 1.4460	13.9840
 1.4470	13.9900
 1.4480	13.9980
 1.4490	14.0070
 1.4500	14.0170
 1.4510	14.0290
 1.4520	14.0420
 1.4530	14.0570
 1.4540	14.0730
 1.4550	14.0920
 1.4560	14.1120
 1.4570	14.1330
 1.4580	14.1580
 1.4590	14.1850
 1.4600	14.2140
 1.4610	14.2480
 1.4620	14.2840
 1.4630	14.3250
 1.4640	14.3690
 1.4650	14.4160
 1.4660	14.4680
 1.4670	14.5220
 1.4680	14.5790
 1.4690	14.6420
 1.4700	14.7080
 1.4710	14.7780
 1.4720	14.8500
 1.4730	14.9260
 1.4740	15.0040
 1.4750	15.0860
 1.4760	15.1710
 1.4770	15.2580
 1.4780	15.3460
 1.4790	15.4370
 1.4800	15.5270
 1.4810	15.6200
 1.4820	15.7150
 1.4830	15.8110
 1.4840	15.9090
 1.4850	16.0090
 1.4860	16.1090
 1.4870	16.2120
 1.4880	16.3140
 1.4890	16.4170
 1.4900	16.5210
 1.4910	16.6250
 1.4920	16.7300
 1.4930	16.8360
 1.4940	16.9430
 1.4950	17.0490
 1.4960	17.1570
 1.4970	17.2640
 1.4980	17.3720
 1.4990	17.4800
 1.5000	17.5890
 1.5010	17.6980
 1.5020	17.8070
 1.5030	17.9160
 1.5040	18.0250
 1.5050	18.1340
 1.5060	18.2430
 1.5070	18.3520
 1.5080	18.4610
 1.5090	18.5700
 1.5100	18.6790
 1.5110	18.7880
 1.5120	18.8970
 1.5130	19.0050
 1.5140	19.1130
 1.5150	19.2210
 1.5160	19.3280
 1.5170	19.4350
 1.5180	19.5410
 1.5190	19.6460
 1.5200	19.7520
 1.5210	19.8550
 1.5220	19.9570
 1.5230	20.0600
 1.5240	20.1630
 1.5250	20.2650
 1.5260	20.3680
 1.5270	20.4680
 1.5280	20.5680
 1.5290	20.6680
 1.5300	20.7660
 1.5310	20.8650
 1.5320	20.9620
 1.5330	21.0590
 1.5340	21.1550
 1.5350	21.2490
 1.5360	21.3430
 1.5370	21.4350
 1.5380	21.5270
 1.5390	21.6190
 1.5400	21.7090
 1.5410	21.7990
 1.5420	21.8890
 1.5430	21.9780
 1.5440	22.0660
 1.5450	22.1530
 1.5460	22.2380
 1.5470	22.3240
 1.5480	22.4090
 1.5490	22.4930
 1.5500	22.5750
 1.5510	22.6560
 1.5520	22.7370
 1.5530	22.8160
 1.5540	22.8970
 1.5550	22.9760
 1.5560	23.0540
 1.5570	23.1320
 1.5580	23.2090
 1.5590	23.2840
 1.5600	23.3600
 1.5610	23.4340
 1.5620	23.5070
 1.5630	23.5800
 1.5640	23.6520
 1.5650	23.7230
 1.5660	23.7940
 1.5670	23.8640
 1.5680	23.9340
 1.5690	24.0010
 1.5700	24.0690
 1.5710	24.1370
 1.5720	24.2020
 1.5730	24.2680
 1.5740	24.3340
 1.5750	24.3970
 1.5760	24.4600
 1.5770	24.5230
 1.5780	24.5840
 1.5790	24.6470
 1.5800	24.7090
 1.5810	24.7690
 1.5820	24.8300
 1.5830	24.8890
 1.5840	24.9480
 1.5850	25.0060
 1.5860	25.0640
 1.5870	25.1220
 1.5880	25.1790
 1.5890	25.2370
 1.5900	25.2940
 1.5910	25.3500
 1.5920	25.4050
 1.5930	25.4590
 1.5940	25.5130
 1.5950	25.5670
 1.5960	25.6200
 1.5970	25.6730
 1.5980	25.7240
 1.5990	25.7750
 1.6000	25.8260
 1.6010	25.8760
 1.6020	25.9250
 1.6030	25.9750
 1.6040	26.0230
 1.6050	26.0700
 1.6060	26.1170
 1.6070	26.1640
 1.6080	26.2100
 1.6090	26.2560
 1.6100	26.3010
 1.6110	26.3450
 1.6120	26.3890
 1.6130	26.4320
 1.6140	26.4740
 1.6150	26.5160
 1.6160	26.5560
 1.6170	26.5950
 1.6180	26.6340
 1.6190	26.6730
 1.6200	26.7110
 1.6210	26.7480
 1.6220	26.7840
 1.6230	26.8200
 1.6240	26.8570
 1.6250	26.8920
 1.6260	26.9270
 1.6270	26.9620
 1.6280	26.9970
 1.6290	27.0300
 1.6300	27.0620
 1.6310	27.0930
 1.6320	27.1220
 1.6330	27.1510
 1.6340	27.1790
 1.6350	27.2070
 1.6360	27.2340
 1.6370	27.2600
 1.6380	27.2840
 1.6390	27.3080
 1.6400	27.3310
 1.6410	27.3530
 1.6420	27.3740
 1.6430	27.3930
 1.6440	27.4110
 1.6450	27.4260
 1.6460	27.4400
 1.6470	27.4530
 1.6480	27.4650
 1.6490	27.4760
 1.6500	27.4870
 1.6510	27.4950
 1.6520	27.5010
 1.6530	27.5050
 1.6540	27.5050
 1.6550	27.5050
 1.6560	27.5050
 1.6570	27.5040
 1.6580	27.5010
 1.6590	27.4990
 1.6600	27.4950
 1.6610	27.4890
 1.6620	27.4850
 1.6630	27.4800
 1.6640	27.4740
 1.6650	27.4680
 1.6660	27.4620
 1.6670	27.4560
 1.6680	27.4530
 1.6690	27.4490
 1.6700	27.4470
 1.6710	27.4440
 1.6720	27.4400
 1.6730	27.4370
 1.6740	27.4330
 1.6750	27.4280
 1.6760	27.4220
 1.6770	27.4150
 1.6780	27.4070
 1.6790	27.3980
 1.6800	27.3890
 1.6810	27.3780
 1.6820	27.3660
 1.6830	27.3500
 1.6840	27.3340
 1.6850	27.3140
 1.6860	27.2930
 1.6870	27.2710
 1.6880	27.2480
 1.6890	27.2250
 1.6900	27.2000
 1.6910	27.1730
 1.6920	27.1460
 1.6930	27.1190
 1.6940	27.0920
 1.6950	27.0660
 1.6960	27.0390
 1.6970	27.0100
 1.6980	26.9810
 1.6990	26.9510
 1.7000	26.9200
 1.7010	26.8880
 1.7020	26.8540
 1.7030	26.8180
 1.7040	26.7840
 1.7050	26.7510
 1.7060	26.7170
 1.7070	26.6840
 1.7080	26.6490
 1.7090	26.6110
 1.7100	26.5730
 1.7110	26.5340
 1.7120	26.4960
 1.7130	26.4550
 1.7140	26.4140
 1.7150	26.3750
 1.7160	26.3340
 1.7170	26.2930
 1.7180	26.2500
 1.7190	26.2050
 1.7200	26.1600
 1.7210	26.1150
 1.7220	26.0710
 1.7230	26.0270
 1.7240	25.9830
 1.7250	25.9370
 1.7260	25.8900
 1.7270	25.8450
 1.7280	25.8000
 1.7290	25.7560
 1.7300	25.7150
 1.7310	25.6750
 1.7320	25.6350
 1.7330	25.5970
 1.7340	25.5590
 1.7350	25.5220
 1.7360	25.4880
 1.7370	25.4520
 1.7380	25.4160
 1.7390	25.3780
 1.7400	25.3390
 1.7410	25.2980
 1.7420	25.2550
 1.7430	25.2110
 1.7440	25.1640
 1.7450	25.1160
 1.7460	25.0660
 1.7470	25.0170
 1.7480	24.9670
 1.7490	24.9170
 1.7500	24.8660
 1.7510	24.8150
 1.7520	24.7630
 1.7530	24.7110
 1.7540	24.6580
 1.7550	24.6060
 1.7560	24.5540
 1.7570	24.5020
 1.7580	24.4500
 1.7590	24.4000
 1.7600	24.3520
 1.7610	24.3060
 1.7620	24.2610
 1.7630	24.2150
 1.7640	24.1720
 1.7650	24.1300
 1.7660	24.0910
 1.7670	24.0550
 1.7680	24.0180
 1.7690	23.9830
 1.7700	23.9490
 1.7710	23.9140
 1.7720	23.8820
 1.7730	23.8500
 1.7740	23.8200
 1.7750	23.7920
 1.7760	23.7640
 1.7770	23.7360
 1.7780	23.7110
 1.7790	23.6870
 1.7800	23.6630
 1.7810	23.6420
 1.7820	23.6210
 1.7830	23.6000
 1.7840	23.5830
 1.7850	23.5700
 1.7860	23.5560
 1.7870	23.5440
 1.7880	23.5320
 1.7890	23.5200
 1.7900	23.5110
 1.7910	23.5040
 1.7920	23.5000
 1.7930	23.4960
 1.7940	23.4940
 1.7950	23.4930
 1.7960	23.4920
 1.7970	23.4930
 1.7980	23.4940
 1.7990	23.4970
 1.8000	23.5030
 1.8010	23.5070
 1.8020	23.5130
 1.8030	23.5190
 1.8040	23.5240
 1.8050	23.5290
 1.8060	23.5360
 1.8070	23.5420
 1.8080	23.5480
 1.8090	23.5520
 1.8100	23.5560
 1.8110	23.5610
 1.8120	23.5640
 1.8130	23.5680
 1.8140	23.5730
 1.8150	23.5730
 1.8160	23.5740
 1.8170	23.5740
 1.8180	23.5750
 1.8190	23.5760
 1.8200	23.5760
 1.8210	23.5770
 1.8220	23.5740
 1.8230	23.5700
 1.8240	23.5660
 1.8250	23.5600
 1.8260	23.5530
 1.8270	23.5460
 1.8280	23.5350
 1.8290	23.5190
 1.8300	23.5040
 1.8310	23.8200
 1.8320	23.7970
 1.8330	23.7680
 1.8340	23.7380
 1.8350	23.7040
 1.8360	23.6670
 1.8370	23.6260
 1.8380	23.5800
 1.8390	23.5310
 1.8400	23.4820
 1.8410	23.4250
 1.8420	23.3620
 1.8430	23.2970
 1.8440	23.2250
 1.8450	23.1460
 1.8460	23.0620
 1.8470	22.9720
 1.8480	22.8740
 1.8490	22.7660
 1.8500	22.6490
 1.8510	22.5240
 1.8520	22.3910
 1.8530	22.2460
 1.8540	22.0910
 1.8550	21.9260
 1.8560	21.7490
 1.8570	21.5610
 1.8580	21.3640
 1.8590	21.1550
 1.8600	20.9350
 1.8610	20.7020
 1.8620	20.4520
 1.8630	20.1930
 1.8640	19.9210
 1.8650	19.6340
 1.8660	19.3360
 1.8670	19.0200
 1.8680	18.6910
 1.8690	18.3500
 1.8700	17.9960
 1.8710	17.6300
 1.8720	17.2560
 1.8730	16.8740
 1.8740	16.4870
 1.8750	16.0990
 1.8760	15.7080
 1.8770	15.3170
 1.8780	14.9290
 1.8790	14.5400
 1.8800	14.1610
 1.8810	13.7870
 1.8820	13.4180
 1.8830	13.0550
 1.8840	12.7040
 1.8850	12.3590
 1.8860	12.0260
 1.8870	11.7080
 1.8880	11.4020
 1.8890	11.1140
 1.8900	10.8460
 1.8910	10.5940
 1.8920	10.3570
 1.8930	10.1400
 1.8940	 9.9390
 1.8950	 9.7550
 1.8960	 9.5870
 1.8970	 9.4350
 1.8980	 9.3000
 1.8990	 9.1770
 1.9000	 9.0660
 1.9010	 8.9690
 1.9020	 8.8810
 1.9030	 8.8040
 1.9040	 8.7390
 1.9050	 8.6820
 1.9060	 8.6320
 1.9070	 8.5910
 1.9080	 8.5520
 1.9090	 8.5180
 1.9100	 8.4880
 1.9110	 8.4610
 1.9120	 8.4380
 1.9130	 8.4180
 1.9140	 8.4010
 1.9150	 8.3850
 1.9160	 8.3730
 1.9170	 8.3610
 1.9180	 8.3510
 1.9190	 8.3440
 1.9200	 8.3380
 1.9210	 8.3330
 1.9220	 8.3280
 1.9230	 8.3260
 1.9240	 8.3240
 1.9250	 8.3230
 1.9260	 8.3230
 1.9270	 8.3250
 1.9280	 8.3280
 1.9290	 8.3310
 1.9300	 8.3340
 1.9310	 8.3350
 1.9320	 8.3370
 1.9330	 8.3410
 1.9340	 8.3460
 1.9350	 8.3510
 1.9360	 8.3590
 1.9370	 8.3670
 1.9380	 8.3740
 1.9390	 8.3830
 1.9400	 8.3910
 1.9410	 8.4020
 1.9420	 8.4130
 1.9430	 8.4230
 1.9440	 8.4340
 1.9450	 8.4450
 1.9460	 8.4570
 1.9470	 8.4700
 1.9480	 8.4830
 1.9490	 8.4970
 1.9500	 8.5090
 1.9510	 8.5220
 1.9520	 8.5350
 1.9530	 8.5490
 1.9540	 8.5660
 1.9550	 8.5830
 1.9560	 8.6000
 1.9570	 8.6180
 1.9580	 8.6350
 1.9590	 8.6540
 1.9600	 8.6760
 1.9610	 8.6970
 1.9620	 8.7200
 1.9630	 8.7410
 1.9640	 8.7630
 1.9650	 8.7840
 1.9660	 8.8060
 1.9670	 8.8310
 1.9680	 8.8550
 1.9690	 8.8780
 1.9700	 8.9030
 1.9710	 8.9290
 1.9720	 8.9560
 1.9730	 8.9830
 1.9740	 9.0130
 1.9750	 9.0400
 1.9760	 9.0690
 1.9770	 9.0990
 1.9780	 9.1300
 1.9790	 9.1610
 1.9800	 9.1930
 1.9810	 9.2260
 1.9820	 9.2580
 1.9830	 9.2900
 1.9840	 9.3240
 1.9850	 9.3580
 1.9860	 9.3910
 1.9870	 9.4250
 1.9880	 9.4610
 1.9890	 9.4970
 1.9900	 9.5340
 1.9910	 9.5710
 1.9920	 9.6080
 1.9930	 9.6460
 1.9940	 9.6830
 1.9950	 9.7200
 1.9960	 9.7580
 1.9970	 9.7960
 1.9980	 9.8350
 1.9990	 9.8760
 2.0000	 9.9160
 2.0010	 9.9570
 2.0020	 9.9980
 2.0030	10.0380
 2.0040	10.0790
 2.0050	10.1210
 2.0060	10.1630
 2.0070	10.2050
 2.0080	10.2470
 2.0090	10.2890
 2.0100	10.3300
 2.0110	10.3730
 2.0120	10.4160
 2.0130	10.4590
 2.0140	10.5020
 2.0150	10.5450
 2.0160	10.5880
 2.0170	10.6310
 2.0180	10.6730
 2.0190	10.7160
 2.0200	10.7570
 2.0210	10.7970
 2.0220	10.8370
 2.0230	10.8760
 2.0240	10.9160
 2.0250	10.9560
 2.0260	10.9970
 2.0270	11.0390
 2.0280	11.0810
 2.0290	11.1210
 2.0300	11.1620
 2.0310	11.2010
 2.0320	11.2360
 2.0330	11.2750
 2.0340	11.3150
 2.0350	11.3520
 2.0360	11.3900
 2.0370	11.4260
 2.0380	11.4600
 2.0390	11.4950
 2.0400	11.5320
 2.0410	11.5670
 2.0420	11.6010
 2.0430	11.6340
 2.0440	11.6680
 2.0450	11.7020
 2.0460	11.7350
 2.0470	11.7680
 2.0480	11.8020
 2.0490	11.8340
 2.0500	11.8680
 2.0510	11.9040
 2.0520	11.9390
 2.0530	11.9730
 2.0540	12.0070
 2.0550	12.0420
 2.0560	12.0770
 2.0570	12.1100
 2.0580	12.1430
 2.0590	12.1770
 2.0600	12.2120
 2.0610	12.2470
 2.0620	12.2830
 2.0630	12.3180
 2.0640	12.3520
 2.0650	12.3870
 2.0660	12.4220
 2.0670	12.4580
 2.0680	12.4940
 2.0690	12.5290
 2.0700	12.5640
 2.0710	12.5990
 2.0720	12.6340
 2.0730	12.6690
 2.0740	12.7050
 2.0750	12.7420
 2.0760	12.7790
 2.0770	12.8150
 2.0780	12.8500
 2.0790	12.8830
 2.0800	12.9180
 2.0810	12.9520
 2.0820	12.9870
 2.0830	13.0230
 2.0840	13.0580
 2.0850	13.0930
 2.0860	13.1270
 2.0870	13.1630
 2.0880	13.1970
 2.0890	13.2300
 2.0900	13.2620
 2.0910	13.2940
 2.0920	13.3260
 2.0930	13.3570
 2.0940	13.3860
 2.0950	13.4180
 2.0960	13.4510
 2.0970	13.4830
 2.0980	13.5140
 2.0990	13.5460
 2.1000	13.5750
 2.1010	13.6070
 2.1020	13.6400
 2.1030	13.6730
 2.1040	13.7060
 2.1050	13.7380
 2.1060	13.7720
 2.1070	13.8060
 2.1080	13.8390
 2.1090	13.8720
 2.1100	13.9040
 2.1110	13.9350
 2.1120	13.9660
 2.1130	14.0000
 2.1140	14.0300
 2.1150	14.0600
 2.1160	14.0890
 2.1170	14.1170
 2.1180	14.1450
 2.1190	14.1750
 2.1200	14.2040
 2.1210	14.2310
 2.1220	14.2590
 2.1230	14.2860
 2.1240	14.3120
 2.1250	14.3390
 2.1260	14.3640
 2.1270	14.3910
 2.1280	14.4190
 2.1290	14.4450
 2.1300	14.4700
 2.1310	14.4940
 2.1320	14.5160
 2.1330	14.5400
 2.1340	14.5650
 2.1350	14.5880
 2.1360	14.6110
 2.1370	14.6330
 2.1380	14.6540
 2.1390	14.6750
 2.1400	14.6970
 2.1410	14.7200
 2.1420	14.7430
 2.1430	14.7660
 2.1440	14.7900
 2.1450	14.8140
 2.1460	14.8380
 2.1470	14.8600
 2.1480	14.8820
 2.1490	14.9030
 2.1500	14.9250
 2.1510	14.9470
 2.1520	14.9680
 2.1530	14.9890
 2.1540	15.0100
 2.1550	15.0280
 2.1560	15.0470
 2.1570	15.0690
 2.1580	15.0890
 2.1590	15.1090
 2.1600	15.1290
 2.1610	15.1470
 2.1620	15.1640
 2.1630	15.1810
 2.1640	15.1970
 2.1650	15.2150
 2.1660	15.2340
 2.1670	15.2530
 2.1680	15.2730
 2.1690	15.2920
 2.1700	15.3110
 2.1710	15.3300
 2.1720	15.3460
 2.1730	15.3650
 2.1740	15.3840
 2.1750	15.4030
 2.1760	15.4250
 2.1770	15.4440
 2.1780	15.4610
 2.1790	15.4790
 2.1800	15.4960
 2.1810	15.5130
 2.1820	15.5300
 2.1830	15.5460
 2.1840	15.5630
 2.1850	15.5790
 2.1860	15.5970
 2.1870	15.6160
 2.1880	15.6350
 2.1890	15.6560
 2.1900	15.6740
 2.1910	15.6900
 2.1920	15.7080
 2.1930	15.7240
 2.1940	15.7410
 2.1950	15.7600
 2.1960	15.7780
 2.1970	15.7920
 2.1980	15.8090
 2.1990	15.8280
 2.2000	15.8450
 2.2010	15.8630
 2.2020	15.8800
 2.2030	15.8980
 2.2040	15.9130
 2.2050	15.9270
 2.2060	15.9430
 2.2070	15.9540
 2.2080	15.9620
 2.2090	15.9720
 2.2100	15.9830
 2.2110	15.9930
 2.2120	16.0050
 2.2130	16.0150
 2.2140	16.0240
 2.2150	16.0330
 2.2160	16.0410
 2.2170	16.0460
 2.2180	16.0490
 2.2190	16.0530
 2.2200	16.0540
 2.2210	16.0560
 2.2220	16.0600
 2.2230	16.0610
 2.2240	16.0600
 2.2250	16.0570
 2.2260	16.0470
 2.2270	16.0410
 2.2280	16.0360
 2.2290	16.0280
 2.2300	16.0220
 2.2310	16.0120
 2.2320	15.9970
 2.2330	15.9810
 2.2340	15.9640
 2.2350	15.9470
 2.2360	15.9290
 2.2370	15.9100
 2.2380	15.8860
 2.2390	15.8590
 2.2400	15.8310
 2.2410	15.7980
 2.2420	15.7670
 2.2430	15.7350
 2.2440	15.7030
 2.2450	15.6730
 2.2460	15.6370
 2.2470	15.5960
 2.2480	15.5560
 2.2490	15.5110
 2.2500	15.4690
 2.2510	15.4290
 2.2520	15.3870
 2.2530	15.3440
 2.2540	15.3000
 2.2550	15.2540
 2.2560	15.2080
 2.2570	15.1610
 2.2580	15.1140
 2.2590	15.0690
 2.2600	15.0220
 2.2610	14.9740
 2.2620	14.9270
 2.2630	14.8820
 2.2640	14.8340
 2.2650	14.7910
 2.2660	14.7490
 2.2670	14.7090
 2.2680	14.6690
 2.2690	14.6280
 2.2700	14.5870
 2.2710	14.5480
 2.2720	14.5070
 2.2730	14.4690
 2.2740	14.4330
 2.2750	14.3990
 2.2760	14.3660
 2.2770	14.3310
 2.2780	14.2980
 2.2790	14.2630
 2.2800	14.2250
 2.2810	14.1910
 2.2820	14.1640
 2.2830	14.1280
 2.2840	14.0900
 2.2850	14.0530
 2.2860	14.0080
 2.2870	13.9700
 2.2880	13.9400
 2.2890	13.9060
 2.2900	13.8730
 2.2910	13.8400
 2.2920	13.8060
 2.2930	13.7700
 2.2940	13.7340
 2.2950	13.6970
 2.2960	13.6570
 2.2970	13.6190
 2.2980	13.5800
 2.2990	13.5450
 2.3000	13.5090
 2.3010	13.4740
 2.3020	13.4380
 2.3030	13.3990
 2.3040	13.3620
 2.3050	13.3280
 2.3060	13.2930
 2.3070	13.2630
 2.3080	13.2360
 2.3090	13.2090
 2.3100	13.1840
 2.3110	13.1600
 2.3120	13.1370
 2.3130	13.1120
 2.3140	13.0900
 2.3150	13.0690
 2.3160	13.0520
 2.3170	13.0400
 2.3180	13.0240
 2.3190	13.0100
 2.3200	12.9930
 2.3210	12.9690
 2.3220	12.9500
 2.3230	12.9310
 2.3240	12.9100
 2.3250	12.8890
 2.3260	12.8660
 2.3270	12.8420
 2.3280	12.8130
 2.3290	12.7790
 2.3300	12.7480
 2.3310	12.7110
 2.3320	12.6810
 2.3330	12.6570
 2.3340	12.6280
 2.3350	12.5960
 2.3360	12.5650
 2.3370	12.5320
 2.3380	12.4990
 2.3390	12.4730
 2.3400	12.4380
 2.3410	12.3950
 2.3420	12.3590
 2.3430	12.3190
 2.3440	12.2830
 2.3450	12.2570
 2.3460	12.2250
 2.3470	12.1890
 2.3480	12.1590
 2.3490	12.1280
 2.3500	12.1010
 2.3510	12.0830
 2.3520	12.0600
 2.3530	12.0390
 2.3540	12.0150
 2.3550	11.9940
 2.3560	11.9710
 2.3570	11.9460
 2.3580	11.9260
 2.3590	11.9000
 2.3600	11.8720
 2.3610	11.8460
 2.3620	11.8180
 2.3630	11.7910
 2.3640	11.7650
 2.3650	11.7400
 2.3660	11.7160
 2.3670	11.6910
 2.3680	11.6680
 2.3690	11.6470
 2.3700	11.6220
 2.3710	11.5980
 2.3720	11.5720
 2.3730	11.5370
 2.3740	11.5040
 2.3750	11.4700
 2.3760	11.4380
 2.3770	11.4140
 2.3780	11.3870
 2.3790	11.3600
 2.3800	11.3320
 2.3810	11.2970
 2.3820	11.2660
 2.3830	11.2440
 2.3840	11.2180
 2.3850	11.1900
 2.3860	11.1670
 2.3870	11.1330
 2.3880	11.1070
 2.3890	11.0960
 2.3900	11.0710
 2.3910	11.0490
 2.3920	11.0210
 2.3930	10.9780
 2.3940	10.9480
 2.3950	10.9190
 2.3960	10.8860
 2.3970	10.8710
 2.3980	10.8520
 2.3990	10.8250
 2.4000	10.8120
 2.4010	10.7820
 2.4020	10.7490
 2.4030	10.7250
 2.4040	10.6840
 2.4050	10.6560
 2.4060	10.6400
 2.4070	10.6100
 2.4080	10.5910
 2.4090	10.5670
 2.4100	10.5250
 2.4110	10.4980
 2.4120	10.4770
 2.4130	10.4490
 2.4140	10.4280
 2.4150	10.4080
 2.4160	10.3770
 2.4170	10.3520
 2.4180	10.3320
 2.4190	10.2990
 2.4200	10.2700
 2.4210	10.2450
 2.4220	10.2140
 2.4230	10.1900
 2.4240	10.1690
 2.4250	10.1460
 2.4260	10.1290
 2.4270	10.1140
 2.4280	10.1010
 2.4290	10.0870
 2.4300	10.0640
 2.4310	10.0400
 2.4320	10.0130
 2.4330	 9.9810
 2.4340	 9.9560
 2.4350	 9.9430
 2.4360	 9.9240
 2.4370	 9.9020
 2.4380	 9.8860
 2.4390	 9.8640
 2.4400	 9.8300
 2.4410	 9.8080
 2.4420	 9.7870
 2.4430	 9.7570
 2.4440	 9.7360
 2.4450	 9.7120
 2.4460	 9.6910
 2.4470	 9.6760
 2.4480	 9.6510
 2.4490	 9.6280
 2.4500	 9.6110
 2.4510	 9.5880
 2.4520	 9.5810
 2.4530	 9.5820
 2.4540	 9.5700
 2.4550	 9.5590
 2.4560	 9.5410
 2.4570	 9.5150
 2.4580	 9.4900
 2.4590	 9.4650
 2.4600	 9.4480
 2.4610	 9.4260
 2.4620	 9.4190
 2.4630	 9.4210
 2.4640	 9.4030
 2.4650	 9.3970
 2.4660	 9.3880
 2.4670	 9.3650
 2.4680	 9.3550
 2.4690	 9.3520
 2.4700	 9.3330
 2.4710	 9.3050
 2.4720	 9.2820
 2.4730	 9.2480
 2.4740	 9.2270
 2.4750	 9.2150
 2.4760	 9.1970
 2.4770	 9.1800
 2.4780	 9.1690
 2.4790	 9.1600
 2.4800	 9.1600
 2.4810	 9.1720
 2.4820	 9.1820
 2.4830	 9.1860
 2.4840	 9.2010
 2.4850	 9.1750
 2.4860	 9.1260
 2.4870	 9.1200
 2.4880	 9.1170
 2.4890	 9.1240
 2.4900	 9.1460
 2.4910	 9.1280
 2.4920	 9.0880
 2.4930	 9.0720
 2.4940	 9.0720
 2.4950	 9.0870
 2.4960	 9.0920
 2.4970	 9.0780
 2.4980	 9.1010
 2.4990	 9.1080
 2.5000	 9.0760
