Name: Quercus lobata 1
Type: vegetation
Class: Tree
Genus: Quercus
Species: lobata
Sample No.: VH282
Owner: UCSB
Wavelength Range: TIR
Origin: 34.7139; -120.0598; WGS84
Collection Date: 11/2/2013
Description: Samples were collected as part of the HyspIRI Airborne Campaign. 48 individual plants were sampled in three times in 2013 - spring  summer  and fall. The name of the sample includes a 1  2  or 3 which references a different individual of the species. Samples were taken to JPL and processed within 48 hours of collection. The same leaves were processed in the Nicolet and then measured using the ASD.
Measurement: Hemispherical reflectance
First Column: X
Second Column: Y
X Units: Wavelength (micrometers)
Y Units: Reflectance (percentage)
First X Value: 2.501
Last X Value: 15.387
Number of X Values: 1737
Additional Information: vegetation.tree.quercus.lobata.tir.vh282.ucsb.nicolet.ancillary.txt

 2.5010	 9.7890
 2.5030	 9.6740
 2.5040	 9.7450
 2.5050	 9.8330
 2.5060	 9.7430
 2.5070	 9.7190
 2.5090	 9.7760
 2.5100	 9.7220
 2.5110	 9.7000
 2.5120	 9.6420
 2.5140	 9.7220
 2.5150	 9.8800
 2.5160	 9.8480
 2.5170	 9.8740
 2.5180	 9.7370
 2.5200	 9.5460
 2.5210	 9.5030
 2.5220	 9.5980
 2.5230	 9.6760
 2.5250	 9.6420
 2.5260	 9.7450
 2.5270	 9.7650
 2.5280	 9.6390
 2.5290	 9.6010
 2.5310	 9.6800
 2.5320	 9.5940
 2.5330	 9.5310
 2.5340	 9.5620
 2.5360	 9.6330
 2.5370	 9.7260
 2.5380	 9.7730
 2.5390	 9.6340
 2.5410	 9.5480
 2.5420	 9.7050
 2.5430	 9.8130
 2.5440	 9.7870
 2.5460	 9.7040
 2.5470	 9.7990
 2.5480	 9.9430
 2.5490	 9.8080
 2.5510	 9.7240
 2.5520	 9.6480
 2.5530	 9.6620
 2.5540	 9.8410
 2.5560	 9.8300
 2.5570	 9.8170
 2.5580	 9.8770
 2.5590	 9.9660
 2.5610	10.0270
 2.5620	 9.9880
 2.5630	 9.9640
 2.5640	10.0230
 2.5660	 9.8860
 2.5670	 9.8280
 2.5680	 9.8630
 2.5700	 9.9930
 2.5710	10.1570
 2.5720	10.0880
 2.5730	10.0740
 2.5750	10.0650
 2.5760	 9.9990
 2.5770	10.0080
 2.5790	 9.8760
 2.5800	 9.7620
 2.5810	 9.7760
 2.5820	 9.7840
 2.5840	 9.8720
 2.5850	 9.8240
 2.5860	 9.8020
 2.5880	 9.8560
 2.5890	 9.8880
 2.5900	 9.8800
 2.5910	 9.7910
 2.5930	 9.8330
 2.5940	 9.8900
 2.5950	 9.8820
 2.5970	 9.8120
 2.5980	 9.7710
 2.5990	 9.8380
 2.6000	 9.6610
 2.6020	 9.4690
 2.6030	 9.4170
 2.6040	 9.5710
 2.6060	 9.6540
 2.6070	 9.5470
 2.6080	 9.5840
 2.6100	 9.5360
 2.6110	 9.4080
 2.6120	 9.5090
 2.6140	 9.6270
 2.6150	 9.5900
 2.6160	 9.4380
 2.6180	 9.4440
 2.6190	 9.4740
 2.6200	 9.5050
 2.6220	 9.1880
 2.6230	 9.0350
 2.6240	 9.1160
 2.6260	 9.3420
 2.6270	 9.3600
 2.6280	 9.0960
 2.6300	 9.1410
 2.6310	 9.1760
 2.6320	 9.1210
 2.6340	 9.1540
 2.6350	 9.0260
 2.6360	 8.9050
 2.6380	 8.8350
 2.6390	 8.9100
 2.6400	 8.9200
 2.6420	 8.7760
 2.6430	 8.7370
 2.6440	 8.7390
 2.6460	 8.7770
 2.6470	 8.7670
 2.6480	 8.7750
 2.6500	 8.6870
 2.6510	 8.5310
 2.6520	 8.4480
 2.6540	 8.3340
 2.6550	 8.3100
 2.6560	 8.2770
 2.6580	 8.3120
 2.6590	 8.3720
 2.6610	 8.3510
 2.6620	 8.2490
 2.6630	 8.2400
 2.6650	 8.2700
 2.6660	 8.4140
 2.6670	 8.2920
 2.6690	 8.1020
 2.6700	 8.1580
 2.6720	 8.1840
 2.6730	 8.0210
 2.6740	 8.0170
 2.6760	 7.9960
 2.6770	 7.9350
 2.6780	 7.8220
 2.6800	 7.7190
 2.6810	 7.5520
 2.6830	 7.6150
 2.6840	 7.6940
 2.6850	 7.5960
 2.6870	 7.4480
 2.6880	 7.3230
 2.6900	 7.1600
 2.6910	 7.3200
 2.6920	 7.4650
 2.6940	 7.4840
 2.6950	 7.2280
 2.6970	 6.9590
 2.6980	 6.9650
 2.6990	 7.0170
 2.7010	 6.8690
 2.7020	 6.7880
 2.7040	 6.8390
 2.7050	 6.8560
 2.7060	 6.7480
 2.7080	 6.8270
 2.7090	 6.7750
 2.7110	 6.7030
 2.7120	 6.7130
 2.7130	 6.6080
 2.7150	 6.3800
 2.7160	 6.3330
 2.7180	 6.4980
 2.7190	 6.5960
 2.7210	 6.4080
 2.7220	 6.1740
 2.7230	 6.0530
 2.7250	 6.1660
 2.7260	 6.2020
 2.7280	 6.0700
 2.7290	 5.9060
 2.7310	 5.9630
 2.7320	 5.8750
 2.7330	 5.8870
 2.7350	 6.1320
 2.7360	 5.9440
 2.7380	 5.6230
 2.7390	 5.4600
 2.7410	 5.2850
 2.7420	 5.2040
 2.7440	 5.2450
 2.7450	 5.2960
 2.7470	 5.2380
 2.7480	 5.2810
 2.7490	 5.0840
 2.7510	 4.9440
 2.7520	 5.0580
 2.7540	 5.2030
 2.7550	 5.0530
 2.7570	 4.8590
 2.7580	 4.7900
 2.7600	 4.7800
 2.7610	 4.7530
 2.7630	 4.8170
 2.7640	 4.7610
 2.7660	 4.7440
 2.7670	 4.7960
 2.7680	 4.7730
 2.7700	 4.7780
 2.7710	 4.8750
 2.7730	 4.8940
 2.7740	 4.9060
 2.7760	 4.8120
 2.7770	 4.6600
 2.7790	 4.3860
 2.7800	 4.4300
 2.7820	 4.5880
 2.7830	 4.5750
 2.7850	 4.4740
 2.7860	 4.4440
 2.7880	 4.3990
 2.7890	 4.4030
 2.7910	 4.5390
 2.7920	 4.6360
 2.7940	 4.8290
 2.7950	 4.7770
 2.7970	 4.5940
 2.7980	 4.4860
 2.8000	 4.3450
 2.8010	 4.4510
 2.8030	 4.4140
 2.8040	 4.2770
 2.8060	 4.2200
 2.8070	 4.3490
 2.8090	 4.2840
 2.8110	 4.1380
 2.8120	 4.1040
 2.8140	 4.1650
 2.8150	 4.2710
 2.8170	 4.3000
 2.8180	 4.2920
 2.8200	 4.2870
 2.8210	 4.4160
 2.8230	 4.4920
 2.8240	 4.3400
 2.8260	 4.3500
 2.8270	 4.3680
 2.8290	 4.2790
 2.8300	 4.1720
 2.8320	 4.1770
 2.8340	 4.0790
 2.8350	 4.2230
 2.8370	 4.3610
 2.8380	 4.2720
 2.8400	 4.1480
 2.8410	 4.0870
 2.8430	 3.9720
 2.8440	 4.1330
 2.8460	 4.2290
 2.8480	 4.1410
 2.8490	 4.1400
 2.8510	 4.2950
 2.8520	 4.4530
 2.8540	 4.4280
 2.8550	 4.3190
 2.8570	 4.2450
 2.8590	 4.1600
 2.8600	 4.0890
 2.8620	 4.0380
 2.8630	 4.0370
 2.8650	 3.9940
 2.8660	 4.1290
 2.8680	 4.2070
 2.8700	 4.1820
 2.8710	 4.2690
 2.8730	 4.2570
 2.8740	 4.2320
 2.8760	 4.1960
 2.8780	 4.0670
 2.8790	 3.9620
 2.8810	 4.0450
 2.8820	 4.1130
 2.8840	 3.9520
 2.8860	 4.0600
 2.8870	 3.9710
 2.8890	 3.9720
 2.8900	 4.0710
 2.8920	 4.2920
 2.8940	 4.2490
 2.8950	 3.9750
 2.8970	 3.8770
 2.8980	 3.9260
 2.9000	 3.9180
 2.9020	 4.0060
 2.9030	 4.0580
 2.9050	 4.0770
 2.9070	 3.9260
 2.9080	 4.0240
 2.9100	 4.1280
 2.9120	 4.2020
 2.9130	 4.0210
 2.9150	 3.9120
 2.9160	 4.0480
 2.9180	 4.0250
 2.9200	 3.9030
 2.9210	 3.9970
 2.9230	 3.9970
 2.9250	 4.0160
 2.9260	 3.9710
 2.9280	 3.8020
 2.9300	 3.9100
 2.9310	 3.9910
 2.9330	 3.9510
 2.9350	 4.1090
 2.9360	 4.2110
 2.9380	 4.2160
 2.9400	 4.2560
 2.9410	 4.3020
 2.9430	 3.9810
 2.9450	 3.8100
 2.9460	 3.7530
 2.9480	 3.7500
 2.9500	 3.7880
 2.9510	 3.8180
 2.9530	 3.9470
 2.9550	 4.2590
 2.9560	 3.7960
 2.9580	 3.5630
 2.9600	 4.1590
 2.9610	 3.7170
 2.9630	 3.0900
 2.9650	 3.3770
 2.9660	 4.2880
 2.9680	 4.0820
 2.9700	 4.9110
 2.9720	 5.2890
 2.9730	 4.2480
 2.9750	 4.5030
 2.9770	 4.2980
 2.9780	 3.5230
 2.9800	 3.8470
 2.9820	 4.1650
 2.9840	 4.0740
 2.9850	 3.9810
 2.9870	 4.1860
 2.9890	 4.7300
 2.9900	 5.3010
 2.9920	 4.4010
 2.9940	 3.1710
 2.9960	 3.2710
 2.9970	 2.4900
 2.9990	 3.0250
 3.0010	 4.1850
 3.0030	 4.8370
 3.0040	 4.7910
 3.0060	 4.5760
 3.0080	 4.9420
 3.0100	 5.0480
 3.0110	 4.4150
 3.0130	 4.4690
 3.0150	 5.1630
 3.0170	 5.1510
 3.0180	 4.2670
 3.0200	 3.7550
 3.0220	 4.0530
 3.0240	 4.1920
 3.0250	 4.1760
 3.0270	 4.4250
 3.0290	 4.1040
 3.0310	 4.1920
 3.0320	 4.2800
 3.0340	 4.3880
 3.0360	 4.2620
 3.0380	 4.3650
 3.0400	 4.7550
 3.0410	 4.3120
 3.0430	 4.2150
 3.0450	 4.2410
 3.0470	 5.0460
 3.0480	 4.4860
 3.0500	 3.6550
 3.0520	 3.5740
 3.0540	 4.1400
 3.0560	 5.6330
 3.0570	 6.1120
 3.0590	 6.3010
 3.0610	 6.0200
 3.0630	 5.3190
 3.0650	 5.0010
 3.0660	 4.4260
 3.0680	 4.4000
 3.0700	 4.7710
 3.0720	 4.4410
 3.0740	 4.2200
 3.0760	 4.3380
 3.0770	 4.3710
 3.0790	 4.5340
 3.0810	 4.5320
 3.0830	 4.5420
 3.0850	 4.6840
 3.0870	 4.6240
 3.0880	 4.5520
 3.0900	 4.5760
 3.0920	 4.5270
 3.0940	 4.4960
 3.0960	 4.4440
 3.0980	 4.4980
 3.0990	 4.5280
 3.1010	 4.3020
 3.1030	 4.4840
 3.1050	 4.8690
 3.1070	 4.8200
 3.1090	 4.5170
 3.1110	 4.5260
 3.1120	 4.7400
 3.1140	 4.7380
 3.1160	 4.8200
 3.1180	 4.7520
 3.1200	 4.4800
 3.1220	 4.3720
 3.1240	 4.4730
 3.1260	 4.5050
 3.1270	 4.6500
 3.1290	 4.8490
 3.1310	 4.7750
 3.1330	 4.5260
 3.1350	 4.3870
 3.1370	 4.4060
 3.1390	 3.7700
 3.1410	 3.8910
 3.1430	 4.3890
 3.1450	 4.7420
 3.1460	 4.6440
 3.1480	 4.5730
 3.1500	 4.2560
 3.1520	 4.2710
 3.1540	 4.8410
 3.1560	 5.4710
 3.1580	 5.4240
 3.1600	 4.9750
 3.1620	 4.6560
 3.1640	 4.9590
 3.1660	 5.3920
 3.1680	 5.0940
 3.1700	 4.1540
 3.1710	 4.4360
 3.1730	 5.3470
 3.1750	 4.9510
 3.1770	 4.3440
 3.1790	 3.5760
 3.1810	 3.0790
 3.1830	 4.4420
 3.1850	 5.0660
 3.1870	 4.7390
 3.1890	 4.7370
 3.1910	 4.9510
 3.1930	 5.0210
 3.1950	 4.9160
 3.1970	 4.8200
 3.1990	 4.8550
 3.2010	 4.9090
 3.2030	 5.0600
 3.2050	 5.0210
 3.2070	 4.9730
 3.2090	 5.0750
 3.2110	 5.0440
 3.2130	 5.0100
 3.2150	 5.1880
 3.2170	 5.1900
 3.2190	 5.0740
 3.2210	 5.1250
 3.2230	 5.0170
 3.2250	 4.9380
 3.2270	 5.0830
 3.2290	 5.1890
 3.2310	 5.2990
 3.2330	 5.4330
 3.2350	 5.3250
 3.2370	 5.2710
 3.2390	 5.4150
 3.2410	 5.3650
 3.2430	 5.1140
 3.2450	 5.0410
 3.2470	 5.1790
 3.2490	 5.1640
 3.2510	 5.1330
 3.2530	 5.1530
 3.2550	 5.1960
 3.2570	 5.2020
 3.2590	 5.3670
 3.2610	 5.3650
 3.2630	 5.3140
 3.2650	 5.3640
 3.2670	 5.3790
 3.2690	 5.4420
 3.2720	 5.4420
 3.2740	 5.3600
 3.2760	 5.3780
 3.2780	 5.4550
 3.2800	 5.4000
 3.2820	 5.3730
 3.2840	 5.4070
 3.2860	 5.3090
 3.2880	 5.3320
 3.2900	 5.4580
 3.2920	 5.4820
 3.2940	 5.5710
 3.2960	 5.5530
 3.2990	 5.6660
 3.3010	 5.7250
 3.3030	 5.7220
 3.3050	 5.8090
 3.3070	 5.9000
 3.3090	 5.6180
 3.3110	 5.2870
 3.3130	 5.2190
 3.3150	 5.1020
 3.3180	 5.3210
 3.3200	 5.3970
 3.3220	 5.5090
 3.3240	 5.5290
 3.3260	 5.4850
 3.3280	 5.3650
 3.3300	 5.2940
 3.3330	 5.3800
 3.3350	 5.5160
 3.3370	 5.4800
 3.3390	 5.4310
 3.3410	 5.4430
 3.3430	 5.5400
 3.3450	 5.5500
 3.3480	 5.4470
 3.3500	 5.2930
 3.3520	 5.3040
 3.3540	 5.3760
 3.3560	 5.3680
 3.3580	 5.3930
 3.3610	 5.2680
 3.3630	 5.1500
 3.3650	 5.1710
 3.3670	 5.1000
 3.3690	 5.0440
 3.3720	 5.0300
 3.3740	 5.0510
 3.3760	 5.0880
 3.3780	 5.0810
 3.3800	 5.0330
 3.3830	 5.0340
 3.3850	 4.9580
 3.3870	 4.8930
 3.3890	 4.8560
 3.3910	 4.9220
 3.3940	 4.8100
 3.3960	 4.7380
 3.3980	 4.8560
 3.4000	 4.8400
 3.4020	 4.6220
 3.4050	 4.5410
 3.4070	 4.6550
 3.4090	 4.8820
 3.4110	 5.0340
 3.4140	 5.0750
 3.4160	 5.1060
 3.4180	 5.3290
 3.4200	 5.5340
 3.4230	 5.7040
 3.4250	 5.9980
 3.4270	 6.2600
 3.4290	 6.4270
 3.4320	 6.3990
 3.4340	 6.1070
 3.4360	 5.9170
 3.4390	 5.8520
 3.4410	 5.7110
 3.4430	 5.6350
 3.4450	 5.6190
 3.4480	 5.5150
 3.4500	 5.6830
 3.4520	 5.8400
 3.4550	 5.7240
 3.4570	 5.6000
 3.4590	 5.5970
 3.4620	 5.4180
 3.4640	 5.5130
 3.4660	 5.8230
 3.4680	 5.7930
 3.4710	 5.6060
 3.4730	 5.5820
 3.4750	 5.5680
 3.4780	 5.5850
 3.4800	 5.6130
 3.4820	 5.5880
 3.4850	 5.5480
 3.4870	 5.4970
 3.4890	 5.5250
 3.4920	 5.4540
 3.4940	 5.3430
 3.4970	 5.3340
 3.4990	 5.4050
 3.5010	 5.5050
 3.5040	 5.5630
 3.5060	 5.7730
 3.5080	 6.2440
 3.5110	 6.6030
 3.5130	 6.5880
 3.5160	 6.4570
 3.5180	 6.3940
 3.5200	 6.3970
 3.5230	 6.4180
 3.5250	 6.4240
 3.5270	 6.4020
 3.5300	 6.4370
 3.5320	 6.4210
 3.5350	 6.4690
 3.5370	 6.3650
 3.5400	 6.3610
 3.5420	 6.2990
 3.5440	 6.2990
 3.5470	 6.4060
 3.5490	 6.5830
 3.5520	 6.5990
 3.5540	 6.5070
 3.5570	 6.4540
 3.5590	 6.4870
 3.5610	 6.4870
 3.5640	 6.4500
 3.5660	 6.3890
 3.5690	 6.5650
 3.5710	 6.6790
 3.5740	 6.6580
 3.5760	 6.6310
 3.5790	 6.5450
 3.5810	 6.4470
 3.5840	 6.4790
 3.5860	 6.5730
 3.5890	 6.7170
 3.5910	 6.7260
 3.5930	 6.6220
 3.5960	 6.4860
 3.5980	 6.5260
 3.6010	 6.6220
 3.6030	 6.5330
 3.6060	 6.5150
 3.6080	 6.6090
 3.6110	 6.6420
 3.6140	 6.5600
 3.6160	 6.4150
 3.6190	 6.5310
 3.6210	 6.5490
 3.6240	 6.5550
 3.6260	 6.6200
 3.6290	 6.6630
 3.6310	 6.6390
 3.6340	 6.6420
 3.6360	 6.6170
 3.6390	 6.6450
 3.6410	 6.7360
 3.6440	 6.6990
 3.6470	 6.5320
 3.6490	 6.4970
 3.6520	 6.6310
 3.6540	 6.6690
 3.6570	 6.5700
 3.6590	 6.5260
 3.6620	 6.5840
 3.6650	 6.6850
 3.6670	 6.6900
 3.6700	 6.6750
 3.6720	 6.6570
 3.6750	 6.6530
 3.6780	 6.6520
 3.6800	 6.6930
 3.6830	 6.7470
 3.6850	 6.7950
 3.6880	 6.7850
 3.6910	 6.7630
 3.6930	 6.7140
 3.6960	 6.6390
 3.6990	 6.6470
 3.7010	 6.7200
 3.7040	 6.7610
 3.7060	 6.6570
 3.7090	 6.6380
 3.7120	 6.7420
 3.7140	 6.7740
 3.7170	 6.7040
 3.7200	 6.7080
 3.7220	 6.8370
 3.7250	 6.9300
 3.7280	 6.9200
 3.7300	 6.8490
 3.7330	 6.8240
 3.7360	 6.7800
 3.7390	 6.7400
 3.7410	 6.7530
 3.7440	 6.8060
 3.7470	 6.8310
 3.7490	 6.8780
 3.7520	 6.9230
 3.7550	 6.8680
 3.7580	 6.8250
 3.7600	 6.7960
 3.7630	 6.8060
 3.7660	 6.9270
 3.7680	 6.8940
 3.7710	 6.9430
 3.7740	 7.0320
 3.7770	 6.9280
 3.7790	 6.8330
 3.7820	 6.8650
 3.7850	 6.8940
 3.7880	 6.9350
 3.7900	 6.9740
 3.7930	 7.0620
 3.7960	 7.0770
 3.7990	 7.0150
 3.8020	 6.9790
 3.8040	 6.9830
 3.8070	 6.9690
 3.8100	 7.0540
 3.8130	 7.0770
 3.8160	 7.0570
 3.8180	 7.0170
 3.8210	 7.0820
 3.8240	 7.1240
 3.8270	 7.0040
 3.8300	 6.9800
 3.8330	 7.0210
 3.8350	 7.0450
 3.8380	 7.0790
 3.8410	 7.0520
 3.8440	 7.0620
 3.8470	 7.1530
 3.8500	 7.2350
 3.8520	 7.2400
 3.8550	 7.1370
 3.8580	 7.0890
 3.8610	 7.1840
 3.8640	 7.1260
 3.8670	 7.0660
 3.8700	 7.0920
 3.8730	 7.0630
 3.8750	 7.0810
 3.8780	 7.1090
 3.8810	 7.2080
 3.8840	 7.1860
 3.8870	 7.0360
 3.8900	 7.0650
 3.8930	 7.1390
 3.8960	 7.1520
 3.8990	 7.1030
 3.9020	 7.1450
 3.9050	 7.1930
 3.9080	 7.2140
 3.9110	 7.1560
 3.9140	 7.0810
 3.9160	 7.0680
 3.9190	 7.0940
 3.9220	 7.2260
 3.9250	 7.2670
 3.9280	 7.2090
 3.9310	 7.1800
 3.9340	 7.1380
 3.9370	 7.1430
 3.9400	 7.1000
 3.9430	 7.0050
 3.9460	 7.1010
 3.9490	 7.2430
 3.9520	 7.3270
 3.9550	 7.2890
 3.9580	 7.2320
 3.9610	 7.2030
 3.9640	 7.1380
 3.9670	 7.1090
 3.9700	 7.1910
 3.9730	 7.2570
 3.9770	 7.2240
 3.9800	 7.2360
 3.9830	 7.2990
 3.9860	 7.2650
 3.9890	 7.2090
 3.9920	 7.2130
 3.9950	 7.1390
 3.9980	 7.1620
 4.0010	 7.2820
 4.0040	 7.2410
 4.0070	 7.1980
 4.0100	 7.2460
 4.0130	 7.3050
 4.0170	 7.3120
 4.0200	 7.2960
 4.0230	 7.2940
 4.0260	 7.2340
 4.0290	 7.1520
 4.0320	 7.2090
 4.0350	 7.2610
 4.0380	 7.2320
 4.0420	 7.2550
 4.0450	 7.3130
 4.0480	 7.3110
 4.0510	 7.3260
 4.0540	 7.2170
 4.0570	 7.1610
 4.0610	 7.2510
 4.0640	 7.3440
 4.0670	 7.2770
 4.0700	 7.2110
 4.0730	 7.1580
 4.0770	 7.1080
 4.0800	 7.0430
 4.0830	 7.1820
 4.0860	 7.3100
 4.0890	 7.3200
 4.0930	 7.3000
 4.0960	 7.2670
 4.0990	 7.2480
 4.1020	 7.2690
 4.1060	 7.2820
 4.1090	 7.2870
 4.1120	 7.2080
 4.1150	 7.2120
 4.1190	 7.2320
 4.1220	 7.2920
 4.1250	 7.4070
 4.1280	 7.4320
 4.1320	 7.3630
 4.1350	 7.3250
 4.1380	 7.3610
 4.1420	 7.3340
 4.1450	 7.2470
 4.1480	 7.2180
 4.1520	 7.2820
 4.1550	 7.3320
 4.1580	 7.3350
 4.1620	 7.3350
 4.1650	 7.2820
 4.1680	 7.2790
 4.1720	 7.2070
 4.1750	 7.1980
 4.1780	 7.2790
 4.1820	 7.3180
 4.1850	 7.2810
 4.1890	 7.3090
 4.1920	 7.2790
 4.1950	 7.2640
 4.1990	 7.3300
 4.2020	 7.4160
 4.2060	 7.3190
 4.2090	 7.2920
 4.2120	 7.3240
 4.2160	 7.3720
 4.2190	 7.3330
 4.2230	 7.3780
 4.2260	 7.3300
 4.2300	 7.3460
 4.2330	 7.3320
 4.2360	 7.4870
 4.2400	 7.5420
 4.2430	 7.2960
 4.2470	 7.2460
 4.2500	 7.2530
 4.2540	 7.1400
 4.2570	 7.2760
 4.2610	 7.3730
 4.2640	 7.4630
 4.2680	 7.4060
 4.2710	 7.2840
 4.2750	 7.2670
 4.2780	 7.5090
 4.2820	 7.7030
 4.2850	 7.4250
 4.2890	 7.1310
 4.2930	 7.3530
 4.2960	 7.2900
 4.3000	 7.1920
 4.3030	 7.1770
 4.3070	 7.1480
 4.3100	 7.1270
 4.3140	 7.2100
 4.3180	 7.1790
 4.3210	 7.1140
 4.3250	 7.1870
 4.3280	 7.3470
 4.3320	 7.3410
 4.3360	 7.3130
 4.3390	 7.3380
 4.3430	 7.3230
 4.3470	 7.2950
 4.3500	 7.2460
 4.3540	 7.1380
 4.3570	 7.1470
 4.3610	 7.1710
 4.3650	 7.0950
 4.3680	 7.0690
 4.3720	 7.0660
 4.3760	 6.9310
 4.3800	 6.9360
 4.3830	 7.0330
 4.3870	 7.0630
 4.3910	 7.0720
 4.3940	 7.0750
 4.3980	 7.1200
 4.4020	 7.2400
 4.4060	 7.1400
 4.4090	 6.9860
 4.4130	 6.9950
 4.4170	 7.0230
 4.4210	 7.0580
 4.4240	 7.1280
 4.4280	 7.0380
 4.4320	 6.9950
 4.4360	 6.9460
 4.4400	 6.9250
 4.4430	 6.9000
 4.4470	 6.9480
 4.4510	 6.8890
 4.4550	 6.8450
 4.4590	 6.8200
 4.4620	 6.8500
 4.4660	 7.0090
 4.4700	 7.1280
 4.4740	 7.0620
 4.4780	 7.0190
 4.4820	 6.9580
 4.4860	 6.8400
 4.4900	 6.7730
 4.4930	 6.7930
 4.4970	 6.8150
 4.5010	 6.8790
 4.5050	 6.8530
 4.5090	 6.7840
 4.5130	 6.7120
 4.5170	 6.8040
 4.5210	 6.9040
 4.5250	 6.9040
 4.5290	 6.9080
 4.5330	 6.8480
 4.5370	 6.7740
 4.5410	 6.8410
 4.5450	 6.8780
 4.5490	 6.8190
 4.5530	 6.7620
 4.5570	 6.8460
 4.5610	 6.8400
 4.5650	 6.7850
 4.5690	 6.8130
 4.5730	 6.8930
 4.5770	 6.7800
 4.5810	 6.7180
 4.5850	 6.7570
 4.5890	 6.7140
 4.5930	 6.6940
 4.5970	 6.7410
 4.6010	 6.7160
 4.6050	 6.7140
 4.6090	 6.6670
 4.6130	 6.6240
 4.6170	 6.5810
 4.6220	 6.6640
 4.6260	 6.7320
 4.6300	 6.6770
 4.6340	 6.6690
 4.6380	 6.7590
 4.6420	 6.8190
 4.6460	 6.8010
 4.6510	 6.6310
 4.6550	 6.5890
 4.6590	 6.6430
 4.6630	 6.5960
 4.6670	 6.5690
 4.6720	 6.6640
 4.6760	 6.6900
 4.6800	 6.6650
 4.6840	 6.6030
 4.6880	 6.6270
 4.6930	 6.6790
 4.6970	 6.7180
 4.7010	 6.7130
 4.7050	 6.6850
 4.7100	 6.6210
 4.7140	 6.6530
 4.7180	 6.6200
 4.7230	 6.5610
 4.7270	 6.5900
 4.7310	 6.6300
 4.7360	 6.6220
 4.7400	 6.6420
 4.7440	 6.6590
 4.7490	 6.7020
 4.7530	 6.6570
 4.7570	 6.6830
 4.7620	 6.6490
 4.7660	 6.6170
 4.7700	 6.5750
 4.7750	 6.6380
 4.7790	 6.6230
 4.7840	 6.6060
 4.7880	 6.6790
 4.7920	 6.6790
 4.7970	 6.5090
 4.8010	 6.5770
 4.8060	 6.6470
 4.8100	 6.6980
 4.8150	 6.6760
 4.8190	 6.6790
 4.8240	 6.6410
 4.8280	 6.6040
 4.8330	 6.5680
 4.8370	 6.6150
 4.8420	 6.6680
 4.8460	 6.6700
 4.8510	 6.5790
 4.8550	 6.6350
 4.8600	 6.7290
 4.8640	 6.7640
 4.8690	 6.7160
 4.8730	 6.6540
 4.8780	 6.5530
 4.8830	 6.5930
 4.8870	 6.6760
 4.8920	 6.7200
 4.8960	 6.6970
 4.9010	 6.6650
 4.9060	 6.6390
 4.9100	 6.6530
 4.9150	 6.6340
 4.9200	 6.6970
 4.9240	 6.6800
 4.9290	 6.7020
 4.9340	 6.7210
 4.9380	 6.7550
 4.9430	 6.7280
 4.9480	 6.7350
 4.9530	 6.6470
 4.9570	 6.6740
 4.9620	 6.7010
 4.9670	 6.7170
 4.9720	 6.6750
 4.9760	 6.7070
 4.9810	 6.7340
 4.9860	 6.8000
 4.9910	 6.8120
 4.9960	 6.8250
 5.0000	 6.7800
 5.0050	 6.8160
 5.0100	 6.7550
 5.0150	 6.6530
 5.0200	 6.6400
 5.0250	 6.7080
 5.0290	 6.6930
 5.0340	 6.7400
 5.0390	 6.7500
 5.0440	 6.7420
 5.0490	 6.6990
 5.0540	 6.7610
 5.0590	 6.7370
 5.0640	 6.6940
 5.0690	 6.6380
 5.0740	 6.7030
 5.0790	 6.8020
 5.0840	 6.8370
 5.0890	 6.7980
 5.0940	 6.7190
 5.0990	 6.7350
 5.1040	 6.8700
 5.1090	 6.8070
 5.1140	 6.7540
 5.1190	 6.6990
 5.1240	 6.7620
 5.1290	 6.8380
 5.1340	 6.7580
 5.1390	 6.7070
 5.1440	 6.8370
 5.1490	 6.8170
 5.1540	 6.7780
 5.1600	 6.7680
 5.1650	 6.7010
 5.1700	 6.5730
 5.1750	 6.6990
 5.1800	 6.7490
 5.1850	 6.7340
 5.1910	 6.6820
 5.1960	 6.7280
 5.2010	 6.7090
 5.2060	 6.8340
 5.2110	 6.8920
 5.2170	 6.8930
 5.2220	 6.7710
 5.2270	 6.7630
 5.2320	 6.6530
 5.2380	 6.5690
 5.2430	 6.5560
 5.2480	 6.6650
 5.2540	 6.6130
 5.2590	 6.6240
 5.2640	 6.5980
 5.2700	 6.6870
 5.2750	 6.7080
 5.2800	 6.7010
 5.2860	 6.6150
 5.2910	 6.6770
 5.2970	 6.7290
 5.3020	 6.7380
 5.3070	 6.6130
 5.3130	 6.6190
 5.3180	 6.5810
 5.3240	 6.6350
 5.3290	 6.6720
 5.3350	 6.6350
 5.3400	 6.5380
 5.3460	 6.5310
 5.3510	 6.4960
 5.3570	 6.5480
 5.3620	 6.6290
 5.3680	 6.6870
 5.3730	 6.6110
 5.3790	 6.6180
 5.3850	 6.5060
 5.3900	 6.4420
 5.3960	 6.4640
 5.4010	 6.4850
 5.4070	 6.4660
 5.4130	 6.4680
 5.4180	 6.4240
 5.4240	 6.5010
 5.4300	 6.4230
 5.4350	 6.3840
 5.4410	 6.4080
 5.4470	 6.3650
 5.4530	 6.2450
 5.4580	 6.3330
 5.4640	 6.3390
 5.4700	 6.3360
 5.4760	 6.3170
 5.4810	 6.4290
 5.4870	 6.4020
 5.4930	 6.3800
 5.4990	 6.2410
 5.5050	 6.1890
 5.5110	 6.1810
 5.5160	 6.1800
 5.5220	 6.0650
 5.5280	 6.0210
 5.5340	 5.9550
 5.5400	 5.9910
 5.5460	 5.9660
 5.5520	 6.0330
 5.5580	 5.9910
 5.5640	 5.9430
 5.5700	 5.8800
 5.5760	 5.8760
 5.5820	 5.8200
 5.5880	 5.7970
 5.5940	 5.6370
 5.6000	 5.6430
 5.6060	 5.5540
 5.6120	 5.4370
 5.6180	 5.4110
 5.6240	 5.4140
 5.6300	 5.3460
 5.6360	 5.3140
 5.6420	 5.1960
 5.6490	 5.1530
 5.6550	 5.0310
 5.6610	 4.9030
 5.6670	 4.7220
 5.6730	 4.7170
 5.6800	 4.6380
 5.6860	 4.6290
 5.6920	 4.6220
 5.6980	 4.5960
 5.7040	 4.4310
 5.7110	 4.3190
 5.7170	 4.1970
 5.7230	 4.0580
 5.7300	 3.8140
 5.7360	 3.7660
 5.7420	 3.7270
 5.7490	 3.8130
 5.7550	 3.7700
 5.7620	 3.8610
 5.7680	 3.9850
 5.7740	 4.1130
 5.7810	 4.0980
 5.7870	 4.2720
 5.7940	 4.4070
 5.8000	 4.5190
 5.8070	 4.5100
 5.8130	 4.6780
 5.8200	 4.8860
 5.8260	 4.9660
 5.8330	 4.8570
 5.8390	 4.9700
 5.8460	 5.0730
 5.8530	 5.2710
 5.8590	 5.2730
 5.8660	 5.3350
 5.8720	 5.4220
 5.8790	 5.6410
 5.8860	 5.5730
 5.8920	 5.5980
 5.8990	 5.5820
 5.9060	 5.5420
 5.9130	 5.4260
 5.9190	 5.3750
 5.9260	 5.3300
 5.9330	 5.3590
 5.9400	 5.4130
 5.9470	 5.4160
 5.9530	 5.3330
 5.9600	 5.3270
 5.9670	 5.1870
 5.9740	 5.1150
 5.9810	 5.0540
 5.9880	 5.1300
 5.9950	 5.0460
 6.0020	 5.0210
 6.0090	 4.9860
 6.0160	 5.0720
 6.0230	 4.9270
 6.0300	 4.7260
 6.0370	 4.6610
 6.0440	 4.8620
 6.0510	 4.8980
 6.0580	 4.9620
 6.0650	 4.9100
 6.0720	 5.0780
 6.0790	 5.0060
 6.0860	 4.8530
 6.0930	 4.7690
 6.1000	 4.8450
 6.1080	 4.8300
 6.1150	 4.7870
 6.1220	 4.7770
 6.1290	 4.9780
 6.1370	 4.9780
 6.1440	 5.0250
 6.1510	 4.8970
 6.1580	 4.8790
 6.1660	 4.8400
 6.1730	 4.8800
 6.1800	 4.7450
 6.1880	 4.8330
 6.1950	 4.7810
 6.2030	 4.7380
 6.2100	 4.7280
 6.2170	 4.8460
 6.2250	 4.8520
 6.2320	 4.9860
 6.2400	 4.9540
 6.2470	 4.9660
 6.2550	 4.9710
 6.2630	 5.0060
 6.2700	 5.1010
 6.2780	 5.1690
 6.2850	 5.0550
 6.2930	 5.2450
 6.3010	 5.2210
 6.3080	 5.1980
 6.3160	 5.2090
 6.3240	 5.3140
 6.3310	 5.2300
 6.3390	 5.2690
 6.3470	 5.3080
 6.3550	 5.3710
 6.3620	 5.3910
 6.3700	 5.3940
 6.3780	 5.2990
 6.3860	 5.4110
 6.3940	 5.4310
 6.4020	 5.6250
 6.4100	 5.6850
 6.4180	 5.6440
 6.4260	 5.3770
 6.4330	 5.3750
 6.4410	 5.3500
 6.4490	 5.4380
 6.4580	 5.4320
 6.4660	 5.4480
 6.4740	 5.4350
 6.4820	 5.5620
 6.4900	 5.6150
 6.4980	 5.5690
 6.5060	 5.3920
 6.5140	 5.4080
 6.5230	 5.2900
 6.5310	 5.1420
 6.5390	 5.0040
 6.5470	 5.1050
 6.5550	 4.9930
 6.5640	 4.7580
 6.5720	 4.6820
 6.5800	 4.8100
 6.5890	 4.6890
 6.5970	 4.7540
 6.6060	 4.8060
 6.6140	 4.9200
 6.6220	 4.9240
 6.6310	 5.0350
 6.6390	 5.0860
 6.6480	 5.1570
 6.6560	 5.0880
 6.6650	 5.0750
 6.6740	 5.0810
 6.6820	 5.2150
 6.6910	 5.1630
 6.6990	 5.1630
 6.7080	 5.0630
 6.7170	 5.1460
 6.7260	 5.1590
 6.7340	 5.1450
 6.7430	 5.0870
 6.7520	 5.0290
 6.7610	 4.8940
 6.7690	 4.9250
 6.7780	 4.7640
 6.7870	 4.8200
 6.7960	 4.6680
 6.8050	 4.6140
 6.8140	 4.5690
 6.8230	 4.6230
 6.8320	 4.6270
 6.8410	 4.6910
 6.8500	 4.6550
 6.8590	 4.8550
 6.8680	 4.7880
 6.8770	 4.7480
 6.8860	 4.6600
 6.8950	 4.7050
 6.9050	 4.6340
 6.9140	 4.7270
 6.9230	 4.7580
 6.9320	 4.7700
 6.9420	 4.5990
 6.9510	 4.8180
 6.9600	 4.8590
 6.9700	 4.7720
 6.9790	 4.7170
 6.9880	 4.9360
 6.9980	 4.9160
 7.0070	 4.8020
 7.0170	 4.7040
 7.0260	 4.8040
 7.0360	 4.8230
 7.0450	 4.7980
 7.0550	 4.7290
 7.0650	 4.9710
 7.0740	 4.8000
 7.0840	 4.6920
 7.0940	 4.7300
 7.1030	 4.8340
 7.1130	 4.7760
 7.1230	 4.8430
 7.1330	 4.8790
 7.1420	 4.9200
 7.1520	 4.7320
 7.1620	 4.7480
 7.1720	 4.6330
 7.1820	 4.6730
 7.1920	 4.6430
 7.2020	 4.6310
 7.2120	 4.4730
 7.2220	 4.5340
 7.2320	 4.4920
 7.2420	 4.4070
 7.2520	 4.2570
 7.2620	 4.3210
 7.2730	 4.3280
 7.2830	 4.5240
 7.2930	 4.4540
 7.3030	 4.4700
 7.3140	 4.4570
 7.3240	 4.4480
 7.3340	 4.4750
 7.3450	 4.5950
 7.3550	 4.5260
 7.3660	 4.6700
 7.3760	 4.7120
 7.3870	 4.7670
 7.3970	 4.6790
 7.4080	 4.7660
 7.4180	 4.7360
 7.4290	 4.7250
 7.4400	 4.6250
 7.4500	 4.7350
 7.4610	 4.7100
 7.4720	 4.6550
 7.4830	 4.5050
 7.4930	 4.5790
 7.5040	 4.5780
 7.5150	 4.6390
 7.5260	 4.5180
 7.5370	 4.4960
 7.5480	 4.4240
 7.5590	 4.4620
 7.5700	 4.4670
 7.5810	 4.4880
 7.5920	 4.4060
 7.6030	 4.5070
 7.6140	 4.4460
 7.6260	 4.5550
 7.6370	 4.5360
 7.6480	 4.6430
 7.6590	 4.4840
 7.6710	 4.5140
 7.6820	 4.4780
 7.6930	 4.5700
 7.7050	 4.5240
 7.7160	 4.5990
 7.7280	 4.4860
 7.7390	 4.4950
 7.7510	 4.4610
 7.7630	 4.3970
 7.7740	 4.2600
 7.7860	 4.3920
 7.7980	 4.3570
 7.8090	 4.3770
 7.8210	 4.2070
 7.8330	 4.1960
 7.8450	 4.2030
 7.8570	 4.2910
 7.8690	 4.2040
 7.8810	 4.2930
 7.8930	 4.2250
 7.9050	 4.2400
 7.9170	 4.1520
 7.9290	 4.2670
 7.9410	 4.2130
 7.9530	 4.2760
 7.9650	 4.2230
 7.9780	 4.3160
 7.9900	 4.3520
 8.0020	 4.4470
 8.0150	 4.4070
 8.0270	 4.4810
 8.0390	 4.2790
 8.0520	 4.5170
 8.0640	 4.5830
 8.0770	 4.5890
 8.0900	 4.4680
 8.1020	 4.6390
 8.1150	 4.5220
 8.1280	 4.6290
 8.1400	 4.5620
 8.1530	 4.7050
 8.1660	 4.6330
 8.1790	 4.8810
 8.1920	 4.8980
 8.2050	 5.0430
 8.2180	 4.8640
 8.2310	 4.8710
 8.2440	 4.8520
 8.2570	 5.0590
 8.2700	 4.8660
 8.2830	 5.0140
 8.2970	 4.9980
 8.3100	 5.2430
 8.3230	 5.2620
 8.3370	 5.3560
 8.3500	 5.2320
 8.3640	 5.2800
 8.3770	 5.0190
 8.3910	 5.1530
 8.4040	 5.1470
 8.4180	 5.2780
 8.4320	 5.0640
 8.4450	 5.0990
 8.4590	 5.0280
 8.4730	 5.3380
 8.4870	 5.3410
 8.5010	 5.3970
 8.5150	 5.4290
 8.5290	 5.7290
 8.5430	 5.8010
 8.5570	 5.8730
 8.5710	 5.6020
 8.5850	 5.6710
 8.5990	 5.7460
 8.6140	 5.8020
 8.6280	 5.4660
 8.6420	 5.4790
 8.6570	 5.4170
 8.6710	 5.6250
 8.6860	 5.6840
 8.7000	 5.7080
 8.7150	 5.5380
 8.7300	 5.7750
 8.7440	 5.6760
 8.7590	 5.7370
 8.7740	 5.6180
 8.7890	 5.7880
 8.8040	 5.6000
 8.8190	 5.6100
 8.8340	 5.3690
 8.8490	 5.4560
 8.8640	 5.3590
 8.8790	 5.4140
 8.8940	 5.2510
 8.9100	 5.3950
 8.9250	 5.3070
 8.9400	 5.2010
 8.9560	 4.9250
 8.9710	 5.2130
 8.9870	 5.2130
 9.0020	 5.5040
 9.0180	 5.4040
 9.0340	 5.3580
 9.0500	 5.3870
 9.0650	 5.4200
 9.0810	 5.3080
 9.0970	 5.5110
 9.1130	 5.3200
 9.1290	 5.5170
 9.1450	 5.3230
 9.1610	 5.3230
 9.1780	 5.2390
 9.1940	 5.3060
 9.2100	 5.1570
 9.2270	 5.2550
 9.2430	 5.0890
 9.2600	 5.1630
 9.2760	 5.0720
 9.2930	 5.2280
 9.3090	 5.0450
 9.3260	 5.1070
 9.3430	 5.0350
 9.3600	 5.4220
 9.3770	 5.2550
 9.3940	 5.3290
 9.4110	 5.0740
 9.4280	 5.2980
 9.4450	 5.3750
 9.4620	 5.3600
 9.4800	 5.1120
 9.4970	 5.2930
 9.5140	 5.1330
 9.5320	 5.0980
 9.5500	 4.7640
 9.5670	 4.8960
 9.5850	 4.8030
 9.6030	 5.0330
 9.6200	 4.9850
 9.6380	 4.9770
 9.6560	 4.7810
 9.6740	 5.0050
 9.6920	 4.9390
 9.7100	 5.1110
 9.7290	 5.0590
 9.7470	 5.1690
 9.7650	 5.1080
 9.7840	 5.2970
 9.8020	 5.1840
 9.8210	 5.1490
 9.8390	 5.0120
 9.8580	 5.3940
 9.8770	 5.3730
 9.8960	 5.4770
 9.9150	 5.3820
 9.9340	 5.6260
 9.9530	 5.4090
 9.9720	 5.2710
 9.9910	 5.3090
10.0100	 5.6130
10.0300	 5.3530
10.0490	 5.3430
10.0690	 5.2580
10.0880	 5.5040
10.1080	 5.4010
10.1280	 5.5400
10.1480	 5.4000
10.1670	 5.6630
10.1870	 5.6900
10.2070	 5.8940
10.2280	 5.7580
10.2480	 5.9090
10.2680	 5.8450
10.2890	 5.8400
10.3090	 5.7900
10.3300	 5.9700
10.3500	 5.7960
10.3710	 6.0320
10.3920	 5.9830
10.4120	 6.1200
10.4330	 6.0290
10.4540	 6.3230
10.4760	 6.2600
10.4970	 6.3710
10.5180	 6.2660
10.5390	 6.4590
10.5610	 6.2160
10.5820	 6.2870
10.6040	 6.3140
10.6260	 6.3280
10.6480	 5.9690
10.6700	 6.0900
10.6920	 6.0650
10.7140	 6.3570
10.7360	 6.3740
10.7580	 6.4060
10.7800	 6.1210
10.8030	 6.2070
10.8250	 6.0760
10.8480	 6.2150
10.8710	 5.9560
10.8940	 5.9840
10.9170	 5.9100
10.9400	 6.3400
10.9630	 6.1660
10.9860	 6.1270
11.0090	 6.0480
11.0330	 6.2300
11.0560	 5.8790
11.0800	 5.9730
11.1040	 5.7870
11.1270	 5.9390
11.1510	 5.8070
11.1750	 5.9010
11.2000	 5.6680
11.2240	 5.9190
11.2480	 5.8040
11.2730	 6.0090
11.2970	 5.8610
11.3220	 6.0320
11.3470	 5.8860
11.3720	 6.1030
11.3970	 5.9600
11.4220	 6.0480
11.4470	 5.7750
11.4720	 5.9880
11.4980	 5.8930
11.5230	 6.1190
11.5490	 6.0080
11.5750	 6.1910
11.6000	 5.9300
11.6260	 5.8570
11.6530	 5.6210
11.6790	 5.6690
11.7050	 5.5180
11.7320	 5.7780
11.7580	 5.7100
11.7850	 5.5540
11.8120	 5.1880
11.8390	 5.7650
11.8660	 5.8110
11.8930	 5.8640
11.9200	 5.5500
11.9480	 5.6930
11.9760	 5.4620
12.0030	 5.7060
12.0310	 5.6340
12.0590	 5.9010
12.0870	 5.7030
12.1150	 5.9750
12.1440	 5.7320
12.1720	 5.6760
12.2010	 5.2610
12.2300	 5.5430
12.2590	 5.6710
12.2880	 6.0540
12.3170	 5.8120
12.3460	 5.8950
12.3760	 5.4990
12.4050	 5.7330
12.4350	 5.7140
12.4650	 5.9170
12.4950	 5.8550
12.5250	 6.0830
12.5550	 5.6020
12.5860	 5.8230
12.6170	 5.5290
12.6470	 5.7030
12.6780	 5.4390
12.7090	 5.4600
12.7410	 5.2920
12.7720	 5.6350
12.8030	 5.4190
12.8350	 5.4920
12.8670	 5.1730
12.8990	 5.5270
12.9310	 5.3650
12.9640	 5.5280
12.9960	 5.3230
13.0290	 5.5980
13.0610	 5.2030
13.0940	 5.4510
13.1280	 5.1320
13.1610	 4.9660
13.1940	 4.8860
13.2280	 5.1830
13.2620	 5.0030
13.2960	 5.1930
13.3300	 4.8970
13.3640	 5.2980
13.3990	 4.9870
13.4340	 4.9610
13.4690	 4.5370
13.5040	 4.9050
13.5390	 4.7310
13.5740	 5.0960
13.6100	 5.2160
13.6460	 5.5650
13.6820	 4.9500
13.7180	 4.9170
13.7540	 4.4600
13.7910	 4.7570
13.8280	 4.5990
13.8650	 5.0650
13.9020	 5.0700
13.9390	 5.3670
13.9770	 4.8330
14.0150	 5.2350
14.0530	 4.7790
14.0910	 4.8210
14.1290	 4.6450
14.1680	 5.2880
14.2070	 5.0540
14.2460	 5.2660
14.2850	 4.5360
14.3240	 4.8600
14.3640	 4.6550
14.4040	 5.0390
14.4440	 4.5870
14.4840	 4.8690
14.5250	 4.6470
14.5660	 5.2160
14.6070	 4.6180
14.6480	 4.4610
14.6900	 3.4910
14.7310	 4.4440
14.7730	 4.4230
14.8150	 4.8000
14.8580	 4.6590
14.9010	 5.2980
14.9440	 3.6540
14.9870	 4.1120
15.0300	 4.3240
15.0740	 4.6140
15.1180	 3.5400
15.1620	 3.9130
15.2060	 3.4920
15.2510	 4.3150
15.2960	 3.3010
15.3410	 3.9130
15.3870	 3.5690
