Name: Ceanothus spinosus 1
Type: vegetation
Class: Shrub
Genus: Ceanothus
Species: spinosus
Sample No.: VH199
Owner: UCSB
Wavelength Range: TIR
Origin: 34.4906; -119.7908; WGS84
Collection Date: 10/13/2013
Description: Samples were collected as part of the HyspIRI Airborne Campaign. 48 individual plants were sampled in three times in 2013 - spring  summer  and fall. The name of the sample includes a 1  2  or 3 which references a different individual of the species. Samples were taken to JPL and processed within 48 hours of collection. The same leaves were processed in the Nicolet and then measured using the ASD.
Measurement: Hemispherical reflectance
First Column: X
Second Column: Y
X Units: Wavelength (micrometers)
Y Units: Reflectance (percentage)
First X Value: 2.501
Last X Value: 15.387
Number of X Values: 1737
Additional Information: vegetation.shrub.ceanothus.spinosus.tir.vh199.ucsb.nicolet.ancillary.txt

 2.5010	 7.7740
 2.5030	 7.7600
 2.5040	 7.6960
 2.5050	 7.5750
 2.5060	 7.7270
 2.5070	 7.6680
 2.5090	 7.6080
 2.5100	 7.6580
 2.5110	 7.4700
 2.5120	 7.2260
 2.5140	 7.3690
 2.5150	 7.5560
 2.5160	 7.4440
 2.5170	 7.1570
 2.5180	 7.2310
 2.5200	 7.2840
 2.5210	 7.1710
 2.5220	 7.1250
 2.5230	 7.3950
 2.5250	 7.4710
 2.5260	 7.4720
 2.5270	 7.4110
 2.5280	 7.2190
 2.5290	 7.1030
 2.5310	 7.3210
 2.5320	 7.6230
 2.5330	 7.7310
 2.5340	 7.4170
 2.5360	 7.2770
 2.5370	 7.1940
 2.5380	 7.2210
 2.5390	 7.2010
 2.5410	 7.2220
 2.5420	 7.1740
 2.5430	 7.2250
 2.5440	 7.2200
 2.5460	 7.1730
 2.5470	 7.1480
 2.5480	 7.2690
 2.5490	 7.1880
 2.5510	 7.1710
 2.5520	 7.3050
 2.5530	 7.3790
 2.5540	 7.3860
 2.5560	 7.3400
 2.5570	 7.2790
 2.5580	 7.3210
 2.5590	 7.3310
 2.5610	 7.4280
 2.5620	 7.4080
 2.5630	 7.4290
 2.5640	 7.2540
 2.5660	 7.2620
 2.5670	 7.3360
 2.5680	 7.3640
 2.5700	 7.3590
 2.5710	 7.3380
 2.5720	 7.1760
 2.5730	 7.2350
 2.5750	 7.3210
 2.5760	 7.2180
 2.5770	 7.0420
 2.5790	 7.2090
 2.5800	 7.4380
 2.5810	 7.5550
 2.5820	 7.3850
 2.5840	 7.4220
 2.5850	 7.3320
 2.5860	 7.2500
 2.5880	 7.3930
 2.5890	 7.4660
 2.5900	 7.2280
 2.5910	 7.2810
 2.5930	 7.3160
 2.5940	 7.1590
 2.5950	 7.0340
 2.5970	 7.2050
 2.5980	 7.2150
 2.5990	 7.1300
 2.6000	 7.0730
 2.6020	 7.1810
 2.6030	 7.1830
 2.6040	 7.0510
 2.6060	 7.0060
 2.6070	 7.0760
 2.6080	 6.8800
 2.6100	 6.9000
 2.6110	 6.9680
 2.6120	 7.0290
 2.6140	 6.9330
 2.6150	 6.7770
 2.6160	 6.8980
 2.6180	 7.0100
 2.6190	 6.9640
 2.6200	 6.8640
 2.6220	 6.6680
 2.6230	 6.7010
 2.6240	 6.8520
 2.6260	 6.7490
 2.6270	 6.4370
 2.6280	 6.4490
 2.6300	 6.3120
 2.6310	 6.1790
 2.6320	 6.2810
 2.6340	 6.3470
 2.6350	 6.3280
 2.6360	 6.2820
 2.6380	 6.0790
 2.6390	 6.1310
 2.6400	 6.1650
 2.6420	 6.2070
 2.6430	 6.2120
 2.6440	 6.2000
 2.6460	 6.0540
 2.6470	 6.1250
 2.6480	 6.0940
 2.6500	 5.8220
 2.6510	 5.7480
 2.6520	 5.8240
 2.6540	 5.6380
 2.6550	 5.5350
 2.6560	 5.5720
 2.6580	 5.7690
 2.6590	 5.7790
 2.6610	 5.9540
 2.6620	 5.9820
 2.6630	 5.7430
 2.6650	 5.4710
 2.6660	 5.4160
 2.6670	 5.2560
 2.6690	 5.1240
 2.6700	 5.1560
 2.6720	 5.3430
 2.6730	 5.3210
 2.6740	 5.1890
 2.6760	 5.0240
 2.6770	 5.1390
 2.6780	 5.2010
 2.6800	 5.2350
 2.6810	 5.1700
 2.6830	 5.2520
 2.6840	 5.2390
 2.6850	 5.0830
 2.6870	 4.9090
 2.6880	 4.9030
 2.6900	 4.8570
 2.6910	 4.9920
 2.6920	 5.0790
 2.6940	 4.9190
 2.6950	 4.8600
 2.6970	 5.1270
 2.6980	 5.1040
 2.6990	 4.8520
 2.7010	 4.5210
 2.7020	 4.6310
 2.7040	 4.6860
 2.7050	 4.5790
 2.7060	 4.4800
 2.7080	 4.7250
 2.7090	 4.7830
 2.7110	 4.7510
 2.7120	 4.5900
 2.7130	 4.6050
 2.7150	 4.6210
 2.7160	 4.6390
 2.7180	 4.6570
 2.7190	 4.7040
 2.7210	 4.7060
 2.7220	 4.9990
 2.7230	 4.9220
 2.7250	 4.6840
 2.7260	 4.4460
 2.7280	 4.4820
 2.7290	 4.5470
 2.7310	 4.5310
 2.7320	 4.5430
 2.7330	 4.8250
 2.7350	 4.8040
 2.7360	 4.6970
 2.7380	 4.6190
 2.7390	 4.6210
 2.7410	 4.5730
 2.7420	 4.4000
 2.7440	 4.1550
 2.7450	 4.4090
 2.7470	 4.4870
 2.7480	 4.4660
 2.7490	 4.4360
 2.7510	 4.9050
 2.7520	 4.8930
 2.7540	 4.5230
 2.7550	 4.5010
 2.7570	 4.9360
 2.7580	 4.7100
 2.7600	 4.4970
 2.7610	 4.4580
 2.7630	 4.0770
 2.7640	 4.3560
 2.7660	 4.5550
 2.7670	 4.6210
 2.7680	 4.8000
 2.7700	 4.8300
 2.7710	 4.9210
 2.7730	 5.0030
 2.7740	 4.9740
 2.7760	 4.4520
 2.7770	 4.4430
 2.7790	 4.5400
 2.7800	 4.5630
 2.7820	 4.5610
 2.7830	 4.4780
 2.7850	 4.4660
 2.7860	 4.6040
 2.7880	 4.6260
 2.7890	 4.7230
 2.7910	 4.7520
 2.7920	 4.6080
 2.7940	 4.5700
 2.7950	 4.6650
 2.7970	 4.4140
 2.7980	 4.5180
 2.8000	 4.5210
 2.8010	 4.7500
 2.8030	 4.8650
 2.8040	 4.8760
 2.8060	 4.7680
 2.8070	 4.7650
 2.8090	 4.6610
 2.8110	 4.6680
 2.8120	 4.4290
 2.8140	 4.4250
 2.8150	 4.7410
 2.8170	 4.8990
 2.8180	 4.8310
 2.8200	 4.9810
 2.8210	 4.5930
 2.8230	 4.5840
 2.8240	 4.9570
 2.8260	 4.8100
 2.8270	 4.5160
 2.8290	 4.6220
 2.8300	 4.6870
 2.8320	 4.6690
 2.8340	 4.5750
 2.8350	 4.5800
 2.8370	 4.4230
 2.8380	 4.5240
 2.8400	 4.7550
 2.8410	 4.7440
 2.8430	 4.6440
 2.8440	 4.6920
 2.8460	 4.6960
 2.8480	 4.8100
 2.8490	 4.6350
 2.8510	 4.6320
 2.8520	 4.7230
 2.8540	 4.8930
 2.8550	 4.8350
 2.8570	 4.8480
 2.8590	 4.8730
 2.8600	 4.8370
 2.8620	 4.7860
 2.8630	 4.8470
 2.8650	 4.8210
 2.8660	 4.9880
 2.8680	 5.1470
 2.8700	 5.2920
 2.8710	 5.2840
 2.8730	 5.0270
 2.8740	 4.5070
 2.8760	 4.6380
 2.8780	 4.7240
 2.8790	 4.8200
 2.8810	 5.0100
 2.8820	 4.9700
 2.8840	 5.0060
 2.8860	 5.1140
 2.8870	 5.3800
 2.8890	 5.0420
 2.8900	 4.7230
 2.8920	 5.0560
 2.8940	 4.7130
 2.8950	 4.6230
 2.8970	 4.5360
 2.8980	 4.2280
 2.9000	 4.4610
 2.9020	 4.8500
 2.9030	 4.7920
 2.9050	 4.8140
 2.9070	 5.2380
 2.9080	 5.4840
 2.9100	 5.2100
 2.9120	 4.9940
 2.9130	 4.9380
 2.9150	 4.8030
 2.9160	 4.6170
 2.9180	 4.7650
 2.9200	 4.9340
 2.9210	 5.2880
 2.9230	 5.2020
 2.9250	 5.1860
 2.9260	 5.0560
 2.9280	 5.0780
 2.9300	 4.9330
 2.9310	 5.0020
 2.9330	 5.0800
 2.9350	 5.0120
 2.9360	 4.7880
 2.9380	 4.9010
 2.9400	 4.8320
 2.9410	 4.7940
 2.9430	 4.6560
 2.9450	 4.5850
 2.9460	 4.5270
 2.9480	 4.6140
 2.9500	 4.6800
 2.9510	 5.1010
 2.9530	 5.0960
 2.9550	 4.0730
 2.9560	 4.3580
 2.9580	 4.9390
 2.9600	 4.1470
 2.9610	 4.7050
 2.9630	 5.3340
 2.9650	 5.8360
 2.9660	 5.8190
 2.9680	 5.6270
 2.9700	 6.3260
 2.9720	 6.4140
 2.9730	 4.0050
 2.9750	 2.7630
 2.9770	 2.1640
 2.9780	 3.4160
 2.9800	 5.4530
 2.9820	 6.3100
 2.9840	 5.5820
 2.9850	 4.7370
 2.9870	 4.1500
 2.9890	 3.6900
 2.9900	 4.2320
 2.9920	 4.7660
 2.9940	 4.5000
 2.9960	 6.0210
 2.9970	 4.9840
 2.9990	 4.6190
 3.0010	 5.4010
 3.0030	 5.7410
 3.0040	 6.0450
 3.0060	 6.4720
 3.0080	 5.8930
 3.0100	 4.1150
 3.0110	 3.6860
 3.0130	 5.4730
 3.0150	 4.7720
 3.0170	 4.5850
 3.0180	 6.1910
 3.0200	 6.4500
 3.0220	 4.9940
 3.0240	 4.4360
 3.0250	 4.9090
 3.0270	 4.7280
 3.0290	 4.2010
 3.0310	 4.8850
 3.0320	 5.3630
 3.0340	 4.7480
 3.0360	 5.9370
 3.0380	 6.3080
 3.0400	 5.0580
 3.0410	 6.4140
 3.0430	 7.2870
 3.0450	 4.5160
 3.0470	 2.3050
 3.0480	 2.7490
 3.0500	 2.9250
 3.0520	 3.8040
 3.0540	 6.3110
 3.0560	 7.7920
 3.0570	 7.1070
 3.0590	 6.5650
 3.0610	 5.2790
 3.0630	 5.2280
 3.0650	 5.8540
 3.0660	 6.0340
 3.0680	 5.5940
 3.0700	 4.6520
 3.0720	 4.6820
 3.0740	 5.6300
 3.0760	 5.4010
 3.0770	 4.9440
 3.0790	 4.6540
 3.0810	 4.3920
 3.0830	 4.4700
 3.0850	 5.0100
 3.0870	 5.0420
 3.0880	 5.0400
 3.0900	 4.5650
 3.0920	 4.3090
 3.0940	 4.8410
 3.0960	 4.7810
 3.0980	 4.5760
 3.0990	 4.8230
 3.1010	 4.9200
 3.1030	 4.9580
 3.1050	 5.0490
 3.1070	 4.9280
 3.1090	 4.6140
 3.1110	 4.9400
 3.1120	 5.0180
 3.1140	 5.0670
 3.1160	 5.3610
 3.1180	 5.6860
 3.1200	 5.6660
 3.1220	 4.9330
 3.1240	 4.4720
 3.1260	 4.5870
 3.1270	 4.7360
 3.1290	 4.7360
 3.1310	 5.0910
 3.1330	 5.8140
 3.1350	 5.2270
 3.1370	 5.0800
 3.1390	 5.7480
 3.1410	 5.8830
 3.1430	 4.1980
 3.1450	 4.4050
 3.1460	 4.4320
 3.1480	 4.0330
 3.1500	 4.4900
 3.1520	 4.5350
 3.1540	 4.1820
 3.1560	 4.9810
 3.1580	 6.6820
 3.1600	 6.7950
 3.1620	 5.4950
 3.1640	 4.7630
 3.1660	 4.8160
 3.1680	 6.2710
 3.1700	 6.5990
 3.1710	 5.9830
 3.1730	 6.2380
 3.1750	 5.4160
 3.1770	 6.8740
 3.1790	 6.4980
 3.1810	 4.6090
 3.1830	 3.8930
 3.1850	 4.4290
 3.1870	 4.2440
 3.1890	 4.3690
 3.1910	 4.8700
 3.1930	 5.1240
 3.1950	 4.9330
 3.1970	 4.6260
 3.1990	 4.4300
 3.2010	 4.4910
 3.2030	 4.4080
 3.2050	 4.8460
 3.2070	 5.0510
 3.2090	 5.0810
 3.2110	 5.1520
 3.2130	 5.0080
 3.2150	 4.7600
 3.2170	 4.6280
 3.2190	 4.5270
 3.2210	 4.5240
 3.2230	 4.5840
 3.2250	 4.7230
 3.2270	 4.7190
 3.2290	 4.8900
 3.2310	 4.9320
 3.2330	 4.6530
 3.2350	 4.4880
 3.2370	 4.5960
 3.2390	 4.6260
 3.2410	 4.6120
 3.2430	 4.8970
 3.2450	 5.0430
 3.2470	 4.7630
 3.2490	 4.8280
 3.2510	 5.1000
 3.2530	 5.0270
 3.2550	 4.8190
 3.2570	 4.3090
 3.2590	 4.1260
 3.2610	 4.1310
 3.2630	 4.2870
 3.2650	 4.8880
 3.2670	 4.7010
 3.2690	 4.4480
 3.2720	 4.6430
 3.2740	 4.5510
 3.2760	 4.6470
 3.2780	 4.7320
 3.2800	 4.4960
 3.2820	 4.2600
 3.2840	 4.3070
 3.2860	 4.4580
 3.2880	 4.4270
 3.2900	 4.0910
 3.2920	 3.9330
 3.2940	 4.0750
 3.2960	 4.3800
 3.2990	 4.4630
 3.3010	 4.1020
 3.3030	 3.9710
 3.3050	 4.4020
 3.3070	 4.6290
 3.3090	 4.7260
 3.3110	 4.7090
 3.3130	 4.5120
 3.3150	 4.4520
 3.3180	 4.3090
 3.3200	 3.8290
 3.3220	 3.7050
 3.3240	 4.0460
 3.3260	 4.3880
 3.3280	 4.3730
 3.3300	 4.1710
 3.3330	 4.0980
 3.3350	 4.1340
 3.3370	 4.1750
 3.3390	 4.3370
 3.3410	 4.2130
 3.3430	 4.0420
 3.3450	 4.2400
 3.3480	 4.3110
 3.3500	 4.1060
 3.3520	 3.9240
 3.3540	 3.8270
 3.3560	 4.0120
 3.3580	 4.0790
 3.3610	 3.9670
 3.3630	 4.1030
 3.3650	 4.2030
 3.3670	 4.1670
 3.3690	 4.0670
 3.3720	 4.0380
 3.3740	 3.9930
 3.3760	 3.8880
 3.3780	 3.8930
 3.3800	 3.8920
 3.3830	 3.9840
 3.3850	 3.9960
 3.3870	 3.7870
 3.3890	 3.7090
 3.3910	 3.9300
 3.3940	 3.9800
 3.3960	 3.9850
 3.3980	 3.7690
 3.4000	 3.8240
 3.4020	 4.0230
 3.4050	 4.0870
 3.4070	 4.0720
 3.4090	 4.2150
 3.4110	 4.4040
 3.4140	 4.6710
 3.4160	 5.0690
 3.4180	 5.4290
 3.4200	 6.0310
 3.4230	 6.7590
 3.4250	 7.5240
 3.4270	 8.5310
 3.4290	 9.0500
 3.4320	 8.6970
 3.4340	 7.6620
 3.4360	 6.9090
 3.4390	 6.7720
 3.4410	 6.4360
 3.4430	 6.2760
 3.4450	 6.0180
 3.4480	 5.3860
 3.4500	 5.5940
 3.4520	 5.6180
 3.4550	 5.4860
 3.4570	 5.5000
 3.4590	 5.6900
 3.4620	 5.8770
 3.4640	 5.7820
 3.4660	 5.4660
 3.4680	 5.2400
 3.4710	 5.2830
 3.4730	 5.4120
 3.4750	 5.3050
 3.4780	 5.1380
 3.4800	 4.9510
 3.4820	 4.8730
 3.4850	 4.9120
 3.4870	 4.8220
 3.4890	 4.7560
 3.4920	 4.8050
 3.4940	 4.7930
 3.4970	 4.7750
 3.4990	 4.8890
 3.5010	 5.1340
 3.5040	 5.4780
 3.5060	 6.1090
 3.5080	 7.2770
 3.5110	 8.2710
 3.5130	 8.1190
 3.5160	 7.3230
 3.5180	 6.8430
 3.5200	 6.5550
 3.5230	 6.2520
 3.5250	 6.0780
 3.5270	 5.8590
 3.5300	 5.6860
 3.5320	 5.6490
 3.5350	 5.7670
 3.5370	 5.5550
 3.5400	 5.2510
 3.5420	 5.3640
 3.5440	 5.5250
 3.5470	 5.6220
 3.5490	 5.4800
 3.5520	 5.3290
 3.5540	 5.3410
 3.5570	 5.3360
 3.5590	 5.3510
 3.5610	 5.3180
 3.5640	 5.3830
 3.5660	 5.4430
 3.5690	 5.4730
 3.5710	 5.5480
 3.5740	 5.5880
 3.5760	 5.4040
 3.5790	 5.3800
 3.5810	 5.2730
 3.5840	 5.2300
 3.5860	 5.2490
 3.5890	 5.4430
 3.5910	 5.3400
 3.5930	 5.3420
 3.5960	 5.2870
 3.5980	 5.1640
 3.6010	 5.1490
 3.6030	 5.3660
 3.6060	 5.3880
 3.6080	 5.4310
 3.6110	 5.2090
 3.6140	 5.0970
 3.6160	 5.1730
 3.6190	 5.1250
 3.6210	 5.1040
 3.6240	 5.2430
 3.6260	 5.2460
 3.6290	 5.1510
 3.6310	 5.1400
 3.6340	 5.1460
 3.6360	 5.0470
 3.6390	 5.1580
 3.6410	 5.2420
 3.6440	 5.2050
 3.6470	 5.0580
 3.6490	 5.0130
 3.6520	 5.0270
 3.6540	 5.0970
 3.6570	 5.0200
 3.6590	 4.9740
 3.6620	 5.0560
 3.6650	 5.1090
 3.6670	 5.0090
 3.6700	 4.9420
 3.6720	 5.0820
 3.6750	 5.0640
 3.6780	 4.8990
 3.6800	 4.9270
 3.6830	 4.9710
 3.6850	 4.9820
 3.6880	 5.0270
 3.6910	 5.1040
 3.6930	 5.0000
 3.6960	 4.8940
 3.6990	 4.9590
 3.7010	 5.0520
 3.7040	 4.9790
 3.7060	 4.9740
 3.7090	 5.0490
 3.7120	 4.9720
 3.7140	 4.8330
 3.7170	 4.9520
 3.7200	 5.0540
 3.7220	 5.0640
 3.7250	 4.9670
 3.7280	 4.9110
 3.7300	 4.9300
 3.7330	 5.0670
 3.7360	 5.1480
 3.7390	 5.0750
 3.7410	 4.8750
 3.7440	 4.9470
 3.7470	 4.9990
 3.7490	 5.0390
 3.7520	 5.0540
 3.7550	 4.9680
 3.7580	 4.7670
 3.7600	 4.8450
 3.7630	 4.8040
 3.7660	 4.6770
 3.7680	 4.6480
 3.7710	 4.7850
 3.7740	 4.8690
 3.7770	 4.9020
 3.7790	 4.9140
 3.7820	 4.9670
 3.7850	 5.0490
 3.7880	 4.9930
 3.7900	 5.0140
 3.7930	 5.0030
 3.7960	 4.9630
 3.7990	 4.9380
 3.8020	 5.0600
 3.8040	 5.1530
 3.8070	 5.0540
 3.8100	 5.0270
 3.8130	 5.1270
 3.8160	 5.1040
 3.8180	 5.1390
 3.8210	 5.0310
 3.8240	 4.8880
 3.8270	 4.8860
 3.8300	 4.9910
 3.8330	 4.9910
 3.8350	 4.9450
 3.8380	 4.9680
 3.8410	 4.9270
 3.8440	 5.0680
 3.8470	 5.1100
 3.8500	 5.1070
 3.8520	 4.9420
 3.8550	 4.8070
 3.8580	 4.8810
 3.8610	 4.9600
 3.8640	 4.8550
 3.8670	 4.8940
 3.8700	 4.8380
 3.8730	 4.8290
 3.8750	 4.9720
 3.8780	 5.1230
 3.8810	 5.1630
 3.8840	 5.1620
 3.8870	 5.0820
 3.8900	 5.0430
 3.8930	 5.0330
 3.8960	 5.0700
 3.8990	 5.1270
 3.9020	 5.0540
 3.9050	 4.9140
 3.9080	 4.8280
 3.9110	 4.9280
 3.9140	 5.0190
 3.9160	 5.0540
 3.9190	 5.0560
 3.9220	 5.0860
 3.9250	 5.0780
 3.9280	 5.0870
 3.9310	 5.1750
 3.9340	 5.0980
 3.9370	 5.0560
 3.9400	 5.0290
 3.9430	 4.9970
 3.9460	 5.0780
 3.9490	 5.0730
 3.9520	 5.0520
 3.9550	 5.0120
 3.9580	 4.9020
 3.9610	 4.9580
 3.9640	 5.0770
 3.9670	 5.1160
 3.9700	 5.0150
 3.9730	 4.9730
 3.9770	 5.0320
 3.9800	 5.0890
 3.9830	 5.0840
 3.9860	 5.0960
 3.9890	 5.0030
 3.9920	 5.0050
 3.9950	 5.0730
 3.9980	 5.0820
 4.0010	 5.0440
 4.0040	 5.0480
 4.0070	 5.0740
 4.0100	 5.1120
 4.0130	 5.0640
 4.0170	 5.0360
 4.0200	 5.0730
 4.0230	 5.1220
 4.0260	 5.1030
 4.0290	 5.0640
 4.0320	 5.1010
 4.0350	 5.1340
 4.0380	 5.0520
 4.0420	 5.1050
 4.0450	 5.1160
 4.0480	 5.1150
 4.0510	 5.2180
 4.0540	 5.2180
 4.0570	 5.2390
 4.0610	 5.3040
 4.0640	 5.3000
 4.0670	 5.1910
 4.0700	 5.0550
 4.0730	 5.0390
 4.0770	 5.0260
 4.0800	 5.0800
 4.0830	 5.1150
 4.0860	 5.0870
 4.0890	 5.2200
 4.0930	 5.3480
 4.0960	 5.2610
 4.0990	 5.0840
 4.1020	 4.9210
 4.1060	 4.9020
 4.1090	 5.1040
 4.1120	 5.2340
 4.1150	 5.0280
 4.1190	 4.8690
 4.1220	 4.9520
 4.1250	 5.0620
 4.1280	 5.1000
 4.1320	 5.1450
 4.1350	 5.1140
 4.1380	 5.1070
 4.1420	 5.0250
 4.1450	 4.9880
 4.1480	 5.0490
 4.1520	 5.0830
 4.1550	 5.0880
 4.1580	 5.0990
 4.1620	 5.1490
 4.1650	 5.1760
 4.1680	 5.1430
 4.1720	 5.0910
 4.1750	 5.0730
 4.1780	 5.0930
 4.1820	 5.1210
 4.1850	 5.1190
 4.1890	 4.9980
 4.1920	 5.0340
 4.1950	 5.1180
 4.1990	 5.1630
 4.2020	 5.1260
 4.2060	 4.9670
 4.2090	 4.9470
 4.2120	 5.0000
 4.2160	 5.1570
 4.2190	 5.1740
 4.2230	 4.9320
 4.2260	 5.2770
 4.2300	 5.7190
 4.2330	 5.2370
 4.2360	 4.7940
 4.2400	 4.5990
 4.2430	 4.9350
 4.2470	 5.3790
 4.2500	 5.1070
 4.2540	 4.9280
 4.2570	 5.1000
 4.2610	 5.1330
 4.2640	 5.0850
 4.2680	 5.3600
 4.2710	 5.2810
 4.2750	 5.1380
 4.2780	 5.2910
 4.2820	 5.2500
 4.2850	 5.0630
 4.2890	 4.9980
 4.2930	 5.1380
 4.2960	 5.0940
 4.3000	 5.0260
 4.3030	 5.0420
 4.3070	 4.9970
 4.3100	 5.1110
 4.3140	 5.2320
 4.3180	 5.1430
 4.3210	 4.9240
 4.3250	 4.9190
 4.3280	 5.0050
 4.3320	 5.0440
 4.3360	 5.0810
 4.3390	 5.0370
 4.3430	 5.0080
 4.3470	 5.0030
 4.3500	 4.9090
 4.3540	 4.8890
 4.3570	 4.9590
 4.3610	 5.0220
 4.3650	 5.0260
 4.3680	 4.9800
 4.3720	 4.9690
 4.3760	 5.0030
 4.3800	 4.9740
 4.3830	 4.9680
 4.3870	 4.9640
 4.3910	 4.9710
 4.3940	 4.9590
 4.3980	 4.9280
 4.4020	 4.8950
 4.4060	 4.8850
 4.4090	 4.9300
 4.4130	 4.9980
 4.4170	 5.0270
 4.4210	 4.9770
 4.4240	 4.9460
 4.4280	 4.9160
 4.4320	 4.9390
 4.4360	 4.9930
 4.4400	 4.8590
 4.4430	 4.7940
 4.4470	 4.9870
 4.4510	 5.0210
 4.4550	 4.9270
 4.4590	 4.8880
 4.4620	 4.9150
 4.4660	 4.9210
 4.4700	 4.8450
 4.4740	 4.8330
 4.4780	 4.9210
 4.4820	 5.0030
 4.4860	 5.0110
 4.4900	 4.8910
 4.4930	 4.8590
 4.4970	 4.8880
 4.5010	 4.8970
 4.5050	 4.8990
 4.5090	 4.9230
 4.5130	 4.8270
 4.5170	 4.8190
 4.5210	 4.8710
 4.5250	 4.8670
 4.5290	 4.7960
 4.5330	 4.8610
 4.5370	 4.9080
 4.5410	 4.8720
 4.5450	 4.8580
 4.5490	 4.8480
 4.5530	 4.8160
 4.5570	 4.8420
 4.5610	 4.9670
 4.5650	 4.9280
 4.5690	 4.8060
 4.5730	 4.8640
 4.5770	 4.8870
 4.5810	 4.7990
 4.5850	 4.7850
 4.5890	 4.8950
 4.5930	 5.0180
 4.5970	 5.0590
 4.6010	 4.9040
 4.6050	 4.7490
 4.6090	 4.7260
 4.6130	 4.5570
 4.6170	 4.5740
 4.6220	 4.7890
 4.6260	 4.8530
 4.6300	 4.8400
 4.6340	 4.7740
 4.6380	 4.8750
 4.6420	 4.9600
 4.6460	 4.8480
 4.6510	 4.8070
 4.6550	 4.8050
 4.6590	 4.7270
 4.6630	 4.7290
 4.6670	 4.8310
 4.6720	 4.7730
 4.6760	 4.7450
 4.6800	 4.8240
 4.6840	 4.8700
 4.6880	 4.8360
 4.6930	 4.7200
 4.6970	 4.7500
 4.7010	 4.7560
 4.7050	 4.6870
 4.7100	 4.6350
 4.7140	 4.6610
 4.7180	 4.7730
 4.7230	 4.8680
 4.7270	 4.8530
 4.7310	 4.8470
 4.7360	 4.8750
 4.7400	 4.8570
 4.7440	 4.8540
 4.7490	 4.8450
 4.7530	 4.8470
 4.7570	 4.8010
 4.7620	 4.7730
 4.7660	 4.8210
 4.7700	 4.8090
 4.7750	 4.7800
 4.7790	 4.7890
 4.7840	 4.7950
 4.7880	 4.8520
 4.7920	 4.9380
 4.7970	 5.0880
 4.8010	 5.0160
 4.8060	 4.7610
 4.8100	 4.6700
 4.8150	 4.6690
 4.8190	 4.7860
 4.8240	 4.8130
 4.8280	 4.8700
 4.8330	 4.9130
 4.8370	 4.9080
 4.8420	 4.8770
 4.8460	 4.7660
 4.8510	 4.7610
 4.8550	 4.9170
 4.8600	 4.8950
 4.8640	 4.8610
 4.8690	 4.8070
 4.8730	 4.7830
 4.8780	 4.8150
 4.8830	 4.8320
 4.8870	 4.7630
 4.8920	 4.7300
 4.8960	 4.7720
 4.9010	 4.7960
 4.9060	 4.7510
 4.9100	 4.8270
 4.9150	 4.8920
 4.9200	 4.9300
 4.9240	 4.8710
 4.9290	 4.8280
 4.9340	 4.8760
 4.9380	 4.9050
 4.9430	 4.8700
 4.9480	 4.8430
 4.9530	 4.8010
 4.9570	 4.8430
 4.9620	 4.9040
 4.9670	 4.8960
 4.9720	 4.8250
 4.9760	 4.8270
 4.9810	 4.8070
 4.9860	 4.8050
 4.9910	 4.8130
 4.9960	 4.8120
 5.0000	 4.7390
 5.0050	 4.6920
 5.0100	 4.7870
 5.0150	 4.8220
 5.0200	 4.8140
 5.0250	 4.9430
 5.0290	 4.9060
 5.0340	 4.8390
 5.0390	 4.9070
 5.0440	 4.8990
 5.0490	 4.7620
 5.0540	 4.7200
 5.0590	 4.7630
 5.0640	 4.8750
 5.0690	 4.9270
 5.0740	 4.9450
 5.0790	 4.9410
 5.0840	 4.9550
 5.0890	 4.9460
 5.0940	 4.9420
 5.0990	 4.8310
 5.1040	 4.8350
 5.1090	 4.8520
 5.1140	 4.8870
 5.1190	 4.9060
 5.1240	 4.8610
 5.1290	 4.8890
 5.1340	 4.9640
 5.1390	 4.9240
 5.1440	 4.9360
 5.1490	 4.8790
 5.1540	 4.8650
 5.1600	 4.8380
 5.1650	 4.8960
 5.1700	 4.9560
 5.1750	 5.0240
 5.1800	 4.9820
 5.1850	 4.9510
 5.1910	 4.9730
 5.1960	 5.0020
 5.2010	 4.8760
 5.2060	 4.8680
 5.2110	 4.9120
 5.2170	 4.9050
 5.2220	 4.8810
 5.2270	 4.9180
 5.2320	 4.8970
 5.2380	 4.9500
 5.2430	 5.0120
 5.2480	 5.0360
 5.2540	 5.0530
 5.2590	 5.0870
 5.2640	 5.0900
 5.2700	 5.0220
 5.2750	 4.8540
 5.2800	 4.7650
 5.2860	 4.7940
 5.2910	 4.9350
 5.2970	 4.8940
 5.3020	 4.8900
 5.3070	 4.8940
 5.3130	 4.9420
 5.3180	 4.9340
 5.3240	 4.9350
 5.3290	 4.8600
 5.3350	 4.9270
 5.3400	 4.9480
 5.3460	 4.8830
 5.3510	 4.8030
 5.3570	 4.8160
 5.3620	 4.8090
 5.3680	 4.8520
 5.3730	 4.8370
 5.3790	 4.9280
 5.3850	 4.9160
 5.3900	 4.7790
 5.3960	 4.7500
 5.4010	 4.9170
 5.4070	 4.9300
 5.4130	 4.8340
 5.4180	 4.7720
 5.4240	 4.8030
 5.4300	 4.8620
 5.4350	 4.8420
 5.4410	 4.8450
 5.4470	 4.8680
 5.4530	 4.8950
 5.4580	 4.9070
 5.4640	 4.8180
 5.4700	 4.7720
 5.4760	 4.7080
 5.4810	 4.7810
 5.4870	 4.7550
 5.4930	 4.7330
 5.4990	 4.7040
 5.5050	 4.6810
 5.5110	 4.6970
 5.5160	 4.7460
 5.5220	 4.6020
 5.5280	 4.5740
 5.5340	 4.5730
 5.5400	 4.6210
 5.5460	 4.5600
 5.5520	 4.4660
 5.5580	 4.4130
 5.5640	 4.4940
 5.5700	 4.4880
 5.5760	 4.5330
 5.5820	 4.5270
 5.5880	 4.5070
 5.5940	 4.4430
 5.6000	 4.4470
 5.6060	 4.4360
 5.6120	 4.4360
 5.6180	 4.4340
 5.6240	 4.4140
 5.6300	 4.3190
 5.6360	 4.2900
 5.6420	 4.2000
 5.6490	 4.2120
 5.6550	 4.1880
 5.6610	 4.1840
 5.6670	 4.0900
 5.6730	 4.0380
 5.6800	 4.0400
 5.6860	 4.1500
 5.6920	 4.0070
 5.6980	 3.8460
 5.7040	 3.7380
 5.7110	 3.5720
 5.7170	 3.4560
 5.7230	 3.5550
 5.7300	 3.4870
 5.7360	 3.3680
 5.7420	 3.3730
 5.7490	 3.6750
 5.7550	 3.9900
 5.7620	 4.2020
 5.7680	 4.3700
 5.7740	 4.6710
 5.7810	 4.8310
 5.7870	 4.9950
 5.7940	 5.1150
 5.8000	 5.2320
 5.8070	 5.2130
 5.8130	 5.3680
 5.8200	 5.4650
 5.8260	 5.5390
 5.8330	 5.6020
 5.8390	 5.7070
 5.8460	 5.7220
 5.8530	 5.7500
 5.8590	 5.7200
 5.8660	 5.7690
 5.8720	 5.7630
 5.8790	 5.7840
 5.8860	 5.8490
 5.8920	 5.9390
 5.8990	 5.8370
 5.9060	 5.7750
 5.9130	 5.7290
 5.9190	 5.6810
 5.9260	 5.5980
 5.9330	 5.6210
 5.9400	 5.5560
 5.9470	 5.5300
 5.9530	 5.5020
 5.9600	 5.4540
 5.9670	 5.3830
 5.9740	 5.4750
 5.9810	 5.3710
 5.9880	 5.2630
 5.9950	 5.2810
 6.0020	 5.3320
 6.0090	 5.2600
 6.0160	 5.2710
 6.0230	 5.1810
 6.0300	 5.1460
 6.0370	 5.0710
 6.0440	 5.0740
 6.0510	 5.0370
 6.0580	 5.0890
 6.0650	 4.9620
 6.0720	 4.9990
 6.0790	 4.9520
 6.0860	 5.0050
 6.0930	 5.0200
 6.1000	 5.0510
 6.1080	 4.8950
 6.1150	 4.8090
 6.1220	 4.7940
 6.1290	 4.8570
 6.1370	 4.8760
 6.1440	 4.9260
 6.1510	 4.8810
 6.1580	 4.8710
 6.1660	 4.8370
 6.1730	 4.9250
 6.1800	 4.8730
 6.1880	 4.9240
 6.1950	 4.9300
 6.2030	 4.9390
 6.2100	 4.8680
 6.2170	 4.9230
 6.2250	 4.7730
 6.2320	 4.6540
 6.2400	 4.6750
 6.2470	 4.7380
 6.2550	 4.6810
 6.2630	 4.6760
 6.2700	 4.6820
 6.2780	 4.7980
 6.2850	 4.6670
 6.2930	 4.6710
 6.3010	 4.6880
 6.3080	 4.6620
 6.3160	 4.5800
 6.3240	 4.6390
 6.3310	 4.6000
 6.3390	 4.6360
 6.3470	 4.5800
 6.3550	 4.5920
 6.3620	 4.5610
 6.3700	 4.6580
 6.3780	 4.6380
 6.3860	 4.6350
 6.3940	 4.5610
 6.4020	 4.6530
 6.4100	 4.5690
 6.4180	 4.6150
 6.4260	 4.6150
 6.4330	 4.6140
 6.4410	 4.5880
 6.4490	 4.5450
 6.4580	 4.4810
 6.4660	 4.5970
 6.4740	 4.4470
 6.4820	 4.3870
 6.4900	 4.3670
 6.4980	 4.4230
 6.5060	 4.4530
 6.5140	 4.5090
 6.5230	 4.4120
 6.5310	 4.4130
 6.5390	 4.3720
 6.5470	 4.4370
 6.5550	 4.4970
 6.5640	 4.4970
 6.5720	 4.3230
 6.5800	 4.2890
 6.5890	 4.2060
 6.5970	 4.2830
 6.6060	 4.3560
 6.6140	 4.5270
 6.6220	 4.5800
 6.6310	 4.5650
 6.6390	 4.4040
 6.6480	 4.4460
 6.6560	 4.4810
 6.6650	 4.4970
 6.6740	 4.4250
 6.6820	 4.4270
 6.6910	 4.3820
 6.6990	 4.4780
 6.7080	 4.4010
 6.7170	 4.2890
 6.7260	 4.1660
 6.7340	 4.3010
 6.7430	 4.3150
 6.7520	 4.2700
 6.7610	 4.0770
 6.7690	 4.1100
 6.7780	 4.2350
 6.7870	 4.4020
 6.7960	 4.2850
 6.8050	 4.2460
 6.8140	 4.2570
 6.8230	 4.5060
 6.8320	 4.6840
 6.8410	 4.9260
 6.8500	 4.9740
 6.8590	 4.8610
 6.8680	 4.7880
 6.8770	 4.8270
 6.8860	 4.6830
 6.8950	 4.7190
 6.9050	 4.6480
 6.9140	 4.6490
 6.9230	 4.6100
 6.9320	 4.6960
 6.9420	 4.6290
 6.9510	 4.6020
 6.9600	 4.3640
 6.9700	 4.3950
 6.9790	 4.4470
 6.9880	 4.5350
 6.9980	 4.6080
 7.0070	 4.6380
 7.0170	 4.4800
 7.0260	 4.5460
 7.0360	 4.4650
 7.0450	 4.4700
 7.0550	 4.4550
 7.0650	 4.4600
 7.0740	 4.3710
 7.0840	 4.4770
 7.0940	 4.4060
 7.1030	 4.4380
 7.1130	 4.4860
 7.1230	 4.5720
 7.1330	 4.4800
 7.1420	 4.5560
 7.1520	 4.4070
 7.1620	 4.4160
 7.1720	 4.4450
 7.1820	 4.5720
 7.1920	 4.5140
 7.2020	 4.5240
 7.2120	 4.5230
 7.2220	 4.5980
 7.2320	 4.4370
 7.2420	 4.5040
 7.2520	 4.4960
 7.2620	 4.4850
 7.2730	 4.3260
 7.2830	 4.4500
 7.2930	 4.4410
 7.3030	 4.4790
 7.3140	 4.3540
 7.3240	 4.4040
 7.3340	 4.3720
 7.3450	 4.4390
 7.3550	 4.3520
 7.3660	 4.4100
 7.3760	 4.3560
 7.3870	 4.3620
 7.3970	 4.2730
 7.4080	 4.3700
 7.4180	 4.3480
 7.4290	 4.3860
 7.4400	 4.3330
 7.4500	 4.4420
 7.4610	 4.3330
 7.4720	 4.3070
 7.4830	 4.1580
 7.4930	 4.1650
 7.5040	 4.1830
 7.5150	 4.3520
 7.5260	 4.2630
 7.5370	 4.3000
 7.5480	 4.2590
 7.5590	 4.2430
 7.5700	 4.1940
 7.5810	 4.2990
 7.5920	 4.1720
 7.6030	 4.2160
 7.6140	 4.1210
 7.6260	 4.1410
 7.6370	 3.9580
 7.6480	 3.9880
 7.6590	 4.0850
 7.6710	 4.2480
 7.6820	 4.1700
 7.6930	 4.2590
 7.7050	 4.1980
 7.7160	 4.2030
 7.7280	 4.1910
 7.7390	 4.2600
 7.7510	 4.2080
 7.7630	 4.2690
 7.7740	 4.1560
 7.7860	 4.1910
 7.7980	 4.1420
 7.8090	 4.1210
 7.8210	 4.0490
 7.8330	 4.2010
 7.8450	 4.2670
 7.8570	 4.3330
 7.8690	 4.2070
 7.8810	 4.3430
 7.8930	 4.3090
 7.9050	 4.2760
 7.9170	 4.3030
 7.9290	 4.5790
 7.9410	 4.5020
 7.9530	 4.3940
 7.9650	 4.2450
 7.9780	 4.3910
 7.9900	 4.3690
 8.0020	 4.5640
 8.0150	 4.6950
 8.0270	 4.8900
 8.0390	 4.7300
 8.0520	 4.8880
 8.0640	 4.8550
 8.0770	 4.8120
 8.0900	 4.7210
 8.1020	 4.8390
 8.1150	 4.7090
 8.1280	 4.9260
 8.1400	 4.9270
 8.1530	 4.9090
 8.1660	 4.7740
 8.1790	 4.9290
 8.1920	 4.9050
 8.2050	 5.0830
 8.2180	 5.1150
 8.2310	 5.2110
 8.2440	 5.0230
 8.2570	 4.9690
 8.2700	 4.8570
 8.2830	 4.9190
 8.2970	 4.8270
 8.3100	 5.0870
 8.3230	 5.0980
 8.3370	 5.2830
 8.3500	 5.3160
 8.3640	 5.3390
 8.3770	 5.0660
 8.3910	 5.2520
 8.4040	 5.5210
 8.4180	 5.7230
 8.4320	 5.5580
 8.4450	 5.7440
 8.4590	 5.8050
 8.4730	 6.0070
 8.4870	 5.9750
 8.5010	 6.2600
 8.5150	 6.2540
 8.5290	 6.5060
 8.5430	 6.6160
 8.5570	 6.8220
 8.5710	 6.8160
 8.5850	 6.8290
 8.5990	 6.4490
 8.6140	 6.4370
 8.6280	 6.3330
 8.6420	 6.2510
 8.6570	 5.9780
 8.6710	 6.0190
 8.6860	 5.8700
 8.7000	 6.0290
 8.7150	 6.1240
 8.7300	 6.3350
 8.7440	 6.0690
 8.7590	 6.1230
 8.7740	 6.1450
 8.7890	 6.3620
 8.8040	 6.1710
 8.8190	 6.1950
 8.8340	 6.0070
 8.8490	 6.0760
 8.8640	 6.0300
 8.8790	 6.0860
 8.8940	 6.0280
 8.9100	 6.1120
 8.9250	 5.8590
 8.9400	 5.9180
 8.9560	 5.9140
 8.9710	 6.0570
 8.9870	 5.8800
 9.0020	 5.8030
 9.0180	 5.5260
 9.0340	 5.6090
 9.0500	 5.6330
 9.0650	 5.6290
 9.0810	 5.2340
 9.0970	 5.4140
 9.1130	 5.4850
 9.1290	 5.6930
 9.1450	 5.6060
 9.1610	 5.7400
 9.1780	 5.5290
 9.1940	 5.6060
 9.2100	 5.5800
 9.2270	 5.9400
 9.2430	 5.7430
 9.2600	 5.6820
 9.2760	 5.5360
 9.2930	 5.5260
 9.3090	 5.4840
 9.3260	 5.6690
 9.3430	 5.2600
 9.3600	 5.1660
 9.3770	 5.1480
 9.3940	 5.0740
 9.4110	 4.7430
 9.4280	 4.8540
 9.4450	 4.8250
 9.4620	 5.0390
 9.4800	 5.0030
 9.4970	 5.0140
 9.5140	 4.7870
 9.5320	 5.0120
 9.5500	 4.9310
 9.5670	 5.1120
 9.5850	 4.9620
 9.6030	 5.0040
 9.6200	 4.9340
 9.6380	 5.0400
 9.6560	 4.7740
 9.6740	 4.8440
 9.6920	 4.7330
 9.7100	 4.8260
 9.7290	 4.6820
 9.7470	 4.8340
 9.7650	 4.8610
 9.7840	 5.1280
 9.8020	 4.8420
 9.8210	 4.8360
 9.8390	 4.6980
 9.8580	 4.8090
 9.8770	 4.5570
 9.8960	 4.5260
 9.9150	 4.6070
 9.9340	 4.9090
 9.9530	 4.7090
 9.9720	 4.7950
 9.9910	 4.5660
10.0100	 4.6960
10.0300	 4.6430
10.0490	 4.7430
10.0690	 4.5260
10.0880	 4.4940
10.1080	 4.2080
10.1280	 4.5510
10.1480	 4.6670
10.1670	 4.6540
10.1870	 4.4730
10.2070	 4.7480
10.2280	 4.7820
10.2480	 4.9030
10.2680	 4.6870
10.2890	 4.8630
10.3090	 4.8060
10.3300	 4.8360
10.3500	 4.6770
10.3710	 4.7270
10.3920	 4.6110
10.4120	 4.6360
10.4330	 4.4900
10.4540	 4.6490
10.4760	 4.5450
10.4970	 4.6840
10.5180	 4.4810
10.5390	 4.6110
10.5610	 4.5740
10.5820	 4.8380
10.6040	 4.7400
10.6260	 4.6360
10.6480	 4.4510
10.6700	 4.6890
10.6920	 4.5950
10.7140	 4.7720
10.7360	 4.6890
10.7580	 4.8120
10.7800	 4.6120
10.8030	 4.7200
10.8250	 4.5700
10.8480	 4.6870
10.8710	 4.6170
10.8940	 4.9050
10.9170	 4.7040
10.9400	 4.7460
10.9630	 4.6910
10.9860	 4.7480
11.0090	 4.5260
11.0330	 4.8400
11.0560	 4.6100
11.0800	 4.4450
11.1040	 4.1850
11.1270	 4.3820
11.1510	 4.2520
11.1750	 4.4230
11.2000	 4.5250
11.2240	 4.7610
11.2480	 4.5700
11.2730	 3.5400
11.2970	 2.4770
11.3220	 4.0070
11.3470	 4.3080
11.3720	 4.4540
11.3970	 4.2110
11.4220	 4.1260
11.4470	 3.9940
11.4720	 4.3860
11.4980	 4.1640
11.5230	 4.4460
11.5490	 4.2990
11.5750	 4.3340
11.6000	 4.2780
11.6260	 4.4380
11.6530	 4.1730
11.6790	 4.2830
11.7050	 3.9180
11.7320	 4.3120
11.7580	 4.3250
11.7850	 4.2140
11.8120	 3.8850
11.8390	 4.1990
11.8660	 3.9350
11.8930	 3.9840
11.9200	 3.9330
11.9480	 4.1070
11.9760	 3.8320
12.0030	 4.2240
12.0310	 4.1080
12.0590	 4.2140
12.0870	 3.8300
12.1150	 3.9740
12.1440	 3.7200
12.1720	 3.8900
12.2010	 3.9000
12.2300	 4.0860
12.2590	 3.8480
12.2880	 4.1170
12.3170	 3.6980
12.3460	 3.7030
12.3760	 3.4340
12.4050	 3.8750
12.4350	 3.8840
12.4650	 4.1520
12.4950	 3.6650
12.5250	 3.6850
12.5550	 3.7100
12.5860	 4.0820
12.6170	 3.6210
12.6470	 3.8540
12.6780	 3.7460
12.7090	 4.0550
12.7410	 3.8640
12.7720	 3.7580
12.8030	 3.4440
12.8350	 3.7710
12.8670	 3.5600
12.8990	 3.7740
12.9310	 3.4020
12.9640	 3.4540
12.9960	 3.1460
13.0290	 3.5340
13.0610	 3.4070
13.0940	 3.5820
13.1280	 3.3330
13.1610	 3.5150
13.1940	 3.2270
13.2280	 3.6150
13.2620	 3.3430
13.2960	 3.5230
13.3300	 3.3050
13.3640	 3.6520
13.3990	 3.0570
13.4340	 2.9240
13.4690	 2.6610
13.5040	 3.0000
13.5390	 2.6790
13.5740	 2.9640
13.6100	 2.6860
13.6460	 3.0670
13.6820	 2.8510
13.7180	 3.1260
13.7540	 3.1300
13.7910	 3.4220
13.8280	 2.9270
13.8650	 3.1040
13.9020	 2.6510
13.9390	 2.9480
13.9770	 2.7420
14.0150	 3.2010
14.0530	 2.7660
14.0910	 3.3490
14.1290	 3.1200
14.1680	 3.3210
14.2070	 2.8660
14.2460	 3.0650
14.2850	 2.6060
14.3240	 3.2150
14.3640	 2.9690
14.4040	 3.3930
14.4440	 2.5900
14.4840	 3.0540
14.5250	 2.7320
14.5660	 3.2710
14.6070	 2.7660
14.6480	 3.2030
14.6900	 2.1630
14.7310	 2.2710
14.7730	 2.0800
14.8150	 2.7780
14.8580	 2.4510
14.9010	 3.3900
14.9440	 3.0840
14.9870	 3.4110
15.0300	 2.2880
15.0740	 3.3460
15.1180	 2.8480
15.1620	 3.0310
15.2060	 2.1580
15.2510	 2.9850
15.2960	 2.6470
15.3410	 2.5220
15.3870	 1.9740
