Name: Baccharis pilularis 2
Type: vegetation
Class: Shrub
Genus: Baccharis
Species: pilularis
Sample No.: VH124
Owner: UCSB
Wavelength Range: TIR
Origin: 34.5084; -119.7683; WGS84
Collection Date: 6/3/2013
Description: Samples were collected as part of the HyspIRI Airborne Campaign. 48 individual plants were sampled in three times in 2013 - spring  summer  and fall. The name of the sample includes a 1  2  or 3 which references a different individual of the species. Samples were taken to JPL and processed within 48 hours of collection. The same leaves were processed in the Nicolet and then measured using the ASD.
Measurement: Hemispherical reflectance
First Column: X
Second Column: Y
X Units: Wavelength (micrometers)
Y Units: Reflectance (percentage)
First X Value: 2.501
Last X Value: 15.387
Number of X Values: 1737
Additional Information: vegetation.shrub.baccharis.pilularis.tir.vh124.ucsb.nicolet.ancillary.txt

 2.5010	 6.9490
 2.5030	 6.8260
 2.5040	 6.8250
 2.5050	 6.8830
 2.5060	 7.0420
 2.5070	 7.0340
 2.5090	 6.9480
 2.5100	 6.8540
 2.5110	 6.9400
 2.5120	 6.8540
 2.5140	 6.7750
 2.5150	 6.8090
 2.5160	 6.9240
 2.5170	 6.9900
 2.5180	 7.0550
 2.5200	 6.9480
 2.5210	 6.8170
 2.5220	 6.7590
 2.5230	 6.9250
 2.5250	 6.9700
 2.5260	 7.0090
 2.5270	 6.9720
 2.5280	 6.9380
 2.5290	 6.8500
 2.5310	 6.8270
 2.5320	 6.8990
 2.5330	 6.9450
 2.5340	 6.8290
 2.5360	 6.8070
 2.5370	 6.8480
 2.5380	 6.7570
 2.5390	 6.6890
 2.5410	 6.8040
 2.5420	 6.8520
 2.5430	 6.9120
 2.5440	 6.9940
 2.5460	 7.0330
 2.5470	 6.9120
 2.5480	 6.8950
 2.5490	 6.8990
 2.5510	 6.8930
 2.5520	 6.8560
 2.5530	 6.9310
 2.5540	 6.8650
 2.5560	 6.9130
 2.5570	 6.9310
 2.5580	 7.0200
 2.5590	 7.0410
 2.5610	 7.0400
 2.5620	 6.9360
 2.5630	 6.9890
 2.5640	 6.9510
 2.5660	 6.8690
 2.5670	 6.8850
 2.5680	 7.0100
 2.5700	 6.9480
 2.5710	 6.9650
 2.5720	 6.9540
 2.5730	 6.9900
 2.5750	 7.0160
 2.5760	 7.0530
 2.5770	 7.0460
 2.5790	 7.0670
 2.5800	 6.9600
 2.5810	 6.9510
 2.5820	 6.9430
 2.5840	 6.9660
 2.5850	 6.9660
 2.5860	 7.0490
 2.5880	 7.0440
 2.5890	 6.9960
 2.5900	 6.8790
 2.5910	 6.8950
 2.5930	 6.9390
 2.5940	 7.0220
 2.5950	 6.9800
 2.5970	 6.9790
 2.5980	 6.9630
 2.5990	 6.9420
 2.6000	 6.8800
 2.6020	 6.9130
 2.6030	 6.8990
 2.6040	 6.8630
 2.6060	 6.7790
 2.6070	 6.8400
 2.6080	 6.8790
 2.6100	 6.8020
 2.6110	 6.7450
 2.6120	 6.7510
 2.6140	 6.7190
 2.6150	 6.8870
 2.6160	 6.9140
 2.6180	 6.8470
 2.6190	 6.8040
 2.6200	 6.8790
 2.6220	 6.8860
 2.6230	 6.9150
 2.6240	 6.7980
 2.6260	 6.7460
 2.6270	 6.7260
 2.6280	 6.8150
 2.6300	 6.7650
 2.6310	 6.6930
 2.6320	 6.7780
 2.6340	 6.8670
 2.6350	 6.7700
 2.6360	 6.7810
 2.6380	 6.7080
 2.6390	 6.6890
 2.6400	 6.6490
 2.6420	 6.6440
 2.6430	 6.5760
 2.6440	 6.6590
 2.6460	 6.6320
 2.6470	 6.6640
 2.6480	 6.6390
 2.6500	 6.5890
 2.6510	 6.4440
 2.6520	 6.4450
 2.6540	 6.5040
 2.6550	 6.6200
 2.6560	 6.6430
 2.6580	 6.5910
 2.6590	 6.5260
 2.6610	 6.5910
 2.6620	 6.5360
 2.6630	 6.5110
 2.6650	 6.4980
 2.6660	 6.4790
 2.6670	 6.4020
 2.6690	 6.4610
 2.6700	 6.5330
 2.6720	 6.5540
 2.6730	 6.4190
 2.6740	 6.5910
 2.6760	 6.7380
 2.6770	 6.6860
 2.6780	 6.5180
 2.6800	 6.4500
 2.6810	 6.3340
 2.6830	 6.3420
 2.6840	 6.3530
 2.6850	 6.3750
 2.6870	 6.3040
 2.6880	 6.3520
 2.6900	 6.3390
 2.6910	 6.3770
 2.6920	 6.3430
 2.6940	 6.3680
 2.6950	 6.3180
 2.6970	 6.2690
 2.6980	 6.1730
 2.6990	 6.2380
 2.7010	 6.2690
 2.7020	 6.2970
 2.7040	 6.2990
 2.7050	 6.2750
 2.7060	 6.1480
 2.7080	 6.1360
 2.7090	 6.0840
 2.7110	 6.0420
 2.7120	 5.9370
 2.7130	 5.9470
 2.7150	 6.0270
 2.7160	 6.0130
 2.7180	 5.9260
 2.7190	 5.9870
 2.7210	 5.9080
 2.7220	 5.9330
 2.7230	 5.8730
 2.7250	 5.8100
 2.7260	 5.7380
 2.7280	 5.8180
 2.7290	 5.6850
 2.7310	 5.5950
 2.7320	 5.6290
 2.7330	 5.7560
 2.7350	 5.6990
 2.7360	 5.6100
 2.7380	 5.5510
 2.7390	 5.5400
 2.7410	 5.5320
 2.7420	 5.6510
 2.7440	 5.5290
 2.7450	 5.4900
 2.7470	 5.4300
 2.7480	 5.4010
 2.7490	 5.2830
 2.7510	 5.2320
 2.7520	 5.1450
 2.7540	 5.1620
 2.7550	 5.1760
 2.7570	 5.1880
 2.7580	 5.0550
 2.7600	 5.0740
 2.7610	 5.0840
 2.7630	 5.2060
 2.7640	 5.1290
 2.7660	 5.0290
 2.7670	 5.0170
 2.7680	 5.0460
 2.7700	 5.0230
 2.7710	 5.0380
 2.7730	 4.9320
 2.7740	 4.9340
 2.7760	 4.8580
 2.7770	 4.8630
 2.7790	 4.8610
 2.7800	 4.8610
 2.7820	 4.8680
 2.7830	 4.9100
 2.7850	 4.8710
 2.7860	 4.8910
 2.7880	 4.8400
 2.7890	 4.8240
 2.7910	 4.7310
 2.7920	 4.7170
 2.7940	 4.6860
 2.7950	 4.7270
 2.7970	 4.6800
 2.7980	 4.6800
 2.8000	 4.5750
 2.8010	 4.5640
 2.8030	 4.5520
 2.8040	 4.6520
 2.8060	 4.7120
 2.8070	 4.8040
 2.8090	 4.7540
 2.8110	 4.6370
 2.8120	 4.6220
 2.8140	 4.5890
 2.8150	 4.4760
 2.8170	 4.5480
 2.8180	 4.5770
 2.8200	 4.6020
 2.8210	 4.5610
 2.8230	 4.6190
 2.8240	 4.6290
 2.8260	 4.6420
 2.8270	 4.6100
 2.8290	 4.6250
 2.8300	 4.4940
 2.8320	 4.5650
 2.8340	 4.5680
 2.8350	 4.5300
 2.8370	 4.4940
 2.8380	 4.5400
 2.8400	 4.4290
 2.8410	 4.4580
 2.8430	 4.5150
 2.8440	 4.5590
 2.8460	 4.4660
 2.8480	 4.5110
 2.8490	 4.4970
 2.8510	 4.4530
 2.8520	 4.4300
 2.8540	 4.5290
 2.8550	 4.4890
 2.8570	 4.4280
 2.8590	 4.3970
 2.8600	 4.3890
 2.8620	 4.3280
 2.8630	 4.4320
 2.8650	 4.4800
 2.8660	 4.4540
 2.8680	 4.4210
 2.8700	 4.3950
 2.8710	 4.3250
 2.8730	 4.4220
 2.8740	 4.4810
 2.8760	 4.5620
 2.8780	 4.5020
 2.8790	 4.4560
 2.8810	 4.4630
 2.8820	 4.4890
 2.8840	 4.3830
 2.8860	 4.4480
 2.8870	 4.3890
 2.8890	 4.3350
 2.8900	 4.3940
 2.8920	 4.5440
 2.8940	 4.4680
 2.8950	 4.4080
 2.8970	 4.3980
 2.8980	 4.3440
 2.9000	 4.3300
 2.9020	 4.3990
 2.9030	 4.3350
 2.9050	 4.4440
 2.9070	 4.4130
 2.9080	 4.2980
 2.9100	 4.2560
 2.9120	 4.3670
 2.9130	 4.3640
 2.9150	 4.3930
 2.9160	 4.4240
 2.9180	 4.5840
 2.9200	 4.5540
 2.9210	 4.5250
 2.9230	 4.5100
 2.9250	 4.5020
 2.9260	 4.4070
 2.9280	 4.2460
 2.9300	 4.1840
 2.9310	 4.3330
 2.9330	 4.3660
 2.9350	 4.4180
 2.9360	 4.4580
 2.9380	 4.5200
 2.9400	 4.3420
 2.9410	 4.3530
 2.9430	 4.3690
 2.9450	 4.4510
 2.9460	 4.4740
 2.9480	 4.4940
 2.9500	 4.4650
 2.9510	 4.5090
 2.9530	 4.4690
 2.9550	 4.5020
 2.9560	 4.4420
 2.9580	 4.5630
 2.9600	 4.6050
 2.9610	 4.5240
 2.9630	 4.4500
 2.9650	 4.5520
 2.9660	 4.4870
 2.9680	 4.4620
 2.9700	 4.4250
 2.9720	 4.4680
 2.9730	 4.4940
 2.9750	 4.4490
 2.9770	 4.3970
 2.9780	 4.3920
 2.9800	 4.3480
 2.9820	 4.4490
 2.9840	 4.4010
 2.9850	 4.3740
 2.9870	 4.4380
 2.9890	 4.5880
 2.9900	 4.5670
 2.9920	 4.5850
 2.9940	 4.5710
 2.9960	 4.5470
 2.9970	 4.5760
 2.9990	 4.6180
 3.0010	 4.5440
 3.0030	 4.6370
 3.0040	 4.5830
 3.0060	 4.5730
 3.0080	 4.5660
 3.0100	 4.5600
 3.0110	 4.4720
 3.0130	 4.5040
 3.0150	 4.4150
 3.0170	 4.3620
 3.0180	 4.4410
 3.0200	 4.6100
 3.0220	 4.5770
 3.0240	 4.5190
 3.0250	 4.5020
 3.0270	 4.6480
 3.0290	 4.5700
 3.0310	 4.4050
 3.0320	 4.3450
 3.0340	 4.4090
 3.0360	 4.4280
 3.0380	 4.5460
 3.0400	 4.5160
 3.0410	 4.5690
 3.0430	 4.5720
 3.0450	 4.5280
 3.0470	 4.4900
 3.0480	 4.5910
 3.0500	 4.6160
 3.0520	 4.6310
 3.0540	 4.5750
 3.0560	 4.7080
 3.0570	 4.7650
 3.0590	 4.7070
 3.0610	 4.6820
 3.0630	 4.7180
 3.0650	 4.5840
 3.0660	 4.5890
 3.0680	 4.6180
 3.0700	 4.6040
 3.0720	 4.5470
 3.0740	 4.6110
 3.0760	 4.6160
 3.0770	 4.6800
 3.0790	 4.6810
 3.0810	 4.6740
 3.0830	 4.6110
 3.0850	 4.6550
 3.0870	 4.6420
 3.0880	 4.7230
 3.0900	 4.7290
 3.0920	 4.7490
 3.0940	 4.8070
 3.0960	 4.7530
 3.0980	 4.6860
 3.0990	 4.6590
 3.1010	 4.6840
 3.1030	 4.7380
 3.1050	 4.6570
 3.1070	 4.6690
 3.1090	 4.7840
 3.1110	 4.8790
 3.1120	 4.8050
 3.1140	 4.7750
 3.1160	 4.6560
 3.1180	 4.6810
 3.1200	 4.7180
 3.1220	 4.8110
 3.1240	 4.7890
 3.1260	 4.7760
 3.1270	 4.7710
 3.1290	 4.7740
 3.1310	 4.7240
 3.1330	 4.7360
 3.1350	 4.7300
 3.1370	 4.7000
 3.1390	 4.6030
 3.1410	 4.6930
 3.1430	 4.7650
 3.1450	 4.7290
 3.1460	 4.7640
 3.1480	 4.8090
 3.1500	 4.7810
 3.1520	 4.7950
 3.1540	 4.7650
 3.1560	 4.8860
 3.1580	 4.8960
 3.1600	 4.8870
 3.1620	 4.9010
 3.1640	 4.9140
 3.1660	 4.8170
 3.1680	 4.8580
 3.1700	 4.8760
 3.1710	 4.8150
 3.1730	 4.7320
 3.1750	 4.7720
 3.1770	 4.7760
 3.1790	 4.9170
 3.1810	 4.9640
 3.1830	 4.9700
 3.1850	 4.9590
 3.1870	 4.9070
 3.1890	 4.8990
 3.1910	 4.9550
 3.1930	 4.8980
 3.1950	 4.9630
 3.1970	 4.9840
 3.1990	 4.9580
 3.2010	 4.9330
 3.2030	 4.9910
 3.2050	 4.9570
 3.2070	 5.0180
 3.2090	 5.0400
 3.2110	 5.0420
 3.2130	 4.9640
 3.2150	 4.9560
 3.2170	 5.0180
 3.2190	 5.0150
 3.2210	 4.9720
 3.2230	 5.0620
 3.2250	 5.0130
 3.2270	 4.9830
 3.2290	 5.0410
 3.2310	 5.1440
 3.2330	 5.0840
 3.2350	 5.1150
 3.2370	 5.0580
 3.2390	 5.0710
 3.2410	 5.1000
 3.2430	 5.1860
 3.2450	 5.1870
 3.2470	 5.1080
 3.2490	 5.0290
 3.2510	 5.0910
 3.2530	 5.0810
 3.2550	 5.1270
 3.2570	 5.1360
 3.2590	 5.1420
 3.2610	 5.1610
 3.2630	 5.1710
 3.2650	 5.0850
 3.2670	 5.0180
 3.2690	 5.0710
 3.2720	 5.2450
 3.2740	 5.2390
 3.2760	 5.2140
 3.2780	 5.1940
 3.2800	 5.1100
 3.2820	 5.0000
 3.2840	 5.0480
 3.2860	 5.1320
 3.2880	 5.1740
 3.2900	 5.1560
 3.2920	 5.1930
 3.2940	 5.2300
 3.2960	 5.2360
 3.2990	 5.1540
 3.3010	 5.1540
 3.3030	 5.1350
 3.3050	 5.1170
 3.3070	 5.1380
 3.3090	 5.2510
 3.3110	 5.2420
 3.3130	 5.1820
 3.3150	 5.0750
 3.3180	 5.0960
 3.3200	 5.1030
 3.3220	 5.1490
 3.3240	 5.1580
 3.3260	 5.1540
 3.3280	 5.0420
 3.3300	 4.9690
 3.3330	 4.9270
 3.3350	 4.9850
 3.3370	 4.9790
 3.3390	 4.9900
 3.3410	 4.9290
 3.3430	 4.9400
 3.3450	 4.8530
 3.3480	 4.9020
 3.3500	 4.8730
 3.3520	 4.8190
 3.3540	 4.8390
 3.3560	 4.8270
 3.3580	 4.7680
 3.3610	 4.7620
 3.3630	 4.7390
 3.3650	 4.7780
 3.3670	 4.8130
 3.3690	 4.7820
 3.3720	 4.6730
 3.3740	 4.7300
 3.3760	 4.8110
 3.3780	 4.7940
 3.3800	 4.7850
 3.3830	 4.8600
 3.3850	 4.8280
 3.3870	 4.7660
 3.3890	 4.6660
 3.3910	 4.6360
 3.3940	 4.5540
 3.3960	 4.5500
 3.3980	 4.5000
 3.4000	 4.4890
 3.4020	 4.6060
 3.4050	 4.7990
 3.4070	 4.9370
 3.4090	 5.1070
 3.4110	 5.2690
 3.4140	 5.4480
 3.4160	 5.7140
 3.4180	 6.2290
 3.4200	 6.8080
 3.4230	 7.4510
 3.4250	 8.1670
 3.4270	 8.8970
 3.4290	 9.2290
 3.4320	 8.7440
 3.4340	 7.8890
 3.4360	 7.2070
 3.4390	 6.6750
 3.4410	 6.3750
 3.4430	 6.1710
 3.4450	 6.0290
 3.4480	 5.9650
 3.4500	 5.9010
 3.4520	 5.8420
 3.4550	 5.8650
 3.4570	 5.7870
 3.4590	 5.7130
 3.4620	 5.7150
 3.4640	 5.6920
 3.4660	 5.5830
 3.4680	 5.5280
 3.4710	 5.4590
 3.4730	 5.4090
 3.4750	 5.3850
 3.4780	 5.4100
 3.4800	 5.3330
 3.4820	 5.2730
 3.4850	 5.2250
 3.4870	 5.2950
 3.4890	 5.2120
 3.4920	 5.1750
 3.4940	 5.2370
 3.4970	 5.3440
 3.4990	 5.3800
 3.5010	 5.5470
 3.5040	 5.8830
 3.5060	 6.6060
 3.5080	 7.8090
 3.5110	 8.7950
 3.5130	 8.5500
 3.5160	 7.6940
 3.5180	 6.9930
 3.5200	 6.6490
 3.5230	 6.4490
 3.5250	 6.3280
 3.5270	 6.2490
 3.5300	 6.1860
 3.5320	 6.0640
 3.5350	 6.0450
 3.5370	 6.0280
 3.5400	 6.0270
 3.5420	 6.0020
 3.5440	 6.0090
 3.5470	 6.0070
 3.5490	 6.0820
 3.5520	 6.0880
 3.5540	 6.0900
 3.5570	 6.0770
 3.5590	 6.0590
 3.5610	 6.0000
 3.5640	 5.9510
 3.5660	 5.9640
 3.5690	 5.9990
 3.5710	 5.9720
 3.5740	 6.0320
 3.5760	 6.0720
 3.5790	 6.0670
 3.5810	 5.9960
 3.5840	 5.9850
 3.5860	 5.9820
 3.5890	 5.9560
 3.5910	 6.0000
 3.5930	 6.0470
 3.5960	 6.0550
 3.5980	 6.0190
 3.6010	 5.9590
 3.6030	 5.9770
 3.6060	 6.0240
 3.6080	 6.0120
 3.6110	 5.9590
 3.6140	 5.9450
 3.6160	 5.9450
 3.6190	 5.9650
 3.6210	 5.9750
 3.6240	 5.9800
 3.6260	 5.9590
 3.6290	 5.9870
 3.6310	 6.0140
 3.6340	 6.0310
 3.6360	 6.0410
 3.6390	 6.0540
 3.6410	 6.0110
 3.6440	 5.9500
 3.6470	 5.9420
 3.6490	 6.0060
 3.6520	 6.0070
 3.6540	 5.9210
 3.6570	 5.8460
 3.6590	 5.9520
 3.6620	 5.9950
 3.6650	 6.0080
 3.6670	 6.0400
 3.6700	 6.0270
 3.6720	 5.8960
 3.6750	 5.9270
 3.6780	 5.9900
 3.6800	 5.9780
 3.6830	 5.9670
 3.6850	 5.9830
 3.6880	 5.9880
 3.6910	 5.9710
 3.6930	 5.9210
 3.6960	 5.9940
 3.6990	 6.0160
 3.7010	 6.0180
 3.7040	 5.9650
 3.7060	 6.0380
 3.7090	 6.0840
 3.7120	 6.0590
 3.7140	 5.9870
 3.7170	 5.9710
 3.7200	 5.9920
 3.7220	 6.0370
 3.7250	 6.0670
 3.7280	 6.1220
 3.7300	 6.1000
 3.7330	 6.0570
 3.7360	 6.0160
 3.7390	 6.0170
 3.7410	 6.0020
 3.7440	 6.0770
 3.7470	 6.0950
 3.7490	 6.0680
 3.7520	 5.9950
 3.7550	 6.0300
 3.7580	 6.1070
 3.7600	 6.1450
 3.7630	 6.0510
 3.7660	 6.0660
 3.7680	 6.0950
 3.7710	 6.1300
 3.7740	 6.1170
 3.7770	 6.0640
 3.7790	 6.0570
 3.7820	 6.1630
 3.7850	 6.1950
 3.7880	 6.1570
 3.7900	 6.0910
 3.7930	 6.1300
 3.7960	 6.2230
 3.7990	 6.2730
 3.8020	 6.2730
 3.8040	 6.2370
 3.8070	 6.1970
 3.8100	 6.2180
 3.8130	 6.2360
 3.8160	 6.2500
 3.8180	 6.2370
 3.8210	 6.2670
 3.8240	 6.1760
 3.8270	 6.2140
 3.8300	 6.2970
 3.8330	 6.2500
 3.8350	 6.2010
 3.8380	 6.2460
 3.8410	 6.2270
 3.8440	 6.1770
 3.8470	 6.2470
 3.8500	 6.3250
 3.8520	 6.3110
 3.8550	 6.2830
 3.8580	 6.2870
 3.8610	 6.3080
 3.8640	 6.2630
 3.8670	 6.2570
 3.8700	 6.2700
 3.8730	 6.3040
 3.8750	 6.3470
 3.8780	 6.3110
 3.8810	 6.2560
 3.8840	 6.2610
 3.8870	 6.2520
 3.8900	 6.2810
 3.8930	 6.2300
 3.8960	 6.2220
 3.8990	 6.2980
 3.9020	 6.3270
 3.9050	 6.2950
 3.9080	 6.2870
 3.9110	 6.2950
 3.9140	 6.2820
 3.9160	 6.2840
 3.9190	 6.2970
 3.9220	 6.2650
 3.9250	 6.2460
 3.9280	 6.2400
 3.9310	 6.3020
 3.9340	 6.2840
 3.9370	 6.2700
 3.9400	 6.2500
 3.9430	 6.2520
 3.9460	 6.2190
 3.9490	 6.2210
 3.9520	 6.2280
 3.9550	 6.3040
 3.9580	 6.3110
 3.9610	 6.3140
 3.9640	 6.2970
 3.9670	 6.2450
 3.9700	 6.2360
 3.9730	 6.2570
 3.9770	 6.2520
 3.9800	 6.2960
 3.9830	 6.3320
 3.9860	 6.3130
 3.9890	 6.2940
 3.9920	 6.2990
 3.9950	 6.3460
 3.9980	 6.4150
 4.0010	 6.3620
 4.0040	 6.3160
 4.0070	 6.3330
 4.0100	 6.3890
 4.0130	 6.3730
 4.0170	 6.3800
 4.0200	 6.3770
 4.0230	 6.3610
 4.0260	 6.3500
 4.0290	 6.3200
 4.0320	 6.3210
 4.0350	 6.4190
 4.0380	 6.4120
 4.0420	 6.3650
 4.0450	 6.3870
 4.0480	 6.3820
 4.0510	 6.2960
 4.0540	 6.3040
 4.0570	 6.3600
 4.0610	 6.3570
 4.0640	 6.3750
 4.0670	 6.3910
 4.0700	 6.3380
 4.0730	 6.3470
 4.0770	 6.4280
 4.0800	 6.4470
 4.0830	 6.3960
 4.0860	 6.4360
 4.0890	 6.4740
 4.0930	 6.4690
 4.0960	 6.4640
 4.0990	 6.4430
 4.1020	 6.4350
 4.1060	 6.3760
 4.1090	 6.4070
 4.1120	 6.4040
 4.1150	 6.3780
 4.1190	 6.4150
 4.1220	 6.4080
 4.1250	 6.4260
 4.1280	 6.4240
 4.1320	 6.3890
 4.1350	 6.3590
 4.1380	 6.4090
 4.1420	 6.4290
 4.1450	 6.4070
 4.1480	 6.4260
 4.1520	 6.4330
 4.1550	 6.4040
 4.1580	 6.4260
 4.1620	 6.4840
 4.1650	 6.4870
 4.1680	 6.4340
 4.1720	 6.4740
 4.1750	 6.5480
 4.1780	 6.4700
 4.1820	 6.4140
 4.1850	 6.4770
 4.1890	 6.5320
 4.1920	 6.5280
 4.1950	 6.4840
 4.1990	 6.4610
 4.2020	 6.4270
 4.2060	 6.4140
 4.2090	 6.4500
 4.2120	 6.4020
 4.2160	 6.4120
 4.2190	 6.4000
 4.2230	 6.3550
 4.2260	 6.4210
 4.2300	 6.5240
 4.2330	 6.5980
 4.2360	 6.5220
 4.2400	 6.4430
 4.2430	 6.4500
 4.2470	 6.4500
 4.2500	 6.4150
 4.2540	 6.3780
 4.2570	 6.3510
 4.2610	 6.4500
 4.2640	 6.5440
 4.2680	 6.5560
 4.2710	 6.5410
 4.2750	 6.5650
 4.2780	 6.6020
 4.2820	 6.5680
 4.2850	 6.5050
 4.2890	 6.4790
 4.2930	 6.5020
 4.2960	 6.5400
 4.3000	 6.4360
 4.3030	 6.3500
 4.3070	 6.3810
 4.3100	 6.4980
 4.3140	 6.5780
 4.3180	 6.5610
 4.3210	 6.5400
 4.3250	 6.5260
 4.3280	 6.5380
 4.3320	 6.5240
 4.3360	 6.5040
 4.3390	 6.4980
 4.3430	 6.4600
 4.3470	 6.4090
 4.3500	 6.4480
 4.3540	 6.4820
 4.3570	 6.4790
 4.3610	 6.4620
 4.3650	 6.4650
 4.3680	 6.4700
 4.3720	 6.5160
 4.3760	 6.5120
 4.3800	 6.4550
 4.3830	 6.4070
 4.3870	 6.4500
 4.3910	 6.4910
 4.3940	 6.4410
 4.3980	 6.3860
 4.4020	 6.3930
 4.4060	 6.4690
 4.4090	 6.4830
 4.4130	 6.4220
 4.4170	 6.3950
 4.4210	 6.4260
 4.4240	 6.4730
 4.4280	 6.4710
 4.4320	 6.4520
 4.4360	 6.4230
 4.4400	 6.4330
 4.4430	 6.4290
 4.4470	 6.4140
 4.4510	 6.4180
 4.4550	 6.4100
 4.4590	 6.3850
 4.4620	 6.4090
 4.4660	 6.4650
 4.4700	 6.4570
 4.4740	 6.4090
 4.4780	 6.4290
 4.4820	 6.4280
 4.4860	 6.4330
 4.4900	 6.4270
 4.4930	 6.3880
 4.4970	 6.3770
 4.5010	 6.3820
 4.5050	 6.4040
 4.5090	 6.4130
 4.5130	 6.4190
 4.5170	 6.4070
 4.5210	 6.4000
 4.5250	 6.4240
 4.5290	 6.3770
 4.5330	 6.3820
 4.5370	 6.3840
 4.5410	 6.3990
 4.5450	 6.3940
 4.5490	 6.3940
 4.5530	 6.3830
 4.5570	 6.3630
 4.5610	 6.3790
 4.5650	 6.3650
 4.5690	 6.3190
 4.5730	 6.3560
 4.5770	 6.3530
 4.5810	 6.3210
 4.5850	 6.3140
 4.5890	 6.3740
 4.5930	 6.3800
 4.5970	 6.3850
 4.6010	 6.4030
 4.6050	 6.3790
 4.6090	 6.3570
 4.6130	 6.3040
 4.6170	 6.2740
 4.6220	 6.2460
 4.6260	 6.2800
 4.6300	 6.3310
 4.6340	 6.3130
 4.6380	 6.2790
 4.6420	 6.2810
 4.6460	 6.3440
 4.6510	 6.3860
 4.6550	 6.3830
 4.6590	 6.3110
 4.6630	 6.2490
 4.6670	 6.3020
 4.6720	 6.3570
 4.6760	 6.2610
 4.6800	 6.2170
 4.6840	 6.2340
 4.6880	 6.2430
 4.6930	 6.2730
 4.6970	 6.2970
 4.7010	 6.2950
 4.7050	 6.2850
 4.7100	 6.2630
 4.7140	 6.2550
 4.7180	 6.2530
 4.7230	 6.2670
 4.7270	 6.2620
 4.7310	 6.2540
 4.7360	 6.2750
 4.7400	 6.2500
 4.7440	 6.1950
 4.7490	 6.2080
 4.7530	 6.2210
 4.7570	 6.2860
 4.7620	 6.2990
 4.7660	 6.2900
 4.7700	 6.3060
 4.7750	 6.3300
 4.7790	 6.2700
 4.7840	 6.2660
 4.7880	 6.3140
 4.7920	 6.3290
 4.7970	 6.3250
 4.8010	 6.3590
 4.8060	 6.3320
 4.8100	 6.2980
 4.8150	 6.2910
 4.8190	 6.2930
 4.8240	 6.2850
 4.8280	 6.3420
 4.8330	 6.2870
 4.8370	 6.2800
 4.8420	 6.3500
 4.8460	 6.4160
 4.8510	 6.4270
 4.8550	 6.3610
 4.8600	 6.2970
 4.8640	 6.3100
 4.8690	 6.3000
 4.8730	 6.3570
 4.8780	 6.3300
 4.8830	 6.2490
 4.8870	 6.2770
 4.8920	 6.3620
 4.8960	 6.3420
 4.9010	 6.2710
 4.9060	 6.3390
 4.9100	 6.3740
 4.9150	 6.3040
 4.9200	 6.3130
 4.9240	 6.3550
 4.9290	 6.4040
 4.9340	 6.4010
 4.9380	 6.3760
 4.9430	 6.3410
 4.9480	 6.3600
 4.9530	 6.3540
 4.9570	 6.3690
 4.9620	 6.4160
 4.9670	 6.4380
 4.9720	 6.4140
 4.9760	 6.4280
 4.9810	 6.4080
 4.9860	 6.3840
 4.9910	 6.3690
 4.9960	 6.4190
 5.0000	 6.3870
 5.0050	 6.3740
 5.0100	 6.3530
 5.0150	 6.3490
 5.0200	 6.3820
 5.0250	 6.4350
 5.0290	 6.4150
 5.0340	 6.4620
 5.0390	 6.4450
 5.0440	 6.3930
 5.0490	 6.3700
 5.0540	 6.4180
 5.0590	 6.4100
 5.0640	 6.4050
 5.0690	 6.4150
 5.0740	 6.4090
 5.0790	 6.4050
 5.0840	 6.4150
 5.0890	 6.3780
 5.0940	 6.3830
 5.0990	 6.3620
 5.1040	 6.3570
 5.1090	 6.2910
 5.1140	 6.3380
 5.1190	 6.4000
 5.1240	 6.4510
 5.1290	 6.4670
 5.1340	 6.4760
 5.1390	 6.4770
 5.1440	 6.4500
 5.1490	 6.4140
 5.1540	 6.5000
 5.1600	 6.5230
 5.1650	 6.5010
 5.1700	 6.4900
 5.1750	 6.5130
 5.1800	 6.4930
 5.1850	 6.4450
 5.1910	 6.4170
 5.1960	 6.4360
 5.2010	 6.3840
 5.2060	 6.4050
 5.2110	 6.4500
 5.2170	 6.4480
 5.2220	 6.4110
 5.2270	 6.4520
 5.2320	 6.4190
 5.2380	 6.3950
 5.2430	 6.4190
 5.2480	 6.4060
 5.2540	 6.3720
 5.2590	 6.3990
 5.2640	 6.4210
 5.2700	 6.4590
 5.2750	 6.4060
 5.2800	 6.3950
 5.2860	 6.3680
 5.2910	 6.4410
 5.2970	 6.4740
 5.3020	 6.4780
 5.3070	 6.4290
 5.3130	 6.4050
 5.3180	 6.3700
 5.3240	 6.3270
 5.3290	 6.2860
 5.3350	 6.3410
 5.3400	 6.3690
 5.3460	 6.3520
 5.3510	 6.3730
 5.3570	 6.4080
 5.3620	 6.3000
 5.3680	 6.2710
 5.3730	 6.2820
 5.3790	 6.2940
 5.3850	 6.3300
 5.3900	 6.3680
 5.3960	 6.3100
 5.4010	 6.3260
 5.4070	 6.3100
 5.4130	 6.2820
 5.4180	 6.2620
 5.4240	 6.2850
 5.4300	 6.3080
 5.4350	 6.2920
 5.4410	 6.2010
 5.4470	 6.2080
 5.4530	 6.1870
 5.4580	 6.2270
 5.4640	 6.1600
 5.4700	 6.1110
 5.4760	 6.1060
 5.4810	 6.1550
 5.4870	 6.1560
 5.4930	 6.1110
 5.4990	 6.0480
 5.5050	 6.0960
 5.5110	 6.0760
 5.5160	 6.0680
 5.5220	 6.0180
 5.5280	 6.0050
 5.5340	 5.9470
 5.5400	 5.9530
 5.5460	 5.9060
 5.5520	 5.8580
 5.5580	 5.8590
 5.5640	 5.9010
 5.5700	 5.8750
 5.5760	 5.8960
 5.5820	 5.8200
 5.5880	 5.7690
 5.5940	 5.7460
 5.6000	 5.7350
 5.6060	 5.6090
 5.6120	 5.5770
 5.6180	 5.5690
 5.6240	 5.5180
 5.6300	 5.4320
 5.6360	 5.3690
 5.6420	 5.3150
 5.6490	 5.2690
 5.6550	 5.1250
 5.6610	 5.0410
 5.6670	 4.8950
 5.6730	 4.7880
 5.6800	 4.6210
 5.6860	 4.5480
 5.6920	 4.4490
 5.6980	 4.3410
 5.7040	 4.1950
 5.7110	 4.2030
 5.7170	 4.2010
 5.7230	 4.1700
 5.7300	 4.0800
 5.7360	 4.0810
 5.7420	 4.0660
 5.7490	 4.1020
 5.7550	 4.1050
 5.7620	 4.1310
 5.7680	 4.2550
 5.7740	 4.4000
 5.7810	 4.4300
 5.7870	 4.5400
 5.7940	 4.5810
 5.8000	 4.6650
 5.8070	 4.7050
 5.8130	 4.7910
 5.8200	 4.9000
 5.8260	 4.9920
 5.8330	 5.0270
 5.8390	 5.1410
 5.8460	 5.2230
 5.8530	 5.3030
 5.8590	 5.3180
 5.8660	 5.4360
 5.8720	 5.5490
 5.8790	 5.5930
 5.8860	 5.5890
 5.8920	 5.6740
 5.8990	 5.6150
 5.9060	 5.5990
 5.9130	 5.6050
 5.9190	 5.7190
 5.9260	 5.7290
 5.9330	 5.8310
 5.9400	 5.9280
 5.9470	 5.9840
 5.9530	 5.9120
 5.9600	 5.9030
 5.9670	 5.8620
 5.9740	 5.8890
 5.9810	 5.8370
 5.9880	 5.8320
 5.9950	 5.7120
 6.0020	 5.7040
 6.0090	 5.6900
 6.0160	 5.7220
 6.0230	 5.6820
 6.0300	 5.6330
 6.0370	 5.5620
 6.0440	 5.5300
 6.0510	 5.4220
 6.0580	 5.4970
 6.0650	 5.5170
 6.0720	 5.5040
 6.0790	 5.4290
 6.0860	 5.4700
 6.0930	 5.4570
 6.1000	 5.5470
 6.1080	 5.5160
 6.1150	 5.5160
 6.1220	 5.4260
 6.1290	 5.4720
 6.1370	 5.4700
 6.1440	 5.5290
 6.1510	 5.5710
 6.1580	 5.6330
 6.1660	 5.5630
 6.1730	 5.6310
 6.1800	 5.6780
 6.1880	 5.6810
 6.1950	 5.6140
 6.2030	 5.6320
 6.2100	 5.6170
 6.2170	 5.7320
 6.2250	 5.7300
 6.2320	 5.7010
 6.2400	 5.5880
 6.2470	 5.6680
 6.2550	 5.6640
 6.2630	 5.6010
 6.2700	 5.5070
 6.2780	 5.5780
 6.2850	 5.6630
 6.2930	 5.7740
 6.3010	 5.7360
 6.3080	 5.7600
 6.3160	 5.6950
 6.3240	 5.7550
 6.3310	 5.7310
 6.3390	 5.7930
 6.3470	 5.8030
 6.3550	 5.9000
 6.3620	 5.8380
 6.3700	 5.8640
 6.3780	 5.7940
 6.3860	 5.7790
 6.3940	 5.7430
 6.4020	 5.7690
 6.4100	 5.8030
 6.4180	 5.9100
 6.4260	 5.8130
 6.4330	 5.8210
 6.4410	 5.7750
 6.4490	 5.7990
 6.4580	 5.7240
 6.4660	 5.7820
 6.4740	 5.8370
 6.4820	 5.9270
 6.4900	 5.9200
 6.4980	 5.8890
 6.5060	 5.7630
 6.5140	 5.7580
 6.5230	 5.6770
 6.5310	 5.7270
 6.5390	 5.6900
 6.5470	 5.7190
 6.5550	 5.5850
 6.5640	 5.5090
 6.5720	 5.4440
 6.5800	 5.4710
 6.5890	 5.4690
 6.5970	 5.5420
 6.6060	 5.5340
 6.6140	 5.5700
 6.6220	 5.5170
 6.6310	 5.5470
 6.6390	 5.5000
 6.6480	 5.5420
 6.6560	 5.5030
 6.6650	 5.4570
 6.6740	 5.4170
 6.6820	 5.4860
 6.6910	 5.3650
 6.6990	 5.3350
 6.7080	 5.3120
 6.7170	 5.3530
 6.7260	 5.2910
 6.7340	 5.2540
 6.7430	 5.1420
 6.7520	 5.1780
 6.7610	 5.0890
 6.7690	 5.1160
 6.7780	 5.0990
 6.7870	 5.1720
 6.7960	 5.0360
 6.8050	 4.9730
 6.8140	 4.9240
 6.8230	 4.9360
 6.8320	 5.0040
 6.8410	 5.1750
 6.8500	 5.0100
 6.8590	 4.9650
 6.8680	 4.9400
 6.8770	 5.0110
 6.8860	 4.9580
 6.8950	 5.0130
 6.9050	 4.9440
 6.9140	 4.9560
 6.9230	 4.9600
 6.9320	 5.0460
 6.9420	 4.9860
 6.9510	 5.0140
 6.9600	 4.9440
 6.9700	 4.9190
 6.9790	 4.8390
 6.9880	 4.9510
 6.9980	 4.8680
 7.0070	 4.8820
 7.0170	 4.8220
 7.0260	 4.8940
 7.0360	 4.8970
 7.0450	 5.0120
 7.0550	 4.9260
 7.0650	 4.8890
 7.0740	 4.8330
 7.0840	 4.9380
 7.0940	 4.9490
 7.1030	 4.9900
 7.1130	 4.9070
 7.1230	 5.0160
 7.1330	 4.9510
 7.1420	 4.9200
 7.1520	 4.8500
 7.1620	 4.8640
 7.1720	 4.6810
 7.1820	 4.6550
 7.1920	 4.5990
 7.2020	 4.6800
 7.2120	 4.6800
 7.2220	 4.7770
 7.2320	 4.6800
 7.2420	 4.6020
 7.2520	 4.5140
 7.2620	 4.5860
 7.2730	 4.5730
 7.2830	 4.6680
 7.2930	 4.6040
 7.3030	 4.6260
 7.3140	 4.6530
 7.3240	 4.7650
 7.3340	 4.6700
 7.3450	 4.7090
 7.3550	 4.7120
 7.3660	 4.7620
 7.3760	 4.7240
 7.3870	 4.8490
 7.3970	 4.8010
 7.4080	 4.7970
 7.4180	 4.6920
 7.4290	 4.7810
 7.4400	 4.7410
 7.4500	 4.6970
 7.4610	 4.6490
 7.4720	 4.7460
 7.4830	 4.6380
 7.4930	 4.6730
 7.5040	 4.5720
 7.5150	 4.6100
 7.5260	 4.6420
 7.5370	 4.7010
 7.5480	 4.5770
 7.5590	 4.5560
 7.5700	 4.4810
 7.5810	 4.5810
 7.5920	 4.6040
 7.6030	 4.7030
 7.6140	 4.6400
 7.6260	 4.6770
 7.6370	 4.6390
 7.6480	 4.6460
 7.6590	 4.6240
 7.6710	 4.7900
 7.6820	 4.7240
 7.6930	 4.6350
 7.7050	 4.5740
 7.7160	 4.7250
 7.7280	 4.6630
 7.7390	 4.7020
 7.7510	 4.6200
 7.7630	 4.6370
 7.7740	 4.5220
 7.7860	 4.5270
 7.7980	 4.4310
 7.8090	 4.4900
 7.8210	 4.4630
 7.8330	 4.5620
 7.8450	 4.4920
 7.8570	 4.4840
 7.8690	 4.4200
 7.8810	 4.5890
 7.8930	 4.5290
 7.9050	 4.5360
 7.9170	 4.4280
 7.9290	 4.4630
 7.9410	 4.3670
 7.9530	 4.3660
 7.9650	 4.3760
 7.9780	 4.5520
 7.9900	 4.4620
 8.0020	 4.5330
 8.0150	 4.4340
 8.0270	 4.4350
 8.0390	 4.3150
 8.0520	 4.4210
 8.0640	 4.4340
 8.0770	 4.6280
 8.0900	 4.5390
 8.1020	 4.6570
 8.1150	 4.7570
 8.1280	 4.9230
 8.1400	 4.7070
 8.1530	 4.7220
 8.1660	 4.6750
 8.1790	 4.8210
 8.1920	 4.8430
 8.2050	 4.9080
 8.2180	 4.6870
 8.2310	 4.7880
 8.2440	 4.8120
 8.2570	 4.9670
 8.2700	 4.8270
 8.2830	 4.7950
 8.2970	 4.7710
 8.3100	 4.9290
 8.3230	 4.7140
 8.3370	 4.8200
 8.3500	 4.7960
 8.3640	 4.8450
 8.3770	 4.7680
 8.3910	 4.9440
 8.4040	 4.8570
 8.4180	 4.9600
 8.4320	 4.9270
 8.4450	 5.0200
 8.4590	 4.8540
 8.4730	 4.7890
 8.4870	 4.7690
 8.5010	 4.9520
 8.5150	 4.7700
 8.5290	 4.8770
 8.5430	 4.8190
 8.5570	 5.0430
 8.5710	 5.0930
 8.5850	 5.1310
 8.5990	 4.9860
 8.6140	 5.0570
 8.6280	 4.9470
 8.6420	 5.0700
 8.6570	 5.1270
 8.6710	 5.3010
 8.6860	 5.1520
 8.7000	 5.1400
 8.7150	 4.9250
 8.7300	 5.0940
 8.7440	 5.0610
 8.7590	 5.1090
 8.7740	 4.9900
 8.7890	 5.1700
 8.8040	 5.0490
 8.8190	 5.1620
 8.8340	 5.0510
 8.8490	 5.0880
 8.8640	 4.9980
 8.8790	 5.1090
 8.8940	 5.0060
 8.9100	 5.0690
 8.9250	 4.8710
 8.9400	 4.9890
 8.9560	 4.8790
 8.9710	 4.9840
 8.9870	 4.9110
 9.0020	 5.1800
 9.0180	 5.0210
 9.0340	 5.0990
 9.0500	 5.0220
 9.0650	 5.0060
 9.0810	 4.9210
 9.0970	 5.1160
 9.1130	 4.9840
 9.1290	 5.0930
 9.1450	 5.0290
 9.1610	 5.1510
 9.1780	 5.0290
 9.1940	 5.0990
 9.2100	 4.9610
 9.2270	 5.1950
 9.2430	 5.2000
 9.2600	 5.3350
 9.2760	 5.2310
 9.2930	 5.4010
 9.3090	 5.2760
 9.3260	 5.3960
 9.3430	 5.2260
 9.3600	 5.2140
 9.3770	 5.0640
 9.3940	 5.2930
 9.4110	 5.2860
 9.4280	 5.4740
 9.4450	 5.2800
 9.4620	 5.3530
 9.4800	 5.3420
 9.4970	 5.5060
 9.5140	 5.3420
 9.5320	 5.3910
 9.5500	 5.3010
 9.5670	 5.4170
 9.5850	 5.3210
 9.6030	 5.5360
 9.6200	 5.4350
 9.6380	 5.4890
 9.6560	 5.5140
 9.6740	 5.7600
 9.6920	 5.5390
 9.7100	 5.5570
 9.7290	 5.4620
 9.7470	 5.6600
 9.7650	 5.5260
 9.7840	 5.6230
 9.8020	 5.5560
 9.8210	 5.4970
 9.8390	 5.2320
 9.8580	 5.3830
 9.8770	 5.3440
 9.8960	 5.4780
 9.9150	 5.3640
 9.9340	 5.4310
 9.9530	 5.2220
 9.9720	 5.2910
 9.9910	 5.1300
10.0100	 5.3420
10.0300	 5.3930
10.0490	 5.5510
10.0690	 5.4120
10.0880	 5.4870
10.1080	 5.4090
10.1280	 5.5180
10.1480	 5.4070
10.1670	 5.5790
10.1870	 5.4600
10.2070	 5.6000
10.2280	 5.4600
10.2480	 5.6500
10.2680	 5.6500
10.2890	 5.8460
10.3090	 5.6290
10.3300	 5.7280
10.3500	 5.6700
10.3710	 5.8080
10.3920	 5.8030
10.4120	 6.0920
10.4330	 6.0940
10.4540	 6.2650
10.4760	 6.1710
10.4970	 6.3170
10.5180	 6.2770
10.5390	 6.3760
10.5610	 6.2030
10.5820	 6.3540
10.6040	 6.2380
10.6260	 6.4380
10.6480	 6.2820
10.6700	 6.3130
10.6920	 6.1860
10.7140	 6.3710
10.7360	 6.2040
10.7580	 6.2790
10.7800	 6.2450
10.8030	 6.4270
10.8250	 6.1250
10.8480	 6.1160
10.8710	 6.0130
10.8940	 6.2140
10.9170	 6.0190
10.9400	 6.1940
10.9630	 6.0730
10.9860	 6.1330
11.0090	 5.9870
11.0330	 6.1460
11.0560	 5.8910
11.0800	 5.8410
11.1040	 5.6220
11.1270	 5.7720
11.1510	 5.5490
11.1750	 5.7400
11.2000	 5.6740
11.2240	 5.8950
11.2480	 5.9980
11.2730	 6.4170
11.2970	 6.2900
11.3220	 6.2350
11.3470	 5.9620
11.3720	 6.1060
11.3970	 5.9700
11.4220	 6.1180
11.4470	 6.0020
11.4720	 6.3140
11.4980	 6.1890
11.5230	 6.2880
11.5490	 6.1660
11.5750	 6.3080
11.6000	 5.9580
11.6260	 6.1640
11.6530	 6.1080
11.6790	 6.2390
11.7050	 5.9410
11.7320	 6.0440
11.7580	 6.0210
11.7850	 6.2530
11.8120	 6.0010
11.8390	 6.1350
11.8660	 5.9580
11.8930	 6.0040
11.9200	 5.7390
11.9480	 5.9780
11.9760	 5.8600
12.0030	 6.1090
12.0310	 5.9900
12.0590	 6.1170
12.0870	 5.8630
12.1150	 6.1470
12.1440	 6.0140
12.1720	 6.1460
12.2010	 5.9530
12.2300	 6.0380
12.2590	 5.7370
12.2880	 5.8510
12.3170	 5.8940
12.3460	 6.3180
12.3760	 5.9970
12.4050	 6.0670
12.4350	 5.9640
12.4650	 6.1480
12.4950	 5.9180
12.5250	 6.1310
12.5550	 5.7640
12.5860	 5.8560
12.6170	 5.7350
12.6470	 6.0470
12.6780	 5.8850
12.7090	 6.0560
12.7410	 5.8630
12.7720	 6.0530
12.8030	 5.9840
12.8350	 6.2130
12.8670	 5.7450
12.8990	 5.8720
12.9310	 5.6210
12.9640	 5.7940
12.9960	 5.5650
13.0290	 5.8160
13.0610	 5.5950
13.0940	 5.8090
13.1280	 5.5170
13.1610	 5.6690
13.1940	 5.5380
13.2280	 5.9350
13.2620	 5.7940
13.2960	 5.9490
13.3300	 5.6110
13.3640	 5.8110
13.3990	 5.4650
13.4340	 5.7020
13.4690	 5.6170
13.5040	 5.8210
13.5390	 5.2960
13.5740	 5.4760
13.6100	 5.2820
13.6460	 5.4650
13.6820	 5.3760
13.7180	 5.8060
13.7540	 5.2840
13.7910	 5.5080
13.8280	 5.3210
13.8650	 5.5930
13.9020	 5.3760
13.9390	 5.7300
13.9770	 5.4380
14.0150	 5.7670
14.0530	 5.5700
14.0910	 5.7270
14.1290	 5.2220
14.1680	 5.7200
14.2070	 5.7490
14.2460	 6.0280
14.2850	 5.5190
14.3240	 5.6570
14.3640	 5.3160
14.4040	 5.8310
14.4440	 5.4630
14.4840	 5.6330
14.5250	 5.1990
14.5660	 5.7580
14.6070	 5.5130
14.6480	 5.8390
14.6900	 5.2780
14.7310	 5.5610
14.7730	 4.9380
14.8150	 5.3360
14.8580	 5.1480
14.9010	 5.7330
14.9440	 5.1360
14.9870	 5.3630
15.0300	 4.9840
15.0740	 5.6560
15.1180	 5.3070
15.1620	 6.1200
15.2060	 5.3450
15.2510	 5.2980
15.2960	 4.6010
15.3410	 5.4940
15.3870	 5.3160
