Name: Heteromeles arbutifolia 1
Type: vegetation
Class: Shrub
Genus: Heteromeles
Species: arbutifolia
Sample No.: VH014
Owner: UCSB
Wavelength Range: VSWIR
Origin: 34.4907; -119.791; WGS84
Collection Date: 4/1/2013
Description: Samples were collected as part of the HyspIRI Airborne Campaign. 48 individual plants were sampled in three times in 2013 - spring  summer  and fall. The name of the sample includes a 1  2  or 3 which references a different individual of the species. Samples were taken to JPL and processed within 48 hours of collection. The same leaves were processed in the Nicolet and then measured using the ASD.
Measurement: Bidirectional reflectance
First Column: X
Second Column: Y
X Units: Wavelength (micrometers)
Y Units: Reflectance (percentage)
First X Value: 0.35
Last X Value: 2.5
Number of X Values: 2151
Additional Information: vegetation.shrub.heteromeles.arbutifolia.vswir.vh014.ucsb.asd.ancillary.txt

 0.3500	 6.1630
 0.3510	 6.5760
 0.3520	 6.6090
 0.3530	 6.4220
 0.3540	 6.3030
 0.3550	 6.3020
 0.3560	 6.3230
 0.3570	 6.3060
 0.3580	 6.2400
 0.3590	 6.3340
 0.3600	 6.3660
 0.3610	 6.2790
 0.3620	 6.3040
 0.3630	 6.2890
 0.3640	 6.2800
 0.3650	 6.3290
 0.3660	 6.3470
 0.3670	 6.4090
 0.3680	 6.4350
 0.3690	 6.2760
 0.3700	 6.2340
 0.3710	 6.3150
 0.3720	 6.4090
 0.3730	 6.2740
 0.3740	 6.2340
 0.3750	 6.2940
 0.3760	 6.3410
 0.3770	 6.2520
 0.3780	 6.1940
 0.3790	 6.2080
 0.3800	 6.2130
 0.3810	 6.1910
 0.3820	 6.1540
 0.3830	 6.1320
 0.3840	 6.2030
 0.3850	 6.2260
 0.3860	 6.1920
 0.3870	 6.1490
 0.3880	 6.1480
 0.3890	 6.1850
 0.3900	 6.2080
 0.3910	 6.1280
 0.3920	 6.1730
 0.3930	 6.2080
 0.3940	 6.1390
 0.3950	 6.1540
 0.3960	 6.2060
 0.3970	 6.2450
 0.3980	 6.2210
 0.3990	 6.1390
 0.4000	 6.1190
 0.4010	 6.1720
 0.4020	 6.1570
 0.4030	 6.1250
 0.4040	 6.1360
 0.4050	 6.2100
 0.4060	 6.2230
 0.4070	 6.2150
 0.4080	 6.2030
 0.4090	 6.1890
 0.4100	 6.2100
 0.4110	 6.2170
 0.4120	 6.1950
 0.4130	 6.1990
 0.4140	 6.2290
 0.4150	 6.2500
 0.4160	 6.2400
 0.4170	 6.2730
 0.4180	 6.3030
 0.4190	 6.3080
 0.4200	 6.2920
 0.4210	 6.3080
 0.4220	 6.3290
 0.4230	 6.3290
 0.4240	 6.3340
 0.4250	 6.3470
 0.4260	 6.3630
 0.4270	 6.3690
 0.4280	 6.3580
 0.4290	 6.3550
 0.4300	 6.3690
 0.4310	 6.3840
 0.4320	 6.3850
 0.4330	 6.3820
 0.4340	 6.3880
 0.4350	 6.3940
 0.4360	 6.3860
 0.4370	 6.3770
 0.4380	 6.3970
 0.4390	 6.4050
 0.4400	 6.4020
 0.4410	 6.3950
 0.4420	 6.3910
 0.4430	 6.3960
 0.4440	 6.4060
 0.4450	 6.4140
 0.4460	 6.4200
 0.4470	 6.4230
 0.4480	 6.4240
 0.4490	 6.4290
 0.4500	 6.4300
 0.4510	 6.4280
 0.4520	 6.4290
 0.4530	 6.4450
 0.4540	 6.4500
 0.4550	 6.4450
 0.4560	 6.4490
 0.4570	 6.4470
 0.4580	 6.4450
 0.4590	 6.4450
 0.4600	 6.4360
 0.4610	 6.4350
 0.4620	 6.4370
 0.4630	 6.4310
 0.4640	 6.4180
 0.4650	 6.4220
 0.4660	 6.4370
 0.4670	 6.4230
 0.4680	 6.4230
 0.4690	 6.4220
 0.4700	 6.4100
 0.4710	 6.4150
 0.4720	 6.4150
 0.4730	 6.4060
 0.4740	 6.3970
 0.4750	 6.3960
 0.4760	 6.3980
 0.4770	 6.3990
 0.4780	 6.3950
 0.4790	 6.4050
 0.4800	 6.4160
 0.4810	 6.4120
 0.4820	 6.4100
 0.4830	 6.4090
 0.4840	 6.4090
 0.4850	 6.4080
 0.4860	 6.4080
 0.4870	 6.4130
 0.4880	 6.4250
 0.4890	 6.4380
 0.4900	 6.4430
 0.4910	 6.4420
 0.4920	 6.4450
 0.4930	 6.4520
 0.4940	 6.4690
 0.4950	 6.4910
 0.4960	 6.5010
 0.4970	 6.5110
 0.4980	 6.5270
 0.4990	 6.5490
 0.5000	 6.5730
 0.5010	 6.5980
 0.5020	 6.6240
 0.5030	 6.6510
 0.5040	 6.6870
 0.5050	 6.7340
 0.5060	 6.7860
 0.5070	 6.8270
 0.5080	 6.8780
 0.5090	 6.9420
 0.5100	 7.0160
 0.5110	 7.1040
 0.5120	 7.1960
 0.5130	 7.2910
 0.5140	 7.3970
 0.5150	 7.5200
 0.5160	 7.6490
 0.5170	 7.7800
 0.5180	 7.9360
 0.5190	 8.0980
 0.5200	 8.2640
 0.5210	 8.4440
 0.5220	 8.6250
 0.5230	 8.8040
 0.5240	 8.9800
 0.5250	 9.1570
 0.5260	 9.3310
 0.5270	 9.4990
 0.5280	 9.6580
 0.5290	 9.8140
 0.5300	 9.9580
 0.5310	10.0860
 0.5320	10.2020
 0.5330	10.3080
 0.5340	10.4070
 0.5350	10.4990
 0.5360	10.5750
 0.5370	10.6420
 0.5380	10.7010
 0.5390	10.7540
 0.5400	10.8080
 0.5410	10.8600
 0.5420	10.9060
 0.5430	10.9440
 0.5440	10.9850
 0.5450	11.0220
 0.5460	11.0470
 0.5470	11.0680
 0.5480	11.0910
 0.5490	11.1140
 0.5500	11.1330
 0.5510	11.1420
 0.5520	11.1430
 0.5530	11.1370
 0.5540	11.1250
 0.5550	11.1010
 0.5560	11.0650
 0.5570	11.0220
 0.5580	10.9690
 0.5590	10.9040
 0.5600	10.8260
 0.5610	10.7360
 0.5620	10.6360
 0.5630	10.5280
 0.5640	10.4140
 0.5650	10.2880
 0.5660	10.1570
 0.5670	10.0250
 0.5680	 9.9020
 0.5690	 9.7710
 0.5700	 9.6430
 0.5710	 9.5250
 0.5720	 9.4090
 0.5730	 9.2980
 0.5740	 9.1970
 0.5750	 9.1010
 0.5760	 9.0140
 0.5770	 8.9320
 0.5780	 8.8530
 0.5790	 8.7750
 0.5800	 8.6980
 0.5810	 8.6240
 0.5820	 8.5590
 0.5830	 8.5080
 0.5840	 8.4610
 0.5850	 8.4150
 0.5860	 8.3680
 0.5870	 8.3260
 0.5880	 8.2860
 0.5890	 8.2480
 0.5900	 8.2200
 0.5910	 8.1980
 0.5920	 8.1760
 0.5930	 8.1560
 0.5940	 8.1290
 0.5950	 8.1020
 0.5960	 8.0790
 0.5970	 8.0550
 0.5980	 8.0350
 0.5990	 8.0170
 0.6000	 7.9960
 0.6010	 7.9700
 0.6020	 7.9450
 0.6030	 7.9180
 0.6040	 7.8800
 0.6050	 7.8450
 0.6060	 7.8080
 0.6070	 7.7640
 0.6080	 7.7170
 0.6090	 7.6780
 0.6100	 7.6410
 0.6110	 7.5930
 0.6120	 7.5470
 0.6130	 7.5010
 0.6140	 7.4550
 0.6150	 7.4110
 0.6160	 7.3670
 0.6170	 7.3250
 0.6180	 7.2900
 0.6190	 7.2610
 0.6200	 7.2340
 0.6210	 7.2090
 0.6220	 7.1920
 0.6230	 7.1720
 0.6240	 7.1500
 0.6250	 7.1290
 0.6260	 7.1200
 0.6270	 7.1150
 0.6280	 7.1090
 0.6290	 7.0990
 0.6300	 7.0920
 0.6310	 7.0860
 0.6320	 7.0800
 0.6330	 7.0670
 0.6340	 7.0530
 0.6350	 7.0370
 0.6360	 7.0170
 0.6370	 6.9890
 0.6380	 6.9570
 0.6390	 6.9220
 0.6400	 6.8820
 0.6410	 6.8430
 0.6420	 6.8050
 0.6430	 6.7660
 0.6440	 6.7230
 0.6450	 6.6810
 0.6460	 6.6450
 0.6470	 6.6150
 0.6480	 6.5800
 0.6490	 6.5520
 0.6500	 6.5310
 0.6510	 6.5150
 0.6520	 6.4950
 0.6530	 6.4760
 0.6540	 6.4590
 0.6550	 6.4450
 0.6560	 6.4310
 0.6570	 6.4150
 0.6580	 6.3970
 0.6590	 6.3750
 0.6600	 6.3560
 0.6610	 6.3390
 0.6620	 6.3230
 0.6630	 6.3060
 0.6640	 6.2930
 0.6650	 6.2850
 0.6660	 6.2780
 0.6670	 6.2740
 0.6680	 6.2740
 0.6690	 6.2770
 0.6700	 6.2800
 0.6710	 6.2850
 0.6720	 6.2930
 0.6730	 6.3030
 0.6740	 6.3180
 0.6750	 6.3360
 0.6760	 6.3550
 0.6770	 6.3780
 0.6780	 6.4010
 0.6790	 6.4240
 0.6800	 6.4510
 0.6810	 6.4830
 0.6820	 6.5170
 0.6830	 6.5530
 0.6840	 6.5910
 0.6850	 6.6370
 0.6860	 6.6920
 0.6870	 6.7540
 0.6880	 6.8270
 0.6890	 6.9180
 0.6900	 7.0330
 0.6910	 7.1800
 0.6920	 7.3600
 0.6930	 7.5840
 0.6940	 7.8580
 0.6950	 8.1830
 0.6960	 8.5710
 0.6970	 9.0220
 0.6980	 9.5360
 0.6990	10.1130
 0.7000	10.7540
 0.7010	11.4550
 0.7020	12.2030
 0.7030	12.9990
 0.7040	13.8350
 0.7050	14.7000
 0.7060	15.5870
 0.7070	16.4990
 0.7080	17.4290
 0.7090	18.3700
 0.7100	19.3260
 0.7110	20.2900
 0.7120	21.2590
 0.7130	22.2340
 0.7140	23.2070
 0.7150	24.1780
 0.7160	25.1430
 0.7170	26.1010
 0.7180	27.0500
 0.7190	27.9890
 0.7200	28.9110
 0.7210	29.8180
 0.7220	30.7070
 0.7230	31.5730
 0.7240	32.4110
 0.7250	33.2230
 0.7260	34.0130
 0.7270	34.7770
 0.7280	35.5060
 0.7290	36.1990
 0.7300	36.8620
 0.7310	37.4980
 0.7320	38.1050
 0.7330	38.6810
 0.7340	39.2240
 0.7350	39.7370
 0.7360	40.2230
 0.7370	40.6800
 0.7380	41.1070
 0.7390	41.5120
 0.7400	41.8940
 0.7410	42.2490
 0.7420	42.5740
 0.7430	42.8900
 0.7440	43.1790
 0.7450	43.4370
 0.7460	43.6790
 0.7470	43.9040
 0.7480	44.1140
 0.7490	44.3080
 0.7500	44.4790
 0.7510	44.6390
 0.7520	44.7860
 0.7530	44.9170
 0.7540	45.0350
 0.7550	45.1430
 0.7560	45.2420
 0.7570	45.3330
 0.7580	45.4070
 0.7590	45.4790
 0.7600	45.5530
 0.7610	45.6160
 0.7620	45.6710
 0.7630	45.7230
 0.7640	45.7710
 0.7650	45.8100
 0.7660	45.8420
 0.7670	45.8730
 0.7680	45.9020
 0.7690	45.9280
 0.7700	45.9520
 0.7710	45.9740
 0.7720	45.9950
 0.7730	46.0160
 0.7740	46.0340
 0.7750	46.0490
 0.7760	46.0680
 0.7770	46.0850
 0.7780	46.1000
 0.7790	46.1140
 0.7800	46.1220
 0.7810	46.1360
 0.7820	46.1560
 0.7830	46.1680
 0.7840	46.1770
 0.7850	46.1870
 0.7860	46.1980
 0.7870	46.2140
 0.7880	46.2170
 0.7890	46.2200
 0.7900	46.2390
 0.7910	46.2490
 0.7920	46.2540
 0.7930	46.2600
 0.7940	46.2700
 0.7950	46.2790
 0.7960	46.2840
 0.7970	46.2830
 0.7980	46.2860
 0.7990	46.2930
 0.8000	46.2970
 0.8010	46.2950
 0.8020	46.2960
 0.8030	46.2970
 0.8040	46.2990
 0.8050	46.3030
 0.8060	46.2950
 0.8070	46.2860
 0.8080	46.2840
 0.8090	46.2900
 0.8100	46.2860
 0.8110	46.2800
 0.8120	46.2760
 0.8130	46.2700
 0.8140	46.2670
 0.8150	46.2620
 0.8160	46.2530
 0.8170	46.2410
 0.8180	46.2320
 0.8190	46.2280
 0.8200	46.2250
 0.8210	46.2160
 0.8220	46.2050
 0.8230	46.1990
 0.8240	46.2020
 0.8250	46.1940
 0.8260	46.1810
 0.8270	46.1700
 0.8280	46.1660
 0.8290	46.1600
 0.8300	46.1480
 0.8310	46.1340
 0.8320	46.1210
 0.8330	46.1170
 0.8340	46.1160
 0.8350	46.1080
 0.8360	46.1050
 0.8370	46.1000
 0.8380	46.0910
 0.8390	46.0840
 0.8400	46.0830
 0.8410	46.0790
 0.8420	46.0720
 0.8430	46.0770
 0.8440	46.0760
 0.8450	46.0730
 0.8460	46.0750
 0.8470	46.0690
 0.8480	46.0710
 0.8490	46.0760
 0.8500	46.0770
 0.8510	46.0740
 0.8520	46.0730
 0.8530	46.0760
 0.8540	46.0770
 0.8550	46.0760
 0.8560	46.0830
 0.8570	46.0910
 0.8580	46.0840
 0.8590	46.0830
 0.8600	46.0840
 0.8610	46.0830
 0.8620	46.0900
 0.8630	46.0990
 0.8640	46.1040
 0.8650	46.1030
 0.8660	46.1050
 0.8670	46.1090
 0.8680	46.1140
 0.8690	46.1160
 0.8700	46.1250
 0.8710	46.1250
 0.8720	46.1220
 0.8730	46.1300
 0.8740	46.1430
 0.8750	46.1480
 0.8760	46.1490
 0.8770	46.1560
 0.8780	46.1680
 0.8790	46.1700
 0.8800	46.1620
 0.8810	46.1690
 0.8820	46.1860
 0.8830	46.1970
 0.8840	46.1980
 0.8850	46.1980
 0.8860	46.2060
 0.8870	46.2180
 0.8880	46.2240
 0.8890	46.2230
 0.8900	46.2210
 0.8910	46.2250
 0.8920	46.2360
 0.8930	46.2390
 0.8940	46.2450
 0.8950	46.2530
 0.8960	46.2560
 0.8970	46.2590
 0.8980	46.2590
 0.8990	46.2580
 0.9000	46.2580
 0.9010	46.2650
 0.9020	46.2770
 0.9030	46.2870
 0.9040	46.2910
 0.9050	46.2940
 0.9060	46.2950
 0.9070	46.2970
 0.9080	46.2990
 0.9090	46.3030
 0.9100	46.3080
 0.9110	46.3130
 0.9120	46.3100
 0.9130	46.3080
 0.9140	46.3090
 0.9150	46.3150
 0.9160	46.3160
 0.9170	46.3240
 0.9180	46.3290
 0.9190	46.3220
 0.9200	46.3190
 0.9210	46.3160
 0.9220	46.3160
 0.9230	46.3210
 0.9240	46.3100
 0.9250	46.3000
 0.9260	46.2960
 0.9270	46.2910
 0.9280	46.2890
 0.9290	46.2740
 0.9300	46.2540
 0.9310	46.2510
 0.9320	46.2360
 0.9330	46.2230
 0.9340	46.2130
 0.9350	46.1950
 0.9360	46.1760
 0.9370	46.1590
 0.9380	46.1450
 0.9390	46.1320
 0.9400	46.1180
 0.9410	46.0970
 0.9420	46.0690
 0.9430	46.0460
 0.9440	46.0120
 0.9450	45.9760
 0.9460	45.9460
 0.9470	45.9180
 0.9480	45.8790
 0.9490	45.8360
 0.9500	45.7960
 0.9510	45.7460
 0.9520	45.6990
 0.9530	45.6450
 0.9540	45.5800
 0.9550	45.5300
 0.9560	45.4780
 0.9570	45.4250
 0.9580	45.3790
 0.9590	45.3300
 0.9600	45.2820
 0.9610	45.2370
 0.9620	45.1950
 0.9630	45.1490
 0.9640	45.1220
 0.9650	45.1020
 0.9660	45.0710
 0.9670	45.0480
 0.9680	45.0330
 0.9690	45.0210
 0.9700	45.0030
 0.9710	44.9780
 0.9720	44.9600
 0.9730	44.9530
 0.9740	44.9520
 0.9750	44.9350
 0.9760	44.9120
 0.9770	44.9000
 0.9780	44.9060
 0.9790	44.8820
 0.9800	44.8830
 0.9810	44.9000
 0.9820	44.8990
 0.9830	44.9020
 0.9840	44.9040
 0.9850	44.9070
 0.9860	44.9160
 0.9870	44.9260
 0.9880	44.9430
 0.9890	44.9610
 0.9900	44.9690
 0.9910	44.9700
 0.9920	44.9870
 0.9930	45.0030
 0.9940	45.0200
 0.9950	45.0360
 0.9960	45.0530
 0.9970	45.0700
 0.9980	45.0860
 0.9990	45.1030
 1.0000	45.1200
 1.0010	45.1360
 1.0020	45.1530
 1.0030	45.1700
 1.0040	45.1860
 1.0050	45.2030
 1.0060	45.2190
 1.0070	45.2360
 1.0080	45.2530
 1.0090	45.2690
 1.0100	45.2690
 1.0110	45.2820
 1.0120	45.2980
 1.0130	45.3130
 1.0140	45.3290
 1.0150	45.3460
 1.0160	45.3670
 1.0170	45.3840
 1.0180	45.3980
 1.0190	45.4090
 1.0200	45.4180
 1.0210	45.4300
 1.0220	45.4440
 1.0230	45.4580
 1.0240	45.4770
 1.0250	45.4910
 1.0260	45.5030
 1.0270	45.5160
 1.0280	45.5260
 1.0290	45.5380
 1.0300	45.5520
 1.0310	45.5660
 1.0320	45.5820
 1.0330	45.5920
 1.0340	45.6050
 1.0350	45.6160
 1.0360	45.6260
 1.0370	45.6350
 1.0380	45.6470
 1.0390	45.6570
 1.0400	45.6710
 1.0410	45.6910
 1.0420	45.7040
 1.0430	45.7170
 1.0440	45.7280
 1.0450	45.7350
 1.0460	45.7430
 1.0470	45.7540
 1.0480	45.7620
 1.0490	45.7660
 1.0500	45.7710
 1.0510	45.7760
 1.0520	45.7820
 1.0530	45.7880
 1.0540	45.7950
 1.0550	45.8010
 1.0560	45.8080
 1.0570	45.8150
 1.0580	45.8210
 1.0590	45.8270
 1.0600	45.8330
 1.0610	45.8380
 1.0620	45.8450
 1.0630	45.8470
 1.0640	45.8440
 1.0650	45.8430
 1.0660	45.8390
 1.0670	45.8370
 1.0680	45.8380
 1.0690	45.8430
 1.0700	45.8420
 1.0710	45.8420
 1.0720	45.8420
 1.0730	45.8400
 1.0740	45.8400
 1.0750	45.8430
 1.0760	45.8430
 1.0770	45.8390
 1.0780	45.8370
 1.0790	45.8330
 1.0800	45.8290
 1.0810	45.8280
 1.0820	45.8240
 1.0830	45.8170
 1.0840	45.8120
 1.0850	45.8050
 1.0860	45.8000
 1.0870	45.7950
 1.0880	45.7930
 1.0890	45.7880
 1.0900	45.7820
 1.0910	45.7760
 1.0920	45.7700
 1.0930	45.7640
 1.0940	45.7600
 1.0950	45.7520
 1.0960	45.7420
 1.0970	45.7340
 1.0980	45.7230
 1.0990	45.7140
 1.1000	45.7070
 1.1010	45.7000
 1.1020	45.6930
 1.1030	45.6850
 1.1040	45.6760
 1.1050	45.6660
 1.1060	45.6560
 1.1070	45.6450
 1.1080	45.6350
 1.1090	45.6250
 1.1100	45.6130
 1.1110	45.5970
 1.1120	45.5840
 1.1130	45.5710
 1.1140	45.5570
 1.1150	45.5440
 1.1160	45.5270
 1.1170	45.5050
 1.1180	45.4820
 1.1190	45.4580
 1.1200	45.4290
 1.1210	45.4020
 1.1220	45.3730
 1.1230	45.3380
 1.1240	45.3010
 1.1250	45.2590
 1.1260	45.2120
 1.1270	45.1620
 1.1280	45.1090
 1.1290	45.0500
 1.1300	44.9870
 1.1310	44.9180
 1.1320	44.8440
 1.1330	44.7640
 1.1340	44.6760
 1.1350	44.5850
 1.1360	44.4890
 1.1370	44.3880
 1.1380	44.2840
 1.1390	44.1740
 1.1400	44.0580
 1.1410	43.9400
 1.1420	43.8180
 1.1430	43.6970
 1.1440	43.5770
 1.1450	43.4570
 1.1460	43.3390
 1.1470	43.2210
 1.1480	43.1070
 1.1490	42.9930
 1.1500	42.8860
 1.1510	42.7840
 1.1520	42.6880
 1.1530	42.5970
 1.1540	42.5140
 1.1550	42.4340
 1.1560	42.3620
 1.1570	42.2970
 1.1580	42.2370
 1.1590	42.1850
 1.1600	42.1390
 1.1610	42.0980
 1.1620	42.0630
 1.1630	42.0320
 1.1640	42.0040
 1.1650	41.9780
 1.1660	41.9550
 1.1670	41.9330
 1.1680	41.9130
 1.1690	41.8930
 1.1700	41.8750
 1.1710	41.8570
 1.1720	41.8390
 1.1730	41.8230
 1.1740	41.8090
 1.1750	41.7940
 1.1760	41.7770
 1.1770	41.7590
 1.1780	41.7390
 1.1790	41.7170
 1.1800	41.6970
 1.1810	41.6770
 1.1820	41.6590
 1.1830	41.6410
 1.1840	41.6210
 1.1850	41.6010
 1.1860	41.5810
 1.1870	41.5620
 1.1880	41.5450
 1.1890	41.5300
 1.1900	41.5170
 1.1910	41.5060
 1.1920	41.4950
 1.1930	41.4860
 1.1940	41.4780
 1.1950	41.4700
 1.1960	41.4640
 1.1970	41.4610
 1.1980	41.4590
 1.1990	41.4580
 1.2000	41.4590
 1.2010	41.4640
 1.2020	41.4700
 1.2030	41.4790
 1.2040	41.4880
 1.2050	41.4960
 1.2060	41.5080
 1.2070	41.5220
 1.2080	41.5400
 1.2090	41.5610
 1.2100	41.5810
 1.2110	41.6040
 1.2120	41.6280
 1.2130	41.6540
 1.2140	41.6810
 1.2150	41.7100
 1.2160	41.7400
 1.2170	41.7690
 1.2180	41.8020
 1.2190	41.8360
 1.2200	41.8690
 1.2210	41.9030
 1.2220	41.9350
 1.2230	41.9660
 1.2240	41.9980
 1.2250	42.0280
 1.2260	42.0580
 1.2270	42.0870
 1.2280	42.1140
 1.2290	42.1420
 1.2300	42.1700
 1.2310	42.1950
 1.2320	42.2210
 1.2330	42.2440
 1.2340	42.2660
 1.2350	42.2860
 1.2360	42.3050
 1.2370	42.3240
 1.2380	42.3430
 1.2390	42.3600
 1.2400	42.3770
 1.2410	42.3980
 1.2420	42.4150
 1.2430	42.4310
 1.2440	42.4490
 1.2450	42.4630
 1.2460	42.4760
 1.2470	42.4880
 1.2480	42.4970
 1.2490	42.5070
 1.2500	42.5160
 1.2510	42.5250
 1.2520	42.5340
 1.2530	42.5430
 1.2540	42.5530
 1.2550	42.5620
 1.2560	42.5710
 1.2570	42.5770
 1.2580	42.5810
 1.2590	42.5850
 1.2600	42.5890
 1.2610	42.5910
 1.2620	42.5920
 1.2630	42.5940
 1.2640	42.5940
 1.2650	42.5950
 1.2660	42.5940
 1.2670	42.5910
 1.2680	42.5870
 1.2690	42.5820
 1.2700	42.5770
 1.2710	42.5720
 1.2720	42.5670
 1.2730	42.5610
 1.2740	42.5550
 1.2750	42.5500
 1.2760	42.5440
 1.2770	42.5360
 1.2780	42.5260
 1.2790	42.5150
 1.2800	42.5020
 1.2810	42.4880
 1.2820	42.4750
 1.2830	42.4590
 1.2840	42.4420
 1.2850	42.4260
 1.2860	42.4080
 1.2870	42.3880
 1.2880	42.3660
 1.2890	42.3420
 1.2900	42.3140
 1.2910	42.2820
 1.2920	42.2520
 1.2930	42.2210
 1.2940	42.1880
 1.2950	42.1560
 1.2960	42.1190
 1.2970	42.0790
 1.2980	42.0370
 1.2990	41.9910
 1.3000	41.9440
 1.3010	41.8930
 1.3020	41.8390
 1.3030	41.7860
 1.3040	41.7280
 1.3050	41.6680
 1.3060	41.6080
 1.3070	41.5450
 1.3080	41.4770
 1.3090	41.4080
 1.3100	41.3400
 1.3110	41.2660
 1.3120	41.1900
 1.3130	41.1150
 1.3140	41.0350
 1.3150	40.9490
 1.3160	40.8640
 1.3170	40.7800
 1.3180	40.6890
 1.3190	40.5960
 1.3200	40.5000
 1.3210	40.3980
 1.3220	40.2950
 1.3230	40.1900
 1.3240	40.0800
 1.3250	39.9700
 1.3260	39.8590
 1.3270	39.7470
 1.3280	39.6330
 1.3290	39.5140
 1.3300	39.3950
 1.3310	39.2730
 1.3320	39.1480
 1.3330	39.0230
 1.3340	38.8950
 1.3350	38.7660
 1.3360	38.6390
 1.3370	38.5100
 1.3380	38.3780
 1.3390	38.2470
 1.3400	38.1130
 1.3410	37.9810
 1.3420	37.8520
 1.3430	37.7240
 1.3440	37.5970
 1.3450	37.4690
 1.3460	37.3420
 1.3470	37.2150
 1.3480	37.0860
 1.3490	36.9600
 1.3500	36.8350
 1.3510	36.7100
 1.3520	36.5860
 1.3530	36.4640
 1.3540	36.3400
 1.3550	36.2150
 1.3560	36.0900
 1.3570	35.9620
 1.3580	35.8340
 1.3590	35.7040
 1.3600	35.5730
 1.3610	35.4390
 1.3620	35.3000
 1.3630	35.1570
 1.3640	35.0100
 1.3650	34.8550
 1.3660	34.6940
 1.3670	34.5270
 1.3680	34.3490
 1.3690	34.1620
 1.3700	33.9640
 1.3710	33.7550
 1.3720	33.5340
 1.3730	33.2980
 1.3740	33.0480
 1.3750	32.7830
 1.3760	32.4970
 1.3770	32.1930
 1.3780	31.8660
 1.3790	31.5200
 1.3800	31.1540
 1.3810	30.7660
 1.3820	30.3630
 1.3830	29.9410
 1.3840	29.5030
 1.3850	29.0460
 1.3860	28.5780
 1.3870	28.0900
 1.3880	27.5980
 1.3890	27.0950
 1.3900	26.5810
 1.3910	26.0670
 1.3920	25.5480
 1.3930	25.0220
 1.3940	24.4980
 1.3950	23.9730
 1.3960	23.4530
 1.3970	22.9420
 1.3980	22.4390
 1.3990	21.9540
 1.4000	21.4810
 1.4010	21.0210
 1.4020	20.5790
 1.4030	20.1520
 1.4040	19.7430
 1.4050	19.3550
 1.4060	18.9860
 1.4070	18.6390
 1.4080	18.3110
 1.4090	18.0020
 1.4100	17.7140
 1.4110	17.4450
 1.4120	17.1950
 1.4130	16.9640
 1.4140	16.7480
 1.4150	16.5530
 1.4160	16.3720
 1.4170	16.2060
 1.4180	16.0550
 1.4190	15.9150
 1.4200	15.7890
 1.4210	15.6740
 1.4220	15.5700
 1.4230	15.4770
 1.4240	15.3920
 1.4250	15.3160
 1.4260	15.2510
 1.4270	15.1910
 1.4280	15.1390
 1.4290	15.0940
 1.4300	15.0560
 1.4310	15.0230
 1.4320	14.9980
 1.4330	14.9770
 1.4340	14.9610
 1.4350	14.9490
 1.4360	14.9420
 1.4370	14.9370
 1.4380	14.9370
 1.4390	14.9420
 1.4400	14.9480
 1.4410	14.9570
 1.4420	14.9690
 1.4430	14.9820
 1.4440	14.9980
 1.4450	15.0160
 1.4460	15.0360
 1.4470	15.0570
 1.4480	15.0790
 1.4490	15.1020
 1.4500	15.1270
 1.4510	15.1510
 1.4520	15.1770
 1.4530	15.2040
 1.4540	15.2320
 1.4550	15.2620
 1.4560	15.2940
 1.4570	15.3270
 1.4580	15.3630
 1.4590	15.4010
 1.4600	15.4410
 1.4610	15.4850
 1.4620	15.5320
 1.4630	15.5830
 1.4640	15.6380
 1.4650	15.6960
 1.4660	15.7600
 1.4670	15.8260
 1.4680	15.8980
 1.4690	15.9750
 1.4700	16.0550
 1.4710	16.1390
 1.4720	16.2260
 1.4730	16.3160
 1.4740	16.4090
 1.4750	16.5050
 1.4760	16.6050
 1.4770	16.7060
 1.4780	16.8080
 1.4790	16.9120
 1.4800	17.0170
 1.4810	17.1230
 1.4820	17.2330
 1.4830	17.3430
 1.4840	17.4540
 1.4850	17.5650
 1.4860	17.6760
 1.4870	17.7880
 1.4880	17.9000
 1.4890	18.0120
 1.4900	18.1250
 1.4910	18.2390
 1.4920	18.3530
 1.4930	18.4670
 1.4940	18.5810
 1.4950	18.6970
 1.4960	18.8100
 1.4970	18.9230
 1.4980	19.0370
 1.4990	19.1480
 1.5000	19.2620
 1.5010	19.3770
 1.5020	19.4900
 1.5030	19.6030
 1.5040	19.7150
 1.5050	19.8250
 1.5060	19.9360
 1.5070	20.0470
 1.5080	20.1580
 1.5090	20.2690
 1.5100	20.3790
 1.5110	20.4860
 1.5120	20.5940
 1.5130	20.7000
 1.5140	20.8040
 1.5150	20.9090
 1.5160	21.0140
 1.5170	21.1180
 1.5180	21.2220
 1.5190	21.3240
 1.5200	21.4250
 1.5210	21.5240
 1.5220	21.6230
 1.5230	21.7220
 1.5240	21.8190
 1.5250	21.9150
 1.5260	22.0110
 1.5270	22.1050
 1.5280	22.1980
 1.5290	22.2910
 1.5300	22.3810
 1.5310	22.4710
 1.5320	22.5590
 1.5330	22.6470
 1.5340	22.7330
 1.5350	22.8200
 1.5360	22.9070
 1.5370	22.9910
 1.5380	23.0760
 1.5390	23.1600
 1.5400	23.2430
 1.5410	23.3260
 1.5420	23.4080
 1.5430	23.4870
 1.5440	23.5650
 1.5450	23.6400
 1.5460	23.7150
 1.5470	23.7920
 1.5480	23.8680
 1.5490	23.9430
 1.5500	24.0180
 1.5510	24.0920
 1.5520	24.1660
 1.5530	24.2390
 1.5540	24.3110
 1.5550	24.3830
 1.5560	24.4530
 1.5570	24.5240
 1.5580	24.5930
 1.5590	24.6590
 1.5600	24.7270
 1.5610	24.7930
 1.5620	24.8590
 1.5630	24.9250
 1.5640	24.9900
 1.5650	25.0530
 1.5660	25.1160
 1.5670	25.1800
 1.5680	25.2420
 1.5690	25.3030
 1.5700	25.3650
 1.5710	25.4250
 1.5720	25.4860
 1.5730	25.5480
 1.5740	25.6090
 1.5750	25.6710
 1.5760	25.7320
 1.5770	25.7910
 1.5780	25.8500
 1.5790	25.9090
 1.5800	25.9670
 1.5810	26.0250
 1.5820	26.0840
 1.5830	26.1420
 1.5840	26.1990
 1.5850	26.2570
 1.5860	26.3140
 1.5870	26.3710
 1.5880	26.4300
 1.5890	26.4880
 1.5900	26.5460
 1.5910	26.6030
 1.5920	26.6600
 1.5930	26.7160
 1.5940	26.7730
 1.5950	26.8300
 1.5960	26.8860
 1.5970	26.9410
 1.5980	26.9960
 1.5990	27.0500
 1.6000	27.1030
 1.6010	27.1580
 1.6020	27.2110
 1.6030	27.2640
 1.6040	27.3150
 1.6050	27.3640
 1.6060	27.4110
 1.6070	27.4600
 1.6080	27.5080
 1.6090	27.5570
 1.6100	27.6040
 1.6110	27.6500
 1.6120	27.6950
 1.6130	27.7410
 1.6140	27.7860
 1.6150	27.8300
 1.6160	27.8740
 1.6170	27.9170
 1.6180	27.9580
 1.6190	27.9990
 1.6200	28.0390
 1.6210	28.0770
 1.6220	28.1150
 1.6230	28.1520
 1.6240	28.1880
 1.6250	28.2230
 1.6260	28.2570
 1.6270	28.2920
 1.6280	28.3260
 1.6290	28.3590
 1.6300	28.3910
 1.6310	28.4230
 1.6320	28.4550
 1.6330	28.4860
 1.6340	28.5160
 1.6350	28.5440
 1.6360	28.5700
 1.6370	28.5950
 1.6380	28.6200
 1.6390	28.6430
 1.6400	28.6630
 1.6410	28.6810
 1.6420	28.6960
 1.6430	28.7120
 1.6440	28.7260
 1.6450	28.7380
 1.6460	28.7480
 1.6470	28.7520
 1.6480	28.7550
 1.6490	28.7550
 1.6500	28.7510
 1.6510	28.7440
 1.6520	28.7340
 1.6530	28.7210
 1.6540	28.7070
 1.6550	28.6900
 1.6560	28.6700
 1.6570	28.6510
 1.6580	28.6280
 1.6590	28.6030
 1.6600	28.5790
 1.6610	28.5540
 1.6620	28.5290
 1.6630	28.5070
 1.6640	28.4850
 1.6650	28.4650
 1.6660	28.4460
 1.6670	28.4280
 1.6680	28.4120
 1.6690	28.3970
 1.6700	28.3820
 1.6710	28.3660
 1.6720	28.3490
 1.6730	28.3320
 1.6740	28.3150
 1.6750	28.2980
 1.6760	28.2810
 1.6770	28.2630
 1.6780	28.2420
 1.6790	28.2190
 1.6800	28.1940
 1.6810	28.1650
 1.6820	28.1330
 1.6830	28.0980
 1.6840	28.0610
 1.6850	28.0220
 1.6860	27.9810
 1.6870	27.9390
 1.6880	27.8950
 1.6890	27.8480
 1.6900	27.8020
 1.6910	27.7560
 1.6920	27.7090
 1.6930	27.6620
 1.6940	27.6140
 1.6950	27.5670
 1.6960	27.5180
 1.6970	27.4690
 1.6980	27.4180
 1.6990	27.3660
 1.7000	27.3140
 1.7010	27.2620
 1.7020	27.2090
 1.7030	27.1540
 1.7040	27.0990
 1.7050	27.0410
 1.7060	26.9840
 1.7070	26.9280
 1.7080	26.8710
 1.7090	26.8140
 1.7100	26.7590
 1.7110	26.7040
 1.7120	26.6510
 1.7130	26.5980
 1.7140	26.5460
 1.7150	26.4940
 1.7160	26.4470
 1.7170	26.4020
 1.7180	26.3570
 1.7190	26.3130
 1.7200	26.2690
 1.7210	26.2250
 1.7220	26.1840
 1.7230	26.1450
 1.7240	26.1060
 1.7250	26.0690
 1.7260	26.0300
 1.7270	25.9960
 1.7280	25.9650
 1.7290	25.9330
 1.7300	25.9060
 1.7310	25.8780
 1.7320	25.8500
 1.7330	25.8210
 1.7340	25.7920
 1.7350	25.7610
 1.7360	25.7310
 1.7370	25.6980
 1.7380	25.6650
 1.7390	25.6290
 1.7400	25.5910
 1.7410	25.5490
 1.7420	25.5050
 1.7430	25.4610
 1.7440	25.4140
 1.7450	25.3680
 1.7460	25.3220
 1.7470	25.2760
 1.7480	25.2280
 1.7490	25.1820
 1.7500	25.1370
 1.7510	25.0910
 1.7520	25.0470
 1.7530	25.0010
 1.7540	24.9550
 1.7550	24.9090
 1.7560	24.8670
 1.7570	24.8280
 1.7580	24.7910
 1.7590	24.7560
 1.7600	24.7230
 1.7610	24.6910
 1.7620	24.6600
 1.7630	24.6280
 1.7640	24.6000
 1.7650	24.5740
 1.7660	24.5490
 1.7670	24.5290
 1.7680	24.5050
 1.7690	24.4780
 1.7700	24.4530
 1.7710	24.4260
 1.7720	24.4020
 1.7730	24.3800
 1.7740	24.3580
 1.7750	24.3370
 1.7760	24.3160
 1.7770	24.2940
 1.7780	24.2730
 1.7790	24.2520
 1.7800	24.2330
 1.7810	24.2130
 1.7820	24.1980
 1.7830	24.1840
 1.7840	24.1710
 1.7850	24.1620
 1.7860	24.1520
 1.7870	24.1430
 1.7880	24.1370
 1.7890	24.1320
 1.7900	24.1250
 1.7910	24.1200
 1.7920	24.1120
 1.7930	24.1090
 1.7940	24.1110
 1.7950	24.1130
 1.7960	24.1180
 1.7970	24.1220
 1.7980	24.1250
 1.7990	24.1290
 1.8000	24.1330
 1.8010	24.1380
 1.8020	24.1450
 1.8030	24.1530
 1.8040	24.1640
 1.8050	24.1690
 1.8060	24.1700
 1.8070	24.1750
 1.8080	24.1760
 1.8090	24.1820
 1.8100	24.1930
 1.8110	24.1980
 1.8120	24.2010
 1.8130	24.2020
 1.8140	24.2050
 1.8150	24.2090
 1.8160	24.2120
 1.8170	24.2170
 1.8180	24.2200
 1.8190	24.2250
 1.8200	24.2270
 1.8210	24.2260
 1.8220	24.2240
 1.8230	24.2180
 1.8240	24.2150
 1.8250	24.2130
 1.8260	24.2090
 1.8270	24.2870
 1.8280	24.3640
 1.8290	24.4420
 1.8300	24.5190
 1.8310	24.5970
 1.8320	24.6750
 1.8330	24.7520
 1.8340	24.8300
 1.8350	24.8300
 1.8360	24.7960
 1.8370	24.7570
 1.8380	24.7130
 1.8390	24.6680
 1.8400	24.6230
 1.8410	24.5690
 1.8420	24.5110
 1.8430	24.4480
 1.8440	24.3800
 1.8450	24.3050
 1.8460	24.2230
 1.8470	24.1340
 1.8480	24.0370
 1.8490	23.9280
 1.8500	23.8100
 1.8510	23.6840
 1.8520	23.5480
 1.8530	23.3990
 1.8540	23.2410
 1.8550	23.0740
 1.8560	22.8900
 1.8570	22.6950
 1.8580	22.4870
 1.8590	22.2660
 1.8600	22.0320
 1.8610	21.7870
 1.8620	21.5270
 1.8630	21.2510
 1.8640	20.9620
 1.8650	20.6580
 1.8660	20.3360
 1.8670	19.9960
 1.8680	19.6380
 1.8690	19.2640
 1.8700	18.8720
 1.8710	18.4620
 1.8720	18.0450
 1.8730	17.6200
 1.8740	17.1830
 1.8750	16.7450
 1.8760	16.2960
 1.8770	15.8430
 1.8780	15.3880
 1.8790	14.9280
 1.8800	14.4770
 1.8810	14.0290
 1.8820	13.5810
 1.8830	13.1340
 1.8840	12.6960
 1.8850	12.2590
 1.8860	11.8300
 1.8870	11.4180
 1.8880	11.0170
 1.8890	10.6370
 1.8900	10.2790
 1.8910	 9.9370
 1.8920	 9.6120
 1.8930	 9.3080
 1.8940	 9.0210
 1.8950	 8.7520
 1.8960	 8.5060
 1.8970	 8.2800
 1.8980	 8.0740
 1.8990	 7.8870
 1.9000	 7.7140
 1.9010	 7.5600
 1.9020	 7.4180
 1.9030	 7.2910
 1.9040	 7.1770
 1.9050	 7.0780
 1.9060	 6.9890
 1.9070	 6.9100
 1.9080	 6.8430
 1.9090	 6.7820
 1.9100	 6.7300
 1.9110	 6.6830
 1.9120	 6.6440
 1.9130	 6.6080
 1.9140	 6.5790
 1.9150	 6.5510
 1.9160	 6.5290
 1.9170	 6.5120
 1.9180	 6.5000
 1.9190	 6.4890
 1.9200	 6.4830
 1.9210	 6.4790
 1.9220	 6.4740
 1.9230	 6.4700
 1.9240	 6.4700
 1.9250	 6.4720
 1.9260	 6.4740
 1.9270	 6.4820
 1.9280	 6.4900
 1.9290	 6.5010
 1.9300	 6.5130
 1.9310	 6.5250
 1.9320	 6.5380
 1.9330	 6.5520
 1.9340	 6.5640
 1.9350	 6.5790
 1.9360	 6.5950
 1.9370	 6.6130
 1.9380	 6.6320
 1.9390	 6.6550
 1.9400	 6.6790
 1.9410	 6.7020
 1.9420	 6.7240
 1.9430	 6.7480
 1.9440	 6.7740
 1.9450	 6.8010
 1.9460	 6.8300
 1.9470	 6.8620
 1.9480	 6.8920
 1.9490	 6.9230
 1.9500	 6.9550
 1.9510	 6.9860
 1.9520	 7.0190
 1.9530	 7.0510
 1.9540	 7.0850
 1.9550	 7.1200
 1.9560	 7.1570
 1.9570	 7.1940
 1.9580	 7.2350
 1.9590	 7.2750
 1.9600	 7.3180
 1.9610	 7.3590
 1.9620	 7.4010
 1.9630	 7.4440
 1.9640	 7.4870
 1.9650	 7.5300
 1.9660	 7.5750
 1.9670	 7.6220
 1.9680	 7.6690
 1.9690	 7.7180
 1.9700	 7.7680
 1.9710	 7.8210
 1.9720	 7.8730
 1.9730	 7.9250
 1.9740	 7.9780
 1.9750	 8.0310
 1.9760	 8.0840
 1.9770	 8.1360
 1.9780	 8.1900
 1.9790	 8.2450
 1.9800	 8.3000
 1.9810	 8.3570
 1.9820	 8.4160
 1.9830	 8.4730
 1.9840	 8.5300
 1.9850	 8.5880
 1.9860	 8.6440
 1.9870	 8.7040
 1.9880	 8.7660
 1.9890	 8.8260
 1.9900	 8.8880
 1.9910	 8.9490
 1.9920	 9.0090
 1.9930	 9.0670
 1.9940	 9.1270
 1.9950	 9.1870
 1.9960	 9.2480
 1.9970	 9.3110
 1.9980	 9.3730
 1.9990	 9.4370
 2.0000	 9.4980
 2.0010	 9.5570
 2.0020	 9.6170
 2.0030	 9.6760
 2.0040	 9.7340
 2.0050	 9.7920
 2.0060	 9.8520
 2.0070	 9.9100
 2.0080	 9.9680
 2.0090	10.0260
 2.0100	10.0820
 2.0110	10.1380
 2.0120	10.1930
 2.0130	10.2460
 2.0140	10.3020
 2.0150	10.3580
 2.0160	10.4150
 2.0170	10.4690
 2.0180	10.5210
 2.0190	10.5700
 2.0200	10.6180
 2.0210	10.6630
 2.0220	10.7090
 2.0230	10.7530
 2.0240	10.7990
 2.0250	10.8470
 2.0260	10.8910
 2.0270	10.9340
 2.0280	10.9770
 2.0290	11.0150
 2.0300	11.0540
 2.0310	11.0920
 2.0320	11.1300
 2.0330	11.1660
 2.0340	11.2020
 2.0350	11.2360
 2.0360	11.2690
 2.0370	11.3010
 2.0380	11.3330
 2.0390	11.3630
 2.0400	11.3920
 2.0410	11.4210
 2.0420	11.4490
 2.0430	11.4730
 2.0440	11.4990
 2.0450	11.5250
 2.0460	11.5510
 2.0470	11.5760
 2.0480	11.6010
 2.0490	11.6250
 2.0500	11.6480
 2.0510	11.6720
 2.0520	11.6960
 2.0530	11.7200
 2.0540	11.7440
 2.0550	11.7710
 2.0560	11.7960
 2.0570	11.8210
 2.0580	11.8470
 2.0590	11.8730
 2.0600	11.8990
 2.0610	11.9230
 2.0620	11.9470
 2.0630	11.9730
 2.0640	11.9980
 2.0650	12.0240
 2.0660	12.0520
 2.0670	12.0780
 2.0680	12.1020
 2.0690	12.1270
 2.0700	12.1490
 2.0710	12.1730
 2.0720	12.1980
 2.0730	12.2220
 2.0740	12.2460
 2.0750	12.2700
 2.0760	12.2950
 2.0770	12.3200
 2.0780	12.3450
 2.0790	12.3720
 2.0800	12.3970
 2.0810	12.4200
 2.0820	12.4440
 2.0830	12.4650
 2.0840	12.4880
 2.0850	12.5130
 2.0860	12.5370
 2.0870	12.5620
 2.0880	12.5860
 2.0890	12.6110
 2.0900	12.6340
 2.0910	12.6570
 2.0920	12.6800
 2.0930	12.7030
 2.0940	12.7260
 2.0950	12.7490
 2.0960	12.7740
 2.0970	12.7970
 2.0980	12.8170
 2.0990	12.8400
 2.1000	12.8610
 2.1010	12.8860
 2.1020	12.9160
 2.1030	12.9420
 2.1040	12.9690
 2.1050	12.9940
 2.1060	13.0170
 2.1070	13.0340
 2.1080	13.0560
 2.1090	13.0780
 2.1100	13.1030
 2.1110	13.1320
 2.1120	13.1580
 2.1130	13.1850
 2.1140	13.2100
 2.1150	13.2330
 2.1160	13.2550
 2.1170	13.2770
 2.1180	13.2990
 2.1190	13.3200
 2.1200	13.3400
 2.1210	13.3610
 2.1220	13.3790
 2.1230	13.3980
 2.1240	13.4170
 2.1250	13.4370
 2.1260	13.4580
 2.1270	13.4780
 2.1280	13.5010
 2.1290	13.5210
 2.1300	13.5400
 2.1310	13.5590
 2.1320	13.5750
 2.1330	13.5940
 2.1340	13.6130
 2.1350	13.6310
 2.1360	13.6490
 2.1370	13.6670
 2.1380	13.6850
 2.1390	13.7030
 2.1400	13.7210
 2.1410	13.7410
 2.1420	13.7630
 2.1430	13.7840
 2.1440	13.8060
 2.1450	13.8320
 2.1460	13.8560
 2.1470	13.8790
 2.1480	13.9020
 2.1490	13.9220
 2.1500	13.9450
 2.1510	13.9700
 2.1520	13.9950
 2.1530	14.0240
 2.1540	14.0500
 2.1550	14.0740
 2.1560	14.0980
 2.1570	14.1220
 2.1580	14.1470
 2.1590	14.1720
 2.1600	14.1980
 2.1610	14.2250
 2.1620	14.2530
 2.1630	14.2800
 2.1640	14.3080
 2.1650	14.3340
 2.1660	14.3580
 2.1670	14.3840
 2.1680	14.4090
 2.1690	14.4350
 2.1700	14.4640
 2.1710	14.4900
 2.1720	14.5150
 2.1730	14.5410
 2.1740	14.5650
 2.1750	14.5910
 2.1760	14.6190
 2.1770	14.6450
 2.1780	14.6690
 2.1790	14.6950
 2.1800	14.7210
 2.1810	14.7470
 2.1820	14.7750
 2.1830	14.8030
 2.1840	14.8310
 2.1850	14.8590
 2.1860	14.8850
 2.1870	14.9110
 2.1880	14.9360
 2.1890	14.9580
 2.1900	14.9810
 2.1910	15.0030
 2.1920	15.0270
 2.1930	15.0530
 2.1940	15.0800
 2.1950	15.1100
 2.1960	15.1390
 2.1970	15.1690
 2.1980	15.1960
 2.1990	15.2240
 2.2000	15.2480
 2.2010	15.2680
 2.2020	15.2880
 2.2030	15.3030
 2.2040	15.3210
 2.2050	15.3400
 2.2060	15.3610
 2.2070	15.3820
 2.2080	15.4050
 2.2090	15.4230
 2.2100	15.4400
 2.2110	15.4530
 2.2120	15.4640
 2.2130	15.4740
 2.2140	15.4800
 2.2150	15.4900
 2.2160	15.5000
 2.2170	15.5080
 2.2180	15.5180
 2.2190	15.5240
 2.2200	15.5280
 2.2210	15.5310
 2.2220	15.5340
 2.2230	15.5330
 2.2240	15.5260
 2.2250	15.5200
 2.2260	15.5110
 2.2270	15.5000
 2.2280	15.4890
 2.2290	15.4750
 2.2300	15.4570
 2.2310	15.4390
 2.2320	15.4200
 2.2330	15.4000
 2.2340	15.3750
 2.2350	15.3480
 2.2360	15.3170
 2.2370	15.2820
 2.2380	15.2410
 2.2390	15.1940
 2.2400	15.1460
 2.2410	15.0900
 2.2420	15.0370
 2.2430	14.9840
 2.2440	14.9290
 2.2450	14.8720
 2.2460	14.8140
 2.2470	14.7530
 2.2480	14.6920
 2.2490	14.6290
 2.2500	14.5650
 2.2510	14.4970
 2.2520	14.4310
 2.2530	14.3650
 2.2540	14.2970
 2.2550	14.2280
 2.2560	14.1590
 2.2570	14.0880
 2.2580	14.0180
 2.2590	13.9470
 2.2600	13.8770
 2.2610	13.8090
 2.2620	13.7400
 2.2630	13.6710
 2.2640	13.6050
 2.2650	13.5400
 2.2660	13.4700
 2.2670	13.4030
 2.2680	13.3340
 2.2690	13.2700
 2.2700	13.2070
 2.2710	13.1440
 2.2720	13.0860
 2.2730	13.0270
 2.2740	12.9650
 2.2750	12.9130
 2.2760	12.8680
 2.2770	12.8220
 2.2780	12.7840
 2.2790	12.7390
 2.2800	12.6890
 2.2810	12.6420
 2.2820	12.5930
 2.2830	12.5460
 2.2840	12.5010
 2.2850	12.4560
 2.2860	12.4100
 2.2870	12.3680
 2.2880	12.3280
 2.2890	12.2880
 2.2900	12.2530
 2.2910	12.2120
 2.2920	12.1690
 2.2930	12.1260
 2.2940	12.0780
 2.2950	12.0310
 2.2960	11.9810
 2.2970	11.9370
 2.2980	11.8940
 2.2990	11.8550
 2.3000	11.8160
 2.3010	11.7820
 2.3020	11.7500
 2.3030	11.7150
 2.3040	11.6850
 2.3050	11.6580
 2.3060	11.6320
 2.3070	11.6100
 2.3080	11.5900
 2.3090	11.5750
 2.3100	11.5540
 2.3110	11.5370
 2.3120	11.5260
 2.3130	11.5170
 2.3140	11.5090
 2.3150	11.5080
 2.3160	11.5000
 2.3170	11.4890
 2.3180	11.4790
 2.3190	11.4700
 2.3200	11.4580
 2.3210	11.4440
 2.3220	11.4300
 2.3230	11.4190
 2.3240	11.4010
 2.3250	11.3810
 2.3260	11.3570
 2.3270	11.3240
 2.3280	11.2950
 2.3290	11.2630
 2.3300	11.2340
 2.3310	11.2080
 2.3320	11.1760
 2.3330	11.1440
 2.3340	11.1100
 2.3350	11.0670
 2.3360	11.0310
 2.3370	10.9980
 2.3380	10.9640
 2.3390	10.9340
 2.3400	10.9030
 2.3410	10.8730
 2.3420	10.8410
 2.3430	10.8060
 2.3440	10.7740
 2.3450	10.7410
 2.3460	10.7130
 2.3470	10.6930
 2.3480	10.6690
 2.3490	10.6440
 2.3500	10.6220
 2.3510	10.6020
 2.3520	10.5800
 2.3530	10.5580
 2.3540	10.5410
 2.3550	10.5170
 2.3560	10.4960
 2.3570	10.4860
 2.3580	10.4720
 2.3590	10.4570
 2.3600	10.4380
 2.3610	10.4100
 2.3620	10.3830
 2.3630	10.3560
 2.3640	10.3290
 2.3650	10.3090
 2.3660	10.2880
 2.3670	10.2590
 2.3680	10.2360
 2.3690	10.2080
 2.3700	10.1720
 2.3710	10.1450
 2.3720	10.1170
 2.3730	10.0830
 2.3740	10.0490
 2.3750	10.0190
 2.3760	 9.9950
 2.3770	 9.9750
 2.3780	 9.9500
 2.3790	 9.9240
 2.3800	 9.8970
 2.3810	 9.8680
 2.3820	 9.8480
 2.3830	 9.8250
 2.3840	 9.7840
 2.3850	 9.7450
 2.3860	 9.7050
 2.3870	 9.6710
 2.3880	 9.6470
 2.3890	 9.6220
 2.3900	 9.5970
 2.3910	 9.5650
 2.3920	 9.5340
 2.3930	 9.5020
 2.3940	 9.4650
 2.3950	 9.4320
 2.3960	 9.3910
 2.3970	 9.3540
 2.3980	 9.3250
 2.3990	 9.2960
 2.4000	 9.2740
 2.4010	 9.2530
 2.4020	 9.2160
 2.4030	 9.1810
 2.4040	 9.1500
 2.4050	 9.1110
 2.4060	 9.0790
 2.4070	 9.0430
 2.4080	 9.0020
 2.4090	 8.9690
 2.4100	 8.9390
 2.4110	 8.9130
 2.4120	 8.8860
 2.4130	 8.8560
 2.4140	 8.8240
 2.4150	 8.7870
 2.4160	 8.7490
 2.4170	 8.7020
 2.4180	 8.6600
 2.4190	 8.6250
 2.4200	 8.5850
 2.4210	 8.5600
 2.4220	 8.5360
 2.4230	 8.5090
 2.4240	 8.4860
 2.4250	 8.4350
 2.4260	 8.3840
 2.4270	 8.3440
 2.4280	 8.3010
 2.4290	 8.2830
 2.4300	 8.2660
 2.4310	 8.2450
 2.4320	 8.2130
 2.4330	 8.1600
 2.4340	 8.1210
 2.4350	 8.0800
 2.4360	 8.0410
 2.4370	 8.0150
 2.4380	 7.9880
 2.4390	 7.9480
 2.4400	 7.8920
 2.4410	 7.8610
 2.4420	 7.8330
 2.4430	 7.7980
 2.4440	 7.7720
 2.4450	 7.7310
 2.4460	 7.6890
 2.4470	 7.6500
 2.4480	 7.6280
 2.4490	 7.6100
 2.4500	 7.5870
 2.4510	 7.5760
 2.4520	 7.5400
 2.4530	 7.4980
 2.4540	 7.4770
 2.4550	 7.4430
 2.4560	 7.4130
 2.4570	 7.3980
 2.4580	 7.3560
 2.4590	 7.3140
 2.4600	 7.2860
 2.4610	 7.2400
 2.4620	 7.2070
 2.4630	 7.1870
 2.4640	 7.1670
 2.4650	 7.1580
 2.4660	 7.1460
 2.4670	 7.1300
 2.4680	 7.1070
 2.4690	 7.0930
 2.4700	 7.0730
 2.4710	 7.0250
 2.4720	 6.9940
 2.4730	 6.9690
 2.4740	 6.9430
 2.4750	 6.9330
 2.4760	 6.9160
 2.4770	 6.8890
 2.4780	 6.8730
 2.4790	 6.8580
 2.4800	 6.8390
 2.4810	 6.8310
 2.4820	 6.8070
 2.4830	 6.7910
 2.4840	 6.7940
 2.4850	 6.7930
 2.4860	 6.7760
 2.4870	 6.7750
 2.4880	 6.7440
 2.4890	 6.7240
 2.4900	 6.7570
 2.4910	 6.7940
 2.4920	 6.8020
 2.4930	 6.7770
 2.4940	 6.7320
 2.4950	 6.6570
 2.4960	 6.6450
 2.4970	 6.6790
 2.4980	 6.6910
 2.4990	 6.6880
 2.5000	 6.6490
