Name: Quercus douglasii 1
Type: vegetation
Class: Tree
Genus: Quercus
Species: douglasii
Sample No.: VH170
Owner: UCSB
Wavelength Range: VSWIR
Origin: 34.7153; -120.0598; WGS84
Collection Date: 6/9/2013
Description: Samples were collected as part of the HyspIRI Airborne Campaign. 48 individual plants were sampled in three times in 2013 - spring  summer  and fall. The name of the sample includes a 1  2  or 3 which references a different individual of the species. Samples were taken to JPL and processed within 48 hours of collection. The same leaves were processed in the Nicolet and then measured using the ASD.
Measurement: Bidirectional reflectance
First Column: X
Second Column: Y
X Units: Wavelength (micrometers)
Y Units: Reflectance (percentage)
First X Value: 0.35
Last X Value: 2.5
Number of X Values: 2151
Additional Information: vegetation.tree.quercus.douglasii.vswir.vh170.ucsb.asd.ancillary.txt

 0.3500	 3.7520
 0.3510	 3.5440
 0.3520	 3.5860
 0.3530	 3.7370
 0.3540	 3.8160
 0.3550	 3.7530
 0.3560	 3.7940
 0.3570	 3.8720
 0.3580	 3.7910
 0.3590	 3.7560
 0.3600	 3.7860
 0.3610	 3.8730
 0.3620	 4.0170
 0.3630	 4.0190
 0.3640	 3.9320
 0.3650	 3.8610
 0.3660	 3.7970
 0.3670	 3.7600
 0.3680	 3.7620
 0.3690	 3.7940
 0.3700	 3.8390
 0.3710	 3.8730
 0.3720	 3.8710
 0.3730	 3.7710
 0.3740	 3.7900
 0.3750	 3.8540
 0.3760	 3.8400
 0.3770	 3.9340
 0.3780	 3.9710
 0.3790	 3.9160
 0.3800	 3.8770
 0.3810	 3.8960
 0.3820	 3.9540
 0.3830	 4.0060
 0.3840	 3.9490
 0.3850	 3.9720
 0.3860	 4.0440
 0.3870	 4.0750
 0.3880	 4.0810
 0.3890	 4.0620
 0.3900	 4.0490
 0.3910	 4.0680
 0.3920	 4.1900
 0.3930	 4.2380
 0.3940	 4.1460
 0.3950	 4.2170
 0.3960	 4.2840
 0.3970	 4.3230
 0.3980	 4.3800
 0.3990	 4.3810
 0.4000	 4.4040
 0.4010	 4.4630
 0.4020	 4.4900
 0.4030	 4.5420
 0.4040	 4.5950
 0.4050	 4.6210
 0.4060	 4.6770
 0.4070	 4.7360
 0.4080	 4.7830
 0.4090	 4.8250
 0.4100	 4.8700
 0.4110	 4.9190
 0.4120	 4.9670
 0.4130	 5.0250
 0.4140	 5.1040
 0.4150	 5.1700
 0.4160	 5.1870
 0.4170	 5.2270
 0.4180	 5.2890
 0.4190	 5.3550
 0.4200	 5.3950
 0.4210	 5.4740
 0.4220	 5.5430
 0.4230	 5.5760
 0.4240	 5.6230
 0.4250	 5.6720
 0.4260	 5.7150
 0.4270	 5.7580
 0.4280	 5.8060
 0.4290	 5.8530
 0.4300	 5.8940
 0.4310	 5.9370
 0.4320	 5.9920
 0.4330	 6.0480
 0.4340	 6.0950
 0.4350	 6.1340
 0.4360	 6.1690
 0.4370	 6.1970
 0.4380	 6.2110
 0.4390	 6.2300
 0.4400	 6.2570
 0.4410	 6.2840
 0.4420	 6.3010
 0.4430	 6.3210
 0.4440	 6.3440
 0.4450	 6.3680
 0.4460	 6.3790
 0.4470	 6.3970
 0.4480	 6.4290
 0.4490	 6.4520
 0.4500	 6.4740
 0.4510	 6.4940
 0.4520	 6.5090
 0.4530	 6.5300
 0.4540	 6.5470
 0.4550	 6.5570
 0.4560	 6.5670
 0.4570	 6.5760
 0.4580	 6.5870
 0.4590	 6.6020
 0.4600	 6.6140
 0.4610	 6.6180
 0.4620	 6.6160
 0.4630	 6.6200
 0.4640	 6.6290
 0.4650	 6.6490
 0.4660	 6.6640
 0.4670	 6.6600
 0.4680	 6.6670
 0.4690	 6.6720
 0.4700	 6.6720
 0.4710	 6.6890
 0.4720	 6.6990
 0.4730	 6.7040
 0.4740	 6.7070
 0.4750	 6.7040
 0.4760	 6.7060
 0.4770	 6.7190
 0.4780	 6.7230
 0.4790	 6.7230
 0.4800	 6.7310
 0.4810	 6.7460
 0.4820	 6.7410
 0.4830	 6.7460
 0.4840	 6.7620
 0.4850	 6.7690
 0.4860	 6.7810
 0.4870	 6.7850
 0.4880	 6.7810
 0.4890	 6.8010
 0.4900	 6.8180
 0.4910	 6.8240
 0.4920	 6.8320
 0.4930	 6.8360
 0.4940	 6.8480
 0.4950	 6.8710
 0.4960	 6.8970
 0.4970	 6.9100
 0.4980	 6.9200
 0.4990	 6.9420
 0.5000	 6.9690
 0.5010	 6.9920
 0.5020	 7.0170
 0.5030	 7.0430
 0.5040	 7.0790
 0.5050	 7.1220
 0.5060	 7.1670
 0.5070	 7.2160
 0.5080	 7.2720
 0.5090	 7.3400
 0.5100	 7.4110
 0.5110	 7.4820
 0.5120	 7.5650
 0.5130	 7.6660
 0.5140	 7.7720
 0.5150	 7.8920
 0.5160	 8.0180
 0.5170	 8.1520
 0.5180	 8.3090
 0.5190	 8.4660
 0.5200	 8.6240
 0.5210	 8.7910
 0.5220	 8.9620
 0.5230	 9.1380
 0.5240	 9.3140
 0.5250	 9.4870
 0.5260	 9.6510
 0.5270	 9.8110
 0.5280	 9.9680
 0.5290	10.1070
 0.5300	10.2400
 0.5310	10.3660
 0.5320	10.4820
 0.5330	10.5840
 0.5340	10.6780
 0.5350	10.7670
 0.5360	10.8450
 0.5370	10.9110
 0.5380	10.9690
 0.5390	11.0290
 0.5400	11.0920
 0.5410	11.1570
 0.5420	11.2210
 0.5430	11.2780
 0.5440	11.3310
 0.5450	11.3780
 0.5460	11.4180
 0.5470	11.4420
 0.5480	11.4630
 0.5490	11.4880
 0.5500	11.5080
 0.5510	11.5210
 0.5520	11.5260
 0.5530	11.5250
 0.5540	11.5080
 0.5550	11.4790
 0.5560	11.4380
 0.5570	11.3840
 0.5580	11.3250
 0.5590	11.2580
 0.5600	11.1820
 0.5610	11.1040
 0.5620	11.0190
 0.5630	10.9250
 0.5640	10.8230
 0.5650	10.7150
 0.5660	10.6040
 0.5670	10.4940
 0.5680	10.3820
 0.5690	10.2680
 0.5700	10.1530
 0.5710	10.0350
 0.5720	 9.9330
 0.5730	 9.8390
 0.5740	 9.7490
 0.5750	 9.6650
 0.5760	 9.5850
 0.5770	 9.5120
 0.5780	 9.4430
 0.5790	 9.3810
 0.5800	 9.3170
 0.5810	 9.2570
 0.5820	 9.2020
 0.5830	 9.1490
 0.5840	 9.0960
 0.5850	 9.0460
 0.5860	 9.0000
 0.5870	 8.9650
 0.5880	 8.9300
 0.5890	 8.8950
 0.5900	 8.8670
 0.5910	 8.8460
 0.5920	 8.8330
 0.5930	 8.8230
 0.5940	 8.8120
 0.5950	 8.8010
 0.5960	 8.7880
 0.5970	 8.7690
 0.5980	 8.7490
 0.5990	 8.7250
 0.6000	 8.6940
 0.6010	 8.6680
 0.6020	 8.6380
 0.6030	 8.5990
 0.6040	 8.5630
 0.6050	 8.5250
 0.6060	 8.4830
 0.6070	 8.4420
 0.6080	 8.3980
 0.6090	 8.3580
 0.6100	 8.3210
 0.6110	 8.2880
 0.6120	 8.2400
 0.6130	 8.1820
 0.6140	 8.1260
 0.6150	 8.0770
 0.6160	 8.0330
 0.6170	 7.9960
 0.6180	 7.9660
 0.6190	 7.9350
 0.6200	 7.9060
 0.6210	 7.8860
 0.6220	 7.8660
 0.6230	 7.8460
 0.6240	 7.8290
 0.6250	 7.8180
 0.6260	 7.8080
 0.6270	 7.8010
 0.6280	 7.7940
 0.6290	 7.7880
 0.6300	 7.7850
 0.6310	 7.7830
 0.6320	 7.7800
 0.6330	 7.7740
 0.6340	 7.7690
 0.6350	 7.7600
 0.6360	 7.7470
 0.6370	 7.7350
 0.6380	 7.7130
 0.6390	 7.6860
 0.6400	 7.6550
 0.6410	 7.6240
 0.6420	 7.5900
 0.6430	 7.5570
 0.6440	 7.5290
 0.6450	 7.4930
 0.6460	 7.4560
 0.6470	 7.4220
 0.6480	 7.3910
 0.6490	 7.3630
 0.6500	 7.3420
 0.6510	 7.3200
 0.6520	 7.2970
 0.6530	 7.2730
 0.6540	 7.2480
 0.6550	 7.2300
 0.6560	 7.2080
 0.6570	 7.1820
 0.6580	 7.1600
 0.6590	 7.1370
 0.6600	 7.1150
 0.6610	 7.0970
 0.6620	 7.0770
 0.6630	 7.0620
 0.6640	 7.0510
 0.6650	 7.0400
 0.6660	 7.0320
 0.6670	 7.0260
 0.6680	 7.0220
 0.6690	 7.0260
 0.6700	 7.0290
 0.6710	 7.0360
 0.6720	 7.0500
 0.6730	 7.0590
 0.6740	 7.0720
 0.6750	 7.0860
 0.6760	 7.1000
 0.6770	 7.1160
 0.6780	 7.1360
 0.6790	 7.1590
 0.6800	 7.1840
 0.6810	 7.2070
 0.6820	 7.2300
 0.6830	 7.2580
 0.6840	 7.2940
 0.6850	 7.3350
 0.6860	 7.3800
 0.6870	 7.4300
 0.6880	 7.4930
 0.6890	 7.5710
 0.6900	 7.6740
 0.6910	 7.8040
 0.6920	 7.9740
 0.6930	 8.1840
 0.6940	 8.4380
 0.6950	 8.7450
 0.6960	 9.1100
 0.6970	 9.5390
 0.6980	10.0240
 0.6990	10.5600
 0.7000	11.1470
 0.7010	11.7830
 0.7020	12.4580
 0.7030	13.1670
 0.7040	13.9000
 0.7050	14.6470
 0.7060	15.4090
 0.7070	16.1820
 0.7080	16.9590
 0.7090	17.7300
 0.7100	18.4990
 0.7110	19.2680
 0.7120	20.0310
 0.7130	20.7830
 0.7140	21.5280
 0.7150	22.2610
 0.7160	22.9780
 0.7170	23.6820
 0.7180	24.3730
 0.7190	25.0480
 0.7200	25.7070
 0.7210	26.3410
 0.7220	26.9580
 0.7230	27.5600
 0.7240	28.1410
 0.7250	28.6970
 0.7260	29.2310
 0.7270	29.7420
 0.7280	30.2370
 0.7290	30.7010
 0.7300	31.1400
 0.7310	31.5670
 0.7320	31.9660
 0.7330	32.3450
 0.7340	32.7070
 0.7350	33.0430
 0.7360	33.3620
 0.7370	33.6650
 0.7380	33.9520
 0.7390	34.2200
 0.7400	34.4710
 0.7410	34.7060
 0.7420	34.9260
 0.7430	35.1340
 0.7440	35.3320
 0.7450	35.5150
 0.7460	35.6730
 0.7470	35.8270
 0.7480	35.9700
 0.7490	36.0970
 0.7500	36.2170
 0.7510	36.3300
 0.7520	36.4360
 0.7530	36.5320
 0.7540	36.6200
 0.7550	36.7020
 0.7560	36.7760
 0.7570	36.8360
 0.7580	36.8990
 0.7590	36.9590
 0.7600	37.0100
 0.7610	37.0620
 0.7620	37.1090
 0.7630	37.1490
 0.7640	37.1830
 0.7650	37.2240
 0.7660	37.2590
 0.7670	37.2870
 0.7680	37.3130
 0.7690	37.3420
 0.7700	37.3700
 0.7710	37.3970
 0.7720	37.4210
 0.7730	37.4380
 0.7740	37.4550
 0.7750	37.4770
 0.7760	37.4950
 0.7770	37.5180
 0.7780	37.5410
 0.7790	37.5550
 0.7800	37.5720
 0.7810	37.5950
 0.7820	37.6190
 0.7830	37.6390
 0.7840	37.6500
 0.7850	37.6610
 0.7860	37.6770
 0.7870	37.6920
 0.7880	37.7080
 0.7890	37.7260
 0.7900	37.7430
 0.7910	37.7530
 0.7920	37.7670
 0.7930	37.7840
 0.7940	37.7980
 0.7950	37.8140
 0.7960	37.8250
 0.7970	37.8320
 0.7980	37.8420
 0.7990	37.8510
 0.8000	37.8580
 0.8010	37.8660
 0.8020	37.8790
 0.8030	37.8840
 0.8040	37.8840
 0.8050	37.8900
 0.8060	37.8950
 0.8070	37.9020
 0.8080	37.9070
 0.8090	37.9020
 0.8100	37.9060
 0.8110	37.9130
 0.8120	37.9180
 0.8130	37.9170
 0.8140	37.9130
 0.8150	37.9100
 0.8160	37.9100
 0.8170	37.9120
 0.8180	37.9080
 0.8190	37.9000
 0.8200	37.8940
 0.8210	37.8910
 0.8220	37.8910
 0.8230	37.8890
 0.8240	37.8810
 0.8250	37.8680
 0.8260	37.8580
 0.8270	37.8510
 0.8280	37.8460
 0.8290	37.8330
 0.8300	37.8190
 0.8310	37.8140
 0.8320	37.8070
 0.8330	37.8010
 0.8340	37.7890
 0.8350	37.7700
 0.8360	37.7610
 0.8370	37.7530
 0.8380	37.7440
 0.8390	37.7370
 0.8400	37.7260
 0.8410	37.7150
 0.8420	37.7060
 0.8430	37.6980
 0.8440	37.6890
 0.8450	37.6840
 0.8460	37.6830
 0.8470	37.6710
 0.8480	37.6600
 0.8490	37.6500
 0.8500	37.6370
 0.8510	37.6230
 0.8520	37.6210
 0.8530	37.6230
 0.8540	37.6130
 0.8550	37.6030
 0.8560	37.5900
 0.8570	37.5800
 0.8580	37.5870
 0.8590	37.5790
 0.8600	37.5670
 0.8610	37.5610
 0.8620	37.5610
 0.8630	37.5520
 0.8640	37.5390
 0.8650	37.5340
 0.8660	37.5280
 0.8670	37.5280
 0.8680	37.5260
 0.8690	37.5180
 0.8700	37.5130
 0.8710	37.5120
 0.8720	37.5110
 0.8730	37.5040
 0.8740	37.4990
 0.8750	37.4930
 0.8760	37.4910
 0.8770	37.5040
 0.8780	37.5010
 0.8790	37.4920
 0.8800	37.4870
 0.8810	37.4900
 0.8820	37.4850
 0.8830	37.4820
 0.8840	37.4860
 0.8850	37.4750
 0.8860	37.4720
 0.8870	37.4710
 0.8880	37.4670
 0.8890	37.4750
 0.8900	37.4720
 0.8910	37.4630
 0.8920	37.4640
 0.8930	37.4710
 0.8940	37.4730
 0.8950	37.4700
 0.8960	37.4700
 0.8970	37.4690
 0.8980	37.4660
 0.8990	37.4620
 0.9000	37.4620
 0.9010	37.4650
 0.9020	37.4660
 0.9030	37.4660
 0.9040	37.4700
 0.9050	37.4730
 0.9060	37.4740
 0.9070	37.4720
 0.9080	37.4680
 0.9090	37.4620
 0.9100	37.4630
 0.9110	37.4710
 0.9120	37.4720
 0.9130	37.4720
 0.9140	37.4730
 0.9150	37.4780
 0.9160	37.4880
 0.9170	37.4840
 0.9180	37.4760
 0.9190	37.4770
 0.9200	37.4780
 0.9210	37.4820
 0.9220	37.4820
 0.9230	37.4700
 0.9240	37.4610
 0.9250	37.4600
 0.9260	37.4610
 0.9270	37.4600
 0.9280	37.4610
 0.9290	37.4590
 0.9300	37.4500
 0.9310	37.4340
 0.9320	37.4250
 0.9330	37.4170
 0.9340	37.4090
 0.9350	37.4120
 0.9360	37.3990
 0.9370	37.3780
 0.9380	37.3590
 0.9390	37.3520
 0.9400	37.3480
 0.9410	37.3420
 0.9420	37.3280
 0.9430	37.2980
 0.9440	37.2790
 0.9450	37.2750
 0.9460	37.2710
 0.9470	37.2360
 0.9480	37.2070
 0.9490	37.1920
 0.9500	37.1840
 0.9510	37.1650
 0.9520	37.1230
 0.9530	37.0800
 0.9540	37.0560
 0.9550	37.0320
 0.9560	37.0030
 0.9570	36.9680
 0.9580	36.9340
 0.9590	36.9000
 0.9600	36.8750
 0.9610	36.8540
 0.9620	36.8300
 0.9630	36.8120
 0.9640	36.7940
 0.9650	36.7770
 0.9660	36.7660
 0.9670	36.7690
 0.9680	36.7620
 0.9690	36.7490
 0.9700	36.7450
 0.9710	36.7390
 0.9720	36.7250
 0.9730	36.7130
 0.9740	36.7160
 0.9750	36.7090
 0.9760	36.7080
 0.9770	36.7090
 0.9780	36.7020
 0.9790	36.6930
 0.9800	36.6790
 0.9810	36.6780
 0.9820	36.7070
 0.9830	36.7120
 0.9840	36.7160
 0.9850	36.7220
 0.9860	36.7200
 0.9870	36.7140
 0.9880	36.7100
 0.9890	36.7140
 0.9900	36.7280
 0.9910	36.7440
 0.9920	36.7420
 0.9930	36.7430
 0.9940	36.7700
 0.9950	36.7550
 0.9960	36.7580
 0.9970	36.7780
 0.9980	36.7920
 0.9990	36.8090
 1.0000	36.9020
 1.0010	37.0920
 1.0020	37.1940
 1.0030	37.1990
 1.0040	37.2090
 1.0050	37.2150
 1.0060	37.2220
 1.0070	37.2280
 1.0080	37.2340
 1.0090	37.2360
 1.0100	37.2440
 1.0110	37.2550
 1.0120	37.2650
 1.0130	37.2770
 1.0140	37.2870
 1.0150	37.2930
 1.0160	37.3050
 1.0170	37.3150
 1.0180	37.3180
 1.0190	37.3220
 1.0200	37.3280
 1.0210	37.3370
 1.0220	37.3420
 1.0230	37.3490
 1.0240	37.3580
 1.0250	37.3650
 1.0260	37.3720
 1.0270	37.3790
 1.0280	37.3840
 1.0290	37.3910
 1.0300	37.3970
 1.0310	37.4040
 1.0320	37.4130
 1.0330	37.4200
 1.0340	37.4280
 1.0350	37.4350
 1.0360	37.4400
 1.0370	37.4450
 1.0380	37.4520
 1.0390	37.4560
 1.0400	37.4650
 1.0410	37.4790
 1.0420	37.4880
 1.0430	37.4960
 1.0440	37.5040
 1.0450	37.5080
 1.0460	37.5140
 1.0470	37.5210
 1.0480	37.5270
 1.0490	37.5310
 1.0500	37.5360
 1.0510	37.5380
 1.0520	37.5410
 1.0530	37.5460
 1.0540	37.5540
 1.0550	37.5570
 1.0560	37.5600
 1.0570	37.5620
 1.0580	37.5610
 1.0590	37.5630
 1.0600	37.5670
 1.0610	37.5670
 1.0620	37.5630
 1.0630	37.5620
 1.0640	37.5620
 1.0650	37.5610
 1.0660	37.5620
 1.0670	37.5610
 1.0680	37.5580
 1.0690	37.5510
 1.0700	37.5490
 1.0710	37.5480
 1.0720	37.5450
 1.0730	37.5440
 1.0740	37.5390
 1.0750	37.5290
 1.0760	37.5250
 1.0770	37.5230
 1.0780	37.5190
 1.0790	37.5190
 1.0800	37.5140
 1.0810	37.5020
 1.0820	37.4950
 1.0830	37.4890
 1.0840	37.4830
 1.0850	37.4800
 1.0860	37.4760
 1.0870	37.4710
 1.0880	37.4630
 1.0890	37.4570
 1.0900	37.4520
 1.0910	37.4460
 1.0920	37.4390
 1.0930	37.4330
 1.0940	37.4250
 1.0950	37.4190
 1.0960	37.4120
 1.0970	37.4070
 1.0980	37.4040
 1.0990	37.3990
 1.1000	37.3950
 1.1010	37.3900
 1.1020	37.3830
 1.1030	37.3760
 1.1040	37.3700
 1.1050	37.3620
 1.1060	37.3560
 1.1070	37.3520
 1.1080	37.3450
 1.1090	37.3390
 1.1100	37.3330
 1.1110	37.3260
 1.1120	37.3190
 1.1130	37.3150
 1.1140	37.3060
 1.1150	37.2950
 1.1160	37.2850
 1.1170	37.2750
 1.1180	37.2650
 1.1190	37.2560
 1.1200	37.2460
 1.1210	37.2340
 1.1220	37.2190
 1.1230	37.2010
 1.1240	37.1840
 1.1250	37.1640
 1.1260	37.1440
 1.1270	37.1190
 1.1280	37.0930
 1.1290	37.0620
 1.1300	37.0280
 1.1310	36.9890
 1.1320	36.9480
 1.1330	36.9040
 1.1340	36.8570
 1.1350	36.8050
 1.1360	36.7480
 1.1370	36.6890
 1.1380	36.6250
 1.1390	36.5590
 1.1400	36.4900
 1.1410	36.4190
 1.1420	36.3460
 1.1430	36.2720
 1.1440	36.1970
 1.1450	36.1210
 1.1460	36.0460
 1.1470	35.9710
 1.1480	35.8990
 1.1490	35.8290
 1.1500	35.7620
 1.1510	35.6960
 1.1520	35.6360
 1.1530	35.5810
 1.1540	35.5300
 1.1550	35.4850
 1.1560	35.4440
 1.1570	35.4050
 1.1580	35.3710
 1.1590	35.3400
 1.1600	35.3140
 1.1610	35.2930
 1.1620	35.2730
 1.1630	35.2550
 1.1640	35.2410
 1.1650	35.2300
 1.1660	35.2220
 1.1670	35.2140
 1.1680	35.2090
 1.1690	35.2030
 1.1700	35.1960
 1.1710	35.1910
 1.1720	35.1860
 1.1730	35.1820
 1.1740	35.1790
 1.1750	35.1750
 1.1760	35.1700
 1.1770	35.1660
 1.1780	35.1570
 1.1790	35.1490
 1.1800	35.1410
 1.1810	35.1340
 1.1820	35.1270
 1.1830	35.1200
 1.1840	35.1140
 1.1850	35.1060
 1.1860	35.0980
 1.1870	35.0910
 1.1880	35.0830
 1.1890	35.0730
 1.1900	35.0670
 1.1910	35.0620
 1.1920	35.0580
 1.1930	35.0580
 1.1940	35.0570
 1.1950	35.0570
 1.1960	35.0590
 1.1970	35.0600
 1.1980	35.0610
 1.1990	35.0640
 1.2000	35.0660
 1.2010	35.0700
 1.2020	35.0760
 1.2030	35.0800
 1.2040	35.0840
 1.2050	35.0900
 1.2060	35.0950
 1.2070	35.1020
 1.2080	35.1120
 1.2090	35.1220
 1.2100	35.1300
 1.2110	35.1400
 1.2120	35.1490
 1.2130	35.1590
 1.2140	35.1700
 1.2150	35.1820
 1.2160	35.1950
 1.2170	35.2060
 1.2180	35.2180
 1.2190	35.2310
 1.2200	35.2440
 1.2210	35.2580
 1.2220	35.2720
 1.2230	35.2850
 1.2240	35.2990
 1.2250	35.3150
 1.2260	35.3290
 1.2270	35.3420
 1.2280	35.3570
 1.2290	35.3690
 1.2300	35.3800
 1.2310	35.3920
 1.2320	35.4040
 1.2330	35.4150
 1.2340	35.4260
 1.2350	35.4340
 1.2360	35.4440
 1.2370	35.4520
 1.2380	35.4610
 1.2390	35.4710
 1.2400	35.4800
 1.2410	35.4890
 1.2420	35.4980
 1.2430	35.5050
 1.2440	35.5160
 1.2450	35.5250
 1.2460	35.5320
 1.2470	35.5390
 1.2480	35.5460
 1.2490	35.5480
 1.2500	35.5520
 1.2510	35.5580
 1.2520	35.5620
 1.2530	35.5690
 1.2540	35.5750
 1.2550	35.5770
 1.2560	35.5780
 1.2570	35.5790
 1.2580	35.5780
 1.2590	35.5790
 1.2600	35.5810
 1.2610	35.5800
 1.2620	35.5790
 1.2630	35.5800
 1.2640	35.5760
 1.2650	35.5730
 1.2660	35.5700
 1.2670	35.5660
 1.2680	35.5630
 1.2690	35.5590
 1.2700	35.5550
 1.2710	35.5510
 1.2720	35.5470
 1.2730	35.5410
 1.2740	35.5350
 1.2750	35.5280
 1.2760	35.5210
 1.2770	35.5140
 1.2780	35.5070
 1.2790	35.5010
 1.2800	35.4950
 1.2810	35.4860
 1.2820	35.4800
 1.2830	35.4720
 1.2840	35.4620
 1.2850	35.4520
 1.2860	35.4420
 1.2870	35.4300
 1.2880	35.4180
 1.2890	35.4050
 1.2900	35.3910
 1.2910	35.3750
 1.2920	35.3550
 1.2930	35.3330
 1.2940	35.3100
 1.2950	35.2850
 1.2960	35.2580
 1.2970	35.2320
 1.2980	35.2040
 1.2990	35.1720
 1.3000	35.1400
 1.3010	35.1060
 1.3020	35.0700
 1.3030	35.0320
 1.3040	34.9910
 1.3050	34.9480
 1.3060	34.9040
 1.3070	34.8600
 1.3080	34.8170
 1.3090	34.7730
 1.3100	34.7270
 1.3110	34.6800
 1.3120	34.6300
 1.3130	34.5780
 1.3140	34.5240
 1.3150	34.4710
 1.3160	34.4160
 1.3170	34.3590
 1.3180	34.3020
 1.3190	34.2450
 1.3200	34.1830
 1.3210	34.1180
 1.3220	34.0540
 1.3230	33.9870
 1.3240	33.9180
 1.3250	33.8510
 1.3260	33.7800
 1.3270	33.7100
 1.3280	33.6400
 1.3290	33.5650
 1.3300	33.4900
 1.3310	33.4140
 1.3320	33.3360
 1.3330	33.2580
 1.3340	33.1790
 1.3350	33.0990
 1.3360	33.0170
 1.3370	32.9350
 1.3380	32.8550
 1.3390	32.7730
 1.3400	32.6920
 1.3410	32.6100
 1.3420	32.5270
 1.3430	32.4460
 1.3440	32.3640
 1.3450	32.2830
 1.3460	32.2030
 1.3470	32.1230
 1.3480	32.0420
 1.3490	31.9620
 1.3500	31.8830
 1.3510	31.8030
 1.3520	31.7230
 1.3530	31.6430
 1.3540	31.5620
 1.3550	31.4810
 1.3560	31.3990
 1.3570	31.3160
 1.3580	31.2330
 1.3590	31.1470
 1.3600	31.0600
 1.3610	30.9710
 1.3620	30.8780
 1.3630	30.7820
 1.3640	30.6810
 1.3650	30.5740
 1.3660	30.4640
 1.3670	30.3470
 1.3680	30.2230
 1.3690	30.0940
 1.3700	29.9560
 1.3710	29.8090
 1.3720	29.6530
 1.3730	29.4850
 1.3740	29.3050
 1.3750	29.1120
 1.3760	28.9040
 1.3770	28.6810
 1.3780	28.4400
 1.3790	28.1840
 1.3800	27.9120
 1.3810	27.6210
 1.3820	27.3160
 1.3830	26.9990
 1.3840	26.6640
 1.3850	26.3130
 1.3860	25.9500
 1.3870	25.5700
 1.3880	25.1840
 1.3890	24.7870
 1.3900	24.3800
 1.3910	23.9700
 1.3920	23.5520
 1.3930	23.1290
 1.3940	22.7050
 1.3950	22.2750
 1.3960	21.8490
 1.3970	21.4290
 1.3980	21.0130
 1.3990	20.6090
 1.4000	20.2140
 1.4010	19.8270
 1.4020	19.4550
 1.4030	19.0950
 1.4040	18.7490
 1.4050	18.4200
 1.4060	18.1050
 1.4070	17.8090
 1.4080	17.5310
 1.4090	17.2670
 1.4100	17.0230
 1.4110	16.7940
 1.4120	16.5810
 1.4130	16.3860
 1.4140	16.2040
 1.4150	16.0390
 1.4160	15.8880
 1.4170	15.7490
 1.4180	15.6240
 1.4190	15.5080
 1.4200	15.4030
 1.4210	15.3110
 1.4220	15.2270
 1.4230	15.1530
 1.4240	15.0880
 1.4250	15.0300
 1.4260	14.9800
 1.4270	14.9360
 1.4280	14.9000
 1.4290	14.8680
 1.4300	14.8420
 1.4310	14.8200
 1.4320	14.8030
 1.4330	14.7900
 1.4340	14.7820
 1.4350	14.7770
 1.4360	14.7770
 1.4370	14.7790
 1.4380	14.7830
 1.4390	14.7910
 1.4400	14.8000
 1.4410	14.8100
 1.4420	14.8240
 1.4430	14.8390
 1.4440	14.8560
 1.4450	14.8740
 1.4460	14.8930
 1.4470	14.9130
 1.4480	14.9330
 1.4490	14.9540
 1.4500	14.9750
 1.4510	14.9960
 1.4520	15.0190
 1.4530	15.0420
 1.4540	15.0670
 1.4550	15.0930
 1.4560	15.1190
 1.4570	15.1480
 1.4580	15.1800
 1.4590	15.2130
 1.4600	15.2500
 1.4610	15.2900
 1.4620	15.3330
 1.4630	15.3800
 1.4640	15.4310
 1.4650	15.4850
 1.4660	15.5440
 1.4670	15.6060
 1.4680	15.6730
 1.4690	15.7430
 1.4700	15.8170
 1.4710	15.8940
 1.4720	15.9730
 1.4730	16.0560
 1.4740	16.1430
 1.4750	16.2310
 1.4760	16.3230
 1.4770	16.4170
 1.4780	16.5110
 1.4790	16.6070
 1.4800	16.7030
 1.4810	16.8010
 1.4820	16.8990
 1.4830	16.9970
 1.4840	17.0960
 1.4850	17.1960
 1.4860	17.2960
 1.4870	17.3970
 1.4880	17.4960
 1.4890	17.5960
 1.4900	17.6960
 1.4910	17.7950
 1.4920	17.8960
 1.4930	17.9990
 1.4940	18.1000
 1.4950	18.2030
 1.4960	18.3040
 1.4970	18.4050
 1.4980	18.5040
 1.4990	18.6020
 1.5000	18.7010
 1.5010	18.8000
 1.5020	18.8980
 1.5030	18.9980
 1.5040	19.0960
 1.5050	19.1940
 1.5060	19.2910
 1.5070	19.3890
 1.5080	19.4850
 1.5090	19.5810
 1.5100	19.6770
 1.5110	19.7710
 1.5120	19.8640
 1.5130	19.9550
 1.5140	20.0460
 1.5150	20.1360
 1.5160	20.2260
 1.5170	20.3150
 1.5180	20.4030
 1.5190	20.4910
 1.5200	20.5770
 1.5210	20.6620
 1.5220	20.7470
 1.5230	20.8310
 1.5240	20.9130
 1.5250	20.9950
 1.5260	21.0770
 1.5270	21.1580
 1.5280	21.2380
 1.5290	21.3180
 1.5300	21.3960
 1.5310	21.4710
 1.5320	21.5450
 1.5330	21.6200
 1.5340	21.6930
 1.5350	21.7660
 1.5360	21.8380
 1.5370	21.9100
 1.5380	21.9800
 1.5390	22.0510
 1.5400	22.1190
 1.5410	22.1880
 1.5420	22.2560
 1.5430	22.3230
 1.5440	22.3920
 1.5450	22.4580
 1.5460	22.5230
 1.5470	22.5870
 1.5480	22.6490
 1.5490	22.7120
 1.5500	22.7740
 1.5510	22.8350
 1.5520	22.8960
 1.5530	22.9550
 1.5540	23.0150
 1.5550	23.0730
 1.5560	23.1290
 1.5570	23.1860
 1.5580	23.2410
 1.5590	23.2960
 1.5600	23.3530
 1.5610	23.4070
 1.5620	23.4610
 1.5630	23.5140
 1.5640	23.5670
 1.5650	23.6190
 1.5660	23.6710
 1.5670	23.7210
 1.5680	23.7720
 1.5690	23.8210
 1.5700	23.8700
 1.5710	23.9190
 1.5720	23.9660
 1.5730	24.0150
 1.5740	24.0620
 1.5750	24.1080
 1.5760	24.1560
 1.5770	24.2010
 1.5780	24.2470
 1.5790	24.2920
 1.5800	24.3360
 1.5810	24.3830
 1.5820	24.4280
 1.5830	24.4730
 1.5840	24.5190
 1.5850	24.5630
 1.5860	24.6080
 1.5870	24.6540
 1.5880	24.6980
 1.5890	24.7420
 1.5900	24.7860
 1.5910	24.8300
 1.5920	24.8730
 1.5930	24.9160
 1.5940	24.9580
 1.5950	24.9980
 1.5960	25.0380
 1.5970	25.0780
 1.5980	25.1190
 1.5990	25.1590
 1.6000	25.1990
 1.6010	25.2390
 1.6020	25.2770
 1.6030	25.3160
 1.6040	25.3530
 1.6050	25.3910
 1.6060	25.4290
 1.6070	25.4650
 1.6080	25.5020
 1.6090	25.5350
 1.6100	25.5680
 1.6110	25.6030
 1.6120	25.6360
 1.6130	25.6690
 1.6140	25.7030
 1.6150	25.7360
 1.6160	25.7670
 1.6170	25.7980
 1.6180	25.8280
 1.6190	25.8560
 1.6200	25.8840
 1.6210	25.9150
 1.6220	25.9430
 1.6230	25.9710
 1.6240	25.9990
 1.6250	26.0270
 1.6260	26.0520
 1.6270	26.0770
 1.6280	26.1000
 1.6290	26.1220
 1.6300	26.1420
 1.6310	26.1640
 1.6320	26.1850
 1.6330	26.2060
 1.6340	26.2280
 1.6350	26.2480
 1.6360	26.2660
 1.6370	26.2840
 1.6380	26.3020
 1.6390	26.3180
 1.6400	26.3330
 1.6410	26.3460
 1.6420	26.3580
 1.6430	26.3680
 1.6440	26.3770
 1.6450	26.3830
 1.6460	26.3870
 1.6470	26.3920
 1.6480	26.3940
 1.6490	26.3960
 1.6500	26.3970
 1.6510	26.3960
 1.6520	26.3930
 1.6530	26.3890
 1.6540	26.3840
 1.6550	26.3800
 1.6560	26.3750
 1.6570	26.3680
 1.6580	26.3610
 1.6590	26.3520
 1.6600	26.3430
 1.6610	26.3360
 1.6620	26.3290
 1.6630	26.3250
 1.6640	26.3210
 1.6650	26.3150
 1.6660	26.3090
 1.6670	26.3020
 1.6680	26.2970
 1.6690	26.2920
 1.6700	26.2850
 1.6710	26.2780
 1.6720	26.2690
 1.6730	26.2560
 1.6740	26.2450
 1.6750	26.2320
 1.6760	26.2150
 1.6770	26.1980
 1.6780	26.1790
 1.6790	26.1570
 1.6800	26.1380
 1.6810	26.1180
 1.6820	26.0930
 1.6830	26.0660
 1.6840	26.0370
 1.6850	26.0050
 1.6860	25.9710
 1.6870	25.9380
 1.6880	25.9050
 1.6890	25.8730
 1.6900	25.8390
 1.6910	25.8050
 1.6920	25.7690
 1.6930	25.7320
 1.6940	25.6950
 1.6950	25.6580
 1.6960	25.6210
 1.6970	25.5850
 1.6980	25.5490
 1.6990	25.5170
 1.7000	25.4810
 1.7010	25.4450
 1.7020	25.4090
 1.7030	25.3700
 1.7040	25.3330
 1.7050	25.2970
 1.7060	25.2600
 1.7070	25.2210
 1.7080	25.1830
 1.7090	25.1450
 1.7100	25.1060
 1.7110	25.0680
 1.7120	25.0310
 1.7130	24.9940
 1.7140	24.9570
 1.7150	24.9190
 1.7160	24.8810
 1.7170	24.8450
 1.7180	24.8100
 1.7190	24.7750
 1.7200	24.7420
 1.7210	24.7060
 1.7220	24.6700
 1.7230	24.6370
 1.7240	24.6010
 1.7250	24.5680
 1.7260	24.5370
 1.7270	24.5060
 1.7280	24.4770
 1.7290	24.4500
 1.7300	24.4240
 1.7310	24.3970
 1.7320	24.3720
 1.7330	24.3460
 1.7340	24.3190
 1.7350	24.2910
 1.7360	24.2630
 1.7370	24.2340
 1.7380	24.2040
 1.7390	24.1730
 1.7400	24.1430
 1.7410	24.1100
 1.7420	24.0750
 1.7430	24.0390
 1.7440	24.0000
 1.7450	23.9630
 1.7460	23.9250
 1.7470	23.8860
 1.7480	23.8460
 1.7490	23.8050
 1.7500	23.7640
 1.7510	23.7210
 1.7520	23.6790
 1.7530	23.6350
 1.7540	23.5910
 1.7550	23.5470
 1.7560	23.5030
 1.7570	23.4620
 1.7580	23.4200
 1.7590	23.3790
 1.7600	23.3410
 1.7610	23.3010
 1.7620	23.2630
 1.7630	23.2250
 1.7640	23.1890
 1.7650	23.1550
 1.7660	23.1210
 1.7670	23.0880
 1.7680	23.0560
 1.7690	23.0230
 1.7700	22.9920
 1.7710	22.9640
 1.7720	22.9360
 1.7730	22.9100
 1.7740	22.8830
 1.7750	22.8540
 1.7760	22.8280
 1.7770	22.8020
 1.7780	22.7790
 1.7790	22.7570
 1.7800	22.7350
 1.7810	22.7140
 1.7820	22.6940
 1.7830	22.6760
 1.7840	22.6590
 1.7850	22.6430
 1.7860	22.6270
 1.7870	22.6090
 1.7880	22.5930
 1.7890	22.5770
 1.7900	22.5650
 1.7910	22.5550
 1.7920	22.5480
 1.7930	22.5410
 1.7940	22.5340
 1.7950	22.5280
 1.7960	22.5220
 1.7970	22.5180
 1.7980	22.5170
 1.7990	22.5160
 1.8000	22.5190
 1.8010	22.5200
 1.8020	22.5210
 1.8030	22.5210
 1.8040	22.5180
 1.8050	22.5180
 1.8060	22.5160
 1.8070	22.5160
 1.8080	22.5190
 1.8090	22.5200
 1.8100	22.5240
 1.8110	22.5230
 1.8120	22.5230
 1.8130	22.5230
 1.8140	22.5210
 1.8150	22.5210
 1.8160	22.5190
 1.8170	22.5170
 1.8180	22.5190
 1.8190	22.5180
 1.8200	22.5160
 1.8210	22.5130
 1.8220	22.5100
 1.8230	22.5070
 1.8240	22.5030
 1.8250	22.4970
 1.8260	22.4920
 1.8270	22.4850
 1.8280	22.4780
 1.8290	22.4720
 1.8300	22.4340
 1.8310	22.3770
 1.8320	22.3290
 1.8330	22.3080
 1.8340	22.2860
 1.8350	22.2570
 1.8360	22.2270
 1.8370	22.1970
 1.8380	22.1630
 1.8390	22.1240
 1.8400	22.0860
 1.8410	22.0390
 1.8420	21.9850
 1.8430	21.9280
 1.8440	21.8660
 1.8450	21.7970
 1.8460	21.7220
 1.8470	21.6430
 1.8480	21.5530
 1.8490	21.4590
 1.8500	21.3570
 1.8510	21.2500
 1.8520	21.1300
 1.8530	21.0000
 1.8540	20.8670
 1.8550	20.7250
 1.8560	20.5710
 1.8570	20.4080
 1.8580	20.2320
 1.8590	20.0460
 1.8600	19.8450
 1.8610	19.6370
 1.8620	19.4170
 1.8630	19.1860
 1.8640	18.9430
 1.8650	18.6840
 1.8660	18.4080
 1.8670	18.1150
 1.8680	17.8060
 1.8690	17.4820
 1.8700	17.1450
 1.8710	16.7970
 1.8720	16.4400
 1.8730	16.0700
 1.8740	15.6910
 1.8750	15.3030
 1.8760	14.9040
 1.8770	14.5030
 1.8780	14.1010
 1.8790	13.6960
 1.8800	13.2940
 1.8810	12.8950
 1.8820	12.4940
 1.8830	12.0940
 1.8840	11.6970
 1.8850	11.3050
 1.8860	10.9210
 1.8870	10.5460
 1.8880	10.1850
 1.8890	 9.8420
 1.8900	 9.5150
 1.8910	 9.2020
 1.8920	 8.9070
 1.8930	 8.6310
 1.8940	 8.3640
 1.8950	 8.1170
 1.8960	 7.8920
 1.8970	 7.6830
 1.8980	 7.4930
 1.8990	 7.3240
 1.9000	 7.1630
 1.9010	 7.0190
 1.9020	 6.8890
 1.9030	 6.7720
 1.9040	 6.6690
 1.9050	 6.5780
 1.9060	 6.4980
 1.9070	 6.4260
 1.9080	 6.3590
 1.9090	 6.3020
 1.9100	 6.2530
 1.9110	 6.2090
 1.9120	 6.1760
 1.9130	 6.1450
 1.9140	 6.1190
 1.9150	 6.0980
 1.9160	 6.0770
 1.9170	 6.0610
 1.9180	 6.0510
 1.9190	 6.0430
 1.9200	 6.0390
 1.9210	 6.0360
 1.9220	 6.0350
 1.9230	 6.0350
 1.9240	 6.0360
 1.9250	 6.0380
 1.9260	 6.0390
 1.9270	 6.0490
 1.9280	 6.0550
 1.9290	 6.0640
 1.9300	 6.0780
 1.9310	 6.0910
 1.9320	 6.1070
 1.9330	 6.1220
 1.9340	 6.1390
 1.9350	 6.1560
 1.9360	 6.1740
 1.9370	 6.1940
 1.9380	 6.2160
 1.9390	 6.2380
 1.9400	 6.2610
 1.9410	 6.2860
 1.9420	 6.3110
 1.9430	 6.3370
 1.9440	 6.3650
 1.9450	 6.3900
 1.9460	 6.4180
 1.9470	 6.4500
 1.9480	 6.4810
 1.9490	 6.5140
 1.9500	 6.5450
 1.9510	 6.5780
 1.9520	 6.6080
 1.9530	 6.6410
 1.9540	 6.6770
 1.9550	 6.7130
 1.9560	 6.7540
 1.9570	 6.7910
 1.9580	 6.8330
 1.9590	 6.8710
 1.9600	 6.9090
 1.9610	 6.9450
 1.9620	 6.9880
 1.9630	 7.0240
 1.9640	 7.0690
 1.9650	 7.1130
 1.9660	 7.1550
 1.9670	 7.2010
 1.9680	 7.2460
 1.9690	 7.2910
 1.9700	 7.3390
 1.9710	 7.3870
 1.9720	 7.4320
 1.9730	 7.4810
 1.9740	 7.5290
 1.9750	 7.5790
 1.9760	 7.6320
 1.9770	 7.6830
 1.9780	 7.7410
 1.9790	 7.7940
 1.9800	 7.8470
 1.9810	 7.9000
 1.9820	 7.9520
 1.9830	 8.0060
 1.9840	 8.0580
 1.9850	 8.1140
 1.9860	 8.1710
 1.9870	 8.2330
 1.9880	 8.2930
 1.9890	 8.3550
 1.9900	 8.4120
 1.9910	 8.4690
 1.9920	 8.5280
 1.9930	 8.5850
 1.9940	 8.6420
 1.9950	 8.7020
 1.9960	 8.7610
 1.9970	 8.8220
 1.9980	 8.8790
 1.9990	 8.9390
 2.0000	 8.9990
 2.0010	 9.0570
 2.0020	 9.1150
 2.0030	 9.1720
 2.0040	 9.2280
 2.0050	 9.2860
 2.0060	 9.3420
 2.0070	 9.3990
 2.0080	 9.4580
 2.0090	 9.5150
 2.0100	 9.5730
 2.0110	 9.6270
 2.0120	 9.6810
 2.0130	 9.7320
 2.0140	 9.7840
 2.0150	 9.8350
 2.0160	 9.8870
 2.0170	 9.9370
 2.0180	 9.9870
 2.0190	10.0370
 2.0200	10.0840
 2.0210	10.1270
 2.0220	10.1730
 2.0230	10.2150
 2.0240	10.2590
 2.0250	10.3040
 2.0260	10.3460
 2.0270	10.3860
 2.0280	10.4290
 2.0290	10.4670
 2.0300	10.5040
 2.0310	10.5420
 2.0320	10.5800
 2.0330	10.6150
 2.0340	10.6500
 2.0350	10.6820
 2.0360	10.7100
 2.0370	10.7410
 2.0380	10.7740
 2.0390	10.8050
 2.0400	10.8400
 2.0410	10.8700
 2.0420	10.9000
 2.0430	10.9260
 2.0440	10.9530
 2.0450	10.9750
 2.0460	11.0000
 2.0470	11.0230
 2.0480	11.0470
 2.0490	11.0680
 2.0500	11.0910
 2.0510	11.1140
 2.0520	11.1370
 2.0530	11.1620
 2.0540	11.1870
 2.0550	11.2090
 2.0560	11.2300
 2.0570	11.2550
 2.0580	11.2790
 2.0590	11.3030
 2.0600	11.3310
 2.0610	11.3580
 2.0620	11.3860
 2.0630	11.4120
 2.0640	11.4380
 2.0650	11.4640
 2.0660	11.4860
 2.0670	11.5110
 2.0680	11.5350
 2.0690	11.5630
 2.0700	11.5890
 2.0710	11.6150
 2.0720	11.6440
 2.0730	11.6700
 2.0740	11.6950
 2.0750	11.7210
 2.0760	11.7450
 2.0770	11.7680
 2.0780	11.7930
 2.0790	11.8210
 2.0800	11.8450
 2.0810	11.8680
 2.0820	11.8930
 2.0830	11.9180
 2.0840	11.9430
 2.0850	11.9690
 2.0860	11.9930
 2.0870	12.0130
 2.0880	12.0350
 2.0890	12.0600
 2.0900	12.0860
 2.0910	12.1110
 2.0920	12.1380
 2.0930	12.1620
 2.0940	12.1840
 2.0950	12.2070
 2.0960	12.2310
 2.0970	12.2540
 2.0980	12.2770
 2.0990	12.2980
 2.1000	12.3140
 2.1010	12.3350
 2.1020	12.3590
 2.1030	12.3810
 2.1040	12.4070
 2.1050	12.4300
 2.1060	12.4500
 2.1070	12.4650
 2.1080	12.4840
 2.1090	12.5020
 2.1100	12.5230
 2.1110	12.5480
 2.1120	12.5700
 2.1130	12.5930
 2.1140	12.6140
 2.1150	12.6330
 2.1160	12.6530
 2.1170	12.6740
 2.1180	12.6960
 2.1190	12.7220
 2.1200	12.7440
 2.1210	12.7660
 2.1220	12.7850
 2.1230	12.8030
 2.1240	12.8160
 2.1250	12.8340
 2.1260	12.8540
 2.1270	12.8740
 2.1280	12.9000
 2.1290	12.9180
 2.1300	12.9310
 2.1310	12.9470
 2.1320	12.9600
 2.1330	12.9740
 2.1340	12.9870
 2.1350	13.0010
 2.1360	13.0130
 2.1370	13.0260
 2.1380	13.0410
 2.1390	13.0550
 2.1400	13.0680
 2.1410	13.0800
 2.1420	13.0940
 2.1430	13.1100
 2.1440	13.1250
 2.1450	13.1410
 2.1460	13.1560
 2.1470	13.1700
 2.1480	13.1840
 2.1490	13.1980
 2.1500	13.2100
 2.1510	13.2210
 2.1520	13.2320
 2.1530	13.2400
 2.1540	13.2510
 2.1550	13.2620
 2.1560	13.2740
 2.1570	13.2830
 2.1580	13.2950
 2.1590	13.3090
 2.1600	13.3220
 2.1610	13.3310
 2.1620	13.3400
 2.1630	13.3480
 2.1640	13.3500
 2.1650	13.3580
 2.1660	13.3690
 2.1670	13.3810
 2.1680	13.3960
 2.1690	13.4070
 2.1700	13.4160
 2.1710	13.4260
 2.1720	13.4330
 2.1730	13.4430
 2.1740	13.4570
 2.1750	13.4720
 2.1760	13.4910
 2.1770	13.5070
 2.1780	13.5230
 2.1790	13.5390
 2.1800	13.5510
 2.1810	13.5640
 2.1820	13.5760
 2.1830	13.5900
 2.1840	13.6060
 2.1850	13.6210
 2.1860	13.6370
 2.1870	13.6560
 2.1880	13.6730
 2.1890	13.6890
 2.1900	13.7060
 2.1910	13.7220
 2.1920	13.7400
 2.1930	13.7590
 2.1940	13.7770
 2.1950	13.7980
 2.1960	13.8180
 2.1970	13.8370
 2.1980	13.8560
 2.1990	13.8790
 2.2000	13.8960
 2.2010	13.9100
 2.2020	13.9240
 2.2030	13.9350
 2.2040	13.9460
 2.2050	13.9540
 2.2060	13.9640
 2.2070	13.9760
 2.2080	13.9870
 2.2090	13.9980
 2.2100	14.0120
 2.2110	14.0240
 2.2120	14.0340
 2.2130	14.0460
 2.2140	14.0610
 2.2150	14.0720
 2.2160	14.0830
 2.2170	14.0900
 2.2180	14.0940
 2.2190	14.0980
 2.2200	14.0970
 2.2210	14.0980
 2.2220	14.1010
 2.2230	14.1000
 2.2240	14.0980
 2.2250	14.0940
 2.2260	14.0900
 2.2270	14.0820
 2.2280	14.0750
 2.2290	14.0610
 2.2300	14.0390
 2.2310	14.0170
 2.2320	13.9910
 2.2330	13.9640
 2.2340	13.9360
 2.2350	13.9080
 2.2360	13.8780
 2.2370	13.8440
 2.2380	13.8120
 2.2390	13.7810
 2.2400	13.7460
 2.2410	13.7110
 2.2420	13.6690
 2.2430	13.6190
 2.2440	13.5750
 2.2450	13.5300
 2.2460	13.4860
 2.2470	13.4460
 2.2480	13.4020
 2.2490	13.3530
 2.2500	13.3070
 2.2510	13.2610
 2.2520	13.2150
 2.2530	13.1710
 2.2540	13.1260
 2.2550	13.0840
 2.2560	13.0380
 2.2570	12.9890
 2.2580	12.9430
 2.2590	12.8980
 2.2600	12.8510
 2.2610	12.8040
 2.2620	12.7600
 2.2630	12.7110
 2.2640	12.6650
 2.2650	12.6220
 2.2660	12.5770
 2.2670	12.5370
 2.2680	12.5000
 2.2690	12.4610
 2.2700	12.4220
 2.2710	12.3830
 2.2720	12.3420
 2.2730	12.3050
 2.2740	12.2700
 2.2750	12.2350
 2.2760	12.1990
 2.2770	12.1650
 2.2780	12.1340
 2.2790	12.1010
 2.2800	12.0700
 2.2810	12.0370
 2.2820	12.0010
 2.2830	11.9680
 2.2840	11.9360
 2.2850	11.9030
 2.2860	11.8720
 2.2870	11.8420
 2.2880	11.8120
 2.2890	11.7820
 2.2900	11.7560
 2.2910	11.7260
 2.2920	11.6940
 2.2930	11.6610
 2.2940	11.6240
 2.2950	11.5880
 2.2960	11.5460
 2.2970	11.5090
 2.2980	11.4720
 2.2990	11.4330
 2.3000	11.3990
 2.3010	11.3670
 2.3020	11.3340
 2.3030	11.3010
 2.3040	11.2650
 2.3050	11.2310
 2.3060	11.2000
 2.3070	11.1670
 2.3080	11.1370
 2.3090	11.1140
 2.3100	11.0880
 2.3110	11.0700
 2.3120	11.0510
 2.3130	11.0310
 2.3140	11.0170
 2.3150	11.0110
 2.3160	10.9970
 2.3170	10.9860
 2.3180	10.9670
 2.3190	10.9370
 2.3200	10.9170
 2.3210	10.9030
 2.3220	10.8850
 2.3230	10.8680
 2.3240	10.8510
 2.3250	10.8320
 2.3260	10.8120
 2.3270	10.7940
 2.3280	10.7700
 2.3290	10.7420
 2.3300	10.7140
 2.3310	10.6840
 2.3320	10.6530
 2.3330	10.6210
 2.3340	10.5880
 2.3350	10.5480
 2.3360	10.5170
 2.3370	10.4860
 2.3380	10.4580
 2.3390	10.4390
 2.3400	10.4140
 2.3410	10.3900
 2.3420	10.3620
 2.3430	10.3320
 2.3440	10.3030
 2.3450	10.2690
 2.3460	10.2410
 2.3470	10.2190
 2.3480	10.1950
 2.3490	10.1740
 2.3500	10.1530
 2.3510	10.1330
 2.3520	10.1090
 2.3530	10.0850
 2.3540	10.0590
 2.3550	10.0310
 2.3560	10.0030
 2.3570	 9.9840
 2.3580	 9.9670
 2.3590	 9.9540
 2.3600	 9.9540
 2.3610	 9.9510
 2.3620	 9.9360
 2.3630	 9.9130
 2.3640	 9.8870
 2.3650	 9.8600
 2.3660	 9.8340
 2.3670	 9.8180
 2.3680	 9.8000
 2.3690	 9.7690
 2.3700	 9.7390
 2.3710	 9.7120
 2.3720	 9.6820
 2.3730	 9.6600
 2.3740	 9.6450
 2.3750	 9.6280
 2.3760	 9.6020
 2.3770	 9.5690
 2.3780	 9.5280
 2.3790	 9.4930
 2.3800	 9.4640
 2.3810	 9.4430
 2.3820	 9.4210
 2.3830	 9.3850
 2.3840	 9.3490
 2.3850	 9.3140
 2.3860	 9.2760
 2.3870	 9.2450
 2.3880	 9.2120
 2.3890	 9.1820
 2.3900	 9.1550
 2.3910	 9.1300
 2.3920	 9.1120
 2.3930	 9.0930
 2.3940	 9.0640
 2.3950	 9.0240
 2.3960	 8.9880
 2.3970	 8.9510
 2.3980	 8.9190
 2.3990	 8.8960
 2.4000	 8.8720
 2.4010	 8.8310
 2.4020	 8.8010
 2.4030	 8.7760
 2.4040	 8.7390
 2.4050	 8.6980
 2.4060	 8.6530
 2.4070	 8.6000
 2.4080	 8.5490
 2.4090	 8.5100
 2.4100	 8.4730
 2.4110	 8.4400
 2.4120	 8.4060
 2.4130	 8.3670
 2.4140	 8.3380
 2.4150	 8.3070
 2.4160	 8.2770
 2.4170	 8.2510
 2.4180	 8.2140
 2.4190	 8.1740
 2.4200	 8.1390
 2.4210	 8.1130
 2.4220	 8.0890
 2.4230	 8.0680
 2.4240	 8.0350
 2.4250	 7.9900
 2.4260	 7.9420
 2.4270	 7.8940
 2.4280	 7.8640
 2.4290	 7.8350
 2.4300	 7.8030
 2.4310	 7.7740
 2.4320	 7.7290
 2.4330	 7.6860
 2.4340	 7.6550
 2.4350	 7.6050
 2.4360	 7.5670
 2.4370	 7.5320
 2.4380	 7.4810
 2.4390	 7.4550
 2.4400	 7.4340
 2.4410	 7.4000
 2.4420	 7.3670
 2.4430	 7.3260
 2.4440	 7.2760
 2.4450	 7.2440
 2.4460	 7.2140
 2.4470	 7.1770
 2.4480	 7.1460
 2.4490	 7.0950
 2.4500	 7.0590
 2.4510	 7.0170
 2.4520	 6.9820
 2.4530	 6.9820
 2.4540	 6.9550
 2.4550	 6.9280
 2.4560	 6.9080
 2.4570	 6.8500
 2.4580	 6.8110
 2.4590	 6.8130
 2.4600	 6.8080
 2.4610	 6.7860
 2.4620	 6.7680
 2.4630	 6.7260
 2.4640	 6.6640
 2.4650	 6.6320
 2.4660	 6.6090
 2.4670	 6.5750
 2.4680	 6.5570
 2.4690	 6.5110
 2.4700	 6.4760
 2.4710	 6.4530
 2.4720	 6.4110
 2.4730	 6.3650
 2.4740	 6.3470
 2.4750	 6.3250
 2.4760	 6.3260
 2.4770	 6.3680
 2.4780	 6.3670
 2.4790	 6.3490
 2.4800	 6.3290
 2.4810	 6.2920
 2.4820	 6.2730
 2.4830	 6.2250
 2.4840	 6.2010
 2.4850	 6.2120
 2.4860	 6.2030
 2.4870	 6.2100
 2.4880	 6.2390
 2.4890	 6.2090
 2.4900	 6.1970
 2.4910	 6.2000
 2.4920	 6.1870
 2.4930	 6.1990
 2.4940	 6.1720
 2.4950	 6.1320
 2.4960	 6.0800
 2.4970	 6.0160
 2.4980	 5.9910
 2.4990	 5.9940
 2.5000	 6.0430
