Name: Salvia leucophylla 3
Type: vegetation
Class: Shrub
Genus: Salvia
Species: leucophylla
Sample No.: VH096
Owner: UCSB
Wavelength Range: VSWIR
Origin: 34.698; -120.0477; WGS84
Collection Date: 4/21/2013
Description: Samples were collected as part of the HyspIRI Airborne Campaign. 48 individual plants were sampled in three times in 2013 - spring  summer  and fall. The name of the sample includes a 1  2  or 3 which references a different individual of the species. Samples were taken to JPL and processed within 48 hours of collection. The same leaves were processed in the Nicolet and then measured using the ASD.
Measurement: Bidirectional reflectance
First Column: X
Second Column: Y
X Units: Wavelength (micrometers)
Y Units: Reflectance (percentage)
First X Value: 0.35
Last X Value: 2.5
Number of X Values: 2151
Additional Information: vegetation.shrub.salvia.leucophylla.vswir.vh096.ucsb.asd.ancillary.txt

 0.3500	 3.3310
 0.3510	 3.2140
 0.3520	 3.1100
 0.3530	 3.1090
 0.3540	 3.2450
 0.3550	 3.2610
 0.3560	 3.3230
 0.3570	 3.3820
 0.3580	 3.3140
 0.3590	 3.3740
 0.3600	 3.4840
 0.3610	 3.5610
 0.3620	 3.5670
 0.3630	 3.5690
 0.3640	 3.6850
 0.3650	 3.9210
 0.3660	 3.8510
 0.3670	 3.8270
 0.3680	 3.9180
 0.3690	 3.9870
 0.3700	 4.0890
 0.3710	 4.2370
 0.3720	 4.3950
 0.3730	 4.4450
 0.3740	 4.4140
 0.3750	 4.4670
 0.3760	 4.7230
 0.3770	 4.8950
 0.3780	 5.0110
 0.3790	 5.1340
 0.3800	 5.3350
 0.3810	 5.5520
 0.3820	 5.7530
 0.3830	 5.9270
 0.3840	 6.0940
 0.3850	 6.2560
 0.3860	 6.4440
 0.3870	 6.6810
 0.3880	 6.9010
 0.3890	 7.0840
 0.3900	 7.2590
 0.3910	 7.5000
 0.3920	 7.7380
 0.3930	 7.9720
 0.3940	 8.2010
 0.3950	 8.3920
 0.3960	 8.5610
 0.3970	 8.7190
 0.3980	 8.8790
 0.3990	 9.1060
 0.4000	 9.3050
 0.4010	 9.4590
 0.4020	 9.6660
 0.4030	 9.8850
 0.4040	10.0670
 0.4050	10.1940
 0.4060	10.3330
 0.4070	10.4970
 0.4080	10.6670
 0.4090	10.8090
 0.4100	10.9700
 0.4110	11.1070
 0.4120	11.2200
 0.4130	11.4120
 0.4140	11.5820
 0.4150	11.7220
 0.4160	11.8550
 0.4170	11.9810
 0.4180	12.1110
 0.4190	12.2460
 0.4200	12.3790
 0.4210	12.5090
 0.4220	12.6450
 0.4230	12.7890
 0.4240	12.9040
 0.4250	13.0120
 0.4260	13.1130
 0.4270	13.2080
 0.4280	13.3160
 0.4290	13.4240
 0.4300	13.5260
 0.4310	13.6220
 0.4320	13.7270
 0.4330	13.8270
 0.4340	13.9100
 0.4350	13.9940
 0.4360	14.0710
 0.4370	14.1350
 0.4380	14.1860
 0.4390	14.2310
 0.4400	14.2830
 0.4410	14.3460
 0.4420	14.4110
 0.4430	14.4530
 0.4440	14.4840
 0.4450	14.5290
 0.4460	14.5860
 0.4470	14.6470
 0.4480	14.7030
 0.4490	14.7420
 0.4500	14.7780
 0.4510	14.8210
 0.4520	14.8700
 0.4530	14.9090
 0.4540	14.9430
 0.4550	14.9750
 0.4560	15.0030
 0.4570	15.0310
 0.4580	15.0640
 0.4590	15.0960
 0.4600	15.1080
 0.4610	15.1290
 0.4620	15.1570
 0.4630	15.1820
 0.4640	15.2010
 0.4650	15.2200
 0.4660	15.2400
 0.4670	15.2580
 0.4680	15.2770
 0.4690	15.2950
 0.4700	15.3100
 0.4710	15.3330
 0.4720	15.3510
 0.4730	15.3660
 0.4740	15.3830
 0.4750	15.3960
 0.4760	15.4040
 0.4770	15.4110
 0.4780	15.4160
 0.4790	15.4400
 0.4800	15.4680
 0.4810	15.4800
 0.4820	15.4840
 0.4830	15.4920
 0.4840	15.5100
 0.4850	15.5400
 0.4860	15.5620
 0.4870	15.5810
 0.4880	15.6000
 0.4890	15.6100
 0.4900	15.6250
 0.4910	15.6510
 0.4920	15.6820
 0.4930	15.7010
 0.4940	15.7210
 0.4950	15.7480
 0.4960	15.7710
 0.4970	15.7910
 0.4980	15.8100
 0.4990	15.8340
 0.5000	15.8760
 0.5010	15.9110
 0.5020	15.9410
 0.5030	15.9850
 0.5040	16.0250
 0.5050	16.0670
 0.5060	16.1160
 0.5070	16.1730
 0.5080	16.2260
 0.5090	16.2770
 0.5100	16.3330
 0.5110	16.3960
 0.5120	16.4700
 0.5130	16.5520
 0.5140	16.6300
 0.5150	16.7140
 0.5160	16.7980
 0.5170	16.8800
 0.5180	16.9790
 0.5190	17.0800
 0.5200	17.1810
 0.5210	17.2840
 0.5220	17.3950
 0.5230	17.5020
 0.5240	17.6020
 0.5250	17.7020
 0.5260	17.8030
 0.5270	17.9010
 0.5280	17.9920
 0.5290	18.0810
 0.5300	18.1700
 0.5310	18.2580
 0.5320	18.3390
 0.5330	18.4110
 0.5340	18.4780
 0.5350	18.5430
 0.5360	18.6080
 0.5370	18.6680
 0.5380	18.7270
 0.5390	18.7890
 0.5400	18.8530
 0.5410	18.9240
 0.5420	19.0000
 0.5430	19.0700
 0.5440	19.1260
 0.5450	19.1700
 0.5460	19.2090
 0.5470	19.2240
 0.5480	19.2340
 0.5490	19.2520
 0.5500	19.2820
 0.5510	19.3050
 0.5520	19.3210
 0.5530	19.3330
 0.5540	19.3370
 0.5550	19.3290
 0.5560	19.3170
 0.5570	19.3110
 0.5580	19.2890
 0.5590	19.2620
 0.5600	19.2410
 0.5610	19.2230
 0.5620	19.2110
 0.5630	19.2020
 0.5640	19.1900
 0.5650	19.1630
 0.5660	19.1220
 0.5670	19.0740
 0.5680	19.0220
 0.5690	18.9730
 0.5700	18.9230
 0.5710	18.8700
 0.5720	18.8170
 0.5730	18.7770
 0.5740	18.7540
 0.5750	18.7370
 0.5760	18.7270
 0.5770	18.7030
 0.5780	18.6590
 0.5790	18.6160
 0.5800	18.5890
 0.5810	18.5790
 0.5820	18.5800
 0.5830	18.5700
 0.5840	18.5440
 0.5850	18.5130
 0.5860	18.4960
 0.5870	18.4770
 0.5880	18.4600
 0.5890	18.4530
 0.5900	18.4600
 0.5910	18.4820
 0.5920	18.5060
 0.5930	18.5160
 0.5940	18.5210
 0.5950	18.5260
 0.5960	18.5300
 0.5970	18.5230
 0.5980	18.5180
 0.5990	18.5110
 0.6000	18.4950
 0.6010	18.4750
 0.6020	18.4560
 0.6030	18.4410
 0.6040	18.4320
 0.6050	18.4220
 0.6060	18.4060
 0.6070	18.3860
 0.6080	18.3660
 0.6090	18.3520
 0.6100	18.3500
 0.6110	18.3560
 0.6120	18.3250
 0.6130	18.2710
 0.6140	18.2150
 0.6150	18.1660
 0.6160	18.1280
 0.6170	18.1000
 0.6180	18.0740
 0.6190	18.0560
 0.6200	18.0350
 0.6210	18.0120
 0.6220	18.0010
 0.6230	17.9950
 0.6240	17.9870
 0.6250	17.9750
 0.6260	17.9680
 0.6270	17.9620
 0.6280	17.9590
 0.6290	17.9640
 0.6300	17.9710
 0.6310	17.9730
 0.6320	17.9680
 0.6330	17.9660
 0.6340	17.9610
 0.6350	17.9500
 0.6360	17.9320
 0.6370	17.9210
 0.6380	17.9030
 0.6390	17.8790
 0.6400	17.8550
 0.6410	17.8270
 0.6420	17.7960
 0.6430	17.7610
 0.6440	17.7240
 0.6450	17.6930
 0.6460	17.6620
 0.6470	17.6240
 0.6480	17.5860
 0.6490	17.5520
 0.6500	17.5210
 0.6510	17.4880
 0.6520	17.4620
 0.6530	17.4380
 0.6540	17.4100
 0.6550	17.3770
 0.6560	17.3440
 0.6570	17.3080
 0.6580	17.2620
 0.6590	17.2170
 0.6600	17.1720
 0.6610	17.1250
 0.6620	17.0750
 0.6630	17.0330
 0.6640	16.9940
 0.6650	16.9550
 0.6660	16.9220
 0.6670	16.8940
 0.6680	16.8700
 0.6690	16.8490
 0.6700	16.8360
 0.6710	16.8280
 0.6720	16.8240
 0.6730	16.8270
 0.6740	16.8330
 0.6750	16.8380
 0.6760	16.8450
 0.6770	16.8600
 0.6780	16.8780
 0.6790	16.8980
 0.6800	16.9250
 0.6810	16.9550
 0.6820	16.9940
 0.6830	17.0440
 0.6840	17.1050
 0.6850	17.1780
 0.6860	17.2660
 0.6870	17.3760
 0.6880	17.5050
 0.6890	17.6570
 0.6900	17.8340
 0.6910	18.0390
 0.6920	18.2710
 0.6930	18.5310
 0.6940	18.8200
 0.6950	19.1400
 0.6960	19.4880
 0.6970	19.8620
 0.6980	20.2600
 0.6990	20.6800
 0.7000	21.1120
 0.7010	21.5600
 0.7020	22.0310
 0.7030	22.5070
 0.7040	22.9870
 0.7050	23.4730
 0.7060	23.9620
 0.7070	24.4550
 0.7080	24.9500
 0.7090	25.4460
 0.7100	25.9310
 0.7110	26.4270
 0.7120	26.9310
 0.7130	27.4180
 0.7140	27.9070
 0.7150	28.4010
 0.7160	28.8940
 0.7170	29.3730
 0.7180	29.8530
 0.7190	30.3300
 0.7200	30.8000
 0.7210	31.2610
 0.7220	31.7150
 0.7230	32.1620
 0.7240	32.5950
 0.7250	33.0320
 0.7260	33.4520
 0.7270	33.8430
 0.7280	34.2300
 0.7290	34.6050
 0.7300	34.9610
 0.7310	35.2960
 0.7320	35.6280
 0.7330	35.9450
 0.7340	36.2430
 0.7350	36.5330
 0.7360	36.8100
 0.7370	37.0740
 0.7380	37.3240
 0.7390	37.5510
 0.7400	37.7740
 0.7410	37.9920
 0.7420	38.1990
 0.7430	38.3850
 0.7440	38.5630
 0.7450	38.7340
 0.7460	38.8920
 0.7470	39.0420
 0.7480	39.1810
 0.7490	39.3100
 0.7500	39.4340
 0.7510	39.5610
 0.7520	39.6810
 0.7530	39.7860
 0.7540	39.8860
 0.7550	39.9830
 0.7560	40.0740
 0.7570	40.1560
 0.7580	40.2430
 0.7590	40.3250
 0.7600	40.3990
 0.7610	40.4700
 0.7620	40.5430
 0.7630	40.6160
 0.7640	40.6850
 0.7650	40.7450
 0.7660	40.8050
 0.7670	40.8700
 0.7680	40.9370
 0.7690	40.9890
 0.7700	41.0420
 0.7710	41.1040
 0.7720	41.1580
 0.7730	41.2090
 0.7740	41.2600
 0.7750	41.3140
 0.7760	41.3650
 0.7770	41.4210
 0.7780	41.4770
 0.7790	41.5290
 0.7800	41.5800
 0.7810	41.6310
 0.7820	41.6820
 0.7830	41.7230
 0.7840	41.7750
 0.7850	41.8260
 0.7860	41.8680
 0.7870	41.9210
 0.7880	41.9700
 0.7890	42.0170
 0.7900	42.0630
 0.7910	42.1060
 0.7920	42.1550
 0.7930	42.2070
 0.7940	42.2500
 0.7950	42.2860
 0.7960	42.3220
 0.7970	42.3650
 0.7980	42.4120
 0.7990	42.4540
 0.8000	42.4910
 0.8010	42.5290
 0.8020	42.5680
 0.8030	42.6060
 0.8040	42.6400
 0.8050	42.6700
 0.8060	42.6990
 0.8070	42.7350
 0.8080	42.7740
 0.8090	42.8020
 0.8100	42.8290
 0.8110	42.8580
 0.8120	42.8900
 0.8130	42.9190
 0.8140	42.9410
 0.8150	42.9590
 0.8160	42.9780
 0.8170	43.0080
 0.8180	43.0380
 0.8190	43.0650
 0.8200	43.0880
 0.8210	43.1100
 0.8220	43.1330
 0.8230	43.1530
 0.8240	43.1670
 0.8250	43.1910
 0.8260	43.2100
 0.8270	43.2190
 0.8280	43.2370
 0.8290	43.2520
 0.8300	43.2650
 0.8310	43.2830
 0.8320	43.3000
 0.8330	43.3200
 0.8340	43.3380
 0.8350	43.3490
 0.8360	43.3610
 0.8370	43.3760
 0.8380	43.3950
 0.8390	43.4180
 0.8400	43.4330
 0.8410	43.4520
 0.8420	43.4800
 0.8430	43.5010
 0.8440	43.5140
 0.8450	43.5320
 0.8460	43.5620
 0.8470	43.5820
 0.8480	43.6110
 0.8490	43.6360
 0.8500	43.6480
 0.8510	43.6810
 0.8520	43.7040
 0.8530	43.7210
 0.8540	43.7520
 0.8550	43.7790
 0.8560	43.7970
 0.8570	43.8130
 0.8580	43.8460
 0.8590	43.8810
 0.8600	43.9100
 0.8610	43.9310
 0.8620	43.9550
 0.8630	43.9910
 0.8640	44.0300
 0.8650	44.0610
 0.8660	44.0910
 0.8670	44.1260
 0.8680	44.1640
 0.8690	44.2010
 0.8700	44.2330
 0.8710	44.2600
 0.8720	44.2960
 0.8730	44.3500
 0.8740	44.3850
 0.8750	44.4110
 0.8760	44.4410
 0.8770	44.4880
 0.8780	44.5260
 0.8790	44.5650
 0.8800	44.6130
 0.8810	44.6630
 0.8820	44.7080
 0.8830	44.7500
 0.8840	44.7910
 0.8850	44.8310
 0.8860	44.8730
 0.8870	44.9190
 0.8880	44.9650
 0.8890	45.0020
 0.8900	45.0440
 0.8910	45.0930
 0.8920	45.1430
 0.8930	45.1950
 0.8940	45.2370
 0.8950	45.2720
 0.8960	45.3120
 0.8970	45.3510
 0.8980	45.4010
 0.8990	45.4570
 0.9000	45.4950
 0.9010	45.5340
 0.9020	45.5870
 0.9030	45.6480
 0.9040	45.6780
 0.9050	45.7110
 0.9060	45.7530
 0.9070	45.8010
 0.9080	45.8460
 0.9090	45.8890
 0.9100	45.9260
 0.9110	45.9580
 0.9120	46.0090
 0.9130	46.0550
 0.9140	46.0980
 0.9150	46.1380
 0.9160	46.1660
 0.9170	46.1950
 0.9180	46.2280
 0.9190	46.2620
 0.9200	46.3000
 0.9210	46.3370
 0.9220	46.3720
 0.9230	46.4070
 0.9240	46.4430
 0.9250	46.4610
 0.9260	46.4710
 0.9270	46.4950
 0.9280	46.5140
 0.9290	46.5360
 0.9300	46.5620
 0.9310	46.5790
 0.9320	46.6030
 0.9330	46.6150
 0.9340	46.6150
 0.9350	46.6230
 0.9360	46.6300
 0.9370	46.6400
 0.9380	46.6530
 0.9390	46.6670
 0.9400	46.6640
 0.9410	46.6570
 0.9420	46.6590
 0.9430	46.6640
 0.9440	46.6490
 0.9450	46.6300
 0.9460	46.6180
 0.9470	46.5970
 0.9480	46.5760
 0.9490	46.5530
 0.9500	46.5260
 0.9510	46.5120
 0.9520	46.4850
 0.9530	46.4420
 0.9540	46.3920
 0.9550	46.3580
 0.9560	46.3210
 0.9570	46.2850
 0.9580	46.2540
 0.9590	46.2060
 0.9600	46.1700
 0.9610	46.1560
 0.9620	46.1540
 0.9630	46.1260
 0.9640	46.1110
 0.9650	46.1040
 0.9660	46.0870
 0.9670	46.0910
 0.9680	46.0900
 0.9690	46.0830
 0.9700	46.0860
 0.9710	46.0980
 0.9720	46.1070
 0.9730	46.1010
 0.9740	46.0810
 0.9750	46.0860
 0.9760	46.1130
 0.9770	46.1370
 0.9780	46.1380
 0.9790	46.1300
 0.9800	46.1330
 0.9810	46.1500
 0.9820	46.1740
 0.9830	46.2040
 0.9840	46.2260
 0.9850	46.2410
 0.9860	46.2620
 0.9870	46.2910
 0.9880	46.3140
 0.9890	46.3210
 0.9900	46.3160
 0.9910	46.3430
 0.9920	46.3330
 0.9930	46.3230
 0.9940	46.3130
 0.9950	46.3030
 0.9960	46.2930
 0.9970	46.2830
 0.9980	46.2740
 0.9990	46.2640
 1.0000	46.2540
 1.0010	46.2440
 1.0020	46.2340
 1.0030	46.2240
 1.0040	46.2140
 1.0050	46.2040
 1.0060	46.1940
 1.0070	46.1850
 1.0080	46.1750
 1.0090	46.1650
 1.0100	46.1650
 1.0110	46.1920
 1.0120	46.2210
 1.0130	46.2520
 1.0140	46.2800
 1.0150	46.3050
 1.0160	46.3330
 1.0170	46.3600
 1.0180	46.3830
 1.0190	46.4110
 1.0200	46.4420
 1.0210	46.4680
 1.0220	46.4980
 1.0230	46.5250
 1.0240	46.5530
 1.0250	46.5760
 1.0260	46.5960
 1.0270	46.6190
 1.0280	46.6430
 1.0290	46.6680
 1.0300	46.6990
 1.0310	46.7250
 1.0320	46.7510
 1.0330	46.7740
 1.0340	46.7930
 1.0350	46.8120
 1.0360	46.8320
 1.0370	46.8510
 1.0380	46.8710
 1.0390	46.8910
 1.0400	46.9110
 1.0410	46.9330
 1.0420	46.9520
 1.0430	46.9740
 1.0440	46.9930
 1.0450	47.0080
 1.0460	47.0270
 1.0470	47.0480
 1.0480	47.0670
 1.0490	47.0840
 1.0500	47.1030
 1.0510	47.1220
 1.0520	47.1400
 1.0530	47.1570
 1.0540	47.1780
 1.0550	47.1930
 1.0560	47.2040
 1.0570	47.2190
 1.0580	47.2330
 1.0590	47.2480
 1.0600	47.2640
 1.0610	47.2800
 1.0620	47.2960
 1.0630	47.3110
 1.0640	47.3260
 1.0650	47.3400
 1.0660	47.3530
 1.0670	47.3660
 1.0680	47.3810
 1.0690	47.3980
 1.0700	47.4080
 1.0710	47.4150
 1.0720	47.4220
 1.0730	47.4220
 1.0740	47.4300
 1.0750	47.4430
 1.0760	47.4540
 1.0770	47.4690
 1.0780	47.4800
 1.0790	47.4880
 1.0800	47.4950
 1.0810	47.5000
 1.0820	47.5050
 1.0830	47.5100
 1.0840	47.5150
 1.0850	47.5200
 1.0860	47.5220
 1.0870	47.5250
 1.0880	47.5270
 1.0890	47.5300
 1.0900	47.5330
 1.0910	47.5340
 1.0920	47.5340
 1.0930	47.5330
 1.0940	47.5290
 1.0950	47.5270
 1.0960	47.5260
 1.0970	47.5250
 1.0980	47.5270
 1.0990	47.5250
 1.1000	47.5210
 1.1010	47.5180
 1.1020	47.5120
 1.1030	47.5070
 1.1040	47.5050
 1.1050	47.5040
 1.1060	47.4990
 1.1070	47.4970
 1.1080	47.4880
 1.1090	47.4750
 1.1100	47.4640
 1.1110	47.4510
 1.1120	47.4390
 1.1130	47.4290
 1.1140	47.4170
 1.1150	47.4090
 1.1160	47.3940
 1.1170	47.3750
 1.1180	47.3570
 1.1190	47.3360
 1.1200	47.3120
 1.1210	47.2860
 1.1220	47.2610
 1.1230	47.2310
 1.1240	47.1960
 1.1250	47.1560
 1.1260	47.1140
 1.1270	47.0630
 1.1280	47.0070
 1.1290	46.9430
 1.1300	46.8750
 1.1310	46.7960
 1.1320	46.7080
 1.1330	46.6150
 1.1340	46.5150
 1.1350	46.4090
 1.1360	46.2970
 1.1370	46.1800
 1.1380	46.0560
 1.1390	45.9280
 1.1400	45.7960
 1.1410	45.6640
 1.1420	45.5300
 1.1430	45.3960
 1.1440	45.2600
 1.1450	45.1200
 1.1460	44.9880
 1.1470	44.8560
 1.1480	44.7320
 1.1490	44.6120
 1.1500	44.5000
 1.1510	44.3900
 1.1520	44.2910
 1.1530	44.1990
 1.1540	44.1140
 1.1550	44.0370
 1.1560	43.9680
 1.1570	43.9080
 1.1580	43.8520
 1.1590	43.8000
 1.1600	43.7510
 1.1610	43.7030
 1.1620	43.6610
 1.1630	43.6230
 1.1640	43.5900
 1.1650	43.5610
 1.1660	43.5360
 1.1670	43.5120
 1.1680	43.4930
 1.1690	43.4710
 1.1700	43.4480
 1.1710	43.4260
 1.1720	43.4030
 1.1730	43.3810
 1.1740	43.3620
 1.1750	43.3400
 1.1760	43.3200
 1.1770	43.2960
 1.1780	43.2700
 1.1790	43.2450
 1.1800	43.2200
 1.1810	43.1910
 1.1820	43.1650
 1.1830	43.1390
 1.1840	43.1160
 1.1850	43.0950
 1.1860	43.0800
 1.1870	43.0660
 1.1880	43.0540
 1.1890	43.0440
 1.1900	43.0360
 1.1910	43.0300
 1.1920	43.0260
 1.1930	43.0240
 1.1940	43.0250
 1.1950	43.0280
 1.1960	43.0340
 1.1970	43.0430
 1.1980	43.0530
 1.1990	43.0640
 1.2000	43.0780
 1.2010	43.0920
 1.2020	43.1070
 1.2030	43.1260
 1.2040	43.1450
 1.2050	43.1670
 1.2060	43.1910
 1.2070	43.2160
 1.2080	43.2440
 1.2090	43.2720
 1.2100	43.3010
 1.2110	43.3330
 1.2120	43.3690
 1.2130	43.4050
 1.2140	43.4450
 1.2150	43.4850
 1.2160	43.5240
 1.2170	43.5640
 1.2180	43.6070
 1.2190	43.6500
 1.2200	43.6940
 1.2210	43.7400
 1.2220	43.7820
 1.2230	43.8220
 1.2240	43.8650
 1.2250	43.9070
 1.2260	43.9500
 1.2270	43.9910
 1.2280	44.0290
 1.2290	44.0640
 1.2300	44.0970
 1.2310	44.1310
 1.2320	44.1660
 1.2330	44.2000
 1.2340	44.2320
 1.2350	44.2650
 1.2360	44.2940
 1.2370	44.3200
 1.2380	44.3470
 1.2390	44.3730
 1.2400	44.4000
 1.2410	44.4290
 1.2420	44.4550
 1.2430	44.4790
 1.2440	44.5020
 1.2450	44.5240
 1.2460	44.5480
 1.2470	44.5700
 1.2480	44.5880
 1.2490	44.6080
 1.2500	44.6260
 1.2510	44.6440
 1.2520	44.6620
 1.2530	44.6800
 1.2540	44.6970
 1.2550	44.7090
 1.2560	44.7200
 1.2570	44.7330
 1.2580	44.7450
 1.2590	44.7560
 1.2600	44.7720
 1.2610	44.7820
 1.2620	44.7890
 1.2630	44.7950
 1.2640	44.8000
 1.2650	44.8020
 1.2660	44.8040
 1.2670	44.8070
 1.2680	44.8080
 1.2690	44.8090
 1.2700	44.8090
 1.2710	44.8050
 1.2720	44.7970
 1.2730	44.7880
 1.2740	44.7810
 1.2750	44.7740
 1.2760	44.7660
 1.2770	44.7590
 1.2780	44.7460
 1.2790	44.7330
 1.2800	44.7190
 1.2810	44.7050
 1.2820	44.6920
 1.2830	44.6760
 1.2840	44.6590
 1.2850	44.6430
 1.2860	44.6250
 1.2870	44.6050
 1.2880	44.5860
 1.2890	44.5660
 1.2900	44.5420
 1.2910	44.5170
 1.2920	44.4910
 1.2930	44.4650
 1.2940	44.4390
 1.2950	44.4070
 1.2960	44.3770
 1.2970	44.3460
 1.2980	44.3100
 1.2990	44.2740
 1.3000	44.2350
 1.3010	44.1930
 1.3020	44.1490
 1.3030	44.1060
 1.3040	44.0580
 1.3050	44.0060
 1.3060	43.9530
 1.3070	43.8960
 1.3080	43.8360
 1.3090	43.7750
 1.3100	43.7090
 1.3110	43.6400
 1.3120	43.5670
 1.3130	43.4900
 1.3140	43.4110
 1.3150	43.3270
 1.3160	43.2410
 1.3170	43.1520
 1.3180	43.0590
 1.3190	42.9630
 1.3200	42.8650
 1.3210	42.7630
 1.3220	42.6590
 1.3230	42.5510
 1.3240	42.4400
 1.3250	42.3270
 1.3260	42.2130
 1.3270	42.0960
 1.3280	41.9800
 1.3290	41.8590
 1.3300	41.7350
 1.3310	41.6090
 1.3320	41.4800
 1.3330	41.3520
 1.3340	41.2250
 1.3350	41.0950
 1.3360	40.9670
 1.3370	40.8350
 1.3380	40.7030
 1.3390	40.5720
 1.3400	40.4400
 1.3410	40.3100
 1.3420	40.1800
 1.3430	40.0520
 1.3440	39.9270
 1.3450	39.8010
 1.3460	39.6760
 1.3470	39.5530
 1.3480	39.4300
 1.3490	39.3070
 1.3500	39.1860
 1.3510	39.0650
 1.3520	38.9440
 1.3530	38.8230
 1.3540	38.7040
 1.3550	38.5840
 1.3560	38.4630
 1.3570	38.3440
 1.3580	38.2230
 1.3590	38.1000
 1.3600	37.9760
 1.3610	37.8490
 1.3620	37.7180
 1.3630	37.5860
 1.3640	37.4480
 1.3650	37.3020
 1.3660	37.1510
 1.3670	36.9920
 1.3680	36.8260
 1.3690	36.6530
 1.3700	36.4670
 1.3710	36.2720
 1.3720	36.0640
 1.3730	35.8410
 1.3740	35.6090
 1.3750	35.3620
 1.3760	35.0990
 1.3770	34.8190
 1.3780	34.5190
 1.3790	34.2030
 1.3800	33.8700
 1.3810	33.5170
 1.3820	33.1540
 1.3830	32.7770
 1.3840	32.3880
 1.3850	31.9860
 1.3860	31.5770
 1.3870	31.1540
 1.3880	30.7300
 1.3890	30.2990
 1.3900	29.8650
 1.3910	29.4350
 1.3920	29.0030
 1.3930	28.5730
 1.3940	28.1490
 1.3950	27.7260
 1.3960	27.3120
 1.3970	26.9090
 1.3980	26.5140
 1.3990	26.1370
 1.4000	25.7720
 1.4010	25.4200
 1.4020	25.0850
 1.4030	24.7610
 1.4040	24.4550
 1.4050	24.1650
 1.4060	23.8900
 1.4070	23.6340
 1.4080	23.3930
 1.4090	23.1670
 1.4100	22.9570
 1.4110	22.7590
 1.4120	22.5760
 1.4130	22.4050
 1.4140	22.2460
 1.4150	22.1030
 1.4160	21.9690
 1.4170	21.8450
 1.4180	21.7320
 1.4190	21.6270
 1.4200	21.5300
 1.4210	21.4410
 1.4220	21.3610
 1.4230	21.2880
 1.4240	21.2210
 1.4250	21.1600
 1.4260	21.1050
 1.4270	21.0540
 1.4280	21.0070
 1.4290	20.9650
 1.4300	20.9270
 1.4310	20.8930
 1.4320	20.8630
 1.4330	20.8380
 1.4340	20.8160
 1.4350	20.7980
 1.4360	20.7840
 1.4370	20.7720
 1.4380	20.7620
 1.4390	20.7550
 1.4400	20.7490
 1.4410	20.7460
 1.4420	20.7460
 1.4430	20.7470
 1.4440	20.7500
 1.4450	20.7550
 1.4460	20.7600
 1.4470	20.7660
 1.4480	20.7740
 1.4490	20.7820
 1.4500	20.7920
 1.4510	20.8040
 1.4520	20.8160
 1.4530	20.8290
 1.4540	20.8420
 1.4550	20.8560
 1.4560	20.8740
 1.4570	20.8930
 1.4580	20.9150
 1.4590	20.9390
 1.4600	20.9660
 1.4610	20.9940
 1.4620	21.0270
 1.4630	21.0630
 1.4640	21.1010
 1.4650	21.1430
 1.4660	21.1880
 1.4670	21.2360
 1.4680	21.2880
 1.4690	21.3450
 1.4700	21.4040
 1.4710	21.4650
 1.4720	21.5280
 1.4730	21.5920
 1.4740	21.6600
 1.4750	21.7300
 1.4760	21.8050
 1.4770	21.8820
 1.4780	21.9590
 1.4790	22.0380
 1.4800	22.1160
 1.4810	22.1950
 1.4820	22.2760
 1.4830	22.3570
 1.4840	22.4410
 1.4850	22.5260
 1.4860	22.6100
 1.4870	22.6960
 1.4880	22.7810
 1.4890	22.8670
 1.4900	22.9550
 1.4910	23.0440
 1.4920	23.1330
 1.4930	23.2240
 1.4940	23.3140
 1.4950	23.4040
 1.4960	23.4940
 1.4970	23.5850
 1.4980	23.6760
 1.4990	23.7680
 1.5000	23.8610
 1.5010	23.9530
 1.5020	24.0450
 1.5030	24.1390
 1.5040	24.2310
 1.5050	24.3220
 1.5060	24.4150
 1.5070	24.5080
 1.5080	24.6010
 1.5090	24.6950
 1.5100	24.7880
 1.5110	24.8800
 1.5120	24.9730
 1.5130	25.0640
 1.5140	25.1550
 1.5150	25.2460
 1.5160	25.3360
 1.5170	25.4270
 1.5180	25.5160
 1.5190	25.6040
 1.5200	25.6920
 1.5210	25.7780
 1.5220	25.8660
 1.5230	25.9540
 1.5240	26.0390
 1.5250	26.1250
 1.5260	26.2100
 1.5270	26.2950
 1.5280	26.3800
 1.5290	26.4620
 1.5300	26.5450
 1.5310	26.6280
 1.5320	26.7100
 1.5330	26.7930
 1.5340	26.8760
 1.5350	26.9570
 1.5360	27.0380
 1.5370	27.1180
 1.5380	27.1960
 1.5390	27.2730
 1.5400	27.3500
 1.5410	27.4270
 1.5420	27.5030
 1.5430	27.5800
 1.5440	27.6560
 1.5450	27.7300
 1.5460	27.8040
 1.5470	27.8770
 1.5480	27.9480
 1.5490	28.0200
 1.5500	28.0920
 1.5510	28.1620
 1.5520	28.2330
 1.5530	28.3030
 1.5540	28.3720
 1.5550	28.4410
 1.5560	28.5090
 1.5570	28.5760
 1.5580	28.6420
 1.5590	28.7080
 1.5600	28.7750
 1.5610	28.8400
 1.5620	28.9050
 1.5630	28.9680
 1.5640	29.0300
 1.5650	29.0930
 1.5660	29.1550
 1.5670	29.2180
 1.5680	29.2800
 1.5690	29.3400
 1.5700	29.3980
 1.5710	29.4570
 1.5720	29.5140
 1.5730	29.5720
 1.5740	29.6300
 1.5750	29.6880
 1.5760	29.7460
 1.5770	29.8000
 1.5780	29.8540
 1.5790	29.9100
 1.5800	29.9640
 1.5810	30.0210
 1.5820	30.0790
 1.5830	30.1350
 1.5840	30.1900
 1.5850	30.2470
 1.5860	30.3030
 1.5870	30.3580
 1.5880	30.4120
 1.5890	30.4650
 1.5900	30.5170
 1.5910	30.5700
 1.5920	30.6230
 1.5930	30.6750
 1.5940	30.7240
 1.5950	30.7730
 1.5960	30.8220
 1.5970	30.8700
 1.5980	30.9180
 1.5990	30.9650
 1.6000	31.0120
 1.6010	31.0600
 1.6020	31.1090
 1.6030	31.1570
 1.6040	31.2030
 1.6050	31.2480
 1.6060	31.2910
 1.6070	31.3330
 1.6080	31.3760
 1.6090	31.4190
 1.6100	31.4610
 1.6110	31.5030
 1.6120	31.5430
 1.6130	31.5820
 1.6140	31.6210
 1.6150	31.6580
 1.6160	31.6950
 1.6170	31.7320
 1.6180	31.7660
 1.6190	31.7990
 1.6200	31.8300
 1.6210	31.8620
 1.6220	31.8950
 1.6230	31.9260
 1.6240	31.9560
 1.6250	31.9830
 1.6260	32.0090
 1.6270	32.0350
 1.6280	32.0590
 1.6290	32.0840
 1.6300	32.1110
 1.6310	32.1360
 1.6320	32.1610
 1.6330	32.1860
 1.6340	32.2110
 1.6350	32.2360
 1.6360	32.2620
 1.6370	32.2880
 1.6380	32.3120
 1.6390	32.3370
 1.6400	32.3620
 1.6410	32.3850
 1.6420	32.4080
 1.6430	32.4280
 1.6440	32.4460
 1.6450	32.4610
 1.6460	32.4720
 1.6470	32.4830
 1.6480	32.4920
 1.6490	32.5000
 1.6500	32.5080
 1.6510	32.5130
 1.6520	32.5160
 1.6530	32.5160
 1.6540	32.5120
 1.6550	32.5080
 1.6560	32.5020
 1.6570	32.4970
 1.6580	32.4890
 1.6590	32.4800
 1.6600	32.4690
 1.6610	32.4550
 1.6620	32.4410
 1.6630	32.4250
 1.6640	32.4070
 1.6650	32.3870
 1.6660	32.3650
 1.6670	32.3380
 1.6680	32.3110
 1.6690	32.2810
 1.6700	32.2470
 1.6710	32.2130
 1.6720	32.1740
 1.6730	32.1310
 1.6740	32.0870
 1.6750	32.0390
 1.6760	31.9880
 1.6770	31.9370
 1.6780	31.8830
 1.6790	31.8250
 1.6800	31.7660
 1.6810	31.7060
 1.6820	31.6440
 1.6830	31.5800
 1.6840	31.5150
 1.6850	31.4480
 1.6860	31.3790
 1.6870	31.3120
 1.6880	31.2440
 1.6890	31.1760
 1.6900	31.1060
 1.6910	31.0330
 1.6920	30.9630
 1.6930	30.8910
 1.6940	30.8240
 1.6950	30.7600
 1.6960	30.6960
 1.6970	30.6350
 1.6980	30.5730
 1.6990	30.5110
 1.7000	30.4520
 1.7010	30.3950
 1.7020	30.3380
 1.7030	30.2840
 1.7040	30.2300
 1.7050	30.1770
 1.7060	30.1240
 1.7070	30.0700
 1.7080	30.0190
 1.7090	29.9700
 1.7100	29.9210
 1.7110	29.8760
 1.7120	29.8270
 1.7130	29.7790
 1.7140	29.7350
 1.7150	29.6890
 1.7160	29.6460
 1.7170	29.6060
 1.7180	29.5660
 1.7190	29.5300
 1.7200	29.4930
 1.7210	29.4570
 1.7220	29.4250
 1.7230	29.3940
 1.7240	29.3660
 1.7250	29.3390
 1.7260	29.3130
 1.7270	29.2900
 1.7280	29.2700
 1.7290	29.2540
 1.7300	29.2380
 1.7310	29.2250
 1.7320	29.2140
 1.7330	29.2040
 1.7340	29.2000
 1.7350	29.1920
 1.7360	29.1840
 1.7370	29.1700
 1.7380	29.1530
 1.7390	29.1320
 1.7400	29.1080
 1.7410	29.0810
 1.7420	29.0510
 1.7430	29.0170
 1.7440	28.9790
 1.7450	28.9390
 1.7460	28.8930
 1.7470	28.8490
 1.7480	28.8020
 1.7490	28.7590
 1.7500	28.7160
 1.7510	28.6750
 1.7520	28.6340
 1.7530	28.5950
 1.7540	28.5570
 1.7550	28.5200
 1.7560	28.4860
 1.7570	28.4520
 1.7580	28.4200
 1.7590	28.3910
 1.7600	28.3660
 1.7610	28.3420
 1.7620	28.3200
 1.7630	28.3000
 1.7640	28.2830
 1.7650	28.2710
 1.7660	28.2580
 1.7670	28.2480
 1.7680	28.2370
 1.7690	28.2250
 1.7700	28.2160
 1.7710	28.2080
 1.7720	28.1990
 1.7730	28.1920
 1.7740	28.1830
 1.7750	28.1730
 1.7760	28.1630
 1.7770	28.1530
 1.7780	28.1430
 1.7790	28.1320
 1.7800	28.1230
 1.7810	28.1160
 1.7820	28.1080
 1.7830	28.1000
 1.7840	28.0920
 1.7850	28.0820
 1.7860	28.0760
 1.7870	28.0720
 1.7880	28.0670
 1.7890	28.0660
 1.7900	28.0640
 1.7910	28.0620
 1.7920	28.0620
 1.7930	28.0610
 1.7940	28.0590
 1.7950	28.0610
 1.7960	28.0650
 1.7970	28.0700
 1.7980	28.0780
 1.7990	28.0840
 1.8000	28.0890
 1.8010	28.0950
 1.8020	28.1020
 1.8030	28.1080
 1.8040	28.1140
 1.8050	28.1210
 1.8060	28.1290
 1.8070	28.1370
 1.8080	28.1470
 1.8090	28.1520
 1.8100	28.1530
 1.8110	28.1580
 1.8120	28.1630
 1.8130	28.1710
 1.8140	28.1790
 1.8150	28.1820
 1.8160	28.1830
 1.8170	28.1860
 1.8180	28.1870
 1.8190	28.1900
 1.8200	28.1910
 1.8210	28.1880
 1.8220	28.1860
 1.8230	28.1860
 1.8240	28.1850
 1.8250	28.1840
 1.8260	28.1810
 1.8270	28.1830
 1.8280	28.1840
 1.8290	28.1860
 1.8300	28.1870
 1.8310	28.1890
 1.8320	28.1900
 1.8330	28.1920
 1.8340	28.1930
 1.8350	28.1930
 1.8360	28.1620
 1.8370	28.1280
 1.8380	28.0890
 1.8390	28.0480
 1.8400	28.0050
 1.8410	27.9560
 1.8420	27.9040
 1.8430	27.8480
 1.8440	27.7830
 1.8450	27.7140
 1.8460	27.6400
 1.8470	27.5620
 1.8480	27.4770
 1.8490	27.3850
 1.8500	27.2820
 1.8510	27.1700
 1.8520	27.0460
 1.8530	26.9190
 1.8540	26.7850
 1.8550	26.6420
 1.8560	26.4910
 1.8570	26.3270
 1.8580	26.1500
 1.8590	25.9650
 1.8600	25.7710
 1.8610	25.5690
 1.8620	25.3550
 1.8630	25.1290
 1.8640	24.8890
 1.8650	24.6370
 1.8660	24.3750
 1.8670	24.1000
 1.8680	23.8150
 1.8690	23.5190
 1.8700	23.2110
 1.8710	22.8900
 1.8720	22.5650
 1.8730	22.2320
 1.8740	21.8950
 1.8750	21.5560
 1.8760	21.2100
 1.8770	20.8660
 1.8780	20.5220
 1.8790	20.1740
 1.8800	19.8310
 1.8810	19.4910
 1.8820	19.1510
 1.8830	18.8120
 1.8840	18.4810
 1.8850	18.1520
 1.8860	17.8310
 1.8870	17.5180
 1.8880	17.2100
 1.8890	16.9190
 1.8900	16.6380
 1.8910	16.3690
 1.8920	16.1100
 1.8930	15.8690
 1.8940	15.6410
 1.8950	15.4250
 1.8960	15.2230
 1.8970	15.0340
 1.8980	14.8530
 1.8990	14.6830
 1.9000	14.5270
 1.9010	14.3840
 1.9020	14.2520
 1.9030	14.1330
 1.9040	14.0240
 1.9050	13.9240
 1.9060	13.8340
 1.9070	13.7500
 1.9080	13.6740
 1.9090	13.6060
 1.9100	13.5430
 1.9110	13.4860
 1.9120	13.4370
 1.9130	13.3910
 1.9140	13.3480
 1.9150	13.3090
 1.9160	13.2750
 1.9170	13.2480
 1.9180	13.2240
 1.9190	13.2020
 1.9200	13.1820
 1.9210	13.1630
 1.9220	13.1480
 1.9230	13.1350
 1.9240	13.1260
 1.9250	13.1230
 1.9260	13.1200
 1.9270	13.1200
 1.9280	13.1240
 1.9290	13.1280
 1.9300	13.1350
 1.9310	13.1440
 1.9320	13.1540
 1.9330	13.1640
 1.9340	13.1750
 1.9350	13.1880
 1.9360	13.2010
 1.9370	13.2190
 1.9380	13.2400
 1.9390	13.2620
 1.9400	13.2870
 1.9410	13.3120
 1.9420	13.3360
 1.9430	13.3610
 1.9440	13.3870
 1.9450	13.4140
 1.9460	13.4420
 1.9470	13.4730
 1.9480	13.5030
 1.9490	13.5330
 1.9500	13.5630
 1.9510	13.5960
 1.9520	13.6250
 1.9530	13.6590
 1.9540	13.6970
 1.9550	13.7330
 1.9560	13.7680
 1.9570	13.8050
 1.9580	13.8440
 1.9590	13.8810
 1.9600	13.9190
 1.9610	13.9580
 1.9620	13.9980
 1.9630	14.0370
 1.9640	14.0780
 1.9650	14.1190
 1.9660	14.1610
 1.9670	14.2040
 1.9680	14.2480
 1.9690	14.2940
 1.9700	14.3390
 1.9710	14.3840
 1.9720	14.4280
 1.9730	14.4720
 1.9740	14.5150
 1.9750	14.5570
 1.9760	14.6050
 1.9770	14.6530
 1.9780	14.7010
 1.9790	14.7480
 1.9800	14.7930
 1.9810	14.8410
 1.9820	14.8900
 1.9830	14.9390
 1.9840	14.9920
 1.9850	15.0430
 1.9860	15.0930
 1.9870	15.1400
 1.9880	15.1890
 1.9890	15.2380
 1.9900	15.2890
 1.9910	15.3400
 1.9920	15.3910
 1.9930	15.4430
 1.9940	15.4950
 1.9950	15.5450
 1.9960	15.5960
 1.9970	15.6470
 1.9980	15.6980
 1.9990	15.7490
 2.0000	15.8000
 2.0010	15.8520
 2.0020	15.9020
 2.0030	15.9540
 2.0040	16.0040
 2.0050	16.0530
 2.0060	16.1020
 2.0070	16.1510
 2.0080	16.2010
 2.0090	16.2470
 2.0100	16.2920
 2.0110	16.3360
 2.0120	16.3780
 2.0130	16.4220
 2.0140	16.4670
 2.0150	16.5120
 2.0160	16.5610
 2.0170	16.6100
 2.0180	16.6560
 2.0190	16.7020
 2.0200	16.7470
 2.0210	16.7890
 2.0220	16.8300
 2.0230	16.8710
 2.0240	16.9120
 2.0250	16.9510
 2.0260	16.9900
 2.0270	17.0290
 2.0280	17.0690
 2.0290	17.1090
 2.0300	17.1470
 2.0310	17.1850
 2.0320	17.2220
 2.0330	17.2570
 2.0340	17.2900
 2.0350	17.3220
 2.0360	17.3520
 2.0370	17.3810
 2.0380	17.4070
 2.0390	17.4350
 2.0400	17.4630
 2.0410	17.4910
 2.0420	17.5180
 2.0430	17.5470
 2.0440	17.5750
 2.0450	17.6020
 2.0460	17.6280
 2.0470	17.6520
 2.0480	17.6800
 2.0490	17.7080
 2.0500	17.7350
 2.0510	17.7660
 2.0520	17.7940
 2.0530	17.8180
 2.0540	17.8440
 2.0550	17.8730
 2.0560	17.8980
 2.0570	17.9290
 2.0580	17.9570
 2.0590	17.9860
 2.0600	18.0160
 2.0610	18.0470
 2.0620	18.0780
 2.0630	18.1090
 2.0640	18.1430
 2.0650	18.1760
 2.0660	18.2070
 2.0670	18.2390
 2.0680	18.2720
 2.0690	18.3020
 2.0700	18.3290
 2.0710	18.3580
 2.0720	18.3860
 2.0730	18.4140
 2.0740	18.4450
 2.0750	18.4780
 2.0760	18.5130
 2.0770	18.5500
 2.0780	18.5840
 2.0790	18.6200
 2.0800	18.6530
 2.0810	18.6830
 2.0820	18.7150
 2.0830	18.7500
 2.0840	18.7810
 2.0850	18.8110
 2.0860	18.8420
 2.0870	18.8720
 2.0880	18.9020
 2.0890	18.9330
 2.0900	18.9660
 2.0910	18.9980
 2.0920	19.0290
 2.0930	19.0620
 2.0940	19.0950
 2.0950	19.1280
 2.0960	19.1610
 2.0970	19.1940
 2.0980	19.2290
 2.0990	19.2620
 2.1000	19.2930
 2.1010	19.3240
 2.1020	19.3520
 2.1030	19.3820
 2.1040	19.4130
 2.1050	19.4440
 2.1060	19.4730
 2.1070	19.5010
 2.1080	19.5300
 2.1090	19.5570
 2.1100	19.5870
 2.1110	19.6200
 2.1120	19.6510
 2.1130	19.6820
 2.1140	19.7130
 2.1150	19.7430
 2.1160	19.7720
 2.1170	19.7990
 2.1180	19.8290
 2.1190	19.8580
 2.1200	19.8880
 2.1210	19.9210
 2.1220	19.9530
 2.1230	19.9840
 2.1240	20.0150
 2.1250	20.0420
 2.1260	20.0670
 2.1270	20.0910
 2.1280	20.1120
 2.1290	20.1360
 2.1300	20.1620
 2.1310	20.1850
 2.1320	20.2070
 2.1330	20.2290
 2.1340	20.2520
 2.1350	20.2720
 2.1360	20.2910
 2.1370	20.3100
 2.1380	20.3260
 2.1390	20.3440
 2.1400	20.3630
 2.1410	20.3830
 2.1420	20.4020
 2.1430	20.4230
 2.1440	20.4410
 2.1450	20.4590
 2.1460	20.4760
 2.1470	20.4930
 2.1480	20.5090
 2.1490	20.5220
 2.1500	20.5390
 2.1510	20.5580
 2.1520	20.5750
 2.1530	20.5930
 2.1540	20.6090
 2.1550	20.6230
 2.1560	20.6360
 2.1570	20.6490
 2.1580	20.6620
 2.1590	20.6740
 2.1600	20.6850
 2.1610	20.6960
 2.1620	20.7090
 2.1630	20.7210
 2.1640	20.7310
 2.1650	20.7440
 2.1660	20.7570
 2.1670	20.7690
 2.1680	20.7810
 2.1690	20.7930
 2.1700	20.8060
 2.1710	20.8160
 2.1720	20.8270
 2.1730	20.8380
 2.1740	20.8440
 2.1750	20.8560
 2.1760	20.8690
 2.1770	20.8840
 2.1780	20.9040
 2.1790	20.9210
 2.1800	20.9390
 2.1810	20.9550
 2.1820	20.9690
 2.1830	20.9810
 2.1840	20.9940
 2.1850	21.0080
 2.1860	21.0220
 2.1870	21.0360
 2.1880	21.0470
 2.1890	21.0560
 2.1900	21.0660
 2.1910	21.0730
 2.1920	21.0830
 2.1930	21.0950
 2.1940	21.1040
 2.1950	21.1100
 2.1960	21.1180
 2.1970	21.1240
 2.1980	21.1310
 2.1990	21.1390
 2.2000	21.1480
 2.2010	21.1580
 2.2020	21.1660
 2.2030	21.1740
 2.2040	21.1830
 2.2050	21.1920
 2.2060	21.1980
 2.2070	21.2020
 2.2080	21.2050
 2.2090	21.2060
 2.2100	21.2020
 2.2110	21.2020
 2.2120	21.2030
 2.2130	21.2030
 2.2140	21.2040
 2.2150	21.2030
 2.2160	21.2030
 2.2170	21.1980
 2.2180	21.1900
 2.2190	21.1800
 2.2200	21.1640
 2.2210	21.1510
 2.2220	21.1390
 2.2230	21.1230
 2.2240	21.1070
 2.2250	21.0880
 2.2260	21.0680
 2.2270	21.0430
 2.2280	21.0140
 2.2290	20.9840
 2.2300	20.9510
 2.2310	20.9160
 2.2320	20.8810
 2.2330	20.8460
 2.2340	20.8050
 2.2350	20.7590
 2.2360	20.7170
 2.2370	20.6730
 2.2380	20.6280
 2.2390	20.5880
 2.2400	20.5380
 2.2410	20.4820
 2.2420	20.4250
 2.2430	20.3630
 2.2440	20.3010
 2.2450	20.2370
 2.2460	20.1690
 2.2470	20.0970
 2.2480	20.0260
 2.2490	19.9530
 2.2500	19.8800
 2.2510	19.8080
 2.2520	19.7320
 2.2530	19.6510
 2.2540	19.5740
 2.2550	19.5000
 2.2560	19.4230
 2.2570	19.3480
 2.2580	19.2730
 2.2590	19.1920
 2.2600	19.1150
 2.2610	19.0420
 2.2620	18.9670
 2.2630	18.8940
 2.2640	18.8230
 2.2650	18.7520
 2.2660	18.6840
 2.2670	18.6160
 2.2680	18.5480
 2.2690	18.4830
 2.2700	18.4190
 2.2710	18.3560
 2.2720	18.2930
 2.2730	18.2360
 2.2740	18.1800
 2.2750	18.1260
 2.2760	18.0780
 2.2770	18.0250
 2.2780	17.9690
 2.2790	17.9160
 2.2800	17.8680
 2.2810	17.8110
 2.2820	17.7500
 2.2830	17.6920
 2.2840	17.6270
 2.2850	17.5630
 2.2860	17.5050
 2.2870	17.4420
 2.2880	17.3740
 2.2890	17.3050
 2.2900	17.2340
 2.2910	17.1610
 2.2920	17.0780
 2.2930	17.0040
 2.2940	16.9330
 2.2950	16.8620
 2.2960	16.7940
 2.2970	16.7290
 2.2980	16.6650
 2.2990	16.6040
 2.3000	16.5460
 2.3010	16.4990
 2.3020	16.4580
 2.3030	16.4180
 2.3040	16.3900
 2.3050	16.3720
 2.3060	16.3560
 2.3070	16.3560
 2.3080	16.3620
 2.3090	16.3690
 2.3100	16.3850
 2.3110	16.4010
 2.3120	16.4220
 2.3130	16.4490
 2.3140	16.4770
 2.3150	16.5090
 2.3160	16.5370
 2.3170	16.5650
 2.3180	16.5880
 2.3190	16.6090
 2.3200	16.6270
 2.3210	16.6440
 2.3220	16.6550
 2.3230	16.6610
 2.3240	16.6640
 2.3250	16.6640
 2.3260	16.6580
 2.3270	16.6480
 2.3280	16.6310
 2.3290	16.6060
 2.3300	16.5800
 2.3310	16.5460
 2.3320	16.5140
 2.3330	16.4810
 2.3340	16.4480
 2.3350	16.4150
 2.3360	16.3820
 2.3370	16.3490
 2.3380	16.3120
 2.3390	16.2680
 2.3400	16.2300
 2.3410	16.1930
 2.3420	16.1550
 2.3430	16.1190
 2.3440	16.0850
 2.3450	16.0420
 2.3460	16.0130
 2.3470	15.9990
 2.3480	15.9800
 2.3490	15.9660
 2.3500	15.9540
 2.3510	15.9400
 2.3520	15.9310
 2.3530	15.9290
 2.3540	15.9280
 2.3550	15.9230
 2.3560	15.9120
 2.3570	15.8980
 2.3580	15.8900
 2.3590	15.8860
 2.3600	15.8800
 2.3610	15.8700
 2.3620	15.8590
 2.3630	15.8440
 2.3640	15.8320
 2.3650	15.8250
 2.3660	15.8120
 2.3670	15.8000
 2.3680	15.7780
 2.3690	15.7560
 2.3700	15.7400
 2.3710	15.7280
 2.3720	15.7250
 2.3730	15.7170
 2.3740	15.7090
 2.3750	15.7000
 2.3760	15.6820
 2.3770	15.6640
 2.3780	15.6360
 2.3790	15.6010
 2.3800	15.5740
 2.3810	15.5470
 2.3820	15.5280
 2.3830	15.5180
 2.3840	15.4990
 2.3850	15.4800
 2.3860	15.4620
 2.3870	15.4320
 2.3880	15.3980
 2.3890	15.3760
 2.3900	15.3570
 2.3910	15.3340
 2.3920	15.3150
 2.3930	15.2960
 2.3940	15.2690
 2.3950	15.2450
 2.3960	15.2280
 2.3970	15.2070
 2.3980	15.1770
 2.3990	15.1470
 2.4000	15.1210
 2.4010	15.0970
 2.4020	15.0720
 2.4030	15.0480
 2.4040	15.0210
 2.4050	14.9890
 2.4060	14.9660
 2.4070	14.9480
 2.4080	14.9340
 2.4090	14.9210
 2.4100	14.9040
 2.4110	14.8820
 2.4120	14.8580
 2.4130	14.8300
 2.4140	14.7940
 2.4150	14.7770
 2.4160	14.7660
 2.4170	14.7500
 2.4180	14.7220
 2.4190	14.6760
 2.4200	14.6350
 2.4210	14.5960
 2.4220	14.5730
 2.4230	14.5590
 2.4240	14.5340
 2.4250	14.5070
 2.4260	14.4810
 2.4270	14.4570
 2.4280	14.4360
 2.4290	14.4090
 2.4300	14.3730
 2.4310	14.3370
 2.4320	14.3030
 2.4330	14.2700
 2.4340	14.2350
 2.4350	14.1990
 2.4360	14.1610
 2.4370	14.1240
 2.4380	14.1060
 2.4390	14.0930
 2.4400	14.0650
 2.4410	14.0380
 2.4420	14.0080
 2.4430	13.9680
 2.4440	13.9440
 2.4450	13.9210
 2.4460	13.8770
 2.4470	13.8360
 2.4480	13.7950
 2.4490	13.7670
 2.4500	13.7550
 2.4510	13.7250
 2.4520	13.6950
 2.4530	13.6620
 2.4540	13.6160
 2.4550	13.5980
 2.4560	13.5820
 2.4570	13.5530
 2.4580	13.5300
 2.4590	13.4890
 2.4600	13.4530
 2.4610	13.4150
 2.4620	13.3630
 2.4630	13.3320
 2.4640	13.3110
 2.4650	13.2930
 2.4660	13.2690
 2.4670	13.2370
 2.4680	13.1990
 2.4690	13.1480
 2.4700	13.1090
 2.4710	13.0810
 2.4720	13.0470
 2.4730	12.9950
 2.4740	12.9770
 2.4750	12.9850
 2.4760	12.9730
 2.4770	12.9750
 2.4780	12.9820
 2.4790	12.9810
 2.4800	12.9630
 2.4810	12.9440
 2.4820	12.9100
 2.4830	12.8740
 2.4840	12.8660
 2.4850	12.8940
 2.4860	12.8870
 2.4870	12.8860
 2.4880	12.9010
 2.4890	12.9110
 2.4900	12.9110
 2.4910	12.8970
 2.4920	12.8810
 2.4930	12.8450
 2.4940	12.8490
 2.4950	12.8700
 2.4960	12.8690
 2.4970	12.8890
 2.4980	12.8830
 2.4990	12.8940
 2.5000	12.9040
