Name: Ficus macrophylla f. columnaris
Type: vegetation
Class: Tree
Genus: Ficus
Species: macrophylla_columnaris
Sample No.: JPL094
Owner: JPL
Wavelength Range: VSWIR
Origin: 34.12573; - 118.11237; WGS84
Collection Date: 2/2/2016
Description: Samples were collected at the Huntington Garden in San Marino California as part of a JPL Subcontract studying HyTES imagery. Samples were taken to JPL and processed within 48 hours of collection. The same leaves were processed in the Nicolet and then measured using the ASD.
Measurement: Bidirectional reflectance
First Column: X
Second Column: Y
X Units: Wavelength (micrometer)
Y Units: Reflectance (percentage)
First X Value: 0.35
Last X Value: 2.5
Number of X Values: 2151
Additional Information: 

 0.3500	12.9460
 0.3510	12.8730
 0.3520	12.0830
 0.3530	12.0020
 0.3540	13.3100
 0.3550	13.3220
 0.3560	13.4360
 0.3570	13.4830
 0.3580	12.6520
 0.3590	12.0480
 0.3600	12.2590
 0.3610	12.9450
 0.3620	12.6920
 0.3630	12.8390
 0.3640	13.0290
 0.3650	12.7640
 0.3660	12.6270
 0.3670	12.3300
 0.3680	11.9910
 0.3690	12.0280
 0.3700	12.5430
 0.3710	13.0120
 0.3720	13.0280
 0.3730	12.3740
 0.3740	12.3250
 0.3750	12.6480
 0.3760	12.7360
 0.3770	12.8040
 0.3780	12.7480
 0.3790	12.7120
 0.3800	12.9930
 0.3810	12.7780
 0.3820	12.2610
 0.3830	11.8700
 0.3840	12.1670
 0.3850	12.2190
 0.3860	12.2380
 0.3870	12.6410
 0.3880	12.4590
 0.3890	12.3080
 0.3900	12.3780
 0.3910	12.3320
 0.3920	12.0950
 0.3930	12.0170
 0.3940	12.3150
 0.3950	12.6960
 0.3960	12.7870
 0.3970	12.5650
 0.3980	12.2400
 0.3990	12.1980
 0.4000	12.3340
 0.4010	12.4560
 0.4020	12.3280
 0.4030	12.4970
 0.4040	12.6690
 0.4050	12.5150
 0.4060	12.2610
 0.4070	12.2420
 0.4080	12.3510
 0.4090	12.2420
 0.4100	12.4110
 0.4110	12.5240
 0.4120	12.4000
 0.4130	12.2820
 0.4140	12.3540
 0.4150	12.3830
 0.4160	12.1570
 0.4170	12.2900
 0.4180	12.4250
 0.4190	12.3590
 0.4200	12.0950
 0.4210	12.0940
 0.4220	12.2880
 0.4230	12.4940
 0.4240	12.5420
 0.4250	12.4580
 0.4260	12.3460
 0.4270	12.3280
 0.4280	12.3360
 0.4290	12.3270
 0.4300	12.2840
 0.4310	12.2260
 0.4320	12.1660
 0.4330	12.1880
 0.4340	12.3000
 0.4350	12.1630
 0.4360	12.0560
 0.4370	12.0860
 0.4380	12.2080
 0.4390	12.2650
 0.4400	12.2860
 0.4410	12.2960
 0.4420	12.2140
 0.4430	12.2340
 0.4440	12.3230
 0.4450	12.3670
 0.4460	12.3800
 0.4470	12.3510
 0.4480	12.3110
 0.4490	12.3410
 0.4500	12.3440
 0.4510	12.3110
 0.4520	12.2790
 0.4530	12.3760
 0.4540	12.4060
 0.4550	12.3580
 0.4560	12.3370
 0.4570	12.2970
 0.4580	12.2980
 0.4590	12.3410
 0.4600	12.3050
 0.4610	12.3340
 0.4620	12.3820
 0.4630	12.3620
 0.4640	12.3130
 0.4650	12.2980
 0.4660	12.3210
 0.4670	12.3190
 0.4680	12.3000
 0.4690	12.3080
 0.4700	12.3420
 0.4710	12.2310
 0.4720	12.3110
 0.4730	12.4570
 0.4740	12.3470
 0.4750	12.3160
 0.4760	12.3410
 0.4770	12.3690
 0.4780	12.3500
 0.4790	12.3580
 0.4800	12.3680
 0.4810	12.3410
 0.4820	12.3330
 0.4830	12.3140
 0.4840	12.2880
 0.4850	12.2890
 0.4860	12.2900
 0.4870	12.2800
 0.4880	12.2580
 0.4890	12.2200
 0.4900	12.2570
 0.4910	12.3080
 0.4920	12.2620
 0.4930	12.2420
 0.4940	12.2880
 0.4950	12.3550
 0.4960	12.2890
 0.4970	12.2840
 0.4980	12.3410
 0.4990	12.3970
 0.5000	12.3670
 0.5010	12.3720
 0.5020	12.4170
 0.5030	12.4120
 0.5040	12.3870
 0.5050	12.3950
 0.5060	12.4540
 0.5070	12.4810
 0.5080	12.5340
 0.5090	12.5750
 0.5100	12.5510
 0.5110	12.5790
 0.5120	12.6170
 0.5130	12.6480
 0.5140	12.7180
 0.5150	12.7700
 0.5160	12.8550
 0.5170	13.0060
 0.5180	13.0570
 0.5190	13.0990
 0.5200	13.1790
 0.5210	13.2990
 0.5220	13.4160
 0.5230	13.5280
 0.5240	13.6400
 0.5250	13.7370
 0.5260	13.8310
 0.5270	13.9220
 0.5280	14.0120
 0.5290	14.1490
 0.5300	14.2710
 0.5310	14.3510
 0.5320	14.4180
 0.5330	14.5010
 0.5340	14.5790
 0.5350	14.6260
 0.5360	14.6360
 0.5370	14.6590
 0.5380	14.7020
 0.5390	14.7310
 0.5400	14.7060
 0.5410	14.6520
 0.5420	14.6010
 0.5430	14.5710
 0.5440	14.5630
 0.5450	14.5950
 0.5460	14.6760
 0.5470	14.7420
 0.5480	14.8110
 0.5490	14.8700
 0.5500	14.8710
 0.5510	14.8750
 0.5520	14.8790
 0.5530	14.8730
 0.5540	14.8900
 0.5550	14.8750
 0.5560	14.8340
 0.5570	14.8110
 0.5580	14.7250
 0.5590	14.6460
 0.5600	14.6100
 0.5610	14.5370
 0.5620	14.4860
 0.5630	14.4270
 0.5640	14.3140
 0.5650	14.2470
 0.5660	14.1930
 0.5670	14.1220
 0.5680	14.0230
 0.5690	13.9280
 0.5700	13.8350
 0.5710	13.7420
 0.5720	13.6580
 0.5730	13.5790
 0.5740	13.5070
 0.5750	13.4470
 0.5760	13.4030
 0.5770	13.3740
 0.5780	13.3500
 0.5790	13.3100
 0.5800	13.2640
 0.5810	13.2170
 0.5820	13.1720
 0.5830	13.1370
 0.5840	13.1120
 0.5850	13.0870
 0.5860	13.0420
 0.5870	12.9890
 0.5880	12.9630
 0.5890	12.9740
 0.5900	12.9530
 0.5910	12.9420
 0.5920	12.9500
 0.5930	12.9620
 0.5940	12.9700
 0.5950	12.9520
 0.5960	12.9150
 0.5970	12.9150
 0.5980	12.9140
 0.5990	12.9050
 0.6000	12.8900
 0.6010	12.8450
 0.6020	12.8210
 0.6030	12.8210
 0.6040	12.8010
 0.6050	12.7920
 0.6060	12.7810
 0.6070	12.7560
 0.6080	12.7350
 0.6090	12.6600
 0.6100	12.5400
 0.6110	12.4290
 0.6120	12.4060
 0.6130	12.4540
 0.6140	12.5230
 0.6150	12.5220
 0.6160	12.5300
 0.6170	12.5320
 0.6180	12.5060
 0.6190	12.4950
 0.6200	12.4870
 0.6210	12.4660
 0.6220	12.4250
 0.6230	12.4190
 0.6240	12.4380
 0.6250	12.4590
 0.6260	12.4620
 0.6270	12.4560
 0.6280	12.4510
 0.6290	12.4520
 0.6300	12.4670
 0.6310	12.4650
 0.6320	12.4520
 0.6330	12.4770
 0.6340	12.4700
 0.6350	12.4490
 0.6360	12.4430
 0.6370	12.4500
 0.6380	12.4560
 0.6390	12.4500
 0.6400	12.4240
 0.6410	12.4410
 0.6420	12.4490
 0.6430	12.4260
 0.6440	12.4190
 0.6450	12.4080
 0.6460	12.4030
 0.6470	12.4150
 0.6480	12.4150
 0.6490	12.4070
 0.6500	12.3980
 0.6510	12.3890
 0.6520	12.3850
 0.6530	12.3990
 0.6540	12.4250
 0.6550	12.4230
 0.6560	12.4180
 0.6570	12.4250
 0.6580	12.4500
 0.6590	12.4330
 0.6600	12.4190
 0.6610	12.4220
 0.6620	12.4180
 0.6630	12.4280
 0.6640	12.4380
 0.6650	12.4360
 0.6660	12.4510
 0.6670	12.4400
 0.6680	12.4270
 0.6690	12.4560
 0.6700	12.4740
 0.6710	12.4820
 0.6720	12.4880
 0.6730	12.5060
 0.6740	12.5220
 0.6750	12.5470
 0.6760	12.5860
 0.6770	12.5780
 0.6780	12.5820
 0.6790	12.6180
 0.6800	12.6750
 0.6810	12.7190
 0.6820	12.7480
 0.6830	12.7700
 0.6840	12.7970
 0.6850	12.8120
 0.6860	12.8320
 0.6870	12.8770
 0.6880	12.9220
 0.6890	12.9480
 0.6900	12.9680
 0.6910	13.0150
 0.6920	13.0640
 0.6930	13.1580
 0.6940	13.3190
 0.6950	13.4960
 0.6960	13.7090
 0.6970	13.9870
 0.6980	14.3450
 0.6990	14.7460
 0.7000	15.2260
 0.7010	15.7900
 0.7020	16.4170
 0.7030	17.0840
 0.7040	17.7980
 0.7050	18.5640
 0.7060	19.3650
 0.7070	20.2270
 0.7080	21.1400
 0.7090	22.0840
 0.7100	23.0460
 0.7110	24.0520
 0.7120	25.1100
 0.7130	26.2190
 0.7140	27.3310
 0.7150	28.4600
 0.7160	29.6270
 0.7170	30.8470
 0.7180	32.0830
 0.7190	33.3310
 0.7200	34.6020
 0.7210	35.8740
 0.7220	37.1580
 0.7230	38.4550
 0.7240	39.7520
 0.7250	41.0490
 0.7260	42.3260
 0.7270	43.5650
 0.7280	44.7640
 0.7290	45.9550
 0.7300	47.1200
 0.7310	48.2270
 0.7320	49.3090
 0.7330	50.3590
 0.7340	51.3630
 0.7350	52.3050
 0.7360	53.1870
 0.7370	54.0420
 0.7380	54.8790
 0.7390	55.6290
 0.7400	56.3450
 0.7410	57.0320
 0.7420	57.6740
 0.7430	58.2500
 0.7440	58.7800
 0.7450	59.2800
 0.7460	59.7570
 0.7470	60.1580
 0.7480	60.5290
 0.7490	60.8950
 0.7500	61.1970
 0.7510	61.5020
 0.7520	61.7930
 0.7530	62.0310
 0.7540	62.2050
 0.7550	62.3840
 0.7560	62.5740
 0.7570	62.7290
 0.7580	62.8810
 0.7590	63.0220
 0.7600	63.1380
 0.7610	63.2160
 0.7620	63.2740
 0.7630	63.3460
 0.7640	63.4450
 0.7650	63.5070
 0.7660	63.5300
 0.7670	63.5610
 0.7680	63.6580
 0.7690	63.6670
 0.7700	63.6620
 0.7710	63.6840
 0.7720	63.6870
 0.7730	63.7020
 0.7740	63.7410
 0.7750	63.7870
 0.7760	63.7530
 0.7770	63.7440
 0.7780	63.7630
 0.7790	63.7650
 0.7800	63.7790
 0.7810	63.7860
 0.7820	63.7750
 0.7830	63.7560
 0.7840	63.7640
 0.7850	63.7630
 0.7860	63.7370
 0.7870	63.7510
 0.7880	63.7650
 0.7890	63.7600
 0.7900	63.7360
 0.7910	63.7300
 0.7920	63.7290
 0.7930	63.7320
 0.7940	63.7400
 0.7950	63.7180
 0.7960	63.6810
 0.7970	63.6550
 0.7980	63.6600
 0.7990	63.6810
 0.8000	63.6840
 0.8010	63.6570
 0.8020	63.6600
 0.8030	63.6500
 0.8040	63.6290
 0.8050	63.6150
 0.8060	63.5840
 0.8070	63.5820
 0.8080	63.5970
 0.8090	63.5730
 0.8100	63.5810
 0.8110	63.5800
 0.8120	63.5490
 0.8130	63.5200
 0.8140	63.5060
 0.8150	63.5120
 0.8160	63.5320
 0.8170	63.5400
 0.8180	63.5240
 0.8190	63.4910
 0.8200	63.4620
 0.8210	63.4830
 0.8220	63.5090
 0.8230	63.5160
 0.8240	63.5000
 0.8250	63.4710
 0.8260	63.4530
 0.8270	63.4530
 0.8280	63.4490
 0.8290	63.4690
 0.8300	63.4950
 0.8310	63.5070
 0.8320	63.5150
 0.8330	63.4800
 0.8340	63.4430
 0.8350	63.4570
 0.8360	63.4660
 0.8370	63.4750
 0.8380	63.4880
 0.8390	63.5070
 0.8400	63.5200
 0.8410	63.5430
 0.8420	63.5720
 0.8430	63.5700
 0.8440	63.5760
 0.8450	63.5770
 0.8460	63.5690
 0.8470	63.5900
 0.8480	63.6390
 0.8490	63.6670
 0.8500	63.6400
 0.8510	63.6430
 0.8520	63.6620
 0.8530	63.6830
 0.8540	63.6930
 0.8550	63.6970
 0.8560	63.7240
 0.8570	63.7580
 0.8580	63.7430
 0.8590	63.7780
 0.8600	63.7970
 0.8610	63.7750
 0.8620	63.8000
 0.8630	63.8000
 0.8640	63.8090
 0.8650	63.8620
 0.8660	63.9220
 0.8670	63.9150
 0.8680	63.8680
 0.8690	63.8430
 0.8700	63.8660
 0.8710	63.8800
 0.8720	63.8830
 0.8730	63.8990
 0.8740	63.9070
 0.8750	63.9490
 0.8760	64.0040
 0.8770	64.0060
 0.8780	64.0220
 0.8790	64.0030
 0.8800	63.9760
 0.8810	64.0790
 0.8820	64.0630
 0.8830	64.0110
 0.8840	64.0160
 0.8850	64.0220
 0.8860	64.0650
 0.8870	64.0860
 0.8880	64.0420
 0.8890	64.0430
 0.8900	64.0660
 0.8910	64.0630
 0.8920	64.0090
 0.8930	64.0370
 0.8940	64.0730
 0.8950	64.0720
 0.8960	64.0320
 0.8970	64.0380
 0.8980	64.0490
 0.8990	64.0480
 0.9000	64.0560
 0.9010	64.0410
 0.9020	64.0580
 0.9030	64.0960
 0.9040	64.0550
 0.9050	64.0040
 0.9060	63.9700
 0.9070	63.9690
 0.9080	64.0100
 0.9090	64.0130
 0.9100	63.9810
 0.9110	63.9480
 0.9120	63.9680
 0.9130	63.9590
 0.9140	63.9510
 0.9150	63.9820
 0.9160	63.9720
 0.9170	63.9750
 0.9180	63.9690
 0.9190	63.9200
 0.9200	63.8830
 0.9210	63.8760
 0.9220	63.8760
 0.9230	63.8460
 0.9240	63.8410
 0.9250	63.8160
 0.9260	63.7820
 0.9270	63.7800
 0.9280	63.7240
 0.9290	63.6760
 0.9300	63.6490
 0.9310	63.6030
 0.9320	63.5820
 0.9330	63.5080
 0.9340	63.4050
 0.9350	63.4130
 0.9360	63.3770
 0.9370	63.3260
 0.9380	63.2940
 0.9390	63.2710
 0.9400	63.1880
 0.9410	63.1510
 0.9420	63.1760
 0.9430	63.0750
 0.9440	63.0220
 0.9450	62.9390
 0.9460	62.7970
 0.9470	62.7960
 0.9480	62.6700
 0.9490	62.5860
 0.9500	62.6300
 0.9510	62.4180
 0.9520	62.2300
 0.9530	62.1610
 0.9540	62.1750
 0.9550	62.0180
 0.9560	61.9580
 0.9570	61.9560
 0.9580	61.8970
 0.9590	61.7950
 0.9600	61.6370
 0.9610	61.5220
 0.9620	61.5190
 0.9630	61.4510
 0.9640	61.4210
 0.9650	61.3900
 0.9660	61.3080
 0.9670	61.3410
 0.9680	61.3360
 0.9690	61.2520
 0.9700	61.1410
 0.9710	61.1710
 0.9720	61.2750
 0.9730	61.3020
 0.9740	61.1630
 0.9750	61.1880
 0.9760	61.1900
 0.9770	61.2020
 0.9780	61.3050
 0.9790	61.2640
 0.9800	61.2280
 0.9810	61.2410
 0.9820	61.2740
 0.9830	61.2990
 0.9840	61.2750
 0.9850	61.2420
 0.9860	61.2790
 0.9870	61.4300
 0.9880	61.4370
 0.9890	61.3500
 0.9900	61.3460
 0.9910	61.3550
 0.9920	61.3790
 0.9930	61.4450
 0.9940	61.5520
 0.9950	61.5300
 0.9960	61.5120
 0.9970	61.5290
 0.9980	61.5660
 0.9990	61.6550
 1.0000	61.7020
 1.0010	61.5910
 1.0020	61.6350
 1.0030	61.6590
 1.0040	61.6940
 1.0050	61.7310
 1.0060	61.7630
 1.0070	61.8080
 1.0080	61.8380
 1.0090	61.8380
 1.0100	61.8610
 1.0110	61.8970
 1.0120	61.9340
 1.0130	61.9860
 1.0140	62.0220
 1.0150	62.0560
 1.0160	62.0660
 1.0170	62.1000
 1.0180	62.1550
 1.0190	62.1990
 1.0200	62.2580
 1.0210	62.3030
 1.0220	62.3290
 1.0230	62.3600
 1.0240	62.3880
 1.0250	62.4220
 1.0260	62.4620
 1.0270	62.4940
 1.0280	62.5290
 1.0290	62.5570
 1.0300	62.5390
 1.0310	62.5760
 1.0320	62.6590
 1.0330	62.7260
 1.0340	62.7330
 1.0350	62.7720
 1.0360	62.8000
 1.0370	62.8170
 1.0380	62.8420
 1.0390	62.9160
 1.0400	62.9530
 1.0410	62.9530
 1.0420	62.9670
 1.0430	62.9930
 1.0440	63.0130
 1.0450	62.9940
 1.0460	63.0200
 1.0470	63.1050
 1.0480	63.1420
 1.0490	63.1660
 1.0500	63.1970
 1.0510	63.2030
 1.0520	63.2080
 1.0530	63.2260
 1.0540	63.2760
 1.0550	63.2860
 1.0560	63.2630
 1.0570	63.2800
 1.0580	63.3100
 1.0590	63.3230
 1.0600	63.3600
 1.0610	63.3720
 1.0620	63.3490
 1.0630	63.3430
 1.0640	63.3340
 1.0650	63.3350
 1.0660	63.3410
 1.0670	63.3480
 1.0680	63.3600
 1.0690	63.3820
 1.0700	63.3980
 1.0710	63.4140
 1.0720	63.4240
 1.0730	63.4470
 1.0740	63.4330
 1.0750	63.3900
 1.0760	63.3640
 1.0770	63.3000
 1.0780	63.2890
 1.0790	63.3250
 1.0800	63.3370
 1.0810	63.3720
 1.0820	63.3880
 1.0830	63.3820
 1.0840	63.3800
 1.0850	63.3760
 1.0860	63.3700
 1.0870	63.3620
 1.0880	63.3470
 1.0890	63.3430
 1.0900	63.3470
 1.0910	63.3400
 1.0920	63.3390
 1.0930	63.3230
 1.0940	63.2930
 1.0950	63.2680
 1.0960	63.2220
 1.0970	63.2080
 1.0980	63.2190
 1.0990	63.2130
 1.1000	63.2170
 1.1010	63.2200
 1.1020	63.2180
 1.1030	63.2010
 1.1040	63.1880
 1.1050	63.1660
 1.1060	63.1410
 1.1070	63.1020
 1.1080	63.0650
 1.1090	63.0230
 1.1100	62.9990
 1.1110	62.9770
 1.1120	62.9550
 1.1130	62.9510
 1.1140	62.9320
 1.1150	62.9060
 1.1160	62.8740
 1.1170	62.8400
 1.1180	62.8020
 1.1190	62.7570
 1.1200	62.6990
 1.1210	62.6460
 1.1220	62.6030
 1.1230	62.5620
 1.1240	62.5070
 1.1250	62.4340
 1.1260	62.3580
 1.1270	62.2520
 1.1280	62.1090
 1.1290	61.9890
 1.1300	61.8600
 1.1310	61.7270
 1.1320	61.6110
 1.1330	61.4630
 1.1340	61.2920
 1.1350	61.1250
 1.1360	60.9460
 1.1370	60.7630
 1.1380	60.5960
 1.1390	60.4000
 1.1400	60.2060
 1.1410	59.9960
 1.1420	59.7520
 1.1430	59.5140
 1.1440	59.2950
 1.1450	59.0680
 1.1460	58.8690
 1.1470	58.7070
 1.1480	58.5150
 1.1490	58.3110
 1.1500	58.1280
 1.1510	57.9350
 1.1520	57.7710
 1.1530	57.6290
 1.1540	57.4960
 1.1550	57.3780
 1.1560	57.2710
 1.1570	57.1820
 1.1580	57.1010
 1.1590	57.0360
 1.1600	56.9660
 1.1610	56.8860
 1.1620	56.8270
 1.1630	56.7610
 1.1640	56.7070
 1.1650	56.6660
 1.1660	56.6480
 1.1670	56.6110
 1.1680	56.5740
 1.1690	56.5430
 1.1700	56.5060
 1.1710	56.4780
 1.1720	56.4660
 1.1730	56.4470
 1.1740	56.4240
 1.1750	56.4030
 1.1760	56.3880
 1.1770	56.3700
 1.1780	56.3530
 1.1790	56.3330
 1.1800	56.3020
 1.1810	56.2600
 1.1820	56.2220
 1.1830	56.1860
 1.1840	56.1490
 1.1850	56.1290
 1.1860	56.1040
 1.1870	56.0610
 1.1880	56.0390
 1.1890	56.0220
 1.1900	56.0190
 1.1910	56.0410
 1.1920	56.0490
 1.1930	56.0650
 1.1940	56.0580
 1.1950	56.0300
 1.1960	56.0070
 1.1970	55.9910
 1.1980	55.9920
 1.1990	56.0000
 1.2000	56.0160
 1.2010	56.0250
 1.2020	56.0150
 1.2030	56.0090
 1.2040	56.0040
 1.2050	56.0020
 1.2060	56.0190
 1.2070	56.0410
 1.2080	56.0580
 1.2090	56.0710
 1.2100	56.0820
 1.2110	56.1090
 1.2120	56.1460
 1.2130	56.1810
 1.2140	56.2360
 1.2150	56.2810
 1.2160	56.3220
 1.2170	56.3560
 1.2180	56.3940
 1.2190	56.4180
 1.2200	56.4350
 1.2210	56.4680
 1.2220	56.5170
 1.2230	56.5690
 1.2240	56.6300
 1.2250	56.6930
 1.2260	56.7500
 1.2270	56.8030
 1.2280	56.8500
 1.2290	56.8980
 1.2300	56.9400
 1.2310	56.9710
 1.2320	56.9980
 1.2330	57.0200
 1.2340	57.0510
 1.2350	57.0930
 1.2360	57.1260
 1.2370	57.1580
 1.2380	57.1860
 1.2390	57.2200
 1.2400	57.2390
 1.2410	57.2630
 1.2420	57.3030
 1.2430	57.3300
 1.2440	57.3460
 1.2450	57.3790
 1.2460	57.4110
 1.2470	57.4280
 1.2480	57.4540
 1.2490	57.4920
 1.2500	57.5280
 1.2510	57.5660
 1.2520	57.5920
 1.2530	57.5960
 1.2540	57.6050
 1.2550	57.6040
 1.2560	57.6120
 1.2570	57.6470
 1.2580	57.6670
 1.2590	57.6790
 1.2600	57.6990
 1.2610	57.7040
 1.2620	57.6890
 1.2630	57.6780
 1.2640	57.6840
 1.2650	57.6960
 1.2660	57.7120
 1.2670	57.7280
 1.2680	57.7320
 1.2690	57.7330
 1.2700	57.7240
 1.2710	57.6990
 1.2720	57.6850
 1.2730	57.6710
 1.2740	57.6440
 1.2750	57.6430
 1.2760	57.6290
 1.2770	57.5870
 1.2780	57.5530
 1.2790	57.5110
 1.2800	57.4670
 1.2810	57.4320
 1.2820	57.4070
 1.2830	57.3770
 1.2840	57.3470
 1.2850	57.3140
 1.2860	57.2720
 1.2870	57.2240
 1.2880	57.1720
 1.2890	57.1040
 1.2900	57.0390
 1.2910	56.9840
 1.2920	56.9350
 1.2930	56.8890
 1.2940	56.8460
 1.2950	56.7950
 1.2960	56.7300
 1.2970	56.6660
 1.2980	56.6050
 1.2990	56.5380
 1.3000	56.4730
 1.3010	56.4140
 1.3020	56.3470
 1.3030	56.2670
 1.3040	56.1700
 1.3050	56.0750
 1.3060	55.9750
 1.3070	55.8610
 1.3080	55.7620
 1.3090	55.6500
 1.3100	55.5290
 1.3110	55.4230
 1.3120	55.3020
 1.3130	55.1650
 1.3140	55.0350
 1.3150	54.9050
 1.3160	54.7700
 1.3170	54.6350
 1.3180	54.5030
 1.3190	54.3590
 1.3200	54.1810
 1.3210	53.9990
 1.3220	53.8200
 1.3230	53.6300
 1.3240	53.4490
 1.3250	53.2700
 1.3260	53.0950
 1.3270	52.9260
 1.3280	52.7480
 1.3290	52.5750
 1.3300	52.3900
 1.3310	52.1860
 1.3320	51.9780
 1.3330	51.7730
 1.3340	51.5760
 1.3350	51.3860
 1.3360	51.1960
 1.3370	50.9920
 1.3380	50.7890
 1.3390	50.5900
 1.3400	50.3870
 1.3410	50.2040
 1.3420	50.0230
 1.3430	49.8280
 1.3440	49.6560
 1.3450	49.4810
 1.3460	49.3030
 1.3470	49.1230
 1.3480	48.9460
 1.3490	48.7720
 1.3500	48.5970
 1.3510	48.4350
 1.3520	48.2810
 1.3530	48.1150
 1.3540	47.9400
 1.3550	47.7730
 1.3560	47.5990
 1.3570	47.4250
 1.3580	47.2610
 1.3590	47.0850
 1.3600	46.9040
 1.3610	46.7180
 1.3620	46.5180
 1.3630	46.3120
 1.3640	46.0950
 1.3650	45.8740
 1.3660	45.6500
 1.3670	45.4110
 1.3680	45.1540
 1.3690	44.8710
 1.3700	44.5790
 1.3710	44.2650
 1.3720	43.9330
 1.3730	43.5870
 1.3740	43.2090
 1.3750	42.8050
 1.3760	42.3730
 1.3770	41.9140
 1.3780	41.4290
 1.3790	40.9180
 1.3800	40.3750
 1.3810	39.8060
 1.3820	39.2230
 1.3830	38.6170
 1.3840	37.9900
 1.3850	37.3500
 1.3860	36.6850
 1.3870	35.9820
 1.3880	35.2910
 1.3890	34.5880
 1.3900	33.8810
 1.3910	33.1860
 1.3920	32.4930
 1.3930	31.8050
 1.3940	31.1290
 1.3950	30.4560
 1.3960	29.8130
 1.3970	29.1950
 1.3980	28.5880
 1.3990	28.0120
 1.4000	27.4570
 1.4010	26.9140
 1.4020	26.4000
 1.4030	25.9110
 1.4040	25.4430
 1.4050	25.0050
 1.4060	24.5930
 1.4070	24.2110
 1.4080	23.8570
 1.4090	23.5250
 1.4100	23.2200
 1.4110	22.9330
 1.4120	22.6630
 1.4130	22.4140
 1.4140	22.1790
 1.4150	21.9620
 1.4160	21.7620
 1.4170	21.5730
 1.4180	21.4000
 1.4190	21.2360
 1.4200	21.0840
 1.4210	20.9440
 1.4220	20.8160
 1.4230	20.7000
 1.4240	20.5910
 1.4250	20.4910
 1.4260	20.4000
 1.4270	20.3130
 1.4280	20.2320
 1.4290	20.1590
 1.4300	20.0910
 1.4310	20.0300
 1.4320	19.9790
 1.4330	19.9270
 1.4340	19.8790
 1.4350	19.8340
 1.4360	19.7910
 1.4370	19.7560
 1.4380	19.7290
 1.4390	19.7080
 1.4400	19.6880
 1.4410	19.6730
 1.4420	19.6560
 1.4430	19.6370
 1.4440	19.6290
 1.4450	19.6190
 1.4460	19.6100
 1.4470	19.6130
 1.4480	19.6130
 1.4490	19.6130
 1.4500	19.6210
 1.4510	19.6220
 1.4520	19.6280
 1.4530	19.6380
 1.4540	19.6510
 1.4550	19.6740
 1.4560	19.6940
 1.4570	19.7170
 1.4580	19.7450
 1.4590	19.7690
 1.4600	19.7950
 1.4610	19.8280
 1.4620	19.8660
 1.4630	19.9100
 1.4640	19.9600
 1.4650	20.0170
 1.4660	20.0750
 1.4670	20.1330
 1.4680	20.2000
 1.4690	20.2720
 1.4700	20.3480
 1.4710	20.4310
 1.4720	20.5120
 1.4730	20.5960
 1.4740	20.6820
 1.4750	20.7760
 1.4760	20.8760
 1.4770	20.9820
 1.4780	21.0920
 1.4790	21.1970
 1.4800	21.3060
 1.4810	21.4230
 1.4820	21.5420
 1.4830	21.6610
 1.4840	21.7840
 1.4850	21.9040
 1.4860	22.0190
 1.4870	22.1390
 1.4880	22.2590
 1.4890	22.3780
 1.4900	22.5050
 1.4910	22.6390
 1.4920	22.7690
 1.4930	22.9020
 1.4940	23.0350
 1.4950	23.1650
 1.4960	23.3030
 1.4970	23.4460
 1.4980	23.5840
 1.4990	23.7220
 1.5000	23.8570
 1.5010	23.9860
 1.5020	24.1230
 1.5030	24.2650
 1.5040	24.4050
 1.5050	24.5490
 1.5060	24.6910
 1.5070	24.8280
 1.5080	24.9700
 1.5090	25.1120
 1.5100	25.2550
 1.5110	25.3980
 1.5120	25.5480
 1.5130	25.6940
 1.5140	25.8310
 1.5150	25.9750
 1.5160	26.1150
 1.5170	26.2560
 1.5180	26.4100
 1.5190	26.5610
 1.5200	26.7080
 1.5210	26.8590
 1.5220	27.0040
 1.5230	27.1460
 1.5240	27.2900
 1.5250	27.4310
 1.5260	27.5690
 1.5270	27.7100
 1.5280	27.8540
 1.5290	27.9990
 1.5300	28.1410
 1.5310	28.2840
 1.5320	28.4260
 1.5330	28.5640
 1.5340	28.6990
 1.5350	28.8380
 1.5360	28.9810
 1.5370	29.1150
 1.5380	29.2480
 1.5390	29.3870
 1.5400	29.5140
 1.5410	29.6460
 1.5420	29.7860
 1.5430	29.9160
 1.5440	30.0450
 1.5450	30.1790
 1.5460	30.3060
 1.5470	30.4390
 1.5480	30.5760
 1.5490	30.7030
 1.5500	30.8290
 1.5510	30.9500
 1.5520	31.0690
 1.5530	31.1960
 1.5540	31.3200
 1.5550	31.4410
 1.5560	31.5660
 1.5570	31.6850
 1.5580	31.8020
 1.5590	31.9250
 1.5600	32.0420
 1.5610	32.1600
 1.5620	32.2700
 1.5630	32.3800
 1.5640	32.4940
 1.5650	32.5990
 1.5660	32.7100
 1.5670	32.8180
 1.5680	32.9220
 1.5690	33.0310
 1.5700	33.1370
 1.5710	33.2390
 1.5720	33.3380
 1.5730	33.4410
 1.5740	33.5430
 1.5750	33.6580
 1.5760	33.7770
 1.5770	33.8760
 1.5780	33.9850
 1.5790	34.0920
 1.5800	34.1870
 1.5810	34.2960
 1.5820	34.3960
 1.5830	34.4850
 1.5840	34.5740
 1.5850	34.6620
 1.5860	34.7520
 1.5870	34.8470
 1.5880	34.9380
 1.5890	35.0260
 1.5900	35.1140
 1.5910	35.1930
 1.5920	35.2800
 1.5930	35.3770
 1.5940	35.4710
 1.5950	35.5740
 1.5960	35.6660
 1.5970	35.7420
 1.5980	35.8200
 1.5990	35.8890
 1.6000	35.9730
 1.6010	36.0670
 1.6020	36.1470
 1.6030	36.2340
 1.6040	36.3100
 1.6050	36.3830
 1.6060	36.4600
 1.6070	36.5320
 1.6080	36.6100
 1.6090	36.6870
 1.6100	36.7720
 1.6110	36.8580
 1.6120	36.9370
 1.6130	37.0100
 1.6140	37.0720
 1.6150	37.1380
 1.6160	37.2070
 1.6170	37.2710
 1.6180	37.3340
 1.6190	37.3920
 1.6200	37.4440
 1.6210	37.4910
 1.6220	37.5420
 1.6230	37.5950
 1.6240	37.6540
 1.6250	37.7130
 1.6260	37.7800
 1.6270	37.8460
 1.6280	37.9010
 1.6290	37.9550
 1.6300	37.9940
 1.6310	38.0490
 1.6320	38.1140
 1.6330	38.1730
 1.6340	38.2430
 1.6350	38.3010
 1.6360	38.3490
 1.6370	38.4000
 1.6380	38.4470
 1.6390	38.4930
 1.6400	38.5360
 1.6410	38.5780
 1.6420	38.6180
 1.6430	38.6580
 1.6440	38.7040
 1.6450	38.7430
 1.6460	38.7790
 1.6470	38.8210
 1.6480	38.8470
 1.6490	38.8810
 1.6500	38.9170
 1.6510	38.9350
 1.6520	38.9500
 1.6530	38.9540
 1.6540	38.9570
 1.6550	38.9760
 1.6560	39.0000
 1.6570	39.0240
 1.6580	39.0470
 1.6590	39.0590
 1.6600	39.0640
 1.6610	39.0820
 1.6620	39.0960
 1.6630	39.1030
 1.6640	39.1190
 1.6650	39.1180
 1.6660	39.1180
 1.6670	39.1160
 1.6680	39.1020
 1.6690	39.1020
 1.6700	39.0990
 1.6710	39.0910
 1.6720	39.0920
 1.6730	39.0890
 1.6740	39.0750
 1.6750	39.0600
 1.6760	39.0440
 1.6770	39.0140
 1.6780	38.9840
 1.6790	38.9710
 1.6800	38.9550
 1.6810	38.9370
 1.6820	38.9170
 1.6830	38.8840
 1.6840	38.8460
 1.6850	38.7970
 1.6860	38.7520
 1.6870	38.7120
 1.6880	38.6630
 1.6890	38.6210
 1.6900	38.5820
 1.6910	38.5430
 1.6920	38.5050
 1.6930	38.4740
 1.6940	38.4410
 1.6950	38.4040
 1.6960	38.3590
 1.6970	38.3220
 1.6980	38.2710
 1.6990	38.2150
 1.7000	38.1570
 1.7010	38.0880
 1.7020	38.0250
 1.7030	37.9520
 1.7040	37.8910
 1.7050	37.8430
 1.7060	37.7860
 1.7070	37.7400
 1.7080	37.6770
 1.7090	37.5950
 1.7100	37.5350
 1.7110	37.4730
 1.7120	37.4340
 1.7130	37.3920
 1.7140	37.3200
 1.7150	37.2420
 1.7160	37.1630
 1.7170	37.0840
 1.7180	37.0160
 1.7190	36.9560
 1.7200	36.8930
 1.7210	36.8200
 1.7220	36.7480
 1.7230	36.6740
 1.7240	36.5840
 1.7250	36.4900
 1.7260	36.4080
 1.7270	36.3320
 1.7280	36.2590
 1.7290	36.2010
 1.7300	36.1430
 1.7310	36.0870
 1.7320	36.0380
 1.7330	35.9890
 1.7340	35.9340
 1.7350	35.8940
 1.7360	35.8700
 1.7370	35.8360
 1.7380	35.8140
 1.7390	35.7730
 1.7400	35.7140
 1.7410	35.6610
 1.7420	35.6100
 1.7430	35.5450
 1.7440	35.4790
 1.7450	35.3990
 1.7460	35.2900
 1.7470	35.2100
 1.7480	35.1370
 1.7490	35.0620
 1.7500	35.0010
 1.7510	34.9350
 1.7520	34.8690
 1.7530	34.7900
 1.7540	34.7130
 1.7550	34.6200
 1.7560	34.5050
 1.7570	34.4100
 1.7580	34.3220
 1.7590	34.2410
 1.7600	34.1790
 1.7610	34.0880
 1.7620	34.0050
 1.7630	33.9010
 1.7640	33.8220
 1.7650	33.7710
 1.7660	33.7110
 1.7670	33.6570
 1.7680	33.6060
 1.7690	33.5560
 1.7700	33.5030
 1.7710	33.4460
 1.7720	33.4000
 1.7730	33.3480
 1.7740	33.3080
 1.7750	33.2900
 1.7760	33.2530
 1.7770	33.2060
 1.7780	33.1700
 1.7790	33.1280
 1.7800	33.0980
 1.7810	33.0810
 1.7820	33.0580
 1.7830	33.0360
 1.7840	33.0170
 1.7850	32.9990
 1.7860	32.9860
 1.7870	32.9800
 1.7880	32.9570
 1.7890	32.9430
 1.7900	32.9340
 1.7910	32.9220
 1.7920	32.9220
 1.7930	32.9110
 1.7940	32.8730
 1.7950	32.8620
 1.7960	32.8660
 1.7970	32.8710
 1.7980	32.8990
 1.7990	32.9100
 1.8000	32.9120
 1.8010	32.9100
 1.8020	32.8960
 1.8030	32.8960
 1.8040	32.8960
 1.8050	32.9050
 1.8060	32.9320
 1.8070	32.9450
 1.8080	32.9560
 1.8090	32.9620
 1.8100	32.9600
 1.8110	32.9580
 1.8120	32.9690
 1.8130	32.9880
 1.8140	33.0030
 1.8150	33.0140
 1.8160	33.0230
 1.8170	33.0280
 1.8180	33.0250
 1.8190	33.0250
 1.8200	33.0280
 1.8210	33.0380
 1.8220	33.0300
 1.8230	33.0170
 1.8240	32.9990
 1.8250	32.9660
 1.8260	32.9350
 1.8270	32.9020
 1.8280	32.8730
 1.8290	32.8290
 1.8300	32.8040
 1.8310	32.5010
 1.8320	32.4850
 1.8330	32.4450
 1.8340	32.4090
 1.8350	32.3740
 1.8360	32.3470
 1.8370	32.3010
 1.8380	32.2400
 1.8390	32.1810
 1.8400	32.1330
 1.8410	32.0490
 1.8420	31.9520
 1.8430	31.8460
 1.8440	31.7080
 1.8450	31.5690
 1.8460	31.4200
 1.8470	31.2880
 1.8480	31.1670
 1.8490	31.0160
 1.8500	30.8570
 1.8510	30.6990
 1.8520	30.5140
 1.8530	30.2870
 1.8540	30.0620
 1.8550	29.8060
 1.8560	29.5220
 1.8570	29.2290
 1.8580	28.9360
 1.8590	28.6400
 1.8600	28.3550
 1.8610	28.0360
 1.8620	27.6730
 1.8630	27.2900
 1.8640	26.8870
 1.8650	26.4560
 1.8660	26.0420
 1.8670	25.6250
 1.8680	25.1670
 1.8690	24.7190
 1.8700	24.2630
 1.8710	23.8010
 1.8720	23.3270
 1.8730	22.8550
 1.8740	22.3530
 1.8750	21.8400
 1.8760	21.3200
 1.8770	20.8080
 1.8780	20.3000
 1.8790	19.7910
 1.8800	19.3040
 1.8810	18.8310
 1.8820	18.3570
 1.8830	17.8980
 1.8840	17.4530
 1.8850	17.0040
 1.8860	16.5900
 1.8870	16.2160
 1.8880	15.8670
 1.8890	15.5530
 1.8900	15.2520
 1.8910	14.9670
 1.8920	14.6960
 1.8930	14.4470
 1.8940	14.2270
 1.8950	14.0290
 1.8960	13.8350
 1.8970	13.6770
 1.8980	13.5460
 1.8990	13.4350
 1.9000	13.3310
 1.9010	13.2600
 1.9020	13.1740
 1.9030	13.0910
 1.9040	12.9970
 1.9050	12.9250
 1.9060	12.8810
 1.9070	12.8520
 1.9080	12.8370
 1.9090	12.8270
 1.9100	12.8130
 1.9110	12.7880
 1.9120	12.7470
 1.9130	12.7250
 1.9140	12.7060
 1.9150	12.6800
 1.9160	12.6730
 1.9170	12.6710
 1.9180	12.6640
 1.9190	12.6590
 1.9200	12.6560
 1.9210	12.6540
 1.9220	12.6540
 1.9230	12.6550
 1.9240	12.6580
 1.9250	12.6660
 1.9260	12.6670
 1.9270	12.6620
 1.9280	12.6470
 1.9290	12.6620
 1.9300	12.6760
 1.9310	12.6830
 1.9320	12.7070
 1.9330	12.7170
 1.9340	12.7080
 1.9350	12.7080
 1.9360	12.7090
 1.9370	12.7110
 1.9380	12.7190
 1.9390	12.7110
 1.9400	12.7070
 1.9410	12.7220
 1.9420	12.7310
 1.9430	12.7550
 1.9440	12.7550
 1.9450	12.7370
 1.9460	12.7360
 1.9470	12.7190
 1.9480	12.7170
 1.9490	12.7260
 1.9500	12.7640
 1.9510	12.7870
 1.9520	12.8000
 1.9530	12.8200
 1.9540	12.8230
 1.9550	12.8330
 1.9560	12.8370
 1.9570	12.8490
 1.9580	12.8690
 1.9590	12.8920
 1.9600	12.9230
 1.9610	12.9410
 1.9620	12.9580
 1.9630	12.9640
 1.9640	12.9610
 1.9650	12.9650
 1.9660	12.9930
 1.9670	13.0180
 1.9680	13.0420
 1.9690	13.0750
 1.9700	13.1020
 1.9710	13.1200
 1.9720	13.1470
 1.9730	13.1860
 1.9740	13.2090
 1.9750	13.2230
 1.9760	13.2490
 1.9770	13.2750
 1.9780	13.2990
 1.9790	13.3280
 1.9800	13.3630
 1.9810	13.3970
 1.9820	13.4400
 1.9830	13.4710
 1.9840	13.5000
 1.9850	13.5310
 1.9860	13.5520
 1.9870	13.5750
 1.9880	13.6220
 1.9890	13.6590
 1.9900	13.6970
 1.9910	13.7490
 1.9920	13.8040
 1.9930	13.8690
 1.9940	13.9280
 1.9950	13.9940
 1.9960	14.0460
 1.9970	14.1000
 1.9980	14.1310
 1.9990	14.1370
 2.0000	14.1560
 2.0010	14.1630
 2.0020	14.1760
 2.0030	14.2260
 2.0040	14.2840
 2.0050	14.3360
 2.0060	14.3900
 2.0070	14.4520
 2.0080	14.5290
 2.0090	14.5820
 2.0100	14.6390
 2.0110	14.6840
 2.0120	14.7010
 2.0130	14.7270
 2.0140	14.7530
 2.0150	14.7920
 2.0160	14.8400
 2.0170	14.8740
 2.0180	14.9250
 2.0190	14.9930
 2.0200	15.0490
 2.0210	15.1120
 2.0220	15.1620
 2.0230	15.2000
 2.0240	15.2410
 2.0250	15.2720
 2.0260	15.3150
 2.0270	15.3610
 2.0280	15.4210
 2.0290	15.4760
 2.0300	15.5350
 2.0310	15.5880
 2.0320	15.6330
 2.0330	15.6840
 2.0340	15.7290
 2.0350	15.7900
 2.0360	15.8670
 2.0370	15.9300
 2.0380	15.9940
 2.0390	16.0540
 2.0400	16.1050
 2.0410	16.1500
 2.0420	16.1840
 2.0430	16.2380
 2.0440	16.2810
 2.0450	16.3210
 2.0460	16.3490
 2.0470	16.3640
 2.0480	16.3950
 2.0490	16.4140
 2.0500	16.4530
 2.0510	16.5150
 2.0520	16.5740
 2.0530	16.6360
 2.0540	16.7010
 2.0550	16.7720
 2.0560	16.8500
 2.0570	16.9440
 2.0580	17.0060
 2.0590	17.0710
 2.0600	17.1400
 2.0610	17.1860
 2.0620	17.2040
 2.0630	17.2500
 2.0640	17.2930
 2.0650	17.3450
 2.0660	17.4170
 2.0670	17.4790
 2.0680	17.5440
 2.0690	17.6010
 2.0700	17.6500
 2.0710	17.7050
 2.0720	17.7560
 2.0730	17.8120
 2.0740	17.8680
 2.0750	17.9390
 2.0760	17.9780
 2.0770	17.9910
 2.0780	18.0260
 2.0790	18.0420
 2.0800	18.0870
 2.0810	18.1590
 2.0820	18.2280
 2.0830	18.3200
 2.0840	18.3880
 2.0850	18.4540
 2.0860	18.5100
 2.0870	18.5380
 2.0880	18.5820
 2.0890	18.6280
 2.0900	18.6710
 2.0910	18.7370
 2.0920	18.8230
 2.0930	18.8920
 2.0940	18.9750
 2.0950	19.0370
 2.0960	19.0730
 2.0970	19.1220
 2.0980	19.1690
 2.0990	19.2180
 2.1000	19.2730
 2.1010	19.3190
 2.1020	19.3560
 2.1030	19.4010
 2.1040	19.4350
 2.1050	19.4890
 2.1060	19.5500
 2.1070	19.6280
 2.1080	19.6910
 2.1090	19.7590
 2.1100	19.8170
 2.1110	19.8580
 2.1120	19.9120
 2.1130	19.9760
 2.1140	20.0220
 2.1150	20.0530
 2.1160	20.1020
 2.1170	20.1430
 2.1180	20.1960
 2.1190	20.2800
 2.1200	20.3450
 2.1210	20.4080
 2.1220	20.4590
 2.1230	20.5150
 2.1240	20.5690
 2.1250	20.6120
 2.1260	20.6550
 2.1270	20.6850
 2.1280	20.6870
 2.1290	20.7230
 2.1300	20.7710
 2.1310	20.8200
 2.1320	20.8820
 2.1330	20.9480
 2.1340	21.0280
 2.1350	21.0870
 2.1360	21.1580
 2.1370	21.2050
 2.1380	21.2020
 2.1390	21.2280
 2.1400	21.2540
 2.1410	21.2950
 2.1420	21.3290
 2.1430	21.3740
 2.1440	21.4150
 2.1450	21.4480
 2.1460	21.4870
 2.1470	21.5360
 2.1480	21.5770
 2.1490	21.6120
 2.1500	21.6490
 2.1510	21.6890
 2.1520	21.7220
 2.1530	21.7440
 2.1540	21.7750
 2.1550	21.8090
 2.1560	21.8420
 2.1570	21.8930
 2.1580	21.9230
 2.1590	21.9460
 2.1600	21.9540
 2.1610	21.9460
 2.1620	21.9360
 2.1630	21.9470
 2.1640	21.9680
 2.1650	21.9770
 2.1660	21.9910
 2.1670	22.0040
 2.1680	22.0040
 2.1690	22.0150
 2.1700	22.0390
 2.1710	22.0580
 2.1720	22.0720
 2.1730	22.0920
 2.1740	22.1120
 2.1750	22.1400
 2.1760	22.1780
 2.1770	22.2090
 2.1780	22.2390
 2.1790	22.2760
 2.1800	22.3050
 2.1810	22.3460
 2.1820	22.4030
 2.1830	22.4710
 2.1840	22.5060
 2.1850	22.5330
 2.1860	22.5580
 2.1870	22.5760
 2.1880	22.5640
 2.1890	22.5330
 2.1900	22.5170
 2.1910	22.4510
 2.1920	22.4540
 2.1930	22.5250
 2.1940	22.5500
 2.1950	22.5820
 2.1960	22.6050
 2.1970	22.6080
 2.1980	22.6140
 2.1990	22.6180
 2.2000	22.6320
 2.2010	22.6380
 2.2020	22.6490
 2.2030	22.6740
 2.2040	22.7000
 2.2050	22.7090
 2.2060	22.7500
 2.2070	22.7840
 2.2080	22.8380
 2.2090	22.8480
 2.2100	22.8340
 2.2110	22.8470
 2.2120	22.8380
 2.2130	22.8550
 2.2140	22.9210
 2.2150	22.9360
 2.2160	22.9270
 2.2170	22.9260
 2.2180	22.9120
 2.2190	22.9000
 2.2200	22.8860
 2.2210	22.8760
 2.2220	22.8540
 2.2230	22.8490
 2.2240	22.8650
 2.2250	22.8670
 2.2260	22.8740
 2.2270	22.8740
 2.2280	22.8640
 2.2290	22.8500
 2.2300	22.8190
 2.2310	22.8110
 2.2320	22.8010
 2.2330	22.7940
 2.2340	22.7740
 2.2350	22.7580
 2.2360	22.7340
 2.2370	22.6900
 2.2380	22.6650
 2.2390	22.6510
 2.2400	22.6330
 2.2410	22.6290
 2.2420	22.5910
 2.2430	22.5410
 2.2440	22.4770
 2.2450	22.3700
 2.2460	22.3030
 2.2470	22.2570
 2.2480	22.1860
 2.2490	22.1030
 2.2500	22.0470
 2.2510	21.9870
 2.2520	21.9390
 2.2530	21.9380
 2.2540	21.9010
 2.2550	21.8290
 2.2560	21.7900
 2.2570	21.7700
 2.2580	21.7360
 2.2590	21.7180
 2.2600	21.6800
 2.2610	21.6080
 2.2620	21.5560
 2.2630	21.5020
 2.2640	21.4250
 2.2650	21.3390
 2.2660	21.2600
 2.2670	21.1900
 2.2680	21.1180
 2.2690	21.0670
 2.2700	21.0420
 2.2710	20.9950
 2.2720	20.9460
 2.2730	20.9040
 2.2740	20.8660
 2.2750	20.8100
 2.2760	20.7530
 2.2770	20.6910
 2.2780	20.5870
 2.2790	20.5350
 2.2800	20.5210
 2.2810	20.4880
 2.2820	20.4740
 2.2830	20.4450
 2.2840	20.4080
 2.2850	20.3580
 2.2860	20.2940
 2.2870	20.2350
 2.2880	20.1470
 2.2890	20.0970
 2.2900	20.1010
 2.2910	20.0600
 2.2920	20.0130
 2.2930	19.9510
 2.2940	19.8460
 2.2950	19.7550
 2.2960	19.6690
 2.2970	19.5930
 2.2980	19.5000
 2.2990	19.4410
 2.3000	19.4240
 2.3010	19.4010
 2.3020	19.3890
 2.3030	19.3700
 2.3040	19.3110
 2.3050	19.2360
 2.3060	19.1840
 2.3070	19.1120
 2.3080	18.9970
 2.3090	18.9040
 2.3100	18.8510
 2.3110	18.7930
 2.3120	18.7670
 2.3130	18.8220
 2.3140	18.7920
 2.3150	18.7180
 2.3160	18.6880
 2.3170	18.6350
 2.3180	18.6380
 2.3190	18.7040
 2.3200	18.7180
 2.3210	18.7450
 2.3220	18.7390
 2.3230	18.6840
 2.3240	18.6740
 2.3250	18.6710
 2.3260	18.6720
 2.3270	18.7130
 2.3280	18.7010
 2.3290	18.6750
 2.3300	18.6290
 2.3310	18.5230
 2.3320	18.4590
 2.3330	18.3990
 2.3340	18.3460
 2.3350	18.3170
 2.3360	18.2950
 2.3370	18.2780
 2.3380	18.2460
 2.3390	18.2410
 2.3400	18.1920
 2.3410	18.0950
 2.3420	18.0340
 2.3430	17.9540
 2.3440	17.9000
 2.3450	17.8970
 2.3460	17.8520
 2.3470	17.7900
 2.3480	17.7370
 2.3490	17.6640
 2.3500	17.6060
 2.3510	17.5700
 2.3520	17.5330
 2.3530	17.4920
 2.3540	17.4560
 2.3550	17.4620
 2.3560	17.4680
 2.3570	17.4380
 2.3580	17.4520
 2.3590	17.4630
 2.3600	17.3870
 2.3610	17.3830
 2.3620	17.3650
 2.3630	17.3100
 2.3640	17.3150
 2.3650	17.2660
 2.3660	17.2200
 2.3670	17.2090
 2.3680	17.1810
 2.3690	17.1690
 2.3700	17.1360
 2.3710	17.0770
 2.3720	17.0180
 2.3730	16.9950
 2.3740	17.0010
 2.3750	17.0010
 2.3760	16.9690
 2.3770	16.9230
 2.3780	16.9170
 2.3790	16.8850
 2.3800	16.8700
 2.3810	16.8330
 2.3820	16.7200
 2.3830	16.6800
 2.3840	16.6480
 2.3850	16.5900
 2.3860	16.5670
 2.3870	16.5110
 2.3880	16.4240
 2.3890	16.3550
 2.3900	16.3410
 2.3910	16.3360
 2.3920	16.3140
 2.3930	16.3480
 2.3940	16.3720
 2.3950	16.3090
 2.3960	16.2730
 2.3970	16.2330
 2.3980	16.1330
 2.3990	16.0940
 2.4000	16.0820
 2.4010	16.0320
 2.4020	15.9960
 2.4030	15.9320
 2.4040	15.8810
 2.4050	15.8790
 2.4060	15.8110
 2.4070	15.7980
 2.4080	15.8070
 2.4090	15.7550
 2.4100	15.7680
 2.4110	15.7990
 2.4120	15.7670
 2.4130	15.7390
 2.4140	15.6960
 2.4150	15.5580
 2.4160	15.4900
 2.4170	15.4950
 2.4180	15.5380
 2.4190	15.6920
 2.4200	15.7820
 2.4210	15.7080
 2.4220	15.6090
 2.4230	15.4720
 2.4240	15.3470
 2.4250	15.3710
 2.4260	15.3810
 2.4270	15.3160
 2.4280	15.3020
 2.4290	15.2610
 2.4300	15.2190
 2.4310	15.3220
 2.4320	15.2840
 2.4330	15.1680
 2.4340	15.1580
 2.4350	15.0560
 2.4360	15.1150
 2.4370	15.2100
 2.4380	15.1630
 2.4390	15.1710
 2.4400	14.9630
 2.4410	14.7790
 2.4420	14.8130
 2.4430	14.8210
 2.4440	14.8830
 2.4450	14.9400
 2.4460	14.9650
 2.4470	14.8410
 2.4480	14.6420
 2.4490	14.5730
 2.4500	14.5060
 2.4510	14.5360
 2.4520	14.7600
 2.4530	14.8760
 2.4540	14.7180
 2.4550	14.4480
 2.4560	14.1680
 2.4570	14.0670
 2.4580	14.1820
 2.4590	14.4040
 2.4600	14.7120
 2.4610	14.7940
 2.4620	14.6500
 2.4630	14.5040
 2.4640	14.2570
 2.4650	14.1690
 2.4660	14.3190
 2.4670	14.4490
 2.4680	14.5010
 2.4690	14.5200
 2.4700	14.5170
 2.4710	14.4350
 2.4720	14.4100
 2.4730	14.4090
 2.4740	14.3990
 2.4750	14.3920
 2.4760	14.4350
 2.4770	14.5340
 2.4780	14.4630
 2.4790	14.3170
 2.4800	14.1750
 2.4810	13.8700
 2.4820	13.9090
 2.4830	14.1530
 2.4840	14.4500
 2.4850	14.6840
 2.4860	14.8340
 2.4870	14.7380
 2.4880	14.7650
 2.4890	14.8380
 2.4900	14.7410
 2.4910	14.8460
 2.4920	14.7090
 2.4930	14.3100
 2.4940	14.3770
 2.4950	14.3230
 2.4960	14.4350
 2.4970	15.0670
 2.4980	15.0470
 2.4990	14.9870
 2.5000	15.2790
