Name: Ceanothus megacarpus 1
Type: vegetation
Class: Shrub
Genus: Ceanothus
Species: megacarpus
Sample No.: VH019
Owner: UCSB
Wavelength Range: VSWIR
Origin: 34.4908; -119.7914; WGS84
Collection Date: 4/1/2013
Description: Samples were collected as part of the HyspIRI Airborne Campaign. 48 individual plants were sampled in three times in 2013 - spring  summer  and fall. The name of the sample includes a 1  2  or 3 which references a different individual of the species. Samples were taken to JPL and processed within 48 hours of collection. The same leaves were processed in the Nicolet and then measured using the ASD.
Measurement: Bidirectional reflectance
First Column: X
Second Column: Y
X Units: Wavelength (micrometers)
Y Units: Reflectance (percentage)
First X Value: 0.35
Last X Value: 2.5
Number of X Values: 2151
Additional Information: vegetation.shrub.ceanothus.megacarpus.vswir.vh019.ucsb.asd.ancillary.txt

 0.3500	 4.8570
 0.3510	 4.7410
 0.3520	 4.6550
 0.3530	 4.6770
 0.3540	 4.7850
 0.3550	 4.7270
 0.3560	 4.5970
 0.3570	 4.5650
 0.3580	 4.7530
 0.3590	 4.5910
 0.3600	 4.4710
 0.3610	 4.5500
 0.3620	 4.5180
 0.3630	 4.5570
 0.3640	 4.6300
 0.3650	 4.6560
 0.3660	 4.5980
 0.3670	 4.5560
 0.3680	 4.5480
 0.3690	 4.5370
 0.3700	 4.4820
 0.3710	 4.4500
 0.3720	 4.4730
 0.3730	 4.5080
 0.3740	 4.4940
 0.3750	 4.4560
 0.3760	 4.4500
 0.3770	 4.4990
 0.3780	 4.5550
 0.3790	 4.5550
 0.3800	 4.4410
 0.3810	 4.3900
 0.3820	 4.4530
 0.3830	 4.5670
 0.3840	 4.4740
 0.3850	 4.4210
 0.3860	 4.4330
 0.3870	 4.4550
 0.3880	 4.4900
 0.3890	 4.5040
 0.3900	 4.4840
 0.3910	 4.4470
 0.3920	 4.4410
 0.3930	 4.4220
 0.3940	 4.3720
 0.3950	 4.4030
 0.3960	 4.4310
 0.3970	 4.4390
 0.3980	 4.4450
 0.3990	 4.4890
 0.4000	 4.4910
 0.4010	 4.4450
 0.4020	 4.4490
 0.4030	 4.4400
 0.4040	 4.4290
 0.4050	 4.4330
 0.4060	 4.4020
 0.4070	 4.4020
 0.4080	 4.4330
 0.4090	 4.4510
 0.4100	 4.4580
 0.4110	 4.4860
 0.4120	 4.5320
 0.4130	 4.5050
 0.4140	 4.5090
 0.4150	 4.5240
 0.4160	 4.5110
 0.4170	 4.5320
 0.4180	 4.5550
 0.4190	 4.5620
 0.4200	 4.5600
 0.4210	 4.5690
 0.4220	 4.6020
 0.4230	 4.6510
 0.4240	 4.6670
 0.4250	 4.6700
 0.4260	 4.6770
 0.4270	 4.6980
 0.4280	 4.7060
 0.4290	 4.7180
 0.4300	 4.7410
 0.4310	 4.7650
 0.4320	 4.7700
 0.4330	 4.7690
 0.4340	 4.7810
 0.4350	 4.7870
 0.4360	 4.7970
 0.4370	 4.8150
 0.4380	 4.8370
 0.4390	 4.8480
 0.4400	 4.8530
 0.4410	 4.8570
 0.4420	 4.8580
 0.4430	 4.8650
 0.4440	 4.8820
 0.4450	 4.9040
 0.4460	 4.9000
 0.4470	 4.9100
 0.4480	 4.9350
 0.4490	 4.9290
 0.4500	 4.9310
 0.4510	 4.9430
 0.4520	 4.9580
 0.4530	 4.9650
 0.4540	 4.9650
 0.4550	 4.9650
 0.4560	 4.9770
 0.4570	 4.9840
 0.4580	 4.9890
 0.4590	 4.9930
 0.4600	 4.9930
 0.4610	 4.9890
 0.4620	 4.9890
 0.4630	 5.0030
 0.4640	 5.0040
 0.4650	 5.0060
 0.4660	 5.0110
 0.4670	 5.0100
 0.4680	 5.0130
 0.4690	 5.0190
 0.4700	 5.0230
 0.4710	 5.0140
 0.4720	 5.0070
 0.4730	 5.0060
 0.4740	 5.0060
 0.4750	 5.0240
 0.4760	 5.0280
 0.4770	 5.0120
 0.4780	 5.0200
 0.4790	 5.0260
 0.4800	 5.0300
 0.4810	 5.0400
 0.4820	 5.0520
 0.4830	 5.0520
 0.4840	 5.0440
 0.4850	 5.0510
 0.4860	 5.0480
 0.4870	 5.0520
 0.4880	 5.0690
 0.4890	 5.0770
 0.4900	 5.0860
 0.4910	 5.0970
 0.4920	 5.1010
 0.4930	 5.1040
 0.4940	 5.1150
 0.4950	 5.1340
 0.4960	 5.1410
 0.4970	 5.1590
 0.4980	 5.1820
 0.4990	 5.1990
 0.5000	 5.2160
 0.5010	 5.2370
 0.5020	 5.2630
 0.5030	 5.2910
 0.5040	 5.3230
 0.5050	 5.3630
 0.5060	 5.4130
 0.5070	 5.4560
 0.5080	 5.5120
 0.5090	 5.5690
 0.5100	 5.6140
 0.5110	 5.6880
 0.5120	 5.7690
 0.5130	 5.8440
 0.5140	 5.9240
 0.5150	 6.0190
 0.5160	 6.1220
 0.5170	 6.2260
 0.5180	 6.3450
 0.5190	 6.4700
 0.5200	 6.5970
 0.5210	 6.7300
 0.5220	 6.8660
 0.5230	 7.0020
 0.5240	 7.1350
 0.5250	 7.2660
 0.5260	 7.3940
 0.5270	 7.5180
 0.5280	 7.6340
 0.5290	 7.7470
 0.5300	 7.8520
 0.5310	 7.9460
 0.5320	 8.0320
 0.5330	 8.1140
 0.5340	 8.1910
 0.5350	 8.2570
 0.5360	 8.3150
 0.5370	 8.3690
 0.5380	 8.4200
 0.5390	 8.4640
 0.5400	 8.5110
 0.5410	 8.5550
 0.5420	 8.5930
 0.5430	 8.6350
 0.5440	 8.6750
 0.5450	 8.7080
 0.5460	 8.7330
 0.5470	 8.7570
 0.5480	 8.7770
 0.5490	 8.7910
 0.5500	 8.8080
 0.5510	 8.8200
 0.5520	 8.8260
 0.5530	 8.8230
 0.5540	 8.8110
 0.5550	 8.7900
 0.5560	 8.7580
 0.5570	 8.7160
 0.5580	 8.6620
 0.5590	 8.5990
 0.5600	 8.5310
 0.5610	 8.4690
 0.5620	 8.4020
 0.5630	 8.3290
 0.5640	 8.2530
 0.5650	 8.1710
 0.5660	 8.0890
 0.5670	 8.0060
 0.5680	 7.9230
 0.5690	 7.8360
 0.5700	 7.7450
 0.5710	 7.6530
 0.5720	 7.5660
 0.5730	 7.4880
 0.5740	 7.4130
 0.5750	 7.3340
 0.5760	 7.2580
 0.5770	 7.1820
 0.5780	 7.1090
 0.5790	 7.0480
 0.5800	 6.9990
 0.5810	 6.9560
 0.5820	 6.9110
 0.5830	 6.8660
 0.5840	 6.8230
 0.5850	 6.7810
 0.5860	 6.7450
 0.5870	 6.7190
 0.5880	 6.7030
 0.5890	 6.6880
 0.5900	 6.6630
 0.5910	 6.6340
 0.5920	 6.6090
 0.5930	 6.5890
 0.5940	 6.5810
 0.5950	 6.5750
 0.5960	 6.5670
 0.5970	 6.5650
 0.5980	 6.5520
 0.5990	 6.5330
 0.6000	 6.5170
 0.6010	 6.4970
 0.6020	 6.4730
 0.6030	 6.4470
 0.6040	 6.4200
 0.6050	 6.3950
 0.6060	 6.3660
 0.6070	 6.3310
 0.6080	 6.2920
 0.6090	 6.2580
 0.6100	 6.2270
 0.6110	 6.1960
 0.6120	 6.1590
 0.6130	 6.1170
 0.6140	 6.0730
 0.6150	 6.0300
 0.6160	 5.9900
 0.6170	 5.9560
 0.6180	 5.9290
 0.6190	 5.9020
 0.6200	 5.8780
 0.6210	 5.8580
 0.6220	 5.8380
 0.6230	 5.8230
 0.6240	 5.8130
 0.6250	 5.8030
 0.6260	 5.7900
 0.6270	 5.7800
 0.6280	 5.7770
 0.6290	 5.7750
 0.6300	 5.7670
 0.6310	 5.7620
 0.6320	 5.7590
 0.6330	 5.7480
 0.6340	 5.7400
 0.6350	 5.7300
 0.6360	 5.7150
 0.6370	 5.6970
 0.6380	 5.6760
 0.6390	 5.6540
 0.6400	 5.6350
 0.6410	 5.6060
 0.6420	 5.5750
 0.6430	 5.5460
 0.6440	 5.5140
 0.6450	 5.4830
 0.6460	 5.4530
 0.6470	 5.4220
 0.6480	 5.3990
 0.6490	 5.3780
 0.6500	 5.3550
 0.6510	 5.3290
 0.6520	 5.3090
 0.6530	 5.2930
 0.6540	 5.2750
 0.6550	 5.2550
 0.6560	 5.2330
 0.6570	 5.2110
 0.6580	 5.1910
 0.6590	 5.1640
 0.6600	 5.1360
 0.6610	 5.1110
 0.6620	 5.0860
 0.6630	 5.0620
 0.6640	 5.0400
 0.6650	 5.0250
 0.6660	 5.0070
 0.6670	 4.9950
 0.6680	 4.9870
 0.6690	 4.9760
 0.6700	 4.9700
 0.6710	 4.9700
 0.6720	 4.9710
 0.6730	 4.9690
 0.6740	 4.9720
 0.6750	 4.9760
 0.6760	 4.9790
 0.6770	 4.9860
 0.6780	 4.9970
 0.6790	 5.0110
 0.6800	 5.0250
 0.6810	 5.0410
 0.6820	 5.0600
 0.6830	 5.0870
 0.6840	 5.1170
 0.6850	 5.1500
 0.6860	 5.1910
 0.6870	 5.2440
 0.6880	 5.3110
 0.6890	 5.3920
 0.6900	 5.4910
 0.6910	 5.6120
 0.6920	 5.7670
 0.6930	 5.9560
 0.6940	 6.1810
 0.6950	 6.4430
 0.6960	 6.7430
 0.6970	 7.0840
 0.6980	 7.4720
 0.6990	 7.8980
 0.7000	 8.3620
 0.7010	 8.8640
 0.7020	 9.4000
 0.7030	 9.9670
 0.7040	10.5610
 0.7050	11.1780
 0.7060	11.8160
 0.7070	12.4770
 0.7080	13.1570
 0.7090	13.8540
 0.7100	14.5710
 0.7110	15.3060
 0.7120	16.0590
 0.7130	16.8270
 0.7140	17.6070
 0.7150	18.4060
 0.7160	19.2220
 0.7170	20.0420
 0.7180	20.8790
 0.7190	21.7260
 0.7200	22.5730
 0.7210	23.4310
 0.7220	24.2900
 0.7230	25.1450
 0.7240	25.9990
 0.7250	26.8460
 0.7260	27.6790
 0.7270	28.4950
 0.7280	29.2980
 0.7290	30.0850
 0.7300	30.8510
 0.7310	31.5910
 0.7320	32.3100
 0.7330	33.0030
 0.7340	33.6680
 0.7350	34.3070
 0.7360	34.9250
 0.7370	35.5120
 0.7380	36.0630
 0.7390	36.5960
 0.7400	37.1030
 0.7410	37.5820
 0.7420	38.0300
 0.7430	38.4480
 0.7440	38.8460
 0.7450	39.2260
 0.7460	39.5790
 0.7470	39.8970
 0.7480	40.1960
 0.7490	40.4830
 0.7500	40.7390
 0.7510	40.9710
 0.7520	41.1920
 0.7530	41.4100
 0.7540	41.5960
 0.7550	41.7620
 0.7560	41.9160
 0.7570	42.0600
 0.7580	42.1910
 0.7590	42.3110
 0.7600	42.4220
 0.7610	42.5240
 0.7620	42.6200
 0.7630	42.7060
 0.7640	42.7790
 0.7650	42.8510
 0.7660	42.9200
 0.7670	42.9830
 0.7680	43.0380
 0.7690	43.0920
 0.7700	43.1360
 0.7710	43.1720
 0.7720	43.2210
 0.7730	43.2640
 0.7740	43.2980
 0.7750	43.3280
 0.7760	43.3630
 0.7770	43.3910
 0.7780	43.4160
 0.7790	43.4490
 0.7800	43.4760
 0.7810	43.5000
 0.7820	43.5240
 0.7830	43.5450
 0.7840	43.5640
 0.7850	43.5890
 0.7860	43.6170
 0.7870	43.6350
 0.7880	43.6480
 0.7890	43.6630
 0.7900	43.6830
 0.7910	43.6970
 0.7920	43.7090
 0.7930	43.7240
 0.7940	43.7430
 0.7950	43.7560
 0.7960	43.7640
 0.7970	43.7700
 0.7980	43.7780
 0.7990	43.7890
 0.8000	43.7990
 0.8010	43.8050
 0.8020	43.8110
 0.8030	43.8150
 0.8040	43.8170
 0.8050	43.8190
 0.8060	43.8200
 0.8070	43.8250
 0.8080	43.8290
 0.8090	43.8220
 0.8100	43.8220
 0.8110	43.8260
 0.8120	43.8290
 0.8130	43.8220
 0.8140	43.8200
 0.8150	43.8190
 0.8160	43.8120
 0.8170	43.8040
 0.8180	43.7970
 0.8190	43.7950
 0.8200	43.7980
 0.8210	43.7890
 0.8220	43.7790
 0.8230	43.7750
 0.8240	43.7760
 0.8250	43.7650
 0.8260	43.7450
 0.8270	43.7260
 0.8280	43.7210
 0.8290	43.7160
 0.8300	43.7070
 0.8310	43.6950
 0.8320	43.6850
 0.8330	43.6750
 0.8340	43.6630
 0.8350	43.6500
 0.8360	43.6450
 0.8370	43.6390
 0.8380	43.6340
 0.8390	43.6360
 0.8400	43.6190
 0.8410	43.6100
 0.8420	43.6200
 0.8430	43.6280
 0.8440	43.6300
 0.8450	43.6270
 0.8460	43.6240
 0.8470	43.6300
 0.8480	43.6360
 0.8490	43.6410
 0.8500	43.6460
 0.8510	43.6480
 0.8520	43.6500
 0.8530	43.6500
 0.8540	43.6510
 0.8550	43.6570
 0.8560	43.6630
 0.8570	43.6650
 0.8580	43.6680
 0.8590	43.6750
 0.8600	43.6830
 0.8610	43.6890
 0.8620	43.6900
 0.8630	43.6900
 0.8640	43.6950
 0.8650	43.7070
 0.8660	43.7180
 0.8670	43.7240
 0.8680	43.7270
 0.8690	43.7330
 0.8700	43.7420
 0.8710	43.7600
 0.8720	43.7760
 0.8730	43.7770
 0.8740	43.7820
 0.8750	43.7970
 0.8760	43.8140
 0.8770	43.8170
 0.8780	43.8160
 0.8790	43.8170
 0.8800	43.8260
 0.8810	43.8480
 0.8820	43.8580
 0.8830	43.8640
 0.8840	43.8750
 0.8850	43.8820
 0.8860	43.8840
 0.8870	43.8900
 0.8880	43.9030
 0.8890	43.9010
 0.8900	43.9040
 0.8910	43.9110
 0.8920	43.9180
 0.8930	43.9320
 0.8940	43.9330
 0.8950	43.9280
 0.8960	43.9390
 0.8970	43.9520
 0.8980	43.9560
 0.8990	43.9520
 0.9000	43.9490
 0.9010	43.9580
 0.9020	43.9640
 0.9030	43.9650
 0.9040	43.9710
 0.9050	43.9740
 0.9060	43.9760
 0.9070	43.9820
 0.9080	43.9950
 0.9090	43.9960
 0.9100	43.9900
 0.9110	43.9890
 0.9120	43.9920
 0.9130	43.9970
 0.9140	44.0010
 0.9150	44.0000
 0.9160	43.9850
 0.9170	43.9680
 0.9180	43.9590
 0.9190	43.9630
 0.9200	43.9530
 0.9210	43.9500
 0.9220	43.9470
 0.9230	43.9270
 0.9240	43.9140
 0.9250	43.8930
 0.9260	43.8680
 0.9270	43.8520
 0.9280	43.8140
 0.9290	43.7850
 0.9300	43.7640
 0.9310	43.7240
 0.9320	43.6860
 0.9330	43.6470
 0.9340	43.6050
 0.9350	43.5580
 0.9360	43.5180
 0.9370	43.4800
 0.9380	43.4360
 0.9390	43.3890
 0.9400	43.3320
 0.9410	43.2780
 0.9420	43.2240
 0.9430	43.1540
 0.9440	43.0850
 0.9450	43.0150
 0.9460	42.9390
 0.9470	42.8600
 0.9480	42.7720
 0.9490	42.6820
 0.9500	42.5890
 0.9510	42.4780
 0.9520	42.3520
 0.9530	42.2290
 0.9540	42.1140
 0.9550	41.9780
 0.9560	41.8690
 0.9570	41.7640
 0.9580	41.6420
 0.9590	41.5640
 0.9600	41.4730
 0.9610	41.3750
 0.9620	41.2910
 0.9630	41.2170
 0.9640	41.1520
 0.9650	41.1000
 0.9660	41.0640
 0.9670	41.0270
 0.9680	40.9990
 0.9690	40.9670
 0.9700	40.9270
 0.9710	40.9210
 0.9720	40.8940
 0.9730	40.8600
 0.9740	40.8570
 0.9750	40.8460
 0.9760	40.8390
 0.9770	40.8380
 0.9780	40.8360
 0.9790	40.8300
 0.9800	40.8350
 0.9810	40.8520
 0.9820	40.8710
 0.9830	40.8920
 0.9840	40.9030
 0.9850	40.9150
 0.9860	40.9480
 0.9870	40.9830
 0.9880	41.0230
 0.9890	41.0570
 0.9900	41.0760
 0.9910	41.1090
 0.9920	41.1350
 0.9930	41.1600
 0.9940	41.1860
 0.9950	41.2120
 0.9960	41.2370
 0.9970	41.2630
 0.9980	41.2890
 0.9990	41.3140
 1.0000	41.3400
 1.0010	41.3660
 1.0020	41.3920
 1.0030	41.4170
 1.0040	41.4430
 1.0050	41.4690
 1.0060	41.4940
 1.0070	41.5200
 1.0080	41.5460
 1.0090	41.5710
 1.0100	41.5710
 1.0110	41.6150
 1.0120	41.6590
 1.0130	41.7000
 1.0140	41.7450
 1.0150	41.7920
 1.0160	41.8380
 1.0170	41.8860
 1.0180	41.9290
 1.0190	41.9650
 1.0200	42.0030
 1.0210	42.0470
 1.0220	42.0890
 1.0230	42.1290
 1.0240	42.1720
 1.0250	42.2120
 1.0260	42.2450
 1.0270	42.2810
 1.0280	42.3190
 1.0290	42.3540
 1.0300	42.3860
 1.0310	42.4200
 1.0320	42.4540
 1.0330	42.4840
 1.0340	42.5180
 1.0350	42.5530
 1.0360	42.5850
 1.0370	42.6160
 1.0380	42.6440
 1.0390	42.6660
 1.0400	42.6910
 1.0410	42.7160
 1.0420	42.7420
 1.0430	42.7710
 1.0440	42.7950
 1.0450	42.8180
 1.0460	42.8400
 1.0470	42.8580
 1.0480	42.8780
 1.0490	42.9000
 1.0500	42.9200
 1.0510	42.9390
 1.0520	42.9550
 1.0530	42.9740
 1.0540	42.9930
 1.0550	43.0130
 1.0560	43.0340
 1.0570	43.0530
 1.0580	43.0730
 1.0590	43.0870
 1.0600	43.0990
 1.0610	43.1110
 1.0620	43.1140
 1.0630	43.1250
 1.0640	43.1430
 1.0650	43.1550
 1.0660	43.1660
 1.0670	43.1770
 1.0680	43.1880
 1.0690	43.1940
 1.0700	43.2020
 1.0710	43.2130
 1.0720	43.2190
 1.0730	43.2190
 1.0740	43.2230
 1.0750	43.2280
 1.0760	43.2310
 1.0770	43.2340
 1.0780	43.2350
 1.0790	43.2320
 1.0800	43.2320
 1.0810	43.2340
 1.0820	43.2330
 1.0830	43.2290
 1.0840	43.2250
 1.0850	43.2170
 1.0860	43.2090
 1.0870	43.1990
 1.0880	43.1890
 1.0890	43.1780
 1.0900	43.1670
 1.0910	43.1530
 1.0920	43.1400
 1.0930	43.1240
 1.0940	43.1030
 1.0950	43.0860
 1.0960	43.0700
 1.0970	43.0510
 1.0980	43.0320
 1.0990	43.0120
 1.1000	42.9880
 1.1010	42.9660
 1.1020	42.9450
 1.1030	42.9240
 1.1040	42.9010
 1.1050	42.8760
 1.1060	42.8500
 1.1070	42.8210
 1.1080	42.7910
 1.1090	42.7600
 1.1100	42.7260
 1.1110	42.6900
 1.1120	42.6520
 1.1130	42.6140
 1.1140	42.5720
 1.1150	42.5290
 1.1160	42.4810
 1.1170	42.4290
 1.1180	42.3750
 1.1190	42.3180
 1.1200	42.2570
 1.1210	42.1910
 1.1220	42.1190
 1.1230	42.0390
 1.1240	41.9530
 1.1250	41.8600
 1.1260	41.7630
 1.1270	41.6530
 1.1280	41.5370
 1.1290	41.4090
 1.1300	41.2730
 1.1310	41.1250
 1.1320	40.9680
 1.1330	40.8010
 1.1340	40.6240
 1.1350	40.4370
 1.1360	40.2400
 1.1370	40.0360
 1.1380	39.8220
 1.1390	39.6010
 1.1400	39.3740
 1.1410	39.1430
 1.1420	38.9050
 1.1430	38.6650
 1.1440	38.4270
 1.1450	38.1840
 1.1460	37.9510
 1.1470	37.7200
 1.1480	37.4980
 1.1490	37.2760
 1.1500	37.0730
 1.1510	36.8790
 1.1520	36.6980
 1.1530	36.5300
 1.1540	36.3770
 1.1550	36.2370
 1.1560	36.1100
 1.1570	35.9960
 1.1580	35.8960
 1.1590	35.8080
 1.1600	35.7300
 1.1610	35.6640
 1.1620	35.6070
 1.1630	35.5580
 1.1640	35.5170
 1.1650	35.4800
 1.1660	35.4510
 1.1670	35.4240
 1.1680	35.4020
 1.1690	35.3830
 1.1700	35.3690
 1.1710	35.3550
 1.1720	35.3440
 1.1730	35.3320
 1.1740	35.3190
 1.1750	35.3070
 1.1760	35.2960
 1.1770	35.2830
 1.1780	35.2680
 1.1790	35.2540
 1.1800	35.2380
 1.1810	35.2210
 1.1820	35.2060
 1.1830	35.1900
 1.1840	35.1720
 1.1850	35.1550
 1.1860	35.1390
 1.1870	35.1240
 1.1880	35.1090
 1.1890	35.0960
 1.1900	35.0840
 1.1910	35.0720
 1.1920	35.0630
 1.1930	35.0560
 1.1940	35.0520
 1.1950	35.0510
 1.1960	35.0520
 1.1970	35.0550
 1.1980	35.0600
 1.1990	35.0670
 1.2000	35.0740
 1.2010	35.0850
 1.2020	35.0980
 1.2030	35.1130
 1.2040	35.1330
 1.2050	35.1540
 1.2060	35.1770
 1.2070	35.2050
 1.2080	35.2310
 1.2090	35.2580
 1.2100	35.2880
 1.2110	35.3190
 1.2120	35.3500
 1.2130	35.3830
 1.2140	35.4190
 1.2150	35.4560
 1.2160	35.4950
 1.2170	35.5350
 1.2180	35.5780
 1.2190	35.6210
 1.2200	35.6640
 1.2210	35.7070
 1.2220	35.7490
 1.2230	35.7920
 1.2240	35.8360
 1.2250	35.8770
 1.2260	35.9160
 1.2270	35.9550
 1.2280	35.9920
 1.2290	36.0300
 1.2300	36.0680
 1.2310	36.1040
 1.2320	36.1410
 1.2330	36.1760
 1.2340	36.2100
 1.2350	36.2450
 1.2360	36.2790
 1.2370	36.3100
 1.2380	36.3440
 1.2390	36.3770
 1.2400	36.4080
 1.2410	36.4390
 1.2420	36.4670
 1.2430	36.4940
 1.2440	36.5190
 1.2450	36.5440
 1.2460	36.5680
 1.2470	36.5890
 1.2480	36.6090
 1.2490	36.6300
 1.2500	36.6510
 1.2510	36.6710
 1.2520	36.6900
 1.2530	36.7060
 1.2540	36.7220
 1.2550	36.7350
 1.2560	36.7470
 1.2570	36.7600
 1.2580	36.7700
 1.2590	36.7790
 1.2600	36.7920
 1.2610	36.7990
 1.2620	36.8030
 1.2630	36.8050
 1.2640	36.8050
 1.2650	36.8020
 1.2660	36.7990
 1.2670	36.7960
 1.2680	36.7920
 1.2690	36.7850
 1.2700	36.7760
 1.2710	36.7630
 1.2720	36.7490
 1.2730	36.7330
 1.2740	36.7130
 1.2750	36.6930
 1.2760	36.6710
 1.2770	36.6480
 1.2780	36.6210
 1.2790	36.5920
 1.2800	36.5610
 1.2810	36.5270
 1.2820	36.4940
 1.2830	36.4600
 1.2840	36.4250
 1.2850	36.3880
 1.2860	36.3470
 1.2870	36.3060
 1.2880	36.2640
 1.2890	36.2190
 1.2900	36.1710
 1.2910	36.1190
 1.2920	36.0620
 1.2930	36.0010
 1.2940	35.9420
 1.2950	35.8810
 1.2960	35.8170
 1.2970	35.7520
 1.2980	35.6800
 1.2990	35.6040
 1.3000	35.5270
 1.3010	35.4460
 1.3020	35.3600
 1.3030	35.2710
 1.3040	35.1740
 1.3050	35.0730
 1.3060	34.9680
 1.3070	34.8590
 1.3080	34.7490
 1.3090	34.6350
 1.3100	34.5160
 1.3110	34.3920
 1.3120	34.2610
 1.3130	34.1240
 1.3140	33.9840
 1.3150	33.8380
 1.3160	33.6890
 1.3170	33.5370
 1.3180	33.3800
 1.3190	33.2170
 1.3200	33.0510
 1.3210	32.8780
 1.3220	32.7000
 1.3230	32.5180
 1.3240	32.3310
 1.3250	32.1430
 1.3260	31.9530
 1.3270	31.7610
 1.3280	31.5670
 1.3290	31.3690
 1.3300	31.1700
 1.3310	30.9690
 1.3320	30.7650
 1.3330	30.5620
 1.3340	30.3580
 1.3350	30.1540
 1.3360	29.9510
 1.3370	29.7470
 1.3380	29.5430
 1.3390	29.3410
 1.3400	29.1410
 1.3410	28.9450
 1.3420	28.7520
 1.3430	28.5600
 1.3440	28.3700
 1.3450	28.1830
 1.3460	27.9970
 1.3470	27.8150
 1.3480	27.6360
 1.3490	27.4610
 1.3500	27.2900
 1.3510	27.1200
 1.3520	26.9520
 1.3530	26.7860
 1.3540	26.6190
 1.3550	26.4540
 1.3560	26.2900
 1.3570	26.1260
 1.3580	25.9620
 1.3590	25.7940
 1.3600	25.6220
 1.3610	25.4490
 1.3620	25.2690
 1.3630	25.0860
 1.3640	24.8980
 1.3650	24.6990
 1.3660	24.4960
 1.3670	24.2820
 1.3680	24.0560
 1.3690	23.8210
 1.3700	23.5720
 1.3710	23.3110
 1.3720	23.0380
 1.3730	22.7470
 1.3740	22.4430
 1.3750	22.1210
 1.3760	21.7810
 1.3770	21.4240
 1.3780	21.0450
 1.3790	20.6490
 1.3800	20.2370
 1.3810	19.8040
 1.3820	19.3630
 1.3830	18.9080
 1.3840	18.4440
 1.3850	17.9680
 1.3860	17.4900
 1.3870	17.0000
 1.3880	16.5160
 1.3890	16.0300
 1.3900	15.5450
 1.3910	15.0720
 1.3920	14.6030
 1.3930	14.1410
 1.3940	13.6920
 1.3950	13.2510
 1.3960	12.8260
 1.3970	12.4180
 1.3980	12.0260
 1.3990	11.6570
 1.4000	11.3060
 1.4010	10.9730
 1.4020	10.6600
 1.4030	10.3640
 1.4040	10.0860
 1.4050	 9.8270
 1.4060	 9.5860
 1.4070	 9.3650
 1.4080	 9.1600
 1.4090	 8.9700
 1.4100	 8.7960
 1.4110	 8.6360
 1.4120	 8.4880
 1.4130	 8.3530
 1.4140	 8.2290
 1.4150	 8.1170
 1.4160	 8.0160
 1.4170	 7.9230
 1.4180	 7.8390
 1.4190	 7.7620
 1.4200	 7.6920
 1.4210	 7.6290
 1.4220	 7.5720
 1.4230	 7.5210
 1.4240	 7.4750
 1.4250	 7.4330
 1.4260	 7.3960
 1.4270	 7.3630
 1.4280	 7.3340
 1.4290	 7.3070
 1.4300	 7.2860
 1.4310	 7.2660
 1.4320	 7.2500
 1.4330	 7.2360
 1.4340	 7.2240
 1.4350	 7.2140
 1.4360	 7.2060
 1.4370	 7.2010
 1.4380	 7.1980
 1.4390	 7.1960
 1.4400	 7.1960
 1.4410	 7.1980
 1.4420	 7.2000
 1.4430	 7.2030
 1.4440	 7.2080
 1.4450	 7.2130
 1.4460	 7.2190
 1.4470	 7.2250
 1.4480	 7.2330
 1.4490	 7.2400
 1.4500	 7.2490
 1.4510	 7.2590
 1.4520	 7.2690
 1.4530	 7.2800
 1.4540	 7.2910
 1.4550	 7.3040
 1.4560	 7.3170
 1.4570	 7.3320
 1.4580	 7.3480
 1.4590	 7.3650
 1.4600	 7.3840
 1.4610	 7.4040
 1.4620	 7.4270
 1.4630	 7.4520
 1.4640	 7.4790
 1.4650	 7.5080
 1.4660	 7.5390
 1.4670	 7.5730
 1.4680	 7.6100
 1.4690	 7.6490
 1.4700	 7.6900
 1.4710	 7.7330
 1.4720	 7.7770
 1.4730	 7.8240
 1.4740	 7.8730
 1.4750	 7.9240
 1.4760	 7.9770
 1.4770	 8.0300
 1.4780	 8.0860
 1.4790	 8.1440
 1.4800	 8.2020
 1.4810	 8.2620
 1.4820	 8.3230
 1.4830	 8.3840
 1.4840	 8.4470
 1.4850	 8.5100
 1.4860	 8.5750
 1.4870	 8.6410
 1.4880	 8.7070
 1.4890	 8.7740
 1.4900	 8.8420
 1.4910	 8.9120
 1.4920	 8.9810
 1.4930	 9.0510
 1.4940	 9.1220
 1.4950	 9.1930
 1.4960	 9.2650
 1.4970	 9.3380
 1.4980	 9.4110
 1.4990	 9.4840
 1.5000	 9.5570
 1.5010	 9.6310
 1.5020	 9.7060
 1.5030	 9.7800
 1.5040	 9.8560
 1.5050	 9.9320
 1.5060	10.0080
 1.5070	10.0850
 1.5080	10.1620
 1.5090	10.2380
 1.5100	10.3150
 1.5110	10.3910
 1.5120	10.4680
 1.5130	10.5450
 1.5140	10.6220
 1.5150	10.6990
 1.5160	10.7750
 1.5170	10.8520
 1.5180	10.9290
 1.5190	11.0060
 1.5200	11.0830
 1.5210	11.1590
 1.5220	11.2360
 1.5230	11.3130
 1.5240	11.3890
 1.5250	11.4650
 1.5260	11.5410
 1.5270	11.6160
 1.5280	11.6920
 1.5290	11.7660
 1.5300	11.8410
 1.5310	11.9170
 1.5320	11.9910
 1.5330	12.0670
 1.5340	12.1420
 1.5350	12.2150
 1.5360	12.2900
 1.5370	12.3620
 1.5380	12.4340
 1.5390	12.5070
 1.5400	12.5790
 1.5410	12.6520
 1.5420	12.7250
 1.5430	12.7970
 1.5440	12.8680
 1.5450	12.9380
 1.5460	13.0080
 1.5470	13.0770
 1.5480	13.1450
 1.5490	13.2150
 1.5500	13.2830
 1.5510	13.3510
 1.5520	13.4210
 1.5530	13.4890
 1.5540	13.5570
 1.5550	13.6250
 1.5560	13.6910
 1.5570	13.7580
 1.5580	13.8240
 1.5590	13.8880
 1.5600	13.9520
 1.5610	14.0160
 1.5620	14.0790
 1.5630	14.1410
 1.5640	14.2030
 1.5650	14.2640
 1.5660	14.3250
 1.5670	14.3870
 1.5680	14.4480
 1.5690	14.5060
 1.5700	14.5650
 1.5710	14.6230
 1.5720	14.6810
 1.5730	14.7400
 1.5740	14.7990
 1.5750	14.8580
 1.5760	14.9160
 1.5770	14.9730
 1.5780	15.0300
 1.5790	15.0870
 1.5800	15.1420
 1.5810	15.1980
 1.5820	15.2530
 1.5830	15.3080
 1.5840	15.3640
 1.5850	15.4190
 1.5860	15.4730
 1.5870	15.5270
 1.5880	15.5810
 1.5890	15.6340
 1.5900	15.6870
 1.5910	15.7400
 1.5920	15.7930
 1.5930	15.8450
 1.5940	15.8970
 1.5950	15.9500
 1.5960	16.0020
 1.5970	16.0530
 1.5980	16.1050
 1.5990	16.1550
 1.6000	16.2050
 1.6010	16.2550
 1.6020	16.3020
 1.6030	16.3500
 1.6040	16.3970
 1.6050	16.4430
 1.6060	16.4880
 1.6070	16.5330
 1.6080	16.5770
 1.6090	16.6210
 1.6100	16.6660
 1.6110	16.7100
 1.6120	16.7520
 1.6130	16.7950
 1.6140	16.8360
 1.6150	16.8770
 1.6160	16.9170
 1.6170	16.9570
 1.6180	16.9960
 1.6190	17.0340
 1.6200	17.0710
 1.6210	17.1070
 1.6220	17.1420
 1.6230	17.1780
 1.6240	17.2140
 1.6250	17.2490
 1.6260	17.2830
 1.6270	17.3160
 1.6280	17.3470
 1.6290	17.3780
 1.6300	17.4080
 1.6310	17.4370
 1.6320	17.4650
 1.6330	17.4920
 1.6340	17.5200
 1.6350	17.5440
 1.6360	17.5680
 1.6370	17.5900
 1.6380	17.6080
 1.6390	17.6250
 1.6400	17.6410
 1.6410	17.6540
 1.6420	17.6640
 1.6430	17.6710
 1.6440	17.6770
 1.6450	17.6790
 1.6460	17.6800
 1.6470	17.6790
 1.6480	17.6750
 1.6490	17.6710
 1.6500	17.6640
 1.6510	17.6550
 1.6520	17.6450
 1.6530	17.6310
 1.6540	17.6170
 1.6550	17.6010
 1.6560	17.5840
 1.6570	17.5690
 1.6580	17.5550
 1.6590	17.5410
 1.6600	17.5300
 1.6610	17.5200
 1.6620	17.5120
 1.6630	17.5070
 1.6640	17.5040
 1.6650	17.5050
 1.6660	17.5080
 1.6670	17.5150
 1.6680	17.5240
 1.6690	17.5350
 1.6700	17.5460
 1.6710	17.5590
 1.6720	17.5710
 1.6730	17.5820
 1.6740	17.5940
 1.6750	17.6050
 1.6760	17.6160
 1.6770	17.6240
 1.6780	17.6310
 1.6790	17.6350
 1.6800	17.6350
 1.6810	17.6340
 1.6820	17.6300
 1.6830	17.6230
 1.6840	17.6140
 1.6850	17.6030
 1.6860	17.5890
 1.6870	17.5720
 1.6880	17.5540
 1.6890	17.5330
 1.6900	17.5130
 1.6910	17.4910
 1.6920	17.4690
 1.6930	17.4470
 1.6940	17.4230
 1.6950	17.3970
 1.6960	17.3700
 1.6970	17.3430
 1.6980	17.3140
 1.6990	17.2860
 1.7000	17.2540
 1.7010	17.2190
 1.7020	17.1850
 1.7030	17.1490
 1.7040	17.1130
 1.7050	17.0780
 1.7060	17.0400
 1.7070	17.0010
 1.7080	16.9610
 1.7090	16.9190
 1.7100	16.8780
 1.7110	16.8360
 1.7120	16.7940
 1.7130	16.7520
 1.7140	16.7080
 1.7150	16.6640
 1.7160	16.6210
 1.7170	16.5770
 1.7180	16.5330
 1.7190	16.4880
 1.7200	16.4420
 1.7210	16.3960
 1.7220	16.3490
 1.7230	16.3050
 1.7240	16.2600
 1.7250	16.2140
 1.7260	16.1700
 1.7270	16.1270
 1.7280	16.0850
 1.7290	16.0430
 1.7300	16.0010
 1.7310	15.9620
 1.7320	15.9250
 1.7330	15.8880
 1.7340	15.8550
 1.7350	15.8190
 1.7360	15.7830
 1.7370	15.7460
 1.7380	15.7090
 1.7390	15.6700
 1.7400	15.6300
 1.7410	15.5890
 1.7420	15.5480
 1.7430	15.5050
 1.7440	15.4620
 1.7450	15.4180
 1.7460	15.3730
 1.7470	15.3270
 1.7480	15.2810
 1.7490	15.2350
 1.7500	15.1880
 1.7510	15.1410
 1.7520	15.0940
 1.7530	15.0470
 1.7540	14.9980
 1.7550	14.9510
 1.7560	14.9040
 1.7570	14.8570
 1.7580	14.8120
 1.7590	14.7690
 1.7600	14.7250
 1.7610	14.6820
 1.7620	14.6410
 1.7630	14.6000
 1.7640	14.5600
 1.7650	14.5220
 1.7660	14.4850
 1.7670	14.4470
 1.7680	14.4110
 1.7690	14.3770
 1.7700	14.3440
 1.7710	14.3130
 1.7720	14.2820
 1.7730	14.2500
 1.7740	14.2210
 1.7750	14.1910
 1.7760	14.1630
 1.7770	14.1370
 1.7780	14.1110
 1.7790	14.0860
 1.7800	14.0610
 1.7810	14.0370
 1.7820	14.0150
 1.7830	13.9940
 1.7840	13.9750
 1.7850	13.9580
 1.7860	13.9430
 1.7870	13.9280
 1.7880	13.9170
 1.7890	13.9060
 1.7900	13.8970
 1.7910	13.8890
 1.7920	13.8810
 1.7930	13.8750
 1.7940	13.8690
 1.7950	13.8650
 1.7960	13.8600
 1.7970	13.8580
 1.7980	13.8570
 1.7990	13.8560
 1.8000	13.8580
 1.8010	13.8580
 1.8020	13.8590
 1.8030	13.8610
 1.8040	13.8630
 1.8050	13.8640
 1.8060	13.8660
 1.8070	13.8670
 1.8080	13.8670
 1.8090	13.8690
 1.8100	13.8710
 1.8110	13.8720
 1.8120	13.8740
 1.8130	13.8720
 1.8140	13.8690
 1.8150	13.8680
 1.8160	13.8670
 1.8170	13.8640
 1.8180	13.8620
 1.8190	13.8600
 1.8200	13.8560
 1.8210	13.8530
 1.8220	13.8480
 1.8230	13.8410
 1.8240	13.8340
 1.8250	13.8280
 1.8260	13.8200
 1.8270	13.7780
 1.8280	13.7370
 1.8290	13.6960
 1.8300	13.6550
 1.8310	13.6130
 1.8320	13.5720
 1.8330	13.5310
 1.8340	13.4900
 1.8350	13.4900
 1.8360	13.4620
 1.8370	13.4300
 1.8380	13.3940
 1.8390	13.3540
 1.8400	13.3120
 1.8410	13.2640
 1.8420	13.2130
 1.8430	13.1560
 1.8440	13.0920
 1.8450	13.0250
 1.8460	12.9510
 1.8470	12.8760
 1.8480	12.7990
 1.8490	12.7130
 1.8500	12.6200
 1.8510	12.5210
 1.8520	12.4130
 1.8530	12.2940
 1.8540	12.1710
 1.8550	12.0410
 1.8560	11.9030
 1.8570	11.7580
 1.8580	11.6050
 1.8590	11.4450
 1.8600	11.2770
 1.8610	11.1020
 1.8620	10.9170
 1.8630	10.7260
 1.8640	10.5260
 1.8650	10.3170
 1.8660	10.1030
 1.8670	 9.8830
 1.8680	 9.6550
 1.8690	 9.4200
 1.8700	 9.1810
 1.8710	 8.9360
 1.8720	 8.6910
 1.8730	 8.4450
 1.8740	 8.2000
 1.8750	 7.9560
 1.8760	 7.7120
 1.8770	 7.4720
 1.8780	 7.2420
 1.8790	 7.0180
 1.8800	 6.8030
 1.8810	 6.5970
 1.8820	 6.3980
 1.8830	 6.2040
 1.8840	 6.0210
 1.8850	 5.8460
 1.8860	 5.6790
 1.8870	 5.5210
 1.8880	 5.3760
 1.8890	 5.2430
 1.8900	 5.1190
 1.8910	 5.0070
 1.8920	 4.9060
 1.8930	 4.8140
 1.8940	 4.7280
 1.8950	 4.6550
 1.8960	 4.5890
 1.8970	 4.5290
 1.8980	 4.4770
 1.8990	 4.4280
 1.9000	 4.3850
 1.9010	 4.3490
 1.9020	 4.3160
 1.9030	 4.2900
 1.9040	 4.2670
 1.9050	 4.2460
 1.9060	 4.2280
 1.9070	 4.2150
 1.9080	 4.2010
 1.9090	 4.1870
 1.9100	 4.1750
 1.9110	 4.1650
 1.9120	 4.1550
 1.9130	 4.1500
 1.9140	 4.1500
 1.9150	 4.1510
 1.9160	 4.1480
 1.9170	 4.1450
 1.9180	 4.1410
 1.9190	 4.1370
 1.9200	 4.1350
 1.9210	 4.1340
 1.9220	 4.1330
 1.9230	 4.1340
 1.9240	 4.1340
 1.9250	 4.1360
 1.9260	 4.1370
 1.9270	 4.1400
 1.9280	 4.1390
 1.9290	 4.1380
 1.9300	 4.1390
 1.9310	 4.1390
 1.9320	 4.1390
 1.9330	 4.1410
 1.9340	 4.1420
 1.9350	 4.1440
 1.9360	 4.1470
 1.9370	 4.1500
 1.9380	 4.1520
 1.9390	 4.1560
 1.9400	 4.1590
 1.9410	 4.1620
 1.9420	 4.1650
 1.9430	 4.1670
 1.9440	 4.1710
 1.9450	 4.1760
 1.9460	 4.1810
 1.9470	 4.1860
 1.9480	 4.1920
 1.9490	 4.1970
 1.9500	 4.2020
 1.9510	 4.2090
 1.9520	 4.2170
 1.9530	 4.2220
 1.9540	 4.2270
 1.9550	 4.2340
 1.9560	 4.2390
 1.9570	 4.2460
 1.9580	 4.2570
 1.9590	 4.2650
 1.9600	 4.2700
 1.9610	 4.2760
 1.9620	 4.2810
 1.9630	 4.2860
 1.9640	 4.2910
 1.9650	 4.2990
 1.9660	 4.3070
 1.9670	 4.3170
 1.9680	 4.3270
 1.9690	 4.3410
 1.9700	 4.3520
 1.9710	 4.3620
 1.9720	 4.3730
 1.9730	 4.3830
 1.9740	 4.3930
 1.9750	 4.4070
 1.9760	 4.4200
 1.9770	 4.4320
 1.9780	 4.4450
 1.9790	 4.4580
 1.9800	 4.4690
 1.9810	 4.4810
 1.9820	 4.4940
 1.9830	 4.5080
 1.9840	 4.5240
 1.9850	 4.5380
 1.9860	 4.5520
 1.9870	 4.5650
 1.9880	 4.5770
 1.9890	 4.5900
 1.9900	 4.6040
 1.9910	 4.6190
 1.9920	 4.6340
 1.9930	 4.6490
 1.9940	 4.6660
 1.9950	 4.6850
 1.9960	 4.7020
 1.9970	 4.7200
 1.9980	 4.7380
 1.9990	 4.7550
 2.0000	 4.7740
 2.0010	 4.7920
 2.0020	 4.8100
 2.0030	 4.8270
 2.0040	 4.8400
 2.0050	 4.8570
 2.0060	 4.8740
 2.0070	 4.8920
 2.0080	 4.9120
 2.0090	 4.9310
 2.0100	 4.9480
 2.0110	 4.9670
 2.0120	 4.9860
 2.0130	 5.0050
 2.0140	 5.0270
 2.0150	 5.0450
 2.0160	 5.0630
 2.0170	 5.0810
 2.0180	 5.1000
 2.0190	 5.1170
 2.0200	 5.1370
 2.0210	 5.1600
 2.0220	 5.1800
 2.0230	 5.2000
 2.0240	 5.2190
 2.0250	 5.2340
 2.0260	 5.2510
 2.0270	 5.2700
 2.0280	 5.2880
 2.0290	 5.3030
 2.0300	 5.3200
 2.0310	 5.3370
 2.0320	 5.3520
 2.0330	 5.3680
 2.0340	 5.3860
 2.0350	 5.4030
 2.0360	 5.4200
 2.0370	 5.4370
 2.0380	 5.4540
 2.0390	 5.4710
 2.0400	 5.4860
 2.0410	 5.5010
 2.0420	 5.5160
 2.0430	 5.5320
 2.0440	 5.5470
 2.0450	 5.5620
 2.0460	 5.5770
 2.0470	 5.5910
 2.0480	 5.6060
 2.0490	 5.6200
 2.0500	 5.6350
 2.0510	 5.6500
 2.0520	 5.6640
 2.0530	 5.6780
 2.0540	 5.6930
 2.0550	 5.7070
 2.0560	 5.7210
 2.0570	 5.7350
 2.0580	 5.7500
 2.0590	 5.7650
 2.0600	 5.7810
 2.0610	 5.7970
 2.0620	 5.8150
 2.0630	 5.8310
 2.0640	 5.8470
 2.0650	 5.8630
 2.0660	 5.8770
 2.0670	 5.8920
 2.0680	 5.9090
 2.0690	 5.9250
 2.0700	 5.9420
 2.0710	 5.9580
 2.0720	 5.9730
 2.0730	 5.9880
 2.0740	 6.0030
 2.0750	 6.0170
 2.0760	 6.0320
 2.0770	 6.0480
 2.0780	 6.0630
 2.0790	 6.0790
 2.0800	 6.0940
 2.0810	 6.1080
 2.0820	 6.1220
 2.0830	 6.1320
 2.0840	 6.1460
 2.0850	 6.1630
 2.0860	 6.1780
 2.0870	 6.1950
 2.0880	 6.2110
 2.0890	 6.2250
 2.0900	 6.2360
 2.0910	 6.2500
 2.0920	 6.2640
 2.0930	 6.2780
 2.0940	 6.2930
 2.0950	 6.3070
 2.0960	 6.3220
 2.0970	 6.3370
 2.0980	 6.3510
 2.0990	 6.3640
 2.1000	 6.3750
 2.1010	 6.3880
 2.1020	 6.4020
 2.1030	 6.4160
 2.1040	 6.4310
 2.1050	 6.4480
 2.1060	 6.4610
 2.1070	 6.4730
 2.1080	 6.4850
 2.1090	 6.4950
 2.1100	 6.5070
 2.1110	 6.5180
 2.1120	 6.5320
 2.1130	 6.5470
 2.1140	 6.5610
 2.1150	 6.5790
 2.1160	 6.5930
 2.1170	 6.6060
 2.1180	 6.6170
 2.1190	 6.6250
 2.1200	 6.6340
 2.1210	 6.6420
 2.1220	 6.6510
 2.1230	 6.6610
 2.1240	 6.6740
 2.1250	 6.6850
 2.1260	 6.6970
 2.1270	 6.7090
 2.1280	 6.7180
 2.1290	 6.7290
 2.1300	 6.7400
 2.1310	 6.7510
 2.1320	 6.7640
 2.1330	 6.7750
 2.1340	 6.7880
 2.1350	 6.7980
 2.1360	 6.8060
 2.1370	 6.8150
 2.1380	 6.8230
 2.1390	 6.8330
 2.1400	 6.8430
 2.1410	 6.8540
 2.1420	 6.8650
 2.1430	 6.8760
 2.1440	 6.8870
 2.1450	 6.8990
 2.1460	 6.9110
 2.1470	 6.9230
 2.1480	 6.9360
 2.1490	 6.9500
 2.1500	 6.9610
 2.1510	 6.9700
 2.1520	 6.9820
 2.1530	 6.9910
 2.1540	 7.0030
 2.1550	 7.0170
 2.1560	 7.0310
 2.1570	 7.0450
 2.1580	 7.0580
 2.1590	 7.0700
 2.1600	 7.0820
 2.1610	 7.0950
 2.1620	 7.1060
 2.1630	 7.1180
 2.1640	 7.1330
 2.1650	 7.1440
 2.1660	 7.1540
 2.1670	 7.1650
 2.1680	 7.1730
 2.1690	 7.1850
 2.1700	 7.1990
 2.1710	 7.2110
 2.1720	 7.2260
 2.1730	 7.2390
 2.1740	 7.2510
 2.1750	 7.2600
 2.1760	 7.2650
 2.1770	 7.2730
 2.1780	 7.2780
 2.1790	 7.2860
 2.1800	 7.2970
 2.1810	 7.3090
 2.1820	 7.3210
 2.1830	 7.3330
 2.1840	 7.3450
 2.1850	 7.3570
 2.1860	 7.3690
 2.1870	 7.3790
 2.1880	 7.3910
 2.1890	 7.4050
 2.1900	 7.4190
 2.1910	 7.4340
 2.1920	 7.4490
 2.1930	 7.4650
 2.1940	 7.4760
 2.1950	 7.4840
 2.1960	 7.4940
 2.1970	 7.5010
 2.1980	 7.5100
 2.1990	 7.5220
 2.2000	 7.5330
 2.2010	 7.5440
 2.2020	 7.5550
 2.2030	 7.5670
 2.2040	 7.5790
 2.2050	 7.5910
 2.2060	 7.6020
 2.2070	 7.6110
 2.2080	 7.6180
 2.2090	 7.6270
 2.2100	 7.6320
 2.2110	 7.6430
 2.2120	 7.6580
 2.2130	 7.6680
 2.2140	 7.6800
 2.2150	 7.6860
 2.2160	 7.6860
 2.2170	 7.6890
 2.2180	 7.6890
 2.2190	 7.6910
 2.2200	 7.6960
 2.2210	 7.6990
 2.2220	 7.7010
 2.2230	 7.7010
 2.2240	 7.6970
 2.2250	 7.6940
 2.2260	 7.6890
 2.2270	 7.6840
 2.2280	 7.6790
 2.2290	 7.6730
 2.2300	 7.6640
 2.2310	 7.6580
 2.2320	 7.6520
 2.2330	 7.6440
 2.2340	 7.6350
 2.2350	 7.6260
 2.2360	 7.6120
 2.2370	 7.5930
 2.2380	 7.5780
 2.2390	 7.5600
 2.2400	 7.5430
 2.2410	 7.5280
 2.2420	 7.5090
 2.2430	 7.4870
 2.2440	 7.4680
 2.2450	 7.4490
 2.2460	 7.4300
 2.2470	 7.4120
 2.2480	 7.3900
 2.2490	 7.3660
 2.2500	 7.3430
 2.2510	 7.3200
 2.2520	 7.2960
 2.2530	 7.2730
 2.2540	 7.2490
 2.2550	 7.2230
 2.2560	 7.1980
 2.2570	 7.1750
 2.2580	 7.1500
 2.2590	 7.1210
 2.2600	 7.0950
 2.2610	 7.0690
 2.2620	 7.0450
 2.2630	 7.0240
 2.2640	 7.0050
 2.2650	 6.9840
 2.2660	 6.9640
 2.2670	 6.9420
 2.2680	 6.9180
 2.2690	 6.8970
 2.2700	 6.8750
 2.2710	 6.8570
 2.2720	 6.8420
 2.2730	 6.8230
 2.2740	 6.8030
 2.2750	 6.7830
 2.2760	 6.7600
 2.2770	 6.7420
 2.2780	 6.7280
 2.2790	 6.7120
 2.2800	 6.6970
 2.2810	 6.6810
 2.2820	 6.6640
 2.2830	 6.6460
 2.2840	 6.6270
 2.2850	 6.6070
 2.2860	 6.5850
 2.2870	 6.5660
 2.2880	 6.5490
 2.2890	 6.5310
 2.2900	 6.5160
 2.2910	 6.4980
 2.2920	 6.4770
 2.2930	 6.4590
 2.2940	 6.4420
 2.2950	 6.4230
 2.2960	 6.4050
 2.2970	 6.3840
 2.2980	 6.3570
 2.2990	 6.3280
 2.3000	 6.3060
 2.3010	 6.2860
 2.3020	 6.2720
 2.3030	 6.2600
 2.3040	 6.2430
 2.3050	 6.2270
 2.3060	 6.2100
 2.3070	 6.1910
 2.3080	 6.1780
 2.3090	 6.1640
 2.3100	 6.1460
 2.3110	 6.1340
 2.3120	 6.1230
 2.3130	 6.1150
 2.3140	 6.1050
 2.3150	 6.1010
 2.3160	 6.0890
 2.3170	 6.0720
 2.3180	 6.0600
 2.3190	 6.0460
 2.3200	 6.0350
 2.3210	 6.0290
 2.3220	 6.0160
 2.3230	 6.0010
 2.3240	 5.9880
 2.3250	 5.9710
 2.3260	 5.9580
 2.3270	 5.9500
 2.3280	 5.9370
 2.3290	 5.9230
 2.3300	 5.9090
 2.3310	 5.8910
 2.3320	 5.8760
 2.3330	 5.8620
 2.3340	 5.8470
 2.3350	 5.8320
 2.3360	 5.8180
 2.3370	 5.8030
 2.3380	 5.7890
 2.3390	 5.7750
 2.3400	 5.7600
 2.3410	 5.7430
 2.3420	 5.7290
 2.3430	 5.7170
 2.3440	 5.7060
 2.3450	 5.6990
 2.3460	 5.6880
 2.3470	 5.6760
 2.3480	 5.6630
 2.3490	 5.6440
 2.3500	 5.6290
 2.3510	 5.6130
 2.3520	 5.6000
 2.3530	 5.5890
 2.3540	 5.5830
 2.3550	 5.5790
 2.3560	 5.5690
 2.3570	 5.5620
 2.3580	 5.5530
 2.3590	 5.5350
 2.3600	 5.5250
 2.3610	 5.5110
 2.3620	 5.4940
 2.3630	 5.4860
 2.3640	 5.4720
 2.3650	 5.4620
 2.3660	 5.4540
 2.3670	 5.4420
 2.3680	 5.4330
 2.3690	 5.4210
 2.3700	 5.4050
 2.3710	 5.3910
 2.3720	 5.3800
 2.3730	 5.3670
 2.3740	 5.3580
 2.3750	 5.3510
 2.3760	 5.3340
 2.3770	 5.3160
 2.3780	 5.3050
 2.3790	 5.2930
 2.3800	 5.2880
 2.3810	 5.2900
 2.3820	 5.2840
 2.3830	 5.2700
 2.3840	 5.2530
 2.3850	 5.2360
 2.3860	 5.2180
 2.3870	 5.2070
 2.3880	 5.2060
 2.3890	 5.1930
 2.3900	 5.1840
 2.3910	 5.1810
 2.3920	 5.1660
 2.3930	 5.1550
 2.3940	 5.1450
 2.3950	 5.1350
 2.3960	 5.1240
 2.3970	 5.1100
 2.3980	 5.1000
 2.3990	 5.0760
 2.4000	 5.0470
 2.4010	 5.0340
 2.4020	 5.0240
 2.4030	 5.0190
 2.4040	 5.0170
 2.4050	 5.0120
 2.4060	 4.9970
 2.4070	 4.9790
 2.4080	 4.9640
 2.4090	 4.9510
 2.4100	 4.9420
 2.4110	 4.9320
 2.4120	 4.9180
 2.4130	 4.9070
 2.4140	 4.8970
 2.4150	 4.8910
 2.4160	 4.8900
 2.4170	 4.8840
 2.4180	 4.8670
 2.4190	 4.8520
 2.4200	 4.8360
 2.4210	 4.8160
 2.4220	 4.8040
 2.4230	 4.8020
 2.4240	 4.7900
 2.4250	 4.7860
 2.4260	 4.7850
 2.4270	 4.7670
 2.4280	 4.7580
 2.4290	 4.7430
 2.4300	 4.7180
 2.4310	 4.7050
 2.4320	 4.6930
 2.4330	 4.6920
 2.4340	 4.6940
 2.4350	 4.6880
 2.4360	 4.6770
 2.4370	 4.6490
 2.4380	 4.6290
 2.4390	 4.6160
 2.4400	 4.6000
 2.4410	 4.5960
 2.4420	 4.5760
 2.4430	 4.5530
 2.4440	 4.5470
 2.4450	 4.5490
 2.4460	 4.5600
 2.4470	 4.5650
 2.4480	 4.5600
 2.4490	 4.5490
 2.4500	 4.5450
 2.4510	 4.5460
 2.4520	 4.5470
 2.4530	 4.5450
 2.4540	 4.5280
 2.4550	 4.5160
 2.4560	 4.4980
 2.4570	 4.4860
 2.4580	 4.4790
 2.4590	 4.4570
 2.4600	 4.4450
 2.4610	 4.4330
 2.4620	 4.4310
 2.4630	 4.4480
 2.4640	 4.4700
 2.4650	 4.4870
 2.4660	 4.4860
 2.4670	 4.4740
 2.4680	 4.4630
 2.4690	 4.4440
 2.4700	 4.4190
 2.4710	 4.3760
 2.4720	 4.3540
 2.4730	 4.3350
 2.4740	 4.3390
 2.4750	 4.3750
 2.4760	 4.3860
 2.4770	 4.4050
 2.4780	 4.4100
 2.4790	 4.3980
 2.4800	 4.3970
 2.4810	 4.3940
 2.4820	 4.3550
 2.4830	 4.3340
 2.4840	 4.3410
 2.4850	 4.3570
 2.4860	 4.3890
 2.4870	 4.4100
 2.4880	 4.3950
 2.4890	 4.3780
 2.4900	 4.3550
 2.4910	 4.3450
 2.4920	 4.3520
 2.4930	 4.3470
 2.4940	 4.3700
 2.4950	 4.4010
 2.4960	 4.4240
 2.4970	 4.4700
 2.4980	 4.4660
 2.4990	 4.4260
 2.5000	 4.4000
