Name: Abies concolor 2
Type: vegetation
Class: Tree
Genus: Abies
Species: concolor
Sample No.: VH064
Owner: UCSB
Wavelength Range: VSWIR
Origin: 37.0437; -119.3025; WGS84
Collection Date: 4/20/2013
Description: Samples were collected as part of the HyspIRI Airborne Campaign. 48 individual plants were sampled in three times in 2013 - spring  summer  and fall. The name of the sample includes a 1  2  or 3 which references a different individual of the species. Samples were taken to JPL and processed within 48 hours of collection. The same leaves were processed in the Nicolet and then measured using the ASD.
Measurement: Bidirectional reflectance
First Column: X
Second Column: Y
X Units: Wavelength (micrometers)
Y Units: Reflectance (percentage)
First X Value: 0.35
Last X Value: 2.5
Number of X Values: 2151
Additional Information: vegetation.tree.abies.concolor.vswir.vh064.ucsb.asd.ancillary.txt

 0.3500	 6.6830
 0.3510	 6.5760
 0.3520	 6.5010
 0.3530	 6.4710
 0.3540	 6.4610
 0.3550	 6.4600
 0.3560	 6.4970
 0.3570	 6.4820
 0.3580	 6.3020
 0.3590	 6.1600
 0.3600	 6.1830
 0.3610	 6.3090
 0.3620	 6.2260
 0.3630	 6.2450
 0.3640	 6.2920
 0.3650	 6.2600
 0.3660	 6.3060
 0.3670	 6.2460
 0.3680	 6.1180
 0.3690	 6.1030
 0.3700	 6.1830
 0.3710	 6.2380
 0.3720	 6.2130
 0.3730	 6.1840
 0.3740	 6.2020
 0.3750	 6.2090
 0.3760	 6.1420
 0.3770	 6.0780
 0.3780	 6.0400
 0.3790	 6.0250
 0.3800	 6.0120
 0.3810	 5.9770
 0.3820	 5.9950
 0.3830	 6.0790
 0.3840	 6.0850
 0.3850	 6.0530
 0.3860	 6.0280
 0.3870	 6.0380
 0.3880	 6.0250
 0.3890	 6.0040
 0.3900	 5.9920
 0.3910	 5.9980
 0.3920	 5.9780
 0.3930	 5.9820
 0.3940	 6.0260
 0.3950	 5.9950
 0.3960	 5.9820
 0.3970	 6.0010
 0.3980	 6.0300
 0.3990	 6.0300
 0.4000	 6.0430
 0.4010	 6.0810
 0.4020	 6.1010
 0.4030	 6.1160
 0.4040	 6.1280
 0.4050	 6.1380
 0.4060	 6.1610
 0.4070	 6.1700
 0.4080	 6.1800
 0.4090	 6.2260
 0.4100	 6.2870
 0.4110	 6.3330
 0.4120	 6.3600
 0.4130	 6.4040
 0.4140	 6.4480
 0.4150	 6.4870
 0.4160	 6.5220
 0.4170	 6.5760
 0.4180	 6.6340
 0.4190	 6.6940
 0.4200	 6.7620
 0.4210	 6.8420
 0.4220	 6.9080
 0.4230	 6.9470
 0.4240	 6.9820
 0.4250	 7.0580
 0.4260	 7.1500
 0.4270	 7.2100
 0.4280	 7.2620
 0.4290	 7.3170
 0.4300	 7.3790
 0.4310	 7.4320
 0.4320	 7.4950
 0.4330	 7.5600
 0.4340	 7.6170
 0.4350	 7.6640
 0.4360	 7.7150
 0.4370	 7.7680
 0.4380	 7.8040
 0.4390	 7.8420
 0.4400	 7.8830
 0.4410	 7.9270
 0.4420	 7.9750
 0.4430	 8.0210
 0.4440	 8.0610
 0.4450	 8.0940
 0.4460	 8.1310
 0.4470	 8.1810
 0.4480	 8.2340
 0.4490	 8.2590
 0.4500	 8.2880
 0.4510	 8.3190
 0.4520	 8.3450
 0.4530	 8.3810
 0.4540	 8.4120
 0.4550	 8.4350
 0.4560	 8.4550
 0.4570	 8.4730
 0.4580	 8.4930
 0.4590	 8.5130
 0.4600	 8.5170
 0.4610	 8.5210
 0.4620	 8.5220
 0.4630	 8.5160
 0.4640	 8.5320
 0.4650	 8.5460
 0.4660	 8.5430
 0.4670	 8.5260
 0.4680	 8.5160
 0.4690	 8.5200
 0.4700	 8.5340
 0.4710	 8.5310
 0.4720	 8.5240
 0.4730	 8.5220
 0.4740	 8.5320
 0.4750	 8.5320
 0.4760	 8.5290
 0.4770	 8.5250
 0.4780	 8.5180
 0.4790	 8.5190
 0.4800	 8.5260
 0.4810	 8.5300
 0.4820	 8.5240
 0.4830	 8.5190
 0.4840	 8.5220
 0.4850	 8.5350
 0.4860	 8.5460
 0.4870	 8.5590
 0.4880	 8.5770
 0.4890	 8.5950
 0.4900	 8.6110
 0.4910	 8.6310
 0.4920	 8.6590
 0.4930	 8.6990
 0.4940	 8.7430
 0.4950	 8.7890
 0.4960	 8.8370
 0.4970	 8.9010
 0.4980	 8.9730
 0.4990	 9.0480
 0.5000	 9.1440
 0.5010	 9.2370
 0.5020	 9.3300
 0.5030	 9.4500
 0.5040	 9.5790
 0.5050	 9.7140
 0.5060	 9.8580
 0.5070	10.0290
 0.5080	10.2090
 0.5090	10.4000
 0.5100	10.6110
 0.5110	10.8280
 0.5120	11.0630
 0.5130	11.3180
 0.5140	11.5810
 0.5150	11.8600
 0.5160	12.1490
 0.5170	12.4450
 0.5180	12.7500
 0.5190	13.0650
 0.5200	13.3870
 0.5210	13.7110
 0.5220	14.0200
 0.5230	14.3220
 0.5240	14.6220
 0.5250	14.9040
 0.5260	15.1750
 0.5270	15.4300
 0.5280	15.6640
 0.5290	15.8810
 0.5300	16.0810
 0.5310	16.2680
 0.5320	16.4420
 0.5330	16.6010
 0.5340	16.7410
 0.5350	16.8650
 0.5360	16.9880
 0.5370	17.0990
 0.5380	17.1950
 0.5390	17.2810
 0.5400	17.3670
 0.5410	17.4490
 0.5420	17.5260
 0.5430	17.6020
 0.5440	17.6810
 0.5450	17.7590
 0.5460	17.8310
 0.5470	17.9030
 0.5480	17.9650
 0.5490	18.0180
 0.5500	18.0690
 0.5510	18.1100
 0.5520	18.1330
 0.5530	18.1380
 0.5540	18.1260
 0.5550	18.0920
 0.5560	18.0360
 0.5570	17.9610
 0.5580	17.8660
 0.5590	17.7600
 0.5600	17.6450
 0.5610	17.5120
 0.5620	17.3760
 0.5630	17.2340
 0.5640	17.0780
 0.5650	16.9200
 0.5660	16.7530
 0.5670	16.5720
 0.5680	16.3810
 0.5690	16.1840
 0.5700	15.9840
 0.5710	15.7810
 0.5720	15.5820
 0.5730	15.3870
 0.5740	15.1960
 0.5750	15.0160
 0.5760	14.8550
 0.5770	14.7070
 0.5780	14.5640
 0.5790	14.4290
 0.5800	14.3040
 0.5810	14.1870
 0.5820	14.0750
 0.5830	13.9730
 0.5840	13.8790
 0.5850	13.7890
 0.5860	13.7050
 0.5870	13.6170
 0.5880	13.5290
 0.5890	13.4440
 0.5900	13.3650
 0.5910	13.2990
 0.5920	13.2480
 0.5930	13.2060
 0.5940	13.1710
 0.5950	13.1340
 0.5960	13.0910
 0.5970	13.0540
 0.5980	13.0200
 0.5990	12.9840
 0.6000	12.9430
 0.6010	12.8960
 0.6020	12.8390
 0.6030	12.7740
 0.6040	12.7040
 0.6050	12.6240
 0.6060	12.5330
 0.6070	12.4340
 0.6080	12.3310
 0.6090	12.2210
 0.6100	12.1090
 0.6110	11.9970
 0.6120	11.8850
 0.6130	11.7690
 0.6140	11.6530
 0.6150	11.5400
 0.6160	11.4330
 0.6170	11.3350
 0.6180	11.2470
 0.6190	11.1670
 0.6200	11.0970
 0.6210	11.0350
 0.6220	10.9740
 0.6230	10.9220
 0.6240	10.8800
 0.6250	10.8460
 0.6260	10.8180
 0.6270	10.7930
 0.6280	10.7710
 0.6290	10.7560
 0.6300	10.7460
 0.6310	10.7310
 0.6320	10.7110
 0.6330	10.6870
 0.6340	10.6570
 0.6350	10.6130
 0.6360	10.5530
 0.6370	10.4840
 0.6380	10.4040
 0.6390	10.3120
 0.6400	10.2110
 0.6410	10.1080
 0.6420	 9.9960
 0.6430	 9.8740
 0.6440	 9.7510
 0.6450	 9.6260
 0.6460	 9.5030
 0.6470	 9.3870
 0.6480	 9.2750
 0.6490	 9.1730
 0.6500	 9.0830
 0.6510	 9.0050
 0.6520	 8.9320
 0.6530	 8.8640
 0.6540	 8.7990
 0.6550	 8.7250
 0.6560	 8.6440
 0.6570	 8.5530
 0.6580	 8.4510
 0.6590	 8.3420
 0.6600	 8.2270
 0.6610	 8.1100
 0.6620	 7.9930
 0.6630	 7.8820
 0.6640	 7.7770
 0.6650	 7.6760
 0.6660	 7.5840
 0.6670	 7.5040
 0.6680	 7.4350
 0.6690	 7.3770
 0.6700	 7.3300
 0.6710	 7.2920
 0.6720	 7.2630
 0.6730	 7.2450
 0.6740	 7.2320
 0.6750	 7.2210
 0.6760	 7.2150
 0.6770	 7.2220
 0.6780	 7.2360
 0.6790	 7.2580
 0.6800	 7.2940
 0.6810	 7.3420
 0.6820	 7.4090
 0.6830	 7.5010
 0.6840	 7.6170
 0.6850	 7.7700
 0.6860	 7.9670
 0.6870	 8.2160
 0.6880	 8.5260
 0.6890	 8.8990
 0.6900	 9.3420
 0.6910	 9.8640
 0.6920	10.4620
 0.6930	11.1420
 0.6940	11.9030
 0.6950	12.7310
 0.6960	13.6200
 0.6970	14.5680
 0.6980	15.5670
 0.6990	16.6030
 0.7000	17.6700
 0.7010	18.7590
 0.7020	19.8560
 0.7030	20.9560
 0.7040	22.0560
 0.7050	23.1530
 0.7060	24.2470
 0.7070	25.3340
 0.7080	26.4140
 0.7090	27.4960
 0.7100	28.5770
 0.7110	29.6580
 0.7120	30.7420
 0.7130	31.8340
 0.7140	32.9190
 0.7150	34.0060
 0.7160	35.1020
 0.7170	36.1990
 0.7180	37.2960
 0.7190	38.3910
 0.7200	39.4840
 0.7210	40.5810
 0.7220	41.6660
 0.7230	42.7370
 0.7240	43.8030
 0.7250	44.8490
 0.7260	45.8750
 0.7270	46.8820
 0.7280	47.8620
 0.7290	48.8160
 0.7300	49.7450
 0.7310	50.6470
 0.7320	51.5060
 0.7330	52.3360
 0.7340	53.1390
 0.7350	53.9030
 0.7360	54.6390
 0.7370	55.3400
 0.7380	56.0010
 0.7390	56.6380
 0.7400	57.2340
 0.7410	57.7950
 0.7420	58.3350
 0.7430	58.8360
 0.7440	59.3040
 0.7450	59.7460
 0.7460	60.1680
 0.7470	60.5480
 0.7480	60.8970
 0.7490	61.2260
 0.7500	61.5280
 0.7510	61.8040
 0.7520	62.0570
 0.7530	62.2900
 0.7540	62.5100
 0.7550	62.7090
 0.7560	62.8880
 0.7570	63.0590
 0.7580	63.2070
 0.7590	63.3460
 0.7600	63.4820
 0.7610	63.5990
 0.7620	63.7010
 0.7630	63.7910
 0.7640	63.8780
 0.7650	63.9630
 0.7660	64.0380
 0.7670	64.1030
 0.7680	64.1630
 0.7690	64.2310
 0.7700	64.2880
 0.7710	64.3310
 0.7720	64.3790
 0.7730	64.4300
 0.7740	64.4810
 0.7750	64.5260
 0.7760	64.5600
 0.7770	64.5940
 0.7780	64.6270
 0.7790	64.6530
 0.7800	64.6840
 0.7810	64.7150
 0.7820	64.7440
 0.7830	64.7700
 0.7840	64.8020
 0.7850	64.8340
 0.7860	64.8610
 0.7870	64.8880
 0.7880	64.9130
 0.7890	64.9340
 0.7900	64.9500
 0.7910	64.9740
 0.7920	64.9970
 0.7930	65.0160
 0.7940	65.0350
 0.7950	65.0510
 0.7960	65.0650
 0.7970	65.0790
 0.7980	65.0990
 0.7990	65.1190
 0.8000	65.1350
 0.8010	65.1460
 0.8020	65.1600
 0.8030	65.1660
 0.8040	65.1740
 0.8050	65.1950
 0.8060	65.2060
 0.8070	65.2120
 0.8080	65.2160
 0.8090	65.2250
 0.8100	65.2270
 0.8110	65.2320
 0.8120	65.2420
 0.8130	65.2510
 0.8140	65.2590
 0.8150	65.2680
 0.8160	65.2780
 0.8170	65.2780
 0.8180	65.2810
 0.8190	65.2840
 0.8200	65.2790
 0.8210	65.2890
 0.8220	65.2940
 0.8230	65.2910
 0.8240	65.2960
 0.8250	65.2980
 0.8260	65.2930
 0.8270	65.2840
 0.8280	65.2870
 0.8290	65.2790
 0.8300	65.2660
 0.8310	65.2560
 0.8320	65.2490
 0.8330	65.2470
 0.8340	65.2490
 0.8350	65.2540
 0.8360	65.2490
 0.8370	65.2500
 0.8380	65.2580
 0.8390	65.2660
 0.8400	65.2770
 0.8410	65.2890
 0.8420	65.2970
 0.8430	65.3000
 0.8440	65.3120
 0.8450	65.3270
 0.8460	65.3350
 0.8470	65.3330
 0.8480	65.3430
 0.8490	65.3640
 0.8500	65.3840
 0.8510	65.3890
 0.8520	65.3930
 0.8530	65.4030
 0.8540	65.4190
 0.8550	65.4330
 0.8560	65.4450
 0.8570	65.4550
 0.8580	65.4670
 0.8590	65.4740
 0.8600	65.4750
 0.8610	65.4760
 0.8620	65.4900
 0.8630	65.4990
 0.8640	65.5040
 0.8650	65.5080
 0.8660	65.5210
 0.8670	65.5230
 0.8680	65.5230
 0.8690	65.5340
 0.8700	65.5510
 0.8710	65.5560
 0.8720	65.5520
 0.8730	65.5520
 0.8740	65.5520
 0.8750	65.5600
 0.8760	65.5720
 0.8770	65.5750
 0.8780	65.5750
 0.8790	65.5750
 0.8800	65.5740
 0.8810	65.5720
 0.8820	65.5770
 0.8830	65.5770
 0.8840	65.5670
 0.8850	65.5680
 0.8860	65.5710
 0.8870	65.5670
 0.8880	65.5540
 0.8890	65.5640
 0.8900	65.5590
 0.8910	65.5430
 0.8920	65.5310
 0.8930	65.5170
 0.8940	65.5020
 0.8950	65.4910
 0.8960	65.4860
 0.8970	65.4780
 0.8980	65.4620
 0.8990	65.4420
 0.9000	65.4350
 0.9010	65.4310
 0.9020	65.4270
 0.9030	65.4190
 0.9040	65.4050
 0.9050	65.3890
 0.9060	65.3760
 0.9070	65.3690
 0.9080	65.3570
 0.9090	65.3290
 0.9100	65.3070
 0.9110	65.3030
 0.9120	65.2780
 0.9130	65.2540
 0.9140	65.2370
 0.9150	65.2260
 0.9160	65.2080
 0.9170	65.1980
 0.9180	65.1870
 0.9190	65.1640
 0.9200	65.1340
 0.9210	65.0960
 0.9220	65.0580
 0.9230	65.0270
 0.9240	64.9930
 0.9250	64.9670
 0.9260	64.9360
 0.9270	64.8820
 0.9280	64.8310
 0.9290	64.7710
 0.9300	64.7120
 0.9310	64.6800
 0.9320	64.6160
 0.9330	64.5430
 0.9340	64.4730
 0.9350	64.3960
 0.9360	64.3130
 0.9370	64.2420
 0.9380	64.1770
 0.9390	64.0830
 0.9400	63.9970
 0.9410	63.9140
 0.9420	63.8220
 0.9430	63.7040
 0.9440	63.5850
 0.9450	63.4610
 0.9460	63.3310
 0.9470	63.2170
 0.9480	63.0630
 0.9490	62.8850
 0.9500	62.7050
 0.9510	62.5020
 0.9520	62.3050
 0.9530	62.1070
 0.9540	61.8970
 0.9550	61.6880
 0.9560	61.5020
 0.9570	61.3280
 0.9580	61.1510
 0.9590	60.9650
 0.9600	60.8050
 0.9610	60.6600
 0.9620	60.5150
 0.9630	60.3990
 0.9640	60.3010
 0.9650	60.2060
 0.9660	60.1100
 0.9670	60.0520
 0.9680	60.0100
 0.9690	59.9470
 0.9700	59.8530
 0.9710	59.8260
 0.9720	59.7850
 0.9730	59.7170
 0.9740	59.6530
 0.9750	59.6470
 0.9760	59.6280
 0.9770	59.5970
 0.9780	59.5830
 0.9790	59.5780
 0.9800	59.5690
 0.9810	59.5640
 0.9820	59.5760
 0.9830	59.5950
 0.9840	59.6250
 0.9850	59.6530
 0.9860	59.6720
 0.9870	59.7180
 0.9880	59.7570
 0.9890	59.7960
 0.9900	59.8520
 0.9910	59.9010
 0.9920	60.0140
 0.9930	60.1270
 0.9940	60.2400
 0.9950	60.3530
 0.9960	60.4650
 0.9970	60.5780
 0.9980	60.6910
 0.9990	60.8040
 1.0000	60.9170
 1.0010	61.0300
 1.0020	61.1430
 1.0030	61.2550
 1.0040	61.3680
 1.0050	61.4810
 1.0060	61.5940
 1.0070	61.7070
 1.0080	61.8200
 1.0090	61.9320
 1.0100	61.9320
 1.0110	62.0080
 1.0120	62.0910
 1.0130	62.1800
 1.0140	62.2650
 1.0150	62.3500
 1.0160	62.4360
 1.0170	62.5200
 1.0180	62.6050
 1.0190	62.6930
 1.0200	62.7730
 1.0210	62.8530
 1.0220	62.9420
 1.0230	63.0270
 1.0240	63.1130
 1.0250	63.1950
 1.0260	63.2750
 1.0270	63.3550
 1.0280	63.4340
 1.0290	63.5110
 1.0300	63.5900
 1.0310	63.6630
 1.0320	63.7310
 1.0330	63.7970
 1.0340	63.8690
 1.0350	63.9340
 1.0360	64.0020
 1.0370	64.0730
 1.0380	64.1390
 1.0390	64.2040
 1.0400	64.2680
 1.0410	64.3330
 1.0420	64.3920
 1.0430	64.4470
 1.0440	64.5030
 1.0450	64.5550
 1.0460	64.6080
 1.0470	64.6640
 1.0480	64.7170
 1.0490	64.7700
 1.0500	64.8190
 1.0510	64.8690
 1.0520	64.9110
 1.0530	64.9510
 1.0540	64.9840
 1.0550	65.0200
 1.0560	65.0550
 1.0570	65.0900
 1.0580	65.1280
 1.0590	65.1620
 1.0600	65.1910
 1.0610	65.2250
 1.0620	65.2650
 1.0630	65.2940
 1.0640	65.3210
 1.0650	65.3450
 1.0660	65.3600
 1.0670	65.3770
 1.0680	65.3940
 1.0690	65.4140
 1.0700	65.4260
 1.0710	65.4330
 1.0720	65.4440
 1.0730	65.4550
 1.0740	65.4610
 1.0750	65.4690
 1.0760	65.4710
 1.0770	65.4650
 1.0780	65.4640
 1.0790	65.4650
 1.0800	65.4610
 1.0810	65.4570
 1.0820	65.4500
 1.0830	65.4430
 1.0840	65.4310
 1.0850	65.4140
 1.0860	65.3950
 1.0870	65.3780
 1.0880	65.3580
 1.0890	65.3370
 1.0900	65.3190
 1.0910	65.2940
 1.0920	65.2630
 1.0930	65.2320
 1.0940	65.1960
 1.0950	65.1620
 1.0960	65.1280
 1.0970	65.0940
 1.0980	65.0610
 1.0990	65.0240
 1.1000	64.9850
 1.1010	64.9450
 1.1020	64.9040
 1.1030	64.8610
 1.1040	64.8190
 1.1050	64.7730
 1.1060	64.7250
 1.1070	64.6760
 1.1080	64.6250
 1.1090	64.5740
 1.1100	64.5190
 1.1110	64.4620
 1.1120	64.4000
 1.1130	64.3330
 1.1140	64.2620
 1.1150	64.1870
 1.1160	64.1070
 1.1170	64.0280
 1.1180	63.9360
 1.1190	63.8380
 1.1200	63.7300
 1.1210	63.6160
 1.1220	63.4890
 1.1230	63.3500
 1.1240	63.2050
 1.1250	63.0420
 1.1260	62.8660
 1.1270	62.6710
 1.1280	62.4650
 1.1290	62.2340
 1.1300	61.9860
 1.1310	61.7140
 1.1320	61.4170
 1.1330	61.1060
 1.1340	60.7760
 1.1350	60.4270
 1.1360	60.0610
 1.1370	59.6780
 1.1380	59.2800
 1.1390	58.8730
 1.1400	58.4570
 1.1410	58.0390
 1.1420	57.6160
 1.1430	57.1940
 1.1440	56.7770
 1.1450	56.3530
 1.1460	55.9520
 1.1470	55.5530
 1.1480	55.1760
 1.1490	54.8130
 1.1500	54.4720
 1.1510	54.1450
 1.1520	53.8400
 1.1530	53.5530
 1.1540	53.2890
 1.1550	53.0440
 1.1560	52.8220
 1.1570	52.6200
 1.1580	52.4380
 1.1590	52.2690
 1.1600	52.1130
 1.1610	51.9700
 1.1620	51.8390
 1.1630	51.7230
 1.1640	51.6160
 1.1650	51.5160
 1.1660	51.4260
 1.1670	51.3390
 1.1680	51.2590
 1.1690	51.1820
 1.1700	51.1110
 1.1710	51.0410
 1.1720	50.9770
 1.1730	50.9090
 1.1740	50.8420
 1.1750	50.7760
 1.1760	50.7050
 1.1770	50.6350
 1.1780	50.5620
 1.1790	50.4890
 1.1800	50.4180
 1.1810	50.3450
 1.1820	50.2740
 1.1830	50.2030
 1.1840	50.1270
 1.1850	50.0540
 1.1860	49.9840
 1.1870	49.9150
 1.1880	49.8510
 1.1890	49.7880
 1.1900	49.7340
 1.1910	49.6860
 1.1920	49.6420
 1.1930	49.6040
 1.1940	49.5710
 1.1950	49.5420
 1.1960	49.5200
 1.1970	49.5050
 1.1980	49.4960
 1.1990	49.4910
 1.2000	49.4890
 1.2010	49.4950
 1.2020	49.5070
 1.2030	49.5240
 1.2040	49.5460
 1.2050	49.5750
 1.2060	49.6090
 1.2070	49.6500
 1.2080	49.6950
 1.2090	49.7420
 1.2100	49.7950
 1.2110	49.8540
 1.2120	49.9170
 1.2130	49.9880
 1.2140	50.0680
 1.2150	50.1490
 1.2160	50.2350
 1.2170	50.3250
 1.2180	50.4190
 1.2190	50.5170
 1.2200	50.6140
 1.2210	50.7140
 1.2220	50.8130
 1.2230	50.9110
 1.2240	51.0110
 1.2250	51.1120
 1.2260	51.2100
 1.2270	51.3070
 1.2280	51.4030
 1.2290	51.4950
 1.2300	51.5880
 1.2310	51.6780
 1.2320	51.7640
 1.2330	51.8450
 1.2340	51.9240
 1.2350	51.9980
 1.2360	52.0710
 1.2370	52.1400
 1.2380	52.2090
 1.2390	52.2780
 1.2400	52.3420
 1.2410	52.4060
 1.2420	52.4710
 1.2430	52.5290
 1.2440	52.5860
 1.2450	52.6440
 1.2460	52.6990
 1.2470	52.7530
 1.2480	52.8050
 1.2490	52.8540
 1.2500	52.8990
 1.2510	52.9440
 1.2520	52.9900
 1.2530	53.0330
 1.2540	53.0750
 1.2550	53.1110
 1.2560	53.1420
 1.2570	53.1750
 1.2580	53.2030
 1.2590	53.2300
 1.2600	53.2560
 1.2610	53.2780
 1.2620	53.2950
 1.2630	53.3100
 1.2640	53.3260
 1.2650	53.3370
 1.2660	53.3480
 1.2670	53.3550
 1.2680	53.3610
 1.2690	53.3650
 1.2700	53.3630
 1.2710	53.3610
 1.2720	53.3540
 1.2730	53.3430
 1.2740	53.3300
 1.2750	53.3130
 1.2760	53.2950
 1.2770	53.2750
 1.2780	53.2520
 1.2790	53.2250
 1.2800	53.1940
 1.2810	53.1580
 1.2820	53.1200
 1.2830	53.0800
 1.2840	53.0340
 1.2850	52.9850
 1.2860	52.9330
 1.2870	52.8760
 1.2880	52.8150
 1.2890	52.7490
 1.2900	52.6790
 1.2910	52.6000
 1.2920	52.5160
 1.2930	52.4310
 1.2940	52.3420
 1.2950	52.2490
 1.2960	52.1470
 1.2970	52.0380
 1.2980	51.9240
 1.2990	51.8040
 1.3000	51.6790
 1.3010	51.5510
 1.3020	51.4160
 1.3030	51.2730
 1.3040	51.1250
 1.3050	50.9710
 1.3060	50.8080
 1.3070	50.6420
 1.3080	50.4720
 1.3090	50.2930
 1.3100	50.1110
 1.3110	49.9200
 1.3120	49.7200
 1.3130	49.5190
 1.3140	49.3100
 1.3150	49.0930
 1.3160	48.8720
 1.3170	48.6470
 1.3180	48.4160
 1.3190	48.1800
 1.3200	47.9370
 1.3210	47.6840
 1.3220	47.4270
 1.3230	47.1680
 1.3240	46.9000
 1.3250	46.6340
 1.3260	46.3620
 1.3270	46.0830
 1.3280	45.8060
 1.3290	45.5220
 1.3300	45.2380
 1.3310	44.9540
 1.3320	44.6670
 1.3330	44.3830
 1.3340	44.0990
 1.3350	43.8130
 1.3360	43.5310
 1.3370	43.2510
 1.3380	42.9730
 1.3390	42.6990
 1.3400	42.4270
 1.3410	42.1600
 1.3420	41.8980
 1.3430	41.6380
 1.3440	41.3830
 1.3450	41.1320
 1.3460	40.8840
 1.3470	40.6420
 1.3480	40.4030
 1.3490	40.1700
 1.3500	39.9430
 1.3510	39.7180
 1.3520	39.4960
 1.3530	39.2780
 1.3540	39.0610
 1.3550	38.8450
 1.3560	38.6280
 1.3570	38.4100
 1.3580	38.1940
 1.3590	37.9760
 1.3600	37.7550
 1.3610	37.5290
 1.3620	37.2950
 1.3630	37.0570
 1.3640	36.8110
 1.3650	36.5550
 1.3660	36.2930
 1.3670	36.0180
 1.3680	35.7320
 1.3690	35.4350
 1.3700	35.1180
 1.3710	34.7870
 1.3720	34.4370
 1.3730	34.0650
 1.3740	33.6780
 1.3750	33.2690
 1.3760	32.8370
 1.3770	32.3840
 1.3780	31.9010
 1.3790	31.3950
 1.3800	30.8660
 1.3810	30.3100
 1.3820	29.7400
 1.3830	29.1510
 1.3840	28.5480
 1.3850	27.9270
 1.3860	27.2990
 1.3870	26.6530
 1.3880	26.0130
 1.3890	25.3660
 1.3900	24.7180
 1.3910	24.0800
 1.3920	23.4430
 1.3930	22.8110
 1.3940	22.1940
 1.3950	21.5810
 1.3960	20.9850
 1.3970	20.4080
 1.3980	19.8470
 1.3990	19.3120
 1.4000	18.7970
 1.4010	18.3000
 1.4020	17.8290
 1.4030	17.3770
 1.4040	16.9480
 1.4050	16.5440
 1.4060	16.1610
 1.4070	15.8040
 1.4080	15.4660
 1.4090	15.1470
 1.4100	14.8520
 1.4110	14.5720
 1.4120	14.3120
 1.4130	14.0700
 1.4140	13.8450
 1.4150	13.6370
 1.4160	13.4440
 1.4170	13.2640
 1.4180	13.0970
 1.4190	12.9400
 1.4200	12.7950
 1.4210	12.6610
 1.4220	12.5350
 1.4230	12.4210
 1.4240	12.3170
 1.4250	12.2190
 1.4260	12.1290
 1.4270	12.0450
 1.4280	11.9690
 1.4290	11.8980
 1.4300	11.8340
 1.4310	11.7750
 1.4320	11.7230
 1.4330	11.6760
 1.4340	11.6340
 1.4350	11.5970
 1.4360	11.5640
 1.4370	11.5350
 1.4380	11.5100
 1.4390	11.4880
 1.4400	11.4700
 1.4410	11.4560
 1.4420	11.4450
 1.4430	11.4350
 1.4440	11.4280
 1.4450	11.4230
 1.4460	11.4210
 1.4470	11.4220
 1.4480	11.4250
 1.4490	11.4280
 1.4500	11.4330
 1.4510	11.4380
 1.4520	11.4460
 1.4530	11.4550
 1.4540	11.4660
 1.4550	11.4800
 1.4560	11.4950
 1.4570	11.5120
 1.4580	11.5310
 1.4590	11.5520
 1.4600	11.5770
 1.4610	11.6050
 1.4620	11.6370
 1.4630	11.6710
 1.4640	11.7090
 1.4650	11.7510
 1.4660	11.7960
 1.4670	11.8440
 1.4680	11.8970
 1.4690	11.9520
 1.4700	12.0110
 1.4710	12.0740
 1.4720	12.1400
 1.4730	12.2090
 1.4740	12.2810
 1.4750	12.3560
 1.4760	12.4340
 1.4770	12.5140
 1.4780	12.5970
 1.4790	12.6830
 1.4800	12.7690
 1.4810	12.8570
 1.4820	12.9460
 1.4830	13.0360
 1.4840	13.1290
 1.4850	13.2230
 1.4860	13.3190
 1.4870	13.4180
 1.4880	13.5160
 1.4890	13.6150
 1.4900	13.7150
 1.4910	13.8150
 1.4920	13.9170
 1.4930	14.0210
 1.4940	14.1240
 1.4950	14.2290
 1.4960	14.3340
 1.4970	14.4380
 1.4980	14.5430
 1.4990	14.6490
 1.5000	14.7560
 1.5010	14.8640
 1.5020	14.9720
 1.5030	15.0820
 1.5040	15.1900
 1.5050	15.2970
 1.5060	15.4060
 1.5070	15.5150
 1.5080	15.6230
 1.5090	15.7310
 1.5100	15.8380
 1.5110	15.9440
 1.5120	16.0530
 1.5130	16.1600
 1.5140	16.2680
 1.5150	16.3760
 1.5160	16.4810
 1.5170	16.5860
 1.5180	16.6910
 1.5190	16.7970
 1.5200	16.9030
 1.5210	17.0080
 1.5220	17.1120
 1.5230	17.2150
 1.5240	17.3160
 1.5250	17.4170
 1.5260	17.5190
 1.5270	17.6200
 1.5280	17.7220
 1.5290	17.8210
 1.5300	17.9200
 1.5310	18.0190
 1.5320	18.1160
 1.5330	18.2120
 1.5340	18.3070
 1.5350	18.4020
 1.5360	18.4980
 1.5370	18.5930
 1.5380	18.6880
 1.5390	18.7810
 1.5400	18.8720
 1.5410	18.9630
 1.5420	19.0560
 1.5430	19.1470
 1.5440	19.2390
 1.5450	19.3300
 1.5460	19.4180
 1.5470	19.5070
 1.5480	19.5950
 1.5490	19.6850
 1.5500	19.7730
 1.5510	19.8620
 1.5520	19.9480
 1.5530	20.0330
 1.5540	20.1180
 1.5550	20.2040
 1.5560	20.2890
 1.5570	20.3750
 1.5580	20.4600
 1.5590	20.5430
 1.5600	20.6260
 1.5610	20.7070
 1.5620	20.7870
 1.5630	20.8680
 1.5640	20.9490
 1.5650	21.0310
 1.5660	21.1110
 1.5670	21.1910
 1.5680	21.2690
 1.5690	21.3460
 1.5700	21.4240
 1.5710	21.5020
 1.5720	21.5790
 1.5730	21.6570
 1.5740	21.7350
 1.5750	21.8120
 1.5760	21.8890
 1.5770	21.9660
 1.5780	22.0420
 1.5790	22.1180
 1.5800	22.1950
 1.5810	22.2730
 1.5820	22.3500
 1.5830	22.4260
 1.5840	22.5030
 1.5850	22.5780
 1.5860	22.6530
 1.5870	22.7290
 1.5880	22.8060
 1.5890	22.8830
 1.5900	22.9600
 1.5910	23.0360
 1.5920	23.1120
 1.5930	23.1880
 1.5940	23.2630
 1.5950	23.3400
 1.5960	23.4170
 1.5970	23.4930
 1.5980	23.5690
 1.5990	23.6440
 1.6000	23.7200
 1.6010	23.7950
 1.6020	23.8690
 1.6030	23.9440
 1.6040	24.0190
 1.6050	24.0920
 1.6060	24.1660
 1.6070	24.2400
 1.6080	24.3120
 1.6090	24.3830
 1.6100	24.4550
 1.6110	24.5260
 1.6120	24.5980
 1.6130	24.6680
 1.6140	24.7370
 1.6150	24.8040
 1.6160	24.8690
 1.6170	24.9330
 1.6180	24.9980
 1.6190	25.0620
 1.6200	25.1240
 1.6210	25.1850
 1.6220	25.2430
 1.6230	25.2990
 1.6240	25.3530
 1.6250	25.4060
 1.6260	25.4570
 1.6270	25.5070
 1.6280	25.5570
 1.6290	25.6050
 1.6300	25.6500
 1.6310	25.6940
 1.6320	25.7340
 1.6330	25.7750
 1.6340	25.8160
 1.6350	25.8560
 1.6360	25.8970
 1.6370	25.9370
 1.6380	25.9760
 1.6390	26.0160
 1.6400	26.0570
 1.6410	26.0970
 1.6420	26.1380
 1.6430	26.1750
 1.6440	26.2100
 1.6450	26.2430
 1.6460	26.2720
 1.6470	26.2980
 1.6480	26.3210
 1.6490	26.3400
 1.6500	26.3570
 1.6510	26.3710
 1.6520	26.3810
 1.6530	26.3890
 1.6540	26.3930
 1.6550	26.3960
 1.6560	26.3970
 1.6570	26.3960
 1.6580	26.3940
 1.6590	26.3900
 1.6600	26.3840
 1.6610	26.3780
 1.6620	26.3720
 1.6630	26.3670
 1.6640	26.3600
 1.6650	26.3540
 1.6660	26.3470
 1.6670	26.3370
 1.6680	26.3280
 1.6690	26.3190
 1.6700	26.3060
 1.6710	26.2920
 1.6720	26.2760
 1.6730	26.2570
 1.6740	26.2390
 1.6750	26.2190
 1.6760	26.1950
 1.6770	26.1680
 1.6780	26.1380
 1.6790	26.1060
 1.6800	26.0730
 1.6810	26.0360
 1.6820	25.9960
 1.6830	25.9530
 1.6840	25.9050
 1.6850	25.8560
 1.6860	25.8050
 1.6870	25.7510
 1.6880	25.6950
 1.6890	25.6360
 1.6900	25.5740
 1.6910	25.5090
 1.6920	25.4460
 1.6930	25.3800
 1.6940	25.3160
 1.6950	25.2530
 1.6960	25.1890
 1.6970	25.1240
 1.6980	25.0570
 1.6990	24.9880
 1.7000	24.9220
 1.7010	24.8560
 1.7020	24.7900
 1.7030	24.7250
 1.7040	24.6590
 1.7050	24.5920
 1.7060	24.5270
 1.7070	24.4650
 1.7080	24.4020
 1.7090	24.3380
 1.7100	24.2760
 1.7110	24.2120
 1.7120	24.1530
 1.7130	24.0960
 1.7140	24.0370
 1.7150	23.9800
 1.7160	23.9210
 1.7170	23.8590
 1.7180	23.8000
 1.7190	23.7410
 1.7200	23.6840
 1.7210	23.6280
 1.7220	23.5710
 1.7230	23.5140
 1.7240	23.4580
 1.7250	23.4030
 1.7260	23.3510
 1.7270	23.3010
 1.7280	23.2550
 1.7290	23.2110
 1.7300	23.1690
 1.7310	23.1300
 1.7320	23.0940
 1.7330	23.0570
 1.7340	23.0240
 1.7350	22.9880
 1.7360	22.9530
 1.7370	22.9140
 1.7380	22.8740
 1.7390	22.8290
 1.7400	22.7810
 1.7410	22.7290
 1.7420	22.6700
 1.7430	22.6120
 1.7440	22.5500
 1.7450	22.4870
 1.7460	22.4220
 1.7470	22.3570
 1.7480	22.2890
 1.7490	22.2230
 1.7500	22.1560
 1.7510	22.0930
 1.7520	22.0310
 1.7530	21.9710
 1.7540	21.9130
 1.7550	21.8550
 1.7560	21.7980
 1.7570	21.7460
 1.7580	21.6960
 1.7590	21.6480
 1.7600	21.6010
 1.7610	21.5550
 1.7620	21.5120
 1.7630	21.4730
 1.7640	21.4350
 1.7650	21.3980
 1.7660	21.3640
 1.7670	21.3320
 1.7680	21.3020
 1.7690	21.2750
 1.7700	21.2470
 1.7710	21.2180
 1.7720	21.1930
 1.7730	21.1680
 1.7740	21.1450
 1.7750	21.1240
 1.7760	21.1030
 1.7770	21.0810
 1.7780	21.0620
 1.7790	21.0440
 1.7800	21.0290
 1.7810	21.0160
 1.7820	21.0040
 1.7830	20.9940
 1.7840	20.9850
 1.7850	20.9770
 1.7860	20.9720
 1.7870	20.9670
 1.7880	20.9650
 1.7890	20.9640
 1.7900	20.9670
 1.7910	20.9700
 1.7920	20.9740
 1.7930	20.9780
 1.7940	20.9810
 1.7950	20.9870
 1.7960	20.9940
 1.7970	21.0030
 1.7980	21.0160
 1.7990	21.0270
 1.8000	21.0390
 1.8010	21.0500
 1.8020	21.0590
 1.8030	21.0700
 1.8040	21.0820
 1.8050	21.0950
 1.8060	21.1100
 1.8070	21.1230
 1.8080	21.1360
 1.8090	21.1460
 1.8100	21.1540
 1.8110	21.1620
 1.8120	21.1720
 1.8130	21.1830
 1.8140	21.1920
 1.8150	21.2010
 1.8160	21.2100
 1.8170	21.2200
 1.8180	21.2310
 1.8190	21.2380
 1.8200	21.2440
 1.8210	21.2460
 1.8220	21.2490
 1.8230	21.2530
 1.8240	21.2560
 1.8250	21.2620
 1.8260	21.2620
 1.8270	21.2280
 1.8280	21.1930
 1.8290	21.1590
 1.8300	21.1240
 1.8310	21.0900
 1.8320	21.0560
 1.8330	21.0210
 1.8340	20.9870
 1.8350	20.9870
 1.8360	20.9600
 1.8370	20.9250
 1.8380	20.8870
 1.8390	20.8420
 1.8400	20.7870
 1.8410	20.7290
 1.8420	20.6670
 1.8430	20.6000
 1.8440	20.5260
 1.8450	20.4440
 1.8460	20.3540
 1.8470	20.2550
 1.8480	20.1480
 1.8490	20.0320
 1.8500	19.9050
 1.8510	19.7700
 1.8520	19.6230
 1.8530	19.4620
 1.8540	19.2940
 1.8550	19.1150
 1.8560	18.9230
 1.8570	18.7230
 1.8580	18.5080
 1.8590	18.2800
 1.8600	18.0380
 1.8610	17.7870
 1.8620	17.5240
 1.8630	17.2500
 1.8640	16.9620
 1.8650	16.6580
 1.8660	16.3390
 1.8670	16.0010
 1.8680	15.6520
 1.8690	15.2890
 1.8700	14.9150
 1.8710	14.5270
 1.8720	14.1350
 1.8730	13.7340
 1.8740	13.3270
 1.8750	12.9190
 1.8760	12.5020
 1.8770	12.0860
 1.8780	11.6740
 1.8790	11.2580
 1.8800	10.8530
 1.8810	10.4550
 1.8820	10.0610
 1.8830	 9.6690
 1.8840	 9.2900
 1.8850	 8.9140
 1.8860	 8.5460
 1.8870	 8.1910
 1.8880	 7.8480
 1.8890	 7.5230
 1.8900	 7.2130
 1.8910	 6.9200
 1.8920	 6.6440
 1.8930	 6.3850
 1.8940	 6.1350
 1.8950	 5.9060
 1.8960	 5.6920
 1.8970	 5.4910
 1.8980	 5.3100
 1.8990	 5.1410
 1.9000	 4.9850
 1.9010	 4.8430
 1.9020	 4.7130
 1.9030	 4.5960
 1.9040	 4.4890
 1.9050	 4.3940
 1.9060	 4.3030
 1.9070	 4.2200
 1.9080	 4.1490
 1.9090	 4.0830
 1.9100	 4.0240
 1.9110	 3.9700
 1.9120	 3.9220
 1.9130	 3.8780
 1.9140	 3.8410
 1.9150	 3.8090
 1.9160	 3.7790
 1.9170	 3.7520
 1.9180	 3.7280
 1.9190	 3.7060
 1.9200	 3.6900
 1.9210	 3.6790
 1.9220	 3.6670
 1.9230	 3.6580
 1.9240	 3.6480
 1.9250	 3.6390
 1.9260	 3.6310
 1.9270	 3.6250
 1.9280	 3.6230
 1.9290	 3.6250
 1.9300	 3.6270
 1.9310	 3.6290
 1.9320	 3.6350
 1.9330	 3.6420
 1.9340	 3.6480
 1.9350	 3.6580
 1.9360	 3.6730
 1.9370	 3.6860
 1.9380	 3.6990
 1.9390	 3.7140
 1.9400	 3.7290
 1.9410	 3.7450
 1.9420	 3.7630
 1.9430	 3.7820
 1.9440	 3.8010
 1.9450	 3.8210
 1.9460	 3.8410
 1.9470	 3.8640
 1.9480	 3.8860
 1.9490	 3.9080
 1.9500	 3.9310
 1.9510	 3.9540
 1.9520	 3.9790
 1.9530	 4.0050
 1.9540	 4.0330
 1.9550	 4.0590
 1.9560	 4.0850
 1.9570	 4.1130
 1.9580	 4.1420
 1.9590	 4.1710
 1.9600	 4.2030
 1.9610	 4.2360
 1.9620	 4.2680
 1.9630	 4.3020
 1.9640	 4.3380
 1.9650	 4.3720
 1.9660	 4.4070
 1.9670	 4.4440
 1.9680	 4.4790
 1.9690	 4.5130
 1.9700	 4.5490
 1.9710	 4.5840
 1.9720	 4.6200
 1.9730	 4.6580
 1.9740	 4.6960
 1.9750	 4.7340
 1.9760	 4.7740
 1.9770	 4.8130
 1.9780	 4.8560
 1.9790	 4.8980
 1.9800	 4.9420
 1.9810	 4.9840
 1.9820	 5.0250
 1.9830	 5.0670
 1.9840	 5.1090
 1.9850	 5.1520
 1.9860	 5.1950
 1.9870	 5.2390
 1.9880	 5.2830
 1.9890	 5.3260
 1.9900	 5.3700
 1.9910	 5.4140
 1.9920	 5.4590
 1.9930	 5.5060
 1.9940	 5.5520
 1.9950	 5.6000
 1.9960	 5.6460
 1.9970	 5.6900
 1.9980	 5.7360
 1.9990	 5.7830
 2.0000	 5.8300
 2.0010	 5.8780
 2.0020	 5.9240
 2.0030	 5.9680
 2.0040	 6.0140
 2.0050	 6.0600
 2.0060	 6.1080
 2.0070	 6.1540
 2.0080	 6.2030
 2.0090	 6.2490
 2.0100	 6.2940
 2.0110	 6.3380
 2.0120	 6.3790
 2.0130	 6.4240
 2.0140	 6.4680
 2.0150	 6.5090
 2.0160	 6.5520
 2.0170	 6.5910
 2.0180	 6.6310
 2.0190	 6.6710
 2.0200	 6.7090
 2.0210	 6.7450
 2.0220	 6.7840
 2.0230	 6.8220
 2.0240	 6.8600
 2.0250	 6.9010
 2.0260	 6.9380
 2.0270	 6.9720
 2.0280	 7.0060
 2.0290	 7.0400
 2.0300	 7.0730
 2.0310	 7.1060
 2.0320	 7.1390
 2.0330	 7.1720
 2.0340	 7.2050
 2.0350	 7.2340
 2.0360	 7.2620
 2.0370	 7.2900
 2.0380	 7.3140
 2.0390	 7.3390
 2.0400	 7.3670
 2.0410	 7.3940
 2.0420	 7.4220
 2.0430	 7.4500
 2.0440	 7.4770
 2.0450	 7.5070
 2.0460	 7.5310
 2.0470	 7.5520
 2.0480	 7.5740
 2.0490	 7.5910
 2.0500	 7.6130
 2.0510	 7.6380
 2.0520	 7.6600
 2.0530	 7.6830
 2.0540	 7.7070
 2.0550	 7.7300
 2.0560	 7.7530
 2.0570	 7.7770
 2.0580	 7.7990
 2.0590	 7.8220
 2.0600	 7.8420
 2.0610	 7.8640
 2.0620	 7.8890
 2.0630	 7.9110
 2.0640	 7.9310
 2.0650	 7.9530
 2.0660	 7.9720
 2.0670	 7.9930
 2.0680	 8.0160
 2.0690	 8.0390
 2.0700	 8.0650
 2.0710	 8.0880
 2.0720	 8.1090
 2.0730	 8.1310
 2.0740	 8.1530
 2.0750	 8.1730
 2.0760	 8.1950
 2.0770	 8.2190
 2.0780	 8.2430
 2.0790	 8.2680
 2.0800	 8.2900
 2.0810	 8.3120
 2.0820	 8.3340
 2.0830	 8.3520
 2.0840	 8.3730
 2.0850	 8.3960
 2.0860	 8.4170
 2.0870	 8.4370
 2.0880	 8.4570
 2.0890	 8.4800
 2.0900	 8.5030
 2.0910	 8.5260
 2.0920	 8.5520
 2.0930	 8.5760
 2.0940	 8.5980
 2.0950	 8.6220
 2.0960	 8.6500
 2.0970	 8.6750
 2.0980	 8.7010
 2.0990	 8.7240
 2.1000	 8.7450
 2.1010	 8.7680
 2.1020	 8.7900
 2.1030	 8.8140
 2.1040	 8.8400
 2.1050	 8.8640
 2.1060	 8.8880
 2.1070	 8.9110
 2.1080	 8.9370
 2.1090	 8.9650
 2.1100	 8.9910
 2.1110	 9.0200
 2.1120	 9.0450
 2.1130	 9.0660
 2.1140	 9.0910
 2.1150	 9.1180
 2.1160	 9.1450
 2.1170	 9.1750
 2.1180	 9.2030
 2.1190	 9.2270
 2.1200	 9.2530
 2.1210	 9.2780
 2.1220	 9.3040
 2.1230	 9.3320
 2.1240	 9.3630
 2.1250	 9.3900
 2.1260	 9.4160
 2.1270	 9.4400
 2.1280	 9.4580
 2.1290	 9.4840
 2.1300	 9.5150
 2.1310	 9.5410
 2.1320	 9.5680
 2.1330	 9.5950
 2.1340	 9.6170
 2.1350	 9.6430
 2.1360	 9.6750
 2.1370	 9.7030
 2.1380	 9.7310
 2.1390	 9.7570
 2.1400	 9.7820
 2.1410	 9.8070
 2.1420	 9.8340
 2.1430	 9.8600
 2.1440	 9.8880
 2.1450	 9.9200
 2.1460	 9.9490
 2.1470	 9.9780
 2.1480	10.0070
 2.1490	10.0340
 2.1500	10.0620
 2.1510	10.0900
 2.1520	10.1180
 2.1530	10.1480
 2.1540	10.1760
 2.1550	10.2030
 2.1560	10.2300
 2.1570	10.2540
 2.1580	10.2800
 2.1590	10.3050
 2.1600	10.3330
 2.1610	10.3610
 2.1620	10.3880
 2.1630	10.4140
 2.1640	10.4400
 2.1650	10.4650
 2.1660	10.4890
 2.1670	10.5140
 2.1680	10.5400
 2.1690	10.5660
 2.1700	10.5930
 2.1710	10.6160
 2.1720	10.6350
 2.1730	10.6580
 2.1740	10.6790
 2.1750	10.7040
 2.1760	10.7330
 2.1770	10.7610
 2.1780	10.7930
 2.1790	10.8210
 2.1800	10.8520
 2.1810	10.8780
 2.1820	10.9000
 2.1830	10.9190
 2.1840	10.9400
 2.1850	10.9560
 2.1860	10.9790
 2.1870	11.0080
 2.1880	11.0330
 2.1890	11.0600
 2.1900	11.0860
 2.1910	11.1090
 2.1920	11.1340
 2.1930	11.1610
 2.1940	11.1840
 2.1950	11.2060
 2.1960	11.2260
 2.1970	11.2420
 2.1980	11.2610
 2.1990	11.2820
 2.2000	11.3030
 2.2010	11.3280
 2.2020	11.3490
 2.2030	11.3680
 2.2040	11.3860
 2.2050	11.4040
 2.2060	11.4190
 2.2070	11.4340
 2.2080	11.4490
 2.2090	11.4630
 2.2100	11.4760
 2.2110	11.4850
 2.2120	11.4890
 2.2130	11.4960
 2.2140	11.5010
 2.2150	11.5050
 2.2160	11.5120
 2.2170	11.5150
 2.2180	11.5150
 2.2190	11.5130
 2.2200	11.5080
 2.2210	11.5030
 2.2220	11.4950
 2.2230	11.4860
 2.2240	11.4770
 2.2250	11.4660
 2.2260	11.4560
 2.2270	11.4400
 2.2280	11.4220
 2.2290	11.4010
 2.2300	11.3740
 2.2310	11.3460
 2.2320	11.3170
 2.2330	11.2870
 2.2340	11.2540
 2.2350	11.2190
 2.2360	11.1820
 2.2370	11.1410
 2.2380	11.0970
 2.2390	11.0510
 2.2400	11.0020
 2.2410	10.9500
 2.2420	10.8990
 2.2430	10.8470
 2.2440	10.7960
 2.2450	10.7480
 2.2460	10.6960
 2.2470	10.6440
 2.2480	10.5880
 2.2490	10.5280
 2.2500	10.4690
 2.2510	10.4120
 2.2520	10.3500
 2.2530	10.2860
 2.2540	10.2210
 2.2550	10.1480
 2.2560	10.0800
 2.2570	10.0160
 2.2580	 9.9490
 2.2590	 9.8800
 2.2600	 9.8130
 2.2610	 9.7430
 2.2620	 9.6750
 2.2630	 9.6120
 2.2640	 9.5490
 2.2650	 9.4850
 2.2660	 9.4220
 2.2670	 9.3640
 2.2680	 9.3080
 2.2690	 9.2520
 2.2700	 9.1990
 2.2710	 9.1480
 2.2720	 9.0960
 2.2730	 9.0500
 2.2740	 9.0100
 2.2750	 8.9690
 2.2760	 8.9310
 2.2770	 8.8920
 2.2780	 8.8550
 2.2790	 8.8180
 2.2800	 8.7810
 2.2810	 8.7470
 2.2820	 8.7160
 2.2830	 8.6830
 2.2840	 8.6520
 2.2850	 8.6210
 2.2860	 8.5900
 2.2870	 8.5570
 2.2880	 8.5240
 2.2890	 8.4880
 2.2900	 8.4480
 2.2910	 8.4080
 2.2920	 8.3670
 2.2930	 8.3230
 2.2940	 8.2730
 2.2950	 8.2290
 2.2960	 8.1880
 2.2970	 8.1460
 2.2980	 8.1090
 2.2990	 8.0720
 2.3000	 8.0300
 2.3010	 7.9900
 2.3020	 7.9560
 2.3030	 7.9210
 2.3040	 7.8830
 2.3050	 7.8470
 2.3060	 7.8120
 2.3070	 7.7800
 2.3080	 7.7530
 2.3090	 7.7310
 2.3100	 7.7080
 2.3110	 7.6870
 2.3120	 7.6730
 2.3130	 7.6660
 2.3140	 7.6600
 2.3150	 7.6620
 2.3160	 7.6570
 2.3170	 7.6480
 2.3180	 7.6460
 2.3190	 7.6460
 2.3200	 7.6430
 2.3210	 7.6480
 2.3220	 7.6390
 2.3230	 7.6170
 2.3240	 7.6030
 2.3250	 7.5870
 2.3260	 7.5690
 2.3270	 7.5560
 2.3280	 7.5350
 2.3290	 7.5050
 2.3300	 7.4780
 2.3310	 7.4470
 2.3320	 7.4190
 2.3330	 7.3940
 2.3340	 7.3670
 2.3350	 7.3370
 2.3360	 7.3080
 2.3370	 7.2790
 2.3380	 7.2490
 2.3390	 7.2230
 2.3400	 7.1900
 2.3410	 7.1490
 2.3420	 7.1130
 2.3430	 7.0730
 2.3440	 7.0400
 2.3450	 7.0150
 2.3460	 6.9880
 2.3470	 6.9640
 2.3480	 6.9390
 2.3490	 6.9100
 2.3500	 6.8870
 2.3510	 6.8650
 2.3520	 6.8450
 2.3530	 6.8290
 2.3540	 6.8150
 2.3550	 6.8040
 2.3560	 6.7890
 2.3570	 6.7710
 2.3580	 6.7540
 2.3590	 6.7380
 2.3600	 6.7190
 2.3610	 6.7000
 2.3620	 6.6870
 2.3630	 6.6660
 2.3640	 6.6480
 2.3650	 6.6290
 2.3660	 6.6020
 2.3670	 6.5820
 2.3680	 6.5570
 2.3690	 6.5360
 2.3700	 6.5190
 2.3710	 6.4940
 2.3720	 6.4700
 2.3730	 6.4480
 2.3740	 6.4280
 2.3750	 6.4020
 2.3760	 6.3760
 2.3770	 6.3420
 2.3780	 6.2980
 2.3790	 6.2660
 2.3800	 6.2380
 2.3810	 6.2130
 2.3820	 6.1970
 2.3830	 6.1820
 2.3840	 6.1680
 2.3850	 6.1550
 2.3860	 6.1350
 2.3870	 6.1060
 2.3880	 6.0750
 2.3890	 6.0430
 2.3900	 6.0120
 2.3910	 5.9930
 2.3920	 5.9830
 2.3930	 5.9650
 2.3940	 5.9460
 2.3950	 5.9260
 2.3960	 5.8970
 2.3970	 5.8670
 2.3980	 5.8460
 2.3990	 5.8210
 2.4000	 5.7880
 2.4010	 5.7610
 2.4020	 5.7430
 2.4030	 5.7150
 2.4040	 5.6830
 2.4050	 5.6550
 2.4060	 5.6180
 2.4070	 5.5880
 2.4080	 5.5620
 2.4090	 5.5320
 2.4100	 5.5070
 2.4110	 5.4840
 2.4120	 5.4620
 2.4130	 5.4350
 2.4140	 5.4070
 2.4150	 5.3820
 2.4160	 5.3530
 2.4170	 5.3350
 2.4180	 5.3170
 2.4190	 5.2840
 2.4200	 5.2550
 2.4210	 5.2170
 2.4220	 5.1810
 2.4230	 5.1570
 2.4240	 5.1270
 2.4250	 5.0990
 2.4260	 5.0680
 2.4270	 5.0280
 2.4280	 4.9840
 2.4290	 4.9480
 2.4300	 4.9180
 2.4310	 4.8920
 2.4320	 4.8790
 2.4330	 4.8580
 2.4340	 4.8320
 2.4350	 4.8240
 2.4360	 4.8120
 2.4370	 4.7880
 2.4380	 4.7550
 2.4390	 4.7000
 2.4400	 4.6430
 2.4410	 4.6060
 2.4420	 4.5830
 2.4430	 4.5640
 2.4440	 4.5410
 2.4450	 4.5130
 2.4460	 4.4870
 2.4470	 4.4530
 2.4480	 4.4090
 2.4490	 4.3650
 2.4500	 4.3230
 2.4510	 4.3080
 2.4520	 4.2980
 2.4530	 4.2770
 2.4540	 4.2590
 2.4550	 4.2310
 2.4560	 4.1970
 2.4570	 4.1840
 2.4580	 4.1790
 2.4590	 4.1550
 2.4600	 4.1340
 2.4610	 4.1220
 2.4620	 4.1030
 2.4630	 4.0900
 2.4640	 4.0750
 2.4650	 4.0420
 2.4660	 4.0100
 2.4670	 3.9660
 2.4680	 3.9230
 2.4690	 3.9020
 2.4700	 3.8840
 2.4710	 3.8780
 2.4720	 3.8670
 2.4730	 3.8590
 2.4740	 3.8380
 2.4750	 3.8060
 2.4760	 3.7850
 2.4770	 3.7600
 2.4780	 3.7490
 2.4790	 3.7470
 2.4800	 3.7400
 2.4810	 3.7460
 2.4820	 3.7350
 2.4830	 3.7300
 2.4840	 3.7310
 2.4850	 3.7050
 2.4860	 3.6820
 2.4870	 3.6650
 2.4880	 3.6590
 2.4890	 3.6630
 2.4900	 3.6240
 2.4910	 3.6170
 2.4920	 3.6150
 2.4930	 3.5850
 2.4940	 3.6230
 2.4950	 3.6360
 2.4960	 3.6180
 2.4970	 3.6320
 2.4980	 3.6210
 2.4990	 3.6300
 2.5000	 3.6300
