Name: Melateuca lanceolata
Type: vegetation
Class: Tree
Genus: Melateuca
Species: lanceolata
Sample No.: JPL223
Owner: JPL
Wavelength Range: VSWIR
Origin: 34.12436; -118.1144; WGS84
Collection Date: 10/3/2016
Description: Samples were collected at the Huntington Garden in San Marino California as part of a JPL Subcontract studying HyTES imagery. Samples were taken to JPL and processed within 48 hours of collection. The same leaves were processed in the Nicolet and then measured using the ASD.
Measurement: Bidirectional reflectance
First Column: X
Second Column: Y
X Units: Wavelength (micrometer)
Y Units: Reflectance (percentage)
First X Value: 0.35
Last X Value: 2.5
Number of X Values: 2151
Additional Information: vegetation.tree.melateuca.lanceolata.vswir.jpl223.jpl.asd.ancillary.txt

 0.3500	 3.0340
 0.3510	 3.1040
 0.3520	 3.2100
 0.3530	 3.2040
 0.3540	 3.0280
 0.3550	 2.9390
 0.3560	 2.9990
 0.3570	 3.0930
 0.3580	 3.0500
 0.3590	 2.9960
 0.3600	 2.9780
 0.3610	 2.9820
 0.3620	 2.9140
 0.3630	 2.9480
 0.3640	 2.9700
 0.3650	 2.8780
 0.3660	 2.9110
 0.3670	 2.9470
 0.3680	 2.9200
 0.3690	 2.8220
 0.3700	 2.8780
 0.3710	 2.9390
 0.3720	 2.9140
 0.3730	 2.9220
 0.3740	 2.8910
 0.3750	 2.8380
 0.3760	 2.8130
 0.3770	 2.8650
 0.3780	 2.8870
 0.3790	 2.8720
 0.3800	 2.9020
 0.3810	 2.9250
 0.3820	 2.9270
 0.3830	 2.9070
 0.3840	 2.8710
 0.3850	 2.8210
 0.3860	 2.8010
 0.3870	 2.8510
 0.3880	 2.8930
 0.3890	 2.9250
 0.3900	 2.9410
 0.3910	 2.9250
 0.3920	 2.8810
 0.3930	 2.8580
 0.3940	 2.8810
 0.3950	 2.9000
 0.3960	 2.9140
 0.3970	 2.9290
 0.3980	 2.9540
 0.3990	 2.9490
 0.4000	 2.9490
 0.4010	 2.9640
 0.4020	 2.9680
 0.4030	 2.9910
 0.4040	 2.9960
 0.4050	 2.9590
 0.4060	 2.9570
 0.4070	 2.9690
 0.4080	 2.9840
 0.4090	 2.9980
 0.4100	 3.0190
 0.4110	 3.0350
 0.4120	 3.0400
 0.4130	 3.0370
 0.4140	 3.0330
 0.4150	 3.0400
 0.4160	 3.0620
 0.4170	 3.0830
 0.4180	 3.1040
 0.4190	 3.1200
 0.4200	 3.1280
 0.4210	 3.1300
 0.4220	 3.1350
 0.4230	 3.1500
 0.4240	 3.1730
 0.4250	 3.1870
 0.4260	 3.1950
 0.4270	 3.2090
 0.4280	 3.2210
 0.4290	 3.2360
 0.4300	 3.2510
 0.4310	 3.2540
 0.4320	 3.2730
 0.4330	 3.2960
 0.4340	 3.3060
 0.4350	 3.3140
 0.4360	 3.3350
 0.4370	 3.3620
 0.4380	 3.3720
 0.4390	 3.3870
 0.4400	 3.4060
 0.4410	 3.4250
 0.4420	 3.4430
 0.4430	 3.4630
 0.4440	 3.4840
 0.4450	 3.5010
 0.4460	 3.5240
 0.4470	 3.5500
 0.4480	 3.5780
 0.4490	 3.6060
 0.4500	 3.6340
 0.4510	 3.6590
 0.4520	 3.6780
 0.4530	 3.6900
 0.4540	 3.7050
 0.4550	 3.7310
 0.4560	 3.7660
 0.4570	 3.7840
 0.4580	 3.7950
 0.4590	 3.8100
 0.4600	 3.8330
 0.4610	 3.8520
 0.4620	 3.8690
 0.4630	 3.8900
 0.4640	 3.9040
 0.4650	 3.9110
 0.4660	 3.9180
 0.4670	 3.9360
 0.4680	 3.9490
 0.4690	 3.9610
 0.4700	 3.9750
 0.4710	 3.9860
 0.4720	 3.9980
 0.4730	 4.0120
 0.4740	 4.0270
 0.4750	 4.0350
 0.4760	 4.0450
 0.4770	 4.0570
 0.4780	 4.0680
 0.4790	 4.0710
 0.4800	 4.0760
 0.4810	 4.0920
 0.4820	 4.1080
 0.4830	 4.1270
 0.4840	 4.1470
 0.4850	 4.1650
 0.4860	 4.1780
 0.4870	 4.1960
 0.4880	 4.2210
 0.4890	 4.2390
 0.4900	 4.2610
 0.4910	 4.2870
 0.4920	 4.3120
 0.4930	 4.3420
 0.4940	 4.3780
 0.4950	 4.4190
 0.4960	 4.4580
 0.4970	 4.5030
 0.4980	 4.5520
 0.4990	 4.6020
 0.5000	 4.6580
 0.5010	 4.7210
 0.5020	 4.7880
 0.5030	 4.8600
 0.5040	 4.9360
 0.5050	 5.0170
 0.5060	 5.1060
 0.5070	 5.2080
 0.5080	 5.3150
 0.5090	 5.4240
 0.5100	 5.5370
 0.5110	 5.6680
 0.5120	 5.8100
 0.5130	 5.9570
 0.5140	 6.1070
 0.5150	 6.2660
 0.5160	 6.4330
 0.5170	 6.6060
 0.5180	 6.7960
 0.5190	 6.9870
 0.5200	 7.1760
 0.5210	 7.3720
 0.5220	 7.5680
 0.5230	 7.7620
 0.5240	 7.9530
 0.5250	 8.1400
 0.5260	 8.3190
 0.5270	 8.4890
 0.5280	 8.6480
 0.5290	 8.7990
 0.5300	 8.9410
 0.5310	 9.0720
 0.5320	 9.1930
 0.5330	 9.3040
 0.5340	 9.4050
 0.5350	 9.4990
 0.5360	 9.5810
 0.5370	 9.6530
 0.5380	 9.7220
 0.5390	 9.7920
 0.5400	 9.8670
 0.5410	 9.9450
 0.5420	10.0190
 0.5430	10.0800
 0.5440	10.1250
 0.5450	10.1550
 0.5460	10.1710
 0.5470	10.1770
 0.5480	10.1820
 0.5490	10.1890
 0.5500	10.1990
 0.5510	10.2070
 0.5520	10.2090
 0.5530	10.2010
 0.5540	10.1770
 0.5550	10.1440
 0.5560	10.1040
 0.5570	10.0560
 0.5580	 9.9970
 0.5590	 9.9320
 0.5600	 9.8620
 0.5610	 9.7870
 0.5620	 9.7070
 0.5630	 9.6230
 0.5640	 9.5350
 0.5650	 9.4450
 0.5660	 9.3500
 0.5670	 9.2490
 0.5680	 9.1440
 0.5690	 9.0370
 0.5700	 8.9290
 0.5710	 8.8180
 0.5720	 8.7070
 0.5730	 8.6020
 0.5740	 8.5040
 0.5750	 8.4150
 0.5760	 8.3300
 0.5770	 8.2500
 0.5780	 8.1760
 0.5790	 8.1050
 0.5800	 8.0360
 0.5810	 7.9690
 0.5820	 7.9090
 0.5830	 7.8560
 0.5840	 7.8050
 0.5850	 7.7520
 0.5860	 7.7070
 0.5870	 7.6620
 0.5880	 7.6170
 0.5890	 7.5730
 0.5900	 7.5330
 0.5910	 7.5020
 0.5920	 7.4780
 0.5930	 7.4530
 0.5940	 7.4300
 0.5950	 7.4070
 0.5960	 7.3850
 0.5970	 7.3660
 0.5980	 7.3470
 0.5990	 7.3270
 0.6000	 7.3030
 0.6010	 7.2810
 0.6020	 7.2540
 0.6030	 7.2210
 0.6040	 7.1850
 0.6050	 7.1460
 0.6060	 7.1020
 0.6070	 7.0550
 0.6080	 7.0070
 0.6090	 6.9620
 0.6100	 6.9240
 0.6110	 6.8910
 0.6120	 6.8360
 0.6130	 6.7680
 0.6140	 6.6960
 0.6150	 6.6340
 0.6160	 6.5750
 0.6170	 6.5220
 0.6180	 6.4790
 0.6190	 6.4380
 0.6200	 6.4030
 0.6210	 6.3720
 0.6220	 6.3420
 0.6230	 6.3160
 0.6240	 6.2930
 0.6250	 6.2710
 0.6260	 6.2570
 0.6270	 6.2460
 0.6280	 6.2380
 0.6290	 6.2330
 0.6300	 6.2290
 0.6310	 6.2240
 0.6320	 6.2150
 0.6330	 6.1980
 0.6340	 6.1780
 0.6350	 6.1520
 0.6360	 6.1210
 0.6370	 6.0880
 0.6380	 6.0450
 0.6390	 5.9950
 0.6400	 5.9430
 0.6410	 5.8900
 0.6420	 5.8350
 0.6430	 5.7770
 0.6440	 5.7190
 0.6450	 5.6600
 0.6460	 5.6030
 0.6470	 5.5490
 0.6480	 5.5020
 0.6490	 5.4590
 0.6500	 5.4220
 0.6510	 5.3930
 0.6520	 5.3650
 0.6530	 5.3390
 0.6540	 5.3140
 0.6550	 5.2890
 0.6560	 5.2600
 0.6570	 5.2270
 0.6580	 5.1910
 0.6590	 5.1460
 0.6600	 5.1020
 0.6610	 5.0600
 0.6620	 5.0150
 0.6630	 4.9710
 0.6640	 4.9330
 0.6650	 4.9000
 0.6660	 4.8720
 0.6670	 4.8480
 0.6680	 4.8290
 0.6690	 4.8180
 0.6700	 4.8130
 0.6710	 4.8150
 0.6720	 4.8220
 0.6730	 4.8360
 0.6740	 4.8540
 0.6750	 4.8770
 0.6760	 4.9050
 0.6770	 4.9380
 0.6780	 4.9750
 0.6790	 5.0180
 0.6800	 5.0670
 0.6810	 5.1260
 0.6820	 5.1930
 0.6830	 5.2670
 0.6840	 5.3510
 0.6850	 5.4470
 0.6860	 5.5580
 0.6870	 5.6850
 0.6880	 5.8300
 0.6890	 6.0020
 0.6900	 6.2070
 0.6910	 6.4500
 0.6920	 6.7340
 0.6930	 7.0660
 0.6940	 7.4480
 0.6950	 7.8760
 0.6960	 8.3510
 0.6970	 8.8730
 0.6980	 9.4360
 0.6990	10.0360
 0.7000	10.6660
 0.7010	11.3240
 0.7020	12.0040
 0.7030	12.7030
 0.7040	13.4180
 0.7050	14.1460
 0.7060	14.8830
 0.7070	15.6320
 0.7080	16.3880
 0.7090	17.1490
 0.7100	17.9180
 0.7110	18.6960
 0.7120	19.4840
 0.7130	20.2780
 0.7140	21.0760
 0.7150	21.8780
 0.7160	22.6840
 0.7170	23.4940
 0.7180	24.3020
 0.7190	25.1070
 0.7200	25.9130
 0.7210	26.7090
 0.7220	27.4960
 0.7230	28.2710
 0.7240	29.0290
 0.7250	29.7730
 0.7260	30.4970
 0.7270	31.1980
 0.7280	31.8780
 0.7290	32.5330
 0.7300	33.1620
 0.7310	33.7640
 0.7320	34.3420
 0.7330	34.8900
 0.7340	35.4080
 0.7350	35.9010
 0.7360	36.3690
 0.7370	36.8100
 0.7380	37.2240
 0.7390	37.6130
 0.7400	37.9760
 0.7410	38.3160
 0.7420	38.6330
 0.7430	38.9290
 0.7440	39.2010
 0.7450	39.4510
 0.7460	39.6830
 0.7470	39.8950
 0.7480	40.0890
 0.7490	40.2670
 0.7500	40.4300
 0.7510	40.5790
 0.7520	40.7150
 0.7530	40.8380
 0.7540	40.9520
 0.7550	41.0590
 0.7560	41.1560
 0.7570	41.2420
 0.7580	41.3250
 0.7590	41.4030
 0.7600	41.4740
 0.7610	41.5360
 0.7620	41.5950
 0.7630	41.6500
 0.7640	41.7000
 0.7650	41.7450
 0.7660	41.7880
 0.7670	41.8290
 0.7680	41.8640
 0.7690	41.9000
 0.7700	41.9340
 0.7710	41.9650
 0.7720	41.9930
 0.7730	42.0210
 0.7740	42.0510
 0.7750	42.0780
 0.7760	42.1030
 0.7770	42.1300
 0.7780	42.1580
 0.7790	42.1820
 0.7800	42.2050
 0.7810	42.2270
 0.7820	42.2490
 0.7830	42.2710
 0.7840	42.2960
 0.7850	42.3190
 0.7860	42.3380
 0.7870	42.3580
 0.7880	42.3760
 0.7890	42.3940
 0.7900	42.4130
 0.7910	42.4300
 0.7920	42.4450
 0.7930	42.4590
 0.7940	42.4720
 0.7950	42.4840
 0.7960	42.4970
 0.7970	42.5100
 0.7980	42.5180
 0.7990	42.5240
 0.8000	42.5300
 0.8010	42.5380
 0.8020	42.5470
 0.8030	42.5530
 0.8040	42.5590
 0.8050	42.5640
 0.8060	42.5670
 0.8070	42.5670
 0.8080	42.5660
 0.8090	42.5700
 0.8100	42.5720
 0.8110	42.5730
 0.8120	42.5730
 0.8130	42.5710
 0.8140	42.5670
 0.8150	42.5630
 0.8160	42.5620
 0.8170	42.5590
 0.8180	42.5560
 0.8190	42.5550
 0.8200	42.5540
 0.8210	42.5490
 0.8220	42.5430
 0.8230	42.5370
 0.8240	42.5320
 0.8250	42.5270
 0.8260	42.5220
 0.8270	42.5150
 0.8280	42.5080
 0.8290	42.5020
 0.8300	42.4950
 0.8310	42.4860
 0.8320	42.4800
 0.8330	42.4760
 0.8340	42.4700
 0.8350	42.4640
 0.8360	42.4640
 0.8370	42.4660
 0.8380	42.4670
 0.8390	42.4680
 0.8400	42.4670
 0.8410	42.4690
 0.8420	42.4730
 0.8430	42.4750
 0.8440	42.4770
 0.8450	42.4810
 0.8460	42.4860
 0.8470	42.4910
 0.8480	42.4950
 0.8490	42.5010
 0.8500	42.5090
 0.8510	42.5160
 0.8520	42.5240
 0.8530	42.5320
 0.8540	42.5400
 0.8550	42.5500
 0.8560	42.5590
 0.8570	42.5670
 0.8580	42.5750
 0.8590	42.5850
 0.8600	42.5950
 0.8610	42.6030
 0.8620	42.6140
 0.8630	42.6290
 0.8640	42.6420
 0.8650	42.6510
 0.8660	42.6640
 0.8670	42.6750
 0.8680	42.6860
 0.8690	42.7020
 0.8700	42.7180
 0.8710	42.7310
 0.8720	42.7420
 0.8730	42.7500
 0.8740	42.7650
 0.8750	42.7830
 0.8760	42.7990
 0.8770	42.8080
 0.8780	42.8220
 0.8790	42.8380
 0.8800	42.8540
 0.8810	42.8650
 0.8820	42.8730
 0.8830	42.8840
 0.8840	42.9000
 0.8850	42.9120
 0.8860	42.9250
 0.8870	42.9390
 0.8880	42.9530
 0.8890	42.9620
 0.8900	42.9700
 0.8910	42.9800
 0.8920	42.9950
 0.8930	43.0050
 0.8940	43.0160
 0.8950	43.0270
 0.8960	43.0360
 0.8970	43.0460
 0.8980	43.0540
 0.8990	43.0610
 0.9000	43.0740
 0.9010	43.0810
 0.9020	43.0850
 0.9030	43.0920
 0.9040	43.1020
 0.9050	43.1080
 0.9060	43.1160
 0.9070	43.1290
 0.9080	43.1330
 0.9090	43.1410
 0.9100	43.1500
 0.9110	43.1560
 0.9120	43.1600
 0.9130	43.1670
 0.9140	43.1770
 0.9150	43.1880
 0.9160	43.1840
 0.9170	43.1850
 0.9180	43.1890
 0.9190	43.1920
 0.9200	43.1960
 0.9210	43.1950
 0.9220	43.1890
 0.9230	43.1840
 0.9240	43.1740
 0.9250	43.1750
 0.9260	43.1760
 0.9270	43.1540
 0.9280	43.1440
 0.9290	43.1350
 0.9300	43.1190
 0.9310	43.0950
 0.9320	43.0780
 0.9330	43.0600
 0.9340	43.0360
 0.9350	43.0060
 0.9360	42.9830
 0.9370	42.9600
 0.9380	42.9330
 0.9390	42.8990
 0.9400	42.8700
 0.9410	42.8350
 0.9420	42.7900
 0.9430	42.7550
 0.9440	42.7120
 0.9450	42.6630
 0.9460	42.6150
 0.9470	42.5580
 0.9480	42.5020
 0.9490	42.4440
 0.9500	42.3770
 0.9510	42.3070
 0.9520	42.2290
 0.9530	42.1490
 0.9540	42.0720
 0.9550	41.9820
 0.9560	41.9060
 0.9570	41.8370
 0.9580	41.7610
 0.9590	41.7000
 0.9600	41.6380
 0.9610	41.5780
 0.9620	41.5250
 0.9630	41.4650
 0.9640	41.4230
 0.9650	41.3840
 0.9660	41.3350
 0.9670	41.3070
 0.9680	41.2870
 0.9690	41.2670
 0.9700	41.2450
 0.9710	41.2180
 0.9720	41.1990
 0.9730	41.1900
 0.9740	41.1820
 0.9750	41.1620
 0.9760	41.1570
 0.9770	41.1580
 0.9780	41.1460
 0.9790	41.1380
 0.9800	41.1330
 0.9810	41.1300
 0.9820	41.1330
 0.9830	41.1390
 0.9840	41.1460
 0.9850	41.1510
 0.9860	41.1550
 0.9870	41.1610
 0.9880	41.1870
 0.9890	41.2140
 0.9900	41.2180
 0.9910	41.2280
 0.9920	41.2470
 0.9930	41.2660
 0.9940	41.2770
 0.9950	41.2950
 0.9960	41.3110
 0.9970	41.3290
 0.9980	41.3590
 0.9990	41.4020
 1.0000	41.4240
 1.0010	42.6390
 1.0020	42.6700
 1.0030	42.7010
 1.0040	42.7320
 1.0050	42.7660
 1.0060	42.7960
 1.0070	42.8260
 1.0080	42.8570
 1.0090	42.8880
 1.0100	42.9180
 1.0110	42.9490
 1.0120	42.9810
 1.0130	43.0090
 1.0140	43.0420
 1.0150	43.0790
 1.0160	43.1130
 1.0170	43.1440
 1.0180	43.1760
 1.0190	43.2040
 1.0200	43.2310
 1.0210	43.2610
 1.0220	43.2910
 1.0230	43.3220
 1.0240	43.3550
 1.0250	43.3870
 1.0260	43.4200
 1.0270	43.4510
 1.0280	43.4790
 1.0290	43.5090
 1.0300	43.5390
 1.0310	43.5690
 1.0320	43.5980
 1.0330	43.6270
 1.0340	43.6600
 1.0350	43.6900
 1.0360	43.7180
 1.0370	43.7490
 1.0380	43.7760
 1.0390	43.7980
 1.0400	43.8230
 1.0410	43.8480
 1.0420	43.8740
 1.0430	43.9010
 1.0440	43.9260
 1.0450	43.9530
 1.0460	43.9770
 1.0470	44.0010
 1.0480	44.0230
 1.0490	44.0430
 1.0500	44.0630
 1.0510	44.0830
 1.0520	44.1020
 1.0530	44.1180
 1.0540	44.1320
 1.0550	44.1480
 1.0560	44.1610
 1.0570	44.1770
 1.0580	44.1980
 1.0590	44.2120
 1.0600	44.2220
 1.0610	44.2350
 1.0620	44.2460
 1.0630	44.2580
 1.0640	44.2730
 1.0650	44.2840
 1.0660	44.2880
 1.0670	44.2950
 1.0680	44.3010
 1.0690	44.3070
 1.0700	44.3120
 1.0710	44.3200
 1.0720	44.3240
 1.0730	44.3260
 1.0740	44.3280
 1.0750	44.3320
 1.0760	44.3320
 1.0770	44.3320
 1.0780	44.3300
 1.0790	44.3220
 1.0800	44.3180
 1.0810	44.3140
 1.0820	44.3110
 1.0830	44.3120
 1.0840	44.3100
 1.0850	44.3080
 1.0860	44.3040
 1.0870	44.2970
 1.0880	44.2880
 1.0890	44.2790
 1.0900	44.2690
 1.0910	44.2590
 1.0920	44.2520
 1.0930	44.2390
 1.0940	44.2240
 1.0950	44.2110
 1.0960	44.1970
 1.0970	44.1840
 1.0980	44.1740
 1.0990	44.1610
 1.1000	44.1440
 1.1010	44.1270
 1.1020	44.1090
 1.1030	44.0900
 1.1040	44.0730
 1.1050	44.0550
 1.1060	44.0360
 1.1070	44.0150
 1.1080	43.9960
 1.1090	43.9760
 1.1100	43.9540
 1.1110	43.9330
 1.1120	43.9080
 1.1130	43.8780
 1.1140	43.8490
 1.1150	43.8200
 1.1160	43.7870
 1.1170	43.7530
 1.1180	43.7150
 1.1190	43.6740
 1.1200	43.6310
 1.1210	43.5860
 1.1220	43.5360
 1.1230	43.4830
 1.1240	43.4230
 1.1250	43.3570
 1.1260	43.2860
 1.1270	43.2050
 1.1280	43.1180
 1.1290	43.0220
 1.1300	42.9190
 1.1310	42.8040
 1.1320	42.6810
 1.1330	42.5470
 1.1340	42.4020
 1.1350	42.2480
 1.1360	42.0850
 1.1370	41.9120
 1.1380	41.7310
 1.1390	41.5440
 1.1400	41.3510
 1.1410	41.1550
 1.1420	40.9560
 1.1430	40.7540
 1.1440	40.5540
 1.1450	40.3500
 1.1460	40.1520
 1.1470	39.9520
 1.1480	39.7620
 1.1490	39.5760
 1.1500	39.4010
 1.1510	39.2330
 1.1520	39.0750
 1.1530	38.9240
 1.1540	38.7850
 1.1550	38.6550
 1.1560	38.5350
 1.1570	38.4240
 1.1580	38.3230
 1.1590	38.2310
 1.1600	38.1470
 1.1610	38.0680
 1.1620	37.9960
 1.1630	37.9280
 1.1640	37.8650
 1.1650	37.8060
 1.1660	37.7530
 1.1670	37.7020
 1.1680	37.6560
 1.1690	37.6100
 1.1700	37.5670
 1.1710	37.5240
 1.1720	37.4830
 1.1730	37.4410
 1.1740	37.3990
 1.1750	37.3580
 1.1760	37.3180
 1.1770	37.2780
 1.1780	37.2370
 1.1790	37.1970
 1.1800	37.1560
 1.1810	37.1180
 1.1820	37.0810
 1.1830	37.0460
 1.1840	37.0130
 1.1850	36.9820
 1.1860	36.9530
 1.1870	36.9280
 1.1880	36.9060
 1.1890	36.8880
 1.1900	36.8720
 1.1910	36.8610
 1.1920	36.8510
 1.1930	36.8450
 1.1940	36.8410
 1.1950	36.8390
 1.1960	36.8410
 1.1970	36.8450
 1.1980	36.8500
 1.1990	36.8590
 1.2000	36.8700
 1.2010	36.8850
 1.2020	36.9020
 1.2030	36.9230
 1.2040	36.9480
 1.2050	36.9760
 1.2060	37.0060
 1.2070	37.0390
 1.2080	37.0740
 1.2090	37.1120
 1.2100	37.1510
 1.2110	37.1920
 1.2120	37.2360
 1.2130	37.2810
 1.2140	37.3280
 1.2150	37.3760
 1.2160	37.4250
 1.2170	37.4760
 1.2180	37.5250
 1.2190	37.5770
 1.2200	37.6290
 1.2210	37.6820
 1.2220	37.7350
 1.2230	37.7870
 1.2240	37.8390
 1.2250	37.8890
 1.2260	37.9370
 1.2270	37.9880
 1.2280	38.0360
 1.2290	38.0830
 1.2300	38.1290
 1.2310	38.1720
 1.2320	38.2140
 1.2330	38.2560
 1.2340	38.2960
 1.2350	38.3360
 1.2360	38.3730
 1.2370	38.4070
 1.2380	38.4380
 1.2390	38.4690
 1.2400	38.5010
 1.2410	38.5350
 1.2420	38.5660
 1.2430	38.5960
 1.2440	38.6250
 1.2450	38.6510
 1.2460	38.6790
 1.2470	38.7050
 1.2480	38.7300
 1.2490	38.7550
 1.2500	38.7790
 1.2510	38.8020
 1.2520	38.8240
 1.2530	38.8440
 1.2540	38.8610
 1.2550	38.8780
 1.2560	38.8960
 1.2570	38.9110
 1.2580	38.9240
 1.2590	38.9350
 1.2600	38.9430
 1.2610	38.9520
 1.2620	38.9590
 1.2630	38.9670
 1.2640	38.9750
 1.2650	38.9790
 1.2660	38.9810
 1.2670	38.9820
 1.2680	38.9830
 1.2690	38.9820
 1.2700	38.9800
 1.2710	38.9780
 1.2720	38.9750
 1.2730	38.9700
 1.2740	38.9650
 1.2750	38.9570
 1.2760	38.9470
 1.2770	38.9370
 1.2780	38.9230
 1.2790	38.9080
 1.2800	38.8910
 1.2810	38.8730
 1.2820	38.8530
 1.2830	38.8310
 1.2840	38.8060
 1.2850	38.7780
 1.2860	38.7480
 1.2870	38.7150
 1.2880	38.6800
 1.2890	38.6420
 1.2900	38.6010
 1.2910	38.5570
 1.2920	38.5090
 1.2930	38.4580
 1.2940	38.4060
 1.2950	38.3500
 1.2960	38.2920
 1.2970	38.2330
 1.2980	38.1680
 1.2990	38.1010
 1.3000	38.0300
 1.3010	37.9560
 1.3020	37.8790
 1.3030	37.8000
 1.3040	37.7160
 1.3050	37.6270
 1.3060	37.5360
 1.3070	37.4410
 1.3080	37.3430
 1.3090	37.2430
 1.3100	37.1420
 1.3110	37.0380
 1.3120	36.9300
 1.3130	36.8170
 1.3140	36.7000
 1.3150	36.5780
 1.3160	36.4520
 1.3170	36.3220
 1.3180	36.1890
 1.3190	36.0520
 1.3200	35.9130
 1.3210	35.7720
 1.3220	35.6280
 1.3230	35.4800
 1.3240	35.3290
 1.3250	35.1750
 1.3260	35.0160
 1.3270	34.8560
 1.3280	34.6930
 1.3290	34.5260
 1.3300	34.3590
 1.3310	34.1900
 1.3320	34.0180
 1.3330	33.8470
 1.3340	33.6750
 1.3350	33.5010
 1.3360	33.3280
 1.3370	33.1520
 1.3380	32.9770
 1.3390	32.8030
 1.3400	32.6310
 1.3410	32.4610
 1.3420	32.2930
 1.3430	32.1260
 1.3440	31.9610
 1.3450	31.7970
 1.3460	31.6340
 1.3470	31.4760
 1.3480	31.3190
 1.3490	31.1660
 1.3500	31.0150
 1.3510	30.8680
 1.3520	30.7190
 1.3530	30.5730
 1.3540	30.4270
 1.3550	30.2810
 1.3560	30.1360
 1.3570	29.9910
 1.3580	29.8450
 1.3590	29.6980
 1.3600	29.5490
 1.3610	29.3990
 1.3620	29.2430
 1.3630	29.0840
 1.3640	28.9200
 1.3650	28.7480
 1.3660	28.5710
 1.3670	28.3860
 1.3680	28.1920
 1.3690	27.9890
 1.3700	27.7740
 1.3710	27.5470
 1.3720	27.3090
 1.3730	27.0560
 1.3740	26.7890
 1.3750	26.5070
 1.3760	26.2070
 1.3770	25.8900
 1.3780	25.5510
 1.3790	25.1940
 1.3800	24.8190
 1.3810	24.4230
 1.3820	24.0140
 1.3830	23.5910
 1.3840	23.1560
 1.3850	22.7060
 1.3860	22.2490
 1.3870	21.7760
 1.3880	21.3070
 1.3890	20.8310
 1.3900	20.3510
 1.3910	19.8770
 1.3920	19.4050
 1.3930	18.9340
 1.3940	18.4710
 1.3950	18.0120
 1.3960	17.5640
 1.3970	17.1290
 1.3980	16.7050
 1.3990	16.3020
 1.4000	15.9130
 1.4010	15.5380
 1.4020	15.1830
 1.4030	14.8410
 1.4040	14.5160
 1.4050	14.2100
 1.4060	13.9200
 1.4070	13.6500
 1.4080	13.3970
 1.4090	13.1580
 1.4100	12.9350
 1.4110	12.7260
 1.4120	12.5300
 1.4130	12.3500
 1.4140	12.1810
 1.4150	12.0270
 1.4160	11.8830
 1.4170	11.7490
 1.4180	11.6260
 1.4190	11.5110
 1.4200	11.4040
 1.4210	11.3050
 1.4220	11.2140
 1.4230	11.1310
 1.4240	11.0540
 1.4250	10.9820
 1.4260	10.9160
 1.4270	10.8550
 1.4280	10.7990
 1.4290	10.7470
 1.4300	10.7000
 1.4310	10.6570
 1.4320	10.6190
 1.4330	10.5840
 1.4340	10.5520
 1.4350	10.5240
 1.4360	10.4980
 1.4370	10.4750
 1.4380	10.4560
 1.4390	10.4390
 1.4400	10.4250
 1.4410	10.4130
 1.4420	10.4020
 1.4430	10.3940
 1.4440	10.3880
 1.4450	10.3840
 1.4460	10.3810
 1.4470	10.3800
 1.4480	10.3800
 1.4490	10.3820
 1.4500	10.3850
 1.4510	10.3890
 1.4520	10.3940
 1.4530	10.4000
 1.4540	10.4070
 1.4550	10.4160
 1.4560	10.4270
 1.4570	10.4390
 1.4580	10.4530
 1.4590	10.4680
 1.4600	10.4860
 1.4610	10.5070
 1.4620	10.5290
 1.4630	10.5540
 1.4640	10.5830
 1.4650	10.6130
 1.4660	10.6470
 1.4670	10.6830
 1.4680	10.7230
 1.4690	10.7660
 1.4700	10.8110
 1.4710	10.8600
 1.4720	10.9100
 1.4730	10.9640
 1.4740	11.0200
 1.4750	11.0770
 1.4760	11.1380
 1.4770	11.1990
 1.4780	11.2610
 1.4790	11.3270
 1.4800	11.3930
 1.4810	11.4610
 1.4820	11.5300
 1.4830	11.6000
 1.4840	11.6720
 1.4850	11.7440
 1.4860	11.8180
 1.4870	11.8930
 1.4880	11.9670
 1.4890	12.0440
 1.4900	12.1210
 1.4910	12.2000
 1.4920	12.2780
 1.4930	12.3580
 1.4940	12.4380
 1.4950	12.5180
 1.4960	12.6000
 1.4970	12.6810
 1.4980	12.7630
 1.4990	12.8470
 1.5000	12.9300
 1.5010	13.0140
 1.5020	13.0980
 1.5030	13.1830
 1.5040	13.2680
 1.5050	13.3530
 1.5060	13.4380
 1.5070	13.5230
 1.5080	13.6080
 1.5090	13.6940
 1.5100	13.7800
 1.5110	13.8650
 1.5120	13.9510
 1.5130	14.0370
 1.5140	14.1230
 1.5150	14.2100
 1.5160	14.2970
 1.5170	14.3830
 1.5180	14.4690
 1.5190	14.5540
 1.5200	14.6400
 1.5210	14.7240
 1.5220	14.8090
 1.5230	14.8940
 1.5240	14.9770
 1.5250	15.0630
 1.5260	15.1480
 1.5270	15.2330
 1.5280	15.3170
 1.5290	15.3990
 1.5300	15.4800
 1.5310	15.5610
 1.5320	15.6420
 1.5330	15.7230
 1.5340	15.8040
 1.5350	15.8840
 1.5360	15.9650
 1.5370	16.0440
 1.5380	16.1230
 1.5390	16.2020
 1.5400	16.2790
 1.5410	16.3550
 1.5420	16.4320
 1.5430	16.5080
 1.5440	16.5860
 1.5450	16.6620
 1.5460	16.7380
 1.5470	16.8150
 1.5480	16.8890
 1.5490	16.9650
 1.5500	17.0410
 1.5510	17.1150
 1.5520	17.1890
 1.5530	17.2600
 1.5540	17.3310
 1.5550	17.4020
 1.5560	17.4710
 1.5570	17.5420
 1.5580	17.6120
 1.5590	17.6810
 1.5600	17.7500
 1.5610	17.8180
 1.5620	17.8840
 1.5630	17.9510
 1.5640	18.0170
 1.5650	18.0830
 1.5660	18.1480
 1.5670	18.2130
 1.5680	18.2770
 1.5690	18.3400
 1.5700	18.4030
 1.5710	18.4660
 1.5720	18.5280
 1.5730	18.5890
 1.5740	18.6500
 1.5750	18.7120
 1.5760	18.7750
 1.5770	18.8350
 1.5780	18.8950
 1.5790	18.9550
 1.5800	19.0130
 1.5810	19.0730
 1.5820	19.1310
 1.5830	19.1880
 1.5840	19.2450
 1.5850	19.3020
 1.5860	19.3590
 1.5870	19.4180
 1.5880	19.4770
 1.5890	19.5350
 1.5900	19.5920
 1.5910	19.6480
 1.5920	19.7040
 1.5930	19.7580
 1.5940	19.8140
 1.5950	19.8700
 1.5960	19.9240
 1.5970	19.9800
 1.5980	20.0340
 1.5990	20.0860
 1.6000	20.1400
 1.6010	20.1930
 1.6020	20.2450
 1.6030	20.2980
 1.6040	20.3490
 1.6050	20.3990
 1.6060	20.4480
 1.6070	20.4970
 1.6080	20.5460
 1.6090	20.5940
 1.6100	20.6410
 1.6110	20.6860
 1.6120	20.7300
 1.6130	20.7740
 1.6140	20.8180
 1.6150	20.8600
 1.6160	20.9030
 1.6170	20.9420
 1.6180	20.9800
 1.6190	21.0190
 1.6200	21.0540
 1.6210	21.0900
 1.6220	21.1260
 1.6230	21.1590
 1.6240	21.1910
 1.6250	21.2210
 1.6260	21.2490
 1.6270	21.2760
 1.6280	21.2980
 1.6290	21.3210
 1.6300	21.3410
 1.6310	21.3610
 1.6320	21.3800
 1.6330	21.4000
 1.6340	21.4200
 1.6350	21.4400
 1.6360	21.4620
 1.6370	21.4840
 1.6380	21.5040
 1.6390	21.5270
 1.6400	21.5500
 1.6410	21.5720
 1.6420	21.5940
 1.6430	21.6130
 1.6440	21.6300
 1.6450	21.6450
 1.6460	21.6580
 1.6470	21.6690
 1.6480	21.6770
 1.6490	21.6830
 1.6500	21.6860
 1.6510	21.6870
 1.6520	21.6850
 1.6530	21.6790
 1.6540	21.6720
 1.6550	21.6630
 1.6560	21.6500
 1.6570	21.6370
 1.6580	21.6240
 1.6590	21.6090
 1.6600	21.5930
 1.6610	21.5760
 1.6620	21.5580
 1.6630	21.5380
 1.6640	21.5200
 1.6650	21.5020
 1.6660	21.4830
 1.6670	21.4630
 1.6680	21.4400
 1.6690	21.4140
 1.6700	21.3850
 1.6710	21.3530
 1.6720	21.3180
 1.6730	21.2800
 1.6740	21.2390
 1.6750	21.1950
 1.6760	21.1450
 1.6770	21.0940
 1.6780	21.0400
 1.6790	20.9850
 1.6800	20.9290
 1.6810	20.8710
 1.6820	20.8110
 1.6830	20.7500
 1.6840	20.6890
 1.6850	20.6280
 1.6860	20.5660
 1.6870	20.5010
 1.6880	20.4360
 1.6890	20.3700
 1.6900	20.3040
 1.6910	20.2360
 1.6920	20.1690
 1.6930	20.1020
 1.6940	20.0360
 1.6950	19.9700
 1.6960	19.9070
 1.6970	19.8450
 1.6980	19.7840
 1.6990	19.7260
 1.7000	19.6690
 1.7010	19.6120
 1.7020	19.5560
 1.7030	19.5000
 1.7040	19.4450
 1.7050	19.3880
 1.7060	19.3340
 1.7070	19.2810
 1.7080	19.2300
 1.7090	19.1810
 1.7100	19.1320
 1.7110	19.0830
 1.7120	19.0380
 1.7130	18.9950
 1.7140	18.9540
 1.7150	18.9170
 1.7160	18.8810
 1.7170	18.8470
 1.7180	18.8170
 1.7190	18.7890
 1.7200	18.7620
 1.7210	18.7380
 1.7220	18.7150
 1.7230	18.6920
 1.7240	18.6720
 1.7250	18.6530
 1.7260	18.6370
 1.7270	18.6220
 1.7280	18.6070
 1.7290	18.5930
 1.7300	18.5820
 1.7310	18.5680
 1.7320	18.5570
 1.7330	18.5420
 1.7340	18.5250
 1.7350	18.5070
 1.7360	18.4890
 1.7370	18.4670
 1.7380	18.4430
 1.7390	18.4170
 1.7400	18.3880
 1.7410	18.3570
 1.7420	18.3210
 1.7430	18.2850
 1.7440	18.2460
 1.7450	18.2070
 1.7460	18.1680
 1.7470	18.1280
 1.7480	18.0850
 1.7490	18.0450
 1.7500	18.0070
 1.7510	17.9680
 1.7520	17.9280
 1.7530	17.8920
 1.7540	17.8560
 1.7550	17.8220
 1.7560	17.7920
 1.7570	17.7600
 1.7580	17.7310
 1.7590	17.7060
 1.7600	17.6810
 1.7610	17.6580
 1.7620	17.6360
 1.7630	17.6140
 1.7640	17.5940
 1.7650	17.5770
 1.7660	17.5600
 1.7670	17.5450
 1.7680	17.5280
 1.7690	17.5100
 1.7700	17.4930
 1.7710	17.4780
 1.7720	17.4620
 1.7730	17.4490
 1.7740	17.4340
 1.7750	17.4170
 1.7760	17.4020
 1.7770	17.3870
 1.7780	17.3720
 1.7790	17.3580
 1.7800	17.3440
 1.7810	17.3280
 1.7820	17.3160
 1.7830	17.3080
 1.7840	17.3000
 1.7850	17.2930
 1.7860	17.2860
 1.7870	17.2780
 1.7880	17.2720
 1.7890	17.2670
 1.7900	17.2660
 1.7910	17.2650
 1.7920	17.2670
 1.7930	17.2680
 1.7940	17.2690
 1.7950	17.2720
 1.7960	17.2760
 1.7970	17.2820
 1.7980	17.2900
 1.7990	17.2980
 1.8000	17.3050
 1.8010	17.3130
 1.8020	17.3190
 1.8030	17.3270
 1.8040	17.3360
 1.8050	17.3440
 1.8060	17.3530
 1.8070	17.3610
 1.8080	17.3690
 1.8090	17.3780
 1.8100	17.3880
 1.8110	17.3970
 1.8120	17.4040
 1.8130	17.4110
 1.8140	17.4170
 1.8150	17.4240
 1.8160	17.4300
 1.8170	17.4370
 1.8180	17.4440
 1.8190	17.4500
 1.8200	17.4530
 1.8210	17.4540
 1.8220	17.4550
 1.8230	17.4540
 1.8240	17.4540
 1.8250	17.4550
 1.8260	17.4530
 1.8270	17.4490
 1.8280	17.4440
 1.8290	17.4360
 1.8300	17.4280
 1.8310	17.2160
 1.8320	17.2030
 1.8330	17.1860
 1.8340	17.1640
 1.8350	17.1420
 1.8360	17.1170
 1.8370	17.0890
 1.8380	17.0610
 1.8390	17.0270
 1.8400	16.9910
 1.8410	16.9470
 1.8420	16.8960
 1.8430	16.8420
 1.8440	16.7860
 1.8450	16.7250
 1.8460	16.6570
 1.8470	16.5830
 1.8480	16.5000
 1.8490	16.4100
 1.8500	16.3150
 1.8510	16.2150
 1.8520	16.1080
 1.8530	15.9900
 1.8540	15.8670
 1.8550	15.7350
 1.8560	15.5930
 1.8570	15.4420
 1.8580	15.2780
 1.8590	15.1070
 1.8600	14.9250
 1.8610	14.7350
 1.8620	14.5350
 1.8630	14.3320
 1.8640	14.1170
 1.8650	13.8880
 1.8660	13.6510
 1.8670	13.4020
 1.8680	13.1430
 1.8690	12.8770
 1.8700	12.6000
 1.8710	12.3140
 1.8720	12.0220
 1.8730	11.7270
 1.8740	11.4280
 1.8750	11.1270
 1.8760	10.8240
 1.8770	10.5200
 1.8780	10.2160
 1.8790	 9.9150
 1.8800	 9.6200
 1.8810	 9.3290
 1.8820	 9.0420
 1.8830	 8.7560
 1.8840	 8.4780
 1.8850	 8.2040
 1.8860	 7.9380
 1.8870	 7.6820
 1.8880	 7.4310
 1.8890	 7.1910
 1.8900	 6.9630
 1.8910	 6.7450
 1.8920	 6.5350
 1.8930	 6.3420
 1.8940	 6.1610
 1.8950	 5.9920
 1.8960	 5.8350
 1.8970	 5.6890
 1.8980	 5.5520
 1.8990	 5.4230
 1.9000	 5.3030
 1.9010	 5.1940
 1.9020	 5.0910
 1.9030	 4.9980
 1.9040	 4.9130
 1.9050	 4.8370
 1.9060	 4.7680
 1.9070	 4.7060
 1.9080	 4.6540
 1.9090	 4.6030
 1.9100	 4.5590
 1.9110	 4.5190
 1.9120	 4.4840
 1.9130	 4.4510
 1.9140	 4.4230
 1.9150	 4.3960
 1.9160	 4.3700
 1.9170	 4.3480
 1.9180	 4.3300
 1.9190	 4.3130
 1.9200	 4.2990
 1.9210	 4.2860
 1.9220	 4.2730
 1.9230	 4.2610
 1.9240	 4.2520
 1.9250	 4.2450
 1.9260	 4.2390
 1.9270	 4.2360
 1.9280	 4.2340
 1.9290	 4.2330
 1.9300	 4.2350
 1.9310	 4.2390
 1.9320	 4.2430
 1.9330	 4.2460
 1.9340	 4.2490
 1.9350	 4.2540
 1.9360	 4.2580
 1.9370	 4.2650
 1.9380	 4.2710
 1.9390	 4.2820
 1.9400	 4.2950
 1.9410	 4.3070
 1.9420	 4.3200
 1.9430	 4.3320
 1.9440	 4.3440
 1.9450	 4.3520
 1.9460	 4.3650
 1.9470	 4.3790
 1.9480	 4.3930
 1.9490	 4.4100
 1.9500	 4.4250
 1.9510	 4.4430
 1.9520	 4.4640
 1.9530	 4.4810
 1.9540	 4.5030
 1.9550	 4.5240
 1.9560	 4.5440
 1.9570	 4.5640
 1.9580	 4.5860
 1.9590	 4.6080
 1.9600	 4.6280
 1.9610	 4.6510
 1.9620	 4.6750
 1.9630	 4.6980
 1.9640	 4.7220
 1.9650	 4.7480
 1.9660	 4.7740
 1.9670	 4.8000
 1.9680	 4.8250
 1.9690	 4.8510
 1.9700	 4.8760
 1.9710	 4.9010
 1.9720	 4.9290
 1.9730	 4.9580
 1.9740	 4.9870
 1.9750	 5.0180
 1.9760	 5.0480
 1.9770	 5.0740
 1.9780	 5.1020
 1.9790	 5.1300
 1.9800	 5.1570
 1.9810	 5.1880
 1.9820	 5.2220
 1.9830	 5.2540
 1.9840	 5.2890
 1.9850	 5.3200
 1.9860	 5.3490
 1.9870	 5.3790
 1.9880	 5.4100
 1.9890	 5.4420
 1.9900	 5.4740
 1.9910	 5.5070
 1.9920	 5.5390
 1.9930	 5.5680
 1.9940	 5.6000
 1.9950	 5.6350
 1.9960	 5.6680
 1.9970	 5.6980
 1.9980	 5.7300
 1.9990	 5.7630
 2.0000	 5.7940
 2.0010	 5.8290
 2.0020	 5.8660
 2.0030	 5.8990
 2.0040	 5.9330
 2.0050	 5.9680
 2.0060	 6.0040
 2.0070	 6.0390
 2.0080	 6.0760
 2.0090	 6.1090
 2.0100	 6.1370
 2.0110	 6.1690
 2.0120	 6.2010
 2.0130	 6.2330
 2.0140	 6.2650
 2.0150	 6.2980
 2.0160	 6.3330
 2.0170	 6.3650
 2.0180	 6.3980
 2.0190	 6.4300
 2.0200	 6.4630
 2.0210	 6.4950
 2.0220	 6.5270
 2.0230	 6.5610
 2.0240	 6.5940
 2.0250	 6.6230
 2.0260	 6.6540
 2.0270	 6.6850
 2.0280	 6.7160
 2.0290	 6.7460
 2.0300	 6.7750
 2.0310	 6.8020
 2.0320	 6.8250
 2.0330	 6.8500
 2.0340	 6.8750
 2.0350	 6.8990
 2.0360	 6.9250
 2.0370	 6.9500
 2.0380	 6.9740
 2.0390	 6.9990
 2.0400	 7.0260
 2.0410	 7.0510
 2.0420	 7.0750
 2.0430	 7.0980
 2.0440	 7.1210
 2.0450	 7.1410
 2.0460	 7.1650
 2.0470	 7.1930
 2.0480	 7.2170
 2.0490	 7.2400
 2.0500	 7.2630
 2.0510	 7.2850
 2.0520	 7.3070
 2.0530	 7.3300
 2.0540	 7.3510
 2.0550	 7.3700
 2.0560	 7.3890
 2.0570	 7.4050
 2.0580	 7.4250
 2.0590	 7.4460
 2.0600	 7.4690
 2.0610	 7.4930
 2.0620	 7.5190
 2.0630	 7.5420
 2.0640	 7.5620
 2.0650	 7.5850
 2.0660	 7.6070
 2.0670	 7.6310
 2.0680	 7.6580
 2.0690	 7.6840
 2.0700	 7.7120
 2.0710	 7.7380
 2.0720	 7.7650
 2.0730	 7.7910
 2.0740	 7.8150
 2.0750	 7.8370
 2.0760	 7.8600
 2.0770	 7.8810
 2.0780	 7.9060
 2.0790	 7.9320
 2.0800	 7.9570
 2.0810	 7.9850
 2.0820	 8.0100
 2.0830	 8.0320
 2.0840	 8.0560
 2.0850	 8.0820
 2.0860	 8.1060
 2.0870	 8.1310
 2.0880	 8.1570
 2.0890	 8.1810
 2.0900	 8.2030
 2.0910	 8.2260
 2.0920	 8.2500
 2.0930	 8.2740
 2.0940	 8.2990
 2.0950	 8.3230
 2.0960	 8.3480
 2.0970	 8.3720
 2.0980	 8.3950
 2.0990	 8.4180
 2.1000	 8.4410
 2.1010	 8.4620
 2.1020	 8.4830
 2.1030	 8.5030
 2.1040	 8.5220
 2.1050	 8.5430
 2.1060	 8.5640
 2.1070	 8.5870
 2.1080	 8.6090
 2.1090	 8.6340
 2.1100	 8.6550
 2.1110	 8.6750
 2.1120	 8.6950
 2.1130	 8.7120
 2.1140	 8.7310
 2.1150	 8.7530
 2.1160	 8.7730
 2.1170	 8.7940
 2.1180	 8.8140
 2.1190	 8.8340
 2.1200	 8.8540
 2.1210	 8.8720
 2.1220	 8.8940
 2.1230	 8.9130
 2.1240	 8.9300
 2.1250	 8.9490
 2.1260	 8.9670
 2.1270	 8.9870
 2.1280	 9.0070
 2.1290	 9.0270
 2.1300	 9.0490
 2.1310	 9.0690
 2.1320	 9.0900
 2.1330	 9.1080
 2.1340	 9.1240
 2.1350	 9.1400
 2.1360	 9.1570
 2.1370	 9.1720
 2.1380	 9.1830
 2.1390	 9.1990
 2.1400	 9.2150
 2.1410	 9.2320
 2.1420	 9.2490
 2.1430	 9.2710
 2.1440	 9.2860
 2.1450	 9.2970
 2.1460	 9.3110
 2.1470	 9.3220
 2.1480	 9.3380
 2.1490	 9.3580
 2.1500	 9.3740
 2.1510	 9.3920
 2.1520	 9.4080
 2.1530	 9.4190
 2.1540	 9.4320
 2.1550	 9.4450
 2.1560	 9.4580
 2.1570	 9.4700
 2.1580	 9.4850
 2.1590	 9.4980
 2.1600	 9.5160
 2.1610	 9.5300
 2.1620	 9.5420
 2.1630	 9.5530
 2.1640	 9.5600
 2.1650	 9.5700
 2.1660	 9.5810
 2.1670	 9.5900
 2.1680	 9.5970
 2.1690	 9.6060
 2.1700	 9.6150
 2.1710	 9.6260
 2.1720	 9.6390
 2.1730	 9.6530
 2.1740	 9.6670
 2.1750	 9.6810
 2.1760	 9.6970
 2.1770	 9.7120
 2.1780	 9.7260
 2.1790	 9.7390
 2.1800	 9.7530
 2.1810	 9.7650
 2.1820	 9.7770
 2.1830	 9.7880
 2.1840	 9.7990
 2.1850	 9.8110
 2.1860	 9.8200
 2.1870	 9.8270
 2.1880	 9.8390
 2.1890	 9.8530
 2.1900	 9.8670
 2.1910	 9.8870
 2.1920	 9.9010
 2.1930	 9.9110
 2.1940	 9.9210
 2.1950	 9.9310
 2.1960	 9.9390
 2.1970	 9.9470
 2.1980	 9.9540
 2.1990	 9.9580
 2.2000	 9.9650
 2.2010	 9.9730
 2.2020	 9.9790
 2.2030	 9.9830
 2.2040	 9.9870
 2.2050	 9.9910
 2.2060	 9.9920
 2.2070	 9.9960
 2.2080	10.0030
 2.2090	10.0040
 2.2100	10.0030
 2.2110	10.0010
 2.2120	 9.9950
 2.2130	 9.9900
 2.2140	 9.9880
 2.2150	 9.9820
 2.2160	 9.9750
 2.2170	 9.9650
 2.2180	 9.9540
 2.2190	 9.9400
 2.2200	 9.9200
 2.2210	 9.9020
 2.2220	 9.8810
 2.2230	 9.8610
 2.2240	 9.8430
 2.2250	 9.8190
 2.2260	 9.7900
 2.2270	 9.7590
 2.2280	 9.7240
 2.2290	 9.6880
 2.2300	 9.6490
 2.2310	 9.6150
 2.2320	 9.5760
 2.2330	 9.5370
 2.2340	 9.4920
 2.2350	 9.4430
 2.2360	 9.3930
 2.2370	 9.3380
 2.2380	 9.2870
 2.2390	 9.2370
 2.2400	 9.1860
 2.2410	 9.1350
 2.2420	 9.0840
 2.2430	 9.0330
 2.2440	 8.9810
 2.2450	 8.9290
 2.2460	 8.8810
 2.2470	 8.8330
 2.2480	 8.7870
 2.2490	 8.7440
 2.2500	 8.7000
 2.2510	 8.6530
 2.2520	 8.6100
 2.2530	 8.5700
 2.2540	 8.5280
 2.2550	 8.4860
 2.2560	 8.4460
 2.2570	 8.4050
 2.2580	 8.3660
 2.2590	 8.3320
 2.2600	 8.2950
 2.2610	 8.2560
 2.2620	 8.2210
 2.2630	 8.1900
 2.2640	 8.1540
 2.2650	 8.1210
 2.2660	 8.0850
 2.2670	 8.0500
 2.2680	 8.0090
 2.2690	 7.9760
 2.2700	 7.9470
 2.2710	 7.9180
 2.2720	 7.8920
 2.2730	 7.8640
 2.2740	 7.8360
 2.2750	 7.8090
 2.2760	 7.7840
 2.2770	 7.7570
 2.2780	 7.7310
 2.2790	 7.7020
 2.2800	 7.6670
 2.2810	 7.6410
 2.2820	 7.6200
 2.2830	 7.5930
 2.2840	 7.5720
 2.2850	 7.5440
 2.2860	 7.5030
 2.2870	 7.4710
 2.2880	 7.4420
 2.2890	 7.4110
 2.2900	 7.3860
 2.2910	 7.3540
 2.2920	 7.3170
 2.2930	 7.2810
 2.2940	 7.2400
 2.2950	 7.2070
 2.2960	 7.1760
 2.2970	 7.1490
 2.2980	 7.1300
 2.2990	 7.1130
 2.3000	 7.0920
 2.3010	 7.0740
 2.3020	 7.0570
 2.3030	 7.0430
 2.3040	 7.0240
 2.3050	 7.0130
 2.3060	 7.0000
 2.3070	 6.9790
 2.3080	 6.9780
 2.3090	 6.9730
 2.3100	 6.9670
 2.3110	 6.9750
 2.3120	 6.9760
 2.3130	 6.9720
 2.3140	 6.9750
 2.3150	 6.9840
 2.3160	 6.9840
 2.3170	 6.9860
 2.3180	 6.9830
 2.3190	 6.9700
 2.3200	 6.9650
 2.3210	 6.9650
 2.3220	 6.9590
 2.3230	 6.9550
 2.3240	 6.9450
 2.3250	 6.9300
 2.3260	 6.9150
 2.3270	 6.8960
 2.3280	 6.8780
 2.3290	 6.8590
 2.3300	 6.8400
 2.3310	 6.8210
 2.3320	 6.8030
 2.3330	 6.7890
 2.3340	 6.7700
 2.3350	 6.7480
 2.3360	 6.7250
 2.3370	 6.6960
 2.3380	 6.6700
 2.3390	 6.6430
 2.3400	 6.6220
 2.3410	 6.6040
 2.3420	 6.5860
 2.3430	 6.5740
 2.3440	 6.5600
 2.3450	 6.5440
 2.3460	 6.5330
 2.3470	 6.5320
 2.3480	 6.5200
 2.3490	 6.5010
 2.3500	 6.4880
 2.3510	 6.4640
 2.3520	 6.4520
 2.3530	 6.4510
 2.3540	 6.4520
 2.3550	 6.4500
 2.3560	 6.4490
 2.3570	 6.4400
 2.3580	 6.4260
 2.3590	 6.4130
 2.3600	 6.3990
 2.3610	 6.3870
 2.3620	 6.3790
 2.3630	 6.3690
 2.3640	 6.3600
 2.3650	 6.3570
 2.3660	 6.3460
 2.3670	 6.3310
 2.3680	 6.3140
 2.3690	 6.2840
 2.3700	 6.2640
 2.3710	 6.2580
 2.3720	 6.2490
 2.3730	 6.2440
 2.3740	 6.2270
 2.3750	 6.1990
 2.3760	 6.1730
 2.3770	 6.1500
 2.3780	 6.1340
 2.3790	 6.1290
 2.3800	 6.1280
 2.3810	 6.1150
 2.3820	 6.1050
 2.3830	 6.0980
 2.3840	 6.0760
 2.3850	 6.0590
 2.3860	 6.0450
 2.3870	 6.0220
 2.3880	 6.0030
 2.3890	 5.9910
 2.3900	 5.9820
 2.3910	 5.9770
 2.3920	 5.9660
 2.3930	 5.9450
 2.3940	 5.9310
 2.3950	 5.9150
 2.3960	 5.8930
 2.3970	 5.8850
 2.3980	 5.8720
 2.3990	 5.8550
 2.4000	 5.8450
 2.4010	 5.8330
 2.4020	 5.8190
 2.4030	 5.7980
 2.4040	 5.7810
 2.4050	 5.7630
 2.4060	 5.7440
 2.4070	 5.7250
 2.4080	 5.6950
 2.4090	 5.6720
 2.4100	 5.6480
 2.4110	 5.6180
 2.4120	 5.6020
 2.4130	 5.5890
 2.4140	 5.5790
 2.4150	 5.5800
 2.4160	 5.5760
 2.4170	 5.5650
 2.4180	 5.5420
 2.4190	 5.5120
 2.4200	 5.4870
 2.4210	 5.4690
 2.4220	 5.4500
 2.4230	 5.4400
 2.4240	 5.4400
 2.4250	 5.4140
 2.4260	 5.3790
 2.4270	 5.3510
 2.4280	 5.3170
 2.4290	 5.3050
 2.4300	 5.3100
 2.4310	 5.3140
 2.4320	 5.3110
 2.4330	 5.2940
 2.4340	 5.2620
 2.4350	 5.2270
 2.4360	 5.2050
 2.4370	 5.1750
 2.4380	 5.1640
 2.4390	 5.1610
 2.4400	 5.1300
 2.4410	 5.1230
 2.4420	 5.1160
 2.4430	 5.0850
 2.4440	 5.0790
 2.4450	 5.0490
 2.4460	 5.0150
 2.4470	 5.0180
 2.4480	 5.0010
 2.4490	 4.9840
 2.4500	 4.9680
 2.4510	 4.9270
 2.4520	 4.9030
 2.4530	 4.8960
 2.4540	 4.8840
 2.4550	 4.8830
 2.4560	 4.8750
 2.4570	 4.8500
 2.4580	 4.8310
 2.4590	 4.8150
 2.4600	 4.7970
 2.4610	 4.7920
 2.4620	 4.7910
 2.4630	 4.7670
 2.4640	 4.7440
 2.4650	 4.7150
 2.4660	 4.6740
 2.4670	 4.6530
 2.4680	 4.6320
 2.4690	 4.6380
 2.4700	 4.6240
 2.4710	 4.6030
 2.4720	 4.5820
 2.4730	 4.5360
 2.4740	 4.5160
 2.4750	 4.5020
 2.4760	 4.4890
 2.4770	 4.4960
 2.4780	 4.4910
 2.4790	 4.4890
 2.4800	 4.5020
 2.4810	 4.5200
 2.4820	 4.5180
 2.4830	 4.5070
 2.4840	 4.4800
 2.4850	 4.4570
 2.4860	 4.4340
 2.4870	 4.4190
 2.4880	 4.4060
 2.4890	 4.3940
 2.4900	 4.4070
 2.4910	 4.4030
 2.4920	 4.3960
 2.4930	 4.4500
 2.4940	 4.4620
 2.4950	 4.4330
 2.4960	 4.4570
 2.4970	 4.4230
 2.4980	 4.3820
 2.4990	 4.3840
 2.5000	 4.3370
