Name: Peltophorum africanum
Type: vegetation
Class: Tree
Genus: Peltophorum
Species: africanum
Sample No.: JPL261
Owner: JPL
Wavelength Range: TIR
Origin: 34.13112; -118.11238; WGS84
Collection Date: 10/6/2016
Description: Samples were collected at the Huntington Garden in San Marino California as part of a JPL Subcontract studying HyTES imagery. Samples were taken to JPL and processed within 48 hours of collection. The same leaves were processed in the Nicolet and then measured using the ASD.
Measurement: Hemispherical reflectance
First Column: X
Second Column: Y
X Units: Wavelength (micrometer)
Y Units: Reflectance (percentage)
First X Value: 2.501
Last X Value: 15.387
Number of X Values: 1737
Additional Information: vegetation.tree.peltophorum.africanum.tir.jpl261.jpl.nicolet.ancillary.txt

 2.5010	 9.6780
 2.5030	 9.6400
 2.5040	 9.6780
 2.5050	 9.6390
 2.5060	 9.6150
 2.5070	 9.5460
 2.5090	 9.4840
 2.5100	 9.4300
 2.5110	 9.4640
 2.5120	 9.4310
 2.5140	 9.4340
 2.5150	 9.4060
 2.5160	 9.4050
 2.5170	 9.4320
 2.5180	 9.4360
 2.5200	 9.3740
 2.5210	 9.4120
 2.5220	 9.4260
 2.5230	 9.3590
 2.5250	 9.3040
 2.5260	 9.3520
 2.5270	 9.3530
 2.5280	 9.3860
 2.5300	 9.3820
 2.5310	 9.3380
 2.5320	 9.2330
 2.5330	 9.1810
 2.5340	 9.1470
 2.5360	 9.1080
 2.5370	 9.0790
 2.5380	 9.2550
 2.5390	 9.2670
 2.5410	 9.3180
 2.5420	 9.2490
 2.5430	 9.0910
 2.5440	 9.1020
 2.5460	 9.2560
 2.5470	 9.2380
 2.5480	 9.1500
 2.5490	 9.1580
 2.5510	 9.1770
 2.5520	 9.1220
 2.5530	 9.0810
 2.5540	 9.1920
 2.5560	 9.3080
 2.5570	 9.3120
 2.5580	 9.3310
 2.5590	 9.1570
 2.5610	 8.8240
 2.5620	 8.6070
 2.5630	 8.6990
 2.5650	 8.7430
 2.5660	 9.0430
 2.5670	 9.2890
 2.5680	 9.1870
 2.5700	 8.8260
 2.5710	 8.9100
 2.5720	 9.0520
 2.5730	 8.7450
 2.5750	 8.8210
 2.5760	 8.9650
 2.5770	 8.7740
 2.5790	 9.0400
 2.5800	 9.1020
 2.5810	 8.8570
 2.5820	 8.8210
 2.5840	 8.5120
 2.5850	 8.4500
 2.5860	 8.7550
 2.5880	 8.5760
 2.5890	 8.6700
 2.5900	 8.8820
 2.5910	 9.0740
 2.5930	 8.9070
 2.5940	 8.1580
 2.5950	 7.3940
 2.5970	 8.0090
 2.5980	 8.7260
 2.5990	 8.9330
 2.6010	 8.8870
 2.6020	 8.6960
 2.6030	 8.4380
 2.6040	 8.2060
 2.6060	 7.9240
 2.6070	 8.0930
 2.6080	 8.3430
 2.6100	 8.4180
 2.6110	 8.5210
 2.6120	 8.6170
 2.6140	 8.4860
 2.6150	 8.4490
 2.6160	 8.0080
 2.6180	 7.7520
 2.6190	 8.0010
 2.6200	 7.7980
 2.6220	 7.8460
 2.6230	 8.3440
 2.6240	 8.4290
 2.6260	 8.2630
 2.6270	 7.8600
 2.6280	 8.0060
 2.6300	 7.8260
 2.6310	 7.4100
 2.6320	 7.6830
 2.6340	 7.8710
 2.6350	 7.8420
 2.6360	 8.0100
 2.6380	 8.0130
 2.6390	 8.0140
 2.6400	 7.9780
 2.6420	 7.8890
 2.6430	 7.8030
 2.6440	 7.8290
 2.6460	 7.6010
 2.6470	 7.5510
 2.6480	 7.7100
 2.6500	 7.7400
 2.6510	 7.5640
 2.6520	 7.2510
 2.6540	 7.2000
 2.6550	 7.2740
 2.6570	 7.2650
 2.6580	 7.4090
 2.6590	 7.1760
 2.6610	 7.0490
 2.6620	 7.0280
 2.6630	 7.0950
 2.6650	 6.6560
 2.6660	 6.2180
 2.6670	 6.2510
 2.6690	 6.5610
 2.6700	 6.1410
 2.6720	 6.0720
 2.6730	 6.7050
 2.6740	 6.8120
 2.6760	 6.4940
 2.6770	 6.1910
 2.6780	 6.3120
 2.6800	 6.4600
 2.6810	 6.6570
 2.6830	 6.7290
 2.6840	 6.6310
 2.6850	 6.6070
 2.6870	 6.5470
 2.6880	 6.6290
 2.6900	 6.6480
 2.6910	 6.6330
 2.6920	 6.4870
 2.6940	 6.1630
 2.6950	 6.0320
 2.6970	 6.3190
 2.6980	 6.4950
 2.6990	 6.5040
 2.7010	 6.4100
 2.7020	 6.4180
 2.7040	 6.5700
 2.7050	 6.5570
 2.7060	 6.4970
 2.7080	 6.4140
 2.7090	 6.0770
 2.7110	 5.8480
 2.7120	 5.9480
 2.7130	 6.3600
 2.7150	 6.4450
 2.7160	 6.4510
 2.7180	 6.2890
 2.7190	 6.0730
 2.7210	 5.6450
 2.7220	 5.7930
 2.7230	 5.9860
 2.7250	 5.7850
 2.7260	 5.9810
 2.7280	 6.3350
 2.7290	 6.4360
 2.7310	 6.4570
 2.7320	 6.3560
 2.7340	 6.2570
 2.7350	 6.0460
 2.7360	 6.1310
 2.7380	 6.1960
 2.7390	 5.8010
 2.7410	 5.5610
 2.7420	 5.7930
 2.7440	 6.0950
 2.7450	 6.2760
 2.7470	 6.2460
 2.7480	 6.2450
 2.7490	 6.2730
 2.7510	 6.2520
 2.7520	 6.1070
 2.7540	 6.0360
 2.7550	 5.6180
 2.7570	 5.6210
 2.7580	 6.1010
 2.7600	 6.2840
 2.7610	 6.1650
 2.7630	 5.9690
 2.7640	 5.8690
 2.7660	 6.0350
 2.7670	 6.0630
 2.7690	 5.9590
 2.7700	 5.8910
 2.7720	 5.9150
 2.7730	 6.0820
 2.7740	 6.1820
 2.7760	 6.1280
 2.7770	 6.0830
 2.7790	 6.0410
 2.7800	 6.0260
 2.7820	 5.9940
 2.7830	 6.1430
 2.7850	 6.1770
 2.7860	 5.9990
 2.7880	 5.8630
 2.7890	 6.0430
 2.7910	 6.1480
 2.7920	 6.1670
 2.7940	 6.1840
 2.7950	 6.2260
 2.7970	 6.1510
 2.7980	 6.1360
 2.8000	 6.1540
 2.8010	 6.0450
 2.8030	 5.7610
 2.8040	 5.7950
 2.8060	 5.9710
 2.8080	 6.0380
 2.8090	 6.0880
 2.8110	 6.1180
 2.8120	 6.0490
 2.8140	 6.0510
 2.8150	 5.9700
 2.8170	 6.0190
 2.8180	 6.0430
 2.8200	 6.0020
 2.8210	 5.9710
 2.8230	 6.0850
 2.8240	 6.1400
 2.8260	 6.1880
 2.8270	 6.0950
 2.8290	 6.0560
 2.8310	 6.0730
 2.8320	 6.0700
 2.8340	 6.0220
 2.8350	 6.0060
 2.8370	 5.9420
 2.8380	 5.9640
 2.8400	 6.0240
 2.8410	 6.1480
 2.8430	 6.1640
 2.8440	 6.1370
 2.8460	 6.0580
 2.8480	 6.0920
 2.8490	 6.0320
 2.8510	 6.0710
 2.8520	 6.1120
 2.8540	 6.1080
 2.8550	 6.0470
 2.8570	 6.0900
 2.8590	 6.0450
 2.8600	 6.0530
 2.8620	 6.0920
 2.8630	 6.1470
 2.8650	 6.1140
 2.8660	 6.1210
 2.8680	 6.0940
 2.8700	 6.1160
 2.8710	 6.0690
 2.8730	 6.0950
 2.8740	 6.0990
 2.8760	 6.1570
 2.8780	 6.1160
 2.8790	 6.0980
 2.8810	 6.1030
 2.8820	 6.1330
 2.8840	 6.1460
 2.8860	 6.1450
 2.8870	 6.1230
 2.8890	 6.1450
 2.8900	 6.1490
 2.8920	 6.1270
 2.8940	 6.0700
 2.8950	 6.1230
 2.8970	 6.1500
 2.8990	 6.1930
 2.9000	 6.1200
 2.9020	 6.0410
 2.9030	 6.0320
 2.9050	 6.1120
 2.9070	 6.1190
 2.9080	 6.1430
 2.9100	 6.0900
 2.9120	 6.0710
 2.9130	 6.1300
 2.9150	 6.1620
 2.9160	 6.1240
 2.9180	 6.1600
 2.9200	 6.1240
 2.9210	 6.1150
 2.9230	 6.1230
 2.9250	 6.1530
 2.9260	 6.1150
 2.9280	 6.1750
 2.9300	 6.2120
 2.9310	 6.1690
 2.9330	 6.1440
 2.9350	 6.2200
 2.9360	 6.2360
 2.9380	 6.1970
 2.9400	 6.1400
 2.9410	 6.1800
 2.9430	 6.1540
 2.9450	 6.1610
 2.9460	 6.1310
 2.9480	 6.1540
 2.9500	 6.1110
 2.9510	 6.1550
 2.9530	 6.1480
 2.9550	 6.0940
 2.9560	 6.0680
 2.9580	 6.1730
 2.9600	 6.2030
 2.9610	 6.2010
 2.9630	 6.1240
 2.9650	 6.1220
 2.9670	 6.1070
 2.9680	 6.0910
 2.9700	 6.1510
 2.9720	 6.1720
 2.9730	 6.0650
 2.9750	 6.0710
 2.9770	 6.0670
 2.9780	 6.1160
 2.9800	 6.0800
 2.9820	 6.0390
 2.9840	 6.0300
 2.9850	 6.1590
 2.9870	 6.1840
 2.9890	 6.2080
 2.9900	 6.1250
 2.9920	 6.0650
 2.9940	 6.0630
 2.9960	 6.0810
 2.9970	 6.0520
 2.9990	 6.1220
 3.0010	 6.1600
 3.0030	 6.1560
 3.0040	 6.1480
 3.0060	 6.1510
 3.0080	 6.1440
 3.0100	 6.1960
 3.0110	 6.1780
 3.0130	 6.1370
 3.0150	 6.0230
 3.0170	 6.0720
 3.0180	 6.1550
 3.0200	 6.2030
 3.0220	 6.1120
 3.0240	 6.1370
 3.0250	 6.1050
 3.0270	 6.1580
 3.0290	 6.2040
 3.0310	 6.1630
 3.0320	 6.0770
 3.0340	 6.1120
 3.0360	 6.1710
 3.0380	 6.1860
 3.0400	 6.1170
 3.0410	 6.1560
 3.0430	 6.1260
 3.0450	 6.1560
 3.0470	 6.1660
 3.0480	 6.1180
 3.0500	 6.0800
 3.0520	 6.1110
 3.0540	 6.1320
 3.0560	 6.1460
 3.0570	 6.1360
 3.0590	 6.1760
 3.0610	 6.1750
 3.0630	 6.1500
 3.0650	 6.0860
 3.0670	 6.1140
 3.0680	 6.1310
 3.0700	 6.1750
 3.0720	 6.1930
 3.0740	 6.2030
 3.0760	 6.1350
 3.0770	 6.1560
 3.0790	 6.1810
 3.0810	 6.1920
 3.0830	 6.2010
 3.0850	 6.2280
 3.0870	 6.1860
 3.0880	 6.2060
 3.0900	 6.1930
 3.0920	 6.2290
 3.0940	 6.1900
 3.0960	 6.1640
 3.0980	 6.1410
 3.1000	 6.1550
 3.1010	 6.1590
 3.1030	 6.1800
 3.1050	 6.1520
 3.1070	 6.1680
 3.1090	 6.1740
 3.1110	 6.1950
 3.1130	 6.1340
 3.1140	 6.1550
 3.1160	 6.1940
 3.1180	 6.2430
 3.1200	 6.1800
 3.1220	 6.1370
 3.1240	 6.1170
 3.1260	 6.1450
 3.1280	 6.1710
 3.1290	 6.2120
 3.1310	 6.1980
 3.1330	 6.1810
 3.1350	 6.1620
 3.1370	 6.1570
 3.1390	 6.1160
 3.1410	 6.1610
 3.1430	 6.1710
 3.1450	 6.1540
 3.1470	 6.1470
 3.1480	 6.1820
 3.1500	 6.1640
 3.1520	 6.1670
 3.1540	 6.2250
 3.1560	 6.2280
 3.1580	 6.1350
 3.1600	 6.1250
 3.1620	 6.1490
 3.1640	 6.2010
 3.1660	 6.1820
 3.1680	 6.1350
 3.1700	 6.1180
 3.1720	 6.1550
 3.1730	 6.1750
 3.1750	 6.2280
 3.1770	 6.1710
 3.1790	 6.1800
 3.1810	 6.1760
 3.1830	 6.1910
 3.1850	 6.1490
 3.1870	 6.1680
 3.1890	 6.1660
 3.1910	 6.1440
 3.1930	 6.1500
 3.1950	 6.1920
 3.1970	 6.1830
 3.1990	 6.1890
 3.2010	 6.1730
 3.2030	 6.1700
 3.2050	 6.1930
 3.2070	 6.2320
 3.2090	 6.1840
 3.2110	 6.1790
 3.2130	 6.1790
 3.2150	 6.2340
 3.2170	 6.2140
 3.2190	 6.1720
 3.2210	 6.1560
 3.2230	 6.2210
 3.2250	 6.2200
 3.2270	 6.2270
 3.2290	 6.1800
 3.2310	 6.1380
 3.2330	 6.1790
 3.2350	 6.2420
 3.2370	 6.2170
 3.2390	 6.2140
 3.2410	 6.2170
 3.2430	 6.2530
 3.2450	 6.2460
 3.2470	 6.2220
 3.2490	 6.2030
 3.2510	 6.2200
 3.2530	 6.2330
 3.2550	 6.2470
 3.2570	 6.2100
 3.2590	 6.2110
 3.2610	 6.1780
 3.2630	 6.2050
 3.2650	 6.2200
 3.2670	 6.2510
 3.2700	 6.2570
 3.2720	 6.2940
 3.2740	 6.2690
 3.2760	 6.2490
 3.2780	 6.2290
 3.2800	 6.2630
 3.2820	 6.2310
 3.2840	 6.1990
 3.2860	 6.1690
 3.2880	 6.2010
 3.2900	 6.1950
 3.2920	 6.2450
 3.2940	 6.2640
 3.2970	 6.2960
 3.2990	 6.2670
 3.3010	 6.2230
 3.3030	 6.1820
 3.3050	 6.2230
 3.3070	 6.2090
 3.3090	 6.2130
 3.3110	 6.2340
 3.3130	 6.2530
 3.3160	 6.2000
 3.3180	 6.1540
 3.3200	 6.1420
 3.3220	 6.1950
 3.3240	 6.1930
 3.3260	 6.1830
 3.3280	 6.1730
 3.3300	 6.2000
 3.3330	 6.1970
 3.3350	 6.1640
 3.3370	 6.1070
 3.3390	 6.1450
 3.3410	 6.1670
 3.3430	 6.1840
 3.3450	 6.1350
 3.3480	 6.1290
 3.3500	 6.1310
 3.3520	 6.1490
 3.3540	 6.1180
 3.3560	 6.1160
 3.3580	 6.1090
 3.3610	 6.0980
 3.3630	 6.0430
 3.3650	 6.0690
 3.3670	 6.0400
 3.3690	 6.0230
 3.3720	 6.0090
 3.3740	 6.0150
 3.3760	 6.0190
 3.3780	 6.0400
 3.3800	 6.0310
 3.3830	 6.0390
 3.3850	 6.0370
 3.3870	 6.0450
 3.3890	 5.9680
 3.3910	 5.9800
 3.3940	 5.9830
 3.3960	 5.9340
 3.3980	 5.9070
 3.4000	 5.9740
 3.4030	 5.9760
 3.4050	 5.9730
 3.4070	 5.9370
 3.4090	 5.9800
 3.4110	 6.0610
 3.4140	 6.1620
 3.4160	 6.2650
 3.4180	 6.4160
 3.4200	 6.6520
 3.4230	 7.0650
 3.4250	 7.4870
 3.4270	 7.8660
 3.4300	 8.0190
 3.4320	 7.9030
 3.4340	 7.5940
 3.4360	 7.3010
 3.4390	 7.0890
 3.4410	 6.9760
 3.4430	 6.8550
 3.4450	 6.7780
 3.4480	 6.7470
 3.4500	 6.7680
 3.4520	 6.7120
 3.4550	 6.6990
 3.4570	 6.6990
 3.4590	 6.7080
 3.4620	 6.6650
 3.4640	 6.6360
 3.4660	 6.6200
 3.4690	 6.6130
 3.4710	 6.5860
 3.4730	 6.5720
 3.4760	 6.5670
 3.4780	 6.5500
 3.4800	 6.4980
 3.4830	 6.5140
 3.4850	 6.4880
 3.4870	 6.4450
 3.4900	 6.4100
 3.4920	 6.3640
 3.4940	 6.2730
 3.4970	 6.2870
 3.4990	 6.2850
 3.5010	 6.3480
 3.5040	 6.4670
 3.5060	 6.7900
 3.5080	 7.3160
 3.5110	 7.8170
 3.5130	 7.8160
 3.5160	 7.5220
 3.5180	 7.2570
 3.5200	 7.0980
 3.5230	 6.9860
 3.5250	 6.9560
 3.5280	 6.9000
 3.5300	 6.8450
 3.5320	 6.8070
 3.5350	 6.8030
 3.5370	 6.7370
 3.5400	 6.7320
 3.5420	 6.7780
 3.5440	 6.7570
 3.5470	 6.7180
 3.5490	 6.7080
 3.5520	 6.7000
 3.5540	 6.7250
 3.5570	 6.7050
 3.5590	 6.6950
 3.5610	 6.6610
 3.5640	 6.6640
 3.5660	 6.6780
 3.5690	 6.6960
 3.5710	 6.6490
 3.5740	 6.6320
 3.5760	 6.6390
 3.5790	 6.6610
 3.5810	 6.6450
 3.5840	 6.6680
 3.5860	 6.6560
 3.5890	 6.6370
 3.5910	 6.6330
 3.5940	 6.6420
 3.5960	 6.6160
 3.5990	 6.6270
 3.6010	 6.6170
 3.6040	 6.6320
 3.6060	 6.6430
 3.6090	 6.6550
 3.6110	 6.6610
 3.6140	 6.6640
 3.6160	 6.6380
 3.6190	 6.6270
 3.6210	 6.6010
 3.6240	 6.6280
 3.6260	 6.6060
 3.6290	 6.5770
 3.6310	 6.5710
 3.6340	 6.6050
 3.6360	 6.6320
 3.6390	 6.6230
 3.6410	 6.5850
 3.6440	 6.5980
 3.6470	 6.6060
 3.6490	 6.5890
 3.6520	 6.5870
 3.6540	 6.6130
 3.6570	 6.6240
 3.6590	 6.6050
 3.6620	 6.5820
 3.6650	 6.6050
 3.6670	 6.5750
 3.6700	 6.6080
 3.6720	 6.6340
 3.6750	 6.6190
 3.6780	 6.6270
 3.6800	 6.6440
 3.6830	 6.6290
 3.6850	 6.6090
 3.6880	 6.5470
 3.6910	 6.5660
 3.6930	 6.6090
 3.6960	 6.6320
 3.6990	 6.6120
 3.7010	 6.6040
 3.7040	 6.5420
 3.7070	 6.5380
 3.7090	 6.5920
 3.7120	 6.6030
 3.7150	 6.5850
 3.7170	 6.5940
 3.7200	 6.5620
 3.7230	 6.5640
 3.7250	 6.6030
 3.7280	 6.6300
 3.7310	 6.5750
 3.7330	 6.6030
 3.7360	 6.6720
 3.7390	 6.6550
 3.7410	 6.6220
 3.7440	 6.6420
 3.7470	 6.6400
 3.7490	 6.6200
 3.7520	 6.5850
 3.7550	 6.6190
 3.7580	 6.6490
 3.7600	 6.6410
 3.7630	 6.6250
 3.7660	 6.6020
 3.7690	 6.5750
 3.7710	 6.5600
 3.7740	 6.5900
 3.7770	 6.6790
 3.7790	 6.6660
 3.7820	 6.6430
 3.7850	 6.6290
 3.7880	 6.6450
 3.7910	 6.6330
 3.7930	 6.6130
 3.7960	 6.6180
 3.7990	 6.6390
 3.8020	 6.6320
 3.8040	 6.6220
 3.8070	 6.6200
 3.8100	 6.6600
 3.8130	 6.6730
 3.8160	 6.6640
 3.8180	 6.6250
 3.8210	 6.6140
 3.8240	 6.6410
 3.8270	 6.6780
 3.8300	 6.6770
 3.8330	 6.6790
 3.8350	 6.6900
 3.8380	 6.6990
 3.8410	 6.6860
 3.8440	 6.6930
 3.8470	 6.7060
 3.8500	 6.6920
 3.8520	 6.6960
 3.8550	 6.7340
 3.8580	 6.7030
 3.8610	 6.7250
 3.8640	 6.7360
 3.8670	 6.7100
 3.8700	 6.6940
 3.8730	 6.7280
 3.8760	 6.7310
 3.8780	 6.7410
 3.8810	 6.7050
 3.8840	 6.7030
 3.8870	 6.7030
 3.8900	 6.6890
 3.8930	 6.6890
 3.8960	 6.7130
 3.8990	 6.7060
 3.9020	 6.7130
 3.9050	 6.7130
 3.9080	 6.7240
 3.9110	 6.7260
 3.9140	 6.7100
 3.9170	 6.6800
 3.9190	 6.7310
 3.9220	 6.7780
 3.9250	 6.7850
 3.9280	 6.7860
 3.9310	 6.7940
 3.9340	 6.7640
 3.9370	 6.7570
 3.9400	 6.7780
 3.9430	 6.7900
 3.9460	 6.7870
 3.9490	 6.7950
 3.9520	 6.8100
 3.9550	 6.8310
 3.9580	 6.8370
 3.9610	 6.8430
 3.9640	 6.8180
 3.9670	 6.8020
 3.9700	 6.7740
 3.9740	 6.7830
 3.9770	 6.8230
 3.9800	 6.8220
 3.9830	 6.8180
 3.9860	 6.8540
 3.9890	 6.8930
 3.9920	 6.8740
 3.9950	 6.8430
 3.9980	 6.8300
 4.0010	 6.8550
 4.0040	 6.8840
 4.0070	 6.8840
 4.0100	 6.8720
 4.0140	 6.8470
 4.0170	 6.8530
 4.0200	 6.8640
 4.0230	 6.8690
 4.0260	 6.8990
 4.0290	 6.8730
 4.0320	 6.8430
 4.0350	 6.8750
 4.0390	 6.8920
 4.0420	 6.8980
 4.0450	 6.9110
 4.0480	 6.9450
 4.0510	 6.9280
 4.0540	 6.9080
 4.0570	 6.9000
 4.0610	 6.9040
 4.0640	 6.9110
 4.0670	 6.9140
 4.0700	 6.8830
 4.0730	 6.8860
 4.0770	 6.8830
 4.0800	 6.8830
 4.0830	 6.8780
 4.0860	 6.8630
 4.0890	 6.8600
 4.0930	 6.8630
 4.0960	 6.8430
 4.0990	 6.8650
 4.1020	 6.8710
 4.1060	 6.8570
 4.1090	 6.8670
 4.1120	 6.9000
 4.1150	 6.8970
 4.1190	 6.8900
 4.1220	 6.9110
 4.1250	 6.9340
 4.1290	 6.9180
 4.1320	 6.9150
 4.1350	 6.9050
 4.1380	 6.8950
 4.1420	 6.8900
 4.1450	 6.8820
 4.1480	 6.8870
 4.1520	 6.8940
 4.1550	 6.8840
 4.1580	 6.9180
 4.1620	 6.9140
 4.1650	 6.8640
 4.1680	 6.8530
 4.1720	 6.8940
 4.1750	 6.8780
 4.1780	 6.8520
 4.1820	 6.8760
 4.1850	 6.9080
 4.1890	 6.8720
 4.1920	 6.8610
 4.1950	 6.9010
 4.1990	 6.9580
 4.2020	 6.9950
 4.2060	 7.0250
 4.2090	 7.0960
 4.2120	 7.1550
 4.2160	 7.1540
 4.2190	 7.1520
 4.2230	 7.1640
 4.2260	 7.2660
 4.2300	 7.3170
 4.2330	 7.2540
 4.2360	 7.2240
 4.2400	 7.2840
 4.2430	 7.2310
 4.2470	 7.1330
 4.2500	 7.0940
 4.2540	 7.0450
 4.2570	 7.0550
 4.2610	 7.0860
 4.2640	 7.0450
 4.2680	 7.0890
 4.2710	 7.1520
 4.2750	 7.1220
 4.2780	 7.1270
 4.2820	 7.0670
 4.2850	 7.0090
 4.2890	 7.0020
 4.2930	 7.0180
 4.2960	 7.0740
 4.3000	 7.0120
 4.3030	 6.9340
 4.3070	 6.9270
 4.3100	 6.9330
 4.3140	 6.9180
 4.3180	 6.9510
 4.3210	 6.9130
 4.3250	 6.8570
 4.3280	 6.8260
 4.3320	 6.8220
 4.3360	 6.8380
 4.3390	 6.8540
 4.3430	 6.8370
 4.3470	 6.8000
 4.3500	 6.7810
 4.3540	 6.7430
 4.3580	 6.7030
 4.3610	 6.6900
 4.3650	 6.7190
 4.3690	 6.7350
 4.3720	 6.7220
 4.3760	 6.7050
 4.3800	 6.6920
 4.3830	 6.7040
 4.3870	 6.7040
 4.3910	 6.6720
 4.3940	 6.6860
 4.3980	 6.6820
 4.4020	 6.6660
 4.4060	 6.6650
 4.4090	 6.6560
 4.4130	 6.6610
 4.4170	 6.6680
 4.4210	 6.6520
 4.4240	 6.6190
 4.4280	 6.6010
 4.4320	 6.6090
 4.4360	 6.6100
 4.4400	 6.6330
 4.4430	 6.6520
 4.4470	 6.6410
 4.4510	 6.6290
 4.4550	 6.6270
 4.4590	 6.6120
 4.4630	 6.6000
 4.4660	 6.5970
 4.4700	 6.6020
 4.4740	 6.6080
 4.4780	 6.5820
 4.4820	 6.5590
 4.4860	 6.5550
 4.4900	 6.5670
 4.4930	 6.5810
 4.4970	 6.5920
 4.5010	 6.5640
 4.5050	 6.5560
 4.5090	 6.5850
 4.5130	 6.5580
 4.5170	 6.5310
 4.5210	 6.5600
 4.5250	 6.5540
 4.5290	 6.5290
 4.5330	 6.5520
 4.5370	 6.5700
 4.5410	 6.5530
 4.5450	 6.5560
 4.5490	 6.5830
 4.5530	 6.5650
 4.5570	 6.5470
 4.5610	 6.5480
 4.5650	 6.5220
 4.5690	 6.4890
 4.5730	 6.4930
 4.5770	 6.4970
 4.5810	 6.5000
 4.5850	 6.5030
 4.5890	 6.5490
 4.5930	 6.5620
 4.5970	 6.5350
 4.6010	 6.5170
 4.6050	 6.5380
 4.6090	 6.5480
 4.6130	 6.5360
 4.6170	 6.5180
 4.6220	 6.5190
 4.6260	 6.4810
 4.6300	 6.4870
 4.6340	 6.5170
 4.6380	 6.4970
 4.6420	 6.4810
 4.6460	 6.5040
 4.6510	 6.5160
 4.6550	 6.5240
 4.6590	 6.5010
 4.6630	 6.4990
 4.6670	 6.4950
 4.6720	 6.5260
 4.6760	 6.5280
 4.6800	 6.4880
 4.6840	 6.4780
 4.6880	 6.5010
 4.6930	 6.5100
 4.6970	 6.4940
 4.7010	 6.4870
 4.7050	 6.5040
 4.7100	 6.4810
 4.7140	 6.5000
 4.7180	 6.5110
 4.7230	 6.4730
 4.7270	 6.4410
 4.7310	 6.4510
 4.7360	 6.4650
 4.7400	 6.4820
 4.7440	 6.4900
 4.7490	 6.4880
 4.7530	 6.4640
 4.7570	 6.4700
 4.7620	 6.4760
 4.7660	 6.4660
 4.7700	 6.4630
 4.7750	 6.5080
 4.7790	 6.5360
 4.7840	 6.5170
 4.7880	 6.4780
 4.7920	 6.4780
 4.7970	 6.4640
 4.8010	 6.4730
 4.8060	 6.4510
 4.8100	 6.4430
 4.8150	 6.4740
 4.8190	 6.4900
 4.8240	 6.5010
 4.8280	 6.5300
 4.8330	 6.5140
 4.8370	 6.4870
 4.8420	 6.4390
 4.8460	 6.4650
 4.8510	 6.4780
 4.8550	 6.4920
 4.8600	 6.5270
 4.8640	 6.5760
 4.8690	 6.5450
 4.8740	 6.5060
 4.8780	 6.4820
 4.8830	 6.5090
 4.8870	 6.5060
 4.8920	 6.4950
 4.8970	 6.4950
 4.9010	 6.5130
 4.9060	 6.5090
 4.9100	 6.5060
 4.9150	 6.4830
 4.9200	 6.5030
 4.9240	 6.4950
 4.9290	 6.4970
 4.9340	 6.5050
 4.9390	 6.5190
 4.9430	 6.5010
 4.9480	 6.5000
 4.9530	 6.5010
 4.9570	 6.4800
 4.9620	 6.4780
 4.9670	 6.5290
 4.9720	 6.5380
 4.9760	 6.5350
 4.9810	 6.5240
 4.9860	 6.5500
 4.9910	 6.5770
 4.9960	 6.6170
 5.0000	 6.6150
 5.0050	 6.6070
 5.0100	 6.5470
 5.0150	 6.5210
 5.0200	 6.5060
 5.0250	 6.5410
 5.0300	 6.5580
 5.0340	 6.5830
 5.0390	 6.5770
 5.0440	 6.5660
 5.0490	 6.5420
 5.0540	 6.5510
 5.0590	 6.5640
 5.0640	 6.5860
 5.0690	 6.5700
 5.0740	 6.5850
 5.0790	 6.5950
 5.0840	 6.5830
 5.0890	 6.6070
 5.0940	 6.6370
 5.0990	 6.6400
 5.1040	 6.6500
 5.1090	 6.6310
 5.1140	 6.6460
 5.1190	 6.6770
 5.1240	 6.7040
 5.1290	 6.7090
 5.1340	 6.6960
 5.1390	 6.6680
 5.1440	 6.6140
 5.1490	 6.5360
 5.1550	 6.6240
 5.1600	 6.6670
 5.1650	 6.6870
 5.1700	 6.6640
 5.1750	 6.6780
 5.1800	 6.6800
 5.1850	 6.6780
 5.1910	 6.6710
 5.1960	 6.6660
 5.2010	 6.6050
 5.2060	 6.6080
 5.2110	 6.5360
 5.2170	 6.5760
 5.2220	 6.7050
 5.2270	 6.7140
 5.2330	 6.6800
 5.2380	 6.6660
 5.2430	 6.6790
 5.2480	 6.7150
 5.2540	 6.6980
 5.2590	 6.7380
 5.2640	 6.7400
 5.2700	 6.7350
 5.2750	 6.6740
 5.2800	 6.6590
 5.2860	 6.6600
 5.2910	 6.6060
 5.2970	 6.6180
 5.3020	 6.6720
 5.3080	 6.6690
 5.3130	 6.7000
 5.3180	 6.7070
 5.3240	 6.7320
 5.3290	 6.7140
 5.3350	 6.7020
 5.3400	 6.6600
 5.3460	 6.5170
 5.3510	 6.3590
 5.3570	 6.4730
 5.3620	 6.5810
 5.3680	 6.6460
 5.3740	 6.6450
 5.3790	 6.6420
 5.3850	 6.6570
 5.3900	 6.6950
 5.3960	 6.6800
 5.4010	 6.6820
 5.4070	 6.6210
 5.4130	 6.5710
 5.4180	 6.3700
 5.4240	 6.2460
 5.4300	 6.4800
 5.4350	 6.6420
 5.4410	 6.6150
 5.4470	 6.5770
 5.4530	 6.5770
 5.4580	 6.5160
 5.4640	 6.2850
 5.4700	 6.3220
 5.4760	 6.3800
 5.4810	 6.3800
 5.4870	 6.4800
 5.4930	 6.5410
 5.4990	 6.5420
 5.5050	 6.5370
 5.5110	 6.5290
 5.5160	 6.4810
 5.5220	 6.3900
 5.5280	 6.4000
 5.5340	 6.4340
 5.5400	 6.4430
 5.5460	 6.3800
 5.5520	 6.2770
 5.5580	 6.2500
 5.5640	 6.3130
 5.5700	 6.2750
 5.5760	 6.0450
 5.5820	 5.9240
 5.5880	 6.1810
 5.5940	 6.3020
 5.6000	 6.2470
 5.6060	 6.2280
 5.6120	 6.2210
 5.6180	 6.1180
 5.6240	 6.1630
 5.6300	 6.1280
 5.6360	 5.9270
 5.6420	 5.6270
 5.6490	 5.7870
 5.6550	 5.9110
 5.6610	 5.9940
 5.6670	 6.0530
 5.6730	 5.8820
 5.6800	 5.8230
 5.6860	 5.8980
 5.6920	 5.7880
 5.6980	 5.8380
 5.7050	 5.7290
 5.7110	 5.4880
 5.7170	 5.4640
 5.7230	 5.5380
 5.7300	 5.5760
 5.7360	 5.4820
 5.7420	 5.3340
 5.7490	 5.2640
 5.7550	 5.3920
 5.7620	 5.1630
 5.7680	 4.8530
 5.7740	 5.3010
 5.7810	 5.6000
 5.7870	 5.7860
 5.7940	 5.9150
 5.8000	 5.9690
 5.8070	 5.9760
 5.8130	 5.8510
 5.8200	 5.3820
 5.8260	 5.3640
 5.8330	 5.7210
 5.8390	 6.0220
 5.8460	 6.1290
 5.8530	 6.0980
 5.8590	 5.9470
 5.8660	 5.8940
 5.8730	 5.9270
 5.8790	 5.3910
 5.8860	 5.3870
 5.8930	 5.6440
 5.8990	 5.6060
 5.9060	 6.1420
 5.9130	 6.2570
 5.9190	 6.1850
 5.9260	 6.1160
 5.9330	 5.6800
 5.9400	 5.3950
 5.9470	 5.9680
 5.9530	 6.2470
 5.9600	 6.3340
 5.9670	 5.9810
 5.9740	 6.0060
 5.9810	 6.1200
 5.9880	 5.9080
 5.9950	 5.9490
 6.0020	 6.3130
 6.0090	 6.2910
 6.0160	 6.1440
 6.0230	 6.2690
 6.0300	 6.3910
 6.0370	 6.2380
 6.0440	 5.5740
 6.0510	 5.0720
 6.0580	 5.8540
 6.0650	 6.0940
 6.0720	 5.7780
 6.0790	 5.9440
 6.0860	 6.3680
 6.0930	 6.4200
 6.1010	 6.3640
 6.1080	 5.9570
 6.1150	 5.6440
 6.1220	 6.0200
 6.1290	 6.4340
 6.1370	 6.4130
 6.1440	 6.3500
 6.1510	 6.3140
 6.1580	 6.1560
 6.1660	 6.2110
 6.1730	 6.4140
 6.1800	 6.1070
 6.1880	 5.9260
 6.1950	 6.2840
 6.2030	 6.4700
 6.2100	 6.4280
 6.2180	 6.4190
 6.2250	 6.3990
 6.2320	 6.4480
 6.2400	 6.4550
 6.2480	 6.4950
 6.2550	 6.4770
 6.2630	 6.4940
 6.2700	 6.4560
 6.2780	 6.4850
 6.2850	 6.4730
 6.2930	 6.5230
 6.3010	 6.5690
 6.3080	 6.5570
 6.3160	 6.4940
 6.3240	 6.5240
 6.3310	 6.4600
 6.3390	 6.1000
 6.3470	 5.8580
 6.3550	 6.3110
 6.3620	 6.3250
 6.3700	 6.0110
 6.3780	 6.1360
 6.3860	 6.3040
 6.3940	 6.2470
 6.4020	 6.1280
 6.4100	 5.3320
 6.4180	 5.0990
 6.4260	 5.6860
 6.4340	 5.9610
 6.4420	 6.1290
 6.4500	 6.2300
 6.4580	 6.2560
 6.4660	 6.2180
 6.4740	 5.8590
 6.4820	 5.6020
 6.4900	 5.1840
 6.4980	 5.2980
 6.5060	 5.9190
 6.5140	 6.0780
 6.5230	 5.8740
 6.5310	 6.1150
 6.5390	 6.1050
 6.5470	 5.9460
 6.5560	 5.8130
 6.5640	 5.7600
 6.5720	 5.4160
 6.5800	 5.5980
 6.5890	 5.7020
 6.5970	 5.8070
 6.6060	 6.0290
 6.6140	 6.0330
 6.6230	 5.8960
 6.6310	 5.4830
 6.6390	 5.2070
 6.6480	 5.8190
 6.6570	 6.2200
 6.6650	 6.1540
 6.6740	 5.9040
 6.6820	 5.8080
 6.6910	 6.0120
 6.7000	 6.1740
 6.7080	 5.8660
 6.7170	 5.8340
 6.7260	 6.0050
 6.7340	 6.2070
 6.7430	 6.2190
 6.7520	 6.2150
 6.7610	 6.1800
 6.7690	 6.0330
 6.7780	 5.8810
 6.7870	 5.8190
 6.7960	 5.8430
 6.8050	 6.1320
 6.8140	 6.1410
 6.8230	 6.0370
 6.8320	 6.1990
 6.8410	 6.5180
 6.8500	 6.1460
 6.8590	 5.5450
 6.8680	 5.4710
 6.8770	 6.0990
 6.8860	 6.3050
 6.8960	 6.3490
 6.9050	 6.2250
 6.9140	 6.3380
 6.9230	 6.4010
 6.9320	 6.4180
 6.9420	 6.4070
 6.9510	 6.2720
 6.9600	 5.8940
 6.9700	 6.1590
 6.9790	 6.3970
 6.9880	 6.4200
 6.9980	 6.3670
 7.0070	 6.4630
 7.0170	 6.3590
 7.0260	 6.3430
 7.0360	 6.2100
 7.0450	 5.9270
 7.0550	 6.0520
 7.0650	 6.4110
 7.0740	 6.4240
 7.0840	 6.4530
 7.0940	 6.4620
 7.1030	 6.4880
 7.1130	 6.3940
 7.1230	 6.4030
 7.1330	 6.3610
 7.1420	 6.2550
 7.1520	 6.1290
 7.1620	 6.1370
 7.1720	 6.0640
 7.1820	 6.3070
 7.1920	 6.3260
 7.2020	 6.2540
 7.2120	 6.2160
 7.2220	 6.3970
 7.2320	 6.4020
 7.2420	 6.4190
 7.2520	 6.3260
 7.2620	 6.3360
 7.2730	 6.2160
 7.2830	 6.2630
 7.2930	 6.3310
 7.3030	 6.3870
 7.3140	 6.3400
 7.3240	 6.3410
 7.3340	 6.1730
 7.3450	 6.1720
 7.3550	 6.2590
 7.3660	 6.3740
 7.3760	 6.3900
 7.3870	 6.4730
 7.3970	 6.4220
 7.4080	 6.4470
 7.4180	 6.4110
 7.4290	 6.4370
 7.4400	 6.4130
 7.4500	 6.4320
 7.4610	 6.3110
 7.4720	 6.3170
 7.4830	 6.3240
 7.4930	 6.3920
 7.5040	 6.3500
 7.5150	 6.3880
 7.5260	 6.3480
 7.5370	 6.4030
 7.5480	 6.3700
 7.5590	 6.3650
 7.5700	 6.3080
 7.5810	 6.3200
 7.5920	 6.2810
 7.6030	 6.3710
 7.6140	 6.3070
 7.6260	 6.3480
 7.6370	 6.3040
 7.6480	 6.3520
 7.6590	 6.3410
 7.6710	 6.3670
 7.6820	 6.2970
 7.6940	 6.3560
 7.7050	 6.3380
 7.7160	 6.3540
 7.7280	 6.3130
 7.7390	 6.3240
 7.7510	 6.2770
 7.7630	 6.3280
 7.7740	 6.2420
 7.7860	 6.2420
 7.7980	 6.2520
 7.8090	 6.3450
 7.8210	 6.2500
 7.8330	 6.2440
 7.8450	 6.1840
 7.8570	 6.2130
 7.8690	 6.1880
 7.8810	 6.2950
 7.8930	 6.2650
 7.9050	 6.2890
 7.9170	 6.2100
 7.9290	 6.2140
 7.9410	 6.1500
 7.9530	 6.2190
 7.9650	 6.2160
 7.9780	 6.2460
 7.9900	 6.1670
 8.0020	 6.2410
 8.0150	 6.2170
 8.0270	 6.2760
 8.0390	 6.2570
 8.0520	 6.3370
 8.0640	 6.3090
 8.0770	 6.3780
 8.0900	 6.3420
 8.1020	 6.4140
 8.1150	 6.3830
 8.1280	 6.5310
 8.1400	 6.4890
 8.1530	 6.5120
 8.1660	 6.4450
 8.1790	 6.5130
 8.1920	 6.5480
 8.2050	 6.6510
 8.2180	 6.5710
 8.2310	 6.6260
 8.2440	 6.6140
 8.2570	 6.6230
 8.2700	 6.5530
 8.2830	 6.6750
 8.2970	 6.5820
 8.3100	 6.6400
 8.3230	 6.6170
 8.3370	 6.7210
 8.3500	 6.7160
 8.3640	 6.7780
 8.3770	 6.6990
 8.3910	 6.7720
 8.4040	 6.7540
 8.4180	 6.8350
 8.4320	 6.7860
 8.4450	 6.9360
 8.4590	 6.9260
 8.4730	 7.0010
 8.4870	 6.9420
 8.5010	 7.0290
 8.5150	 6.9720
 8.5290	 7.0660
 8.5430	 7.0700
 8.5570	 7.1090
 8.5710	 7.0530
 8.5850	 7.1310
 8.5990	 7.0720
 8.6140	 7.1230
 8.6280	 7.0680
 8.6420	 7.1180
 8.6570	 7.0630
 8.6710	 7.1790
 8.6860	 7.1410
 8.7000	 7.2260
 8.7150	 7.1880
 8.7300	 7.2980
 8.7440	 7.2470
 8.7590	 7.3070
 8.7740	 7.2430
 8.7890	 7.3380
 8.8040	 7.2450
 8.8190	 7.3350
 8.8340	 7.2960
 8.8490	 7.3440
 8.8640	 7.2230
 8.8790	 7.3120
 8.8940	 7.2900
 8.9100	 7.3670
 8.9250	 7.2260
 8.9400	 7.2170
 8.9560	 7.0630
 8.9710	 7.1230
 8.9870	 7.0680
 9.0020	 7.1580
 9.0180	 7.0680
 9.0340	 7.0900
 9.0500	 6.9740
 9.0650	 7.0480
 9.0810	 7.0360
 9.0970	 7.1380
 9.1130	 7.0880
 9.1290	 7.1200
 9.1450	 7.0740
 9.1620	 7.2490
 9.1780	 7.1460
 9.1940	 7.1420
 9.2100	 7.0620
 9.2270	 7.1730
 9.2430	 7.0370
 9.2600	 7.1630
 9.2760	 7.1570
 9.2930	 7.1700
 9.3100	 6.9920
 9.3260	 7.0670
 9.3430	 6.9680
 9.3600	 6.9580
 9.3770	 6.8800
 9.3940	 6.8930
 9.4110	 6.7800
 9.4280	 6.8130
 9.4450	 6.6700
 9.4620	 6.7030
 9.4800	 6.5970
 9.4970	 6.7190
 9.5150	 6.6360
 9.5320	 6.7040
 9.5500	 6.6030
 9.5670	 6.7470
 9.5850	 6.7090
 9.6030	 6.8040
 9.6200	 6.6890
 9.6380	 6.6730
 9.6560	 6.5390
 9.6740	 6.6320
 9.6920	 6.5690
 9.7110	 6.6100
 9.7290	 6.5310
 9.7470	 6.6230
 9.7650	 6.5150
 9.7840	 6.5550
 9.8020	 6.4760
 9.8210	 6.5650
 9.8390	 6.4420
 9.8580	 6.5030
 9.8770	 6.3880
 9.8960	 6.4750
 9.9150	 6.4810
 9.9340	 6.5890
 9.9530	 6.4490
 9.9720	 6.5380
 9.9910	 6.4830
10.0100	 6.5890
10.0300	 6.5280
10.0490	 6.5760
10.0690	 6.4910
10.0880	 6.6370
10.1080	 6.5560
10.1280	 6.6620
10.1480	 6.6270
10.1670	 6.7150
10.1870	 6.6920
10.2070	 6.8320
10.2280	 6.7900
10.2480	 6.9200
10.2680	 6.8470
10.2890	 6.9090
10.3090	 6.8830
10.3300	 7.0160
10.3500	 6.8860
10.3710	 6.9240
10.3920	 6.8720
10.4120	 6.9330
10.4330	 6.8240
10.4540	 6.9320
10.4760	 6.9180
10.4970	 7.0600
10.5180	 7.0310
10.5390	 7.1200
10.5610	 7.0200
10.5820	 7.1240
10.6040	 7.0650
10.6260	 7.2130
10.6480	 7.1770
10.6700	 7.2310
10.6920	 7.1380
10.7140	 7.2700
10.7360	 7.1410
10.7580	 7.2280
10.7800	 7.1870
10.8030	 7.3060
10.8250	 7.2310
10.8480	 7.3410
10.8710	 7.2840
10.8940	 7.4170
10.9170	 7.3230
10.9400	 7.4100
10.9630	 7.3500
10.9860	 7.4450
11.0090	 7.3350
11.0330	 7.4770
11.0560	 7.3780
11.0800	 7.4580
11.1040	 7.3280
11.1270	 7.4120
11.1510	 7.3680
11.1750	 7.5080
11.2000	 7.3860
11.2240	 7.4580
11.2480	 7.3460
11.2730	 7.4510
11.2970	 7.4430
11.3220	 7.6190
11.3470	 7.5050
11.3720	 7.5720
11.3970	 7.4560
11.4220	 7.5360
11.4470	 7.3790
11.4720	 7.4650
11.4980	 7.4940
11.5230	 7.6530
11.5490	 7.5920
11.5750	 7.7090
11.6000	 7.5650
11.6260	 7.6450
11.6530	 7.5090
11.6790	 7.6000
11.7050	 7.5010
11.7320	 7.6220
11.7580	 7.5540
11.7850	 7.6890
11.8120	 7.5320
11.8390	 7.6230
11.8660	 7.5400
11.8930	 7.5830
11.9200	 7.4540
11.9480	 7.6680
11.9760	 7.5040
12.0030	 7.5130
12.0310	 7.4060
12.0590	 7.5190
12.0870	 7.4150
12.1150	 7.6020
12.1440	 7.4060
12.1720	 7.5210
12.2010	 7.4550
12.2300	 7.5780
12.2590	 7.4630
12.2880	 7.6320
12.3170	 7.3770
12.3460	 7.5020
12.3760	 7.4280
12.4050	 7.5170
12.4350	 7.4440
12.4650	 7.6310
12.4950	 7.4160
12.5250	 7.4620
12.5550	 7.3340
12.5860	 7.5170
12.6170	 7.3160
12.6470	 7.2700
12.6780	 7.0720
12.7090	 7.2720
12.7410	 7.1150
12.7720	 7.2280
12.8030	 7.0700
12.8350	 7.1510
12.8670	 7.0250
12.8990	 7.1970
12.9310	 7.0290
12.9640	 7.1270
12.9960	 6.9020
13.0290	 7.0140
13.0610	 6.9060
13.0940	 7.1490
13.1280	 6.9860
13.1610	 6.9760
13.1940	 6.7650
13.2280	 7.1260
13.2620	 6.8660
13.2960	 6.7880
13.3300	 6.6180
13.3640	 6.8890
13.3990	 6.7420
13.4340	 6.7750
13.4690	 6.5770
13.5040	 6.8040
13.5390	 6.6200
13.5740	 6.6720
13.6100	 6.4760
13.6460	 6.6140
13.6820	 6.5140
13.7180	 6.7680
13.7540	 6.5040
13.7910	 6.6090
13.8280	 6.5490
13.8650	 6.8370
13.9020	 6.7100
13.9390	 6.8670
13.9770	 6.6000
14.0150	 6.7520
14.0530	 6.5260
14.0910	 6.6990
14.1290	 6.5140
14.1680	 6.6580
14.2070	 6.3700
14.2460	 6.6050
14.2850	 6.4550
14.3240	 6.5950
14.3640	 6.2830
14.4040	 6.4960
14.4440	 6.2050
14.4840	 6.3380
14.5250	 5.9960
14.5660	 6.3390
14.6070	 6.1570
14.6480	 6.4200
14.6900	 6.0970
14.7310	 6.4920
14.7730	 6.2520
14.8150	 6.3690
14.8580	 5.9790
14.9010	 6.1930
14.9440	 5.9610
14.9870	 6.3680
15.0300	 5.6740
15.0740	 5.9840
15.1180	 5.9000
15.1620	 6.2000
15.2060	 5.6680
15.2510	 6.0500
15.2960	 5.8150
15.3410	 6.3080
15.3870	 5.8590
