Name: Salix babylonica
Type: vegetation
Class: Tree
Genus: Salix
Species: babylonica
Sample No.: JPL183
Owner: JPL
Wavelength Range: VSWIR
Origin: 34.12797; -118.11609; WGS84
Collection Date: 10/3/2016
Description: Samples were collected at the Huntington Garden in San Marino California as part of a JPL Subcontract studying HyTES imagery. Samples were taken to JPL and processed within 48 hours of collection. The same leaves were processed in the Nicolet and then measured using the ASD.
Measurement: Bidirectional reflectance
First Column: X
Second Column: Y
X Units: Wavelength (micrometer)
Y Units: Reflectance (percentage)
First X Value: 0.35
Last X Value: 2.5
Number of X Values: 2151
Additional Information: vegetation.tree.salix.babylonica.vswir.jpl183.jpl.asd.ancillary.txt

 0.3500	 6.8390
 0.3510	 6.8550
 0.3520	 6.9070
 0.3530	 6.8880
 0.3540	 6.7670
 0.3550	 6.6990
 0.3560	 6.7290
 0.3570	 6.7600
 0.3580	 6.6550
 0.3590	 6.6030
 0.3600	 6.6330
 0.3610	 6.6770
 0.3620	 6.5590
 0.3630	 6.5500
 0.3640	 6.6170
 0.3650	 6.6570
 0.3660	 6.6420
 0.3670	 6.6040
 0.3680	 6.5520
 0.3690	 6.4850
 0.3700	 6.5340
 0.3710	 6.5960
 0.3720	 6.5940
 0.3730	 6.5470
 0.3740	 6.5030
 0.3750	 6.4690
 0.3760	 6.4460
 0.3770	 6.4840
 0.3780	 6.5140
 0.3790	 6.5110
 0.3800	 6.4980
 0.3810	 6.4840
 0.3820	 6.4840
 0.3830	 6.4900
 0.3840	 6.4380
 0.3850	 6.4560
 0.3860	 6.4990
 0.3870	 6.4820
 0.3880	 6.4880
 0.3890	 6.4800
 0.3900	 6.4540
 0.3910	 6.4400
 0.3920	 6.4610
 0.3930	 6.4940
 0.3940	 6.5040
 0.3950	 6.4530
 0.3960	 6.4360
 0.3970	 6.4340
 0.3980	 6.3870
 0.3990	 6.4180
 0.4000	 6.4540
 0.4010	 6.4540
 0.4020	 6.4520
 0.4030	 6.4440
 0.4040	 6.4330
 0.4050	 6.4250
 0.4060	 6.4330
 0.4070	 6.4380
 0.4080	 6.4430
 0.4090	 6.4660
 0.4100	 6.4690
 0.4110	 6.4630
 0.4120	 6.4600
 0.4130	 6.4520
 0.4140	 6.4490
 0.4150	 6.4500
 0.4160	 6.4560
 0.4170	 6.4750
 0.4180	 6.4800
 0.4190	 6.4730
 0.4200	 6.4730
 0.4210	 6.4810
 0.4220	 6.4850
 0.4230	 6.4780
 0.4240	 6.4720
 0.4250	 6.4770
 0.4260	 6.4830
 0.4270	 6.4750
 0.4280	 6.4810
 0.4290	 6.4870
 0.4300	 6.4830
 0.4310	 6.4770
 0.4320	 6.4770
 0.4330	 6.4790
 0.4340	 6.4730
 0.4350	 6.4680
 0.4360	 6.4680
 0.4370	 6.4740
 0.4380	 6.4860
 0.4390	 6.4820
 0.4400	 6.4800
 0.4410	 6.4900
 0.4420	 6.5020
 0.4430	 6.5040
 0.4440	 6.5040
 0.4450	 6.5120
 0.4460	 6.5160
 0.4470	 6.5190
 0.4480	 6.5240
 0.4490	 6.5330
 0.4500	 6.5340
 0.4510	 6.5340
 0.4520	 6.5390
 0.4530	 6.5400
 0.4540	 6.5390
 0.4550	 6.5410
 0.4560	 6.5470
 0.4570	 6.5520
 0.4580	 6.5480
 0.4590	 6.5380
 0.4600	 6.5430
 0.4610	 6.5460
 0.4620	 6.5490
 0.4630	 6.5550
 0.4640	 6.5530
 0.4650	 6.5490
 0.4660	 6.5490
 0.4670	 6.5520
 0.4680	 6.5540
 0.4690	 6.5510
 0.4700	 6.5420
 0.4710	 6.5470
 0.4720	 6.5480
 0.4730	 6.5470
 0.4740	 6.5470
 0.4750	 6.5530
 0.4760	 6.5580
 0.4770	 6.5590
 0.4780	 6.5590
 0.4790	 6.5610
 0.4800	 6.5630
 0.4810	 6.5590
 0.4820	 6.5560
 0.4830	 6.5560
 0.4840	 6.5580
 0.4850	 6.5630
 0.4860	 6.5610
 0.4870	 6.5570
 0.4880	 6.5590
 0.4890	 6.5680
 0.4900	 6.5740
 0.4910	 6.5780
 0.4920	 6.5820
 0.4930	 6.5880
 0.4940	 6.5940
 0.4950	 6.6010
 0.4960	 6.6110
 0.4970	 6.6240
 0.4980	 6.6360
 0.4990	 6.6460
 0.5000	 6.6540
 0.5010	 6.6640
 0.5020	 6.6810
 0.5030	 6.7080
 0.5040	 6.7300
 0.5050	 6.7510
 0.5060	 6.7740
 0.5070	 6.8050
 0.5080	 6.8410
 0.5090	 6.8800
 0.5100	 6.9180
 0.5110	 6.9590
 0.5120	 7.0100
 0.5130	 7.0710
 0.5140	 7.1410
 0.5150	 7.2190
 0.5160	 7.3020
 0.5170	 7.3860
 0.5180	 7.4810
 0.5190	 7.5840
 0.5200	 7.6940
 0.5210	 7.8090
 0.5220	 7.9290
 0.5230	 8.0520
 0.5240	 8.1780
 0.5250	 8.3050
 0.5260	 8.4230
 0.5270	 8.5340
 0.5280	 8.6460
 0.5290	 8.7540
 0.5300	 8.8530
 0.5310	 8.9440
 0.5320	 9.0300
 0.5330	 9.1020
 0.5340	 9.1660
 0.5350	 9.2250
 0.5360	 9.2760
 0.5370	 9.3210
 0.5380	 9.3590
 0.5390	 9.3920
 0.5400	 9.4180
 0.5410	 9.4420
 0.5420	 9.4630
 0.5430	 9.4850
 0.5440	 9.5070
 0.5450	 9.5300
 0.5460	 9.5520
 0.5470	 9.5700
 0.5480	 9.5860
 0.5490	 9.6020
 0.5500	 9.6170
 0.5510	 9.6260
 0.5520	 9.6290
 0.5530	 9.6250
 0.5540	 9.6120
 0.5550	 9.5880
 0.5560	 9.5560
 0.5570	 9.5150
 0.5580	 9.4670
 0.5590	 9.4100
 0.5600	 9.3450
 0.5610	 9.2790
 0.5620	 9.2070
 0.5630	 9.1320
 0.5640	 9.0600
 0.5650	 8.9780
 0.5660	 8.8870
 0.5670	 8.7920
 0.5680	 8.6990
 0.5690	 8.6070
 0.5700	 8.5180
 0.5710	 8.4330
 0.5720	 8.3550
 0.5730	 8.2820
 0.5740	 8.2190
 0.5750	 8.1680
 0.5760	 8.1210
 0.5770	 8.0760
 0.5780	 8.0290
 0.5790	 7.9850
 0.5800	 7.9450
 0.5810	 7.9070
 0.5820	 7.8690
 0.5830	 7.8350
 0.5840	 7.8000
 0.5850	 7.7640
 0.5860	 7.7360
 0.5870	 7.7070
 0.5880	 7.6770
 0.5890	 7.6460
 0.5900	 7.6270
 0.5910	 7.6190
 0.5920	 7.6160
 0.5930	 7.6100
 0.5940	 7.6010
 0.5950	 7.5890
 0.5960	 7.5760
 0.5970	 7.5610
 0.5980	 7.5470
 0.5990	 7.5340
 0.6000	 7.5210
 0.6010	 7.5090
 0.6020	 7.4950
 0.6030	 7.4800
 0.6040	 7.4640
 0.6050	 7.4430
 0.6060	 7.4210
 0.6070	 7.3990
 0.6080	 7.3720
 0.6090	 7.3430
 0.6100	 7.3080
 0.6110	 7.2670
 0.6120	 7.2410
 0.6130	 7.2220
 0.6140	 7.2040
 0.6150	 7.1840
 0.6160	 7.1630
 0.6170	 7.1420
 0.6180	 7.1240
 0.6190	 7.1060
 0.6200	 7.0900
 0.6210	 7.0760
 0.6220	 7.0650
 0.6230	 7.0530
 0.6240	 7.0430
 0.6250	 7.0380
 0.6260	 7.0330
 0.6270	 7.0280
 0.6280	 7.0210
 0.6290	 7.0160
 0.6300	 7.0130
 0.6310	 7.0110
 0.6320	 7.0090
 0.6330	 7.0050
 0.6340	 6.9980
 0.6350	 6.9880
 0.6360	 6.9730
 0.6370	 6.9560
 0.6380	 6.9390
 0.6390	 6.9220
 0.6400	 6.9020
 0.6410	 6.8810
 0.6420	 6.8620
 0.6430	 6.8450
 0.6440	 6.8280
 0.6450	 6.8090
 0.6460	 6.7910
 0.6470	 6.7780
 0.6480	 6.7690
 0.6490	 6.7610
 0.6500	 6.7560
 0.6510	 6.7530
 0.6520	 6.7480
 0.6530	 6.7450
 0.6540	 6.7450
 0.6550	 6.7460
 0.6560	 6.7460
 0.6570	 6.7450
 0.6580	 6.7410
 0.6590	 6.7400
 0.6600	 6.7370
 0.6610	 6.7330
 0.6620	 6.7330
 0.6630	 6.7340
 0.6640	 6.7350
 0.6650	 6.7380
 0.6660	 6.7440
 0.6670	 6.7510
 0.6680	 6.7600
 0.6690	 6.7730
 0.6700	 6.7910
 0.6710	 6.8110
 0.6720	 6.8340
 0.6730	 6.8560
 0.6740	 6.8800
 0.6750	 6.9090
 0.6760	 6.9440
 0.6770	 6.9780
 0.6780	 7.0160
 0.6790	 7.0560
 0.6800	 7.0940
 0.6810	 7.1380
 0.6820	 7.1840
 0.6830	 7.2280
 0.6840	 7.2680
 0.6850	 7.3070
 0.6860	 7.3480
 0.6870	 7.3880
 0.6880	 7.4270
 0.6890	 7.4730
 0.6900	 7.5350
 0.6910	 7.6150
 0.6920	 7.7200
 0.6930	 7.8550
 0.6940	 8.0280
 0.6950	 8.2430
 0.6960	 8.5100
 0.6970	 8.8280
 0.6980	 9.1940
 0.6990	 9.6140
 0.7000	10.0890
 0.7010	10.6130
 0.7020	11.1770
 0.7030	11.7810
 0.7040	12.4210
 0.7050	13.0940
 0.7060	13.7960
 0.7070	14.5270
 0.7080	15.2850
 0.7090	16.0670
 0.7100	16.8720
 0.7110	17.7020
 0.7120	18.5560
 0.7130	19.4300
 0.7140	20.3230
 0.7150	21.2350
 0.7160	22.1620
 0.7170	23.1040
 0.7180	24.0550
 0.7190	25.0140
 0.7200	25.9780
 0.7210	26.9410
 0.7220	27.9030
 0.7230	28.8580
 0.7240	29.8040
 0.7250	30.7340
 0.7260	31.6450
 0.7270	32.5370
 0.7280	33.4020
 0.7290	34.2400
 0.7300	35.0490
 0.7310	35.8290
 0.7320	36.5760
 0.7330	37.2910
 0.7340	37.9730
 0.7350	38.6200
 0.7360	39.2330
 0.7370	39.8120
 0.7380	40.3570
 0.7390	40.8710
 0.7400	41.3530
 0.7410	41.8020
 0.7420	42.2190
 0.7430	42.6070
 0.7440	42.9640
 0.7450	43.2910
 0.7460	43.5930
 0.7470	43.8690
 0.7480	44.1200
 0.7490	44.3480
 0.7500	44.5580
 0.7510	44.7490
 0.7520	44.9210
 0.7530	45.0760
 0.7540	45.2130
 0.7550	45.3390
 0.7560	45.4540
 0.7570	45.5560
 0.7580	45.6500
 0.7590	45.7350
 0.7600	45.8110
 0.7610	45.8760
 0.7620	45.9360
 0.7630	45.9910
 0.7640	46.0400
 0.7650	46.0810
 0.7660	46.1170
 0.7670	46.1510
 0.7680	46.1810
 0.7690	46.2080
 0.7700	46.2310
 0.7710	46.2500
 0.7720	46.2680
 0.7730	46.2860
 0.7740	46.3030
 0.7750	46.3160
 0.7760	46.3300
 0.7770	46.3430
 0.7780	46.3560
 0.7790	46.3680
 0.7800	46.3770
 0.7810	46.3880
 0.7820	46.4020
 0.7830	46.4140
 0.7840	46.4210
 0.7850	46.4270
 0.7860	46.4350
 0.7870	46.4380
 0.7880	46.4450
 0.7890	46.4500
 0.7900	46.4520
 0.7910	46.4550
 0.7920	46.4590
 0.7930	46.4620
 0.7940	46.4630
 0.7950	46.4640
 0.7960	46.4620
 0.7970	46.4600
 0.7980	46.4550
 0.7990	46.4510
 0.8000	46.4460
 0.8010	46.4390
 0.8020	46.4340
 0.8030	46.4300
 0.8040	46.4250
 0.8050	46.4170
 0.8060	46.4090
 0.8070	46.4010
 0.8080	46.3920
 0.8090	46.3820
 0.8100	46.3700
 0.8110	46.3590
 0.8120	46.3500
 0.8130	46.3350
 0.8140	46.3220
 0.8150	46.3100
 0.8160	46.2990
 0.8170	46.2870
 0.8180	46.2750
 0.8190	46.2640
 0.8200	46.2510
 0.8210	46.2350
 0.8220	46.2220
 0.8230	46.2100
 0.8240	46.1960
 0.8250	46.1850
 0.8260	46.1730
 0.8270	46.1610
 0.8280	46.1490
 0.8290	46.1380
 0.8300	46.1260
 0.8310	46.1120
 0.8320	46.1030
 0.8330	46.0930
 0.8340	46.0820
 0.8350	46.0720
 0.8360	46.0670
 0.8370	46.0600
 0.8380	46.0520
 0.8390	46.0470
 0.8400	46.0440
 0.8410	46.0430
 0.8420	46.0400
 0.8430	46.0330
 0.8440	46.0300
 0.8450	46.0290
 0.8460	46.0290
 0.8470	46.0280
 0.8480	46.0270
 0.8490	46.0270
 0.8500	46.0250
 0.8510	46.0280
 0.8520	46.0310
 0.8530	46.0330
 0.8540	46.0300
 0.8550	46.0320
 0.8560	46.0380
 0.8570	46.0450
 0.8580	46.0490
 0.8590	46.0550
 0.8600	46.0640
 0.8610	46.0730
 0.8620	46.0790
 0.8630	46.0850
 0.8640	46.0940
 0.8650	46.1040
 0.8660	46.1090
 0.8670	46.1170
 0.8680	46.1260
 0.8690	46.1350
 0.8700	46.1460
 0.8710	46.1550
 0.8720	46.1640
 0.8730	46.1770
 0.8740	46.1900
 0.8750	46.2030
 0.8760	46.2150
 0.8770	46.2290
 0.8780	46.2410
 0.8790	46.2530
 0.8800	46.2640
 0.8810	46.2810
 0.8820	46.2880
 0.8830	46.2940
 0.8840	46.3070
 0.8850	46.3260
 0.8860	46.3390
 0.8870	46.3490
 0.8880	46.3600
 0.8890	46.3740
 0.8900	46.3870
 0.8910	46.3960
 0.8920	46.4030
 0.8930	46.4190
 0.8940	46.4340
 0.8950	46.4460
 0.8960	46.4570
 0.8970	46.4690
 0.8980	46.4800
 0.8990	46.4910
 0.9000	46.5050
 0.9010	46.5150
 0.9020	46.5210
 0.9030	46.5300
 0.9040	46.5490
 0.9050	46.5580
 0.9060	46.5640
 0.9070	46.5720
 0.9080	46.5810
 0.9090	46.5890
 0.9100	46.5940
 0.9110	46.5990
 0.9120	46.6060
 0.9130	46.6100
 0.9140	46.6140
 0.9150	46.6210
 0.9160	46.6220
 0.9170	46.6300
 0.9180	46.6380
 0.9190	46.6360
 0.9200	46.6350
 0.9210	46.6360
 0.9220	46.6360
 0.9230	46.6330
 0.9240	46.6330
 0.9250	46.6270
 0.9260	46.6190
 0.9270	46.6170
 0.9280	46.6040
 0.9290	46.5890
 0.9300	46.5780
 0.9310	46.5680
 0.9320	46.5570
 0.9330	46.5440
 0.9340	46.5310
 0.9350	46.5200
 0.9360	46.5020
 0.9370	46.4840
 0.9380	46.4660
 0.9390	46.4430
 0.9400	46.4330
 0.9410	46.4210
 0.9420	46.3950
 0.9430	46.3650
 0.9440	46.3360
 0.9450	46.3090
 0.9460	46.2810
 0.9470	46.2450
 0.9480	46.2070
 0.9490	46.1750
 0.9500	46.1500
 0.9510	46.0980
 0.9520	46.0560
 0.9530	46.0150
 0.9540	45.9650
 0.9550	45.9320
 0.9560	45.8940
 0.9570	45.8510
 0.9580	45.8100
 0.9590	45.7700
 0.9600	45.7390
 0.9610	45.7100
 0.9620	45.6760
 0.9630	45.6540
 0.9640	45.6330
 0.9650	45.6070
 0.9660	45.5770
 0.9670	45.5740
 0.9680	45.5620
 0.9690	45.5430
 0.9700	45.5320
 0.9710	45.5170
 0.9720	45.5080
 0.9730	45.4990
 0.9740	45.4850
 0.9750	45.4890
 0.9760	45.4820
 0.9770	45.4690
 0.9780	45.4660
 0.9790	45.4660
 0.9800	45.4750
 0.9810	45.4810
 0.9820	45.4760
 0.9830	45.4700
 0.9840	45.4750
 0.9850	45.4850
 0.9860	45.4910
 0.9870	45.4990
 0.9880	45.5000
 0.9890	45.4970
 0.9900	45.4920
 0.9910	45.4840
 0.9920	45.4980
 0.9930	45.5250
 0.9940	45.5390
 0.9950	45.5490
 0.9960	45.5510
 0.9970	45.5490
 0.9980	45.5500
 0.9990	45.5460
 1.0000	45.5700
 1.0010	46.4200
 1.0020	46.4250
 1.0030	46.4300
 1.0040	46.4390
 1.0050	46.4530
 1.0060	46.4680
 1.0070	46.4820
 1.0080	46.4930
 1.0090	46.4990
 1.0100	46.5100
 1.0110	46.5210
 1.0120	46.5320
 1.0130	46.5470
 1.0140	46.5590
 1.0150	46.5660
 1.0160	46.5770
 1.0170	46.5870
 1.0180	46.5960
 1.0190	46.6070
 1.0200	46.6180
 1.0210	46.6280
 1.0220	46.6380
 1.0230	46.6460
 1.0240	46.6490
 1.0250	46.6570
 1.0260	46.6680
 1.0270	46.6790
 1.0280	46.6920
 1.0290	46.7030
 1.0300	46.7120
 1.0310	46.7220
 1.0320	46.7340
 1.0330	46.7450
 1.0340	46.7530
 1.0350	46.7620
 1.0360	46.7710
 1.0370	46.7780
 1.0380	46.7860
 1.0390	46.7950
 1.0400	46.8030
 1.0410	46.8080
 1.0420	46.8150
 1.0430	46.8230
 1.0440	46.8290
 1.0450	46.8350
 1.0460	46.8420
 1.0470	46.8480
 1.0480	46.8550
 1.0490	46.8660
 1.0500	46.8730
 1.0510	46.8800
 1.0520	46.8820
 1.0530	46.8870
 1.0540	46.8910
 1.0550	46.8960
 1.0560	46.9030
 1.0570	46.9090
 1.0580	46.9130
 1.0590	46.9180
 1.0600	46.9230
 1.0610	46.9260
 1.0620	46.9300
 1.0630	46.9300
 1.0640	46.9280
 1.0650	46.9270
 1.0660	46.9240
 1.0670	46.9230
 1.0680	46.9230
 1.0690	46.9250
 1.0700	46.9240
 1.0710	46.9210
 1.0720	46.9210
 1.0730	46.9210
 1.0740	46.9210
 1.0750	46.9260
 1.0760	46.9240
 1.0770	46.9160
 1.0780	46.9130
 1.0790	46.9080
 1.0800	46.9050
 1.0810	46.9070
 1.0820	46.9060
 1.0830	46.9050
 1.0840	46.9020
 1.0850	46.8980
 1.0860	46.8910
 1.0870	46.8860
 1.0880	46.8820
 1.0890	46.8760
 1.0900	46.8710
 1.0910	46.8660
 1.0920	46.8610
 1.0930	46.8560
 1.0940	46.8510
 1.0950	46.8470
 1.0960	46.8440
 1.0970	46.8390
 1.0980	46.8320
 1.0990	46.8260
 1.1000	46.8170
 1.1010	46.8100
 1.1020	46.8040
 1.1030	46.8000
 1.1040	46.7930
 1.1050	46.7840
 1.1060	46.7770
 1.1070	46.7700
 1.1080	46.7620
 1.1090	46.7550
 1.1100	46.7460
 1.1110	46.7350
 1.1120	46.7250
 1.1130	46.7150
 1.1140	46.7050
 1.1150	46.6980
 1.1160	46.6860
 1.1170	46.6710
 1.1180	46.6560
 1.1190	46.6400
 1.1200	46.6190
 1.1210	46.5990
 1.1220	46.5780
 1.1230	46.5520
 1.1240	46.5250
 1.1250	46.4960
 1.1260	46.4660
 1.1270	46.4310
 1.1280	46.3960
 1.1290	46.3530
 1.1300	46.3070
 1.1310	46.2550
 1.1320	46.2000
 1.1330	46.1370
 1.1340	46.0650
 1.1350	45.9930
 1.1360	45.9160
 1.1370	45.8340
 1.1380	45.7510
 1.1390	45.6660
 1.1400	45.5740
 1.1410	45.4790
 1.1420	45.3840
 1.1430	45.2880
 1.1440	45.1920
 1.1450	45.0940
 1.1460	45.0000
 1.1470	44.9040
 1.1480	44.8130
 1.1490	44.7250
 1.1500	44.6430
 1.1510	44.5630
 1.1520	44.4900
 1.1530	44.4230
 1.1540	44.3600
 1.1550	44.3010
 1.1560	44.2480
 1.1570	44.1970
 1.1580	44.1530
 1.1590	44.1130
 1.1600	44.0790
 1.1610	44.0510
 1.1620	44.0250
 1.1630	43.9990
 1.1640	43.9770
 1.1650	43.9570
 1.1660	43.9400
 1.1670	43.9230
 1.1680	43.9110
 1.1690	43.8980
 1.1700	43.8830
 1.1710	43.8700
 1.1720	43.8580
 1.1730	43.8480
 1.1740	43.8390
 1.1750	43.8300
 1.1760	43.8200
 1.1770	43.8090
 1.1780	43.7960
 1.1790	43.7820
 1.1800	43.7680
 1.1810	43.7570
 1.1820	43.7450
 1.1830	43.7320
 1.1840	43.7180
 1.1850	43.7040
 1.1860	43.6910
 1.1870	43.6790
 1.1880	43.6670
 1.1890	43.6570
 1.1900	43.6480
 1.1910	43.6400
 1.1920	43.6320
 1.1930	43.6260
 1.1940	43.6200
 1.1950	43.6140
 1.1960	43.6090
 1.1970	43.6060
 1.1980	43.6030
 1.1990	43.6000
 1.2000	43.6010
 1.2010	43.6020
 1.2020	43.6040
 1.2030	43.6070
 1.2040	43.6110
 1.2050	43.6170
 1.2060	43.6240
 1.2070	43.6320
 1.2080	43.6390
 1.2090	43.6460
 1.2100	43.6540
 1.2110	43.6640
 1.2120	43.6730
 1.2130	43.6850
 1.2140	43.6990
 1.2150	43.7120
 1.2160	43.7250
 1.2170	43.7390
 1.2180	43.7540
 1.2190	43.7670
 1.2200	43.7820
 1.2210	43.7960
 1.2220	43.8100
 1.2230	43.8240
 1.2240	43.8390
 1.2250	43.8540
 1.2260	43.8700
 1.2270	43.8860
 1.2280	43.9010
 1.2290	43.9160
 1.2300	43.9300
 1.2310	43.9430
 1.2320	43.9550
 1.2330	43.9660
 1.2340	43.9760
 1.2350	43.9860
 1.2360	43.9960
 1.2370	44.0040
 1.2380	44.0120
 1.2390	44.0200
 1.2400	44.0300
 1.2410	44.0390
 1.2420	44.0480
 1.2430	44.0560
 1.2440	44.0630
 1.2450	44.0700
 1.2460	44.0780
 1.2470	44.0850
 1.2480	44.0900
 1.2490	44.0960
 1.2500	44.1010
 1.2510	44.1060
 1.2520	44.1110
 1.2530	44.1140
 1.2540	44.1170
 1.2550	44.1180
 1.2560	44.1190
 1.2570	44.1210
 1.2580	44.1200
 1.2590	44.1200
 1.2600	44.1220
 1.2610	44.1210
 1.2620	44.1180
 1.2630	44.1160
 1.2640	44.1120
 1.2650	44.1070
 1.2660	44.1020
 1.2670	44.0960
 1.2680	44.0900
 1.2690	44.0830
 1.2700	44.0760
 1.2710	44.0700
 1.2720	44.0610
 1.2730	44.0510
 1.2740	44.0390
 1.2750	44.0250
 1.2760	44.0120
 1.2770	44.0000
 1.2780	43.9880
 1.2790	43.9730
 1.2800	43.9570
 1.2810	43.9400
 1.2820	43.9210
 1.2830	43.9030
 1.2840	43.8830
 1.2850	43.8600
 1.2860	43.8340
 1.2870	43.8080
 1.2880	43.7810
 1.2890	43.7520
 1.2900	43.7230
 1.2910	43.6930
 1.2920	43.6630
 1.2930	43.6300
 1.2940	43.5950
 1.2950	43.5600
 1.2960	43.5240
 1.2970	43.4840
 1.2980	43.4440
 1.2990	43.4030
 1.3000	43.3600
 1.3010	43.3150
 1.3020	43.2670
 1.3030	43.2170
 1.3040	43.1650
 1.3050	43.1120
 1.3060	43.0580
 1.3070	43.0040
 1.3080	42.9470
 1.3090	42.8880
 1.3100	42.8300
 1.3110	42.7670
 1.3120	42.7030
 1.3130	42.6400
 1.3140	42.5720
 1.3150	42.5020
 1.3160	42.4310
 1.3170	42.3580
 1.3180	42.2810
 1.3190	42.2040
 1.3200	42.1260
 1.3210	42.0440
 1.3220	41.9630
 1.3230	41.8780
 1.3240	41.7930
 1.3250	41.7080
 1.3260	41.6210
 1.3270	41.5300
 1.3280	41.4370
 1.3290	41.3420
 1.3300	41.2440
 1.3310	41.1470
 1.3320	41.0490
 1.3330	40.9500
 1.3340	40.8500
 1.3350	40.7500
 1.3360	40.6470
 1.3370	40.5440
 1.3380	40.4420
 1.3390	40.3410
 1.3400	40.2390
 1.3410	40.1390
 1.3420	40.0390
 1.3430	39.9390
 1.3440	39.8400
 1.3450	39.7420
 1.3460	39.6450
 1.3470	39.5470
 1.3480	39.4470
 1.3490	39.3490
 1.3500	39.2520
 1.3510	39.1540
 1.3520	39.0580
 1.3530	38.9630
 1.3540	38.8660
 1.3550	38.7690
 1.3560	38.6710
 1.3570	38.5710
 1.3580	38.4700
 1.3590	38.3680
 1.3600	38.2650
 1.3610	38.1590
 1.3620	38.0490
 1.3630	37.9320
 1.3640	37.8100
 1.3650	37.6820
 1.3660	37.5510
 1.3670	37.4110
 1.3680	37.2630
 1.3690	37.1040
 1.3700	36.9320
 1.3710	36.7480
 1.3720	36.5510
 1.3730	36.3360
 1.3740	36.1080
 1.3750	35.8620
 1.3760	35.5960
 1.3770	35.3120
 1.3780	35.0030
 1.3790	34.6740
 1.3800	34.3220
 1.3810	33.9450
 1.3820	33.5500
 1.3830	33.1360
 1.3840	32.7020
 1.3850	32.2480
 1.3860	31.7790
 1.3870	31.2870
 1.3880	30.7900
 1.3890	30.2790
 1.3900	29.7550
 1.3910	29.2300
 1.3920	28.6980
 1.3930	28.1580
 1.3940	27.6190
 1.3950	27.0770
 1.3960	26.5410
 1.3970	26.0140
 1.3980	25.4960
 1.3990	24.9950
 1.4000	24.5070
 1.4010	24.0310
 1.4020	23.5770
 1.4030	23.1360
 1.4040	22.7140
 1.4050	22.3140
 1.4060	21.9320
 1.4070	21.5740
 1.4080	21.2370
 1.4090	20.9170
 1.4100	20.6190
 1.4110	20.3390
 1.4120	20.0780
 1.4130	19.8350
 1.4140	19.6080
 1.4150	19.3990
 1.4160	19.2060
 1.4170	19.0260
 1.4180	18.8620
 1.4190	18.7080
 1.4200	18.5660
 1.4210	18.4370
 1.4220	18.3170
 1.4230	18.2090
 1.4240	18.1090
 1.4250	18.0170
 1.4260	17.9340
 1.4270	17.8570
 1.4280	17.7880
 1.4290	17.7260
 1.4300	17.6700
 1.4310	17.6200
 1.4320	17.5750
 1.4330	17.5360
 1.4340	17.5020
 1.4350	17.4720
 1.4360	17.4460
 1.4370	17.4260
 1.4380	17.4090
 1.4390	17.3960
 1.4400	17.3870
 1.4410	17.3800
 1.4420	17.3760
 1.4430	17.3740
 1.4440	17.3740
 1.4450	17.3760
 1.4460	17.3820
 1.4470	17.3890
 1.4480	17.3990
 1.4490	17.4110
 1.4500	17.4230
 1.4510	17.4370
 1.4520	17.4530
 1.4530	17.4700
 1.4540	17.4890
 1.4550	17.5110
 1.4560	17.5350
 1.4570	17.5620
 1.4580	17.5920
 1.4590	17.6240
 1.4600	17.6610
 1.4610	17.7020
 1.4620	17.7460
 1.4630	17.7960
 1.4640	17.8500
 1.4650	17.9080
 1.4660	17.9720
 1.4670	18.0400
 1.4680	18.1140
 1.4690	18.1920
 1.4700	18.2740
 1.4710	18.3620
 1.4720	18.4520
 1.4730	18.5450
 1.4740	18.6430
 1.4750	18.7430
 1.4760	18.8470
 1.4770	18.9530
 1.4780	19.0610
 1.4790	19.1720
 1.4800	19.2840
 1.4810	19.3970
 1.4820	19.5140
 1.4830	19.6320
 1.4840	19.7510
 1.4850	19.8700
 1.4860	19.9910
 1.4870	20.1130
 1.4880	20.2340
 1.4890	20.3590
 1.4900	20.4830
 1.4910	20.6080
 1.4920	20.7340
 1.4930	20.8610
 1.4940	20.9880
 1.4950	21.1150
 1.4960	21.2420
 1.4970	21.3680
 1.4980	21.4960
 1.4990	21.6230
 1.5000	21.7510
 1.5010	21.8810
 1.5020	22.0090
 1.5030	22.1370
 1.5040	22.2650
 1.5050	22.3890
 1.5060	22.5160
 1.5070	22.6440
 1.5080	22.7710
 1.5090	22.8980
 1.5100	23.0260
 1.5110	23.1530
 1.5120	23.2790
 1.5130	23.4030
 1.5140	23.5270
 1.5150	23.6520
 1.5160	23.7750
 1.5170	23.9000
 1.5180	24.0210
 1.5190	24.1410
 1.5200	24.2610
 1.5210	24.3800
 1.5220	24.4980
 1.5230	24.6170
 1.5240	24.7340
 1.5250	24.8510
 1.5260	24.9680
 1.5270	25.0830
 1.5280	25.1980
 1.5290	25.3100
 1.5300	25.4210
 1.5310	25.5330
 1.5320	25.6420
 1.5330	25.7510
 1.5340	25.8600
 1.5350	25.9660
 1.5360	26.0740
 1.5370	26.1790
 1.5380	26.2830
 1.5390	26.3860
 1.5400	26.4880
 1.5410	26.5910
 1.5420	26.6940
 1.5430	26.7950
 1.5440	26.8960
 1.5450	26.9950
 1.5460	27.0930
 1.5470	27.1900
 1.5480	27.2850
 1.5490	27.3800
 1.5500	27.4740
 1.5510	27.5660
 1.5520	27.6570
 1.5530	27.7450
 1.5540	27.8340
 1.5550	27.9220
 1.5560	28.0080
 1.5570	28.0960
 1.5580	28.1810
 1.5590	28.2650
 1.5600	28.3470
 1.5610	28.4270
 1.5620	28.5070
 1.5630	28.5870
 1.5640	28.6640
 1.5650	28.7410
 1.5660	28.8170
 1.5670	28.8920
 1.5680	28.9670
 1.5690	29.0420
 1.5700	29.1150
 1.5710	29.1880
 1.5720	29.2600
 1.5730	29.3310
 1.5740	29.4010
 1.5750	29.4700
 1.5760	29.5380
 1.5770	29.6050
 1.5780	29.6710
 1.5790	29.7370
 1.5800	29.8020
 1.5810	29.8670
 1.5820	29.9290
 1.5830	29.9920
 1.5840	30.0550
 1.5850	30.1180
 1.5860	30.1820
 1.5870	30.2440
 1.5880	30.3040
 1.5890	30.3620
 1.5900	30.4210
 1.5910	30.4790
 1.5920	30.5370
 1.5930	30.5940
 1.5940	30.6490
 1.5950	30.7040
 1.5960	30.7590
 1.5970	30.8130
 1.5980	30.8670
 1.5990	30.9210
 1.6000	30.9720
 1.6010	31.0230
 1.6020	31.0730
 1.6030	31.1210
 1.6040	31.1690
 1.6050	31.2170
 1.6060	31.2650
 1.6070	31.3120
 1.6080	31.3590
 1.6090	31.4040
 1.6100	31.4480
 1.6110	31.4910
 1.6120	31.5340
 1.6130	31.5750
 1.6140	31.6160
 1.6150	31.6580
 1.6160	31.6980
 1.6170	31.7380
 1.6180	31.7780
 1.6190	31.8150
 1.6200	31.8530
 1.6210	31.8890
 1.6220	31.9260
 1.6230	31.9620
 1.6240	31.9980
 1.6250	32.0330
 1.6260	32.0670
 1.6270	32.1000
 1.6280	32.1330
 1.6290	32.1650
 1.6300	32.1960
 1.6310	32.2270
 1.6320	32.2570
 1.6330	32.2850
 1.6340	32.3120
 1.6350	32.3380
 1.6360	32.3620
 1.6370	32.3870
 1.6380	32.4130
 1.6390	32.4370
 1.6400	32.4630
 1.6410	32.4840
 1.6420	32.5020
 1.6430	32.5190
 1.6440	32.5330
 1.6450	32.5500
 1.6460	32.5650
 1.6470	32.5780
 1.6480	32.5910
 1.6490	32.6000
 1.6500	32.6080
 1.6510	32.6140
 1.6520	32.6200
 1.6530	32.6260
 1.6540	32.6310
 1.6550	32.6330
 1.6560	32.6330
 1.6570	32.6300
 1.6580	32.6270
 1.6590	32.6230
 1.6600	32.6170
 1.6610	32.6120
 1.6620	32.6070
 1.6630	32.6010
 1.6640	32.5950
 1.6650	32.5890
 1.6660	32.5810
 1.6670	32.5720
 1.6680	32.5630
 1.6690	32.5550
 1.6700	32.5470
 1.6710	32.5400
 1.6720	32.5310
 1.6730	32.5190
 1.6740	32.5070
 1.6750	32.4950
 1.6760	32.4830
 1.6770	32.4710
 1.6780	32.4560
 1.6790	32.4410
 1.6800	32.4220
 1.6810	32.4030
 1.6820	32.3830
 1.6830	32.3590
 1.6840	32.3350
 1.6850	32.3090
 1.6860	32.2830
 1.6870	32.2550
 1.6880	32.2260
 1.6890	32.1950
 1.6900	32.1650
 1.6910	32.1370
 1.6920	32.1060
 1.6930	32.0760
 1.6940	32.0440
 1.6950	32.0090
 1.6960	31.9750
 1.6970	31.9410
 1.6980	31.9060
 1.6990	31.8710
 1.7000	31.8340
 1.7010	31.7960
 1.7020	31.7580
 1.7030	31.7210
 1.7040	31.6820
 1.7050	31.6430
 1.7060	31.6020
 1.7070	31.5600
 1.7080	31.5190
 1.7090	31.4770
 1.7100	31.4360
 1.7110	31.3950
 1.7120	31.3540
 1.7130	31.3140
 1.7140	31.2700
 1.7150	31.2260
 1.7160	31.1820
 1.7170	31.1370
 1.7180	31.0920
 1.7190	31.0470
 1.7200	31.0000
 1.7210	30.9520
 1.7220	30.9030
 1.7230	30.8540
 1.7240	30.8040
 1.7250	30.7550
 1.7260	30.7060
 1.7270	30.6580
 1.7280	30.6130
 1.7290	30.5690
 1.7300	30.5260
 1.7310	30.4850
 1.7320	30.4430
 1.7330	30.4040
 1.7340	30.3690
 1.7350	30.3330
 1.7360	30.3010
 1.7370	30.2660
 1.7380	30.2310
 1.7390	30.1920
 1.7400	30.1500
 1.7410	30.1070
 1.7420	30.0630
 1.7430	30.0170
 1.7440	29.9720
 1.7450	29.9230
 1.7460	29.8710
 1.7470	29.8180
 1.7480	29.7630
 1.7490	29.7070
 1.7500	29.6510
 1.7510	29.5940
 1.7520	29.5360
 1.7530	29.4810
 1.7540	29.4260
 1.7550	29.3730
 1.7560	29.3210
 1.7570	29.2640
 1.7580	29.2090
 1.7590	29.1550
 1.7600	29.1010
 1.7610	29.0530
 1.7620	29.0040
 1.7630	28.9550
 1.7640	28.9100
 1.7650	28.8680
 1.7660	28.8270
 1.7670	28.7890
 1.7680	28.7510
 1.7690	28.7140
 1.7700	28.6770
 1.7710	28.6390
 1.7720	28.6040
 1.7730	28.5710
 1.7740	28.5390
 1.7750	28.5110
 1.7760	28.4830
 1.7770	28.4550
 1.7780	28.4260
 1.7790	28.3960
 1.7800	28.3700
 1.7810	28.3450
 1.7820	28.3230
 1.7830	28.3040
 1.7840	28.2850
 1.7850	28.2670
 1.7860	28.2510
 1.7870	28.2370
 1.7880	28.2240
 1.7890	28.2140
 1.7900	28.2030
 1.7910	28.1940
 1.7920	28.1860
 1.7930	28.1810
 1.7940	28.1770
 1.7950	28.1750
 1.7960	28.1750
 1.7970	28.1760
 1.7980	28.1800
 1.7990	28.1830
 1.8000	28.1850
 1.8010	28.1880
 1.8020	28.1900
 1.8030	28.1940
 1.8040	28.2000
 1.8050	28.2060
 1.8060	28.2130
 1.8070	28.2180
 1.8080	28.2250
 1.8090	28.2260
 1.8100	28.2230
 1.8110	28.2250
 1.8120	28.2260
 1.8130	28.2280
 1.8140	28.2300
 1.8150	28.2300
 1.8160	28.2290
 1.8170	28.2290
 1.8180	28.2280
 1.8190	28.2240
 1.8200	28.2190
 1.8210	28.2110
 1.8220	28.2030
 1.8230	28.1930
 1.8240	28.1840
 1.8250	28.1760
 1.8260	28.1660
 1.8270	28.1560
 1.8280	28.1420
 1.8290	28.1230
 1.8300	28.1050
 1.8310	27.9700
 1.8320	27.9420
 1.8330	27.9110
 1.8340	27.8760
 1.8350	27.8410
 1.8360	27.7990
 1.8370	27.7500
 1.8380	27.6970
 1.8390	27.6410
 1.8400	27.5800
 1.8410	27.5120
 1.8420	27.4410
 1.8430	27.3660
 1.8440	27.2850
 1.8450	27.1930
 1.8460	27.0960
 1.8470	26.9920
 1.8480	26.8780
 1.8490	26.7530
 1.8500	26.6170
 1.8510	26.4720
 1.8520	26.3160
 1.8530	26.1440
 1.8540	25.9640
 1.8550	25.7750
 1.8560	25.5710
 1.8570	25.3590
 1.8580	25.1320
 1.8590	24.8900
 1.8600	24.6330
 1.8610	24.3630
 1.8620	24.0710
 1.8630	23.7620
 1.8640	23.4360
 1.8650	23.0930
 1.8660	22.7350
 1.8670	22.3580
 1.8680	21.9650
 1.8690	21.5510
 1.8700	21.1190
 1.8710	20.6690
 1.8720	20.2110
 1.8730	19.7380
 1.8740	19.2540
 1.8750	18.7660
 1.8760	18.2670
 1.8770	17.7650
 1.8780	17.2650
 1.8790	16.7590
 1.8800	16.2620
 1.8810	15.7690
 1.8820	15.2790
 1.8830	14.7920
 1.8840	14.3140
 1.8850	13.8380
 1.8860	13.3760
 1.8870	12.9280
 1.8880	12.4950
 1.8890	12.0830
 1.8900	11.6910
 1.8910	11.3200
 1.8920	10.9670
 1.8930	10.6360
 1.8940	10.3260
 1.8950	10.0400
 1.8960	 9.7760
 1.8970	 9.5330
 1.8980	 9.3120
 1.8990	 9.1120
 1.9000	 8.9280
 1.9010	 8.7630
 1.9020	 8.6130
 1.9030	 8.4810
 1.9040	 8.3620
 1.9050	 8.2570
 1.9060	 8.1650
 1.9070	 8.0830
 1.9080	 8.0080
 1.9090	 7.9430
 1.9100	 7.8850
 1.9110	 7.8320
 1.9120	 7.7880
 1.9130	 7.7480
 1.9140	 7.7130
 1.9150	 7.6840
 1.9160	 7.6600
 1.9170	 7.6420
 1.9180	 7.6260
 1.9190	 7.6140
 1.9200	 7.6030
 1.9210	 7.5890
 1.9220	 7.5780
 1.9230	 7.5670
 1.9240	 7.5600
 1.9250	 7.5560
 1.9260	 7.5550
 1.9270	 7.5570
 1.9280	 7.5610
 1.9290	 7.5660
 1.9300	 7.5710
 1.9310	 7.5770
 1.9320	 7.5840
 1.9330	 7.5920
 1.9340	 7.6000
 1.9350	 7.6100
 1.9360	 7.6190
 1.9370	 7.6310
 1.9380	 7.6450
 1.9390	 7.6620
 1.9400	 7.6820
 1.9410	 7.7040
 1.9420	 7.7220
 1.9430	 7.7410
 1.9440	 7.7620
 1.9450	 7.7820
 1.9460	 7.8050
 1.9470	 7.8300
 1.9480	 7.8550
 1.9490	 7.8810
 1.9500	 7.9080
 1.9510	 7.9380
 1.9520	 7.9670
 1.9530	 7.9980
 1.9540	 8.0310
 1.9550	 8.0630
 1.9560	 8.0970
 1.9570	 8.1300
 1.9580	 8.1610
 1.9590	 8.1940
 1.9600	 8.2280
 1.9610	 8.2640
 1.9620	 8.3020
 1.9630	 8.3420
 1.9640	 8.3820
 1.9650	 8.4220
 1.9660	 8.4610
 1.9670	 8.5020
 1.9680	 8.5440
 1.9690	 8.5860
 1.9700	 8.6300
 1.9710	 8.6780
 1.9720	 8.7240
 1.9730	 8.7710
 1.9740	 8.8190
 1.9750	 8.8660
 1.9760	 8.9130
 1.9770	 8.9630
 1.9780	 9.0150
 1.9790	 9.0670
 1.9800	 9.1210
 1.9810	 9.1760
 1.9820	 9.2320
 1.9830	 9.2870
 1.9840	 9.3440
 1.9850	 9.4000
 1.9860	 9.4540
 1.9870	 9.5060
 1.9880	 9.5640
 1.9890	 9.6220
 1.9900	 9.6830
 1.9910	 9.7460
 1.9920	 9.8060
 1.9930	 9.8610
 1.9940	 9.9200
 1.9950	 9.9790
 1.9960	10.0400
 1.9970	10.1040
 1.9980	10.1680
 1.9990	10.2330
 2.0000	10.2980
 2.0010	10.3610
 2.0020	10.4280
 2.0030	10.4910
 2.0040	10.5540
 2.0050	10.6190
 2.0060	10.6820
 2.0070	10.7470
 2.0080	10.8160
 2.0090	10.8820
 2.0100	10.9470
 2.0110	11.0130
 2.0120	11.0790
 2.0130	11.1450
 2.0140	11.2140
 2.0150	11.2790
 2.0160	11.3420
 2.0170	11.4060
 2.0180	11.4680
 2.0190	11.5300
 2.0200	11.5920
 2.0210	11.6520
 2.0220	11.7160
 2.0230	11.7830
 2.0240	11.8490
 2.0250	11.9200
 2.0260	11.9850
 2.0270	12.0460
 2.0280	12.1080
 2.0290	12.1680
 2.0300	12.2280
 2.0310	12.2880
 2.0320	12.3500
 2.0330	12.4080
 2.0340	12.4660
 2.0350	12.5230
 2.0360	12.5760
 2.0370	12.6310
 2.0380	12.6870
 2.0390	12.7420
 2.0400	12.7980
 2.0410	12.8520
 2.0420	12.9030
 2.0430	12.9550
 2.0440	13.0070
 2.0450	13.0580
 2.0460	13.1110
 2.0470	13.1650
 2.0480	13.2180
 2.0490	13.2690
 2.0500	13.3230
 2.0510	13.3790
 2.0520	13.4330
 2.0530	13.4880
 2.0540	13.5410
 2.0550	13.5900
 2.0560	13.6390
 2.0570	13.6950
 2.0580	13.7480
 2.0590	13.8020
 2.0600	13.8580
 2.0610	13.9130
 2.0620	13.9670
 2.0630	14.0230
 2.0640	14.0830
 2.0650	14.1390
 2.0660	14.1940
 2.0670	14.2500
 2.0680	14.3060
 2.0690	14.3620
 2.0700	14.4220
 2.0710	14.4800
 2.0720	14.5360
 2.0730	14.5910
 2.0740	14.6470
 2.0750	14.7020
 2.0760	14.7580
 2.0770	14.8150
 2.0780	14.8700
 2.0790	14.9230
 2.0800	14.9770
 2.0810	15.0290
 2.0820	15.0820
 2.0830	15.1360
 2.0840	15.1910
 2.0850	15.2500
 2.0860	15.3050
 2.0870	15.3620
 2.0880	15.4170
 2.0890	15.4690
 2.0900	15.5180
 2.0910	15.5690
 2.0920	15.6190
 2.0930	15.6700
 2.0940	15.7220
 2.0950	15.7720
 2.0960	15.8210
 2.0970	15.8700
 2.0980	15.9150
 2.0990	15.9650
 2.1000	16.0180
 2.1010	16.0700
 2.1020	16.1270
 2.1030	16.1790
 2.1040	16.2260
 2.1050	16.2740
 2.1060	16.3220
 2.1070	16.3680
 2.1080	16.4130
 2.1090	16.4590
 2.1100	16.5050
 2.1110	16.5490
 2.1120	16.5930
 2.1130	16.6410
 2.1140	16.6850
 2.1150	16.7260
 2.1160	16.7700
 2.1170	16.8130
 2.1180	16.8580
 2.1190	16.9070
 2.1200	16.9520
 2.1210	16.9960
 2.1220	17.0390
 2.1230	17.0790
 2.1240	17.1160
 2.1250	17.1520
 2.1260	17.1860
 2.1270	17.2200
 2.1280	17.2510
 2.1290	17.2850
 2.1300	17.3200
 2.1310	17.3540
 2.1320	17.3910
 2.1330	17.4260
 2.1340	17.4620
 2.1350	17.4950
 2.1360	17.5260
 2.1370	17.5560
 2.1380	17.5820
 2.1390	17.6100
 2.1400	17.6380
 2.1410	17.6650
 2.1420	17.6920
 2.1430	17.7190
 2.1440	17.7460
 2.1450	17.7720
 2.1460	17.8000
 2.1470	17.8300
 2.1480	17.8570
 2.1490	17.8820
 2.1500	17.9070
 2.1510	17.9280
 2.1520	17.9520
 2.1530	17.9760
 2.1540	18.0000
 2.1550	18.0280
 2.1560	18.0530
 2.1570	18.0760
 2.1580	18.0980
 2.1590	18.1190
 2.1600	18.1410
 2.1610	18.1600
 2.1620	18.1810
 2.1630	18.2020
 2.1640	18.2230
 2.1650	18.2440
 2.1660	18.2660
 2.1670	18.2870
 2.1680	18.3090
 2.1690	18.3290
 2.1700	18.3490
 2.1710	18.3670
 2.1720	18.3800
 2.1730	18.4000
 2.1740	18.4280
 2.1750	18.4490
 2.1760	18.4710
 2.1770	18.4920
 2.1780	18.5030
 2.1790	18.5200
 2.1800	18.5410
 2.1810	18.5620
 2.1820	18.5840
 2.1830	18.6080
 2.1840	18.6320
 2.1850	18.6560
 2.1860	18.6800
 2.1870	18.7030
 2.1880	18.7260
 2.1890	18.7500
 2.1900	18.7730
 2.1910	18.7980
 2.1920	18.8190
 2.1930	18.8360
 2.1940	18.8560
 2.1950	18.8750
 2.1960	18.8940
 2.1970	18.9150
 2.1980	18.9360
 2.1990	18.9580
 2.2000	18.9780
 2.2010	18.9990
 2.2020	19.0170
 2.2030	19.0310
 2.2040	19.0450
 2.2050	19.0560
 2.2060	19.0700
 2.2070	19.0820
 2.2080	19.0930
 2.2090	19.1060
 2.2100	19.1230
 2.2110	19.1350
 2.2120	19.1500
 2.2130	19.1600
 2.2140	19.1650
 2.2150	19.1730
 2.2160	19.1780
 2.2170	19.1850
 2.2180	19.1970
 2.2190	19.2010
 2.2200	19.2030
 2.2210	19.2020
 2.2220	19.1940
 2.2230	19.1900
 2.2240	19.1900
 2.2250	19.1850
 2.2260	19.1810
 2.2270	19.1730
 2.2280	19.1580
 2.2290	19.1450
 2.2300	19.1340
 2.2310	19.1180
 2.2320	19.1050
 2.2330	19.0880
 2.2340	19.0710
 2.2350	19.0540
 2.2360	19.0300
 2.2370	19.0020
 2.2380	18.9710
 2.2390	18.9350
 2.2400	18.8970
 2.2410	18.8560
 2.2420	18.8150
 2.2430	18.7700
 2.2440	18.7280
 2.2450	18.6910
 2.2460	18.6460
 2.2470	18.6000
 2.2480	18.5520
 2.2490	18.5010
 2.2500	18.4480
 2.2510	18.3920
 2.2520	18.3370
 2.2530	18.2780
 2.2540	18.2200
 2.2550	18.1640
 2.2560	18.1060
 2.2570	18.0470
 2.2580	17.9860
 2.2590	17.9250
 2.2600	17.8630
 2.2610	17.7980
 2.2620	17.7360
 2.2630	17.6770
 2.2640	17.6200
 2.2650	17.5660
 2.2660	17.5090
 2.2670	17.4520
 2.2680	17.3920
 2.2690	17.3390
 2.2700	17.2870
 2.2710	17.2360
 2.2720	17.1880
 2.2730	17.1390
 2.2740	17.0870
 2.2750	17.0400
 2.2760	16.9940
 2.2770	16.9450
 2.2780	16.8950
 2.2790	16.8460
 2.2800	16.7920
 2.2810	16.7430
 2.2820	16.6980
 2.2830	16.6510
 2.2840	16.6030
 2.2850	16.5560
 2.2860	16.5100
 2.2870	16.4630
 2.2880	16.4180
 2.2890	16.3690
 2.2900	16.3170
 2.2910	16.2650
 2.2920	16.2130
 2.2930	16.1600
 2.2940	16.1020
 2.2950	16.0510
 2.2960	16.0040
 2.2970	15.9550
 2.2980	15.9150
 2.2990	15.8660
 2.3000	15.8090
 2.3010	15.7500
 2.3020	15.6910
 2.3030	15.6370
 2.3040	15.5840
 2.3050	15.5290
 2.3060	15.4800
 2.3070	15.4400
 2.3080	15.4040
 2.3090	15.3690
 2.3100	15.3340
 2.3110	15.2950
 2.3120	15.2610
 2.3130	15.2320
 2.3140	15.2040
 2.3150	15.1780
 2.3160	15.1550
 2.3170	15.1350
 2.3180	15.1130
 2.3190	15.0920
 2.3200	15.0700
 2.3210	15.0480
 2.3220	15.0230
 2.3230	14.9990
 2.3240	14.9700
 2.3250	14.9350
 2.3260	14.9000
 2.3270	14.8570
 2.3280	14.8200
 2.3290	14.7850
 2.3300	14.7480
 2.3310	14.7150
 2.3320	14.6760
 2.3330	14.6380
 2.3340	14.5880
 2.3350	14.5270
 2.3360	14.4680
 2.3370	14.3930
 2.3380	14.3360
 2.3390	14.2910
 2.3400	14.2430
 2.3410	14.2010
 2.3420	14.1530
 2.3430	14.0970
 2.3440	14.0470
 2.3450	14.0000
 2.3460	13.9510
 2.3470	13.9000
 2.3480	13.8560
 2.3490	13.8130
 2.3500	13.7730
 2.3510	13.7430
 2.3520	13.7050
 2.3530	13.6600
 2.3540	13.6220
 2.3550	13.5860
 2.3560	13.5500
 2.3570	13.5170
 2.3580	13.4820
 2.3590	13.4460
 2.3600	13.4120
 2.3610	13.3700
 2.3620	13.3260
 2.3630	13.2840
 2.3640	13.2340
 2.3650	13.1910
 2.3660	13.1570
 2.3670	13.1160
 2.3680	13.0770
 2.3690	13.0420
 2.3700	12.9990
 2.3710	12.9620
 2.3720	12.9280
 2.3730	12.8850
 2.3740	12.8430
 2.3750	12.8010
 2.3760	12.7490
 2.3770	12.7020
 2.3780	12.6660
 2.3790	12.6130
 2.3800	12.5660
 2.3810	12.5350
 2.3820	12.4800
 2.3830	12.4360
 2.3840	12.3980
 2.3850	12.3440
 2.3860	12.3050
 2.3870	12.2700
 2.3880	12.2290
 2.3890	12.1920
 2.3900	12.1510
 2.3910	12.1100
 2.3920	12.0690
 2.3930	12.0200
 2.3940	11.9750
 2.3950	11.9320
 2.3960	11.8720
 2.3970	11.8100
 2.3980	11.7610
 2.3990	11.7140
 2.4000	11.6730
 2.4010	11.6480
 2.4020	11.6090
 2.4030	11.5570
 2.4040	11.5010
 2.4050	11.4370
 2.4060	11.3790
 2.4070	11.3350
 2.4080	11.3050
 2.4090	11.2770
 2.4100	11.2490
 2.4110	11.2120
 2.4120	11.1610
 2.4130	11.1150
 2.4140	11.0770
 2.4150	11.0400
 2.4160	11.0070
 2.4170	10.9740
 2.4180	10.9320
 2.4190	10.8830
 2.4200	10.8470
 2.4210	10.8030
 2.4220	10.7630
 2.4230	10.7380
 2.4240	10.6990
 2.4250	10.6720
 2.4260	10.6420
 2.4270	10.5930
 2.4280	10.5550
 2.4290	10.5030
 2.4300	10.4480
 2.4310	10.4020
 2.4320	10.3490
 2.4330	10.3050
 2.4340	10.2660
 2.4350	10.2300
 2.4360	10.1970
 2.4370	10.1460
 2.4380	10.1010
 2.4390	10.0640
 2.4400	10.0220
 2.4410	 9.9890
 2.4420	 9.9610
 2.4430	 9.9120
 2.4440	 9.8560
 2.4450	 9.8220
 2.4460	 9.7830
 2.4470	 9.7340
 2.4480	 9.7000
 2.4490	 9.6550
 2.4500	 9.6040
 2.4510	 9.5830
 2.4520	 9.5510
 2.4530	 9.5150
 2.4540	 9.4910
 2.4550	 9.4490
 2.4560	 9.4220
 2.4570	 9.3900
 2.4580	 9.3460
 2.4590	 9.3100
 2.4600	 9.2720
 2.4610	 9.2640
 2.4620	 9.2530
 2.4630	 9.2180
 2.4640	 9.1970
 2.4650	 9.1650
 2.4660	 9.1140
 2.4670	 9.0860
 2.4680	 9.0600
 2.4690	 9.0220
 2.4700	 8.9940
 2.4710	 8.9780
 2.4720	 8.9560
 2.4730	 8.9240
 2.4740	 8.8970
 2.4750	 8.8740
 2.4760	 8.8410
 2.4770	 8.8060
 2.4780	 8.7820
 2.4790	 8.7570
 2.4800	 8.7410
 2.4810	 8.7410
 2.4820	 8.7270
 2.4830	 8.7020
 2.4840	 8.6660
 2.4850	 8.6360
 2.4860	 8.6220
 2.4870	 8.6090
 2.4880	 8.6280
 2.4890	 8.6460
 2.4900	 8.6210
 2.4910	 8.6150
 2.4920	 8.5760
 2.4930	 8.5320
 2.4940	 8.5480
 2.4950	 8.5600
 2.4960	 8.5510
 2.4970	 8.5310
 2.4980	 8.5180
 2.4990	 8.4760
 2.5000	 8.4390
