Name: Pinus lambertiana 1
Type: vegetation
Class: Tree
Genus: Pinus
Species: lambertiana
Sample No.: VH148
Owner: UCSB
Wavelength Range: TIR
Origin: 37.043; -119.3043; WGS84
Collection Date: 6/8/2013
Description: Samples were collected as part of the HyspIRI Airborne Campaign. 48 individual plants were sampled in three times in 2013 - spring  summer  and fall. The name of the sample includes a 1  2  or 3 which references a different individual of the species. Samples were taken to JPL and processed within 48 hours of collection. The same leaves were processed in the Nicolet and then measured using the ASD.
Measurement: Hemispherical reflectance
First Column: X
Second Column: Y
X Units: Wavelength (micrometers)
Y Units: Reflectance (percentage)
First X Value: 2.501
Last X Value: 15.387
Number of X Values: 1737
Additional Information: vegetation.tree.pinus.lambertiana.tir.vh148.ucsb.nicolet.ancillary.txt

 2.5010	 4.4050
 2.5030	 4.3850
 2.5040	 4.5160
 2.5050	 4.5000
 2.5060	 4.5270
 2.5070	 4.4710
 2.5090	 4.4380
 2.5100	 4.4410
 2.5110	 4.4900
 2.5120	 4.3750
 2.5140	 4.4860
 2.5150	 4.5180
 2.5160	 4.5530
 2.5170	 4.5660
 2.5180	 4.6410
 2.5200	 4.6330
 2.5210	 4.5470
 2.5220	 4.2750
 2.5230	 4.3370
 2.5250	 4.4830
 2.5260	 4.6380
 2.5270	 4.5880
 2.5280	 4.5750
 2.5290	 4.4840
 2.5310	 4.4630
 2.5320	 4.4380
 2.5330	 4.5310
 2.5340	 4.5230
 2.5360	 4.4870
 2.5370	 4.4250
 2.5380	 4.4450
 2.5390	 4.4450
 2.5410	 4.6260
 2.5420	 4.5770
 2.5430	 4.5410
 2.5440	 4.6200
 2.5460	 4.6440
 2.5470	 4.5990
 2.5480	 4.5690
 2.5490	 4.5140
 2.5510	 4.5120
 2.5520	 4.3880
 2.5530	 4.4600
 2.5540	 4.4930
 2.5560	 4.6010
 2.5570	 4.5480
 2.5580	 4.5380
 2.5590	 4.5320
 2.5610	 4.7290
 2.5620	 4.6360
 2.5630	 4.6210
 2.5640	 4.6600
 2.5660	 4.7840
 2.5670	 4.6700
 2.5680	 4.5720
 2.5700	 4.4680
 2.5710	 4.5170
 2.5720	 4.5870
 2.5730	 4.6300
 2.5750	 4.6340
 2.5760	 4.7570
 2.5770	 4.7310
 2.5790	 4.7790
 2.5800	 4.6800
 2.5810	 4.7090
 2.5820	 4.6650
 2.5840	 4.6810
 2.5850	 4.6960
 2.5860	 4.6840
 2.5880	 4.5350
 2.5890	 4.5160
 2.5900	 4.4080
 2.5910	 4.3440
 2.5930	 4.3840
 2.5940	 4.4540
 2.5950	 4.4670
 2.5970	 4.5340
 2.5980	 4.5490
 2.5990	 4.6140
 2.6000	 4.6570
 2.6020	 4.6740
 2.6030	 4.5610
 2.6040	 4.6070
 2.6060	 4.6370
 2.6070	 4.5970
 2.6080	 4.4570
 2.6100	 4.3920
 2.6110	 4.3740
 2.6120	 4.4450
 2.6140	 4.4190
 2.6150	 4.4510
 2.6160	 4.3780
 2.6180	 4.4060
 2.6190	 4.3570
 2.6200	 4.3430
 2.6220	 4.2530
 2.6230	 4.1420
 2.6240	 4.1190
 2.6260	 4.2510
 2.6270	 4.2320
 2.6280	 4.1900
 2.6300	 3.9980
 2.6310	 4.0440
 2.6320	 4.0880
 2.6340	 4.1620
 2.6350	 4.1810
 2.6360	 4.2800
 2.6380	 4.1500
 2.6390	 4.1820
 2.6400	 4.1930
 2.6420	 4.1690
 2.6430	 4.0740
 2.6440	 4.0320
 2.6460	 3.9830
 2.6470	 3.9940
 2.6480	 4.0340
 2.6500	 4.0090
 2.6510	 3.7550
 2.6520	 3.8030
 2.6540	 3.9060
 2.6550	 3.7920
 2.6560	 3.6940
 2.6580	 3.8160
 2.6590	 3.7490
 2.6610	 3.6490
 2.6620	 3.6130
 2.6630	 3.6900
 2.6650	 3.7050
 2.6660	 3.9180
 2.6670	 3.8410
 2.6690	 3.6470
 2.6700	 3.7180
 2.6720	 3.8170
 2.6730	 3.7520
 2.6740	 3.7570
 2.6760	 3.6720
 2.6770	 3.6380
 2.6780	 3.6990
 2.6800	 3.8790
 2.6810	 3.7430
 2.6830	 3.6010
 2.6840	 3.6340
 2.6850	 3.8470
 2.6870	 3.7150
 2.6880	 3.5380
 2.6900	 3.4430
 2.6910	 3.4510
 2.6920	 3.5040
 2.6940	 3.5500
 2.6950	 3.4850
 2.6970	 3.5160
 2.6980	 3.5240
 2.6990	 3.6670
 2.7010	 3.6210
 2.7020	 3.5130
 2.7040	 3.3730
 2.7050	 3.4260
 2.7060	 3.3800
 2.7080	 3.3630
 2.7090	 3.2700
 2.7110	 3.2780
 2.7120	 3.1430
 2.7130	 3.1240
 2.7150	 3.0630
 2.7160	 2.9960
 2.7180	 3.0430
 2.7190	 3.1830
 2.7210	 3.0090
 2.7220	 2.9450
 2.7230	 3.1110
 2.7250	 3.3210
 2.7260	 3.2570
 2.7280	 3.2930
 2.7290	 3.3400
 2.7310	 3.2830
 2.7320	 3.1220
 2.7330	 3.1020
 2.7350	 2.9660
 2.7360	 3.0430
 2.7380	 3.0210
 2.7390	 3.1210
 2.7410	 3.1850
 2.7420	 3.2680
 2.7440	 3.1760
 2.7450	 3.1000
 2.7470	 2.8720
 2.7480	 2.9110
 2.7490	 2.8940
 2.7510	 2.8850
 2.7520	 2.7960
 2.7540	 2.9100
 2.7550	 3.1400
 2.7570	 3.5290
 2.7580	 3.4370
 2.7600	 3.3150
 2.7610	 3.1320
 2.7630	 3.0260
 2.7640	 3.2690
 2.7660	 3.1910
 2.7670	 2.9220
 2.7680	 3.0950
 2.7700	 3.0940
 2.7710	 3.1520
 2.7730	 3.2050
 2.7740	 3.3100
 2.7760	 3.2680
 2.7770	 3.1460
 2.7790	 3.0830
 2.7800	 3.1710
 2.7820	 3.0330
 2.7830	 2.9610
 2.7850	 2.9210
 2.7860	 3.0680
 2.7880	 3.0500
 2.7890	 3.1420
 2.7910	 3.1920
 2.7920	 3.2130
 2.7940	 3.0780
 2.7950	 3.1410
 2.7970	 3.1550
 2.7980	 3.2660
 2.8000	 3.1690
 2.8010	 3.1460
 2.8030	 3.0620
 2.8040	 3.0800
 2.8060	 3.1940
 2.8070	 3.3110
 2.8090	 3.0080
 2.8110	 2.9240
 2.8120	 2.9190
 2.8140	 3.0720
 2.8150	 3.2340
 2.8170	 3.3000
 2.8180	 3.1180
 2.8200	 2.9270
 2.8210	 2.6820
 2.8230	 2.9880
 2.8240	 3.3360
 2.8260	 3.2670
 2.8270	 3.0480
 2.8290	 3.1460
 2.8300	 3.0110
 2.8320	 3.0310
 2.8340	 3.0060
 2.8350	 2.9410
 2.8370	 2.8710
 2.8380	 2.9600
 2.8400	 2.9170
 2.8410	 3.1550
 2.8430	 3.2820
 2.8440	 3.3230
 2.8460	 3.1710
 2.8480	 3.0840
 2.8490	 3.0660
 2.8510	 3.1200
 2.8520	 3.1020
 2.8540	 3.1570
 2.8550	 3.0650
 2.8570	 3.0440
 2.8590	 3.1230
 2.8600	 3.2090
 2.8620	 3.1400
 2.8630	 3.0670
 2.8650	 3.0740
 2.8660	 3.1550
 2.8680	 3.0870
 2.8700	 3.1570
 2.8710	 3.1320
 2.8730	 3.1720
 2.8740	 3.1070
 2.8760	 3.1650
 2.8780	 3.1930
 2.8790	 3.0310
 2.8810	 3.0870
 2.8820	 3.3360
 2.8840	 3.4790
 2.8860	 3.4450
 2.8870	 3.2850
 2.8890	 3.2940
 2.8900	 3.0450
 2.8920	 3.1230
 2.8940	 3.0440
 2.8950	 3.1040
 2.8970	 3.0850
 2.8980	 3.0880
 2.9000	 3.1650
 2.9020	 3.1980
 2.9030	 2.9320
 2.9050	 2.9410
 2.9070	 3.0940
 2.9080	 3.1730
 2.9100	 2.9960
 2.9120	 3.0190
 2.9130	 3.0900
 2.9150	 3.2260
 2.9160	 3.0630
 2.9180	 3.1960
 2.9200	 3.2310
 2.9210	 3.1900
 2.9230	 3.2410
 2.9250	 3.4170
 2.9260	 3.3850
 2.9280	 3.2860
 2.9300	 3.1630
 2.9310	 3.1890
 2.9330	 3.0770
 2.9350	 3.1550
 2.9360	 3.1120
 2.9380	 3.1400
 2.9400	 3.2580
 2.9410	 3.4610
 2.9430	 3.2010
 2.9450	 3.1840
 2.9460	 3.0710
 2.9480	 2.9180
 2.9500	 3.0770
 2.9510	 3.4010
 2.9530	 3.0630
 2.9550	 2.9460
 2.9560	 3.1580
 2.9580	 3.1900
 2.9600	 2.7520
 2.9610	 2.5230
 2.9630	 2.5780
 2.9650	 3.3200
 2.9660	 3.3360
 2.9680	 3.3340
 2.9700	 2.7170
 2.9720	 1.7860
 2.9730	 2.3830
 2.9750	 3.7730
 2.9770	 3.1740
 2.9780	 2.3660
 2.9800	 2.6170
 2.9820	 2.8680
 2.9840	 2.6990
 2.9850	 2.8280
 2.9870	 2.3280
 2.9890	 1.4790
 2.9900	 2.6160
 2.9920	 2.3800
 2.9940	 1.9210
 2.9960	 2.7800
 2.9970	 3.3350
 2.9990	 4.0740
 3.0010	 4.0630
 3.0030	 3.5020
 3.0040	 3.6540
 3.0060	 3.5960
 3.0080	 3.6010
 3.0100	 3.6160
 3.0110	 3.2000
 3.0130	 2.7250
 3.0150	 2.2350
 3.0170	 1.8990
 3.0180	 2.4760
 3.0200	 3.4580
 3.0220	 3.4900
 3.0240	 3.2260
 3.0250	 3.0760
 3.0270	 3.0750
 3.0290	 3.0280
 3.0310	 2.8700
 3.0320	 2.5580
 3.0340	 2.9420
 3.0360	 3.1920
 3.0380	 2.4040
 3.0400	 2.3040
 3.0410	 3.3830
 3.0430	 3.0540
 3.0450	 2.7610
 3.0470	 2.5700
 3.0480	 2.4090
 3.0500	 3.9520
 3.0520	 3.8750
 3.0540	 2.3310
 3.0560	 2.0700
 3.0570	 2.6830
 3.0590	 2.6000
 3.0610	 3.2430
 3.0630	 3.8310
 3.0650	 2.3420
 3.0660	 2.6050
 3.0680	 3.3890
 3.0700	 3.2360
 3.0720	 3.6930
 3.0740	 3.6340
 3.0760	 3.3730
 3.0770	 3.2520
 3.0790	 3.2260
 3.0810	 3.1430
 3.0830	 3.0900
 3.0850	 2.8070
 3.0870	 2.7690
 3.0880	 3.0330
 3.0900	 3.1670
 3.0920	 3.1710
 3.0940	 3.1250
 3.0960	 3.1540
 3.0980	 3.0590
 3.0990	 3.0670
 3.1010	 3.0900
 3.1030	 3.0580
 3.1050	 2.9890
 3.1070	 3.3370
 3.1090	 3.8480
 3.1110	 3.6280
 3.1120	 3.0990
 3.1140	 3.0240
 3.1160	 3.0090
 3.1180	 3.0870
 3.1200	 3.1400
 3.1220	 3.0360
 3.1240	 2.7210
 3.1260	 2.6480
 3.1270	 3.1420
 3.1290	 3.7650
 3.1310	 3.8980
 3.1330	 4.1460
 3.1350	 3.6310
 3.1370	 2.4060
 3.1390	 2.6750
 3.1410	 2.9960
 3.1430	 2.0490
 3.1450	 1.6860
 3.1460	 2.5300
 3.1480	 3.3690
 3.1500	 3.5010
 3.1520	 3.3970
 3.1540	 3.7520
 3.1560	 3.1180
 3.1580	 2.3320
 3.1600	 2.3980
 3.1620	 1.5650
 3.1640	 1.2080
 3.1660	 2.4230
 3.1680	 2.0740
 3.1700	 2.2060
 3.1710	 3.4410
 3.1730	 4.0080
 3.1750	 3.1560
 3.1770	 2.2460
 3.1790	 3.4770
 3.1810	 3.5430
 3.1830	 2.8360
 3.1850	 2.7560
 3.1870	 2.8770
 3.1890	 3.0180
 3.1910	 3.1650
 3.1930	 3.0640
 3.1950	 3.1320
 3.1970	 3.1120
 3.1990	 3.0130
 3.2010	 2.8670
 3.2030	 2.7340
 3.2050	 2.8320
 3.2070	 2.8690
 3.2090	 2.7560
 3.2110	 2.7650
 3.2130	 2.6360
 3.2150	 2.6420
 3.2170	 2.6360
 3.2190	 2.9030
 3.2210	 3.1100
 3.2230	 3.1280
 3.2250	 3.3100
 3.2270	 3.2220
 3.2290	 2.7650
 3.2310	 2.8530
 3.2330	 3.1030
 3.2350	 3.2050
 3.2370	 3.0140
 3.2390	 2.9800
 3.2410	 2.9440
 3.2430	 2.8930
 3.2450	 2.6620
 3.2470	 2.6760
 3.2490	 2.9120
 3.2510	 3.1250
 3.2530	 3.1690
 3.2550	 3.0850
 3.2570	 2.7370
 3.2590	 2.5630
 3.2610	 2.7640
 3.2630	 3.0120
 3.2650	 3.0240
 3.2670	 3.0940
 3.2690	 3.0240
 3.2720	 3.1670
 3.2740	 3.3040
 3.2760	 3.1340
 3.2780	 2.9190
 3.2800	 2.9830
 3.2820	 2.9530
 3.2840	 2.9720
 3.2860	 2.9580
 3.2880	 2.9090
 3.2900	 2.7750
 3.2920	 2.8230
 3.2940	 2.8100
 3.2960	 2.8680
 3.2990	 3.1010
 3.3010	 3.1150
 3.3030	 2.9230
 3.3050	 3.0140
 3.3070	 2.8650
 3.3090	 2.8050
 3.3110	 2.7540
 3.3130	 2.7930
 3.3150	 2.7660
 3.3180	 2.8790
 3.3200	 2.9300
 3.3220	 2.8000
 3.3240	 2.7980
 3.3260	 2.9850
 3.3280	 2.8830
 3.3300	 2.8530
 3.3330	 2.6890
 3.3350	 2.6240
 3.3370	 2.8290
 3.3390	 2.8170
 3.3410	 2.6990
 3.3430	 2.8890
 3.3450	 2.8690
 3.3480	 2.7460
 3.3500	 2.5930
 3.3520	 2.6260
 3.3540	 2.6230
 3.3560	 2.7530
 3.3580	 2.6660
 3.3610	 2.4240
 3.3630	 2.5090
 3.3650	 2.6650
 3.3670	 2.7230
 3.3690	 2.7420
 3.3720	 2.5350
 3.3740	 2.5610
 3.3760	 2.6840
 3.3780	 2.7670
 3.3800	 2.6110
 3.3830	 2.5660
 3.3850	 2.6000
 3.3870	 2.6660
 3.3890	 2.5470
 3.3910	 2.5690
 3.3940	 2.6110
 3.3960	 2.5640
 3.3980	 2.5420
 3.4000	 2.6280
 3.4020	 2.5730
 3.4050	 2.5590
 3.4070	 2.5400
 3.4090	 2.5780
 3.4110	 2.6130
 3.4140	 2.8700
 3.4160	 3.1220
 3.4180	 3.4090
 3.4200	 3.7690
 3.4230	 4.3720
 3.4250	 5.0320
 3.4270	 5.7620
 3.4290	 5.9630
 3.4320	 5.7720
 3.4340	 5.3960
 3.4360	 5.1330
 3.4390	 4.8280
 3.4410	 4.5580
 3.4430	 4.2600
 3.4450	 3.9670
 3.4480	 3.8530
 3.4500	 3.9990
 3.4520	 4.0640
 3.4550	 3.9640
 3.4570	 4.0730
 3.4590	 4.1850
 3.4620	 4.1310
 3.4640	 4.0580
 3.4660	 3.8780
 3.4680	 3.7510
 3.4710	 3.6050
 3.4730	 3.5170
 3.4750	 3.4300
 3.4780	 3.4890
 3.4800	 3.4750
 3.4820	 3.4670
 3.4850	 3.3640
 3.4870	 3.3190
 3.4890	 3.1910
 3.4920	 3.1730
 3.4940	 3.1500
 3.4970	 3.1170
 3.4990	 3.0830
 3.5010	 3.2620
 3.5040	 3.6210
 3.5060	 4.2380
 3.5080	 5.0450
 3.5110	 5.7510
 3.5130	 5.7860
 3.5160	 5.4280
 3.5180	 4.9200
 3.5200	 4.6140
 3.5230	 4.4690
 3.5250	 4.3520
 3.5270	 4.2650
 3.5300	 4.2160
 3.5320	 4.0630
 3.5350	 3.9140
 3.5370	 3.8270
 3.5400	 3.9190
 3.5420	 3.8910
 3.5440	 3.8730
 3.5470	 3.7920
 3.5490	 3.7450
 3.5520	 3.7350
 3.5540	 3.7280
 3.5570	 3.6380
 3.5590	 3.6130
 3.5610	 3.5960
 3.5640	 3.5890
 3.5660	 3.6450
 3.5690	 3.7250
 3.5710	 3.6380
 3.5740	 3.5900
 3.5760	 3.5720
 3.5790	 3.6410
 3.5810	 3.6350
 3.5840	 3.6570
 3.5860	 3.5990
 3.5890	 3.4720
 3.5910	 3.5480
 3.5930	 3.6980
 3.5960	 3.7590
 3.5980	 3.6340
 3.6010	 3.4230
 3.6030	 3.3760
 3.6060	 3.2620
 3.6080	 3.3990
 3.6110	 3.5780
 3.6140	 3.5540
 3.6160	 3.5500
 3.6190	 3.5900
 3.6210	 3.5090
 3.6240	 3.5240
 3.6260	 3.5390
 3.6290	 3.5520
 3.6310	 3.5180
 3.6340	 3.5250
 3.6360	 3.4570
 3.6390	 3.3900
 3.6410	 3.4730
 3.6440	 3.5410
 3.6470	 3.3690
 3.6490	 3.3240
 3.6520	 3.3990
 3.6540	 3.4640
 3.6570	 3.4230
 3.6590	 3.4650
 3.6620	 3.4610
 3.6650	 3.4440
 3.6670	 3.4630
 3.6700	 3.4930
 3.6720	 3.4360
 3.6750	 3.3780
 3.6780	 3.3470
 3.6800	 3.4090
 3.6830	 3.4360
 3.6850	 3.3920
 3.6880	 3.3600
 3.6910	 3.3590
 3.6930	 3.2700
 3.6960	 3.3390
 3.6990	 3.3940
 3.7010	 3.3770
 3.7040	 3.3660
 3.7060	 3.3740
 3.7090	 3.3980
 3.7120	 3.4070
 3.7140	 3.3800
 3.7170	 3.3830
 3.7200	 3.3170
 3.7220	 3.2620
 3.7250	 3.2670
 3.7280	 3.4190
 3.7300	 3.4190
 3.7330	 3.4280
 3.7360	 3.4820
 3.7390	 3.4760
 3.7410	 3.3860
 3.7440	 3.3510
 3.7470	 3.3230
 3.7490	 3.2940
 3.7520	 3.2390
 3.7550	 3.2960
 3.7580	 3.3960
 3.7600	 3.4390
 3.7630	 3.4210
 3.7660	 3.4350
 3.7680	 3.4200
 3.7710	 3.4340
 3.7740	 3.3920
 3.7770	 3.3600
 3.7790	 3.3820
 3.7820	 3.4690
 3.7850	 3.4600
 3.7880	 3.4520
 3.7900	 3.4310
 3.7930	 3.4500
 3.7960	 3.4330
 3.7990	 3.3750
 3.8020	 3.4150
 3.8040	 3.4600
 3.8070	 3.3880
 3.8100	 3.4170
 3.8130	 3.3080
 3.8160	 3.2340
 3.8180	 3.3610
 3.8210	 3.4820
 3.8240	 3.4210
 3.8270	 3.4390
 3.8300	 3.4720
 3.8330	 3.4460
 3.8350	 3.4770
 3.8380	 3.5650
 3.8410	 3.4460
 3.8440	 3.3890
 3.8470	 3.4260
 3.8500	 3.4300
 3.8520	 3.4680
 3.8550	 3.4300
 3.8580	 3.3660
 3.8610	 3.4150
 3.8640	 3.4070
 3.8670	 3.4110
 3.8700	 3.3540
 3.8730	 3.3860
 3.8750	 3.3940
 3.8780	 3.4230
 3.8810	 3.4620
 3.8840	 3.4310
 3.8870	 3.3520
 3.8900	 3.3970
 3.8930	 3.4570
 3.8960	 3.4160
 3.8990	 3.2960
 3.9020	 3.3080
 3.9050	 3.3390
 3.9080	 3.4520
 3.9110	 3.4430
 3.9140	 3.3960
 3.9160	 3.3830
 3.9190	 3.3920
 3.9220	 3.3980
 3.9250	 3.4160
 3.9280	 3.4430
 3.9310	 3.4470
 3.9340	 3.4250
 3.9370	 3.4690
 3.9400	 3.4580
 3.9430	 3.4680
 3.9460	 3.4340
 3.9490	 3.4190
 3.9520	 3.4370
 3.9550	 3.4130
 3.9580	 3.3630
 3.9610	 3.4240
 3.9640	 3.4550
 3.9670	 3.4420
 3.9700	 3.4440
 3.9730	 3.4060
 3.9770	 3.3480
 3.9800	 3.3850
 3.9830	 3.3920
 3.9860	 3.3990
 3.9890	 3.4000
 3.9920	 3.4360
 3.9950	 3.3950
 3.9980	 3.4270
 4.0010	 3.4610
 4.0040	 3.4700
 4.0070	 3.4560
 4.0100	 3.4470
 4.0130	 3.4320
 4.0170	 3.4570
 4.0200	 3.4240
 4.0230	 3.3950
 4.0260	 3.3520
 4.0290	 3.3850
 4.0320	 3.4260
 4.0350	 3.4220
 4.0380	 3.3760
 4.0420	 3.3700
 4.0450	 3.3160
 4.0480	 3.4010
 4.0510	 3.4470
 4.0540	 3.4630
 4.0570	 3.4900
 4.0610	 3.5830
 4.0640	 3.5800
 4.0670	 3.5110
 4.0700	 3.5100
 4.0730	 3.5220
 4.0770	 3.4680
 4.0800	 3.3700
 4.0830	 3.3770
 4.0860	 3.4750
 4.0890	 3.5070
 4.0930	 3.4850
 4.0960	 3.4570
 4.0990	 3.5050
 4.1020	 3.4630
 4.1060	 3.4350
 4.1090	 3.3860
 4.1120	 3.3670
 4.1150	 3.3720
 4.1190	 3.4050
 4.1220	 3.4050
 4.1250	 3.4070
 4.1280	 3.4090
 4.1320	 3.4020
 4.1350	 3.3960
 4.1380	 3.4170
 4.1420	 3.3880
 4.1450	 3.4020
 4.1480	 3.3580
 4.1520	 3.3650
 4.1550	 3.4370
 4.1580	 3.4660
 4.1620	 3.3770
 4.1650	 3.3730
 4.1680	 3.4000
 4.1720	 3.3820
 4.1750	 3.3740
 4.1780	 3.3800
 4.1820	 3.3500
 4.1850	 3.4210
 4.1890	 3.4420
 4.1920	 3.4460
 4.1950	 3.4510
 4.1990	 3.4360
 4.2020	 3.3830
 4.2060	 3.4030
 4.2090	 3.4380
 4.2120	 3.5420
 4.2160	 3.5450
 4.2190	 3.6350
 4.2230	 3.8540
 4.2260	 3.9660
 4.2300	 3.7160
 4.2330	 3.5310
 4.2360	 3.7150
 4.2400	 3.8970
 4.2430	 3.6090
 4.2470	 3.4920
 4.2500	 3.5220
 4.2540	 3.5190
 4.2570	 3.5580
 4.2610	 3.7300
 4.2640	 3.7210
 4.2680	 3.5970
 4.2710	 3.5840
 4.2750	 3.6070
 4.2780	 3.5570
 4.2820	 3.4230
 4.2850	 3.4560
 4.2890	 3.6710
 4.2930	 3.6790
 4.2960	 3.6730
 4.3000	 3.6290
 4.3030	 3.5900
 4.3070	 3.5680
 4.3100	 3.5270
 4.3140	 3.4860
 4.3180	 3.4860
 4.3210	 3.4590
 4.3250	 3.4000
 4.3280	 3.3490
 4.3320	 3.3510
 4.3360	 3.3930
 4.3390	 3.4070
 4.3430	 3.3800
 4.3470	 3.3640
 4.3500	 3.3100
 4.3540	 3.2770
 4.3570	 3.3290
 4.3610	 3.3660
 4.3650	 3.3630
 4.3680	 3.2710
 4.3720	 3.2050
 4.3760	 3.2890
 4.3800	 3.3290
 4.3830	 3.3290
 4.3870	 3.2730
 4.3910	 3.2370
 4.3940	 3.2710
 4.3980	 3.2960
 4.4020	 3.2680
 4.4060	 3.2350
 4.4090	 3.2460
 4.4130	 3.3240
 4.4170	 3.2410
 4.4210	 3.1480
 4.4240	 3.1720
 4.4280	 3.2390
 4.4320	 3.2380
 4.4360	 3.2040
 4.4400	 3.2130
 4.4430	 3.2440
 4.4470	 3.2230
 4.4510	 3.2130
 4.4550	 3.2210
 4.4590	 3.2320
 4.4620	 3.2370
 4.4660	 3.2690
 4.4700	 3.2790
 4.4740	 3.2480
 4.4780	 3.2740
 4.4820	 3.2660
 4.4860	 3.2070
 4.4900	 3.2470
 4.4930	 3.2430
 4.4970	 3.1680
 4.5010	 3.1650
 4.5050	 3.1760
 4.5090	 3.1500
 4.5130	 3.1610
 4.5170	 3.2140
 4.5210	 3.2040
 4.5250	 3.1590
 4.5290	 3.1290
 4.5330	 3.1530
 4.5370	 3.1870
 4.5410	 3.1570
 4.5450	 3.1350
 4.5490	 3.0980
 4.5530	 3.0650
 4.5570	 3.1240
 4.5610	 3.1510
 4.5650	 3.2050
 4.5690	 3.2230
 4.5730	 3.2060
 4.5770	 3.2090
 4.5810	 3.2750
 4.5850	 3.2820
 4.5890	 3.1690
 4.5930	 3.0960
 4.5970	 3.0990
 4.6010	 3.1360
 4.6050	 3.2070
 4.6090	 3.2440
 4.6130	 3.1070
 4.6170	 3.0790
 4.6220	 3.1070
 4.6260	 3.0610
 4.6300	 3.0460
 4.6340	 2.9480
 4.6380	 3.0770
 4.6420	 3.2090
 4.6460	 3.1220
 4.6510	 3.0470
 4.6550	 3.0750
 4.6590	 3.0430
 4.6630	 3.0480
 4.6670	 3.1090
 4.6720	 3.0830
 4.6760	 3.0470
 4.6800	 3.1220
 4.6840	 3.1290
 4.6880	 3.0500
 4.6930	 3.0150
 4.6970	 3.0810
 4.7010	 3.0530
 4.7050	 3.0410
 4.7100	 3.0370
 4.7140	 3.1040
 4.7180	 3.1320
 4.7230	 3.1390
 4.7270	 3.1300
 4.7310	 3.0840
 4.7360	 3.1080
 4.7400	 3.1650
 4.7440	 3.1250
 4.7490	 3.1750
 4.7530	 3.1780
 4.7570	 3.1290
 4.7620	 3.1520
 4.7660	 3.1740
 4.7700	 3.0940
 4.7750	 3.0980
 4.7790	 3.0730
 4.7840	 3.0240
 4.7880	 2.9420
 4.7920	 2.9680
 4.7970	 3.1570
 4.8010	 3.2270
 4.8060	 3.0850
 4.8100	 2.9790
 4.8150	 2.9840
 4.8190	 3.0120
 4.8240	 2.9920
 4.8280	 2.9630
 4.8330	 3.0160
 4.8370	 3.0210
 4.8420	 3.0340
 4.8460	 3.0620
 4.8510	 3.0900
 4.8550	 3.1010
 4.8600	 3.1070
 4.8640	 3.1230
 4.8690	 3.0720
 4.8730	 3.1090
 4.8780	 3.1680
 4.8830	 3.1310
 4.8870	 3.0810
 4.8920	 3.1320
 4.8960	 3.1250
 4.9010	 3.0840
 4.9060	 3.0430
 4.9100	 3.0580
 4.9150	 3.0430
 4.9200	 3.0430
 4.9240	 3.0600
 4.9290	 3.0830
 4.9340	 3.0430
 4.9380	 3.0590
 4.9430	 3.0500
 4.9480	 3.0400
 4.9530	 3.0610
 4.9570	 3.0660
 4.9620	 3.1080
 4.9670	 3.1500
 4.9720	 3.1150
 4.9760	 3.1240
 4.9810	 3.1320
 4.9860	 3.1450
 4.9910	 3.1210
 4.9960	 3.0910
 5.0000	 3.0830
 5.0050	 3.1040
 5.0100	 3.1140
 5.0150	 3.1380
 5.0200	 3.1160
 5.0250	 3.1030
 5.0290	 3.1160
 5.0340	 3.1220
 5.0390	 3.1040
 5.0440	 3.1000
 5.0490	 3.0640
 5.0540	 3.0680
 5.0590	 3.0570
 5.0640	 3.0940
 5.0690	 3.1040
 5.0740	 3.1350
 5.0790	 3.1170
 5.0840	 3.1630
 5.0890	 3.1780
 5.0940	 3.1280
 5.0990	 3.0790
 5.1040	 3.1000
 5.1090	 3.0550
 5.1140	 3.0590
 5.1190	 3.0950
 5.1240	 3.0980
 5.1290	 3.0800
 5.1340	 3.1360
 5.1390	 3.1600
 5.1440	 3.1860
 5.1490	 3.2070
 5.1540	 3.2020
 5.1600	 3.1680
 5.1650	 3.1320
 5.1700	 3.1200
 5.1750	 3.1760
 5.1800	 3.1340
 5.1850	 3.0960
 5.1910	 3.1020
 5.1960	 3.1590
 5.2010	 3.1600
 5.2060	 3.1550
 5.2110	 3.1000
 5.2170	 3.0910
 5.2220	 3.0980
 5.2270	 3.0820
 5.2320	 3.0820
 5.2380	 3.1170
 5.2430	 3.1170
 5.2480	 3.1460
 5.2540	 3.1190
 5.2590	 3.1560
 5.2640	 3.1610
 5.2700	 3.1410
 5.2750	 3.1280
 5.2800	 3.0890
 5.2860	 3.0690
 5.2910	 3.1130
 5.2970	 3.0560
 5.3020	 3.0340
 5.3070	 3.1170
 5.3130	 3.1620
 5.3180	 3.0590
 5.3240	 3.0890
 5.3290	 3.0760
 5.3350	 3.0830
 5.3400	 3.1060
 5.3460	 3.1110
 5.3510	 3.0630
 5.3570	 3.0890
 5.3620	 3.0770
 5.3680	 3.0880
 5.3730	 3.0600
 5.3790	 3.0590
 5.3850	 3.0560
 5.3900	 3.0750
 5.3960	 3.1030
 5.4010	 3.1260
 5.4070	 3.0650
 5.4130	 3.0060
 5.4180	 2.9850
 5.4240	 3.0330
 5.4300	 3.0660
 5.4350	 3.0850
 5.4410	 3.0740
 5.4470	 3.0260
 5.4530	 2.9640
 5.4580	 2.9440
 5.4640	 2.9380
 5.4700	 2.9980
 5.4760	 2.9930
 5.4810	 3.0010
 5.4870	 2.9720
 5.4930	 2.9700
 5.4990	 2.9820
 5.5050	 3.0240
 5.5110	 2.9610
 5.5160	 2.9220
 5.5220	 2.9020
 5.5280	 2.9200
 5.5340	 2.9030
 5.5400	 2.9540
 5.5460	 2.9280
 5.5520	 2.9010
 5.5580	 2.8850
 5.5640	 2.9330
 5.5700	 2.8800
 5.5760	 2.8310
 5.5820	 2.8150
 5.5880	 2.8570
 5.5940	 2.8140
 5.6000	 2.8650
 5.6060	 2.8140
 5.6120	 2.7470
 5.6180	 2.7390
 5.6240	 2.8030
 5.6300	 2.7690
 5.6360	 2.7760
 5.6420	 2.7550
 5.6490	 2.7590
 5.6550	 2.7290
 5.6610	 2.6740
 5.6670	 2.6100
 5.6730	 2.6210
 5.6800	 2.5730
 5.6860	 2.5570
 5.6920	 2.4550
 5.6980	 2.3890
 5.7040	 2.2960
 5.7110	 2.3140
 5.7170	 2.2490
 5.7230	 2.1770
 5.7300	 2.0870
 5.7360	 2.1410
 5.7420	 2.2750
 5.7490	 2.5470
 5.7550	 2.8520
 5.7620	 3.2480
 5.7680	 3.5750
 5.7740	 3.7890
 5.7810	 3.7990
 5.7870	 3.8050
 5.7940	 3.6660
 5.8000	 3.5580
 5.8070	 3.4780
 5.8130	 3.4960
 5.8200	 3.4830
 5.8260	 3.4680
 5.8330	 3.3670
 5.8390	 3.3820
 5.8460	 3.3450
 5.8530	 3.3910
 5.8590	 3.3740
 5.8660	 3.3890
 5.8720	 3.3670
 5.8790	 3.3850
 5.8860	 3.3690
 5.8920	 3.4400
 5.8990	 3.3960
 5.9060	 3.4270
 5.9130	 3.4310
 5.9190	 3.5000
 5.9260	 3.4730
 5.9330	 3.4340
 5.9400	 3.3800
 5.9470	 3.4640
 5.9530	 3.4460
 5.9600	 3.4140
 5.9670	 3.3880
 5.9740	 3.4900
 5.9810	 3.4210
 5.9880	 3.4200
 5.9950	 3.4570
 6.0020	 3.5320
 6.0090	 3.4100
 6.0160	 3.4140
 6.0230	 3.4420
 6.0300	 3.5040
 6.0370	 3.5030
 6.0440	 3.5070
 6.0510	 3.4370
 6.0580	 3.4210
 6.0650	 3.3620
 6.0720	 3.4300
 6.0790	 3.4480
 6.0860	 3.5450
 6.0930	 3.4660
 6.1000	 3.5150
 6.1080	 3.5630
 6.1150	 3.5820
 6.1220	 3.4470
 6.1290	 3.5240
 6.1370	 3.5670
 6.1440	 3.6020
 6.1510	 3.5460
 6.1580	 3.5980
 6.1660	 3.5860
 6.1730	 3.7110
 6.1800	 3.8440
 6.1880	 4.0390
 6.1950	 4.1240
 6.2030	 4.1720
 6.2100	 4.0990
 6.2170	 4.0640
 6.2250	 3.9390
 6.2320	 3.9120
 6.2400	 3.8520
 6.2470	 3.8420
 6.2550	 3.7750
 6.2630	 3.7630
 6.2700	 3.6770
 6.2780	 3.6610
 6.2850	 3.5510
 6.2930	 3.5430
 6.3010	 3.4620
 6.3080	 3.4650
 6.3160	 3.4430
 6.3240	 3.5480
 6.3310	 3.5190
 6.3390	 3.5280
 6.3470	 3.4240
 6.3550	 3.4710
 6.3620	 3.4780
 6.3700	 3.5490
 6.3780	 3.4770
 6.3860	 3.5400
 6.3940	 3.4760
 6.4020	 3.4430
 6.4100	 3.3780
 6.4180	 3.4850
 6.4260	 3.4470
 6.4330	 3.4470
 6.4410	 3.3540
 6.4490	 3.4300
 6.4580	 3.3680
 6.4660	 3.3060
 6.4740	 3.2700
 6.4820	 3.2870
 6.4900	 3.2240
 6.4980	 3.2720
 6.5060	 3.2680
 6.5140	 3.3160
 6.5230	 3.2140
 6.5310	 3.2500
 6.5390	 3.1750
 6.5470	 3.1410
 6.5550	 3.1140
 6.5640	 3.2360
 6.5720	 3.2900
 6.5800	 3.2780
 6.5890	 3.1110
 6.5970	 3.0700
 6.6060	 3.0600
 6.6140	 3.1440
 6.6220	 3.0730
 6.6310	 3.1020
 6.6390	 3.0930
 6.6480	 3.0910
 6.6560	 2.9830
 6.6650	 3.0160
 6.6740	 3.0080
 6.6820	 3.0170
 6.6910	 2.9120
 6.6990	 2.9510
 6.7080	 2.9670
 6.7170	 3.0340
 6.7260	 2.9560
 6.7340	 2.9720
 6.7430	 2.8890
 6.7520	 2.9110
 6.7610	 2.8890
 6.7690	 3.0290
 6.7780	 3.0720
 6.7870	 3.1480
 6.7960	 3.1890
 6.8050	 3.1530
 6.8140	 3.0280
 6.8230	 3.1970
 6.8320	 3.3000
 6.8410	 3.4470
 6.8500	 3.3800
 6.8590	 3.3810
 6.8680	 3.2420
 6.8770	 3.2240
 6.8860	 3.1950
 6.8950	 3.1880
 6.9050	 3.1640
 6.9140	 3.2180
 6.9230	 3.0940
 6.9320	 3.1200
 6.9420	 3.0840
 6.9510	 3.1370
 6.9600	 3.1550
 6.9700	 3.2410
 6.9790	 3.1740
 6.9880	 3.1290
 6.9980	 3.0350
 7.0070	 3.1270
 7.0170	 3.0700
 7.0260	 3.1170
 7.0360	 3.0890
 7.0450	 3.1580
 7.0550	 3.1640
 7.0650	 3.3190
 7.0740	 3.3170
 7.0840	 3.3410
 7.0940	 3.2720
 7.1030	 3.3200
 7.1130	 3.1980
 7.1230	 3.2220
 7.1330	 3.1890
 7.1420	 3.2630
 7.1520	 3.1470
 7.1620	 3.2100
 7.1720	 3.1570
 7.1820	 3.1420
 7.1920	 3.1340
 7.2020	 3.1800
 7.2120	 3.0700
 7.2220	 3.1340
 7.2320	 3.0560
 7.2420	 3.0620
 7.2520	 3.0070
 7.2620	 3.0680
 7.2730	 3.0240
 7.2830	 3.1230
 7.2930	 3.0580
 7.3030	 3.0640
 7.3140	 2.9910
 7.3240	 3.0880
 7.3340	 3.0710
 7.3450	 3.1100
 7.3550	 3.0100
 7.3660	 3.0570
 7.3760	 2.9820
 7.3870	 3.0520
 7.3970	 3.0420
 7.4080	 3.0380
 7.4180	 2.9380
 7.4290	 2.9800
 7.4400	 2.9780
 7.4500	 3.0870
 7.4610	 3.0570
 7.4720	 3.0630
 7.4830	 2.9390
 7.4930	 3.0780
 7.5040	 3.0350
 7.5150	 3.0040
 7.5260	 2.9750
 7.5370	 3.1260
 7.5480	 3.1250
 7.5590	 3.2570
 7.5700	 3.2580
 7.5810	 3.2730
 7.5920	 3.1610
 7.6030	 3.1790
 7.6140	 3.0160
 7.6260	 3.0210
 7.6370	 2.9790
 7.6480	 3.0540
 7.6590	 2.9350
 7.6710	 2.9570
 7.6820	 2.8570
 7.6930	 2.9030
 7.7050	 2.8200
 7.7160	 2.8740
 7.7280	 2.7780
 7.7390	 2.8230
 7.7510	 2.8270
 7.7630	 2.8880
 7.7740	 2.7910
 7.7860	 2.8380
 7.7980	 2.7580
 7.8090	 2.8340
 7.8210	 2.8460
 7.8330	 2.9460
 7.8450	 2.8100
 7.8570	 2.8110
 7.8690	 2.7650
 7.8810	 2.9350
 7.8930	 2.9060
 7.9050	 2.8520
 7.9170	 2.7160
 7.9290	 2.8220
 7.9410	 2.7390
 7.9530	 2.8920
 7.9650	 2.7930
 7.9780	 2.7910
 7.9900	 2.7720
 8.0020	 2.8210
 8.0150	 2.6690
 8.0270	 2.7290
 8.0390	 2.7220
 8.0520	 2.9050
 8.0640	 2.9510
 8.0770	 3.0120
 8.0900	 2.8880
 8.1020	 3.0250
 8.1150	 2.9690
 8.1280	 3.0350
 8.1400	 2.7980
 8.1530	 2.8720
 8.1660	 2.9080
 8.1790	 3.0630
 8.1920	 2.9070
 8.2050	 3.0340
 8.2180	 2.8930
 8.2310	 2.8780
 8.2440	 2.7750
 8.2570	 2.8430
 8.2700	 2.7590
 8.2830	 2.8470
 8.2970	 2.7350
 8.3100	 2.7660
 8.3230	 2.6100
 8.3370	 2.7070
 8.3500	 2.7390
 8.3640	 2.9690
 8.3770	 2.9010
 8.3910	 3.0140
 8.4040	 2.8670
 8.4180	 2.8440
 8.4320	 2.6960
 8.4450	 2.8590
 8.4590	 2.8350
 8.4730	 2.9410
 8.4870	 2.8780
 8.5010	 3.0070
 8.5150	 2.9510
 8.5290	 3.1230
 8.5430	 3.0890
 8.5570	 3.3260
 8.5710	 3.3560
 8.5850	 3.5830
 8.5990	 3.4650
 8.6140	 3.5990
 8.6280	 3.4850
 8.6420	 3.5630
 8.6570	 3.5050
 8.6710	 3.6540
 8.6860	 3.4860
 8.7000	 3.6310
 8.7150	 3.5480
 8.7300	 3.5670
 8.7440	 3.5030
 8.7590	 3.5710
 8.7740	 3.3630
 8.7890	 3.4470
 8.8040	 3.3170
 8.8190	 3.5030
 8.8340	 3.3810
 8.8490	 3.4080
 8.8640	 3.2880
 8.8790	 3.3860
 8.8940	 3.2300
 8.9100	 3.3990
 8.9250	 3.3140
 8.9400	 3.4200
 8.9560	 3.3500
 8.9710	 3.5330
 8.9870	 3.5270
 9.0020	 3.7130
 9.0180	 3.5400
 9.0340	 3.5520
 9.0500	 3.3240
 9.0650	 3.5740
 9.0810	 3.5230
 9.0970	 3.5400
 9.1130	 3.3710
 9.1290	 3.6100
 9.1450	 3.6000
 9.1610	 3.6490
 9.1780	 3.4580
 9.1940	 3.6120
 9.2100	 3.3820
 9.2270	 3.5390
 9.2430	 3.5030
 9.2600	 3.4500
 9.2760	 3.2440
 9.2930	 3.4440
 9.3090	 3.3860
 9.3260	 3.5400
 9.3430	 3.3860
 9.3600	 3.5160
 9.3770	 3.4170
 9.3940	 3.4690
 9.4110	 3.2270
 9.4280	 3.5370
 9.4450	 3.4140
 9.4620	 3.5200
 9.4800	 3.4660
 9.4970	 3.5440
 9.5140	 3.2870
 9.5320	 3.5070
 9.5500	 3.4080
 9.5670	 3.5140
 9.5850	 3.3240
 9.6030	 3.4520
 9.6200	 3.3930
 9.6380	 3.6640
 9.6560	 3.5090
 9.6740	 3.5520
 9.6920	 3.3790
 9.7100	 3.4980
 9.7290	 3.3320
 9.7470	 3.4530
 9.7650	 3.3260
 9.7840	 3.3780
 9.8020	 3.2130
 9.8210	 3.3200
 9.8390	 3.1810
 9.8580	 3.4810
 9.8770	 3.3900
 9.8960	 3.5400
 9.9150	 3.3310
 9.9340	 3.3560
 9.9530	 3.1750
 9.9720	 3.2310
 9.9910	 3.1400
10.0100	 3.3560
10.0300	 3.2500
10.0490	 3.4230
10.0690	 3.2830
10.0880	 3.4120
10.1080	 3.2970
10.1280	 3.3950
10.1480	 3.2500
10.1670	 3.5430
10.1870	 3.4270
10.2070	 3.4970
10.2280	 3.3910
10.2480	 3.4700
10.2680	 3.2470
10.2890	 3.3260
10.3090	 3.1470
10.3300	 3.3180
10.3500	 3.1720
10.3710	 3.3030
10.3920	 3.1450
10.4120	 3.3670
10.4330	 3.2280
10.4540	 3.3400
10.4760	 3.2280
10.4970	 3.4320
10.5180	 3.3090
10.5390	 3.3220
10.5610	 3.2380
10.5820	 3.3650
10.6040	 3.2490
10.6260	 3.4610
10.6480	 3.2490
10.6700	 3.4160
10.6920	 3.3130
10.7140	 3.4470
10.7360	 3.3790
10.7580	 3.4680
10.7800	 3.2480
10.8030	 3.3800
10.8250	 3.2460
10.8480	 3.4450
10.8710	 3.2200
10.8940	 3.3880
10.9170	 3.3500
10.9400	 3.4830
10.9630	 3.2880
10.9860	 3.4450
11.0090	 3.2300
11.0330	 3.4190
11.0560	 3.4100
11.0800	 3.5590
11.1040	 2.9110
11.1270	 2.8670
11.1510	 3.1310
11.1750	 3.4570
11.2000	 3.2820
11.2240	 3.3940
11.2480	 3.2730
11.2730	 3.2940
11.2970	 3.3970
11.3220	 3.7440
11.3470	 3.2580
11.3720	 3.2370
11.3970	 3.1020
11.4220	 3.3890
11.4470	 3.2330
11.4720	 3.4230
11.4980	 3.3080
11.5230	 3.5460
11.5490	 3.4150
11.5750	 3.5550
11.6000	 3.2700
11.6260	 3.3230
11.6530	 3.0280
11.6790	 3.2210
11.7050	 3.1250
11.7320	 3.4560
11.7580	 3.2280
11.7850	 3.2880
11.8120	 3.1290
11.8390	 3.4130
11.8660	 3.1750
11.8930	 3.2390
11.9200	 3.0190
11.9480	 3.2660
11.9760	 3.0710
12.0030	 3.1340
12.0310	 2.7140
12.0590	 2.9880
12.0870	 2.9050
12.1150	 3.1870
12.1440	 3.0900
12.1720	 3.2120
12.2010	 2.8860
12.2300	 3.1390
12.2590	 3.0170
12.2880	 3.2870
12.3170	 3.0830
12.3460	 3.1670
12.3760	 2.8150
12.4050	 2.9850
12.4350	 2.8510
12.4650	 3.1780
12.4950	 2.9610
12.5250	 3.3140
12.5550	 3.0110
12.5860	 3.2320
12.6170	 3.0420
12.6470	 3.1630
12.6780	 2.9370
12.7090	 3.2490
12.7410	 2.9110
12.7720	 3.0670
12.8030	 2.7730
12.8350	 2.9560
12.8670	 2.6790
12.8990	 2.9740
12.9310	 2.8060
12.9640	 3.0690
12.9960	 2.7550
13.0290	 2.8110
13.0610	 2.6040
13.0940	 2.9260
13.1280	 2.6220
13.1610	 2.8910
13.1940	 2.5640
13.2280	 2.8480
13.2620	 2.7450
13.2960	 3.0360
13.3300	 2.7310
13.3640	 3.0690
13.3990	 2.7750
13.4340	 2.8770
13.4690	 2.5280
13.5040	 2.8700
13.5390	 2.7270
13.5740	 2.9910
13.6100	 2.6230
13.6460	 2.9680
13.6820	 2.8790
13.7180	 3.3770
13.7540	 3.2070
13.7910	 3.4060
13.8280	 2.9120
13.8650	 3.2630
13.9020	 2.9470
13.9390	 3.1230
13.9770	 2.7950
14.0150	 3.1730
14.0530	 2.6390
14.0910	 2.8550
14.1290	 2.7730
14.1680	 3.2640
14.2070	 2.6990
14.2460	 2.8670
14.2850	 2.6270
14.3240	 3.1630
14.3640	 2.9680
14.4040	 3.2800
14.4440	 2.5950
14.4840	 2.9950
14.5250	 2.6110
14.5660	 3.1710
14.6070	 2.7710
14.6480	 2.9790
14.6900	 2.5190
14.7310	 3.1390
14.7730	 2.5020
14.8150	 3.2210
14.8580	 2.5880
14.9010	 2.9550
14.9440	 1.7520
14.9870	 2.3100
15.0300	 2.1930
15.0740	 2.9930
15.1180	 2.3690
15.1620	 2.8060
15.2060	 2.2330
15.2510	 3.0970
15.2960	 2.4410
15.3410	 3.0780
15.3870	 2.4140
