Name: Quercus rubra
Type: Vegetation
Class: Tree
Genus: Quercus
Species: rubra
Sample No.: QURU-1-1
Owner: UCSB
Wavelength Range: VSWIR
Origin: USA; Massachusetts; Harvard Forest
Collection Date: 7/8/2013
Description: Samples were collected as part of NSF Macrosystem Biology proposal titled: Collaborative Research: Thermal controls on ecosystem metabolism and function: scaling from leaves to canopies to regions. Samples were collected and overnighted to JPL facilities for processing. The same leaves were processed in the Nicolet and then measured using the ASD.
Measurement: Bidirectional reflectance
First Column: X
Second Column: Y
X Units: Wavelength (micrometers)
Y Units: Reflectance (percentage)
First X Value: 0.35
Last X Value: 2.5
Number of X Values: 2151
Additional Information: vegetation.tree.quercus.rubra.vswir.quru-1-1.ucsb.asd.ancillary.txt

 0.3500	 5.6290
 0.3510	 5.7570
 0.3520	 5.4640
 0.3530	 5.3620
 0.3540	 5.8230
 0.3550	 5.8150
 0.3560	 5.6450
 0.3570	 5.4830
 0.3580	 5.4170
 0.3590	 5.4820
 0.3600	 5.6570
 0.3610	 5.8010
 0.3620	 5.6260
 0.3630	 5.3870
 0.3640	 5.3190
 0.3650	 5.5280
 0.3660	 5.7520
 0.3670	 5.6420
 0.3680	 5.4020
 0.3690	 5.5470
 0.3700	 5.5130
 0.3710	 5.4670
 0.3720	 5.4980
 0.3730	 5.3780
 0.3740	 5.3380
 0.3750	 5.3480
 0.3760	 5.3250
 0.3770	 5.3690
 0.3780	 5.3090
 0.3790	 5.1780
 0.3800	 5.1840
 0.3810	 5.2970
 0.3820	 5.3520
 0.3830	 5.2920
 0.3840	 5.3360
 0.3850	 5.3470
 0.3860	 5.3440
 0.3870	 5.3850
 0.3880	 5.3950
 0.3890	 5.3710
 0.3900	 5.3120
 0.3910	 5.2200
 0.3920	 5.2910
 0.3930	 5.3830
 0.3940	 5.3700
 0.3950	 5.3290
 0.3960	 5.3810
 0.3970	 5.4700
 0.3980	 5.4650
 0.3990	 5.4110
 0.4000	 5.3650
 0.4010	 5.3580
 0.4020	 5.3900
 0.4030	 5.4030
 0.4040	 5.4100
 0.4050	 5.4290
 0.4060	 5.4200
 0.4070	 5.4380
 0.4080	 5.4700
 0.4090	 5.4630
 0.4100	 5.4740
 0.4110	 5.4830
 0.4120	 5.4690
 0.4130	 5.4350
 0.4140	 5.4140
 0.4150	 5.4210
 0.4160	 5.4510
 0.4170	 5.4540
 0.4180	 5.4640
 0.4190	 5.4830
 0.4200	 5.4740
 0.4210	 5.4960
 0.4220	 5.5220
 0.4230	 5.5280
 0.4240	 5.5310
 0.4250	 5.5430
 0.4260	 5.5490
 0.4270	 5.5350
 0.4280	 5.5620
 0.4290	 5.5730
 0.4300	 5.5460
 0.4310	 5.5300
 0.4320	 5.5520
 0.4330	 5.5910
 0.4340	 5.6140
 0.4350	 5.6160
 0.4360	 5.6140
 0.4370	 5.6120
 0.4380	 5.6040
 0.4390	 5.5900
 0.4400	 5.5890
 0.4410	 5.6070
 0.4420	 5.6140
 0.4430	 5.6200
 0.4440	 5.6270
 0.4450	 5.6340
 0.4460	 5.6390
 0.4470	 5.6510
 0.4480	 5.6640
 0.4490	 5.6490
 0.4500	 5.6620
 0.4510	 5.6870
 0.4520	 5.6990
 0.4530	 5.6940
 0.4540	 5.6970
 0.4550	 5.7090
 0.4560	 5.7180
 0.4570	 5.7220
 0.4580	 5.7400
 0.4590	 5.7690
 0.4600	 5.7470
 0.4610	 5.7340
 0.4620	 5.7390
 0.4630	 5.7510
 0.4640	 5.7570
 0.4650	 5.7590
 0.4660	 5.7560
 0.4670	 5.7380
 0.4680	 5.7410
 0.4690	 5.7510
 0.4700	 5.7510
 0.4710	 5.7350
 0.4720	 5.7360
 0.4730	 5.7440
 0.4740	 5.7300
 0.4750	 5.7270
 0.4760	 5.7280
 0.4770	 5.7340
 0.4780	 5.7630
 0.4790	 5.7540
 0.4800	 5.7380
 0.4810	 5.7600
 0.4820	 5.7680
 0.4830	 5.7680
 0.4840	 5.7630
 0.4850	 5.7560
 0.4860	 5.7690
 0.4870	 5.7840
 0.4880	 5.7880
 0.4890	 5.7920
 0.4900	 5.8050
 0.4910	 5.8250
 0.4920	 5.8440
 0.4930	 5.8470
 0.4940	 5.8630
 0.4950	 5.8970
 0.4960	 5.9050
 0.4970	 5.9200
 0.4980	 5.9480
 0.4990	 5.9830
 0.5000	 6.0030
 0.5010	 6.0300
 0.5020	 6.0660
 0.5030	 6.0980
 0.5040	 6.1510
 0.5050	 6.2000
 0.5060	 6.2310
 0.5070	 6.2800
 0.5080	 6.3400
 0.5090	 6.4070
 0.5100	 6.4760
 0.5110	 6.5520
 0.5120	 6.6380
 0.5130	 6.7370
 0.5140	 6.8450
 0.5150	 6.9600
 0.5160	 7.0810
 0.5170	 7.2150
 0.5180	 7.3730
 0.5190	 7.5330
 0.5200	 7.6920
 0.5210	 7.8650
 0.5220	 8.0410
 0.5230	 8.2210
 0.5240	 8.4030
 0.5250	 8.5730
 0.5260	 8.7480
 0.5270	 8.9200
 0.5280	 9.0720
 0.5290	 9.2180
 0.5300	 9.3570
 0.5310	 9.4860
 0.5320	 9.6000
 0.5330	 9.7060
 0.5340	 9.8030
 0.5350	 9.8900
 0.5360	 9.9620
 0.5370	10.0260
 0.5380	10.0840
 0.5390	10.1310
 0.5400	10.1740
 0.5410	10.2160
 0.5420	10.2580
 0.5430	10.2880
 0.5440	10.3340
 0.5450	10.3870
 0.5460	10.4300
 0.5470	10.4640
 0.5480	10.4920
 0.5490	10.5160
 0.5500	10.5390
 0.5510	10.5520
 0.5520	10.5580
 0.5530	10.5590
 0.5540	10.5440
 0.5550	10.5160
 0.5560	10.4760
 0.5570	10.4200
 0.5580	10.3620
 0.5590	10.2910
 0.5600	10.1980
 0.5610	10.0960
 0.5620	 9.9990
 0.5630	 9.8960
 0.5640	 9.7750
 0.5650	 9.6550
 0.5660	 9.5280
 0.5670	 9.3970
 0.5680	 9.2740
 0.5690	 9.1470
 0.5700	 9.0210
 0.5710	 8.8990
 0.5720	 8.7780
 0.5730	 8.6630
 0.5740	 8.5550
 0.5750	 8.4520
 0.5760	 8.3490
 0.5770	 8.2480
 0.5780	 8.1520
 0.5790	 8.0680
 0.5800	 7.9840
 0.5810	 7.9120
 0.5820	 7.8620
 0.5830	 7.8050
 0.5840	 7.7620
 0.5850	 7.7340
 0.5860	 7.6970
 0.5870	 7.6670
 0.5880	 7.6450
 0.5890	 7.6230
 0.5900	 7.5910
 0.5910	 7.5530
 0.5920	 7.5140
 0.5930	 7.4800
 0.5940	 7.4550
 0.5950	 7.4400
 0.5960	 7.4320
 0.5970	 7.4170
 0.5980	 7.4070
 0.5990	 7.3960
 0.6000	 7.3750
 0.6010	 7.3490
 0.6020	 7.3280
 0.6030	 7.3090
 0.6040	 7.2760
 0.6050	 7.2420
 0.6060	 7.2090
 0.6070	 7.1760
 0.6080	 7.1340
 0.6090	 7.0880
 0.6100	 7.0400
 0.6110	 6.9950
 0.6120	 6.9550
 0.6130	 6.9210
 0.6140	 6.8870
 0.6150	 6.8460
 0.6160	 6.8180
 0.6170	 6.7900
 0.6180	 6.7520
 0.6190	 6.7230
 0.6200	 6.6990
 0.6210	 6.6800
 0.6220	 6.6630
 0.6230	 6.6430
 0.6240	 6.6280
 0.6250	 6.6210
 0.6260	 6.6110
 0.6270	 6.6010
 0.6280	 6.5920
 0.6290	 6.5890
 0.6300	 6.5920
 0.6310	 6.5860
 0.6320	 6.5710
 0.6330	 6.5610
 0.6340	 6.5590
 0.6350	 6.5520
 0.6360	 6.5300
 0.6370	 6.5050
 0.6380	 6.4770
 0.6390	 6.4480
 0.6400	 6.4150
 0.6410	 6.3840
 0.6420	 6.3540
 0.6430	 6.3240
 0.6440	 6.2850
 0.6450	 6.2470
 0.6460	 6.2160
 0.6470	 6.1950
 0.6480	 6.1700
 0.6490	 6.1460
 0.6500	 6.1250
 0.6510	 6.1090
 0.6520	 6.0910
 0.6530	 6.0770
 0.6540	 6.0690
 0.6550	 6.0500
 0.6560	 6.0320
 0.6570	 6.0140
 0.6580	 5.9940
 0.6590	 5.9720
 0.6600	 5.9500
 0.6610	 5.9300
 0.6620	 5.9110
 0.6630	 5.8910
 0.6640	 5.8720
 0.6650	 5.8600
 0.6660	 5.8540
 0.6670	 5.8480
 0.6680	 5.8420
 0.6690	 5.8410
 0.6700	 5.8420
 0.6710	 5.8480
 0.6720	 5.8600
 0.6730	 5.8770
 0.6740	 5.8960
 0.6750	 5.9160
 0.6760	 5.9370
 0.6770	 5.9560
 0.6780	 5.9860
 0.6790	 6.0260
 0.6800	 6.0620
 0.6810	 6.1000
 0.6820	 6.1460
 0.6830	 6.1980
 0.6840	 6.2510
 0.6850	 6.3070
 0.6860	 6.3700
 0.6870	 6.4410
 0.6880	 6.5250
 0.6890	 6.6210
 0.6900	 6.7320
 0.6910	 6.8640
 0.6920	 7.0260
 0.6930	 7.2290
 0.6940	 7.4830
 0.6950	 7.7890
 0.6960	 8.1600
 0.6970	 8.6010
 0.6980	 9.1100
 0.6990	 9.6830
 0.7000	10.3250
 0.7010	11.0360
 0.7020	11.8100
 0.7030	12.6300
 0.7040	13.4850
 0.7050	14.3710
 0.7060	15.2950
 0.7070	16.2440
 0.7080	17.2050
 0.7090	18.1770
 0.7100	19.1580
 0.7110	20.1490
 0.7120	21.1490
 0.7130	22.1520
 0.7140	23.1570
 0.7150	24.1600
 0.7160	25.1550
 0.7170	26.1310
 0.7180	27.1070
 0.7190	28.0780
 0.7200	29.0270
 0.7210	29.9580
 0.7220	30.8730
 0.7230	31.7700
 0.7240	32.6470
 0.7250	33.4920
 0.7260	34.3040
 0.7270	35.0890
 0.7280	35.8570
 0.7290	36.5900
 0.7300	37.2840
 0.7310	37.9390
 0.7320	38.5640
 0.7330	39.1650
 0.7340	39.7410
 0.7350	40.2810
 0.7360	40.7850
 0.7370	41.2620
 0.7380	41.7160
 0.7390	42.1370
 0.7400	42.5350
 0.7410	42.9100
 0.7420	43.2590
 0.7430	43.5870
 0.7440	43.8740
 0.7450	44.1340
 0.7460	44.4070
 0.7470	44.6540
 0.7480	44.8750
 0.7490	45.0720
 0.7500	45.2380
 0.7510	45.3980
 0.7520	45.5560
 0.7530	45.7020
 0.7540	45.8100
 0.7550	45.9220
 0.7560	46.0410
 0.7570	46.1390
 0.7580	46.2020
 0.7590	46.2690
 0.7600	46.3520
 0.7610	46.3910
 0.7620	46.4500
 0.7630	46.4990
 0.7640	46.5110
 0.7650	46.5770
 0.7660	46.6210
 0.7670	46.6390
 0.7680	46.6710
 0.7690	46.6850
 0.7700	46.7030
 0.7710	46.7340
 0.7720	46.7640
 0.7730	46.7850
 0.7740	46.7930
 0.7750	46.7940
 0.7760	46.8130
 0.7770	46.8220
 0.7780	46.8260
 0.7790	46.8450
 0.7800	46.8720
 0.7810	46.8940
 0.7820	46.9000
 0.7830	46.8910
 0.7840	46.8820
 0.7850	46.8860
 0.7860	46.9070
 0.7870	46.9220
 0.7880	46.9360
 0.7890	46.9480
 0.7900	46.9530
 0.7910	46.9410
 0.7920	46.9500
 0.7930	46.9730
 0.7940	46.9720
 0.7950	46.9740
 0.7960	46.9810
 0.7970	46.9870
 0.7980	46.9830
 0.7990	46.9810
 0.8000	46.9970
 0.8010	47.0240
 0.8020	47.0080
 0.8030	46.9960
 0.8040	46.9930
 0.8050	46.9890
 0.8060	46.9890
 0.8070	47.0040
 0.8080	47.0180
 0.8090	46.9980
 0.8100	46.9930
 0.8110	46.9950
 0.8120	46.9930
 0.8130	46.9890
 0.8140	46.9960
 0.8150	46.9930
 0.8160	46.9670
 0.8170	46.9540
 0.8180	46.9550
 0.8190	46.9620
 0.8200	46.9630
 0.8210	46.9490
 0.8220	46.9470
 0.8230	46.9560
 0.8240	46.9470
 0.8250	46.9520
 0.8260	46.9560
 0.8270	46.9450
 0.8280	46.9130
 0.8290	46.9100
 0.8300	46.9220
 0.8310	46.9220
 0.8320	46.9050
 0.8330	46.9050
 0.8340	46.9060
 0.8350	46.8840
 0.8360	46.8930
 0.8370	46.8910
 0.8380	46.8750
 0.8390	46.8680
 0.8400	46.8760
 0.8410	46.8800
 0.8420	46.8780
 0.8430	46.8960
 0.8440	46.8960
 0.8450	46.8890
 0.8460	46.8860
 0.8470	46.8760
 0.8480	46.8750
 0.8490	46.8820
 0.8500	46.8860
 0.8510	46.8900
 0.8520	46.8840
 0.8530	46.8850
 0.8540	46.9180
 0.8550	46.9240
 0.8560	46.9110
 0.8570	46.8960
 0.8580	46.8990
 0.8590	46.9160
 0.8600	46.9090
 0.8610	46.8860
 0.8620	46.9240
 0.8630	46.9360
 0.8640	46.9250
 0.8650	46.9140
 0.8660	46.9110
 0.8670	46.9190
 0.8680	46.9340
 0.8690	46.9500
 0.8700	46.9640
 0.8710	46.9610
 0.8720	46.9430
 0.8730	46.9230
 0.8740	46.9460
 0.8750	46.9710
 0.8760	46.9800
 0.8770	46.9850
 0.8780	46.9690
 0.8790	46.9600
 0.8800	46.9690
 0.8810	46.9780
 0.8820	47.0080
 0.8830	47.0300
 0.8840	47.0200
 0.8850	46.9910
 0.8860	46.9910
 0.8870	46.9990
 0.8880	46.9910
 0.8890	47.0040
 0.8900	47.0080
 0.8910	47.0050
 0.8920	47.0110
 0.8930	47.0230
 0.8940	47.0280
 0.8950	47.0230
 0.8960	47.0150
 0.8970	47.0080
 0.8980	47.0100
 0.8990	47.0230
 0.9000	47.0420
 0.9010	47.0460
 0.9020	47.0470
 0.9030	47.0460
 0.9040	47.0270
 0.9050	47.0420
 0.9060	47.0650
 0.9070	47.0710
 0.9080	47.0660
 0.9090	47.0640
 0.9100	47.0720
 0.9110	47.0810
 0.9120	47.0590
 0.9130	47.0470
 0.9140	47.0530
 0.9150	47.0710
 0.9160	47.0700
 0.9170	47.0650
 0.9180	47.0640
 0.9190	47.0700
 0.9200	47.0680
 0.9210	47.0650
 0.9220	47.0630
 0.9230	47.0570
 0.9240	47.0480
 0.9250	47.0240
 0.9260	47.0030
 0.9270	47.0180
 0.9280	47.0220
 0.9290	47.0140
 0.9300	47.0030
 0.9310	47.0020
 0.9320	46.9740
 0.9330	46.9450
 0.9340	46.9370
 0.9350	46.9540
 0.9360	46.9500
 0.9370	46.9340
 0.9380	46.9090
 0.9390	46.8610
 0.9400	46.8230
 0.9410	46.8090
 0.9420	46.8130
 0.9430	46.8130
 0.9440	46.8170
 0.9450	46.7960
 0.9460	46.7410
 0.9470	46.7150
 0.9480	46.6810
 0.9490	46.6410
 0.9500	46.6000
 0.9510	46.5570
 0.9520	46.5030
 0.9530	46.4500
 0.9540	46.4100
 0.9550	46.3870
 0.9560	46.3500
 0.9570	46.3100
 0.9580	46.2800
 0.9590	46.2180
 0.9600	46.1700
 0.9610	46.1470
 0.9620	46.1410
 0.9630	46.1290
 0.9640	46.1010
 0.9650	46.0660
 0.9660	46.0330
 0.9670	45.9990
 0.9680	45.9920
 0.9690	45.9950
 0.9700	45.9800
 0.9710	45.9870
 0.9720	45.9850
 0.9730	45.9820
 0.9740	45.9920
 0.9750	45.9900
 0.9760	45.9650
 0.9770	45.9420
 0.9780	45.9490
 0.9790	45.9460
 0.9800	45.9620
 0.9810	45.9670
 0.9820	45.9270
 0.9830	45.9290
 0.9840	45.9520
 0.9850	45.9700
 0.9860	45.9660
 0.9870	45.9540
 0.9880	45.9540
 0.9890	45.9700
 0.9900	45.9890
 0.9910	45.9850
 0.9920	45.9900
 0.9930	45.9950
 0.9940	46.0000
 0.9950	46.0050
 0.9960	46.0110
 0.9970	46.0160
 0.9980	46.0210
 0.9990	46.0260
 1.0000	46.0310
 1.0010	46.0360
 1.0020	46.0420
 1.0030	46.0470
 1.0040	46.0520
 1.0050	46.0570
 1.0060	46.0620
 1.0070	46.0680
 1.0080	46.0730
 1.0090	46.0780
 1.0100	46.0780
 1.0110	46.0920
 1.0120	46.1030
 1.0130	46.1210
 1.0140	46.1350
 1.0150	46.1430
 1.0160	46.1520
 1.0170	46.1650
 1.0180	46.1690
 1.0190	46.1750
 1.0200	46.1900
 1.0210	46.2050
 1.0220	46.2240
 1.0230	46.2380
 1.0240	46.2500
 1.0250	46.2610
 1.0260	46.2700
 1.0270	46.2790
 1.0280	46.2890
 1.0290	46.3000
 1.0300	46.3110
 1.0310	46.3210
 1.0320	46.3350
 1.0330	46.3430
 1.0340	46.3490
 1.0350	46.3620
 1.0360	46.3690
 1.0370	46.3770
 1.0380	46.3820
 1.0390	46.3840
 1.0400	46.3890
 1.0410	46.3950
 1.0420	46.4030
 1.0430	46.4130
 1.0440	46.4220
 1.0450	46.4380
 1.0460	46.4470
 1.0470	46.4510
 1.0480	46.4590
 1.0490	46.4670
 1.0500	46.4710
 1.0510	46.4730
 1.0520	46.4740
 1.0530	46.4760
 1.0540	46.4730
 1.0550	46.4770
 1.0560	46.4870
 1.0570	46.4920
 1.0580	46.4920
 1.0590	46.4980
 1.0600	46.5080
 1.0610	46.5120
 1.0620	46.5130
 1.0630	46.5170
 1.0640	46.5190
 1.0650	46.5190
 1.0660	46.5240
 1.0670	46.5260
 1.0680	46.5250
 1.0690	46.5180
 1.0700	46.5200
 1.0710	46.5250
 1.0720	46.5290
 1.0730	46.5390
 1.0740	46.5410
 1.0750	46.5380
 1.0760	46.5370
 1.0770	46.5340
 1.0780	46.5310
 1.0790	46.5280
 1.0800	46.5240
 1.0810	46.5170
 1.0820	46.5130
 1.0830	46.5150
 1.0840	46.5110
 1.0850	46.5040
 1.0860	46.4970
 1.0870	46.4960
 1.0880	46.4950
 1.0890	46.4920
 1.0900	46.4970
 1.0910	46.4920
 1.0920	46.4800
 1.0930	46.4690
 1.0940	46.4560
 1.0950	46.4450
 1.0960	46.4320
 1.0970	46.4240
 1.0980	46.4280
 1.0990	46.4210
 1.1000	46.4100
 1.1010	46.4010
 1.1020	46.3860
 1.1030	46.3730
 1.1040	46.3690
 1.1050	46.3660
 1.1060	46.3560
 1.1070	46.3430
 1.1080	46.3330
 1.1090	46.3220
 1.1100	46.3100
 1.1110	46.2970
 1.1120	46.2860
 1.1130	46.2750
 1.1140	46.2630
 1.1150	46.2550
 1.1160	46.2410
 1.1170	46.2200
 1.1180	46.2000
 1.1190	46.1770
 1.1200	46.1600
 1.1210	46.1380
 1.1220	46.1180
 1.1230	46.0930
 1.1240	46.0610
 1.1250	46.0300
 1.1260	45.9960
 1.1270	45.9570
 1.1280	45.9160
 1.1290	45.8690
 1.1300	45.8180
 1.1310	45.7600
 1.1320	45.6940
 1.1330	45.6270
 1.1340	45.5550
 1.1350	45.4800
 1.1360	45.4030
 1.1370	45.3220
 1.1380	45.2300
 1.1390	45.1350
 1.1400	45.0350
 1.1410	44.9350
 1.1420	44.8420
 1.1430	44.7470
 1.1440	44.6500
 1.1450	44.5520
 1.1460	44.4550
 1.1470	44.3510
 1.1480	44.2560
 1.1490	44.1640
 1.1500	44.0760
 1.1510	43.9880
 1.1520	43.9100
 1.1530	43.8410
 1.1540	43.7750
 1.1550	43.7140
 1.1560	43.6570
 1.1570	43.6050
 1.1580	43.5610
 1.1590	43.5240
 1.1600	43.4930
 1.1610	43.4660
 1.1620	43.4390
 1.1630	43.4180
 1.1640	43.3990
 1.1650	43.3790
 1.1660	43.3610
 1.1670	43.3470
 1.1680	43.3350
 1.1690	43.3240
 1.1700	43.3150
 1.1710	43.3080
 1.1720	43.3040
 1.1730	43.2980
 1.1740	43.2920
 1.1750	43.2880
 1.1760	43.2790
 1.1770	43.2680
 1.1780	43.2590
 1.1790	43.2470
 1.1800	43.2330
 1.1810	43.2220
 1.1820	43.2110
 1.1830	43.1970
 1.1840	43.1880
 1.1850	43.1780
 1.1860	43.1660
 1.1870	43.1570
 1.1880	43.1470
 1.1890	43.1370
 1.1900	43.1280
 1.1910	43.1200
 1.1920	43.1130
 1.1930	43.1050
 1.1940	43.1000
 1.1950	43.0960
 1.1960	43.0960
 1.1970	43.0960
 1.1980	43.1010
 1.1990	43.1080
 1.2000	43.1130
 1.2010	43.1160
 1.2020	43.1150
 1.2030	43.1170
 1.2040	43.1230
 1.2050	43.1260
 1.2060	43.1370
 1.2070	43.1510
 1.2080	43.1610
 1.2090	43.1730
 1.2100	43.1850
 1.2110	43.1990
 1.2120	43.2140
 1.2130	43.2260
 1.2140	43.2380
 1.2150	43.2520
 1.2160	43.2660
 1.2170	43.2760
 1.2180	43.2930
 1.2190	43.3130
 1.2200	43.3300
 1.2210	43.3520
 1.2220	43.3750
 1.2230	43.3960
 1.2240	43.4180
 1.2250	43.4360
 1.2260	43.4570
 1.2270	43.4820
 1.2280	43.5000
 1.2290	43.5170
 1.2300	43.5320
 1.2310	43.5390
 1.2320	43.5550
 1.2330	43.5740
 1.2340	43.5890
 1.2350	43.6040
 1.2360	43.6200
 1.2370	43.6330
 1.2380	43.6440
 1.2390	43.6590
 1.2400	43.6750
 1.2410	43.6830
 1.2420	43.6900
 1.2430	43.7000
 1.2440	43.7110
 1.2450	43.7240
 1.2460	43.7380
 1.2470	43.7510
 1.2480	43.7580
 1.2490	43.7580
 1.2500	43.7610
 1.2510	43.7650
 1.2520	43.7700
 1.2530	43.7820
 1.2540	43.7920
 1.2550	43.7960
 1.2560	43.8000
 1.2570	43.8040
 1.2580	43.8100
 1.2590	43.8130
 1.2600	43.8170
 1.2610	43.8170
 1.2620	43.8150
 1.2630	43.8090
 1.2640	43.8030
 1.2650	43.7980
 1.2660	43.7950
 1.2670	43.7910
 1.2680	43.7860
 1.2690	43.7820
 1.2700	43.7770
 1.2710	43.7700
 1.2720	43.7600
 1.2730	43.7520
 1.2740	43.7420
 1.2750	43.7310
 1.2760	43.7220
 1.2770	43.7090
 1.2780	43.6950
 1.2790	43.6830
 1.2800	43.6690
 1.2810	43.6540
 1.2820	43.6380
 1.2830	43.6160
 1.2840	43.5940
 1.2850	43.5740
 1.2860	43.5530
 1.2870	43.5320
 1.2880	43.5100
 1.2890	43.4890
 1.2900	43.4640
 1.2910	43.4380
 1.2920	43.4180
 1.2930	43.3960
 1.2940	43.3740
 1.2950	43.3490
 1.2960	43.3190
 1.2970	43.2900
 1.2980	43.2580
 1.2990	43.2250
 1.3000	43.1850
 1.3010	43.1370
 1.3020	43.0920
 1.3030	43.0490
 1.3040	43.0010
 1.3050	42.9520
 1.3060	42.9000
 1.3070	42.8430
 1.3080	42.7880
 1.3090	42.7320
 1.3100	42.6720
 1.3110	42.6110
 1.3120	42.5490
 1.3130	42.4810
 1.3140	42.4110
 1.3150	42.3380
 1.3160	42.2640
 1.3170	42.1860
 1.3180	42.1130
 1.3190	42.0370
 1.3200	41.9550
 1.3210	41.8690
 1.3220	41.7780
 1.3230	41.6870
 1.3240	41.5980
 1.3250	41.5060
 1.3260	41.4130
 1.3270	41.3130
 1.3280	41.2070
 1.3290	41.1020
 1.3300	40.9930
 1.3310	40.8830
 1.3320	40.7760
 1.3330	40.6690
 1.3340	40.5580
 1.3350	40.4480
 1.3360	40.3380
 1.3370	40.2240
 1.3380	40.1110
 1.3390	39.9970
 1.3400	39.8780
 1.3410	39.7650
 1.3420	39.6540
 1.3430	39.5400
 1.3440	39.4280
 1.3450	39.3150
 1.3460	39.1980
 1.3470	39.0880
 1.3480	38.9820
 1.3490	38.8750
 1.3500	38.7710
 1.3510	38.6660
 1.3520	38.5620
 1.3530	38.4550
 1.3540	38.3490
 1.3550	38.2450
 1.3560	38.1330
 1.3570	38.0220
 1.3580	37.9120
 1.3590	37.7980
 1.3600	37.6830
 1.3610	37.5660
 1.3620	37.4430
 1.3630	37.3150
 1.3640	37.1840
 1.3650	37.0470
 1.3660	36.9020
 1.3670	36.7480
 1.3680	36.5840
 1.3690	36.4080
 1.3700	36.2200
 1.3710	36.0240
 1.3720	35.8170
 1.3730	35.5950
 1.3740	35.3620
 1.3750	35.1100
 1.3760	34.8360
 1.3770	34.5410
 1.3780	34.2200
 1.3790	33.8800
 1.3800	33.5220
 1.3810	33.1390
 1.3820	32.7370
 1.3830	32.3180
 1.3840	31.8770
 1.3850	31.4130
 1.3860	30.9360
 1.3870	30.4390
 1.3880	29.9340
 1.3890	29.4150
 1.3900	28.8850
 1.3910	28.3520
 1.3920	27.8110
 1.3930	27.2610
 1.3940	26.7100
 1.3950	26.1520
 1.3960	25.5980
 1.3970	25.0540
 1.3980	24.5160
 1.3990	23.9970
 1.4000	23.4890
 1.4010	22.9920
 1.4020	22.5140
 1.4030	22.0490
 1.4040	21.6050
 1.4050	21.1830
 1.4060	20.7820
 1.4070	20.4060
 1.4080	20.0530
 1.4090	19.7180
 1.4100	19.4060
 1.4110	19.1120
 1.4120	18.8360
 1.4130	18.5810
 1.4140	18.3440
 1.4150	18.1260
 1.4160	17.9270
 1.4170	17.7430
 1.4180	17.5730
 1.4190	17.4180
 1.4200	17.2760
 1.4210	17.1460
 1.4220	17.0310
 1.4230	16.9310
 1.4240	16.8400
 1.4250	16.7570
 1.4260	16.6850
 1.4270	16.6190
 1.4280	16.5600
 1.4290	16.5090
 1.4300	16.4660
 1.4310	16.4290
 1.4320	16.4000
 1.4330	16.3750
 1.4340	16.3570
 1.4350	16.3420
 1.4360	16.3310
 1.4370	16.3230
 1.4380	16.3190
 1.4390	16.3190
 1.4400	16.3230
 1.4410	16.3300
 1.4420	16.3400
 1.4430	16.3530
 1.4440	16.3690
 1.4450	16.3860
 1.4460	16.4040
 1.4470	16.4250
 1.4480	16.4480
 1.4490	16.4720
 1.4500	16.4980
 1.4510	16.5230
 1.4520	16.5490
 1.4530	16.5770
 1.4540	16.6070
 1.4550	16.6400
 1.4560	16.6760
 1.4570	16.7170
 1.4580	16.7580
 1.4590	16.8000
 1.4600	16.8500
 1.4610	16.9010
 1.4620	16.9570
 1.4630	17.0210
 1.4640	17.0850
 1.4650	17.1540
 1.4660	17.2280
 1.4670	17.3080
 1.4680	17.3960
 1.4690	17.4870
 1.4700	17.5820
 1.4710	17.6840
 1.4720	17.7890
 1.4730	17.8980
 1.4740	18.0140
 1.4750	18.1300
 1.4760	18.2480
 1.4770	18.3690
 1.4780	18.4900
 1.4790	18.6150
 1.4800	18.7410
 1.4810	18.8680
 1.4820	18.9950
 1.4830	19.1220
 1.4840	19.2510
 1.4850	19.3800
 1.4860	19.5120
 1.4870	19.6440
 1.4880	19.7740
 1.4890	19.9080
 1.4900	20.0420
 1.4910	20.1740
 1.4920	20.3080
 1.4930	20.4450
 1.4940	20.5790
 1.4950	20.7130
 1.4960	20.8480
 1.4970	20.9820
 1.4980	21.1160
 1.4990	21.2500
 1.5000	21.3840
 1.5010	21.5180
 1.5020	21.6510
 1.5030	21.7860
 1.5040	21.9180
 1.5050	22.0480
 1.5060	22.1790
 1.5070	22.3120
 1.5080	22.4390
 1.5090	22.5640
 1.5100	22.6900
 1.5110	22.8120
 1.5120	22.9340
 1.5130	23.0580
 1.5140	23.1830
 1.5150	23.3060
 1.5160	23.4290
 1.5170	23.5550
 1.5180	23.6770
 1.5190	23.7990
 1.5200	23.9210
 1.5210	24.0390
 1.5220	24.1570
 1.5230	24.2730
 1.5240	24.3870
 1.5250	24.5010
 1.5260	24.6100
 1.5270	24.7190
 1.5280	24.8280
 1.5290	24.9350
 1.5300	25.0430
 1.5310	25.1510
 1.5320	25.2580
 1.5330	25.3610
 1.5340	25.4610
 1.5350	25.5610
 1.5360	25.6640
 1.5370	25.7640
 1.5380	25.8660
 1.5390	25.9680
 1.5400	26.0650
 1.5410	26.1620
 1.5420	26.2590
 1.5430	26.3530
 1.5440	26.4490
 1.5450	26.5420
 1.5460	26.6340
 1.5470	26.7240
 1.5480	26.8110
 1.5490	26.8990
 1.5500	26.9840
 1.5510	27.0660
 1.5520	27.1510
 1.5530	27.2350
 1.5540	27.3190
 1.5550	27.4060
 1.5560	27.4890
 1.5570	27.5720
 1.5580	27.6540
 1.5590	27.7350
 1.5600	27.8140
 1.5610	27.8890
 1.5620	27.9610
 1.5630	28.0300
 1.5640	28.0940
 1.5650	28.1620
 1.5660	28.2280
 1.5670	28.2980
 1.5680	28.3720
 1.5690	28.4430
 1.5700	28.5130
 1.5710	28.5820
 1.5720	28.6470
 1.5730	28.7130
 1.5740	28.7790
 1.5750	28.8480
 1.5760	28.9180
 1.5770	28.9860
 1.5780	29.0550
 1.5790	29.1180
 1.5800	29.1760
 1.5810	29.2390
 1.5820	29.2990
 1.5830	29.3570
 1.5840	29.4210
 1.5850	29.4800
 1.5860	29.5340
 1.5870	29.5930
 1.5880	29.6500
 1.5890	29.7060
 1.5900	29.7700
 1.5910	29.8320
 1.5920	29.8910
 1.5930	29.9510
 1.5940	30.0080
 1.5950	30.0640
 1.5960	30.1210
 1.5970	30.1820
 1.5980	30.2420
 1.5990	30.3000
 1.6000	30.3550
 1.6010	30.4060
 1.6020	30.4560
 1.6030	30.5070
 1.6040	30.5560
 1.6050	30.6040
 1.6060	30.6470
 1.6070	30.6870
 1.6080	30.7290
 1.6090	30.7700
 1.6100	30.8130
 1.6110	30.8580
 1.6120	30.8990
 1.6130	30.9390
 1.6140	30.9830
 1.6150	31.0250
 1.6160	31.0680
 1.6170	31.1100
 1.6180	31.1480
 1.6190	31.1850
 1.6200	31.2250
 1.6210	31.2620
 1.6220	31.3000
 1.6230	31.3370
 1.6240	31.3670
 1.6250	31.3960
 1.6260	31.4280
 1.6270	31.4590
 1.6280	31.4920
 1.6290	31.5240
 1.6300	31.5540
 1.6310	31.5820
 1.6320	31.6100
 1.6330	31.6380
 1.6340	31.6630
 1.6350	31.6890
 1.6360	31.7180
 1.6370	31.7420
 1.6380	31.7630
 1.6390	31.7830
 1.6400	31.7990
 1.6410	31.8120
 1.6420	31.8230
 1.6430	31.8340
 1.6440	31.8430
 1.6450	31.8520
 1.6460	31.8620
 1.6470	31.8700
 1.6480	31.8740
 1.6490	31.8730
 1.6500	31.8710
 1.6510	31.8660
 1.6520	31.8600
 1.6530	31.8540
 1.6540	31.8460
 1.6550	31.8370
 1.6560	31.8270
 1.6570	31.8190
 1.6580	31.8110
 1.6590	31.8030
 1.6600	31.7930
 1.6610	31.7800
 1.6620	31.7670
 1.6630	31.7540
 1.6640	31.7390
 1.6650	31.7240
 1.6660	31.7120
 1.6670	31.7010
 1.6680	31.6930
 1.6690	31.6860
 1.6700	31.6740
 1.6710	31.6590
 1.6720	31.6470
 1.6730	31.6380
 1.6740	31.6270
 1.6750	31.6170
 1.6760	31.6050
 1.6770	31.5880
 1.6780	31.5710
 1.6790	31.5550
 1.6800	31.5350
 1.6810	31.5080
 1.6820	31.4820
 1.6830	31.4530
 1.6840	31.4230
 1.6850	31.3990
 1.6860	31.3710
 1.6870	31.3390
 1.6880	31.3090
 1.6890	31.2740
 1.6900	31.2400
 1.6910	31.2040
 1.6920	31.1680
 1.6930	31.1300
 1.6940	31.0920
 1.6950	31.0550
 1.6960	31.0160
 1.6970	30.9770
 1.6980	30.9350
 1.6990	30.8930
 1.7000	30.8490
 1.7010	30.8010
 1.7020	30.7550
 1.7030	30.7100
 1.7040	30.6650
 1.7050	30.6200
 1.7060	30.5730
 1.7070	30.5260
 1.7080	30.4760
 1.7090	30.4240
 1.7100	30.3720
 1.7110	30.3190
 1.7120	30.2630
 1.7130	30.2120
 1.7140	30.1590
 1.7150	30.1030
 1.7160	30.0500
 1.7170	29.9960
 1.7180	29.9380
 1.7190	29.8820
 1.7200	29.8270
 1.7210	29.7680
 1.7220	29.7130
 1.7230	29.6610
 1.7240	29.6050
 1.7250	29.5520
 1.7260	29.5040
 1.7270	29.4590
 1.7280	29.4150
 1.7290	29.3720
 1.7300	29.3320
 1.7310	29.2950
 1.7320	29.2660
 1.7330	29.2330
 1.7340	29.1980
 1.7350	29.1670
 1.7360	29.1390
 1.7370	29.1080
 1.7380	29.0830
 1.7390	29.0500
 1.7400	29.0090
 1.7410	28.9700
 1.7420	28.9280
 1.7430	28.8850
 1.7440	28.8400
 1.7450	28.7950
 1.7460	28.7450
 1.7470	28.6980
 1.7480	28.6530
 1.7490	28.6060
 1.7500	28.5600
 1.7510	28.5090
 1.7520	28.4530
 1.7530	28.3970
 1.7540	28.3390
 1.7550	28.2800
 1.7560	28.2210
 1.7570	28.1640
 1.7580	28.1070
 1.7590	28.0500
 1.7600	27.9970
 1.7610	27.9460
 1.7620	27.8950
 1.7630	27.8470
 1.7640	27.8000
 1.7650	27.7530
 1.7660	27.7080
 1.7670	27.6630
 1.7680	27.6230
 1.7690	27.5880
 1.7700	27.5520
 1.7710	27.5210
 1.7720	27.4880
 1.7730	27.4510
 1.7740	27.4170
 1.7750	27.3850
 1.7760	27.3520
 1.7770	27.3150
 1.7780	27.2850
 1.7790	27.2570
 1.7800	27.2300
 1.7810	27.2110
 1.7820	27.1850
 1.7830	27.1580
 1.7840	27.1310
 1.7850	27.1000
 1.7860	27.0810
 1.7870	27.0660
 1.7880	27.0640
 1.7890	27.0640
 1.7900	27.0520
 1.7910	27.0410
 1.7920	27.0210
 1.7930	27.0040
 1.7940	26.9880
 1.7950	26.9780
 1.7960	26.9750
 1.7970	26.9680
 1.7980	26.9650
 1.7990	26.9580
 1.8000	26.9420
 1.8010	26.9390
 1.8020	26.9430
 1.8030	26.9460
 1.8040	26.9580
 1.8050	26.9620
 1.8060	26.9620
 1.8070	26.9650
 1.8080	26.9660
 1.8090	26.9680
 1.8100	26.9720
 1.8110	26.9690
 1.8120	26.9670
 1.8130	26.9700
 1.8140	26.9680
 1.8150	26.9620
 1.8160	26.9590
 1.8170	26.9560
 1.8180	26.9480
 1.8190	26.9540
 1.8200	26.9510
 1.8210	26.9400
 1.8220	26.9330
 1.8230	26.9210
 1.8240	26.9130
 1.8250	26.9080
 1.8260	26.9010
 1.8270	26.8490
 1.8280	26.7970
 1.8290	26.7450
 1.8300	26.6920
 1.8310	26.6400
 1.8320	26.5880
 1.8330	26.5350
 1.8340	26.4830
 1.8350	26.4830
 1.8360	26.4380
 1.8370	26.3930
 1.8380	26.3450
 1.8390	26.2960
 1.8400	26.2530
 1.8410	26.1960
 1.8420	26.1340
 1.8430	26.0640
 1.8440	25.9760
 1.8450	25.8770
 1.8460	25.7690
 1.8470	25.6550
 1.8480	25.5330
 1.8490	25.4080
 1.8500	25.2730
 1.8510	25.1330
 1.8520	24.9750
 1.8530	24.8150
 1.8540	24.6440
 1.8550	24.4490
 1.8560	24.2510
 1.8570	24.0300
 1.8580	23.7800
 1.8590	23.5250
 1.8600	23.2590
 1.8610	22.9750
 1.8620	22.6680
 1.8630	22.3630
 1.8640	22.0440
 1.8650	21.6880
 1.8660	21.3240
 1.8670	20.9360
 1.8680	20.5140
 1.8690	20.0840
 1.8700	19.6330
 1.8710	19.1640
 1.8720	18.6750
 1.8730	18.1790
 1.8740	17.6700
 1.8750	17.1490
 1.8760	16.6200
 1.8770	16.0810
 1.8780	15.5360
 1.8790	14.9920
 1.8800	14.4540
 1.8810	13.9170
 1.8820	13.3860
 1.8830	12.8600
 1.8840	12.3370
 1.8850	11.8230
 1.8860	11.3190
 1.8870	10.8280
 1.8880	10.3520
 1.8890	 9.8980
 1.8900	 9.4650
 1.8910	 9.0520
 1.8920	 8.6560
 1.8930	 8.2890
 1.8940	 7.9460
 1.8950	 7.6270
 1.8960	 7.3390
 1.8970	 7.0750
 1.8980	 6.8330
 1.8990	 6.6100
 1.9000	 6.4070
 1.9010	 6.2310
 1.9020	 6.0670
 1.9030	 5.9200
 1.9040	 5.7910
 1.9050	 5.6800
 1.9060	 5.5750
 1.9070	 5.4840
 1.9080	 5.4070
 1.9090	 5.3350
 1.9100	 5.2770
 1.9110	 5.2260
 1.9120	 5.1870
 1.9130	 5.1490
 1.9140	 5.1210
 1.9150	 5.0940
 1.9160	 5.0690
 1.9170	 5.0490
 1.9180	 5.0310
 1.9190	 5.0170
 1.9200	 5.0060
 1.9210	 4.9990
 1.9220	 4.9940
 1.9230	 4.9910
 1.9240	 4.9900
 1.9250	 4.9900
 1.9260	 4.9940
 1.9270	 5.0020
 1.9280	 5.0110
 1.9290	 5.0210
 1.9300	 5.0290
 1.9310	 5.0360
 1.9320	 5.0440
 1.9330	 5.0570
 1.9340	 5.0730
 1.9350	 5.0910
 1.9360	 5.1150
 1.9370	 5.1380
 1.9380	 5.1640
 1.9390	 5.1840
 1.9400	 5.2050
 1.9410	 5.2290
 1.9420	 5.2550
 1.9430	 5.2850
 1.9440	 5.3160
 1.9450	 5.3510
 1.9460	 5.3850
 1.9470	 5.4180
 1.9480	 5.4550
 1.9490	 5.4950
 1.9500	 5.5330
 1.9510	 5.5730
 1.9520	 5.6120
 1.9530	 5.6440
 1.9540	 5.6780
 1.9550	 5.7160
 1.9560	 5.7530
 1.9570	 5.7940
 1.9580	 5.8410
 1.9590	 5.8860
 1.9600	 5.9270
 1.9610	 5.9750
 1.9620	 6.0270
 1.9630	 6.0810
 1.9640	 6.1370
 1.9650	 6.1890
 1.9660	 6.2350
 1.9670	 6.2850
 1.9680	 6.3390
 1.9690	 6.3950
 1.9700	 6.4530
 1.9710	 6.5180
 1.9720	 6.5770
 1.9730	 6.6320
 1.9740	 6.6880
 1.9750	 6.7460
 1.9760	 6.8030
 1.9770	 6.8630
 1.9780	 6.9290
 1.9790	 6.9980
 1.9800	 7.0730
 1.9810	 7.1450
 1.9820	 7.2220
 1.9830	 7.2930
 1.9840	 7.3570
 1.9850	 7.4270
 1.9860	 7.4970
 1.9870	 7.5680
 1.9880	 7.6450
 1.9890	 7.7210
 1.9900	 7.7970
 1.9910	 7.8690
 1.9920	 7.9440
 1.9930	 8.0170
 1.9940	 8.0920
 1.9950	 8.1700
 1.9960	 8.2470
 1.9970	 8.3260
 1.9980	 8.4000
 1.9990	 8.4730
 2.0000	 8.5450
 2.0010	 8.6190
 2.0020	 8.6950
 2.0030	 8.7750
 2.0040	 8.8590
 2.0050	 8.9370
 2.0060	 9.0100
 2.0070	 9.0850
 2.0080	 9.1560
 2.0090	 9.2310
 2.0100	 9.3100
 2.0110	 9.3880
 2.0120	 9.4670
 2.0130	 9.5460
 2.0140	 9.6230
 2.0150	 9.6940
 2.0160	 9.7640
 2.0170	 9.8360
 2.0180	 9.9070
 2.0190	 9.9760
 2.0200	10.0460
 2.0210	10.1180
 2.0220	10.1880
 2.0230	10.2590
 2.0240	10.3270
 2.0250	10.3920
 2.0260	10.4570
 2.0270	10.5190
 2.0280	10.5820
 2.0290	10.6420
 2.0300	10.7000
 2.0310	10.7590
 2.0320	10.8140
 2.0330	10.8740
 2.0340	10.9380
 2.0350	10.9960
 2.0360	11.0550
 2.0370	11.1070
 2.0380	11.1480
 2.0390	11.1950
 2.0400	11.2420
 2.0410	11.2870
 2.0420	11.3300
 2.0430	11.3810
 2.0440	11.4240
 2.0450	11.4590
 2.0460	11.5010
 2.0470	11.5430
 2.0480	11.5890
 2.0490	11.6400
 2.0500	11.6880
 2.0510	11.7380
 2.0520	11.7800
 2.0530	11.8110
 2.0540	11.8510
 2.0550	11.8880
 2.0560	11.9280
 2.0570	11.9800
 2.0580	12.0330
 2.0590	12.0860
 2.0600	12.1400
 2.0610	12.1920
 2.0620	12.2460
 2.0630	12.2940
 2.0640	12.3380
 2.0650	12.3860
 2.0660	12.4340
 2.0670	12.4830
 2.0680	12.5380
 2.0690	12.5880
 2.0700	12.6290
 2.0710	12.6780
 2.0720	12.7270
 2.0730	12.7780
 2.0740	12.8290
 2.0750	12.8850
 2.0760	12.9380
 2.0770	12.9920
 2.0780	13.0390
 2.0790	13.0830
 2.0800	13.1280
 2.0810	13.1660
 2.0820	13.2080
 2.0830	13.2530
 2.0840	13.2970
 2.0850	13.3400
 2.0860	13.3840
 2.0870	13.4270
 2.0880	13.4700
 2.0890	13.5180
 2.0900	13.5720
 2.0910	13.6170
 2.0920	13.6650
 2.0930	13.7080
 2.0940	13.7420
 2.0950	13.7810
 2.0960	13.8230
 2.0970	13.8620
 2.0980	13.8980
 2.0990	13.9330
 2.1000	13.9650
 2.1010	14.0010
 2.1020	14.0360
 2.1030	14.0730
 2.1040	14.1080
 2.1050	14.1480
 2.1060	14.1920
 2.1070	14.2400
 2.1080	14.2800
 2.1090	14.3260
 2.1100	14.3610
 2.1110	14.3830
 2.1120	14.4120
 2.1130	14.4390
 2.1140	14.4700
 2.1150	14.5060
 2.1160	14.5400
 2.1170	14.5760
 2.1180	14.6100
 2.1190	14.6400
 2.1200	14.6710
 2.1210	14.7020
 2.1220	14.7330
 2.1230	14.7640
 2.1240	14.7960
 2.1250	14.8260
 2.1260	14.8580
 2.1270	14.8840
 2.1280	14.9060
 2.1290	14.9300
 2.1300	14.9490
 2.1310	14.9750
 2.1320	15.0110
 2.1330	15.0340
 2.1340	15.0510
 2.1350	15.0710
 2.1360	15.0810
 2.1370	15.0980
 2.1380	15.1280
 2.1390	15.1510
 2.1400	15.1720
 2.1410	15.1910
 2.1420	15.2140
 2.1430	15.2370
 2.1440	15.2580
 2.1450	15.2820
 2.1460	15.3020
 2.1470	15.3180
 2.1480	15.3330
 2.1490	15.3440
 2.1500	15.3620
 2.1510	15.3800
 2.1520	15.4010
 2.1530	15.4330
 2.1540	15.4550
 2.1550	15.4710
 2.1560	15.4890
 2.1570	15.5020
 2.1580	15.5170
 2.1590	15.5320
 2.1600	15.5500
 2.1610	15.5640
 2.1620	15.5820
 2.1630	15.6040
 2.1640	15.6290
 2.1650	15.6510
 2.1660	15.6740
 2.1670	15.6960
 2.1680	15.7140
 2.1690	15.7360
 2.1700	15.7610
 2.1710	15.7840
 2.1720	15.8070
 2.1730	15.8280
 2.1740	15.8480
 2.1750	15.8660
 2.1760	15.8810
 2.1770	15.8970
 2.1780	15.9090
 2.1790	15.9280
 2.1800	15.9540
 2.1810	15.9780
 2.1820	16.0030
 2.1830	16.0310
 2.1840	16.0550
 2.1850	16.0770
 2.1860	16.1020
 2.1870	16.1260
 2.1880	16.1550
 2.1890	16.1860
 2.1900	16.2150
 2.1910	16.2460
 2.1920	16.2760
 2.1930	16.3010
 2.1940	16.3300
 2.1950	16.3650
 2.1960	16.3950
 2.1970	16.4270
 2.1980	16.4560
 2.1990	16.4860
 2.2000	16.5090
 2.2010	16.5220
 2.2020	16.5410
 2.2030	16.5580
 2.2040	16.5750
 2.2050	16.6020
 2.2060	16.6230
 2.2070	16.6360
 2.2080	16.6430
 2.2090	16.6490
 2.2100	16.6440
 2.2110	16.6520
 2.2120	16.6610
 2.2130	16.6720
 2.2140	16.6910
 2.2150	16.7050
 2.2160	16.7170
 2.2170	16.7310
 2.2180	16.7480
 2.2190	16.7580
 2.2200	16.7670
 2.2210	16.7670
 2.2220	16.7580
 2.2230	16.7490
 2.2240	16.7320
 2.2250	16.7190
 2.2260	16.7090
 2.2270	16.6950
 2.2280	16.6870
 2.2290	16.6690
 2.2300	16.6390
 2.2310	16.6130
 2.2320	16.5890
 2.2330	16.5530
 2.2340	16.5140
 2.2350	16.4720
 2.2360	16.4310
 2.2370	16.3810
 2.2380	16.3340
 2.2390	16.2910
 2.2400	16.2400
 2.2410	16.1750
 2.2420	16.1230
 2.2430	16.0760
 2.2440	16.0260
 2.2450	15.9810
 2.2460	15.9300
 2.2470	15.8740
 2.2480	15.8150
 2.2490	15.7510
 2.2500	15.6900
 2.2510	15.6270
 2.2520	15.5640
 2.2530	15.5030
 2.2540	15.4420
 2.2550	15.3790
 2.2560	15.3170
 2.2570	15.2570
 2.2580	15.2000
 2.2590	15.1450
 2.2600	15.0900
 2.2610	15.0380
 2.2620	14.9850
 2.2630	14.9300
 2.2640	14.8650
 2.2650	14.8080
 2.2660	14.7520
 2.2670	14.6890
 2.2680	14.6260
 2.2690	14.5640
 2.2700	14.4960
 2.2710	14.4310
 2.2720	14.3680
 2.2730	14.3130
 2.2740	14.2580
 2.2750	14.2090
 2.2760	14.1770
 2.2770	14.1290
 2.2780	14.0720
 2.2790	14.0190
 2.2800	13.9630
 2.2810	13.9060
 2.2820	13.8440
 2.2830	13.7930
 2.2840	13.7520
 2.2850	13.7020
 2.2860	13.6590
 2.2870	13.6130
 2.2880	13.5590
 2.2890	13.5080
 2.2900	13.4700
 2.2910	13.4190
 2.2920	13.3460
 2.2930	13.2910
 2.2940	13.2410
 2.2950	13.1880
 2.2960	13.1560
 2.2970	13.1080
 2.2980	13.0530
 2.2990	12.9790
 2.3000	12.9070
 2.3010	12.8250
 2.3020	12.7500
 2.3030	12.6870
 2.3040	12.6300
 2.3050	12.5840
 2.3060	12.5300
 2.3070	12.4830
 2.3080	12.4480
 2.3090	12.4100
 2.3100	12.3780
 2.3110	12.3530
 2.3120	12.3260
 2.3130	12.2920
 2.3140	12.2700
 2.3150	12.2560
 2.3160	12.2370
 2.3170	12.2210
 2.3180	12.2050
 2.3190	12.1890
 2.3200	12.1770
 2.3210	12.1750
 2.3220	12.1600
 2.3230	12.1450
 2.3240	12.1200
 2.3250	12.0760
 2.3260	12.0460
 2.3270	12.0230
 2.3280	11.9880
 2.3290	11.9540
 2.3300	11.9190
 2.3310	11.8790
 2.3320	11.8290
 2.3330	11.7770
 2.3340	11.7280
 2.3350	11.6610
 2.3360	11.6150
 2.3370	11.5910
 2.3380	11.5500
 2.3390	11.5060
 2.3400	11.4620
 2.3410	11.4080
 2.3420	11.3600
 2.3430	11.3180
 2.3440	11.2750
 2.3450	11.2360
 2.3460	11.1910
 2.3470	11.1460
 2.3480	11.0940
 2.3490	11.0180
 2.3500	10.9700
 2.3510	10.9430
 2.3520	10.9050
 2.3530	10.8720
 2.3540	10.8560
 2.3550	10.8200
 2.3560	10.7790
 2.3570	10.7500
 2.3580	10.7180
 2.3590	10.6970
 2.3600	10.6630
 2.3610	10.6400
 2.3620	10.6300
 2.3630	10.6000
 2.3640	10.5770
 2.3650	10.5630
 2.3660	10.5370
 2.3670	10.5000
 2.3680	10.4730
 2.3690	10.4230
 2.3700	10.3510
 2.3710	10.3040
 2.3720	10.2610
 2.3730	10.2210
 2.3740	10.1880
 2.3750	10.1510
 2.3760	10.1080
 2.3770	10.0760
 2.3780	10.0570
 2.3790	10.0330
 2.3800	10.0020
 2.3810	 9.9540
 2.3820	 9.8990
 2.3830	 9.8390
 2.3840	 9.7680
 2.3850	 9.7160
 2.3860	 9.6610
 2.3870	 9.5990
 2.3880	 9.5680
 2.3890	 9.5100
 2.3900	 9.4410
 2.3910	 9.4040
 2.3920	 9.3490
 2.3930	 9.3040
 2.3940	 9.2730
 2.3950	 9.2280
 2.3960	 9.1790
 2.3970	 9.1270
 2.3980	 9.0910
 2.3990	 9.0670
 2.4000	 9.0350
 2.4010	 9.0000
 2.4020	 8.9620
 2.4030	 8.9100
 2.4040	 8.8510
 2.4050	 8.8100
 2.4060	 8.7740
 2.4070	 8.7320
 2.4080	 8.6840
 2.4090	 8.6230
 2.4100	 8.5500
 2.4110	 8.4900
 2.4120	 8.4490
 2.4130	 8.3980
 2.4140	 8.3660
 2.4150	 8.3260
 2.4160	 8.2520
 2.4170	 8.1990
 2.4180	 8.1620
 2.4190	 8.1160
 2.4200	 8.0760
 2.4210	 8.0600
 2.4220	 8.0230
 2.4230	 7.9800
 2.4240	 7.9570
 2.4250	 7.8890
 2.4260	 7.8230
 2.4270	 7.7430
 2.4280	 7.6570
 2.4290	 7.6040
 2.4300	 7.5410
 2.4310	 7.5180
 2.4320	 7.4880
 2.4330	 7.4510
 2.4340	 7.4320
 2.4350	 7.3720
 2.4360	 7.3440
 2.4370	 7.3290
 2.4380	 7.2640
 2.4390	 7.1880
 2.4400	 7.1160
 2.4410	 7.0540
 2.4420	 7.0020
 2.4430	 6.9690
 2.4440	 6.9410
 2.4450	 6.8940
 2.4460	 6.8690
 2.4470	 6.8390
 2.4480	 6.7910
 2.4490	 6.7490
 2.4500	 6.6840
 2.4510	 6.6380
 2.4520	 6.6090
 2.4530	 6.5690
 2.4540	 6.5580
 2.4550	 6.5310
 2.4560	 6.4840
 2.4570	 6.4330
 2.4580	 6.3490
 2.4590	 6.2870
 2.4600	 6.2560
 2.4610	 6.2410
 2.4620	 6.2400
 2.4630	 6.2060
 2.4640	 6.1710
 2.4650	 6.1530
 2.4660	 6.0980
 2.4670	 6.0790
 2.4680	 6.0860
 2.4690	 6.0060
 2.4700	 5.9530
 2.4710	 5.8790
 2.4720	 5.8260
 2.4730	 5.8060
 2.4740	 5.8050
 2.4750	 5.8310
 2.4760	 5.8410
 2.4770	 5.8300
 2.4780	 5.8270
 2.4790	 5.8430
 2.4800	 5.8210
 2.4810	 5.7910
 2.4820	 5.7960
 2.4830	 5.7410
 2.4840	 5.6740
 2.4850	 5.6590
 2.4860	 5.6630
 2.4870	 5.6440
 2.4880	 5.6290
 2.4890	 5.6440
 2.4900	 5.6070
 2.4910	 5.5730
 2.4920	 5.5210
 2.4930	 5.5100
 2.4940	 5.4920
 2.4950	 5.4020
 2.4960	 5.4060
 2.4970	 5.3680
 2.4980	 5.3560
 2.4990	 5.5250
 2.5000	 5.6520
