Name: Pinus ponderosa 2
Type: vegetation
Class: Tree
Genus: Pinus
Species: ponderosa
Sample No.: VH157
Owner: UCSB
Wavelength Range: VSWIR
Origin: 37.044; -119.3023; WGS84
Collection Date: 6/8/2013
Description: Samples were collected as part of the HyspIRI Airborne Campaign. 48 individual plants were sampled in three times in 2013 - spring  summer  and fall. The name of the sample includes a 1  2  or 3 which references a different individual of the species. Samples were taken to JPL and processed within 48 hours of collection. The same leaves were processed in the Nicolet and then measured using the ASD.
Measurement: Bidirectional reflectance
First Column: X
Second Column: Y
X Units: Wavelength (micrometers)
Y Units: Reflectance (percentage)
First X Value: 0.35
Last X Value: 2.5
Number of X Values: 2151
Additional Information: vegetation.tree.pinus.ponderosa.vswir.vh157.ucsb.asd.ancillary.txt

 0.3500	 5.4460
 0.3510	 5.3810
 0.3520	 5.3110
 0.3530	 5.3420
 0.3540	 5.4660
 0.3550	 5.3920
 0.3560	 5.3050
 0.3570	 5.2880
 0.3580	 5.3430
 0.3590	 5.3270
 0.3600	 5.3000
 0.3610	 5.3160
 0.3620	 5.4140
 0.3630	 5.3860
 0.3640	 5.3290
 0.3650	 5.3450
 0.3660	 5.2540
 0.3670	 5.2530
 0.3680	 5.3080
 0.3690	 5.2380
 0.3700	 5.1600
 0.3710	 5.1480
 0.3720	 5.1940
 0.3730	 5.1550
 0.3740	 5.1620
 0.3750	 5.2040
 0.3760	 5.2210
 0.3770	 5.1480
 0.3780	 5.1730
 0.3790	 5.2590
 0.3800	 5.1930
 0.3810	 5.1490
 0.3820	 5.1640
 0.3830	 5.2190
 0.3840	 5.2050
 0.3850	 5.1930
 0.3860	 5.2050
 0.3870	 5.2300
 0.3880	 5.1810
 0.3890	 5.1880
 0.3900	 5.2460
 0.3910	 5.1960
 0.3920	 5.2220
 0.3930	 5.2630
 0.3940	 5.2420
 0.3950	 5.2030
 0.3960	 5.1900
 0.3970	 5.2090
 0.3980	 5.2400
 0.3990	 5.2050
 0.4000	 5.1740
 0.4010	 5.1800
 0.4020	 5.1700
 0.4030	 5.1760
 0.4040	 5.1940
 0.4050	 5.2130
 0.4060	 5.2080
 0.4070	 5.2190
 0.4080	 5.2650
 0.4090	 5.3460
 0.4100	 5.3840
 0.4110	 5.3960
 0.4120	 5.4070
 0.4130	 5.4610
 0.4140	 5.4920
 0.4150	 5.5250
 0.4160	 5.5940
 0.4170	 5.6570
 0.4180	 5.7320
 0.4190	 5.8080
 0.4200	 5.8620
 0.4210	 5.9090
 0.4220	 5.9660
 0.4230	 6.0420
 0.4240	 6.1230
 0.4250	 6.1930
 0.4260	 6.2650
 0.4270	 6.3470
 0.4280	 6.4110
 0.4290	 6.4740
 0.4300	 6.5450
 0.4310	 6.5910
 0.4320	 6.6320
 0.4330	 6.6840
 0.4340	 6.7460
 0.4350	 6.8140
 0.4360	 6.8710
 0.4370	 6.9120
 0.4380	 6.9550
 0.4390	 7.0260
 0.4400	 7.0880
 0.4410	 7.1200
 0.4420	 7.1570
 0.4430	 7.1990
 0.4440	 7.2400
 0.4450	 7.2700
 0.4460	 7.3180
 0.4470	 7.3660
 0.4480	 7.4040
 0.4490	 7.4310
 0.4500	 7.4610
 0.4510	 7.4940
 0.4520	 7.5300
 0.4530	 7.5600
 0.4540	 7.5900
 0.4550	 7.6150
 0.4560	 7.6330
 0.4570	 7.6510
 0.4580	 7.6730
 0.4590	 7.6950
 0.4600	 7.7130
 0.4610	 7.7290
 0.4620	 7.7430
 0.4630	 7.7640
 0.4640	 7.7750
 0.4650	 7.7880
 0.4660	 7.8040
 0.4670	 7.8160
 0.4680	 7.8190
 0.4690	 7.8180
 0.4700	 7.8200
 0.4710	 7.8320
 0.4720	 7.8440
 0.4730	 7.8540
 0.4740	 7.8630
 0.4750	 7.8580
 0.4760	 7.8590
 0.4770	 7.8730
 0.4780	 7.8780
 0.4790	 7.8860
 0.4800	 7.8940
 0.4810	 7.8950
 0.4820	 7.9000
 0.4830	 7.9070
 0.4840	 7.9210
 0.4850	 7.9330
 0.4860	 7.9400
 0.4870	 7.9530
 0.4880	 7.9790
 0.4890	 7.9910
 0.4900	 8.0070
 0.4910	 8.0320
 0.4920	 8.0600
 0.4930	 8.0900
 0.4940	 8.1280
 0.4950	 8.1740
 0.4960	 8.2170
 0.4970	 8.2580
 0.4980	 8.3040
 0.4990	 8.3540
 0.5000	 8.4100
 0.5010	 8.4730
 0.5020	 8.5440
 0.5030	 8.6150
 0.5040	 8.6960
 0.5050	 8.7860
 0.5060	 8.8800
 0.5070	 8.9800
 0.5080	 9.0880
 0.5090	 9.2050
 0.5100	 9.3260
 0.5110	 9.4560
 0.5120	 9.5960
 0.5130	 9.7450
 0.5140	 9.9040
 0.5150	10.0640
 0.5160	10.2320
 0.5170	10.4140
 0.5180	10.5960
 0.5190	10.7820
 0.5200	10.9700
 0.5210	11.1540
 0.5220	11.3480
 0.5230	11.5400
 0.5240	11.7180
 0.5250	11.8930
 0.5260	12.0630
 0.5270	12.2220
 0.5280	12.3660
 0.5290	12.5000
 0.5300	12.6260
 0.5310	12.7450
 0.5320	12.8510
 0.5330	12.9490
 0.5340	13.0370
 0.5350	13.1140
 0.5360	13.1860
 0.5370	13.2470
 0.5380	13.2990
 0.5390	13.3470
 0.5400	13.3850
 0.5410	13.4130
 0.5420	13.4370
 0.5430	13.4640
 0.5440	13.4960
 0.5450	13.5350
 0.5460	13.5820
 0.5470	13.6410
 0.5480	13.6960
 0.5490	13.7400
 0.5500	13.7700
 0.5510	13.7900
 0.5520	13.8020
 0.5530	13.8060
 0.5540	13.7990
 0.5550	13.7780
 0.5560	13.7430
 0.5570	13.7010
 0.5580	13.6440
 0.5590	13.5780
 0.5600	13.5080
 0.5610	13.4370
 0.5620	13.3600
 0.5630	13.2780
 0.5640	13.1960
 0.5650	13.1050
 0.5660	13.0110
 0.5670	12.9160
 0.5680	12.8140
 0.5690	12.7020
 0.5700	12.5890
 0.5710	12.4800
 0.5720	12.3760
 0.5730	12.2700
 0.5740	12.1670
 0.5750	12.0730
 0.5760	11.9910
 0.5770	11.9170
 0.5780	11.8480
 0.5790	11.7830
 0.5800	11.7260
 0.5810	11.6720
 0.5820	11.6140
 0.5830	11.5560
 0.5840	11.4970
 0.5850	11.4410
 0.5860	11.3920
 0.5870	11.3440
 0.5880	11.2990
 0.5890	11.2530
 0.5900	11.2130
 0.5910	11.1810
 0.5920	11.1570
 0.5930	11.1390
 0.5940	11.1250
 0.5950	11.1140
 0.5960	11.1030
 0.5970	11.0890
 0.5980	11.0750
 0.5990	11.0590
 0.6000	11.0410
 0.6010	11.0220
 0.6020	10.9970
 0.6030	10.9660
 0.6040	10.9270
 0.6050	10.8910
 0.6060	10.8480
 0.6070	10.7950
 0.6080	10.7370
 0.6090	10.6700
 0.6100	10.5930
 0.6110	10.5100
 0.6120	10.4510
 0.6130	10.4040
 0.6140	10.3580
 0.6150	10.3100
 0.6160	10.2600
 0.6170	10.2130
 0.6180	10.1680
 0.6190	10.1210
 0.6200	10.0800
 0.6210	10.0480
 0.6220	10.0220
 0.6230	 9.9960
 0.6240	 9.9770
 0.6250	 9.9630
 0.6260	 9.9480
 0.6270	 9.9340
 0.6280	 9.9240
 0.6290	 9.9180
 0.6300	 9.9140
 0.6310	 9.9080
 0.6320	 9.8970
 0.6330	 9.8890
 0.6340	 9.8770
 0.6350	 9.8550
 0.6360	 9.8260
 0.6370	 9.7910
 0.6380	 9.7490
 0.6390	 9.6980
 0.6400	 9.6490
 0.6410	 9.5970
 0.6420	 9.5400
 0.6430	 9.4800
 0.6440	 9.4220
 0.6450	 9.3630
 0.6460	 9.2980
 0.6470	 9.2390
 0.6480	 9.1820
 0.6490	 9.1310
 0.6500	 9.0860
 0.6510	 9.0450
 0.6520	 9.0070
 0.6530	 8.9700
 0.6540	 8.9320
 0.6550	 8.8930
 0.6560	 8.8480
 0.6570	 8.7960
 0.6580	 8.7400
 0.6590	 8.6810
 0.6600	 8.6180
 0.6610	 8.5540
 0.6620	 8.4890
 0.6630	 8.4290
 0.6640	 8.3740
 0.6650	 8.3240
 0.6660	 8.2810
 0.6670	 8.2430
 0.6680	 8.2120
 0.6690	 8.1890
 0.6700	 8.1700
 0.6710	 8.1610
 0.6720	 8.1590
 0.6730	 8.1610
 0.6740	 8.1680
 0.6750	 8.1830
 0.6760	 8.2000
 0.6770	 8.2200
 0.6780	 8.2480
 0.6790	 8.2800
 0.6800	 8.3210
 0.6810	 8.3730
 0.6820	 8.4360
 0.6830	 8.5110
 0.6840	 8.5970
 0.6850	 8.7060
 0.6860	 8.8360
 0.6870	 8.9920
 0.6880	 9.1750
 0.6890	 9.3930
 0.6900	 9.6530
 0.6910	 9.9480
 0.6920	10.2960
 0.6930	10.6910
 0.6940	11.1310
 0.6950	11.6190
 0.6960	12.1530
 0.6970	12.7290
 0.6980	13.3470
 0.6990	14.0070
 0.7000	14.7030
 0.7010	15.4310
 0.7020	16.1830
 0.7030	16.9590
 0.7040	17.7570
 0.7050	18.5730
 0.7060	19.4040
 0.7070	20.2480
 0.7080	21.1090
 0.7090	21.9940
 0.7100	22.8970
 0.7110	23.8160
 0.7120	24.7510
 0.7130	25.7050
 0.7140	26.6760
 0.7150	27.6650
 0.7160	28.6710
 0.7170	29.6930
 0.7180	30.7270
 0.7190	31.7730
 0.7200	32.8340
 0.7210	33.9030
 0.7220	34.9790
 0.7230	36.0610
 0.7240	37.1430
 0.7250	38.2170
 0.7260	39.2860
 0.7270	40.3490
 0.7280	41.3870
 0.7290	42.4120
 0.7300	43.4220
 0.7310	44.4110
 0.7320	45.3820
 0.7330	46.3240
 0.7340	47.2340
 0.7350	48.1170
 0.7360	48.9780
 0.7370	49.8060
 0.7380	50.5970
 0.7390	51.3610
 0.7400	52.0920
 0.7410	52.7890
 0.7420	53.4540
 0.7430	54.0810
 0.7440	54.6740
 0.7450	55.2370
 0.7460	55.7670
 0.7470	56.2600
 0.7480	56.7200
 0.7490	57.1480
 0.7500	57.5480
 0.7510	57.9180
 0.7520	58.2600
 0.7530	58.5800
 0.7540	58.8690
 0.7550	59.1320
 0.7560	59.3780
 0.7570	59.6140
 0.7580	59.8200
 0.7590	60.0100
 0.7600	60.1930
 0.7610	60.3530
 0.7620	60.5010
 0.7630	60.6360
 0.7640	60.7570
 0.7650	60.8750
 0.7660	60.9850
 0.7670	61.0860
 0.7680	61.1790
 0.7690	61.2670
 0.7700	61.3480
 0.7710	61.4210
 0.7720	61.4920
 0.7730	61.5600
 0.7740	61.6240
 0.7750	61.6840
 0.7760	61.7400
 0.7770	61.7980
 0.7780	61.8530
 0.7790	61.9010
 0.7800	61.9510
 0.7810	62.0020
 0.7820	62.0510
 0.7830	62.0970
 0.7840	62.1430
 0.7850	62.1890
 0.7860	62.2340
 0.7870	62.2760
 0.7880	62.3140
 0.7890	62.3490
 0.7900	62.3870
 0.7910	62.4250
 0.7920	62.4650
 0.7930	62.5030
 0.7940	62.5350
 0.7950	62.5690
 0.7960	62.6000
 0.7970	62.6280
 0.7980	62.6600
 0.7990	62.6900
 0.8000	62.7160
 0.8010	62.7410
 0.8020	62.7680
 0.8030	62.7930
 0.8040	62.8170
 0.8050	62.8430
 0.8060	62.8650
 0.8070	62.8850
 0.8080	62.9030
 0.8090	62.9200
 0.8100	62.9420
 0.8110	62.9630
 0.8120	62.9810
 0.8130	63.0030
 0.8140	63.0210
 0.8150	63.0390
 0.8160	63.0620
 0.8170	63.0840
 0.8180	63.1020
 0.8190	63.1170
 0.8200	63.1330
 0.8210	63.1510
 0.8220	63.1690
 0.8230	63.1870
 0.8240	63.2030
 0.8250	63.2170
 0.8260	63.2290
 0.8270	63.2390
 0.8280	63.2450
 0.8290	63.2530
 0.8300	63.2640
 0.8310	63.2760
 0.8320	63.2860
 0.8330	63.2920
 0.8340	63.3020
 0.8350	63.3240
 0.8360	63.3360
 0.8370	63.3530
 0.8380	63.3760
 0.8390	63.4010
 0.8400	63.4220
 0.8410	63.4440
 0.8420	63.4710
 0.8430	63.5010
 0.8440	63.5210
 0.8450	63.5410
 0.8460	63.5680
 0.8470	63.5950
 0.8480	63.6210
 0.8490	63.6450
 0.8500	63.6690
 0.8510	63.6940
 0.8520	63.7170
 0.8530	63.7390
 0.8540	63.7630
 0.8550	63.7930
 0.8560	63.8160
 0.8570	63.8340
 0.8580	63.8580
 0.8590	63.8760
 0.8600	63.8930
 0.8610	63.9130
 0.8620	63.9300
 0.8630	63.9460
 0.8640	63.9590
 0.8650	63.9730
 0.8660	64.0010
 0.8670	64.0180
 0.8680	64.0310
 0.8690	64.0510
 0.8700	64.0650
 0.8710	64.0780
 0.8720	64.0930
 0.8730	64.1100
 0.8740	64.1290
 0.8750	64.1390
 0.8760	64.1450
 0.8770	64.1610
 0.8780	64.1680
 0.8790	64.1730
 0.8800	64.1790
 0.8810	64.1900
 0.8820	64.1950
 0.8830	64.1960
 0.8840	64.1980
 0.8850	64.2060
 0.8860	64.2090
 0.8870	64.2080
 0.8880	64.2030
 0.8890	64.1950
 0.8900	64.1920
 0.8910	64.1930
 0.8920	64.1900
 0.8930	64.1840
 0.8940	64.1740
 0.8950	64.1660
 0.8960	64.1650
 0.8970	64.1560
 0.8980	64.1490
 0.8990	64.1430
 0.9000	64.1250
 0.9010	64.1200
 0.9020	64.1150
 0.9030	64.1030
 0.9040	64.0850
 0.9050	64.0690
 0.9060	64.0560
 0.9070	64.0430
 0.9080	64.0310
 0.9090	64.0210
 0.9100	64.0090
 0.9110	63.9920
 0.9120	63.9860
 0.9130	63.9790
 0.9140	63.9670
 0.9150	63.9520
 0.9160	63.9390
 0.9170	63.9150
 0.9180	63.8900
 0.9190	63.8750
 0.9200	63.8630
 0.9210	63.8440
 0.9220	63.8160
 0.9230	63.7850
 0.9240	63.7460
 0.9250	63.7090
 0.9260	63.6760
 0.9270	63.6400
 0.9280	63.5960
 0.9290	63.5500
 0.9300	63.5030
 0.9310	63.4440
 0.9320	63.3890
 0.9330	63.3270
 0.9340	63.2560
 0.9350	63.1890
 0.9360	63.1250
 0.9370	63.0480
 0.9380	62.9580
 0.9390	62.8760
 0.9400	62.7980
 0.9410	62.7120
 0.9420	62.6090
 0.9430	62.4950
 0.9440	62.3770
 0.9450	62.2530
 0.9460	62.1220
 0.9470	61.9800
 0.9480	61.8250
 0.9490	61.6570
 0.9500	61.4780
 0.9510	61.2810
 0.9520	61.0720
 0.9530	60.8610
 0.9540	60.6540
 0.9550	60.4530
 0.9560	60.2410
 0.9570	60.0350
 0.9580	59.8530
 0.9590	59.6760
 0.9600	59.5130
 0.9610	59.3720
 0.9620	59.2500
 0.9630	59.1070
 0.9640	58.9850
 0.9650	58.8870
 0.9660	58.8020
 0.9670	58.7330
 0.9680	58.6670
 0.9690	58.5990
 0.9700	58.5350
 0.9710	58.4800
 0.9720	58.4290
 0.9730	58.3740
 0.9740	58.3180
 0.9750	58.2910
 0.9760	58.2670
 0.9770	58.2400
 0.9780	58.2170
 0.9790	58.1960
 0.9800	58.1820
 0.9810	58.1870
 0.9820	58.2130
 0.9830	58.2070
 0.9840	58.2020
 0.9850	58.2200
 0.9860	58.2610
 0.9870	58.2910
 0.9880	58.3230
 0.9890	58.3630
 0.9900	58.4120
 0.9910	58.4640
 0.9920	58.5190
 0.9930	58.5740
 0.9940	58.6270
 0.9950	58.6950
 0.9960	58.7560
 0.9970	58.8150
 0.9980	58.8830
 0.9990	58.9600
 1.0000	59.4290
 1.0010	60.2210
 1.0020	60.6930
 1.0030	60.7700
 1.0040	60.8450
 1.0050	60.9250
 1.0060	61.0160
 1.0070	61.1050
 1.0080	61.1910
 1.0090	61.2760
 1.0100	61.3620
 1.0110	61.4460
 1.0120	61.5350
 1.0130	61.6280
 1.0140	61.7200
 1.0150	61.8150
 1.0160	61.9080
 1.0170	61.9990
 1.0180	62.0910
 1.0190	62.1870
 1.0200	62.2760
 1.0210	62.3600
 1.0220	62.4510
 1.0230	62.5410
 1.0240	62.6280
 1.0250	62.7200
 1.0260	62.8230
 1.0270	62.9150
 1.0280	63.0050
 1.0290	63.0930
 1.0300	63.1750
 1.0310	63.2600
 1.0320	63.3470
 1.0330	63.4320
 1.0340	63.5170
 1.0350	63.6000
 1.0360	63.6820
 1.0370	63.7640
 1.0380	63.8390
 1.0390	63.9080
 1.0400	63.9820
 1.0410	64.0520
 1.0420	64.1250
 1.0430	64.2050
 1.0440	64.2780
 1.0450	64.3490
 1.0460	64.4150
 1.0470	64.4700
 1.0480	64.5320
 1.0490	64.5950
 1.0500	64.6550
 1.0510	64.7200
 1.0520	64.7800
 1.0530	64.8330
 1.0540	64.8770
 1.0550	64.9280
 1.0560	64.9780
 1.0570	65.0250
 1.0580	65.0750
 1.0590	65.1180
 1.0600	65.1540
 1.0610	65.1920
 1.0620	65.2290
 1.0630	65.2630
 1.0640	65.2970
 1.0650	65.3270
 1.0660	65.3510
 1.0670	65.3760
 1.0680	65.3990
 1.0690	65.4200
 1.0700	65.4450
 1.0710	65.4740
 1.0720	65.4950
 1.0730	65.5160
 1.0740	65.5300
 1.0750	65.5360
 1.0760	65.5410
 1.0770	65.5400
 1.0780	65.5430
 1.0790	65.5480
 1.0800	65.5470
 1.0810	65.5440
 1.0820	65.5400
 1.0830	65.5340
 1.0840	65.5220
 1.0850	65.5090
 1.0860	65.4900
 1.0870	65.4700
 1.0880	65.4420
 1.0890	65.4190
 1.0900	65.4000
 1.0910	65.3730
 1.0920	65.3430
 1.0930	65.3110
 1.0940	65.2740
 1.0950	65.2380
 1.0960	65.2020
 1.0970	65.1650
 1.0980	65.1290
 1.0990	65.0880
 1.1000	65.0440
 1.1010	65.0000
 1.1020	64.9570
 1.1030	64.9090
 1.1040	64.8620
 1.1050	64.8110
 1.1060	64.7560
 1.1070	64.6950
 1.1080	64.6350
 1.1090	64.5770
 1.1100	64.5120
 1.1110	64.4430
 1.1120	64.3710
 1.1130	64.2920
 1.1140	64.2110
 1.1150	64.1300
 1.1160	64.0410
 1.1170	63.9510
 1.1180	63.8490
 1.1190	63.7400
 1.1200	63.6260
 1.1210	63.5040
 1.1220	63.3650
 1.1230	63.2130
 1.1240	63.0450
 1.1250	62.8590
 1.1260	62.6570
 1.1270	62.4370
 1.1280	62.2050
 1.1290	61.9480
 1.1300	61.6740
 1.1310	61.3750
 1.1320	61.0510
 1.1330	60.7120
 1.1340	60.3480
 1.1350	59.9720
 1.1360	59.5820
 1.1370	59.1740
 1.1380	58.7570
 1.1390	58.3330
 1.1400	57.8940
 1.1410	57.4530
 1.1420	57.0150
 1.1430	56.5720
 1.1440	56.1390
 1.1450	55.7060
 1.1460	55.2880
 1.1470	54.8710
 1.1480	54.4760
 1.1490	54.0920
 1.1500	53.7330
 1.1510	53.3910
 1.1520	53.0690
 1.1530	52.7660
 1.1540	52.4830
 1.1550	52.2160
 1.1560	51.9710
 1.1570	51.7460
 1.1580	51.5360
 1.1590	51.3410
 1.1600	51.1640
 1.1610	50.9990
 1.1620	50.8460
 1.1630	50.7070
 1.1640	50.5750
 1.1650	50.4530
 1.1660	50.3450
 1.1670	50.2400
 1.1680	50.1440
 1.1690	50.0510
 1.1700	49.9660
 1.1710	49.8810
 1.1720	49.8020
 1.1730	49.7220
 1.1740	49.6450
 1.1750	49.5670
 1.1760	49.4850
 1.1770	49.4020
 1.1780	49.3180
 1.1790	49.2340
 1.1800	49.1510
 1.1810	49.0690
 1.1820	48.9840
 1.1830	48.8980
 1.1840	48.8100
 1.1850	48.7230
 1.1860	48.6400
 1.1870	48.5610
 1.1880	48.4890
 1.1890	48.4230
 1.1900	48.3590
 1.1910	48.2990
 1.1920	48.2450
 1.1930	48.1920
 1.1940	48.1470
 1.1950	48.1080
 1.1960	48.0740
 1.1970	48.0480
 1.1980	48.0270
 1.1990	48.0120
 1.2000	48.0020
 1.2010	47.9990
 1.2020	48.0020
 1.2030	48.0140
 1.2040	48.0350
 1.2050	48.0620
 1.2060	48.0930
 1.2070	48.1320
 1.2080	48.1740
 1.2090	48.2240
 1.2100	48.2820
 1.2110	48.3440
 1.2120	48.4140
 1.2130	48.4870
 1.2140	48.5630
 1.2150	48.6470
 1.2160	48.7380
 1.2170	48.8310
 1.2180	48.9300
 1.2190	49.0340
 1.2200	49.1370
 1.2210	49.2450
 1.2220	49.3550
 1.2230	49.4650
 1.2240	49.5760
 1.2250	49.6850
 1.2260	49.7890
 1.2270	49.8930
 1.2280	49.9960
 1.2290	50.0960
 1.2300	50.1960
 1.2310	50.2930
 1.2320	50.3870
 1.2330	50.4800
 1.2340	50.5700
 1.2350	50.6590
 1.2360	50.7450
 1.2370	50.8280
 1.2380	50.9070
 1.2390	50.9830
 1.2400	51.0600
 1.2410	51.1310
 1.2420	51.2010
 1.2430	51.2690
 1.2440	51.3340
 1.2450	51.3980
 1.2460	51.4610
 1.2470	51.5190
 1.2480	51.5770
 1.2490	51.6310
 1.2500	51.6850
 1.2510	51.7370
 1.2520	51.7840
 1.2530	51.8310
 1.2540	51.8770
 1.2550	51.9190
 1.2560	51.9590
 1.2570	51.9970
 1.2580	52.0300
 1.2590	52.0620
 1.2600	52.0950
 1.2610	52.1230
 1.2620	52.1490
 1.2630	52.1750
 1.2640	52.1950
 1.2650	52.2130
 1.2660	52.2290
 1.2670	52.2430
 1.2680	52.2530
 1.2690	52.2620
 1.2700	52.2680
 1.2710	52.2720
 1.2720	52.2740
 1.2730	52.2750
 1.2740	52.2730
 1.2750	52.2680
 1.2760	52.2600
 1.2770	52.2480
 1.2780	52.2350
 1.2790	52.2180
 1.2800	52.1980
 1.2810	52.1770
 1.2820	52.1500
 1.2830	52.1180
 1.2840	52.0810
 1.2850	52.0380
 1.2860	51.9920
 1.2870	51.9410
 1.2880	51.8880
 1.2890	51.8300
 1.2900	51.7670
 1.2910	51.6960
 1.2920	51.6210
 1.2930	51.5410
 1.2940	51.4540
 1.2950	51.3640
 1.2960	51.2690
 1.2970	51.1660
 1.2980	51.0560
 1.2990	50.9380
 1.3000	50.8150
 1.3010	50.6860
 1.3020	50.5510
 1.3030	50.4140
 1.3040	50.2690
 1.3050	50.1190
 1.3060	49.9630
 1.3070	49.7990
 1.3080	49.6310
 1.3090	49.4560
 1.3100	49.2730
 1.3110	49.0860
 1.3120	48.8900
 1.3130	48.6890
 1.3140	48.4820
 1.3150	48.2710
 1.3160	48.0530
 1.3170	47.8310
 1.3180	47.6030
 1.3190	47.3680
 1.3200	47.1310
 1.3210	46.8890
 1.3220	46.6420
 1.3230	46.3930
 1.3240	46.1380
 1.3250	45.8810
 1.3260	45.6200
 1.3270	45.3570
 1.3280	45.0930
 1.3290	44.8240
 1.3300	44.5550
 1.3310	44.2840
 1.3320	44.0090
 1.3330	43.7390
 1.3340	43.4700
 1.3350	43.1990
 1.3360	42.9320
 1.3370	42.6640
 1.3380	42.4000
 1.3390	42.1380
 1.3400	41.8790
 1.3410	41.6270
 1.3420	41.3780
 1.3430	41.1320
 1.3440	40.8910
 1.3450	40.6540
 1.3460	40.4180
 1.3470	40.1890
 1.3480	39.9640
 1.3490	39.7450
 1.3500	39.5320
 1.3510	39.3200
 1.3520	39.1080
 1.3530	38.9020
 1.3540	38.6960
 1.3550	38.4920
 1.3560	38.2910
 1.3570	38.0900
 1.3580	37.8880
 1.3590	37.6830
 1.3600	37.4770
 1.3610	37.2680
 1.3620	37.0530
 1.3630	36.8360
 1.3640	36.6140
 1.3650	36.3820
 1.3660	36.1460
 1.3670	35.8990
 1.3680	35.6410
 1.3690	35.3750
 1.3700	35.0940
 1.3710	34.8010
 1.3720	34.4950
 1.3730	34.1700
 1.3740	33.8300
 1.3750	33.4730
 1.3760	33.0940
 1.3770	32.6970
 1.3780	32.2760
 1.3790	31.8340
 1.3800	31.3740
 1.3810	30.8890
 1.3820	30.3910
 1.3830	29.8750
 1.3840	29.3460
 1.3850	28.7990
 1.3860	28.2490
 1.3870	27.6830
 1.3880	27.1220
 1.3890	26.5550
 1.3900	25.9860
 1.3910	25.4250
 1.3920	24.8650
 1.3930	24.3080
 1.3940	23.7630
 1.3950	23.2230
 1.3960	22.6960
 1.3970	22.1860
 1.3980	21.6910
 1.3990	21.2180
 1.4000	20.7610
 1.4010	20.3180
 1.4020	19.8960
 1.4030	19.4900
 1.4040	19.1040
 1.4050	18.7400
 1.4060	18.3910
 1.4070	18.0640
 1.4080	17.7550
 1.4090	17.4630
 1.4100	17.1900
 1.4110	16.9320
 1.4120	16.6890
 1.4130	16.4610
 1.4140	16.2490
 1.4150	16.0530
 1.4160	15.8700
 1.4170	15.6980
 1.4180	15.5370
 1.4190	15.3850
 1.4200	15.2430
 1.4210	15.1100
 1.4220	14.9870
 1.4230	14.8740
 1.4240	14.7690
 1.4250	14.6700
 1.4260	14.5800
 1.4270	14.4950
 1.4280	14.4170
 1.4290	14.3440
 1.4300	14.2790
 1.4310	14.2180
 1.4320	14.1640
 1.4330	14.1130
 1.4340	14.0670
 1.4350	14.0250
 1.4360	13.9880
 1.4370	13.9540
 1.4380	13.9250
 1.4390	13.9000
 1.4400	13.8770
 1.4410	13.8570
 1.4420	13.8380
 1.4430	13.8230
 1.4440	13.8110
 1.4450	13.8010
 1.4460	13.7930
 1.4470	13.7870
 1.4480	13.7820
 1.4490	13.7790
 1.4500	13.7780
 1.4510	13.7790
 1.4520	13.7820
 1.4530	13.7860
 1.4540	13.7920
 1.4550	13.8000
 1.4560	13.8090
 1.4570	13.8200
 1.4580	13.8350
 1.4590	13.8510
 1.4600	13.8690
 1.4610	13.8900
 1.4620	13.9140
 1.4630	13.9410
 1.4640	13.9710
 1.4650	14.0030
 1.4660	14.0390
 1.4670	14.0780
 1.4680	14.1200
 1.4690	14.1650
 1.4700	14.2130
 1.4710	14.2640
 1.4720	14.3170
 1.4730	14.3740
 1.4740	14.4340
 1.4750	14.4960
 1.4760	14.5620
 1.4770	14.6290
 1.4780	14.6960
 1.4790	14.7670
 1.4800	14.8390
 1.4810	14.9120
 1.4820	14.9880
 1.4830	15.0660
 1.4840	15.1450
 1.4850	15.2260
 1.4860	15.3070
 1.4870	15.3890
 1.4880	15.4710
 1.4890	15.5540
 1.4900	15.6380
 1.4910	15.7240
 1.4920	15.8100
 1.4930	15.8980
 1.4940	15.9850
 1.4950	16.0740
 1.4960	16.1620
 1.4970	16.2500
 1.4980	16.3400
 1.4990	16.4310
 1.5000	16.5220
 1.5010	16.6140
 1.5020	16.7050
 1.5030	16.7980
 1.5040	16.8900
 1.5050	16.9830
 1.5060	17.0750
 1.5070	17.1680
 1.5080	17.2610
 1.5090	17.3540
 1.5100	17.4470
 1.5110	17.5390
 1.5120	17.6310
 1.5130	17.7220
 1.5140	17.8150
 1.5150	17.9070
 1.5160	17.9970
 1.5170	18.0880
 1.5180	18.1760
 1.5190	18.2650
 1.5200	18.3540
 1.5210	18.4420
 1.5220	18.5310
 1.5230	18.6190
 1.5240	18.7050
 1.5250	18.7930
 1.5260	18.8790
 1.5270	18.9630
 1.5280	19.0480
 1.5290	19.1320
 1.5300	19.2150
 1.5310	19.2990
 1.5320	19.3820
 1.5330	19.4640
 1.5340	19.5470
 1.5350	19.6290
 1.5360	19.7110
 1.5370	19.7920
 1.5380	19.8720
 1.5390	19.9530
 1.5400	20.0330
 1.5410	20.1130
 1.5420	20.1930
 1.5430	20.2710
 1.5440	20.3500
 1.5450	20.4270
 1.5460	20.5040
 1.5470	20.5820
 1.5480	20.6590
 1.5490	20.7360
 1.5500	20.8130
 1.5510	20.8880
 1.5520	20.9650
 1.5530	21.0390
 1.5540	21.1130
 1.5550	21.1870
 1.5560	21.2600
 1.5570	21.3330
 1.5580	21.4070
 1.5590	21.4810
 1.5600	21.5530
 1.5610	21.6240
 1.5620	21.6940
 1.5630	21.7620
 1.5640	21.8320
 1.5650	21.9020
 1.5660	21.9700
 1.5670	22.0390
 1.5680	22.1070
 1.5690	22.1760
 1.5700	22.2450
 1.5710	22.3140
 1.5720	22.3800
 1.5730	22.4470
 1.5740	22.5120
 1.5750	22.5780
 1.5760	22.6460
 1.5770	22.7120
 1.5780	22.7780
 1.5790	22.8430
 1.5800	22.9070
 1.5810	22.9710
 1.5820	23.0360
 1.5830	23.1020
 1.5840	23.1680
 1.5850	23.2330
 1.5860	23.3000
 1.5870	23.3660
 1.5880	23.4330
 1.5890	23.5010
 1.5900	23.5690
 1.5910	23.6370
 1.5920	23.7060
 1.5930	23.7750
 1.5940	23.8460
 1.5950	23.9170
 1.5960	23.9860
 1.5970	24.0570
 1.5980	24.1270
 1.5990	24.1960
 1.6000	24.2660
 1.6010	24.3340
 1.6020	24.4020
 1.6030	24.4710
 1.6040	24.5390
 1.6050	24.6060
 1.6060	24.6730
 1.6070	24.7410
 1.6080	24.8070
 1.6090	24.8720
 1.6100	24.9380
 1.6110	25.0010
 1.6120	25.0650
 1.6130	25.1290
 1.6140	25.1930
 1.6150	25.2540
 1.6160	25.3150
 1.6170	25.3730
 1.6180	25.4290
 1.6190	25.4870
 1.6200	25.5420
 1.6210	25.5950
 1.6220	25.6480
 1.6230	25.6970
 1.6240	25.7480
 1.6250	25.7960
 1.6260	25.8420
 1.6270	25.8880
 1.6280	25.9310
 1.6290	25.9750
 1.6300	26.0170
 1.6310	26.0600
 1.6320	26.1040
 1.6330	26.1470
 1.6340	26.1900
 1.6350	26.2330
 1.6360	26.2770
 1.6370	26.3190
 1.6380	26.3610
 1.6390	26.4010
 1.6400	26.4390
 1.6410	26.4750
 1.6420	26.5100
 1.6430	26.5420
 1.6440	26.5720
 1.6450	26.5990
 1.6460	26.6230
 1.6470	26.6440
 1.6480	26.6610
 1.6490	26.6760
 1.6500	26.6870
 1.6510	26.6950
 1.6520	26.7000
 1.6530	26.7010
 1.6540	26.6990
 1.6550	26.6980
 1.6560	26.6920
 1.6570	26.6850
 1.6580	26.6760
 1.6590	26.6640
 1.6600	26.6520
 1.6610	26.6420
 1.6620	26.6290
 1.6630	26.6140
 1.6640	26.6000
 1.6650	26.5850
 1.6660	26.5700
 1.6670	26.5560
 1.6680	26.5410
 1.6690	26.5240
 1.6700	26.5080
 1.6710	26.4910
 1.6720	26.4730
 1.6730	26.4570
 1.6740	26.4380
 1.6750	26.4180
 1.6760	26.3960
 1.6770	26.3700
 1.6780	26.3420
 1.6790	26.3110
 1.6800	26.2770
 1.6810	26.2420
 1.6820	26.2010
 1.6830	26.1580
 1.6840	26.1120
 1.6850	26.0610
 1.6860	26.0060
 1.6870	25.9490
 1.6880	25.8860
 1.6890	25.8220
 1.6900	25.7570
 1.6910	25.6890
 1.6920	25.6210
 1.6930	25.5510
 1.6940	25.4810
 1.6950	25.4080
 1.6960	25.3380
 1.6970	25.2670
 1.6980	25.1960
 1.6990	25.1260
 1.7000	25.0560
 1.7010	24.9850
 1.7020	24.9150
 1.7030	24.8470
 1.7040	24.7780
 1.7050	24.7090
 1.7060	24.6400
 1.7070	24.5700
 1.7080	24.5010
 1.7090	24.4310
 1.7100	24.3670
 1.7110	24.3060
 1.7120	24.2490
 1.7130	24.1940
 1.7140	24.1400
 1.7150	24.0880
 1.7160	24.0410
 1.7170	23.9960
 1.7180	23.9530
 1.7190	23.9110
 1.7200	23.8680
 1.7210	23.8260
 1.7220	23.7860
 1.7230	23.7490
 1.7240	23.7130
 1.7250	23.6790
 1.7260	23.6500
 1.7270	23.6220
 1.7280	23.5980
 1.7290	23.5760
 1.7300	23.5550
 1.7310	23.5360
 1.7320	23.5200
 1.7330	23.5060
 1.7340	23.4960
 1.7350	23.4820
 1.7360	23.4680
 1.7370	23.4480
 1.7380	23.4260
 1.7390	23.3980
 1.7400	23.3660
 1.7410	23.3310
 1.7420	23.2920
 1.7430	23.2500
 1.7440	23.2040
 1.7450	23.1560
 1.7460	23.1040
 1.7470	23.0510
 1.7480	22.9960
 1.7490	22.9410
 1.7500	22.8840
 1.7510	22.8300
 1.7520	22.7780
 1.7530	22.7260
 1.7540	22.6750
 1.7550	22.6240
 1.7560	22.5750
 1.7570	22.5300
 1.7580	22.4870
 1.7590	22.4460
 1.7600	22.4070
 1.7610	22.3690
 1.7620	22.3340
 1.7630	22.3020
 1.7640	22.2720
 1.7650	22.2450
 1.7660	22.2180
 1.7670	22.1920
 1.7680	22.1680
 1.7690	22.1470
 1.7700	22.1280
 1.7710	22.1120
 1.7720	22.0940
 1.7730	22.0740
 1.7740	22.0560
 1.7750	22.0370
 1.7760	22.0210
 1.7770	22.0080
 1.7780	21.9950
 1.7790	21.9810
 1.7800	21.9720
 1.7810	21.9650
 1.7820	21.9620
 1.7830	21.9640
 1.7840	21.9650
 1.7850	21.9690
 1.7860	21.9740
 1.7870	21.9810
 1.7880	21.9880
 1.7890	21.9970
 1.7900	22.0090
 1.7910	22.0200
 1.7920	22.0330
 1.7930	22.0470
 1.7940	22.0620
 1.7950	22.0780
 1.7960	22.0950
 1.7970	22.1120
 1.7980	22.1290
 1.7990	22.1450
 1.8000	22.1610
 1.8010	22.1780
 1.8020	22.1940
 1.8030	22.2100
 1.8040	22.2280
 1.8050	22.2450
 1.8060	22.2600
 1.8070	22.2750
 1.8080	22.2890
 1.8090	22.3020
 1.8100	22.3150
 1.8110	22.3280
 1.8120	22.3420
 1.8130	22.3560
 1.8140	22.3680
 1.8150	22.3810
 1.8160	22.3940
 1.8170	22.4040
 1.8180	22.4130
 1.8190	22.4200
 1.8200	22.4280
 1.8210	22.4360
 1.8220	22.4420
 1.8230	22.4440
 1.8240	22.4490
 1.8250	22.4530
 1.8260	22.4580
 1.8270	22.4650
 1.8280	22.4660
 1.8290	22.4640
 1.8300	22.3840
 1.8310	22.2310
 1.8320	22.1470
 1.8330	22.1370
 1.8340	22.1210
 1.8350	22.1030
 1.8360	22.0790
 1.8370	22.0510
 1.8380	22.0210
 1.8390	21.9860
 1.8400	21.9460
 1.8410	21.9040
 1.8420	21.8590
 1.8430	21.8080
 1.8440	21.7510
 1.8450	21.6880
 1.8460	21.6140
 1.8470	21.5340
 1.8480	21.4490
 1.8490	21.3570
 1.8500	21.2560
 1.8510	21.1470
 1.8520	21.0280
 1.8530	20.8960
 1.8540	20.7580
 1.8550	20.6130
 1.8560	20.4550
 1.8570	20.2860
 1.8580	20.1040
 1.8590	19.9130
 1.8600	19.7090
 1.8610	19.4960
 1.8620	19.2750
 1.8630	19.0440
 1.8640	18.7990
 1.8650	18.5400
 1.8660	18.2680
 1.8670	17.9770
 1.8680	17.6790
 1.8690	17.3700
 1.8700	17.0470
 1.8710	16.7110
 1.8720	16.3720
 1.8730	16.0230
 1.8740	15.6630
 1.8750	15.3020
 1.8760	14.9320
 1.8770	14.5610
 1.8780	14.1920
 1.8790	13.8220
 1.8800	13.4580
 1.8810	13.0980
 1.8820	12.7400
 1.8830	12.3840
 1.8840	12.0330
 1.8850	11.6860
 1.8860	11.3460
 1.8870	11.0150
 1.8880	10.6940
 1.8890	10.3890
 1.8900	10.0930
 1.8910	 9.8100
 1.8920	 9.5390
 1.8930	 9.2830
 1.8940	 9.0370
 1.8950	 8.8070
 1.8960	 8.5940
 1.8970	 8.3950
 1.8980	 8.2120
 1.8990	 8.0420
 1.9000	 7.8840
 1.9010	 7.7370
 1.9020	 7.6010
 1.9030	 7.4750
 1.9040	 7.3620
 1.9050	 7.2600
 1.9060	 7.1680
 1.9070	 7.0840
 1.9080	 7.0130
 1.9090	 6.9450
 1.9100	 6.8840
 1.9110	 6.8260
 1.9120	 6.7740
 1.9130	 6.7280
 1.9140	 6.6880
 1.9150	 6.6530
 1.9160	 6.6190
 1.9170	 6.5910
 1.9180	 6.5630
 1.9190	 6.5390
 1.9200	 6.5180
 1.9210	 6.4990
 1.9220	 6.4810
 1.9230	 6.4640
 1.9240	 6.4520
 1.9250	 6.4410
 1.9260	 6.4330
 1.9270	 6.4310
 1.9280	 6.4310
 1.9290	 6.4340
 1.9300	 6.4370
 1.9310	 6.4400
 1.9320	 6.4430
 1.9330	 6.4470
 1.9340	 6.4520
 1.9350	 6.4570
 1.9360	 6.4690
 1.9370	 6.4800
 1.9380	 6.4940
 1.9390	 6.5050
 1.9400	 6.5170
 1.9410	 6.5300
 1.9420	 6.5440
 1.9430	 6.5600
 1.9440	 6.5770
 1.9450	 6.5960
 1.9460	 6.6160
 1.9470	 6.6360
 1.9480	 6.6570
 1.9490	 6.6780
 1.9500	 6.7000
 1.9510	 6.7250
 1.9520	 6.7490
 1.9530	 6.7790
 1.9540	 6.8070
 1.9550	 6.8330
 1.9560	 6.8570
 1.9570	 6.8850
 1.9580	 6.9130
 1.9590	 6.9400
 1.9600	 6.9710
 1.9610	 7.0000
 1.9620	 7.0280
 1.9630	 7.0560
 1.9640	 7.0890
 1.9650	 7.1220
 1.9660	 7.1530
 1.9670	 7.1890
 1.9680	 7.2210
 1.9690	 7.2550
 1.9700	 7.2900
 1.9710	 7.3280
 1.9720	 7.3630
 1.9730	 7.4000
 1.9740	 7.4360
 1.9750	 7.4720
 1.9760	 7.5140
 1.9770	 7.5520
 1.9780	 7.5940
 1.9790	 7.6350
 1.9800	 7.6730
 1.9810	 7.7140
 1.9820	 7.7560
 1.9830	 7.7950
 1.9840	 7.8380
 1.9850	 7.8810
 1.9860	 7.9250
 1.9870	 7.9660
 1.9880	 8.0060
 1.9890	 8.0470
 1.9900	 8.0880
 1.9910	 8.1300
 1.9920	 8.1730
 1.9930	 8.2230
 1.9940	 8.2670
 1.9950	 8.3100
 1.9960	 8.3530
 1.9970	 8.3980
 1.9980	 8.4420
 1.9990	 8.4880
 2.0000	 8.5330
 2.0010	 8.5780
 2.0020	 8.6230
 2.0030	 8.6680
 2.0040	 8.7090
 2.0050	 8.7510
 2.0060	 8.7910
 2.0070	 8.8340
 2.0080	 8.8770
 2.0090	 8.9190
 2.0100	 8.9590
 2.0110	 9.0010
 2.0120	 9.0420
 2.0130	 9.0820
 2.0140	 9.1250
 2.0150	 9.1650
 2.0160	 9.2050
 2.0170	 9.2450
 2.0180	 9.2840
 2.0190	 9.3220
 2.0200	 9.3600
 2.0210	 9.3970
 2.0220	 9.4340
 2.0230	 9.4690
 2.0240	 9.5040
 2.0250	 9.5440
 2.0260	 9.5770
 2.0270	 9.6130
 2.0280	 9.6450
 2.0290	 9.6810
 2.0300	 9.7090
 2.0310	 9.7420
 2.0320	 9.7730
 2.0330	 9.8030
 2.0340	 9.8320
 2.0350	 9.8580
 2.0360	 9.8840
 2.0370	 9.9080
 2.0380	 9.9300
 2.0390	 9.9540
 2.0400	 9.9830
 2.0410	10.0050
 2.0420	10.0330
 2.0430	10.0600
 2.0440	10.0820
 2.0450	10.0990
 2.0460	10.1190
 2.0470	10.1350
 2.0480	10.1550
 2.0490	10.1780
 2.0500	10.1990
 2.0510	10.2210
 2.0520	10.2400
 2.0530	10.2560
 2.0540	10.2760
 2.0550	10.2940
 2.0560	10.3110
 2.0570	10.3310
 2.0580	10.3540
 2.0590	10.3740
 2.0600	10.3970
 2.0610	10.4170
 2.0620	10.4390
 2.0630	10.4590
 2.0640	10.4770
 2.0650	10.4980
 2.0660	10.5170
 2.0670	10.5360
 2.0680	10.5550
 2.0690	10.5740
 2.0700	10.5900
 2.0710	10.6080
 2.0720	10.6270
 2.0730	10.6470
 2.0740	10.6670
 2.0750	10.6880
 2.0760	10.7090
 2.0770	10.7290
 2.0780	10.7510
 2.0790	10.7740
 2.0800	10.7950
 2.0810	10.8160
 2.0820	10.8370
 2.0830	10.8540
 2.0840	10.8730
 2.0850	10.8940
 2.0860	10.9140
 2.0870	10.9360
 2.0880	10.9580
 2.0890	10.9800
 2.0900	11.0010
 2.0910	11.0230
 2.0920	11.0450
 2.0930	11.0670
 2.0940	11.0890
 2.0950	11.1100
 2.0960	11.1300
 2.0970	11.1510
 2.0980	11.1730
 2.0990	11.1960
 2.1000	11.2200
 2.1010	11.2430
 2.1020	11.2630
 2.1030	11.2840
 2.1040	11.3030
 2.1050	11.3240
 2.1060	11.3460
 2.1070	11.3690
 2.1080	11.3920
 2.1090	11.4160
 2.1100	11.4390
 2.1110	11.4610
 2.1120	11.4840
 2.1130	11.5060
 2.1140	11.5280
 2.1150	11.5520
 2.1160	11.5750
 2.1170	11.5960
 2.1180	11.6200
 2.1190	11.6460
 2.1200	11.6700
 2.1210	11.6940
 2.1220	11.7190
 2.1230	11.7420
 2.1240	11.7640
 2.1250	11.7860
 2.1260	11.8080
 2.1270	11.8300
 2.1280	11.8510
 2.1290	11.8730
 2.1300	11.8970
 2.1310	11.9180
 2.1320	11.9380
 2.1330	11.9600
 2.1340	11.9840
 2.1350	12.0050
 2.1360	12.0240
 2.1370	12.0450
 2.1380	12.0650
 2.1390	12.0860
 2.1400	12.1080
 2.1410	12.1320
 2.1420	12.1530
 2.1430	12.1710
 2.1440	12.1930
 2.1450	12.2160
 2.1460	12.2400
 2.1470	12.2670
 2.1480	12.2900
 2.1490	12.3100
 2.1500	12.3320
 2.1510	12.3520
 2.1520	12.3770
 2.1530	12.4070
 2.1540	12.4320
 2.1550	12.4580
 2.1560	12.4800
 2.1570	12.4950
 2.1580	12.5140
 2.1590	12.5350
 2.1600	12.5570
 2.1610	12.5810
 2.1620	12.6060
 2.1630	12.6290
 2.1640	12.6500
 2.1650	12.6730
 2.1660	12.6950
 2.1670	12.7160
 2.1680	12.7370
 2.1690	12.7570
 2.1700	12.7760
 2.1710	12.7960
 2.1720	12.8170
 2.1730	12.8390
 2.1740	12.8630
 2.1750	12.8860
 2.1760	12.9110
 2.1770	12.9340
 2.1780	12.9560
 2.1790	12.9780
 2.1800	13.0010
 2.1810	13.0220
 2.1820	13.0420
 2.1830	13.0620
 2.1840	13.0840
 2.1850	13.1060
 2.1860	13.1280
 2.1870	13.1520
 2.1880	13.1720
 2.1890	13.1890
 2.1900	13.2090
 2.1910	13.2260
 2.1920	13.2470
 2.1930	13.2710
 2.1940	13.2910
 2.1950	13.3110
 2.1960	13.3290
 2.1970	13.3430
 2.1980	13.3570
 2.1990	13.3700
 2.2000	13.3840
 2.2010	13.3960
 2.2020	13.4100
 2.2030	13.4250
 2.2040	13.4390
 2.2050	13.4540
 2.2060	13.4680
 2.2070	13.4810
 2.2080	13.4910
 2.2090	13.5020
 2.2100	13.5110
 2.2110	13.5210
 2.2120	13.5330
 2.2130	13.5410
 2.2140	13.5470
 2.2150	13.5510
 2.2160	13.5490
 2.2170	13.5510
 2.2180	13.5540
 2.2190	13.5530
 2.2200	13.5500
 2.2210	13.5460
 2.2220	13.5390
 2.2230	13.5290
 2.2240	13.5180
 2.2250	13.5020
 2.2260	13.4750
 2.2270	13.4540
 2.2280	13.4310
 2.2290	13.4080
 2.2300	13.3910
 2.2310	13.3720
 2.2320	13.3440
 2.2330	13.3150
 2.2340	13.2830
 2.2350	13.2450
 2.2360	13.2070
 2.2370	13.1690
 2.2380	13.1270
 2.2390	13.0810
 2.2400	13.0350
 2.2410	12.9880
 2.2420	12.9390
 2.2430	12.8900
 2.2440	12.8390
 2.2450	12.7870
 2.2460	12.7310
 2.2470	12.6720
 2.2480	12.6110
 2.2490	12.5440
 2.2500	12.4800
 2.2510	12.4150
 2.2520	12.3510
 2.2530	12.2900
 2.2540	12.2230
 2.2550	12.1490
 2.2560	12.0800
 2.2570	12.0100
 2.2580	11.9400
 2.2590	11.8770
 2.2600	11.8100
 2.2610	11.7390
 2.2620	11.6710
 2.2630	11.6040
 2.2640	11.5430
 2.2650	11.4840
 2.2660	11.4240
 2.2670	11.3690
 2.2680	11.3140
 2.2690	11.2620
 2.2700	11.2130
 2.2710	11.1660
 2.2720	11.1200
 2.2730	11.0790
 2.2740	11.0440
 2.2750	11.0110
 2.2760	10.9830
 2.2770	10.9550
 2.2780	10.9320
 2.2790	10.9040
 2.2800	10.8740
 2.2810	10.8480
 2.2820	10.8230
 2.2830	10.7980
 2.2840	10.7780
 2.2850	10.7560
 2.2860	10.7340
 2.2870	10.7080
 2.2880	10.6820
 2.2890	10.6530
 2.2900	10.6210
 2.2910	10.5860
 2.2920	10.5500
 2.2930	10.5120
 2.2940	10.4660
 2.2950	10.4270
 2.2960	10.3890
 2.2970	10.3510
 2.2980	10.3170
 2.2990	10.2820
 2.3000	10.2380
 2.3010	10.1940
 2.3020	10.1490
 2.3030	10.1080
 2.3040	10.0740
 2.3050	10.0410
 2.3060	10.0090
 2.3070	 9.9850
 2.3080	 9.9610
 2.3090	 9.9380
 2.3100	 9.9230
 2.3110	 9.9060
 2.3120	 9.8960
 2.3130	 9.8880
 2.3140	 9.8900
 2.3150	 9.8990
 2.3160	 9.9050
 2.3170	 9.9180
 2.3180	 9.9230
 2.3190	 9.9240
 2.3200	 9.9220
 2.3210	 9.9160
 2.3220	 9.9120
 2.3230	 9.9070
 2.3240	 9.8990
 2.3250	 9.8940
 2.3260	 9.8800
 2.3270	 9.8570
 2.3280	 9.8390
 2.3290	 9.8200
 2.3300	 9.8000
 2.3310	 9.7830
 2.3320	 9.7610
 2.3330	 9.7350
 2.3340	 9.7110
 2.3350	 9.6860
 2.3360	 9.6610
 2.3370	 9.6310
 2.3380	 9.6070
 2.3390	 9.5820
 2.3400	 9.5590
 2.3410	 9.5420
 2.3420	 9.5180
 2.3430	 9.4920
 2.3440	 9.4680
 2.3450	 9.4400
 2.3460	 9.4140
 2.3470	 9.3920
 2.3480	 9.3700
 2.3490	 9.3500
 2.3500	 9.3310
 2.3510	 9.3140
 2.3520	 9.3020
 2.3530	 9.2930
 2.3540	 9.2820
 2.3550	 9.2780
 2.3560	 9.2630
 2.3570	 9.2530
 2.3580	 9.2430
 2.3590	 9.2310
 2.3600	 9.2270
 2.3610	 9.2240
 2.3620	 9.2160
 2.3630	 9.2040
 2.3640	 9.1870
 2.3650	 9.1610
 2.3660	 9.1410
 2.3670	 9.1300
 2.3680	 9.1150
 2.3690	 9.0950
 2.3700	 9.0760
 2.3710	 9.0510
 2.3720	 9.0300
 2.3730	 9.0190
 2.3740	 9.0020
 2.3750	 8.9840
 2.3760	 8.9620
 2.3770	 8.9280
 2.3780	 8.9060
 2.3790	 8.8870
 2.3800	 8.8720
 2.3810	 8.8550
 2.3820	 8.8380
 2.3830	 8.8240
 2.3840	 8.7990
 2.3850	 8.7890
 2.3860	 8.7670
 2.3870	 8.7360
 2.3880	 8.7170
 2.3890	 8.6920
 2.3900	 8.6750
 2.3910	 8.6600
 2.3920	 8.6380
 2.3930	 8.6170
 2.3940	 8.5960
 2.3950	 8.5790
 2.3960	 8.5640
 2.3970	 8.5570
 2.3980	 8.5460
 2.3990	 8.5310
 2.4000	 8.5010
 2.4010	 8.4620
 2.4020	 8.4280
 2.4030	 8.3910
 2.4040	 8.3610
 2.4050	 8.3460
 2.4060	 8.3300
 2.4070	 8.3170
 2.4080	 8.3060
 2.4090	 8.2920
 2.4100	 8.2700
 2.4110	 8.2390
 2.4120	 8.2180
 2.4130	 8.1930
 2.4140	 8.1640
 2.4150	 8.1480
 2.4160	 8.1310
 2.4170	 8.1120
 2.4180	 8.0930
 2.4190	 8.0560
 2.4200	 8.0140
 2.4210	 7.9770
 2.4220	 7.9430
 2.4230	 7.9340
 2.4240	 7.9170
 2.4250	 7.8940
 2.4260	 7.8660
 2.4270	 7.8230
 2.4280	 7.8060
 2.4290	 7.7950
 2.4300	 7.7700
 2.4310	 7.7490
 2.4320	 7.7160
 2.4330	 7.6940
 2.4340	 7.6660
 2.4350	 7.6500
 2.4360	 7.6400
 2.4370	 7.6110
 2.4380	 7.5880
 2.4390	 7.5560
 2.4400	 7.5170
 2.4410	 7.4870
 2.4420	 7.4510
 2.4430	 7.4200
 2.4440	 7.3970
 2.4450	 7.3730
 2.4460	 7.3490
 2.4470	 7.3320
 2.4480	 7.3090
 2.4490	 7.2760
 2.4500	 7.2540
 2.4510	 7.2210
 2.4520	 7.1960
 2.4530	 7.1810
 2.4540	 7.1590
 2.4550	 7.1530
 2.4560	 7.1560
 2.4570	 7.1400
 2.4580	 7.1230
 2.4590	 7.0960
 2.4600	 7.0580
 2.4610	 7.0270
 2.4620	 6.9860
 2.4630	 6.9440
 2.4640	 6.9190
 2.4650	 6.8910
 2.4660	 6.8570
 2.4670	 6.8420
 2.4680	 6.8290
 2.4690	 6.8130
 2.4700	 6.7990
 2.4710	 6.7870
 2.4720	 6.7700
 2.4730	 6.7410
 2.4740	 6.7190
 2.4750	 6.7000
 2.4760	 6.6690
 2.4770	 6.6290
 2.4780	 6.6130
 2.4790	 6.5970
 2.4800	 6.5840
 2.4810	 6.5910
 2.4820	 6.5660
 2.4830	 6.5690
 2.4840	 6.5660
 2.4850	 6.5420
 2.4860	 6.5640
 2.4870	 6.5610
 2.4880	 6.5340
 2.4890	 6.5290
 2.4900	 6.4880
 2.4910	 6.4610
 2.4920	 6.4790
 2.4930	 6.4950
 2.4940	 6.4870
 2.4950	 6.5070
 2.4960	 6.5310
 2.4970	 6.5420
 2.4980	 6.6000
 2.4990	 6.5630
 2.5000	 6.4790
