Name: Brachychiton rupestris
Type: vegetation
Class: Tree
Genus: Brachychiton
Species: rupestris
Sample No.: JPL086
Owner: JPL
Wavelength Range: VSWIR
Origin: 34.12507; - 118.11463; WGS84
Collection Date: 2/2/2016
Description: Samples were collected at the Huntington Garden in San Marino California as part of a JPL Subcontract studying HyTES imagery. Samples were taken to JPL and processed within 48 hours of collection. The same leaves were processed in the Nicolet and then measured using the ASD.
Measurement: Bidirectional reflectance
First Column: X
Second Column: Y
X Units: Wavelength (micrometer)
Y Units: Reflectance (percentage)
First X Value: 0.35
Last X Value: 2.5
Number of X Values: 2151
Additional Information: 

 0.3500	 7.8320
 0.3510	 6.6720
 0.3520	 6.7490
 0.3530	 6.4900
 0.3540	 4.8850
 0.3550	 5.1060
 0.3560	 6.5350
 0.3570	 7.6010
 0.3580	 6.8000
 0.3590	 6.2830
 0.3600	 5.6580
 0.3610	 5.1570
 0.3620	 6.3710
 0.3630	 7.2450
 0.3640	 7.5930
 0.3650	 7.6280
 0.3660	 7.4740
 0.3670	 7.1140
 0.3680	 6.7960
 0.3690	 6.9230
 0.3700	 6.8590
 0.3710	 7.1110
 0.3720	 7.6810
 0.3730	 7.4730
 0.3740	 6.5250
 0.3750	 5.9690
 0.3760	 6.7720
 0.3770	 7.0770
 0.3780	 7.3410
 0.3790	 7.6120
 0.3800	 7.5340
 0.3810	 6.9540
 0.3820	 6.5180
 0.3830	 6.6400
 0.3840	 7.0060
 0.3850	 7.0620
 0.3860	 6.6960
 0.3870	 6.1410
 0.3880	 6.4750
 0.3890	 6.8490
 0.3900	 6.9620
 0.3910	 7.1480
 0.3920	 6.9150
 0.3930	 6.6740
 0.3940	 6.7270
 0.3950	 6.6140
 0.3960	 6.5050
 0.3970	 6.5490
 0.3980	 6.7890
 0.3990	 6.5400
 0.4000	 6.5890
 0.4010	 7.1140
 0.4020	 7.3870
 0.4030	 6.8930
 0.4040	 6.4640
 0.4050	 6.7870
 0.4060	 6.8510
 0.4070	 6.8600
 0.4080	 6.9350
 0.4090	 7.0940
 0.4100	 6.8910
 0.4110	 6.8070
 0.4120	 7.0420
 0.4130	 7.1020
 0.4140	 7.0920
 0.4150	 6.9840
 0.4160	 6.7930
 0.4170	 6.9060
 0.4180	 6.9490
 0.4190	 6.8850
 0.4200	 7.0090
 0.4210	 7.2020
 0.4220	 7.2350
 0.4230	 7.0760
 0.4240	 7.2510
 0.4250	 7.2130
 0.4260	 7.0500
 0.4270	 7.0980
 0.4280	 7.1410
 0.4290	 7.1610
 0.4300	 7.1860
 0.4310	 7.2910
 0.4320	 7.2580
 0.4330	 7.1910
 0.4340	 7.2200
 0.4350	 7.2450
 0.4360	 7.2200
 0.4370	 7.1880
 0.4380	 7.2410
 0.4390	 7.2440
 0.4400	 7.2430
 0.4410	 7.2870
 0.4420	 7.3800
 0.4430	 7.3710
 0.4440	 7.3460
 0.4450	 7.4320
 0.4460	 7.3810
 0.4470	 7.3350
 0.4480	 7.3740
 0.4490	 7.4640
 0.4500	 7.4630
 0.4510	 7.4020
 0.4520	 7.3810
 0.4530	 7.5810
 0.4540	 7.5990
 0.4550	 7.4690
 0.4560	 7.4840
 0.4570	 7.4540
 0.4580	 7.4540
 0.4590	 7.5150
 0.4600	 7.5250
 0.4610	 7.5900
 0.4620	 7.6140
 0.4630	 7.5060
 0.4640	 7.5680
 0.4650	 7.5920
 0.4660	 7.4980
 0.4670	 7.3660
 0.4680	 7.4420
 0.4690	 7.5630
 0.4700	 7.5550
 0.4710	 7.4630
 0.4720	 7.4440
 0.4730	 7.4930
 0.4740	 7.5150
 0.4750	 7.4920
 0.4760	 7.4740
 0.4770	 7.4920
 0.4780	 7.5440
 0.4790	 7.5050
 0.4800	 7.4320
 0.4810	 7.4280
 0.4820	 7.5520
 0.4830	 7.5520
 0.4840	 7.4610
 0.4850	 7.5510
 0.4860	 7.5340
 0.4870	 7.4700
 0.4880	 7.4570
 0.4890	 7.5310
 0.4900	 7.5560
 0.4910	 7.5310
 0.4920	 7.5270
 0.4930	 7.5650
 0.4940	 7.6200
 0.4950	 7.6500
 0.4960	 7.5890
 0.4970	 7.6150
 0.4980	 7.6870
 0.4990	 7.7110
 0.5000	 7.6640
 0.5010	 7.6530
 0.5020	 7.6920
 0.5030	 7.7150
 0.5040	 7.7660
 0.5050	 7.7980
 0.5060	 7.7980
 0.5070	 7.8860
 0.5080	 7.9360
 0.5090	 7.9540
 0.5100	 7.9980
 0.5110	 8.0430
 0.5120	 8.1220
 0.5130	 8.2190
 0.5140	 8.2410
 0.5150	 8.3700
 0.5160	 8.5260
 0.5170	 8.6020
 0.5180	 8.6530
 0.5190	 8.7380
 0.5200	 8.8740
 0.5210	 9.0370
 0.5220	 9.1420
 0.5230	 9.2310
 0.5240	 9.3570
 0.5250	 9.5740
 0.5260	 9.7310
 0.5270	 9.8280
 0.5280	 9.9280
 0.5290	10.0630
 0.5300	10.1950
 0.5310	10.3010
 0.5320	10.3890
 0.5330	10.4790
 0.5340	10.5800
 0.5350	10.6830
 0.5360	10.7410
 0.5370	10.7850
 0.5380	10.8280
 0.5390	10.8700
 0.5400	10.9180
 0.5410	10.9700
 0.5420	11.0190
 0.5430	11.0290
 0.5440	11.0780
 0.5450	11.1430
 0.5460	11.1690
 0.5470	11.2050
 0.5480	11.2420
 0.5490	11.2620
 0.5500	11.2450
 0.5510	11.2580
 0.5520	11.2840
 0.5530	11.2900
 0.5540	11.2560
 0.5550	11.2140
 0.5560	11.1750
 0.5570	11.1330
 0.5580	11.0640
 0.5590	11.0010
 0.5600	10.9570
 0.5610	10.8820
 0.5620	10.8170
 0.5630	10.7460
 0.5640	10.6460
 0.5650	10.5600
 0.5660	10.4810
 0.5670	10.3950
 0.5680	10.2780
 0.5690	10.1870
 0.5700	10.0920
 0.5710	 9.9630
 0.5720	 9.8580
 0.5730	 9.7900
 0.5740	 9.7260
 0.5750	 9.6090
 0.5760	 9.5600
 0.5770	 9.5100
 0.5780	 9.4250
 0.5790	 9.3970
 0.5800	 9.3290
 0.5810	 9.2520
 0.5820	 9.2220
 0.5830	 9.1630
 0.5840	 9.1260
 0.5850	 9.1130
 0.5860	 9.0720
 0.5870	 9.0250
 0.5880	 8.9870
 0.5890	 8.9640
 0.5900	 8.9550
 0.5910	 8.9250
 0.5920	 8.8960
 0.5930	 8.9140
 0.5940	 8.9100
 0.5950	 8.8880
 0.5960	 8.8590
 0.5970	 8.8360
 0.5980	 8.8280
 0.5990	 8.8200
 0.6000	 8.7930
 0.6010	 8.7690
 0.6020	 8.7520
 0.6030	 8.7390
 0.6040	 8.7170
 0.6050	 8.6950
 0.6060	 8.6620
 0.6070	 8.6130
 0.6080	 8.5600
 0.6090	 8.5240
 0.6100	 8.4920
 0.6110	 8.4430
 0.6120	 8.4230
 0.6130	 8.3980
 0.6140	 8.3530
 0.6150	 8.3100
 0.6160	 8.2680
 0.6170	 8.2390
 0.6180	 8.2300
 0.6190	 8.2150
 0.6200	 8.1750
 0.6210	 8.1280
 0.6220	 8.1190
 0.6230	 8.0910
 0.6240	 8.0980
 0.6250	 8.1440
 0.6260	 8.0990
 0.6270	 8.0650
 0.6280	 8.0540
 0.6290	 8.0480
 0.6300	 8.0440
 0.6310	 8.0470
 0.6320	 8.0500
 0.6330	 8.0280
 0.6340	 8.0100
 0.6350	 7.9960
 0.6360	 7.9880
 0.6370	 8.0220
 0.6380	 7.9900
 0.6390	 7.9280
 0.6400	 7.9420
 0.6410	 7.9270
 0.6420	 7.8940
 0.6430	 7.8630
 0.6440	 7.8440
 0.6450	 7.8260
 0.6460	 7.8040
 0.6470	 7.7710
 0.6480	 7.7230
 0.6490	 7.7020
 0.6500	 7.7010
 0.6510	 7.6810
 0.6520	 7.6950
 0.6530	 7.6940
 0.6540	 7.6550
 0.6550	 7.6510
 0.6560	 7.6530
 0.6570	 7.6380
 0.6580	 7.5990
 0.6590	 7.5720
 0.6600	 7.5550
 0.6610	 7.5450
 0.6620	 7.5420
 0.6630	 7.5080
 0.6640	 7.4780
 0.6650	 7.4770
 0.6660	 7.4590
 0.6670	 7.4520
 0.6680	 7.4530
 0.6690	 7.4450
 0.6700	 7.4370
 0.6710	 7.4370
 0.6720	 7.4440
 0.6730	 7.4470
 0.6740	 7.4510
 0.6750	 7.4610
 0.6760	 7.4780
 0.6770	 7.4880
 0.6780	 7.5140
 0.6790	 7.5460
 0.6800	 7.5540
 0.6810	 7.5650
 0.6820	 7.5940
 0.6830	 7.6400
 0.6840	 7.6640
 0.6850	 7.7080
 0.6860	 7.7670
 0.6870	 7.8250
 0.6880	 7.8680
 0.6890	 7.9320
 0.6900	 8.0210
 0.6910	 8.1140
 0.6920	 8.2670
 0.6930	 8.4350
 0.6940	 8.6080
 0.6950	 8.8730
 0.6960	 9.1630
 0.6970	 9.4980
 0.6980	 9.9110
 0.6990	10.3610
 0.7000	10.8590
 0.7010	11.4210
 0.7020	12.0610
 0.7030	12.7330
 0.7040	13.4320
 0.7050	14.1680
 0.7060	14.9580
 0.7070	15.7610
 0.7080	16.5770
 0.7090	17.4240
 0.7100	18.3000
 0.7110	19.2010
 0.7120	20.1240
 0.7130	21.0670
 0.7140	22.0490
 0.7150	23.0290
 0.7160	23.9930
 0.7170	25.0120
 0.7180	26.0280
 0.7190	27.0390
 0.7200	28.0640
 0.7210	29.0910
 0.7220	30.1030
 0.7230	31.1040
 0.7240	32.1150
 0.7250	33.1070
 0.7260	34.0790
 0.7270	35.0240
 0.7280	35.9070
 0.7290	36.7790
 0.7300	37.6410
 0.7310	38.4700
 0.7320	39.2530
 0.7330	40.0160
 0.7340	40.7540
 0.7350	41.4300
 0.7360	42.0850
 0.7370	42.7070
 0.7380	43.2820
 0.7390	43.8270
 0.7400	44.3420
 0.7410	44.8300
 0.7420	45.2890
 0.7430	45.7130
 0.7440	46.1190
 0.7450	46.4990
 0.7460	46.8190
 0.7470	47.1290
 0.7480	47.4210
 0.7490	47.6870
 0.7500	47.9230
 0.7510	48.1490
 0.7520	48.3510
 0.7530	48.5190
 0.7540	48.7160
 0.7550	48.8910
 0.7560	49.0240
 0.7570	49.1350
 0.7580	49.2590
 0.7590	49.3690
 0.7600	49.4490
 0.7610	49.5260
 0.7620	49.6050
 0.7630	49.6740
 0.7640	49.7260
 0.7650	49.7810
 0.7660	49.8340
 0.7670	49.8880
 0.7680	49.9410
 0.7690	49.9630
 0.7700	49.9870
 0.7710	50.0230
 0.7720	50.0390
 0.7730	50.0500
 0.7740	50.0690
 0.7750	50.0990
 0.7760	50.1080
 0.7770	50.1140
 0.7780	50.1270
 0.7790	50.1470
 0.7800	50.1580
 0.7810	50.1760
 0.7820	50.1900
 0.7830	50.1710
 0.7840	50.1800
 0.7850	50.1990
 0.7860	50.2050
 0.7870	50.1840
 0.7880	50.1910
 0.7890	50.2040
 0.7900	50.1910
 0.7910	50.1930
 0.7920	50.1800
 0.7930	50.1670
 0.7940	50.1850
 0.7950	50.2000
 0.7960	50.1850
 0.7970	50.1460
 0.7980	50.1260
 0.7990	50.1370
 0.8000	50.1420
 0.8010	50.1240
 0.8020	50.1370
 0.8030	50.1250
 0.8040	50.0980
 0.8050	50.0900
 0.8060	50.0840
 0.8070	50.0790
 0.8080	50.0780
 0.8090	50.0880
 0.8100	50.0700
 0.8110	50.0350
 0.8120	50.0050
 0.8130	50.0130
 0.8140	49.9920
 0.8150	49.9710
 0.8160	49.9770
 0.8170	49.9530
 0.8180	49.9380
 0.8190	49.9410
 0.8200	49.9530
 0.8210	49.9420
 0.8220	49.9300
 0.8230	49.9250
 0.8240	49.9110
 0.8250	49.8870
 0.8260	49.8780
 0.8270	49.8900
 0.8280	49.8940
 0.8290	49.8600
 0.8300	49.8320
 0.8310	49.8440
 0.8320	49.8460
 0.8330	49.8470
 0.8340	49.8340
 0.8350	49.8010
 0.8360	49.8120
 0.8370	49.8280
 0.8380	49.8330
 0.8390	49.8280
 0.8400	49.8350
 0.8410	49.8340
 0.8420	49.8200
 0.8430	49.8140
 0.8440	49.8230
 0.8450	49.8420
 0.8460	49.8590
 0.8470	49.8580
 0.8480	49.8470
 0.8490	49.8410
 0.8500	49.8530
 0.8510	49.8860
 0.8520	49.8820
 0.8530	49.8550
 0.8540	49.8560
 0.8550	49.8670
 0.8560	49.8700
 0.8570	49.8760
 0.8580	49.9190
 0.8590	49.9430
 0.8600	49.9530
 0.8610	49.9580
 0.8620	49.9610
 0.8630	49.9490
 0.8640	49.9460
 0.8650	49.9660
 0.8660	49.9730
 0.8670	49.9770
 0.8680	49.9770
 0.8690	49.9810
 0.8700	50.0400
 0.8710	50.0500
 0.8720	50.0280
 0.8730	50.0530
 0.8740	50.0830
 0.8750	50.0730
 0.8760	50.0410
 0.8770	50.0540
 0.8780	50.0890
 0.8790	50.0990
 0.8800	50.0830
 0.8810	50.1070
 0.8820	50.1150
 0.8830	50.1080
 0.8840	50.1020
 0.8850	50.1100
 0.8860	50.1370
 0.8870	50.1630
 0.8880	50.1730
 0.8890	50.2130
 0.8900	50.1950
 0.8910	50.1640
 0.8920	50.1960
 0.8930	50.2010
 0.8940	50.1980
 0.8950	50.2070
 0.8960	50.2280
 0.8970	50.2140
 0.8980	50.1930
 0.8990	50.1900
 0.9000	50.2080
 0.9010	50.2440
 0.9020	50.2410
 0.9030	50.2020
 0.9040	50.2090
 0.9050	50.2430
 0.9060	50.2720
 0.9070	50.2710
 0.9080	50.2390
 0.9090	50.1840
 0.9100	50.1920
 0.9110	50.2850
 0.9120	50.2800
 0.9130	50.2440
 0.9140	50.2150
 0.9150	50.2160
 0.9160	50.2280
 0.9170	50.2440
 0.9180	50.2260
 0.9190	50.1530
 0.9200	50.1280
 0.9210	50.1660
 0.9220	50.2010
 0.9230	50.1580
 0.9240	50.1520
 0.9250	50.1460
 0.9260	50.1270
 0.9270	50.1060
 0.9280	50.1050
 0.9290	50.0900
 0.9300	50.0740
 0.9310	50.1030
 0.9320	50.0860
 0.9330	50.0650
 0.9340	50.0450
 0.9350	49.9750
 0.9360	49.9700
 0.9370	49.9810
 0.9380	49.9590
 0.9390	49.9040
 0.9400	49.8780
 0.9410	49.8740
 0.9420	49.8680
 0.9430	49.8340
 0.9440	49.8340
 0.9450	49.7910
 0.9460	49.6830
 0.9470	49.6620
 0.9480	49.6710
 0.9490	49.6700
 0.9500	49.6320
 0.9510	49.5430
 0.9520	49.4890
 0.9530	49.4550
 0.9540	49.4020
 0.9550	49.3320
 0.9560	49.2750
 0.9570	49.2160
 0.9580	49.1460
 0.9590	49.1300
 0.9600	49.0200
 0.9610	48.9570
 0.9620	49.0750
 0.9630	49.0730
 0.9640	48.9770
 0.9650	48.8790
 0.9660	48.8660
 0.9670	48.8890
 0.9680	48.9110
 0.9690	48.8860
 0.9700	48.7990
 0.9710	48.7280
 0.9720	48.7410
 0.9730	48.7980
 0.9740	48.8100
 0.9750	48.7310
 0.9760	48.6990
 0.9770	48.7490
 0.9780	48.8220
 0.9790	48.7420
 0.9800	48.7810
 0.9810	48.8680
 0.9820	48.8200
 0.9830	48.8910
 0.9840	48.8330
 0.9850	48.7060
 0.9860	48.7000
 0.9870	48.8060
 0.9880	48.8080
 0.9890	48.7310
 0.9900	48.7130
 0.9910	48.7550
 0.9920	48.8220
 0.9930	48.8260
 0.9940	48.7340
 0.9950	48.8090
 0.9960	48.8740
 0.9970	48.9450
 0.9980	49.0580
 0.9990	48.9040
 1.0000	48.7930
 1.0010	48.6000
 1.0020	48.6050
 1.0030	48.6210
 1.0040	48.6320
 1.0050	48.6850
 1.0060	48.7330
 1.0070	48.7580
 1.0080	48.7890
 1.0090	48.8270
 1.0100	48.8440
 1.0110	48.8550
 1.0120	48.8590
 1.0130	48.8290
 1.0140	48.8310
 1.0150	48.8500
 1.0160	48.8620
 1.0170	48.8540
 1.0180	48.8740
 1.0190	48.8870
 1.0200	48.8740
 1.0210	48.9350
 1.0220	49.0030
 1.0230	49.0330
 1.0240	49.0580
 1.0250	49.0840
 1.0260	49.0860
 1.0270	49.0860
 1.0280	49.0770
 1.0290	49.0970
 1.0300	49.1310
 1.0310	49.1390
 1.0320	49.1630
 1.0330	49.1840
 1.0340	49.1600
 1.0350	49.1210
 1.0360	49.1290
 1.0370	49.1550
 1.0380	49.1730
 1.0390	49.2160
 1.0400	49.2180
 1.0410	49.1850
 1.0420	49.1870
 1.0430	49.1730
 1.0440	49.1870
 1.0450	49.2500
 1.0460	49.2770
 1.0470	49.2990
 1.0480	49.3120
 1.0490	49.3050
 1.0500	49.3010
 1.0510	49.2890
 1.0520	49.2840
 1.0530	49.2810
 1.0540	49.2800
 1.0550	49.2840
 1.0560	49.2930
 1.0570	49.3070
 1.0580	49.3340
 1.0590	49.3440
 1.0600	49.3530
 1.0610	49.3540
 1.0620	49.3390
 1.0630	49.3280
 1.0640	49.3070
 1.0650	49.3040
 1.0660	49.2990
 1.0670	49.3080
 1.0680	49.3290
 1.0690	49.3760
 1.0700	49.3920
 1.0710	49.4120
 1.0720	49.4130
 1.0730	49.3890
 1.0740	49.3810
 1.0750	49.3650
 1.0760	49.3660
 1.0770	49.3760
 1.0780	49.3870
 1.0790	49.4120
 1.0800	49.4250
 1.0810	49.4380
 1.0820	49.4440
 1.0830	49.4380
 1.0840	49.4350
 1.0850	49.4460
 1.0860	49.4270
 1.0870	49.4130
 1.0880	49.3870
 1.0890	49.3820
 1.0900	49.3780
 1.0910	49.3760
 1.0920	49.3940
 1.0930	49.3980
 1.0940	49.3930
 1.0950	49.3870
 1.0960	49.3760
 1.0970	49.3710
 1.0980	49.3710
 1.0990	49.3610
 1.1000	49.3480
 1.1010	49.3370
 1.1020	49.3170
 1.1030	49.2970
 1.1040	49.2830
 1.1050	49.2750
 1.1060	49.2700
 1.1070	49.2670
 1.1080	49.2610
 1.1090	49.2630
 1.1100	49.2530
 1.1110	49.2370
 1.1120	49.2190
 1.1130	49.1900
 1.1140	49.1710
 1.1150	49.1550
 1.1160	49.1340
 1.1170	49.1150
 1.1180	49.0930
 1.1190	49.0640
 1.1200	49.0380
 1.1210	49.0260
 1.1220	49.0060
 1.1230	48.9810
 1.1240	48.9510
 1.1250	48.9140
 1.1260	48.8650
 1.1270	48.8170
 1.1280	48.7720
 1.1290	48.7110
 1.1300	48.6360
 1.1310	48.5640
 1.1320	48.4770
 1.1330	48.4030
 1.1340	48.3480
 1.1350	48.2700
 1.1360	48.1760
 1.1370	48.1050
 1.1380	48.0140
 1.1390	47.9050
 1.1400	47.8030
 1.1410	47.6870
 1.1420	47.5630
 1.1430	47.4460
 1.1440	47.3290
 1.1450	47.2140
 1.1460	47.1010
 1.1470	46.9870
 1.1480	46.8800
 1.1490	46.7750
 1.1500	46.6810
 1.1510	46.5980
 1.1520	46.5140
 1.1530	46.4370
 1.1540	46.3620
 1.1550	46.2890
 1.1560	46.2110
 1.1570	46.1370
 1.1580	46.0760
 1.1590	46.0200
 1.1600	45.9650
 1.1610	45.9260
 1.1620	45.8980
 1.1630	45.8760
 1.1640	45.8540
 1.1650	45.8270
 1.1660	45.7990
 1.1670	45.7720
 1.1680	45.7370
 1.1690	45.7160
 1.1700	45.7040
 1.1710	45.6820
 1.1720	45.6640
 1.1730	45.6460
 1.1740	45.6230
 1.1750	45.5990
 1.1760	45.5830
 1.1770	45.5570
 1.1780	45.5350
 1.1790	45.5220
 1.1800	45.5110
 1.1810	45.4980
 1.1820	45.4890
 1.1830	45.4870
 1.1840	45.4800
 1.1850	45.4660
 1.1860	45.4480
 1.1870	45.4130
 1.1880	45.3910
 1.1890	45.3670
 1.1900	45.3580
 1.1910	45.3690
 1.1920	45.3630
 1.1930	45.3560
 1.1940	45.3440
 1.1950	45.3220
 1.1960	45.2910
 1.1970	45.2850
 1.1980	45.2780
 1.1990	45.2670
 1.2000	45.2670
 1.2010	45.2610
 1.2020	45.2590
 1.2030	45.2670
 1.2040	45.2690
 1.2050	45.2720
 1.2060	45.2820
 1.2070	45.2910
 1.2080	45.3020
 1.2090	45.3140
 1.2100	45.3240
 1.2110	45.3430
 1.2120	45.3740
 1.2130	45.3960
 1.2140	45.4160
 1.2150	45.4370
 1.2160	45.4550
 1.2170	45.4600
 1.2180	45.4820
 1.2190	45.5090
 1.2200	45.5250
 1.2210	45.5570
 1.2220	45.5900
 1.2230	45.6170
 1.2240	45.6510
 1.2250	45.6860
 1.2260	45.7160
 1.2270	45.7440
 1.2280	45.7710
 1.2290	45.8150
 1.2300	45.8540
 1.2310	45.8760
 1.2320	45.9030
 1.2330	45.9190
 1.2340	45.9390
 1.2350	45.9630
 1.2360	45.9800
 1.2370	45.9960
 1.2380	46.0030
 1.2390	46.0020
 1.2400	46.0180
 1.2410	46.0380
 1.2420	46.0620
 1.2430	46.0880
 1.2440	46.0980
 1.2450	46.1060
 1.2460	46.1130
 1.2470	46.1140
 1.2480	46.1220
 1.2490	46.1340
 1.2500	46.1450
 1.2510	46.1610
 1.2520	46.1790
 1.2530	46.1950
 1.2540	46.2090
 1.2550	46.2310
 1.2560	46.2490
 1.2570	46.2560
 1.2580	46.2630
 1.2590	46.2610
 1.2600	46.2460
 1.2610	46.2360
 1.2620	46.2260
 1.2630	46.2060
 1.2640	46.1950
 1.2650	46.1860
 1.2660	46.1810
 1.2670	46.1830
 1.2680	46.1810
 1.2690	46.1810
 1.2700	46.1750
 1.2710	46.1780
 1.2720	46.1880
 1.2730	46.1780
 1.2740	46.1690
 1.2750	46.1520
 1.2760	46.1210
 1.2770	46.1060
 1.2780	46.0820
 1.2790	46.0710
 1.2800	46.0690
 1.2810	46.0500
 1.2820	46.0340
 1.2830	46.0120
 1.2840	45.9840
 1.2850	45.9540
 1.2860	45.9360
 1.2870	45.9210
 1.2880	45.9100
 1.2890	45.8860
 1.2900	45.8660
 1.2910	45.8360
 1.2920	45.7950
 1.2930	45.7640
 1.2940	45.7360
 1.2950	45.7120
 1.2960	45.6910
 1.2970	45.6610
 1.2980	45.6330
 1.2990	45.6130
 1.3000	45.5840
 1.3010	45.5610
 1.3020	45.5320
 1.3030	45.4820
 1.3040	45.4300
 1.3050	45.3660
 1.3060	45.2940
 1.3070	45.2210
 1.3080	45.1500
 1.3090	45.0790
 1.3100	45.0120
 1.3110	44.9590
 1.3120	44.8950
 1.3130	44.8160
 1.3140	44.7380
 1.3150	44.6510
 1.3160	44.5680
 1.3170	44.4840
 1.3180	44.4150
 1.3190	44.3320
 1.3200	44.2460
 1.3210	44.1610
 1.3220	44.0610
 1.3230	43.9660
 1.3240	43.8730
 1.3250	43.7740
 1.3260	43.6710
 1.3270	43.5610
 1.3280	43.4540
 1.3290	43.3410
 1.3300	43.2190
 1.3310	43.0960
 1.3320	42.9650
 1.3330	42.8340
 1.3340	42.7130
 1.3350	42.5890
 1.3360	42.4640
 1.3370	42.3460
 1.3380	42.2260
 1.3390	42.1120
 1.3400	41.9990
 1.3410	41.8780
 1.3420	41.7560
 1.3430	41.6290
 1.3440	41.5080
 1.3450	41.3910
 1.3460	41.2730
 1.3470	41.1610
 1.3480	41.0580
 1.3490	40.9480
 1.3500	40.8350
 1.3510	40.7310
 1.3520	40.6230
 1.3530	40.5070
 1.3540	40.4010
 1.3550	40.2870
 1.3560	40.1710
 1.3570	40.0600
 1.3580	39.9460
 1.3590	39.8300
 1.3600	39.7100
 1.3610	39.5800
 1.3620	39.4420
 1.3630	39.3070
 1.3640	39.1680
 1.3650	39.0250
 1.3660	38.8740
 1.3670	38.7100
 1.3680	38.5310
 1.3690	38.3390
 1.3700	38.1470
 1.3710	37.9390
 1.3720	37.7120
 1.3730	37.4780
 1.3740	37.2230
 1.3750	36.9490
 1.3760	36.6610
 1.3770	36.3490
 1.3780	36.0090
 1.3790	35.6560
 1.3800	35.2790
 1.3810	34.8790
 1.3820	34.4590
 1.3830	34.0210
 1.3840	33.5550
 1.3850	33.0640
 1.3860	32.5540
 1.3870	32.0120
 1.3880	31.4720
 1.3890	30.9160
 1.3900	30.3560
 1.3910	29.7930
 1.3920	29.2260
 1.3930	28.6500
 1.3940	28.0710
 1.3950	27.4980
 1.3960	26.9340
 1.3970	26.3780
 1.3980	25.8320
 1.3990	25.3040
 1.4000	24.7850
 1.4010	24.2820
 1.4020	23.7990
 1.4030	23.3310
 1.4040	22.8840
 1.4050	22.4570
 1.4060	22.0560
 1.4070	21.6830
 1.4080	21.3230
 1.4090	20.9890
 1.4100	20.6730
 1.4110	20.3660
 1.4120	20.0810
 1.4130	19.8110
 1.4140	19.5590
 1.4150	19.3300
 1.4160	19.1190
 1.4170	18.9290
 1.4180	18.7490
 1.4190	18.5810
 1.4200	18.4270
 1.4210	18.2820
 1.4220	18.1550
 1.4230	18.0420
 1.4240	17.9350
 1.4250	17.8340
 1.4260	17.7400
 1.4270	17.6530
 1.4280	17.5740
 1.4290	17.5020
 1.4300	17.4380
 1.4310	17.3830
 1.4320	17.3330
 1.4330	17.2930
 1.4340	17.2670
 1.4350	17.2360
 1.4360	17.2090
 1.4370	17.1890
 1.4380	17.1640
 1.4390	17.1460
 1.4400	17.1320
 1.4410	17.1200
 1.4420	17.1110
 1.4430	17.1050
 1.4440	17.1080
 1.4450	17.1080
 1.4460	17.1110
 1.4470	17.1220
 1.4480	17.1290
 1.4490	17.1430
 1.4500	17.1550
 1.4510	17.1650
 1.4520	17.1810
 1.4530	17.1950
 1.4540	17.2150
 1.4550	17.2400
 1.4560	17.2660
 1.4570	17.2970
 1.4580	17.3260
 1.4590	17.3530
 1.4600	17.3850
 1.4610	17.4220
 1.4620	17.4670
 1.4630	17.5200
 1.4640	17.5790
 1.4650	17.6410
 1.4660	17.7030
 1.4670	17.7660
 1.4680	17.8340
 1.4690	17.9090
 1.4700	17.9920
 1.4710	18.0860
 1.4720	18.1850
 1.4730	18.2860
 1.4740	18.3850
 1.4750	18.4810
 1.4760	18.5790
 1.4770	18.6800
 1.4780	18.7850
 1.4790	18.8950
 1.4800	19.0060
 1.4810	19.1170
 1.4820	19.2350
 1.4830	19.3530
 1.4840	19.4720
 1.4850	19.5940
 1.4860	19.7090
 1.4870	19.8300
 1.4880	19.9590
 1.4890	20.0850
 1.4900	20.2110
 1.4910	20.3390
 1.4920	20.4660
 1.4930	20.5900
 1.4940	20.7200
 1.4950	20.8540
 1.4960	20.9830
 1.4970	21.1080
 1.4980	21.2370
 1.4990	21.3660
 1.5000	21.4930
 1.5010	21.6230
 1.5020	21.7510
 1.5030	21.8690
 1.5040	21.9980
 1.5050	22.1320
 1.5060	22.2640
 1.5070	22.4030
 1.5080	22.5400
 1.5090	22.6770
 1.5100	22.8060
 1.5110	22.9330
 1.5120	23.0590
 1.5130	23.1820
 1.5140	23.3030
 1.5150	23.4320
 1.5160	23.5530
 1.5170	23.6670
 1.5180	23.7930
 1.5190	23.9200
 1.5200	24.0460
 1.5210	24.1750
 1.5220	24.3010
 1.5230	24.4240
 1.5240	24.5450
 1.5250	24.6680
 1.5260	24.7870
 1.5270	24.9050
 1.5280	25.0240
 1.5290	25.1390
 1.5300	25.2520
 1.5310	25.3660
 1.5320	25.4750
 1.5330	25.5850
 1.5340	25.7010
 1.5350	25.8170
 1.5360	25.9310
 1.5370	26.0460
 1.5380	26.1570
 1.5390	26.2630
 1.5400	26.3680
 1.5410	26.4740
 1.5420	26.5780
 1.5430	26.6810
 1.5440	26.7870
 1.5450	26.8890
 1.5460	26.9890
 1.5470	27.0850
 1.5480	27.1840
 1.5490	27.2890
 1.5500	27.3830
 1.5510	27.4880
 1.5520	27.5940
 1.5530	27.6880
 1.5540	27.7910
 1.5550	27.8900
 1.5560	27.9790
 1.5570	28.0730
 1.5580	28.1610
 1.5590	28.2450
 1.5600	28.3370
 1.5610	28.4120
 1.5620	28.4870
 1.5630	28.5750
 1.5640	28.6490
 1.5650	28.7250
 1.5660	28.8090
 1.5670	28.8870
 1.5680	28.9660
 1.5690	29.0580
 1.5700	29.1490
 1.5710	29.2300
 1.5720	29.3070
 1.5730	29.3710
 1.5740	29.4410
 1.5750	29.5150
 1.5760	29.5930
 1.5770	29.6800
 1.5780	29.7580
 1.5790	29.8260
 1.5800	29.8920
 1.5810	29.9550
 1.5820	30.0190
 1.5830	30.0890
 1.5840	30.1660
 1.5850	30.2410
 1.5860	30.3100
 1.5870	30.3720
 1.5880	30.4310
 1.5890	30.4920
 1.5900	30.5560
 1.5910	30.6280
 1.5920	30.6950
 1.5930	30.7580
 1.5940	30.8240
 1.5950	30.8870
 1.5960	30.9440
 1.5970	31.0060
 1.5980	31.0710
 1.5990	31.1280
 1.6000	31.1900
 1.6010	31.2540
 1.6020	31.3080
 1.6030	31.3690
 1.6040	31.4280
 1.6050	31.4860
 1.6060	31.5440
 1.6070	31.5930
 1.6080	31.6420
 1.6090	31.6930
 1.6100	31.7370
 1.6110	31.7890
 1.6120	31.8460
 1.6130	31.9000
 1.6140	31.9530
 1.6150	32.0000
 1.6160	32.0470
 1.6170	32.0930
 1.6180	32.1300
 1.6190	32.1690
 1.6200	32.2060
 1.6210	32.2350
 1.6220	32.2680
 1.6230	32.3090
 1.6240	32.3500
 1.6250	32.3850
 1.6260	32.4250
 1.6270	32.4630
 1.6280	32.4940
 1.6290	32.5310
 1.6300	32.5680
 1.6310	32.6040
 1.6320	32.6430
 1.6330	32.6720
 1.6340	32.6950
 1.6350	32.7200
 1.6360	32.7380
 1.6370	32.7630
 1.6380	32.7930
 1.6390	32.8160
 1.6400	32.8380
 1.6410	32.8550
 1.6420	32.8620
 1.6430	32.8730
 1.6440	32.8800
 1.6450	32.8990
 1.6460	32.9160
 1.6470	32.9370
 1.6480	32.9590
 1.6490	32.9680
 1.6500	32.9740
 1.6510	32.9650
 1.6520	32.9520
 1.6530	32.9390
 1.6540	32.9260
 1.6550	32.9270
 1.6560	32.9170
 1.6570	32.9070
 1.6580	32.9010
 1.6590	32.8810
 1.6600	32.8680
 1.6610	32.8600
 1.6620	32.8480
 1.6630	32.8490
 1.6640	32.8450
 1.6650	32.8340
 1.6660	32.8270
 1.6670	32.8130
 1.6680	32.8010
 1.6690	32.7900
 1.6700	32.7810
 1.6710	32.7710
 1.6720	32.7510
 1.6730	32.7320
 1.6740	32.7000
 1.6750	32.6560
 1.6760	32.6310
 1.6770	32.6070
 1.6780	32.5740
 1.6790	32.5530
 1.6800	32.5260
 1.6810	32.4860
 1.6820	32.4500
 1.6830	32.4150
 1.6840	32.3750
 1.6850	32.3280
 1.6860	32.2890
 1.6870	32.2470
 1.6880	32.2010
 1.6890	32.1630
 1.6900	32.1170
 1.6910	32.0580
 1.6920	32.0090
 1.6930	31.9640
 1.6940	31.9150
 1.6950	31.8770
 1.6960	31.8230
 1.6970	31.7560
 1.6980	31.6920
 1.6990	31.6200
 1.7000	31.5470
 1.7010	31.4720
 1.7020	31.4020
 1.7030	31.3330
 1.7040	31.2630
 1.7050	31.1950
 1.7060	31.1250
 1.7070	31.0500
 1.7080	30.9820
 1.7090	30.9200
 1.7100	30.8560
 1.7110	30.7930
 1.7120	30.7200
 1.7130	30.6560
 1.7140	30.5900
 1.7150	30.5280
 1.7160	30.4780
 1.7170	30.4210
 1.7180	30.3570
 1.7190	30.2940
 1.7200	30.2300
 1.7210	30.1740
 1.7220	30.1210
 1.7230	30.0730
 1.7240	30.0220
 1.7250	29.9570
 1.7260	29.9070
 1.7270	29.8560
 1.7280	29.8060
 1.7290	29.7730
 1.7300	29.7270
 1.7310	29.6930
 1.7320	29.6630
 1.7330	29.6440
 1.7340	29.6440
 1.7350	29.6370
 1.7360	29.6440
 1.7370	29.6320
 1.7380	29.6030
 1.7390	29.5840
 1.7400	29.5600
 1.7410	29.5370
 1.7420	29.5260
 1.7430	29.5030
 1.7440	29.4750
 1.7450	29.4330
 1.7460	29.3770
 1.7470	29.3270
 1.7480	29.2690
 1.7490	29.2190
 1.7500	29.1840
 1.7510	29.1270
 1.7520	29.0570
 1.7530	28.9980
 1.7540	28.9320
 1.7550	28.8810
 1.7560	28.8320
 1.7570	28.7720
 1.7580	28.7170
 1.7590	28.6730
 1.7600	28.6240
 1.7610	28.5730
 1.7620	28.5270
 1.7630	28.4780
 1.7640	28.4310
 1.7650	28.3920
 1.7660	28.3540
 1.7670	28.3050
 1.7680	28.2750
 1.7690	28.2660
 1.7700	28.2450
 1.7710	28.2280
 1.7720	28.2100
 1.7730	28.1850
 1.7740	28.1620
 1.7750	28.1430
 1.7760	28.1200
 1.7770	28.0920
 1.7780	28.0610
 1.7790	28.0240
 1.7800	27.9950
 1.7810	27.9540
 1.7820	27.9410
 1.7830	27.9490
 1.7840	27.9420
 1.7850	27.9430
 1.7860	27.9330
 1.7870	27.9090
 1.7880	27.9050
 1.7890	27.9050
 1.7900	27.9020
 1.7910	27.8960
 1.7920	27.8830
 1.7930	27.8730
 1.7940	27.8590
 1.7950	27.8540
 1.7960	27.8560
 1.7970	27.8570
 1.7980	27.8610
 1.7990	27.8660
 1.8000	27.8680
 1.8010	27.8780
 1.8020	27.8980
 1.8030	27.9130
 1.8040	27.9280
 1.8050	27.9410
 1.8060	27.9530
 1.8070	27.9570
 1.8080	27.9560
 1.8090	27.9620
 1.8100	27.9630
 1.8110	27.9720
 1.8120	27.9910
 1.8130	27.9860
 1.8140	27.9840
 1.8150	27.9920
 1.8160	27.9830
 1.8170	27.9840
 1.8180	28.0000
 1.8190	28.0130
 1.8200	28.0140
 1.8210	28.0120
 1.8220	27.9980
 1.8230	27.9570
 1.8240	27.9350
 1.8250	27.9110
 1.8260	27.9000
 1.8270	27.9110
 1.8280	27.9080
 1.8290	27.9080
 1.8300	27.8940
 1.8310	27.6310
 1.8320	27.6150
 1.8330	27.5600
 1.8340	27.5210
 1.8350	27.5450
 1.8360	27.5360
 1.8370	27.5160
 1.8380	27.5120
 1.8390	27.4650
 1.8400	27.3560
 1.8410	27.2860
 1.8420	27.2190
 1.8430	27.1290
 1.8440	27.0850
 1.8450	27.0500
 1.8460	26.9390
 1.8470	26.8330
 1.8480	26.7030
 1.8490	26.5260
 1.8500	26.3790
 1.8510	26.2570
 1.8520	26.1220
 1.8530	25.9490
 1.8540	25.8000
 1.8550	25.6200
 1.8560	25.4010
 1.8570	25.1830
 1.8580	24.9550
 1.8590	24.7020
 1.8600	24.4200
 1.8610	24.1460
 1.8620	23.8470
 1.8630	23.4970
 1.8640	23.1690
 1.8650	22.8090
 1.8660	22.4410
 1.8670	22.0940
 1.8680	21.7050
 1.8690	21.2810
 1.8700	20.8290
 1.8710	20.3410
 1.8720	19.8370
 1.8730	19.3410
 1.8740	18.8540
 1.8750	18.3900
 1.8760	17.9050
 1.8770	17.4060
 1.8780	16.9060
 1.8790	16.3810
 1.8800	15.8710
 1.8810	15.3690
 1.8820	14.8510
 1.8830	14.3270
 1.8840	13.8360
 1.8850	13.3370
 1.8860	12.8600
 1.8870	12.4020
 1.8880	11.9460
 1.8890	11.5320
 1.8900	11.1300
 1.8910	10.7540
 1.8920	10.3970
 1.8930	10.0890
 1.8940	 9.7960
 1.8950	 9.5300
 1.8960	 9.2880
 1.8970	 9.0400
 1.8980	 8.8120
 1.8990	 8.5910
 1.9000	 8.4090
 1.9010	 8.2720
 1.9020	 8.1320
 1.9030	 8.0060
 1.9040	 7.9100
 1.9050	 7.8070
 1.9060	 7.6980
 1.9070	 7.6130
 1.9080	 7.5360
 1.9090	 7.4690
 1.9100	 7.4100
 1.9110	 7.3560
 1.9120	 7.3110
 1.9130	 7.2710
 1.9140	 7.2350
 1.9150	 7.2070
 1.9160	 7.1910
 1.9170	 7.1680
 1.9180	 7.1410
 1.9190	 7.1280
 1.9200	 7.1110
 1.9210	 7.0760
 1.9220	 7.0630
 1.9230	 7.0680
 1.9240	 7.0610
 1.9250	 7.0450
 1.9260	 7.0590
 1.9270	 7.0700
 1.9280	 7.0640
 1.9290	 7.0860
 1.9300	 7.1190
 1.9310	 7.1430
 1.9320	 7.1550
 1.9330	 7.1550
 1.9340	 7.1350
 1.9350	 7.1250
 1.9360	 7.0930
 1.9370	 7.0910
 1.9380	 7.1080
 1.9390	 7.1240
 1.9400	 7.1560
 1.9410	 7.1930
 1.9420	 7.2120
 1.9430	 7.2320
 1.9440	 7.2540
 1.9450	 7.2750
 1.9460	 7.2870
 1.9470	 7.2920
 1.9480	 7.3100
 1.9490	 7.3260
 1.9500	 7.3420
 1.9510	 7.3780
 1.9520	 7.4170
 1.9530	 7.4300
 1.9540	 7.4390
 1.9550	 7.4680
 1.9560	 7.5050
 1.9570	 7.5420
 1.9580	 7.5990
 1.9590	 7.6430
 1.9600	 7.6760
 1.9610	 7.7070
 1.9620	 7.7330
 1.9630	 7.7650
 1.9640	 7.8010
 1.9650	 7.8420
 1.9660	 7.8810
 1.9670	 7.9280
 1.9680	 7.9710
 1.9690	 8.0090
 1.9700	 8.0560
 1.9710	 8.1160
 1.9720	 8.1600
 1.9730	 8.2030
 1.9740	 8.2310
 1.9750	 8.2610
 1.9760	 8.2940
 1.9770	 8.3290
 1.9780	 8.3790
 1.9790	 8.4310
 1.9800	 8.4870
 1.9810	 8.5440
 1.9820	 8.6210
 1.9830	 8.6740
 1.9840	 8.7050
 1.9850	 8.7610
 1.9860	 8.8240
 1.9870	 8.8820
 1.9880	 8.9370
 1.9890	 8.9820
 1.9900	 9.0270
 1.9910	 9.0690
 1.9920	 9.1260
 1.9930	 9.2100
 1.9940	 9.2820
 1.9950	 9.3560
 1.9960	 9.4210
 1.9970	 9.4920
 1.9980	 9.5510
 1.9990	 9.5910
 2.0000	 9.6370
 2.0010	 9.7060
 2.0020	 9.7500
 2.0030	 9.8200
 2.0040	 9.8960
 2.0050	 9.9610
 2.0060	10.0210
 2.0070	10.0870
 2.0080	10.1490
 2.0090	10.2170
 2.0100	10.2920
 2.0110	10.3640
 2.0120	10.4350
 2.0130	10.5090
 2.0140	10.5790
 2.0150	10.6380
 2.0160	10.7040
 2.0170	10.7500
 2.0180	10.7960
 2.0190	10.8310
 2.0200	10.8770
 2.0210	10.9120
 2.0220	10.9710
 2.0230	11.0550
 2.0240	11.1220
 2.0250	11.2010
 2.0260	11.2640
 2.0270	11.3100
 2.0280	11.3600
 2.0290	11.4000
 2.0300	11.4460
 2.0310	11.4950
 2.0320	11.5390
 2.0330	11.5990
 2.0340	11.6820
 2.0350	11.7390
 2.0360	11.7940
 2.0370	11.8480
 2.0380	11.8820
 2.0390	11.9300
 2.0400	11.9950
 2.0410	12.0500
 2.0420	12.1000
 2.0430	12.1500
 2.0440	12.2010
 2.0450	12.2510
 2.0460	12.2920
 2.0470	12.3320
 2.0480	12.3670
 2.0490	12.3860
 2.0500	12.4220
 2.0510	12.4640
 2.0520	12.5090
 2.0530	12.5640
 2.0540	12.6140
 2.0550	12.6750
 2.0560	12.7100
 2.0570	12.7550
 2.0580	12.8110
 2.0590	12.8650
 2.0600	12.9280
 2.0610	12.9850
 2.0620	13.0390
 2.0630	13.0990
 2.0640	13.1610
 2.0650	13.2200
 2.0660	13.2820
 2.0670	13.3410
 2.0680	13.3950
 2.0690	13.4490
 2.0700	13.4980
 2.0710	13.5550
 2.0720	13.6240
 2.0730	13.6820
 2.0740	13.7280
 2.0750	13.7660
 2.0760	13.8150
 2.0770	13.8550
 2.0780	13.8940
 2.0790	13.9390
 2.0800	13.9910
 2.0810	14.0320
 2.0820	14.0880
 2.0830	14.1770
 2.0840	14.2410
 2.0850	14.2810
 2.0860	14.3370
 2.0870	14.3990
 2.0880	14.4560
 2.0890	14.5030
 2.0900	14.5550
 2.0910	14.6030
 2.0920	14.6280
 2.0930	14.6800
 2.0940	14.7600
 2.0950	14.8100
 2.0960	14.8530
 2.0970	14.8970
 2.0980	14.9120
 2.0990	14.9570
 2.1000	15.0220
 2.1010	15.0780
 2.1020	15.1460
 2.1030	15.2060
 2.1040	15.2520
 2.1050	15.3110
 2.1060	15.3670
 2.1070	15.4220
 2.1080	15.4750
 2.1090	15.5300
 2.1100	15.5750
 2.1110	15.6240
 2.1120	15.6490
 2.1130	15.6440
 2.1140	15.6670
 2.1150	15.6800
 2.1160	15.7090
 2.1170	15.7740
 2.1180	15.8170
 2.1190	15.8530
 2.1200	15.8900
 2.1210	15.9120
 2.1220	15.9510
 2.1230	15.9970
 2.1240	16.0560
 2.1250	16.0970
 2.1260	16.1500
 2.1270	16.1750
 2.1280	16.1650
 2.1290	16.1920
 2.1300	16.2210
 2.1310	16.2610
 2.1320	16.3340
 2.1330	16.3800
 2.1340	16.4220
 2.1350	16.4510
 2.1360	16.4680
 2.1370	16.4840
 2.1380	16.4840
 2.1390	16.4910
 2.1400	16.5070
 2.1410	16.5060
 2.1420	16.5150
 2.1430	16.5250
 2.1440	16.5440
 2.1450	16.5570
 2.1460	16.5940
 2.1470	16.6650
 2.1480	16.6950
 2.1490	16.7200
 2.1500	16.7440
 2.1510	16.7370
 2.1520	16.7510
 2.1530	16.7900
 2.1540	16.8100
 2.1550	16.8160
 2.1560	16.8300
 2.1570	16.8400
 2.1580	16.8520
 2.1590	16.8670
 2.1600	16.8830
 2.1610	16.9080
 2.1620	16.9540
 2.1630	16.9990
 2.1640	17.0730
 2.1650	17.1080
 2.1660	17.1310
 2.1670	17.1480
 2.1680	17.1370
 2.1690	17.1510
 2.1700	17.1810
 2.1710	17.1930
 2.1720	17.2090
 2.1730	17.2140
 2.1740	17.1740
 2.1750	17.1870
 2.1760	17.2370
 2.1770	17.2690
 2.1780	17.3440
 2.1790	17.3790
 2.1800	17.3600
 2.1810	17.3660
 2.1820	17.3810
 2.1830	17.3780
 2.1840	17.3950
 2.1850	17.4350
 2.1860	17.4560
 2.1870	17.4710
 2.1880	17.4860
 2.1890	17.4870
 2.1900	17.5100
 2.1910	17.5340
 2.1920	17.5760
 2.1930	17.6630
 2.1940	17.7010
 2.1950	17.7300
 2.1960	17.7460
 2.1970	17.7150
 2.1980	17.7130
 2.1990	17.7280
 2.2000	17.7300
 2.2010	17.7240
 2.2020	17.7300
 2.2030	17.7330
 2.2040	17.7440
 2.2050	17.7810
 2.2060	17.8010
 2.2070	17.8200
 2.2080	17.8390
 2.2090	17.8430
 2.2100	17.8360
 2.2110	17.8310
 2.2120	17.8150
 2.2130	17.7990
 2.2140	17.7820
 2.2150	17.7670
 2.2160	17.7520
 2.2170	17.7250
 2.2180	17.6790
 2.2190	17.6630
 2.2200	17.6540
 2.2210	17.6480
 2.2220	17.6650
 2.2230	17.6780
 2.2240	17.7000
 2.2250	17.6970
 2.2260	17.6970
 2.2270	17.6830
 2.2280	17.6460
 2.2290	17.5970
 2.2300	17.5350
 2.2310	17.4630
 2.2320	17.4100
 2.2330	17.3440
 2.2340	17.2950
 2.2350	17.2730
 2.2360	17.2310
 2.2370	17.1850
 2.2380	17.1240
 2.2390	17.0560
 2.2400	16.9790
 2.2410	16.8660
 2.2420	16.8000
 2.2430	16.7600
 2.2440	16.7050
 2.2450	16.6700
 2.2460	16.6150
 2.2470	16.5200
 2.2480	16.4730
 2.2490	16.4500
 2.2500	16.4230
 2.2510	16.4290
 2.2520	16.4070
 2.2530	16.3640
 2.2540	16.3250
 2.2550	16.2760
 2.2560	16.2340
 2.2570	16.2100
 2.2580	16.1600
 2.2590	16.0850
 2.2600	16.0300
 2.2610	15.9750
 2.2620	15.9060
 2.2630	15.8540
 2.2640	15.8120
 2.2650	15.7550
 2.2660	15.7080
 2.2670	15.6750
 2.2680	15.6710
 2.2690	15.6230
 2.2700	15.5760
 2.2710	15.4920
 2.2720	15.3480
 2.2730	15.2670
 2.2740	15.1760
 2.2750	15.1400
 2.2760	15.1860
 2.2770	15.1600
 2.2780	15.1280
 2.2790	15.0930
 2.2800	15.0120
 2.2810	14.9650
 2.2820	14.9510
 2.2830	14.9100
 2.2840	14.8590
 2.2850	14.8110
 2.2860	14.7600
 2.2870	14.6990
 2.2880	14.6340
 2.2890	14.5720
 2.2900	14.4940
 2.2910	14.4270
 2.2920	14.3700
 2.2930	14.3070
 2.2940	14.2510
 2.2950	14.1860
 2.2960	14.1090
 2.2970	14.0390
 2.2980	13.9720
 2.2990	13.8910
 2.3000	13.8400
 2.3010	13.7940
 2.3020	13.7140
 2.3030	13.6660
 2.3040	13.6000
 2.3050	13.5080
 2.3060	13.4620
 2.3070	13.4170
 2.3080	13.3860
 2.3090	13.3810
 2.3100	13.3810
 2.3110	13.3920
 2.3120	13.3790
 2.3130	13.3630
 2.3140	13.3500
 2.3150	13.3080
 2.3160	13.3040
 2.3170	13.3290
 2.3180	13.3240
 2.3190	13.3230
 2.3200	13.3290
 2.3210	13.3380
 2.3220	13.3320
 2.3230	13.3370
 2.3240	13.3070
 2.3250	13.2140
 2.3260	13.1820
 2.3270	13.1780
 2.3280	13.1460
 2.3290	13.1400
 2.3300	13.1120
 2.3310	13.0320
 2.3320	13.0000
 2.3330	12.9910
 2.3340	12.9750
 2.3350	12.9980
 2.3360	12.9610
 2.3370	12.8950
 2.3380	12.8140
 2.3390	12.6720
 2.3400	12.5800
 2.3410	12.4970
 2.3420	12.4330
 2.3430	12.4170
 2.3440	12.3630
 2.3450	12.2780
 2.3460	12.2300
 2.3470	12.1750
 2.3480	12.1440
 2.3490	12.1850
 2.3500	12.1660
 2.3510	12.1090
 2.3520	12.0760
 2.3530	12.0110
 2.3540	11.9820
 2.3550	12.0110
 2.3560	12.0640
 2.3570	12.0640
 2.3580	12.0390
 2.3590	12.0320
 2.3600	11.9690
 2.3610	11.9360
 2.3620	11.9550
 2.3630	11.9170
 2.3640	11.8870
 2.3650	11.8960
 2.3660	11.8850
 2.3670	11.8690
 2.3680	11.8620
 2.3690	11.8190
 2.3700	11.7660
 2.3710	11.6990
 2.3720	11.6600
 2.3730	11.6680
 2.3740	11.6770
 2.3750	11.7020
 2.3760	11.6860
 2.3770	11.6660
 2.3780	11.6410
 2.3790	11.6000
 2.3800	11.6030
 2.3810	11.5610
 2.3820	11.4600
 2.3830	11.4030
 2.3840	11.3290
 2.3850	11.2550
 2.3860	11.2190
 2.3870	11.1140
 2.3880	11.0690
 2.3890	11.1180
 2.3900	11.1390
 2.3910	11.1780
 2.3920	11.1880
 2.3930	11.0410
 2.3940	10.9160
 2.3950	10.9060
 2.3960	10.8150
 2.3970	10.7860
 2.3980	10.7460
 2.3990	10.5770
 2.4000	10.4990
 2.4010	10.4530
 2.4020	10.4350
 2.4030	10.4950
 2.4040	10.5550
 2.4050	10.5820
 2.4060	10.5460
 2.4070	10.4680
 2.4080	10.3520
 2.4090	10.2650
 2.4100	10.2570
 2.4110	10.2210
 2.4120	10.2600
 2.4130	10.3080
 2.4140	10.2430
 2.4150	10.2350
 2.4160	10.2170
 2.4170	10.1400
 2.4180	10.1180
 2.4190	10.0730
 2.4200	 9.9820
 2.4210	 9.9090
 2.4220	 9.8080
 2.4230	 9.7580
 2.4240	 9.7430
 2.4250	 9.7050
 2.4260	 9.7030
 2.4270	 9.6770
 2.4280	 9.6560
 2.4290	 9.6470
 2.4300	 9.5820
 2.4310	 9.5530
 2.4320	 9.4690
 2.4330	 9.3410
 2.4340	 9.3300
 2.4350	 9.3500
 2.4360	 9.3700
 2.4370	 9.3090
 2.4380	 9.2780
 2.4390	 9.2320
 2.4400	 9.0980
 2.4410	 9.2390
 2.4420	 9.3260
 2.4430	 9.2530
 2.4440	 9.2360
 2.4450	 8.9630
 2.4460	 8.6890
 2.4470	 8.5860
 2.4480	 8.5080
 2.4490	 8.6380
 2.4500	 8.8220
 2.4510	 8.8450
 2.4520	 8.8460
 2.4530	 8.6720
 2.4540	 8.5050
 2.4550	 8.5810
 2.4560	 8.5260
 2.4570	 8.6320
 2.4580	 8.7380
 2.4590	 8.4820
 2.4600	 8.5210
 2.4610	 8.6010
 2.4620	 8.5940
 2.4630	 8.8410
 2.4640	 8.9190
 2.4650	 8.8910
 2.4660	 8.8530
 2.4670	 8.7450
 2.4680	 8.6860
 2.4690	 8.5680
 2.4700	 8.4630
 2.4710	 8.2520
 2.4720	 8.2230
 2.4730	 8.2940
 2.4740	 8.3520
 2.4750	 8.6200
 2.4760	 8.7220
 2.4770	 8.8270
 2.4780	 8.8150
 2.4790	 8.5790
 2.4800	 8.3980
 2.4810	 8.0110
 2.4820	 7.8550
 2.4830	 7.9690
 2.4840	 8.2540
 2.4850	 8.4260
 2.4860	 8.4330
 2.4870	 8.4290
 2.4880	 8.3110
 2.4890	 8.3290
 2.4900	 8.4900
 2.4910	 8.4070
 2.4920	 8.3180
 2.4930	 8.1120
 2.4940	 7.9550
 2.4950	 8.2120
 2.4960	 8.6290
 2.4970	 9.1430
 2.4980	 9.2760
 2.4990	 9.1650
 2.5000	 8.8450
