Name: Baccharis pilularis 3
Type: vegetation
Class: Shrub
Genus: Baccharis
Species: pilularis
Sample No.: VH048
Owner: UCSB
Wavelength Range: TIR
Origin: 34.5088; -119.7683; WGS84
Collection Date: 4/1/2013
Description: Samples were collected as part of the HyspIRI Airborne Campaign. 48 individual plants were sampled in three times in 2013 - spring  summer  and fall. The name of the sample includes a 1  2  or 3 which references a different individual of the species. Samples were taken to JPL and processed within 48 hours of collection. The same leaves were processed in the Nicolet and then measured using the ASD.
Measurement: Hemispherical reflectance
First Column: X
Second Column: Y
X Units: Wavelength (micrometers)
Y Units: Reflectance (percentage)
First X Value: 2.501
Last X Value: 15.387
Number of X Values: 1737
Additional Information: vegetation.shrub.baccharis.pilularis.tir.vh048.ucsb.nicolet.ancillary.txt

 2.5010	 5.9090
 2.5030	 5.8900
 2.5040	 5.8340
 2.5050	 5.7990
 2.5060	 5.8600
 2.5070	 5.7420
 2.5090	 5.7090
 2.5100	 5.7920
 2.5110	 5.8430
 2.5120	 5.6860
 2.5140	 5.7560
 2.5150	 5.8650
 2.5160	 5.9350
 2.5170	 5.8040
 2.5180	 5.7990
 2.5200	 5.8950
 2.5210	 5.7790
 2.5220	 5.6500
 2.5230	 5.7350
 2.5250	 5.8950
 2.5260	 6.0300
 2.5270	 5.9360
 2.5280	 5.9090
 2.5290	 5.9890
 2.5310	 6.0260
 2.5320	 5.9330
 2.5330	 5.9790
 2.5340	 5.8910
 2.5360	 5.8280
 2.5370	 5.8740
 2.5380	 5.8910
 2.5390	 5.9050
 2.5410	 6.0690
 2.5420	 6.1040
 2.5430	 6.1250
 2.5440	 5.9840
 2.5460	 6.0710
 2.5470	 6.1050
 2.5480	 6.0420
 2.5490	 5.8950
 2.5510	 5.8630
 2.5520	 5.9730
 2.5530	 6.0050
 2.5540	 5.8920
 2.5560	 5.9870
 2.5570	 5.9070
 2.5580	 5.8010
 2.5590	 5.9250
 2.5610	 5.9960
 2.5620	 5.9390
 2.5630	 6.0370
 2.5640	 6.1770
 2.5660	 6.3150
 2.5670	 6.0950
 2.5680	 5.9840
 2.5700	 5.8610
 2.5710	 5.9800
 2.5720	 6.0380
 2.5730	 6.0280
 2.5750	 5.9820
 2.5760	 6.0000
 2.5770	 6.0430
 2.5790	 6.1200
 2.5800	 6.0990
 2.5810	 5.9930
 2.5820	 5.8990
 2.5840	 6.1190
 2.5850	 6.1490
 2.5860	 6.0760
 2.5880	 5.9500
 2.5890	 5.9880
 2.5900	 5.9490
 2.5910	 5.8580
 2.5930	 5.9670
 2.5940	 5.9480
 2.5950	 5.8110
 2.5970	 5.9160
 2.5980	 6.0770
 2.5990	 6.2050
 2.6000	 6.1320
 2.6020	 6.0600
 2.6030	 6.0460
 2.6040	 6.0270
 2.6060	 6.1060
 2.6070	 6.2590
 2.6080	 6.0910
 2.6100	 6.0520
 2.6110	 5.9900
 2.6120	 5.8950
 2.6140	 5.9310
 2.6150	 6.1390
 2.6160	 5.9810
 2.6180	 5.8590
 2.6190	 5.9740
 2.6200	 6.2380
 2.6220	 6.2000
 2.6230	 6.1510
 2.6240	 6.0100
 2.6260	 6.0190
 2.6270	 6.0790
 2.6280	 6.0660
 2.6300	 6.0050
 2.6310	 5.9960
 2.6320	 5.9670
 2.6340	 5.9940
 2.6350	 5.9860
 2.6360	 5.9980
 2.6380	 5.8940
 2.6390	 5.9250
 2.6400	 5.9920
 2.6420	 6.0380
 2.6430	 5.9660
 2.6440	 5.8320
 2.6460	 5.7580
 2.6470	 5.8750
 2.6480	 5.9860
 2.6500	 6.0540
 2.6510	 6.0500
 2.6520	 6.1160
 2.6540	 5.9690
 2.6550	 5.9180
 2.6560	 5.7760
 2.6580	 5.7900
 2.6590	 5.8710
 2.6610	 5.9060
 2.6620	 5.6480
 2.6630	 5.7800
 2.6650	 5.9940
 2.6660	 5.9280
 2.6670	 5.6980
 2.6690	 5.6780
 2.6700	 5.6980
 2.6720	 5.8310
 2.6730	 5.8450
 2.6740	 5.8110
 2.6760	 5.7920
 2.6770	 5.8830
 2.6780	 5.7670
 2.6800	 5.8010
 2.6810	 5.8220
 2.6830	 5.8330
 2.6840	 5.8270
 2.6850	 5.9210
 2.6870	 5.7400
 2.6880	 5.7270
 2.6900	 5.7050
 2.6910	 5.6630
 2.6920	 5.5990
 2.6940	 5.6970
 2.6950	 5.7250
 2.6970	 5.7390
 2.6980	 5.7040
 2.6990	 5.7170
 2.7010	 5.5590
 2.7020	 5.3850
 2.7040	 5.3100
 2.7050	 5.2810
 2.7060	 5.3360
 2.7080	 5.4590
 2.7090	 5.3740
 2.7110	 5.2610
 2.7120	 5.2050
 2.7130	 5.1630
 2.7150	 5.0760
 2.7160	 5.1010
 2.7180	 5.0100
 2.7190	 4.8970
 2.7210	 4.8120
 2.7220	 4.8450
 2.7230	 4.7990
 2.7250	 4.8140
 2.7260	 4.7470
 2.7280	 4.6730
 2.7290	 4.6110
 2.7310	 4.6660
 2.7320	 4.4560
 2.7330	 4.2580
 2.7350	 4.2150
 2.7360	 4.4060
 2.7380	 4.4890
 2.7390	 4.4110
 2.7410	 4.2000
 2.7420	 4.1120
 2.7440	 4.1190
 2.7450	 4.0450
 2.7470	 3.9350
 2.7480	 3.8130
 2.7490	 3.8400
 2.7510	 4.0020
 2.7520	 4.0260
 2.7540	 3.8650
 2.7550	 3.6080
 2.7570	 3.6380
 2.7580	 3.6950
 2.7600	 3.7630
 2.7610	 3.7420
 2.7630	 3.7660
 2.7640	 3.7680
 2.7660	 3.6900
 2.7670	 3.5040
 2.7680	 3.4200
 2.7700	 3.4240
 2.7710	 3.4900
 2.7730	 3.4680
 2.7740	 3.4790
 2.7760	 3.3450
 2.7770	 3.4150
 2.7790	 3.5130
 2.7800	 3.5980
 2.7820	 3.4850
 2.7830	 3.4390
 2.7850	 3.5430
 2.7860	 3.3850
 2.7880	 3.2410
 2.7890	 3.4800
 2.7910	 3.3240
 2.7920	 3.1490
 2.7940	 3.1230
 2.7950	 3.2860
 2.7970	 3.3030
 2.7980	 3.3480
 2.8000	 3.3150
 2.8010	 3.3090
 2.8030	 3.1750
 2.8040	 3.1810
 2.8060	 3.0720
 2.8070	 3.1530
 2.8090	 3.0520
 2.8110	 3.0870
 2.8120	 3.0440
 2.8140	 2.9830
 2.8150	 2.9590
 2.8170	 3.0750
 2.8180	 3.0900
 2.8200	 3.1000
 2.8210	 3.0070
 2.8230	 3.1170
 2.8240	 3.2100
 2.8260	 3.2950
 2.8270	 3.0480
 2.8290	 2.9310
 2.8300	 2.9620
 2.8320	 3.2030
 2.8340	 3.2320
 2.8350	 3.2320
 2.8370	 3.2270
 2.8380	 3.1640
 2.8400	 2.9260
 2.8410	 2.8960
 2.8430	 2.8620
 2.8440	 2.9590
 2.8460	 2.9900
 2.8480	 3.0200
 2.8490	 3.0530
 2.8510	 3.1390
 2.8520	 3.0410
 2.8540	 2.9720
 2.8550	 2.9460
 2.8570	 3.0080
 2.8590	 3.1400
 2.8600	 3.2240
 2.8620	 3.1090
 2.8630	 3.0590
 2.8650	 2.9700
 2.8660	 2.9670
 2.8680	 2.9830
 2.8700	 2.8380
 2.8710	 2.7610
 2.8730	 2.9760
 2.8740	 3.0400
 2.8760	 3.0510
 2.8780	 2.8780
 2.8790	 2.8540
 2.8810	 2.8560
 2.8820	 2.9340
 2.8840	 2.9890
 2.8860	 3.1040
 2.8870	 3.0280
 2.8890	 2.8770
 2.8900	 2.7770
 2.8920	 2.9070
 2.8940	 3.0390
 2.8950	 3.1380
 2.8970	 3.0610
 2.8980	 2.9290
 2.9000	 2.7890
 2.9020	 2.8570
 2.9030	 2.9580
 2.9050	 2.9810
 2.9070	 3.0060
 2.9080	 3.0490
 2.9100	 3.0260
 2.9120	 2.9930
 2.9130	 3.0200
 2.9150	 2.9000
 2.9160	 2.8260
 2.9180	 3.1340
 2.9200	 3.0960
 2.9210	 2.9910
 2.9230	 3.0180
 2.9250	 2.9950
 2.9260	 2.8950
 2.9280	 2.9460
 2.9300	 2.9510
 2.9310	 2.9240
 2.9330	 2.9520
 2.9350	 2.9840
 2.9360	 2.8770
 2.9380	 2.8350
 2.9400	 2.7590
 2.9410	 2.8190
 2.9430	 2.8940
 2.9450	 2.9280
 2.9460	 3.0440
 2.9480	 3.0770
 2.9500	 2.9230
 2.9510	 2.7480
 2.9530	 2.9420
 2.9550	 3.1820
 2.9560	 2.7740
 2.9580	 2.5430
 2.9600	 2.5470
 2.9610	 2.8040
 2.9630	 3.2830
 2.9650	 3.4050
 2.9660	 3.2860
 2.9680	 3.1510
 2.9700	 2.5850
 2.9720	 2.3830
 2.9730	 2.6920
 2.9750	 3.3930
 2.9770	 3.3070
 2.9780	 3.1680
 2.9800	 3.2880
 2.9820	 3.1430
 2.9840	 2.9340
 2.9850	 3.1700
 2.9870	 3.2460
 2.9890	 2.9970
 2.9900	 3.0170
 2.9920	 3.4880
 2.9940	 3.4160
 2.9960	 2.9750
 2.9970	 2.6470
 2.9990	 2.5720
 3.0010	 2.2480
 3.0030	 2.4440
 3.0040	 2.7840
 3.0060	 2.8430
 3.0080	 2.7980
 3.0100	 3.0010
 3.0110	 3.2020
 3.0130	 3.7570
 3.0150	 3.5610
 3.0170	 2.4980
 3.0180	 2.0730
 3.0200	 2.7040
 3.0220	 2.8650
 3.0240	 2.8180
 3.0250	 2.9030
 3.0270	 2.9320
 3.0290	 2.6720
 3.0310	 2.5540
 3.0320	 2.8970
 3.0340	 3.0880
 3.0360	 2.9990
 3.0380	 3.0580
 3.0400	 3.0640
 3.0410	 3.2950
 3.0430	 3.2980
 3.0450	 3.0190
 3.0470	 2.7790
 3.0480	 2.3230
 3.0500	 2.5150
 3.0520	 3.2710
 3.0540	 3.7220
 3.0560	 3.9180
 3.0570	 3.9890
 3.0590	 3.6910
 3.0610	 3.0000
 3.0630	 2.7580
 3.0650	 2.7470
 3.0660	 2.9610
 3.0680	 3.0230
 3.0700	 3.1790
 3.0720	 3.2070
 3.0740	 3.1810
 3.0760	 2.8490
 3.0770	 2.9190
 3.0790	 3.2020
 3.0810	 3.1150
 3.0830	 2.8240
 3.0850	 3.0660
 3.0870	 3.1230
 3.0880	 3.0920
 3.0900	 3.1100
 3.0920	 3.1800
 3.0940	 2.9360
 3.0960	 2.7350
 3.0980	 3.0480
 3.0990	 3.1490
 3.1010	 2.8070
 3.1030	 2.9030
 3.1050	 3.1360
 3.1070	 3.2130
 3.1090	 3.1170
 3.1110	 3.1370
 3.1120	 3.2410
 3.1140	 3.4080
 3.1160	 3.3420
 3.1180	 3.2160
 3.1200	 3.0750
 3.1220	 3.1540
 3.1240	 3.2320
 3.1260	 3.0830
 3.1270	 2.9040
 3.1290	 2.9490
 3.1310	 2.9850
 3.1330	 3.0250
 3.1350	 3.1650
 3.1370	 3.5570
 3.1390	 3.4290
 3.1410	 3.4540
 3.1430	 3.6030
 3.1450	 3.3360
 3.1460	 3.0720
 3.1480	 3.3240
 3.1500	 3.5190
 3.1520	 3.4750
 3.1540	 3.3660
 3.1560	 3.3630
 3.1580	 2.9320
 3.1600	 3.1900
 3.1620	 3.7770
 3.1640	 3.3910
 3.1660	 3.0180
 3.1680	 3.3450
 3.1700	 3.3130
 3.1710	 2.8210
 3.1730	 2.7860
 3.1750	 2.9580
 3.1770	 3.2630
 3.1790	 3.8340
 3.1810	 3.8600
 3.1830	 3.3940
 3.1850	 2.7840
 3.1870	 2.5880
 3.1890	 2.8730
 3.1910	 3.4400
 3.1930	 3.6980
 3.1950	 3.6080
 3.1970	 3.4400
 3.1990	 3.4320
 3.2010	 3.4340
 3.2030	 3.4200
 3.2050	 3.2530
 3.2070	 3.1940
 3.2090	 3.1620
 3.2110	 3.2440
 3.2130	 3.3930
 3.2150	 3.4350
 3.2170	 3.3980
 3.2190	 3.5230
 3.2210	 3.5540
 3.2230	 3.5010
 3.2250	 3.5410
 3.2270	 3.6450
 3.2290	 3.5770
 3.2310	 3.6520
 3.2330	 3.7000
 3.2350	 3.7290
 3.2370	 3.5940
 3.2390	 3.5670
 3.2410	 3.7770
 3.2430	 3.8140
 3.2450	 3.6930
 3.2470	 3.5910
 3.2490	 3.5480
 3.2510	 3.6170
 3.2530	 3.6260
 3.2550	 3.5670
 3.2570	 3.5910
 3.2590	 3.7380
 3.2610	 3.7920
 3.2630	 3.7500
 3.2650	 3.6470
 3.2670	 3.5340
 3.2690	 3.5000
 3.2720	 3.4920
 3.2740	 3.4990
 3.2760	 3.7050
 3.2780	 3.7550
 3.2800	 3.7630
 3.2820	 3.7060
 3.2840	 3.7390
 3.2860	 3.7190
 3.2880	 3.7490
 3.2900	 3.7480
 3.2920	 3.6750
 3.2940	 3.6250
 3.2960	 3.7570
 3.2990	 3.7330
 3.3010	 3.7490
 3.3030	 3.8250
 3.3050	 3.8740
 3.3070	 3.7390
 3.3090	 3.7070
 3.3110	 3.7260
 3.3130	 3.7040
 3.3150	 3.6020
 3.3180	 3.5730
 3.3200	 3.7190
 3.3220	 3.7380
 3.3240	 3.6730
 3.3260	 3.7600
 3.3280	 3.7890
 3.3300	 3.8180
 3.3330	 3.7230
 3.3350	 3.6670
 3.3370	 3.5670
 3.3390	 3.4910
 3.3410	 3.4750
 3.3430	 3.5540
 3.3450	 3.6560
 3.3480	 3.7780
 3.3500	 3.7010
 3.3520	 3.6650
 3.3540	 3.4440
 3.3560	 3.3600
 3.3580	 3.5180
 3.3610	 3.5120
 3.3630	 3.4120
 3.3650	 3.5160
 3.3670	 3.4600
 3.3690	 3.4200
 3.3720	 3.3860
 3.3740	 3.3520
 3.3760	 3.2920
 3.3780	 3.2580
 3.3800	 3.2560
 3.3830	 3.3040
 3.3850	 3.2700
 3.3870	 3.2990
 3.3890	 3.2530
 3.3910	 3.2870
 3.3940	 3.2240
 3.3960	 3.1420
 3.3980	 3.1390
 3.4000	 3.1850
 3.4020	 3.2440
 3.4050	 3.2670
 3.4070	 3.3180
 3.4090	 3.4480
 3.4110	 3.5470
 3.4140	 3.6750
 3.4160	 3.8150
 3.4180	 4.0360
 3.4200	 4.2210
 3.4230	 4.5490
 3.4250	 4.9640
 3.4270	 5.4370
 3.4290	 5.5550
 3.4320	 5.2630
 3.4340	 4.7960
 3.4360	 4.4470
 3.4390	 4.1380
 3.4410	 3.9960
 3.4430	 3.9280
 3.4450	 3.9860
 3.4480	 3.8560
 3.4500	 3.7980
 3.4520	 4.0100
 3.4550	 4.1860
 3.4570	 4.1110
 3.4590	 3.9920
 3.4620	 3.8780
 3.4640	 3.7840
 3.4660	 3.7080
 3.4680	 3.7420
 3.4710	 3.8630
 3.4730	 3.9890
 3.4750	 3.9080
 3.4780	 3.8350
 3.4800	 3.6930
 3.4820	 3.6790
 3.4850	 3.6440
 3.4870	 3.6010
 3.4890	 3.5470
 3.4920	 3.6070
 3.4940	 3.6100
 3.4970	 3.7380
 3.4990	 3.7890
 3.5010	 3.8040
 3.5040	 4.0670
 3.5060	 4.6110
 3.5080	 5.2030
 3.5110	 5.5550
 3.5130	 5.2780
 3.5160	 4.9860
 3.5180	 4.7230
 3.5200	 4.4430
 3.5230	 4.2750
 3.5250	 4.3300
 3.5270	 4.4230
 3.5300	 4.6160
 3.5320	 4.5010
 3.5350	 4.3100
 3.5370	 4.1900
 3.5400	 4.2870
 3.5420	 4.3000
 3.5440	 4.3450
 3.5470	 4.4570
 3.5490	 4.5030
 3.5520	 4.3700
 3.5540	 4.2840
 3.5570	 4.3310
 3.5590	 4.4690
 3.5610	 4.4680
 3.5640	 4.4630
 3.5660	 4.5200
 3.5690	 4.7010
 3.5710	 4.6040
 3.5740	 4.5620
 3.5760	 4.6340
 3.5790	 4.6850
 3.5810	 4.5750
 3.5840	 4.5800
 3.5860	 4.6370
 3.5890	 4.6420
 3.5910	 4.6270
 3.5930	 4.5900
 3.5960	 4.4940
 3.5980	 4.4770
 3.6010	 4.4610
 3.6030	 4.4870
 3.6060	 4.5500
 3.6080	 4.5720
 3.6110	 4.5420
 3.6140	 4.6330
 3.6160	 4.5850
 3.6190	 4.5420
 3.6210	 4.5410
 3.6240	 4.5600
 3.6260	 4.5510
 3.6290	 4.5800
 3.6310	 4.4980
 3.6340	 4.4750
 3.6360	 4.5330
 3.6390	 4.5870
 3.6410	 4.5640
 3.6440	 4.5380
 3.6470	 4.5830
 3.6490	 4.5670
 3.6520	 4.5190
 3.6540	 4.5960
 3.6570	 4.5410
 3.6590	 4.5250
 3.6620	 4.6000
 3.6650	 4.6270
 3.6670	 4.6040
 3.6700	 4.5670
 3.6720	 4.5680
 3.6750	 4.6330
 3.6780	 4.5980
 3.6800	 4.6430
 3.6830	 4.6150
 3.6850	 4.5870
 3.6880	 4.6080
 3.6910	 4.7110
 3.6930	 4.7320
 3.6960	 4.7110
 3.6990	 4.6320
 3.7010	 4.6390
 3.7040	 4.6540
 3.7060	 4.7050
 3.7090	 4.7480
 3.7120	 4.7390
 3.7140	 4.7260
 3.7170	 4.8010
 3.7200	 4.7740
 3.7220	 4.7630
 3.7250	 4.6640
 3.7280	 4.6180
 3.7300	 4.6950
 3.7330	 4.8510
 3.7360	 4.8950
 3.7390	 4.8500
 3.7410	 4.8150
 3.7440	 4.8730
 3.7470	 4.9280
 3.7490	 4.9150
 3.7520	 4.8710
 3.7550	 4.9190
 3.7580	 4.9360
 3.7600	 4.9440
 3.7630	 4.9680
 3.7660	 5.0180
 3.7680	 4.9020
 3.7710	 4.8590
 3.7740	 4.8700
 3.7770	 4.9570
 3.7790	 4.9180
 3.7820	 4.9570
 3.7850	 4.9720
 3.7880	 4.9660
 3.7900	 4.9870
 3.7930	 5.0320
 3.7960	 5.0340
 3.7990	 5.0300
 3.8020	 4.9980
 3.8040	 5.0140
 3.8070	 5.0890
 3.8100	 5.1200
 3.8130	 5.0990
 3.8160	 5.0990
 3.8180	 5.1090
 3.8210	 5.1750
 3.8240	 5.0460
 3.8270	 5.0000
 3.8300	 5.0400
 3.8330	 5.0550
 3.8350	 4.9600
 3.8380	 4.8930
 3.8410	 4.9700
 3.8440	 4.9620
 3.8470	 4.9520
 3.8500	 5.0770
 3.8520	 5.1370
 3.8550	 5.2010
 3.8580	 5.2470
 3.8610	 5.1530
 3.8640	 5.0400
 3.8670	 5.1320
 3.8700	 5.1770
 3.8730	 5.1520
 3.8750	 5.1400
 3.8780	 5.2060
 3.8810	 5.1530
 3.8840	 5.1130
 3.8870	 5.1090
 3.8900	 5.2060
 3.8930	 5.3810
 3.8960	 5.3970
 3.8990	 5.2600
 3.9020	 5.1750
 3.9050	 5.1580
 3.9080	 5.2310
 3.9110	 5.2430
 3.9140	 5.2490
 3.9160	 5.2200
 3.9190	 5.2370
 3.9220	 5.1900
 3.9250	 5.1920
 3.9280	 5.1920
 3.9310	 5.1970
 3.9340	 5.2070
 3.9370	 5.1920
 3.9400	 5.1100
 3.9430	 5.1210
 3.9460	 5.1200
 3.9490	 5.1210
 3.9520	 5.0680
 3.9550	 5.1260
 3.9580	 5.2090
 3.9610	 5.2970
 3.9640	 5.2220
 3.9670	 5.1780
 3.9700	 5.1560
 3.9730	 5.1560
 3.9770	 5.2110
 3.9800	 5.2380
 3.9830	 5.2370
 3.9860	 5.2660
 3.9890	 5.2420
 3.9920	 5.1860
 3.9950	 5.2370
 3.9980	 5.2770
 4.0010	 5.2130
 4.0040	 5.2560
 4.0070	 5.3460
 4.0100	 5.4160
 4.0130	 5.3960
 4.0170	 5.4190
 4.0200	 5.3910
 4.0230	 5.3780
 4.0260	 5.3220
 4.0290	 5.2860
 4.0320	 5.2440
 4.0350	 5.2990
 4.0380	 5.3400
 4.0420	 5.3520
 4.0450	 5.3190
 4.0480	 5.3550
 4.0510	 5.4530
 4.0540	 5.4190
 4.0570	 5.3150
 4.0610	 5.3560
 4.0640	 5.3480
 4.0670	 5.3810
 4.0700	 5.4210
 4.0730	 5.5050
 4.0770	 5.4920
 4.0800	 5.3530
 4.0830	 5.3330
 4.0860	 5.4920
 4.0890	 5.5730
 4.0930	 5.5210
 4.0960	 5.4980
 4.0990	 5.5010
 4.1020	 5.4840
 4.1060	 5.4830
 4.1090	 5.4520
 4.1120	 5.5110
 4.1150	 5.4570
 4.1190	 5.3490
 4.1220	 5.3630
 4.1250	 5.4330
 4.1280	 5.4660
 4.1320	 5.4310
 4.1350	 5.4210
 4.1380	 5.4850
 4.1420	 5.4480
 4.1450	 5.4850
 4.1480	 5.5510
 4.1520	 5.5650
 4.1550	 5.5120
 4.1580	 5.4380
 4.1620	 5.4430
 4.1650	 5.4510
 4.1680	 5.4880
 4.1720	 5.4850
 4.1750	 5.4540
 4.1780	 5.4600
 4.1820	 5.4660
 4.1850	 5.5410
 4.1890	 5.5660
 4.1920	 5.6400
 4.1950	 5.6490
 4.1990	 5.6220
 4.2020	 5.6810
 4.2060	 5.7350
 4.2090	 5.7850
 4.2120	 5.9950
 4.2160	 6.0130
 4.2190	 6.1050
 4.2230	 6.2470
 4.2260	 6.3190
 4.2300	 6.4230
 4.2330	 6.6030
 4.2360	 6.2890
 4.2400	 6.3720
 4.2430	 6.6450
 4.2470	 6.4250
 4.2500	 6.1810
 4.2540	 6.0590
 4.2570	 6.0010
 4.2610	 6.1780
 4.2640	 6.2230
 4.2680	 6.0900
 4.2710	 6.2030
 4.2750	 6.3350
 4.2780	 6.1990
 4.2820	 6.2040
 4.2850	 6.0880
 4.2890	 6.0110
 4.2930	 6.1630
 4.2960	 6.1180
 4.3000	 6.0610
 4.3030	 6.2620
 4.3070	 6.3150
 4.3100	 6.2030
 4.3140	 6.0730
 4.3180	 6.0110
 4.3210	 5.9340
 4.3250	 5.9330
 4.3280	 5.8950
 4.3320	 5.8930
 4.3360	 5.8820
 4.3390	 5.7990
 4.3430	 5.7560
 4.3470	 5.7060
 4.3500	 5.6380
 4.3540	 5.6000
 4.3570	 5.6050
 4.3610	 5.6340
 4.3650	 5.6210
 4.3680	 5.5710
 4.3720	 5.5780
 4.3760	 5.6220
 4.3800	 5.6020
 4.3830	 5.5130
 4.3870	 5.5020
 4.3910	 5.5240
 4.3940	 5.4700
 4.3980	 5.4860
 4.4020	 5.4950
 4.4060	 5.4920
 4.4090	 5.5740
 4.4130	 5.5980
 4.4170	 5.5610
 4.4210	 5.6130
 4.4240	 5.5950
 4.4280	 5.5190
 4.4320	 5.4690
 4.4360	 5.4400
 4.4400	 5.4390
 4.4430	 5.5020
 4.4470	 5.4950
 4.4510	 5.3900
 4.4550	 5.3830
 4.4590	 5.4400
 4.4620	 5.4390
 4.4660	 5.4080
 4.4700	 5.4630
 4.4740	 5.5490
 4.4780	 5.4440
 4.4820	 5.3360
 4.4860	 5.3330
 4.4900	 5.3830
 4.4930	 5.4000
 4.4970	 5.4240
 4.5010	 5.3890
 4.5050	 5.3980
 4.5090	 5.3860
 4.5130	 5.3470
 4.5170	 5.3250
 4.5210	 5.3960
 4.5250	 5.3940
 4.5290	 5.4210
 4.5330	 5.4820
 4.5370	 5.4900
 4.5410	 5.4760
 4.5450	 5.4390
 4.5490	 5.4110
 4.5530	 5.3490
 4.5570	 5.2630
 4.5610	 5.3010
 4.5650	 5.3280
 4.5690	 5.2950
 4.5730	 5.3220
 4.5770	 5.3430
 4.5810	 5.2490
 4.5850	 5.2190
 4.5890	 5.2830
 4.5930	 5.3290
 4.5970	 5.3510
 4.6010	 5.3350
 4.6050	 5.2610
 4.6090	 5.2750
 4.6130	 5.2780
 4.6170	 5.1570
 4.6220	 5.1110
 4.6260	 5.1260
 4.6300	 5.1530
 4.6340	 5.1590
 4.6380	 5.1870
 4.6420	 5.1680
 4.6460	 5.1680
 4.6510	 5.1730
 4.6550	 5.1940
 4.6590	 5.1780
 4.6630	 5.1130
 4.6670	 5.0760
 4.6720	 5.0450
 4.6760	 5.0800
 4.6800	 5.1460
 4.6840	 5.1910
 4.6880	 5.1160
 4.6930	 5.0770
 4.6970	 5.1630
 4.7010	 5.1750
 4.7050	 5.1790
 4.7100	 5.1600
 4.7140	 5.1540
 4.7180	 5.1680
 4.7230	 5.1400
 4.7270	 5.0930
 4.7310	 5.1490
 4.7360	 5.2130
 4.7400	 5.2890
 4.7440	 5.3630
 4.7490	 5.2880
 4.7530	 5.1910
 4.7570	 5.2410
 4.7620	 5.3760
 4.7660	 5.3510
 4.7700	 5.2540
 4.7750	 5.3050
 4.7790	 5.3520
 4.7840	 5.3310
 4.7880	 5.2670
 4.7920	 5.2200
 4.7970	 5.2470
 4.8010	 5.2770
 4.8060	 5.2810
 4.8100	 5.2410
 4.8150	 5.2400
 4.8190	 5.2800
 4.8240	 5.3320
 4.8280	 5.2960
 4.8330	 5.1740
 4.8370	 5.1800
 4.8420	 5.2450
 4.8460	 5.2670
 4.8510	 5.2590
 4.8550	 5.3010
 4.8600	 5.3030
 4.8640	 5.2850
 4.8690	 5.2200
 4.8730	 5.1860
 4.8780	 5.2030
 4.8830	 5.2880
 4.8870	 5.3640
 4.8920	 5.3920
 4.8960	 5.4020
 4.9010	 5.3560
 4.9060	 5.3060
 4.9100	 5.3250
 4.9150	 5.3870
 4.9200	 5.3990
 4.9240	 5.3580
 4.9290	 5.3790
 4.9340	 5.4400
 4.9380	 5.4860
 4.9430	 5.4540
 4.9480	 5.4110
 4.9530	 5.3660
 4.9570	 5.3840
 4.9620	 5.3540
 4.9670	 5.3310
 4.9720	 5.3510
 4.9760	 5.3650
 4.9810	 5.4120
 4.9860	 5.5030
 4.9910	 5.5380
 4.9960	 5.5040
 5.0000	 5.4630
 5.0050	 5.4320
 5.0100	 5.4980
 5.0150	 5.5070
 5.0200	 5.4780
 5.0250	 5.5160
 5.0290	 5.5320
 5.0340	 5.4840
 5.0390	 5.4580
 5.0440	 5.4840
 5.0490	 5.5080
 5.0540	 5.5470
 5.0590	 5.5420
 5.0640	 5.5160
 5.0690	 5.5360
 5.0740	 5.5240
 5.0790	 5.4710
 5.0840	 5.4860
 5.0890	 5.5080
 5.0940	 5.5050
 5.0990	 5.4540
 5.1040	 5.4610
 5.1090	 5.4680
 5.1140	 5.4580
 5.1190	 5.4750
 5.1240	 5.4770
 5.1290	 5.4630
 5.1340	 5.5090
 5.1390	 5.5520
 5.1440	 5.4850
 5.1490	 5.4620
 5.1540	 5.5400
 5.1600	 5.5000
 5.1650	 5.4770
 5.1700	 5.5610
 5.1750	 5.5710
 5.1800	 5.5210
 5.1850	 5.4850
 5.1910	 5.4510
 5.1960	 5.4640
 5.2010	 5.5240
 5.2060	 5.5580
 5.2110	 5.4910
 5.2170	 5.4790
 5.2220	 5.4870
 5.2270	 5.5230
 5.2320	 5.5810
 5.2380	 5.5860
 5.2430	 5.5430
 5.2480	 5.5300
 5.2540	 5.4330
 5.2590	 5.4580
 5.2640	 5.5350
 5.2700	 5.5430
 5.2750	 5.4810
 5.2800	 5.4740
 5.2860	 5.4750
 5.2910	 5.4940
 5.2970	 5.4390
 5.3020	 5.4350
 5.3070	 5.4280
 5.3130	 5.4820
 5.3180	 5.4890
 5.3240	 5.4380
 5.3290	 5.4620
 5.3350	 5.4840
 5.3400	 5.4070
 5.3460	 5.4250
 5.3510	 5.3640
 5.3570	 5.2800
 5.3620	 5.3040
 5.3680	 5.4360
 5.3730	 5.5190
 5.3790	 5.4880
 5.3850	 5.4370
 5.3900	 5.4620
 5.3960	 5.4100
 5.4010	 5.3820
 5.4070	 5.3900
 5.4130	 5.4060
 5.4180	 5.4060
 5.4240	 5.3730
 5.4300	 5.3230
 5.4350	 5.2780
 5.4410	 5.2440
 5.4470	 5.2810
 5.4530	 5.3440
 5.4580	 5.3900
 5.4640	 5.2900
 5.4700	 5.1600
 5.4760	 5.1500
 5.4810	 5.2170
 5.4870	 5.1720
 5.4930	 5.1430
 5.4990	 5.1340
 5.5050	 5.1600
 5.5110	 5.1790
 5.5160	 5.1850
 5.5220	 5.0920
 5.5280	 5.0540
 5.5340	 5.0690
 5.5400	 5.0210
 5.5460	 4.9420
 5.5520	 4.9340
 5.5580	 4.8830
 5.5640	 4.8430
 5.5700	 4.8800
 5.5760	 4.8860
 5.5820	 4.7740
 5.5880	 4.7390
 5.5940	 4.6990
 5.6000	 4.6990
 5.6060	 4.6180
 5.6120	 4.5680
 5.6180	 4.4590
 5.6240	 4.4620
 5.6300	 4.4850
 5.6360	 4.4350
 5.6420	 4.2760
 5.6490	 4.2330
 5.6550	 4.1430
 5.6610	 4.0390
 5.6670	 3.9520
 5.6730	 3.8370
 5.6800	 3.6500
 5.6860	 3.5330
 5.6920	 3.4260
 5.6980	 3.3280
 5.7040	 3.1880
 5.7110	 3.1700
 5.7170	 3.1680
 5.7230	 3.0300
 5.7300	 2.8730
 5.7360	 2.8890
 5.7420	 2.9560
 5.7490	 2.9430
 5.7550	 2.9280
 5.7620	 2.9930
 5.7680	 3.0590
 5.7740	 3.1500
 5.7810	 3.2330
 5.7870	 3.3380
 5.7940	 3.3010
 5.8000	 3.3690
 5.8070	 3.3830
 5.8130	 3.3740
 5.8200	 3.3810
 5.8260	 3.4050
 5.8330	 3.4330
 5.8390	 3.5800
 5.8460	 3.6360
 5.8530	 3.7390
 5.8590	 3.8010
 5.8660	 3.8740
 5.8720	 3.8430
 5.8790	 3.8040
 5.8860	 3.7960
 5.8920	 3.8940
 5.8990	 3.8900
 5.9060	 3.9300
 5.9130	 3.9270
 5.9190	 3.9770
 5.9260	 4.0180
 5.9330	 4.1410
 5.9400	 4.2020
 5.9470	 4.1660
 5.9530	 4.0620
 5.9600	 4.0790
 5.9670	 4.1110
 5.9740	 4.0980
 5.9810	 4.0210
 5.9880	 3.9770
 5.9950	 3.7670
 6.0020	 3.7200
 6.0090	 3.7950
 6.0160	 3.8410
 6.0230	 3.8110
 6.0300	 3.8750
 6.0370	 3.8450
 6.0440	 3.8240
 6.0510	 3.7580
 6.0580	 3.7240
 6.0650	 3.6550
 6.0720	 3.7170
 6.0790	 3.6790
 6.0860	 3.6690
 6.0930	 3.7000
 6.1000	 3.6720
 6.1080	 3.6450
 6.1150	 3.8510
 6.1220	 3.7960
 6.1290	 3.6970
 6.1370	 3.6020
 6.1440	 3.6930
 6.1510	 3.7510
 6.1580	 3.8410
 6.1660	 3.7800
 6.1730	 3.7790
 6.1800	 3.8240
 6.1880	 3.8420
 6.1950	 3.8080
 6.2030	 3.9370
 6.2100	 3.9390
 6.2170	 3.9650
 6.2250	 3.8160
 6.2320	 3.8250
 6.2400	 3.8510
 6.2470	 3.9090
 6.2550	 3.9340
 6.2630	 3.9840
 6.2700	 4.0260
 6.2780	 4.0710
 6.2850	 4.0510
 6.2930	 4.1080
 6.3010	 4.0220
 6.3080	 4.0560
 6.3160	 4.1000
 6.3240	 4.1260
 6.3310	 4.1080
 6.3390	 4.1190
 6.3470	 4.0930
 6.3550	 4.1500
 6.3620	 4.1460
 6.3700	 4.1740
 6.3780	 4.1740
 6.3860	 4.2390
 6.3940	 4.1490
 6.4020	 4.1770
 6.4100	 4.1710
 6.4180	 4.1570
 6.4260	 4.1100
 6.4330	 4.1590
 6.4410	 4.0510
 6.4490	 4.0360
 6.4580	 4.0700
 6.4660	 4.0780
 6.4740	 4.0410
 6.4820	 4.1110
 6.4900	 4.0340
 6.4980	 4.0250
 6.5060	 3.9480
 6.5140	 3.9600
 6.5230	 3.9490
 6.5310	 4.0110
 6.5390	 3.9740
 6.5470	 3.9970
 6.5550	 4.0230
 6.5640	 4.0730
 6.5720	 3.9520
 6.5800	 3.9510
 6.5890	 3.9700
 6.5970	 4.0140
 6.6060	 3.9570
 6.6140	 3.9800
 6.6220	 3.9240
 6.6310	 4.0510
 6.6390	 4.1160
 6.6480	 4.2080
 6.6560	 4.1210
 6.6650	 4.0930
 6.6740	 4.0400
 6.6820	 4.0370
 6.6910	 3.9640
 6.6990	 3.9480
 6.7080	 3.8980
 6.7170	 3.7840
 6.7260	 3.6980
 6.7340	 3.7770
 6.7430	 3.6450
 6.7520	 3.6340
 6.7610	 3.5440
 6.7690	 3.5670
 6.7780	 3.4630
 6.7870	 3.5040
 6.7960	 3.4750
 6.8050	 3.4520
 6.8140	 3.3800
 6.8230	 3.3690
 6.8320	 3.4590
 6.8410	 3.5120
 6.8500	 3.3400
 6.8590	 3.3550
 6.8680	 3.3370
 6.8770	 3.3870
 6.8860	 3.3580
 6.8950	 3.4170
 6.9050	 3.4040
 6.9140	 3.4590
 6.9230	 3.4260
 6.9320	 3.4380
 6.9420	 3.3980
 6.9510	 3.4680
 6.9600	 3.3730
 6.9700	 3.3370
 6.9790	 3.2700
 6.9880	 3.3380
 6.9980	 3.3710
 7.0070	 3.4040
 7.0170	 3.3610
 7.0260	 3.3620
 7.0360	 3.2950
 7.0450	 3.3900
 7.0550	 3.4110
 7.0650	 3.4660
 7.0740	 3.3530
 7.0840	 3.4130
 7.0940	 3.4080
 7.1030	 3.3900
 7.1130	 3.2530
 7.1230	 3.3460
 7.1330	 3.3570
 7.1420	 3.4030
 7.1520	 3.3610
 7.1620	 3.3620
 7.1720	 3.2450
 7.1820	 3.2700
 7.1920	 3.2130
 7.2020	 3.2330
 7.2120	 3.2370
 7.2220	 3.2650
 7.2320	 3.1590
 7.2420	 3.1110
 7.2520	 3.0170
 7.2620	 3.0520
 7.2730	 3.1440
 7.2830	 3.2910
 7.2930	 3.1590
 7.3030	 3.1690
 7.3140	 3.1830
 7.3240	 3.2580
 7.3340	 3.2210
 7.3450	 3.2640
 7.3550	 3.2720
 7.3660	 3.3540
 7.3760	 3.2880
 7.3870	 3.2390
 7.3970	 3.1840
 7.4080	 3.2600
 7.4180	 3.1950
 7.4290	 3.2540
 7.4400	 3.2410
 7.4500	 3.2760
 7.4610	 3.1840
 7.4720	 3.2690
 7.4830	 3.2280
 7.4930	 3.2510
 7.5040	 3.1920
 7.5150	 3.1820
 7.5260	 3.1330
 7.5370	 3.2430
 7.5480	 3.2830
 7.5590	 3.2640
 7.5700	 3.1460
 7.5810	 3.1880
 7.5920	 3.1640
 7.6030	 3.1450
 7.6140	 3.0390
 7.6260	 3.1880
 7.6370	 3.2950
 7.6480	 3.3930
 7.6590	 3.2080
 7.6710	 3.2250
 7.6820	 3.2000
 7.6930	 3.1960
 7.7050	 3.1320
 7.7160	 3.2290
 7.7280	 3.1780
 7.7390	 3.1320
 7.7510	 2.9690
 7.7630	 2.9980
 7.7740	 3.0990
 7.7860	 3.2140
 7.7980	 3.0930
 7.8090	 3.1130
 7.8210	 3.1050
 7.8330	 3.1910
 7.8450	 3.0500
 7.8570	 3.0690
 7.8690	 2.9360
 7.8810	 2.9040
 7.8930	 2.9080
 7.9050	 2.9830
 7.9170	 2.9650
 7.9290	 3.1470
 7.9410	 3.0790
 7.9530	 3.0590
 7.9650	 3.0670
 7.9780	 3.2010
 7.9900	 3.1280
 8.0020	 3.1310
 8.0150	 3.0430
 8.0270	 3.1750
 8.0390	 3.0500
 8.0520	 3.0840
 8.0640	 2.9670
 8.0770	 3.0350
 8.0900	 2.9960
 8.1020	 3.1740
 8.1150	 3.1980
 8.1280	 3.3650
 8.1400	 3.2080
 8.1530	 3.1470
 8.1660	 3.1670
 8.1790	 3.2580
 8.1920	 3.0620
 8.2050	 3.1940
 8.2180	 3.2520
 8.2310	 3.2880
 8.2440	 3.0710
 8.2570	 3.1450
 8.2700	 3.1220
 8.2830	 3.2990
 8.2970	 3.2580
 8.3100	 3.3510
 8.3230	 3.3240
 8.3370	 3.3480
 8.3500	 3.1480
 8.3640	 3.1560
 8.3770	 3.2150
 8.3910	 3.3870
 8.4040	 3.3290
 8.4180	 3.4200
 8.4320	 3.1190
 8.4450	 3.1570
 8.4590	 3.1460
 8.4730	 3.1850
 8.4870	 3.1740
 8.5010	 3.2380
 8.5150	 3.1820
 8.5290	 3.2790
 8.5430	 3.2930
 8.5570	 3.4190
 8.5710	 3.2490
 8.5850	 3.3690
 8.5990	 3.4560
 8.6140	 3.6230
 8.6280	 3.4380
 8.6420	 3.5800
 8.6570	 3.5270
 8.6710	 3.4350
 8.6860	 3.3670
 8.7000	 3.6130
 8.7150	 3.5490
 8.7300	 3.5960
 8.7440	 3.3310
 8.7590	 3.3610
 8.7740	 3.2590
 8.7890	 3.3420
 8.8040	 3.2730
 8.8190	 3.3990
 8.8340	 3.3840
 8.8490	 3.5650
 8.8640	 3.2490
 8.8790	 3.2070
 8.8940	 3.1950
 8.9100	 3.2870
 8.9250	 3.2410
 8.9400	 3.4250
 8.9560	 3.4280
 8.9710	 3.5930
 8.9870	 3.3330
 9.0020	 3.2560
 9.0180	 3.3310
 9.0340	 3.6450
 9.0500	 3.6240
 9.0650	 3.6780
 9.0810	 3.4060
 9.0970	 3.3640
 9.1130	 3.3190
 9.1290	 3.5430
 9.1450	 3.4240
 9.1610	 3.4680
 9.1780	 3.4220
 9.1940	 3.6220
 9.2100	 3.5290
 9.2270	 3.6570
 9.2430	 3.4060
 9.2600	 3.4470
 9.2760	 3.4930
 9.2930	 3.6310
 9.3090	 3.5070
 9.3260	 3.5340
 9.3430	 3.4500
 9.3600	 3.7360
 9.3770	 3.5860
 9.3940	 3.5230
 9.4110	 3.4430
 9.4280	 3.6390
 9.4450	 3.4600
 9.4620	 3.5900
 9.4800	 3.7060
 9.4970	 3.7960
 9.5140	 3.6610
 9.5320	 3.5590
 9.5500	 3.3090
 9.5670	 3.6420
 9.5850	 3.6510
 9.6030	 3.7450
 9.6200	 3.7270
 9.6380	 3.8970
 9.6560	 3.7820
 9.6740	 3.8460
 9.6920	 3.6200
 9.7100	 3.7570
 9.7290	 3.7780
 9.7470	 3.9070
 9.7650	 3.8330
 9.7840	 3.9130
 9.8020	 3.7600
 9.8210	 2.9990
 9.8390	 2.5730
 9.8580	 3.6580
 9.8770	 3.6890
 9.8960	 3.7040
 9.9150	 3.6120
 9.9340	 3.7470
 9.9530	 3.5310
 9.9720	 3.5860
 9.9910	 3.6660
10.0100	 3.8960
10.0300	 3.8050
10.0490	 3.8980
10.0690	 3.7620
10.0880	 3.8380
10.1080	 3.7440
10.1280	 3.9210
10.1480	 3.8410
10.1670	 4.0180
10.1870	 3.9560
10.2070	 4.0570
10.2280	 3.9280
10.2480	 4.1090
10.2680	 4.0980
10.2890	 4.2030
10.3090	 4.0970
10.3300	 4.2810
10.3500	 4.1450
10.3710	 4.3190
10.3920	 4.3560
10.4120	 4.5460
10.4330	 4.3880
10.4540	 4.4640
10.4760	 4.4520
10.4970	 4.7040
10.5180	 4.6610
10.5390	 4.7540
10.5610	 4.6590
10.5820	 4.8140
10.6040	 4.6320
10.6260	 4.8110
10.6480	 4.7020
10.6700	 4.8160
10.6920	 4.5730
10.7140	 4.6780
10.7360	 4.7930
10.7580	 5.0210
10.7800	 4.7370
10.8030	 4.7410
10.8250	 4.6630
10.8480	 4.7990
10.8710	 4.6100
10.8940	 4.8270
10.9170	 4.5900
10.9400	 4.6360
10.9630	 4.6090
10.9860	 4.7840
11.0090	 4.6960
11.0330	 4.8040
11.0560	 4.3710
11.0800	 4.2170
11.1040	 4.3080
11.1270	 4.6170
11.1510	 4.4270
11.1750	 4.5210
11.2000	 4.2670
11.2240	 4.4010
11.2480	 4.3210
11.2730	 4.2660
11.2970	 3.8630
11.3220	 4.1170
11.3470	 4.3180
11.3720	 4.5650
11.3970	 4.4530
11.4220	 4.5690
11.4470	 4.3540
11.4720	 4.4960
11.4980	 4.3780
11.5230	 4.4270
11.5490	 4.2070
11.5750	 4.4360
11.6000	 4.4850
11.6260	 4.6730
11.6530	 4.5550
11.6790	 4.5500
11.7050	 4.3680
11.7320	 4.4330
11.7580	 4.3550
11.7850	 4.6510
11.8120	 4.5420
11.8390	 4.5380
11.8660	 4.3120
11.8930	 4.4290
11.9200	 4.3040
11.9480	 4.3670
11.9760	 4.0760
12.0030	 4.2360
12.0310	 4.1520
12.0590	 4.3560
12.0870	 4.2480
12.1150	 4.4210
12.1440	 4.0430
12.1720	 4.1700
12.2010	 4.0080
12.2300	 4.2090
12.2590	 4.1540
12.2880	 4.3420
12.3170	 3.9930
12.3460	 4.0960
12.3760	 3.9470
12.4050	 4.2130
12.4350	 4.0150
12.4650	 4.0350
12.4950	 3.7450
12.5250	 4.1060
12.5550	 4.0130
12.5860	 3.9440
12.6170	 3.4740
12.6470	 3.6720
12.6780	 3.6210
12.7090	 3.7230
12.7410	 3.5440
12.7720	 4.0110
12.8030	 3.9000
12.8350	 4.0000
12.8670	 3.8070
12.8990	 4.0010
12.9310	 3.6980
12.9640	 3.7820
12.9960	 3.4200
13.0290	 3.5370
13.0610	 3.4930
13.0940	 3.5980
13.1280	 3.2940
13.1610	 3.4980
13.1940	 3.3430
13.2280	 3.2500
13.2620	 2.9660
13.2960	 3.6190
13.3300	 3.5840
13.3640	 3.6210
13.3990	 3.2780
13.4340	 3.4200
13.4690	 3.1640
13.5040	 3.4400
13.5390	 3.1410
13.5740	 3.3260
13.6100	 3.4720
13.6460	 3.7930
13.6820	 3.3810
13.7180	 3.6980
13.7540	 4.0190
13.7910	 4.1950
13.8280	 3.3020
13.8650	 3.5260
13.9020	 3.1950
13.9390	 3.4410
13.9770	 3.1100
14.0150	 3.2820
14.0530	 2.9360
14.0910	 3.4540
14.1290	 3.3510
14.1680	 3.5200
14.2070	 3.1140
14.2460	 3.2760
14.2850	 2.6070
14.3240	 2.9080
14.3640	 2.9430
14.4040	 3.3330
14.4440	 2.6610
14.4840	 3.0470
14.5250	 2.8500
14.5660	 3.2120
14.6070	 2.9480
14.6480	 3.6150
14.6900	 3.3490
14.7310	 3.7120
14.7730	 2.9630
14.8150	 3.2450
14.8580	 2.8480
14.9010	 3.4710
14.9440	 2.8980
14.9870	 3.6190
15.0300	 3.2810
15.0740	 3.8030
15.1180	 2.8390
15.1620	 3.1610
15.2060	 2.7390
15.2510	 3.5360
15.2960	 3.2880
15.3410	 3.6140
15.3870	 2.9470
