Name: Quercus douglasii 3
Type: vegetation
Class: Tree
Genus: Quercus
Species: douglasii
Sample No.: VH177
Owner: UCSB
Wavelength Range: VSWIR
Origin: 34.7165; -120.0605; WGS84
Collection Date: 6/9/2013
Description: Samples were collected as part of the HyspIRI Airborne Campaign. 48 individual plants were sampled in three times in 2013 - spring  summer  and fall. The name of the sample includes a 1  2  or 3 which references a different individual of the species. Samples were taken to JPL and processed within 48 hours of collection. The same leaves were processed in the Nicolet and then measured using the ASD.
Measurement: Bidirectional reflectance
First Column: X
Second Column: Y
X Units: Wavelength (micrometers)
Y Units: Reflectance (percentage)
First X Value: 0.35
Last X Value: 2.5
Number of X Values: 2151
Additional Information: vegetation.tree.quercus.douglasii.vswir.vh177.ucsb.asd.ancillary.txt

 0.3500	 3.9770
 0.3510	 3.8880
 0.3520	 4.0910
 0.3530	 4.1800
 0.3540	 3.9600
 0.3550	 4.0630
 0.3560	 4.1120
 0.3570	 4.0540
 0.3580	 4.0190
 0.3590	 3.9520
 0.3600	 3.9480
 0.3610	 4.0260
 0.3620	 4.0780
 0.3630	 4.0310
 0.3640	 3.9650
 0.3650	 3.9680
 0.3660	 4.0430
 0.3670	 4.0600
 0.3680	 4.0300
 0.3690	 4.0440
 0.3700	 4.0470
 0.3710	 3.9720
 0.3720	 3.8510
 0.3730	 3.9280
 0.3740	 4.0130
 0.3750	 4.0490
 0.3760	 4.0380
 0.3770	 4.0550
 0.3780	 4.0970
 0.3790	 4.1180
 0.3800	 4.0490
 0.3810	 4.0400
 0.3820	 4.0750
 0.3830	 4.0990
 0.3840	 4.0270
 0.3850	 4.0380
 0.3860	 4.1030
 0.3870	 4.1240
 0.3880	 4.1200
 0.3890	 4.0910
 0.3900	 4.0570
 0.3910	 4.0510
 0.3920	 4.0490
 0.3930	 4.1070
 0.3940	 4.2210
 0.3950	 4.2150
 0.3960	 4.2040
 0.3970	 4.2170
 0.3980	 4.2420
 0.3990	 4.2930
 0.4000	 4.3350
 0.4010	 4.3570
 0.4020	 4.3810
 0.4030	 4.4070
 0.4040	 4.4310
 0.4050	 4.4560
 0.4060	 4.4610
 0.4070	 4.5180
 0.4080	 4.5950
 0.4090	 4.5890
 0.4100	 4.6150
 0.4110	 4.6480
 0.4120	 4.6750
 0.4130	 4.7170
 0.4140	 4.7760
 0.4150	 4.8300
 0.4160	 4.8670
 0.4170	 4.9060
 0.4180	 4.9590
 0.4190	 5.0160
 0.4200	 5.0370
 0.4210	 5.0810
 0.4220	 5.1230
 0.4230	 5.1440
 0.4240	 5.1950
 0.4250	 5.2420
 0.4260	 5.2830
 0.4270	 5.3170
 0.4280	 5.3610
 0.4290	 5.4140
 0.4300	 5.4640
 0.4310	 5.4910
 0.4320	 5.5250
 0.4330	 5.5730
 0.4340	 5.6240
 0.4350	 5.6480
 0.4360	 5.6730
 0.4370	 5.7000
 0.4380	 5.7140
 0.4390	 5.7410
 0.4400	 5.7580
 0.4410	 5.7610
 0.4420	 5.7930
 0.4430	 5.8180
 0.4440	 5.8320
 0.4450	 5.8510
 0.4460	 5.8730
 0.4470	 5.8990
 0.4480	 5.9260
 0.4490	 5.9310
 0.4500	 5.9320
 0.4510	 5.9430
 0.4520	 5.9650
 0.4530	 5.9880
 0.4540	 5.9930
 0.4550	 5.9940
 0.4560	 6.0040
 0.4570	 6.0220
 0.4580	 6.0310
 0.4590	 6.0250
 0.4600	 6.0260
 0.4610	 6.0300
 0.4620	 6.0370
 0.4630	 6.0470
 0.4640	 6.0480
 0.4650	 6.0480
 0.4660	 6.0500
 0.4670	 6.0540
 0.4680	 6.0600
 0.4690	 6.0640
 0.4700	 6.0600
 0.4710	 6.0590
 0.4720	 6.0520
 0.4730	 6.0520
 0.4740	 6.0610
 0.4750	 6.0610
 0.4760	 6.0580
 0.4770	 6.0570
 0.4780	 6.0570
 0.4790	 6.0490
 0.4800	 6.0460
 0.4810	 6.0560
 0.4820	 6.0690
 0.4830	 6.0740
 0.4840	 6.0710
 0.4850	 6.0710
 0.4860	 6.0720
 0.4870	 6.0730
 0.4880	 6.0780
 0.4890	 6.0950
 0.4900	 6.1030
 0.4910	 6.1050
 0.4920	 6.1110
 0.4930	 6.1200
 0.4940	 6.1300
 0.4950	 6.1410
 0.4960	 6.1480
 0.4970	 6.1590
 0.4980	 6.1710
 0.4990	 6.1870
 0.5000	 6.2010
 0.5010	 6.2180
 0.5020	 6.2440
 0.5030	 6.2680
 0.5040	 6.2920
 0.5050	 6.3250
 0.5060	 6.3670
 0.5070	 6.4090
 0.5080	 6.4550
 0.5090	 6.5070
 0.5100	 6.5620
 0.5110	 6.6340
 0.5120	 6.7140
 0.5130	 6.7980
 0.5140	 6.8850
 0.5150	 6.9850
 0.5160	 7.1040
 0.5170	 7.2360
 0.5180	 7.3640
 0.5190	 7.5010
 0.5200	 7.6500
 0.5210	 7.8070
 0.5220	 7.9670
 0.5230	 8.1280
 0.5240	 8.2910
 0.5250	 8.4520
 0.5260	 8.6100
 0.5270	 8.7630
 0.5280	 8.9020
 0.5290	 9.0380
 0.5300	 9.1620
 0.5310	 9.2690
 0.5320	 9.3810
 0.5330	 9.4820
 0.5340	 9.5710
 0.5350	 9.6510
 0.5360	 9.7270
 0.5370	 9.7990
 0.5380	 9.8640
 0.5390	 9.9210
 0.5400	 9.9790
 0.5410	10.0420
 0.5420	10.1080
 0.5430	10.1610
 0.5440	10.2130
 0.5450	10.2610
 0.5460	10.3030
 0.5470	10.3270
 0.5480	10.3430
 0.5490	10.3640
 0.5500	10.3870
 0.5510	10.4080
 0.5520	10.4170
 0.5530	10.4080
 0.5540	10.3910
 0.5550	10.3620
 0.5560	10.3200
 0.5570	10.2600
 0.5580	10.1900
 0.5590	10.1120
 0.5600	10.0310
 0.5610	 9.9460
 0.5620	 9.8580
 0.5630	 9.7680
 0.5640	 9.6760
 0.5650	 9.5700
 0.5660	 9.4630
 0.5670	 9.3550
 0.5680	 9.2370
 0.5690	 9.1160
 0.5700	 8.9990
 0.5710	 8.8800
 0.5720	 8.7690
 0.5730	 8.6690
 0.5740	 8.5810
 0.5750	 8.4960
 0.5760	 8.4170
 0.5770	 8.3390
 0.5780	 8.2580
 0.5790	 8.1820
 0.5800	 8.1130
 0.5810	 8.0550
 0.5820	 8.0020
 0.5830	 7.9590
 0.5840	 7.9090
 0.5850	 7.8550
 0.5860	 7.8100
 0.5870	 7.7580
 0.5880	 7.7110
 0.5890	 7.6700
 0.5900	 7.6450
 0.5910	 7.6300
 0.5920	 7.6220
 0.5930	 7.6130
 0.5940	 7.6030
 0.5950	 7.5880
 0.5960	 7.5660
 0.5970	 7.5460
 0.5980	 7.5260
 0.5990	 7.5080
 0.6000	 7.4900
 0.6010	 7.4530
 0.6020	 7.4210
 0.6030	 7.3940
 0.6040	 7.3590
 0.6050	 7.3210
 0.6060	 7.2800
 0.6070	 7.2360
 0.6080	 7.1920
 0.6090	 7.1490
 0.6100	 7.1120
 0.6110	 7.0790
 0.6120	 7.0230
 0.6130	 6.9600
 0.6140	 6.9040
 0.6150	 6.8570
 0.6160	 6.8160
 0.6170	 6.7780
 0.6180	 6.7380
 0.6190	 6.7030
 0.6200	 6.6770
 0.6210	 6.6560
 0.6220	 6.6320
 0.6230	 6.6110
 0.6240	 6.5900
 0.6250	 6.5780
 0.6260	 6.5650
 0.6270	 6.5580
 0.6280	 6.5500
 0.6290	 6.5400
 0.6300	 6.5320
 0.6310	 6.5270
 0.6320	 6.5220
 0.6330	 6.5140
 0.6340	 6.5040
 0.6350	 6.4900
 0.6360	 6.4760
 0.6370	 6.4580
 0.6380	 6.4360
 0.6390	 6.4100
 0.6400	 6.3890
 0.6410	 6.3560
 0.6420	 6.3250
 0.6430	 6.2980
 0.6440	 6.2670
 0.6450	 6.2410
 0.6460	 6.2130
 0.6470	 6.1810
 0.6480	 6.1500
 0.6490	 6.1250
 0.6500	 6.1040
 0.6510	 6.0840
 0.6520	 6.0620
 0.6530	 6.0410
 0.6540	 6.0250
 0.6550	 6.0030
 0.6560	 5.9800
 0.6570	 5.9580
 0.6580	 5.9320
 0.6590	 5.9110
 0.6600	 5.8890
 0.6610	 5.8660
 0.6620	 5.8440
 0.6630	 5.8230
 0.6640	 5.8070
 0.6650	 5.7930
 0.6660	 5.7810
 0.6670	 5.7730
 0.6680	 5.7690
 0.6690	 5.7680
 0.6700	 5.7680
 0.6710	 5.7710
 0.6720	 5.7780
 0.6730	 5.7810
 0.6740	 5.7880
 0.6750	 5.7970
 0.6760	 5.8090
 0.6770	 5.8280
 0.6780	 5.8480
 0.6790	 5.8660
 0.6800	 5.8900
 0.6810	 5.9110
 0.6820	 5.9380
 0.6830	 5.9700
 0.6840	 6.0020
 0.6850	 6.0380
 0.6860	 6.0820
 0.6870	 6.1260
 0.6880	 6.1850
 0.6890	 6.2580
 0.6900	 6.3470
 0.6910	 6.4620
 0.6920	 6.6160
 0.6930	 6.8110
 0.6940	 7.0560
 0.6950	 7.3450
 0.6960	 7.6970
 0.6970	 8.1160
 0.6980	 8.5960
 0.6990	 9.1350
 0.7000	 9.7290
 0.7010	10.3710
 0.7020	11.0570
 0.7030	11.7820
 0.7040	12.5410
 0.7050	13.3260
 0.7060	14.1330
 0.7070	14.9590
 0.7080	15.7980
 0.7090	16.6500
 0.7100	17.5080
 0.7110	18.3800
 0.7120	19.2640
 0.7130	20.1490
 0.7140	21.0400
 0.7150	21.9350
 0.7160	22.8290
 0.7170	23.7190
 0.7180	24.6080
 0.7190	25.4940
 0.7200	26.3740
 0.7210	27.2380
 0.7220	28.0930
 0.7230	28.9370
 0.7240	29.7590
 0.7250	30.5590
 0.7260	31.3370
 0.7270	32.0910
 0.7280	32.8230
 0.7290	33.5260
 0.7300	34.1990
 0.7310	34.8470
 0.7320	35.4680
 0.7330	36.0600
 0.7340	36.6240
 0.7350	37.1610
 0.7360	37.6640
 0.7370	38.1420
 0.7380	38.5990
 0.7390	39.0250
 0.7400	39.4250
 0.7410	39.8000
 0.7420	40.1530
 0.7430	40.4900
 0.7440	40.8020
 0.7450	41.0870
 0.7460	41.3500
 0.7470	41.5980
 0.7480	41.8250
 0.7490	42.0290
 0.7500	42.2270
 0.7510	42.4070
 0.7520	42.5700
 0.7530	42.7240
 0.7540	42.8610
 0.7550	42.9870
 0.7560	43.1020
 0.7570	43.2000
 0.7580	43.2960
 0.7590	43.3870
 0.7600	43.4690
 0.7610	43.5420
 0.7620	43.6060
 0.7630	43.6640
 0.7640	43.7210
 0.7650	43.7760
 0.7660	43.8230
 0.7670	43.8670
 0.7680	43.9160
 0.7690	43.9450
 0.7700	43.9740
 0.7710	44.0100
 0.7720	44.0330
 0.7730	44.0630
 0.7740	44.0930
 0.7750	44.1150
 0.7760	44.1330
 0.7770	44.1570
 0.7780	44.1800
 0.7790	44.1920
 0.7800	44.2060
 0.7810	44.2300
 0.7820	44.2570
 0.7830	44.2680
 0.7840	44.2860
 0.7850	44.3050
 0.7860	44.3180
 0.7870	44.3300
 0.7880	44.3400
 0.7890	44.3530
 0.7900	44.3680
 0.7910	44.3720
 0.7920	44.3800
 0.7930	44.3970
 0.7940	44.4140
 0.7950	44.4230
 0.7960	44.4250
 0.7970	44.4280
 0.7980	44.4380
 0.7990	44.4470
 0.8000	44.4530
 0.8010	44.4590
 0.8020	44.4590
 0.8030	44.4610
 0.8040	44.4650
 0.8050	44.4720
 0.8060	44.4680
 0.8070	44.4680
 0.8080	44.4730
 0.8090	44.4760
 0.8100	44.4730
 0.8110	44.4740
 0.8120	44.4810
 0.8130	44.4820
 0.8140	44.4750
 0.8150	44.4690
 0.8160	44.4680
 0.8170	44.4700
 0.8180	44.4690
 0.8190	44.4670
 0.8200	44.4670
 0.8210	44.4630
 0.8220	44.4630
 0.8230	44.4630
 0.8240	44.4540
 0.8250	44.4520
 0.8260	44.4490
 0.8270	44.4390
 0.8280	44.4350
 0.8290	44.4280
 0.8300	44.4240
 0.8310	44.4260
 0.8320	44.4230
 0.8330	44.4170
 0.8340	44.4120
 0.8350	44.4120
 0.8360	44.4100
 0.8370	44.4070
 0.8380	44.4060
 0.8390	44.4070
 0.8400	44.4060
 0.8410	44.4050
 0.8420	44.4070
 0.8430	44.4140
 0.8440	44.4110
 0.8450	44.4100
 0.8460	44.4190
 0.8470	44.4220
 0.8480	44.4330
 0.8490	44.4390
 0.8500	44.4290
 0.8510	44.4340
 0.8520	44.4430
 0.8530	44.4470
 0.8540	44.4460
 0.8550	44.4500
 0.8560	44.4580
 0.8570	44.4660
 0.8580	44.4700
 0.8590	44.4750
 0.8600	44.4810
 0.8610	44.4850
 0.8620	44.4870
 0.8630	44.4880
 0.8640	44.4930
 0.8650	44.5040
 0.8660	44.5170
 0.8670	44.5230
 0.8680	44.5210
 0.8690	44.5210
 0.8700	44.5340
 0.8710	44.5440
 0.8720	44.5450
 0.8730	44.5410
 0.8740	44.5570
 0.8750	44.5720
 0.8760	44.5780
 0.8770	44.5830
 0.8780	44.5870
 0.8790	44.5950
 0.8800	44.6050
 0.8810	44.6130
 0.8820	44.6180
 0.8830	44.6230
 0.8840	44.6310
 0.8850	44.6370
 0.8860	44.6460
 0.8870	44.6540
 0.8880	44.6580
 0.8890	44.6620
 0.8900	44.6660
 0.8910	44.6740
 0.8920	44.6860
 0.8930	44.6820
 0.8940	44.6850
 0.8950	44.6960
 0.8960	44.7000
 0.8970	44.6980
 0.8980	44.6960
 0.8990	44.6980
 0.9000	44.7020
 0.9010	44.7110
 0.9020	44.7220
 0.9030	44.7310
 0.9040	44.7320
 0.9050	44.7420
 0.9060	44.7530
 0.9070	44.7560
 0.9080	44.7510
 0.9090	44.7470
 0.9100	44.7470
 0.9110	44.7500
 0.9120	44.7610
 0.9130	44.7660
 0.9140	44.7700
 0.9150	44.7800
 0.9160	44.7840
 0.9170	44.7840
 0.9180	44.7830
 0.9190	44.7820
 0.9200	44.7790
 0.9210	44.7800
 0.9220	44.7810
 0.9230	44.7750
 0.9240	44.7710
 0.9250	44.7670
 0.9260	44.7580
 0.9270	44.7430
 0.9280	44.7320
 0.9290	44.7280
 0.9300	44.7280
 0.9310	44.7190
 0.9320	44.6960
 0.9330	44.6820
 0.9340	44.6740
 0.9350	44.6480
 0.9360	44.6380
 0.9370	44.6180
 0.9380	44.5800
 0.9390	44.5510
 0.9400	44.5340
 0.9410	44.5270
 0.9420	44.5180
 0.9430	44.4860
 0.9440	44.4560
 0.9450	44.4250
 0.9460	44.3890
 0.9470	44.3590
 0.9480	44.3240
 0.9490	44.2830
 0.9500	44.2390
 0.9510	44.1820
 0.9520	44.1430
 0.9530	44.1010
 0.9540	44.0360
 0.9550	43.9860
 0.9560	43.9350
 0.9570	43.8880
 0.9580	43.8490
 0.9590	43.7960
 0.9600	43.7500
 0.9610	43.7140
 0.9620	43.6880
 0.9630	43.6580
 0.9640	43.6220
 0.9650	43.5910
 0.9660	43.5760
 0.9670	43.5630
 0.9680	43.5440
 0.9690	43.5220
 0.9700	43.5030
 0.9710	43.4930
 0.9720	43.4810
 0.9730	43.4690
 0.9740	43.4630
 0.9750	43.4570
 0.9760	43.4460
 0.9770	43.4370
 0.9780	43.4420
 0.9790	43.4290
 0.9800	43.4230
 0.9810	43.4240
 0.9820	43.4240
 0.9830	43.4480
 0.9840	43.4600
 0.9850	43.4650
 0.9860	43.4810
 0.9870	43.4660
 0.9880	43.4690
 0.9890	43.4890
 0.9900	43.5040
 0.9910	43.5030
 0.9920	43.5160
 0.9930	43.5380
 0.9940	43.5490
 0.9950	43.5710
 0.9960	43.5950
 0.9970	43.6040
 0.9980	43.5930
 0.9990	43.6140
 1.0000	43.6770
 1.0010	43.7810
 1.0020	43.8460
 1.0030	43.8650
 1.0040	43.8850
 1.0050	43.9000
 1.0060	43.9210
 1.0070	43.9390
 1.0080	43.9570
 1.0090	43.9730
 1.0100	43.9910
 1.0110	44.0090
 1.0120	44.0270
 1.0130	44.0440
 1.0140	44.0610
 1.0150	44.0790
 1.0160	44.0950
 1.0170	44.1120
 1.0180	44.1300
 1.0190	44.1430
 1.0200	44.1550
 1.0210	44.1710
 1.0220	44.1830
 1.0230	44.1970
 1.0240	44.2160
 1.0250	44.2320
 1.0260	44.2500
 1.0270	44.2650
 1.0280	44.2800
 1.0290	44.2950
 1.0300	44.3080
 1.0310	44.3220
 1.0320	44.3340
 1.0330	44.3510
 1.0340	44.3610
 1.0350	44.3710
 1.0360	44.3820
 1.0370	44.3930
 1.0380	44.4060
 1.0390	44.4220
 1.0400	44.4330
 1.0410	44.4410
 1.0420	44.4510
 1.0430	44.4590
 1.0440	44.4680
 1.0450	44.4800
 1.0460	44.4890
 1.0470	44.4970
 1.0480	44.5050
 1.0490	44.5130
 1.0500	44.5210
 1.0510	44.5310
 1.0520	44.5400
 1.0530	44.5490
 1.0540	44.5610
 1.0550	44.5680
 1.0560	44.5740
 1.0570	44.5800
 1.0580	44.5840
 1.0590	44.5890
 1.0600	44.5940
 1.0610	44.5990
 1.0620	44.6020
 1.0630	44.6050
 1.0640	44.6080
 1.0650	44.6110
 1.0660	44.6130
 1.0670	44.6150
 1.0680	44.6170
 1.0690	44.6200
 1.0700	44.6220
 1.0710	44.6240
 1.0720	44.6240
 1.0730	44.6230
 1.0740	44.6210
 1.0750	44.6180
 1.0760	44.6150
 1.0770	44.6120
 1.0780	44.6100
 1.0790	44.6080
 1.0800	44.6060
 1.0810	44.6060
 1.0820	44.6030
 1.0830	44.6000
 1.0840	44.5960
 1.0850	44.5920
 1.0860	44.5880
 1.0870	44.5830
 1.0880	44.5790
 1.0890	44.5740
 1.0900	44.5690
 1.0910	44.5620
 1.0920	44.5540
 1.0930	44.5470
 1.0940	44.5390
 1.0950	44.5310
 1.0960	44.5240
 1.0970	44.5150
 1.0980	44.5020
 1.0990	44.4940
 1.1000	44.4890
 1.1010	44.4810
 1.1020	44.4740
 1.1030	44.4660
 1.1040	44.4560
 1.1050	44.4420
 1.1060	44.4320
 1.1070	44.4250
 1.1080	44.4130
 1.1090	44.4010
 1.1100	44.3890
 1.1110	44.3740
 1.1120	44.3600
 1.1130	44.3490
 1.1140	44.3350
 1.1150	44.3190
 1.1160	44.3020
 1.1170	44.2880
 1.1180	44.2680
 1.1190	44.2430
 1.1200	44.2200
 1.1210	44.1960
 1.1220	44.1660
 1.1230	44.1390
 1.1240	44.1060
 1.1250	44.0690
 1.1260	44.0270
 1.1270	43.9840
 1.1280	43.9390
 1.1290	43.8860
 1.1300	43.8310
 1.1310	43.7650
 1.1320	43.6900
 1.1330	43.6120
 1.1340	43.5260
 1.1350	43.4380
 1.1360	43.3470
 1.1370	43.2510
 1.1380	43.1510
 1.1390	43.0480
 1.1400	42.9370
 1.1410	42.8230
 1.1420	42.7040
 1.1430	42.5840
 1.1440	42.4640
 1.1450	42.3410
 1.1460	42.2220
 1.1470	42.1020
 1.1480	41.9870
 1.1490	41.8710
 1.1500	41.7640
 1.1510	41.6580
 1.1520	41.5620
 1.1530	41.4710
 1.1540	41.3880
 1.1550	41.3100
 1.1560	41.2390
 1.1570	41.1770
 1.1580	41.1190
 1.1590	41.0690
 1.1600	41.0240
 1.1610	40.9820
 1.1620	40.9470
 1.1630	40.9150
 1.1640	40.8860
 1.1650	40.8620
 1.1660	40.8440
 1.1670	40.8270
 1.1680	40.8150
 1.1690	40.8000
 1.1700	40.7850
 1.1710	40.7720
 1.1720	40.7600
 1.1730	40.7480
 1.1740	40.7380
 1.1750	40.7270
 1.1760	40.7140
 1.1770	40.7000
 1.1780	40.6870
 1.1790	40.6740
 1.1800	40.6620
 1.1810	40.6500
 1.1820	40.6380
 1.1830	40.6270
 1.1840	40.6130
 1.1850	40.5990
 1.1860	40.5860
 1.1870	40.5730
 1.1880	40.5620
 1.1890	40.5530
 1.1900	40.5450
 1.1910	40.5390
 1.1920	40.5340
 1.1930	40.5340
 1.1940	40.5330
 1.1950	40.5320
 1.1960	40.5330
 1.1970	40.5330
 1.1980	40.5330
 1.1990	40.5370
 1.2000	40.5420
 1.2010	40.5500
 1.2020	40.5580
 1.2030	40.5650
 1.2040	40.5740
 1.2050	40.5850
 1.2060	40.5990
 1.2070	40.6130
 1.2080	40.6270
 1.2090	40.6420
 1.2100	40.6560
 1.2110	40.6720
 1.2120	40.6890
 1.2130	40.7060
 1.2140	40.7220
 1.2150	40.7410
 1.2160	40.7610
 1.2170	40.7830
 1.2180	40.8050
 1.2190	40.8270
 1.2200	40.8490
 1.2210	40.8700
 1.2220	40.8910
 1.2230	40.9140
 1.2240	40.9350
 1.2250	40.9550
 1.2260	40.9760
 1.2270	40.9980
 1.2280	41.0190
 1.2290	41.0400
 1.2300	41.0600
 1.2310	41.0800
 1.2320	41.0990
 1.2330	41.1170
 1.2340	41.1340
 1.2350	41.1520
 1.2360	41.1680
 1.2370	41.1830
 1.2380	41.1990
 1.2390	41.2150
 1.2400	41.2300
 1.2410	41.2460
 1.2420	41.2610
 1.2430	41.2750
 1.2440	41.2880
 1.2450	41.2990
 1.2460	41.3110
 1.2470	41.3230
 1.2480	41.3340
 1.2490	41.3450
 1.2500	41.3560
 1.2510	41.3660
 1.2520	41.3760
 1.2530	41.3840
 1.2540	41.3890
 1.2550	41.3950
 1.2560	41.4020
 1.2570	41.4080
 1.2580	41.4130
 1.2590	41.4170
 1.2600	41.4200
 1.2610	41.4220
 1.2620	41.4240
 1.2630	41.4250
 1.2640	41.4260
 1.2650	41.4240
 1.2660	41.4220
 1.2670	41.4210
 1.2680	41.4160
 1.2690	41.4100
 1.2700	41.4070
 1.2710	41.3990
 1.2720	41.3910
 1.2730	41.3830
 1.2740	41.3720
 1.2750	41.3630
 1.2760	41.3530
 1.2770	41.3430
 1.2780	41.3320
 1.2790	41.3180
 1.2800	41.3020
 1.2810	41.2870
 1.2820	41.2690
 1.2830	41.2510
 1.2840	41.2350
 1.2850	41.2190
 1.2860	41.1990
 1.2870	41.1790
 1.2880	41.1590
 1.2890	41.1350
 1.2900	41.1080
 1.2910	41.0810
 1.2920	41.0540
 1.2930	41.0240
 1.2940	40.9950
 1.2950	40.9660
 1.2960	40.9330
 1.2970	40.8980
 1.2980	40.8580
 1.2990	40.8150
 1.3000	40.7720
 1.3010	40.7260
 1.3020	40.6810
 1.3030	40.6340
 1.3040	40.5830
 1.3050	40.5310
 1.3060	40.4760
 1.3070	40.4160
 1.3080	40.3530
 1.3090	40.2890
 1.3100	40.2240
 1.3110	40.1570
 1.3120	40.0880
 1.3130	40.0150
 1.3140	39.9390
 1.3150	39.8600
 1.3160	39.7780
 1.3170	39.6930
 1.3180	39.6070
 1.3190	39.5180
 1.3200	39.4250
 1.3210	39.3300
 1.3220	39.2320
 1.3230	39.1290
 1.3240	39.0240
 1.3250	38.9180
 1.3260	38.8090
 1.3270	38.6990
 1.3280	38.5870
 1.3290	38.4710
 1.3300	38.3530
 1.3310	38.2320
 1.3320	38.1100
 1.3330	37.9870
 1.3340	37.8620
 1.3350	37.7370
 1.3360	37.6120
 1.3370	37.4850
 1.3380	37.3560
 1.3390	37.2270
 1.3400	37.0980
 1.3410	36.9710
 1.3420	36.8450
 1.3430	36.7210
 1.3440	36.5990
 1.3450	36.4760
 1.3460	36.3540
 1.3470	36.2340
 1.3480	36.1140
 1.3490	35.9950
 1.3500	35.8770
 1.3510	35.7600
 1.3520	35.6430
 1.3530	35.5280
 1.3540	35.4140
 1.3550	35.2990
 1.3560	35.1830
 1.3570	35.0670
 1.3580	34.9490
 1.3590	34.8310
 1.3600	34.7110
 1.3610	34.5860
 1.3620	34.4550
 1.3630	34.3190
 1.3640	34.1770
 1.3650	34.0280
 1.3660	33.8740
 1.3670	33.7140
 1.3680	33.5440
 1.3690	33.3640
 1.3700	33.1720
 1.3710	32.9680
 1.3720	32.7510
 1.3730	32.5190
 1.3740	32.2750
 1.3750	32.0120
 1.3760	31.7290
 1.3770	31.4260
 1.3780	31.0980
 1.3790	30.7500
 1.3800	30.3830
 1.3810	29.9890
 1.3820	29.5780
 1.3830	29.1490
 1.3840	28.7000
 1.3850	28.2300
 1.3860	27.7480
 1.3870	27.2440
 1.3880	26.7340
 1.3890	26.2120
 1.3900	25.6800
 1.3910	25.1460
 1.3920	24.6050
 1.3930	24.0580
 1.3940	23.5140
 1.3950	22.9670
 1.3960	22.4270
 1.3970	21.8960
 1.3980	21.3730
 1.3990	20.8690
 1.4000	20.3770
 1.4010	19.8980
 1.4020	19.4390
 1.4030	18.9940
 1.4040	18.5690
 1.4050	18.1650
 1.4060	17.7800
 1.4070	17.4190
 1.4080	17.0780
 1.4090	16.7560
 1.4100	16.4560
 1.4110	16.1750
 1.4120	15.9130
 1.4130	15.6690
 1.4140	15.4420
 1.4150	15.2350
 1.4160	15.0430
 1.4170	14.8660
 1.4180	14.7050
 1.4190	14.5550
 1.4200	14.4180
 1.4210	14.2930
 1.4220	14.1790
 1.4230	14.0760
 1.4240	13.9820
 1.4250	13.8970
 1.4260	13.8200
 1.4270	13.7510
 1.4280	13.6900
 1.4290	13.6350
 1.4300	13.5880
 1.4310	13.5450
 1.4320	13.5090
 1.4330	13.4760
 1.4340	13.4480
 1.4350	13.4250
 1.4360	13.4070
 1.4370	13.3920
 1.4380	13.3810
 1.4390	13.3730
 1.4400	13.3680
 1.4410	13.3650
 1.4420	13.3660
 1.4430	13.3680
 1.4440	13.3710
 1.4450	13.3760
 1.4460	13.3830
 1.4470	13.3910
 1.4480	13.4010
 1.4490	13.4130
 1.4500	13.4260
 1.4510	13.4410
 1.4520	13.4570
 1.4530	13.4740
 1.4540	13.4920
 1.4550	13.5120
 1.4560	13.5330
 1.4570	13.5570
 1.4580	13.5840
 1.4590	13.6130
 1.4600	13.6450
 1.4610	13.6820
 1.4620	13.7220
 1.4630	13.7660
 1.4640	13.8150
 1.4650	13.8680
 1.4660	13.9260
 1.4670	13.9870
 1.4680	14.0530
 1.4690	14.1230
 1.4700	14.1980
 1.4710	14.2780
 1.4720	14.3600
 1.4730	14.4450
 1.4740	14.5330
 1.4750	14.6240
 1.4760	14.7200
 1.4770	14.8180
 1.4780	14.9160
 1.4790	15.0180
 1.4800	15.1190
 1.4810	15.2230
 1.4820	15.3290
 1.4830	15.4350
 1.4840	15.5440
 1.4850	15.6540
 1.4860	15.7640
 1.4870	15.8740
 1.4880	15.9850
 1.4890	16.0960
 1.4900	16.2080
 1.4910	16.3210
 1.4920	16.4340
 1.4930	16.5480
 1.4940	16.6620
 1.4950	16.7760
 1.4960	16.8890
 1.4970	17.0020
 1.4980	17.1150
 1.4990	17.2280
 1.5000	17.3420
 1.5010	17.4580
 1.5020	17.5720
 1.5030	17.6860
 1.5040	17.7990
 1.5050	17.9110
 1.5060	18.0240
 1.5070	18.1370
 1.5080	18.2490
 1.5090	18.3610
 1.5100	18.4720
 1.5110	18.5830
 1.5120	18.6950
 1.5130	18.8040
 1.5140	18.9120
 1.5150	19.0220
 1.5160	19.1290
 1.5170	19.2370
 1.5180	19.3460
 1.5190	19.4520
 1.5200	19.5590
 1.5210	19.6630
 1.5220	19.7660
 1.5230	19.8690
 1.5240	19.9710
 1.5250	20.0730
 1.5260	20.1740
 1.5270	20.2750
 1.5280	20.3740
 1.5290	20.4700
 1.5300	20.5660
 1.5310	20.6610
 1.5320	20.7550
 1.5330	20.8500
 1.5340	20.9430
 1.5350	21.0360
 1.5360	21.1290
 1.5370	21.2190
 1.5380	21.3090
 1.5390	21.3980
 1.5400	21.4850
 1.5410	21.5740
 1.5420	21.6610
 1.5430	21.7490
 1.5440	21.8370
 1.5450	21.9210
 1.5460	22.0040
 1.5470	22.0860
 1.5480	22.1680
 1.5490	22.2500
 1.5500	22.3310
 1.5510	22.4110
 1.5520	22.4900
 1.5530	22.5690
 1.5540	22.6460
 1.5550	22.7240
 1.5560	22.8000
 1.5570	22.8750
 1.5580	22.9480
 1.5590	23.0200
 1.5600	23.0920
 1.5610	23.1630
 1.5620	23.2340
 1.5630	23.3040
 1.5640	23.3710
 1.5650	23.4390
 1.5660	23.5080
 1.5670	23.5750
 1.5680	23.6430
 1.5690	23.7080
 1.5700	23.7730
 1.5710	23.8380
 1.5720	23.9020
 1.5730	23.9660
 1.5740	24.0300
 1.5750	24.0930
 1.5760	24.1560
 1.5770	24.2180
 1.5780	24.2810
 1.5790	24.3430
 1.5800	24.4030
 1.5810	24.4630
 1.5820	24.5240
 1.5830	24.5830
 1.5840	24.6450
 1.5850	24.7060
 1.5860	24.7640
 1.5870	24.8230
 1.5880	24.8830
 1.5890	24.9420
 1.5900	25.0010
 1.5910	25.0600
 1.5920	25.1190
 1.5930	25.1750
 1.5940	25.2310
 1.5950	25.2850
 1.5960	25.3360
 1.5970	25.3880
 1.5980	25.4430
 1.5990	25.4970
 1.6000	25.5530
 1.6010	25.6070
 1.6020	25.6580
 1.6030	25.7110
 1.6040	25.7630
 1.6050	25.8140
 1.6060	25.8640
 1.6070	25.9130
 1.6080	25.9620
 1.6090	26.0090
 1.6100	26.0570
 1.6110	26.1030
 1.6120	26.1480
 1.6130	26.1910
 1.6140	26.2350
 1.6150	26.2790
 1.6160	26.3220
 1.6170	26.3630
 1.6180	26.4030
 1.6190	26.4410
 1.6200	26.4790
 1.6210	26.5200
 1.6220	26.5600
 1.6230	26.5990
 1.6240	26.6380
 1.6250	26.6740
 1.6260	26.7100
 1.6270	26.7450
 1.6280	26.7800
 1.6290	26.8130
 1.6300	26.8450
 1.6310	26.8760
 1.6320	26.9050
 1.6330	26.9350
 1.6340	26.9660
 1.6350	26.9940
 1.6360	27.0200
 1.6370	27.0460
 1.6380	27.0690
 1.6390	27.0910
 1.6400	27.1130
 1.6410	27.1310
 1.6420	27.1470
 1.6430	27.1620
 1.6440	27.1750
 1.6450	27.1880
 1.6460	27.1990
 1.6470	27.2070
 1.6480	27.2130
 1.6490	27.2180
 1.6500	27.2200
 1.6510	27.2200
 1.6520	27.2190
 1.6530	27.2160
 1.6540	27.2130
 1.6550	27.2080
 1.6560	27.2020
 1.6570	27.1960
 1.6580	27.1890
 1.6590	27.1830
 1.6600	27.1760
 1.6610	27.1680
 1.6620	27.1610
 1.6630	27.1540
 1.6640	27.1480
 1.6650	27.1450
 1.6660	27.1390
 1.6670	27.1320
 1.6680	27.1270
 1.6690	27.1220
 1.6700	27.1160
 1.6710	27.1110
 1.6720	27.1020
 1.6730	27.0890
 1.6740	27.0780
 1.6750	27.0650
 1.6760	27.0500
 1.6770	27.0340
 1.6780	27.0130
 1.6790	26.9880
 1.6800	26.9620
 1.6810	26.9330
 1.6820	26.9040
 1.6830	26.8730
 1.6840	26.8400
 1.6850	26.8040
 1.6860	26.7660
 1.6870	26.7240
 1.6880	26.6820
 1.6890	26.6420
 1.6900	26.6010
 1.6910	26.5600
 1.6920	26.5190
 1.6930	26.4770
 1.6940	26.4360
 1.6950	26.3970
 1.6960	26.3570
 1.6970	26.3150
 1.6980	26.2750
 1.6990	26.2370
 1.7000	26.1970
 1.7010	26.1580
 1.7020	26.1160
 1.7030	26.0710
 1.7040	26.0280
 1.7050	25.9860
 1.7060	25.9430
 1.7070	25.8990
 1.7080	25.8550
 1.7090	25.8090
 1.7100	25.7650
 1.7110	25.7200
 1.7120	25.6770
 1.7130	25.6350
 1.7140	25.5920
 1.7150	25.5500
 1.7160	25.5070
 1.7170	25.4640
 1.7180	25.4210
 1.7190	25.3790
 1.7200	25.3360
 1.7210	25.2920
 1.7220	25.2480
 1.7230	25.2040
 1.7240	25.1610
 1.7250	25.1180
 1.7260	25.0770
 1.7270	25.0360
 1.7280	24.9930
 1.7290	24.9520
 1.7300	24.9100
 1.7310	24.8700
 1.7320	24.8310
 1.7330	24.7920
 1.7340	24.7550
 1.7350	24.7170
 1.7360	24.6810
 1.7370	24.6430
 1.7380	24.6050
 1.7390	24.5650
 1.7400	24.5240
 1.7410	24.4820
 1.7420	24.4390
 1.7430	24.3950
 1.7440	24.3510
 1.7450	24.3050
 1.7460	24.2560
 1.7470	24.2090
 1.7480	24.1620
 1.7490	24.1140
 1.7500	24.0660
 1.7510	24.0180
 1.7520	23.9690
 1.7530	23.9190
 1.7540	23.8690
 1.7550	23.8180
 1.7560	23.7660
 1.7570	23.7180
 1.7580	23.6710
 1.7590	23.6220
 1.7600	23.5740
 1.7610	23.5240
 1.7620	23.4780
 1.7630	23.4340
 1.7640	23.3910
 1.7650	23.3510
 1.7660	23.3100
 1.7670	23.2700
 1.7680	23.2310
 1.7690	23.1920
 1.7700	23.1570
 1.7710	23.1260
 1.7720	23.0940
 1.7730	23.0640
 1.7740	23.0330
 1.7750	23.0000
 1.7760	22.9690
 1.7770	22.9380
 1.7780	22.9100
 1.7790	22.8840
 1.7800	22.8600
 1.7810	22.8390
 1.7820	22.8180
 1.7830	22.7970
 1.7840	22.7780
 1.7850	22.7590
 1.7860	22.7430
 1.7870	22.7280
 1.7880	22.7130
 1.7890	22.7000
 1.7900	22.6890
 1.7910	22.6810
 1.7920	22.6770
 1.7930	22.6730
 1.7940	22.6690
 1.7950	22.6660
 1.7960	22.6630
 1.7970	22.6630
 1.7980	22.6660
 1.7990	22.6680
 1.8000	22.6700
 1.8010	22.6730
 1.8020	22.6750
 1.8030	22.6790
 1.8040	22.6860
 1.8050	22.6900
 1.8060	22.6940
 1.8070	22.7000
 1.8080	22.7050
 1.8090	22.7100
 1.8100	22.7160
 1.8110	22.7230
 1.8120	22.7270
 1.8130	22.7330
 1.8140	22.7390
 1.8150	22.7410
 1.8160	22.7430
 1.8170	22.7460
 1.8180	22.7490
 1.8190	22.7510
 1.8200	22.7530
 1.8210	22.7540
 1.8220	22.7550
 1.8230	22.7560
 1.8240	22.7550
 1.8250	22.7510
 1.8260	22.7480
 1.8270	22.7420
 1.8280	22.7370
 1.8290	22.7310
 1.8300	22.7230
 1.8310	22.7190
 1.8320	22.6960
 1.8330	22.6690
 1.8340	22.6430
 1.8350	22.6140
 1.8360	22.5830
 1.8370	22.5500
 1.8380	22.5120
 1.8390	22.4670
 1.8400	22.4170
 1.8410	22.3600
 1.8420	22.2970
 1.8430	22.2300
 1.8440	22.1550
 1.8450	22.0780
 1.8460	21.9930
 1.8470	21.8990
 1.8480	21.7960
 1.8490	21.6830
 1.8500	21.5600
 1.8510	21.4280
 1.8520	21.2870
 1.8530	21.1350
 1.8540	20.9710
 1.8550	20.7980
 1.8560	20.6150
 1.8570	20.4190
 1.8580	20.2080
 1.8590	19.9860
 1.8600	19.7520
 1.8610	19.5030
 1.8620	19.2400
 1.8630	18.9680
 1.8640	18.6830
 1.8650	18.3810
 1.8660	18.0640
 1.8670	17.7230
 1.8680	17.3670
 1.8690	16.9960
 1.8700	16.6090
 1.8710	16.2070
 1.8720	15.7990
 1.8730	15.3780
 1.8740	14.9430
 1.8750	14.5020
 1.8760	14.0530
 1.8770	13.6030
 1.8780	13.1550
 1.8790	12.7050
 1.8800	12.2610
 1.8810	11.8210
 1.8820	11.3800
 1.8830	10.9430
 1.8840	10.5160
 1.8850	10.0920
 1.8860	 9.6780
 1.8870	 9.2800
 1.8880	 8.8910
 1.8890	 8.5260
 1.8900	 8.1790
 1.8910	 7.8460
 1.8920	 7.5310
 1.8930	 7.2380
 1.8940	 6.9620
 1.8950	 6.7090
 1.8960	 6.4740
 1.8970	 6.2580
 1.8980	 6.0600
 1.8990	 5.8770
 1.9000	 5.7120
 1.9010	 5.5670
 1.9020	 5.4300
 1.9030	 5.3090
 1.9040	 5.2010
 1.9050	 5.1040
 1.9060	 5.0200
 1.9070	 4.9450
 1.9080	 4.8770
 1.9090	 4.8190
 1.9100	 4.7700
 1.9110	 4.7240
 1.9120	 4.6880
 1.9130	 4.6540
 1.9140	 4.6290
 1.9150	 4.6030
 1.9160	 4.5860
 1.9170	 4.5690
 1.9180	 4.5520
 1.9190	 4.5380
 1.9200	 4.5270
 1.9210	 4.5180
 1.9220	 4.5100
 1.9230	 4.5040
 1.9240	 4.4990
 1.9250	 4.4980
 1.9260	 4.4990
 1.9270	 4.5030
 1.9280	 4.5090
 1.9290	 4.5140
 1.9300	 4.5180
 1.9310	 4.5260
 1.9320	 4.5340
 1.9330	 4.5440
 1.9340	 4.5550
 1.9350	 4.5690
 1.9360	 4.5830
 1.9370	 4.5960
 1.9380	 4.6120
 1.9390	 4.6240
 1.9400	 4.6410
 1.9410	 4.6540
 1.9420	 4.6700
 1.9430	 4.6900
 1.9440	 4.7110
 1.9450	 4.7310
 1.9460	 4.7540
 1.9470	 4.7800
 1.9480	 4.8030
 1.9490	 4.8280
 1.9500	 4.8520
 1.9510	 4.8770
 1.9520	 4.9010
 1.9530	 4.9290
 1.9540	 4.9570
 1.9550	 4.9860
 1.9560	 5.0150
 1.9570	 5.0460
 1.9580	 5.0750
 1.9590	 5.1070
 1.9600	 5.1390
 1.9610	 5.1700
 1.9620	 5.2070
 1.9630	 5.2400
 1.9640	 5.2780
 1.9650	 5.3160
 1.9660	 5.3550
 1.9670	 5.3950
 1.9680	 5.4330
 1.9690	 5.4700
 1.9700	 5.5110
 1.9710	 5.5500
 1.9720	 5.5890
 1.9730	 5.6300
 1.9740	 5.6750
 1.9750	 5.7190
 1.9760	 5.7630
 1.9770	 5.8080
 1.9780	 5.8540
 1.9790	 5.8970
 1.9800	 5.9430
 1.9810	 5.9890
 1.9820	 6.0380
 1.9830	 6.0880
 1.9840	 6.1390
 1.9850	 6.1880
 1.9860	 6.2390
 1.9870	 6.2880
 1.9880	 6.3380
 1.9890	 6.3900
 1.9900	 6.4410
 1.9910	 6.4930
 1.9920	 6.5460
 1.9930	 6.6030
 1.9940	 6.6540
 1.9950	 6.7030
 1.9960	 6.7560
 1.9970	 6.8080
 1.9980	 6.8610
 1.9990	 6.9140
 2.0000	 6.9710
 2.0010	 7.0260
 2.0020	 7.0790
 2.0030	 7.1330
 2.0040	 7.1880
 2.0050	 7.2410
 2.0060	 7.2950
 2.0070	 7.3460
 2.0080	 7.3990
 2.0090	 7.4520
 2.0100	 7.5050
 2.0110	 7.5550
 2.0120	 7.6080
 2.0130	 7.6610
 2.0140	 7.7120
 2.0150	 7.7590
 2.0160	 7.8100
 2.0170	 7.8600
 2.0180	 7.9100
 2.0190	 7.9640
 2.0200	 8.0130
 2.0210	 8.0620
 2.0220	 8.1090
 2.0230	 8.1550
 2.0240	 8.2000
 2.0250	 8.2430
 2.0260	 8.2860
 2.0270	 8.3260
 2.0280	 8.3680
 2.0290	 8.4110
 2.0300	 8.4490
 2.0310	 8.4880
 2.0320	 8.5260
 2.0330	 8.5640
 2.0340	 8.6000
 2.0350	 8.6360
 2.0360	 8.6710
 2.0370	 8.7050
 2.0380	 8.7400
 2.0390	 8.7730
 2.0400	 8.8040
 2.0410	 8.8340
 2.0420	 8.8660
 2.0430	 8.8920
 2.0440	 8.9200
 2.0450	 8.9490
 2.0460	 8.9760
 2.0470	 8.9990
 2.0480	 9.0270
 2.0490	 9.0580
 2.0500	 9.0870
 2.0510	 9.1150
 2.0520	 9.1420
 2.0530	 9.1630
 2.0540	 9.1880
 2.0550	 9.2140
 2.0560	 9.2430
 2.0570	 9.2710
 2.0580	 9.3020
 2.0590	 9.3330
 2.0600	 9.3670
 2.0610	 9.3950
 2.0620	 9.4240
 2.0630	 9.4540
 2.0640	 9.4820
 2.0650	 9.5110
 2.0660	 9.5440
 2.0670	 9.5750
 2.0680	 9.6050
 2.0690	 9.6360
 2.0700	 9.6670
 2.0710	 9.6960
 2.0720	 9.7250
 2.0730	 9.7510
 2.0740	 9.7840
 2.0750	 9.8170
 2.0760	 9.8490
 2.0770	 9.8830
 2.0780	 9.9110
 2.0790	 9.9390
 2.0800	 9.9650
 2.0810	 9.9920
 2.0820	10.0210
 2.0830	10.0510
 2.0840	10.0810
 2.0850	10.1100
 2.0860	10.1380
 2.0870	10.1680
 2.0880	10.1940
 2.0890	10.2210
 2.0900	10.2500
 2.0910	10.2770
 2.0920	10.3070
 2.0930	10.3320
 2.0940	10.3590
 2.0950	10.3840
 2.0960	10.4060
 2.0970	10.4300
 2.0980	10.4570
 2.0990	10.4820
 2.1000	10.5070
 2.1010	10.5320
 2.1020	10.5530
 2.1030	10.5770
 2.1040	10.6030
 2.1050	10.6290
 2.1060	10.6530
 2.1070	10.6790
 2.1080	10.7030
 2.1090	10.7220
 2.1100	10.7460
 2.1110	10.7720
 2.1120	10.7960
 2.1130	10.8180
 2.1140	10.8400
 2.1150	10.8610
 2.1160	10.8840
 2.1170	10.9100
 2.1180	10.9330
 2.1190	10.9560
 2.1200	10.9790
 2.1210	11.0000
 2.1220	11.0210
 2.1230	11.0400
 2.1240	11.0600
 2.1250	11.0800
 2.1260	11.1000
 2.1270	11.1170
 2.1280	11.1330
 2.1290	11.1500
 2.1300	11.1680
 2.1310	11.1840
 2.1320	11.2050
 2.1330	11.2220
 2.1340	11.2380
 2.1350	11.2560
 2.1360	11.2760
 2.1370	11.2940
 2.1380	11.3100
 2.1390	11.3260
 2.1400	11.3410
 2.1410	11.3530
 2.1420	11.3680
 2.1430	11.3860
 2.1440	11.4010
 2.1450	11.4170
 2.1460	11.4330
 2.1470	11.4450
 2.1480	11.4600
 2.1490	11.4760
 2.1500	11.4910
 2.1510	11.5090
 2.1520	11.5250
 2.1530	11.5380
 2.1540	11.5520
 2.1550	11.5630
 2.1560	11.5760
 2.1570	11.5830
 2.1580	11.5950
 2.1590	11.6110
 2.1600	11.6210
 2.1610	11.6360
 2.1620	11.6540
 2.1630	11.6690
 2.1640	11.6860
 2.1650	11.6990
 2.1660	11.7130
 2.1670	11.7260
 2.1680	11.7330
 2.1690	11.7480
 2.1700	11.7630
 2.1710	11.7790
 2.1720	11.8000
 2.1730	11.8160
 2.1740	11.8290
 2.1750	11.8460
 2.1760	11.8600
 2.1770	11.8770
 2.1780	11.8970
 2.1790	11.9150
 2.1800	11.9320
 2.1810	11.9520
 2.1820	11.9750
 2.1830	11.9980
 2.1840	12.0210
 2.1850	12.0460
 2.1860	12.0670
 2.1870	12.0840
 2.1880	12.1040
 2.1890	12.1240
 2.1900	12.1480
 2.1910	12.1760
 2.1920	12.2010
 2.1930	12.2270
 2.1940	12.2510
 2.1950	12.2760
 2.1960	12.2980
 2.1970	12.3180
 2.1980	12.3390
 2.1990	12.3590
 2.2000	12.3790
 2.2010	12.3990
 2.2020	12.4200
 2.2030	12.4400
 2.2040	12.4600
 2.2050	12.4820
 2.2060	12.5030
 2.2070	12.5240
 2.2080	12.5460
 2.2090	12.5640
 2.2100	12.5800
 2.2110	12.5950
 2.2120	12.6080
 2.2130	12.6200
 2.2140	12.6320
 2.2150	12.6430
 2.2160	12.6500
 2.2170	12.6600
 2.2180	12.6720
 2.2190	12.6810
 2.2200	12.6910
 2.2210	12.6990
 2.2220	12.7050
 2.2230	12.7070
 2.2240	12.7060
 2.2250	12.7030
 2.2260	12.6970
 2.2270	12.6910
 2.2280	12.6860
 2.2290	12.6770
 2.2300	12.6660
 2.2310	12.6490
 2.2320	12.6310
 2.2330	12.6120
 2.2340	12.5890
 2.2350	12.5650
 2.2360	12.5360
 2.2370	12.5000
 2.2380	12.4670
 2.2390	12.4320
 2.2400	12.3970
 2.2410	12.3640
 2.2420	12.3260
 2.2430	12.2850
 2.2440	12.2420
 2.2450	12.1920
 2.2460	12.1470
 2.2470	12.1030
 2.2480	12.0570
 2.2490	12.0130
 2.2500	11.9670
 2.2510	11.9140
 2.2520	11.8650
 2.2530	11.8180
 2.2540	11.7690
 2.2550	11.7260
 2.2560	11.6780
 2.2570	11.6250
 2.2580	11.5750
 2.2590	11.5220
 2.2600	11.4700
 2.2610	11.4250
 2.2620	11.3790
 2.2630	11.3370
 2.2640	11.2920
 2.2650	11.2490
 2.2660	11.2090
 2.2670	11.1680
 2.2680	11.1270
 2.2690	11.0820
 2.2700	11.0350
 2.2710	10.9920
 2.2720	10.9460
 2.2730	10.9050
 2.2740	10.8690
 2.2750	10.8290
 2.2760	10.7870
 2.2770	10.7480
 2.2780	10.7040
 2.2790	10.6670
 2.2800	10.6330
 2.2810	10.5990
 2.2820	10.5680
 2.2830	10.5330
 2.2840	10.4960
 2.2850	10.4610
 2.2860	10.4240
 2.2870	10.3920
 2.2880	10.3680
 2.2890	10.3370
 2.2900	10.3080
 2.2910	10.2750
 2.2920	10.2280
 2.2930	10.1900
 2.2940	10.1550
 2.2950	10.1200
 2.2960	10.0920
 2.2970	10.0600
 2.2980	10.0220
 2.2990	 9.9880
 2.3000	 9.9540
 2.3010	 9.9160
 2.3020	 9.8770
 2.3030	 9.8390
 2.3040	 9.8000
 2.3050	 9.7620
 2.3060	 9.7280
 2.3070	 9.6970
 2.3080	 9.6680
 2.3090	 9.6320
 2.3100	 9.6040
 2.3110	 9.5780
 2.3120	 9.5540
 2.3130	 9.5360
 2.3140	 9.5170
 2.3150	 9.5000
 2.3160	 9.4830
 2.3170	 9.4640
 2.3180	 9.4470
 2.3190	 9.4310
 2.3200	 9.4120
 2.3210	 9.3920
 2.3220	 9.3680
 2.3230	 9.3390
 2.3240	 9.3150
 2.3250	 9.2870
 2.3260	 9.2630
 2.3270	 9.2490
 2.3280	 9.2250
 2.3290	 9.2010
 2.3300	 9.1700
 2.3310	 9.1300
 2.3320	 9.0980
 2.3330	 9.0690
 2.3340	 9.0410
 2.3350	 9.0140
 2.3360	 8.9860
 2.3370	 8.9520
 2.3380	 8.9210
 2.3390	 8.8950
 2.3400	 8.8640
 2.3410	 8.8240
 2.3420	 8.7900
 2.3430	 8.7590
 2.3440	 8.7270
 2.3450	 8.6970
 2.3460	 8.6680
 2.3470	 8.6360
 2.3480	 8.6090
 2.3490	 8.5860
 2.3500	 8.5620
 2.3510	 8.5380
 2.3520	 8.5150
 2.3530	 8.4870
 2.3540	 8.4710
 2.3550	 8.4560
 2.3560	 8.4370
 2.3570	 8.4250
 2.3580	 8.4090
 2.3590	 8.3870
 2.3600	 8.3670
 2.3610	 8.3360
 2.3620	 8.3030
 2.3630	 8.2710
 2.3640	 8.2410
 2.3650	 8.2180
 2.3660	 8.1930
 2.3670	 8.1770
 2.3680	 8.1660
 2.3690	 8.1460
 2.3700	 8.1280
 2.3710	 8.1070
 2.3720	 8.0720
 2.3730	 8.0380
 2.3740	 8.0030
 2.3750	 7.9730
 2.3760	 7.9460
 2.3770	 7.9190
 2.3780	 7.8930
 2.3790	 7.8550
 2.3800	 7.8140
 2.3810	 7.7800
 2.3820	 7.7430
 2.3830	 7.7130
 2.3840	 7.6870
 2.3850	 7.6540
 2.3860	 7.6210
 2.3870	 7.5880
 2.3880	 7.5510
 2.3890	 7.5200
 2.3900	 7.4830
 2.3910	 7.4520
 2.3920	 7.4240
 2.3930	 7.3970
 2.3940	 7.3710
 2.3950	 7.3390
 2.3960	 7.3010
 2.3970	 7.2530
 2.3980	 7.2210
 2.3990	 7.1920
 2.4000	 7.1500
 2.4010	 7.1190
 2.4020	 7.0880
 2.4030	 7.0390
 2.4040	 7.0060
 2.4050	 6.9820
 2.4060	 6.9440
 2.4070	 6.9080
 2.4080	 6.8830
 2.4090	 6.8410
 2.4100	 6.8030
 2.4110	 6.7770
 2.4120	 6.7400
 2.4130	 6.7050
 2.4140	 6.6670
 2.4150	 6.6350
 2.4160	 6.6090
 2.4170	 6.5640
 2.4180	 6.5250
 2.4190	 6.4940
 2.4200	 6.4470
 2.4210	 6.4130
 2.4220	 6.3860
 2.4230	 6.3390
 2.4240	 6.2880
 2.4250	 6.2540
 2.4260	 6.2300
 2.4270	 6.2110
 2.4280	 6.1850
 2.4290	 6.1530
 2.4300	 6.1070
 2.4310	 6.0520
 2.4320	 6.0050
 2.4330	 5.9670
 2.4340	 5.9220
 2.4350	 5.8920
 2.4360	 5.8690
 2.4370	 5.8370
 2.4380	 5.8230
 2.4390	 5.7980
 2.4400	 5.7620
 2.4410	 5.7300
 2.4420	 5.6770
 2.4430	 5.6290
 2.4440	 5.6030
 2.4450	 5.5900
 2.4460	 5.5730
 2.4470	 5.5640
 2.4480	 5.5420
 2.4490	 5.4850
 2.4500	 5.4470
 2.4510	 5.4110
 2.4520	 5.3630
 2.4530	 5.3480
 2.4540	 5.3230
 2.4550	 5.2970
 2.4560	 5.2740
 2.4570	 5.2390
 2.4580	 5.2200
 2.4590	 5.1960
 2.4600	 5.1700
 2.4610	 5.1520
 2.4620	 5.1130
 2.4630	 5.0750
 2.4640	 5.0630
 2.4650	 5.0360
 2.4660	 4.9980
 2.4670	 4.9740
 2.4680	 4.9350
 2.4690	 4.9110
 2.4700	 4.8980
 2.4710	 4.8870
 2.4720	 4.8790
 2.4730	 4.8790
 2.4740	 4.8690
 2.4750	 4.8720
 2.4760	 4.8650
 2.4770	 4.8430
 2.4780	 4.8130
 2.4790	 4.7640
 2.4800	 4.7340
 2.4810	 4.7210
 2.4820	 4.7060
 2.4830	 4.6940
 2.4840	 4.6780
 2.4850	 4.6480
 2.4860	 4.6350
 2.4870	 4.6020
 2.4880	 4.5840
 2.4890	 4.5800
 2.4900	 4.5340
 2.4910	 4.5460
 2.4920	 4.5800
 2.4930	 4.5890
 2.4940	 4.6100
 2.4950	 4.5890
 2.4960	 4.5390
 2.4970	 4.5470
 2.4980	 4.5500
 2.4990	 4.5780
 2.5000	 4.6520
