Name: Ginko biloba
Type: vegetation
Class: Tree
Genus: Ginko
Species: biloba
Sample No.: JPL170
Owner: JPL
Wavelength Range: VSWIR
Origin: 34.12598; -118.11143; WGS84
Collection Date: 9/14/2016
Description: Samples were collected at the Huntington Garden in San Marino California as part of a JPL Subcontract studying HyTES imagery. Samples were taken to JPL and processed within 48 hours of collection. The same leaves were processed in the Nicolet and then measured using the ASD.
Measurement: Bidirectional reflectance
First Column: X
Second Column: Y
X Units: Wavelength (micrometer)
Y Units: Reflectance (percentage)
First X Value: 0.35
Last X Value: 2.5
Number of X Values: 2151
Additional Information: vegetation.tree.ginko.biloba.vswir.jpl170.jpl.asd.ancillary.txt

 0.3500	 4.7070
 0.3510	 4.6180
 0.3520	 4.5450
 0.3530	 4.5320
 0.3540	 4.5790
 0.3550	 4.5490
 0.3560	 4.5030
 0.3570	 4.4730
 0.3580	 4.4690
 0.3590	 4.4700
 0.3600	 4.4600
 0.3610	 4.4360
 0.3620	 4.4100
 0.3630	 4.4390
 0.3640	 4.4590
 0.3650	 4.4090
 0.3660	 4.3460
 0.3670	 4.3330
 0.3680	 4.3510
 0.3690	 4.3340
 0.3700	 4.3240
 0.3710	 4.3310
 0.3720	 4.3490
 0.3730	 4.3450
 0.3740	 4.3770
 0.3750	 4.4040
 0.3760	 4.3780
 0.3770	 4.3510
 0.3780	 4.3580
 0.3790	 4.3850
 0.3800	 4.3820
 0.3810	 4.3340
 0.3820	 4.3130
 0.3830	 4.3450
 0.3840	 4.3340
 0.3850	 4.3240
 0.3860	 4.3110
 0.3870	 4.2860
 0.3880	 4.2810
 0.3890	 4.3000
 0.3900	 4.3350
 0.3910	 4.3730
 0.3920	 4.3660
 0.3930	 4.3540
 0.3940	 4.3720
 0.3950	 4.3850
 0.3960	 4.4070
 0.3970	 4.4150
 0.3980	 4.3880
 0.3990	 4.4460
 0.4000	 4.5050
 0.4010	 4.5220
 0.4020	 4.5280
 0.4030	 4.5290
 0.4040	 4.5600
 0.4050	 4.6310
 0.4060	 4.6640
 0.4070	 4.6800
 0.4080	 4.7000
 0.4090	 4.7410
 0.4100	 4.7500
 0.4110	 4.7740
 0.4120	 4.8320
 0.4130	 4.8880
 0.4140	 4.9260
 0.4150	 4.9520
 0.4160	 4.9790
 0.4170	 5.0050
 0.4180	 5.0360
 0.4190	 5.0750
 0.4200	 5.1230
 0.4210	 5.1470
 0.4220	 5.1670
 0.4230	 5.1980
 0.4240	 5.2290
 0.4250	 5.2530
 0.4260	 5.2760
 0.4270	 5.3050
 0.4280	 5.3190
 0.4290	 5.3300
 0.4300	 5.3450
 0.4310	 5.3630
 0.4320	 5.3750
 0.4330	 5.3860
 0.4340	 5.4000
 0.4350	 5.4110
 0.4360	 5.4250
 0.4370	 5.4380
 0.4380	 5.4420
 0.4390	 5.4530
 0.4400	 5.4680
 0.4410	 5.4790
 0.4420	 5.4890
 0.4430	 5.5010
 0.4440	 5.5140
 0.4450	 5.5300
 0.4460	 5.5410
 0.4470	 5.5480
 0.4480	 5.5570
 0.4490	 5.5810
 0.4500	 5.5990
 0.4510	 5.6060
 0.4520	 5.6100
 0.4530	 5.6220
 0.4540	 5.6350
 0.4550	 5.6430
 0.4560	 5.6440
 0.4570	 5.6520
 0.4580	 5.6610
 0.4590	 5.6680
 0.4600	 5.6720
 0.4610	 5.6810
 0.4620	 5.6870
 0.4630	 5.6820
 0.4640	 5.6850
 0.4650	 5.6840
 0.4660	 5.6800
 0.4670	 5.6870
 0.4680	 5.6890
 0.4690	 5.6880
 0.4700	 5.6870
 0.4710	 5.6930
 0.4720	 5.6950
 0.4730	 5.6970
 0.4740	 5.7050
 0.4750	 5.7040
 0.4760	 5.6990
 0.4770	 5.6940
 0.4780	 5.6950
 0.4790	 5.7050
 0.4800	 5.7130
 0.4810	 5.7120
 0.4820	 5.7190
 0.4830	 5.7220
 0.4840	 5.7250
 0.4850	 5.7400
 0.4860	 5.7490
 0.4870	 5.7560
 0.4880	 5.7670
 0.4890	 5.7820
 0.4900	 5.7960
 0.4910	 5.8150
 0.4920	 5.8450
 0.4930	 5.8740
 0.4940	 5.9080
 0.4950	 5.9470
 0.4960	 5.9800
 0.4970	 6.0260
 0.4980	 6.0800
 0.4990	 6.1340
 0.5000	 6.1920
 0.5010	 6.2550
 0.5020	 6.3250
 0.5030	 6.4070
 0.5040	 6.5010
 0.5050	 6.6040
 0.5060	 6.7140
 0.5070	 6.8300
 0.5080	 6.9590
 0.5090	 7.1020
 0.5100	 7.2580
 0.5110	 7.4200
 0.5120	 7.5930
 0.5130	 7.7800
 0.5140	 7.9800
 0.5150	 8.1920
 0.5160	 8.4160
 0.5170	 8.6510
 0.5180	 8.8990
 0.5190	 9.1560
 0.5200	 9.4160
 0.5210	 9.6750
 0.5220	 9.9440
 0.5230	10.2110
 0.5240	10.4680
 0.5250	10.7160
 0.5260	10.9570
 0.5270	11.1900
 0.5280	11.4070
 0.5290	11.6150
 0.5300	11.8080
 0.5310	11.9830
 0.5320	12.1420
 0.5330	12.2890
 0.5340	12.4210
 0.5350	12.5350
 0.5360	12.6350
 0.5370	12.7280
 0.5380	12.8130
 0.5390	12.8910
 0.5400	12.9690
 0.5410	13.0440
 0.5420	13.1130
 0.5430	13.1780
 0.5440	13.2320
 0.5450	13.2720
 0.5460	13.2990
 0.5470	13.3210
 0.5480	13.3400
 0.5490	13.3610
 0.5500	13.3850
 0.5510	13.4000
 0.5520	13.4020
 0.5530	13.3920
 0.5540	13.3710
 0.5550	13.3340
 0.5560	13.2820
 0.5570	13.2180
 0.5580	13.1430
 0.5590	13.0560
 0.5600	12.9610
 0.5610	12.8590
 0.5620	12.7450
 0.5630	12.6210
 0.5640	12.4950
 0.5650	12.3610
 0.5660	12.2200
 0.5670	12.0730
 0.5680	11.9200
 0.5690	11.7660
 0.5700	11.6110
 0.5710	11.4580
 0.5720	11.3160
 0.5730	11.1780
 0.5740	11.0430
 0.5750	10.9180
 0.5760	10.7990
 0.5770	10.6880
 0.5780	10.5880
 0.5790	10.4910
 0.5800	10.4020
 0.5810	10.3200
 0.5820	10.2400
 0.5830	10.1630
 0.5840	10.0870
 0.5850	10.0130
 0.5860	 9.9480
 0.5870	 9.8820
 0.5880	 9.8210
 0.5890	 9.7670
 0.5900	 9.7170
 0.5910	 9.6700
 0.5920	 9.6280
 0.5930	 9.5910
 0.5940	 9.5550
 0.5950	 9.5220
 0.5960	 9.4930
 0.5970	 9.4640
 0.5980	 9.4370
 0.5990	 9.4090
 0.6000	 9.3750
 0.6010	 9.3390
 0.6020	 9.3010
 0.6030	 9.2590
 0.6040	 9.2110
 0.6050	 9.1590
 0.6060	 9.0990
 0.6070	 9.0300
 0.6080	 8.9650
 0.6090	 8.9000
 0.6100	 8.8360
 0.6110	 8.7730
 0.6120	 8.7010
 0.6130	 8.6230
 0.6140	 8.5420
 0.6150	 8.4670
 0.6160	 8.3940
 0.6170	 8.3240
 0.6180	 8.2620
 0.6190	 8.2060
 0.6200	 8.1570
 0.6210	 8.1140
 0.6220	 8.0730
 0.6230	 8.0370
 0.6240	 8.0100
 0.6250	 7.9900
 0.6260	 7.9710
 0.6270	 7.9570
 0.6280	 7.9470
 0.6290	 7.9370
 0.6300	 7.9300
 0.6310	 7.9190
 0.6320	 7.9030
 0.6330	 7.8810
 0.6340	 7.8520
 0.6350	 7.8140
 0.6360	 7.7640
 0.6370	 7.7010
 0.6380	 7.6320
 0.6390	 7.5580
 0.6400	 7.4770
 0.6410	 7.3900
 0.6420	 7.3020
 0.6430	 7.2140
 0.6440	 7.1260
 0.6450	 7.0380
 0.6460	 6.9520
 0.6470	 6.8710
 0.6480	 6.7990
 0.6490	 6.7360
 0.6500	 6.6830
 0.6510	 6.6400
 0.6520	 6.6050
 0.6530	 6.5750
 0.6540	 6.5460
 0.6550	 6.5170
 0.6560	 6.4850
 0.6570	 6.4480
 0.6580	 6.4010
 0.6590	 6.3490
 0.6600	 6.2960
 0.6610	 6.2440
 0.6620	 6.1890
 0.6630	 6.1360
 0.6640	 6.0870
 0.6650	 6.0450
 0.6660	 6.0110
 0.6670	 5.9860
 0.6680	 5.9670
 0.6690	 5.9570
 0.6700	 5.9570
 0.6710	 5.9640
 0.6720	 5.9780
 0.6730	 6.0000
 0.6740	 6.0300
 0.6750	 6.0660
 0.6760	 6.1080
 0.6770	 6.1610
 0.6780	 6.2200
 0.6790	 6.2850
 0.6800	 6.3600
 0.6810	 6.4440
 0.6820	 6.5370
 0.6830	 6.6400
 0.6840	 6.7580
 0.6850	 6.8910
 0.6860	 7.0450
 0.6870	 7.2270
 0.6880	 7.4420
 0.6890	 7.7000
 0.6900	 8.0090
 0.6910	 8.3740
 0.6920	 8.8020
 0.6930	 9.2930
 0.6940	 9.8480
 0.6950	10.4630
 0.6960	11.1370
 0.6970	11.8630
 0.6980	12.6330
 0.6990	13.4470
 0.7000	14.2970
 0.7010	15.1750
 0.7020	16.0670
 0.7030	16.9680
 0.7040	17.8730
 0.7050	18.7780
 0.7060	19.6840
 0.7070	20.5900
 0.7080	21.4950
 0.7090	22.4020
 0.7100	23.3090
 0.7110	24.2170
 0.7120	25.1290
 0.7130	26.0430
 0.7140	26.9590
 0.7150	27.8760
 0.7160	28.7940
 0.7170	29.7150
 0.7180	30.6320
 0.7190	31.5410
 0.7200	32.4410
 0.7210	33.3320
 0.7220	34.2110
 0.7230	35.0720
 0.7240	35.9130
 0.7250	36.7330
 0.7260	37.5300
 0.7270	38.3050
 0.7280	39.0480
 0.7290	39.7640
 0.7300	40.4500
 0.7310	41.1040
 0.7320	41.7310
 0.7330	42.3250
 0.7340	42.8860
 0.7350	43.4140
 0.7360	43.9140
 0.7370	44.3830
 0.7380	44.8200
 0.7390	45.2300
 0.7400	45.6120
 0.7410	45.9660
 0.7420	46.2900
 0.7430	46.5880
 0.7440	46.8580
 0.7450	47.1030
 0.7460	47.3240
 0.7470	47.5230
 0.7480	47.7030
 0.7490	47.8640
 0.7500	48.0050
 0.7510	48.1290
 0.7520	48.2420
 0.7530	48.3460
 0.7540	48.4370
 0.7550	48.5160
 0.7560	48.5860
 0.7570	48.6510
 0.7580	48.7090
 0.7590	48.7580
 0.7600	48.8000
 0.7610	48.8380
 0.7620	48.8710
 0.7630	48.9000
 0.7640	48.9250
 0.7650	48.9430
 0.7660	48.9560
 0.7670	48.9690
 0.7680	48.9800
 0.7690	48.9870
 0.7700	48.9920
 0.7710	48.9980
 0.7720	49.0020
 0.7730	49.0060
 0.7740	49.0100
 0.7750	49.0120
 0.7760	49.0170
 0.7770	49.0220
 0.7780	49.0270
 0.7790	49.0320
 0.7800	49.0360
 0.7810	49.0410
 0.7820	49.0450
 0.7830	49.0490
 0.7840	49.0520
 0.7850	49.0540
 0.7860	49.0570
 0.7870	49.0600
 0.7880	49.0630
 0.7890	49.0640
 0.7900	49.0610
 0.7910	49.0640
 0.7920	49.0650
 0.7930	49.0620
 0.7940	49.0580
 0.7950	49.0560
 0.7960	49.0540
 0.7970	49.0500
 0.7980	49.0440
 0.7990	49.0380
 0.8000	49.0300
 0.8010	49.0220
 0.8020	49.0150
 0.8030	49.0080
 0.8040	48.9990
 0.8050	48.9890
 0.8060	48.9790
 0.8070	48.9700
 0.8080	48.9600
 0.8090	48.9470
 0.8100	48.9360
 0.8110	48.9280
 0.8120	48.9190
 0.8130	48.9030
 0.8140	48.8880
 0.8150	48.8750
 0.8160	48.8610
 0.8170	48.8490
 0.8180	48.8380
 0.8190	48.8260
 0.8200	48.8130
 0.8210	48.8030
 0.8220	48.7920
 0.8230	48.7790
 0.8240	48.7650
 0.8250	48.7530
 0.8260	48.7440
 0.8270	48.7340
 0.8280	48.7190
 0.8290	48.7030
 0.8300	48.6910
 0.8310	48.6810
 0.8320	48.6720
 0.8330	48.6630
 0.8340	48.6560
 0.8350	48.6480
 0.8360	48.6400
 0.8370	48.6360
 0.8380	48.6340
 0.8390	48.6290
 0.8400	48.6270
 0.8410	48.6250
 0.8420	48.6240
 0.8430	48.6220
 0.8440	48.6220
 0.8450	48.6220
 0.8460	48.6230
 0.8470	48.6230
 0.8480	48.6240
 0.8490	48.6260
 0.8500	48.6290
 0.8510	48.6290
 0.8520	48.6330
 0.8530	48.6410
 0.8540	48.6430
 0.8550	48.6480
 0.8560	48.6520
 0.8570	48.6550
 0.8580	48.6600
 0.8590	48.6680
 0.8600	48.6760
 0.8610	48.6810
 0.8620	48.6890
 0.8630	48.6940
 0.8640	48.7010
 0.8650	48.7110
 0.8660	48.7220
 0.8670	48.7300
 0.8680	48.7360
 0.8690	48.7420
 0.8700	48.7500
 0.8710	48.7580
 0.8720	48.7680
 0.8730	48.7790
 0.8740	48.7870
 0.8750	48.7990
 0.8760	48.8130
 0.8770	48.8220
 0.8780	48.8310
 0.8790	48.8400
 0.8800	48.8480
 0.8810	48.8550
 0.8820	48.8680
 0.8830	48.8800
 0.8840	48.8870
 0.8850	48.8950
 0.8860	48.9030
 0.8870	48.9090
 0.8880	48.9130
 0.8890	48.9290
 0.8900	48.9410
 0.8910	48.9470
 0.8920	48.9580
 0.8930	48.9660
 0.8940	48.9760
 0.8950	48.9850
 0.8960	48.9940
 0.8970	49.0020
 0.8980	49.0060
 0.8990	49.0110
 0.9000	49.0210
 0.9010	49.0320
 0.9020	49.0400
 0.9030	49.0450
 0.9040	49.0520
 0.9050	49.0570
 0.9060	49.0600
 0.9070	49.0630
 0.9080	49.0700
 0.9090	49.0760
 0.9100	49.0780
 0.9110	49.0740
 0.9120	49.0740
 0.9130	49.0760
 0.9140	49.0790
 0.9150	49.0800
 0.9160	49.0800
 0.9170	49.0730
 0.9180	49.0650
 0.9190	49.0610
 0.9200	49.0610
 0.9210	49.0520
 0.9220	49.0390
 0.9230	49.0360
 0.9240	49.0290
 0.9250	49.0150
 0.9260	48.9950
 0.9270	48.9760
 0.9280	48.9570
 0.9290	48.9390
 0.9300	48.9180
 0.9310	48.8910
 0.9320	48.8650
 0.9330	48.8340
 0.9340	48.8020
 0.9350	48.7840
 0.9360	48.7580
 0.9370	48.7260
 0.9380	48.6890
 0.9390	48.6480
 0.9400	48.6130
 0.9410	48.5780
 0.9420	48.5370
 0.9430	48.4900
 0.9440	48.4400
 0.9450	48.3900
 0.9460	48.3410
 0.9470	48.2870
 0.9480	48.2210
 0.9490	48.1520
 0.9500	48.0850
 0.9510	48.0080
 0.9520	47.9320
 0.9530	47.8590
 0.9540	47.7870
 0.9550	47.7120
 0.9560	47.6360
 0.9570	47.5640
 0.9580	47.5040
 0.9590	47.4470
 0.9600	47.3900
 0.9610	47.3350
 0.9620	47.2890
 0.9630	47.2500
 0.9640	47.2150
 0.9650	47.1810
 0.9660	47.1500
 0.9670	47.1160
 0.9680	47.0930
 0.9690	47.0740
 0.9700	47.0510
 0.9710	47.0430
 0.9720	47.0280
 0.9730	47.0090
 0.9740	46.9970
 0.9750	46.9960
 0.9760	46.9920
 0.9770	46.9830
 0.9780	46.9710
 0.9790	46.9630
 0.9800	46.9690
 0.9810	46.9790
 0.9820	46.9770
 0.9830	46.9840
 0.9840	46.9880
 0.9850	46.9920
 0.9860	47.0060
 0.9870	47.0220
 0.9880	47.0230
 0.9890	47.0270
 0.9900	47.0540
 0.9910	47.0580
 0.9920	47.0700
 0.9930	47.0920
 0.9940	47.1130
 0.9950	47.1340
 0.9960	47.1490
 0.9970	47.1600
 0.9980	47.1710
 0.9990	47.1930
 1.0000	47.2180
 1.0010	47.4510
 1.0020	47.4730
 1.0030	47.4930
 1.0040	47.5120
 1.0050	47.5300
 1.0060	47.5570
 1.0070	47.5810
 1.0080	47.6050
 1.0090	47.6310
 1.0100	47.6570
 1.0110	47.6810
 1.0120	47.7060
 1.0130	47.7340
 1.0140	47.7580
 1.0150	47.7790
 1.0160	47.8040
 1.0170	47.8250
 1.0180	47.8470
 1.0190	47.8740
 1.0200	47.8990
 1.0210	47.9200
 1.0220	47.9450
 1.0230	47.9680
 1.0240	47.9860
 1.0250	48.0090
 1.0260	48.0360
 1.0270	48.0610
 1.0280	48.0860
 1.0290	48.1100
 1.0300	48.1340
 1.0310	48.1570
 1.0320	48.1780
 1.0330	48.1990
 1.0340	48.2190
 1.0350	48.2380
 1.0360	48.2590
 1.0370	48.2780
 1.0380	48.2980
 1.0390	48.3180
 1.0400	48.3380
 1.0410	48.3580
 1.0420	48.3770
 1.0430	48.3940
 1.0440	48.4090
 1.0450	48.4220
 1.0460	48.4360
 1.0470	48.4480
 1.0480	48.4620
 1.0490	48.4780
 1.0500	48.4930
 1.0510	48.5080
 1.0520	48.5200
 1.0530	48.5320
 1.0540	48.5430
 1.0550	48.5540
 1.0560	48.5660
 1.0570	48.5760
 1.0580	48.5860
 1.0590	48.5940
 1.0600	48.5980
 1.0610	48.6030
 1.0620	48.6070
 1.0630	48.6120
 1.0640	48.6210
 1.0650	48.6270
 1.0660	48.6320
 1.0670	48.6370
 1.0680	48.6420
 1.0690	48.6450
 1.0700	48.6490
 1.0710	48.6530
 1.0720	48.6550
 1.0730	48.6570
 1.0740	48.6570
 1.0750	48.6540
 1.0760	48.6510
 1.0770	48.6450
 1.0780	48.6420
 1.0790	48.6400
 1.0800	48.6380
 1.0810	48.6370
 1.0820	48.6340
 1.0830	48.6280
 1.0840	48.6240
 1.0850	48.6170
 1.0860	48.6130
 1.0870	48.6080
 1.0880	48.6040
 1.0890	48.5970
 1.0900	48.5890
 1.0910	48.5810
 1.0920	48.5710
 1.0930	48.5600
 1.0940	48.5440
 1.0950	48.5330
 1.0960	48.5240
 1.0970	48.5130
 1.0980	48.5040
 1.0990	48.4930
 1.1000	48.4780
 1.1010	48.4630
 1.1020	48.4480
 1.1030	48.4350
 1.1040	48.4220
 1.1050	48.4070
 1.1060	48.3930
 1.1070	48.3800
 1.1080	48.3650
 1.1090	48.3480
 1.1100	48.3320
 1.1110	48.3170
 1.1120	48.2980
 1.1130	48.2780
 1.1140	48.2580
 1.1150	48.2370
 1.1160	48.2140
 1.1170	48.1890
 1.1180	48.1630
 1.1190	48.1370
 1.1200	48.1040
 1.1210	48.0700
 1.1220	48.0360
 1.1230	47.9950
 1.1240	47.9500
 1.1250	47.8980
 1.1260	47.8430
 1.1270	47.7790
 1.1280	47.7080
 1.1290	47.6280
 1.1300	47.5430
 1.1310	47.4470
 1.1320	47.3440
 1.1330	47.2330
 1.1340	47.1120
 1.1350	46.9840
 1.1360	46.8500
 1.1370	46.7050
 1.1380	46.5540
 1.1390	46.4000
 1.1400	46.2370
 1.1410	46.0730
 1.1420	45.9060
 1.1430	45.7350
 1.1440	45.5680
 1.1450	45.3980
 1.1460	45.2360
 1.1470	45.0740
 1.1480	44.9220
 1.1490	44.7740
 1.1500	44.6350
 1.1510	44.4990
 1.1520	44.3760
 1.1530	44.2610
 1.1540	44.1540
 1.1550	44.0570
 1.1560	43.9670
 1.1570	43.8830
 1.1580	43.8060
 1.1590	43.7350
 1.1600	43.6710
 1.1610	43.6180
 1.1620	43.5700
 1.1630	43.5260
 1.1640	43.4850
 1.1650	43.4480
 1.1660	43.4130
 1.1670	43.3820
 1.1680	43.3550
 1.1690	43.3300
 1.1700	43.3080
 1.1710	43.2870
 1.1720	43.2700
 1.1730	43.2500
 1.1740	43.2300
 1.1750	43.2090
 1.1760	43.1890
 1.1770	43.1660
 1.1780	43.1460
 1.1790	43.1250
 1.1800	43.1000
 1.1810	43.0760
 1.1820	43.0520
 1.1830	43.0290
 1.1840	43.0060
 1.1850	42.9840
 1.1860	42.9610
 1.1870	42.9370
 1.1880	42.9160
 1.1890	42.8960
 1.1900	42.8770
 1.1910	42.8600
 1.1920	42.8430
 1.1930	42.8280
 1.1940	42.8130
 1.1950	42.8000
 1.1960	42.7880
 1.1970	42.7810
 1.1980	42.7750
 1.1990	42.7720
 1.2000	42.7730
 1.2010	42.7730
 1.2020	42.7740
 1.2030	42.7770
 1.2040	42.7820
 1.2050	42.7900
 1.2060	42.8010
 1.2070	42.8130
 1.2080	42.8280
 1.2090	42.8450
 1.2100	42.8640
 1.2110	42.8840
 1.2120	42.9070
 1.2130	42.9300
 1.2140	42.9550
 1.2150	42.9800
 1.2160	43.0080
 1.2170	43.0370
 1.2180	43.0670
 1.2190	43.0960
 1.2200	43.1280
 1.2210	43.1600
 1.2220	43.1930
 1.2230	43.2260
 1.2240	43.2590
 1.2250	43.2920
 1.2260	43.3230
 1.2270	43.3540
 1.2280	43.3850
 1.2290	43.4150
 1.2300	43.4440
 1.2310	43.4720
 1.2320	43.4990
 1.2330	43.5240
 1.2340	43.5490
 1.2350	43.5750
 1.2360	43.6000
 1.2370	43.6240
 1.2380	43.6470
 1.2390	43.6690
 1.2400	43.6890
 1.2410	43.7060
 1.2420	43.7230
 1.2430	43.7410
 1.2440	43.7610
 1.2450	43.7800
 1.2460	43.7990
 1.2470	43.8190
 1.2480	43.8340
 1.2490	43.8500
 1.2500	43.8670
 1.2510	43.8800
 1.2520	43.8930
 1.2530	43.9070
 1.2540	43.9200
 1.2550	43.9320
 1.2560	43.9430
 1.2570	43.9510
 1.2580	43.9580
 1.2590	43.9650
 1.2600	43.9710
 1.2610	43.9750
 1.2620	43.9780
 1.2630	43.9800
 1.2640	43.9800
 1.2650	43.9780
 1.2660	43.9760
 1.2670	43.9730
 1.2680	43.9680
 1.2690	43.9620
 1.2700	43.9560
 1.2710	43.9490
 1.2720	43.9410
 1.2730	43.9310
 1.2740	43.9190
 1.2750	43.9050
 1.2760	43.8890
 1.2770	43.8720
 1.2780	43.8550
 1.2790	43.8350
 1.2800	43.8150
 1.2810	43.7900
 1.2820	43.7630
 1.2830	43.7350
 1.2840	43.7030
 1.2850	43.6720
 1.2860	43.6400
 1.2870	43.6040
 1.2880	43.5650
 1.2890	43.5250
 1.2900	43.4820
 1.2910	43.4380
 1.2920	43.3920
 1.2930	43.3430
 1.2940	43.2920
 1.2950	43.2370
 1.2960	43.1780
 1.2970	43.1190
 1.2980	43.0580
 1.2990	42.9930
 1.3000	42.9260
 1.3010	42.8570
 1.3020	42.7840
 1.3030	42.7070
 1.3040	42.6270
 1.3050	42.5470
 1.3060	42.4630
 1.3070	42.3750
 1.3080	42.2870
 1.3090	42.1950
 1.3100	42.0990
 1.3110	42.0000
 1.3120	41.8970
 1.3130	41.7910
 1.3140	41.6810
 1.3150	41.5680
 1.3160	41.4510
 1.3170	41.3310
 1.3180	41.2050
 1.3190	41.0780
 1.3200	40.9490
 1.3210	40.8180
 1.3220	40.6860
 1.3230	40.5500
 1.3240	40.4110
 1.3250	40.2690
 1.3260	40.1240
 1.3270	39.9760
 1.3280	39.8260
 1.3290	39.6730
 1.3300	39.5180
 1.3310	39.3620
 1.3320	39.2030
 1.3330	39.0450
 1.3340	38.8880
 1.3350	38.7300
 1.3360	38.5730
 1.3370	38.4150
 1.3380	38.2560
 1.3390	38.1000
 1.3400	37.9440
 1.3410	37.7910
 1.3420	37.6390
 1.3430	37.4880
 1.3440	37.3380
 1.3450	37.1910
 1.3460	37.0440
 1.3470	36.9010
 1.3480	36.7600
 1.3490	36.6210
 1.3500	36.4830
 1.3510	36.3470
 1.3520	36.2120
 1.3530	36.0780
 1.3540	35.9430
 1.3550	35.8070
 1.3560	35.6710
 1.3570	35.5320
 1.3580	35.3920
 1.3590	35.2490
 1.3600	35.1010
 1.3610	34.9480
 1.3620	34.7900
 1.3630	34.6260
 1.3640	34.4530
 1.3650	34.2720
 1.3660	34.0830
 1.3670	33.8820
 1.3680	33.6690
 1.3690	33.4420
 1.3700	33.1980
 1.3710	32.9400
 1.3720	32.6670
 1.3730	32.3730
 1.3740	32.0630
 1.3750	31.7310
 1.3760	31.3730
 1.3770	30.9920
 1.3780	30.5820
 1.3790	30.1470
 1.3800	29.6900
 1.3810	29.2040
 1.3820	28.6990
 1.3830	28.1740
 1.3840	27.6300
 1.3850	27.0630
 1.3860	26.4870
 1.3870	25.8900
 1.3880	25.2950
 1.3890	24.6910
 1.3900	24.0810
 1.3910	23.4770
 1.3920	22.8740
 1.3930	22.2720
 1.3940	21.6800
 1.3950	21.0950
 1.3960	20.5220
 1.3970	19.9660
 1.3980	19.4280
 1.3990	18.9160
 1.4000	18.4230
 1.4010	17.9490
 1.4020	17.4990
 1.4030	17.0700
 1.4040	16.6640
 1.4050	16.2820
 1.4060	15.9220
 1.4070	15.5870
 1.4080	15.2720
 1.4090	14.9770
 1.4100	14.7040
 1.4110	14.4480
 1.4120	14.2100
 1.4130	13.9890
 1.4140	13.7810
 1.4150	13.5920
 1.4160	13.4160
 1.4170	13.2530
 1.4180	13.1020
 1.4190	12.9610
 1.4200	12.8290
 1.4210	12.7070
 1.4220	12.5930
 1.4230	12.4890
 1.4240	12.3930
 1.4250	12.3030
 1.4260	12.2200
 1.4270	12.1420
 1.4280	12.0700
 1.4290	12.0040
 1.4300	11.9460
 1.4310	11.8910
 1.4320	11.8420
 1.4330	11.7950
 1.4340	11.7530
 1.4350	11.7150
 1.4360	11.6810
 1.4370	11.6490
 1.4380	11.6220
 1.4390	11.5970
 1.4400	11.5750
 1.4410	11.5570
 1.4420	11.5410
 1.4430	11.5290
 1.4440	11.5180
 1.4450	11.5090
 1.4460	11.5030
 1.4470	11.4980
 1.4480	11.4970
 1.4490	11.4960
 1.4500	11.4970
 1.4510	11.4990
 1.4520	11.5030
 1.4530	11.5100
 1.4540	11.5200
 1.4550	11.5320
 1.4560	11.5460
 1.4570	11.5630
 1.4580	11.5820
 1.4590	11.6030
 1.4600	11.6280
 1.4610	11.6570
 1.4620	11.6890
 1.4630	11.7260
 1.4640	11.7660
 1.4650	11.8110
 1.4660	11.8600
 1.4670	11.9120
 1.4680	11.9690
 1.4690	12.0290
 1.4700	12.0920
 1.4710	12.1600
 1.4720	12.2300
 1.4730	12.3050
 1.4740	12.3830
 1.4750	12.4630
 1.4760	12.5470
 1.4770	12.6330
 1.4780	12.7210
 1.4790	12.8120
 1.4800	12.9050
 1.4810	12.9990
 1.4820	13.0970
 1.4830	13.1950
 1.4840	13.2960
 1.4850	13.4000
 1.4860	13.5040
 1.4870	13.6100
 1.4880	13.7170
 1.4890	13.8240
 1.4900	13.9340
 1.4910	14.0450
 1.4920	14.1570
 1.4930	14.2710
 1.4940	14.3860
 1.4950	14.5010
 1.4960	14.6170
 1.4970	14.7330
 1.4980	14.8510
 1.4990	14.9700
 1.5000	15.0890
 1.5010	15.2110
 1.5020	15.3320
 1.5030	15.4540
 1.5040	15.5750
 1.5050	15.6960
 1.5060	15.8190
 1.5070	15.9430
 1.5080	16.0680
 1.5090	16.1940
 1.5100	16.3190
 1.5110	16.4440
 1.5120	16.5700
 1.5130	16.6940
 1.5140	16.8200
 1.5150	16.9470
 1.5160	17.0710
 1.5170	17.1980
 1.5180	17.3250
 1.5190	17.4500
 1.5200	17.5770
 1.5210	17.7010
 1.5220	17.8260
 1.5230	17.9520
 1.5240	18.0770
 1.5250	18.2040
 1.5260	18.3300
 1.5270	18.4540
 1.5280	18.5790
 1.5290	18.7020
 1.5300	18.8240
 1.5310	18.9490
 1.5320	19.0720
 1.5330	19.1940
 1.5340	19.3170
 1.5350	19.4380
 1.5360	19.5590
 1.5370	19.6790
 1.5380	19.7990
 1.5390	19.9190
 1.5400	20.0370
 1.5410	20.1560
 1.5420	20.2740
 1.5430	20.3920
 1.5440	20.5090
 1.5450	20.6230
 1.5460	20.7360
 1.5470	20.8490
 1.5480	20.9620
 1.5490	21.0760
 1.5500	21.1870
 1.5510	21.2990
 1.5520	21.4100
 1.5530	21.5180
 1.5540	21.6260
 1.5550	21.7330
 1.5560	21.8390
 1.5570	21.9450
 1.5580	22.0490
 1.5590	22.1510
 1.5600	22.2540
 1.5610	22.3550
 1.5620	22.4550
 1.5630	22.5560
 1.5640	22.6540
 1.5650	22.7520
 1.5660	22.8490
 1.5670	22.9470
 1.5680	23.0440
 1.5690	23.1380
 1.5700	23.2320
 1.5710	23.3240
 1.5720	23.4160
 1.5730	23.5070
 1.5740	23.5960
 1.5750	23.6840
 1.5760	23.7710
 1.5770	23.8580
 1.5780	23.9460
 1.5790	24.0310
 1.5800	24.1150
 1.5810	24.1990
 1.5820	24.2810
 1.5830	24.3620
 1.5840	24.4430
 1.5850	24.5210
 1.5860	24.6000
 1.5870	24.6790
 1.5880	24.7580
 1.5890	24.8360
 1.5900	24.9100
 1.5910	24.9840
 1.5920	25.0590
 1.5930	25.1310
 1.5940	25.2030
 1.5950	25.2770
 1.5960	25.3480
 1.5970	25.4200
 1.5980	25.4910
 1.5990	25.5600
 1.6000	25.6270
 1.6010	25.6940
 1.6020	25.7600
 1.6030	25.8270
 1.6040	25.8910
 1.6050	25.9540
 1.6060	26.0170
 1.6070	26.0790
 1.6080	26.1400
 1.6090	26.2010
 1.6100	26.2600
 1.6110	26.3170
 1.6120	26.3750
 1.6130	26.4330
 1.6140	26.4910
 1.6150	26.5480
 1.6160	26.6020
 1.6170	26.6540
 1.6180	26.7050
 1.6190	26.7570
 1.6200	26.8080
 1.6210	26.8590
 1.6220	26.9070
 1.6230	26.9530
 1.6240	27.0010
 1.6250	27.0490
 1.6260	27.0950
 1.6270	27.1420
 1.6280	27.1860
 1.6290	27.2300
 1.6300	27.2760
 1.6310	27.3190
 1.6320	27.3610
 1.6330	27.4020
 1.6340	27.4420
 1.6350	27.4800
 1.6360	27.5170
 1.6370	27.5510
 1.6380	27.5820
 1.6390	27.6150
 1.6400	27.6490
 1.6410	27.6800
 1.6420	27.7120
 1.6430	27.7400
 1.6440	27.7640
 1.6450	27.7890
 1.6460	27.8120
 1.6470	27.8340
 1.6480	27.8550
 1.6490	27.8740
 1.6500	27.8910
 1.6510	27.9060
 1.6520	27.9190
 1.6530	27.9310
 1.6540	27.9420
 1.6550	27.9520
 1.6560	27.9620
 1.6570	27.9700
 1.6580	27.9760
 1.6590	27.9790
 1.6600	27.9810
 1.6610	27.9850
 1.6620	27.9880
 1.6630	27.9900
 1.6640	27.9930
 1.6650	27.9940
 1.6660	27.9950
 1.6670	27.9960
 1.6680	27.9950
 1.6690	27.9930
 1.6700	27.9930
 1.6710	27.9930
 1.6720	27.9920
 1.6730	27.9880
 1.6740	27.9800
 1.6750	27.9710
 1.6760	27.9610
 1.6770	27.9500
 1.6780	27.9390
 1.6790	27.9260
 1.6800	27.9100
 1.6810	27.8930
 1.6820	27.8740
 1.6830	27.8540
 1.6840	27.8330
 1.6850	27.8110
 1.6860	27.7870
 1.6870	27.7590
 1.6880	27.7290
 1.6890	27.6990
 1.6900	27.6660
 1.6910	27.6310
 1.6920	27.5940
 1.6930	27.5540
 1.6940	27.5130
 1.6950	27.4710
 1.6960	27.4290
 1.6970	27.3850
 1.6980	27.3380
 1.6990	27.2890
 1.7000	27.2380
 1.7010	27.1830
 1.7020	27.1300
 1.7030	27.0770
 1.7040	27.0220
 1.7050	26.9660
 1.7060	26.9100
 1.7070	26.8510
 1.7080	26.7940
 1.7090	26.7390
 1.7100	26.6810
 1.7110	26.6220
 1.7120	26.5650
 1.7130	26.5080
 1.7140	26.4540
 1.7150	26.4020
 1.7160	26.3480
 1.7170	26.2970
 1.7180	26.2460
 1.7190	26.1960
 1.7200	26.1480
 1.7210	26.1000
 1.7220	26.0510
 1.7230	26.0020
 1.7240	25.9540
 1.7250	25.9080
 1.7260	25.8610
 1.7270	25.8170
 1.7280	25.7760
 1.7290	25.7340
 1.7300	25.6970
 1.7310	25.6590
 1.7320	25.6180
 1.7330	25.5790
 1.7340	25.5420
 1.7350	25.5020
 1.7360	25.4630
 1.7370	25.4200
 1.7380	25.3740
 1.7390	25.3250
 1.7400	25.2720
 1.7410	25.2170
 1.7420	25.1580
 1.7430	25.0960
 1.7440	25.0310
 1.7450	24.9630
 1.7460	24.8900
 1.7470	24.8170
 1.7480	24.7410
 1.7490	24.6660
 1.7500	24.5890
 1.7510	24.5130
 1.7520	24.4350
 1.7530	24.3590
 1.7540	24.2850
 1.7550	24.2100
 1.7560	24.1380
 1.7570	24.0660
 1.7580	23.9950
 1.7590	23.9270
 1.7600	23.8610
 1.7610	23.7970
 1.7620	23.7350
 1.7630	23.6730
 1.7640	23.6150
 1.7650	23.5620
 1.7660	23.5090
 1.7670	23.4610
 1.7680	23.4110
 1.7690	23.3610
 1.7700	23.3140
 1.7710	23.2670
 1.7720	23.2230
 1.7730	23.1810
 1.7740	23.1400
 1.7750	23.1020
 1.7760	23.0660
 1.7770	23.0310
 1.7780	22.9980
 1.7790	22.9660
 1.7800	22.9380
 1.7810	22.9120
 1.7820	22.8890
 1.7830	22.8710
 1.7840	22.8520
 1.7850	22.8350
 1.7860	22.8210
 1.7870	22.8080
 1.7880	22.7990
 1.7890	22.7930
 1.7900	22.7860
 1.7910	22.7820
 1.7920	22.7810
 1.7930	22.7810
 1.7940	22.7850
 1.7950	22.7880
 1.7960	22.7920
 1.7970	22.7960
 1.7980	22.7980
 1.7990	22.8030
 1.8000	22.8100
 1.8010	22.8170
 1.8020	22.8240
 1.8030	22.8320
 1.8040	22.8410
 1.8050	22.8480
 1.8060	22.8570
 1.8070	22.8640
 1.8080	22.8700
 1.8090	22.8770
 1.8100	22.8860
 1.8110	22.8930
 1.8120	22.8980
 1.8130	22.9030
 1.8140	22.9100
 1.8150	22.9140
 1.8160	22.9170
 1.8170	22.9200
 1.8180	22.9170
 1.8190	22.9180
 1.8200	22.9160
 1.8210	22.9130
 1.8220	22.9100
 1.8230	22.9050
 1.8240	22.8980
 1.8250	22.8890
 1.8260	22.8800
 1.8270	22.8700
 1.8280	22.8540
 1.8290	22.8350
 1.8300	22.8120
 1.8310	23.0530
 1.8320	23.0140
 1.8330	22.9730
 1.8340	22.9340
 1.8350	22.8890
 1.8360	22.8430
 1.8370	22.7920
 1.8380	22.7280
 1.8390	22.6610
 1.8400	22.5870
 1.8410	22.5080
 1.8420	22.4230
 1.8430	22.3350
 1.8440	22.2380
 1.8450	22.1320
 1.8460	22.0210
 1.8470	21.9020
 1.8480	21.7690
 1.8490	21.6260
 1.8500	21.4730
 1.8510	21.3090
 1.8520	21.1330
 1.8530	20.9480
 1.8540	20.7550
 1.8550	20.5480
 1.8560	20.3290
 1.8570	20.0940
 1.8580	19.8430
 1.8590	19.5810
 1.8600	19.3070
 1.8610	19.0180
 1.8620	18.7140
 1.8630	18.3980
 1.8640	18.0670
 1.8650	17.7230
 1.8660	17.3710
 1.8670	17.0040
 1.8680	16.6260
 1.8690	16.2340
 1.8700	15.8260
 1.8710	15.4020
 1.8720	14.9760
 1.8730	14.5410
 1.8740	14.0970
 1.8750	13.6580
 1.8760	13.2170
 1.8770	12.7780
 1.8780	12.3450
 1.8790	11.9200
 1.8800	11.5070
 1.8810	11.1050
 1.8820	10.7100
 1.8830	10.3230
 1.8840	 9.9490
 1.8850	 9.5810
 1.8860	 9.2250
 1.8870	 8.8880
 1.8880	 8.5640
 1.8890	 8.2580
 1.8900	 7.9730
 1.8910	 7.7050
 1.8920	 7.4540
 1.8930	 7.2200
 1.8940	 7.0030
 1.8950	 6.8050
 1.8960	 6.6260
 1.8970	 6.4630
 1.8980	 6.3180
 1.8990	 6.1840
 1.9000	 6.0630
 1.9010	 5.9570
 1.9020	 5.8570
 1.9030	 5.7680
 1.9040	 5.6900
 1.9050	 5.6160
 1.9060	 5.5470
 1.9070	 5.4890
 1.9080	 5.4390
 1.9090	 5.3970
 1.9100	 5.3660
 1.9110	 5.3360
 1.9120	 5.3130
 1.9130	 5.2880
 1.9140	 5.2660
 1.9150	 5.2420
 1.9160	 5.2220
 1.9170	 5.2050
 1.9180	 5.1860
 1.9190	 5.1710
 1.9200	 5.1590
 1.9210	 5.1460
 1.9220	 5.1380
 1.9230	 5.1350
 1.9240	 5.1290
 1.9250	 5.1230
 1.9260	 5.1200
 1.9270	 5.1170
 1.9280	 5.1140
 1.9290	 5.1140
 1.9300	 5.1140
 1.9310	 5.1150
 1.9320	 5.1160
 1.9330	 5.1190
 1.9340	 5.1250
 1.9350	 5.1300
 1.9360	 5.1360
 1.9370	 5.1430
 1.9380	 5.1500
 1.9390	 5.1590
 1.9400	 5.1660
 1.9410	 5.1760
 1.9420	 5.1860
 1.9430	 5.1970
 1.9440	 5.2070
 1.9450	 5.2180
 1.9460	 5.2300
 1.9470	 5.2410
 1.9480	 5.2550
 1.9490	 5.2710
 1.9500	 5.2890
 1.9510	 5.3060
 1.9520	 5.3240
 1.9530	 5.3410
 1.9540	 5.3580
 1.9550	 5.3760
 1.9560	 5.3940
 1.9570	 5.4140
 1.9580	 5.4350
 1.9590	 5.4550
 1.9600	 5.4750
 1.9610	 5.4960
 1.9620	 5.5160
 1.9630	 5.5380
 1.9640	 5.5630
 1.9650	 5.5890
 1.9660	 5.6160
 1.9670	 5.6420
 1.9680	 5.6660
 1.9690	 5.6880
 1.9700	 5.7140
 1.9710	 5.7400
 1.9720	 5.7660
 1.9730	 5.7940
 1.9740	 5.8230
 1.9750	 5.8470
 1.9760	 5.8750
 1.9770	 5.9070
 1.9780	 5.9380
 1.9790	 5.9700
 1.9800	 6.0050
 1.9810	 6.0390
 1.9820	 6.0710
 1.9830	 6.1040
 1.9840	 6.1360
 1.9850	 6.1690
 1.9860	 6.2020
 1.9870	 6.2370
 1.9880	 6.2700
 1.9890	 6.3060
 1.9900	 6.3460
 1.9910	 6.3820
 1.9920	 6.4210
 1.9930	 6.4670
 1.9940	 6.5070
 1.9950	 6.5430
 1.9960	 6.5810
 1.9970	 6.6140
 1.9980	 6.6520
 1.9990	 6.6920
 2.0000	 6.7330
 2.0010	 6.7750
 2.0020	 6.8190
 2.0030	 6.8620
 2.0040	 6.9050
 2.0050	 6.9470
 2.0060	 6.9890
 2.0070	 7.0310
 2.0080	 7.0700
 2.0090	 7.1130
 2.0100	 7.1590
 2.0110	 7.2040
 2.0120	 7.2500
 2.0130	 7.2970
 2.0140	 7.3430
 2.0150	 7.3870
 2.0160	 7.4340
 2.0170	 7.4770
 2.0180	 7.5220
 2.0190	 7.5680
 2.0200	 7.6130
 2.0210	 7.6580
 2.0220	 7.7030
 2.0230	 7.7470
 2.0240	 7.7920
 2.0250	 7.8370
 2.0260	 7.8830
 2.0270	 7.9280
 2.0280	 7.9740
 2.0290	 8.0190
 2.0300	 8.0640
 2.0310	 8.1090
 2.0320	 8.1520
 2.0330	 8.1970
 2.0340	 8.2430
 2.0350	 8.2890
 2.0360	 8.3400
 2.0370	 8.3880
 2.0380	 8.4350
 2.0390	 8.4810
 2.0400	 8.5240
 2.0410	 8.5680
 2.0420	 8.6110
 2.0430	 8.6560
 2.0440	 8.7010
 2.0450	 8.7480
 2.0460	 8.7930
 2.0470	 8.8400
 2.0480	 8.8850
 2.0490	 8.9300
 2.0500	 8.9750
 2.0510	 9.0200
 2.0520	 9.0650
 2.0530	 9.1080
 2.0540	 9.1540
 2.0550	 9.2020
 2.0560	 9.2500
 2.0570	 9.2960
 2.0580	 9.3430
 2.0590	 9.3890
 2.0600	 9.4350
 2.0610	 9.4810
 2.0620	 9.5300
 2.0630	 9.5770
 2.0640	 9.6220
 2.0650	 9.6700
 2.0660	 9.7200
 2.0670	 9.7680
 2.0680	 9.8170
 2.0690	 9.8650
 2.0700	 9.9130
 2.0710	 9.9600
 2.0720	10.0080
 2.0730	10.0550
 2.0740	10.1050
 2.0750	10.1560
 2.0760	10.2060
 2.0770	10.2590
 2.0780	10.3090
 2.0790	10.3570
 2.0800	10.4070
 2.0810	10.4590
 2.0820	10.5090
 2.0830	10.5550
 2.0840	10.6050
 2.0850	10.6550
 2.0860	10.7050
 2.0870	10.7570
 2.0880	10.8080
 2.0890	10.8580
 2.0900	10.9060
 2.0910	10.9550
 2.0920	11.0040
 2.0930	11.0520
 2.0940	11.0980
 2.0950	11.1460
 2.0960	11.1940
 2.0970	11.2410
 2.0980	11.2910
 2.0990	11.3380
 2.1000	11.3810
 2.1010	11.4270
 2.1020	11.4740
 2.1030	11.5210
 2.1040	11.5680
 2.1050	11.6190
 2.1060	11.6680
 2.1070	11.7170
 2.1080	11.7640
 2.1090	11.8120
 2.1100	11.8600
 2.1110	11.9040
 2.1120	11.9520
 2.1130	12.0020
 2.1140	12.0490
 2.1150	12.0960
 2.1160	12.1420
 2.1170	12.1880
 2.1180	12.2310
 2.1190	12.2720
 2.1200	12.3150
 2.1210	12.3600
 2.1220	12.4010
 2.1230	12.4450
 2.1240	12.4930
 2.1250	12.5340
 2.1260	12.5710
 2.1270	12.6090
 2.1280	12.6440
 2.1290	12.6800
 2.1300	12.7160
 2.1310	12.7520
 2.1320	12.7890
 2.1330	12.8250
 2.1340	12.8620
 2.1350	12.8970
 2.1360	12.9280
 2.1370	12.9600
 2.1380	12.9890
 2.1390	13.0200
 2.1400	13.0530
 2.1410	13.0860
 2.1420	13.1170
 2.1430	13.1490
 2.1440	13.1790
 2.1450	13.2070
 2.1460	13.2390
 2.1470	13.2730
 2.1480	13.3030
 2.1490	13.3330
 2.1500	13.3600
 2.1510	13.3820
 2.1520	13.4070
 2.1530	13.4320
 2.1540	13.4560
 2.1550	13.4800
 2.1560	13.5040
 2.1570	13.5250
 2.1580	13.5480
 2.1590	13.5690
 2.1600	13.5950
 2.1610	13.6180
 2.1620	13.6390
 2.1630	13.6600
 2.1640	13.6800
 2.1650	13.7000
 2.1660	13.7200
 2.1670	13.7390
 2.1680	13.7590
 2.1690	13.7800
 2.1700	13.8020
 2.1710	13.8230
 2.1720	13.8440
 2.1730	13.8660
 2.1740	13.8900
 2.1750	13.9120
 2.1760	13.9340
 2.1770	13.9550
 2.1780	13.9690
 2.1790	13.9870
 2.1800	14.0100
 2.1810	14.0290
 2.1820	14.0470
 2.1830	14.0660
 2.1840	14.0840
 2.1850	14.0980
 2.1860	14.1150
 2.1870	14.1330
 2.1880	14.1520
 2.1890	14.1730
 2.1900	14.1900
 2.1910	14.2090
 2.1920	14.2260
 2.1930	14.2380
 2.1940	14.2530
 2.1950	14.2690
 2.1960	14.2860
 2.1970	14.3060
 2.1980	14.3210
 2.1990	14.3340
 2.2000	14.3460
 2.2010	14.3550
 2.2020	14.3640
 2.2030	14.3740
 2.2040	14.3840
 2.2050	14.3930
 2.2060	14.4030
 2.2070	14.4130
 2.2080	14.4240
 2.2090	14.4340
 2.2100	14.4440
 2.2110	14.4530
 2.2120	14.4600
 2.2130	14.4670
 2.2140	14.4730
 2.2150	14.4770
 2.2160	14.4790
 2.2170	14.4800
 2.2180	14.4770
 2.2190	14.4760
 2.2200	14.4740
 2.2210	14.4720
 2.2220	14.4690
 2.2230	14.4650
 2.2240	14.4600
 2.2250	14.4540
 2.2260	14.4450
 2.2270	14.4370
 2.2280	14.4290
 2.2290	14.4170
 2.2300	14.4040
 2.2310	14.3890
 2.2320	14.3700
 2.2330	14.3480
 2.2340	14.3270
 2.2350	14.3060
 2.2360	14.2820
 2.2370	14.2560
 2.2380	14.2320
 2.2390	14.2060
 2.2400	14.1800
 2.2410	14.1590
 2.2420	14.1260
 2.2430	14.0850
 2.2440	14.0490
 2.2450	14.0100
 2.2460	13.9720
 2.2470	13.9420
 2.2480	13.9010
 2.2490	13.8500
 2.2500	13.8070
 2.2510	13.7640
 2.2520	13.7220
 2.2530	13.6890
 2.2540	13.6480
 2.2550	13.6020
 2.2560	13.5540
 2.2570	13.4990
 2.2580	13.4480
 2.2590	13.3950
 2.2600	13.3440
 2.2610	13.2960
 2.2620	13.2470
 2.2630	13.1960
 2.2640	13.1470
 2.2650	13.0990
 2.2660	13.0530
 2.2670	13.0050
 2.2680	12.9570
 2.2690	12.9090
 2.2700	12.8580
 2.2710	12.8120
 2.2720	12.7670
 2.2730	12.7230
 2.2740	12.6800
 2.2750	12.6380
 2.2760	12.5960
 2.2770	12.5550
 2.2780	12.5140
 2.2790	12.4710
 2.2800	12.4280
 2.2810	12.3850
 2.2820	12.3450
 2.2830	12.3010
 2.2840	12.2550
 2.2850	12.2130
 2.2860	12.1720
 2.2870	12.1290
 2.2880	12.0900
 2.2890	12.0440
 2.2900	11.9920
 2.2910	11.9430
 2.2920	11.8940
 2.2930	11.8430
 2.2940	11.7930
 2.2950	11.7390
 2.2960	11.6760
 2.2970	11.6240
 2.2980	11.5780
 2.2990	11.5290
 2.3000	11.4860
 2.3010	11.4400
 2.3020	11.3880
 2.3030	11.3470
 2.3040	11.3110
 2.3050	11.2750
 2.3060	11.2450
 2.3070	11.2070
 2.3080	11.1690
 2.3090	11.1360
 2.3100	11.1050
 2.3110	11.0760
 2.3120	11.0480
 2.3130	11.0220
 2.3140	10.9980
 2.3150	10.9730
 2.3160	10.9550
 2.3170	10.9450
 2.3180	10.9300
 2.3190	10.9210
 2.3200	10.9040
 2.3210	10.8870
 2.3220	10.8600
 2.3230	10.8250
 2.3240	10.7920
 2.3250	10.7500
 2.3260	10.7130
 2.3270	10.6800
 2.3280	10.6410
 2.3290	10.5980
 2.3300	10.5590
 2.3310	10.5190
 2.3320	10.4800
 2.3330	10.4440
 2.3340	10.4060
 2.3350	10.3690
 2.3360	10.3270
 2.3370	10.2820
 2.3380	10.2380
 2.3390	10.1850
 2.3400	10.1410
 2.3410	10.1020
 2.3420	10.0620
 2.3430	10.0250
 2.3440	 9.9890
 2.3450	 9.9550
 2.3460	 9.9170
 2.3470	 9.8830
 2.3480	 9.8450
 2.3490	 9.8010
 2.3500	 9.7600
 2.3510	 9.7130
 2.3520	 9.6750
 2.3530	 9.6440
 2.3540	 9.6110
 2.3550	 9.5900
 2.3560	 9.5650
 2.3570	 9.5270
 2.3580	 9.4960
 2.3590	 9.4530
 2.3600	 9.4180
 2.3610	 9.3900
 2.3620	 9.3570
 2.3630	 9.3340
 2.3640	 9.3090
 2.3650	 9.2840
 2.3660	 9.2610
 2.3670	 9.2260
 2.3680	 9.1930
 2.3690	 9.1600
 2.3700	 9.1230
 2.3710	 9.0890
 2.3720	 9.0550
 2.3730	 9.0210
 2.3740	 8.9890
 2.3750	 8.9590
 2.3760	 8.9280
 2.3770	 8.8910
 2.3780	 8.8560
 2.3790	 8.8210
 2.3800	 8.7950
 2.3810	 8.7770
 2.3820	 8.7410
 2.3830	 8.7070
 2.3840	 8.6690
 2.3850	 8.6170
 2.3860	 8.5870
 2.3870	 8.5590
 2.3880	 8.5290
 2.3890	 8.5080
 2.3900	 8.4750
 2.3910	 8.4370
 2.3920	 8.4030
 2.3930	 8.3660
 2.3940	 8.3320
 2.3950	 8.3050
 2.3960	 8.2730
 2.3970	 8.2440
 2.3980	 8.2190
 2.3990	 8.1880
 2.4000	 8.1610
 2.4010	 8.1350
 2.4020	 8.1040
 2.4030	 8.0790
 2.4040	 8.0620
 2.4050	 8.0380
 2.4060	 8.0050
 2.4070	 7.9690
 2.4080	 7.9190
 2.4090	 7.8730
 2.4100	 7.8480
 2.4110	 7.8260
 2.4120	 7.8050
 2.4130	 7.7870
 2.4140	 7.7560
 2.4150	 7.7200
 2.4160	 7.6890
 2.4170	 7.6610
 2.4180	 7.6380
 2.4190	 7.6150
 2.4200	 7.5900
 2.4210	 7.5610
 2.4220	 7.5380
 2.4230	 7.5140
 2.4240	 7.4910
 2.4250	 7.4690
 2.4260	 7.4270
 2.4270	 7.3840
 2.4280	 7.3500
 2.4290	 7.3320
 2.4300	 7.3130
 2.4310	 7.2880
 2.4320	 7.2680
 2.4330	 7.2280
 2.4340	 7.1980
 2.4350	 7.1810
 2.4360	 7.1530
 2.4370	 7.1250
 2.4380	 7.0830
 2.4390	 7.0400
 2.4400	 7.0090
 2.4410	 6.9760
 2.4420	 6.9650
 2.4430	 6.9530
 2.4440	 6.9260
 2.4450	 6.9130
 2.4460	 6.8820
 2.4470	 6.8490
 2.4480	 6.8290
 2.4490	 6.8020
 2.4500	 6.7700
 2.4510	 6.7410
 2.4520	 6.7090
 2.4530	 6.6730
 2.4540	 6.6530
 2.4550	 6.6420
 2.4560	 6.6460
 2.4570	 6.6530
 2.4580	 6.6380
 2.4590	 6.6280
 2.4600	 6.6040
 2.4610	 6.5560
 2.4620	 6.5310
 2.4630	 6.5010
 2.4640	 6.4660
 2.4650	 6.4540
 2.4660	 6.4310
 2.4670	 6.3900
 2.4680	 6.3580
 2.4690	 6.3420
 2.4700	 6.3180
 2.4710	 6.3010
 2.4720	 6.2870
 2.4730	 6.2660
 2.4740	 6.2550
 2.4750	 6.2600
 2.4760	 6.2550
 2.4770	 6.2450
 2.4780	 6.2380
 2.4790	 6.2250
 2.4800	 6.2050
 2.4810	 6.1780
 2.4820	 6.1460
 2.4830	 6.1490
 2.4840	 6.1660
 2.4850	 6.1820
 2.4860	 6.1880
 2.4870	 6.1690
 2.4880	 6.1120
 2.4890	 6.0560
 2.4900	 5.9920
 2.4910	 5.9370
 2.4920	 5.9790
 2.4930	 5.9950
 2.4940	 6.0210
 2.4950	 6.0870
 2.4960	 6.0600
 2.4970	 6.0580
 2.4980	 6.0730
 2.4990	 6.0710
 2.5000	 6.1020
