Name: Peltophorum africanum
Type: vegetation
Class: Tree
Genus: Peltophorum
Species: africanum
Sample No.: JPL260
Owner: JPL
Wavelength Range: VSWIR
Origin: 34.13114; -118.11242; WGS84
Collection Date: 10/6/2016
Description: Samples were collected at the Huntington Garden in San Marino California as part of a JPL Subcontract studying HyTES imagery. Samples were taken to JPL and processed within 48 hours of collection. The same leaves were processed in the Nicolet and then measured using the ASD.
Measurement: Bidirectional reflectance
First Column: X
Second Column: Y
X Units: Wavelength (micrometer)
Y Units: Reflectance (percentage)
First X Value: 0.35
Last X Value: 2.5
Number of X Values: 2151
Additional Information: vegetation.tree.peltophorum.africanum.vswir.jpl260.jpl.asd.ancillary.txt

 0.3500	 2.7350
 0.3510	 2.6450
 0.3520	 2.5570
 0.3530	 2.4670
 0.3540	 2.3630
 0.3550	 2.4230
 0.3560	 2.4220
 0.3570	 2.3970
 0.3580	 2.4930
 0.3590	 2.5140
 0.3600	 2.4660
 0.3610	 2.3940
 0.3620	 2.3620
 0.3630	 2.4180
 0.3640	 2.4740
 0.3650	 2.4380
 0.3660	 2.3550
 0.3670	 2.3230
 0.3680	 2.3510
 0.3690	 2.3820
 0.3700	 2.3940
 0.3710	 2.3770
 0.3720	 2.3520
 0.3730	 2.3930
 0.3740	 2.4440
 0.3750	 2.4510
 0.3760	 2.3930
 0.3770	 2.3790
 0.3780	 2.3560
 0.3790	 2.3370
 0.3800	 2.3900
 0.3810	 2.4180
 0.3820	 2.4200
 0.3830	 2.4040
 0.3840	 2.3430
 0.3850	 2.3350
 0.3860	 2.3590
 0.3870	 2.3540
 0.3880	 2.3660
 0.3890	 2.3740
 0.3900	 2.3790
 0.3910	 2.4030
 0.3920	 2.4070
 0.3930	 2.3930
 0.3940	 2.3750
 0.3950	 2.3720
 0.3960	 2.3860
 0.3970	 2.3990
 0.3980	 2.3880
 0.3990	 2.3860
 0.4000	 2.3930
 0.4010	 2.4040
 0.4020	 2.4100
 0.4030	 2.4010
 0.4040	 2.3910
 0.4050	 2.3960
 0.4060	 2.4100
 0.4070	 2.4090
 0.4080	 2.4000
 0.4090	 2.4100
 0.4100	 2.4300
 0.4110	 2.4420
 0.4120	 2.4380
 0.4130	 2.4380
 0.4140	 2.4440
 0.4150	 2.4560
 0.4160	 2.4730
 0.4170	 2.4780
 0.4180	 2.4830
 0.4190	 2.4970
 0.4200	 2.5160
 0.4210	 2.5290
 0.4220	 2.5320
 0.4230	 2.5290
 0.4240	 2.5510
 0.4250	 2.5630
 0.4260	 2.5680
 0.4270	 2.5820
 0.4280	 2.5920
 0.4290	 2.5940
 0.4300	 2.5930
 0.4310	 2.6090
 0.4320	 2.6180
 0.4330	 2.6220
 0.4340	 2.6320
 0.4350	 2.6470
 0.4360	 2.6560
 0.4370	 2.6550
 0.4380	 2.6520
 0.4390	 2.6580
 0.4400	 2.6680
 0.4410	 2.6760
 0.4420	 2.6800
 0.4430	 2.6830
 0.4440	 2.6880
 0.4450	 2.6960
 0.4460	 2.7040
 0.4470	 2.7090
 0.4480	 2.7100
 0.4490	 2.7130
 0.4500	 2.7210
 0.4510	 2.7320
 0.4520	 2.7450
 0.4530	 2.7490
 0.4540	 2.7570
 0.4550	 2.7650
 0.4560	 2.7600
 0.4570	 2.7600
 0.4580	 2.7650
 0.4590	 2.7730
 0.4600	 2.7770
 0.4610	 2.7800
 0.4620	 2.7840
 0.4630	 2.7890
 0.4640	 2.7910
 0.4650	 2.7900
 0.4660	 2.7880
 0.4670	 2.7900
 0.4680	 2.7900
 0.4690	 2.7930
 0.4700	 2.7990
 0.4710	 2.8000
 0.4720	 2.7980
 0.4730	 2.7960
 0.4740	 2.8020
 0.4750	 2.8080
 0.4760	 2.8100
 0.4770	 2.8080
 0.4780	 2.8120
 0.4790	 2.8120
 0.4800	 2.8100
 0.4810	 2.8100
 0.4820	 2.8150
 0.4830	 2.8210
 0.4840	 2.8250
 0.4850	 2.8320
 0.4860	 2.8360
 0.4870	 2.8430
 0.4880	 2.8540
 0.4890	 2.8500
 0.4900	 2.8540
 0.4910	 2.8660
 0.4920	 2.8740
 0.4930	 2.8850
 0.4940	 2.8980
 0.4950	 2.9100
 0.4960	 2.9170
 0.4970	 2.9300
 0.4980	 2.9480
 0.4990	 2.9670
 0.5000	 2.9820
 0.5010	 3.0050
 0.5020	 3.0340
 0.5030	 3.0620
 0.5040	 3.0930
 0.5050	 3.1250
 0.5060	 3.1630
 0.5070	 3.2130
 0.5080	 3.2640
 0.5090	 3.3160
 0.5100	 3.3760
 0.5110	 3.4430
 0.5120	 3.5150
 0.5130	 3.5920
 0.5140	 3.6810
 0.5150	 3.7720
 0.5160	 3.8710
 0.5170	 3.9820
 0.5180	 4.0980
 0.5190	 4.2190
 0.5200	 4.3450
 0.5210	 4.4780
 0.5220	 4.6110
 0.5230	 4.7460
 0.5240	 4.8830
 0.5250	 5.0120
 0.5260	 5.1440
 0.5270	 5.2780
 0.5280	 5.4050
 0.5290	 5.5230
 0.5300	 5.6340
 0.5310	 5.7380
 0.5320	 5.8400
 0.5330	 5.9370
 0.5340	 6.0250
 0.5350	 6.1050
 0.5360	 6.1770
 0.5370	 6.2470
 0.5380	 6.3140
 0.5390	 6.3740
 0.5400	 6.4360
 0.5410	 6.5020
 0.5420	 6.5680
 0.5430	 6.6230
 0.5440	 6.6700
 0.5450	 6.7070
 0.5460	 6.7340
 0.5470	 6.7520
 0.5480	 6.7710
 0.5490	 6.7940
 0.5500	 6.8160
 0.5510	 6.8340
 0.5520	 6.8440
 0.5530	 6.8420
 0.5540	 6.8340
 0.5550	 6.8180
 0.5560	 6.7950
 0.5570	 6.7610
 0.5580	 6.7230
 0.5590	 6.6780
 0.5600	 6.6250
 0.5610	 6.5680
 0.5620	 6.5110
 0.5630	 6.4510
 0.5640	 6.3850
 0.5650	 6.3160
 0.5660	 6.2430
 0.5670	 6.1660
 0.5680	 6.0830
 0.5690	 5.9970
 0.5700	 5.9110
 0.5710	 5.8250
 0.5720	 5.7390
 0.5730	 5.6570
 0.5740	 5.5810
 0.5750	 5.5120
 0.5760	 5.4460
 0.5770	 5.3850
 0.5780	 5.3270
 0.5790	 5.2730
 0.5800	 5.2200
 0.5810	 5.1690
 0.5820	 5.1220
 0.5830	 5.0790
 0.5840	 5.0370
 0.5850	 4.9980
 0.5860	 4.9670
 0.5870	 4.9370
 0.5880	 4.9070
 0.5890	 4.8760
 0.5900	 4.8500
 0.5910	 4.8270
 0.5920	 4.8080
 0.5930	 4.7930
 0.5940	 4.7780
 0.5950	 4.7630
 0.5960	 4.7500
 0.5970	 4.7370
 0.5980	 4.7240
 0.5990	 4.7110
 0.6000	 4.6950
 0.6010	 4.6760
 0.6020	 4.6550
 0.6030	 4.6300
 0.6040	 4.6020
 0.6050	 4.5700
 0.6060	 4.5350
 0.6070	 4.5000
 0.6080	 4.4590
 0.6090	 4.4220
 0.6100	 4.3880
 0.6110	 4.3560
 0.6120	 4.3150
 0.6130	 4.2640
 0.6140	 4.2110
 0.6150	 4.1670
 0.6160	 4.1270
 0.6170	 4.0890
 0.6180	 4.0530
 0.6190	 4.0240
 0.6200	 3.9970
 0.6210	 3.9730
 0.6220	 3.9540
 0.6230	 3.9360
 0.6240	 3.9220
 0.6250	 3.9120
 0.6260	 3.9010
 0.6270	 3.8940
 0.6280	 3.8920
 0.6290	 3.8890
 0.6300	 3.8860
 0.6310	 3.8840
 0.6320	 3.8800
 0.6330	 3.8740
 0.6340	 3.8660
 0.6350	 3.8540
 0.6360	 3.8380
 0.6370	 3.8170
 0.6380	 3.7900
 0.6390	 3.7580
 0.6400	 3.7260
 0.6410	 3.6910
 0.6420	 3.6550
 0.6430	 3.6160
 0.6440	 3.5770
 0.6450	 3.5400
 0.6460	 3.5050
 0.6470	 3.4720
 0.6480	 3.4390
 0.6490	 3.4120
 0.6500	 3.3910
 0.6510	 3.3690
 0.6520	 3.3480
 0.6530	 3.3300
 0.6540	 3.3120
 0.6550	 3.2970
 0.6560	 3.2780
 0.6570	 3.2550
 0.6580	 3.2310
 0.6590	 3.2070
 0.6600	 3.1820
 0.6610	 3.1570
 0.6620	 3.1340
 0.6630	 3.1120
 0.6640	 3.0940
 0.6650	 3.0790
 0.6660	 3.0630
 0.6670	 3.0520
 0.6680	 3.0480
 0.6690	 3.0440
 0.6700	 3.0430
 0.6710	 3.0440
 0.6720	 3.0490
 0.6730	 3.0560
 0.6740	 3.0630
 0.6750	 3.0720
 0.6760	 3.0860
 0.6770	 3.1000
 0.6780	 3.1180
 0.6790	 3.1380
 0.6800	 3.1590
 0.6810	 3.1840
 0.6820	 3.2140
 0.6830	 3.2490
 0.6840	 3.2850
 0.6850	 3.3270
 0.6860	 3.3790
 0.6870	 3.4410
 0.6880	 3.5200
 0.6890	 3.6180
 0.6900	 3.7400
 0.6910	 3.8970
 0.6920	 4.0900
 0.6930	 4.3230
 0.6940	 4.6000
 0.6950	 4.9180
 0.6960	 5.2790
 0.6970	 5.6780
 0.6980	 6.1110
 0.6990	 6.5790
 0.7000	 7.0760
 0.7010	 7.5950
 0.7020	 8.1320
 0.7030	 8.6850
 0.7040	 9.2510
 0.7050	 9.8270
 0.7060	10.4110
 0.7070	11.0010
 0.7080	11.5960
 0.7090	12.1950
 0.7100	12.7940
 0.7110	13.4010
 0.7120	14.0140
 0.7130	14.6260
 0.7140	15.2390
 0.7150	15.8540
 0.7160	16.4700
 0.7170	17.0850
 0.7180	17.7000
 0.7190	18.3110
 0.7200	18.9130
 0.7210	19.5080
 0.7220	20.0960
 0.7230	20.6720
 0.7240	21.2340
 0.7250	21.7860
 0.7260	22.3220
 0.7270	22.8390
 0.7280	23.3340
 0.7290	23.8120
 0.7300	24.2710
 0.7310	24.7080
 0.7320	25.1250
 0.7330	25.5240
 0.7340	25.9010
 0.7350	26.2540
 0.7360	26.5890
 0.7370	26.9060
 0.7380	27.2030
 0.7390	27.4810
 0.7400	27.7400
 0.7410	27.9820
 0.7420	28.2090
 0.7430	28.4190
 0.7440	28.6090
 0.7450	28.7830
 0.7460	28.9470
 0.7470	29.0960
 0.7480	29.2310
 0.7490	29.3540
 0.7500	29.4670
 0.7510	29.5710
 0.7520	29.6660
 0.7530	29.7510
 0.7540	29.8270
 0.7550	29.8970
 0.7560	29.9620
 0.7570	30.0210
 0.7580	30.0760
 0.7590	30.1260
 0.7600	30.1690
 0.7610	30.2110
 0.7620	30.2480
 0.7630	30.2810
 0.7640	30.3120
 0.7650	30.3420
 0.7660	30.3680
 0.7670	30.3900
 0.7680	30.4100
 0.7690	30.4310
 0.7700	30.4520
 0.7710	30.4700
 0.7720	30.4850
 0.7730	30.5030
 0.7740	30.5190
 0.7750	30.5320
 0.7760	30.5490
 0.7770	30.5640
 0.7780	30.5770
 0.7790	30.5930
 0.7800	30.6070
 0.7810	30.6190
 0.7820	30.6310
 0.7830	30.6440
 0.7840	30.6570
 0.7850	30.6700
 0.7860	30.6830
 0.7870	30.6910
 0.7880	30.7010
 0.7890	30.7110
 0.7900	30.7220
 0.7910	30.7280
 0.7920	30.7370
 0.7930	30.7480
 0.7940	30.7560
 0.7950	30.7640
 0.7960	30.7730
 0.7970	30.7820
 0.7980	30.7870
 0.7990	30.7900
 0.8000	30.7930
 0.8010	30.7980
 0.8020	30.8030
 0.8030	30.8070
 0.8040	30.8100
 0.8050	30.8150
 0.8060	30.8200
 0.8070	30.8220
 0.8080	30.8230
 0.8090	30.8260
 0.8100	30.8250
 0.8110	30.8230
 0.8120	30.8230
 0.8130	30.8220
 0.8140	30.8200
 0.8150	30.8180
 0.8160	30.8160
 0.8170	30.8150
 0.8180	30.8170
 0.8190	30.8200
 0.8200	30.8190
 0.8210	30.8140
 0.8220	30.8080
 0.8230	30.8040
 0.8240	30.8030
 0.8250	30.7990
 0.8260	30.7950
 0.8270	30.7930
 0.8280	30.7930
 0.8290	30.7910
 0.8300	30.7870
 0.8310	30.7800
 0.8320	30.7740
 0.8330	30.7720
 0.8340	30.7710
 0.8350	30.7690
 0.8360	30.7660
 0.8370	30.7630
 0.8380	30.7620
 0.8390	30.7620
 0.8400	30.7610
 0.8410	30.7620
 0.8420	30.7640
 0.8430	30.7640
 0.8440	30.7620
 0.8450	30.7620
 0.8460	30.7650
 0.8470	30.7660
 0.8480	30.7690
 0.8490	30.7750
 0.8500	30.7800
 0.8510	30.7810
 0.8520	30.7790
 0.8530	30.7780
 0.8540	30.7810
 0.8550	30.7840
 0.8560	30.7900
 0.8570	30.7960
 0.8580	30.7990
 0.8590	30.8040
 0.8600	30.8090
 0.8610	30.8130
 0.8620	30.8220
 0.8630	30.8270
 0.8640	30.8310
 0.8650	30.8370
 0.8660	30.8430
 0.8670	30.8470
 0.8680	30.8510
 0.8690	30.8590
 0.8700	30.8690
 0.8710	30.8770
 0.8720	30.8830
 0.8730	30.8920
 0.8740	30.8980
 0.8750	30.9040
 0.8760	30.9110
 0.8770	30.9230
 0.8780	30.9290
 0.8790	30.9340
 0.8800	30.9410
 0.8810	30.9490
 0.8820	30.9560
 0.8830	30.9620
 0.8840	30.9680
 0.8850	30.9800
 0.8860	30.9860
 0.8870	30.9920
 0.8880	31.0000
 0.8890	31.0080
 0.8900	31.0160
 0.8910	31.0230
 0.8920	31.0290
 0.8930	31.0320
 0.8940	31.0410
 0.8950	31.0510
 0.8960	31.0510
 0.8970	31.0600
 0.8980	31.0690
 0.8990	31.0770
 0.9000	31.0850
 0.9010	31.0880
 0.9020	31.0920
 0.9030	31.1010
 0.9040	31.1110
 0.9050	31.1200
 0.9060	31.1240
 0.9070	31.1240
 0.9080	31.1330
 0.9090	31.1400
 0.9100	31.1400
 0.9110	31.1360
 0.9120	31.1340
 0.9130	31.1350
 0.9140	31.1400
 0.9150	31.1510
 0.9160	31.1540
 0.9170	31.1550
 0.9180	31.1570
 0.9190	31.1580
 0.9200	31.1600
 0.9210	31.1590
 0.9220	31.1580
 0.9230	31.1610
 0.9240	31.1610
 0.9250	31.1580
 0.9260	31.1540
 0.9270	31.1550
 0.9280	31.1440
 0.9290	31.1340
 0.9300	31.1250
 0.9310	31.1120
 0.9320	31.1030
 0.9330	31.0980
 0.9340	31.0950
 0.9350	31.0840
 0.9360	31.0700
 0.9370	31.0520
 0.9380	31.0320
 0.9390	31.0260
 0.9400	31.0170
 0.9410	31.0030
 0.9420	30.9860
 0.9430	30.9680
 0.9440	30.9480
 0.9450	30.9260
 0.9460	30.9020
 0.9470	30.8800
 0.9480	30.8520
 0.9490	30.8170
 0.9500	30.7790
 0.9510	30.7470
 0.9520	30.7110
 0.9530	30.6760
 0.9540	30.6460
 0.9550	30.6020
 0.9560	30.5600
 0.9570	30.5280
 0.9580	30.5050
 0.9590	30.4620
 0.9600	30.4200
 0.9610	30.3890
 0.9620	30.3690
 0.9630	30.3440
 0.9640	30.3260
 0.9650	30.3130
 0.9660	30.2930
 0.9670	30.2680
 0.9680	30.2590
 0.9690	30.2530
 0.9700	30.2340
 0.9710	30.2360
 0.9720	30.2260
 0.9730	30.2100
 0.9740	30.2070
 0.9750	30.2040
 0.9760	30.2020
 0.9770	30.2000
 0.9780	30.1990
 0.9790	30.2060
 0.9800	30.2000
 0.9810	30.1950
 0.9820	30.2080
 0.9830	30.2060
 0.9840	30.2010
 0.9850	30.1990
 0.9860	30.2040
 0.9870	30.2200
 0.9880	30.2330
 0.9890	30.2470
 0.9900	30.2670
 0.9910	30.2650
 0.9920	30.2710
 0.9930	30.2830
 0.9940	30.2890
 0.9950	30.3000
 0.9960	30.3120
 0.9970	30.3240
 0.9980	30.3360
 0.9990	30.3460
 1.0000	30.3640
 1.0010	31.2860
 1.0020	31.3030
 1.0030	31.3190
 1.0040	31.3360
 1.0050	31.3540
 1.0060	31.3710
 1.0070	31.3850
 1.0080	31.4010
 1.0090	31.4170
 1.0100	31.4320
 1.0110	31.4480
 1.0120	31.4630
 1.0130	31.4740
 1.0140	31.4880
 1.0150	31.5030
 1.0160	31.5190
 1.0170	31.5340
 1.0180	31.5510
 1.0190	31.5670
 1.0200	31.5820
 1.0210	31.6000
 1.0220	31.6190
 1.0230	31.6350
 1.0240	31.6510
 1.0250	31.6640
 1.0260	31.6720
 1.0270	31.6840
 1.0280	31.6960
 1.0290	31.7100
 1.0300	31.7270
 1.0310	31.7420
 1.0320	31.7550
 1.0330	31.7680
 1.0340	31.7780
 1.0350	31.7910
 1.0360	31.8030
 1.0370	31.8170
 1.0380	31.8310
 1.0390	31.8480
 1.0400	31.8590
 1.0410	31.8670
 1.0420	31.8760
 1.0430	31.8800
 1.0440	31.8880
 1.0450	31.9010
 1.0460	31.9110
 1.0470	31.9230
 1.0480	31.9320
 1.0490	31.9370
 1.0500	31.9450
 1.0510	31.9520
 1.0520	31.9600
 1.0530	31.9680
 1.0540	31.9790
 1.0550	31.9870
 1.0560	31.9940
 1.0570	32.0000
 1.0580	32.0060
 1.0590	32.0130
 1.0600	32.0220
 1.0610	32.0280
 1.0620	32.0330
 1.0630	32.0380
 1.0640	32.0410
 1.0650	32.0450
 1.0660	32.0500
 1.0670	32.0550
 1.0680	32.0590
 1.0690	32.0630
 1.0700	32.0660
 1.0710	32.0700
 1.0720	32.0730
 1.0730	32.0730
 1.0740	32.0760
 1.0750	32.0820
 1.0760	32.0830
 1.0770	32.0820
 1.0780	32.0820
 1.0790	32.0790
 1.0800	32.0780
 1.0810	32.0790
 1.0820	32.0810
 1.0830	32.0840
 1.0840	32.0860
 1.0850	32.0860
 1.0860	32.0890
 1.0870	32.0880
 1.0880	32.0860
 1.0890	32.0820
 1.0900	32.0770
 1.0910	32.0730
 1.0920	32.0680
 1.0930	32.0640
 1.0940	32.0640
 1.0950	32.0590
 1.0960	32.0530
 1.0970	32.0480
 1.0980	32.0400
 1.0990	32.0330
 1.1000	32.0280
 1.1010	32.0220
 1.1020	32.0160
 1.1030	32.0100
 1.1040	32.0020
 1.1050	31.9930
 1.1060	31.9830
 1.1070	31.9710
 1.1080	31.9610
 1.1090	31.9540
 1.1100	31.9440
 1.1110	31.9320
 1.1120	31.9200
 1.1130	31.9060
 1.1140	31.8920
 1.1150	31.8790
 1.1160	31.8620
 1.1170	31.8440
 1.1180	31.8240
 1.1190	31.7990
 1.1200	31.7750
 1.1210	31.7510
 1.1220	31.7240
 1.1230	31.6980
 1.1240	31.6700
 1.1250	31.6370
 1.1260	31.6010
 1.1270	31.5610
 1.1280	31.5180
 1.1290	31.4710
 1.1300	31.4190
 1.1310	31.3640
 1.1320	31.3070
 1.1330	31.2450
 1.1340	31.1820
 1.1350	31.1120
 1.1360	31.0380
 1.1370	30.9590
 1.1380	30.8740
 1.1390	30.7850
 1.1400	30.6940
 1.1410	30.6010
 1.1420	30.5080
 1.1430	30.4140
 1.1440	30.3190
 1.1450	30.2220
 1.1460	30.1280
 1.1470	30.0320
 1.1480	29.9400
 1.1490	29.8480
 1.1500	29.7620
 1.1510	29.6780
 1.1520	29.6000
 1.1530	29.5260
 1.1540	29.4580
 1.1550	29.3950
 1.1560	29.3370
 1.1570	29.2840
 1.1580	29.2360
 1.1590	29.1910
 1.1600	29.1510
 1.1610	29.1160
 1.1620	29.0860
 1.1630	29.0590
 1.1640	29.0350
 1.1650	29.0130
 1.1660	28.9940
 1.1670	28.9750
 1.1680	28.9580
 1.1690	28.9430
 1.1700	28.9280
 1.1710	28.9140
 1.1720	28.9030
 1.1730	28.8910
 1.1740	28.8800
 1.1750	28.8690
 1.1760	28.8570
 1.1770	28.8440
 1.1780	28.8300
 1.1790	28.8160
 1.1800	28.8020
 1.1810	28.7900
 1.1820	28.7780
 1.1830	28.7630
 1.1840	28.7490
 1.1850	28.7330
 1.1860	28.7180
 1.1870	28.7030
 1.1880	28.6890
 1.1890	28.6760
 1.1900	28.6650
 1.1910	28.6550
 1.1920	28.6460
 1.1930	28.6390
 1.1940	28.6310
 1.1950	28.6230
 1.1960	28.6180
 1.1970	28.6110
 1.1980	28.6050
 1.1990	28.6010
 1.2000	28.5970
 1.2010	28.5960
 1.2020	28.5970
 1.2030	28.5990
 1.2040	28.6030
 1.2050	28.6090
 1.2060	28.6150
 1.2070	28.6230
 1.2080	28.6330
 1.2090	28.6430
 1.2100	28.6560
 1.2110	28.6690
 1.2120	28.6840
 1.2130	28.7000
 1.2140	28.7170
 1.2150	28.7350
 1.2160	28.7560
 1.2170	28.7770
 1.2180	28.7990
 1.2190	28.8230
 1.2200	28.8470
 1.2210	28.8710
 1.2220	28.8980
 1.2230	28.9250
 1.2240	28.9490
 1.2250	28.9730
 1.2260	28.9960
 1.2270	29.0170
 1.2280	29.0400
 1.2290	29.0620
 1.2300	29.0820
 1.2310	29.1030
 1.2320	29.1230
 1.2330	29.1410
 1.2340	29.1590
 1.2350	29.1750
 1.2360	29.1910
 1.2370	29.2050
 1.2380	29.2170
 1.2390	29.2310
 1.2400	29.2460
 1.2410	29.2610
 1.2420	29.2770
 1.2430	29.2920
 1.2440	29.3050
 1.2450	29.3150
 1.2460	29.3260
 1.2470	29.3370
 1.2480	29.3470
 1.2490	29.3570
 1.2500	29.3670
 1.2510	29.3740
 1.2520	29.3820
 1.2530	29.3900
 1.2540	29.3970
 1.2550	29.4040
 1.2560	29.4100
 1.2570	29.4160
 1.2580	29.4220
 1.2590	29.4260
 1.2600	29.4300
 1.2610	29.4330
 1.2620	29.4350
 1.2630	29.4350
 1.2640	29.4360
 1.2650	29.4370
 1.2660	29.4360
 1.2670	29.4330
 1.2680	29.4300
 1.2690	29.4250
 1.2700	29.4210
 1.2710	29.4180
 1.2720	29.4130
 1.2730	29.4080
 1.2740	29.4010
 1.2750	29.3930
 1.2760	29.3840
 1.2770	29.3760
 1.2780	29.3660
 1.2790	29.3540
 1.2800	29.3410
 1.2810	29.3290
 1.2820	29.3140
 1.2830	29.2980
 1.2840	29.2810
 1.2850	29.2640
 1.2860	29.2460
 1.2870	29.2270
 1.2880	29.2090
 1.2890	29.1890
 1.2900	29.1660
 1.2910	29.1420
 1.2920	29.1170
 1.2930	29.0890
 1.2940	29.0600
 1.2950	29.0320
 1.2960	29.0020
 1.2970	28.9710
 1.2980	28.9400
 1.2990	28.9060
 1.3000	28.8710
 1.3010	28.8340
 1.3020	28.7940
 1.3030	28.7530
 1.3040	28.7120
 1.3050	28.6690
 1.3060	28.6250
 1.3070	28.5780
 1.3080	28.5290
 1.3090	28.4800
 1.3100	28.4270
 1.3110	28.3740
 1.3120	28.3170
 1.3130	28.2570
 1.3140	28.1950
 1.3150	28.1310
 1.3160	28.0640
 1.3170	27.9950
 1.3180	27.9240
 1.3190	27.8510
 1.3200	27.7760
 1.3210	27.6980
 1.3220	27.6190
 1.3230	27.5370
 1.3240	27.4540
 1.3250	27.3710
 1.3260	27.2850
 1.3270	27.1970
 1.3280	27.1080
 1.3290	27.0160
 1.3300	26.9220
 1.3310	26.8270
 1.3320	26.7310
 1.3330	26.6340
 1.3340	26.5350
 1.3350	26.4370
 1.3360	26.3370
 1.3370	26.2350
 1.3380	26.1340
 1.3390	26.0330
 1.3400	25.9310
 1.3410	25.8320
 1.3420	25.7340
 1.3430	25.6360
 1.3440	25.5380
 1.3450	25.4420
 1.3460	25.3460
 1.3470	25.2520
 1.3480	25.1590
 1.3490	25.0670
 1.3500	24.9770
 1.3510	24.8860
 1.3520	24.7970
 1.3530	24.7070
 1.3540	24.6170
 1.3550	24.5280
 1.3560	24.4370
 1.3570	24.3470
 1.3580	24.2560
 1.3590	24.1640
 1.3600	24.0710
 1.3610	23.9760
 1.3620	23.8780
 1.3630	23.7770
 1.3640	23.6720
 1.3650	23.5640
 1.3660	23.4510
 1.3670	23.3310
 1.3680	23.2050
 1.3690	23.0710
 1.3700	22.9260
 1.3710	22.7730
 1.3720	22.6110
 1.3730	22.4350
 1.3740	22.2510
 1.3750	22.0550
 1.3760	21.8420
 1.3770	21.6170
 1.3780	21.3730
 1.3790	21.1140
 1.3800	20.8420
 1.3810	20.5530
 1.3820	20.2520
 1.3830	19.9380
 1.3840	19.6100
 1.3850	19.2670
 1.3860	18.9150
 1.3870	18.5470
 1.3880	18.1760
 1.3890	17.7980
 1.3900	17.4120
 1.3910	17.0270
 1.3920	16.6380
 1.3930	16.2470
 1.3940	15.8590
 1.3950	15.4700
 1.3960	15.0870
 1.3970	14.7110
 1.3980	14.3420
 1.3990	13.9890
 1.4000	13.6440
 1.4010	13.3100
 1.4020	12.9910
 1.4030	12.6800
 1.4040	12.3840
 1.4050	12.1020
 1.4060	11.8330
 1.4070	11.5820
 1.4080	11.3440
 1.4090	11.1200
 1.4100	10.9090
 1.4110	10.7110
 1.4120	10.5260
 1.4130	10.3540
 1.4140	10.1940
 1.4150	10.0470
 1.4160	 9.9090
 1.4170	 9.7820
 1.4180	 9.6660
 1.4190	 9.5580
 1.4200	 9.4580
 1.4210	 9.3660
 1.4220	 9.2800
 1.4230	 9.2020
 1.4240	 9.1300
 1.4250	 9.0630
 1.4260	 9.0030
 1.4270	 8.9470
 1.4280	 8.8960
 1.4290	 8.8500
 1.4300	 8.8090
 1.4310	 8.7700
 1.4320	 8.7370
 1.4330	 8.7050
 1.4340	 8.6750
 1.4350	 8.6490
 1.4360	 8.6270
 1.4370	 8.6080
 1.4380	 8.5910
 1.4390	 8.5770
 1.4400	 8.5640
 1.4410	 8.5540
 1.4420	 8.5460
 1.4430	 8.5390
 1.4440	 8.5340
 1.4450	 8.5310
 1.4460	 8.5270
 1.4470	 8.5260
 1.4480	 8.5270
 1.4490	 8.5290
 1.4500	 8.5320
 1.4510	 8.5370
 1.4520	 8.5430
 1.4530	 8.5500
 1.4540	 8.5580
 1.4550	 8.5670
 1.4560	 8.5770
 1.4570	 8.5890
 1.4580	 8.6030
 1.4590	 8.6190
 1.4600	 8.6380
 1.4610	 8.6590
 1.4620	 8.6830
 1.4630	 8.7110
 1.4640	 8.7400
 1.4650	 8.7720
 1.4660	 8.8060
 1.4670	 8.8440
 1.4680	 8.8850
 1.4690	 8.9300
 1.4700	 8.9770
 1.4710	 9.0260
 1.4720	 9.0770
 1.4730	 9.1310
 1.4740	 9.1870
 1.4750	 9.2450
 1.4760	 9.3060
 1.4770	 9.3690
 1.4780	 9.4320
 1.4790	 9.4980
 1.4800	 9.5650
 1.4810	 9.6340
 1.4820	 9.7030
 1.4830	 9.7730
 1.4840	 9.8450
 1.4850	 9.9170
 1.4860	 9.9900
 1.4870	10.0650
 1.4880	10.1390
 1.4890	10.2130
 1.4900	10.2880
 1.4910	10.3630
 1.4920	10.4390
 1.4930	10.5170
 1.4940	10.5940
 1.4950	10.6720
 1.4960	10.7500
 1.4970	10.8260
 1.4980	10.9030
 1.4990	10.9810
 1.5000	11.0600
 1.5010	11.1390
 1.5020	11.2180
 1.5030	11.2980
 1.5040	11.3770
 1.5050	11.4550
 1.5060	11.5340
 1.5070	11.6140
 1.5080	11.6930
 1.5090	11.7720
 1.5100	11.8510
 1.5110	11.9300
 1.5120	12.0080
 1.5130	12.0850
 1.5140	12.1640
 1.5150	12.2410
 1.5160	12.3170
 1.5170	12.3950
 1.5180	12.4730
 1.5190	12.5490
 1.5200	12.6250
 1.5210	12.7000
 1.5220	12.7750
 1.5230	12.8500
 1.5240	12.9250
 1.5250	12.9990
 1.5260	13.0730
 1.5270	13.1470
 1.5280	13.2200
 1.5290	13.2920
 1.5300	13.3630
 1.5310	13.4350
 1.5320	13.5050
 1.5330	13.5760
 1.5340	13.6470
 1.5350	13.7150
 1.5360	13.7840
 1.5370	13.8530
 1.5380	13.9200
 1.5390	13.9890
 1.5400	14.0560
 1.5410	14.1220
 1.5420	14.1880
 1.5430	14.2530
 1.5440	14.3180
 1.5450	14.3820
 1.5460	14.4460
 1.5470	14.5100
 1.5480	14.5720
 1.5490	14.6360
 1.5500	14.6980
 1.5510	14.7590
 1.5520	14.8190
 1.5530	14.8770
 1.5540	14.9360
 1.5550	14.9950
 1.5560	15.0530
 1.5570	15.1110
 1.5580	15.1670
 1.5590	15.2220
 1.5600	15.2780
 1.5610	15.3320
 1.5620	15.3860
 1.5630	15.4400
 1.5640	15.4930
 1.5650	15.5450
 1.5660	15.5970
 1.5670	15.6470
 1.5680	15.6980
 1.5690	15.7480
 1.5700	15.7970
 1.5710	15.8450
 1.5720	15.8940
 1.5730	15.9420
 1.5740	15.9910
 1.5750	16.0390
 1.5760	16.0870
 1.5770	16.1350
 1.5780	16.1820
 1.5790	16.2290
 1.5800	16.2740
 1.5810	16.3200
 1.5820	16.3650
 1.5830	16.4110
 1.5840	16.4560
 1.5850	16.5000
 1.5860	16.5440
 1.5870	16.5880
 1.5880	16.6320
 1.5890	16.6750
 1.5900	16.7180
 1.5910	16.7600
 1.5920	16.8040
 1.5930	16.8480
 1.5940	16.8900
 1.5950	16.9320
 1.5960	16.9730
 1.5970	17.0130
 1.5980	17.0530
 1.5990	17.0930
 1.6000	17.1340
 1.6010	17.1720
 1.6020	17.2100
 1.6030	17.2500
 1.6040	17.2870
 1.6050	17.3250
 1.6060	17.3620
 1.6070	17.3980
 1.6080	17.4330
 1.6090	17.4680
 1.6100	17.5030
 1.6110	17.5380
 1.6120	17.5710
 1.6130	17.6040
 1.6140	17.6370
 1.6150	17.6690
 1.6160	17.7000
 1.6170	17.7310
 1.6180	17.7610
 1.6190	17.7900
 1.6200	17.8190
 1.6210	17.8480
 1.6220	17.8770
 1.6230	17.9050
 1.6240	17.9320
 1.6250	17.9570
 1.6260	17.9830
 1.6270	18.0090
 1.6280	18.0340
 1.6290	18.0580
 1.6300	18.0800
 1.6310	18.1020
 1.6320	18.1240
 1.6330	18.1440
 1.6340	18.1650
 1.6350	18.1830
 1.6360	18.2010
 1.6370	18.2160
 1.6380	18.2300
 1.6390	18.2430
 1.6400	18.2550
 1.6410	18.2640
 1.6420	18.2730
 1.6430	18.2780
 1.6440	18.2800
 1.6450	18.2800
 1.6460	18.2790
 1.6470	18.2790
 1.6480	18.2770
 1.6490	18.2740
 1.6500	18.2690
 1.6510	18.2630
 1.6520	18.2550
 1.6530	18.2470
 1.6540	18.2390
 1.6550	18.2310
 1.6560	18.2220
 1.6570	18.2140
 1.6580	18.2050
 1.6590	18.1970
 1.6600	18.1910
 1.6610	18.1860
 1.6620	18.1840
 1.6630	18.1820
 1.6640	18.1810
 1.6650	18.1830
 1.6660	18.1850
 1.6670	18.1880
 1.6680	18.1920
 1.6690	18.1950
 1.6700	18.1980
 1.6710	18.2030
 1.6720	18.2050
 1.6730	18.2070
 1.6740	18.2080
 1.6750	18.2090
 1.6760	18.2070
 1.6770	18.2060
 1.6780	18.2030
 1.6790	18.1970
 1.6800	18.1920
 1.6810	18.1840
 1.6820	18.1730
 1.6830	18.1600
 1.6840	18.1440
 1.6850	18.1260
 1.6860	18.1080
 1.6870	18.0870
 1.6880	18.0650
 1.6890	18.0400
 1.6900	18.0150
 1.6910	17.9890
 1.6920	17.9620
 1.6930	17.9340
 1.6940	17.9050
 1.6950	17.8760
 1.6960	17.8450
 1.6970	17.8130
 1.6980	17.7800
 1.6990	17.7450
 1.7000	17.7110
 1.7010	17.6790
 1.7020	17.6450
 1.7030	17.6110
 1.7040	17.5770
 1.7050	17.5400
 1.7060	17.5050
 1.7070	17.4700
 1.7080	17.4360
 1.7090	17.4030
 1.7100	17.3680
 1.7110	17.3340
 1.7120	17.3000
 1.7130	17.2650
 1.7140	17.2330
 1.7150	17.1990
 1.7160	17.1630
 1.7170	17.1280
 1.7180	17.0930
 1.7190	17.0580
 1.7200	17.0240
 1.7210	16.9890
 1.7220	16.9530
 1.7230	16.9180
 1.7240	16.8810
 1.7250	16.8440
 1.7260	16.8100
 1.7270	16.7760
 1.7280	16.7470
 1.7290	16.7210
 1.7300	16.6960
 1.7310	16.6740
 1.7320	16.6530
 1.7330	16.6340
 1.7340	16.6200
 1.7350	16.6050
 1.7360	16.5920
 1.7370	16.5760
 1.7380	16.5580
 1.7390	16.5380
 1.7400	16.5160
 1.7410	16.4920
 1.7420	16.4660
 1.7430	16.4380
 1.7440	16.4080
 1.7450	16.3750
 1.7460	16.3390
 1.7470	16.3040
 1.7480	16.2650
 1.7490	16.2270
 1.7500	16.1880
 1.7510	16.1500
 1.7520	16.1110
 1.7530	16.0730
 1.7540	16.0360
 1.7550	15.9980
 1.7560	15.9620
 1.7570	15.9240
 1.7580	15.8880
 1.7590	15.8530
 1.7600	15.8180
 1.7610	15.7860
 1.7620	15.7550
 1.7630	15.7250
 1.7640	15.6980
 1.7650	15.6760
 1.7660	15.6530
 1.7670	15.6340
 1.7680	15.6140
 1.7690	15.5950
 1.7700	15.5750
 1.7710	15.5560
 1.7720	15.5380
 1.7730	15.5190
 1.7740	15.5010
 1.7750	15.4840
 1.7760	15.4650
 1.7770	15.4450
 1.7780	15.4280
 1.7790	15.4120
 1.7800	15.3980
 1.7810	15.3860
 1.7820	15.3740
 1.7830	15.3640
 1.7840	15.3530
 1.7850	15.3430
 1.7860	15.3340
 1.7870	15.3270
 1.7880	15.3200
 1.7890	15.3140
 1.7900	15.3090
 1.7910	15.3040
 1.7920	15.2990
 1.7930	15.2960
 1.7940	15.2950
 1.7950	15.2940
 1.7960	15.2950
 1.7970	15.2960
 1.7980	15.2960
 1.7990	15.2980
 1.8000	15.3010
 1.8010	15.3060
 1.8020	15.3130
 1.8030	15.3180
 1.8040	15.3250
 1.8050	15.3300
 1.8060	15.3340
 1.8070	15.3370
 1.8080	15.3390
 1.8090	15.3430
 1.8100	15.3480
 1.8110	15.3560
 1.8120	15.3630
 1.8130	15.3660
 1.8140	15.3690
 1.8150	15.3720
 1.8160	15.3740
 1.8170	15.3760
 1.8180	15.3790
 1.8190	15.3800
 1.8200	15.3810
 1.8210	15.3840
 1.8220	15.3850
 1.8230	15.3850
 1.8240	15.3840
 1.8250	15.3810
 1.8260	15.3770
 1.8270	15.3710
 1.8280	15.3660
 1.8290	15.3590
 1.8300	15.3530
 1.8310	14.8620
 1.8320	14.8470
 1.8330	14.8330
 1.8340	14.8180
 1.8350	14.7990
 1.8360	14.7790
 1.8370	14.7560
 1.8380	14.7340
 1.8390	14.7050
 1.8400	14.6710
 1.8410	14.6360
 1.8420	14.6000
 1.8430	14.5570
 1.8440	14.5110
 1.8450	14.4650
 1.8460	14.4100
 1.8470	14.3500
 1.8480	14.2850
 1.8490	14.2120
 1.8500	14.1350
 1.8510	14.0540
 1.8520	13.9670
 1.8530	13.8720
 1.8540	13.7690
 1.8550	13.6570
 1.8560	13.5350
 1.8570	13.4080
 1.8580	13.2750
 1.8590	13.1340
 1.8600	12.9850
 1.8610	12.8290
 1.8620	12.6610
 1.8630	12.4810
 1.8640	12.2930
 1.8650	12.0920
 1.8660	11.8800
 1.8670	11.6610
 1.8680	11.4340
 1.8690	11.1950
 1.8700	10.9450
 1.8710	10.6860
 1.8720	10.4190
 1.8730	10.1450
 1.8740	 9.8650
 1.8750	 9.5810
 1.8760	 9.2910
 1.8770	 8.9970
 1.8780	 8.7040
 1.8790	 8.4080
 1.8800	 8.1150
 1.8810	 7.8260
 1.8820	 7.5360
 1.8830	 7.2430
 1.8840	 6.9540
 1.8850	 6.6680
 1.8860	 6.3890
 1.8870	 6.1230
 1.8880	 5.8630
 1.8890	 5.6140
 1.8900	 5.3780
 1.8910	 5.1530
 1.8920	 4.9350
 1.8930	 4.7320
 1.8940	 4.5440
 1.8950	 4.3660
 1.8960	 4.1990
 1.8970	 4.0450
 1.8980	 3.9060
 1.8990	 3.7750
 1.9000	 3.6560
 1.9010	 3.5530
 1.9020	 3.4560
 1.9030	 3.3690
 1.9040	 3.2920
 1.9050	 3.2220
 1.9060	 3.1590
 1.9070	 3.1050
 1.9080	 3.0550
 1.9090	 3.0100
 1.9100	 2.9720
 1.9110	 2.9370
 1.9120	 2.9050
 1.9130	 2.8780
 1.9140	 2.8570
 1.9150	 2.8380
 1.9160	 2.8210
 1.9170	 2.8040
 1.9180	 2.7880
 1.9190	 2.7730
 1.9200	 2.7620
 1.9210	 2.7530
 1.9220	 2.7450
 1.9230	 2.7380
 1.9240	 2.7330
 1.9250	 2.7280
 1.9260	 2.7250
 1.9270	 2.7270
 1.9280	 2.7300
 1.9290	 2.7320
 1.9300	 2.7350
 1.9310	 2.7400
 1.9320	 2.7430
 1.9330	 2.7480
 1.9340	 2.7550
 1.9350	 2.7620
 1.9360	 2.7680
 1.9370	 2.7740
 1.9380	 2.7810
 1.9390	 2.7890
 1.9400	 2.7960
 1.9410	 2.8060
 1.9420	 2.8180
 1.9430	 2.8300
 1.9440	 2.8430
 1.9450	 2.8550
 1.9460	 2.8700
 1.9470	 2.8870
 1.9480	 2.9020
 1.9490	 2.9190
 1.9500	 2.9350
 1.9510	 2.9480
 1.9520	 2.9610
 1.9530	 2.9760
 1.9540	 2.9910
 1.9550	 3.0080
 1.9560	 3.0280
 1.9570	 3.0480
 1.9580	 3.0700
 1.9590	 3.0910
 1.9600	 3.1080
 1.9610	 3.1290
 1.9620	 3.1510
 1.9630	 3.1750
 1.9640	 3.1980
 1.9650	 3.2230
 1.9660	 3.2480
 1.9670	 3.2700
 1.9680	 3.2940
 1.9690	 3.3190
 1.9700	 3.3440
 1.9710	 3.3670
 1.9720	 3.3930
 1.9730	 3.4190
 1.9740	 3.4470
 1.9750	 3.4730
 1.9760	 3.5030
 1.9770	 3.5290
 1.9780	 3.5510
 1.9790	 3.5790
 1.9800	 3.6060
 1.9810	 3.6370
 1.9820	 3.6730
 1.9830	 3.7070
 1.9840	 3.7420
 1.9850	 3.7750
 1.9860	 3.8080
 1.9870	 3.8400
 1.9880	 3.8710
 1.9890	 3.9010
 1.9900	 3.9330
 1.9910	 3.9650
 1.9920	 3.9990
 1.9930	 4.0360
 1.9940	 4.0710
 1.9950	 4.1070
 1.9960	 4.1430
 1.9970	 4.1780
 1.9980	 4.2130
 1.9990	 4.2480
 2.0000	 4.2830
 2.0010	 4.3190
 2.0020	 4.3530
 2.0030	 4.3900
 2.0040	 4.4260
 2.0050	 4.4620
 2.0060	 4.4970
 2.0070	 4.5320
 2.0080	 4.5650
 2.0090	 4.6000
 2.0100	 4.6360
 2.0110	 4.6730
 2.0120	 4.7120
 2.0130	 4.7500
 2.0140	 4.7880
 2.0150	 4.8240
 2.0160	 4.8590
 2.0170	 4.8920
 2.0180	 4.9250
 2.0190	 4.9560
 2.0200	 4.9900
 2.0210	 5.0250
 2.0220	 5.0590
 2.0230	 5.0930
 2.0240	 5.1270
 2.0250	 5.1600
 2.0260	 5.1930
 2.0270	 5.2260
 2.0280	 5.2570
 2.0290	 5.2890
 2.0300	 5.3190
 2.0310	 5.3470
 2.0320	 5.3740
 2.0330	 5.4010
 2.0340	 5.4250
 2.0350	 5.4520
 2.0360	 5.4800
 2.0370	 5.5070
 2.0380	 5.5340
 2.0390	 5.5600
 2.0400	 5.5850
 2.0410	 5.6110
 2.0420	 5.6400
 2.0430	 5.6660
 2.0440	 5.6910
 2.0450	 5.7140
 2.0460	 5.7370
 2.0470	 5.7580
 2.0480	 5.7810
 2.0490	 5.8060
 2.0500	 5.8300
 2.0510	 5.8520
 2.0520	 5.8760
 2.0530	 5.9020
 2.0540	 5.9260
 2.0550	 5.9490
 2.0560	 5.9720
 2.0570	 5.9920
 2.0580	 6.0120
 2.0590	 6.0360
 2.0600	 6.0630
 2.0610	 6.0880
 2.0620	 6.1160
 2.0630	 6.1410
 2.0640	 6.1630
 2.0650	 6.1870
 2.0660	 6.2100
 2.0670	 6.2340
 2.0680	 6.2610
 2.0690	 6.2850
 2.0700	 6.3110
 2.0710	 6.3340
 2.0720	 6.3550
 2.0730	 6.3770
 2.0740	 6.3990
 2.0750	 6.4230
 2.0760	 6.4450
 2.0770	 6.4680
 2.0780	 6.4910
 2.0790	 6.5150
 2.0800	 6.5370
 2.0810	 6.5590
 2.0820	 6.5820
 2.0830	 6.6020
 2.0840	 6.6230
 2.0850	 6.6460
 2.0860	 6.6680
 2.0870	 6.6900
 2.0880	 6.7140
 2.0890	 6.7340
 2.0900	 6.7510
 2.0910	 6.7700
 2.0920	 6.7860
 2.0930	 6.8040
 2.0940	 6.8240
 2.0950	 6.8430
 2.0960	 6.8620
 2.0970	 6.8800
 2.0980	 6.8990
 2.0990	 6.9160
 2.1000	 6.9320
 2.1010	 6.9490
 2.1020	 6.9650
 2.1030	 6.9810
 2.1040	 6.9980
 2.1050	 7.0140
 2.1060	 7.0290
 2.1070	 7.0440
 2.1080	 7.0600
 2.1090	 7.0760
 2.1100	 7.0900
 2.1110	 7.1030
 2.1120	 7.1150
 2.1130	 7.1260
 2.1140	 7.1380
 2.1150	 7.1520
 2.1160	 7.1640
 2.1170	 7.1770
 2.1180	 7.1880
 2.1190	 7.1960
 2.1200	 7.2060
 2.1210	 7.2130
 2.1220	 7.2230
 2.1230	 7.2330
 2.1240	 7.2440
 2.1250	 7.2550
 2.1260	 7.2650
 2.1270	 7.2760
 2.1280	 7.2860
 2.1290	 7.2960
 2.1300	 7.3020
 2.1310	 7.3120
 2.1320	 7.3250
 2.1330	 7.3360
 2.1340	 7.3520
 2.1350	 7.3640
 2.1360	 7.3700
 2.1370	 7.3800
 2.1380	 7.3890
 2.1390	 7.4000
 2.1400	 7.4140
 2.1410	 7.4280
 2.1420	 7.4420
 2.1430	 7.4590
 2.1440	 7.4730
 2.1450	 7.4850
 2.1460	 7.5010
 2.1470	 7.5150
 2.1480	 7.5320
 2.1490	 7.5520
 2.1500	 7.5700
 2.1510	 7.5890
 2.1520	 7.6070
 2.1530	 7.6260
 2.1540	 7.6410
 2.1550	 7.6530
 2.1560	 7.6670
 2.1570	 7.6800
 2.1580	 7.6940
 2.1590	 7.7090
 2.1600	 7.7260
 2.1610	 7.7420
 2.1620	 7.7560
 2.1630	 7.7710
 2.1640	 7.7860
 2.1650	 7.8010
 2.1660	 7.8170
 2.1670	 7.8310
 2.1680	 7.8410
 2.1690	 7.8550
 2.1700	 7.8710
 2.1710	 7.8850
 2.1720	 7.9010
 2.1730	 7.9150
 2.1740	 7.9240
 2.1750	 7.9370
 2.1760	 7.9510
 2.1770	 7.9660
 2.1780	 7.9830
 2.1790	 7.9990
 2.1800	 8.0150
 2.1810	 8.0310
 2.1820	 8.0470
 2.1830	 8.0640
 2.1840	 8.0800
 2.1850	 8.0960
 2.1860	 8.1140
 2.1870	 8.1330
 2.1880	 8.1510
 2.1890	 8.1690
 2.1900	 8.1870
 2.1910	 8.2050
 2.1920	 8.2200
 2.1930	 8.2330
 2.1940	 8.2490
 2.1950	 8.2650
 2.1960	 8.2810
 2.1970	 8.3000
 2.1980	 8.3170
 2.1990	 8.3320
 2.2000	 8.3470
 2.2010	 8.3630
 2.2020	 8.3780
 2.2030	 8.3900
 2.2040	 8.4040
 2.2050	 8.4180
 2.2060	 8.4320
 2.2070	 8.4460
 2.2080	 8.4610
 2.2090	 8.4740
 2.2100	 8.4850
 2.2110	 8.4970
 2.2120	 8.5100
 2.2130	 8.5220
 2.2140	 8.5320
 2.2150	 8.5430
 2.2160	 8.5520
 2.2170	 8.5630
 2.2180	 8.5770
 2.2190	 8.5870
 2.2200	 8.5990
 2.2210	 8.6070
 2.2220	 8.6110
 2.2230	 8.6150
 2.2240	 8.6160
 2.2250	 8.6170
 2.2260	 8.6170
 2.2270	 8.6150
 2.2280	 8.6120
 2.2290	 8.6080
 2.2300	 8.6010
 2.2310	 8.5940
 2.2320	 8.5820
 2.2330	 8.5710
 2.2340	 8.5620
 2.2350	 8.5550
 2.2360	 8.5410
 2.2370	 8.5290
 2.2380	 8.5120
 2.2390	 8.4870
 2.2400	 8.4670
 2.2410	 8.4510
 2.2420	 8.4280
 2.2430	 8.4010
 2.2440	 8.3750
 2.2450	 8.3470
 2.2460	 8.3190
 2.2470	 8.2940
 2.2480	 8.2650
 2.2490	 8.2340
 2.2500	 8.2010
 2.2510	 8.1640
 2.2520	 8.1290
 2.2530	 8.0920
 2.2540	 8.0570
 2.2550	 8.0220
 2.2560	 7.9870
 2.2570	 7.9520
 2.2580	 7.9170
 2.2590	 7.8810
 2.2600	 7.8460
 2.2610	 7.8130
 2.2620	 7.7750
 2.2630	 7.7390
 2.2640	 7.7040
 2.2650	 7.6700
 2.2660	 7.6360
 2.2670	 7.6040
 2.2680	 7.5720
 2.2690	 7.5450
 2.2700	 7.5200
 2.2710	 7.4940
 2.2720	 7.4740
 2.2730	 7.4450
 2.2740	 7.4090
 2.2750	 7.3790
 2.2760	 7.3470
 2.2770	 7.3180
 2.2780	 7.2930
 2.2790	 7.2650
 2.2800	 7.2350
 2.2810	 7.2090
 2.2820	 7.1870
 2.2830	 7.1610
 2.2840	 7.1360
 2.2850	 7.1070
 2.2860	 7.0700
 2.2870	 7.0390
 2.2880	 7.0090
 2.2890	 6.9790
 2.2900	 6.9530
 2.2910	 6.9230
 2.2920	 6.8920
 2.2930	 6.8600
 2.2940	 6.8260
 2.2950	 6.7920
 2.2960	 6.7570
 2.2970	 6.7230
 2.2980	 6.6890
 2.2990	 6.6560
 2.3000	 6.6170
 2.3010	 6.5820
 2.3020	 6.5560
 2.3030	 6.5230
 2.3040	 6.4910
 2.3050	 6.4690
 2.3060	 6.4380
 2.3070	 6.4070
 2.3080	 6.3840
 2.3090	 6.3570
 2.3100	 6.3330
 2.3110	 6.3170
 2.3120	 6.3040
 2.3130	 6.2960
 2.3140	 6.2900
 2.3150	 6.2910
 2.3160	 6.2910
 2.3170	 6.2970
 2.3180	 6.2970
 2.3190	 6.2980
 2.3200	 6.2960
 2.3210	 6.2900
 2.3220	 6.2830
 2.3230	 6.2740
 2.3240	 6.2640
 2.3250	 6.2520
 2.3260	 6.2370
 2.3270	 6.2190
 2.3280	 6.2020
 2.3290	 6.1880
 2.3300	 6.1670
 2.3310	 6.1430
 2.3320	 6.1210
 2.3330	 6.0930
 2.3340	 6.0680
 2.3350	 6.0480
 2.3360	 6.0250
 2.3370	 6.0010
 2.3380	 5.9740
 2.3390	 5.9460
 2.3400	 5.9190
 2.3410	 5.8850
 2.3420	 5.8580
 2.3430	 5.8350
 2.3440	 5.8120
 2.3450	 5.7950
 2.3460	 5.7730
 2.3470	 5.7410
 2.3480	 5.7190
 2.3490	 5.6970
 2.3500	 5.6780
 2.3510	 5.6680
 2.3520	 5.6540
 2.3530	 5.6360
 2.3540	 5.6260
 2.3550	 5.6090
 2.3560	 5.5950
 2.3570	 5.5830
 2.3580	 5.5640
 2.3590	 5.5620
 2.3600	 5.5610
 2.3610	 5.5570
 2.3620	 5.5510
 2.3630	 5.5300
 2.3640	 5.5090
 2.3650	 5.4880
 2.3660	 5.4660
 2.3670	 5.4540
 2.3680	 5.4330
 2.3690	 5.4040
 2.3700	 5.3790
 2.3710	 5.3540
 2.3720	 5.3300
 2.3730	 5.3160
 2.3740	 5.3030
 2.3750	 5.2830
 2.3760	 5.2660
 2.3770	 5.2450
 2.3780	 5.2160
 2.3790	 5.1870
 2.3800	 5.1490
 2.3810	 5.1170
 2.3820	 5.0930
 2.3830	 5.0700
 2.3840	 5.0490
 2.3850	 5.0200
 2.3860	 4.9900
 2.3870	 4.9730
 2.3880	 4.9560
 2.3890	 4.9490
 2.3900	 4.9360
 2.3910	 4.9010
 2.3920	 4.8790
 2.3930	 4.8590
 2.3940	 4.8310
 2.3950	 4.8090
 2.3960	 4.7860
 2.3970	 4.7680
 2.3980	 4.7520
 2.3990	 4.7390
 2.4000	 4.7280
 2.4010	 4.7020
 2.4020	 4.6750
 2.4030	 4.6590
 2.4040	 4.6370
 2.4050	 4.6240
 2.4060	 4.6060
 2.4070	 4.5680
 2.4080	 4.5370
 2.4090	 4.5100
 2.4100	 4.4850
 2.4110	 4.4750
 2.4120	 4.4490
 2.4130	 4.4080
 2.4140	 4.3720
 2.4150	 4.3410
 2.4160	 4.3230
 2.4170	 4.3130
 2.4180	 4.2970
 2.4190	 4.2810
 2.4200	 4.2600
 2.4210	 4.2410
 2.4220	 4.2150
 2.4230	 4.1870
 2.4240	 4.1700
 2.4250	 4.1510
 2.4260	 4.1260
 2.4270	 4.0910
 2.4280	 4.0480
 2.4290	 4.0090
 2.4300	 3.9880
 2.4310	 3.9810
 2.4320	 3.9700
 2.4330	 3.9550
 2.4340	 3.9290
 2.4350	 3.9010
 2.4360	 3.8770
 2.4370	 3.8490
 2.4380	 3.8280
 2.4390	 3.8130
 2.4400	 3.7970
 2.4410	 3.7780
 2.4420	 3.7630
 2.4430	 3.7370
 2.4440	 3.6970
 2.4450	 3.6770
 2.4460	 3.6450
 2.4470	 3.6180
 2.4480	 3.6170
 2.4490	 3.6020
 2.4500	 3.5790
 2.4510	 3.5510
 2.4520	 3.5280
 2.4530	 3.5130
 2.4540	 3.5020
 2.4550	 3.5020
 2.4560	 3.4910
 2.4570	 3.4660
 2.4580	 3.4410
 2.4590	 3.4190
 2.4600	 3.4010
 2.4610	 3.3790
 2.4620	 3.3570
 2.4630	 3.3330
 2.4640	 3.2960
 2.4650	 3.2670
 2.4660	 3.2490
 2.4670	 3.2250
 2.4680	 3.2110
 2.4690	 3.1890
 2.4700	 3.1810
 2.4710	 3.1920
 2.4720	 3.1890
 2.4730	 3.1940
 2.4740	 3.1880
 2.4750	 3.1710
 2.4760	 3.1530
 2.4770	 3.1190
 2.4780	 3.1110
 2.4790	 3.1170
 2.4800	 3.1060
 2.4810	 3.1080
 2.4820	 3.0690
 2.4830	 3.0330
 2.4840	 3.0150
 2.4850	 3.0100
 2.4860	 3.0140
 2.4870	 3.0340
 2.4880	 3.0580
 2.4890	 3.0370
 2.4900	 3.0160
 2.4910	 2.9910
 2.4920	 2.9230
 2.4930	 2.8820
 2.4940	 2.8500
 2.4950	 2.8290
 2.4960	 2.8470
 2.4970	 2.8920
 2.4980	 2.9170
 2.4990	 2.8840
 2.5000	 2.8950
