Name: Pinus ponderosa 1
Type: vegetation
Class: Tree
Genus: Pinus
Species: ponderosa
Sample No.: VH058
Owner: UCSB
Wavelength Range: VSWIR
Origin: 37.0443; -119.3026; WGS84
Collection Date: 4/20/2013
Description: Samples were collected as part of the HyspIRI Airborne Campaign. 48 individual plants were sampled in three times in 2013 - spring  summer  and fall. The name of the sample includes a 1  2  or 3 which references a different individual of the species. Samples were taken to JPL and processed within 48 hours of collection. The same leaves were processed in the Nicolet and then measured using the ASD.
Measurement: Bidirectional reflectance
First Column: X
Second Column: Y
X Units: Wavelength (micrometers)
Y Units: Reflectance (percentage)
First X Value: 0.35
Last X Value: 2.5
Number of X Values: 2151
Additional Information: vegetation.tree.pinus.ponderosa.vswir.vh058.ucsb.asd.ancillary.txt

 0.3500	 4.6380
 0.3510	 4.4840
 0.3520	 4.5600
 0.3530	 4.5900
 0.3540	 4.3860
 0.3550	 4.4130
 0.3560	 4.5060
 0.3570	 4.5040
 0.3580	 4.3170
 0.3590	 4.3320
 0.3600	 4.3600
 0.3610	 4.3250
 0.3620	 4.3900
 0.3630	 4.4800
 0.3640	 4.4250
 0.3650	 4.1800
 0.3660	 4.2500
 0.3670	 4.3400
 0.3680	 4.3440
 0.3690	 4.3030
 0.3700	 4.2990
 0.3710	 4.2920
 0.3720	 4.2620
 0.3730	 4.2580
 0.3740	 4.2690
 0.3750	 4.2730
 0.3760	 4.2630
 0.3770	 4.3220
 0.3780	 4.3200
 0.3790	 4.2800
 0.3800	 4.3390
 0.3810	 4.2830
 0.3820	 4.2310
 0.3830	 4.2650
 0.3840	 4.2670
 0.3850	 4.2410
 0.3860	 4.2170
 0.3870	 4.2310
 0.3880	 4.2640
 0.3890	 4.2700
 0.3900	 4.2610
 0.3910	 4.3030
 0.3920	 4.2900
 0.3930	 4.2600
 0.3940	 4.2520
 0.3950	 4.2260
 0.3960	 4.2610
 0.3970	 4.2940
 0.3980	 4.2240
 0.3990	 4.2270
 0.4000	 4.2350
 0.4010	 4.2270
 0.4020	 4.2730
 0.4030	 4.3300
 0.4040	 4.3530
 0.4050	 4.3220
 0.4060	 4.3160
 0.4070	 4.3570
 0.4080	 4.4050
 0.4090	 4.3940
 0.4100	 4.4130
 0.4110	 4.4410
 0.4120	 4.4660
 0.4130	 4.5100
 0.4140	 4.5500
 0.4150	 4.5800
 0.4160	 4.6080
 0.4170	 4.6590
 0.4180	 4.7080
 0.4190	 4.7500
 0.4200	 4.7980
 0.4210	 4.8440
 0.4220	 4.8850
 0.4230	 4.9220
 0.4240	 4.9710
 0.4250	 5.0240
 0.4260	 5.0730
 0.4270	 5.1070
 0.4280	 5.1530
 0.4290	 5.2000
 0.4300	 5.2420
 0.4310	 5.2800
 0.4320	 5.3230
 0.4330	 5.3570
 0.4340	 5.3720
 0.4350	 5.4070
 0.4360	 5.4370
 0.4370	 5.4590
 0.4380	 5.4880
 0.4390	 5.5120
 0.4400	 5.5370
 0.4410	 5.5620
 0.4420	 5.5770
 0.4430	 5.5920
 0.4440	 5.6100
 0.4450	 5.6290
 0.4460	 5.6500
 0.4470	 5.6680
 0.4480	 5.6840
 0.4490	 5.7030
 0.4500	 5.7170
 0.4510	 5.7280
 0.4520	 5.7430
 0.4530	 5.7600
 0.4540	 5.7720
 0.4550	 5.7780
 0.4560	 5.7830
 0.4570	 5.8050
 0.4580	 5.8190
 0.4590	 5.8140
 0.4600	 5.8150
 0.4610	 5.8340
 0.4620	 5.8530
 0.4630	 5.8510
 0.4640	 5.8600
 0.4650	 5.8730
 0.4660	 5.8800
 0.4670	 5.8650
 0.4680	 5.8660
 0.4690	 5.8740
 0.4700	 5.8770
 0.4710	 5.8790
 0.4720	 5.8770
 0.4730	 5.8730
 0.4740	 5.8720
 0.4750	 5.8820
 0.4760	 5.8870
 0.4770	 5.8800
 0.4780	 5.8710
 0.4790	 5.8810
 0.4800	 5.8950
 0.4810	 5.8940
 0.4820	 5.8920
 0.4830	 5.8920
 0.4840	 5.8950
 0.4850	 5.8950
 0.4860	 5.9000
 0.4870	 5.9030
 0.4880	 5.9060
 0.4890	 5.9200
 0.4900	 5.9350
 0.4910	 5.9440
 0.4920	 5.9490
 0.4930	 5.9670
 0.4940	 5.9890
 0.4950	 6.0060
 0.4960	 6.0210
 0.4970	 6.0370
 0.4980	 6.0600
 0.4990	 6.0920
 0.5000	 6.1200
 0.5010	 6.1450
 0.5020	 6.1720
 0.5030	 6.2100
 0.5040	 6.2570
 0.5050	 6.3090
 0.5060	 6.3620
 0.5070	 6.4120
 0.5080	 6.4710
 0.5090	 6.5360
 0.5100	 6.6010
 0.5110	 6.6840
 0.5120	 6.7720
 0.5130	 6.8610
 0.5140	 6.9680
 0.5150	 7.0720
 0.5160	 7.1800
 0.5170	 7.3010
 0.5180	 7.4220
 0.5190	 7.5520
 0.5200	 7.6900
 0.5210	 7.8250
 0.5220	 7.9580
 0.5230	 8.0920
 0.5240	 8.2290
 0.5250	 8.3670
 0.5260	 8.4970
 0.5270	 8.6180
 0.5280	 8.7310
 0.5290	 8.8370
 0.5300	 8.9380
 0.5310	 9.0310
 0.5320	 9.1090
 0.5330	 9.1820
 0.5340	 9.2500
 0.5350	 9.3090
 0.5360	 9.3620
 0.5370	 9.4090
 0.5380	 9.4510
 0.5390	 9.4830
 0.5400	 9.5210
 0.5410	 9.5560
 0.5420	 9.5850
 0.5430	 9.6130
 0.5440	 9.6440
 0.5450	 9.6740
 0.5460	 9.6950
 0.5470	 9.7160
 0.5480	 9.7380
 0.5490	 9.7600
 0.5500	 9.7740
 0.5510	 9.7810
 0.5520	 9.7830
 0.5530	 9.7810
 0.5540	 9.7650
 0.5550	 9.7380
 0.5560	 9.7050
 0.5570	 9.6700
 0.5580	 9.6140
 0.5590	 9.5500
 0.5600	 9.4890
 0.5610	 9.4220
 0.5620	 9.3550
 0.5630	 9.2870
 0.5640	 9.2140
 0.5650	 9.1360
 0.5660	 9.0530
 0.5670	 8.9630
 0.5680	 8.8700
 0.5690	 8.7740
 0.5700	 8.6750
 0.5710	 8.5770
 0.5720	 8.4940
 0.5730	 8.4130
 0.5740	 8.3320
 0.5750	 8.2620
 0.5760	 8.1940
 0.5770	 8.1320
 0.5780	 8.0790
 0.5790	 8.0290
 0.5800	 7.9820
 0.5810	 7.9390
 0.5820	 7.9010
 0.5830	 7.8670
 0.5840	 7.8300
 0.5850	 7.7880
 0.5860	 7.7460
 0.5870	 7.7020
 0.5880	 7.6580
 0.5890	 7.6160
 0.5900	 7.5840
 0.5910	 7.5600
 0.5920	 7.5440
 0.5930	 7.5350
 0.5940	 7.5180
 0.5950	 7.5010
 0.5960	 7.4870
 0.5970	 7.4680
 0.5980	 7.4500
 0.5990	 7.4330
 0.6000	 7.4190
 0.6010	 7.4080
 0.6020	 7.3890
 0.6030	 7.3630
 0.6040	 7.3360
 0.6050	 7.3070
 0.6060	 7.2750
 0.6070	 7.2390
 0.6080	 7.2020
 0.6090	 7.1650
 0.6100	 7.1260
 0.6110	 7.0870
 0.6120	 7.0490
 0.6130	 7.0100
 0.6140	 6.9690
 0.6150	 6.9310
 0.6160	 6.8960
 0.6170	 6.8640
 0.6180	 6.8360
 0.6190	 6.8070
 0.6200	 6.7800
 0.6210	 6.7580
 0.6220	 6.7420
 0.6230	 6.7240
 0.6240	 6.7110
 0.6250	 6.7040
 0.6260	 6.6940
 0.6270	 6.6870
 0.6280	 6.6830
 0.6290	 6.6750
 0.6300	 6.6740
 0.6310	 6.6710
 0.6320	 6.6650
 0.6330	 6.6600
 0.6340	 6.6480
 0.6350	 6.6320
 0.6360	 6.6140
 0.6370	 6.5870
 0.6380	 6.5570
 0.6390	 6.5270
 0.6400	 6.4940
 0.6410	 6.4570
 0.6420	 6.4180
 0.6430	 6.3790
 0.6440	 6.3430
 0.6450	 6.3050
 0.6460	 6.2680
 0.6470	 6.2340
 0.6480	 6.2010
 0.6490	 6.1740
 0.6500	 6.1500
 0.6510	 6.1280
 0.6520	 6.1120
 0.6530	 6.0970
 0.6540	 6.0790
 0.6550	 6.0610
 0.6560	 6.0430
 0.6570	 6.0230
 0.6580	 6.0010
 0.6590	 5.9710
 0.6600	 5.9420
 0.6610	 5.9160
 0.6620	 5.8930
 0.6630	 5.8700
 0.6640	 5.8450
 0.6650	 5.8220
 0.6660	 5.8100
 0.6670	 5.7970
 0.6680	 5.7830
 0.6690	 5.7720
 0.6700	 5.7710
 0.6710	 5.7710
 0.6720	 5.7700
 0.6730	 5.7710
 0.6740	 5.7810
 0.6750	 5.7950
 0.6760	 5.8080
 0.6770	 5.8210
 0.6780	 5.8340
 0.6790	 5.8520
 0.6800	 5.8800
 0.6810	 5.9060
 0.6820	 5.9370
 0.6830	 5.9750
 0.6840	 6.0150
 0.6850	 6.0670
 0.6860	 6.1280
 0.6870	 6.1990
 0.6880	 6.2920
 0.6890	 6.4060
 0.6900	 6.5450
 0.6910	 6.7160
 0.6920	 6.9250
 0.6930	 7.1740
 0.6940	 7.4660
 0.6950	 7.7990
 0.6960	 8.1760
 0.6970	 8.5960
 0.6980	 9.0580
 0.6990	 9.5580
 0.7000	10.0930
 0.7010	10.6620
 0.7020	11.2620
 0.7030	11.8870
 0.7040	12.5380
 0.7050	13.2140
 0.7060	13.9040
 0.7070	14.6130
 0.7080	15.3450
 0.7090	16.1030
 0.7100	16.8740
 0.7110	17.6700
 0.7120	18.4910
 0.7130	19.3240
 0.7140	20.1810
 0.7150	21.0630
 0.7160	21.9700
 0.7170	22.8980
 0.7180	23.8410
 0.7190	24.8040
 0.7200	25.7930
 0.7210	26.7970
 0.7220	27.8100
 0.7230	28.8320
 0.7240	29.8720
 0.7250	30.9080
 0.7260	31.9410
 0.7270	32.9750
 0.7280	34.0050
 0.7290	35.0240
 0.7300	36.0300
 0.7310	37.0220
 0.7320	37.9940
 0.7330	38.9440
 0.7340	39.8730
 0.7350	40.7830
 0.7360	41.6620
 0.7370	42.5110
 0.7380	43.3300
 0.7390	44.1190
 0.7400	44.8830
 0.7410	45.6130
 0.7420	46.2970
 0.7430	46.9610
 0.7440	47.5910
 0.7450	48.1840
 0.7460	48.7470
 0.7470	49.2680
 0.7480	49.7580
 0.7490	50.2210
 0.7500	50.6500
 0.7510	51.0340
 0.7520	51.3870
 0.7530	51.7270
 0.7540	52.0370
 0.7550	52.3190
 0.7560	52.5790
 0.7570	52.8250
 0.7580	53.0420
 0.7590	53.2360
 0.7600	53.4160
 0.7610	53.5890
 0.7620	53.7380
 0.7630	53.8700
 0.7640	53.9980
 0.7650	54.1230
 0.7660	54.2320
 0.7670	54.3220
 0.7680	54.4000
 0.7690	54.4800
 0.7700	54.5600
 0.7710	54.6360
 0.7720	54.7000
 0.7730	54.7530
 0.7740	54.8040
 0.7750	54.8580
 0.7760	54.9130
 0.7770	54.9580
 0.7780	54.9970
 0.7790	55.0420
 0.7800	55.0790
 0.7810	55.1070
 0.7820	55.1360
 0.7830	55.1860
 0.7840	55.2220
 0.7850	55.2550
 0.7860	55.2930
 0.7870	55.3150
 0.7880	55.3450
 0.7890	55.3740
 0.7900	55.3910
 0.7910	55.4220
 0.7920	55.4470
 0.7930	55.4660
 0.7940	55.4970
 0.7950	55.5320
 0.7960	55.5570
 0.7970	55.5730
 0.7980	55.6020
 0.7990	55.6210
 0.8000	55.6390
 0.8010	55.6620
 0.8020	55.6730
 0.8030	55.6990
 0.8040	55.7330
 0.8050	55.7550
 0.8060	55.7770
 0.8070	55.7940
 0.8080	55.8090
 0.8090	55.8260
 0.8100	55.8430
 0.8110	55.8580
 0.8120	55.8750
 0.8130	55.9030
 0.8140	55.9300
 0.8150	55.9520
 0.8160	55.9670
 0.8170	55.9830
 0.8180	55.9990
 0.8190	56.0190
 0.8200	56.0480
 0.8210	56.0690
 0.8220	56.0910
 0.8230	56.1150
 0.8240	56.1350
 0.8250	56.1610
 0.8260	56.1820
 0.8270	56.1920
 0.8280	56.2030
 0.8290	56.2210
 0.8300	56.2330
 0.8310	56.2350
 0.8320	56.2610
 0.8330	56.2820
 0.8340	56.2980
 0.8350	56.3170
 0.8360	56.3350
 0.8370	56.3650
 0.8380	56.4010
 0.8390	56.4260
 0.8400	56.4600
 0.8410	56.4940
 0.8420	56.5230
 0.8430	56.5520
 0.8440	56.5820
 0.8450	56.6110
 0.8460	56.6380
 0.8470	56.6700
 0.8480	56.7060
 0.8490	56.7450
 0.8500	56.7830
 0.8510	56.7910
 0.8520	56.8090
 0.8530	56.8420
 0.8540	56.8790
 0.8550	56.9050
 0.8560	56.9290
 0.8570	56.9590
 0.8580	56.9950
 0.8590	57.0220
 0.8600	57.0380
 0.8610	57.0510
 0.8620	57.0840
 0.8630	57.1040
 0.8640	57.1170
 0.8650	57.1350
 0.8660	57.1690
 0.8670	57.1840
 0.8680	57.1880
 0.8690	57.2010
 0.8700	57.2280
 0.8710	57.2460
 0.8720	57.2580
 0.8730	57.2770
 0.8740	57.2930
 0.8750	57.3050
 0.8760	57.3110
 0.8770	57.3140
 0.8780	57.3310
 0.8790	57.3450
 0.8800	57.3480
 0.8810	57.3480
 0.8820	57.3530
 0.8830	57.3610
 0.8840	57.3660
 0.8850	57.3640
 0.8860	57.3690
 0.8870	57.3720
 0.8880	57.3630
 0.8890	57.3670
 0.8900	57.3610
 0.8910	57.3480
 0.8920	57.3390
 0.8930	57.3280
 0.8940	57.3190
 0.8950	57.3140
 0.8960	57.3070
 0.8970	57.3030
 0.8980	57.2930
 0.8990	57.2760
 0.9000	57.2640
 0.9010	57.2520
 0.9020	57.2460
 0.9030	57.2450
 0.9040	57.2360
 0.9050	57.2320
 0.9060	57.2240
 0.9070	57.2050
 0.9080	57.1720
 0.9090	57.1450
 0.9100	57.1290
 0.9110	57.1180
 0.9120	57.0970
 0.9130	57.0880
 0.9140	57.0820
 0.9150	57.0630
 0.9160	57.0350
 0.9170	57.0170
 0.9180	57.0020
 0.9190	56.9790
 0.9200	56.9650
 0.9210	56.9450
 0.9220	56.9110
 0.9230	56.8650
 0.9240	56.8360
 0.9250	56.8110
 0.9260	56.7700
 0.9270	56.7000
 0.9280	56.6490
 0.9290	56.6010
 0.9300	56.5500
 0.9310	56.5040
 0.9320	56.4270
 0.9330	56.3470
 0.9340	56.2780
 0.9350	56.2080
 0.9360	56.1290
 0.9370	56.0480
 0.9380	55.9650
 0.9390	55.8640
 0.9400	55.7730
 0.9410	55.6850
 0.9420	55.5880
 0.9430	55.4730
 0.9440	55.3500
 0.9450	55.2200
 0.9460	55.0770
 0.9470	54.9100
 0.9480	54.7480
 0.9490	54.5750
 0.9500	54.3760
 0.9510	54.1740
 0.9520	53.9730
 0.9530	53.7730
 0.9540	53.5660
 0.9550	53.3530
 0.9560	53.1400
 0.9570	52.9410
 0.9580	52.7590
 0.9590	52.5720
 0.9600	52.4060
 0.9610	52.2630
 0.9620	52.1360
 0.9630	52.0320
 0.9640	51.9270
 0.9650	51.8210
 0.9660	51.7280
 0.9670	51.6750
 0.9680	51.6050
 0.9690	51.5300
 0.9700	51.4850
 0.9710	51.4580
 0.9720	51.4080
 0.9730	51.3530
 0.9740	51.3260
 0.9750	51.2980
 0.9760	51.2780
 0.9770	51.2650
 0.9780	51.2560
 0.9790	51.2480
 0.9800	51.2380
 0.9810	51.2350
 0.9820	51.2500
 0.9830	51.2790
 0.9840	51.3160
 0.9850	51.3540
 0.9860	51.3870
 0.9870	51.4080
 0.9880	51.4490
 0.9890	51.4900
 0.9900	51.5120
 0.9910	51.5940
 0.9920	51.7050
 0.9930	51.8150
 0.9940	51.9260
 0.9950	52.0370
 0.9960	52.1480
 0.9970	52.2590
 0.9980	52.3690
 0.9990	52.4800
 1.0000	52.5910
 1.0010	52.7020
 1.0020	52.8130
 1.0030	52.9230
 1.0040	53.0340
 1.0050	53.1450
 1.0060	53.2560
 1.0070	53.3670
 1.0080	53.4770
 1.0090	53.5880
 1.0100	53.5880
 1.0110	53.6870
 1.0120	53.7860
 1.0130	53.8840
 1.0140	53.9830
 1.0150	54.0830
 1.0160	54.1840
 1.0170	54.2800
 1.0180	54.3800
 1.0190	54.4810
 1.0200	54.5830
 1.0210	54.6840
 1.0220	54.7840
 1.0230	54.8830
 1.0240	54.9780
 1.0250	55.0760
 1.0260	55.1760
 1.0270	55.2730
 1.0280	55.3720
 1.0290	55.4670
 1.0300	55.5600
 1.0310	55.6500
 1.0320	55.7370
 1.0330	55.8210
 1.0340	55.9070
 1.0350	55.9970
 1.0360	56.0890
 1.0370	56.1780
 1.0380	56.2630
 1.0390	56.3440
 1.0400	56.4240
 1.0410	56.5000
 1.0420	56.5740
 1.0430	56.6450
 1.0440	56.7180
 1.0450	56.7900
 1.0460	56.8600
 1.0470	56.9330
 1.0480	57.0010
 1.0490	57.0650
 1.0500	57.1290
 1.0510	57.1920
 1.0520	57.2530
 1.0530	57.3140
 1.0540	57.3750
 1.0550	57.4340
 1.0560	57.4910
 1.0570	57.5460
 1.0580	57.5990
 1.0590	57.6470
 1.0600	57.6890
 1.0610	57.7340
 1.0620	57.7760
 1.0630	57.8180
 1.0640	57.8650
 1.0650	57.9040
 1.0660	57.9390
 1.0670	57.9720
 1.0680	58.0020
 1.0690	58.0260
 1.0700	58.0520
 1.0710	58.0790
 1.0720	58.1000
 1.0730	58.1160
 1.0740	58.1340
 1.0750	58.1480
 1.0760	58.1630
 1.0770	58.1830
 1.0780	58.1940
 1.0790	58.2000
 1.0800	58.2050
 1.0810	58.2010
 1.0820	58.2000
 1.0830	58.2030
 1.0840	58.1990
 1.0850	58.1910
 1.0860	58.1840
 1.0870	58.1690
 1.0880	58.1460
 1.0890	58.1300
 1.0900	58.1130
 1.0910	58.0940
 1.0920	58.0780
 1.0930	58.0530
 1.0940	58.0220
 1.0950	57.9910
 1.0960	57.9580
 1.0970	57.9240
 1.0980	57.8900
 1.0990	57.8530
 1.1000	57.8120
 1.1010	57.7700
 1.1020	57.7260
 1.1030	57.6790
 1.1040	57.6320
 1.1050	57.5840
 1.1060	57.5320
 1.1070	57.4760
 1.1080	57.4190
 1.1090	57.3590
 1.1100	57.2960
 1.1110	57.2320
 1.1120	57.1640
 1.1130	57.0950
 1.1140	57.0180
 1.1150	56.9380
 1.1160	56.8520
 1.1170	56.7630
 1.1180	56.6620
 1.1190	56.5580
 1.1200	56.4410
 1.1210	56.3100
 1.1220	56.1670
 1.1230	56.0120
 1.1240	55.8490
 1.1250	55.6650
 1.1260	55.4690
 1.1270	55.2490
 1.1280	55.0100
 1.1290	54.7490
 1.1300	54.4690
 1.1310	54.1650
 1.1320	53.8390
 1.1330	53.4950
 1.1340	53.1250
 1.1350	52.7440
 1.1360	52.3470
 1.1370	51.9300
 1.1380	51.5030
 1.1390	51.0650
 1.1400	50.6150
 1.1410	50.1700
 1.1420	49.7240
 1.1430	49.2810
 1.1440	48.8490
 1.1450	48.4170
 1.1460	48.0040
 1.1470	47.5980
 1.1480	47.2120
 1.1490	46.8370
 1.1500	46.4850
 1.1510	46.1480
 1.1520	45.8350
 1.1530	45.5420
 1.1540	45.2710
 1.1550	45.0230
 1.1560	44.7940
 1.1570	44.5880
 1.1580	44.4000
 1.1590	44.2250
 1.1600	44.0650
 1.1610	43.9180
 1.1620	43.7810
 1.1630	43.6570
 1.1640	43.5440
 1.1650	43.4400
 1.1660	43.3480
 1.1670	43.2600
 1.1680	43.1810
 1.1690	43.1030
 1.1700	43.0330
 1.1710	42.9620
 1.1720	42.8930
 1.1730	42.8250
 1.1740	42.7560
 1.1750	42.6890
 1.1760	42.6210
 1.1770	42.5510
 1.1780	42.4790
 1.1790	42.4060
 1.1800	42.3340
 1.1810	42.2630
 1.1820	42.1900
 1.1830	42.1170
 1.1840	42.0420
 1.1850	41.9690
 1.1860	41.9000
 1.1870	41.8320
 1.1880	41.7690
 1.1890	41.7090
 1.1900	41.6550
 1.1910	41.6050
 1.1920	41.5620
 1.1930	41.5240
 1.1940	41.4910
 1.1950	41.4640
 1.1960	41.4430
 1.1970	41.4270
 1.1980	41.4180
 1.1990	41.4110
 1.2000	41.4100
 1.2010	41.4170
 1.2020	41.4280
 1.2030	41.4450
 1.2040	41.4690
 1.2050	41.4970
 1.2060	41.5310
 1.2070	41.5700
 1.2080	41.6130
 1.2090	41.6600
 1.2100	41.7100
 1.2110	41.7680
 1.2120	41.8310
 1.2130	41.8990
 1.2140	41.9740
 1.2150	42.0510
 1.2160	42.1320
 1.2170	42.2180
 1.2180	42.3070
 1.2190	42.3980
 1.2200	42.4920
 1.2210	42.5890
 1.2220	42.6880
 1.2230	42.7880
 1.2240	42.8910
 1.2250	42.9920
 1.2260	43.0900
 1.2270	43.1900
 1.2280	43.2850
 1.2290	43.3780
 1.2300	43.4730
 1.2310	43.5640
 1.2320	43.6530
 1.2330	43.7410
 1.2340	43.8270
 1.2350	43.9110
 1.2360	43.9920
 1.2370	44.0720
 1.2380	44.1500
 1.2390	44.2250
 1.2400	44.2990
 1.2410	44.3710
 1.2420	44.4400
 1.2430	44.5050
 1.2440	44.5700
 1.2450	44.6340
 1.2460	44.6970
 1.2470	44.7610
 1.2480	44.8190
 1.2490	44.8740
 1.2500	44.9240
 1.2510	44.9740
 1.2520	45.0250
 1.2530	45.0730
 1.2540	45.1190
 1.2550	45.1650
 1.2560	45.2070
 1.2570	45.2470
 1.2580	45.2850
 1.2590	45.3190
 1.2600	45.3490
 1.2610	45.3790
 1.2620	45.4070
 1.2630	45.4320
 1.2640	45.4540
 1.2650	45.4730
 1.2660	45.4880
 1.2670	45.5000
 1.2680	45.5120
 1.2690	45.5210
 1.2700	45.5280
 1.2710	45.5330
 1.2720	45.5330
 1.2730	45.5300
 1.2740	45.5270
 1.2750	45.5220
 1.2760	45.5120
 1.2770	45.4990
 1.2780	45.4810
 1.2790	45.4580
 1.2800	45.4350
 1.2810	45.4080
 1.2820	45.3770
 1.2830	45.3440
 1.2840	45.3040
 1.2850	45.2610
 1.2860	45.2170
 1.2870	45.1660
 1.2880	45.1110
 1.2890	45.0520
 1.2900	44.9880
 1.2910	44.9180
 1.2920	44.8460
 1.2930	44.7690
 1.2940	44.6860
 1.2950	44.5990
 1.2960	44.5030
 1.2970	44.4040
 1.2980	44.2990
 1.2990	44.1870
 1.3000	44.0710
 1.3010	43.9470
 1.3020	43.8170
 1.3030	43.6830
 1.3040	43.5420
 1.3050	43.3960
 1.3060	43.2450
 1.3070	43.0850
 1.3080	42.9230
 1.3090	42.7550
 1.3100	42.5770
 1.3110	42.3950
 1.3120	42.2020
 1.3130	42.0030
 1.3140	41.7990
 1.3150	41.5880
 1.3160	41.3720
 1.3170	41.1530
 1.3180	40.9300
 1.3190	40.6990
 1.3200	40.4660
 1.3210	40.2250
 1.3220	39.9790
 1.3230	39.7300
 1.3240	39.4760
 1.3250	39.2240
 1.3260	38.9670
 1.3270	38.7070
 1.3280	38.4460
 1.3290	38.1790
 1.3300	37.9120
 1.3310	37.6440
 1.3320	37.3740
 1.3330	37.1090
 1.3340	36.8460
 1.3350	36.5820
 1.3360	36.3220
 1.3370	36.0630
 1.3380	35.8060
 1.3390	35.5540
 1.3400	35.3040
 1.3410	35.0610
 1.3420	34.8210
 1.3430	34.5840
 1.3440	34.3540
 1.3450	34.1270
 1.3460	33.9040
 1.3470	33.6870
 1.3480	33.4740
 1.3490	33.2670
 1.3500	33.0650
 1.3510	32.8660
 1.3520	32.6690
 1.3530	32.4760
 1.3540	32.2840
 1.3550	32.0930
 1.3560	31.9040
 1.3570	31.7140
 1.3580	31.5240
 1.3590	31.3330
 1.3600	31.1400
 1.3610	30.9440
 1.3620	30.7430
 1.3630	30.5390
 1.3640	30.3290
 1.3650	30.1120
 1.3660	29.8900
 1.3670	29.6590
 1.3680	29.4160
 1.3690	29.1620
 1.3700	28.8950
 1.3710	28.6150
 1.3720	28.3220
 1.3730	28.0130
 1.3740	27.6930
 1.3750	27.3550
 1.3760	26.9970
 1.3770	26.6230
 1.3780	26.2270
 1.3790	25.8130
 1.3800	25.3850
 1.3810	24.9370
 1.3820	24.4780
 1.3830	24.0040
 1.3840	23.5210
 1.3850	23.0240
 1.3860	22.5250
 1.3870	22.0140
 1.3880	21.5090
 1.3890	21.0010
 1.3900	20.4940
 1.3910	19.9980
 1.3920	19.5050
 1.3930	19.0180
 1.3940	18.5450
 1.3950	18.0780
 1.3960	17.6250
 1.3970	17.1890
 1.3980	16.7680
 1.3990	16.3700
 1.4000	15.9870
 1.4010	15.6190
 1.4020	15.2700
 1.4030	14.9340
 1.4040	14.6170
 1.4050	14.3190
 1.4060	14.0370
 1.4070	13.7750
 1.4080	13.5280
 1.4090	13.2950
 1.4100	13.0780
 1.4110	12.8720
 1.4120	12.6800
 1.4130	12.5010
 1.4140	12.3320
 1.4150	12.1780
 1.4160	12.0330
 1.4170	11.8980
 1.4180	11.7720
 1.4190	11.6530
 1.4200	11.5430
 1.4210	11.4420
 1.4220	11.3470
 1.4230	11.2600
 1.4240	11.1790
 1.4250	11.1040
 1.4260	11.0340
 1.4270	10.9690
 1.4280	10.9090
 1.4290	10.8540
 1.4300	10.8030
 1.4310	10.7560
 1.4320	10.7120
 1.4330	10.6720
 1.4340	10.6360
 1.4350	10.6030
 1.4360	10.5740
 1.4370	10.5470
 1.4380	10.5240
 1.4390	10.5030
 1.4400	10.4850
 1.4410	10.4690
 1.4420	10.4550
 1.4430	10.4430
 1.4440	10.4330
 1.4450	10.4260
 1.4460	10.4200
 1.4470	10.4150
 1.4480	10.4120
 1.4490	10.4110
 1.4500	10.4110
 1.4510	10.4120
 1.4520	10.4140
 1.4530	10.4170
 1.4540	10.4220
 1.4550	10.4280
 1.4560	10.4350
 1.4570	10.4440
 1.4580	10.4540
 1.4590	10.4660
 1.4600	10.4820
 1.4610	10.5000
 1.4620	10.5200
 1.4630	10.5420
 1.4640	10.5640
 1.4650	10.5890
 1.4660	10.6180
 1.4670	10.6490
 1.4680	10.6830
 1.4690	10.7190
 1.4700	10.7580
 1.4710	10.8000
 1.4720	10.8430
 1.4730	10.8880
 1.4740	10.9360
 1.4750	10.9850
 1.4760	11.0360
 1.4770	11.0900
 1.4780	11.1460
 1.4790	11.2030
 1.4800	11.2610
 1.4810	11.3200
 1.4820	11.3810
 1.4830	11.4440
 1.4840	11.5080
 1.4850	11.5740
 1.4860	11.6390
 1.4870	11.7050
 1.4880	11.7720
 1.4890	11.8400
 1.4900	11.9090
 1.4910	11.9800
 1.4920	12.0500
 1.4930	12.1210
 1.4940	12.1930
 1.4950	12.2650
 1.4960	12.3370
 1.4970	12.4090
 1.4980	12.4820
 1.4990	12.5550
 1.5000	12.6290
 1.5010	12.7050
 1.5020	12.7800
 1.5030	12.8570
 1.5040	12.9330
 1.5050	13.0090
 1.5060	13.0860
 1.5070	13.1620
 1.5080	13.2400
 1.5090	13.3180
 1.5100	13.3960
 1.5110	13.4740
 1.5120	13.5530
 1.5130	13.6310
 1.5140	13.7080
 1.5150	13.7850
 1.5160	13.8620
 1.5170	13.9400
 1.5180	14.0160
 1.5190	14.0930
 1.5200	14.1700
 1.5210	14.2450
 1.5220	14.3200
 1.5230	14.3960
 1.5240	14.4700
 1.5250	14.5460
 1.5260	14.6210
 1.5270	14.6950
 1.5280	14.7700
 1.5290	14.8430
 1.5300	14.9150
 1.5310	14.9870
 1.5320	15.0590
 1.5330	15.1300
 1.5340	15.2010
 1.5350	15.2720
 1.5360	15.3420
 1.5370	15.4120
 1.5380	15.4820
 1.5390	15.5520
 1.5400	15.6210
 1.5410	15.6910
 1.5420	15.7590
 1.5430	15.8280
 1.5440	15.8990
 1.5450	15.9680
 1.5460	16.0380
 1.5470	16.1080
 1.5480	16.1760
 1.5490	16.2440
 1.5500	16.3110
 1.5510	16.3780
 1.5520	16.4460
 1.5530	16.5130
 1.5540	16.5790
 1.5550	16.6450
 1.5560	16.7100
 1.5570	16.7750
 1.5580	16.8390
 1.5590	16.9050
 1.5600	16.9700
 1.5610	17.0330
 1.5620	17.0970
 1.5630	17.1590
 1.5640	17.2190
 1.5650	17.2810
 1.5660	17.3430
 1.5670	17.4060
 1.5680	17.4690
 1.5690	17.5300
 1.5700	17.5900
 1.5710	17.6510
 1.5720	17.7100
 1.5730	17.7700
 1.5740	17.8310
 1.5750	17.8900
 1.5760	17.9500
 1.5770	18.0090
 1.5780	18.0680
 1.5790	18.1280
 1.5800	18.1880
 1.5810	18.2480
 1.5820	18.3090
 1.5830	18.3690
 1.5840	18.4280
 1.5850	18.4860
 1.5860	18.5450
 1.5870	18.6040
 1.5880	18.6640
 1.5890	18.7250
 1.5900	18.7870
 1.5910	18.8480
 1.5920	18.9090
 1.5930	18.9700
 1.5940	19.0310
 1.5950	19.0930
 1.5960	19.1560
 1.5970	19.2190
 1.5980	19.2810
 1.5990	19.3430
 1.6000	19.4050
 1.6010	19.4670
 1.6020	19.5290
 1.6030	19.5920
 1.6040	19.6520
 1.6050	19.7130
 1.6060	19.7730
 1.6070	19.8330
 1.6080	19.8940
 1.6090	19.9540
 1.6100	20.0130
 1.6110	20.0710
 1.6120	20.1280
 1.6130	20.1850
 1.6140	20.2430
 1.6150	20.2990
 1.6160	20.3540
 1.6170	20.4080
 1.6180	20.4600
 1.6190	20.5130
 1.6200	20.5630
 1.6210	20.6120
 1.6220	20.6580
 1.6230	20.7030
 1.6240	20.7460
 1.6250	20.7880
 1.6260	20.8300
 1.6270	20.8710
 1.6280	20.9120
 1.6290	20.9520
 1.6300	20.9890
 1.6310	21.0270
 1.6320	21.0640
 1.6330	21.1020
 1.6340	21.1430
 1.6350	21.1820
 1.6360	21.2230
 1.6370	21.2630
 1.6380	21.3020
 1.6390	21.3420
 1.6400	21.3820
 1.6410	21.4200
 1.6420	21.4570
 1.6430	21.4910
 1.6440	21.5210
 1.6450	21.5490
 1.6460	21.5750
 1.6470	21.6000
 1.6480	21.6230
 1.6490	21.6420
 1.6500	21.6600
 1.6510	21.6730
 1.6520	21.6830
 1.6530	21.6920
 1.6540	21.6980
 1.6550	21.7000
 1.6560	21.7000
 1.6570	21.6980
 1.6580	21.6950
 1.6590	21.6910
 1.6600	21.6870
 1.6610	21.6820
 1.6620	21.6750
 1.6630	21.6680
 1.6640	21.6590
 1.6650	21.6510
 1.6660	21.6450
 1.6670	21.6380
 1.6680	21.6290
 1.6690	21.6200
 1.6700	21.6070
 1.6710	21.5950
 1.6720	21.5830
 1.6730	21.5700
 1.6740	21.5560
 1.6750	21.5400
 1.6760	21.5220
 1.6770	21.5010
 1.6780	21.4790
 1.6790	21.4550
 1.6800	21.4300
 1.6810	21.4020
 1.6820	21.3710
 1.6830	21.3360
 1.6840	21.2990
 1.6850	21.2580
 1.6860	21.2160
 1.6870	21.1720
 1.6880	21.1270
 1.6890	21.0800
 1.6900	21.0320
 1.6910	20.9810
 1.6920	20.9310
 1.6930	20.8790
 1.6940	20.8270
 1.6950	20.7750
 1.6960	20.7220
 1.6970	20.6670
 1.6980	20.6130
 1.6990	20.5560
 1.7000	20.5020
 1.7010	20.4500
 1.7020	20.3980
 1.7030	20.3480
 1.7040	20.2980
 1.7050	20.2480
 1.7060	20.2000
 1.7070	20.1520
 1.7080	20.1070
 1.7090	20.0650
 1.7100	20.0230
 1.7110	19.9830
 1.7120	19.9410
 1.7130	19.8980
 1.7140	19.8570
 1.7150	19.8150
 1.7160	19.7750
 1.7170	19.7340
 1.7180	19.6920
 1.7190	19.6520
 1.7200	19.6130
 1.7210	19.5740
 1.7220	19.5360
 1.7230	19.4980
 1.7240	19.4600
 1.7250	19.4220
 1.7260	19.3860
 1.7270	19.3540
 1.7280	19.3240
 1.7290	19.2950
 1.7300	19.2690
 1.7310	19.2450
 1.7320	19.2260
 1.7330	19.2040
 1.7340	19.1840
 1.7350	19.1600
 1.7360	19.1340
 1.7370	19.1070
 1.7380	19.0790
 1.7390	19.0480
 1.7400	19.0140
 1.7410	18.9770
 1.7420	18.9350
 1.7430	18.8910
 1.7440	18.8450
 1.7450	18.7970
 1.7460	18.7450
 1.7470	18.6950
 1.7480	18.6430
 1.7490	18.5920
 1.7500	18.5420
 1.7510	18.4930
 1.7520	18.4430
 1.7530	18.3950
 1.7540	18.3480
 1.7550	18.3020
 1.7560	18.2570
 1.7570	18.2160
 1.7580	18.1750
 1.7590	18.1360
 1.7600	18.0990
 1.7610	18.0610
 1.7620	18.0260
 1.7630	17.9910
 1.7640	17.9600
 1.7650	17.9310
 1.7660	17.9040
 1.7670	17.8790
 1.7680	17.8540
 1.7690	17.8280
 1.7700	17.8050
 1.7710	17.7840
 1.7720	17.7650
 1.7730	17.7490
 1.7740	17.7320
 1.7750	17.7140
 1.7760	17.6970
 1.7770	17.6790
 1.7780	17.6630
 1.7790	17.6470
 1.7800	17.6350
 1.7810	17.6240
 1.7820	17.6160
 1.7830	17.6090
 1.7840	17.6040
 1.7850	17.6000
 1.7860	17.5990
 1.7870	17.6010
 1.7880	17.6020
 1.7890	17.6050
 1.7900	17.6090
 1.7910	17.6140
 1.7920	17.6190
 1.7930	17.6260
 1.7940	17.6320
 1.7950	17.6410
 1.7960	17.6520
 1.7970	17.6640
 1.7980	17.6770
 1.7990	17.6890
 1.8000	17.7010
 1.8010	17.7140
 1.8020	17.7270
 1.8030	17.7390
 1.8040	17.7510
 1.8050	17.7630
 1.8060	17.7750
 1.8070	17.7860
 1.8080	17.7960
 1.8090	17.8050
 1.8100	17.8120
 1.8110	17.8230
 1.8120	17.8370
 1.8130	17.8470
 1.8140	17.8560
 1.8150	17.8660
 1.8160	17.8710
 1.8170	17.8780
 1.8180	17.8850
 1.8190	17.8930
 1.8200	17.9000
 1.8210	17.9090
 1.8220	17.9150
 1.8230	17.9180
 1.8240	17.9210
 1.8250	17.9240
 1.8260	17.9260
 1.8270	17.8770
 1.8280	17.8290
 1.8290	17.7800
 1.8300	17.7310
 1.8310	17.6830
 1.8320	17.6340
 1.8330	17.5860
 1.8340	17.5370
 1.8350	17.5370
 1.8360	17.5180
 1.8370	17.4970
 1.8380	17.4710
 1.8390	17.4400
 1.8400	17.4060
 1.8410	17.3660
 1.8420	17.3210
 1.8430	17.2720
 1.8440	17.2170
 1.8450	17.1590
 1.8460	17.0930
 1.8470	17.0190
 1.8480	16.9380
 1.8490	16.8470
 1.8500	16.7500
 1.8510	16.6450
 1.8520	16.5350
 1.8530	16.4180
 1.8540	16.2920
 1.8550	16.1590
 1.8560	16.0190
 1.8570	15.8680
 1.8580	15.7070
 1.8590	15.5370
 1.8600	15.3580
 1.8610	15.1700
 1.8620	14.9690
 1.8630	14.7650
 1.8640	14.5530
 1.8650	14.3260
 1.8660	14.0930
 1.8670	13.8480
 1.8680	13.5910
 1.8690	13.3290
 1.8700	13.0580
 1.8710	12.7790
 1.8720	12.4960
 1.8730	12.2070
 1.8740	11.9110
 1.8750	11.6120
 1.8760	11.3090
 1.8770	11.0100
 1.8780	10.7120
 1.8790	10.4130
 1.8800	10.1220
 1.8810	 9.8370
 1.8820	 9.5490
 1.8830	 9.2670
 1.8840	 8.9940
 1.8850	 8.7210
 1.8860	 8.4560
 1.8870	 8.2010
 1.8880	 7.9550
 1.8890	 7.7200
 1.8900	 7.4960
 1.8910	 7.2820
 1.8920	 7.0780
 1.8930	 6.8850
 1.8940	 6.7040
 1.8950	 6.5350
 1.8960	 6.3780
 1.8970	 6.2300
 1.8980	 6.0920
 1.8990	 5.9660
 1.9000	 5.8490
 1.9010	 5.7440
 1.9020	 5.6460
 1.9030	 5.5580
 1.9040	 5.4770
 1.9050	 5.4030
 1.9060	 5.3350
 1.9070	 5.2730
 1.9080	 5.2150
 1.9090	 5.1630
 1.9100	 5.1180
 1.9110	 5.0750
 1.9120	 5.0400
 1.9130	 5.0060
 1.9140	 4.9750
 1.9150	 4.9450
 1.9160	 4.9200
 1.9170	 4.8990
 1.9180	 4.8820
 1.9190	 4.8660
 1.9200	 4.8520
 1.9210	 4.8400
 1.9220	 4.8290
 1.9230	 4.8170
 1.9240	 4.8090
 1.9250	 4.8030
 1.9260	 4.7960
 1.9270	 4.7910
 1.9280	 4.7890
 1.9290	 4.7880
 1.9300	 4.7870
 1.9310	 4.7880
 1.9320	 4.7910
 1.9330	 4.7950
 1.9340	 4.8010
 1.9350	 4.8060
 1.9360	 4.8130
 1.9370	 4.8200
 1.9380	 4.8270
 1.9390	 4.8340
 1.9400	 4.8440
 1.9410	 4.8530
 1.9420	 4.8640
 1.9430	 4.8770
 1.9440	 4.8910
 1.9450	 4.9070
 1.9460	 4.9220
 1.9470	 4.9360
 1.9480	 4.9520
 1.9490	 4.9690
 1.9500	 4.9860
 1.9510	 5.0050
 1.9520	 5.0250
 1.9530	 5.0430
 1.9540	 5.0630
 1.9550	 5.0820
 1.9560	 5.1000
 1.9570	 5.1190
 1.9580	 5.1380
 1.9590	 5.1590
 1.9600	 5.1830
 1.9610	 5.2060
 1.9620	 5.2300
 1.9630	 5.2530
 1.9640	 5.2730
 1.9650	 5.2950
 1.9660	 5.3190
 1.9670	 5.3420
 1.9680	 5.3670
 1.9690	 5.3930
 1.9700	 5.4190
 1.9710	 5.4480
 1.9720	 5.4760
 1.9730	 5.5060
 1.9740	 5.5330
 1.9750	 5.5600
 1.9760	 5.5880
 1.9770	 5.6170
 1.9780	 5.6480
 1.9790	 5.6780
 1.9800	 5.7090
 1.9810	 5.7410
 1.9820	 5.7730
 1.9830	 5.8040
 1.9840	 5.8360
 1.9850	 5.8670
 1.9860	 5.8980
 1.9870	 5.9250
 1.9880	 5.9550
 1.9890	 5.9870
 1.9900	 6.0200
 1.9910	 6.0540
 1.9920	 6.0870
 1.9930	 6.1190
 1.9940	 6.1510
 1.9950	 6.1820
 1.9960	 6.2150
 1.9970	 6.2520
 1.9980	 6.2870
 1.9990	 6.3230
 2.0000	 6.3560
 2.0010	 6.3880
 2.0020	 6.4180
 2.0030	 6.4470
 2.0040	 6.4780
 2.0050	 6.5100
 2.0060	 6.5440
 2.0070	 6.5780
 2.0080	 6.6140
 2.0090	 6.6470
 2.0100	 6.6800
 2.0110	 6.7120
 2.0120	 6.7420
 2.0130	 6.7720
 2.0140	 6.8030
 2.0150	 6.8330
 2.0160	 6.8630
 2.0170	 6.8940
 2.0180	 6.9230
 2.0190	 6.9520
 2.0200	 6.9800
 2.0210	 7.0070
 2.0220	 7.0350
 2.0230	 7.0630
 2.0240	 7.0910
 2.0250	 7.1210
 2.0260	 7.1480
 2.0270	 7.1740
 2.0280	 7.2000
 2.0290	 7.2220
 2.0300	 7.2450
 2.0310	 7.2690
 2.0320	 7.2940
 2.0330	 7.3170
 2.0340	 7.3390
 2.0350	 7.3620
 2.0360	 7.3820
 2.0370	 7.4030
 2.0380	 7.4250
 2.0390	 7.4460
 2.0400	 7.4630
 2.0410	 7.4820
 2.0420	 7.5030
 2.0430	 7.5250
 2.0440	 7.5440
 2.0450	 7.5640
 2.0460	 7.5830
 2.0470	 7.5990
 2.0480	 7.6160
 2.0490	 7.6340
 2.0500	 7.6510
 2.0510	 7.6660
 2.0520	 7.6830
 2.0530	 7.7020
 2.0540	 7.7180
 2.0550	 7.7320
 2.0560	 7.7490
 2.0570	 7.7630
 2.0580	 7.7770
 2.0590	 7.7940
 2.0600	 7.8130
 2.0610	 7.8300
 2.0620	 7.8460
 2.0630	 7.8630
 2.0640	 7.8790
 2.0650	 7.8940
 2.0660	 7.9090
 2.0670	 7.9240
 2.0680	 7.9370
 2.0690	 7.9520
 2.0700	 7.9710
 2.0710	 7.9880
 2.0720	 8.0050
 2.0730	 8.0230
 2.0740	 8.0400
 2.0750	 8.0540
 2.0760	 8.0700
 2.0770	 8.0850
 2.0780	 8.1020
 2.0790	 8.1210
 2.0800	 8.1370
 2.0810	 8.1500
 2.0820	 8.1670
 2.0830	 8.1830
 2.0840	 8.1990
 2.0850	 8.2180
 2.0860	 8.2360
 2.0870	 8.2550
 2.0880	 8.2750
 2.0890	 8.2930
 2.0900	 8.3130
 2.0910	 8.3310
 2.0920	 8.3470
 2.0930	 8.3660
 2.0940	 8.3870
 2.0950	 8.4050
 2.0960	 8.4230
 2.0970	 8.4400
 2.0980	 8.4540
 2.0990	 8.4700
 2.1000	 8.4880
 2.1010	 8.5060
 2.1020	 8.5240
 2.1030	 8.5430
 2.1040	 8.5620
 2.1050	 8.5820
 2.1060	 8.6020
 2.1070	 8.6220
 2.1080	 8.6420
 2.1090	 8.6600
 2.1100	 8.6810
 2.1110	 8.7050
 2.1120	 8.7270
 2.1130	 8.7520
 2.1140	 8.7740
 2.1150	 8.7940
 2.1160	 8.8150
 2.1170	 8.8350
 2.1180	 8.8540
 2.1190	 8.8720
 2.1200	 8.8910
 2.1210	 8.9090
 2.1220	 8.9270
 2.1230	 8.9480
 2.1240	 8.9720
 2.1250	 8.9950
 2.1260	 9.0200
 2.1270	 9.0400
 2.1280	 9.0570
 2.1290	 9.0750
 2.1300	 9.0920
 2.1310	 9.1090
 2.1320	 9.1250
 2.1330	 9.1440
 2.1340	 9.1640
 2.1350	 9.1840
 2.1360	 9.2060
 2.1370	 9.2270
 2.1380	 9.2430
 2.1390	 9.2630
 2.1400	 9.2830
 2.1410	 9.3030
 2.1420	 9.3240
 2.1430	 9.3460
 2.1440	 9.3670
 2.1450	 9.3870
 2.1460	 9.4060
 2.1470	 9.4240
 2.1480	 9.4430
 2.1490	 9.4610
 2.1500	 9.4800
 2.1510	 9.5030
 2.1520	 9.5230
 2.1530	 9.5410
 2.1540	 9.5600
 2.1550	 9.5780
 2.1560	 9.5970
 2.1570	 9.6160
 2.1580	 9.6360
 2.1590	 9.6550
 2.1600	 9.6760
 2.1610	 9.6930
 2.1620	 9.7100
 2.1630	 9.7260
 2.1640	 9.7410
 2.1650	 9.7570
 2.1660	 9.7740
 2.1670	 9.7900
 2.1680	 9.8060
 2.1690	 9.8240
 2.1700	 9.8440
 2.1710	 9.8610
 2.1720	 9.8770
 2.1730	 9.8940
 2.1740	 9.9080
 2.1750	 9.9250
 2.1760	 9.9480
 2.1770	 9.9670
 2.1780	 9.9860
 2.1790	10.0040
 2.1800	10.0150
 2.1810	10.0320
 2.1820	10.0530
 2.1830	10.0730
 2.1840	10.0930
 2.1850	10.1170
 2.1860	10.1340
 2.1870	10.1450
 2.1880	10.1590
 2.1890	10.1700
 2.1900	10.1840
 2.1910	10.2020
 2.1920	10.2180
 2.1930	10.2340
 2.1940	10.2500
 2.1950	10.2670
 2.1960	10.2800
 2.1970	10.2920
 2.1980	10.3050
 2.1990	10.3140
 2.2000	10.3280
 2.2010	10.3460
 2.2020	10.3620
 2.2030	10.3800
 2.2040	10.3940
 2.2050	10.4060
 2.2060	10.4130
 2.2070	10.4210
 2.2080	10.4270
 2.2090	10.4340
 2.2100	10.4400
 2.2110	10.4490
 2.2120	10.4630
 2.2130	10.4700
 2.2140	10.4780
 2.2150	10.4800
 2.2160	10.4740
 2.2170	10.4720
 2.2180	10.4700
 2.2190	10.4670
 2.2200	10.4630
 2.2210	10.4600
 2.2220	10.4570
 2.2230	10.4490
 2.2240	10.4380
 2.2250	10.4270
 2.2260	10.4160
 2.2270	10.4020
 2.2280	10.3890
 2.2290	10.3730
 2.2300	10.3510
 2.2310	10.3290
 2.2320	10.3080
 2.2330	10.2830
 2.2340	10.2570
 2.2350	10.2310
 2.2360	10.2010
 2.2370	10.1670
 2.2380	10.1340
 2.2390	10.0960
 2.2400	10.0620
 2.2410	10.0280
 2.2420	 9.9920
 2.2430	 9.9570
 2.2440	 9.9190
 2.2450	 9.8800
 2.2460	 9.8390
 2.2470	 9.7950
 2.2480	 9.7500
 2.2490	 9.7020
 2.2500	 9.6530
 2.2510	 9.6030
 2.2520	 9.5530
 2.2530	 9.5000
 2.2540	 9.4510
 2.2550	 9.4020
 2.2560	 9.3540
 2.2570	 9.3110
 2.2580	 9.2630
 2.2590	 9.2080
 2.2600	 9.1580
 2.2610	 9.1060
 2.2620	 9.0570
 2.2630	 9.0110
 2.2640	 8.9680
 2.2650	 8.9240
 2.2660	 8.8780
 2.2670	 8.8340
 2.2680	 8.7910
 2.2690	 8.7520
 2.2700	 8.7160
 2.2710	 8.6810
 2.2720	 8.6470
 2.2730	 8.6150
 2.2740	 8.5820
 2.2750	 8.5550
 2.2760	 8.5330
 2.2770	 8.5120
 2.2780	 8.4980
 2.2790	 8.4760
 2.2800	 8.4490
 2.2810	 8.4290
 2.2820	 8.4110
 2.2830	 8.3920
 2.2840	 8.3780
 2.2850	 8.3620
 2.2860	 8.3460
 2.2870	 8.3280
 2.2880	 8.3150
 2.2890	 8.2960
 2.2900	 8.2720
 2.2910	 8.2480
 2.2920	 8.2210
 2.2930	 8.1940
 2.2940	 8.1630
 2.2950	 8.1340
 2.2960	 8.1060
 2.2970	 8.0800
 2.2980	 8.0580
 2.2990	 8.0350
 2.3000	 8.0080
 2.3010	 7.9800
 2.3020	 7.9450
 2.3030	 7.9140
 2.3040	 7.8860
 2.3050	 7.8560
 2.3060	 7.8280
 2.3070	 7.8030
 2.3080	 7.7820
 2.3090	 7.7620
 2.3100	 7.7450
 2.3110	 7.7310
 2.3120	 7.7220
 2.3130	 7.7140
 2.3140	 7.7120
 2.3150	 7.7170
 2.3160	 7.7180
 2.3170	 7.7210
 2.3180	 7.7190
 2.3190	 7.7140
 2.3200	 7.7080
 2.3210	 7.6970
 2.3220	 7.6900
 2.3230	 7.6840
 2.3240	 7.6740
 2.3250	 7.6650
 2.3260	 7.6520
 2.3270	 7.6330
 2.3280	 7.6160
 2.3290	 7.5960
 2.3300	 7.5790
 2.3310	 7.5640
 2.3320	 7.5470
 2.3330	 7.5320
 2.3340	 7.5140
 2.3350	 7.4920
 2.3360	 7.4720
 2.3370	 7.4530
 2.3380	 7.4290
 2.3390	 7.4010
 2.3400	 7.3760
 2.3410	 7.3470
 2.3420	 7.3230
 2.3430	 7.3030
 2.3440	 7.2860
 2.3450	 7.2750
 2.3460	 7.2590
 2.3470	 7.2440
 2.3480	 7.2300
 2.3490	 7.2090
 2.3500	 7.1940
 2.3510	 7.1840
 2.3520	 7.1730
 2.3530	 7.1630
 2.3540	 7.1590
 2.3550	 7.1460
 2.3560	 7.1300
 2.3570	 7.1110
 2.3580	 7.0950
 2.3590	 7.0860
 2.3600	 7.0840
 2.3610	 7.0830
 2.3620	 7.0720
 2.3630	 7.0580
 2.3640	 7.0460
 2.3650	 7.0270
 2.3660	 7.0080
 2.3670	 6.9990
 2.3680	 6.9860
 2.3690	 6.9620
 2.3700	 6.9460
 2.3710	 6.9270
 2.3720	 6.9050
 2.3730	 6.8940
 2.3740	 6.8790
 2.3750	 6.8620
 2.3760	 6.8420
 2.3770	 6.8270
 2.3780	 6.8210
 2.3790	 6.8090
 2.3800	 6.7930
 2.3810	 6.7690
 2.3820	 6.7420
 2.3830	 6.7220
 2.3840	 6.7000
 2.3850	 6.6880
 2.3860	 6.6830
 2.3870	 6.6720
 2.3880	 6.6610
 2.3890	 6.6420
 2.3900	 6.6240
 2.3910	 6.6180
 2.3920	 6.6020
 2.3930	 6.5810
 2.3940	 6.5630
 2.3950	 6.5350
 2.3960	 6.5130
 2.3970	 6.5010
 2.3980	 6.4880
 2.3990	 6.4700
 2.4000	 6.4480
 2.4010	 6.4330
 2.4020	 6.4210
 2.4030	 6.4030
 2.4040	 6.3980
 2.4050	 6.3900
 2.4060	 6.3650
 2.4070	 6.3440
 2.4080	 6.3210
 2.4090	 6.2980
 2.4100	 6.2800
 2.4110	 6.2630
 2.4120	 6.2400
 2.4130	 6.2170
 2.4140	 6.1950
 2.4150	 6.1770
 2.4160	 6.1670
 2.4170	 6.1440
 2.4180	 6.1180
 2.4190	 6.1020
 2.4200	 6.0830
 2.4210	 6.0710
 2.4220	 6.0620
 2.4230	 6.0450
 2.4240	 6.0200
 2.4250	 5.9990
 2.4260	 5.9840
 2.4270	 5.9560
 2.4280	 5.9340
 2.4290	 5.9100
 2.4300	 5.8750
 2.4310	 5.8570
 2.4320	 5.8320
 2.4330	 5.8000
 2.4340	 5.7880
 2.4350	 5.7650
 2.4360	 5.7360
 2.4370	 5.7230
 2.4380	 5.6960
 2.4390	 5.6710
 2.4400	 5.6570
 2.4410	 5.6450
 2.4420	 5.6340
 2.4430	 5.6080
 2.4440	 5.5880
 2.4450	 5.5580
 2.4460	 5.5210
 2.4470	 5.5090
 2.4480	 5.4960
 2.4490	 5.4890
 2.4500	 5.4880
 2.4510	 5.4700
 2.4520	 5.4510
 2.4530	 5.4180
 2.4540	 5.3790
 2.4550	 5.3490
 2.4560	 5.3260
 2.4570	 5.3150
 2.4580	 5.2920
 2.4590	 5.2610
 2.4600	 5.2320
 2.4610	 5.1840
 2.4620	 5.1460
 2.4630	 5.1470
 2.4640	 5.1610
 2.4650	 5.1610
 2.4660	 5.1710
 2.4670	 5.1850
 2.4680	 5.1500
 2.4690	 5.1230
 2.4700	 5.1070
 2.4710	 5.0630
 2.4720	 5.0570
 2.4730	 5.0920
 2.4740	 5.1030
 2.4750	 5.1200
 2.4760	 5.1080
 2.4770	 5.0690
 2.4780	 5.0430
 2.4790	 5.0020
 2.4800	 4.9870
 2.4810	 4.9920
 2.4820	 4.9930
 2.4830	 5.0050
 2.4840	 4.9890
 2.4850	 4.9530
 2.4860	 4.9320
 2.4870	 4.9240
 2.4880	 4.9200
 2.4890	 4.9260
 2.4900	 4.9330
 2.4910	 4.8920
 2.4920	 4.8870
 2.4930	 4.9280
 2.4940	 4.9330
 2.4950	 4.9380
 2.4960	 4.9150
 2.4970	 4.8830
 2.4980	 4.8590
 2.4990	 4.8510
 2.5000	 4.8730
