Name: Umbellularia californica 1
Type: vegetation
Class: Shrub
Genus: Umbellularia
Species: californica
Sample No.: VH025
Owner: UCSB
Wavelength Range: VSWIR
Origin: 34.5074; -119.7634; WGS84
Collection Date: 4/1/2013
Description: Samples were collected as part of the HyspIRI Airborne Campaign. 48 individual plants were sampled in three times in 2013 - spring  summer  and fall. The name of the sample includes a 1  2  or 3 which references a different individual of the species. Samples were taken to JPL and processed within 48 hours of collection. The same leaves were processed in the Nicolet and then measured using the ASD.
Measurement: Bidirectional reflectance
First Column: X
Second Column: Y
X Units: Wavelength (micrometers)
Y Units: Reflectance (percentage)
First X Value: 0.35
Last X Value: 2.5
Number of X Values: 2151
Additional Information: vegetation.shrub.umbellularia.californica.vswir.vh025.ucsb.asd.ancillary.txt

 0.3500	 7.1900
 0.3510	 7.2160
 0.3520	 7.3520
 0.3530	 7.4540
 0.3540	 7.4230
 0.3550	 7.3070
 0.3560	 7.2610
 0.3570	 7.2530
 0.3580	 7.1740
 0.3590	 7.1460
 0.3600	 7.1440
 0.3610	 7.1260
 0.3620	 7.0550
 0.3630	 7.0610
 0.3640	 7.1460
 0.3650	 7.2400
 0.3660	 7.1360
 0.3670	 7.0790
 0.3680	 7.0830
 0.3690	 7.0160
 0.3700	 7.0590
 0.3710	 7.1060
 0.3720	 7.0830
 0.3730	 7.0360
 0.3740	 7.0870
 0.3750	 7.1350
 0.3760	 7.0610
 0.3770	 7.0200
 0.3780	 7.0070
 0.3790	 7.0030
 0.3800	 6.9790
 0.3810	 6.9220
 0.3820	 6.8930
 0.3830	 6.9190
 0.3840	 6.9340
 0.3850	 6.9330
 0.3860	 6.9190
 0.3870	 6.9120
 0.3880	 6.9960
 0.3890	 6.9840
 0.3900	 6.8980
 0.3910	 6.9740
 0.3920	 6.9540
 0.3930	 6.8980
 0.3940	 6.8840
 0.3950	 6.8710
 0.3960	 6.8830
 0.3970	 6.9010
 0.3980	 6.8940
 0.3990	 6.8810
 0.4000	 6.8830
 0.4010	 6.9020
 0.4020	 6.9200
 0.4030	 6.9440
 0.4040	 6.9340
 0.4050	 6.8810
 0.4060	 6.9210
 0.4070	 6.9280
 0.4080	 6.9010
 0.4090	 6.9140
 0.4100	 6.9070
 0.4110	 6.9140
 0.4120	 6.9480
 0.4130	 6.9630
 0.4140	 6.9640
 0.4150	 6.9560
 0.4160	 6.9490
 0.4170	 6.9820
 0.4180	 7.0050
 0.4190	 7.0090
 0.4200	 7.0270
 0.4210	 7.0390
 0.4220	 7.0410
 0.4230	 7.0360
 0.4240	 7.0510
 0.4250	 7.0740
 0.4260	 7.0900
 0.4270	 7.0850
 0.4280	 7.1000
 0.4290	 7.1120
 0.4300	 7.1120
 0.4310	 7.1160
 0.4320	 7.1180
 0.4330	 7.1220
 0.4340	 7.1290
 0.4350	 7.1190
 0.4360	 7.1140
 0.4370	 7.1200
 0.4380	 7.1320
 0.4390	 7.1430
 0.4400	 7.1560
 0.4410	 7.1700
 0.4420	 7.1660
 0.4430	 7.1650
 0.4440	 7.1710
 0.4450	 7.1800
 0.4460	 7.1940
 0.4470	 7.2050
 0.4480	 7.2100
 0.4490	 7.2180
 0.4500	 7.2230
 0.4510	 7.2260
 0.4520	 7.2270
 0.4530	 7.2340
 0.4540	 7.2440
 0.4550	 7.2540
 0.4560	 7.2660
 0.4570	 7.2710
 0.4580	 7.2710
 0.4590	 7.2720
 0.4600	 7.2840
 0.4610	 7.2800
 0.4620	 7.2710
 0.4630	 7.2780
 0.4640	 7.2940
 0.4650	 7.3020
 0.4660	 7.2960
 0.4670	 7.2850
 0.4680	 7.2890
 0.4690	 7.2900
 0.4700	 7.2760
 0.4710	 7.2790
 0.4720	 7.2920
 0.4730	 7.2980
 0.4740	 7.2850
 0.4750	 7.2850
 0.4760	 7.2910
 0.4770	 7.2940
 0.4780	 7.2880
 0.4790	 7.2890
 0.4800	 7.2970
 0.4810	 7.3020
 0.4820	 7.3000
 0.4830	 7.3070
 0.4840	 7.3220
 0.4850	 7.3270
 0.4860	 7.3310
 0.4870	 7.3350
 0.4880	 7.3410
 0.4890	 7.3580
 0.4900	 7.3740
 0.4910	 7.3890
 0.4920	 7.4070
 0.4930	 7.4330
 0.4940	 7.4610
 0.4950	 7.4880
 0.4960	 7.5130
 0.4970	 7.5430
 0.4980	 7.5760
 0.4990	 7.6110
 0.5000	 7.6560
 0.5010	 7.7110
 0.5020	 7.7710
 0.5030	 7.8260
 0.5040	 7.8950
 0.5050	 7.9750
 0.5060	 8.0620
 0.5070	 8.1580
 0.5080	 8.2590
 0.5090	 8.3710
 0.5100	 8.5000
 0.5110	 8.6360
 0.5120	 8.7850
 0.5130	 8.9470
 0.5140	 9.1150
 0.5150	 9.3070
 0.5160	 9.5150
 0.5170	 9.7260
 0.5180	 9.9470
 0.5190	10.1790
 0.5200	10.4180
 0.5210	10.6590
 0.5220	10.9000
 0.5230	11.1420
 0.5240	11.3860
 0.5250	11.6340
 0.5260	11.8660
 0.5270	12.0860
 0.5280	12.3010
 0.5290	12.5010
 0.5300	12.6910
 0.5310	12.8710
 0.5320	13.0380
 0.5330	13.1930
 0.5340	13.3340
 0.5350	13.4590
 0.5360	13.5770
 0.5370	13.6900
 0.5380	13.7940
 0.5390	13.8800
 0.5400	13.9670
 0.5410	14.0510
 0.5420	14.1270
 0.5430	14.1980
 0.5440	14.2630
 0.5450	14.3260
 0.5460	14.3890
 0.5470	14.4450
 0.5480	14.4960
 0.5490	14.5420
 0.5500	14.5770
 0.5510	14.6100
 0.5520	14.6330
 0.5530	14.6370
 0.5540	14.6250
 0.5550	14.5940
 0.5560	14.5450
 0.5570	14.4820
 0.5580	14.4020
 0.5590	14.3110
 0.5600	14.2110
 0.5610	14.0980
 0.5620	13.9800
 0.5630	13.8540
 0.5640	13.7150
 0.5650	13.5660
 0.5660	13.4160
 0.5670	13.2630
 0.5680	13.1010
 0.5690	12.9360
 0.5700	12.7740
 0.5710	12.6140
 0.5720	12.4560
 0.5730	12.3020
 0.5740	12.1560
 0.5750	12.0190
 0.5760	11.8920
 0.5770	11.7670
 0.5780	11.6420
 0.5790	11.5300
 0.5800	11.4270
 0.5810	11.3360
 0.5820	11.2560
 0.5830	11.1790
 0.5840	11.1040
 0.5850	11.0340
 0.5860	10.9690
 0.5870	10.9080
 0.5880	10.8530
 0.5890	10.8050
 0.5900	10.7660
 0.5910	10.7330
 0.5920	10.6990
 0.5930	10.6580
 0.5940	10.6280
 0.5950	10.6020
 0.5960	10.5720
 0.5970	10.5440
 0.5980	10.5130
 0.5990	10.4790
 0.6000	10.4420
 0.6010	10.4050
 0.6020	10.3620
 0.6030	10.3140
 0.6040	10.2680
 0.6050	10.2120
 0.6060	10.1500
 0.6070	10.0880
 0.6080	10.0230
 0.6090	 9.9550
 0.6100	 9.8820
 0.6110	 9.8050
 0.6120	 9.7340
 0.6130	 9.6650
 0.6140	 9.5950
 0.6150	 9.5280
 0.6160	 9.4620
 0.6170	 9.3990
 0.6180	 9.3420
 0.6190	 9.2920
 0.6200	 9.2480
 0.6210	 9.2090
 0.6220	 9.1760
 0.6230	 9.1470
 0.6240	 9.1210
 0.6250	 9.0980
 0.6260	 9.0810
 0.6270	 9.0680
 0.6280	 9.0590
 0.6290	 9.0520
 0.6300	 9.0420
 0.6310	 9.0320
 0.6320	 9.0230
 0.6330	 9.0080
 0.6340	 8.9850
 0.6350	 8.9550
 0.6360	 8.9200
 0.6370	 8.8740
 0.6380	 8.8220
 0.6390	 8.7660
 0.6400	 8.7010
 0.6410	 8.6310
 0.6420	 8.5600
 0.6430	 8.4890
 0.6440	 8.4210
 0.6450	 8.3490
 0.6460	 8.2800
 0.6470	 8.2210
 0.6480	 8.1670
 0.6490	 8.1170
 0.6500	 8.0740
 0.6510	 8.0390
 0.6520	 8.0050
 0.6530	 7.9730
 0.6540	 7.9430
 0.6550	 7.9150
 0.6560	 7.8810
 0.6570	 7.8440
 0.6580	 7.8080
 0.6590	 7.7680
 0.6600	 7.7270
 0.6610	 7.6840
 0.6620	 7.6420
 0.6630	 7.6040
 0.6640	 7.5690
 0.6650	 7.5390
 0.6660	 7.5160
 0.6670	 7.4950
 0.6680	 7.4790
 0.6690	 7.4710
 0.6700	 7.4650
 0.6710	 7.4620
 0.6720	 7.4630
 0.6730	 7.4690
 0.6740	 7.4790
 0.6750	 7.4920
 0.6760	 7.5050
 0.6770	 7.5200
 0.6780	 7.5410
 0.6790	 7.5670
 0.6800	 7.5970
 0.6810	 7.6300
 0.6820	 7.6670
 0.6830	 7.7110
 0.6840	 7.7710
 0.6850	 7.8430
 0.6860	 7.9280
 0.6870	 8.0330
 0.6880	 8.1750
 0.6890	 8.3520
 0.6900	 8.5750
 0.6910	 8.8600
 0.6920	 9.2100
 0.6930	 9.6310
 0.6940	10.1320
 0.6950	10.7210
 0.6960	11.3870
 0.6970	12.1270
 0.6980	12.9350
 0.6990	13.8060
 0.7000	14.7250
 0.7010	15.6790
 0.7020	16.6580
 0.7030	17.6520
 0.7040	18.6500
 0.7050	19.6420
 0.7060	20.6210
 0.7070	21.5900
 0.7080	22.5480
 0.7090	23.4950
 0.7100	24.4150
 0.7110	25.3210
 0.7120	26.2160
 0.7130	27.0930
 0.7140	27.9510
 0.7150	28.7910
 0.7160	29.6130
 0.7170	30.4230
 0.7180	31.2090
 0.7190	31.9750
 0.7200	32.7290
 0.7210	33.4590
 0.7220	34.1690
 0.7230	34.8600
 0.7240	35.5310
 0.7250	36.1710
 0.7260	36.7850
 0.7270	37.3800
 0.7280	37.9580
 0.7290	38.5000
 0.7300	39.0080
 0.7310	39.4930
 0.7320	39.9550
 0.7330	40.4010
 0.7340	40.8290
 0.7350	41.2230
 0.7360	41.5980
 0.7370	41.9480
 0.7380	42.2730
 0.7390	42.5850
 0.7400	42.8730
 0.7410	43.1390
 0.7420	43.3910
 0.7430	43.6250
 0.7440	43.8420
 0.7450	44.0400
 0.7460	44.2220
 0.7470	44.3970
 0.7480	44.5580
 0.7490	44.7000
 0.7500	44.8330
 0.7510	44.9540
 0.7520	45.0610
 0.7530	45.1520
 0.7540	45.2370
 0.7550	45.3190
 0.7560	45.3940
 0.7570	45.4520
 0.7580	45.5140
 0.7590	45.5680
 0.7600	45.6120
 0.7610	45.6620
 0.7620	45.7030
 0.7630	45.7360
 0.7640	45.7680
 0.7650	45.8010
 0.7660	45.8270
 0.7670	45.8450
 0.7680	45.8580
 0.7690	45.8770
 0.7700	45.8910
 0.7710	45.8980
 0.7720	45.9180
 0.7730	45.9320
 0.7740	45.9450
 0.7750	45.9580
 0.7760	45.9580
 0.7770	45.9620
 0.7780	45.9740
 0.7790	45.9910
 0.7800	45.9930
 0.7810	45.9970
 0.7820	46.0060
 0.7830	46.0080
 0.7840	46.0180
 0.7850	46.0270
 0.7860	46.0290
 0.7870	46.0330
 0.7880	46.0350
 0.7890	46.0380
 0.7900	46.0450
 0.7910	46.0530
 0.7920	46.0590
 0.7930	46.0580
 0.7940	46.0460
 0.7950	46.0480
 0.7960	46.0490
 0.7970	46.0440
 0.7980	46.0500
 0.7990	46.0500
 0.8000	46.0460
 0.8010	46.0400
 0.8020	46.0360
 0.8030	46.0340
 0.8040	46.0320
 0.8050	46.0240
 0.8060	46.0230
 0.8070	46.0160
 0.8080	46.0030
 0.8090	46.0040
 0.8100	45.9890
 0.8110	45.9760
 0.8120	45.9750
 0.8130	45.9600
 0.8140	45.9500
 0.8150	45.9440
 0.8160	45.9350
 0.8170	45.9230
 0.8180	45.9130
 0.8190	45.9030
 0.8200	45.8930
 0.8210	45.8790
 0.8220	45.8690
 0.8230	45.8620
 0.8240	45.8470
 0.8250	45.8230
 0.8260	45.8060
 0.8270	45.8000
 0.8280	45.7890
 0.8290	45.7810
 0.8300	45.7740
 0.8310	45.7590
 0.8320	45.7270
 0.8330	45.7110
 0.8340	45.7110
 0.8350	45.7120
 0.8360	45.6940
 0.8370	45.6790
 0.8380	45.6700
 0.8390	45.6580
 0.8400	45.6580
 0.8410	45.6550
 0.8420	45.6430
 0.8430	45.6340
 0.8440	45.6260
 0.8450	45.6200
 0.8460	45.6150
 0.8470	45.6050
 0.8480	45.5900
 0.8490	45.5790
 0.8500	45.5780
 0.8510	45.5820
 0.8520	45.5750
 0.8530	45.5600
 0.8540	45.5500
 0.8550	45.5440
 0.8560	45.5440
 0.8570	45.5420
 0.8580	45.5250
 0.8590	45.5270
 0.8600	45.5270
 0.8610	45.5150
 0.8620	45.5140
 0.8630	45.5170
 0.8640	45.5210
 0.8650	45.5190
 0.8660	45.5060
 0.8670	45.4960
 0.8680	45.4950
 0.8690	45.5000
 0.8700	45.5020
 0.8710	45.4960
 0.8720	45.4880
 0.8730	45.4900
 0.8740	45.4820
 0.8750	45.4730
 0.8760	45.4720
 0.8770	45.4780
 0.8780	45.4850
 0.8790	45.4830
 0.8800	45.4760
 0.8810	45.4780
 0.8820	45.4850
 0.8830	45.4820
 0.8840	45.4660
 0.8850	45.4600
 0.8860	45.4730
 0.8870	45.4840
 0.8880	45.4780
 0.8890	45.4830
 0.8900	45.4840
 0.8910	45.4800
 0.8920	45.4730
 0.8930	45.4630
 0.8940	45.4720
 0.8950	45.4860
 0.8960	45.4760
 0.8970	45.4750
 0.8980	45.4730
 0.8990	45.4660
 0.9000	45.4650
 0.9010	45.4670
 0.9020	45.4640
 0.9030	45.4580
 0.9040	45.4640
 0.9050	45.4630
 0.9060	45.4610
 0.9070	45.4660
 0.9080	45.4690
 0.9090	45.4760
 0.9100	45.4790
 0.9110	45.4760
 0.9120	45.4730
 0.9130	45.4800
 0.9140	45.4840
 0.9150	45.4730
 0.9160	45.4740
 0.9170	45.4670
 0.9180	45.4550
 0.9190	45.4480
 0.9200	45.4460
 0.9210	45.4440
 0.9220	45.4400
 0.9230	45.4400
 0.9240	45.4400
 0.9250	45.4330
 0.9260	45.4180
 0.9270	45.4080
 0.9280	45.4120
 0.9290	45.4050
 0.9300	45.3870
 0.9310	45.3770
 0.9320	45.3810
 0.9330	45.3720
 0.9340	45.3490
 0.9350	45.3410
 0.9360	45.3290
 0.9370	45.3150
 0.9380	45.3000
 0.9390	45.2880
 0.9400	45.2760
 0.9410	45.2500
 0.9420	45.2150
 0.9430	45.2030
 0.9440	45.1790
 0.9450	45.1570
 0.9460	45.1450
 0.9470	45.1160
 0.9480	45.0840
 0.9490	45.0460
 0.9500	45.0060
 0.9510	44.9760
 0.9520	44.9570
 0.9530	44.9280
 0.9540	44.8770
 0.9550	44.8340
 0.9560	44.7910
 0.9570	44.7470
 0.9580	44.7050
 0.9590	44.6960
 0.9600	44.6660
 0.9610	44.6240
 0.9620	44.5950
 0.9630	44.5700
 0.9640	44.5550
 0.9650	44.5450
 0.9660	44.5300
 0.9670	44.5020
 0.9680	44.4890
 0.9690	44.4740
 0.9700	44.4400
 0.9710	44.4360
 0.9720	44.4210
 0.9730	44.4030
 0.9740	44.4030
 0.9750	44.3830
 0.9760	44.3780
 0.9770	44.3810
 0.9780	44.3700
 0.9790	44.3570
 0.9800	44.3540
 0.9810	44.3600
 0.9820	44.3630
 0.9830	44.3550
 0.9840	44.3620
 0.9850	44.3650
 0.9860	44.3380
 0.9870	44.3390
 0.9880	44.3580
 0.9890	44.3730
 0.9900	44.3700
 0.9910	44.3730
 0.9920	44.3890
 0.9930	44.4040
 0.9940	44.4190
 0.9950	44.4340
 0.9960	44.4490
 0.9970	44.4650
 0.9980	44.4800
 0.9990	44.4950
 1.0000	44.5100
 1.0010	44.5260
 1.0020	44.5410
 1.0030	44.5560
 1.0040	44.5710
 1.0050	44.5870
 1.0060	44.6020
 1.0070	44.6170
 1.0080	44.6320
 1.0090	44.6480
 1.0100	44.6480
 1.0110	44.6540
 1.0120	44.6590
 1.0130	44.6650
 1.0140	44.6700
 1.0150	44.6740
 1.0160	44.6780
 1.0170	44.6840
 1.0180	44.6870
 1.0190	44.6900
 1.0200	44.6980
 1.0210	44.7070
 1.0220	44.7130
 1.0230	44.7170
 1.0240	44.7180
 1.0250	44.7240
 1.0260	44.7280
 1.0270	44.7340
 1.0280	44.7460
 1.0290	44.7530
 1.0300	44.7580
 1.0310	44.7620
 1.0320	44.7640
 1.0330	44.7680
 1.0340	44.7730
 1.0350	44.7760
 1.0360	44.7810
 1.0370	44.7870
 1.0380	44.7930
 1.0390	44.8010
 1.0400	44.8040
 1.0410	44.8030
 1.0420	44.8050
 1.0430	44.8010
 1.0440	44.8030
 1.0450	44.8130
 1.0460	44.8150
 1.0470	44.8150
 1.0480	44.8170
 1.0490	44.8160
 1.0500	44.8170
 1.0510	44.8210
 1.0520	44.8250
 1.0530	44.8260
 1.0540	44.8240
 1.0550	44.8240
 1.0560	44.8240
 1.0570	44.8250
 1.0580	44.8280
 1.0590	44.8300
 1.0600	44.8320
 1.0610	44.8310
 1.0620	44.8270
 1.0630	44.8270
 1.0640	44.8280
 1.0650	44.8270
 1.0660	44.8280
 1.0670	44.8270
 1.0680	44.8250
 1.0690	44.8180
 1.0700	44.8140
 1.0710	44.8110
 1.0720	44.8080
 1.0730	44.8080
 1.0740	44.8030
 1.0750	44.7950
 1.0760	44.7900
 1.0770	44.7840
 1.0780	44.7780
 1.0790	44.7740
 1.0800	44.7690
 1.0810	44.7610
 1.0820	44.7550
 1.0830	44.7520
 1.0840	44.7470
 1.0850	44.7420
 1.0860	44.7330
 1.0870	44.7260
 1.0880	44.7180
 1.0890	44.7090
 1.0900	44.6980
 1.0910	44.6910
 1.0920	44.6840
 1.0930	44.6770
 1.0940	44.6740
 1.0950	44.6650
 1.0960	44.6510
 1.0970	44.6400
 1.0980	44.6260
 1.0990	44.6160
 1.1000	44.6110
 1.1010	44.6010
 1.1020	44.5870
 1.1030	44.5760
 1.1040	44.5670
 1.1050	44.5540
 1.1060	44.5440
 1.1070	44.5400
 1.1080	44.5280
 1.1090	44.5110
 1.1100	44.4970
 1.1110	44.4780
 1.1120	44.4630
 1.1130	44.4530
 1.1140	44.4390
 1.1150	44.4260
 1.1160	44.4100
 1.1170	44.3920
 1.1180	44.3720
 1.1190	44.3510
 1.1200	44.3290
 1.1210	44.3070
 1.1220	44.2830
 1.1230	44.2590
 1.1240	44.2330
 1.1250	44.2020
 1.1260	44.1680
 1.1270	44.1320
 1.1280	44.0920
 1.1290	44.0480
 1.1300	44.0030
 1.1310	43.9500
 1.1320	43.8910
 1.1330	43.8300
 1.1340	43.7650
 1.1350	43.6950
 1.1360	43.6210
 1.1370	43.5420
 1.1380	43.4590
 1.1390	43.3750
 1.1400	43.2860
 1.1410	43.1970
 1.1420	43.1090
 1.1430	43.0190
 1.1440	42.9310
 1.1450	42.8440
 1.1460	42.7560
 1.1470	42.6640
 1.1480	42.5790
 1.1490	42.4920
 1.1500	42.4150
 1.1510	42.3420
 1.1520	42.2730
 1.1530	42.2090
 1.1540	42.1490
 1.1550	42.0920
 1.1560	42.0400
 1.1570	41.9950
 1.1580	41.9560
 1.1590	41.9170
 1.1600	41.8800
 1.1610	41.8460
 1.1620	41.8140
 1.1630	41.7870
 1.1640	41.7640
 1.1650	41.7400
 1.1660	41.7180
 1.1670	41.6970
 1.1680	41.6760
 1.1690	41.6570
 1.1700	41.6400
 1.1710	41.6230
 1.1720	41.6080
 1.1730	41.5920
 1.1740	41.5760
 1.1750	41.5580
 1.1760	41.5360
 1.1770	41.5160
 1.1780	41.4950
 1.1790	41.4750
 1.1800	41.4560
 1.1810	41.4370
 1.1820	41.4150
 1.1830	41.3920
 1.1840	41.3690
 1.1850	41.3480
 1.1860	41.3300
 1.1870	41.3120
 1.1880	41.2950
 1.1890	41.2780
 1.1900	41.2630
 1.1910	41.2480
 1.1920	41.2360
 1.1930	41.2260
 1.1940	41.2170
 1.1950	41.2100
 1.1960	41.2050
 1.1970	41.2000
 1.1980	41.1970
 1.1990	41.1960
 1.2000	41.1970
 1.2010	41.2010
 1.2020	41.2050
 1.2030	41.2100
 1.2040	41.2170
 1.2050	41.2220
 1.2060	41.2300
 1.2070	41.2380
 1.2080	41.2460
 1.2090	41.2590
 1.2100	41.2720
 1.2110	41.2870
 1.2120	41.3040
 1.2130	41.3200
 1.2140	41.3340
 1.2150	41.3510
 1.2160	41.3700
 1.2170	41.3910
 1.2180	41.4130
 1.2190	41.4360
 1.2200	41.4580
 1.2210	41.4800
 1.2220	41.5030
 1.2230	41.5260
 1.2240	41.5490
 1.2250	41.5710
 1.2260	41.5920
 1.2270	41.6140
 1.2280	41.6340
 1.2290	41.6530
 1.2300	41.6700
 1.2310	41.6860
 1.2320	41.7040
 1.2330	41.7210
 1.2340	41.7360
 1.2350	41.7500
 1.2360	41.7630
 1.2370	41.7740
 1.2380	41.7850
 1.2390	41.7990
 1.2400	41.8110
 1.2410	41.8210
 1.2420	41.8310
 1.2430	41.8390
 1.2440	41.8470
 1.2450	41.8530
 1.2460	41.8600
 1.2470	41.8670
 1.2480	41.8740
 1.2490	41.8820
 1.2500	41.8880
 1.2510	41.8920
 1.2520	41.8960
 1.2530	41.9000
 1.2540	41.9020
 1.2550	41.9060
 1.2560	41.9090
 1.2570	41.9130
 1.2580	41.9160
 1.2590	41.9170
 1.2600	41.9160
 1.2610	41.9150
 1.2620	41.9130
 1.2630	41.9100
 1.2640	41.9090
 1.2650	41.9070
 1.2660	41.9030
 1.2670	41.8970
 1.2680	41.8930
 1.2690	41.8890
 1.2700	41.8830
 1.2710	41.8790
 1.2720	41.8740
 1.2730	41.8640
 1.2740	41.8540
 1.2750	41.8440
 1.2760	41.8320
 1.2770	41.8240
 1.2780	41.8150
 1.2790	41.8030
 1.2800	41.7930
 1.2810	41.7790
 1.2820	41.7630
 1.2830	41.7490
 1.2840	41.7350
 1.2850	41.7170
 1.2860	41.7010
 1.2870	41.6840
 1.2880	41.6650
 1.2890	41.6420
 1.2900	41.6210
 1.2910	41.5980
 1.2920	41.5730
 1.2930	41.5500
 1.2940	41.5230
 1.2950	41.4940
 1.2960	41.4650
 1.2970	41.4340
 1.2980	41.4010
 1.2990	41.3650
 1.3000	41.3270
 1.3010	41.2870
 1.3020	41.2460
 1.3030	41.2060
 1.3040	41.1640
 1.3050	41.1200
 1.3060	41.0750
 1.3070	41.0290
 1.3080	40.9790
 1.3090	40.9270
 1.3100	40.8720
 1.3110	40.8160
 1.3120	40.7580
 1.3130	40.7010
 1.3140	40.6400
 1.3150	40.5740
 1.3160	40.5080
 1.3170	40.4410
 1.3180	40.3700
 1.3190	40.2970
 1.3200	40.2240
 1.3210	40.1460
 1.3220	40.0670
 1.3230	39.9890
 1.3240	39.9080
 1.3250	39.8250
 1.3260	39.7390
 1.3270	39.6500
 1.3280	39.5620
 1.3290	39.4730
 1.3300	39.3830
 1.3310	39.2910
 1.3320	39.1970
 1.3330	39.1030
 1.3340	39.0070
 1.3350	38.9090
 1.3360	38.8110
 1.3370	38.7120
 1.3380	38.6120
 1.3390	38.5130
 1.3400	38.4120
 1.3410	38.3130
 1.3420	38.2140
 1.3430	38.1140
 1.3440	38.0160
 1.3450	37.9170
 1.3460	37.8170
 1.3470	37.7190
 1.3480	37.6210
 1.3490	37.5230
 1.3500	37.4250
 1.3510	37.3310
 1.3520	37.2350
 1.3530	37.1380
 1.3540	37.0410
 1.3550	36.9420
 1.3560	36.8420
 1.3570	36.7420
 1.3580	36.6410
 1.3590	36.5390
 1.3600	36.4350
 1.3610	36.3290
 1.3620	36.2180
 1.3630	36.1050
 1.3640	35.9860
 1.3650	35.8600
 1.3660	35.7290
 1.3670	35.5920
 1.3680	35.4470
 1.3690	35.2920
 1.3700	35.1290
 1.3710	34.9560
 1.3720	34.7700
 1.3730	34.5710
 1.3740	34.3580
 1.3750	34.1320
 1.3760	33.8880
 1.3770	33.6240
 1.3780	33.3410
 1.3790	33.0390
 1.3800	32.7180
 1.3810	32.3780
 1.3820	32.0220
 1.3830	31.6490
 1.3840	31.2580
 1.3850	30.8500
 1.3860	30.4270
 1.3870	29.9830
 1.3880	29.5350
 1.3890	29.0730
 1.3900	28.6000
 1.3910	28.1270
 1.3920	27.6440
 1.3930	27.1550
 1.3940	26.6680
 1.3950	26.1750
 1.3960	25.6890
 1.3970	25.2100
 1.3980	24.7390
 1.3990	24.2820
 1.4000	23.8350
 1.4010	23.4000
 1.4020	22.9800
 1.4030	22.5720
 1.4040	22.1820
 1.4050	21.8090
 1.4060	21.4520
 1.4070	21.1190
 1.4080	20.8030
 1.4090	20.5030
 1.4100	20.2250
 1.4110	19.9610
 1.4120	19.7150
 1.4130	19.4860
 1.4140	19.2720
 1.4150	19.0750
 1.4160	18.8930
 1.4170	18.7240
 1.4180	18.5690
 1.4190	18.4270
 1.4200	18.2960
 1.4210	18.1760
 1.4220	18.0660
 1.4230	17.9660
 1.4240	17.8750
 1.4250	17.7910
 1.4260	17.7180
 1.4270	17.6500
 1.4280	17.5890
 1.4290	17.5340
 1.4300	17.4850
 1.4310	17.4420
 1.4320	17.4060
 1.4330	17.3740
 1.4340	17.3480
 1.4350	17.3260
 1.4360	17.3080
 1.4370	17.2940
 1.4380	17.2840
 1.4390	17.2770
 1.4400	17.2730
 1.4410	17.2740
 1.4420	17.2780
 1.4430	17.2820
 1.4440	17.2890
 1.4450	17.2970
 1.4460	17.3070
 1.4470	17.3200
 1.4480	17.3350
 1.4490	17.3510
 1.4500	17.3690
 1.4510	17.3880
 1.4520	17.4090
 1.4530	17.4330
 1.4540	17.4560
 1.4550	17.4810
 1.4560	17.5080
 1.4570	17.5370
 1.4580	17.5700
 1.4590	17.6080
 1.4600	17.6500
 1.4610	17.6940
 1.4620	17.7420
 1.4630	17.7950
 1.4640	17.8500
 1.4650	17.9100
 1.4660	17.9760
 1.4670	18.0450
 1.4680	18.1190
 1.4690	18.1980
 1.4700	18.2810
 1.4710	18.3680
 1.4720	18.4570
 1.4730	18.5500
 1.4740	18.6450
 1.4750	18.7430
 1.4760	18.8450
 1.4770	18.9490
 1.4780	19.0540
 1.4790	19.1620
 1.4800	19.2700
 1.4810	19.3790
 1.4820	19.4900
 1.4830	19.6010
 1.4840	19.7150
 1.4850	19.8280
 1.4860	19.9420
 1.4870	20.0580
 1.4880	20.1740
 1.4890	20.2890
 1.4900	20.4060
 1.4910	20.5220
 1.4920	20.6390
 1.4930	20.7560
 1.4940	20.8740
 1.4950	20.9940
 1.4960	21.1120
 1.4970	21.2310
 1.4980	21.3500
 1.4990	21.4670
 1.5000	21.5850
 1.5010	21.7040
 1.5020	21.8210
 1.5030	21.9400
 1.5040	22.0570
 1.5050	22.1720
 1.5060	22.2880
 1.5070	22.4040
 1.5080	22.5190
 1.5090	22.6350
 1.5100	22.7500
 1.5110	22.8630
 1.5120	22.9770
 1.5130	23.0880
 1.5140	23.1980
 1.5150	23.3090
 1.5160	23.4180
 1.5170	23.5270
 1.5180	23.6350
 1.5190	23.7410
 1.5200	23.8450
 1.5210	23.9470
 1.5220	24.0510
 1.5230	24.1540
 1.5240	24.2570
 1.5250	24.3600
 1.5260	24.4600
 1.5270	24.5580
 1.5280	24.6560
 1.5290	24.7520
 1.5300	24.8490
 1.5310	24.9440
 1.5320	25.0380
 1.5330	25.1320
 1.5340	25.2230
 1.5350	25.3140
 1.5360	25.4040
 1.5370	25.4930
 1.5380	25.5810
 1.5390	25.6690
 1.5400	25.7550
 1.5410	25.8410
 1.5420	25.9250
 1.5430	26.0080
 1.5440	26.0910
 1.5450	26.1740
 1.5460	26.2550
 1.5470	26.3350
 1.5480	26.4120
 1.5490	26.4890
 1.5500	26.5670
 1.5510	26.6440
 1.5520	26.7200
 1.5530	26.7940
 1.5540	26.8670
 1.5550	26.9420
 1.5560	27.0150
 1.5570	27.0890
 1.5580	27.1600
 1.5590	27.2290
 1.5600	27.2980
 1.5610	27.3670
 1.5620	27.4340
 1.5630	27.5010
 1.5640	27.5670
 1.5650	27.6320
 1.5660	27.6960
 1.5670	27.7620
 1.5680	27.8280
 1.5690	27.8900
 1.5700	27.9520
 1.5710	28.0140
 1.5720	28.0750
 1.5730	28.1370
 1.5740	28.1970
 1.5750	28.2570
 1.5760	28.3160
 1.5770	28.3740
 1.5780	28.4330
 1.5790	28.4920
 1.5800	28.5490
 1.5810	28.6060
 1.5820	28.6620
 1.5830	28.7180
 1.5840	28.7730
 1.5850	28.8280
 1.5860	28.8830
 1.5870	28.9370
 1.5880	28.9930
 1.5890	29.0480
 1.5900	29.1010
 1.5910	29.1540
 1.5920	29.2050
 1.5930	29.2550
 1.5940	29.3060
 1.5950	29.3580
 1.5960	29.4090
 1.5970	29.4600
 1.5980	29.5110
 1.5990	29.5600
 1.6000	29.6100
 1.6010	29.6600
 1.6020	29.7070
 1.6030	29.7560
 1.6040	29.8030
 1.6050	29.8480
 1.6060	29.8940
 1.6070	29.9400
 1.6080	29.9860
 1.6090	30.0300
 1.6100	30.0720
 1.6110	30.1140
 1.6120	30.1550
 1.6130	30.1980
 1.6140	30.2400
 1.6150	30.2790
 1.6160	30.3170
 1.6170	30.3530
 1.6180	30.3890
 1.6190	30.4240
 1.6200	30.4580
 1.6210	30.4900
 1.6220	30.5210
 1.6230	30.5520
 1.6240	30.5820
 1.6250	30.6090
 1.6260	30.6350
 1.6270	30.6590
 1.6280	30.6820
 1.6290	30.7060
 1.6300	30.7290
 1.6310	30.7510
 1.6320	30.7720
 1.6330	30.7930
 1.6340	30.8130
 1.6350	30.8330
 1.6360	30.8540
 1.6370	30.8740
 1.6380	30.8950
 1.6390	30.9140
 1.6400	30.9330
 1.6410	30.9530
 1.6420	30.9730
 1.6430	30.9920
 1.6440	31.0120
 1.6450	31.0280
 1.6460	31.0420
 1.6470	31.0540
 1.6480	31.0650
 1.6490	31.0750
 1.6500	31.0830
 1.6510	31.0880
 1.6520	31.0910
 1.6530	31.0930
 1.6540	31.0920
 1.6550	31.0900
 1.6560	31.0850
 1.6570	31.0790
 1.6580	31.0720
 1.6590	31.0640
 1.6600	31.0530
 1.6610	31.0420
 1.6620	31.0310
 1.6630	31.0180
 1.6640	31.0030
 1.6650	30.9860
 1.6660	30.9660
 1.6670	30.9450
 1.6680	30.9230
 1.6690	30.8980
 1.6700	30.8690
 1.6710	30.8390
 1.6720	30.8070
 1.6730	30.7750
 1.6740	30.7410
 1.6750	30.7050
 1.6760	30.6640
 1.6770	30.6230
 1.6780	30.5780
 1.6790	30.5320
 1.6800	30.4860
 1.6810	30.4370
 1.6820	30.3850
 1.6830	30.3340
 1.6840	30.2780
 1.6850	30.2220
 1.6860	30.1650
 1.6870	30.1060
 1.6880	30.0490
 1.6890	29.9920
 1.6900	29.9340
 1.6910	29.8770
 1.6920	29.8220
 1.6930	29.7660
 1.6940	29.7120
 1.6950	29.6600
 1.6960	29.6090
 1.6970	29.5590
 1.6980	29.5070
 1.6990	29.4560
 1.7000	29.4060
 1.7010	29.3540
 1.7020	29.3050
 1.7030	29.2580
 1.7040	29.2100
 1.7050	29.1620
 1.7060	29.1160
 1.7070	29.0700
 1.7080	29.0270
 1.7090	28.9870
 1.7100	28.9460
 1.7110	28.9050
 1.7120	28.8660
 1.7130	28.8270
 1.7140	28.7900
 1.7150	28.7540
 1.7160	28.7170
 1.7170	28.6800
 1.7180	28.6440
 1.7190	28.6090
 1.7200	28.5750
 1.7210	28.5430
 1.7220	28.5090
 1.7230	28.4750
 1.7240	28.4420
 1.7250	28.4090
 1.7260	28.3790
 1.7270	28.3520
 1.7280	28.3250
 1.7290	28.3000
 1.7300	28.2740
 1.7310	28.2510
 1.7320	28.2300
 1.7330	28.2090
 1.7340	28.1920
 1.7350	28.1720
 1.7360	28.1520
 1.7370	28.1290
 1.7380	28.1040
 1.7390	28.0760
 1.7400	28.0460
 1.7410	28.0110
 1.7420	27.9730
 1.7430	27.9330
 1.7440	27.8890
 1.7450	27.8430
 1.7460	27.7920
 1.7470	27.7440
 1.7480	27.6930
 1.7490	27.6440
 1.7500	27.5980
 1.7510	27.5490
 1.7520	27.4990
 1.7530	27.4500
 1.7540	27.4000
 1.7550	27.3510
 1.7560	27.3040
 1.7570	27.2590
 1.7580	27.2160
 1.7590	27.1740
 1.7600	27.1350
 1.7610	27.0980
 1.7620	27.0620
 1.7630	27.0270
 1.7640	26.9940
 1.7650	26.9600
 1.7660	26.9300
 1.7670	26.9010
 1.7680	26.8730
 1.7690	26.8480
 1.7700	26.8240
 1.7710	26.8010
 1.7720	26.7790
 1.7730	26.7570
 1.7740	26.7370
 1.7750	26.7200
 1.7760	26.7020
 1.7770	26.6860
 1.7780	26.6710
 1.7790	26.6540
 1.7800	26.6400
 1.7810	26.6290
 1.7820	26.6200
 1.7830	26.6130
 1.7840	26.6080
 1.7850	26.6060
 1.7860	26.6030
 1.7870	26.6010
 1.7880	26.6000
 1.7890	26.6000
 1.7900	26.6000
 1.7910	26.6020
 1.7920	26.6020
 1.7930	26.6040
 1.7940	26.6080
 1.7950	26.6130
 1.7960	26.6210
 1.7970	26.6270
 1.7980	26.6340
 1.7990	26.6410
 1.8000	26.6470
 1.8010	26.6550
 1.8020	26.6640
 1.8030	26.6730
 1.8040	26.6840
 1.8050	26.6920
 1.8060	26.6980
 1.8070	26.7060
 1.8080	26.7130
 1.8090	26.7210
 1.8100	26.7300
 1.8110	26.7370
 1.8120	26.7410
 1.8130	26.7450
 1.8140	26.7480
 1.8150	26.7490
 1.8160	26.7510
 1.8170	26.7520
 1.8180	26.7510
 1.8190	26.7510
 1.8200	26.7500
 1.8210	26.7480
 1.8220	26.7440
 1.8230	26.7400
 1.8240	26.7340
 1.8250	26.7260
 1.8260	26.7180
 1.8270	26.7140
 1.8280	26.7090
 1.8290	26.7040
 1.8300	26.6990
 1.8310	26.6950
 1.8320	26.6900
 1.8330	26.6850
 1.8340	26.6800
 1.8350	26.6800
 1.8360	26.6450
 1.8370	26.6060
 1.8380	26.5660
 1.8390	26.5220
 1.8400	26.4770
 1.8410	26.4220
 1.8420	26.3630
 1.8430	26.2980
 1.8440	26.2210
 1.8450	26.1370
 1.8460	26.0510
 1.8470	25.9560
 1.8480	25.8540
 1.8490	25.7470
 1.8500	25.6280
 1.8510	25.5010
 1.8520	25.3620
 1.8530	25.2140
 1.8540	25.0540
 1.8550	24.8800
 1.8560	24.6980
 1.8570	24.5020
 1.8580	24.2860
 1.8590	24.0630
 1.8600	23.8300
 1.8610	23.5800
 1.8620	23.3120
 1.8630	23.0360
 1.8640	22.7400
 1.8650	22.4240
 1.8660	22.0950
 1.8670	21.7450
 1.8680	21.3750
 1.8690	20.9890
 1.8700	20.5840
 1.8710	20.1590
 1.8720	19.7250
 1.8730	19.2800
 1.8740	18.8240
 1.8750	18.3630
 1.8760	17.8900
 1.8770	17.4120
 1.8780	16.9280
 1.8790	16.4380
 1.8800	15.9570
 1.8810	15.4790
 1.8820	15.0010
 1.8830	14.5270
 1.8840	14.0580
 1.8850	13.5920
 1.8860	13.1370
 1.8870	12.6980
 1.8880	12.2750
 1.8890	11.8730
 1.8900	11.4880
 1.8910	11.1230
 1.8920	10.7730
 1.8930	10.4490
 1.8940	10.1440
 1.8950	 9.8600
 1.8960	 9.5990
 1.8970	 9.3570
 1.8980	 9.1350
 1.8990	 8.9360
 1.9000	 8.7510
 1.9010	 8.5870
 1.9020	 8.4370
 1.9030	 8.3050
 1.9040	 8.1840
 1.9050	 8.0760
 1.9060	 7.9790
 1.9070	 7.8940
 1.9080	 7.8200
 1.9090	 7.7550
 1.9100	 7.6990
 1.9110	 7.6480
 1.9120	 7.6040
 1.9130	 7.5620
 1.9140	 7.5250
 1.9150	 7.4910
 1.9160	 7.4610
 1.9170	 7.4350
 1.9180	 7.4160
 1.9190	 7.4010
 1.9200	 7.3880
 1.9210	 7.3790
 1.9220	 7.3710
 1.9230	 7.3640
 1.9240	 7.3600
 1.9250	 7.3580
 1.9260	 7.3550
 1.9270	 7.3570
 1.9280	 7.3600
 1.9290	 7.3620
 1.9300	 7.3670
 1.9310	 7.3730
 1.9320	 7.3810
 1.9330	 7.3920
 1.9340	 7.4070
 1.9350	 7.4220
 1.9360	 7.4370
 1.9370	 7.4550
 1.9380	 7.4730
 1.9390	 7.4920
 1.9400	 7.5130
 1.9410	 7.5340
 1.9420	 7.5560
 1.9430	 7.5790
 1.9440	 7.6040
 1.9450	 7.6310
 1.9460	 7.6580
 1.9470	 7.6870
 1.9480	 7.7160
 1.9490	 7.7460
 1.9500	 7.7780
 1.9510	 7.8110
 1.9520	 7.8460
 1.9530	 7.8820
 1.9540	 7.9180
 1.9550	 7.9550
 1.9560	 7.9920
 1.9570	 8.0300
 1.9580	 8.0690
 1.9590	 8.1090
 1.9600	 8.1520
 1.9610	 8.1940
 1.9620	 8.2340
 1.9630	 8.2790
 1.9640	 8.3260
 1.9650	 8.3710
 1.9660	 8.4180
 1.9670	 8.4670
 1.9680	 8.5160
 1.9690	 8.5640
 1.9700	 8.6140
 1.9710	 8.6680
 1.9720	 8.7200
 1.9730	 8.7740
 1.9740	 8.8280
 1.9750	 8.8800
 1.9760	 8.9360
 1.9770	 8.9910
 1.9780	 9.0480
 1.9790	 9.1060
 1.9800	 9.1660
 1.9810	 9.2250
 1.9820	 9.2850
 1.9830	 9.3460
 1.9840	 9.4080
 1.9850	 9.4710
 1.9860	 9.5340
 1.9870	 9.5980
 1.9880	 9.6600
 1.9890	 9.7230
 1.9900	 9.7840
 1.9910	 9.8480
 1.9920	 9.9130
 1.9930	 9.9820
 1.9940	10.0480
 1.9950	10.1170
 1.9960	10.1830
 1.9970	10.2450
 1.9980	10.3110
 1.9990	10.3790
 2.0000	10.4470
 2.0010	10.5140
 2.0020	10.5800
 2.0030	10.6440
 2.0040	10.7080
 2.0050	10.7750
 2.0060	10.8470
 2.0070	10.9140
 2.0080	10.9800
 2.0090	11.0460
 2.0100	11.1080
 2.0110	11.1720
 2.0120	11.2380
 2.0130	11.3030
 2.0140	11.3680
 2.0150	11.4320
 2.0160	11.4940
 2.0170	11.5570
 2.0180	11.6180
 2.0190	11.6770
 2.0200	11.7370
 2.0210	11.7960
 2.0220	11.8550
 2.0230	11.9120
 2.0240	11.9690
 2.0250	12.0250
 2.0260	12.0800
 2.0270	12.1340
 2.0280	12.1890
 2.0290	12.2430
 2.0300	12.2960
 2.0310	12.3490
 2.0320	12.4020
 2.0330	12.4530
 2.0340	12.5050
 2.0350	12.5530
 2.0360	12.5970
 2.0370	12.6420
 2.0380	12.6820
 2.0390	12.7250
 2.0400	12.7670
 2.0410	12.8090
 2.0420	12.8540
 2.0430	12.8970
 2.0440	12.9380
 2.0450	12.9790
 2.0460	13.0200
 2.0470	13.0590
 2.0480	13.0980
 2.0490	13.1360
 2.0500	13.1760
 2.0510	13.2150
 2.0520	13.2560
 2.0530	13.3010
 2.0540	13.3440
 2.0550	13.3860
 2.0560	13.4270
 2.0570	13.4670
 2.0580	13.5080
 2.0590	13.5520
 2.0600	13.5980
 2.0610	13.6400
 2.0620	13.6810
 2.0630	13.7240
 2.0640	13.7650
 2.0650	13.8090
 2.0660	13.8580
 2.0670	13.9020
 2.0680	13.9430
 2.0690	13.9860
 2.0700	14.0300
 2.0710	14.0720
 2.0720	14.1130
 2.0730	14.1580
 2.0740	14.2010
 2.0750	14.2410
 2.0760	14.2830
 2.0770	14.3270
 2.0780	14.3700
 2.0790	14.4140
 2.0800	14.4560
 2.0810	14.4980
 2.0820	14.5390
 2.0830	14.5790
 2.0840	14.6190
 2.0850	14.6610
 2.0860	14.7010
 2.0870	14.7420
 2.0880	14.7830
 2.0890	14.8230
 2.0900	14.8630
 2.0910	14.9040
 2.0920	14.9470
 2.0930	14.9880
 2.0940	15.0280
 2.0950	15.0710
 2.0960	15.1170
 2.0970	15.1600
 2.0980	15.2060
 2.0990	15.2500
 2.1000	15.2900
 2.1010	15.3310
 2.1020	15.3700
 2.1030	15.4090
 2.1040	15.4480
 2.1050	15.4850
 2.1060	15.5260
 2.1070	15.5700
 2.1080	15.6130
 2.1090	15.6590
 2.1100	15.7010
 2.1110	15.7410
 2.1120	15.7830
 2.1130	15.8230
 2.1140	15.8630
 2.1150	15.9040
 2.1160	15.9410
 2.1170	15.9750
 2.1180	16.0100
 2.1190	16.0440
 2.1200	16.0800
 2.1210	16.1220
 2.1220	16.1590
 2.1230	16.1960
 2.1240	16.2330
 2.1250	16.2690
 2.1260	16.3010
 2.1270	16.3370
 2.1280	16.3730
 2.1290	16.4080
 2.1300	16.4430
 2.1310	16.4740
 2.1320	16.5000
 2.1330	16.5280
 2.1340	16.5560
 2.1350	16.5830
 2.1360	16.6130
 2.1370	16.6410
 2.1380	16.6660
 2.1390	16.6920
 2.1400	16.7160
 2.1410	16.7390
 2.1420	16.7660
 2.1430	16.7960
 2.1440	16.8230
 2.1450	16.8520
 2.1460	16.8770
 2.1470	16.8970
 2.1480	16.9190
 2.1490	16.9400
 2.1500	16.9620
 2.1510	16.9840
 2.1520	17.0050
 2.1530	17.0250
 2.1540	17.0460
 2.1550	17.0670
 2.1560	17.0880
 2.1570	17.1080
 2.1580	17.1270
 2.1590	17.1440
 2.1600	17.1610
 2.1610	17.1820
 2.1620	17.2000
 2.1630	17.2170
 2.1640	17.2360
 2.1650	17.2520
 2.1660	17.2630
 2.1670	17.2800
 2.1680	17.2990
 2.1690	17.3180
 2.1700	17.3400
 2.1710	17.3610
 2.1720	17.3800
 2.1730	17.4010
 2.1740	17.4210
 2.1750	17.4420
 2.1760	17.4640
 2.1770	17.4840
 2.1780	17.5030
 2.1790	17.5220
 2.1800	17.5390
 2.1810	17.5590
 2.1820	17.5820
 2.1830	17.6050
 2.1840	17.6270
 2.1850	17.6520
 2.1860	17.6730
 2.1870	17.6930
 2.1880	17.7120
 2.1890	17.7300
 2.1900	17.7500
 2.1910	17.7690
 2.1920	17.7900
 2.1930	17.8150
 2.1940	17.8370
 2.1950	17.8610
 2.1960	17.8810
 2.1970	17.8970
 2.1980	17.9120
 2.1990	17.9250
 2.2000	17.9360
 2.2010	17.9450
 2.2020	17.9550
 2.2030	17.9640
 2.2040	17.9740
 2.2050	17.9890
 2.2060	17.9990
 2.2070	18.0070
 2.2080	18.0140
 2.2090	18.0180
 2.2100	18.0160
 2.2110	18.0160
 2.2120	18.0140
 2.2130	18.0120
 2.2140	18.0100
 2.2150	18.0050
 2.2160	17.9990
 2.2170	17.9890
 2.2180	17.9750
 2.2190	17.9610
 2.2200	17.9460
 2.2210	17.9300
 2.2220	17.9120
 2.2230	17.8970
 2.2240	17.8840
 2.2250	17.8680
 2.2260	17.8530
 2.2270	17.8360
 2.2280	17.8150
 2.2290	17.7930
 2.2300	17.7730
 2.2310	17.7470
 2.2320	17.7180
 2.2330	17.6860
 2.2340	17.6480
 2.2350	17.6060
 2.2360	17.5620
 2.2370	17.5140
 2.2380	17.4680
 2.2390	17.4210
 2.2400	17.3680
 2.2410	17.3110
 2.2420	17.2540
 2.2430	17.1890
 2.2440	17.1300
 2.2450	17.0760
 2.2460	17.0150
 2.2470	16.9530
 2.2480	16.8880
 2.2490	16.8180
 2.2500	16.7480
 2.2510	16.6780
 2.2520	16.6060
 2.2530	16.5320
 2.2540	16.4560
 2.2550	16.3780
 2.2560	16.2990
 2.2570	16.2190
 2.2580	16.1370
 2.2590	16.0490
 2.2600	15.9680
 2.2610	15.8880
 2.2620	15.8110
 2.2630	15.7350
 2.2640	15.6580
 2.2650	15.5790
 2.2660	15.5020
 2.2670	15.4290
 2.2680	15.3580
 2.2690	15.2940
 2.2700	15.2340
 2.2710	15.1750
 2.2720	15.1210
 2.2730	15.0660
 2.2740	15.0110
 2.2750	14.9600
 2.2760	14.9130
 2.2770	14.8640
 2.2780	14.8150
 2.2790	14.7690
 2.2800	14.7240
 2.2810	14.6820
 2.2820	14.6480
 2.2830	14.6060
 2.2840	14.5600
 2.2850	14.5150
 2.2860	14.4630
 2.2870	14.4150
 2.2880	14.3720
 2.2890	14.3240
 2.2900	14.2760
 2.2910	14.2250
 2.2920	14.1710
 2.2930	14.1170
 2.2940	14.0620
 2.2950	14.0070
 2.2960	13.9510
 2.2970	13.8970
 2.2980	13.8450
 2.2990	13.7890
 2.3000	13.7370
 2.3010	13.6820
 2.3020	13.6290
 2.3030	13.5840
 2.3040	13.5390
 2.3050	13.5000
 2.3060	13.4660
 2.3070	13.4330
 2.3080	13.4070
 2.3090	13.3860
 2.3100	13.3650
 2.3110	13.3520
 2.3120	13.3430
 2.3130	13.3420
 2.3140	13.3360
 2.3150	13.3320
 2.3160	13.3260
 2.3170	13.3180
 2.3180	13.3100
 2.3190	13.3040
 2.3200	13.2980
 2.3210	13.2900
 2.3220	13.2810
 2.3230	13.2750
 2.3240	13.2610
 2.3250	13.2410
 2.3260	13.2180
 2.3270	13.1870
 2.3280	13.1590
 2.3290	13.1330
 2.3300	13.1010
 2.3310	13.0630
 2.3320	13.0280
 2.3330	12.9850
 2.3340	12.9510
 2.3350	12.9260
 2.3360	12.8940
 2.3370	12.8610
 2.3380	12.8270
 2.3390	12.7910
 2.3400	12.7540
 2.3410	12.7160
 2.3420	12.6780
 2.3430	12.6370
 2.3440	12.6000
 2.3450	12.5700
 2.3460	12.5350
 2.3470	12.4950
 2.3480	12.4650
 2.3490	12.4360
 2.3500	12.4080
 2.3510	12.3880
 2.3520	12.3660
 2.3530	12.3380
 2.3540	12.3220
 2.3550	12.3040
 2.3560	12.2840
 2.3570	12.2670
 2.3580	12.2450
 2.3590	12.2240
 2.3600	12.2060
 2.3610	12.1800
 2.3620	12.1510
 2.3630	12.1220
 2.3640	12.0970
 2.3650	12.0720
 2.3660	12.0510
 2.3670	12.0260
 2.3680	11.9920
 2.3690	11.9690
 2.3700	11.9400
 2.3710	11.9050
 2.3720	11.8760
 2.3730	11.8360
 2.3740	11.7950
 2.3750	11.7600
 2.3760	11.7350
 2.3770	11.7140
 2.3780	11.6950
 2.3790	11.6740
 2.3800	11.6390
 2.3810	11.6040
 2.3820	11.5700
 2.3830	11.5310
 2.3840	11.4990
 2.3850	11.4630
 2.3860	11.4190
 2.3870	11.3850
 2.3880	11.3520
 2.3890	11.3170
 2.3900	11.2960
 2.3910	11.2700
 2.3920	11.2330
 2.3930	11.1990
 2.3940	11.1560
 2.3950	11.1180
 2.3960	11.0840
 2.3970	11.0390
 2.3980	11.0010
 2.3990	10.9610
 2.4000	10.9140
 2.4010	10.8760
 2.4020	10.8470
 2.4030	10.8230
 2.4040	10.7970
 2.4050	10.7670
 2.4060	10.7280
 2.4070	10.6820
 2.4080	10.6390
 2.4090	10.5970
 2.4100	10.5610
 2.4110	10.5250
 2.4120	10.4920
 2.4130	10.4680
 2.4140	10.4290
 2.4150	10.3930
 2.4160	10.3560
 2.4170	10.3090
 2.4180	10.2780
 2.4190	10.2430
 2.4200	10.1980
 2.4210	10.1540
 2.4220	10.1180
 2.4230	10.0790
 2.4240	10.0400
 2.4250	10.0060
 2.4260	 9.9590
 2.4270	 9.9180
 2.4280	 9.8800
 2.4290	 9.8340
 2.4300	 9.7930
 2.4310	 9.7500
 2.4320	 9.7080
 2.4330	 9.6670
 2.4340	 9.6340
 2.4350	 9.6040
 2.4360	 9.5700
 2.4370	 9.5470
 2.4380	 9.5190
 2.4390	 9.4760
 2.4400	 9.4310
 2.4410	 9.3850
 2.4420	 9.3430
 2.4430	 9.3030
 2.4440	 9.2670
 2.4450	 9.2330
 2.4460	 9.1890
 2.4470	 9.1580
 2.4480	 9.1280
 2.4490	 9.0790
 2.4500	 9.0310
 2.4510	 8.9770
 2.4520	 8.9430
 2.4530	 8.9200
 2.4540	 8.8930
 2.4550	 8.8700
 2.4560	 8.8290
 2.4570	 8.7910
 2.4580	 8.7570
 2.4590	 8.7160
 2.4600	 8.6790
 2.4610	 8.6420
 2.4620	 8.6210
 2.4630	 8.6070
 2.4640	 8.5890
 2.4650	 8.5640
 2.4660	 8.5240
 2.4670	 8.4900
 2.4680	 8.4600
 2.4690	 8.4510
 2.4700	 8.4260
 2.4710	 8.3880
 2.4720	 8.3790
 2.4730	 8.3830
 2.4740	 8.3860
 2.4750	 8.4350
 2.4760	 8.4220
 2.4770	 8.3550
 2.4780	 8.3060
 2.4790	 8.2320
 2.4800	 8.1910
 2.4810	 8.1760
 2.4820	 8.1640
 2.4830	 8.1300
 2.4840	 8.1270
 2.4850	 8.1230
 2.4860	 8.0890
 2.4870	 8.0970
 2.4880	 8.0950
 2.4890	 8.0550
 2.4900	 8.0500
 2.4910	 8.0400
 2.4920	 7.9970
 2.4930	 7.9780
 2.4940	 7.9390
 2.4950	 7.9110
 2.4960	 7.9270
 2.4970	 7.9600
 2.4980	 8.0130
 2.4990	 8.0210
 2.5000	 7.9720
