Name: Baccharis pilularis 2
Type: vegetation
Class: Shrub
Genus: Baccharis
Species: pilularis
Sample No.: VH196
Owner: UCSB
Wavelength Range: VSWIR
Origin: 34.4186; -119.8458; WGS84
Collection Date: 10/13/2013
Description: Samples were collected as part of the HyspIRI Airborne Campaign. 48 individual plants were sampled in three times in 2013 - spring  summer  and fall. The name of the sample includes a 1  2  or 3 which references a different individual of the species. Samples were taken to JPL and processed within 48 hours of collection. The same leaves were processed in the Nicolet and then measured using the ASD.
Measurement: Bidirectional reflectance
First Column: X
Second Column: Y
X Units: Wavelength (micrometers)
Y Units: Reflectance (percentage)
First X Value: 0.35
Last X Value: 2.5
Number of X Values: 2151
Additional Information: vegetation.shrub.baccharis.pilularis.vswir.vh196.ucsb.asd.ancillary.txt

 0.3500	 4.4460
 0.3510	 4.2890
 0.3520	 4.1250
 0.3530	 4.0630
 0.3540	 4.1190
 0.3550	 3.9720
 0.3560	 3.9270
 0.3570	 4.0350
 0.3580	 4.1760
 0.3590	 4.0790
 0.3600	 3.9560
 0.3610	 3.9350
 0.3620	 3.9690
 0.3630	 3.9430
 0.3640	 3.9420
 0.3650	 4.0200
 0.3660	 3.9130
 0.3670	 3.8090
 0.3680	 3.7880
 0.3690	 3.8400
 0.3700	 3.9220
 0.3710	 3.9460
 0.3720	 3.9060
 0.3730	 3.9500
 0.3740	 4.0590
 0.3750	 4.0960
 0.3760	 3.9630
 0.3770	 3.9150
 0.3780	 4.0120
 0.3790	 4.1640
 0.3800	 4.1760
 0.3810	 4.1520
 0.3820	 4.1640
 0.3830	 4.2040
 0.3840	 4.1000
 0.3850	 4.0420
 0.3860	 4.0830
 0.3870	 4.2000
 0.3880	 4.2940
 0.3890	 4.2950
 0.3900	 4.2460
 0.3910	 4.2950
 0.3920	 4.2960
 0.3930	 4.3140
 0.3940	 4.3970
 0.3950	 4.4480
 0.3960	 4.5190
 0.3970	 4.5520
 0.3980	 4.4740
 0.3990	 4.5310
 0.4000	 4.6230
 0.4010	 4.6680
 0.4020	 4.6440
 0.4030	 4.7090
 0.4040	 4.8010
 0.4050	 4.8350
 0.4060	 4.8650
 0.4070	 4.8700
 0.4080	 4.8910
 0.4090	 4.9930
 0.4100	 5.0550
 0.4110	 5.0970
 0.4120	 5.1370
 0.4130	 5.1340
 0.4140	 5.1400
 0.4150	 5.1840
 0.4160	 5.2680
 0.4170	 5.3050
 0.4180	 5.3410
 0.4190	 5.3930
 0.4200	 5.4420
 0.4210	 5.4760
 0.4220	 5.5030
 0.4230	 5.5290
 0.4240	 5.5510
 0.4250	 5.5800
 0.4260	 5.6220
 0.4270	 5.6750
 0.4280	 5.7070
 0.4290	 5.7260
 0.4300	 5.7500
 0.4310	 5.8000
 0.4320	 5.8250
 0.4330	 5.8550
 0.4340	 5.9130
 0.4350	 5.9250
 0.4360	 5.9550
 0.4370	 5.9950
 0.4380	 5.9960
 0.4390	 5.9950
 0.4400	 6.0160
 0.4410	 6.0610
 0.4420	 6.0940
 0.4430	 6.1170
 0.4440	 6.1350
 0.4450	 6.1570
 0.4460	 6.1970
 0.4470	 6.2310
 0.4480	 6.2470
 0.4490	 6.2570
 0.4500	 6.2830
 0.4510	 6.3170
 0.4520	 6.3460
 0.4530	 6.3750
 0.4540	 6.4060
 0.4550	 6.4340
 0.4560	 6.4510
 0.4570	 6.4670
 0.4580	 6.4760
 0.4590	 6.4780
 0.4600	 6.4920
 0.4610	 6.5160
 0.4620	 6.5330
 0.4630	 6.5330
 0.4640	 6.5500
 0.4650	 6.5630
 0.4660	 6.5670
 0.4670	 6.5740
 0.4680	 6.5760
 0.4690	 6.5820
 0.4700	 6.5980
 0.4710	 6.6150
 0.4720	 6.6350
 0.4730	 6.6500
 0.4740	 6.6530
 0.4750	 6.6490
 0.4760	 6.6520
 0.4770	 6.6670
 0.4780	 6.6810
 0.4790	 6.6960
 0.4800	 6.7050
 0.4810	 6.7080
 0.4820	 6.7300
 0.4830	 6.7520
 0.4840	 6.7650
 0.4850	 6.7690
 0.4860	 6.7750
 0.4870	 6.7950
 0.4880	 6.8260
 0.4890	 6.8390
 0.4900	 6.8710
 0.4910	 6.9060
 0.4920	 6.9180
 0.4930	 6.9620
 0.4940	 7.0060
 0.4950	 7.0390
 0.4960	 7.0840
 0.4970	 7.1410
 0.4980	 7.2000
 0.4990	 7.2520
 0.5000	 7.3000
 0.5010	 7.3590
 0.5020	 7.4310
 0.5030	 7.5100
 0.5040	 7.5940
 0.5050	 7.6890
 0.5060	 7.7930
 0.5070	 7.9010
 0.5080	 8.0150
 0.5090	 8.1380
 0.5100	 8.2720
 0.5110	 8.4140
 0.5120	 8.5720
 0.5130	 8.7440
 0.5140	 8.9020
 0.5150	 9.0840
 0.5160	 9.2780
 0.5170	 9.4680
 0.5180	 9.6730
 0.5190	 9.8820
 0.5200	10.0940
 0.5210	10.3120
 0.5220	10.5210
 0.5230	10.7330
 0.5240	10.9500
 0.5250	11.1460
 0.5260	11.3320
 0.5270	11.5150
 0.5280	11.6980
 0.5290	11.8640
 0.5300	12.0140
 0.5310	12.1510
 0.5320	12.2760
 0.5330	12.3900
 0.5340	12.4950
 0.5350	12.5910
 0.5360	12.6760
 0.5370	12.7540
 0.5380	12.8230
 0.5390	12.8830
 0.5400	12.9340
 0.5410	12.9860
 0.5420	13.0380
 0.5430	13.0800
 0.5440	13.1270
 0.5450	13.1790
 0.5460	13.2270
 0.5470	13.2720
 0.5480	13.3090
 0.5490	13.3400
 0.5500	13.3760
 0.5510	13.3990
 0.5520	13.4180
 0.5530	13.4370
 0.5540	13.4380
 0.5550	13.4290
 0.5560	13.4120
 0.5570	13.3800
 0.5580	13.3400
 0.5590	13.2890
 0.5600	13.2250
 0.5610	13.1520
 0.5620	13.0670
 0.5630	12.9730
 0.5640	12.8740
 0.5650	12.7690
 0.5660	12.6580
 0.5670	12.5400
 0.5680	12.4210
 0.5690	12.2970
 0.5700	12.1730
 0.5710	12.0570
 0.5720	11.9330
 0.5730	11.8110
 0.5740	11.6970
 0.5750	11.5930
 0.5760	11.4850
 0.5770	11.3890
 0.5780	11.3070
 0.5790	11.2220
 0.5800	11.1390
 0.5810	11.0590
 0.5820	10.9840
 0.5830	10.9260
 0.5840	10.8840
 0.5850	10.8530
 0.5860	10.8190
 0.5870	10.7730
 0.5880	10.7180
 0.5890	10.6640
 0.5900	10.6120
 0.5910	10.5720
 0.5920	10.5400
 0.5930	10.5060
 0.5940	10.4770
 0.5950	10.4540
 0.5960	10.4350
 0.5970	10.4140
 0.5980	10.4010
 0.5990	10.3850
 0.6000	10.3600
 0.6010	10.3360
 0.6020	10.3100
 0.6030	10.2790
 0.6040	10.2420
 0.6050	10.2020
 0.6060	10.1560
 0.6070	10.1020
 0.6080	10.0440
 0.6090	 9.9800
 0.6100	 9.9150
 0.6110	 9.8540
 0.6120	 9.7930
 0.6130	 9.7350
 0.6140	 9.6800
 0.6150	 9.6200
 0.6160	 9.5600
 0.6170	 9.5050
 0.6180	 9.4610
 0.6190	 9.4230
 0.6200	 9.3840
 0.6210	 9.3440
 0.6220	 9.3160
 0.6230	 9.2960
 0.6240	 9.2800
 0.6250	 9.2630
 0.6260	 9.2480
 0.6270	 9.2380
 0.6280	 9.2320
 0.6290	 9.2260
 0.6300	 9.2170
 0.6310	 9.2090
 0.6320	 9.2020
 0.6330	 9.1880
 0.6340	 9.1670
 0.6350	 9.1370
 0.6360	 9.0990
 0.6370	 9.0570
 0.6380	 9.0070
 0.6390	 8.9460
 0.6400	 8.8750
 0.6410	 8.8060
 0.6420	 8.7370
 0.6430	 8.6650
 0.6440	 8.5860
 0.6450	 8.5140
 0.6460	 8.4470
 0.6470	 8.3800
 0.6480	 8.3150
 0.6490	 8.2610
 0.6500	 8.2170
 0.6510	 8.1700
 0.6520	 8.1360
 0.6530	 8.1050
 0.6540	 8.0710
 0.6550	 8.0350
 0.6560	 7.9940
 0.6570	 7.9500
 0.6580	 7.9040
 0.6590	 7.8560
 0.6600	 7.8020
 0.6610	 7.7470
 0.6620	 7.6970
 0.6630	 7.6450
 0.6640	 7.5970
 0.6650	 7.5580
 0.6660	 7.5190
 0.6670	 7.4900
 0.6680	 7.4690
 0.6690	 7.4530
 0.6700	 7.4410
 0.6710	 7.4370
 0.6720	 7.4410
 0.6730	 7.4470
 0.6740	 7.4610
 0.6750	 7.4820
 0.6760	 7.5060
 0.6770	 7.5290
 0.6780	 7.5640
 0.6790	 7.6100
 0.6800	 7.6590
 0.6810	 7.7150
 0.6820	 7.7810
 0.6830	 7.8570
 0.6840	 7.9410
 0.6850	 8.0510
 0.6860	 8.1830
 0.6870	 8.3280
 0.6880	 8.5060
 0.6890	 8.7220
 0.6900	 8.9800
 0.6910	 9.2850
 0.6920	 9.6350
 0.6930	10.0370
 0.6940	10.4970
 0.6950	11.0170
 0.6960	11.5900
 0.6970	12.2110
 0.6980	12.8740
 0.6990	13.5840
 0.7000	14.3290
 0.7010	15.1000
 0.7020	15.8940
 0.7030	16.7120
 0.7040	17.5370
 0.7050	18.3580
 0.7060	19.1870
 0.7070	20.0170
 0.7080	20.8450
 0.7090	21.6680
 0.7100	22.4930
 0.7110	23.3050
 0.7120	24.1030
 0.7130	24.9020
 0.7140	25.6890
 0.7150	26.4600
 0.7160	27.2180
 0.7170	27.9620
 0.7180	28.6920
 0.7190	29.4030
 0.7200	30.0870
 0.7210	30.7580
 0.7220	31.4060
 0.7230	32.0330
 0.7240	32.6510
 0.7250	33.2350
 0.7260	33.7860
 0.7270	34.3130
 0.7280	34.8250
 0.7290	35.3050
 0.7300	35.7550
 0.7310	36.1840
 0.7320	36.5860
 0.7330	36.9700
 0.7340	37.3350
 0.7350	37.6730
 0.7360	37.9920
 0.7370	38.2900
 0.7380	38.5620
 0.7390	38.8090
 0.7400	39.0570
 0.7410	39.2950
 0.7420	39.5020
 0.7430	39.6950
 0.7440	39.8720
 0.7450	40.0380
 0.7460	40.2020
 0.7470	40.3410
 0.7480	40.4630
 0.7490	40.5750
 0.7500	40.6740
 0.7510	40.7600
 0.7520	40.8430
 0.7530	40.9320
 0.7540	41.0170
 0.7550	41.0850
 0.7560	41.1400
 0.7570	41.1940
 0.7580	41.2510
 0.7590	41.3010
 0.7600	41.3410
 0.7610	41.3760
 0.7620	41.4120
 0.7630	41.4480
 0.7640	41.4810
 0.7650	41.5020
 0.7660	41.5310
 0.7670	41.5600
 0.7680	41.5640
 0.7690	41.5930
 0.7700	41.6250
 0.7710	41.6450
 0.7720	41.6570
 0.7730	41.6730
 0.7740	41.6900
 0.7750	41.7040
 0.7760	41.7270
 0.7770	41.7350
 0.7780	41.7370
 0.7790	41.7590
 0.7800	41.7970
 0.7810	41.8160
 0.7820	41.8200
 0.7830	41.8600
 0.7840	41.8890
 0.7850	41.8990
 0.7860	41.9020
 0.7870	41.9320
 0.7880	41.9640
 0.7890	41.9870
 0.7900	42.0010
 0.7910	42.0110
 0.7920	42.0320
 0.7930	42.0610
 0.7940	42.0850
 0.7950	42.0980
 0.7960	42.1140
 0.7970	42.1370
 0.7980	42.1480
 0.7990	42.1810
 0.8000	42.2150
 0.8010	42.2290
 0.8020	42.2420
 0.8030	42.2730
 0.8040	42.3080
 0.8050	42.3270
 0.8060	42.3440
 0.8070	42.3500
 0.8080	42.3600
 0.8090	42.4020
 0.8100	42.4370
 0.8110	42.4610
 0.8120	42.4780
 0.8130	42.4920
 0.8140	42.5050
 0.8150	42.5230
 0.8160	42.5460
 0.8170	42.5640
 0.8180	42.5960
 0.8190	42.6370
 0.8200	42.6680
 0.8210	42.6690
 0.8220	42.6730
 0.8230	42.6910
 0.8240	42.7110
 0.8250	42.7400
 0.8260	42.7660
 0.8270	42.7790
 0.8280	42.7910
 0.8290	42.8110
 0.8300	42.8270
 0.8310	42.8300
 0.8320	42.8500
 0.8330	42.8670
 0.8340	42.8800
 0.8350	42.8970
 0.8360	42.9220
 0.8370	42.9400
 0.8380	42.9560
 0.8390	42.9870
 0.8400	43.0000
 0.8410	43.0070
 0.8420	43.0190
 0.8430	43.0370
 0.8440	43.0420
 0.8450	43.0510
 0.8460	43.0770
 0.8470	43.1060
 0.8480	43.1290
 0.8490	43.1430
 0.8500	43.1500
 0.8510	43.1830
 0.8520	43.2070
 0.8530	43.2150
 0.8540	43.2200
 0.8550	43.2340
 0.8560	43.2570
 0.8570	43.2770
 0.8580	43.2750
 0.8590	43.2760
 0.8600	43.3000
 0.8610	43.3360
 0.8620	43.3350
 0.8630	43.3310
 0.8640	43.3440
 0.8650	43.3770
 0.8660	43.3880
 0.8670	43.4010
 0.8680	43.4130
 0.8690	43.4200
 0.8700	43.4260
 0.8710	43.4390
 0.8720	43.4510
 0.8730	43.4520
 0.8740	43.4830
 0.8750	43.5090
 0.8760	43.5180
 0.8770	43.5220
 0.8780	43.5270
 0.8790	43.5380
 0.8800	43.5540
 0.8810	43.5640
 0.8820	43.5830
 0.8830	43.5980
 0.8840	43.6020
 0.8850	43.6140
 0.8860	43.6190
 0.8870	43.6240
 0.8880	43.6400
 0.8890	43.6540
 0.8900	43.6800
 0.8910	43.7060
 0.8920	43.7150
 0.8930	43.7270
 0.8940	43.7270
 0.8950	43.7230
 0.8960	43.7400
 0.8970	43.7660
 0.8980	43.7820
 0.8990	43.7840
 0.9000	43.7890
 0.9010	43.8070
 0.9020	43.8170
 0.9030	43.8210
 0.9040	43.8550
 0.9050	43.8680
 0.9060	43.8630
 0.9070	43.8640
 0.9080	43.8940
 0.9090	43.9120
 0.9100	43.9240
 0.9110	43.9400
 0.9120	43.9340
 0.9130	43.9460
 0.9140	43.9720
 0.9150	43.9920
 0.9160	43.9860
 0.9170	43.9850
 0.9180	44.0040
 0.9190	44.0400
 0.9200	44.0510
 0.9210	44.0510
 0.9220	44.0460
 0.9230	44.0430
 0.9240	44.0550
 0.9250	44.0680
 0.9260	44.0750
 0.9270	44.0740
 0.9280	44.0670
 0.9290	44.0630
 0.9300	44.0530
 0.9310	44.0250
 0.9320	44.0360
 0.9330	44.0510
 0.9340	44.0530
 0.9350	44.0630
 0.9360	44.0520
 0.9370	44.0270
 0.9380	44.0040
 0.9390	43.9960
 0.9400	43.9990
 0.9410	43.9970
 0.9420	43.9780
 0.9430	43.9420
 0.9440	43.9180
 0.9450	43.9060
 0.9460	43.9000
 0.9470	43.9000
 0.9480	43.8840
 0.9490	43.8420
 0.9500	43.7810
 0.9510	43.7410
 0.9520	43.7040
 0.9530	43.6600
 0.9540	43.6060
 0.9550	43.5500
 0.9560	43.5220
 0.9570	43.5010
 0.9580	43.4650
 0.9590	43.4580
 0.9600	43.4300
 0.9610	43.3870
 0.9620	43.3570
 0.9630	43.3710
 0.9640	43.3550
 0.9650	43.3350
 0.9660	43.3530
 0.9670	43.3430
 0.9680	43.3350
 0.9690	43.3400
 0.9700	43.3560
 0.9710	43.3530
 0.9720	43.3530
 0.9730	43.3520
 0.9740	43.3450
 0.9750	43.3840
 0.9760	43.4000
 0.9770	43.3960
 0.9780	43.4130
 0.9790	43.4520
 0.9800	43.4920
 0.9810	43.5020
 0.9820	43.4750
 0.9830	43.5060
 0.9840	43.5280
 0.9850	43.5470
 0.9860	43.5950
 0.9870	43.6530
 0.9880	43.6780
 0.9890	43.6760
 0.9900	43.6810
 0.9910	43.7260
 0.9920	43.8190
 0.9930	43.9110
 0.9940	44.0040
 0.9950	44.0960
 0.9960	44.1890
 0.9970	44.2810
 0.9980	44.3740
 0.9990	44.4660
 1.0000	44.5590
 1.0010	44.6510
 1.0020	44.7440
 1.0030	44.8360
 1.0040	44.9290
 1.0050	45.0210
 1.0060	45.1140
 1.0070	45.2060
 1.0080	45.2990
 1.0090	45.3910
 1.0100	45.3910
 1.0110	45.4010
 1.0120	45.4250
 1.0130	45.4530
 1.0140	45.4780
 1.0150	45.5130
 1.0160	45.5350
 1.0170	45.5540
 1.0180	45.5710
 1.0190	45.6010
 1.0200	45.6390
 1.0210	45.6760
 1.0220	45.7150
 1.0230	45.7480
 1.0240	45.7810
 1.0250	45.8070
 1.0260	45.8230
 1.0270	45.8490
 1.0280	45.8830
 1.0290	45.9050
 1.0300	45.9190
 1.0310	45.9420
 1.0320	45.9600
 1.0330	45.9750
 1.0340	46.0020
 1.0350	46.0470
 1.0360	46.0720
 1.0370	46.0890
 1.0380	46.1110
 1.0390	46.1300
 1.0400	46.1480
 1.0410	46.1680
 1.0420	46.1870
 1.0430	46.2020
 1.0440	46.2190
 1.0450	46.2400
 1.0460	46.2540
 1.0470	46.2610
 1.0480	46.2720
 1.0490	46.2800
 1.0500	46.2880
 1.0510	46.2930
 1.0520	46.3070
 1.0530	46.3160
 1.0540	46.3210
 1.0550	46.3300
 1.0560	46.3420
 1.0570	46.3500
 1.0580	46.3550
 1.0590	46.3620
 1.0600	46.3670
 1.0610	46.3720
 1.0620	46.3750
 1.0630	46.3800
 1.0640	46.3800
 1.0650	46.3840
 1.0660	46.3930
 1.0670	46.4010
 1.0680	46.4090
 1.0690	46.4220
 1.0700	46.4230
 1.0710	46.4200
 1.0720	46.4190
 1.0730	46.4110
 1.0740	46.4080
 1.0750	46.4070
 1.0760	46.4050
 1.0770	46.4000
 1.0780	46.3990
 1.0790	46.4010
 1.0800	46.4010
 1.0810	46.4040
 1.0820	46.4030
 1.0830	46.3980
 1.0840	46.3950
 1.0850	46.3910
 1.0860	46.3860
 1.0870	46.3840
 1.0880	46.3850
 1.0890	46.3810
 1.0900	46.3730
 1.0910	46.3730
 1.0920	46.3790
 1.0930	46.3740
 1.0940	46.3660
 1.0950	46.3600
 1.0960	46.3450
 1.0970	46.3360
 1.0980	46.3430
 1.0990	46.3370
 1.1000	46.3220
 1.1010	46.3100
 1.1020	46.2970
 1.1030	46.2770
 1.1040	46.2640
 1.1050	46.2520
 1.1060	46.2440
 1.1070	46.2420
 1.1080	46.2320
 1.1090	46.2220
 1.1100	46.2120
 1.1110	46.1940
 1.1120	46.1830
 1.1130	46.1790
 1.1140	46.1690
 1.1150	46.1620
 1.1160	46.1470
 1.1170	46.1270
 1.1180	46.1040
 1.1190	46.0760
 1.1200	46.0450
 1.1210	46.0120
 1.1220	45.9780
 1.1230	45.9480
 1.1240	45.9120
 1.1250	45.8700
 1.1260	45.8280
 1.1270	45.7780
 1.1280	45.7210
 1.1290	45.6550
 1.1300	45.5880
 1.1310	45.5090
 1.1320	45.4150
 1.1330	45.3230
 1.1340	45.2270
 1.1350	45.1220
 1.1360	45.0110
 1.1370	44.8960
 1.1380	44.7700
 1.1390	44.6350
 1.1400	44.5020
 1.1410	44.3680
 1.1420	44.2300
 1.1430	44.0930
 1.1440	43.9540
 1.1450	43.8100
 1.1460	43.6740
 1.1470	43.5370
 1.1480	43.4110
 1.1490	43.2900
 1.1500	43.1770
 1.1510	43.0690
 1.1520	42.9700
 1.1530	42.8750
 1.1540	42.7930
 1.1550	42.7200
 1.1560	42.6590
 1.1570	42.6000
 1.1580	42.5510
 1.1590	42.5060
 1.1600	42.4590
 1.1610	42.4220
 1.1620	42.3920
 1.1630	42.3640
 1.1640	42.3430
 1.1650	42.3230
 1.1660	42.3050
 1.1670	42.2930
 1.1680	42.2880
 1.1690	42.2810
 1.1700	42.2800
 1.1710	42.2740
 1.1720	42.2620
 1.1730	42.2560
 1.1740	42.2500
 1.1750	42.2460
 1.1760	42.2470
 1.1770	42.2500
 1.1780	42.2460
 1.1790	42.2420
 1.1800	42.2340
 1.1810	42.2180
 1.1820	42.2060
 1.1830	42.1950
 1.1840	42.1850
 1.1850	42.1790
 1.1860	42.1750
 1.1870	42.1730
 1.1880	42.1710
 1.1890	42.1690
 1.1900	42.1690
 1.1910	42.1690
 1.1920	42.1710
 1.1930	42.1760
 1.1940	42.1810
 1.1950	42.1850
 1.1960	42.1890
 1.1970	42.1940
 1.1980	42.2040
 1.1990	42.2170
 1.2000	42.2290
 1.2010	42.2500
 1.2020	42.2660
 1.2030	42.2860
 1.2040	42.3130
 1.2050	42.3380
 1.2060	42.3630
 1.2070	42.3860
 1.2080	42.4100
 1.2090	42.4350
 1.2100	42.4640
 1.2110	42.4950
 1.2120	42.5290
 1.2130	42.5620
 1.2140	42.5990
 1.2150	42.6320
 1.2160	42.6630
 1.2170	42.6960
 1.2180	42.7270
 1.2190	42.7530
 1.2200	42.7830
 1.2210	42.8160
 1.2220	42.8450
 1.2230	42.8730
 1.2240	42.8980
 1.2250	42.9260
 1.2260	42.9540
 1.2270	42.9850
 1.2280	43.0190
 1.2290	43.0470
 1.2300	43.0770
 1.2310	43.1090
 1.2320	43.1350
 1.2330	43.1630
 1.2340	43.1920
 1.2350	43.2220
 1.2360	43.2500
 1.2370	43.2800
 1.2380	43.3090
 1.2390	43.3370
 1.2400	43.3570
 1.2410	43.3780
 1.2420	43.4030
 1.2430	43.4220
 1.2440	43.4420
 1.2450	43.4640
 1.2460	43.4800
 1.2470	43.4930
 1.2480	43.5020
 1.2490	43.5160
 1.2500	43.5360
 1.2510	43.5520
 1.2520	43.5740
 1.2530	43.5900
 1.2540	43.5950
 1.2550	43.6060
 1.2560	43.6140
 1.2570	43.6190
 1.2580	43.6290
 1.2590	43.6390
 1.2600	43.6490
 1.2610	43.6590
 1.2620	43.6710
 1.2630	43.6800
 1.2640	43.6790
 1.2650	43.6890
 1.2660	43.6960
 1.2670	43.6920
 1.2680	43.6980
 1.2690	43.6960
 1.2700	43.6920
 1.2710	43.6960
 1.2720	43.6920
 1.2730	43.6790
 1.2740	43.6650
 1.2750	43.6500
 1.2760	43.6380
 1.2770	43.6270
 1.2780	43.6120
 1.2790	43.5950
 1.2800	43.5760
 1.2810	43.5550
 1.2820	43.5330
 1.2830	43.5100
 1.2840	43.4850
 1.2850	43.4570
 1.2860	43.4330
 1.2870	43.4050
 1.2880	43.3740
 1.2890	43.3420
 1.2900	43.3090
 1.2910	43.2660
 1.2920	43.2250
 1.2930	43.1810
 1.2940	43.1360
 1.2950	43.1010
 1.2960	43.0590
 1.2970	43.0140
 1.2980	42.9680
 1.2990	42.9100
 1.3000	42.8520
 1.3010	42.7950
 1.3020	42.7320
 1.3030	42.6720
 1.3040	42.6120
 1.3050	42.5450
 1.3060	42.4800
 1.3070	42.4080
 1.3080	42.3300
 1.3090	42.2540
 1.3100	42.1750
 1.3110	42.0900
 1.3120	42.0060
 1.3130	41.9170
 1.3140	41.8250
 1.3150	41.7310
 1.3160	41.6320
 1.3170	41.5280
 1.3180	41.4200
 1.3190	41.3110
 1.3200	41.1970
 1.3210	41.0810
 1.3220	40.9630
 1.3230	40.8420
 1.3240	40.7220
 1.3250	40.6050
 1.3260	40.4830
 1.3270	40.3550
 1.3280	40.2250
 1.3290	40.0890
 1.3300	39.9520
 1.3310	39.8170
 1.3320	39.6770
 1.3330	39.5360
 1.3340	39.3920
 1.3350	39.2470
 1.3360	39.1030
 1.3370	38.9560
 1.3380	38.8080
 1.3390	38.6590
 1.3400	38.5110
 1.3410	38.3650
 1.3420	38.2210
 1.3430	38.0770
 1.3440	37.9380
 1.3450	37.8000
 1.3460	37.6650
 1.3470	37.5330
 1.3480	37.4040
 1.3490	37.2720
 1.3500	37.1410
 1.3510	37.0100
 1.3520	36.8800
 1.3530	36.7520
 1.3540	36.6280
 1.3550	36.5040
 1.3560	36.3780
 1.3570	36.2530
 1.3580	36.1220
 1.3590	35.9860
 1.3600	35.8460
 1.3610	35.6970
 1.3620	35.5430
 1.3630	35.3850
 1.3640	35.2170
 1.3650	35.0410
 1.3660	34.8610
 1.3670	34.6670
 1.3680	34.4590
 1.3690	34.2410
 1.3700	34.0050
 1.3710	33.7560
 1.3720	33.4980
 1.3730	33.2210
 1.3740	32.9300
 1.3750	32.6210
 1.3760	32.2880
 1.3770	31.9330
 1.3780	31.5570
 1.3790	31.1630
 1.3800	30.7490
 1.3810	30.3120
 1.3820	29.8550
 1.3830	29.3780
 1.3840	28.8830
 1.3850	28.3630
 1.3860	27.8380
 1.3870	27.2940
 1.3880	26.7490
 1.3890	26.1960
 1.3900	25.6340
 1.3910	25.0770
 1.3920	24.5180
 1.3930	23.9600
 1.3940	23.4110
 1.3950	22.8610
 1.3960	22.3240
 1.3970	21.8050
 1.3980	21.2990
 1.3990	20.8190
 1.4000	20.3570
 1.4010	19.9100
 1.4020	19.4870
 1.4030	19.0800
 1.4040	18.6950
 1.4050	18.3370
 1.4060	17.9980
 1.4070	17.6860
 1.4080	17.3920
 1.4090	17.1130
 1.4100	16.8560
 1.4110	16.6170
 1.4120	16.3980
 1.4130	16.1970
 1.4140	16.0100
 1.4150	15.8410
 1.4160	15.6870
 1.4170	15.5470
 1.4180	15.4200
 1.4190	15.3040
 1.4200	15.1980
 1.4210	15.1010
 1.4220	15.0130
 1.4230	14.9340
 1.4240	14.8640
 1.4250	14.8000
 1.4260	14.7440
 1.4270	14.6920
 1.4280	14.6460
 1.4290	14.6050
 1.4300	14.5700
 1.4310	14.5400
 1.4320	14.5170
 1.4330	14.4970
 1.4340	14.4820
 1.4350	14.4690
 1.4360	14.4590
 1.4370	14.4530
 1.4380	14.4500
 1.4390	14.4500
 1.4400	14.4540
 1.4410	14.4590
 1.4420	14.4660
 1.4430	14.4750
 1.4440	14.4850
 1.4450	14.4950
 1.4460	14.5060
 1.4470	14.5240
 1.4480	14.5430
 1.4490	14.5640
 1.4500	14.5850
 1.4510	14.6020
 1.4520	14.6200
 1.4530	14.6380
 1.4540	14.6580
 1.4550	14.6800
 1.4560	14.7030
 1.4570	14.7320
 1.4580	14.7660
 1.4590	14.8040
 1.4600	14.8470
 1.4610	14.8930
 1.4620	14.9430
 1.4630	14.9960
 1.4640	15.0520
 1.4650	15.1100
 1.4660	15.1720
 1.4670	15.2380
 1.4680	15.3110
 1.4690	15.3890
 1.4700	15.4730
 1.4710	15.5610
 1.4720	15.6510
 1.4730	15.7430
 1.4740	15.8330
 1.4750	15.9290
 1.4760	16.0300
 1.4770	16.1300
 1.4780	16.2330
 1.4790	16.3400
 1.4800	16.4460
 1.4810	16.5590
 1.4820	16.6730
 1.4830	16.7850
 1.4840	16.8990
 1.4850	17.0130
 1.4860	17.1280
 1.4870	17.2480
 1.4880	17.3650
 1.4890	17.4830
 1.4900	17.6030
 1.4910	17.7220
 1.4920	17.8420
 1.4930	17.9630
 1.4940	18.0850
 1.4950	18.2100
 1.4960	18.3330
 1.4970	18.4550
 1.4980	18.5790
 1.4990	18.7030
 1.5000	18.8300
 1.5010	18.9620
 1.5020	19.0890
 1.5030	19.2150
 1.5040	19.3410
 1.5050	19.4650
 1.5060	19.5920
 1.5070	19.7220
 1.5080	19.8490
 1.5090	19.9750
 1.5100	20.1000
 1.5110	20.2260
 1.5120	20.3510
 1.5130	20.4740
 1.5140	20.6010
 1.5150	20.7250
 1.5160	20.8470
 1.5170	20.9700
 1.5180	21.0900
 1.5190	21.2090
 1.5200	21.3280
 1.5210	21.4460
 1.5220	21.5660
 1.5230	21.6860
 1.5240	21.8040
 1.5250	21.9220
 1.5260	22.0400
 1.5270	22.1540
 1.5280	22.2710
 1.5290	22.3840
 1.5300	22.4950
 1.5310	22.6090
 1.5320	22.7210
 1.5330	22.8340
 1.5340	22.9450
 1.5350	23.0540
 1.5360	23.1650
 1.5370	23.2760
 1.5380	23.3870
 1.5390	23.4970
 1.5400	23.6030
 1.5410	23.7060
 1.5420	23.8080
 1.5430	23.9120
 1.5440	24.0170
 1.5450	24.1220
 1.5460	24.2270
 1.5470	24.3330
 1.5480	24.4370
 1.5490	24.5380
 1.5500	24.6370
 1.5510	24.7340
 1.5520	24.8290
 1.5530	24.9210
 1.5540	25.0150
 1.5550	25.1080
 1.5560	25.1970
 1.5570	25.2860
 1.5580	25.3720
 1.5590	25.4570
 1.5600	25.5480
 1.5610	25.6370
 1.5620	25.7270
 1.5630	25.8170
 1.5640	25.9000
 1.5650	25.9850
 1.5660	26.0690
 1.5670	26.1520
 1.5680	26.2370
 1.5690	26.3170
 1.5700	26.3980
 1.5710	26.4790
 1.5720	26.5550
 1.5730	26.6310
 1.5740	26.7090
 1.5750	26.7830
 1.5760	26.8600
 1.5770	26.9360
 1.5780	27.0140
 1.5790	27.0940
 1.5800	27.1710
 1.5810	27.2480
 1.5820	27.3220
 1.5830	27.3950
 1.5840	27.4690
 1.5850	27.5400
 1.5860	27.6130
 1.5870	27.6820
 1.5880	27.7520
 1.5890	27.8250
 1.5900	27.8970
 1.5910	27.9690
 1.5920	28.0400
 1.5930	28.1060
 1.5940	28.1730
 1.5950	28.2390
 1.5960	28.2990
 1.5970	28.3610
 1.5980	28.4250
 1.5990	28.4860
 1.6000	28.5460
 1.6010	28.6070
 1.6020	28.6620
 1.6030	28.7190
 1.6040	28.7780
 1.6050	28.8350
 1.6060	28.8910
 1.6070	28.9450
 1.6080	28.9990
 1.6090	29.0500
 1.6100	29.0980
 1.6110	29.1490
 1.6120	29.1980
 1.6130	29.2480
 1.6140	29.2970
 1.6150	29.3450
 1.6160	29.3910
 1.6170	29.4360
 1.6180	29.4780
 1.6190	29.5200
 1.6200	29.5630
 1.6210	29.6050
 1.6220	29.6510
 1.6230	29.6980
 1.6240	29.7450
 1.6250	29.7910
 1.6260	29.8340
 1.6270	29.8750
 1.6280	29.9110
 1.6290	29.9470
 1.6300	29.9840
 1.6310	30.0170
 1.6320	30.0450
 1.6330	30.0760
 1.6340	30.1070
 1.6350	30.1360
 1.6360	30.1670
 1.6370	30.1950
 1.6380	30.2190
 1.6390	30.2490
 1.6400	30.2820
 1.6410	30.3100
 1.6420	30.3400
 1.6430	30.3650
 1.6440	30.3850
 1.6450	30.4090
 1.6460	30.4320
 1.6470	30.4500
 1.6480	30.4640
 1.6490	30.4710
 1.6500	30.4770
 1.6510	30.4860
 1.6520	30.4940
 1.6530	30.5030
 1.6540	30.5060
 1.6550	30.5030
 1.6560	30.4960
 1.6570	30.4850
 1.6580	30.4750
 1.6590	30.4640
 1.6600	30.4530
 1.6610	30.4460
 1.6620	30.4330
 1.6630	30.4180
 1.6640	30.4020
 1.6650	30.3810
 1.6660	30.3610
 1.6670	30.3440
 1.6680	30.3250
 1.6690	30.3090
 1.6700	30.2920
 1.6710	30.2710
 1.6720	30.2520
 1.6730	30.2340
 1.6740	30.2160
 1.6750	30.1930
 1.6760	30.1700
 1.6770	30.1380
 1.6780	30.0970
 1.6790	30.0560
 1.6800	30.0130
 1.6810	29.9690
 1.6820	29.9230
 1.6830	29.8720
 1.6840	29.8210
 1.6850	29.7670
 1.6860	29.7140
 1.6870	29.6620
 1.6880	29.6140
 1.6890	29.5660
 1.6900	29.5150
 1.6910	29.4650
 1.6920	29.4140
 1.6930	29.3590
 1.6940	29.3080
 1.6950	29.2600
 1.6960	29.2120
 1.6970	29.1680
 1.6980	29.1210
 1.6990	29.0730
 1.7000	29.0260
 1.7010	28.9750
 1.7020	28.9260
 1.7030	28.8790
 1.7040	28.8290
 1.7050	28.7780
 1.7060	28.7260
 1.7070	28.6700
 1.7080	28.6160
 1.7090	28.5600
 1.7100	28.5100
 1.7110	28.4640
 1.7120	28.4170
 1.7130	28.3670
 1.7140	28.3100
 1.7150	28.2610
 1.7160	28.2120
 1.7170	28.1650
 1.7180	28.1230
 1.7190	28.0760
 1.7200	28.0320
 1.7210	27.9920
 1.7220	27.9550
 1.7230	27.9210
 1.7240	27.8840
 1.7250	27.8440
 1.7260	27.8040
 1.7270	27.7630
 1.7280	27.7280
 1.7290	27.6880
 1.7300	27.6470
 1.7310	27.6090
 1.7320	27.5720
 1.7330	27.5330
 1.7340	27.4940
 1.7350	27.4570
 1.7360	27.4210
 1.7370	27.3790
 1.7380	27.3350
 1.7390	27.2880
 1.7400	27.2320
 1.7410	27.1830
 1.7420	27.1410
 1.7430	27.0920
 1.7440	27.0440
 1.7450	26.9880
 1.7460	26.9220
 1.7470	26.8600
 1.7480	26.7950
 1.7490	26.7330
 1.7500	26.6730
 1.7510	26.6080
 1.7520	26.5420
 1.7530	26.4740
 1.7540	26.4010
 1.7550	26.3360
 1.7560	26.2670
 1.7570	26.2020
 1.7580	26.1450
 1.7590	26.0840
 1.7600	26.0270
 1.7610	25.9740
 1.7620	25.9170
 1.7630	25.8570
 1.7640	25.8000
 1.7650	25.7410
 1.7660	25.6880
 1.7670	25.6470
 1.7680	25.6000
 1.7690	25.5510
 1.7700	25.5060
 1.7710	25.4560
 1.7720	25.4140
 1.7730	25.3790
 1.7740	25.3430
 1.7750	25.3090
 1.7760	25.2740
 1.7770	25.2390
 1.7780	25.2060
 1.7790	25.1720
 1.7800	25.1440
 1.7810	25.1210
 1.7820	25.0950
 1.7830	25.0700
 1.7840	25.0480
 1.7850	25.0240
 1.7860	25.0060
 1.7870	24.9930
 1.7880	24.9810
 1.7890	24.9740
 1.7900	24.9660
 1.7910	24.9580
 1.7920	24.9490
 1.7930	24.9420
 1.7940	24.9390
 1.7950	24.9360
 1.7960	24.9350
 1.7970	24.9330
 1.7980	24.9300
 1.7990	24.9280
 1.8000	24.9250
 1.8010	24.9260
 1.8020	24.9300
 1.8030	24.9370
 1.8040	24.9530
 1.8050	24.9600
 1.8060	24.9680
 1.8070	24.9710
 1.8080	24.9670
 1.8090	24.9660
 1.8100	24.9670
 1.8110	24.9640
 1.8120	24.9680
 1.8130	24.9690
 1.8140	24.9700
 1.8150	24.9710
 1.8160	24.9670
 1.8170	24.9640
 1.8180	24.9680
 1.8190	24.9660
 1.8200	24.9650
 1.8210	24.9630
 1.8220	24.9590
 1.8230	24.9580
 1.8240	24.9510
 1.8250	24.9420
 1.8260	24.9280
 1.8270	24.9040
 1.8280	24.8810
 1.8290	24.8580
 1.8300	24.8350
 1.8310	24.8110
 1.8320	24.7880
 1.8330	24.7650
 1.8340	24.7410
 1.8350	24.7410
 1.8360	24.6930
 1.8370	24.6350
 1.8380	24.5830
 1.8390	24.5220
 1.8400	24.4560
 1.8410	24.3810
 1.8420	24.3040
 1.8430	24.2130
 1.8440	24.1070
 1.8450	24.0000
 1.8460	23.8940
 1.8470	23.7790
 1.8480	23.6480
 1.8490	23.5060
 1.8500	23.3490
 1.8510	23.1700
 1.8520	22.9840
 1.8530	22.8000
 1.8540	22.6090
 1.8550	22.4090
 1.8560	22.1930
 1.8570	21.9630
 1.8580	21.7140
 1.8590	21.4540
 1.8600	21.1820
 1.8610	20.8970
 1.8620	20.5880
 1.8630	20.2770
 1.8640	19.9470
 1.8650	19.5970
 1.8660	19.2410
 1.8670	18.8590
 1.8680	18.4650
 1.8690	18.0630
 1.8700	17.6480
 1.8710	17.2200
 1.8720	16.7940
 1.8730	16.3610
 1.8740	15.9150
 1.8750	15.4670
 1.8760	15.0120
 1.8770	14.5530
 1.8780	14.1060
 1.8790	13.6680
 1.8800	13.2380
 1.8810	12.8170
 1.8820	12.4060
 1.8830	12.0020
 1.8840	11.6050
 1.8850	11.2200
 1.8860	10.8540
 1.8870	10.4990
 1.8880	10.1610
 1.8890	 9.8400
 1.8900	 9.5330
 1.8910	 9.2490
 1.8920	 8.9860
 1.8930	 8.7380
 1.8940	 8.5090
 1.8950	 8.3010
 1.8960	 8.1090
 1.8970	 7.9310
 1.8980	 7.7740
 1.8990	 7.6360
 1.9000	 7.5060
 1.9010	 7.3890
 1.9020	 7.2820
 1.9030	 7.1900
 1.9040	 7.0990
 1.9050	 7.0210
 1.9060	 6.9510
 1.9070	 6.8870
 1.9080	 6.8350
 1.9090	 6.7840
 1.9100	 6.7420
 1.9110	 6.7060
 1.9120	 6.6800
 1.9130	 6.6480
 1.9140	 6.6170
 1.9150	 6.5890
 1.9160	 6.5650
 1.9170	 6.5480
 1.9180	 6.5410
 1.9190	 6.5390
 1.9200	 6.5320
 1.9210	 6.5230
 1.9220	 6.5170
 1.9230	 6.5140
 1.9240	 6.5110
 1.9250	 6.5070
 1.9260	 6.5060
 1.9270	 6.5080
 1.9280	 6.5080
 1.9290	 6.5110
 1.9300	 6.5210
 1.9310	 6.5340
 1.9320	 6.5400
 1.9330	 6.5490
 1.9340	 6.5580
 1.9350	 6.5690
 1.9360	 6.5790
 1.9370	 6.5940
 1.9380	 6.6150
 1.9390	 6.6360
 1.9400	 6.6560
 1.9410	 6.6780
 1.9420	 6.6990
 1.9430	 6.7190
 1.9440	 6.7370
 1.9450	 6.7520
 1.9460	 6.7710
 1.9470	 6.7850
 1.9480	 6.8070
 1.9490	 6.8340
 1.9500	 6.8660
 1.9510	 6.8930
 1.9520	 6.9170
 1.9530	 6.9460
 1.9540	 6.9780
 1.9550	 7.0070
 1.9560	 7.0380
 1.9570	 7.0700
 1.9580	 7.0990
 1.9590	 7.1290
 1.9600	 7.1660
 1.9610	 7.2000
 1.9620	 7.2330
 1.9630	 7.2620
 1.9640	 7.2950
 1.9650	 7.3340
 1.9660	 7.3720
 1.9670	 7.4120
 1.9680	 7.4510
 1.9690	 7.4890
 1.9700	 7.5270
 1.9710	 7.5670
 1.9720	 7.6080
 1.9730	 7.6480
 1.9740	 7.6930
 1.9750	 7.7380
 1.9760	 7.7830
 1.9770	 7.8290
 1.9780	 7.8730
 1.9790	 7.9150
 1.9800	 7.9510
 1.9810	 7.9940
 1.9820	 8.0380
 1.9830	 8.0830
 1.9840	 8.1360
 1.9850	 8.1830
 1.9860	 8.2280
 1.9870	 8.2710
 1.9880	 8.3210
 1.9890	 8.3730
 1.9900	 8.4190
 1.9910	 8.4670
 1.9920	 8.5150
 1.9930	 8.5540
 1.9940	 8.6050
 1.9950	 8.6680
 1.9960	 8.7230
 1.9970	 8.7770
 1.9980	 8.8330
 1.9990	 8.8860
 2.0000	 8.9370
 2.0010	 8.9940
 2.0020	 9.0530
 2.0030	 9.1040
 2.0040	 9.1560
 2.0050	 9.2080
 2.0060	 9.2580
 2.0070	 9.3130
 2.0080	 9.3720
 2.0090	 9.4290
 2.0100	 9.4900
 2.0110	 9.5460
 2.0120	 9.5960
 2.0130	 9.6480
 2.0140	 9.7080
 2.0150	 9.7660
 2.0160	 9.8290
 2.0170	 9.8910
 2.0180	 9.9450
 2.0190	 9.9900
 2.0200	10.0390
 2.0210	10.0820
 2.0220	10.1340
 2.0230	10.1920
 2.0240	10.2460
 2.0250	10.3030
 2.0260	10.3560
 2.0270	10.4040
 2.0280	10.4550
 2.0290	10.5050
 2.0300	10.5520
 2.0310	10.6020
 2.0320	10.6530
 2.0330	10.6990
 2.0340	10.7470
 2.0350	10.7910
 2.0360	10.8250
 2.0370	10.8690
 2.0380	10.9180
 2.0390	10.9640
 2.0400	11.0140
 2.0410	11.0610
 2.0420	11.1030
 2.0430	11.1490
 2.0440	11.1910
 2.0450	11.2300
 2.0460	11.2700
 2.0470	11.3060
 2.0480	11.3480
 2.0490	11.3930
 2.0500	11.4390
 2.0510	11.4910
 2.0520	11.5370
 2.0530	11.5790
 2.0540	11.6240
 2.0550	11.6640
 2.0560	11.7110
 2.0570	11.7500
 2.0580	11.7910
 2.0590	11.8320
 2.0600	11.8660
 2.0610	11.9070
 2.0620	11.9540
 2.0630	11.9990
 2.0640	12.0430
 2.0650	12.0900
 2.0660	12.1410
 2.0670	12.1870
 2.0680	12.2280
 2.0690	12.2760
 2.0700	12.3300
 2.0710	12.3780
 2.0720	12.4290
 2.0730	12.4840
 2.0740	12.5230
 2.0750	12.5470
 2.0760	12.5810
 2.0770	12.6070
 2.0780	12.6470
 2.0790	12.7000
 2.0800	12.7440
 2.0810	12.7870
 2.0820	12.8320
 2.0830	12.8720
 2.0840	12.9170
 2.0850	12.9700
 2.0860	13.0190
 2.0870	13.0650
 2.0880	13.1120
 2.0890	13.1610
 2.0900	13.2120
 2.0910	13.2580
 2.0920	13.3040
 2.0930	13.3530
 2.0940	13.4000
 2.0950	13.4460
 2.0960	13.5000
 2.0970	13.5440
 2.0980	13.5830
 2.0990	13.6190
 2.1000	13.6430
 2.1010	13.6760
 2.1020	13.7070
 2.1030	13.7420
 2.1040	13.7830
 2.1050	13.8300
 2.1060	13.8680
 2.1070	13.9030
 2.1080	13.9380
 2.1090	13.9670
 2.1100	14.0050
 2.1110	14.0490
 2.1120	14.0910
 2.1130	14.1390
 2.1140	14.1820
 2.1150	14.2230
 2.1160	14.2630
 2.1170	14.3000
 2.1180	14.3390
 2.1190	14.3760
 2.1200	14.4150
 2.1210	14.4560
 2.1220	14.5020
 2.1230	14.5400
 2.1240	14.5770
 2.1250	14.6100
 2.1260	14.6350
 2.1270	14.6690
 2.1280	14.7090
 2.1290	14.7430
 2.1300	14.7790
 2.1310	14.8130
 2.1320	14.8420
 2.1330	14.8710
 2.1340	14.9020
 2.1350	14.9300
 2.1360	14.9500
 2.1370	14.9770
 2.1380	15.0090
 2.1390	15.0350
 2.1400	15.0570
 2.1410	15.0840
 2.1420	15.1100
 2.1430	15.1330
 2.1440	15.1580
 2.1450	15.1830
 2.1460	15.2130
 2.1470	15.2470
 2.1480	15.2720
 2.1490	15.3020
 2.1500	15.3210
 2.1510	15.3250
 2.1520	15.3360
 2.1530	15.3400
 2.1540	15.3560
 2.1550	15.3760
 2.1560	15.4000
 2.1570	15.4390
 2.1580	15.4660
 2.1590	15.4920
 2.1600	15.5060
 2.1610	15.5180
 2.1620	15.5360
 2.1630	15.5610
 2.1640	15.5930
 2.1650	15.6250
 2.1660	15.6670
 2.1670	15.6930
 2.1680	15.7180
 2.1690	15.7350
 2.1700	15.7410
 2.1710	15.7480
 2.1720	15.7520
 2.1730	15.7560
 2.1740	15.7490
 2.1750	15.7560
 2.1760	15.7700
 2.1770	15.7810
 2.1780	15.8040
 2.1790	15.8180
 2.1800	15.8210
 2.1810	15.8320
 2.1820	15.8480
 2.1830	15.8600
 2.1840	15.8770
 2.1850	15.9000
 2.1860	15.9220
 2.1870	15.9460
 2.1880	15.9690
 2.1890	15.9950
 2.1900	16.0140
 2.1910	16.0250
 2.1920	16.0430
 2.1930	16.0640
 2.1940	16.0780
 2.1950	16.0890
 2.1960	16.1020
 2.1970	16.1080
 2.1980	16.1140
 2.1990	16.1250
 2.2000	16.1300
 2.2010	16.1270
 2.2020	16.1290
 2.2030	16.1340
 2.2040	16.1360
 2.2050	16.1370
 2.2060	16.1370
 2.2070	16.1430
 2.2080	16.1500
 2.2090	16.1550
 2.2100	16.1660
 2.2110	16.1700
 2.2120	16.1690
 2.2130	16.1670
 2.2140	16.1620
 2.2150	16.1600
 2.2160	16.1610
 2.2170	16.1490
 2.2180	16.1310
 2.2190	16.1120
 2.2200	16.0780
 2.2210	16.0550
 2.2220	16.0360
 2.2230	16.0220
 2.2240	16.0200
 2.2250	16.0030
 2.2260	15.9880
 2.2270	15.9630
 2.2280	15.9210
 2.2290	15.8810
 2.2300	15.8380
 2.2310	15.7940
 2.2320	15.7520
 2.2330	15.7140
 2.2340	15.6750
 2.2350	15.6410
 2.2360	15.5980
 2.2370	15.5490
 2.2380	15.5030
 2.2390	15.4560
 2.2400	15.4040
 2.2410	15.3480
 2.2420	15.2940
 2.2430	15.2320
 2.2440	15.1820
 2.2450	15.1410
 2.2460	15.0970
 2.2470	15.0570
 2.2480	15.0160
 2.2490	14.9770
 2.2500	14.9300
 2.2510	14.8800
 2.2520	14.8260
 2.2530	14.7530
 2.2540	14.6990
 2.2550	14.6590
 2.2560	14.6090
 2.2570	14.5760
 2.2580	14.5260
 2.2590	14.4510
 2.2600	14.3890
 2.2610	14.3260
 2.2620	14.2620
 2.2630	14.2100
 2.2640	14.1550
 2.2650	14.0980
 2.2660	14.0400
 2.2670	13.9900
 2.2680	13.9480
 2.2690	13.8960
 2.2700	13.8470
 2.2710	13.7950
 2.2720	13.7280
 2.2730	13.6830
 2.2740	13.6510
 2.2750	13.6120
 2.2760	13.5850
 2.2770	13.5410
 2.2780	13.4880
 2.2790	13.4330
 2.2800	13.3610
 2.2810	13.3100
 2.2820	13.2630
 2.2830	13.2240
 2.2840	13.2100
 2.2850	13.1780
 2.2860	13.1420
 2.2870	13.1030
 2.2880	13.0510
 2.2890	13.0110
 2.2900	12.9760
 2.2910	12.9400
 2.2920	12.9130
 2.2930	12.8800
 2.2940	12.8490
 2.2950	12.8140
 2.2960	12.7740
 2.2970	12.7320
 2.2980	12.6800
 2.2990	12.6380
 2.3000	12.5900
 2.3010	12.5440
 2.3020	12.5090
 2.3030	12.4440
 2.3040	12.3870
 2.3050	12.3610
 2.3060	12.3250
 2.3070	12.3110
 2.3080	12.2960
 2.3090	12.2620
 2.3100	12.2400
 2.3110	12.2070
 2.3120	12.1900
 2.3130	12.1860
 2.3140	12.1720
 2.3150	12.1660
 2.3160	12.1420
 2.3170	12.1000
 2.3180	12.0730
 2.3190	12.0410
 2.3200	12.0150
 2.3210	12.0050
 2.3220	11.9860
 2.3230	11.9710
 2.3240	11.9390
 2.3250	11.8950
 2.3260	11.8640
 2.3270	11.8210
 2.3280	11.7940
 2.3290	11.7900
 2.3300	11.7690
 2.3310	11.7450
 2.3320	11.7200
 2.3330	11.6900
 2.3340	11.6650
 2.3350	11.6440
 2.3360	11.6100
 2.3370	11.5640
 2.3380	11.5320
 2.3390	11.5030
 2.3400	11.4720
 2.3410	11.4560
 2.3420	11.4250
 2.3430	11.3690
 2.3440	11.3330
 2.3450	11.3080
 2.3460	11.2830
 2.3470	11.2730
 2.3480	11.2490
 2.3490	11.2110
 2.3500	11.1760
 2.3510	11.1360
 2.3520	11.1020
 2.3530	11.0610
 2.3540	11.0440
 2.3550	11.0450
 2.3560	11.0070
 2.3570	10.9680
 2.3580	10.9490
 2.3590	10.9020
 2.3600	10.8590
 2.3610	10.8470
 2.3620	10.8220
 2.3630	10.8000
 2.3640	10.7940
 2.3650	10.7850
 2.3660	10.7570
 2.3670	10.7160
 2.3680	10.6730
 2.3690	10.6250
 2.3700	10.5790
 2.3710	10.5560
 2.3720	10.5550
 2.3730	10.5300
 2.3740	10.5010
 2.3750	10.4620
 2.3760	10.4050
 2.3770	10.3700
 2.3780	10.3270
 2.3790	10.2890
 2.3800	10.2400
 2.3810	10.1850
 2.3820	10.1800
 2.3830	10.1850
 2.3840	10.1780
 2.3850	10.1560
 2.3860	10.1030
 2.3870	10.0580
 2.3880	10.0170
 2.3890	 9.9880
 2.3900	 9.9870
 2.3910	 9.9700
 2.3920	 9.9420
 2.3930	 9.9130
 2.3940	 9.8420
 2.3950	 9.7520
 2.3960	 9.7060
 2.3970	 9.6530
 2.3980	 9.6030
 2.3990	 9.5840
 2.4000	 9.5510
 2.4010	 9.5370
 2.4020	 9.5420
 2.4030	 9.5400
 2.4040	 9.5090
 2.4050	 9.4680
 2.4060	 9.4380
 2.4070	 9.3850
 2.4080	 9.3370
 2.4090	 9.2790
 2.4100	 9.2070
 2.4110	 9.1790
 2.4120	 9.1870
 2.4130	 9.1960
 2.4140	 9.2010
 2.4150	 9.1800
 2.4160	 9.1440
 2.4170	 9.0900
 2.4180	 9.0410
 2.4190	 9.0110
 2.4200	 8.9480
 2.4210	 8.8950
 2.4220	 8.8500
 2.4230	 8.8230
 2.4240	 8.8070
 2.4250	 8.7820
 2.4260	 8.7730
 2.4270	 8.7590
 2.4280	 8.7320
 2.4290	 8.7000
 2.4300	 8.6510
 2.4310	 8.5980
 2.4320	 8.5380
 2.4330	 8.4690
 2.4340	 8.4420
 2.4350	 8.4050
 2.4360	 8.3710
 2.4370	 8.3740
 2.4380	 8.3340
 2.4390	 8.2980
 2.4400	 8.2240
 2.4410	 8.1280
 2.4420	 8.1190
 2.4430	 8.1070
 2.4440	 8.0810
 2.4450	 8.0590
 2.4460	 8.0060
 2.4470	 7.9840
 2.4480	 7.9770
 2.4490	 8.0040
 2.4500	 8.0220
 2.4510	 7.9460
 2.4520	 7.9050
 2.4530	 7.8570
 2.4540	 7.7780
 2.4550	 7.7490
 2.4560	 7.7170
 2.4570	 7.6830
 2.4580	 7.6720
 2.4590	 7.6660
 2.4600	 7.6820
 2.4610	 7.7170
 2.4620	 7.7030
 2.4630	 7.6860
 2.4640	 7.6470
 2.4650	 7.5700
 2.4660	 7.5020
 2.4670	 7.4440
 2.4680	 7.4550
 2.4690	 7.4570
 2.4700	 7.4340
 2.4710	 7.4180
 2.4720	 7.3670
 2.4730	 7.2390
 2.4740	 7.2310
 2.4750	 7.2930
 2.4760	 7.2900
 2.4770	 7.3400
 2.4780	 7.3530
 2.4790	 7.3140
 2.4800	 7.2970
 2.4810	 7.2890
 2.4820	 7.2050
 2.4830	 7.1480
 2.4840	 7.1940
 2.4850	 7.2590
 2.4860	 7.2270
 2.4870	 7.1390
 2.4880	 7.0940
 2.4890	 7.0390
 2.4900	 7.0330
 2.4910	 7.0350
 2.4920	 6.9370
 2.4930	 6.8850
 2.4940	 6.8860
 2.4950	 6.9000
 2.4960	 6.9220
 2.4970	 6.9380
 2.4980	 6.9260
 2.4990	 6.9170
 2.5000	 6.9450
