Name: Adenostoma fasciculatum 1
Type: vegetation
Class: Shrub
Genus: Adenostoma
Species: fasciculatum
Sample No.: VH033
Owner: UCSB
Wavelength Range: VSWIR
Origin: 34.5084; -119.7687; WGS84
Collection Date: 4/1/2013
Description: Samples were collected as part of the HyspIRI Airborne Campaign. 48 individual plants were sampled in three times in 2013 - spring  summer  and fall. The name of the sample includes a 1  2  or 3 which references a different individual of the species. Samples were taken to JPL and processed within 48 hours of collection. The same leaves were processed in the Nicolet and then measured using the ASD.
Measurement: Bidirectional reflectance
First Column: X
Second Column: Y
X Units: Wavelength (micrometers)
Y Units: Reflectance (percentage)
First X Value: 0.35
Last X Value: 2.5
Number of X Values: 2151
Additional Information: vegetation.shrub.adenostoma.fasciculatum.vswir.vh033.ucsb.asd.ancillary.txt

 0.3500	 1.9720
 0.3510	 1.9850
 0.3520	 1.7570
 0.3530	 1.6300
 0.3540	 1.8050
 0.3550	 1.7510
 0.3560	 1.6710
 0.3570	 1.6250
 0.3580	 1.5970
 0.3590	 1.6460
 0.3600	 1.6340
 0.3610	 1.5600
 0.3620	 1.6420
 0.3630	 1.7360
 0.3640	 1.6940
 0.3650	 1.4920
 0.3660	 1.5260
 0.3670	 1.5400
 0.3680	 1.5390
 0.3690	 1.6830
 0.3700	 1.6740
 0.3710	 1.6430
 0.3720	 1.6880
 0.3730	 1.7510
 0.3740	 1.6880
 0.3750	 1.6080
 0.3760	 1.6430
 0.3770	 1.6020
 0.3780	 1.5740
 0.3790	 1.5880
 0.3800	 1.6170
 0.3810	 1.6710
 0.3820	 1.6940
 0.3830	 1.6590
 0.3840	 1.5980
 0.3850	 1.7100
 0.3860	 1.8120
 0.3870	 1.6760
 0.3880	 1.6770
 0.3890	 1.6860
 0.3900	 1.6630
 0.3910	 1.6840
 0.3920	 1.7310
 0.3930	 1.7600
 0.3940	 1.7510
 0.3950	 1.7650
 0.3960	 1.8180
 0.3970	 1.8460
 0.3980	 1.7800
 0.3990	 1.8110
 0.4000	 1.8550
 0.4010	 1.8600
 0.4020	 1.8450
 0.4030	 1.8580
 0.4040	 1.8800
 0.4050	 1.8910
 0.4060	 1.9360
 0.4070	 1.9860
 0.4080	 1.9990
 0.4090	 1.9470
 0.4100	 1.9870
 0.4110	 2.0540
 0.4120	 2.0890
 0.4130	 2.1100
 0.4140	 2.1270
 0.4150	 2.1380
 0.4160	 2.1450
 0.4170	 2.1820
 0.4180	 2.2310
 0.4190	 2.2660
 0.4200	 2.2540
 0.4210	 2.2620
 0.4220	 2.2890
 0.4230	 2.3190
 0.4240	 2.3360
 0.4250	 2.3620
 0.4260	 2.3880
 0.4270	 2.3960
 0.4280	 2.4220
 0.4290	 2.4510
 0.4300	 2.4710
 0.4310	 2.4860
 0.4320	 2.5090
 0.4330	 2.5250
 0.4340	 2.5250
 0.4350	 2.5450
 0.4360	 2.5700
 0.4370	 2.5860
 0.4380	 2.5770
 0.4390	 2.5860
 0.4400	 2.6030
 0.4410	 2.6160
 0.4420	 2.6280
 0.4430	 2.6410
 0.4440	 2.6480
 0.4450	 2.6460
 0.4460	 2.6750
 0.4470	 2.7010
 0.4480	 2.7100
 0.4490	 2.7200
 0.4500	 2.7310
 0.4510	 2.7400
 0.4520	 2.7470
 0.4530	 2.7740
 0.4540	 2.7850
 0.4550	 2.7830
 0.4560	 2.7920
 0.4570	 2.7940
 0.4580	 2.8010
 0.4590	 2.8160
 0.4600	 2.8340
 0.4610	 2.8470
 0.4620	 2.8520
 0.4630	 2.8530
 0.4640	 2.8710
 0.4650	 2.8820
 0.4660	 2.8810
 0.4670	 2.8840
 0.4680	 2.8880
 0.4690	 2.8940
 0.4700	 2.9020
 0.4710	 2.8970
 0.4720	 2.9010
 0.4730	 2.9140
 0.4740	 2.9250
 0.4750	 2.9280
 0.4760	 2.9350
 0.4770	 2.9470
 0.4780	 2.9460
 0.4790	 2.9470
 0.4800	 2.9540
 0.4810	 2.9660
 0.4820	 2.9690
 0.4830	 2.9800
 0.4840	 2.9930
 0.4850	 2.9830
 0.4860	 2.9960
 0.4870	 3.0120
 0.4880	 3.0140
 0.4890	 3.0250
 0.4900	 3.0390
 0.4910	 3.0540
 0.4920	 3.0710
 0.4930	 3.0840
 0.4940	 3.0980
 0.4950	 3.1150
 0.4960	 3.1350
 0.4970	 3.1560
 0.4980	 3.1770
 0.4990	 3.2000
 0.5000	 3.2260
 0.5010	 3.2560
 0.5020	 3.2880
 0.5030	 3.3160
 0.5040	 3.3520
 0.5050	 3.3950
 0.5060	 3.4410
 0.5070	 3.4880
 0.5080	 3.5440
 0.5090	 3.6030
 0.5100	 3.6550
 0.5110	 3.7200
 0.5120	 3.7950
 0.5130	 3.8770
 0.5140	 3.9620
 0.5150	 4.0490
 0.5160	 4.1460
 0.5170	 4.2580
 0.5180	 4.3690
 0.5190	 4.4800
 0.5200	 4.5940
 0.5210	 4.7160
 0.5220	 4.8360
 0.5230	 4.9570
 0.5240	 5.0820
 0.5250	 5.1990
 0.5260	 5.3160
 0.5270	 5.4320
 0.5280	 5.5430
 0.5290	 5.6420
 0.5300	 5.7350
 0.5310	 5.8240
 0.5320	 5.9130
 0.5330	 5.9970
 0.5340	 6.0750
 0.5350	 6.1460
 0.5360	 6.2080
 0.5370	 6.2710
 0.5380	 6.3330
 0.5390	 6.3890
 0.5400	 6.4420
 0.5410	 6.4970
 0.5420	 6.5550
 0.5430	 6.6090
 0.5440	 6.6590
 0.5450	 6.7040
 0.5460	 6.7420
 0.5470	 6.7710
 0.5480	 6.7940
 0.5490	 6.8150
 0.5500	 6.8390
 0.5510	 6.8620
 0.5520	 6.8790
 0.5530	 6.8850
 0.5540	 6.8860
 0.5550	 6.8790
 0.5560	 6.8640
 0.5570	 6.8420
 0.5580	 6.8170
 0.5590	 6.7840
 0.5600	 6.7420
 0.5610	 6.7000
 0.5620	 6.6540
 0.5630	 6.6010
 0.5640	 6.5420
 0.5650	 6.4830
 0.5660	 6.4180
 0.5670	 6.3490
 0.5680	 6.2810
 0.5690	 6.2120
 0.5700	 6.1370
 0.5710	 6.0560
 0.5720	 5.9820
 0.5730	 5.9120
 0.5740	 5.8460
 0.5750	 5.7870
 0.5760	 5.7380
 0.5770	 5.6940
 0.5780	 5.6520
 0.5790	 5.6080
 0.5800	 5.5630
 0.5810	 5.5200
 0.5820	 5.4800
 0.5830	 5.4430
 0.5840	 5.4120
 0.5850	 5.3840
 0.5860	 5.3540
 0.5870	 5.3220
 0.5880	 5.2940
 0.5890	 5.2720
 0.5900	 5.2450
 0.5910	 5.2240
 0.5920	 5.2150
 0.5930	 5.2130
 0.5940	 5.2050
 0.5950	 5.1940
 0.5960	 5.1830
 0.5970	 5.1740
 0.5980	 5.1680
 0.5990	 5.1630
 0.6000	 5.1560
 0.6010	 5.1430
 0.6020	 5.1290
 0.6030	 5.1130
 0.6040	 5.0930
 0.6050	 5.0710
 0.6060	 5.0460
 0.6070	 5.0160
 0.6080	 4.9840
 0.6090	 4.9540
 0.6100	 4.9290
 0.6110	 4.9070
 0.6120	 4.8720
 0.6130	 4.8280
 0.6140	 4.7850
 0.6150	 4.7530
 0.6160	 4.7200
 0.6170	 4.6860
 0.6180	 4.6570
 0.6190	 4.6350
 0.6200	 4.6170
 0.6210	 4.6020
 0.6220	 4.5910
 0.6230	 4.5760
 0.6240	 4.5650
 0.6250	 4.5620
 0.6260	 4.5550
 0.6270	 4.5550
 0.6280	 4.5550
 0.6290	 4.5510
 0.6300	 4.5550
 0.6310	 4.5610
 0.6320	 4.5630
 0.6330	 4.5620
 0.6340	 4.5530
 0.6350	 4.5400
 0.6360	 4.5300
 0.6370	 4.5140
 0.6380	 4.4950
 0.6390	 4.4740
 0.6400	 4.4490
 0.6410	 4.4210
 0.6420	 4.3900
 0.6430	 4.3580
 0.6440	 4.3240
 0.6450	 4.2910
 0.6460	 4.2560
 0.6470	 4.2210
 0.6480	 4.1920
 0.6490	 4.1620
 0.6500	 4.1320
 0.6510	 4.1130
 0.6520	 4.0940
 0.6530	 4.0750
 0.6540	 4.0560
 0.6550	 4.0380
 0.6560	 4.0160
 0.6570	 3.9900
 0.6580	 3.9620
 0.6590	 3.9310
 0.6600	 3.9000
 0.6610	 3.8680
 0.6620	 3.8370
 0.6630	 3.8070
 0.6640	 3.7800
 0.6650	 3.7560
 0.6660	 3.7350
 0.6670	 3.7160
 0.6680	 3.6990
 0.6690	 3.6880
 0.6700	 3.6840
 0.6710	 3.6810
 0.6720	 3.6780
 0.6730	 3.6780
 0.6740	 3.6830
 0.6750	 3.6880
 0.6760	 3.6920
 0.6770	 3.7070
 0.6780	 3.7210
 0.6790	 3.7340
 0.6800	 3.7520
 0.6810	 3.7780
 0.6820	 3.8110
 0.6830	 3.8470
 0.6840	 3.8950
 0.6850	 3.9560
 0.6860	 4.0270
 0.6870	 4.1070
 0.6880	 4.2060
 0.6890	 4.3250
 0.6900	 4.4680
 0.6910	 4.6390
 0.6920	 4.8400
 0.6930	 5.0680
 0.6940	 5.3270
 0.6950	 5.6260
 0.6960	 5.9590
 0.6970	 6.3290
 0.6980	 6.7380
 0.6990	 7.1820
 0.7000	 7.6580
 0.7010	 8.1620
 0.7020	 8.6910
 0.7030	 9.2470
 0.7040	 9.8240
 0.7050	10.4130
 0.7060	11.0180
 0.7070	11.6360
 0.7080	12.2640
 0.7090	12.9010
 0.7100	13.5490
 0.7110	14.2090
 0.7120	14.8800
 0.7130	15.5600
 0.7140	16.2440
 0.7150	16.9350
 0.7160	17.6350
 0.7170	18.3390
 0.7180	19.0460
 0.7190	19.7550
 0.7200	20.4650
 0.7210	21.1760
 0.7220	21.8850
 0.7230	22.5900
 0.7240	23.2850
 0.7250	23.9720
 0.7260	24.6470
 0.7270	25.3060
 0.7280	25.9510
 0.7290	26.5810
 0.7300	27.1920
 0.7310	27.7770
 0.7320	28.3450
 0.7330	28.8950
 0.7340	29.4250
 0.7350	29.9360
 0.7360	30.4260
 0.7370	30.8910
 0.7380	31.3320
 0.7390	31.7560
 0.7400	32.1620
 0.7410	32.5470
 0.7420	32.9110
 0.7430	33.2590
 0.7440	33.5860
 0.7450	33.8940
 0.7460	34.1850
 0.7470	34.4610
 0.7480	34.7220
 0.7490	34.9680
 0.7500	35.1890
 0.7510	35.4000
 0.7520	35.6000
 0.7530	35.7880
 0.7540	35.9590
 0.7550	36.1180
 0.7560	36.2690
 0.7570	36.4150
 0.7580	36.5440
 0.7590	36.6620
 0.7600	36.7760
 0.7610	36.8820
 0.7620	36.9850
 0.7630	37.0810
 0.7640	37.1660
 0.7650	37.2480
 0.7660	37.3300
 0.7670	37.4090
 0.7680	37.4760
 0.7690	37.5430
 0.7700	37.6070
 0.7710	37.6690
 0.7720	37.7350
 0.7730	37.7920
 0.7740	37.8430
 0.7750	37.8980
 0.7760	37.9480
 0.7770	38.0010
 0.7780	38.0520
 0.7790	38.0940
 0.7800	38.1400
 0.7810	38.1880
 0.7820	38.2370
 0.7830	38.2870
 0.7840	38.3270
 0.7850	38.3630
 0.7860	38.4000
 0.7870	38.4430
 0.7880	38.4800
 0.7890	38.5150
 0.7900	38.5560
 0.7910	38.5920
 0.7920	38.6300
 0.7930	38.6690
 0.7940	38.7020
 0.7950	38.7330
 0.7960	38.7670
 0.7970	38.8030
 0.7980	38.8280
 0.7990	38.8580
 0.8000	38.8900
 0.8010	38.9180
 0.8020	38.9470
 0.8030	38.9770
 0.8040	39.0040
 0.8050	39.0230
 0.8060	39.0530
 0.8070	39.0810
 0.8080	39.1050
 0.8090	39.1310
 0.8100	39.1530
 0.8110	39.1770
 0.8120	39.2000
 0.8130	39.2130
 0.8140	39.2300
 0.8150	39.2500
 0.8160	39.2690
 0.8170	39.2890
 0.8180	39.3040
 0.8190	39.3210
 0.8200	39.3480
 0.8210	39.3640
 0.8220	39.3760
 0.8230	39.3910
 0.8240	39.4100
 0.8250	39.4200
 0.8260	39.4300
 0.8270	39.4470
 0.8280	39.4610
 0.8290	39.4670
 0.8300	39.4730
 0.8310	39.4820
 0.8320	39.4920
 0.8330	39.5010
 0.8340	39.5120
 0.8350	39.5240
 0.8360	39.5340
 0.8370	39.5440
 0.8380	39.5590
 0.8390	39.5800
 0.8400	39.5980
 0.8410	39.6160
 0.8420	39.6360
 0.8430	39.6530
 0.8440	39.6720
 0.8450	39.6890
 0.8460	39.7020
 0.8470	39.7220
 0.8480	39.7390
 0.8490	39.7550
 0.8500	39.7740
 0.8510	39.7920
 0.8520	39.8140
 0.8530	39.8390
 0.8540	39.8580
 0.8550	39.8670
 0.8560	39.8810
 0.8570	39.9030
 0.8580	39.9230
 0.8590	39.9440
 0.8600	39.9600
 0.8610	39.9740
 0.8620	39.9960
 0.8630	40.0180
 0.8640	40.0350
 0.8650	40.0470
 0.8660	40.0700
 0.8670	40.0880
 0.8680	40.1040
 0.8690	40.1230
 0.8700	40.1370
 0.8710	40.1550
 0.8720	40.1790
 0.8730	40.2050
 0.8740	40.2250
 0.8750	40.2400
 0.8760	40.2570
 0.8770	40.2770
 0.8780	40.2940
 0.8790	40.3060
 0.8800	40.3170
 0.8810	40.3390
 0.8820	40.3590
 0.8830	40.3750
 0.8840	40.3860
 0.8850	40.4020
 0.8860	40.4130
 0.8870	40.4240
 0.8880	40.4400
 0.8890	40.4550
 0.8900	40.4670
 0.8910	40.4790
 0.8920	40.4900
 0.8930	40.4970
 0.8940	40.5060
 0.8950	40.5170
 0.8960	40.5270
 0.8970	40.5460
 0.8980	40.5610
 0.8990	40.5720
 0.9000	40.5870
 0.9010	40.5880
 0.9020	40.5880
 0.9030	40.5950
 0.9040	40.6070
 0.9050	40.6270
 0.9060	40.6420
 0.9070	40.6470
 0.9080	40.6550
 0.9090	40.6600
 0.9100	40.6620
 0.9110	40.6650
 0.9120	40.6840
 0.9130	40.6920
 0.9140	40.6960
 0.9150	40.7100
 0.9160	40.7220
 0.9170	40.7250
 0.9180	40.7230
 0.9190	40.7220
 0.9200	40.7260
 0.9210	40.7160
 0.9220	40.7030
 0.9230	40.7120
 0.9240	40.7020
 0.9250	40.6980
 0.9260	40.6980
 0.9270	40.6780
 0.9280	40.6710
 0.9290	40.6540
 0.9300	40.6260
 0.9310	40.6030
 0.9320	40.5740
 0.9330	40.5460
 0.9340	40.5220
 0.9350	40.5030
 0.9360	40.4660
 0.9370	40.4290
 0.9380	40.3970
 0.9390	40.3510
 0.9400	40.3170
 0.9410	40.2800
 0.9420	40.2330
 0.9430	40.1910
 0.9440	40.1340
 0.9450	40.0770
 0.9460	40.0220
 0.9470	39.9370
 0.9480	39.8680
 0.9490	39.7930
 0.9500	39.6940
 0.9510	39.6060
 0.9520	39.5000
 0.9530	39.3830
 0.9540	39.2690
 0.9550	39.1670
 0.9560	39.0630
 0.9570	38.9580
 0.9580	38.8600
 0.9590	38.7820
 0.9600	38.6970
 0.9610	38.6270
 0.9620	38.5910
 0.9630	38.5300
 0.9640	38.4660
 0.9650	38.4180
 0.9660	38.3950
 0.9670	38.3550
 0.9680	38.3230
 0.9690	38.3050
 0.9700	38.2970
 0.9710	38.2780
 0.9720	38.2670
 0.9730	38.2570
 0.9740	38.2380
 0.9750	38.2400
 0.9760	38.2540
 0.9770	38.2650
 0.9780	38.2640
 0.9790	38.2730
 0.9800	38.2850
 0.9810	38.3060
 0.9820	38.3430
 0.9830	38.3700
 0.9840	38.3940
 0.9850	38.4150
 0.9860	38.4340
 0.9870	38.4680
 0.9880	38.5080
 0.9890	38.5540
 0.9900	38.6080
 0.9910	38.6490
 0.9920	38.8320
 0.9930	39.0150
 0.9940	39.1980
 0.9950	39.3810
 0.9960	39.5640
 0.9970	39.7470
 0.9980	39.9300
 0.9990	40.1130
 1.0000	40.2960
 1.0010	40.4790
 1.0020	40.6620
 1.0030	40.8450
 1.0040	41.0280
 1.0050	41.2110
 1.0060	41.3930
 1.0070	41.5760
 1.0080	41.7590
 1.0090	41.9420
 1.0100	41.9420
 1.0110	41.9970
 1.0120	42.0530
 1.0130	42.1080
 1.0140	42.1640
 1.0150	42.2200
 1.0160	42.2770
 1.0170	42.3340
 1.0180	42.3910
 1.0190	42.4460
 1.0200	42.5000
 1.0210	42.5540
 1.0220	42.6060
 1.0230	42.6610
 1.0240	42.7180
 1.0250	42.7730
 1.0260	42.8290
 1.0270	42.8820
 1.0280	42.9350
 1.0290	42.9860
 1.0300	43.0340
 1.0310	43.0830
 1.0320	43.1310
 1.0330	43.1790
 1.0340	43.2270
 1.0350	43.2760
 1.0360	43.3220
 1.0370	43.3680
 1.0380	43.4150
 1.0390	43.4640
 1.0400	43.5080
 1.0410	43.5520
 1.0420	43.5910
 1.0430	43.6220
 1.0440	43.6570
 1.0450	43.6930
 1.0460	43.7290
 1.0470	43.7680
 1.0480	43.8030
 1.0490	43.8390
 1.0500	43.8700
 1.0510	43.8980
 1.0520	43.9210
 1.0530	43.9490
 1.0540	43.9760
 1.0550	44.0040
 1.0560	44.0360
 1.0570	44.0630
 1.0580	44.0870
 1.0590	44.1110
 1.0600	44.1350
 1.0610	44.1550
 1.0620	44.1700
 1.0630	44.1870
 1.0640	44.2010
 1.0650	44.2150
 1.0660	44.2320
 1.0670	44.2450
 1.0680	44.2560
 1.0690	44.2630
 1.0700	44.2700
 1.0710	44.2750
 1.0720	44.2810
 1.0730	44.2870
 1.0740	44.2920
 1.0750	44.2980
 1.0760	44.3020
 1.0770	44.3050
 1.0780	44.3070
 1.0790	44.3050
 1.0800	44.3060
 1.0810	44.3110
 1.0820	44.3090
 1.0830	44.3040
 1.0840	44.3000
 1.0850	44.2930
 1.0860	44.2850
 1.0870	44.2780
 1.0880	44.2740
 1.0890	44.2650
 1.0900	44.2550
 1.0910	44.2440
 1.0920	44.2320
 1.0930	44.2180
 1.0940	44.2030
 1.0950	44.1870
 1.0960	44.1690
 1.0970	44.1500
 1.0980	44.1310
 1.0990	44.1120
 1.1000	44.0940
 1.1010	44.0740
 1.1020	44.0540
 1.1030	44.0320
 1.1040	44.0060
 1.1050	43.9820
 1.1060	43.9570
 1.1070	43.9310
 1.1080	43.9030
 1.1090	43.8750
 1.1100	43.8430
 1.1110	43.8080
 1.1120	43.7710
 1.1130	43.7310
 1.1140	43.6910
 1.1150	43.6550
 1.1160	43.6100
 1.1170	43.5630
 1.1180	43.5080
 1.1190	43.4450
 1.1200	43.3780
 1.1210	43.3090
 1.1220	43.2320
 1.1230	43.1480
 1.1240	43.0540
 1.1250	42.9510
 1.1260	42.8390
 1.1270	42.7160
 1.1280	42.5880
 1.1290	42.4450
 1.1300	42.2910
 1.1310	42.1240
 1.1320	41.9430
 1.1330	41.7520
 1.1340	41.5490
 1.1350	41.3350
 1.1360	41.1110
 1.1370	40.8780
 1.1380	40.6350
 1.1390	40.3860
 1.1400	40.1270
 1.1410	39.8650
 1.1420	39.6020
 1.1430	39.3380
 1.1440	39.0760
 1.1450	38.8110
 1.1460	38.5580
 1.1470	38.3040
 1.1480	38.0660
 1.1490	37.8360
 1.1500	37.6210
 1.1510	37.4150
 1.1520	37.2240
 1.1530	37.0420
 1.1540	36.8790
 1.1550	36.7300
 1.1560	36.5960
 1.1570	36.4790
 1.1580	36.3740
 1.1590	36.2780
 1.1600	36.1920
 1.1610	36.1170
 1.1620	36.0510
 1.1630	35.9950
 1.1640	35.9470
 1.1650	35.9030
 1.1660	35.8660
 1.1670	35.8320
 1.1680	35.8040
 1.1690	35.7770
 1.1700	35.7560
 1.1710	35.7320
 1.1720	35.7090
 1.1730	35.6860
 1.1740	35.6620
 1.1750	35.6390
 1.1760	35.6160
 1.1770	35.5920
 1.1780	35.5660
 1.1790	35.5390
 1.1800	35.5110
 1.1810	35.4810
 1.1820	35.4510
 1.1830	35.4230
 1.1840	35.3960
 1.1850	35.3700
 1.1860	35.3440
 1.1870	35.3190
 1.1880	35.2960
 1.1890	35.2730
 1.1900	35.2540
 1.1910	35.2380
 1.1920	35.2240
 1.1930	35.2140
 1.1940	35.2050
 1.1950	35.2000
 1.1960	35.1970
 1.1970	35.1980
 1.1980	35.2030
 1.1990	35.2110
 1.2000	35.2240
 1.2010	35.2390
 1.2020	35.2570
 1.2030	35.2790
 1.2040	35.3040
 1.2050	35.3330
 1.2060	35.3670
 1.2070	35.4060
 1.2080	35.4480
 1.2090	35.4930
 1.2100	35.5410
 1.2110	35.5930
 1.2120	35.6470
 1.2130	35.7050
 1.2140	35.7670
 1.2150	35.8300
 1.2160	35.8960
 1.2170	35.9610
 1.2180	36.0260
 1.2190	36.0940
 1.2200	36.1620
 1.2210	36.2320
 1.2220	36.3050
 1.2230	36.3760
 1.2240	36.4450
 1.2250	36.5120
 1.2260	36.5770
 1.2270	36.6410
 1.2280	36.7060
 1.2290	36.7710
 1.2300	36.8340
 1.2310	36.8930
 1.2320	36.9480
 1.2330	37.0000
 1.2340	37.0530
 1.2350	37.1040
 1.2360	37.1550
 1.2370	37.2070
 1.2380	37.2570
 1.2390	37.3050
 1.2400	37.3500
 1.2410	37.3940
 1.2420	37.4370
 1.2430	37.4800
 1.2440	37.5220
 1.2450	37.5640
 1.2460	37.6030
 1.2470	37.6410
 1.2480	37.6760
 1.2490	37.7100
 1.2500	37.7430
 1.2510	37.7750
 1.2520	37.8080
 1.2530	37.8380
 1.2540	37.8660
 1.2550	37.8910
 1.2560	37.9140
 1.2570	37.9350
 1.2580	37.9560
 1.2590	37.9750
 1.2600	37.9930
 1.2610	38.0080
 1.2620	38.0210
 1.2630	38.0320
 1.2640	38.0420
 1.2650	38.0520
 1.2660	38.0620
 1.2670	38.0690
 1.2680	38.0760
 1.2690	38.0800
 1.2700	38.0810
 1.2710	38.0830
 1.2720	38.0820
 1.2730	38.0770
 1.2740	38.0700
 1.2750	38.0620
 1.2760	38.0500
 1.2770	38.0360
 1.2780	38.0210
 1.2790	38.0010
 1.2800	37.9780
 1.2810	37.9550
 1.2820	37.9280
 1.2830	37.8980
 1.2840	37.8670
 1.2850	37.8320
 1.2860	37.7930
 1.2870	37.7510
 1.2880	37.7060
 1.2890	37.6550
 1.2900	37.6020
 1.2910	37.5450
 1.2920	37.4860
 1.2930	37.4210
 1.2940	37.3540
 1.2950	37.2820
 1.2960	37.2050
 1.2970	37.1270
 1.2980	37.0430
 1.2990	36.9540
 1.3000	36.8630
 1.3010	36.7650
 1.3020	36.6660
 1.3030	36.5660
 1.3040	36.4580
 1.3050	36.3460
 1.3060	36.2320
 1.3070	36.1100
 1.3080	35.9870
 1.3090	35.8630
 1.3100	35.7320
 1.3110	35.5960
 1.3120	35.4560
 1.3130	35.3120
 1.3140	35.1650
 1.3150	35.0160
 1.3160	34.8620
 1.3170	34.7060
 1.3180	34.5430
 1.3190	34.3770
 1.3200	34.2090
 1.3210	34.0330
 1.3220	33.8550
 1.3230	33.6750
 1.3240	33.4920
 1.3250	33.3100
 1.3260	33.1250
 1.3270	32.9350
 1.3280	32.7440
 1.3290	32.5480
 1.3300	32.3510
 1.3310	32.1540
 1.3320	31.9540
 1.3330	31.7550
 1.3340	31.5580
 1.3350	31.3610
 1.3360	31.1630
 1.3370	30.9640
 1.3380	30.7660
 1.3390	30.5700
 1.3400	30.3770
 1.3410	30.1880
 1.3420	30.0020
 1.3430	29.8180
 1.3440	29.6360
 1.3450	29.4570
 1.3460	29.2800
 1.3470	29.1060
 1.3480	28.9340
 1.3490	28.7650
 1.3500	28.6010
 1.3510	28.4360
 1.3520	28.2730
 1.3530	28.1110
 1.3540	27.9490
 1.3550	27.7900
 1.3560	27.6320
 1.3570	27.4740
 1.3580	27.3170
 1.3590	27.1580
 1.3600	26.9960
 1.3610	26.8320
 1.3620	26.6630
 1.3630	26.4910
 1.3640	26.3140
 1.3650	26.1330
 1.3660	25.9480
 1.3670	25.7540
 1.3680	25.5490
 1.3690	25.3340
 1.3700	25.1060
 1.3710	24.8670
 1.3720	24.6150
 1.3730	24.3480
 1.3740	24.0680
 1.3750	23.7720
 1.3760	23.4590
 1.3770	23.1320
 1.3780	22.7820
 1.3790	22.4180
 1.3800	22.0400
 1.3810	21.6430
 1.3820	21.2390
 1.3830	20.8250
 1.3840	20.4000
 1.3850	19.9650
 1.3860	19.5260
 1.3870	19.0740
 1.3880	18.6280
 1.3890	18.1780
 1.3900	17.7280
 1.3910	17.2860
 1.3920	16.8460
 1.3930	16.4080
 1.3940	15.9800
 1.3950	15.5570
 1.3960	15.1470
 1.3970	14.7500
 1.3980	14.3660
 1.3990	14.0000
 1.4000	13.6470
 1.4010	13.3090
 1.4020	12.9880
 1.4030	12.6820
 1.4040	12.3910
 1.4050	12.1170
 1.4060	11.8590
 1.4070	11.6190
 1.4080	11.3940
 1.4090	11.1830
 1.4100	10.9880
 1.4110	10.8050
 1.4120	10.6360
 1.4130	10.4790
 1.4140	10.3340
 1.4150	10.2020
 1.4160	10.0810
 1.4170	 9.9680
 1.4180	 9.8660
 1.4190	 9.7710
 1.4200	 9.6830
 1.4210	 9.6040
 1.4220	 9.5310
 1.4230	 9.4660
 1.4240	 9.4080
 1.4250	 9.3540
 1.4260	 9.3070
 1.4270	 9.2640
 1.4280	 9.2270
 1.4290	 9.1920
 1.4300	 9.1610
 1.4310	 9.1340
 1.4320	 9.1120
 1.4330	 9.0920
 1.4340	 9.0760
 1.4350	 9.0620
 1.4360	 9.0510
 1.4370	 9.0430
 1.4380	 9.0370
 1.4390	 9.0340
 1.4400	 9.0330
 1.4410	 9.0330
 1.4420	 9.0360
 1.4430	 9.0390
 1.4440	 9.0450
 1.4450	 9.0510
 1.4460	 9.0590
 1.4470	 9.0680
 1.4480	 9.0800
 1.4490	 9.0910
 1.4500	 9.1040
 1.4510	 9.1170
 1.4520	 9.1310
 1.4530	 9.1460
 1.4540	 9.1610
 1.4550	 9.1790
 1.4560	 9.1970
 1.4570	 9.2160
 1.4580	 9.2360
 1.4590	 9.2580
 1.4600	 9.2830
 1.4610	 9.3090
 1.4620	 9.3380
 1.4630	 9.3700
 1.4640	 9.4040
 1.4650	 9.4410
 1.4660	 9.4810
 1.4670	 9.5240
 1.4680	 9.5700
 1.4690	 9.6180
 1.4700	 9.6690
 1.4710	 9.7220
 1.4720	 9.7780
 1.4730	 9.8360
 1.4740	 9.8970
 1.4750	 9.9590
 1.4760	10.0240
 1.4770	10.0900
 1.4780	10.1570
 1.4790	10.2260
 1.4800	10.2960
 1.4810	10.3670
 1.4820	10.4400
 1.4830	10.5120
 1.4840	10.5880
 1.4850	10.6640
 1.4860	10.7390
 1.4870	10.8170
 1.4880	10.8930
 1.4890	10.9700
 1.4900	11.0490
 1.4910	11.1290
 1.4920	11.2090
 1.4930	11.2910
 1.4940	11.3720
 1.4950	11.4530
 1.4960	11.5330
 1.4970	11.6140
 1.4980	11.6950
 1.4990	11.7770
 1.5000	11.8590
 1.5010	11.9430
 1.5020	12.0250
 1.5030	12.1080
 1.5040	12.1910
 1.5050	12.2740
 1.5060	12.3580
 1.5070	12.4420
 1.5080	12.5250
 1.5090	12.6080
 1.5100	12.6900
 1.5110	12.7740
 1.5120	12.8570
 1.5130	12.9390
 1.5140	13.0220
 1.5150	13.1030
 1.5160	13.1830
 1.5170	13.2650
 1.5180	13.3450
 1.5190	13.4270
 1.5200	13.5090
 1.5210	13.5870
 1.5220	13.6660
 1.5230	13.7450
 1.5240	13.8200
 1.5250	13.8980
 1.5260	13.9770
 1.5270	14.0530
 1.5280	14.1300
 1.5290	14.2060
 1.5300	14.2820
 1.5310	14.3590
 1.5320	14.4350
 1.5330	14.5100
 1.5340	14.5840
 1.5350	14.6570
 1.5360	14.7300
 1.5370	14.8030
 1.5380	14.8750
 1.5390	14.9460
 1.5400	15.0170
 1.5410	15.0870
 1.5420	15.1580
 1.5430	15.2300
 1.5440	15.3010
 1.5450	15.3700
 1.5460	15.4390
 1.5470	15.5080
 1.5480	15.5750
 1.5490	15.6430
 1.5500	15.7100
 1.5510	15.7760
 1.5520	15.8420
 1.5530	15.9080
 1.5540	15.9720
 1.5550	16.0360
 1.5560	16.0990
 1.5570	16.1630
 1.5580	16.2260
 1.5590	16.2900
 1.5600	16.3530
 1.5610	16.4150
 1.5620	16.4770
 1.5630	16.5390
 1.5640	16.6000
 1.5650	16.6610
 1.5660	16.7220
 1.5670	16.7820
 1.5680	16.8420
 1.5690	16.9010
 1.5700	16.9600
 1.5710	17.0190
 1.5720	17.0780
 1.5730	17.1380
 1.5740	17.1980
 1.5750	17.2560
 1.5760	17.3160
 1.5770	17.3730
 1.5780	17.4310
 1.5790	17.4890
 1.5800	17.5450
 1.5810	17.6030
 1.5820	17.6600
 1.5830	17.7160
 1.5840	17.7740
 1.5850	17.8300
 1.5860	17.8860
 1.5870	17.9430
 1.5880	17.9990
 1.5890	18.0560
 1.5900	18.1130
 1.5910	18.1680
 1.5920	18.2240
 1.5930	18.2790
 1.5940	18.3330
 1.5950	18.3880
 1.5960	18.4430
 1.5970	18.4980
 1.5980	18.5520
 1.5990	18.6050
 1.6000	18.6560
 1.6010	18.7080
 1.6020	18.7590
 1.6030	18.8120
 1.6040	18.8630
 1.6050	18.9140
 1.6060	18.9650
 1.6070	19.0150
 1.6080	19.0660
 1.6090	19.1160
 1.6100	19.1640
 1.6110	19.2100
 1.6120	19.2560
 1.6130	19.3030
 1.6140	19.3500
 1.6150	19.3960
 1.6160	19.4400
 1.6170	19.4830
 1.6180	19.5270
 1.6190	19.5700
 1.6200	19.6140
 1.6210	19.6570
 1.6220	19.6970
 1.6230	19.7360
 1.6240	19.7750
 1.6250	19.8110
 1.6260	19.8490
 1.6270	19.8870
 1.6280	19.9240
 1.6290	19.9600
 1.6300	19.9950
 1.6310	20.0290
 1.6320	20.0620
 1.6330	20.0930
 1.6340	20.1250
 1.6350	20.1540
 1.6360	20.1810
 1.6370	20.2070
 1.6380	20.2330
 1.6390	20.2560
 1.6400	20.2790
 1.6410	20.2990
 1.6420	20.3150
 1.6430	20.3290
 1.6440	20.3390
 1.6450	20.3480
 1.6460	20.3540
 1.6470	20.3600
 1.6480	20.3630
 1.6490	20.3640
 1.6500	20.3640
 1.6510	20.3610
 1.6520	20.3560
 1.6530	20.3480
 1.6540	20.3370
 1.6550	20.3240
 1.6560	20.3100
 1.6570	20.2950
 1.6580	20.2790
 1.6590	20.2620
 1.6600	20.2440
 1.6610	20.2250
 1.6620	20.2060
 1.6630	20.1900
 1.6640	20.1740
 1.6650	20.1610
 1.6660	20.1470
 1.6670	20.1350
 1.6680	20.1240
 1.6690	20.1130
 1.6700	20.1020
 1.6710	20.0900
 1.6720	20.0780
 1.6730	20.0660
 1.6740	20.0540
 1.6750	20.0410
 1.6760	20.0240
 1.6770	20.0030
 1.6780	19.9820
 1.6790	19.9570
 1.6800	19.9290
 1.6810	19.9000
 1.6820	19.8660
 1.6830	19.8300
 1.6840	19.7910
 1.6850	19.7470
 1.6860	19.7030
 1.6870	19.6560
 1.6880	19.6080
 1.6890	19.5610
 1.6900	19.5100
 1.6910	19.4570
 1.6920	19.4030
 1.6930	19.3480
 1.6940	19.2920
 1.6950	19.2360
 1.6960	19.1790
 1.6970	19.1210
 1.6980	19.0640
 1.6990	19.0060
 1.7000	18.9490
 1.7010	18.8930
 1.7020	18.8360
 1.7030	18.7810
 1.7040	18.7250
 1.7050	18.6680
 1.7060	18.6110
 1.7070	18.5520
 1.7080	18.4960
 1.7090	18.4400
 1.7100	18.3870
 1.7110	18.3360
 1.7120	18.2860
 1.7130	18.2390
 1.7140	18.1940
 1.7150	18.1500
 1.7160	18.1070
 1.7170	18.0640
 1.7180	18.0250
 1.7190	17.9890
 1.7200	17.9550
 1.7210	17.9230
 1.7220	17.8930
 1.7230	17.8630
 1.7240	17.8340
 1.7250	17.8080
 1.7260	17.7840
 1.7270	17.7590
 1.7280	17.7380
 1.7290	17.7190
 1.7300	17.7010
 1.7310	17.6830
 1.7320	17.6660
 1.7330	17.6480
 1.7340	17.6300
 1.7350	17.6100
 1.7360	17.5890
 1.7370	17.5640
 1.7380	17.5370
 1.7390	17.5070
 1.7400	17.4730
 1.7410	17.4360
 1.7420	17.3960
 1.7430	17.3550
 1.7440	17.3130
 1.7450	17.2680
 1.7460	17.2220
 1.7470	17.1740
 1.7480	17.1240
 1.7490	17.0760
 1.7500	17.0290
 1.7510	16.9830
 1.7520	16.9390
 1.7530	16.8950
 1.7540	16.8510
 1.7550	16.8100
 1.7560	16.7700
 1.7570	16.7310
 1.7580	16.6940
 1.7590	16.6590
 1.7600	16.6250
 1.7610	16.5910
 1.7620	16.5600
 1.7630	16.5320
 1.7640	16.5060
 1.7650	16.4840
 1.7660	16.4610
 1.7670	16.4370
 1.7680	16.4140
 1.7690	16.3900
 1.7700	16.3670
 1.7710	16.3460
 1.7720	16.3260
 1.7730	16.3080
 1.7740	16.2890
 1.7750	16.2710
 1.7760	16.2530
 1.7770	16.2350
 1.7780	16.2190
 1.7790	16.2050
 1.7800	16.1920
 1.7810	16.1820
 1.7820	16.1710
 1.7830	16.1610
 1.7840	16.1510
 1.7850	16.1420
 1.7860	16.1350
 1.7870	16.1280
 1.7880	16.1240
 1.7890	16.1220
 1.7900	16.1190
 1.7910	16.1170
 1.7920	16.1160
 1.7930	16.1160
 1.7940	16.1190
 1.7950	16.1220
 1.7960	16.1280
 1.7970	16.1340
 1.7980	16.1400
 1.7990	16.1460
 1.8000	16.1510
 1.8010	16.1570
 1.8020	16.1630
 1.8030	16.1700
 1.8040	16.1770
 1.8050	16.1840
 1.8060	16.1910
 1.8070	16.1970
 1.8080	16.2010
 1.8090	16.2060
 1.8100	16.2090
 1.8110	16.2130
 1.8120	16.2190
 1.8130	16.2240
 1.8140	16.2290
 1.8150	16.2340
 1.8160	16.2360
 1.8170	16.2370
 1.8180	16.2390
 1.8190	16.2410
 1.8200	16.2420
 1.8210	16.2420
 1.8220	16.2410
 1.8230	16.2370
 1.8240	16.2340
 1.8250	16.2310
 1.8260	16.2270
 1.8270	16.1890
 1.8280	16.1510
 1.8290	16.1140
 1.8300	16.0760
 1.8310	16.0380
 1.8320	16.0000
 1.8330	15.9630
 1.8340	15.9250
 1.8350	15.9250
 1.8360	15.8960
 1.8370	15.8650
 1.8380	15.8310
 1.8390	15.7940
 1.8400	15.7590
 1.8410	15.7150
 1.8420	15.6670
 1.8430	15.6140
 1.8440	15.5550
 1.8450	15.4920
 1.8460	15.4270
 1.8470	15.3570
 1.8480	15.2790
 1.8490	15.1910
 1.8500	15.0960
 1.8510	14.9920
 1.8520	14.8840
 1.8530	14.7690
 1.8540	14.6470
 1.8550	14.5190
 1.8560	14.3770
 1.8570	14.2250
 1.8580	14.0660
 1.8590	13.8990
 1.8600	13.7220
 1.8610	13.5410
 1.8620	13.3510
 1.8630	13.1490
 1.8640	12.9380
 1.8650	12.7130
 1.8660	12.4770
 1.8670	12.2350
 1.8680	11.9830
 1.8690	11.7220
 1.8700	11.4530
 1.8710	11.1750
 1.8720	10.8930
 1.8730	10.6070
 1.8740	10.3170
 1.8750	10.0240
 1.8760	 9.7280
 1.8770	 9.4330
 1.8780	 9.1400
 1.8790	 8.8500
 1.8800	 8.5640
 1.8810	 8.2820
 1.8820	 8.0010
 1.8830	 7.7260
 1.8840	 7.4570
 1.8850	 7.1920
 1.8860	 6.9340
 1.8870	 6.6810
 1.8880	 6.4380
 1.8890	 6.2070
 1.8900	 5.9880
 1.8910	 5.7790
 1.8920	 5.5800
 1.8930	 5.3930
 1.8940	 5.2180
 1.8950	 5.0550
 1.8960	 4.9030
 1.8970	 4.7610
 1.8980	 4.6300
 1.8990	 4.5070
 1.9000	 4.3920
 1.9010	 4.2890
 1.9020	 4.1930
 1.9030	 4.1040
 1.9040	 4.0220
 1.9050	 3.9540
 1.9060	 3.8900
 1.9070	 3.8350
 1.9080	 3.7860
 1.9090	 3.7390
 1.9100	 3.6960
 1.9110	 3.6590
 1.9120	 3.6280
 1.9130	 3.5970
 1.9140	 3.5710
 1.9150	 3.5470
 1.9160	 3.5250
 1.9170	 3.5070
 1.9180	 3.4920
 1.9190	 3.4820
 1.9200	 3.4740
 1.9210	 3.4660
 1.9220	 3.4610
 1.9230	 3.4600
 1.9240	 3.4580
 1.9250	 3.4560
 1.9260	 3.4570
 1.9270	 3.4590
 1.9280	 3.4620
 1.9290	 3.4680
 1.9300	 3.4750
 1.9310	 3.4820
 1.9320	 3.4890
 1.9330	 3.4980
 1.9340	 3.5100
 1.9350	 3.5210
 1.9360	 3.5310
 1.9370	 3.5450
 1.9380	 3.5600
 1.9390	 3.5750
 1.9400	 3.5910
 1.9410	 3.6090
 1.9420	 3.6260
 1.9430	 3.6410
 1.9440	 3.6590
 1.9450	 3.6780
 1.9460	 3.6970
 1.9470	 3.7180
 1.9480	 3.7380
 1.9490	 3.7590
 1.9500	 3.7800
 1.9510	 3.8020
 1.9520	 3.8240
 1.9530	 3.8460
 1.9540	 3.8670
 1.9550	 3.8890
 1.9560	 3.9110
 1.9570	 3.9350
 1.9580	 3.9620
 1.9590	 3.9880
 1.9600	 4.0130
 1.9610	 4.0390
 1.9620	 4.0660
 1.9630	 4.0920
 1.9640	 4.1180
 1.9650	 4.1460
 1.9660	 4.1710
 1.9670	 4.1980
 1.9680	 4.2250
 1.9690	 4.2540
 1.9700	 4.2820
 1.9710	 4.3120
 1.9720	 4.3420
 1.9730	 4.3710
 1.9740	 4.4010
 1.9750	 4.4320
 1.9760	 4.4640
 1.9770	 4.4980
 1.9780	 4.5340
 1.9790	 4.5680
 1.9800	 4.6020
 1.9810	 4.6360
 1.9820	 4.6680
 1.9830	 4.7010
 1.9840	 4.7350
 1.9850	 4.7700
 1.9860	 4.8030
 1.9870	 4.8380
 1.9880	 4.8750
 1.9890	 4.9100
 1.9900	 4.9470
 1.9910	 4.9830
 1.9920	 5.0190
 1.9930	 5.0560
 1.9940	 5.0910
 1.9950	 5.1230
 1.9960	 5.1580
 1.9970	 5.1910
 1.9980	 5.2260
 1.9990	 5.2650
 2.0000	 5.3030
 2.0010	 5.3390
 2.0020	 5.3760
 2.0030	 5.4110
 2.0040	 5.4450
 2.0050	 5.4790
 2.0060	 5.5110
 2.0070	 5.5450
 2.0080	 5.5800
 2.0090	 5.6140
 2.0100	 5.6490
 2.0110	 5.6820
 2.0120	 5.7140
 2.0130	 5.7460
 2.0140	 5.7780
 2.0150	 5.8090
 2.0160	 5.8410
 2.0170	 5.8730
 2.0180	 5.9030
 2.0190	 5.9330
 2.0200	 5.9620
 2.0210	 5.9890
 2.0220	 6.0180
 2.0230	 6.0470
 2.0240	 6.0750
 2.0250	 6.1030
 2.0260	 6.1310
 2.0270	 6.1570
 2.0280	 6.1830
 2.0290	 6.2080
 2.0300	 6.2310
 2.0310	 6.2540
 2.0320	 6.2750
 2.0330	 6.2970
 2.0340	 6.3160
 2.0350	 6.3380
 2.0360	 6.3620
 2.0370	 6.3840
 2.0380	 6.4070
 2.0390	 6.4280
 2.0400	 6.4440
 2.0410	 6.4620
 2.0420	 6.4770
 2.0430	 6.4930
 2.0440	 6.5090
 2.0450	 6.5240
 2.0460	 6.5400
 2.0470	 6.5560
 2.0480	 6.5750
 2.0490	 6.5990
 2.0500	 6.6180
 2.0510	 6.6370
 2.0520	 6.6560
 2.0530	 6.6720
 2.0540	 6.6880
 2.0550	 6.7060
 2.0560	 6.7220
 2.0570	 6.7380
 2.0580	 6.7530
 2.0590	 6.7690
 2.0600	 6.7840
 2.0610	 6.8020
 2.0620	 6.8210
 2.0630	 6.8390
 2.0640	 6.8590
 2.0650	 6.8770
 2.0660	 6.8930
 2.0670	 6.9100
 2.0680	 6.9250
 2.0690	 6.9430
 2.0700	 6.9630
 2.0710	 6.9810
 2.0720	 7.0010
 2.0730	 7.0220
 2.0740	 7.0420
 2.0750	 7.0610
 2.0760	 7.0800
 2.0770	 7.1000
 2.0780	 7.1190
 2.0790	 7.1360
 2.0800	 7.1530
 2.0810	 7.1680
 2.0820	 7.1840
 2.0830	 7.1990
 2.0840	 7.2150
 2.0850	 7.2340
 2.0860	 7.2510
 2.0870	 7.2680
 2.0880	 7.2880
 2.0890	 7.3060
 2.0900	 7.3240
 2.0910	 7.3420
 2.0920	 7.3600
 2.0930	 7.3780
 2.0940	 7.3940
 2.0950	 7.4130
 2.0960	 7.4340
 2.0970	 7.4530
 2.0980	 7.4730
 2.0990	 7.4920
 2.1000	 7.5060
 2.1010	 7.5230
 2.1020	 7.5410
 2.1030	 7.5590
 2.1040	 7.5760
 2.1050	 7.5970
 2.1060	 7.6150
 2.1070	 7.6330
 2.1080	 7.6510
 2.1090	 7.6690
 2.1100	 7.6870
 2.1110	 7.7060
 2.1120	 7.7230
 2.1130	 7.7400
 2.1140	 7.7560
 2.1150	 7.7710
 2.1160	 7.7870
 2.1170	 7.8040
 2.1180	 7.8200
 2.1190	 7.8380
 2.1200	 7.8540
 2.1210	 7.8680
 2.1220	 7.8820
 2.1230	 7.8960
 2.1240	 7.9090
 2.1250	 7.9240
 2.1260	 7.9410
 2.1270	 7.9570
 2.1280	 7.9740
 2.1290	 7.9900
 2.1300	 8.0050
 2.1310	 8.0210
 2.1320	 8.0370
 2.1330	 8.0530
 2.1340	 8.0670
 2.1350	 8.0820
 2.1360	 8.0960
 2.1370	 8.1120
 2.1380	 8.1290
 2.1390	 8.1450
 2.1400	 8.1610
 2.1410	 8.1760
 2.1420	 8.1900
 2.1430	 8.2030
 2.1440	 8.2160
 2.1450	 8.2280
 2.1460	 8.2430
 2.1470	 8.2570
 2.1480	 8.2740
 2.1490	 8.2960
 2.1500	 8.3140
 2.1510	 8.3310
 2.1520	 8.3500
 2.1530	 8.3720
 2.1540	 8.3910
 2.1550	 8.4120
 2.1560	 8.4310
 2.1570	 8.4480
 2.1580	 8.4640
 2.1590	 8.4800
 2.1600	 8.4960
 2.1610	 8.5090
 2.1620	 8.5240
 2.1630	 8.5400
 2.1640	 8.5590
 2.1650	 8.5770
 2.1660	 8.5970
 2.1670	 8.6140
 2.1680	 8.6300
 2.1690	 8.6460
 2.1700	 8.6630
 2.1710	 8.6800
 2.1720	 8.6960
 2.1730	 8.7130
 2.1740	 8.7320
 2.1750	 8.7480
 2.1760	 8.7620
 2.1770	 8.7780
 2.1780	 8.7910
 2.1790	 8.8070
 2.1800	 8.8260
 2.1810	 8.8440
 2.1820	 8.8600
 2.1830	 8.8780
 2.1840	 8.8950
 2.1850	 8.9100
 2.1860	 8.9250
 2.1870	 8.9400
 2.1880	 8.9550
 2.1890	 8.9680
 2.1900	 8.9820
 2.1910	 8.9940
 2.1920	 9.0100
 2.1930	 9.0280
 2.1940	 9.0460
 2.1950	 9.0690
 2.1960	 9.0870
 2.1970	 9.1030
 2.1980	 9.1190
 2.1990	 9.1330
 2.2000	 9.1470
 2.2010	 9.1590
 2.2020	 9.1720
 2.2030	 9.1840
 2.2040	 9.1960
 2.2050	 9.2090
 2.2060	 9.2210
 2.2070	 9.2310
 2.2080	 9.2380
 2.2090	 9.2480
 2.2100	 9.2570
 2.2110	 9.2640
 2.2120	 9.2720
 2.2130	 9.2780
 2.2140	 9.2830
 2.2150	 9.2870
 2.2160	 9.2900
 2.2170	 9.2940
 2.2180	 9.2970
 2.2190	 9.2970
 2.2200	 9.2950
 2.2210	 9.2930
 2.2220	 9.2910
 2.2230	 9.2860
 2.2240	 9.2790
 2.2250	 9.2730
 2.2260	 9.2630
 2.2270	 9.2520
 2.2280	 9.2420
 2.2290	 9.2290
 2.2300	 9.2110
 2.2310	 9.1910
 2.2320	 9.1690
 2.2330	 9.1450
 2.2340	 9.1190
 2.2350	 9.0890
 2.2360	 9.0590
 2.2370	 9.0260
 2.2380	 8.9920
 2.2390	 8.9590
 2.2400	 8.9200
 2.2410	 8.8780
 2.2420	 8.8370
 2.2430	 8.7930
 2.2440	 8.7500
 2.2450	 8.7080
 2.2460	 8.6630
 2.2470	 8.6130
 2.2480	 8.5670
 2.2490	 8.5210
 2.2500	 8.4740
 2.2510	 8.4260
 2.2520	 8.3770
 2.2530	 8.3240
 2.2540	 8.2730
 2.2550	 8.2230
 2.2560	 8.1730
 2.2570	 8.1210
 2.2580	 8.0710
 2.2590	 8.0220
 2.2600	 7.9730
 2.2610	 7.9270
 2.2620	 7.8790
 2.2630	 7.8370
 2.2640	 7.7950
 2.2650	 7.7510
 2.2660	 7.7130
 2.2670	 7.6720
 2.2680	 7.6260
 2.2690	 7.5870
 2.2700	 7.5530
 2.2710	 7.5160
 2.2720	 7.4810
 2.2730	 7.4460
 2.2740	 7.4080
 2.2750	 7.3730
 2.2760	 7.3390
 2.2770	 7.3050
 2.2780	 7.2710
 2.2790	 7.2370
 2.2800	 7.2060
 2.2810	 7.1710
 2.2820	 7.1340
 2.2830	 7.1000
 2.2840	 7.0650
 2.2850	 7.0330
 2.2860	 7.0070
 2.2870	 6.9760
 2.2880	 6.9460
 2.2890	 6.9140
 2.2900	 6.8780
 2.2910	 6.8450
 2.2920	 6.8150
 2.2930	 6.7820
 2.2940	 6.7500
 2.2950	 6.7160
 2.2960	 6.6780
 2.2970	 6.6420
 2.2980	 6.6070
 2.2990	 6.5740
 2.3000	 6.5430
 2.3010	 6.5180
 2.3020	 6.4950
 2.3030	 6.4730
 2.3040	 6.4520
 2.3050	 6.4300
 2.3060	 6.4030
 2.3070	 6.3810
 2.3080	 6.3680
 2.3090	 6.3540
 2.3100	 6.3500
 2.3110	 6.3530
 2.3120	 6.3500
 2.3130	 6.3440
 2.3140	 6.3410
 2.3150	 6.3370
 2.3160	 6.3340
 2.3170	 6.3360
 2.3180	 6.3300
 2.3190	 6.3190
 2.3200	 6.3120
 2.3210	 6.3030
 2.3220	 6.2960
 2.3230	 6.2950
 2.3240	 6.2870
 2.3250	 6.2730
 2.3260	 6.2620
 2.3270	 6.2510
 2.3280	 6.2370
 2.3290	 6.2230
 2.3300	 6.2040
 2.3310	 6.1800
 2.3320	 6.1580
 2.3330	 6.1310
 2.3340	 6.1080
 2.3350	 6.0830
 2.3360	 6.0630
 2.3370	 6.0500
 2.3380	 6.0310
 2.3390	 6.0150
 2.3400	 5.9970
 2.3410	 5.9750
 2.3420	 5.9530
 2.3430	 5.9310
 2.3440	 5.9090
 2.3450	 5.8850
 2.3460	 5.8650
 2.3470	 5.8500
 2.3480	 5.8330
 2.3490	 5.8150
 2.3500	 5.7990
 2.3510	 5.7780
 2.3520	 5.7650
 2.3530	 5.7540
 2.3540	 5.7530
 2.3550	 5.7570
 2.3560	 5.7560
 2.3570	 5.7500
 2.3580	 5.7410
 2.3590	 5.7280
 2.3600	 5.7150
 2.3610	 5.7040
 2.3620	 5.6890
 2.3630	 5.6700
 2.3640	 5.6510
 2.3650	 5.6320
 2.3660	 5.6170
 2.3670	 5.6060
 2.3680	 5.5890
 2.3690	 5.5680
 2.3700	 5.5510
 2.3710	 5.5390
 2.3720	 5.5240
 2.3730	 5.5110
 2.3740	 5.4950
 2.3750	 5.4720
 2.3760	 5.4540
 2.3770	 5.4380
 2.3780	 5.4290
 2.3790	 5.4190
 2.3800	 5.4050
 2.3810	 5.3910
 2.3820	 5.3760
 2.3830	 5.3530
 2.3840	 5.3330
 2.3850	 5.3210
 2.3860	 5.3020
 2.3870	 5.2810
 2.3880	 5.2620
 2.3890	 5.2440
 2.3900	 5.2290
 2.3910	 5.2180
 2.3920	 5.2040
 2.3930	 5.1780
 2.3940	 5.1540
 2.3950	 5.1290
 2.3960	 5.1140
 2.3970	 5.1040
 2.3980	 5.0820
 2.3990	 5.0600
 2.4000	 5.0370
 2.4010	 5.0140
 2.4020	 5.0030
 2.4030	 4.9930
 2.4040	 4.9790
 2.4050	 4.9650
 2.4060	 4.9510
 2.4070	 4.9300
 2.4080	 4.9120
 2.4090	 4.8960
 2.4100	 4.8660
 2.4110	 4.8340
 2.4120	 4.7990
 2.4130	 4.7550
 2.4140	 4.7210
 2.4150	 4.7060
 2.4160	 4.6940
 2.4170	 4.6860
 2.4180	 4.6740
 2.4190	 4.6550
 2.4200	 4.6390
 2.4210	 4.6280
 2.4220	 4.6230
 2.4230	 4.6080
 2.4240	 4.5870
 2.4250	 4.5680
 2.4260	 4.5350
 2.4270	 4.5030
 2.4280	 4.4770
 2.4290	 4.4290
 2.4300	 4.3860
 2.4310	 4.3680
 2.4320	 4.3480
 2.4330	 4.3420
 2.4340	 4.3480
 2.4350	 4.3340
 2.4360	 4.3080
 2.4370	 4.2800
 2.4380	 4.2610
 2.4390	 4.2430
 2.4400	 4.2180
 2.4410	 4.2060
 2.4420	 4.1760
 2.4430	 4.1370
 2.4440	 4.1220
 2.4450	 4.0920
 2.4460	 4.0610
 2.4470	 4.0420
 2.4480	 4.0080
 2.4490	 3.9870
 2.4500	 3.9690
 2.4510	 3.9420
 2.4520	 3.9330
 2.4530	 3.9370
 2.4540	 3.9300
 2.4550	 3.9110
 2.4560	 3.8980
 2.4570	 3.8650
 2.4580	 3.8340
 2.4590	 3.8370
 2.4600	 3.8100
 2.4610	 3.7700
 2.4620	 3.7460
 2.4630	 3.7070
 2.4640	 3.6890
 2.4650	 3.6930
 2.4660	 3.6910
 2.4670	 3.6880
 2.4680	 3.6870
 2.4690	 3.6800
 2.4700	 3.6620
 2.4710	 3.6300
 2.4720	 3.6080
 2.4730	 3.5800
 2.4740	 3.5660
 2.4750	 3.5770
 2.4760	 3.5810
 2.4770	 3.5840
 2.4780	 3.5810
 2.4790	 3.5700
 2.4800	 3.5590
 2.4810	 3.5400
 2.4820	 3.5210
 2.4830	 3.5170
 2.4840	 3.5260
 2.4850	 3.5510
 2.4860	 3.5740
 2.4870	 3.5800
 2.4880	 3.5670
 2.4890	 3.5680
 2.4900	 3.5690
 2.4910	 3.5710
 2.4920	 3.5600
 2.4930	 3.5010
 2.4940	 3.4690
 2.4950	 3.4490
 2.4960	 3.4160
 2.4970	 3.4240
 2.4980	 3.3830
 2.4990	 3.3430
 2.5000	 3.3900
