Name: Heteromeles arbutifolia 2
Type: vegetation
Class: Shrub
Genus: Heteromeles
Species: arbutifolia
Sample No.: VH207
Owner: UCSB
Wavelength Range: VSWIR
Origin: 34.4907; -119.7912; WGS84
Collection Date: 10/13/2013
Description: Samples were collected as part of the HyspIRI Airborne Campaign. 48 individual plants were sampled in three times in 2013 - spring  summer  and fall. The name of the sample includes a 1  2  or 3 which references a different individual of the species. Samples were taken to JPL and processed within 48 hours of collection. The same leaves were processed in the Nicolet and then measured using the ASD.
Measurement: Bidirectional reflectance
First Column: X
Second Column: Y
X Units: Wavelength (micrometers)
Y Units: Reflectance (percentage)
First X Value: 0.35
Last X Value: 2.5
Number of X Values: 2151
Additional Information: vegetation.shrub.heteromeles.arbutifolia.vswir.vh207.ucsb.asd.ancillary.txt

 0.3500	17.3340
 0.3510	17.2580
 0.3520	17.1770
 0.3530	17.1040
 0.3540	17.0540
 0.3550	17.0190
 0.3560	16.9760
 0.3570	16.9580
 0.3580	17.0050
 0.3590	16.9310
 0.3600	16.8690
 0.3610	16.8490
 0.3620	16.7040
 0.3630	16.6400
 0.3640	16.7420
 0.3650	16.9390
 0.3660	16.7390
 0.3670	16.5150
 0.3680	16.4480
 0.3690	16.5530
 0.3700	16.6800
 0.3710	16.6660
 0.3720	16.5120
 0.3730	16.5160
 0.3740	16.5860
 0.3750	16.5900
 0.3760	16.4630
 0.3770	16.4880
 0.3780	16.5490
 0.3790	16.5790
 0.3800	16.5730
 0.3810	16.5200
 0.3820	16.4760
 0.3830	16.4580
 0.3840	16.3730
 0.3850	16.3090
 0.3860	16.3070
 0.3870	16.3700
 0.3880	16.4090
 0.3890	16.3740
 0.3900	16.3120
 0.3910	16.3530
 0.3920	16.2550
 0.3930	16.1960
 0.3940	16.3000
 0.3950	16.3260
 0.3960	16.3440
 0.3970	16.3110
 0.3980	16.1780
 0.3990	16.1880
 0.4000	16.2550
 0.4010	16.2850
 0.4020	16.2060
 0.4030	16.2260
 0.4040	16.2810
 0.4050	16.2800
 0.4060	16.2880
 0.4070	16.2640
 0.4080	16.2440
 0.4090	16.3080
 0.4100	16.3680
 0.4110	16.3900
 0.4120	16.3750
 0.4130	16.3650
 0.4140	16.3570
 0.4150	16.3620
 0.4160	16.3870
 0.4170	16.3920
 0.4180	16.3890
 0.4190	16.3850
 0.4200	16.3870
 0.4210	16.4100
 0.4220	16.4280
 0.4230	16.4260
 0.4240	16.4290
 0.4250	16.4240
 0.4260	16.4210
 0.4270	16.4360
 0.4280	16.4300
 0.4290	16.4110
 0.4300	16.3910
 0.4310	16.3720
 0.4320	16.3280
 0.4330	16.2830
 0.4340	16.2610
 0.4350	16.2160
 0.4360	16.2030
 0.4370	16.2250
 0.4380	16.2450
 0.4390	16.2710
 0.4400	16.3150
 0.4410	16.3730
 0.4420	16.4030
 0.4430	16.4140
 0.4440	16.4070
 0.4450	16.3940
 0.4460	16.4120
 0.4470	16.4250
 0.4480	16.4200
 0.4490	16.4210
 0.4500	16.4310
 0.4510	16.4380
 0.4520	16.4340
 0.4530	16.4410
 0.4540	16.4520
 0.4550	16.4630
 0.4560	16.4720
 0.4570	16.4690
 0.4580	16.4590
 0.4590	16.4510
 0.4600	16.4530
 0.4610	16.4620
 0.4620	16.4640
 0.4630	16.4480
 0.4640	16.4550
 0.4650	16.4550
 0.4660	16.4430
 0.4670	16.4370
 0.4680	16.4310
 0.4690	16.4220
 0.4700	16.4130
 0.4710	16.4250
 0.4720	16.4380
 0.4730	16.4400
 0.4740	16.4240
 0.4750	16.4160
 0.4760	16.4160
 0.4770	16.4200
 0.4780	16.4320
 0.4790	16.4340
 0.4800	16.4250
 0.4810	16.4080
 0.4820	16.4100
 0.4830	16.4130
 0.4840	16.4060
 0.4850	16.3870
 0.4860	16.3740
 0.4870	16.3760
 0.4880	16.3900
 0.4890	16.3870
 0.4900	16.4090
 0.4910	16.4410
 0.4920	16.4530
 0.4930	16.4830
 0.4940	16.5140
 0.4950	16.5380
 0.4960	16.5700
 0.4970	16.6150
 0.4980	16.6590
 0.4990	16.6900
 0.5000	16.7320
 0.5010	16.7790
 0.5020	16.8330
 0.5030	16.9010
 0.5040	16.9630
 0.5050	17.0370
 0.5060	17.1340
 0.5070	17.2250
 0.5080	17.3260
 0.5090	17.4410
 0.5100	17.5710
 0.5110	17.7030
 0.5120	17.8580
 0.5130	18.0380
 0.5140	18.2130
 0.5150	18.4240
 0.5160	18.6510
 0.5170	18.8760
 0.5180	19.1190
 0.5190	19.3770
 0.5200	19.6500
 0.5210	19.9360
 0.5220	20.2230
 0.5230	20.5110
 0.5240	20.7960
 0.5250	21.0780
 0.5260	21.3520
 0.5270	21.6160
 0.5280	21.8700
 0.5290	22.1080
 0.5300	22.3250
 0.5310	22.5210
 0.5320	22.7070
 0.5330	22.8720
 0.5340	23.0190
 0.5350	23.1500
 0.5360	23.2630
 0.5370	23.3660
 0.5380	23.4530
 0.5390	23.5110
 0.5400	23.5440
 0.5410	23.5560
 0.5420	23.5600
 0.5430	23.5680
 0.5440	23.5900
 0.5450	23.6310
 0.5460	23.7000
 0.5470	23.8310
 0.5480	23.9610
 0.5490	24.0500
 0.5500	24.1010
 0.5510	24.1260
 0.5520	24.1400
 0.5530	24.1500
 0.5540	24.1380
 0.5550	24.1100
 0.5560	24.0660
 0.5570	23.9980
 0.5580	23.9040
 0.5590	23.7910
 0.5600	23.6670
 0.5610	23.5210
 0.5620	23.3580
 0.5630	23.1850
 0.5640	23.0040
 0.5650	22.8060
 0.5660	22.5970
 0.5670	22.3840
 0.5680	22.1780
 0.5690	21.9740
 0.5700	21.7740
 0.5710	21.5810
 0.5720	21.3910
 0.5730	21.2200
 0.5740	21.0730
 0.5750	20.9430
 0.5760	20.8000
 0.5770	20.6670
 0.5780	20.5550
 0.5790	20.4430
 0.5800	20.3450
 0.5810	20.2550
 0.5820	20.1590
 0.5830	20.0700
 0.5840	19.9920
 0.5850	19.9200
 0.5860	19.8320
 0.5870	19.7380
 0.5880	19.6540
 0.5890	19.5910
 0.5900	19.5410
 0.5910	19.4950
 0.5920	19.4520
 0.5930	19.4140
 0.5940	19.3880
 0.5950	19.3700
 0.5960	19.3510
 0.5970	19.3180
 0.5980	19.2890
 0.5990	19.2590
 0.6000	19.2160
 0.6010	19.1780
 0.6020	19.1370
 0.6030	19.0910
 0.6040	19.0410
 0.6050	18.9800
 0.6060	18.9150
 0.6070	18.8470
 0.6080	18.7610
 0.6090	18.6520
 0.6100	18.5040
 0.6110	18.3230
 0.6120	18.2570
 0.6130	18.2530
 0.6140	18.2520
 0.6150	18.2090
 0.6160	18.1640
 0.6170	18.1200
 0.6180	18.0720
 0.6190	18.0280
 0.6200	17.9800
 0.6210	17.9370
 0.6220	17.9140
 0.6230	17.8930
 0.6240	17.8730
 0.6250	17.8550
 0.6260	17.8420
 0.6270	17.8300
 0.6280	17.8180
 0.6290	17.8040
 0.6300	17.7890
 0.6310	17.7780
 0.6320	17.7740
 0.6330	17.7740
 0.6340	17.7610
 0.6350	17.7350
 0.6360	17.7010
 0.6370	17.6570
 0.6380	17.6080
 0.6390	17.5520
 0.6400	17.4850
 0.6410	17.4160
 0.6420	17.3490
 0.6430	17.2820
 0.6440	17.2040
 0.6450	17.1370
 0.6460	17.0780
 0.6470	17.0220
 0.6480	16.9600
 0.6490	16.9100
 0.6500	16.8710
 0.6510	16.8300
 0.6520	16.8050
 0.6530	16.7850
 0.6540	16.7620
 0.6550	16.7380
 0.6560	16.7110
 0.6570	16.6820
 0.6580	16.6520
 0.6590	16.6160
 0.6600	16.5800
 0.6610	16.5490
 0.6620	16.5220
 0.6630	16.4950
 0.6640	16.4710
 0.6650	16.4530
 0.6660	16.4370
 0.6670	16.4290
 0.6680	16.4270
 0.6690	16.4270
 0.6700	16.4300
 0.6710	16.4390
 0.6720	16.4560
 0.6730	16.4710
 0.6740	16.4930
 0.6750	16.5190
 0.6760	16.5460
 0.6770	16.5750
 0.6780	16.6110
 0.6790	16.6510
 0.6800	16.6910
 0.6810	16.7400
 0.6820	16.7950
 0.6830	16.8540
 0.6840	16.9170
 0.6850	16.9940
 0.6860	17.0840
 0.6870	17.1860
 0.6880	17.3170
 0.6890	17.4800
 0.6900	17.6830
 0.6910	17.9330
 0.6920	18.2380
 0.6930	18.6140
 0.6940	19.0750
 0.6950	19.6210
 0.6960	20.2610
 0.6970	20.9930
 0.6980	21.8150
 0.6990	22.7440
 0.7000	23.7590
 0.7010	24.8440
 0.7020	25.9910
 0.7030	27.2050
 0.7040	28.4560
 0.7050	29.7270
 0.7060	31.0340
 0.7070	32.3530
 0.7080	33.6820
 0.7090	35.0280
 0.7100	36.3770
 0.7110	37.7150
 0.7120	39.0410
 0.7130	40.3680
 0.7140	41.6820
 0.7150	42.9710
 0.7160	44.2330
 0.7170	45.4730
 0.7180	46.6940
 0.7190	47.8820
 0.7200	49.0270
 0.7210	50.1450
 0.7220	51.2260
 0.7230	52.2710
 0.7240	53.2950
 0.7250	54.2710
 0.7260	55.1870
 0.7270	56.0510
 0.7280	56.9160
 0.7290	57.7140
 0.7300	58.4480
 0.7310	59.1520
 0.7320	59.8240
 0.7330	60.4580
 0.7340	61.0520
 0.7350	61.6130
 0.7360	62.1300
 0.7370	62.6200
 0.7380	63.0870
 0.7390	63.4860
 0.7400	63.8900
 0.7410	64.2820
 0.7420	64.6200
 0.7430	64.9390
 0.7440	65.2220
 0.7450	65.4790
 0.7460	65.7380
 0.7470	65.9650
 0.7480	66.1660
 0.7490	66.3520
 0.7500	66.5270
 0.7510	66.6710
 0.7520	66.8010
 0.7530	66.9400
 0.7540	67.0750
 0.7550	67.1690
 0.7560	67.2350
 0.7570	67.3260
 0.7580	67.3960
 0.7590	67.4580
 0.7600	67.5200
 0.7610	67.5620
 0.7620	67.6030
 0.7630	67.6470
 0.7640	67.6890
 0.7650	67.7130
 0.7660	67.7360
 0.7670	67.7590
 0.7680	67.7740
 0.7690	67.7970
 0.7700	67.8120
 0.7710	67.8160
 0.7720	67.8220
 0.7730	67.8240
 0.7740	67.8330
 0.7750	67.8540
 0.7760	67.8630
 0.7770	67.8510
 0.7780	67.8420
 0.7790	67.8640
 0.7800	67.8860
 0.7810	67.8970
 0.7820	67.8960
 0.7830	67.8940
 0.7840	67.9010
 0.7850	67.9070
 0.7860	67.9090
 0.7870	67.9210
 0.7880	67.9210
 0.7890	67.9180
 0.7900	67.9240
 0.7910	67.9140
 0.7920	67.9170
 0.7930	67.9320
 0.7940	67.9440
 0.7950	67.9580
 0.7960	67.9690
 0.7970	67.9700
 0.7980	67.9500
 0.7990	67.9630
 0.8000	67.9810
 0.8010	67.9760
 0.8020	67.9940
 0.8030	68.0040
 0.8040	68.0010
 0.8050	67.9990
 0.8060	68.0240
 0.8070	68.0120
 0.8080	67.9810
 0.8090	68.0180
 0.8100	68.0260
 0.8110	68.0340
 0.8120	68.0530
 0.8130	68.0410
 0.8140	68.0400
 0.8150	68.0470
 0.8160	68.0500
 0.8170	68.0440
 0.8180	68.0610
 0.8190	68.0880
 0.8200	68.0930
 0.8210	68.0860
 0.8220	68.0890
 0.8230	68.1020
 0.8240	68.1090
 0.8250	68.1240
 0.8260	68.1310
 0.8270	68.1320
 0.8280	68.1540
 0.8290	68.1570
 0.8300	68.1460
 0.8310	68.1380
 0.8320	68.1580
 0.8330	68.1630
 0.8340	68.1550
 0.8350	68.1540
 0.8360	68.1670
 0.8370	68.1670
 0.8380	68.1700
 0.8390	68.2160
 0.8400	68.2370
 0.8410	68.2280
 0.8420	68.2110
 0.8430	68.2300
 0.8440	68.2340
 0.8450	68.2420
 0.8460	68.2700
 0.8470	68.2840
 0.8480	68.2890
 0.8490	68.2870
 0.8500	68.2840
 0.8510	68.3030
 0.8520	68.3250
 0.8530	68.3330
 0.8540	68.3250
 0.8550	68.3380
 0.8560	68.3580
 0.8570	68.3670
 0.8580	68.3570
 0.8590	68.3630
 0.8600	68.3820
 0.8610	68.3970
 0.8620	68.3890
 0.8630	68.3720
 0.8640	68.3730
 0.8650	68.3990
 0.8660	68.4100
 0.8670	68.4160
 0.8680	68.4190
 0.8690	68.4180
 0.8700	68.4030
 0.8710	68.4040
 0.8720	68.4100
 0.8730	68.3950
 0.8740	68.4230
 0.8750	68.4450
 0.8760	68.4430
 0.8770	68.4430
 0.8780	68.4430
 0.8790	68.4380
 0.8800	68.4360
 0.8810	68.4510
 0.8820	68.4380
 0.8830	68.4330
 0.8840	68.4500
 0.8850	68.4280
 0.8860	68.4210
 0.8870	68.4270
 0.8880	68.4280
 0.8890	68.4250
 0.8900	68.4340
 0.8910	68.4460
 0.8920	68.4430
 0.8930	68.4400
 0.8940	68.4320
 0.8950	68.4080
 0.8960	68.3670
 0.8970	68.4080
 0.8980	68.4190
 0.8990	68.3830
 0.9000	68.3830
 0.9010	68.3590
 0.9020	68.3350
 0.9030	68.3410
 0.9040	68.3900
 0.9050	68.4090
 0.9060	68.3950
 0.9070	68.3670
 0.9080	68.3670
 0.9090	68.3650
 0.9100	68.3600
 0.9110	68.3500
 0.9120	68.3050
 0.9130	68.3210
 0.9140	68.3570
 0.9150	68.3500
 0.9160	68.3230
 0.9170	68.2980
 0.9180	68.3000
 0.9190	68.3340
 0.9200	68.3290
 0.9210	68.3030
 0.9220	68.2750
 0.9230	68.2600
 0.9240	68.2480
 0.9250	68.2560
 0.9260	68.2730
 0.9270	68.2640
 0.9280	68.2070
 0.9290	68.1650
 0.9300	68.1460
 0.9310	68.1060
 0.9320	68.0900
 0.9330	68.0860
 0.9340	68.0820
 0.9350	68.0770
 0.9360	68.0510
 0.9370	68.0020
 0.9380	67.9500
 0.9390	67.9270
 0.9400	67.8950
 0.9410	67.8660
 0.9420	67.8420
 0.9430	67.7920
 0.9440	67.7390
 0.9450	67.7050
 0.9460	67.6910
 0.9470	67.6800
 0.9480	67.6460
 0.9490	67.5860
 0.9500	67.5110
 0.9510	67.4340
 0.9520	67.3530
 0.9530	67.2670
 0.9540	67.1790
 0.9550	67.0900
 0.9560	67.0370
 0.9570	67.0010
 0.9580	66.9500
 0.9590	66.8940
 0.9600	66.8310
 0.9610	66.7740
 0.9620	66.7320
 0.9630	66.6940
 0.9640	66.6380
 0.9650	66.6100
 0.9660	66.6420
 0.9670	66.5940
 0.9680	66.5440
 0.9690	66.5350
 0.9700	66.5670
 0.9710	66.5660
 0.9720	66.5580
 0.9730	66.5410
 0.9740	66.5130
 0.9750	66.5330
 0.9760	66.5030
 0.9770	66.4640
 0.9780	66.5020
 0.9790	66.5500
 0.9800	66.5860
 0.9810	66.5760
 0.9820	66.5220
 0.9830	66.5840
 0.9840	66.6010
 0.9850	66.5870
 0.9860	66.6300
 0.9870	66.6870
 0.9880	66.7300
 0.9890	66.7410
 0.9900	66.7280
 0.9910	66.7640
 0.9920	66.8420
 0.9930	66.9200
 0.9940	66.9980
 0.9950	67.0770
 0.9960	67.1550
 0.9970	67.2330
 0.9980	67.3110
 0.9990	67.3890
 1.0000	67.4670
 1.0010	67.5450
 1.0020	67.6230
 1.0030	67.7010
 1.0040	67.7800
 1.0050	67.8580
 1.0060	67.9360
 1.0070	68.0140
 1.0080	68.0920
 1.0090	68.1700
 1.0100	68.1700
 1.0110	68.1800
 1.0120	68.2040
 1.0130	68.2400
 1.0140	68.2670
 1.0150	68.2980
 1.0160	68.3150
 1.0170	68.3260
 1.0180	68.3520
 1.0190	68.3910
 1.0200	68.4310
 1.0210	68.4670
 1.0220	68.4950
 1.0230	68.5230
 1.0240	68.5410
 1.0250	68.5700
 1.0260	68.6100
 1.0270	68.6380
 1.0280	68.6700
 1.0290	68.6890
 1.0300	68.6830
 1.0310	68.6980
 1.0320	68.7210
 1.0330	68.7390
 1.0340	68.7580
 1.0350	68.8000
 1.0360	68.8200
 1.0370	68.8220
 1.0380	68.8400
 1.0390	68.8610
 1.0400	68.8780
 1.0410	68.8990
 1.0420	68.9190
 1.0430	68.9390
 1.0440	68.9500
 1.0450	68.9600
 1.0460	68.9660
 1.0470	68.9550
 1.0480	68.9560
 1.0490	68.9610
 1.0500	68.9680
 1.0510	68.9770
 1.0520	68.9960
 1.0530	69.0060
 1.0540	69.0190
 1.0550	69.0270
 1.0560	69.0290
 1.0570	69.0350
 1.0580	69.0430
 1.0590	69.0470
 1.0600	69.0500
 1.0610	69.0520
 1.0620	69.0470
 1.0630	69.0480
 1.0640	69.0500
 1.0650	69.0510
 1.0660	69.0540
 1.0670	69.0550
 1.0680	69.0560
 1.0690	69.0570
 1.0700	69.0530
 1.0710	69.0490
 1.0720	69.0390
 1.0730	69.0190
 1.0740	69.0090
 1.0750	68.9980
 1.0760	68.9930
 1.0770	68.9990
 1.0780	68.9940
 1.0790	68.9840
 1.0800	68.9750
 1.0810	68.9610
 1.0820	68.9490
 1.0830	68.9380
 1.0840	68.9300
 1.0850	68.9220
 1.0860	68.9170
 1.0870	68.9140
 1.0880	68.9190
 1.0890	68.9100
 1.0900	68.8910
 1.0910	68.8880
 1.0920	68.8900
 1.0930	68.8820
 1.0940	68.8810
 1.0950	68.8740
 1.0960	68.8510
 1.0970	68.8350
 1.0980	68.8310
 1.0990	68.8150
 1.1000	68.7840
 1.1010	68.7620
 1.1020	68.7410
 1.1030	68.7170
 1.1040	68.7050
 1.1050	68.6950
 1.1060	68.6880
 1.1070	68.6900
 1.1080	68.6790
 1.1090	68.6680
 1.1100	68.6540
 1.1110	68.6290
 1.1120	68.6130
 1.1130	68.6040
 1.1140	68.5900
 1.1150	68.5810
 1.1160	68.5610
 1.1170	68.5430
 1.1180	68.5110
 1.1190	68.4650
 1.1200	68.4200
 1.1210	68.3690
 1.1220	68.3170
 1.1230	68.2750
 1.1240	68.2270
 1.1250	68.1730
 1.1260	68.1200
 1.1270	68.0560
 1.1280	67.9830
 1.1290	67.9040
 1.1300	67.8200
 1.1310	67.7260
 1.1320	67.6240
 1.1330	67.5150
 1.1340	67.3980
 1.1350	67.2720
 1.1360	67.1360
 1.1370	66.9900
 1.1380	66.8450
 1.1390	66.6940
 1.1400	66.5380
 1.1410	66.3850
 1.1420	66.2240
 1.1430	66.0610
 1.1440	65.8980
 1.1450	65.7280
 1.1460	65.5670
 1.1470	65.4050
 1.1480	65.2510
 1.1490	65.1000
 1.1500	64.9610
 1.1510	64.8250
 1.1520	64.7020
 1.1530	64.5920
 1.1540	64.4880
 1.1550	64.3950
 1.1560	64.3040
 1.1570	64.2200
 1.1580	64.1540
 1.1590	64.0940
 1.1600	64.0420
 1.1610	64.0020
 1.1620	63.9600
 1.1630	63.9260
 1.1640	63.9020
 1.1650	63.8800
 1.1660	63.8640
 1.1670	63.8490
 1.1680	63.8370
 1.1690	63.8260
 1.1700	63.8220
 1.1710	63.8120
 1.1720	63.7980
 1.1730	63.7890
 1.1740	63.7790
 1.1750	63.7690
 1.1760	63.7680
 1.1770	63.7660
 1.1780	63.7560
 1.1790	63.7460
 1.1800	63.7300
 1.1810	63.7060
 1.1820	63.6830
 1.1830	63.6610
 1.1840	63.6400
 1.1850	63.6210
 1.1860	63.6100
 1.1870	63.6090
 1.1880	63.6020
 1.1890	63.5960
 1.1900	63.5900
 1.1910	63.5800
 1.1920	63.5710
 1.1930	63.5630
 1.1940	63.5600
 1.1950	63.5580
 1.1960	63.5550
 1.1970	63.5580
 1.1980	63.5610
 1.1990	63.5660
 1.2000	63.5710
 1.2010	63.5790
 1.2020	63.5900
 1.2030	63.6070
 1.2040	63.6300
 1.2050	63.6510
 1.2060	63.6740
 1.2070	63.6920
 1.2080	63.7120
 1.2090	63.7410
 1.2100	63.7740
 1.2110	63.8070
 1.2120	63.8440
 1.2130	63.8820
 1.2140	63.9250
 1.2150	63.9650
 1.2160	64.0020
 1.2170	64.0460
 1.2180	64.0850
 1.2190	64.1150
 1.2200	64.1480
 1.2210	64.1830
 1.2220	64.2180
 1.2230	64.2490
 1.2240	64.2780
 1.2250	64.3130
 1.2260	64.3450
 1.2270	64.3790
 1.2280	64.4170
 1.2290	64.4490
 1.2300	64.4840
 1.2310	64.5240
 1.2320	64.5550
 1.2330	64.5860
 1.2340	64.6230
 1.2350	64.6640
 1.2360	64.6990
 1.2370	64.7370
 1.2380	64.7730
 1.2390	64.8010
 1.2400	64.8200
 1.2410	64.8460
 1.2420	64.8760
 1.2430	64.8990
 1.2440	64.9240
 1.2450	64.9490
 1.2460	64.9670
 1.2470	64.9820
 1.2480	64.9920
 1.2490	65.0070
 1.2500	65.0240
 1.2510	65.0430
 1.2520	65.0700
 1.2530	65.0840
 1.2540	65.0890
 1.2550	65.0990
 1.2560	65.1030
 1.2570	65.1070
 1.2580	65.1190
 1.2590	65.1300
 1.2600	65.1440
 1.2610	65.1520
 1.2620	65.1630
 1.2630	65.1670
 1.2640	65.1600
 1.2650	65.1680
 1.2660	65.1770
 1.2670	65.1710
 1.2680	65.1730
 1.2690	65.1650
 1.2700	65.1510
 1.2710	65.1500
 1.2720	65.1460
 1.2730	65.1350
 1.2740	65.1210
 1.2750	65.1010
 1.2760	65.0830
 1.2770	65.0690
 1.2780	65.0520
 1.2790	65.0300
 1.2800	65.0110
 1.2810	64.9910
 1.2820	64.9680
 1.2830	64.9470
 1.2840	64.9220
 1.2850	64.8880
 1.2860	64.8610
 1.2870	64.8290
 1.2880	64.7920
 1.2890	64.7560
 1.2900	64.7200
 1.2910	64.6670
 1.2920	64.6190
 1.2930	64.5730
 1.2940	64.5200
 1.2950	64.4820
 1.2960	64.4400
 1.2970	64.3920
 1.2980	64.3450
 1.2990	64.2850
 1.3000	64.2180
 1.3010	64.1500
 1.3020	64.0790
 1.3030	64.0030
 1.3040	63.9290
 1.3050	63.8570
 1.3060	63.7820
 1.3070	63.7040
 1.3080	63.6160
 1.3090	63.5240
 1.3100	63.4270
 1.3110	63.3260
 1.3120	63.2270
 1.3130	63.1280
 1.3140	63.0240
 1.3150	62.9180
 1.3160	62.8080
 1.3170	62.6950
 1.3180	62.5750
 1.3190	62.4540
 1.3200	62.3290
 1.3210	62.1980
 1.3220	62.0650
 1.3230	61.9260
 1.3240	61.7840
 1.3250	61.6440
 1.3260	61.4990
 1.3270	61.3480
 1.3280	61.1990
 1.3290	61.0430
 1.3300	60.8870
 1.3310	60.7360
 1.3320	60.5770
 1.3330	60.4220
 1.3340	60.2650
 1.3350	60.1040
 1.3360	59.9430
 1.3370	59.7790
 1.3380	59.6090
 1.3390	59.4380
 1.3400	59.2660
 1.3410	59.0950
 1.3420	58.9290
 1.3430	58.7630
 1.3440	58.5970
 1.3450	58.4360
 1.3460	58.2790
 1.3470	58.1230
 1.3480	57.9690
 1.3490	57.8150
 1.3500	57.6630
 1.3510	57.5070
 1.3520	57.3500
 1.3530	57.1990
 1.3540	57.0500
 1.3550	56.9000
 1.3560	56.7500
 1.3570	56.6000
 1.3580	56.4440
 1.3590	56.2820
 1.3600	56.1180
 1.3610	55.9480
 1.3620	55.7760
 1.3630	55.6010
 1.3640	55.4130
 1.3650	55.2160
 1.3660	55.0100
 1.3670	54.7840
 1.3680	54.5420
 1.3690	54.2900
 1.3700	54.0230
 1.3710	53.7420
 1.3720	53.4490
 1.3730	53.1330
 1.3740	52.7940
 1.3750	52.4350
 1.3760	52.0510
 1.3770	51.6380
 1.3780	51.2000
 1.3790	50.7450
 1.3800	50.2660
 1.3810	49.7600
 1.3820	49.2300
 1.3830	48.6760
 1.3840	48.0960
 1.3850	47.4870
 1.3860	46.8670
 1.3870	46.2220
 1.3880	45.5720
 1.3890	44.9080
 1.3900	44.2300
 1.3910	43.5530
 1.3920	42.8690
 1.3930	42.1830
 1.3940	41.5020
 1.3950	40.8160
 1.3960	40.1420
 1.3970	39.4850
 1.3980	38.8380
 1.3990	38.2180
 1.4000	37.6160
 1.4010	37.0280
 1.4020	36.4690
 1.4030	35.9310
 1.4040	35.4190
 1.4050	34.9390
 1.4060	34.4790
 1.4070	34.0520
 1.4080	33.6520
 1.4090	33.2750
 1.4100	32.9250
 1.4110	32.5940
 1.4120	32.2870
 1.4130	32.0060
 1.4140	31.7480
 1.4150	31.5160
 1.4160	31.3040
 1.4170	31.1100
 1.4180	30.9360
 1.4190	30.7780
 1.4200	30.6330
 1.4210	30.5030
 1.4220	30.3860
 1.4230	30.2800
 1.4240	30.1900
 1.4250	30.1080
 1.4260	30.0390
 1.4270	29.9750
 1.4280	29.9200
 1.4290	29.8730
 1.4300	29.8340
 1.4310	29.8000
 1.4320	29.7740
 1.4330	29.7550
 1.4340	29.7420
 1.4350	29.7340
 1.4360	29.7330
 1.4370	29.7360
 1.4380	29.7430
 1.4390	29.7560
 1.4400	29.7700
 1.4410	29.7880
 1.4420	29.8110
 1.4430	29.8320
 1.4440	29.8620
 1.4450	29.8940
 1.4460	29.9210
 1.4470	29.9580
 1.4480	29.9930
 1.4490	30.0280
 1.4500	30.0680
 1.4510	30.1020
 1.4520	30.1370
 1.4530	30.1750
 1.4540	30.2120
 1.4550	30.2530
 1.4560	30.2950
 1.4570	30.3400
 1.4580	30.3910
 1.4590	30.4460
 1.4600	30.5070
 1.4610	30.5710
 1.4620	30.6370
 1.4630	30.7080
 1.4640	30.7850
 1.4650	30.8700
 1.4660	30.9600
 1.4670	31.0580
 1.4680	31.1600
 1.4690	31.2660
 1.4700	31.3810
 1.4710	31.4980
 1.4720	31.6160
 1.4730	31.7410
 1.4740	31.8700
 1.4750	32.0020
 1.4760	32.1420
 1.4770	32.2820
 1.4780	32.4210
 1.4790	32.5640
 1.4800	32.7060
 1.4810	32.8520
 1.4820	33.0020
 1.4830	33.1510
 1.4840	33.3040
 1.4850	33.4590
 1.4860	33.6120
 1.4870	33.7660
 1.4880	33.9200
 1.4890	34.0710
 1.4900	34.2240
 1.4910	34.3770
 1.4920	34.5300
 1.4930	34.6810
 1.4940	34.8360
 1.4950	34.9930
 1.4960	35.1510
 1.4970	35.3130
 1.4980	35.4730
 1.4990	35.6300
 1.5000	35.7900
 1.5010	35.9520
 1.5020	36.1090
 1.5030	36.2680
 1.5040	36.4240
 1.5050	36.5730
 1.5060	36.7280
 1.5070	36.8860
 1.5080	37.0400
 1.5090	37.1960
 1.5100	37.3490
 1.5110	37.5000
 1.5120	37.6500
 1.5130	37.7970
 1.5140	37.9460
 1.5150	38.0940
 1.5160	38.2390
 1.5170	38.3890
 1.5180	38.5330
 1.5190	38.6720
 1.5200	38.8090
 1.5210	38.9440
 1.5220	39.0800
 1.5230	39.2160
 1.5240	39.3530
 1.5250	39.4900
 1.5260	39.6220
 1.5270	39.7560
 1.5280	39.8900
 1.5290	40.0180
 1.5300	40.1520
 1.5310	40.2880
 1.5320	40.4200
 1.5330	40.5530
 1.5340	40.6820
 1.5350	40.8060
 1.5360	40.9320
 1.5370	41.0560
 1.5380	41.1800
 1.5390	41.3010
 1.5400	41.4200
 1.5410	41.5390
 1.5420	41.6550
 1.5430	41.7700
 1.5440	41.8860
 1.5450	42.0000
 1.5460	42.1150
 1.5470	42.2300
 1.5480	42.3440
 1.5490	42.4600
 1.5500	42.5700
 1.5510	42.6780
 1.5520	42.7850
 1.5530	42.8830
 1.5540	42.9880
 1.5550	43.0920
 1.5560	43.1910
 1.5570	43.2910
 1.5580	43.3840
 1.5590	43.4750
 1.5600	43.5720
 1.5610	43.6660
 1.5620	43.7630
 1.5630	43.8630
 1.5640	43.9590
 1.5650	44.0540
 1.5660	44.1510
 1.5670	44.2470
 1.5680	44.3430
 1.5690	44.4380
 1.5700	44.5300
 1.5710	44.6220
 1.5720	44.7100
 1.5730	44.7900
 1.5740	44.8690
 1.5750	44.9480
 1.5760	45.0280
 1.5770	45.1110
 1.5780	45.1990
 1.5790	45.2850
 1.5800	45.3700
 1.5810	45.4580
 1.5820	45.5450
 1.5830	45.6330
 1.5840	45.7220
 1.5850	45.8090
 1.5860	45.8930
 1.5870	45.9760
 1.5880	46.0580
 1.5890	46.1430
 1.5900	46.2240
 1.5910	46.3060
 1.5920	46.3880
 1.5930	46.4640
 1.5940	46.5420
 1.5950	46.6220
 1.5960	46.6940
 1.5970	46.7680
 1.5980	46.8480
 1.5990	46.9210
 1.6000	46.9980
 1.6010	47.0740
 1.6020	47.1390
 1.6030	47.2080
 1.6040	47.2790
 1.6050	47.3470
 1.6060	47.4170
 1.6070	47.4820
 1.6080	47.5480
 1.6090	47.6150
 1.6100	47.6820
 1.6110	47.7530
 1.6120	47.8200
 1.6130	47.8840
 1.6140	47.9500
 1.6150	48.0170
 1.6160	48.0800
 1.6170	48.1410
 1.6180	48.1960
 1.6190	48.2450
 1.6200	48.3010
 1.6210	48.3560
 1.6220	48.4100
 1.6230	48.4670
 1.6240	48.5200
 1.6250	48.5700
 1.6260	48.6240
 1.6270	48.6770
 1.6280	48.7290
 1.6290	48.7720
 1.6300	48.8090
 1.6310	48.8480
 1.6320	48.8800
 1.6330	48.9190
 1.6340	48.9670
 1.6350	49.0050
 1.6360	49.0370
 1.6370	49.0710
 1.6380	49.0990
 1.6390	49.1340
 1.6400	49.1780
 1.6410	49.2170
 1.6420	49.2570
 1.6430	49.2910
 1.6440	49.3210
 1.6450	49.3450
 1.6460	49.3670
 1.6470	49.3860
 1.6480	49.3910
 1.6490	49.3950
 1.6500	49.3970
 1.6510	49.4020
 1.6520	49.4080
 1.6530	49.4100
 1.6540	49.4050
 1.6550	49.3890
 1.6560	49.3690
 1.6570	49.3510
 1.6580	49.3340
 1.6590	49.3140
 1.6600	49.2920
 1.6610	49.2660
 1.6620	49.2370
 1.6630	49.2120
 1.6640	49.1890
 1.6650	49.1690
 1.6660	49.1470
 1.6670	49.1310
 1.6680	49.1210
 1.6690	49.1080
 1.6700	49.0990
 1.6710	49.0890
 1.6720	49.0770
 1.6730	49.0710
 1.6740	49.0640
 1.6750	49.0470
 1.6760	49.0320
 1.6770	49.0120
 1.6780	48.9850
 1.6790	48.9610
 1.6800	48.9310
 1.6810	48.8910
 1.6820	48.8520
 1.6830	48.8090
 1.6840	48.7640
 1.6850	48.7220
 1.6860	48.6730
 1.6870	48.6230
 1.6880	48.5710
 1.6890	48.5190
 1.6900	48.4670
 1.6910	48.4130
 1.6920	48.3620
 1.6930	48.3120
 1.6940	48.2600
 1.6950	48.2070
 1.6960	48.1570
 1.6970	48.1080
 1.6980	48.0550
 1.6990	48.0090
 1.7000	47.9540
 1.7010	47.8930
 1.7020	47.8300
 1.7030	47.7640
 1.7040	47.6950
 1.7050	47.6220
 1.7060	47.5490
 1.7070	47.4740
 1.7080	47.4020
 1.7090	47.3320
 1.7100	47.2670
 1.7110	47.2070
 1.7120	47.1470
 1.7130	47.0810
 1.7140	47.0090
 1.7150	46.9430
 1.7160	46.8740
 1.7170	46.8100
 1.7180	46.7520
 1.7190	46.6870
 1.7200	46.6290
 1.7210	46.5710
 1.7220	46.5100
 1.7230	46.4540
 1.7240	46.3910
 1.7250	46.3290
 1.7260	46.2730
 1.7270	46.2180
 1.7280	46.1680
 1.7290	46.1220
 1.7300	46.0750
 1.7310	46.0310
 1.7320	45.9950
 1.7330	45.9540
 1.7340	45.9120
 1.7350	45.8690
 1.7360	45.8240
 1.7370	45.7750
 1.7380	45.7250
 1.7390	45.6710
 1.7400	45.6090
 1.7410	45.5500
 1.7420	45.4930
 1.7430	45.4290
 1.7440	45.3620
 1.7450	45.2940
 1.7460	45.2210
 1.7470	45.1500
 1.7480	45.0800
 1.7490	45.0110
 1.7500	44.9390
 1.7510	44.8740
 1.7520	44.8150
 1.7530	44.7500
 1.7540	44.6850
 1.7550	44.6240
 1.7560	44.5670
 1.7570	44.5130
 1.7580	44.4660
 1.7590	44.4200
 1.7600	44.3700
 1.7610	44.3290
 1.7620	44.2820
 1.7630	44.2300
 1.7640	44.1790
 1.7650	44.1220
 1.7660	44.0740
 1.7670	44.0350
 1.7680	43.9920
 1.7690	43.9530
 1.7700	43.9090
 1.7710	43.8580
 1.7720	43.8150
 1.7730	43.7800
 1.7740	43.7380
 1.7750	43.6950
 1.7760	43.6540
 1.7770	43.6060
 1.7780	43.5700
 1.7790	43.5440
 1.7800	43.5160
 1.7810	43.4930
 1.7820	43.4640
 1.7830	43.4320
 1.7840	43.4080
 1.7850	43.3820
 1.7860	43.3700
 1.7870	43.3700
 1.7880	43.3740
 1.7890	43.3780
 1.7900	43.3740
 1.7910	43.3670
 1.7920	43.3480
 1.7930	43.3390
 1.7940	43.3360
 1.7950	43.3310
 1.7960	43.3310
 1.7970	43.3280
 1.7980	43.3220
 1.7990	43.3200
 1.8000	43.3220
 1.8010	43.3240
 1.8020	43.3240
 1.8030	43.3330
 1.8040	43.3470
 1.8050	43.3600
 1.8060	43.3840
 1.8070	43.3950
 1.8080	43.3950
 1.8090	43.4030
 1.8100	43.4070
 1.8110	43.4140
 1.8120	43.4330
 1.8130	43.4430
 1.8140	43.4510
 1.8150	43.4590
 1.8160	43.4560
 1.8170	43.4550
 1.8180	43.4580
 1.8190	43.4630
 1.8200	43.4690
 1.8210	43.4770
 1.8220	43.4830
 1.8230	43.4930
 1.8240	43.4930
 1.8250	43.4860
 1.8260	43.4750
 1.8270	43.4170
 1.8280	43.3580
 1.8290	43.3000
 1.8300	43.2420
 1.8310	43.1830
 1.8320	43.1250
 1.8330	43.0670
 1.8340	43.0080
 1.8350	43.0080
 1.8360	42.9610
 1.8370	42.9040
 1.8380	42.8480
 1.8390	42.7820
 1.8400	42.7050
 1.8410	42.6220
 1.8420	42.5320
 1.8430	42.4370
 1.8440	42.3330
 1.8450	42.2340
 1.8460	42.1270
 1.8470	42.0050
 1.8480	41.8700
 1.8490	41.7090
 1.8500	41.5420
 1.8510	41.3600
 1.8520	41.1700
 1.8530	40.9700
 1.8540	40.7690
 1.8550	40.5550
 1.8560	40.3210
 1.8570	40.0690
 1.8580	39.7940
 1.8590	39.5030
 1.8600	39.1920
 1.8610	38.8680
 1.8620	38.5270
 1.8630	38.1700
 1.8640	37.8020
 1.8650	37.4100
 1.8660	36.9890
 1.8670	36.5520
 1.8680	36.0980
 1.8690	35.6180
 1.8700	35.1190
 1.8710	34.6030
 1.8720	34.0800
 1.8730	33.5320
 1.8740	32.9700
 1.8750	32.4100
 1.8760	31.8300
 1.8770	31.2490
 1.8780	30.6780
 1.8790	30.1110
 1.8800	29.5460
 1.8810	28.9870
 1.8820	28.4270
 1.8830	27.8690
 1.8840	27.3140
 1.8850	26.7760
 1.8860	26.2730
 1.8870	25.7860
 1.8880	25.3210
 1.8890	24.8740
 1.8900	24.4350
 1.8910	24.0270
 1.8920	23.6390
 1.8930	23.2780
 1.8940	22.9380
 1.8950	22.6400
 1.8960	22.3560
 1.8970	22.0840
 1.8980	21.8560
 1.8990	21.6430
 1.9000	21.4480
 1.9010	21.2840
 1.9020	21.1280
 1.9030	20.9850
 1.9040	20.8580
 1.9050	20.7540
 1.9060	20.6560
 1.9070	20.5730
 1.9080	20.5020
 1.9090	20.4370
 1.9100	20.3830
 1.9110	20.3340
 1.9120	20.2950
 1.9130	20.2610
 1.9140	20.2340
 1.9150	20.2160
 1.9160	20.2030
 1.9170	20.1910
 1.9180	20.1850
 1.9190	20.1770
 1.9200	20.1730
 1.9210	20.1760
 1.9220	20.1780
 1.9230	20.1820
 1.9240	20.1860
 1.9250	20.1880
 1.9260	20.1910
 1.9270	20.2030
 1.9280	20.2060
 1.9290	20.2140
 1.9300	20.2340
 1.9310	20.2440
 1.9320	20.2610
 1.9330	20.2810
 1.9340	20.3060
 1.9350	20.3280
 1.9360	20.3470
 1.9370	20.3730
 1.9380	20.4050
 1.9390	20.4400
 1.9400	20.4720
 1.9410	20.5090
 1.9420	20.5390
 1.9430	20.5580
 1.9440	20.5830
 1.9450	20.6100
 1.9460	20.6420
 1.9470	20.6730
 1.9480	20.7130
 1.9490	20.7660
 1.9500	20.8150
 1.9510	20.8610
 1.9520	20.9130
 1.9530	20.9590
 1.9540	21.0020
 1.9550	21.0490
 1.9560	21.0990
 1.9570	21.1540
 1.9580	21.2140
 1.9590	21.2660
 1.9600	21.3200
 1.9610	21.3700
 1.9620	21.4060
 1.9630	21.4600
 1.9640	21.5270
 1.9650	21.5880
 1.9660	21.6480
 1.9670	21.7070
 1.9680	21.7660
 1.9690	21.8120
 1.9700	21.8760
 1.9710	21.9580
 1.9720	22.0280
 1.9730	22.0960
 1.9740	22.1710
 1.9750	22.2410
 1.9760	22.3090
 1.9770	22.3920
 1.9780	22.4710
 1.9790	22.5430
 1.9800	22.6120
 1.9810	22.6840
 1.9820	22.7500
 1.9830	22.8220
 1.9840	22.9010
 1.9850	22.9780
 1.9860	23.0580
 1.9870	23.1340
 1.9880	23.2010
 1.9890	23.2730
 1.9900	23.3470
 1.9910	23.4200
 1.9920	23.4980
 1.9930	23.5820
 1.9940	23.6710
 1.9950	23.7700
 1.9960	23.8550
 1.9970	23.9390
 1.9980	24.0220
 1.9990	24.0910
 2.0000	24.1630
 2.0010	24.2460
 2.0020	24.3310
 2.0030	24.4100
 2.0040	24.4890
 2.0050	24.5730
 2.0060	24.6610
 2.0070	24.7440
 2.0080	24.8280
 2.0090	24.9120
 2.0100	24.9920
 2.0110	25.0720
 2.0120	25.1550
 2.0130	25.2370
 2.0140	25.3170
 2.0150	25.3910
 2.0160	25.4590
 2.0170	25.5320
 2.0180	25.6070
 2.0190	25.6820
 2.0200	25.7590
 2.0210	25.8500
 2.0220	25.9230
 2.0230	25.9860
 2.0240	26.0540
 2.0250	26.1140
 2.0260	26.1790
 2.0270	26.2500
 2.0280	26.3190
 2.0290	26.3810
 2.0300	26.4430
 2.0310	26.5100
 2.0320	26.5740
 2.0330	26.6430
 2.0340	26.7220
 2.0350	26.7890
 2.0360	26.8540
 2.0370	26.9160
 2.0380	26.9700
 2.0390	27.0280
 2.0400	27.0930
 2.0410	27.1460
 2.0420	27.1900
 2.0430	27.2420
 2.0440	27.2860
 2.0450	27.3160
 2.0460	27.3600
 2.0470	27.4060
 2.0480	27.4560
 2.0490	27.5130
 2.0500	27.5680
 2.0510	27.6320
 2.0520	27.6840
 2.0530	27.7310
 2.0540	27.7770
 2.0550	27.8130
 2.0560	27.8530
 2.0570	27.9080
 2.0580	27.9570
 2.0590	28.0070
 2.0600	28.0630
 2.0610	28.1110
 2.0620	28.1480
 2.0630	28.1970
 2.0640	28.2470
 2.0650	28.3010
 2.0660	28.3690
 2.0670	28.4210
 2.0680	28.4660
 2.0690	28.5140
 2.0700	28.5500
 2.0710	28.5950
 2.0720	28.6480
 2.0730	28.7000
 2.0740	28.7470
 2.0750	28.7910
 2.0760	28.8340
 2.0770	28.8740
 2.0780	28.9140
 2.0790	28.9510
 2.0800	28.9960
 2.0810	29.0410
 2.0820	29.0920
 2.0830	29.1560
 2.0840	29.2110
 2.0850	29.2660
 2.0860	29.3160
 2.0870	29.3600
 2.0880	29.4030
 2.0890	29.4530
 2.0900	29.5050
 2.0910	29.5540
 2.0920	29.6030
 2.0930	29.6600
 2.0940	29.7230
 2.0950	29.7780
 2.0960	29.8450
 2.0970	29.8970
 2.0980	29.9330
 2.0990	29.9730
 2.1000	30.0070
 2.1010	30.0480
 2.1020	30.0920
 2.1030	30.1370
 2.1040	30.1860
 2.1050	30.2360
 2.1060	30.2850
 2.1070	30.3370
 2.1080	30.3830
 2.1090	30.4270
 2.1100	30.4730
 2.1110	30.5180
 2.1120	30.5630
 2.1130	30.6070
 2.1140	30.6560
 2.1150	30.7100
 2.1160	30.7550
 2.1170	30.7960
 2.1180	30.8440
 2.1190	30.8860
 2.1200	30.9310
 2.1210	30.9800
 2.1220	31.0380
 2.1230	31.0870
 2.1240	31.1300
 2.1250	31.1790
 2.1260	31.2330
 2.1270	31.2750
 2.1280	31.3110
 2.1290	31.3470
 2.1300	31.3740
 2.1310	31.4070
 2.1320	31.4470
 2.1330	31.4760
 2.1340	31.4890
 2.1350	31.5190
 2.1360	31.5540
 2.1370	31.5870
 2.1380	31.6250
 2.1390	31.6680
 2.1400	31.7130
 2.1410	31.7550
 2.1420	31.8020
 2.1430	31.8620
 2.1440	31.9070
 2.1450	31.9490
 2.1460	31.9850
 2.1470	32.0210
 2.1480	32.0430
 2.1490	32.0470
 2.1500	32.0630
 2.1510	32.0740
 2.1520	32.0860
 2.1530	32.0990
 2.1540	32.1170
 2.1550	32.1280
 2.1560	32.1520
 2.1570	32.1960
 2.1580	32.2270
 2.1590	32.2550
 2.1600	32.2800
 2.1610	32.3010
 2.1620	32.3280
 2.1630	32.3650
 2.1640	32.4170
 2.1650	32.4560
 2.1660	32.4990
 2.1670	32.5360
 2.1680	32.5670
 2.1690	32.5960
 2.1700	32.6340
 2.1710	32.6490
 2.1720	32.6400
 2.1730	32.6460
 2.1740	32.6310
 2.1750	32.6450
 2.1760	32.6950
 2.1770	32.7210
 2.1780	32.7520
 2.1790	32.7710
 2.1800	32.7580
 2.1810	32.7670
 2.1820	32.7830
 2.1830	32.8070
 2.1840	32.8370
 2.1850	32.8830
 2.1860	32.9220
 2.1870	32.9640
 2.1880	32.9980
 2.1890	33.0240
 2.1900	33.0610
 2.1910	33.1050
 2.1920	33.1360
 2.1930	33.1700
 2.1940	33.1970
 2.1950	33.2040
 2.1960	33.2190
 2.1970	33.2410
 2.1980	33.2540
 2.1990	33.2620
 2.2000	33.2650
 2.2010	33.2510
 2.2020	33.2540
 2.2030	33.2630
 2.2040	33.2720
 2.2050	33.2900
 2.2060	33.3070
 2.2070	33.3350
 2.2080	33.3600
 2.2090	33.3970
 2.2100	33.4570
 2.2110	33.4870
 2.2120	33.5080
 2.2130	33.5250
 2.2140	33.5240
 2.2150	33.5370
 2.2160	33.5580
 2.2170	33.5660
 2.2180	33.5700
 2.2190	33.5700
 2.2200	33.5570
 2.2210	33.5530
 2.2220	33.5580
 2.2230	33.5550
 2.2240	33.5560
 2.2250	33.5450
 2.2260	33.5200
 2.2270	33.4980
 2.2280	33.4690
 2.2290	33.4420
 2.2300	33.4080
 2.2310	33.3880
 2.2320	33.3690
 2.2330	33.3340
 2.2340	33.2960
 2.2350	33.2500
 2.2360	33.2170
 2.2370	33.1810
 2.2380	33.1470
 2.2390	33.1320
 2.2400	33.0930
 2.2410	33.0410
 2.2420	32.9860
 2.2430	32.9210
 2.2440	32.8620
 2.2450	32.8040
 2.2460	32.7420
 2.2470	32.6870
 2.2480	32.6180
 2.2490	32.5270
 2.2500	32.4560
 2.2510	32.3930
 2.2520	32.3220
 2.2530	32.2530
 2.2540	32.1860
 2.2550	32.1100
 2.2560	32.0380
 2.2570	31.9900
 2.2580	31.9160
 2.2590	31.8160
 2.2600	31.7310
 2.2610	31.6480
 2.2620	31.5460
 2.2630	31.4650
 2.2640	31.3980
 2.2650	31.3230
 2.2660	31.2570
 2.2670	31.1890
 2.2680	31.1310
 2.2690	31.0580
 2.2700	30.9820
 2.2710	30.9000
 2.2720	30.8030
 2.2730	30.7260
 2.2740	30.6500
 2.2750	30.5840
 2.2760	30.5410
 2.2770	30.4780
 2.2780	30.4050
 2.2790	30.3460
 2.2800	30.2830
 2.2810	30.2290
 2.2820	30.1900
 2.2830	30.1440
 2.2840	30.1010
 2.2850	30.0550
 2.2860	30.0070
 2.2870	29.9600
 2.2880	29.9070
 2.2890	29.8500
 2.2900	29.7860
 2.2910	29.7280
 2.2920	29.6670
 2.2930	29.6150
 2.2940	29.5660
 2.2950	29.5260
 2.2960	29.4990
 2.2970	29.4640
 2.2980	29.4330
 2.2990	29.4060
 2.3000	29.3640
 2.3010	29.3210
 2.3020	29.2750
 2.3030	29.2280
 2.3040	29.1950
 2.3050	29.1720
 2.3060	29.1440
 2.3070	29.1220
 2.3080	29.0990
 2.3090	29.0640
 2.3100	29.0500
 2.3110	29.0460
 2.3120	29.0410
 2.3130	29.0480
 2.3140	29.0410
 2.3150	29.0270
 2.3160	29.0150
 2.3170	29.0040
 2.3180	28.9810
 2.3190	28.9510
 2.3200	28.9320
 2.3210	28.9030
 2.3220	28.8790
 2.3230	28.8770
 2.3240	28.8520
 2.3250	28.8190
 2.3260	28.7730
 2.3270	28.7070
 2.3280	28.6570
 2.3290	28.5960
 2.3300	28.5570
 2.3310	28.5440
 2.3320	28.5160
 2.3330	28.4930
 2.3340	28.4550
 2.3350	28.4070
 2.3360	28.3510
 2.3370	28.2820
 2.3380	28.2260
 2.3390	28.1680
 2.3400	28.1170
 2.3410	28.0610
 2.3420	28.0270
 2.3430	28.0100
 2.3440	27.9920
 2.3450	28.0120
 2.3460	28.0000
 2.3470	27.9550
 2.3480	27.9310
 2.3490	27.9080
 2.3500	27.8770
 2.3510	27.8680
 2.3520	27.8410
 2.3530	27.7910
 2.3540	27.7410
 2.3550	27.7220
 2.3560	27.6730
 2.3570	27.6200
 2.3580	27.5810
 2.3590	27.5350
 2.3600	27.4900
 2.3610	27.4810
 2.3620	27.4870
 2.3630	27.4540
 2.3640	27.4260
 2.3650	27.3890
 2.3660	27.3220
 2.3670	27.2640
 2.3680	27.2240
 2.3690	27.1950
 2.3700	27.1840
 2.3710	27.2000
 2.3720	27.2060
 2.3730	27.1750
 2.3740	27.1550
 2.3750	27.1370
 2.3760	27.0860
 2.3770	27.0610
 2.3780	27.0330
 2.3790	26.9640
 2.3800	26.9230
 2.3810	26.8990
 2.3820	26.8680
 2.3830	26.8420
 2.3840	26.8250
 2.3850	26.8100
 2.3860	26.7490
 2.3870	26.7080
 2.3880	26.6790
 2.3890	26.6140
 2.3900	26.5980
 2.3910	26.5710
 2.3920	26.5340
 2.3930	26.5250
 2.3940	26.4450
 2.3950	26.3740
 2.3960	26.3260
 2.3970	26.2370
 2.3980	26.1650
 2.3990	26.1340
 2.4000	26.1120
 2.4010	26.1000
 2.4020	26.0870
 2.4030	26.0130
 2.4040	25.9420
 2.4050	25.8790
 2.4060	25.8450
 2.4070	25.8220
 2.4080	25.7250
 2.4090	25.6370
 2.4100	25.5450
 2.4110	25.4960
 2.4120	25.5040
 2.4130	25.4980
 2.4140	25.5400
 2.4150	25.5490
 2.4160	25.5140
 2.4170	25.4930
 2.4180	25.4070
 2.4190	25.3300
 2.4200	25.2830
 2.4210	25.1650
 2.4220	25.0700
 2.4230	25.0320
 2.4240	25.0140
 2.4250	25.0300
 2.4260	25.0400
 2.4270	25.0460
 2.4280	24.9840
 2.4290	24.9260
 2.4300	24.9320
 2.4310	24.8420
 2.4320	24.7500
 2.4330	24.6830
 2.4340	24.6160
 2.4350	24.6230
 2.4360	24.6350
 2.4370	24.6210
 2.4380	24.5810
 2.4390	24.5060
 2.4400	24.4380
 2.4410	24.3940
 2.4420	24.3340
 2.4430	24.2590
 2.4440	24.1760
 2.4450	24.1140
 2.4460	24.0940
 2.4470	24.1090
 2.4480	24.1360
 2.4490	24.1140
 2.4500	24.0650
 2.4510	24.0420
 2.4520	24.0000
 2.4530	23.9900
 2.4540	24.0000
 2.4550	23.9100
 2.4560	23.8790
 2.4570	23.8580
 2.4580	23.8180
 2.4590	23.8310
 2.4600	23.7400
 2.4610	23.6350
 2.4620	23.5160
 2.4630	23.3730
 2.4640	23.3140
 2.4650	23.3020
 2.4660	23.3530
 2.4670	23.4450
 2.4680	23.4720
 2.4690	23.4330
 2.4700	23.3840
 2.4710	23.3100
 2.4720	23.2550
 2.4730	23.1800
 2.4740	23.1430
 2.4750	23.1020
 2.4760	23.1040
 2.4770	23.1580
 2.4780	23.1640
 2.4790	23.1710
 2.4800	23.1730
 2.4810	23.1770
 2.4820	23.1490
 2.4830	23.1540
 2.4840	23.1150
 2.4850	23.0900
 2.4860	23.1410
 2.4870	23.2430
 2.4880	23.3170
 2.4890	23.3340
 2.4900	23.2650
 2.4910	23.0870
 2.4920	22.9620
 2.4930	22.8550
 2.4940	22.7190
 2.4950	22.7340
 2.4960	22.8060
 2.4970	22.7780
 2.4980	22.8070
 2.4990	22.7160
 2.5000	22.6530
