Name: Baccharis pilularis 3
Type: vegetation
Class: Shrub
Genus: Baccharis
Species: pilularis
Sample No.: VH233
Owner: UCSB
Wavelength Range: VSWIR
Origin: 34.5088; -119.7683; WGS84
Collection Date: 10/13/2013
Description: Samples were collected as part of the HyspIRI Airborne Campaign. 48 individual plants were sampled in three times in 2013 - spring  summer  and fall. The name of the sample includes a 1  2  or 3 which references a different individual of the species. Samples were taken to JPL and processed within 48 hours of collection. The same leaves were processed in the Nicolet and then measured using the ASD.
Measurement: Bidirectional reflectance
First Column: X
Second Column: Y
X Units: Wavelength (micrometers)
Y Units: Reflectance (percentage)
First X Value: 0.35
Last X Value: 2.5
Number of X Values: 2151
Additional Information: vegetation.shrub.baccharis.pilularis.vswir.vh233.ucsb.asd.ancillary.txt

 0.3500	 6.5940
 0.3510	 6.5490
 0.3520	 6.4760
 0.3530	 6.4400
 0.3540	 6.4840
 0.3550	 6.4090
 0.3560	 6.2640
 0.3570	 6.1890
 0.3580	 6.3220
 0.3590	 6.3480
 0.3600	 6.3800
 0.3610	 6.4330
 0.3620	 6.3220
 0.3630	 6.3320
 0.3640	 6.3960
 0.3650	 6.3990
 0.3660	 6.4020
 0.3670	 6.3430
 0.3680	 6.3020
 0.3690	 6.4170
 0.3700	 6.3170
 0.3710	 6.2820
 0.3720	 6.3860
 0.3730	 6.1470
 0.3740	 6.1240
 0.3750	 6.2690
 0.3760	 6.3590
 0.3770	 6.3980
 0.3780	 6.3300
 0.3790	 6.2180
 0.3800	 6.2150
 0.3810	 6.2460
 0.3820	 6.2500
 0.3830	 6.2230
 0.3840	 6.2810
 0.3850	 6.3260
 0.3860	 6.3080
 0.3870	 6.2280
 0.3880	 6.2530
 0.3890	 6.2790
 0.3900	 6.2650
 0.3910	 6.2580
 0.3920	 6.1820
 0.3930	 6.1810
 0.3940	 6.3080
 0.3950	 6.2840
 0.3960	 6.2340
 0.3970	 6.2010
 0.3980	 6.1940
 0.3990	 6.2410
 0.4000	 6.2840
 0.4010	 6.2910
 0.4020	 6.2890
 0.4030	 6.2100
 0.4040	 6.1750
 0.4050	 6.2700
 0.4060	 6.3230
 0.4070	 6.3030
 0.4080	 6.2560
 0.4090	 6.2620
 0.4100	 6.2470
 0.4110	 6.2640
 0.4120	 6.3150
 0.4130	 6.2820
 0.4140	 6.2730
 0.4150	 6.2840
 0.4160	 6.2860
 0.4170	 6.3100
 0.4180	 6.3190
 0.4190	 6.3160
 0.4200	 6.3400
 0.4210	 6.3400
 0.4220	 6.3420
 0.4230	 6.3650
 0.4240	 6.3580
 0.4250	 6.3550
 0.4260	 6.3630
 0.4270	 6.3800
 0.4280	 6.3970
 0.4290	 6.4250
 0.4300	 6.4560
 0.4310	 6.4480
 0.4320	 6.4480
 0.4330	 6.4700
 0.4340	 6.5070
 0.4350	 6.5060
 0.4360	 6.4990
 0.4370	 6.5020
 0.4380	 6.5200
 0.4390	 6.5420
 0.4400	 6.5630
 0.4410	 6.5760
 0.4420	 6.5590
 0.4430	 6.5670
 0.4440	 6.5920
 0.4450	 6.6010
 0.4460	 6.6010
 0.4470	 6.6110
 0.4480	 6.6310
 0.4490	 6.6360
 0.4500	 6.6590
 0.4510	 6.6810
 0.4520	 6.6830
 0.4530	 6.6890
 0.4540	 6.7040
 0.4550	 6.7200
 0.4560	 6.7180
 0.4570	 6.7210
 0.4580	 6.7360
 0.4590	 6.7560
 0.4600	 6.7610
 0.4610	 6.7730
 0.4620	 6.7910
 0.4630	 6.8070
 0.4640	 6.8040
 0.4650	 6.8050
 0.4660	 6.8130
 0.4670	 6.8140
 0.4680	 6.8220
 0.4690	 6.8310
 0.4700	 6.8380
 0.4710	 6.8460
 0.4720	 6.8540
 0.4730	 6.8630
 0.4740	 6.8750
 0.4750	 6.8870
 0.4760	 6.8770
 0.4770	 6.8510
 0.4780	 6.8660
 0.4790	 6.8990
 0.4800	 6.9150
 0.4810	 6.8950
 0.4820	 6.8850
 0.4830	 6.9010
 0.4840	 6.9290
 0.4850	 6.9280
 0.4860	 6.9360
 0.4870	 6.9470
 0.4880	 6.9550
 0.4890	 6.9630
 0.4900	 6.9820
 0.4910	 7.0080
 0.4920	 7.0310
 0.4930	 7.0460
 0.4940	 7.0640
 0.4950	 7.0900
 0.4960	 7.1210
 0.4970	 7.1410
 0.4980	 7.1700
 0.4990	 7.2260
 0.5000	 7.2740
 0.5010	 7.3130
 0.5020	 7.3540
 0.5030	 7.4120
 0.5040	 7.4800
 0.5050	 7.5570
 0.5060	 7.6410
 0.5070	 7.7240
 0.5080	 7.8270
 0.5090	 7.9440
 0.5100	 8.0630
 0.5110	 8.2030
 0.5120	 8.3600
 0.5130	 8.5240
 0.5140	 8.6840
 0.5150	 8.8780
 0.5160	 9.0930
 0.5170	 9.3110
 0.5180	 9.5340
 0.5190	 9.7730
 0.5200	10.0260
 0.5210	10.2860
 0.5220	10.5560
 0.5230	10.8270
 0.5240	11.0920
 0.5250	11.3570
 0.5260	11.6160
 0.5270	11.8700
 0.5280	12.1250
 0.5290	12.3710
 0.5300	12.6070
 0.5310	12.8350
 0.5320	13.0550
 0.5330	13.2580
 0.5340	13.4510
 0.5350	13.6430
 0.5360	13.8210
 0.5370	13.9870
 0.5380	14.1450
 0.5390	14.2990
 0.5400	14.4460
 0.5410	14.5850
 0.5420	14.7170
 0.5430	14.8450
 0.5440	14.9810
 0.5450	15.1170
 0.5460	15.2390
 0.5470	15.3420
 0.5480	15.4440
 0.5490	15.5450
 0.5500	15.6280
 0.5510	15.7010
 0.5520	15.7570
 0.5530	15.7870
 0.5540	15.8100
 0.5550	15.8150
 0.5560	15.8000
 0.5570	15.7670
 0.5580	15.7150
 0.5590	15.6520
 0.5600	15.5820
 0.5610	15.4960
 0.5620	15.3980
 0.5630	15.2920
 0.5640	15.1830
 0.5650	15.0560
 0.5660	14.9140
 0.5670	14.7640
 0.5680	14.6180
 0.5690	14.4600
 0.5700	14.2940
 0.5710	14.1250
 0.5720	13.9570
 0.5730	13.7940
 0.5740	13.6430
 0.5750	13.5090
 0.5760	13.3820
 0.5770	13.2620
 0.5780	13.1530
 0.5790	13.0560
 0.5800	12.9640
 0.5810	12.8710
 0.5820	12.7770
 0.5830	12.6740
 0.5840	12.5720
 0.5850	12.4730
 0.5860	12.3710
 0.5870	12.2870
 0.5880	12.2220
 0.5890	12.1700
 0.5900	12.1310
 0.5910	12.0980
 0.5920	12.0690
 0.5930	12.0420
 0.5940	12.0150
 0.5950	11.9840
 0.5960	11.9490
 0.5970	11.9190
 0.5980	11.8850
 0.5990	11.8420
 0.6000	11.7930
 0.6010	11.7410
 0.6020	11.6870
 0.6030	11.6280
 0.6040	11.5570
 0.6050	11.4770
 0.6060	11.3930
 0.6070	11.3060
 0.6080	11.2130
 0.6090	11.1030
 0.6100	10.9900
 0.6110	10.8940
 0.6120	10.7900
 0.6130	10.6900
 0.6140	10.5970
 0.6150	10.5050
 0.6160	10.4140
 0.6170	10.3310
 0.6180	10.2580
 0.6190	10.1930
 0.6200	10.1330
 0.6210	10.0800
 0.6220	10.0330
 0.6230	 9.9960
 0.6240	 9.9660
 0.6250	 9.9410
 0.6260	 9.9180
 0.6270	 9.9000
 0.6280	 9.8910
 0.6290	 9.8920
 0.6300	 9.8950
 0.6310	 9.8920
 0.6320	 9.8810
 0.6330	 9.8680
 0.6340	 9.8560
 0.6350	 9.8330
 0.6360	 9.7920
 0.6370	 9.7390
 0.6380	 9.6760
 0.6390	 9.6060
 0.6400	 9.5300
 0.6410	 9.4360
 0.6420	 9.3350
 0.6430	 9.2310
 0.6440	 9.1180
 0.6450	 9.0040
 0.6460	 8.8950
 0.6470	 8.7930
 0.6480	 8.6990
 0.6490	 8.6110
 0.6500	 8.5280
 0.6510	 8.4530
 0.6520	 8.3890
 0.6530	 8.3320
 0.6540	 8.2740
 0.6550	 8.2070
 0.6560	 8.1370
 0.6570	 8.0670
 0.6580	 7.9950
 0.6590	 7.9100
 0.6600	 7.8250
 0.6610	 7.7510
 0.6620	 7.6840
 0.6630	 7.6170
 0.6640	 7.5540
 0.6650	 7.4990
 0.6660	 7.4500
 0.6670	 7.4150
 0.6680	 7.3900
 0.6690	 7.3670
 0.6700	 7.3520
 0.6710	 7.3380
 0.6720	 7.3270
 0.6730	 7.3320
 0.6740	 7.3430
 0.6750	 7.3530
 0.6760	 7.3640
 0.6770	 7.3840
 0.6780	 7.4100
 0.6790	 7.4380
 0.6800	 7.4690
 0.6810	 7.5090
 0.6820	 7.5630
 0.6830	 7.6290
 0.6840	 7.7080
 0.6850	 7.8050
 0.6860	 7.9350
 0.6870	 8.1100
 0.6880	 8.3240
 0.6890	 8.5900
 0.6900	 8.9240
 0.6910	 9.3520
 0.6920	 9.8650
 0.6930	10.4710
 0.6940	11.1790
 0.6950	12.0010
 0.6960	12.9250
 0.6970	13.9520
 0.6980	15.0830
 0.6990	16.2860
 0.7000	17.5660
 0.7010	18.9100
 0.7020	20.2910
 0.7030	21.7020
 0.7040	23.1340
 0.7050	24.5740
 0.7060	26.0010
 0.7070	27.4110
 0.7080	28.7980
 0.7090	30.1620
 0.7100	31.5080
 0.7110	32.8160
 0.7120	34.0820
 0.7130	35.3200
 0.7140	36.5170
 0.7150	37.6730
 0.7160	38.7910
 0.7170	39.8740
 0.7180	40.9090
 0.7190	41.8950
 0.7200	42.8410
 0.7210	43.7470
 0.7220	44.6160
 0.7230	45.4470
 0.7240	46.2340
 0.7250	46.9860
 0.7260	47.6920
 0.7270	48.3470
 0.7280	48.9740
 0.7290	49.5590
 0.7300	50.1100
 0.7310	50.6340
 0.7320	51.1150
 0.7330	51.5660
 0.7340	51.9920
 0.7350	52.3900
 0.7360	52.7770
 0.7370	53.1330
 0.7380	53.4500
 0.7390	53.7500
 0.7400	54.0450
 0.7410	54.3180
 0.7420	54.5520
 0.7430	54.7920
 0.7440	55.0030
 0.7450	55.1850
 0.7460	55.3740
 0.7470	55.5570
 0.7480	55.7200
 0.7490	55.8600
 0.7500	55.9860
 0.7510	56.0960
 0.7520	56.2040
 0.7530	56.3160
 0.7540	56.4080
 0.7550	56.4930
 0.7560	56.5710
 0.7570	56.6390
 0.7580	56.7040
 0.7590	56.7700
 0.7600	56.8310
 0.7610	56.8640
 0.7620	56.9130
 0.7630	56.9580
 0.7640	56.9760
 0.7650	57.0180
 0.7660	57.0550
 0.7670	57.0800
 0.7680	57.1010
 0.7690	57.1310
 0.7700	57.1500
 0.7710	57.1590
 0.7720	57.1840
 0.7730	57.2040
 0.7740	57.2200
 0.7750	57.2360
 0.7760	57.2490
 0.7770	57.2490
 0.7780	57.2510
 0.7790	57.2760
 0.7800	57.2970
 0.7810	57.3000
 0.7820	57.2960
 0.7830	57.3190
 0.7840	57.3360
 0.7850	57.3460
 0.7860	57.3550
 0.7870	57.3630
 0.7880	57.3720
 0.7890	57.3810
 0.7900	57.3870
 0.7910	57.3880
 0.7920	57.3970
 0.7930	57.4180
 0.7940	57.4420
 0.7950	57.4410
 0.7960	57.4450
 0.7970	57.4650
 0.7980	57.4730
 0.7990	57.4900
 0.8000	57.5080
 0.8010	57.5200
 0.8020	57.5190
 0.8030	57.5410
 0.8040	57.5620
 0.8050	57.5520
 0.8060	57.5660
 0.8070	57.5930
 0.8080	57.6180
 0.8090	57.6260
 0.8100	57.6330
 0.8110	57.6570
 0.8120	57.6890
 0.8130	57.6870
 0.8140	57.6930
 0.8150	57.7050
 0.8160	57.7180
 0.8170	57.7430
 0.8180	57.7710
 0.8190	57.7890
 0.8200	57.7890
 0.8210	57.8070
 0.8220	57.8350
 0.8230	57.8590
 0.8240	57.8680
 0.8250	57.8830
 0.8260	57.8920
 0.8270	57.8940
 0.8280	57.9150
 0.8290	57.9350
 0.8300	57.9500
 0.8310	57.9580
 0.8320	57.9590
 0.8330	58.0000
 0.8340	58.0400
 0.8350	58.0220
 0.8360	58.0270
 0.8370	58.0490
 0.8380	58.0690
 0.8390	58.0690
 0.8400	58.0950
 0.8410	58.1220
 0.8420	58.1300
 0.8430	58.1230
 0.8440	58.1330
 0.8450	58.1630
 0.8460	58.2020
 0.8470	58.2110
 0.8480	58.2310
 0.8490	58.2520
 0.8500	58.2570
 0.8510	58.2620
 0.8520	58.2740
 0.8530	58.2900
 0.8540	58.3070
 0.8550	58.3190
 0.8560	58.3230
 0.8570	58.3250
 0.8580	58.3450
 0.8590	58.3550
 0.8600	58.3600
 0.8610	58.3650
 0.8620	58.3640
 0.8630	58.3760
 0.8640	58.3830
 0.8650	58.3760
 0.8660	58.3860
 0.8670	58.3770
 0.8680	58.3730
 0.8690	58.4030
 0.8700	58.4050
 0.8710	58.3920
 0.8720	58.3870
 0.8730	58.4090
 0.8740	58.4160
 0.8750	58.4200
 0.8760	58.4260
 0.8770	58.4290
 0.8780	58.4280
 0.8790	58.4330
 0.8800	58.4380
 0.8810	58.4220
 0.8820	58.3950
 0.8830	58.3830
 0.8840	58.3970
 0.8850	58.4000
 0.8860	58.4020
 0.8870	58.4010
 0.8880	58.3970
 0.8890	58.3970
 0.8900	58.3850
 0.8910	58.3750
 0.8920	58.3860
 0.8930	58.3730
 0.8940	58.3600
 0.8950	58.3550
 0.8960	58.3550
 0.8970	58.3230
 0.8980	58.2930
 0.8990	58.2860
 0.9000	58.3000
 0.9010	58.2860
 0.9020	58.2590
 0.9030	58.2360
 0.9040	58.2230
 0.9050	58.2330
 0.9060	58.2420
 0.9070	58.2270
 0.9080	58.1840
 0.9090	58.1890
 0.9100	58.1940
 0.9110	58.1620
 0.9120	58.1520
 0.9130	58.1340
 0.9140	58.1330
 0.9150	58.1630
 0.9160	58.1520
 0.9170	58.1140
 0.9180	58.0850
 0.9190	58.0870
 0.9200	58.0580
 0.9210	58.0330
 0.9220	58.0200
 0.9230	58.0080
 0.9240	58.0060
 0.9250	57.9840
 0.9260	57.9460
 0.9270	57.9200
 0.9280	57.9330
 0.9290	57.9260
 0.9300	57.8840
 0.9310	57.8420
 0.9320	57.8140
 0.9330	57.8010
 0.9340	57.7820
 0.9350	57.7270
 0.9360	57.7050
 0.9370	57.7100
 0.9380	57.7070
 0.9390	57.6490
 0.9400	57.6040
 0.9410	57.5730
 0.9420	57.5440
 0.9430	57.5100
 0.9440	57.4630
 0.9450	57.4290
 0.9460	57.4070
 0.9470	57.3370
 0.9480	57.2750
 0.9490	57.2250
 0.9500	57.1750
 0.9510	57.0910
 0.9520	56.9930
 0.9530	56.9070
 0.9540	56.8450
 0.9550	56.7910
 0.9560	56.7120
 0.9570	56.6350
 0.9580	56.5830
 0.9590	56.5000
 0.9600	56.4290
 0.9610	56.3800
 0.9620	56.3390
 0.9630	56.2910
 0.9640	56.2500
 0.9650	56.2030
 0.9660	56.1360
 0.9670	56.0780
 0.9680	56.0850
 0.9690	56.1010
 0.9700	56.0530
 0.9710	56.0470
 0.9720	56.0330
 0.9730	56.0100
 0.9740	56.0010
 0.9750	56.0400
 0.9760	56.0350
 0.9770	56.0160
 0.9780	56.0460
 0.9790	56.0390
 0.9800	56.0300
 0.9810	56.0380
 0.9820	56.0600
 0.9830	56.0560
 0.9840	56.0590
 0.9850	56.0780
 0.9860	56.1040
 0.9870	56.1300
 0.9880	56.1330
 0.9890	56.1630
 0.9900	56.2610
 0.9910	56.2810
 0.9920	56.3210
 0.9930	56.3610
 0.9940	56.4010
 0.9950	56.4410
 0.9960	56.4810
 0.9970	56.5210
 0.9980	56.5610
 0.9990	56.6010
 1.0000	56.6410
 1.0010	56.6810
 1.0020	56.7210
 1.0030	56.7610
 1.0040	56.8010
 1.0050	56.8410
 1.0060	56.8810
 1.0070	56.9210
 1.0080	56.9610
 1.0090	57.0010
 1.0100	57.0010
 1.0110	57.0330
 1.0120	57.0650
 1.0130	57.1000
 1.0140	57.1360
 1.0150	57.1690
 1.0160	57.1960
 1.0170	57.2410
 1.0180	57.2770
 1.0190	57.3060
 1.0200	57.3340
 1.0210	57.3540
 1.0220	57.3840
 1.0230	57.4130
 1.0240	57.4450
 1.0250	57.4750
 1.0260	57.5080
 1.0270	57.5370
 1.0280	57.5620
 1.0290	57.5910
 1.0300	57.6230
 1.0310	57.6500
 1.0320	57.6720
 1.0330	57.7140
 1.0340	57.7300
 1.0350	57.7360
 1.0360	57.7600
 1.0370	57.7700
 1.0380	57.7850
 1.0390	57.8090
 1.0400	57.8270
 1.0410	57.8370
 1.0420	57.8580
 1.0430	57.8940
 1.0440	57.9150
 1.0450	57.9320
 1.0460	57.9490
 1.0470	57.9590
 1.0480	57.9690
 1.0490	57.9820
 1.0500	57.9920
 1.0510	57.9930
 1.0520	58.0030
 1.0530	58.0170
 1.0540	58.0350
 1.0550	58.0520
 1.0560	58.0780
 1.0570	58.0910
 1.0580	58.0910
 1.0590	58.1060
 1.0600	58.1300
 1.0610	58.1410
 1.0620	58.1540
 1.0630	58.1620
 1.0640	58.1480
 1.0650	58.1460
 1.0660	58.1530
 1.0670	58.1570
 1.0680	58.1610
 1.0690	58.1660
 1.0700	58.1710
 1.0710	58.1780
 1.0720	58.1760
 1.0730	58.1670
 1.0740	58.1660
 1.0750	58.1580
 1.0760	58.1570
 1.0770	58.1680
 1.0780	58.1720
 1.0790	58.1760
 1.0800	58.1740
 1.0810	58.1690
 1.0820	58.1620
 1.0830	58.1510
 1.0840	58.1390
 1.0850	58.1320
 1.0860	58.1140
 1.0870	58.1020
 1.0880	58.0870
 1.0890	58.0790
 1.0900	58.0780
 1.0910	58.0710
 1.0920	58.0680
 1.0930	58.0580
 1.0940	58.0410
 1.0950	58.0260
 1.0960	58.0090
 1.0970	57.9920
 1.0980	57.9750
 1.0990	57.9580
 1.1000	57.9410
 1.1010	57.9220
 1.1020	57.8980
 1.1030	57.8800
 1.1040	57.8630
 1.1050	57.8410
 1.1060	57.8180
 1.1070	57.7980
 1.1080	57.7660
 1.1090	57.7240
 1.1100	57.6910
 1.1110	57.6590
 1.1120	57.6230
 1.1130	57.5910
 1.1140	57.5530
 1.1150	57.5110
 1.1160	57.4680
 1.1170	57.4220
 1.1180	57.3780
 1.1190	57.3350
 1.1200	57.2860
 1.1210	57.2410
 1.1220	57.1940
 1.1230	57.1350
 1.1240	57.0690
 1.1250	56.9950
 1.1260	56.9150
 1.1270	56.8240
 1.1280	56.7250
 1.1290	56.6190
 1.1300	56.5020
 1.1310	56.3830
 1.1320	56.2620
 1.1330	56.1300
 1.1340	55.9890
 1.1350	55.8450
 1.1360	55.6950
 1.1370	55.5390
 1.1380	55.3810
 1.1390	55.2190
 1.1400	55.0470
 1.1410	54.8700
 1.1420	54.6890
 1.1430	54.5060
 1.1440	54.3250
 1.1450	54.1430
 1.1460	53.9620
 1.1470	53.7780
 1.1480	53.6020
 1.1490	53.4250
 1.1500	53.2600
 1.1510	53.0990
 1.1520	52.9500
 1.1530	52.8100
 1.1540	52.6830
 1.1550	52.5690
 1.1560	52.4660
 1.1570	52.3690
 1.1580	52.2760
 1.1590	52.1880
 1.1600	52.1110
 1.1610	52.0510
 1.1620	51.9970
 1.1630	51.9490
 1.1640	51.9050
 1.1650	51.8650
 1.1660	51.8280
 1.1670	51.7990
 1.1680	51.7820
 1.1690	51.7600
 1.1700	51.7420
 1.1710	51.7220
 1.1720	51.6990
 1.1730	51.6780
 1.1740	51.6590
 1.1750	51.6350
 1.1760	51.6100
 1.1770	51.5880
 1.1780	51.5640
 1.1790	51.5420
 1.1800	51.5170
 1.1810	51.4860
 1.1820	51.4560
 1.1830	51.4250
 1.1840	51.3900
 1.1850	51.3610
 1.1860	51.3330
 1.1870	51.3080
 1.1880	51.2830
 1.1890	51.2630
 1.1900	51.2420
 1.1910	51.2170
 1.1920	51.1990
 1.1930	51.1850
 1.1940	51.1740
 1.1950	51.1690
 1.1960	51.1630
 1.1970	51.1590
 1.1980	51.1620
 1.1990	51.1650
 1.2000	51.1700
 1.2010	51.1780
 1.2020	51.1840
 1.2030	51.1890
 1.2040	51.2010
 1.2050	51.2210
 1.2060	51.2490
 1.2070	51.2790
 1.2080	51.3090
 1.2090	51.3450
 1.2100	51.3840
 1.2110	51.4260
 1.2120	51.4750
 1.2130	51.5220
 1.2140	51.5650
 1.2150	51.6180
 1.2160	51.6770
 1.2170	51.7330
 1.2180	51.7950
 1.2190	51.8560
 1.2200	51.9110
 1.2210	51.9740
 1.2220	52.0360
 1.2230	52.0970
 1.2240	52.1610
 1.2250	52.2150
 1.2260	52.2710
 1.2270	52.3350
 1.2280	52.3980
 1.2290	52.4580
 1.2300	52.5130
 1.2310	52.5620
 1.2320	52.6090
 1.2330	52.6530
 1.2340	52.6990
 1.2350	52.7500
 1.2360	52.7900
 1.2370	52.8210
 1.2380	52.8570
 1.2390	52.8910
 1.2400	52.9200
 1.2410	52.9570
 1.2420	52.9940
 1.2430	53.0220
 1.2440	53.0540
 1.2450	53.0860
 1.2460	53.1130
 1.2470	53.1430
 1.2480	53.1710
 1.2490	53.1950
 1.2500	53.2190
 1.2510	53.2410
 1.2520	53.2620
 1.2530	53.2800
 1.2540	53.2950
 1.2550	53.3080
 1.2560	53.3200
 1.2570	53.3320
 1.2580	53.3410
 1.2590	53.3490
 1.2600	53.3560
 1.2610	53.3620
 1.2620	53.3650
 1.2630	53.3720
 1.2640	53.3830
 1.2650	53.3910
 1.2660	53.4010
 1.2670	53.4100
 1.2680	53.4070
 1.2690	53.4040
 1.2700	53.4040
 1.2710	53.3980
 1.2720	53.3990
 1.2730	53.4000
 1.2740	53.3870
 1.2750	53.3810
 1.2760	53.3700
 1.2770	53.3490
 1.2780	53.3400
 1.2790	53.3300
 1.2800	53.3140
 1.2810	53.3030
 1.2820	53.2870
 1.2830	53.2650
 1.2840	53.2420
 1.2850	53.2150
 1.2860	53.1870
 1.2870	53.1570
 1.2880	53.1230
 1.2890	53.0890
 1.2900	53.0550
 1.2910	53.0200
 1.2920	52.9860
 1.2930	52.9500
 1.2940	52.9170
 1.2950	52.8820
 1.2960	52.8390
 1.2970	52.7910
 1.2980	52.7380
 1.2990	52.6780
 1.3000	52.6160
 1.3010	52.5500
 1.3020	52.4810
 1.3030	52.4120
 1.3040	52.3350
 1.3050	52.2570
 1.3060	52.1820
 1.3070	52.0980
 1.3080	52.0090
 1.3090	51.9220
 1.3100	51.8300
 1.3110	51.7330
 1.3120	51.6360
 1.3130	51.5340
 1.3140	51.4230
 1.3150	51.3050
 1.3160	51.1830
 1.3170	51.0550
 1.3180	50.9200
 1.3190	50.7850
 1.3200	50.6510
 1.3210	50.5110
 1.3220	50.3640
 1.3230	50.2130
 1.3240	50.0480
 1.3250	49.8790
 1.3260	49.7160
 1.3270	49.5460
 1.3280	49.3780
 1.3290	49.2070
 1.3300	49.0250
 1.3310	48.8400
 1.3320	48.6490
 1.3330	48.4520
 1.3340	48.2600
 1.3350	48.0640
 1.3360	47.8700
 1.3370	47.6710
 1.3380	47.4640
 1.3390	47.2600
 1.3400	47.0550
 1.3410	46.8520
 1.3420	46.6570
 1.3430	46.4640
 1.3440	46.2710
 1.3450	46.0780
 1.3460	45.8850
 1.3470	45.6950
 1.3480	45.5010
 1.3490	45.3130
 1.3500	45.1320
 1.3510	44.9490
 1.3520	44.7650
 1.3530	44.5870
 1.3540	44.4040
 1.3550	44.2170
 1.3560	44.0320
 1.3570	43.8470
 1.3580	43.6630
 1.3590	43.4780
 1.3600	43.2930
 1.3610	43.0990
 1.3620	42.8980
 1.3630	42.6950
 1.3640	42.4850
 1.3650	42.2650
 1.3660	42.0420
 1.3670	41.8070
 1.3680	41.5590
 1.3690	41.3020
 1.3700	41.0270
 1.3710	40.7360
 1.3720	40.4300
 1.3730	40.1010
 1.3740	39.7590
 1.3750	39.4000
 1.3760	39.0160
 1.3770	38.6110
 1.3780	38.1780
 1.3790	37.7170
 1.3800	37.2320
 1.3810	36.7180
 1.3820	36.1860
 1.3830	35.6340
 1.3840	35.0580
 1.3850	34.4600
 1.3860	33.8470
 1.3870	33.2110
 1.3880	32.5660
 1.3890	31.9060
 1.3900	31.2370
 1.3910	30.5650
 1.3920	29.8870
 1.3930	29.2090
 1.3940	28.5320
 1.3950	27.8520
 1.3960	27.1830
 1.3970	26.5250
 1.3980	25.8800
 1.3990	25.2570
 1.4000	24.6480
 1.4010	24.0550
 1.4020	23.4870
 1.4030	22.9380
 1.4040	22.4120
 1.4050	21.9120
 1.4060	21.4360
 1.4070	20.9910
 1.4080	20.5710
 1.4090	20.1760
 1.4100	19.8080
 1.4110	19.4630
 1.4120	19.1420
 1.4130	18.8450
 1.4140	18.5690
 1.4150	18.3210
 1.4160	18.0930
 1.4170	17.8840
 1.4180	17.6960
 1.4190	17.5200
 1.4200	17.3580
 1.4210	17.2110
 1.4220	17.0810
 1.4230	16.9670
 1.4240	16.8660
 1.4250	16.7730
 1.4260	16.6920
 1.4270	16.6180
 1.4280	16.5520
 1.4290	16.4960
 1.4300	16.4540
 1.4310	16.4160
 1.4320	16.3860
 1.4330	16.3610
 1.4340	16.3390
 1.4350	16.3250
 1.4360	16.3180
 1.4370	16.3150
 1.4380	16.3160
 1.4390	16.3260
 1.4400	16.3370
 1.4410	16.3510
 1.4420	16.3720
 1.4430	16.3900
 1.4440	16.4120
 1.4450	16.4370
 1.4460	16.4610
 1.4470	16.4910
 1.4480	16.5210
 1.4490	16.5520
 1.4500	16.5840
 1.4510	16.6140
 1.4520	16.6430
 1.4530	16.6720
 1.4540	16.7040
 1.4550	16.7380
 1.4560	16.7730
 1.4570	16.8120
 1.4580	16.8540
 1.4590	16.8960
 1.4600	16.9430
 1.4610	16.9940
 1.4620	17.0490
 1.4630	17.1080
 1.4640	17.1720
 1.4650	17.2400
 1.4660	17.3120
 1.4670	17.3900
 1.4680	17.4740
 1.4690	17.5630
 1.4700	17.6540
 1.4710	17.7530
 1.4720	17.8530
 1.4730	17.9570
 1.4740	18.0680
 1.4750	18.1790
 1.4760	18.2920
 1.4770	18.4100
 1.4780	18.5290
 1.4790	18.6510
 1.4800	18.7730
 1.4810	18.8990
 1.4820	19.0250
 1.4830	19.1510
 1.4840	19.2820
 1.4850	19.4110
 1.4860	19.5400
 1.4870	19.6730
 1.4880	19.8050
 1.4890	19.9390
 1.4900	20.0730
 1.4910	20.2110
 1.4920	20.3460
 1.4930	20.4810
 1.4940	20.6160
 1.4950	20.7500
 1.4960	20.8840
 1.4970	21.0180
 1.4980	21.1520
 1.4990	21.2860
 1.5000	21.4210
 1.5010	21.5580
 1.5020	21.6920
 1.5030	21.8270
 1.5040	21.9600
 1.5050	22.0900
 1.5060	22.2210
 1.5070	22.3530
 1.5080	22.4820
 1.5090	22.6090
 1.5100	22.7400
 1.5110	22.8680
 1.5120	22.9960
 1.5130	23.1220
 1.5140	23.2480
 1.5150	23.3730
 1.5160	23.4980
 1.5170	23.6240
 1.5180	23.7490
 1.5190	23.8710
 1.5200	23.9940
 1.5210	24.1110
 1.5220	24.2290
 1.5230	24.3470
 1.5240	24.4600
 1.5250	24.5760
 1.5260	24.6890
 1.5270	24.7990
 1.5280	24.9120
 1.5290	25.0220
 1.5300	25.1310
 1.5310	25.2400
 1.5320	25.3450
 1.5330	25.4520
 1.5340	25.5570
 1.5350	25.6620
 1.5360	25.7670
 1.5370	25.8700
 1.5380	25.9720
 1.5390	26.0720
 1.5400	26.1720
 1.5410	26.2710
 1.5420	26.3690
 1.5430	26.4660
 1.5440	26.5630
 1.5450	26.6570
 1.5460	26.7500
 1.5470	26.8450
 1.5480	26.9370
 1.5490	27.0310
 1.5500	27.1250
 1.5510	27.2180
 1.5520	27.3110
 1.5530	27.4020
 1.5540	27.4900
 1.5550	27.5730
 1.5560	27.6530
 1.5570	27.7360
 1.5580	27.8190
 1.5590	27.9010
 1.5600	27.9840
 1.5610	28.0650
 1.5620	28.1430
 1.5630	28.2210
 1.5640	28.3000
 1.5650	28.3780
 1.5660	28.4550
 1.5670	28.5320
 1.5680	28.6090
 1.5690	28.6830
 1.5700	28.7570
 1.5710	28.8330
 1.5720	28.9090
 1.5730	28.9850
 1.5740	29.0620
 1.5750	29.1370
 1.5760	29.2110
 1.5770	29.2890
 1.5780	29.3670
 1.5790	29.4430
 1.5800	29.5230
 1.5810	29.5980
 1.5820	29.6700
 1.5830	29.7430
 1.5840	29.8110
 1.5850	29.8760
 1.5860	29.9450
 1.5870	30.0130
 1.5880	30.0790
 1.5890	30.1480
 1.5900	30.2200
 1.5910	30.2920
 1.5920	30.3680
 1.5930	30.4430
 1.5940	30.5160
 1.5950	30.5890
 1.5960	30.6600
 1.5970	30.7320
 1.5980	30.8010
 1.5990	30.8690
 1.6000	30.9350
 1.6010	31.0000
 1.6020	31.0650
 1.6030	31.1280
 1.6040	31.1890
 1.6050	31.2530
 1.6060	31.3150
 1.6070	31.3770
 1.6080	31.4390
 1.6090	31.5000
 1.6100	31.5580
 1.6110	31.6170
 1.6120	31.6770
 1.6130	31.7330
 1.6140	31.7880
 1.6150	31.8460
 1.6160	31.8990
 1.6170	31.9500
 1.6180	32.0020
 1.6190	32.0520
 1.6200	32.1020
 1.6210	32.1540
 1.6220	32.2020
 1.6230	32.2510
 1.6240	32.3010
 1.6250	32.3490
 1.6260	32.3960
 1.6270	32.4410
 1.6280	32.4820
 1.6290	32.5200
 1.6300	32.5570
 1.6310	32.5930
 1.6320	32.6270
 1.6330	32.6590
 1.6340	32.6900
 1.6350	32.7190
 1.6360	32.7410
 1.6370	32.7680
 1.6380	32.8000
 1.6390	32.8270
 1.6400	32.8550
 1.6410	32.8750
 1.6420	32.8920
 1.6430	32.9010
 1.6440	32.9060
 1.6450	32.9080
 1.6460	32.9040
 1.6470	32.8960
 1.6480	32.8790
 1.6490	32.8600
 1.6500	32.8370
 1.6510	32.8080
 1.6520	32.7750
 1.6530	32.7310
 1.6540	32.6850
 1.6550	32.6370
 1.6560	32.5890
 1.6570	32.5420
 1.6580	32.4880
 1.6590	32.4310
 1.6600	32.3760
 1.6610	32.3230
 1.6620	32.2700
 1.6630	32.2190
 1.6640	32.1730
 1.6650	32.1270
 1.6660	32.0840
 1.6670	32.0460
 1.6680	32.0040
 1.6690	31.9650
 1.6700	31.9310
 1.6710	31.8950
 1.6720	31.8600
 1.6730	31.8290
 1.6740	31.7970
 1.6750	31.7690
 1.6760	31.7440
 1.6770	31.7190
 1.6780	31.6960
 1.6790	31.6700
 1.6800	31.6460
 1.6810	31.6210
 1.6820	31.5940
 1.6830	31.5660
 1.6840	31.5320
 1.6850	31.4950
 1.6860	31.4560
 1.6870	31.4150
 1.6880	31.3760
 1.6890	31.3380
 1.6900	31.2930
 1.6910	31.2490
 1.6920	31.1970
 1.6930	31.1330
 1.6940	31.0750
 1.6950	31.0170
 1.6960	30.9560
 1.6970	30.9000
 1.6980	30.8360
 1.6990	30.7610
 1.7000	30.6880
 1.7010	30.6130
 1.7020	30.5340
 1.7030	30.4520
 1.7040	30.3730
 1.7050	30.2910
 1.7060	30.2130
 1.7070	30.1400
 1.7080	30.0650
 1.7090	29.9870
 1.7100	29.9150
 1.7110	29.8430
 1.7120	29.7780
 1.7130	29.7070
 1.7140	29.6390
 1.7150	29.5730
 1.7160	29.5000
 1.7170	29.4360
 1.7180	29.3750
 1.7190	29.3120
 1.7200	29.2570
 1.7210	29.2020
 1.7220	29.1450
 1.7230	29.0940
 1.7240	29.0510
 1.7250	29.0110
 1.7260	28.9760
 1.7270	28.9430
 1.7280	28.9080
 1.7290	28.8730
 1.7300	28.8450
 1.7310	28.8170
 1.7320	28.7930
 1.7330	28.7660
 1.7340	28.7420
 1.7350	28.7150
 1.7360	28.6870
 1.7370	28.6530
 1.7380	28.6190
 1.7390	28.5760
 1.7400	28.5230
 1.7410	28.4700
 1.7420	28.4100
 1.7430	28.3500
 1.7440	28.2860
 1.7450	28.2240
 1.7460	28.1600
 1.7470	28.0990
 1.7480	28.0370
 1.7490	27.9770
 1.7500	27.9170
 1.7510	27.8600
 1.7520	27.8050
 1.7530	27.7500
 1.7540	27.6960
 1.7550	27.6440
 1.7560	27.5950
 1.7570	27.5530
 1.7580	27.5150
 1.7590	27.4810
 1.7600	27.4470
 1.7610	27.4070
 1.7620	27.3720
 1.7630	27.3380
 1.7640	27.3060
 1.7650	27.2820
 1.7660	27.2550
 1.7670	27.2280
 1.7680	27.2010
 1.7690	27.1750
 1.7700	27.1490
 1.7710	27.1200
 1.7720	27.0960
 1.7730	27.0770
 1.7740	27.0560
 1.7750	27.0380
 1.7760	27.0190
 1.7770	26.9970
 1.7780	26.9760
 1.7790	26.9550
 1.7800	26.9340
 1.7810	26.9100
 1.7820	26.8910
 1.7830	26.8760
 1.7840	26.8590
 1.7850	26.8420
 1.7860	26.8300
 1.7870	26.8170
 1.7880	26.8090
 1.7890	26.8070
 1.7900	26.8100
 1.7910	26.8130
 1.7920	26.8220
 1.7930	26.8300
 1.7940	26.8380
 1.7950	26.8440
 1.7960	26.8490
 1.7970	26.8540
 1.7980	26.8560
 1.7990	26.8600
 1.8000	26.8660
 1.8010	26.8700
 1.8020	26.8730
 1.8030	26.8760
 1.8040	26.8740
 1.8050	26.8810
 1.8060	26.8950
 1.8070	26.9040
 1.8080	26.9190
 1.8090	26.9230
 1.8100	26.9150
 1.8110	26.9240
 1.8120	26.9290
 1.8130	26.9380
 1.8140	26.9510
 1.8150	26.9520
 1.8160	26.9550
 1.8170	26.9660
 1.8180	26.9740
 1.8190	26.9830
 1.8200	26.9880
 1.8210	26.9850
 1.8220	26.9850
 1.8230	26.9860
 1.8240	26.9870
 1.8250	26.9880
 1.8260	26.9900
 1.8270	26.9450
 1.8280	26.9010
 1.8290	26.8560
 1.8300	26.8110
 1.8310	26.7660
 1.8320	26.7220
 1.8330	26.6770
 1.8340	26.6320
 1.8350	26.6320
 1.8360	26.5920
 1.8370	26.5560
 1.8380	26.5300
 1.8390	26.4950
 1.8400	26.4640
 1.8410	26.4140
 1.8420	26.3550
 1.8430	26.2870
 1.8440	26.2030
 1.8450	26.1150
 1.8460	26.0250
 1.8470	25.9210
 1.8480	25.8110
 1.8490	25.6970
 1.8500	25.5670
 1.8510	25.4280
 1.8520	25.2770
 1.8530	25.1080
 1.8540	24.9190
 1.8550	24.7200
 1.8560	24.5100
 1.8570	24.2860
 1.8580	24.0570
 1.8590	23.8150
 1.8600	23.5620
 1.8610	23.2910
 1.8620	23.0080
 1.8630	22.7050
 1.8640	22.3810
 1.8650	22.0410
 1.8660	21.6820
 1.8670	21.3080
 1.8680	20.9120
 1.8690	20.4970
 1.8700	20.0670
 1.8710	19.6220
 1.8720	19.1610
 1.8730	18.6910
 1.8740	18.2080
 1.8750	17.7160
 1.8760	17.2120
 1.8770	16.7030
 1.8780	16.1990
 1.8790	15.6880
 1.8800	15.1870
 1.8810	14.6910
 1.8820	14.1980
 1.8830	13.7060
 1.8840	13.2280
 1.8850	12.7540
 1.8860	12.2970
 1.8870	11.8550
 1.8880	11.4210
 1.8890	11.0140
 1.8900	10.6310
 1.8910	10.2670
 1.8920	 9.9210
 1.8930	 9.6050
 1.8940	 9.3130
 1.8950	 9.0290
 1.8960	 8.7650
 1.8970	 8.5300
 1.8980	 8.3100
 1.8990	 8.1140
 1.9000	 7.9400
 1.9010	 7.7970
 1.9020	 7.6570
 1.9030	 7.5340
 1.9040	 7.4260
 1.9050	 7.3270
 1.9060	 7.2380
 1.9070	 7.1680
 1.9080	 7.1020
 1.9090	 7.0380
 1.9100	 6.9880
 1.9110	 6.9430
 1.9120	 6.9050
 1.9130	 6.8740
 1.9140	 6.8530
 1.9150	 6.8370
 1.9160	 6.8230
 1.9170	 6.8120
 1.9180	 6.8030
 1.9190	 6.7970
 1.9200	 6.7890
 1.9210	 6.7760
 1.9220	 6.7690
 1.9230	 6.7670
 1.9240	 6.7620
 1.9250	 6.7550
 1.9260	 6.7580
 1.9270	 6.7670
 1.9280	 6.7690
 1.9290	 6.7840
 1.9300	 6.8060
 1.9310	 6.8200
 1.9320	 6.8380
 1.9330	 6.8530
 1.9340	 6.8670
 1.9350	 6.8810
 1.9360	 6.8940
 1.9370	 6.9120
 1.9380	 6.9330
 1.9390	 6.9500
 1.9400	 6.9740
 1.9410	 6.9950
 1.9420	 7.0120
 1.9430	 7.0340
 1.9440	 7.0610
 1.9450	 7.0910
 1.9460	 7.1190
 1.9470	 7.1500
 1.9480	 7.1830
 1.9490	 7.2120
 1.9500	 7.2480
 1.9510	 7.2890
 1.9520	 7.3270
 1.9530	 7.3660
 1.9540	 7.4010
 1.9550	 7.4360
 1.9560	 7.4670
 1.9570	 7.5000
 1.9580	 7.5320
 1.9590	 7.5670
 1.9600	 7.5960
 1.9610	 7.6350
 1.9620	 7.6770
 1.9630	 7.7230
 1.9640	 7.7750
 1.9650	 7.8290
 1.9660	 7.8790
 1.9670	 7.9280
 1.9680	 7.9740
 1.9690	 8.0140
 1.9700	 8.0590
 1.9710	 8.1020
 1.9720	 8.1470
 1.9730	 8.1910
 1.9740	 8.2400
 1.9750	 8.2880
 1.9760	 8.3320
 1.9770	 8.3880
 1.9780	 8.4450
 1.9790	 8.5030
 1.9800	 8.5710
 1.9810	 8.6310
 1.9820	 8.6890
 1.9830	 8.7450
 1.9840	 8.7930
 1.9850	 8.8450
 1.9860	 8.8960
 1.9870	 8.9490
 1.9880	 9.0030
 1.9890	 9.0660
 1.9900	 9.1330
 1.9910	 9.1960
 1.9920	 9.2580
 1.9930	 9.3200
 1.9940	 9.3830
 1.9950	 9.4420
 1.9960	 9.5030
 1.9970	 9.5660
 1.9980	 9.6290
 1.9990	 9.6900
 2.0000	 9.7580
 2.0010	 9.8250
 2.0020	 9.8890
 2.0030	 9.9540
 2.0040	10.0250
 2.0050	10.0920
 2.0060	10.1630
 2.0070	10.2250
 2.0080	10.2790
 2.0090	10.3350
 2.0100	10.3870
 2.0110	10.4420
 2.0120	10.5010
 2.0130	10.5530
 2.0140	10.6090
 2.0150	10.6600
 2.0160	10.7060
 2.0170	10.7600
 2.0180	10.8110
 2.0190	10.8580
 2.0200	10.9070
 2.0210	10.9550
 2.0220	11.0090
 2.0230	11.0720
 2.0240	11.1240
 2.0250	11.1760
 2.0260	11.2240
 2.0270	11.2660
 2.0280	11.3000
 2.0290	11.3340
 2.0300	11.3700
 2.0310	11.4070
 2.0320	11.4450
 2.0330	11.4780
 2.0340	11.5110
 2.0350	11.5410
 2.0360	11.5660
 2.0370	11.5910
 2.0380	11.6140
 2.0390	11.6410
 2.0400	11.6660
 2.0410	11.6910
 2.0420	11.7220
 2.0430	11.7470
 2.0440	11.7670
 2.0450	11.7800
 2.0460	11.7980
 2.0470	11.8090
 2.0480	11.8310
 2.0490	11.8600
 2.0500	11.8850
 2.0510	11.9190
 2.0520	11.9410
 2.0530	11.9490
 2.0540	11.9650
 2.0550	11.9750
 2.0560	11.9900
 2.0570	12.0140
 2.0580	12.0430
 2.0590	12.0640
 2.0600	12.0830
 2.0610	12.1040
 2.0620	12.1230
 2.0630	12.1430
 2.0640	12.1660
 2.0650	12.1860
 2.0660	12.2010
 2.0670	12.2170
 2.0680	12.2320
 2.0690	12.2490
 2.0700	12.2630
 2.0710	12.2800
 2.0720	12.2980
 2.0730	12.3240
 2.0740	12.3460
 2.0750	12.3700
 2.0760	12.3900
 2.0770	12.4080
 2.0780	12.4250
 2.0790	12.4360
 2.0800	12.4550
 2.0810	12.4770
 2.0820	12.4980
 2.0830	12.5250
 2.0840	12.5460
 2.0850	12.5600
 2.0860	12.5770
 2.0870	12.5870
 2.0880	12.6090
 2.0890	12.6320
 2.0900	12.6630
 2.0910	12.6820
 2.0920	12.6990
 2.0930	12.7120
 2.0940	12.7080
 2.0950	12.7240
 2.0960	12.7520
 2.0970	12.7710
 2.0980	12.7960
 2.0990	12.8160
 2.1000	12.8240
 2.1010	12.8430
 2.1020	12.8730
 2.1030	12.8930
 2.1040	12.9110
 2.1050	12.9320
 2.1060	12.9480
 2.1070	12.9530
 2.1080	12.9700
 2.1090	12.9890
 2.1100	13.0120
 2.1110	13.0440
 2.1120	13.0630
 2.1130	13.0780
 2.1140	13.0930
 2.1150	13.0960
 2.1160	13.1120
 2.1170	13.1380
 2.1180	13.1630
 2.1190	13.2010
 2.1200	13.2240
 2.1210	13.2400
 2.1220	13.2560
 2.1230	13.2660
 2.1240	13.2620
 2.1250	13.2710
 2.1260	13.2850
 2.1270	13.2940
 2.1280	13.3010
 2.1290	13.3140
 2.1300	13.3250
 2.1310	13.3390
 2.1320	13.3620
 2.1330	13.3780
 2.1340	13.3880
 2.1350	13.4060
 2.1360	13.4290
 2.1370	13.4490
 2.1380	13.4800
 2.1390	13.4970
 2.1400	13.5010
 2.1410	13.5070
 2.1420	13.5200
 2.1430	13.5310
 2.1440	13.5450
 2.1450	13.5660
 2.1460	13.5860
 2.1470	13.6020
 2.1480	13.6260
 2.1490	13.6620
 2.1500	13.6910
 2.1510	13.7190
 2.1520	13.7470
 2.1530	13.7760
 2.1540	13.8020
 2.1550	13.8250
 2.1560	13.8540
 2.1570	13.8860
 2.1580	13.9150
 2.1590	13.9450
 2.1600	13.9750
 2.1610	14.0060
 2.1620	14.0410
 2.1630	14.0810
 2.1640	14.1340
 2.1650	14.1730
 2.1660	14.2110
 2.1670	14.2440
 2.1680	14.2670
 2.1690	14.2980
 2.1700	14.3320
 2.1710	14.3580
 2.1720	14.3830
 2.1730	14.4090
 2.1740	14.4270
 2.1750	14.4510
 2.1760	14.4790
 2.1770	14.5080
 2.1780	14.5400
 2.1790	14.5700
 2.1800	14.6020
 2.1810	14.6340
 2.1820	14.6630
 2.1830	14.6960
 2.1840	14.7300
 2.1850	14.7690
 2.1860	14.7970
 2.1870	14.8200
 2.1880	14.8460
 2.1890	14.8680
 2.1900	14.8940
 2.1910	14.9280
 2.1920	14.9560
 2.1930	14.9820
 2.1940	15.0080
 2.1950	15.0340
 2.1960	15.0590
 2.1970	15.0850
 2.1980	15.1100
 2.1990	15.1320
 2.2000	15.1580
 2.2010	15.1830
 2.2020	15.2130
 2.2030	15.2540
 2.2040	15.2850
 2.2050	15.3200
 2.2060	15.3410
 2.2070	15.3600
 2.2080	15.3660
 2.2090	15.3870
 2.2100	15.4120
 2.2110	15.4320
 2.2120	15.4600
 2.2130	15.4730
 2.2140	15.4690
 2.2150	15.4790
 2.2160	15.4910
 2.2170	15.5010
 2.2180	15.5160
 2.2190	15.5300
 2.2200	15.5450
 2.2210	15.5490
 2.2220	15.5520
 2.2230	15.5470
 2.2240	15.5240
 2.2250	15.5060
 2.2260	15.4850
 2.2270	15.4660
 2.2280	15.4480
 2.2290	15.4280
 2.2300	15.4120
 2.2310	15.3890
 2.2320	15.3580
 2.2330	15.3230
 2.2340	15.2940
 2.2350	15.2660
 2.2360	15.2260
 2.2370	15.1880
 2.2380	15.1420
 2.2390	15.0790
 2.2400	15.0290
 2.2410	14.9860
 2.2420	14.9370
 2.2430	14.8900
 2.2440	14.8360
 2.2450	14.7810
 2.2460	14.7170
 2.2470	14.6420
 2.2480	14.5690
 2.2490	14.4890
 2.2500	14.4170
 2.2510	14.3450
 2.2520	14.2770
 2.2530	14.2190
 2.2540	14.1490
 2.2550	14.0800
 2.2560	14.0040
 2.2570	13.9070
 2.2580	13.8270
 2.2590	13.7520
 2.2600	13.6800
 2.2610	13.6220
 2.2620	13.5640
 2.2630	13.4970
 2.2640	13.4340
 2.2650	13.3820
 2.2660	13.3310
 2.2670	13.2750
 2.2680	13.2230
 2.2690	13.1720
 2.2700	13.1120
 2.2710	13.0630
 2.2720	13.0320
 2.2730	12.9820
 2.2740	12.9260
 2.2750	12.8720
 2.2760	12.8140
 2.2770	12.7520
 2.2780	12.6790
 2.2790	12.6280
 2.2800	12.5840
 2.2810	12.5430
 2.2820	12.5260
 2.2830	12.4910
 2.2840	12.4450
 2.2850	12.4050
 2.2860	12.3660
 2.2870	12.3240
 2.2880	12.2820
 2.2890	12.2350
 2.2900	12.1810
 2.2910	12.1320
 2.2920	12.0800
 2.2930	12.0340
 2.2940	11.9960
 2.2950	11.9540
 2.2960	11.9100
 2.2970	11.8690
 2.2980	11.8290
 2.2990	11.7890
 2.3000	11.7520
 2.3010	11.7120
 2.3020	11.6610
 2.3030	11.6190
 2.3040	11.5920
 2.3050	11.5680
 2.3060	11.5530
 2.3070	11.5350
 2.3080	11.5100
 2.3090	11.4850
 2.3100	11.4690
 2.3110	11.4580
 2.3120	11.4570
 2.3130	11.4720
 2.3140	11.4730
 2.3150	11.4770
 2.3160	11.4690
 2.3170	11.4380
 2.3180	11.4300
 2.3190	11.4300
 2.3200	11.4270
 2.3210	11.4350
 2.3220	11.4310
 2.3230	11.4190
 2.3240	11.4050
 2.3250	11.3920
 2.3260	11.3660
 2.3270	11.3190
 2.3280	11.2930
 2.3290	11.2720
 2.3300	11.2460
 2.3310	11.2300
 2.3320	11.2060
 2.3330	11.1630
 2.3340	11.1330
 2.3350	11.1140
 2.3360	11.0820
 2.3370	11.0480
 2.3380	11.0130
 2.3390	10.9690
 2.3400	10.9250
 2.3410	10.8790
 2.3420	10.8310
 2.3430	10.7720
 2.3440	10.7320
 2.3450	10.7030
 2.3460	10.6770
 2.3470	10.6680
 2.3480	10.6560
 2.3490	10.6470
 2.3500	10.6410
 2.3510	10.6440
 2.3520	10.6360
 2.3530	10.6290
 2.3540	10.6080
 2.3550	10.5760
 2.3560	10.5660
 2.3570	10.5580
 2.3580	10.5470
 2.3590	10.5350
 2.3600	10.5170
 2.3610	10.4810
 2.3620	10.4630
 2.3630	10.4470
 2.3640	10.4040
 2.3650	10.3980
 2.3660	10.3760
 2.3670	10.3420
 2.3680	10.3350
 2.3690	10.2850
 2.3700	10.2490
 2.3710	10.2330
 2.3720	10.2080
 2.3730	10.2130
 2.3740	10.1920
 2.3750	10.1690
 2.3760	10.1600
 2.3770	10.1240
 2.3780	10.1060
 2.3790	10.0890
 2.3800	10.0590
 2.3810	10.0190
 2.3820	 9.9760
 2.3830	 9.9510
 2.3840	 9.9200
 2.3850	 9.9070
 2.3860	 9.9040
 2.3870	 9.8690
 2.3880	 9.8430
 2.3890	 9.8220
 2.3900	 9.8150
 2.3910	 9.8330
 2.3920	 9.8100
 2.3930	 9.7770
 2.3940	 9.7390
 2.3950	 9.6810
 2.3960	 9.6670
 2.3970	 9.6790
 2.3980	 9.6730
 2.3990	 9.6640
 2.4000	 9.6260
 2.4010	 9.5670
 2.4020	 9.5280
 2.4030	 9.4890
 2.4040	 9.4710
 2.4050	 9.4690
 2.4060	 9.4310
 2.4070	 9.4050
 2.4080	 9.3690
 2.4090	 9.2970
 2.4100	 9.2350
 2.4110	 9.1680
 2.4120	 9.1160
 2.4130	 9.1190
 2.4140	 9.1340
 2.4150	 9.1330
 2.4160	 9.1160
 2.4170	 9.0800
 2.4180	 9.0360
 2.4190	 9.0200
 2.4200	 9.0210
 2.4210	 8.9880
 2.4220	 8.9400
 2.4230	 8.8990
 2.4240	 8.8250
 2.4250	 8.7560
 2.4260	 8.7240
 2.4270	 8.6720
 2.4280	 8.6320
 2.4290	 8.6340
 2.4300	 8.5690
 2.4310	 8.5030
 2.4320	 8.4970
 2.4330	 8.4670
 2.4340	 8.4770
 2.4350	 8.4870
 2.4360	 8.4220
 2.4370	 8.3890
 2.4380	 8.3860
 2.4390	 8.3600
 2.4400	 8.3450
 2.4410	 8.3190
 2.4420	 8.2560
 2.4430	 8.2600
 2.4440	 8.3050
 2.4450	 8.2930
 2.4460	 8.2960
 2.4470	 8.2560
 2.4480	 8.1530
 2.4490	 8.1040
 2.4500	 8.0750
 2.4510	 8.0120
 2.4520	 7.9700
 2.4530	 7.9480
 2.4540	 7.8750
 2.4550	 7.8580
 2.4560	 7.8860
 2.4570	 7.8700
 2.4580	 7.8930
 2.4590	 7.8880
 2.4600	 7.8370
 2.4610	 7.7910
 2.4620	 7.7530
 2.4630	 7.7440
 2.4640	 7.7490
 2.4650	 7.7460
 2.4660	 7.7070
 2.4670	 7.6240
 2.4680	 7.5790
 2.4690	 7.6130
 2.4700	 7.6220
 2.4710	 7.6520
 2.4720	 7.6580
 2.4730	 7.6480
 2.4740	 7.6430
 2.4750	 7.6510
 2.4760	 7.6200
 2.4770	 7.5390
 2.4780	 7.5150
 2.4790	 7.4810
 2.4800	 7.4860
 2.4810	 7.6000
 2.4820	 7.5090
 2.4830	 7.4400
 2.4840	 7.4330
 2.4850	 7.4110
 2.4860	 7.4410
 2.4870	 7.4700
 2.4880	 7.3850
 2.4890	 7.3560
 2.4900	 7.4560
 2.4910	 7.5200
 2.4920	 7.6030
 2.4930	 7.6860
 2.4940	 7.6340
 2.4950	 7.5570
 2.4960	 7.5090
 2.4970	 7.4400
 2.4980	 7.4200
 2.4990	 7.4690
 2.5000	 7.6230
