Name: Quercus agrifolia 2
Type: vegetation
Class: Tree
Genus: Quercus
Species: agrifolia
Sample No.: VH080
Owner: UCSB
Wavelength Range: VSWIR
Origin: 34.7156; -120.0603; WGS84
Collection Date: 4/21/2013
Description: Samples were collected as part of the HyspIRI Airborne Campaign. 48 individual plants were sampled in three times in 2013 - spring  summer  and fall. The name of the sample includes a 1  2  or 3 which references a different individual of the species. Samples were taken to JPL and processed within 48 hours of collection. The same leaves were processed in the Nicolet and then measured using the ASD.
Measurement: Bidirectional reflectance
First Column: X
Second Column: Y
X Units: Wavelength (micrometers)
Y Units: Reflectance (percentage)
First X Value: 0.35
Last X Value: 2.5
Number of X Values: 2151
Additional Information: vegetation.tree.quercus.agrifolia.vswir.vh080.ucsb.asd.ancillary.txt

 0.3500	 7.3950
 0.3510	 7.4820
 0.3520	 7.4540
 0.3530	 7.4160
 0.3540	 7.5340
 0.3550	 7.7180
 0.3560	 7.7320
 0.3570	 7.6130
 0.3580	 7.5380
 0.3590	 7.5090
 0.3600	 7.4710
 0.3610	 7.4130
 0.3620	 7.3990
 0.3630	 7.3900
 0.3640	 7.3610
 0.3650	 7.3210
 0.3660	 7.3960
 0.3670	 7.4180
 0.3680	 7.3860
 0.3690	 7.4060
 0.3700	 7.4050
 0.3710	 7.3530
 0.3720	 7.2740
 0.3730	 7.2790
 0.3740	 7.3170
 0.3750	 7.3630
 0.3760	 7.3870
 0.3770	 7.2870
 0.3780	 7.2440
 0.3790	 7.2830
 0.3800	 7.2880
 0.3810	 7.2870
 0.3820	 7.2470
 0.3830	 7.1850
 0.3840	 7.2390
 0.3850	 7.3020
 0.3860	 7.3210
 0.3870	 7.2850
 0.3880	 7.2950
 0.3890	 7.2740
 0.3900	 7.2190
 0.3910	 7.2140
 0.3920	 7.2460
 0.3930	 7.2730
 0.3940	 7.2760
 0.3950	 7.3240
 0.3960	 7.3020
 0.3970	 7.2840
 0.3980	 7.3850
 0.3990	 7.3270
 0.4000	 7.2840
 0.4010	 7.3160
 0.4020	 7.2750
 0.4030	 7.2440
 0.4040	 7.2500
 0.4050	 7.2910
 0.4060	 7.3260
 0.4070	 7.3250
 0.4080	 7.3080
 0.4090	 7.3210
 0.4100	 7.3570
 0.4110	 7.3570
 0.4120	 7.3170
 0.4130	 7.3540
 0.4140	 7.3650
 0.4150	 7.3670
 0.4160	 7.4000
 0.4170	 7.4180
 0.4180	 7.4330
 0.4190	 7.4440
 0.4200	 7.4420
 0.4210	 7.4670
 0.4220	 7.4830
 0.4230	 7.4710
 0.4240	 7.4940
 0.4250	 7.5110
 0.4260	 7.5220
 0.4270	 7.5380
 0.4280	 7.5550
 0.4290	 7.5530
 0.4300	 7.5430
 0.4310	 7.5770
 0.4320	 7.5840
 0.4330	 7.5760
 0.4340	 7.5750
 0.4350	 7.5600
 0.4360	 7.5600
 0.4370	 7.5750
 0.4380	 7.5850
 0.4390	 7.5850
 0.4400	 7.5860
 0.4410	 7.5940
 0.4420	 7.5980
 0.4430	 7.6100
 0.4440	 7.6260
 0.4450	 7.6340
 0.4460	 7.6400
 0.4470	 7.6370
 0.4480	 7.6350
 0.4490	 7.6570
 0.4500	 7.6710
 0.4510	 7.6740
 0.4520	 7.6740
 0.4530	 7.6860
 0.4540	 7.6890
 0.4550	 7.6850
 0.4560	 7.6920
 0.4570	 7.7020
 0.4580	 7.7090
 0.4590	 7.7100
 0.4600	 7.7180
 0.4610	 7.7180
 0.4620	 7.7120
 0.4630	 7.7060
 0.4640	 7.7040
 0.4650	 7.7040
 0.4660	 7.7080
 0.4670	 7.7240
 0.4680	 7.7170
 0.4690	 7.7050
 0.4700	 7.7020
 0.4710	 7.7040
 0.4720	 7.7100
 0.4730	 7.7130
 0.4740	 7.7080
 0.4750	 7.7010
 0.4760	 7.7030
 0.4770	 7.7110
 0.4780	 7.6980
 0.4790	 7.6980
 0.4800	 7.7010
 0.4810	 7.6960
 0.4820	 7.7040
 0.4830	 7.7120
 0.4840	 7.7150
 0.4850	 7.7100
 0.4860	 7.7100
 0.4870	 7.7150
 0.4880	 7.7230
 0.4890	 7.7310
 0.4900	 7.7400
 0.4910	 7.7490
 0.4920	 7.7540
 0.4930	 7.7670
 0.4940	 7.7720
 0.4950	 7.7700
 0.4960	 7.7920
 0.4970	 7.8100
 0.4980	 7.8310
 0.4990	 7.8660
 0.5000	 7.8840
 0.5010	 7.9090
 0.5020	 7.9410
 0.5030	 7.9630
 0.5040	 8.0020
 0.5050	 8.0410
 0.5060	 8.0710
 0.5070	 8.1230
 0.5080	 8.1740
 0.5090	 8.2250
 0.5100	 8.2890
 0.5110	 8.3570
 0.5120	 8.4370
 0.5130	 8.5250
 0.5140	 8.6070
 0.5150	 8.7040
 0.5160	 8.8170
 0.5170	 8.9370
 0.5180	 9.0600
 0.5190	 9.1910
 0.5200	 9.3290
 0.5210	 9.4690
 0.5220	 9.6150
 0.5230	 9.7660
 0.5240	 9.9180
 0.5250	10.0550
 0.5260	10.1900
 0.5270	10.3230
 0.5280	10.4490
 0.5290	10.5750
 0.5300	10.6900
 0.5310	10.7900
 0.5320	10.8840
 0.5330	10.9710
 0.5340	11.0520
 0.5350	11.1230
 0.5360	11.1820
 0.5370	11.2370
 0.5380	11.2880
 0.5390	11.3280
 0.5400	11.3600
 0.5410	11.3900
 0.5420	11.4230
 0.5430	11.4550
 0.5440	11.4840
 0.5450	11.5130
 0.5460	11.5460
 0.5470	11.5730
 0.5480	11.6010
 0.5490	11.6300
 0.5500	11.6480
 0.5510	11.6600
 0.5520	11.6630
 0.5530	11.6590
 0.5540	11.6430
 0.5550	11.6160
 0.5560	11.5750
 0.5570	11.5260
 0.5580	11.4660
 0.5590	11.4030
 0.5600	11.3390
 0.5610	11.2660
 0.5620	11.1970
 0.5630	11.1280
 0.5640	11.0490
 0.5650	10.9630
 0.5660	10.8660
 0.5670	10.7560
 0.5680	10.6400
 0.5690	10.5230
 0.5700	10.4060
 0.5710	10.2960
 0.5720	10.2020
 0.5730	10.1190
 0.5740	10.0460
 0.5750	 9.9840
 0.5760	 9.9300
 0.5770	 9.8740
 0.5780	 9.8150
 0.5790	 9.7560
 0.5800	 9.7060
 0.5810	 9.6640
 0.5820	 9.6270
 0.5830	 9.5930
 0.5840	 9.5460
 0.5850	 9.4860
 0.5860	 9.4250
 0.5870	 9.3630
 0.5880	 9.3090
 0.5890	 9.2700
 0.5900	 9.2570
 0.5910	 9.2540
 0.5920	 9.2540
 0.5930	 9.2570
 0.5940	 9.2530
 0.5950	 9.2420
 0.5960	 9.2240
 0.5970	 9.2000
 0.5980	 9.1750
 0.5990	 9.1520
 0.6000	 9.1310
 0.6010	 9.1080
 0.6020	 9.0870
 0.6030	 9.0650
 0.6040	 9.0430
 0.6050	 9.0200
 0.6060	 8.9930
 0.6070	 8.9600
 0.6080	 8.9260
 0.6090	 8.8900
 0.6100	 8.8450
 0.6110	 8.7910
 0.6120	 8.7520
 0.6130	 8.7230
 0.6140	 8.6960
 0.6150	 8.6650
 0.6160	 8.6300
 0.6170	 8.6000
 0.6180	 8.5790
 0.6190	 8.5580
 0.6200	 8.5300
 0.6210	 8.5020
 0.6220	 8.4860
 0.6230	 8.4720
 0.6240	 8.4600
 0.6250	 8.4500
 0.6260	 8.4410
 0.6270	 8.4280
 0.6280	 8.4160
 0.6290	 8.4150
 0.6300	 8.4130
 0.6310	 8.4100
 0.6320	 8.4050
 0.6330	 8.3940
 0.6340	 8.3820
 0.6350	 8.3690
 0.6360	 8.3530
 0.6370	 8.3340
 0.6380	 8.3100
 0.6390	 8.2830
 0.6400	 8.2550
 0.6410	 8.2220
 0.6420	 8.1890
 0.6430	 8.1580
 0.6440	 8.1290
 0.6450	 8.1030
 0.6460	 8.0750
 0.6470	 8.0430
 0.6480	 8.0150
 0.6490	 7.9970
 0.6500	 7.9830
 0.6510	 7.9620
 0.6520	 7.9500
 0.6530	 7.9380
 0.6540	 7.9220
 0.6550	 7.9110
 0.6560	 7.9000
 0.6570	 7.8840
 0.6580	 7.8610
 0.6590	 7.8490
 0.6600	 7.8350
 0.6610	 7.8160
 0.6620	 7.8010
 0.6630	 7.7810
 0.6640	 7.7650
 0.6650	 7.7590
 0.6660	 7.7530
 0.6670	 7.7450
 0.6680	 7.7380
 0.6690	 7.7410
 0.6700	 7.7470
 0.6710	 7.7530
 0.6720	 7.7610
 0.6730	 7.7720
 0.6740	 7.7830
 0.6750	 7.7960
 0.6760	 7.8130
 0.6770	 7.8380
 0.6780	 7.8590
 0.6790	 7.8770
 0.6800	 7.9090
 0.6810	 7.9380
 0.6820	 7.9690
 0.6830	 8.0070
 0.6840	 8.0470
 0.6850	 8.0920
 0.6860	 8.1390
 0.6870	 8.1880
 0.6880	 8.2540
 0.6890	 8.3380
 0.6900	 8.4400
 0.6910	 8.5600
 0.6920	 8.7160
 0.6930	 8.9090
 0.6940	 9.1400
 0.6950	 9.4220
 0.6960	 9.7530
 0.6970	10.1380
 0.6980	10.5830
 0.6990	11.0770
 0.7000	11.6200
 0.7010	12.2120
 0.7020	12.8490
 0.7030	13.5220
 0.7040	14.2190
 0.7050	14.9340
 0.7060	15.6760
 0.7070	16.4300
 0.7080	17.1910
 0.7090	17.9630
 0.7100	18.7400
 0.7110	19.5210
 0.7120	20.3030
 0.7130	21.0820
 0.7140	21.8680
 0.7150	22.6550
 0.7160	23.4330
 0.7170	24.1980
 0.7180	24.9530
 0.7190	25.7030
 0.7200	26.4510
 0.7210	27.1810
 0.7220	27.8930
 0.7230	28.5860
 0.7240	29.2570
 0.7250	29.9180
 0.7260	30.5560
 0.7270	31.1650
 0.7280	31.7630
 0.7290	32.3360
 0.7300	32.8780
 0.7310	33.3900
 0.7320	33.8770
 0.7330	34.3450
 0.7340	34.7930
 0.7350	35.2090
 0.7360	35.6060
 0.7370	35.9830
 0.7380	36.3390
 0.7390	36.6730
 0.7400	36.9780
 0.7410	37.2650
 0.7420	37.5490
 0.7430	37.7980
 0.7440	38.0300
 0.7450	38.2500
 0.7460	38.4420
 0.7470	38.6230
 0.7480	38.7950
 0.7490	38.9530
 0.7500	39.0900
 0.7510	39.2150
 0.7520	39.3280
 0.7530	39.4260
 0.7540	39.5230
 0.7550	39.6110
 0.7560	39.6900
 0.7570	39.7650
 0.7580	39.8300
 0.7590	39.8860
 0.7600	39.9370
 0.7610	39.9850
 0.7620	40.0240
 0.7630	40.0590
 0.7640	40.0970
 0.7650	40.1330
 0.7660	40.1640
 0.7670	40.1860
 0.7680	40.1920
 0.7690	40.2110
 0.7700	40.2370
 0.7710	40.2610
 0.7720	40.2750
 0.7730	40.2810
 0.7740	40.2890
 0.7750	40.3030
 0.7760	40.3130
 0.7770	40.3200
 0.7780	40.3330
 0.7790	40.3570
 0.7800	40.3590
 0.7810	40.3650
 0.7820	40.3830
 0.7830	40.3930
 0.7840	40.3940
 0.7850	40.3970
 0.7860	40.4080
 0.7870	40.4140
 0.7880	40.4260
 0.7890	40.4410
 0.7900	40.4540
 0.7910	40.4520
 0.7920	40.4470
 0.7930	40.4510
 0.7940	40.4740
 0.7950	40.4760
 0.7960	40.4780
 0.7970	40.4900
 0.7980	40.5020
 0.7990	40.4950
 0.8000	40.4880
 0.8010	40.4950
 0.8020	40.4980
 0.8030	40.5000
 0.8040	40.5040
 0.8050	40.5100
 0.8060	40.5070
 0.8070	40.5000
 0.8080	40.4970
 0.8090	40.5010
 0.8100	40.4940
 0.8110	40.4940
 0.8120	40.5060
 0.8130	40.5060
 0.8140	40.5000
 0.8150	40.4940
 0.8160	40.4940
 0.8170	40.4950
 0.8180	40.4900
 0.8190	40.4840
 0.8200	40.4830
 0.8210	40.4780
 0.8220	40.4720
 0.8230	40.4690
 0.8240	40.4710
 0.8250	40.4700
 0.8260	40.4630
 0.8270	40.4500
 0.8280	40.4410
 0.8290	40.4380
 0.8300	40.4410
 0.8310	40.4460
 0.8320	40.4410
 0.8330	40.4300
 0.8340	40.4210
 0.8350	40.4210
 0.8360	40.4200
 0.8370	40.4200
 0.8380	40.4230
 0.8390	40.4260
 0.8400	40.4130
 0.8410	40.4060
 0.8420	40.4100
 0.8430	40.4080
 0.8440	40.4060
 0.8450	40.4090
 0.8460	40.4190
 0.8470	40.4280
 0.8480	40.4220
 0.8490	40.4130
 0.8500	40.4150
 0.8510	40.4090
 0.8520	40.4100
 0.8530	40.4160
 0.8540	40.4210
 0.8550	40.4310
 0.8560	40.4340
 0.8570	40.4290
 0.8580	40.4260
 0.8590	40.4280
 0.8600	40.4370
 0.8610	40.4480
 0.8620	40.4440
 0.8630	40.4370
 0.8640	40.4410
 0.8650	40.4610
 0.8660	40.4640
 0.8670	40.4660
 0.8680	40.4650
 0.8690	40.4590
 0.8700	40.4770
 0.8710	40.4820
 0.8720	40.4770
 0.8730	40.4850
 0.8740	40.4930
 0.8750	40.4940
 0.8760	40.4910
 0.8770	40.5000
 0.8780	40.5230
 0.8790	40.5330
 0.8800	40.5240
 0.8810	40.5240
 0.8820	40.5330
 0.8830	40.5440
 0.8840	40.5480
 0.8850	40.5430
 0.8860	40.5500
 0.8870	40.5570
 0.8880	40.5530
 0.8890	40.5650
 0.8900	40.5730
 0.8910	40.5810
 0.8920	40.5990
 0.8930	40.5990
 0.8940	40.5980
 0.8950	40.6020
 0.8960	40.6080
 0.8970	40.6010
 0.8980	40.6090
 0.8990	40.6250
 0.9000	40.6140
 0.9010	40.6150
 0.9020	40.6300
 0.9030	40.6430
 0.9040	40.6330
 0.9050	40.6300
 0.9060	40.6410
 0.9070	40.6570
 0.9080	40.6420
 0.9090	40.6470
 0.9100	40.6630
 0.9110	40.6720
 0.9120	40.6790
 0.9130	40.6840
 0.9140	40.6950
 0.9150	40.7110
 0.9160	40.6920
 0.9170	40.6840
 0.9180	40.6930
 0.9190	40.7010
 0.9200	40.7020
 0.9210	40.7020
 0.9220	40.7060
 0.9230	40.7110
 0.9240	40.7090
 0.9250	40.6960
 0.9260	40.6820
 0.9270	40.6850
 0.9280	40.6940
 0.9290	40.6960
 0.9300	40.6890
 0.9310	40.6810
 0.9320	40.6660
 0.9330	40.6650
 0.9340	40.6700
 0.9350	40.6420
 0.9360	40.6390
 0.9370	40.6380
 0.9380	40.6190
 0.9390	40.5940
 0.9400	40.6020
 0.9410	40.6040
 0.9420	40.5800
 0.9430	40.5630
 0.9440	40.5540
 0.9450	40.5420
 0.9460	40.5210
 0.9470	40.5050
 0.9480	40.4790
 0.9490	40.4450
 0.9500	40.4130
 0.9510	40.4000
 0.9520	40.3870
 0.9530	40.3630
 0.9540	40.3270
 0.9550	40.2820
 0.9560	40.2620
 0.9570	40.2500
 0.9580	40.2200
 0.9590	40.1830
 0.9600	40.1420
 0.9610	40.1160
 0.9620	40.1120
 0.9630	40.0910
 0.9640	40.0620
 0.9650	40.0370
 0.9660	40.0270
 0.9670	40.0170
 0.9680	40.0160
 0.9690	40.0200
 0.9700	40.0170
 0.9710	39.9990
 0.9720	39.9900
 0.9730	39.9910
 0.9740	39.9900
 0.9750	39.9650
 0.9760	39.9690
 0.9770	39.9920
 0.9780	39.9980
 0.9790	39.9710
 0.9800	39.9700
 0.9810	39.9780
 0.9820	39.9610
 0.9830	39.9770
 0.9840	39.9780
 0.9850	39.9720
 0.9860	39.9870
 0.9870	39.9920
 0.9880	40.0230
 0.9890	40.0460
 0.9900	40.0210
 0.9910	40.0340
 0.9920	40.0410
 0.9930	40.0470
 0.9940	40.0540
 0.9950	40.0600
 0.9960	40.0670
 0.9970	40.0730
 0.9980	40.0790
 0.9990	40.0860
 1.0000	40.0920
 1.0010	40.0990
 1.0020	40.1050
 1.0030	40.1120
 1.0040	40.1180
 1.0050	40.1240
 1.0060	40.1310
 1.0070	40.1370
 1.0080	40.1440
 1.0090	40.1500
 1.0100	40.1500
 1.0110	40.1590
 1.0120	40.1720
 1.0130	40.1930
 1.0140	40.2070
 1.0150	40.2200
 1.0160	40.2350
 1.0170	40.2450
 1.0180	40.2550
 1.0190	40.2670
 1.0200	40.2770
 1.0210	40.2890
 1.0220	40.3000
 1.0230	40.3100
 1.0240	40.3200
 1.0250	40.3300
 1.0260	40.3370
 1.0270	40.3460
 1.0280	40.3570
 1.0290	40.3680
 1.0300	40.3800
 1.0310	40.3910
 1.0320	40.4020
 1.0330	40.4120
 1.0340	40.4220
 1.0350	40.4310
 1.0360	40.4410
 1.0370	40.4510
 1.0380	40.4610
 1.0390	40.4710
 1.0400	40.4790
 1.0410	40.4870
 1.0420	40.4960
 1.0430	40.5050
 1.0440	40.5130
 1.0450	40.5220
 1.0460	40.5300
 1.0470	40.5350
 1.0480	40.5430
 1.0490	40.5540
 1.0500	40.5640
 1.0510	40.5750
 1.0520	40.5840
 1.0530	40.5900
 1.0540	40.5920
 1.0550	40.5990
 1.0560	40.6060
 1.0570	40.6140
 1.0580	40.6250
 1.0590	40.6330
 1.0600	40.6380
 1.0610	40.6460
 1.0620	40.6530
 1.0630	40.6610
 1.0640	40.6720
 1.0650	40.6780
 1.0660	40.6800
 1.0670	40.6830
 1.0680	40.6850
 1.0690	40.6840
 1.0700	40.6840
 1.0710	40.6840
 1.0720	40.6850
 1.0730	40.6890
 1.0740	40.6900
 1.0750	40.6910
 1.0760	40.6930
 1.0770	40.6930
 1.0780	40.6930
 1.0790	40.6930
 1.0800	40.6920
 1.0810	40.6890
 1.0820	40.6870
 1.0830	40.6860
 1.0840	40.6850
 1.0850	40.6850
 1.0860	40.6850
 1.0870	40.6830
 1.0880	40.6820
 1.0890	40.6790
 1.0900	40.6730
 1.0910	40.6700
 1.0920	40.6660
 1.0930	40.6630
 1.0940	40.6610
 1.0950	40.6580
 1.0960	40.6550
 1.0970	40.6500
 1.0980	40.6440
 1.0990	40.6390
 1.1000	40.6320
 1.1010	40.6250
 1.1020	40.6170
 1.1030	40.6120
 1.1040	40.6050
 1.1050	40.5980
 1.1060	40.5910
 1.1070	40.5850
 1.1080	40.5770
 1.1090	40.5680
 1.1100	40.5600
 1.1110	40.5510
 1.1120	40.5420
 1.1130	40.5350
 1.1140	40.5250
 1.1150	40.5160
 1.1160	40.5030
 1.1170	40.4860
 1.1180	40.4710
 1.1190	40.4570
 1.1200	40.4420
 1.1210	40.4270
 1.1220	40.4110
 1.1230	40.3910
 1.1240	40.3670
 1.1250	40.3410
 1.1260	40.3140
 1.1270	40.2830
 1.1280	40.2500
 1.1290	40.2140
 1.1300	40.1760
 1.1310	40.1340
 1.1320	40.0880
 1.1330	40.0390
 1.1340	39.9860
 1.1350	39.9280
 1.1360	39.8630
 1.1370	39.7970
 1.1380	39.7270
 1.1390	39.6530
 1.1400	39.5800
 1.1410	39.5030
 1.1420	39.4230
 1.1430	39.3440
 1.1440	39.2630
 1.1450	39.1790
 1.1460	39.0990
 1.1470	39.0190
 1.1480	38.9420
 1.1490	38.8660
 1.1500	38.7960
 1.1510	38.7290
 1.1520	38.6650
 1.1530	38.6030
 1.1540	38.5470
 1.1550	38.4920
 1.1560	38.4420
 1.1570	38.3990
 1.1580	38.3620
 1.1590	38.3270
 1.1600	38.2950
 1.1610	38.2670
 1.1620	38.2430
 1.1630	38.2200
 1.1640	38.1990
 1.1650	38.1810
 1.1660	38.1660
 1.1670	38.1530
 1.1680	38.1450
 1.1690	38.1360
 1.1700	38.1270
 1.1710	38.1190
 1.1720	38.1100
 1.1730	38.1010
 1.1740	38.0920
 1.1750	38.0850
 1.1760	38.0750
 1.1770	38.0650
 1.1780	38.0560
 1.1790	38.0440
 1.1800	38.0330
 1.1810	38.0210
 1.1820	38.0100
 1.1830	37.9970
 1.1840	37.9840
 1.1850	37.9720
 1.1860	37.9610
 1.1870	37.9510
 1.1880	37.9430
 1.1890	37.9360
 1.1900	37.9290
 1.1910	37.9220
 1.1920	37.9160
 1.1930	37.9110
 1.1940	37.9060
 1.1950	37.9010
 1.1960	37.9000
 1.1970	37.8990
 1.1980	37.8970
 1.1990	37.8970
 1.2000	37.8970
 1.2010	37.9000
 1.2020	37.9030
 1.2030	37.9070
 1.2040	37.9130
 1.2050	37.9180
 1.2060	37.9240
 1.2070	37.9300
 1.2080	37.9370
 1.2090	37.9480
 1.2100	37.9630
 1.2110	37.9750
 1.2120	37.9890
 1.2130	38.0030
 1.2140	38.0150
 1.2150	38.0300
 1.2160	38.0490
 1.2170	38.0710
 1.2180	38.0930
 1.2190	38.1150
 1.2200	38.1370
 1.2210	38.1580
 1.2220	38.1810
 1.2230	38.2040
 1.2240	38.2270
 1.2250	38.2490
 1.2260	38.2720
 1.2270	38.2950
 1.2280	38.3180
 1.2290	38.3410
 1.2300	38.3640
 1.2310	38.3840
 1.2320	38.4030
 1.2330	38.4230
 1.2340	38.4420
 1.2350	38.4610
 1.2360	38.4780
 1.2370	38.4960
 1.2380	38.5110
 1.2390	38.5250
 1.2400	38.5380
 1.2410	38.5530
 1.2420	38.5680
 1.2430	38.5830
 1.2440	38.5980
 1.2450	38.6130
 1.2460	38.6270
 1.2470	38.6370
 1.2480	38.6480
 1.2490	38.6590
 1.2500	38.6700
 1.2510	38.6810
 1.2520	38.6930
 1.2530	38.7020
 1.2540	38.7110
 1.2550	38.7190
 1.2560	38.7270
 1.2570	38.7340
 1.2580	38.7410
 1.2590	38.7470
 1.2600	38.7530
 1.2610	38.7580
 1.2620	38.7610
 1.2630	38.7640
 1.2640	38.7670
 1.2650	38.7690
 1.2660	38.7730
 1.2670	38.7750
 1.2680	38.7760
 1.2690	38.7760
 1.2700	38.7750
 1.2710	38.7710
 1.2720	38.7680
 1.2730	38.7680
 1.2740	38.7670
 1.2750	38.7650
 1.2760	38.7630
 1.2770	38.7590
 1.2780	38.7520
 1.2790	38.7450
 1.2800	38.7400
 1.2810	38.7320
 1.2820	38.7220
 1.2830	38.7170
 1.2840	38.7090
 1.2850	38.7020
 1.2860	38.6960
 1.2870	38.6870
 1.2880	38.6770
 1.2890	38.6660
 1.2900	38.6550
 1.2910	38.6420
 1.2920	38.6280
 1.2930	38.6130
 1.2940	38.5970
 1.2950	38.5790
 1.2960	38.5610
 1.2970	38.5440
 1.2980	38.5230
 1.2990	38.5000
 1.3000	38.4760
 1.3010	38.4470
 1.3020	38.4170
 1.3030	38.3880
 1.3040	38.3560
 1.3050	38.3240
 1.3060	38.2920
 1.3070	38.2560
 1.3080	38.2170
 1.3090	38.1760
 1.3100	38.1320
 1.3110	38.0840
 1.3120	38.0360
 1.3130	37.9860
 1.3140	37.9320
 1.3150	37.8770
 1.3160	37.8190
 1.3170	37.7600
 1.3180	37.6970
 1.3190	37.6330
 1.3200	37.5670
 1.3210	37.5010
 1.3220	37.4340
 1.3230	37.3630
 1.3240	37.2880
 1.3250	37.2100
 1.3260	37.1290
 1.3270	37.0470
 1.3280	36.9640
 1.3290	36.8810
 1.3300	36.7960
 1.3310	36.7080
 1.3320	36.6200
 1.3330	36.5300
 1.3340	36.4390
 1.3350	36.3480
 1.3360	36.2560
 1.3370	36.1640
 1.3380	36.0710
 1.3390	35.9750
 1.3400	35.8810
 1.3410	35.7870
 1.3420	35.6920
 1.3430	35.6000
 1.3440	35.5070
 1.3450	35.4130
 1.3460	35.3190
 1.3470	35.2270
 1.3480	35.1340
 1.3490	35.0450
 1.3500	34.9590
 1.3510	34.8720
 1.3520	34.7850
 1.3530	34.6990
 1.3540	34.6130
 1.3550	34.5250
 1.3560	34.4380
 1.3570	34.3510
 1.3580	34.2630
 1.3590	34.1730
 1.3600	34.0810
 1.3610	33.9870
 1.3620	33.8890
 1.3630	33.7880
 1.3640	33.6840
 1.3650	33.5730
 1.3660	33.4560
 1.3670	33.3340
 1.3680	33.2040
 1.3690	33.0660
 1.3700	32.9200
 1.3710	32.7650
 1.3720	32.6020
 1.3730	32.4260
 1.3740	32.2390
 1.3750	32.0370
 1.3760	31.8180
 1.3770	31.5840
 1.3780	31.3330
 1.3790	31.0640
 1.3800	30.7790
 1.3810	30.4730
 1.3820	30.1530
 1.3830	29.8180
 1.3840	29.4650
 1.3850	29.0970
 1.3860	28.7150
 1.3870	28.3130
 1.3880	27.9040
 1.3890	27.4830
 1.3900	27.0510
 1.3910	26.6160
 1.3920	26.1720
 1.3930	25.7240
 1.3940	25.2750
 1.3950	24.8200
 1.3960	24.3710
 1.3970	23.9280
 1.3980	23.4910
 1.3990	23.0680
 1.4000	22.6540
 1.4010	22.2500
 1.4020	21.8600
 1.4030	21.4800
 1.4040	21.1160
 1.4050	20.7690
 1.4060	20.4350
 1.4070	20.1230
 1.4080	19.8270
 1.4090	19.5450
 1.4100	19.2830
 1.4110	19.0350
 1.4120	18.8040
 1.4130	18.5880
 1.4140	18.3890
 1.4150	18.2070
 1.4160	18.0370
 1.4170	17.8810
 1.4180	17.7380
 1.4190	17.6030
 1.4200	17.4810
 1.4210	17.3690
 1.4220	17.2660
 1.4230	17.1750
 1.4240	17.0920
 1.4250	17.0160
 1.4260	16.9490
 1.4270	16.8870
 1.4280	16.8320
 1.4290	16.7830
 1.4300	16.7420
 1.4310	16.7040
 1.4320	16.6730
 1.4330	16.6450
 1.4340	16.6210
 1.4350	16.6010
 1.4360	16.5850
 1.4370	16.5730
 1.4380	16.5650
 1.4390	16.5610
 1.4400	16.5600
 1.4410	16.5610
 1.4420	16.5630
 1.4430	16.5690
 1.4440	16.5760
 1.4450	16.5850
 1.4460	16.5960
 1.4470	16.6070
 1.4480	16.6210
 1.4490	16.6350
 1.4500	16.6500
 1.4510	16.6670
 1.4520	16.6830
 1.4530	16.7000
 1.4540	16.7190
 1.4550	16.7390
 1.4560	16.7620
 1.4570	16.7860
 1.4580	16.8140
 1.4590	16.8440
 1.4600	16.8770
 1.4610	16.9140
 1.4620	16.9530
 1.4630	16.9970
 1.4640	17.0440
 1.4650	17.0950
 1.4660	17.1500
 1.4670	17.2090
 1.4680	17.2720
 1.4690	17.3390
 1.4700	17.4090
 1.4710	17.4820
 1.4720	17.5580
 1.4730	17.6370
 1.4740	17.7190
 1.4750	17.8050
 1.4760	17.8940
 1.4770	17.9850
 1.4780	18.0770
 1.4790	18.1710
 1.4800	18.2640
 1.4810	18.3600
 1.4820	18.4580
 1.4830	18.5560
 1.4840	18.6560
 1.4850	18.7550
 1.4860	18.8540
 1.4870	18.9550
 1.4880	19.0560
 1.4890	19.1560
 1.4900	19.2580
 1.4910	19.3590
 1.4920	19.4610
 1.4930	19.5640
 1.4940	19.6670
 1.4950	19.7710
 1.4960	19.8740
 1.4970	19.9760
 1.4980	20.0800
 1.4990	20.1830
 1.5000	20.2870
 1.5010	20.3910
 1.5020	20.4950
 1.5030	20.5990
 1.5040	20.7020
 1.5050	20.8040
 1.5060	20.9060
 1.5070	21.0070
 1.5080	21.1080
 1.5090	21.2080
 1.5100	21.3080
 1.5110	21.4070
 1.5120	21.5070
 1.5130	21.6050
 1.5140	21.7020
 1.5150	21.7970
 1.5160	21.8920
 1.5170	21.9870
 1.5180	22.0800
 1.5190	22.1740
 1.5200	22.2670
 1.5210	22.3580
 1.5220	22.4490
 1.5230	22.5410
 1.5240	22.6300
 1.5250	22.7190
 1.5260	22.8070
 1.5270	22.8930
 1.5280	22.9800
 1.5290	23.0640
 1.5300	23.1470
 1.5310	23.2300
 1.5320	23.3130
 1.5330	23.3960
 1.5340	23.4780
 1.5350	23.5590
 1.5360	23.6400
 1.5370	23.7180
 1.5380	23.7960
 1.5390	23.8750
 1.5400	23.9520
 1.5410	24.0280
 1.5420	24.1030
 1.5430	24.1760
 1.5440	24.2500
 1.5450	24.3230
 1.5460	24.3960
 1.5470	24.4680
 1.5480	24.5390
 1.5490	24.6090
 1.5500	24.6790
 1.5510	24.7480
 1.5520	24.8160
 1.5530	24.8820
 1.5540	24.9490
 1.5550	25.0160
 1.5560	25.0800
 1.5570	25.1450
 1.5580	25.2080
 1.5590	25.2700
 1.5600	25.3330
 1.5610	25.3950
 1.5620	25.4560
 1.5630	25.5150
 1.5640	25.5740
 1.5650	25.6330
 1.5660	25.6910
 1.5670	25.7490
 1.5680	25.8090
 1.5690	25.8640
 1.5700	25.9190
 1.5710	25.9730
 1.5720	26.0250
 1.5730	26.0780
 1.5740	26.1340
 1.5750	26.1880
 1.5760	26.2440
 1.5770	26.2970
 1.5780	26.3490
 1.5790	26.4030
 1.5800	26.4560
 1.5810	26.5110
 1.5820	26.5650
 1.5830	26.6160
 1.5840	26.6680
 1.5850	26.7190
 1.5860	26.7690
 1.5870	26.8180
 1.5880	26.8670
 1.5890	26.9170
 1.5900	26.9680
 1.5910	27.0170
 1.5920	27.0670
 1.5930	27.1150
 1.5940	27.1630
 1.5950	27.2120
 1.5960	27.2610
 1.5970	27.3090
 1.5980	27.3580
 1.5990	27.4070
 1.6000	27.4570
 1.6010	27.5060
 1.6020	27.5540
 1.6030	27.5990
 1.6040	27.6440
 1.6050	27.6900
 1.6060	27.7340
 1.6070	27.7790
 1.6080	27.8260
 1.6090	27.8700
 1.6100	27.9140
 1.6110	27.9580
 1.6120	28.0000
 1.6130	28.0400
 1.6140	28.0800
 1.6150	28.1190
 1.6160	28.1570
 1.6170	28.1930
 1.6180	28.2290
 1.6190	28.2640
 1.6200	28.2980
 1.6210	28.3330
 1.6220	28.3670
 1.6230	28.3990
 1.6240	28.4310
 1.6250	28.4600
 1.6260	28.4880
 1.6270	28.5160
 1.6280	28.5430
 1.6290	28.5710
 1.6300	28.6000
 1.6310	28.6250
 1.6320	28.6500
 1.6330	28.6740
 1.6340	28.6960
 1.6350	28.7180
 1.6360	28.7410
 1.6370	28.7610
 1.6380	28.7790
 1.6390	28.7960
 1.6400	28.8110
 1.6410	28.8240
 1.6420	28.8350
 1.6430	28.8440
 1.6440	28.8510
 1.6450	28.8560
 1.6460	28.8590
 1.6470	28.8590
 1.6480	28.8580
 1.6490	28.8550
 1.6500	28.8520
 1.6510	28.8470
 1.6520	28.8410
 1.6530	28.8340
 1.6540	28.8270
 1.6550	28.8210
 1.6560	28.8150
 1.6570	28.8080
 1.6580	28.8010
 1.6590	28.7930
 1.6600	28.7870
 1.6610	28.7820
 1.6620	28.7770
 1.6630	28.7720
 1.6640	28.7680
 1.6650	28.7630
 1.6660	28.7580
 1.6670	28.7540
 1.6680	28.7500
 1.6690	28.7440
 1.6700	28.7390
 1.6710	28.7320
 1.6720	28.7240
 1.6730	28.7160
 1.6740	28.7070
 1.6750	28.6950
 1.6760	28.6830
 1.6770	28.6670
 1.6780	28.6460
 1.6790	28.6260
 1.6800	28.6040
 1.6810	28.5780
 1.6820	28.5530
 1.6830	28.5250
 1.6840	28.4960
 1.6850	28.4660
 1.6860	28.4340
 1.6870	28.3990
 1.6880	28.3630
 1.6890	28.3250
 1.6900	28.2880
 1.6910	28.2510
 1.6920	28.2140
 1.6930	28.1790
 1.6940	28.1400
 1.6950	28.0980
 1.6960	28.0570
 1.6970	28.0140
 1.6980	27.9740
 1.6990	27.9350
 1.7000	27.8960
 1.7010	27.8560
 1.7020	27.8160
 1.7030	27.7740
 1.7040	27.7320
 1.7050	27.6870
 1.7060	27.6420
 1.7070	27.5980
 1.7080	27.5520
 1.7090	27.5050
 1.7100	27.4580
 1.7110	27.4090
 1.7120	27.3600
 1.7130	27.3130
 1.7140	27.2670
 1.7150	27.2190
 1.7160	27.1750
 1.7170	27.1310
 1.7180	27.0850
 1.7190	27.0410
 1.7200	26.9970
 1.7210	26.9530
 1.7220	26.9130
 1.7230	26.8740
 1.7240	26.8350
 1.7250	26.7980
 1.7260	26.7640
 1.7270	26.7320
 1.7280	26.7010
 1.7290	26.6740
 1.7300	26.6460
 1.7310	26.6240
 1.7320	26.6070
 1.7330	26.5910
 1.7340	26.5790
 1.7350	26.5660
 1.7360	26.5540
 1.7370	26.5410
 1.7380	26.5290
 1.7390	26.5110
 1.7400	26.4890
 1.7410	26.4650
 1.7420	26.4340
 1.7430	26.4030
 1.7440	26.3690
 1.7450	26.3340
 1.7460	26.2970
 1.7470	26.2580
 1.7480	26.2180
 1.7490	26.1760
 1.7500	26.1300
 1.7510	26.0840
 1.7520	26.0370
 1.7530	25.9900
 1.7540	25.9430
 1.7550	25.8960
 1.7560	25.8500
 1.7570	25.8030
 1.7580	25.7560
 1.7590	25.7110
 1.7600	25.6660
 1.7610	25.6230
 1.7620	25.5850
 1.7630	25.5500
 1.7640	25.5170
 1.7650	25.4890
 1.7660	25.4610
 1.7670	25.4350
 1.7680	25.4090
 1.7690	25.3850
 1.7700	25.3600
 1.7710	25.3340
 1.7720	25.3110
 1.7730	25.2910
 1.7740	25.2700
 1.7750	25.2520
 1.7760	25.2320
 1.7770	25.2090
 1.7780	25.1890
 1.7790	25.1710
 1.7800	25.1530
 1.7810	25.1380
 1.7820	25.1230
 1.7830	25.1070
 1.7840	25.0930
 1.7850	25.0780
 1.7860	25.0660
 1.7870	25.0530
 1.7880	25.0440
 1.7890	25.0380
 1.7900	25.0350
 1.7910	25.0320
 1.7920	25.0310
 1.7930	25.0300
 1.7940	25.0300
 1.7950	25.0300
 1.7960	25.0320
 1.7970	25.0350
 1.7980	25.0400
 1.7990	25.0440
 1.8000	25.0500
 1.8010	25.0540
 1.8020	25.0560
 1.8030	25.0600
 1.8040	25.0640
 1.8050	25.0670
 1.8060	25.0720
 1.8070	25.0750
 1.8080	25.0790
 1.8090	25.0810
 1.8100	25.0820
 1.8110	25.0860
 1.8120	25.0900
 1.8130	25.0970
 1.8140	25.1050
 1.8150	25.1090
 1.8160	25.1120
 1.8170	25.1170
 1.8180	25.1200
 1.8190	25.1220
 1.8200	25.1240
 1.8210	25.1250
 1.8220	25.1250
 1.8230	25.1270
 1.8240	25.1260
 1.8250	25.1210
 1.8260	25.1190
 1.8270	25.0980
 1.8280	25.0770
 1.8290	25.0550
 1.8300	25.0340
 1.8310	25.0130
 1.8320	24.9910
 1.8330	24.9700
 1.8340	24.9490
 1.8350	24.9490
 1.8360	24.9220
 1.8370	24.8930
 1.8380	24.8630
 1.8390	24.8240
 1.8400	24.7790
 1.8410	24.7330
 1.8420	24.6850
 1.8430	24.6260
 1.8440	24.5660
 1.8450	24.5030
 1.8460	24.4280
 1.8470	24.3500
 1.8480	24.2650
 1.8490	24.1700
 1.8500	24.0690
 1.8510	23.9610
 1.8520	23.8440
 1.8530	23.7190
 1.8540	23.5850
 1.8550	23.4380
 1.8560	23.2790
 1.8570	23.1100
 1.8580	22.9290
 1.8590	22.7360
 1.8600	22.5310
 1.8610	22.3140
 1.8620	22.0830
 1.8630	21.8400
 1.8640	21.5830
 1.8650	21.3130
 1.8660	21.0280
 1.8670	20.7240
 1.8680	20.4070
 1.8690	20.0740
 1.8700	19.7240
 1.8710	19.3540
 1.8720	18.9800
 1.8730	18.5940
 1.8740	18.1950
 1.8750	17.7920
 1.8760	17.3770
 1.8770	16.9560
 1.8780	16.5350
 1.8790	16.1130
 1.8800	15.6950
 1.8810	15.2800
 1.8820	14.8650
 1.8830	14.4500
 1.8840	14.0430
 1.8850	13.6370
 1.8860	13.2390
 1.8870	12.8550
 1.8880	12.4810
 1.8890	12.1260
 1.8900	11.7900
 1.8910	11.4720
 1.8920	11.1700
 1.8930	10.8880
 1.8940	10.6210
 1.8950	10.3740
 1.8960	10.1440
 1.8970	 9.9340
 1.8980	 9.7430
 1.8990	 9.5690
 1.9000	 9.4080
 1.9010	 9.2650
 1.9020	 9.1320
 1.9030	 9.0130
 1.9040	 8.9070
 1.9050	 8.8120
 1.9060	 8.7290
 1.9070	 8.6570
 1.9080	 8.5940
 1.9090	 8.5390
 1.9100	 8.4910
 1.9110	 8.4480
 1.9120	 8.4120
 1.9130	 8.3780
 1.9140	 8.3490
 1.9150	 8.3230
 1.9160	 8.3030
 1.9170	 8.2850
 1.9180	 8.2690
 1.9190	 8.2560
 1.9200	 8.2440
 1.9210	 8.2350
 1.9220	 8.2280
 1.9230	 8.2260
 1.9240	 8.2240
 1.9250	 8.2240
 1.9260	 8.2250
 1.9270	 8.2250
 1.9280	 8.2290
 1.9290	 8.2320
 1.9300	 8.2350
 1.9310	 8.2420
 1.9320	 8.2510
 1.9330	 8.2620
 1.9340	 8.2770
 1.9350	 8.2920
 1.9360	 8.3090
 1.9370	 8.3240
 1.9380	 8.3380
 1.9390	 8.3540
 1.9400	 8.3720
 1.9410	 8.3880
 1.9420	 8.4060
 1.9430	 8.4270
 1.9440	 8.4490
 1.9450	 8.4710
 1.9460	 8.4950
 1.9470	 8.5220
 1.9480	 8.5480
 1.9490	 8.5730
 1.9500	 8.5980
 1.9510	 8.6260
 1.9520	 8.6520
 1.9530	 8.6810
 1.9540	 8.7130
 1.9550	 8.7440
 1.9560	 8.7750
 1.9570	 8.8070
 1.9580	 8.8400
 1.9590	 8.8750
 1.9600	 8.9120
 1.9610	 8.9480
 1.9620	 8.9870
 1.9630	 9.0240
 1.9640	 9.0600
 1.9650	 9.1000
 1.9660	 9.1410
 1.9670	 9.1820
 1.9680	 9.2250
 1.9690	 9.2700
 1.9700	 9.3140
 1.9710	 9.3590
 1.9720	 9.4040
 1.9730	 9.4480
 1.9740	 9.4930
 1.9750	 9.5370
 1.9760	 9.5810
 1.9770	 9.6270
 1.9780	 9.6730
 1.9790	 9.7210
 1.9800	 9.7710
 1.9810	 9.8220
 1.9820	 9.8750
 1.9830	 9.9270
 1.9840	 9.9820
 1.9850	10.0360
 1.9860	10.0910
 1.9870	10.1470
 1.9880	10.2010
 1.9890	10.2560
 1.9900	10.3120
 1.9910	10.3670
 1.9920	10.4220
 1.9930	10.4780
 1.9940	10.5330
 1.9950	10.5860
 1.9960	10.6400
 1.9970	10.6940
 1.9980	10.7490
 1.9990	10.8020
 2.0000	10.8580
 2.0010	10.9150
 2.0020	10.9710
 2.0030	11.0290
 2.0040	11.0870
 2.0050	11.1430
 2.0060	11.1990
 2.0070	11.2550
 2.0080	11.3100
 2.0090	11.3650
 2.0100	11.4220
 2.0110	11.4750
 2.0120	11.5270
 2.0130	11.5770
 2.0140	11.6280
 2.0150	11.6800
 2.0160	11.7330
 2.0170	11.7850
 2.0180	11.8360
 2.0190	11.8870
 2.0200	11.9380
 2.0210	11.9890
 2.0220	12.0380
 2.0230	12.0870
 2.0240	12.1340
 2.0250	12.1790
 2.0260	12.2230
 2.0270	12.2640
 2.0280	12.3070
 2.0290	12.3490
 2.0300	12.3870
 2.0310	12.4260
 2.0320	12.4650
 2.0330	12.5020
 2.0340	12.5380
 2.0350	12.5740
 2.0360	12.6090
 2.0370	12.6430
 2.0380	12.6770
 2.0390	12.7100
 2.0400	12.7410
 2.0410	12.7730
 2.0420	12.8050
 2.0430	12.8360
 2.0440	12.8660
 2.0450	12.8990
 2.0460	12.9260
 2.0470	12.9500
 2.0480	12.9750
 2.0490	12.9970
 2.0500	13.0220
 2.0510	13.0520
 2.0520	13.0780
 2.0530	13.1020
 2.0540	13.1270
 2.0550	13.1510
 2.0560	13.1730
 2.0570	13.1990
 2.0580	13.2260
 2.0590	13.2550
 2.0600	13.2860
 2.0610	13.3140
 2.0620	13.3440
 2.0630	13.3710
 2.0640	13.3930
 2.0650	13.4190
 2.0660	13.4450
 2.0670	13.4720
 2.0680	13.5040
 2.0690	13.5330
 2.0700	13.5620
 2.0710	13.5920
 2.0720	13.6220
 2.0730	13.6520
 2.0740	13.6830
 2.0750	13.7150
 2.0760	13.7440
 2.0770	13.7710
 2.0780	13.7990
 2.0790	13.8260
 2.0800	13.8540
 2.0810	13.8810
 2.0820	13.9090
 2.0830	13.9350
 2.0840	13.9630
 2.0850	13.9910
 2.0860	14.0190
 2.0870	14.0470
 2.0880	14.0750
 2.0890	14.1040
 2.0900	14.1330
 2.0910	14.1610
 2.0920	14.1900
 2.0930	14.2160
 2.0940	14.2410
 2.0950	14.2640
 2.0960	14.2840
 2.0970	14.3060
 2.0980	14.3280
 2.0990	14.3530
 2.1000	14.3830
 2.1010	14.4110
 2.1020	14.4400
 2.1030	14.4690
 2.1040	14.4950
 2.1050	14.5250
 2.1060	14.5530
 2.1070	14.5820
 2.1080	14.6080
 2.1090	14.6310
 2.1100	14.6550
 2.1110	14.6770
 2.1120	14.7030
 2.1130	14.7310
 2.1140	14.7570
 2.1150	14.7830
 2.1160	14.8070
 2.1170	14.8300
 2.1180	14.8530
 2.1190	14.8760
 2.1200	14.8980
 2.1210	14.9190
 2.1220	14.9410
 2.1230	14.9620
 2.1240	14.9840
 2.1250	15.0050
 2.1260	15.0270
 2.1270	15.0510
 2.1280	15.0750
 2.1290	15.0980
 2.1300	15.1230
 2.1310	15.1440
 2.1320	15.1640
 2.1330	15.1830
 2.1340	15.2030
 2.1350	15.2210
 2.1360	15.2370
 2.1370	15.2570
 2.1380	15.2750
 2.1390	15.2960
 2.1400	15.3210
 2.1410	15.3460
 2.1420	15.3700
 2.1430	15.3950
 2.1440	15.4140
 2.1450	15.4310
 2.1460	15.4480
 2.1470	15.4590
 2.1480	15.4760
 2.1490	15.4940
 2.1500	15.5150
 2.1510	15.5410
 2.1520	15.5610
 2.1530	15.5800
 2.1540	15.5990
 2.1550	15.6150
 2.1560	15.6330
 2.1570	15.6530
 2.1580	15.6710
 2.1590	15.6890
 2.1600	15.7040
 2.1610	15.7170
 2.1620	15.7300
 2.1630	15.7440
 2.1640	15.7570
 2.1650	15.7720
 2.1660	15.7870
 2.1670	15.8030
 2.1680	15.8200
 2.1690	15.8380
 2.1700	15.8580
 2.1710	15.8750
 2.1720	15.8910
 2.1730	15.9050
 2.1740	15.9160
 2.1750	15.9290
 2.1760	15.9390
 2.1770	15.9520
 2.1780	15.9680
 2.1790	15.9840
 2.1800	16.0040
 2.1810	16.0220
 2.1820	16.0390
 2.1830	16.0580
 2.1840	16.0770
 2.1850	16.0940
 2.1860	16.1110
 2.1870	16.1280
 2.1880	16.1460
 2.1890	16.1630
 2.1900	16.1810
 2.1910	16.2020
 2.1920	16.2210
 2.1930	16.2420
 2.1940	16.2580
 2.1950	16.2700
 2.1960	16.2830
 2.1970	16.2880
 2.1980	16.3010
 2.1990	16.3210
 2.2000	16.3380
 2.2010	16.3590
 2.2020	16.3760
 2.2030	16.3890
 2.2040	16.4030
 2.2050	16.4140
 2.2060	16.4270
 2.2070	16.4380
 2.2080	16.4500
 2.2090	16.4580
 2.2100	16.4630
 2.2110	16.4720
 2.2120	16.4820
 2.2130	16.4900
 2.2140	16.5020
 2.2150	16.5090
 2.2160	16.5130
 2.2170	16.5140
 2.2180	16.5150
 2.2190	16.5130
 2.2200	16.5070
 2.2210	16.5010
 2.2220	16.4950
 2.2230	16.4870
 2.2240	16.4780
 2.2250	16.4650
 2.2260	16.4500
 2.2270	16.4300
 2.2280	16.4040
 2.2290	16.3760
 2.2300	16.3440
 2.2310	16.3120
 2.2320	16.2830
 2.2330	16.2480
 2.2340	16.2120
 2.2350	16.1750
 2.2360	16.1360
 2.2370	16.0940
 2.2380	16.0490
 2.2390	16.0020
 2.2400	15.9520
 2.2410	15.8960
 2.2420	15.8430
 2.2430	15.7890
 2.2440	15.7360
 2.2450	15.6830
 2.2460	15.6290
 2.2470	15.5750
 2.2480	15.5190
 2.2490	15.4570
 2.2500	15.4000
 2.2510	15.3440
 2.2520	15.2880
 2.2530	15.2360
 2.2540	15.1830
 2.2550	15.1280
 2.2560	15.0760
 2.2570	15.0280
 2.2580	14.9780
 2.2590	14.9280
 2.2600	14.8760
 2.2610	14.8220
 2.2620	14.7660
 2.2630	14.7190
 2.2640	14.6710
 2.2650	14.6240
 2.2660	14.5820
 2.2670	14.5380
 2.2680	14.4900
 2.2690	14.4490
 2.2700	14.4120
 2.2710	14.3730
 2.2720	14.3350
 2.2730	14.2990
 2.2740	14.2600
 2.2750	14.2250
 2.2760	14.1930
 2.2770	14.1610
 2.2780	14.1300
 2.2790	14.1020
 2.2800	14.0780
 2.2810	14.0500
 2.2820	14.0240
 2.2830	13.9950
 2.2840	13.9640
 2.2850	13.9350
 2.2860	13.9050
 2.2870	13.8750
 2.2880	13.8460
 2.2890	13.8140
 2.2900	13.7810
 2.2910	13.7460
 2.2920	13.7140
 2.2930	13.6740
 2.2940	13.6280
 2.2950	13.5840
 2.2960	13.5340
 2.2970	13.4880
 2.2980	13.4460
 2.2990	13.4010
 2.3000	13.3540
 2.3010	13.3090
 2.3020	13.2650
 2.3030	13.2220
 2.3040	13.1840
 2.3050	13.1460
 2.3060	13.1090
 2.3070	13.0730
 2.3080	13.0360
 2.3090	12.9950
 2.3100	12.9600
 2.3110	12.9310
 2.3120	12.9120
 2.3130	12.9030
 2.3140	12.8950
 2.3150	12.8980
 2.3160	12.8960
 2.3170	12.8980
 2.3180	12.8940
 2.3190	12.8880
 2.3200	12.8820
 2.3210	12.8770
 2.3220	12.8680
 2.3230	12.8580
 2.3240	12.8470
 2.3250	12.8310
 2.3260	12.8160
 2.3270	12.8030
 2.3280	12.7840
 2.3290	12.7600
 2.3300	12.7370
 2.3310	12.7110
 2.3320	12.6840
 2.3330	12.6540
 2.3340	12.6270
 2.3350	12.5980
 2.3360	12.5690
 2.3370	12.5390
 2.3380	12.5130
 2.3390	12.4880
 2.3400	12.4610
 2.3410	12.4400
 2.3420	12.4120
 2.3430	12.3780
 2.3440	12.3460
 2.3450	12.3110
 2.3460	12.2810
 2.3470	12.2500
 2.3480	12.2240
 2.3490	12.1990
 2.3500	12.1780
 2.3510	12.1630
 2.3520	12.1440
 2.3530	12.1230
 2.3540	12.1060
 2.3550	12.0970
 2.3560	12.0890
 2.3570	12.0780
 2.3580	12.0650
 2.3590	12.0440
 2.3600	12.0220
 2.3610	12.0100
 2.3620	12.0020
 2.3630	11.9810
 2.3640	11.9500
 2.3650	11.9310
 2.3660	11.9110
 2.3670	11.8940
 2.3680	11.8810
 2.3690	11.8500
 2.3700	11.8090
 2.3710	11.7740
 2.3720	11.7520
 2.3730	11.7330
 2.3740	11.7150
 2.3750	11.6940
 2.3760	11.6640
 2.3770	11.6340
 2.3780	11.6040
 2.3790	11.5740
 2.3800	11.5410
 2.3810	11.5010
 2.3820	11.4650
 2.3830	11.4370
 2.3840	11.4080
 2.3850	11.3860
 2.3860	11.3630
 2.3870	11.3280
 2.3880	11.2970
 2.3890	11.2770
 2.3900	11.2530
 2.3910	11.2350
 2.3920	11.2230
 2.3930	11.1920
 2.3940	11.1600
 2.3950	11.1300
 2.3960	11.0960
 2.3970	11.0760
 2.3980	11.0490
 2.3990	11.0110
 2.4000	10.9760
 2.4010	10.9230
 2.4020	10.8740
 2.4030	10.8540
 2.4040	10.8350
 2.4050	10.8070
 2.4060	10.7860
 2.4070	10.7560
 2.4080	10.7150
 2.4090	10.6890
 2.4100	10.6620
 2.4110	10.6260
 2.4120	10.5930
 2.4130	10.5540
 2.4140	10.5290
 2.4150	10.4990
 2.4160	10.4630
 2.4170	10.4470
 2.4180	10.4150
 2.4190	10.3850
 2.4200	10.3580
 2.4210	10.3100
 2.4220	10.2720
 2.4230	10.2480
 2.4240	10.2030
 2.4250	10.1580
 2.4260	10.1260
 2.4270	10.0820
 2.4280	10.0620
 2.4290	10.0490
 2.4300	10.0140
 2.4310	 9.9920
 2.4320	 9.9660
 2.4330	 9.9220
 2.4340	 9.8890
 2.4350	 9.8470
 2.4360	 9.7890
 2.4370	 9.7500
 2.4380	 9.7160
 2.4390	 9.6960
 2.4400	 9.6840
 2.4410	 9.6620
 2.4420	 9.6460
 2.4430	 9.6110
 2.4440	 9.5780
 2.4450	 9.5630
 2.4460	 9.5420
 2.4470	 9.5220
 2.4480	 9.4820
 2.4490	 9.4290
 2.4500	 9.3850
 2.4510	 9.3380
 2.4520	 9.3090
 2.4530	 9.2920
 2.4540	 9.2630
 2.4550	 9.2410
 2.4560	 9.2150
 2.4570	 9.1880
 2.4580	 9.1770
 2.4590	 9.1470
 2.4600	 9.1130
 2.4610	 9.0880
 2.4620	 9.0520
 2.4630	 9.0360
 2.4640	 9.0250
 2.4650	 9.0070
 2.4660	 8.9900
 2.4670	 8.9620
 2.4680	 8.9430
 2.4690	 8.9130
 2.4700	 8.8900
 2.4710	 8.8750
 2.4720	 8.8560
 2.4730	 8.8520
 2.4740	 8.8370
 2.4750	 8.8010
 2.4760	 8.7890
 2.4770	 8.7770
 2.4780	 8.7660
 2.4790	 8.7810
 2.4800	 8.7730
 2.4810	 8.7600
 2.4820	 8.7470
 2.4830	 8.7210
 2.4840	 8.6900
 2.4850	 8.6470
 2.4860	 8.6220
 2.4870	 8.6090
 2.4880	 8.5890
 2.4890	 8.5950
 2.4900	 8.6030
 2.4910	 8.5970
 2.4920	 8.6200
 2.4930	 8.6450
 2.4940	 8.6230
 2.4950	 8.6040
 2.4960	 8.5610
 2.4970	 8.4760
 2.4980	 8.4470
 2.4990	 8.4440
 2.5000	 8.4160
