Name: Ceanothus spinosus 3
Type: vegetation
Class: Shrub
Genus: Ceanothus
Species: spinosus
Sample No.: VH011
Owner: UCSB
Wavelength Range: VSWIR
Origin: 34.4906; -119.7908; WGS84
Collection Date: 4/1/2013
Description: Samples were collected as part of the HyspIRI Airborne Campaign. 48 individual plants were sampled in three times in 2013 - spring  summer  and fall. The name of the sample includes a 1  2  or 3 which references a different individual of the species. Samples were taken to JPL and processed within 48 hours of collection. The same leaves were processed in the Nicolet and then measured using the ASD.
Measurement: Bidirectional reflectance
First Column: X
Second Column: Y
X Units: Wavelength (micrometers)
Y Units: Reflectance (percentage)
First X Value: 0.35
Last X Value: 2.5
Number of X Values: 2151
Additional Information: vegetation.shrub.ceanothus.spinosus.vswir.vh011.ucsb.asd.ancillary.txt

 0.3500	11.5080
 0.3510	11.8090
 0.3520	11.7800
 0.3530	11.5950
 0.3540	11.5230
 0.3550	11.5470
 0.3560	11.5560
 0.3570	11.5390
 0.3580	11.5340
 0.3590	11.5270
 0.3600	11.4900
 0.3610	11.4220
 0.3620	11.3490
 0.3630	11.4350
 0.3640	11.5000
 0.3650	11.3860
 0.3660	11.3530
 0.3670	11.3710
 0.3680	11.4090
 0.3690	11.4430
 0.3700	11.4190
 0.3710	11.3870
 0.3720	11.3830
 0.3730	11.4080
 0.3740	11.3470
 0.3750	11.2770
 0.3760	11.2970
 0.3770	11.3010
 0.3780	11.3500
 0.3790	11.3910
 0.3800	11.2950
 0.3810	11.3270
 0.3820	11.3640
 0.3830	11.3250
 0.3840	11.3670
 0.3850	11.3460
 0.3860	11.3080
 0.3870	11.3350
 0.3880	11.2740
 0.3890	11.2670
 0.3900	11.3160
 0.3910	11.2740
 0.3920	11.2830
 0.3930	11.3020
 0.3940	11.2860
 0.3950	11.2620
 0.3960	11.2290
 0.3970	11.2100
 0.3980	11.2290
 0.3990	11.2420
 0.4000	11.2290
 0.4010	11.2100
 0.4020	11.2490
 0.4030	11.2570
 0.4040	11.2340
 0.4050	11.2110
 0.4060	11.2430
 0.4070	11.2750
 0.4080	11.2860
 0.4090	11.2780
 0.4100	11.2800
 0.4110	11.2750
 0.4120	11.2680
 0.4130	11.3150
 0.4140	11.3540
 0.4150	11.3720
 0.4160	11.3810
 0.4170	11.4170
 0.4180	11.4470
 0.4190	11.4600
 0.4200	11.4700
 0.4210	11.4980
 0.4220	11.5220
 0.4230	11.5330
 0.4240	11.5710
 0.4250	11.5820
 0.4260	11.5900
 0.4270	11.6360
 0.4280	11.6470
 0.4290	11.6540
 0.4300	11.6680
 0.4310	11.6540
 0.4320	11.6610
 0.4330	11.6770
 0.4340	11.6830
 0.4350	11.6870
 0.4360	11.6930
 0.4370	11.7050
 0.4380	11.7310
 0.4390	11.7460
 0.4400	11.7680
 0.4410	11.8010
 0.4420	11.8060
 0.4430	11.8040
 0.4440	11.8080
 0.4450	11.8290
 0.4460	11.8380
 0.4470	11.8470
 0.4480	11.8600
 0.4490	11.8750
 0.4500	11.8890
 0.4510	11.9020
 0.4520	11.9150
 0.4530	11.9310
 0.4540	11.9470
 0.4550	11.9560
 0.4560	11.9550
 0.4570	11.9560
 0.4580	11.9630
 0.4590	11.9720
 0.4600	11.9750
 0.4610	11.9850
 0.4620	11.9930
 0.4630	11.9880
 0.4640	11.9830
 0.4650	11.9750
 0.4660	11.9690
 0.4670	11.9730
 0.4680	11.9780
 0.4690	11.9770
 0.4700	11.9680
 0.4710	11.9590
 0.4720	11.9640
 0.4730	11.9780
 0.4740	11.9840
 0.4750	11.9780
 0.4760	11.9770
 0.4770	11.9810
 0.4780	11.9680
 0.4790	11.9730
 0.4800	11.9850
 0.4810	11.9850
 0.4820	11.9880
 0.4830	11.9960
 0.4840	12.0040
 0.4850	12.0030
 0.4860	12.0090
 0.4870	12.0150
 0.4880	12.0190
 0.4890	12.0370
 0.4900	12.0450
 0.4910	12.0500
 0.4920	12.0690
 0.4930	12.0900
 0.4940	12.1040
 0.4950	12.1150
 0.4960	12.1410
 0.4970	12.1650
 0.4980	12.1890
 0.4990	12.2170
 0.5000	12.2560
 0.5010	12.2880
 0.5020	12.3150
 0.5030	12.3590
 0.5040	12.3980
 0.5050	12.4410
 0.5060	12.4940
 0.5070	12.5490
 0.5080	12.6100
 0.5090	12.6780
 0.5100	12.7530
 0.5110	12.8310
 0.5120	12.9170
 0.5130	13.0140
 0.5140	13.1110
 0.5150	13.2240
 0.5160	13.3450
 0.5170	13.4690
 0.5180	13.6060
 0.5190	13.7500
 0.5200	13.8960
 0.5210	14.0450
 0.5220	14.2010
 0.5230	14.3570
 0.5240	14.5110
 0.5250	14.6630
 0.5260	14.8140
 0.5270	14.9610
 0.5280	15.0970
 0.5290	15.2210
 0.5300	15.3380
 0.5310	15.4490
 0.5320	15.5500
 0.5330	15.6390
 0.5340	15.7220
 0.5350	15.8000
 0.5360	15.8630
 0.5370	15.9170
 0.5380	15.9650
 0.5390	16.0070
 0.5400	16.0390
 0.5410	16.0660
 0.5420	16.0940
 0.5430	16.1200
 0.5440	16.1460
 0.5450	16.1730
 0.5460	16.2040
 0.5470	16.2420
 0.5480	16.2770
 0.5490	16.3010
 0.5500	16.3200
 0.5510	16.3290
 0.5520	16.3290
 0.5530	16.3260
 0.5540	16.3080
 0.5550	16.2880
 0.5560	16.2610
 0.5570	16.2130
 0.5580	16.1590
 0.5590	16.0970
 0.5600	16.0270
 0.5610	15.9600
 0.5620	15.8840
 0.5630	15.8000
 0.5640	15.7140
 0.5650	15.6170
 0.5660	15.5130
 0.5670	15.4050
 0.5680	15.2930
 0.5690	15.1770
 0.5700	15.0630
 0.5710	14.9570
 0.5720	14.8440
 0.5730	14.7380
 0.5740	14.6460
 0.5750	14.5720
 0.5760	14.5150
 0.5770	14.4570
 0.5780	14.3870
 0.5790	14.3180
 0.5800	14.2520
 0.5810	14.1940
 0.5820	14.1430
 0.5830	14.0970
 0.5840	14.0500
 0.5850	13.9970
 0.5860	13.9400
 0.5870	13.8880
 0.5880	13.8500
 0.5890	13.8290
 0.5900	13.8300
 0.5910	13.8330
 0.5920	13.8320
 0.5930	13.8240
 0.5940	13.8080
 0.5950	13.7890
 0.5960	13.7710
 0.5970	13.7600
 0.5980	13.7410
 0.5990	13.7210
 0.6000	13.7100
 0.6010	13.6910
 0.6020	13.6720
 0.6030	13.6540
 0.6040	13.6320
 0.6050	13.6010
 0.6060	13.5660
 0.6070	13.5310
 0.6080	13.4890
 0.6090	13.4440
 0.6100	13.3900
 0.6110	13.3260
 0.6120	13.2850
 0.6130	13.2560
 0.6140	13.2290
 0.6150	13.1920
 0.6160	13.1590
 0.6170	13.1290
 0.6180	13.0970
 0.6190	13.0700
 0.6200	13.0460
 0.6210	13.0250
 0.6220	13.0050
 0.6230	12.9900
 0.6240	12.9730
 0.6250	12.9540
 0.6260	12.9470
 0.6270	12.9380
 0.6280	12.9300
 0.6290	12.9260
 0.6300	12.9150
 0.6310	12.9060
 0.6320	12.9010
 0.6330	12.8940
 0.6340	12.8870
 0.6350	12.8730
 0.6360	12.8480
 0.6370	12.8310
 0.6380	12.8070
 0.6390	12.7780
 0.6400	12.7520
 0.6410	12.7190
 0.6420	12.6820
 0.6430	12.6450
 0.6440	12.6100
 0.6450	12.5780
 0.6460	12.5460
 0.6470	12.5140
 0.6480	12.4850
 0.6490	12.4590
 0.6500	12.4360
 0.6510	12.4150
 0.6520	12.3940
 0.6530	12.3760
 0.6540	12.3590
 0.6550	12.3470
 0.6560	12.3290
 0.6570	12.3050
 0.6580	12.2790
 0.6590	12.2550
 0.6600	12.2320
 0.6610	12.2100
 0.6620	12.1860
 0.6630	12.1670
 0.6640	12.1510
 0.6650	12.1360
 0.6660	12.1220
 0.6670	12.1110
 0.6680	12.1050
 0.6690	12.1040
 0.6700	12.1070
 0.6710	12.1140
 0.6720	12.1230
 0.6730	12.1300
 0.6740	12.1440
 0.6750	12.1630
 0.6760	12.1840
 0.6770	12.2060
 0.6780	12.2310
 0.6790	12.2590
 0.6800	12.2880
 0.6810	12.3200
 0.6820	12.3580
 0.6830	12.4020
 0.6840	12.4480
 0.6850	12.5010
 0.6860	12.5620
 0.6870	12.6320
 0.6880	12.7150
 0.6890	12.8180
 0.6900	12.9430
 0.6910	13.0920
 0.6920	13.2700
 0.6930	13.4840
 0.6940	13.7370
 0.6950	14.0340
 0.6960	14.3780
 0.6970	14.7730
 0.6980	15.2220
 0.6990	15.7250
 0.7000	16.2790
 0.7010	16.8830
 0.7020	17.5310
 0.7030	18.2190
 0.7040	18.9410
 0.7050	19.6910
 0.7060	20.4690
 0.7070	21.2690
 0.7080	22.0850
 0.7090	22.9150
 0.7100	23.7600
 0.7110	24.6190
 0.7120	25.4860
 0.7130	26.3520
 0.7140	27.2240
 0.7150	28.0980
 0.7160	28.9670
 0.7170	29.8330
 0.7180	30.6950
 0.7190	31.5480
 0.7200	32.3860
 0.7210	33.2150
 0.7220	34.0270
 0.7230	34.8200
 0.7240	35.5960
 0.7250	36.3490
 0.7260	37.0760
 0.7270	37.7780
 0.7280	38.4530
 0.7290	39.1000
 0.7300	39.7160
 0.7310	40.3040
 0.7320	40.8630
 0.7330	41.3960
 0.7340	41.9050
 0.7350	42.3850
 0.7360	42.8340
 0.7370	43.2560
 0.7380	43.6570
 0.7390	44.0370
 0.7400	44.3880
 0.7410	44.7150
 0.7420	45.0230
 0.7430	45.3140
 0.7440	45.5830
 0.7450	45.8310
 0.7460	46.0640
 0.7470	46.2730
 0.7480	46.4660
 0.7490	46.6490
 0.7500	46.8080
 0.7510	46.9550
 0.7520	47.0930
 0.7530	47.2240
 0.7540	47.3390
 0.7550	47.4440
 0.7560	47.5410
 0.7570	47.6300
 0.7580	47.7050
 0.7590	47.7750
 0.7600	47.8430
 0.7610	47.9040
 0.7620	47.9580
 0.7630	48.0070
 0.7640	48.0520
 0.7650	48.0910
 0.7660	48.1270
 0.7670	48.1630
 0.7680	48.1980
 0.7690	48.2270
 0.7700	48.2550
 0.7710	48.2820
 0.7720	48.3080
 0.7730	48.3330
 0.7740	48.3540
 0.7750	48.3730
 0.7760	48.3890
 0.7770	48.4080
 0.7780	48.4280
 0.7790	48.4420
 0.7800	48.4590
 0.7810	48.4790
 0.7820	48.4980
 0.7830	48.5090
 0.7840	48.5220
 0.7850	48.5380
 0.7860	48.5550
 0.7870	48.5700
 0.7880	48.5830
 0.7890	48.5960
 0.7900	48.6070
 0.7910	48.6160
 0.7920	48.6260
 0.7930	48.6360
 0.7940	48.6420
 0.7950	48.6530
 0.7960	48.6610
 0.7970	48.6640
 0.7980	48.6700
 0.7990	48.6780
 0.8000	48.6860
 0.8010	48.6900
 0.8020	48.6890
 0.8030	48.6900
 0.8040	48.6930
 0.8050	48.6960
 0.8060	48.6970
 0.8070	48.6950
 0.8080	48.6870
 0.8090	48.6770
 0.8100	48.6800
 0.8110	48.6820
 0.8120	48.6760
 0.8130	48.6680
 0.8140	48.6620
 0.8150	48.6560
 0.8160	48.6480
 0.8170	48.6420
 0.8180	48.6330
 0.8190	48.6240
 0.8200	48.6210
 0.8210	48.6060
 0.8220	48.5890
 0.8230	48.5790
 0.8240	48.5750
 0.8250	48.5620
 0.8260	48.5470
 0.8270	48.5360
 0.8280	48.5270
 0.8290	48.5150
 0.8300	48.5000
 0.8310	48.4860
 0.8320	48.4760
 0.8330	48.4610
 0.8340	48.4450
 0.8350	48.4370
 0.8360	48.4250
 0.8370	48.4120
 0.8380	48.4030
 0.8390	48.3960
 0.8400	48.3910
 0.8410	48.3870
 0.8420	48.3820
 0.8430	48.3700
 0.8440	48.3620
 0.8450	48.3570
 0.8460	48.3520
 0.8470	48.3430
 0.8480	48.3380
 0.8490	48.3360
 0.8500	48.3310
 0.8510	48.3240
 0.8520	48.3200
 0.8530	48.3180
 0.8540	48.3140
 0.8550	48.3130
 0.8560	48.3120
 0.8570	48.3110
 0.8580	48.3120
 0.8590	48.3100
 0.8600	48.3070
 0.8610	48.3060
 0.8620	48.3060
 0.8630	48.3080
 0.8640	48.3080
 0.8650	48.3030
 0.8660	48.3050
 0.8670	48.3050
 0.8680	48.3040
 0.8690	48.3080
 0.8700	48.3140
 0.8710	48.3180
 0.8720	48.3220
 0.8730	48.3260
 0.8740	48.3250
 0.8750	48.3260
 0.8760	48.3330
 0.8770	48.3430
 0.8780	48.3520
 0.8790	48.3560
 0.8800	48.3560
 0.8810	48.3590
 0.8820	48.3610
 0.8830	48.3640
 0.8840	48.3700
 0.8850	48.3750
 0.8860	48.3840
 0.8870	48.3920
 0.8880	48.3960
 0.8890	48.4080
 0.8900	48.4110
 0.8910	48.4120
 0.8920	48.4220
 0.8930	48.4260
 0.8940	48.4320
 0.8950	48.4380
 0.8960	48.4380
 0.8970	48.4480
 0.8980	48.4510
 0.8990	48.4490
 0.9000	48.4610
 0.9010	48.4680
 0.9020	48.4730
 0.9030	48.4790
 0.9040	48.4910
 0.9050	48.4940
 0.9060	48.4940
 0.9070	48.4960
 0.9080	48.5010
 0.9090	48.5080
 0.9100	48.5140
 0.9110	48.5150
 0.9120	48.5230
 0.9130	48.5250
 0.9140	48.5300
 0.9150	48.5430
 0.9160	48.5350
 0.9170	48.5370
 0.9180	48.5460
 0.9190	48.5450
 0.9200	48.5470
 0.9210	48.5410
 0.9220	48.5350
 0.9230	48.5450
 0.9240	48.5400
 0.9250	48.5280
 0.9260	48.5190
 0.9270	48.5200
 0.9280	48.5170
 0.9290	48.5020
 0.9300	48.4810
 0.9310	48.4730
 0.9320	48.4560
 0.9330	48.4380
 0.9340	48.4260
 0.9350	48.4170
 0.9360	48.3980
 0.9370	48.3760
 0.9380	48.3570
 0.9390	48.3380
 0.9400	48.3140
 0.9410	48.2910
 0.9420	48.2720
 0.9430	48.2490
 0.9440	48.2120
 0.9450	48.1790
 0.9460	48.1570
 0.9470	48.1080
 0.9480	48.0620
 0.9490	48.0250
 0.9500	47.9920
 0.9510	47.9430
 0.9520	47.9000
 0.9530	47.8480
 0.9540	47.7790
 0.9550	47.7180
 0.9560	47.6640
 0.9570	47.6180
 0.9580	47.5780
 0.9590	47.5250
 0.9600	47.4800
 0.9610	47.4470
 0.9620	47.4220
 0.9630	47.3950
 0.9640	47.3660
 0.9650	47.3290
 0.9660	47.2920
 0.9670	47.2970
 0.9680	47.2800
 0.9690	47.2490
 0.9700	47.2380
 0.9710	47.2200
 0.9720	47.2060
 0.9730	47.1930
 0.9740	47.1830
 0.9750	47.1970
 0.9760	47.1930
 0.9770	47.1770
 0.9780	47.1750
 0.9790	47.1710
 0.9800	47.1830
 0.9810	47.1920
 0.9820	47.1780
 0.9830	47.1980
 0.9840	47.2090
 0.9850	47.2040
 0.9860	47.2040
 0.9870	47.2200
 0.9880	47.2280
 0.9890	47.2320
 0.9900	47.2400
 0.9910	47.2220
 0.9920	47.2810
 0.9930	47.3400
 0.9940	47.3990
 0.9950	47.4580
 0.9960	47.5170
 0.9970	47.5760
 0.9980	47.6350
 0.9990	47.6930
 1.0000	47.7520
 1.0010	47.8110
 1.0020	47.8700
 1.0030	47.9290
 1.0040	47.9880
 1.0050	48.0470
 1.0060	48.1060
 1.0070	48.1640
 1.0080	48.2230
 1.0090	48.2820
 1.0100	48.2820
 1.0110	48.2920
 1.0120	48.3050
 1.0130	48.3130
 1.0140	48.3260
 1.0150	48.3450
 1.0160	48.3630
 1.0170	48.3750
 1.0180	48.3860
 1.0190	48.3990
 1.0200	48.4140
 1.0210	48.4320
 1.0220	48.4520
 1.0230	48.4690
 1.0240	48.4850
 1.0250	48.5020
 1.0260	48.5210
 1.0270	48.5360
 1.0280	48.5510
 1.0290	48.5620
 1.0300	48.5680
 1.0310	48.5760
 1.0320	48.5840
 1.0330	48.5920
 1.0340	48.6070
 1.0350	48.6180
 1.0360	48.6320
 1.0370	48.6490
 1.0380	48.6600
 1.0390	48.6700
 1.0400	48.6790
 1.0410	48.6860
 1.0420	48.6950
 1.0430	48.7050
 1.0440	48.7140
 1.0450	48.7250
 1.0460	48.7320
 1.0470	48.7330
 1.0480	48.7390
 1.0490	48.7440
 1.0500	48.7530
 1.0510	48.7670
 1.0520	48.7820
 1.0530	48.7940
 1.0540	48.8080
 1.0550	48.8140
 1.0560	48.8120
 1.0570	48.8150
 1.0580	48.8150
 1.0590	48.8190
 1.0600	48.8300
 1.0610	48.8360
 1.0620	48.8430
 1.0630	48.8480
 1.0640	48.8510
 1.0650	48.8560
 1.0660	48.8660
 1.0670	48.8700
 1.0680	48.8730
 1.0690	48.8740
 1.0700	48.8770
 1.0710	48.8790
 1.0720	48.8820
 1.0730	48.8900
 1.0740	48.8950
 1.0750	48.8980
 1.0760	48.8990
 1.0770	48.8970
 1.0780	48.8960
 1.0790	48.8920
 1.0800	48.8900
 1.0810	48.8910
 1.0820	48.8900
 1.0830	48.8900
 1.0840	48.8880
 1.0850	48.8860
 1.0860	48.8820
 1.0870	48.8780
 1.0880	48.8720
 1.0890	48.8690
 1.0900	48.8670
 1.0910	48.8630
 1.0920	48.8580
 1.0930	48.8510
 1.0940	48.8410
 1.0950	48.8320
 1.0960	48.8250
 1.0970	48.8160
 1.0980	48.8070
 1.0990	48.7980
 1.1000	48.7890
 1.1010	48.7790
 1.1020	48.7680
 1.1030	48.7580
 1.1040	48.7490
 1.1050	48.7350
 1.1060	48.7210
 1.1070	48.7070
 1.1080	48.6930
 1.1090	48.6780
 1.1100	48.6630
 1.1110	48.6490
 1.1120	48.6330
 1.1130	48.6110
 1.1140	48.5940
 1.1150	48.5840
 1.1160	48.5650
 1.1170	48.5470
 1.1180	48.5250
 1.1190	48.4990
 1.1200	48.4700
 1.1210	48.4430
 1.1220	48.4140
 1.1230	48.3820
 1.1240	48.3470
 1.1250	48.3070
 1.1260	48.2630
 1.1270	48.2150
 1.1280	48.1640
 1.1290	48.1080
 1.1300	48.0510
 1.1310	47.9860
 1.1320	47.9140
 1.1330	47.8380
 1.1340	47.7570
 1.1350	47.6690
 1.1360	47.5750
 1.1370	47.4770
 1.1380	47.3740
 1.1390	47.2630
 1.1400	47.1510
 1.1410	47.0400
 1.1420	46.9220
 1.1430	46.8040
 1.1440	46.6870
 1.1450	46.5650
 1.1460	46.4500
 1.1470	46.3370
 1.1480	46.2290
 1.1490	46.1230
 1.1500	46.0250
 1.1510	45.9310
 1.1520	45.8440
 1.1530	45.7630
 1.1540	45.6890
 1.1550	45.6220
 1.1560	45.5610
 1.1570	45.5080
 1.1580	45.4610
 1.1590	45.4190
 1.1600	45.3840
 1.1610	45.3550
 1.1620	45.3290
 1.1630	45.3070
 1.1640	45.2880
 1.1650	45.2720
 1.1660	45.2600
 1.1670	45.2490
 1.1680	45.2420
 1.1690	45.2350
 1.1700	45.2280
 1.1710	45.2240
 1.1720	45.2230
 1.1730	45.2190
 1.1740	45.2180
 1.1750	45.2150
 1.1760	45.2100
 1.1770	45.2040
 1.1780	45.1970
 1.1790	45.1940
 1.1800	45.1890
 1.1810	45.1830
 1.1820	45.1790
 1.1830	45.1720
 1.1840	45.1640
 1.1850	45.1580
 1.1860	45.1520
 1.1870	45.1450
 1.1880	45.1400
 1.1890	45.1340
 1.1900	45.1300
 1.1910	45.1270
 1.1920	45.1260
 1.1930	45.1260
 1.1940	45.1270
 1.1950	45.1310
 1.1960	45.1370
 1.1970	45.1410
 1.1980	45.1460
 1.1990	45.1530
 1.2000	45.1590
 1.2010	45.1670
 1.2020	45.1790
 1.2030	45.1890
 1.2040	45.1990
 1.2050	45.2100
 1.2060	45.2230
 1.2070	45.2360
 1.2080	45.2500
 1.2090	45.2650
 1.2100	45.2790
 1.2110	45.2930
 1.2120	45.3100
 1.2130	45.3260
 1.2140	45.3410
 1.2150	45.3580
 1.2160	45.3750
 1.2170	45.3900
 1.2180	45.4080
 1.2190	45.4270
 1.2200	45.4460
 1.2210	45.4660
 1.2220	45.4830
 1.2230	45.5000
 1.2240	45.5150
 1.2250	45.5290
 1.2260	45.5430
 1.2270	45.5560
 1.2280	45.5690
 1.2290	45.5850
 1.2300	45.6020
 1.2310	45.6170
 1.2320	45.6320
 1.2330	45.6460
 1.2340	45.6590
 1.2350	45.6710
 1.2360	45.6830
 1.2370	45.6940
 1.2380	45.7060
 1.2390	45.7180
 1.2400	45.7310
 1.2410	45.7430
 1.2420	45.7550
 1.2430	45.7630
 1.2440	45.7690
 1.2450	45.7780
 1.2460	45.7850
 1.2470	45.7920
 1.2480	45.8010
 1.2490	45.8090
 1.2500	45.8180
 1.2510	45.8290
 1.2520	45.8340
 1.2530	45.8350
 1.2540	45.8380
 1.2550	45.8390
 1.2560	45.8410
 1.2570	45.8460
 1.2580	45.8470
 1.2590	45.8480
 1.2600	45.8480
 1.2610	45.8470
 1.2620	45.8460
 1.2630	45.8450
 1.2640	45.8430
 1.2650	45.8410
 1.2660	45.8370
 1.2670	45.8300
 1.2680	45.8250
 1.2690	45.8190
 1.2700	45.8110
 1.2710	45.8030
 1.2720	45.7930
 1.2730	45.7790
 1.2740	45.7680
 1.2750	45.7570
 1.2760	45.7450
 1.2770	45.7320
 1.2780	45.7180
 1.2790	45.7020
 1.2800	45.6840
 1.2810	45.6670
 1.2820	45.6480
 1.2830	45.6270
 1.2840	45.6050
 1.2850	45.5850
 1.2860	45.5650
 1.2870	45.5420
 1.2880	45.5170
 1.2890	45.4920
 1.2900	45.4660
 1.2910	45.4360
 1.2920	45.4080
 1.2930	45.3800
 1.2940	45.3460
 1.2950	45.3090
 1.2960	45.2720
 1.2970	45.2340
 1.2980	45.1940
 1.2990	45.1530
 1.3000	45.1110
 1.3010	45.0650
 1.3020	45.0170
 1.3030	44.9680
 1.3040	44.9160
 1.3050	44.8610
 1.3060	44.8030
 1.3070	44.7410
 1.3080	44.6770
 1.3090	44.6120
 1.3100	44.5450
 1.3110	44.4750
 1.3120	44.4040
 1.3130	44.3300
 1.3140	44.2520
 1.3150	44.1730
 1.3160	44.0890
 1.3170	44.0010
 1.3180	43.9090
 1.3190	43.8160
 1.3200	43.7190
 1.3210	43.6180
 1.3220	43.5150
 1.3230	43.4080
 1.3240	43.2980
 1.3250	43.1900
 1.3260	43.0770
 1.3270	42.9620
 1.3280	42.8450
 1.3290	42.7230
 1.3300	42.6040
 1.3310	42.4840
 1.3320	42.3600
 1.3330	42.2380
 1.3340	42.1130
 1.3350	41.9860
 1.3360	41.8600
 1.3370	41.7310
 1.3380	41.6020
 1.3390	41.4720
 1.3400	41.3430
 1.3410	41.2170
 1.3420	41.0920
 1.3430	40.9680
 1.3440	40.8450
 1.3450	40.7210
 1.3460	40.5950
 1.3470	40.4720
 1.3480	40.3480
 1.3490	40.2270
 1.3500	40.1100
 1.3510	39.9920
 1.3520	39.8750
 1.3530	39.7590
 1.3540	39.6410
 1.3550	39.5220
 1.3560	39.4040
 1.3570	39.2850
 1.3580	39.1660
 1.3590	39.0460
 1.3600	38.9220
 1.3610	38.7960
 1.3620	38.6640
 1.3630	38.5290
 1.3640	38.3900
 1.3650	38.2430
 1.3660	38.0930
 1.3670	37.9320
 1.3680	37.7620
 1.3690	37.5850
 1.3700	37.3940
 1.3710	37.1920
 1.3720	36.9790
 1.3730	36.7470
 1.3740	36.5040
 1.3750	36.2470
 1.3760	35.9690
 1.3770	35.6750
 1.3780	35.3580
 1.3790	35.0220
 1.3800	34.6660
 1.3810	34.2880
 1.3820	33.8970
 1.3830	33.4890
 1.3840	33.0640
 1.3850	32.6220
 1.3860	32.1680
 1.3870	31.6930
 1.3880	31.2160
 1.3890	30.7280
 1.3900	30.2320
 1.3910	29.7380
 1.3920	29.2380
 1.3930	28.7360
 1.3940	28.2380
 1.3950	27.7380
 1.3960	27.2460
 1.3970	26.7630
 1.3980	26.2880
 1.3990	25.8320
 1.4000	25.3900
 1.4010	24.9600
 1.4020	24.5500
 1.4030	24.1540
 1.4040	23.7790
 1.4050	23.4230
 1.4060	23.0850
 1.4070	22.7700
 1.4080	22.4730
 1.4090	22.1930
 1.4100	21.9350
 1.4110	21.6920
 1.4120	21.4660
 1.4130	21.2580
 1.4140	21.0650
 1.4150	20.8890
 1.4160	20.7280
 1.4170	20.5810
 1.4180	20.4480
 1.4190	20.3250
 1.4200	20.2120
 1.4210	20.1100
 1.4220	20.0180
 1.4230	19.9370
 1.4240	19.8640
 1.4250	19.7980
 1.4260	19.7390
 1.4270	19.6870
 1.4280	19.6410
 1.4290	19.6010
 1.4300	19.5680
 1.4310	19.5380
 1.4320	19.5150
 1.4330	19.4960
 1.4340	19.4810
 1.4350	19.4700
 1.4360	19.4620
 1.4370	19.4570
 1.4380	19.4560
 1.4390	19.4580
 1.4400	19.4630
 1.4410	19.4690
 1.4420	19.4780
 1.4430	19.4900
 1.4440	19.5020
 1.4450	19.5150
 1.4460	19.5310
 1.4470	19.5470
 1.4480	19.5650
 1.4490	19.5840
 1.4500	19.6030
 1.4510	19.6230
 1.4520	19.6450
 1.4530	19.6680
 1.4540	19.6930
 1.4550	19.7190
 1.4560	19.7470
 1.4570	19.7760
 1.4580	19.8080
 1.4590	19.8420
 1.4600	19.8790
 1.4610	19.9200
 1.4620	19.9650
 1.4630	20.0130
 1.4640	20.0640
 1.4650	20.1200
 1.4660	20.1780
 1.4670	20.2400
 1.4680	20.3070
 1.4690	20.3780
 1.4700	20.4530
 1.4710	20.5330
 1.4720	20.6160
 1.4730	20.7000
 1.4740	20.7890
 1.4750	20.8810
 1.4760	20.9740
 1.4770	21.0700
 1.4780	21.1670
 1.4790	21.2670
 1.4800	21.3660
 1.4810	21.4680
 1.4820	21.5720
 1.4830	21.6750
 1.4840	21.7820
 1.4850	21.8890
 1.4860	21.9950
 1.4870	22.1050
 1.4880	22.2130
 1.4890	22.3210
 1.4900	22.4290
 1.4910	22.5370
 1.4920	22.6450
 1.4930	22.7550
 1.4940	22.8640
 1.4950	22.9740
 1.4960	23.0820
 1.4970	23.1910
 1.4980	23.2990
 1.4990	23.4080
 1.5000	23.5170
 1.5010	23.6270
 1.5020	23.7360
 1.5030	23.8450
 1.5040	23.9540
 1.5050	24.0630
 1.5060	24.1720
 1.5070	24.2810
 1.5080	24.3910
 1.5090	24.5000
 1.5100	24.6090
 1.5110	24.7160
 1.5120	24.8230
 1.5130	24.9280
 1.5140	25.0320
 1.5150	25.1370
 1.5160	25.2400
 1.5170	25.3420
 1.5180	25.4440
 1.5190	25.5460
 1.5200	25.6480
 1.5210	25.7490
 1.5220	25.8500
 1.5230	25.9510
 1.5240	26.0500
 1.5250	26.1480
 1.5260	26.2460
 1.5270	26.3410
 1.5280	26.4360
 1.5290	26.5300
 1.5300	26.6240
 1.5310	26.7190
 1.5320	26.8130
 1.5330	26.9050
 1.5340	26.9970
 1.5350	27.0870
 1.5360	27.1770
 1.5370	27.2650
 1.5380	27.3520
 1.5390	27.4400
 1.5400	27.5250
 1.5410	27.6100
 1.5420	27.6960
 1.5430	27.7790
 1.5440	27.8630
 1.5450	27.9460
 1.5460	28.0280
 1.5470	28.1080
 1.5480	28.1870
 1.5490	28.2660
 1.5500	28.3420
 1.5510	28.4190
 1.5520	28.4950
 1.5530	28.5710
 1.5540	28.6460
 1.5550	28.7180
 1.5560	28.7910
 1.5570	28.8630
 1.5580	28.9330
 1.5590	29.0040
 1.5600	29.0720
 1.5610	29.1380
 1.5620	29.2050
 1.5630	29.2720
 1.5640	29.3370
 1.5650	29.4000
 1.5660	29.4630
 1.5670	29.5250
 1.5680	29.5890
 1.5690	29.6530
 1.5700	29.7150
 1.5710	29.7760
 1.5720	29.8360
 1.5730	29.8960
 1.5740	29.9560
 1.5750	30.0140
 1.5760	30.0730
 1.5770	30.1320
 1.5780	30.1890
 1.5790	30.2460
 1.5800	30.3030
 1.5810	30.3580
 1.5820	30.4140
 1.5830	30.4690
 1.5840	30.5230
 1.5850	30.5760
 1.5860	30.6280
 1.5870	30.6800
 1.5880	30.7310
 1.5890	30.7820
 1.5900	30.8330
 1.5910	30.8850
 1.5920	30.9350
 1.5930	30.9820
 1.5940	31.0310
 1.5950	31.0780
 1.5960	31.1250
 1.5970	31.1730
 1.5980	31.2190
 1.5990	31.2640
 1.6000	31.3080
 1.6010	31.3510
 1.6020	31.3970
 1.6030	31.4420
 1.6040	31.4860
 1.6050	31.5290
 1.6060	31.5700
 1.6070	31.6110
 1.6080	31.6520
 1.6090	31.6900
 1.6100	31.7290
 1.6110	31.7680
 1.6120	31.8060
 1.6130	31.8450
 1.6140	31.8830
 1.6150	31.9200
 1.6160	31.9540
 1.6170	31.9880
 1.6180	32.0210
 1.6190	32.0520
 1.6200	32.0840
 1.6210	32.1160
 1.6220	32.1460
 1.6230	32.1770
 1.6240	32.2100
 1.6250	32.2410
 1.6260	32.2710
 1.6270	32.2990
 1.6280	32.3240
 1.6290	32.3510
 1.6300	32.3800
 1.6310	32.4050
 1.6320	32.4290
 1.6330	32.4520
 1.6340	32.4730
 1.6350	32.4940
 1.6360	32.5160
 1.6370	32.5360
 1.6380	32.5540
 1.6390	32.5700
 1.6400	32.5820
 1.6410	32.5940
 1.6420	32.6050
 1.6430	32.6140
 1.6440	32.6230
 1.6450	32.6290
 1.6460	32.6310
 1.6470	32.6340
 1.6480	32.6380
 1.6490	32.6400
 1.6500	32.6400
 1.6510	32.6390
 1.6520	32.6340
 1.6530	32.6260
 1.6540	32.6180
 1.6550	32.6080
 1.6560	32.5970
 1.6570	32.5900
 1.6580	32.5820
 1.6590	32.5720
 1.6600	32.5640
 1.6610	32.5550
 1.6620	32.5480
 1.6630	32.5420
 1.6640	32.5370
 1.6650	32.5320
 1.6660	32.5280
 1.6670	32.5230
 1.6680	32.5190
 1.6690	32.5150
 1.6700	32.5100
 1.6710	32.5060
 1.6720	32.5030
 1.6730	32.4990
 1.6740	32.4940
 1.6750	32.4870
 1.6760	32.4780
 1.6770	32.4680
 1.6780	32.4580
 1.6790	32.4470
 1.6800	32.4320
 1.6810	32.4160
 1.6820	32.3990
 1.6830	32.3790
 1.6840	32.3600
 1.6850	32.3400
 1.6860	32.3180
 1.6870	32.2950
 1.6880	32.2710
 1.6890	32.2430
 1.6900	32.2160
 1.6910	32.1880
 1.6920	32.1600
 1.6930	32.1330
 1.6940	32.1050
 1.6950	32.0730
 1.6960	32.0440
 1.6970	32.0150
 1.6980	31.9860
 1.6990	31.9580
 1.7000	31.9270
 1.7010	31.8930
 1.7020	31.8600
 1.7030	31.8250
 1.7040	31.7910
 1.7050	31.7570
 1.7060	31.7220
 1.7070	31.6880
 1.7080	31.6520
 1.7090	31.6130
 1.7100	31.5760
 1.7110	31.5390
 1.7120	31.5010
 1.7130	31.4630
 1.7140	31.4210
 1.7150	31.3770
 1.7160	31.3330
 1.7170	31.2900
 1.7180	31.2500
 1.7190	31.2080
 1.7200	31.1630
 1.7210	31.1170
 1.7220	31.0660
 1.7230	31.0160
 1.7240	30.9690
 1.7250	30.9200
 1.7260	30.8730
 1.7270	30.8260
 1.7280	30.7760
 1.7290	30.7300
 1.7300	30.6810
 1.7310	30.6340
 1.7320	30.5890
 1.7330	30.5430
 1.7340	30.4940
 1.7350	30.4480
 1.7360	30.4020
 1.7370	30.3570
 1.7380	30.3130
 1.7390	30.2680
 1.7400	30.2200
 1.7410	30.1720
 1.7420	30.1230
 1.7430	30.0750
 1.7440	30.0270
 1.7450	29.9780
 1.7460	29.9290
 1.7470	29.8780
 1.7480	29.8230
 1.7490	29.7710
 1.7500	29.7200
 1.7510	29.6700
 1.7520	29.6210
 1.7530	29.5710
 1.7540	29.5200
 1.7550	29.4700
 1.7560	29.4180
 1.7570	29.3670
 1.7580	29.3160
 1.7590	29.2670
 1.7600	29.2180
 1.7610	29.1720
 1.7620	29.1250
 1.7630	29.0770
 1.7640	29.0300
 1.7650	28.9820
 1.7660	28.9360
 1.7670	28.8940
 1.7680	28.8500
 1.7690	28.8070
 1.7700	28.7650
 1.7710	28.7210
 1.7720	28.6800
 1.7730	28.6420
 1.7740	28.6040
 1.7750	28.5680
 1.7760	28.5330
 1.7770	28.5000
 1.7780	28.4660
 1.7790	28.4320
 1.7800	28.4000
 1.7810	28.3670
 1.7820	28.3380
 1.7830	28.3110
 1.7840	28.2860
 1.7850	28.2640
 1.7860	28.2420
 1.7870	28.2230
 1.7880	28.2020
 1.7890	28.1830
 1.7900	28.1640
 1.7910	28.1480
 1.7920	28.1360
 1.7930	28.1240
 1.7940	28.1100
 1.7950	28.1000
 1.7960	28.0930
 1.7970	28.0860
 1.7980	28.0840
 1.7990	28.0790
 1.8000	28.0720
 1.8010	28.0670
 1.8020	28.0620
 1.8030	28.0570
 1.8040	28.0540
 1.8050	28.0520
 1.8060	28.0520
 1.8070	28.0500
 1.8080	28.0480
 1.8090	28.0460
 1.8100	28.0420
 1.8110	28.0390
 1.8120	28.0340
 1.8130	28.0270
 1.8140	28.0220
 1.8150	28.0160
 1.8160	28.0080
 1.8170	27.9990
 1.8180	27.9890
 1.8190	27.9830
 1.8200	27.9760
 1.8210	27.9700
 1.8220	27.9610
 1.8230	27.9490
 1.8240	27.9350
 1.8250	27.9180
 1.8260	27.9030
 1.8270	27.8990
 1.8280	27.8960
 1.8290	27.8930
 1.8300	27.8890
 1.8310	27.8860
 1.8320	27.8830
 1.8330	27.8790
 1.8340	27.8760
 1.8350	27.8760
 1.8360	27.8380
 1.8370	27.7960
 1.8380	27.7470
 1.8390	27.6940
 1.8400	27.6390
 1.8410	27.5770
 1.8420	27.5080
 1.8430	27.4380
 1.8440	27.3650
 1.8450	27.2840
 1.8460	27.1950
 1.8470	27.0960
 1.8480	26.9880
 1.8490	26.8710
 1.8500	26.7470
 1.8510	26.6160
 1.8520	26.4760
 1.8530	26.3240
 1.8540	26.1630
 1.8550	25.9950
 1.8560	25.8190
 1.8570	25.6310
 1.8580	25.4270
 1.8590	25.2110
 1.8600	24.9820
 1.8610	24.7380
 1.8620	24.4800
 1.8630	24.2120
 1.8640	23.9280
 1.8650	23.6290
 1.8660	23.3170
 1.8670	22.9880
 1.8680	22.6430
 1.8690	22.2830
 1.8700	21.9090
 1.8710	21.5190
 1.8720	21.1240
 1.8730	20.7230
 1.8740	20.3120
 1.8750	19.8960
 1.8760	19.4720
 1.8770	19.0450
 1.8780	18.6180
 1.8790	18.1940
 1.8800	17.7780
 1.8810	17.3670
 1.8820	16.9590
 1.8830	16.5590
 1.8840	16.1660
 1.8850	15.7790
 1.8860	15.4050
 1.8870	15.0450
 1.8880	14.6980
 1.8890	14.3710
 1.8900	14.0640
 1.8910	13.7740
 1.8920	13.5010
 1.8930	13.2470
 1.8940	13.0130
 1.8950	12.7960
 1.8960	12.5960
 1.8970	12.4140
 1.8980	12.2520
 1.8990	12.1020
 1.9000	11.9670
 1.9010	11.8520
 1.9020	11.7430
 1.9030	11.6460
 1.9040	11.5610
 1.9050	11.4840
 1.9060	11.4190
 1.9070	11.3640
 1.9080	11.3170
 1.9090	11.2760
 1.9100	11.2400
 1.9110	11.2060
 1.9120	11.1760
 1.9130	11.1490
 1.9140	11.1250
 1.9150	11.1050
 1.9160	11.0890
 1.9170	11.0740
 1.9180	11.0640
 1.9190	11.0570
 1.9200	11.0530
 1.9210	11.0510
 1.9220	11.0490
 1.9230	11.0480
 1.9240	11.0480
 1.9250	11.0490
 1.9260	11.0500
 1.9270	11.0510
 1.9280	11.0550
 1.9290	11.0600
 1.9300	11.0660
 1.9310	11.0720
 1.9320	11.0790
 1.9330	11.0870
 1.9340	11.0920
 1.9350	11.1010
 1.9360	11.1110
 1.9370	11.1210
 1.9380	11.1330
 1.9390	11.1440
 1.9400	11.1560
 1.9410	11.1700
 1.9420	11.1830
 1.9430	11.2000
 1.9440	11.2160
 1.9450	11.2330
 1.9460	11.2500
 1.9470	11.2680
 1.9480	11.2860
 1.9490	11.3050
 1.9500	11.3260
 1.9510	11.3480
 1.9520	11.3700
 1.9530	11.3920
 1.9540	11.4160
 1.9550	11.4400
 1.9560	11.4640
 1.9570	11.4890
 1.9580	11.5160
 1.9590	11.5430
 1.9600	11.5700
 1.9610	11.5990
 1.9620	11.6290
 1.9630	11.6600
 1.9640	11.6930
 1.9650	11.7260
 1.9660	11.7560
 1.9670	11.7880
 1.9680	11.8190
 1.9690	11.8470
 1.9700	11.8800
 1.9710	11.9160
 1.9720	11.9510
 1.9730	11.9880
 1.9740	12.0280
 1.9750	12.0670
 1.9760	12.1050
 1.9770	12.1440
 1.9780	12.1840
 1.9790	12.2250
 1.9800	12.2680
 1.9810	12.3120
 1.9820	12.3580
 1.9830	12.4030
 1.9840	12.4460
 1.9850	12.4910
 1.9860	12.5350
 1.9870	12.5840
 1.9880	12.6330
 1.9890	12.6810
 1.9900	12.7340
 1.9910	12.7840
 1.9920	12.8330
 1.9930	12.8830
 1.9940	12.9320
 1.9950	12.9760
 1.9960	13.0250
 1.9970	13.0760
 1.9980	13.1270
 1.9990	13.1820
 2.0000	13.2340
 2.0010	13.2870
 2.0020	13.3410
 2.0030	13.3930
 2.0040	13.4450
 2.0050	13.4990
 2.0060	13.5540
 2.0070	13.6080
 2.0080	13.6630
 2.0090	13.7170
 2.0100	13.7690
 2.0110	13.8220
 2.0120	13.8730
 2.0130	13.9270
 2.0140	13.9780
 2.0150	14.0310
 2.0160	14.0840
 2.0170	14.1340
 2.0180	14.1860
 2.0190	14.2370
 2.0200	14.2870
 2.0210	14.3380
 2.0220	14.3880
 2.0230	14.4360
 2.0240	14.4850
 2.0250	14.5350
 2.0260	14.5840
 2.0270	14.6300
 2.0280	14.6770
 2.0290	14.7230
 2.0300	14.7680
 2.0310	14.8130
 2.0320	14.8570
 2.0330	14.9010
 2.0340	14.9460
 2.0350	14.9880
 2.0360	15.0310
 2.0370	15.0720
 2.0380	15.1110
 2.0390	15.1490
 2.0400	15.1840
 2.0410	15.2200
 2.0420	15.2540
 2.0430	15.2900
 2.0440	15.3250
 2.0450	15.3620
 2.0460	15.3970
 2.0470	15.4290
 2.0480	15.4630
 2.0490	15.4950
 2.0500	15.5310
 2.0510	15.5720
 2.0520	15.6080
 2.0530	15.6410
 2.0540	15.6760
 2.0550	15.7100
 2.0560	15.7420
 2.0570	15.7810
 2.0580	15.8210
 2.0590	15.8590
 2.0600	15.9000
 2.0610	15.9370
 2.0620	15.9720
 2.0630	16.0080
 2.0640	16.0430
 2.0650	16.0780
 2.0660	16.1140
 2.0670	16.1500
 2.0680	16.1850
 2.0690	16.2210
 2.0700	16.2570
 2.0710	16.2940
 2.0720	16.3340
 2.0730	16.3710
 2.0740	16.4080
 2.0750	16.4450
 2.0760	16.4820
 2.0770	16.5180
 2.0780	16.5530
 2.0790	16.5870
 2.0800	16.6200
 2.0810	16.6510
 2.0820	16.6830
 2.0830	16.7140
 2.0840	16.7470
 2.0850	16.7810
 2.0860	16.8140
 2.0870	16.8500
 2.0880	16.8810
 2.0890	16.9120
 2.0900	16.9380
 2.0910	16.9700
 2.0920	17.0030
 2.0930	17.0340
 2.0940	17.0670
 2.0950	17.0980
 2.0960	17.1270
 2.0970	17.1580
 2.0980	17.1920
 2.0990	17.2230
 2.1000	17.2540
 2.1010	17.2840
 2.1020	17.3150
 2.1030	17.3450
 2.1040	17.3720
 2.1050	17.4010
 2.1060	17.4290
 2.1070	17.4560
 2.1080	17.4830
 2.1090	17.5110
 2.1100	17.5370
 2.1110	17.5620
 2.1120	17.5870
 2.1130	17.6110
 2.1140	17.6380
 2.1150	17.6670
 2.1160	17.6950
 2.1170	17.7300
 2.1180	17.7570
 2.1190	17.7800
 2.1200	17.8030
 2.1210	17.8210
 2.1220	17.8400
 2.1230	17.8610
 2.1240	17.8850
 2.1250	17.9050
 2.1260	17.9240
 2.1270	17.9430
 2.1280	17.9610
 2.1290	17.9790
 2.1300	17.9980
 2.1310	18.0170
 2.1320	18.0350
 2.1330	18.0540
 2.1340	18.0740
 2.1350	18.0930
 2.1360	18.1110
 2.1370	18.1280
 2.1380	18.1430
 2.1390	18.1580
 2.1400	18.1720
 2.1410	18.1850
 2.1420	18.1990
 2.1430	18.2110
 2.1440	18.2270
 2.1450	18.2430
 2.1460	18.2590
 2.1470	18.2780
 2.1480	18.2920
 2.1490	18.3010
 2.1500	18.3160
 2.1510	18.3320
 2.1520	18.3470
 2.1530	18.3660
 2.1540	18.3810
 2.1550	18.3920
 2.1560	18.4060
 2.1570	18.4190
 2.1580	18.4330
 2.1590	18.4520
 2.1600	18.4670
 2.1610	18.4830
 2.1620	18.4980
 2.1630	18.5100
 2.1640	18.5210
 2.1650	18.5310
 2.1660	18.5380
 2.1670	18.5490
 2.1680	18.5580
 2.1690	18.5700
 2.1700	18.5840
 2.1710	18.5960
 2.1720	18.6080
 2.1730	18.6200
 2.1740	18.6290
 2.1750	18.6410
 2.1760	18.6540
 2.1770	18.6680
 2.1780	18.6840
 2.1790	18.6990
 2.1800	18.7100
 2.1810	18.7250
 2.1820	18.7410
 2.1830	18.7570
 2.1840	18.7760
 2.1850	18.7980
 2.1860	18.8180
 2.1870	18.8370
 2.1880	18.8560
 2.1890	18.8740
 2.1900	18.8920
 2.1910	18.9070
 2.1920	18.9230
 2.1930	18.9380
 2.1940	18.9540
 2.1950	18.9710
 2.1960	18.9870
 2.1970	19.0010
 2.1980	19.0160
 2.1990	19.0310
 2.2000	19.0460
 2.2010	19.0630
 2.2020	19.0790
 2.2030	19.0940
 2.2040	19.1090
 2.2050	19.1270
 2.2060	19.1400
 2.2070	19.1520
 2.2080	19.1620
 2.2090	19.1720
 2.2100	19.1790
 2.2110	19.1890
 2.2120	19.2020
 2.2130	19.2110
 2.2140	19.2220
 2.2150	19.2290
 2.2160	19.2330
 2.2170	19.2370
 2.2180	19.2390
 2.2190	19.2420
 2.2200	19.2460
 2.2210	19.2470
 2.2220	19.2470
 2.2230	19.2450
 2.2240	19.2420
 2.2250	19.2370
 2.2260	19.2290
 2.2270	19.2210
 2.2280	19.2110
 2.2290	19.2010
 2.2300	19.1900
 2.2310	19.1790
 2.2320	19.1650
 2.2330	19.1470
 2.2340	19.1280
 2.2350	19.1070
 2.2360	19.0830
 2.2370	19.0550
 2.2380	19.0280
 2.2390	18.9970
 2.2400	18.9670
 2.2410	18.9420
 2.2420	18.9070
 2.2430	18.8640
 2.2440	18.8280
 2.2450	18.7890
 2.2460	18.7530
 2.2470	18.7260
 2.2480	18.6900
 2.2490	18.6500
 2.2500	18.6120
 2.2510	18.5730
 2.2520	18.5360
 2.2530	18.5020
 2.2540	18.4630
 2.2550	18.4240
 2.2560	18.3830
 2.2570	18.3360
 2.2580	18.2930
 2.2590	18.2510
 2.2600	18.2100
 2.2610	18.1680
 2.2620	18.1320
 2.2630	18.0950
 2.2640	18.0580
 2.2650	18.0200
 2.2660	17.9800
 2.2670	17.9410
 2.2680	17.8980
 2.2690	17.8610
 2.2700	17.8280
 2.2710	17.7920
 2.2720	17.7570
 2.2730	17.7230
 2.2740	17.6880
 2.2750	17.6560
 2.2760	17.6270
 2.2770	17.5980
 2.2780	17.5730
 2.2790	17.5430
 2.2800	17.5110
 2.2810	17.4810
 2.2820	17.4470
 2.2830	17.4140
 2.2840	17.3840
 2.2850	17.3530
 2.2860	17.3190
 2.2870	17.2880
 2.2880	17.2610
 2.2890	17.2280
 2.2900	17.1940
 2.2910	17.1590
 2.2920	17.1160
 2.2930	17.0800
 2.2940	17.0510
 2.2950	17.0180
 2.2960	16.9880
 2.2970	16.9590
 2.2980	16.9260
 2.2990	16.9000
 2.3000	16.8740
 2.3010	16.8450
 2.3020	16.8180
 2.3030	16.7890
 2.3040	16.7580
 2.3050	16.7210
 2.3060	16.6820
 2.3070	16.6470
 2.3080	16.6150
 2.3090	16.5870
 2.3100	16.5620
 2.3110	16.5380
 2.3120	16.5120
 2.3130	16.4860
 2.3140	16.4620
 2.3150	16.4360
 2.3160	16.4110
 2.3170	16.3910
 2.3180	16.3650
 2.3190	16.3350
 2.3200	16.3090
 2.3210	16.2830
 2.3220	16.2580
 2.3230	16.2330
 2.3240	16.2060
 2.3250	16.1760
 2.3260	16.1450
 2.3270	16.1160
 2.3280	16.0830
 2.3290	16.0460
 2.3300	16.0090
 2.3310	15.9660
 2.3320	15.9290
 2.3330	15.8950
 2.3340	15.8630
 2.3350	15.8360
 2.3360	15.8040
 2.3370	15.7700
 2.3380	15.7370
 2.3390	15.7020
 2.3400	15.6710
 2.3410	15.6440
 2.3420	15.6130
 2.3430	15.5830
 2.3440	15.5500
 2.3450	15.5120
 2.3460	15.4780
 2.3470	15.4420
 2.3480	15.4120
 2.3490	15.3910
 2.3500	15.3650
 2.3510	15.3430
 2.3520	15.3160
 2.3530	15.2840
 2.3540	15.2530
 2.3550	15.2220
 2.3560	15.1930
 2.3570	15.1680
 2.3580	15.1410
 2.3590	15.1090
 2.3600	15.0770
 2.3610	15.0510
 2.3620	15.0230
 2.3630	14.9990
 2.3640	14.9800
 2.3650	14.9430
 2.3660	14.9060
 2.3670	14.8810
 2.3680	14.8460
 2.3690	14.8090
 2.3700	14.7780
 2.3710	14.7460
 2.3720	14.7090
 2.3730	14.6780
 2.3740	14.6530
 2.3750	14.6230
 2.3760	14.5960
 2.3770	14.5720
 2.3780	14.5400
 2.3790	14.5040
 2.3800	14.4690
 2.3810	14.4350
 2.3820	14.4020
 2.3830	14.3720
 2.3840	14.3440
 2.3850	14.3150
 2.3860	14.2850
 2.3870	14.2550
 2.3880	14.2190
 2.3890	14.1790
 2.3900	14.1440
 2.3910	14.1060
 2.3920	14.0720
 2.3930	14.0480
 2.3940	14.0220
 2.3950	13.9910
 2.3960	13.9590
 2.3970	13.9220
 2.3980	13.8850
 2.3990	13.8590
 2.4000	13.8260
 2.4010	13.7940
 2.4020	13.7700
 2.4030	13.7350
 2.4040	13.6990
 2.4050	13.6650
 2.4060	13.6210
 2.4070	13.5790
 2.4080	13.5480
 2.4090	13.5190
 2.4100	13.4840
 2.4110	13.4540
 2.4120	13.4250
 2.4130	13.3890
 2.4140	13.3540
 2.4150	13.3150
 2.4160	13.2730
 2.4170	13.2300
 2.4180	13.1920
 2.4190	13.1760
 2.4200	13.1600
 2.4210	13.1460
 2.4220	13.1390
 2.4230	13.1030
 2.4240	13.0630
 2.4250	13.0320
 2.4260	12.9970
 2.4270	12.9800
 2.4280	12.9590
 2.4290	12.9330
 2.4300	12.8970
 2.4310	12.8500
 2.4320	12.8130
 2.4330	12.7610
 2.4340	12.7180
 2.4350	12.6880
 2.4360	12.6510
 2.4370	12.6290
 2.4380	12.6020
 2.4390	12.5700
 2.4400	12.5410
 2.4410	12.5070
 2.4420	12.4970
 2.4430	12.4840
 2.4440	12.4570
 2.4450	12.4280
 2.4460	12.3830
 2.4470	12.3470
 2.4480	12.3100
 2.4490	12.2670
 2.4500	12.2440
 2.4510	12.2140
 2.4520	12.1880
 2.4530	12.1720
 2.4540	12.1480
 2.4550	12.1170
 2.4560	12.0930
 2.4570	12.0730
 2.4580	12.0470
 2.4590	12.0340
 2.4600	12.0210
 2.4610	12.0020
 2.4620	11.9720
 2.4630	11.9410
 2.4640	11.9190
 2.4650	11.8970
 2.4660	11.8940
 2.4670	11.8830
 2.4680	11.8490
 2.4690	11.8220
 2.4700	11.8060
 2.4710	11.8140
 2.4720	11.8070
 2.4730	11.7990
 2.4740	11.7930
 2.4750	11.7680
 2.4760	11.7500
 2.4770	11.7420
 2.4780	11.7220
 2.4790	11.6920
 2.4800	11.6770
 2.4810	11.6630
 2.4820	11.6530
 2.4830	11.6410
 2.4840	11.6200
 2.4850	11.5950
 2.4860	11.5860
 2.4870	11.5740
 2.4880	11.5540
 2.4890	11.5560
 2.4900	11.5510
 2.4910	11.5620
 2.4920	11.5810
 2.4930	11.5550
 2.4940	11.5120
 2.4950	11.4700
 2.4960	11.4630
 2.4970	11.4980
 2.4980	11.5540
 2.4990	11.6220
 2.5000	11.6030
