Name: Eucalyptus saligna
Type: vegetation
Class: Tree
Genus: Eucalyptus
Species: saligna
Sample No.: JPL154
Owner: JPL
Wavelength Range: VSWIR
Origin: 34.12473; -118.11474; WGS84
Collection Date: 9/14/2016
Description: Samples were collected at the Huntington Garden in San Marino California as part of a JPL Subcontract studying HyTES imagery. Samples were taken to JPL and processed within 48 hours of collection. The same leaves were processed in the Nicolet and then measured using the ASD.
Measurement: Bidirectional reflectance
First Column: X
Second Column: Y
X Units: Wavelength (micrometer)
Y Units: Reflectance (percentage)
First X Value: 0.35
Last X Value: 2.5
Number of X Values: 2151
Additional Information: vegetation.tree.eucalyptus.saligna.vswir.jpl154.jpl.asd.ancillary.txt

 0.3500	 5.6110
 0.3510	 5.3850
 0.3520	 5.3710
 0.3530	 5.4120
 0.3540	 5.3570
 0.3550	 5.4130
 0.3560	 5.4060
 0.3570	 5.3150
 0.3580	 5.2120
 0.3590	 5.1660
 0.3600	 5.1840
 0.3610	 5.2280
 0.3620	 5.2110
 0.3630	 5.1490
 0.3640	 5.1080
 0.3650	 5.1290
 0.3660	 5.1170
 0.3670	 5.1570
 0.3680	 5.2040
 0.3690	 5.1450
 0.3700	 5.1390
 0.3710	 5.1420
 0.3720	 5.1230
 0.3730	 5.1290
 0.3740	 5.1340
 0.3750	 5.1370
 0.3760	 5.1450
 0.3770	 5.1720
 0.3780	 5.1620
 0.3790	 5.1400
 0.3800	 5.1830
 0.3810	 5.1820
 0.3820	 5.1540
 0.3830	 5.1400
 0.3840	 5.2020
 0.3850	 5.1830
 0.3860	 5.1580
 0.3870	 5.2370
 0.3880	 5.1810
 0.3890	 5.1410
 0.3900	 5.1710
 0.3910	 5.1960
 0.3920	 5.2020
 0.3930	 5.2120
 0.3940	 5.2350
 0.3950	 5.2220
 0.3960	 5.2110
 0.3970	 5.2040
 0.3980	 5.1870
 0.3990	 5.1970
 0.4000	 5.2180
 0.4010	 5.2360
 0.4020	 5.2480
 0.4030	 5.2750
 0.4040	 5.2880
 0.4050	 5.2700
 0.4060	 5.2870
 0.4070	 5.3050
 0.4080	 5.3170
 0.4090	 5.3350
 0.4100	 5.3530
 0.4110	 5.3730
 0.4120	 5.3870
 0.4130	 5.3720
 0.4140	 5.3830
 0.4150	 5.4090
 0.4160	 5.4210
 0.4170	 5.4280
 0.4180	 5.4330
 0.4190	 5.4460
 0.4200	 5.4890
 0.4210	 5.5180
 0.4220	 5.5260
 0.4230	 5.5220
 0.4240	 5.5320
 0.4250	 5.5550
 0.4260	 5.5780
 0.4270	 5.5870
 0.4280	 5.6070
 0.4290	 5.6220
 0.4300	 5.6250
 0.4310	 5.6260
 0.4320	 5.6300
 0.4330	 5.6360
 0.4340	 5.6400
 0.4350	 5.6430
 0.4360	 5.6540
 0.4370	 5.6710
 0.4380	 5.6840
 0.4390	 5.6920
 0.4400	 5.7060
 0.4410	 5.7270
 0.4420	 5.7350
 0.4430	 5.7450
 0.4440	 5.7570
 0.4450	 5.7660
 0.4460	 5.7760
 0.4470	 5.7860
 0.4480	 5.7970
 0.4490	 5.8080
 0.4500	 5.8090
 0.4510	 5.8080
 0.4520	 5.8150
 0.4530	 5.8320
 0.4540	 5.8470
 0.4550	 5.8530
 0.4560	 5.8440
 0.4570	 5.8490
 0.4580	 5.8570
 0.4590	 5.8570
 0.4600	 5.8550
 0.4610	 5.8530
 0.4620	 5.8550
 0.4630	 5.8620
 0.4640	 5.8630
 0.4650	 5.8630
 0.4660	 5.8650
 0.4670	 5.8640
 0.4680	 5.8560
 0.4690	 5.8520
 0.4700	 5.8570
 0.4710	 5.8570
 0.4720	 5.8530
 0.4730	 5.8490
 0.4740	 5.8490
 0.4750	 5.8600
 0.4760	 5.8610
 0.4770	 5.8510
 0.4780	 5.8590
 0.4790	 5.8600
 0.4800	 5.8570
 0.4810	 5.8600
 0.4820	 5.8560
 0.4830	 5.8520
 0.4840	 5.8540
 0.4850	 5.8600
 0.4860	 5.8560
 0.4870	 5.8540
 0.4880	 5.8590
 0.4890	 5.8640
 0.4900	 5.8710
 0.4910	 5.8780
 0.4920	 5.8830
 0.4930	 5.8860
 0.4940	 5.8940
 0.4950	 5.9090
 0.4960	 5.9220
 0.4970	 5.9370
 0.4980	 5.9490
 0.4990	 5.9570
 0.5000	 5.9780
 0.5010	 5.9970
 0.5020	 6.0100
 0.5030	 6.0300
 0.5040	 6.0580
 0.5050	 6.0860
 0.5060	 6.1090
 0.5070	 6.1360
 0.5080	 6.1650
 0.5090	 6.2000
 0.5100	 6.2390
 0.5110	 6.2840
 0.5120	 6.3340
 0.5130	 6.3870
 0.5140	 6.4430
 0.5150	 6.5030
 0.5160	 6.5700
 0.5170	 6.6450
 0.5180	 6.7230
 0.5190	 6.8120
 0.5200	 6.9080
 0.5210	 7.0020
 0.5220	 7.1030
 0.5230	 7.2090
 0.5240	 7.3160
 0.5250	 7.4210
 0.5260	 7.5250
 0.5270	 7.6270
 0.5280	 7.7240
 0.5290	 7.8190
 0.5300	 7.9060
 0.5310	 7.9830
 0.5320	 8.0610
 0.5330	 8.1300
 0.5340	 8.1920
 0.5350	 8.2490
 0.5360	 8.2960
 0.5370	 8.3360
 0.5380	 8.3700
 0.5390	 8.4010
 0.5400	 8.4270
 0.5410	 8.4500
 0.5420	 8.4700
 0.5430	 8.4880
 0.5440	 8.5100
 0.5450	 8.5340
 0.5460	 8.5530
 0.5470	 8.5730
 0.5480	 8.5910
 0.5490	 8.6070
 0.5500	 8.6200
 0.5510	 8.6260
 0.5520	 8.6250
 0.5530	 8.6210
 0.5540	 8.6070
 0.5550	 8.5840
 0.5560	 8.5510
 0.5570	 8.5080
 0.5580	 8.4600
 0.5590	 8.4070
 0.5600	 8.3480
 0.5610	 8.2840
 0.5620	 8.2170
 0.5630	 8.1500
 0.5640	 8.0860
 0.5650	 8.0190
 0.5660	 7.9500
 0.5670	 7.8780
 0.5680	 7.8040
 0.5690	 7.7280
 0.5700	 7.6530
 0.5710	 7.5780
 0.5720	 7.5050
 0.5730	 7.4360
 0.5740	 7.3710
 0.5750	 7.3100
 0.5760	 7.2550
 0.5770	 7.2040
 0.5780	 7.1550
 0.5790	 7.1050
 0.5800	 7.0610
 0.5810	 7.0240
 0.5820	 6.9930
 0.5830	 6.9610
 0.5840	 6.9340
 0.5850	 6.9100
 0.5860	 6.8830
 0.5870	 6.8630
 0.5880	 6.8490
 0.5890	 6.8400
 0.5900	 6.8210
 0.5910	 6.8010
 0.5920	 6.7830
 0.5930	 6.7690
 0.5940	 6.7580
 0.5950	 6.7490
 0.5960	 6.7400
 0.5970	 6.7300
 0.5980	 6.7170
 0.5990	 6.7010
 0.6000	 6.6860
 0.6010	 6.6770
 0.6020	 6.6650
 0.6030	 6.6480
 0.6040	 6.6280
 0.6050	 6.6050
 0.6060	 6.5820
 0.6070	 6.5580
 0.6080	 6.5340
 0.6090	 6.5040
 0.6100	 6.4680
 0.6110	 6.4300
 0.6120	 6.4020
 0.6130	 6.3820
 0.6140	 6.3630
 0.6150	 6.3400
 0.6160	 6.3170
 0.6170	 6.2940
 0.6180	 6.2720
 0.6190	 6.2520
 0.6200	 6.2340
 0.6210	 6.2170
 0.6220	 6.2030
 0.6230	 6.1930
 0.6240	 6.1830
 0.6250	 6.1730
 0.6260	 6.1650
 0.6270	 6.1570
 0.6280	 6.1500
 0.6290	 6.1470
 0.6300	 6.1420
 0.6310	 6.1370
 0.6320	 6.1330
 0.6330	 6.1280
 0.6340	 6.1210
 0.6350	 6.1090
 0.6360	 6.0940
 0.6370	 6.0810
 0.6380	 6.0670
 0.6390	 6.0510
 0.6400	 6.0310
 0.6410	 6.0090
 0.6420	 5.9870
 0.6430	 5.9660
 0.6440	 5.9430
 0.6450	 5.9220
 0.6460	 5.9020
 0.6470	 5.8830
 0.6480	 5.8670
 0.6490	 5.8540
 0.6500	 5.8430
 0.6510	 5.8340
 0.6520	 5.8250
 0.6530	 5.8170
 0.6540	 5.8110
 0.6550	 5.8040
 0.6560	 5.7950
 0.6570	 5.7840
 0.6580	 5.7750
 0.6590	 5.7650
 0.6600	 5.7520
 0.6610	 5.7400
 0.6620	 5.7290
 0.6630	 5.7200
 0.6640	 5.7120
 0.6650	 5.7050
 0.6660	 5.7010
 0.6670	 5.7010
 0.6680	 5.7050
 0.6690	 5.7100
 0.6700	 5.7170
 0.6710	 5.7290
 0.6720	 5.7440
 0.6730	 5.7600
 0.6740	 5.7840
 0.6750	 5.8110
 0.6760	 5.8350
 0.6770	 5.8660
 0.6780	 5.9010
 0.6790	 5.9400
 0.6800	 5.9810
 0.6810	 6.0250
 0.6820	 6.0720
 0.6830	 6.1210
 0.6840	 6.1690
 0.6850	 6.2180
 0.6860	 6.2680
 0.6870	 6.3210
 0.6880	 6.3770
 0.6890	 6.4400
 0.6900	 6.5150
 0.6910	 6.6060
 0.6920	 6.7130
 0.6930	 6.8450
 0.6940	 7.0110
 0.6950	 7.2200
 0.6960	 7.4690
 0.6970	 7.7610
 0.6980	 8.1040
 0.6990	 8.4970
 0.7000	 8.9410
 0.7010	 9.4340
 0.7020	 9.9720
 0.7030	10.5550
 0.7040	11.1780
 0.7050	11.8380
 0.7060	12.5300
 0.7070	13.2540
 0.7080	14.0100
 0.7090	14.7970
 0.7100	15.6110
 0.7110	16.4520
 0.7120	17.3180
 0.7130	18.2070
 0.7140	19.1180
 0.7150	20.0510
 0.7160	21.0010
 0.7170	21.9660
 0.7180	22.9430
 0.7190	23.9290
 0.7200	24.9190
 0.7210	25.9140
 0.7220	26.9060
 0.7230	27.8910
 0.7240	28.8670
 0.7250	29.8260
 0.7260	30.7660
 0.7270	31.6860
 0.7280	32.5820
 0.7290	33.4500
 0.7300	34.2890
 0.7310	35.0950
 0.7320	35.8700
 0.7330	36.6110
 0.7340	37.3170
 0.7350	37.9850
 0.7360	38.6220
 0.7370	39.2240
 0.7380	39.7900
 0.7390	40.3210
 0.7400	40.8180
 0.7410	41.2810
 0.7420	41.7110
 0.7430	42.1130
 0.7440	42.4820
 0.7450	42.8210
 0.7460	43.1310
 0.7470	43.4140
 0.7480	43.6740
 0.7490	43.9110
 0.7500	44.1240
 0.7510	44.3170
 0.7520	44.4920
 0.7530	44.6500
 0.7540	44.7940
 0.7550	44.9220
 0.7560	45.0370
 0.7570	45.1420
 0.7580	45.2380
 0.7590	45.3250
 0.7600	45.4020
 0.7610	45.4710
 0.7620	45.5320
 0.7630	45.5860
 0.7640	45.6350
 0.7650	45.6750
 0.7660	45.7130
 0.7670	45.7480
 0.7680	45.7760
 0.7690	45.8000
 0.7700	45.8230
 0.7710	45.8450
 0.7720	45.8630
 0.7730	45.8800
 0.7740	45.8960
 0.7750	45.9110
 0.7760	45.9240
 0.7770	45.9370
 0.7780	45.9490
 0.7790	45.9600
 0.7800	45.9710
 0.7810	45.9810
 0.7820	45.9910
 0.7830	45.9990
 0.7840	46.0080
 0.7850	46.0160
 0.7860	46.0220
 0.7870	46.0270
 0.7880	46.0320
 0.7890	46.0370
 0.7900	46.0410
 0.7910	46.0430
 0.7920	46.0450
 0.7930	46.0470
 0.7940	46.0500
 0.7950	46.0470
 0.7960	46.0420
 0.7970	46.0390
 0.7980	46.0370
 0.7990	46.0320
 0.8000	46.0260
 0.8010	46.0200
 0.8020	46.0120
 0.8030	46.0070
 0.8040	46.0020
 0.8050	45.9920
 0.8060	45.9800
 0.8070	45.9700
 0.8080	45.9600
 0.8090	45.9500
 0.8100	45.9380
 0.8110	45.9260
 0.8120	45.9160
 0.8130	45.9000
 0.8140	45.8850
 0.8150	45.8710
 0.8160	45.8580
 0.8170	45.8450
 0.8180	45.8330
 0.8190	45.8210
 0.8200	45.8070
 0.8210	45.7920
 0.8220	45.7770
 0.8230	45.7630
 0.8240	45.7490
 0.8250	45.7330
 0.8260	45.7170
 0.8270	45.7020
 0.8280	45.6890
 0.8290	45.6740
 0.8300	45.6580
 0.8310	45.6410
 0.8320	45.6270
 0.8330	45.6140
 0.8340	45.6030
 0.8350	45.5940
 0.8360	45.5820
 0.8370	45.5700
 0.8380	45.5590
 0.8390	45.5520
 0.8400	45.5460
 0.8410	45.5410
 0.8420	45.5350
 0.8430	45.5260
 0.8440	45.5200
 0.8450	45.5160
 0.8460	45.5100
 0.8470	45.5040
 0.8480	45.5010
 0.8490	45.4990
 0.8500	45.4960
 0.8510	45.4960
 0.8520	45.4950
 0.8530	45.4910
 0.8540	45.4870
 0.8550	45.4870
 0.8560	45.4900
 0.8570	45.4940
 0.8580	45.4970
 0.8590	45.5020
 0.8600	45.5060
 0.8610	45.5080
 0.8620	45.5080
 0.8630	45.5140
 0.8640	45.5200
 0.8650	45.5230
 0.8660	45.5320
 0.8670	45.5390
 0.8680	45.5450
 0.8690	45.5520
 0.8700	45.5590
 0.8710	45.5660
 0.8720	45.5740
 0.8730	45.5840
 0.8740	45.5970
 0.8750	45.6070
 0.8760	45.6140
 0.8770	45.6230
 0.8780	45.6360
 0.8790	45.6500
 0.8800	45.6610
 0.8810	45.6660
 0.8820	45.6740
 0.8830	45.6830
 0.8840	45.6930
 0.8850	45.7070
 0.8860	45.7200
 0.8870	45.7310
 0.8880	45.7410
 0.8890	45.7490
 0.8900	45.7600
 0.8910	45.7710
 0.8920	45.7780
 0.8930	45.7900
 0.8940	45.8010
 0.8950	45.8120
 0.8960	45.8250
 0.8970	45.8330
 0.8980	45.8370
 0.8990	45.8420
 0.9000	45.8520
 0.9010	45.8670
 0.9020	45.8770
 0.9030	45.8830
 0.9040	45.8940
 0.9050	45.9030
 0.9060	45.9090
 0.9070	45.9140
 0.9080	45.9210
 0.9090	45.9270
 0.9100	45.9340
 0.9110	45.9430
 0.9120	45.9430
 0.9130	45.9490
 0.9140	45.9560
 0.9150	45.9580
 0.9160	45.9590
 0.9170	45.9620
 0.9180	45.9640
 0.9190	45.9610
 0.9200	45.9650
 0.9210	45.9680
 0.9220	45.9650
 0.9230	45.9570
 0.9240	45.9540
 0.9250	45.9510
 0.9260	45.9460
 0.9270	45.9380
 0.9280	45.9240
 0.9290	45.9100
 0.9300	45.8990
 0.9310	45.8910
 0.9320	45.8730
 0.9330	45.8540
 0.9340	45.8390
 0.9350	45.8300
 0.9360	45.8080
 0.9370	45.7850
 0.9380	45.7670
 0.9390	45.7480
 0.9400	45.7310
 0.9410	45.7070
 0.9420	45.6760
 0.9430	45.6500
 0.9440	45.6200
 0.9450	45.5890
 0.9460	45.5610
 0.9470	45.5290
 0.9480	45.4980
 0.9490	45.4550
 0.9500	45.4000
 0.9510	45.3610
 0.9520	45.3040
 0.9530	45.2500
 0.9540	45.2150
 0.9550	45.1650
 0.9560	45.1160
 0.9570	45.0680
 0.9580	45.0180
 0.9590	44.9720
 0.9600	44.9300
 0.9610	44.8960
 0.9620	44.8670
 0.9630	44.8200
 0.9640	44.7900
 0.9650	44.7720
 0.9660	44.7490
 0.9670	44.7260
 0.9680	44.7010
 0.9690	44.6780
 0.9700	44.6570
 0.9710	44.6460
 0.9720	44.6290
 0.9730	44.6110
 0.9740	44.6040
 0.9750	44.5970
 0.9760	44.5870
 0.9770	44.5740
 0.9780	44.5630
 0.9790	44.5560
 0.9800	44.5510
 0.9810	44.5390
 0.9820	44.5180
 0.9830	44.5150
 0.9840	44.5170
 0.9850	44.5260
 0.9860	44.5430
 0.9870	44.5400
 0.9880	44.5420
 0.9890	44.5450
 0.9900	44.5400
 0.9910	44.5450
 0.9920	44.5520
 0.9930	44.5590
 0.9940	44.5640
 0.9950	44.5590
 0.9960	44.5720
 0.9970	44.5940
 0.9980	44.6010
 0.9990	44.5950
 1.0000	44.5870
 1.0010	45.2240
 1.0020	45.2370
 1.0030	45.2470
 1.0040	45.2560
 1.0050	45.2690
 1.0060	45.2820
 1.0070	45.2950
 1.0080	45.3080
 1.0090	45.3190
 1.0100	45.3310
 1.0110	45.3450
 1.0120	45.3570
 1.0130	45.3720
 1.0140	45.3840
 1.0150	45.3950
 1.0160	45.4020
 1.0170	45.4120
 1.0180	45.4240
 1.0190	45.4370
 1.0200	45.4550
 1.0210	45.4750
 1.0220	45.4900
 1.0230	45.5050
 1.0240	45.5210
 1.0250	45.5340
 1.0260	45.5420
 1.0270	45.5530
 1.0280	45.5610
 1.0290	45.5720
 1.0300	45.5860
 1.0310	45.6000
 1.0320	45.6170
 1.0330	45.6280
 1.0340	45.6430
 1.0350	45.6590
 1.0360	45.6690
 1.0370	45.6820
 1.0380	45.6930
 1.0390	45.7030
 1.0400	45.7130
 1.0410	45.7240
 1.0420	45.7350
 1.0430	45.7450
 1.0440	45.7550
 1.0450	45.7650
 1.0460	45.7750
 1.0470	45.7880
 1.0480	45.7980
 1.0490	45.8100
 1.0500	45.8190
 1.0510	45.8230
 1.0520	45.8260
 1.0530	45.8320
 1.0540	45.8350
 1.0550	45.8440
 1.0560	45.8600
 1.0570	45.8690
 1.0580	45.8790
 1.0590	45.8860
 1.0600	45.8870
 1.0610	45.8920
 1.0620	45.8990
 1.0630	45.9030
 1.0640	45.9050
 1.0650	45.9100
 1.0660	45.9180
 1.0670	45.9220
 1.0680	45.9250
 1.0690	45.9300
 1.0700	45.9320
 1.0710	45.9300
 1.0720	45.9300
 1.0730	45.9310
 1.0740	45.9330
 1.0750	45.9370
 1.0760	45.9380
 1.0770	45.9410
 1.0780	45.9410
 1.0790	45.9370
 1.0800	45.9360
 1.0810	45.9390
 1.0820	45.9380
 1.0830	45.9340
 1.0840	45.9320
 1.0850	45.9300
 1.0860	45.9260
 1.0870	45.9230
 1.0880	45.9230
 1.0890	45.9190
 1.0900	45.9120
 1.0910	45.9080
 1.0920	45.9050
 1.0930	45.9020
 1.0940	45.9030
 1.0950	45.8990
 1.0960	45.8910
 1.0970	45.8850
 1.0980	45.8760
 1.0990	45.8680
 1.1000	45.8620
 1.1010	45.8550
 1.1020	45.8470
 1.1030	45.8410
 1.1040	45.8340
 1.1050	45.8270
 1.1060	45.8180
 1.1070	45.8080
 1.1080	45.7980
 1.1090	45.7870
 1.1100	45.7770
 1.1110	45.7680
 1.1120	45.7560
 1.1130	45.7420
 1.1140	45.7290
 1.1150	45.7140
 1.1160	45.6980
 1.1170	45.6850
 1.1180	45.6680
 1.1190	45.6510
 1.1200	45.6310
 1.1210	45.6090
 1.1220	45.5840
 1.1230	45.5530
 1.1240	45.5180
 1.1250	45.4800
 1.1260	45.4370
 1.1270	45.3920
 1.1280	45.3440
 1.1290	45.2900
 1.1300	45.2330
 1.1310	45.1690
 1.1320	45.0990
 1.1330	45.0250
 1.1340	44.9450
 1.1350	44.8610
 1.1360	44.7720
 1.1370	44.6770
 1.1380	44.5740
 1.1390	44.4670
 1.1400	44.3560
 1.1410	44.2430
 1.1420	44.1300
 1.1430	44.0140
 1.1440	43.8980
 1.1450	43.7770
 1.1460	43.6610
 1.1470	43.5430
 1.1480	43.4320
 1.1490	43.3230
 1.1500	43.2200
 1.1510	43.1200
 1.1520	43.0260
 1.1530	42.9380
 1.1540	42.8540
 1.1550	42.7730
 1.1560	42.6990
 1.1570	42.6280
 1.1580	42.5650
 1.1590	42.5090
 1.1600	42.4560
 1.1610	42.4080
 1.1620	42.3620
 1.1630	42.3190
 1.1640	42.2800
 1.1650	42.2440
 1.1660	42.2110
 1.1670	42.1790
 1.1680	42.1490
 1.1690	42.1210
 1.1700	42.0940
 1.1710	42.0670
 1.1720	42.0410
 1.1730	42.0160
 1.1740	41.9920
 1.1750	41.9660
 1.1760	41.9420
 1.1770	41.9160
 1.1780	41.8880
 1.1790	41.8610
 1.1800	41.8330
 1.1810	41.8070
 1.1820	41.7820
 1.1830	41.7570
 1.1840	41.7320
 1.1850	41.7070
 1.1860	41.6830
 1.1870	41.6620
 1.1880	41.6420
 1.1890	41.6250
 1.1900	41.6100
 1.1910	41.5980
 1.1920	41.5870
 1.1930	41.5790
 1.1940	41.5720
 1.1950	41.5670
 1.1960	41.5620
 1.1970	41.5600
 1.1980	41.5580
 1.1990	41.5590
 1.2000	41.5630
 1.2010	41.5660
 1.2020	41.5720
 1.2030	41.5800
 1.2040	41.5870
 1.2050	41.5970
 1.2060	41.6100
 1.2070	41.6220
 1.2080	41.6360
 1.2090	41.6520
 1.2100	41.6680
 1.2110	41.6860
 1.2120	41.7050
 1.2130	41.7280
 1.2140	41.7520
 1.2150	41.7770
 1.2160	41.8040
 1.2170	41.8320
 1.2180	41.8600
 1.2190	41.8900
 1.2200	41.9200
 1.2210	41.9490
 1.2220	41.9770
 1.2230	42.0060
 1.2240	42.0370
 1.2250	42.0670
 1.2260	42.0950
 1.2270	42.1250
 1.2280	42.1530
 1.2290	42.1790
 1.2300	42.2040
 1.2310	42.2270
 1.2320	42.2500
 1.2330	42.2720
 1.2340	42.2940
 1.2350	42.3150
 1.2360	42.3350
 1.2370	42.3520
 1.2380	42.3690
 1.2390	42.3840
 1.2400	42.4000
 1.2410	42.4160
 1.2420	42.4310
 1.2430	42.4470
 1.2440	42.4620
 1.2450	42.4750
 1.2460	42.4870
 1.2470	42.4980
 1.2480	42.5090
 1.2490	42.5210
 1.2500	42.5320
 1.2510	42.5440
 1.2520	42.5540
 1.2530	42.5640
 1.2540	42.5730
 1.2550	42.5810
 1.2560	42.5890
 1.2570	42.5950
 1.2580	42.6000
 1.2590	42.6040
 1.2600	42.6070
 1.2610	42.6100
 1.2620	42.6130
 1.2630	42.6130
 1.2640	42.6090
 1.2650	42.6060
 1.2660	42.6030
 1.2670	42.5980
 1.2680	42.5950
 1.2690	42.5910
 1.2700	42.5850
 1.2710	42.5800
 1.2720	42.5750
 1.2730	42.5680
 1.2740	42.5600
 1.2750	42.5510
 1.2760	42.5400
 1.2770	42.5290
 1.2780	42.5180
 1.2790	42.5050
 1.2800	42.4920
 1.2810	42.4770
 1.2820	42.4600
 1.2830	42.4420
 1.2840	42.4220
 1.2850	42.4020
 1.2860	42.3800
 1.2870	42.3570
 1.2880	42.3330
 1.2890	42.3070
 1.2900	42.2800
 1.2910	42.2520
 1.2920	42.2200
 1.2930	42.1860
 1.2940	42.1500
 1.2950	42.1120
 1.2960	42.0730
 1.2970	42.0320
 1.2980	41.9920
 1.2990	41.9470
 1.3000	41.8990
 1.3010	41.8530
 1.3020	41.8030
 1.3030	41.7510
 1.3040	41.6960
 1.3050	41.6380
 1.3060	41.5780
 1.3070	41.5160
 1.3080	41.4540
 1.3090	41.3910
 1.3100	41.3240
 1.3110	41.2550
 1.3120	41.1820
 1.3130	41.1070
 1.3140	41.0300
 1.3150	40.9530
 1.3160	40.8710
 1.3170	40.7860
 1.3180	40.6990
 1.3190	40.6070
 1.3200	40.5140
 1.3210	40.4190
 1.3220	40.3230
 1.3230	40.2260
 1.3240	40.1240
 1.3250	40.0200
 1.3260	39.9150
 1.3270	39.8070
 1.3280	39.6960
 1.3290	39.5830
 1.3300	39.4700
 1.3310	39.3540
 1.3320	39.2360
 1.3330	39.1170
 1.3340	38.9970
 1.3350	38.8760
 1.3360	38.7530
 1.3370	38.6320
 1.3380	38.5080
 1.3390	38.3840
 1.3400	38.2600
 1.3410	38.1350
 1.3420	38.0140
 1.3430	37.8930
 1.3440	37.7740
 1.3450	37.6550
 1.3460	37.5370
 1.3470	37.4190
 1.3480	37.3010
 1.3490	37.1850
 1.3500	37.0690
 1.3510	36.9540
 1.3520	36.8390
 1.3530	36.7240
 1.3540	36.6110
 1.3550	36.4970
 1.3560	36.3830
 1.3570	36.2660
 1.3580	36.1500
 1.3590	36.0320
 1.3600	35.9110
 1.3610	35.7870
 1.3620	35.6580
 1.3630	35.5250
 1.3640	35.3870
 1.3650	35.2430
 1.3660	35.0930
 1.3670	34.9330
 1.3680	34.7640
 1.3690	34.5870
 1.3700	34.3960
 1.3710	34.1940
 1.3720	33.9790
 1.3730	33.7470
 1.3740	33.5010
 1.3750	33.2380
 1.3760	32.9540
 1.3770	32.6510
 1.3780	32.3240
 1.3790	31.9740
 1.3800	31.6020
 1.3810	31.2040
 1.3820	30.7890
 1.3830	30.3560
 1.3840	29.9010
 1.3850	29.4250
 1.3860	28.9330
 1.3870	28.4170
 1.3880	27.8960
 1.3890	27.3620
 1.3900	26.8160
 1.3910	26.2700
 1.3920	25.7170
 1.3930	25.1580
 1.3940	24.6000
 1.3950	24.0390
 1.3960	23.4860
 1.3970	22.9420
 1.3980	22.4090
 1.3990	21.8950
 1.4000	21.3920
 1.4010	20.9020
 1.4020	20.4320
 1.4030	19.9750
 1.4040	19.5380
 1.4050	19.1250
 1.4060	18.7290
 1.4070	18.3590
 1.4080	18.0070
 1.4090	17.6720
 1.4100	17.3610
 1.4110	17.0660
 1.4120	16.7890
 1.4130	16.5330
 1.4140	16.2930
 1.4150	16.0710
 1.4160	15.8650
 1.4170	15.6730
 1.4180	15.4940
 1.4190	15.3270
 1.4200	15.1710
 1.4210	15.0260
 1.4220	14.8920
 1.4230	14.7690
 1.4240	14.6560
 1.4250	14.5500
 1.4260	14.4550
 1.4270	14.3660
 1.4280	14.2840
 1.4290	14.2070
 1.4300	14.1370
 1.4310	14.0730
 1.4320	14.0160
 1.4330	13.9640
 1.4340	13.9180
 1.4350	13.8760
 1.4360	13.8380
 1.4370	13.8040
 1.4380	13.7740
 1.4390	13.7480
 1.4400	13.7260
 1.4410	13.7080
 1.4420	13.6920
 1.4430	13.6800
 1.4440	13.6690
 1.4450	13.6620
 1.4460	13.6570
 1.4470	13.6540
 1.4480	13.6540
 1.4490	13.6550
 1.4500	13.6580
 1.4510	13.6630
 1.4520	13.6700
 1.4530	13.6780
 1.4540	13.6880
 1.4550	13.7000
 1.4560	13.7140
 1.4570	13.7320
 1.4580	13.7540
 1.4590	13.7790
 1.4600	13.8080
 1.4610	13.8390
 1.4620	13.8730
 1.4630	13.9120
 1.4640	13.9550
 1.4650	14.0030
 1.4660	14.0560
 1.4670	14.1140
 1.4680	14.1750
 1.4690	14.2410
 1.4700	14.3110
 1.4710	14.3840
 1.4720	14.4620
 1.4730	14.5430
 1.4740	14.6270
 1.4750	14.7140
 1.4760	14.8050
 1.4770	14.8980
 1.4780	14.9920
 1.4790	15.0910
 1.4800	15.1910
 1.4810	15.2930
 1.4820	15.3980
 1.4830	15.5020
 1.4840	15.6080
 1.4850	15.7150
 1.4860	15.8230
 1.4870	15.9340
 1.4880	16.0460
 1.4890	16.1590
 1.4900	16.2730
 1.4910	16.3880
 1.4920	16.5030
 1.4930	16.6190
 1.4940	16.7350
 1.4950	16.8520
 1.4960	16.9690
 1.4970	17.0860
 1.4980	17.2040
 1.4990	17.3230
 1.5000	17.4430
 1.5010	17.5630
 1.5020	17.6840
 1.5030	17.8050
 1.5040	17.9260
 1.5050	18.0460
 1.5060	18.1660
 1.5070	18.2870
 1.5080	18.4080
 1.5090	18.5280
 1.5100	18.6480
 1.5110	18.7680
 1.5120	18.8880
 1.5130	19.0080
 1.5140	19.1280
 1.5150	19.2480
 1.5160	19.3660
 1.5170	19.4850
 1.5180	19.6030
 1.5190	19.7210
 1.5200	19.8390
 1.5210	19.9540
 1.5220	20.0690
 1.5230	20.1850
 1.5240	20.2990
 1.5250	20.4130
 1.5260	20.5260
 1.5270	20.6370
 1.5280	20.7480
 1.5290	20.8570
 1.5300	20.9660
 1.5310	21.0760
 1.5320	21.1840
 1.5330	21.2910
 1.5340	21.3970
 1.5350	21.5000
 1.5360	21.6050
 1.5370	21.7100
 1.5380	21.8130
 1.5390	21.9160
 1.5400	22.0170
 1.5410	22.1170
 1.5420	22.2170
 1.5430	22.3170
 1.5440	22.4140
 1.5450	22.5100
 1.5460	22.6060
 1.5470	22.7020
 1.5480	22.7990
 1.5490	22.8950
 1.5500	22.9880
 1.5510	23.0810
 1.5520	23.1720
 1.5530	23.2610
 1.5540	23.3510
 1.5550	23.4410
 1.5560	23.5290
 1.5570	23.6180
 1.5580	23.7050
 1.5590	23.7900
 1.5600	23.8740
 1.5610	23.9550
 1.5620	24.0360
 1.5630	24.1170
 1.5640	24.1960
 1.5650	24.2760
 1.5660	24.3540
 1.5670	24.4310
 1.5680	24.5070
 1.5690	24.5830
 1.5700	24.6580
 1.5710	24.7340
 1.5720	24.8090
 1.5730	24.8830
 1.5740	24.9550
 1.5750	25.0260
 1.5760	25.0970
 1.5770	25.1680
 1.5780	25.2380
 1.5790	25.3080
 1.5800	25.3780
 1.5810	25.4470
 1.5820	25.5150
 1.5830	25.5810
 1.5840	25.6470
 1.5850	25.7120
 1.5860	25.7780
 1.5870	25.8440
 1.5880	25.9100
 1.5890	25.9740
 1.5900	26.0370
 1.5910	26.1020
 1.5920	26.1670
 1.5930	26.2300
 1.5940	26.2940
 1.5950	26.3560
 1.5960	26.4160
 1.5970	26.4770
 1.5980	26.5380
 1.5990	26.5970
 1.6000	26.6540
 1.6010	26.7100
 1.6020	26.7640
 1.6030	26.8200
 1.6040	26.8770
 1.6050	26.9340
 1.6060	26.9900
 1.6070	27.0450
 1.6080	27.1000
 1.6090	27.1520
 1.6100	27.2030
 1.6110	27.2540
 1.6120	27.3030
 1.6130	27.3530
 1.6140	27.4010
 1.6150	27.4480
 1.6160	27.4940
 1.6170	27.5390
 1.6180	27.5820
 1.6190	27.6260
 1.6200	27.6670
 1.6210	27.7070
 1.6220	27.7460
 1.6230	27.7870
 1.6240	27.8260
 1.6250	27.8660
 1.6260	27.9040
 1.6270	27.9420
 1.6280	27.9800
 1.6290	28.0160
 1.6300	28.0510
 1.6310	28.0850
 1.6320	28.1190
 1.6330	28.1500
 1.6340	28.1820
 1.6350	28.2110
 1.6360	28.2390
 1.6370	28.2660
 1.6380	28.2920
 1.6390	28.3160
 1.6400	28.3380
 1.6410	28.3590
 1.6420	28.3790
 1.6430	28.3960
 1.6440	28.4120
 1.6450	28.4260
 1.6460	28.4360
 1.6470	28.4470
 1.6480	28.4570
 1.6490	28.4640
 1.6500	28.4710
 1.6510	28.4730
 1.6520	28.4720
 1.6530	28.4700
 1.6540	28.4650
 1.6550	28.4590
 1.6560	28.4540
 1.6570	28.4470
 1.6580	28.4400
 1.6590	28.4310
 1.6600	28.4190
 1.6610	28.4070
 1.6620	28.3960
 1.6630	28.3850
 1.6640	28.3740
 1.6650	28.3630
 1.6660	28.3480
 1.6670	28.3310
 1.6680	28.3140
 1.6690	28.2940
 1.6700	28.2730
 1.6710	28.2490
 1.6720	28.2230
 1.6730	28.1970
 1.6740	28.1690
 1.6750	28.1390
 1.6760	28.1040
 1.6770	28.0650
 1.6780	28.0230
 1.6790	27.9770
 1.6800	27.9290
 1.6810	27.8790
 1.6820	27.8260
 1.6830	27.7720
 1.6840	27.7170
 1.6850	27.6600
 1.6860	27.6020
 1.6870	27.5460
 1.6880	27.4890
 1.6890	27.4300
 1.6900	27.3730
 1.6910	27.3160
 1.6920	27.2600
 1.6930	27.2050
 1.6940	27.1500
 1.6950	27.0950
 1.6960	27.0410
 1.6970	26.9890
 1.6980	26.9360
 1.6990	26.8830
 1.7000	26.8300
 1.7010	26.7780
 1.7020	26.7260
 1.7030	26.6740
 1.7040	26.6230
 1.7050	26.5730
 1.7060	26.5230
 1.7070	26.4740
 1.7080	26.4270
 1.7090	26.3800
 1.7100	26.3330
 1.7110	26.2870
 1.7120	26.2390
 1.7130	26.1910
 1.7140	26.1420
 1.7150	26.0930
 1.7160	26.0460
 1.7170	25.9990
 1.7180	25.9500
 1.7190	25.9020
 1.7200	25.8540
 1.7210	25.8050
 1.7220	25.7570
 1.7230	25.7090
 1.7240	25.6610
 1.7250	25.6150
 1.7260	25.5710
 1.7270	25.5310
 1.7280	25.4940
 1.7290	25.4600
 1.7300	25.4300
 1.7310	25.4020
 1.7320	25.3770
 1.7330	25.3540
 1.7340	25.3370
 1.7350	25.3170
 1.7360	25.2990
 1.7370	25.2780
 1.7380	25.2570
 1.7390	25.2320
 1.7400	25.2050
 1.7410	25.1730
 1.7420	25.1370
 1.7430	25.0970
 1.7440	25.0520
 1.7450	25.0080
 1.7460	24.9610
 1.7470	24.9120
 1.7480	24.8630
 1.7490	24.8130
 1.7500	24.7600
 1.7510	24.7080
 1.7520	24.6560
 1.7530	24.6050
 1.7540	24.5540
 1.7550	24.5020
 1.7560	24.4530
 1.7570	24.4060
 1.7580	24.3590
 1.7590	24.3130
 1.7600	24.2700
 1.7610	24.2250
 1.7620	24.1850
 1.7630	24.1500
 1.7640	24.1160
 1.7650	24.0850
 1.7660	24.0560
 1.7670	24.0270
 1.7680	24.0010
 1.7690	23.9770
 1.7700	23.9540
 1.7710	23.9320
 1.7720	23.9110
 1.7730	23.8900
 1.7740	23.8700
 1.7750	23.8540
 1.7760	23.8360
 1.7770	23.8170
 1.7780	23.8010
 1.7790	23.7860
 1.7800	23.7720
 1.7810	23.7600
 1.7820	23.7480
 1.7830	23.7350
 1.7840	23.7240
 1.7850	23.7140
 1.7860	23.7070
 1.7870	23.7010
 1.7880	23.6960
 1.7890	23.6930
 1.7900	23.6900
 1.7910	23.6870
 1.7920	23.6850
 1.7930	23.6850
 1.7940	23.6860
 1.7950	23.6890
 1.7960	23.6970
 1.7970	23.7030
 1.7980	23.7090
 1.7990	23.7160
 1.8000	23.7230
 1.8010	23.7290
 1.8020	23.7360
 1.8030	23.7440
 1.8040	23.7520
 1.8050	23.7610
 1.8060	23.7710
 1.8070	23.7810
 1.8080	23.7900
 1.8090	23.7990
 1.8100	23.8070
 1.8110	23.8150
 1.8120	23.8230
 1.8130	23.8330
 1.8140	23.8390
 1.8150	23.8420
 1.8160	23.8460
 1.8170	23.8460
 1.8180	23.8470
 1.8190	23.8510
 1.8200	23.8530
 1.8210	23.8560
 1.8220	23.8570
 1.8230	23.8550
 1.8240	23.8530
 1.8250	23.8500
 1.8260	23.8460
 1.8270	23.8430
 1.8280	23.8340
 1.8290	23.8210
 1.8300	23.8060
 1.8310	23.5580
 1.8320	23.5370
 1.8330	23.5140
 1.8340	23.4890
 1.8350	23.4610
 1.8360	23.4290
 1.8370	23.3920
 1.8380	23.3510
 1.8390	23.3040
 1.8400	23.2550
 1.8410	23.1990
 1.8420	23.1390
 1.8430	23.0700
 1.8440	22.9970
 1.8450	22.9160
 1.8460	22.8280
 1.8470	22.7310
 1.8480	22.6280
 1.8490	22.5160
 1.8500	22.3940
 1.8510	22.2630
 1.8520	22.1260
 1.8530	21.9740
 1.8540	21.8080
 1.8550	21.6330
 1.8560	21.4440
 1.8570	21.2450
 1.8580	21.0320
 1.8590	20.8060
 1.8600	20.5690
 1.8610	20.3150
 1.8620	20.0420
 1.8630	19.7590
 1.8640	19.4580
 1.8650	19.1390
 1.8660	18.8070
 1.8670	18.4590
 1.8680	18.0940
 1.8690	17.7110
 1.8700	17.3110
 1.8710	16.8950
 1.8720	16.4700
 1.8730	16.0310
 1.8740	15.5850
 1.8750	15.1370
 1.8760	14.6790
 1.8770	14.2200
 1.8780	13.7590
 1.8790	13.2940
 1.8800	12.8370
 1.8810	12.3830
 1.8820	11.9310
 1.8830	11.4850
 1.8840	11.0530
 1.8850	10.6230
 1.8860	10.2040
 1.8870	 9.8020
 1.8880	 9.4090
 1.8890	 9.0340
 1.8900	 8.6790
 1.8910	 8.3430
 1.8920	 8.0250
 1.8930	 7.7300
 1.8940	 7.4550
 1.8950	 7.1990
 1.8960	 6.9640
 1.8970	 6.7420
 1.8980	 6.5390
 1.8990	 6.3580
 1.9000	 6.1910
 1.9010	 6.0430
 1.9020	 5.9060
 1.9030	 5.7840
 1.9040	 5.6720
 1.9050	 5.5710
 1.9060	 5.4810
 1.9070	 5.4030
 1.9080	 5.3360
 1.9090	 5.2800
 1.9100	 5.2310
 1.9110	 5.1840
 1.9120	 5.1430
 1.9130	 5.1050
 1.9140	 5.0680
 1.9150	 5.0360
 1.9160	 5.0100
 1.9170	 4.9880
 1.9180	 4.9680
 1.9190	 4.9510
 1.9200	 4.9350
 1.9210	 4.9220
 1.9220	 4.9120
 1.9230	 4.9060
 1.9240	 4.8980
 1.9250	 4.8910
 1.9260	 4.8850
 1.9270	 4.8790
 1.9280	 4.8730
 1.9290	 4.8740
 1.9300	 4.8770
 1.9310	 4.8800
 1.9320	 4.8860
 1.9330	 4.8930
 1.9340	 4.9000
 1.9350	 4.9090
 1.9360	 4.9210
 1.9370	 4.9310
 1.9380	 4.9410
 1.9390	 4.9510
 1.9400	 4.9620
 1.9410	 4.9730
 1.9420	 4.9870
 1.9430	 5.0040
 1.9440	 5.0200
 1.9450	 5.0370
 1.9460	 5.0550
 1.9470	 5.0720
 1.9480	 5.0920
 1.9490	 5.1160
 1.9500	 5.1410
 1.9510	 5.1620
 1.9520	 5.1850
 1.9530	 5.2070
 1.9540	 5.2310
 1.9550	 5.2570
 1.9560	 5.2870
 1.9570	 5.3140
 1.9580	 5.3380
 1.9590	 5.3660
 1.9600	 5.3970
 1.9610	 5.4270
 1.9620	 5.4600
 1.9630	 5.4950
 1.9640	 5.5260
 1.9650	 5.5570
 1.9660	 5.5920
 1.9670	 5.6270
 1.9680	 5.6610
 1.9690	 5.6940
 1.9700	 5.7290
 1.9710	 5.7620
 1.9720	 5.7970
 1.9730	 5.8340
 1.9740	 5.8730
 1.9750	 5.9130
 1.9760	 5.9550
 1.9770	 5.9950
 1.9780	 6.0370
 1.9790	 6.0780
 1.9800	 6.1140
 1.9810	 6.1580
 1.9820	 6.2040
 1.9830	 6.2510
 1.9840	 6.3030
 1.9850	 6.3520
 1.9860	 6.4000
 1.9870	 6.4460
 1.9880	 6.4900
 1.9890	 6.5350
 1.9900	 6.5790
 1.9910	 6.6210
 1.9920	 6.6680
 1.9930	 6.7170
 1.9940	 6.7660
 1.9950	 6.8170
 1.9960	 6.8690
 1.9970	 6.9210
 1.9980	 6.9730
 1.9990	 7.0270
 2.0000	 7.0790
 2.0010	 7.1300
 2.0020	 7.1800
 2.0030	 7.2300
 2.0040	 7.2820
 2.0050	 7.3340
 2.0060	 7.3880
 2.0070	 7.4400
 2.0080	 7.4930
 2.0090	 7.5460
 2.0100	 7.6000
 2.0110	 7.6520
 2.0120	 7.7020
 2.0130	 7.7540
 2.0140	 7.8060
 2.0150	 7.8550
 2.0160	 7.9090
 2.0170	 7.9590
 2.0180	 8.0100
 2.0190	 8.0580
 2.0200	 8.1080
 2.0210	 8.1570
 2.0220	 8.2070
 2.0230	 8.2580
 2.0240	 8.3070
 2.0250	 8.3570
 2.0260	 8.4050
 2.0270	 8.4470
 2.0280	 8.4950
 2.0290	 8.5430
 2.0300	 8.5870
 2.0310	 8.6330
 2.0320	 8.6790
 2.0330	 8.7240
 2.0340	 8.7670
 2.0350	 8.8110
 2.0360	 8.8580
 2.0370	 8.9010
 2.0380	 8.9410
 2.0390	 8.9810
 2.0400	 9.0180
 2.0410	 9.0570
 2.0420	 9.0960
 2.0430	 9.1370
 2.0440	 9.1760
 2.0450	 9.2160
 2.0460	 9.2530
 2.0470	 9.2860
 2.0480	 9.3210
 2.0490	 9.3520
 2.0500	 9.3870
 2.0510	 9.4250
 2.0520	 9.4620
 2.0530	 9.5010
 2.0540	 9.5400
 2.0550	 9.5780
 2.0560	 9.6150
 2.0570	 9.6540
 2.0580	 9.6920
 2.0590	 9.7330
 2.0600	 9.7750
 2.0610	 9.8140
 2.0620	 9.8510
 2.0630	 9.8910
 2.0640	 9.9280
 2.0650	 9.9690
 2.0660	10.0170
 2.0670	10.0600
 2.0680	10.1010
 2.0690	10.1430
 2.0700	10.1850
 2.0710	10.2260
 2.0720	10.2670
 2.0730	10.3080
 2.0740	10.3470
 2.0750	10.3820
 2.0760	10.4210
 2.0770	10.4610
 2.0780	10.5010
 2.0790	10.5450
 2.0800	10.5850
 2.0810	10.6220
 2.0820	10.6600
 2.0830	10.6960
 2.0840	10.7340
 2.0850	10.7760
 2.0860	10.8160
 2.0870	10.8580
 2.0880	10.8950
 2.0890	10.9330
 2.0900	10.9680
 2.0910	11.0050
 2.0920	11.0440
 2.0930	11.0810
 2.0940	11.1200
 2.0950	11.1560
 2.0960	11.1880
 2.0970	11.2250
 2.0980	11.2650
 2.0990	11.3010
 2.1000	11.3370
 2.1010	11.3720
 2.1020	11.4030
 2.1030	11.4350
 2.1040	11.4680
 2.1050	11.5040
 2.1060	11.5370
 2.1070	11.5680
 2.1080	11.6020
 2.1090	11.6380
 2.1100	11.6730
 2.1110	11.7100
 2.1120	11.7430
 2.1130	11.7740
 2.1140	11.8030
 2.1150	11.8270
 2.1160	11.8550
 2.1170	11.8810
 2.1180	11.9090
 2.1190	11.9400
 2.1200	11.9700
 2.1210	12.0000
 2.1220	12.0340
 2.1230	12.0630
 2.1240	12.0920
 2.1250	12.1200
 2.1260	12.1440
 2.1270	12.1710
 2.1280	12.2010
 2.1290	12.2270
 2.1300	12.2520
 2.1310	12.2750
 2.1320	12.2930
 2.1330	12.3140
 2.1340	12.3360
 2.1350	12.3580
 2.1360	12.3780
 2.1370	12.4000
 2.1380	12.4210
 2.1390	12.4430
 2.1400	12.4670
 2.1410	12.4910
 2.1420	12.5130
 2.1430	12.5340
 2.1440	12.5560
 2.1450	12.5780
 2.1460	12.6000
 2.1470	12.6230
 2.1480	12.6460
 2.1490	12.6690
 2.1500	12.6900
 2.1510	12.7100
 2.1520	12.7310
 2.1530	12.7520
 2.1540	12.7730
 2.1550	12.7940
 2.1560	12.8150
 2.1570	12.8350
 2.1580	12.8530
 2.1590	12.8660
 2.1600	12.8810
 2.1610	12.8960
 2.1620	12.9120
 2.1630	12.9300
 2.1640	12.9510
 2.1650	12.9680
 2.1660	12.9810
 2.1670	12.9980
 2.1680	13.0160
 2.1690	13.0340
 2.1700	13.0540
 2.1710	13.0730
 2.1720	13.0880
 2.1730	13.1070
 2.1740	13.1280
 2.1750	13.1500
 2.1760	13.1770
 2.1770	13.2000
 2.1780	13.2220
 2.1790	13.2440
 2.1800	13.2640
 2.1810	13.2860
 2.1820	13.3100
 2.1830	13.3310
 2.1840	13.3510
 2.1850	13.3700
 2.1860	13.3890
 2.1870	13.4060
 2.1880	13.4280
 2.1890	13.4520
 2.1900	13.4740
 2.1910	13.4950
 2.1920	13.5170
 2.1930	13.5390
 2.1940	13.5610
 2.1950	13.5880
 2.1960	13.6110
 2.1970	13.6300
 2.1980	13.6500
 2.1990	13.6690
 2.2000	13.6870
 2.2010	13.7020
 2.2020	13.7210
 2.2030	13.7420
 2.2040	13.7600
 2.2050	13.7790
 2.2060	13.7990
 2.2070	13.8140
 2.2080	13.8250
 2.2090	13.8360
 2.2100	13.8460
 2.2110	13.8540
 2.2120	13.8600
 2.2130	13.8670
 2.2140	13.8720
 2.2150	13.8790
 2.2160	13.8850
 2.2170	13.8900
 2.2180	13.8980
 2.2190	13.8980
 2.2200	13.8900
 2.2210	13.8890
 2.2220	13.8850
 2.2230	13.8830
 2.2240	13.8910
 2.2250	13.8870
 2.2260	13.8720
 2.2270	13.8580
 2.2280	13.8390
 2.2290	13.8170
 2.2300	13.7920
 2.2310	13.7680
 2.2320	13.7400
 2.2330	13.7100
 2.2340	13.6790
 2.2350	13.6490
 2.2360	13.6120
 2.2370	13.5710
 2.2380	13.5320
 2.2390	13.4940
 2.2400	13.4490
 2.2410	13.4030
 2.2420	13.3500
 2.2430	13.2850
 2.2440	13.2280
 2.2450	13.1710
 2.2460	13.1110
 2.2470	13.0530
 2.2480	12.9920
 2.2490	12.9260
 2.2500	12.8610
 2.2510	12.7970
 2.2520	12.7290
 2.2530	12.6560
 2.2540	12.5860
 2.2550	12.5140
 2.2560	12.4470
 2.2570	12.3900
 2.2580	12.3260
 2.2590	12.2620
 2.2600	12.1980
 2.2610	12.1320
 2.2620	12.0620
 2.2630	12.0010
 2.2640	11.9420
 2.2650	11.8780
 2.2660	11.8220
 2.2670	11.7660
 2.2680	11.7100
 2.2690	11.6570
 2.2700	11.6090
 2.2710	11.5600
 2.2720	11.5110
 2.2730	11.4680
 2.2740	11.4290
 2.2750	11.3910
 2.2760	11.3590
 2.2770	11.3220
 2.2780	11.2830
 2.2790	11.2450
 2.2800	11.2060
 2.2810	11.1670
 2.2820	11.1280
 2.2830	11.0910
 2.2840	11.0570
 2.2850	11.0180
 2.2860	10.9780
 2.2870	10.9360
 2.2880	10.8920
 2.2890	10.8440
 2.2900	10.7920
 2.2910	10.7450
 2.2920	10.6960
 2.2930	10.6470
 2.2940	10.6000
 2.2950	10.5550
 2.2960	10.5100
 2.2970	10.4660
 2.2980	10.4270
 2.2990	10.3840
 2.3000	10.3410
 2.3010	10.2940
 2.3020	10.2530
 2.3030	10.2130
 2.3040	10.1690
 2.3050	10.1310
 2.3060	10.0920
 2.3070	10.0570
 2.3080	10.0300
 2.3090	10.0040
 2.3100	 9.9790
 2.3110	 9.9620
 2.3120	 9.9480
 2.3130	 9.9380
 2.3140	 9.9310
 2.3150	 9.9320
 2.3160	 9.9280
 2.3170	 9.9230
 2.3180	 9.9180
 2.3190	 9.9150
 2.3200	 9.9080
 2.3210	 9.9000
 2.3220	 9.8880
 2.3230	 9.8690
 2.3240	 9.8560
 2.3250	 9.8430
 2.3260	 9.8310
 2.3270	 9.8280
 2.3280	 9.8120
 2.3290	 9.7910
 2.3300	 9.7660
 2.3310	 9.7290
 2.3320	 9.6980
 2.3330	 9.6650
 2.3340	 9.6340
 2.3350	 9.6040
 2.3360	 9.5740
 2.3370	 9.5470
 2.3380	 9.5170
 2.3390	 9.4880
 2.3400	 9.4550
 2.3410	 9.4190
 2.3420	 9.3810
 2.3430	 9.3400
 2.3440	 9.3030
 2.3450	 9.2640
 2.3460	 9.2330
 2.3470	 9.2110
 2.3480	 9.1860
 2.3490	 9.1670
 2.3500	 9.1460
 2.3510	 9.1220
 2.3520	 9.0990
 2.3530	 9.0750
 2.3540	 9.0510
 2.3550	 9.0320
 2.3560	 9.0210
 2.3570	 9.0060
 2.3580	 8.9960
 2.3590	 8.9810
 2.3600	 8.9600
 2.3610	 8.9420
 2.3620	 8.9270
 2.3630	 8.9010
 2.3640	 8.8710
 2.3650	 8.8490
 2.3660	 8.8190
 2.3670	 8.7920
 2.3680	 8.7720
 2.3690	 8.7440
 2.3700	 8.7170
 2.3710	 8.6940
 2.3720	 8.6730
 2.3730	 8.6500
 2.3740	 8.6240
 2.3750	 8.6020
 2.3760	 8.5840
 2.3770	 8.5570
 2.3780	 8.5280
 2.3790	 8.4950
 2.3800	 8.4550
 2.3810	 8.4160
 2.3820	 8.3810
 2.3830	 8.3450
 2.3840	 8.3090
 2.3850	 8.2820
 2.3860	 8.2560
 2.3870	 8.2270
 2.3880	 8.2030
 2.3890	 8.1810
 2.3900	 8.1600
 2.3910	 8.1410
 2.3920	 8.1130
 2.3930	 8.0790
 2.3940	 8.0430
 2.3950	 8.0000
 2.3960	 7.9640
 2.3970	 7.9240
 2.3980	 7.8870
 2.3990	 7.8620
 2.4000	 7.8270
 2.4010	 7.7990
 2.4020	 7.7730
 2.4030	 7.7400
 2.4040	 7.7260
 2.4050	 7.7030
 2.4060	 7.6710
 2.4070	 7.6440
 2.4080	 7.6060
 2.4090	 7.5710
 2.4100	 7.5520
 2.4110	 7.5400
 2.4120	 7.5160
 2.4130	 7.4880
 2.4140	 7.4530
 2.4150	 7.4140
 2.4160	 7.3730
 2.4170	 7.3290
 2.4180	 7.2900
 2.4190	 7.2520
 2.4200	 7.2160
 2.4210	 7.1820
 2.4220	 7.1570
 2.4230	 7.1350
 2.4240	 7.1160
 2.4250	 7.1110
 2.4260	 7.0840
 2.4270	 7.0290
 2.4280	 6.9870
 2.4290	 6.9550
 2.4300	 6.9120
 2.4310	 6.8870
 2.4320	 6.8530
 2.4330	 6.7880
 2.4340	 6.7620
 2.4350	 6.7610
 2.4360	 6.7260
 2.4370	 6.7010
 2.4380	 6.6830
 2.4390	 6.6340
 2.4400	 6.6110
 2.4410	 6.6220
 2.4420	 6.6040
 2.4430	 6.5730
 2.4440	 6.5230
 2.4450	 6.4590
 2.4460	 6.4130
 2.4470	 6.3950
 2.4480	 6.4020
 2.4490	 6.3890
 2.4500	 6.3630
 2.4510	 6.3290
 2.4520	 6.2850
 2.4530	 6.2640
 2.4540	 6.2420
 2.4550	 6.2170
 2.4560	 6.2120
 2.4570	 6.1890
 2.4580	 6.1600
 2.4590	 6.1460
 2.4600	 6.1080
 2.4610	 6.0780
 2.4620	 6.0660
 2.4630	 6.0360
 2.4640	 6.0090
 2.4650	 5.9910
 2.4660	 5.9730
 2.4670	 5.9550
 2.4680	 5.9350
 2.4690	 5.9090
 2.4700	 5.8920
 2.4710	 5.8750
 2.4720	 5.8770
 2.4730	 5.9090
 2.4740	 5.9070
 2.4750	 5.9030
 2.4760	 5.8780
 2.4770	 5.8160
 2.4780	 5.7770
 2.4790	 5.7360
 2.4800	 5.7070
 2.4810	 5.6770
 2.4820	 5.6430
 2.4830	 5.6470
 2.4840	 5.6110
 2.4850	 5.6230
 2.4860	 5.6390
 2.4870	 5.6060
 2.4880	 5.6160
 2.4890	 5.6050
 2.4900	 5.5980
 2.4910	 5.6210
 2.4920	 5.6200
 2.4930	 5.6000
 2.4940	 5.6040
 2.4950	 5.5720
 2.4960	 5.5040
 2.4970	 5.5370
 2.4980	 5.5220
 2.4990	 5.4400
 2.5000	 5.4630
