Name: Ceanothus megacarpus 3
Type: vegetation
Class: Shrub
Genus: Ceanothus
Species: megacarpus
Sample No.: VH143
Owner: UCSB
Wavelength Range: VSWIR
Origin: 34.4909; -119.7914; WGS84
Collection Date: 6/3/2013
Description: Samples were collected as part of the HyspIRI Airborne Campaign. 48 individual plants were sampled in three times in 2013 - spring  summer  and fall. The name of the sample includes a 1  2  or 3 which references a different individual of the species. Samples were taken to JPL and processed within 48 hours of collection. The same leaves were processed in the Nicolet and then measured using the ASD.
Measurement: Bidirectional reflectance
First Column: X
Second Column: Y
X Units: Wavelength (micrometers)
Y Units: Reflectance (percentage)
First X Value: 0.35
Last X Value: 2.5
Number of X Values: 2151
Additional Information: vegetation.shrub.ceanothus.megacarpus.vswir.vh143.ucsb.asd.ancillary.txt

 0.3500	 3.7710
 0.3510	 3.6640
 0.3520	 3.8770
 0.3530	 3.9830
 0.3540	 3.7450
 0.3550	 3.8120
 0.3560	 3.7790
 0.3570	 3.6900
 0.3580	 3.7900
 0.3590	 3.8140
 0.3600	 3.8030
 0.3610	 3.8130
 0.3620	 3.8810
 0.3630	 3.8840
 0.3640	 3.8230
 0.3650	 3.7520
 0.3660	 3.7510
 0.3670	 3.8290
 0.3680	 3.9170
 0.3690	 3.9020
 0.3700	 3.8740
 0.3710	 3.8880
 0.3720	 3.9370
 0.3730	 3.9150
 0.3740	 3.8760
 0.3750	 3.8450
 0.3760	 3.8290
 0.3770	 3.7850
 0.3780	 3.7980
 0.3790	 3.8440
 0.3800	 3.8080
 0.3810	 3.7890
 0.3820	 3.8490
 0.3830	 3.9560
 0.3840	 3.8970
 0.3850	 3.8190
 0.3860	 3.7650
 0.3870	 3.7380
 0.3880	 3.7580
 0.3890	 3.7800
 0.3900	 3.7740
 0.3910	 3.7340
 0.3920	 3.7180
 0.3930	 3.7410
 0.3940	 3.7890
 0.3950	 3.8020
 0.3960	 3.8230
 0.3970	 3.8320
 0.3980	 3.7960
 0.3990	 3.7760
 0.4000	 3.7560
 0.4010	 3.7430
 0.4020	 3.7790
 0.4030	 3.8040
 0.4040	 3.7950
 0.4050	 3.7570
 0.4060	 3.7630
 0.4070	 3.7540
 0.4080	 3.7420
 0.4090	 3.7760
 0.4100	 3.7820
 0.4110	 3.7760
 0.4120	 3.7790
 0.4130	 3.7950
 0.4140	 3.8190
 0.4150	 3.8340
 0.4160	 3.8260
 0.4170	 3.8320
 0.4180	 3.8560
 0.4190	 3.8830
 0.4200	 3.8850
 0.4210	 3.8960
 0.4220	 3.9160
 0.4230	 3.9390
 0.4240	 3.9540
 0.4250	 3.9710
 0.4260	 3.9950
 0.4270	 4.0240
 0.4280	 4.0420
 0.4290	 4.0720
 0.4300	 4.1190
 0.4310	 4.1550
 0.4320	 4.1780
 0.4330	 4.1960
 0.4340	 4.2150
 0.4350	 4.2240
 0.4360	 4.2500
 0.4370	 4.2880
 0.4380	 4.3050
 0.4390	 4.3180
 0.4400	 4.3330
 0.4410	 4.3490
 0.4420	 4.3560
 0.4430	 4.3780
 0.4440	 4.4110
 0.4450	 4.4380
 0.4460	 4.4420
 0.4470	 4.4520
 0.4480	 4.4760
 0.4490	 4.4910
 0.4500	 4.5040
 0.4510	 4.5170
 0.4520	 4.5300
 0.4530	 4.5420
 0.4540	 4.5550
 0.4550	 4.5650
 0.4560	 4.5700
 0.4570	 4.5840
 0.4580	 4.5980
 0.4590	 4.6090
 0.4600	 4.6260
 0.4610	 4.6290
 0.4620	 4.6300
 0.4630	 4.6420
 0.4640	 4.6540
 0.4650	 4.6560
 0.4660	 4.6510
 0.4670	 4.6540
 0.4680	 4.6590
 0.4690	 4.6690
 0.4700	 4.6830
 0.4710	 4.6860
 0.4720	 4.6860
 0.4730	 4.6840
 0.4740	 4.6830
 0.4750	 4.6740
 0.4760	 4.6720
 0.4770	 4.6830
 0.4780	 4.6820
 0.4790	 4.6870
 0.4800	 4.6940
 0.4810	 4.6930
 0.4820	 4.6910
 0.4830	 4.6960
 0.4840	 4.7090
 0.4850	 4.7220
 0.4860	 4.7380
 0.4870	 4.7500
 0.4880	 4.7560
 0.4890	 4.7580
 0.4900	 4.7780
 0.4910	 4.8060
 0.4920	 4.8230
 0.4930	 4.8360
 0.4940	 4.8560
 0.4950	 4.8850
 0.4960	 4.9110
 0.4970	 4.9290
 0.4980	 4.9540
 0.4990	 4.9950
 0.5000	 5.0300
 0.5010	 5.0620
 0.5020	 5.1010
 0.5030	 5.1550
 0.5040	 5.2050
 0.5050	 5.2560
 0.5060	 5.3110
 0.5070	 5.3710
 0.5080	 5.4340
 0.5090	 5.5040
 0.5100	 5.5850
 0.5110	 5.6720
 0.5120	 5.7630
 0.5130	 5.8610
 0.5140	 5.9710
 0.5150	 6.0780
 0.5160	 6.1920
 0.5170	 6.3220
 0.5180	 6.4570
 0.5190	 6.5910
 0.5200	 6.7280
 0.5210	 6.8770
 0.5220	 7.0180
 0.5230	 7.1600
 0.5240	 7.3090
 0.5250	 7.4510
 0.5260	 7.5890
 0.5270	 7.7210
 0.5280	 7.8510
 0.5290	 7.9750
 0.5300	 8.0900
 0.5310	 8.1940
 0.5320	 8.2990
 0.5330	 8.3950
 0.5340	 8.4840
 0.5350	 8.5690
 0.5360	 8.6440
 0.5370	 8.7110
 0.5380	 8.7740
 0.5390	 8.8360
 0.5400	 8.8970
 0.5410	 8.9600
 0.5420	 9.0240
 0.5430	 9.0790
 0.5440	 9.1240
 0.5450	 9.1660
 0.5460	 9.2090
 0.5470	 9.2380
 0.5480	 9.2580
 0.5490	 9.2780
 0.5500	 9.3000
 0.5510	 9.3220
 0.5520	 9.3370
 0.5530	 9.3360
 0.5540	 9.3260
 0.5550	 9.3090
 0.5560	 9.2850
 0.5570	 9.2510
 0.5580	 9.2110
 0.5590	 9.1630
 0.5600	 9.1050
 0.5610	 9.0390
 0.5620	 8.9710
 0.5630	 8.8990
 0.5640	 8.8210
 0.5650	 8.7440
 0.5660	 8.6700
 0.5670	 8.5970
 0.5680	 8.5130
 0.5690	 8.4240
 0.5700	 8.3340
 0.5710	 8.2450
 0.5720	 8.1650
 0.5730	 8.0830
 0.5740	 8.0010
 0.5750	 7.9240
 0.5760	 7.8540
 0.5770	 7.7950
 0.5780	 7.7440
 0.5790	 7.6910
 0.5800	 7.6370
 0.5810	 7.5820
 0.5820	 7.5290
 0.5830	 7.4800
 0.5840	 7.4330
 0.5850	 7.3890
 0.5860	 7.3510
 0.5870	 7.3160
 0.5880	 7.2810
 0.5890	 7.2480
 0.5900	 7.2150
 0.5910	 7.1880
 0.5920	 7.1680
 0.5930	 7.1550
 0.5940	 7.1420
 0.5950	 7.1270
 0.5960	 7.1100
 0.5970	 7.0910
 0.5980	 7.0740
 0.5990	 7.0590
 0.6000	 7.0430
 0.6010	 7.0240
 0.6020	 7.0010
 0.6030	 6.9750
 0.6040	 6.9470
 0.6050	 6.9150
 0.6060	 6.8800
 0.6070	 6.8440
 0.6080	 6.8080
 0.6090	 6.7700
 0.6100	 6.7350
 0.6110	 6.7020
 0.6120	 6.6590
 0.6130	 6.6060
 0.6140	 6.5530
 0.6150	 6.5120
 0.6160	 6.4690
 0.6170	 6.4280
 0.6180	 6.3940
 0.6190	 6.3630
 0.6200	 6.3330
 0.6210	 6.3070
 0.6220	 6.2870
 0.6230	 6.2690
 0.6240	 6.2510
 0.6250	 6.2370
 0.6260	 6.2300
 0.6270	 6.2230
 0.6280	 6.2160
 0.6290	 6.2140
 0.6300	 6.2090
 0.6310	 6.2000
 0.6320	 6.1920
 0.6330	 6.1880
 0.6340	 6.1750
 0.6350	 6.1530
 0.6360	 6.1250
 0.6370	 6.0970
 0.6380	 6.0610
 0.6390	 6.0170
 0.6400	 5.9720
 0.6410	 5.9250
 0.6420	 5.8750
 0.6430	 5.8210
 0.6440	 5.7720
 0.6450	 5.7190
 0.6460	 5.6670
 0.6470	 5.6190
 0.6480	 5.5760
 0.6490	 5.5400
 0.6500	 5.5070
 0.6510	 5.4730
 0.6520	 5.4470
 0.6530	 5.4230
 0.6540	 5.3960
 0.6550	 5.3700
 0.6560	 5.3410
 0.6570	 5.3090
 0.6580	 5.2740
 0.6590	 5.2330
 0.6600	 5.1940
 0.6610	 5.1560
 0.6620	 5.1120
 0.6630	 5.0730
 0.6640	 5.0360
 0.6650	 5.0010
 0.6660	 4.9710
 0.6670	 4.9450
 0.6680	 4.9230
 0.6690	 4.9010
 0.6700	 4.8860
 0.6710	 4.8740
 0.6720	 4.8620
 0.6730	 4.8560
 0.6740	 4.8590
 0.6750	 4.8630
 0.6760	 4.8640
 0.6770	 4.8710
 0.6780	 4.8790
 0.6790	 4.8890
 0.6800	 4.9090
 0.6810	 4.9320
 0.6820	 4.9630
 0.6830	 5.0030
 0.6840	 5.0540
 0.6850	 5.1170
 0.6860	 5.1950
 0.6870	 5.2920
 0.6880	 5.4110
 0.6890	 5.5560
 0.6900	 5.7300
 0.6910	 5.9410
 0.6920	 6.1910
 0.6930	 6.4830
 0.6940	 6.8190
 0.6950	 7.1990
 0.6960	 7.6210
 0.6970	 8.0890
 0.6980	 8.6070
 0.6990	 9.1600
 0.7000	 9.7500
 0.7010	10.3710
 0.7020	11.0210
 0.7030	11.6950
 0.7040	12.3880
 0.7050	13.0940
 0.7060	13.8140
 0.7070	14.5480
 0.7080	15.2900
 0.7090	16.0360
 0.7100	16.7880
 0.7110	17.5480
 0.7120	18.3160
 0.7130	19.0900
 0.7140	19.8650
 0.7150	20.6420
 0.7160	21.4190
 0.7170	22.2000
 0.7180	22.9770
 0.7190	23.7490
 0.7200	24.5180
 0.7210	25.2760
 0.7220	26.0270
 0.7230	26.7680
 0.7240	27.4870
 0.7250	28.1920
 0.7260	28.8810
 0.7270	29.5510
 0.7280	30.1940
 0.7290	30.8140
 0.7300	31.4120
 0.7310	31.9880
 0.7320	32.5380
 0.7330	33.0600
 0.7340	33.5560
 0.7350	34.0330
 0.7360	34.4790
 0.7370	34.9010
 0.7380	35.3050
 0.7390	35.6870
 0.7400	36.0430
 0.7410	36.3780
 0.7420	36.6980
 0.7430	36.9970
 0.7440	37.2750
 0.7450	37.5340
 0.7460	37.7750
 0.7470	38.0040
 0.7480	38.2160
 0.7490	38.4080
 0.7500	38.5920
 0.7510	38.7600
 0.7520	38.9130
 0.7530	39.0550
 0.7540	39.1830
 0.7550	39.3040
 0.7560	39.4190
 0.7570	39.5270
 0.7580	39.6270
 0.7590	39.7150
 0.7600	39.7950
 0.7610	39.8770
 0.7620	39.9540
 0.7630	40.0230
 0.7640	40.0840
 0.7650	40.1490
 0.7660	40.1990
 0.7670	40.2420
 0.7680	40.2980
 0.7690	40.3420
 0.7700	40.3850
 0.7710	40.4330
 0.7720	40.4800
 0.7730	40.5190
 0.7740	40.5510
 0.7750	40.5820
 0.7760	40.6210
 0.7770	40.6570
 0.7780	40.6890
 0.7790	40.7250
 0.7800	40.7570
 0.7810	40.7870
 0.7820	40.8170
 0.7830	40.8480
 0.7840	40.8810
 0.7850	40.9110
 0.7860	40.9390
 0.7870	40.9690
 0.7880	40.9960
 0.7890	41.0210
 0.7900	41.0500
 0.7910	41.0750
 0.7920	41.1000
 0.7930	41.1280
 0.7940	41.1580
 0.7950	41.1780
 0.7960	41.1970
 0.7970	41.2210
 0.7980	41.2450
 0.7990	41.2670
 0.8000	41.2870
 0.8010	41.3060
 0.8020	41.3210
 0.8030	41.3360
 0.8040	41.3510
 0.8050	41.3670
 0.8060	41.3800
 0.8070	41.3940
 0.8080	41.4100
 0.8090	41.4300
 0.8100	41.4450
 0.8110	41.4510
 0.8120	41.4540
 0.8130	41.4650
 0.8140	41.4720
 0.8150	41.4780
 0.8160	41.4870
 0.8170	41.4930
 0.8180	41.4960
 0.8190	41.4990
 0.8200	41.5040
 0.8210	41.5050
 0.8220	41.5030
 0.8230	41.4980
 0.8240	41.4980
 0.8250	41.4980
 0.8260	41.4960
 0.8270	41.4900
 0.8280	41.4840
 0.8290	41.4790
 0.8300	41.4700
 0.8310	41.4560
 0.8320	41.4450
 0.8330	41.4360
 0.8340	41.4300
 0.8350	41.4280
 0.8360	41.4160
 0.8370	41.4060
 0.8380	41.4020
 0.8390	41.3990
 0.8400	41.3970
 0.8410	41.3940
 0.8420	41.3890
 0.8430	41.3800
 0.8440	41.3710
 0.8450	41.3650
 0.8460	41.3650
 0.8470	41.3640
 0.8480	41.3570
 0.8490	41.3490
 0.8500	41.3500
 0.8510	41.3440
 0.8520	41.3420
 0.8530	41.3390
 0.8540	41.3310
 0.8550	41.3270
 0.8560	41.3250
 0.8570	41.3220
 0.8580	41.3200
 0.8590	41.3150
 0.8600	41.3070
 0.8610	41.3010
 0.8620	41.3020
 0.8630	41.2990
 0.8640	41.2930
 0.8650	41.2850
 0.8660	41.2860
 0.8670	41.2830
 0.8680	41.2810
 0.8690	41.2880
 0.8700	41.2740
 0.8710	41.2740
 0.8720	41.2850
 0.8730	41.2850
 0.8740	41.2830
 0.8750	41.2820
 0.8760	41.2820
 0.8770	41.2860
 0.8780	41.2870
 0.8790	41.2880
 0.8800	41.2880
 0.8810	41.2870
 0.8820	41.2820
 0.8830	41.2760
 0.8840	41.2740
 0.8850	41.2850
 0.8860	41.2890
 0.8870	41.2840
 0.8880	41.2760
 0.8890	41.2730
 0.8900	41.2670
 0.8910	41.2650
 0.8920	41.2740
 0.8930	41.2690
 0.8940	41.2590
 0.8950	41.2530
 0.8960	41.2550
 0.8970	41.2540
 0.8980	41.2490
 0.8990	41.2450
 0.9000	41.2440
 0.9010	41.2460
 0.9020	41.2430
 0.9030	41.2340
 0.9040	41.2320
 0.9050	41.2270
 0.9060	41.2210
 0.9070	41.2170
 0.9080	41.2180
 0.9090	41.2210
 0.9100	41.2220
 0.9110	41.2160
 0.9120	41.2120
 0.9130	41.2080
 0.9140	41.2060
 0.9150	41.2060
 0.9160	41.2050
 0.9170	41.1980
 0.9180	41.1920
 0.9190	41.1930
 0.9200	41.1860
 0.9210	41.1770
 0.9220	41.1670
 0.9230	41.1510
 0.9240	41.1370
 0.9250	41.1200
 0.9260	41.1020
 0.9270	41.0880
 0.9280	41.0680
 0.9290	41.0460
 0.9300	41.0210
 0.9310	40.9940
 0.9320	40.9630
 0.9330	40.9300
 0.9340	40.8980
 0.9350	40.8690
 0.9360	40.8340
 0.9370	40.8000
 0.9380	40.7670
 0.9390	40.7290
 0.9400	40.6910
 0.9410	40.6460
 0.9420	40.5960
 0.9430	40.5530
 0.9440	40.5060
 0.9450	40.4470
 0.9460	40.3790
 0.9470	40.3270
 0.9480	40.2620
 0.9490	40.1810
 0.9500	40.0880
 0.9510	40.0000
 0.9520	39.9180
 0.9530	39.8270
 0.9540	39.7190
 0.9550	39.6120
 0.9560	39.5110
 0.9570	39.4130
 0.9580	39.3130
 0.9590	39.2120
 0.9600	39.1210
 0.9610	39.0430
 0.9620	38.9800
 0.9630	38.9250
 0.9640	38.8730
 0.9650	38.8200
 0.9660	38.7640
 0.9670	38.7270
 0.9680	38.6950
 0.9690	38.6630
 0.9700	38.6290
 0.9710	38.5970
 0.9720	38.5800
 0.9730	38.5680
 0.9740	38.5450
 0.9750	38.5240
 0.9760	38.5150
 0.9770	38.5100
 0.9780	38.4990
 0.9790	38.4920
 0.9800	38.4830
 0.9810	38.4820
 0.9820	38.4970
 0.9830	38.5230
 0.9840	38.5330
 0.9850	38.5430
 0.9860	38.5740
 0.9870	38.5880
 0.9880	38.5980
 0.9890	38.6300
 0.9900	38.6910
 0.9910	38.7120
 0.9920	38.8120
 0.9930	38.9120
 0.9940	39.0110
 0.9950	39.1110
 0.9960	39.2110
 0.9970	39.3100
 0.9980	39.4100
 0.9990	39.5100
 1.0000	39.6100
 1.0010	39.7090
 1.0020	39.8090
 1.0030	39.9090
 1.0040	40.0080
 1.0050	40.1080
 1.0060	40.2080
 1.0070	40.3070
 1.0080	40.4070
 1.0090	40.5070
 1.0100	40.5070
 1.0110	40.5550
 1.0120	40.6020
 1.0130	40.6470
 1.0140	40.6890
 1.0150	40.7270
 1.0160	40.7720
 1.0170	40.8170
 1.0180	40.8560
 1.0190	40.9000
 1.0200	40.9420
 1.0210	40.9710
 1.0220	41.0070
 1.0230	41.0460
 1.0240	41.0850
 1.0250	41.1260
 1.0260	41.1760
 1.0270	41.2190
 1.0280	41.2600
 1.0290	41.2970
 1.0300	41.3310
 1.0310	41.3650
 1.0320	41.3980
 1.0330	41.4290
 1.0340	41.4620
 1.0350	41.4970
 1.0360	41.5330
 1.0370	41.5680
 1.0380	41.6000
 1.0390	41.6330
 1.0400	41.6630
 1.0410	41.6890
 1.0420	41.7180
 1.0430	41.7510
 1.0440	41.7770
 1.0450	41.8010
 1.0460	41.8260
 1.0470	41.8440
 1.0480	41.8660
 1.0490	41.8930
 1.0500	41.9150
 1.0510	41.9330
 1.0520	41.9510
 1.0530	41.9700
 1.0540	41.9870
 1.0550	42.0050
 1.0560	42.0250
 1.0570	42.0410
 1.0580	42.0540
 1.0590	42.0680
 1.0600	42.0830
 1.0610	42.0950
 1.0620	42.1050
 1.0630	42.1160
 1.0640	42.1280
 1.0650	42.1370
 1.0660	42.1440
 1.0670	42.1520
 1.0680	42.1590
 1.0690	42.1640
 1.0700	42.1700
 1.0710	42.1770
 1.0720	42.1820
 1.0730	42.1840
 1.0740	42.1850
 1.0750	42.1840
 1.0760	42.1850
 1.0770	42.1850
 1.0780	42.1820
 1.0790	42.1800
 1.0800	42.1760
 1.0810	42.1680
 1.0820	42.1610
 1.0830	42.1570
 1.0840	42.1510
 1.0850	42.1420
 1.0860	42.1340
 1.0870	42.1250
 1.0880	42.1150
 1.0890	42.1040
 1.0900	42.0950
 1.0910	42.0840
 1.0920	42.0720
 1.0930	42.0580
 1.0940	42.0440
 1.0950	42.0270
 1.0960	42.0080
 1.0970	41.9890
 1.0980	41.9690
 1.0990	41.9500
 1.1000	41.9350
 1.1010	41.9140
 1.1020	41.8920
 1.1030	41.8680
 1.1040	41.8430
 1.1050	41.8160
 1.1060	41.7900
 1.1070	41.7650
 1.1080	41.7370
 1.1090	41.7070
 1.1100	41.6740
 1.1110	41.6380
 1.1120	41.6030
 1.1130	41.5700
 1.1140	41.5310
 1.1150	41.4930
 1.1160	41.4480
 1.1170	41.3970
 1.1180	41.3440
 1.1190	41.2900
 1.1200	41.2290
 1.1210	41.1640
 1.1220	41.0930
 1.1230	41.0150
 1.1240	40.9330
 1.1250	40.8460
 1.1260	40.7550
 1.1270	40.6550
 1.1280	40.5500
 1.1290	40.4360
 1.1300	40.3130
 1.1310	40.1820
 1.1320	40.0460
 1.1330	39.8990
 1.1340	39.7450
 1.1350	39.5810
 1.1360	39.4080
 1.1370	39.2250
 1.1380	39.0350
 1.1390	38.8360
 1.1400	38.6290
 1.1410	38.4190
 1.1420	38.2050
 1.1430	37.9860
 1.1440	37.7660
 1.1450	37.5410
 1.1460	37.3200
 1.1470	37.0950
 1.1480	36.8810
 1.1490	36.6690
 1.1500	36.4710
 1.1510	36.2770
 1.1520	36.0970
 1.1530	35.9260
 1.1540	35.7690
 1.1550	35.6220
 1.1560	35.4890
 1.1570	35.3660
 1.1580	35.2570
 1.1590	35.1600
 1.1600	35.0730
 1.1610	34.9980
 1.1620	34.9310
 1.1630	34.8740
 1.1640	34.8240
 1.1650	34.7800
 1.1660	34.7450
 1.1670	34.7130
 1.1680	34.6870
 1.1690	34.6620
 1.1700	34.6420
 1.1710	34.6220
 1.1720	34.6030
 1.1730	34.5860
 1.1740	34.5720
 1.1750	34.5570
 1.1760	34.5400
 1.1770	34.5240
 1.1780	34.5060
 1.1790	34.4870
 1.1800	34.4670
 1.1810	34.4450
 1.1820	34.4230
 1.1830	34.4000
 1.1840	34.3800
 1.1850	34.3620
 1.1860	34.3450
 1.1870	34.3270
 1.1880	34.3090
 1.1890	34.2920
 1.1900	34.2760
 1.1910	34.2600
 1.1920	34.2490
 1.1930	34.2410
 1.1940	34.2340
 1.1950	34.2310
 1.1960	34.2300
 1.1970	34.2280
 1.1980	34.2300
 1.1990	34.2340
 1.2000	34.2400
 1.2010	34.2510
 1.2020	34.2650
 1.2030	34.2790
 1.2040	34.2960
 1.2050	34.3160
 1.2060	34.3380
 1.2070	34.3640
 1.2080	34.3930
 1.2090	34.4230
 1.2100	34.4550
 1.2110	34.4890
 1.2120	34.5250
 1.2130	34.5630
 1.2140	34.6030
 1.2150	34.6450
 1.2160	34.6890
 1.2170	34.7340
 1.2180	34.7800
 1.2190	34.8270
 1.2200	34.8750
 1.2210	34.9230
 1.2220	34.9690
 1.2230	35.0160
 1.2240	35.0640
 1.2250	35.1090
 1.2260	35.1550
 1.2270	35.2000
 1.2280	35.2430
 1.2290	35.2850
 1.2300	35.3260
 1.2310	35.3660
 1.2320	35.4070
 1.2330	35.4460
 1.2340	35.4840
 1.2350	35.5200
 1.2360	35.5560
 1.2370	35.5900
 1.2380	35.6240
 1.2390	35.6600
 1.2400	35.6930
 1.2410	35.7250
 1.2420	35.7550
 1.2430	35.7820
 1.2440	35.8090
 1.2450	35.8360
 1.2460	35.8600
 1.2470	35.8860
 1.2480	35.9120
 1.2490	35.9380
 1.2500	35.9610
 1.2510	35.9820
 1.2520	36.0020
 1.2530	36.0200
 1.2540	36.0370
 1.2550	36.0540
 1.2560	36.0670
 1.2570	36.0810
 1.2580	36.0920
 1.2590	36.1000
 1.2600	36.1060
 1.2610	36.1120
 1.2620	36.1170
 1.2630	36.1220
 1.2640	36.1280
 1.2650	36.1310
 1.2660	36.1350
 1.2670	36.1350
 1.2680	36.1340
 1.2690	36.1330
 1.2700	36.1300
 1.2710	36.1240
 1.2720	36.1170
 1.2730	36.1080
 1.2740	36.1000
 1.2750	36.0890
 1.2760	36.0770
 1.2770	36.0630
 1.2780	36.0460
 1.2790	36.0290
 1.2800	36.0110
 1.2810	35.9890
 1.2820	35.9650
 1.2830	35.9380
 1.2840	35.9070
 1.2850	35.8750
 1.2860	35.8400
 1.2870	35.8030
 1.2880	35.7620
 1.2890	35.7180
 1.2900	35.6710
 1.2910	35.6220
 1.2920	35.5700
 1.2930	35.5150
 1.2940	35.4560
 1.2950	35.3900
 1.2960	35.3220
 1.2970	35.2500
 1.2980	35.1730
 1.2990	35.0960
 1.3000	35.0170
 1.3010	34.9330
 1.3020	34.8460
 1.3030	34.7550
 1.3040	34.6590
 1.3050	34.5580
 1.3060	34.4550
 1.3070	34.3460
 1.3080	34.2360
 1.3090	34.1240
 1.3100	34.0050
 1.3110	33.8830
 1.3120	33.7550
 1.3130	33.6220
 1.3140	33.4850
 1.3150	33.3440
 1.3160	33.1980
 1.3170	33.0480
 1.3180	32.8940
 1.3190	32.7360
 1.3200	32.5740
 1.3210	32.4060
 1.3220	32.2360
 1.3230	32.0640
 1.3240	31.8860
 1.3250	31.7060
 1.3260	31.5220
 1.3270	31.3320
 1.3280	31.1410
 1.3290	30.9480
 1.3300	30.7540
 1.3310	30.5590
 1.3320	30.3600
 1.3330	30.1620
 1.3340	29.9610
 1.3350	29.7580
 1.3360	29.5570
 1.3370	29.3550
 1.3380	29.1550
 1.3390	28.9560
 1.3400	28.7570
 1.3410	28.5610
 1.3420	28.3670
 1.3430	28.1750
 1.3440	27.9870
 1.3450	27.8010
 1.3460	27.6170
 1.3470	27.4370
 1.3480	27.2570
 1.3490	27.0820
 1.3500	26.9090
 1.3510	26.7400
 1.3520	26.5730
 1.3530	26.4090
 1.3540	26.2430
 1.3550	26.0810
 1.3560	25.9190
 1.3570	25.7550
 1.3580	25.5940
 1.3590	25.4320
 1.3600	25.2650
 1.3610	25.0970
 1.3620	24.9230
 1.3630	24.7440
 1.3640	24.5610
 1.3650	24.3710
 1.3660	24.1750
 1.3670	23.9720
 1.3680	23.7570
 1.3690	23.5330
 1.3700	23.2980
 1.3710	23.0510
 1.3720	22.7920
 1.3730	22.5180
 1.3740	22.2310
 1.3750	21.9270
 1.3760	21.6060
 1.3770	21.2680
 1.3780	20.9070
 1.3790	20.5300
 1.3800	20.1350
 1.3810	19.7200
 1.3820	19.2950
 1.3830	18.8560
 1.3840	18.4060
 1.3850	17.9430
 1.3860	17.4760
 1.3870	16.9950
 1.3880	16.5190
 1.3890	16.0390
 1.3900	15.5580
 1.3910	15.0850
 1.3920	14.6140
 1.3930	14.1460
 1.3940	13.6880
 1.3950	13.2370
 1.3960	12.7970
 1.3970	12.3750
 1.3980	11.9650
 1.3990	11.5780
 1.4000	11.2080
 1.4010	10.8520
 1.4020	10.5170
 1.4030	10.1970
 1.4040	 9.8950
 1.4050	 9.6130
 1.4060	 9.3480
 1.4070	 9.1040
 1.4080	 8.8760
 1.4090	 8.6620
 1.4100	 8.4670
 1.4110	 8.2850
 1.4120	 8.1170
 1.4130	 7.9640
 1.4140	 7.8230
 1.4150	 7.6940
 1.4160	 7.5770
 1.4170	 7.4700
 1.4180	 7.3720
 1.4190	 7.2830
 1.4200	 7.2010
 1.4210	 7.1280
 1.4220	 7.0610
 1.4230	 7.0010
 1.4240	 6.9470
 1.4250	 6.8960
 1.4260	 6.8510
 1.4270	 6.8110
 1.4280	 6.7770
 1.4290	 6.7450
 1.4300	 6.7190
 1.4310	 6.6950
 1.4320	 6.6740
 1.4330	 6.6550
 1.4340	 6.6410
 1.4350	 6.6270
 1.4360	 6.6170
 1.4370	 6.6090
 1.4380	 6.6030
 1.4390	 6.5990
 1.4400	 6.5970
 1.4410	 6.5970
 1.4420	 6.5980
 1.4430	 6.6000
 1.4440	 6.6030
 1.4450	 6.6080
 1.4460	 6.6140
 1.4470	 6.6200
 1.4480	 6.6280
 1.4490	 6.6360
 1.4500	 6.6440
 1.4510	 6.6520
 1.4520	 6.6620
 1.4530	 6.6720
 1.4540	 6.6830
 1.4550	 6.6960
 1.4560	 6.7090
 1.4570	 6.7230
 1.4580	 6.7370
 1.4590	 6.7530
 1.4600	 6.7700
 1.4610	 6.7890
 1.4620	 6.8100
 1.4630	 6.8340
 1.4640	 6.8590
 1.4650	 6.8860
 1.4660	 6.9150
 1.4670	 6.9450
 1.4680	 6.9780
 1.4690	 7.0140
 1.4700	 7.0520
 1.4710	 7.0920
 1.4720	 7.1330
 1.4730	 7.1770
 1.4740	 7.2230
 1.4750	 7.2710
 1.4760	 7.3210
 1.4770	 7.3740
 1.4780	 7.4260
 1.4790	 7.4800
 1.4800	 7.5360
 1.4810	 7.5920
 1.4820	 7.6500
 1.4830	 7.7100
 1.4840	 7.7700
 1.4850	 7.8310
 1.4860	 7.8920
 1.4870	 7.9550
 1.4880	 8.0180
 1.4890	 8.0820
 1.4900	 8.1460
 1.4910	 8.2100
 1.4920	 8.2760
 1.4930	 8.3420
 1.4940	 8.4080
 1.4950	 8.4760
 1.4960	 8.5430
 1.4970	 8.6100
 1.4980	 8.6770
 1.4990	 8.7460
 1.5000	 8.8140
 1.5010	 8.8830
 1.5020	 8.9520
 1.5030	 9.0220
 1.5040	 9.0920
 1.5050	 9.1600
 1.5060	 9.2300
 1.5070	 9.2980
 1.5080	 9.3680
 1.5090	 9.4380
 1.5100	 9.5070
 1.5110	 9.5760
 1.5120	 9.6460
 1.5130	 9.7140
 1.5140	 9.7830
 1.5150	 9.8520
 1.5160	 9.9200
 1.5170	 9.9900
 1.5180	10.0590
 1.5190	10.1270
 1.5200	10.1960
 1.5210	10.2640
 1.5220	10.3310
 1.5230	10.3990
 1.5240	10.4660
 1.5250	10.5320
 1.5260	10.5990
 1.5270	10.6650
 1.5280	10.7310
 1.5290	10.7960
 1.5300	10.8610
 1.5310	10.9260
 1.5320	10.9900
 1.5330	11.0540
 1.5340	11.1190
 1.5350	11.1820
 1.5360	11.2440
 1.5370	11.3070
 1.5380	11.3680
 1.5390	11.4290
 1.5400	11.4900
 1.5410	11.5500
 1.5420	11.6100
 1.5430	11.6700
 1.5440	11.7310
 1.5450	11.7900
 1.5460	11.8490
 1.5470	11.9080
 1.5480	11.9650
 1.5490	12.0240
 1.5500	12.0820
 1.5510	12.1400
 1.5520	12.1970
 1.5530	12.2540
 1.5540	12.3100
 1.5550	12.3670
 1.5560	12.4230
 1.5570	12.4790
 1.5580	12.5330
 1.5590	12.5860
 1.5600	12.6400
 1.5610	12.6920
 1.5620	12.7450
 1.5630	12.7980
 1.5640	12.8500
 1.5650	12.9020
 1.5660	12.9520
 1.5670	13.0030
 1.5680	13.0550
 1.5690	13.1050
 1.5700	13.1550
 1.5710	13.2050
 1.5720	13.2550
 1.5730	13.3040
 1.5740	13.3540
 1.5750	13.4030
 1.5760	13.4520
 1.5770	13.5010
 1.5780	13.5500
 1.5790	13.6000
 1.5800	13.6490
 1.5810	13.6980
 1.5820	13.7480
 1.5830	13.7950
 1.5840	13.8430
 1.5850	13.8910
 1.5860	13.9380
 1.5870	13.9870
 1.5880	14.0350
 1.5890	14.0810
 1.5900	14.1290
 1.5910	14.1760
 1.5920	14.2240
 1.5930	14.2710
 1.5940	14.3170
 1.5950	14.3640
 1.5960	14.4110
 1.5970	14.4580
 1.5980	14.5040
 1.5990	14.5480
 1.6000	14.5910
 1.6010	14.6360
 1.6020	14.6800
 1.6030	14.7250
 1.6040	14.7700
 1.6050	14.8130
 1.6060	14.8570
 1.6070	14.9000
 1.6080	14.9420
 1.6090	14.9830
 1.6100	15.0230
 1.6110	15.0640
 1.6120	15.1050
 1.6130	15.1460
 1.6140	15.1860
 1.6150	15.2250
 1.6160	15.2630
 1.6170	15.3000
 1.6180	15.3370
 1.6190	15.3740
 1.6200	15.4090
 1.6210	15.4430
 1.6220	15.4770
 1.6230	15.5100
 1.6240	15.5440
 1.6250	15.5760
 1.6260	15.6070
 1.6270	15.6370
 1.6280	15.6660
 1.6290	15.6940
 1.6300	15.7220
 1.6310	15.7480
 1.6320	15.7740
 1.6330	15.7980
 1.6340	15.8220
 1.6350	15.8440
 1.6360	15.8640
 1.6370	15.8830
 1.6380	15.9000
 1.6390	15.9140
 1.6400	15.9270
 1.6410	15.9370
 1.6420	15.9440
 1.6430	15.9470
 1.6440	15.9480
 1.6450	15.9460
 1.6460	15.9420
 1.6470	15.9360
 1.6480	15.9270
 1.6490	15.9160
 1.6500	15.9020
 1.6510	15.8850
 1.6520	15.8680
 1.6530	15.8490
 1.6540	15.8290
 1.6550	15.8070
 1.6560	15.7850
 1.6570	15.7630
 1.6580	15.7410
 1.6590	15.7200
 1.6600	15.7020
 1.6610	15.6860
 1.6620	15.6730
 1.6630	15.6650
 1.6640	15.6590
 1.6650	15.6560
 1.6660	15.6570
 1.6670	15.6620
 1.6680	15.6700
 1.6690	15.6810
 1.6700	15.6950
 1.6710	15.7090
 1.6720	15.7240
 1.6730	15.7400
 1.6740	15.7550
 1.6750	15.7690
 1.6760	15.7810
 1.6770	15.7920
 1.6780	15.8000
 1.6790	15.8060
 1.6800	15.8100
 1.6810	15.8100
 1.6820	15.8070
 1.6830	15.8010
 1.6840	15.7930
 1.6850	15.7830
 1.6860	15.7690
 1.6870	15.7540
 1.6880	15.7360
 1.6890	15.7170
 1.6900	15.6960
 1.6910	15.6730
 1.6920	15.6500
 1.6930	15.6260
 1.6940	15.6020
 1.6950	15.5790
 1.6960	15.5540
 1.6970	15.5270
 1.6980	15.4990
 1.6990	15.4680
 1.7000	15.4370
 1.7010	15.4030
 1.7020	15.3710
 1.7030	15.3400
 1.7040	15.3060
 1.7050	15.2720
 1.7060	15.2360
 1.7070	15.1970
 1.7080	15.1590
 1.7090	15.1180
 1.7100	15.0780
 1.7110	15.0380
 1.7120	14.9970
 1.7130	14.9570
 1.7140	14.9160
 1.7150	14.8740
 1.7160	14.8330
 1.7170	14.7920
 1.7180	14.7490
 1.7190	14.7070
 1.7200	14.6650
 1.7210	14.6230
 1.7220	14.5800
 1.7230	14.5400
 1.7240	14.4980
 1.7250	14.4560
 1.7260	14.4170
 1.7270	14.3780
 1.7280	14.3420
 1.7290	14.3060
 1.7300	14.2710
 1.7310	14.2360
 1.7320	14.2040
 1.7330	14.1720
 1.7340	14.1410
 1.7350	14.1100
 1.7360	14.0810
 1.7370	14.0510
 1.7380	14.0200
 1.7390	13.9880
 1.7400	13.9550
 1.7410	13.9210
 1.7420	13.8860
 1.7430	13.8490
 1.7440	13.8100
 1.7450	13.7720
 1.7460	13.7350
 1.7470	13.6970
 1.7480	13.6600
 1.7490	13.6230
 1.7500	13.5850
 1.7510	13.5480
 1.7520	13.5110
 1.7530	13.4750
 1.7540	13.4380
 1.7550	13.4010
 1.7560	13.3650
 1.7570	13.3290
 1.7580	13.2920
 1.7590	13.2570
 1.7600	13.2230
 1.7610	13.1900
 1.7620	13.1580
 1.7630	13.1250
 1.7640	13.0940
 1.7650	13.0630
 1.7660	13.0340
 1.7670	13.0080
 1.7680	12.9800
 1.7690	12.9520
 1.7700	12.9250
 1.7710	12.8970
 1.7720	12.8700
 1.7730	12.8460
 1.7740	12.8230
 1.7750	12.8010
 1.7760	12.7790
 1.7770	12.7570
 1.7780	12.7370
 1.7790	12.7160
 1.7800	12.6980
 1.7810	12.6820
 1.7820	12.6660
 1.7830	12.6510
 1.7840	12.6390
 1.7850	12.6280
 1.7860	12.6190
 1.7870	12.6100
 1.7880	12.6020
 1.7890	12.5950
 1.7900	12.5890
 1.7910	12.5840
 1.7920	12.5810
 1.7930	12.5780
 1.7940	12.5760
 1.7950	12.5740
 1.7960	12.5730
 1.7970	12.5730
 1.7980	12.5750
 1.7990	12.5770
 1.8000	12.5800
 1.8010	12.5830
 1.8020	12.5870
 1.8030	12.5910
 1.8040	12.5960
 1.8050	12.6010
 1.8060	12.6070
 1.8070	12.6120
 1.8080	12.6180
 1.8090	12.6210
 1.8100	12.6230
 1.8110	12.6270
 1.8120	12.6290
 1.8130	12.6320
 1.8140	12.6370
 1.8150	12.6390
 1.8160	12.6420
 1.8170	12.6430
 1.8180	12.6420
 1.8190	12.6410
 1.8200	12.6410
 1.8210	12.6410
 1.8220	12.6410
 1.8230	12.6440
 1.8240	12.6430
 1.8250	12.6400
 1.8260	12.6360
 1.8270	12.5920
 1.8280	12.5480
 1.8290	12.5040
 1.8300	12.4600
 1.8310	12.4160
 1.8320	12.3720
 1.8330	12.3280
 1.8340	12.2840
 1.8350	12.2840
 1.8360	12.2640
 1.8370	12.2380
 1.8380	12.2070
 1.8390	12.1760
 1.8400	12.1440
 1.8410	12.1070
 1.8420	12.0680
 1.8430	12.0260
 1.8440	11.9790
 1.8450	11.9270
 1.8460	11.8720
 1.8470	11.8130
 1.8480	11.7500
 1.8490	11.6790
 1.8500	11.6000
 1.8510	11.5150
 1.8520	11.4220
 1.8530	11.3200
 1.8540	11.2140
 1.8550	11.1010
 1.8560	10.9810
 1.8570	10.8550
 1.8580	10.7190
 1.8590	10.5790
 1.8600	10.4310
 1.8610	10.2800
 1.8620	10.1190
 1.8630	 9.9510
 1.8640	 9.7740
 1.8650	 9.5840
 1.8660	 9.3880
 1.8670	 9.1840
 1.8680	 8.9720
 1.8690	 8.7580
 1.8700	 8.5360
 1.8710	 8.3070
 1.8720	 8.0770
 1.8730	 7.8450
 1.8740	 7.6080
 1.8750	 7.3730
 1.8760	 7.1360
 1.8770	 6.9020
 1.8780	 6.6730
 1.8790	 6.4480
 1.8800	 6.2320
 1.8810	 6.0250
 1.8820	 5.8220
 1.8830	 5.6250
 1.8840	 5.4360
 1.8850	 5.2540
 1.8860	 5.0780
 1.8870	 4.9130
 1.8880	 4.7580
 1.8890	 4.6140
 1.8900	 4.4780
 1.8910	 4.3530
 1.8920	 4.2400
 1.8930	 4.1340
 1.8940	 4.0360
 1.8950	 3.9510
 1.8960	 3.8730
 1.8970	 3.8020
 1.8980	 3.7410
 1.8990	 3.6850
 1.9000	 3.6340
 1.9010	 3.5890
 1.9020	 3.5490
 1.9030	 3.5150
 1.9040	 3.4850
 1.9050	 3.4590
 1.9060	 3.4360
 1.9070	 3.4170
 1.9080	 3.4000
 1.9090	 3.3840
 1.9100	 3.3720
 1.9110	 3.3610
 1.9120	 3.3520
 1.9130	 3.3420
 1.9140	 3.3340
 1.9150	 3.3270
 1.9160	 3.3200
 1.9170	 3.3120
 1.9180	 3.3070
 1.9190	 3.3030
 1.9200	 3.3000
 1.9210	 3.3000
 1.9220	 3.2990
 1.9230	 3.2990
 1.9240	 3.2980
 1.9250	 3.2970
 1.9260	 3.2950
 1.9270	 3.2930
 1.9280	 3.2920
 1.9290	 3.2920
 1.9300	 3.2940
 1.9310	 3.2950
 1.9320	 3.2950
 1.9330	 3.2970
 1.9340	 3.3000
 1.9350	 3.3020
 1.9360	 3.3060
 1.9370	 3.3090
 1.9380	 3.3130
 1.9390	 3.3160
 1.9400	 3.3190
 1.9410	 3.3200
 1.9420	 3.3210
 1.9430	 3.3250
 1.9440	 3.3300
 1.9450	 3.3360
 1.9460	 3.3430
 1.9470	 3.3520
 1.9480	 3.3590
 1.9490	 3.3670
 1.9500	 3.3740
 1.9510	 3.3800
 1.9520	 3.3850
 1.9530	 3.3890
 1.9540	 3.3940
 1.9550	 3.4000
 1.9560	 3.4070
 1.9570	 3.4150
 1.9580	 3.4240
 1.9590	 3.4330
 1.9600	 3.4400
 1.9610	 3.4490
 1.9620	 3.4600
 1.9630	 3.4680
 1.9640	 3.4750
 1.9650	 3.4840
 1.9660	 3.4940
 1.9670	 3.5040
 1.9680	 3.5150
 1.9690	 3.5280
 1.9700	 3.5390
 1.9710	 3.5480
 1.9720	 3.5580
 1.9730	 3.5680
 1.9740	 3.5780
 1.9750	 3.5900
 1.9760	 3.6020
 1.9770	 3.6160
 1.9780	 3.6300
 1.9790	 3.6440
 1.9800	 3.6560
 1.9810	 3.6700
 1.9820	 3.6840
 1.9830	 3.6970
 1.9840	 3.7100
 1.9850	 3.7240
 1.9860	 3.7380
 1.9870	 3.7510
 1.9880	 3.7650
 1.9890	 3.7800
 1.9900	 3.7950
 1.9910	 3.8110
 1.9920	 3.8270
 1.9930	 3.8440
 1.9940	 3.8590
 1.9950	 3.8740
 1.9960	 3.8900
 1.9970	 3.9080
 1.9980	 3.9250
 1.9990	 3.9420
 2.0000	 3.9600
 2.0010	 3.9760
 2.0020	 3.9920
 2.0030	 4.0100
 2.0040	 4.0300
 2.0050	 4.0480
 2.0060	 4.0660
 2.0070	 4.0840
 2.0080	 4.1020
 2.0090	 4.1200
 2.0100	 4.1380
 2.0110	 4.1560
 2.0120	 4.1730
 2.0130	 4.1900
 2.0140	 4.2080
 2.0150	 4.2250
 2.0160	 4.2420
 2.0170	 4.2600
 2.0180	 4.2760
 2.0190	 4.2900
 2.0200	 4.3060
 2.0210	 4.3230
 2.0220	 4.3400
 2.0230	 4.3590
 2.0240	 4.3760
 2.0250	 4.3880
 2.0260	 4.4030
 2.0270	 4.4180
 2.0280	 4.4330
 2.0290	 4.4470
 2.0300	 4.4620
 2.0310	 4.4750
 2.0320	 4.4850
 2.0330	 4.4960
 2.0340	 4.5080
 2.0350	 4.5200
 2.0360	 4.5320
 2.0370	 4.5450
 2.0380	 4.5610
 2.0390	 4.5740
 2.0400	 4.5870
 2.0410	 4.5990
 2.0420	 4.6100
 2.0430	 4.6210
 2.0440	 4.6310
 2.0450	 4.6410
 2.0460	 4.6490
 2.0470	 4.6540
 2.0480	 4.6620
 2.0490	 4.6690
 2.0500	 4.6770
 2.0510	 4.6880
 2.0520	 4.6980
 2.0530	 4.7070
 2.0540	 4.7170
 2.0550	 4.7270
 2.0560	 4.7360
 2.0570	 4.7460
 2.0580	 4.7560
 2.0590	 4.7660
 2.0600	 4.7740
 2.0610	 4.7830
 2.0620	 4.7920
 2.0630	 4.8010
 2.0640	 4.8110
 2.0650	 4.8210
 2.0660	 4.8310
 2.0670	 4.8400
 2.0680	 4.8470
 2.0690	 4.8550
 2.0700	 4.8630
 2.0710	 4.8720
 2.0720	 4.8840
 2.0730	 4.8940
 2.0740	 4.9030
 2.0750	 4.9100
 2.0760	 4.9170
 2.0770	 4.9220
 2.0780	 4.9300
 2.0790	 4.9410
 2.0800	 4.9490
 2.0810	 4.9570
 2.0820	 4.9660
 2.0830	 4.9730
 2.0840	 4.9800
 2.0850	 4.9880
 2.0860	 4.9960
 2.0870	 5.0060
 2.0880	 5.0150
 2.0890	 5.0230
 2.0900	 5.0320
 2.0910	 5.0400
 2.0920	 5.0470
 2.0930	 5.0540
 2.0940	 5.0600
 2.0950	 5.0670
 2.0960	 5.0750
 2.0970	 5.0830
 2.0980	 5.0940
 2.0990	 5.1030
 2.1000	 5.1120
 2.1010	 5.1200
 2.1020	 5.1250
 2.1030	 5.1330
 2.1040	 5.1410
 2.1050	 5.1500
 2.1060	 5.1590
 2.1070	 5.1700
 2.1080	 5.1790
 2.1090	 5.1850
 2.1100	 5.1940
 2.1110	 5.2040
 2.1120	 5.2120
 2.1130	 5.2220
 2.1140	 5.2290
 2.1150	 5.2320
 2.1160	 5.2370
 2.1170	 5.2390
 2.1180	 5.2450
 2.1190	 5.2530
 2.1200	 5.2610
 2.1210	 5.2710
 2.1220	 5.2820
 2.1230	 5.2890
 2.1240	 5.2930
 2.1250	 5.3000
 2.1260	 5.3040
 2.1270	 5.3120
 2.1280	 5.3270
 2.1290	 5.3360
 2.1300	 5.3430
 2.1310	 5.3500
 2.1320	 5.3550
 2.1330	 5.3610
 2.1340	 5.3680
 2.1350	 5.3750
 2.1360	 5.3810
 2.1370	 5.3880
 2.1380	 5.3950
 2.1390	 5.4040
 2.1400	 5.4140
 2.1410	 5.4280
 2.1420	 5.4390
 2.1430	 5.4530
 2.1440	 5.4630
 2.1450	 5.4720
 2.1460	 5.4810
 2.1470	 5.4860
 2.1480	 5.4960
 2.1490	 5.5070
 2.1500	 5.5170
 2.1510	 5.5290
 2.1520	 5.5420
 2.1530	 5.5550
 2.1540	 5.5660
 2.1550	 5.5790
 2.1560	 5.5920
 2.1570	 5.6020
 2.1580	 5.6140
 2.1590	 5.6280
 2.1600	 5.6430
 2.1610	 5.6580
 2.1620	 5.6710
 2.1630	 5.6860
 2.1640	 5.7030
 2.1650	 5.7170
 2.1660	 5.7300
 2.1670	 5.7420
 2.1680	 5.7520
 2.1690	 5.7620
 2.1700	 5.7720
 2.1710	 5.7820
 2.1720	 5.7930
 2.1730	 5.8050
 2.1740	 5.8200
 2.1750	 5.8320
 2.1760	 5.8420
 2.1770	 5.8520
 2.1780	 5.8600
 2.1790	 5.8690
 2.1800	 5.8760
 2.1810	 5.8870
 2.1820	 5.8990
 2.1830	 5.9120
 2.1840	 5.9240
 2.1850	 5.9390
 2.1860	 5.9510
 2.1870	 5.9590
 2.1880	 5.9710
 2.1890	 5.9830
 2.1900	 5.9960
 2.1910	 6.0110
 2.1920	 6.0240
 2.1930	 6.0390
 2.1940	 6.0520
 2.1950	 6.0620
 2.1960	 6.0750
 2.1970	 6.0870
 2.1980	 6.1000
 2.1990	 6.1130
 2.2000	 6.1270
 2.2010	 6.1450
 2.2020	 6.1580
 2.2030	 6.1730
 2.2040	 6.1850
 2.2050	 6.1940
 2.2060	 6.2020
 2.2070	 6.2100
 2.2080	 6.2170
 2.2090	 6.2250
 2.2100	 6.2310
 2.2110	 6.2410
 2.2120	 6.2550
 2.2130	 6.2650
 2.2140	 6.2770
 2.2150	 6.2860
 2.2160	 6.2940
 2.2170	 6.2980
 2.2180	 6.3000
 2.2190	 6.3030
 2.2200	 6.3020
 2.2210	 6.3050
 2.2220	 6.3120
 2.2230	 6.3150
 2.2240	 6.3180
 2.2250	 6.3170
 2.2260	 6.3130
 2.2270	 6.3070
 2.2280	 6.2960
 2.2290	 6.2890
 2.2300	 6.2830
 2.2310	 6.2790
 2.2320	 6.2740
 2.2330	 6.2690
 2.2340	 6.2590
 2.2350	 6.2440
 2.2360	 6.2320
 2.2370	 6.2190
 2.2380	 6.2050
 2.2390	 6.1910
 2.2400	 6.1750
 2.2410	 6.1570
 2.2420	 6.1390
 2.2430	 6.1190
 2.2440	 6.0990
 2.2450	 6.0780
 2.2460	 6.0550
 2.2470	 6.0290
 2.2480	 6.0060
 2.2490	 5.9810
 2.2500	 5.9560
 2.2510	 5.9320
 2.2520	 5.9070
 2.2530	 5.8790
 2.2540	 5.8530
 2.2550	 5.8260
 2.2560	 5.8010
 2.2570	 5.7770
 2.2580	 5.7540
 2.2590	 5.7360
 2.2600	 5.7140
 2.2610	 5.6890
 2.2620	 5.6670
 2.2630	 5.6420
 2.2640	 5.6170
 2.2650	 5.5950
 2.2660	 5.5670
 2.2670	 5.5430
 2.2680	 5.5200
 2.2690	 5.4990
 2.2700	 5.4810
 2.2710	 5.4620
 2.2720	 5.4420
 2.2730	 5.4240
 2.2740	 5.4060
 2.2750	 5.3890
 2.2760	 5.3730
 2.2770	 5.3580
 2.2780	 5.3450
 2.2790	 5.3300
 2.2800	 5.3140
 2.2810	 5.3000
 2.2820	 5.2860
 2.2830	 5.2720
 2.2840	 5.2610
 2.2850	 5.2470
 2.2860	 5.2300
 2.2870	 5.2160
 2.2880	 5.2070
 2.2890	 5.1920
 2.2900	 5.1750
 2.2910	 5.1580
 2.2920	 5.1360
 2.2930	 5.1190
 2.2940	 5.1060
 2.2950	 5.0930
 2.2960	 5.0830
 2.2970	 5.0690
 2.2980	 5.0550
 2.2990	 5.0380
 2.3000	 5.0170
 2.3010	 4.9990
 2.3020	 4.9830
 2.3030	 4.9620
 2.3040	 4.9420
 2.3050	 4.9230
 2.3060	 4.9060
 2.3070	 4.8950
 2.3080	 4.8850
 2.3090	 4.8760
 2.3100	 4.8670
 2.3110	 4.8540
 2.3120	 4.8410
 2.3130	 4.8270
 2.3140	 4.8150
 2.3150	 4.8030
 2.3160	 4.7970
 2.3170	 4.7980
 2.3180	 4.7940
 2.3190	 4.7900
 2.3200	 4.7840
 2.3210	 4.7740
 2.3220	 4.7660
 2.3230	 4.7590
 2.3240	 4.7500
 2.3250	 4.7410
 2.3260	 4.7300
 2.3270	 4.7170
 2.3280	 4.7050
 2.3290	 4.6930
 2.3300	 4.6810
 2.3310	 4.6680
 2.3320	 4.6550
 2.3330	 4.6420
 2.3340	 4.6280
 2.3350	 4.6130
 2.3360	 4.6010
 2.3370	 4.5900
 2.3380	 4.5790
 2.3390	 4.5720
 2.3400	 4.5630
 2.3410	 4.5490
 2.3420	 4.5390
 2.3430	 4.5330
 2.3440	 4.5240
 2.3450	 4.5160
 2.3460	 4.5080
 2.3470	 4.4960
 2.3480	 4.4880
 2.3490	 4.4870
 2.3500	 4.4810
 2.3510	 4.4730
 2.3520	 4.4670
 2.3530	 4.4560
 2.3540	 4.4470
 2.3550	 4.4440
 2.3560	 4.4390
 2.3570	 4.4310
 2.3580	 4.4230
 2.3590	 4.4120
 2.3600	 4.4040
 2.3610	 4.4000
 2.3620	 4.3900
 2.3630	 4.3770
 2.3640	 4.3660
 2.3650	 4.3530
 2.3660	 4.3400
 2.3670	 4.3310
 2.3680	 4.3190
 2.3690	 4.3150
 2.3700	 4.3100
 2.3710	 4.3000
 2.3720	 4.2960
 2.3730	 4.2810
 2.3740	 4.2680
 2.3750	 4.2640
 2.3760	 4.2510
 2.3770	 4.2360
 2.3780	 4.2190
 2.3790	 4.2090
 2.3800	 4.1960
 2.3810	 4.1900
 2.3820	 4.1910
 2.3830	 4.1840
 2.3840	 4.1810
 2.3850	 4.1710
 2.3860	 4.1530
 2.3870	 4.1360
 2.3880	 4.1170
 2.3890	 4.1040
 2.3900	 4.0960
 2.3910	 4.0880
 2.3920	 4.0770
 2.3930	 4.0710
 2.3940	 4.0690
 2.3950	 4.0590
 2.3960	 4.0510
 2.3970	 4.0400
 2.3980	 4.0170
 2.3990	 4.0070
 2.4000	 4.0040
 2.4010	 3.9920
 2.4020	 3.9870
 2.4030	 3.9740
 2.4040	 3.9620
 2.4050	 3.9590
 2.4060	 3.9470
 2.4070	 3.9390
 2.4080	 3.9360
 2.4090	 3.9180
 2.4100	 3.9040
 2.4110	 3.8860
 2.4120	 3.8620
 2.4130	 3.8540
 2.4140	 3.8510
 2.4150	 3.8460
 2.4160	 3.8350
 2.4170	 3.8240
 2.4180	 3.8140
 2.4190	 3.7950
 2.4200	 3.7920
 2.4210	 3.7910
 2.4220	 3.7790
 2.4230	 3.7730
 2.4240	 3.7600
 2.4250	 3.7390
 2.4260	 3.7150
 2.4270	 3.7010
 2.4280	 3.6890
 2.4290	 3.6720
 2.4300	 3.6660
 2.4310	 3.6600
 2.4320	 3.6570
 2.4330	 3.6580
 2.4340	 3.6540
 2.4350	 3.6460
 2.4360	 3.6370
 2.4370	 3.6310
 2.4380	 3.6290
 2.4390	 3.6240
 2.4400	 3.6230
 2.4410	 3.6200
 2.4420	 3.6060
 2.4430	 3.5880
 2.4440	 3.5650
 2.4450	 3.5380
 2.4460	 3.5360
 2.4470	 3.5460
 2.4480	 3.5480
 2.4490	 3.5580
 2.4500	 3.5540
 2.4510	 3.5540
 2.4520	 3.5650
 2.4530	 3.5550
 2.4540	 3.5410
 2.4550	 3.5170
 2.4560	 3.4850
 2.4570	 3.4780
 2.4580	 3.4690
 2.4590	 3.4570
 2.4600	 3.4490
 2.4610	 3.4340
 2.4620	 3.4320
 2.4630	 3.4390
 2.4640	 3.4440
 2.4650	 3.4480
 2.4660	 3.4470
 2.4670	 3.4370
 2.4680	 3.4350
 2.4690	 3.4540
 2.4700	 3.4560
 2.4710	 3.4540
 2.4720	 3.4450
 2.4730	 3.4050
 2.4740	 3.4000
 2.4750	 3.4210
 2.4760	 3.4290
 2.4770	 3.4580
 2.4780	 3.4610
 2.4790	 3.4340
 2.4800	 3.4200
 2.4810	 3.4070
 2.4820	 3.4000
 2.4830	 3.3810
 2.4840	 3.3500
 2.4850	 3.3430
 2.4860	 3.3340
 2.4870	 3.3320
 2.4880	 3.3590
 2.4890	 3.3810
 2.4900	 3.3970
 2.4910	 3.4230
 2.4920	 3.4020
 2.4930	 3.3610
 2.4940	 3.3620
 2.4950	 3.3360
 2.4960	 3.3150
 2.4970	 3.3160
 2.4980	 3.3100
 2.4990	 3.2960
 2.5000	 3.2860
