Name: Prunus serotina
Type: Vegetation
Class: Tree
Genus: Prunus
Species: serotina
Sample No.: PRSE-2-65
Owner: UCSB
Wavelength Range: TIR
Origin: USA; Massachusetts; Harvard Forest
Collection Date: 7/8/2013
Description: Samples were collected as part of NSF Macrosystem Biology proposal titled: Collaborative Research: Thermal controls on ecosystem metabolism and function: scaling from leaves to canopies to regions. Samples were collected and overnighted to JPL facilities for processing. The same leaves were processed in the Nicolet and then measured using the ASD.
Measurement: Hemispherical reflectance
First Column: X
Second Column: Y
X Units: Wavelength (micrometers)
Y Units: Reflectance (percentage)
First X Value: 2.501
Last X Value: 15.387
Number of X Values: 1737
Additional Information: vegetation.tree.prunus.serotina.tir.prse-2-65.ucsb.nicolet.ancillary.txt

 2.5010	 9.3810
 2.5030	 9.8250
 2.5040	 9.7960
 2.5050	 9.2880
 2.5060	 9.1490
 2.5070	 9.2430
 2.5090	 9.3470
 2.5100	 9.2100
 2.5110	 9.1170
 2.5120	 9.2520
 2.5140	 9.2680
 2.5150	 9.0890
 2.5160	 9.1900
 2.5170	 9.1960
 2.5180	 9.2470
 2.5200	 9.3490
 2.5210	 9.1590
 2.5220	 8.8430
 2.5230	 8.9420
 2.5250	 8.9140
 2.5260	 8.8620
 2.5270	 8.8770
 2.5280	 8.9510
 2.5290	 9.1850
 2.5310	 9.3850
 2.5320	 9.2270
 2.5330	 9.1780
 2.5340	 9.3290
 2.5360	 9.5400
 2.5370	 9.3510
 2.5380	 9.1020
 2.5390	 9.0660
 2.5410	 9.1740
 2.5420	 8.9070
 2.5430	 8.7410
 2.5440	 8.7130
 2.5460	 8.8220
 2.5470	 8.9520
 2.5480	 9.0600
 2.5490	 8.9250
 2.5510	 9.0390
 2.5520	 9.2310
 2.5530	 9.3460
 2.5540	 9.2160
 2.5560	 9.1300
 2.5570	 9.0660
 2.5580	 9.1280
 2.5590	 9.2910
 2.5610	 9.4280
 2.5620	 9.3110
 2.5630	 9.1140
 2.5640	 9.0160
 2.5660	 9.0510
 2.5670	 8.8790
 2.5680	 8.9360
 2.5700	 8.8970
 2.5710	 9.0460
 2.5720	 9.1720
 2.5730	 9.1760
 2.5750	 9.0400
 2.5760	 9.0430
 2.5770	 9.0490
 2.5790	 9.0120
 2.5800	 8.8460
 2.5810	 8.6740
 2.5820	 8.7750
 2.5840	 8.8870
 2.5850	 8.6910
 2.5860	 8.5590
 2.5880	 8.5610
 2.5890	 8.5790
 2.5900	 8.4190
 2.5910	 8.4660
 2.5930	 8.2830
 2.5940	 8.5850
 2.5950	 8.8400
 2.5970	 8.7850
 2.5980	 8.6040
 2.5990	 8.5370
 2.6000	 8.2610
 2.6020	 8.2500
 2.6030	 8.4320
 2.6040	 8.3990
 2.6060	 8.0990
 2.6070	 7.9550
 2.6080	 7.8450
 2.6100	 7.8380
 2.6110	 7.7580
 2.6120	 7.8750
 2.6140	 7.7320
 2.6150	 7.6930
 2.6160	 7.5520
 2.6180	 7.5660
 2.6190	 7.4730
 2.6200	 7.3420
 2.6220	 7.2090
 2.6230	 7.1080
 2.6240	 7.0040
 2.6260	 6.9860
 2.6270	 7.1290
 2.6280	 7.3740
 2.6300	 7.1990
 2.6310	 6.6530
 2.6320	 6.2720
 2.6340	 6.5140
 2.6350	 6.5270
 2.6360	 6.5640
 2.6380	 6.3400
 2.6390	 6.1460
 2.6400	 5.9290
 2.6420	 5.7100
 2.6430	 5.6670
 2.6440	 5.8990
 2.6460	 6.0900
 2.6470	 5.9850
 2.6480	 5.6330
 2.6500	 5.5310
 2.6510	 5.7190
 2.6520	 5.7900
 2.6540	 5.4320
 2.6550	 5.3230
 2.6560	 5.3150
 2.6580	 5.4540
 2.6590	 5.3320
 2.6610	 5.2350
 2.6620	 5.1340
 2.6630	 4.9300
 2.6650	 4.7720
 2.6660	 4.9580
 2.6670	 5.0510
 2.6690	 4.9600
 2.6700	 4.7360
 2.6720	 4.5680
 2.6730	 4.5620
 2.6740	 4.6590
 2.6760	 4.5990
 2.6770	 4.5820
 2.6780	 4.4150
 2.6800	 4.3020
 2.6810	 4.2510
 2.6830	 4.2740
 2.6840	 4.1960
 2.6850	 4.1740
 2.6870	 4.2260
 2.6880	 4.1680
 2.6900	 3.7660
 2.6910	 3.6560
 2.6920	 3.7340
 2.6940	 3.7380
 2.6950	 3.7630
 2.6970	 3.8850
 2.6980	 3.9190
 2.6990	 3.9400
 2.7010	 4.0000
 2.7020	 3.7550
 2.7040	 3.5840
 2.7050	 3.7080
 2.7060	 3.5560
 2.7080	 3.5170
 2.7090	 3.5900
 2.7110	 3.6490
 2.7120	 3.5010
 2.7130	 3.5760
 2.7150	 3.6410
 2.7160	 3.5570
 2.7180	 3.5490
 2.7190	 3.6060
 2.7210	 3.3020
 2.7220	 3.3210
 2.7230	 3.4400
 2.7250	 3.6660
 2.7260	 3.6250
 2.7280	 3.4250
 2.7290	 3.5280
 2.7310	 3.4370
 2.7320	 3.2200
 2.7330	 3.3410
 2.7350	 3.3360
 2.7360	 3.4600
 2.7380	 3.2700
 2.7390	 3.2740
 2.7410	 3.6790
 2.7420	 4.0230
 2.7440	 3.9030
 2.7450	 3.6770
 2.7470	 3.3180
 2.7480	 3.4930
 2.7490	 4.0170
 2.7510	 4.2110
 2.7520	 3.5080
 2.7540	 3.1570
 2.7550	 3.1880
 2.7570	 3.6680
 2.7580	 3.4500
 2.7600	 3.2120
 2.7610	 3.5520
 2.7630	 3.6430
 2.7640	 3.1740
 2.7660	 3.0850
 2.7670	 3.6300
 2.7680	 3.8190
 2.7700	 3.7860
 2.7710	 4.1440
 2.7730	 3.9380
 2.7740	 3.5830
 2.7760	 3.3830
 2.7770	 3.4520
 2.7790	 3.6570
 2.7800	 3.8200
 2.7820	 3.7690
 2.7830	 3.6760
 2.7850	 3.4410
 2.7860	 3.5500
 2.7880	 3.8240
 2.7890	 3.6670
 2.7910	 3.4830
 2.7920	 3.7770
 2.7940	 3.9130
 2.7950	 3.6790
 2.7970	 3.4900
 2.7980	 3.6670
 2.8000	 3.8960
 2.8010	 3.8970
 2.8030	 3.6850
 2.8040	 3.9090
 2.8060	 4.1290
 2.8070	 4.1540
 2.8090	 3.8440
 2.8110	 3.8270
 2.8120	 3.8720
 2.8140	 3.9520
 2.8150	 3.8640
 2.8170	 3.9290
 2.8180	 3.8700
 2.8200	 3.7020
 2.8210	 3.6480
 2.8230	 3.8210
 2.8240	 3.9010
 2.8260	 3.8900
 2.8270	 3.8430
 2.8290	 4.0230
 2.8300	 4.0980
 2.8320	 3.9100
 2.8340	 3.8150
 2.8350	 4.2360
 2.8370	 4.2120
 2.8380	 4.1160
 2.8400	 4.0590
 2.8410	 4.0460
 2.8430	 3.7550
 2.8440	 3.6450
 2.8460	 3.7370
 2.8480	 3.8780
 2.8490	 3.8810
 2.8510	 3.9890
 2.8520	 3.8680
 2.8540	 3.7910
 2.8550	 3.8080
 2.8570	 4.0080
 2.8590	 3.9690
 2.8600	 4.0740
 2.8620	 4.0880
 2.8630	 4.1510
 2.8650	 4.0600
 2.8660	 4.0350
 2.8680	 4.1460
 2.8700	 4.3530
 2.8710	 4.3910
 2.8730	 4.2250
 2.8740	 4.0910
 2.8760	 4.5720
 2.8780	 4.6710
 2.8790	 4.6750
 2.8810	 4.5030
 2.8820	 4.2620
 2.8840	 4.0820
 2.8860	 4.0780
 2.8870	 3.9640
 2.8890	 3.7410
 2.8900	 3.7960
 2.8920	 4.0610
 2.8940	 4.1830
 2.8950	 4.3410
 2.8970	 4.1470
 2.8980	 4.0500
 2.9000	 4.0920
 2.9020	 4.0970
 2.9030	 3.9340
 2.9050	 3.9960
 2.9070	 4.0600
 2.9080	 4.0890
 2.9100	 3.9820
 2.9120	 4.1240
 2.9130	 4.1970
 2.9150	 4.2070
 2.9160	 3.9260
 2.9180	 3.9260
 2.9200	 4.2230
 2.9210	 4.4370
 2.9230	 4.3390
 2.9250	 4.0830
 2.9260	 3.9100
 2.9280	 4.2290
 2.9300	 4.3430
 2.9310	 4.2340
 2.9330	 3.9570
 2.9350	 3.7920
 2.9360	 3.8180
 2.9380	 4.1870
 2.9400	 4.5300
 2.9410	 4.7960
 2.9430	 4.3320
 2.9450	 3.9320
 2.9460	 3.8660
 2.9480	 4.2770
 2.9500	 4.8160
 2.9510	 4.5330
 2.9530	 4.1580
 2.9550	 3.8940
 2.9560	 4.0010
 2.9580	 4.7430
 2.9600	 4.6490
 2.9610	 4.6180
 2.9630	 5.2630
 2.9650	 5.0810
 2.9660	 4.9030
 2.9680	 5.9800
 2.9700	 4.7120
 2.9720	 3.4650
 2.9730	 4.0470
 2.9750	 4.3090
 2.9770	 4.8740
 2.9780	 5.6830
 2.9800	 4.5420
 2.9820	 3.7920
 2.9840	 3.5490
 2.9850	 2.4790
 2.9870	 2.6780
 2.9890	 4.2270
 2.9900	 4.2370
 2.9920	 2.3090
 2.9940	 0.3870
 2.9960	 1.3360
 2.9970	 3.3260
 2.9990	 5.3750
 3.0010	 5.6400
 3.0030	 4.0060
 3.0040	 4.0950
 3.0060	 4.3410
 3.0080	 3.8060
 3.0100	 3.6400
 3.0110	 3.3110
 3.0130	 5.0410
 3.0150	 3.9250
 3.0170	 2.9910
 3.0180	 4.9650
 3.0200	 4.6580
 3.0220	 3.7980
 3.0240	 3.8420
 3.0250	 4.4460
 3.0270	 4.2150
 3.0290	 3.9200
 3.0310	 3.6480
 3.0320	 4.1770
 3.0340	 4.0050
 3.0360	 2.7140
 3.0380	 3.3150
 3.0400	 4.8900
 3.0410	 5.3310
 3.0430	 4.5260
 3.0450	 4.3630
 3.0470	 6.0330
 3.0480	 5.6490
 3.0500	 4.0260
 3.0520	 5.0790
 3.0540	 3.7710
 3.0560	 2.3320
 3.0570	 6.1470
 3.0590	 6.4190
 3.0610	 4.2790
 3.0630	 4.3180
 3.0650	 4.0870
 3.0660	 3.2190
 3.0680	 4.3350
 3.0700	 5.0470
 3.0720	 4.5330
 3.0740	 3.9800
 3.0760	 3.6250
 3.0770	 3.7270
 3.0790	 3.7630
 3.0810	 3.9570
 3.0830	 3.7620
 3.0850	 3.6430
 3.0870	 3.6300
 3.0880	 3.6570
 3.0900	 3.6760
 3.0920	 3.7170
 3.0940	 3.6820
 3.0960	 3.3290
 3.0980	 3.3110
 3.0990	 3.7750
 3.1010	 3.9750
 3.1030	 3.7870
 3.1050	 3.9870
 3.1070	 4.4210
 3.1090	 4.1930
 3.1110	 4.2370
 3.1120	 4.4260
 3.1140	 4.5590
 3.1160	 4.1300
 3.1180	 3.4320
 3.1200	 2.9490
 3.1220	 2.9350
 3.1240	 3.1030
 3.1260	 3.4580
 3.1270	 3.5440
 3.1290	 3.3430
 3.1310	 3.5270
 3.1330	 3.9050
 3.1350	 4.4410
 3.1370	 3.9850
 3.1390	 3.4630
 3.1410	 2.8990
 3.1430	 2.7130
 3.1450	 2.9200
 3.1460	 4.6150
 3.1480	 5.0990
 3.1500	 3.2970
 3.1520	 4.4460
 3.1540	 3.6740
 3.1560	 2.7570
 3.1580	 4.4600
 3.1600	 5.3110
 3.1620	 4.3580
 3.1640	 3.9150
 3.1660	 4.2560
 3.1680	 2.8630
 3.1700	 2.4110
 3.1710	 5.2980
 3.1730	 6.8030
 3.1750	 5.3640
 3.1770	 4.5450
 3.1790	 5.3900
 3.1810	 5.8410
 3.1830	 6.0110
 3.1850	 4.3930
 3.1870	 2.6400
 3.1890	 2.4270
 3.1910	 3.2200
 3.1930	 3.4660
 3.1950	 3.4250
 3.1970	 3.2210
 3.1990	 3.2140
 3.2010	 3.4600
 3.2030	 3.5220
 3.2050	 3.1840
 3.2070	 3.1620
 3.2090	 3.2950
 3.2110	 3.4450
 3.2130	 3.1550
 3.2150	 2.8500
 3.2170	 2.9500
 3.2190	 3.1910
 3.2210	 3.1760
 3.2230	 3.2980
 3.2250	 3.3730
 3.2270	 3.3000
 3.2290	 3.2250
 3.2310	 3.0580
 3.2330	 2.8690
 3.2350	 3.2270
 3.2370	 3.2640
 3.2390	 3.1250
 3.2410	 2.9670
 3.2430	 2.9750
 3.2450	 2.9640
 3.2470	 2.7870
 3.2490	 2.5880
 3.2510	 2.7620
 3.2530	 2.9030
 3.2550	 2.9380
 3.2570	 3.0380
 3.2590	 3.0750
 3.2610	 3.0620
 3.2630	 3.3770
 3.2650	 3.0960
 3.2670	 3.0020
 3.2690	 2.8900
 3.2720	 2.8540
 3.2740	 3.2000
 3.2760	 3.3580
 3.2780	 3.0530
 3.2800	 3.1130
 3.2820	 3.3010
 3.2840	 3.1500
 3.2860	 2.9290
 3.2880	 2.9940
 3.2900	 2.7750
 3.2920	 2.8280
 3.2940	 3.1130
 3.2960	 3.0500
 3.2990	 3.1550
 3.3010	 3.3330
 3.3030	 3.2270
 3.3050	 2.9720
 3.3070	 2.8270
 3.3090	 3.0780
 3.3110	 3.2020
 3.3130	 3.0000
 3.3150	 2.8540
 3.3180	 2.9340
 3.3200	 2.7600
 3.3220	 2.7900
 3.3240	 2.9180
 3.3260	 3.0350
 3.3280	 3.1740
 3.3300	 3.1780
 3.3330	 2.9290
 3.3350	 2.7960
 3.3370	 2.6780
 3.3390	 2.7730
 3.3410	 2.6840
 3.3430	 2.7790
 3.3450	 2.7210
 3.3480	 2.7140
 3.3500	 2.6100
 3.3520	 2.7510
 3.3540	 2.6840
 3.3560	 2.6940
 3.3580	 2.8090
 3.3610	 2.8900
 3.3630	 2.7880
 3.3650	 2.8540
 3.3670	 2.7730
 3.3690	 2.8020
 3.3720	 2.8220
 3.3740	 2.8180
 3.3760	 2.6250
 3.3780	 2.6220
 3.3800	 2.6980
 3.3830	 2.8280
 3.3850	 2.8180
 3.3870	 2.8380
 3.3890	 2.9900
 3.3910	 3.1040
 3.3940	 2.8140
 3.3960	 2.6980
 3.3980	 2.5760
 3.4000	 2.6750
 3.4020	 2.8120
 3.4050	 2.7540
 3.4070	 2.7000
 3.4090	 2.7910
 3.4110	 2.7660
 3.4140	 3.0130
 3.4160	 3.1760
 3.4180	 3.2460
 3.4200	 3.2730
 3.4230	 3.4610
 3.4250	 3.5520
 3.4270	 3.6100
 3.4290	 3.6820
 3.4320	 3.7760
 3.4340	 3.5740
 3.4360	 3.3180
 3.4390	 3.2840
 3.4410	 3.3320
 3.4430	 3.3190
 3.4450	 3.4800
 3.4480	 3.6360
 3.4500	 3.7810
 3.4520	 3.6930
 3.4550	 3.2960
 3.4570	 3.3590
 3.4590	 3.4960
 3.4620	 3.1490
 3.4640	 3.3080
 3.4660	 3.5350
 3.4680	 3.6720
 3.4710	 3.4820
 3.4730	 3.2850
 3.4750	 3.2170
 3.4780	 3.1870
 3.4800	 3.2340
 3.4820	 3.3910
 3.4850	 3.3480
 3.4870	 3.2810
 3.4890	 3.1060
 3.4920	 3.1710
 3.4940	 3.1810
 3.4970	 3.2640
 3.4990	 3.3720
 3.5010	 3.5210
 3.5040	 3.5390
 3.5060	 3.5230
 3.5080	 3.7420
 3.5110	 3.9690
 3.5130	 3.6710
 3.5160	 3.5660
 3.5180	 3.5220
 3.5200	 3.4040
 3.5230	 3.2160
 3.5250	 3.3380
 3.5270	 3.5730
 3.5300	 3.7330
 3.5320	 3.6210
 3.5350	 3.6500
 3.5370	 3.6600
 3.5400	 3.6380
 3.5420	 3.4620
 3.5440	 3.4630
 3.5470	 3.4110
 3.5490	 3.4240
 3.5520	 3.3670
 3.5540	 3.4770
 3.5570	 3.6130
 3.5590	 3.4880
 3.5610	 3.3640
 3.5640	 3.3700
 3.5660	 3.3420
 3.5690	 3.2670
 3.5710	 3.1810
 3.5740	 3.2760
 3.5760	 3.5410
 3.5790	 3.6370
 3.5810	 3.5460
 3.5840	 3.6040
 3.5860	 3.5940
 3.5890	 3.4970
 3.5910	 3.4080
 3.5930	 3.3810
 3.5960	 3.4920
 3.5980	 3.5220
 3.6010	 3.5190
 3.6030	 3.8910
 3.6060	 3.9450
 3.6080	 3.5570
 3.6110	 3.1960
 3.6140	 3.2960
 3.6160	 3.5600
 3.6190	 3.5510
 3.6210	 3.3320
 3.6240	 3.3030
 3.6260	 3.3300
 3.6290	 3.4520
 3.6310	 3.5640
 3.6340	 3.5810
 3.6360	 3.4900
 3.6390	 3.5630
 3.6410	 3.5540
 3.6440	 3.5480
 3.6470	 3.6550
 3.6490	 3.6250
 3.6520	 3.5820
 3.6540	 3.6050
 3.6570	 3.6130
 3.6590	 3.7720
 3.6620	 3.6960
 3.6650	 3.5550
 3.6670	 3.5940
 3.6700	 3.6770
 3.6720	 3.5490
 3.6750	 3.5450
 3.6780	 3.6800
 3.6800	 3.7950
 3.6830	 3.8060
 3.6850	 3.7550
 3.6880	 3.7420
 3.6910	 3.7240
 3.6930	 3.6560
 3.6960	 3.6660
 3.6990	 3.7440
 3.7010	 3.6850
 3.7040	 3.7870
 3.7060	 3.8590
 3.7090	 3.7700
 3.7120	 3.6840
 3.7140	 3.6390
 3.7170	 3.7830
 3.7200	 3.8680
 3.7220	 3.9090
 3.7250	 4.0210
 3.7280	 4.1390
 3.7300	 4.0800
 3.7330	 4.0050
 3.7360	 3.9250
 3.7390	 3.8420
 3.7410	 3.7490
 3.7440	 3.9040
 3.7470	 4.0590
 3.7490	 4.0870
 3.7520	 3.9940
 3.7550	 4.0290
 3.7580	 4.0970
 3.7600	 4.1570
 3.7630	 4.1890
 3.7660	 4.1850
 3.7680	 4.0510
 3.7710	 3.9200
 3.7740	 3.8100
 3.7770	 3.8800
 3.7790	 4.0290
 3.7820	 4.1940
 3.7850	 4.1930
 3.7880	 4.3030
 3.7900	 4.3550
 3.7930	 4.3110
 3.7960	 4.1990
 3.7990	 4.2010
 3.8020	 4.3470
 3.8040	 4.5140
 3.8070	 4.6320
 3.8100	 4.5330
 3.8130	 4.3160
 3.8160	 4.2050
 3.8180	 4.2440
 3.8210	 4.4660
 3.8240	 4.3130
 3.8270	 4.2800
 3.8300	 4.3150
 3.8330	 4.3920
 3.8350	 4.4660
 3.8380	 4.4500
 3.8410	 4.3600
 3.8440	 4.2740
 3.8470	 4.2660
 3.8500	 4.4120
 3.8520	 4.5820
 3.8550	 4.4940
 3.8580	 4.4080
 3.8610	 4.5640
 3.8640	 4.6440
 3.8670	 4.5060
 3.8700	 4.4800
 3.8730	 4.5880
 3.8750	 4.5400
 3.8780	 4.5770
 3.8810	 4.6730
 3.8840	 4.7180
 3.8870	 4.5880
 3.8900	 4.5790
 3.8930	 4.5810
 3.8960	 4.6540
 3.8990	 4.8230
 3.9020	 4.9010
 3.9050	 4.8220
 3.9080	 4.8190
 3.9110	 4.5960
 3.9140	 4.5520
 3.9160	 4.6410
 3.9190	 4.7210
 3.9220	 4.7600
 3.9250	 4.7780
 3.9280	 4.6350
 3.9310	 4.6370
 3.9340	 4.6400
 3.9370	 4.7200
 3.9400	 4.7860
 3.9430	 4.7320
 3.9460	 4.7450
 3.9490	 4.7970
 3.9520	 4.6870
 3.9550	 4.6760
 3.9580	 4.6300
 3.9610	 4.5860
 3.9640	 4.6690
 3.9670	 4.8030
 3.9700	 4.7920
 3.9730	 4.7750
 3.9770	 4.7300
 3.9800	 4.7070
 3.9830	 4.7340
 3.9860	 4.6710
 3.9890	 4.5600
 3.9920	 4.6840
 3.9950	 4.8330
 3.9980	 4.7920
 4.0010	 4.6460
 4.0040	 4.7460
 4.0070	 4.7830
 4.0100	 4.7590
 4.0130	 4.7190
 4.0170	 4.7870
 4.0200	 4.8110
 4.0230	 4.7080
 4.0260	 4.6010
 4.0290	 4.7580
 4.0320	 4.8140
 4.0350	 4.6780
 4.0380	 4.6140
 4.0420	 4.6920
 4.0450	 4.6930
 4.0480	 4.5180
 4.0510	 4.5040
 4.0540	 4.7470
 4.0570	 4.7210
 4.0610	 4.4920
 4.0640	 4.5250
 4.0670	 4.7790
 4.0700	 4.7500
 4.0730	 4.6120
 4.0770	 4.5040
 4.0800	 4.5640
 4.0830	 4.6130
 4.0860	 4.6020
 4.0890	 4.5280
 4.0930	 4.4650
 4.0960	 4.4350
 4.0990	 4.6390
 4.1020	 4.7360
 4.1060	 4.5520
 4.1090	 4.4390
 4.1120	 4.4310
 4.1150	 4.5270
 4.1190	 4.5570
 4.1220	 4.4570
 4.1250	 4.4160
 4.1280	 4.4950
 4.1320	 4.4460
 4.1350	 4.4180
 4.1380	 4.5270
 4.1420	 4.5190
 4.1450	 4.4810
 4.1480	 4.4050
 4.1520	 4.3940
 4.1550	 4.4200
 4.1580	 4.4200
 4.1620	 4.4010
 4.1650	 4.3470
 4.1680	 4.2730
 4.1720	 4.2380
 4.1750	 4.3320
 4.1780	 4.3830
 4.1820	 4.2740
 4.1850	 4.2300
 4.1890	 4.1320
 4.1920	 4.1640
 4.1950	 4.3060
 4.1990	 4.4180
 4.2020	 4.4990
 4.2060	 4.4780
 4.2090	 4.3370
 4.2120	 4.3340
 4.2160	 4.4270
 4.2190	 4.1830
 4.2230	 4.3010
 4.2260	 4.9640
 4.2300	 4.6700
 4.2330	 4.1040
 4.2360	 3.9970
 4.2400	 4.0650
 4.2430	 3.8430
 4.2470	 3.8340
 4.2500	 4.1520
 4.2540	 4.2880
 4.2570	 4.0860
 4.2610	 3.7730
 4.2640	 3.7050
 4.2680	 3.9050
 4.2710	 4.1370
 4.2750	 4.1600
 4.2780	 4.0750
 4.2820	 4.2510
 4.2850	 4.2260
 4.2890	 4.0630
 4.2930	 3.8930
 4.2960	 3.8830
 4.3000	 3.9130
 4.3030	 3.8150
 4.3070	 3.7250
 4.3100	 3.7150
 4.3140	 3.7510
 4.3180	 3.7750
 4.3210	 3.7580
 4.3250	 3.8480
 4.3280	 3.7490
 4.3320	 3.6600
 4.3360	 3.6340
 4.3390	 3.5770
 4.3430	 3.5920
 4.3470	 3.6690
 4.3500	 3.6950
 4.3540	 3.7640
 4.3570	 3.7430
 4.3610	 3.6680
 4.3650	 3.6390
 4.3680	 3.6620
 4.3720	 3.6750
 4.3760	 3.6690
 4.3800	 3.7290
 4.3830	 3.7760
 4.3870	 3.5550
 4.3910	 3.4550
 4.3940	 3.5100
 4.3980	 3.5780
 4.4020	 3.5400
 4.4060	 3.5550
 4.4090	 3.4910
 4.4130	 3.4830
 4.4170	 3.5410
 4.4210	 3.4480
 4.4240	 3.4300
 4.4280	 3.4510
 4.4320	 3.4430
 4.4360	 3.5770
 4.4400	 3.5800
 4.4430	 3.4480
 4.4470	 3.3620
 4.4510	 3.4790
 4.4550	 3.5420
 4.4590	 3.4210
 4.4620	 3.3790
 4.4660	 3.4310
 4.4700	 3.4400
 4.4740	 3.4280
 4.4780	 3.3930
 4.4820	 3.3700
 4.4860	 3.3030
 4.4900	 3.1900
 4.4930	 3.2120
 4.4970	 3.3430
 4.5010	 3.3680
 4.5050	 3.3560
 4.5090	 3.3000
 4.5130	 3.2600
 4.5170	 3.2560
 4.5210	 3.2210
 4.5250	 3.2230
 4.5290	 3.3150
 4.5330	 3.2990
 4.5370	 3.2400
 4.5410	 3.2200
 4.5450	 3.1680
 4.5490	 3.2390
 4.5530	 3.3940
 4.5570	 3.4680
 4.5610	 3.3930
 4.5650	 3.4290
 4.5690	 3.4160
 4.5730	 3.3540
 4.5770	 3.2540
 4.5810	 3.2330
 4.5850	 3.0790
 4.5890	 3.1550
 4.5930	 3.3600
 4.5970	 3.2700
 4.6010	 3.1710
 4.6050	 3.2630
 4.6090	 3.1620
 4.6130	 3.1230
 4.6170	 2.9760
 4.6220	 2.9820
 4.6260	 3.1130
 4.6300	 3.1250
 4.6340	 3.2510
 4.6380	 3.2230
 4.6420	 3.1980
 4.6460	 3.2090
 4.6510	 3.2830
 4.6550	 3.1780
 4.6590	 3.0400
 4.6630	 3.2130
 4.6670	 3.3180
 4.6720	 3.3830
 4.6760	 3.3260
 4.6800	 3.2010
 4.6840	 3.2610
 4.6880	 3.4450
 4.6930	 3.4230
 4.6970	 3.3240
 4.7010	 3.3340
 4.7050	 3.2170
 4.7100	 3.2160
 4.7140	 3.2660
 4.7180	 3.1660
 4.7230	 3.1110
 4.7270	 3.2550
 4.7310	 3.2800
 4.7360	 3.1870
 4.7400	 3.1730
 4.7440	 3.2110
 4.7490	 3.2750
 4.7530	 3.2380
 4.7570	 3.1010
 4.7620	 3.0420
 4.7660	 3.1520
 4.7700	 3.3150
 4.7750	 3.3820
 4.7790	 3.2720
 4.7840	 3.3400
 4.7880	 3.5820
 4.7920	 3.3550
 4.7970	 3.0640
 4.8010	 3.0540
 4.8060	 3.1950
 4.8100	 3.3170
 4.8150	 3.3080
 4.8190	 3.2470
 4.8240	 3.3450
 4.8280	 3.3160
 4.8330	 3.3370
 4.8370	 3.3940
 4.8420	 3.3630
 4.8460	 3.3420
 4.8510	 3.3540
 4.8550	 3.3940
 4.8600	 3.3920
 4.8640	 3.4100
 4.8690	 3.4220
 4.8730	 3.3540
 4.8780	 3.3620
 4.8830	 3.4220
 4.8870	 3.3430
 4.8920	 3.2880
 4.8960	 3.4450
 4.9010	 3.4690
 4.9060	 3.3740
 4.9100	 3.3770
 4.9150	 3.4480
 4.9200	 3.4530
 4.9240	 3.4210
 4.9290	 3.4050
 4.9340	 3.3510
 4.9380	 3.3560
 4.9430	 3.3190
 4.9480	 3.3420
 4.9530	 3.5200
 4.9570	 3.5210
 4.9620	 3.4340
 4.9670	 3.4400
 4.9720	 3.4830
 4.9760	 3.5070
 4.9810	 3.4530
 4.9860	 3.5850
 4.9910	 3.6650
 4.9960	 3.6470
 5.0000	 3.5660
 5.0050	 3.5300
 5.0100	 3.4850
 5.0150	 3.5220
 5.0200	 3.5580
 5.0250	 3.5440
 5.0290	 3.5680
 5.0340	 3.6490
 5.0390	 3.6770
 5.0440	 3.6490
 5.0490	 3.6720
 5.0540	 3.6850
 5.0590	 3.6170
 5.0640	 3.6310
 5.0690	 3.6170
 5.0740	 3.6410
 5.0790	 3.6700
 5.0840	 3.7540
 5.0890	 3.7700
 5.0940	 3.7800
 5.0990	 3.8150
 5.1040	 3.8880
 5.1090	 3.8550
 5.1140	 3.7540
 5.1190	 3.8090
 5.1240	 3.8760
 5.1290	 3.7400
 5.1340	 3.6800
 5.1390	 3.7610
 5.1440	 3.9260
 5.1490	 3.9170
 5.1540	 3.8760
 5.1600	 3.9390
 5.1650	 3.9940
 5.1700	 4.0390
 5.1750	 3.9690
 5.1800	 3.8670
 5.1850	 3.9350
 5.1910	 3.9500
 5.1960	 4.0670
 5.2010	 4.0600
 5.2060	 4.0100
 5.2110	 4.0370
 5.2170	 3.9710
 5.2220	 3.8620
 5.2270	 4.0420
 5.2320	 4.1470
 5.2380	 3.9920
 5.2430	 3.9090
 5.2480	 4.0080
 5.2540	 4.0010
 5.2590	 3.9830
 5.2640	 3.9680
 5.2700	 4.0190
 5.2750	 4.0480
 5.2800	 4.0650
 5.2860	 4.0010
 5.2910	 3.9970
 5.2970	 4.0040
 5.3020	 4.0410
 5.3070	 4.0080
 5.3130	 4.0490
 5.3180	 4.1090
 5.3240	 4.1220
 5.3290	 4.1690
 5.3350	 4.1990
 5.3400	 4.1500
 5.3460	 4.1120
 5.3510	 4.0790
 5.3570	 4.0750
 5.3620	 4.0790
 5.3680	 4.0890
 5.3730	 4.0430
 5.3790	 4.0430
 5.3850	 4.0410
 5.3900	 4.0500
 5.3960	 4.1360
 5.4010	 4.1340
 5.4070	 4.0150
 5.4130	 3.8720
 5.4180	 3.9410
 5.4240	 4.1450
 5.4300	 4.0470
 5.4350	 3.9870
 5.4410	 4.0070
 5.4470	 4.0690
 5.4530	 4.0100
 5.4580	 3.8950
 5.4640	 3.9290
 5.4700	 3.9860
 5.4760	 3.9280
 5.4810	 3.9670
 5.4870	 3.9240
 5.4930	 3.8680
 5.4990	 3.8770
 5.5050	 3.8880
 5.5110	 3.8330
 5.5160	 3.8660
 5.5220	 3.8760
 5.5280	 3.8810
 5.5340	 3.8520
 5.5400	 3.8830
 5.5460	 3.9100
 5.5520	 3.8840
 5.5580	 3.7700
 5.5640	 3.6760
 5.5700	 3.6410
 5.5760	 3.7610
 5.5820	 3.7870
 5.5880	 3.7320
 5.5940	 3.6850
 5.6000	 3.6910
 5.6060	 3.6370
 5.6120	 3.6940
 5.6180	 3.6350
 5.6240	 3.5240
 5.6300	 3.5140
 5.6360	 3.6330
 5.6420	 3.6450
 5.6490	 3.5600
 5.6550	 3.5410
 5.6610	 3.5380
 5.6670	 3.4600
 5.6730	 3.3070
 5.6800	 3.2370
 5.6860	 3.2500
 5.6920	 3.2390
 5.6980	 3.1860
 5.7040	 3.1240
 5.7110	 3.2050
 5.7170	 3.0910
 5.7230	 2.9550
 5.7300	 2.9320
 5.7360	 2.9050
 5.7420	 2.8610
 5.7490	 3.0110
 5.7550	 3.0260
 5.7620	 3.0850
 5.7680	 3.1300
 5.7740	 3.2790
 5.7810	 3.5660
 5.7870	 3.7760
 5.7940	 3.7710
 5.8000	 3.9170
 5.8070	 4.0610
 5.8130	 4.1080
 5.8200	 4.0560
 5.8260	 4.1090
 5.8330	 4.0950
 5.8390	 4.0160
 5.8460	 4.0610
 5.8530	 4.1980
 5.8590	 4.3040
 5.8660	 4.3570
 5.8720	 4.2190
 5.8790	 4.0680
 5.8860	 4.0020
 5.8920	 4.0930
 5.8990	 4.2000
 5.9060	 4.3560
 5.9130	 4.4690
 5.9190	 4.6590
 5.9260	 4.7380
 5.9330	 4.9020
 5.9400	 5.1160
 5.9470	 5.4190
 5.9530	 5.4070
 5.9600	 5.3680
 5.9670	 5.3550
 5.9740	 5.3910
 5.9810	 5.2550
 5.9880	 5.1170
 5.9950	 5.0140
 6.0020	 5.1280
 6.0090	 5.1170
 6.0160	 5.1640
 6.0230	 5.0610
 6.0300	 4.9910
 6.0370	 4.8960
 6.0440	 4.9160
 6.0510	 4.7810
 6.0580	 4.7140
 6.0650	 4.7380
 6.0720	 4.7140
 6.0790	 4.5130
 6.0860	 4.4680
 6.0930	 4.5220
 6.1000	 4.5570
 6.1080	 4.4880
 6.1150	 4.5030
 6.1220	 4.5340
 6.1290	 4.4520
 6.1370	 4.3290
 6.1440	 4.4080
 6.1510	 4.2900
 6.1580	 4.1820
 6.1660	 4.1020
 6.1730	 4.1420
 6.1800	 3.9690
 6.1880	 3.8530
 6.1950	 3.8310
 6.2030	 3.7950
 6.2100	 3.7830
 6.2170	 3.8800
 6.2250	 3.8310
 6.2320	 3.8520
 6.2400	 3.8300
 6.2470	 3.8570
 6.2550	 3.8430
 6.2630	 3.7280
 6.2700	 3.5170
 6.2780	 3.4110
 6.2850	 3.3100
 6.2930	 3.4410
 6.3010	 3.4840
 6.3080	 3.4420
 6.3160	 3.3760
 6.3240	 3.5730
 6.3310	 3.4450
 6.3390	 3.3820
 6.3470	 3.4210
 6.3550	 3.5370
 6.3620	 3.4340
 6.3700	 3.4120
 6.3780	 3.3860
 6.3860	 3.3300
 6.3940	 3.2860
 6.4020	 3.3950
 6.4100	 3.3560
 6.4180	 3.2930
 6.4260	 3.4200
 6.4330	 3.4670
 6.4410	 3.3560
 6.4490	 3.4210
 6.4580	 3.4030
 6.4660	 3.3610
 6.4740	 3.3110
 6.4820	 3.3100
 6.4900	 3.2760
 6.4980	 3.4060
 6.5060	 3.4700
 6.5140	 3.4480
 6.5230	 3.3150
 6.5310	 3.3880
 6.5390	 3.4100
 6.5470	 3.3540
 6.5550	 3.4000
 6.5640	 3.5600
 6.5720	 3.4240
 6.5800	 3.3530
 6.5890	 3.3660
 6.5970	 3.5080
 6.6060	 3.5130
 6.6140	 3.5090
 6.6220	 3.4620
 6.6310	 3.6450
 6.6390	 3.7490
 6.6480	 3.6880
 6.6560	 3.6140
 6.6650	 3.6740
 6.6740	 3.5820
 6.6820	 3.5010
 6.6910	 3.3870
 6.6990	 3.5340
 6.7080	 3.4660
 6.7170	 3.4830
 6.7260	 3.4960
 6.7340	 3.4840
 6.7430	 3.3740
 6.7520	 3.3620
 6.7610	 3.2670
 6.7690	 3.3200
 6.7780	 3.4020
 6.7870	 3.4340
 6.7960	 3.3700
 6.8050	 3.3360
 6.8140	 3.3460
 6.8230	 3.6040
 6.8320	 3.7330
 6.8410	 3.8340
 6.8500	 3.7790
 6.8590	 3.8820
 6.8680	 4.0720
 6.8770	 4.1510
 6.8860	 4.1070
 6.8950	 4.2290
 6.9050	 4.0790
 6.9140	 4.0180
 6.9230	 4.1200
 6.9320	 4.4230
 6.9420	 4.2410
 6.9510	 3.9810
 6.9600	 3.9110
 6.9700	 4.0010
 6.9790	 4.0280
 6.9880	 4.0180
 6.9980	 3.9160
 7.0070	 4.1040
 7.0170	 3.9020
 7.0260	 3.7470
 7.0360	 3.6860
 7.0450	 3.7390
 7.0550	 3.7310
 7.0650	 3.7350
 7.0740	 3.5410
 7.0840	 3.5310
 7.0940	 3.5940
 7.1030	 3.6440
 7.1130	 3.4850
 7.1230	 3.5750
 7.1330	 3.5480
 7.1420	 3.5320
 7.1520	 3.4590
 7.1620	 3.5380
 7.1720	 3.5900
 7.1820	 3.7050
 7.1920	 3.7670
 7.2020	 3.8160
 7.2120	 3.7530
 7.2220	 3.7230
 7.2320	 3.4820
 7.2420	 3.6310
 7.2520	 3.6070
 7.2620	 3.7730
 7.2730	 3.8660
 7.2830	 3.8390
 7.2930	 3.7180
 7.3030	 3.8640
 7.3140	 3.8160
 7.3240	 3.7270
 7.3340	 3.5700
 7.3450	 3.7630
 7.3550	 3.8740
 7.3660	 3.9970
 7.3760	 3.9930
 7.3870	 3.9890
 7.3970	 3.7570
 7.4080	 3.7600
 7.4180	 3.8590
 7.4290	 3.8440
 7.4400	 3.7460
 7.4500	 3.8220
 7.4610	 3.7770
 7.4720	 3.8500
 7.4830	 3.7540
 7.4930	 3.7130
 7.5040	 3.6070
 7.5150	 3.6990
 7.5260	 3.6880
 7.5370	 3.8110
 7.5480	 3.6830
 7.5590	 3.6420
 7.5700	 3.6660
 7.5810	 3.8260
 7.5920	 3.7400
 7.6030	 3.7670
 7.6140	 3.6780
 7.6260	 3.7320
 7.6370	 3.7640
 7.6480	 3.7860
 7.6590	 3.7110
 7.6710	 3.6890
 7.6820	 3.5140
 7.6930	 3.7450
 7.7050	 3.8690
 7.7160	 3.8260
 7.7280	 3.5830
 7.7390	 3.5990
 7.7510	 3.5270
 7.7630	 3.5580
 7.7740	 3.5030
 7.7860	 3.6990
 7.7980	 3.8040
 7.8090	 3.7570
 7.8210	 3.7650
 7.8330	 3.8900
 7.8450	 3.8010
 7.8570	 3.8280
 7.8690	 3.8290
 7.8810	 4.0270
 7.8930	 3.9930
 7.9050	 3.9860
 7.9170	 3.8140
 7.9290	 3.8500
 7.9410	 3.8540
 7.9530	 4.1070
 7.9650	 4.0270
 7.9780	 4.0210
 7.9900	 3.9650
 8.0020	 4.0200
 8.0150	 3.8790
 8.0270	 3.7860
 8.0390	 3.8730
 8.0520	 4.0500
 8.0640	 4.0760
 8.0770	 4.1710
 8.0900	 4.0230
 8.1020	 4.2670
 8.1150	 4.4320
 8.1280	 4.3710
 8.1400	 4.1600
 8.1530	 4.2810
 8.1660	 4.0370
 8.1790	 4.1340
 8.1920	 4.0900
 8.2050	 4.0630
 8.2180	 3.9280
 8.2310	 4.1620
 8.2440	 4.3110
 8.2570	 4.5030
 8.2700	 4.4290
 8.2830	 4.4440
 8.2970	 4.2790
 8.3100	 4.3650
 8.3230	 4.3640
 8.3370	 4.5440
 8.3500	 4.3070
 8.3640	 4.4820
 8.3770	 4.6300
 8.3910	 4.7000
 8.4040	 4.5560
 8.4180	 4.7340
 8.4320	 4.7660
 8.4450	 4.8920
 8.4590	 4.8080
 8.4730	 5.0280
 8.4870	 5.0650
 8.5010	 5.3310
 8.5150	 5.5040
 8.5290	 5.8010
 8.5430	 5.7960
 8.5570	 6.0600
 8.5710	 6.1060
 8.5850	 6.3030
 8.5990	 6.2700
 8.6140	 6.2820
 8.6280	 6.0700
 8.6420	 6.0230
 8.6570	 5.8700
 8.6710	 5.7860
 8.6860	 5.3950
 8.7000	 5.4660
 8.7150	 5.3750
 8.7300	 5.3160
 8.7440	 5.1570
 8.7590	 5.3490
 8.7740	 5.1520
 8.7890	 5.2830
 8.8040	 5.1260
 8.8190	 5.1760
 8.8340	 5.2370
 8.8490	 5.5000
 8.8640	 5.6540
 8.8790	 5.9570
 8.8940	 5.6970
 8.9100	 5.6800
 8.9250	 5.5840
 8.9400	 5.5380
 8.9560	 5.2440
 8.9710	 5.3790
 8.9870	 5.1140
 9.0020	 4.9910
 9.0180	 4.7980
 9.0340	 4.7670
 9.0500	 4.4520
 9.0650	 4.4800
 9.0810	 4.1640
 9.0970	 4.3000
 9.1130	 4.3490
 9.1290	 4.2230
 9.1450	 3.9530
 9.1610	 4.2800
 9.1780	 4.3490
 9.1940	 4.5260
 9.2100	 4.6760
 9.2270	 4.7570
 9.2430	 4.4380
 9.2600	 4.5000
 9.2760	 4.2870
 9.2930	 4.5980
 9.3090	 4.9310
 9.3260	 5.0980
 9.3430	 4.6360
 9.3600	 4.6750
 9.3770	 4.5360
 9.3940	 4.5920
 9.4110	 4.5250
 9.4280	 4.7950
 9.4450	 4.5010
 9.4620	 4.4500
 9.4800	 4.3690
 9.4970	 4.4270
 9.5140	 4.0120
 9.5320	 4.1270
 9.5500	 4.0440
 9.5670	 4.0090
 9.5850	 4.0850
 9.6030	 4.2910
 9.6200	 4.1470
 9.6380	 4.2750
 9.6560	 4.0540
 9.6740	 4.0090
 9.6920	 3.8000
 9.7100	 3.8870
 9.7290	 3.6560
 9.7470	 3.6500
 9.7650	 3.3970
 9.7840	 3.6460
 9.8020	 3.5650
 9.8210	 3.1930
 9.8390	 2.6820
 9.8580	 2.9130
 9.8770	 2.7710
 9.8960	 2.9150
 9.9150	 2.9250
 9.9340	 3.0640
 9.9530	 2.6710
 9.9720	 2.8110
 9.9910	 2.8930
10.0100	 3.2090
10.0300	 3.1690
10.0490	 3.3050
10.0690	 3.2190
10.0880	 3.3060
10.1080	 3.3160
10.1280	 3.3920
10.1480	 3.1630
10.1670	 3.3920
10.1870	 3.2990
10.2070	 3.4220
10.2280	 3.2020
10.2480	 3.1340
10.2680	 3.1200
10.2890	 3.3090
10.3090	 3.2560
10.3300	 3.3610
10.3500	 3.2930
10.3710	 3.3130
10.3920	 3.0260
10.4120	 3.2080
10.4330	 2.9040
10.4540	 2.7810
10.4760	 2.6090
10.4970	 2.9030
10.5180	 2.9110
10.5390	 3.2310
10.5610	 3.2870
10.5820	 3.3860
10.6040	 3.1750
10.6260	 3.3440
10.6480	 3.2360
10.6700	 3.3230
10.6920	 3.2830
10.7140	 3.4160
10.7360	 3.1320
10.7580	 3.2910
10.7800	 3.1760
10.8030	 3.4830
10.8250	 3.2520
10.8480	 3.2630
10.8710	 3.1430
10.8940	 3.3450
10.9170	 3.0890
10.9400	 3.2300
10.9630	 3.2000
10.9860	 3.2570
11.0090	 3.0030
11.0330	 3.2850
11.0560	 3.2540
11.0800	 3.3730
11.1040	 3.1500
11.1270	 3.2990
11.1510	 3.2820
11.1750	 3.4020
11.2000	 3.2430
11.2240	 3.4720
11.2480	 3.2450
11.2730	 3.8840
11.2970	 4.3750
11.3220	 3.6230
11.3470	 2.8490
11.3720	 3.2090
11.3970	 3.1580
11.4220	 3.2440
11.4470	 3.1080
11.4720	 3.3220
11.4980	 3.1420
11.5230	 3.3630
11.5490	 3.1820
11.5750	 3.1420
11.6000	 2.8880
11.6260	 3.0520
11.6530	 2.8450
11.6790	 2.9930
11.7050	 2.7960
11.7320	 3.1610
11.7580	 2.9910
11.7850	 2.9290
11.8120	 2.5510
11.8390	 2.8330
11.8660	 2.7240
11.8930	 2.5110
11.9200	 2.4060
11.9480	 2.8830
11.9760	 2.8810
12.0030	 2.9670
12.0310	 2.5930
12.0590	 2.8440
12.0870	 2.6660
12.1150	 2.7600
12.1440	 2.4280
12.1720	 2.7790
12.2010	 2.5500
12.2300	 2.6950
12.2590	 2.4160
12.2880	 2.6410
12.3170	 2.2930
12.3460	 2.3050
12.3760	 2.3280
12.4050	 2.8890
12.4350	 2.8930
12.4650	 3.0240
12.4950	 2.8440
12.5250	 3.0620
12.5550	 2.5710
12.5860	 2.6490
12.6170	 2.3970
12.6470	 2.6710
12.6780	 2.5990
12.7090	 2.7560
12.7410	 2.5380
12.7720	 2.8140
12.8030	 2.4510
12.8350	 2.4740
12.8670	 2.1390
12.8990	 2.4350
12.9310	 2.1970
12.9640	 2.2230
12.9960	 1.8880
13.0290	 2.2700
13.0610	 2.2860
13.0940	 2.7630
13.1280	 2.3300
13.1610	 2.2170
13.1940	 1.9510
13.2280	 2.3620
13.2620	 1.8580
13.2960	 1.9170
13.3300	 1.4460
13.3640	 1.7710
13.3990	 1.6330
13.4340	 1.9030
13.4690	 1.6380
13.5040	 1.9660
13.5390	 1.9910
13.5740	 2.2590
13.6100	 1.9460
13.6460	 2.3240
13.6820	 2.0980
13.7180	 1.8040
13.7540	 1.1260
13.7910	 1.7890
13.8280	 1.9700
13.8650	 2.5450
13.9020	 2.0430
13.9390	 1.8400
13.9770	 1.5830
14.0150	 2.0850
14.0530	 1.6090
14.0910	 1.7070
14.1290	 1.2710
14.1680	 1.5710
14.2070	 1.4350
14.2460	 2.2280
14.2850	 1.6880
14.3240	 1.7450
14.3640	 1.3600
14.4040	 1.5390
14.4440	 0.7870
14.4840	 1.6580
14.5250	 1.7800
14.5660	 2.0410
14.6070	 1.7760
14.6480	 2.8410
14.6900	 1.7150
14.7310	 1.8650
14.7730	 1.1540
14.8150	 2.0760
14.8580	 1.6210
14.9010	 2.2330
14.9440	 1.4340
14.9870	 1.7960
15.0300	 0.8770
15.0740	 1.3700
15.1180	 1.0570
15.1620	 1.9650
15.2060	 1.4240
15.2510	 2.2810
15.2960	 1.8870
15.3410	 2.4540
15.3870	 2.0280
