Name: Quercus lobata 2
Type: vegetation
Class: Tree
Genus: Quercus
Species: lobata
Sample No.: VH283
Owner: UCSB
Wavelength Range: TIR
Origin: 34.7146; -120.0588; WGS84
Collection Date: 11/2/2013
Description: Samples were collected as part of the HyspIRI Airborne Campaign. 48 individual plants were sampled in three times in 2013 - spring  summer  and fall. The name of the sample includes a 1  2  or 3 which references a different individual of the species. Samples were taken to JPL and processed within 48 hours of collection. The same leaves were processed in the Nicolet and then measured using the ASD.
Measurement: Hemispherical reflectance
First Column: X
Second Column: Y
X Units: Wavelength (micrometers)
Y Units: Reflectance (percentage)
First X Value: 2.501
Last X Value: 15.387
Number of X Values: 1737
Additional Information: vegetation.tree.quercus.lobata.tir.vh283.ucsb.nicolet.ancillary.txt

 2.5010	 9.7870
 2.5030	 9.7350
 2.5040	 9.7470
 2.5050	 9.6910
 2.5060	 9.7030
 2.5070	 9.7600
 2.5090	 9.7420
 2.5100	 9.6260
 2.5110	 9.6870
 2.5120	 9.7500
 2.5140	 9.8070
 2.5150	 9.7340
 2.5160	 9.6360
 2.5170	 9.6240
 2.5180	 9.6020
 2.5200	 9.6490
 2.5210	 9.6860
 2.5220	 9.8250
 2.5230	 9.8490
 2.5250	 9.7500
 2.5260	 9.5160
 2.5270	 9.4690
 2.5280	 9.6610
 2.5290	 9.8050
 2.5310	 9.6720
 2.5320	 9.4570
 2.5330	 9.5250
 2.5340	 9.6270
 2.5360	 9.6140
 2.5370	 9.6630
 2.5380	 9.6090
 2.5390	 9.4740
 2.5410	 9.4430
 2.5420	 9.5780
 2.5430	 9.5940
 2.5440	 9.7290
 2.5460	 9.9180
 2.5470	 9.7910
 2.5480	 9.7710
 2.5490	 9.8130
 2.5510	 9.6990
 2.5520	 9.6680
 2.5530	 9.7980
 2.5540	 9.6660
 2.5560	 9.6780
 2.5570	 9.7200
 2.5580	 9.7130
 2.5590	 9.7150
 2.5610	 9.7840
 2.5620	 9.8500
 2.5630	 9.7770
 2.5640	 9.6810
 2.5660	 9.6590
 2.5670	 9.5060
 2.5680	 9.5760
 2.5700	 9.7170
 2.5710	 9.7960
 2.5720	 9.7910
 2.5730	 9.8130
 2.5750	 9.7170
 2.5760	 9.8260
 2.5770	 9.9320
 2.5790	 9.7550
 2.5800	 9.5530
 2.5810	 9.5590
 2.5820	 9.5710
 2.5840	 9.6800
 2.5850	 9.7110
 2.5860	 9.6700
 2.5880	 9.6270
 2.5890	 9.5890
 2.5900	 9.6920
 2.5910	 9.7090
 2.5930	 9.6900
 2.5940	 9.5480
 2.5950	 9.3600
 2.5970	 9.4870
 2.5980	 9.7170
 2.5990	 9.6200
 2.6000	 9.4420
 2.6020	 9.4890
 2.6030	 9.4070
 2.6040	 9.3360
 2.6060	 9.4240
 2.6070	 9.4010
 2.6080	 9.2080
 2.6100	 9.1600
 2.6110	 9.1580
 2.6120	 9.2540
 2.6140	 9.4170
 2.6150	 9.4380
 2.6160	 9.2140
 2.6180	 9.0490
 2.6190	 9.0960
 2.6200	 9.1190
 2.6220	 8.9040
 2.6230	 8.9770
 2.6240	 9.1420
 2.6260	 9.0360
 2.6270	 9.0420
 2.6280	 9.0010
 2.6300	 8.8190
 2.6310	 8.8660
 2.6320	 8.8460
 2.6340	 8.8490
 2.6350	 8.7520
 2.6360	 8.6320
 2.6380	 8.6620
 2.6390	 8.6130
 2.6400	 8.6730
 2.6420	 8.8780
 2.6430	 8.8030
 2.6440	 8.6030
 2.6460	 8.4330
 2.6470	 8.4590
 2.6480	 8.5370
 2.6500	 8.5790
 2.6510	 8.5180
 2.6520	 8.5870
 2.6540	 8.4860
 2.6550	 8.3440
 2.6560	 8.4060
 2.6580	 8.3270
 2.6590	 8.2420
 2.6610	 8.2710
 2.6620	 8.3050
 2.6630	 8.3600
 2.6650	 8.2760
 2.6660	 8.0600
 2.6670	 8.1600
 2.6690	 8.3800
 2.6700	 8.3070
 2.6720	 8.1080
 2.6730	 8.0310
 2.6740	 8.1250
 2.6760	 8.2120
 2.6770	 8.1580
 2.6780	 8.0630
 2.6800	 7.9840
 2.6810	 8.1450
 2.6830	 8.1850
 2.6840	 8.0360
 2.6850	 7.9280
 2.6870	 7.7610
 2.6880	 7.6420
 2.6900	 7.5420
 2.6910	 7.5890
 2.6920	 7.4270
 2.6940	 7.3750
 2.6950	 7.4350
 2.6970	 7.5140
 2.6980	 7.5080
 2.6990	 7.4910
 2.7010	 7.1830
 2.7020	 6.9810
 2.7040	 6.9160
 2.7050	 7.0070
 2.7060	 7.1130
 2.7080	 7.1460
 2.7090	 7.0850
 2.7110	 7.0480
 2.7120	 6.9680
 2.7130	 6.9180
 2.7150	 6.7870
 2.7160	 6.7150
 2.7180	 6.5940
 2.7190	 6.4680
 2.7210	 6.3620
 2.7220	 6.3880
 2.7230	 6.5770
 2.7250	 6.4580
 2.7260	 6.2340
 2.7280	 6.3010
 2.7290	 6.3040
 2.7310	 6.2110
 2.7320	 6.1680
 2.7330	 6.1310
 2.7350	 6.0360
 2.7360	 5.8700
 2.7380	 5.8560
 2.7390	 5.9200
 2.7410	 5.6210
 2.7420	 5.5610
 2.7440	 5.6530
 2.7450	 5.7180
 2.7470	 5.5160
 2.7480	 5.2960
 2.7490	 5.1740
 2.7510	 5.4180
 2.7520	 5.6490
 2.7540	 5.5550
 2.7550	 5.3580
 2.7570	 5.2850
 2.7580	 5.4050
 2.7600	 5.3440
 2.7610	 5.1470
 2.7630	 5.1550
 2.7640	 4.9670
 2.7660	 4.9890
 2.7670	 5.2680
 2.7680	 5.4450
 2.7700	 5.1500
 2.7710	 4.9190
 2.7730	 4.8330
 2.7740	 4.8800
 2.7760	 4.8370
 2.7770	 4.8310
 2.7790	 4.8190
 2.7800	 4.7590
 2.7820	 4.7030
 2.7830	 4.7550
 2.7850	 4.8290
 2.7860	 4.8850
 2.7880	 4.8890
 2.7890	 4.8500
 2.7910	 4.7520
 2.7920	 4.7350
 2.7940	 4.7290
 2.7950	 4.7610
 2.7970	 4.7450
 2.7980	 4.7340
 2.8000	 4.7910
 2.8010	 4.8250
 2.8030	 4.6690
 2.8040	 4.6520
 2.8060	 4.7660
 2.8070	 4.8230
 2.8090	 4.7040
 2.8110	 4.5500
 2.8120	 4.5800
 2.8140	 4.5030
 2.8150	 4.3490
 2.8170	 4.4620
 2.8180	 4.6340
 2.8200	 4.6260
 2.8210	 4.4980
 2.8230	 4.4840
 2.8240	 4.4630
 2.8260	 4.4540
 2.8270	 4.5060
 2.8290	 4.5140
 2.8300	 4.2760
 2.8320	 4.2610
 2.8340	 4.4060
 2.8350	 4.5800
 2.8370	 4.6500
 2.8380	 4.5420
 2.8400	 4.3510
 2.8410	 4.4300
 2.8430	 4.5150
 2.8440	 4.5920
 2.8460	 4.5570
 2.8480	 4.4370
 2.8490	 4.4110
 2.8510	 4.2560
 2.8520	 4.3090
 2.8540	 4.4440
 2.8550	 4.4470
 2.8570	 4.4980
 2.8590	 4.4940
 2.8600	 4.4880
 2.8620	 4.4000
 2.8630	 4.3130
 2.8650	 4.2940
 2.8660	 4.3360
 2.8680	 4.3410
 2.8700	 4.2850
 2.8710	 4.3780
 2.8730	 4.5080
 2.8740	 4.4630
 2.8760	 4.2890
 2.8780	 4.3140
 2.8790	 4.5790
 2.8810	 4.5810
 2.8820	 4.2680
 2.8840	 4.1780
 2.8860	 4.0900
 2.8870	 4.0050
 2.8890	 4.1500
 2.8900	 4.2920
 2.8920	 4.2290
 2.8940	 4.3310
 2.8950	 4.4290
 2.8970	 4.4290
 2.8980	 4.4650
 2.9000	 4.3820
 2.9020	 4.2210
 2.9030	 4.1260
 2.9050	 4.2230
 2.9070	 4.1790
 2.9080	 4.0760
 2.9100	 4.0240
 2.9120	 4.1870
 2.9130	 4.1950
 2.9150	 4.2160
 2.9160	 4.2680
 2.9180	 4.3670
 2.9200	 4.4490
 2.9210	 4.3250
 2.9230	 4.2460
 2.9250	 4.3410
 2.9260	 4.2200
 2.9280	 4.1020
 2.9300	 4.0940
 2.9310	 4.3460
 2.9330	 4.2140
 2.9350	 4.0580
 2.9360	 4.2220
 2.9380	 4.3820
 2.9400	 4.3730
 2.9410	 4.5350
 2.9430	 4.6110
 2.9450	 4.4470
 2.9460	 4.4050
 2.9480	 4.4450
 2.9500	 4.3370
 2.9510	 4.2420
 2.9530	 4.1650
 2.9550	 4.0700
 2.9560	 4.2280
 2.9580	 4.8760
 2.9600	 4.8350
 2.9610	 4.8290
 2.9630	 4.7510
 2.9650	 3.7640
 2.9660	 3.5850
 2.9680	 3.7820
 2.9700	 3.7960
 2.9720	 4.4950
 2.9730	 3.8400
 2.9750	 3.5590
 2.9770	 4.2640
 2.9780	 3.9940
 2.9800	 4.1400
 2.9820	 4.6840
 2.9840	 4.0270
 2.9850	 3.8480
 2.9870	 4.3820
 2.9890	 4.6750
 2.9900	 5.0680
 2.9920	 5.2490
 2.9940	 4.2590
 2.9960	 2.2760
 2.9970	 4.0250
 2.9990	 5.1740
 3.0010	 4.5980
 3.0030	 4.3220
 3.0040	 3.8410
 3.0060	 3.6020
 3.0080	 4.1460
 3.0100	 4.8100
 3.0110	 4.5730
 3.0130	 4.5160
 3.0150	 4.6360
 3.0170	 4.6120
 3.0180	 4.8040
 3.0200	 4.4760
 3.0220	 4.1830
 3.0240	 4.4670
 3.0250	 4.7190
 3.0270	 4.8310
 3.0290	 4.7170
 3.0310	 4.3240
 3.0320	 4.3220
 3.0340	 4.5370
 3.0360	 3.9850
 3.0380	 3.9230
 3.0400	 4.2260
 3.0410	 3.2130
 3.0430	 2.3730
 3.0450	 2.4760
 3.0470	 2.5730
 3.0480	 3.1450
 3.0500	 3.0580
 3.0520	 3.9970
 3.0540	 4.2080
 3.0560	 3.8850
 3.0570	 4.4050
 3.0590	 4.7650
 3.0610	 4.5130
 3.0630	 5.0340
 3.0650	 6.0330
 3.0660	 5.8060
 3.0680	 5.1960
 3.0700	 5.0510
 3.0720	 5.0340
 3.0740	 4.8370
 3.0760	 4.6430
 3.0770	 4.4890
 3.0790	 4.4050
 3.0810	 4.4950
 3.0830	 4.5920
 3.0850	 4.6940
 3.0870	 4.8700
 3.0880	 4.9690
 3.0900	 4.6300
 3.0920	 4.3510
 3.0940	 4.5600
 3.0960	 4.8560
 3.0980	 4.9160
 3.0990	 5.0900
 3.1010	 5.0250
 3.1030	 4.8660
 3.1050	 4.6600
 3.1070	 4.5570
 3.1090	 4.5810
 3.1110	 4.7540
 3.1120	 4.7430
 3.1140	 4.5530
 3.1160	 4.5300
 3.1180	 4.6420
 3.1200	 4.7860
 3.1220	 4.8270
 3.1240	 4.8310
 3.1260	 4.7580
 3.1270	 4.9200
 3.1290	 5.1060
 3.1310	 5.0260
 3.1330	 4.9220
 3.1350	 5.1020
 3.1370	 5.3030
 3.1390	 4.7170
 3.1410	 4.5900
 3.1430	 4.7170
 3.1450	 4.9060
 3.1460	 4.7010
 3.1480	 4.7930
 3.1500	 4.2360
 3.1520	 3.9360
 3.1540	 4.6160
 3.1560	 5.3270
 3.1580	 5.2600
 3.1600	 5.2860
 3.1620	 5.1250
 3.1640	 4.2240
 3.1660	 3.8270
 3.1680	 5.1350
 3.1700	 5.8410
 3.1710	 4.7540
 3.1730	 4.8370
 3.1750	 5.2810
 3.1770	 5.7350
 3.1790	 5.6340
 3.1810	 4.6680
 3.1830	 4.3480
 3.1850	 4.8070
 3.1870	 5.4140
 3.1890	 5.4140
 3.1910	 5.2040
 3.1930	 5.1980
 3.1950	 5.1350
 3.1970	 5.0790
 3.1990	 5.1130
 3.2010	 5.2870
 3.2030	 5.3890
 3.2050	 5.1660
 3.2070	 5.0610
 3.2090	 5.1500
 3.2110	 5.1880
 3.2130	 5.2700
 3.2150	 5.4070
 3.2170	 5.4350
 3.2190	 5.4170
 3.2210	 5.4340
 3.2230	 5.4430
 3.2250	 5.4070
 3.2270	 5.3990
 3.2290	 5.3130
 3.2310	 5.3640
 3.2330	 5.4790
 3.2350	 5.3960
 3.2370	 5.3930
 3.2390	 5.4190
 3.2410	 5.3660
 3.2430	 5.3950
 3.2450	 5.4700
 3.2470	 5.4170
 3.2490	 5.3970
 3.2510	 5.4760
 3.2530	 5.5460
 3.2550	 5.5390
 3.2570	 5.4610
 3.2590	 5.4960
 3.2610	 5.5370
 3.2630	 5.5330
 3.2650	 5.5880
 3.2670	 5.6510
 3.2690	 5.6120
 3.2720	 5.4710
 3.2740	 5.4150
 3.2760	 5.4870
 3.2780	 5.4420
 3.2800	 5.4790
 3.2820	 5.5360
 3.2840	 5.6670
 3.2860	 5.6030
 3.2880	 5.5380
 3.2900	 5.6070
 3.2920	 5.7560
 3.2940	 5.7280
 3.2960	 5.5860
 3.2990	 5.6980
 3.3010	 5.9080
 3.3030	 5.8290
 3.3050	 5.7400
 3.3070	 5.6790
 3.3090	 5.7250
 3.3110	 5.9460
 3.3130	 5.9600
 3.3150	 5.8210
 3.3180	 5.7050
 3.3200	 5.6020
 3.3220	 5.6810
 3.3240	 5.6550
 3.3260	 5.6450
 3.3280	 5.7710
 3.3300	 5.7620
 3.3330	 5.7480
 3.3350	 5.6730
 3.3370	 5.5510
 3.3390	 5.6360
 3.3410	 5.6260
 3.3430	 5.6150
 3.3450	 5.6710
 3.3480	 5.6780
 3.3500	 5.7030
 3.3520	 5.7440
 3.3540	 5.6250
 3.3560	 5.4640
 3.3580	 5.4910
 3.3610	 5.5470
 3.3630	 5.6270
 3.3650	 5.6440
 3.3670	 5.5530
 3.3690	 5.4130
 3.3720	 5.2990
 3.3740	 5.2440
 3.3760	 5.2030
 3.3780	 5.2700
 3.3800	 5.3220
 3.3830	 5.2720
 3.3850	 5.2890
 3.3870	 5.2750
 3.3890	 5.2430
 3.3910	 5.1710
 3.3940	 5.1770
 3.3960	 5.2080
 3.3980	 5.2190
 3.4000	 5.2520
 3.4020	 5.2330
 3.4050	 5.2860
 3.4070	 5.3730
 3.4090	 5.3760
 3.4110	 5.4330
 3.4140	 5.5770
 3.4160	 5.6990
 3.4180	 5.8170
 3.4200	 6.0290
 3.4230	 6.3650
 3.4250	 6.6420
 3.4270	 6.8160
 3.4290	 6.7390
 3.4320	 6.6510
 3.4340	 6.5830
 3.4360	 6.4100
 3.4390	 6.2510
 3.4410	 6.2170
 3.4430	 5.9560
 3.4450	 5.9280
 3.4480	 5.9820
 3.4500	 5.9240
 3.4520	 5.9170
 3.4550	 5.8600
 3.4570	 5.8210
 3.4590	 6.0440
 3.4620	 6.2180
 3.4640	 6.1390
 3.4660	 6.0470
 3.4680	 6.0250
 3.4710	 5.9430
 3.4730	 5.8160
 3.4750	 5.8700
 3.4780	 5.9710
 3.4800	 5.9510
 3.4820	 5.8490
 3.4850	 5.8480
 3.4870	 5.9230
 3.4890	 5.9370
 3.4920	 5.8310
 3.4940	 5.8670
 3.4970	 5.9900
 3.4990	 6.0480
 3.5010	 6.0060
 3.5040	 6.0750
 3.5060	 6.5470
 3.5080	 7.0320
 3.5110	 7.2130
 3.5130	 6.9790
 3.5160	 6.6820
 3.5180	 6.5470
 3.5200	 6.5850
 3.5230	 6.6990
 3.5250	 6.8040
 3.5270	 6.8290
 3.5300	 6.8380
 3.5320	 6.8050
 3.5350	 6.7900
 3.5370	 6.7580
 3.5400	 6.7270
 3.5420	 6.7890
 3.5440	 6.8180
 3.5470	 6.6640
 3.5490	 6.6420
 3.5520	 6.7470
 3.5540	 6.8080
 3.5570	 6.7780
 3.5590	 6.8120
 3.5610	 6.8410
 3.5640	 6.8480
 3.5660	 6.8620
 3.5690	 6.8270
 3.5710	 6.7630
 3.5740	 6.8140
 3.5760	 6.8800
 3.5790	 6.8670
 3.5810	 6.8420
 3.5840	 6.8220
 3.5860	 6.7760
 3.5890	 6.9170
 3.5910	 7.0230
 3.5930	 7.0430
 3.5960	 7.0700
 3.5980	 7.1150
 3.6010	 6.9640
 3.6030	 6.9310
 3.6060	 7.0140
 3.6080	 7.0120
 3.6110	 7.0120
 3.6140	 6.9340
 3.6160	 6.9140
 3.6190	 7.0210
 3.6210	 7.0700
 3.6240	 7.0140
 3.6260	 6.9890
 3.6290	 7.0070
 3.6310	 6.8590
 3.6340	 6.8010
 3.6360	 6.9010
 3.6390	 6.9960
 3.6410	 7.0270
 3.6440	 6.9590
 3.6470	 6.9370
 3.6490	 7.0070
 3.6520	 6.9890
 3.6540	 6.9790
 3.6570	 6.9820
 3.6590	 6.9470
 3.6620	 6.9600
 3.6650	 6.9790
 3.6670	 7.0550
 3.6700	 7.0470
 3.6720	 6.9480
 3.6750	 6.9630
 3.6780	 6.9470
 3.6800	 7.0230
 3.6830	 7.0760
 3.6850	 7.0600
 3.6880	 7.0960
 3.6910	 7.1380
 3.6930	 7.1320
 3.6960	 7.0700
 3.6990	 7.0690
 3.7010	 7.0700
 3.7040	 7.0460
 3.7060	 7.0350
 3.7090	 7.0120
 3.7120	 7.0470
 3.7140	 7.0920
 3.7170	 7.1090
 3.7200	 7.0850
 3.7220	 7.0650
 3.7250	 7.0310
 3.7280	 7.0390
 3.7300	 7.0550
 3.7330	 7.0130
 3.7360	 6.9680
 3.7390	 7.0130
 3.7410	 7.1570
 3.7440	 7.1220
 3.7470	 7.0830
 3.7490	 7.1440
 3.7520	 7.1580
 3.7550	 7.1100
 3.7580	 7.1410
 3.7600	 7.2130
 3.7630	 7.1790
 3.7660	 7.2020
 3.7680	 7.2750
 3.7710	 7.2550
 3.7740	 7.3290
 3.7770	 7.3680
 3.7790	 7.4090
 3.7820	 7.3630
 3.7850	 7.2380
 3.7880	 7.2100
 3.7900	 7.2750
 3.7930	 7.2540
 3.7960	 7.2120
 3.7990	 7.3080
 3.8020	 7.3400
 3.8040	 7.3250
 3.8070	 7.2390
 3.8100	 7.2690
 3.8130	 7.3330
 3.8160	 7.2750
 3.8180	 7.2030
 3.8210	 7.1820
 3.8240	 7.2420
 3.8270	 7.4070
 3.8300	 7.4270
 3.8330	 7.3770
 3.8350	 7.3120
 3.8380	 7.3200
 3.8410	 7.4860
 3.8440	 7.5900
 3.8470	 7.5850
 3.8500	 7.4740
 3.8520	 7.3090
 3.8550	 7.3280
 3.8580	 7.4950
 3.8610	 7.4920
 3.8640	 7.4100
 3.8670	 7.3720
 3.8700	 7.4370
 3.8730	 7.4800
 3.8750	 7.3980
 3.8780	 7.4070
 3.8810	 7.4570
 3.8840	 7.4480
 3.8870	 7.4420
 3.8900	 7.4990
 3.8930	 7.5630
 3.8960	 7.6160
 3.8990	 7.6480
 3.9020	 7.5510
 3.9050	 7.4470
 3.9080	 7.4170
 3.9110	 7.4370
 3.9140	 7.4760
 3.9160	 7.4510
 3.9190	 7.4220
 3.9220	 7.4290
 3.9250	 7.4330
 3.9280	 7.4230
 3.9310	 7.4220
 3.9340	 7.4880
 3.9370	 7.4440
 3.9400	 7.3490
 3.9430	 7.3910
 3.9460	 7.5460
 3.9490	 7.5320
 3.9520	 7.5220
 3.9550	 7.5280
 3.9580	 7.4480
 3.9610	 7.4940
 3.9640	 7.5550
 3.9670	 7.5060
 3.9700	 7.4370
 3.9730	 7.4870
 3.9770	 7.5720
 3.9800	 7.5640
 3.9830	 7.5000
 3.9860	 7.4120
 3.9890	 7.4630
 3.9920	 7.5530
 3.9950	 7.5520
 3.9980	 7.4780
 4.0010	 7.5160
 4.0040	 7.5090
 4.0070	 7.5150
 4.0100	 7.5500
 4.0130	 7.5250
 4.0170	 7.5680
 4.0200	 7.6290
 4.0230	 7.5900
 4.0260	 7.5240
 4.0290	 7.5210
 4.0320	 7.5280
 4.0350	 7.4690
 4.0380	 7.3930
 4.0420	 7.4770
 4.0450	 7.5860
 4.0480	 7.5670
 4.0510	 7.6250
 4.0540	 7.6220
 4.0570	 7.5530
 4.0610	 7.5310
 4.0640	 7.5580
 4.0670	 7.5640
 4.0700	 7.5100
 4.0730	 7.4640
 4.0770	 7.4640
 4.0800	 7.5740
 4.0830	 7.6830
 4.0860	 7.6410
 4.0890	 7.6120
 4.0930	 7.6250
 4.0960	 7.6400
 4.0990	 7.6640
 4.1020	 7.6770
 4.1060	 7.5730
 4.1090	 7.5340
 4.1120	 7.5480
 4.1150	 7.5580
 4.1190	 7.6530
 4.1220	 7.6290
 4.1250	 7.6300
 4.1280	 7.6670
 4.1320	 7.6280
 4.1350	 7.6140
 4.1380	 7.5890
 4.1420	 7.5760
 4.1450	 7.4790
 4.1480	 7.4310
 4.1520	 7.5840
 4.1550	 7.7040
 4.1580	 7.6110
 4.1620	 7.4960
 4.1650	 7.5230
 4.1680	 7.5450
 4.1720	 7.5170
 4.1750	 7.5960
 4.1780	 7.6580
 4.1820	 7.5770
 4.1850	 7.4800
 4.1890	 7.5370
 4.1920	 7.6190
 4.1950	 7.5940
 4.1990	 7.6590
 4.2020	 7.7640
 4.2060	 7.8110
 4.2090	 7.7670
 4.2120	 7.7460
 4.2160	 7.9480
 4.2190	 7.9180
 4.2230	 8.0110
 4.2260	 8.2490
 4.2300	 8.1770
 4.2330	 8.0590
 4.2360	 7.8840
 4.2400	 7.5420
 4.2430	 7.8000
 4.2470	 8.1670
 4.2500	 8.0390
 4.2540	 7.8600
 4.2570	 7.9200
 4.2610	 7.9820
 4.2640	 8.1690
 4.2680	 8.1160
 4.2710	 7.9620
 4.2750	 7.6830
 4.2780	 7.7390
 4.2820	 7.8320
 4.2850	 7.8900
 4.2890	 7.8840
 4.2930	 8.0390
 4.2960	 8.0470
 4.3000	 7.8410
 4.3030	 7.6720
 4.3070	 7.7130
 4.3100	 7.7600
 4.3140	 7.7300
 4.3180	 7.6730
 4.3210	 7.6830
 4.3250	 7.6240
 4.3280	 7.6120
 4.3320	 7.6740
 4.3360	 7.5710
 4.3390	 7.4630
 4.3430	 7.4510
 4.3470	 7.4500
 4.3500	 7.5140
 4.3540	 7.4860
 4.3570	 7.3750
 4.3610	 7.3590
 4.3650	 7.4600
 4.3680	 7.5000
 4.3720	 7.4840
 4.3760	 7.3510
 4.3800	 7.3970
 4.3830	 7.3940
 4.3870	 7.4260
 4.3910	 7.4560
 4.3940	 7.4340
 4.3980	 7.3630
 4.4020	 7.4150
 4.4060	 7.4040
 4.4090	 7.3630
 4.4130	 7.3300
 4.4170	 7.3400
 4.4210	 7.3020
 4.4240	 7.2280
 4.4280	 7.2460
 4.4320	 7.3160
 4.4360	 7.2840
 4.4400	 7.2620
 4.4430	 7.2170
 4.4470	 7.2190
 4.4510	 7.1130
 4.4550	 7.1420
 4.4590	 7.1760
 4.4620	 7.2460
 4.4660	 7.2530
 4.4700	 7.2560
 4.4740	 7.2730
 4.4780	 7.2210
 4.4820	 7.1490
 4.4860	 7.2270
 4.4900	 7.2810
 4.4930	 7.2660
 4.4970	 7.2150
 4.5010	 7.2210
 4.5050	 7.2180
 4.5090	 7.1680
 4.5130	 7.1200
 4.5170	 7.1690
 4.5210	 7.1570
 4.5250	 7.1750
 4.5290	 7.1750
 4.5330	 7.1820
 4.5370	 7.1540
 4.5410	 7.1650
 4.5450	 7.1670
 4.5490	 7.1590
 4.5530	 7.1630
 4.5570	 7.1480
 4.5610	 7.1100
 4.5650	 7.1520
 4.5690	 7.1160
 4.5730	 7.1300
 4.5770	 7.1330
 4.5810	 7.1210
 4.5850	 7.1950
 4.5890	 7.2490
 4.5930	 7.2020
 4.5970	 7.1460
 4.6010	 7.1180
 4.6050	 7.1140
 4.6090	 7.0240
 4.6130	 6.9930
 4.6170	 7.0230
 4.6220	 7.0810
 4.6260	 6.9890
 4.6300	 6.9210
 4.6340	 7.0180
 4.6380	 7.0940
 4.6420	 7.0250
 4.6460	 7.0760
 4.6510	 7.1230
 4.6550	 7.1840
 4.6590	 7.1320
 4.6630	 7.0700
 4.6670	 7.0080
 4.6720	 7.1130
 4.6760	 7.0920
 4.6800	 7.0210
 4.6840	 7.0270
 4.6880	 7.1160
 4.6930	 7.0870
 4.6970	 7.0020
 4.7010	 7.0370
 4.7050	 7.1290
 4.7100	 7.0900
 4.7140	 7.1030
 4.7180	 7.0300
 4.7230	 6.9440
 4.7270	 6.8620
 4.7310	 6.9340
 4.7360	 7.0780
 4.7400	 7.0690
 4.7440	 6.9850
 4.7490	 6.9590
 4.7530	 6.9130
 4.7570	 6.9390
 4.7620	 6.9170
 4.7660	 6.8670
 4.7700	 6.7900
 4.7750	 6.9340
 4.7790	 6.9740
 4.7840	 7.0250
 4.7880	 7.1620
 4.7920	 7.2080
 4.7970	 7.0440
 4.8010	 7.0640
 4.8060	 7.0520
 4.8100	 6.9900
 4.8150	 6.9300
 4.8190	 6.9470
 4.8240	 6.9060
 4.8280	 6.9140
 4.8330	 6.9620
 4.8370	 6.9950
 4.8420	 6.9670
 4.8460	 7.0630
 4.8510	 7.1000
 4.8550	 7.0910
 4.8600	 6.9820
 4.8640	 6.9770
 4.8690	 7.0260
 4.8730	 7.0480
 4.8780	 7.0290
 4.8830	 6.9840
 4.8870	 6.9040
 4.8920	 6.9130
 4.8960	 6.9350
 4.9010	 7.0310
 4.9060	 7.0180
 4.9100	 7.0240
 4.9150	 6.9490
 4.9200	 6.9650
 4.9240	 6.9640
 4.9290	 6.9640
 4.9340	 6.9610
 4.9380	 7.0520
 4.9430	 6.9610
 4.9480	 6.9220
 4.9530	 6.8370
 4.9570	 6.8820
 4.9620	 6.9990
 4.9670	 7.1090
 4.9720	 7.0460
 4.9760	 7.0000
 4.9810	 6.9310
 4.9860	 6.9180
 4.9910	 6.9270
 4.9960	 7.0030
 5.0000	 7.0150
 5.0050	 7.0020
 5.0100	 6.9690
 5.0150	 6.9690
 5.0200	 7.0280
 5.0250	 7.0570
 5.0290	 6.9430
 5.0340	 6.9610
 5.0390	 7.0150
 5.0440	 7.0510
 5.0490	 6.9920
 5.0540	 7.0620
 5.0590	 7.0550
 5.0640	 7.1280
 5.0690	 7.0850
 5.0740	 7.0070
 5.0790	 6.9720
 5.0840	 7.0220
 5.0890	 6.9860
 5.0940	 7.0440
 5.0990	 7.0400
 5.1040	 6.9490
 5.1090	 6.9240
 5.1140	 7.0040
 5.1190	 6.9840
 5.1240	 7.0150
 5.1290	 7.0230
 5.1340	 7.0210
 5.1390	 6.9650
 5.1440	 7.0580
 5.1490	 7.0170
 5.1540	 6.9480
 5.1600	 6.9150
 5.1650	 6.9570
 5.1700	 6.9610
 5.1750	 6.9420
 5.1800	 6.9330
 5.1850	 7.0500
 5.1910	 7.0380
 5.1960	 7.0580
 5.2010	 7.0580
 5.2060	 7.0820
 5.2110	 7.1050
 5.2170	 7.0970
 5.2220	 6.9490
 5.2270	 6.9030
 5.2320	 6.9440
 5.2380	 7.0000
 5.2430	 6.9400
 5.2480	 6.9550
 5.2540	 6.9440
 5.2590	 7.0240
 5.2640	 7.0440
 5.2700	 6.9990
 5.2750	 6.9010
 5.2800	 6.8790
 5.2860	 6.8810
 5.2910	 6.9110
 5.2970	 6.8600
 5.3020	 6.8970
 5.3070	 6.9040
 5.3130	 6.8980
 5.3180	 6.8380
 5.3240	 6.9170
 5.3290	 6.9020
 5.3350	 6.9000
 5.3400	 6.8670
 5.3460	 6.8270
 5.3510	 6.6950
 5.3570	 6.6870
 5.3620	 6.6900
 5.3680	 6.7120
 5.3730	 6.6920
 5.3790	 6.7770
 5.3850	 6.7950
 5.3900	 6.8410
 5.3960	 6.7630
 5.4010	 6.8030
 5.4070	 6.7900
 5.4130	 6.7370
 5.4180	 6.6900
 5.4240	 6.6890
 5.4300	 6.6400
 5.4350	 6.6640
 5.4410	 6.6540
 5.4470	 6.6220
 5.4530	 6.5750
 5.4580	 6.6760
 5.4640	 6.6130
 5.4700	 6.5380
 5.4760	 6.5300
 5.4810	 6.5920
 5.4870	 6.5140
 5.4930	 6.4530
 5.4990	 6.4440
 5.5050	 6.4570
 5.5110	 6.3900
 5.5160	 6.4050
 5.5220	 6.3020
 5.5280	 6.3100
 5.5340	 6.3080
 5.5400	 6.2980
 5.5460	 6.1520
 5.5520	 6.0630
 5.5580	 6.0390
 5.5640	 6.0030
 5.5700	 5.9640
 5.5760	 5.9920
 5.5820	 5.9120
 5.5880	 5.8640
 5.5940	 5.8660
 5.6000	 5.8640
 5.6060	 5.6990
 5.6120	 5.6100
 5.6180	 5.5890
 5.6240	 5.5860
 5.6300	 5.4400
 5.6360	 5.4090
 5.6420	 5.2110
 5.6490	 5.0890
 5.6550	 4.9670
 5.6610	 4.7830
 5.6670	 4.6660
 5.6730	 4.6930
 5.6800	 4.5610
 5.6860	 4.5270
 5.6920	 4.4120
 5.6980	 4.3480
 5.7040	 4.1850
 5.7110	 4.1140
 5.7170	 4.0270
 5.7230	 4.0280
 5.7300	 3.8860
 5.7360	 3.8310
 5.7420	 3.7960
 5.7490	 3.8530
 5.7550	 3.8290
 5.7620	 3.9390
 5.7680	 4.0900
 5.7740	 4.2810
 5.7810	 4.3000
 5.7870	 4.4570
 5.7940	 4.5710
 5.8000	 4.6530
 5.8070	 4.7120
 5.8130	 4.8410
 5.8200	 4.8730
 5.8260	 4.9030
 5.8330	 5.0050
 5.8390	 5.1300
 5.8460	 5.1060
 5.8530	 5.2330
 5.8590	 5.3250
 5.8660	 5.4620
 5.8720	 5.4500
 5.8790	 5.5250
 5.8860	 5.6330
 5.8920	 5.8000
 5.8990	 5.8500
 5.9060	 5.9240
 5.9130	 5.8600
 5.9190	 5.8330
 5.9260	 5.7790
 5.9330	 5.7700
 5.9400	 5.6820
 5.9470	 5.6630
 5.9530	 5.5560
 5.9600	 5.5530
 5.9670	 5.3760
 5.9740	 5.2770
 5.9810	 5.1590
 5.9880	 5.1750
 5.9950	 5.1470
 6.0020	 5.1420
 6.0090	 4.9930
 6.0160	 4.8950
 6.0230	 4.7690
 6.0300	 4.9210
 6.0370	 5.0700
 6.0440	 5.2460
 6.0510	 5.1650
 6.0580	 5.2990
 6.0650	 5.2770
 6.0720	 5.2280
 6.0790	 5.2040
 6.0860	 5.3280
 6.0930	 5.2550
 6.1000	 5.3050
 6.1080	 5.2110
 6.1150	 5.0760
 6.1220	 4.9810
 6.1290	 5.0490
 6.1370	 5.0460
 6.1440	 5.0750
 6.1510	 5.0010
 6.1580	 5.0010
 6.1660	 4.9180
 6.1730	 4.9090
 6.1800	 4.8240
 6.1880	 4.9300
 6.1950	 4.9580
 6.2030	 5.0840
 6.2100	 4.9450
 6.2170	 4.8470
 6.2250	 4.8140
 6.2320	 5.0120
 6.2400	 5.1130
 6.2470	 5.2400
 6.2550	 5.2960
 6.2630	 5.3660
 6.2700	 5.3750
 6.2780	 5.4890
 6.2850	 5.4040
 6.2930	 5.4970
 6.3010	 5.5630
 6.3080	 5.5740
 6.3160	 5.5760
 6.3240	 5.7250
 6.3310	 5.7050
 6.3390	 5.7440
 6.3470	 5.6650
 6.3550	 5.7220
 6.3620	 5.7460
 6.3700	 5.8360
 6.3780	 5.8100
 6.3860	 5.8490
 6.3940	 5.7770
 6.4020	 5.8740
 6.4100	 5.8090
 6.4180	 5.8970
 6.4260	 5.9380
 6.4330	 6.0370
 6.4410	 6.0210
 6.4490	 6.1090
 6.4580	 5.9540
 6.4660	 5.9570
 6.4740	 5.8790
 6.4820	 5.8350
 6.4900	 5.6760
 6.4980	 5.7710
 6.5060	 5.7870
 6.5140	 5.7440
 6.5230	 5.5130
 6.5310	 5.5540
 6.5390	 5.4560
 6.5470	 5.3030
 6.5550	 5.1950
 6.5640	 5.2130
 6.5720	 4.9640
 6.5800	 4.8900
 6.5890	 4.8290
 6.5970	 5.0230
 6.6060	 5.0670
 6.6140	 5.1900
 6.6220	 5.1930
 6.6310	 5.2920
 6.6390	 5.3830
 6.6480	 5.4760
 6.6560	 5.3480
 6.6650	 5.4110
 6.6740	 5.4470
 6.6820	 5.4970
 6.6910	 5.4980
 6.6990	 5.5960
 6.7080	 5.4700
 6.7170	 5.4630
 6.7260	 5.4150
 6.7340	 5.4890
 6.7430	 5.4160
 6.7520	 5.4440
 6.7610	 5.3150
 6.7690	 5.1960
 6.7780	 5.1030
 6.7870	 5.1190
 6.7960	 4.9960
 6.8050	 5.0270
 6.8140	 4.8970
 6.8230	 4.9460
 6.8320	 4.9940
 6.8410	 5.1740
 6.8500	 5.1330
 6.8590	 5.1240
 6.8680	 4.8890
 6.8770	 4.8860
 6.8860	 4.8830
 6.8950	 5.0130
 6.9050	 5.0100
 6.9140	 5.0450
 6.9230	 4.9630
 6.9320	 5.0620
 6.9420	 5.0540
 6.9510	 5.1040
 6.9600	 5.0790
 6.9700	 5.1130
 6.9790	 4.9250
 6.9880	 5.0150
 6.9980	 5.0410
 7.0070	 5.0990
 7.0170	 4.9860
 7.0260	 5.0270
 7.0360	 5.0450
 7.0450	 5.1100
 7.0550	 5.0720
 7.0650	 5.1390
 7.0740	 5.1100
 7.0840	 5.1960
 7.0940	 5.0830
 7.1030	 5.1010
 7.1130	 4.9570
 7.1230	 4.9700
 7.1330	 4.9400
 7.1420	 4.9040
 7.1520	 4.7910
 7.1620	 4.8840
 7.1720	 4.7600
 7.1820	 4.7440
 7.1920	 4.6870
 7.2020	 4.6320
 7.2120	 4.4710
 7.2220	 4.4730
 7.2320	 4.3780
 7.2420	 4.4240
 7.2520	 4.3190
 7.2620	 4.3480
 7.2730	 4.2600
 7.2830	 4.3790
 7.2930	 4.3730
 7.3030	 4.5610
 7.3140	 4.6630
 7.3240	 4.7050
 7.3340	 4.5950
 7.3450	 4.8270
 7.3550	 4.9090
 7.3660	 4.9400
 7.3760	 4.8610
 7.3870	 5.0190
 7.3970	 5.1070
 7.4080	 5.1740
 7.4180	 5.0490
 7.4290	 5.0450
 7.4400	 4.9470
 7.4500	 4.9200
 7.4610	 4.8400
 7.4720	 4.8820
 7.4830	 4.7960
 7.4930	 4.9140
 7.5040	 4.7830
 7.5150	 4.7870
 7.5260	 4.7100
 7.5370	 4.6060
 7.5480	 4.5520
 7.5590	 4.7020
 7.5700	 4.6200
 7.5810	 4.6180
 7.5920	 4.4760
 7.6030	 4.5380
 7.6140	 4.5530
 7.6260	 4.6340
 7.6370	 4.5420
 7.6480	 4.6820
 7.6590	 4.6780
 7.6710	 4.6400
 7.6820	 4.4590
 7.6930	 4.5290
 7.7050	 4.3270
 7.7160	 4.3470
 7.7280	 4.3360
 7.7390	 4.4950
 7.7510	 4.5260
 7.7630	 4.5460
 7.7740	 4.3250
 7.7860	 4.2730
 7.7980	 4.1820
 7.8090	 4.2880
 7.8210	 4.2150
 7.8330	 4.3280
 7.8450	 4.3130
 7.8570	 4.3680
 7.8690	 4.2510
 7.8810	 4.3370
 7.8930	 4.3020
 7.9050	 4.3150
 7.9170	 4.2340
 7.9290	 4.4240
 7.9410	 4.2680
 7.9530	 4.3960
 7.9650	 4.3220
 7.9780	 4.4330
 7.9900	 4.5140
 8.0020	 4.6130
 8.0150	 4.4790
 8.0270	 4.5650
 8.0390	 4.5310
 8.0520	 4.6800
 8.0640	 4.6240
 8.0770	 4.5640
 8.0900	 4.4650
 8.1020	 4.7420
 8.1150	 4.8170
 8.1280	 4.8210
 8.1400	 4.7220
 8.1530	 4.9980
 8.1660	 4.9710
 8.1790	 5.1570
 8.1920	 4.9540
 8.2050	 4.8580
 8.2180	 4.8960
 8.2310	 5.1590
 8.2440	 5.1530
 8.2570	 5.3240
 8.2700	 5.2750
 8.2830	 5.3290
 8.2970	 5.3510
 8.3100	 5.6710
 8.3230	 5.6200
 8.3370	 5.6670
 8.3500	 5.4500
 8.3640	 5.3600
 8.3770	 5.3110
 8.3910	 5.4630
 8.4040	 5.3000
 8.4180	 5.4700
 8.4320	 5.3180
 8.4450	 5.2300
 8.4590	 5.2230
 8.4730	 5.4760
 8.4870	 5.3430
 8.5010	 5.5410
 8.5150	 5.7600
 8.5290	 6.0900
 8.5430	 5.9720
 8.5570	 6.0640
 8.5710	 5.9140
 8.5850	 6.0310
 8.5990	 5.8410
 8.6140	 5.9270
 8.6280	 5.9140
 8.6420	 6.0430
 8.6570	 5.9970
 8.6710	 6.1120
 8.6860	 5.9680
 8.7000	 6.1630
 8.7150	 6.0780
 8.7300	 6.1520
 8.7440	 5.7690
 8.7590	 5.7340
 8.7740	 5.6480
 8.7890	 5.8880
 8.8040	 5.7100
 8.8190	 5.6690
 8.8340	 5.5890
 8.8490	 5.6900
 8.8640	 5.5540
 8.8790	 5.6850
 8.8940	 5.6670
 8.9100	 5.7550
 8.9250	 5.4540
 8.9400	 5.4550
 8.9560	 5.2980
 8.9710	 5.4780
 8.9870	 5.4910
 9.0020	 5.5980
 9.0180	 5.4430
 9.0340	 5.4580
 9.0500	 5.4160
 9.0650	 5.5550
 9.0810	 5.3080
 9.0970	 5.5710
 9.1130	 5.4980
 9.1290	 5.3350
 9.1450	 5.1410
 9.1610	 5.4620
 9.1780	 5.4920
 9.1940	 5.5940
 9.2100	 5.3500
 9.2270	 5.5890
 9.2430	 5.6950
 9.2600	 5.9520
 9.2760	 5.7690
 9.2930	 5.8020
 9.3090	 5.6560
 9.3260	 5.7720
 9.3430	 5.6170
 9.3600	 5.9050
 9.3770	 5.6900
 9.3940	 5.7800
 9.4110	 5.7580
 9.4280	 5.9040
 9.4450	 5.8710
 9.4620	 6.0850
 9.4800	 5.9990
 9.4970	 6.0410
 9.5140	 5.7200
 9.5320	 5.8480
 9.5500	 5.7360
 9.5670	 5.8270
 9.5850	 5.6880
 9.6030	 5.8210
 9.6200	 5.7600
 9.6380	 6.0030
 9.6560	 6.0010
 9.6740	 6.0250
 9.6920	 5.8540
 9.7100	 6.1230
 9.7290	 6.0800
 9.7470	 6.0990
 9.7650	 5.8930
 9.7840	 6.0150
 9.8020	 5.9750
 9.8210	 6.0450
 9.8390	 5.9710
 9.8580	 6.1250
 9.8770	 5.9150
 9.8960	 6.2250
 9.9150	 6.2340
 9.9340	 6.4170
 9.9530	 6.2780
 9.9720	 6.2060
 9.9910	 5.9080
10.0100	 6.0920
10.0300	 6.0230
10.0490	 6.1160
10.0690	 5.9000
10.0880	 5.9720
10.1080	 5.9050
10.1280	 6.1540
10.1480	 6.0740
10.1670	 6.2330
10.1870	 6.2610
10.2070	 6.5230
10.2280	 6.4160
10.2480	 6.5480
10.2680	 6.3000
10.2890	 6.2690
10.3090	 6.1550
10.3300	 6.4730
10.3500	 6.4120
10.3710	 6.5070
10.3920	 6.3150
10.4120	 6.5440
10.4330	 6.5070
10.4540	 6.6390
10.4760	 6.6350
10.4970	 6.8330
10.5180	 6.5480
10.5390	 6.5700
10.5610	 6.6310
10.5820	 6.9440
10.6040	 6.7300
10.6260	 6.7660
10.6480	 6.7130
10.6700	 6.8460
10.6920	 6.5280
10.7140	 6.6410
10.7360	 6.4520
10.7580	 6.5870
10.7800	 6.4770
10.8030	 6.7530
10.8250	 6.5740
10.8480	 6.5770
10.8710	 6.4580
10.8940	 6.5780
10.9170	 6.4670
10.9400	 6.4330
10.9630	 6.2640
10.9860	 6.5800
11.0090	 6.3510
11.0330	 6.3550
11.0560	 6.1510
11.0800	 6.3230
11.1040	 6.2180
11.1270	 6.4710
11.1510	 6.2100
11.1750	 6.2060
11.2000	 6.1090
11.2240	 6.3520
11.2480	 6.2080
11.2730	 6.4030
11.2970	 6.2270
11.3220	 6.4330
11.3470	 6.4080
11.3720	 6.4040
11.3970	 6.0530
11.4220	 6.1560
11.4470	 5.5870
11.4720	 4.9840
11.4980	 5.4220
11.5230	 6.2220
11.5490	 6.1890
11.5750	 6.3220
11.6000	 5.9650
11.6260	 6.0530
11.6530	 6.0250
11.6790	 6.1450
11.7050	 5.7990
11.7320	 5.9370
11.7580	 5.6100
11.7850	 5.7860
11.8120	 5.7880
11.8390	 6.0510
11.8660	 5.7350
11.8930	 5.9140
11.9200	 5.8190
11.9480	 5.8720
11.9760	 5.6890
12.0030	 6.1050
12.0310	 5.8780
12.0590	 6.1130
12.0870	 6.0650
12.1150	 6.1930
12.1440	 5.9470
12.1720	 6.2830
12.2010	 6.2400
12.2300	 6.3620
12.2590	 6.0230
12.2880	 6.1570
12.3170	 6.0240
12.3460	 6.2600
12.3760	 5.8590
12.4050	 5.9870
12.4350	 5.9050
12.4650	 6.1810
12.4950	 6.0380
12.5250	 6.2830
12.5550	 6.0230
12.5860	 6.1880
12.6170	 6.0790
12.6470	 6.2710
12.6780	 5.8770
12.7090	 6.1880
12.7410	 6.0760
12.7720	 6.1230
12.8030	 5.7340
12.8350	 6.0120
12.8670	 5.8960
12.8990	 6.0000
12.9310	 5.6670
12.9640	 5.9690
12.9960	 5.9100
13.0290	 6.1210
13.0610	 5.8330
13.0940	 5.8910
13.1280	 5.4820
13.1610	 5.7700
13.1940	 5.6930
13.2280	 6.1100
13.2620	 5.7650
13.2960	 5.9370
13.3300	 5.8240
13.3640	 5.7010
13.3990	 5.1000
13.4340	 5.6560
13.4690	 5.3910
13.5040	 5.8160
13.5390	 5.7190
13.5740	 5.9290
13.6100	 5.6500
13.6460	 5.8830
13.6820	 5.3240
13.7180	 5.7110
13.7540	 5.7160
13.7910	 6.0910
13.8280	 5.5430
13.8650	 5.7600
13.9020	 5.6870
13.9390	 5.9180
13.9770	 5.3920
14.0150	 5.4850
14.0530	 4.8720
14.0910	 5.2000
14.1290	 5.2610
14.1680	 5.7250
14.2070	 5.1780
14.2460	 5.1170
14.2850	 4.9980
14.3240	 5.6290
14.3640	 5.2440
14.4040	 5.7000
14.4440	 4.8820
14.4840	 4.9430
14.5250	 4.6250
14.5660	 5.5730
14.6070	 5.0220
14.6480	 5.1210
14.6900	 4.7230
14.7310	 5.2840
14.7730	 4.6410
14.8150	 4.8820
14.8580	 4.6000
14.9010	 5.4200
14.9440	 5.2300
14.9870	 5.4130
15.0300	 4.3680
15.0740	 5.1530
15.1180	 4.5190
15.1620	 5.0150
15.2060	 4.4560
15.2510	 4.7770
15.2960	 4.2120
15.3410	 5.1110
15.3870	 4.5440
