Name: Betula papyrifera
Type: Vegetation
Class: Tree
Genus: Betula
Species: papyrifera
Sample No.: BEPA-1-33
Owner: UCSB
Wavelength Range: VSWIR
Origin: USA; Massachusetts; Harvard Forest
Collection Date: 7/8/2013
Description: Samples were collected as part of NSF Macrosystem Biology proposal titled: Collaborative Research: Thermal controls on ecosystem metabolism and function: scaling from leaves to canopies to regions. Samples were collected and overnighted to JPL facilities for processing. The same leaves were processed in the Nicolet and then measured using the ASD.
Measurement: Bidirectional reflectance
First Column: X
Second Column: Y
X Units: Wavelength (micrometers)
Y Units: Reflectance (percentage)
First X Value: 0.35
Last X Value: 2.5
Number of X Values: 2151
Additional Information: vegetation.tree.betula.papyrifera.vswir.bepa-1-33.ucsb.asd.ancillary.txt

 0.3500	 6.8440
 0.3510	 6.9530
 0.3520	 6.9080
 0.3530	 6.8680
 0.3540	 6.9910
 0.3550	 7.0070
 0.3560	 7.0820
 0.3570	 7.1270
 0.3580	 6.9730
 0.3590	 6.8710
 0.3600	 6.8880
 0.3610	 6.9780
 0.3620	 6.9840
 0.3630	 7.0120
 0.3640	 7.0300
 0.3650	 6.9820
 0.3660	 6.8170
 0.3670	 6.7350
 0.3680	 6.8210
 0.3690	 7.0450
 0.3700	 7.0950
 0.3710	 7.0200
 0.3720	 6.8990
 0.3730	 6.7330
 0.3740	 6.9100
 0.3750	 7.1020
 0.3760	 6.9230
 0.3770	 6.8690
 0.3780	 6.8470
 0.3790	 6.8310
 0.3800	 6.8730
 0.3810	 6.9000
 0.3820	 6.9160
 0.3830	 6.9290
 0.3840	 6.9380
 0.3850	 6.9060
 0.3860	 6.8370
 0.3870	 6.7700
 0.3880	 6.8690
 0.3890	 6.9530
 0.3900	 6.9340
 0.3910	 6.8520
 0.3920	 6.8230
 0.3930	 6.8560
 0.3940	 6.9190
 0.3950	 6.9490
 0.3960	 6.9480
 0.3970	 6.9150
 0.3980	 6.8590
 0.3990	 6.8780
 0.4000	 6.8810
 0.4010	 6.8360
 0.4020	 6.8050
 0.4030	 6.8060
 0.4040	 6.8220
 0.4050	 6.8360
 0.4060	 6.8910
 0.4070	 6.9170
 0.4080	 6.8980
 0.4090	 6.8630
 0.4100	 6.8700
 0.4110	 6.8850
 0.4120	 6.8860
 0.4130	 6.8890
 0.4140	 6.9170
 0.4150	 6.9290
 0.4160	 6.8900
 0.4170	 6.8840
 0.4180	 6.8900
 0.4190	 6.8940
 0.4200	 6.8880
 0.4210	 6.8910
 0.4220	 6.9060
 0.4230	 6.9270
 0.4240	 6.9360
 0.4250	 6.9350
 0.4260	 6.9260
 0.4270	 6.9170
 0.4280	 6.9280
 0.4290	 6.9350
 0.4300	 6.9320
 0.4310	 6.9330
 0.4320	 6.9300
 0.4330	 6.9250
 0.4340	 6.9190
 0.4350	 6.9130
 0.4360	 6.9070
 0.4370	 6.9070
 0.4380	 6.9150
 0.4390	 6.9380
 0.4400	 6.9440
 0.4410	 6.9230
 0.4420	 6.9210
 0.4430	 6.9090
 0.4440	 6.9040
 0.4450	 6.9260
 0.4460	 6.9440
 0.4470	 6.9420
 0.4480	 6.9300
 0.4490	 6.9510
 0.4500	 6.9500
 0.4510	 6.9450
 0.4520	 6.9570
 0.4530	 6.9650
 0.4540	 6.9650
 0.4550	 6.9630
 0.4560	 6.9670
 0.4570	 6.9690
 0.4580	 6.9670
 0.4590	 6.9620
 0.4600	 6.9550
 0.4610	 6.9660
 0.4620	 6.9790
 0.4630	 6.9730
 0.4640	 6.9580
 0.4650	 6.9500
 0.4660	 6.9520
 0.4670	 6.9560
 0.4680	 6.9520
 0.4690	 6.9470
 0.4700	 6.9490
 0.4710	 6.9550
 0.4720	 6.9540
 0.4730	 6.9510
 0.4740	 6.9580
 0.4750	 6.9580
 0.4760	 6.9520
 0.4770	 6.9450
 0.4780	 6.9470
 0.4790	 6.9500
 0.4800	 6.9520
 0.4810	 6.9530
 0.4820	 6.9590
 0.4830	 6.9590
 0.4840	 6.9530
 0.4850	 6.9470
 0.4860	 6.9500
 0.4870	 6.9650
 0.4880	 6.9820
 0.4890	 6.9770
 0.4900	 6.9810
 0.4910	 6.9970
 0.4920	 7.0090
 0.4930	 7.0120
 0.4940	 7.0150
 0.4950	 7.0280
 0.4960	 7.0520
 0.4970	 7.0600
 0.4980	 7.0690
 0.4990	 7.0980
 0.5000	 7.1150
 0.5010	 7.1350
 0.5020	 7.1640
 0.5030	 7.1990
 0.5040	 7.2300
 0.5050	 7.2650
 0.5060	 7.3110
 0.5070	 7.3730
 0.5080	 7.4400
 0.5090	 7.5160
 0.5100	 7.6070
 0.5110	 7.6920
 0.5120	 7.7890
 0.5130	 7.9120
 0.5140	 8.0530
 0.5150	 8.2000
 0.5160	 8.3600
 0.5170	 8.5400
 0.5180	 8.7190
 0.5190	 8.9120
 0.5200	 9.1230
 0.5210	 9.3400
 0.5220	 9.5620
 0.5230	 9.7870
 0.5240	10.0100
 0.5250	10.2190
 0.5260	10.4250
 0.5270	10.6260
 0.5280	10.8150
 0.5290	10.9970
 0.5300	11.1590
 0.5310	11.3000
 0.5320	11.4380
 0.5330	11.5530
 0.5340	11.6560
 0.5350	11.7560
 0.5360	11.8280
 0.5370	11.8970
 0.5380	11.9680
 0.5390	12.0320
 0.5400	12.0800
 0.5410	12.1230
 0.5420	12.1680
 0.5430	12.2110
 0.5440	12.2570
 0.5450	12.3030
 0.5460	12.3430
 0.5470	12.3760
 0.5480	12.4010
 0.5490	12.4200
 0.5500	12.4410
 0.5510	12.4580
 0.5520	12.4660
 0.5530	12.4620
 0.5540	12.4470
 0.5550	12.4160
 0.5560	12.3670
 0.5570	12.3040
 0.5580	12.2310
 0.5590	12.1490
 0.5600	12.0540
 0.5610	11.9450
 0.5620	11.8240
 0.5630	11.6940
 0.5640	11.5600
 0.5650	11.4170
 0.5660	11.2650
 0.5670	11.1060
 0.5680	10.9470
 0.5690	10.7870
 0.5700	10.6300
 0.5710	10.4800
 0.5720	10.3370
 0.5730	10.1980
 0.5740	10.0640
 0.5750	 9.9440
 0.5760	 9.8370
 0.5770	 9.7400
 0.5780	 9.6520
 0.5790	 9.5650
 0.5800	 9.4790
 0.5810	 9.3940
 0.5820	 9.3150
 0.5830	 9.2480
 0.5840	 9.1890
 0.5850	 9.1350
 0.5860	 9.0800
 0.5870	 9.0230
 0.5880	 8.9650
 0.5890	 8.9110
 0.5900	 8.8700
 0.5910	 8.8310
 0.5920	 8.7950
 0.5930	 8.7730
 0.5940	 8.7500
 0.5950	 8.7250
 0.5960	 8.6980
 0.5970	 8.6790
 0.5980	 8.6580
 0.5990	 8.6340
 0.6000	 8.6110
 0.6010	 8.5880
 0.6020	 8.5650
 0.6030	 8.5390
 0.6040	 8.5080
 0.6050	 8.4720
 0.6060	 8.4300
 0.6070	 8.3800
 0.6080	 8.3410
 0.6090	 8.2980
 0.6100	 8.2460
 0.6110	 8.1860
 0.6120	 8.1350
 0.6130	 8.0880
 0.6140	 8.0420
 0.6150	 7.9970
 0.6160	 7.9550
 0.6170	 7.9170
 0.6180	 7.8820
 0.6190	 7.8440
 0.6200	 7.8120
 0.6210	 7.7880
 0.6220	 7.7670
 0.6230	 7.7420
 0.6240	 7.7250
 0.6250	 7.7190
 0.6260	 7.7050
 0.6270	 7.6950
 0.6280	 7.6860
 0.6290	 7.6750
 0.6300	 7.6660
 0.6310	 7.6580
 0.6320	 7.6510
 0.6330	 7.6420
 0.6340	 7.6190
 0.6350	 7.5930
 0.6360	 7.5710
 0.6370	 7.5370
 0.6380	 7.5010
 0.6390	 7.4640
 0.6400	 7.4260
 0.6410	 7.3890
 0.6420	 7.3460
 0.6430	 7.2990
 0.6440	 7.2680
 0.6450	 7.2370
 0.6460	 7.2040
 0.6470	 7.1740
 0.6480	 7.1460
 0.6490	 7.1230
 0.6500	 7.1060
 0.6510	 7.0910
 0.6520	 7.0760
 0.6530	 7.0640
 0.6540	 7.0540
 0.6550	 7.0440
 0.6560	 7.0330
 0.6570	 7.0220
 0.6580	 7.0080
 0.6590	 6.9950
 0.6600	 6.9810
 0.6610	 6.9670
 0.6620	 6.9560
 0.6630	 6.9430
 0.6640	 6.9330
 0.6650	 6.9290
 0.6660	 6.9250
 0.6670	 6.9240
 0.6680	 6.9250
 0.6690	 6.9260
 0.6700	 6.9350
 0.6710	 6.9440
 0.6720	 6.9520
 0.6730	 6.9610
 0.6740	 6.9760
 0.6750	 6.9950
 0.6760	 7.0130
 0.6770	 7.0310
 0.6780	 7.0510
 0.6790	 7.0740
 0.6800	 7.1020
 0.6810	 7.1310
 0.6820	 7.1590
 0.6830	 7.1890
 0.6840	 7.2210
 0.6850	 7.2590
 0.6860	 7.3050
 0.6870	 7.3580
 0.6880	 7.4200
 0.6890	 7.5010
 0.6900	 7.6090
 0.6910	 7.7540
 0.6920	 7.9460
 0.6930	 8.1930
 0.6940	 8.5070
 0.6950	 8.8910
 0.6960	 9.3580
 0.6970	 9.9090
 0.6980	10.5390
 0.6990	11.2340
 0.7000	11.9970
 0.7010	12.8230
 0.7020	13.7000
 0.7030	14.6110
 0.7040	15.5530
 0.7050	16.5200
 0.7060	17.4900
 0.7070	18.4730
 0.7080	19.4600
 0.7090	20.4370
 0.7100	21.4290
 0.7110	22.4180
 0.7120	23.3950
 0.7130	24.3580
 0.7140	25.3160
 0.7150	26.2590
 0.7160	27.1760
 0.7170	28.0930
 0.7180	28.9860
 0.7190	29.8470
 0.7200	30.6790
 0.7210	31.4940
 0.7220	32.2910
 0.7230	33.0610
 0.7240	33.7890
 0.7250	34.4780
 0.7260	35.1420
 0.7270	35.7860
 0.7280	36.3820
 0.7290	36.9600
 0.7300	37.5060
 0.7310	37.9960
 0.7320	38.4800
 0.7330	38.9310
 0.7340	39.3450
 0.7350	39.7490
 0.7360	40.1040
 0.7370	40.4400
 0.7380	40.7740
 0.7390	41.0630
 0.7400	41.3380
 0.7410	41.5960
 0.7420	41.8240
 0.7430	42.0210
 0.7440	42.2170
 0.7450	42.4130
 0.7460	42.5870
 0.7470	42.7350
 0.7480	42.8580
 0.7490	42.9660
 0.7500	43.1000
 0.7510	43.1970
 0.7520	43.2730
 0.7530	43.3600
 0.7540	43.4210
 0.7550	43.4910
 0.7560	43.5680
 0.7570	43.6240
 0.7580	43.6550
 0.7590	43.6890
 0.7600	43.7360
 0.7610	43.7600
 0.7620	43.7960
 0.7630	43.8310
 0.7640	43.8460
 0.7650	43.8740
 0.7660	43.8920
 0.7670	43.9010
 0.7680	43.9130
 0.7690	43.9230
 0.7700	43.9340
 0.7710	43.9490
 0.7720	43.9710
 0.7730	43.9600
 0.7740	43.9520
 0.7750	43.9740
 0.7760	43.9900
 0.7770	43.9980
 0.7780	44.0020
 0.7790	44.0070
 0.7800	44.0220
 0.7810	44.0280
 0.7820	44.0230
 0.7830	44.0330
 0.7840	44.0310
 0.7850	44.0240
 0.7860	44.0250
 0.7870	44.0440
 0.7880	44.0560
 0.7890	44.0630
 0.7900	44.0770
 0.7910	44.0740
 0.7920	44.0690
 0.7930	44.0720
 0.7940	44.0790
 0.7950	44.0920
 0.7960	44.0960
 0.7970	44.0900
 0.7980	44.0900
 0.7990	44.0990
 0.8000	44.1110
 0.8010	44.1180
 0.8020	44.0960
 0.8030	44.0860
 0.8040	44.0930
 0.8050	44.1010
 0.8060	44.0810
 0.8070	44.0760
 0.8080	44.0870
 0.8090	44.0770
 0.8100	44.0920
 0.8110	44.0940
 0.8120	44.0680
 0.8130	44.0590
 0.8140	44.0610
 0.8150	44.0670
 0.8160	44.0680
 0.8170	44.0670
 0.8180	44.0500
 0.8190	44.0310
 0.8200	44.0320
 0.8210	44.0370
 0.8220	44.0320
 0.8230	44.0210
 0.8240	44.0190
 0.8250	44.0160
 0.8260	44.0150
 0.8270	44.0130
 0.8280	44.0030
 0.8290	43.9940
 0.8300	43.9900
 0.8310	43.9860
 0.8320	43.9580
 0.8330	43.9590
 0.8340	43.9780
 0.8350	43.9790
 0.8360	43.9530
 0.8370	43.9490
 0.8380	43.9640
 0.8390	43.9530
 0.8400	43.9430
 0.8410	43.9490
 0.8420	43.9640
 0.8430	43.9480
 0.8440	43.9300
 0.8450	43.9260
 0.8460	43.9340
 0.8470	43.9250
 0.8480	43.9250
 0.8490	43.9310
 0.8500	43.9350
 0.8510	43.9420
 0.8520	43.9260
 0.8530	43.9120
 0.8540	43.9370
 0.8550	43.9480
 0.8560	43.9440
 0.8570	43.9410
 0.8580	43.9590
 0.8590	43.9450
 0.8600	43.9320
 0.8610	43.9390
 0.8620	43.9430
 0.8630	43.9300
 0.8640	43.9230
 0.8650	43.9360
 0.8660	43.9180
 0.8670	43.9230
 0.8680	43.9490
 0.8690	43.9700
 0.8700	43.9550
 0.8710	43.9520
 0.8720	43.9580
 0.8730	43.9510
 0.8740	43.9680
 0.8750	43.9910
 0.8760	44.0010
 0.8770	43.9880
 0.8780	43.9920
 0.8790	43.9920
 0.8800	43.9800
 0.8810	43.9840
 0.8820	43.9610
 0.8830	43.9520
 0.8840	43.9830
 0.8850	43.9970
 0.8860	44.0120
 0.8870	44.0170
 0.8880	44.0050
 0.8890	44.0000
 0.8900	44.0090
 0.8910	44.0220
 0.8920	44.0230
 0.8930	44.0210
 0.8940	44.0220
 0.8950	44.0340
 0.8960	44.0580
 0.8970	44.0560
 0.8980	44.0480
 0.8990	44.0500
 0.9000	44.0650
 0.9010	44.0350
 0.9020	44.0270
 0.9030	44.0580
 0.9040	44.0610
 0.9050	44.0530
 0.9060	44.0560
 0.9070	44.0720
 0.9080	44.0690
 0.9090	44.0770
 0.9100	44.0860
 0.9110	44.0880
 0.9120	44.0960
 0.9130	44.1040
 0.9140	44.0940
 0.9150	44.0660
 0.9160	44.0800
 0.9170	44.0940
 0.9180	44.1070
 0.9190	44.1260
 0.9200	44.1190
 0.9210	44.0990
 0.9220	44.0870
 0.9230	44.0950
 0.9240	44.1090
 0.9250	44.1110
 0.9260	44.0990
 0.9270	44.0850
 0.9280	44.0910
 0.9290	44.0950
 0.9300	44.0880
 0.9310	44.0800
 0.9320	44.0640
 0.9330	44.0450
 0.9340	44.0270
 0.9350	44.0080
 0.9360	44.0140
 0.9370	44.0290
 0.9380	44.0350
 0.9390	44.0220
 0.9400	43.9950
 0.9410	43.9820
 0.9420	43.9840
 0.9430	43.9660
 0.9440	43.9760
 0.9450	43.9760
 0.9460	43.9400
 0.9470	43.9140
 0.9480	43.8920
 0.9490	43.8740
 0.9500	43.8580
 0.9510	43.8220
 0.9520	43.8050
 0.9530	43.7890
 0.9540	43.7560
 0.9550	43.7290
 0.9560	43.6940
 0.9570	43.6660
 0.9580	43.6560
 0.9590	43.6420
 0.9600	43.6080
 0.9610	43.5710
 0.9620	43.5550
 0.9630	43.5450
 0.9640	43.5280
 0.9650	43.5210
 0.9660	43.5350
 0.9670	43.5210
 0.9680	43.5090
 0.9690	43.4950
 0.9700	43.4740
 0.9710	43.4770
 0.9720	43.4660
 0.9730	43.4500
 0.9740	43.4560
 0.9750	43.4670
 0.9760	43.4940
 0.9770	43.5050
 0.9780	43.4680
 0.9790	43.4610
 0.9800	43.4760
 0.9810	43.4890
 0.9820	43.4730
 0.9830	43.4430
 0.9840	43.4250
 0.9850	43.4410
 0.9860	43.4890
 0.9870	43.5090
 0.9880	43.5240
 0.9890	43.5240
 0.9900	43.4910
 0.9910	43.4760
 0.9920	43.4950
 0.9930	43.5130
 0.9940	43.5320
 0.9950	43.5500
 0.9960	43.5690
 0.9970	43.5870
 0.9980	43.6060
 0.9990	43.6240
 1.0000	43.6430
 1.0010	43.6610
 1.0020	43.6800
 1.0030	43.6980
 1.0040	43.7170
 1.0050	43.7350
 1.0060	43.7540
 1.0070	43.7720
 1.0080	43.7910
 1.0090	43.8090
 1.0100	43.8090
 1.0110	43.8170
 1.0120	43.8260
 1.0130	43.8300
 1.0140	43.8350
 1.0150	43.8450
 1.0160	43.8510
 1.0170	43.8500
 1.0180	43.8600
 1.0190	43.8670
 1.0200	43.8730
 1.0210	43.8810
 1.0220	43.8840
 1.0230	43.8860
 1.0240	43.8850
 1.0250	43.8890
 1.0260	43.8920
 1.0270	43.8990
 1.0280	43.9110
 1.0290	43.9220
 1.0300	43.9360
 1.0310	43.9450
 1.0320	43.9480
 1.0330	43.9590
 1.0340	43.9650
 1.0350	43.9630
 1.0360	43.9680
 1.0370	43.9690
 1.0380	43.9740
 1.0390	43.9790
 1.0400	43.9870
 1.0410	44.0010
 1.0420	44.0090
 1.0430	44.0170
 1.0440	44.0200
 1.0450	44.0140
 1.0460	44.0140
 1.0470	44.0160
 1.0480	44.0170
 1.0490	44.0190
 1.0500	44.0240
 1.0510	44.0290
 1.0520	44.0320
 1.0530	44.0360
 1.0540	44.0420
 1.0550	44.0480
 1.0560	44.0530
 1.0570	44.0560
 1.0580	44.0600
 1.0590	44.0660
 1.0600	44.0720
 1.0610	44.0760
 1.0620	44.0830
 1.0630	44.0870
 1.0640	44.0860
 1.0650	44.0860
 1.0660	44.0890
 1.0670	44.0900
 1.0680	44.0900
 1.0690	44.0880
 1.0700	44.0920
 1.0710	44.0980
 1.0720	44.1000
 1.0730	44.1040
 1.0740	44.1050
 1.0750	44.0970
 1.0760	44.0960
 1.0770	44.0980
 1.0780	44.0980
 1.0790	44.1010
 1.0800	44.1020
 1.0810	44.1010
 1.0820	44.1040
 1.0830	44.1150
 1.0840	44.1180
 1.0850	44.1200
 1.0860	44.1200
 1.0870	44.1150
 1.0880	44.1020
 1.0890	44.0930
 1.0900	44.0840
 1.0910	44.0760
 1.0920	44.0670
 1.0930	44.0600
 1.0940	44.0550
 1.0950	44.0490
 1.0960	44.0440
 1.0970	44.0400
 1.0980	44.0350
 1.0990	44.0320
 1.1000	44.0360
 1.1010	44.0310
 1.1020	44.0210
 1.1030	44.0110
 1.1040	44.0000
 1.1050	43.9880
 1.1060	43.9780
 1.1070	43.9720
 1.1080	43.9640
 1.1090	43.9530
 1.1100	43.9440
 1.1110	43.9370
 1.1120	43.9290
 1.1130	43.9210
 1.1140	43.9110
 1.1150	43.9010
 1.1160	43.8910
 1.1170	43.8790
 1.1180	43.8670
 1.1190	43.8550
 1.1200	43.8440
 1.1210	43.8310
 1.1220	43.8170
 1.1230	43.7990
 1.1240	43.7780
 1.1250	43.7550
 1.1260	43.7280
 1.1270	43.7000
 1.1280	43.6690
 1.1290	43.6400
 1.1300	43.6140
 1.1310	43.5800
 1.1320	43.5420
 1.1330	43.5030
 1.1340	43.4580
 1.1350	43.4110
 1.1360	43.3620
 1.1370	43.3120
 1.1380	43.2530
 1.1390	43.1920
 1.1400	43.1320
 1.1410	43.0680
 1.1420	43.0020
 1.1430	42.9350
 1.1440	42.8710
 1.1450	42.8090
 1.1460	42.7450
 1.1470	42.6820
 1.1480	42.6220
 1.1490	42.5590
 1.1500	42.5050
 1.1510	42.4580
 1.1520	42.4120
 1.1530	42.3680
 1.1540	42.3280
 1.1550	42.2900
 1.1560	42.2570
 1.1570	42.2290
 1.1580	42.2030
 1.1590	42.1780
 1.1600	42.1550
 1.1610	42.1360
 1.1620	42.1220
 1.1630	42.1130
 1.1640	42.1020
 1.1650	42.0930
 1.1660	42.0840
 1.1670	42.0770
 1.1680	42.0720
 1.1690	42.0680
 1.1700	42.0670
 1.1710	42.0620
 1.1720	42.0550
 1.1730	42.0500
 1.1740	42.0430
 1.1750	42.0380
 1.1760	42.0390
 1.1770	42.0380
 1.1780	42.0340
 1.1790	42.0300
 1.1800	42.0260
 1.1810	42.0210
 1.1820	42.0150
 1.1830	42.0070
 1.1840	41.9990
 1.1850	41.9910
 1.1860	41.9850
 1.1870	41.9830
 1.1880	41.9820
 1.1890	41.9810
 1.1900	41.9810
 1.1910	41.9840
 1.1920	41.9820
 1.1930	41.9790
 1.1940	41.9770
 1.1950	41.9720
 1.1960	41.9730
 1.1970	41.9720
 1.1980	41.9730
 1.1990	41.9780
 1.2000	41.9790
 1.2010	41.9810
 1.2020	41.9830
 1.2030	41.9850
 1.2040	41.9890
 1.2050	41.9890
 1.2060	41.9920
 1.2070	41.9950
 1.2080	41.9950
 1.2090	42.0020
 1.2100	42.0090
 1.2110	42.0170
 1.2120	42.0300
 1.2130	42.0390
 1.2140	42.0470
 1.2150	42.0550
 1.2160	42.0640
 1.2170	42.0710
 1.2180	42.0830
 1.2190	42.0930
 1.2200	42.0990
 1.2210	42.1090
 1.2220	42.1190
 1.2230	42.1290
 1.2240	42.1400
 1.2250	42.1500
 1.2260	42.1600
 1.2270	42.1690
 1.2280	42.1810
 1.2290	42.1940
 1.2300	42.2040
 1.2310	42.2150
 1.2320	42.2230
 1.2330	42.2280
 1.2340	42.2370
 1.2350	42.2480
 1.2360	42.2570
 1.2370	42.2670
 1.2380	42.2780
 1.2390	42.2830
 1.2400	42.2860
 1.2410	42.2900
 1.2420	42.2940
 1.2430	42.2980
 1.2440	42.3010
 1.2450	42.3050
 1.2460	42.3080
 1.2470	42.3130
 1.2480	42.3210
 1.2490	42.3260
 1.2500	42.3290
 1.2510	42.3370
 1.2520	42.3420
 1.2530	42.3480
 1.2540	42.3560
 1.2550	42.3590
 1.2560	42.3610
 1.2570	42.3660
 1.2580	42.3660
 1.2590	42.3670
 1.2600	42.3720
 1.2610	42.3730
 1.2620	42.3690
 1.2630	42.3670
 1.2640	42.3640
 1.2650	42.3560
 1.2660	42.3520
 1.2670	42.3460
 1.2680	42.3360
 1.2690	42.3310
 1.2700	42.3240
 1.2710	42.3190
 1.2720	42.3170
 1.2730	42.3120
 1.2740	42.3060
 1.2750	42.3010
 1.2760	42.2940
 1.2770	42.2890
 1.2780	42.2830
 1.2790	42.2730
 1.2800	42.2640
 1.2810	42.2560
 1.2820	42.2440
 1.2830	42.2320
 1.2840	42.2230
 1.2850	42.2130
 1.2860	42.2050
 1.2870	42.1960
 1.2880	42.1900
 1.2890	42.1800
 1.2900	42.1690
 1.2910	42.1600
 1.2920	42.1470
 1.2930	42.1360
 1.2940	42.1250
 1.2950	42.1090
 1.2960	42.0950
 1.2970	42.0780
 1.2980	42.0580
 1.2990	42.0330
 1.3000	42.0120
 1.3010	41.9920
 1.3020	41.9690
 1.3030	41.9450
 1.3040	41.9160
 1.3050	41.8820
 1.3060	41.8460
 1.3070	41.8080
 1.3080	41.7720
 1.3090	41.7370
 1.3100	41.7030
 1.3110	41.6690
 1.3120	41.6280
 1.3130	41.5830
 1.3140	41.5370
 1.3150	41.4880
 1.3160	41.4380
 1.3170	41.3870
 1.3180	41.3360
 1.3190	41.2830
 1.3200	41.2280
 1.3210	41.1700
 1.3220	41.1090
 1.3230	41.0450
 1.3240	40.9790
 1.3250	40.9130
 1.3260	40.8460
 1.3270	40.7780
 1.3280	40.7060
 1.3290	40.6350
 1.3300	40.5620
 1.3310	40.4890
 1.3320	40.4180
 1.3330	40.3470
 1.3340	40.2760
 1.3350	40.2030
 1.3360	40.1250
 1.3370	40.0450
 1.3380	39.9640
 1.3390	39.8840
 1.3400	39.8050
 1.3410	39.7270
 1.3420	39.6480
 1.3430	39.5680
 1.3440	39.4870
 1.3450	39.4090
 1.3460	39.3310
 1.3470	39.2570
 1.3480	39.1860
 1.3490	39.1150
 1.3500	39.0440
 1.3510	38.9740
 1.3520	38.9050
 1.3530	38.8340
 1.3540	38.7610
 1.3550	38.6900
 1.3560	38.6170
 1.3570	38.5430
 1.3580	38.4720
 1.3590	38.4010
 1.3600	38.3230
 1.3610	38.2410
 1.3620	38.1560
 1.3630	38.0680
 1.3640	37.9770
 1.3650	37.8830
 1.3660	37.7840
 1.3670	37.6770
 1.3680	37.5630
 1.3690	37.4400
 1.3700	37.3060
 1.3710	37.1610
 1.3720	37.0050
 1.3730	36.8380
 1.3740	36.6610
 1.3750	36.4730
 1.3760	36.2700
 1.3770	36.0530
 1.3780	35.8170
 1.3790	35.5630
 1.3800	35.2940
 1.3810	35.0050
 1.3820	34.6990
 1.3830	34.3780
 1.3840	34.0380
 1.3850	33.6800
 1.3860	33.3090
 1.3870	32.9190
 1.3880	32.5230
 1.3890	32.1140
 1.3900	31.6940
 1.3910	31.2700
 1.3920	30.8370
 1.3930	30.3960
 1.3940	29.9540
 1.3950	29.5040
 1.3960	29.0570
 1.3970	28.6140
 1.3980	28.1730
 1.3990	27.7460
 1.4000	27.3270
 1.4010	26.9150
 1.4020	26.5180
 1.4030	26.1280
 1.4040	25.7540
 1.4050	25.3990
 1.4060	25.0590
 1.4070	24.7430
 1.4080	24.4430
 1.4090	24.1600
 1.4100	23.8940
 1.4110	23.6410
 1.4120	23.4070
 1.4130	23.1880
 1.4140	22.9870
 1.4150	22.8050
 1.4160	22.6360
 1.4170	22.4800
 1.4180	22.3380
 1.4190	22.2070
 1.4200	22.0890
 1.4210	21.9830
 1.4220	21.8880
 1.4230	21.8020
 1.4240	21.7240
 1.4250	21.6550
 1.4260	21.5950
 1.4270	21.5400
 1.4280	21.4920
 1.4290	21.4520
 1.4300	21.4170
 1.4310	21.3890
 1.4320	21.3710
 1.4330	21.3540
 1.4340	21.3410
 1.4350	21.3300
 1.4360	21.3240
 1.4370	21.3180
 1.4380	21.3180
 1.4390	21.3200
 1.4400	21.3250
 1.4410	21.3320
 1.4420	21.3420
 1.4430	21.3560
 1.4440	21.3720
 1.4450	21.3890
 1.4460	21.4080
 1.4470	21.4280
 1.4480	21.4490
 1.4490	21.4720
 1.4500	21.4950
 1.4510	21.5170
 1.4520	21.5410
 1.4530	21.5660
 1.4540	21.5950
 1.4550	21.6270
 1.4560	21.6610
 1.4570	21.6980
 1.4580	21.7380
 1.4590	21.7810
 1.4600	21.8270
 1.4610	21.8780
 1.4620	21.9330
 1.4630	21.9940
 1.4640	22.0590
 1.4650	22.1280
 1.4660	22.2000
 1.4670	22.2790
 1.4680	22.3640
 1.4690	22.4520
 1.4700	22.5460
 1.4710	22.6450
 1.4720	22.7440
 1.4730	22.8490
 1.4740	22.9570
 1.4750	23.0650
 1.4760	23.1770
 1.4770	23.2890
 1.4780	23.4020
 1.4790	23.5210
 1.4800	23.6390
 1.4810	23.7600
 1.4820	23.8830
 1.4830	24.0040
 1.4840	24.1270
 1.4850	24.2500
 1.4860	24.3710
 1.4870	24.4980
 1.4880	24.6230
 1.4890	24.7460
 1.4900	24.8690
 1.4910	24.9910
 1.4920	25.1130
 1.4930	25.2350
 1.4940	25.3580
 1.4950	25.4820
 1.4960	25.6040
 1.4970	25.7240
 1.4980	25.8460
 1.4990	25.9690
 1.5000	26.0910
 1.5010	26.2170
 1.5020	26.3390
 1.5030	26.4580
 1.5040	26.5760
 1.5050	26.6900
 1.5060	26.8050
 1.5070	26.9220
 1.5080	27.0370
 1.5090	27.1510
 1.5100	27.2660
 1.5110	27.3800
 1.5120	27.4910
 1.5130	27.6010
 1.5140	27.7110
 1.5150	27.8210
 1.5160	27.9290
 1.5170	28.0390
 1.5180	28.1470
 1.5190	28.2530
 1.5200	28.3610
 1.5210	28.4640
 1.5220	28.5690
 1.5230	28.6730
 1.5240	28.7740
 1.5250	28.8770
 1.5260	28.9750
 1.5270	29.0710
 1.5280	29.1660
 1.5290	29.2590
 1.5300	29.3530
 1.5310	29.4450
 1.5320	29.5360
 1.5330	29.6260
 1.5340	29.7150
 1.5350	29.8070
 1.5360	29.8980
 1.5370	29.9840
 1.5380	30.0710
 1.5390	30.1540
 1.5400	30.2350
 1.5410	30.3200
 1.5420	30.4030
 1.5430	30.4840
 1.5440	30.5650
 1.5450	30.6440
 1.5460	30.7230
 1.5470	30.8000
 1.5480	30.8730
 1.5490	30.9460
 1.5500	31.0190
 1.5510	31.0900
 1.5520	31.1660
 1.5530	31.2390
 1.5540	31.3070
 1.5550	31.3780
 1.5560	31.4450
 1.5570	31.5120
 1.5580	31.5830
 1.5590	31.6540
 1.5600	31.7240
 1.5610	31.7930
 1.5620	31.8600
 1.5630	31.9200
 1.5640	31.9800
 1.5650	32.0400
 1.5660	32.0990
 1.5670	32.1600
 1.5680	32.2200
 1.5690	32.2770
 1.5700	32.3310
 1.5710	32.3870
 1.5720	32.4430
 1.5730	32.4970
 1.5740	32.5510
 1.5750	32.6030
 1.5760	32.6560
 1.5770	32.7100
 1.5780	32.7620
 1.5790	32.8100
 1.5800	32.8550
 1.5810	32.8990
 1.5820	32.9470
 1.5830	32.9970
 1.5840	33.0500
 1.5850	33.1020
 1.5860	33.1500
 1.5870	33.1970
 1.5880	33.2440
 1.5890	33.2920
 1.5900	33.3360
 1.5910	33.3780
 1.5920	33.4180
 1.5930	33.4550
 1.5940	33.4970
 1.5950	33.5410
 1.5960	33.5850
 1.5970	33.6320
 1.5980	33.6770
 1.5990	33.7170
 1.6000	33.7570
 1.6010	33.7920
 1.6020	33.8280
 1.6030	33.8630
 1.6040	33.8940
 1.6050	33.9260
 1.6060	33.9560
 1.6070	33.9860
 1.6080	34.0200
 1.6090	34.0530
 1.6100	34.0870
 1.6110	34.1240
 1.6120	34.1590
 1.6130	34.1920
 1.6140	34.2260
 1.6150	34.2580
 1.6160	34.2900
 1.6170	34.3210
 1.6180	34.3510
 1.6190	34.3790
 1.6200	34.4030
 1.6210	34.4270
 1.6220	34.4510
 1.6230	34.4730
 1.6240	34.4970
 1.6250	34.5200
 1.6260	34.5440
 1.6270	34.5690
 1.6280	34.5980
 1.6290	34.6250
 1.6300	34.6540
 1.6310	34.6760
 1.6320	34.6950
 1.6330	34.7130
 1.6340	34.7280
 1.6350	34.7450
 1.6360	34.7620
 1.6370	34.7770
 1.6380	34.7910
 1.6390	34.8040
 1.6400	34.8120
 1.6410	34.8250
 1.6420	34.8420
 1.6430	34.8540
 1.6440	34.8680
 1.6450	34.8760
 1.6460	34.8800
 1.6470	34.8850
 1.6480	34.8880
 1.6490	34.8900
 1.6500	34.8960
 1.6510	34.9000
 1.6520	34.9040
 1.6530	34.9090
 1.6540	34.9090
 1.6550	34.9110
 1.6560	34.9130
 1.6570	34.9100
 1.6580	34.9080
 1.6590	34.9060
 1.6600	34.9040
 1.6610	34.9050
 1.6620	34.9050
 1.6630	34.9010
 1.6640	34.8970
 1.6650	34.8910
 1.6660	34.8880
 1.6670	34.8900
 1.6680	34.8920
 1.6690	34.8940
 1.6700	34.8930
 1.6710	34.8830
 1.6720	34.8710
 1.6730	34.8640
 1.6740	34.8560
 1.6750	34.8460
 1.6760	34.8390
 1.6770	34.8280
 1.6780	34.8160
 1.6790	34.8060
 1.6800	34.7930
 1.6810	34.7760
 1.6820	34.7560
 1.6830	34.7350
 1.6840	34.7140
 1.6850	34.6930
 1.6860	34.6690
 1.6870	34.6500
 1.6880	34.6310
 1.6890	34.6140
 1.6900	34.5920
 1.6910	34.5650
 1.6920	34.5390
 1.6930	34.5110
 1.6940	34.4850
 1.6950	34.4600
 1.6960	34.4360
 1.6970	34.4150
 1.6980	34.3890
 1.6990	34.3620
 1.7000	34.3320
 1.7010	34.2950
 1.7020	34.2620
 1.7030	34.2290
 1.7040	34.1960
 1.7050	34.1650
 1.7060	34.1310
 1.7070	34.0940
 1.7080	34.0590
 1.7090	34.0220
 1.7100	33.9880
 1.7110	33.9550
 1.7120	33.9220
 1.7130	33.8870
 1.7140	33.8510
 1.7150	33.8160
 1.7160	33.7800
 1.7170	33.7430
 1.7180	33.7100
 1.7190	33.6740
 1.7200	33.6380
 1.7210	33.6020
 1.7220	33.5660
 1.7230	33.5300
 1.7240	33.4940
 1.7250	33.4600
 1.7260	33.4250
 1.7270	33.3910
 1.7280	33.3590
 1.7290	33.3260
 1.7300	33.2940
 1.7310	33.2640
 1.7320	33.2410
 1.7330	33.2140
 1.7340	33.1860
 1.7350	33.1570
 1.7360	33.1220
 1.7370	33.0890
 1.7380	33.0570
 1.7390	33.0240
 1.7400	32.9900
 1.7410	32.9540
 1.7420	32.9180
 1.7430	32.8810
 1.7440	32.8410
 1.7450	32.8020
 1.7460	32.7620
 1.7470	32.7210
 1.7480	32.6810
 1.7490	32.6360
 1.7500	32.5860
 1.7510	32.5400
 1.7520	32.4920
 1.7530	32.4470
 1.7540	32.4090
 1.7550	32.3620
 1.7560	32.3120
 1.7570	32.2620
 1.7580	32.2110
 1.7590	32.1620
 1.7600	32.1160
 1.7610	32.0680
 1.7620	32.0200
 1.7630	31.9730
 1.7640	31.9290
 1.7650	31.8830
 1.7660	31.8420
 1.7670	31.8060
 1.7680	31.7730
 1.7690	31.7470
 1.7700	31.7170
 1.7710	31.6880
 1.7720	31.6600
 1.7730	31.6320
 1.7740	31.6040
 1.7750	31.5810
 1.7760	31.5520
 1.7770	31.5200
 1.7780	31.4910
 1.7790	31.4600
 1.7800	31.4340
 1.7810	31.4120
 1.7820	31.3900
 1.7830	31.3710
 1.7840	31.3510
 1.7850	31.3330
 1.7860	31.3130
 1.7870	31.2910
 1.7880	31.2710
 1.7890	31.2510
 1.7900	31.2360
 1.7910	31.2220
 1.7920	31.2080
 1.7930	31.2010
 1.7940	31.1980
 1.7950	31.1960
 1.7960	31.2010
 1.7970	31.2000
 1.7980	31.1960
 1.7990	31.1940
 1.8000	31.1920
 1.8010	31.1890
 1.8020	31.1860
 1.8030	31.1840
 1.8040	31.1790
 1.8050	31.1800
 1.8060	31.1890
 1.8070	31.1900
 1.8080	31.1910
 1.8090	31.1880
 1.8100	31.1760
 1.8110	31.1770
 1.8120	31.1770
 1.8130	31.1760
 1.8140	31.1790
 1.8150	31.1760
 1.8160	31.1690
 1.8170	31.1680
 1.8180	31.1640
 1.8190	31.1520
 1.8200	31.1460
 1.8210	31.1370
 1.8220	31.1290
 1.8230	31.1310
 1.8240	31.1240
 1.8250	31.1040
 1.8260	31.0960
 1.8270	31.0630
 1.8280	31.0310
 1.8290	30.9980
 1.8300	30.9660
 1.8310	30.9330
 1.8320	30.9000
 1.8330	30.8680
 1.8340	30.8350
 1.8350	30.8350
 1.8360	30.8000
 1.8370	30.7570
 1.8380	30.7070
 1.8390	30.6530
 1.8400	30.5910
 1.8410	30.5300
 1.8420	30.4660
 1.8430	30.3980
 1.8440	30.3310
 1.8450	30.2600
 1.8460	30.1790
 1.8470	30.0870
 1.8480	29.9860
 1.8490	29.8760
 1.8500	29.7550
 1.8510	29.6230
 1.8520	29.4880
 1.8530	29.3440
 1.8540	29.1880
 1.8550	29.0260
 1.8560	28.8500
 1.8570	28.6590
 1.8580	28.4540
 1.8590	28.2350
 1.8600	28.0010
 1.8610	27.7530
 1.8620	27.4890
 1.8630	27.2110
 1.8640	26.9130
 1.8650	26.5940
 1.8660	26.2530
 1.8670	25.8930
 1.8680	25.5170
 1.8690	25.1180
 1.8700	24.6980
 1.8710	24.2600
 1.8720	23.8080
 1.8730	23.3280
 1.8740	22.8340
 1.8750	22.3320
 1.8760	21.8110
 1.8770	21.2880
 1.8780	20.7610
 1.8790	20.2180
 1.8800	19.6780
 1.8810	19.1330
 1.8820	18.5850
 1.8830	18.0340
 1.8840	17.4880
 1.8850	16.9360
 1.8860	16.3910
 1.8870	15.8590
 1.8880	15.3350
 1.8890	14.8300
 1.8900	14.3360
 1.8910	13.8650
 1.8920	13.4050
 1.8930	12.9760
 1.8940	12.5710
 1.8950	12.1900
 1.8960	11.8360
 1.8970	11.5040
 1.8980	11.1930
 1.8990	10.9080
 1.9000	10.6460
 1.9010	10.4110
 1.9020	10.1920
 1.9030	 9.9950
 1.9040	 9.8220
 1.9050	 9.6640
 1.9060	 9.5210
 1.9070	 9.3970
 1.9080	 9.2860
 1.9090	 9.1910
 1.9100	 9.1070
 1.9110	 9.0330
 1.9120	 8.9730
 1.9130	 8.9150
 1.9140	 8.8640
 1.9150	 8.8190
 1.9160	 8.7770
 1.9170	 8.7430
 1.9180	 8.7160
 1.9190	 8.6950
 1.9200	 8.6860
 1.9210	 8.6800
 1.9220	 8.6750
 1.9230	 8.6730
 1.9240	 8.6740
 1.9250	 8.6770
 1.9260	 8.6810
 1.9270	 8.6890
 1.9280	 8.7030
 1.9290	 8.7170
 1.9300	 8.7320
 1.9310	 8.7500
 1.9320	 8.7730
 1.9330	 8.7970
 1.9340	 8.8210
 1.9350	 8.8530
 1.9360	 8.8900
 1.9370	 8.9260
 1.9380	 8.9650
 1.9390	 9.0070
 1.9400	 9.0440
 1.9410	 9.0840
 1.9420	 9.1270
 1.9430	 9.1720
 1.9440	 9.2190
 1.9450	 9.2670
 1.9460	 9.3180
 1.9470	 9.3680
 1.9480	 9.4220
 1.9490	 9.4800
 1.9500	 9.5430
 1.9510	 9.6040
 1.9520	 9.6640
 1.9530	 9.7230
 1.9540	 9.7810
 1.9550	 9.8410
 1.9560	 9.9010
 1.9570	 9.9640
 1.9580	10.0280
 1.9590	10.0950
 1.9600	10.1660
 1.9610	10.2390
 1.9620	10.3160
 1.9630	10.3970
 1.9640	10.4730
 1.9650	10.5480
 1.9660	10.6220
 1.9670	10.6960
 1.9680	10.7710
 1.9690	10.8480
 1.9700	10.9260
 1.9710	11.0060
 1.9720	11.0860
 1.9730	11.1690
 1.9740	11.2540
 1.9750	11.3410
 1.9760	11.4290
 1.9770	11.5170
 1.9780	11.6070
 1.9790	11.6930
 1.9800	11.7770
 1.9810	11.8640
 1.9820	11.9510
 1.9830	12.0420
 1.9840	12.1350
 1.9850	12.2290
 1.9860	12.3230
 1.9870	12.4190
 1.9880	12.5180
 1.9890	12.6150
 1.9900	12.7130
 1.9910	12.8110
 1.9920	12.9050
 1.9930	12.9970
 1.9940	13.0880
 1.9950	13.1720
 1.9960	13.2650
 1.9970	13.3610
 1.9980	13.4580
 1.9990	13.5600
 2.0000	13.6640
 2.0010	13.7600
 2.0020	13.8570
 2.0030	13.9480
 2.0040	14.0380
 2.0050	14.1310
 2.0060	14.2230
 2.0070	14.3140
 2.0080	14.4060
 2.0090	14.4980
 2.0100	14.5900
 2.0110	14.6810
 2.0120	14.7710
 2.0130	14.8630
 2.0140	14.9590
 2.0150	15.0530
 2.0160	15.1470
 2.0170	15.2450
 2.0180	15.3360
 2.0190	15.4240
 2.0200	15.5110
 2.0210	15.5930
 2.0220	15.6780
 2.0230	15.7640
 2.0240	15.8480
 2.0250	15.9380
 2.0260	16.0210
 2.0270	16.0970
 2.0280	16.1770
 2.0290	16.2520
 2.0300	16.3230
 2.0310	16.3960
 2.0320	16.4700
 2.0330	16.5410
 2.0340	16.6130
 2.0350	16.6820
 2.0360	16.7510
 2.0370	16.8180
 2.0380	16.8830
 2.0390	16.9490
 2.0400	17.0170
 2.0410	17.0800
 2.0420	17.1420
 2.0430	17.2040
 2.0440	17.2640
 2.0450	17.3190
 2.0460	17.3790
 2.0470	17.4400
 2.0480	17.5030
 2.0490	17.5670
 2.0500	17.6310
 2.0510	17.6960
 2.0520	17.7600
 2.0530	17.8240
 2.0540	17.8860
 2.0550	17.9480
 2.0560	18.0070
 2.0570	18.0680
 2.0580	18.1280
 2.0590	18.1880
 2.0600	18.2510
 2.0610	18.3110
 2.0620	18.3680
 2.0630	18.4310
 2.0640	18.4950
 2.0650	18.5590
 2.0660	18.6260
 2.0670	18.6900
 2.0680	18.7520
 2.0690	18.8140
 2.0700	18.8750
 2.0710	18.9360
 2.0720	18.9940
 2.0730	19.0540
 2.0740	19.1160
 2.0750	19.1810
 2.0760	19.2430
 2.0770	19.3070
 2.0780	19.3680
 2.0790	19.4270
 2.0800	19.4850
 2.0810	19.5400
 2.0820	19.5970
 2.0830	19.6540
 2.0840	19.7090
 2.0850	19.7630
 2.0860	19.8200
 2.0870	19.8780
 2.0880	19.9350
 2.0890	19.9930
 2.0900	20.0560
 2.0910	20.1100
 2.0920	20.1590
 2.0930	20.2100
 2.0940	20.2580
 2.0950	20.3070
 2.0960	20.3550
 2.0970	20.4050
 2.0980	20.4550
 2.0990	20.5030
 2.1000	20.5500
 2.1010	20.5980
 2.1020	20.6440
 2.1030	20.6920
 2.1040	20.7420
 2.1050	20.7920
 2.1060	20.8380
 2.1070	20.8810
 2.1080	20.9290
 2.1090	20.9760
 2.1100	21.0230
 2.1110	21.0730
 2.1120	21.1200
 2.1130	21.1700
 2.1140	21.2140
 2.1150	21.2550
 2.1160	21.2960
 2.1170	21.3310
 2.1180	21.3690
 2.1190	21.4090
 2.1200	21.4490
 2.1210	21.4900
 2.1220	21.5270
 2.1230	21.5660
 2.1240	21.6060
 2.1250	21.6420
 2.1260	21.6740
 2.1270	21.7060
 2.1280	21.7330
 2.1290	21.7660
 2.1300	21.8040
 2.1310	21.8350
 2.1320	21.8670
 2.1330	21.8950
 2.1340	21.9170
 2.1350	21.9410
 2.1360	21.9630
 2.1370	21.9870
 2.1380	22.0100
 2.1390	22.0350
 2.1400	22.0650
 2.1410	22.0950
 2.1420	22.1230
 2.1430	22.1520
 2.1440	22.1780
 2.1450	22.2060
 2.1460	22.2230
 2.1470	22.2310
 2.1480	22.2450
 2.1490	22.2490
 2.1500	22.2640
 2.1510	22.2900
 2.1520	22.3080
 2.1530	22.3280
 2.1540	22.3450
 2.1550	22.3570
 2.1560	22.3720
 2.1570	22.3900
 2.1580	22.4040
 2.1590	22.4220
 2.1600	22.4320
 2.1610	22.4470
 2.1620	22.4640
 2.1630	22.4730
 2.1640	22.4820
 2.1650	22.4900
 2.1660	22.4870
 2.1670	22.4970
 2.1680	22.5160
 2.1690	22.5310
 2.1700	22.5530
 2.1710	22.5660
 2.1720	22.5730
 2.1730	22.5850
 2.1740	22.5930
 2.1750	22.6060
 2.1760	22.6260
 2.1770	22.6430
 2.1780	22.6630
 2.1790	22.6780
 2.1800	22.6890
 2.1810	22.7030
 2.1820	22.7170
 2.1830	22.7300
 2.1840	22.7430
 2.1850	22.7580
 2.1860	22.7690
 2.1870	22.7750
 2.1880	22.7840
 2.1890	22.7930
 2.1900	22.8040
 2.1910	22.8130
 2.1920	22.8270
 2.1930	22.8410
 2.1940	22.8590
 2.1950	22.8810
 2.1960	22.9020
 2.1970	22.9260
 2.1980	22.9470
 2.1990	22.9700
 2.2000	22.9870
 2.2010	23.0010
 2.2020	23.0120
 2.2030	23.0060
 2.2040	23.0150
 2.2050	23.0290
 2.2060	23.0460
 2.2070	23.0640
 2.2080	23.0950
 2.2090	23.1090
 2.2100	23.1150
 2.2110	23.1210
 2.2120	23.1190
 2.2130	23.1240
 2.2140	23.1310
 2.2150	23.1380
 2.2160	23.1500
 2.2170	23.1540
 2.2180	23.1530
 2.2190	23.1490
 2.2200	23.1330
 2.2210	23.1280
 2.2220	23.1290
 2.2230	23.1240
 2.2240	23.1250
 2.2250	23.1160
 2.2260	23.0930
 2.2270	23.0780
 2.2280	23.0650
 2.2290	23.0490
 2.2300	23.0380
 2.2310	23.0220
 2.2320	22.9940
 2.2330	22.9650
 2.2340	22.9360
 2.2350	22.9010
 2.2360	22.8710
 2.2370	22.8460
 2.2380	22.8120
 2.2390	22.7750
 2.2400	22.7350
 2.2410	22.6840
 2.2420	22.6430
 2.2430	22.6040
 2.2440	22.5620
 2.2450	22.5230
 2.2460	22.4820
 2.2470	22.4380
 2.2480	22.3950
 2.2490	22.3570
 2.2500	22.3120
 2.2510	22.2630
 2.2520	22.2100
 2.2530	22.1470
 2.2540	22.0910
 2.2550	22.0320
 2.2560	21.9780
 2.2570	21.9350
 2.2580	21.8840
 2.2590	21.8320
 2.2600	21.7800
 2.2610	21.7270
 2.2620	21.6710
 2.2630	21.6250
 2.2640	21.5730
 2.2650	21.5110
 2.2660	21.4600
 2.2670	21.4100
 2.2680	21.3590
 2.2690	21.3110
 2.2700	21.2710
 2.2710	21.2190
 2.2720	21.1580
 2.2730	21.1050
 2.2740	21.0530
 2.2750	20.9990
 2.2760	20.9460
 2.2770	20.8940
 2.2780	20.8380
 2.2790	20.7890
 2.2800	20.7500
 2.2810	20.7030
 2.2820	20.6540
 2.2830	20.6050
 2.2840	20.5520
 2.2850	20.5000
 2.2860	20.4460
 2.2870	20.3950
 2.2880	20.3480
 2.2890	20.2940
 2.2900	20.2430
 2.2910	20.1850
 2.2920	20.1130
 2.2930	20.0510
 2.2940	19.9870
 2.2950	19.9310
 2.2960	19.8900
 2.2970	19.8400
 2.2980	19.7930
 2.2990	19.7390
 2.3000	19.6730
 2.3010	19.6090
 2.3020	19.5510
 2.3030	19.4930
 2.3040	19.4320
 2.3050	19.3730
 2.3060	19.3130
 2.3070	19.2600
 2.3080	19.2260
 2.3090	19.1930
 2.3100	19.1520
 2.3110	19.1160
 2.3120	19.0770
 2.3130	19.0310
 2.3140	18.9970
 2.3150	18.9700
 2.3160	18.9460
 2.3170	18.9310
 2.3180	18.9100
 2.3190	18.8910
 2.3200	18.8680
 2.3210	18.8410
 2.3220	18.8130
 2.3230	18.7860
 2.3240	18.7560
 2.3250	18.7230
 2.3260	18.6880
 2.3270	18.6560
 2.3280	18.6140
 2.3290	18.5640
 2.3300	18.5180
 2.3310	18.4650
 2.3320	18.4190
 2.3330	18.3850
 2.3340	18.3380
 2.3350	18.2890
 2.3360	18.2310
 2.3370	18.1530
 2.3380	18.0930
 2.3390	18.0410
 2.3400	17.9790
 2.3410	17.9170
 2.3420	17.8580
 2.3430	17.7880
 2.3440	17.7340
 2.3450	17.6980
 2.3460	17.6550
 2.3470	17.6170
 2.3480	17.5680
 2.3490	17.5070
 2.3500	17.4590
 2.3510	17.4120
 2.3520	17.3700
 2.3530	17.3370
 2.3540	17.3120
 2.3550	17.2850
 2.3560	17.2490
 2.3570	17.2210
 2.3580	17.1880
 2.3590	17.1420
 2.3600	17.0950
 2.3610	17.0550
 2.3620	17.0120
 2.3630	16.9600
 2.3640	16.9030
 2.3650	16.8370
 2.3660	16.7730
 2.3670	16.7200
 2.3680	16.6790
 2.3690	16.6390
 2.3700	16.5890
 2.3710	16.5360
 2.3720	16.4790
 2.3730	16.4220
 2.3740	16.3630
 2.3750	16.3200
 2.3760	16.2860
 2.3770	16.2220
 2.3780	16.1640
 2.3790	16.1150
 2.3800	16.0520
 2.3810	16.0200
 2.3820	15.9980
 2.3830	15.9360
 2.3840	15.8760
 2.3850	15.8200
 2.3860	15.7450
 2.3870	15.6950
 2.3880	15.6600
 2.3890	15.6020
 2.3900	15.5390
 2.3910	15.4820
 2.3920	15.4110
 2.3930	15.3440
 2.3940	15.3060
 2.3950	15.2550
 2.3960	15.2000
 2.3970	15.1640
 2.3980	15.1160
 2.3990	15.0660
 2.4000	15.0220
 2.4010	14.9530
 2.4020	14.8810
 2.4030	14.8190
 2.4040	14.7440
 2.4050	14.6750
 2.4060	14.6140
 2.4070	14.5580
 2.4080	14.5070
 2.4090	14.4340
 2.4100	14.3650
 2.4110	14.3000
 2.4120	14.2190
 2.4130	14.1650
 2.4140	14.1010
 2.4150	14.0180
 2.4160	13.9520
 2.4170	13.8830
 2.4180	13.8290
 2.4190	13.7750
 2.4200	13.6990
 2.4210	13.6350
 2.4220	13.5720
 2.4230	13.5130
 2.4240	13.4620
 2.4250	13.3940
 2.4260	13.3380
 2.4270	13.2950
 2.4280	13.2380
 2.4290	13.1730
 2.4300	13.0850
 2.4310	12.9740
 2.4320	12.8840
 2.4330	12.8290
 2.4340	12.7850
 2.4350	12.7470
 2.4360	12.7140
 2.4370	12.6500
 2.4380	12.5870
 2.4390	12.5380
 2.4400	12.4700
 2.4410	12.4020
 2.4420	12.3290
 2.4430	12.2630
 2.4440	12.2090
 2.4450	12.1550
 2.4460	12.1240
 2.4470	12.0650
 2.4480	11.9590
 2.4490	11.8720
 2.4500	11.8090
 2.4510	11.7420
 2.4520	11.6970
 2.4530	11.6630
 2.4540	11.6160
 2.4550	11.5730
 2.4560	11.5470
 2.4570	11.4950
 2.4580	11.4100
 2.4590	11.3180
 2.4600	11.2160
 2.4610	11.1470
 2.4620	11.1090
 2.4630	11.0640
 2.4640	11.0250
 2.4650	11.0090
 2.4660	10.9760
 2.4670	10.9500
 2.4680	10.9470
 2.4690	10.8800
 2.4700	10.8230
 2.4710	10.7270
 2.4720	10.6690
 2.4730	10.6650
 2.4740	10.6100
 2.4750	10.5340
 2.4760	10.4750
 2.4770	10.3820
 2.4780	10.3310
 2.4790	10.3290
 2.4800	10.3130
 2.4810	10.3050
 2.4820	10.2730
 2.4830	10.2340
 2.4840	10.2050
 2.4850	10.1730
 2.4860	10.1290
 2.4870	10.1380
 2.4880	10.1820
 2.4890	10.2050
 2.4900	10.1940
 2.4910	10.1060
 2.4920	 9.9620
 2.4930	 9.8380
 2.4940	 9.7800
 2.4950	 9.7800
 2.4960	 9.7820
 2.4970	 9.7740
 2.4980	 9.7980
 2.4990	 9.8060
 2.5000	 9.7840
