Name: Beaucarnea recurvata
Type: vegetation
Class: Tree
Genus: Beaucarnea
Species: recurvata
Sample No.: JPL070
Owner: JPL
Wavelength Range: VSWIR
Origin: 34.12603; - 118.11015; WGS84
Collection Date: 2/2/2016
Description: Samples were collected at the Huntington Garden in San Marino California as part of a JPL Subcontract studying HyTES imagery. Samples were taken to JPL and processed within 48 hours of collection. The same leaves were processed in the Nicolet and then measured using the ASD.
Measurement: Bidirectional reflectance
First Column: X
Second Column: Y
X Units: Wavelength (micrometer)
Y Units: Reflectance (percentage)
First X Value: 0.35
Last X Value: 2.5
Number of X Values: 2151
Additional Information: 

 0.3500	 6.2810
 0.3510	 6.1030
 0.3520	 4.5580
 0.3530	 3.9100
 0.3540	 5.3000
 0.3550	 5.3990
 0.3560	 5.7870
 0.3570	 6.1990
 0.3580	 5.6590
 0.3590	 5.4930
 0.3600	 5.8020
 0.3610	 6.2830
 0.3620	 6.3710
 0.3630	 6.0540
 0.3640	 5.5510
 0.3650	 5.1670
 0.3660	 5.3820
 0.3670	 5.6680
 0.3680	 5.6810
 0.3690	 5.2750
 0.3700	 4.7200
 0.3710	 4.7430
 0.3720	 5.4440
 0.3730	 5.7290
 0.3740	 5.8700
 0.3750	 5.8330
 0.3760	 5.6550
 0.3770	 5.9780
 0.3780	 6.1010
 0.3790	 5.7250
 0.3800	 5.0380
 0.3810	 5.2940
 0.3820	 5.6120
 0.3830	 5.3910
 0.3840	 5.3850
 0.3850	 5.8140
 0.3860	 6.2070
 0.3870	 5.9970
 0.3880	 5.6960
 0.3890	 5.4980
 0.3900	 5.5470
 0.3910	 5.9620
 0.3920	 6.1110
 0.3930	 6.1590
 0.3940	 6.2750
 0.3950	 6.1910
 0.3960	 5.8550
 0.3970	 5.6510
 0.3980	 6.0060
 0.3990	 5.9670
 0.4000	 6.1730
 0.4010	 6.6240
 0.4020	 6.3390
 0.4030	 6.0340
 0.4040	 6.0310
 0.4050	 6.3780
 0.4060	 6.6540
 0.4070	 6.5730
 0.4080	 6.3740
 0.4090	 6.5600
 0.4100	 6.3780
 0.4110	 6.3560
 0.4120	 6.6920
 0.4130	 6.7270
 0.4140	 6.5960
 0.4150	 6.4990
 0.4160	 6.5680
 0.4170	 6.3980
 0.4180	 6.4160
 0.4190	 6.6840
 0.4200	 6.8970
 0.4210	 6.8280
 0.4220	 6.5960
 0.4230	 6.4010
 0.4240	 6.4620
 0.4250	 6.6270
 0.4260	 6.7670
 0.4270	 6.7830
 0.4280	 6.8120
 0.4290	 6.7980
 0.4300	 6.7370
 0.4310	 6.7040
 0.4320	 6.7570
 0.4330	 6.8020
 0.4340	 6.7600
 0.4350	 6.7670
 0.4360	 6.7690
 0.4370	 6.7590
 0.4380	 6.7710
 0.4390	 6.8470
 0.4400	 6.8830
 0.4410	 6.8480
 0.4420	 6.9200
 0.4430	 6.9370
 0.4440	 6.8780
 0.4450	 6.8040
 0.4460	 6.9010
 0.4470	 7.0320
 0.4480	 7.0590
 0.4490	 6.8810
 0.4500	 6.8080
 0.4510	 6.8790
 0.4520	 7.0230
 0.4530	 7.0630
 0.4540	 7.0380
 0.4550	 7.0120
 0.4560	 7.0530
 0.4570	 7.0770
 0.4580	 7.1080
 0.4590	 7.1390
 0.4600	 7.0730
 0.4610	 7.1040
 0.4620	 7.1140
 0.4630	 6.9710
 0.4640	 7.0990
 0.4650	 7.1570
 0.4660	 7.0850
 0.4670	 7.1390
 0.4680	 7.1610
 0.4690	 7.1450
 0.4700	 7.1220
 0.4710	 7.1440
 0.4720	 7.1420
 0.4730	 7.1400
 0.4740	 7.1960
 0.4750	 7.1730
 0.4760	 7.1290
 0.4770	 7.1240
 0.4780	 7.1870
 0.4790	 7.2060
 0.4800	 7.1990
 0.4810	 7.2100
 0.4820	 7.1890
 0.4830	 7.1990
 0.4840	 7.2320
 0.4850	 7.2250
 0.4860	 7.2610
 0.4870	 7.2810
 0.4880	 7.2500
 0.4890	 7.2780
 0.4900	 7.2690
 0.4910	 7.2600
 0.4920	 7.3230
 0.4930	 7.3040
 0.4940	 7.3040
 0.4950	 7.3780
 0.4960	 7.4860
 0.4970	 7.5660
 0.4980	 7.6240
 0.4990	 7.6800
 0.5000	 7.7150
 0.5010	 7.7690
 0.5020	 7.8360
 0.5030	 7.8740
 0.5040	 8.0010
 0.5050	 8.1100
 0.5060	 8.1490
 0.5070	 8.2740
 0.5080	 8.4180
 0.5090	 8.5570
 0.5100	 8.6890
 0.5110	 8.8650
 0.5120	 9.0260
 0.5130	 9.1690
 0.5140	 9.3850
 0.5150	 9.5940
 0.5160	 9.7890
 0.5170	 9.9870
 0.5180	10.2360
 0.5190	10.4870
 0.5200	10.7130
 0.5210	10.9080
 0.5220	11.1680
 0.5230	11.4120
 0.5240	11.6000
 0.5250	11.8340
 0.5260	12.0860
 0.5270	12.3220
 0.5280	12.5110
 0.5290	12.6770
 0.5300	12.8330
 0.5310	12.9880
 0.5320	13.1500
 0.5330	13.2760
 0.5340	13.3830
 0.5350	13.4950
 0.5360	13.6040
 0.5370	13.7020
 0.5380	13.7750
 0.5390	13.8150
 0.5400	13.8670
 0.5410	13.9450
 0.5420	14.0360
 0.5430	14.0900
 0.5440	14.1360
 0.5450	14.1690
 0.5460	14.1790
 0.5470	14.2200
 0.5480	14.2460
 0.5490	14.2490
 0.5500	14.2810
 0.5510	14.2960
 0.5520	14.2890
 0.5530	14.2700
 0.5540	14.2500
 0.5550	14.2360
 0.5560	14.2200
 0.5570	14.1790
 0.5580	14.1110
 0.5590	14.0280
 0.5600	13.9420
 0.5610	13.8580
 0.5620	13.7690
 0.5630	13.6610
 0.5640	13.5270
 0.5650	13.4150
 0.5660	13.2950
 0.5670	13.1520
 0.5680	12.9960
 0.5690	12.8510
 0.5700	12.7090
 0.5710	12.5620
 0.5720	12.4190
 0.5730	12.2810
 0.5740	12.1500
 0.5750	12.0250
 0.5760	11.9180
 0.5770	11.8330
 0.5780	11.7600
 0.5790	11.6720
 0.5800	11.5950
 0.5810	11.5190
 0.5820	11.4280
 0.5830	11.3360
 0.5840	11.2790
 0.5850	11.2450
 0.5860	11.1770
 0.5870	11.1120
 0.5880	11.0590
 0.5890	11.0160
 0.5900	10.9490
 0.5910	10.8890
 0.5920	10.8450
 0.5930	10.8100
 0.5940	10.7710
 0.5950	10.7290
 0.5960	10.6880
 0.5970	10.6580
 0.5980	10.6460
 0.5990	10.6340
 0.6000	10.6040
 0.6010	10.5740
 0.6020	10.5340
 0.6030	10.4850
 0.6040	10.4420
 0.6050	10.3980
 0.6060	10.3600
 0.6070	10.3190
 0.6080	10.2210
 0.6090	10.1470
 0.6100	10.0960
 0.6110	10.0340
 0.6120	 9.9800
 0.6130	 9.9230
 0.6140	 9.8550
 0.6150	 9.7740
 0.6160	 9.6930
 0.6170	 9.6220
 0.6180	 9.5720
 0.6190	 9.5580
 0.6200	 9.5100
 0.6210	 9.4380
 0.6220	 9.4110
 0.6230	 9.3950
 0.6240	 9.3710
 0.6250	 9.3410
 0.6260	 9.3430
 0.6270	 9.3340
 0.6280	 9.3190
 0.6290	 9.3180
 0.6300	 9.3130
 0.6310	 9.3040
 0.6320	 9.2930
 0.6330	 9.2910
 0.6340	 9.2670
 0.6350	 9.2200
 0.6360	 9.1600
 0.6370	 9.1010
 0.6380	 9.0440
 0.6390	 8.9780
 0.6400	 8.8870
 0.6410	 8.7860
 0.6420	 8.6930
 0.6430	 8.6110
 0.6440	 8.5300
 0.6450	 8.4510
 0.6460	 8.3740
 0.6470	 8.3000
 0.6480	 8.2420
 0.6490	 8.1970
 0.6500	 8.1580
 0.6510	 8.1200
 0.6520	 8.0810
 0.6530	 8.0630
 0.6540	 8.0700
 0.6550	 8.0640
 0.6560	 8.0180
 0.6570	 7.9520
 0.6580	 7.9050
 0.6590	 7.8960
 0.6600	 7.8740
 0.6610	 7.8220
 0.6620	 7.7690
 0.6630	 7.7250
 0.6640	 7.6910
 0.6650	 7.6670
 0.6660	 7.6490
 0.6670	 7.6280
 0.6680	 7.6080
 0.6690	 7.6030
 0.6700	 7.6070
 0.6710	 7.6180
 0.6720	 7.6320
 0.6730	 7.6390
 0.6740	 7.6630
 0.6750	 7.6950
 0.6760	 7.7210
 0.6770	 7.7600
 0.6780	 7.8060
 0.6790	 7.8660
 0.6800	 7.9450
 0.6810	 8.0220
 0.6820	 8.1010
 0.6830	 8.1870
 0.6840	 8.2770
 0.6850	 8.3880
 0.6860	 8.5230
 0.6870	 8.6810
 0.6880	 8.8690
 0.6890	 9.1080
 0.6900	 9.3960
 0.6910	 9.7200
 0.6920	10.1030
 0.6930	10.5710
 0.6940	11.1260
 0.6950	11.7300
 0.6960	12.3890
 0.6970	13.1150
 0.6980	13.9150
 0.6990	14.7440
 0.7000	15.6050
 0.7010	16.4960
 0.7020	17.4070
 0.7030	18.3330
 0.7040	19.2580
 0.7050	20.1750
 0.7060	21.0960
 0.7070	22.0110
 0.7080	22.9260
 0.7090	23.8480
 0.7100	24.7370
 0.7110	25.6450
 0.7120	26.5730
 0.7130	27.4780
 0.7140	28.3790
 0.7150	29.2730
 0.7160	30.1620
 0.7170	31.0700
 0.7180	31.9580
 0.7190	32.8310
 0.7200	33.7100
 0.7210	34.5780
 0.7220	35.4030
 0.7230	36.2050
 0.7240	37.0510
 0.7250	37.8440
 0.7260	38.5920
 0.7270	39.3210
 0.7280	40.0270
 0.7290	40.7090
 0.7300	41.3620
 0.7310	41.9800
 0.7320	42.5710
 0.7330	43.1450
 0.7340	43.6920
 0.7350	44.1800
 0.7360	44.6430
 0.7370	45.0850
 0.7380	45.5020
 0.7390	45.8990
 0.7400	46.2630
 0.7410	46.5950
 0.7420	46.9010
 0.7430	47.1860
 0.7440	47.4390
 0.7450	47.6630
 0.7460	47.8710
 0.7470	48.0560
 0.7480	48.2240
 0.7490	48.3840
 0.7500	48.5490
 0.7510	48.6740
 0.7520	48.7620
 0.7530	48.8320
 0.7540	48.8990
 0.7550	48.9800
 0.7560	49.0610
 0.7570	49.1150
 0.7580	49.1700
 0.7590	49.2110
 0.7600	49.2370
 0.7610	49.2870
 0.7620	49.3160
 0.7630	49.3380
 0.7640	49.3710
 0.7650	49.3980
 0.7660	49.3910
 0.7670	49.3810
 0.7680	49.4240
 0.7690	49.4480
 0.7700	49.4500
 0.7710	49.4370
 0.7720	49.4170
 0.7730	49.4020
 0.7740	49.3990
 0.7750	49.4090
 0.7760	49.4240
 0.7770	49.4350
 0.7780	49.4300
 0.7790	49.4030
 0.7800	49.4060
 0.7810	49.4020
 0.7820	49.3950
 0.7830	49.4290
 0.7840	49.4190
 0.7850	49.4020
 0.7860	49.4070
 0.7870	49.4040
 0.7880	49.3720
 0.7890	49.3520
 0.7900	49.3820
 0.7910	49.3760
 0.7920	49.3880
 0.7930	49.3970
 0.7940	49.3490
 0.7950	49.3400
 0.7960	49.3570
 0.7970	49.3690
 0.7980	49.3400
 0.7990	49.3350
 0.8000	49.3110
 0.8010	49.2510
 0.8020	49.2800
 0.8030	49.3010
 0.8040	49.2880
 0.8050	49.2520
 0.8060	49.2140
 0.8070	49.2180
 0.8080	49.2390
 0.8090	49.2000
 0.8100	49.1910
 0.8110	49.1800
 0.8120	49.1530
 0.8130	49.1410
 0.8140	49.1210
 0.8150	49.1030
 0.8160	49.0970
 0.8170	49.0860
 0.8180	49.0870
 0.8190	49.0780
 0.8200	49.0290
 0.8210	49.0030
 0.8220	48.9990
 0.8230	49.0020
 0.8240	48.9850
 0.8250	48.9850
 0.8260	48.9680
 0.8270	48.9260
 0.8280	48.8980
 0.8290	48.8900
 0.8300	48.8730
 0.8310	48.8370
 0.8320	48.8730
 0.8330	48.8600
 0.8340	48.8310
 0.8350	48.8560
 0.8360	48.8320
 0.8370	48.8220
 0.8380	48.8450
 0.8390	48.8630
 0.8400	48.8420
 0.8410	48.8210
 0.8420	48.8110
 0.8430	48.7670
 0.8440	48.7980
 0.8450	48.8410
 0.8460	48.8380
 0.8470	48.8430
 0.8480	48.8230
 0.8490	48.8270
 0.8500	48.8930
 0.8510	48.9050
 0.8520	48.9090
 0.8530	48.9120
 0.8540	48.9010
 0.8550	48.9300
 0.8560	48.9100
 0.8570	48.8630
 0.8580	48.9100
 0.8590	48.9370
 0.8600	48.9700
 0.8610	49.0050
 0.8620	48.9570
 0.8630	48.9810
 0.8640	49.0230
 0.8650	49.0150
 0.8660	49.0100
 0.8670	49.0670
 0.8680	49.1190
 0.8690	49.0860
 0.8700	49.0650
 0.8710	49.0470
 0.8720	49.0460
 0.8730	49.0770
 0.8740	49.0940
 0.8750	49.1190
 0.8760	49.1460
 0.8770	49.1440
 0.8780	49.1440
 0.8790	49.1620
 0.8800	49.1900
 0.8810	49.1930
 0.8820	49.2030
 0.8830	49.2000
 0.8840	49.1840
 0.8850	49.2250
 0.8860	49.2140
 0.8870	49.1940
 0.8880	49.2290
 0.8890	49.2680
 0.8900	49.2660
 0.8910	49.2490
 0.8920	49.2640
 0.8930	49.3050
 0.8940	49.2990
 0.8950	49.2510
 0.8960	49.2220
 0.8970	49.2290
 0.8980	49.2710
 0.8990	49.3280
 0.9000	49.3700
 0.9010	49.3600
 0.9020	49.3280
 0.9030	49.3030
 0.9040	49.2930
 0.9050	49.2980
 0.9060	49.3050
 0.9070	49.3080
 0.9080	49.3100
 0.9090	49.3040
 0.9100	49.2920
 0.9110	49.2770
 0.9120	49.2590
 0.9130	49.2530
 0.9140	49.2560
 0.9150	49.2490
 0.9160	49.2140
 0.9170	49.1820
 0.9180	49.1720
 0.9190	49.1840
 0.9200	49.1570
 0.9210	49.0920
 0.9220	49.0480
 0.9230	49.0800
 0.9240	49.0490
 0.9250	48.9940
 0.9260	48.9520
 0.9270	48.9400
 0.9280	48.9310
 0.9290	48.8670
 0.9300	48.7690
 0.9310	48.7220
 0.9320	48.7000
 0.9330	48.6730
 0.9340	48.6300
 0.9350	48.5880
 0.9360	48.5180
 0.9370	48.4500
 0.9380	48.3870
 0.9390	48.2830
 0.9400	48.2340
 0.9410	48.1760
 0.9420	48.0720
 0.9430	47.9860
 0.9440	47.9620
 0.9450	47.9280
 0.9460	47.8280
 0.9470	47.6990
 0.9480	47.5760
 0.9490	47.4870
 0.9500	47.4210
 0.9510	47.2830
 0.9520	47.1360
 0.9530	47.0140
 0.9540	46.9160
 0.9550	46.7740
 0.9560	46.6050
 0.9570	46.4560
 0.9580	46.3700
 0.9590	46.3310
 0.9600	46.2550
 0.9610	46.1440
 0.9620	46.0490
 0.9630	46.0310
 0.9640	45.9710
 0.9650	45.8880
 0.9660	45.8450
 0.9670	45.7850
 0.9680	45.7700
 0.9690	45.7450
 0.9700	45.6410
 0.9710	45.5680
 0.9720	45.6030
 0.9730	45.6900
 0.9740	45.7090
 0.9750	45.5860
 0.9760	45.5560
 0.9770	45.5930
 0.9780	45.5700
 0.9790	45.6150
 0.9800	45.5630
 0.9810	45.4950
 0.9820	45.5660
 0.9830	45.6320
 0.9840	45.5960
 0.9850	45.5510
 0.9860	45.6390
 0.9870	45.7180
 0.9880	45.8090
 0.9890	45.8190
 0.9900	45.6790
 0.9910	45.6730
 0.9920	45.7120
 0.9930	45.7510
 0.9940	45.7840
 0.9950	45.8430
 0.9960	45.9000
 0.9970	45.9530
 0.9980	46.0100
 0.9990	46.0870
 1.0000	46.0660
 1.0010	46.2850
 1.0020	46.3400
 1.0030	46.3490
 1.0040	46.3890
 1.0050	46.4430
 1.0060	46.4810
 1.0070	46.5480
 1.0080	46.5860
 1.0090	46.5920
 1.0100	46.6330
 1.0110	46.6900
 1.0120	46.7200
 1.0130	46.7650
 1.0140	46.7940
 1.0150	46.7850
 1.0160	46.7840
 1.0170	46.8300
 1.0180	46.8940
 1.0190	46.9880
 1.0200	47.0890
 1.0210	47.1690
 1.0220	47.2360
 1.0230	47.2690
 1.0240	47.2450
 1.0250	47.2690
 1.0260	47.2900
 1.0270	47.3130
 1.0280	47.3410
 1.0290	47.3970
 1.0300	47.4680
 1.0310	47.5240
 1.0320	47.6100
 1.0330	47.6730
 1.0340	47.7060
 1.0350	47.7340
 1.0360	47.7760
 1.0370	47.8000
 1.0380	47.8230
 1.0390	47.8320
 1.0400	47.8580
 1.0410	47.8890
 1.0420	47.9180
 1.0430	47.9620
 1.0440	47.9810
 1.0450	47.9580
 1.0460	47.9800
 1.0470	48.0190
 1.0480	48.0540
 1.0490	48.1420
 1.0500	48.1830
 1.0510	48.1890
 1.0520	48.1840
 1.0530	48.2000
 1.0540	48.1990
 1.0550	48.2260
 1.0560	48.2830
 1.0570	48.3200
 1.0580	48.3580
 1.0590	48.3870
 1.0600	48.4190
 1.0610	48.4320
 1.0620	48.4220
 1.0630	48.4240
 1.0640	48.4110
 1.0650	48.4130
 1.0660	48.4520
 1.0670	48.4560
 1.0680	48.4480
 1.0690	48.4300
 1.0700	48.4160
 1.0710	48.3670
 1.0720	48.3750
 1.0730	48.4160
 1.0740	48.4430
 1.0750	48.5030
 1.0760	48.5190
 1.0770	48.5080
 1.0780	48.5060
 1.0790	48.4910
 1.0800	48.4820
 1.0810	48.4740
 1.0820	48.4720
 1.0830	48.4830
 1.0840	48.4740
 1.0850	48.4430
 1.0860	48.4420
 1.0870	48.4280
 1.0880	48.3940
 1.0890	48.3870
 1.0900	48.4030
 1.0910	48.3990
 1.0920	48.4020
 1.0930	48.3870
 1.0940	48.3500
 1.0950	48.3310
 1.0960	48.3090
 1.0970	48.2920
 1.0980	48.2890
 1.0990	48.2770
 1.1000	48.2610
 1.1010	48.2430
 1.1020	48.2270
 1.1030	48.2030
 1.1040	48.1580
 1.1050	48.1350
 1.1060	48.1080
 1.1070	48.0790
 1.1080	48.0500
 1.1090	48.0280
 1.1100	47.9980
 1.1110	47.9640
 1.1120	47.9260
 1.1130	47.8800
 1.1140	47.8450
 1.1150	47.8190
 1.1160	47.7800
 1.1170	47.7390
 1.1180	47.6990
 1.1190	47.6550
 1.1200	47.6030
 1.1210	47.5510
 1.1220	47.4920
 1.1230	47.4100
 1.1240	47.3080
 1.1250	47.2100
 1.1260	47.1060
 1.1270	47.0000
 1.1280	46.8950
 1.1290	46.7740
 1.1300	46.6540
 1.1310	46.5070
 1.1320	46.3470
 1.1330	46.1680
 1.1340	45.9580
 1.1350	45.7540
 1.1360	45.5440
 1.1370	45.3210
 1.1380	45.0930
 1.1390	44.8550
 1.1400	44.5950
 1.1410	44.3350
 1.1420	44.0900
 1.1430	43.8380
 1.1440	43.5920
 1.1450	43.3520
 1.1460	43.1130
 1.1470	42.8640
 1.1480	42.6430
 1.1490	42.4350
 1.1500	42.2350
 1.1510	42.0510
 1.1520	41.8770
 1.1530	41.7040
 1.1540	41.5500
 1.1550	41.4130
 1.1560	41.2870
 1.1570	41.1820
 1.1580	41.0990
 1.1590	41.0190
 1.1600	40.9530
 1.1610	40.8820
 1.1620	40.8010
 1.1630	40.7230
 1.1640	40.6450
 1.1650	40.5860
 1.1660	40.5370
 1.1670	40.4940
 1.1680	40.4750
 1.1690	40.4400
 1.1700	40.3960
 1.1710	40.3640
 1.1720	40.3340
 1.1730	40.3080
 1.1740	40.2950
 1.1750	40.2740
 1.1760	40.2430
 1.1770	40.2230
 1.1780	40.1970
 1.1790	40.1610
 1.1800	40.1300
 1.1810	40.0930
 1.1820	40.0590
 1.1830	40.0380
 1.1840	40.0040
 1.1850	39.9690
 1.1860	39.9440
 1.1870	39.9090
 1.1880	39.8800
 1.1890	39.8650
 1.1900	39.8410
 1.1910	39.8060
 1.1920	39.7800
 1.1930	39.7610
 1.1940	39.7370
 1.1950	39.7080
 1.1960	39.6950
 1.1970	39.6830
 1.1980	39.6700
 1.1990	39.6760
 1.2000	39.6780
 1.2010	39.6830
 1.2020	39.6880
 1.2030	39.6860
 1.2040	39.6980
 1.2050	39.7070
 1.2060	39.7130
 1.2070	39.7360
 1.2080	39.7460
 1.2090	39.7550
 1.2100	39.7850
 1.2110	39.8060
 1.2120	39.8210
 1.2130	39.8400
 1.2140	39.8550
 1.2150	39.8780
 1.2160	39.9020
 1.2170	39.9420
 1.2180	39.9900
 1.2190	40.0400
 1.2200	40.0810
 1.2210	40.1200
 1.2220	40.1590
 1.2230	40.2030
 1.2240	40.2630
 1.2250	40.3200
 1.2260	40.3730
 1.2270	40.4230
 1.2280	40.4590
 1.2290	40.5000
 1.2300	40.5470
 1.2310	40.5890
 1.2320	40.6430
 1.2330	40.6980
 1.2340	40.7380
 1.2350	40.7690
 1.2360	40.7970
 1.2370	40.8140
 1.2380	40.8320
 1.2390	40.8670
 1.2400	40.9050
 1.2410	40.9410
 1.2420	40.9740
 1.2430	41.0010
 1.2440	41.0290
 1.2450	41.0570
 1.2460	41.0840
 1.2470	41.1120
 1.2480	41.1320
 1.2490	41.1520
 1.2500	41.1860
 1.2510	41.2040
 1.2520	41.2220
 1.2530	41.2540
 1.2540	41.2700
 1.2550	41.2920
 1.2560	41.3100
 1.2570	41.3170
 1.2580	41.3290
 1.2590	41.3400
 1.2600	41.3500
 1.2610	41.3630
 1.2620	41.3780
 1.2630	41.3900
 1.2640	41.3950
 1.2650	41.4010
 1.2660	41.4060
 1.2670	41.4040
 1.2680	41.4070
 1.2690	41.4110
 1.2700	41.4080
 1.2710	41.4000
 1.2720	41.3890
 1.2730	41.3740
 1.2740	41.3520
 1.2750	41.3300
 1.2760	41.3140
 1.2770	41.2990
 1.2780	41.2880
 1.2790	41.2640
 1.2800	41.2290
 1.2810	41.1970
 1.2820	41.1630
 1.2830	41.1390
 1.2840	41.1170
 1.2850	41.0890
 1.2860	41.0570
 1.2870	41.0190
 1.2880	40.9780
 1.2890	40.9320
 1.2900	40.8810
 1.2910	40.8200
 1.2920	40.7460
 1.2930	40.6750
 1.2940	40.6010
 1.2950	40.5250
 1.2960	40.4670
 1.2970	40.3970
 1.2980	40.3190
 1.2990	40.2520
 1.3000	40.1700
 1.3010	40.0870
 1.3020	39.9990
 1.3030	39.8980
 1.3040	39.7880
 1.3050	39.6780
 1.3060	39.5700
 1.3070	39.4560
 1.3080	39.3470
 1.3090	39.2320
 1.3100	39.1180
 1.3110	39.0040
 1.3120	38.8750
 1.3130	38.7340
 1.3140	38.5930
 1.3150	38.4410
 1.3160	38.3030
 1.3170	38.1730
 1.3180	38.0340
 1.3190	37.8820
 1.3200	37.7160
 1.3210	37.5310
 1.3220	37.3570
 1.3230	37.2050
 1.3240	37.0540
 1.3250	36.8990
 1.3260	36.7370
 1.3270	36.5620
 1.3280	36.3690
 1.3290	36.1770
 1.3300	35.9820
 1.3310	35.7820
 1.3320	35.5980
 1.3330	35.4120
 1.3340	35.2260
 1.3350	35.0500
 1.3360	34.8690
 1.3370	34.6810
 1.3380	34.5060
 1.3390	34.3300
 1.3400	34.1520
 1.3410	33.9870
 1.3420	33.8120
 1.3430	33.6400
 1.3440	33.4790
 1.3450	33.3140
 1.3460	33.1470
 1.3470	32.9890
 1.3480	32.8310
 1.3490	32.6780
 1.3500	32.5320
 1.3510	32.3900
 1.3520	32.2410
 1.3530	32.0960
 1.3540	31.9560
 1.3550	31.8120
 1.3560	31.6730
 1.3570	31.5350
 1.3580	31.3920
 1.3590	31.2390
 1.3600	31.0820
 1.3610	30.9210
 1.3620	30.7520
 1.3630	30.5840
 1.3640	30.4130
 1.3650	30.2330
 1.3660	30.0470
 1.3670	29.8480
 1.3680	29.6380
 1.3690	29.4240
 1.3700	29.1950
 1.3710	28.9540
 1.3720	28.6940
 1.3730	28.4160
 1.3740	28.1240
 1.3750	27.8130
 1.3760	27.4910
 1.3770	27.1540
 1.3780	26.7920
 1.3790	26.4190
 1.3800	26.0280
 1.3810	25.6120
 1.3820	25.1900
 1.3830	24.7540
 1.3840	24.3100
 1.3850	23.8530
 1.3860	23.3920
 1.3870	22.9170
 1.3880	22.4470
 1.3890	21.9720
 1.3900	21.5000
 1.3910	21.0390
 1.3920	20.5790
 1.3930	20.1220
 1.3940	19.6800
 1.3950	19.2410
 1.3960	18.8160
 1.3970	18.4140
 1.3980	18.0170
 1.3990	17.6450
 1.4000	17.2900
 1.4010	16.9470
 1.4020	16.6250
 1.4030	16.3140
 1.4040	16.0210
 1.4050	15.7490
 1.4060	15.4920
 1.4070	15.2570
 1.4080	15.0350
 1.4090	14.8240
 1.4100	14.6270
 1.4110	14.4400
 1.4120	14.2680
 1.4130	14.1040
 1.4140	13.9550
 1.4150	13.8240
 1.4160	13.6950
 1.4170	13.5790
 1.4180	13.4700
 1.4190	13.3610
 1.4200	13.2620
 1.4210	13.1700
 1.4220	13.0840
 1.4230	13.0070
 1.4240	12.9350
 1.4250	12.8680
 1.4260	12.8090
 1.4270	12.7510
 1.4280	12.6970
 1.4290	12.6500
 1.4300	12.6090
 1.4310	12.5700
 1.4320	12.5370
 1.4330	12.5060
 1.4340	12.4780
 1.4350	12.4510
 1.4360	12.4270
 1.4370	12.4030
 1.4380	12.3800
 1.4390	12.3610
 1.4400	12.3440
 1.4410	12.3310
 1.4420	12.3210
 1.4430	12.3100
 1.4440	12.3030
 1.4450	12.2970
 1.4460	12.2870
 1.4470	12.2790
 1.4480	12.2740
 1.4490	12.2730
 1.4500	12.2760
 1.4510	12.2760
 1.4520	12.2790
 1.4530	12.2820
 1.4540	12.2830
 1.4550	12.2930
 1.4560	12.3020
 1.4570	12.3100
 1.4580	12.3250
 1.4590	12.3370
 1.4600	12.3530
 1.4610	12.3720
 1.4620	12.3880
 1.4630	12.4100
 1.4640	12.4400
 1.4650	12.4690
 1.4660	12.5050
 1.4670	12.5460
 1.4680	12.5840
 1.4690	12.6240
 1.4700	12.6710
 1.4710	12.7170
 1.4720	12.7670
 1.4730	12.8220
 1.4740	12.8720
 1.4750	12.9240
 1.4760	12.9810
 1.4770	13.0400
 1.4780	13.0990
 1.4790	13.1650
 1.4800	13.2290
 1.4810	13.2860
 1.4820	13.3510
 1.4830	13.4150
 1.4840	13.4780
 1.4850	13.5510
 1.4860	13.6240
 1.4870	13.6980
 1.4880	13.7760
 1.4890	13.8530
 1.4900	13.9310
 1.4910	14.0100
 1.4920	14.0870
 1.4930	14.1640
 1.4940	14.2410
 1.4950	14.3150
 1.4960	14.3950
 1.4970	14.4800
 1.4980	14.5620
 1.4990	14.6440
 1.5000	14.7260
 1.5010	14.8040
 1.5020	14.8840
 1.5030	14.9650
 1.5040	15.0480
 1.5050	15.1330
 1.5060	15.2200
 1.5070	15.3090
 1.5080	15.3970
 1.5090	15.4860
 1.5100	15.5740
 1.5110	15.6610
 1.5120	15.7500
 1.5130	15.8410
 1.5140	15.9310
 1.5150	16.0190
 1.5160	16.1070
 1.5170	16.1880
 1.5180	16.2700
 1.5190	16.3580
 1.5200	16.4470
 1.5210	16.5440
 1.5220	16.6320
 1.5230	16.7130
 1.5240	16.7970
 1.5250	16.8760
 1.5260	16.9600
 1.5270	17.0470
 1.5280	17.1300
 1.5290	17.2160
 1.5300	17.3010
 1.5310	17.3890
 1.5320	17.4780
 1.5330	17.5610
 1.5340	17.6460
 1.5350	17.7330
 1.5360	17.8190
 1.5370	17.9060
 1.5380	17.9870
 1.5390	18.0650
 1.5400	18.1430
 1.5410	18.2250
 1.5420	18.3120
 1.5430	18.3990
 1.5440	18.4870
 1.5450	18.5720
 1.5460	18.6550
 1.5470	18.7380
 1.5480	18.8190
 1.5490	18.9020
 1.5500	18.9800
 1.5510	19.0590
 1.5520	19.1380
 1.5530	19.2090
 1.5540	19.2850
 1.5550	19.3620
 1.5560	19.4360
 1.5570	19.5180
 1.5580	19.6010
 1.5590	19.6810
 1.5600	19.7600
 1.5610	19.8320
 1.5620	19.9010
 1.5630	19.9680
 1.5640	20.0370
 1.5650	20.1160
 1.5660	20.1950
 1.5670	20.2760
 1.5680	20.3600
 1.5690	20.4320
 1.5700	20.5020
 1.5710	20.5670
 1.5720	20.6260
 1.5730	20.6910
 1.5740	20.7580
 1.5750	20.8270
 1.5760	20.8970
 1.5770	20.9630
 1.5780	21.0250
 1.5790	21.0910
 1.5800	21.1560
 1.5810	21.2160
 1.5820	21.2800
 1.5830	21.3370
 1.5840	21.3900
 1.5850	21.4540
 1.5860	21.5140
 1.5870	21.5740
 1.5880	21.6410
 1.5890	21.7030
 1.5900	21.7630
 1.5910	21.8280
 1.5920	21.8940
 1.5930	21.9620
 1.5940	22.0350
 1.5950	22.1070
 1.5960	22.1700
 1.5970	22.2310
 1.5980	22.2960
 1.5990	22.3560
 1.6000	22.4130
 1.6010	22.4730
 1.6020	22.5350
 1.6030	22.5950
 1.6040	22.6520
 1.6050	22.7090
 1.6060	22.7540
 1.6070	22.8020
 1.6080	22.8630
 1.6090	22.9260
 1.6100	22.9860
 1.6110	23.0390
 1.6120	23.0920
 1.6130	23.1380
 1.6140	23.1900
 1.6150	23.2440
 1.6160	23.2870
 1.6170	23.3370
 1.6180	23.3900
 1.6190	23.4420
 1.6200	23.5020
 1.6210	23.5520
 1.6220	23.5940
 1.6230	23.6420
 1.6240	23.6910
 1.6250	23.7410
 1.6260	23.7930
 1.6270	23.8390
 1.6280	23.8710
 1.6290	23.9080
 1.6300	23.9440
 1.6310	23.9830
 1.6320	24.0300
 1.6330	24.0760
 1.6340	24.1240
 1.6350	24.1630
 1.6360	24.1970
 1.6370	24.2280
 1.6380	24.2470
 1.6390	24.2770
 1.6400	24.3150
 1.6410	24.3470
 1.6420	24.3830
 1.6430	24.4150
 1.6440	24.4430
 1.6450	24.4700
 1.6460	24.4910
 1.6470	24.5110
 1.6480	24.5240
 1.6490	24.5390
 1.6500	24.5620
 1.6510	24.5790
 1.6520	24.6000
 1.6530	24.6210
 1.6540	24.6300
 1.6550	24.6390
 1.6560	24.6420
 1.6570	24.6410
 1.6580	24.6440
 1.6590	24.6480
 1.6600	24.6570
 1.6610	24.6610
 1.6620	24.6610
 1.6630	24.6640
 1.6640	24.6650
 1.6650	24.6720
 1.6660	24.6860
 1.6670	24.6900
 1.6680	24.6850
 1.6690	24.6760
 1.6700	24.6610
 1.6710	24.6490
 1.6720	24.6420
 1.6730	24.6350
 1.6740	24.6290
 1.6750	24.6180
 1.6760	24.6070
 1.6770	24.5900
 1.6780	24.5680
 1.6790	24.5520
 1.6800	24.5280
 1.6810	24.5060
 1.6820	24.4840
 1.6830	24.4490
 1.6840	24.4210
 1.6850	24.3890
 1.6860	24.3540
 1.6870	24.3300
 1.6880	24.2980
 1.6890	24.2600
 1.6900	24.2250
 1.6910	24.1860
 1.6920	24.1470
 1.6930	24.1130
 1.6940	24.0770
 1.6950	24.0370
 1.6960	23.9960
 1.6970	23.9530
 1.6980	23.9030
 1.6990	23.8450
 1.7000	23.7890
 1.7010	23.7290
 1.7020	23.6790
 1.7030	23.6360
 1.7040	23.5790
 1.7050	23.5220
 1.7060	23.4520
 1.7070	23.3620
 1.7080	23.2900
 1.7090	23.2180
 1.7100	23.1610
 1.7110	23.1190
 1.7120	23.0710
 1.7130	23.0220
 1.7140	22.9560
 1.7150	22.8920
 1.7160	22.8360
 1.7170	22.7780
 1.7180	22.7180
 1.7190	22.6630
 1.7200	22.6120
 1.7210	22.5560
 1.7220	22.5050
 1.7230	22.4570
 1.7240	22.4020
 1.7250	22.3470
 1.7260	22.3020
 1.7270	22.2670
 1.7280	22.2390
 1.7290	22.2120
 1.7300	22.1780
 1.7310	22.1540
 1.7320	22.1290
 1.7330	22.1100
 1.7340	22.1050
 1.7350	22.0930
 1.7360	22.0800
 1.7370	22.0670
 1.7380	22.0550
 1.7390	22.0370
 1.7400	22.0180
 1.7410	21.9920
 1.7420	21.9650
 1.7430	21.9250
 1.7440	21.8750
 1.7450	21.8290
 1.7460	21.7740
 1.7470	21.7220
 1.7480	21.6730
 1.7490	21.6160
 1.7500	21.5520
 1.7510	21.4930
 1.7520	21.4340
 1.7530	21.3750
 1.7540	21.3170
 1.7550	21.2580
 1.7560	21.1930
 1.7570	21.1340
 1.7580	21.0680
 1.7590	21.0070
 1.7600	20.9590
 1.7610	20.9020
 1.7620	20.8500
 1.7630	20.7950
 1.7640	20.7480
 1.7650	20.7090
 1.7660	20.6750
 1.7670	20.6470
 1.7680	20.6190
 1.7690	20.5950
 1.7700	20.5700
 1.7710	20.5400
 1.7720	20.5190
 1.7730	20.5080
 1.7740	20.4880
 1.7750	20.4690
 1.7760	20.4490
 1.7770	20.4230
 1.7780	20.3980
 1.7790	20.3730
 1.7800	20.3530
 1.7810	20.3300
 1.7820	20.3190
 1.7830	20.3220
 1.7840	20.3120
 1.7850	20.3020
 1.7860	20.2860
 1.7870	20.2550
 1.7880	20.2490
 1.7890	20.2520
 1.7900	20.2730
 1.7910	20.2840
 1.7920	20.2880
 1.7930	20.2940
 1.7940	20.3020
 1.7950	20.3040
 1.7960	20.3060
 1.7970	20.3040
 1.7980	20.2860
 1.7990	20.2830
 1.8000	20.2860
 1.8010	20.2900
 1.8020	20.3060
 1.8030	20.3130
 1.8040	20.3100
 1.8050	20.3200
 1.8060	20.3400
 1.8070	20.3440
 1.8080	20.3440
 1.8090	20.3530
 1.8100	20.3520
 1.8110	20.3710
 1.8120	20.4020
 1.8130	20.4280
 1.8140	20.4210
 1.8150	20.4060
 1.8160	20.3930
 1.8170	20.3890
 1.8180	20.4070
 1.8190	20.4150
 1.8200	20.4260
 1.8210	20.4270
 1.8220	20.4240
 1.8230	20.4380
 1.8240	20.4320
 1.8250	20.3990
 1.8260	20.3780
 1.8270	20.3550
 1.8280	20.3420
 1.8290	20.3310
 1.8300	20.3260
 1.8310	20.4280
 1.8320	20.3860
 1.8330	20.3220
 1.8340	20.2680
 1.8350	20.2310
 1.8360	20.2080
 1.8370	20.1900
 1.8380	20.1600
 1.8390	20.1260
 1.8400	20.0860
 1.8410	20.0330
 1.8420	19.9760
 1.8430	19.9100
 1.8440	19.8370
 1.8450	19.7410
 1.8460	19.6520
 1.8470	19.5630
 1.8480	19.4560
 1.8490	19.3570
 1.8500	19.2420
 1.8510	19.1140
 1.8520	18.9830
 1.8530	18.8580
 1.8540	18.7040
 1.8550	18.5510
 1.8560	18.4170
 1.8570	18.2430
 1.8580	18.0490
 1.8590	17.8610
 1.8600	17.6710
 1.8610	17.4470
 1.8620	17.2270
 1.8630	17.0220
 1.8640	16.7860
 1.8650	16.5310
 1.8660	16.2780
 1.8670	16.0160
 1.8680	15.7540
 1.8690	15.4820
 1.8700	15.1970
 1.8710	14.9070
 1.8720	14.6000
 1.8730	14.2960
 1.8740	13.9980
 1.8750	13.6810
 1.8760	13.3750
 1.8770	13.0670
 1.8780	12.7570
 1.8790	12.4640
 1.8800	12.1710
 1.8810	11.8880
 1.8820	11.5920
 1.8830	11.2920
 1.8840	11.0070
 1.8850	10.7290
 1.8860	10.4540
 1.8870	10.1910
 1.8880	 9.9460
 1.8890	 9.7080
 1.8900	 9.4910
 1.8910	 9.2810
 1.8920	 9.0910
 1.8930	 8.8970
 1.8940	 8.7010
 1.8950	 8.5140
 1.8960	 8.3410
 1.8970	 8.1860
 1.8980	 8.0520
 1.8990	 7.9320
 1.9000	 7.8220
 1.9010	 7.7190
 1.9020	 7.6370
 1.9030	 7.5760
 1.9040	 7.5200
 1.9050	 7.4800
 1.9060	 7.4370
 1.9070	 7.3690
 1.9080	 7.3110
 1.9090	 7.2470
 1.9100	 7.1890
 1.9110	 7.1460
 1.9120	 7.1270
 1.9130	 7.0940
 1.9140	 7.0650
 1.9150	 7.0350
 1.9160	 6.9930
 1.9170	 6.9540
 1.9180	 6.9190
 1.9190	 6.8930
 1.9200	 6.8760
 1.9210	 6.8550
 1.9220	 6.8510
 1.9230	 6.8670
 1.9240	 6.8670
 1.9250	 6.8650
 1.9260	 6.8780
 1.9270	 6.8750
 1.9280	 6.8710
 1.9290	 6.8700
 1.9300	 6.8710
 1.9310	 6.8710
 1.9320	 6.8700
 1.9330	 6.8710
 1.9340	 6.8720
 1.9350	 6.8780
 1.9360	 6.8810
 1.9370	 6.8880
 1.9380	 6.9020
 1.9390	 6.9160
 1.9400	 6.9150
 1.9410	 6.9470
 1.9420	 6.9770
 1.9430	 6.9830
 1.9440	 6.9920
 1.9450	 6.9920
 1.9460	 6.9950
 1.9470	 6.9900
 1.9480	 7.0010
 1.9490	 7.0230
 1.9500	 7.0420
 1.9510	 7.0650
 1.9520	 7.0930
 1.9530	 7.1200
 1.9540	 7.1490
 1.9550	 7.1720
 1.9560	 7.2000
 1.9570	 7.2160
 1.9580	 7.2150
 1.9590	 7.2290
 1.9600	 7.2300
 1.9610	 7.2510
 1.9620	 7.2930
 1.9630	 7.3340
 1.9640	 7.3690
 1.9650	 7.4080
 1.9660	 7.4110
 1.9670	 7.4140
 1.9680	 7.4300
 1.9690	 7.4400
 1.9700	 7.4640
 1.9710	 7.5100
 1.9720	 7.5420
 1.9730	 7.5750
 1.9740	 7.6030
 1.9750	 7.6280
 1.9760	 7.6690
 1.9770	 7.7090
 1.9780	 7.7490
 1.9790	 7.7850
 1.9800	 7.8140
 1.9810	 7.8490
 1.9820	 7.8810
 1.9830	 7.9200
 1.9840	 7.9680
 1.9850	 8.0090
 1.9860	 8.0490
 1.9870	 8.0910
 1.9880	 8.1180
 1.9890	 8.1480
 1.9900	 8.1710
 1.9910	 8.1790
 1.9920	 8.2060
 1.9930	 8.2400
 1.9940	 8.2740
 1.9950	 8.3210
 1.9960	 8.3610
 1.9970	 8.3960
 1.9980	 8.4340
 1.9990	 8.4750
 2.0000	 8.5120
 2.0010	 8.5600
 2.0020	 8.5920
 2.0030	 8.6230
 2.0040	 8.6690
 2.0050	 8.7040
 2.0060	 8.7340
 2.0070	 8.7680
 2.0080	 8.8020
 2.0090	 8.8320
 2.0100	 8.8530
 2.0110	 8.8910
 2.0120	 8.9290
 2.0130	 8.9860
 2.0140	 9.0530
 2.0150	 9.1100
 2.0160	 9.1470
 2.0170	 9.1730
 2.0180	 9.2050
 2.0190	 9.2260
 2.0200	 9.2610
 2.0210	 9.3010
 2.0220	 9.3420
 2.0230	 9.3870
 2.0240	 9.4310
 2.0250	 9.4810
 2.0260	 9.5270
 2.0270	 9.5730
 2.0280	 9.6140
 2.0290	 9.6440
 2.0300	 9.6770
 2.0310	 9.7130
 2.0320	 9.7460
 2.0330	 9.7800
 2.0340	 9.8260
 2.0350	 9.8550
 2.0360	 9.8710
 2.0370	 9.8930
 2.0380	 9.9060
 2.0390	 9.9280
 2.0400	 9.9620
 2.0410	 9.9860
 2.0420	10.0140
 2.0430	10.0250
 2.0440	10.0430
 2.0450	10.0560
 2.0460	10.0770
 2.0470	10.1010
 2.0480	10.1300
 2.0490	10.1640
 2.0500	10.1980
 2.0510	10.2370
 2.0520	10.2770
 2.0530	10.3190
 2.0540	10.3620
 2.0550	10.4110
 2.0560	10.4610
 2.0570	10.4900
 2.0580	10.5230
 2.0590	10.5540
 2.0600	10.5740
 2.0610	10.6020
 2.0620	10.6420
 2.0630	10.6650
 2.0640	10.6730
 2.0650	10.6990
 2.0660	10.7260
 2.0670	10.7550
 2.0680	10.8000
 2.0690	10.8360
 2.0700	10.8700
 2.0710	10.8960
 2.0720	10.9250
 2.0730	10.9380
 2.0740	10.9520
 2.0750	10.9550
 2.0760	10.9720
 2.0770	10.9830
 2.0780	11.0160
 2.0790	11.0630
 2.0800	11.1060
 2.0810	11.1720
 2.0820	11.2150
 2.0830	11.2430
 2.0840	11.2760
 2.0850	11.2940
 2.0860	11.3220
 2.0870	11.3610
 2.0880	11.3840
 2.0890	11.4220
 2.0900	11.4670
 2.0910	11.5040
 2.0920	11.5520
 2.0930	11.5760
 2.0940	11.5760
 2.0950	11.5970
 2.0960	11.6090
 2.0970	11.6360
 2.0980	11.6910
 2.0990	11.7230
 2.1000	11.7300
 2.1010	11.7680
 2.1020	11.8240
 2.1030	11.8630
 2.1040	11.9210
 2.1050	11.9630
 2.1060	11.9960
 2.1070	12.0060
 2.1080	12.0260
 2.1090	12.0440
 2.1100	12.0710
 2.1110	12.0880
 2.1120	12.1230
 2.1130	12.1870
 2.1140	12.2270
 2.1150	12.2670
 2.1160	12.2980
 2.1170	12.2970
 2.1180	12.3270
 2.1190	12.3760
 2.1200	12.4140
 2.1210	12.4650
 2.1220	12.5120
 2.1230	12.5460
 2.1240	12.5620
 2.1250	12.5860
 2.1260	12.6070
 2.1270	12.6280
 2.1280	12.6400
 2.1290	12.6650
 2.1300	12.6910
 2.1310	12.7260
 2.1320	12.7790
 2.1330	12.8180
 2.1340	12.8670
 2.1350	12.8970
 2.1360	12.9000
 2.1370	12.9200
 2.1380	12.9300
 2.1390	12.9540
 2.1400	13.0120
 2.1410	13.0430
 2.1420	13.0700
 2.1430	13.0970
 2.1440	13.1150
 2.1450	13.1090
 2.1460	13.1340
 2.1470	13.1710
 2.1480	13.2020
 2.1490	13.2490
 2.1500	13.2750
 2.1510	13.2860
 2.1520	13.3040
 2.1530	13.3110
 2.1540	13.3340
 2.1550	13.3670
 2.1560	13.4010
 2.1570	13.4560
 2.1580	13.4920
 2.1590	13.5210
 2.1600	13.5430
 2.1610	13.5430
 2.1620	13.5500
 2.1630	13.5710
 2.1640	13.6060
 2.1650	13.6240
 2.1660	13.6480
 2.1670	13.6670
 2.1680	13.6730
 2.1690	13.6810
 2.1700	13.6940
 2.1710	13.7050
 2.1720	13.7010
 2.1730	13.7120
 2.1740	13.7410
 2.1750	13.7600
 2.1760	13.7860
 2.1770	13.8030
 2.1780	13.8120
 2.1790	13.8190
 2.1800	13.8060
 2.1810	13.8110
 2.1820	13.8180
 2.1830	13.8350
 2.1840	13.8590
 2.1850	13.9040
 2.1860	13.9260
 2.1870	13.9430
 2.1880	13.9610
 2.1890	13.9690
 2.1900	13.9780
 2.1910	13.9950
 2.1920	14.0000
 2.1930	13.9880
 2.1940	13.9960
 2.1950	14.0060
 2.1960	14.0200
 2.1970	14.0590
 2.1980	14.0700
 2.1990	14.0660
 2.2000	14.0630
 2.2010	14.0430
 2.2020	14.0280
 2.2030	14.0030
 2.2040	14.0020
 2.2050	14.0090
 2.2060	14.0340
 2.2070	14.0500
 2.2080	14.0890
 2.2090	14.1000
 2.2100	14.0940
 2.2110	14.0890
 2.2120	14.0700
 2.2130	14.0730
 2.2140	14.0790
 2.2150	14.0870
 2.2160	14.1270
 2.2170	14.1250
 2.2180	14.1020
 2.2190	14.0830
 2.2200	14.0190
 2.2210	14.0140
 2.2220	14.0470
 2.2230	14.0650
 2.2240	14.1380
 2.2250	14.1520
 2.2260	14.1200
 2.2270	14.0950
 2.2280	14.0370
 2.2290	13.9960
 2.2300	13.9650
 2.2310	13.9340
 2.2320	13.9220
 2.2330	13.9130
 2.2340	13.8910
 2.2350	13.8850
 2.2360	13.8380
 2.2370	13.7580
 2.2380	13.6990
 2.2390	13.6210
 2.2400	13.5680
 2.2410	13.5350
 2.2420	13.4950
 2.2430	13.4570
 2.2440	13.4200
 2.2450	13.3910
 2.2460	13.3400
 2.2470	13.2750
 2.2480	13.2190
 2.2490	13.1430
 2.2500	13.0930
 2.2510	13.0560
 2.2520	13.0270
 2.2530	13.0300
 2.2540	12.9980
 2.2550	12.9580
 2.2560	12.9160
 2.2570	12.8400
 2.2580	12.7870
 2.2590	12.7470
 2.2600	12.7140
 2.2610	12.7070
 2.2620	12.6750
 2.2630	12.6280
 2.2640	12.5940
 2.2650	12.5440
 2.2660	12.4890
 2.2670	12.4480
 2.2680	12.4250
 2.2690	12.3840
 2.2700	12.3370
 2.2710	12.2970
 2.2720	12.2510
 2.2730	12.2160
 2.2740	12.1880
 2.2750	12.1650
 2.2760	12.1550
 2.2770	12.1340
 2.2780	12.1100
 2.2790	12.0960
 2.2800	12.0960
 2.2810	12.0650
 2.2820	12.0410
 2.2830	11.9880
 2.2840	11.8800
 2.2850	11.8100
 2.2860	11.7270
 2.2870	11.6830
 2.2880	11.6860
 2.2890	11.6640
 2.2900	11.6600
 2.2910	11.6450
 2.2920	11.6100
 2.2930	11.5790
 2.2940	11.5550
 2.2950	11.5090
 2.2960	11.4440
 2.2970	11.3840
 2.2980	11.3030
 2.2990	11.2500
 2.3000	11.2180
 2.3010	11.1460
 2.3020	11.0890
 2.3030	11.0620
 2.3040	11.0180
 2.3050	10.9690
 2.3060	10.9060
 2.3070	10.8550
 2.3080	10.8330
 2.3090	10.8260
 2.3100	10.8550
 2.3110	10.8690
 2.3120	10.8750
 2.3130	10.8770
 2.3140	10.8790
 2.3150	10.8650
 2.3160	10.8650
 2.3170	10.8720
 2.3180	10.8570
 2.3190	10.8360
 2.3200	10.8310
 2.3210	10.8230
 2.3220	10.8110
 2.3230	10.8060
 2.3240	10.8060
 2.3250	10.7870
 2.3260	10.7900
 2.3270	10.8360
 2.3280	10.8390
 2.3290	10.8110
 2.3300	10.8060
 2.3310	10.8080
 2.3320	10.7740
 2.3330	10.7450
 2.3340	10.7010
 2.3350	10.5970
 2.3360	10.5410
 2.3370	10.5070
 2.3380	10.4810
 2.3390	10.4680
 2.3400	10.4730
 2.3410	10.5310
 2.3420	10.5120
 2.3430	10.4660
 2.3440	10.4200
 2.3450	10.3030
 2.3460	10.2360
 2.3470	10.1950
 2.3480	10.1660
 2.3490	10.1680
 2.3500	10.1500
 2.3510	10.1320
 2.3520	10.1150
 2.3530	10.0540
 2.3540	10.0650
 2.3550	10.1250
 2.3560	10.1910
 2.3570	10.2380
 2.3580	10.2240
 2.3590	10.1690
 2.3600	10.1000
 2.3610	10.0540
 2.3620	10.0440
 2.3630	10.0270
 2.3640	10.0140
 2.3650	10.0360
 2.3660	10.0390
 2.3670	10.0150
 2.3680	 9.9930
 2.3690	 9.9650
 2.3700	 9.9470
 2.3710	 9.9510
 2.3720	 9.9640
 2.3730	 9.9620
 2.3740	 9.9360
 2.3750	 9.8670
 2.3760	 9.8280
 2.3770	 9.8260
 2.3780	 9.8170
 2.3790	 9.8440
 2.3800	 9.8570
 2.3810	 9.8060
 2.3820	 9.7430
 2.3830	 9.6940
 2.3840	 9.5930
 2.3850	 9.4990
 2.3860	 9.4850
 2.3870	 9.4410
 2.3880	 9.4290
 2.3890	 9.5030
 2.3900	 9.4960
 2.3910	 9.4670
 2.3920	 9.4890
 2.3930	 9.4170
 2.3940	 9.3430
 2.3950	 9.3020
 2.3960	 9.2520
 2.3970	 9.2840
 2.3980	 9.3270
 2.3990	 9.3400
 2.4000	 9.3860
 2.4010	 9.3900
 2.4020	 9.2930
 2.4030	 9.2660
 2.4040	 9.2690
 2.4050	 9.2450
 2.4060	 9.2710
 2.4070	 9.2740
 2.4080	 9.2400
 2.4090	 9.2130
 2.4100	 9.1950
 2.4110	 9.1330
 2.4120	 9.0990
 2.4130	 8.9890
 2.4140	 8.8600
 2.4150	 8.9020
 2.4160	 8.9420
 2.4170	 9.1100
 2.4180	 9.3370
 2.4190	 9.3330
 2.4200	 9.2170
 2.4210	 9.0770
 2.4220	 8.9160
 2.4230	 8.8800
 2.4240	 8.9530
 2.4250	 8.9350
 2.4260	 8.8970
 2.4270	 8.8710
 2.4280	 8.7650
 2.4290	 8.6560
 2.4300	 8.6140
 2.4310	 8.6200
 2.4320	 8.6740
 2.4330	 8.7340
 2.4340	 8.7320
 2.4350	 8.6820
 2.4360	 8.6260
 2.4370	 8.5500
 2.4380	 8.4680
 2.4390	 8.4280
 2.4400	 8.3670
 2.4410	 8.3010
 2.4420	 8.3040
 2.4430	 8.3230
 2.4440	 8.2680
 2.4450	 8.2440
 2.4460	 8.2970
 2.4470	 8.2880
 2.4480	 8.3020
 2.4490	 8.4130
 2.4500	 8.5410
 2.4510	 8.6480
 2.4520	 8.6710
 2.4530	 8.6660
 2.4540	 8.6530
 2.4550	 8.6130
 2.4560	 8.6740
 2.4570	 8.6500
 2.4580	 8.5640
 2.4590	 8.5390
 2.4600	 8.4200
 2.4610	 8.3200
 2.4620	 8.1820
 2.4630	 8.0090
 2.4640	 7.9650
 2.4650	 7.9400
 2.4660	 7.8900
 2.4670	 7.8790
 2.4680	 7.8030
 2.4690	 7.9460
 2.4700	 8.0450
 2.4710	 8.1880
 2.4720	 8.2130
 2.4730	 8.1200
 2.4740	 8.0430
 2.4750	 7.7880
 2.4760	 7.7810
 2.4770	 8.0460
 2.4780	 8.0530
 2.4790	 8.0570
 2.4800	 8.0920
 2.4810	 7.9410
 2.4820	 7.8910
 2.4830	 8.0080
 2.4840	 7.9700
 2.4850	 7.9260
 2.4860	 8.0640
 2.4870	 7.9630
 2.4880	 7.9920
 2.4890	 8.0260
 2.4900	 7.8590
 2.4910	 7.8800
 2.4920	 7.7790
 2.4930	 7.6780
 2.4940	 7.9320
 2.4950	 8.3420
 2.4960	 8.2810
 2.4970	 8.0550
 2.4980	 8.0300
 2.4990	 7.5990
 2.5000	 7.4340
