Name: Baccharis pilularis 2
Type: vegetation
Class: Shrub
Genus: Baccharis
Species: pilularis
Sample No.: VH195
Owner: UCSB
Wavelength Range: VSWIR
Origin: 34.4186; -119.8458; WGS84
Collection Date: 10/13/2013
Description: Samples were collected as part of the HyspIRI Airborne Campaign. 48 individual plants were sampled in three times in 2013 - spring  summer  and fall. The name of the sample includes a 1  2  or 3 which references a different individual of the species. Samples were taken to JPL and processed within 48 hours of collection. The same leaves were processed in the Nicolet and then measured using the ASD.
Measurement: Bidirectional reflectance
First Column: X
Second Column: Y
X Units: Wavelength (micrometers)
Y Units: Reflectance (percentage)
First X Value: 0.35
Last X Value: 2.5
Number of X Values: 2151
Additional Information: vegetation.shrub.baccharis.pilularis.vswir.vh195.ucsb.asd.ancillary.txt

 0.3500	 4.9820
 0.3510	 5.1480
 0.3520	 5.1340
 0.3530	 5.2970
 0.3540	 5.6980
 0.3550	 5.1200
 0.3560	 5.2020
 0.3570	 5.5840
 0.3580	 5.0680
 0.3590	 4.8610
 0.3600	 4.9810
 0.3610	 5.2060
 0.3620	 5.1660
 0.3630	 5.2880
 0.3640	 5.4090
 0.3650	 5.3390
 0.3660	 5.3740
 0.3670	 5.4010
 0.3680	 5.3680
 0.3690	 5.2770
 0.3700	 5.2180
 0.3710	 5.3130
 0.3720	 5.5160
 0.3730	 5.4750
 0.3740	 5.4020
 0.3750	 5.4060
 0.3760	 5.4980
 0.3770	 5.3840
 0.3780	 5.2760
 0.3790	 5.3240
 0.3800	 5.5650
 0.3810	 5.4640
 0.3820	 5.3420
 0.3830	 5.4010
 0.3840	 5.2290
 0.3850	 5.3180
 0.3860	 5.5720
 0.3870	 5.7000
 0.3880	 5.6460
 0.3890	 5.6120
 0.3900	 5.6730
 0.3910	 5.7520
 0.3920	 5.6980
 0.3930	 5.6830
 0.3940	 5.8130
 0.3950	 5.8360
 0.3960	 5.8850
 0.3970	 5.9710
 0.3980	 6.0410
 0.3990	 6.0090
 0.4000	 6.0180
 0.4010	 6.1000
 0.4020	 6.1250
 0.4030	 6.1450
 0.4040	 6.1340
 0.4050	 6.1020
 0.4060	 6.2740
 0.4070	 6.3800
 0.4080	 6.3820
 0.4090	 6.3950
 0.4100	 6.4150
 0.4110	 6.4570
 0.4120	 6.5270
 0.4130	 6.6290
 0.4140	 6.6550
 0.4150	 6.6670
 0.4160	 6.7480
 0.4170	 6.7620
 0.4180	 6.7860
 0.4190	 6.8380
 0.4200	 6.8750
 0.4210	 6.8950
 0.4220	 6.9370
 0.4230	 7.0180
 0.4240	 7.0890
 0.4250	 7.0730
 0.4260	 7.0260
 0.4270	 7.0540
 0.4280	 7.1140
 0.4290	 7.1700
 0.4300	 7.2040
 0.4310	 7.2220
 0.4320	 7.2380
 0.4330	 7.2490
 0.4340	 7.2570
 0.4350	 7.2960
 0.4360	 7.3240
 0.4370	 7.3290
 0.4380	 7.3290
 0.4390	 7.3780
 0.4400	 7.4120
 0.4410	 7.4000
 0.4420	 7.4180
 0.4430	 7.4600
 0.4440	 7.5070
 0.4450	 7.5350
 0.4460	 7.5600
 0.4470	 7.5870
 0.4480	 7.6100
 0.4490	 7.6030
 0.4500	 7.6410
 0.4510	 7.6980
 0.4520	 7.7300
 0.4530	 7.7240
 0.4540	 7.7750
 0.4550	 7.8400
 0.4560	 7.8040
 0.4570	 7.8350
 0.4580	 7.8670
 0.4590	 7.8630
 0.4600	 7.9050
 0.4610	 7.9070
 0.4620	 7.8860
 0.4630	 7.8920
 0.4640	 7.9360
 0.4650	 7.9500
 0.4660	 7.9290
 0.4670	 7.9390
 0.4680	 7.9390
 0.4690	 7.9430
 0.4700	 7.9600
 0.4710	 7.9670
 0.4720	 7.9780
 0.4730	 7.9910
 0.4740	 7.9970
 0.4750	 8.0050
 0.4760	 8.0300
 0.4770	 8.0590
 0.4780	 8.0360
 0.4790	 8.0360
 0.4800	 8.0650
 0.4810	 8.1040
 0.4820	 8.1220
 0.4830	 8.1380
 0.4840	 8.1460
 0.4850	 8.1180
 0.4860	 8.1550
 0.4870	 8.2050
 0.4880	 8.2180
 0.4890	 8.2380
 0.4900	 8.2870
 0.4910	 8.3460
 0.4920	 8.3840
 0.4930	 8.4040
 0.4940	 8.4650
 0.4950	 8.5610
 0.4960	 8.5950
 0.4970	 8.6650
 0.4980	 8.7520
 0.4990	 8.8190
 0.5000	 8.9110
 0.5010	 9.0200
 0.5020	 9.1360
 0.5030	 9.2510
 0.5040	 9.3820
 0.5050	 9.5270
 0.5060	 9.6860
 0.5070	 9.8610
 0.5080	10.0330
 0.5090	10.2120
 0.5100	10.4150
 0.5110	10.6360
 0.5120	10.8660
 0.5130	11.1030
 0.5140	11.3610
 0.5150	11.6320
 0.5160	11.9090
 0.5170	12.1910
 0.5180	12.5060
 0.5190	12.8040
 0.5200	13.0900
 0.5210	13.4070
 0.5220	13.7110
 0.5230	14.0010
 0.5240	14.2860
 0.5250	14.5660
 0.5260	14.8440
 0.5270	15.1070
 0.5280	15.3400
 0.5290	15.5590
 0.5300	15.7680
 0.5310	15.9620
 0.5320	16.1270
 0.5330	16.2970
 0.5340	16.4530
 0.5350	16.5770
 0.5360	16.7020
 0.5370	16.8200
 0.5380	16.9240
 0.5390	17.0080
 0.5400	17.0990
 0.5410	17.1860
 0.5420	17.2600
 0.5430	17.3300
 0.5440	17.4090
 0.5450	17.4890
 0.5460	17.5560
 0.5470	17.6150
 0.5480	17.6710
 0.5490	17.7250
 0.5500	17.7790
 0.5510	17.8050
 0.5520	17.8240
 0.5530	17.8520
 0.5540	17.8480
 0.5550	17.8220
 0.5560	17.7830
 0.5570	17.7360
 0.5580	17.6640
 0.5590	17.5860
 0.5600	17.5100
 0.5610	17.3970
 0.5620	17.2840
 0.5630	17.1670
 0.5640	17.0330
 0.5650	16.8920
 0.5660	16.7480
 0.5670	16.5980
 0.5680	16.4350
 0.5690	16.2560
 0.5700	16.0700
 0.5710	15.8910
 0.5720	15.7230
 0.5730	15.5670
 0.5740	15.4160
 0.5750	15.2650
 0.5760	15.1330
 0.5770	15.0080
 0.5780	14.8830
 0.5790	14.7650
 0.5800	14.6580
 0.5810	14.5550
 0.5820	14.4450
 0.5830	14.3390
 0.5840	14.2460
 0.5850	14.1690
 0.5860	14.1000
 0.5870	14.0150
 0.5880	13.9320
 0.5890	13.8680
 0.5900	13.8030
 0.5910	13.7460
 0.5920	13.6980
 0.5930	13.6570
 0.5940	13.6280
 0.5950	13.6010
 0.5960	13.5690
 0.5970	13.5360
 0.5980	13.5070
 0.5990	13.4810
 0.6000	13.4490
 0.6010	13.4010
 0.6020	13.3450
 0.6030	13.2850
 0.6040	13.2240
 0.6050	13.1610
 0.6060	13.0870
 0.6070	12.9980
 0.6080	12.9060
 0.6090	12.8100
 0.6100	12.7090
 0.6110	12.6020
 0.6120	12.5040
 0.6130	12.4080
 0.6140	12.3090
 0.6150	12.2150
 0.6160	12.1220
 0.6170	12.0360
 0.6180	11.9630
 0.6190	11.8910
 0.6200	11.8260
 0.6210	11.7700
 0.6220	11.7250
 0.6230	11.6780
 0.6240	11.6390
 0.6250	11.6130
 0.6260	11.5860
 0.6270	11.5710
 0.6280	11.5640
 0.6290	11.5550
 0.6300	11.5300
 0.6310	11.5180
 0.6320	11.5170
 0.6330	11.4920
 0.6340	11.4610
 0.6350	11.4210
 0.6360	11.3660
 0.6370	11.2990
 0.6380	11.2240
 0.6390	11.1380
 0.6400	11.0390
 0.6410	10.9340
 0.6420	10.8200
 0.6430	10.7010
 0.6440	10.5980
 0.6450	10.4840
 0.6460	10.3650
 0.6470	10.2540
 0.6480	10.1530
 0.6490	10.0610
 0.6500	 9.9790
 0.6510	 9.9110
 0.6520	 9.8490
 0.6530	 9.7820
 0.6540	 9.7060
 0.6550	 9.6520
 0.6560	 9.5810
 0.6570	 9.4950
 0.6580	 9.4090
 0.6590	 9.3210
 0.6600	 9.2270
 0.6610	 9.1300
 0.6620	 9.0410
 0.6630	 8.9510
 0.6640	 8.8620
 0.6650	 8.7790
 0.6660	 8.7090
 0.6670	 8.6520
 0.6680	 8.6060
 0.6690	 8.5670
 0.6700	 8.5330
 0.6710	 8.5120
 0.6720	 8.5020
 0.6730	 8.4920
 0.6740	 8.4870
 0.6750	 8.4940
 0.6760	 8.5140
 0.6770	 8.5260
 0.6780	 8.5510
 0.6790	 8.5910
 0.6800	 8.6320
 0.6810	 8.6900
 0.6820	 8.7640
 0.6830	 8.8530
 0.6840	 8.9710
 0.6850	 9.1180
 0.6860	 9.2970
 0.6870	 9.5160
 0.6880	 9.7900
 0.6890	10.1150
 0.6900	10.4990
 0.6910	10.9650
 0.6920	11.5100
 0.6930	12.1260
 0.6940	12.8060
 0.6950	13.5480
 0.6960	14.3670
 0.6970	15.2510
 0.6980	16.1820
 0.6990	17.1530
 0.7000	18.1610
 0.7010	19.1980
 0.7020	20.2530
 0.7030	21.3150
 0.7040	22.3780
 0.7050	23.4370
 0.7060	24.4830
 0.7070	25.5140
 0.7080	26.5320
 0.7090	27.5440
 0.7100	28.5090
 0.7110	29.4560
 0.7120	30.3920
 0.7130	31.2980
 0.7140	32.1850
 0.7150	33.0430
 0.7160	33.8680
 0.7170	34.6750
 0.7180	35.4540
 0.7190	36.2010
 0.7200	36.9150
 0.7210	37.6030
 0.7220	38.2640
 0.7230	38.8930
 0.7240	39.4900
 0.7250	40.0730
 0.7260	40.6240
 0.7270	41.1310
 0.7280	41.6160
 0.7290	42.0740
 0.7300	42.4970
 0.7310	42.8850
 0.7320	43.2760
 0.7330	43.6350
 0.7340	43.9580
 0.7350	44.2720
 0.7360	44.5540
 0.7370	44.8250
 0.7380	45.0950
 0.7390	45.3270
 0.7400	45.5490
 0.7410	45.7580
 0.7420	45.9440
 0.7430	46.1220
 0.7440	46.2930
 0.7450	46.4470
 0.7460	46.5720
 0.7470	46.7010
 0.7480	46.8250
 0.7490	46.9350
 0.7500	47.0380
 0.7510	47.1320
 0.7520	47.2130
 0.7530	47.2860
 0.7540	47.3890
 0.7550	47.4630
 0.7560	47.5070
 0.7570	47.5650
 0.7580	47.6100
 0.7590	47.6590
 0.7600	47.7170
 0.7610	47.7470
 0.7620	47.7830
 0.7630	47.8230
 0.7640	47.8560
 0.7650	47.9020
 0.7660	47.9420
 0.7670	47.9660
 0.7680	47.9760
 0.7690	47.9990
 0.7700	48.0270
 0.7710	48.0510
 0.7720	48.0730
 0.7730	48.1070
 0.7740	48.1340
 0.7750	48.1450
 0.7760	48.1660
 0.7770	48.1940
 0.7780	48.2200
 0.7790	48.2360
 0.7800	48.2460
 0.7810	48.2640
 0.7820	48.2890
 0.7830	48.3040
 0.7840	48.3180
 0.7850	48.3480
 0.7860	48.3910
 0.7870	48.3970
 0.7880	48.3940
 0.7890	48.4100
 0.7900	48.4550
 0.7910	48.4690
 0.7920	48.4900
 0.7930	48.5220
 0.7940	48.5460
 0.7950	48.5470
 0.7960	48.5560
 0.7970	48.5830
 0.7980	48.6090
 0.7990	48.6380
 0.8000	48.6510
 0.8010	48.6470
 0.8020	48.6700
 0.8030	48.6960
 0.8040	48.7150
 0.8050	48.7230
 0.8060	48.7480
 0.8070	48.7840
 0.8080	48.8090
 0.8090	48.7950
 0.8100	48.8200
 0.8110	48.8540
 0.8120	48.8710
 0.8130	48.8830
 0.8140	48.8960
 0.8150	48.9130
 0.8160	48.9370
 0.8170	48.9660
 0.8180	48.9680
 0.8190	48.9630
 0.8200	48.9900
 0.8210	49.0110
 0.8220	49.0310
 0.8230	49.0570
 0.8240	49.0900
 0.8250	49.0890
 0.8260	49.0900
 0.8270	49.1120
 0.8280	49.1250
 0.8290	49.1440
 0.8300	49.1510
 0.8310	49.1380
 0.8320	49.1610
 0.8330	49.1890
 0.8340	49.2130
 0.8350	49.2360
 0.8360	49.2480
 0.8370	49.2590
 0.8380	49.2700
 0.8390	49.2760
 0.8400	49.2960
 0.8410	49.3100
 0.8420	49.3190
 0.8430	49.3480
 0.8440	49.3560
 0.8450	49.3540
 0.8460	49.3630
 0.8470	49.3950
 0.8480	49.4040
 0.8490	49.4090
 0.8500	49.4390
 0.8510	49.4660
 0.8520	49.4750
 0.8530	49.4750
 0.8540	49.4910
 0.8550	49.5190
 0.8560	49.5250
 0.8570	49.5200
 0.8580	49.5560
 0.8590	49.5840
 0.8600	49.5930
 0.8610	49.5900
 0.8620	49.5930
 0.8630	49.6020
 0.8640	49.6180
 0.8650	49.6350
 0.8660	49.6400
 0.8670	49.6600
 0.8680	49.6780
 0.8690	49.6720
 0.8700	49.6880
 0.8710	49.7130
 0.8720	49.7380
 0.8730	49.7570
 0.8740	49.7630
 0.8750	49.7700
 0.8760	49.7850
 0.8770	49.8070
 0.8780	49.8190
 0.8790	49.8230
 0.8800	49.8280
 0.8810	49.8440
 0.8820	49.8440
 0.8830	49.8580
 0.8840	49.8990
 0.8850	49.9020
 0.8860	49.8930
 0.8870	49.9000
 0.8880	49.9330
 0.8890	49.9350
 0.8900	49.9220
 0.8910	49.9290
 0.8920	49.9760
 0.8930	49.9730
 0.8940	49.9760
 0.8950	50.0010
 0.8960	50.0250
 0.8970	50.0150
 0.8980	50.0090
 0.8990	50.0240
 0.9000	50.0450
 0.9010	50.0550
 0.9020	50.0740
 0.9030	50.1000
 0.9040	50.0940
 0.9050	50.0780
 0.9060	50.0720
 0.9070	50.0860
 0.9080	50.1150
 0.9090	50.1400
 0.9100	50.1500
 0.9110	50.1430
 0.9120	50.1270
 0.9130	50.1510
 0.9140	50.1800
 0.9150	50.1710
 0.9160	50.1830
 0.9170	50.1980
 0.9180	50.2080
 0.9190	50.2120
 0.9200	50.2200
 0.9210	50.2330
 0.9220	50.2400
 0.9230	50.2270
 0.9240	50.2120
 0.9250	50.2040
 0.9260	50.2170
 0.9270	50.2600
 0.9280	50.2560
 0.9290	50.2370
 0.9300	50.2260
 0.9310	50.2190
 0.9320	50.2050
 0.9330	50.1650
 0.9340	50.1290
 0.9350	50.1660
 0.9360	50.1910
 0.9370	50.2130
 0.9380	50.2220
 0.9390	50.1650
 0.9400	50.1320
 0.9410	50.1190
 0.9420	50.1030
 0.9430	50.0740
 0.9440	50.0700
 0.9450	50.0520
 0.9460	50.0050
 0.9470	49.9910
 0.9480	49.9740
 0.9490	49.9600
 0.9500	49.9470
 0.9510	49.8840
 0.9520	49.8040
 0.9530	49.7570
 0.9540	49.7570
 0.9550	49.7140
 0.9560	49.6340
 0.9570	49.5590
 0.9580	49.5280
 0.9590	49.5290
 0.9600	49.5020
 0.9610	49.4660
 0.9620	49.4590
 0.9630	49.4670
 0.9640	49.4190
 0.9650	49.3830
 0.9660	49.4290
 0.9670	49.3830
 0.9680	49.3690
 0.9690	49.3860
 0.9700	49.3880
 0.9710	49.4040
 0.9720	49.3980
 0.9730	49.3720
 0.9740	49.3570
 0.9750	49.4110
 0.9760	49.4460
 0.9770	49.4510
 0.9780	49.4560
 0.9790	49.4900
 0.9800	49.4860
 0.9810	49.4550
 0.9820	49.4470
 0.9830	49.4870
 0.9840	49.4840
 0.9850	49.4870
 0.9860	49.5700
 0.9870	49.5910
 0.9880	49.6160
 0.9890	49.6520
 0.9900	49.6720
 0.9910	49.6470
 0.9920	49.7500
 0.9930	49.8530
 0.9940	49.9560
 0.9950	50.0590
 0.9960	50.1620
 0.9970	50.2650
 0.9980	50.3680
 0.9990	50.4710
 1.0000	50.5740
 1.0010	50.6770
 1.0020	50.7800
 1.0030	50.8840
 1.0040	50.9870
 1.0050	51.0900
 1.0060	51.1930
 1.0070	51.2960
 1.0080	51.3990
 1.0090	51.5020
 1.0100	51.5020
 1.0110	51.5050
 1.0120	51.5230
 1.0130	51.5670
 1.0140	51.5980
 1.0150	51.6200
 1.0160	51.6530
 1.0170	51.6910
 1.0180	51.7080
 1.0190	51.7240
 1.0200	51.7520
 1.0210	51.7700
 1.0220	51.7990
 1.0230	51.8150
 1.0240	51.8140
 1.0250	51.8360
 1.0260	51.8570
 1.0270	51.8880
 1.0280	51.9530
 1.0290	51.9890
 1.0300	52.0240
 1.0310	52.0430
 1.0320	52.0360
 1.0330	52.0240
 1.0340	52.0680
 1.0350	52.0970
 1.0360	52.1280
 1.0370	52.1690
 1.0380	52.1830
 1.0390	52.1450
 1.0400	52.1570
 1.0410	52.1970
 1.0420	52.2170
 1.0430	52.2460
 1.0440	52.2650
 1.0450	52.2730
 1.0460	52.2750
 1.0470	52.2670
 1.0480	52.2720
 1.0490	52.2700
 1.0500	52.2780
 1.0510	52.3130
 1.0520	52.3310
 1.0530	52.3420
 1.0540	52.3500
 1.0550	52.3590
 1.0560	52.3580
 1.0570	52.3670
 1.0580	52.3820
 1.0590	52.3960
 1.0600	52.4190
 1.0610	52.4270
 1.0620	52.4280
 1.0630	52.4320
 1.0640	52.4230
 1.0650	52.4220
 1.0660	52.4220
 1.0670	52.4280
 1.0680	52.4360
 1.0690	52.4470
 1.0700	52.4590
 1.0710	52.4850
 1.0720	52.4850
 1.0730	52.4700
 1.0740	52.4660
 1.0750	52.4590
 1.0760	52.4470
 1.0770	52.4360
 1.0780	52.4300
 1.0790	52.4090
 1.0800	52.4060
 1.0810	52.4330
 1.0820	52.4380
 1.0830	52.4290
 1.0840	52.4310
 1.0850	52.4360
 1.0860	52.4340
 1.0870	52.4310
 1.0880	52.4400
 1.0890	52.4270
 1.0900	52.3910
 1.0910	52.3740
 1.0920	52.3560
 1.0930	52.3440
 1.0940	52.3380
 1.0950	52.3360
 1.0960	52.3420
 1.0970	52.3410
 1.0980	52.3450
 1.0990	52.3410
 1.1000	52.3270
 1.1010	52.3160
 1.1020	52.2940
 1.1030	52.2930
 1.1040	52.2900
 1.1050	52.2760
 1.1060	52.2640
 1.1070	52.2510
 1.1080	52.2360
 1.1090	52.2150
 1.1100	52.2010
 1.1110	52.1930
 1.1120	52.1780
 1.1130	52.1620
 1.1140	52.1450
 1.1150	52.1240
 1.1160	52.1030
 1.1170	52.0760
 1.1180	52.0610
 1.1190	52.0580
 1.1200	52.0460
 1.1210	52.0370
 1.1220	52.0230
 1.1230	51.9840
 1.1240	51.9390
 1.1250	51.8930
 1.1260	51.8380
 1.1270	51.7880
 1.1280	51.7470
 1.1290	51.6850
 1.1300	51.6150
 1.1310	51.5410
 1.1320	51.4560
 1.1330	51.3620
 1.1340	51.2590
 1.1350	51.1610
 1.1360	51.0560
 1.1370	50.9500
 1.1380	50.8420
 1.1390	50.7240
 1.1400	50.6000
 1.1410	50.4730
 1.1420	50.3560
 1.1430	50.2340
 1.1440	50.1050
 1.1450	49.9660
 1.1460	49.8340
 1.1470	49.6920
 1.1480	49.5690
 1.1490	49.4530
 1.1500	49.3430
 1.1510	49.2410
 1.1520	49.1480
 1.1530	49.0610
 1.1540	48.9850
 1.1550	48.9200
 1.1560	48.8580
 1.1570	48.8060
 1.1580	48.7470
 1.1590	48.6990
 1.1600	48.6700
 1.1610	48.6330
 1.1620	48.6100
 1.1630	48.5940
 1.1640	48.5650
 1.1650	48.5390
 1.1660	48.5140
 1.1670	48.4970
 1.1680	48.4830
 1.1690	48.4730
 1.1700	48.4780
 1.1710	48.4720
 1.1720	48.4570
 1.1730	48.4480
 1.1740	48.4420
 1.1750	48.4270
 1.1760	48.4120
 1.1770	48.4000
 1.1780	48.3870
 1.1790	48.3850
 1.1800	48.3810
 1.1810	48.3750
 1.1820	48.3620
 1.1830	48.3360
 1.1840	48.3210
 1.1850	48.3080
 1.1860	48.2970
 1.1870	48.3030
 1.1880	48.3030
 1.1890	48.3050
 1.1900	48.3030
 1.1910	48.3000
 1.1920	48.2910
 1.1930	48.2690
 1.1940	48.2650
 1.1950	48.2630
 1.1960	48.2710
 1.1970	48.2890
 1.1980	48.3180
 1.1990	48.3390
 1.2000	48.3490
 1.2010	48.3650
 1.2020	48.3820
 1.2030	48.3860
 1.2040	48.4000
 1.2050	48.4250
 1.2060	48.4430
 1.2070	48.4690
 1.2080	48.5040
 1.2090	48.5310
 1.2100	48.5530
 1.2110	48.5780
 1.2120	48.6050
 1.2130	48.6340
 1.2140	48.6640
 1.2150	48.6970
 1.2160	48.7370
 1.2170	48.7660
 1.2180	48.7920
 1.2190	48.8240
 1.2200	48.8510
 1.2210	48.8800
 1.2220	48.9230
 1.2230	48.9570
 1.2240	48.9840
 1.2250	49.0260
 1.2260	49.0610
 1.2270	49.0920
 1.2280	49.1270
 1.2290	49.1540
 1.2300	49.1700
 1.2310	49.1900
 1.2320	49.2170
 1.2330	49.2370
 1.2340	49.2640
 1.2350	49.3010
 1.2360	49.3280
 1.2370	49.3490
 1.2380	49.3820
 1.2390	49.4120
 1.2400	49.4340
 1.2410	49.4560
 1.2420	49.4700
 1.2430	49.4890
 1.2440	49.5110
 1.2450	49.5350
 1.2460	49.5620
 1.2470	49.5770
 1.2480	49.5910
 1.2490	49.6080
 1.2500	49.6200
 1.2510	49.6320
 1.2520	49.6400
 1.2530	49.6450
 1.2540	49.6580
 1.2550	49.6710
 1.2560	49.6730
 1.2570	49.6750
 1.2580	49.6780
 1.2590	49.6800
 1.2600	49.6820
 1.2610	49.6850
 1.2620	49.6900
 1.2630	49.6960
 1.2640	49.7080
 1.2650	49.7200
 1.2660	49.7310
 1.2670	49.7300
 1.2680	49.7240
 1.2690	49.7290
 1.2700	49.7380
 1.2710	49.7480
 1.2720	49.7530
 1.2730	49.7460
 1.2740	49.7340
 1.2750	49.7260
 1.2760	49.7180
 1.2770	49.7090
 1.2780	49.6970
 1.2790	49.6780
 1.2800	49.6630
 1.2810	49.6480
 1.2820	49.6330
 1.2830	49.6160
 1.2840	49.5950
 1.2850	49.5620
 1.2860	49.5230
 1.2870	49.4950
 1.2880	49.4740
 1.2890	49.4430
 1.2900	49.4120
 1.2910	49.3840
 1.2920	49.3400
 1.2930	49.2990
 1.2940	49.2670
 1.2950	49.2300
 1.2960	49.1910
 1.2970	49.1480
 1.2980	49.1010
 1.2990	49.0560
 1.3000	49.0010
 1.3010	48.9410
 1.3020	48.8860
 1.3030	48.8240
 1.3040	48.7620
 1.3050	48.7030
 1.3060	48.6320
 1.3070	48.5570
 1.3080	48.4810
 1.3090	48.4000
 1.3100	48.3260
 1.3110	48.2420
 1.3120	48.1540
 1.3130	48.0630
 1.3140	47.9680
 1.3150	47.8670
 1.3160	47.7730
 1.3170	47.6800
 1.3180	47.5850
 1.3190	47.4870
 1.3200	47.3790
 1.3210	47.2750
 1.3220	47.1720
 1.3230	47.0650
 1.3240	46.9570
 1.3250	46.8350
 1.3260	46.7060
 1.3270	46.5880
 1.3280	46.4640
 1.3290	46.3410
 1.3300	46.2140
 1.3310	46.0600
 1.3320	45.9120
 1.3330	45.7730
 1.3340	45.6300
 1.3350	45.5000
 1.3360	45.3730
 1.3370	45.2310
 1.3380	45.0900
 1.3390	44.9530
 1.3400	44.8080
 1.3410	44.6670
 1.3420	44.5310
 1.3430	44.4010
 1.3440	44.2730
 1.3450	44.1390
 1.3460	44.0010
 1.3470	43.8670
 1.3480	43.7250
 1.3490	43.5900
 1.3500	43.4620
 1.3510	43.3340
 1.3520	43.2040
 1.3530	43.0740
 1.3540	42.9470
 1.3550	42.8200
 1.3560	42.6840
 1.3570	42.5500
 1.3580	42.4240
 1.3590	42.2910
 1.3600	42.1580
 1.3610	42.0210
 1.3620	41.8610
 1.3630	41.6920
 1.3640	41.5290
 1.3650	41.3630
 1.3660	41.1910
 1.3670	41.0160
 1.3680	40.8230
 1.3690	40.6030
 1.3700	40.3740
 1.3710	40.1350
 1.3720	39.8730
 1.3730	39.5980
 1.3740	39.3060
 1.3750	38.9910
 1.3760	38.6570
 1.3770	38.3050
 1.3780	37.9270
 1.3790	37.5150
 1.3800	37.0800
 1.3810	36.6260
 1.3820	36.1530
 1.3830	35.6620
 1.3840	35.1510
 1.3850	34.6220
 1.3860	34.0700
 1.3870	33.4880
 1.3880	32.9060
 1.3890	32.3070
 1.3900	31.7020
 1.3910	31.1040
 1.3920	30.5010
 1.3930	29.8930
 1.3940	29.2890
 1.3950	28.6850
 1.3960	28.0950
 1.3970	27.5180
 1.3980	26.9580
 1.3990	26.4160
 1.4000	25.8850
 1.4010	25.3790
 1.4020	24.8930
 1.4030	24.4220
 1.4040	23.9840
 1.4050	23.5650
 1.4060	23.1620
 1.4070	22.7980
 1.4080	22.4520
 1.4090	22.1220
 1.4100	21.8290
 1.4110	21.5490
 1.4120	21.2880
 1.4130	21.0560
 1.4140	20.8330
 1.4150	20.6330
 1.4160	20.4520
 1.4170	20.2780
 1.4180	20.1260
 1.4190	19.9930
 1.4200	19.8720
 1.4210	19.7640
 1.4220	19.6660
 1.4230	19.5690
 1.4240	19.4760
 1.4250	19.3960
 1.4260	19.3240
 1.4270	19.2620
 1.4280	19.2140
 1.4290	19.1690
 1.4300	19.1340
 1.4310	19.0970
 1.4320	19.0610
 1.4330	19.0340
 1.4340	19.0080
 1.4350	18.9930
 1.4360	18.9920
 1.4370	18.9860
 1.4380	18.9820
 1.4390	18.9850
 1.4400	18.9840
 1.4410	18.9870
 1.4420	19.0000
 1.4430	19.0120
 1.4440	19.0290
 1.4450	19.0530
 1.4460	19.0750
 1.4470	19.0970
 1.4480	19.1180
 1.4490	19.1380
 1.4500	19.1560
 1.4510	19.1750
 1.4520	19.2050
 1.4530	19.2390
 1.4540	19.2730
 1.4550	19.3110
 1.4560	19.3430
 1.4570	19.3720
 1.4580	19.4100
 1.4590	19.4550
 1.4600	19.5040
 1.4610	19.5620
 1.4620	19.6230
 1.4630	19.6860
 1.4640	19.7520
 1.4650	19.8190
 1.4660	19.8920
 1.4670	19.9690
 1.4680	20.0590
 1.4690	20.1570
 1.4700	20.2560
 1.4710	20.3610
 1.4720	20.4680
 1.4730	20.5780
 1.4740	20.6960
 1.4750	20.8160
 1.4760	20.9330
 1.4770	21.0530
 1.4780	21.1780
 1.4790	21.3060
 1.4800	21.4350
 1.4810	21.5670
 1.4820	21.6950
 1.4830	21.8260
 1.4840	21.9650
 1.4850	22.1010
 1.4860	22.2420
 1.4870	22.3860
 1.4880	22.5220
 1.4890	22.6620
 1.4900	22.8030
 1.4910	22.9420
 1.4920	23.0850
 1.4930	23.2290
 1.4940	23.3750
 1.4950	23.5270
 1.4960	23.6710
 1.4970	23.8130
 1.4980	23.9580
 1.4990	24.0970
 1.5000	24.2400
 1.5010	24.3840
 1.5020	24.5300
 1.5030	24.6800
 1.5040	24.8240
 1.5050	24.9670
 1.5060	25.1110
 1.5070	25.2520
 1.5080	25.3920
 1.5090	25.5330
 1.5100	25.6740
 1.5110	25.8140
 1.5120	25.9520
 1.5130	26.0860
 1.5140	26.2210
 1.5150	26.3540
 1.5160	26.4900
 1.5170	26.6330
 1.5180	26.7760
 1.5190	26.9130
 1.5200	27.0490
 1.5210	27.1830
 1.5220	27.3110
 1.5230	27.4380
 1.5240	27.5690
 1.5250	27.7010
 1.5260	27.8320
 1.5270	27.9590
 1.5280	28.0820
 1.5290	28.2020
 1.5300	28.3260
 1.5310	28.4550
 1.5320	28.5830
 1.5330	28.7070
 1.5340	28.8260
 1.5350	28.9470
 1.5360	29.0670
 1.5370	29.1820
 1.5380	29.2990
 1.5390	29.4210
 1.5400	29.5370
 1.5410	29.6520
 1.5420	29.7720
 1.5430	29.8840
 1.5440	29.9940
 1.5450	30.1080
 1.5460	30.2200
 1.5470	30.3280
 1.5480	30.4320
 1.5490	30.5420
 1.5500	30.6490
 1.5510	30.7530
 1.5520	30.8580
 1.5530	30.9580
 1.5540	31.0590
 1.5550	31.1560
 1.5560	31.2510
 1.5570	31.3500
 1.5580	31.4420
 1.5590	31.5350
 1.5600	31.6350
 1.5610	31.7240
 1.5620	31.8160
 1.5630	31.9140
 1.5640	32.0050
 1.5650	32.1030
 1.5660	32.2020
 1.5670	32.2960
 1.5680	32.3870
 1.5690	32.4730
 1.5700	32.5510
 1.5710	32.6240
 1.5720	32.7060
 1.5730	32.7910
 1.5740	32.8770
 1.5750	32.9700
 1.5760	33.0580
 1.5770	33.1400
 1.5780	33.2190
 1.5790	33.2940
 1.5800	33.3670
 1.5810	33.4440
 1.5820	33.5230
 1.5830	33.5980
 1.5840	33.6690
 1.5850	33.7400
 1.5860	33.8090
 1.5870	33.8800
 1.5880	33.9600
 1.5890	34.0390
 1.5900	34.1200
 1.5910	34.2040
 1.5920	34.2840
 1.5930	34.3570
 1.5940	34.4290
 1.5950	34.4980
 1.5960	34.5620
 1.5970	34.6210
 1.5980	34.6770
 1.5990	34.7380
 1.6000	34.7970
 1.6010	34.8590
 1.6020	34.9250
 1.6030	34.9840
 1.6040	35.0480
 1.6050	35.1080
 1.6060	35.1690
 1.6070	35.2360
 1.6080	35.2920
 1.6090	35.3470
 1.6100	35.4050
 1.6110	35.4620
 1.6120	35.5190
 1.6130	35.5830
 1.6140	35.6470
 1.6150	35.7000
 1.6160	35.7500
 1.6170	35.7950
 1.6180	35.8380
 1.6190	35.8820
 1.6200	35.9260
 1.6210	35.9710
 1.6220	36.0140
 1.6230	36.0520
 1.6240	36.0850
 1.6250	36.1250
 1.6260	36.1550
 1.6270	36.1760
 1.6280	36.1980
 1.6290	36.2260
 1.6300	36.2590
 1.6310	36.2960
 1.6320	36.3410
 1.6330	36.3790
 1.6340	36.4200
 1.6350	36.4540
 1.6360	36.4850
 1.6370	36.5140
 1.6380	36.5330
 1.6390	36.5600
 1.6400	36.5920
 1.6410	36.6180
 1.6420	36.6470
 1.6430	36.6770
 1.6440	36.7000
 1.6450	36.7360
 1.6460	36.7720
 1.6470	36.7930
 1.6480	36.8030
 1.6490	36.8230
 1.6500	36.8390
 1.6510	36.8440
 1.6520	36.8590
 1.6530	36.8590
 1.6540	36.8440
 1.6550	36.8320
 1.6560	36.8190
 1.6570	36.8010
 1.6580	36.7820
 1.6590	36.7740
 1.6600	36.7610
 1.6610	36.7310
 1.6620	36.7120
 1.6630	36.6950
 1.6640	36.6720
 1.6650	36.6600
 1.6660	36.6400
 1.6670	36.6140
 1.6680	36.5970
 1.6690	36.5720
 1.6700	36.5500
 1.6710	36.5260
 1.6720	36.4930
 1.6730	36.4690
 1.6740	36.4370
 1.6750	36.3870
 1.6760	36.3380
 1.6770	36.2880
 1.6780	36.2390
 1.6790	36.1990
 1.6800	36.1600
 1.6810	36.1020
 1.6820	36.0360
 1.6830	35.9710
 1.6840	35.8990
 1.6850	35.8320
 1.6860	35.7720
 1.6870	35.7100
 1.6880	35.6440
 1.6890	35.5800
 1.6900	35.5140
 1.6910	35.4430
 1.6920	35.3750
 1.6930	35.3060
 1.6940	35.2420
 1.6950	35.1810
 1.6960	35.1210
 1.6970	35.0660
 1.6980	35.0080
 1.6990	34.9470
 1.7000	34.8900
 1.7010	34.8290
 1.7020	34.7790
 1.7030	34.7430
 1.7040	34.6910
 1.7050	34.6390
 1.7060	34.5830
 1.7070	34.5100
 1.7080	34.4470
 1.7090	34.3930
 1.7100	34.3300
 1.7110	34.2630
 1.7120	34.2040
 1.7130	34.1370
 1.7140	34.0770
 1.7150	34.0290
 1.7160	33.9810
 1.7170	33.9290
 1.7180	33.8740
 1.7190	33.8200
 1.7200	33.7720
 1.7210	33.7300
 1.7220	33.6930
 1.7230	33.6600
 1.7240	33.6260
 1.7250	33.5840
 1.7260	33.5530
 1.7270	33.5260
 1.7280	33.4840
 1.7290	33.4470
 1.7300	33.4040
 1.7310	33.3660
 1.7320	33.3370
 1.7330	33.3070
 1.7340	33.2800
 1.7350	33.2480
 1.7360	33.2190
 1.7370	33.1800
 1.7380	33.1300
 1.7390	33.0870
 1.7400	33.0470
 1.7410	33.0000
 1.7420	32.9560
 1.7430	32.9060
 1.7440	32.8450
 1.7450	32.7860
 1.7460	32.7230
 1.7470	32.6680
 1.7480	32.6220
 1.7490	32.5600
 1.7500	32.5010
 1.7510	32.4300
 1.7520	32.3360
 1.7530	32.2600
 1.7540	32.1910
 1.7550	32.1140
 1.7560	32.0470
 1.7570	31.9950
 1.7580	31.9370
 1.7590	31.8780
 1.7600	31.8280
 1.7610	31.7710
 1.7620	31.7120
 1.7630	31.6590
 1.7640	31.6040
 1.7650	31.5370
 1.7660	31.4800
 1.7670	31.4310
 1.7680	31.3810
 1.7690	31.3340
 1.7700	31.2910
 1.7710	31.2530
 1.7720	31.2150
 1.7730	31.1790
 1.7740	31.1460
 1.7750	31.1120
 1.7760	31.0830
 1.7770	31.0650
 1.7780	31.0350
 1.7790	30.9960
 1.7800	30.9710
 1.7810	30.9430
 1.7820	30.9250
 1.7830	30.9250
 1.7840	30.9080
 1.7850	30.8830
 1.7860	30.8720
 1.7870	30.8610
 1.7880	30.8540
 1.7890	30.8500
 1.7900	30.8330
 1.7910	30.8160
 1.7920	30.7870
 1.7930	30.7750
 1.7940	30.7750
 1.7950	30.7710
 1.7960	30.7750
 1.7970	30.7850
 1.7980	30.7960
 1.7990	30.8030
 1.8000	30.8190
 1.8010	30.8280
 1.8020	30.8200
 1.8030	30.8250
 1.8040	30.8350
 1.8050	30.8480
 1.8060	30.8760
 1.8070	30.8780
 1.8080	30.8720
 1.8090	30.8720
 1.8100	30.8520
 1.8110	30.8700
 1.8120	30.8680
 1.8130	30.8690
 1.8140	30.8880
 1.8150	30.8970
 1.8160	30.9100
 1.8170	30.9080
 1.8180	30.8920
 1.8190	30.8700
 1.8200	30.8600
 1.8210	30.8650
 1.8220	30.8550
 1.8230	30.8420
 1.8240	30.8350
 1.8250	30.8260
 1.8260	30.8080
 1.8270	30.7600
 1.8280	30.7120
 1.8290	30.6630
 1.8300	30.6150
 1.8310	30.5670
 1.8320	30.5190
 1.8330	30.4710
 1.8340	30.4220
 1.8350	30.4220
 1.8360	30.3410
 1.8370	30.2720
 1.8380	30.2240
 1.8390	30.1540
 1.8400	30.0920
 1.8410	30.0100
 1.8420	29.9130
 1.8430	29.7830
 1.8440	29.6750
 1.8450	29.5910
 1.8460	29.4970
 1.8470	29.3820
 1.8480	29.2500
 1.8490	29.0900
 1.8500	28.9320
 1.8510	28.7620
 1.8520	28.6050
 1.8530	28.4230
 1.8540	28.2290
 1.8550	27.9990
 1.8560	27.7470
 1.8570	27.5010
 1.8580	27.2120
 1.8590	26.9200
 1.8600	26.6190
 1.8610	26.3120
 1.8620	25.9720
 1.8630	25.6250
 1.8640	25.2650
 1.8650	24.8800
 1.8660	24.4800
 1.8670	24.0640
 1.8680	23.6260
 1.8690	23.1620
 1.8700	22.6830
 1.8710	22.1710
 1.8720	21.6700
 1.8730	21.1780
 1.8740	20.6630
 1.8750	20.1390
 1.8760	19.6120
 1.8770	19.0820
 1.8780	18.5630
 1.8790	18.0600
 1.8800	17.5510
 1.8810	17.0420
 1.8820	16.5260
 1.8830	16.0150
 1.8840	15.5110
 1.8850	15.0240
 1.8860	14.5540
 1.8870	14.1080
 1.8880	13.6680
 1.8890	13.2540
 1.8900	12.8740
 1.8910	12.5160
 1.8920	12.1770
 1.8930	11.8800
 1.8940	11.6060
 1.8950	11.3570
 1.8960	11.1020
 1.8970	10.8520
 1.8980	10.6480
 1.8990	10.4280
 1.9000	10.2370
 1.9010	10.0920
 1.9020	 9.9500
 1.9030	 9.8100
 1.9040	 9.6910
 1.9050	 9.5960
 1.9060	 9.4870
 1.9070	 9.3970
 1.9080	 9.3100
 1.9090	 9.2280
 1.9100	 9.1740
 1.9110	 9.1240
 1.9120	 9.0820
 1.9130	 9.0500
 1.9140	 9.0390
 1.9150	 9.0140
 1.9160	 8.9880
 1.9170	 8.9740
 1.9180	 8.9610
 1.9190	 8.9420
 1.9200	 8.9320
 1.9210	 8.9170
 1.9220	 8.8990
 1.9230	 8.8720
 1.9240	 8.8640
 1.9250	 8.8590
 1.9260	 8.8590
 1.9270	 8.8760
 1.9280	 8.8730
 1.9290	 8.8720
 1.9300	 8.8890
 1.9310	 8.8960
 1.9320	 8.9100
 1.9330	 8.9370
 1.9340	 8.9800
 1.9350	 9.0070
 1.9360	 9.0440
 1.9370	 9.0710
 1.9380	 9.0910
 1.9390	 9.0820
 1.9400	 9.1020
 1.9410	 9.1240
 1.9420	 9.1520
 1.9430	 9.2120
 1.9440	 9.2430
 1.9450	 9.2570
 1.9460	 9.2900
 1.9470	 9.3100
 1.9480	 9.3440
 1.9490	 9.3980
 1.9500	 9.4530
 1.9510	 9.4900
 1.9520	 9.5220
 1.9530	 9.5610
 1.9540	 9.6010
 1.9550	 9.6390
 1.9560	 9.6800
 1.9570	 9.7230
 1.9580	 9.7550
 1.9590	 9.7980
 1.9600	 9.8620
 1.9610	 9.9090
 1.9620	 9.9470
 1.9630	 9.9990
 1.9640	10.0390
 1.9650	10.0640
 1.9660	10.1070
 1.9670	10.1550
 1.9680	10.2040
 1.9690	10.2580
 1.9700	10.3200
 1.9710	10.3920
 1.9720	10.4510
 1.9730	10.5080
 1.9740	10.5770
 1.9750	10.6250
 1.9760	10.6620
 1.9770	10.7240
 1.9780	10.7710
 1.9790	10.8280
 1.9800	10.8910
 1.9810	10.9640
 1.9820	11.0500
 1.9830	11.1270
 1.9840	11.2090
 1.9850	11.2850
 1.9860	11.3600
 1.9870	11.4190
 1.9880	11.4800
 1.9890	11.5350
 1.9900	11.5870
 1.9910	11.6470
 1.9920	11.7110
 1.9930	11.7900
 1.9940	11.8600
 1.9950	11.9230
 1.9960	11.9940
 1.9970	12.0700
 1.9980	12.1400
 1.9990	12.2150
 2.0000	12.2940
 2.0010	12.3510
 2.0020	12.4170
 2.0030	12.4750
 2.0040	12.5490
 2.0050	12.6150
 2.0060	12.6820
 2.0070	12.7510
 2.0080	12.8190
 2.0090	12.8870
 2.0100	12.9550
 2.0110	13.0270
 2.0120	13.1040
 2.0130	13.1820
 2.0140	13.2300
 2.0150	13.2970
 2.0160	13.3630
 2.0170	13.4090
 2.0180	13.4700
 2.0190	13.5510
 2.0200	13.6140
 2.0210	13.6620
 2.0220	13.7210
 2.0230	13.7780
 2.0240	13.8370
 2.0250	13.9050
 2.0260	13.9660
 2.0270	14.0200
 2.0280	14.0870
 2.0290	14.1410
 2.0300	14.1740
 2.0310	14.2190
 2.0320	14.2490
 2.0330	14.3050
 2.0340	14.3730
 2.0350	14.4450
 2.0360	14.5370
 2.0370	14.6130
 2.0380	14.6980
 2.0390	14.7590
 2.0400	14.7910
 2.0410	14.8380
 2.0420	14.8780
 2.0430	14.9210
 2.0440	14.9570
 2.0450	14.9920
 2.0460	15.0430
 2.0470	15.0880
 2.0480	15.1410
 2.0490	15.2350
 2.0500	15.2860
 2.0510	15.2970
 2.0520	15.3400
 2.0530	15.3880
 2.0540	15.4300
 2.0550	15.4730
 2.0560	15.5390
 2.0570	15.5960
 2.0580	15.6320
 2.0590	15.7010
 2.0600	15.7950
 2.0610	15.8750
 2.0620	15.9720
 2.0630	16.0400
 2.0640	16.0900
 2.0650	16.1370
 2.0660	16.1660
 2.0670	16.1970
 2.0680	16.2090
 2.0690	16.2480
 2.0700	16.2930
 2.0710	16.3400
 2.0720	16.4160
 2.0730	16.4730
 2.0740	16.5210
 2.0750	16.5470
 2.0760	16.6120
 2.0770	16.6880
 2.0780	16.7590
 2.0790	16.8750
 2.0800	16.9230
 2.0810	16.8990
 2.0820	16.9390
 2.0830	16.9750
 2.0840	17.0260
 2.0850	17.1510
 2.0860	17.2200
 2.0870	17.2570
 2.0880	17.2890
 2.0890	17.3200
 2.0900	17.3250
 2.0910	17.3590
 2.0920	17.4040
 2.0930	17.4510
 2.0940	17.5190
 2.0950	17.5610
 2.0960	17.5860
 2.0970	17.6330
 2.0980	17.6720
 2.0990	17.7240
 2.1000	17.8150
 2.1010	17.8750
 2.1020	17.9230
 2.1030	17.9680
 2.1040	18.0000
 2.1050	18.0240
 2.1060	18.0720
 2.1070	18.1260
 2.1080	18.1790
 2.1090	18.2450
 2.1100	18.3080
 2.1110	18.3760
 2.1120	18.4290
 2.1130	18.4870
 2.1140	18.5270
 2.1150	18.5310
 2.1160	18.5600
 2.1170	18.5940
 2.1180	18.6290
 2.1190	18.6900
 2.1200	18.7240
 2.1210	18.7270
 2.1220	18.7470
 2.1230	18.7770
 2.1240	18.7930
 2.1250	18.8410
 2.1260	18.9330
 2.1270	18.9810
 2.1280	19.0280
 2.1290	19.0570
 2.1300	19.0550
 2.1310	19.0720
 2.1320	19.0740
 2.1330	19.1050
 2.1340	19.1620
 2.1350	19.2080
 2.1360	19.2680
 2.1370	19.3200
 2.1380	19.3690
 2.1390	19.4080
 2.1400	19.4470
 2.1410	19.4760
 2.1420	19.4940
 2.1430	19.4910
 2.1440	19.5080
 2.1450	19.5230
 2.1460	19.5450
 2.1470	19.5710
 2.1480	19.6050
 2.1490	19.6490
 2.1500	19.6830
 2.1510	19.7240
 2.1520	19.7600
 2.1530	19.7740
 2.1540	19.8110
 2.1550	19.8810
 2.1560	19.9140
 2.1570	19.9310
 2.1580	19.9570
 2.1590	19.9740
 2.1600	19.9790
 2.1610	19.9890
 2.1620	19.9950
 2.1630	19.9840
 2.1640	19.9320
 2.1650	19.9310
 2.1660	19.9430
 2.1670	19.9680
 2.1680	20.0230
 2.1690	20.0680
 2.1700	20.1270
 2.1710	20.1650
 2.1720	20.2060
 2.1730	20.2230
 2.1740	20.2080
 2.1750	20.2040
 2.1760	20.1730
 2.1770	20.1760
 2.1780	20.2100
 2.1790	20.2300
 2.1800	20.2570
 2.1810	20.2910
 2.1820	20.3280
 2.1830	20.3620
 2.1840	20.3800
 2.1850	20.3990
 2.1860	20.4210
 2.1870	20.4140
 2.1880	20.4400
 2.1890	20.5070
 2.1900	20.5300
 2.1910	20.5380
 2.1920	20.5500
 2.1930	20.5270
 2.1940	20.5410
 2.1950	20.5930
 2.1960	20.6080
 2.1970	20.6180
 2.1980	20.6260
 2.1990	20.5970
 2.2000	20.5970
 2.2010	20.6330
 2.2020	20.6450
 2.2030	20.6510
 2.2040	20.6570
 2.2050	20.6450
 2.2060	20.6400
 2.2070	20.6410
 2.2080	20.6550
 2.2090	20.6480
 2.2100	20.6330
 2.2110	20.6190
 2.2120	20.5820
 2.2130	20.5800
 2.2140	20.6030
 2.2150	20.6040
 2.2160	20.6170
 2.2170	20.6160
 2.2180	20.6000
 2.2190	20.5780
 2.2200	20.5530
 2.2210	20.5130
 2.2220	20.4320
 2.2230	20.3960
 2.2240	20.3790
 2.2250	20.3580
 2.2260	20.3680
 2.2270	20.3570
 2.2280	20.3520
 2.2290	20.3150
 2.2300	20.2670
 2.2310	20.1910
 2.2320	20.0810
 2.2330	19.9960
 2.2340	19.9470
 2.2350	19.9380
 2.2360	19.8830
 2.2370	19.8350
 2.2380	19.7800
 2.2390	19.6930
 2.2400	19.6310
 2.2410	19.5990
 2.2420	19.5360
 2.2430	19.4390
 2.2440	19.3750
 2.2450	19.3360
 2.2460	19.2650
 2.2470	19.1920
 2.2480	19.1230
 2.2490	19.0200
 2.2500	18.9490
 2.2510	18.9180
 2.2520	18.8630
 2.2530	18.7960
 2.2540	18.7470
 2.2550	18.7040
 2.2560	18.6560
 2.2570	18.6250
 2.2580	18.5810
 2.2590	18.5430
 2.2600	18.4730
 2.2610	18.3850
 2.2620	18.2700
 2.2630	18.1770
 2.2640	18.0780
 2.2650	18.0280
 2.2660	18.0380
 2.2670	18.0050
 2.2680	17.9840
 2.2690	17.9230
 2.2700	17.8340
 2.2710	17.7470
 2.2720	17.6310
 2.2730	17.5500
 2.2740	17.4760
 2.2750	17.4110
 2.2760	17.3690
 2.2770	17.3190
 2.2780	17.2690
 2.2790	17.2230
 2.2800	17.1880
 2.2810	17.1360
 2.2820	17.0810
 2.2830	17.0210
 2.2840	16.9380
 2.2850	16.8790
 2.2860	16.8300
 2.2870	16.7820
 2.2880	16.7540
 2.2890	16.7070
 2.2900	16.6510
 2.2910	16.5920
 2.2920	16.5180
 2.2930	16.4560
 2.2940	16.3750
 2.2950	16.3350
 2.2960	16.3530
 2.2970	16.3290
 2.2980	16.3050
 2.2990	16.2840
 2.3000	16.2330
 2.3010	16.1290
 2.3020	16.0570
 2.3030	16.0020
 2.3040	15.9300
 2.3050	15.8790
 2.3060	15.8430
 2.3070	15.8080
 2.3080	15.7920
 2.3090	15.7660
 2.3100	15.7640
 2.3110	15.7550
 2.3120	15.7310
 2.3130	15.6990
 2.3140	15.6850
 2.3150	15.6570
 2.3160	15.6660
 2.3170	15.7280
 2.3180	15.7310
 2.3190	15.7080
 2.3200	15.7010
 2.3210	15.6770
 2.3220	15.6590
 2.3230	15.6870
 2.3240	15.6480
 2.3250	15.5660
 2.3260	15.5040
 2.3270	15.4060
 2.3280	15.3360
 2.3290	15.2690
 2.3300	15.2170
 2.3310	15.1950
 2.3320	15.1540
 2.3330	15.0920
 2.3340	15.0880
 2.3350	15.1260
 2.3360	15.1120
 2.3370	15.1260
 2.3380	15.1210
 2.3390	15.0520
 2.3400	15.0090
 2.3410	14.9930
 2.3420	14.9730
 2.3430	14.9500
 2.3440	14.9060
 2.3450	14.8440
 2.3460	14.8130
 2.3470	14.7670
 2.3480	14.7380
 2.3490	14.7720
 2.3500	14.7520
 2.3510	14.6950
 2.3520	14.6570
 2.3530	14.6230
 2.3540	14.5630
 2.3550	14.4750
 2.3560	14.4110
 2.3570	14.3100
 2.3580	14.2190
 2.3590	14.2610
 2.3600	14.2940
 2.3610	14.2530
 2.3620	14.2470
 2.3630	14.1760
 2.3640	14.0500
 2.3650	14.0410
 2.3660	14.0460
 2.3670	14.0080
 2.3680	14.0190
 2.3690	14.0360
 2.3700	14.0730
 2.3710	14.1160
 2.3720	14.1120
 2.3730	14.0790
 2.3740	13.9600
 2.3750	13.8610
 2.3760	13.8190
 2.3770	13.6960
 2.3780	13.6260
 2.3790	13.6260
 2.3800	13.5820
 2.3810	13.5800
 2.3820	13.6190
 2.3830	13.5620
 2.3840	13.4910
 2.3850	13.5250
 2.3860	13.5220
 2.3870	13.4710
 2.3880	13.4450
 2.3890	13.3970
 2.3900	13.3030
 2.3910	13.2310
 2.3920	13.1670
 2.3930	13.0210
 2.3940	12.8400
 2.3950	12.7510
 2.3960	12.7240
 2.3970	12.7220
 2.3980	12.7970
 2.3990	12.7590
 2.4000	12.6680
 2.4010	12.6230
 2.4020	12.5470
 2.4030	12.5610
 2.4040	12.6340
 2.4050	12.6270
 2.4060	12.5560
 2.4070	12.5230
 2.4080	12.4690
 2.4090	12.4480
 2.4100	12.4560
 2.4110	12.2970
 2.4120	12.1540
 2.4130	12.0490
 2.4140	11.9290
 2.4150	12.0070
 2.4160	12.1190
 2.4170	12.0690
 2.4180	12.0230
 2.4190	12.0890
 2.4200	12.1580
 2.4210	12.2520
 2.4220	12.2980
 2.4230	12.1180
 2.4240	11.9090
 2.4250	11.7870
 2.4260	11.8310
 2.4270	11.9310
 2.4280	11.8860
 2.4290	11.7630
 2.4300	11.5420
 2.4310	11.4460
 2.4320	11.4430
 2.4330	11.4980
 2.4340	11.6520
 2.4350	11.6290
 2.4360	11.5770
 2.4370	11.5580
 2.4380	11.5450
 2.4390	11.5250
 2.4400	11.4700
 2.4410	11.3740
 2.4420	11.1730
 2.4430	11.0260
 2.4440	10.9810
 2.4450	10.9450
 2.4460	11.0070
 2.4470	11.1020
 2.4480	11.0340
 2.4490	10.9910
 2.4500	10.8810
 2.4510	10.6590
 2.4520	10.5570
 2.4530	10.4750
 2.4540	10.5260
 2.4550	10.6330
 2.4560	10.6480
 2.4570	10.8070
 2.4580	10.7570
 2.4590	10.4210
 2.4600	10.3550
 2.4610	10.2750
 2.4620	10.1200
 2.4630	10.2650
 2.4640	10.1990
 2.4650	 9.8020
 2.4660	 9.6060
 2.4670	 9.4760
 2.4680	 9.4630
 2.4690	 9.7350
 2.4700	 9.9320
 2.4710	10.3340
 2.4720	10.4120
 2.4730	10.2520
 2.4740	10.2420
 2.4750	10.0180
 2.4760	10.0050
 2.4770	10.3780
 2.4780	10.3610
 2.4790	10.1890
 2.4800	10.1200
 2.4810	 9.6750
 2.4820	 9.9940
 2.4830	 9.9900
 2.4840	 9.7580
 2.4850	10.2360
 2.4860	10.0200
 2.4870	 9.7100
 2.4880	 9.7910
 2.4890	 9.3030
 2.4900	 9.5310
 2.4910	10.3200
 2.4920	10.4680
 2.4930	11.1850
 2.4940	11.4400
 2.4950	10.9210
 2.4960	11.2660
 2.4970	11.3230
 2.4980	11.0790
 2.4990	10.9640
 2.5000	10.5230
