Name: Quercus douglasii 2
Type: vegetation
Class: Tree
Genus: Quercus
Species: douglasii
Sample No.: VH273
Owner: UCSB
Wavelength Range: VSWIR
Origin: 34.7157; -120.0601; WGS84
Collection Date: 11/2/2013
Description: Samples were collected as part of the HyspIRI Airborne Campaign. 48 individual plants were sampled in three times in 2013 - spring  summer  and fall. The name of the sample includes a 1  2  or 3 which references a different individual of the species. Samples were taken to JPL and processed within 48 hours of collection. The same leaves were processed in the Nicolet and then measured using the ASD.
Measurement: Bidirectional reflectance
First Column: X
Second Column: Y
X Units: Wavelength (micrometers)
Y Units: Reflectance (percentage)
First X Value: 0.35
Last X Value: 2.5
Number of X Values: 2151
Additional Information: vegetation.tree.quercus.douglasii.vswir.vh273.ucsb.asd.ancillary.txt

 0.3500	 7.9900
 0.3510	 8.0780
 0.3520	 8.0770
 0.3530	 8.0440
 0.3540	 8.0290
 0.3550	 7.8460
 0.3560	 7.7950
 0.3570	 7.8890
 0.3580	 7.9760
 0.3590	 7.9250
 0.3600	 7.8520
 0.3610	 7.8160
 0.3620	 7.7490
 0.3630	 7.7880
 0.3640	 7.8880
 0.3650	 7.9610
 0.3660	 7.9550
 0.3670	 7.9270
 0.3680	 7.9050
 0.3690	 7.8920
 0.3700	 7.8960
 0.3710	 7.8890
 0.3720	 7.8670
 0.3730	 7.8830
 0.3740	 7.8990
 0.3750	 7.9240
 0.3760	 7.9560
 0.3770	 7.8740
 0.3780	 7.8750
 0.3790	 7.9520
 0.3800	 7.9290
 0.3810	 7.9820
 0.3820	 8.0130
 0.3830	 7.9700
 0.3840	 7.9960
 0.3850	 8.0190
 0.3860	 8.0210
 0.3870	 8.0130
 0.3880	 8.0850
 0.3890	 8.0790
 0.3900	 7.9970
 0.3910	 8.0150
 0.3920	 8.0330
 0.3930	 8.0610
 0.3940	 8.1100
 0.3950	 8.1280
 0.3960	 8.1330
 0.3970	 8.1390
 0.3980	 8.1570
 0.3990	 8.1380
 0.4000	 8.1480
 0.4010	 8.2030
 0.4020	 8.2360
 0.4030	 8.2340
 0.4040	 8.2480
 0.4050	 8.3090
 0.4060	 8.3280
 0.4070	 8.3240
 0.4080	 8.3340
 0.4090	 8.3930
 0.4100	 8.3910
 0.4110	 8.3990
 0.4120	 8.4520
 0.4130	 8.4660
 0.4140	 8.5130
 0.4150	 8.5580
 0.4160	 8.5570
 0.4170	 8.5770
 0.4180	 8.6200
 0.4190	 8.6650
 0.4200	 8.6730
 0.4210	 8.7060
 0.4220	 8.7500
 0.4230	 8.7860
 0.4240	 8.8160
 0.4250	 8.8470
 0.4260	 8.8820
 0.4270	 8.9230
 0.4280	 8.9530
 0.4290	 8.9850
 0.4300	 9.0210
 0.4310	 9.0350
 0.4320	 9.0480
 0.4330	 9.0730
 0.4340	 9.1110
 0.4350	 9.1450
 0.4360	 9.1660
 0.4370	 9.1790
 0.4380	 9.1990
 0.4390	 9.2160
 0.4400	 9.2360
 0.4410	 9.2640
 0.4420	 9.2930
 0.4430	 9.3080
 0.4440	 9.3190
 0.4450	 9.3440
 0.4460	 9.3590
 0.4470	 9.3660
 0.4480	 9.3730
 0.4490	 9.3940
 0.4500	 9.4150
 0.4510	 9.4300
 0.4520	 9.4380
 0.4530	 9.4550
 0.4540	 9.4670
 0.4550	 9.4770
 0.4560	 9.4920
 0.4570	 9.5070
 0.4580	 9.5160
 0.4590	 9.5210
 0.4600	 9.5260
 0.4610	 9.5360
 0.4620	 9.5540
 0.4630	 9.5760
 0.4640	 9.5950
 0.4650	 9.6010
 0.4660	 9.6000
 0.4670	 9.6080
 0.4680	 9.6130
 0.4690	 9.6180
 0.4700	 9.6260
 0.4710	 9.6250
 0.4720	 9.6390
 0.4730	 9.6570
 0.4740	 9.6500
 0.4750	 9.6570
 0.4760	 9.6630
 0.4770	 9.6630
 0.4780	 9.6720
 0.4790	 9.6800
 0.4800	 9.6870
 0.4810	 9.6960
 0.4820	 9.7010
 0.4830	 9.7060
 0.4840	 9.7110
 0.4850	 9.7200
 0.4860	 9.7320
 0.4870	 9.7460
 0.4880	 9.7600
 0.4890	 9.7740
 0.4900	 9.7990
 0.4910	 9.8290
 0.4920	 9.8520
 0.4930	 9.8720
 0.4940	 9.8950
 0.4950	 9.9240
 0.4960	 9.9630
 0.4970	 9.9940
 0.4980	10.0260
 0.4990	10.0730
 0.5000	10.1230
 0.5010	10.1790
 0.5020	10.2410
 0.5030	10.3090
 0.5040	10.3790
 0.5050	10.4530
 0.5060	10.5340
 0.5070	10.6310
 0.5080	10.7370
 0.5090	10.8530
 0.5100	10.9810
 0.5110	11.1190
 0.5120	11.2670
 0.5130	11.4270
 0.5140	11.6040
 0.5150	11.7960
 0.5160	11.9980
 0.5170	12.2040
 0.5180	12.4250
 0.5190	12.6590
 0.5200	12.9010
 0.5210	13.1450
 0.5220	13.3960
 0.5230	13.6530
 0.5240	13.9120
 0.5250	14.1660
 0.5260	14.4140
 0.5270	14.6530
 0.5280	14.8800
 0.5290	15.1050
 0.5300	15.3200
 0.5310	15.5240
 0.5320	15.7190
 0.5330	15.9030
 0.5340	16.0750
 0.5350	16.2370
 0.5360	16.3880
 0.5370	16.5290
 0.5380	16.6610
 0.5390	16.7820
 0.5400	16.8920
 0.5410	16.9960
 0.5420	17.0970
 0.5430	17.1950
 0.5440	17.2980
 0.5450	17.4020
 0.5460	17.5010
 0.5470	17.5960
 0.5480	17.6870
 0.5490	17.7670
 0.5500	17.8320
 0.5510	17.8840
 0.5520	17.9240
 0.5530	17.9500
 0.5540	17.9590
 0.5550	17.9510
 0.5560	17.9270
 0.5570	17.8840
 0.5580	17.8220
 0.5590	17.7480
 0.5600	17.6670
 0.5610	17.5790
 0.5620	17.4910
 0.5630	17.4010
 0.5640	17.3030
 0.5650	17.1870
 0.5660	17.0540
 0.5670	16.9090
 0.5680	16.7600
 0.5690	16.6030
 0.5700	16.4400
 0.5710	16.2780
 0.5720	16.1290
 0.5730	15.9910
 0.5740	15.8710
 0.5750	15.7720
 0.5760	15.6810
 0.5770	15.5860
 0.5780	15.4820
 0.5790	15.3740
 0.5800	15.2750
 0.5810	15.1890
 0.5820	15.1120
 0.5830	15.0450
 0.5840	14.9700
 0.5850	14.8820
 0.5860	14.7950
 0.5870	14.7170
 0.5880	14.6550
 0.5890	14.6160
 0.5900	14.6140
 0.5910	14.6190
 0.5920	14.6190
 0.5930	14.6140
 0.5940	14.5990
 0.5950	14.5790
 0.5960	14.5510
 0.5970	14.5050
 0.5980	14.4530
 0.5990	14.3980
 0.6000	14.3390
 0.6010	14.2890
 0.6020	14.2400
 0.6030	14.1860
 0.6040	14.1300
 0.6050	14.0670
 0.6060	13.9980
 0.6070	13.9260
 0.6080	13.8450
 0.6090	13.7590
 0.6100	13.6650
 0.6110	13.5590
 0.6120	13.4730
 0.6130	13.3990
 0.6140	13.3280
 0.6150	13.2540
 0.6160	13.1880
 0.6170	13.1260
 0.6180	13.0640
 0.6190	13.0120
 0.6200	12.9650
 0.6210	12.9230
 0.6220	12.8890
 0.6230	12.8620
 0.6240	12.8400
 0.6250	12.8220
 0.6260	12.8100
 0.6270	12.8060
 0.6280	12.8060
 0.6290	12.8060
 0.6300	12.8110
 0.6310	12.8170
 0.6320	12.8200
 0.6330	12.8180
 0.6340	12.8170
 0.6350	12.8100
 0.6360	12.7890
 0.6370	12.7640
 0.6380	12.7270
 0.6390	12.6780
 0.6400	12.6230
 0.6410	12.5540
 0.6420	12.4810
 0.6430	12.4100
 0.6440	12.3350
 0.6450	12.2540
 0.6460	12.1700
 0.6470	12.0840
 0.6480	12.0070
 0.6490	11.9340
 0.6500	11.8670
 0.6510	11.8040
 0.6520	11.7450
 0.6530	11.6850
 0.6540	11.6220
 0.6550	11.5560
 0.6560	11.4900
 0.6570	11.4210
 0.6580	11.3460
 0.6590	11.2710
 0.6600	11.1950
 0.6610	11.1200
 0.6620	11.0540
 0.6630	10.9920
 0.6640	10.9330
 0.6650	10.8810
 0.6660	10.8460
 0.6670	10.8120
 0.6680	10.7820
 0.6690	10.7700
 0.6700	10.7590
 0.6710	10.7510
 0.6720	10.7480
 0.6730	10.7550
 0.6740	10.7650
 0.6750	10.7810
 0.6760	10.8000
 0.6770	10.8200
 0.6780	10.8490
 0.6790	10.8880
 0.6800	10.9320
 0.6810	10.9780
 0.6820	11.0350
 0.6830	11.1110
 0.6840	11.1980
 0.6850	11.3080
 0.6860	11.4440
 0.6870	11.6100
 0.6880	11.8100
 0.6890	12.0640
 0.6900	12.3770
 0.6910	12.7430
 0.6920	13.1800
 0.6930	13.6940
 0.6940	14.2890
 0.6950	14.9700
 0.6960	15.7360
 0.6970	16.5820
 0.6980	17.5010
 0.6990	18.4870
 0.7000	19.5350
 0.7010	20.6350
 0.7020	21.7660
 0.7030	22.9240
 0.7040	24.0990
 0.7050	25.2810
 0.7060	26.4590
 0.7070	27.6290
 0.7080	28.7880
 0.7090	29.9390
 0.7100	31.0620
 0.7110	32.1740
 0.7120	33.2750
 0.7130	34.3450
 0.7140	35.3840
 0.7150	36.3910
 0.7160	37.3710
 0.7170	38.3360
 0.7180	39.2670
 0.7190	40.1700
 0.7200	41.0500
 0.7210	41.8920
 0.7220	42.7080
 0.7230	43.4980
 0.7240	44.2440
 0.7250	44.9690
 0.7260	45.6620
 0.7270	46.3130
 0.7280	46.9410
 0.7290	47.5370
 0.7300	48.1050
 0.7310	48.6510
 0.7320	49.1550
 0.7330	49.6270
 0.7340	50.0780
 0.7350	50.5170
 0.7360	50.9280
 0.7370	51.3090
 0.7380	51.6650
 0.7390	52.0040
 0.7400	52.3220
 0.7410	52.6250
 0.7420	52.9130
 0.7430	53.1620
 0.7440	53.4010
 0.7450	53.6350
 0.7460	53.8490
 0.7470	54.0560
 0.7480	54.2440
 0.7490	54.4100
 0.7500	54.5670
 0.7510	54.7070
 0.7520	54.8340
 0.7530	54.9560
 0.7540	55.0750
 0.7550	55.1710
 0.7560	55.2550
 0.7570	55.3550
 0.7580	55.4360
 0.7590	55.5080
 0.7600	55.5770
 0.7610	55.6370
 0.7620	55.7060
 0.7630	55.7660
 0.7640	55.8010
 0.7650	55.8460
 0.7660	55.8900
 0.7670	55.9270
 0.7680	55.9620
 0.7690	55.9830
 0.7700	56.0060
 0.7710	56.0400
 0.7720	56.0720
 0.7730	56.1010
 0.7740	56.1240
 0.7750	56.1420
 0.7760	56.1670
 0.7770	56.1940
 0.7780	56.2150
 0.7790	56.2270
 0.7800	56.2470
 0.7810	56.2720
 0.7820	56.2960
 0.7830	56.3100
 0.7840	56.3320
 0.7850	56.3480
 0.7860	56.3560
 0.7870	56.3750
 0.7880	56.3990
 0.7890	56.4220
 0.7900	56.4410
 0.7910	56.4640
 0.7920	56.4750
 0.7930	56.4800
 0.7940	56.4960
 0.7950	56.5220
 0.7960	56.5500
 0.7970	56.5710
 0.7980	56.5810
 0.7990	56.5910
 0.8000	56.6040
 0.8010	56.6220
 0.8020	56.6380
 0.8030	56.6610
 0.8040	56.6830
 0.8050	56.6970
 0.8060	56.7240
 0.8070	56.7370
 0.8080	56.7440
 0.8090	56.7790
 0.8100	56.7940
 0.8110	56.8120
 0.8120	56.8400
 0.8130	56.8460
 0.8140	56.8510
 0.8150	56.8710
 0.8160	56.9080
 0.8170	56.9350
 0.8180	56.9490
 0.8190	56.9590
 0.8200	56.9790
 0.8210	57.0120
 0.8220	57.0380
 0.8230	57.0520
 0.8240	57.0650
 0.8250	57.0890
 0.8260	57.1090
 0.8270	57.1170
 0.8280	57.1360
 0.8290	57.1660
 0.8300	57.1900
 0.8310	57.1970
 0.8320	57.2110
 0.8330	57.2380
 0.8340	57.2690
 0.8350	57.2900
 0.8360	57.3120
 0.8370	57.3270
 0.8380	57.3370
 0.8390	57.3550
 0.8400	57.3710
 0.8410	57.3920
 0.8420	57.4200
 0.8430	57.4470
 0.8440	57.4740
 0.8450	57.4980
 0.8460	57.5160
 0.8470	57.5270
 0.8480	57.5620
 0.8490	57.5990
 0.8500	57.6090
 0.8510	57.6210
 0.8520	57.6380
 0.8530	57.6610
 0.8540	57.6860
 0.8550	57.6910
 0.8560	57.7040
 0.8570	57.7280
 0.8580	57.7430
 0.8590	57.7680
 0.8600	57.7960
 0.8610	57.8150
 0.8620	57.8140
 0.8630	57.8210
 0.8640	57.8400
 0.8650	57.8640
 0.8660	57.8840
 0.8670	57.8920
 0.8680	57.9010
 0.8690	57.9180
 0.8700	57.9140
 0.8710	57.9340
 0.8720	57.9710
 0.8730	57.9890
 0.8740	57.9820
 0.8750	57.9770
 0.8760	57.9910
 0.8770	58.0250
 0.8780	58.0370
 0.8790	58.0290
 0.8800	58.0160
 0.8810	58.0330
 0.8820	58.0470
 0.8830	58.0520
 0.8840	58.0500
 0.8850	58.0630
 0.8860	58.0840
 0.8870	58.1000
 0.8880	58.1060
 0.8890	58.1140
 0.8900	58.1100
 0.8910	58.1010
 0.8920	58.0990
 0.8930	58.1020
 0.8940	58.1110
 0.8950	58.1230
 0.8960	58.1290
 0.8970	58.1230
 0.8980	58.1230
 0.8990	58.1330
 0.9000	58.1420
 0.9010	58.1390
 0.9020	58.1340
 0.9030	58.1370
 0.9040	58.1470
 0.9050	58.1460
 0.9060	58.1330
 0.9070	58.1150
 0.9080	58.1050
 0.9090	58.1060
 0.9100	58.1220
 0.9110	58.1460
 0.9120	58.1390
 0.9130	58.1500
 0.9140	58.1530
 0.9150	58.1210
 0.9160	58.1150
 0.9170	58.1170
 0.9180	58.1300
 0.9190	58.1590
 0.9200	58.1480
 0.9210	58.1380
 0.9220	58.1310
 0.9230	58.1100
 0.9240	58.1100
 0.9250	58.1060
 0.9260	58.0940
 0.9270	58.0840
 0.9280	58.0620
 0.9290	58.0490
 0.9300	58.0430
 0.9310	58.0220
 0.9320	58.0020
 0.9330	57.9870
 0.9340	57.9780
 0.9350	57.9710
 0.9360	57.9450
 0.9370	57.9230
 0.9380	57.9130
 0.9390	57.8930
 0.9400	57.8670
 0.9410	57.8430
 0.9420	57.8230
 0.9430	57.7910
 0.9440	57.7790
 0.9450	57.7530
 0.9460	57.7020
 0.9470	57.6800
 0.9480	57.6300
 0.9490	57.5710
 0.9500	57.5280
 0.9510	57.4870
 0.9520	57.4440
 0.9530	57.3970
 0.9540	57.3450
 0.9550	57.2920
 0.9560	57.2150
 0.9570	57.1540
 0.9580	57.1380
 0.9590	57.0770
 0.9600	57.0160
 0.9610	56.9640
 0.9620	56.9180
 0.9630	56.8970
 0.9640	56.8870
 0.9650	56.8700
 0.9660	56.8400
 0.9670	56.8320
 0.9680	56.8260
 0.9690	56.8150
 0.9700	56.8010
 0.9710	56.7950
 0.9720	56.7900
 0.9730	56.7820
 0.9740	56.7680
 0.9750	56.7550
 0.9760	56.7550
 0.9770	56.7660
 0.9780	56.7740
 0.9790	56.7540
 0.9800	56.7670
 0.9810	56.8080
 0.9820	56.8360
 0.9830	56.8350
 0.9840	56.8500
 0.9850	56.8830
 0.9860	56.9120
 0.9870	56.9290
 0.9880	56.9510
 0.9890	56.9720
 0.9900	56.9810
 0.9910	56.9860
 0.9920	57.0410
 0.9930	57.1040
 0.9940	57.1100
 0.9950	57.1040
 0.9960	57.1270
 0.9970	57.1680
 0.9980	57.1950
 0.9990	57.2150
 1.0000	57.1950
 1.0010	57.0770
 1.0020	57.0500
 1.0030	57.0830
 1.0040	57.1130
 1.0050	57.1440
 1.0060	57.1730
 1.0070	57.1990
 1.0080	57.2250
 1.0090	57.2470
 1.0100	57.2770
 1.0110	57.3100
 1.0120	57.3410
 1.0130	57.3800
 1.0140	57.4110
 1.0150	57.4330
 1.0160	57.4610
 1.0170	57.4930
 1.0180	57.5160
 1.0190	57.5430
 1.0200	57.5740
 1.0210	57.5990
 1.0220	57.6230
 1.0230	57.6480
 1.0240	57.6720
 1.0250	57.6940
 1.0260	57.7170
 1.0270	57.7390
 1.0280	57.7590
 1.0290	57.7810
 1.0300	57.8050
 1.0310	57.8260
 1.0320	57.8460
 1.0330	57.8650
 1.0340	57.8880
 1.0350	57.9080
 1.0360	57.9300
 1.0370	57.9550
 1.0380	57.9720
 1.0390	57.9810
 1.0400	57.9940
 1.0410	58.0050
 1.0420	58.0160
 1.0430	58.0270
 1.0440	58.0400
 1.0450	58.0540
 1.0460	58.0680
 1.0470	58.0870
 1.0480	58.1020
 1.0490	58.1130
 1.0500	58.1260
 1.0510	58.1360
 1.0520	58.1470
 1.0530	58.1580
 1.0540	58.1690
 1.0550	58.1790
 1.0560	58.1860
 1.0570	58.1990
 1.0580	58.2160
 1.0590	58.2270
 1.0600	58.2400
 1.0610	58.2500
 1.0620	58.2550
 1.0630	58.2630
 1.0640	58.2730
 1.0650	58.2810
 1.0660	58.2880
 1.0670	58.2940
 1.0680	58.2980
 1.0690	58.3000
 1.0700	58.3050
 1.0710	58.3100
 1.0720	58.3150
 1.0730	58.3220
 1.0740	58.3270
 1.0750	58.3300
 1.0760	58.3360
 1.0770	58.3450
 1.0780	58.3480
 1.0790	58.3490
 1.0800	58.3490
 1.0810	58.3450
 1.0820	58.3420
 1.0830	58.3410
 1.0840	58.3370
 1.0850	58.3290
 1.0860	58.3200
 1.0870	58.3170
 1.0880	58.3150
 1.0890	58.3110
 1.0900	58.3080
 1.0910	58.3050
 1.0920	58.3000
 1.0930	58.2940
 1.0940	58.2910
 1.0950	58.2820
 1.0960	58.2680
 1.0970	58.2560
 1.0980	58.2420
 1.0990	58.2290
 1.1000	58.2180
 1.1010	58.2040
 1.1020	58.1890
 1.1030	58.1760
 1.1040	58.1570
 1.1050	58.1380
 1.1060	58.1210
 1.1070	58.1040
 1.1080	58.0840
 1.1090	58.0610
 1.1100	58.0420
 1.1110	58.0240
 1.1120	58.0030
 1.1130	57.9860
 1.1140	57.9660
 1.1150	57.9410
 1.1160	57.9160
 1.1170	57.8970
 1.1180	57.8690
 1.1190	57.8350
 1.1200	57.8000
 1.1210	57.7640
 1.1220	57.7240
 1.1230	57.6810
 1.1240	57.6330
 1.1250	57.5810
 1.1260	57.5230
 1.1270	57.4580
 1.1280	57.3900
 1.1290	57.3190
 1.1300	57.2410
 1.1310	57.1570
 1.1320	57.0710
 1.1330	56.9740
 1.1340	56.8690
 1.1350	56.7580
 1.1360	56.6410
 1.1370	56.5150
 1.1380	56.3820
 1.1390	56.2470
 1.1400	56.1050
 1.1410	55.9600
 1.1420	55.8140
 1.1430	55.6620
 1.1440	55.5110
 1.1450	55.3570
 1.1460	55.2070
 1.1470	55.0510
 1.1480	54.9070
 1.1490	54.7680
 1.1500	54.6360
 1.1510	54.5100
 1.1520	54.3930
 1.1530	54.2800
 1.1540	54.1800
 1.1550	54.0900
 1.1560	54.0090
 1.1570	53.9380
 1.1580	53.8710
 1.1590	53.8120
 1.1600	53.7610
 1.1610	53.7150
 1.1620	53.6770
 1.1630	53.6450
 1.1640	53.6170
 1.1650	53.5960
 1.1660	53.5850
 1.1670	53.5710
 1.1680	53.5600
 1.1690	53.5490
 1.1700	53.5370
 1.1710	53.5280
 1.1720	53.5220
 1.1730	53.5170
 1.1740	53.5140
 1.1750	53.5090
 1.1760	53.5040
 1.1770	53.4990
 1.1780	53.4890
 1.1790	53.4800
 1.1800	53.4710
 1.1810	53.4580
 1.1820	53.4460
 1.1830	53.4360
 1.1840	53.4240
 1.1850	53.4160
 1.1860	53.4070
 1.1870	53.3970
 1.1880	53.3890
 1.1890	53.3840
 1.1900	53.3770
 1.1910	53.3710
 1.1920	53.3670
 1.1930	53.3620
 1.1940	53.3610
 1.1950	53.3620
 1.1960	53.3660
 1.1970	53.3710
 1.1980	53.3770
 1.1990	53.3850
 1.2000	53.3970
 1.2010	53.4120
 1.2020	53.4300
 1.2030	53.4500
 1.2040	53.4690
 1.2050	53.4850
 1.2060	53.5040
 1.2070	53.5250
 1.2080	53.5490
 1.2090	53.5770
 1.2100	53.6050
 1.2110	53.6340
 1.2120	53.6650
 1.2130	53.6950
 1.2140	53.7230
 1.2150	53.7530
 1.2160	53.7830
 1.2170	53.8130
 1.2180	53.8450
 1.2190	53.8780
 1.2200	53.9110
 1.2210	53.9460
 1.2220	53.9780
 1.2230	54.0080
 1.2240	54.0430
 1.2250	54.0750
 1.2260	54.1070
 1.2270	54.1430
 1.2280	54.1760
 1.2290	54.2090
 1.2300	54.2420
 1.2310	54.2720
 1.2320	54.3050
 1.2330	54.3340
 1.2340	54.3630
 1.2350	54.3910
 1.2360	54.4210
 1.2370	54.4500
 1.2380	54.4770
 1.2390	54.5070
 1.2400	54.5320
 1.2410	54.5530
 1.2420	54.5750
 1.2430	54.5940
 1.2440	54.6110
 1.2450	54.6280
 1.2460	54.6480
 1.2470	54.6690
 1.2480	54.6910
 1.2490	54.7130
 1.2500	54.7310
 1.2510	54.7440
 1.2520	54.7570
 1.2530	54.7710
 1.2540	54.7860
 1.2550	54.8000
 1.2560	54.8130
 1.2570	54.8240
 1.2580	54.8330
 1.2590	54.8440
 1.2600	54.8560
 1.2610	54.8640
 1.2620	54.8710
 1.2630	54.8740
 1.2640	54.8740
 1.2650	54.8760
 1.2660	54.8780
 1.2670	54.8810
 1.2680	54.8820
 1.2690	54.8830
 1.2700	54.8810
 1.2710	54.8750
 1.2720	54.8710
 1.2730	54.8590
 1.2740	54.8450
 1.2750	54.8360
 1.2760	54.8230
 1.2770	54.8120
 1.2780	54.8000
 1.2790	54.7850
 1.2800	54.7670
 1.2810	54.7470
 1.2820	54.7270
 1.2830	54.7090
 1.2840	54.6930
 1.2850	54.6760
 1.2860	54.6590
 1.2870	54.6400
 1.2880	54.6190
 1.2890	54.5960
 1.2900	54.5740
 1.2910	54.5480
 1.2920	54.5210
 1.2930	54.4940
 1.2940	54.4630
 1.2950	54.4340
 1.2960	54.4030
 1.2970	54.3690
 1.2980	54.3360
 1.2990	54.2990
 1.3000	54.2590
 1.3010	54.2160
 1.3020	54.1690
 1.3030	54.1170
 1.3040	54.0610
 1.3050	54.0030
 1.3060	53.9400
 1.3070	53.8710
 1.3080	53.7990
 1.3090	53.7250
 1.3100	53.6460
 1.3110	53.5660
 1.3120	53.4840
 1.3130	53.3980
 1.3140	53.3050
 1.3150	53.2090
 1.3160	53.1090
 1.3170	53.0040
 1.3180	52.8960
 1.3190	52.7860
 1.3200	52.6720
 1.3210	52.5490
 1.3220	52.4240
 1.3230	52.2940
 1.3240	52.1580
 1.3250	52.0210
 1.3260	51.8800
 1.3270	51.7350
 1.3280	51.5880
 1.3290	51.4370
 1.3300	51.2830
 1.3310	51.1280
 1.3320	50.9690
 1.3330	50.8100
 1.3340	50.6480
 1.3350	50.4800
 1.3360	50.3090
 1.3370	50.1370
 1.3380	49.9630
 1.3390	49.7890
 1.3400	49.6160
 1.3410	49.4470
 1.3420	49.2790
 1.3430	49.1120
 1.3440	48.9490
 1.3450	48.7840
 1.3460	48.6170
 1.3470	48.4520
 1.3480	48.2860
 1.3490	48.1260
 1.3500	47.9680
 1.3510	47.8150
 1.3520	47.6620
 1.3530	47.5110
 1.3540	47.3580
 1.3550	47.2040
 1.3560	47.0470
 1.3570	46.8910
 1.3580	46.7340
 1.3590	46.5710
 1.3600	46.4070
 1.3610	46.2410
 1.3620	46.0640
 1.3630	45.8850
 1.3640	45.7000
 1.3650	45.5050
 1.3660	45.3040
 1.3670	45.0940
 1.3680	44.8720
 1.3690	44.6390
 1.3700	44.3890
 1.3710	44.1280
 1.3720	43.8520
 1.3730	43.5570
 1.3740	43.2470
 1.3750	42.9170
 1.3760	42.5620
 1.3770	42.1840
 1.3780	41.7760
 1.3790	41.3420
 1.3800	40.8830
 1.3810	40.3940
 1.3820	39.8860
 1.3830	39.3550
 1.3840	38.8010
 1.3850	38.2240
 1.3860	37.6300
 1.3870	37.0090
 1.3880	36.3810
 1.3890	35.7390
 1.3900	35.0800
 1.3910	34.4220
 1.3920	33.7580
 1.3930	33.0870
 1.3940	32.4200
 1.3950	31.7500
 1.3960	31.0860
 1.3970	30.4320
 1.3980	29.7900
 1.3990	29.1700
 1.4000	28.5670
 1.4010	27.9790
 1.4020	27.4170
 1.4030	26.8730
 1.4040	26.3540
 1.4050	25.8630
 1.4060	25.3950
 1.4070	24.9580
 1.4080	24.5450
 1.4090	24.1570
 1.4100	23.7970
 1.4110	23.4580
 1.4120	23.1440
 1.4130	22.8540
 1.4140	22.5850
 1.4150	22.3410
 1.4160	22.1190
 1.4170	21.9140
 1.4180	21.7280
 1.4190	21.5570
 1.4200	21.4020
 1.4210	21.2630
 1.4220	21.1380
 1.4230	21.0280
 1.4240	20.9300
 1.4250	20.8420
 1.4260	20.7660
 1.4270	20.6980
 1.4280	20.6430
 1.4290	20.5940
 1.4300	20.5530
 1.4310	20.5190
 1.4320	20.4920
 1.4330	20.4710
 1.4340	20.4570
 1.4350	20.4470
 1.4360	20.4430
 1.4370	20.4430
 1.4380	20.4470
 1.4390	20.4530
 1.4400	20.4630
 1.4410	20.4770
 1.4420	20.4930
 1.4430	20.5130
 1.4440	20.5330
 1.4450	20.5530
 1.4460	20.5780
 1.4470	20.6040
 1.4480	20.6310
 1.4490	20.6610
 1.4500	20.6910
 1.4510	20.7210
 1.4520	20.7530
 1.4530	20.7850
 1.4540	20.8190
 1.4550	20.8550
 1.4560	20.8930
 1.4570	20.9330
 1.4580	20.9770
 1.4590	21.0230
 1.4600	21.0740
 1.4610	21.1300
 1.4620	21.1890
 1.4630	21.2530
 1.4640	21.3220
 1.4650	21.3970
 1.4660	21.4770
 1.4670	21.5630
 1.4680	21.6550
 1.4690	21.7520
 1.4700	21.8530
 1.4710	21.9610
 1.4720	22.0720
 1.4730	22.1880
 1.4740	22.3090
 1.4750	22.4330
 1.4760	22.5620
 1.4770	22.6950
 1.4780	22.8300
 1.4790	22.9670
 1.4800	23.1030
 1.4810	23.2400
 1.4820	23.3790
 1.4830	23.5190
 1.4840	23.6610
 1.4850	23.8020
 1.4860	23.9440
 1.4870	24.0880
 1.4880	24.2300
 1.4890	24.3740
 1.4900	24.5190
 1.4910	24.6640
 1.4920	24.8110
 1.4930	24.9600
 1.4940	25.1070
 1.4950	25.2550
 1.4960	25.4020
 1.4970	25.5470
 1.4980	25.6940
 1.4990	25.8410
 1.5000	25.9870
 1.5010	26.1350
 1.5020	26.2810
 1.5030	26.4280
 1.5040	26.5730
 1.5050	26.7160
 1.5060	26.8590
 1.5070	26.9990
 1.5080	27.1410
 1.5090	27.2830
 1.5100	27.4230
 1.5110	27.5620
 1.5120	27.7010
 1.5130	27.8350
 1.5140	27.9690
 1.5150	28.1020
 1.5160	28.2330
 1.5170	28.3660
 1.5180	28.4980
 1.5190	28.6300
 1.5200	28.7620
 1.5210	28.8900
 1.5220	29.0190
 1.5230	29.1480
 1.5240	29.2750
 1.5250	29.4030
 1.5260	29.5300
 1.5270	29.6560
 1.5280	29.7800
 1.5290	29.9010
 1.5300	30.0200
 1.5310	30.1350
 1.5320	30.2480
 1.5330	30.3620
 1.5340	30.4750
 1.5350	30.5890
 1.5360	30.7000
 1.5370	30.8090
 1.5380	30.9180
 1.5390	31.0260
 1.5400	31.1320
 1.5410	31.2380
 1.5420	31.3430
 1.5430	31.4460
 1.5440	31.5520
 1.5450	31.6540
 1.5460	31.7550
 1.5470	31.8570
 1.5480	31.9570
 1.5490	32.0560
 1.5500	32.1550
 1.5510	32.2520
 1.5520	32.3490
 1.5530	32.4440
 1.5540	32.5370
 1.5550	32.6290
 1.5560	32.7170
 1.5570	32.8060
 1.5580	32.8920
 1.5590	32.9790
 1.5600	33.0660
 1.5610	33.1510
 1.5620	33.2360
 1.5630	33.3210
 1.5640	33.4030
 1.5650	33.4870
 1.5660	33.5690
 1.5670	33.6500
 1.5680	33.7320
 1.5690	33.8140
 1.5700	33.8960
 1.5710	33.9780
 1.5720	34.0560
 1.5730	34.1360
 1.5740	34.2140
 1.5750	34.2910
 1.5760	34.3710
 1.5770	34.4480
 1.5780	34.5220
 1.5790	34.5980
 1.5800	34.6730
 1.5810	34.7480
 1.5820	34.8260
 1.5830	34.9030
 1.5840	34.9800
 1.5850	35.0550
 1.5860	35.1280
 1.5870	35.2000
 1.5880	35.2710
 1.5890	35.3410
 1.5900	35.4110
 1.5910	35.4820
 1.5920	35.5540
 1.5930	35.6240
 1.5940	35.6960
 1.5950	35.7680
 1.5960	35.8380
 1.5970	35.9080
 1.5980	35.9770
 1.5990	36.0460
 1.6000	36.1130
 1.6010	36.1790
 1.6020	36.2440
 1.6030	36.3060
 1.6040	36.3670
 1.6050	36.4270
 1.6060	36.4870
 1.6070	36.5470
 1.6080	36.6090
 1.6090	36.6700
 1.6100	36.7300
 1.6110	36.7900
 1.6120	36.8460
 1.6130	36.9030
 1.6140	36.9600
 1.6150	37.0140
 1.6160	37.0670
 1.6170	37.1210
 1.6180	37.1720
 1.6190	37.2240
 1.6200	37.2750
 1.6210	37.3230
 1.6220	37.3730
 1.6230	37.4200
 1.6240	37.4630
 1.6250	37.5050
 1.6260	37.5470
 1.6270	37.5920
 1.6280	37.6380
 1.6290	37.6810
 1.6300	37.7200
 1.6310	37.7590
 1.6320	37.7960
 1.6330	37.8320
 1.6340	37.8690
 1.6350	37.9020
 1.6360	37.9330
 1.6370	37.9640
 1.6380	37.9930
 1.6390	38.0210
 1.6400	38.0500
 1.6410	38.0720
 1.6420	38.0880
 1.6430	38.1060
 1.6440	38.1210
 1.6450	38.1330
 1.6460	38.1440
 1.6470	38.1530
 1.6480	38.1560
 1.6490	38.1560
 1.6500	38.1560
 1.6510	38.1510
 1.6520	38.1430
 1.6530	38.1360
 1.6540	38.1280
 1.6550	38.1160
 1.6560	38.1040
 1.6570	38.0900
 1.6580	38.0730
 1.6590	38.0560
 1.6600	38.0410
 1.6610	38.0250
 1.6620	38.0070
 1.6630	37.9890
 1.6640	37.9720
 1.6650	37.9580
 1.6660	37.9460
 1.6670	37.9320
 1.6680	37.9180
 1.6690	37.9000
 1.6700	37.8820
 1.6710	37.8680
 1.6720	37.8530
 1.6730	37.8340
 1.6740	37.8150
 1.6750	37.7900
 1.6760	37.7640
 1.6770	37.7390
 1.6780	37.7100
 1.6790	37.6770
 1.6800	37.6420
 1.6810	37.6010
 1.6820	37.5540
 1.6830	37.5040
 1.6840	37.4530
 1.6850	37.3980
 1.6860	37.3440
 1.6870	37.2910
 1.6880	37.2350
 1.6890	37.1790
 1.6900	37.1210
 1.6910	37.0610
 1.6920	37.0020
 1.6930	36.9440
 1.6940	36.8870
 1.6950	36.8310
 1.6960	36.7750
 1.6970	36.7210
 1.6980	36.6660
 1.6990	36.6120
 1.7000	36.5550
 1.7010	36.4980
 1.7020	36.4410
 1.7030	36.3820
 1.7040	36.3230
 1.7050	36.2650
 1.7060	36.2040
 1.7070	36.1390
 1.7080	36.0760
 1.7090	36.0110
 1.7100	35.9470
 1.7110	35.8850
 1.7120	35.8210
 1.7130	35.7570
 1.7140	35.6950
 1.7150	35.6380
 1.7160	35.5810
 1.7170	35.5260
 1.7180	35.4720
 1.7190	35.4160
 1.7200	35.3670
 1.7210	35.3220
 1.7220	35.2770
 1.7230	35.2360
 1.7240	35.1910
 1.7250	35.1450
 1.7260	35.1000
 1.7270	35.0540
 1.7280	35.0120
 1.7290	34.9700
 1.7300	34.9290
 1.7310	34.8890
 1.7320	34.8490
 1.7330	34.8090
 1.7340	34.7730
 1.7350	34.7350
 1.7360	34.6980
 1.7370	34.6580
 1.7380	34.6170
 1.7390	34.5740
 1.7400	34.5300
 1.7410	34.4790
 1.7420	34.4240
 1.7430	34.3680
 1.7440	34.3050
 1.7450	34.2430
 1.7460	34.1800
 1.7470	34.1190
 1.7480	34.0570
 1.7490	33.9920
 1.7500	33.9260
 1.7510	33.8620
 1.7520	33.7940
 1.7530	33.7290
 1.7540	33.6680
 1.7550	33.6030
 1.7560	33.5370
 1.7570	33.4690
 1.7580	33.4030
 1.7590	33.3400
 1.7600	33.2780
 1.7610	33.2220
 1.7620	33.1680
 1.7630	33.1160
 1.7640	33.0650
 1.7650	33.0140
 1.7660	32.9650
 1.7670	32.9180
 1.7680	32.8700
 1.7690	32.8220
 1.7700	32.7770
 1.7710	32.7310
 1.7720	32.6890
 1.7730	32.6520
 1.7740	32.6160
 1.7750	32.5820
 1.7760	32.5480
 1.7770	32.5130
 1.7780	32.4800
 1.7790	32.4470
 1.7800	32.4170
 1.7810	32.3890
 1.7820	32.3640
 1.7830	32.3420
 1.7840	32.3190
 1.7850	32.2990
 1.7860	32.2790
 1.7870	32.2600
 1.7880	32.2460
 1.7890	32.2350
 1.7900	32.2240
 1.7910	32.2160
 1.7920	32.2090
 1.7930	32.2030
 1.7940	32.1990
 1.7950	32.1980
 1.7960	32.2030
 1.7970	32.2060
 1.7980	32.2140
 1.7990	32.2180
 1.8000	32.2170
 1.8010	32.2190
 1.8020	32.2210
 1.8030	32.2250
 1.8040	32.2330
 1.8050	32.2390
 1.8060	32.2470
 1.8070	32.2530
 1.8080	32.2570
 1.8090	32.2630
 1.8100	32.2670
 1.8110	32.2750
 1.8120	32.2800
 1.8130	32.2840
 1.8140	32.2900
 1.8150	32.2930
 1.8160	32.2940
 1.8170	32.2940
 1.8180	32.2930
 1.8190	32.2900
 1.8200	32.2890
 1.8210	32.2930
 1.8220	32.2910
 1.8230	32.2870
 1.8240	32.2850
 1.8250	32.2830
 1.8260	32.2780
 1.8270	32.2740
 1.8280	32.2670
 1.8290	32.2540
 1.8300	32.3280
 1.8310	32.5050
 1.8320	32.5690
 1.8330	32.5400
 1.8340	32.5060
 1.8350	32.4700
 1.8360	32.4290
 1.8370	32.3840
 1.8380	32.3380
 1.8390	32.2800
 1.8400	32.2160
 1.8410	32.1450
 1.8420	32.0700
 1.8430	31.9820
 1.8440	31.8830
 1.8450	31.7810
 1.8460	31.6700
 1.8470	31.5520
 1.8480	31.4250
 1.8490	31.2870
 1.8500	31.1360
 1.8510	30.9760
 1.8520	30.7980
 1.8530	30.6060
 1.8540	30.4100
 1.8550	30.1990
 1.8560	29.9730
 1.8570	29.7370
 1.8580	29.4820
 1.8590	29.2070
 1.8600	28.9130
 1.8610	28.6010
 1.8620	28.2680
 1.8630	27.9220
 1.8640	27.5590
 1.8650	27.1770
 1.8660	26.7810
 1.8670	26.3600
 1.8680	25.9180
 1.8690	25.4590
 1.8700	24.9810
 1.8710	24.4820
 1.8720	23.9720
 1.8730	23.4470
 1.8740	22.9060
 1.8750	22.3570
 1.8760	21.7990
 1.8770	21.2380
 1.8780	20.6800
 1.8790	20.1200
 1.8800	19.5650
 1.8810	19.0130
 1.8820	18.4610
 1.8830	17.9130
 1.8840	17.3760
 1.8850	16.8470
 1.8860	16.3360
 1.8870	15.8420
 1.8880	15.3600
 1.8890	14.9000
 1.8900	14.4610
 1.8910	14.0440
 1.8920	13.6440
 1.8930	13.2730
 1.8940	12.9260
 1.8950	12.6030
 1.8960	12.3070
 1.8970	12.0340
 1.8980	11.7840
 1.8990	11.5570
 1.9000	11.3470
 1.9010	11.1600
 1.9020	10.9860
 1.9030	10.8300
 1.9040	10.6890
 1.9050	10.5650
 1.9060	10.4550
 1.9070	10.3630
 1.9080	10.2820
 1.9090	10.2080
 1.9100	10.1470
 1.9110	10.0910
 1.9120	10.0420
 1.9130	 9.9990
 1.9140	 9.9630
 1.9150	 9.9330
 1.9160	 9.9080
 1.9170	 9.8870
 1.9180	 9.8720
 1.9190	 9.8610
 1.9200	 9.8510
 1.9210	 9.8450
 1.9220	 9.8430
 1.9230	 9.8450
 1.9240	 9.8470
 1.9250	 9.8500
 1.9260	 9.8600
 1.9270	 9.8680
 1.9280	 9.8750
 1.9290	 9.8870
 1.9300	 9.8960
 1.9310	 9.9070
 1.9320	 9.9250
 1.9330	 9.9440
 1.9340	 9.9670
 1.9350	 9.9890
 1.9360	10.0150
 1.9370	10.0400
 1.9380	10.0660
 1.9390	10.0930
 1.9400	10.1190
 1.9410	10.1490
 1.9420	10.1810
 1.9430	10.2140
 1.9440	10.2490
 1.9450	10.2850
 1.9460	10.3230
 1.9470	10.3640
 1.9480	10.4030
 1.9490	10.4430
 1.9500	10.4840
 1.9510	10.5230
 1.9520	10.5650
 1.9530	10.6090
 1.9540	10.6520
 1.9550	10.6980
 1.9560	10.7450
 1.9570	10.7950
 1.9580	10.8490
 1.9590	10.9000
 1.9600	10.9510
 1.9610	11.0030
 1.9620	11.0570
 1.9630	11.1090
 1.9640	11.1650
 1.9650	11.2220
 1.9660	11.2760
 1.9670	11.3350
 1.9680	11.3940
 1.9690	11.4550
 1.9700	11.5170
 1.9710	11.5790
 1.9720	11.6410
 1.9730	11.7030
 1.9740	11.7650
 1.9750	11.8280
 1.9760	11.8960
 1.9770	11.9620
 1.9780	12.0310
 1.9790	12.1010
 1.9800	12.1730
 1.9810	12.2440
 1.9820	12.3170
 1.9830	12.3900
 1.9840	12.4630
 1.9850	12.5360
 1.9860	12.6090
 1.9870	12.6840
 1.9880	12.7560
 1.9890	12.8300
 1.9900	12.9060
 1.9910	12.9800
 1.9920	13.0550
 1.9930	13.1330
 1.9940	13.2090
 1.9950	13.2830
 1.9960	13.3590
 1.9970	13.4340
 1.9980	13.5090
 1.9990	13.5860
 2.0000	13.6630
 2.0010	13.7370
 2.0020	13.8120
 2.0030	13.8900
 2.0040	13.9670
 2.0050	14.0430
 2.0060	14.1180
 2.0070	14.1940
 2.0080	14.2700
 2.0090	14.3430
 2.0100	14.4190
 2.0110	14.4910
 2.0120	14.5590
 2.0130	14.6260
 2.0140	14.6920
 2.0150	14.7570
 2.0160	14.8260
 2.0170	14.8910
 2.0180	14.9570
 2.0190	15.0250
 2.0200	15.0880
 2.0210	15.1460
 2.0220	15.2070
 2.0230	15.2690
 2.0240	15.3270
 2.0250	15.3850
 2.0260	15.4420
 2.0270	15.4980
 2.0280	15.5510
 2.0290	15.6020
 2.0300	15.6540
 2.0310	15.7040
 2.0320	15.7490
 2.0330	15.7970
 2.0340	15.8490
 2.0350	15.8960
 2.0360	15.9420
 2.0370	15.9850
 2.0380	16.0280
 2.0390	16.0670
 2.0400	16.1010
 2.0410	16.1370
 2.0420	16.1710
 2.0430	16.2050
 2.0440	16.2430
 2.0450	16.2860
 2.0460	16.3220
 2.0470	16.3580
 2.0480	16.3930
 2.0490	16.4230
 2.0500	16.4560
 2.0510	16.4920
 2.0520	16.5250
 2.0530	16.5570
 2.0540	16.5880
 2.0550	16.6150
 2.0560	16.6430
 2.0570	16.6750
 2.0580	16.7070
 2.0590	16.7390
 2.0600	16.7730
 2.0610	16.8060
 2.0620	16.8380
 2.0630	16.8710
 2.0640	16.9040
 2.0650	16.9390
 2.0660	16.9740
 2.0670	17.0070
 2.0680	17.0400
 2.0690	17.0730
 2.0700	17.1030
 2.0710	17.1360
 2.0720	17.1720
 2.0730	17.2080
 2.0740	17.2440
 2.0750	17.2810
 2.0760	17.3160
 2.0770	17.3510
 2.0780	17.3870
 2.0790	17.4240
 2.0800	17.4590
 2.0810	17.4930
 2.0820	17.5270
 2.0830	17.5580
 2.0840	17.5890
 2.0850	17.6190
 2.0860	17.6500
 2.0870	17.6840
 2.0880	17.7130
 2.0890	17.7470
 2.0900	17.7830
 2.0910	17.8160
 2.0920	17.8490
 2.0930	17.8810
 2.0940	17.9080
 2.0950	17.9390
 2.0960	17.9690
 2.0970	18.0020
 2.0980	18.0390
 2.0990	18.0710
 2.1000	18.1020
 2.1010	18.1340
 2.1020	18.1600
 2.1030	18.1900
 2.1040	18.2220
 2.1050	18.2580
 2.1060	18.2890
 2.1070	18.3220
 2.1080	18.3510
 2.1090	18.3750
 2.1100	18.4030
 2.1110	18.4310
 2.1120	18.4590
 2.1130	18.4880
 2.1140	18.5170
 2.1150	18.5460
 2.1160	18.5750
 2.1170	18.6060
 2.1180	18.6340
 2.1190	18.6590
 2.1200	18.6870
 2.1210	18.7170
 2.1220	18.7450
 2.1230	18.7740
 2.1240	18.8070
 2.1250	18.8330
 2.1260	18.8580
 2.1270	18.8800
 2.1280	18.8980
 2.1290	18.9180
 2.1300	18.9360
 2.1310	18.9580
 2.1320	18.9840
 2.1330	19.0080
 2.1340	19.0310
 2.1350	19.0550
 2.1360	19.0780
 2.1370	19.1000
 2.1380	19.1210
 2.1390	19.1430
 2.1400	19.1670
 2.1410	19.1880
 2.1420	19.2080
 2.1430	19.2300
 2.1440	19.2530
 2.1450	19.2750
 2.1460	19.2960
 2.1470	19.3200
 2.1480	19.3400
 2.1490	19.3560
 2.1500	19.3750
 2.1510	19.3940
 2.1520	19.4130
 2.1530	19.4310
 2.1540	19.4500
 2.1550	19.4730
 2.1560	19.4920
 2.1570	19.5070
 2.1580	19.5240
 2.1590	19.5400
 2.1600	19.5550
 2.1610	19.5720
 2.1620	19.5890
 2.1630	19.6060
 2.1640	19.6210
 2.1650	19.6370
 2.1660	19.6540
 2.1670	19.6740
 2.1680	19.6950
 2.1690	19.7150
 2.1700	19.7350
 2.1710	19.7570
 2.1720	19.7780
 2.1730	19.7980
 2.1740	19.8190
 2.1750	19.8390
 2.1760	19.8540
 2.1770	19.8720
 2.1780	19.8940
 2.1790	19.9150
 2.1800	19.9380
 2.1810	19.9600
 2.1820	19.9840
 2.1830	20.0030
 2.1840	20.0250
 2.1850	20.0480
 2.1860	20.0710
 2.1870	20.0920
 2.1880	20.1180
 2.1890	20.1460
 2.1900	20.1750
 2.1910	20.2080
 2.1920	20.2360
 2.1930	20.2590
 2.1940	20.2840
 2.1950	20.3030
 2.1960	20.3270
 2.1970	20.3580
 2.1980	20.3810
 2.1990	20.3980
 2.2000	20.4200
 2.2010	20.4370
 2.2020	20.4580
 2.2030	20.4880
 2.2040	20.5120
 2.2050	20.5300
 2.2060	20.5490
 2.2070	20.5660
 2.2080	20.5800
 2.2090	20.5960
 2.2100	20.6120
 2.2110	20.6290
 2.2120	20.6480
 2.2130	20.6640
 2.2140	20.6830
 2.2150	20.6940
 2.2160	20.6970
 2.2170	20.7040
 2.2180	20.7070
 2.2190	20.7120
 2.2200	20.7230
 2.2210	20.7250
 2.2220	20.7230
 2.2230	20.7170
 2.2240	20.7040
 2.2250	20.6930
 2.2260	20.6820
 2.2270	20.6670
 2.2280	20.6550
 2.2290	20.6350
 2.2300	20.6080
 2.2310	20.5810
 2.2320	20.5510
 2.2330	20.5190
 2.2340	20.4850
 2.2350	20.4510
 2.2360	20.4100
 2.2370	20.3620
 2.2380	20.3130
 2.2390	20.2590
 2.2400	20.2040
 2.2410	20.1440
 2.2420	20.0850
 2.2430	20.0250
 2.2440	19.9610
 2.2450	19.8940
 2.2460	19.8280
 2.2470	19.7590
 2.2480	19.6890
 2.2490	19.6190
 2.2500	19.5480
 2.2510	19.4750
 2.2520	19.4010
 2.2530	19.3210
 2.2540	19.2490
 2.2550	19.1770
 2.2560	19.1100
 2.2570	19.0530
 2.2580	18.9910
 2.2590	18.9270
 2.2600	18.8650
 2.2610	18.8020
 2.2620	18.7380
 2.2630	18.6710
 2.2640	18.6100
 2.2650	18.5480
 2.2660	18.4860
 2.2670	18.4290
 2.2680	18.3760
 2.2690	18.3220
 2.2700	18.2710
 2.2710	18.2210
 2.2720	18.1680
 2.2730	18.1240
 2.2740	18.0880
 2.2750	18.0450
 2.2760	18.0090
 2.2770	17.9660
 2.2780	17.9110
 2.2790	17.8690
 2.2800	17.8320
 2.2810	17.7950
 2.2820	17.7700
 2.2830	17.7360
 2.2840	17.6950
 2.2850	17.6580
 2.2860	17.6190
 2.2870	17.5790
 2.2880	17.5430
 2.2890	17.5000
 2.2900	17.4450
 2.2910	17.4000
 2.2920	17.3580
 2.2930	17.3150
 2.2940	17.2810
 2.2950	17.2400
 2.2960	17.1880
 2.2970	17.1430
 2.2980	17.0980
 2.2990	17.0530
 2.3000	17.0090
 2.3010	16.9710
 2.3020	16.9310
 2.3030	16.8910
 2.3040	16.8490
 2.3050	16.8070
 2.3060	16.7640
 2.3070	16.7250
 2.3080	16.6990
 2.3090	16.6650
 2.3100	16.6340
 2.3110	16.6100
 2.3120	16.5860
 2.3130	16.5620
 2.3140	16.5420
 2.3150	16.5290
 2.3160	16.5090
 2.3170	16.4830
 2.3180	16.4690
 2.3190	16.4610
 2.3200	16.4480
 2.3210	16.4430
 2.3220	16.4240
 2.3230	16.3900
 2.3240	16.3640
 2.3250	16.3380
 2.3260	16.3090
 2.3270	16.2780
 2.3280	16.2470
 2.3290	16.2110
 2.3300	16.1760
 2.3310	16.1410
 2.3320	16.1070
 2.3330	16.0710
 2.3340	16.0370
 2.3350	16.0080
 2.3360	15.9750
 2.3370	15.9420
 2.3380	15.9080
 2.3390	15.8720
 2.3400	15.8350
 2.3410	15.7990
 2.3420	15.7620
 2.3430	15.7270
 2.3440	15.6920
 2.3450	15.6530
 2.3460	15.6210
 2.3470	15.5970
 2.3480	15.5690
 2.3490	15.5430
 2.3500	15.5200
 2.3510	15.4960
 2.3520	15.4730
 2.3530	15.4570
 2.3540	15.4400
 2.3550	15.4190
 2.3560	15.3950
 2.3570	15.3670
 2.3580	15.3470
 2.3590	15.3220
 2.3600	15.3000
 2.3610	15.2870
 2.3620	15.2560
 2.3630	15.2200
 2.3640	15.1870
 2.3650	15.1480
 2.3660	15.1220
 2.3670	15.1010
 2.3680	15.0680
 2.3690	15.0380
 2.3700	15.0070
 2.3710	14.9800
 2.3720	14.9570
 2.3730	14.9290
 2.3740	14.8950
 2.3750	14.8540
 2.3760	14.8180
 2.3770	14.7860
 2.3780	14.7540
 2.3790	14.7230
 2.3800	14.6800
 2.3810	14.6350
 2.3820	14.5870
 2.3830	14.5370
 2.3840	14.4950
 2.3850	14.4600
 2.3860	14.4320
 2.3870	14.4060
 2.3880	14.3860
 2.3890	14.3620
 2.3900	14.3230
 2.3910	14.2810
 2.3920	14.2300
 2.3930	14.1730
 2.3940	14.1230
 2.3950	14.0760
 2.3960	14.0400
 2.3970	14.0110
 2.3980	13.9700
 2.3990	13.9280
 2.4000	13.8840
 2.4010	13.8380
 2.4020	13.7940
 2.4030	13.7560
 2.4040	13.7190
 2.4050	13.6820
 2.4060	13.6510
 2.4070	13.6190
 2.4080	13.5720
 2.4090	13.5110
 2.4100	13.4540
 2.4110	13.4030
 2.4120	13.3630
 2.4130	13.3380
 2.4140	13.3060
 2.4150	13.2560
 2.4160	13.1990
 2.4170	13.1450
 2.4180	13.0930
 2.4190	13.0440
 2.4200	13.0050
 2.4210	12.9760
 2.4220	12.9500
 2.4230	12.9080
 2.4240	12.8530
 2.4250	12.7890
 2.4260	12.7250
 2.4270	12.6720
 2.4280	12.6360
 2.4290	12.6220
 2.4300	12.5920
 2.4310	12.5520
 2.4320	12.5100
 2.4330	12.4420
 2.4340	12.3790
 2.4350	12.3530
 2.4360	12.3250
 2.4370	12.2820
 2.4380	12.2460
 2.4390	12.1800
 2.4400	12.1170
 2.4410	12.0740
 2.4420	12.0320
 2.4430	11.9990
 2.4440	11.9620
 2.4450	11.9330
 2.4460	11.8940
 2.4470	11.8460
 2.4480	11.8000
 2.4490	11.7540
 2.4500	11.7100
 2.4510	11.6610
 2.4520	11.6440
 2.4530	11.6220
 2.4540	11.5580
 2.4550	11.5010
 2.4560	11.4440
 2.4570	11.3990
 2.4580	11.3910
 2.4590	11.3880
 2.4600	11.3690
 2.4610	11.3190
 2.4620	11.2530
 2.4630	11.1980
 2.4640	11.1730
 2.4650	11.1680
 2.4660	11.1640
 2.4670	11.1570
 2.4680	11.1270
 2.4690	11.0480
 2.4700	10.9990
 2.4710	10.9510
 2.4720	10.9150
 2.4730	10.9030
 2.4740	10.8810
 2.4750	10.8580
 2.4760	10.8310
 2.4770	10.7930
 2.4780	10.7660
 2.4790	10.7350
 2.4800	10.7210
 2.4810	10.7440
 2.4820	10.7270
 2.4830	10.7320
 2.4840	10.7390
 2.4850	10.6880
 2.4860	10.6570
 2.4870	10.6420
 2.4880	10.6210
 2.4890	10.5780
 2.4900	10.5530
 2.4910	10.5370
 2.4920	10.5220
 2.4930	10.5630
 2.4940	10.5720
 2.4950	10.5660
 2.4960	10.5550
 2.4970	10.5230
 2.4980	10.5570
 2.4990	10.5960
 2.5000	10.6580
