Name: Pinus ponderosa 1
Type: vegetation
Class: Tree
Genus: Pinus
Species: ponderosa
Sample No.: VH249
Owner: UCSB
Wavelength Range: VSWIR
Origin: 37.0443; -119.3026; WGS84
Collection Date: 11/2/2013
Description: Samples were collected as part of the HyspIRI Airborne Campaign. 48 individual plants were sampled in three times in 2013 - spring  summer  and fall. The name of the sample includes a 1  2  or 3 which references a different individual of the species. Samples were taken to JPL and processed within 48 hours of collection. The same leaves were processed in the Nicolet and then measured using the ASD.
Measurement: Bidirectional reflectance
First Column: X
Second Column: Y
X Units: Wavelength (micrometers)
Y Units: Reflectance (percentage)
First X Value: 0.35
Last X Value: 2.5
Number of X Values: 2151
Additional Information: vegetation.tree.pinus.ponderosa.vswir.vh249.ucsb.asd.ancillary.txt

 0.3500	 5.9670
 0.3510	 6.1910
 0.3520	 6.1050
 0.3530	 5.9020
 0.3540	 5.8330
 0.3550	 5.9110
 0.3560	 5.9290
 0.3570	 5.8390
 0.3580	 5.7040
 0.3590	 5.7310
 0.3600	 5.8100
 0.3610	 5.8390
 0.3620	 5.7650
 0.3630	 5.7010
 0.3640	 5.7050
 0.3650	 5.7760
 0.3660	 5.7720
 0.3670	 5.7170
 0.3680	 5.6780
 0.3690	 5.7250
 0.3700	 5.7210
 0.3710	 5.6990
 0.3720	 5.6890
 0.3730	 5.6730
 0.3740	 5.6630
 0.3750	 5.6660
 0.3760	 5.6880
 0.3770	 5.7530
 0.3780	 5.7870
 0.3790	 5.7660
 0.3800	 5.7110
 0.3810	 5.6570
 0.3820	 5.6490
 0.3830	 5.6910
 0.3840	 5.7110
 0.3850	 5.6740
 0.3860	 5.6250
 0.3870	 5.6250
 0.3880	 5.6680
 0.3890	 5.6810
 0.3900	 5.6590
 0.3910	 5.6690
 0.3920	 5.6810
 0.3930	 5.6940
 0.3940	 5.7050
 0.3950	 5.6790
 0.3960	 5.6750
 0.3970	 5.6900
 0.3980	 5.6890
 0.3990	 5.6760
 0.4000	 5.6650
 0.4010	 5.6570
 0.4020	 5.6360
 0.4030	 5.6580
 0.4040	 5.6940
 0.4050	 5.7120
 0.4060	 5.7350
 0.4070	 5.7480
 0.4080	 5.7510
 0.4090	 5.7600
 0.4100	 5.8130
 0.4110	 5.8740
 0.4120	 5.9130
 0.4130	 5.9330
 0.4140	 5.9630
 0.4150	 6.0140
 0.4160	 6.0810
 0.4170	 6.1310
 0.4180	 6.1840
 0.4190	 6.2460
 0.4200	 6.3100
 0.4210	 6.3790
 0.4220	 6.4530
 0.4230	 6.5260
 0.4240	 6.5760
 0.4250	 6.6550
 0.4260	 6.7450
 0.4270	 6.8050
 0.4280	 6.8760
 0.4290	 6.9430
 0.4300	 7.0020
 0.4310	 7.0660
 0.4320	 7.1250
 0.4330	 7.1740
 0.4340	 7.2130
 0.4350	 7.2730
 0.4360	 7.3310
 0.4370	 7.3850
 0.4380	 7.4450
 0.4390	 7.5090
 0.4400	 7.5690
 0.4410	 7.6210
 0.4420	 7.6710
 0.4430	 7.7200
 0.4440	 7.7640
 0.4450	 7.8010
 0.4460	 7.8370
 0.4470	 7.8780
 0.4480	 7.9210
 0.4490	 7.9600
 0.4500	 8.0010
 0.4510	 8.0340
 0.4520	 8.0540
 0.4530	 8.0860
 0.4540	 8.1140
 0.4550	 8.1380
 0.4560	 8.1690
 0.4570	 8.1940
 0.4580	 8.2160
 0.4590	 8.2360
 0.4600	 8.2520
 0.4610	 8.2700
 0.4620	 8.2930
 0.4630	 8.3180
 0.4640	 8.3330
 0.4650	 8.3380
 0.4660	 8.3440
 0.4670	 8.3700
 0.4680	 8.3890
 0.4690	 8.4000
 0.4700	 8.4080
 0.4710	 8.4190
 0.4720	 8.4350
 0.4730	 8.4500
 0.4740	 8.4530
 0.4750	 8.4520
 0.4760	 8.4550
 0.4770	 8.4660
 0.4780	 8.4840
 0.4790	 8.4990
 0.4800	 8.5040
 0.4810	 8.5020
 0.4820	 8.5150
 0.4830	 8.5270
 0.4840	 8.5340
 0.4850	 8.5450
 0.4860	 8.5540
 0.4870	 8.5620
 0.4880	 8.5750
 0.4890	 8.5960
 0.4900	 8.6170
 0.4910	 8.6370
 0.4920	 8.6620
 0.4930	 8.6940
 0.4940	 8.7310
 0.4950	 8.7680
 0.4960	 8.8050
 0.4970	 8.8510
 0.4980	 8.9000
 0.4990	 8.9470
 0.5000	 8.9990
 0.5010	 9.0560
 0.5020	 9.1170
 0.5030	 9.1790
 0.5040	 9.2530
 0.5050	 9.3380
 0.5060	 9.4280
 0.5070	 9.5130
 0.5080	 9.6130
 0.5090	 9.7220
 0.5100	 9.8290
 0.5110	 9.9520
 0.5120	10.0860
 0.5130	10.2240
 0.5140	10.3660
 0.5150	10.5210
 0.5160	10.6840
 0.5170	10.8480
 0.5180	11.0200
 0.5190	11.2000
 0.5200	11.3840
 0.5210	11.5640
 0.5220	11.7530
 0.5230	11.9420
 0.5240	12.1240
 0.5250	12.3010
 0.5260	12.4800
 0.5270	12.6540
 0.5280	12.8160
 0.5290	12.9730
 0.5300	13.1240
 0.5310	13.2660
 0.5320	13.3980
 0.5330	13.5240
 0.5340	13.6450
 0.5350	13.7580
 0.5360	13.8630
 0.5370	13.9640
 0.5380	14.0580
 0.5390	14.1370
 0.5400	14.2110
 0.5410	14.2750
 0.5420	14.3320
 0.5430	14.3970
 0.5440	14.4630
 0.5450	14.5260
 0.5460	14.5880
 0.5470	14.6750
 0.5480	14.7650
 0.5490	14.8420
 0.5500	14.9020
 0.5510	14.9530
 0.5520	14.9950
 0.5530	15.0260
 0.5540	15.0490
 0.5550	15.0580
 0.5560	15.0510
 0.5570	15.0320
 0.5580	15.0000
 0.5590	14.9570
 0.5600	14.9060
 0.5610	14.8470
 0.5620	14.7780
 0.5630	14.7040
 0.5640	14.6270
 0.5650	14.5450
 0.5660	14.4610
 0.5670	14.3800
 0.5680	14.3050
 0.5690	14.2200
 0.5700	14.1260
 0.5710	14.0300
 0.5720	13.9300
 0.5730	13.8260
 0.5740	13.7160
 0.5750	13.6010
 0.5760	13.4750
 0.5770	13.3570
 0.5780	13.2550
 0.5790	13.1610
 0.5800	13.0890
 0.5810	13.0310
 0.5820	12.9750
 0.5830	12.9250
 0.5840	12.8740
 0.5850	12.8200
 0.5860	12.7620
 0.5870	12.7150
 0.5880	12.6870
 0.5890	12.6770
 0.5900	12.6600
 0.5910	12.6280
 0.5920	12.5860
 0.5930	12.5500
 0.5940	12.5280
 0.5950	12.5110
 0.5960	12.4940
 0.5970	12.4830
 0.5980	12.4710
 0.5990	12.4540
 0.6000	12.4310
 0.6010	12.4030
 0.6020	12.3700
 0.6030	12.3300
 0.6040	12.2840
 0.6050	12.2310
 0.6060	12.1780
 0.6070	12.1260
 0.6080	12.0690
 0.6090	11.9980
 0.6100	11.9140
 0.6110	11.8290
 0.6120	11.7660
 0.6130	11.7160
 0.6140	11.6710
 0.6150	11.6180
 0.6160	11.5630
 0.6170	11.5120
 0.6180	11.4680
 0.6190	11.4230
 0.6200	11.3800
 0.6210	11.3410
 0.6220	11.3120
 0.6230	11.2890
 0.6240	11.2700
 0.6250	11.2520
 0.6260	11.2390
 0.6270	11.2310
 0.6280	11.2270
 0.6290	11.2230
 0.6300	11.2170
 0.6310	11.2120
 0.6320	11.2080
 0.6330	11.2060
 0.6340	11.1910
 0.6350	11.1660
 0.6360	11.1350
 0.6370	11.0930
 0.6380	11.0410
 0.6390	10.9790
 0.6400	10.9110
 0.6410	10.8430
 0.6420	10.7700
 0.6430	10.6890
 0.6440	10.6100
 0.6450	10.5280
 0.6460	10.4470
 0.6470	10.3690
 0.6480	10.2960
 0.6490	10.2290
 0.6500	10.1670
 0.6510	10.1120
 0.6520	10.0660
 0.6530	10.0230
 0.6540	 9.9790
 0.6550	 9.9260
 0.6560	 9.8700
 0.6570	 9.8120
 0.6580	 9.7500
 0.6590	 9.6740
 0.6600	 9.5990
 0.6610	 9.5270
 0.6620	 9.4420
 0.6630	 9.3640
 0.6640	 9.2910
 0.6650	 9.2180
 0.6660	 9.1520
 0.6670	 9.0930
 0.6680	 9.0410
 0.6690	 8.9970
 0.6700	 8.9590
 0.6710	 8.9290
 0.6720	 8.9060
 0.6730	 8.8900
 0.6740	 8.8760
 0.6750	 8.8670
 0.6760	 8.8640
 0.6770	 8.8700
 0.6780	 8.8790
 0.6790	 8.8940
 0.6800	 8.9180
 0.6810	 8.9560
 0.6820	 9.0080
 0.6830	 9.0750
 0.6840	 9.1610
 0.6850	 9.2780
 0.6860	 9.4240
 0.6870	 9.5970
 0.6880	 9.8120
 0.6890	10.0720
 0.6900	10.3790
 0.6910	10.7370
 0.6920	11.1420
 0.6930	11.5990
 0.6940	12.1090
 0.6950	12.6670
 0.6960	13.2770
 0.6970	13.9370
 0.6980	14.6380
 0.6990	15.3820
 0.7000	16.1610
 0.7010	16.9730
 0.7020	17.8170
 0.7030	18.6810
 0.7040	19.5590
 0.7050	20.4510
 0.7060	21.3660
 0.7070	22.2830
 0.7080	23.2020
 0.7090	24.1300
 0.7100	25.0730
 0.7110	26.0110
 0.7120	26.9450
 0.7130	27.8930
 0.7140	28.8420
 0.7150	29.7840
 0.7160	30.7160
 0.7170	31.6550
 0.7180	32.5890
 0.7190	33.5160
 0.7200	34.4310
 0.7210	35.3430
 0.7220	36.2340
 0.7230	37.1040
 0.7240	37.9710
 0.7250	38.8080
 0.7260	39.6300
 0.7270	40.4420
 0.7280	41.2080
 0.7290	41.9520
 0.7300	42.6710
 0.7310	43.3580
 0.7320	44.0170
 0.7330	44.6460
 0.7340	45.2430
 0.7350	45.8070
 0.7360	46.3620
 0.7370	46.8920
 0.7380	47.3860
 0.7390	47.8560
 0.7400	48.3020
 0.7410	48.7230
 0.7420	49.1180
 0.7430	49.4930
 0.7440	49.8470
 0.7450	50.1780
 0.7460	50.4870
 0.7470	50.7770
 0.7480	51.0480
 0.7490	51.3020
 0.7500	51.5390
 0.7510	51.7530
 0.7520	51.9470
 0.7530	52.1250
 0.7540	52.2890
 0.7550	52.4500
 0.7560	52.6000
 0.7570	52.7170
 0.7580	52.8330
 0.7590	52.9440
 0.7600	53.0430
 0.7610	53.1330
 0.7620	53.2170
 0.7630	53.2960
 0.7640	53.3730
 0.7650	53.4360
 0.7660	53.4910
 0.7670	53.5390
 0.7680	53.5770
 0.7690	53.6310
 0.7700	53.6830
 0.7710	53.7240
 0.7720	53.7620
 0.7730	53.8050
 0.7740	53.8390
 0.7750	53.8580
 0.7760	53.8880
 0.7770	53.9160
 0.7780	53.9400
 0.7790	53.9630
 0.7800	53.9890
 0.7810	54.0220
 0.7820	54.0570
 0.7830	54.0720
 0.7840	54.0760
 0.7850	54.1000
 0.7860	54.1460
 0.7870	54.1460
 0.7880	54.1710
 0.7890	54.2070
 0.7900	54.2270
 0.7910	54.2480
 0.7920	54.2570
 0.7930	54.2640
 0.7940	54.2920
 0.7950	54.3140
 0.7960	54.3270
 0.7970	54.3410
 0.7980	54.3710
 0.7990	54.3910
 0.8000	54.4010
 0.8010	54.4120
 0.8020	54.4430
 0.8030	54.4710
 0.8040	54.4940
 0.8050	54.5160
 0.8060	54.5290
 0.8070	54.5430
 0.8080	54.5610
 0.8090	54.5780
 0.8100	54.5850
 0.8110	54.5960
 0.8120	54.6180
 0.8130	54.6510
 0.8140	54.6790
 0.8150	54.6940
 0.8160	54.7000
 0.8170	54.7240
 0.8180	54.7420
 0.8190	54.7550
 0.8200	54.7760
 0.8210	54.8050
 0.8220	54.8130
 0.8230	54.8110
 0.8240	54.8450
 0.8250	54.8520
 0.8260	54.8510
 0.8270	54.8590
 0.8280	54.8740
 0.8290	54.8950
 0.8300	54.9090
 0.8310	54.9060
 0.8320	54.8950
 0.8330	54.9050
 0.8340	54.9290
 0.8350	54.9440
 0.8360	54.9600
 0.8370	54.9780
 0.8380	54.9990
 0.8390	55.0140
 0.8400	55.0200
 0.8410	55.0200
 0.8420	55.0250
 0.8430	55.0480
 0.8440	55.0760
 0.8450	55.1040
 0.8460	55.1290
 0.8470	55.1480
 0.8480	55.1580
 0.8490	55.1650
 0.8500	55.1770
 0.8510	55.2010
 0.8520	55.2220
 0.8530	55.2350
 0.8540	55.2440
 0.8550	55.2510
 0.8560	55.2720
 0.8570	55.2950
 0.8580	55.2870
 0.8590	55.3000
 0.8600	55.3190
 0.8610	55.3290
 0.8620	55.3300
 0.8630	55.3450
 0.8640	55.3560
 0.8650	55.3540
 0.8660	55.3800
 0.8670	55.3730
 0.8680	55.3650
 0.8690	55.3960
 0.8700	55.4040
 0.8710	55.3970
 0.8720	55.3880
 0.8730	55.3920
 0.8740	55.3900
 0.8750	55.4100
 0.8760	55.4390
 0.8770	55.4260
 0.8780	55.4120
 0.8790	55.4100
 0.8800	55.4180
 0.8810	55.4110
 0.8820	55.4120
 0.8830	55.4070
 0.8840	55.3900
 0.8850	55.3870
 0.8860	55.3850
 0.8870	55.3850
 0.8880	55.3870
 0.8890	55.3710
 0.8900	55.3640
 0.8910	55.3620
 0.8920	55.3450
 0.8930	55.3360
 0.8940	55.3330
 0.8950	55.3240
 0.8960	55.2980
 0.8970	55.2940
 0.8980	55.2890
 0.8990	55.2750
 0.9000	55.2610
 0.9010	55.2510
 0.9020	55.2410
 0.9030	55.2290
 0.9040	55.2170
 0.9050	55.1970
 0.9060	55.1750
 0.9070	55.1620
 0.9080	55.1610
 0.9090	55.1490
 0.9100	55.1250
 0.9110	55.0940
 0.9120	55.0690
 0.9130	55.0490
 0.9140	55.0380
 0.9150	55.0340
 0.9160	55.0230
 0.9170	55.0210
 0.9180	55.0150
 0.9190	54.9900
 0.9200	54.9630
 0.9210	54.9300
 0.9220	54.9050
 0.9230	54.9040
 0.9240	54.8850
 0.9250	54.8410
 0.9260	54.7870
 0.9270	54.7450
 0.9280	54.7120
 0.9290	54.6730
 0.9300	54.6240
 0.9310	54.5760
 0.9320	54.5250
 0.9330	54.4750
 0.9340	54.4220
 0.9350	54.3500
 0.9360	54.2980
 0.9370	54.2540
 0.9380	54.2030
 0.9390	54.1440
 0.9400	54.0680
 0.9410	53.9800
 0.9420	53.8880
 0.9430	53.7940
 0.9440	53.7140
 0.9450	53.6410
 0.9460	53.5610
 0.9470	53.4520
 0.9480	53.3320
 0.9490	53.2100
 0.9500	53.0890
 0.9510	52.9520
 0.9520	52.8030
 0.9530	52.6520
 0.9540	52.5050
 0.9550	52.3480
 0.9560	52.1830
 0.9570	52.0310
 0.9580	51.9050
 0.9590	51.7720
 0.9600	51.6480
 0.9610	51.5440
 0.9620	51.4660
 0.9630	51.3890
 0.9640	51.3160
 0.9650	51.2520
 0.9660	51.2000
 0.9670	51.1520
 0.9680	51.1250
 0.9690	51.1090
 0.9700	51.0830
 0.9710	51.0450
 0.9720	51.0270
 0.9730	51.0230
 0.9740	51.0160
 0.9750	51.0280
 0.9760	51.0320
 0.9770	51.0300
 0.9780	51.0380
 0.9790	51.0370
 0.9800	51.0490
 0.9810	51.0760
 0.9820	51.1080
 0.9830	51.1380
 0.9840	51.1780
 0.9850	51.2150
 0.9860	51.2350
 0.9870	51.2800
 0.9880	51.3270
 0.9890	51.3780
 0.9900	51.4450
 0.9910	51.5010
 0.9920	51.5530
 0.9930	51.6100
 0.9940	51.6820
 0.9950	51.7600
 0.9960	51.8320
 0.9970	51.8970
 0.9980	51.9610
 0.9990	52.0470
 1.0000	52.1220
 1.0010	52.1340
 1.0020	52.2100
 1.0030	52.2810
 1.0040	52.3500
 1.0050	52.4170
 1.0060	52.4880
 1.0070	52.5570
 1.0080	52.6270
 1.0090	52.6960
 1.0100	52.7650
 1.0110	52.8320
 1.0120	52.9040
 1.0130	52.9780
 1.0140	53.0490
 1.0150	53.1220
 1.0160	53.1930
 1.0170	53.2590
 1.0180	53.3240
 1.0190	53.3920
 1.0200	53.4630
 1.0210	53.5320
 1.0220	53.6000
 1.0230	53.6690
 1.0240	53.7390
 1.0250	53.8060
 1.0260	53.8740
 1.0270	53.9390
 1.0280	54.0020
 1.0290	54.0640
 1.0300	54.1260
 1.0310	54.1860
 1.0320	54.2450
 1.0330	54.3010
 1.0340	54.3620
 1.0350	54.4190
 1.0360	54.4730
 1.0370	54.5310
 1.0380	54.5850
 1.0390	54.6390
 1.0400	54.6900
 1.0410	54.7430
 1.0420	54.7910
 1.0430	54.8370
 1.0440	54.8800
 1.0450	54.9200
 1.0460	54.9610
 1.0470	55.0000
 1.0480	55.0390
 1.0490	55.0810
 1.0500	55.1180
 1.0510	55.1520
 1.0520	55.1850
 1.0530	55.2180
 1.0540	55.2500
 1.0550	55.2790
 1.0560	55.3080
 1.0570	55.3340
 1.0580	55.3550
 1.0590	55.3770
 1.0600	55.4010
 1.0610	55.4210
 1.0620	55.4360
 1.0630	55.4540
 1.0640	55.4740
 1.0650	55.4900
 1.0660	55.5070
 1.0670	55.5200
 1.0680	55.5290
 1.0690	55.5320
 1.0700	55.5370
 1.0710	55.5390
 1.0720	55.5440
 1.0730	55.5510
 1.0740	55.5530
 1.0750	55.5530
 1.0760	55.5510
 1.0770	55.5430
 1.0780	55.5370
 1.0790	55.5330
 1.0800	55.5250
 1.0810	55.5180
 1.0820	55.5060
 1.0830	55.4890
 1.0840	55.4730
 1.0850	55.4570
 1.0860	55.4380
 1.0870	55.4170
 1.0880	55.3980
 1.0890	55.3750
 1.0900	55.3470
 1.0910	55.3220
 1.0920	55.2970
 1.0930	55.2700
 1.0940	55.2420
 1.0950	55.2130
 1.0960	55.1840
 1.0970	55.1530
 1.0980	55.1210
 1.0990	55.0870
 1.1000	55.0490
 1.1010	55.0120
 1.1020	54.9750
 1.1030	54.9380
 1.1040	54.9010
 1.1050	54.8640
 1.1060	54.8240
 1.1070	54.7820
 1.1080	54.7370
 1.1090	54.6890
 1.1100	54.6410
 1.1110	54.5940
 1.1120	54.5410
 1.1130	54.4890
 1.1140	54.4300
 1.1150	54.3650
 1.1160	54.3000
 1.1170	54.2370
 1.1180	54.1630
 1.1190	54.0860
 1.1200	54.0030
 1.1210	53.9110
 1.1220	53.8120
 1.1230	53.7080
 1.1240	53.5920
 1.1250	53.4640
 1.1260	53.3260
 1.1270	53.1710
 1.1280	53.0050
 1.1290	52.8220
 1.1300	52.6230
 1.1310	52.4070
 1.1320	52.1740
 1.1330	51.9270
 1.1340	51.6630
 1.1350	51.3850
 1.1360	51.0940
 1.1370	50.7850
 1.1380	50.4640
 1.1390	50.1330
 1.1400	49.7930
 1.1410	49.4520
 1.1420	49.1070
 1.1430	48.7580
 1.1440	48.4170
 1.1450	48.0720
 1.1460	47.7440
 1.1470	47.4180
 1.1480	47.1120
 1.1490	46.8170
 1.1500	46.5400
 1.1510	46.2760
 1.1520	46.0310
 1.1530	45.8020
 1.1540	45.5930
 1.1550	45.4040
 1.1560	45.2300
 1.1570	45.0740
 1.1580	44.9350
 1.1590	44.8100
 1.1600	44.6970
 1.1610	44.5970
 1.1620	44.5080
 1.1630	44.4300
 1.1640	44.3590
 1.1650	44.2960
 1.1660	44.2440
 1.1670	44.1930
 1.1680	44.1500
 1.1690	44.1080
 1.1700	44.0710
 1.1710	44.0330
 1.1720	43.9970
 1.1730	43.9610
 1.1740	43.9270
 1.1750	43.8930
 1.1760	43.8550
 1.1770	43.8160
 1.1780	43.7750
 1.1790	43.7320
 1.1800	43.6880
 1.1810	43.6440
 1.1820	43.5990
 1.1830	43.5520
 1.1840	43.5060
 1.1850	43.4620
 1.1860	43.4190
 1.1870	43.3760
 1.1880	43.3360
 1.1890	43.2980
 1.1900	43.2630
 1.1910	43.2280
 1.1920	43.2010
 1.1930	43.1770
 1.1940	43.1580
 1.1950	43.1430
 1.1960	43.1330
 1.1970	43.1290
 1.1980	43.1280
 1.1990	43.1350
 1.2000	43.1480
 1.2010	43.1640
 1.2020	43.1830
 1.2030	43.2060
 1.2040	43.2340
 1.2050	43.2670
 1.2060	43.3050
 1.2070	43.3460
 1.2080	43.3900
 1.2090	43.4390
 1.2100	43.4920
 1.2110	43.5480
 1.2120	43.6080
 1.2130	43.6710
 1.2140	43.7360
 1.2150	43.8040
 1.2160	43.8760
 1.2170	43.9500
 1.2180	44.0260
 1.2190	44.1040
 1.2200	44.1840
 1.2210	44.2660
 1.2220	44.3480
 1.2230	44.4320
 1.2240	44.5140
 1.2250	44.5940
 1.2260	44.6750
 1.2270	44.7540
 1.2280	44.8330
 1.2290	44.9130
 1.2300	44.9910
 1.2310	45.0660
 1.2320	45.1370
 1.2330	45.2060
 1.2340	45.2740
 1.2350	45.3410
 1.2360	45.4060
 1.2370	45.4700
 1.2380	45.5330
 1.2390	45.5900
 1.2400	45.6480
 1.2410	45.7070
 1.2420	45.7630
 1.2430	45.8210
 1.2440	45.8750
 1.2450	45.9260
 1.2460	45.9770
 1.2470	46.0240
 1.2480	46.0670
 1.2490	46.1090
 1.2500	46.1460
 1.2510	46.1830
 1.2520	46.2210
 1.2530	46.2560
 1.2540	46.2910
 1.2550	46.3210
 1.2560	46.3490
 1.2570	46.3770
 1.2580	46.4020
 1.2590	46.4240
 1.2600	46.4460
 1.2610	46.4640
 1.2620	46.4780
 1.2630	46.4940
 1.2640	46.5070
 1.2650	46.5190
 1.2660	46.5310
 1.2670	46.5370
 1.2680	46.5410
 1.2690	46.5460
 1.2700	46.5470
 1.2710	46.5470
 1.2720	46.5470
 1.2730	46.5420
 1.2740	46.5360
 1.2750	46.5270
 1.2760	46.5150
 1.2770	46.5030
 1.2780	46.4860
 1.2790	46.4660
 1.2800	46.4430
 1.2810	46.4170
 1.2820	46.3870
 1.2830	46.3540
 1.2840	46.3180
 1.2850	46.2790
 1.2860	46.2370
 1.2870	46.1890
 1.2880	46.1380
 1.2890	46.0830
 1.2900	46.0220
 1.2910	45.9550
 1.2920	45.8850
 1.2930	45.8120
 1.2940	45.7330
 1.2950	45.6500
 1.2960	45.5630
 1.2970	45.4710
 1.2980	45.3730
 1.2990	45.2700
 1.3000	45.1600
 1.3010	45.0460
 1.3020	44.9250
 1.3030	44.8000
 1.3040	44.6710
 1.3050	44.5360
 1.3060	44.3970
 1.3070	44.2520
 1.3080	44.1040
 1.3090	43.9480
 1.3100	43.7850
 1.3110	43.6200
 1.3120	43.4470
 1.3130	43.2690
 1.3140	43.0870
 1.3150	42.9010
 1.3160	42.7090
 1.3170	42.5140
 1.3180	42.3140
 1.3190	42.1080
 1.3200	41.8970
 1.3210	41.6810
 1.3220	41.4630
 1.3230	41.2410
 1.3240	41.0160
 1.3250	40.7890
 1.3260	40.5580
 1.3270	40.3230
 1.3280	40.0860
 1.3290	39.8430
 1.3300	39.6000
 1.3310	39.3590
 1.3320	39.1140
 1.3330	38.8740
 1.3340	38.6330
 1.3350	38.3900
 1.3360	38.1500
 1.3370	37.9090
 1.3380	37.6710
 1.3390	37.4350
 1.3400	37.2010
 1.3410	36.9730
 1.3420	36.7470
 1.3430	36.5210
 1.3440	36.3010
 1.3450	36.0830
 1.3460	35.8660
 1.3470	35.6560
 1.3480	35.4510
 1.3490	35.2490
 1.3500	35.0510
 1.3510	34.8560
 1.3520	34.6620
 1.3530	34.4710
 1.3540	34.2800
 1.3550	34.0910
 1.3560	33.9030
 1.3570	33.7150
 1.3580	33.5290
 1.3590	33.3390
 1.3600	33.1450
 1.3610	32.9490
 1.3620	32.7460
 1.3630	32.5390
 1.3640	32.3270
 1.3650	32.1060
 1.3660	31.8810
 1.3670	31.6460
 1.3680	31.3990
 1.3690	31.1420
 1.3700	30.8700
 1.3710	30.5860
 1.3720	30.2910
 1.3730	29.9800
 1.3740	29.6590
 1.3750	29.3220
 1.3760	28.9660
 1.3770	28.5930
 1.3780	28.1980
 1.3790	27.7870
 1.3800	27.3600
 1.3810	26.9120
 1.3820	26.4540
 1.3830	25.9800
 1.3840	25.4970
 1.3850	24.9990
 1.3860	24.4990
 1.3870	23.9860
 1.3880	23.4790
 1.3890	22.9680
 1.3900	22.4580
 1.3910	21.9560
 1.3920	21.4580
 1.3930	20.9650
 1.3940	20.4840
 1.3950	20.0090
 1.3960	19.5480
 1.3970	19.1020
 1.3980	18.6700
 1.3990	18.2590
 1.4000	17.8640
 1.4010	17.4840
 1.4020	17.1240
 1.4030	16.7810
 1.4040	16.4550
 1.4050	16.1490
 1.4060	15.8600
 1.4070	15.5910
 1.4080	15.3400
 1.4090	15.1030
 1.4100	14.8830
 1.4110	14.6760
 1.4120	14.4820
 1.4130	14.3040
 1.4140	14.1390
 1.4150	13.9880
 1.4160	13.8490
 1.4170	13.7200
 1.4180	13.6010
 1.4190	13.4910
 1.4200	13.3890
 1.4210	13.2960
 1.4220	13.2100
 1.4230	13.1330
 1.4240	13.0640
 1.4250	12.9990
 1.4260	12.9420
 1.4270	12.8890
 1.4280	12.8420
 1.4290	12.7990
 1.4300	12.7600
 1.4310	12.7260
 1.4320	12.6970
 1.4330	12.6710
 1.4340	12.6500
 1.4350	12.6310
 1.4360	12.6160
 1.4370	12.6040
 1.4380	12.5940
 1.4390	12.5860
 1.4400	12.5810
 1.4410	12.5770
 1.4420	12.5760
 1.4430	12.5770
 1.4440	12.5810
 1.4450	12.5860
 1.4460	12.5920
 1.4470	12.5990
 1.4480	12.6090
 1.4490	12.6180
 1.4500	12.6290
 1.4510	12.6390
 1.4520	12.6500
 1.4530	12.6620
 1.4540	12.6750
 1.4550	12.6900
 1.4560	12.7060
 1.4570	12.7240
 1.4580	12.7430
 1.4590	12.7650
 1.4600	12.7880
 1.4610	12.8130
 1.4620	12.8400
 1.4630	12.8700
 1.4640	12.9040
 1.4650	12.9390
 1.4660	12.9770
 1.4670	13.0180
 1.4680	13.0630
 1.4690	13.1100
 1.4700	13.1590
 1.4710	13.2120
 1.4720	13.2660
 1.4730	13.3220
 1.4740	13.3820
 1.4750	13.4450
 1.4760	13.5100
 1.4770	13.5770
 1.4780	13.6450
 1.4790	13.7150
 1.4800	13.7860
 1.4810	13.8570
 1.4820	13.9310
 1.4830	14.0040
 1.4840	14.0790
 1.4850	14.1560
 1.4860	14.2330
 1.4870	14.3120
 1.4880	14.3920
 1.4890	14.4720
 1.4900	14.5530
 1.4910	14.6350
 1.4920	14.7170
 1.4930	14.8000
 1.4940	14.8830
 1.4950	14.9670
 1.4960	15.0520
 1.4970	15.1370
 1.4980	15.2230
 1.4990	15.3090
 1.5000	15.3950
 1.5010	15.4820
 1.5020	15.5680
 1.5030	15.6540
 1.5040	15.7400
 1.5050	15.8260
 1.5060	15.9130
 1.5070	16.0010
 1.5080	16.0880
 1.5090	16.1750
 1.5100	16.2620
 1.5110	16.3490
 1.5120	16.4360
 1.5130	16.5220
 1.5140	16.6090
 1.5150	16.6960
 1.5160	16.7810
 1.5170	16.8670
 1.5180	16.9500
 1.5190	17.0310
 1.5200	17.1140
 1.5210	17.1950
 1.5220	17.2770
 1.5230	17.3590
 1.5240	17.4410
 1.5250	17.5230
 1.5260	17.6040
 1.5270	17.6840
 1.5280	17.7640
 1.5290	17.8410
 1.5300	17.9190
 1.5310	17.9970
 1.5320	18.0740
 1.5330	18.1510
 1.5340	18.2280
 1.5350	18.3040
 1.5360	18.3790
 1.5370	18.4540
 1.5380	18.5290
 1.5390	18.6030
 1.5400	18.6780
 1.5410	18.7530
 1.5420	18.8260
 1.5430	18.8990
 1.5440	18.9740
 1.5450	19.0470
 1.5460	19.1190
 1.5470	19.1920
 1.5480	19.2650
 1.5490	19.3370
 1.5500	19.4090
 1.5510	19.4810
 1.5520	19.5510
 1.5530	19.6210
 1.5540	19.6910
 1.5550	19.7610
 1.5560	19.8310
 1.5570	19.9010
 1.5580	19.9710
 1.5590	20.0400
 1.5600	20.1080
 1.5610	20.1730
 1.5620	20.2390
 1.5630	20.3050
 1.5640	20.3690
 1.5650	20.4340
 1.5660	20.4990
 1.5670	20.5620
 1.5680	20.6270
 1.5690	20.6920
 1.5700	20.7560
 1.5710	20.8210
 1.5720	20.8860
 1.5730	20.9510
 1.5740	21.0150
 1.5750	21.0790
 1.5760	21.1420
 1.5770	21.2030
 1.5780	21.2650
 1.5790	21.3280
 1.5800	21.3890
 1.5810	21.4520
 1.5820	21.5140
 1.5830	21.5740
 1.5840	21.6370
 1.5850	21.6990
 1.5860	21.7610
 1.5870	21.8250
 1.5880	21.8870
 1.5890	21.9500
 1.5900	22.0120
 1.5910	22.0740
 1.5920	22.1370
 1.5930	22.1990
 1.5940	22.2620
 1.5950	22.3250
 1.5960	22.3880
 1.5970	22.4520
 1.5980	22.5150
 1.5990	22.5790
 1.6000	22.6430
 1.6010	22.7070
 1.6020	22.7700
 1.6030	22.8340
 1.6040	22.8960
 1.6050	22.9590
 1.6060	23.0210
 1.6070	23.0800
 1.6080	23.1410
 1.6090	23.2010
 1.6100	23.2610
 1.6110	23.3220
 1.6120	23.3810
 1.6130	23.4390
 1.6140	23.4960
 1.6150	23.5500
 1.6160	23.6040
 1.6170	23.6570
 1.6180	23.7080
 1.6190	23.7580
 1.6200	23.8070
 1.6210	23.8550
 1.6220	23.9010
 1.6230	23.9450
 1.6240	23.9870
 1.6250	24.0260
 1.6260	24.0650
 1.6270	24.1040
 1.6280	24.1410
 1.6290	24.1780
 1.6300	24.2120
 1.6310	24.2470
 1.6320	24.2820
 1.6330	24.3180
 1.6340	24.3560
 1.6350	24.3920
 1.6360	24.4290
 1.6370	24.4660
 1.6380	24.5030
 1.6390	24.5400
 1.6400	24.5770
 1.6410	24.6120
 1.6420	24.6460
 1.6430	24.6770
 1.6440	24.7060
 1.6450	24.7330
 1.6460	24.7570
 1.6470	24.7790
 1.6480	24.7980
 1.6490	24.8130
 1.6500	24.8240
 1.6510	24.8320
 1.6520	24.8380
 1.6530	24.8390
 1.6540	24.8380
 1.6550	24.8340
 1.6560	24.8270
 1.6570	24.8190
 1.6580	24.8100
 1.6590	24.7980
 1.6600	24.7860
 1.6610	24.7730
 1.6620	24.7580
 1.6630	24.7450
 1.6640	24.7330
 1.6650	24.7170
 1.6660	24.7020
 1.6670	24.6860
 1.6680	24.6680
 1.6690	24.6510
 1.6700	24.6330
 1.6710	24.6160
 1.6720	24.5970
 1.6730	24.5790
 1.6740	24.5600
 1.6750	24.5390
 1.6760	24.5160
 1.6770	24.4920
 1.6780	24.4640
 1.6790	24.4340
 1.6800	24.4030
 1.6810	24.3710
 1.6820	24.3360
 1.6830	24.2980
 1.6840	24.2560
 1.6850	24.2100
 1.6860	24.1630
 1.6870	24.1120
 1.6880	24.0600
 1.6890	24.0050
 1.6900	23.9500
 1.6910	23.8930
 1.6920	23.8360
 1.6930	23.7760
 1.6940	23.7170
 1.6950	23.6600
 1.6960	23.6020
 1.6970	23.5440
 1.6980	23.4870
 1.6990	23.4280
 1.7000	23.3700
 1.7010	23.3120
 1.7020	23.2540
 1.7030	23.1960
 1.7040	23.1370
 1.7050	23.0770
 1.7060	23.0170
 1.7070	22.9570
 1.7080	22.8980
 1.7090	22.8390
 1.7100	22.7810
 1.7110	22.7240
 1.7120	22.6700
 1.7130	22.6180
 1.7140	22.5690
 1.7150	22.5220
 1.7160	22.4760
 1.7170	22.4310
 1.7180	22.3860
 1.7190	22.3440
 1.7200	22.3020
 1.7210	22.2620
 1.7220	22.2240
 1.7230	22.1880
 1.7240	22.1530
 1.7250	22.1210
 1.7260	22.0890
 1.7270	22.0590
 1.7280	22.0320
 1.7290	22.0050
 1.7300	21.9810
 1.7310	21.9570
 1.7320	21.9330
 1.7330	21.9100
 1.7340	21.8900
 1.7350	21.8660
 1.7360	21.8430
 1.7370	21.8140
 1.7380	21.7810
 1.7390	21.7450
 1.7400	21.7060
 1.7410	21.6650
 1.7420	21.6210
 1.7430	21.5740
 1.7440	21.5250
 1.7450	21.4730
 1.7460	21.4180
 1.7470	21.3650
 1.7480	21.3100
 1.7490	21.2550
 1.7500	21.2020
 1.7510	21.1490
 1.7520	21.0950
 1.7530	21.0440
 1.7540	20.9970
 1.7550	20.9480
 1.7560	20.9020
 1.7570	20.8560
 1.7580	20.8110
 1.7590	20.7690
 1.7600	20.7270
 1.7610	20.6850
 1.7620	20.6460
 1.7630	20.6110
 1.7640	20.5760
 1.7650	20.5440
 1.7660	20.5130
 1.7670	20.4850
 1.7680	20.4570
 1.7690	20.4310
 1.7700	20.4040
 1.7710	20.3750
 1.7720	20.3500
 1.7730	20.3250
 1.7740	20.3020
 1.7750	20.2820
 1.7760	20.2610
 1.7770	20.2400
 1.7780	20.2220
 1.7790	20.2050
 1.7800	20.1900
 1.7810	20.1780
 1.7820	20.1670
 1.7830	20.1570
 1.7840	20.1500
 1.7850	20.1470
 1.7860	20.1440
 1.7870	20.1430
 1.7880	20.1430
 1.7890	20.1450
 1.7900	20.1470
 1.7910	20.1500
 1.7920	20.1510
 1.7930	20.1550
 1.7940	20.1610
 1.7950	20.1670
 1.7960	20.1740
 1.7970	20.1810
 1.7980	20.1900
 1.7990	20.1980
 1.8000	20.2050
 1.8010	20.2130
 1.8020	20.2190
 1.8030	20.2260
 1.8040	20.2370
 1.8050	20.2450
 1.8060	20.2540
 1.8070	20.2610
 1.8080	20.2670
 1.8090	20.2740
 1.8100	20.2810
 1.8110	20.2880
 1.8120	20.2950
 1.8130	20.3020
 1.8140	20.3050
 1.8150	20.3050
 1.8160	20.3070
 1.8170	20.3070
 1.8180	20.3060
 1.8190	20.3060
 1.8200	20.3070
 1.8210	20.3080
 1.8220	20.3060
 1.8230	20.3050
 1.8240	20.3000
 1.8250	20.2890
 1.8260	20.2810
 1.8270	20.2720
 1.8280	20.2630
 1.8290	20.2560
 1.8300	20.5600
 1.8310	21.1910
 1.8320	21.4920
 1.8330	21.4760
 1.8340	21.4540
 1.8350	21.4310
 1.8360	21.4080
 1.8370	21.3810
 1.8380	21.3530
 1.8390	21.3180
 1.8400	21.2820
 1.8410	21.2380
 1.8420	21.1890
 1.8430	21.1310
 1.8440	21.0680
 1.8450	20.9990
 1.8460	20.9220
 1.8470	20.8430
 1.8480	20.7580
 1.8490	20.6660
 1.8500	20.5660
 1.8510	20.4590
 1.8520	20.3430
 1.8530	20.2180
 1.8540	20.0830
 1.8550	19.9370
 1.8560	19.7810
 1.8570	19.6140
 1.8580	19.4350
 1.8590	19.2490
 1.8600	19.0550
 1.8610	18.8500
 1.8620	18.6340
 1.8630	18.4090
 1.8640	18.1720
 1.8650	17.9240
 1.8660	17.6690
 1.8670	17.3990
 1.8680	17.1200
 1.8690	16.8310
 1.8700	16.5320
 1.8710	16.2220
 1.8720	15.9110
 1.8730	15.5920
 1.8740	15.2670
 1.8750	14.9390
 1.8760	14.6070
 1.8770	14.2760
 1.8780	13.9460
 1.8790	13.6150
 1.8800	13.2900
 1.8810	12.9690
 1.8820	12.6510
 1.8830	12.3370
 1.8840	12.0310
 1.8850	11.7260
 1.8860	11.4300
 1.8870	11.1440
 1.8880	10.8650
 1.8890	10.5990
 1.8900	10.3450
 1.8910	10.1020
 1.8920	 9.8670
 1.8930	 9.6470
 1.8940	 9.4410
 1.8950	 9.2470
 1.8960	 9.0660
 1.8970	 8.9000
 1.8980	 8.7460
 1.8990	 8.6020
 1.9000	 8.4690
 1.9010	 8.3480
 1.9020	 8.2350
 1.9030	 8.1310
 1.9040	 8.0390
 1.9050	 7.9540
 1.9060	 7.8760
 1.9070	 7.8070
 1.9080	 7.7430
 1.9090	 7.6860
 1.9100	 7.6370
 1.9110	 7.5920
 1.9120	 7.5560
 1.9130	 7.5200
 1.9140	 7.4880
 1.9150	 7.4590
 1.9160	 7.4350
 1.9170	 7.4120
 1.9180	 7.3930
 1.9190	 7.3790
 1.9200	 7.3660
 1.9210	 7.3540
 1.9220	 7.3450
 1.9230	 7.3390
 1.9240	 7.3340
 1.9250	 7.3310
 1.9260	 7.3310
 1.9270	 7.3330
 1.9280	 7.3340
 1.9290	 7.3380
 1.9300	 7.3450
 1.9310	 7.3530
 1.9320	 7.3630
 1.9330	 7.3730
 1.9340	 7.3810
 1.9350	 7.3940
 1.9360	 7.4080
 1.9370	 7.4230
 1.9380	 7.4400
 1.9390	 7.4600
 1.9400	 7.4780
 1.9410	 7.4960
 1.9420	 7.5160
 1.9430	 7.5370
 1.9440	 7.5590
 1.9450	 7.5820
 1.9460	 7.6060
 1.9470	 7.6300
 1.9480	 7.6550
 1.9490	 7.6810
 1.9500	 7.7100
 1.9510	 7.7390
 1.9520	 7.7670
 1.9530	 7.7980
 1.9540	 7.8260
 1.9550	 7.8550
 1.9560	 7.8850
 1.9570	 7.9150
 1.9580	 7.9440
 1.9590	 7.9740
 1.9600	 8.0080
 1.9610	 8.0400
 1.9620	 8.0740
 1.9630	 8.1070
 1.9640	 8.1410
 1.9650	 8.1750
 1.9660	 8.2100
 1.9670	 8.2470
 1.9680	 8.2830
 1.9690	 8.3210
 1.9700	 8.3580
 1.9710	 8.3950
 1.9720	 8.4330
 1.9730	 8.4720
 1.9740	 8.5090
 1.9750	 8.5470
 1.9760	 8.5860
 1.9770	 8.6240
 1.9780	 8.6670
 1.9790	 8.7070
 1.9800	 8.7490
 1.9810	 8.7890
 1.9820	 8.8290
 1.9830	 8.8690
 1.9840	 8.9100
 1.9850	 8.9510
 1.9860	 8.9930
 1.9870	 9.0330
 1.9880	 9.0760
 1.9890	 9.1200
 1.9900	 9.1650
 1.9910	 9.2080
 1.9920	 9.2510
 1.9930	 9.2930
 1.9940	 9.3360
 1.9950	 9.3790
 1.9960	 9.4230
 1.9970	 9.4690
 1.9980	 9.5140
 1.9990	 9.5590
 2.0000	 9.6050
 2.0010	 9.6490
 2.0020	 9.6920
 2.0030	 9.7360
 2.0040	 9.7790
 2.0050	 9.8210
 2.0060	 9.8620
 2.0070	 9.9030
 2.0080	 9.9440
 2.0090	 9.9860
 2.0100	10.0290
 2.0110	10.0700
 2.0120	10.1100
 2.0130	10.1510
 2.0140	10.1910
 2.0150	10.2310
 2.0160	10.2720
 2.0170	10.3120
 2.0180	10.3490
 2.0190	10.3860
 2.0200	10.4210
 2.0210	10.4550
 2.0220	10.4890
 2.0230	10.5230
 2.0240	10.5560
 2.0250	10.5880
 2.0260	10.6190
 2.0270	10.6490
 2.0280	10.6790
 2.0290	10.7090
 2.0300	10.7360
 2.0310	10.7640
 2.0320	10.7900
 2.0330	10.8180
 2.0340	10.8470
 2.0350	10.8740
 2.0360	10.9000
 2.0370	10.9250
 2.0380	10.9460
 2.0390	10.9690
 2.0400	10.9920
 2.0410	11.0150
 2.0420	11.0400
 2.0430	11.0650
 2.0440	11.0870
 2.0450	11.1090
 2.0460	11.1280
 2.0470	11.1420
 2.0480	11.1610
 2.0490	11.1820
 2.0500	11.2010
 2.0510	11.2240
 2.0520	11.2430
 2.0530	11.2570
 2.0540	11.2730
 2.0550	11.2880
 2.0560	11.3040
 2.0570	11.3210
 2.0580	11.3380
 2.0590	11.3550
 2.0600	11.3720
 2.0610	11.3890
 2.0620	11.4080
 2.0630	11.4240
 2.0640	11.4380
 2.0650	11.4530
 2.0660	11.4650
 2.0670	11.4810
 2.0680	11.5020
 2.0690	11.5190
 2.0700	11.5370
 2.0710	11.5530
 2.0720	11.5660
 2.0730	11.5790
 2.0740	11.5950
 2.0750	11.6110
 2.0760	11.6280
 2.0770	11.6480
 2.0780	11.6650
 2.0790	11.6800
 2.0800	11.6970
 2.0810	11.7110
 2.0820	11.7280
 2.0830	11.7460
 2.0840	11.7650
 2.0850	11.7860
 2.0860	11.8060
 2.0870	11.8270
 2.0880	11.8470
 2.0890	11.8670
 2.0900	11.8850
 2.0910	11.9050
 2.0920	11.9250
 2.0930	11.9430
 2.0940	11.9620
 2.0950	11.9790
 2.0960	11.9950
 2.0970	12.0130
 2.0980	12.0330
 2.0990	12.0530
 2.1000	12.0760
 2.1010	12.0970
 2.1020	12.1170
 2.1030	12.1370
 2.1040	12.1550
 2.1050	12.1750
 2.1060	12.1980
 2.1070	12.2230
 2.1080	12.2470
 2.1090	12.2740
 2.1100	12.2960
 2.1110	12.3160
 2.1120	12.3360
 2.1130	12.3540
 2.1140	12.3750
 2.1150	12.3970
 2.1160	12.4190
 2.1170	12.4430
 2.1180	12.4650
 2.1190	12.4880
 2.1200	12.5090
 2.1210	12.5310
 2.1220	12.5530
 2.1230	12.5750
 2.1240	12.5970
 2.1250	12.6180
 2.1260	12.6380
 2.1270	12.6590
 2.1280	12.6790
 2.1290	12.7000
 2.1300	12.7240
 2.1310	12.7450
 2.1320	12.7640
 2.1330	12.7850
 2.1340	12.8040
 2.1350	12.8250
 2.1360	12.8500
 2.1370	12.8710
 2.1380	12.8890
 2.1390	12.9090
 2.1400	12.9280
 2.1410	12.9480
 2.1420	12.9690
 2.1430	12.9940
 2.1440	13.0140
 2.1450	13.0310
 2.1460	13.0500
 2.1470	13.0660
 2.1480	13.0850
 2.1490	13.1060
 2.1500	13.1270
 2.1510	13.1490
 2.1520	13.1690
 2.1530	13.1870
 2.1540	13.2060
 2.1550	13.2230
 2.1560	13.2410
 2.1570	13.2580
 2.1580	13.2780
 2.1590	13.3010
 2.1600	13.3210
 2.1610	13.3430
 2.1620	13.3670
 2.1630	13.3890
 2.1640	13.4090
 2.1650	13.4280
 2.1660	13.4450
 2.1670	13.4640
 2.1680	13.4810
 2.1690	13.5010
 2.1700	13.5250
 2.1710	13.5440
 2.1720	13.5630
 2.1730	13.5810
 2.1740	13.5970
 2.1750	13.6140
 2.1760	13.6330
 2.1770	13.6520
 2.1780	13.6700
 2.1790	13.6890
 2.1800	13.7110
 2.1810	13.7300
 2.1820	13.7460
 2.1830	13.7640
 2.1840	13.7790
 2.1850	13.7910
 2.1860	13.8060
 2.1870	13.8220
 2.1880	13.8370
 2.1890	13.8500
 2.1900	13.8650
 2.1910	13.8800
 2.1920	13.8960
 2.1930	13.9140
 2.1940	13.9290
 2.1950	13.9420
 2.1960	13.9560
 2.1970	13.9690
 2.1980	13.9850
 2.1990	14.0030
 2.2000	14.0180
 2.2010	14.0330
 2.2020	14.0450
 2.2030	14.0520
 2.2040	14.0610
 2.2050	14.0700
 2.2060	14.0800
 2.2070	14.0900
 2.2080	14.1000
 2.2090	14.1100
 2.2100	14.1190
 2.2110	14.1240
 2.2120	14.1270
 2.2130	14.1290
 2.2140	14.1280
 2.2150	14.1270
 2.2160	14.1250
 2.2170	14.1230
 2.2180	14.1220
 2.2190	14.1180
 2.2200	14.1150
 2.2210	14.1100
 2.2220	14.1020
 2.2230	14.0920
 2.2240	14.0810
 2.2250	14.0670
 2.2260	14.0500
 2.2270	14.0320
 2.2280	14.0160
 2.2290	13.9930
 2.2300	13.9660
 2.2310	13.9390
 2.2320	13.9090
 2.2330	13.8800
 2.2340	13.8510
 2.2350	13.8260
 2.2360	13.7940
 2.2370	13.7590
 2.2380	13.7220
 2.2390	13.6810
 2.2400	13.6410
 2.2410	13.6000
 2.2420	13.5560
 2.2430	13.5130
 2.2440	13.4650
 2.2450	13.4130
 2.2460	13.3630
 2.2470	13.3110
 2.2480	13.2610
 2.2490	13.2130
 2.2500	13.1610
 2.2510	13.1050
 2.2520	13.0490
 2.2530	12.9890
 2.2540	12.9280
 2.2550	12.8620
 2.2560	12.8010
 2.2570	12.7410
 2.2580	12.6820
 2.2590	12.6260
 2.2600	12.5680
 2.2610	12.5090
 2.2620	12.4480
 2.2630	12.3920
 2.2640	12.3370
 2.2650	12.2850
 2.2660	12.2350
 2.2670	12.1870
 2.2680	12.1390
 2.2690	12.0950
 2.2700	12.0540
 2.2710	12.0130
 2.2720	11.9750
 2.2730	11.9400
 2.2740	11.9070
 2.2750	11.8780
 2.2760	11.8540
 2.2770	11.8300
 2.2780	11.8070
 2.2790	11.7870
 2.2800	11.7710
 2.2810	11.7540
 2.2820	11.7410
 2.2830	11.7220
 2.2840	11.6990
 2.2850	11.6790
 2.2860	11.6570
 2.2870	11.6340
 2.2880	11.6150
 2.2890	11.5910
 2.2900	11.5610
 2.2910	11.5330
 2.2920	11.5070
 2.2930	11.4770
 2.2940	11.4450
 2.2950	11.4130
 2.2960	11.3730
 2.2970	11.3370
 2.2980	11.3050
 2.2990	11.2720
 2.3000	11.2390
 2.3010	11.2090
 2.3020	11.1800
 2.3030	11.1480
 2.3040	11.1150
 2.3050	11.0840
 2.3060	11.0550
 2.3070	11.0310
 2.3080	11.0080
 2.3090	10.9850
 2.3100	10.9660
 2.3110	10.9510
 2.3120	10.9450
 2.3130	10.9500
 2.3140	10.9500
 2.3150	10.9560
 2.3160	10.9550
 2.3170	10.9490
 2.3180	10.9500
 2.3190	10.9520
 2.3200	10.9520
 2.3210	10.9570
 2.3220	10.9540
 2.3230	10.9470
 2.3240	10.9350
 2.3250	10.9170
 2.3260	10.8980
 2.3270	10.8720
 2.3280	10.8510
 2.3290	10.8350
 2.3300	10.8160
 2.3310	10.7990
 2.3320	10.7790
 2.3330	10.7570
 2.3340	10.7340
 2.3350	10.7100
 2.3360	10.6850
 2.3370	10.6540
 2.3380	10.6320
 2.3390	10.6170
 2.3400	10.6000
 2.3410	10.5910
 2.3420	10.5770
 2.3430	10.5590
 2.3440	10.5390
 2.3450	10.5120
 2.3460	10.4910
 2.3470	10.4750
 2.3480	10.4540
 2.3490	10.4330
 2.3500	10.4160
 2.3510	10.3990
 2.3520	10.3820
 2.3530	10.3670
 2.3540	10.3570
 2.3550	10.3480
 2.3560	10.3310
 2.3570	10.3310
 2.3580	10.3260
 2.3590	10.3120
 2.3600	10.3080
 2.3610	10.2860
 2.3620	10.2710
 2.3630	10.2660
 2.3640	10.2490
 2.3650	10.2390
 2.3660	10.2290
 2.3670	10.2100
 2.3680	10.1910
 2.3690	10.1770
 2.3700	10.1580
 2.3710	10.1360
 2.3720	10.1210
 2.3730	10.1010
 2.3740	10.0760
 2.3750	10.0570
 2.3760	10.0340
 2.3770	10.0140
 2.3780	10.0030
 2.3790	 9.9850
 2.3800	 9.9740
 2.3810	 9.9660
 2.3820	 9.9450
 2.3830	 9.9300
 2.3840	 9.9170
 2.3850	 9.9050
 2.3860	 9.8940
 2.3870	 9.8810
 2.3880	 9.8640
 2.3890	 9.8420
 2.3900	 9.8210
 2.3910	 9.8010
 2.3920	 9.7890
 2.3930	 9.7720
 2.3940	 9.7490
 2.3950	 9.7350
 2.3960	 9.7080
 2.3970	 9.6770
 2.3980	 9.6610
 2.3990	 9.6410
 2.4000	 9.6180
 2.4010	 9.6020
 2.4020	 9.5950
 2.4030	 9.5790
 2.4040	 9.5660
 2.4050	 9.5610
 2.4060	 9.5280
 2.4070	 9.5000
 2.4080	 9.4790
 2.4090	 9.4510
 2.4100	 9.4490
 2.4110	 9.4420
 2.4120	 9.4230
 2.4130	 9.4030
 2.4140	 9.3630
 2.4150	 9.3290
 2.4160	 9.3160
 2.4170	 9.2950
 2.4180	 9.2630
 2.4190	 9.2370
 2.4200	 9.2010
 2.4210	 9.1650
 2.4220	 9.1540
 2.4230	 9.1400
 2.4240	 9.1090
 2.4250	 9.0770
 2.4260	 9.0420
 2.4270	 9.0040
 2.4280	 8.9790
 2.4290	 8.9660
 2.4300	 8.9510
 2.4310	 8.9350
 2.4320	 8.9150
 2.4330	 8.8880
 2.4340	 8.8730
 2.4350	 8.8550
 2.4360	 8.8270
 2.4370	 8.8040
 2.4380	 8.7690
 2.4390	 8.7280
 2.4400	 8.6920
 2.4410	 8.6630
 2.4420	 8.6380
 2.4430	 8.6230
 2.4440	 8.6140
 2.4450	 8.5860
 2.4460	 8.5580
 2.4470	 8.5350
 2.4480	 8.5020
 2.4490	 8.4820
 2.4500	 8.4660
 2.4510	 8.4380
 2.4520	 8.4160
 2.4530	 8.4000
 2.4540	 8.3800
 2.4550	 8.3550
 2.4560	 8.3180
 2.4570	 8.2760
 2.4580	 8.2470
 2.4590	 8.2270
 2.4600	 8.2230
 2.4610	 8.2110
 2.4620	 8.1830
 2.4630	 8.1710
 2.4640	 8.1520
 2.4650	 8.1370
 2.4660	 8.1180
 2.4670	 8.0680
 2.4680	 8.0310
 2.4690	 8.0070
 2.4700	 7.9890
 2.4710	 7.9980
 2.4720	 7.9780
 2.4730	 7.9350
 2.4740	 7.9060
 2.4750	 7.8590
 2.4760	 7.8400
 2.4770	 7.8500
 2.4780	 7.8490
 2.4790	 7.8710
 2.4800	 7.8710
 2.4810	 7.8510
 2.4820	 7.8370
 2.4830	 7.8280
 2.4840	 7.8020
 2.4850	 7.7920
 2.4860	 7.7900
 2.4870	 7.7630
 2.4880	 7.7630
 2.4890	 7.7730
 2.4900	 7.7820
 2.4910	 7.7880
 2.4920	 7.7530
 2.4930	 7.7250
 2.4940	 7.7230
 2.4950	 7.7170
 2.4960	 7.7400
 2.4970	 7.7500
 2.4980	 7.7010
 2.4990	 7.6680
 2.5000	 7.6360
