Name: Quercus lobata 2
Type: vegetation
Class: Tree
Genus: Quercus
Species: lobata
Sample No.: VH283
Owner: UCSB
Wavelength Range: VSWIR
Origin: 34.7146; -120.0588; WGS84
Collection Date: 11/2/2013
Description: Samples were collected as part of the HyspIRI Airborne Campaign. 48 individual plants were sampled in three times in 2013 - spring  summer  and fall. The name of the sample includes a 1  2  or 3 which references a different individual of the species. Samples were taken to JPL and processed within 48 hours of collection. The same leaves were processed in the Nicolet and then measured using the ASD.
Measurement: Bidirectional reflectance
First Column: X
Second Column: Y
X Units: Wavelength (micrometers)
Y Units: Reflectance (percentage)
First X Value: 0.35
Last X Value: 2.5
Number of X Values: 2151
Additional Information: vegetation.tree.quercus.lobata.vswir.vh283.ucsb.asd.ancillary.txt

 0.3500	 7.5220
 0.3510	 7.4720
 0.3520	 7.5360
 0.3530	 7.6320
 0.3540	 7.6560
 0.3550	 7.6520
 0.3560	 7.5100
 0.3570	 7.3600
 0.3580	 7.4070
 0.3590	 7.3780
 0.3600	 7.4100
 0.3610	 7.4920
 0.3620	 7.3540
 0.3630	 7.3450
 0.3640	 7.4330
 0.3650	 7.4930
 0.3660	 7.4760
 0.3670	 7.4670
 0.3680	 7.4650
 0.3690	 7.4150
 0.3700	 7.4610
 0.3710	 7.5120
 0.3720	 7.5160
 0.3730	 7.5470
 0.3740	 7.5810
 0.3750	 7.5810
 0.3760	 7.5300
 0.3770	 7.5220
 0.3780	 7.5380
 0.3790	 7.5590
 0.3800	 7.5730
 0.3810	 7.6140
 0.3820	 7.6660
 0.3830	 7.7010
 0.3840	 7.6890
 0.3850	 7.6430
 0.3860	 7.6620
 0.3870	 7.8170
 0.3880	 7.8220
 0.3890	 7.8200
 0.3900	 7.8580
 0.3910	 7.8600
 0.3920	 7.9320
 0.3930	 8.0310
 0.3940	 8.0990
 0.3950	 8.1300
 0.3960	 8.1210
 0.3970	 8.1190
 0.3980	 8.1780
 0.3990	 8.2500
 0.4000	 8.2980
 0.4010	 8.3290
 0.4020	 8.3950
 0.4030	 8.4840
 0.4040	 8.5480
 0.4050	 8.5580
 0.4060	 8.5910
 0.4070	 8.6560
 0.4080	 8.7300
 0.4090	 8.7780
 0.4100	 8.8470
 0.4110	 8.9200
 0.4120	 8.9790
 0.4130	 9.0130
 0.4140	 9.0720
 0.4150	 9.1450
 0.4160	 9.2040
 0.4170	 9.2540
 0.4180	 9.3030
 0.4190	 9.3550
 0.4200	 9.4120
 0.4210	 9.4530
 0.4220	 9.4890
 0.4230	 9.5310
 0.4240	 9.5770
 0.4250	 9.6260
 0.4260	 9.6750
 0.4270	 9.7240
 0.4280	 9.7810
 0.4290	 9.8140
 0.4300	 9.8290
 0.4310	 9.8780
 0.4320	 9.8970
 0.4330	 9.9090
 0.4340	 9.9470
 0.4350	 9.9700
 0.4360	 9.9910
 0.4370	10.0170
 0.4380	10.0480
 0.4390	10.0770
 0.4400	10.1070
 0.4410	10.1390
 0.4420	10.1620
 0.4430	10.1900
 0.4440	10.2150
 0.4450	10.2300
 0.4460	10.2550
 0.4470	10.2850
 0.4480	10.3130
 0.4490	10.3290
 0.4500	10.3360
 0.4510	10.3480
 0.4520	10.3740
 0.4530	10.3970
 0.4540	10.4100
 0.4550	10.4240
 0.4560	10.4540
 0.4570	10.4660
 0.4580	10.4720
 0.4590	10.4830
 0.4600	10.4900
 0.4610	10.4990
 0.4620	10.5150
 0.4630	10.5390
 0.4640	10.5500
 0.4650	10.5580
 0.4660	10.5650
 0.4670	10.5670
 0.4680	10.5910
 0.4690	10.6070
 0.4700	10.5980
 0.4710	10.6180
 0.4720	10.6340
 0.4730	10.6380
 0.4740	10.6390
 0.4750	10.6470
 0.4760	10.6530
 0.4770	10.6560
 0.4780	10.6740
 0.4790	10.6800
 0.4800	10.6810
 0.4810	10.6920
 0.4820	10.7040
 0.4830	10.7090
 0.4840	10.7110
 0.4850	10.7220
 0.4860	10.7300
 0.4870	10.7360
 0.4880	10.7470
 0.4890	10.7750
 0.4900	10.7930
 0.4910	10.8040
 0.4920	10.8220
 0.4930	10.8390
 0.4940	10.8570
 0.4950	10.8810
 0.4960	10.9190
 0.4970	10.9490
 0.4980	10.9760
 0.4990	11.0090
 0.5000	11.0490
 0.5010	11.0990
 0.5020	11.1530
 0.5030	11.2020
 0.5040	11.2590
 0.5050	11.3280
 0.5060	11.4060
 0.5070	11.4870
 0.5080	11.5760
 0.5090	11.6810
 0.5100	11.8030
 0.5110	11.9320
 0.5120	12.0700
 0.5130	12.2210
 0.5140	12.3860
 0.5150	12.5740
 0.5160	12.7760
 0.5170	12.9840
 0.5180	13.2090
 0.5190	13.4450
 0.5200	13.6910
 0.5210	13.9400
 0.5220	14.1970
 0.5230	14.4510
 0.5240	14.6980
 0.5250	14.9490
 0.5260	15.1860
 0.5270	15.4100
 0.5280	15.6260
 0.5290	15.8290
 0.5300	16.0200
 0.5310	16.1970
 0.5320	16.3530
 0.5330	16.4940
 0.5340	16.6230
 0.5350	16.7420
 0.5360	16.8460
 0.5370	16.9390
 0.5380	17.0210
 0.5390	17.0930
 0.5400	17.1500
 0.5410	17.1990
 0.5420	17.2460
 0.5430	17.2960
 0.5440	17.3500
 0.5450	17.4090
 0.5460	17.4730
 0.5470	17.5460
 0.5480	17.6120
 0.5490	17.6620
 0.5500	17.7010
 0.5510	17.7360
 0.5520	17.7580
 0.5530	17.7600
 0.5540	17.7510
 0.5550	17.7310
 0.5560	17.6980
 0.5570	17.6470
 0.5580	17.5770
 0.5590	17.4960
 0.5600	17.4060
 0.5610	17.3000
 0.5620	17.1850
 0.5630	17.0640
 0.5640	16.9330
 0.5650	16.7950
 0.5660	16.6510
 0.5670	16.4990
 0.5680	16.3330
 0.5690	16.1660
 0.5700	16.0020
 0.5710	15.8450
 0.5720	15.6920
 0.5730	15.5430
 0.5740	15.4040
 0.5750	15.2740
 0.5760	15.1560
 0.5770	15.0410
 0.5780	14.9260
 0.5790	14.8210
 0.5800	14.7270
 0.5810	14.6430
 0.5820	14.5710
 0.5830	14.5050
 0.5840	14.4350
 0.5850	14.3600
 0.5860	14.2940
 0.5870	14.2410
 0.5880	14.1950
 0.5890	14.1480
 0.5900	14.1120
 0.5910	14.0760
 0.5920	14.0420
 0.5930	14.0150
 0.5940	13.9870
 0.5950	13.9610
 0.5960	13.9360
 0.5970	13.9030
 0.5980	13.8680
 0.5990	13.8330
 0.6000	13.8010
 0.6010	13.7730
 0.6020	13.7380
 0.6030	13.6940
 0.6040	13.6490
 0.6050	13.5980
 0.6060	13.5450
 0.6070	13.4910
 0.6080	13.4250
 0.6090	13.3490
 0.6100	13.2640
 0.6110	13.1740
 0.6120	13.1140
 0.6130	13.0690
 0.6140	13.0240
 0.6150	12.9770
 0.6160	12.9290
 0.6170	12.8800
 0.6180	12.8340
 0.6190	12.7950
 0.6200	12.7590
 0.6210	12.7280
 0.6220	12.7060
 0.6230	12.6860
 0.6240	12.6670
 0.6250	12.6530
 0.6260	12.6450
 0.6270	12.6420
 0.6280	12.6390
 0.6290	12.6330
 0.6300	12.6310
 0.6310	12.6290
 0.6320	12.6270
 0.6330	12.6270
 0.6340	12.6140
 0.6350	12.5920
 0.6360	12.5680
 0.6370	12.5370
 0.6380	12.4980
 0.6390	12.4510
 0.6400	12.3980
 0.6410	12.3410
 0.6420	12.2780
 0.6430	12.2170
 0.6440	12.1670
 0.6450	12.1090
 0.6460	12.0480
 0.6470	11.9970
 0.6480	11.9500
 0.6490	11.9130
 0.6500	11.8820
 0.6510	11.8500
 0.6520	11.8260
 0.6530	11.8040
 0.6540	11.7800
 0.6550	11.7550
 0.6560	11.7300
 0.6570	11.7040
 0.6580	11.6780
 0.6590	11.6490
 0.6600	11.6210
 0.6610	11.5960
 0.6620	11.5690
 0.6630	11.5430
 0.6640	11.5210
 0.6650	11.5070
 0.6660	11.4990
 0.6670	11.4930
 0.6680	11.4880
 0.6690	11.4860
 0.6700	11.4920
 0.6710	11.5010
 0.6720	11.5130
 0.6730	11.5280
 0.6740	11.5470
 0.6750	11.5660
 0.6760	11.5820
 0.6770	11.6130
 0.6780	11.6450
 0.6790	11.6760
 0.6800	11.7080
 0.6810	11.7520
 0.6820	11.7960
 0.6830	11.8370
 0.6840	11.8940
 0.6850	11.9570
 0.6860	12.0310
 0.6870	12.1210
 0.6880	12.2300
 0.6890	12.3710
 0.6900	12.5540
 0.6910	12.7860
 0.6920	13.0750
 0.6930	13.4390
 0.6940	13.8870
 0.6950	14.4110
 0.6960	15.0260
 0.6970	15.7380
 0.6980	16.5410
 0.6990	17.4160
 0.7000	18.3660
 0.7010	19.3860
 0.7020	20.4570
 0.7030	21.5580
 0.7040	22.6830
 0.7050	23.8310
 0.7060	25.0010
 0.7070	26.1680
 0.7080	27.3250
 0.7090	28.4810
 0.7100	29.6340
 0.7110	30.7750
 0.7120	31.9030
 0.7130	33.0230
 0.7140	34.1250
 0.7150	35.2080
 0.7160	36.2680
 0.7170	37.3080
 0.7180	38.3210
 0.7190	39.3080
 0.7200	40.2760
 0.7210	41.2180
 0.7220	42.1270
 0.7230	43.0070
 0.7240	43.8700
 0.7250	44.6880
 0.7260	45.4700
 0.7270	46.2280
 0.7280	46.9450
 0.7290	47.6230
 0.7300	48.2760
 0.7310	48.9140
 0.7320	49.5000
 0.7330	50.0530
 0.7340	50.5810
 0.7350	51.0800
 0.7360	51.5480
 0.7370	51.9930
 0.7380	52.4130
 0.7390	52.7830
 0.7400	53.1550
 0.7410	53.5210
 0.7420	53.8470
 0.7430	54.1080
 0.7440	54.3710
 0.7450	54.6400
 0.7460	54.8580
 0.7470	55.0750
 0.7480	55.2790
 0.7490	55.4590
 0.7500	55.6220
 0.7510	55.7740
 0.7520	55.9110
 0.7530	56.0300
 0.7540	56.1420
 0.7550	56.2380
 0.7560	56.3210
 0.7570	56.4060
 0.7580	56.4730
 0.7590	56.5390
 0.7600	56.6100
 0.7610	56.6570
 0.7620	56.7000
 0.7630	56.7420
 0.7640	56.7840
 0.7650	56.8040
 0.7660	56.8240
 0.7670	56.8490
 0.7680	56.8760
 0.7690	56.8850
 0.7700	56.8900
 0.7710	56.9040
 0.7720	56.9340
 0.7730	56.9460
 0.7740	56.9460
 0.7750	56.9510
 0.7760	56.9590
 0.7770	56.9830
 0.7780	56.9990
 0.7790	56.9800
 0.7800	56.9820
 0.7810	56.9810
 0.7820	56.9770
 0.7830	57.0020
 0.7840	57.0200
 0.7850	57.0270
 0.7860	57.0280
 0.7870	57.0300
 0.7880	57.0430
 0.7890	57.0560
 0.7900	57.0590
 0.7910	57.0700
 0.7920	57.0700
 0.7930	57.0650
 0.7940	57.0750
 0.7950	57.0840
 0.7960	57.0970
 0.7970	57.1140
 0.7980	57.1250
 0.7990	57.1300
 0.8000	57.1380
 0.8010	57.1510
 0.8020	57.1650
 0.8030	57.1810
 0.8040	57.1950
 0.8050	57.2000
 0.8060	57.1950
 0.8070	57.2010
 0.8080	57.2170
 0.8090	57.2240
 0.8100	57.2460
 0.8110	57.2630
 0.8120	57.2710
 0.8130	57.2950
 0.8140	57.3070
 0.8150	57.3130
 0.8160	57.3270
 0.8170	57.3480
 0.8180	57.3760
 0.8190	57.3940
 0.8200	57.3900
 0.8210	57.4040
 0.8220	57.4290
 0.8230	57.4480
 0.8240	57.4380
 0.8250	57.4630
 0.8260	57.4960
 0.8270	57.5140
 0.8280	57.5200
 0.8290	57.5470
 0.8300	57.5630
 0.8310	57.5510
 0.8320	57.5720
 0.8330	57.5960
 0.8340	57.6110
 0.8350	57.6170
 0.8360	57.6310
 0.8370	57.6470
 0.8380	57.6710
 0.8390	57.7060
 0.8400	57.7210
 0.8410	57.7300
 0.8420	57.7410
 0.8430	57.7510
 0.8440	57.7840
 0.8450	57.8030
 0.8460	57.7950
 0.8470	57.8270
 0.8480	57.8570
 0.8490	57.8710
 0.8500	57.8650
 0.8510	57.8590
 0.8520	57.8850
 0.8530	57.9270
 0.8540	57.9420
 0.8550	57.9400
 0.8560	57.9370
 0.8570	57.9480
 0.8580	57.9750
 0.8590	57.9780
 0.8600	57.9710
 0.8610	57.9730
 0.8620	57.9970
 0.8630	58.0170
 0.8640	58.0290
 0.8650	58.0380
 0.8660	58.0470
 0.8670	58.0500
 0.8680	58.0510
 0.8690	58.0550
 0.8700	58.0470
 0.8710	58.0410
 0.8720	58.0430
 0.8730	58.0560
 0.8740	58.0780
 0.8750	58.0930
 0.8760	58.0940
 0.8770	58.0850
 0.8780	58.0840
 0.8790	58.0830
 0.8800	58.0890
 0.8810	58.1230
 0.8820	58.1180
 0.8830	58.0990
 0.8840	58.0960
 0.8850	58.1030
 0.8860	58.0970
 0.8870	58.0860
 0.8880	58.0820
 0.8890	58.0780
 0.8900	58.0620
 0.8910	58.0490
 0.8920	58.0580
 0.8930	58.0640
 0.8940	58.0640
 0.8950	58.0640
 0.8960	58.0670
 0.8970	58.0610
 0.8980	58.0520
 0.8990	58.0450
 0.9000	58.0430
 0.9010	58.0410
 0.9020	58.0300
 0.9030	58.0190
 0.9040	58.0270
 0.9050	58.0160
 0.9060	57.9990
 0.9070	57.9950
 0.9080	58.0140
 0.9090	58.0070
 0.9100	57.9860
 0.9110	57.9740
 0.9120	57.9900
 0.9130	57.9800
 0.9140	57.9650
 0.9150	57.9710
 0.9160	57.9670
 0.9170	57.9350
 0.9180	57.9140
 0.9190	57.9440
 0.9200	57.9520
 0.9210	57.9420
 0.9220	57.9240
 0.9230	57.9080
 0.9240	57.9190
 0.9250	57.9130
 0.9260	57.8860
 0.9270	57.8630
 0.9280	57.8470
 0.9290	57.8330
 0.9300	57.8240
 0.9310	57.8290
 0.9320	57.8250
 0.9330	57.8230
 0.9340	57.8140
 0.9350	57.7620
 0.9360	57.7370
 0.9370	57.7330
 0.9380	57.7270
 0.9390	57.6960
 0.9400	57.6650
 0.9410	57.6570
 0.9420	57.6630
 0.9430	57.6320
 0.9440	57.6180
 0.9450	57.6010
 0.9460	57.5610
 0.9470	57.5200
 0.9480	57.4760
 0.9490	57.4450
 0.9500	57.4300
 0.9510	57.3990
 0.9520	57.3550
 0.9530	57.3040
 0.9540	57.2540
 0.9550	57.2070
 0.9560	57.1800
 0.9570	57.1610
 0.9580	57.1250
 0.9590	57.0470
 0.9600	56.9920
 0.9610	56.9580
 0.9620	56.9260
 0.9630	56.9150
 0.9640	56.8880
 0.9650	56.8620
 0.9660	56.8610
 0.9670	56.8480
 0.9680	56.8540
 0.9690	56.8560
 0.9700	56.8290
 0.9710	56.8480
 0.9720	56.8330
 0.9730	56.8050
 0.9740	56.8140
 0.9750	56.8250
 0.9760	56.8270
 0.9770	56.8290
 0.9780	56.8440
 0.9790	56.8510
 0.9800	56.8460
 0.9810	56.8630
 0.9820	56.9200
 0.9830	56.8990
 0.9840	56.9120
 0.9850	56.9370
 0.9860	56.9060
 0.9870	56.9050
 0.9880	56.9300
 0.9890	56.9590
 0.9900	56.9750
 0.9910	57.0100
 0.9920	57.0310
 0.9930	57.0460
 0.9940	57.0820
 0.9950	57.1170
 0.9960	57.1190
 0.9970	57.1110
 0.9980	57.1250
 0.9990	57.1400
 1.0000	57.3650
 1.0010	57.7120
 1.0020	57.9120
 1.0030	57.9350
 1.0040	57.9680
 1.0050	58.0030
 1.0060	58.0240
 1.0070	58.0490
 1.0080	58.0720
 1.0090	58.0920
 1.0100	58.1110
 1.0110	58.1280
 1.0120	58.1500
 1.0130	58.1740
 1.0140	58.1930
 1.0150	58.2100
 1.0160	58.2360
 1.0170	58.2530
 1.0180	58.2690
 1.0190	58.2940
 1.0200	58.3160
 1.0210	58.3380
 1.0220	58.3580
 1.0230	58.3780
 1.0240	58.4010
 1.0250	58.4210
 1.0260	58.4400
 1.0270	58.4580
 1.0280	58.4730
 1.0290	58.4890
 1.0300	58.5040
 1.0310	58.5180
 1.0320	58.5330
 1.0330	58.5500
 1.0340	58.5580
 1.0350	58.5680
 1.0360	58.5790
 1.0370	58.5900
 1.0380	58.6050
 1.0390	58.6260
 1.0400	58.6410
 1.0410	58.6550
 1.0420	58.6680
 1.0430	58.6800
 1.0440	58.6890
 1.0450	58.6920
 1.0460	58.7010
 1.0470	58.7120
 1.0480	58.7210
 1.0490	58.7370
 1.0500	58.7470
 1.0510	58.7490
 1.0520	58.7530
 1.0530	58.7600
 1.0540	58.7660
 1.0550	58.7750
 1.0560	58.7900
 1.0570	58.7960
 1.0580	58.7980
 1.0590	58.8020
 1.0600	58.8010
 1.0610	58.8050
 1.0620	58.8110
 1.0630	58.8180
 1.0640	58.8280
 1.0650	58.8340
 1.0660	58.8400
 1.0670	58.8440
 1.0680	58.8460
 1.0690	58.8440
 1.0700	58.8420
 1.0710	58.8370
 1.0720	58.8370
 1.0730	58.8350
 1.0740	58.8350
 1.0750	58.8380
 1.0760	58.8360
 1.0770	58.8310
 1.0780	58.8270
 1.0790	58.8220
 1.0800	58.8170
 1.0810	58.8120
 1.0820	58.8080
 1.0830	58.8060
 1.0840	58.8010
 1.0850	58.7940
 1.0860	58.7870
 1.0870	58.7790
 1.0880	58.7670
 1.0890	58.7560
 1.0900	58.7430
 1.0910	58.7320
 1.0920	58.7170
 1.0930	58.7070
 1.0940	58.7000
 1.0950	58.6910
 1.0960	58.6880
 1.0970	58.6750
 1.0980	58.6550
 1.0990	58.6380
 1.1000	58.6130
 1.1010	58.5950
 1.1020	58.5840
 1.1030	58.5720
 1.1040	58.5600
 1.1050	58.5450
 1.1060	58.5300
 1.1070	58.5110
 1.1080	58.4940
 1.1090	58.4790
 1.1100	58.4620
 1.1110	58.4410
 1.1120	58.4240
 1.1130	58.4090
 1.1140	58.3910
 1.1150	58.3750
 1.1160	58.3530
 1.1170	58.3260
 1.1180	58.2990
 1.1190	58.2700
 1.1200	58.2390
 1.1210	58.2090
 1.1220	58.1780
 1.1230	58.1440
 1.1240	58.1070
 1.1250	58.0690
 1.1260	58.0300
 1.1270	57.9840
 1.1280	57.9380
 1.1290	57.8820
 1.1300	57.8200
 1.1310	57.7520
 1.1320	57.6770
 1.1330	57.6000
 1.1340	57.5180
 1.1350	57.4320
 1.1360	57.3430
 1.1370	57.2500
 1.1380	57.1520
 1.1390	57.0510
 1.1400	56.9450
 1.1410	56.8340
 1.1420	56.7160
 1.1430	56.5950
 1.1440	56.4750
 1.1450	56.3510
 1.1460	56.2310
 1.1470	56.1100
 1.1480	55.9950
 1.1490	55.8800
 1.1500	55.7750
 1.1510	55.6740
 1.1520	55.5790
 1.1530	55.4900
 1.1540	55.4060
 1.1550	55.3260
 1.1560	55.2530
 1.1570	55.1900
 1.1580	55.1310
 1.1590	55.0830
 1.1600	55.0430
 1.1610	55.0050
 1.1620	54.9760
 1.1630	54.9500
 1.1640	54.9220
 1.1650	54.9030
 1.1660	54.8910
 1.1670	54.8770
 1.1680	54.8660
 1.1690	54.8580
 1.1700	54.8500
 1.1710	54.8420
 1.1720	54.8380
 1.1730	54.8330
 1.1740	54.8270
 1.1750	54.8180
 1.1760	54.8090
 1.1770	54.7990
 1.1780	54.7900
 1.1790	54.7800
 1.1800	54.7700
 1.1810	54.7620
 1.1820	54.7510
 1.1830	54.7400
 1.1840	54.7340
 1.1850	54.7270
 1.1860	54.7190
 1.1870	54.7110
 1.1880	54.7030
 1.1890	54.6930
 1.1900	54.6880
 1.1910	54.6840
 1.1920	54.6830
 1.1930	54.6850
 1.1940	54.6850
 1.1950	54.6870
 1.1960	54.6880
 1.1970	54.6870
 1.1980	54.6900
 1.1990	54.6950
 1.2000	54.6990
 1.2010	54.7060
 1.2020	54.7160
 1.2030	54.7250
 1.2040	54.7360
 1.2050	54.7520
 1.2060	54.7640
 1.2070	54.7790
 1.2080	54.7960
 1.2090	54.8100
 1.2100	54.8280
 1.2110	54.8450
 1.2120	54.8620
 1.2130	54.8800
 1.2140	54.8990
 1.2150	54.9200
 1.2160	54.9420
 1.2170	54.9700
 1.2180	54.9960
 1.2190	55.0210
 1.2200	55.0460
 1.2210	55.0680
 1.2220	55.0890
 1.2230	55.1160
 1.2240	55.1440
 1.2250	55.1710
 1.2260	55.1960
 1.2270	55.2190
 1.2280	55.2420
 1.2290	55.2640
 1.2300	55.2840
 1.2310	55.3020
 1.2320	55.3180
 1.2330	55.3370
 1.2340	55.3560
 1.2350	55.3790
 1.2360	55.4010
 1.2370	55.4220
 1.2380	55.4430
 1.2390	55.4630
 1.2400	55.4810
 1.2410	55.4970
 1.2420	55.5130
 1.2430	55.5260
 1.2440	55.5430
 1.2450	55.5620
 1.2460	55.5770
 1.2470	55.5940
 1.2480	55.6080
 1.2490	55.6220
 1.2500	55.6350
 1.2510	55.6460
 1.2520	55.6550
 1.2530	55.6640
 1.2540	55.6730
 1.2550	55.6820
 1.2560	55.6920
 1.2570	55.7000
 1.2580	55.7030
 1.2590	55.7080
 1.2600	55.7110
 1.2610	55.7150
 1.2620	55.7170
 1.2630	55.7230
 1.2640	55.7280
 1.2650	55.7300
 1.2660	55.7330
 1.2670	55.7380
 1.2680	55.7360
 1.2690	55.7330
 1.2700	55.7330
 1.2710	55.7280
 1.2720	55.7230
 1.2730	55.7210
 1.2740	55.7160
 1.2750	55.7070
 1.2760	55.7010
 1.2770	55.6940
 1.2780	55.6820
 1.2790	55.6700
 1.2800	55.6590
 1.2810	55.6410
 1.2820	55.6270
 1.2830	55.6130
 1.2840	55.5950
 1.2850	55.5800
 1.2860	55.5650
 1.2870	55.5480
 1.2880	55.5280
 1.2890	55.5090
 1.2900	55.4870
 1.2910	55.4620
 1.2920	55.4380
 1.2930	55.4100
 1.2940	55.3820
 1.2950	55.3510
 1.2960	55.3160
 1.2970	55.2820
 1.2980	55.2450
 1.2990	55.2040
 1.3000	55.1610
 1.3010	55.1110
 1.3020	55.0600
 1.3030	55.0120
 1.3040	54.9630
 1.3050	54.9130
 1.3060	54.8590
 1.3070	54.7970
 1.3080	54.7360
 1.3090	54.6700
 1.3100	54.6050
 1.3110	54.5360
 1.3120	54.4580
 1.3130	54.3820
 1.3140	54.3010
 1.3150	54.2160
 1.3160	54.1310
 1.3170	54.0450
 1.3180	53.9550
 1.3190	53.8650
 1.3200	53.7700
 1.3210	53.6680
 1.3220	53.5650
 1.3230	53.4550
 1.3240	53.3410
 1.3250	53.2300
 1.3260	53.1180
 1.3270	53.0030
 1.3280	52.8870
 1.3290	52.7660
 1.3300	52.6410
 1.3310	52.5110
 1.3320	52.3810
 1.3330	52.2540
 1.3340	52.1210
 1.3350	51.9850
 1.3360	51.8470
 1.3370	51.7070
 1.3380	51.5670
 1.3390	51.4280
 1.3400	51.2880
 1.3410	51.1510
 1.3420	51.0160
 1.3430	50.8830
 1.3440	50.7510
 1.3450	50.6200
 1.3460	50.4860
 1.3470	50.3560
 1.3480	50.2270
 1.3490	50.1000
 1.3500	49.9750
 1.3510	49.8510
 1.3520	49.7280
 1.3530	49.6040
 1.3540	49.4790
 1.3550	49.3530
 1.3560	49.2280
 1.3570	49.1040
 1.3580	48.9790
 1.3590	48.8500
 1.3600	48.7170
 1.3610	48.5800
 1.3620	48.4340
 1.3630	48.2850
 1.3640	48.1290
 1.3650	47.9610
 1.3660	47.7900
 1.3670	47.6080
 1.3680	47.4160
 1.3690	47.2160
 1.3700	47.0010
 1.3710	46.7750
 1.3720	46.5360
 1.3730	46.2800
 1.3740	46.0130
 1.3750	45.7300
 1.3760	45.4250
 1.3770	45.1000
 1.3780	44.7470
 1.3790	44.3690
 1.3800	43.9690
 1.3810	43.5390
 1.3820	43.0880
 1.3830	42.6150
 1.3840	42.1180
 1.3850	41.5970
 1.3860	41.0570
 1.3870	40.4890
 1.3880	39.9130
 1.3890	39.3180
 1.3900	38.7070
 1.3910	38.0930
 1.3920	37.4700
 1.3930	36.8400
 1.3940	36.2070
 1.3950	35.5670
 1.3960	34.9290
 1.3970	34.2960
 1.3980	33.6690
 1.3990	33.0610
 1.4000	32.4650
 1.4010	31.8820
 1.4020	31.3210
 1.4030	30.7740
 1.4040	30.2500
 1.4050	29.7500
 1.4060	29.2700
 1.4070	28.8180
 1.4080	28.3920
 1.4090	27.9890
 1.4100	27.6150
 1.4110	27.2640
 1.4120	26.9360
 1.4130	26.6310
 1.4140	26.3480
 1.4150	26.0900
 1.4160	25.8540
 1.4170	25.6370
 1.4180	25.4400
 1.4190	25.2580
 1.4200	25.0890
 1.4210	24.9380
 1.4220	24.8020
 1.4230	24.6820
 1.4240	24.5760
 1.4250	24.4800
 1.4260	24.3970
 1.4270	24.3210
 1.4280	24.2550
 1.4290	24.1980
 1.4300	24.1510
 1.4310	24.1110
 1.4320	24.0800
 1.4330	24.0550
 1.4340	24.0380
 1.4350	24.0240
 1.4360	24.0170
 1.4370	24.0150
 1.4380	24.0160
 1.4390	24.0230
 1.4400	24.0330
 1.4410	24.0460
 1.4420	24.0620
 1.4430	24.0790
 1.4440	24.0980
 1.4450	24.1190
 1.4460	24.1410
 1.4470	24.1650
 1.4480	24.1900
 1.4490	24.2150
 1.4500	24.2410
 1.4510	24.2680
 1.4520	24.2960
 1.4530	24.3270
 1.4540	24.3610
 1.4550	24.3960
 1.4560	24.4320
 1.4570	24.4700
 1.4580	24.5100
 1.4590	24.5550
 1.4600	24.6060
 1.4610	24.6600
 1.4620	24.7180
 1.4630	24.7820
 1.4640	24.8480
 1.4650	24.9220
 1.4660	25.0040
 1.4670	25.0900
 1.4680	25.1840
 1.4690	25.2820
 1.4700	25.3850
 1.4710	25.4930
 1.4720	25.6040
 1.4730	25.7210
 1.4740	25.8430
 1.4750	25.9670
 1.4760	26.0970
 1.4770	26.2280
 1.4780	26.3600
 1.4790	26.4960
 1.4800	26.6320
 1.4810	26.7700
 1.4820	26.9130
 1.4830	27.0570
 1.4840	27.2020
 1.4850	27.3470
 1.4860	27.4900
 1.4870	27.6340
 1.4880	27.7760
 1.4890	27.9200
 1.4900	28.0640
 1.4910	28.2090
 1.4920	28.3550
 1.4930	28.5020
 1.4940	28.6470
 1.4950	28.7940
 1.4960	28.9380
 1.4970	29.0780
 1.4980	29.2210
 1.4990	29.3640
 1.5000	29.5070
 1.5010	29.6530
 1.5020	29.7970
 1.5030	29.9400
 1.5040	30.0820
 1.5050	30.2220
 1.5060	30.3630
 1.5070	30.5030
 1.5080	30.6430
 1.5090	30.7840
 1.5100	30.9240
 1.5110	31.0600
 1.5120	31.1960
 1.5130	31.3290
 1.5140	31.4590
 1.5150	31.5900
 1.5160	31.7190
 1.5170	31.8480
 1.5180	31.9760
 1.5190	32.1010
 1.5200	32.2260
 1.5210	32.3470
 1.5220	32.4670
 1.5230	32.5890
 1.5240	32.7080
 1.5250	32.8270
 1.5260	32.9440
 1.5270	33.0580
 1.5280	33.1720
 1.5290	33.2840
 1.5300	33.3970
 1.5310	33.5090
 1.5320	33.6190
 1.5330	33.7320
 1.5340	33.8410
 1.5350	33.9480
 1.5360	34.0540
 1.5370	34.1560
 1.5380	34.2580
 1.5390	34.3600
 1.5400	34.4610
 1.5410	34.5630
 1.5420	34.6610
 1.5430	34.7560
 1.5440	34.8530
 1.5450	34.9440
 1.5460	35.0380
 1.5470	35.1360
 1.5480	35.2290
 1.5490	35.3230
 1.5500	35.4170
 1.5510	35.5060
 1.5520	35.5970
 1.5530	35.6860
 1.5540	35.7720
 1.5550	35.8590
 1.5560	35.9440
 1.5570	36.0250
 1.5580	36.1060
 1.5590	36.1860
 1.5600	36.2670
 1.5610	36.3460
 1.5620	36.4240
 1.5630	36.5050
 1.5640	36.5830
 1.5650	36.6610
 1.5660	36.7380
 1.5670	36.8120
 1.5680	36.8870
 1.5690	36.9610
 1.5700	37.0340
 1.5710	37.1070
 1.5720	37.1760
 1.5730	37.2450
 1.5740	37.3140
 1.5750	37.3820
 1.5760	37.4520
 1.5770	37.5210
 1.5780	37.5890
 1.5790	37.6570
 1.5800	37.7250
 1.5810	37.7910
 1.5820	37.8590
 1.5830	37.9270
 1.5840	37.9950
 1.5850	38.0630
 1.5860	38.1280
 1.5870	38.1940
 1.5880	38.2550
 1.5890	38.3160
 1.5900	38.3780
 1.5910	38.4390
 1.5920	38.5020
 1.5930	38.5640
 1.5940	38.6230
 1.5950	38.6820
 1.5960	38.7420
 1.5970	38.8020
 1.5980	38.8610
 1.5990	38.9200
 1.6000	38.9790
 1.6010	39.0370
 1.6020	39.0960
 1.6030	39.1550
 1.6040	39.2110
 1.6050	39.2630
 1.6060	39.3170
 1.6070	39.3690
 1.6080	39.4240
 1.6090	39.4790
 1.6100	39.5320
 1.6110	39.5830
 1.6120	39.6330
 1.6130	39.6810
 1.6140	39.7270
 1.6150	39.7740
 1.6160	39.8210
 1.6170	39.8680
 1.6180	39.9160
 1.6190	39.9630
 1.6200	40.0060
 1.6210	40.0460
 1.6220	40.0850
 1.6230	40.1220
 1.6240	40.1590
 1.6250	40.1970
 1.6260	40.2350
 1.6270	40.2730
 1.6280	40.3100
 1.6290	40.3470
 1.6300	40.3840
 1.6310	40.4180
 1.6320	40.4490
 1.6330	40.4790
 1.6340	40.5070
 1.6350	40.5340
 1.6360	40.5620
 1.6370	40.5850
 1.6380	40.6050
 1.6390	40.6240
 1.6400	40.6380
 1.6410	40.6540
 1.6420	40.6710
 1.6430	40.6840
 1.6440	40.7000
 1.6450	40.7050
 1.6460	40.7080
 1.6470	40.7100
 1.6480	40.7080
 1.6490	40.7100
 1.6500	40.7100
 1.6510	40.7060
 1.6520	40.7010
 1.6530	40.6900
 1.6540	40.6780
 1.6550	40.6650
 1.6560	40.6470
 1.6570	40.6300
 1.6580	40.6120
 1.6590	40.5920
 1.6600	40.5780
 1.6610	40.5660
 1.6620	40.5530
 1.6630	40.5420
 1.6640	40.5310
 1.6650	40.5180
 1.6660	40.5080
 1.6670	40.5000
 1.6680	40.4940
 1.6690	40.4920
 1.6700	40.4900
 1.6710	40.4890
 1.6720	40.4860
 1.6730	40.4780
 1.6740	40.4710
 1.6750	40.4620
 1.6760	40.4520
 1.6770	40.4420
 1.6780	40.4280
 1.6790	40.4090
 1.6800	40.3870
 1.6810	40.3580
 1.6820	40.3240
 1.6830	40.2860
 1.6840	40.2450
 1.6850	40.2040
 1.6860	40.1600
 1.6870	40.1180
 1.6880	40.0740
 1.6890	40.0220
 1.6900	39.9740
 1.6910	39.9210
 1.6920	39.8720
 1.6930	39.8280
 1.6940	39.7820
 1.6950	39.7370
 1.6960	39.6910
 1.6970	39.6440
 1.6980	39.5970
 1.6990	39.5470
 1.7000	39.4990
 1.7010	39.4500
 1.7020	39.4010
 1.7030	39.3540
 1.7040	39.3030
 1.7050	39.2500
 1.7060	39.1940
 1.7070	39.1340
 1.7080	39.0760
 1.7090	39.0180
 1.7100	38.9620
 1.7110	38.9080
 1.7120	38.8530
 1.7130	38.8030
 1.7140	38.7480
 1.7150	38.6920
 1.7160	38.6410
 1.7170	38.5890
 1.7180	38.5390
 1.7190	38.4940
 1.7200	38.4450
 1.7210	38.3960
 1.7220	38.3510
 1.7230	38.3080
 1.7240	38.2660
 1.7250	38.2210
 1.7260	38.1770
 1.7270	38.1350
 1.7280	38.0950
 1.7290	38.0600
 1.7300	38.0270
 1.7310	37.9930
 1.7320	37.9580
 1.7330	37.9240
 1.7340	37.8900
 1.7350	37.8520
 1.7360	37.8150
 1.7370	37.7740
 1.7380	37.7300
 1.7390	37.6840
 1.7400	37.6350
 1.7410	37.5860
 1.7420	37.5360
 1.7430	37.4840
 1.7440	37.4330
 1.7450	37.3790
 1.7460	37.3210
 1.7470	37.2640
 1.7480	37.2060
 1.7490	37.1480
 1.7500	37.0930
 1.7510	37.0360
 1.7520	36.9770
 1.7530	36.9190
 1.7540	36.8630
 1.7550	36.8030
 1.7560	36.7470
 1.7570	36.6950
 1.7580	36.6430
 1.7590	36.5960
 1.7600	36.5500
 1.7610	36.4940
 1.7620	36.4430
 1.7630	36.3900
 1.7640	36.3390
 1.7650	36.2910
 1.7660	36.2430
 1.7670	36.1930
 1.7680	36.1490
 1.7690	36.1080
 1.7700	36.0670
 1.7710	36.0310
 1.7720	35.9940
 1.7730	35.9560
 1.7740	35.9220
 1.7750	35.8900
 1.7760	35.8580
 1.7770	35.8290
 1.7780	35.8000
 1.7790	35.7720
 1.7800	35.7450
 1.7810	35.7180
 1.7820	35.6950
 1.7830	35.6750
 1.7840	35.6540
 1.7850	35.6370
 1.7860	35.6190
 1.7870	35.5990
 1.7880	35.5850
 1.7890	35.5710
 1.7900	35.5570
 1.7910	35.5430
 1.7920	35.5260
 1.7930	35.5140
 1.7940	35.5060
 1.7950	35.4990
 1.7960	35.4940
 1.7970	35.4920
 1.7980	35.4960
 1.7990	35.4970
 1.8000	35.5010
 1.8010	35.5020
 1.8020	35.4990
 1.8030	35.4990
 1.8040	35.4990
 1.8050	35.5020
 1.8060	35.5090
 1.8070	35.5160
 1.8080	35.5270
 1.8090	35.5360
 1.8100	35.5450
 1.8110	35.5460
 1.8120	35.5510
 1.8130	35.5560
 1.8140	35.5570
 1.8150	35.5620
 1.8160	35.5650
 1.8170	35.5650
 1.8180	35.5690
 1.8190	35.5730
 1.8200	35.5750
 1.8210	35.5740
 1.8220	35.5720
 1.8230	35.5680
 1.8240	35.5620
 1.8250	35.5530
 1.8260	35.5440
 1.8270	35.5320
 1.8280	35.5220
 1.8290	35.5120
 1.8300	35.4970
 1.8310	35.4900
 1.8320	35.4610
 1.8330	35.4370
 1.8340	35.4040
 1.8350	35.3660
 1.8360	35.3320
 1.8370	35.2940
 1.8380	35.2500
 1.8390	35.1990
 1.8400	35.1470
 1.8410	35.0820
 1.8420	35.0070
 1.8430	34.9260
 1.8440	34.8430
 1.8450	34.7540
 1.8460	34.6590
 1.8470	34.5550
 1.8480	34.4410
 1.8490	34.3140
 1.8500	34.1750
 1.8510	34.0220
 1.8520	33.8610
 1.8530	33.6880
 1.8540	33.5040
 1.8550	33.3050
 1.8560	33.0930
 1.8570	32.8640
 1.8580	32.6140
 1.8590	32.3510
 1.8600	32.0740
 1.8610	31.7820
 1.8620	31.4700
 1.8630	31.1480
 1.8640	30.8070
 1.8650	30.4450
 1.8660	30.0640
 1.8670	29.6570
 1.8680	29.2300
 1.8690	28.7830
 1.8700	28.3140
 1.8710	27.8250
 1.8720	27.3200
 1.8730	26.7950
 1.8740	26.2540
 1.8750	25.6980
 1.8760	25.1290
 1.8770	24.5550
 1.8780	23.9760
 1.8790	23.3930
 1.8800	22.8170
 1.8810	22.2440
 1.8820	21.6700
 1.8830	21.0980
 1.8840	20.5320
 1.8850	19.9710
 1.8860	19.4180
 1.8870	18.8830
 1.8880	18.3620
 1.8890	17.8600
 1.8900	17.3830
 1.8910	16.9270
 1.8920	16.4870
 1.8930	16.0750
 1.8940	15.6880
 1.8950	15.3280
 1.8960	14.9930
 1.8970	14.6810
 1.8980	14.3970
 1.8990	14.1370
 1.9000	13.8980
 1.9010	13.6880
 1.9020	13.4920
 1.9030	13.3170
 1.9040	13.1540
 1.9050	13.0080
 1.9060	12.8830
 1.9070	12.7720
 1.9080	12.6760
 1.9090	12.5970
 1.9100	12.5260
 1.9110	12.4620
 1.9120	12.4100
 1.9130	12.3620
 1.9140	12.3210
 1.9150	12.2840
 1.9160	12.2550
 1.9170	12.2330
 1.9180	12.2140
 1.9190	12.2000
 1.9200	12.1890
 1.9210	12.1800
 1.9220	12.1750
 1.9230	12.1720
 1.9240	12.1740
 1.9250	12.1800
 1.9260	12.1890
 1.9270	12.2000
 1.9280	12.2100
 1.9290	12.2210
 1.9300	12.2350
 1.9310	12.2530
 1.9320	12.2780
 1.9330	12.3010
 1.9340	12.3280
 1.9350	12.3550
 1.9360	12.3820
 1.9370	12.4120
 1.9380	12.4450
 1.9390	12.4800
 1.9400	12.5130
 1.9410	12.5510
 1.9420	12.5880
 1.9430	12.6250
 1.9440	12.6640
 1.9450	12.7050
 1.9460	12.7440
 1.9470	12.7830
 1.9480	12.8250
 1.9490	12.8660
 1.9500	12.9110
 1.9510	12.9590
 1.9520	13.0060
 1.9530	13.0540
 1.9540	13.1050
 1.9550	13.1580
 1.9560	13.2170
 1.9570	13.2700
 1.9580	13.3180
 1.9590	13.3720
 1.9600	13.4230
 1.9610	13.4770
 1.9620	13.5350
 1.9630	13.5980
 1.9640	13.6570
 1.9650	13.7180
 1.9660	13.7830
 1.9670	13.8470
 1.9680	13.9110
 1.9690	13.9730
 1.9700	14.0380
 1.9710	14.1040
 1.9720	14.1730
 1.9730	14.2460
 1.9740	14.3160
 1.9750	14.3850
 1.9760	14.4540
 1.9770	14.5220
 1.9780	14.5960
 1.9790	14.6730
 1.9800	14.7550
 1.9810	14.8350
 1.9820	14.9170
 1.9830	14.9990
 1.9840	15.0800
 1.9850	15.1610
 1.9860	15.2410
 1.9870	15.3200
 1.9880	15.4000
 1.9890	15.4770
 1.9900	15.5580
 1.9910	15.6390
 1.9920	15.7220
 1.9930	15.8080
 1.9940	15.8950
 1.9950	15.9880
 1.9960	16.0740
 1.9970	16.1570
 1.9980	16.2420
 1.9990	16.3240
 2.0000	16.4070
 2.0010	16.4950
 2.0020	16.5780
 2.0030	16.6570
 2.0040	16.7350
 2.0050	16.8140
 2.0060	16.8910
 2.0070	16.9720
 2.0080	17.0570
 2.0090	17.1400
 2.0100	17.2260
 2.0110	17.3070
 2.0120	17.3840
 2.0130	17.4620
 2.0140	17.5360
 2.0150	17.6090
 2.0160	17.6840
 2.0170	17.7580
 2.0180	17.8300
 2.0190	17.9040
 2.0200	17.9710
 2.0210	18.0340
 2.0220	18.0970
 2.0230	18.1530
 2.0240	18.2140
 2.0250	18.2750
 2.0260	18.3370
 2.0270	18.4030
 2.0280	18.4630
 2.0290	18.5250
 2.0300	18.5860
 2.0310	18.6430
 2.0320	18.6960
 2.0330	18.7490
 2.0340	18.7970
 2.0350	18.8470
 2.0360	18.8980
 2.0370	18.9450
 2.0380	18.9890
 2.0390	19.0330
 2.0400	19.0690
 2.0410	19.1100
 2.0420	19.1530
 2.0430	19.1970
 2.0440	19.2400
 2.0450	19.2880
 2.0460	19.3290
 2.0470	19.3660
 2.0480	19.4040
 2.0490	19.4390
 2.0500	19.4750
 2.0510	19.5110
 2.0520	19.5460
 2.0530	19.5820
 2.0540	19.6180
 2.0550	19.6520
 2.0560	19.6890
 2.0570	19.7290
 2.0580	19.7650
 2.0590	19.8010
 2.0600	19.8370
 2.0610	19.8720
 2.0620	19.9020
 2.0630	19.9370
 2.0640	19.9750
 2.0650	20.0110
 2.0660	20.0470
 2.0670	20.0830
 2.0680	20.1210
 2.0690	20.1560
 2.0700	20.1890
 2.0710	20.2240
 2.0720	20.2580
 2.0730	20.2900
 2.0740	20.3240
 2.0750	20.3610
 2.0760	20.3950
 2.0770	20.4280
 2.0780	20.4640
 2.0790	20.5020
 2.0800	20.5390
 2.0810	20.5800
 2.0820	20.6150
 2.0830	20.6470
 2.0840	20.6790
 2.0850	20.7070
 2.0860	20.7380
 2.0870	20.7710
 2.0880	20.8030
 2.0890	20.8330
 2.0900	20.8630
 2.0910	20.8930
 2.0920	20.9190
 2.0930	20.9500
 2.0940	20.9880
 2.0950	21.0170
 2.0960	21.0410
 2.0970	21.0700
 2.0980	21.0950
 2.0990	21.1220
 2.1000	21.1540
 2.1010	21.1840
 2.1020	21.2100
 2.1030	21.2370
 2.1040	21.2650
 2.1050	21.2910
 2.1060	21.3180
 2.1070	21.3450
 2.1080	21.3730
 2.1090	21.4030
 2.1100	21.4310
 2.1110	21.4600
 2.1120	21.4880
 2.1130	21.5150
 2.1140	21.5440
 2.1150	21.5740
 2.1160	21.6010
 2.1170	21.6270
 2.1180	21.6530
 2.1190	21.6780
 2.1200	21.7030
 2.1210	21.7270
 2.1220	21.7520
 2.1230	21.7760
 2.1240	21.7990
 2.1250	21.8220
 2.1260	21.8460
 2.1270	21.8680
 2.1280	21.8870
 2.1290	21.9100
 2.1300	21.9360
 2.1310	21.9590
 2.1320	21.9830
 2.1330	22.0070
 2.1340	22.0300
 2.1350	22.0510
 2.1360	22.0730
 2.1370	22.0920
 2.1380	22.1030
 2.1390	22.1200
 2.1400	22.1380
 2.1410	22.1600
 2.1420	22.1850
 2.1430	22.2180
 2.1440	22.2410
 2.1450	22.2620
 2.1460	22.2840
 2.1470	22.3000
 2.1480	22.3220
 2.1490	22.3480
 2.1500	22.3720
 2.1510	22.3960
 2.1520	22.4200
 2.1530	22.4460
 2.1540	22.4690
 2.1550	22.4910
 2.1560	22.5140
 2.1570	22.5390
 2.1580	22.5600
 2.1590	22.5840
 2.1600	22.6010
 2.1610	22.6180
 2.1620	22.6340
 2.1630	22.6520
 2.1640	22.6720
 2.1650	22.6900
 2.1660	22.7050
 2.1670	22.7240
 2.1680	22.7410
 2.1690	22.7620
 2.1700	22.7900
 2.1710	22.8110
 2.1720	22.8310
 2.1730	22.8500
 2.1740	22.8630
 2.1750	22.8820
 2.1760	22.9050
 2.1770	22.9260
 2.1780	22.9470
 2.1790	22.9700
 2.1800	22.9930
 2.1810	23.0160
 2.1820	23.0430
 2.1830	23.0690
 2.1840	23.0930
 2.1850	23.1150
 2.1860	23.1370
 2.1870	23.1560
 2.1880	23.1810
 2.1890	23.2100
 2.1900	23.2360
 2.1910	23.2670
 2.1920	23.2920
 2.1930	23.3110
 2.1940	23.3350
 2.1950	23.3590
 2.1960	23.3850
 2.1970	23.4130
 2.1980	23.4400
 2.1990	23.4670
 2.2000	23.4920
 2.2010	23.5160
 2.2020	23.5410
 2.2030	23.5630
 2.2040	23.5880
 2.2050	23.6180
 2.2060	23.6450
 2.2070	23.6650
 2.2080	23.6840
 2.2090	23.7020
 2.2100	23.7110
 2.2110	23.7300
 2.2120	23.7570
 2.2130	23.7770
 2.2140	23.7980
 2.2150	23.8150
 2.2160	23.8280
 2.2170	23.8400
 2.2180	23.8500
 2.2190	23.8580
 2.2200	23.8650
 2.2210	23.8680
 2.2220	23.8640
 2.2230	23.8670
 2.2240	23.8730
 2.2250	23.8720
 2.2260	23.8750
 2.2270	23.8670
 2.2280	23.8480
 2.2290	23.8280
 2.2300	23.8020
 2.2310	23.7780
 2.2320	23.7520
 2.2330	23.7250
 2.2340	23.6960
 2.2350	23.6680
 2.2360	23.6310
 2.2370	23.5860
 2.2380	23.5440
 2.2390	23.5000
 2.2400	23.4510
 2.2410	23.4010
 2.2420	23.3460
 2.2430	23.2790
 2.2440	23.2190
 2.2450	23.1610
 2.2460	23.1000
 2.2470	23.0420
 2.2480	22.9780
 2.2490	22.9080
 2.2500	22.8420
 2.2510	22.7720
 2.2520	22.7090
 2.2530	22.6540
 2.2540	22.5950
 2.2550	22.5410
 2.2560	22.4820
 2.2570	22.4180
 2.2580	22.3560
 2.2590	22.2930
 2.2600	22.2300
 2.2610	22.1690
 2.2620	22.1080
 2.2630	22.0470
 2.2640	21.9890
 2.2650	21.9340
 2.2660	21.8770
 2.2670	21.8230
 2.2680	21.7710
 2.2690	21.7170
 2.2700	21.6640
 2.2710	21.6130
 2.2720	21.5620
 2.2730	21.5130
 2.2740	21.4660
 2.2750	21.4180
 2.2760	21.3680
 2.2770	21.3210
 2.2780	21.2770
 2.2790	21.2270
 2.2800	21.1710
 2.2810	21.1240
 2.2820	21.0780
 2.2830	21.0310
 2.2840	20.9900
 2.2850	20.9440
 2.2860	20.8920
 2.2870	20.8440
 2.2880	20.7970
 2.2890	20.7530
 2.2900	20.7160
 2.2910	20.6720
 2.2920	20.6290
 2.2930	20.5820
 2.2940	20.5280
 2.2950	20.4760
 2.2960	20.4240
 2.2970	20.3730
 2.2980	20.3240
 2.2990	20.2730
 2.3000	20.2270
 2.3010	20.1770
 2.3020	20.1230
 2.3030	20.0720
 2.3040	20.0220
 2.3050	19.9800
 2.3060	19.9400
 2.3070	19.9020
 2.3080	19.8650
 2.3090	19.8210
 2.3100	19.7800
 2.3110	19.7530
 2.3120	19.7290
 2.3130	19.7140
 2.3140	19.6940
 2.3150	19.6800
 2.3160	19.6580
 2.3170	19.6290
 2.3180	19.6060
 2.3190	19.5850
 2.3200	19.5620
 2.3210	19.5410
 2.3220	19.5170
 2.3230	19.4880
 2.3240	19.4610
 2.3250	19.4410
 2.3260	19.4060
 2.3270	19.3640
 2.3280	19.3230
 2.3290	19.2660
 2.3300	19.2240
 2.3310	19.1930
 2.3320	19.1540
 2.3330	19.1190
 2.3340	19.0790
 2.3350	19.0360
 2.3360	18.9910
 2.3370	18.9400
 2.3380	18.8950
 2.3390	18.8470
 2.3400	18.8020
 2.3410	18.7630
 2.3420	18.7220
 2.3430	18.6820
 2.3440	18.6390
 2.3450	18.5920
 2.3460	18.5490
 2.3470	18.5060
 2.3480	18.4660
 2.3490	18.4350
 2.3500	18.3990
 2.3510	18.3560
 2.3520	18.3240
 2.3530	18.2920
 2.3540	18.2710
 2.3550	18.2590
 2.3560	18.2400
 2.3570	18.2160
 2.3580	18.1940
 2.3590	18.1680
 2.3600	18.1390
 2.3610	18.1090
 2.3620	18.0740
 2.3630	18.0400
 2.3640	18.0110
 2.3650	17.9920
 2.3660	17.9670
 2.3670	17.9380
 2.3680	17.9000
 2.3690	17.8550
 2.3700	17.8140
 2.3710	17.7720
 2.3720	17.7450
 2.3730	17.7230
 2.3740	17.6810
 2.3750	17.6400
 2.3760	17.6040
 2.3770	17.5550
 2.3780	17.5070
 2.3790	17.4670
 2.3800	17.4230
 2.3810	17.3940
 2.3820	17.3750
 2.3830	17.3440
 2.3840	17.3050
 2.3850	17.2560
 2.3860	17.1980
 2.3870	17.1500
 2.3880	17.1020
 2.3890	17.0520
 2.3900	17.0160
 2.3910	16.9820
 2.3920	16.9490
 2.3930	16.9190
 2.3940	16.8640
 2.3950	16.8100
 2.3960	16.7700
 2.3970	16.7060
 2.3980	16.6530
 2.3990	16.6090
 2.4000	16.5390
 2.4010	16.4930
 2.4020	16.4620
 2.4030	16.4010
 2.4040	16.3580
 2.4050	16.3150
 2.4060	16.2500
 2.4070	16.1960
 2.4080	16.1560
 2.4090	16.1130
 2.4100	16.0780
 2.4110	16.0490
 2.4120	16.0000
 2.4130	15.9380
 2.4140	15.8750
 2.4150	15.8280
 2.4160	15.7890
 2.4170	15.7460
 2.4180	15.7130
 2.4190	15.6620
 2.4200	15.6030
 2.4210	15.5480
 2.4220	15.4810
 2.4230	15.4190
 2.4240	15.3710
 2.4250	15.3290
 2.4260	15.2840
 2.4270	15.2350
 2.4280	15.1690
 2.4290	15.0800
 2.4300	15.0200
 2.4310	14.9700
 2.4320	14.8990
 2.4330	14.8650
 2.4340	14.8470
 2.4350	14.8030
 2.4360	14.7660
 2.4370	14.7310
 2.4380	14.6610
 2.4390	14.6040
 2.4400	14.5580
 2.4410	14.4870
 2.4420	14.4340
 2.4430	14.3880
 2.4440	14.3310
 2.4450	14.2850
 2.4460	14.2420
 2.4470	14.1960
 2.4480	14.1730
 2.4490	14.1560
 2.4500	14.1220
 2.4510	14.0700
 2.4520	14.0130
 2.4530	13.9680
 2.4540	13.9210
 2.4550	13.8720
 2.4560	13.8300
 2.4570	13.7940
 2.4580	13.7510
 2.4590	13.7110
 2.4600	13.6450
 2.4610	13.5590
 2.4620	13.4930
 2.4630	13.4150
 2.4640	13.3670
 2.4650	13.3510
 2.4660	13.3390
 2.4670	13.3310
 2.4680	13.3410
 2.4690	13.3760
 2.4700	13.3380
 2.4710	13.2660
 2.4720	13.2340
 2.4730	13.1530
 2.4740	13.1100
 2.4750	13.1610
 2.4760	13.1420
 2.4770	13.0630
 2.4780	13.0200
 2.4790	12.9720
 2.4800	12.9380
 2.4810	12.9240
 2.4820	12.9450
 2.4830	12.9430
 2.4840	12.9020
 2.4850	12.9010
 2.4860	12.9200
 2.4870	12.8800
 2.4880	12.8580
 2.4890	12.8610
 2.4900	12.8200
 2.4910	12.7900
 2.4920	12.8010
 2.4930	12.8250
 2.4940	12.8130
 2.4950	12.8360
 2.4960	12.8690
 2.4970	12.7930
 2.4980	12.7050
 2.4990	12.6650
 2.5000	12.5970
