Name: Umbellularia californica 2
Type: vegetation
Class: Shrub
Genus: Umbellularia
Species: californica
Sample No.: VH028
Owner: UCSB
Wavelength Range: TIR
Origin: 34.5074; -119.7632; WGS84
Collection Date: 4/1/2013
Description: Samples were collected as part of the HyspIRI Airborne Campaign. 48 individual plants were sampled in three times in 2013 - spring  summer  and fall. The name of the sample includes a 1  2  or 3 which references a different individual of the species. Samples were taken to JPL and processed within 48 hours of collection. The same leaves were processed in the Nicolet and then measured using the ASD.
Measurement: Hemispherical reflectance
First Column: X
Second Column: Y
X Units: Wavelength (micrometers)
Y Units: Reflectance (percentage)
First X Value: 2.501
Last X Value: 15.387
Number of X Values: 1737
Additional Information: vegetation.shrub.umbellularia.californica.tir.vh028.ucsb.nicolet.ancillary.txt

 2.5010	 8.0050
 2.5030	 7.9690
 2.5040	 7.8760
 2.5050	 7.8070
 2.5060	 7.8560
 2.5070	 7.8030
 2.5090	 7.8200
 2.5100	 7.7860
 2.5110	 7.8980
 2.5120	 7.9100
 2.5140	 7.8980
 2.5150	 7.9290
 2.5160	 7.9310
 2.5170	 7.8610
 2.5180	 7.8320
 2.5200	 7.7970
 2.5210	 7.8610
 2.5220	 7.7710
 2.5230	 7.8420
 2.5250	 7.7960
 2.5260	 7.8770
 2.5270	 7.8200
 2.5280	 7.7060
 2.5290	 7.7560
 2.5310	 7.8490
 2.5320	 7.7680
 2.5330	 7.8220
 2.5340	 7.8000
 2.5360	 7.6630
 2.5370	 7.5920
 2.5380	 7.7050
 2.5390	 7.7330
 2.5410	 7.8730
 2.5420	 7.8390
 2.5430	 7.7020
 2.5440	 7.6260
 2.5460	 7.7890
 2.5470	 7.8830
 2.5480	 7.8900
 2.5490	 7.8360
 2.5510	 7.8180
 2.5520	 7.8030
 2.5530	 7.8170
 2.5540	 7.7490
 2.5560	 7.8450
 2.5570	 7.9690
 2.5580	 7.9860
 2.5590	 7.9400
 2.5610	 8.0490
 2.5620	 7.9630
 2.5630	 7.8940
 2.5640	 7.9290
 2.5660	 8.0220
 2.5670	 8.0050
 2.5680	 7.9920
 2.5700	 7.9580
 2.5710	 7.9980
 2.5720	 7.9950
 2.5730	 8.0160
 2.5750	 7.9310
 2.5760	 8.0180
 2.5770	 8.0580
 2.5790	 8.0130
 2.5800	 7.9880
 2.5810	 7.9850
 2.5820	 7.8870
 2.5840	 7.8880
 2.5850	 7.9350
 2.5860	 8.0380
 2.5880	 7.9790
 2.5890	 7.9320
 2.5900	 7.8840
 2.5910	 7.8740
 2.5930	 7.8250
 2.5940	 7.9390
 2.5950	 7.9470
 2.5970	 7.9430
 2.5980	 7.8830
 2.5990	 7.8460
 2.6000	 7.8240
 2.6020	 7.7300
 2.6030	 7.6750
 2.6040	 7.7680
 2.6060	 7.7740
 2.6070	 7.7560
 2.6080	 7.7410
 2.6100	 7.7430
 2.6110	 7.6770
 2.6120	 7.6470
 2.6140	 7.6130
 2.6150	 7.6560
 2.6160	 7.5890
 2.6180	 7.4860
 2.6190	 7.3540
 2.6200	 7.4210
 2.6220	 7.3750
 2.6230	 7.4640
 2.6240	 7.4980
 2.6260	 7.4280
 2.6270	 7.3370
 2.6280	 7.2950
 2.6300	 7.2520
 2.6310	 7.2990
 2.6320	 7.1620
 2.6340	 7.1050
 2.6350	 7.1180
 2.6360	 7.0800
 2.6380	 6.9870
 2.6390	 6.9890
 2.6400	 6.9550
 2.6420	 6.9330
 2.6430	 6.8710
 2.6440	 6.8520
 2.6460	 6.8340
 2.6470	 6.8380
 2.6480	 6.7500
 2.6500	 6.7730
 2.6510	 6.7950
 2.6520	 6.7440
 2.6540	 6.6820
 2.6550	 6.7250
 2.6560	 6.6300
 2.6580	 6.6180
 2.6590	 6.5940
 2.6610	 6.5940
 2.6620	 6.5240
 2.6630	 6.4980
 2.6650	 6.4710
 2.6660	 6.4470
 2.6670	 6.4710
 2.6690	 6.4890
 2.6700	 6.4110
 2.6720	 6.4030
 2.6730	 6.4230
 2.6740	 6.4430
 2.6760	 6.3490
 2.6770	 6.2630
 2.6780	 6.2030
 2.6800	 6.2750
 2.6810	 6.2720
 2.6830	 6.2820
 2.6840	 6.1920
 2.6850	 6.0770
 2.6870	 6.0190
 2.6880	 6.0420
 2.6900	 6.0460
 2.6910	 6.0790
 2.6920	 6.0200
 2.6940	 5.9300
 2.6950	 5.8040
 2.6970	 5.8740
 2.6980	 5.9130
 2.6990	 5.8720
 2.7010	 5.8150
 2.7020	 5.8680
 2.7040	 5.7370
 2.7050	 5.6590
 2.7060	 5.6640
 2.7080	 5.6770
 2.7090	 5.6700
 2.7110	 5.7420
 2.7120	 5.6290
 2.7130	 5.5980
 2.7150	 5.5200
 2.7160	 5.5000
 2.7180	 5.5370
 2.7190	 5.6140
 2.7210	 5.4880
 2.7220	 5.5000
 2.7230	 5.4440
 2.7250	 5.4350
 2.7260	 5.4820
 2.7280	 5.4780
 2.7290	 5.4370
 2.7310	 5.5020
 2.7320	 5.4330
 2.7330	 5.4160
 2.7350	 5.4640
 2.7360	 5.5570
 2.7380	 5.5440
 2.7390	 5.5450
 2.7410	 5.4590
 2.7420	 5.4670
 2.7440	 5.4700
 2.7450	 5.4700
 2.7470	 5.4090
 2.7480	 5.5230
 2.7490	 5.5210
 2.7510	 5.5080
 2.7520	 5.4580
 2.7540	 5.4180
 2.7550	 5.2700
 2.7570	 5.2140
 2.7580	 5.2360
 2.7600	 5.3830
 2.7610	 5.3810
 2.7630	 5.2840
 2.7640	 5.3080
 2.7660	 5.3800
 2.7670	 5.3020
 2.7680	 5.3920
 2.7700	 5.4040
 2.7710	 5.3930
 2.7730	 5.2880
 2.7740	 5.2710
 2.7760	 5.3010
 2.7770	 5.3890
 2.7790	 5.4230
 2.7800	 5.4170
 2.7820	 5.2740
 2.7830	 5.3480
 2.7850	 5.3860
 2.7860	 5.4360
 2.7880	 5.2900
 2.7890	 5.2490
 2.7910	 5.3140
 2.7920	 5.4470
 2.7940	 5.3430
 2.7950	 5.2420
 2.7970	 5.2290
 2.7980	 5.3680
 2.8000	 5.3030
 2.8010	 5.3560
 2.8030	 5.3270
 2.8040	 5.3250
 2.8060	 5.4060
 2.8070	 5.4630
 2.8090	 5.3660
 2.8110	 5.2740
 2.8120	 5.2400
 2.8140	 5.2160
 2.8150	 5.1930
 2.8170	 5.2700
 2.8180	 5.2940
 2.8200	 5.3440
 2.8210	 5.2240
 2.8230	 5.2890
 2.8240	 5.2910
 2.8260	 5.1930
 2.8270	 5.1010
 2.8290	 5.1340
 2.8300	 5.0570
 2.8320	 5.1150
 2.8340	 5.2390
 2.8350	 5.3930
 2.8370	 5.3770
 2.8380	 5.3720
 2.8400	 5.2230
 2.8410	 5.2370
 2.8430	 5.2810
 2.8440	 5.2920
 2.8460	 5.2140
 2.8480	 5.2470
 2.8490	 5.3430
 2.8510	 5.4210
 2.8520	 5.2800
 2.8540	 5.2390
 2.8550	 5.1930
 2.8570	 5.1980
 2.8590	 5.2520
 2.8600	 5.3200
 2.8620	 5.2800
 2.8630	 5.3180
 2.8650	 5.3760
 2.8660	 5.3840
 2.8680	 5.2980
 2.8700	 5.2820
 2.8710	 5.2630
 2.8730	 5.3230
 2.8740	 5.2550
 2.8760	 5.3030
 2.8780	 5.3370
 2.8790	 5.3050
 2.8810	 5.2010
 2.8820	 5.3050
 2.8840	 5.1610
 2.8860	 5.1520
 2.8870	 5.2420
 2.8890	 5.3020
 2.8900	 5.3400
 2.8920	 5.4020
 2.8940	 5.2650
 2.8950	 5.3250
 2.8970	 5.3480
 2.8980	 5.2900
 2.9000	 5.1720
 2.9020	 5.1820
 2.9030	 5.1580
 2.9050	 5.2760
 2.9070	 5.2110
 2.9080	 5.1620
 2.9100	 5.1800
 2.9120	 5.2630
 2.9130	 5.1750
 2.9150	 5.1410
 2.9160	 5.2440
 2.9180	 5.4010
 2.9200	 5.2540
 2.9210	 5.2180
 2.9230	 5.2210
 2.9250	 5.2940
 2.9260	 5.2550
 2.9280	 5.2400
 2.9300	 5.2440
 2.9310	 5.2920
 2.9330	 5.2150
 2.9350	 5.2810
 2.9360	 5.2460
 2.9380	 5.3370
 2.9400	 5.3320
 2.9410	 5.3000
 2.9430	 5.2530
 2.9450	 5.2320
 2.9460	 5.2220
 2.9480	 5.3530
 2.9500	 5.3580
 2.9510	 5.2500
 2.9530	 5.3010
 2.9550	 5.5220
 2.9560	 5.3290
 2.9580	 5.0710
 2.9600	 5.0500
 2.9610	 5.0540
 2.9630	 5.1380
 2.9650	 5.4280
 2.9660	 5.4430
 2.9680	 4.9870
 2.9700	 4.3800
 2.9720	 5.2750
 2.9730	 5.6580
 2.9750	 5.0440
 2.9770	 4.8610
 2.9780	 5.1170
 2.9800	 5.3370
 2.9820	 5.6430
 2.9840	 5.7930
 2.9850	 6.2180
 2.9870	 6.0420
 2.9890	 5.2230
 2.9900	 5.0200
 2.9920	 5.3810
 2.9940	 4.6980
 2.9960	 3.9890
 2.9970	 4.6440
 2.9990	 5.5660
 3.0010	 5.7780
 3.0030	 5.9680
 3.0040	 5.7140
 3.0060	 5.3060
 3.0080	 5.3130
 3.0100	 5.3740
 3.0110	 5.4350
 3.0130	 5.4150
 3.0150	 5.4880
 3.0170	 5.2710
 3.0180	 5.0520
 3.0200	 5.3140
 3.0220	 5.8990
 3.0240	 5.8400
 3.0250	 5.4490
 3.0270	 5.6220
 3.0290	 5.3680
 3.0310	 5.2920
 3.0320	 5.1310
 3.0340	 4.7050
 3.0360	 4.3690
 3.0380	 4.8530
 3.0400	 5.8030
 3.0410	 5.5520
 3.0430	 4.8060
 3.0450	 4.9550
 3.0470	 5.1240
 3.0480	 4.9260
 3.0500	 5.3110
 3.0520	 5.8090
 3.0540	 5.7740
 3.0560	 5.5840
 3.0570	 5.1040
 3.0590	 5.1670
 3.0610	 5.7490
 3.0630	 5.7450
 3.0650	 5.3640
 3.0660	 5.3390
 3.0680	 5.3500
 3.0700	 5.2810
 3.0720	 5.1080
 3.0740	 5.2720
 3.0760	 5.3510
 3.0770	 5.2340
 3.0790	 5.0900
 3.0810	 5.2580
 3.0830	 5.4880
 3.0850	 5.4790
 3.0870	 5.3590
 3.0880	 5.3280
 3.0900	 5.4450
 3.0920	 5.5710
 3.0940	 5.3670
 3.0960	 5.1290
 3.0980	 4.9810
 3.0990	 5.1890
 3.1010	 5.3000
 3.1030	 5.3250
 3.1050	 5.3740
 3.1070	 5.3130
 3.1090	 5.1020
 3.1110	 5.1900
 3.1120	 5.2630
 3.1140	 5.3060
 3.1160	 5.2620
 3.1180	 5.1910
 3.1200	 5.2360
 3.1220	 5.2630
 3.1240	 5.0520
 3.1260	 5.2030
 3.1270	 5.3930
 3.1290	 5.3940
 3.1310	 5.2890
 3.1330	 5.2880
 3.1350	 5.2190
 3.1370	 5.1440
 3.1390	 5.1710
 3.1410	 5.3030
 3.1430	 5.0860
 3.1450	 4.9220
 3.1460	 4.9090
 3.1480	 4.9370
 3.1500	 4.7470
 3.1520	 4.9120
 3.1540	 5.2330
 3.1560	 5.2850
 3.1580	 4.8750
 3.1600	 4.8580
 3.1620	 5.4370
 3.1640	 5.8490
 3.1660	 6.0520
 3.1680	 5.5400
 3.1700	 5.0010
 3.1710	 4.9840
 3.1730	 4.7230
 3.1750	 4.1560
 3.1770	 4.6510
 3.1790	 5.5400
 3.1810	 5.1450
 3.1830	 4.5970
 3.1850	 4.6130
 3.1870	 4.5750
 3.1890	 4.8110
 3.1910	 5.0700
 3.1930	 4.8850
 3.1950	 4.9600
 3.1970	 4.9590
 3.1990	 5.1420
 3.2010	 5.3700
 3.2030	 5.3830
 3.2050	 5.1560
 3.2070	 5.1490
 3.2090	 5.1740
 3.2110	 5.0470
 3.2130	 4.9630
 3.2150	 5.0430
 3.2170	 5.0520
 3.2190	 5.0680
 3.2210	 5.0440
 3.2230	 5.1100
 3.2250	 5.1920
 3.2270	 5.1480
 3.2290	 5.0300
 3.2310	 5.1060
 3.2330	 5.1230
 3.2350	 5.0320
 3.2370	 4.9470
 3.2390	 5.0780
 3.2410	 5.0840
 3.2430	 4.9910
 3.2450	 4.8180
 3.2470	 4.8720
 3.2490	 4.9700
 3.2510	 4.8980
 3.2530	 4.8770
 3.2550	 4.9810
 3.2570	 4.9470
 3.2590	 4.9090
 3.2610	 4.9090
 3.2630	 4.9680
 3.2650	 5.0320
 3.2670	 4.9500
 3.2690	 4.8740
 3.2720	 4.8880
 3.2740	 4.8450
 3.2760	 4.9360
 3.2780	 4.9150
 3.2800	 4.8700
 3.2820	 4.8530
 3.2840	 4.8760
 3.2860	 4.7600
 3.2880	 4.7740
 3.2900	 4.8960
 3.2920	 4.9780
 3.2940	 4.9500
 3.2960	 4.9600
 3.2990	 4.8860
 3.3010	 4.8180
 3.3030	 4.7210
 3.3050	 4.7070
 3.3070	 4.7280
 3.3090	 4.7590
 3.3110	 4.6800
 3.3130	 4.6900
 3.3150	 4.6210
 3.3180	 4.6360
 3.3200	 4.6780
 3.3220	 4.7450
 3.3240	 4.7210
 3.3260	 4.6690
 3.3280	 4.5930
 3.3300	 4.6310
 3.3330	 4.5550
 3.3350	 4.5180
 3.3370	 4.4870
 3.3390	 4.5820
 3.3410	 4.5970
 3.3430	 4.5950
 3.3450	 4.5920
 3.3480	 4.5580
 3.3500	 4.4770
 3.3520	 4.4900
 3.3540	 4.4500
 3.3560	 4.3900
 3.3580	 4.3610
 3.3610	 4.2960
 3.3630	 4.2080
 3.3650	 4.2540
 3.3670	 4.2140
 3.3690	 4.1770
 3.3720	 4.1610
 3.3740	 4.2140
 3.3760	 4.2550
 3.3780	 4.2940
 3.3800	 4.2850
 3.3830	 4.3800
 3.3850	 4.4040
 3.3870	 4.3130
 3.3890	 4.2120
 3.3910	 4.2090
 3.3940	 4.1500
 3.3960	 4.0940
 3.3980	 4.0190
 3.4000	 4.0440
 3.4020	 4.0660
 3.4050	 4.1660
 3.4070	 4.3520
 3.4090	 4.5790
 3.4110	 4.7440
 3.4140	 5.1360
 3.4160	 5.7140
 3.4180	 6.5040
 3.4200	 7.5630
 3.4230	 9.0560
 3.4250	10.8790
 3.4270	12.8280
 3.4290	14.0140
 3.4320	13.7530
 3.4340	12.4310
 3.4360	11.1110
 3.4390	10.0340
 3.4410	 9.2960
 3.4430	 8.7510
 3.4450	 8.3940
 3.4480	 8.1440
 3.4500	 8.0660
 3.4520	 7.9250
 3.4550	 7.7280
 3.4570	 7.5670
 3.4590	 7.5150
 3.4620	 7.3950
 3.4640	 7.3350
 3.4660	 7.2020
 3.4680	 7.0150
 3.4710	 6.8390
 3.4730	 6.7040
 3.4750	 6.5160
 3.4780	 6.4060
 3.4800	 6.3060
 3.4820	 6.1950
 3.4850	 5.9250
 3.4870	 5.7500
 3.4890	 5.6790
 3.4920	 5.6440
 3.4940	 5.5420
 3.4970	 5.4430
 3.4990	 5.4290
 3.5010	 5.7010
 3.5040	 6.2120
 3.5060	 7.5050
 3.5080	 9.9050
 3.5110	12.2920
 3.5130	12.7620
 3.5160	11.6640
 3.5180	10.3550
 3.5200	 9.4080
 3.5230	 8.7980
 3.5250	 8.4260
 3.5270	 8.1220
 3.5300	 7.9600
 3.5320	 7.7080
 3.5350	 7.5150
 3.5370	 7.3940
 3.5400	 7.3370
 3.5420	 7.2400
 3.5440	 7.1300
 3.5470	 7.0190
 3.5490	 6.9570
 3.5520	 6.9060
 3.5540	 6.8360
 3.5570	 6.7280
 3.5590	 6.7040
 3.5610	 6.7470
 3.5640	 6.7350
 3.5660	 6.6010
 3.5690	 6.5570
 3.5710	 6.6680
 3.5740	 6.8140
 3.5760	 6.6750
 3.5790	 6.5060
 3.5810	 6.5460
 3.5840	 6.5780
 3.5860	 6.5290
 3.5890	 6.5980
 3.5910	 6.6050
 3.5930	 6.5550
 3.5960	 6.5400
 3.5980	 6.4340
 3.6010	 6.2370
 3.6030	 6.2580
 3.6060	 6.3010
 3.6080	 6.3200
 3.6110	 6.2420
 3.6140	 6.2600
 3.6160	 6.2320
 3.6190	 6.2210
 3.6210	 6.1430
 3.6240	 6.1290
 3.6260	 6.1810
 3.6290	 6.2690
 3.6310	 6.2410
 3.6340	 6.2560
 3.6360	 6.2390
 3.6390	 6.1970
 3.6410	 6.1980
 3.6440	 6.2010
 3.6470	 6.1110
 3.6490	 6.1130
 3.6520	 6.1210
 3.6540	 6.1460
 3.6570	 6.1290
 3.6590	 6.1790
 3.6620	 6.1850
 3.6650	 6.1760
 3.6670	 6.1390
 3.6700	 6.1130
 3.6720	 6.0510
 3.6750	 6.0410
 3.6780	 6.0310
 3.6800	 6.0630
 3.6830	 6.1080
 3.6850	 6.1810
 3.6880	 6.1290
 3.6910	 6.0690
 3.6930	 6.0340
 3.6960	 6.0360
 3.6990	 6.0090
 3.7010	 6.0680
 3.7040	 6.0850
 3.7060	 6.0980
 3.7090	 6.0630
 3.7120	 6.0650
 3.7140	 6.0840
 3.7170	 6.1260
 3.7200	 6.0400
 3.7220	 6.0180
 3.7250	 6.0600
 3.7280	 6.1620
 3.7300	 6.1050
 3.7330	 5.9770
 3.7360	 5.9340
 3.7390	 6.0670
 3.7410	 6.0520
 3.7440	 6.0320
 3.7470	 6.0170
 3.7490	 6.0550
 3.7520	 6.0440
 3.7550	 6.0160
 3.7580	 6.0390
 3.7600	 6.0550
 3.7630	 6.0550
 3.7660	 6.0590
 3.7680	 6.0100
 3.7710	 5.9620
 3.7740	 5.9560
 3.7770	 6.0630
 3.7790	 6.1600
 3.7820	 6.1610
 3.7850	 6.0490
 3.7880	 6.0160
 3.7900	 6.0120
 3.7930	 6.0780
 3.7960	 6.1230
 3.7990	 6.1820
 3.8020	 6.1410
 3.8040	 6.0620
 3.8070	 6.0320
 3.8100	 6.0640
 3.8130	 6.0620
 3.8160	 6.0770
 3.8180	 6.0480
 3.8210	 6.0190
 3.8240	 5.9620
 3.8270	 5.9500
 3.8300	 5.9830
 3.8330	 6.0390
 3.8350	 6.0420
 3.8380	 6.0580
 3.8410	 6.0420
 3.8440	 6.0520
 3.8470	 6.0630
 3.8500	 6.0430
 3.8520	 6.0740
 3.8550	 6.1270
 3.8580	 6.1120
 3.8610	 6.0820
 3.8640	 6.0150
 3.8670	 6.0320
 3.8700	 6.0920
 3.8730	 6.1870
 3.8750	 6.0790
 3.8780	 6.0500
 3.8810	 6.0590
 3.8840	 6.0340
 3.8870	 6.0350
 3.8900	 6.0570
 3.8930	 6.0420
 3.8960	 6.0720
 3.8990	 6.0690
 3.9020	 6.0560
 3.9050	 6.0310
 3.9080	 6.0230
 3.9110	 6.0680
 3.9140	 6.1200
 3.9160	 6.1330
 3.9190	 6.1720
 3.9220	 6.1350
 3.9250	 6.1480
 3.9280	 6.1530
 3.9310	 6.1690
 3.9340	 6.1470
 3.9370	 6.1100
 3.9400	 6.1060
 3.9430	 6.1660
 3.9460	 6.1820
 3.9490	 6.1510
 3.9520	 6.1180
 3.9550	 6.1200
 3.9580	 6.0810
 3.9610	 6.0550
 3.9640	 6.0500
 3.9670	 6.1050
 3.9700	 6.0840
 3.9730	 6.0650
 3.9770	 6.0770
 3.9800	 6.1060
 3.9830	 6.1150
 3.9860	 6.1370
 3.9890	 6.1290
 3.9920	 6.1660
 3.9950	 6.1100
 3.9980	 6.0380
 4.0010	 6.0220
 4.0040	 6.0710
 4.0070	 6.0760
 4.0100	 6.0730
 4.0130	 6.0720
 4.0170	 6.1150
 4.0200	 6.1020
 4.0230	 6.0470
 4.0260	 6.0060
 4.0290	 6.0330
 4.0320	 6.0680
 4.0350	 6.0690
 4.0380	 6.0280
 4.0420	 6.0560
 4.0450	 6.0830
 4.0480	 6.1320
 4.0510	 6.1030
 4.0540	 6.0850
 4.0570	 6.0610
 4.0610	 6.0760
 4.0640	 6.0930
 4.0670	 6.1020
 4.0700	 6.0950
 4.0730	 6.1030
 4.0770	 6.0960
 4.0800	 6.1400
 4.0830	 6.1350
 4.0860	 6.0730
 4.0890	 6.0710
 4.0930	 6.0720
 4.0960	 6.0030
 4.0990	 6.0250
 4.1020	 5.9950
 4.1060	 6.0240
 4.1090	 6.1340
 4.1120	 6.1930
 4.1150	 6.1350
 4.1190	 6.1210
 4.1220	 6.1110
 4.1250	 6.1270
 4.1280	 6.1590
 4.1320	 6.1740
 4.1350	 6.1490
 4.1380	 6.0920
 4.1420	 6.0270
 4.1450	 6.0510
 4.1480	 6.0450
 4.1520	 6.0100
 4.1550	 6.0490
 4.1580	 6.1010
 4.1620	 6.0280
 4.1650	 6.0170
 4.1680	 6.0050
 4.1720	 5.9730
 4.1750	 5.9980
 4.1780	 6.0350
 4.1820	 5.9770
 4.1850	 6.0040
 4.1890	 6.0800
 4.1920	 6.1010
 4.1950	 6.0810
 4.1990	 6.1490
 4.2020	 6.1970
 4.2060	 6.2630
 4.2090	 6.3320
 4.2120	 6.3810
 4.2160	 6.4250
 4.2190	 6.5230
 4.2230	 6.5910
 4.2260	 6.7410
 4.2300	 6.6850
 4.2330	 6.5290
 4.2360	 6.5800
 4.2400	 6.6890
 4.2430	 6.6080
 4.2470	 6.5780
 4.2500	 6.4840
 4.2540	 6.4220
 4.2570	 6.4330
 4.2610	 6.5730
 4.2640	 6.6520
 4.2680	 6.4990
 4.2710	 6.3460
 4.2750	 6.4550
 4.2780	 6.5100
 4.2820	 6.4590
 4.2850	 6.3670
 4.2890	 6.3190
 4.2930	 6.4380
 4.2960	 6.4240
 4.3000	 6.3560
 4.3030	 6.3430
 4.3070	 6.2800
 4.3100	 6.2390
 4.3140	 6.1960
 4.3180	 6.1730
 4.3210	 6.1110
 4.3250	 6.1240
 4.3280	 6.1150
 4.3320	 6.0950
 4.3360	 6.0360
 4.3390	 6.0130
 4.3430	 6.0530
 4.3470	 6.0630
 4.3500	 6.0370
 4.3540	 5.9980
 4.3570	 5.9320
 4.3610	 5.9460
 4.3650	 5.9360
 4.3680	 5.8870
 4.3720	 5.8670
 4.3760	 5.8370
 4.3800	 5.8430
 4.3830	 5.8780
 4.3870	 5.8710
 4.3910	 5.8470
 4.3940	 5.8050
 4.3980	 5.8130
 4.4020	 5.8210
 4.4060	 5.7890
 4.4090	 5.7530
 4.4130	 5.7740
 4.4170	 5.7630
 4.4210	 5.8260
 4.4240	 5.8600
 4.4280	 5.7920
 4.4320	 5.7730
 4.4360	 5.8340
 4.4400	 5.8470
 4.4430	 5.8340
 4.4470	 5.8370
 4.4510	 5.7760
 4.4550	 5.7500
 4.4590	 5.7740
 4.4620	 5.7360
 4.4660	 5.7520
 4.4700	 5.7900
 4.4740	 5.7700
 4.4780	 5.7740
 4.4820	 5.7840
 4.4860	 5.7550
 4.4900	 5.7780
 4.4930	 5.7960
 4.4970	 5.7900
 4.5010	 5.7790
 4.5050	 5.7920
 4.5090	 5.8330
 4.5130	 5.8310
 4.5170	 5.7720
 4.5210	 5.7070
 4.5250	 5.6500
 4.5290	 5.6570
 4.5330	 5.6900
 4.5370	 5.6690
 4.5410	 5.6720
 4.5450	 5.6420
 4.5490	 5.6050
 4.5530	 5.5920
 4.5570	 5.6180
 4.5610	 5.6490
 4.5650	 5.6710
 4.5690	 5.6640
 4.5730	 5.6770
 4.5770	 5.6850
 4.5810	 5.6440
 4.5850	 5.6270
 4.5890	 5.7090
 4.5930	 5.7170
 4.5970	 5.6280
 4.6010	 5.6090
 4.6050	 5.6060
 4.6090	 5.5790
 4.6130	 5.5730
 4.6170	 5.6150
 4.6220	 5.6080
 4.6260	 5.6250
 4.6300	 5.6340
 4.6340	 5.6110
 4.6380	 5.5660
 4.6420	 5.5550
 4.6460	 5.5750
 4.6510	 5.6170
 4.6550	 5.7060
 4.6590	 5.6980
 4.6630	 5.6050
 4.6670	 5.5990
 4.6720	 5.6260
 4.6760	 5.6200
 4.6800	 5.5530
 4.6840	 5.5130
 4.6880	 5.5320
 4.6930	 5.5320
 4.6970	 5.5240
 4.7010	 5.5240
 4.7050	 5.5830
 4.7100	 5.6370
 4.7140	 5.6410
 4.7180	 5.6350
 4.7230	 5.6310
 4.7270	 5.5890
 4.7310	 5.5990
 4.7360	 5.6390
 4.7400	 5.6290
 4.7440	 5.5790
 4.7490	 5.5420
 4.7530	 5.5350
 4.7570	 5.5800
 4.7620	 5.6260
 4.7660	 5.6130
 4.7700	 5.6210
 4.7750	 5.6280
 4.7790	 5.6440
 4.7840	 5.6160
 4.7880	 5.6040
 4.7920	 5.6380
 4.7970	 5.6330
 4.8010	 5.6200
 4.8060	 5.5890
 4.8100	 5.5620
 4.8150	 5.5860
 4.8190	 5.5780
 4.8240	 5.5560
 4.8280	 5.5840
 4.8330	 5.6010
 4.8370	 5.5860
 4.8420	 5.5530
 4.8460	 5.5530
 4.8510	 5.5790
 4.8550	 5.6290
 4.8600	 5.6170
 4.8640	 5.5440
 4.8690	 5.5670
 4.8730	 5.6280
 4.8780	 5.5920
 4.8830	 5.5330
 4.8870	 5.5620
 4.8920	 5.6220
 4.8960	 5.6080
 4.9010	 5.5290
 4.9060	 5.5460
 4.9100	 5.5760
 4.9150	 5.5430
 4.9200	 5.5640
 4.9240	 5.5920
 4.9290	 5.6160
 4.9340	 5.5830
 4.9380	 5.6500
 4.9430	 5.6820
 4.9480	 5.6830
 4.9530	 5.6370
 4.9570	 5.6060
 4.9620	 5.6560
 4.9670	 5.6560
 4.9720	 5.5860
 4.9760	 5.5770
 4.9810	 5.6310
 4.9860	 5.6690
 4.9910	 5.6600
 4.9960	 5.6230
 5.0000	 5.5830
 5.0050	 5.6120
 5.0100	 5.5830
 5.0150	 5.5590
 5.0200	 5.5720
 5.0250	 5.6370
 5.0290	 5.6530
 5.0340	 5.6560
 5.0390	 5.6480
 5.0440	 5.6520
 5.0490	 5.6330
 5.0540	 5.5900
 5.0590	 5.5620
 5.0640	 5.6130
 5.0690	 5.6490
 5.0740	 5.6900
 5.0790	 5.6910
 5.0840	 5.6510
 5.0890	 5.6000
 5.0940	 5.6410
 5.0990	 5.6830
 5.1040	 5.7140
 5.1090	 5.6630
 5.1140	 5.6630
 5.1190	 5.6860
 5.1240	 5.6670
 5.1290	 5.6690
 5.1340	 5.6960
 5.1390	 5.6660
 5.1440	 5.6110
 5.1490	 5.5910
 5.1540	 5.5850
 5.1600	 5.5680
 5.1650	 5.5920
 5.1700	 5.6210
 5.1750	 5.6550
 5.1800	 5.6310
 5.1850	 5.6350
 5.1910	 5.5510
 5.1960	 5.5260
 5.2010	 5.5580
 5.2060	 5.5800
 5.2110	 5.5900
 5.2170	 5.6170
 5.2220	 5.6160
 5.2270	 5.6340
 5.2320	 5.6000
 5.2380	 5.5840
 5.2430	 5.5940
 5.2480	 5.6000
 5.2540	 5.5690
 5.2590	 5.5770
 5.2640	 5.5960
 5.2700	 5.6080
 5.2750	 5.5900
 5.2800	 5.6140
 5.2860	 5.6350
 5.2910	 5.6170
 5.2970	 5.5370
 5.3020	 5.5590
 5.3070	 5.6230
 5.3130	 5.6340
 5.3180	 5.5740
 5.3240	 5.5530
 5.3290	 5.5450
 5.3350	 5.5600
 5.3400	 5.4980
 5.3460	 5.4720
 5.3510	 5.4700
 5.3570	 5.5030
 5.3620	 5.5270
 5.3680	 5.5250
 5.3730	 5.4760
 5.3790	 5.4660
 5.3850	 5.4600
 5.3900	 5.4880
 5.3960	 5.4500
 5.4010	 5.4580
 5.4070	 5.4190
 5.4130	 5.3960
 5.4180	 5.3780
 5.4240	 5.3860
 5.4300	 5.3780
 5.4350	 5.3330
 5.4410	 5.2890
 5.4470	 5.3290
 5.4530	 5.3830
 5.4580	 5.4160
 5.4640	 5.3260
 5.4700	 5.2810
 5.4760	 5.2690
 5.4810	 5.2860
 5.4870	 5.2490
 5.4930	 5.2420
 5.4990	 5.2330
 5.5050	 5.2480
 5.5110	 5.2050
 5.5160	 5.1870
 5.5220	 5.1170
 5.5280	 5.0650
 5.5340	 5.0990
 5.5400	 5.1360
 5.5460	 5.0800
 5.5520	 5.0570
 5.5580	 5.0270
 5.5640	 5.0010
 5.5700	 4.9590
 5.5760	 4.9670
 5.5820	 4.9370
 5.5880	 4.9010
 5.5940	 4.8440
 5.6000	 4.8300
 5.6060	 4.8290
 5.6120	 4.8540
 5.6180	 4.7860
 5.6240	 4.7420
 5.6300	 4.7450
 5.6360	 4.7650
 5.6420	 4.7210
 5.6490	 4.7260
 5.6550	 4.7160
 5.6610	 4.6530
 5.6670	 4.5220
 5.6730	 4.4210
 5.6800	 4.3540
 5.6860	 4.3610
 5.6920	 4.3150
 5.6980	 4.2950
 5.7040	 4.2200
 5.7110	 4.1620
 5.7170	 4.0850
 5.7230	 4.0350
 5.7300	 4.0640
 5.7360	 4.1040
 5.7420	 4.1070
 5.7490	 4.1700
 5.7550	 4.2200
 5.7620	 4.3610
 5.7680	 4.4140
 5.7740	 4.4950
 5.7810	 4.5850
 5.7870	 4.6500
 5.7940	 4.6880
 5.8000	 4.7740
 5.8070	 4.8190
 5.8130	 4.8840
 5.8200	 4.9260
 5.8260	 5.0490
 5.8330	 5.1500
 5.8390	 5.2790
 5.8460	 5.2850
 5.8530	 5.3190
 5.8590	 5.3960
 5.8660	 5.5280
 5.8720	 5.5520
 5.8790	 5.5480
 5.8860	 5.5620
 5.8920	 5.7110
 5.8990	 5.7900
 5.9060	 5.7670
 5.9130	 5.7270
 5.9190	 5.7590
 5.9260	 5.7890
 5.9330	 5.8640
 5.9400	 5.8140
 5.9470	 5.8190
 5.9530	 5.8000
 5.9600	 5.8290
 5.9670	 5.8190
 5.9740	 5.7600
 5.9810	 5.6730
 5.9880	 5.6350
 5.9950	 5.6020
 6.0020	 5.6730
 6.0090	 5.5750
 6.0160	 5.5570
 6.0230	 5.5060
 6.0300	 5.4280
 6.0370	 5.3320
 6.0440	 5.3920
 6.0510	 5.4210
 6.0580	 5.4330
 6.0650	 5.4160
 6.0720	 5.4720
 6.0790	 5.4790
 6.0860	 5.5710
 6.0930	 5.6040
 6.1000	 5.6740
 6.1080	 5.7020
 6.1150	 5.7850
 6.1220	 5.7360
 6.1290	 5.7450
 6.1370	 5.7390
 6.1440	 5.8140
 6.1510	 5.7560
 6.1580	 5.7450
 6.1660	 5.7180
 6.1730	 5.7500
 6.1800	 5.6910
 6.1880	 5.6240
 6.1950	 5.5790
 6.2030	 5.5910
 6.2100	 5.4970
 6.2170	 5.5720
 6.2250	 5.6100
 6.2320	 5.6030
 6.2400	 5.5700
 6.2470	 5.6390
 6.2550	 5.5920
 6.2630	 5.6700
 6.2700	 5.6590
 6.2780	 5.6630
 6.2850	 5.6530
 6.2930	 5.6980
 6.3010	 5.6500
 6.3080	 5.6990
 6.3160	 5.6620
 6.3240	 5.6740
 6.3310	 5.6950
 6.3390	 5.7840
 6.3470	 5.7120
 6.3550	 5.7080
 6.3620	 5.7000
 6.3700	 5.7710
 6.3780	 5.7610
 6.3860	 5.8100
 6.3940	 5.7490
 6.4020	 5.7160
 6.4100	 5.6850
 6.4180	 5.7540
 6.4260	 5.6960
 6.4330	 5.7230
 6.4410	 5.7100
 6.4490	 5.6690
 6.4580	 5.6480
 6.4660	 5.6890
 6.4740	 5.6730
 6.4820	 5.7010
 6.4900	 5.6720
 6.4980	 5.6260
 6.5060	 5.5210
 6.5140	 5.5340
 6.5230	 5.4860
 6.5310	 5.5170
 6.5390	 5.4900
 6.5470	 5.5110
 6.5550	 5.4520
 6.5640	 5.3760
 6.5720	 5.1950
 6.5800	 5.1150
 6.5890	 5.0090
 6.5970	 5.0120
 6.6060	 5.0090
 6.6140	 5.0630
 6.6220	 5.0850
 6.6310	 5.2010
 6.6390	 5.1670
 6.6480	 5.1320
 6.6560	 5.0900
 6.6650	 5.1270
 6.6740	 5.0910
 6.6820	 5.0890
 6.6910	 5.0660
 6.6990	 5.0980
 6.7080	 5.0660
 6.7170	 5.1000
 6.7260	 5.0710
 6.7340	 5.0410
 6.7430	 4.9580
 6.7520	 4.9480
 6.7610	 4.8310
 6.7690	 4.8790
 6.7780	 5.0840
 6.7870	 5.6970
 6.7960	 5.8440
 6.8050	 5.4570
 6.8140	 5.1770
 6.8230	 5.3110
 6.8320	 5.7660
 6.8410	 6.1140
 6.8500	 5.8450
 6.8590	 5.6160
 6.8680	 5.4240
 6.8770	 5.4090
 6.8860	 5.3410
 6.8950	 5.2940
 6.9050	 5.2360
 6.9140	 5.2690
 6.9230	 5.2780
 6.9320	 5.2750
 6.9420	 5.1460
 6.9510	 5.1800
 6.9600	 5.1840
 6.9700	 5.2610
 6.9790	 5.2490
 6.9880	 5.2860
 6.9980	 5.2960
 7.0070	 5.3930
 7.0170	 5.2640
 7.0260	 5.2140
 7.0360	 5.1830
 7.0450	 5.3130
 7.0550	 5.3380
 7.0650	 5.3760
 7.0740	 5.3500
 7.0840	 5.4000
 7.0940	 5.3250
 7.1030	 5.2800
 7.1130	 5.1410
 7.1230	 5.1780
 7.1330	 5.1710
 7.1420	 5.1470
 7.1520	 5.0270
 7.1620	 5.1020
 7.1720	 5.1540
 7.1820	 5.1850
 7.1920	 5.1170
 7.2020	 5.1560
 7.2120	 5.0580
 7.2220	 5.1310
 7.2320	 5.1330
 7.2420	 5.1070
 7.2520	 4.9730
 7.2620	 5.0200
 7.2730	 5.0110
 7.2830	 5.0040
 7.2930	 4.9210
 7.3030	 4.9050
 7.3140	 4.8510
 7.3240	 4.8970
 7.3340	 4.8360
 7.3450	 4.9070
 7.3550	 4.8130
 7.3660	 4.8890
 7.3760	 4.9390
 7.3870	 4.9340
 7.3970	 4.8780
 7.4080	 4.9780
 7.4180	 4.9760
 7.4290	 5.0300
 7.4400	 5.0240
 7.4500	 5.0710
 7.4610	 5.0490
 7.4720	 5.0660
 7.4830	 4.9680
 7.4930	 5.0310
 7.5040	 5.0330
 7.5150	 5.0910
 7.5260	 4.9760
 7.5370	 4.9110
 7.5480	 4.8310
 7.5590	 4.8970
 7.5700	 4.9300
 7.5810	 4.9920
 7.5920	 4.8430
 7.6030	 4.8530
 7.6140	 4.8370
 7.6260	 4.8300
 7.6370	 4.6870
 7.6480	 4.7370
 7.6590	 4.7210
 7.6710	 4.8100
 7.6820	 4.7710
 7.6930	 4.7800
 7.7050	 4.6760
 7.7160	 4.6780
 7.7280	 4.6180
 7.7390	 4.7060
 7.7510	 4.6790
 7.7630	 4.7200
 7.7740	 4.6070
 7.7860	 4.6150
 7.7980	 4.6300
 7.8090	 4.6930
 7.8210	 4.6150
 7.8330	 4.6880
 7.8450	 4.7180
 7.8570	 4.7980
 7.8690	 4.7170
 7.8810	 4.7190
 7.8930	 4.7240
 7.9050	 4.8710
 7.9170	 4.8310
 7.9290	 4.8700
 7.9410	 4.7590
 7.9530	 4.8630
 7.9650	 4.8410
 7.9780	 4.9200
 7.9900	 4.9190
 8.0020	 5.0130
 8.0150	 4.8730
 8.0270	 4.8990
 8.0390	 4.9340
 8.0520	 4.9840
 8.0640	 4.8220
 8.0770	 4.8790
 8.0900	 4.7840
 8.1020	 4.9920
 8.1150	 5.0270
 8.1280	 5.1280
 8.1400	 5.1240
 8.1530	 5.2050
 8.1660	 5.1200
 8.1790	 5.1440
 8.1920	 5.0020
 8.2050	 5.0880
 8.2180	 5.0450
 8.2310	 5.0980
 8.2440	 5.0090
 8.2570	 5.0950
 8.2700	 4.9730
 8.2830	 5.0330
 8.2970	 5.0100
 8.3100	 5.1410
 8.3230	 5.1140
 8.3370	 5.2520
 8.3500	 5.2360
 8.3640	 5.3080
 8.3770	 5.1860
 8.3910	 5.3430
 8.4040	 5.2990
 8.4180	 5.3130
 8.4320	 5.2800
 8.4450	 5.3080
 8.4590	 5.0770
 8.4730	 5.1110
 8.4870	 5.1480
 8.5010	 5.4300
 8.5150	 5.4580
 8.5290	 5.6450
 8.5430	 5.7230
 8.5570	 6.0100
 8.5710	 6.0390
 8.5850	 6.1700
 8.5990	 6.0810
 8.6140	 6.1990
 8.6280	 6.1640
 8.6420	 6.3290
 8.6570	 6.3200
 8.6710	 6.3950
 8.6860	 6.2200
 8.7000	 6.2730
 8.7150	 6.2370
 8.7300	 6.4690
 8.7440	 6.5010
 8.7590	 6.5950
 8.7740	 6.4690
 8.7890	 6.5970
 8.8040	 6.5100
 8.8190	 6.5750
 8.8340	 6.4150
 8.8490	 6.5460
 8.8640	 6.4740
 8.8790	 6.5420
 8.8940	 6.4840
 8.9100	 6.5320
 8.9250	 6.4660
 8.9400	 6.6070
 8.9560	 6.4980
 8.9710	 6.6170
 8.9870	 6.4110
 9.0020	 6.4260
 9.0180	 6.4010
 9.0340	 6.5350
 9.0500	 6.3760
 9.0650	 6.4740
 9.0810	 6.4150
 9.0970	 6.4950
 9.1130	 6.4170
 9.1290	 6.4790
 9.1450	 6.3100
 9.1610	 6.4220
 9.1780	 6.3390
 9.1940	 6.4190
 9.2100	 6.3470
 9.2270	 6.5350
 9.2430	 6.5120
 9.2600	 6.6170
 9.2760	 6.4160
 9.2930	 6.4590
 9.3090	 6.3420
 9.3260	 6.3880
 9.3430	 6.3250
 9.3600	 6.4930
 9.3770	 6.3410
 9.3940	 6.3760
 9.4110	 6.3390
 9.4280	 6.5530
 9.4450	 6.4220
 9.4620	 6.4540
 9.4800	 6.3620
 9.4970	 6.4510
 9.5140	 6.3380
 9.5320	 6.4150
 9.5500	 6.1940
 9.5670	 6.3080
 9.5850	 6.3140
 9.6030	 6.4380
 9.6200	 6.3980
 9.6380	 6.5190
 9.6560	 6.3940
 9.6740	 6.5260
 9.6920	 6.4930
 9.7100	 6.6340
 9.7290	 6.5270
 9.7470	 6.6420
 9.7650	 6.5150
 9.7840	 6.5110
 9.8020	 6.3610
 9.8210	 6.4680
 9.8390	 6.3270
 9.8580	 6.4560
 9.8770	 6.3740
 9.8960	 6.5660
 9.9150	 6.4510
 9.9340	 6.4950
 9.9530	 6.3830
 9.9720	 6.6770
 9.9910	 6.5510
10.0100	 6.4190
10.0300	 6.4050
10.0490	 6.6720
10.0690	 6.5530
10.0880	 6.5980
10.1080	 6.4030
10.1280	 6.5020
10.1480	 6.3780
10.1670	 6.4350
10.1870	 6.3610
10.2070	 6.4560
10.2280	 6.3140
10.2480	 6.3510
10.2680	 6.1840
10.2890	 6.3050
10.3090	 6.2120
10.3300	 6.3260
10.3500	 6.2410
10.3710	 6.3260
10.3920	 6.2740
10.4120	 6.5060
10.4330	 6.3490
10.4540	 6.3840
10.4760	 6.3600
10.4970	 6.4980
10.5180	 6.3240
10.5390	 6.4920
10.5610	 6.4990
10.5820	 6.6810
10.6040	 6.4620
10.6260	 6.3990
10.6480	 6.1920
10.6700	 6.4130
10.6920	 6.3370
10.7140	 6.4370
10.7360	 6.3630
10.7580	 6.4070
10.7800	 6.1260
10.8030	 6.2420
10.8250	 6.0960
10.8480	 6.1710
10.8710	 6.0370
10.8940	 6.1980
10.9170	 6.0990
10.9400	 6.1910
10.9630	 6.0670
10.9860	 6.1670
11.0090	 5.9380
11.0330	 6.0480
11.0560	 5.9440
11.0800	 5.9660
11.1040	 5.5430
11.1270	 5.6330
11.1510	 5.7170
11.1750	 5.8840
11.2000	 5.6570
11.2240	 5.6430
11.2480	 5.4500
11.2730	 5.9350
11.2970	 5.5900
11.3220	 5.1970
11.3470	 5.3170
11.3720	 5.5110
11.3970	 5.4420
11.4220	 5.5500
11.4470	 5.3170
11.4720	 5.4230
11.4980	 5.5000
11.5230	 5.6440
11.5490	 5.3960
11.5750	 5.4820
11.6000	 5.4420
11.6260	 5.5940
11.6530	 5.4000
11.6790	 5.4980
11.7050	 5.4040
11.7320	 5.4560
11.7580	 5.1300
11.7850	 5.2400
11.8120	 5.0850
11.8390	 5.1920
11.8660	 5.0190
11.8930	 5.2080
11.9200	 5.2050
11.9480	 5.4470
11.9760	 5.2550
12.0030	 5.3990
12.0310	 5.3530
12.0590	 5.5000
12.0870	 5.1750
12.1150	 5.3760
12.1440	 5.3300
12.1720	 5.5390
12.2010	 5.3560
12.2300	 5.6510
12.2590	 5.7070
12.2880	 5.8230
12.3170	 5.5750
12.3460	 5.9240
12.3760	 5.8950
12.4050	 6.0420
12.4350	 5.8030
12.4650	 6.0150
12.4950	 5.9070
12.5250	 6.2070
12.5550	 6.1630
12.5860	 6.3050
12.6170	 6.0870
12.6470	 6.1740
12.6780	 5.9650
12.7090	 6.2620
12.7410	 6.1780
12.7720	 6.3940
12.8030	 6.2140
12.8350	 6.3420
12.8670	 6.2230
12.8990	 6.4420
12.9310	 6.2670
12.9640	 6.5870
12.9960	 6.6270
13.0290	 6.7450
13.0610	 6.3370
13.0940	 6.5880
13.1280	 6.5170
13.1610	 6.6460
13.1940	 6.4450
13.2280	 6.9150
13.2620	 6.7920
13.2960	 6.8620
13.3300	 6.5700
13.3640	 6.7870
13.3990	 6.6420
13.4340	 6.9180
13.4690	 6.8220
13.5040	 6.9780
13.5390	 6.6920
13.5740	 6.9870
13.6100	 6.8180
13.6460	 7.1710
13.6820	 7.1500
13.7180	 7.3880
13.7540	 6.9940
13.7910	 7.1130
13.8280	 6.9150
13.8650	 7.5650
13.9020	 7.6040
13.9390	 7.7100
13.9770	 7.2320
14.0150	 7.3050
14.0530	 7.0330
14.0910	 7.3100
14.1290	 7.1380
14.1680	 7.4930
14.2070	 7.1290
14.2460	 7.3920
14.2850	 7.2460
14.3240	 7.4820
14.3640	 7.0910
14.4040	 7.3590
14.4440	 7.0990
14.4840	 7.4080
14.5250	 6.9730
14.5660	 7.3540
14.6070	 7.0860
14.6480	 7.3850
14.6900	 7.0230
14.7310	 7.2340
14.7730	 6.8930
14.8150	 7.4000
14.8580	 6.8950
14.9010	 7.2270
14.9440	 7.1530
14.9870	 7.5110
15.0300	 6.2380
15.0740	 6.6190
15.1180	 6.3440
15.1620	 6.7370
15.2060	 6.2160
15.2510	 6.9480
15.2960	 6.4670
15.3410	 6.9540
15.3870	 6.5480
