Name: Quercus lobata 2
Type: vegetation
Class: Tree
Genus: Quercus
Species: lobata
Sample No.: VH184
Owner: UCSB
Wavelength Range: TIR
Origin: 34.7146; -120.0588; WGS84
Collection Date: 6/9/2013
Description: Samples were collected as part of the HyspIRI Airborne Campaign. 48 individual plants were sampled in three times in 2013 - spring  summer  and fall. The name of the sample includes a 1  2  or 3 which references a different individual of the species. Samples were taken to JPL and processed within 48 hours of collection. The same leaves were processed in the Nicolet and then measured using the ASD.
Measurement: Hemispherical reflectance
First Column: X
Second Column: Y
X Units: Wavelength (micrometers)
Y Units: Reflectance (percentage)
First X Value: 2.501
Last X Value: 15.387
Number of X Values: 1737
Additional Information: vegetation.tree.quercus.lobata.tir.vh184.ucsb.nicolet.ancillary.txt

 2.5010	10.7430
 2.5030	10.7210
 2.5040	10.5870
 2.5050	10.4350
 2.5060	10.5360
 2.5070	10.5250
 2.5090	10.5480
 2.5100	10.3630
 2.5110	10.2400
 2.5120	10.3350
 2.5140	10.4550
 2.5150	10.5140
 2.5160	10.6940
 2.5170	10.5220
 2.5180	10.4060
 2.5200	10.4200
 2.5210	10.3850
 2.5220	10.3380
 2.5230	10.3940
 2.5250	10.3260
 2.5260	10.3020
 2.5270	10.3090
 2.5280	10.3520
 2.5290	10.2710
 2.5310	10.3730
 2.5320	10.3190
 2.5330	10.2620
 2.5340	10.3200
 2.5360	10.4300
 2.5370	10.3290
 2.5380	10.3140
 2.5390	10.2750
 2.5410	10.1840
 2.5420	10.2140
 2.5430	10.3600
 2.5440	10.3810
 2.5460	10.3590
 2.5470	10.4050
 2.5480	10.4010
 2.5490	10.3030
 2.5510	10.3870
 2.5520	10.2890
 2.5530	10.3340
 2.5540	10.4610
 2.5560	10.5120
 2.5570	10.4980
 2.5580	10.4890
 2.5590	10.4750
 2.5610	10.5190
 2.5620	10.4590
 2.5630	10.4320
 2.5640	10.3830
 2.5660	10.3960
 2.5670	10.4290
 2.5680	10.4400
 2.5700	10.3460
 2.5710	10.3920
 2.5720	10.2750
 2.5730	10.2910
 2.5750	10.4690
 2.5760	10.5030
 2.5770	10.4750
 2.5790	10.5440
 2.5800	10.4700
 2.5810	10.4560
 2.5820	10.3860
 2.5840	10.4390
 2.5850	10.4580
 2.5860	10.3760
 2.5880	10.3400
 2.5890	10.4180
 2.5900	10.4980
 2.5910	10.6050
 2.5930	10.4540
 2.5940	10.3940
 2.5950	10.3790
 2.5970	10.4490
 2.5980	10.4070
 2.5990	10.2910
 2.6000	10.2790
 2.6020	10.3580
 2.6030	10.2910
 2.6040	10.2690
 2.6060	10.1730
 2.6070	10.1620
 2.6080	10.1900
 2.6100	10.2230
 2.6110	10.0290
 2.6120	 9.9590
 2.6140	 9.8690
 2.6150	 9.8050
 2.6160	 9.8330
 2.6180	 9.8920
 2.6190	 9.9020
 2.6200	 9.9690
 2.6220	 9.8710
 2.6230	 9.9160
 2.6240	 9.8950
 2.6260	 9.7470
 2.6270	 9.7020
 2.6280	 9.8500
 2.6300	 9.8930
 2.6310	 9.7870
 2.6320	 9.7080
 2.6340	 9.6810
 2.6350	 9.5930
 2.6360	 9.5750
 2.6380	 9.5200
 2.6390	 9.5740
 2.6400	 9.5310
 2.6420	 9.4570
 2.6430	 9.3670
 2.6440	 9.3910
 2.6460	 9.3980
 2.6470	 9.3820
 2.6480	 9.3410
 2.6500	 9.3210
 2.6510	 9.2280
 2.6520	 9.2100
 2.6540	 9.1480
 2.6550	 9.1530
 2.6560	 9.0910
 2.6580	 9.1020
 2.6590	 9.0510
 2.6610	 8.9990
 2.6620	 8.9920
 2.6630	 9.0180
 2.6650	 8.9560
 2.6660	 8.9620
 2.6670	 8.8220
 2.6690	 8.8050
 2.6700	 8.7690
 2.6720	 8.7340
 2.6730	 8.7810
 2.6740	 8.7960
 2.6760	 8.6420
 2.6770	 8.6400
 2.6780	 8.6840
 2.6800	 8.6520
 2.6810	 8.6000
 2.6830	 8.5200
 2.6840	 8.3340
 2.6850	 8.3290
 2.6870	 8.3940
 2.6880	 8.4640
 2.6900	 8.3280
 2.6910	 8.1940
 2.6920	 8.1230
 2.6940	 8.1590
 2.6950	 7.9850
 2.6970	 7.9180
 2.6980	 7.7790
 2.6990	 7.7860
 2.7010	 7.7440
 2.7020	 7.6130
 2.7040	 7.4990
 2.7050	 7.5840
 2.7060	 7.5690
 2.7080	 7.5140
 2.7090	 7.4450
 2.7110	 7.3100
 2.7120	 7.0860
 2.7130	 7.1430
 2.7150	 7.1240
 2.7160	 7.1510
 2.7180	 6.9020
 2.7190	 6.7040
 2.7210	 6.5580
 2.7220	 6.5550
 2.7230	 6.4400
 2.7250	 6.3450
 2.7260	 6.3260
 2.7280	 6.2540
 2.7290	 6.1570
 2.7310	 6.0460
 2.7320	 5.7540
 2.7330	 5.7930
 2.7350	 5.7390
 2.7360	 5.7360
 2.7380	 5.7590
 2.7390	 5.6100
 2.7410	 5.4520
 2.7420	 5.6370
 2.7440	 5.7110
 2.7450	 5.6970
 2.7470	 5.2770
 2.7480	 5.1040
 2.7490	 5.0420
 2.7510	 5.1810
 2.7520	 5.4730
 2.7540	 5.3290
 2.7550	 4.9380
 2.7570	 5.0180
 2.7580	 4.9000
 2.7600	 4.5980
 2.7610	 4.4820
 2.7630	 4.5450
 2.7640	 4.6010
 2.7660	 4.7460
 2.7670	 4.6580
 2.7680	 4.5920
 2.7700	 4.5600
 2.7710	 4.6320
 2.7730	 4.4670
 2.7740	 4.5040
 2.7760	 4.4770
 2.7770	 4.4140
 2.7790	 4.3070
 2.7800	 4.2620
 2.7820	 4.2790
 2.7830	 4.4270
 2.7850	 4.4060
 2.7860	 4.3250
 2.7880	 4.0320
 2.7890	 3.9130
 2.7910	 3.9270
 2.7920	 4.0130
 2.7940	 4.0760
 2.7950	 4.0770
 2.7970	 4.0030
 2.7980	 4.1070
 2.8000	 4.1030
 2.8010	 4.0040
 2.8030	 3.8010
 2.8040	 3.7690
 2.8060	 3.7990
 2.8070	 3.9750
 2.8090	 3.9900
 2.8110	 3.8390
 2.8120	 3.6910
 2.8140	 3.6940
 2.8150	 3.6770
 2.8170	 3.8430
 2.8180	 3.8280
 2.8200	 3.7920
 2.8210	 3.7820
 2.8230	 3.6990
 2.8240	 3.4720
 2.8260	 3.5840
 2.8270	 3.8510
 2.8290	 3.9020
 2.8300	 3.7050
 2.8320	 3.5480
 2.8340	 3.6140
 2.8350	 3.9410
 2.8370	 3.8480
 2.8380	 3.7650
 2.8400	 3.8100
 2.8410	 3.7330
 2.8430	 3.6390
 2.8440	 3.8060
 2.8460	 3.7540
 2.8480	 3.7090
 2.8490	 3.6740
 2.8510	 3.8250
 2.8520	 3.7580
 2.8540	 3.7070
 2.8550	 3.6790
 2.8570	 3.6300
 2.8590	 3.6100
 2.8600	 3.6180
 2.8620	 3.5160
 2.8630	 3.5680
 2.8650	 3.4630
 2.8660	 3.4630
 2.8680	 3.4370
 2.8700	 3.5820
 2.8710	 3.5880
 2.8730	 3.5640
 2.8740	 3.4310
 2.8760	 3.4410
 2.8780	 3.3340
 2.8790	 3.4000
 2.8810	 3.1060
 2.8820	 2.9000
 2.8840	 2.9890
 2.8860	 3.4170
 2.8870	 3.5490
 2.8890	 3.8310
 2.8900	 3.9230
 2.8920	 3.8660
 2.8940	 3.6750
 2.8950	 3.5120
 2.8970	 3.4520
 2.8980	 3.6110
 2.9000	 3.6080
 2.9020	 3.6550
 2.9030	 3.6460
 2.9050	 3.7520
 2.9070	 3.5680
 2.9080	 3.3430
 2.9100	 3.2700
 2.9120	 3.4150
 2.9130	 3.3590
 2.9150	 3.4490
 2.9160	 3.5850
 2.9180	 3.5960
 2.9200	 3.4680
 2.9210	 3.5810
 2.9230	 3.5440
 2.9250	 3.4320
 2.9260	 3.5390
 2.9280	 3.6360
 2.9300	 3.4550
 2.9310	 3.5820
 2.9330	 3.7050
 2.9350	 3.7050
 2.9360	 3.7090
 2.9380	 3.8870
 2.9400	 3.7190
 2.9410	 3.6570
 2.9430	 3.7970
 2.9450	 3.6710
 2.9460	 3.3080
 2.9480	 3.2130
 2.9500	 3.2750
 2.9510	 3.5880
 2.9530	 3.2990
 2.9550	 3.3330
 2.9560	 3.4930
 2.9580	 3.1800
 2.9600	 3.3660
 2.9610	 3.2140
 2.9630	 3.4670
 2.9650	 3.6040
 2.9660	 2.5630
 2.9680	 2.4480
 2.9700	 2.1100
 2.9720	 1.1370
 2.9730	 1.8910
 2.9750	 2.8440
 2.9770	 4.2860
 2.9780	 6.1500
 2.9800	 5.4140
 2.9820	 3.8610
 2.9840	 2.8020
 2.9850	 2.4200
 2.9870	 2.2900
 2.9890	 2.6650
 2.9900	 2.6640
 2.9920	 3.0520
 2.9940	 4.3520
 2.9960	 3.2030
 2.9970	 2.5690
 2.9990	 3.5480
 3.0010	 3.8360
 3.0030	 3.6720
 3.0040	 3.1220
 3.0060	 3.0390
 3.0080	 3.3090
 3.0100	 3.7920
 3.0110	 3.9160
 3.0130	 3.8350
 3.0150	 2.6730
 3.0170	 1.9690
 3.0180	 2.1950
 3.0200	 2.9590
 3.0220	 3.3500
 3.0240	 3.6540
 3.0250	 3.8730
 3.0270	 3.7960
 3.0290	 3.5540
 3.0310	 3.4980
 3.0320	 3.7130
 3.0340	 3.7640
 3.0360	 4.3660
 3.0380	 4.3310
 3.0400	 3.9210
 3.0410	 3.8480
 3.0430	 3.0220
 3.0450	 2.6040
 3.0470	 1.5090
 3.0480	 2.4910
 3.0500	 3.9850
 3.0520	 3.5120
 3.0540	 2.6610
 3.0560	 2.3270
 3.0570	 2.9610
 3.0590	 4.8900
 3.0610	 4.4920
 3.0630	 3.4410
 3.0650	 3.0920
 3.0660	 3.0120
 3.0680	 3.1400
 3.0700	 3.4500
 3.0720	 3.7150
 3.0740	 3.6890
 3.0760	 3.6510
 3.0770	 3.7320
 3.0790	 3.7290
 3.0810	 3.8630
 3.0830	 3.9830
 3.0850	 3.9380
 3.0870	 3.6030
 3.0880	 3.6850
 3.0900	 4.1090
 3.0920	 4.2930
 3.0940	 4.1700
 3.0960	 4.0420
 3.0980	 4.0080
 3.0990	 4.1280
 3.1010	 4.1140
 3.1030	 4.1240
 3.1050	 4.1340
 3.1070	 3.9490
 3.1090	 3.7750
 3.1110	 3.8680
 3.1120	 4.0390
 3.1140	 4.2180
 3.1160	 4.0820
 3.1180	 3.9250
 3.1200	 4.1660
 3.1220	 4.6600
 3.1240	 4.8210
 3.1260	 4.2630
 3.1270	 4.3630
 3.1290	 4.6410
 3.1310	 4.4970
 3.1330	 4.5180
 3.1350	 4.3220
 3.1370	 4.0140
 3.1390	 3.6090
 3.1410	 4.3450
 3.1430	 5.0410
 3.1450	 4.8640
 3.1460	 4.2240
 3.1480	 4.4020
 3.1500	 4.5560
 3.1520	 4.7000
 3.1540	 4.4720
 3.1560	 4.0050
 3.1580	 3.4490
 3.1600	 3.9830
 3.1620	 4.6250
 3.1640	 4.7320
 3.1660	 4.9200
 3.1680	 5.0540
 3.1700	 5.3970
 3.1710	 6.0080
 3.1730	 5.6790
 3.1750	 4.7940
 3.1770	 4.2540
 3.1790	 5.3840
 3.1810	 5.7300
 3.1830	 5.0120
 3.1850	 4.4160
 3.1870	 4.4490
 3.1890	 4.6880
 3.1910	 4.7270
 3.1930	 4.6760
 3.1950	 4.7670
 3.1970	 4.8120
 3.1990	 4.9370
 3.2010	 4.9270
 3.2030	 4.6940
 3.2050	 4.5790
 3.2070	 4.5970
 3.2090	 4.6780
 3.2110	 4.8570
 3.2130	 4.8820
 3.2150	 4.9060
 3.2170	 4.7590
 3.2190	 4.8640
 3.2210	 4.9770
 3.2230	 5.0340
 3.2250	 4.8810
 3.2270	 4.8480
 3.2290	 4.8410
 3.2310	 5.0910
 3.2330	 5.0630
 3.2350	 4.9420
 3.2370	 5.0190
 3.2390	 5.2790
 3.2410	 5.3360
 3.2430	 5.2330
 3.2450	 5.0110
 3.2470	 5.1110
 3.2490	 5.3110
 3.2510	 5.2140
 3.2530	 5.0600
 3.2550	 5.1960
 3.2570	 5.2110
 3.2590	 5.2540
 3.2610	 5.3590
 3.2630	 5.4520
 3.2650	 4.9870
 3.2670	 4.9950
 3.2690	 5.4110
 3.2720	 5.5390
 3.2740	 5.3660
 3.2760	 5.3480
 3.2780	 5.4690
 3.2800	 5.5010
 3.2820	 5.4030
 3.2840	 5.4130
 3.2860	 5.5540
 3.2880	 5.5730
 3.2900	 5.3260
 3.2920	 5.2350
 3.2940	 5.1970
 3.2960	 5.2480
 3.2990	 5.3600
 3.3010	 5.4030
 3.3030	 5.4950
 3.3050	 5.6980
 3.3070	 5.7450
 3.3090	 5.4750
 3.3110	 5.3380
 3.3130	 5.3480
 3.3150	 5.2110
 3.3180	 5.2710
 3.3200	 5.3760
 3.3220	 5.3580
 3.3240	 5.3920
 3.3260	 5.4450
 3.3280	 5.3850
 3.3300	 5.6200
 3.3330	 5.7320
 3.3350	 5.6290
 3.3370	 5.4950
 3.3390	 5.5900
 3.3410	 5.6060
 3.3430	 5.4910
 3.3450	 5.4430
 3.3480	 5.5260
 3.3500	 5.4680
 3.3520	 5.4170
 3.3540	 5.4120
 3.3560	 5.3950
 3.3580	 5.3570
 3.3610	 5.4000
 3.3630	 5.2260
 3.3650	 5.1550
 3.3670	 5.2150
 3.3690	 5.3170
 3.3720	 5.2790
 3.3740	 5.1130
 3.3760	 5.0610
 3.3780	 5.2010
 3.3800	 5.1900
 3.3830	 4.9830
 3.3850	 4.8920
 3.3870	 5.0080
 3.3890	 5.0780
 3.3910	 4.9040
 3.3940	 4.7340
 3.3960	 4.9000
 3.3980	 4.8970
 3.4000	 4.7950
 3.4020	 4.7610
 3.4050	 4.8730
 3.4070	 4.9490
 3.4090	 5.0330
 3.4110	 5.0230
 3.4140	 5.1440
 3.4160	 5.2610
 3.4180	 5.4660
 3.4200	 5.6370
 3.4230	 5.8060
 3.4250	 5.8950
 3.4270	 6.0300
 3.4290	 6.0540
 3.4320	 6.0670
 3.4340	 5.8860
 3.4360	 5.7580
 3.4390	 5.5340
 3.4410	 5.5260
 3.4430	 5.5160
 3.4450	 5.6640
 3.4480	 5.5610
 3.4500	 5.4080
 3.4520	 5.3550
 3.4550	 5.5820
 3.4570	 5.7850
 3.4590	 5.6530
 3.4620	 5.5560
 3.4640	 5.5590
 3.4660	 5.5690
 3.4680	 5.6610
 3.4710	 5.7440
 3.4730	 5.7210
 3.4750	 5.6920
 3.4780	 5.6570
 3.4800	 5.5900
 3.4820	 5.6330
 3.4850	 5.5040
 3.4870	 5.3570
 3.4890	 5.3800
 3.4920	 5.4870
 3.4940	 5.5630
 3.4970	 5.6570
 3.4990	 5.5840
 3.5010	 5.6220
 3.5040	 5.7850
 3.5060	 6.0300
 3.5080	 6.2980
 3.5110	 6.4910
 3.5130	 6.5410
 3.5160	 6.5710
 3.5180	 6.5140
 3.5200	 6.5060
 3.5230	 6.5190
 3.5250	 6.6580
 3.5270	 6.6900
 3.5300	 6.6920
 3.5320	 6.6560
 3.5350	 6.7480
 3.5370	 6.7460
 3.5400	 6.7610
 3.5420	 6.7940
 3.5440	 6.9060
 3.5470	 6.9480
 3.5490	 7.0790
 3.5520	 7.1340
 3.5540	 7.1100
 3.5570	 7.0070
 3.5590	 6.9340
 3.5610	 6.9730
 3.5640	 7.1250
 3.5660	 7.0510
 3.5690	 6.9990
 3.5710	 7.0020
 3.5740	 7.0280
 3.5760	 7.0840
 3.5790	 7.2320
 3.5810	 7.2090
 3.5840	 7.1900
 3.5860	 7.2860
 3.5890	 7.4040
 3.5910	 7.2270
 3.5930	 7.0570
 3.5960	 7.0440
 3.5980	 7.2250
 3.6010	 7.3390
 3.6030	 7.3920
 3.6060	 7.3910
 3.6080	 7.4320
 3.6110	 7.4390
 3.6140	 7.3330
 3.6160	 7.1840
 3.6190	 7.2080
 3.6210	 7.2580
 3.6240	 7.3500
 3.6260	 7.3350
 3.6290	 7.3160
 3.6310	 7.2060
 3.6340	 7.2340
 3.6360	 7.2930
 3.6390	 7.3270
 3.6410	 7.3030
 3.6440	 7.2670
 3.6470	 7.3150
 3.6490	 7.3750
 3.6520	 7.4110
 3.6540	 7.3890
 3.6570	 7.2990
 3.6590	 7.2910
 3.6620	 7.3040
 3.6650	 7.4340
 3.6670	 7.4200
 3.6700	 7.4010
 3.6720	 7.4100
 3.6750	 7.3980
 3.6780	 7.3540
 3.6800	 7.4260
 3.6830	 7.4800
 3.6850	 7.5170
 3.6880	 7.5260
 3.6910	 7.5390
 3.6930	 7.5200
 3.6960	 7.5140
 3.6990	 7.5050
 3.7010	 7.5060
 3.7040	 7.5060
 3.7060	 7.4990
 3.7090	 7.4480
 3.7120	 7.4400
 3.7140	 7.4950
 3.7170	 7.5600
 3.7200	 7.5190
 3.7220	 7.6600
 3.7250	 7.7520
 3.7280	 7.7900
 3.7300	 7.7580
 3.7330	 7.7010
 3.7360	 7.7150
 3.7390	 7.7230
 3.7410	 7.6730
 3.7440	 7.7500
 3.7470	 7.7390
 3.7490	 7.6240
 3.7520	 7.5230
 3.7550	 7.6340
 3.7580	 7.7830
 3.7600	 7.7970
 3.7630	 7.6460
 3.7660	 7.5990
 3.7680	 7.6810
 3.7710	 7.7930
 3.7740	 7.7520
 3.7770	 7.7020
 3.7790	 7.6950
 3.7820	 7.8280
 3.7850	 7.8850
 3.7880	 7.8340
 3.7900	 7.7770
 3.7930	 7.8500
 3.7960	 7.8030
 3.7990	 7.7480
 3.8020	 7.7820
 3.8040	 7.8450
 3.8070	 7.8290
 3.8100	 7.8960
 3.8130	 7.9540
 3.8160	 7.8800
 3.8180	 7.7980
 3.8210	 7.8000
 3.8240	 7.8360
 3.8270	 7.8550
 3.8300	 7.8060
 3.8330	 7.8480
 3.8350	 7.8490
 3.8380	 7.7980
 3.8410	 7.7780
 3.8440	 7.8610
 3.8470	 7.9880
 3.8500	 8.1150
 3.8520	 8.0310
 3.8550	 7.9640
 3.8580	 8.0160
 3.8610	 8.0700
 3.8640	 8.0310
 3.8670	 8.0400
 3.8700	 8.0770
 3.8730	 8.1170
 3.8750	 8.1020
 3.8780	 8.1110
 3.8810	 8.0970
 3.8840	 8.1000
 3.8870	 8.0640
 3.8900	 8.0220
 3.8930	 7.9300
 3.8960	 8.0430
 3.8990	 8.2130
 3.9020	 8.2290
 3.9050	 8.1920
 3.9080	 8.1420
 3.9110	 8.0580
 3.9140	 8.0470
 3.9160	 8.0750
 3.9190	 8.1110
 3.9220	 8.1370
 3.9250	 8.2070
 3.9280	 8.2230
 3.9310	 8.2380
 3.9340	 8.1560
 3.9370	 8.1570
 3.9400	 8.1840
 3.9430	 8.1900
 3.9460	 8.1510
 3.9490	 8.1820
 3.9520	 8.2410
 3.9550	 8.2740
 3.9580	 8.2460
 3.9610	 8.2470
 3.9640	 8.1880
 3.9670	 8.1770
 3.9700	 8.1720
 3.9730	 8.1380
 3.9770	 8.1720
 3.9800	 8.2310
 3.9830	 8.1380
 3.9860	 8.1730
 3.9890	 8.2560
 3.9920	 8.3220
 3.9950	 8.3570
 3.9980	 8.3300
 4.0010	 8.2770
 4.0040	 8.2950
 4.0070	 8.2630
 4.0100	 8.2710
 4.0130	 8.2750
 4.0170	 8.2980
 4.0200	 8.3320
 4.0230	 8.3460
 4.0260	 8.2700
 4.0290	 8.3040
 4.0320	 8.3780
 4.0350	 8.4150
 4.0380	 8.3920
 4.0420	 8.3290
 4.0450	 8.2760
 4.0480	 8.3150
 4.0510	 8.3690
 4.0540	 8.3390
 4.0570	 8.2630
 4.0610	 8.2960
 4.0640	 8.3100
 4.0670	 8.3360
 4.0700	 8.4130
 4.0730	 8.4790
 4.0770	 8.4760
 4.0800	 8.4770
 4.0830	 8.4000
 4.0860	 8.4070
 4.0890	 8.4480
 4.0930	 8.4000
 4.0960	 8.3410
 4.0990	 8.3980
 4.1020	 8.4590
 4.1060	 8.4220
 4.1090	 8.4060
 4.1120	 8.5130
 4.1150	 8.4850
 4.1190	 8.4810
 4.1220	 8.4790
 4.1250	 8.4700
 4.1280	 8.4380
 4.1320	 8.4640
 4.1350	 8.4780
 4.1380	 8.5010
 4.1420	 8.4650
 4.1450	 8.4590
 4.1480	 8.4710
 4.1520	 8.5210
 4.1550	 8.5510
 4.1580	 8.5080
 4.1620	 8.4490
 4.1650	 8.4600
 4.1680	 8.4840
 4.1720	 8.4820
 4.1750	 8.4570
 4.1780	 8.4540
 4.1820	 8.4870
 4.1850	 8.5170
 4.1890	 8.4730
 4.1920	 8.5360
 4.1950	 8.5250
 4.1990	 8.5270
 4.2020	 8.5870
 4.2060	 8.5200
 4.2090	 8.4330
 4.2120	 8.4200
 4.2160	 8.4530
 4.2190	 8.5230
 4.2230	 8.4980
 4.2260	 8.7240
 4.2300	 8.6390
 4.2330	 8.5070
 4.2360	 8.5130
 4.2400	 8.7680
 4.2430	 8.8390
 4.2470	 8.6670
 4.2500	 8.3630
 4.2540	 8.3540
 4.2570	 8.4060
 4.2610	 8.4260
 4.2640	 8.2540
 4.2680	 8.3780
 4.2710	 8.4340
 4.2750	 8.4780
 4.2780	 8.5280
 4.2820	 8.4760
 4.2850	 8.3620
 4.2890	 8.3170
 4.2930	 8.3370
 4.2960	 8.5220
 4.3000	 8.6220
 4.3030	 8.5040
 4.3070	 8.3950
 4.3100	 8.4740
 4.3140	 8.4990
 4.3180	 8.5010
 4.3210	 8.4630
 4.3250	 8.4170
 4.3280	 8.3990
 4.3320	 8.3930
 4.3360	 8.4360
 4.3390	 8.4890
 4.3430	 8.4200
 4.3470	 8.3610
 4.3500	 8.4010
 4.3540	 8.4220
 4.3570	 8.3640
 4.3610	 8.3590
 4.3650	 8.3220
 4.3680	 8.3390
 4.3720	 8.3220
 4.3760	 8.3100
 4.3800	 8.3340
 4.3830	 8.3790
 4.3870	 8.3500
 4.3910	 8.3190
 4.3940	 8.3270
 4.3980	 8.3660
 4.4020	 8.3910
 4.4060	 8.3290
 4.4090	 8.3000
 4.4130	 8.3100
 4.4170	 8.3270
 4.4210	 8.3530
 4.4240	 8.3190
 4.4280	 8.2830
 4.4320	 8.3570
 4.4360	 8.3570
 4.4400	 8.2550
 4.4430	 8.2690
 4.4470	 8.2790
 4.4510	 8.2230
 4.4550	 8.1630
 4.4590	 8.1650
 4.4620	 8.1690
 4.4660	 8.1830
 4.4700	 8.2070
 4.4740	 8.2400
 4.4780	 8.2400
 4.4820	 8.1890
 4.4860	 8.1410
 4.4900	 8.1480
 4.4930	 8.1180
 4.4970	 8.1200
 4.5010	 8.1330
 4.5050	 8.1800
 4.5090	 8.1590
 4.5130	 8.1350
 4.5170	 8.1490
 4.5210	 8.1440
 4.5250	 8.0860
 4.5290	 8.1240
 4.5330	 8.1460
 4.5370	 8.1290
 4.5410	 8.1080
 4.5450	 8.0670
 4.5490	 8.0490
 4.5530	 8.0720
 4.5570	 8.0560
 4.5610	 8.0170
 4.5650	 8.0140
 4.5690	 7.9950
 4.5730	 8.0000
 4.5770	 8.0270
 4.5810	 7.9500
 4.5850	 7.9540
 4.5890	 7.9850
 4.5930	 7.9990
 4.5970	 7.9900
 4.6010	 7.8900
 4.6050	 7.8740
 4.6090	 7.9080
 4.6130	 7.9500
 4.6170	 8.0100
 4.6220	 8.0460
 4.6260	 8.0420
 4.6300	 8.0030
 4.6340	 7.9750
 4.6380	 7.9380
 4.6420	 7.8980
 4.6460	 7.8510
 4.6510	 7.8540
 4.6550	 7.8230
 4.6590	 7.8130
 4.6630	 7.8710
 4.6670	 7.8510
 4.6720	 7.8500
 4.6760	 7.9220
 4.6800	 7.8980
 4.6840	 7.8500
 4.6880	 7.8390
 4.6930	 7.7960
 4.6970	 7.8180
 4.7010	 7.8310
 4.7050	 7.7900
 4.7100	 7.8180
 4.7140	 7.8710
 4.7180	 7.8550
 4.7230	 7.8350
 4.7270	 7.8420
 4.7310	 7.8280
 4.7360	 7.8190
 4.7400	 7.7420
 4.7440	 7.7400
 4.7490	 7.7840
 4.7530	 7.8510
 4.7570	 7.8280
 4.7620	 7.7950
 4.7660	 7.7650
 4.7700	 7.6560
 4.7750	 7.6750
 4.7790	 7.8150
 4.7840	 7.7780
 4.7880	 7.6840
 4.7920	 7.7100
 4.7970	 7.7620
 4.8010	 7.8930
 4.8060	 7.9790
 4.8100	 7.9330
 4.8150	 7.9380
 4.8190	 7.8960
 4.8240	 7.8990
 4.8280	 7.8190
 4.8330	 7.7690
 4.8370	 7.7780
 4.8420	 7.8160
 4.8460	 7.8490
 4.8510	 7.8520
 4.8550	 7.8940
 4.8600	 7.9090
 4.8640	 7.8790
 4.8690	 7.8610
 4.8730	 7.8500
 4.8780	 7.8510
 4.8830	 7.8880
 4.8870	 7.9420
 4.8920	 7.8590
 4.8960	 7.7630
 4.9010	 7.8050
 4.9060	 7.8830
 4.9100	 7.9150
 4.9150	 7.9180
 4.9200	 7.9160
 4.9240	 7.9200
 4.9290	 7.9110
 4.9340	 7.8720
 4.9380	 7.8830
 4.9430	 7.8970
 4.9480	 7.9270
 4.9530	 7.9260
 4.9570	 7.9550
 4.9620	 7.9730
 4.9670	 7.9670
 4.9720	 7.9610
 4.9760	 7.9600
 4.9810	 8.0040
 4.9860	 8.0280
 4.9910	 7.9600
 4.9960	 7.9600
 5.0000	 7.9650
 5.0050	 7.9920
 5.0100	 7.9880
 5.0150	 7.9500
 5.0200	 7.9750
 5.0250	 8.0480
 5.0290	 8.1030
 5.0340	 8.0750
 5.0390	 7.9990
 5.0440	 8.0050
 5.0490	 8.0280
 5.0540	 8.0600
 5.0590	 8.0360
 5.0640	 7.9730
 5.0690	 7.9660
 5.0740	 7.9790
 5.0790	 7.9210
 5.0840	 8.0240
 5.0890	 8.1110
 5.0940	 8.0870
 5.0990	 8.0320
 5.1040	 8.0290
 5.1090	 8.0090
 5.1140	 7.9960
 5.1190	 8.0270
 5.1240	 8.0580
 5.1290	 8.0420
 5.1340	 8.0020
 5.1390	 8.0070
 5.1440	 8.0550
 5.1490	 7.9710
 5.1540	 7.9470
 5.1600	 8.0450
 5.1650	 8.0830
 5.1700	 8.0180
 5.1750	 8.0240
 5.1800	 8.0080
 5.1850	 7.9730
 5.1910	 7.9780
 5.1960	 8.0180
 5.2010	 7.9790
 5.2060	 7.9780
 5.2110	 7.9810
 5.2170	 7.9830
 5.2220	 7.9060
 5.2270	 7.9250
 5.2320	 7.9820
 5.2380	 7.9710
 5.2430	 7.9160
 5.2480	 7.9640
 5.2540	 7.9470
 5.2590	 7.9590
 5.2640	 7.9350
 5.2700	 7.8830
 5.2750	 7.8900
 5.2800	 7.9870
 5.2860	 7.9680
 5.2910	 7.8880
 5.2970	 7.8360
 5.3020	 7.8630
 5.3070	 7.7710
 5.3130	 7.7250
 5.3180	 7.7120
 5.3240	 7.7760
 5.3290	 7.7790
 5.3350	 7.7340
 5.3400	 7.7130
 5.3460	 7.7240
 5.3510	 7.6760
 5.3570	 7.7100
 5.3620	 7.7510
 5.3680	 7.8110
 5.3730	 7.7490
 5.3790	 7.7210
 5.3850	 7.6700
 5.3900	 7.6700
 5.3960	 7.6520
 5.4010	 7.6500
 5.4070	 7.6660
 5.4130	 7.6860
 5.4180	 7.5850
 5.4240	 7.5410
 5.4300	 7.5230
 5.4350	 7.4820
 5.4410	 7.4350
 5.4470	 7.4790
 5.4530	 7.4810
 5.4580	 7.4990
 5.4640	 7.4410
 5.4700	 7.4330
 5.4760	 7.4090
 5.4810	 7.3790
 5.4870	 7.3220
 5.4930	 7.2680
 5.4990	 7.2200
 5.5050	 7.2230
 5.5110	 7.1640
 5.5160	 7.1480
 5.5220	 7.1460
 5.5280	 7.1560
 5.5340	 7.0260
 5.5400	 6.9570
 5.5460	 6.9240
 5.5520	 6.8430
 5.5580	 6.8120
 5.5640	 6.8260
 5.5700	 6.7180
 5.5760	 6.6670
 5.5820	 6.5510
 5.5880	 6.4130
 5.5940	 6.3150
 5.6000	 6.3240
 5.6060	 6.3240
 5.6120	 6.2930
 5.6180	 6.1600
 5.6240	 6.0430
 5.6300	 5.8690
 5.6360	 5.7740
 5.6420	 5.6990
 5.6490	 5.6210
 5.6550	 5.4250
 5.6610	 5.2370
 5.6670	 5.0130
 5.6730	 4.8460
 5.6800	 4.6550
 5.6860	 4.5980
 5.6920	 4.4960
 5.6980	 4.3940
 5.7040	 4.2010
 5.7110	 4.0560
 5.7170	 3.9830
 5.7230	 3.8930
 5.7300	 3.7240
 5.7360	 3.6750
 5.7420	 3.6650
 5.7490	 3.6900
 5.7550	 3.6570
 5.7620	 3.6740
 5.7680	 3.7710
 5.7740	 3.9390
 5.7810	 4.0710
 5.7870	 4.1980
 5.7940	 4.3350
 5.8000	 4.4870
 5.8070	 4.5330
 5.8130	 4.6150
 5.8200	 4.7040
 5.8260	 4.8230
 5.8330	 4.9050
 5.8390	 5.0710
 5.8460	 5.1280
 5.8530	 5.1900
 5.8590	 5.2960
 5.8660	 5.4420
 5.8720	 5.4940
 5.8790	 5.6080
 5.8860	 5.7150
 5.8920	 5.6810
 5.8990	 5.6260
 5.9060	 5.7420
 5.9130	 5.7460
 5.9190	 5.6730
 5.9260	 5.5220
 5.9330	 5.4550
 5.9400	 5.4720
 5.9470	 5.4710
 5.9530	 5.2320
 5.9600	 5.1580
 5.9670	 5.1640
 5.9740	 5.1280
 5.9810	 4.9560
 5.9880	 4.8430
 5.9950	 4.7270
 6.0020	 4.7530
 6.0090	 4.6050
 6.0160	 4.4300
 6.0230	 4.3750
 6.0300	 4.3860
 6.0370	 4.3680
 6.0440	 4.5370
 6.0510	 4.5330
 6.0580	 4.5290
 6.0650	 4.5770
 6.0720	 4.6030
 6.0790	 4.4520
 6.0860	 4.4720
 6.0930	 4.4750
 6.1000	 4.4940
 6.1080	 4.5110
 6.1150	 4.6560
 6.1220	 4.5660
 6.1290	 4.5420
 6.1370	 4.5360
 6.1440	 4.6080
 6.1510	 4.6120
 6.1580	 4.6090
 6.1660	 4.4750
 6.1730	 4.4270
 6.1800	 4.3770
 6.1880	 4.4160
 6.1950	 4.4480
 6.2030	 4.5450
 6.2100	 4.4980
 6.2170	 4.5270
 6.2250	 4.5790
 6.2320	 4.6200
 6.2400	 4.5720
 6.2470	 4.7260
 6.2550	 4.7780
 6.2630	 4.8650
 6.2700	 4.8690
 6.2780	 4.9010
 6.2850	 4.9350
 6.2930	 5.0850
 6.3010	 5.1430
 6.3080	 5.2290
 6.3160	 5.2590
 6.3240	 5.3330
 6.3310	 5.3470
 6.3390	 5.4800
 6.3470	 5.5340
 6.3550	 5.5430
 6.3620	 5.4620
 6.3700	 5.4950
 6.3780	 5.5790
 6.3860	 5.7970
 6.3940	 5.8130
 6.4020	 5.7600
 6.4100	 5.6800
 6.4180	 5.7030
 6.4260	 5.7590
 6.4330	 5.8490
 6.4410	 5.8500
 6.4490	 5.9040
 6.4580	 5.8800
 6.4660	 5.8990
 6.4740	 5.8860
 6.4820	 5.8990
 6.4900	 5.7730
 6.4980	 5.7800
 6.5060	 5.7840
 6.5140	 5.7550
 6.5230	 5.6180
 6.5310	 5.5750
 6.5390	 5.4010
 6.5470	 5.3520
 6.5550	 5.2540
 6.5640	 5.0560
 6.5720	 4.7510
 6.5800	 4.5920
 6.5890	 4.5520
 6.5970	 4.6730
 6.6060	 4.7080
 6.6140	 4.7950
 6.6220	 4.7590
 6.6310	 4.8480
 6.6390	 4.9050
 6.6480	 5.0080
 6.6560	 5.0670
 6.6650	 5.1270
 6.6740	 5.0290
 6.6820	 5.0710
 6.6910	 5.1320
 6.6990	 5.2610
 6.7080	 5.2280
 6.7170	 5.2120
 6.7260	 5.1910
 6.7340	 5.2390
 6.7430	 5.1690
 6.7520	 5.1160
 6.7610	 4.9410
 6.7690	 4.8890
 6.7780	 4.8080
 6.7870	 4.7740
 6.7960	 4.5180
 6.8050	 4.3140
 6.8140	 4.2120
 6.8230	 4.3550
 6.8320	 4.4510
 6.8410	 4.5220
 6.8500	 4.3950
 6.8590	 4.3890
 6.8680	 4.4280
 6.8770	 4.5450
 6.8860	 4.4610
 6.8950	 4.4890
 6.9050	 4.5090
 6.9140	 4.6300
 6.9230	 4.5680
 6.9320	 4.5800
 6.9420	 4.4900
 6.9510	 4.5070
 6.9600	 4.4950
 6.9700	 4.5410
 6.9790	 4.4890
 6.9880	 4.5000
 6.9980	 4.4080
 7.0070	 4.4880
 7.0170	 4.4820
 7.0260	 4.4520
 7.0360	 4.4480
 7.0450	 4.5050
 7.0550	 4.4680
 7.0650	 4.5710
 7.0740	 4.6010
 7.0840	 4.6870
 7.0940	 4.6240
 7.1030	 4.6680
 7.1130	 4.6380
 7.1230	 4.6330
 7.1330	 4.4940
 7.1420	 4.4490
 7.1520	 4.3260
 7.1620	 4.3670
 7.1720	 4.2600
 7.1820	 4.2490
 7.1920	 4.1340
 7.2020	 4.0870
 7.2120	 3.9480
 7.2220	 3.9440
 7.2320	 3.8470
 7.2420	 3.8710
 7.2520	 3.7900
 7.2620	 3.8460
 7.2730	 3.8420
 7.2830	 3.8390
 7.2930	 3.6940
 7.3030	 3.7920
 7.3140	 3.8360
 7.3240	 3.9460
 7.3340	 3.9970
 7.3450	 4.1950
 7.3550	 4.2600
 7.3660	 4.3340
 7.3760	 4.2710
 7.3870	 4.4100
 7.3970	 4.4210
 7.4080	 4.4380
 7.4180	 4.3830
 7.4290	 4.4040
 7.4400	 4.3580
 7.4500	 4.4250
 7.4610	 4.3040
 7.4720	 4.3480
 7.4830	 4.2750
 7.4930	 4.3320
 7.5040	 4.2890
 7.5150	 4.2420
 7.5260	 4.0960
 7.5370	 4.1400
 7.5480	 4.0440
 7.5590	 4.0420
 7.5700	 3.9770
 7.5810	 3.9530
 7.5920	 3.8870
 7.6030	 3.9590
 7.6140	 3.9340
 7.6260	 4.0350
 7.6370	 3.9810
 7.6480	 4.1060
 7.6590	 4.0870
 7.6710	 4.0810
 7.6820	 4.0650
 7.6930	 4.1530
 7.7050	 4.0370
 7.7160	 4.0880
 7.7280	 3.9470
 7.7390	 4.0050
 7.7510	 3.9020
 7.7630	 3.8420
 7.7740	 3.7650
 7.7860	 3.8420
 7.7980	 3.7690
 7.8090	 3.7770
 7.8210	 3.6340
 7.8330	 3.6530
 7.8450	 3.6840
 7.8570	 3.7630
 7.8690	 3.7440
 7.8810	 3.8040
 7.8930	 3.6110
 7.9050	 3.5850
 7.9170	 3.5190
 7.9290	 3.5980
 7.9410	 3.5550
 7.9530	 3.6220
 7.9650	 3.6250
 7.9780	 3.6930
 7.9900	 3.6020
 8.0020	 3.6580
 8.0150	 3.5840
 8.0270	 3.7530
 8.0390	 3.7580
 8.0520	 3.8270
 8.0640	 3.7650
 8.0770	 3.9330
 8.0900	 3.8780
 8.1020	 4.0010
 8.1150	 3.9570
 8.1280	 4.0380
 8.1400	 4.0000
 8.1530	 4.1440
 8.1660	 4.1570
 8.1790	 4.2350
 8.1920	 4.1800
 8.2050	 4.3020
 8.2180	 4.2800
 8.2310	 4.3550
 8.2440	 4.2900
 8.2570	 4.4760
 8.2700	 4.4930
 8.2830	 4.6120
 8.2970	 4.5430
 8.3100	 4.6620
 8.3230	 4.6350
 8.3370	 4.7900
 8.3500	 4.7380
 8.3640	 4.8240
 8.3770	 4.6370
 8.3910	 4.6330
 8.4040	 4.5510
 8.4180	 4.6930
 8.4320	 4.4710
 8.4450	 4.3650
 8.4590	 4.3030
 8.4730	 4.5350
 8.4870	 4.4620
 8.5010	 4.6020
 8.5150	 4.5760
 8.5290	 4.7980
 8.5430	 4.8050
 8.5570	 4.8340
 8.5710	 4.6950
 8.5850	 4.8380
 8.5990	 4.7830
 8.6140	 4.7420
 8.6280	 4.6150
 8.6420	 4.7680
 8.6570	 4.7910
 8.6710	 4.8960
 8.6860	 4.6930
 8.7000	 4.8180
 8.7150	 4.8570
 8.7300	 4.8250
 8.7440	 4.6540
 8.7590	 4.8790
 8.7740	 4.6820
 8.7890	 4.6840
 8.8040	 4.5430
 8.8190	 4.6220
 8.8340	 4.5080
 8.8490	 4.5190
 8.8640	 4.3330
 8.8790	 4.4720
 8.8940	 4.2390
 8.9100	 4.1960
 8.9250	 4.0770
 8.9400	 4.2540
 8.9560	 4.1430
 8.9710	 4.2820
 8.9870	 4.1170
 9.0020	 4.1990
 9.0180	 4.0420
 9.0340	 4.0760
 9.0500	 4.0350
 9.0650	 4.3900
 9.0810	 4.3710
 9.0970	 4.4690
 9.1130	 4.2970
 9.1290	 4.2520
 9.1450	 4.0500
 9.1610	 4.2530
 9.1780	 4.1820
 9.1940	 4.2680
 9.2100	 4.1680
 9.2270	 4.3450
 9.2430	 4.3710
 9.2600	 4.5180
 9.2760	 4.3190
 9.2930	 4.3230
 9.3090	 4.1150
 9.3260	 4.3900
 9.3430	 4.3550
 9.3600	 4.3910
 9.3770	 4.1390
 9.3940	 4.2430
 9.4110	 4.2840
 9.4280	 4.5170
 9.4450	 4.2990
 9.4620	 4.4390
 9.4800	 4.3760
 9.4970	 4.6480
 9.5140	 4.6270
 9.5320	 4.6740
 9.5500	 4.4490
 9.5670	 4.6590
 9.5850	 4.5070
 9.6030	 4.6420
 9.6200	 4.5290
 9.6380	 4.7260
 9.6560	 4.6700
 9.6740	 4.8620
 9.6920	 4.8760
 9.7100	 5.0100
 9.7290	 4.8630
 9.7470	 5.1170
 9.7650	 5.0480
 9.7840	 5.1810
 9.8020	 5.0920
 9.8210	 5.2630
 9.8390	 5.1600
 9.8580	 5.3710
 9.8770	 5.3620
 9.8960	 5.5450
 9.9150	 5.3400
 9.9340	 5.4820
 9.9530	 5.4070
 9.9720	 5.3300
 9.9910	 5.1610
10.0100	 5.5030
10.0300	 5.5020
10.0490	 5.5290
10.0690	 5.4270
10.0880	 5.6330
10.1080	 5.5100
10.1280	 5.6920
10.1480	 5.5850
10.1670	 5.8430
10.1870	 5.8730
10.2070	 6.0160
10.2280	 5.8230
10.2480	 5.8990
10.2680	 5.8280
10.2890	 6.0530
10.3090	 5.9270
10.3300	 5.9990
10.3500	 6.0430
10.3710	 6.3890
10.3920	 6.2670
10.4120	 6.4070
10.4330	 6.3880
10.4540	 6.5870
10.4760	 6.5340
10.4970	 6.6130
10.5180	 6.4720
10.5390	 6.6230
10.5610	 6.4600
10.5820	 6.5990
10.6040	 6.4480
10.6260	 6.5890
10.6480	 6.4930
10.6700	 6.5130
10.6920	 6.2830
10.7140	 6.4530
10.7360	 6.3210
10.7580	 6.4200
10.7800	 6.3790
10.8030	 6.5000
10.8250	 6.2270
10.8480	 6.3160
10.8710	 6.2480
10.8940	 6.4670
10.9170	 6.3360
10.9400	 6.3580
10.9630	 6.1310
10.9860	 6.1770
11.0090	 6.0460
11.0330	 6.1910
11.0560	 5.9960
11.0800	 5.9930
11.1040	 5.5760
11.1270	 5.6090
11.1510	 5.7690
11.1750	 5.9950
11.2000	 5.7810
11.2240	 5.8530
11.2480	 5.8530
11.2730	 6.0670
11.2970	 6.2220
11.3220	 6.3150
11.3470	 5.9850
11.3720	 6.0030
11.3970	 5.6640
11.4220	 5.8180
11.4470	 5.7390
11.4720	 6.0600
11.4980	 5.8140
11.5230	 5.8890
11.5490	 5.9120
11.5750	 6.0440
11.6000	 5.7020
11.6260	 5.8740
11.6530	 5.6530
11.6790	 5.6540
11.7050	 5.4580
11.7320	 5.6970
11.7580	 5.4130
11.7850	 5.3150
11.8120	 5.0500
11.8390	 5.3430
11.8660	 5.2700
11.8930	 5.4700
11.9200	 5.3220
11.9480	 5.4480
11.9760	 5.3070
12.0030	 5.5390
12.0310	 5.3470
12.0590	 5.4640
12.0870	 5.3390
12.1150	 5.5790
12.1440	 5.3380
12.1720	 5.4320
12.2010	 5.2140
12.2300	 5.3400
12.2590	 5.2120
12.2880	 5.5780
12.3170	 5.4700
12.3460	 5.6260
12.3760	 5.3790
12.4050	 5.5070
12.4350	 5.2800
12.4650	 5.5680
12.4950	 5.3670
12.5250	 5.4200
12.5550	 5.1860
12.5860	 5.2690
12.6170	 4.8660
12.6470	 5.0770
12.6780	 4.9580
12.7090	 5.3040
12.7410	 5.1050
12.7720	 5.2210
12.8030	 4.9710
12.8350	 5.2620
12.8670	 4.9710
12.8990	 5.0940
12.9310	 4.8550
12.9640	 5.0930
12.9960	 4.9490
13.0290	 5.1720
13.0610	 4.7770
13.0940	 4.8700
13.1280	 4.6790
13.1610	 4.9220
13.1940	 4.7300
13.2280	 4.9800
13.2620	 4.7280
13.2960	 5.1300
13.3300	 4.8110
13.3640	 4.8710
13.3990	 4.5290
13.4340	 4.7890
13.4690	 4.4580
13.5040	 4.6440
13.5390	 4.5700
13.5740	 4.9790
13.6100	 4.5980
13.6460	 4.9200
13.6820	 4.7520
13.7180	 4.8470
13.7540	 4.4100
13.7910	 4.6810
13.8280	 4.2860
13.8650	 4.5290
13.9020	 4.2900
13.9390	 4.7170
13.9770	 4.4490
14.0150	 4.7060
14.0530	 4.2680
14.0910	 4.5270
14.1290	 4.3000
14.1680	 4.6530
14.2070	 4.2060
14.2460	 4.4230
14.2850	 4.0470
14.3240	 4.5190
14.3640	 4.3950
14.4040	 4.7640
14.4440	 4.1350
14.4840	 4.5790
14.5250	 4.1750
14.5660	 4.5870
14.6070	 4.1530
14.6480	 4.5940
14.6900	 4.1640
14.7310	 4.6300
14.7730	 4.2910
14.8150	 4.7120
14.8580	 4.1220
14.9010	 4.5150
14.9440	 4.1880
14.9870	 5.1840
15.0300	 4.2060
15.0740	 4.5970
15.1180	 3.9020
15.1620	 4.4090
15.2060	 3.9130
15.2510	 4.4430
15.2960	 3.6600
15.3410	 4.1270
15.3870	 3.3220
