Name: Arctostaphylos glandulosa 2
Type: vegetation
Class: Shrub
Genus: Arctostaphylos
Species: glandulosa
Sample No.: VH119
Owner: UCSB
Wavelength Range: VSWIR
Origin: 34.5084; -119.7682; WGS84
Collection Date: 6/3/2013
Description: Samples were collected as part of the HyspIRI Airborne Campaign. 48 individual plants were sampled in three times in 2013 - spring  summer  and fall. The name of the sample includes a 1  2  or 3 which references a different individual of the species. Samples were taken to JPL and processed within 48 hours of collection. The same leaves were processed in the Nicolet and then measured using the ASD.
Measurement: Bidirectional reflectance
First Column: X
Second Column: Y
X Units: Wavelength (micrometers)
Y Units: Reflectance (percentage)
First X Value: 0.35
Last X Value: 2.5
Number of X Values: 2151
Additional Information: vegetation.shrub.arctostaphylos.glandulosa.vswir.vh119.ucsb.asd.ancillary.txt

 0.3500	 6.1840
 0.3510	 6.0180
 0.3520	 5.9910
 0.3530	 6.0050
 0.3540	 5.9830
 0.3550	 6.1400
 0.3560	 6.0680
 0.3570	 5.8940
 0.3580	 5.9640
 0.3590	 5.9310
 0.3600	 5.8610
 0.3610	 5.8640
 0.3620	 6.0490
 0.3630	 6.0150
 0.3640	 5.8910
 0.3650	 5.8780
 0.3660	 5.8990
 0.3670	 5.8680
 0.3680	 5.8370
 0.3690	 5.9390
 0.3700	 6.0220
 0.3710	 6.0350
 0.3720	 5.9770
 0.3730	 5.9070
 0.3740	 5.9000
 0.3750	 5.9000
 0.3760	 5.8410
 0.3770	 5.8500
 0.3780	 5.7810
 0.3790	 5.7140
 0.3800	 5.8950
 0.3810	 5.9090
 0.3820	 5.8580
 0.3830	 5.8560
 0.3840	 5.8350
 0.3850	 5.8460
 0.3860	 5.8670
 0.3870	 5.8570
 0.3880	 5.8380
 0.3890	 5.7910
 0.3900	 5.7390
 0.3910	 5.7440
 0.3920	 5.7710
 0.3930	 5.8380
 0.3940	 5.9140
 0.3950	 5.8060
 0.3960	 5.7720
 0.3970	 5.8040
 0.3980	 5.7790
 0.3990	 5.7980
 0.4000	 5.7980
 0.4010	 5.7670
 0.4020	 5.7790
 0.4030	 5.8060
 0.4040	 5.7960
 0.4050	 5.7320
 0.4060	 5.7470
 0.4070	 5.7790
 0.4080	 5.7890
 0.4090	 5.7630
 0.4100	 5.7310
 0.4110	 5.7310
 0.4120	 5.7600
 0.4130	 5.7420
 0.4140	 5.7530
 0.4150	 5.7730
 0.4160	 5.7620
 0.4170	 5.7630
 0.4180	 5.7620
 0.4190	 5.7580
 0.4200	 5.7670
 0.4210	 5.7930
 0.4220	 5.8220
 0.4230	 5.8460
 0.4240	 5.8740
 0.4250	 5.9080
 0.4260	 5.9390
 0.4270	 5.9550
 0.4280	 5.9810
 0.4290	 6.0280
 0.4300	 6.0900
 0.4310	 6.1330
 0.4320	 6.1860
 0.4330	 6.2490
 0.4340	 6.3150
 0.4350	 6.3850
 0.4360	 6.4560
 0.4370	 6.5240
 0.4380	 6.5870
 0.4390	 6.6560
 0.4400	 6.7250
 0.4410	 6.7910
 0.4420	 6.8570
 0.4430	 6.9360
 0.4440	 7.0170
 0.4450	 7.0850
 0.4460	 7.1450
 0.4470	 7.2140
 0.4480	 7.2930
 0.4490	 7.3600
 0.4500	 7.4180
 0.4510	 7.4740
 0.4520	 7.5320
 0.4530	 7.5690
 0.4540	 7.6030
 0.4550	 7.6480
 0.4560	 7.7090
 0.4570	 7.7370
 0.4580	 7.7580
 0.4590	 7.7900
 0.4600	 7.8110
 0.4610	 7.8260
 0.4620	 7.8440
 0.4630	 7.8700
 0.4640	 7.8880
 0.4650	 7.8960
 0.4660	 7.9010
 0.4670	 7.9140
 0.4680	 7.9170
 0.4690	 7.9250
 0.4700	 7.9470
 0.4710	 7.9650
 0.4720	 7.9690
 0.4730	 7.9670
 0.4740	 7.9740
 0.4750	 7.9890
 0.4760	 7.9970
 0.4770	 7.9950
 0.4780	 8.0070
 0.4790	 8.0130
 0.4800	 8.0210
 0.4810	 8.0380
 0.4820	 8.0370
 0.4830	 8.0470
 0.4840	 8.0680
 0.4850	 8.0690
 0.4860	 8.0790
 0.4870	 8.0890
 0.4880	 8.0940
 0.4890	 8.1220
 0.4900	 8.1410
 0.4910	 8.1560
 0.4920	 8.1840
 0.4930	 8.2110
 0.4940	 8.2380
 0.4950	 8.2700
 0.4960	 8.3150
 0.4970	 8.3540
 0.4980	 8.3920
 0.4990	 8.4380
 0.5000	 8.4930
 0.5010	 8.5540
 0.5020	 8.6190
 0.5030	 8.6790
 0.5040	 8.7510
 0.5050	 8.8370
 0.5060	 8.9340
 0.5070	 9.0250
 0.5080	 9.1240
 0.5090	 9.2350
 0.5100	 9.3570
 0.5110	 9.4840
 0.5120	 9.6200
 0.5130	 9.7650
 0.5140	 9.9200
 0.5150	10.0810
 0.5160	10.2500
 0.5170	10.4300
 0.5180	10.6230
 0.5190	10.8160
 0.5200	11.0090
 0.5210	11.2100
 0.5220	11.4080
 0.5230	11.6050
 0.5240	11.8030
 0.5250	11.9920
 0.5260	12.1760
 0.5270	12.3490
 0.5280	12.5090
 0.5290	12.6670
 0.5300	12.8190
 0.5310	12.9590
 0.5320	13.0860
 0.5330	13.2120
 0.5340	13.3270
 0.5350	13.4240
 0.5360	13.5240
 0.5370	13.6190
 0.5380	13.7050
 0.5390	13.7850
 0.5400	13.8710
 0.5410	13.9580
 0.5420	14.0380
 0.5430	14.1130
 0.5440	14.1860
 0.5450	14.2550
 0.5460	14.3140
 0.5470	14.3590
 0.5480	14.4010
 0.5490	14.4470
 0.5500	14.4890
 0.5510	14.5260
 0.5520	14.5520
 0.5530	14.5640
 0.5540	14.5670
 0.5550	14.5530
 0.5560	14.5220
 0.5570	14.4820
 0.5580	14.4290
 0.5590	14.3650
 0.5600	14.2910
 0.5610	14.2180
 0.5620	14.1350
 0.5630	14.0410
 0.5640	13.9440
 0.5650	13.8380
 0.5660	13.7260
 0.5670	13.6090
 0.5680	13.4870
 0.5690	13.3600
 0.5700	13.2310
 0.5710	13.1000
 0.5720	12.9710
 0.5730	12.8430
 0.5740	12.7220
 0.5750	12.6110
 0.5760	12.5090
 0.5770	12.4110
 0.5780	12.3140
 0.5790	12.2260
 0.5800	12.1400
 0.5810	12.0580
 0.5820	11.9870
 0.5830	11.9180
 0.5840	11.8530
 0.5850	11.7940
 0.5860	11.7350
 0.5870	11.6830
 0.5880	11.6380
 0.5890	11.6010
 0.5900	11.5640
 0.5910	11.5330
 0.5920	11.5060
 0.5930	11.4780
 0.5940	11.4440
 0.5950	11.4120
 0.5960	11.3880
 0.5970	11.3710
 0.5980	11.3500
 0.5990	11.3220
 0.6000	11.2910
 0.6010	11.2610
 0.6020	11.2280
 0.6030	11.1870
 0.6040	11.1380
 0.6050	11.0910
 0.6060	11.0390
 0.6070	10.9790
 0.6080	10.9160
 0.6090	10.8510
 0.6100	10.7910
 0.6110	10.7420
 0.6120	10.6730
 0.6130	10.5890
 0.6140	10.5030
 0.6150	10.4300
 0.6160	10.3620
 0.6170	10.3000
 0.6180	10.2450
 0.6190	10.1950
 0.6200	10.1470
 0.6210	10.1020
 0.6220	10.0680
 0.6230	10.0360
 0.6240	10.0080
 0.6250	 9.9850
 0.6260	 9.9640
 0.6270	 9.9460
 0.6280	 9.9310
 0.6290	 9.9190
 0.6300	 9.9120
 0.6310	 9.9030
 0.6320	 9.8860
 0.6330	 9.8620
 0.6340	 9.8360
 0.6350	 9.8060
 0.6360	 9.7670
 0.6370	 9.7250
 0.6380	 9.6760
 0.6390	 9.6200
 0.6400	 9.5570
 0.6410	 9.4930
 0.6420	 9.4250
 0.6430	 9.3540
 0.6440	 9.2830
 0.6450	 9.2090
 0.6460	 9.1350
 0.6470	 9.0670
 0.6480	 8.9990
 0.6490	 8.9400
 0.6500	 8.8900
 0.6510	 8.8400
 0.6520	 8.7950
 0.6530	 8.7510
 0.6540	 8.7060
 0.6550	 8.6630
 0.6560	 8.6100
 0.6570	 8.5510
 0.6580	 8.4900
 0.6590	 8.4220
 0.6600	 8.3530
 0.6610	 8.2840
 0.6620	 8.2120
 0.6630	 8.1400
 0.6640	 8.0740
 0.6650	 8.0160
 0.6660	 7.9620
 0.6670	 7.9150
 0.6680	 7.8730
 0.6690	 7.8340
 0.6700	 7.8080
 0.6710	 7.7870
 0.6720	 7.7680
 0.6730	 7.7560
 0.6740	 7.7500
 0.6750	 7.7470
 0.6760	 7.7460
 0.6770	 7.7520
 0.6780	 7.7620
 0.6790	 7.7790
 0.6800	 7.8060
 0.6810	 7.8420
 0.6820	 7.8890
 0.6830	 7.9500
 0.6840	 8.0310
 0.6850	 8.1330
 0.6860	 8.2580
 0.6870	 8.4080
 0.6880	 8.5940
 0.6890	 8.8150
 0.6900	 9.0760
 0.6910	 9.3820
 0.6920	 9.7360
 0.6930	10.1410
 0.6940	10.5990
 0.6950	11.1120
 0.6960	11.6820
 0.6970	12.3050
 0.6980	12.9750
 0.6990	13.6930
 0.7000	14.4590
 0.7010	15.2660
 0.7020	16.1030
 0.7030	16.9720
 0.7040	17.8600
 0.7050	18.7550
 0.7060	19.6670
 0.7070	20.5910
 0.7080	21.5190
 0.7090	22.4470
 0.7100	23.3820
 0.7110	24.3190
 0.7120	25.2550
 0.7130	26.1880
 0.7140	27.1210
 0.7150	28.0510
 0.7160	28.9760
 0.7170	29.8900
 0.7180	30.7950
 0.7190	31.6880
 0.7200	32.5670
 0.7210	33.4340
 0.7220	34.2820
 0.7230	35.1070
 0.7240	35.9120
 0.7250	36.6890
 0.7260	37.4380
 0.7270	38.1600
 0.7280	38.8530
 0.7290	39.5150
 0.7300	40.1450
 0.7310	40.7430
 0.7320	41.3110
 0.7330	41.8470
 0.7340	42.3530
 0.7350	42.8330
 0.7360	43.2860
 0.7370	43.7130
 0.7380	44.1140
 0.7390	44.4920
 0.7400	44.8450
 0.7410	45.1760
 0.7420	45.4850
 0.7430	45.7710
 0.7440	46.0420
 0.7450	46.2960
 0.7460	46.5280
 0.7470	46.7470
 0.7480	46.9500
 0.7490	47.1340
 0.7500	47.3020
 0.7510	47.4580
 0.7520	47.6030
 0.7530	47.7370
 0.7540	47.8600
 0.7550	47.9720
 0.7560	48.0750
 0.7570	48.1730
 0.7580	48.2610
 0.7590	48.3440
 0.7600	48.4230
 0.7610	48.4980
 0.7620	48.5590
 0.7630	48.6150
 0.7640	48.6740
 0.7650	48.7270
 0.7660	48.7760
 0.7670	48.8220
 0.7680	48.8630
 0.7690	48.9000
 0.7700	48.9380
 0.7710	48.9750
 0.7720	49.0140
 0.7730	49.0490
 0.7740	49.0800
 0.7750	49.1070
 0.7760	49.1340
 0.7770	49.1580
 0.7780	49.1840
 0.7790	49.2160
 0.7800	49.2420
 0.7810	49.2660
 0.7820	49.2890
 0.7830	49.3090
 0.7840	49.3290
 0.7850	49.3460
 0.7860	49.3610
 0.7870	49.3850
 0.7880	49.4060
 0.7890	49.4240
 0.7900	49.4410
 0.7910	49.4550
 0.7920	49.4710
 0.7930	49.4860
 0.7940	49.4960
 0.7950	49.5110
 0.7960	49.5260
 0.7970	49.5380
 0.7980	49.5510
 0.7990	49.5570
 0.8000	49.5610
 0.8010	49.5700
 0.8020	49.5790
 0.8030	49.5840
 0.8040	49.5890
 0.8050	49.5980
 0.8060	49.5980
 0.8070	49.5960
 0.8080	49.5950
 0.8090	49.6000
 0.8100	49.5980
 0.8110	49.5950
 0.8120	49.5950
 0.8130	49.5990
 0.8140	49.5970
 0.8150	49.5910
 0.8160	49.5860
 0.8170	49.5820
 0.8180	49.5780
 0.8190	49.5750
 0.8200	49.5730
 0.8210	49.5640
 0.8220	49.5560
 0.8230	49.5510
 0.8240	49.5410
 0.8250	49.5340
 0.8260	49.5260
 0.8270	49.5150
 0.8280	49.4990
 0.8290	49.4870
 0.8300	49.4770
 0.8310	49.4640
 0.8320	49.4500
 0.8330	49.4440
 0.8340	49.4380
 0.8350	49.4230
 0.8360	49.4150
 0.8370	49.4130
 0.8380	49.4090
 0.8390	49.3980
 0.8400	49.3900
 0.8410	49.3890
 0.8420	49.3900
 0.8430	49.3890
 0.8440	49.3850
 0.8450	49.3840
 0.8460	49.3900
 0.8470	49.3840
 0.8480	49.3860
 0.8490	49.3910
 0.8500	49.3900
 0.8510	49.3930
 0.8520	49.3930
 0.8530	49.3900
 0.8540	49.3900
 0.8550	49.3970
 0.8560	49.3980
 0.8570	49.3940
 0.8580	49.3990
 0.8590	49.4070
 0.8600	49.4070
 0.8610	49.3990
 0.8620	49.4000
 0.8630	49.4020
 0.8640	49.4080
 0.8650	49.4180
 0.8660	49.4200
 0.8670	49.4240
 0.8680	49.4290
 0.8690	49.4300
 0.8700	49.4430
 0.8710	49.4500
 0.8720	49.4500
 0.8730	49.4590
 0.8740	49.4740
 0.8750	49.4790
 0.8760	49.4770
 0.8770	49.4860
 0.8780	49.4940
 0.8790	49.5020
 0.8800	49.5070
 0.8810	49.5050
 0.8820	49.5070
 0.8830	49.5170
 0.8840	49.5270
 0.8850	49.5190
 0.8860	49.5210
 0.8870	49.5260
 0.8880	49.5200
 0.8890	49.5170
 0.8900	49.5220
 0.8910	49.5300
 0.8920	49.5340
 0.8930	49.5320
 0.8940	49.5300
 0.8950	49.5280
 0.8960	49.5240
 0.8970	49.5280
 0.8980	49.5280
 0.8990	49.5240
 0.9000	49.5220
 0.9010	49.5170
 0.9020	49.5160
 0.9030	49.5200
 0.9040	49.5210
 0.9050	49.5190
 0.9060	49.5140
 0.9070	49.5110
 0.9080	49.5150
 0.9090	49.5160
 0.9100	49.5110
 0.9110	49.5010
 0.9120	49.4980
 0.9130	49.4990
 0.9140	49.4980
 0.9150	49.4900
 0.9160	49.4800
 0.9170	49.4710
 0.9180	49.4650
 0.9190	49.4600
 0.9200	49.4540
 0.9210	49.4450
 0.9220	49.4320
 0.9230	49.4160
 0.9240	49.3870
 0.9250	49.3680
 0.9260	49.3570
 0.9270	49.3350
 0.9280	49.3110
 0.9290	49.2850
 0.9300	49.2550
 0.9310	49.2230
 0.9320	49.1890
 0.9330	49.1520
 0.9340	49.1130
 0.9350	49.0740
 0.9360	49.0460
 0.9370	49.0090
 0.9380	48.9580
 0.9390	48.9110
 0.9400	48.8760
 0.9410	48.8330
 0.9420	48.7730
 0.9430	48.7210
 0.9440	48.6630
 0.9450	48.5970
 0.9460	48.5260
 0.9470	48.4590
 0.9480	48.3700
 0.9490	48.2780
 0.9500	48.1920
 0.9510	48.0890
 0.9520	47.9750
 0.9530	47.8550
 0.9540	47.7360
 0.9550	47.6250
 0.9560	47.5120
 0.9570	47.3980
 0.9580	47.2880
 0.9590	47.1770
 0.9600	47.0750
 0.9610	46.9810
 0.9620	46.8950
 0.9630	46.8250
 0.9640	46.7640
 0.9650	46.7020
 0.9660	46.6380
 0.9670	46.5990
 0.9680	46.5700
 0.9690	46.5340
 0.9700	46.4870
 0.9710	46.4630
 0.9720	46.4300
 0.9730	46.3960
 0.9740	46.3830
 0.9750	46.3650
 0.9760	46.3410
 0.9770	46.3250
 0.9780	46.3280
 0.9790	46.3320
 0.9800	46.3280
 0.9810	46.3260
 0.9820	46.3420
 0.9830	46.3760
 0.9840	46.3850
 0.9850	46.3770
 0.9860	46.3860
 0.9870	46.4190
 0.9880	46.4390
 0.9890	46.4490
 0.9900	46.4710
 0.9910	46.5090
 0.9920	46.5560
 0.9930	46.6030
 0.9940	46.6510
 0.9950	46.6980
 0.9960	46.7450
 0.9970	46.7930
 0.9980	46.8400
 0.9990	46.8870
 1.0000	46.9350
 1.0010	46.9820
 1.0020	47.0290
 1.0030	47.0760
 1.0040	47.1240
 1.0050	47.1710
 1.0060	47.2180
 1.0070	47.2660
 1.0080	47.3130
 1.0090	47.3600
 1.0100	47.3600
 1.0110	47.4020
 1.0120	47.4450
 1.0130	47.4910
 1.0140	47.5330
 1.0150	47.5730
 1.0160	47.6110
 1.0170	47.6480
 1.0180	47.6840
 1.0190	47.7280
 1.0200	47.7750
 1.0210	47.8120
 1.0220	47.8500
 1.0230	47.8910
 1.0240	47.9280
 1.0250	47.9670
 1.0260	48.0140
 1.0270	48.0530
 1.0280	48.0870
 1.0290	48.1210
 1.0300	48.1540
 1.0310	48.1870
 1.0320	48.2180
 1.0330	48.2510
 1.0340	48.2860
 1.0350	48.3230
 1.0360	48.3560
 1.0370	48.3850
 1.0380	48.4110
 1.0390	48.4280
 1.0400	48.4530
 1.0410	48.4780
 1.0420	48.5050
 1.0430	48.5350
 1.0440	48.5620
 1.0450	48.5880
 1.0460	48.6120
 1.0470	48.6340
 1.0480	48.6550
 1.0490	48.6730
 1.0500	48.6920
 1.0510	48.7120
 1.0520	48.7330
 1.0530	48.7510
 1.0540	48.7700
 1.0550	48.7880
 1.0560	48.8060
 1.0570	48.8220
 1.0580	48.8380
 1.0590	48.8530
 1.0600	48.8640
 1.0610	48.8770
 1.0620	48.8910
 1.0630	48.9050
 1.0640	48.9200
 1.0650	48.9310
 1.0660	48.9370
 1.0670	48.9450
 1.0680	48.9520
 1.0690	48.9550
 1.0700	48.9620
 1.0710	48.9720
 1.0720	48.9770
 1.0730	48.9780
 1.0740	48.9830
 1.0750	48.9880
 1.0760	48.9910
 1.0770	48.9990
 1.0780	49.0010
 1.0790	48.9950
 1.0800	48.9940
 1.0810	48.9930
 1.0820	48.9900
 1.0830	48.9910
 1.0840	48.9870
 1.0850	48.9780
 1.0860	48.9680
 1.0870	48.9580
 1.0880	48.9460
 1.0890	48.9350
 1.0900	48.9260
 1.0910	48.9130
 1.0920	48.8980
 1.0930	48.8840
 1.0940	48.8700
 1.0950	48.8530
 1.0960	48.8340
 1.0970	48.8140
 1.0980	48.7880
 1.0990	48.7670
 1.1000	48.7530
 1.1010	48.7330
 1.1020	48.7110
 1.1030	48.6890
 1.1040	48.6590
 1.1050	48.6280
 1.1060	48.5970
 1.1070	48.5680
 1.1080	48.5340
 1.1090	48.4980
 1.1100	48.4620
 1.1110	48.4240
 1.1120	48.3840
 1.1130	48.3450
 1.1140	48.3010
 1.1150	48.2550
 1.1160	48.2010
 1.1170	48.1420
 1.1180	48.0790
 1.1190	48.0120
 1.1200	47.9370
 1.1210	47.8650
 1.1220	47.7860
 1.1230	47.6980
 1.1240	47.6090
 1.1250	47.5100
 1.1260	47.4050
 1.1270	47.2900
 1.1280	47.1700
 1.1290	47.0400
 1.1300	46.9010
 1.1310	46.7540
 1.1320	46.5990
 1.1330	46.4360
 1.1340	46.2680
 1.1350	46.0850
 1.1360	45.8950
 1.1370	45.6920
 1.1380	45.4780
 1.1390	45.2550
 1.1400	45.0220
 1.1410	44.7890
 1.1420	44.5500
 1.1430	44.3040
 1.1440	44.0580
 1.1450	43.8050
 1.1460	43.5580
 1.1470	43.3070
 1.1480	43.0690
 1.1490	42.8340
 1.1500	42.6100
 1.1510	42.3910
 1.1520	42.1880
 1.1530	41.9930
 1.1540	41.8130
 1.1550	41.6470
 1.1560	41.4940
 1.1570	41.3510
 1.1580	41.2250
 1.1590	41.1130
 1.1600	41.0130
 1.1610	40.9250
 1.1620	40.8450
 1.1630	40.7720
 1.1640	40.7070
 1.1650	40.6490
 1.1660	40.6010
 1.1670	40.5560
 1.1680	40.5200
 1.1690	40.4830
 1.1700	40.4520
 1.1710	40.4210
 1.1720	40.3910
 1.1730	40.3610
 1.1740	40.3320
 1.1750	40.3010
 1.1760	40.2690
 1.1770	40.2370
 1.1780	40.2030
 1.1790	40.1660
 1.1800	40.1300
 1.1810	40.0920
 1.1820	40.0510
 1.1830	40.0110
 1.1840	39.9710
 1.1850	39.9330
 1.1860	39.8980
 1.1870	39.8620
 1.1880	39.8310
 1.1890	39.8030
 1.1900	39.7750
 1.1910	39.7480
 1.1920	39.7230
 1.1930	39.6940
 1.1940	39.6720
 1.1950	39.6540
 1.1960	39.6380
 1.1970	39.6270
 1.1980	39.6180
 1.1990	39.6100
 1.2000	39.6050
 1.2010	39.6040
 1.2020	39.6060
 1.2030	39.6140
 1.2040	39.6260
 1.2050	39.6420
 1.2060	39.6620
 1.2070	39.6850
 1.2080	39.7140
 1.2090	39.7480
 1.2100	39.7830
 1.2110	39.8230
 1.2120	39.8660
 1.2130	39.9120
 1.2140	39.9630
 1.2150	40.0170
 1.2160	40.0750
 1.2170	40.1330
 1.2180	40.1930
 1.2190	40.2560
 1.2200	40.3210
 1.2210	40.3880
 1.2220	40.4560
 1.2230	40.5250
 1.2240	40.5920
 1.2250	40.6570
 1.2260	40.7220
 1.2270	40.7850
 1.2280	40.8450
 1.2290	40.9060
 1.2300	40.9630
 1.2310	41.0170
 1.2320	41.0730
 1.2330	41.1240
 1.2340	41.1740
 1.2350	41.2220
 1.2360	41.2690
 1.2370	41.3130
 1.2380	41.3560
 1.2390	41.3990
 1.2400	41.4390
 1.2410	41.4800
 1.2420	41.5190
 1.2430	41.5550
 1.2440	41.5900
 1.2450	41.6220
 1.2460	41.6540
 1.2470	41.6860
 1.2480	41.7150
 1.2490	41.7420
 1.2500	41.7670
 1.2510	41.7900
 1.2520	41.8150
 1.2530	41.8390
 1.2540	41.8620
 1.2550	41.8820
 1.2560	41.9000
 1.2570	41.9150
 1.2580	41.9290
 1.2590	41.9420
 1.2600	41.9540
 1.2610	41.9640
 1.2620	41.9730
 1.2630	41.9780
 1.2640	41.9820
 1.2650	41.9850
 1.2660	41.9850
 1.2670	41.9850
 1.2680	41.9840
 1.2690	41.9830
 1.2700	41.9810
 1.2710	41.9740
 1.2720	41.9650
 1.2730	41.9540
 1.2740	41.9390
 1.2750	41.9230
 1.2760	41.9060
 1.2770	41.8890
 1.2780	41.8690
 1.2790	41.8480
 1.2800	41.8260
 1.2810	41.7990
 1.2820	41.7690
 1.2830	41.7400
 1.2840	41.7090
 1.2850	41.6740
 1.2860	41.6370
 1.2870	41.5970
 1.2880	41.5540
 1.2890	41.5090
 1.2900	41.4600
 1.2910	41.4120
 1.2920	41.3600
 1.2930	41.3040
 1.2940	41.2460
 1.2950	41.1840
 1.2960	41.1180
 1.2970	41.0510
 1.2980	40.9780
 1.2990	40.9020
 1.3000	40.8250
 1.3010	40.7420
 1.3020	40.6580
 1.3030	40.5720
 1.3040	40.4760
 1.3050	40.3770
 1.3060	40.2720
 1.3070	40.1610
 1.3080	40.0490
 1.3090	39.9330
 1.3100	39.8100
 1.3110	39.6820
 1.3120	39.5490
 1.3130	39.4090
 1.3140	39.2640
 1.3150	39.1160
 1.3160	38.9630
 1.3170	38.8060
 1.3180	38.6440
 1.3190	38.4760
 1.3200	38.3040
 1.3210	38.1240
 1.3220	37.9390
 1.3230	37.7500
 1.3240	37.5560
 1.3250	37.3610
 1.3260	37.1630
 1.3270	36.9600
 1.3280	36.7520
 1.3290	36.5390
 1.3300	36.3250
 1.3310	36.1090
 1.3320	35.8920
 1.3330	35.6750
 1.3340	35.4550
 1.3350	35.2330
 1.3360	35.0120
 1.3370	34.7910
 1.3380	34.5720
 1.3390	34.3530
 1.3400	34.1320
 1.3410	33.9160
 1.3420	33.7020
 1.3430	33.4890
 1.3440	33.2800
 1.3450	33.0720
 1.3460	32.8650
 1.3470	32.6640
 1.3480	32.4640
 1.3490	32.2690
 1.3500	32.0790
 1.3510	31.8900
 1.3520	31.7000
 1.3530	31.5140
 1.3540	31.3270
 1.3550	31.1400
 1.3560	30.9570
 1.3570	30.7740
 1.3580	30.5910
 1.3590	30.4050
 1.3600	30.2170
 1.3610	30.0260
 1.3620	29.8290
 1.3630	29.6300
 1.3640	29.4250
 1.3650	29.2110
 1.3660	28.9930
 1.3670	28.7660
 1.3680	28.5270
 1.3690	28.2780
 1.3700	28.0160
 1.3710	27.7420
 1.3720	27.4550
 1.3730	27.1520
 1.3740	26.8340
 1.3750	26.4990
 1.3760	26.1420
 1.3770	25.7670
 1.3780	25.3680
 1.3790	24.9500
 1.3800	24.5130
 1.3810	24.0540
 1.3820	23.5840
 1.3830	23.0970
 1.3840	22.5990
 1.3850	22.0870
 1.3860	21.5690
 1.3870	21.0340
 1.3880	20.5070
 1.3890	19.9740
 1.3900	19.4410
 1.3910	18.9180
 1.3920	18.3970
 1.3930	17.8790
 1.3940	17.3720
 1.3950	16.8700
 1.3960	16.3840
 1.3970	15.9150
 1.3980	15.4620
 1.3990	15.0320
 1.4000	14.6180
 1.4010	14.2200
 1.4020	13.8440
 1.4030	13.4860
 1.4040	13.1480
 1.4050	12.8320
 1.4060	12.5340
 1.4070	12.2580
 1.4080	12.0010
 1.4090	11.7610
 1.4100	11.5400
 1.4110	11.3350
 1.4120	11.1440
 1.4130	10.9700
 1.4140	10.8110
 1.4150	10.6660
 1.4160	10.5340
 1.4170	10.4130
 1.4180	10.3020
 1.4190	10.2000
 1.4200	10.1080
 1.4210	10.0230
 1.4220	 9.9470
 1.4230	 9.8790
 1.4240	 9.8170
 1.4250	 9.7600
 1.4260	 9.7100
 1.4270	 9.6640
 1.4280	 9.6230
 1.4290	 9.5870
 1.4300	 9.5550
 1.4310	 9.5260
 1.4320	 9.5020
 1.4330	 9.4800
 1.4340	 9.4630
 1.4350	 9.4470
 1.4360	 9.4340
 1.4370	 9.4220
 1.4380	 9.4140
 1.4390	 9.4080
 1.4400	 9.4040
 1.4410	 9.4010
 1.4420	 9.4000
 1.4430	 9.4000
 1.4440	 9.4020
 1.4450	 9.4050
 1.4460	 9.4090
 1.4470	 9.4150
 1.4480	 9.4210
 1.4490	 9.4280
 1.4500	 9.4360
 1.4510	 9.4440
 1.4520	 9.4540
 1.4530	 9.4640
 1.4540	 9.4730
 1.4550	 9.4850
 1.4560	 9.4980
 1.4570	 9.5110
 1.4580	 9.5270
 1.4590	 9.5440
 1.4600	 9.5630
 1.4610	 9.5840
 1.4620	 9.6050
 1.4630	 9.6310
 1.4640	 9.6580
 1.4650	 9.6880
 1.4660	 9.7220
 1.4670	 9.7570
 1.4680	 9.7950
 1.4690	 9.8360
 1.4700	 9.8790
 1.4710	 9.9250
 1.4720	 9.9730
 1.4730	10.0220
 1.4740	10.0740
 1.4750	10.1290
 1.4760	10.1860
 1.4770	10.2450
 1.4780	10.3060
 1.4790	10.3690
 1.4800	10.4320
 1.4810	10.4970
 1.4820	10.5630
 1.4830	10.6290
 1.4840	10.6980
 1.4850	10.7680
 1.4860	10.8370
 1.4870	10.9090
 1.4880	10.9800
 1.4890	11.0510
 1.4900	11.1240
 1.4910	11.1980
 1.4920	11.2730
 1.4930	11.3490
 1.4940	11.4250
 1.4950	11.5010
 1.4960	11.5770
 1.4970	11.6530
 1.4980	11.7300
 1.4990	11.8080
 1.5000	11.8860
 1.5010	11.9650
 1.5020	12.0430
 1.5030	12.1220
 1.5040	12.2010
 1.5050	12.2790
 1.5060	12.3580
 1.5070	12.4390
 1.5080	12.5180
 1.5090	12.5990
 1.5100	12.6790
 1.5110	12.7580
 1.5120	12.8360
 1.5130	12.9150
 1.5140	12.9940
 1.5150	13.0730
 1.5160	13.1510
 1.5170	13.2310
 1.5180	13.3090
 1.5190	13.3860
 1.5200	13.4640
 1.5210	13.5390
 1.5220	13.6160
 1.5230	13.6930
 1.5240	13.7680
 1.5250	13.8440
 1.5260	13.9200
 1.5270	13.9940
 1.5280	14.0690
 1.5290	14.1420
 1.5300	14.2160
 1.5310	14.2900
 1.5320	14.3620
 1.5330	14.4340
 1.5340	14.5050
 1.5350	14.5740
 1.5360	14.6450
 1.5370	14.7140
 1.5380	14.7840
 1.5390	14.8530
 1.5400	14.9220
 1.5410	14.9890
 1.5420	15.0570
 1.5430	15.1250
 1.5440	15.1930
 1.5450	15.2590
 1.5460	15.3240
 1.5470	15.3900
 1.5480	15.4540
 1.5490	15.5200
 1.5500	15.5870
 1.5510	15.6520
 1.5520	15.7160
 1.5530	15.7790
 1.5540	15.8420
 1.5550	15.9040
 1.5560	15.9660
 1.5570	16.0270
 1.5580	16.0870
 1.5590	16.1470
 1.5600	16.2070
 1.5610	16.2660
 1.5620	16.3250
 1.5630	16.3840
 1.5640	16.4420
 1.5650	16.5000
 1.5660	16.5570
 1.5670	16.6130
 1.5680	16.6710
 1.5690	16.7270
 1.5700	16.7820
 1.5710	16.8390
 1.5720	16.8940
 1.5730	16.9490
 1.5740	17.0060
 1.5750	17.0610
 1.5760	17.1170
 1.5770	17.1730
 1.5780	17.2290
 1.5790	17.2850
 1.5800	17.3400
 1.5810	17.3960
 1.5820	17.4500
 1.5830	17.5040
 1.5840	17.5570
 1.5850	17.6090
 1.5860	17.6620
 1.5870	17.7150
 1.5880	17.7690
 1.5890	17.8240
 1.5900	17.8780
 1.5910	17.9310
 1.5920	17.9840
 1.5930	18.0360
 1.5940	18.0890
 1.5950	18.1400
 1.5960	18.1920
 1.5970	18.2440
 1.5980	18.2950
 1.5990	18.3460
 1.6000	18.3970
 1.6010	18.4470
 1.6020	18.4980
 1.6030	18.5480
 1.6040	18.5980
 1.6050	18.6470
 1.6060	18.6960
 1.6070	18.7450
 1.6080	18.7950
 1.6090	18.8430
 1.6100	18.8890
 1.6110	18.9350
 1.6120	18.9790
 1.6130	19.0220
 1.6140	19.0660
 1.6150	19.1110
 1.6160	19.1530
 1.6170	19.1950
 1.6180	19.2360
 1.6190	19.2750
 1.6200	19.3140
 1.6210	19.3530
 1.6220	19.3920
 1.6230	19.4290
 1.6240	19.4650
 1.6250	19.4990
 1.6260	19.5330
 1.6270	19.5660
 1.6280	19.6000
 1.6290	19.6310
 1.6300	19.6610
 1.6310	19.6900
 1.6320	19.7180
 1.6330	19.7440
 1.6340	19.7680
 1.6350	19.7900
 1.6360	19.8080
 1.6370	19.8250
 1.6380	19.8410
 1.6390	19.8530
 1.6400	19.8640
 1.6410	19.8700
 1.6420	19.8730
 1.6430	19.8730
 1.6440	19.8690
 1.6450	19.8620
 1.6460	19.8510
 1.6470	19.8380
 1.6480	19.8230
 1.6490	19.8040
 1.6500	19.7820
 1.6510	19.7590
 1.6520	19.7330
 1.6530	19.7050
 1.6540	19.6780
 1.6550	19.6510
 1.6560	19.6240
 1.6570	19.6010
 1.6580	19.5810
 1.6590	19.5620
 1.6600	19.5470
 1.6610	19.5350
 1.6620	19.5260
 1.6630	19.5230
 1.6640	19.5250
 1.6650	19.5310
 1.6660	19.5400
 1.6670	19.5540
 1.6680	19.5710
 1.6690	19.5890
 1.6700	19.6080
 1.6710	19.6280
 1.6720	19.6460
 1.6730	19.6620
 1.6740	19.6770
 1.6750	19.6860
 1.6760	19.6910
 1.6770	19.6940
 1.6780	19.6910
 1.6790	19.6840
 1.6800	19.6730
 1.6810	19.6550
 1.6820	19.6350
 1.6830	19.6100
 1.6840	19.5800
 1.6850	19.5450
 1.6860	19.5070
 1.6870	19.4650
 1.6880	19.4220
 1.6890	19.3770
 1.6900	19.3300
 1.6910	19.2780
 1.6920	19.2280
 1.6930	19.1760
 1.6940	19.1230
 1.6950	19.0700
 1.6960	19.0170
 1.6970	18.9630
 1.6980	18.9090
 1.6990	18.8550
 1.7000	18.8000
 1.7010	18.7450
 1.7020	18.6900
 1.7030	18.6360
 1.7040	18.5810
 1.7050	18.5240
 1.7060	18.4670
 1.7070	18.4100
 1.7080	18.3540
 1.7090	18.2980
 1.7100	18.2440
 1.7110	18.1910
 1.7120	18.1410
 1.7130	18.0920
 1.7140	18.0440
 1.7150	17.9970
 1.7160	17.9520
 1.7170	17.9070
 1.7180	17.8650
 1.7190	17.8260
 1.7200	17.7850
 1.7210	17.7460
 1.7220	17.7080
 1.7230	17.6690
 1.7240	17.6330
 1.7250	17.5990
 1.7260	17.5660
 1.7270	17.5360
 1.7280	17.5090
 1.7290	17.4830
 1.7300	17.4610
 1.7310	17.4410
 1.7320	17.4230
 1.7330	17.4070
 1.7340	17.3930
 1.7350	17.3760
 1.7360	17.3600
 1.7370	17.3390
 1.7380	17.3170
 1.7390	17.2910
 1.7400	17.2630
 1.7410	17.2310
 1.7420	17.1960
 1.7430	17.1570
 1.7440	17.1150
 1.7450	17.0720
 1.7460	17.0240
 1.7470	16.9770
 1.7480	16.9290
 1.7490	16.8810
 1.7500	16.8340
 1.7510	16.7860
 1.7520	16.7370
 1.7530	16.6880
 1.7540	16.6390
 1.7550	16.5880
 1.7560	16.5400
 1.7570	16.4950
 1.7580	16.4510
 1.7590	16.4090
 1.7600	16.3690
 1.7610	16.3270
 1.7620	16.2890
 1.7630	16.2510
 1.7640	16.2180
 1.7650	16.1880
 1.7660	16.1600
 1.7670	16.1350
 1.7680	16.1110
 1.7690	16.0870
 1.7700	16.0640
 1.7710	16.0420
 1.7720	16.0200
 1.7730	15.9980
 1.7740	15.9770
 1.7750	15.9560
 1.7760	15.9360
 1.7770	15.9170
 1.7780	15.8990
 1.7790	15.8810
 1.7800	15.8670
 1.7810	15.8550
 1.7820	15.8440
 1.7830	15.8340
 1.7840	15.8250
 1.7850	15.8160
 1.7860	15.8090
 1.7870	15.8030
 1.7880	15.7990
 1.7890	15.7960
 1.7900	15.7950
 1.7910	15.7940
 1.7920	15.7940
 1.7930	15.7950
 1.7940	15.7960
 1.7950	15.7990
 1.7960	15.8040
 1.7970	15.8080
 1.7980	15.8130
 1.7990	15.8180
 1.8000	15.8230
 1.8010	15.8290
 1.8020	15.8360
 1.8030	15.8420
 1.8040	15.8480
 1.8050	15.8550
 1.8060	15.8630
 1.8070	15.8690
 1.8080	15.8730
 1.8090	15.8780
 1.8100	15.8830
 1.8110	15.8900
 1.8120	15.8970
 1.8130	15.9030
 1.8140	15.9060
 1.8150	15.9090
 1.8160	15.9110
 1.8170	15.9140
 1.8180	15.9160
 1.8190	15.9200
 1.8200	15.9220
 1.8210	15.9210
 1.8220	15.9220
 1.8230	15.9210
 1.8240	15.9190
 1.8250	15.9180
 1.8260	15.9150
 1.8270	15.9080
 1.8280	15.9000
 1.8290	15.8930
 1.8300	15.8850
 1.8310	15.8780
 1.8320	15.8700
 1.8330	15.8630
 1.8340	15.8550
 1.8350	15.8550
 1.8360	15.8290
 1.8370	15.8010
 1.8380	15.7720
 1.8390	15.7390
 1.8400	15.7040
 1.8410	15.6630
 1.8420	15.6200
 1.8430	15.5700
 1.8440	15.5160
 1.8450	15.4590
 1.8460	15.3960
 1.8470	15.3280
 1.8480	15.2510
 1.8490	15.1680
 1.8500	15.0780
 1.8510	14.9830
 1.8520	14.8780
 1.8530	14.7670
 1.8540	14.6490
 1.8550	14.5200
 1.8560	14.3840
 1.8570	14.2400
 1.8580	14.0850
 1.8590	13.9230
 1.8600	13.7540
 1.8610	13.5760
 1.8620	13.3890
 1.8630	13.1960
 1.8640	12.9920
 1.8650	12.7780
 1.8660	12.5560
 1.8670	12.3240
 1.8680	12.0830
 1.8690	11.8370
 1.8700	11.5830
 1.8710	11.3210
 1.8720	11.0580
 1.8730	10.7920
 1.8740	10.5210
 1.8750	10.2540
 1.8760	 9.9860
 1.8770	 9.7190
 1.8780	 9.4590
 1.8790	 9.2010
 1.8800	 8.9510
 1.8810	 8.7070
 1.8820	 8.4690
 1.8830	 8.2360
 1.8840	 8.0110
 1.8850	 7.7930
 1.8860	 7.5830
 1.8870	 7.3830
 1.8880	 7.1940
 1.8890	 7.0180
 1.8900	 6.8510
 1.8910	 6.6950
 1.8920	 6.5490
 1.8930	 6.4140
 1.8940	 6.2860
 1.8950	 6.1710
 1.8960	 6.0660
 1.8970	 5.9700
 1.8980	 5.8850
 1.8990	 5.8090
 1.9000	 5.7370
 1.9010	 5.6750
 1.9020	 5.6150
 1.9030	 5.5610
 1.9040	 5.5140
 1.9050	 5.4720
 1.9060	 5.4360
 1.9070	 5.4070
 1.9080	 5.3760
 1.9090	 5.3480
 1.9100	 5.3260
 1.9110	 5.3060
 1.9120	 5.2890
 1.9130	 5.2750
 1.9140	 5.2650
 1.9150	 5.2540
 1.9160	 5.2450
 1.9170	 5.2350
 1.9180	 5.2270
 1.9190	 5.2210
 1.9200	 5.2160
 1.9210	 5.2120
 1.9220	 5.2090
 1.9230	 5.2050
 1.9240	 5.2030
 1.9250	 5.2030
 1.9260	 5.2030
 1.9270	 5.2040
 1.9280	 5.2050
 1.9290	 5.2050
 1.9300	 5.2070
 1.9310	 5.2100
 1.9320	 5.2140
 1.9330	 5.2180
 1.9340	 5.2240
 1.9350	 5.2290
 1.9360	 5.2330
 1.9370	 5.2380
 1.9380	 5.2450
 1.9390	 5.2500
 1.9400	 5.2550
 1.9410	 5.2650
 1.9420	 5.2750
 1.9430	 5.2840
 1.9440	 5.2930
 1.9450	 5.3020
 1.9460	 5.3110
 1.9470	 5.3190
 1.9480	 5.3280
 1.9490	 5.3370
 1.9500	 5.3470
 1.9510	 5.3570
 1.9520	 5.3680
 1.9530	 5.3800
 1.9540	 5.3920
 1.9550	 5.4050
 1.9560	 5.4180
 1.9570	 5.4300
 1.9580	 5.4410
 1.9590	 5.4540
 1.9600	 5.4680
 1.9610	 5.4810
 1.9620	 5.4970
 1.9630	 5.5110
 1.9640	 5.5250
 1.9650	 5.5360
 1.9660	 5.5480
 1.9670	 5.5600
 1.9680	 5.5740
 1.9690	 5.5920
 1.9700	 5.6080
 1.9710	 5.6250
 1.9720	 5.6420
 1.9730	 5.6610
 1.9740	 5.6760
 1.9750	 5.6930
 1.9760	 5.7120
 1.9770	 5.7300
 1.9780	 5.7490
 1.9790	 5.7680
 1.9800	 5.7900
 1.9810	 5.8090
 1.9820	 5.8280
 1.9830	 5.8470
 1.9840	 5.8650
 1.9850	 5.8850
 1.9860	 5.9060
 1.9870	 5.9270
 1.9880	 5.9480
 1.9890	 5.9710
 1.9900	 5.9920
 1.9910	 6.0150
 1.9920	 6.0360
 1.9930	 6.0560
 1.9940	 6.0790
 1.9950	 6.1050
 1.9960	 6.1270
 1.9970	 6.1500
 1.9980	 6.1730
 1.9990	 6.1940
 2.0000	 6.2150
 2.0010	 6.2390
 2.0020	 6.2630
 2.0030	 6.2860
 2.0040	 6.3090
 2.0050	 6.3310
 2.0060	 6.3530
 2.0070	 6.3760
 2.0080	 6.3990
 2.0090	 6.4220
 2.0100	 6.4450
 2.0110	 6.4670
 2.0120	 6.4880
 2.0130	 6.5100
 2.0140	 6.5340
 2.0150	 6.5560
 2.0160	 6.5790
 2.0170	 6.6010
 2.0180	 6.6230
 2.0190	 6.6430
 2.0200	 6.6640
 2.0210	 6.6850
 2.0220	 6.7060
 2.0230	 6.7270
 2.0240	 6.7470
 2.0250	 6.7670
 2.0260	 6.7870
 2.0270	 6.8080
 2.0280	 6.8280
 2.0290	 6.8470
 2.0300	 6.8650
 2.0310	 6.8830
 2.0320	 6.8990
 2.0330	 6.9160
 2.0340	 6.9310
 2.0350	 6.9470
 2.0360	 6.9620
 2.0370	 6.9780
 2.0380	 6.9960
 2.0390	 7.0120
 2.0400	 7.0270
 2.0410	 7.0420
 2.0420	 7.0560
 2.0430	 7.0690
 2.0440	 7.0810
 2.0450	 7.0930
 2.0460	 7.1060
 2.0470	 7.1190
 2.0480	 7.1320
 2.0490	 7.1460
 2.0500	 7.1580
 2.0510	 7.1660
 2.0520	 7.1760
 2.0530	 7.1870
 2.0540	 7.1980
 2.0550	 7.2100
 2.0560	 7.2240
 2.0570	 7.2330
 2.0580	 7.2440
 2.0590	 7.2540
 2.0600	 7.2630
 2.0610	 7.2740
 2.0620	 7.2850
 2.0630	 7.2980
 2.0640	 7.3130
 2.0650	 7.3260
 2.0660	 7.3400
 2.0670	 7.3520
 2.0680	 7.3590
 2.0690	 7.3700
 2.0700	 7.3820
 2.0710	 7.3930
 2.0720	 7.4040
 2.0730	 7.4140
 2.0740	 7.4250
 2.0750	 7.4340
 2.0760	 7.4450
 2.0770	 7.4580
 2.0780	 7.4700
 2.0790	 7.4830
 2.0800	 7.4950
 2.0810	 7.5060
 2.0820	 7.5160
 2.0830	 7.5250
 2.0840	 7.5360
 2.0850	 7.5480
 2.0860	 7.5590
 2.0870	 7.5700
 2.0880	 7.5810
 2.0890	 7.5900
 2.0900	 7.5960
 2.0910	 7.6060
 2.0920	 7.6170
 2.0930	 7.6290
 2.0940	 7.6430
 2.0950	 7.6550
 2.0960	 7.6680
 2.0970	 7.6790
 2.0980	 7.6870
 2.0990	 7.6960
 2.1000	 7.7020
 2.1010	 7.7100
 2.1020	 7.7180
 2.1030	 7.7280
 2.1040	 7.7380
 2.1050	 7.7510
 2.1060	 7.7630
 2.1070	 7.7770
 2.1080	 7.7880
 2.1090	 7.7970
 2.1100	 7.8060
 2.1110	 7.8140
 2.1120	 7.8220
 2.1130	 7.8310
 2.1140	 7.8400
 2.1150	 7.8500
 2.1160	 7.8600
 2.1170	 7.8690
 2.1180	 7.8780
 2.1190	 7.8850
 2.1200	 7.8920
 2.1210	 7.8980
 2.1220	 7.9050
 2.1230	 7.9140
 2.1240	 7.9240
 2.1250	 7.9310
 2.1260	 7.9380
 2.1270	 7.9460
 2.1280	 7.9520
 2.1290	 7.9610
 2.1300	 7.9750
 2.1310	 7.9850
 2.1320	 7.9940
 2.1330	 8.0030
 2.1340	 8.0090
 2.1350	 8.0170
 2.1360	 8.0250
 2.1370	 8.0350
 2.1380	 8.0480
 2.1390	 8.0610
 2.1400	 8.0760
 2.1410	 8.0920
 2.1420	 8.1060
 2.1430	 8.1210
 2.1440	 8.1330
 2.1450	 8.1410
 2.1460	 8.1520
 2.1470	 8.1620
 2.1480	 8.1750
 2.1490	 8.1910
 2.1500	 8.2040
 2.1510	 8.2170
 2.1520	 8.2310
 2.1530	 8.2450
 2.1540	 8.2590
 2.1550	 8.2750
 2.1560	 8.2890
 2.1570	 8.3040
 2.1580	 8.3180
 2.1590	 8.3310
 2.1600	 8.3440
 2.1610	 8.3590
 2.1620	 8.3750
 2.1630	 8.3880
 2.1640	 8.4010
 2.1650	 8.4130
 2.1660	 8.4230
 2.1670	 8.4360
 2.1680	 8.4530
 2.1690	 8.4670
 2.1700	 8.4820
 2.1710	 8.4930
 2.1720	 8.5020
 2.1730	 8.5130
 2.1740	 8.5240
 2.1750	 8.5350
 2.1760	 8.5500
 2.1770	 8.5630
 2.1780	 8.5730
 2.1790	 8.5830
 2.1800	 8.5920
 2.1810	 8.6010
 2.1820	 8.6120
 2.1830	 8.6230
 2.1840	 8.6340
 2.1850	 8.6470
 2.1860	 8.6600
 2.1870	 8.6740
 2.1880	 8.6900
 2.1890	 8.7070
 2.1900	 8.7220
 2.1910	 8.7380
 2.1920	 8.7520
 2.1930	 8.7620
 2.1940	 8.7750
 2.1950	 8.7890
 2.1960	 8.8020
 2.1970	 8.8180
 2.1980	 8.8300
 2.1990	 8.8390
 2.2000	 8.8490
 2.2010	 8.8610
 2.2020	 8.8720
 2.2030	 8.8830
 2.2040	 8.8940
 2.2050	 8.9030
 2.2060	 8.9140
 2.2070	 8.9240
 2.2080	 8.9370
 2.2090	 8.9460
 2.2100	 8.9520
 2.2110	 8.9620
 2.2120	 8.9710
 2.2130	 8.9810
 2.2140	 8.9940
 2.2150	 9.0020
 2.2160	 9.0060
 2.2170	 9.0110
 2.2180	 9.0150
 2.2190	 9.0190
 2.2200	 9.0230
 2.2210	 9.0250
 2.2220	 9.0250
 2.2230	 9.0250
 2.2240	 9.0200
 2.2250	 9.0180
 2.2260	 9.0170
 2.2270	 9.0130
 2.2280	 9.0100
 2.2290	 9.0040
 2.2300	 8.9950
 2.2310	 8.9830
 2.2320	 8.9720
 2.2330	 8.9570
 2.2340	 8.9430
 2.2350	 8.9270
 2.2360	 8.9080
 2.2370	 8.8890
 2.2380	 8.8660
 2.2390	 8.8410
 2.2400	 8.8160
 2.2410	 8.7910
 2.2420	 8.7640
 2.2430	 8.7370
 2.2440	 8.7090
 2.2450	 8.6760
 2.2460	 8.6460
 2.2470	 8.6160
 2.2480	 8.5850
 2.2490	 8.5540
 2.2500	 8.5220
 2.2510	 8.4880
 2.2520	 8.4520
 2.2530	 8.4140
 2.2540	 8.3760
 2.2550	 8.3370
 2.2560	 8.2990
 2.2570	 8.2610
 2.2580	 8.2240
 2.2590	 8.1860
 2.2600	 8.1490
 2.2610	 8.1140
 2.2620	 8.0780
 2.2630	 8.0430
 2.2640	 8.0140
 2.2650	 7.9830
 2.2660	 7.9520
 2.2670	 7.9220
 2.2680	 7.8880
 2.2690	 7.8590
 2.2700	 7.8340
 2.2710	 7.8070
 2.2720	 7.7810
 2.2730	 7.7540
 2.2740	 7.7250
 2.2750	 7.6980
 2.2760	 7.6730
 2.2770	 7.6490
 2.2780	 7.6290
 2.2790	 7.6060
 2.2800	 7.5830
 2.2810	 7.5610
 2.2820	 7.5370
 2.2830	 7.5140
 2.2840	 7.4910
 2.2850	 7.4670
 2.2860	 7.4410
 2.2870	 7.4180
 2.2880	 7.3990
 2.2890	 7.3770
 2.2900	 7.3520
 2.2910	 7.3300
 2.2920	 7.3080
 2.2930	 7.2830
 2.2940	 7.2610
 2.2950	 7.2350
 2.2960	 7.2020
 2.2970	 7.1710
 2.2980	 7.1400
 2.2990	 7.1110
 2.3000	 7.0810
 2.3010	 7.0530
 2.3020	 7.0270
 2.3030	 7.0040
 2.3040	 6.9820
 2.3050	 6.9590
 2.3060	 6.9430
 2.3070	 6.9250
 2.3080	 6.9010
 2.3090	 6.8870
 2.3100	 6.8720
 2.3110	 6.8630
 2.3120	 6.8610
 2.3130	 6.8730
 2.3140	 6.8750
 2.3150	 6.8770
 2.3160	 6.8790
 2.3170	 6.8780
 2.3180	 6.8800
 2.3190	 6.8860
 2.3200	 6.8850
 2.3210	 6.8820
 2.3220	 6.8780
 2.3230	 6.8710
 2.3240	 6.8640
 2.3250	 6.8580
 2.3260	 6.8510
 2.3270	 6.8430
 2.3280	 6.8340
 2.3290	 6.8220
 2.3300	 6.8160
 2.3310	 6.8130
 2.3320	 6.8030
 2.3330	 6.7940
 2.3340	 6.7820
 2.3350	 6.7600
 2.3360	 6.7450
 2.3370	 6.7330
 2.3380	 6.7210
 2.3390	 6.7150
 2.3400	 6.7030
 2.3410	 6.6920
 2.3420	 6.6770
 2.3430	 6.6520
 2.3440	 6.6340
 2.3450	 6.6150
 2.3460	 6.6010
 2.3470	 6.5990
 2.3480	 6.5900
 2.3490	 6.5770
 2.3500	 6.5690
 2.3510	 6.5610
 2.3520	 6.5540
 2.3530	 6.5500
 2.3540	 6.5520
 2.3550	 6.5430
 2.3560	 6.5330
 2.3570	 6.5260
 2.3580	 6.5220
 2.3590	 6.5220
 2.3600	 6.5200
 2.3610	 6.5170
 2.3620	 6.5100
 2.3630	 6.4960
 2.3640	 6.4820
 2.3650	 6.4660
 2.3660	 6.4530
 2.3670	 6.4550
 2.3680	 6.4520
 2.3690	 6.4410
 2.3700	 6.4310
 2.3710	 6.4100
 2.3720	 6.3920
 2.3730	 6.3820
 2.3740	 6.3740
 2.3750	 6.3650
 2.3760	 6.3590
 2.3770	 6.3520
 2.3780	 6.3400
 2.3790	 6.3260
 2.3800	 6.3120
 2.3810	 6.2960
 2.3820	 6.2780
 2.3830	 6.2660
 2.3840	 6.2570
 2.3850	 6.2420
 2.3860	 6.2270
 2.3870	 6.2110
 2.3880	 6.1990
 2.3890	 6.1890
 2.3900	 6.1780
 2.3910	 6.1720
 2.3920	 6.1580
 2.3930	 6.1430
 2.3940	 6.1350
 2.3950	 6.1160
 2.3960	 6.1000
 2.3970	 6.0850
 2.3980	 6.0750
 2.3990	 6.0650
 2.4000	 6.0440
 2.4010	 6.0280
 2.4020	 6.0140
 2.4030	 6.0120
 2.4040	 6.0170
 2.4050	 6.0070
 2.4060	 6.0000
 2.4070	 5.9890
 2.4080	 5.9750
 2.4090	 5.9690
 2.4100	 5.9570
 2.4110	 5.9430
 2.4120	 5.9250
 2.4130	 5.9100
 2.4140	 5.9040
 2.4150	 5.8970
 2.4160	 5.8900
 2.4170	 5.8760
 2.4180	 5.8580
 2.4190	 5.8320
 2.4200	 5.8060
 2.4210	 5.8050
 2.4220	 5.8060
 2.4230	 5.8000
 2.4240	 5.7980
 2.4250	 5.7850
 2.4260	 5.7720
 2.4270	 5.7660
 2.4280	 5.7590
 2.4290	 5.7460
 2.4300	 5.7190
 2.4310	 5.6940
 2.4320	 5.6690
 2.4330	 5.6510
 2.4340	 5.6430
 2.4350	 5.6320
 2.4360	 5.6370
 2.4370	 5.6340
 2.4380	 5.6130
 2.4390	 5.5980
 2.4400	 5.5650
 2.4410	 5.5330
 2.4420	 5.5110
 2.4430	 5.5020
 2.4440	 5.5060
 2.4450	 5.5020
 2.4460	 5.5130
 2.4470	 5.5140
 2.4480	 5.4980
 2.4490	 5.5020
 2.4500	 5.4950
 2.4510	 5.4700
 2.4520	 5.4640
 2.4530	 5.4510
 2.4540	 5.4360
 2.4550	 5.4500
 2.4560	 5.4420
 2.4570	 5.4200
 2.4580	 5.4150
 2.4590	 5.3960
 2.4600	 5.3900
 2.4610	 5.4050
 2.4620	 5.4060
 2.4630	 5.3910
 2.4640	 5.3740
 2.4650	 5.3430
 2.4660	 5.3180
 2.4670	 5.3120
 2.4680	 5.3060
 2.4690	 5.3160
 2.4700	 5.3120
 2.4710	 5.3110
 2.4720	 5.3110
 2.4730	 5.2990
 2.4740	 5.2960
 2.4750	 5.3010
 2.4760	 5.2980
 2.4770	 5.2920
 2.4780	 5.2760
 2.4790	 5.2490
 2.4800	 5.2330
 2.4810	 5.2140
 2.4820	 5.2160
 2.4830	 5.2050
 2.4840	 5.1810
 2.4850	 5.1670
 2.4860	 5.1600
 2.4870	 5.1610
 2.4880	 5.1760
 2.4890	 5.2000
 2.4900	 5.1870
 2.4910	 5.1890
 2.4920	 5.2180
 2.4930	 5.2200
 2.4940	 5.2190
 2.4950	 5.2110
 2.4960	 5.1880
 2.4970	 5.1830
 2.4980	 5.2310
 2.4990	 5.2990
 2.5000	 5.2940
