Name: Salvia leucophylla 3
Type: vegetation
Class: Shrub
Genus: Salvia
Species: leucophylla
Sample No.: VH192
Owner: UCSB
Wavelength Range: TIR
Origin: 34.698; -120.0477; WGS84
Collection Date: 6/9/2013
Description: Samples were collected as part of the HyspIRI Airborne Campaign. 48 individual plants were sampled in three times in 2013 - spring  summer  and fall. The name of the sample includes a 1  2  or 3 which references a different individual of the species. Samples were taken to JPL and processed within 48 hours of collection. The same leaves were processed in the Nicolet and then measured using the ASD.
Measurement: Hemispherical reflectance
First Column: X
Second Column: Y
X Units: Wavelength (micrometers)
Y Units: Reflectance (percentage)
First X Value: 2.501
Last X Value: 15.387
Number of X Values: 1737
Additional Information: vegetation.shrub.salvia.leucophylla.tir.vh192.ucsb.nicolet.ancillary.txt

 2.5010	24.0760
 2.5030	24.0810
 2.5040	24.0730
 2.5050	24.0170
 2.5060	23.9250
 2.5070	23.8120
 2.5090	23.7980
 2.5100	23.8640
 2.5110	23.9330
 2.5120	23.8810
 2.5140	23.9130
 2.5150	23.8530
 2.5160	23.8570
 2.5170	23.8690
 2.5180	23.8540
 2.5200	23.7760
 2.5210	23.7760
 2.5220	23.7920
 2.5230	23.8630
 2.5250	23.8700
 2.5260	23.9320
 2.5270	23.9490
 2.5280	23.9550
 2.5290	23.8880
 2.5310	23.8940
 2.5320	23.8740
 2.5330	23.8990
 2.5340	23.9200
 2.5360	23.9980
 2.5370	23.9480
 2.5380	23.9950
 2.5390	24.0210
 2.5410	24.1270
 2.5420	24.1580
 2.5430	24.0910
 2.5440	24.1250
 2.5460	24.1740
 2.5470	24.1350
 2.5480	24.1820
 2.5490	24.0960
 2.5510	24.0430
 2.5520	24.0920
 2.5530	24.1630
 2.5540	24.1360
 2.5560	24.1910
 2.5570	24.2340
 2.5580	24.2880
 2.5590	24.3290
 2.5610	24.3860
 2.5620	24.2940
 2.5630	24.3840
 2.5640	24.3970
 2.5660	24.3740
 2.5670	24.3000
 2.5680	24.2550
 2.5700	24.2870
 2.5710	24.4060
 2.5720	24.5270
 2.5730	24.4150
 2.5750	24.3290
 2.5760	24.5350
 2.5770	24.4520
 2.5790	24.3210
 2.5800	24.3930
 2.5810	24.4370
 2.5820	24.3490
 2.5840	24.3120
 2.5850	24.2940
 2.5860	24.3260
 2.5880	24.2800
 2.5890	24.2720
 2.5900	24.2920
 2.5910	24.4300
 2.5930	24.4050
 2.5940	24.3640
 2.5950	24.2690
 2.5970	24.3490
 2.5980	24.2820
 2.5990	24.2090
 2.6000	24.2620
 2.6020	24.3340
 2.6030	24.3280
 2.6040	24.4140
 2.6060	24.2830
 2.6070	24.1430
 2.6080	23.9780
 2.6100	24.0030
 2.6110	24.0830
 2.6120	24.1720
 2.6140	24.0700
 2.6150	24.0200
 2.6160	23.9640
 2.6180	23.8640
 2.6190	23.7620
 2.6200	23.8410
 2.6220	23.8630
 2.6230	23.8590
 2.6240	23.8400
 2.6260	23.8820
 2.6270	23.7970
 2.6280	23.7360
 2.6300	23.6930
 2.6310	23.6140
 2.6320	23.4740
 2.6340	23.5100
 2.6350	23.3780
 2.6360	23.3080
 2.6380	23.2870
 2.6390	23.2750
 2.6400	23.2160
 2.6420	23.2230
 2.6430	23.1120
 2.6440	23.0030
 2.6460	22.9220
 2.6470	22.9140
 2.6480	22.8400
 2.6500	22.8780
 2.6510	22.8560
 2.6520	22.7250
 2.6540	22.5420
 2.6550	22.4500
 2.6560	22.3800
 2.6580	22.3240
 2.6590	22.1570
 2.6610	22.1960
 2.6620	22.0900
 2.6630	21.9330
 2.6650	21.8790
 2.6660	21.8670
 2.6670	21.7930
 2.6690	21.8020
 2.6700	21.6680
 2.6720	21.5730
 2.6730	21.5140
 2.6740	21.5050
 2.6760	21.3900
 2.6770	21.2030
 2.6780	21.0740
 2.6800	21.0250
 2.6810	20.8660
 2.6830	20.7950
 2.6840	20.7290
 2.6850	20.6870
 2.6870	20.4990
 2.6880	20.2640
 2.6900	20.0150
 2.6910	20.0140
 2.6920	19.8480
 2.6940	19.6070
 2.6950	19.3250
 2.6970	19.1440
 2.6980	18.8760
 2.6990	18.6460
 2.7010	18.4090
 2.7020	18.2030
 2.7040	17.9410
 2.7050	17.7550
 2.7060	17.4650
 2.7080	17.2880
 2.7090	17.1200
 2.7110	16.9530
 2.7120	16.7280
 2.7130	16.5430
 2.7150	16.4060
 2.7160	16.1610
 2.7180	15.9660
 2.7190	15.7920
 2.7210	15.3670
 2.7220	15.0870
 2.7230	14.8640
 2.7250	14.6820
 2.7260	14.4710
 2.7280	14.1590
 2.7290	13.9460
 2.7310	13.8700
 2.7320	13.6390
 2.7330	13.4700
 2.7350	13.1640
 2.7360	12.8490
 2.7380	12.4920
 2.7390	12.4440
 2.7410	12.3450
 2.7420	12.2070
 2.7440	11.9750
 2.7450	11.8010
 2.7470	11.5850
 2.7480	11.2080
 2.7490	10.9800
 2.7510	11.2840
 2.7520	11.0350
 2.7540	10.8890
 2.7550	10.9810
 2.7570	10.7410
 2.7580	10.1710
 2.7600	 9.8610
 2.7610	 9.7240
 2.7630	 9.6920
 2.7640	 9.5490
 2.7660	 9.4710
 2.7670	 9.4350
 2.7680	 9.4580
 2.7700	 9.3410
 2.7710	 9.1110
 2.7730	 8.8950
 2.7740	 8.9600
 2.7760	 8.8160
 2.7770	 8.6310
 2.7790	 8.6140
 2.7800	 8.5240
 2.7820	 8.2920
 2.7830	 8.1310
 2.7850	 8.0350
 2.7860	 8.0880
 2.7880	 8.0920
 2.7890	 8.0680
 2.7910	 7.8600
 2.7920	 7.7740
 2.7940	 7.7280
 2.7950	 7.6430
 2.7970	 7.4460
 2.7980	 7.2960
 2.8000	 7.2410
 2.8010	 7.3460
 2.8030	 7.2490
 2.8040	 7.2040
 2.8060	 7.0960
 2.8070	 7.0350
 2.8090	 6.8590
 2.8110	 6.6220
 2.8120	 6.5040
 2.8140	 6.5980
 2.8150	 6.5500
 2.8170	 6.6740
 2.8180	 6.7570
 2.8200	 6.7370
 2.8210	 6.5090
 2.8230	 6.4510
 2.8240	 6.2570
 2.8260	 6.0490
 2.8270	 5.9930
 2.8290	 5.9640
 2.8300	 5.8760
 2.8320	 5.9820
 2.8340	 6.0920
 2.8350	 6.0970
 2.8370	 5.7700
 2.8380	 5.7100
 2.8400	 5.7560
 2.8410	 5.8500
 2.8430	 5.8360
 2.8440	 5.7650
 2.8460	 5.6500
 2.8480	 5.6200
 2.8490	 5.5570
 2.8510	 5.6300
 2.8520	 5.6690
 2.8540	 5.6980
 2.8550	 5.6100
 2.8570	 5.5870
 2.8590	 5.4460
 2.8600	 5.4630
 2.8620	 5.4410
 2.8630	 5.5410
 2.8650	 5.5920
 2.8660	 5.4840
 2.8680	 5.1700
 2.8700	 5.1140
 2.8710	 5.0830
 2.8730	 5.0100
 2.8740	 5.0250
 2.8760	 5.1270
 2.8780	 5.1950
 2.8790	 5.1710
 2.8810	 4.9920
 2.8820	 5.0320
 2.8840	 5.0490
 2.8860	 5.0570
 2.8870	 5.1390
 2.8890	 5.0610
 2.8900	 5.0170
 2.8920	 5.2270
 2.8940	 5.0140
 2.8950	 4.7840
 2.8970	 4.8450
 2.8980	 4.9730
 2.9000	 4.9190
 2.9020	 4.9080
 2.9030	 4.7050
 2.9050	 4.7910
 2.9070	 4.9650
 2.9080	 5.0260
 2.9100	 4.8730
 2.9120	 4.8650
 2.9130	 4.9170
 2.9150	 4.9150
 2.9160	 4.9000
 2.9180	 4.8940
 2.9200	 4.9070
 2.9210	 4.9300
 2.9230	 4.8170
 2.9250	 4.9330
 2.9260	 4.9270
 2.9280	 4.7890
 2.9300	 4.7100
 2.9310	 4.7760
 2.9330	 4.8650
 2.9350	 4.9140
 2.9360	 4.7660
 2.9380	 4.8570
 2.9400	 4.9600
 2.9410	 4.8800
 2.9430	 4.7470
 2.9450	 4.7970
 2.9460	 4.7040
 2.9480	 4.7200
 2.9500	 5.1140
 2.9510	 5.2800
 2.9530	 4.7800
 2.9550	 5.0180
 2.9560	 5.5910
 2.9580	 5.0360
 2.9600	 4.6130
 2.9610	 4.6780
 2.9630	 4.7530
 2.9650	 4.8970
 2.9660	 5.1830
 2.9680	 5.7520
 2.9700	 5.1730
 2.9720	 3.7890
 2.9730	 4.1860
 2.9750	 5.0620
 2.9770	 5.5280
 2.9780	 5.0130
 2.9800	 5.0550
 2.9820	 5.0820
 2.9840	 3.7180
 2.9850	 3.3610
 2.9870	 3.8820
 2.9890	 4.8120
 2.9900	 5.6860
 2.9920	 6.4260
 2.9940	 6.5390
 2.9960	 6.1550
 2.9970	 5.6180
 2.9990	 5.6200
 3.0010	 5.2460
 3.0030	 5.0790
 3.0040	 4.9330
 3.0060	 5.1960
 3.0080	 5.2290
 3.0100	 5.4660
 3.0110	 5.1610
 3.0130	 5.1330
 3.0150	 5.0550
 3.0170	 4.4870
 3.0180	 5.1940
 3.0200	 5.0330
 3.0220	 4.5610
 3.0240	 4.9860
 3.0250	 5.1760
 3.0270	 5.3300
 3.0290	 5.2200
 3.0310	 4.9020
 3.0320	 4.8510
 3.0340	 5.1540
 3.0360	 5.6540
 3.0380	 5.5560
 3.0400	 5.1250
 3.0410	 6.3420
 3.0430	 7.3710
 3.0450	 6.9830
 3.0470	 6.1450
 3.0480	 5.1620
 3.0500	 5.3110
 3.0520	 6.0980
 3.0540	 7.2560
 3.0560	 7.0800
 3.0570	 5.9770
 3.0590	 5.3650
 3.0610	 5.5010
 3.0630	 6.1280
 3.0650	 5.4870
 3.0660	 5.6140
 3.0680	 5.2880
 3.0700	 5.1650
 3.0720	 5.6690
 3.0740	 5.8780
 3.0760	 5.6450
 3.0770	 5.7480
 3.0790	 5.7620
 3.0810	 5.8470
 3.0830	 5.9110
 3.0850	 6.1930
 3.0870	 6.0930
 3.0880	 6.0790
 3.0900	 5.9560
 3.0920	 6.0280
 3.0940	 6.0150
 3.0960	 6.1230
 3.0980	 6.0790
 3.0990	 5.9240
 3.1010	 5.7120
 3.1030	 5.8540
 3.1050	 6.2330
 3.1070	 6.5040
 3.1090	 6.2000
 3.1110	 6.1240
 3.1120	 6.1900
 3.1140	 6.0990
 3.1160	 5.9350
 3.1180	 6.3360
 3.1200	 6.5320
 3.1220	 6.5050
 3.1240	 6.3940
 3.1260	 6.5120
 3.1270	 6.3820
 3.1290	 6.4830
 3.1310	 6.3500
 3.1330	 6.2270
 3.1350	 5.8710
 3.1370	 6.2930
 3.1390	 6.8020
 3.1410	 6.8770
 3.1430	 7.3300
 3.1450	 7.8870
 3.1460	 7.0490
 3.1480	 5.9310
 3.1500	 6.1570
 3.1520	 6.8890
 3.1540	 7.0180
 3.1560	 7.0440
 3.1580	 6.8360
 3.1600	 6.8910
 3.1620	 7.2370
 3.1640	 7.1040
 3.1660	 6.3000
 3.1680	 4.9370
 3.1700	 5.1730
 3.1710	 5.4680
 3.1730	 5.8620
 3.1750	 8.1970
 3.1770	 7.6530
 3.1790	 6.5020
 3.1810	 7.3550
 3.1830	 7.9370
 3.1850	 7.5550
 3.1870	 7.3860
 3.1890	 7.4390
 3.1910	 7.4920
 3.1930	 7.4570
 3.1950	 7.3610
 3.1970	 7.2620
 3.1990	 7.3550
 3.2010	 7.4640
 3.2030	 7.6280
 3.2050	 7.5230
 3.2070	 7.4870
 3.2090	 7.6310
 3.2110	 7.7220
 3.2130	 7.6070
 3.2150	 7.5910
 3.2170	 7.5720
 3.2190	 7.6460
 3.2210	 7.6580
 3.2230	 7.8410
 3.2250	 7.5890
 3.2270	 7.4210
 3.2290	 7.7100
 3.2310	 7.8870
 3.2330	 7.9000
 3.2350	 7.8970
 3.2370	 7.7350
 3.2390	 7.7250
 3.2410	 7.6140
 3.2430	 7.7610
 3.2450	 7.8010
 3.2470	 7.7450
 3.2490	 7.5510
 3.2510	 7.5910
 3.2530	 7.6970
 3.2550	 7.7050
 3.2570	 7.5740
 3.2590	 7.6700
 3.2610	 7.7690
 3.2630	 7.9030
 3.2650	 7.4660
 3.2670	 7.4530
 3.2690	 7.8510
 3.2720	 7.9340
 3.2740	 7.8370
 3.2760	 7.8050
 3.2780	 7.8710
 3.2800	 7.9010
 3.2820	 7.7950
 3.2840	 7.9310
 3.2860	 8.0390
 3.2880	 8.0110
 3.2900	 7.9400
 3.2920	 8.0010
 3.2940	 8.0650
 3.2960	 8.1250
 3.2990	 7.8440
 3.3010	 7.8230
 3.3030	 7.8880
 3.3050	 7.9010
 3.3070	 8.0450
 3.3090	 8.1280
 3.3110	 7.9180
 3.3130	 7.6160
 3.3150	 7.6020
 3.3180	 7.7570
 3.3200	 7.5190
 3.3220	 7.4590
 3.3240	 7.3550
 3.3260	 7.1790
 3.3280	 7.0530
 3.3300	 6.8600
 3.3330	 6.6600
 3.3350	 6.7280
 3.3370	 6.7220
 3.3390	 6.5850
 3.3410	 6.2880
 3.3430	 6.2160
 3.3450	 6.0690
 3.3480	 5.8380
 3.3500	 5.6170
 3.3520	 5.6250
 3.3540	 5.5830
 3.3560	 5.5510
 3.3580	 5.4390
 3.3610	 5.3530
 3.3630	 5.3350
 3.3650	 5.2930
 3.3670	 5.2270
 3.3690	 5.1870
 3.3720	 4.9740
 3.3740	 4.7970
 3.3760	 4.6950
 3.3780	 4.9000
 3.3800	 4.8600
 3.3830	 4.6990
 3.3850	 4.7010
 3.3870	 4.6020
 3.3890	 4.5190
 3.3910	 4.4370
 3.3940	 4.0800
 3.3960	 4.0270
 3.3980	 4.1650
 3.4000	 4.0660
 3.4020	 3.9830
 3.4050	 3.9750
 3.4070	 4.0070
 3.4090	 3.9850
 3.4110	 3.9080
 3.4140	 4.0390
 3.4160	 4.0950
 3.4180	 4.1060
 3.4200	 4.0570
 3.4230	 4.1880
 3.4250	 4.2890
 3.4270	 4.3990
 3.4290	 4.5810
 3.4320	 4.7100
 3.4340	 4.7330
 3.4360	 4.8810
 3.4390	 4.8780
 3.4410	 4.8050
 3.4430	 4.7380
 3.4450	 4.9370
 3.4480	 5.0440
 3.4500	 5.0430
 3.4520	 5.2680
 3.4550	 5.4140
 3.4570	 5.3090
 3.4590	 5.5530
 3.4620	 5.6450
 3.4640	 5.7220
 3.4660	 5.8430
 3.4680	 5.8500
 3.4710	 5.7200
 3.4730	 5.7250
 3.4750	 5.7420
 3.4780	 5.7910
 3.4800	 5.6960
 3.4820	 5.6660
 3.4850	 5.6050
 3.4870	 5.5730
 3.4890	 5.4970
 3.4920	 5.4130
 3.4940	 5.3040
 3.4970	 5.1610
 3.4990	 5.0440
 3.5010	 5.1010
 3.5040	 5.1160
 3.5060	 5.1230
 3.5080	 5.2590
 3.5110	 5.5110
 3.5130	 5.5770
 3.5160	 5.9110
 3.5180	 6.3510
 3.5200	 6.7330
 3.5230	 7.0410
 3.5250	 7.3890
 3.5270	 7.6410
 3.5300	 7.9590
 3.5320	 8.2210
 3.5350	 8.4240
 3.5370	 8.5570
 3.5400	 8.6440
 3.5420	 8.7620
 3.5440	 8.9740
 3.5470	 9.0480
 3.5490	 9.0680
 3.5520	 9.1560
 3.5540	 9.3080
 3.5570	 9.3220
 3.5590	 9.4390
 3.5610	 9.5960
 3.5640	 9.7000
 3.5660	 9.7700
 3.5690	 9.8650
 3.5710	 9.8550
 3.5740	 9.9630
 3.5760	10.0710
 3.5790	10.1840
 3.5810	10.2330
 3.5840	10.3020
 3.5860	10.3260
 3.5890	10.4810
 3.5910	10.4710
 3.5930	10.3460
 3.5960	10.3080
 3.5980	10.4780
 3.6010	10.5490
 3.6030	10.6420
 3.6060	10.7700
 3.6080	10.7670
 3.6110	10.7600
 3.6140	10.9220
 3.6160	10.9800
 3.6190	11.0210
 3.6210	11.1050
 3.6240	11.2060
 3.6260	11.2200
 3.6290	11.2090
 3.6310	11.1590
 3.6340	11.1080
 3.6360	11.0660
 3.6390	11.0550
 3.6410	11.1380
 3.6440	11.1940
 3.6470	11.1730
 3.6490	11.2080
 3.6520	11.2070
 3.6540	11.2310
 3.6570	11.2140
 3.6590	11.2250
 3.6620	11.2660
 3.6650	11.3610
 3.6670	11.2960
 3.6700	11.3220
 3.6720	11.4170
 3.6750	11.4650
 3.6780	11.4050
 3.6800	11.4680
 3.6830	11.5280
 3.6850	11.4890
 3.6880	11.4920
 3.6910	11.5810
 3.6930	11.5850
 3.6960	11.5980
 3.6990	11.5970
 3.7010	11.5760
 3.7040	11.5980
 3.7060	11.7090
 3.7090	11.6680
 3.7120	11.5510
 3.7140	11.5470
 3.7170	11.6880
 3.7200	11.8100
 3.7220	11.9220
 3.7250	11.7290
 3.7280	11.5820
 3.7300	11.6320
 3.7330	11.8290
 3.7360	11.9100
 3.7390	11.9530
 3.7410	11.8610
 3.7440	11.8150
 3.7470	11.7430
 3.7490	11.7330
 3.7520	11.7690
 3.7550	11.8560
 3.7580	11.8100
 3.7600	11.7600
 3.7630	11.7220
 3.7660	11.6660
 3.7680	11.7190
 3.7710	11.8780
 3.7740	11.9110
 3.7770	11.9230
 3.7790	11.9620
 3.7820	12.0830
 3.7850	12.0940
 3.7880	12.0680
 3.7900	12.1560
 3.7930	12.2340
 3.7960	12.1990
 3.7990	12.2540
 3.8020	12.2480
 3.8040	12.2120
 3.8070	12.1870
 3.8100	12.2400
 3.8130	12.2650
 3.8160	12.3260
 3.8180	12.4010
 3.8210	12.4610
 3.8240	12.4260
 3.8270	12.4770
 3.8300	12.6140
 3.8330	12.7620
 3.8350	12.6700
 3.8380	12.6200
 3.8410	12.6900
 3.8440	12.6750
 3.8470	12.6620
 3.8500	12.7990
 3.8520	12.9010
 3.8550	12.9260
 3.8580	12.9050
 3.8610	12.8990
 3.8640	12.8590
 3.8670	12.9090
 3.8700	12.9350
 3.8730	12.9390
 3.8750	12.9490
 3.8780	13.0180
 3.8810	13.0320
 3.8840	13.0840
 3.8870	13.1710
 3.8900	13.3290
 3.8930	13.3550
 3.8960	13.4190
 3.8990	13.4520
 3.9020	13.3990
 3.9050	13.4030
 3.9080	13.4700
 3.9110	13.4760
 3.9140	13.4800
 3.9160	13.4890
 3.9190	13.6080
 3.9220	13.6370
 3.9250	13.6760
 3.9280	13.6830
 3.9310	13.6660
 3.9340	13.6630
 3.9370	13.7190
 3.9400	13.7800
 3.9430	13.8510
 3.9460	13.8920
 3.9490	13.9460
 3.9520	13.9610
 3.9550	13.9710
 3.9580	14.0210
 3.9610	14.1110
 3.9640	14.1760
 3.9670	14.2060
 3.9700	14.1900
 3.9730	14.2710
 3.9770	14.3290
 3.9800	14.3920
 3.9830	14.4740
 3.9860	14.5800
 3.9890	14.6310
 3.9920	14.6830
 3.9950	14.7160
 3.9980	14.7720
 4.0010	14.8210
 4.0040	14.8910
 4.0070	14.9400
 4.0100	15.0170
 4.0130	15.0540
 4.0170	15.1000
 4.0200	15.2180
 4.0230	15.3440
 4.0260	15.3100
 4.0290	15.3530
 4.0320	15.4320
 4.0350	15.5270
 4.0380	15.5520
 4.0420	15.5640
 4.0450	15.6090
 4.0480	15.7080
 4.0510	15.7330
 4.0540	15.8330
 4.0570	15.9170
 4.0610	15.8540
 4.0640	15.8880
 4.0670	15.9810
 4.0700	16.0360
 4.0730	16.0840
 4.0770	16.1260
 4.0800	16.2160
 4.0830	16.2360
 4.0860	16.3360
 4.0890	16.3420
 4.0930	16.2800
 4.0960	16.3240
 4.0990	16.4250
 4.1020	16.4410
 4.1060	16.5420
 4.1090	16.6770
 4.1120	16.6830
 4.1150	16.7430
 4.1190	16.7840
 4.1220	16.7480
 4.1250	16.7950
 4.1280	16.8490
 4.1320	16.8850
 4.1350	16.8880
 4.1380	16.9250
 4.1420	16.9660
 4.1450	16.9510
 4.1480	16.9120
 4.1520	16.9510
 4.1550	16.9890
 4.1580	17.0500
 4.1620	17.1060
 4.1650	17.1780
 4.1680	17.2130
 4.1720	17.1890
 4.1750	17.2220
 4.1780	17.2900
 4.1820	17.3270
 4.1850	17.3750
 4.1890	17.3860
 4.1920	17.3700
 4.1950	17.4010
 4.1990	17.3690
 4.2020	17.2920
 4.2060	17.3840
 4.2090	17.4440
 4.2120	17.2970
 4.2160	17.2120
 4.2190	17.2070
 4.2230	17.1010
 4.2260	17.0280
 4.2300	16.9590
 4.2330	17.0030
 4.2360	17.0850
 4.2400	17.1880
 4.2430	17.1520
 4.2470	17.2150
 4.2500	17.2260
 4.2540	17.2410
 4.2570	17.2880
 4.2610	17.4100
 4.2640	17.5490
 4.2680	17.5730
 4.2710	17.5710
 4.2750	17.5060
 4.2780	17.3230
 4.2820	17.3130
 4.2850	17.3850
 4.2890	17.4830
 4.2930	17.6100
 4.2960	17.5670
 4.3000	17.5230
 4.3030	17.6320
 4.3070	17.6160
 4.3100	17.5370
 4.3140	17.5790
 4.3180	17.7010
 4.3210	17.7140
 4.3250	17.6990
 4.3280	17.7280
 4.3320	17.8460
 4.3360	17.8930
 4.3390	17.9200
 4.3430	17.9090
 4.3470	17.8820
 4.3500	17.8220
 4.3540	17.8360
 4.3570	17.8400
 4.3610	17.8420
 4.3650	17.9120
 4.3680	17.9900
 4.3720	17.9790
 4.3760	17.9980
 4.3800	17.9820
 4.3830	17.9580
 4.3870	17.9510
 4.3910	17.9110
 4.3940	17.8670
 4.3980	17.8730
 4.4020	17.8610
 4.4060	17.9200
 4.4090	18.0110
 4.4130	17.9210
 4.4170	17.8450
 4.4210	17.8800
 4.4240	17.8890
 4.4280	17.9480
 4.4320	17.9640
 4.4360	17.9580
 4.4400	17.9670
 4.4430	18.0170
 4.4470	18.0100
 4.4510	17.9320
 4.4550	17.8720
 4.4590	17.8770
 4.4620	17.8820
 4.4660	17.8840
 4.4700	17.8630
 4.4740	17.8420
 4.4780	17.8790
 4.4820	17.9230
 4.4860	17.9220
 4.4900	17.9090
 4.4930	17.8110
 4.4970	17.7820
 4.5010	17.7840
 4.5050	17.7550
 4.5090	17.7630
 4.5130	17.7610
 4.5170	17.6760
 4.5210	17.6620
 4.5250	17.7150
 4.5290	17.7720
 4.5330	17.7530
 4.5370	17.7340
 4.5410	17.7040
 4.5450	17.6990
 4.5490	17.6900
 4.5530	17.6380
 4.5570	17.6510
 4.5610	17.6840
 4.5650	17.7100
 4.5690	17.6420
 4.5730	17.5540
 4.5770	17.5450
 4.5810	17.5550
 4.5850	17.5570
 4.5890	17.5580
 4.5930	17.6540
 4.5970	17.6720
 4.6010	17.5780
 4.6050	17.4540
 4.6090	17.4220
 4.6130	17.5720
 4.6170	17.5890
 4.6220	17.6050
 4.6260	17.6410
 4.6300	17.6410
 4.6340	17.6170
 4.6380	17.5130
 4.6420	17.4530
 4.6460	17.5090
 4.6510	17.5240
 4.6550	17.4770
 4.6590	17.5080
 4.6630	17.5430
 4.6670	17.5410
 4.6720	17.5370
 4.6760	17.5770
 4.6800	17.5930
 4.6840	17.5930
 4.6880	17.5270
 4.6930	17.5540
 4.6970	17.6170
 4.7010	17.6260
 4.7050	17.5530
 4.7100	17.5980
 4.7140	17.6150
 4.7180	17.5170
 4.7230	17.5040
 4.7270	17.5590
 4.7310	17.5740
 4.7360	17.5360
 4.7400	17.5840
 4.7440	17.6100
 4.7490	17.6450
 4.7530	17.6910
 4.7570	17.6830
 4.7620	17.7120
 4.7660	17.7190
 4.7700	17.6500
 4.7750	17.6790
 4.7790	17.8090
 4.7840	17.6350
 4.7880	17.4230
 4.7920	17.5330
 4.7970	17.5860
 4.8010	17.6780
 4.8060	17.8140
 4.8100	17.7850
 4.8150	17.7760
 4.8190	17.8020
 4.8240	17.8190
 4.8280	17.8330
 4.8330	17.8100
 4.8370	17.8230
 4.8420	17.8380
 4.8460	17.7830
 4.8510	17.7450
 4.8550	17.8510
 4.8600	17.9040
 4.8640	17.8980
 4.8690	17.9200
 4.8730	17.9070
 4.8780	17.8910
 4.8830	17.8880
 4.8870	17.8610
 4.8920	17.8420
 4.8960	17.8330
 4.9010	17.8910
 4.9060	17.9320
 4.9100	17.9700
 4.9150	17.9570
 4.9200	17.9450
 4.9240	17.9670
 4.9290	17.9660
 4.9340	17.9790
 4.9380	17.9470
 4.9430	17.9800
 4.9480	18.0490
 4.9530	18.0560
 4.9570	18.0830
 4.9620	18.0770
 4.9670	18.0830
 4.9720	18.1720
 4.9760	18.2290
 4.9810	18.2500
 4.9860	18.3060
 4.9910	18.2530
 4.9960	18.2520
 5.0000	18.2260
 5.0050	18.1980
 5.0100	18.2640
 5.0150	18.2860
 5.0200	18.3090
 5.0250	18.3710
 5.0290	18.3730
 5.0340	18.3600
 5.0390	18.4090
 5.0440	18.4600
 5.0490	18.4920
 5.0540	18.4910
 5.0590	18.4470
 5.0640	18.4440
 5.0690	18.4670
 5.0740	18.4760
 5.0790	18.4920
 5.0840	18.4620
 5.0890	18.4970
 5.0940	18.5520
 5.0990	18.4860
 5.1040	18.4620
 5.1090	18.5040
 5.1140	18.4910
 5.1190	18.4600
 5.1240	18.5020
 5.1290	18.5210
 5.1340	18.5480
 5.1390	18.5260
 5.1440	18.4950
 5.1490	18.4810
 5.1540	18.4920
 5.1600	18.5590
 5.1650	18.6220
 5.1700	18.6170
 5.1750	18.5870
 5.1800	18.5260
 5.1850	18.5320
 5.1910	18.5440
 5.1960	18.5400
 5.2010	18.4950
 5.2060	18.5040
 5.2110	18.4460
 5.2170	18.3950
 5.2220	18.3940
 5.2270	18.3930
 5.2320	18.3510
 5.2380	18.3430
 5.2430	18.3580
 5.2480	18.3590
 5.2540	18.3110
 5.2590	18.2470
 5.2640	18.2180
 5.2700	18.2080
 5.2750	18.1830
 5.2800	18.1950
 5.2860	18.1660
 5.2910	18.1070
 5.2970	18.0420
 5.3020	17.9940
 5.3070	17.9790
 5.3130	17.9640
 5.3180	17.9500
 5.3240	17.9690
 5.3290	17.9540
 5.3350	17.9720
 5.3400	17.9220
 5.3460	17.8290
 5.3510	17.7370
 5.3570	17.7370
 5.3620	17.7230
 5.3680	17.6830
 5.3730	17.6460
 5.3790	17.6510
 5.3850	17.6010
 5.3900	17.5580
 5.3960	17.5370
 5.4010	17.5430
 5.4070	17.5280
 5.4130	17.5310
 5.4180	17.4480
 5.4240	17.3650
 5.4300	17.3040
 5.4350	17.2580
 5.4410	17.1610
 5.4470	17.1220
 5.4530	17.0400
 5.4580	16.9570
 5.4640	16.8970
 5.4700	16.8280
 5.4760	16.7320
 5.4810	16.7020
 5.4870	16.6170
 5.4930	16.5620
 5.4990	16.4500
 5.5050	16.3260
 5.5110	16.1770
 5.5160	16.0040
 5.5220	15.8190
 5.5280	15.7610
 5.5340	15.6940
 5.5400	15.5180
 5.5460	15.3200
 5.5520	15.1490
 5.5580	14.9080
 5.5640	14.6900
 5.5700	14.4790
 5.5760	14.2600
 5.5820	14.0210
 5.5880	13.8030
 5.5940	13.4940
 5.6000	13.2670
 5.6060	13.0030
 5.6120	12.6910
 5.6180	12.4190
 5.6240	12.1760
 5.6300	11.9130
 5.6360	11.6720
 5.6420	11.3260
 5.6490	10.9910
 5.6550	10.6040
 5.6610	10.2300
 5.6670	 9.8090
 5.6730	 9.3800
 5.6800	 8.9610
 5.6860	 8.5950
 5.6920	 8.1790
 5.6980	 7.7730
 5.7040	 7.3290
 5.7110	 6.8870
 5.7170	 6.4490
 5.7230	 6.0600
 5.7300	 5.6530
 5.7360	 5.3340
 5.7420	 5.0230
 5.7490	 4.8720
 5.7550	 4.7400
 5.7620	 4.6980
 5.7680	 4.7080
 5.7740	 4.8370
 5.7810	 4.9250
 5.7870	 5.0400
 5.7940	 5.1250
 5.8000	 5.2910
 5.8070	 5.3600
 5.8130	 5.3930
 5.8200	 5.4390
 5.8260	 5.5440
 5.8330	 5.6930
 5.8390	 5.8210
 5.8460	 5.8380
 5.8530	 5.9020
 5.8590	 5.9470
 5.8660	 6.0070
 5.8720	 6.0120
 5.8790	 5.9950
 5.8860	 5.8510
 5.8920	 5.7640
 5.8990	 5.6610
 5.9060	 5.6090
 5.9130	 5.4700
 5.9190	 5.4240
 5.9260	 5.4690
 5.9330	 5.6970
 5.9400	 6.0110
 5.9470	 6.4360
 5.9530	 6.7970
 5.9600	 7.1950
 5.9670	 7.4390
 5.9740	 7.7060
 5.9810	 7.8860
 5.9880	 7.9880
 5.9950	 8.0080
 6.0020	 8.0740
 6.0090	 7.9960
 6.0160	 7.9300
 6.0230	 7.9370
 6.0300	 8.0010
 6.0370	 7.9800
 6.0440	 7.9690
 6.0510	 7.9130
 6.0580	 8.0260
 6.0650	 8.0970
 6.0720	 8.0770
 6.0790	 8.0140
 6.0860	 8.0660
 6.0930	 8.1350
 6.1000	 8.2490
 6.1080	 8.2940
 6.1150	 8.3650
 6.1220	 8.3400
 6.1290	 8.4680
 6.1370	 8.5450
 6.1440	 8.5390
 6.1510	 8.4730
 6.1580	 8.5200
 6.1660	 8.4700
 6.1730	 8.4220
 6.1800	 8.3960
 6.1880	 8.4560
 6.1950	 8.3500
 6.2030	 8.2540
 6.2100	 8.0810
 6.2170	 8.0260
 6.2250	 8.0170
 6.2320	 8.1940
 6.2400	 8.4750
 6.2470	 8.8420
 6.2550	 9.1550
 6.2630	 9.4920
 6.2700	 9.6200
 6.2780	 9.8120
 6.2850	10.0060
 6.2930	10.1750
 6.3010	10.2810
 6.3080	10.6070
 6.3160	10.7500
 6.3240	10.8700
 6.3310	11.0060
 6.3390	11.2220
 6.3470	11.3710
 6.3550	11.5850
 6.3620	11.6510
 6.3700	11.7590
 6.3780	11.8200
 6.3860	11.9730
 6.3940	12.0200
 6.4020	12.1010
 6.4100	12.1090
 6.4180	12.1950
 6.4260	12.2280
 6.4330	12.3180
 6.4410	12.3150
 6.4490	12.3190
 6.4580	12.2880
 6.4660	12.3550
 6.4740	12.4440
 6.4820	12.5650
 6.4900	12.4900
 6.4980	12.4970
 6.5060	12.5610
 6.5140	12.6180
 6.5230	12.5730
 6.5310	12.6040
 6.5390	12.5760
 6.5470	12.6140
 6.5550	12.5050
 6.5640	12.4710
 6.5720	12.3240
 6.5800	12.1840
 6.5890	12.0530
 6.5970	12.0880
 6.6060	12.1940
 6.6140	12.2950
 6.6220	12.2800
 6.6310	12.2930
 6.6390	12.2090
 6.6480	12.3100
 6.6560	12.2850
 6.6650	12.2650
 6.6740	12.1810
 6.6820	12.0360
 6.6910	11.8550
 6.6990	11.8060
 6.7080	11.6100
 6.7170	11.3120
 6.7260	10.8910
 6.7340	10.5340
 6.7430	10.0460
 6.7520	 9.6850
 6.7610	 9.3000
 6.7690	 8.8830
 6.7780	 8.3430
 6.7870	 7.8850
 6.7960	 7.4380
 6.8050	 7.0870
 6.8140	 6.7010
 6.8230	 6.5690
 6.8320	 6.5030
 6.8410	 6.5680
 6.8500	 6.5510
 6.8590	 6.5840
 6.8680	 6.5430
 6.8770	 6.6890
 6.8860	 6.9180
 6.8950	 7.1650
 6.9050	 7.1350
 6.9140	 7.1410
 6.9230	 7.1420
 6.9320	 7.2270
 6.9420	 7.1980
 6.9510	 7.3290
 6.9600	 7.2690
 6.9700	 7.3010
 6.9790	 7.2650
 6.9880	 7.2880
 6.9980	 7.2170
 7.0070	 7.3380
 7.0170	 7.4100
 7.0260	 7.4840
 7.0360	 7.5410
 7.0450	 7.5810
 7.0550	 7.4840
 7.0650	 7.5980
 7.0740	 7.6620
 7.0840	 7.7790
 7.0940	 7.7510
 7.1030	 7.8310
 7.1130	 7.9320
 7.1230	 8.0630
 7.1330	 7.9540
 7.1420	 7.9280
 7.1520	 7.7600
 7.1620	 7.7370
 7.1720	 7.6070
 7.1820	 7.4380
 7.1920	 7.0120
 7.2020	 6.7650
 7.2120	 6.7710
 7.2220	 6.9840
 7.2320	 6.9750
 7.2420	 6.9560
 7.2520	 6.8090
 7.2620	 6.6880
 7.2730	 6.5830
 7.2830	 6.7350
 7.2930	 6.7270
 7.3030	 6.7370
 7.3140	 6.6900
 7.3240	 6.8040
 7.3340	 6.8540
 7.3450	 6.9630
 7.3550	 6.8780
 7.3660	 6.9560
 7.3760	 6.9920
 7.3870	 7.1500
 7.3970	 7.2000
 7.4080	 7.3030
 7.4180	 7.2790
 7.4290	 7.2460
 7.4400	 7.1790
 7.4500	 7.1870
 7.4610	 7.0970
 7.4720	 7.1040
 7.4830	 6.9850
 7.4930	 6.9740
 7.5040	 6.9260
 7.5150	 6.9600
 7.5260	 6.7720
 7.5370	 6.7430
 7.5480	 6.6910
 7.5590	 6.6120
 7.5700	 6.4050
 7.5810	 6.4090
 7.5920	 6.3140
 7.6030	 6.4080
 7.6140	 6.4840
 7.6260	 6.6410
 7.6370	 6.7020
 7.6480	 6.8440
 7.6590	 6.8440
 7.6710	 6.9450
 7.6820	 6.8550
 7.6930	 6.8610
 7.7050	 6.8020
 7.7160	 6.8770
 7.7280	 6.8040
 7.7390	 6.7400
 7.7510	 6.6050
 7.7630	 6.6640
 7.7740	 6.5540
 7.7860	 6.4810
 7.7980	 6.4120
 7.8090	 6.4930
 7.8210	 6.4180
 7.8330	 6.3770
 7.8450	 6.2110
 7.8570	 6.2500
 7.8690	 6.1670
 7.8810	 6.2690
 7.8930	 6.3160
 7.9050	 6.4170
 7.9170	 6.3280
 7.9290	 6.3720
 7.9410	 6.2840
 7.9530	 6.3580
 7.9650	 6.2330
 7.9780	 6.2310
 7.9900	 6.1310
 8.0020	 6.1740
 8.0150	 6.0900
 8.0270	 6.1870
 8.0390	 6.0880
 8.0520	 6.1620
 8.0640	 6.1870
 8.0770	 6.3410
 8.0900	 6.3660
 8.1020	 6.4830
 8.1150	 6.4090
 8.1280	 6.4680
 8.1400	 6.3300
 8.1530	 6.5370
 8.1660	 6.5900
 8.1790	 6.8030
 8.1920	 6.7290
 8.2050	 6.8290
 8.2180	 6.7510
 8.2310	 6.8200
 8.2440	 6.7380
 8.2570	 6.9310
 8.2700	 6.8460
 8.2830	 6.8580
 8.2970	 6.6320
 8.3100	 6.7360
 8.3230	 6.6630
 8.3370	 6.6820
 8.3500	 6.6040
 8.3640	 6.6410
 8.3770	 6.4370
 8.3910	 6.4750
 8.4040	 6.3000
 8.4180	 6.3640
 8.4320	 6.2380
 8.4450	 6.2640
 8.4590	 6.1240
 8.4730	 6.1320
 8.4870	 6.0200
 8.5010	 6.0830
 8.5150	 5.9170
 8.5290	 5.9540
 8.5430	 5.8230
 8.5570	 5.8670
 8.5710	 5.7230
 8.5850	 5.7370
 8.5990	 5.6650
 8.6140	 5.8840
 8.6280	 5.9300
 8.6420	 6.0910
 8.6570	 5.9800
 8.6710	 6.0920
 8.6860	 6.1250
 8.7000	 6.3850
 8.7150	 6.3490
 8.7300	 6.4620
 8.7440	 6.5350
 8.7590	 6.6740
 8.7740	 6.7020
 8.7890	 6.8020
 8.8040	 6.5470
 8.8190	 6.5560
 8.8340	 6.4790
 8.8490	 6.6550
 8.8640	 6.3970
 8.8790	 6.2170
 8.8940	 5.9990
 8.9100	 6.0450
 8.9250	 5.8870
 8.9400	 5.9450
 8.9560	 5.6640
 8.9710	 5.6510
 8.9870	 5.4910
 9.0020	 5.5720
 9.0180	 5.3980
 9.0340	 5.4820
 9.0500	 5.3150
 9.0650	 5.4580
 9.0810	 5.4570
 9.0970	 5.6530
 9.1130	 5.6180
 9.1290	 5.7640
 9.1450	 5.6210
 9.1610	 5.6740
 9.1780	 5.5790
 9.1940	 5.7010
 9.2100	 5.5180
 9.2270	 5.5080
 9.2430	 5.3810
 9.2600	 5.4890
 9.2760	 5.3000
 9.2930	 5.4070
 9.3090	 5.2030
 9.3260	 5.2320
 9.3430	 4.9820
 9.3600	 5.1960
 9.3770	 5.1110
 9.3940	 5.1490
 9.4110	 4.9880
 9.4280	 5.0340
 9.4450	 4.9830
 9.4620	 5.1810
 9.4800	 5.0840
 9.4970	 5.2380
 9.5140	 5.1390
 9.5320	 5.2810
 9.5500	 5.2670
 9.5670	 5.5230
 9.5850	 5.3930
 9.6030	 5.4610
 9.6200	 5.3170
 9.6380	 5.4920
 9.6560	 5.3340
 9.6740	 5.3760
 9.6920	 5.2720
 9.7100	 5.6290
 9.7290	 5.5370
 9.7470	 5.6550
 9.7650	 5.6950
 9.7840	 5.9450
 9.8020	 5.9120
 9.8210	 6.1060
 9.8390	 6.0600
 9.8580	 6.3630
 9.8770	 6.1860
 9.8960	 6.3540
 9.9150	 6.3880
 9.9340	 6.5370
 9.9530	 6.4140
 9.9720	 6.6770
 9.9910	 6.6070
10.0100	 6.6760
10.0300	 6.6180
10.0490	 6.9200
10.0690	 7.0330
10.0880	 7.2320
10.1080	 7.0980
10.1280	 7.3430
10.1480	 7.4380
10.1670	 7.7190
10.1870	 7.7120
10.2070	 7.9890
10.2280	 8.0370
10.2480	 8.1120
10.2680	 7.9540
10.2890	 8.1150
10.3090	 8.0580
10.3300	 8.2930
10.3500	 8.1640
10.3710	 8.1650
10.3920	 8.0600
10.4120	 8.2910
10.4330	 8.2860
10.4540	 8.5200
10.4760	 8.4190
10.4970	 8.4890
10.5180	 8.4070
10.5390	 8.6620
10.5610	 8.7520
10.5820	 9.0720
10.6040	 9.0960
10.6260	 9.3640
10.6480	 9.3120
10.6700	 9.4750
10.6920	 9.3800
10.7140	 9.5530
10.7360	 9.4570
10.7580	 9.6510
10.7800	 9.5410
10.8030	 9.5550
10.8250	 9.2660
10.8480	 9.2790
10.8710	 9.0410
10.8940	 9.2460
10.9170	 9.2100
10.9400	 9.2820
10.9630	 9.1790
10.9860	 9.3460
11.0090	 9.1130
11.0330	 9.2860
11.0560	 9.2320
11.0800	 9.3310
11.1040	 8.8790
11.1270	 8.9800
11.1510	 9.0280
11.1750	 9.1840
11.2000	 9.0450
11.2240	 9.2000
11.2480	 9.1500
11.2730	 9.8010
11.2970	10.2370
11.3220	 9.8560
11.3470	 9.1970
11.3720	 9.5130
11.3970	 9.6050
11.4220	 9.8030
11.4470	 9.7120
11.4720	 9.9770
11.4980	 9.7140
11.5230	 9.6900
11.5490	 9.5960
11.5750	 9.7490
11.6000	 9.6160
11.6260	 9.7290
11.6530	 9.3790
11.6790	 9.4820
11.7050	 9.2340
11.7320	 9.3830
11.7580	 9.2310
11.7850	 9.3580
11.8120	 9.1600
11.8390	 9.2880
11.8660	 9.1270
11.8930	 9.2100
11.9200	 8.6320
11.9480	 8.6000
11.9760	 8.4310
12.0030	 8.5650
12.0310	 8.3560
12.0590	 8.5600
12.0870	 8.3770
12.1150	 8.6280
12.1440	 8.5110
12.1720	 8.5620
12.2010	 8.2130
12.2300	 8.4520
12.2590	 8.1690
12.2880	 8.2680
12.3170	 7.8920
12.3460	 7.9890
12.3760	 7.8960
12.4050	 8.2540
12.4350	 8.0260
12.4650	 7.9960
12.4950	 7.7560
12.5250	 7.9960
12.5550	 7.8130
12.5860	 8.0400
12.6170	 7.8180
12.6470	 7.8200
12.6780	 7.5140
12.7090	 7.7790
12.7410	 7.4710
12.7720	 7.4090
12.8030	 7.0470
12.8350	 7.2230
12.8670	 6.8520
12.8990	 7.0220
12.9310	 6.8350
12.9640	 7.0030
12.9960	 6.7890
13.0290	 6.9910
13.0610	 6.7400
13.0940	 7.0260
13.1280	 6.9310
13.1610	 7.1750
13.1940	 6.9550
13.2280	 7.2380
13.2620	 7.0950
13.2960	 7.0750
13.3300	 6.7140
13.3640	 7.0480
13.3990	 6.7050
13.4340	 6.9220
13.4690	 6.6780
13.5040	 6.8530
13.5390	 6.5560
13.5740	 6.9020
13.6100	 6.5650
13.6460	 6.4890
13.6820	 6.1920
13.7180	 6.5070
13.7540	 5.9700
13.7910	 6.1980
13.8280	 5.9440
13.8650	 6.2160
13.9020	 6.1480
13.9390	 6.4770
13.9770	 6.2830
14.0150	 6.5420
14.0530	 5.9720
14.0910	 6.1080
14.1290	 5.5920
14.1680	 6.0790
14.2070	 6.0030
14.2460	 6.1880
14.2850	 5.7970
14.3240	 6.0970
14.3640	 5.7320
14.4040	 6.2000
14.4440	 5.7200
14.4840	 6.0210
14.5250	 5.4780
14.5660	 5.8070
14.6070	 5.2790
14.6480	 5.6300
14.6900	 5.3630
14.7310	 5.6670
14.7730	 5.0590
14.8150	 5.6220
14.8580	 5.2800
14.9010	 6.0860
14.9440	 7.1210
14.9870	 7.4740
15.0300	 5.1570
15.0740	 5.5550
15.1180	 4.7530
15.1620	 5.1240
15.2060	 4.7450
15.2510	 5.8700
15.2960	 5.3790
15.3410	 6.0320
15.3870	 5.2610
