Name: Prunus serotina
Type: Vegetation
Class: Tree
Genus: Prunus
Species: serotina
Sample No.: PRSE-2-65
Owner: UCSB
Wavelength Range: VSWIR
Origin: USA; Massachusetts; Harvard Forest
Collection Date: 7/8/2013
Description: Samples were collected as part of NSF Macrosystem Biology proposal titled: Collaborative Research: Thermal controls on ecosystem metabolism and function: scaling from leaves to canopies to regions. Samples were collected and overnighted to JPL facilities for processing. The same leaves were processed in the Nicolet and then measured using the ASD.
Measurement: Bidirectional reflectance
First Column: X
Second Column: Y
X Units: Wavelength (micrometers)
Y Units: Reflectance (percentage)
First X Value: 0.35
Last X Value: 2.5
Number of X Values: 2151
Additional Information: vegetation.tree.prunus.serotina.vswir.prse-2-65.ucsb.asd.ancillary.txt

 0.3500	 5.6000
 0.3510	 5.4750
 0.3520	 5.6290
 0.3530	 5.7350
 0.3540	 5.5330
 0.3550	 5.4340
 0.3560	 5.2740
 0.3570	 5.1570
 0.3580	 5.2790
 0.3590	 5.3480
 0.3600	 5.3550
 0.3610	 5.3390
 0.3620	 5.3600
 0.3630	 5.3130
 0.3640	 5.3250
 0.3650	 5.4850
 0.3660	 5.5310
 0.3670	 5.4390
 0.3680	 5.3060
 0.3690	 5.2960
 0.3700	 5.3060
 0.3710	 5.3630
 0.3720	 5.4420
 0.3730	 5.3860
 0.3740	 5.4150
 0.3750	 5.4170
 0.3760	 5.2730
 0.3770	 5.3690
 0.3780	 5.4000
 0.3790	 5.3270
 0.3800	 5.3450
 0.3810	 5.3170
 0.3820	 5.2880
 0.3830	 5.2870
 0.3840	 5.2220
 0.3850	 5.3570
 0.3860	 5.4790
 0.3870	 5.3120
 0.3880	 5.2990
 0.3890	 5.2990
 0.3900	 5.2600
 0.3910	 5.2630
 0.3920	 5.3090
 0.3930	 5.3540
 0.3940	 5.3680
 0.3950	 5.3860
 0.3960	 5.3610
 0.3970	 5.3390
 0.3980	 5.3850
 0.3990	 5.3440
 0.4000	 5.3150
 0.4010	 5.3350
 0.4020	 5.3220
 0.4030	 5.3910
 0.4040	 5.4330
 0.4050	 5.3630
 0.4060	 5.3600
 0.4070	 5.3850
 0.4080	 5.4230
 0.4090	 5.4680
 0.4100	 5.4200
 0.4110	 5.3770
 0.4120	 5.3960
 0.4130	 5.4060
 0.4140	 5.4580
 0.4150	 5.5020
 0.4160	 5.4810
 0.4170	 5.4830
 0.4180	 5.4780
 0.4190	 5.4690
 0.4200	 5.4920
 0.4210	 5.5220
 0.4220	 5.5290
 0.4230	 5.5100
 0.4240	 5.5310
 0.4250	 5.5490
 0.4260	 5.5490
 0.4270	 5.5350
 0.4280	 5.5390
 0.4290	 5.5550
 0.4300	 5.5700
 0.4310	 5.5660
 0.4320	 5.5810
 0.4330	 5.6010
 0.4340	 5.6040
 0.4350	 5.6110
 0.4360	 5.6150
 0.4370	 5.6120
 0.4380	 5.6040
 0.4390	 5.5900
 0.4400	 5.5860
 0.4410	 5.5940
 0.4420	 5.5780
 0.4430	 5.5870
 0.4440	 5.5970
 0.4450	 5.5670
 0.4460	 5.5750
 0.4470	 5.5810
 0.4480	 5.5770
 0.4490	 5.5940
 0.4500	 5.6260
 0.4510	 5.6370
 0.4520	 5.6120
 0.4530	 5.6180
 0.4540	 5.6260
 0.4550	 5.6250
 0.4560	 5.6200
 0.4570	 5.6140
 0.4580	 5.6090
 0.4590	 5.6090
 0.4600	 5.6200
 0.4610	 5.6320
 0.4620	 5.6370
 0.4630	 5.6300
 0.4640	 5.6330
 0.4650	 5.6280
 0.4660	 5.6210
 0.4670	 5.6380
 0.4680	 5.6360
 0.4690	 5.6190
 0.4700	 5.6050
 0.4710	 5.6190
 0.4720	 5.6260
 0.4730	 5.6240
 0.4740	 5.6280
 0.4750	 5.6340
 0.4760	 5.6420
 0.4770	 5.6470
 0.4780	 5.6360
 0.4790	 5.6370
 0.4800	 5.6420
 0.4810	 5.6380
 0.4820	 5.6370
 0.4830	 5.6420
 0.4840	 5.6520
 0.4850	 5.6550
 0.4860	 5.6530
 0.4870	 5.6550
 0.4880	 5.6680
 0.4890	 5.6890
 0.4900	 5.6920
 0.4910	 5.6880
 0.4920	 5.7000
 0.4930	 5.7040
 0.4940	 5.7170
 0.4950	 5.7430
 0.4960	 5.7550
 0.4970	 5.7720
 0.4980	 5.7990
 0.4990	 5.8360
 0.5000	 5.8560
 0.5010	 5.8910
 0.5020	 5.9400
 0.5030	 5.9830
 0.5040	 6.0370
 0.5050	 6.0990
 0.5060	 6.1660
 0.5070	 6.2440
 0.5080	 6.3390
 0.5090	 6.4480
 0.5100	 6.5670
 0.5110	 6.7060
 0.5120	 6.8600
 0.5130	 7.0260
 0.5140	 7.2090
 0.5150	 7.4070
 0.5160	 7.6260
 0.5170	 7.8640
 0.5180	 8.1110
 0.5190	 8.3660
 0.5200	 8.6330
 0.5210	 8.9150
 0.5220	 9.1990
 0.5230	 9.4730
 0.5240	 9.7350
 0.5250	10.0010
 0.5260	10.2540
 0.5270	10.4900
 0.5280	10.7080
 0.5290	10.9120
 0.5300	11.0970
 0.5310	11.2620
 0.5320	11.4070
 0.5330	11.5370
 0.5340	11.6540
 0.5350	11.7620
 0.5360	11.8440
 0.5370	11.9110
 0.5380	11.9730
 0.5390	12.0360
 0.5400	12.0980
 0.5410	12.1570
 0.5420	12.2120
 0.5430	12.2550
 0.5440	12.3040
 0.5450	12.3530
 0.5460	12.3910
 0.5470	12.3940
 0.5480	12.3890
 0.5490	12.3940
 0.5500	12.4090
 0.5510	12.4160
 0.5520	12.4120
 0.5530	12.3950
 0.5540	12.3590
 0.5550	12.3140
 0.5560	12.2580
 0.5570	12.1810
 0.5580	12.0920
 0.5590	11.9900
 0.5600	11.8730
 0.5610	11.7370
 0.5620	11.5920
 0.5630	11.4390
 0.5640	11.2770
 0.5650	11.1070
 0.5660	10.9280
 0.5670	10.7440
 0.5680	10.5640
 0.5690	10.3810
 0.5700	10.1940
 0.5710	10.0070
 0.5720	 9.8410
 0.5730	 9.6840
 0.5740	 9.5330
 0.5750	 9.3880
 0.5760	 9.2630
 0.5770	 9.1450
 0.5780	 9.0260
 0.5790	 8.9180
 0.5800	 8.8140
 0.5810	 8.7140
 0.5820	 8.6260
 0.5830	 8.5440
 0.5840	 8.4670
 0.5850	 8.3970
 0.5860	 8.3370
 0.5870	 8.2750
 0.5880	 8.2130
 0.5890	 8.1560
 0.5900	 8.1010
 0.5910	 8.0510
 0.5920	 8.0090
 0.5930	 7.9720
 0.5940	 7.9430
 0.5950	 7.9120
 0.5960	 7.8790
 0.5970	 7.8500
 0.5980	 7.8230
 0.5990	 7.8000
 0.6000	 7.7760
 0.6010	 7.7400
 0.6020	 7.6990
 0.6030	 7.6590
 0.6040	 7.6170
 0.6050	 7.5700
 0.6060	 7.5180
 0.6070	 7.4610
 0.6080	 7.4000
 0.6090	 7.3470
 0.6100	 7.2990
 0.6110	 7.2500
 0.6120	 7.1910
 0.6130	 7.1200
 0.6140	 7.0430
 0.6150	 6.9840
 0.6160	 6.9280
 0.6170	 6.8790
 0.6180	 6.8380
 0.6190	 6.7980
 0.6200	 6.7610
 0.6210	 6.7270
 0.6220	 6.6960
 0.6230	 6.6740
 0.6240	 6.6550
 0.6250	 6.6360
 0.6260	 6.6140
 0.6270	 6.6030
 0.6280	 6.6000
 0.6290	 6.5940
 0.6300	 6.5840
 0.6310	 6.5720
 0.6320	 6.5580
 0.6330	 6.5420
 0.6340	 6.5230
 0.6350	 6.4960
 0.6360	 6.4580
 0.6370	 6.4190
 0.6380	 6.3750
 0.6390	 6.3260
 0.6400	 6.2750
 0.6410	 6.2190
 0.6420	 6.1650
 0.6430	 6.1170
 0.6440	 6.0660
 0.6450	 6.0190
 0.6460	 5.9770
 0.6470	 5.9430
 0.6480	 5.9090
 0.6490	 5.8750
 0.6500	 5.8470
 0.6510	 5.8310
 0.6520	 5.8180
 0.6530	 5.8030
 0.6540	 5.7870
 0.6550	 5.7790
 0.6560	 5.7650
 0.6570	 5.7480
 0.6580	 5.7360
 0.6590	 5.7210
 0.6600	 5.7090
 0.6610	 5.6970
 0.6620	 5.6760
 0.6630	 5.6670
 0.6640	 5.6650
 0.6650	 5.6620
 0.6660	 5.6630
 0.6670	 5.6670
 0.6680	 5.6740
 0.6690	 5.6880
 0.6700	 5.6990
 0.6710	 5.7160
 0.6720	 5.7400
 0.6730	 5.7700
 0.6740	 5.7930
 0.6750	 5.8180
 0.6760	 5.8520
 0.6770	 5.8850
 0.6780	 5.9200
 0.6790	 5.9600
 0.6800	 6.0070
 0.6810	 6.0520
 0.6820	 6.0950
 0.6830	 6.1410
 0.6840	 6.1940
 0.6850	 6.2420
 0.6860	 6.2970
 0.6870	 6.3700
 0.6880	 6.4530
 0.6890	 6.5610
 0.6900	 6.7030
 0.6910	 6.8840
 0.6920	 7.1270
 0.6930	 7.4370
 0.6940	 7.8220
 0.6950	 8.2950
 0.6960	 8.8520
 0.6970	 9.4920
 0.6980	10.2150
 0.6990	11.0100
 0.7000	11.8710
 0.7010	12.7870
 0.7020	13.7400
 0.7030	14.7180
 0.7040	15.7140
 0.7050	16.7210
 0.7060	17.7250
 0.7070	18.7240
 0.7080	19.7150
 0.7090	20.6950
 0.7100	21.6620
 0.7110	22.6190
 0.7120	23.5620
 0.7130	24.4780
 0.7140	25.3860
 0.7150	26.2780
 0.7160	27.1440
 0.7170	27.9890
 0.7180	28.8160
 0.7190	29.6220
 0.7200	30.4000
 0.7210	31.1530
 0.7220	31.8840
 0.7230	32.5910
 0.7240	33.2640
 0.7250	33.9040
 0.7260	34.5180
 0.7270	35.1090
 0.7280	35.6710
 0.7290	36.2020
 0.7300	36.7060
 0.7310	37.1910
 0.7320	37.6470
 0.7330	38.0720
 0.7340	38.4630
 0.7350	38.8170
 0.7360	39.1710
 0.7370	39.5120
 0.7380	39.8240
 0.7390	40.1110
 0.7400	40.3720
 0.7410	40.6180
 0.7420	40.8560
 0.7430	41.0520
 0.7440	41.2380
 0.7450	41.4210
 0.7460	41.5780
 0.7470	41.7070
 0.7480	41.8280
 0.7490	41.9500
 0.7500	42.0580
 0.7510	42.1480
 0.7520	42.2250
 0.7530	42.2960
 0.7540	42.3520
 0.7550	42.4040
 0.7560	42.4530
 0.7570	42.4970
 0.7580	42.5270
 0.7590	42.5570
 0.7600	42.5930
 0.7610	42.6180
 0.7620	42.6360
 0.7630	42.6500
 0.7640	42.6640
 0.7650	42.6650
 0.7660	42.6720
 0.7670	42.6850
 0.7680	42.6890
 0.7690	42.6910
 0.7700	42.6900
 0.7710	42.6890
 0.7720	42.6920
 0.7730	42.6870
 0.7740	42.6820
 0.7750	42.6820
 0.7760	42.6840
 0.7770	42.6830
 0.7780	42.6800
 0.7790	42.6770
 0.7800	42.6680
 0.7810	42.6640
 0.7820	42.6700
 0.7830	42.6840
 0.7840	42.6800
 0.7850	42.6790
 0.7860	42.6910
 0.7870	42.6800
 0.7880	42.6730
 0.7890	42.6720
 0.7900	42.6730
 0.7910	42.6640
 0.7920	42.6680
 0.7930	42.6790
 0.7940	42.6740
 0.7950	42.6680
 0.7960	42.6750
 0.7970	42.6860
 0.7980	42.6670
 0.7990	42.6490
 0.8000	42.6480
 0.8010	42.6610
 0.8020	42.6590
 0.8030	42.6500
 0.8040	42.6400
 0.8050	42.6320
 0.8060	42.6410
 0.8070	42.6350
 0.8080	42.6170
 0.8090	42.6200
 0.8100	42.6270
 0.8110	42.6210
 0.8120	42.5990
 0.8130	42.5910
 0.8140	42.5910
 0.8150	42.5910
 0.8160	42.5830
 0.8170	42.5770
 0.8180	42.5670
 0.8190	42.5550
 0.8200	42.5500
 0.8210	42.5470
 0.8220	42.5500
 0.8230	42.5500
 0.8240	42.5310
 0.8250	42.5200
 0.8260	42.5170
 0.8270	42.5140
 0.8280	42.5060
 0.8290	42.5100
 0.8300	42.5050
 0.8310	42.4800
 0.8320	42.4810
 0.8330	42.4970
 0.8340	42.5060
 0.8350	42.4880
 0.8360	42.4740
 0.8370	42.4730
 0.8380	42.4790
 0.8390	42.4740
 0.8400	42.4680
 0.8410	42.4560
 0.8420	42.4480
 0.8430	42.4720
 0.8440	42.4600
 0.8450	42.4480
 0.8460	42.4660
 0.8470	42.4670
 0.8480	42.4450
 0.8490	42.4280
 0.8500	42.4430
 0.8510	42.4610
 0.8520	42.4660
 0.8530	42.4550
 0.8540	42.4380
 0.8550	42.4520
 0.8560	42.4580
 0.8570	42.4490
 0.8580	42.4600
 0.8590	42.4660
 0.8600	42.4640
 0.8610	42.4570
 0.8620	42.4510
 0.8630	42.4480
 0.8640	42.4590
 0.8650	42.4790
 0.8660	42.4720
 0.8670	42.4680
 0.8680	42.4710
 0.8690	42.4730
 0.8700	42.4680
 0.8710	42.4560
 0.8720	42.4500
 0.8730	42.4620
 0.8740	42.4760
 0.8750	42.4780
 0.8760	42.4740
 0.8770	42.4820
 0.8780	42.4810
 0.8790	42.4730
 0.8800	42.4720
 0.8810	42.5020
 0.8820	42.5010
 0.8830	42.4930
 0.8840	42.4970
 0.8850	42.4830
 0.8860	42.4890
 0.8870	42.5030
 0.8880	42.5040
 0.8890	42.4880
 0.8900	42.4960
 0.8910	42.5140
 0.8920	42.5110
 0.8930	42.5120
 0.8940	42.5030
 0.8950	42.4960
 0.8960	42.5120
 0.8970	42.5240
 0.8980	42.5210
 0.8990	42.5120
 0.9000	42.5170
 0.9010	42.5190
 0.9020	42.5170
 0.9030	42.5130
 0.9040	42.5120
 0.9050	42.5140
 0.9060	42.5250
 0.9070	42.5430
 0.9080	42.5470
 0.9090	42.5430
 0.9100	42.5420
 0.9110	42.5430
 0.9120	42.5290
 0.9130	42.5330
 0.9140	42.5460
 0.9150	42.5480
 0.9160	42.5420
 0.9170	42.5370
 0.9180	42.5350
 0.9190	42.5340
 0.9200	42.5280
 0.9210	42.5280
 0.9220	42.5310
 0.9230	42.5270
 0.9240	42.5160
 0.9250	42.5160
 0.9260	42.5210
 0.9270	42.5060
 0.9280	42.5060
 0.9290	42.4920
 0.9300	42.4740
 0.9310	42.4870
 0.9320	42.4870
 0.9330	42.4890
 0.9340	42.4920
 0.9350	42.4700
 0.9360	42.4550
 0.9370	42.4500
 0.9380	42.4440
 0.9390	42.4120
 0.9400	42.4070
 0.9410	42.4120
 0.9420	42.3990
 0.9430	42.3590
 0.9440	42.3350
 0.9450	42.3270
 0.9460	42.3220
 0.9470	42.2950
 0.9480	42.2730
 0.9490	42.2500
 0.9500	42.2230
 0.9510	42.2150
 0.9520	42.2030
 0.9530	42.1760
 0.9540	42.1360
 0.9550	42.1100
 0.9560	42.0790
 0.9570	42.0410
 0.9580	42.0040
 0.9590	41.9870
 0.9600	41.9790
 0.9610	41.9760
 0.9620	41.9760
 0.9630	41.9770
 0.9640	41.9610
 0.9650	41.9450
 0.9660	41.9470
 0.9670	41.9180
 0.9680	41.8930
 0.9690	41.8820
 0.9700	41.8800
 0.9710	41.8630
 0.9720	41.8620
 0.9730	41.8600
 0.9740	41.8370
 0.9750	41.8690
 0.9760	41.8780
 0.9770	41.8730
 0.9780	41.8880
 0.9790	41.8580
 0.9800	41.8310
 0.9810	41.8280
 0.9820	41.8410
 0.9830	41.8370
 0.9840	41.8550
 0.9850	41.8710
 0.9860	41.8540
 0.9870	41.8730
 0.9880	41.8720
 0.9890	41.8490
 0.9900	41.8360
 0.9910	41.8630
 0.9920	41.9240
 0.9930	41.9860
 0.9940	42.0470
 0.9950	42.1090
 0.9960	42.1700
 0.9970	42.2320
 0.9980	42.2930
 0.9990	42.3550
 1.0000	42.4160
 1.0010	42.4780
 1.0020	42.5390
 1.0030	42.6010
 1.0040	42.6620
 1.0050	42.7240
 1.0060	42.7850
 1.0070	42.8470
 1.0080	42.9080
 1.0090	42.9700
 1.0100	42.9700
 1.0110	42.9760
 1.0120	42.9800
 1.0130	42.9900
 1.0140	42.9930
 1.0150	42.9880
 1.0160	42.9850
 1.0170	42.9860
 1.0180	42.9800
 1.0190	42.9760
 1.0200	42.9740
 1.0210	42.9760
 1.0220	42.9830
 1.0230	42.9880
 1.0240	42.9980
 1.0250	43.0060
 1.0260	43.0080
 1.0270	43.0100
 1.0280	43.0130
 1.0290	43.0150
 1.0300	43.0150
 1.0310	43.0180
 1.0320	43.0260
 1.0330	43.0310
 1.0340	43.0300
 1.0350	43.0310
 1.0360	43.0310
 1.0370	43.0330
 1.0380	43.0390
 1.0390	43.0520
 1.0400	43.0590
 1.0410	43.0680
 1.0420	43.0700
 1.0430	43.0650
 1.0440	43.0640
 1.0450	43.0580
 1.0460	43.0580
 1.0470	43.0640
 1.0480	43.0680
 1.0490	43.0750
 1.0500	43.0780
 1.0510	43.0750
 1.0520	43.0760
 1.0530	43.0760
 1.0540	43.0740
 1.0550	43.0750
 1.0560	43.0800
 1.0570	43.0810
 1.0580	43.0820
 1.0590	43.0820
 1.0600	43.0800
 1.0610	43.0800
 1.0620	43.0800
 1.0630	43.0790
 1.0640	43.0760
 1.0650	43.0750
 1.0660	43.0750
 1.0670	43.0740
 1.0680	43.0730
 1.0690	43.0740
 1.0700	43.0690
 1.0710	43.0580
 1.0720	43.0540
 1.0730	43.0500
 1.0740	43.0470
 1.0750	43.0520
 1.0760	43.0500
 1.0770	43.0460
 1.0780	43.0420
 1.0790	43.0350
 1.0800	43.0320
 1.0810	43.0350
 1.0820	43.0310
 1.0830	43.0240
 1.0840	43.0180
 1.0850	43.0090
 1.0860	42.9960
 1.0870	42.9890
 1.0880	42.9840
 1.0890	42.9790
 1.0900	42.9740
 1.0910	42.9710
 1.0920	42.9710
 1.0930	42.9670
 1.0940	42.9590
 1.0950	42.9540
 1.0960	42.9480
 1.0970	42.9400
 1.0980	42.9310
 1.0990	42.9240
 1.1000	42.9190
 1.1010	42.9110
 1.1020	42.9000
 1.1030	42.8980
 1.1040	42.8920
 1.1050	42.8770
 1.1060	42.8700
 1.1070	42.8660
 1.1080	42.8590
 1.1090	42.8530
 1.1100	42.8430
 1.1110	42.8270
 1.1120	42.8150
 1.1130	42.8030
 1.1140	42.7910
 1.1150	42.7810
 1.1160	42.7700
 1.1170	42.7600
 1.1180	42.7490
 1.1190	42.7390
 1.1200	42.7260
 1.1210	42.7130
 1.1220	42.6960
 1.1230	42.6770
 1.1240	42.6580
 1.1250	42.6370
 1.1260	42.6130
 1.1270	42.5890
 1.1280	42.5630
 1.1290	42.5350
 1.1300	42.5080
 1.1310	42.4750
 1.1320	42.4380
 1.1330	42.3990
 1.1340	42.3560
 1.1350	42.3120
 1.1360	42.2640
 1.1370	42.2150
 1.1380	42.1670
 1.1390	42.1130
 1.1400	42.0540
 1.1410	41.9970
 1.1420	41.9410
 1.1430	41.8820
 1.1440	41.8260
 1.1450	41.7770
 1.1460	41.7210
 1.1470	41.6580
 1.1480	41.6050
 1.1490	41.5510
 1.1500	41.5050
 1.1510	41.4680
 1.1520	41.4290
 1.1530	41.3900
 1.1540	41.3560
 1.1550	41.3240
 1.1560	41.2900
 1.1570	41.2620
 1.1580	41.2410
 1.1590	41.2210
 1.1600	41.2050
 1.1610	41.1910
 1.1620	41.1760
 1.1630	41.1650
 1.1640	41.1590
 1.1650	41.1520
 1.1660	41.1490
 1.1670	41.1470
 1.1680	41.1460
 1.1690	41.1430
 1.1700	41.1430
 1.1710	41.1410
 1.1720	41.1350
 1.1730	41.1310
 1.1740	41.1310
 1.1750	41.1260
 1.1760	41.1240
 1.1770	41.1240
 1.1780	41.1200
 1.1790	41.1190
 1.1800	41.1160
 1.1810	41.1070
 1.1820	41.1060
 1.1830	41.1030
 1.1840	41.0960
 1.1850	41.0940
 1.1860	41.0890
 1.1870	41.0850
 1.1880	41.0830
 1.1890	41.0850
 1.1900	41.0830
 1.1910	41.0780
 1.1920	41.0770
 1.1930	41.0760
 1.1940	41.0760
 1.1950	41.0820
 1.1960	41.0830
 1.1970	41.0810
 1.1980	41.0820
 1.1990	41.0820
 1.2000	41.0850
 1.2010	41.0920
 1.2020	41.0960
 1.2030	41.0970
 1.2040	41.1010
 1.2050	41.1030
 1.2060	41.1070
 1.2070	41.1140
 1.2080	41.1220
 1.2090	41.1310
 1.2100	41.1420
 1.2110	41.1510
 1.2120	41.1590
 1.2130	41.1670
 1.2140	41.1760
 1.2150	41.1830
 1.2160	41.1910
 1.2170	41.1990
 1.2180	41.2000
 1.2190	41.2030
 1.2200	41.2110
 1.2210	41.2170
 1.2220	41.2260
 1.2230	41.2370
 1.2240	41.2450
 1.2250	41.2520
 1.2260	41.2580
 1.2270	41.2650
 1.2280	41.2690
 1.2290	41.2750
 1.2300	41.2830
 1.2310	41.2900
 1.2320	41.3020
 1.2330	41.3110
 1.2340	41.3170
 1.2350	41.3240
 1.2360	41.3300
 1.2370	41.3320
 1.2380	41.3380
 1.2390	41.3440
 1.2400	41.3480
 1.2410	41.3540
 1.2420	41.3580
 1.2430	41.3600
 1.2440	41.3650
 1.2450	41.3650
 1.2460	41.3650
 1.2470	41.3680
 1.2480	41.3710
 1.2490	41.3770
 1.2500	41.3770
 1.2510	41.3840
 1.2520	41.3920
 1.2530	41.3930
 1.2540	41.3980
 1.2550	41.4000
 1.2560	41.4000
 1.2570	41.4010
 1.2580	41.4000
 1.2590	41.4000
 1.2600	41.4020
 1.2610	41.4010
 1.2620	41.4000
 1.2630	41.4010
 1.2640	41.3970
 1.2650	41.3910
 1.2660	41.3860
 1.2670	41.3860
 1.2680	41.3840
 1.2690	41.3810
 1.2700	41.3800
 1.2710	41.3770
 1.2720	41.3720
 1.2730	41.3720
 1.2740	41.3690
 1.2750	41.3610
 1.2760	41.3590
 1.2770	41.3550
 1.2780	41.3460
 1.2790	41.3410
 1.2800	41.3350
 1.2810	41.3250
 1.2820	41.3180
 1.2830	41.3110
 1.2840	41.3020
 1.2850	41.2940
 1.2860	41.2810
 1.2870	41.2700
 1.2880	41.2580
 1.2890	41.2490
 1.2900	41.2360
 1.2910	41.2260
 1.2920	41.2130
 1.2930	41.1930
 1.2940	41.1720
 1.2950	41.1510
 1.2960	41.1270
 1.2970	41.1020
 1.2980	41.0780
 1.2990	41.0550
 1.3000	41.0310
 1.3010	41.0070
 1.3020	40.9780
 1.3030	40.9460
 1.3040	40.9140
 1.3050	40.8810
 1.3060	40.8510
 1.3070	40.8250
 1.3080	40.7940
 1.3090	40.7590
 1.3100	40.7160
 1.3110	40.6660
 1.3120	40.6200
 1.3130	40.5750
 1.3140	40.5320
 1.3150	40.4960
 1.3160	40.4530
 1.3170	40.4070
 1.3180	40.3580
 1.3190	40.3080
 1.3200	40.2530
 1.3210	40.1970
 1.3220	40.1420
 1.3230	40.0830
 1.3240	40.0190
 1.3250	39.9570
 1.3260	39.8970
 1.3270	39.8360
 1.3280	39.7750
 1.3290	39.7160
 1.3300	39.6560
 1.3310	39.5960
 1.3320	39.5350
 1.3330	39.4720
 1.3340	39.4040
 1.3350	39.3310
 1.3360	39.2600
 1.3370	39.1910
 1.3380	39.1180
 1.3390	39.0480
 1.3400	38.9780
 1.3410	38.9050
 1.3420	38.8330
 1.3430	38.7620
 1.3440	38.6910
 1.3450	38.6190
 1.3460	38.5470
 1.3470	38.4750
 1.3480	38.4020
 1.3490	38.3300
 1.3500	38.2570
 1.3510	38.1860
 1.3520	38.1110
 1.3530	38.0350
 1.3540	37.9600
 1.3550	37.8810
 1.3560	37.8050
 1.3570	37.7310
 1.3580	37.6540
 1.3590	37.5810
 1.3600	37.5050
 1.3610	37.4250
 1.3620	37.3430
 1.3630	37.2580
 1.3640	37.1710
 1.3650	37.0810
 1.3660	36.9850
 1.3670	36.8830
 1.3680	36.7720
 1.3690	36.6540
 1.3700	36.5300
 1.3710	36.3970
 1.3720	36.2540
 1.3730	36.0980
 1.3740	35.9310
 1.3750	35.7500
 1.3760	35.5550
 1.3770	35.3450
 1.3780	35.1130
 1.3790	34.8680
 1.3800	34.6080
 1.3810	34.3240
 1.3820	34.0270
 1.3830	33.7160
 1.3840	33.3900
 1.3850	33.0490
 1.3860	32.6930
 1.3870	32.3220
 1.3880	31.9410
 1.3890	31.5440
 1.3900	31.1380
 1.3910	30.7270
 1.3920	30.3020
 1.3930	29.8670
 1.3940	29.4320
 1.3950	28.9900
 1.3960	28.5520
 1.3970	28.1180
 1.3980	27.6890
 1.3990	27.2720
 1.4000	26.8610
 1.4010	26.4610
 1.4020	26.0730
 1.4030	25.6930
 1.4040	25.3330
 1.4050	24.9920
 1.4060	24.6620
 1.4070	24.3550
 1.4080	24.0620
 1.4090	23.7820
 1.4100	23.5240
 1.4110	23.2830
 1.4120	23.0590
 1.4130	22.8530
 1.4140	22.6650
 1.4150	22.4920
 1.4160	22.3320
 1.4170	22.1840
 1.4180	22.0510
 1.4190	21.9300
 1.4200	21.8230
 1.4210	21.7280
 1.4220	21.6410
 1.4230	21.5660
 1.4240	21.5000
 1.4250	21.4390
 1.4260	21.3860
 1.4270	21.3410
 1.4280	21.3010
 1.4290	21.2690
 1.4300	21.2490
 1.4310	21.2310
 1.4320	21.2190
 1.4330	21.2090
 1.4340	21.2020
 1.4350	21.2010
 1.4360	21.2050
 1.4370	21.2110
 1.4380	21.2250
 1.4390	21.2390
 1.4400	21.2550
 1.4410	21.2750
 1.4420	21.2950
 1.4430	21.3180
 1.4440	21.3430
 1.4450	21.3660
 1.4460	21.3940
 1.4470	21.4240
 1.4480	21.4520
 1.4490	21.4810
 1.4500	21.5090
 1.4510	21.5360
 1.4520	21.5660
 1.4530	21.6000
 1.4540	21.6330
 1.4550	21.6700
 1.4560	21.7100
 1.4570	21.7530
 1.4580	21.8010
 1.4590	21.8520
 1.4600	21.9060
 1.4610	21.9640
 1.4620	22.0280
 1.4630	22.0970
 1.4640	22.1700
 1.4650	22.2470
 1.4660	22.3280
 1.4670	22.4120
 1.4680	22.5000
 1.4690	22.5920
 1.4700	22.6890
 1.4710	22.7880
 1.4720	22.8910
 1.4730	22.9970
 1.4740	23.1060
 1.4750	23.2200
 1.4760	23.3380
 1.4770	23.4560
 1.4780	23.5760
 1.4790	23.6970
 1.4800	23.8190
 1.4810	23.9440
 1.4820	24.0700
 1.4830	24.1960
 1.4840	24.3230
 1.4850	24.4470
 1.4860	24.5710
 1.4870	24.6960
 1.4880	24.8200
 1.4890	24.9440
 1.4900	25.0670
 1.4910	25.1900
 1.4920	25.3120
 1.4930	25.4340
 1.4940	25.5560
 1.4950	25.6790
 1.4960	25.8010
 1.4970	25.9230
 1.4980	26.0440
 1.4990	26.1630
 1.5000	26.2830
 1.5010	26.4020
 1.5020	26.5210
 1.5030	26.6430
 1.5040	26.7610
 1.5050	26.8760
 1.5060	26.9920
 1.5070	27.1080
 1.5080	27.2230
 1.5090	27.3370
 1.5100	27.4510
 1.5110	27.5640
 1.5120	27.6720
 1.5130	27.7800
 1.5140	27.8910
 1.5150	27.9990
 1.5160	28.1070
 1.5170	28.2170
 1.5180	28.3230
 1.5190	28.4250
 1.5200	28.5280
 1.5210	28.6280
 1.5220	28.7280
 1.5230	28.8290
 1.5240	28.9270
 1.5250	29.0230
 1.5260	29.1210
 1.5270	29.2140
 1.5280	29.3060
 1.5290	29.3970
 1.5300	29.4840
 1.5310	29.5740
 1.5320	29.6660
 1.5330	29.7550
 1.5340	29.8430
 1.5350	29.9280
 1.5360	30.0120
 1.5370	30.0940
 1.5380	30.1750
 1.5390	30.2590
 1.5400	30.3410
 1.5410	30.4210
 1.5420	30.5000
 1.5430	30.5760
 1.5440	30.6530
 1.5450	30.7290
 1.5460	30.8040
 1.5470	30.8780
 1.5480	30.9510
 1.5490	31.0220
 1.5500	31.0930
 1.5510	31.1620
 1.5520	31.2320
 1.5530	31.3030
 1.5540	31.3700
 1.5550	31.4360
 1.5560	31.4990
 1.5570	31.5580
 1.5580	31.6190
 1.5590	31.6800
 1.5600	31.7420
 1.5610	31.8010
 1.5620	31.8570
 1.5630	31.9160
 1.5640	31.9720
 1.5650	32.0300
 1.5660	32.0900
 1.5670	32.1480
 1.5680	32.2060
 1.5690	32.2640
 1.5700	32.3180
 1.5710	32.3680
 1.5720	32.4170
 1.5730	32.4660
 1.5740	32.5160
 1.5750	32.5660
 1.5760	32.6170
 1.5770	32.6680
 1.5780	32.7150
 1.5790	32.7610
 1.5800	32.8110
 1.5810	32.8610
 1.5820	32.9090
 1.5830	32.9580
 1.5840	33.0020
 1.5850	33.0410
 1.5860	33.0820
 1.5870	33.1240
 1.5880	33.1650
 1.5890	33.2030
 1.5900	33.2420
 1.5910	33.2790
 1.5920	33.3140
 1.5930	33.3540
 1.5940	33.3950
 1.5950	33.4340
 1.5960	33.4750
 1.5970	33.5150
 1.5980	33.5500
 1.5990	33.5880
 1.6000	33.6270
 1.6010	33.6610
 1.6020	33.6990
 1.6030	33.7360
 1.6040	33.7690
 1.6050	33.8060
 1.6060	33.8410
 1.6070	33.8740
 1.6080	33.9080
 1.6090	33.9430
 1.6100	33.9770
 1.6110	34.0070
 1.6120	34.0360
 1.6130	34.0650
 1.6140	34.0880
 1.6150	34.1120
 1.6160	34.1390
 1.6170	34.1630
 1.6180	34.1870
 1.6190	34.2130
 1.6200	34.2350
 1.6210	34.2600
 1.6220	34.2870
 1.6230	34.3110
 1.6240	34.3370
 1.6250	34.3600
 1.6260	34.3820
 1.6270	34.4060
 1.6280	34.4310
 1.6290	34.4550
 1.6300	34.4770
 1.6310	34.4980
 1.6320	34.5170
 1.6330	34.5370
 1.6340	34.5560
 1.6350	34.5750
 1.6360	34.5930
 1.6370	34.6130
 1.6380	34.6370
 1.6390	34.6570
 1.6400	34.6740
 1.6410	34.6890
 1.6420	34.6990
 1.6430	34.7110
 1.6440	34.7240
 1.6450	34.7350
 1.6460	34.7410
 1.6470	34.7430
 1.6480	34.7460
 1.6490	34.7510
 1.6500	34.7550
 1.6510	34.7580
 1.6520	34.7600
 1.6530	34.7530
 1.6540	34.7460
 1.6550	34.7440
 1.6560	34.7390
 1.6570	34.7360
 1.6580	34.7340
 1.6590	34.7260
 1.6600	34.7160
 1.6610	34.7110
 1.6620	34.7040
 1.6630	34.6940
 1.6640	34.6890
 1.6650	34.6810
 1.6660	34.6720
 1.6670	34.6690
 1.6680	34.6600
 1.6690	34.6490
 1.6700	34.6380
 1.6710	34.6250
 1.6720	34.6150
 1.6730	34.6060
 1.6740	34.5940
 1.6750	34.5800
 1.6760	34.5670
 1.6770	34.5560
 1.6780	34.5450
 1.6790	34.5350
 1.6800	34.5230
 1.6810	34.5130
 1.6820	34.5000
 1.6830	34.4820
 1.6840	34.4660
 1.6850	34.4490
 1.6860	34.4270
 1.6870	34.4110
 1.6880	34.3930
 1.6890	34.3650
 1.6900	34.3400
 1.6910	34.3100
 1.6920	34.2850
 1.6930	34.2640
 1.6940	34.2440
 1.6950	34.2310
 1.6960	34.2100
 1.6970	34.1880
 1.6980	34.1630
 1.6990	34.1290
 1.7000	34.1010
 1.7010	34.0760
 1.7020	34.0470
 1.7030	34.0200
 1.7040	33.9900
 1.7050	33.9570
 1.7060	33.9280
 1.7070	33.9020
 1.7080	33.8740
 1.7090	33.8480
 1.7100	33.8180
 1.7110	33.7860
 1.7120	33.7520
 1.7130	33.7220
 1.7140	33.6890
 1.7150	33.6560
 1.7160	33.6230
 1.7170	33.5900
 1.7180	33.5570
 1.7190	33.5240
 1.7200	33.4930
 1.7210	33.4650
 1.7220	33.4380
 1.7230	33.4090
 1.7240	33.3790
 1.7250	33.3430
 1.7260	33.3040
 1.7270	33.2700
 1.7280	33.2370
 1.7290	33.2010
 1.7300	33.1680
 1.7310	33.1330
 1.7320	33.0950
 1.7330	33.0590
 1.7340	33.0230
 1.7350	32.9870
 1.7360	32.9530
 1.7370	32.9170
 1.7380	32.8780
 1.7390	32.8430
 1.7400	32.8090
 1.7410	32.7720
 1.7420	32.7390
 1.7430	32.7000
 1.7440	32.6560
 1.7450	32.6150
 1.7460	32.5760
 1.7470	32.5320
 1.7480	32.4870
 1.7490	32.4410
 1.7500	32.3900
 1.7510	32.3400
 1.7520	32.2880
 1.7530	32.2400
 1.7540	32.1930
 1.7550	32.1440
 1.7560	32.0930
 1.7570	32.0400
 1.7580	31.9920
 1.7590	31.9470
 1.7600	31.9050
 1.7610	31.8590
 1.7620	31.8120
 1.7630	31.7620
 1.7640	31.7160
 1.7650	31.6700
 1.7660	31.6270
 1.7670	31.5890
 1.7680	31.5500
 1.7690	31.5130
 1.7700	31.4780
 1.7710	31.4440
 1.7720	31.4110
 1.7730	31.3810
 1.7740	31.3490
 1.7750	31.3180
 1.7760	31.2840
 1.7770	31.2460
 1.7780	31.2160
 1.7790	31.1890
 1.7800	31.1640
 1.7810	31.1450
 1.7820	31.1240
 1.7830	31.1020
 1.7840	31.0840
 1.7850	31.0680
 1.7860	31.0510
 1.7870	31.0360
 1.7880	31.0230
 1.7890	31.0050
 1.7900	30.9900
 1.7910	30.9730
 1.7920	30.9520
 1.7930	30.9380
 1.7940	30.9270
 1.7950	30.9190
 1.7960	30.9200
 1.7970	30.9160
 1.7980	30.9110
 1.7990	30.9050
 1.8000	30.8940
 1.8010	30.8890
 1.8020	30.8880
 1.8030	30.8820
 1.8040	30.8740
 1.8050	30.8690
 1.8060	30.8600
 1.8070	30.8540
 1.8080	30.8520
 1.8090	30.8470
 1.8100	30.8380
 1.8110	30.8400
 1.8120	30.8330
 1.8130	30.8280
 1.8140	30.8270
 1.8150	30.8160
 1.8160	30.8050
 1.8170	30.7970
 1.8180	30.7840
 1.8190	30.7730
 1.8200	30.7630
 1.8210	30.7500
 1.8220	30.7380
 1.8230	30.7280
 1.8240	30.7140
 1.8250	30.6970
 1.8260	30.6800
 1.8270	30.6660
 1.8280	30.6520
 1.8290	30.6380
 1.8300	30.6250
 1.8310	30.6110
 1.8320	30.5970
 1.8330	30.5830
 1.8340	30.5690
 1.8350	30.5690
 1.8360	30.5230
 1.8370	30.4750
 1.8380	30.4360
 1.8390	30.3870
 1.8400	30.3350
 1.8410	30.2720
 1.8420	30.2040
 1.8430	30.1290
 1.8440	30.0400
 1.8450	29.9580
 1.8460	29.8710
 1.8470	29.7680
 1.8480	29.6580
 1.8490	29.5350
 1.8500	29.4080
 1.8510	29.2750
 1.8520	29.1360
 1.8530	28.9860
 1.8540	28.8270
 1.8550	28.6490
 1.8560	28.4560
 1.8570	28.2510
 1.8580	28.0320
 1.8590	27.8020
 1.8600	27.5590
 1.8610	27.3010
 1.8620	27.0250
 1.8630	26.7370
 1.8640	26.4270
 1.8650	26.0930
 1.8660	25.7410
 1.8670	25.3580
 1.8680	24.9610
 1.8690	24.5480
 1.8700	24.1090
 1.8710	23.6500
 1.8720	23.1810
 1.8730	22.6840
 1.8740	22.1660
 1.8750	21.6390
 1.8760	21.0900
 1.8770	20.5350
 1.8780	19.9720
 1.8790	19.4000
 1.8800	18.8310
 1.8810	18.2620
 1.8820	17.6840
 1.8830	17.1040
 1.8840	16.5240
 1.8850	15.9360
 1.8860	15.3560
 1.8870	14.7920
 1.8880	14.2320
 1.8890	13.6920
 1.8900	13.1760
 1.8910	12.6770
 1.8920	12.1890
 1.8930	11.7290
 1.8940	11.2970
 1.8950	10.8840
 1.8960	10.5020
 1.8970	10.1520
 1.8980	 9.8260
 1.8990	 9.5290
 1.9000	 9.2530
 1.9010	 9.0050
 1.9020	 8.7720
 1.9030	 8.5620
 1.9040	 8.3720
 1.9050	 8.1970
 1.9060	 8.0410
 1.9070	 7.9090
 1.9080	 7.7940
 1.9090	 7.6940
 1.9100	 7.6070
 1.9110	 7.5280
 1.9120	 7.4620
 1.9130	 7.4010
 1.9140	 7.3470
 1.9150	 7.3030
 1.9160	 7.2690
 1.9170	 7.2360
 1.9180	 7.2120
 1.9190	 7.1980
 1.9200	 7.1870
 1.9210	 7.1790
 1.9220	 7.1770
 1.9230	 7.1800
 1.9240	 7.1860
 1.9250	 7.1980
 1.9260	 7.2130
 1.9270	 7.2250
 1.9280	 7.2390
 1.9290	 7.2550
 1.9300	 7.2720
 1.9310	 7.2930
 1.9320	 7.3220
 1.9330	 7.3540
 1.9340	 7.3900
 1.9350	 7.4290
 1.9360	 7.4720
 1.9370	 7.5150
 1.9380	 7.5590
 1.9390	 7.6020
 1.9400	 7.6530
 1.9410	 7.7080
 1.9420	 7.7590
 1.9430	 7.8150
 1.9440	 7.8710
 1.9450	 7.9230
 1.9460	 7.9800
 1.9470	 8.0460
 1.9480	 8.1070
 1.9490	 8.1690
 1.9500	 8.2320
 1.9510	 8.2940
 1.9520	 8.3610
 1.9530	 8.4330
 1.9540	 8.5050
 1.9550	 8.5770
 1.9560	 8.6490
 1.9570	 8.7260
 1.9580	 8.8040
 1.9590	 8.8820
 1.9600	 8.9630
 1.9610	 9.0450
 1.9620	 9.1240
 1.9630	 9.2060
 1.9640	 9.2870
 1.9650	 9.3700
 1.9660	 9.4550
 1.9670	 9.5420
 1.9680	 9.6310
 1.9690	 9.7230
 1.9700	 9.8170
 1.9710	 9.9130
 1.9720	10.0060
 1.9730	10.0980
 1.9740	10.1940
 1.9750	10.2860
 1.9760	10.3810
 1.9770	10.4800
 1.9780	10.5790
 1.9790	10.6790
 1.9800	10.7810
 1.9810	10.8810
 1.9820	10.9830
 1.9830	11.0840
 1.9840	11.1840
 1.9850	11.2840
 1.9860	11.3850
 1.9870	11.4880
 1.9880	11.5900
 1.9890	11.6940
 1.9900	11.8020
 1.9910	11.9090
 1.9920	12.0130
 1.9930	12.1150
 1.9940	12.2200
 1.9950	12.3230
 1.9960	12.4290
 1.9970	12.5410
 1.9980	12.6480
 1.9990	12.7520
 2.0000	12.8530
 2.0010	12.9560
 2.0020	13.0590
 2.0030	13.1620
 2.0040	13.2670
 2.0050	13.3670
 2.0060	13.4610
 2.0070	13.5600
 2.0080	13.6530
 2.0090	13.7550
 2.0100	13.8680
 2.0110	13.9690
 2.0120	14.0660
 2.0130	14.1670
 2.0140	14.2600
 2.0150	14.3490
 2.0160	14.4480
 2.0170	14.5430
 2.0180	14.6370
 2.0190	14.7300
 2.0200	14.8220
 2.0210	14.9140
 2.0220	15.0040
 2.0230	15.0920
 2.0240	15.1810
 2.0250	15.2730
 2.0260	15.3590
 2.0270	15.4430
 2.0280	15.5230
 2.0290	15.5980
 2.0300	15.6690
 2.0310	15.7420
 2.0320	15.8130
 2.0330	15.8880
 2.0340	15.9670
 2.0350	16.0410
 2.0360	16.1150
 2.0370	16.1900
 2.0380	16.2640
 2.0390	16.3370
 2.0400	16.4150
 2.0410	16.4880
 2.0420	16.5560
 2.0430	16.6220
 2.0440	16.6840
 2.0450	16.7410
 2.0460	16.8040
 2.0470	16.8660
 2.0480	16.9280
 2.0490	16.9920
 2.0500	17.0560
 2.0510	17.1170
 2.0520	17.1800
 2.0530	17.2460
 2.0540	17.3110
 2.0550	17.3750
 2.0560	17.4380
 2.0570	17.5020
 2.0580	17.5630
 2.0590	17.6250
 2.0600	17.6860
 2.0610	17.7460
 2.0620	17.8040
 2.0630	17.8670
 2.0640	17.9330
 2.0650	17.9960
 2.0660	18.0610
 2.0670	18.1250
 2.0680	18.1860
 2.0690	18.2490
 2.0700	18.3140
 2.0710	18.3800
 2.0720	18.4450
 2.0730	18.5140
 2.0740	18.5780
 2.0750	18.6440
 2.0760	18.7060
 2.0770	18.7630
 2.0780	18.8230
 2.0790	18.8860
 2.0800	18.9440
 2.0810	18.9990
 2.0820	19.0560
 2.0830	19.1110
 2.0840	19.1660
 2.0850	19.2210
 2.0860	19.2790
 2.0870	19.3330
 2.0880	19.3930
 2.0890	19.4540
 2.0900	19.5210
 2.0910	19.5780
 2.0920	19.6290
 2.0930	19.6850
 2.0940	19.7370
 2.0950	19.7900
 2.0960	19.8490
 2.0970	19.9020
 2.0980	19.9450
 2.0990	19.9950
 2.1000	20.0460
 2.1010	20.0980
 2.1020	20.1600
 2.1030	20.2130
 2.1040	20.2610
 2.1050	20.3080
 2.1060	20.3580
 2.1070	20.4050
 2.1080	20.4560
 2.1090	20.5140
 2.1100	20.5670
 2.1110	20.6170
 2.1120	20.6670
 2.1130	20.7170
 2.1140	20.7650
 2.1150	20.8090
 2.1160	20.8580
 2.1170	20.9080
 2.1180	20.9550
 2.1190	21.0080
 2.1200	21.0540
 2.1210	21.0950
 2.1220	21.1300
 2.1230	21.1670
 2.1240	21.1990
 2.1250	21.2350
 2.1260	21.2740
 2.1270	21.3070
 2.1280	21.3360
 2.1290	21.3690
 2.1300	21.4020
 2.1310	21.4360
 2.1320	21.4780
 2.1330	21.5120
 2.1340	21.5370
 2.1350	21.5700
 2.1360	21.6060
 2.1370	21.6390
 2.1380	21.6760
 2.1390	21.7080
 2.1400	21.7310
 2.1410	21.7540
 2.1420	21.7800
 2.1430	21.8060
 2.1440	21.8310
 2.1450	21.8560
 2.1460	21.8830
 2.1470	21.9130
 2.1480	21.9360
 2.1490	21.9600
 2.1500	21.9790
 2.1510	21.9880
 2.1520	22.0020
 2.1530	22.0150
 2.1540	22.0320
 2.1550	22.0570
 2.1560	22.0720
 2.1570	22.0830
 2.1580	22.0960
 2.1590	22.1040
 2.1600	22.1110
 2.1610	22.1250
 2.1620	22.1390
 2.1630	22.1520
 2.1640	22.1630
 2.1650	22.1770
 2.1660	22.1940
 2.1670	22.2080
 2.1680	22.2210
 2.1690	22.2370
 2.1700	22.2540
 2.1710	22.2690
 2.1720	22.2900
 2.1730	22.3010
 2.1740	22.2960
 2.1750	22.3050
 2.1760	22.3150
 2.1770	22.3280
 2.1780	22.3550
 2.1790	22.3730
 2.1800	22.3780
 2.1810	22.3950
 2.1820	22.4160
 2.1830	22.4380
 2.1840	22.4570
 2.1850	22.4820
 2.1860	22.5020
 2.1870	22.5100
 2.1880	22.5280
 2.1890	22.5540
 2.1900	22.5730
 2.1910	22.5950
 2.1920	22.6100
 2.1930	22.6150
 2.1940	22.6260
 2.1950	22.6380
 2.1960	22.6460
 2.1970	22.6540
 2.1980	22.6610
 2.1990	22.6610
 2.2000	22.6670
 2.2010	22.6760
 2.2020	22.6880
 2.2030	22.7070
 2.2040	22.7210
 2.2050	22.7360
 2.2060	22.7490
 2.2070	22.7550
 2.2080	22.7550
 2.2090	22.7580
 2.2100	22.7580
 2.2110	22.7600
 2.2120	22.7630
 2.2130	22.7680
 2.2140	22.7770
 2.2150	22.7790
 2.2160	22.7820
 2.2170	22.7780
 2.2180	22.7630
 2.2190	22.7520
 2.2200	22.7390
 2.2210	22.7270
 2.2220	22.7160
 2.2230	22.7020
 2.2240	22.6870
 2.2250	22.6690
 2.2260	22.6390
 2.2270	22.6220
 2.2280	22.6140
 2.2290	22.5980
 2.2300	22.5850
 2.2310	22.5700
 2.2320	22.5380
 2.2330	22.5000
 2.2340	22.4690
 2.2350	22.4380
 2.2360	22.4040
 2.2370	22.3690
 2.2380	22.3340
 2.2390	22.2970
 2.2400	22.2580
 2.2410	22.2230
 2.2420	22.1780
 2.2430	22.1230
 2.2440	22.0730
 2.2450	22.0220
 2.2460	21.9680
 2.2470	21.9150
 2.2480	21.8590
 2.2490	21.7950
 2.2500	21.7370
 2.2510	21.6810
 2.2520	21.6230
 2.2530	21.5640
 2.2540	21.5060
 2.2550	21.4490
 2.2560	21.3880
 2.2570	21.3310
 2.2580	21.2660
 2.2590	21.1850
 2.2600	21.1170
 2.2610	21.0510
 2.2620	20.9930
 2.2630	20.9360
 2.2640	20.8780
 2.2650	20.8120
 2.2660	20.7460
 2.2670	20.6830
 2.2680	20.6260
 2.2690	20.5630
 2.2700	20.4950
 2.2710	20.4320
 2.2720	20.3670
 2.2730	20.3040
 2.2740	20.2400
 2.2750	20.1850
 2.2760	20.1330
 2.2770	20.0830
 2.2780	20.0410
 2.2790	19.9980
 2.2800	19.9560
 2.2810	19.9120
 2.2820	19.8760
 2.2830	19.8290
 2.2840	19.7670
 2.2850	19.7190
 2.2860	19.6800
 2.2870	19.6330
 2.2880	19.5910
 2.2890	19.5420
 2.2900	19.4790
 2.2910	19.4220
 2.2920	19.3670
 2.2930	19.3100
 2.2940	19.2560
 2.2950	19.1940
 2.2960	19.1250
 2.2970	19.0600
 2.2980	18.9900
 2.2990	18.9230
 2.3000	18.8640
 2.3010	18.7970
 2.3020	18.7300
 2.3030	18.6640
 2.3040	18.6110
 2.3050	18.5640
 2.3060	18.5150
 2.3070	18.4720
 2.3080	18.4280
 2.3090	18.3760
 2.3100	18.3380
 2.3110	18.3070
 2.3120	18.2710
 2.3130	18.2400
 2.3140	18.2020
 2.3150	18.1570
 2.3160	18.1180
 2.3170	18.0820
 2.3180	18.0350
 2.3190	17.9860
 2.3200	17.9350
 2.3210	17.8640
 2.3220	17.8150
 2.3230	17.7810
 2.3240	17.7400
 2.3250	17.7100
 2.3260	17.6640
 2.3270	17.6080
 2.3280	17.5520
 2.3290	17.4870
 2.3300	17.4330
 2.3310	17.3840
 2.3320	17.3340
 2.3330	17.2890
 2.3340	17.2380
 2.3350	17.1870
 2.3360	17.1280
 2.3370	17.0590
 2.3380	17.0000
 2.3390	16.9400
 2.3400	16.8820
 2.3410	16.8360
 2.3420	16.7810
 2.3430	16.7210
 2.3440	16.6610
 2.3450	16.6000
 2.3460	16.5390
 2.3470	16.4670
 2.3480	16.4080
 2.3490	16.3610
 2.3500	16.3050
 2.3510	16.2520
 2.3520	16.1990
 2.3530	16.1390
 2.3540	16.0760
 2.3550	16.0320
 2.3560	15.9880
 2.3570	15.9440
 2.3580	15.8980
 2.3590	15.8450
 2.3600	15.8000
 2.3610	15.7480
 2.3620	15.6890
 2.3630	15.6370
 2.3640	15.5800
 2.3650	15.5350
 2.3660	15.5100
 2.3670	15.4560
 2.3680	15.3900
 2.3690	15.3240
 2.3700	15.2320
 2.3710	15.1610
 2.3720	15.1070
 2.3730	15.0490
 2.3740	15.0060
 2.3750	14.9610
 2.3760	14.9110
 2.3770	14.8550
 2.3780	14.7970
 2.3790	14.7420
 2.3800	14.6890
 2.3810	14.6350
 2.3820	14.5760
 2.3830	14.5150
 2.3840	14.4550
 2.3850	14.3990
 2.3860	14.3380
 2.3870	14.2680
 2.3880	14.1850
 2.3890	14.1000
 2.3900	14.0130
 2.3910	13.9390
 2.3920	13.8850
 2.3930	13.8210
 2.3940	13.7620
 2.3950	13.7200
 2.3960	13.6630
 2.3970	13.6030
 2.3980	13.5620
 2.3990	13.5050
 2.4000	13.4310
 2.4010	13.3570
 2.4020	13.2890
 2.4030	13.2270
 2.4040	13.1700
 2.4050	13.1280
 2.4060	13.0530
 2.4070	12.9660
 2.4080	12.8930
 2.4090	12.8230
 2.4100	12.7640
 2.4110	12.6740
 2.4120	12.5810
 2.4130	12.4940
 2.4140	12.4040
 2.4150	12.3590
 2.4160	12.3170
 2.4170	12.2550
 2.4180	12.1990
 2.4190	12.1400
 2.4200	12.0590
 2.4210	11.9740
 2.4220	11.9060
 2.4230	11.8540
 2.4240	11.8140
 2.4250	11.7780
 2.4260	11.7380
 2.4270	11.6380
 2.4280	11.5280
 2.4290	11.4490
 2.4300	11.3400
 2.4310	11.2630
 2.4320	11.2040
 2.4330	11.1130
 2.4340	11.0460
 2.4350	10.9640
 2.4360	10.8760
 2.4370	10.7810
 2.4380	10.6680
 2.4390	10.5970
 2.4400	10.5260
 2.4410	10.4710
 2.4420	10.4600
 2.4430	10.3930
 2.4440	10.3140
 2.4450	10.2580
 2.4460	10.1760
 2.4470	10.1430
 2.4480	10.1010
 2.4490	10.0270
 2.4500	 9.9680
 2.4510	 9.8650
 2.4520	 9.7840
 2.4530	 9.7190
 2.4540	 9.6290
 2.4550	 9.5840
 2.4560	 9.5380
 2.4570	 9.4610
 2.4580	 9.3860
 2.4590	 9.2800
 2.4600	 9.2010
 2.4610	 9.1820
 2.4620	 9.1740
 2.4630	 9.1590
 2.4640	 9.0980
 2.4650	 9.0020
 2.4660	 8.9060
 2.4670	 8.8340
 2.4680	 8.7710
 2.4690	 8.7070
 2.4700	 8.6440
 2.4710	 8.5810
 2.4720	 8.5230
 2.4730	 8.4740
 2.4740	 8.4370
 2.4750	 8.3910
 2.4760	 8.3430
 2.4770	 8.2980
 2.4780	 8.2290
 2.4790	 8.1600
 2.4800	 8.1190
 2.4810	 8.1070
 2.4820	 8.0690
 2.4830	 7.9720
 2.4840	 7.9090
 2.4850	 7.8370
 2.4860	 7.8270
 2.4870	 7.8710
 2.4880	 7.8540
 2.4890	 7.8440
 2.4900	 7.7660
 2.4910	 7.6820
 2.4920	 7.6630
 2.4930	 7.5940
 2.4940	 7.6030
 2.4950	 7.6220
 2.4960	 7.5960
 2.4970	 7.5920
 2.4980	 7.5310
 2.4990	 7.4160
 2.5000	 7.2520
