Name: Quercus douglasii 1
Type: vegetation
Class: Tree
Genus: Quercus
Species: douglasii
Sample No.: VH169
Owner: UCSB
Wavelength Range: TIR
Origin: 34.7153; -120.0598; WGS84
Collection Date: 6/9/2013
Description: Samples were collected as part of the HyspIRI Airborne Campaign. 48 individual plants were sampled in three times in 2013 - spring  summer  and fall. The name of the sample includes a 1  2  or 3 which references a different individual of the species. Samples were taken to JPL and processed within 48 hours of collection. The same leaves were processed in the Nicolet and then measured using the ASD.
Measurement: Hemispherical reflectance
First Column: X
Second Column: Y
X Units: Wavelength (micrometers)
Y Units: Reflectance (percentage)
First X Value: 2.501
Last X Value: 15.387
Number of X Values: 1737
Additional Information: vegetation.tree.quercus.douglasii.tir.vh169.ucsb.nicolet.ancillary.txt

 2.5010	 8.4090
 2.5030	 8.6590
 2.5040	 8.7050
 2.5050	 8.4080
 2.5060	 8.2090
 2.5070	 8.0500
 2.5090	 8.1900
 2.5100	 8.2380
 2.5110	 8.2860
 2.5120	 8.2230
 2.5140	 8.2470
 2.5150	 8.2070
 2.5160	 8.1830
 2.5170	 8.0970
 2.5180	 8.1280
 2.5200	 8.1900
 2.5210	 8.2120
 2.5220	 8.1200
 2.5230	 8.0730
 2.5250	 8.0140
 2.5260	 8.0640
 2.5270	 8.0850
 2.5280	 8.1870
 2.5290	 8.1970
 2.5310	 8.1980
 2.5320	 8.1670
 2.5330	 8.2660
 2.5340	 8.2290
 2.5360	 8.1850
 2.5370	 8.1180
 2.5380	 8.1350
 2.5390	 8.0740
 2.5410	 8.1940
 2.5420	 8.2120
 2.5430	 8.0650
 2.5440	 8.0330
 2.5460	 8.2170
 2.5470	 8.1560
 2.5480	 8.2390
 2.5490	 8.2650
 2.5510	 8.1790
 2.5520	 8.1830
 2.5530	 8.2860
 2.5540	 8.2250
 2.5560	 8.2550
 2.5570	 8.1740
 2.5580	 8.2120
 2.5590	 8.1870
 2.5610	 8.2490
 2.5620	 8.2530
 2.5630	 8.3320
 2.5640	 8.2710
 2.5660	 8.2110
 2.5670	 8.1520
 2.5680	 8.1960
 2.5700	 8.2450
 2.5710	 8.3200
 2.5720	 8.1240
 2.5730	 8.0790
 2.5750	 8.0530
 2.5760	 8.1060
 2.5770	 8.1640
 2.5790	 8.2950
 2.5800	 8.3040
 2.5810	 8.2370
 2.5820	 8.1770
 2.5840	 8.1600
 2.5850	 8.1870
 2.5860	 8.2030
 2.5880	 7.9870
 2.5890	 7.9210
 2.5900	 7.9110
 2.5910	 8.0270
 2.5930	 8.1770
 2.5940	 8.0700
 2.5950	 7.9190
 2.5970	 8.1520
 2.5980	 8.1660
 2.5990	 8.0820
 2.6000	 7.9880
 2.6020	 8.0160
 2.6030	 7.9490
 2.6040	 7.8690
 2.6060	 7.9010
 2.6070	 7.9560
 2.6080	 7.9210
 2.6100	 7.8950
 2.6110	 7.9230
 2.6120	 7.9810
 2.6140	 7.8570
 2.6150	 7.8840
 2.6160	 7.9030
 2.6180	 7.9150
 2.6190	 7.8350
 2.6200	 7.7710
 2.6220	 7.7300
 2.6230	 7.7220
 2.6240	 7.6620
 2.6260	 7.7520
 2.6270	 7.7310
 2.6280	 7.6470
 2.6300	 7.5450
 2.6310	 7.4520
 2.6320	 7.4260
 2.6340	 7.6210
 2.6350	 7.6020
 2.6360	 7.5230
 2.6380	 7.4680
 2.6390	 7.4650
 2.6400	 7.3980
 2.6420	 7.3890
 2.6430	 7.2830
 2.6440	 7.3660
 2.6460	 7.3520
 2.6470	 7.2700
 2.6480	 7.2270
 2.6500	 7.3300
 2.6510	 7.3050
 2.6520	 7.1860
 2.6540	 7.1000
 2.6550	 7.1510
 2.6560	 7.1340
 2.6580	 7.0820
 2.6590	 6.9940
 2.6610	 6.9660
 2.6620	 6.7880
 2.6630	 6.7700
 2.6650	 6.8600
 2.6660	 6.9330
 2.6670	 6.7510
 2.6690	 6.7480
 2.6700	 6.8010
 2.6720	 6.8480
 2.6730	 6.7840
 2.6740	 6.8490
 2.6760	 6.7300
 2.6770	 6.6810
 2.6780	 6.7660
 2.6800	 6.8960
 2.6810	 6.7760
 2.6830	 6.6710
 2.6840	 6.5830
 2.6850	 6.5340
 2.6870	 6.3940
 2.6880	 6.4370
 2.6900	 6.3430
 2.6910	 6.3630
 2.6920	 6.3410
 2.6940	 6.3080
 2.6950	 6.2520
 2.6970	 6.2240
 2.6980	 6.1700
 2.6990	 6.2450
 2.7010	 6.2760
 2.7020	 6.1250
 2.7040	 6.0360
 2.7050	 6.0670
 2.7060	 5.8860
 2.7080	 5.8370
 2.7090	 5.8200
 2.7110	 5.8100
 2.7120	 5.7290
 2.7130	 5.7930
 2.7150	 5.7590
 2.7160	 5.7080
 2.7180	 5.7200
 2.7190	 5.6810
 2.7210	 5.4550
 2.7220	 5.4970
 2.7230	 5.4940
 2.7250	 5.3430
 2.7260	 5.2300
 2.7280	 5.3810
 2.7290	 5.3320
 2.7310	 5.2770
 2.7320	 5.1680
 2.7330	 5.0080
 2.7350	 5.0500
 2.7360	 5.2350
 2.7380	 4.9620
 2.7390	 4.7880
 2.7410	 4.7540
 2.7420	 4.7600
 2.7440	 4.7450
 2.7450	 4.7460
 2.7470	 4.7610
 2.7480	 4.7170
 2.7490	 4.4380
 2.7510	 4.1950
 2.7520	 4.1260
 2.7540	 4.4610
 2.7550	 4.5750
 2.7570	 4.4940
 2.7580	 4.4770
 2.7600	 4.4580
 2.7610	 4.3380
 2.7630	 4.5130
 2.7640	 4.3330
 2.7660	 4.0880
 2.7670	 3.8940
 2.7680	 4.0700
 2.7700	 4.1560
 2.7710	 4.1710
 2.7730	 4.1420
 2.7740	 4.2210
 2.7760	 4.1570
 2.7770	 4.0710
 2.7790	 4.0910
 2.7800	 4.1530
 2.7820	 4.0360
 2.7830	 4.0160
 2.7850	 4.0360
 2.7860	 4.0750
 2.7880	 3.8900
 2.7890	 3.9060
 2.7910	 3.9430
 2.7920	 4.0070
 2.7940	 3.9980
 2.7950	 4.0500
 2.7970	 3.9620
 2.7980	 3.9300
 2.8000	 3.6790
 2.8010	 3.6220
 2.8030	 3.6760
 2.8040	 3.7130
 2.8060	 3.6120
 2.8070	 3.7210
 2.8090	 3.6330
 2.8110	 3.6870
 2.8120	 3.6750
 2.8140	 3.6560
 2.8150	 3.5560
 2.8170	 3.6000
 2.8180	 3.5630
 2.8200	 3.6650
 2.8210	 3.5430
 2.8230	 3.4900
 2.8240	 3.5440
 2.8260	 3.5480
 2.8270	 3.3100
 2.8290	 3.5080
 2.8300	 3.6630
 2.8320	 3.6310
 2.8340	 3.4620
 2.8350	 3.3950
 2.8370	 3.2940
 2.8380	 3.4510
 2.8400	 3.4010
 2.8410	 3.3090
 2.8430	 3.1410
 2.8440	 3.1500
 2.8460	 3.2240
 2.8480	 3.4290
 2.8490	 3.4040
 2.8510	 3.2900
 2.8520	 3.2190
 2.8540	 3.2910
 2.8550	 3.1690
 2.8570	 3.2550
 2.8590	 3.1980
 2.8600	 3.1720
 2.8620	 3.1820
 2.8630	 3.3950
 2.8650	 3.4690
 2.8660	 3.4080
 2.8680	 3.2280
 2.8700	 3.3240
 2.8710	 3.4000
 2.8730	 3.3480
 2.8740	 3.2280
 2.8760	 3.2080
 2.8780	 3.2530
 2.8790	 3.4370
 2.8810	 3.3320
 2.8820	 3.2100
 2.8840	 3.1380
 2.8860	 3.3500
 2.8870	 3.4180
 2.8890	 3.2550
 2.8900	 2.9850
 2.8920	 2.9920
 2.8940	 3.1690
 2.8950	 3.2050
 2.8970	 3.0120
 2.8980	 2.9910
 2.9000	 2.9410
 2.9020	 3.0820
 2.9030	 3.0910
 2.9050	 3.2170
 2.9070	 3.2220
 2.9080	 3.1970
 2.9100	 3.1490
 2.9120	 3.1880
 2.9130	 2.9780
 2.9150	 3.0100
 2.9160	 2.9550
 2.9180	 2.9520
 2.9200	 2.8910
 2.9210	 3.0570
 2.9230	 3.0870
 2.9250	 3.2010
 2.9260	 3.2570
 2.9280	 3.2020
 2.9300	 2.9570
 2.9310	 3.0110
 2.9330	 3.0990
 2.9350	 3.1910
 2.9360	 3.1030
 2.9380	 2.9570
 2.9400	 2.8940
 2.9410	 2.9480
 2.9430	 2.3870
 2.9450	 2.4570
 2.9460	 2.8550
 2.9480	 3.1490
 2.9500	 3.2800
 2.9510	 3.4050
 2.9530	 2.7030
 2.9550	 2.5750
 2.9560	 3.0830
 2.9580	 3.1650
 2.9600	 2.7150
 2.9610	 3.3310
 2.9630	 3.6640
 2.9650	 3.3570
 2.9660	 3.0110
 2.9680	 2.0830
 2.9700	 1.9100
 2.9720	 3.0450
 2.9730	 3.3180
 2.9750	 2.0410
 2.9770	 2.0700
 2.9780	 4.2480
 2.9800	 4.1510
 2.9820	 3.2850
 2.9840	 3.3830
 2.9850	 2.9680
 2.9870	 2.8230
 2.9890	 2.8580
 2.9900	 2.7900
 2.9920	 4.0140
 2.9940	 4.7280
 2.9960	 4.0180
 2.9970	 3.0230
 2.9990	 2.9520
 3.0010	 2.5490
 3.0030	 2.4450
 3.0040	 2.9380
 3.0060	 3.4420
 3.0080	 3.1210
 3.0100	 2.5350
 3.0110	 2.4210
 3.0130	 2.9860
 3.0150	 3.0210
 3.0170	 3.2190
 3.0180	 3.9620
 3.0200	 4.2250
 3.0220	 3.7450
 3.0240	 3.4130
 3.0250	 3.2360
 3.0270	 3.2190
 3.0290	 3.1160
 3.0310	 2.9660
 3.0320	 2.8680
 3.0340	 3.0550
 3.0360	 2.3770
 3.0380	 1.8240
 3.0400	 2.2500
 3.0410	 2.6150
 3.0430	 2.5950
 3.0450	 1.6110
 3.0470	 2.6060
 3.0480	 3.5300
 3.0500	 2.8180
 3.0520	 2.4990
 3.0540	 3.4720
 3.0560	 4.2120
 3.0570	 4.5890
 3.0590	 3.9130
 3.0610	 2.8130
 3.0630	 2.9910
 3.0650	 3.3270
 3.0660	 2.0740
 3.0680	 2.3160
 3.0700	 3.9430
 3.0720	 3.7980
 3.0740	 3.2970
 3.0760	 3.0040
 3.0770	 3.0300
 3.0790	 3.2670
 3.0810	 3.3810
 3.0830	 3.3860
 3.0850	 3.4920
 3.0870	 3.5610
 3.0880	 3.4940
 3.0900	 3.3430
 3.0920	 3.5890
 3.0940	 3.6570
 3.0960	 3.4510
 3.0980	 3.3370
 3.0990	 3.2620
 3.1010	 3.1700
 3.1030	 3.3690
 3.1050	 3.4610
 3.1070	 3.4800
 3.1090	 3.5470
 3.1110	 3.3510
 3.1120	 2.9700
 3.1140	 2.9020
 3.1160	 3.1200
 3.1180	 3.4500
 3.1200	 3.4140
 3.1220	 3.4640
 3.1240	 3.4210
 3.1260	 3.6300
 3.1270	 3.7670
 3.1290	 3.6630
 3.1310	 3.5930
 3.1330	 3.5200
 3.1350	 2.7070
 3.1370	 2.3660
 3.1390	 2.6480
 3.1410	 3.4670
 3.1430	 3.4660
 3.1450	 4.0940
 3.1460	 4.4520
 3.1480	 3.8170
 3.1500	 3.2600
 3.1520	 3.2280
 3.1540	 3.5200
 3.1560	 3.4880
 3.1580	 3.3910
 3.1600	 3.6840
 3.1620	 4.4220
 3.1640	 4.4620
 3.1660	 3.2140
 3.1680	 2.2620
 3.1700	 3.1490
 3.1710	 4.2740
 3.1730	 3.8390
 3.1750	 3.3050
 3.1770	 3.7350
 3.1790	 3.5470
 3.1810	 3.6150
 3.1830	 4.2680
 3.1850	 4.2000
 3.1870	 3.9150
 3.1890	 3.8590
 3.1910	 3.8840
 3.1930	 3.8430
 3.1950	 3.8210
 3.1970	 3.6530
 3.1990	 3.8080
 3.2010	 3.9460
 3.2030	 4.1100
 3.2050	 4.3000
 3.2070	 4.2660
 3.2090	 4.1610
 3.2110	 4.2180
 3.2130	 4.1570
 3.2150	 4.1150
 3.2170	 3.9310
 3.2190	 4.0090
 3.2210	 4.0740
 3.2230	 4.0170
 3.2250	 4.1170
 3.2270	 4.3060
 3.2290	 4.0850
 3.2310	 3.8570
 3.2330	 3.8220
 3.2350	 3.8760
 3.2370	 3.8240
 3.2390	 3.9710
 3.2410	 4.1940
 3.2430	 4.1500
 3.2450	 3.8800
 3.2470	 3.8650
 3.2490	 3.7680
 3.2510	 3.8370
 3.2530	 4.1230
 3.2550	 4.3060
 3.2570	 3.9820
 3.2590	 3.9900
 3.2610	 4.3690
 3.2630	 4.4680
 3.2650	 4.0670
 3.2670	 4.1960
 3.2690	 4.4130
 3.2720	 4.4860
 3.2740	 4.4120
 3.2760	 4.3150
 3.2780	 4.3140
 3.2800	 4.1620
 3.2820	 4.1320
 3.2840	 4.2680
 3.2860	 4.1330
 3.2880	 4.0160
 3.2900	 4.0220
 3.2920	 3.9340
 3.2940	 3.9200
 3.2960	 4.1170
 3.2990	 4.1460
 3.3010	 4.1610
 3.3030	 3.9850
 3.3050	 4.1110
 3.3070	 4.1880
 3.3090	 4.0970
 3.3110	 4.1800
 3.3130	 4.2240
 3.3150	 4.1340
 3.3180	 4.0840
 3.3200	 4.0820
 3.3220	 4.2410
 3.3240	 4.3500
 3.3260	 4.3440
 3.3280	 4.2250
 3.3300	 4.1620
 3.3330	 4.0720
 3.3350	 4.0130
 3.3370	 3.9910
 3.3390	 3.9450
 3.3410	 3.9340
 3.3430	 4.0940
 3.3450	 4.0900
 3.3480	 4.2050
 3.3500	 4.1080
 3.3520	 3.9930
 3.3540	 3.8570
 3.3560	 3.8190
 3.3580	 3.8330
 3.3610	 4.0330
 3.3630	 3.9250
 3.3650	 3.8540
 3.3670	 3.7960
 3.3690	 3.8900
 3.3720	 3.9530
 3.3740	 3.7670
 3.3760	 3.5510
 3.3780	 3.5510
 3.3800	 3.5540
 3.3830	 3.6400
 3.3850	 3.6060
 3.3870	 3.4770
 3.3890	 3.5250
 3.3910	 3.6410
 3.3940	 3.4410
 3.3960	 3.3800
 3.3980	 3.4330
 3.4000	 3.3040
 3.4020	 3.1550
 3.4050	 3.2750
 3.4070	 3.2820
 3.4090	 3.4220
 3.4110	 3.5450
 3.4140	 3.6320
 3.4160	 3.7280
 3.4180	 3.9160
 3.4200	 4.1250
 3.4230	 4.4680
 3.4250	 4.8260
 3.4270	 5.2450
 3.4290	 5.4000
 3.4320	 5.3190
 3.4340	 4.9930
 3.4360	 4.5250
 3.4390	 4.2610
 3.4410	 4.3410
 3.4430	 4.3910
 3.4450	 4.4100
 3.4480	 4.3330
 3.4500	 4.0070
 3.4520	 3.9340
 3.4550	 3.7660
 3.4570	 3.7280
 3.4590	 3.9410
 3.4620	 3.9800
 3.4640	 4.0650
 3.4660	 4.1010
 3.4680	 4.1090
 3.4710	 4.2190
 3.4730	 4.2490
 3.4750	 4.1050
 3.4780	 4.1170
 3.4800	 4.1330
 3.4820	 4.1280
 3.4850	 4.0370
 3.4870	 4.1090
 3.4890	 4.0580
 3.4920	 3.9910
 3.4940	 4.0080
 3.4970	 4.0200
 3.4990	 3.9330
 3.5010	 3.9480
 3.5040	 4.1630
 3.5060	 4.5090
 3.5080	 4.8480
 3.5110	 5.3900
 3.5130	 5.5780
 3.5160	 5.2590
 3.5180	 5.0710
 3.5200	 5.0990
 3.5230	 4.9850
 3.5250	 5.0340
 3.5270	 5.1100
 3.5300	 5.1850
 3.5320	 5.0940
 3.5350	 4.9940
 3.5370	 4.9150
 3.5400	 4.9710
 3.5420	 4.9530
 3.5440	 4.9580
 3.5470	 4.9500
 3.5490	 4.9780
 3.5520	 4.9350
 3.5540	 4.9540
 3.5570	 4.9230
 3.5590	 4.9370
 3.5610	 5.0630
 3.5640	 5.0820
 3.5660	 4.9890
 3.5690	 4.9650
 3.5710	 5.0010
 3.5740	 5.1250
 3.5760	 5.1070
 3.5790	 5.1550
 3.5810	 5.2350
 3.5840	 5.2600
 3.5860	 5.1480
 3.5890	 5.1530
 3.5910	 5.2170
 3.5930	 5.3920
 3.5960	 5.4330
 3.5980	 5.1370
 3.6010	 4.8640
 3.6030	 4.9050
 3.6060	 5.0070
 3.6080	 5.2810
 3.6110	 5.2420
 3.6140	 4.9880
 3.6160	 4.9570
 3.6190	 5.1130
 3.6210	 5.0870
 3.6240	 5.1010
 3.6260	 5.1740
 3.6290	 5.2990
 3.6310	 5.2870
 3.6340	 5.2470
 3.6360	 5.2440
 3.6390	 5.2100
 3.6410	 5.0980
 3.6440	 5.1440
 3.6470	 5.1210
 3.6490	 5.1420
 3.6520	 5.1730
 3.6540	 5.2330
 3.6570	 5.2140
 3.6590	 5.2210
 3.6620	 5.1950
 3.6650	 5.1970
 3.6670	 5.1520
 3.6700	 5.1680
 3.6720	 5.1400
 3.6750	 5.1600
 3.6780	 5.1800
 3.6800	 5.2390
 3.6830	 5.2190
 3.6850	 5.2370
 3.6880	 5.1780
 3.6910	 5.1820
 3.6930	 5.1470
 3.6960	 5.2230
 3.6990	 5.2740
 3.7010	 5.3370
 3.7040	 5.3350
 3.7060	 5.3740
 3.7090	 5.3420
 3.7120	 5.3090
 3.7140	 5.2550
 3.7170	 5.2240
 3.7200	 5.2400
 3.7220	 5.3230
 3.7250	 5.1620
 3.7280	 5.2540
 3.7300	 5.4630
 3.7330	 5.4480
 3.7360	 5.3760
 3.7390	 5.4040
 3.7410	 5.2640
 3.7440	 5.1400
 3.7470	 5.1180
 3.7490	 5.2470
 3.7520	 5.3540
 3.7550	 5.4690
 3.7580	 5.4320
 3.7600	 5.4090
 3.7630	 5.3320
 3.7660	 5.3680
 3.7680	 5.4140
 3.7710	 5.5350
 3.7740	 5.5210
 3.7770	 5.3670
 3.7790	 5.3680
 3.7820	 5.4490
 3.7850	 5.3980
 3.7880	 5.3700
 3.7900	 5.3550
 3.7930	 5.3910
 3.7960	 5.4160
 3.7990	 5.4720
 3.8020	 5.5070
 3.8040	 5.3890
 3.8070	 5.3820
 3.8100	 5.4680
 3.8130	 5.4040
 3.8160	 5.4720
 3.8180	 5.4250
 3.8210	 5.4650
 3.8240	 5.5280
 3.8270	 5.5830
 3.8300	 5.4760
 3.8330	 5.3820
 3.8350	 5.3980
 3.8380	 5.4840
 3.8410	 5.4650
 3.8440	 5.4190
 3.8470	 5.3480
 3.8500	 5.3660
 3.8520	 5.4700
 3.8550	 5.4910
 3.8580	 5.5050
 3.8610	 5.5930
 3.8640	 5.5380
 3.8670	 5.5480
 3.8700	 5.5550
 3.8730	 5.5780
 3.8750	 5.6030
 3.8780	 5.6640
 3.8810	 5.6770
 3.8840	 5.6480
 3.8870	 5.6380
 3.8900	 5.6370
 3.8930	 5.5940
 3.8960	 5.6040
 3.8990	 5.6180
 3.9020	 5.6740
 3.9050	 5.6210
 3.9080	 5.5770
 3.9110	 5.5290
 3.9140	 5.5160
 3.9160	 5.5880
 3.9190	 5.6400
 3.9220	 5.6020
 3.9250	 5.6140
 3.9280	 5.6070
 3.9310	 5.6380
 3.9340	 5.6700
 3.9370	 5.6900
 3.9400	 5.6700
 3.9430	 5.6430
 3.9460	 5.5970
 3.9490	 5.6450
 3.9520	 5.6360
 3.9550	 5.6580
 3.9580	 5.6640
 3.9610	 5.7090
 3.9640	 5.7120
 3.9670	 5.6970
 3.9700	 5.6000
 3.9730	 5.6230
 3.9770	 5.6390
 3.9800	 5.6680
 3.9830	 5.6700
 3.9860	 5.6990
 3.9890	 5.7080
 3.9920	 5.6800
 3.9950	 5.6630
 3.9980	 5.7320
 4.0010	 5.6900
 4.0040	 5.6840
 4.0070	 5.7060
 4.0100	 5.7190
 4.0130	 5.7010
 4.0170	 5.7240
 4.0200	 5.7710
 4.0230	 5.7980
 4.0260	 5.8080
 4.0290	 5.8330
 4.0320	 5.7700
 4.0350	 5.7630
 4.0380	 5.7750
 4.0420	 5.7490
 4.0450	 5.6980
 4.0480	 5.7990
 4.0510	 5.8580
 4.0540	 5.8490
 4.0570	 5.8500
 4.0610	 5.8810
 4.0640	 5.8710
 4.0670	 5.7700
 4.0700	 5.6970
 4.0730	 5.7110
 4.0770	 5.7320
 4.0800	 5.7440
 4.0830	 5.7560
 4.0860	 5.8160
 4.0890	 5.8250
 4.0930	 5.8990
 4.0960	 5.9900
 4.0990	 5.9140
 4.1020	 5.8020
 4.1060	 5.8060
 4.1090	 6.0200
 4.1120	 6.0680
 4.1150	 5.8970
 4.1190	 5.8400
 4.1220	 5.8140
 4.1250	 5.8050
 4.1280	 5.8710
 4.1320	 5.9300
 4.1350	 5.9390
 4.1380	 5.9620
 4.1420	 5.8830
 4.1450	 5.8590
 4.1480	 5.9020
 4.1520	 5.9140
 4.1550	 5.8390
 4.1580	 5.8790
 4.1620	 5.9190
 4.1650	 5.9010
 4.1680	 5.8730
 4.1720	 5.9510
 4.1750	 5.9510
 4.1780	 5.9450
 4.1820	 5.9910
 4.1850	 6.0120
 4.1890	 6.0040
 4.1920	 5.9520
 4.1950	 5.9140
 4.1990	 6.0130
 4.2020	 6.1490
 4.2060	 6.0580
 4.2090	 5.9570
 4.2120	 6.1430
 4.2160	 6.1430
 4.2190	 6.0690
 4.2230	 6.0550
 4.2260	 5.8280
 4.2300	 5.7580
 4.2330	 5.7990
 4.2360	 5.7440
 4.2400	 5.8060
 4.2430	 5.6480
 4.2470	 5.6440
 4.2500	 5.7040
 4.2540	 5.8660
 4.2570	 6.0240
 4.2610	 6.0510
 4.2640	 5.9040
 4.2680	 5.9180
 4.2710	 5.8440
 4.2750	 5.8090
 4.2780	 5.9270
 4.2820	 6.0070
 4.2850	 5.9650
 4.2890	 5.8020
 4.2930	 5.7930
 4.2960	 5.9920
 4.3000	 5.9260
 4.3030	 5.8360
 4.3070	 5.8970
 4.3100	 6.0430
 4.3140	 5.9780
 4.3180	 5.9570
 4.3210	 6.0050
 4.3250	 5.9280
 4.3280	 5.8940
 4.3320	 5.9470
 4.3360	 5.9330
 4.3390	 5.8700
 4.3430	 5.8290
 4.3470	 5.8300
 4.3500	 5.8560
 4.3540	 5.8730
 4.3570	 5.8770
 4.3610	 5.8650
 4.3650	 5.8480
 4.3680	 5.9560
 4.3720	 6.0340
 4.3760	 5.9480
 4.3800	 5.8920
 4.3830	 5.8920
 4.3870	 5.9050
 4.3910	 5.9050
 4.3940	 5.8580
 4.3980	 5.8770
 4.4020	 5.9390
 4.4060	 5.9210
 4.4090	 5.8610
 4.4130	 5.8210
 4.4170	 5.8330
 4.4210	 5.8340
 4.4240	 5.8300
 4.4280	 5.8640
 4.4320	 5.8610
 4.4360	 5.8520
 4.4400	 5.8270
 4.4430	 5.7520
 4.4470	 5.7530
 4.4510	 5.8280
 4.4550	 5.8270
 4.4590	 5.8170
 4.4620	 5.8680
 4.4660	 5.8740
 4.4700	 5.8180
 4.4740	 5.7640
 4.4780	 5.7620
 4.4820	 5.7900
 4.4860	 5.7850
 4.4900	 5.7690
 4.4930	 5.7320
 4.4970	 5.6920
 4.5010	 5.7270
 4.5050	 5.7330
 4.5090	 5.6840
 4.5130	 5.7150
 4.5170	 5.7830
 4.5210	 5.7560
 4.5250	 5.7070
 4.5290	 5.7550
 4.5330	 5.7940
 4.5370	 5.7740
 4.5410	 5.6890
 4.5450	 5.6470
 4.5490	 5.7830
 4.5530	 5.8390
 4.5570	 5.7630
 4.5610	 5.7140
 4.5650	 5.6720
 4.5690	 5.6280
 4.5730	 5.6530
 4.5770	 5.6900
 4.5810	 5.7210
 4.5850	 5.7230
 4.5890	 5.6820
 4.5930	 5.6980
 4.5970	 5.6830
 4.6010	 5.5860
 4.6050	 5.5590
 4.6090	 5.3600
 4.6130	 5.4000
 4.6170	 5.7100
 4.6220	 5.8120
 4.6260	 5.7050
 4.6300	 5.5970
 4.6340	 5.5680
 4.6380	 5.6000
 4.6420	 5.6690
 4.6460	 5.6470
 4.6510	 5.6160
 4.6550	 5.6170
 4.6590	 5.5960
 4.6630	 5.5040
 4.6670	 5.5940
 4.6720	 5.7220
 4.6760	 5.7440
 4.6800	 5.7100
 4.6840	 5.6210
 4.6880	 5.5400
 4.6930	 5.5570
 4.6970	 5.5730
 4.7010	 5.6390
 4.7050	 5.7160
 4.7100	 5.7310
 4.7140	 5.6840
 4.7180	 5.6550
 4.7230	 5.6920
 4.7270	 5.7010
 4.7310	 5.6860
 4.7360	 5.6440
 4.7400	 5.6030
 4.7440	 5.5770
 4.7490	 5.6330
 4.7530	 5.6360
 4.7570	 5.6470
 4.7620	 5.5960
 4.7660	 5.5840
 4.7700	 5.6370
 4.7750	 5.6000
 4.7790	 5.4310
 4.7840	 5.3780
 4.7880	 5.6900
 4.7920	 5.6680
 4.7970	 5.4320
 4.8010	 5.4140
 4.8060	 5.4350
 4.8100	 5.5900
 4.8150	 5.6690
 4.8190	 5.6070
 4.8240	 5.5870
 4.8280	 5.6640
 4.8330	 5.6670
 4.8370	 5.6120
 4.8420	 5.6150
 4.8460	 5.6560
 4.8510	 5.6470
 4.8550	 5.6320
 4.8600	 5.6530
 4.8640	 5.6910
 4.8690	 5.6440
 4.8730	 5.5660
 4.8780	 5.5740
 4.8830	 5.6140
 4.8870	 5.6610
 4.8920	 5.6300
 4.8960	 5.5970
 4.9010	 5.5830
 4.9060	 5.6100
 4.9100	 5.6170
 4.9150	 5.6030
 4.9200	 5.6530
 4.9240	 5.7240
 4.9290	 5.6960
 4.9340	 5.6500
 4.9380	 5.6300
 4.9430	 5.5700
 4.9480	 5.5760
 4.9530	 5.6150
 4.9570	 5.6500
 4.9620	 5.6740
 4.9670	 5.6900
 4.9720	 5.7000
 4.9760	 5.6640
 4.9810	 5.6940
 4.9860	 5.7030
 4.9910	 5.6550
 4.9960	 5.6520
 5.0000	 5.7070
 5.0050	 5.7360
 5.0100	 5.6570
 5.0150	 5.6710
 5.0200	 5.6350
 5.0250	 5.7020
 5.0290	 5.7180
 5.0340	 5.6600
 5.0390	 5.6400
 5.0440	 5.6640
 5.0490	 5.6430
 5.0540	 5.6340
 5.0590	 5.6350
 5.0640	 5.6340
 5.0690	 5.6730
 5.0740	 5.6400
 5.0790	 5.5560
 5.0840	 5.5870
 5.0890	 5.5940
 5.0940	 5.6390
 5.0990	 5.6950
 5.1040	 5.6740
 5.1090	 5.6750
 5.1140	 5.7150
 5.1190	 5.6840
 5.1240	 5.6230
 5.1290	 5.6020
 5.1340	 5.6150
 5.1390	 5.6120
 5.1440	 5.6500
 5.1490	 5.6160
 5.1540	 5.5490
 5.1600	 5.5780
 5.1650	 5.7130
 5.1700	 5.6970
 5.1750	 5.6530
 5.1800	 5.6460
 5.1850	 5.5670
 5.1910	 5.5710
 5.1960	 5.6490
 5.2010	 5.6170
 5.2060	 5.6250
 5.2110	 5.5840
 5.2170	 5.5720
 5.2220	 5.5920
 5.2270	 5.6480
 5.2320	 5.6140
 5.2380	 5.5460
 5.2430	 5.5590
 5.2480	 5.6110
 5.2540	 5.5500
 5.2590	 5.5140
 5.2640	 5.5180
 5.2700	 5.5880
 5.2750	 5.6190
 5.2800	 5.5870
 5.2860	 5.5740
 5.2910	 5.5740
 5.2970	 5.5470
 5.3020	 5.5240
 5.3070	 5.4910
 5.3130	 5.5580
 5.3180	 5.5530
 5.3240	 5.5300
 5.3290	 5.5090
 5.3350	 5.5200
 5.3400	 5.4840
 5.3460	 5.4790
 5.3510	 5.4130
 5.3570	 5.4400
 5.3620	 5.4170
 5.3680	 5.3600
 5.3730	 5.3970
 5.3790	 5.3780
 5.3850	 5.3410
 5.3900	 5.4250
 5.3960	 5.4310
 5.4010	 5.3860
 5.4070	 5.2760
 5.4130	 5.2720
 5.4180	 5.3470
 5.4240	 5.4120
 5.4300	 5.3700
 5.4350	 5.3080
 5.4410	 5.2560
 5.4470	 5.2470
 5.4530	 5.2070
 5.4580	 5.2060
 5.4640	 5.1830
 5.4700	 5.1540
 5.4760	 5.1390
 5.4810	 5.1870
 5.4870	 5.1430
 5.4930	 5.0810
 5.4990	 5.0300
 5.5050	 5.0090
 5.5110	 4.9610
 5.5160	 4.9200
 5.5220	 4.9510
 5.5280	 4.8860
 5.5340	 4.7800
 5.5400	 4.8460
 5.5460	 4.8450
 5.5520	 4.8060
 5.5580	 4.7470
 5.5640	 4.7330
 5.5700	 4.7100
 5.5760	 4.6820
 5.5820	 4.5840
 5.5880	 4.4960
 5.5940	 4.3880
 5.6000	 4.3230
 5.6060	 4.2400
 5.6120	 4.2200
 5.6180	 4.0890
 5.6240	 3.9710
 5.6300	 3.9240
 5.6360	 3.9060
 5.6420	 3.8240
 5.6490	 3.7680
 5.6550	 3.6460
 5.6610	 3.5420
 5.6670	 3.3590
 5.6730	 3.2480
 5.6800	 3.1310
 5.6860	 3.0650
 5.6920	 2.9740
 5.6980	 2.8670
 5.7040	 2.7490
 5.7110	 2.6940
 5.7170	 2.6350
 5.7230	 2.6220
 5.7300	 2.5420
 5.7360	 2.5390
 5.7420	 2.4800
 5.7490	 2.5080
 5.7550	 2.4660
 5.7620	 2.5450
 5.7680	 2.5950
 5.7740	 2.6780
 5.7810	 2.7330
 5.7870	 2.8060
 5.7940	 2.8230
 5.8000	 2.8920
 5.8070	 2.9460
 5.8130	 3.0430
 5.8200	 3.1200
 5.8260	 3.1870
 5.8330	 3.2120
 5.8390	 3.3070
 5.8460	 3.3820
 5.8530	 3.4720
 5.8590	 3.4700
 5.8660	 3.6140
 5.8720	 3.7400
 5.8790	 3.8040
 5.8860	 3.8030
 5.8920	 3.8490
 5.8990	 3.8760
 5.9060	 3.9740
 5.9130	 3.9930
 5.9190	 4.0320
 5.9260	 3.9840
 5.9330	 3.9730
 5.9400	 3.9820
 5.9470	 4.0310
 5.9530	 3.9880
 5.9600	 4.0050
 5.9670	 3.9870
 5.9740	 4.0340
 5.9810	 3.8890
 5.9880	 3.7940
 5.9950	 3.7120
 6.0020	 3.6740
 6.0090	 3.5440
 6.0160	 3.4930
 6.0230	 3.4100
 6.0300	 3.4530
 6.0370	 3.3910
 6.0440	 3.4390
 6.0510	 3.5480
 6.0580	 3.5850
 6.0650	 3.5170
 6.0720	 3.6280
 6.0790	 3.6950
 6.0860	 3.8120
 6.0930	 3.7740
 6.1000	 3.7830
 6.1080	 3.7460
 6.1150	 3.7400
 6.1220	 3.7160
 6.1290	 3.7810
 6.1370	 3.7440
 6.1440	 3.7440
 6.1510	 3.6270
 6.1580	 3.6330
 6.1660	 3.6370
 6.1730	 3.6660
 6.1800	 3.4830
 6.1880	 3.4580
 6.1950	 3.4870
 6.2030	 3.6190
 6.2100	 3.6320
 6.2170	 3.6650
 6.2250	 3.6170
 6.2320	 3.6330
 6.2400	 3.5850
 6.2470	 3.7360
 6.2550	 3.8140
 6.2630	 3.8100
 6.2700	 3.7440
 6.2780	 3.8150
 6.2850	 3.8550
 6.2930	 3.8830
 6.3010	 3.8080
 6.3080	 3.9630
 6.3160	 4.0490
 6.3240	 4.0730
 6.3310	 4.0090
 6.3390	 4.0540
 6.3470	 4.0330
 6.3550	 4.1160
 6.3620	 4.1970
 6.3700	 4.2860
 6.3780	 4.2960
 6.3860	 4.3390
 6.3940	 4.2480
 6.4020	 4.2900
 6.4100	 4.3920
 6.4180	 4.4960
 6.4260	 4.4380
 6.4330	 4.4980
 6.4410	 4.4860
 6.4490	 4.4680
 6.4580	 4.4500
 6.4660	 4.4790
 6.4740	 4.4450
 6.4820	 4.4660
 6.4900	 4.4050
 6.4980	 4.4490
 6.5060	 4.3520
 6.5140	 4.2920
 6.5230	 4.1840
 6.5310	 4.1430
 6.5390	 4.1120
 6.5470	 4.1290
 6.5550	 3.9230
 6.5640	 3.8580
 6.5720	 3.7260
 6.5800	 3.6810
 6.5890	 3.5960
 6.5970	 3.6420
 6.6060	 3.6650
 6.6140	 3.7910
 6.6220	 3.7460
 6.6310	 3.8490
 6.6390	 3.8940
 6.6480	 4.0020
 6.6560	 3.9860
 6.6650	 3.9890
 6.6740	 3.9810
 6.6820	 4.0870
 6.6910	 4.1150
 6.6990	 4.2140
 6.7080	 4.1710
 6.7170	 4.1330
 6.7260	 4.0320
 6.7340	 4.1060
 6.7430	 4.1270
 6.7520	 4.1030
 6.7610	 3.9440
 6.7690	 3.9440
 6.7780	 3.9580
 6.7870	 4.0860
 6.7960	 3.8510
 6.8050	 3.6480
 6.8140	 3.5000
 6.8230	 3.6020
 6.8320	 3.7770
 6.8410	 3.8570
 6.8500	 3.6160
 6.8590	 3.5750
 6.8680	 3.5640
 6.8770	 3.6170
 6.8860	 3.5760
 6.8950	 3.6700
 6.9050	 3.6410
 6.9140	 3.7080
 6.9230	 3.6870
 6.9320	 3.7380
 6.9420	 3.6350
 6.9510	 3.6390
 6.9600	 3.6300
 6.9700	 3.7000
 6.9790	 3.6200
 6.9880	 3.6910
 6.9980	 3.6720
 7.0070	 3.7280
 7.0170	 3.6900
 7.0260	 3.7260
 7.0360	 3.7000
 7.0450	 3.7570
 7.0550	 3.7400
 7.0650	 3.8170
 7.0740	 3.7480
 7.0840	 3.8180
 7.0940	 3.7530
 7.1030	 3.7530
 7.1130	 3.6920
 7.1230	 3.7050
 7.1330	 3.6790
 7.1420	 3.7140
 7.1520	 3.6450
 7.1620	 3.6590
 7.1720	 3.5230
 7.1820	 3.5150
 7.1920	 3.4640
 7.2020	 3.4600
 7.2120	 3.3450
 7.2220	 3.3350
 7.2320	 3.2680
 7.2420	 3.2660
 7.2520	 3.1600
 7.2620	 3.2670
 7.2730	 3.3010
 7.2830	 3.3480
 7.2930	 3.3000
 7.3030	 3.3570
 7.3140	 3.2790
 7.3240	 3.3530
 7.3340	 3.3360
 7.3450	 3.4940
 7.3550	 3.5130
 7.3660	 3.5890
 7.3760	 3.5980
 7.3870	 3.6860
 7.3970	 3.6790
 7.4080	 3.7550
 7.4180	 3.7310
 7.4290	 3.7830
 7.4400	 3.7230
 7.4500	 3.6640
 7.4610	 3.6390
 7.4720	 3.7760
 7.4830	 3.6770
 7.4930	 3.7520
 7.5040	 3.7210
 7.5150	 3.7520
 7.5260	 3.6580
 7.5370	 3.7260
 7.5480	 3.6070
 7.5590	 3.5690
 7.5700	 3.4950
 7.5810	 3.5380
 7.5920	 3.4670
 7.6030	 3.5560
 7.6140	 3.5280
 7.6260	 3.5620
 7.6370	 3.4490
 7.6480	 3.5450
 7.6590	 3.5700
 7.6710	 3.6200
 7.6820	 3.5470
 7.6930	 3.6510
 7.7050	 3.5960
 7.7160	 3.6160
 7.7280	 3.4730
 7.7390	 3.4140
 7.7510	 3.3330
 7.7630	 3.4110
 7.7740	 3.3820
 7.7860	 3.4590
 7.7980	 3.3590
 7.8090	 3.4130
 7.8210	 3.3210
 7.8330	 3.4100
 7.8450	 3.3980
 7.8570	 3.4960
 7.8690	 3.4480
 7.8810	 3.4430
 7.8930	 3.4020
 7.9050	 3.6050
 7.9170	 3.5350
 7.9290	 3.5210
 7.9410	 3.4640
 7.9530	 3.5380
 7.9650	 3.3920
 7.9780	 3.4450
 7.9900	 3.3950
 8.0020	 3.6230
 8.0150	 3.6910
 8.0270	 3.7880
 8.0390	 3.6080
 8.0520	 3.7340
 8.0640	 3.7220
 8.0770	 3.8160
 8.0900	 3.7530
 8.1020	 3.8310
 8.1150	 3.7360
 8.1280	 3.8190
 8.1400	 3.7060
 8.1530	 3.8920
 8.1660	 3.8100
 8.1790	 3.9740
 8.1920	 4.0050
 8.2050	 4.1110
 8.2180	 4.0530
 8.2310	 4.2220
 8.2440	 4.1150
 8.2570	 4.2190
 8.2700	 4.1700
 8.2830	 4.2460
 8.2970	 4.2570
 8.3100	 4.4530
 8.3230	 4.2610
 8.3370	 4.3280
 8.3500	 4.2960
 8.3640	 4.4760
 8.3770	 4.3150
 8.3910	 4.2830
 8.4040	 4.1840
 8.4180	 4.2460
 8.4320	 4.1260
 8.4450	 4.1580
 8.4590	 4.0300
 8.4730	 4.1670
 8.4870	 4.1220
 8.5010	 4.3080
 8.5150	 4.2960
 8.5290	 4.4280
 8.5430	 4.3920
 8.5570	 4.6010
 8.5710	 4.7350
 8.5850	 4.9950
 8.5990	 4.9110
 8.6140	 4.9250
 8.6280	 4.7700
 8.6420	 4.9570
 8.6570	 4.8570
 8.6710	 4.9600
 8.6860	 4.9380
 8.7000	 5.0050
 8.7150	 4.8900
 8.7300	 5.1230
 8.7440	 5.0900
 8.7590	 5.0700
 8.7740	 4.8360
 8.7890	 5.0310
 8.8040	 4.9780
 8.8190	 5.0200
 8.8340	 4.8270
 8.8490	 4.8380
 8.8640	 4.8210
 8.8790	 5.0480
 8.8940	 4.8490
 8.9100	 4.9440
 8.9250	 4.7670
 8.9400	 4.8060
 8.9560	 4.7080
 8.9710	 4.6450
 8.9870	 4.2870
 9.0020	 4.3100
 9.0180	 4.3480
 9.0340	 4.5890
 9.0500	 4.4500
 9.0650	 4.4550
 9.0810	 4.2060
 9.0970	 4.3170
 9.1130	 4.2440
 9.1290	 4.4080
 9.1450	 4.1920
 9.1610	 4.1430
 9.1780	 3.9830
 9.1940	 4.1680
 9.2100	 4.0090
 9.2270	 4.1590
 9.2430	 3.9250
 9.2600	 3.9760
 9.2760	 3.8370
 9.2930	 3.9340
 9.3090	 3.8000
 9.3260	 3.8570
 9.3430	 3.7510
 9.3600	 3.8180
 9.3770	 3.5950
 9.3940	 3.7330
 9.4110	 3.5850
 9.4280	 3.7540
 9.4450	 3.6540
 9.4620	 3.7370
 9.4800	 3.7190
 9.4970	 3.9930
 9.5140	 3.8890
 9.5320	 4.1170
 9.5500	 4.0140
 9.5670	 4.1350
 9.5850	 4.1530
 9.6030	 4.2900
 9.6200	 4.1430
 9.6380	 4.3830
 9.6560	 4.2520
 9.6740	 4.3400
 9.6920	 4.2370
 9.7100	 4.2710
 9.7290	 4.2740
 9.7470	 4.6440
 9.7650	 4.4690
 9.7840	 4.4900
 9.8020	 4.3800
 9.8210	 4.4600
 9.8390	 4.2360
 9.8580	 4.4880
 9.8770	 4.5010
 9.8960	 4.7010
 9.9150	 4.6450
 9.9340	 4.8040
 9.9530	 4.7190
 9.9720	 4.7780
 9.9910	 4.6240
10.0100	 4.8030
10.0300	 4.7110
10.0490	 4.9170
10.0690	 4.8010
10.0880	 4.8650
10.1080	 4.7320
10.1280	 4.8840
10.1480	 4.7650
10.1670	 4.9080
10.1870	 4.9510
10.2070	 5.2070
10.2280	 4.9770
10.2480	 4.9660
10.2680	 4.8700
10.2890	 5.0750
10.3090	 4.9770
10.3300	 5.1600
10.3500	 5.0530
10.3710	 5.2690
10.3920	 5.2570
10.4120	 5.3740
10.4330	 5.2360
10.4540	 5.3930
10.4760	 5.3160
10.4970	 5.5550
10.5180	 5.5780
10.5390	 5.6240
10.5610	 5.3080
10.5820	 5.4430
10.6040	 5.3550
10.6260	 5.5930
10.6480	 5.4410
10.6700	 5.5400
10.6920	 5.2490
10.7140	 5.3350
10.7360	 5.2830
10.7580	 5.5200
10.7800	 5.3120
10.8030	 5.3890
10.8250	 5.2270
10.8480	 5.3950
10.8710	 5.1550
10.8940	 5.3290
10.9170	 5.2720
10.9400	 5.3370
10.9630	 5.0900
10.9860	 5.1590
11.0090	 4.9430
11.0330	 4.9620
11.0560	 4.8060
11.0800	 4.9850
11.1040	 4.6380
11.1270	 4.7290
11.1510	 4.7630
11.1750	 4.9990
11.2000	 4.8880
11.2240	 5.1020
11.2480	 4.9830
11.2730	 4.9050
11.2970	 4.6440
11.3220	 5.0320
11.3470	 5.0490
11.3720	 5.3280
11.3970	 5.1480
11.4220	 5.1580
11.4470	 4.7800
11.4720	 4.8630
11.4980	 4.8240
11.5230	 5.0430
11.5490	 4.9900
11.5750	 5.2040
11.6000	 5.0210
11.6260	 5.2630
11.6530	 4.9690
11.6790	 4.8450
11.7050	 4.5990
11.7320	 4.7540
11.7580	 4.6890
11.7850	 4.9470
11.8120	 4.6300
11.8390	 4.6870
11.8660	 4.5080
11.8930	 4.7980
11.9200	 4.6820
11.9480	 4.9220
11.9760	 4.8200
12.0030	 5.0530
12.0310	 4.8430
12.0590	 4.9940
12.0870	 4.7060
12.1150	 4.7810
12.1440	 4.6000
12.1720	 4.8670
12.2010	 4.7310
12.2300	 4.8780
12.2590	 4.6700
12.2880	 4.9060
12.3170	 4.8070
12.3460	 4.9320
12.3760	 4.6410
12.4050	 4.8290
12.4350	 4.7370
12.4650	 5.1130
12.4950	 4.9560
12.5250	 5.1120
12.5550	 4.7810
12.5860	 4.9490
12.6170	 4.7910
12.6470	 5.0700
12.6780	 4.8260
12.7090	 4.9320
12.7410	 4.6790
12.7720	 4.8160
12.8030	 4.6270
12.8350	 4.8560
12.8670	 4.5660
12.8990	 4.8280
12.9310	 4.6250
12.9640	 4.8120
12.9960	 4.6900
13.0290	 4.9790
13.0610	 4.5700
13.0940	 4.6350
13.1280	 4.4640
13.1610	 4.9270
13.1940	 4.7600
13.2280	 4.8710
13.2620	 4.6580
13.2960	 5.0190
13.3300	 4.8590
13.3640	 5.2340
13.3990	 4.9840
13.4340	 5.1380
13.4690	 4.7650
13.5040	 4.7930
13.5390	 4.2820
13.5740	 4.5820
13.6100	 4.4140
13.6460	 4.7960
13.6820	 4.6920
13.7180	 5.0260
13.7540	 4.6800
13.7910	 4.9840
13.8280	 4.6980
13.8650	 5.0970
13.9020	 4.6540
13.9390	 4.7570
13.9770	 4.4210
14.0150	 4.8600
14.0530	 4.5720
14.0910	 4.9140
14.1290	 4.6900
14.1680	 4.9830
14.2070	 4.5130
14.2460	 4.7490
14.2850	 4.2790
14.3240	 4.8150
14.3640	 4.3160
14.4040	 4.4410
14.4440	 3.9990
14.4840	 4.6570
14.5250	 4.3420
14.5660	 4.7430
14.6070	 4.4120
14.6480	 4.9350
14.6900	 4.4280
14.7310	 4.9980
14.7730	 4.6540
14.8150	 4.9900
14.8580	 4.1890
14.9010	 4.4970
14.9440	 3.9700
14.9870	 4.8580
15.0300	 4.0170
15.0740	 4.5380
15.1180	 3.8870
15.1620	 4.0530
15.2060	 3.4700
15.2510	 4.5680
15.2960	 4.2830
15.3410	 5.1610
15.3870	 4.3420
