Name: Adenostoma fasciculatum 2
Type: vegetation
Class: Shrub
Genus: Adenostoma
Species: fasciculatum
Sample No.: VH219
Owner: UCSB
Wavelength Range: VSWIR
Origin: 34.5084; -119.7687; WGS84
Collection Date: 10/13/2013
Description: Samples were collected as part of the HyspIRI Airborne Campaign. 48 individual plants were sampled in three times in 2013 - spring  summer  and fall. The name of the sample includes a 1  2  or 3 which references a different individual of the species. Samples were taken to JPL and processed within 48 hours of collection. The same leaves were processed in the Nicolet and then measured using the ASD.
Measurement: Bidirectional reflectance
First Column: X
Second Column: Y
X Units: Wavelength (micrometers)
Y Units: Reflectance (percentage)
First X Value: 0.35
Last X Value: 2.5
Number of X Values: 2151
Additional Information: vegetation.shrub.adenostoma.fasciculatum.vswir.vh219.ucsb.asd.ancillary.txt

 0.3500	 2.7450
 0.3510	 2.9030
 0.3520	 2.6100
 0.3530	 2.2570
 0.3540	 2.2160
 0.3550	 2.2870
 0.3560	 2.5330
 0.3570	 2.7100
 0.3580	 2.5180
 0.3590	 2.5410
 0.3600	 2.5930
 0.3610	 2.5590
 0.3620	 2.5500
 0.3630	 2.3720
 0.3640	 2.2570
 0.3650	 2.4140
 0.3660	 2.6120
 0.3670	 2.5790
 0.3680	 2.3970
 0.3690	 2.3720
 0.3700	 2.4350
 0.3710	 2.5040
 0.3720	 2.5170
 0.3730	 2.4470
 0.3740	 2.4390
 0.3750	 2.4610
 0.3760	 2.4480
 0.3770	 2.4620
 0.3780	 2.5410
 0.3790	 2.6020
 0.3800	 2.4770
 0.3810	 2.3670
 0.3820	 2.3600
 0.3830	 2.4310
 0.3840	 2.3420
 0.3850	 2.3750
 0.3860	 2.4810
 0.3870	 2.5150
 0.3880	 2.5040
 0.3890	 2.5130
 0.3900	 2.5380
 0.3910	 2.5080
 0.3920	 2.5410
 0.3930	 2.5770
 0.3940	 2.5600
 0.3950	 2.5380
 0.3960	 2.5510
 0.3970	 2.5790
 0.3980	 2.5780
 0.3990	 2.5850
 0.4000	 2.5890
 0.4010	 2.6020
 0.4020	 2.6690
 0.4030	 2.6730
 0.4040	 2.6700
 0.4050	 2.7090
 0.4060	 2.6610
 0.4070	 2.6330
 0.4080	 2.6570
 0.4090	 2.7080
 0.4100	 2.7260
 0.4110	 2.7170
 0.4120	 2.7060
 0.4130	 2.7240
 0.4140	 2.7850
 0.4150	 2.8340
 0.4160	 2.8180
 0.4170	 2.8150
 0.4180	 2.8500
 0.4190	 2.8950
 0.4200	 2.8740
 0.4210	 2.8820
 0.4220	 2.8850
 0.4230	 2.8650
 0.4240	 2.9140
 0.4250	 2.9570
 0.4260	 2.9740
 0.4270	 2.9750
 0.4280	 2.9810
 0.4290	 2.9950
 0.4300	 3.0260
 0.4310	 3.0910
 0.4320	 3.0830
 0.4330	 3.0590
 0.4340	 3.0900
 0.4350	 3.1140
 0.4360	 3.1130
 0.4370	 3.0960
 0.4380	 3.0960
 0.4390	 3.1100
 0.4400	 3.1290
 0.4410	 3.1450
 0.4420	 3.1710
 0.4430	 3.1740
 0.4440	 3.1720
 0.4450	 3.1950
 0.4460	 3.2080
 0.4470	 3.2150
 0.4480	 3.2240
 0.4490	 3.2340
 0.4500	 3.2310
 0.4510	 3.2390
 0.4520	 3.2700
 0.4530	 3.2690
 0.4540	 3.2820
 0.4550	 3.3080
 0.4560	 3.3140
 0.4570	 3.3160
 0.4580	 3.3230
 0.4590	 3.3370
 0.4600	 3.3430
 0.4610	 3.3620
 0.4620	 3.3840
 0.4630	 3.3930
 0.4640	 3.3860
 0.4650	 3.3870
 0.4660	 3.3990
 0.4670	 3.4050
 0.4680	 3.4020
 0.4690	 3.4050
 0.4700	 3.4230
 0.4710	 3.4420
 0.4720	 3.4360
 0.4730	 3.4250
 0.4740	 3.4510
 0.4750	 3.4420
 0.4760	 3.4380
 0.4770	 3.4580
 0.4780	 3.4750
 0.4790	 3.4820
 0.4800	 3.4760
 0.4810	 3.4620
 0.4820	 3.4860
 0.4830	 3.4990
 0.4840	 3.4970
 0.4850	 3.5170
 0.4860	 3.5380
 0.4870	 3.5490
 0.4880	 3.5510
 0.4890	 3.5680
 0.4900	 3.5770
 0.4910	 3.5820
 0.4920	 3.5960
 0.4930	 3.6230
 0.4940	 3.6420
 0.4950	 3.6520
 0.4960	 3.6820
 0.4970	 3.7050
 0.4980	 3.7230
 0.4990	 3.7470
 0.5000	 3.7900
 0.5010	 3.8220
 0.5020	 3.8440
 0.5030	 3.8800
 0.5040	 3.9230
 0.5050	 3.9680
 0.5060	 4.0130
 0.5070	 4.0590
 0.5080	 4.1060
 0.5090	 4.1580
 0.5100	 4.2230
 0.5110	 4.2870
 0.5120	 4.3460
 0.5130	 4.4070
 0.5140	 4.4840
 0.5150	 4.5690
 0.5160	 4.6560
 0.5170	 4.7460
 0.5180	 4.8430
 0.5190	 4.9340
 0.5200	 5.0230
 0.5210	 5.1200
 0.5220	 5.2300
 0.5230	 5.3350
 0.5240	 5.4260
 0.5250	 5.5120
 0.5260	 5.6060
 0.5270	 5.7000
 0.5280	 5.7820
 0.5290	 5.8610
 0.5300	 5.9420
 0.5310	 6.0230
 0.5320	 6.0860
 0.5330	 6.1560
 0.5340	 6.2220
 0.5350	 6.2730
 0.5360	 6.3210
 0.5370	 6.3730
 0.5380	 6.4260
 0.5390	 6.4740
 0.5400	 6.5110
 0.5410	 6.5520
 0.5420	 6.6020
 0.5430	 6.6320
 0.5440	 6.6760
 0.5450	 6.7260
 0.5460	 6.7640
 0.5470	 6.8010
 0.5480	 6.8360
 0.5490	 6.8650
 0.5500	 6.8920
 0.5510	 6.9240
 0.5520	 6.9540
 0.5530	 6.9750
 0.5540	 6.9940
 0.5550	 7.0020
 0.5560	 7.0020
 0.5570	 7.0050
 0.5580	 7.0000
 0.5590	 6.9890
 0.5600	 6.9740
 0.5610	 6.9600
 0.5620	 6.9410
 0.5630	 6.9180
 0.5640	 6.8950
 0.5650	 6.8650
 0.5660	 6.8380
 0.5670	 6.8130
 0.5680	 6.7760
 0.5690	 6.7400
 0.5700	 6.7010
 0.5710	 6.6560
 0.5720	 6.6150
 0.5730	 6.5810
 0.5740	 6.5500
 0.5750	 6.5160
 0.5760	 6.4890
 0.5770	 6.4630
 0.5780	 6.4370
 0.5790	 6.4180
 0.5800	 6.4020
 0.5810	 6.3870
 0.5820	 6.3740
 0.5830	 6.3690
 0.5840	 6.3640
 0.5850	 6.3580
 0.5860	 6.3530
 0.5870	 6.3500
 0.5880	 6.3480
 0.5890	 6.3480
 0.5900	 6.3470
 0.5910	 6.3510
 0.5920	 6.3600
 0.5930	 6.3760
 0.5940	 6.3910
 0.5950	 6.4090
 0.5960	 6.4320
 0.5970	 6.4620
 0.5980	 6.4840
 0.5990	 6.5070
 0.6000	 6.5400
 0.6010	 6.5700
 0.6020	 6.5950
 0.6030	 6.6150
 0.6040	 6.6360
 0.6050	 6.6620
 0.6060	 6.6870
 0.6070	 6.7090
 0.6080	 6.7300
 0.6090	 6.7510
 0.6100	 6.7750
 0.6110	 6.7990
 0.6120	 6.8160
 0.6130	 6.8350
 0.6140	 6.8610
 0.6150	 6.8880
 0.6160	 6.9200
 0.6170	 6.9510
 0.6180	 6.9760
 0.6190	 7.0130
 0.6200	 7.0500
 0.6210	 7.0860
 0.6220	 7.1270
 0.6230	 7.1740
 0.6240	 7.2270
 0.6250	 7.2820
 0.6260	 7.3260
 0.6270	 7.3770
 0.6280	 7.4340
 0.6290	 7.4890
 0.6300	 7.5460
 0.6310	 7.6030
 0.6320	 7.6570
 0.6330	 7.7120
 0.6340	 7.7520
 0.6350	 7.7880
 0.6360	 7.8280
 0.6370	 7.8640
 0.6380	 7.8880
 0.6390	 7.9030
 0.6400	 7.9180
 0.6410	 7.9330
 0.6420	 7.9420
 0.6430	 7.9460
 0.6440	 7.9640
 0.6450	 7.9700
 0.6460	 7.9700
 0.6470	 7.9790
 0.6480	 7.9960
 0.6490	 8.0170
 0.6500	 8.0410
 0.6510	 8.0700
 0.6520	 8.0980
 0.6530	 8.1300
 0.6540	 8.1670
 0.6550	 8.2030
 0.6560	 8.2320
 0.6570	 8.2570
 0.6580	 8.2800
 0.6590	 8.2950
 0.6600	 8.3070
 0.6610	 8.3190
 0.6620	 8.3230
 0.6630	 8.3350
 0.6640	 8.3460
 0.6650	 8.3470
 0.6660	 8.3590
 0.6670	 8.3750
 0.6680	 8.3920
 0.6690	 8.4140
 0.6700	 8.4380
 0.6710	 8.4670
 0.6720	 8.5020
 0.6730	 8.5440
 0.6740	 8.5860
 0.6750	 8.6270
 0.6760	 8.6710
 0.6770	 8.7230
 0.6780	 8.7800
 0.6790	 8.8430
 0.6800	 8.9140
 0.6810	 8.9990
 0.6820	 9.0960
 0.6830	 9.2050
 0.6840	 9.3320
 0.6850	 9.4810
 0.6860	 9.6540
 0.6870	 9.8490
 0.6880	10.0680
 0.6890	10.3120
 0.6900	10.5890
 0.6910	10.9080
 0.6920	11.2490
 0.6930	11.6240
 0.6940	12.0380
 0.6950	12.4730
 0.6960	12.9440
 0.6970	13.4480
 0.6980	13.9790
 0.6990	14.5240
 0.7000	15.0880
 0.7010	15.6670
 0.7020	16.2530
 0.7030	16.8550
 0.7040	17.4660
 0.7050	18.0750
 0.7060	18.6710
 0.7070	19.2740
 0.7080	19.8840
 0.7090	20.4960
 0.7100	21.0990
 0.7110	21.7090
 0.7120	22.3260
 0.7130	22.9360
 0.7140	23.5460
 0.7150	24.1580
 0.7160	24.7710
 0.7170	25.3830
 0.7180	25.9920
 0.7190	26.6010
 0.7200	27.2110
 0.7210	27.7980
 0.7220	28.3720
 0.7230	28.9410
 0.7240	29.5060
 0.7250	30.0660
 0.7260	30.6010
 0.7270	31.1060
 0.7280	31.6070
 0.7290	32.1060
 0.7300	32.5870
 0.7310	33.0280
 0.7320	33.4520
 0.7330	33.8640
 0.7340	34.2620
 0.7350	34.6380
 0.7360	35.0110
 0.7370	35.3670
 0.7380	35.6950
 0.7390	36.0140
 0.7400	36.3070
 0.7410	36.5910
 0.7420	36.8830
 0.7430	37.1460
 0.7440	37.3920
 0.7450	37.6250
 0.7460	37.8410
 0.7470	38.0520
 0.7480	38.2640
 0.7490	38.4720
 0.7500	38.6500
 0.7510	38.8320
 0.7520	39.0120
 0.7530	39.1730
 0.7540	39.3120
 0.7550	39.4560
 0.7560	39.6100
 0.7570	39.7570
 0.7580	39.8930
 0.7590	40.0250
 0.7600	40.1550
 0.7610	40.2670
 0.7620	40.3820
 0.7630	40.5020
 0.7640	40.6210
 0.7650	40.7250
 0.7660	40.8330
 0.7670	40.9400
 0.7680	41.0360
 0.7690	41.1440
 0.7700	41.2510
 0.7710	41.3500
 0.7720	41.4400
 0.7730	41.5340
 0.7740	41.6240
 0.7750	41.7030
 0.7760	41.7900
 0.7770	41.8810
 0.7780	41.9730
 0.7790	42.0710
 0.7800	42.1670
 0.7810	42.2530
 0.7820	42.3280
 0.7830	42.4010
 0.7840	42.5040
 0.7850	42.5990
 0.7860	42.6650
 0.7870	42.7330
 0.7880	42.8080
 0.7890	42.8940
 0.7900	42.9870
 0.7910	43.0670
 0.7920	43.1400
 0.7930	43.2140
 0.7940	43.2910
 0.7950	43.3640
 0.7960	43.4270
 0.7970	43.4880
 0.7980	43.5680
 0.7990	43.6570
 0.8000	43.7380
 0.8010	43.8030
 0.8020	43.8580
 0.8030	43.9140
 0.8040	43.9820
 0.8050	44.0650
 0.8060	44.1280
 0.8070	44.1970
 0.8080	44.2700
 0.8090	44.3250
 0.8100	44.3980
 0.8110	44.4690
 0.8120	44.5260
 0.8130	44.5830
 0.8140	44.6480
 0.8150	44.7100
 0.8160	44.7630
 0.8170	44.8160
 0.8180	44.8800
 0.8190	44.9480
 0.8200	45.0080
 0.8210	45.0550
 0.8220	45.1060
 0.8230	45.1680
 0.8240	45.2330
 0.8250	45.2760
 0.8260	45.3240
 0.8270	45.3850
 0.8280	45.4220
 0.8290	45.4760
 0.8300	45.5350
 0.8310	45.5830
 0.8320	45.6220
 0.8330	45.6630
 0.8340	45.7050
 0.8350	45.7500
 0.8360	45.8080
 0.8370	45.8620
 0.8380	45.9060
 0.8390	45.9540
 0.8400	46.0170
 0.8410	46.0600
 0.8420	46.0850
 0.8430	46.1490
 0.8440	46.2190
 0.8450	46.2580
 0.8460	46.2660
 0.8470	46.3340
 0.8480	46.3870
 0.8490	46.4230
 0.8500	46.4630
 0.8510	46.5320
 0.8520	46.5850
 0.8530	46.6180
 0.8540	46.6510
 0.8550	46.7020
 0.8560	46.7450
 0.8570	46.7760
 0.8580	46.8160
 0.8590	46.8540
 0.8600	46.9010
 0.8610	46.9540
 0.8620	46.9870
 0.8630	47.0100
 0.8640	47.0510
 0.8650	47.1120
 0.8660	47.1240
 0.8670	47.1570
 0.8680	47.2010
 0.8690	47.2290
 0.8700	47.2840
 0.8710	47.3040
 0.8720	47.3070
 0.8730	47.3520
 0.8740	47.4030
 0.8750	47.4330
 0.8760	47.4520
 0.8770	47.4970
 0.8780	47.5270
 0.8790	47.5450
 0.8800	47.5670
 0.8810	47.6180
 0.8820	47.6490
 0.8830	47.6710
 0.8840	47.6910
 0.8850	47.6800
 0.8860	47.7010
 0.8870	47.7330
 0.8880	47.7420
 0.8890	47.7560
 0.8900	47.7770
 0.8910	47.8030
 0.8920	47.8250
 0.8930	47.8450
 0.8940	47.8430
 0.8950	47.8400
 0.8960	47.8730
 0.8970	47.8980
 0.8980	47.9120
 0.8990	47.9250
 0.9000	47.9470
 0.9010	47.9450
 0.9020	47.9460
 0.9030	47.9590
 0.9040	47.9670
 0.9050	47.9690
 0.9060	47.9700
 0.9070	47.9740
 0.9080	47.9930
 0.9090	48.0120
 0.9100	48.0250
 0.9110	48.0290
 0.9120	48.0300
 0.9130	48.0400
 0.9140	48.0510
 0.9150	48.0490
 0.9160	48.0480
 0.9170	48.0830
 0.9180	48.1110
 0.9190	48.0810
 0.9200	48.0710
 0.9210	48.0690
 0.9220	48.0670
 0.9230	48.0590
 0.9240	48.0480
 0.9250	48.0430
 0.9260	48.0380
 0.9270	48.0230
 0.9280	48.0110
 0.9290	47.9910
 0.9300	47.9650
 0.9310	47.9520
 0.9320	47.9460
 0.9330	47.9250
 0.9340	47.8820
 0.9350	47.8410
 0.9360	47.8020
 0.9370	47.7840
 0.9380	47.7770
 0.9390	47.7290
 0.9400	47.6780
 0.9410	47.6340
 0.9420	47.5900
 0.9430	47.5200
 0.9440	47.4730
 0.9450	47.4210
 0.9460	47.3480
 0.9470	47.3010
 0.9480	47.2150
 0.9490	47.1120
 0.9500	47.0200
 0.9510	46.9260
 0.9520	46.8050
 0.9530	46.6850
 0.9540	46.5870
 0.9550	46.4650
 0.9560	46.3420
 0.9570	46.2120
 0.9580	46.0800
 0.9590	46.0140
 0.9600	45.9430
 0.9610	45.8430
 0.9620	45.7270
 0.9630	45.6580
 0.9640	45.5980
 0.9650	45.5430
 0.9660	45.4990
 0.9670	45.4600
 0.9680	45.4100
 0.9690	45.3600
 0.9700	45.3250
 0.9710	45.2980
 0.9720	45.2740
 0.9730	45.2590
 0.9740	45.2540
 0.9750	45.2280
 0.9760	45.2030
 0.9770	45.1890
 0.9780	45.1830
 0.9790	45.1440
 0.9800	45.1390
 0.9810	45.1840
 0.9820	45.2460
 0.9830	45.2270
 0.9840	45.2230
 0.9850	45.2430
 0.9860	45.2580
 0.9870	45.3050
 0.9880	45.3600
 0.9890	45.3940
 0.9900	45.4010
 0.9910	45.4510
 0.9920	45.5220
 0.9930	45.5930
 0.9940	45.6640
 0.9950	45.7350
 0.9960	45.8070
 0.9970	45.8780
 0.9980	45.9490
 0.9990	46.0200
 1.0000	46.0920
 1.0010	46.1630
 1.0020	46.2340
 1.0030	46.3050
 1.0040	46.3760
 1.0050	46.4480
 1.0060	46.5190
 1.0070	46.5900
 1.0080	46.6610
 1.0090	46.7320
 1.0100	46.7320
 1.0110	46.8130
 1.0120	46.8800
 1.0130	46.9380
 1.0140	47.0050
 1.0150	47.0710
 1.0160	47.1350
 1.0170	47.2030
 1.0180	47.2700
 1.0190	47.3190
 1.0200	47.3720
 1.0210	47.4340
 1.0220	47.5050
 1.0230	47.5690
 1.0240	47.6340
 1.0250	47.6970
 1.0260	47.7580
 1.0270	47.8180
 1.0280	47.8820
 1.0290	47.9420
 1.0300	47.9910
 1.0310	48.0510
 1.0320	48.1180
 1.0330	48.1810
 1.0340	48.2360
 1.0350	48.2930
 1.0360	48.3460
 1.0370	48.3890
 1.0380	48.4340
 1.0390	48.4810
 1.0400	48.5260
 1.0410	48.5650
 1.0420	48.6070
 1.0430	48.6550
 1.0440	48.6940
 1.0450	48.7260
 1.0460	48.7610
 1.0470	48.7930
 1.0480	48.8280
 1.0490	48.8690
 1.0500	48.9060
 1.0510	48.9410
 1.0520	48.9810
 1.0530	49.0160
 1.0540	49.0440
 1.0550	49.0810
 1.0560	49.1250
 1.0570	49.1580
 1.0580	49.1930
 1.0590	49.2250
 1.0600	49.2480
 1.0610	49.2760
 1.0620	49.3130
 1.0630	49.3390
 1.0640	49.3530
 1.0650	49.3750
 1.0660	49.3960
 1.0670	49.4180
 1.0680	49.4420
 1.0690	49.4760
 1.0700	49.4950
 1.0710	49.5040
 1.0720	49.5220
 1.0730	49.5380
 1.0740	49.5550
 1.0750	49.5790
 1.0760	49.5970
 1.0770	49.6110
 1.0780	49.6210
 1.0790	49.6270
 1.0800	49.6330
 1.0810	49.6310
 1.0820	49.6360
 1.0830	49.6520
 1.0840	49.6580
 1.0850	49.6580
 1.0860	49.6620
 1.0870	49.6570
 1.0880	49.6420
 1.0890	49.6330
 1.0900	49.6260
 1.0910	49.6150
 1.0920	49.6000
 1.0930	49.5900
 1.0940	49.5790
 1.0950	49.5680
 1.0960	49.5640
 1.0970	49.5500
 1.0980	49.5290
 1.0990	49.5080
 1.1000	49.4820
 1.1010	49.4560
 1.1020	49.4280
 1.1030	49.3980
 1.1040	49.3740
 1.1050	49.3470
 1.1060	49.3180
 1.1070	49.2920
 1.1080	49.2560
 1.1090	49.2100
 1.1100	49.1650
 1.1110	49.1150
 1.1120	49.0660
 1.1130	49.0240
 1.1140	48.9700
 1.1150	48.9110
 1.1160	48.8480
 1.1170	48.7780
 1.1180	48.7040
 1.1190	48.6310
 1.1200	48.5520
 1.1210	48.4560
 1.1220	48.3540
 1.1230	48.2470
 1.1240	48.1330
 1.1250	48.0100
 1.1260	47.8870
 1.1270	47.7470
 1.1280	47.5950
 1.1290	47.4330
 1.1300	47.2600
 1.1310	47.0800
 1.1320	46.8930
 1.1330	46.6920
 1.1340	46.4800
 1.1350	46.2610
 1.1360	46.0310
 1.1370	45.7860
 1.1380	45.5360
 1.1390	45.2800
 1.1400	45.0190
 1.1410	44.7560
 1.1420	44.4850
 1.1430	44.2140
 1.1440	43.9450
 1.1450	43.6660
 1.1460	43.4000
 1.1470	43.1380
 1.1480	42.8840
 1.1490	42.6320
 1.1500	42.3960
 1.1510	42.1690
 1.1520	41.9530
 1.1530	41.7430
 1.1540	41.5490
 1.1550	41.3690
 1.1560	41.1950
 1.1570	41.0360
 1.1580	40.8880
 1.1590	40.7460
 1.1600	40.6160
 1.1610	40.5010
 1.1620	40.3930
 1.1630	40.2990
 1.1640	40.2200
 1.1650	40.1470
 1.1660	40.0860
 1.1670	40.0250
 1.1680	39.9710
 1.1690	39.9150
 1.1700	39.8610
 1.1710	39.8100
 1.1720	39.7590
 1.1730	39.7140
 1.1740	39.6760
 1.1750	39.6360
 1.1760	39.5960
 1.1770	39.5500
 1.1780	39.5000
 1.1790	39.4490
 1.1800	39.3980
 1.1810	39.3520
 1.1820	39.3080
 1.1830	39.2670
 1.1840	39.2290
 1.1850	39.1860
 1.1860	39.1410
 1.1870	39.1000
 1.1880	39.0630
 1.1890	39.0320
 1.1900	39.0020
 1.1910	38.9760
 1.1920	38.9500
 1.1930	38.9190
 1.1940	38.8980
 1.1950	38.8810
 1.1960	38.8700
 1.1970	38.8580
 1.1980	38.8490
 1.1990	38.8460
 1.2000	38.8390
 1.2010	38.8360
 1.2020	38.8450
 1.2030	38.8550
 1.2040	38.8640
 1.2050	38.8820
 1.2060	38.9030
 1.2070	38.9220
 1.2080	38.9480
 1.2090	38.9780
 1.2100	39.0110
 1.2110	39.0510
 1.2120	39.0970
 1.2130	39.1500
 1.2140	39.2110
 1.2150	39.2700
 1.2160	39.3360
 1.2170	39.3970
 1.2180	39.4610
 1.2190	39.5380
 1.2200	39.6140
 1.2210	39.6940
 1.2220	39.7700
 1.2230	39.8360
 1.2240	39.9060
 1.2250	39.9760
 1.2260	40.0460
 1.2270	40.1150
 1.2280	40.1850
 1.2290	40.2530
 1.2300	40.3210
 1.2310	40.3880
 1.2320	40.4530
 1.2330	40.5190
 1.2340	40.5790
 1.2350	40.6380
 1.2360	40.6940
 1.2370	40.7460
 1.2380	40.7910
 1.2390	40.8370
 1.2400	40.8880
 1.2410	40.9370
 1.2420	40.9850
 1.2430	41.0350
 1.2440	41.0810
 1.2450	41.1250
 1.2460	41.1680
 1.2470	41.2070
 1.2480	41.2480
 1.2490	41.2870
 1.2500	41.3240
 1.2510	41.3620
 1.2520	41.3980
 1.2530	41.4310
 1.2540	41.4590
 1.2550	41.4850
 1.2560	41.5070
 1.2570	41.5250
 1.2580	41.5480
 1.2590	41.5690
 1.2600	41.5860
 1.2610	41.6050
 1.2620	41.6270
 1.2630	41.6480
 1.2640	41.6660
 1.2650	41.6850
 1.2660	41.7000
 1.2670	41.7060
 1.2680	41.7090
 1.2690	41.7120
 1.2700	41.7150
 1.2710	41.7200
 1.2720	41.7230
 1.2730	41.7230
 1.2740	41.7170
 1.2750	41.7060
 1.2760	41.7000
 1.2770	41.6900
 1.2780	41.6760
 1.2790	41.6610
 1.2800	41.6410
 1.2810	41.6190
 1.2820	41.5960
 1.2830	41.5690
 1.2840	41.5460
 1.2850	41.5200
 1.2860	41.4910
 1.2870	41.4590
 1.2880	41.4270
 1.2890	41.3850
 1.2900	41.3400
 1.2910	41.2980
 1.2920	41.2540
 1.2930	41.2060
 1.2940	41.1560
 1.2950	41.0970
 1.2960	41.0350
 1.2970	40.9770
 1.2980	40.9170
 1.2990	40.8550
 1.3000	40.7880
 1.3010	40.7140
 1.3020	40.6290
 1.3030	40.5430
 1.3040	40.4550
 1.3050	40.3640
 1.3060	40.2750
 1.3070	40.1780
 1.3080	40.0760
 1.3090	39.9680
 1.3100	39.8500
 1.3110	39.7310
 1.3120	39.6070
 1.3130	39.4790
 1.3140	39.3480
 1.3150	39.2130
 1.3160	39.0740
 1.3170	38.9330
 1.3180	38.7850
 1.3190	38.6300
 1.3200	38.4720
 1.3210	38.3070
 1.3220	38.1370
 1.3230	37.9660
 1.3240	37.7900
 1.3250	37.6080
 1.3260	37.4220
 1.3270	37.2330
 1.3280	37.0390
 1.3290	36.8460
 1.3300	36.6550
 1.3310	36.4610
 1.3320	36.2630
 1.3330	36.0650
 1.3340	35.8690
 1.3350	35.6690
 1.3360	35.4660
 1.3370	35.2630
 1.3380	35.0550
 1.3390	34.8510
 1.3400	34.6520
 1.3410	34.4580
 1.3420	34.2660
 1.3430	34.0740
 1.3440	33.8850
 1.3450	33.7020
 1.3460	33.5230
 1.3470	33.3480
 1.3480	33.1770
 1.3490	33.0080
 1.3500	32.8410
 1.3510	32.6750
 1.3520	32.5160
 1.3530	32.3600
 1.3540	32.2070
 1.3550	32.0600
 1.3560	31.9120
 1.3570	31.7610
 1.3580	31.6090
 1.3590	31.4540
 1.3600	31.2980
 1.3610	31.1420
 1.3620	30.9820
 1.3630	30.8190
 1.3640	30.6520
 1.3650	30.4780
 1.3660	30.2990
 1.3670	30.1150
 1.3680	29.9230
 1.3690	29.7250
 1.3700	29.5180
 1.3710	29.2980
 1.3720	29.0650
 1.3730	28.8190
 1.3740	28.5630
 1.3750	28.2970
 1.3760	28.0190
 1.3770	27.7250
 1.3780	27.4110
 1.3790	27.0810
 1.3800	26.7320
 1.3810	26.3610
 1.3820	25.9830
 1.3830	25.5960
 1.3840	25.1950
 1.3850	24.7860
 1.3860	24.3660
 1.3870	23.9280
 1.3880	23.4920
 1.3890	23.0480
 1.3900	22.6040
 1.3910	22.1630
 1.3920	21.7220
 1.3930	21.2810
 1.3940	20.8440
 1.3950	20.4110
 1.3960	19.9870
 1.3970	19.5730
 1.3980	19.1700
 1.3990	18.7850
 1.4000	18.4120
 1.4010	18.0530
 1.4020	17.7100
 1.4030	17.3750
 1.4040	17.0500
 1.4050	16.7400
 1.4060	16.4430
 1.4070	16.1640
 1.4080	15.9010
 1.4090	15.6510
 1.4100	15.4160
 1.4110	15.1910
 1.4120	14.9810
 1.4130	14.7870
 1.4140	14.6020
 1.4150	14.4310
 1.4160	14.2710
 1.4170	14.1200
 1.4180	13.9810
 1.4190	13.8520
 1.4200	13.7320
 1.4210	13.6200
 1.4220	13.5150
 1.4230	13.4190
 1.4240	13.3330
 1.4250	13.2530
 1.4260	13.1800
 1.4270	13.1100
 1.4280	13.0460
 1.4290	12.9850
 1.4300	12.9300
 1.4310	12.8810
 1.4320	12.8370
 1.4330	12.7960
 1.4340	12.7610
 1.4350	12.7290
 1.4360	12.6990
 1.4370	12.6740
 1.4380	12.6520
 1.4390	12.6340
 1.4400	12.6180
 1.4410	12.6060
 1.4420	12.5940
 1.4430	12.5830
 1.4440	12.5750
 1.4450	12.5660
 1.4460	12.5600
 1.4470	12.5580
 1.4480	12.5560
 1.4490	12.5580
 1.4500	12.5600
 1.4510	12.5630
 1.4520	12.5670
 1.4530	12.5700
 1.4540	12.5760
 1.4550	12.5840
 1.4560	12.5940
 1.4570	12.6090
 1.4580	12.6250
 1.4590	12.6390
 1.4600	12.6560
 1.4610	12.6760
 1.4620	12.6940
 1.4630	12.7170
 1.4640	12.7450
 1.4650	12.7740
 1.4660	12.8050
 1.4670	12.8390
 1.4680	12.8740
 1.4690	12.9110
 1.4700	12.9490
 1.4710	12.9930
 1.4720	13.0400
 1.4730	13.0910
 1.4740	13.1460
 1.4750	13.2010
 1.4760	13.2550
 1.4770	13.3090
 1.4780	13.3680
 1.4790	13.4290
 1.4800	13.4950
 1.4810	13.5630
 1.4820	13.6290
 1.4830	13.6940
 1.4840	13.7600
 1.4850	13.8260
 1.4860	13.8960
 1.4870	13.9670
 1.4880	14.0390
 1.4890	14.1110
 1.4900	14.1830
 1.4910	14.2520
 1.4920	14.3240
 1.4930	14.3960
 1.4940	14.4690
 1.4950	14.5460
 1.4960	14.6210
 1.4970	14.6960
 1.4980	14.7710
 1.4990	14.8440
 1.5000	14.9200
 1.5010	14.9960
 1.5020	15.0720
 1.5030	15.1490
 1.5040	15.2230
 1.5050	15.2960
 1.5060	15.3710
 1.5070	15.4460
 1.5080	15.5210
 1.5090	15.5960
 1.5100	15.6710
 1.5110	15.7440
 1.5120	15.8170
 1.5130	15.8910
 1.5140	15.9650
 1.5150	16.0370
 1.5160	16.1100
 1.5170	16.1830
 1.5180	16.2550
 1.5190	16.3280
 1.5200	16.3990
 1.5210	16.4690
 1.5220	16.5380
 1.5230	16.6060
 1.5240	16.6740
 1.5250	16.7430
 1.5260	16.8110
 1.5270	16.8790
 1.5280	16.9490
 1.5290	17.0150
 1.5300	17.0810
 1.5310	17.1480
 1.5320	17.2100
 1.5330	17.2730
 1.5340	17.3390
 1.5350	17.4010
 1.5360	17.4620
 1.5370	17.5250
 1.5380	17.5870
 1.5390	17.6500
 1.5400	17.7140
 1.5410	17.7770
 1.5420	17.8400
 1.5430	17.9000
 1.5440	17.9590
 1.5450	18.0160
 1.5460	18.0720
 1.5470	18.1280
 1.5480	18.1860
 1.5490	18.2430
 1.5500	18.2990
 1.5510	18.3560
 1.5520	18.4130
 1.5530	18.4680
 1.5540	18.5240
 1.5550	18.5760
 1.5560	18.6280
 1.5570	18.6840
 1.5580	18.7370
 1.5590	18.7890
 1.5600	18.8430
 1.5610	18.8950
 1.5620	18.9480
 1.5630	19.0010
 1.5640	19.0510
 1.5650	19.1000
 1.5660	19.1500
 1.5670	19.1990
 1.5680	19.2500
 1.5690	19.2990
 1.5700	19.3450
 1.5710	19.3950
 1.5720	19.4410
 1.5730	19.4880
 1.5740	19.5400
 1.5750	19.5890
 1.5760	19.6400
 1.5770	19.6920
 1.5780	19.7380
 1.5790	19.7860
 1.5800	19.8350
 1.5810	19.8800
 1.5820	19.9220
 1.5830	19.9640
 1.5840	20.0070
 1.5850	20.0540
 1.5860	20.1050
 1.5870	20.1580
 1.5880	20.2090
 1.5890	20.2550
 1.5900	20.3000
 1.5910	20.3450
 1.5920	20.3890
 1.5930	20.4380
 1.5940	20.4890
 1.5950	20.5370
 1.5960	20.5860
 1.5970	20.6330
 1.5980	20.6740
 1.5990	20.7190
 1.6000	20.7650
 1.6010	20.8110
 1.6020	20.8590
 1.6030	20.9050
 1.6040	20.9490
 1.6050	20.9880
 1.6060	21.0270
 1.6070	21.0700
 1.6080	21.1100
 1.6090	21.1510
 1.6100	21.1940
 1.6110	21.2300
 1.6120	21.2710
 1.6130	21.3150
 1.6140	21.3560
 1.6150	21.3970
 1.6160	21.4380
 1.6170	21.4750
 1.6180	21.5090
 1.6190	21.5450
 1.6200	21.5790
 1.6210	21.6100
 1.6220	21.6420
 1.6230	21.6740
 1.6240	21.7070
 1.6250	21.7400
 1.6260	21.7750
 1.6270	21.8050
 1.6280	21.8280
 1.6290	21.8530
 1.6300	21.8740
 1.6310	21.8980
 1.6320	21.9270
 1.6330	21.9530
 1.6340	21.9780
 1.6350	21.9990
 1.6360	22.0150
 1.6370	22.0340
 1.6380	22.0530
 1.6390	22.0720
 1.6400	22.0940
 1.6410	22.1100
 1.6420	22.1240
 1.6430	22.1320
 1.6440	22.1380
 1.6450	22.1400
 1.6460	22.1370
 1.6470	22.1360
 1.6480	22.1330
 1.6490	22.1270
 1.6500	22.1190
 1.6510	22.1080
 1.6520	22.0940
 1.6530	22.0760
 1.6540	22.0570
 1.6550	22.0350
 1.6560	22.0110
 1.6570	21.9870
 1.6580	21.9630
 1.6590	21.9400
 1.6600	21.9190
 1.6610	21.8980
 1.6620	21.8750
 1.6630	21.8540
 1.6640	21.8290
 1.6650	21.8040
 1.6660	21.7840
 1.6670	21.7660
 1.6680	21.7500
 1.6690	21.7370
 1.6700	21.7210
 1.6710	21.7080
 1.6720	21.6950
 1.6730	21.6820
 1.6740	21.6750
 1.6750	21.6620
 1.6760	21.6480
 1.6770	21.6350
 1.6780	21.6170
 1.6790	21.6010
 1.6800	21.5810
 1.6810	21.5570
 1.6820	21.5290
 1.6830	21.4950
 1.6840	21.4610
 1.6850	21.4260
 1.6860	21.3890
 1.6870	21.3530
 1.6880	21.3170
 1.6890	21.2820
 1.6900	21.2420
 1.6910	21.1990
 1.6920	21.1550
 1.6930	21.1060
 1.6940	21.0570
 1.6950	21.0080
 1.6960	20.9600
 1.6970	20.9130
 1.6980	20.8650
 1.6990	20.8190
 1.7000	20.7690
 1.7010	20.7140
 1.7020	20.6620
 1.7030	20.6120
 1.7040	20.5610
 1.7050	20.5110
 1.7060	20.4580
 1.7070	20.4000
 1.7080	20.3450
 1.7090	20.2880
 1.7100	20.2360
 1.7110	20.1870
 1.7120	20.1450
 1.7130	20.0990
 1.7140	20.0530
 1.7150	20.0120
 1.7160	19.9700
 1.7170	19.9340
 1.7180	19.9050
 1.7190	19.8740
 1.7200	19.8400
 1.7210	19.8080
 1.7220	19.7730
 1.7230	19.7400
 1.7240	19.7100
 1.7250	19.6860
 1.7260	19.6690
 1.7270	19.6530
 1.7280	19.6420
 1.7290	19.6320
 1.7300	19.6190
 1.7310	19.6100
 1.7320	19.6050
 1.7330	19.5990
 1.7340	19.5980
 1.7350	19.5920
 1.7360	19.5820
 1.7370	19.5710
 1.7380	19.5560
 1.7390	19.5380
 1.7400	19.5160
 1.7410	19.4940
 1.7420	19.4690
 1.7430	19.4400
 1.7440	19.4100
 1.7450	19.3760
 1.7460	19.3370
 1.7470	19.3010
 1.7480	19.2640
 1.7490	19.2290
 1.7500	19.1940
 1.7510	19.1610
 1.7520	19.1300
 1.7530	19.0980
 1.7540	19.0680
 1.7550	19.0410
 1.7560	19.0110
 1.7570	18.9850
 1.7580	18.9630
 1.7590	18.9410
 1.7600	18.9190
 1.7610	18.8960
 1.7620	18.8760
 1.7630	18.8580
 1.7640	18.8410
 1.7650	18.8260
 1.7660	18.8140
 1.7670	18.8040
 1.7680	18.7940
 1.7690	18.7870
 1.7700	18.7790
 1.7710	18.7700
 1.7720	18.7630
 1.7730	18.7580
 1.7740	18.7510
 1.7750	18.7440
 1.7760	18.7330
 1.7770	18.7140
 1.7780	18.7050
 1.7790	18.6980
 1.7800	18.6900
 1.7810	18.6880
 1.7820	18.6830
 1.7830	18.6740
 1.7840	18.6710
 1.7850	18.6730
 1.7860	18.6680
 1.7870	18.6600
 1.7880	18.6570
 1.7890	18.6560
 1.7900	18.6590
 1.7910	18.6620
 1.7920	18.6610
 1.7930	18.6630
 1.7940	18.6660
 1.7950	18.6720
 1.7960	18.6820
 1.7970	18.6890
 1.7980	18.6960
 1.7990	18.7050
 1.8000	18.7150
 1.8010	18.7240
 1.8020	18.7360
 1.8030	18.7480
 1.8040	18.7570
 1.8050	18.7680
 1.8060	18.7830
 1.8070	18.7960
 1.8080	18.8100
 1.8090	18.8190
 1.8100	18.8280
 1.8110	18.8330
 1.8120	18.8390
 1.8130	18.8460
 1.8140	18.8540
 1.8150	18.8610
 1.8160	18.8610
 1.8170	18.8630
 1.8180	18.8700
 1.8190	18.8740
 1.8200	18.8770
 1.8210	18.8770
 1.8220	18.8800
 1.8230	18.8860
 1.8240	18.8910
 1.8250	18.8960
 1.8260	18.9010
 1.8270	18.8860
 1.8280	18.8710
 1.8290	18.8560
 1.8300	18.8400
 1.8310	18.8250
 1.8320	18.8100
 1.8330	18.7950
 1.8340	18.7800
 1.8350	18.7800
 1.8360	18.7600
 1.8370	18.7470
 1.8380	18.7360
 1.8390	18.7150
 1.8400	18.6920
 1.8410	18.6640
 1.8420	18.6310
 1.8430	18.5890
 1.8440	18.5470
 1.8450	18.5040
 1.8460	18.4510
 1.8470	18.3920
 1.8480	18.3330
 1.8490	18.2710
 1.8500	18.1980
 1.8510	18.1190
 1.8520	18.0330
 1.8530	17.9290
 1.8540	17.8190
 1.8550	17.7070
 1.8560	17.5860
 1.8570	17.4670
 1.8580	17.3390
 1.8590	17.1980
 1.8600	17.0450
 1.8610	16.8900
 1.8620	16.7210
 1.8630	16.5380
 1.8640	16.3490
 1.8650	16.1460
 1.8660	15.9340
 1.8670	15.7180
 1.8680	15.4900
 1.8690	15.2550
 1.8700	15.0100
 1.8710	14.7550
 1.8720	14.4890
 1.8730	14.2140
 1.8740	13.9320
 1.8750	13.6410
 1.8760	13.3440
 1.8770	13.0480
 1.8780	12.7480
 1.8790	12.4510
 1.8800	12.1500
 1.8810	11.8480
 1.8820	11.5420
 1.8830	11.2400
 1.8840	10.9360
 1.8850	10.6340
 1.8860	10.3380
 1.8870	10.0480
 1.8880	 9.7680
 1.8890	 9.5000
 1.8900	 9.2330
 1.8910	 8.9750
 1.8920	 8.7210
 1.8930	 8.4760
 1.8940	 8.2370
 1.8950	 8.0190
 1.8960	 7.8120
 1.8970	 7.6120
 1.8980	 7.4270
 1.8990	 7.2490
 1.9000	 7.0800
 1.9010	 6.9220
 1.9020	 6.7700
 1.9030	 6.6240
 1.9040	 6.4910
 1.9050	 6.3730
 1.9060	 6.2640
 1.9070	 6.1730
 1.9080	 6.0870
 1.9090	 6.0020
 1.9100	 5.9280
 1.9110	 5.8560
 1.9120	 5.7860
 1.9130	 5.7280
 1.9140	 5.6800
 1.9150	 5.6330
 1.9160	 5.5970
 1.9170	 5.5630
 1.9180	 5.5310
 1.9190	 5.5040
 1.9200	 5.4760
 1.9210	 5.4550
 1.9220	 5.4390
 1.9230	 5.4280
 1.9240	 5.4200
 1.9250	 5.4190
 1.9260	 5.4140
 1.9270	 5.4120
 1.9280	 5.4180
 1.9290	 5.4220
 1.9300	 5.4340
 1.9310	 5.4430
 1.9320	 5.4490
 1.9330	 5.4600
 1.9340	 5.4750
 1.9350	 5.4870
 1.9360	 5.5020
 1.9370	 5.5180
 1.9380	 5.5300
 1.9390	 5.5480
 1.9400	 5.5700
 1.9410	 5.5930
 1.9420	 5.6220
 1.9430	 5.6450
 1.9440	 5.6690
 1.9450	 5.6950
 1.9460	 5.7230
 1.9470	 5.7510
 1.9480	 5.7800
 1.9490	 5.8140
 1.9500	 5.8450
 1.9510	 5.8790
 1.9520	 5.9070
 1.9530	 5.9330
 1.9540	 5.9680
 1.9550	 6.0010
 1.9560	 6.0350
 1.9570	 6.0670
 1.9580	 6.1000
 1.9590	 6.1330
 1.9600	 6.1660
 1.9610	 6.1980
 1.9620	 6.2320
 1.9630	 6.2610
 1.9640	 6.2950
 1.9650	 6.3280
 1.9660	 6.3630
 1.9670	 6.4090
 1.9680	 6.4500
 1.9690	 6.4910
 1.9700	 6.5300
 1.9710	 6.5680
 1.9720	 6.6070
 1.9730	 6.6400
 1.9740	 6.6810
 1.9750	 6.7270
 1.9760	 6.7670
 1.9770	 6.8040
 1.9780	 6.8450
 1.9790	 6.8860
 1.9800	 6.9240
 1.9810	 6.9660
 1.9820	 7.0100
 1.9830	 7.0560
 1.9840	 7.1100
 1.9850	 7.1530
 1.9860	 7.1920
 1.9870	 7.2310
 1.9880	 7.2720
 1.9890	 7.3080
 1.9900	 7.3580
 1.9910	 7.4100
 1.9920	 7.4530
 1.9930	 7.4890
 1.9940	 7.5290
 1.9950	 7.5630
 1.9960	 7.6040
 1.9970	 7.6510
 1.9980	 7.6950
 1.9990	 7.7400
 2.0000	 7.7820
 2.0010	 7.8220
 2.0020	 7.8650
 2.0030	 7.9080
 2.0040	 7.9520
 2.0050	 7.9970
 2.0060	 8.0430
 2.0070	 8.0870
 2.0080	 8.1300
 2.0090	 8.1700
 2.0100	 8.2060
 2.0110	 8.2430
 2.0120	 8.2740
 2.0130	 8.3130
 2.0140	 8.3500
 2.0150	 8.3800
 2.0160	 8.4180
 2.0170	 8.4530
 2.0180	 8.4860
 2.0190	 8.5220
 2.0200	 8.5540
 2.0210	 8.5790
 2.0220	 8.6140
 2.0230	 8.6540
 2.0240	 8.6910
 2.0250	 8.7330
 2.0260	 8.7680
 2.0270	 8.7990
 2.0280	 8.8280
 2.0290	 8.8530
 2.0300	 8.8780
 2.0310	 8.9020
 2.0320	 8.9250
 2.0330	 8.9470
 2.0340	 8.9700
 2.0350	 8.9890
 2.0360	 9.0000
 2.0370	 9.0180
 2.0380	 9.0380
 2.0390	 9.0560
 2.0400	 9.0750
 2.0410	 9.0950
 2.0420	 9.1160
 2.0430	 9.1380
 2.0440	 9.1540
 2.0450	 9.1700
 2.0460	 9.1840
 2.0470	 9.1910
 2.0480	 9.2040
 2.0490	 9.2240
 2.0500	 9.2360
 2.0510	 9.2410
 2.0520	 9.2530
 2.0530	 9.2620
 2.0540	 9.2750
 2.0550	 9.2960
 2.0560	 9.3130
 2.0570	 9.3270
 2.0580	 9.3430
 2.0590	 9.3610
 2.0600	 9.3830
 2.0610	 9.4010
 2.0620	 9.4250
 2.0630	 9.4380
 2.0640	 9.4410
 2.0650	 9.4510
 2.0660	 9.4570
 2.0670	 9.4670
 2.0680	 9.4800
 2.0690	 9.4940
 2.0700	 9.5110
 2.0710	 9.5230
 2.0720	 9.5320
 2.0730	 9.5440
 2.0740	 9.5560
 2.0750	 9.5620
 2.0760	 9.5760
 2.0770	 9.5980
 2.0780	 9.6180
 2.0790	 9.6450
 2.0800	 9.6630
 2.0810	 9.6800
 2.0820	 9.6930
 2.0830	 9.6950
 2.0840	 9.7040
 2.0850	 9.7120
 2.0860	 9.7220
 2.0870	 9.7330
 2.0880	 9.7480
 2.0890	 9.7630
 2.0900	 9.7770
 2.0910	 9.7950
 2.0920	 9.8190
 2.0930	 9.8350
 2.0940	 9.8510
 2.0950	 9.8640
 2.0960	 9.8680
 2.0970	 9.8790
 2.0980	 9.8910
 2.0990	 9.9050
 2.1000	 9.9240
 2.1010	 9.9420
 2.1020	 9.9650
 2.1030	 9.9820
 2.1040	 9.9990
 2.1050	10.0120
 2.1060	10.0200
 2.1070	10.0210
 2.1080	10.0270
 2.1090	10.0260
 2.1100	10.0360
 2.1110	10.0530
 2.1120	10.0670
 2.1130	10.0870
 2.1140	10.1010
 2.1150	10.1110
 2.1160	10.1240
 2.1170	10.1380
 2.1180	10.1490
 2.1190	10.1590
 2.1200	10.1700
 2.1210	10.1800
 2.1220	10.1870
 2.1230	10.2040
 2.1240	10.2300
 2.1250	10.2420
 2.1260	10.2550
 2.1270	10.2630
 2.1280	10.2560
 2.1290	10.2620
 2.1300	10.2750
 2.1310	10.2850
 2.1320	10.2960
 2.1330	10.3070
 2.1340	10.3160
 2.1350	10.3260
 2.1360	10.3380
 2.1370	10.3510
 2.1380	10.3620
 2.1390	10.3790
 2.1400	10.4000
 2.1410	10.4240
 2.1420	10.4440
 2.1430	10.4670
 2.1440	10.4850
 2.1450	10.4990
 2.1460	10.5110
 2.1470	10.5160
 2.1480	10.5320
 2.1490	10.5520
 2.1500	10.5710
 2.1510	10.5990
 2.1520	10.6200
 2.1530	10.6340
 2.1540	10.6510
 2.1550	10.6660
 2.1560	10.6870
 2.1570	10.7100
 2.1580	10.7340
 2.1590	10.7660
 2.1600	10.7910
 2.1610	10.8150
 2.1620	10.8380
 2.1630	10.8590
 2.1640	10.8770
 2.1650	10.8990
 2.1660	10.9230
 2.1670	10.9470
 2.1680	10.9770
 2.1690	10.9970
 2.1700	11.0120
 2.1710	11.0290
 2.1720	11.0390
 2.1730	11.0550
 2.1740	11.0760
 2.1750	11.0930
 2.1760	11.1100
 2.1770	11.1260
 2.1780	11.1430
 2.1790	11.1570
 2.1800	11.1680
 2.1810	11.1800
 2.1820	11.1850
 2.1830	11.1950
 2.1840	11.2170
 2.1850	11.2510
 2.1860	11.2730
 2.1870	11.3020
 2.1880	11.3250
 2.1890	11.3340
 2.1900	11.3560
 2.1910	11.3900
 2.1920	11.4150
 2.1930	11.4440
 2.1940	11.4650
 2.1950	11.4820
 2.1960	11.4930
 2.1970	11.4900
 2.1980	11.4980
 2.1990	11.5010
 2.2000	11.5120
 2.2010	11.5400
 2.2020	11.5540
 2.2030	11.5590
 2.2040	11.5700
 2.2050	11.5750
 2.2060	11.5810
 2.2070	11.5980
 2.2080	11.6270
 2.2090	11.6450
 2.2100	11.6660
 2.2110	11.6790
 2.2120	11.6840
 2.2130	11.6950
 2.2140	11.7080
 2.2150	11.7160
 2.2160	11.7260
 2.2170	11.7320
 2.2180	11.7340
 2.2190	11.7340
 2.2200	11.7290
 2.2210	11.7280
 2.2220	11.7290
 2.2230	11.7250
 2.2240	11.7240
 2.2250	11.7160
 2.2260	11.6990
 2.2270	11.6860
 2.2280	11.6750
 2.2290	11.6590
 2.2300	11.6490
 2.2310	11.6230
 2.2320	11.5980
 2.2330	11.5790
 2.2340	11.5570
 2.2350	11.5410
 2.2360	11.5090
 2.2370	11.4700
 2.2380	11.4280
 2.2390	11.3710
 2.2400	11.3270
 2.2410	11.2920
 2.2420	11.2450
 2.2430	11.2000
 2.2440	11.1460
 2.2450	11.0770
 2.2460	11.0180
 2.2470	10.9570
 2.2480	10.9000
 2.2490	10.8480
 2.2500	10.7950
 2.2510	10.7470
 2.2520	10.6950
 2.2530	10.6400
 2.2540	10.5870
 2.2550	10.5270
 2.2560	10.4740
 2.2570	10.4310
 2.2580	10.3810
 2.2590	10.3240
 2.2600	10.2760
 2.2610	10.2320
 2.2620	10.1850
 2.2630	10.1540
 2.2640	10.1250
 2.2650	10.0820
 2.2660	10.0390
 2.2670	 9.9860
 2.2680	 9.9160
 2.2690	 9.8670
 2.2700	 9.8210
 2.2710	 9.7820
 2.2720	 9.7590
 2.2730	 9.7290
 2.2740	 9.6980
 2.2750	 9.6670
 2.2760	 9.6360
 2.2770	 9.6060
 2.2780	 9.5810
 2.2790	 9.5460
 2.2800	 9.5030
 2.2810	 9.4650
 2.2820	 9.4220
 2.2830	 9.3820
 2.2840	 9.3520
 2.2850	 9.3150
 2.2860	 9.2710
 2.2870	 9.2300
 2.2880	 9.1900
 2.2890	 9.1470
 2.2900	 9.0970
 2.2910	 9.0590
 2.2920	 9.0250
 2.2930	 8.9930
 2.2940	 8.9730
 2.2950	 8.9460
 2.2960	 8.9190
 2.2970	 8.8820
 2.2980	 8.8350
 2.2990	 8.7910
 2.3000	 8.7550
 2.3010	 8.7140
 2.3020	 8.6830
 2.3030	 8.6530
 2.3040	 8.6090
 2.3050	 8.5850
 2.3060	 8.5830
 2.3070	 8.5770
 2.3080	 8.5680
 2.3090	 8.5700
 2.3100	 8.5740
 2.3110	 8.5740
 2.3120	 8.5780
 2.3130	 8.5980
 2.3140	 8.5970
 2.3150	 8.5820
 2.3160	 8.5810
 2.3170	 8.5810
 2.3180	 8.5820
 2.3190	 8.5880
 2.3200	 8.5920
 2.3210	 8.5970
 2.3220	 8.5980
 2.3230	 8.6000
 2.3240	 8.6000
 2.3250	 8.6010
 2.3260	 8.5890
 2.3270	 8.5720
 2.3280	 8.5510
 2.3290	 8.5120
 2.3300	 8.4870
 2.3310	 8.4680
 2.3320	 8.4470
 2.3330	 8.4320
 2.3340	 8.4060
 2.3350	 8.3630
 2.3360	 8.3400
 2.3370	 8.3290
 2.3380	 8.3040
 2.3390	 8.2880
 2.3400	 8.2670
 2.3410	 8.2340
 2.3420	 8.2040
 2.3430	 8.1740
 2.3440	 8.1490
 2.3450	 8.1160
 2.3460	 8.0960
 2.3470	 8.1040
 2.3480	 8.0960
 2.3490	 8.0810
 2.3500	 8.0710
 2.3510	 8.0460
 2.3520	 8.0400
 2.3530	 8.0510
 2.3540	 8.0660
 2.3550	 8.0860
 2.3560	 8.0850
 2.3570	 8.0430
 2.3580	 8.0070
 2.3590	 7.9780
 2.3600	 7.9510
 2.3610	 7.9520
 2.3620	 7.9560
 2.3630	 7.9530
 2.3640	 7.9530
 2.3650	 7.9560
 2.3660	 7.9570
 2.3670	 7.9510
 2.3680	 7.9390
 2.3690	 7.9180
 2.3700	 7.8760
 2.3710	 7.8270
 2.3720	 7.8000
 2.3730	 7.7800
 2.3740	 7.7710
 2.3750	 7.7770
 2.3760	 7.7490
 2.3770	 7.7150
 2.3780	 7.6890
 2.3790	 7.6610
 2.3800	 7.6550
 2.3810	 7.6410
 2.3820	 7.6250
 2.3830	 7.6160
 2.3840	 7.5940
 2.3850	 7.5860
 2.3860	 7.5850
 2.3870	 7.5620
 2.3880	 7.5430
 2.3890	 7.5140
 2.3900	 7.4810
 2.3910	 7.4700
 2.3920	 7.4640
 2.3930	 7.4490
 2.3940	 7.4310
 2.3950	 7.4070
 2.3960	 7.3860
 2.3970	 7.3680
 2.3980	 7.3370
 2.3990	 7.3210
 2.4000	 7.2860
 2.4010	 7.2490
 2.4020	 7.2580
 2.4030	 7.2480
 2.4040	 7.2360
 2.4050	 7.2190
 2.4060	 7.1790
 2.4070	 7.1390
 2.4080	 7.0800
 2.4090	 7.0460
 2.4100	 7.0280
 2.4110	 6.9970
 2.4120	 6.9930
 2.4130	 6.9720
 2.4140	 6.9540
 2.4150	 6.9680
 2.4160	 6.9570
 2.4170	 6.9310
 2.4180	 6.9140
 2.4190	 6.8720
 2.4200	 6.8330
 2.4210	 6.8200
 2.4220	 6.7720
 2.4230	 6.7260
 2.4240	 6.6860
 2.4250	 6.6370
 2.4260	 6.6170
 2.4270	 6.5720
 2.4280	 6.5240
 2.4290	 6.4980
 2.4300	 6.4750
 2.4310	 6.4950
 2.4320	 6.5090
 2.4330	 6.4900
 2.4340	 6.4860
 2.4350	 6.4670
 2.4360	 6.4390
 2.4370	 6.4240
 2.4380	 6.3990
 2.4390	 6.3430
 2.4400	 6.3060
 2.4410	 6.2810
 2.4420	 6.2400
 2.4430	 6.2190
 2.4440	 6.1820
 2.4450	 6.1540
 2.4460	 6.1200
 2.4470	 6.0440
 2.4480	 6.0060
 2.4490	 6.0150
 2.4500	 6.0330
 2.4510	 6.0510
 2.4520	 6.0480
 2.4530	 5.9890
 2.4540	 5.9260
 2.4550	 5.9080
 2.4560	 5.9050
 2.4570	 5.8650
 2.4580	 5.8210
 2.4590	 5.7840
 2.4600	 5.7440
 2.4610	 5.7250
 2.4620	 5.7200
 2.4630	 5.7130
 2.4640	 5.6670
 2.4650	 5.6520
 2.4660	 5.6390
 2.4670	 5.5840
 2.4680	 5.5740
 2.4690	 5.5360
 2.4700	 5.4740
 2.4710	 5.3810
 2.4720	 5.3220
 2.4730	 5.2500
 2.4740	 5.2490
 2.4750	 5.3320
 2.4760	 5.3510
 2.4770	 5.3750
 2.4780	 5.3870
 2.4790	 5.3550
 2.4800	 5.3610
 2.4810	 5.4180
 2.4820	 5.4440
 2.4830	 5.3900
 2.4840	 5.3520
 2.4850	 5.3390
 2.4860	 5.3290
 2.4870	 5.3720
 2.4880	 5.3870
 2.4890	 5.3530
 2.4900	 5.3210
 2.4910	 5.2720
 2.4920	 5.2740
 2.4930	 5.2800
 2.4940	 5.2440
 2.4950	 5.2510
 2.4960	 5.3150
 2.4970	 5.3590
 2.4980	 5.3650
 2.4990	 5.3880
 2.5000	 5.3870
