Name: Arctostaphylos glandulosa 3
Type: vegetation
Class: Shrub
Genus: Arctostaphylos
Species: glandulosa
Sample No.: VH156
Owner: UCSB
Wavelength Range: TIR
Origin: 37.0443; -119.3026; WGS84
Collection Date: 6/8/2013
Description: Samples were collected as part of the HyspIRI Airborne Campaign. 48 individual plants were sampled in three times in 2013 - spring  summer  and fall. The name of the sample includes a 1  2  or 3 which references a different individual of the species. Samples were taken to JPL and processed within 48 hours of collection. The same leaves were processed in the Nicolet and then measured using the ASD.
Measurement: Hemispherical reflectance
First Column: X
Second Column: Y
X Units: Wavelength (micrometers)
Y Units: Reflectance (percentage)
First X Value: 2.501
Last X Value: 15.387
Number of X Values: 1737
Additional Information: vegetation.shrub.arctostaphylos.glandulosa.tir.vh156.ucsb.nicolet.ancillary.txt

 2.5010	 6.3810
 2.5030	 6.1270
 2.5040	 6.0130
 2.5050	 6.1680
 2.5060	 6.4170
 2.5070	 6.2010
 2.5090	 6.2620
 2.5100	 6.3540
 2.5110	 6.2850
 2.5120	 6.1630
 2.5140	 6.2910
 2.5150	 6.3370
 2.5160	 6.3830
 2.5170	 6.1440
 2.5180	 6.1310
 2.5200	 6.1800
 2.5210	 6.2760
 2.5220	 6.2950
 2.5230	 6.3300
 2.5250	 6.1950
 2.5260	 6.1630
 2.5270	 6.2010
 2.5280	 6.2580
 2.5290	 6.2050
 2.5310	 6.3520
 2.5320	 6.3440
 2.5330	 6.3310
 2.5340	 6.2260
 2.5360	 6.2410
 2.5370	 6.2390
 2.5380	 6.3170
 2.5390	 6.3190
 2.5410	 6.4960
 2.5420	 6.5660
 2.5430	 6.5010
 2.5440	 6.4150
 2.5460	 6.5550
 2.5470	 6.5120
 2.5480	 6.4590
 2.5490	 6.3730
 2.5510	 6.3790
 2.5520	 6.3390
 2.5530	 6.4640
 2.5540	 6.4960
 2.5560	 6.3990
 2.5570	 6.3060
 2.5580	 6.4070
 2.5590	 6.4750
 2.5610	 6.5390
 2.5620	 6.5600
 2.5630	 6.5710
 2.5640	 6.4440
 2.5660	 6.3690
 2.5670	 6.2870
 2.5680	 6.3880
 2.5700	 6.4140
 2.5710	 6.3650
 2.5720	 6.3920
 2.5730	 6.5820
 2.5750	 6.5200
 2.5760	 6.5540
 2.5770	 6.5440
 2.5790	 6.4800
 2.5800	 6.3470
 2.5810	 6.4730
 2.5820	 6.5260
 2.5840	 6.4810
 2.5850	 6.3860
 2.5860	 6.3490
 2.5880	 6.2540
 2.5890	 6.3650
 2.5900	 6.2690
 2.5910	 6.3670
 2.5930	 6.4440
 2.5940	 6.3470
 2.5950	 6.2170
 2.5970	 6.3360
 2.5980	 6.3440
 2.5990	 6.3790
 2.6000	 6.2560
 2.6020	 6.2490
 2.6030	 6.2030
 2.6040	 6.1920
 2.6060	 6.0910
 2.6070	 6.0930
 2.6080	 6.0820
 2.6100	 6.0840
 2.6110	 6.0300
 2.6120	 6.0090
 2.6140	 5.8940
 2.6150	 5.9670
 2.6160	 5.9210
 2.6180	 5.8230
 2.6190	 5.7770
 2.6200	 5.7820
 2.6220	 5.6230
 2.6230	 5.5830
 2.6240	 5.5480
 2.6260	 5.4820
 2.6270	 5.3670
 2.6280	 5.4360
 2.6300	 5.5080
 2.6310	 5.5110
 2.6320	 5.3030
 2.6340	 5.3130
 2.6350	 5.3330
 2.6360	 5.3570
 2.6380	 5.2410
 2.6390	 5.2720
 2.6400	 5.2470
 2.6420	 5.2390
 2.6430	 5.1480
 2.6440	 5.1020
 2.6460	 5.0060
 2.6470	 5.0850
 2.6480	 5.0760
 2.6500	 4.9950
 2.6510	 4.8520
 2.6520	 4.8990
 2.6540	 4.6770
 2.6550	 4.5040
 2.6560	 4.5150
 2.6580	 4.7200
 2.6590	 4.7030
 2.6610	 4.5330
 2.6620	 4.4410
 2.6630	 4.4080
 2.6650	 4.3090
 2.6660	 4.3910
 2.6670	 4.5420
 2.6690	 4.5350
 2.6700	 4.2690
 2.6720	 4.3050
 2.6730	 4.2260
 2.6740	 4.2190
 2.6760	 4.1420
 2.6770	 4.1590
 2.6780	 4.1430
 2.6800	 4.1840
 2.6810	 4.1530
 2.6830	 4.1320
 2.6840	 3.9420
 2.6850	 3.9210
 2.6870	 4.0120
 2.6880	 4.0200
 2.6900	 3.8690
 2.6910	 3.7750
 2.6920	 3.5820
 2.6940	 3.5890
 2.6950	 3.5630
 2.6970	 3.6360
 2.6980	 3.5300
 2.6990	 3.3920
 2.7010	 3.3000
 2.7020	 3.4640
 2.7040	 3.4760
 2.7050	 3.4110
 2.7060	 3.3420
 2.7080	 3.4060
 2.7090	 3.3060
 2.7110	 3.2920
 2.7120	 3.3030
 2.7130	 3.3570
 2.7150	 3.3440
 2.7160	 3.3900
 2.7180	 3.2720
 2.7190	 3.2840
 2.7210	 3.1480
 2.7220	 3.0770
 2.7230	 3.0090
 2.7250	 3.2080
 2.7260	 3.2270
 2.7280	 3.2800
 2.7290	 3.3230
 2.7310	 3.3130
 2.7320	 3.1190
 2.7330	 3.0160
 2.7350	 3.0140
 2.7360	 3.2130
 2.7380	 3.1770
 2.7390	 3.1230
 2.7410	 3.0520
 2.7420	 3.1490
 2.7440	 3.1600
 2.7450	 3.1630
 2.7470	 2.9920
 2.7480	 2.9870
 2.7490	 2.8040
 2.7510	 2.7490
 2.7520	 2.7400
 2.7540	 2.9290
 2.7550	 2.9310
 2.7570	 2.9220
 2.7580	 2.9380
 2.7600	 3.2040
 2.7610	 3.1280
 2.7630	 2.9350
 2.7640	 3.1150
 2.7660	 3.3640
 2.7670	 3.0620
 2.7680	 2.9130
 2.7700	 2.8630
 2.7710	 2.9010
 2.7730	 2.8000
 2.7740	 2.8020
 2.7760	 2.9800
 2.7770	 3.3010
 2.7790	 3.2050
 2.7800	 3.2270
 2.7820	 3.1820
 2.7830	 3.1520
 2.7850	 3.0870
 2.7860	 3.0350
 2.7880	 2.9120
 2.7890	 3.0430
 2.7910	 2.9680
 2.7920	 2.9740
 2.7940	 3.0350
 2.7950	 3.1990
 2.7970	 3.1800
 2.7980	 3.1260
 2.8000	 3.0890
 2.8010	 2.9980
 2.8030	 2.9020
 2.8040	 2.9540
 2.8060	 2.9230
 2.8070	 3.0990
 2.8090	 3.1390
 2.8110	 3.1750
 2.8120	 3.1070
 2.8140	 3.1540
 2.8150	 3.1070
 2.8170	 3.1370
 2.8180	 3.0300
 2.8200	 2.8400
 2.8210	 2.5340
 2.8230	 2.6960
 2.8240	 2.6920
 2.8260	 2.6110
 2.8270	 2.6950
 2.8290	 2.7890
 2.8300	 2.9460
 2.8320	 3.3450
 2.8340	 3.2910
 2.8350	 3.1210
 2.8370	 2.8960
 2.8380	 2.9440
 2.8400	 3.0170
 2.8410	 3.1240
 2.8430	 3.1110
 2.8440	 3.1510
 2.8460	 3.0780
 2.8480	 3.0790
 2.8490	 3.0000
 2.8510	 2.9960
 2.8520	 2.9720
 2.8540	 3.0760
 2.8550	 2.9730
 2.8570	 2.8970
 2.8590	 2.8620
 2.8600	 2.9870
 2.8620	 2.9200
 2.8630	 2.8730
 2.8650	 2.8750
 2.8660	 2.9980
 2.8680	 3.0020
 2.8700	 2.9290
 2.8710	 2.7490
 2.8730	 2.8750
 2.8740	 2.9850
 2.8760	 3.0210
 2.8780	 3.0330
 2.8790	 3.0380
 2.8810	 2.9670
 2.8820	 3.1060
 2.8840	 2.9460
 2.8860	 2.9560
 2.8870	 3.1310
 2.8890	 3.2480
 2.8900	 3.0460
 2.8920	 2.8810
 2.8940	 2.7030
 2.8950	 2.8880
 2.8970	 3.1130
 2.8980	 3.1290
 2.9000	 2.9820
 2.9020	 2.9950
 2.9030	 2.9920
 2.9050	 3.1320
 2.9070	 3.0200
 2.9080	 3.0430
 2.9100	 3.0230
 2.9120	 3.0610
 2.9130	 3.0470
 2.9150	 3.1440
 2.9160	 3.0060
 2.9180	 2.9290
 2.9200	 2.9280
 2.9210	 3.1510
 2.9230	 3.0810
 2.9250	 2.9990
 2.9260	 2.8830
 2.9280	 3.0360
 2.9300	 3.0340
 2.9310	 3.0910
 2.9330	 3.0340
 2.9350	 2.8750
 2.9360	 2.8070
 2.9380	 3.0050
 2.9400	 2.9420
 2.9410	 3.1050
 2.9430	 3.1420
 2.9450	 3.1400
 2.9460	 2.9530
 2.9480	 2.6790
 2.9500	 2.6670
 2.9510	 2.9130
 2.9530	 3.0210
 2.9550	 3.2650
 2.9560	 3.5490
 2.9580	 3.4310
 2.9600	 3.0270
 2.9610	 3.1240
 2.9630	 3.7470
 2.9650	 3.6050
 2.9660	 2.2930
 2.9680	 1.7310
 2.9700	 2.5270
 2.9720	 3.8900
 2.9730	 3.9410
 2.9750	 3.9690
 2.9770	 4.2990
 2.9780	 3.8120
 2.9800	 2.8470
 2.9820	 3.4340
 2.9840	 4.8880
 2.9850	 4.9590
 2.9870	 3.4190
 2.9890	 2.8340
 2.9900	 2.7970
 2.9920	 2.9260
 2.9940	 3.5650
 2.9960	 4.6970
 2.9970	 4.7620
 2.9990	 4.7640
 3.0010	 4.7250
 3.0030	 3.6980
 3.0040	 3.0360
 3.0060	 2.8670
 3.0080	 3.0140
 3.0100	 3.0650
 3.0110	 2.8310
 3.0130	 3.3520
 3.0150	 3.2250
 3.0170	 2.6120
 3.0180	 2.7530
 3.0200	 2.9550
 3.0220	 2.6050
 3.0240	 2.8760
 3.0250	 3.0170
 3.0270	 2.9730
 3.0290	 2.8590
 3.0310	 2.8500
 3.0320	 2.4090
 3.0340	 2.1410
 3.0360	 1.7090
 3.0380	 1.6030
 3.0400	 1.8040
 3.0410	 3.6290
 3.0430	 4.9110
 3.0450	 3.1630
 3.0470	 2.9360
 3.0480	 3.5040
 3.0500	 2.7240
 3.0520	 4.1930
 3.0540	 2.7900
 3.0560	 1.8860
 3.0570	 2.8680
 3.0590	 4.1790
 3.0610	 4.0020
 3.0630	 2.9860
 3.0650	 3.3800
 3.0660	 3.9560
 3.0680	 4.2000
 3.0700	 3.5970
 3.0720	 3.4070
 3.0740	 3.2590
 3.0760	 3.0250
 3.0770	 3.0830
 3.0790	 3.0420
 3.0810	 2.9510
 3.0830	 2.9250
 3.0850	 3.0710
 3.0870	 3.0540
 3.0880	 2.8810
 3.0900	 2.9620
 3.0920	 3.0950
 3.0940	 2.9660
 3.0960	 2.9660
 3.0980	 3.1260
 3.0990	 3.1840
 3.1010	 2.9980
 3.1030	 3.0260
 3.1050	 2.9880
 3.1070	 3.0140
 3.1090	 2.9810
 3.1110	 2.8250
 3.1120	 3.0840
 3.1140	 3.0350
 3.1160	 2.8440
 3.1180	 3.3300
 3.1200	 3.5260
 3.1220	 3.5560
 3.1240	 3.1080
 3.1260	 2.9310
 3.1270	 3.1820
 3.1290	 3.0140
 3.1310	 2.7560
 3.1330	 2.3140
 3.1350	 2.5550
 3.1370	 3.1120
 3.1390	 3.2290
 3.1410	 3.2180
 3.1430	 3.1210
 3.1450	 3.0850
 3.1460	 2.9780
 3.1480	 2.4330
 3.1500	 2.5790
 3.1520	 3.1870
 3.1540	 3.0100
 3.1560	 2.2550
 3.1580	 2.0840
 3.1600	 2.0660
 3.1620	 2.5870
 3.1640	 3.1120
 3.1660	 3.5150
 3.1680	 3.3420
 3.1700	 2.6890
 3.1710	 2.7530
 3.1730	 2.8990
 3.1750	 3.2360
 3.1770	 3.0280
 3.1790	 3.3100
 3.1810	 3.5850
 3.1830	 3.1120
 3.1850	 3.1240
 3.1870	 3.0110
 3.1890	 2.7510
 3.1910	 2.7820
 3.1930	 2.9380
 3.1950	 3.1340
 3.1970	 3.2490
 3.1990	 3.0850
 3.2010	 2.9040
 3.2030	 2.9390
 3.2050	 2.9730
 3.2070	 3.0180
 3.2090	 2.7780
 3.2110	 2.7550
 3.2130	 2.8840
 3.2150	 3.1760
 3.2170	 2.9910
 3.2190	 2.9060
 3.2210	 2.9490
 3.2230	 3.0370
 3.2250	 2.9050
 3.2270	 2.9660
 3.2290	 3.2380
 3.2310	 3.2540
 3.2330	 2.9460
 3.2350	 2.7930
 3.2370	 2.6830
 3.2390	 2.7880
 3.2410	 2.9200
 3.2430	 2.9510
 3.2450	 2.7700
 3.2470	 2.8750
 3.2490	 3.0210
 3.2510	 3.0440
 3.2530	 2.8180
 3.2550	 2.8500
 3.2570	 2.9740
 3.2590	 2.6320
 3.2610	 2.2100
 3.2630	 2.3760
 3.2650	 2.3260
 3.2670	 2.7620
 3.2690	 2.9580
 3.2720	 2.7180
 3.2740	 2.7600
 3.2760	 2.9180
 3.2780	 2.9040
 3.2800	 2.9050
 3.2820	 2.9350
 3.2840	 2.9490
 3.2860	 2.8380
 3.2880	 2.7800
 3.2900	 2.5900
 3.2920	 2.7250
 3.2940	 2.7640
 3.2960	 2.7630
 3.2990	 2.8580
 3.3010	 2.8000
 3.3030	 2.6090
 3.3050	 2.8210
 3.3070	 2.9650
 3.3090	 2.9410
 3.3110	 2.8370
 3.3130	 2.8790
 3.3150	 2.8300
 3.3180	 2.8320
 3.3200	 2.7920
 3.3220	 2.7720
 3.3240	 2.7770
 3.3260	 2.8570
 3.3280	 2.9170
 3.3300	 3.0030
 3.3330	 2.9540
 3.3350	 2.9180
 3.3370	 2.8030
 3.3390	 2.7910
 3.3410	 2.7340
 3.3430	 2.7130
 3.3450	 2.7060
 3.3480	 2.7410
 3.3500	 2.7070
 3.3520	 2.6560
 3.3540	 2.4780
 3.3560	 2.4810
 3.3580	 2.5250
 3.3610	 2.6090
 3.3630	 2.6690
 3.3650	 2.6870
 3.3670	 2.5370
 3.3690	 2.5820
 3.3720	 2.5650
 3.3740	 2.5950
 3.3760	 2.5220
 3.3780	 2.5380
 3.3800	 2.4840
 3.3830	 2.4850
 3.3850	 2.4670
 3.3870	 2.6760
 3.3890	 2.6370
 3.3910	 2.4460
 3.3940	 2.3160
 3.3960	 2.2810
 3.3980	 2.3030
 3.4000	 2.3240
 3.4020	 2.3070
 3.4050	 2.4280
 3.4070	 2.4410
 3.4090	 2.4280
 3.4110	 2.5170
 3.4140	 2.7450
 3.4160	 2.9570
 3.4180	 3.1870
 3.4200	 3.4720
 3.4230	 3.9960
 3.4250	 4.4780
 3.4270	 4.9610
 3.4290	 5.2340
 3.4320	 5.2840
 3.4340	 4.9780
 3.4360	 4.7260
 3.4390	 4.5010
 3.4410	 4.3740
 3.4430	 4.1810
 3.4450	 3.9040
 3.4480	 3.7560
 3.4500	 3.8140
 3.4520	 3.7900
 3.4550	 3.7730
 3.4570	 3.6870
 3.4590	 3.6070
 3.4620	 3.4870
 3.4640	 3.4540
 3.4660	 3.4910
 3.4680	 3.5520
 3.4710	 3.5480
 3.4730	 3.4550
 3.4750	 3.4010
 3.4780	 3.3840
 3.4800	 3.3540
 3.4820	 3.2610
 3.4850	 3.1670
 3.4870	 3.1960
 3.4890	 3.1070
 3.4920	 3.0720
 3.4940	 3.0210
 3.4970	 3.0100
 3.4990	 3.0160
 3.5010	 3.0990
 3.5040	 3.2630
 3.5060	 3.7450
 3.5080	 4.5190
 3.5110	 5.2200
 3.5130	 5.2420
 3.5160	 4.9380
 3.5180	 4.5550
 3.5200	 4.3150
 3.5230	 4.1810
 3.5250	 4.0290
 3.5270	 3.8760
 3.5300	 3.8980
 3.5320	 3.8590
 3.5350	 3.8010
 3.5370	 3.8050
 3.5400	 3.8320
 3.5420	 3.7230
 3.5440	 3.7300
 3.5470	 3.7480
 3.5490	 3.7920
 3.5520	 3.7110
 3.5540	 3.6770
 3.5570	 3.5760
 3.5590	 3.5730
 3.5610	 3.6340
 3.5640	 3.6240
 3.5660	 3.5950
 3.5690	 3.6310
 3.5710	 3.5700
 3.5740	 3.5770
 3.5760	 3.5880
 3.5790	 3.6290
 3.5810	 3.5240
 3.5840	 3.4530
 3.5860	 3.5590
 3.5890	 3.6750
 3.5910	 3.6210
 3.5930	 3.6440
 3.5960	 3.7450
 3.5980	 3.7060
 3.6010	 3.4410
 3.6030	 3.5580
 3.6060	 3.7050
 3.6080	 3.5840
 3.6110	 3.4220
 3.6140	 3.5050
 3.6160	 3.5240
 3.6190	 3.5040
 3.6210	 3.4890
 3.6240	 3.5170
 3.6260	 3.5140
 3.6290	 3.5470
 3.6310	 3.4760
 3.6340	 3.5070
 3.6360	 3.5680
 3.6390	 3.5070
 3.6410	 3.4740
 3.6440	 3.6220
 3.6470	 3.6480
 3.6490	 3.5550
 3.6520	 3.4670
 3.6540	 3.4510
 3.6570	 3.4500
 3.6590	 3.5390
 3.6620	 3.5410
 3.6650	 3.4970
 3.6670	 3.4610
 3.6700	 3.5100
 3.6720	 3.5170
 3.6750	 3.5010
 3.6780	 3.4770
 3.6800	 3.5210
 3.6830	 3.5850
 3.6850	 3.6370
 3.6880	 3.5270
 3.6910	 3.5050
 3.6930	 3.5530
 3.6960	 3.5630
 3.6990	 3.5040
 3.7010	 3.5090
 3.7040	 3.5180
 3.7060	 3.5360
 3.7090	 3.4940
 3.7120	 3.5120
 3.7140	 3.4500
 3.7170	 3.4720
 3.7200	 3.4820
 3.7220	 3.5900
 3.7250	 3.7710
 3.7280	 3.8030
 3.7300	 3.6060
 3.7330	 3.5040
 3.7360	 3.5090
 3.7390	 3.6290
 3.7410	 3.6610
 3.7440	 3.6140
 3.7470	 3.6810
 3.7490	 3.8210
 3.7520	 3.7690
 3.7550	 3.7700
 3.7580	 3.7260
 3.7600	 3.6860
 3.7630	 3.6890
 3.7660	 3.7350
 3.7680	 3.5580
 3.7710	 3.5190
 3.7740	 3.6740
 3.7770	 3.7660
 3.7790	 3.7110
 3.7820	 3.6220
 3.7850	 3.6390
 3.7880	 3.7200
 3.7900	 3.6300
 3.7930	 3.5870
 3.7960	 3.6190
 3.7990	 3.6690
 3.8020	 3.6660
 3.8040	 3.7500
 3.8070	 3.8440
 3.8100	 3.8690
 3.8130	 3.8560
 3.8160	 3.8470
 3.8180	 3.7890
 3.8210	 3.8450
 3.8240	 3.9210
 3.8270	 3.9200
 3.8300	 3.8530
 3.8330	 3.8070
 3.8350	 3.8530
 3.8380	 3.9250
 3.8410	 3.7670
 3.8440	 3.7840
 3.8470	 3.9530
 3.8500	 4.0670
 3.8520	 3.9490
 3.8550	 3.8840
 3.8580	 3.8430
 3.8610	 3.8270
 3.8640	 3.8650
 3.8670	 3.9170
 3.8700	 3.8970
 3.8730	 3.8910
 3.8750	 3.8820
 3.8780	 3.9060
 3.8810	 3.8950
 3.8840	 3.9370
 3.8870	 3.9200
 3.8900	 3.8650
 3.8930	 3.8020
 3.8960	 3.8470
 3.8990	 3.9190
 3.9020	 3.9540
 3.9050	 3.8470
 3.9080	 3.8570
 3.9110	 3.9330
 3.9140	 3.9450
 3.9160	 3.9660
 3.9190	 3.9930
 3.9220	 3.9380
 3.9250	 3.9360
 3.9280	 3.9750
 3.9310	 3.9710
 3.9340	 3.9410
 3.9370	 3.9620
 3.9400	 3.9990
 3.9430	 4.0310
 3.9460	 4.0050
 3.9490	 3.9430
 3.9520	 3.9490
 3.9550	 3.9680
 3.9580	 3.9460
 3.9610	 3.9850
 3.9640	 4.0050
 3.9670	 4.0660
 3.9700	 4.0480
 3.9730	 4.0090
 3.9770	 4.0080
 3.9800	 4.0200
 3.9830	 3.9850
 3.9860	 3.9890
 3.9890	 4.0020
 3.9920	 4.0120
 3.9950	 3.9580
 3.9980	 4.0190
 4.0010	 4.0370
 4.0040	 4.0290
 4.0070	 4.0070
 4.0100	 3.9980
 4.0130	 3.9640
 4.0170	 3.9780
 4.0200	 4.0200
 4.0230	 4.0200
 4.0260	 4.0080
 4.0290	 4.0240
 4.0320	 3.9430
 4.0350	 3.9790
 4.0380	 4.0180
 4.0420	 4.0060
 4.0450	 3.9730
 4.0480	 4.0110
 4.0510	 4.0750
 4.0540	 4.1130
 4.0570	 4.0140
 4.0610	 3.9420
 4.0640	 3.9600
 4.0670	 3.9260
 4.0700	 3.9320
 4.0730	 4.0660
 4.0770	 4.0750
 4.0800	 4.0300
 4.0830	 4.0020
 4.0860	 4.0990
 4.0890	 4.0920
 4.0930	 4.0900
 4.0960	 4.0880
 4.0990	 4.1010
 4.1020	 4.1050
 4.1060	 4.0340
 4.1090	 3.9140
 4.1120	 3.8430
 4.1150	 3.8950
 4.1190	 3.9650
 4.1220	 3.9670
 4.1250	 3.9930
 4.1280	 3.9830
 4.1320	 3.9990
 4.1350	 4.0060
 4.1380	 3.9740
 4.1420	 3.9270
 4.1450	 3.9270
 4.1480	 3.9800
 4.1520	 4.0010
 4.1550	 3.9410
 4.1580	 3.9430
 4.1620	 3.9840
 4.1650	 4.0100
 4.1680	 3.9770
 4.1720	 4.0220
 4.1750	 4.0510
 4.1780	 3.9970
 4.1820	 3.9430
 4.1850	 3.9770
 4.1890	 4.0180
 4.1920	 4.0090
 4.1950	 3.9270
 4.1990	 3.8980
 4.2020	 3.9550
 4.2060	 4.0040
 4.2090	 4.0390
 4.2120	 4.1140
 4.2160	 4.2230
 4.2190	 4.1720
 4.2230	 4.1220
 4.2260	 4.4340
 4.2300	 4.2170
 4.2330	 3.9710
 4.2360	 4.1380
 4.2400	 4.2490
 4.2430	 4.1940
 4.2470	 4.1010
 4.2500	 4.2090
 4.2540	 4.1490
 4.2570	 3.9850
 4.2610	 3.8750
 4.2640	 3.8850
 4.2680	 4.0970
 4.2710	 4.1480
 4.2750	 4.1720
 4.2780	 4.0030
 4.2820	 4.0530
 4.2850	 4.1540
 4.2890	 4.0850
 4.2930	 4.1200
 4.2960	 4.0530
 4.3000	 3.7620
 4.3030	 3.6160
 4.3070	 3.7100
 4.3100	 3.7550
 4.3140	 3.7060
 4.3180	 3.8380
 4.3210	 3.8310
 4.3250	 3.7440
 4.3280	 3.6410
 4.3320	 3.6700
 4.3360	 3.7560
 4.3390	 3.7710
 4.3430	 3.7600
 4.3470	 3.7700
 4.3500	 3.7400
 4.3540	 3.6630
 4.3570	 3.6520
 4.3610	 3.6760
 4.3650	 3.6740
 4.3680	 3.6780
 4.3720	 3.6620
 4.3760	 3.6360
 4.3800	 3.6460
 4.3830	 3.6100
 4.3870	 3.5790
 4.3910	 3.6310
 4.3940	 3.6210
 4.3980	 3.6660
 4.4020	 3.6510
 4.4060	 3.5870
 4.4090	 3.5450
 4.4130	 3.5600
 4.4170	 3.5590
 4.4210	 3.5210
 4.4240	 3.4980
 4.4280	 3.5270
 4.4320	 3.5330
 4.4360	 3.5340
 4.4400	 3.5800
 4.4430	 3.5430
 4.4470	 3.4870
 4.4510	 3.4870
 4.4550	 3.4880
 4.4590	 3.4980
 4.4620	 3.4510
 4.4660	 3.4340
 4.4700	 3.4810
 4.4740	 3.4930
 4.4780	 3.4580
 4.4820	 3.4560
 4.4860	 3.4900
 4.4900	 3.5040
 4.4930	 3.4810
 4.4970	 3.4580
 4.5010	 3.4250
 4.5050	 3.4200
 4.5090	 3.4270
 4.5130	 3.3920
 4.5170	 3.3620
 4.5210	 3.3630
 4.5250	 3.4040
 4.5290	 3.3910
 4.5330	 3.3220
 4.5370	 3.3190
 4.5410	 3.3120
 4.5450	 3.3860
 4.5490	 3.4470
 4.5530	 3.3680
 4.5570	 3.3110
 4.5610	 3.2470
 4.5650	 3.2240
 4.5690	 3.2870
 4.5730	 3.2600
 4.5770	 3.2640
 4.5810	 3.3270
 4.5850	 3.3440
 4.5890	 3.3070
 4.5930	 3.3190
 4.5970	 3.2990
 4.6010	 3.2420
 4.6050	 3.2740
 4.6090	 3.2640
 4.6130	 3.3270
 4.6170	 3.3700
 4.6220	 3.3070
 4.6260	 3.1820
 4.6300	 3.1550
 4.6340	 3.2370
 4.6380	 3.2130
 4.6420	 3.2550
 4.6460	 3.3110
 4.6510	 3.3700
 4.6550	 3.3820
 4.6590	 3.3180
 4.6630	 3.3330
 4.6670	 3.3390
 4.6720	 3.3050
 4.6760	 3.3530
 4.6800	 3.3490
 4.6840	 3.3490
 4.6880	 3.3680
 4.6930	 3.3040
 4.6970	 3.2820
 4.7010	 3.2870
 4.7050	 3.2870
 4.7100	 3.2830
 4.7140	 3.2530
 4.7180	 3.2520
 4.7230	 3.2650
 4.7270	 3.2600
 4.7310	 3.2750
 4.7360	 3.3300
 4.7400	 3.3010
 4.7440	 3.2860
 4.7490	 3.2890
 4.7530	 3.2530
 4.7570	 3.2870
 4.7620	 3.3370
 4.7660	 3.3200
 4.7700	 3.2940
 4.7750	 3.2850
 4.7790	 3.4230
 4.7840	 3.3060
 4.7880	 3.0360
 4.7920	 3.0790
 4.7970	 3.1730
 4.8010	 3.3630
 4.8060	 3.4440
 4.8100	 3.3760
 4.8150	 3.3720
 4.8190	 3.4070
 4.8240	 3.3770
 4.8280	 3.3470
 4.8330	 3.3860
 4.8370	 3.3720
 4.8420	 3.2910
 4.8460	 3.2760
 4.8510	 3.3160
 4.8550	 3.3380
 4.8600	 3.2850
 4.8640	 3.2960
 4.8690	 3.3340
 4.8730	 3.3120
 4.8780	 3.2800
 4.8830	 3.3690
 4.8870	 3.3600
 4.8920	 3.3310
 4.8960	 3.3630
 4.9010	 3.4250
 4.9060	 3.4190
 4.9100	 3.4110
 4.9150	 3.3920
 4.9200	 3.3640
 4.9240	 3.3420
 4.9290	 3.3300
 4.9340	 3.3470
 4.9380	 3.3750
 4.9430	 3.3850
 4.9480	 3.4080
 4.9530	 3.4020
 4.9570	 3.4120
 4.9620	 3.4200
 4.9670	 3.4060
 4.9720	 3.3730
 4.9760	 3.3690
 4.9810	 3.4030
 4.9860	 3.3810
 4.9910	 3.2830
 4.9960	 3.3480
 5.0000	 3.4000
 5.0050	 3.4680
 5.0100	 3.5030
 5.0150	 3.4740
 5.0200	 3.4060
 5.0250	 3.4360
 5.0290	 3.4690
 5.0340	 3.4540
 5.0390	 3.3600
 5.0440	 3.3810
 5.0490	 3.4920
 5.0540	 3.5210
 5.0590	 3.4930
 5.0640	 3.4950
 5.0690	 3.5520
 5.0740	 3.5960
 5.0790	 3.4880
 5.0840	 3.4570
 5.0890	 3.4980
 5.0940	 3.5560
 5.0990	 3.5510
 5.1040	 3.5380
 5.1090	 3.5440
 5.1140	 3.5530
 5.1190	 3.5180
 5.1240	 3.5570
 5.1290	 3.5250
 5.1340	 3.5100
 5.1390	 3.5260
 5.1440	 3.5530
 5.1490	 3.5380
 5.1540	 3.5570
 5.1600	 3.5240
 5.1650	 3.5810
 5.1700	 3.5880
 5.1750	 3.6480
 5.1800	 3.5720
 5.1850	 3.5400
 5.1910	 3.5310
 5.1960	 3.5250
 5.2010	 3.5270
 5.2060	 3.5500
 5.2110	 3.5530
 5.2170	 3.5700
 5.2220	 3.5450
 5.2270	 3.5600
 5.2320	 3.6250
 5.2380	 3.6370
 5.2430	 3.5870
 5.2480	 3.5860
 5.2540	 3.5560
 5.2590	 3.5240
 5.2640	 3.4900
 5.2700	 3.5240
 5.2750	 3.5640
 5.2800	 3.6520
 5.2860	 3.6160
 5.2910	 3.5510
 5.2970	 3.5240
 5.3020	 3.5230
 5.3070	 3.4780
 5.3130	 3.4830
 5.3180	 3.5080
 5.3240	 3.5130
 5.3290	 3.5140
 5.3350	 3.5950
 5.3400	 3.6000
 5.3460	 3.5950
 5.3510	 3.5490
 5.3570	 3.5380
 5.3620	 3.5010
 5.3680	 3.5180
 5.3730	 3.5160
 5.3790	 3.5390
 5.3850	 3.4950
 5.3900	 3.4820
 5.3960	 3.4710
 5.4010	 3.5170
 5.4070	 3.4700
 5.4130	 3.4600
 5.4180	 3.5010
 5.4240	 3.4950
 5.4300	 3.4370
 5.4350	 3.4380
 5.4410	 3.4740
 5.4470	 3.4760
 5.4530	 3.4270
 5.4580	 3.4260
 5.4640	 3.3820
 5.4700	 3.4220
 5.4760	 3.3890
 5.4810	 3.3090
 5.4870	 3.2530
 5.4930	 3.2510
 5.4990	 3.2180
 5.5050	 3.2750
 5.5110	 3.2900
 5.5160	 3.2810
 5.5220	 3.2380
 5.5280	 3.2440
 5.5340	 3.2000
 5.5400	 3.1200
 5.5460	 3.0980
 5.5520	 3.1080
 5.5580	 3.0860
 5.5640	 3.0940
 5.5700	 3.0870
 5.5760	 3.0820
 5.5820	 3.0400
 5.5880	 3.0400
 5.5940	 3.0330
 5.6000	 3.0660
 5.6060	 2.9970
 5.6120	 2.9930
 5.6180	 2.9550
 5.6240	 2.9430
 5.6300	 2.8940
 5.6360	 2.8310
 5.6420	 2.8050
 5.6490	 2.7910
 5.6550	 2.7440
 5.6610	 2.7030
 5.6670	 2.5970
 5.6730	 2.5430
 5.6800	 2.5270
 5.6860	 2.5170
 5.6920	 2.4720
 5.6980	 2.4690
 5.7040	 2.3140
 5.7110	 2.2190
 5.7170	 2.0950
 5.7230	 2.0030
 5.7300	 1.8130
 5.7360	 1.7590
 5.7420	 1.8330
 5.7490	 1.9800
 5.7550	 2.2620
 5.7620	 2.8670
 5.7680	 3.4460
 5.7740	 3.8860
 5.7810	 4.0420
 5.7870	 4.1280
 5.7940	 4.1040
 5.8000	 4.0260
 5.8070	 3.8640
 5.8130	 3.7750
 5.8200	 3.6480
 5.8260	 3.6070
 5.8330	 3.5860
 5.8390	 3.6150
 5.8460	 3.5610
 5.8530	 3.6020
 5.8590	 3.6120
 5.8660	 3.6530
 5.8720	 3.6040
 5.8790	 3.5860
 5.8860	 3.5690
 5.8920	 3.6670
 5.8990	 3.6230
 5.9060	 3.6870
 5.9130	 3.7490
 5.9190	 3.7650
 5.9260	 3.7350
 5.9330	 3.7950
 5.9400	 3.7560
 5.9470	 3.8330
 5.9530	 3.8580
 5.9600	 3.8810
 5.9670	 3.9160
 5.9740	 3.9470
 5.9810	 3.8450
 5.9880	 3.8250
 5.9950	 3.8460
 6.0020	 3.9390
 6.0090	 3.8590
 6.0160	 3.8120
 6.0230	 3.7750
 6.0300	 3.8530
 6.0370	 3.9010
 6.0440	 3.9140
 6.0510	 3.8550
 6.0580	 3.9120
 6.0650	 3.8870
 6.0720	 3.9620
 6.0790	 3.9540
 6.0860	 4.0480
 6.0930	 4.1430
 6.1000	 4.2670
 6.1080	 4.1820
 6.1150	 4.2020
 6.1220	 4.3080
 6.1290	 4.5060
 6.1370	 4.6050
 6.1440	 4.8250
 6.1510	 4.9190
 6.1580	 5.1260
 6.1660	 5.2140
 6.1730	 5.1870
 6.1800	 5.1470
 6.1880	 5.1600
 6.1950	 4.9700
 6.2030	 4.7390
 6.2100	 4.5650
 6.2170	 4.5240
 6.2250	 4.4150
 6.2320	 4.3840
 6.2400	 4.2870
 6.2470	 4.2880
 6.2550	 4.1850
 6.2630	 4.0930
 6.2700	 3.9860
 6.2780	 4.0440
 6.2850	 4.0860
 6.2930	 4.0570
 6.3010	 3.8680
 6.3080	 3.8550
 6.3160	 3.7840
 6.3240	 3.8620
 6.3310	 3.8100
 6.3390	 3.7990
 6.3470	 3.6830
 6.3550	 3.7250
 6.3620	 3.7150
 6.3700	 3.6520
 6.3780	 3.5220
 6.3860	 3.5740
 6.3940	 3.5320
 6.4020	 3.5380
 6.4100	 3.6360
 6.4180	 3.7290
 6.4260	 3.5900
 6.4330	 3.5750
 6.4410	 3.5020
 6.4490	 3.4750
 6.4580	 3.4020
 6.4660	 3.4530
 6.4740	 3.4240
 6.4820	 3.4900
 6.4900	 3.4250
 6.4980	 3.4250
 6.5060	 3.3870
 6.5140	 3.3820
 6.5230	 3.2840
 6.5310	 3.3680
 6.5390	 3.3450
 6.5470	 3.3180
 6.5550	 3.2250
 6.5640	 3.2680
 6.5720	 3.2130
 6.5800	 3.2030
 6.5890	 3.0900
 6.5970	 3.0790
 6.6060	 3.1070
 6.6140	 3.2640
 6.6220	 3.2900
 6.6310	 3.3130
 6.6390	 3.2720
 6.6480	 3.3160
 6.6560	 3.2400
 6.6650	 3.2110
 6.6740	 3.1480
 6.6820	 3.1370
 6.6910	 3.0770
 6.6990	 3.1260
 6.7080	 3.0810
 6.7170	 3.0890
 6.7260	 3.0250
 6.7340	 3.0080
 6.7430	 2.8050
 6.7520	 2.7490
 6.7610	 2.6970
 6.7690	 2.8540
 6.7780	 3.0470
 6.7870	 3.3170
 6.7960	 3.4030
 6.8050	 3.3950
 6.8140	 3.2100
 6.8230	 3.2830
 6.8320	 3.5630
 6.8410	 3.8130
 6.8500	 3.6310
 6.8590	 3.5940
 6.8680	 3.4550
 6.8770	 3.3890
 6.8860	 3.3490
 6.8950	 3.4090
 6.9050	 3.3670
 6.9140	 3.3910
 6.9230	 3.3150
 6.9320	 3.3720
 6.9420	 3.3470
 6.9510	 3.3600
 6.9600	 3.2430
 6.9700	 3.2170
 6.9790	 3.1780
 6.9880	 3.3180
 6.9980	 3.2630
 7.0070	 3.2540
 7.0170	 3.1970
 7.0260	 3.2660
 7.0360	 3.1910
 7.0450	 3.1810
 7.0550	 3.1580
 7.0650	 3.3440
 7.0740	 3.4170
 7.0840	 3.5140
 7.0940	 3.5130
 7.1030	 3.5870
 7.1130	 3.4040
 7.1230	 3.3440
 7.1330	 3.3010
 7.1420	 3.3640
 7.1520	 3.3070
 7.1620	 3.3120
 7.1720	 3.2960
 7.1820	 3.4050
 7.1920	 3.3850
 7.2020	 3.4220
 7.2120	 3.3860
 7.2220	 3.4200
 7.2320	 3.3740
 7.2420	 3.4360
 7.2520	 3.3250
 7.2620	 3.3510
 7.2730	 3.2290
 7.2830	 3.3050
 7.2930	 3.2450
 7.3030	 3.2640
 7.3140	 3.2990
 7.3240	 3.3410
 7.3340	 3.2200
 7.3450	 3.3010
 7.3550	 3.2430
 7.3660	 3.2820
 7.3760	 3.2340
 7.3870	 3.2400
 7.3970	 3.1880
 7.4080	 3.3150
 7.4180	 3.2530
 7.4290	 3.2920
 7.4400	 3.2260
 7.4500	 3.2900
 7.4610	 3.2380
 7.4720	 3.3420
 7.4830	 3.3830
 7.4930	 3.5560
 7.5040	 3.4990
 7.5150	 3.5590
 7.5260	 3.6280
 7.5370	 3.7690
 7.5480	 3.7310
 7.5590	 3.9030
 7.5700	 4.0470
 7.5810	 4.2240
 7.5920	 4.1760
 7.6030	 4.0890
 7.6140	 3.8090
 7.6260	 3.6750
 7.6370	 3.4420
 7.6480	 3.3970
 7.6590	 3.2760
 7.6710	 3.2690
 7.6820	 3.1510
 7.6930	 3.2470
 7.7050	 3.2250
 7.7160	 3.2050
 7.7280	 3.0790
 7.7390	 3.1310
 7.7510	 3.0280
 7.7630	 3.0450
 7.7740	 2.9090
 7.7860	 2.9700
 7.7980	 2.9540
 7.8090	 2.9590
 7.8210	 2.8600
 7.8330	 3.0260
 7.8450	 3.0000
 7.8570	 3.1060
 7.8690	 3.0830
 7.8810	 2.9980
 7.8930	 2.8460
 7.9050	 2.9120
 7.9170	 2.8300
 7.9290	 2.9730
 7.9410	 2.9260
 7.9530	 2.9320
 7.9650	 2.8290
 7.9780	 2.9980
 7.9900	 2.9830
 8.0020	 3.0120
 8.0150	 2.9590
 8.0270	 3.0040
 8.0390	 2.8510
 8.0520	 3.0080
 8.0640	 2.9080
 8.0770	 2.9800
 8.0900	 2.9920
 8.1020	 3.0860
 8.1150	 3.0040
 8.1280	 3.1440
 8.1400	 3.0470
 8.1530	 3.0390
 8.1660	 2.9520
 8.1790	 3.1830
 8.1920	 3.1440
 8.2050	 3.1280
 8.2180	 2.9420
 8.2310	 3.1690
 8.2440	 3.1500
 8.2570	 3.2440
 8.2700	 3.1540
 8.2830	 3.1170
 8.2970	 3.0370
 8.3100	 3.1950
 8.3230	 3.0810
 8.3370	 3.1730
 8.3500	 3.0980
 8.3640	 3.2060
 8.3770	 3.0950
 8.3910	 3.2390
 8.4040	 3.1450
 8.4180	 3.1620
 8.4320	 3.0220
 8.4450	 3.1070
 8.4590	 2.9620
 8.4730	 3.0930
 8.4870	 2.9310
 8.5010	 2.9000
 8.5150	 2.9070
 8.5290	 3.1070
 8.5430	 3.0580
 8.5570	 3.1570
 8.5710	 3.0870
 8.5850	 3.2320
 8.5990	 3.2570
 8.6140	 3.3550
 8.6280	 3.2000
 8.6420	 3.2550
 8.6570	 3.0860
 8.6710	 3.3240
 8.6860	 3.4000
 8.7000	 3.5010
 8.7150	 3.3060
 8.7300	 3.3010
 8.7440	 3.0480
 8.7590	 3.1140
 8.7740	 3.0650
 8.7890	 3.2560
 8.8040	 3.1180
 8.8190	 3.2520
 8.8340	 3.0710
 8.8490	 3.0530
 8.8640	 2.9730
 8.8790	 3.2380
 8.8940	 3.1810
 8.9100	 3.2950
 8.9250	 3.1560
 8.9400	 3.2120
 8.9560	 3.0620
 8.9710	 3.2560
 8.9870	 3.3500
 9.0020	 3.4030
 9.0180	 3.0970
 9.0340	 3.2250
 9.0500	 3.1710
 9.0650	 3.2550
 9.0810	 3.0840
 9.0970	 3.3050
 9.1130	 3.2490
 9.1290	 3.4260
 9.1450	 3.2950
 9.1610	 3.3670
 9.1780	 3.2400
 9.1940	 3.3450
 9.2100	 3.2090
 9.2270	 3.2140
 9.2430	 3.1050
 9.2600	 3.2920
 9.2760	 3.2220
 9.2930	 3.4320
 9.3090	 3.2880
 9.3260	 3.3300
 9.3430	 3.1270
 9.3600	 3.4330
 9.3770	 3.2250
 9.3940	 3.3300
 9.4110	 3.4050
 9.4280	 3.6180
 9.4450	 3.2570
 9.4620	 3.3010
 9.4800	 3.3340
 9.4970	 3.5050
 9.5140	 3.2660
 9.5320	 3.3800
 9.5500	 3.1880
 9.5670	 3.3430
 9.5850	 3.2940
 9.6030	 3.5320
 9.6200	 3.5160
 9.6380	 3.5850
 9.6560	 3.3870
 9.6740	 3.5550
 9.6920	 3.4390
 9.7100	 3.4750
 9.7290	 3.2710
 9.7470	 3.5680
 9.7650	 3.4580
 9.7840	 3.5000
 9.8020	 3.4000
 9.8210	 3.4800
 9.8390	 3.2460
 9.8580	 3.4930
 9.8770	 3.4060
 9.8960	 3.5330
 9.9150	 3.4180
 9.9340	 3.4670
 9.9530	 3.3200
 9.9720	 3.5160
 9.9910	 3.3660
10.0100	 3.4280
10.0300	 3.2250
10.0490	 3.3590
10.0690	 3.2910
10.0880	 3.3830
10.1080	 3.2040
10.1280	 3.4140
10.1480	 3.2470
10.1670	 3.3900
10.1870	 3.3120
10.2070	 3.3900
10.2280	 3.1280
10.2480	 3.3540
10.2680	 3.2680
10.2890	 3.3110
10.3090	 3.1360
10.3300	 3.3080
10.3500	 3.2060
10.3710	 3.3690
10.3920	 3.2440
10.4120	 3.4900
10.4330	 3.4280
10.4540	 3.4700
10.4760	 3.2410
10.4970	 3.4590
10.5180	 3.2140
10.5390	 3.2620
10.5610	 3.1950
10.5820	 3.3590
10.6040	 3.2740
10.6260	 3.4610
10.6480	 3.3440
10.6700	 3.4150
10.6920	 3.2290
10.7140	 3.3700
10.7360	 3.1370
10.7580	 3.1870
10.7800	 3.0260
10.8030	 3.2290
10.8250	 3.1830
10.8480	 3.4080
10.8710	 3.2700
10.8940	 3.3590
10.9170	 3.1960
10.9400	 3.5080
10.9630	 3.3240
10.9860	 3.3940
11.0090	 3.1660
11.0330	 3.3420
11.0560	 3.2520
11.0800	 3.4160
11.1040	 2.9060
11.1270	 3.0090
11.1510	 3.1020
11.1750	 3.1530
11.2000	 2.9580
11.2240	 3.2940
11.2480	 3.1680
11.2730	 3.4830
11.2970	 3.4810
11.3220	 3.3950
11.3470	 3.0170
11.3720	 3.3090
11.3970	 3.3180
11.4220	 3.5290
11.4470	 3.2540
11.4720	 3.2370
11.4980	 3.0080
11.5230	 3.2580
11.5490	 3.3090
11.5750	 3.4800
11.6000	 3.1310
11.6260	 3.1940
11.6530	 3.0460
11.6790	 3.3180
11.7050	 3.2190
11.7320	 3.2890
11.7580	 2.9880
11.7850	 3.1710
11.8120	 2.9490
11.8390	 3.1570
11.8660	 3.1250
11.8930	 3.1710
11.9200	 2.9300
11.9480	 3.1390
11.9760	 2.8780
12.0030	 3.2410
12.0310	 3.0170
12.0590	 3.1260
12.0870	 2.9080
12.1150	 3.1290
12.1440	 3.0710
12.1720	 3.2470
12.2010	 3.0920
12.2300	 3.4810
12.2590	 3.1800
12.2880	 3.2520
12.3170	 3.0230
12.3460	 3.3730
12.3760	 3.2010
12.4050	 3.2930
12.4350	 3.0830
12.4650	 3.3250
12.4950	 3.0310
12.5250	 3.2750
12.5550	 3.1020
12.5860	 3.2380
12.6170	 3.0500
12.6470	 3.3060
12.6780	 3.1240
12.7090	 3.3450
12.7410	 2.9100
12.7720	 3.0030
12.8030	 2.7460
12.8350	 2.9870
12.8670	 2.6080
12.8990	 2.8470
12.9310	 2.7670
12.9640	 3.0790
12.9960	 2.8650
13.0290	 3.0270
13.0610	 2.7130
13.0940	 3.0120
13.1280	 2.8870
13.1610	 3.1830
13.1940	 2.8420
13.2280	 3.1150
13.2620	 2.7910
13.2960	 2.9830
13.3300	 2.7790
13.3640	 3.0790
13.3990	 2.6940
13.4340	 2.8860
13.4690	 2.4980
13.5040	 2.7340
13.5390	 2.3730
13.5740	 2.8470
13.6100	 2.9030
13.6460	 3.3090
13.6820	 2.9900
13.7180	 3.1780
13.7540	 2.5850
13.7910	 3.0270
13.8280	 3.0050
13.8650	 3.4700
13.9020	 3.4730
13.9390	 3.9420
13.9770	 3.4560
14.0150	 3.6220
14.0530	 3.2990
14.0910	 3.6100
14.1290	 3.2760
14.1680	 3.5800
14.2070	 3.2300
14.2460	 3.3920
14.2850	 2.7180
14.3240	 3.1680
14.3640	 2.9390
14.4040	 3.3350
14.4440	 3.0440
14.4840	 3.3730
14.5250	 2.8430
14.5660	 3.3690
14.6070	 2.8820
14.6480	 3.2350
14.6900	 2.8240
14.7310	 3.0780
14.7730	 2.5820
14.8150	 3.2940
14.8580	 2.8360
14.9010	 3.2880
14.9440	 2.6400
14.9870	 3.7700
15.0300	 2.7960
15.0740	 3.0140
15.1180	 2.3860
15.1620	 3.2720
15.2060	 2.5800
15.2510	 3.4140
15.2960	 3.1720
15.3410	 3.7410
15.3870	 2.8480
