Name: Pinus ponderosa 3
Type: vegetation
Class: Tree
Genus: Pinus
Species: ponderosa
Sample No.: VH261
Owner: UCSB
Wavelength Range: VSWIR
Origin: 37.043; -119.3048; WGS84
Collection Date: 11/2/2013
Description: Samples were collected as part of the HyspIRI Airborne Campaign. 48 individual plants were sampled in three times in 2013 - spring  summer  and fall. The name of the sample includes a 1  2  or 3 which references a different individual of the species. Samples were taken to JPL and processed within 48 hours of collection. The same leaves were processed in the Nicolet and then measured using the ASD.
Measurement: Bidirectional reflectance
First Column: X
Second Column: Y
X Units: Wavelength (micrometers)
Y Units: Reflectance (percentage)
First X Value: 0.35
Last X Value: 2.5
Number of X Values: 2151
Additional Information: vegetation.tree.pinus.ponderosa.vswir.vh261.ucsb.asd.ancillary.txt

 0.3500	 5.7990
 0.3510	 5.6630
 0.3520	 5.5200
 0.3530	 5.5170
 0.3540	 5.6630
 0.3550	 5.5350
 0.3560	 5.5670
 0.3570	 5.6180
 0.3580	 5.3450
 0.3590	 5.4060
 0.3600	 5.5170
 0.3610	 5.4900
 0.3620	 5.3970
 0.3630	 5.3500
 0.3640	 5.2860
 0.3650	 5.1740
 0.3660	 5.2930
 0.3670	 5.3510
 0.3680	 5.3040
 0.3690	 5.2860
 0.3700	 5.2310
 0.3710	 5.2820
 0.3720	 5.4340
 0.3730	 5.3770
 0.3740	 5.3100
 0.3750	 5.2660
 0.3760	 5.2410
 0.3770	 5.2950
 0.3780	 5.2970
 0.3790	 5.2360
 0.3800	 5.2010
 0.3810	 5.1850
 0.3820	 5.1740
 0.3830	 5.1690
 0.3840	 5.2200
 0.3850	 5.1830
 0.3860	 5.1400
 0.3870	 5.2080
 0.3880	 5.2100
 0.3890	 5.2000
 0.3900	 5.1960
 0.3910	 5.1690
 0.3920	 5.1860
 0.3930	 5.2020
 0.3940	 5.1800
 0.3950	 5.1430
 0.3960	 5.1350
 0.3970	 5.1500
 0.3980	 5.1650
 0.3990	 5.1930
 0.4000	 5.1880
 0.4010	 5.1530
 0.4020	 5.1670
 0.4030	 5.1560
 0.4040	 5.1590
 0.4050	 5.2130
 0.4060	 5.2700
 0.4070	 5.2700
 0.4080	 5.2410
 0.4090	 5.2590
 0.4100	 5.2820
 0.4110	 5.3010
 0.4120	 5.3200
 0.4130	 5.3590
 0.4140	 5.3800
 0.4150	 5.4070
 0.4160	 5.4680
 0.4170	 5.5200
 0.4180	 5.5770
 0.4190	 5.6310
 0.4200	 5.6470
 0.4210	 5.6880
 0.4220	 5.7430
 0.4230	 5.7980
 0.4240	 5.8580
 0.4250	 5.9050
 0.4260	 5.9520
 0.4270	 6.0200
 0.4280	 6.0720
 0.4290	 6.1200
 0.4300	 6.1730
 0.4310	 6.2170
 0.4320	 6.2710
 0.4330	 6.3130
 0.4340	 6.3330
 0.4350	 6.3810
 0.4360	 6.4230
 0.4370	 6.4640
 0.4380	 6.5350
 0.4390	 6.5900
 0.4400	 6.6210
 0.4410	 6.6420
 0.4420	 6.6840
 0.4430	 6.7290
 0.4440	 6.7680
 0.4450	 6.7960
 0.4460	 6.8280
 0.4470	 6.8540
 0.4480	 6.8790
 0.4490	 6.9270
 0.4500	 6.9650
 0.4510	 6.9880
 0.4520	 7.0030
 0.4530	 7.0260
 0.4540	 7.0550
 0.4550	 7.0860
 0.4560	 7.1110
 0.4570	 7.1330
 0.4580	 7.1510
 0.4590	 7.1640
 0.4600	 7.1730
 0.4610	 7.1850
 0.4620	 7.2010
 0.4630	 7.2170
 0.4640	 7.2230
 0.4650	 7.2400
 0.4660	 7.2620
 0.4670	 7.2600
 0.4680	 7.2700
 0.4690	 7.2800
 0.4700	 7.2800
 0.4710	 7.3010
 0.4720	 7.3100
 0.4730	 7.3080
 0.4740	 7.3170
 0.4750	 7.3220
 0.4760	 7.3300
 0.4770	 7.3400
 0.4780	 7.3400
 0.4790	 7.3400
 0.4800	 7.3440
 0.4810	 7.3520
 0.4820	 7.3470
 0.4830	 7.3490
 0.4840	 7.3600
 0.4850	 7.3690
 0.4860	 7.3720
 0.4870	 7.3780
 0.4880	 7.3900
 0.4890	 7.4040
 0.4900	 7.4150
 0.4910	 7.4290
 0.4920	 7.4590
 0.4930	 7.4810
 0.4940	 7.5100
 0.4950	 7.5470
 0.4960	 7.5810
 0.4970	 7.6210
 0.4980	 7.6650
 0.4990	 7.7090
 0.5000	 7.7620
 0.5010	 7.8230
 0.5020	 7.8900
 0.5030	 7.9610
 0.5040	 8.0430
 0.5050	 8.1330
 0.5060	 8.2320
 0.5070	 8.3410
 0.5080	 8.4570
 0.5090	 8.5850
 0.5100	 8.7290
 0.5110	 8.8790
 0.5120	 9.0430
 0.5130	 9.2220
 0.5140	 9.4110
 0.5150	 9.6120
 0.5160	 9.8260
 0.5170	10.0540
 0.5180	10.2920
 0.5190	10.5430
 0.5200	10.8030
 0.5210	11.0640
 0.5220	11.3260
 0.5230	11.5890
 0.5240	11.8480
 0.5250	12.1010
 0.5260	12.3450
 0.5270	12.5840
 0.5280	12.8200
 0.5290	13.0390
 0.5300	13.2430
 0.5310	13.4330
 0.5320	13.6150
 0.5330	13.7810
 0.5340	13.9320
 0.5350	14.0690
 0.5360	14.2010
 0.5370	14.3210
 0.5380	14.4290
 0.5390	14.5260
 0.5400	14.6090
 0.5410	14.6890
 0.5420	14.7700
 0.5430	14.8380
 0.5440	14.9050
 0.5450	14.9760
 0.5460	15.0530
 0.5470	15.1430
 0.5480	15.2300
 0.5490	15.2990
 0.5500	15.3510
 0.5510	15.3960
 0.5520	15.4270
 0.5530	15.4390
 0.5540	15.4460
 0.5550	15.4330
 0.5560	15.3960
 0.5570	15.3410
 0.5580	15.2660
 0.5590	15.1780
 0.5600	15.0820
 0.5610	14.9790
 0.5620	14.8700
 0.5630	14.7540
 0.5640	14.6310
 0.5650	14.4970
 0.5660	14.3590
 0.5670	14.2160
 0.5680	14.0610
 0.5690	13.9020
 0.5700	13.7370
 0.5710	13.5690
 0.5720	13.4070
 0.5730	13.2540
 0.5740	13.1080
 0.5750	12.9680
 0.5760	12.8330
 0.5770	12.7060
 0.5780	12.5890
 0.5790	12.4740
 0.5800	12.3710
 0.5810	12.2780
 0.5820	12.1890
 0.5830	12.1020
 0.5840	12.0140
 0.5850	11.9300
 0.5860	11.8590
 0.5870	11.7980
 0.5880	11.7440
 0.5890	11.6960
 0.5900	11.6550
 0.5910	11.6130
 0.5920	11.5720
 0.5930	11.5380
 0.5940	11.5010
 0.5950	11.4670
 0.5960	11.4410
 0.5970	11.4160
 0.5980	11.3840
 0.5990	11.3490
 0.6000	11.3150
 0.6010	11.2710
 0.6020	11.2230
 0.6030	11.1710
 0.6040	11.1130
 0.6050	11.0470
 0.6060	10.9730
 0.6070	10.8940
 0.6080	10.8140
 0.6090	10.7230
 0.6100	10.6190
 0.6110	10.5070
 0.6120	10.4260
 0.6130	10.3510
 0.6140	10.2670
 0.6150	10.1870
 0.6160	10.1090
 0.6170	10.0390
 0.6180	 9.9770
 0.6190	 9.9130
 0.6200	 9.8560
 0.6210	 9.8090
 0.6220	 9.7690
 0.6230	 9.7320
 0.6240	 9.7020
 0.6250	 9.6790
 0.6260	 9.6600
 0.6270	 9.6460
 0.6280	 9.6360
 0.6290	 9.6260
 0.6300	 9.6190
 0.6310	 9.6140
 0.6320	 9.6100
 0.6330	 9.6040
 0.6340	 9.5850
 0.6350	 9.5560
 0.6360	 9.5230
 0.6370	 9.4790
 0.6380	 9.4250
 0.6390	 9.3610
 0.6400	 9.2910
 0.6410	 9.2160
 0.6420	 9.1390
 0.6430	 9.0600
 0.6440	 8.9680
 0.6450	 8.8810
 0.6460	 8.7960
 0.6470	 8.7080
 0.6480	 8.6280
 0.6490	 8.5530
 0.6500	 8.4850
 0.6510	 8.4290
 0.6520	 8.3780
 0.6530	 8.3220
 0.6540	 8.2600
 0.6550	 8.2010
 0.6560	 8.1390
 0.6570	 8.0680
 0.6580	 7.9890
 0.6590	 7.9110
 0.6600	 7.8280
 0.6610	 7.7410
 0.6620	 7.6580
 0.6630	 7.5790
 0.6640	 7.5060
 0.6650	 7.4390
 0.6660	 7.3810
 0.6670	 7.3270
 0.6680	 7.2810
 0.6690	 7.2470
 0.6700	 7.2170
 0.6710	 7.1950
 0.6720	 7.1800
 0.6730	 7.1680
 0.6740	 7.1610
 0.6750	 7.1600
 0.6760	 7.1640
 0.6770	 7.1660
 0.6780	 7.1800
 0.6790	 7.2030
 0.6800	 7.2270
 0.6810	 7.2640
 0.6820	 7.3140
 0.6830	 7.3780
 0.6840	 7.4570
 0.6850	 7.5630
 0.6860	 7.6980
 0.6870	 7.8690
 0.6880	 8.0820
 0.6890	 8.3460
 0.6900	 8.6690
 0.6910	 9.0550
 0.6920	 9.5050
 0.6930	10.0200
 0.6940	10.6070
 0.6950	11.2670
 0.6960	11.9900
 0.6970	12.7730
 0.6980	13.6120
 0.6990	14.4980
 0.7000	15.4330
 0.7010	16.4100
 0.7020	17.4160
 0.7030	18.4440
 0.7040	19.4920
 0.7050	20.5580
 0.7060	21.6340
 0.7070	22.7190
 0.7080	23.8120
 0.7090	24.9160
 0.7100	26.0290
 0.7110	27.1450
 0.7120	28.2630
 0.7130	29.3860
 0.7140	30.5110
 0.7150	31.6370
 0.7160	32.7600
 0.7170	33.8850
 0.7180	35.0110
 0.7190	36.1300
 0.7200	37.2360
 0.7210	38.3280
 0.7220	39.4070
 0.7230	40.4710
 0.7240	41.5090
 0.7250	42.5240
 0.7260	43.5120
 0.7270	44.4720
 0.7280	45.3970
 0.7290	46.2910
 0.7300	47.1470
 0.7310	47.9570
 0.7320	48.7400
 0.7330	49.4880
 0.7340	50.1980
 0.7350	50.8710
 0.7360	51.5130
 0.7370	52.1150
 0.7380	52.6760
 0.7390	53.2120
 0.7400	53.7230
 0.7410	54.2050
 0.7420	54.6470
 0.7430	55.0570
 0.7440	55.4460
 0.7450	55.8130
 0.7460	56.1440
 0.7470	56.4490
 0.7480	56.7340
 0.7490	57.0020
 0.7500	57.2560
 0.7510	57.4730
 0.7520	57.6570
 0.7530	57.8230
 0.7540	58.0020
 0.7550	58.1610
 0.7560	58.2900
 0.7570	58.4040
 0.7580	58.5200
 0.7590	58.6300
 0.7600	58.7270
 0.7610	58.8030
 0.7620	58.8770
 0.7630	58.9460
 0.7640	59.0010
 0.7650	59.0550
 0.7660	59.1060
 0.7670	59.1500
 0.7680	59.1820
 0.7690	59.2170
 0.7700	59.2450
 0.7710	59.2670
 0.7720	59.2960
 0.7730	59.3140
 0.7740	59.3320
 0.7750	59.3620
 0.7760	59.3810
 0.7770	59.3960
 0.7780	59.4110
 0.7790	59.4250
 0.7800	59.4340
 0.7810	59.4450
 0.7820	59.4600
 0.7830	59.4750
 0.7840	59.4750
 0.7850	59.4850
 0.7860	59.5110
 0.7870	59.5130
 0.7880	59.5180
 0.7890	59.5270
 0.7900	59.5350
 0.7910	59.5530
 0.7920	59.5600
 0.7930	59.5570
 0.7940	59.5650
 0.7950	59.5810
 0.7960	59.5960
 0.7970	59.6050
 0.7980	59.6050
 0.7990	59.6130
 0.8000	59.6170
 0.8010	59.6150
 0.8020	59.6360
 0.8030	59.6480
 0.8040	59.6510
 0.8050	59.6610
 0.8060	59.6710
 0.8070	59.6830
 0.8080	59.6920
 0.8090	59.6900
 0.8100	59.6910
 0.8110	59.7030
 0.8120	59.7220
 0.8130	59.7300
 0.8140	59.7440
 0.8150	59.7590
 0.8160	59.7640
 0.8170	59.7690
 0.8180	59.7810
 0.8190	59.7940
 0.8200	59.7990
 0.8210	59.8010
 0.8220	59.8120
 0.8230	59.8280
 0.8240	59.8340
 0.8250	59.8470
 0.8260	59.8600
 0.8270	59.8630
 0.8280	59.8540
 0.8290	59.8500
 0.8300	59.8490
 0.8310	59.8480
 0.8320	59.8520
 0.8330	59.8640
 0.8340	59.8750
 0.8350	59.8810
 0.8360	59.8890
 0.8370	59.8990
 0.8380	59.9100
 0.8390	59.9250
 0.8400	59.9410
 0.8410	59.9560
 0.8420	59.9660
 0.8430	59.9660
 0.8440	59.9870
 0.8450	60.0220
 0.8460	60.0520
 0.8470	60.0450
 0.8480	60.0540
 0.8490	60.0740
 0.8500	60.0880
 0.8510	60.0930
 0.8520	60.1080
 0.8530	60.1290
 0.8540	60.1430
 0.8550	60.1460
 0.8560	60.1440
 0.8570	60.1500
 0.8580	60.1810
 0.8590	60.1940
 0.8600	60.1980
 0.8610	60.2060
 0.8620	60.2220
 0.8630	60.2160
 0.8640	60.2070
 0.8650	60.2150
 0.8660	60.2260
 0.8670	60.2320
 0.8680	60.2300
 0.8690	60.2240
 0.8700	60.2360
 0.8710	60.2380
 0.8720	60.2330
 0.8730	60.2400
 0.8740	60.2520
 0.8750	60.2520
 0.8760	60.2420
 0.8770	60.2440
 0.8780	60.2470
 0.8790	60.2420
 0.8800	60.2270
 0.8810	60.2120
 0.8820	60.1980
 0.8830	60.1940
 0.8840	60.2030
 0.8850	60.2030
 0.8860	60.1810
 0.8870	60.1520
 0.8880	60.1370
 0.8890	60.1360
 0.8900	60.1280
 0.8910	60.1130
 0.8920	60.1040
 0.8930	60.0950
 0.8940	60.0770
 0.8950	60.0560
 0.8960	60.0430
 0.8970	60.0320
 0.8980	60.0170
 0.8990	59.9970
 0.9000	59.9780
 0.9010	59.9500
 0.9020	59.9300
 0.9030	59.9180
 0.9040	59.8860
 0.9050	59.8830
 0.9060	59.8750
 0.9070	59.8450
 0.9080	59.8280
 0.9090	59.8100
 0.9100	59.7870
 0.9110	59.7570
 0.9120	59.7170
 0.9130	59.6900
 0.9140	59.6750
 0.9150	59.6610
 0.9160	59.6240
 0.9170	59.5880
 0.9180	59.5600
 0.9190	59.5320
 0.9200	59.5010
 0.9210	59.4640
 0.9220	59.4280
 0.9230	59.4010
 0.9240	59.3560
 0.9250	59.2900
 0.9260	59.2310
 0.9270	59.2140
 0.9280	59.1520
 0.9290	59.0880
 0.9300	59.0350
 0.9310	58.9690
 0.9320	58.9080
 0.9330	58.8440
 0.9340	58.7680
 0.9350	58.6770
 0.9360	58.5990
 0.9370	58.5290
 0.9380	58.4550
 0.9390	58.3680
 0.9400	58.2660
 0.9410	58.1680
 0.9420	58.0810
 0.9430	57.9840
 0.9440	57.8640
 0.9450	57.7410
 0.9460	57.6300
 0.9470	57.5170
 0.9480	57.3790
 0.9490	57.2250
 0.9500	57.0690
 0.9510	56.8980
 0.9520	56.7020
 0.9530	56.5100
 0.9540	56.3450
 0.9550	56.1630
 0.9560	55.9800
 0.9570	55.7980
 0.9580	55.6270
 0.9590	55.4960
 0.9600	55.3580
 0.9610	55.2280
 0.9620	55.1340
 0.9630	55.0380
 0.9640	54.9630
 0.9650	54.8970
 0.9660	54.8230
 0.9670	54.7660
 0.9680	54.7220
 0.9690	54.6930
 0.9700	54.6730
 0.9710	54.6190
 0.9720	54.5710
 0.9730	54.5450
 0.9740	54.5400
 0.9750	54.5240
 0.9760	54.5080
 0.9770	54.5010
 0.9780	54.5110
 0.9790	54.5210
 0.9800	54.5270
 0.9810	54.5330
 0.9820	54.5450
 0.9830	54.5610
 0.9840	54.5870
 0.9850	54.6300
 0.9860	54.6860
 0.9870	54.7220
 0.9880	54.7450
 0.9890	54.7770
 0.9900	54.8390
 0.9910	54.9150
 0.9920	54.9680
 0.9930	55.0100
 0.9940	55.0740
 0.9950	55.1340
 0.9960	55.2020
 0.9970	55.2670
 0.9980	55.3160
 0.9990	55.3730
 1.0000	55.4040
 1.0010	55.3420
 1.0020	55.3830
 1.0030	55.4560
 1.0040	55.5300
 1.0050	55.6050
 1.0060	55.6750
 1.0070	55.7450
 1.0080	55.8180
 1.0090	55.8930
 1.0100	55.9690
 1.0110	56.0490
 1.0120	56.1250
 1.0130	56.1960
 1.0140	56.2710
 1.0150	56.3460
 1.0160	56.4210
 1.0170	56.4950
 1.0180	56.5690
 1.0190	56.6390
 1.0200	56.7130
 1.0210	56.7890
 1.0220	56.8620
 1.0230	56.9330
 1.0240	57.0010
 1.0250	57.0670
 1.0260	57.1270
 1.0270	57.1940
 1.0280	57.2670
 1.0290	57.3320
 1.0300	57.3980
 1.0310	57.4600
 1.0320	57.5130
 1.0330	57.5670
 1.0340	57.6230
 1.0350	57.6740
 1.0360	57.7280
 1.0370	57.7800
 1.0380	57.8280
 1.0390	57.8750
 1.0400	57.9230
 1.0410	57.9670
 1.0420	58.0120
 1.0430	58.0590
 1.0440	58.1020
 1.0450	58.1440
 1.0460	58.1830
 1.0470	58.2190
 1.0480	58.2560
 1.0490	58.2930
 1.0500	58.3270
 1.0510	58.3600
 1.0520	58.3930
 1.0530	58.4250
 1.0540	58.4540
 1.0550	58.4830
 1.0560	58.5150
 1.0570	58.5410
 1.0580	58.5610
 1.0590	58.5850
 1.0600	58.6110
 1.0610	58.6310
 1.0620	58.6500
 1.0630	58.6680
 1.0640	58.6800
 1.0650	58.6940
 1.0660	58.7110
 1.0670	58.7240
 1.0680	58.7360
 1.0690	58.7450
 1.0700	58.7540
 1.0710	58.7610
 1.0720	58.7690
 1.0730	58.7780
 1.0740	58.7830
 1.0750	58.7860
 1.0760	58.7870
 1.0770	58.7840
 1.0780	58.7800
 1.0790	58.7760
 1.0800	58.7700
 1.0810	58.7640
 1.0820	58.7540
 1.0830	58.7410
 1.0840	58.7280
 1.0850	58.7120
 1.0860	58.6950
 1.0870	58.6760
 1.0880	58.6580
 1.0890	58.6350
 1.0900	58.6070
 1.0910	58.5810
 1.0920	58.5550
 1.0930	58.5260
 1.0940	58.4970
 1.0950	58.4660
 1.0960	58.4330
 1.0970	58.3990
 1.0980	58.3630
 1.0990	58.3270
 1.1000	58.2910
 1.1010	58.2520
 1.1020	58.2130
 1.1030	58.1720
 1.1040	58.1230
 1.1050	58.0770
 1.1060	58.0290
 1.1070	57.9790
 1.1080	57.9300
 1.1090	57.8860
 1.1100	57.8300
 1.1110	57.7690
 1.1120	57.7100
 1.1130	57.6490
 1.1140	57.5840
 1.1150	57.5230
 1.1160	57.4510
 1.1170	57.3730
 1.1180	57.2870
 1.1190	57.1940
 1.1200	57.0970
 1.1210	56.9950
 1.1220	56.8770
 1.1230	56.7540
 1.1240	56.6210
 1.1250	56.4720
 1.1260	56.3110
 1.1270	56.1350
 1.1280	55.9470
 1.1290	55.7410
 1.1300	55.5240
 1.1310	55.2840
 1.1320	55.0270
 1.1330	54.7540
 1.1340	54.4610
 1.1350	54.1550
 1.1360	53.8350
 1.1370	53.4990
 1.1380	53.1540
 1.1390	52.7990
 1.1400	52.4310
 1.1410	52.0640
 1.1420	51.6950
 1.1430	51.3240
 1.1440	50.9610
 1.1450	50.5980
 1.1460	50.2500
 1.1470	49.9030
 1.1480	49.5770
 1.1490	49.2620
 1.1500	48.9680
 1.1510	48.6860
 1.1520	48.4260
 1.1530	48.1830
 1.1540	47.9610
 1.1550	47.7580
 1.1560	47.5740
 1.1570	47.4090
 1.1580	47.2590
 1.1590	47.1280
 1.1600	47.0120
 1.1610	46.9070
 1.1620	46.8150
 1.1630	46.7330
 1.1640	46.6550
 1.1650	46.5870
 1.1660	46.5310
 1.1670	46.4760
 1.1680	46.4290
 1.1690	46.3830
 1.1700	46.3430
 1.1710	46.3010
 1.1720	46.2620
 1.1730	46.2220
 1.1740	46.1830
 1.1750	46.1430
 1.1760	46.1020
 1.1770	46.0600
 1.1780	46.0160
 1.1790	45.9720
 1.1800	45.9270
 1.1810	45.8840
 1.1820	45.8390
 1.1830	45.7920
 1.1840	45.7460
 1.1850	45.7010
 1.1860	45.6560
 1.1870	45.6130
 1.1880	45.5720
 1.1890	45.5300
 1.1900	45.4950
 1.1910	45.4630
 1.1920	45.4360
 1.1930	45.4160
 1.1940	45.3970
 1.1950	45.3800
 1.1960	45.3680
 1.1970	45.3590
 1.1980	45.3560
 1.1990	45.3590
 1.2000	45.3650
 1.2010	45.3720
 1.2020	45.3830
 1.2030	45.3970
 1.2040	45.4160
 1.2050	45.4410
 1.2060	45.4680
 1.2070	45.4990
 1.2080	45.5330
 1.2090	45.5680
 1.2100	45.6090
 1.2110	45.6520
 1.2120	45.6980
 1.2130	45.7480
 1.2140	45.8040
 1.2150	45.8610
 1.2160	45.9220
 1.2170	45.9850
 1.2180	46.0500
 1.2190	46.1160
 1.2200	46.1840
 1.2210	46.2560
 1.2220	46.3300
 1.2230	46.4010
 1.2240	46.4750
 1.2250	46.5490
 1.2260	46.6220
 1.2270	46.6960
 1.2280	46.7690
 1.2290	46.8410
 1.2300	46.9100
 1.2310	46.9770
 1.2320	47.0430
 1.2330	47.1050
 1.2340	47.1670
 1.2350	47.2270
 1.2360	47.2860
 1.2370	47.3440
 1.2380	47.4000
 1.2390	47.4530
 1.2400	47.5050
 1.2410	47.5560
 1.2420	47.6030
 1.2430	47.6510
 1.2440	47.6980
 1.2450	47.7410
 1.2460	47.7840
 1.2470	47.8260
 1.2480	47.8670
 1.2490	47.9100
 1.2500	47.9530
 1.2510	47.9910
 1.2520	48.0260
 1.2530	48.0580
 1.2540	48.0900
 1.2550	48.1210
 1.2560	48.1500
 1.2570	48.1770
 1.2580	48.2010
 1.2590	48.2240
 1.2600	48.2470
 1.2610	48.2640
 1.2620	48.2790
 1.2630	48.2910
 1.2640	48.3000
 1.2650	48.3070
 1.2660	48.3140
 1.2670	48.3170
 1.2680	48.3150
 1.2690	48.3100
 1.2700	48.3040
 1.2710	48.2960
 1.2720	48.2860
 1.2730	48.2740
 1.2740	48.2590
 1.2750	48.2400
 1.2760	48.2200
 1.2770	48.1960
 1.2780	48.1690
 1.2790	48.1420
 1.2800	48.1110
 1.2810	48.0760
 1.2820	48.0380
 1.2830	47.9950
 1.2840	47.9510
 1.2850	47.9060
 1.2860	47.8580
 1.2870	47.8050
 1.2880	47.7490
 1.2890	47.6880
 1.2900	47.6250
 1.2910	47.5570
 1.2920	47.4890
 1.2930	47.4150
 1.2940	47.3350
 1.2950	47.2500
 1.2960	47.1600
 1.2970	47.0660
 1.2980	46.9680
 1.2990	46.8670
 1.3000	46.7640
 1.3010	46.6560
 1.3020	46.5410
 1.3030	46.4200
 1.3040	46.2920
 1.3050	46.1580
 1.3060	46.0180
 1.3070	45.8710
 1.3080	45.7180
 1.3090	45.5570
 1.3100	45.3890
 1.3110	45.2180
 1.3120	45.0410
 1.3130	44.8590
 1.3140	44.6700
 1.3150	44.4740
 1.3160	44.2730
 1.3170	44.0670
 1.3180	43.8550
 1.3190	43.6390
 1.3200	43.4160
 1.3210	43.1830
 1.3220	42.9480
 1.3230	42.7080
 1.3240	42.4630
 1.3250	42.2180
 1.3260	41.9680
 1.3270	41.7130
 1.3280	41.4560
 1.3290	41.1910
 1.3300	40.9260
 1.3310	40.6600
 1.3320	40.3900
 1.3330	40.1250
 1.3340	39.8630
 1.3350	39.5970
 1.3360	39.3360
 1.3370	39.0740
 1.3380	38.8120
 1.3390	38.5540
 1.3400	38.2980
 1.3410	38.0480
 1.3420	37.8030
 1.3430	37.5610
 1.3440	37.3220
 1.3450	37.0880
 1.3460	36.8560
 1.3470	36.6310
 1.3480	36.4100
 1.3490	36.1950
 1.3500	35.9860
 1.3510	35.7780
 1.3520	35.5730
 1.3530	35.3710
 1.3540	35.1690
 1.3550	34.9700
 1.3560	34.7700
 1.3570	34.5700
 1.3580	34.3720
 1.3590	34.1710
 1.3600	33.9650
 1.3610	33.7560
 1.3620	33.5380
 1.3630	33.3130
 1.3640	33.0830
 1.3650	32.8420
 1.3660	32.5960
 1.3670	32.3370
 1.3680	32.0660
 1.3690	31.7850
 1.3700	31.4880
 1.3710	31.1780
 1.3720	30.8550
 1.3730	30.5110
 1.3740	30.1540
 1.3750	29.7790
 1.3760	29.3830
 1.3770	28.9690
 1.3780	28.5290
 1.3790	28.0680
 1.3800	27.5870
 1.3810	27.0820
 1.3820	26.5660
 1.3830	26.0340
 1.3840	25.4910
 1.3850	24.9310
 1.3860	24.3690
 1.3870	23.7910
 1.3880	23.2220
 1.3890	22.6510
 1.3900	22.0800
 1.3910	21.5220
 1.3920	20.9690
 1.3930	20.4210
 1.3940	19.8870
 1.3950	19.3600
 1.3960	18.8480
 1.3970	18.3560
 1.3980	17.8820
 1.3990	17.4320
 1.4000	17.0020
 1.4010	16.5900
 1.4020	16.2000
 1.4030	15.8290
 1.4040	15.4800
 1.4050	15.1510
 1.4060	14.8410
 1.4070	14.5550
 1.4080	14.2870
 1.4090	14.0360
 1.4100	13.8020
 1.4110	13.5830
 1.4120	13.3790
 1.4130	13.1910
 1.4140	13.0160
 1.4150	12.8560
 1.4160	12.7080
 1.4170	12.5700
 1.4180	12.4430
 1.4190	12.3260
 1.4200	12.2170
 1.4210	12.1180
 1.4220	12.0260
 1.4230	11.9430
 1.4240	11.8660
 1.4250	11.7940
 1.4260	11.7290
 1.4270	11.6680
 1.4280	11.6140
 1.4290	11.5640
 1.4300	11.5190
 1.4310	11.4780
 1.4320	11.4420
 1.4330	11.4090
 1.4340	11.3810
 1.4350	11.3560
 1.4360	11.3340
 1.4370	11.3150
 1.4380	11.3000
 1.4390	11.2870
 1.4400	11.2760
 1.4410	11.2680
 1.4420	11.2620
 1.4430	11.2560
 1.4440	11.2550
 1.4450	11.2550
 1.4460	11.2560
 1.4470	11.2590
 1.4480	11.2620
 1.4490	11.2660
 1.4500	11.2700
 1.4510	11.2760
 1.4520	11.2840
 1.4530	11.2930
 1.4540	11.3030
 1.4550	11.3160
 1.4560	11.3300
 1.4570	11.3460
 1.4580	11.3630
 1.4590	11.3800
 1.4600	11.4000
 1.4610	11.4220
 1.4620	11.4490
 1.4630	11.4790
 1.4640	11.5110
 1.4650	11.5460
 1.4660	11.5840
 1.4670	11.6240
 1.4680	11.6690
 1.4690	11.7170
 1.4700	11.7660
 1.4710	11.8200
 1.4720	11.8750
 1.4730	11.9320
 1.4740	11.9930
 1.4750	12.0530
 1.4760	12.1170
 1.4770	12.1840
 1.4780	12.2510
 1.4790	12.3230
 1.4800	12.3950
 1.4810	12.4680
 1.4820	12.5440
 1.4830	12.6200
 1.4840	12.6980
 1.4850	12.7790
 1.4860	12.8590
 1.4870	12.9410
 1.4880	13.0240
 1.4890	13.1070
 1.4900	13.1910
 1.4910	13.2750
 1.4920	13.3600
 1.4930	13.4460
 1.4940	13.5330
 1.4950	13.6220
 1.4960	13.7100
 1.4970	13.7980
 1.4980	13.8880
 1.4990	13.9780
 1.5000	14.0680
 1.5010	14.1620
 1.5020	14.2530
 1.5030	14.3450
 1.5040	14.4380
 1.5050	14.5280
 1.5060	14.6210
 1.5070	14.7140
 1.5080	14.8080
 1.5090	14.9030
 1.5100	14.9980
 1.5110	15.0930
 1.5120	15.1880
 1.5130	15.2820
 1.5140	15.3760
 1.5150	15.4700
 1.5160	15.5620
 1.5170	15.6550
 1.5180	15.7490
 1.5190	15.8400
 1.5200	15.9330
 1.5210	16.0250
 1.5220	16.1160
 1.5230	16.2080
 1.5240	16.2980
 1.5250	16.3890
 1.5260	16.4800
 1.5270	16.5710
 1.5280	16.6610
 1.5290	16.7490
 1.5300	16.8360
 1.5310	16.9240
 1.5320	17.0100
 1.5330	17.0980
 1.5340	17.1870
 1.5350	17.2740
 1.5360	17.3610
 1.5370	17.4480
 1.5380	17.5330
 1.5390	17.6200
 1.5400	17.7050
 1.5410	17.7900
 1.5420	17.8760
 1.5430	17.9600
 1.5440	18.0460
 1.5450	18.1300
 1.5460	18.2120
 1.5470	18.2950
 1.5480	18.3780
 1.5490	18.4620
 1.5500	18.5470
 1.5510	18.6300
 1.5520	18.7130
 1.5530	18.7930
 1.5540	18.8730
 1.5550	18.9550
 1.5560	19.0340
 1.5570	19.1140
 1.5580	19.1920
 1.5590	19.2690
 1.5600	19.3470
 1.5610	19.4240
 1.5620	19.5010
 1.5630	19.5780
 1.5640	19.6530
 1.5650	19.7300
 1.5660	19.8040
 1.5670	19.8780
 1.5680	19.9540
 1.5690	20.0260
 1.5700	20.0980
 1.5710	20.1710
 1.5720	20.2420
 1.5730	20.3140
 1.5740	20.3860
 1.5750	20.4560
 1.5760	20.5280
 1.5770	20.5980
 1.5780	20.6670
 1.5790	20.7360
 1.5800	20.8050
 1.5810	20.8740
 1.5820	20.9430
 1.5830	21.0130
 1.5840	21.0840
 1.5850	21.1540
 1.5860	21.2240
 1.5870	21.2950
 1.5880	21.3650
 1.5890	21.4370
 1.5900	21.5070
 1.5910	21.5750
 1.5920	21.6430
 1.5930	21.7100
 1.5940	21.7790
 1.5950	21.8500
 1.5960	21.9210
 1.5970	21.9910
 1.5980	22.0610
 1.5990	22.1290
 1.6000	22.1980
 1.6010	22.2660
 1.6020	22.3350
 1.6030	22.4050
 1.6040	22.4740
 1.6050	22.5430
 1.6060	22.6110
 1.6070	22.6770
 1.6080	22.7430
 1.6090	22.8070
 1.6100	22.8690
 1.6110	22.9320
 1.6120	22.9930
 1.6130	23.0550
 1.6140	23.1170
 1.6150	23.1780
 1.6160	23.2380
 1.6170	23.2970
 1.6180	23.3540
 1.6190	23.4120
 1.6200	23.4670
 1.6210	23.5220
 1.6220	23.5750
 1.6230	23.6240
 1.6240	23.6740
 1.6250	23.7230
 1.6260	23.7700
 1.6270	23.8170
 1.6280	23.8610
 1.6290	23.9070
 1.6300	23.9510
 1.6310	23.9950
 1.6320	24.0410
 1.6330	24.0840
 1.6340	24.1260
 1.6350	24.1670
 1.6360	24.2060
 1.6370	24.2440
 1.6380	24.2800
 1.6390	24.3150
 1.6400	24.3490
 1.6410	24.3800
 1.6420	24.4110
 1.6430	24.4390
 1.6440	24.4640
 1.6450	24.4890
 1.6460	24.5100
 1.6470	24.5290
 1.6480	24.5450
 1.6490	24.5570
 1.6500	24.5680
 1.6510	24.5770
 1.6520	24.5830
 1.6530	24.5860
 1.6540	24.5870
 1.6550	24.5860
 1.6560	24.5820
 1.6570	24.5770
 1.6580	24.5710
 1.6590	24.5620
 1.6600	24.5520
 1.6610	24.5410
 1.6620	24.5290
 1.6630	24.5190
 1.6640	24.5090
 1.6650	24.4990
 1.6660	24.4890
 1.6670	24.4810
 1.6680	24.4720
 1.6690	24.4630
 1.6700	24.4530
 1.6710	24.4410
 1.6720	24.4290
 1.6730	24.4180
 1.6740	24.4060
 1.6750	24.3940
 1.6760	24.3790
 1.6770	24.3640
 1.6780	24.3490
 1.6790	24.3340
 1.6800	24.3180
 1.6810	24.3000
 1.6820	24.2800
 1.6830	24.2580
 1.6840	24.2320
 1.6850	24.2030
 1.6860	24.1740
 1.6870	24.1430
 1.6880	24.1100
 1.6890	24.0770
 1.6900	24.0410
 1.6910	24.0030
 1.6920	23.9630
 1.6930	23.9200
 1.6940	23.8750
 1.6950	23.8260
 1.6960	23.7770
 1.6970	23.7250
 1.6980	23.6740
 1.6990	23.6250
 1.7000	23.5720
 1.7010	23.5190
 1.7020	23.4650
 1.7030	23.4070
 1.7040	23.3530
 1.7050	23.3000
 1.7060	23.2480
 1.7070	23.1980
 1.7080	23.1460
 1.7090	23.0910
 1.7100	23.0400
 1.7110	22.9920
 1.7120	22.9410
 1.7130	22.8920
 1.7140	22.8390
 1.7150	22.7850
 1.7160	22.7340
 1.7170	22.6810
 1.7180	22.6280
 1.7190	22.5760
 1.7200	22.5250
 1.7210	22.4740
 1.7220	22.4230
 1.7230	22.3730
 1.7240	22.3200
 1.7250	22.2660
 1.7260	22.2140
 1.7270	22.1610
 1.7280	22.1140
 1.7290	22.0680
 1.7300	22.0270
 1.7310	21.9850
 1.7320	21.9440
 1.7330	21.9050
 1.7340	21.8670
 1.7350	21.8280
 1.7360	21.7910
 1.7370	21.7490
 1.7380	21.7050
 1.7390	21.6580
 1.7400	21.6070
 1.7410	21.5550
 1.7420	21.5010
 1.7430	21.4470
 1.7440	21.3920
 1.7450	21.3350
 1.7460	21.2770
 1.7470	21.2170
 1.7480	21.1530
 1.7490	21.0910
 1.7500	21.0300
 1.7510	20.9680
 1.7520	20.9050
 1.7530	20.8440
 1.7540	20.7840
 1.7550	20.7220
 1.7560	20.6640
 1.7570	20.6060
 1.7580	20.5500
 1.7590	20.4980
 1.7600	20.4450
 1.7610	20.3930
 1.7620	20.3440
 1.7630	20.2950
 1.7640	20.2510
 1.7650	20.2120
 1.7660	20.1720
 1.7670	20.1330
 1.7680	20.0950
 1.7690	20.0560
 1.7700	20.0200
 1.7710	19.9870
 1.7720	19.9540
 1.7730	19.9230
 1.7740	19.8930
 1.7750	19.8640
 1.7760	19.8360
 1.7770	19.8080
 1.7780	19.7820
 1.7790	19.7560
 1.7800	19.7330
 1.7810	19.7120
 1.7820	19.6930
 1.7830	19.6760
 1.7840	19.6610
 1.7850	19.6480
 1.7860	19.6380
 1.7870	19.6310
 1.7880	19.6240
 1.7890	19.6200
 1.7900	19.6160
 1.7910	19.6130
 1.7920	19.6120
 1.7930	19.6110
 1.7940	19.6090
 1.7950	19.6100
 1.7960	19.6130
 1.7970	19.6160
 1.7980	19.6230
 1.7990	19.6270
 1.8000	19.6300
 1.8010	19.6330
 1.8020	19.6340
 1.8030	19.6370
 1.8040	19.6430
 1.8050	19.6480
 1.8060	19.6550
 1.8070	19.6600
 1.8080	19.6650
 1.8090	19.6710
 1.8100	19.6790
 1.8110	19.6810
 1.8120	19.6880
 1.8130	19.6950
 1.8140	19.7000
 1.8150	19.7060
 1.8160	19.7090
 1.8170	19.7080
 1.8180	19.7100
 1.8190	19.7130
 1.8200	19.7150
 1.8210	19.7140
 1.8220	19.7130
 1.8230	19.7100
 1.8240	19.7070
 1.8250	19.7040
 1.8260	19.7000
 1.8270	19.6950
 1.8280	19.6900
 1.8290	19.6840
 1.8300	19.6880
 1.8310	19.7160
 1.8320	19.7110
 1.8330	19.6870
 1.8340	19.6600
 1.8350	19.6290
 1.8360	19.5930
 1.8370	19.5580
 1.8380	19.5210
 1.8390	19.4770
 1.8400	19.4290
 1.8410	19.3750
 1.8420	19.3150
 1.8430	19.2500
 1.8440	19.1810
 1.8450	19.1060
 1.8460	19.0240
 1.8470	18.9340
 1.8480	18.8340
 1.8490	18.7260
 1.8500	18.6110
 1.8510	18.4870
 1.8520	18.3540
 1.8530	18.2140
 1.8540	18.0640
 1.8550	17.9000
 1.8560	17.7300
 1.8570	17.5480
 1.8580	17.3530
 1.8590	17.1510
 1.8600	16.9420
 1.8610	16.7190
 1.8620	16.4880
 1.8630	16.2530
 1.8640	16.0070
 1.8650	15.7510
 1.8660	15.4840
 1.8670	15.2000
 1.8680	14.9050
 1.8690	14.6020
 1.8700	14.2890
 1.8710	13.9650
 1.8720	13.6410
 1.8730	13.3110
 1.8740	12.9790
 1.8750	12.6480
 1.8760	12.3140
 1.8770	11.9820
 1.8780	11.6520
 1.8790	11.3270
 1.8800	11.0100
 1.8810	10.6990
 1.8820	10.3920
 1.8830	10.0910
 1.8840	 9.7940
 1.8850	 9.5050
 1.8860	 9.2260
 1.8870	 8.9580
 1.8880	 8.7000
 1.8890	 8.4570
 1.8900	 8.2280
 1.8910	 8.0100
 1.8920	 7.8050
 1.8930	 7.6150
 1.8940	 7.4360
 1.8950	 7.2710
 1.8960	 7.1190
 1.8970	 6.9790
 1.8980	 6.8510
 1.8990	 6.7320
 1.9000	 6.6220
 1.9010	 6.5230
 1.9020	 6.4310
 1.9030	 6.3490
 1.9040	 6.2730
 1.9050	 6.2050
 1.9060	 6.1440
 1.9070	 6.0890
 1.9080	 6.0410
 1.9090	 5.9970
 1.9100	 5.9590
 1.9110	 5.9240
 1.9120	 5.8960
 1.9130	 5.8670
 1.9140	 5.8420
 1.9150	 5.8190
 1.9160	 5.7970
 1.9170	 5.7800
 1.9180	 5.7660
 1.9190	 5.7550
 1.9200	 5.7450
 1.9210	 5.7350
 1.9220	 5.7270
 1.9230	 5.7210
 1.9240	 5.7170
 1.9250	 5.7140
 1.9260	 5.7120
 1.9270	 5.7110
 1.9280	 5.7100
 1.9290	 5.7090
 1.9300	 5.7100
 1.9310	 5.7160
 1.9320	 5.7220
 1.9330	 5.7290
 1.9340	 5.7400
 1.9350	 5.7490
 1.9360	 5.7590
 1.9370	 5.7680
 1.9380	 5.7760
 1.9390	 5.7840
 1.9400	 5.7940
 1.9410	 5.8070
 1.9420	 5.8210
 1.9430	 5.8360
 1.9440	 5.8500
 1.9450	 5.8620
 1.9460	 5.8760
 1.9470	 5.8920
 1.9480	 5.9080
 1.9490	 5.9250
 1.9500	 5.9450
 1.9510	 5.9620
 1.9520	 5.9800
 1.9530	 5.9990
 1.9540	 6.0180
 1.9550	 6.0380
 1.9560	 6.0620
 1.9570	 6.0830
 1.9580	 6.1050
 1.9590	 6.1280
 1.9600	 6.1500
 1.9610	 6.1740
 1.9620	 6.2000
 1.9630	 6.2270
 1.9640	 6.2540
 1.9650	 6.2820
 1.9660	 6.3070
 1.9670	 6.3320
 1.9680	 6.3580
 1.9690	 6.3810
 1.9700	 6.4080
 1.9710	 6.4370
 1.9720	 6.4640
 1.9730	 6.4920
 1.9740	 6.5190
 1.9750	 6.5440
 1.9760	 6.5720
 1.9770	 6.6030
 1.9780	 6.6340
 1.9790	 6.6650
 1.9800	 6.6970
 1.9810	 6.7300
 1.9820	 6.7610
 1.9830	 6.7930
 1.9840	 6.8260
 1.9850	 6.8600
 1.9860	 6.8960
 1.9870	 6.9300
 1.9880	 6.9640
 1.9890	 6.9980
 1.9900	 7.0310
 1.9910	 7.0640
 1.9920	 7.0980
 1.9930	 7.1330
 1.9940	 7.1680
 1.9950	 7.2020
 1.9960	 7.2370
 1.9970	 7.2740
 1.9980	 7.3100
 1.9990	 7.3460
 2.0000	 7.3830
 2.0010	 7.4180
 2.0020	 7.4540
 2.0030	 7.4900
 2.0040	 7.5250
 2.0050	 7.5600
 2.0060	 7.5940
 2.0070	 7.6290
 2.0080	 7.6620
 2.0090	 7.6970
 2.0100	 7.7340
 2.0110	 7.7690
 2.0120	 7.8040
 2.0130	 7.8380
 2.0140	 7.8710
 2.0150	 7.9050
 2.0160	 7.9420
 2.0170	 7.9770
 2.0180	 8.0110
 2.0190	 8.0440
 2.0200	 8.0760
 2.0210	 8.1070
 2.0220	 8.1380
 2.0230	 8.1700
 2.0240	 8.2010
 2.0250	 8.2300
 2.0260	 8.2590
 2.0270	 8.2890
 2.0280	 8.3210
 2.0290	 8.3490
 2.0300	 8.3750
 2.0310	 8.4040
 2.0320	 8.4300
 2.0330	 8.4590
 2.0340	 8.4920
 2.0350	 8.5200
 2.0360	 8.5460
 2.0370	 8.5720
 2.0380	 8.5920
 2.0390	 8.6160
 2.0400	 8.6390
 2.0410	 8.6630
 2.0420	 8.6880
 2.0430	 8.7130
 2.0440	 8.7360
 2.0450	 8.7580
 2.0460	 8.7790
 2.0470	 8.7990
 2.0480	 8.8190
 2.0490	 8.8400
 2.0500	 8.8610
 2.0510	 8.8790
 2.0520	 8.9000
 2.0530	 8.9220
 2.0540	 8.9440
 2.0550	 8.9670
 2.0560	 8.9900
 2.0570	 9.0090
 2.0580	 9.0290
 2.0590	 9.0490
 2.0600	 9.0670
 2.0610	 9.0880
 2.0620	 9.1110
 2.0630	 9.1320
 2.0640	 9.1520
 2.0650	 9.1730
 2.0660	 9.1940
 2.0670	 9.2150
 2.0680	 9.2380
 2.0690	 9.2600
 2.0700	 9.2810
 2.0710	 9.3010
 2.0720	 9.3180
 2.0730	 9.3390
 2.0740	 9.3590
 2.0750	 9.3770
 2.0760	 9.3980
 2.0770	 9.4200
 2.0780	 9.4430
 2.0790	 9.4690
 2.0800	 9.4930
 2.0810	 9.5160
 2.0820	 9.5390
 2.0830	 9.5610
 2.0840	 9.5810
 2.0850	 9.5970
 2.0860	 9.6160
 2.0870	 9.6330
 2.0880	 9.6510
 2.0890	 9.6710
 2.0900	 9.6960
 2.0910	 9.7170
 2.0920	 9.7380
 2.0930	 9.7600
 2.0940	 9.7810
 2.0950	 9.8020
 2.0960	 9.8240
 2.0970	 9.8460
 2.0980	 9.8700
 2.0990	 9.8930
 2.1000	 9.9160
 2.1010	 9.9390
 2.1020	 9.9590
 2.1030	 9.9810
 2.1040	10.0050
 2.1050	10.0290
 2.1060	10.0520
 2.1070	10.0760
 2.1080	10.0990
 2.1090	10.1210
 2.1100	10.1450
 2.1110	10.1680
 2.1120	10.1920
 2.1130	10.2170
 2.1140	10.2410
 2.1150	10.2640
 2.1160	10.2880
 2.1170	10.3100
 2.1180	10.3330
 2.1190	10.3570
 2.1200	10.3810
 2.1210	10.4030
 2.1220	10.4280
 2.1230	10.4510
 2.1240	10.4730
 2.1250	10.4940
 2.1260	10.5150
 2.1270	10.5360
 2.1280	10.5570
 2.1290	10.5800
 2.1300	10.6040
 2.1310	10.6280
 2.1320	10.6540
 2.1330	10.6760
 2.1340	10.6950
 2.1350	10.7140
 2.1360	10.7270
 2.1370	10.7450
 2.1380	10.7620
 2.1390	10.7840
 2.1400	10.8110
 2.1410	10.8390
 2.1420	10.8640
 2.1430	10.8890
 2.1440	10.9120
 2.1450	10.9300
 2.1460	10.9500
 2.1470	10.9690
 2.1480	10.9880
 2.1490	11.0060
 2.1500	11.0260
 2.1510	11.0480
 2.1520	11.0690
 2.1530	11.0890
 2.1540	11.1110
 2.1550	11.1350
 2.1560	11.1550
 2.1570	11.1740
 2.1580	11.1940
 2.1590	11.2130
 2.1600	11.2300
 2.1610	11.2490
 2.1620	11.2650
 2.1630	11.2820
 2.1640	11.2960
 2.1650	11.3110
 2.1660	11.3250
 2.1670	11.3390
 2.1680	11.3500
 2.1690	11.3680
 2.1700	11.3920
 2.1710	11.4110
 2.1720	11.4330
 2.1730	11.4530
 2.1740	11.4690
 2.1750	11.4870
 2.1760	11.5060
 2.1770	11.5220
 2.1780	11.5330
 2.1790	11.5480
 2.1800	11.5640
 2.1810	11.5800
 2.1820	11.5980
 2.1830	11.6190
 2.1840	11.6380
 2.1850	11.6550
 2.1860	11.6720
 2.1870	11.6890
 2.1880	11.7040
 2.1890	11.7160
 2.1900	11.7310
 2.1910	11.7470
 2.1920	11.7630
 2.1930	11.7820
 2.1940	11.7990
 2.1950	11.8160
 2.1960	11.8320
 2.1970	11.8480
 2.1980	11.8630
 2.1990	11.8780
 2.2000	11.8900
 2.2010	11.9000
 2.2020	11.9120
 2.2030	11.9220
 2.2040	11.9320
 2.2050	11.9420
 2.2060	11.9530
 2.2070	11.9640
 2.2080	11.9750
 2.2090	11.9840
 2.2100	11.9960
 2.2110	12.0020
 2.2120	12.0030
 2.2130	12.0050
 2.2140	12.0060
 2.2150	12.0060
 2.2160	12.0060
 2.2170	12.0080
 2.2180	12.0110
 2.2190	12.0090
 2.2200	12.0070
 2.2210	12.0030
 2.2220	11.9940
 2.2230	11.9860
 2.2240	11.9770
 2.2250	11.9660
 2.2260	11.9540
 2.2270	11.9400
 2.2280	11.9290
 2.2290	11.9120
 2.2300	11.8910
 2.2310	11.8700
 2.2320	11.8470
 2.2330	11.8200
 2.2340	11.7920
 2.2350	11.7610
 2.2360	11.7340
 2.2370	11.7070
 2.2380	11.6780
 2.2390	11.6520
 2.2400	11.6200
 2.2410	11.5820
 2.2420	11.5480
 2.2430	11.5160
 2.2440	11.4800
 2.2450	11.4430
 2.2460	11.4030
 2.2470	11.3590
 2.2480	11.3150
 2.2490	11.2680
 2.2500	11.2210
 2.2510	11.1690
 2.2520	11.1200
 2.2530	11.0710
 2.2540	11.0230
 2.2550	10.9760
 2.2560	10.9290
 2.2570	10.8830
 2.2580	10.8350
 2.2590	10.7860
 2.2600	10.7390
 2.2610	10.6950
 2.2620	10.6470
 2.2630	10.5990
 2.2640	10.5530
 2.2650	10.5080
 2.2660	10.4700
 2.2670	10.4330
 2.2680	10.4030
 2.2690	10.3660
 2.2700	10.3240
 2.2710	10.2870
 2.2720	10.2510
 2.2730	10.2180
 2.2740	10.1880
 2.2750	10.1610
 2.2760	10.1380
 2.2770	10.1140
 2.2780	10.0940
 2.2790	10.0750
 2.2800	10.0560
 2.2810	10.0380
 2.2820	10.0260
 2.2830	10.0070
 2.2840	 9.9820
 2.2850	 9.9620
 2.2860	 9.9400
 2.2870	 9.9200
 2.2880	 9.9090
 2.2890	 9.8910
 2.2900	 9.8710
 2.2910	 9.8480
 2.2920	 9.8200
 2.2930	 9.7920
 2.2940	 9.7600
 2.2950	 9.7300
 2.2960	 9.6980
 2.2970	 9.6670
 2.2980	 9.6380
 2.2990	 9.6030
 2.3000	 9.5720
 2.3010	 9.5440
 2.3020	 9.5150
 2.3030	 9.4900
 2.3040	 9.4620
 2.3050	 9.4310
 2.3060	 9.4040
 2.3070	 9.3770
 2.3080	 9.3500
 2.3090	 9.3250
 2.3100	 9.3080
 2.3110	 9.2970
 2.3120	 9.2840
 2.3130	 9.2760
 2.3140	 9.2710
 2.3150	 9.2660
 2.3160	 9.2620
 2.3170	 9.2680
 2.3180	 9.2620
 2.3190	 9.2510
 2.3200	 9.2360
 2.3210	 9.2110
 2.3220	 9.1940
 2.3230	 9.1770
 2.3240	 9.1600
 2.3250	 9.1480
 2.3260	 9.1310
 2.3270	 9.1130
 2.3280	 9.0940
 2.3290	 9.0730
 2.3300	 9.0550
 2.3310	 9.0390
 2.3320	 9.0190
 2.3330	 9.0030
 2.3340	 8.9800
 2.3350	 8.9480
 2.3360	 8.9220
 2.3370	 8.8950
 2.3380	 8.8720
 2.3390	 8.8560
 2.3400	 8.8340
 2.3410	 8.8100
 2.3420	 8.7910
 2.3430	 8.7720
 2.3440	 8.7490
 2.3450	 8.7290
 2.3460	 8.7080
 2.3470	 8.6770
 2.3480	 8.6560
 2.3490	 8.6490
 2.3500	 8.6320
 2.3510	 8.6100
 2.3520	 8.5960
 2.3530	 8.5820
 2.3540	 8.5640
 2.3550	 8.5500
 2.3560	 8.5400
 2.3570	 8.5210
 2.3580	 8.5010
 2.3590	 8.4880
 2.3600	 8.4770
 2.3610	 8.4650
 2.3620	 8.4480
 2.3630	 8.4290
 2.3640	 8.4080
 2.3650	 8.3900
 2.3660	 8.3750
 2.3670	 8.3570
 2.3680	 8.3370
 2.3690	 8.3120
 2.3700	 8.2920
 2.3710	 8.2760
 2.3720	 8.2620
 2.3730	 8.2580
 2.3740	 8.2440
 2.3750	 8.2240
 2.3760	 8.2110
 2.3770	 8.1820
 2.3780	 8.1510
 2.3790	 8.1330
 2.3800	 8.1100
 2.3810	 8.0890
 2.3820	 8.0730
 2.3830	 8.0440
 2.3840	 8.0130
 2.3850	 7.9940
 2.3860	 7.9730
 2.3870	 7.9550
 2.3880	 7.9480
 2.3890	 7.9410
 2.3900	 7.9330
 2.3910	 7.9250
 2.3920	 7.9090
 2.3930	 7.8830
 2.3940	 7.8590
 2.3950	 7.8430
 2.3960	 7.8260
 2.3970	 7.8060
 2.3980	 7.7920
 2.3990	 7.7770
 2.4000	 7.7560
 2.4010	 7.7360
 2.4020	 7.7280
 2.4030	 7.7170
 2.4040	 7.7050
 2.4050	 7.6980
 2.4060	 7.6670
 2.4070	 7.6230
 2.4080	 7.5980
 2.4090	 7.5780
 2.4100	 7.5550
 2.4110	 7.5310
 2.4120	 7.5050
 2.4130	 7.4740
 2.4140	 7.4520
 2.4150	 7.4500
 2.4160	 7.4340
 2.4170	 7.4140
 2.4180	 7.3930
 2.4190	 7.3630
 2.4200	 7.3460
 2.4210	 7.3280
 2.4220	 7.3180
 2.4230	 7.3120
 2.4240	 7.2870
 2.4250	 7.2650
 2.4260	 7.2370
 2.4270	 7.2150
 2.4280	 7.2070
 2.4290	 7.1900
 2.4300	 7.1640
 2.4310	 7.1500
 2.4320	 7.1230
 2.4330	 7.0860
 2.4340	 7.0860
 2.4350	 7.0650
 2.4360	 7.0340
 2.4370	 7.0290
 2.4380	 6.9860
 2.4390	 6.9480
 2.4400	 6.9260
 2.4410	 6.8960
 2.4420	 6.8910
 2.4430	 6.8820
 2.4440	 6.8530
 2.4450	 6.8190
 2.4460	 6.7720
 2.4470	 6.7400
 2.4480	 6.7250
 2.4490	 6.7180
 2.4500	 6.7140
 2.4510	 6.6960
 2.4520	 6.6710
 2.4530	 6.6450
 2.4540	 6.6250
 2.4550	 6.6050
 2.4560	 6.5790
 2.4570	 6.5540
 2.4580	 6.5480
 2.4590	 6.5340
 2.4600	 6.5170
 2.4610	 6.5220
 2.4620	 6.5080
 2.4630	 6.5060
 2.4640	 6.5060
 2.4650	 6.4810
 2.4660	 6.4570
 2.4670	 6.4040
 2.4680	 6.3620
 2.4690	 6.3440
 2.4700	 6.3310
 2.4710	 6.3530
 2.4720	 6.3520
 2.4730	 6.3500
 2.4740	 6.3420
 2.4750	 6.3180
 2.4760	 6.3040
 2.4770	 6.2930
 2.4780	 6.2800
 2.4790	 6.2720
 2.4800	 6.2440
 2.4810	 6.1830
 2.4820	 6.1480
 2.4830	 6.1470
 2.4840	 6.1720
 2.4850	 6.2180
 2.4860	 6.2250
 2.4870	 6.2150
 2.4880	 6.2080
 2.4890	 6.1800
 2.4900	 6.1610
 2.4910	 6.1670
 2.4920	 6.2110
 2.4930	 6.2400
 2.4940	 6.2300
 2.4950	 6.2220
 2.4960	 6.2200
 2.4970	 6.2040
 2.4980	 6.1870
 2.4990	 6.1740
 2.5000	 6.1450
