Name: Adenostoma fasciculatum 2
Type: vegetation
Class: Shrub
Genus: Adenostoma
Species: fasciculatum
Sample No.: VH113
Owner: UCSB
Wavelength Range: VSWIR
Origin: 34.5084; -119.7687; WGS84
Collection Date: 6/3/2013
Description: Samples were collected as part of the HyspIRI Airborne Campaign. 48 individual plants were sampled in three times in 2013 - spring  summer  and fall. The name of the sample includes a 1  2  or 3 which references a different individual of the species. Samples were taken to JPL and processed within 48 hours of collection. The same leaves were processed in the Nicolet and then measured using the ASD.
Measurement: Bidirectional reflectance
First Column: X
Second Column: Y
X Units: Wavelength (micrometers)
Y Units: Reflectance (percentage)
First X Value: 0.35
Last X Value: 2.5
Number of X Values: 2151
Additional Information: vegetation.shrub.adenostoma.fasciculatum.vswir.vh113.ucsb.asd.ancillary.txt

 0.3500	 1.2010
 0.3510	 1.2650
 0.3520	 1.2320
 0.3530	 1.1620
 0.3540	 1.1230
 0.3550	 1.1140
 0.3560	 1.2430
 0.3570	 1.3630
 0.3580	 1.2510
 0.3590	 1.2070
 0.3600	 1.1850
 0.3610	 1.1530
 0.3620	 1.1580
 0.3630	 1.1200
 0.3640	 1.0890
 0.3650	 1.1220
 0.3660	 1.1760
 0.3670	 1.1980
 0.3680	 1.1890
 0.3690	 1.1840
 0.3700	 1.1710
 0.3710	 1.1700
 0.3720	 1.1880
 0.3730	 1.2070
 0.3740	 1.1880
 0.3750	 1.1800
 0.3760	 1.2250
 0.3770	 1.1870
 0.3780	 1.1520
 0.3790	 1.1440
 0.3800	 1.1290
 0.3810	 1.2040
 0.3820	 1.2390
 0.3830	 1.1780
 0.3840	 1.2200
 0.3850	 1.2750
 0.3860	 1.3060
 0.3870	 1.3010
 0.3880	 1.2930
 0.3890	 1.2800
 0.3900	 1.2740
 0.3910	 1.3030
 0.3920	 1.2810
 0.3930	 1.2800
 0.3940	 1.3370
 0.3950	 1.3090
 0.3960	 1.3040
 0.3970	 1.3320
 0.3980	 1.3570
 0.3990	 1.3700
 0.4000	 1.3560
 0.4010	 1.3330
 0.4020	 1.3510
 0.4030	 1.3720
 0.4040	 1.3780
 0.4050	 1.3770
 0.4060	 1.4360
 0.4070	 1.4750
 0.4080	 1.4870
 0.4090	 1.5120
 0.4100	 1.5240
 0.4110	 1.5310
 0.4120	 1.5440
 0.4130	 1.5690
 0.4140	 1.5890
 0.4150	 1.6080
 0.4160	 1.6330
 0.4170	 1.6460
 0.4180	 1.6720
 0.4190	 1.7020
 0.4200	 1.6970
 0.4210	 1.7070
 0.4220	 1.7300
 0.4230	 1.7550
 0.4240	 1.7780
 0.4250	 1.7890
 0.4260	 1.8000
 0.4270	 1.8290
 0.4280	 1.8550
 0.4290	 1.8750
 0.4300	 1.8870
 0.4310	 1.8860
 0.4320	 1.8950
 0.4330	 1.9150
 0.4340	 1.9400
 0.4350	 1.9460
 0.4360	 1.9500
 0.4370	 1.9640
 0.4380	 1.9960
 0.4390	 2.0170
 0.4400	 2.0230
 0.4410	 2.0170
 0.4420	 2.0170
 0.4430	 2.0250
 0.4440	 2.0410
 0.4450	 2.0590
 0.4460	 2.0610
 0.4470	 2.0740
 0.4480	 2.1000
 0.4490	 2.1070
 0.4500	 2.1230
 0.4510	 2.1360
 0.4520	 2.1400
 0.4530	 2.1610
 0.4540	 2.1800
 0.4550	 2.1920
 0.4560	 2.1960
 0.4570	 2.2030
 0.4580	 2.2050
 0.4590	 2.2040
 0.4600	 2.2140
 0.4610	 2.2260
 0.4620	 2.2390
 0.4630	 2.2530
 0.4640	 2.2600
 0.4650	 2.2580
 0.4660	 2.2550
 0.4670	 2.2720
 0.4680	 2.2810
 0.4690	 2.2860
 0.4700	 2.2950
 0.4710	 2.3000
 0.4720	 2.3020
 0.4730	 2.3020
 0.4740	 2.3020
 0.4750	 2.3090
 0.4760	 2.3160
 0.4770	 2.3220
 0.4780	 2.3310
 0.4790	 2.3320
 0.4800	 2.3290
 0.4810	 2.3360
 0.4820	 2.3530
 0.4830	 2.3650
 0.4840	 2.3700
 0.4850	 2.3730
 0.4860	 2.3740
 0.4870	 2.3810
 0.4880	 2.3950
 0.4890	 2.3920
 0.4900	 2.3990
 0.4910	 2.4200
 0.4920	 2.4460
 0.4930	 2.4570
 0.4940	 2.4710
 0.4950	 2.4970
 0.4960	 2.5310
 0.4970	 2.5500
 0.4980	 2.5640
 0.4990	 2.5890
 0.5000	 2.6240
 0.5010	 2.6570
 0.5020	 2.6860
 0.5030	 2.7230
 0.5040	 2.7710
 0.5050	 2.8190
 0.5060	 2.8600
 0.5070	 2.9120
 0.5080	 2.9710
 0.5090	 3.0340
 0.5100	 3.1010
 0.5110	 3.1650
 0.5120	 3.2380
 0.5130	 3.3200
 0.5140	 3.4010
 0.5150	 3.4860
 0.5160	 3.5800
 0.5170	 3.6800
 0.5180	 3.7780
 0.5190	 3.8830
 0.5200	 3.9930
 0.5210	 4.0970
 0.5220	 4.2050
 0.5230	 4.3170
 0.5240	 4.4300
 0.5250	 4.5370
 0.5260	 4.6390
 0.5270	 4.7380
 0.5280	 4.8350
 0.5290	 4.9160
 0.5300	 4.9960
 0.5310	 5.0790
 0.5320	 5.1490
 0.5330	 5.2170
 0.5340	 5.2800
 0.5350	 5.3340
 0.5360	 5.3860
 0.5370	 5.4310
 0.5380	 5.4720
 0.5390	 5.5140
 0.5400	 5.5550
 0.5410	 5.5980
 0.5420	 5.6440
 0.5430	 5.6800
 0.5440	 5.7110
 0.5450	 5.7410
 0.5460	 5.7720
 0.5470	 5.7900
 0.5480	 5.8040
 0.5490	 5.8210
 0.5500	 5.8360
 0.5510	 5.8520
 0.5520	 5.8650
 0.5530	 5.8700
 0.5540	 5.8630
 0.5550	 5.8530
 0.5560	 5.8400
 0.5570	 5.8210
 0.5580	 5.7930
 0.5590	 5.7590
 0.5600	 5.7220
 0.5610	 5.6820
 0.5620	 5.6390
 0.5630	 5.5950
 0.5640	 5.5470
 0.5650	 5.4910
 0.5660	 5.4340
 0.5670	 5.3780
 0.5680	 5.3210
 0.5690	 5.2610
 0.5700	 5.1970
 0.5710	 5.1280
 0.5720	 5.0660
 0.5730	 5.0050
 0.5740	 4.9450
 0.5750	 4.8890
 0.5760	 4.8350
 0.5770	 4.7850
 0.5780	 4.7380
 0.5790	 4.6950
 0.5800	 4.6530
 0.5810	 4.6120
 0.5820	 4.5750
 0.5830	 4.5470
 0.5840	 4.5180
 0.5850	 4.4870
 0.5860	 4.4590
 0.5870	 4.4350
 0.5880	 4.4160
 0.5890	 4.3960
 0.5900	 4.3720
 0.5910	 4.3500
 0.5920	 4.3330
 0.5930	 4.3250
 0.5940	 4.3130
 0.5950	 4.3030
 0.5960	 4.2960
 0.5970	 4.2860
 0.5980	 4.2760
 0.5990	 4.2660
 0.6000	 4.2560
 0.6010	 4.2460
 0.6020	 4.2330
 0.6030	 4.2170
 0.6040	 4.1980
 0.6050	 4.1780
 0.6060	 4.1530
 0.6070	 4.1230
 0.6080	 4.0990
 0.6090	 4.0750
 0.6100	 4.0500
 0.6110	 4.0270
 0.6120	 3.9910
 0.6130	 3.9520
 0.6140	 3.9150
 0.6150	 3.8760
 0.6160	 3.8410
 0.6170	 3.8120
 0.6180	 3.7860
 0.6190	 3.7670
 0.6200	 3.7480
 0.6210	 3.7280
 0.6220	 3.7110
 0.6230	 3.6990
 0.6240	 3.6890
 0.6250	 3.6790
 0.6260	 3.6700
 0.6270	 3.6650
 0.6280	 3.6630
 0.6290	 3.6620
 0.6300	 3.6580
 0.6310	 3.6540
 0.6320	 3.6510
 0.6330	 3.6470
 0.6340	 3.6380
 0.6350	 3.6230
 0.6360	 3.6040
 0.6370	 3.5820
 0.6380	 3.5530
 0.6390	 3.5220
 0.6400	 3.4950
 0.6410	 3.4620
 0.6420	 3.4260
 0.6430	 3.3890
 0.6440	 3.3540
 0.6450	 3.3150
 0.6460	 3.2760
 0.6470	 3.2440
 0.6480	 3.2130
 0.6490	 3.1870
 0.6500	 3.1620
 0.6510	 3.1360
 0.6520	 3.1180
 0.6530	 3.1030
 0.6540	 3.0830
 0.6550	 3.0660
 0.6560	 3.0440
 0.6570	 3.0200
 0.6580	 2.9960
 0.6590	 2.9670
 0.6600	 2.9370
 0.6610	 2.9090
 0.6620	 2.8750
 0.6630	 2.8460
 0.6640	 2.8190
 0.6650	 2.7910
 0.6660	 2.7700
 0.6670	 2.7510
 0.6680	 2.7350
 0.6690	 2.7250
 0.6700	 2.7190
 0.6710	 2.7150
 0.6720	 2.7140
 0.6730	 2.7150
 0.6740	 2.7190
 0.6750	 2.7270
 0.6760	 2.7390
 0.6770	 2.7510
 0.6780	 2.7690
 0.6790	 2.7920
 0.6800	 2.8150
 0.6810	 2.8470
 0.6820	 2.8850
 0.6830	 2.9260
 0.6840	 2.9730
 0.6850	 3.0310
 0.6860	 3.1010
 0.6870	 3.1850
 0.6880	 3.2850
 0.6890	 3.4020
 0.6900	 3.5400
 0.6910	 3.7030
 0.6920	 3.8970
 0.6930	 4.1230
 0.6940	 4.3800
 0.6950	 4.6690
 0.6960	 4.9910
 0.6970	 5.3450
 0.6980	 5.7280
 0.6990	 6.1390
 0.7000	 6.5770
 0.7010	 7.0400
 0.7020	 7.5210
 0.7030	 8.0180
 0.7040	 8.5310
 0.7050	 9.0570
 0.7060	 9.5950
 0.7070	10.1430
 0.7080	10.7030
 0.7090	11.2760
 0.7100	11.8610
 0.7110	12.4580
 0.7120	13.0680
 0.7130	13.6920
 0.7140	14.3290
 0.7150	14.9770
 0.7160	15.6350
 0.7170	16.3080
 0.7180	16.9870
 0.7190	17.6700
 0.7200	18.3630
 0.7210	19.0610
 0.7220	19.7600
 0.7230	20.4580
 0.7240	21.1540
 0.7250	21.8420
 0.7260	22.5190
 0.7270	23.1840
 0.7280	23.8390
 0.7290	24.4720
 0.7300	25.0870
 0.7310	25.6880
 0.7320	26.2660
 0.7330	26.8220
 0.7340	27.3550
 0.7350	27.8660
 0.7360	28.3550
 0.7370	28.8180
 0.7380	29.2570
 0.7390	29.6720
 0.7400	30.0660
 0.7410	30.4370
 0.7420	30.7830
 0.7430	31.1030
 0.7440	31.4070
 0.7450	31.6930
 0.7460	31.9510
 0.7470	32.1940
 0.7480	32.4210
 0.7490	32.6270
 0.7500	32.8150
 0.7510	32.9930
 0.7520	33.1590
 0.7530	33.3110
 0.7540	33.4430
 0.7550	33.5680
 0.7560	33.6870
 0.7570	33.7950
 0.7580	33.8970
 0.7590	33.9890
 0.7600	34.0710
 0.7610	34.1500
 0.7620	34.2220
 0.7630	34.2910
 0.7640	34.3550
 0.7650	34.4100
 0.7660	34.4620
 0.7670	34.5140
 0.7680	34.5660
 0.7690	34.6130
 0.7700	34.6530
 0.7710	34.6890
 0.7720	34.7320
 0.7730	34.7740
 0.7740	34.8100
 0.7750	34.8390
 0.7760	34.8710
 0.7770	34.9060
 0.7780	34.9450
 0.7790	34.9830
 0.7800	35.0110
 0.7810	35.0400
 0.7820	35.0740
 0.7830	35.1080
 0.7840	35.1340
 0.7850	35.1620
 0.7860	35.1980
 0.7870	35.2270
 0.7880	35.2540
 0.7890	35.2810
 0.7900	35.3100
 0.7910	35.3320
 0.7920	35.3580
 0.7930	35.3890
 0.7940	35.4150
 0.7950	35.4380
 0.7960	35.4570
 0.7970	35.4770
 0.7980	35.5140
 0.7990	35.5390
 0.8000	35.5570
 0.8010	35.5790
 0.8020	35.5940
 0.8030	35.6120
 0.8040	35.6350
 0.8050	35.6620
 0.8060	35.6810
 0.8070	35.6950
 0.8080	35.7110
 0.8090	35.7350
 0.8100	35.7560
 0.8110	35.7710
 0.8120	35.7820
 0.8130	35.7960
 0.8140	35.8110
 0.8150	35.8280
 0.8160	35.8480
 0.8170	35.8560
 0.8180	35.8720
 0.8190	35.8910
 0.8200	35.9020
 0.8210	35.9150
 0.8220	35.9300
 0.8230	35.9460
 0.8240	35.9600
 0.8250	35.9670
 0.8260	35.9760
 0.8270	35.9890
 0.8280	36.0010
 0.8290	36.0080
 0.8300	36.0150
 0.8310	36.0260
 0.8320	36.0320
 0.8330	36.0410
 0.8340	36.0560
 0.8350	36.0710
 0.8360	36.0860
 0.8370	36.0970
 0.8380	36.1060
 0.8390	36.1170
 0.8400	36.1330
 0.8410	36.1500
 0.8420	36.1650
 0.8430	36.1790
 0.8440	36.1920
 0.8450	36.2070
 0.8460	36.2240
 0.8470	36.2430
 0.8480	36.2520
 0.8490	36.2630
 0.8500	36.2890
 0.8510	36.3060
 0.8520	36.3200
 0.8530	36.3360
 0.8540	36.3580
 0.8550	36.3650
 0.8560	36.3780
 0.8570	36.3990
 0.8580	36.4080
 0.8590	36.4200
 0.8600	36.4370
 0.8610	36.4570
 0.8620	36.4700
 0.8630	36.4830
 0.8640	36.4960
 0.8650	36.5080
 0.8660	36.5240
 0.8670	36.5400
 0.8680	36.5550
 0.8690	36.5720
 0.8700	36.5850
 0.8710	36.5990
 0.8720	36.6150
 0.8730	36.6340
 0.8740	36.6450
 0.8750	36.6600
 0.8760	36.6780
 0.8770	36.6840
 0.8780	36.6970
 0.8790	36.7080
 0.8800	36.7150
 0.8810	36.7320
 0.8820	36.7500
 0.8830	36.7630
 0.8840	36.7720
 0.8850	36.7860
 0.8860	36.7970
 0.8870	36.8020
 0.8880	36.8020
 0.8890	36.8120
 0.8900	36.8210
 0.8910	36.8280
 0.8920	36.8350
 0.8930	36.8390
 0.8940	36.8490
 0.8950	36.8620
 0.8960	36.8670
 0.8970	36.8700
 0.8980	36.8710
 0.8990	36.8740
 0.9000	36.8800
 0.9010	36.8890
 0.9020	36.8980
 0.9030	36.9040
 0.9040	36.9080
 0.9050	36.9090
 0.9060	36.9120
 0.9070	36.9160
 0.9080	36.9190
 0.9090	36.9250
 0.9100	36.9320
 0.9110	36.9360
 0.9120	36.9420
 0.9130	36.9430
 0.9140	36.9440
 0.9150	36.9520
 0.9160	36.9560
 0.9170	36.9560
 0.9180	36.9560
 0.9190	36.9580
 0.9200	36.9590
 0.9210	36.9630
 0.9220	36.9620
 0.9230	36.9460
 0.9240	36.9390
 0.9250	36.9310
 0.9260	36.9240
 0.9270	36.9270
 0.9280	36.9180
 0.9290	36.9030
 0.9300	36.8870
 0.9310	36.8730
 0.9320	36.8620
 0.9330	36.8510
 0.9340	36.8310
 0.9350	36.7950
 0.9360	36.7640
 0.9370	36.7330
 0.9380	36.7010
 0.9390	36.6800
 0.9400	36.6620
 0.9410	36.6270
 0.9420	36.5740
 0.9430	36.5360
 0.9440	36.5010
 0.9450	36.4540
 0.9460	36.3900
 0.9470	36.3260
 0.9480	36.2590
 0.9490	36.1910
 0.9500	36.1210
 0.9510	36.0420
 0.9520	35.9460
 0.9530	35.8490
 0.9540	35.7660
 0.9550	35.6880
 0.9560	35.5940
 0.9570	35.4960
 0.9580	35.4120
 0.9590	35.3320
 0.9600	35.2610
 0.9610	35.1980
 0.9620	35.1380
 0.9630	35.0750
 0.9640	35.0260
 0.9650	34.9900
 0.9660	34.9560
 0.9670	34.9100
 0.9680	34.8690
 0.9690	34.8370
 0.9700	34.8110
 0.9710	34.7900
 0.9720	34.7810
 0.9730	34.7650
 0.9740	34.7290
 0.9750	34.7220
 0.9760	34.7100
 0.9770	34.6980
 0.9780	34.7020
 0.9790	34.7160
 0.9800	34.7230
 0.9810	34.7210
 0.9820	34.7190
 0.9830	34.7180
 0.9840	34.7180
 0.9850	34.7330
 0.9860	34.7740
 0.9870	34.8010
 0.9880	34.8100
 0.9890	34.8160
 0.9900	34.8410
 0.9910	34.8890
 0.9920	34.9540
 0.9930	35.0190
 0.9940	35.0840
 0.9950	35.1480
 0.9960	35.2130
 0.9970	35.2780
 0.9980	35.3430
 0.9990	35.4070
 1.0000	35.4720
 1.0010	35.5370
 1.0020	35.6020
 1.0030	35.6660
 1.0040	35.7310
 1.0050	35.7960
 1.0060	35.8610
 1.0070	35.9250
 1.0080	35.9900
 1.0090	36.0550
 1.0100	36.0550
 1.0110	36.1020
 1.0120	36.1490
 1.0130	36.1940
 1.0140	36.2410
 1.0150	36.2900
 1.0160	36.3390
 1.0170	36.3850
 1.0180	36.4320
 1.0190	36.4820
 1.0200	36.5280
 1.0210	36.5750
 1.0220	36.6230
 1.0230	36.6700
 1.0240	36.7130
 1.0250	36.7600
 1.0260	36.8090
 1.0270	36.8550
 1.0280	36.9000
 1.0290	36.9430
 1.0300	36.9840
 1.0310	37.0260
 1.0320	37.0690
 1.0330	37.1100
 1.0340	37.1520
 1.0350	37.1920
 1.0360	37.2320
 1.0370	37.2760
 1.0380	37.3170
 1.0390	37.3570
 1.0400	37.3940
 1.0410	37.4290
 1.0420	37.4650
 1.0430	37.5010
 1.0440	37.5360
 1.0450	37.5690
 1.0460	37.6030
 1.0470	37.6370
 1.0480	37.6700
 1.0490	37.7060
 1.0500	37.7370
 1.0510	37.7660
 1.0520	37.7910
 1.0530	37.8170
 1.0540	37.8410
 1.0550	37.8650
 1.0560	37.8870
 1.0570	37.9100
 1.0580	37.9360
 1.0590	37.9560
 1.0600	37.9720
 1.0610	37.9910
 1.0620	38.0070
 1.0630	38.0240
 1.0640	38.0480
 1.0650	38.0660
 1.0660	38.0810
 1.0670	38.0950
 1.0680	38.1070
 1.0690	38.1150
 1.0700	38.1270
 1.0710	38.1360
 1.0720	38.1480
 1.0730	38.1620
 1.0740	38.1710
 1.0750	38.1800
 1.0760	38.1850
 1.0770	38.1850
 1.0780	38.1880
 1.0790	38.1890
 1.0800	38.1920
 1.0810	38.2000
 1.0820	38.2020
 1.0830	38.2010
 1.0840	38.1990
 1.0850	38.1970
 1.0860	38.1890
 1.0870	38.1850
 1.0880	38.1830
 1.0890	38.1780
 1.0900	38.1700
 1.0910	38.1630
 1.0920	38.1560
 1.0930	38.1470
 1.0940	38.1390
 1.0950	38.1290
 1.0960	38.1170
 1.0970	38.1040
 1.0980	38.0900
 1.0990	38.0760
 1.1000	38.0610
 1.1010	38.0450
 1.1020	38.0300
 1.1030	38.0140
 1.1040	37.9990
 1.1050	37.9810
 1.1060	37.9610
 1.1070	37.9400
 1.1080	37.9180
 1.1090	37.8930
 1.1100	37.8690
 1.1110	37.8470
 1.1120	37.8200
 1.1130	37.7900
 1.1140	37.7570
 1.1150	37.7220
 1.1160	37.6820
 1.1170	37.6410
 1.1180	37.5960
 1.1190	37.5490
 1.1200	37.4970
 1.1210	37.4420
 1.1220	37.3790
 1.1230	37.3060
 1.1240	37.2290
 1.1250	37.1450
 1.1260	37.0570
 1.1270	36.9560
 1.1280	36.8490
 1.1290	36.7310
 1.1300	36.6030
 1.1310	36.4650
 1.1320	36.3170
 1.1330	36.1610
 1.1340	35.9940
 1.1350	35.8190
 1.1360	35.6360
 1.1370	35.4420
 1.1380	35.2420
 1.1390	35.0340
 1.1400	34.8200
 1.1410	34.6010
 1.1420	34.3810
 1.1430	34.1580
 1.1440	33.9350
 1.1450	33.7070
 1.1460	33.4880
 1.1470	33.2660
 1.1480	33.0540
 1.1490	32.8460
 1.1500	32.6500
 1.1510	32.4590
 1.1520	32.2790
 1.1530	32.1080
 1.1540	31.9490
 1.1550	31.8000
 1.1560	31.6610
 1.1570	31.5330
 1.1580	31.4190
 1.1590	31.3120
 1.1600	31.2120
 1.1610	31.1200
 1.1620	31.0340
 1.1630	30.9570
 1.1640	30.8870
 1.1650	30.8220
 1.1660	30.7660
 1.1670	30.7100
 1.1680	30.6580
 1.1690	30.6080
 1.1700	30.5610
 1.1710	30.5160
 1.1720	30.4740
 1.1730	30.4320
 1.1740	30.3930
 1.1750	30.3520
 1.1760	30.3110
 1.1770	30.2710
 1.1780	30.2270
 1.1790	30.1850
 1.1800	30.1430
 1.1810	30.0980
 1.1820	30.0540
 1.1830	30.0110
 1.1840	29.9700
 1.1850	29.9320
 1.1860	29.8960
 1.1870	29.8620
 1.1880	29.8300
 1.1890	29.7980
 1.1900	29.7700
 1.1910	29.7440
 1.1920	29.7230
 1.1930	29.7060
 1.1940	29.6890
 1.1950	29.6740
 1.1960	29.6610
 1.1970	29.6490
 1.1980	29.6410
 1.1990	29.6390
 1.2000	29.6400
 1.2010	29.6450
 1.2020	29.6540
 1.2030	29.6670
 1.2040	29.6850
 1.2050	29.7090
 1.2060	29.7370
 1.2070	29.7680
 1.2080	29.8030
 1.2090	29.8400
 1.2100	29.8800
 1.2110	29.9260
 1.2120	29.9770
 1.2130	30.0300
 1.2140	30.0860
 1.2150	30.1440
 1.2160	30.2040
 1.2170	30.2650
 1.2180	30.3270
 1.2190	30.3930
 1.2200	30.4600
 1.2210	30.5270
 1.2220	30.5950
 1.2230	30.6640
 1.2240	30.7320
 1.2250	30.7970
 1.2260	30.8600
 1.2270	30.9200
 1.2280	30.9790
 1.2290	31.0370
 1.2300	31.0920
 1.2310	31.1460
 1.2320	31.1990
 1.2330	31.2500
 1.2340	31.3010
 1.2350	31.3520
 1.2360	31.4010
 1.2370	31.4480
 1.2380	31.4940
 1.2390	31.5380
 1.2400	31.5810
 1.2410	31.6240
 1.2420	31.6660
 1.2430	31.7050
 1.2440	31.7430
 1.2450	31.7800
 1.2460	31.8180
 1.2470	31.8540
 1.2480	31.8880
 1.2490	31.9210
 1.2500	31.9510
 1.2510	31.9820
 1.2520	32.0110
 1.2530	32.0390
 1.2540	32.0660
 1.2550	32.0910
 1.2560	32.1150
 1.2570	32.1390
 1.2580	32.1590
 1.2590	32.1780
 1.2600	32.1950
 1.2610	32.2120
 1.2620	32.2260
 1.2630	32.2400
 1.2640	32.2540
 1.2650	32.2660
 1.2660	32.2760
 1.2670	32.2830
 1.2680	32.2900
 1.2690	32.2960
 1.2700	32.3020
 1.2710	32.3070
 1.2720	32.3090
 1.2730	32.3070
 1.2740	32.3030
 1.2750	32.2990
 1.2760	32.2940
 1.2770	32.2890
 1.2780	32.2830
 1.2790	32.2750
 1.2800	32.2650
 1.2810	32.2520
 1.2820	32.2360
 1.2830	32.2180
 1.2840	32.1950
 1.2850	32.1690
 1.2860	32.1410
 1.2870	32.1110
 1.2880	32.0770
 1.2890	32.0420
 1.2900	32.0040
 1.2910	31.9630
 1.2920	31.9180
 1.2930	31.8700
 1.2940	31.8190
 1.2950	31.7630
 1.2960	31.7030
 1.2970	31.6420
 1.2980	31.5770
 1.2990	31.5060
 1.3000	31.4340
 1.3010	31.3580
 1.3020	31.2770
 1.3030	31.1940
 1.3040	31.1090
 1.3050	31.0190
 1.3060	30.9270
 1.3070	30.8310
 1.3080	30.7300
 1.3090	30.6240
 1.3100	30.5140
 1.3110	30.4020
 1.3120	30.2850
 1.3130	30.1660
 1.3140	30.0420
 1.3150	29.9140
 1.3160	29.7830
 1.3170	29.6480
 1.3180	29.5090
 1.3190	29.3670
 1.3200	29.2230
 1.3210	29.0740
 1.3220	28.9210
 1.3230	28.7660
 1.3240	28.6060
 1.3250	28.4460
 1.3260	28.2830
 1.3270	28.1180
 1.3280	27.9500
 1.3290	27.7790
 1.3300	27.6070
 1.3310	27.4350
 1.3320	27.2600
 1.3330	27.0850
 1.3340	26.9110
 1.3350	26.7350
 1.3360	26.5600
 1.3370	26.3860
 1.3380	26.2110
 1.3390	26.0390
 1.3400	25.8660
 1.3410	25.6960
 1.3420	25.5280
 1.3430	25.3630
 1.3440	25.2000
 1.3450	25.0410
 1.3460	24.8830
 1.3470	24.7290
 1.3480	24.5760
 1.3490	24.4270
 1.3500	24.2800
 1.3510	24.1360
 1.3520	23.9930
 1.3530	23.8520
 1.3540	23.7110
 1.3550	23.5720
 1.3560	23.4330
 1.3570	23.2940
 1.3580	23.1570
 1.3590	23.0180
 1.3600	22.8770
 1.3610	22.7340
 1.3620	22.5870
 1.3630	22.4380
 1.3640	22.2860
 1.3650	22.1270
 1.3660	21.9650
 1.3670	21.7950
 1.3680	21.6170
 1.3690	21.4310
 1.3700	21.2350
 1.3710	21.0310
 1.3720	20.8160
 1.3730	20.5880
 1.3740	20.3500
 1.3750	20.0980
 1.3760	19.8290
 1.3770	19.5470
 1.3780	19.2470
 1.3790	18.9330
 1.3800	18.6050
 1.3810	18.2600
 1.3820	17.9060
 1.3830	17.5390
 1.3840	17.1650
 1.3850	16.7790
 1.3860	16.3900
 1.3870	15.9900
 1.3880	15.5940
 1.3890	15.1940
 1.3900	14.7940
 1.3910	14.4000
 1.3920	14.0060
 1.3930	13.6150
 1.3940	13.2330
 1.3950	12.8520
 1.3960	12.4820
 1.3970	12.1230
 1.3980	11.7740
 1.3990	11.4420
 1.4000	11.1220
 1.4010	10.8130
 1.4020	10.5200
 1.4030	10.2390
 1.4040	 9.9720
 1.4050	 9.7200
 1.4060	 9.4800
 1.4070	 9.2560
 1.4080	 9.0450
 1.4090	 8.8470
 1.4100	 8.6630
 1.4110	 8.4890
 1.4120	 8.3260
 1.4130	 8.1740
 1.4140	 8.0320
 1.4150	 7.9020
 1.4160	 7.7810
 1.4170	 7.6680
 1.4180	 7.5640
 1.4190	 7.4660
 1.4200	 7.3760
 1.4210	 7.2930
 1.4220	 7.2150
 1.4230	 7.1440
 1.4240	 7.0780
 1.4250	 7.0170
 1.4260	 6.9610
 1.4270	 6.9090
 1.4280	 6.8610
 1.4290	 6.8170
 1.4300	 6.7770
 1.4310	 6.7400
 1.4320	 6.7080
 1.4330	 6.6770
 1.4340	 6.6500
 1.4350	 6.6260
 1.4360	 6.6040
 1.4370	 6.5850
 1.4380	 6.5690
 1.4390	 6.5550
 1.4400	 6.5430
 1.4410	 6.5330
 1.4420	 6.5250
 1.4430	 6.5180
 1.4440	 6.5130
 1.4450	 6.5080
 1.4460	 6.5060
 1.4470	 6.5040
 1.4480	 6.5050
 1.4490	 6.5070
 1.4500	 6.5090
 1.4510	 6.5110
 1.4520	 6.5150
 1.4530	 6.5190
 1.4540	 6.5240
 1.4550	 6.5320
 1.4560	 6.5390
 1.4570	 6.5490
 1.4580	 6.5610
 1.4590	 6.5740
 1.4600	 6.5880
 1.4610	 6.6040
 1.4620	 6.6210
 1.4630	 6.6410
 1.4640	 6.6630
 1.4650	 6.6880
 1.4660	 6.7150
 1.4670	 6.7430
 1.4680	 6.7740
 1.4690	 6.8070
 1.4700	 6.8420
 1.4710	 6.8790
 1.4720	 6.9180
 1.4730	 6.9590
 1.4740	 7.0020
 1.4750	 7.0460
 1.4760	 7.0930
 1.4770	 7.1400
 1.4780	 7.1880
 1.4790	 7.2380
 1.4800	 7.2890
 1.4810	 7.3410
 1.4820	 7.3960
 1.4830	 7.4500
 1.4840	 7.5060
 1.4850	 7.5610
 1.4860	 7.6180
 1.4870	 7.6770
 1.4880	 7.7350
 1.4890	 7.7940
 1.4900	 7.8530
 1.4910	 7.9120
 1.4920	 7.9730
 1.4930	 8.0330
 1.4940	 8.0950
 1.4950	 8.1570
 1.4960	 8.2190
 1.4970	 8.2810
 1.4980	 8.3440
 1.4990	 8.4060
 1.5000	 8.4690
 1.5010	 8.5330
 1.5020	 8.5960
 1.5030	 8.6610
 1.5040	 8.7260
 1.5050	 8.7910
 1.5060	 8.8560
 1.5070	 8.9220
 1.5080	 8.9860
 1.5090	 9.0500
 1.5100	 9.1140
 1.5110	 9.1770
 1.5120	 9.2420
 1.5130	 9.3050
 1.5140	 9.3700
 1.5150	 9.4350
 1.5160	 9.4990
 1.5170	 9.5630
 1.5180	 9.6270
 1.5190	 9.6910
 1.5200	 9.7540
 1.5210	 9.8170
 1.5220	 9.8800
 1.5230	 9.9420
 1.5240	10.0030
 1.5250	10.0640
 1.5260	10.1250
 1.5270	10.1860
 1.5280	10.2470
 1.5290	10.3070
 1.5300	10.3670
 1.5310	10.4270
 1.5320	10.4870
 1.5330	10.5460
 1.5340	10.6050
 1.5350	10.6630
 1.5360	10.7210
 1.5370	10.7760
 1.5380	10.8320
 1.5390	10.8910
 1.5400	10.9470
 1.5410	11.0040
 1.5420	11.0610
 1.5430	11.1150
 1.5440	11.1700
 1.5450	11.2260
 1.5460	11.2800
 1.5470	11.3340
 1.5480	11.3880
 1.5490	11.4420
 1.5500	11.4960
 1.5510	11.5500
 1.5520	11.6040
 1.5530	11.6560
 1.5540	11.7070
 1.5550	11.7580
 1.5560	11.8070
 1.5570	11.8580
 1.5580	11.9080
 1.5590	11.9570
 1.5600	12.0070
 1.5610	12.0580
 1.5620	12.1070
 1.5630	12.1550
 1.5640	12.2030
 1.5650	12.2500
 1.5660	12.2980
 1.5670	12.3470
 1.5680	12.3950
 1.5690	12.4410
 1.5700	12.4870
 1.5710	12.5330
 1.5720	12.5790
 1.5730	12.6270
 1.5740	12.6740
 1.5750	12.7200
 1.5760	12.7680
 1.5770	12.8150
 1.5780	12.8620
 1.5790	12.9100
 1.5800	12.9580
 1.5810	13.0040
 1.5820	13.0490
 1.5830	13.0940
 1.5840	13.1390
 1.5850	13.1840
 1.5860	13.2300
 1.5870	13.2770
 1.5880	13.3220
 1.5890	13.3670
 1.5900	13.4110
 1.5910	13.4550
 1.5920	13.5000
 1.5930	13.5460
 1.5940	13.5910
 1.5950	13.6370
 1.5960	13.6820
 1.5970	13.7270
 1.5980	13.7720
 1.5990	13.8160
 1.6000	13.8600
 1.6010	13.9020
 1.6020	13.9460
 1.6030	13.9900
 1.6040	14.0330
 1.6050	14.0750
 1.6060	14.1150
 1.6070	14.1550
 1.6080	14.1960
 1.6090	14.2370
 1.6100	14.2790
 1.6110	14.3190
 1.6120	14.3580
 1.6130	14.3970
 1.6140	14.4360
 1.6150	14.4750
 1.6160	14.5130
 1.6170	14.5500
 1.6180	14.5860
 1.6190	14.6220
 1.6200	14.6560
 1.6210	14.6910
 1.6220	14.7250
 1.6230	14.7580
 1.6240	14.7900
 1.6250	14.8220
 1.6260	14.8520
 1.6270	14.8830
 1.6280	14.9130
 1.6290	14.9420
 1.6300	14.9700
 1.6310	14.9980
 1.6320	15.0260
 1.6330	15.0530
 1.6340	15.0800
 1.6350	15.1050
 1.6360	15.1300
 1.6370	15.1530
 1.6380	15.1760
 1.6390	15.1970
 1.6400	15.2180
 1.6410	15.2360
 1.6420	15.2530
 1.6430	15.2670
 1.6440	15.2790
 1.6450	15.2880
 1.6460	15.2950
 1.6470	15.3010
 1.6480	15.3040
 1.6490	15.3050
 1.6500	15.3050
 1.6510	15.3010
 1.6520	15.2960
 1.6530	15.2890
 1.6540	15.2800
 1.6550	15.2700
 1.6560	15.2580
 1.6570	15.2460
 1.6580	15.2340
 1.6590	15.2220
 1.6600	15.2090
 1.6610	15.1940
 1.6620	15.1790
 1.6630	15.1650
 1.6640	15.1510
 1.6650	15.1390
 1.6660	15.1280
 1.6670	15.1160
 1.6680	15.1070
 1.6690	15.0970
 1.6700	15.0870
 1.6710	15.0790
 1.6720	15.0680
 1.6730	15.0560
 1.6740	15.0410
 1.6750	15.0230
 1.6760	15.0060
 1.6770	14.9890
 1.6780	14.9680
 1.6790	14.9460
 1.6800	14.9210
 1.6810	14.8920
 1.6820	14.8620
 1.6830	14.8310
 1.6840	14.7970
 1.6850	14.7610
 1.6860	14.7220
 1.6870	14.6830
 1.6880	14.6420
 1.6890	14.5990
 1.6900	14.5550
 1.6910	14.5080
 1.6920	14.4610
 1.6930	14.4110
 1.6940	14.3640
 1.6950	14.3170
 1.6960	14.2700
 1.6970	14.2230
 1.6980	14.1750
 1.6990	14.1270
 1.7000	14.0780
 1.7010	14.0300
 1.7020	13.9810
 1.7030	13.9300
 1.7040	13.8820
 1.7050	13.8350
 1.7060	13.7870
 1.7070	13.7410
 1.7080	13.6950
 1.7090	13.6480
 1.7100	13.6040
 1.7110	13.5600
 1.7120	13.5180
 1.7130	13.4780
 1.7140	13.4410
 1.7150	13.4080
 1.7160	13.3750
 1.7170	13.3440
 1.7180	13.3150
 1.7190	13.2870
 1.7200	13.2630
 1.7210	13.2410
 1.7220	13.2180
 1.7230	13.1980
 1.7240	13.1790
 1.7250	13.1610
 1.7260	13.1500
 1.7270	13.1390
 1.7280	13.1300
 1.7290	13.1200
 1.7300	13.1100
 1.7310	13.1010
 1.7320	13.0940
 1.7330	13.0860
 1.7340	13.0780
 1.7350	13.0680
 1.7360	13.0590
 1.7370	13.0450
 1.7380	13.0260
 1.7390	13.0060
 1.7400	12.9810
 1.7410	12.9550
 1.7420	12.9290
 1.7430	12.9000
 1.7440	12.8690
 1.7450	12.8360
 1.7460	12.8000
 1.7470	12.7650
 1.7480	12.7280
 1.7490	12.6930
 1.7500	12.6600
 1.7510	12.6260
 1.7520	12.5930
 1.7530	12.5620
 1.7540	12.5310
 1.7550	12.5020
 1.7560	12.4750
 1.7570	12.4490
 1.7580	12.4250
 1.7590	12.4030
 1.7600	12.3830
 1.7610	12.3640
 1.7620	12.3450
 1.7630	12.3270
 1.7640	12.3110
 1.7650	12.2980
 1.7660	12.2850
 1.7670	12.2730
 1.7680	12.2610
 1.7690	12.2500
 1.7700	12.2380
 1.7710	12.2250
 1.7720	12.2140
 1.7730	12.2040
 1.7740	12.1930
 1.7750	12.1830
 1.7760	12.1730
 1.7770	12.1630
 1.7780	12.1550
 1.7790	12.1500
 1.7800	12.1440
 1.7810	12.1390
 1.7820	12.1340
 1.7830	12.1310
 1.7840	12.1290
 1.7850	12.1280
 1.7860	12.1280
 1.7870	12.1280
 1.7880	12.1300
 1.7890	12.1340
 1.7900	12.1390
 1.7910	12.1450
 1.7920	12.1500
 1.7930	12.1560
 1.7940	12.1630
 1.7950	12.1710
 1.7960	12.1800
 1.7970	12.1900
 1.7980	12.2000
 1.7990	12.2090
 1.8000	12.2190
 1.8010	12.2280
 1.8020	12.2380
 1.8030	12.2470
 1.8040	12.2570
 1.8050	12.2660
 1.8060	12.2750
 1.8070	12.2840
 1.8080	12.2920
 1.8090	12.3010
 1.8100	12.3090
 1.8110	12.3190
 1.8120	12.3280
 1.8130	12.3360
 1.8140	12.3460
 1.8150	12.3530
 1.8160	12.3600
 1.8170	12.3670
 1.8180	12.3750
 1.8190	12.3820
 1.8200	12.3870
 1.8210	12.3860
 1.8220	12.3880
 1.8230	12.3890
 1.8240	12.3900
 1.8250	12.3930
 1.8260	12.3940
 1.8270	12.3960
 1.8280	12.3980
 1.8290	12.4000
 1.8300	12.4020
 1.8310	12.4040
 1.8320	12.4060
 1.8330	12.4080
 1.8340	12.4100
 1.8350	12.4100
 1.8360	12.3950
 1.8370	12.3780
 1.8380	12.3570
 1.8390	12.3320
 1.8400	12.3050
 1.8410	12.2730
 1.8420	12.2370
 1.8430	12.2010
 1.8440	12.1590
 1.8450	12.1130
 1.8460	12.0620
 1.8470	12.0050
 1.8480	11.9460
 1.8490	11.8800
 1.8500	11.8080
 1.8510	11.7300
 1.8520	11.6480
 1.8530	11.5580
 1.8540	11.4640
 1.8550	11.3630
 1.8560	11.2520
 1.8570	11.1320
 1.8580	11.0040
 1.8590	10.8710
 1.8600	10.7300
 1.8610	10.5820
 1.8620	10.4270
 1.8630	10.2660
 1.8640	10.0970
 1.8650	 9.9180
 1.8660	 9.7320
 1.8670	 9.5340
 1.8680	 9.3270
 1.8690	 9.1120
 1.8700	 8.8890
 1.8710	 8.6570
 1.8720	 8.4200
 1.8730	 8.1800
 1.8740	 7.9360
 1.8750	 7.6890
 1.8760	 7.4410
 1.8770	 7.1920
 1.8780	 6.9430
 1.8790	 6.6950
 1.8800	 6.4530
 1.8810	 6.2140
 1.8820	 5.9750
 1.8830	 5.7390
 1.8840	 5.5040
 1.8850	 5.2710
 1.8860	 5.0450
 1.8870	 4.8290
 1.8880	 4.6210
 1.8890	 4.4220
 1.8900	 4.2290
 1.8910	 4.0470
 1.8920	 3.8720
 1.8930	 3.7060
 1.8940	 3.5500
 1.8950	 3.4070
 1.8960	 3.2720
 1.8970	 3.1470
 1.8980	 3.0340
 1.8990	 2.9270
 1.9000	 2.8290
 1.9010	 2.7420
 1.9020	 2.6600
 1.9030	 2.5850
 1.9040	 2.5180
 1.9050	 2.4560
 1.9060	 2.4000
 1.9070	 2.3520
 1.9080	 2.3070
 1.9090	 2.2670
 1.9100	 2.2320
 1.9110	 2.1990
 1.9120	 2.1710
 1.9130	 2.1440
 1.9140	 2.1190
 1.9150	 2.0970
 1.9160	 2.0790
 1.9170	 2.0620
 1.9180	 2.0480
 1.9190	 2.0360
 1.9200	 2.0240
 1.9210	 2.0130
 1.9220	 2.0040
 1.9230	 1.9950
 1.9240	 1.9890
 1.9250	 1.9850
 1.9260	 1.9820
 1.9270	 1.9800
 1.9280	 1.9790
 1.9290	 1.9780
 1.9300	 1.9790
 1.9310	 1.9830
 1.9320	 1.9850
 1.9330	 1.9890
 1.9340	 1.9940
 1.9350	 2.0000
 1.9360	 2.0070
 1.9370	 2.0140
 1.9380	 2.0210
 1.9390	 2.0300
 1.9400	 2.0390
 1.9410	 2.0460
 1.9420	 2.0560
 1.9430	 2.0670
 1.9440	 2.0780
 1.9450	 2.0900
 1.9460	 2.1030
 1.9470	 2.1150
 1.9480	 2.1270
 1.9490	 2.1390
 1.9500	 2.1530
 1.9510	 2.1650
 1.9520	 2.1780
 1.9530	 2.1930
 1.9540	 2.2090
 1.9550	 2.2240
 1.9560	 2.2410
 1.9570	 2.2570
 1.9580	 2.2700
 1.9590	 2.2860
 1.9600	 2.3030
 1.9610	 2.3210
 1.9620	 2.3410
 1.9630	 2.3620
 1.9640	 2.3820
 1.9650	 2.4010
 1.9660	 2.4200
 1.9670	 2.4390
 1.9680	 2.4580
 1.9690	 2.4760
 1.9700	 2.4980
 1.9710	 2.5210
 1.9720	 2.5430
 1.9730	 2.5670
 1.9740	 2.5890
 1.9750	 2.6080
 1.9760	 2.6310
 1.9770	 2.6540
 1.9780	 2.6760
 1.9790	 2.6990
 1.9800	 2.7210
 1.9810	 2.7460
 1.9820	 2.7710
 1.9830	 2.7970
 1.9840	 2.8270
 1.9850	 2.8540
 1.9860	 2.8800
 1.9870	 2.9050
 1.9880	 2.9320
 1.9890	 2.9580
 1.9900	 2.9820
 1.9910	 3.0100
 1.9920	 3.0360
 1.9930	 3.0610
 1.9940	 3.0880
 1.9950	 3.1170
 1.9960	 3.1440
 1.9970	 3.1720
 1.9980	 3.2000
 1.9990	 3.2300
 2.0000	 3.2560
 2.0010	 3.2820
 2.0020	 3.3090
 2.0030	 3.3340
 2.0040	 3.3610
 2.0050	 3.3880
 2.0060	 3.4180
 2.0070	 3.4450
 2.0080	 3.4710
 2.0090	 3.4980
 2.0100	 3.5220
 2.0110	 3.5480
 2.0120	 3.5730
 2.0130	 3.5980
 2.0140	 3.6240
 2.0150	 3.6480
 2.0160	 3.6730
 2.0170	 3.6990
 2.0180	 3.7230
 2.0190	 3.7460
 2.0200	 3.7690
 2.0210	 3.7930
 2.0220	 3.8150
 2.0230	 3.8380
 2.0240	 3.8610
 2.0250	 3.8830
 2.0260	 3.9060
 2.0270	 3.9300
 2.0280	 3.9550
 2.0290	 3.9740
 2.0300	 3.9910
 2.0310	 4.0080
 2.0320	 4.0210
 2.0330	 4.0390
 2.0340	 4.0600
 2.0350	 4.0800
 2.0360	 4.1010
 2.0370	 4.1200
 2.0380	 4.1380
 2.0390	 4.1550
 2.0400	 4.1650
 2.0410	 4.1800
 2.0420	 4.1940
 2.0430	 4.2100
 2.0440	 4.2270
 2.0450	 4.2470
 2.0460	 4.2640
 2.0470	 4.2800
 2.0480	 4.2950
 2.0490	 4.3070
 2.0500	 4.3210
 2.0510	 4.3360
 2.0520	 4.3500
 2.0530	 4.3650
 2.0540	 4.3790
 2.0550	 4.3910
 2.0560	 4.4050
 2.0570	 4.4190
 2.0580	 4.4340
 2.0590	 4.4490
 2.0600	 4.4650
 2.0610	 4.4790
 2.0620	 4.4930
 2.0630	 4.5080
 2.0640	 4.5230
 2.0650	 4.5380
 2.0660	 4.5530
 2.0670	 4.5680
 2.0680	 4.5840
 2.0690	 4.5990
 2.0700	 4.6140
 2.0710	 4.6290
 2.0720	 4.6430
 2.0730	 4.6550
 2.0740	 4.6700
 2.0750	 4.6860
 2.0760	 4.6990
 2.0770	 4.7100
 2.0780	 4.7240
 2.0790	 4.7360
 2.0800	 4.7500
 2.0810	 4.7680
 2.0820	 4.7840
 2.0830	 4.8000
 2.0840	 4.8160
 2.0850	 4.8310
 2.0860	 4.8470
 2.0870	 4.8620
 2.0880	 4.8770
 2.0890	 4.8910
 2.0900	 4.9040
 2.0910	 4.9190
 2.0920	 4.9340
 2.0930	 4.9480
 2.0940	 4.9610
 2.0950	 4.9760
 2.0960	 4.9890
 2.0970	 5.0040
 2.0980	 5.0220
 2.0990	 5.0380
 2.1000	 5.0520
 2.1010	 5.0670
 2.1020	 5.0810
 2.1030	 5.0950
 2.1040	 5.1090
 2.1050	 5.1250
 2.1060	 5.1390
 2.1070	 5.1530
 2.1080	 5.1660
 2.1090	 5.1780
 2.1100	 5.1910
 2.1110	 5.2040
 2.1120	 5.2180
 2.1130	 5.2340
 2.1140	 5.2490
 2.1150	 5.2660
 2.1160	 5.2810
 2.1170	 5.2960
 2.1180	 5.3100
 2.1190	 5.3220
 2.1200	 5.3350
 2.1210	 5.3470
 2.1220	 5.3580
 2.1230	 5.3700
 2.1240	 5.3810
 2.1250	 5.3930
 2.1260	 5.4060
 2.1270	 5.4180
 2.1280	 5.4320
 2.1290	 5.4440
 2.1300	 5.4550
 2.1310	 5.4670
 2.1320	 5.4790
 2.1330	 5.4910
 2.1340	 5.5070
 2.1350	 5.5200
 2.1360	 5.5330
 2.1370	 5.5460
 2.1380	 5.5560
 2.1390	 5.5690
 2.1400	 5.5840
 2.1410	 5.5980
 2.1420	 5.6130
 2.1430	 5.6290
 2.1440	 5.6440
 2.1450	 5.6600
 2.1460	 5.6760
 2.1470	 5.6940
 2.1480	 5.7090
 2.1490	 5.7220
 2.1500	 5.7380
 2.1510	 5.7530
 2.1520	 5.7680
 2.1530	 5.7850
 2.1540	 5.8010
 2.1550	 5.8140
 2.1560	 5.8300
 2.1570	 5.8480
 2.1580	 5.8650
 2.1590	 5.8800
 2.1600	 5.8980
 2.1610	 5.9170
 2.1620	 5.9320
 2.1630	 5.9480
 2.1640	 5.9650
 2.1650	 5.9810
 2.1660	 5.9960
 2.1670	 6.0110
 2.1680	 6.0260
 2.1690	 6.0410
 2.1700	 6.0570
 2.1710	 6.0720
 2.1720	 6.0880
 2.1730	 6.1020
 2.1740	 6.1160
 2.1750	 6.1300
 2.1760	 6.1430
 2.1770	 6.1570
 2.1780	 6.1730
 2.1790	 6.1880
 2.1800	 6.2080
 2.1810	 6.2250
 2.1820	 6.2410
 2.1830	 6.2550
 2.1840	 6.2710
 2.1850	 6.2870
 2.1860	 6.3030
 2.1870	 6.3190
 2.1880	 6.3360
 2.1890	 6.3520
 2.1900	 6.3660
 2.1910	 6.3800
 2.1920	 6.3950
 2.1930	 6.4070
 2.1940	 6.4210
 2.1950	 6.4400
 2.1960	 6.4550
 2.1970	 6.4670
 2.1980	 6.4810
 2.1990	 6.4980
 2.2000	 6.5100
 2.2010	 6.5220
 2.2020	 6.5330
 2.2030	 6.5400
 2.2040	 6.5490
 2.2050	 6.5580
 2.2060	 6.5700
 2.2070	 6.5830
 2.2080	 6.5980
 2.2090	 6.6100
 2.2100	 6.6240
 2.2110	 6.6330
 2.2120	 6.6350
 2.2130	 6.6400
 2.2140	 6.6460
 2.2150	 6.6510
 2.2160	 6.6590
 2.2170	 6.6620
 2.2180	 6.6600
 2.2190	 6.6590
 2.2200	 6.6540
 2.2210	 6.6510
 2.2220	 6.6490
 2.2230	 6.6450
 2.2240	 6.6410
 2.2250	 6.6340
 2.2260	 6.6240
 2.2270	 6.6150
 2.2280	 6.6040
 2.2290	 6.5920
 2.2300	 6.5810
 2.2310	 6.5670
 2.2320	 6.5480
 2.2330	 6.5280
 2.2340	 6.5060
 2.2350	 6.4830
 2.2360	 6.4580
 2.2370	 6.4310
 2.2380	 6.4030
 2.2390	 6.3720
 2.2400	 6.3420
 2.2410	 6.3140
 2.2420	 6.2830
 2.2430	 6.2530
 2.2440	 6.2150
 2.2450	 6.1690
 2.2460	 6.1260
 2.2470	 6.0740
 2.2480	 6.0290
 2.2490	 5.9900
 2.2500	 5.9470
 2.2510	 5.9040
 2.2520	 5.8610
 2.2530	 5.8160
 2.2540	 5.7730
 2.2550	 5.7310
 2.2560	 5.6910
 2.2570	 5.6510
 2.2580	 5.6110
 2.2590	 5.5730
 2.2600	 5.5340
 2.2610	 5.4930
 2.2620	 5.4530
 2.2630	 5.4110
 2.2640	 5.3740
 2.2650	 5.3380
 2.2660	 5.3000
 2.2670	 5.2660
 2.2680	 5.2350
 2.2690	 5.2040
 2.2700	 5.1730
 2.2710	 5.1430
 2.2720	 5.1140
 2.2730	 5.0860
 2.2740	 5.0570
 2.2750	 5.0330
 2.2760	 5.0130
 2.2770	 4.9900
 2.2780	 4.9720
 2.2790	 4.9480
 2.2800	 4.9190
 2.2810	 4.8910
 2.2820	 4.8590
 2.2830	 4.8310
 2.2840	 4.8050
 2.2850	 4.7790
 2.2860	 4.7560
 2.2870	 4.7300
 2.2880	 4.7020
 2.2890	 4.6750
 2.2900	 4.6470
 2.2910	 4.6190
 2.2920	 4.5940
 2.2930	 4.5660
 2.2940	 4.5340
 2.2950	 4.5060
 2.2960	 4.4770
 2.2970	 4.4510
 2.2980	 4.4290
 2.2990	 4.4050
 2.3000	 4.3800
 2.3010	 4.3560
 2.3020	 4.3310
 2.3030	 4.3110
 2.3040	 4.2980
 2.3050	 4.2890
 2.3060	 4.2810
 2.3070	 4.2710
 2.3080	 4.2620
 2.3090	 4.2530
 2.3100	 4.2480
 2.3110	 4.2500
 2.3120	 4.2510
 2.3130	 4.2580
 2.3140	 4.2540
 2.3150	 4.2450
 2.3160	 4.2390
 2.3170	 4.2270
 2.3180	 4.2180
 2.3190	 4.2120
 2.3200	 4.2080
 2.3210	 4.2020
 2.3220	 4.1980
 2.3230	 4.2010
 2.3240	 4.1960
 2.3250	 4.1860
 2.3260	 4.1750
 2.3270	 4.1610
 2.3280	 4.1450
 2.3290	 4.1270
 2.3300	 4.1100
 2.3310	 4.0930
 2.3320	 4.0780
 2.3330	 4.0640
 2.3340	 4.0490
 2.3350	 4.0330
 2.3360	 4.0170
 2.3370	 3.9970
 2.3380	 3.9810
 2.3390	 3.9700
 2.3400	 3.9560
 2.3410	 3.9450
 2.3420	 3.9330
 2.3430	 3.9210
 2.3440	 3.9070
 2.3450	 3.8900
 2.3460	 3.8740
 2.3470	 3.8510
 2.3480	 3.8340
 2.3490	 3.8170
 2.3500	 3.8040
 2.3510	 3.7940
 2.3520	 3.7870
 2.3530	 3.7860
 2.3540	 3.7850
 2.3550	 3.7730
 2.3560	 3.7670
 2.3570	 3.7640
 2.3580	 3.7570
 2.3590	 3.7560
 2.3600	 3.7550
 2.3610	 3.7410
 2.3620	 3.7230
 2.3630	 3.7110
 2.3640	 3.7010
 2.3650	 3.6880
 2.3660	 3.6740
 2.3670	 3.6670
 2.3680	 3.6460
 2.3690	 3.6180
 2.3700	 3.6090
 2.3710	 3.5940
 2.3720	 3.5770
 2.3730	 3.5760
 2.3740	 3.5690
 2.3750	 3.5560
 2.3760	 3.5480
 2.3770	 3.5390
 2.3780	 3.5300
 2.3790	 3.5240
 2.3800	 3.5150
 2.3810	 3.5070
 2.3820	 3.4950
 2.3830	 3.4780
 2.3840	 3.4640
 2.3850	 3.4460
 2.3860	 3.4250
 2.3870	 3.4130
 2.3880	 3.4050
 2.3890	 3.3920
 2.3900	 3.3830
 2.3910	 3.3690
 2.3920	 3.3460
 2.3930	 3.3260
 2.3940	 3.3090
 2.3950	 3.2970
 2.3960	 3.2820
 2.3970	 3.2590
 2.3980	 3.2340
 2.3990	 3.2150
 2.4000	 3.2000
 2.4010	 3.1900
 2.4020	 3.1850
 2.4030	 3.1770
 2.4040	 3.1570
 2.4050	 3.1400
 2.4060	 3.1310
 2.4070	 3.1190
 2.4080	 3.1010
 2.4090	 3.0860
 2.4100	 3.0770
 2.4110	 3.0540
 2.4120	 3.0380
 2.4130	 3.0400
 2.4140	 3.0290
 2.4150	 3.0190
 2.4160	 3.0070
 2.4170	 2.9740
 2.4180	 2.9480
 2.4190	 2.9270
 2.4200	 2.9130
 2.4210	 2.9150
 2.4220	 2.9030
 2.4230	 2.8850
 2.4240	 2.8710
 2.4250	 2.8480
 2.4260	 2.8250
 2.4270	 2.8140
 2.4280	 2.7970
 2.4290	 2.7760
 2.4300	 2.7570
 2.4310	 2.7370
 2.4320	 2.7250
 2.4330	 2.7130
 2.4340	 2.7080
 2.4350	 2.6910
 2.4360	 2.6750
 2.4370	 2.6790
 2.4380	 2.6660
 2.4390	 2.6510
 2.4400	 2.6390
 2.4410	 2.6150
 2.4420	 2.5960
 2.4430	 2.5800
 2.4440	 2.5580
 2.4450	 2.5260
 2.4460	 2.4880
 2.4470	 2.4620
 2.4480	 2.4460
 2.4490	 2.4480
 2.4500	 2.4480
 2.4510	 2.4270
 2.4520	 2.4110
 2.4530	 2.3840
 2.4540	 2.3490
 2.4550	 2.3350
 2.4560	 2.3370
 2.4570	 2.3310
 2.4580	 2.3310
 2.4590	 2.3410
 2.4600	 2.3140
 2.4610	 2.2870
 2.4620	 2.2700
 2.4630	 2.2420
 2.4640	 2.2320
 2.4650	 2.2110
 2.4660	 2.1860
 2.4670	 2.1830
 2.4680	 2.1660
 2.4690	 2.1510
 2.4700	 2.1450
 2.4710	 2.1330
 2.4720	 2.1250
 2.4730	 2.1340
 2.4740	 2.1350
 2.4750	 2.1240
 2.4760	 2.1280
 2.4770	 2.1360
 2.4780	 2.1410
 2.4790	 2.1590
 2.4800	 2.1630
 2.4810	 2.1590
 2.4820	 2.1560
 2.4830	 2.1330
 2.4840	 2.0990
 2.4850	 2.0950
 2.4860	 2.0780
 2.4870	 2.0460
 2.4880	 2.0400
 2.4890	 2.0140
 2.4900	 1.9750
 2.4910	 1.9860
 2.4920	 2.0090
 2.4930	 2.0220
 2.4940	 2.0650
 2.4950	 2.0780
 2.4960	 2.0340
 2.4970	 2.0280
 2.4980	 2.0350
 2.4990	 2.0270
 2.5000	 2.0510
