Name: Heteromeles arbutifolia 2
Type: vegetation
Class: Shrub
Genus: Heteromeles
Species: arbutifolia
Sample No.: VH135
Owner: UCSB
Wavelength Range: VSWIR
Origin: 34.4907; -119.7912; WGS84
Collection Date: 6/3/2013
Description: Samples were collected as part of the HyspIRI Airborne Campaign. 48 individual plants were sampled in three times in 2013 - spring  summer  and fall. The name of the sample includes a 1  2  or 3 which references a different individual of the species. Samples were taken to JPL and processed within 48 hours of collection. The same leaves were processed in the Nicolet and then measured using the ASD.
Measurement: Bidirectional reflectance
First Column: X
Second Column: Y
X Units: Wavelength (micrometers)
Y Units: Reflectance (percentage)
First X Value: 0.35
Last X Value: 2.5
Number of X Values: 2151
Additional Information: vegetation.shrub.heteromeles.arbutifolia.vswir.vh135.ucsb.asd.ancillary.txt

 0.3500	 6.8410
 0.3510	 6.8000
 0.3520	 6.7520
 0.3530	 6.7570
 0.3540	 6.8270
 0.3550	 6.6980
 0.3560	 6.6610
 0.3570	 6.7430
 0.3580	 6.8150
 0.3590	 6.7480
 0.3600	 6.7220
 0.3610	 6.7770
 0.3620	 6.7150
 0.3630	 6.5780
 0.3640	 6.5130
 0.3650	 6.6070
 0.3660	 6.6300
 0.3670	 6.6160
 0.3680	 6.5700
 0.3690	 6.4880
 0.3700	 6.4760
 0.3710	 6.4840
 0.3720	 6.4840
 0.3730	 6.5410
 0.3740	 6.5680
 0.3750	 6.5540
 0.3760	 6.5250
 0.3770	 6.5650
 0.3780	 6.5700
 0.3790	 6.5160
 0.3800	 6.4550
 0.3810	 6.4580
 0.3820	 6.4710
 0.3830	 6.4620
 0.3840	 6.4840
 0.3850	 6.4930
 0.3860	 6.5030
 0.3870	 6.5300
 0.3880	 6.4900
 0.3890	 6.4420
 0.3900	 6.4280
 0.3910	 6.4650
 0.3920	 6.4570
 0.3930	 6.4250
 0.3940	 6.4060
 0.3950	 6.4190
 0.3960	 6.4280
 0.3970	 6.4350
 0.3980	 6.4490
 0.3990	 6.4130
 0.4000	 6.3810
 0.4010	 6.3840
 0.4020	 6.4030
 0.4030	 6.4360
 0.4040	 6.4360
 0.4050	 6.3860
 0.4060	 6.3820
 0.4070	 6.4090
 0.4080	 6.4370
 0.4090	 6.4340
 0.4100	 6.4270
 0.4110	 6.4240
 0.4120	 6.4270
 0.4130	 6.4280
 0.4140	 6.4490
 0.4150	 6.4720
 0.4160	 6.4760
 0.4170	 6.5020
 0.4180	 6.5210
 0.4190	 6.5300
 0.4200	 6.5510
 0.4210	 6.5360
 0.4220	 6.5330
 0.4230	 6.5700
 0.4240	 6.5870
 0.4250	 6.6080
 0.4260	 6.6220
 0.4270	 6.6070
 0.4280	 6.6160
 0.4290	 6.6290
 0.4300	 6.6370
 0.4310	 6.6570
 0.4320	 6.6640
 0.4330	 6.6650
 0.4340	 6.6710
 0.4350	 6.6690
 0.4360	 6.6700
 0.4370	 6.6730
 0.4380	 6.6750
 0.4390	 6.6800
 0.4400	 6.6860
 0.4410	 6.6900
 0.4420	 6.7010
 0.4430	 6.7130
 0.4440	 6.7160
 0.4450	 6.7030
 0.4460	 6.7090
 0.4470	 6.7230
 0.4480	 6.7380
 0.4490	 6.7520
 0.4500	 6.7600
 0.4510	 6.7660
 0.4520	 6.7730
 0.4530	 6.7740
 0.4540	 6.7740
 0.4550	 6.7730
 0.4560	 6.7650
 0.4570	 6.7730
 0.4580	 6.7750
 0.4590	 6.7620
 0.4600	 6.7680
 0.4610	 6.7700
 0.4620	 6.7660
 0.4630	 6.7660
 0.4640	 6.7710
 0.4650	 6.7750
 0.4660	 6.7740
 0.4670	 6.7690
 0.4680	 6.7660
 0.4690	 6.7610
 0.4700	 6.7520
 0.4710	 6.7580
 0.4720	 6.7550
 0.4730	 6.7490
 0.4740	 6.7580
 0.4750	 6.7620
 0.4760	 6.7610
 0.4770	 6.7560
 0.4780	 6.7480
 0.4790	 6.7430
 0.4800	 6.7440
 0.4810	 6.7550
 0.4820	 6.7530
 0.4830	 6.7540
 0.4840	 6.7620
 0.4850	 6.7690
 0.4860	 6.7660
 0.4870	 6.7690
 0.4880	 6.7840
 0.4890	 6.7940
 0.4900	 6.8010
 0.4910	 6.8070
 0.4920	 6.8130
 0.4930	 6.8270
 0.4940	 6.8400
 0.4950	 6.8500
 0.4960	 6.8660
 0.4970	 6.8860
 0.4980	 6.9100
 0.4990	 6.9390
 0.5000	 6.9620
 0.5010	 6.9920
 0.5020	 7.0300
 0.5030	 7.0690
 0.5040	 7.1150
 0.5050	 7.1640
 0.5060	 7.2180
 0.5070	 7.2850
 0.5080	 7.3580
 0.5090	 7.4390
 0.5100	 7.5310
 0.5110	 7.6300
 0.5120	 7.7370
 0.5130	 7.8550
 0.5140	 7.9980
 0.5150	 8.1420
 0.5160	 8.2970
 0.5170	 8.4730
 0.5180	 8.6560
 0.5190	 8.8500
 0.5200	 9.0540
 0.5210	 9.2610
 0.5220	 9.4740
 0.5230	 9.6940
 0.5240	 9.9210
 0.5250	10.1370
 0.5260	10.3440
 0.5270	10.5470
 0.5280	10.7480
 0.5290	10.9350
 0.5300	11.1080
 0.5310	11.2710
 0.5320	11.4240
 0.5330	11.5620
 0.5340	11.6850
 0.5350	11.7990
 0.5360	11.9020
 0.5370	11.9960
 0.5380	12.0810
 0.5390	12.1550
 0.5400	12.2270
 0.5410	12.2930
 0.5420	12.3540
 0.5430	12.4180
 0.5440	12.4750
 0.5450	12.5270
 0.5460	12.5800
 0.5470	12.6240
 0.5480	12.6630
 0.5490	12.6990
 0.5500	12.7290
 0.5510	12.7530
 0.5520	12.7660
 0.5530	12.7620
 0.5540	12.7440
 0.5550	12.7130
 0.5560	12.6660
 0.5570	12.6010
 0.5580	12.5250
 0.5590	12.4380
 0.5600	12.3380
 0.5610	12.2270
 0.5620	12.1100
 0.5630	11.9840
 0.5640	11.8490
 0.5650	11.7090
 0.5660	11.5620
 0.5670	11.4090
 0.5680	11.2530
 0.5690	11.0880
 0.5700	10.9240
 0.5710	10.7720
 0.5720	10.6270
 0.5730	10.4870
 0.5740	10.3510
 0.5750	10.2270
 0.5760	10.1150
 0.5770	10.0140
 0.5780	 9.9210
 0.5790	 9.8290
 0.5800	 9.7430
 0.5810	 9.6640
 0.5820	 9.5920
 0.5830	 9.5240
 0.5840	 9.4550
 0.5850	 9.3880
 0.5860	 9.3300
 0.5870	 9.2700
 0.5880	 9.2090
 0.5890	 9.1550
 0.5900	 9.1140
 0.5910	 9.0840
 0.5920	 9.0600
 0.5930	 9.0360
 0.5940	 9.0090
 0.5950	 8.9850
 0.5960	 8.9640
 0.5970	 8.9350
 0.5980	 8.9060
 0.5990	 8.8800
 0.6000	 8.8540
 0.6010	 8.8240
 0.6020	 8.7900
 0.6030	 8.7530
 0.6040	 8.7190
 0.6050	 8.6710
 0.6060	 8.6180
 0.6070	 8.5670
 0.6080	 8.5140
 0.6090	 8.4560
 0.6100	 8.3970
 0.6110	 8.3420
 0.6120	 8.2820
 0.6130	 8.2200
 0.6140	 8.1600
 0.6150	 8.1090
 0.6160	 8.0580
 0.6170	 8.0060
 0.6180	 7.9610
 0.6190	 7.9230
 0.6200	 7.8880
 0.6210	 7.8550
 0.6220	 7.8270
 0.6230	 7.8060
 0.6240	 7.7870
 0.6250	 7.7650
 0.6260	 7.7520
 0.6270	 7.7390
 0.6280	 7.7280
 0.6290	 7.7230
 0.6300	 7.7140
 0.6310	 7.7040
 0.6320	 7.6940
 0.6330	 7.6810
 0.6340	 7.6630
 0.6350	 7.6400
 0.6360	 7.6110
 0.6370	 7.5800
 0.6380	 7.5430
 0.6390	 7.4990
 0.6400	 7.4510
 0.6410	 7.4040
 0.6420	 7.3540
 0.6430	 7.3020
 0.6440	 7.2540
 0.6450	 7.2040
 0.6460	 7.1590
 0.6470	 7.1200
 0.6480	 7.0810
 0.6490	 7.0450
 0.6500	 7.0170
 0.6510	 6.9950
 0.6520	 6.9700
 0.6530	 6.9490
 0.6540	 6.9330
 0.6550	 6.9190
 0.6560	 6.8970
 0.6570	 6.8710
 0.6580	 6.8450
 0.6590	 6.8170
 0.6600	 6.7900
 0.6610	 6.7660
 0.6620	 6.7460
 0.6630	 6.7240
 0.6640	 6.7020
 0.6650	 6.6840
 0.6660	 6.6700
 0.6670	 6.6620
 0.6680	 6.6600
 0.6690	 6.6600
 0.6700	 6.6640
 0.6710	 6.6690
 0.6720	 6.6750
 0.6730	 6.6890
 0.6740	 6.7000
 0.6750	 6.7130
 0.6760	 6.7310
 0.6770	 6.7530
 0.6780	 6.7770
 0.6790	 6.8040
 0.6800	 6.8320
 0.6810	 6.8660
 0.6820	 6.9050
 0.6830	 6.9480
 0.6840	 6.9900
 0.6850	 7.0380
 0.6860	 7.0970
 0.6870	 7.1700
 0.6880	 7.2590
 0.6890	 7.3720
 0.6900	 7.5190
 0.6910	 7.7040
 0.6920	 7.9370
 0.6930	 8.2260
 0.6940	 8.5800
 0.6950	 9.0010
 0.6960	 9.4980
 0.6970	10.0710
 0.6980	10.7160
 0.6990	11.4390
 0.7000	12.2270
 0.7010	13.0750
 0.7020	13.9740
 0.7030	14.9170
 0.7040	15.8980
 0.7050	16.9080
 0.7060	17.9450
 0.7070	19.0020
 0.7080	20.0780
 0.7090	21.1730
 0.7100	22.2830
 0.7110	23.4060
 0.7120	24.5410
 0.7130	25.6910
 0.7140	26.8470
 0.7150	28.0150
 0.7160	29.1920
 0.7170	30.3640
 0.7180	31.5360
 0.7190	32.7090
 0.7200	33.8750
 0.7210	35.0330
 0.7220	36.1800
 0.7230	37.3120
 0.7240	38.4230
 0.7250	39.5070
 0.7260	40.5650
 0.7270	41.5960
 0.7280	42.5960
 0.7290	43.5570
 0.7300	44.4780
 0.7310	45.3610
 0.7320	46.2080
 0.7330	47.0200
 0.7340	47.7950
 0.7350	48.5290
 0.7360	49.2200
 0.7370	49.8750
 0.7380	50.4950
 0.7390	51.0800
 0.7400	51.6300
 0.7410	52.1420
 0.7420	52.6140
 0.7430	53.0570
 0.7440	53.4720
 0.7450	53.8590
 0.7460	54.2130
 0.7470	54.5420
 0.7480	54.8420
 0.7490	55.1140
 0.7500	55.3690
 0.7510	55.6030
 0.7520	55.8160
 0.7530	56.0090
 0.7540	56.1820
 0.7550	56.3420
 0.7560	56.4900
 0.7570	56.6240
 0.7580	56.7430
 0.7590	56.8500
 0.7600	56.9470
 0.7610	57.0420
 0.7620	57.1250
 0.7630	57.1970
 0.7640	57.2630
 0.7650	57.3260
 0.7660	57.3830
 0.7670	57.4330
 0.7680	57.4810
 0.7690	57.5230
 0.7700	57.5630
 0.7710	57.5990
 0.7720	57.6260
 0.7730	57.6560
 0.7740	57.6850
 0.7750	57.7080
 0.7760	57.7340
 0.7770	57.7590
 0.7780	57.7830
 0.7790	57.8070
 0.7800	57.8310
 0.7810	57.8500
 0.7820	57.8670
 0.7830	57.8860
 0.7840	57.9060
 0.7850	57.9210
 0.7860	57.9320
 0.7870	57.9520
 0.7880	57.9700
 0.7890	57.9850
 0.7900	57.9990
 0.7910	58.0070
 0.7920	58.0200
 0.7930	58.0380
 0.7940	58.0510
 0.7950	58.0590
 0.7960	58.0660
 0.7970	58.0720
 0.7980	58.0810
 0.7990	58.0880
 0.8000	58.0930
 0.8010	58.0980
 0.8020	58.1040
 0.8030	58.1080
 0.8040	58.1080
 0.8050	58.1030
 0.8060	58.1090
 0.8070	58.1140
 0.8080	58.1150
 0.8090	58.1120
 0.8100	58.1080
 0.8110	58.1060
 0.8120	58.1060
 0.8130	58.1030
 0.8140	58.0960
 0.8150	58.0890
 0.8160	58.0860
 0.8170	58.0880
 0.8180	58.0810
 0.8190	58.0720
 0.8200	58.0730
 0.8210	58.0740
 0.8220	58.0720
 0.8230	58.0650
 0.8240	58.0560
 0.8250	58.0520
 0.8260	58.0440
 0.8270	58.0320
 0.8280	58.0270
 0.8290	58.0200
 0.8300	58.0100
 0.8310	57.9990
 0.8320	57.9930
 0.8330	57.9870
 0.8340	57.9810
 0.8350	57.9760
 0.8360	57.9710
 0.8370	57.9710
 0.8380	57.9760
 0.8390	57.9740
 0.8400	57.9730
 0.8410	57.9700
 0.8420	57.9700
 0.8430	57.9790
 0.8440	57.9860
 0.8450	57.9890
 0.8460	57.9890
 0.8470	57.9880
 0.8480	57.9910
 0.8490	57.9970
 0.8500	58.0040
 0.8510	58.0110
 0.8520	58.0170
 0.8530	58.0200
 0.8540	58.0210
 0.8550	58.0240
 0.8560	58.0320
 0.8570	58.0410
 0.8580	58.0480
 0.8590	58.0510
 0.8600	58.0540
 0.8610	58.0580
 0.8620	58.0660
 0.8630	58.0700
 0.8640	58.0730
 0.8650	58.0800
 0.8660	58.0920
 0.8670	58.0980
 0.8680	58.0990
 0.8690	58.1000
 0.8700	58.1140
 0.8710	58.1220
 0.8720	58.1260
 0.8730	58.1350
 0.8740	58.1410
 0.8750	58.1450
 0.8760	58.1490
 0.8770	58.1550
 0.8780	58.1660
 0.8790	58.1770
 0.8800	58.1860
 0.8810	58.1950
 0.8820	58.2020
 0.8830	58.2080
 0.8840	58.2140
 0.8850	58.2200
 0.8860	58.2250
 0.8870	58.2300
 0.8880	58.2330
 0.8890	58.2380
 0.8900	58.2420
 0.8910	58.2450
 0.8920	58.2480
 0.8930	58.2480
 0.8940	58.2530
 0.8950	58.2610
 0.8960	58.2580
 0.8970	58.2640
 0.8980	58.2680
 0.8990	58.2700
 0.9000	58.2760
 0.9010	58.2790
 0.9020	58.2820
 0.9030	58.2840
 0.9040	58.2850
 0.9050	58.2870
 0.9060	58.2900
 0.9070	58.2880
 0.9080	58.2830
 0.9090	58.2870
 0.9100	58.2910
 0.9110	58.2900
 0.9120	58.2890
 0.9130	58.2920
 0.9140	58.2940
 0.9150	58.2910
 0.9160	58.2870
 0.9170	58.2850
 0.9180	58.2850
 0.9190	58.2880
 0.9200	58.2800
 0.9210	58.2760
 0.9220	58.2690
 0.9230	58.2510
 0.9240	58.2410
 0.9250	58.2290
 0.9260	58.2080
 0.9270	58.1760
 0.9280	58.1630
 0.9290	58.1500
 0.9300	58.1240
 0.9310	58.0830
 0.9320	58.0570
 0.9330	58.0350
 0.9340	58.0070
 0.9350	57.9760
 0.9360	57.9430
 0.9370	57.9070
 0.9380	57.8670
 0.9390	57.8270
 0.9400	57.7810
 0.9410	57.7320
 0.9420	57.6840
 0.9430	57.6440
 0.9440	57.5870
 0.9450	57.5230
 0.9460	57.4600
 0.9470	57.3880
 0.9480	57.3080
 0.9490	57.2280
 0.9500	57.1500
 0.9510	57.0560
 0.9520	56.9640
 0.9530	56.8620
 0.9540	56.7460
 0.9550	56.6530
 0.9560	56.5560
 0.9570	56.4600
 0.9580	56.3730
 0.9590	56.2710
 0.9600	56.1870
 0.9610	56.1230
 0.9620	56.0680
 0.9630	56.0080
 0.9640	55.9550
 0.9650	55.9080
 0.9660	55.8630
 0.9670	55.8360
 0.9680	55.8020
 0.9690	55.7650
 0.9700	55.7420
 0.9710	55.7320
 0.9720	55.7140
 0.9730	55.6940
 0.9740	55.6840
 0.9750	55.6640
 0.9760	55.6520
 0.9770	55.6420
 0.9780	55.6230
 0.9790	55.6260
 0.9800	55.6460
 0.9810	55.6610
 0.9820	55.6540
 0.9830	55.6680
 0.9840	55.6850
 0.9850	55.6990
 0.9860	55.7110
 0.9870	55.7210
 0.9880	55.7410
 0.9890	55.7740
 0.9900	55.8090
 0.9910	55.8300
 0.9920	55.9030
 0.9930	55.9760
 0.9940	56.0500
 0.9950	56.1230
 0.9960	56.1960
 0.9970	56.2690
 0.9980	56.3420
 0.9990	56.4150
 1.0000	56.4890
 1.0010	56.5620
 1.0020	56.6350
 1.0030	56.7080
 1.0040	56.7810
 1.0050	56.8540
 1.0060	56.9280
 1.0070	57.0010
 1.0080	57.0740
 1.0090	57.1470
 1.0100	57.1470
 1.0110	57.1830
 1.0120	57.2210
 1.0130	57.2610
 1.0140	57.2990
 1.0150	57.3350
 1.0160	57.3740
 1.0170	57.4120
 1.0180	57.4440
 1.0190	57.4720
 1.0200	57.5060
 1.0210	57.5450
 1.0220	57.5860
 1.0230	57.6210
 1.0240	57.6570
 1.0250	57.6910
 1.0260	57.7160
 1.0270	57.7470
 1.0280	57.7840
 1.0290	57.8180
 1.0300	57.8510
 1.0310	57.8830
 1.0320	57.9170
 1.0330	57.9450
 1.0340	57.9750
 1.0350	58.0070
 1.0360	58.0290
 1.0370	58.0500
 1.0380	58.0750
 1.0390	58.0970
 1.0400	58.1230
 1.0410	58.1550
 1.0420	58.1830
 1.0430	58.2140
 1.0440	58.2390
 1.0450	58.2620
 1.0460	58.2840
 1.0470	58.3010
 1.0480	58.3190
 1.0490	58.3400
 1.0500	58.3580
 1.0510	58.3730
 1.0520	58.3880
 1.0530	58.4040
 1.0540	58.4170
 1.0550	58.4330
 1.0560	58.4540
 1.0570	58.4680
 1.0580	58.4780
 1.0590	58.4910
 1.0600	58.5020
 1.0610	58.5140
 1.0620	58.5320
 1.0630	58.5430
 1.0640	58.5500
 1.0650	58.5570
 1.0660	58.5610
 1.0670	58.5660
 1.0680	58.5720
 1.0690	58.5770
 1.0700	58.5820
 1.0710	58.5880
 1.0720	58.5890
 1.0730	58.5880
 1.0740	58.5880
 1.0750	58.5850
 1.0760	58.5820
 1.0770	58.5750
 1.0780	58.5740
 1.0790	58.5770
 1.0800	58.5750
 1.0810	58.5760
 1.0820	58.5720
 1.0830	58.5620
 1.0840	58.5520
 1.0850	58.5400
 1.0860	58.5300
 1.0870	58.5210
 1.0880	58.5110
 1.0890	58.5000
 1.0900	58.4910
 1.0910	58.4780
 1.0920	58.4610
 1.0930	58.4460
 1.0940	58.4320
 1.0950	58.4180
 1.0960	58.4050
 1.0970	58.3890
 1.0980	58.3730
 1.0990	58.3550
 1.1000	58.3330
 1.1010	58.3130
 1.1020	58.2920
 1.1030	58.2710
 1.1040	58.2500
 1.1050	58.2270
 1.1060	58.2030
 1.1070	58.1780
 1.1080	58.1510
 1.1090	58.1230
 1.1100	58.0950
 1.1110	58.0650
 1.1120	58.0370
 1.1130	58.0120
 1.1140	57.9800
 1.1150	57.9450
 1.1160	57.9080
 1.1170	57.8660
 1.1180	57.8220
 1.1190	57.7760
 1.1200	57.7250
 1.1210	57.6720
 1.1220	57.6120
 1.1230	57.5450
 1.1240	57.4730
 1.1250	57.3910
 1.1260	57.3010
 1.1270	57.2030
 1.1280	57.0980
 1.1290	56.9820
 1.1300	56.8600
 1.1310	56.7250
 1.1320	56.5790
 1.1330	56.4220
 1.1340	56.2510
 1.1350	56.0730
 1.1360	55.8860
 1.1370	55.6920
 1.1380	55.4890
 1.1390	55.2810
 1.1400	55.0640
 1.1410	54.8420
 1.1420	54.6180
 1.1430	54.3940
 1.1440	54.1720
 1.1450	53.9490
 1.1460	53.7330
 1.1470	53.5160
 1.1480	53.3120
 1.1490	53.1120
 1.1500	52.9260
 1.1510	52.7490
 1.1520	52.5840
 1.1530	52.4290
 1.1540	52.2860
 1.1550	52.1520
 1.1560	52.0300
 1.1570	51.9190
 1.1580	51.8200
 1.1590	51.7330
 1.1600	51.6560
 1.1610	51.5880
 1.1620	51.5270
 1.1630	51.4710
 1.1640	51.4210
 1.1650	51.3750
 1.1660	51.3340
 1.1670	51.2970
 1.1680	51.2660
 1.1690	51.2360
 1.1700	51.2130
 1.1710	51.1860
 1.1720	51.1600
 1.1730	51.1340
 1.1740	51.1080
 1.1750	51.0790
 1.1760	51.0510
 1.1770	51.0230
 1.1780	50.9940
 1.1790	50.9630
 1.1800	50.9310
 1.1810	50.9020
 1.1820	50.8720
 1.1830	50.8410
 1.1840	50.8140
 1.1850	50.7880
 1.1860	50.7620
 1.1870	50.7370
 1.1880	50.7150
 1.1890	50.6910
 1.1900	50.6720
 1.1910	50.6550
 1.1920	50.6420
 1.1930	50.6330
 1.1940	50.6240
 1.1950	50.6170
 1.1960	50.6150
 1.1970	50.6140
 1.1980	50.6140
 1.1990	50.6190
 1.2000	50.6250
 1.2010	50.6330
 1.2020	50.6480
 1.2030	50.6650
 1.2040	50.6840
 1.2050	50.7020
 1.2060	50.7230
 1.2070	50.7490
 1.2080	50.7780
 1.2090	50.8110
 1.2100	50.8450
 1.2110	50.8810
 1.2120	50.9160
 1.2130	50.9550
 1.2140	50.9970
 1.2150	51.0410
 1.2160	51.0870
 1.2170	51.1360
 1.2180	51.1850
 1.2190	51.2340
 1.2200	51.2810
 1.2210	51.3300
 1.2220	51.3790
 1.2230	51.4290
 1.2240	51.4820
 1.2250	51.5310
 1.2260	51.5790
 1.2270	51.6250
 1.2280	51.6690
 1.2290	51.7140
 1.2300	51.7570
 1.2310	51.7990
 1.2320	51.8400
 1.2330	51.8800
 1.2340	51.9180
 1.2350	51.9540
 1.2360	51.9900
 1.2370	52.0240
 1.2380	52.0580
 1.2390	52.0910
 1.2400	52.1220
 1.2410	52.1510
 1.2420	52.1800
 1.2430	52.2070
 1.2440	52.2340
 1.2450	52.2640
 1.2460	52.2900
 1.2470	52.3130
 1.2480	52.3380
 1.2490	52.3610
 1.2500	52.3830
 1.2510	52.4050
 1.2520	52.4240
 1.2530	52.4420
 1.2540	52.4610
 1.2550	52.4800
 1.2560	52.4960
 1.2570	52.5090
 1.2580	52.5200
 1.2590	52.5300
 1.2600	52.5370
 1.2610	52.5450
 1.2620	52.5540
 1.2630	52.5600
 1.2640	52.5620
 1.2650	52.5610
 1.2660	52.5590
 1.2670	52.5570
 1.2680	52.5550
 1.2690	52.5530
 1.2700	52.5490
 1.2710	52.5420
 1.2720	52.5350
 1.2730	52.5260
 1.2740	52.5170
 1.2750	52.5070
 1.2760	52.4950
 1.2770	52.4790
 1.2780	52.4610
 1.2790	52.4410
 1.2800	52.4180
 1.2810	52.3930
 1.2820	52.3660
 1.2830	52.3370
 1.2840	52.3060
 1.2850	52.2760
 1.2860	52.2430
 1.2870	52.2050
 1.2880	52.1630
 1.2890	52.1170
 1.2900	52.0660
 1.2910	52.0150
 1.2920	51.9630
 1.2930	51.9070
 1.2940	51.8490
 1.2950	51.7860
 1.2960	51.7210
 1.2970	51.6540
 1.2980	51.5840
 1.2990	51.5110
 1.3000	51.4320
 1.3010	51.3470
 1.3020	51.2590
 1.3030	51.1670
 1.3040	51.0680
 1.3050	50.9660
 1.3060	50.8600
 1.3070	50.7480
 1.3080	50.6350
 1.3090	50.5200
 1.3100	50.4020
 1.3110	50.2780
 1.3120	50.1450
 1.3130	50.0100
 1.3140	49.8710
 1.3150	49.7250
 1.3160	49.5770
 1.3170	49.4270
 1.3180	49.2690
 1.3190	49.1070
 1.3200	48.9410
 1.3210	48.7680
 1.3220	48.5930
 1.3230	48.4140
 1.3240	48.2300
 1.3250	48.0470
 1.3260	47.8580
 1.3270	47.6650
 1.3280	47.4700
 1.3290	47.2710
 1.3300	47.0710
 1.3310	46.8690
 1.3320	46.6620
 1.3330	46.4560
 1.3340	46.2500
 1.3350	46.0430
 1.3360	45.8380
 1.3370	45.6330
 1.3380	45.4260
 1.3390	45.2200
 1.3400	45.0140
 1.3410	44.8120
 1.3420	44.6120
 1.3430	44.4140
 1.3440	44.2170
 1.3450	44.0220
 1.3460	43.8280
 1.3470	43.6390
 1.3480	43.4540
 1.3490	43.2700
 1.3500	43.0900
 1.3510	42.9110
 1.3520	42.7320
 1.3530	42.5530
 1.3540	42.3750
 1.3550	42.1970
 1.3560	42.0200
 1.3570	41.8390
 1.3580	41.6580
 1.3590	41.4750
 1.3600	41.2870
 1.3610	41.0960
 1.3620	40.9010
 1.3630	40.6990
 1.3640	40.4900
 1.3650	40.2730
 1.3660	40.0470
 1.3670	39.8090
 1.3680	39.5580
 1.3690	39.2950
 1.3700	39.0130
 1.3710	38.7160
 1.3720	38.4030
 1.3730	38.0670
 1.3740	37.7150
 1.3750	37.3420
 1.3760	36.9420
 1.3770	36.5210
 1.3780	36.0700
 1.3790	35.5920
 1.3800	35.0900
 1.3810	34.5600
 1.3820	34.0120
 1.3830	33.4420
 1.3840	32.8540
 1.3850	32.2450
 1.3860	31.6250
 1.3870	30.9820
 1.3880	30.3410
 1.3890	29.6890
 1.3900	29.0310
 1.3910	28.3800
 1.3920	27.7270
 1.3930	27.0730
 1.3940	26.4270
 1.3950	25.7830
 1.3960	25.1530
 1.3970	24.5410
 1.3980	23.9440
 1.3990	23.3720
 1.4000	22.8200
 1.4010	22.2850
 1.4020	21.7760
 1.4030	21.2870
 1.4040	20.8220
 1.4050	20.3840
 1.4060	19.9670
 1.4070	19.5800
 1.4080	19.2160
 1.4090	18.8730
 1.4100	18.5550
 1.4110	18.2570
 1.4120	17.9790
 1.4130	17.7220
 1.4140	17.4840
 1.4150	17.2660
 1.4160	17.0650
 1.4170	16.8770
 1.4180	16.7040
 1.4190	16.5440
 1.4200	16.3970
 1.4210	16.2620
 1.4220	16.1370
 1.4230	16.0250
 1.4240	15.9210
 1.4250	15.8260
 1.4260	15.7410
 1.4270	15.6620
 1.4280	15.5920
 1.4290	15.5290
 1.4300	15.4740
 1.4310	15.4240
 1.4320	15.3810
 1.4330	15.3420
 1.4340	15.3090
 1.4350	15.2800
 1.4360	15.2560
 1.4370	15.2370
 1.4380	15.2210
 1.4390	15.2090
 1.4400	15.2000
 1.4410	15.1940
 1.4420	15.1910
 1.4430	15.1920
 1.4440	15.1960
 1.4450	15.2010
 1.4460	15.2090
 1.4470	15.2190
 1.4480	15.2290
 1.4490	15.2410
 1.4500	15.2550
 1.4510	15.2700
 1.4520	15.2880
 1.4530	15.3080
 1.4540	15.3290
 1.4550	15.3520
 1.4560	15.3770
 1.4570	15.4040
 1.4580	15.4350
 1.4590	15.4680
 1.4600	15.5060
 1.4610	15.5470
 1.4620	15.5910
 1.4630	15.6410
 1.4640	15.6950
 1.4650	15.7540
 1.4660	15.8180
 1.4670	15.8850
 1.4680	15.9570
 1.4690	16.0330
 1.4700	16.1140
 1.4710	16.1990
 1.4720	16.2870
 1.4730	16.3800
 1.4740	16.4760
 1.4750	16.5740
 1.4760	16.6780
 1.4770	16.7830
 1.4780	16.8900
 1.4790	17.0010
 1.4800	17.1120
 1.4810	17.2260
 1.4820	17.3420
 1.4830	17.4580
 1.4840	17.5760
 1.4850	17.6960
 1.4860	17.8180
 1.4870	17.9420
 1.4880	18.0650
 1.4890	18.1880
 1.4900	18.3130
 1.4910	18.4370
 1.4920	18.5640
 1.4930	18.6920
 1.4940	18.8200
 1.4950	18.9500
 1.4960	19.0800
 1.4970	19.2090
 1.4980	19.3390
 1.4990	19.4700
 1.5000	19.6000
 1.5010	19.7330
 1.5020	19.8630
 1.5030	19.9930
 1.5040	20.1230
 1.5050	20.2520
 1.5060	20.3820
 1.5070	20.5130
 1.5080	20.6440
 1.5090	20.7770
 1.5100	20.9080
 1.5110	21.0390
 1.5120	21.1690
 1.5130	21.2970
 1.5140	21.4260
 1.5150	21.5550
 1.5160	21.6820
 1.5170	21.8100
 1.5180	21.9370
 1.5190	22.0630
 1.5200	22.1880
 1.5210	22.3120
 1.5220	22.4330
 1.5230	22.5570
 1.5240	22.6790
 1.5250	22.8010
 1.5260	22.9220
 1.5270	23.0430
 1.5280	23.1630
 1.5290	23.2800
 1.5300	23.3970
 1.5310	23.5150
 1.5320	23.6290
 1.5330	23.7440
 1.5340	23.8590
 1.5350	23.9720
 1.5360	24.0860
 1.5370	24.1980
 1.5380	24.3100
 1.5390	24.4220
 1.5400	24.5320
 1.5410	24.6440
 1.5420	24.7520
 1.5430	24.8580
 1.5440	24.9650
 1.5450	25.0700
 1.5460	25.1750
 1.5470	25.2810
 1.5480	25.3850
 1.5490	25.4870
 1.5500	25.5890
 1.5510	25.6880
 1.5520	25.7870
 1.5530	25.8860
 1.5540	25.9840
 1.5550	26.0800
 1.5560	26.1760
 1.5570	26.2720
 1.5580	26.3660
 1.5590	26.4610
 1.5600	26.5540
 1.5610	26.6450
 1.5620	26.7370
 1.5630	26.8270
 1.5640	26.9160
 1.5650	27.0050
 1.5660	27.0940
 1.5670	27.1820
 1.5680	27.2710
 1.5690	27.3580
 1.5700	27.4440
 1.5710	27.5290
 1.5720	27.6140
 1.5730	27.7010
 1.5740	27.7850
 1.5750	27.8680
 1.5760	27.9530
 1.5770	28.0330
 1.5780	28.1150
 1.5790	28.1980
 1.5800	28.2800
 1.5810	28.3630
 1.5820	28.4450
 1.5830	28.5260
 1.5840	28.6080
 1.5850	28.6880
 1.5860	28.7670
 1.5870	28.8470
 1.5880	28.9230
 1.5890	29.0000
 1.5900	29.0780
 1.5910	29.1550
 1.5920	29.2340
 1.5930	29.3120
 1.5940	29.3880
 1.5950	29.4620
 1.5960	29.5360
 1.5970	29.6120
 1.5980	29.6860
 1.5990	29.7620
 1.6000	29.8370
 1.6010	29.9100
 1.6020	29.9810
 1.6030	30.0530
 1.6040	30.1230
 1.6050	30.1940
 1.6060	30.2640
 1.6070	30.3330
 1.6080	30.4000
 1.6090	30.4670
 1.6100	30.5320
 1.6110	30.5970
 1.6120	30.6600
 1.6130	30.7220
 1.6140	30.7820
 1.6150	30.8410
 1.6160	30.9010
 1.6170	30.9590
 1.6180	31.0170
 1.6190	31.0770
 1.6200	31.1320
 1.6210	31.1890
 1.6220	31.2450
 1.6230	31.2980
 1.6240	31.3500
 1.6250	31.4020
 1.6260	31.4540
 1.6270	31.5040
 1.6280	31.5520
 1.6290	31.6000
 1.6300	31.6450
 1.6310	31.6910
 1.6320	31.7370
 1.6330	31.7800
 1.6340	31.8230
 1.6350	31.8640
 1.6360	31.9030
 1.6370	31.9420
 1.6380	31.9790
 1.6390	32.0150
 1.6400	32.0510
 1.6410	32.0830
 1.6420	32.1140
 1.6430	32.1420
 1.6440	32.1670
 1.6450	32.1890
 1.6460	32.2050
 1.6470	32.2200
 1.6480	32.2310
 1.6490	32.2410
 1.6500	32.2500
 1.6510	32.2520
 1.6520	32.2510
 1.6530	32.2470
 1.6540	32.2400
 1.6550	32.2290
 1.6560	32.2170
 1.6570	32.2030
 1.6580	32.1870
 1.6590	32.1700
 1.6600	32.1520
 1.6610	32.1350
 1.6620	32.1180
 1.6630	32.1030
 1.6640	32.0900
 1.6650	32.0770
 1.6660	32.0630
 1.6670	32.0500
 1.6680	32.0380
 1.6690	32.0270
 1.6700	32.0160
 1.6710	32.0050
 1.6720	31.9920
 1.6730	31.9790
 1.6740	31.9670
 1.6750	31.9540
 1.6760	31.9400
 1.6770	31.9250
 1.6780	31.9050
 1.6790	31.8800
 1.6800	31.8530
 1.6810	31.8220
 1.6820	31.7870
 1.6830	31.7500
 1.6840	31.7110
 1.6850	31.6710
 1.6860	31.6270
 1.6870	31.5820
 1.6880	31.5370
 1.6890	31.4870
 1.6900	31.4390
 1.6910	31.3920
 1.6920	31.3450
 1.6930	31.3000
 1.6940	31.2530
 1.6950	31.2040
 1.6960	31.1560
 1.6970	31.1080
 1.6980	31.0570
 1.6990	31.0070
 1.7000	30.9540
 1.7010	30.8990
 1.7020	30.8420
 1.7030	30.7840
 1.7040	30.7260
 1.7050	30.6650
 1.7060	30.6050
 1.7070	30.5460
 1.7080	30.4850
 1.7090	30.4220
 1.7100	30.3600
 1.7110	30.2970
 1.7120	30.2350
 1.7130	30.1730
 1.7140	30.1130
 1.7150	30.0510
 1.7160	29.9890
 1.7170	29.9270
 1.7180	29.8650
 1.7190	29.8050
 1.7200	29.7470
 1.7210	29.6890
 1.7220	29.6290
 1.7230	29.5700
 1.7240	29.5110
 1.7250	29.4540
 1.7260	29.3980
 1.7270	29.3440
 1.7280	29.2930
 1.7290	29.2430
 1.7300	29.1960
 1.7310	29.1480
 1.7320	29.0990
 1.7330	29.0530
 1.7340	29.0070
 1.7350	28.9600
 1.7360	28.9140
 1.7370	28.8660
 1.7380	28.8170
 1.7390	28.7660
 1.7400	28.7150
 1.7410	28.6590
 1.7420	28.6000
 1.7430	28.5410
 1.7440	28.4790
 1.7450	28.4180
 1.7460	28.3560
 1.7470	28.2940
 1.7480	28.2290
 1.7490	28.1660
 1.7500	28.1020
 1.7510	28.0390
 1.7520	27.9760
 1.7530	27.9140
 1.7540	27.8530
 1.7550	27.7930
 1.7560	27.7360
 1.7570	27.6760
 1.7580	27.6180
 1.7590	27.5590
 1.7600	27.5010
 1.7610	27.4460
 1.7620	27.3940
 1.7630	27.3450
 1.7640	27.2970
 1.7650	27.2520
 1.7660	27.2070
 1.7670	27.1640
 1.7680	27.1220
 1.7690	27.0810
 1.7700	27.0410
 1.7710	27.0010
 1.7720	26.9640
 1.7730	26.9270
 1.7740	26.8920
 1.7750	26.8620
 1.7760	26.8280
 1.7770	26.7940
 1.7780	26.7620
 1.7790	26.7280
 1.7800	26.6980
 1.7810	26.6730
 1.7820	26.6480
 1.7830	26.6240
 1.7840	26.6020
 1.7850	26.5810
 1.7860	26.5650
 1.7870	26.5520
 1.7880	26.5400
 1.7890	26.5300
 1.7900	26.5200
 1.7910	26.5110
 1.7920	26.5020
 1.7930	26.4970
 1.7940	26.4970
 1.7950	26.4960
 1.7960	26.5000
 1.7970	26.5030
 1.7980	26.5080
 1.7990	26.5110
 1.8000	26.5140
 1.8010	26.5190
 1.8020	26.5210
 1.8030	26.5270
 1.8040	26.5380
 1.8050	26.5480
 1.8060	26.5590
 1.8070	26.5680
 1.8080	26.5770
 1.8090	26.5860
 1.8100	26.5970
 1.8110	26.6030
 1.8120	26.6110
 1.8130	26.6170
 1.8140	26.6230
 1.8150	26.6310
 1.8160	26.6350
 1.8170	26.6380
 1.8180	26.6410
 1.8190	26.6420
 1.8200	26.6430
 1.8210	26.6430
 1.8220	26.6420
 1.8230	26.6380
 1.8240	26.6350
 1.8250	26.6320
 1.8260	26.6240
 1.8270	26.5950
 1.8280	26.5660
 1.8290	26.5360
 1.8300	26.5070
 1.8310	26.4780
 1.8320	26.4480
 1.8330	26.4190
 1.8340	26.3900
 1.8350	26.3900
 1.8360	26.3460
 1.8370	26.3010
 1.8380	26.2480
 1.8390	26.1900
 1.8400	26.1280
 1.8410	26.0570
 1.8420	25.9800
 1.8430	25.8980
 1.8440	25.8080
 1.8450	25.7040
 1.8460	25.5950
 1.8470	25.4810
 1.8480	25.3550
 1.8490	25.2160
 1.8500	25.0680
 1.8510	24.9110
 1.8520	24.7410
 1.8530	24.5570
 1.8540	24.3670
 1.8550	24.1650
 1.8560	23.9440
 1.8570	23.7120
 1.8580	23.4630
 1.8590	23.2000
 1.8600	22.9210
 1.8610	22.6280
 1.8620	22.3190
 1.8630	21.9960
 1.8640	21.6560
 1.8650	21.3010
 1.8660	20.9290
 1.8670	20.5350
 1.8680	20.1300
 1.8690	19.7110
 1.8700	19.2730
 1.8710	18.8180
 1.8720	18.3570
 1.8730	17.8860
 1.8740	17.4000
 1.8750	16.9180
 1.8760	16.4290
 1.8770	15.9390
 1.8780	15.4550
 1.8790	14.9700
 1.8800	14.4950
 1.8810	14.0250
 1.8820	13.5600
 1.8830	13.1020
 1.8840	12.6560
 1.8850	12.2180
 1.8860	11.7940
 1.8870	11.3870
 1.8880	10.9940
 1.8890	10.6220
 1.8900	10.2730
 1.8910	 9.9420
 1.8920	 9.6280
 1.8930	 9.3380
 1.8940	 9.0660
 1.8950	 8.8150
 1.8960	 8.5840
 1.8970	 8.3720
 1.8980	 8.1800
 1.8990	 8.0050
 1.9000	 7.8460
 1.9010	 7.7070
 1.9020	 7.5780
 1.9030	 7.4640
 1.9040	 7.3620
 1.9050	 7.2700
 1.9060	 7.1880
 1.9070	 7.1190
 1.9080	 7.0600
 1.9090	 7.0080
 1.9100	 6.9610
 1.9110	 6.9190
 1.9120	 6.8820
 1.9130	 6.8490
 1.9140	 6.8200
 1.9150	 6.7950
 1.9160	 6.7740
 1.9170	 6.7550
 1.9180	 6.7380
 1.9190	 6.7230
 1.9200	 6.7100
 1.9210	 6.7010
 1.9220	 6.6930
 1.9230	 6.6910
 1.9240	 6.6870
 1.9250	 6.6850
 1.9260	 6.6830
 1.9270	 6.6820
 1.9280	 6.6820
 1.9290	 6.6860
 1.9300	 6.6910
 1.9310	 6.6950
 1.9320	 6.7030
 1.9330	 6.7090
 1.9340	 6.7130
 1.9350	 6.7220
 1.9360	 6.7330
 1.9370	 6.7440
 1.9380	 6.7560
 1.9390	 6.7710
 1.9400	 6.7860
 1.9410	 6.8000
 1.9420	 6.8170
 1.9430	 6.8330
 1.9440	 6.8500
 1.9450	 6.8700
 1.9460	 6.8890
 1.9470	 6.9070
 1.9480	 6.9280
 1.9490	 6.9490
 1.9500	 6.9720
 1.9510	 6.9960
 1.9520	 7.0200
 1.9530	 7.0460
 1.9540	 7.0710
 1.9550	 7.0980
 1.9560	 7.1250
 1.9570	 7.1530
 1.9580	 7.1800
 1.9590	 7.2080
 1.9600	 7.2360
 1.9610	 7.2660
 1.9620	 7.2970
 1.9630	 7.3290
 1.9640	 7.3630
 1.9650	 7.3950
 1.9660	 7.4280
 1.9670	 7.4630
 1.9680	 7.4990
 1.9690	 7.5380
 1.9700	 7.5770
 1.9710	 7.6170
 1.9720	 7.6590
 1.9730	 7.7020
 1.9740	 7.7430
 1.9750	 7.7840
 1.9760	 7.8290
 1.9770	 7.8690
 1.9780	 7.9100
 1.9790	 7.9550
 1.9800	 8.0010
 1.9810	 8.0480
 1.9820	 8.0970
 1.9830	 8.1440
 1.9840	 8.1890
 1.9850	 8.2360
 1.9860	 8.2830
 1.9870	 8.3300
 1.9880	 8.3830
 1.9890	 8.4370
 1.9900	 8.4900
 1.9910	 8.5450
 1.9920	 8.5970
 1.9930	 8.6440
 1.9940	 8.6960
 1.9950	 8.7470
 1.9960	 8.8010
 1.9970	 8.8600
 1.9980	 8.9150
 1.9990	 8.9700
 2.0000	 9.0220
 2.0010	 9.0750
 2.0020	 9.1260
 2.0030	 9.1810
 2.0040	 9.2380
 2.0050	 9.2920
 2.0060	 9.3460
 2.0070	 9.3990
 2.0080	 9.4510
 2.0090	 9.5050
 2.0100	 9.5600
 2.0110	 9.6130
 2.0120	 9.6650
 2.0130	 9.7170
 2.0140	 9.7710
 2.0150	 9.8240
 2.0160	 9.8770
 2.0170	 9.9310
 2.0180	 9.9830
 2.0190	10.0330
 2.0200	10.0840
 2.0210	10.1350
 2.0220	10.1840
 2.0230	10.2310
 2.0240	10.2790
 2.0250	10.3250
 2.0260	10.3700
 2.0270	10.4140
 2.0280	10.4580
 2.0290	10.5010
 2.0300	10.5430
 2.0310	10.5850
 2.0320	10.6270
 2.0330	10.6680
 2.0340	10.7070
 2.0350	10.7460
 2.0360	10.7850
 2.0370	10.8240
 2.0380	10.8610
 2.0390	10.9000
 2.0400	10.9400
 2.0410	10.9780
 2.0420	11.0160
 2.0430	11.0530
 2.0440	11.0870
 2.0450	11.1180
 2.0460	11.1510
 2.0470	11.1850
 2.0480	11.2180
 2.0490	11.2530
 2.0500	11.2880
 2.0510	11.3210
 2.0520	11.3540
 2.0530	11.3860
 2.0540	11.4190
 2.0550	11.4520
 2.0560	11.4830
 2.0570	11.5180
 2.0580	11.5540
 2.0590	11.5880
 2.0600	11.6220
 2.0610	11.6570
 2.0620	11.6890
 2.0630	11.7240
 2.0640	11.7590
 2.0650	11.7960
 2.0660	11.8340
 2.0670	11.8710
 2.0680	11.9120
 2.0690	11.9490
 2.0700	11.9870
 2.0710	12.0220
 2.0720	12.0560
 2.0730	12.0890
 2.0740	12.1230
 2.0750	12.1570
 2.0760	12.1920
 2.0770	12.2280
 2.0780	12.2640
 2.0790	12.2990
 2.0800	12.3330
 2.0810	12.3670
 2.0820	12.4010
 2.0830	12.4330
 2.0840	12.4670
 2.0850	12.5010
 2.0860	12.5350
 2.0870	12.5730
 2.0880	12.6050
 2.0890	12.6370
 2.0900	12.6680
 2.0910	12.7020
 2.0920	12.7370
 2.0930	12.7700
 2.0940	12.8050
 2.0950	12.8400
 2.0960	12.8730
 2.0970	12.9070
 2.0980	12.9430
 2.0990	12.9770
 2.1000	13.0070
 2.1010	13.0400
 2.1020	13.0740
 2.1030	13.1080
 2.1040	13.1440
 2.1050	13.1820
 2.1060	13.2150
 2.1070	13.2480
 2.1080	13.2800
 2.1090	13.3080
 2.1100	13.3410
 2.1110	13.3740
 2.1120	13.4090
 2.1130	13.4470
 2.1140	13.4830
 2.1150	13.5190
 2.1160	13.5530
 2.1170	13.5820
 2.1180	13.6140
 2.1190	13.6470
 2.1200	13.6780
 2.1210	13.7080
 2.1220	13.7390
 2.1230	13.7680
 2.1240	13.7970
 2.1250	13.8250
 2.1260	13.8530
 2.1270	13.8800
 2.1280	13.9070
 2.1290	13.9340
 2.1300	13.9600
 2.1310	13.9860
 2.1320	14.0120
 2.1330	14.0380
 2.1340	14.0640
 2.1350	14.0910
 2.1360	14.1190
 2.1370	14.1460
 2.1380	14.1730
 2.1390	14.2000
 2.1400	14.2250
 2.1410	14.2500
 2.1420	14.2760
 2.1430	14.3020
 2.1440	14.3280
 2.1450	14.3550
 2.1460	14.3800
 2.1470	14.4020
 2.1480	14.4270
 2.1490	14.4500
 2.1500	14.4760
 2.1510	14.5060
 2.1520	14.5330
 2.1530	14.5600
 2.1540	14.5880
 2.1550	14.6150
 2.1560	14.6420
 2.1570	14.6680
 2.1580	14.6940
 2.1590	14.7200
 2.1600	14.7450
 2.1610	14.7720
 2.1620	14.8000
 2.1630	14.8280
 2.1640	14.8550
 2.1650	14.8810
 2.1660	14.9060
 2.1670	14.9300
 2.1680	14.9520
 2.1690	14.9770
 2.1700	15.0030
 2.1710	15.0290
 2.1720	15.0570
 2.1730	15.0840
 2.1740	15.1100
 2.1750	15.1350
 2.1760	15.1580
 2.1770	15.1840
 2.1780	15.2090
 2.1790	15.2350
 2.1800	15.2650
 2.1810	15.2920
 2.1820	15.3180
 2.1830	15.3430
 2.1840	15.3690
 2.1850	15.3940
 2.1860	15.4230
 2.1870	15.4540
 2.1880	15.4830
 2.1890	15.5150
 2.1900	15.5420
 2.1910	15.5660
 2.1920	15.5920
 2.1930	15.6160
 2.1940	15.6400
 2.1950	15.6630
 2.1960	15.6870
 2.1970	15.7090
 2.1980	15.7320
 2.1990	15.7580
 2.2000	15.7810
 2.2010	15.8050
 2.2020	15.8270
 2.2030	15.8500
 2.2040	15.8720
 2.2050	15.8910
 2.2060	15.9110
 2.2070	15.9300
 2.2080	15.9470
 2.2090	15.9610
 2.2100	15.9730
 2.2110	15.9870
 2.2120	16.0010
 2.2130	16.0110
 2.2140	16.0200
 2.2150	16.0300
 2.2160	16.0380
 2.2170	16.0460
 2.2180	16.0590
 2.2190	16.0660
 2.2200	16.0680
 2.2210	16.0680
 2.2220	16.0640
 2.2230	16.0610
 2.2240	16.0550
 2.2250	16.0500
 2.2260	16.0470
 2.2270	16.0400
 2.2280	16.0320
 2.2290	16.0210
 2.2300	16.0050
 2.2310	15.9900
 2.2320	15.9720
 2.2330	15.9500
 2.2340	15.9230
 2.2350	15.8910
 2.2360	15.8590
 2.2370	15.8210
 2.2380	15.7860
 2.2390	15.7520
 2.2400	15.7130
 2.2410	15.6700
 2.2420	15.6270
 2.2430	15.5800
 2.2440	15.5310
 2.2450	15.4800
 2.2460	15.4270
 2.2470	15.3690
 2.2480	15.3100
 2.2490	15.2500
 2.2500	15.1890
 2.2510	15.1250
 2.2520	15.0620
 2.2530	15.0000
 2.2540	14.9350
 2.2550	14.8690
 2.2560	14.8010
 2.2570	14.7320
 2.2580	14.6630
 2.2590	14.5950
 2.2600	14.5270
 2.2610	14.4570
 2.2620	14.3890
 2.2630	14.3230
 2.2640	14.2550
 2.2650	14.1930
 2.2660	14.1340
 2.2670	14.0700
 2.2680	14.0060
 2.2690	13.9440
 2.2700	13.8800
 2.2710	13.8200
 2.2720	13.7650
 2.2730	13.7070
 2.2740	13.6460
 2.2750	13.5920
 2.2760	13.5410
 2.2770	13.4900
 2.2780	13.4440
 2.2790	13.3950
 2.2800	13.3430
 2.2810	13.2950
 2.2820	13.2470
 2.2830	13.2030
 2.2840	13.1620
 2.2850	13.1200
 2.2860	13.0800
 2.2870	13.0390
 2.2880	12.9990
 2.2890	12.9570
 2.2900	12.9110
 2.2910	12.8690
 2.2920	12.8300
 2.2930	12.7900
 2.2940	12.7510
 2.2950	12.7140
 2.2960	12.6780
 2.2970	12.6370
 2.2980	12.5940
 2.2990	12.5530
 2.3000	12.5070
 2.3010	12.4640
 2.3020	12.4270
 2.3030	12.3930
 2.3040	12.3560
 2.3050	12.3240
 2.3060	12.2950
 2.3070	12.2690
 2.3080	12.2500
 2.3090	12.2310
 2.3100	12.2130
 2.3110	12.1970
 2.3120	12.1780
 2.3130	12.1560
 2.3140	12.1390
 2.3150	12.1200
 2.3160	12.1060
 2.3170	12.1000
 2.3180	12.0870
 2.3190	12.0740
 2.3200	12.0560
 2.3210	12.0320
 2.3220	12.0090
 2.3230	11.9850
 2.3240	11.9590
 2.3250	11.9340
 2.3260	11.9030
 2.3270	11.8670
 2.3280	11.8330
 2.3290	11.7930
 2.3300	11.7590
 2.3310	11.7330
 2.3320	11.6990
 2.3330	11.6630
 2.3340	11.6280
 2.3350	11.5870
 2.3360	11.5480
 2.3370	11.5140
 2.3380	11.4740
 2.3390	11.4270
 2.3400	11.3850
 2.3410	11.3420
 2.3420	11.3010
 2.3430	11.2620
 2.3440	11.2260
 2.3450	11.1900
 2.3460	11.1600
 2.3470	11.1430
 2.3480	11.1180
 2.3490	11.0880
 2.3500	11.0620
 2.3510	11.0340
 2.3520	11.0050
 2.3530	10.9810
 2.3540	10.9560
 2.3550	10.9250
 2.3560	10.8980
 2.3570	10.8710
 2.3580	10.8450
 2.3590	10.8190
 2.3600	10.7890
 2.3610	10.7590
 2.3620	10.7300
 2.3630	10.6980
 2.3640	10.6680
 2.3650	10.6400
 2.3660	10.6080
 2.3670	10.5820
 2.3680	10.5560
 2.3690	10.5240
 2.3700	10.4910
 2.3710	10.4540
 2.3720	10.4180
 2.3730	10.3880
 2.3740	10.3600
 2.3750	10.3390
 2.3760	10.3150
 2.3770	10.2840
 2.3780	10.2520
 2.3790	10.2210
 2.3800	10.1870
 2.3810	10.1560
 2.3820	10.1230
 2.3830	10.0840
 2.3840	10.0470
 2.3850	10.0100
 2.3860	 9.9720
 2.3870	 9.9390
 2.3880	 9.9020
 2.3890	 9.8590
 2.3900	 9.8280
 2.3910	 9.8020
 2.3920	 9.7680
 2.3930	 9.7460
 2.3940	 9.7180
 2.3950	 9.6790
 2.3960	 9.6510
 2.3970	 9.6090
 2.3980	 9.5710
 2.3990	 9.5440
 2.4000	 9.5080
 2.4010	 9.4780
 2.4020	 9.4420
 2.4030	 9.4020
 2.4040	 9.3580
 2.4050	 9.3180
 2.4060	 9.2840
 2.4070	 9.2450
 2.4080	 9.2070
 2.4090	 9.1690
 2.4100	 9.1370
 2.4110	 9.1130
 2.4120	 9.0860
 2.4130	 9.0610
 2.4140	 9.0280
 2.4150	 8.9910
 2.4160	 8.9590
 2.4170	 8.9270
 2.4180	 8.8950
 2.4190	 8.8540
 2.4200	 8.8130
 2.4210	 8.7930
 2.4220	 8.7700
 2.4230	 8.7480
 2.4240	 8.7260
 2.4250	 8.6800
 2.4260	 8.6320
 2.4270	 8.6080
 2.4280	 8.5810
 2.4290	 8.5480
 2.4300	 8.5210
 2.4310	 8.4800
 2.4320	 8.4320
 2.4330	 8.4000
 2.4340	 8.3740
 2.4350	 8.3500
 2.4360	 8.3230
 2.4370	 8.2790
 2.4380	 8.2390
 2.4390	 8.2000
 2.4400	 8.1560
 2.4410	 8.1300
 2.4420	 8.1100
 2.4430	 8.0840
 2.4440	 8.0680
 2.4450	 8.0530
 2.4460	 8.0170
 2.4470	 7.9870
 2.4480	 7.9570
 2.4490	 7.9190
 2.4500	 7.8910
 2.4510	 7.8530
 2.4520	 7.8290
 2.4530	 7.8220
 2.4540	 7.8000
 2.4550	 7.7670
 2.4560	 7.7220
 2.4570	 7.6730
 2.4580	 7.6280
 2.4590	 7.6040
 2.4600	 7.5940
 2.4610	 7.5860
 2.4620	 7.5850
 2.4630	 7.5700
 2.4640	 7.5400
 2.4650	 7.5000
 2.4660	 7.4600
 2.4670	 7.4320
 2.4680	 7.4080
 2.4690	 7.3960
 2.4700	 7.3760
 2.4710	 7.3590
 2.4720	 7.3380
 2.4730	 7.3080
 2.4740	 7.2810
 2.4750	 7.2460
 2.4760	 7.2250
 2.4770	 7.2110
 2.4780	 7.1990
 2.4790	 7.2080
 2.4800	 7.1930
 2.4810	 7.1720
 2.4820	 7.1240
 2.4830	 7.0930
 2.4840	 7.0900
 2.4850	 7.0780
 2.4860	 7.1080
 2.4870	 7.1170
 2.4880	 7.1030
 2.4890	 7.1020
 2.4900	 7.0880
 2.4910	 7.0920
 2.4920	 7.0810
 2.4930	 7.0550
 2.4940	 7.0640
 2.4950	 7.0630
 2.4960	 7.0550
 2.4970	 7.0590
 2.4980	 7.0510
 2.4990	 7.0370
 2.5000	 7.0370
