Name: Quercus douglasii 3
Type: vegetation
Class: Tree
Genus: Quercus
Species: douglasii
Sample No.: VH082
Owner: UCSB
Wavelength Range: VSWIR
Origin: 34.7165; -120.0605; WGS84
Collection Date: 4/21/2013
Description: Samples were collected as part of the HyspIRI Airborne Campaign. 48 individual plants were sampled in three times in 2013 - spring  summer  and fall. The name of the sample includes a 1  2  or 3 which references a different individual of the species. Samples were taken to JPL and processed within 48 hours of collection. The same leaves were processed in the Nicolet and then measured using the ASD.
Measurement: Bidirectional reflectance
First Column: X
Second Column: Y
X Units: Wavelength (micrometers)
Y Units: Reflectance (percentage)
First X Value: 0.35
Last X Value: 2.5
Number of X Values: 2151
Additional Information: vegetation.tree.quercus.douglasii.vswir.vh082.ucsb.asd.ancillary.txt

 0.3500	 3.7420
 0.3510	 3.9010
 0.3520	 3.9890
 0.3530	 4.0780
 0.3540	 4.2230
 0.3550	 4.0330
 0.3560	 3.9820
 0.3570	 4.0270
 0.3580	 3.9010
 0.3590	 3.8520
 0.3600	 3.8400
 0.3610	 3.8170
 0.3620	 3.7580
 0.3630	 3.6780
 0.3640	 3.6690
 0.3650	 3.7750
 0.3660	 3.8320
 0.3670	 3.8460
 0.3680	 3.8230
 0.3690	 3.7780
 0.3700	 3.8100
 0.3710	 3.8540
 0.3720	 3.8570
 0.3730	 3.8310
 0.3740	 3.7820
 0.3750	 3.7880
 0.3760	 3.8940
 0.3770	 3.8980
 0.3780	 3.8710
 0.3790	 3.8500
 0.3800	 3.8410
 0.3810	 3.7830
 0.3820	 3.7220
 0.3830	 3.7020
 0.3840	 3.7300
 0.3850	 3.8130
 0.3860	 3.8580
 0.3870	 3.7960
 0.3880	 3.9050
 0.3890	 3.9190
 0.3900	 3.8090
 0.3910	 3.8140
 0.3920	 3.8790
 0.3930	 3.9430
 0.3940	 3.9650
 0.3950	 3.9820
 0.3960	 3.9790
 0.3970	 3.9720
 0.3980	 3.9900
 0.3990	 4.0400
 0.4000	 4.0920
 0.4010	 4.1210
 0.4020	 4.1140
 0.4030	 4.1720
 0.4040	 4.2420
 0.4050	 4.2640
 0.4060	 4.3130
 0.4070	 4.3310
 0.4080	 4.3420
 0.4090	 4.4130
 0.4100	 4.4450
 0.4110	 4.4760
 0.4120	 4.5290
 0.4130	 4.5710
 0.4140	 4.6220
 0.4150	 4.6790
 0.4160	 4.7290
 0.4170	 4.7880
 0.4180	 4.8280
 0.4190	 4.8580
 0.4200	 4.9150
 0.4210	 4.9670
 0.4220	 5.0190
 0.4230	 5.0750
 0.4240	 5.1210
 0.4250	 5.1740
 0.4260	 5.2240
 0.4270	 5.2530
 0.4280	 5.2840
 0.4290	 5.3240
 0.4300	 5.3720
 0.4310	 5.4180
 0.4320	 5.4550
 0.4330	 5.4900
 0.4340	 5.5270
 0.4350	 5.5410
 0.4360	 5.5700
 0.4370	 5.6100
 0.4380	 5.6320
 0.4390	 5.6390
 0.4400	 5.6510
 0.4410	 5.6770
 0.4420	 5.6970
 0.4430	 5.7220
 0.4440	 5.7410
 0.4450	 5.7450
 0.4460	 5.7590
 0.4470	 5.7780
 0.4480	 5.7930
 0.4490	 5.7920
 0.4500	 5.8110
 0.4510	 5.8330
 0.4520	 5.8390
 0.4530	 5.8450
 0.4540	 5.8600
 0.4550	 5.8740
 0.4560	 5.8670
 0.4570	 5.8790
 0.4580	 5.8900
 0.4590	 5.8890
 0.4600	 5.8920
 0.4610	 5.8920
 0.4620	 5.8980
 0.4630	 5.9190
 0.4640	 5.9220
 0.4650	 5.9160
 0.4660	 5.9130
 0.4670	 5.9240
 0.4680	 5.9380
 0.4690	 5.9440
 0.4700	 5.9380
 0.4710	 5.9260
 0.4720	 5.9260
 0.4730	 5.9340
 0.4740	 5.9280
 0.4750	 5.9200
 0.4760	 5.9180
 0.4770	 5.9240
 0.4780	 5.9210
 0.4790	 5.9260
 0.4800	 5.9310
 0.4810	 5.9280
 0.4820	 5.9220
 0.4830	 5.9250
 0.4840	 5.9370
 0.4850	 5.9480
 0.4860	 5.9570
 0.4870	 5.9670
 0.4880	 5.9790
 0.4890	 5.9800
 0.4900	 5.9950
 0.4910	 6.0150
 0.4920	 6.0220
 0.4930	 6.0350
 0.4940	 6.0520
 0.4950	 6.0750
 0.4960	 6.1060
 0.4970	 6.1280
 0.4980	 6.1540
 0.4990	 6.1980
 0.5000	 6.2410
 0.5010	 6.2870
 0.5020	 6.3360
 0.5030	 6.3900
 0.5040	 6.4550
 0.5050	 6.5320
 0.5060	 6.6220
 0.5070	 6.7180
 0.5080	 6.8210
 0.5090	 6.9310
 0.5100	 7.0480
 0.5110	 7.1860
 0.5120	 7.3430
 0.5130	 7.5130
 0.5140	 7.6890
 0.5150	 7.8800
 0.5160	 8.0870
 0.5170	 8.3080
 0.5180	 8.5440
 0.5190	 8.7910
 0.5200	 9.0460
 0.5210	 9.3080
 0.5220	 9.5800
 0.5230	 9.8500
 0.5240	10.1150
 0.5250	10.3910
 0.5260	10.6580
 0.5270	10.9110
 0.5280	11.1530
 0.5290	11.3920
 0.5300	11.6270
 0.5310	11.8520
 0.5320	12.0600
 0.5330	12.2540
 0.5340	12.4380
 0.5350	12.6140
 0.5360	12.7760
 0.5370	12.9310
 0.5380	13.0790
 0.5390	13.2110
 0.5400	13.3510
 0.5410	13.4950
 0.5420	13.6320
 0.5430	13.7550
 0.5440	13.8700
 0.5450	13.9760
 0.5460	14.0690
 0.5470	14.1340
 0.5480	14.1920
 0.5490	14.2550
 0.5500	14.3190
 0.5510	14.3700
 0.5520	14.4070
 0.5530	14.4320
 0.5540	14.4400
 0.5550	14.4290
 0.5560	14.4000
 0.5570	14.3610
 0.5580	14.3050
 0.5590	14.2340
 0.5600	14.1530
 0.5610	14.0690
 0.5620	13.9770
 0.5630	13.8740
 0.5640	13.7610
 0.5650	13.6430
 0.5660	13.5220
 0.5670	13.3960
 0.5680	13.2580
 0.5690	13.1120
 0.5700	12.9600
 0.5710	12.8020
 0.5720	12.6470
 0.5730	12.4950
 0.5740	12.3460
 0.5750	12.2090
 0.5760	12.0760
 0.5770	11.9530
 0.5780	11.8410
 0.5790	11.7260
 0.5800	11.6170
 0.5810	11.5150
 0.5820	11.4210
 0.5830	11.3340
 0.5840	11.2470
 0.5850	11.1620
 0.5860	11.0890
 0.5870	11.0200
 0.5880	10.9520
 0.5890	10.8860
 0.5900	10.8280
 0.5910	10.7790
 0.5920	10.7380
 0.5930	10.7040
 0.5940	10.6760
 0.5950	10.6480
 0.5960	10.6180
 0.5970	10.5950
 0.5980	10.5690
 0.5990	10.5360
 0.6000	10.4960
 0.6010	10.4540
 0.6020	10.4070
 0.6030	10.3550
 0.6040	10.2970
 0.6050	10.2250
 0.6060	10.1450
 0.6070	10.0610
 0.6080	 9.9690
 0.6090	 9.8780
 0.6100	 9.7940
 0.6110	 9.7160
 0.6120	 9.6110
 0.6130	 9.4900
 0.6140	 9.3660
 0.6150	 9.2560
 0.6160	 9.1580
 0.6170	 9.0690
 0.6180	 8.9860
 0.6190	 8.9100
 0.6200	 8.8420
 0.6210	 8.7810
 0.6220	 8.7270
 0.6230	 8.6790
 0.6240	 8.6410
 0.6250	 8.6110
 0.6260	 8.5820
 0.6270	 8.5590
 0.6280	 8.5440
 0.6290	 8.5340
 0.6300	 8.5250
 0.6310	 8.5130
 0.6320	 8.4960
 0.6330	 8.4750
 0.6340	 8.4480
 0.6350	 8.4120
 0.6360	 8.3640
 0.6370	 8.3090
 0.6380	 8.2440
 0.6390	 8.1670
 0.6400	 8.0770
 0.6410	 7.9840
 0.6420	 7.8870
 0.6430	 7.7850
 0.6440	 7.6790
 0.6450	 7.5690
 0.6460	 7.4600
 0.6470	 7.3590
 0.6480	 7.2690
 0.6490	 7.1860
 0.6500	 7.1100
 0.6510	 7.0400
 0.6520	 6.9840
 0.6530	 6.9270
 0.6540	 6.8620
 0.6550	 6.8040
 0.6560	 6.7410
 0.6570	 6.6660
 0.6580	 6.5800
 0.6590	 6.4930
 0.6600	 6.4030
 0.6610	 6.3140
 0.6620	 6.2300
 0.6630	 6.1490
 0.6640	 6.0760
 0.6650	 6.0160
 0.6660	 5.9570
 0.6670	 5.9080
 0.6680	 5.8680
 0.6690	 5.8330
 0.6700	 5.8100
 0.6710	 5.7950
 0.6720	 5.7840
 0.6730	 5.7730
 0.6740	 5.7730
 0.6750	 5.7800
 0.6760	 5.7890
 0.6770	 5.7970
 0.6780	 5.8100
 0.6790	 5.8310
 0.6800	 5.8570
 0.6810	 5.8880
 0.6820	 5.9330
 0.6830	 5.9960
 0.6840	 6.0720
 0.6850	 6.1680
 0.6860	 6.2940
 0.6870	 6.4630
 0.6880	 6.6790
 0.6890	 6.9510
 0.6900	 7.2920
 0.6910	 7.7140
 0.6920	 8.2190
 0.6930	 8.8100
 0.6940	 9.4860
 0.6950	10.2440
 0.6960	11.0780
 0.6970	11.9750
 0.6980	12.9220
 0.6990	13.9120
 0.7000	14.9350
 0.7010	15.9780
 0.7020	17.0240
 0.7030	18.0650
 0.7040	19.0970
 0.7050	20.1130
 0.7060	21.1070
 0.7070	22.0810
 0.7080	23.0310
 0.7090	23.9550
 0.7100	24.8530
 0.7110	25.7330
 0.7120	26.5950
 0.7130	27.4340
 0.7140	28.2460
 0.7150	29.0370
 0.7160	29.8100
 0.7170	30.5620
 0.7180	31.2900
 0.7190	31.9950
 0.7200	32.6800
 0.7210	33.3420
 0.7220	33.9770
 0.7230	34.5850
 0.7240	35.1710
 0.7250	35.7350
 0.7260	36.2720
 0.7270	36.7780
 0.7280	37.2620
 0.7290	37.7230
 0.7300	38.1600
 0.7310	38.5690
 0.7320	38.9560
 0.7330	39.3220
 0.7340	39.6690
 0.7350	39.9960
 0.7360	40.3010
 0.7370	40.5860
 0.7380	40.8550
 0.7390	41.1100
 0.7400	41.3470
 0.7410	41.5680
 0.7420	41.7750
 0.7430	41.9670
 0.7440	42.1490
 0.7450	42.3190
 0.7460	42.4710
 0.7470	42.6170
 0.7480	42.7550
 0.7490	42.8800
 0.7500	43.0000
 0.7510	43.1090
 0.7520	43.2090
 0.7530	43.3030
 0.7540	43.3920
 0.7550	43.4750
 0.7560	43.5540
 0.7570	43.6290
 0.7580	43.6980
 0.7590	43.7630
 0.7600	43.8250
 0.7610	43.8820
 0.7620	43.9380
 0.7630	43.9910
 0.7640	44.0380
 0.7650	44.0860
 0.7660	44.1310
 0.7670	44.1750
 0.7680	44.2190
 0.7690	44.2610
 0.7700	44.2980
 0.7710	44.3330
 0.7720	44.3680
 0.7730	44.4050
 0.7740	44.4420
 0.7750	44.4770
 0.7760	44.5110
 0.7770	44.5430
 0.7780	44.5730
 0.7790	44.6070
 0.7800	44.6400
 0.7810	44.6730
 0.7820	44.7040
 0.7830	44.7360
 0.7840	44.7650
 0.7850	44.7920
 0.7860	44.8170
 0.7870	44.8450
 0.7880	44.8710
 0.7890	44.8980
 0.7900	44.9290
 0.7910	44.9510
 0.7920	44.9710
 0.7930	44.9940
 0.7940	45.0200
 0.7950	45.0420
 0.7960	45.0600
 0.7970	45.0750
 0.7980	45.0930
 0.7990	45.1160
 0.8000	45.1370
 0.8010	45.1530
 0.8020	45.1680
 0.8030	45.1780
 0.8040	45.1870
 0.8050	45.2010
 0.8060	45.2160
 0.8070	45.2260
 0.8080	45.2310
 0.8090	45.2380
 0.8100	45.2500
 0.8110	45.2610
 0.8120	45.2660
 0.8130	45.2720
 0.8140	45.2770
 0.8150	45.2810
 0.8160	45.2860
 0.8170	45.2900
 0.8180	45.2960
 0.8190	45.3020
 0.8200	45.3040
 0.8210	45.3080
 0.8220	45.3080
 0.8230	45.3060
 0.8240	45.3060
 0.8250	45.3080
 0.8260	45.3090
 0.8270	45.3060
 0.8280	45.3060
 0.8290	45.3010
 0.8300	45.2950
 0.8310	45.2930
 0.8320	45.2950
 0.8330	45.2960
 0.8340	45.2950
 0.8350	45.2960
 0.8360	45.2950
 0.8370	45.2970
 0.8380	45.3020
 0.8390	45.3080
 0.8400	45.3040
 0.8410	45.3070
 0.8420	45.3190
 0.8430	45.3210
 0.8440	45.3230
 0.8450	45.3280
 0.8460	45.3350
 0.8470	45.3410
 0.8480	45.3480
 0.8490	45.3550
 0.8500	45.3620
 0.8510	45.3660
 0.8520	45.3750
 0.8530	45.3850
 0.8540	45.3890
 0.8550	45.3970
 0.8560	45.4060
 0.8570	45.4130
 0.8580	45.4210
 0.8590	45.4290
 0.8600	45.4410
 0.8610	45.4550
 0.8620	45.4570
 0.8630	45.4710
 0.8640	45.4860
 0.8650	45.4910
 0.8660	45.5030
 0.8670	45.5140
 0.8680	45.5270
 0.8690	45.5430
 0.8700	45.5500
 0.8710	45.5580
 0.8720	45.5690
 0.8730	45.5810
 0.8740	45.5920
 0.8750	45.6040
 0.8760	45.6190
 0.8770	45.6340
 0.8780	45.6410
 0.8790	45.6470
 0.8800	45.6580
 0.8810	45.6790
 0.8820	45.6950
 0.8830	45.7040
 0.8840	45.7090
 0.8850	45.7290
 0.8860	45.7460
 0.8870	45.7560
 0.8880	45.7620
 0.8890	45.7760
 0.8900	45.7820
 0.8910	45.7850
 0.8920	45.7970
 0.8930	45.8080
 0.8940	45.8210
 0.8950	45.8360
 0.8960	45.8490
 0.8970	45.8640
 0.8980	45.8730
 0.8990	45.8780
 0.9000	45.8920
 0.9010	45.9050
 0.9020	45.9160
 0.9030	45.9250
 0.9040	45.9300
 0.9050	45.9420
 0.9060	45.9540
 0.9070	45.9610
 0.9080	45.9770
 0.9090	45.9860
 0.9100	45.9910
 0.9110	45.9990
 0.9120	46.0060
 0.9130	46.0140
 0.9140	46.0260
 0.9150	46.0390
 0.9160	46.0330
 0.9170	46.0280
 0.9180	46.0330
 0.9190	46.0450
 0.9200	46.0540
 0.9210	46.0570
 0.9220	46.0520
 0.9230	46.0380
 0.9240	46.0380
 0.9250	46.0380
 0.9260	46.0300
 0.9270	46.0170
 0.9280	46.0100
 0.9290	46.0040
 0.9300	45.9930
 0.9310	45.9810
 0.9320	45.9670
 0.9330	45.9590
 0.9340	45.9470
 0.9350	45.9130
 0.9360	45.8950
 0.9370	45.8780
 0.9380	45.8540
 0.9390	45.8350
 0.9400	45.8150
 0.9410	45.7940
 0.9420	45.7680
 0.9430	45.7290
 0.9440	45.6930
 0.9450	45.6560
 0.9460	45.6170
 0.9470	45.5770
 0.9480	45.5320
 0.9490	45.4880
 0.9500	45.4490
 0.9510	45.4020
 0.9520	45.3450
 0.9530	45.2820
 0.9540	45.2190
 0.9550	45.1620
 0.9560	45.1110
 0.9570	45.0490
 0.9580	44.9700
 0.9590	44.9130
 0.9600	44.8690
 0.9610	44.8310
 0.9620	44.7950
 0.9630	44.7850
 0.9640	44.7390
 0.9650	44.6870
 0.9660	44.6750
 0.9670	44.6380
 0.9680	44.6190
 0.9690	44.6120
 0.9700	44.5940
 0.9710	44.5850
 0.9720	44.5770
 0.9730	44.5700
 0.9740	44.5670
 0.9750	44.5510
 0.9760	44.5390
 0.9770	44.5400
 0.9780	44.5510
 0.9790	44.5510
 0.9800	44.5310
 0.9810	44.5180
 0.9820	44.5350
 0.9830	44.5370
 0.9840	44.5340
 0.9850	44.5420
 0.9860	44.5630
 0.9870	44.5640
 0.9880	44.5770
 0.9890	44.6010
 0.9900	44.6190
 0.9910	44.6310
 0.9920	44.6670
 0.9930	44.7030
 0.9940	44.7390
 0.9950	44.7750
 0.9960	44.8110
 0.9970	44.8470
 0.9980	44.8830
 0.9990	44.9190
 1.0000	44.9550
 1.0010	44.9910
 1.0020	45.0270
 1.0030	45.0630
 1.0040	45.0990
 1.0050	45.1350
 1.0060	45.1710
 1.0070	45.2060
 1.0080	45.2420
 1.0090	45.2780
 1.0100	45.2780
 1.0110	45.2940
 1.0120	45.3120
 1.0130	45.3310
 1.0140	45.3520
 1.0150	45.3760
 1.0160	45.3970
 1.0170	45.4190
 1.0180	45.4350
 1.0190	45.4510
 1.0200	45.4660
 1.0210	45.4810
 1.0220	45.4990
 1.0230	45.5180
 1.0240	45.5390
 1.0250	45.5570
 1.0260	45.5760
 1.0270	45.5930
 1.0280	45.6060
 1.0290	45.6200
 1.0300	45.6300
 1.0310	45.6460
 1.0320	45.6670
 1.0330	45.6830
 1.0340	45.6990
 1.0350	45.7140
 1.0360	45.7260
 1.0370	45.7360
 1.0380	45.7480
 1.0390	45.7640
 1.0400	45.7770
 1.0410	45.7880
 1.0420	45.8010
 1.0430	45.8160
 1.0440	45.8280
 1.0450	45.8420
 1.0460	45.8530
 1.0470	45.8600
 1.0480	45.8690
 1.0490	45.8770
 1.0500	45.8840
 1.0510	45.8920
 1.0520	45.9000
 1.0530	45.9070
 1.0540	45.9140
 1.0550	45.9200
 1.0560	45.9240
 1.0570	45.9290
 1.0580	45.9320
 1.0590	45.9360
 1.0600	45.9410
 1.0610	45.9460
 1.0620	45.9530
 1.0630	45.9590
 1.0640	45.9650
 1.0650	45.9710
 1.0660	45.9750
 1.0670	45.9780
 1.0680	45.9790
 1.0690	45.9790
 1.0700	45.9810
 1.0710	45.9830
 1.0720	45.9830
 1.0730	45.9830
 1.0740	45.9850
 1.0750	45.9860
 1.0760	45.9860
 1.0770	45.9900
 1.0780	45.9910
 1.0790	45.9880
 1.0800	45.9860
 1.0810	45.9880
 1.0820	45.9850
 1.0830	45.9790
 1.0840	45.9740
 1.0850	45.9680
 1.0860	45.9620
 1.0870	45.9560
 1.0880	45.9510
 1.0890	45.9450
 1.0900	45.9390
 1.0910	45.9320
 1.0920	45.9250
 1.0930	45.9180
 1.0940	45.9110
 1.0950	45.9030
 1.0960	45.8950
 1.0970	45.8870
 1.0980	45.8780
 1.0990	45.8670
 1.1000	45.8550
 1.1010	45.8450
 1.1020	45.8340
 1.1030	45.8230
 1.1040	45.8130
 1.1050	45.8030
 1.1060	45.7910
 1.1070	45.7770
 1.1080	45.7620
 1.1090	45.7430
 1.1100	45.7300
 1.1110	45.7190
 1.1120	45.7040
 1.1130	45.6900
 1.1140	45.6730
 1.1150	45.6510
 1.1160	45.6300
 1.1170	45.6130
 1.1180	45.5900
 1.1190	45.5670
 1.1200	45.5410
 1.1210	45.5090
 1.1220	45.4760
 1.1230	45.4400
 1.1240	45.4020
 1.1250	45.3600
 1.1260	45.3170
 1.1270	45.2660
 1.1280	45.2120
 1.1290	45.1500
 1.1300	45.0840
 1.1310	45.0090
 1.1320	44.9280
 1.1330	44.8400
 1.1340	44.7450
 1.1350	44.6430
 1.1360	44.5350
 1.1370	44.4190
 1.1380	44.2980
 1.1390	44.1730
 1.1400	44.0420
 1.1410	43.9090
 1.1420	43.7730
 1.1430	43.6340
 1.1440	43.4970
 1.1450	43.3580
 1.1460	43.2220
 1.1470	43.0850
 1.1480	42.9540
 1.1490	42.8230
 1.1500	42.7030
 1.1510	42.5900
 1.1520	42.4840
 1.1530	42.3840
 1.1540	42.2930
 1.1550	42.2110
 1.1560	42.1320
 1.1570	42.0630
 1.1580	42.0030
 1.1590	41.9470
 1.1600	41.9010
 1.1610	41.8610
 1.1620	41.8270
 1.1630	41.7980
 1.1640	41.7710
 1.1650	41.7460
 1.1660	41.7260
 1.1670	41.7070
 1.1680	41.6910
 1.1690	41.6760
 1.1700	41.6630
 1.1710	41.6520
 1.1720	41.6460
 1.1730	41.6360
 1.1740	41.6280
 1.1750	41.6170
 1.1760	41.6050
 1.1770	41.5930
 1.1780	41.5810
 1.1790	41.5690
 1.1800	41.5560
 1.1810	41.5420
 1.1820	41.5290
 1.1830	41.5170
 1.1840	41.5040
 1.1850	41.4920
 1.1860	41.4800
 1.1870	41.4670
 1.1880	41.4550
 1.1890	41.4440
 1.1900	41.4340
 1.1910	41.4230
 1.1920	41.4170
 1.1930	41.4130
 1.1940	41.4100
 1.1950	41.4090
 1.1960	41.4100
 1.1970	41.4100
 1.1980	41.4100
 1.1990	41.4130
 1.2000	41.4160
 1.2010	41.4190
 1.2020	41.4230
 1.2030	41.4270
 1.2040	41.4330
 1.2050	41.4430
 1.2060	41.4540
 1.2070	41.4660
 1.2080	41.4810
 1.2090	41.4950
 1.2100	41.5080
 1.2110	41.5220
 1.2120	41.5370
 1.2130	41.5520
 1.2140	41.5660
 1.2150	41.5840
 1.2160	41.6030
 1.2170	41.6220
 1.2180	41.6410
 1.2190	41.6630
 1.2200	41.6840
 1.2210	41.7040
 1.2220	41.7260
 1.2230	41.7470
 1.2240	41.7660
 1.2250	41.7860
 1.2260	41.8070
 1.2270	41.8280
 1.2280	41.8480
 1.2290	41.8660
 1.2300	41.8830
 1.2310	41.8990
 1.2320	41.9150
 1.2330	41.9330
 1.2340	41.9510
 1.2350	41.9700
 1.2360	41.9870
 1.2370	42.0020
 1.2380	42.0180
 1.2390	42.0310
 1.2400	42.0420
 1.2410	42.0550
 1.2420	42.0680
 1.2430	42.0800
 1.2440	42.0950
 1.2450	42.1090
 1.2460	42.1200
 1.2470	42.1300
 1.2480	42.1380
 1.2490	42.1470
 1.2500	42.1560
 1.2510	42.1640
 1.2520	42.1730
 1.2530	42.1800
 1.2540	42.1880
 1.2550	42.1950
 1.2560	42.2010
 1.2570	42.2050
 1.2580	42.2050
 1.2590	42.2070
 1.2600	42.2090
 1.2610	42.2100
 1.2620	42.2100
 1.2630	42.2120
 1.2640	42.2090
 1.2650	42.2030
 1.2660	42.1990
 1.2670	42.1920
 1.2680	42.1860
 1.2690	42.1810
 1.2700	42.1720
 1.2710	42.1630
 1.2720	42.1520
 1.2730	42.1390
 1.2740	42.1260
 1.2750	42.1140
 1.2760	42.0980
 1.2770	42.0830
 1.2780	42.0670
 1.2790	42.0470
 1.2800	42.0290
 1.2810	42.0110
 1.2820	41.9890
 1.2830	41.9670
 1.2840	41.9420
 1.2850	41.9130
 1.2860	41.8850
 1.2870	41.8550
 1.2880	41.8240
 1.2890	41.7910
 1.2900	41.7590
 1.2910	41.7240
 1.2920	41.6880
 1.2930	41.6500
 1.2940	41.6100
 1.2950	41.5690
 1.2960	41.5250
 1.2970	41.4800
 1.2980	41.4340
 1.2990	41.3820
 1.3000	41.3310
 1.3010	41.2770
 1.3020	41.2180
 1.3030	41.1590
 1.3040	41.0970
 1.3050	41.0310
 1.3060	40.9630
 1.3070	40.8930
 1.3080	40.8190
 1.3090	40.7420
 1.3100	40.6650
 1.3110	40.5830
 1.3120	40.4970
 1.3130	40.4090
 1.3140	40.3170
 1.3150	40.2220
 1.3160	40.1250
 1.3170	40.0270
 1.3180	39.9260
 1.3190	39.8190
 1.3200	39.7110
 1.3210	39.5960
 1.3220	39.4760
 1.3230	39.3560
 1.3240	39.2340
 1.3250	39.1080
 1.3260	38.9820
 1.3270	38.8510
 1.3280	38.7190
 1.3290	38.5860
 1.3300	38.4530
 1.3310	38.3180
 1.3320	38.1800
 1.3330	38.0410
 1.3340	37.8990
 1.3350	37.7580
 1.3360	37.6180
 1.3370	37.4770
 1.3380	37.3350
 1.3390	37.1950
 1.3400	37.0550
 1.3410	36.9170
 1.3420	36.7800
 1.3430	36.6440
 1.3440	36.5060
 1.3450	36.3710
 1.3460	36.2360
 1.3470	36.1040
 1.3480	35.9750
 1.3490	35.8460
 1.3500	35.7190
 1.3510	35.5930
 1.3520	35.4650
 1.3530	35.3390
 1.3540	35.2120
 1.3550	35.0860
 1.3560	34.9610
 1.3570	34.8340
 1.3580	34.7040
 1.3590	34.5740
 1.3600	34.4390
 1.3610	34.3020
 1.3620	34.1600
 1.3630	34.0130
 1.3640	33.8600
 1.3650	33.6980
 1.3660	33.5300
 1.3670	33.3520
 1.3680	33.1630
 1.3690	32.9630
 1.3700	32.7490
 1.3710	32.5200
 1.3720	32.2760
 1.3730	32.0150
 1.3740	31.7380
 1.3750	31.4430
 1.3760	31.1260
 1.3770	30.7860
 1.3780	30.4210
 1.3790	30.0330
 1.3800	29.6240
 1.3810	29.1890
 1.3820	28.7370
 1.3830	28.2660
 1.3840	27.7770
 1.3850	27.2690
 1.3860	26.7470
 1.3870	26.2020
 1.3880	25.6560
 1.3890	25.0970
 1.3900	24.5310
 1.3910	23.9670
 1.3920	23.3990
 1.3930	22.8280
 1.3940	22.2630
 1.3950	21.6960
 1.3960	21.1410
 1.3970	20.5990
 1.3980	20.0690
 1.3990	19.5600
 1.4000	19.0670
 1.4010	18.5880
 1.4020	18.1320
 1.4030	17.6930
 1.4040	17.2760
 1.4050	16.8830
 1.4060	16.5080
 1.4070	16.1590
 1.4080	15.8310
 1.4090	15.5230
 1.4100	15.2370
 1.4110	14.9680
 1.4120	14.7180
 1.4130	14.4880
 1.4140	14.2730
 1.4150	14.0780
 1.4160	13.8980
 1.4170	13.7300
 1.4180	13.5780
 1.4190	13.4370
 1.4200	13.3080
 1.4210	13.1910
 1.4220	13.0840
 1.4230	12.9870
 1.4240	12.8980
 1.4250	12.8160
 1.4260	12.7430
 1.4270	12.6760
 1.4280	12.6180
 1.4290	12.5640
 1.4300	12.5180
 1.4310	12.4760
 1.4320	12.4390
 1.4330	12.4060
 1.4340	12.3770
 1.4350	12.3530
 1.4360	12.3330
 1.4370	12.3160
 1.4380	12.3030
 1.4390	12.2920
 1.4400	12.2850
 1.4410	12.2810
 1.4420	12.2800
 1.4430	12.2800
 1.4440	12.2820
 1.4450	12.2840
 1.4460	12.2880
 1.4470	12.2950
 1.4480	12.3020
 1.4490	12.3110
 1.4500	12.3230
 1.4510	12.3350
 1.4520	12.3500
 1.4530	12.3650
 1.4540	12.3820
 1.4550	12.4000
 1.4560	12.4200
 1.4570	12.4430
 1.4580	12.4680
 1.4590	12.4970
 1.4600	12.5290
 1.4610	12.5650
 1.4620	12.6050
 1.4630	12.6490
 1.4640	12.6980
 1.4650	12.7510
 1.4660	12.8080
 1.4670	12.8700
 1.4680	12.9370
 1.4690	13.0090
 1.4700	13.0830
 1.4710	13.1630
 1.4720	13.2450
 1.4730	13.3310
 1.4740	13.4200
 1.4750	13.5130
 1.4760	13.6080
 1.4770	13.7060
 1.4780	13.8060
 1.4790	13.9090
 1.4800	14.0120
 1.4810	14.1170
 1.4820	14.2240
 1.4830	14.3320
 1.4840	14.4420
 1.4850	14.5530
 1.4860	14.6630
 1.4870	14.7770
 1.4880	14.8900
 1.4890	15.0030
 1.4900	15.1180
 1.4910	15.2340
 1.4920	15.3500
 1.4930	15.4680
 1.4940	15.5860
 1.4950	15.7060
 1.4960	15.8240
 1.4970	15.9430
 1.4980	16.0620
 1.4990	16.1810
 1.5000	16.3010
 1.5010	16.4220
 1.5020	16.5420
 1.5030	16.6620
 1.5040	16.7830
 1.5050	16.9020
 1.5060	17.0220
 1.5070	17.1410
 1.5080	17.2610
 1.5090	17.3820
 1.5100	17.5010
 1.5110	17.6200
 1.5120	17.7390
 1.5130	17.8550
 1.5140	17.9720
 1.5150	18.0900
 1.5160	18.2060
 1.5170	18.3220
 1.5180	18.4370
 1.5190	18.5530
 1.5200	18.6700
 1.5210	18.7840
 1.5220	18.8970
 1.5230	19.0090
 1.5240	19.1200
 1.5250	19.2310
 1.5260	19.3430
 1.5270	19.4530
 1.5280	19.5610
 1.5290	19.6670
 1.5300	19.7750
 1.5310	19.8810
 1.5320	19.9870
 1.5330	20.0930
 1.5340	20.1960
 1.5350	20.2970
 1.5360	20.3990
 1.5370	20.4990
 1.5380	20.5990
 1.5390	20.6990
 1.5400	20.7980
 1.5410	20.8950
 1.5420	20.9930
 1.5430	21.0900
 1.5440	21.1860
 1.5450	21.2810
 1.5460	21.3750
 1.5470	21.4690
 1.5480	21.5620
 1.5490	21.6550
 1.5500	21.7450
 1.5510	21.8350
 1.5520	21.9240
 1.5530	22.0110
 1.5540	22.1000
 1.5550	22.1870
 1.5560	22.2730
 1.5570	22.3580
 1.5580	22.4410
 1.5590	22.5250
 1.5600	22.6070
 1.5610	22.6870
 1.5620	22.7670
 1.5630	22.8470
 1.5640	22.9240
 1.5650	23.0030
 1.5660	23.0810
 1.5670	23.1560
 1.5680	23.2330
 1.5690	23.3080
 1.5700	23.3810
 1.5710	23.4540
 1.5720	23.5250
 1.5730	23.5970
 1.5740	23.6700
 1.5750	23.7420
 1.5760	23.8140
 1.5770	23.8820
 1.5780	23.9500
 1.5790	24.0190
 1.5800	24.0870
 1.5810	24.1560
 1.5820	24.2230
 1.5830	24.2870
 1.5840	24.3530
 1.5850	24.4170
 1.5860	24.4810
 1.5870	24.5450
 1.5880	24.6070
 1.5890	24.6700
 1.5900	24.7310
 1.5910	24.7910
 1.5920	24.8530
 1.5930	24.9130
 1.5940	24.9720
 1.5950	25.0310
 1.5960	25.0890
 1.5970	25.1460
 1.5980	25.2040
 1.5990	25.2600
 1.6000	25.3170
 1.6010	25.3720
 1.6020	25.4260
 1.6030	25.4800
 1.6040	25.5330
 1.6050	25.5870
 1.6060	25.6390
 1.6070	25.6890
 1.6080	25.7380
 1.6090	25.7860
 1.6100	25.8350
 1.6110	25.8830
 1.6120	25.9290
 1.6130	25.9730
 1.6140	26.0170
 1.6150	26.0620
 1.6160	26.1080
 1.6170	26.1530
 1.6180	26.1970
 1.6190	26.2400
 1.6200	26.2810
 1.6210	26.3230
 1.6220	26.3620
 1.6230	26.4010
 1.6240	26.4400
 1.6250	26.4760
 1.6260	26.5130
 1.6270	26.5490
 1.6280	26.5820
 1.6290	26.6160
 1.6300	26.6470
 1.6310	26.6800
 1.6320	26.7150
 1.6330	26.7470
 1.6340	26.7810
 1.6350	26.8100
 1.6360	26.8370
 1.6370	26.8630
 1.6380	26.8870
 1.6390	26.9100
 1.6400	26.9330
 1.6410	26.9540
 1.6420	26.9730
 1.6430	26.9910
 1.6440	27.0070
 1.6450	27.0210
 1.6460	27.0340
 1.6470	27.0470
 1.6480	27.0570
 1.6490	27.0660
 1.6500	27.0730
 1.6510	27.0770
 1.6520	27.0810
 1.6530	27.0830
 1.6540	27.0840
 1.6550	27.0890
 1.6560	27.0910
 1.6570	27.0930
 1.6580	27.0960
 1.6590	27.0950
 1.6600	27.0960
 1.6610	27.0990
 1.6620	27.1010
 1.6630	27.1050
 1.6640	27.1100
 1.6650	27.1140
 1.6660	27.1160
 1.6670	27.1200
 1.6680	27.1250
 1.6690	27.1300
 1.6700	27.1350
 1.6710	27.1390
 1.6720	27.1390
 1.6730	27.1360
 1.6740	27.1310
 1.6750	27.1220
 1.6760	27.1120
 1.6770	27.1020
 1.6780	27.0890
 1.6790	27.0740
 1.6800	27.0570
 1.6810	27.0340
 1.6820	27.0090
 1.6830	26.9810
 1.6840	26.9520
 1.6850	26.9210
 1.6860	26.8870
 1.6870	26.8520
 1.6880	26.8150
 1.6890	26.7760
 1.6900	26.7390
 1.6910	26.7030
 1.6920	26.6670
 1.6930	26.6310
 1.6940	26.5950
 1.6950	26.5600
 1.6960	26.5230
 1.6970	26.4850
 1.6980	26.4480
 1.6990	26.4100
 1.7000	26.3700
 1.7010	26.3280
 1.7020	26.2880
 1.7030	26.2470
 1.7040	26.2060
 1.7050	26.1660
 1.7060	26.1220
 1.7070	26.0740
 1.7080	26.0280
 1.7090	25.9810
 1.7100	25.9360
 1.7110	25.8900
 1.7120	25.8460
 1.7130	25.8010
 1.7140	25.7540
 1.7150	25.7050
 1.7160	25.6570
 1.7170	25.6100
 1.7180	25.5660
 1.7190	25.5220
 1.7200	25.4760
 1.7210	25.4290
 1.7220	25.3790
 1.7230	25.3290
 1.7240	25.2790
 1.7250	25.2290
 1.7260	25.1790
 1.7270	25.1310
 1.7280	25.0830
 1.7290	25.0360
 1.7300	24.9870
 1.7310	24.9420
 1.7320	24.9000
 1.7330	24.8560
 1.7340	24.8130
 1.7350	24.7700
 1.7360	24.7270
 1.7370	24.6830
 1.7380	24.6410
 1.7390	24.5950
 1.7400	24.5470
 1.7410	24.4970
 1.7420	24.4450
 1.7430	24.3940
 1.7440	24.3430
 1.7450	24.2910
 1.7460	24.2400
 1.7470	24.1850
 1.7480	24.1260
 1.7490	24.0670
 1.7500	24.0050
 1.7510	23.9460
 1.7520	23.8870
 1.7530	23.8260
 1.7540	23.7650
 1.7550	23.7030
 1.7560	23.6430
 1.7570	23.5830
 1.7580	23.5250
 1.7590	23.4670
 1.7600	23.4070
 1.7610	23.3510
 1.7620	23.2950
 1.7630	23.2370
 1.7640	23.1830
 1.7650	23.1310
 1.7660	23.0800
 1.7670	23.0340
 1.7680	22.9890
 1.7690	22.9440
 1.7700	22.9000
 1.7710	22.8550
 1.7720	22.8130
 1.7730	22.7720
 1.7740	22.7320
 1.7750	22.6960
 1.7760	22.6590
 1.7770	22.6210
 1.7780	22.5870
 1.7790	22.5530
 1.7800	22.5220
 1.7810	22.4940
 1.7820	22.4670
 1.7830	22.4420
 1.7840	22.4180
 1.7850	22.3970
 1.7860	22.3770
 1.7870	22.3590
 1.7880	22.3410
 1.7890	22.3260
 1.7900	22.3120
 1.7910	22.2990
 1.7920	22.2880
 1.7930	22.2780
 1.7940	22.2700
 1.7950	22.2640
 1.7960	22.2600
 1.7970	22.2570
 1.7980	22.2570
 1.7990	22.2560
 1.8000	22.2540
 1.8010	22.2530
 1.8020	22.2510
 1.8030	22.2510
 1.8040	22.2540
 1.8050	22.2550
 1.8060	22.2570
 1.8070	22.2600
 1.8080	22.2610
 1.8090	22.2630
 1.8100	22.2670
 1.8110	22.2680
 1.8120	22.2690
 1.8130	22.2710
 1.8140	22.2720
 1.8150	22.2730
 1.8160	22.2740
 1.8170	22.2690
 1.8180	22.2660
 1.8190	22.2630
 1.8200	22.2590
 1.8210	22.2560
 1.8220	22.2500
 1.8230	22.2390
 1.8240	22.2290
 1.8250	22.2190
 1.8260	22.2080
 1.8270	22.1510
 1.8280	22.0940
 1.8290	22.0370
 1.8300	21.9800
 1.8310	21.9230
 1.8320	21.8650
 1.8330	21.8080
 1.8340	21.7510
 1.8350	21.7510
 1.8360	21.7070
 1.8370	21.6600
 1.8380	21.6050
 1.8390	21.5470
 1.8400	21.4890
 1.8410	21.4220
 1.8420	21.3480
 1.8430	21.2710
 1.8440	21.1910
 1.8450	21.1000
 1.8460	21.0040
 1.8470	20.9010
 1.8480	20.7850
 1.8490	20.6600
 1.8500	20.5240
 1.8510	20.3780
 1.8520	20.2220
 1.8530	20.0580
 1.8540	19.8850
 1.8550	19.6980
 1.8560	19.4980
 1.8570	19.2850
 1.8580	19.0560
 1.8590	18.8170
 1.8600	18.5660
 1.8610	18.3040
 1.8620	18.0280
 1.8630	17.7420
 1.8640	17.4400
 1.8650	17.1210
 1.8660	16.7870
 1.8670	16.4310
 1.8680	16.0590
 1.8690	15.6760
 1.8700	15.2790
 1.8710	14.8660
 1.8720	14.4470
 1.8730	14.0200
 1.8740	13.5820
 1.8750	13.1400
 1.8760	12.6940
 1.8770	12.2510
 1.8780	11.8090
 1.8790	11.3690
 1.8800	10.9370
 1.8810	10.5120
 1.8820	10.0900
 1.8830	 9.6730
 1.8840	 9.2640
 1.8850	 8.8630
 1.8860	 8.4740
 1.8870	 8.1000
 1.8880	 7.7410
 1.8890	 7.4000
 1.8900	 7.0790
 1.8910	 6.7770
 1.8920	 6.4910
 1.8930	 6.2260
 1.8940	 5.9780
 1.8950	 5.7480
 1.8960	 5.5370
 1.8970	 5.3460
 1.8980	 5.1740
 1.8990	 5.0150
 1.9000	 4.8700
 1.9010	 4.7420
 1.9020	 4.6240
 1.9030	 4.5220
 1.9040	 4.4310
 1.9050	 4.3520
 1.9060	 4.2780
 1.9070	 4.2130
 1.9080	 4.1550
 1.9090	 4.1030
 1.9100	 4.0610
 1.9110	 4.0220
 1.9120	 3.9900
 1.9130	 3.9600
 1.9140	 3.9350
 1.9150	 3.9100
 1.9160	 3.8890
 1.9170	 3.8740
 1.9180	 3.8610
 1.9190	 3.8510
 1.9200	 3.8470
 1.9210	 3.8410
 1.9220	 3.8350
 1.9230	 3.8290
 1.9240	 3.8250
 1.9250	 3.8200
 1.9260	 3.8210
 1.9270	 3.8260
 1.9280	 3.8310
 1.9290	 3.8350
 1.9300	 3.8380
 1.9310	 3.8420
 1.9320	 3.8480
 1.9330	 3.8540
 1.9340	 3.8620
 1.9350	 3.8710
 1.9360	 3.8790
 1.9370	 3.8900
 1.9380	 3.9020
 1.9390	 3.9150
 1.9400	 3.9290
 1.9410	 3.9460
 1.9420	 3.9610
 1.9430	 3.9780
 1.9440	 3.9960
 1.9450	 4.0140
 1.9460	 4.0340
 1.9470	 4.0550
 1.9480	 4.0760
 1.9490	 4.0970
 1.9500	 4.1190
 1.9510	 4.1410
 1.9520	 4.1640
 1.9530	 4.1890
 1.9540	 4.2130
 1.9550	 4.2380
 1.9560	 4.2650
 1.9570	 4.2900
 1.9580	 4.3140
 1.9590	 4.3410
 1.9600	 4.3690
 1.9610	 4.3970
 1.9620	 4.4260
 1.9630	 4.4540
 1.9640	 4.4830
 1.9650	 4.5120
 1.9660	 4.5430
 1.9670	 4.5760
 1.9680	 4.6090
 1.9690	 4.6440
 1.9700	 4.6790
 1.9710	 4.7150
 1.9720	 4.7520
 1.9730	 4.7910
 1.9740	 4.8300
 1.9750	 4.8660
 1.9760	 4.9020
 1.9770	 4.9410
 1.9780	 4.9790
 1.9790	 5.0190
 1.9800	 5.0630
 1.9810	 5.1050
 1.9820	 5.1480
 1.9830	 5.1900
 1.9840	 5.2330
 1.9850	 5.2780
 1.9860	 5.3240
 1.9870	 5.3690
 1.9880	 5.4140
 1.9890	 5.4590
 1.9900	 5.5050
 1.9910	 5.5510
 1.9920	 5.5980
 1.9930	 5.6480
 1.9940	 5.6950
 1.9950	 5.7410
 1.9960	 5.7890
 1.9970	 5.8370
 1.9980	 5.8870
 1.9990	 5.9390
 2.0000	 5.9910
 2.0010	 6.0420
 2.0020	 6.0930
 2.0030	 6.1430
 2.0040	 6.1930
 2.0050	 6.2430
 2.0060	 6.2930
 2.0070	 6.3420
 2.0080	 6.3890
 2.0090	 6.4360
 2.0100	 6.4820
 2.0110	 6.5300
 2.0120	 6.5810
 2.0130	 6.6320
 2.0140	 6.6840
 2.0150	 6.7330
 2.0160	 6.7820
 2.0170	 6.8320
 2.0180	 6.8810
 2.0190	 6.9300
 2.0200	 6.9780
 2.0210	 7.0270
 2.0220	 7.0750
 2.0230	 7.1200
 2.0240	 7.1670
 2.0250	 7.2130
 2.0260	 7.2580
 2.0270	 7.3030
 2.0280	 7.3490
 2.0290	 7.3910
 2.0300	 7.4320
 2.0310	 7.4740
 2.0320	 7.5170
 2.0330	 7.5580
 2.0340	 7.6000
 2.0350	 7.6390
 2.0360	 7.6760
 2.0370	 7.7150
 2.0380	 7.7540
 2.0390	 7.7920
 2.0400	 7.8310
 2.0410	 7.8680
 2.0420	 7.9040
 2.0430	 7.9400
 2.0440	 7.9760
 2.0450	 8.0140
 2.0460	 8.0500
 2.0470	 8.0870
 2.0480	 8.1230
 2.0490	 8.1590
 2.0500	 8.1950
 2.0510	 8.2310
 2.0520	 8.2670
 2.0530	 8.3040
 2.0540	 8.3400
 2.0550	 8.3760
 2.0560	 8.4130
 2.0570	 8.4500
 2.0580	 8.4860
 2.0590	 8.5210
 2.0600	 8.5550
 2.0610	 8.5910
 2.0620	 8.6260
 2.0630	 8.6620
 2.0640	 8.6990
 2.0650	 8.7370
 2.0660	 8.7740
 2.0670	 8.8120
 2.0680	 8.8510
 2.0690	 8.8880
 2.0700	 8.9240
 2.0710	 8.9600
 2.0720	 8.9960
 2.0730	 9.0330
 2.0740	 9.0690
 2.0750	 9.1060
 2.0760	 9.1440
 2.0770	 9.1830
 2.0780	 9.2190
 2.0790	 9.2530
 2.0800	 9.2880
 2.0810	 9.3200
 2.0820	 9.3550
 2.0830	 9.3900
 2.0840	 9.4250
 2.0850	 9.4600
 2.0860	 9.4940
 2.0870	 9.5300
 2.0880	 9.5640
 2.0890	 9.5970
 2.0900	 9.6290
 2.0910	 9.6620
 2.0920	 9.6920
 2.0930	 9.7240
 2.0940	 9.7560
 2.0950	 9.7890
 2.0960	 9.8220
 2.0970	 9.8540
 2.0980	 9.8860
 2.0990	 9.9190
 2.1000	 9.9510
 2.1010	 9.9820
 2.1020	10.0140
 2.1030	10.0450
 2.1040	10.0730
 2.1050	10.1040
 2.1060	10.1310
 2.1070	10.1570
 2.1080	10.1860
 2.1090	10.2150
 2.1100	10.2450
 2.1110	10.2810
 2.1120	10.3120
 2.1130	10.3410
 2.1140	10.3700
 2.1150	10.3960
 2.1160	10.4240
 2.1170	10.4520
 2.1180	10.4800
 2.1190	10.5050
 2.1200	10.5330
 2.1210	10.5610
 2.1220	10.5910
 2.1230	10.6190
 2.1240	10.6500
 2.1250	10.6740
 2.1260	10.6930
 2.1270	10.7150
 2.1280	10.7340
 2.1290	10.7550
 2.1300	10.7770
 2.1310	10.7990
 2.1320	10.8230
 2.1330	10.8450
 2.1340	10.8680
 2.1350	10.8900
 2.1360	10.9100
 2.1370	10.9300
 2.1380	10.9490
 2.1390	10.9700
 2.1400	10.9930
 2.1410	11.0130
 2.1420	11.0340
 2.1430	11.0560
 2.1440	11.0770
 2.1450	11.0990
 2.1460	11.1170
 2.1470	11.1340
 2.1480	11.1510
 2.1490	11.1650
 2.1500	11.1830
 2.1510	11.2030
 2.1520	11.2230
 2.1530	11.2460
 2.1540	11.2640
 2.1550	11.2790
 2.1560	11.2970
 2.1570	11.3130
 2.1580	11.3290
 2.1590	11.3470
 2.1600	11.3660
 2.1610	11.3780
 2.1620	11.3910
 2.1630	11.4070
 2.1640	11.4240
 2.1650	11.4390
 2.1660	11.4570
 2.1670	11.4690
 2.1680	11.4710
 2.1690	11.4830
 2.1700	11.4960
 2.1710	11.5110
 2.1720	11.5320
 2.1730	11.5490
 2.1740	11.5620
 2.1750	11.5780
 2.1760	11.5940
 2.1770	11.6110
 2.1780	11.6310
 2.1790	11.6480
 2.1800	11.6670
 2.1810	11.6840
 2.1820	11.7000
 2.1830	11.7140
 2.1840	11.7310
 2.1850	11.7460
 2.1860	11.7650
 2.1870	11.7880
 2.1880	11.8080
 2.1890	11.8280
 2.1900	11.8490
 2.1910	11.8690
 2.1920	11.8890
 2.1930	11.9120
 2.1940	11.9320
 2.1950	11.9500
 2.1960	11.9680
 2.1970	11.9850
 2.1980	12.0020
 2.1990	12.0190
 2.2000	12.0360
 2.2010	12.0550
 2.2020	12.0700
 2.2030	12.0820
 2.2040	12.0940
 2.2050	12.1030
 2.2060	12.1140
 2.2070	12.1280
 2.2080	12.1460
 2.2090	12.1600
 2.2100	12.1760
 2.2110	12.1870
 2.2120	12.1940
 2.2130	12.2050
 2.2140	12.2170
 2.2150	12.2250
 2.2160	12.2330
 2.2170	12.2420
 2.2180	12.2490
 2.2190	12.2560
 2.2200	12.2640
 2.2210	12.2690
 2.2220	12.2720
 2.2230	12.2720
 2.2240	12.2720
 2.2250	12.2690
 2.2260	12.2630
 2.2270	12.2560
 2.2280	12.2500
 2.2290	12.2400
 2.2300	12.2300
 2.2310	12.2150
 2.2320	12.2000
 2.2330	12.1830
 2.2340	12.1660
 2.2350	12.1520
 2.2360	12.1300
 2.2370	12.1040
 2.2380	12.0780
 2.2390	12.0450
 2.2400	12.0140
 2.2410	11.9850
 2.2420	11.9540
 2.2430	11.9230
 2.2440	11.8900
 2.2450	11.8580
 2.2460	11.8220
 2.2470	11.7810
 2.2480	11.7440
 2.2490	11.7070
 2.2500	11.6700
 2.2510	11.6340
 2.2520	11.5990
 2.2530	11.5680
 2.2540	11.5320
 2.2550	11.4950
 2.2560	11.4560
 2.2570	11.4110
 2.2580	11.3690
 2.2590	11.3330
 2.2600	11.2930
 2.2610	11.2550
 2.2620	11.2130
 2.2630	11.1700
 2.2640	11.1270
 2.2650	11.0830
 2.2660	11.0400
 2.2670	10.9960
 2.2680	10.9510
 2.2690	10.9110
 2.2700	10.8730
 2.2710	10.8360
 2.2720	10.8050
 2.2730	10.7680
 2.2740	10.7290
 2.2750	10.6890
 2.2760	10.6440
 2.2770	10.6040
 2.2780	10.5650
 2.2790	10.5270
 2.2800	10.4930
 2.2810	10.4570
 2.2820	10.4200
 2.2830	10.3850
 2.2840	10.3510
 2.2850	10.3150
 2.2860	10.2790
 2.2870	10.2410
 2.2880	10.1990
 2.2890	10.1610
 2.2900	10.1280
 2.2910	10.0910
 2.2920	10.0540
 2.2930	10.0150
 2.2940	 9.9700
 2.2950	 9.9290
 2.2960	 9.8890
 2.2970	 9.8490
 2.2980	 9.8060
 2.2990	 9.7680
 2.3000	 9.7320
 2.3010	 9.6950
 2.3020	 9.6600
 2.3030	 9.6230
 2.3040	 9.5800
 2.3050	 9.5380
 2.3060	 9.4980
 2.3070	 9.4610
 2.3080	 9.4270
 2.3090	 9.3910
 2.3100	 9.3590
 2.3110	 9.3300
 2.3120	 9.3000
 2.3130	 9.2730
 2.3140	 9.2470
 2.3150	 9.2210
 2.3160	 9.1970
 2.3170	 9.1750
 2.3180	 9.1500
 2.3190	 9.1260
 2.3200	 9.1010
 2.3210	 9.0720
 2.3220	 9.0500
 2.3230	 9.0340
 2.3240	 9.0080
 2.3250	 8.9840
 2.3260	 8.9550
 2.3270	 8.9180
 2.3280	 8.8830
 2.3290	 8.8470
 2.3300	 8.8130
 2.3310	 8.7760
 2.3320	 8.7430
 2.3330	 8.7160
 2.3340	 8.6810
 2.3350	 8.6430
 2.3360	 8.6050
 2.3370	 8.5660
 2.3380	 8.5280
 2.3390	 8.4900
 2.3400	 8.4530
 2.3410	 8.4160
 2.3420	 8.3770
 2.3430	 8.3410
 2.3440	 8.3040
 2.3450	 8.2640
 2.3460	 8.2260
 2.3470	 8.1890
 2.3480	 8.1530
 2.3490	 8.1170
 2.3500	 8.0860
 2.3510	 8.0630
 2.3520	 8.0370
 2.3530	 8.0130
 2.3540	 7.9850
 2.3550	 7.9570
 2.3560	 7.9300
 2.3570	 7.9030
 2.3580	 7.8800
 2.3590	 7.8590
 2.3600	 7.8300
 2.3610	 7.8020
 2.3620	 7.7720
 2.3630	 7.7420
 2.3640	 7.7120
 2.3650	 7.6770
 2.3660	 7.6490
 2.3670	 7.6290
 2.3680	 7.6060
 2.3690	 7.5880
 2.3700	 7.5680
 2.3710	 7.5260
 2.3720	 7.4830
 2.3730	 7.4450
 2.3740	 7.4030
 2.3750	 7.3710
 2.3760	 7.3410
 2.3770	 7.3080
 2.3780	 7.2810
 2.3790	 7.2500
 2.3800	 7.2120
 2.3810	 7.1760
 2.3820	 7.1400
 2.3830	 7.1080
 2.3840	 7.0830
 2.3850	 7.0480
 2.3860	 7.0140
 2.3870	 6.9780
 2.3880	 6.9330
 2.3890	 6.8900
 2.3900	 6.8470
 2.3910	 6.8100
 2.3920	 6.7770
 2.3930	 6.7600
 2.3940	 6.7450
 2.3950	 6.7200
 2.3960	 6.6870
 2.3970	 6.6400
 2.3980	 6.5960
 2.3990	 6.5630
 2.4000	 6.5350
 2.4010	 6.5160
 2.4020	 6.4920
 2.4030	 6.4470
 2.4040	 6.4020
 2.4050	 6.3630
 2.4060	 6.3130
 2.4070	 6.2690
 2.4080	 6.2370
 2.4090	 6.1940
 2.4100	 6.1570
 2.4110	 6.1410
 2.4120	 6.1140
 2.4130	 6.0840
 2.4140	 6.0510
 2.4150	 6.0110
 2.4160	 5.9730
 2.4170	 5.9390
 2.4180	 5.9090
 2.4190	 5.8680
 2.4200	 5.8210
 2.4210	 5.7800
 2.4220	 5.7370
 2.4230	 5.6970
 2.4240	 5.6550
 2.4250	 5.6180
 2.4260	 5.5830
 2.4270	 5.5490
 2.4280	 5.5320
 2.4290	 5.5010
 2.4300	 5.4660
 2.4310	 5.4480
 2.4320	 5.4130
 2.4330	 5.3830
 2.4340	 5.3580
 2.4350	 5.3200
 2.4360	 5.2920
 2.4370	 5.2490
 2.4380	 5.2050
 2.4390	 5.1770
 2.4400	 5.1350
 2.4410	 5.1070
 2.4420	 5.0830
 2.4430	 5.0530
 2.4440	 5.0280
 2.4450	 4.9980
 2.4460	 4.9820
 2.4470	 4.9630
 2.4480	 4.9270
 2.4490	 4.9030
 2.4500	 4.8710
 2.4510	 4.8140
 2.4520	 4.7620
 2.4530	 4.7140
 2.4540	 4.6840
 2.4550	 4.6770
 2.4560	 4.6580
 2.4570	 4.6420
 2.4580	 4.6270
 2.4590	 4.5950
 2.4600	 4.5830
 2.4610	 4.5820
 2.4620	 4.5590
 2.4630	 4.5360
 2.4640	 4.5190
 2.4650	 4.4790
 2.4660	 4.4420
 2.4670	 4.4130
 2.4680	 4.3830
 2.4690	 4.3730
 2.4700	 4.3400
 2.4710	 4.2960
 2.4720	 4.2620
 2.4730	 4.2160
 2.4740	 4.2020
 2.4750	 4.2140
 2.4760	 4.2130
 2.4770	 4.2350
 2.4780	 4.2270
 2.4790	 4.1940
 2.4800	 4.1760
 2.4810	 4.1500
 2.4820	 4.1170
 2.4830	 4.0960
 2.4840	 4.0840
 2.4850	 4.0490
 2.4860	 4.0460
 2.4870	 4.0640
 2.4880	 4.0450
 2.4890	 4.0340
 2.4900	 4.0030
 2.4910	 3.9490
 2.4920	 3.9350
 2.4930	 3.9360
 2.4940	 3.9610
 2.4950	 4.0090
 2.4960	 4.0050
 2.4970	 3.9750
 2.4980	 3.9650
 2.4990	 3.9250
 2.5000	 3.9390
