Name: Citharexylum montevidense
Type: vegetation
Class: Tree
Genus: Citharexylum
Species: montevidense
Sample No.: JPL200
Owner: JPL
Wavelength Range: VSWIR
Origin: 34.12557; -118.11327; WGS84
Collection Date: 10/3/2016
Description: Samples were collected at the Huntington Garden in San Marino California as part of a JPL Subcontract studying HyTES imagery. Samples were taken to JPL and processed within 48 hours of collection. The same leaves were processed in the Nicolet and then measured using the ASD.
Measurement: Bidirectional reflectance
First Column: X
Second Column: Y
X Units: Wavelength (micrometer)
Y Units: Reflectance (percentage)
First X Value: 0.35
Last X Value: 2.5
Number of X Values: 2151
Additional Information: vegetation.tree.citharexylum.montevidense.vswir.jpl200.jpl.asd.ancillary.txt

 0.3500	 4.0510
 0.3510	 4.1260
 0.3520	 4.0620
 0.3530	 3.9560
 0.3540	 3.9170
 0.3550	 3.9150
 0.3560	 3.8740
 0.3570	 3.8050
 0.3580	 3.7640
 0.3590	 3.7180
 0.3600	 3.7900
 0.3610	 3.9310
 0.3620	 3.8450
 0.3630	 3.7390
 0.3640	 3.7010
 0.3650	 3.7450
 0.3660	 3.7200
 0.3670	 3.7240
 0.3680	 3.7520
 0.3690	 3.7320
 0.3700	 3.7210
 0.3710	 3.6870
 0.3720	 3.6360
 0.3730	 3.6540
 0.3740	 3.6790
 0.3750	 3.6690
 0.3760	 3.6180
 0.3770	 3.6530
 0.3780	 3.6730
 0.3790	 3.6570
 0.3800	 3.6610
 0.3810	 3.6930
 0.3820	 3.6950
 0.3830	 3.6400
 0.3840	 3.5930
 0.3850	 3.6070
 0.3860	 3.6450
 0.3870	 3.6480
 0.3880	 3.6680
 0.3890	 3.6420
 0.3900	 3.5980
 0.3910	 3.6550
 0.3920	 3.6770
 0.3930	 3.6500
 0.3940	 3.6050
 0.3950	 3.6050
 0.3960	 3.6290
 0.3970	 3.6440
 0.3980	 3.6230
 0.3990	 3.6340
 0.4000	 3.6410
 0.4010	 3.6280
 0.4020	 3.6250
 0.4030	 3.6250
 0.4040	 3.6300
 0.4050	 3.6390
 0.4060	 3.6410
 0.4070	 3.6500
 0.4080	 3.6550
 0.4090	 3.6360
 0.4100	 3.6510
 0.4110	 3.6550
 0.4120	 3.6340
 0.4130	 3.6550
 0.4140	 3.6620
 0.4150	 3.6530
 0.4160	 3.6460
 0.4170	 3.6750
 0.4180	 3.6890
 0.4190	 3.6790
 0.4200	 3.6760
 0.4210	 3.6810
 0.4220	 3.6830
 0.4230	 3.6780
 0.4240	 3.6840
 0.4250	 3.6910
 0.4260	 3.6970
 0.4270	 3.7020
 0.4280	 3.7010
 0.4290	 3.6990
 0.4300	 3.6990
 0.4310	 3.6940
 0.4320	 3.6970
 0.4330	 3.7030
 0.4340	 3.7020
 0.4350	 3.7100
 0.4360	 3.7130
 0.4370	 3.7120
 0.4380	 3.7170
 0.4390	 3.7190
 0.4400	 3.7160
 0.4410	 3.7120
 0.4420	 3.7180
 0.4430	 3.7280
 0.4440	 3.7370
 0.4450	 3.7430
 0.4460	 3.7430
 0.4470	 3.7460
 0.4480	 3.7530
 0.4490	 3.7600
 0.4500	 3.7580
 0.4510	 3.7580
 0.4520	 3.7680
 0.4530	 3.7750
 0.4540	 3.7810
 0.4550	 3.7850
 0.4560	 3.7830
 0.4570	 3.7920
 0.4580	 3.8000
 0.4590	 3.8000
 0.4600	 3.7980
 0.4610	 3.8040
 0.4620	 3.8090
 0.4630	 3.8040
 0.4640	 3.8140
 0.4650	 3.8190
 0.4660	 3.8170
 0.4670	 3.8180
 0.4680	 3.8200
 0.4690	 3.8190
 0.4700	 3.8160
 0.4710	 3.8250
 0.4720	 3.8260
 0.4730	 3.8180
 0.4740	 3.8130
 0.4750	 3.8170
 0.4760	 3.8210
 0.4770	 3.8260
 0.4780	 3.8390
 0.4790	 3.8370
 0.4800	 3.8240
 0.4810	 3.8160
 0.4820	 3.8260
 0.4830	 3.8360
 0.4840	 3.8390
 0.4850	 3.8410
 0.4860	 3.8480
 0.4870	 3.8550
 0.4880	 3.8570
 0.4890	 3.8560
 0.4900	 3.8640
 0.4910	 3.8780
 0.4920	 3.8920
 0.4930	 3.9020
 0.4940	 3.9140
 0.4950	 3.9310
 0.4960	 3.9450
 0.4970	 3.9680
 0.4980	 3.9930
 0.4990	 4.0160
 0.5000	 4.0410
 0.5010	 4.0730
 0.5020	 4.1110
 0.5030	 4.1510
 0.5040	 4.1970
 0.5050	 4.2510
 0.5060	 4.3100
 0.5070	 4.3690
 0.5080	 4.4460
 0.5090	 4.5360
 0.5100	 4.6270
 0.5110	 4.7250
 0.5120	 4.8370
 0.5130	 4.9650
 0.5140	 5.1010
 0.5150	 5.2510
 0.5160	 5.4140
 0.5170	 5.5890
 0.5180	 5.7730
 0.5190	 5.9720
 0.5200	 6.1840
 0.5210	 6.4050
 0.5220	 6.6290
 0.5230	 6.8530
 0.5240	 7.0770
 0.5250	 7.3030
 0.5260	 7.5290
 0.5270	 7.7470
 0.5280	 7.9510
 0.5290	 8.1470
 0.5300	 8.3310
 0.5310	 8.5000
 0.5320	 8.6610
 0.5330	 8.8110
 0.5340	 8.9480
 0.5350	 9.0700
 0.5360	 9.1790
 0.5370	 9.2790
 0.5380	 9.3730
 0.5390	 9.4580
 0.5400	 9.5370
 0.5410	 9.6150
 0.5420	 9.6930
 0.5430	 9.7590
 0.5440	 9.8140
 0.5450	 9.8600
 0.5460	 9.8950
 0.5470	 9.9270
 0.5480	 9.9560
 0.5490	 9.9830
 0.5500	10.0080
 0.5510	10.0240
 0.5520	10.0290
 0.5530	10.0210
 0.5540	 9.9990
 0.5550	 9.9640
 0.5560	 9.9150
 0.5570	 9.8510
 0.5580	 9.7780
 0.5590	 9.6940
 0.5600	 9.5960
 0.5610	 9.4910
 0.5620	 9.3780
 0.5630	 9.2570
 0.5640	 9.1300
 0.5650	 8.9980
 0.5660	 8.8600
 0.5670	 8.7140
 0.5680	 8.5600
 0.5690	 8.4020
 0.5700	 8.2490
 0.5710	 8.1050
 0.5720	 7.9640
 0.5730	 7.8270
 0.5740	 7.6940
 0.5750	 7.5680
 0.5760	 7.4560
 0.5770	 7.3560
 0.5780	 7.2640
 0.5790	 7.1770
 0.5800	 7.0920
 0.5810	 7.0080
 0.5820	 6.9250
 0.5830	 6.8550
 0.5840	 6.7910
 0.5850	 6.7310
 0.5860	 6.6770
 0.5870	 6.6200
 0.5880	 6.5610
 0.5890	 6.5000
 0.5900	 6.4460
 0.5910	 6.3990
 0.5920	 6.3610
 0.5930	 6.3330
 0.5940	 6.3070
 0.5950	 6.2840
 0.5960	 6.2620
 0.5970	 6.2380
 0.5980	 6.2140
 0.5990	 6.1900
 0.6000	 6.1700
 0.6010	 6.1490
 0.6020	 6.1200
 0.6030	 6.0820
 0.6040	 6.0390
 0.6050	 5.9910
 0.6060	 5.9380
 0.6070	 5.8800
 0.6080	 5.8200
 0.6090	 5.7580
 0.6100	 5.6950
 0.6110	 5.6340
 0.6120	 5.5730
 0.6130	 5.5100
 0.6140	 5.4480
 0.6150	 5.3850
 0.6160	 5.3260
 0.6170	 5.2730
 0.6180	 5.2260
 0.6190	 5.1820
 0.6200	 5.1440
 0.6210	 5.1120
 0.6220	 5.0810
 0.6230	 5.0550
 0.6240	 5.0340
 0.6250	 5.0190
 0.6260	 5.0070
 0.6270	 4.9970
 0.6280	 4.9890
 0.6290	 4.9850
 0.6300	 4.9790
 0.6310	 4.9730
 0.6320	 4.9650
 0.6330	 4.9510
 0.6340	 4.9340
 0.6350	 4.9120
 0.6360	 4.8840
 0.6370	 4.8490
 0.6380	 4.8100
 0.6390	 4.7680
 0.6400	 4.7210
 0.6410	 4.6700
 0.6420	 4.6190
 0.6430	 4.5680
 0.6440	 4.5140
 0.6450	 4.4640
 0.6460	 4.4180
 0.6470	 4.3720
 0.6480	 4.3340
 0.6490	 4.3010
 0.6500	 4.2740
 0.6510	 4.2550
 0.6520	 4.2370
 0.6530	 4.2190
 0.6540	 4.2010
 0.6550	 4.1860
 0.6560	 4.1690
 0.6570	 4.1490
 0.6580	 4.1280
 0.6590	 4.1040
 0.6600	 4.0810
 0.6610	 4.0610
 0.6620	 4.0410
 0.6630	 4.0250
 0.6640	 4.0130
 0.6650	 4.0040
 0.6660	 3.9960
 0.6670	 3.9940
 0.6680	 3.9980
 0.6690	 4.0090
 0.6700	 4.0210
 0.6710	 4.0360
 0.6720	 4.0530
 0.6730	 4.0720
 0.6740	 4.0980
 0.6750	 4.1280
 0.6760	 4.1580
 0.6770	 4.1910
 0.6780	 4.2270
 0.6790	 4.2650
 0.6800	 4.3090
 0.6810	 4.3530
 0.6820	 4.4000
 0.6830	 4.4500
 0.6840	 4.4990
 0.6850	 4.5540
 0.6860	 4.6140
 0.6870	 4.6830
 0.6880	 4.7680
 0.6890	 4.8760
 0.6900	 5.0170
 0.6910	 5.2060
 0.6920	 5.4530
 0.6930	 5.7680
 0.6940	 6.1550
 0.6950	 6.6190
 0.6960	 7.1630
 0.6970	 7.7870
 0.6980	 8.4840
 0.6990	 9.2460
 0.7000	10.0650
 0.7010	10.9340
 0.7020	11.8390
 0.7030	12.7700
 0.7040	13.7180
 0.7050	14.6770
 0.7060	15.6410
 0.7070	16.6090
 0.7080	17.5810
 0.7090	18.5560
 0.7100	19.5310
 0.7110	20.5100
 0.7120	21.4920
 0.7130	22.4690
 0.7140	23.4450
 0.7150	24.4190
 0.7160	25.3860
 0.7170	26.3500
 0.7180	27.3020
 0.7190	28.2410
 0.7200	29.1680
 0.7210	30.0760
 0.7220	30.9620
 0.7230	31.8270
 0.7240	32.6690
 0.7250	33.4810
 0.7260	34.2620
 0.7270	35.0120
 0.7280	35.7320
 0.7290	36.4200
 0.7300	37.0740
 0.7310	37.6940
 0.7320	38.2810
 0.7330	38.8340
 0.7340	39.3570
 0.7350	39.8490
 0.7360	40.3100
 0.7370	40.7400
 0.7380	41.1430
 0.7390	41.5170
 0.7400	41.8640
 0.7410	42.1850
 0.7420	42.4830
 0.7430	42.7560
 0.7440	43.0050
 0.7450	43.2310
 0.7460	43.4380
 0.7470	43.6260
 0.7480	43.7960
 0.7490	43.9480
 0.7500	44.0880
 0.7510	44.2160
 0.7520	44.3290
 0.7530	44.4270
 0.7540	44.5170
 0.7550	44.6020
 0.7560	44.6780
 0.7570	44.7420
 0.7580	44.8010
 0.7590	44.8550
 0.7600	44.9030
 0.7610	44.9500
 0.7620	44.9900
 0.7630	45.0230
 0.7640	45.0510
 0.7650	45.0780
 0.7660	45.1010
 0.7670	45.1200
 0.7680	45.1380
 0.7690	45.1550
 0.7700	45.1700
 0.7710	45.1840
 0.7720	45.1960
 0.7730	45.2050
 0.7740	45.2160
 0.7750	45.2280
 0.7760	45.2350
 0.7770	45.2450
 0.7780	45.2570
 0.7790	45.2660
 0.7800	45.2730
 0.7810	45.2800
 0.7820	45.2890
 0.7830	45.2980
 0.7840	45.3040
 0.7850	45.3110
 0.7860	45.3190
 0.7870	45.3190
 0.7880	45.3260
 0.7890	45.3340
 0.7900	45.3350
 0.7910	45.3380
 0.7920	45.3420
 0.7930	45.3460
 0.7940	45.3490
 0.7950	45.3510
 0.7960	45.3530
 0.7970	45.3540
 0.7980	45.3550
 0.7990	45.3530
 0.8000	45.3480
 0.8010	45.3440
 0.8020	45.3430
 0.8030	45.3420
 0.8040	45.3390
 0.8050	45.3350
 0.8060	45.3300
 0.8070	45.3240
 0.8080	45.3190
 0.8090	45.3140
 0.8100	45.3100
 0.8110	45.3050
 0.8120	45.2990
 0.8130	45.2950
 0.8140	45.2880
 0.8150	45.2800
 0.8160	45.2740
 0.8170	45.2690
 0.8180	45.2630
 0.8190	45.2570
 0.8200	45.2530
 0.8210	45.2500
 0.8220	45.2430
 0.8230	45.2350
 0.8240	45.2340
 0.8250	45.2260
 0.8260	45.2200
 0.8270	45.2180
 0.8280	45.2150
 0.8290	45.2100
 0.8300	45.2040
 0.8310	45.1980
 0.8320	45.1880
 0.8330	45.1820
 0.8340	45.1810
 0.8350	45.1810
 0.8360	45.1810
 0.8370	45.1810
 0.8380	45.1830
 0.8390	45.1870
 0.8400	45.1890
 0.8410	45.1920
 0.8420	45.1960
 0.8430	45.2010
 0.8440	45.2030
 0.8450	45.2050
 0.8460	45.2050
 0.8470	45.2090
 0.8480	45.2160
 0.8490	45.2230
 0.8500	45.2290
 0.8510	45.2340
 0.8520	45.2410
 0.8530	45.2500
 0.8540	45.2610
 0.8550	45.2650
 0.8560	45.2690
 0.8570	45.2770
 0.8580	45.2890
 0.8590	45.2940
 0.8600	45.3010
 0.8610	45.3120
 0.8620	45.3180
 0.8630	45.3240
 0.8640	45.3340
 0.8650	45.3460
 0.8660	45.3500
 0.8670	45.3560
 0.8680	45.3630
 0.8690	45.3710
 0.8700	45.3830
 0.8710	45.3940
 0.8720	45.4040
 0.8730	45.4130
 0.8740	45.4220
 0.8750	45.4290
 0.8760	45.4360
 0.8770	45.4490
 0.8780	45.4580
 0.8790	45.4630
 0.8800	45.4670
 0.8810	45.4750
 0.8820	45.4860
 0.8830	45.4980
 0.8840	45.5090
 0.8850	45.5170
 0.8860	45.5230
 0.8870	45.5290
 0.8880	45.5340
 0.8890	45.5390
 0.8900	45.5450
 0.8910	45.5520
 0.8920	45.5590
 0.8930	45.5670
 0.8940	45.5730
 0.8950	45.5770
 0.8960	45.5780
 0.8970	45.5890
 0.8980	45.5970
 0.8990	45.5990
 0.9000	45.6060
 0.9010	45.6150
 0.9020	45.6190
 0.9030	45.6180
 0.9040	45.6220
 0.9050	45.6290
 0.9060	45.6370
 0.9070	45.6420
 0.9080	45.6420
 0.9090	45.6410
 0.9100	45.6420
 0.9110	45.6450
 0.9120	45.6480
 0.9130	45.6520
 0.9140	45.6560
 0.9150	45.6600
 0.9160	45.6560
 0.9170	45.6570
 0.9180	45.6600
 0.9190	45.6550
 0.9200	45.6530
 0.9210	45.6490
 0.9220	45.6410
 0.9230	45.6350
 0.9240	45.6270
 0.9250	45.6170
 0.9260	45.6060
 0.9270	45.5960
 0.9280	45.5710
 0.9290	45.5520
 0.9300	45.5390
 0.9310	45.5170
 0.9320	45.4960
 0.9330	45.4770
 0.9340	45.4580
 0.9350	45.4410
 0.9360	45.4110
 0.9370	45.3790
 0.9380	45.3510
 0.9390	45.3220
 0.9400	45.2940
 0.9410	45.2640
 0.9420	45.2310
 0.9430	45.1990
 0.9440	45.1590
 0.9450	45.1170
 0.9460	45.0750
 0.9470	45.0240
 0.9480	44.9680
 0.9490	44.9100
 0.9500	44.8550
 0.9510	44.7990
 0.9520	44.7380
 0.9530	44.6730
 0.9540	44.6100
 0.9550	44.5530
 0.9560	44.4860
 0.9570	44.4210
 0.9580	44.3690
 0.9590	44.3140
 0.9600	44.2650
 0.9610	44.2180
 0.9620	44.1730
 0.9630	44.1380
 0.9640	44.1060
 0.9650	44.0780
 0.9660	44.0590
 0.9670	44.0430
 0.9680	44.0260
 0.9690	44.0040
 0.9700	43.9780
 0.9710	43.9700
 0.9720	43.9580
 0.9730	43.9410
 0.9740	43.9260
 0.9750	43.9220
 0.9760	43.9220
 0.9770	43.9200
 0.9780	43.9120
 0.9790	43.9100
 0.9800	43.9110
 0.9810	43.9130
 0.9820	43.9120
 0.9830	43.9180
 0.9840	43.9260
 0.9850	43.9330
 0.9860	43.9430
 0.9870	43.9590
 0.9880	43.9660
 0.9890	43.9730
 0.9900	43.9890
 0.9910	43.9880
 0.9920	44.0050
 0.9930	44.0330
 0.9940	44.0480
 0.9950	44.0650
 0.9960	44.0900
 0.9970	44.1130
 0.9980	44.1230
 0.9990	44.1400
 1.0000	44.1590
 1.0010	45.3680
 1.0020	45.3850
 1.0030	45.4020
 1.0040	45.4260
 1.0050	45.4480
 1.0060	45.4700
 1.0070	45.4960
 1.0080	45.5180
 1.0090	45.5340
 1.0100	45.5560
 1.0110	45.5790
 1.0120	45.6010
 1.0130	45.6240
 1.0140	45.6460
 1.0150	45.6660
 1.0160	45.6860
 1.0170	45.7080
 1.0180	45.7310
 1.0190	45.7540
 1.0200	45.7790
 1.0210	45.8030
 1.0220	45.8250
 1.0230	45.8480
 1.0240	45.8680
 1.0250	45.8910
 1.0260	45.9170
 1.0270	45.9410
 1.0280	45.9650
 1.0290	45.9880
 1.0300	46.0080
 1.0310	46.0290
 1.0320	46.0500
 1.0330	46.0740
 1.0340	46.0930
 1.0350	46.1140
 1.0360	46.1350
 1.0370	46.1560
 1.0380	46.1780
 1.0390	46.2060
 1.0400	46.2270
 1.0410	46.2470
 1.0420	46.2660
 1.0430	46.2810
 1.0440	46.2970
 1.0450	46.3130
 1.0460	46.3270
 1.0470	46.3410
 1.0480	46.3550
 1.0490	46.3650
 1.0500	46.3790
 1.0510	46.3960
 1.0520	46.4110
 1.0530	46.4220
 1.0540	46.4340
 1.0550	46.4450
 1.0560	46.4530
 1.0570	46.4610
 1.0580	46.4720
 1.0590	46.4790
 1.0600	46.4810
 1.0610	46.4850
 1.0620	46.4890
 1.0630	46.4910
 1.0640	46.4930
 1.0650	46.4950
 1.0660	46.4980
 1.0670	46.4980
 1.0680	46.4970
 1.0690	46.4940
 1.0700	46.4920
 1.0710	46.4860
 1.0720	46.4810
 1.0730	46.4780
 1.0740	46.4730
 1.0750	46.4680
 1.0760	46.4620
 1.0770	46.4550
 1.0780	46.4490
 1.0790	46.4440
 1.0800	46.4360
 1.0810	46.4310
 1.0820	46.4230
 1.0830	46.4100
 1.0840	46.4000
 1.0850	46.3910
 1.0860	46.3830
 1.0870	46.3720
 1.0880	46.3620
 1.0890	46.3520
 1.0900	46.3420
 1.0910	46.3310
 1.0920	46.3220
 1.0930	46.3110
 1.0940	46.2980
 1.0950	46.2850
 1.0960	46.2710
 1.0970	46.2580
 1.0980	46.2430
 1.0990	46.2300
 1.1000	46.2190
 1.1010	46.2060
 1.1020	46.1900
 1.1030	46.1770
 1.1040	46.1640
 1.1050	46.1510
 1.1060	46.1380
 1.1070	46.1270
 1.1080	46.1130
 1.1090	46.0950
 1.1100	46.0810
 1.1110	46.0670
 1.1120	46.0520
 1.1130	46.0420
 1.1140	46.0250
 1.1150	46.0030
 1.1160	45.9830
 1.1170	45.9620
 1.1180	45.9390
 1.1190	45.9150
 1.1200	45.8920
 1.1210	45.8650
 1.1220	45.8330
 1.1230	45.8010
 1.1240	45.7640
 1.1250	45.7200
 1.1260	45.6700
 1.1270	45.6140
 1.1280	45.5530
 1.1290	45.4830
 1.1300	45.4090
 1.1310	45.3250
 1.1320	45.2330
 1.1330	45.1350
 1.1340	45.0310
 1.1350	44.9180
 1.1360	44.7980
 1.1370	44.6690
 1.1380	44.5330
 1.1390	44.3920
 1.1400	44.2480
 1.1410	44.1030
 1.1420	43.9540
 1.1430	43.8030
 1.1440	43.6520
 1.1450	43.4970
 1.1460	43.3500
 1.1470	43.2030
 1.1480	43.0630
 1.1490	42.9270
 1.1500	42.7980
 1.1510	42.6720
 1.1520	42.5560
 1.1530	42.4470
 1.1540	42.3470
 1.1550	42.2540
 1.1560	42.1680
 1.1570	42.0910
 1.1580	42.0230
 1.1590	41.9590
 1.1600	41.9020
 1.1610	41.8530
 1.1620	41.8050
 1.1630	41.7620
 1.1640	41.7260
 1.1650	41.6910
 1.1660	41.6590
 1.1670	41.6300
 1.1680	41.6060
 1.1690	41.5810
 1.1700	41.5600
 1.1710	41.5390
 1.1720	41.5200
 1.1730	41.5000
 1.1740	41.4810
 1.1750	41.4620
 1.1760	41.4430
 1.1770	41.4230
 1.1780	41.4050
 1.1790	41.3850
 1.1800	41.3630
 1.1810	41.3430
 1.1820	41.3230
 1.1830	41.3040
 1.1840	41.2860
 1.1850	41.2680
 1.1860	41.2500
 1.1870	41.2340
 1.1880	41.2190
 1.1890	41.2070
 1.1900	41.1960
 1.1910	41.1870
 1.1920	41.1780
 1.1930	41.1710
 1.1940	41.1660
 1.1950	41.1610
 1.1960	41.1590
 1.1970	41.1600
 1.1980	41.1620
 1.1990	41.1660
 1.2000	41.1720
 1.2010	41.1790
 1.2020	41.1880
 1.2030	41.1970
 1.2040	41.2080
 1.2050	41.2210
 1.2060	41.2350
 1.2070	41.2500
 1.2080	41.2670
 1.2090	41.2850
 1.2100	41.3040
 1.2110	41.3240
 1.2120	41.3460
 1.2130	41.3680
 1.2140	41.3890
 1.2150	41.4120
 1.2160	41.4370
 1.2170	41.4600
 1.2180	41.4840
 1.2190	41.5100
 1.2200	41.5340
 1.2210	41.5590
 1.2220	41.5840
 1.2230	41.6090
 1.2240	41.6350
 1.2250	41.6590
 1.2260	41.6830
 1.2270	41.7070
 1.2280	41.7300
 1.2290	41.7540
 1.2300	41.7770
 1.2310	41.7990
 1.2320	41.8220
 1.2330	41.8440
 1.2340	41.8660
 1.2350	41.8910
 1.2360	41.9130
 1.2370	41.9330
 1.2380	41.9540
 1.2390	41.9750
 1.2400	41.9930
 1.2410	42.0120
 1.2420	42.0310
 1.2430	42.0480
 1.2440	42.0640
 1.2450	42.0800
 1.2460	42.0960
 1.2470	42.1120
 1.2480	42.1280
 1.2490	42.1450
 1.2500	42.1590
 1.2510	42.1700
 1.2520	42.1810
 1.2530	42.1930
 1.2540	42.2030
 1.2550	42.2140
 1.2560	42.2240
 1.2570	42.2340
 1.2580	42.2400
 1.2590	42.2450
 1.2600	42.2480
 1.2610	42.2520
 1.2620	42.2550
 1.2630	42.2590
 1.2640	42.2620
 1.2650	42.2620
 1.2660	42.2620
 1.2670	42.2610
 1.2680	42.2570
 1.2690	42.2540
 1.2700	42.2510
 1.2710	42.2470
 1.2720	42.2450
 1.2730	42.2420
 1.2740	42.2350
 1.2750	42.2270
 1.2760	42.2170
 1.2770	42.2060
 1.2780	42.1950
 1.2790	42.1840
 1.2800	42.1710
 1.2810	42.1570
 1.2820	42.1400
 1.2830	42.1200
 1.2840	42.0960
 1.2850	42.0690
 1.2860	42.0410
 1.2870	42.0110
 1.2880	41.9790
 1.2890	41.9460
 1.2900	41.9080
 1.2910	41.8660
 1.2920	41.8200
 1.2930	41.7730
 1.2940	41.7220
 1.2950	41.6690
 1.2960	41.6120
 1.2970	41.5500
 1.2980	41.4840
 1.2990	41.4160
 1.3000	41.3480
 1.3010	41.2760
 1.3020	41.2000
 1.3030	41.1240
 1.3040	41.0420
 1.3050	40.9560
 1.3060	40.8710
 1.3070	40.7830
 1.3080	40.6920
 1.3090	40.6000
 1.3100	40.5040
 1.3110	40.4030
 1.3120	40.3010
 1.3130	40.1960
 1.3140	40.0890
 1.3150	39.9810
 1.3160	39.8690
 1.3170	39.7550
 1.3180	39.6360
 1.3190	39.5140
 1.3200	39.3910
 1.3210	39.2640
 1.3220	39.1380
 1.3230	39.0130
 1.3240	38.8820
 1.3250	38.7510
 1.3260	38.6160
 1.3270	38.4770
 1.3280	38.3380
 1.3290	38.1940
 1.3300	38.0510
 1.3310	37.9070
 1.3320	37.7600
 1.3330	37.6160
 1.3340	37.4710
 1.3350	37.3240
 1.3360	37.1790
 1.3370	37.0310
 1.3380	36.8840
 1.3390	36.7380
 1.3400	36.5920
 1.3410	36.4500
 1.3420	36.3100
 1.3430	36.1700
 1.3440	36.0320
 1.3450	35.8950
 1.3460	35.7570
 1.3470	35.6230
 1.3480	35.4900
 1.3490	35.3590
 1.3500	35.2310
 1.3510	35.1040
 1.3520	34.9770
 1.3530	34.8500
 1.3540	34.7230
 1.3550	34.5930
 1.3560	34.4630
 1.3570	34.3330
 1.3580	34.2020
 1.3590	34.0680
 1.3600	33.9320
 1.3610	33.7910
 1.3620	33.6440
 1.3630	33.4940
 1.3640	33.3360
 1.3650	33.1700
 1.3660	32.9970
 1.3670	32.8130
 1.3680	32.6180
 1.3690	32.4130
 1.3700	32.1910
 1.3710	31.9560
 1.3720	31.7060
 1.3730	31.4360
 1.3740	31.1510
 1.3750	30.8460
 1.3760	30.5170
 1.3770	30.1660
 1.3780	29.7870
 1.3790	29.3850
 1.3800	28.9600
 1.3810	28.5080
 1.3820	28.0380
 1.3830	27.5470
 1.3840	27.0360
 1.3850	26.5020
 1.3860	25.9570
 1.3870	25.3890
 1.3880	24.8200
 1.3890	24.2390
 1.3900	23.6500
 1.3910	23.0640
 1.3920	22.4760
 1.3930	21.8870
 1.3940	21.3060
 1.3950	20.7250
 1.3960	20.1570
 1.3970	19.6050
 1.3980	19.0650
 1.3990	18.5490
 1.4000	18.0520
 1.4010	17.5710
 1.4020	17.1150
 1.4030	16.6760
 1.4040	16.2610
 1.4050	15.8700
 1.4060	15.5000
 1.4070	15.1560
 1.4080	14.8330
 1.4090	14.5280
 1.4100	14.2460
 1.4110	13.9810
 1.4120	13.7340
 1.4130	13.5050
 1.4140	13.2910
 1.4150	13.0950
 1.4160	12.9140
 1.4170	12.7460
 1.4180	12.5910
 1.4190	12.4460
 1.4200	12.3110
 1.4210	12.1860
 1.4220	12.0720
 1.4230	11.9670
 1.4240	11.8710
 1.4250	11.7820
 1.4260	11.7000
 1.4270	11.6240
 1.4280	11.5560
 1.4290	11.4920
 1.4300	11.4330
 1.4310	11.3800
 1.4320	11.3330
 1.4330	11.2900
 1.4340	11.2530
 1.4350	11.2190
 1.4360	11.1900
 1.4370	11.1630
 1.4380	11.1410
 1.4390	11.1220
 1.4400	11.1060
 1.4410	11.0930
 1.4420	11.0820
 1.4430	11.0740
 1.4440	11.0690
 1.4450	11.0650
 1.4460	11.0630
 1.4470	11.0630
 1.4480	11.0660
 1.4490	11.0700
 1.4500	11.0760
 1.4510	11.0830
 1.4520	11.0910
 1.4530	11.1010
 1.4540	11.1140
 1.4550	11.1290
 1.4560	11.1460
 1.4570	11.1660
 1.4580	11.1880
 1.4590	11.2130
 1.4600	11.2420
 1.4610	11.2740
 1.4620	11.3100
 1.4630	11.3500
 1.4640	11.3940
 1.4650	11.4420
 1.4660	11.4940
 1.4670	11.5500
 1.4680	11.6100
 1.4690	11.6730
 1.4700	11.7410
 1.4710	11.8130
 1.4720	11.8880
 1.4730	11.9650
 1.4740	12.0460
 1.4750	12.1290
 1.4760	12.2160
 1.4770	12.3070
 1.4780	12.4000
 1.4790	12.4940
 1.4800	12.5900
 1.4810	12.6870
 1.4820	12.7870
 1.4830	12.8880
 1.4840	12.9930
 1.4850	13.0980
 1.4860	13.2040
 1.4870	13.3120
 1.4880	13.4190
 1.4890	13.5290
 1.4900	13.6400
 1.4910	13.7520
 1.4920	13.8660
 1.4930	13.9820
 1.4940	14.0980
 1.4950	14.2150
 1.4960	14.3320
 1.4970	14.4490
 1.4980	14.5680
 1.4990	14.6880
 1.5000	14.8080
 1.5010	14.9280
 1.5020	15.0490
 1.5030	15.1700
 1.5040	15.2910
 1.5050	15.4120
 1.5060	15.5340
 1.5070	15.6560
 1.5080	15.7780
 1.5090	15.9020
 1.5100	16.0240
 1.5110	16.1460
 1.5120	16.2700
 1.5130	16.3920
 1.5140	16.5150
 1.5150	16.6380
 1.5160	16.7580
 1.5170	16.8810
 1.5180	17.0030
 1.5190	17.1240
 1.5200	17.2460
 1.5210	17.3660
 1.5220	17.4850
 1.5230	17.6050
 1.5240	17.7240
 1.5250	17.8430
 1.5260	17.9610
 1.5270	18.0770
 1.5280	18.1930
 1.5290	18.3080
 1.5300	18.4240
 1.5310	18.5390
 1.5320	18.6540
 1.5330	18.7690
 1.5340	18.8810
 1.5350	18.9920
 1.5360	19.1020
 1.5370	19.2120
 1.5380	19.3220
 1.5390	19.4330
 1.5400	19.5420
 1.5410	19.6490
 1.5420	19.7570
 1.5430	19.8650
 1.5440	19.9720
 1.5450	20.0770
 1.5460	20.1820
 1.5470	20.2860
 1.5480	20.3890
 1.5490	20.4930
 1.5500	20.5940
 1.5510	20.6950
 1.5520	20.7950
 1.5530	20.8940
 1.5540	20.9940
 1.5550	21.0920
 1.5560	21.1890
 1.5570	21.2850
 1.5580	21.3810
 1.5590	21.4760
 1.5600	21.5700
 1.5610	21.6620
 1.5620	21.7540
 1.5630	21.8440
 1.5640	21.9340
 1.5650	22.0230
 1.5660	22.1110
 1.5670	22.1990
 1.5680	22.2870
 1.5690	22.3730
 1.5700	22.4580
 1.5710	22.5430
 1.5720	22.6270
 1.5730	22.7130
 1.5740	22.7950
 1.5750	22.8780
 1.5760	22.9600
 1.5770	23.0400
 1.5780	23.1200
 1.5790	23.2010
 1.5800	23.2790
 1.5810	23.3580
 1.5820	23.4360
 1.5830	23.5120
 1.5840	23.5900
 1.5850	23.6670
 1.5860	23.7440
 1.5870	23.8200
 1.5880	23.8960
 1.5890	23.9700
 1.5900	24.0450
 1.5910	24.1210
 1.5920	24.1960
 1.5930	24.2700
 1.5940	24.3450
 1.5950	24.4190
 1.5960	24.4910
 1.5970	24.5630
 1.5980	24.6330
 1.5990	24.7020
 1.6000	24.7720
 1.6010	24.8400
 1.6020	24.9090
 1.6030	24.9770
 1.6040	25.0440
 1.6050	25.1130
 1.6060	25.1810
 1.6070	25.2480
 1.6080	25.3140
 1.6090	25.3780
 1.6100	25.4420
 1.6110	25.5040
 1.6120	25.5650
 1.6130	25.6260
 1.6140	25.6870
 1.6150	25.7460
 1.6160	25.8050
 1.6170	25.8610
 1.6180	25.9150
 1.6190	25.9710
 1.6200	26.0270
 1.6210	26.0820
 1.6220	26.1360
 1.6230	26.1880
 1.6240	26.2390
 1.6250	26.2890
 1.6260	26.3380
 1.6270	26.3870
 1.6280	26.4340
 1.6290	26.4810
 1.6300	26.5270
 1.6310	26.5720
 1.6320	26.6170
 1.6330	26.6610
 1.6340	26.7050
 1.6350	26.7480
 1.6360	26.7900
 1.6370	26.8290
 1.6380	26.8660
 1.6390	26.9020
 1.6400	26.9360
 1.6410	26.9690
 1.6420	27.0010
 1.6430	27.0320
 1.6440	27.0620
 1.6450	27.0890
 1.6460	27.1170
 1.6470	27.1430
 1.6480	27.1650
 1.6490	27.1870
 1.6500	27.2060
 1.6510	27.2230
 1.6520	27.2400
 1.6530	27.2530
 1.6540	27.2640
 1.6550	27.2740
 1.6560	27.2810
 1.6570	27.2870
 1.6580	27.2920
 1.6590	27.2950
 1.6600	27.2950
 1.6610	27.2940
 1.6620	27.2930
 1.6630	27.2880
 1.6640	27.2840
 1.6650	27.2790
 1.6660	27.2710
 1.6670	27.2620
 1.6680	27.2530
 1.6690	27.2420
 1.6700	27.2280
 1.6710	27.2140
 1.6720	27.2010
 1.6730	27.1890
 1.6740	27.1760
 1.6750	27.1630
 1.6760	27.1480
 1.6770	27.1310
 1.6780	27.1120
 1.6790	27.0930
 1.6800	27.0720
 1.6810	27.0490
 1.6820	27.0230
 1.6830	26.9970
 1.6840	26.9690
 1.6850	26.9410
 1.6860	26.9130
 1.6870	26.8830
 1.6880	26.8540
 1.6890	26.8240
 1.6900	26.7920
 1.6910	26.7570
 1.6920	26.7230
 1.6930	26.6870
 1.6940	26.6520
 1.6950	26.6170
 1.6960	26.5830
 1.6970	26.5480
 1.6980	26.5130
 1.6990	26.4790
 1.7000	26.4440
 1.7010	26.4080
 1.7020	26.3690
 1.7030	26.3310
 1.7040	26.2890
 1.7050	26.2450
 1.7060	26.2000
 1.7070	26.1540
 1.7080	26.1080
 1.7090	26.0600
 1.7100	26.0130
 1.7110	25.9650
 1.7120	25.9190
 1.7130	25.8720
 1.7140	25.8230
 1.7150	25.7760
 1.7160	25.7260
 1.7170	25.6760
 1.7180	25.6310
 1.7190	25.5840
 1.7200	25.5370
 1.7210	25.4930
 1.7220	25.4460
 1.7230	25.3970
 1.7240	25.3520
 1.7250	25.3060
 1.7260	25.2620
 1.7270	25.2190
 1.7280	25.1760
 1.7290	25.1340
 1.7300	25.0930
 1.7310	25.0520
 1.7320	25.0140
 1.7330	24.9730
 1.7340	24.9310
 1.7350	24.8880
 1.7360	24.8450
 1.7370	24.7990
 1.7380	24.7530
 1.7390	24.7050
 1.7400	24.6530
 1.7410	24.6000
 1.7420	24.5460
 1.7430	24.4890
 1.7440	24.4300
 1.7450	24.3700
 1.7460	24.3050
 1.7470	24.2420
 1.7480	24.1760
 1.7490	24.1110
 1.7500	24.0470
 1.7510	23.9810
 1.7520	23.9160
 1.7530	23.8500
 1.7540	23.7830
 1.7550	23.7180
 1.7560	23.6530
 1.7570	23.5890
 1.7580	23.5240
 1.7590	23.4600
 1.7600	23.3970
 1.7610	23.3380
 1.7620	23.2780
 1.7630	23.2190
 1.7640	23.1620
 1.7650	23.1050
 1.7660	23.0520
 1.7670	23.0030
 1.7680	22.9550
 1.7690	22.9090
 1.7700	22.8630
 1.7710	22.8160
 1.7720	22.7730
 1.7730	22.7320
 1.7740	22.6930
 1.7750	22.6560
 1.7760	22.6200
 1.7770	22.5840
 1.7780	22.5510
 1.7790	22.5210
 1.7800	22.4950
 1.7810	22.4700
 1.7820	22.4480
 1.7830	22.4300
 1.7840	22.4130
 1.7850	22.3970
 1.7860	22.3850
 1.7870	22.3750
 1.7880	22.3660
 1.7890	22.3600
 1.7900	22.3580
 1.7910	22.3560
 1.7920	22.3570
 1.7930	22.3590
 1.7940	22.3600
 1.7950	22.3630
 1.7960	22.3680
 1.7970	22.3740
 1.7980	22.3830
 1.7990	22.3910
 1.8000	22.4020
 1.8010	22.4120
 1.8020	22.4230
 1.8030	22.4340
 1.8040	22.4440
 1.8050	22.4560
 1.8060	22.4680
 1.8070	22.4800
 1.8080	22.4940
 1.8090	22.5060
 1.8100	22.5160
 1.8110	22.5260
 1.8120	22.5340
 1.8130	22.5410
 1.8140	22.5470
 1.8150	22.5510
 1.8160	22.5550
 1.8170	22.5610
 1.8180	22.5650
 1.8190	22.5730
 1.8200	22.5770
 1.8210	22.5790
 1.8220	22.5810
 1.8230	22.5810
 1.8240	22.5780
 1.8250	22.5720
 1.8260	22.5660
 1.8270	22.5580
 1.8280	22.5490
 1.8290	22.5410
 1.8300	22.5290
 1.8310	22.2250
 1.8320	22.1990
 1.8330	22.1670
 1.8340	22.1330
 1.8350	22.0990
 1.8360	22.0600
 1.8370	22.0150
 1.8380	21.9660
 1.8390	21.9090
 1.8400	21.8450
 1.8410	21.7770
 1.8420	21.7060
 1.8430	21.6290
 1.8440	21.5450
 1.8450	21.4550
 1.8460	21.3580
 1.8470	21.2520
 1.8480	21.1360
 1.8490	21.0060
 1.8500	20.8660
 1.8510	20.7150
 1.8520	20.5530
 1.8530	20.3800
 1.8540	20.2010
 1.8550	20.0070
 1.8560	19.7980
 1.8570	19.5800
 1.8580	19.3450
 1.8590	19.1000
 1.8600	18.8420
 1.8610	18.5720
 1.8620	18.2850
 1.8630	17.9850
 1.8640	17.6710
 1.8650	17.3400
 1.8660	16.9940
 1.8670	16.6330
 1.8680	16.2570
 1.8690	15.8680
 1.8700	15.4680
 1.8710	15.0580
 1.8720	14.6420
 1.8730	14.2150
 1.8740	13.7850
 1.8750	13.3520
 1.8760	12.9120
 1.8770	12.4790
 1.8780	12.0500
 1.8790	11.6200
 1.8800	11.2060
 1.8810	10.8030
 1.8820	10.4040
 1.8830	10.0150
 1.8840	 9.6410
 1.8850	 9.2730
 1.8860	 8.9220
 1.8870	 8.5870
 1.8880	 8.2660
 1.8890	 7.9670
 1.8900	 7.6860
 1.8910	 7.4240
 1.8920	 7.1810
 1.8930	 6.9600
 1.8940	 6.7550
 1.8950	 6.5670
 1.8960	 6.4000
 1.8970	 6.2500
 1.8980	 6.1180
 1.8990	 6.0010
 1.9000	 5.8940
 1.9010	 5.8010
 1.9020	 5.7160
 1.9030	 5.6420
 1.9040	 5.5750
 1.9050	 5.5180
 1.9060	 5.4680
 1.9070	 5.4240
 1.9080	 5.3840
 1.9090	 5.3540
 1.9100	 5.3290
 1.9110	 5.3060
 1.9120	 5.2890
 1.9130	 5.2720
 1.9140	 5.2580
 1.9150	 5.2410
 1.9160	 5.2290
 1.9170	 5.2180
 1.9180	 5.2080
 1.9190	 5.2000
 1.9200	 5.1920
 1.9210	 5.1870
 1.9220	 5.1830
 1.9230	 5.1800
 1.9240	 5.1770
 1.9250	 5.1760
 1.9260	 5.1730
 1.9270	 5.1730
 1.9280	 5.1760
 1.9290	 5.1780
 1.9300	 5.1810
 1.9310	 5.1840
 1.9320	 5.1840
 1.9330	 5.1870
 1.9340	 5.1920
 1.9350	 5.1970
 1.9360	 5.2000
 1.9370	 5.2050
 1.9380	 5.2090
 1.9390	 5.2140
 1.9400	 5.2180
 1.9410	 5.2240
 1.9420	 5.2330
 1.9430	 5.2410
 1.9440	 5.2500
 1.9450	 5.2620
 1.9460	 5.2720
 1.9470	 5.2830
 1.9480	 5.2930
 1.9490	 5.3030
 1.9500	 5.3150
 1.9510	 5.3270
 1.9520	 5.3380
 1.9530	 5.3520
 1.9540	 5.3650
 1.9550	 5.3790
 1.9560	 5.3940
 1.9570	 5.4090
 1.9580	 5.4250
 1.9590	 5.4420
 1.9600	 5.4610
 1.9610	 5.4800
 1.9620	 5.4980
 1.9630	 5.5180
 1.9640	 5.5370
 1.9650	 5.5570
 1.9660	 5.5780
 1.9670	 5.5980
 1.9680	 5.6200
 1.9690	 5.6430
 1.9700	 5.6650
 1.9710	 5.6890
 1.9720	 5.7130
 1.9730	 5.7360
 1.9740	 5.7610
 1.9750	 5.7860
 1.9760	 5.8110
 1.9770	 5.8360
 1.9780	 5.8610
 1.9790	 5.8880
 1.9800	 5.9150
 1.9810	 5.9440
 1.9820	 5.9770
 1.9830	 6.0080
 1.9840	 6.0390
 1.9850	 6.0710
 1.9860	 6.1020
 1.9870	 6.1300
 1.9880	 6.1620
 1.9890	 6.1950
 1.9900	 6.2270
 1.9910	 6.2610
 1.9920	 6.2960
 1.9930	 6.3320
 1.9940	 6.3680
 1.9950	 6.4040
 1.9960	 6.4410
 1.9970	 6.4770
 1.9980	 6.5150
 1.9990	 6.5570
 2.0000	 6.5970
 2.0010	 6.6380
 2.0020	 6.6800
 2.0030	 6.7200
 2.0040	 6.7620
 2.0050	 6.8030
 2.0060	 6.8450
 2.0070	 6.8870
 2.0080	 6.9280
 2.0090	 6.9690
 2.0100	 7.0110
 2.0110	 7.0520
 2.0120	 7.0910
 2.0130	 7.1310
 2.0140	 7.1740
 2.0150	 7.2160
 2.0160	 7.2590
 2.0170	 7.3040
 2.0180	 7.3460
 2.0190	 7.3870
 2.0200	 7.4280
 2.0210	 7.4690
 2.0220	 7.5110
 2.0230	 7.5510
 2.0240	 7.5940
 2.0250	 7.6400
 2.0260	 7.6820
 2.0270	 7.7230
 2.0280	 7.7640
 2.0290	 7.8010
 2.0300	 7.8440
 2.0310	 7.8850
 2.0320	 7.9290
 2.0330	 7.9700
 2.0340	 8.0090
 2.0350	 8.0490
 2.0360	 8.0900
 2.0370	 8.1280
 2.0380	 8.1660
 2.0390	 8.2040
 2.0400	 8.2380
 2.0410	 8.2740
 2.0420	 8.3130
 2.0430	 8.3500
 2.0440	 8.3880
 2.0450	 8.4260
 2.0460	 8.4620
 2.0470	 8.4970
 2.0480	 8.5320
 2.0490	 8.5660
 2.0500	 8.6030
 2.0510	 8.6430
 2.0520	 8.6810
 2.0530	 8.7190
 2.0540	 8.7580
 2.0550	 8.7970
 2.0560	 8.8360
 2.0570	 8.8790
 2.0580	 8.9220
 2.0590	 8.9620
 2.0600	 9.0040
 2.0610	 9.0430
 2.0620	 9.0790
 2.0630	 9.1170
 2.0640	 9.1560
 2.0650	 9.1940
 2.0660	 9.2330
 2.0670	 9.2720
 2.0680	 9.3100
 2.0690	 9.3500
 2.0700	 9.3900
 2.0710	 9.4310
 2.0720	 9.4710
 2.0730	 9.5130
 2.0740	 9.5560
 2.0750	 9.6010
 2.0760	 9.6430
 2.0770	 9.6830
 2.0780	 9.7240
 2.0790	 9.7660
 2.0800	 9.8060
 2.0810	 9.8470
 2.0820	 9.8860
 2.0830	 9.9190
 2.0840	 9.9560
 2.0850	 9.9930
 2.0860	10.0310
 2.0870	10.0690
 2.0880	10.1120
 2.0890	10.1550
 2.0900	10.2000
 2.0910	10.2430
 2.0920	10.2880
 2.0930	10.3300
 2.0940	10.3720
 2.0950	10.4100
 2.0960	10.4450
 2.0970	10.4840
 2.0980	10.5200
 2.0990	10.5580
 2.1000	10.6020
 2.1010	10.6430
 2.1020	10.6830
 2.1030	10.7230
 2.1040	10.7650
 2.1050	10.8060
 2.1060	10.8470
 2.1070	10.8890
 2.1080	10.9300
 2.1090	10.9700
 2.1100	11.0110
 2.1110	11.0510
 2.1120	11.0910
 2.1130	11.1310
 2.1140	11.1710
 2.1150	11.2100
 2.1160	11.2500
 2.1170	11.2930
 2.1180	11.3310
 2.1190	11.3670
 2.1200	11.4040
 2.1210	11.4380
 2.1220	11.4740
 2.1230	11.5130
 2.1240	11.5550
 2.1250	11.5950
 2.1260	11.6370
 2.1270	11.6740
 2.1280	11.7070
 2.1290	11.7420
 2.1300	11.7720
 2.1310	11.8050
 2.1320	11.8390
 2.1330	11.8750
 2.1340	11.9150
 2.1350	11.9500
 2.1360	11.9850
 2.1370	12.0170
 2.1380	12.0400
 2.1390	12.0690
 2.1400	12.1000
 2.1410	12.1300
 2.1420	12.1590
 2.1430	12.1880
 2.1440	12.2160
 2.1450	12.2410
 2.1460	12.2690
 2.1470	12.3000
 2.1480	12.3280
 2.1490	12.3540
 2.1500	12.3810
 2.1510	12.4060
 2.1520	12.4330
 2.1530	12.4630
 2.1540	12.4900
 2.1550	12.5150
 2.1560	12.5400
 2.1570	12.5600
 2.1580	12.5830
 2.1590	12.6090
 2.1600	12.6300
 2.1610	12.6570
 2.1620	12.6800
 2.1630	12.7020
 2.1640	12.7230
 2.1650	12.7440
 2.1660	12.7610
 2.1670	12.7830
 2.1680	12.8080
 2.1690	12.8310
 2.1700	12.8580
 2.1710	12.8810
 2.1720	12.9010
 2.1730	12.9230
 2.1740	12.9470
 2.1750	12.9700
 2.1760	12.9980
 2.1770	13.0200
 2.1780	13.0370
 2.1790	13.0570
 2.1800	13.0730
 2.1810	13.0920
 2.1820	13.1130
 2.1830	13.1370
 2.1840	13.1580
 2.1850	13.1790
 2.1860	13.2000
 2.1870	13.2180
 2.1880	13.2390
 2.1890	13.2640
 2.1900	13.2860
 2.1910	13.3090
 2.1920	13.3320
 2.1930	13.3570
 2.1940	13.3790
 2.1950	13.4040
 2.1960	13.4260
 2.1970	13.4460
 2.1980	13.4640
 2.1990	13.4820
 2.2000	13.4980
 2.2010	13.5090
 2.2020	13.5220
 2.2030	13.5370
 2.2040	13.5510
 2.2050	13.5650
 2.2060	13.5820
 2.2070	13.5960
 2.2080	13.6090
 2.2090	13.6220
 2.2100	13.6350
 2.2110	13.6440
 2.2120	13.6520
 2.2130	13.6560
 2.2140	13.6540
 2.2150	13.6550
 2.2160	13.6560
 2.2170	13.6560
 2.2180	13.6560
 2.2190	13.6560
 2.2200	13.6560
 2.2210	13.6500
 2.2220	13.6440
 2.2230	13.6340
 2.2240	13.6170
 2.2250	13.6040
 2.2260	13.5950
 2.2270	13.5790
 2.2280	13.5630
 2.2290	13.5430
 2.2300	13.5160
 2.2310	13.4900
 2.2320	13.4660
 2.2330	13.4390
 2.2340	13.4090
 2.2350	13.3780
 2.2360	13.3460
 2.2370	13.3110
 2.2380	13.2730
 2.2390	13.2330
 2.2400	13.1930
 2.2410	13.1480
 2.2420	13.1060
 2.2430	13.0650
 2.2440	13.0230
 2.2450	12.9790
 2.2460	12.9350
 2.2470	12.8910
 2.2480	12.8430
 2.2490	12.7880
 2.2500	12.7380
 2.2510	12.6880
 2.2520	12.6380
 2.2530	12.5910
 2.2540	12.5420
 2.2550	12.4910
 2.2560	12.4390
 2.2570	12.3870
 2.2580	12.3370
 2.2590	12.2870
 2.2600	12.2390
 2.2610	12.1940
 2.2620	12.1510
 2.2630	12.1060
 2.2640	12.0600
 2.2650	12.0180
 2.2660	11.9770
 2.2670	11.9370
 2.2680	11.9000
 2.2690	11.8620
 2.2700	11.8240
 2.2710	11.7880
 2.2720	11.7540
 2.2730	11.7190
 2.2740	11.6870
 2.2750	11.6510
 2.2760	11.6130
 2.2770	11.5770
 2.2780	11.5410
 2.2790	11.5070
 2.2800	11.4740
 2.2810	11.4430
 2.2820	11.4130
 2.2830	11.3830
 2.2840	11.3590
 2.2850	11.3310
 2.2860	11.3010
 2.2870	11.2700
 2.2880	11.2350
 2.2890	11.2000
 2.2900	11.1620
 2.2910	11.1260
 2.2920	11.0880
 2.2930	11.0520
 2.2940	11.0180
 2.2950	10.9810
 2.2960	10.9420
 2.2970	10.9040
 2.2980	10.8650
 2.2990	10.8260
 2.3000	10.7900
 2.3010	10.7520
 2.3020	10.7140
 2.3030	10.6790
 2.3040	10.6420
 2.3050	10.6150
 2.3060	10.5840
 2.3070	10.5460
 2.3080	10.5170
 2.3090	10.4850
 2.3100	10.4530
 2.3110	10.4310
 2.3120	10.4050
 2.3130	10.3760
 2.3140	10.3510
 2.3150	10.3290
 2.3160	10.3070
 2.3170	10.2870
 2.3180	10.2660
 2.3190	10.2460
 2.3200	10.2210
 2.3210	10.1910
 2.3220	10.1650
 2.3230	10.1350
 2.3240	10.1090
 2.3250	10.0910
 2.3260	10.0630
 2.3270	10.0310
 2.3280	10.0000
 2.3290	 9.9580
 2.3300	 9.9280
 2.3310	 9.9070
 2.3320	 9.8830
 2.3330	 9.8680
 2.3340	 9.8410
 2.3350	 9.8040
 2.3360	 9.7720
 2.3370	 9.7320
 2.3380	 9.6980
 2.3390	 9.6650
 2.3400	 9.6340
 2.3410	 9.6090
 2.3420	 9.5780
 2.3430	 9.5480
 2.3440	 9.5190
 2.3450	 9.4820
 2.3460	 9.4530
 2.3470	 9.4310
 2.3480	 9.4090
 2.3490	 9.3930
 2.3500	 9.3710
 2.3510	 9.3470
 2.3520	 9.3230
 2.3530	 9.2950
 2.3540	 9.2730
 2.3550	 9.2520
 2.3560	 9.2330
 2.3570	 9.2120
 2.3580	 9.1840
 2.3590	 9.1540
 2.3600	 9.1190
 2.3610	 9.0830
 2.3620	 9.0600
 2.3630	 9.0450
 2.3640	 9.0270
 2.3650	 9.0140
 2.3660	 8.9950
 2.3670	 8.9700
 2.3680	 8.9510
 2.3690	 8.9300
 2.3700	 8.9070
 2.3710	 8.8830
 2.3720	 8.8480
 2.3730	 8.8110
 2.3740	 8.7760
 2.3750	 8.7400
 2.3760	 8.7090
 2.3770	 8.6900
 2.3780	 8.6680
 2.3790	 8.6380
 2.3800	 8.6150
 2.3810	 8.5890
 2.3820	 8.5640
 2.3830	 8.5430
 2.3840	 8.5220
 2.3850	 8.5060
 2.3860	 8.4810
 2.3870	 8.4520
 2.3880	 8.4260
 2.3890	 8.3980
 2.3900	 8.3630
 2.3910	 8.3440
 2.3920	 8.3270
 2.3930	 8.2910
 2.3940	 8.2590
 2.3950	 8.2280
 2.3960	 8.2000
 2.3970	 8.1800
 2.3980	 8.1680
 2.3990	 8.1510
 2.4000	 8.1210
 2.4010	 8.0800
 2.4020	 8.0380
 2.4030	 8.0070
 2.4040	 7.9780
 2.4050	 7.9610
 2.4060	 7.9470
 2.4070	 7.9200
 2.4080	 7.8910
 2.4090	 7.8570
 2.4100	 7.8180
 2.4110	 7.7810
 2.4120	 7.7540
 2.4130	 7.7380
 2.4140	 7.7280
 2.4150	 7.7200
 2.4160	 7.7050
 2.4170	 7.6770
 2.4180	 7.6400
 2.4190	 7.6100
 2.4200	 7.5760
 2.4210	 7.5350
 2.4220	 7.5070
 2.4230	 7.4840
 2.4240	 7.4650
 2.4250	 7.4570
 2.4260	 7.4480
 2.4270	 7.4250
 2.4280	 7.4000
 2.4290	 7.3830
 2.4300	 7.3600
 2.4310	 7.3330
 2.4320	 7.3050
 2.4330	 7.2810
 2.4340	 7.2640
 2.4350	 7.2370
 2.4360	 7.2140
 2.4370	 7.1950
 2.4380	 7.1760
 2.4390	 7.1750
 2.4400	 7.1740
 2.4410	 7.1530
 2.4420	 7.1310
 2.4430	 7.0960
 2.4440	 7.0710
 2.4450	 7.0620
 2.4460	 7.0270
 2.4470	 7.0010
 2.4480	 6.9810
 2.4490	 6.9520
 2.4500	 6.9430
 2.4510	 6.9390
 2.4520	 6.9190
 2.4530	 6.9020
 2.4540	 6.8880
 2.4550	 6.8540
 2.4560	 6.8230
 2.4570	 6.7930
 2.4580	 6.7520
 2.4590	 6.7330
 2.4600	 6.7430
 2.4610	 6.7590
 2.4620	 6.7550
 2.4630	 6.7360
 2.4640	 6.7150
 2.4650	 6.6700
 2.4660	 6.6470
 2.4670	 6.6490
 2.4680	 6.6410
 2.4690	 6.6220
 2.4700	 6.6130
 2.4710	 6.6070
 2.4720	 6.5990
 2.4730	 6.6090
 2.4740	 6.6030
 2.4750	 6.5820
 2.4760	 6.5640
 2.4770	 6.5340
 2.4780	 6.4980
 2.4790	 6.4510
 2.4800	 6.4340
 2.4810	 6.4340
 2.4820	 6.4650
 2.4830	 6.4970
 2.4840	 6.5090
 2.4850	 6.4880
 2.4860	 6.4470
 2.4870	 6.3770
 2.4880	 6.3500
 2.4890	 6.3480
 2.4900	 6.3590
 2.4910	 6.4520
 2.4920	 6.5120
 2.4930	 6.5440
 2.4940	 6.5630
 2.4950	 6.5060
 2.4960	 6.4830
 2.4970	 6.4580
 2.4980	 6.4640
 2.4990	 6.4860
 2.5000	 6.4050
