Name: Pinus ponderosa 2
Type: vegetation
Class: Tree
Genus: Pinus
Species: ponderosa
Sample No.: VH254
Owner: UCSB
Wavelength Range: VSWIR
Origin: 37.044; -119.3023; WGS84
Collection Date: 11/2/2013
Description: Samples were collected as part of the HyspIRI Airborne Campaign. 48 individual plants were sampled in three times in 2013 - spring  summer  and fall. The name of the sample includes a 1  2  or 3 which references a different individual of the species. Samples were taken to JPL and processed within 48 hours of collection. The same leaves were processed in the Nicolet and then measured using the ASD.
Measurement: Bidirectional reflectance
First Column: X
Second Column: Y
X Units: Wavelength (micrometers)
Y Units: Reflectance (percentage)
First X Value: 0.35
Last X Value: 2.5
Number of X Values: 2151
Additional Information: vegetation.tree.pinus.ponderosa.vswir.vh254.ucsb.asd.ancillary.txt

 0.3500	 5.3700
 0.3510	 5.1100
 0.3520	 4.9470
 0.3530	 4.9490
 0.3540	 5.0180
 0.3550	 5.0340
 0.3560	 4.9720
 0.3570	 4.8870
 0.3580	 4.8660
 0.3590	 4.8980
 0.3600	 4.9200
 0.3610	 4.8990
 0.3620	 4.8340
 0.3630	 4.7660
 0.3640	 4.7370
 0.3650	 4.7620
 0.3660	 4.7630
 0.3670	 4.7980
 0.3680	 4.8150
 0.3690	 4.7080
 0.3700	 4.7190
 0.3710	 4.7500
 0.3720	 4.7390
 0.3730	 4.7770
 0.3740	 4.7340
 0.3750	 4.6780
 0.3760	 4.7100
 0.3770	 4.7800
 0.3780	 4.8100
 0.3790	 4.7710
 0.3800	 4.6880
 0.3810	 4.6720
 0.3820	 4.6840
 0.3830	 4.6900
 0.3840	 4.7410
 0.3850	 4.7510
 0.3860	 4.7250
 0.3870	 4.7110
 0.3880	 4.7620
 0.3890	 4.7430
 0.3900	 4.6610
 0.3910	 4.6660
 0.3920	 4.7170
 0.3930	 4.7290
 0.3940	 4.6750
 0.3950	 4.6930
 0.3960	 4.7180
 0.3970	 4.7220
 0.3980	 4.7020
 0.3990	 4.7060
 0.4000	 4.7070
 0.4010	 4.6940
 0.4020	 4.6760
 0.4030	 4.6670
 0.4040	 4.6930
 0.4050	 4.7530
 0.4060	 4.7560
 0.4070	 4.7550
 0.4080	 4.7720
 0.4090	 4.8060
 0.4100	 4.8300
 0.4110	 4.8660
 0.4120	 4.9180
 0.4130	 4.9400
 0.4140	 4.9650
 0.4150	 4.9940
 0.4160	 5.0250
 0.4170	 5.0840
 0.4180	 5.1450
 0.4190	 5.2010
 0.4200	 5.2650
 0.4210	 5.3100
 0.4220	 5.3610
 0.4230	 5.4310
 0.4240	 5.4880
 0.4250	 5.5520
 0.4260	 5.6080
 0.4270	 5.6360
 0.4280	 5.7010
 0.4290	 5.7690
 0.4300	 5.8210
 0.4310	 5.8690
 0.4320	 5.9230
 0.4330	 5.9690
 0.4340	 5.9940
 0.4350	 6.0230
 0.4360	 6.0640
 0.4370	 6.1140
 0.4380	 6.1610
 0.4390	 6.1980
 0.4400	 6.2410
 0.4410	 6.2940
 0.4420	 6.3320
 0.4430	 6.3600
 0.4440	 6.3880
 0.4450	 6.4220
 0.4460	 6.4470
 0.4470	 6.4760
 0.4480	 6.5150
 0.4490	 6.5500
 0.4500	 6.5790
 0.4510	 6.5980
 0.4520	 6.6120
 0.4530	 6.6460
 0.4540	 6.6710
 0.4550	 6.6810
 0.4560	 6.6850
 0.4570	 6.7110
 0.4580	 6.7340
 0.4590	 6.7400
 0.4600	 6.7520
 0.4610	 6.7710
 0.4620	 6.7820
 0.4630	 6.7760
 0.4640	 6.8000
 0.4650	 6.8250
 0.4660	 6.8370
 0.4670	 6.8360
 0.4680	 6.8360
 0.4690	 6.8430
 0.4700	 6.8570
 0.4710	 6.8530
 0.4720	 6.8510
 0.4730	 6.8530
 0.4740	 6.8560
 0.4750	 6.8590
 0.4760	 6.8640
 0.4770	 6.8690
 0.4780	 6.8780
 0.4790	 6.8860
 0.4800	 6.8900
 0.4810	 6.8900
 0.4820	 6.8960
 0.4830	 6.9010
 0.4840	 6.9020
 0.4850	 6.9080
 0.4860	 6.9140
 0.4870	 6.9240
 0.4880	 6.9430
 0.4890	 6.9610
 0.4900	 6.9850
 0.4910	 7.0110
 0.4920	 7.0330
 0.4930	 7.0660
 0.4940	 7.0990
 0.4950	 7.1300
 0.4960	 7.1650
 0.4970	 7.2060
 0.4980	 7.2520
 0.4990	 7.3000
 0.5000	 7.3430
 0.5010	 7.3960
 0.5020	 7.4620
 0.5030	 7.5310
 0.5040	 7.6040
 0.5050	 7.6850
 0.5060	 7.7730
 0.5070	 7.8610
 0.5080	 7.9550
 0.5090	 8.0600
 0.5100	 8.1780
 0.5110	 8.2980
 0.5120	 8.4240
 0.5130	 8.5610
 0.5140	 8.7060
 0.5150	 8.8560
 0.5160	 9.0120
 0.5170	 9.1730
 0.5180	 9.3430
 0.5190	 9.5200
 0.5200	 9.7010
 0.5210	 9.8810
 0.5220	10.0630
 0.5230	10.2410
 0.5240	10.4120
 0.5250	10.5840
 0.5260	10.7550
 0.5270	10.9190
 0.5280	11.0660
 0.5290	11.2140
 0.5300	11.3540
 0.5310	11.4810
 0.5320	11.6030
 0.5330	11.7120
 0.5340	11.8140
 0.5350	11.9120
 0.5360	11.9990
 0.5370	12.0820
 0.5380	12.1590
 0.5390	12.2220
 0.5400	12.2800
 0.5410	12.3320
 0.5420	12.3770
 0.5430	12.4260
 0.5440	12.4760
 0.5450	12.5230
 0.5460	12.5690
 0.5470	12.6320
 0.5480	12.6980
 0.5490	12.7530
 0.5500	12.7900
 0.5510	12.8180
 0.5520	12.8400
 0.5530	12.8540
 0.5540	12.8550
 0.5550	12.8470
 0.5560	12.8280
 0.5570	12.7960
 0.5580	12.7500
 0.5590	12.6960
 0.5600	12.6370
 0.5610	12.5720
 0.5620	12.4990
 0.5630	12.4200
 0.5640	12.3350
 0.5650	12.2390
 0.5660	12.1360
 0.5670	12.0320
 0.5680	11.9370
 0.5690	11.8320
 0.5700	11.7180
 0.5710	11.6050
 0.5720	11.5060
 0.5730	11.4170
 0.5740	11.3300
 0.5750	11.2360
 0.5760	11.1360
 0.5770	11.0390
 0.5780	10.9500
 0.5790	10.8680
 0.5800	10.8000
 0.5810	10.7460
 0.5820	10.6990
 0.5830	10.6510
 0.5840	10.6000
 0.5850	10.5460
 0.5860	10.4930
 0.5870	10.4520
 0.5880	10.4180
 0.5890	10.3830
 0.5900	10.3430
 0.5910	10.3020
 0.5920	10.2640
 0.5930	10.2360
 0.5940	10.2210
 0.5950	10.2080
 0.5960	10.1880
 0.5970	10.1620
 0.5980	10.1310
 0.5990	10.0970
 0.6000	10.0640
 0.6010	10.0320
 0.6020	10.0010
 0.6030	 9.9680
 0.6040	 9.9290
 0.6050	 9.8850
 0.6060	 9.8390
 0.6070	 9.7960
 0.6080	 9.7460
 0.6090	 9.6860
 0.6100	 9.6170
 0.6110	 9.5440
 0.6120	 9.4920
 0.6130	 9.4470
 0.6140	 9.3980
 0.6150	 9.3460
 0.6160	 9.2970
 0.6170	 9.2500
 0.6180	 9.2040
 0.6190	 9.1620
 0.6200	 9.1240
 0.6210	 9.0900
 0.6220	 9.0620
 0.6230	 9.0390
 0.6240	 9.0190
 0.6250	 9.0030
 0.6260	 8.9930
 0.6270	 8.9830
 0.6280	 8.9750
 0.6290	 8.9720
 0.6300	 8.9660
 0.6310	 8.9580
 0.6320	 8.9500
 0.6330	 8.9410
 0.6340	 8.9260
 0.6350	 8.9000
 0.6360	 8.8620
 0.6370	 8.8160
 0.6380	 8.7660
 0.6390	 8.7090
 0.6400	 8.6410
 0.6410	 8.5710
 0.6420	 8.4960
 0.6430	 8.4170
 0.6440	 8.3440
 0.6450	 8.2690
 0.6460	 8.1920
 0.6470	 8.1190
 0.6480	 8.0580
 0.6490	 8.0030
 0.6500	 7.9500
 0.6510	 7.9030
 0.6520	 7.8630
 0.6530	 7.8270
 0.6540	 7.7900
 0.6550	 7.7490
 0.6560	 7.7090
 0.6570	 7.6620
 0.6580	 7.6040
 0.6590	 7.5500
 0.6600	 7.4910
 0.6610	 7.4240
 0.6620	 7.3540
 0.6630	 7.2890
 0.6640	 7.2270
 0.6650	 7.1660
 0.6660	 7.1150
 0.6670	 7.0710
 0.6680	 7.0310
 0.6690	 6.9930
 0.6700	 6.9680
 0.6710	 6.9480
 0.6720	 6.9300
 0.6730	 6.9230
 0.6740	 6.9180
 0.6750	 6.9170
 0.6760	 6.9230
 0.6770	 6.9290
 0.6780	 6.9420
 0.6790	 6.9630
 0.6800	 6.9940
 0.6810	 7.0310
 0.6820	 7.0800
 0.6830	 7.1440
 0.6840	 7.2280
 0.6850	 7.3340
 0.6860	 7.4650
 0.6870	 7.6250
 0.6880	 7.8260
 0.6890	 8.0620
 0.6900	 8.3360
 0.6910	 8.6590
 0.6920	 9.0310
 0.6930	 9.4500
 0.6940	 9.9170
 0.6950	10.4390
 0.6960	11.0080
 0.6970	11.6230
 0.6980	12.2820
 0.6990	12.9880
 0.7000	13.7290
 0.7010	14.4990
 0.7020	15.3060
 0.7030	16.1370
 0.7040	16.9880
 0.7050	17.8560
 0.7060	18.7390
 0.7070	19.6420
 0.7080	20.5560
 0.7090	21.4710
 0.7100	22.4050
 0.7110	23.3530
 0.7120	24.3100
 0.7130	25.2750
 0.7140	26.2450
 0.7150	27.2240
 0.7160	28.2110
 0.7170	29.2000
 0.7180	30.1820
 0.7190	31.1620
 0.7200	32.1450
 0.7210	33.1310
 0.7220	34.1100
 0.7230	35.0770
 0.7240	36.0310
 0.7250	36.9630
 0.7260	37.8800
 0.7270	38.7830
 0.7280	39.6460
 0.7290	40.4810
 0.7300	41.2960
 0.7310	42.0930
 0.7320	42.8520
 0.7330	43.5680
 0.7340	44.2490
 0.7350	44.9130
 0.7360	45.5510
 0.7370	46.1530
 0.7380	46.7190
 0.7390	47.2630
 0.7400	47.7750
 0.7410	48.2550
 0.7420	48.7100
 0.7430	49.1470
 0.7440	49.5470
 0.7450	49.9110
 0.7460	50.2690
 0.7470	50.6030
 0.7480	50.9050
 0.7490	51.1770
 0.7500	51.4380
 0.7510	51.6740
 0.7520	51.8820
 0.7530	52.0660
 0.7540	52.2540
 0.7550	52.4320
 0.7560	52.5850
 0.7570	52.7080
 0.7580	52.8450
 0.7590	52.9670
 0.7600	53.0600
 0.7610	53.1540
 0.7620	53.2440
 0.7630	53.3280
 0.7640	53.4000
 0.7650	53.4490
 0.7660	53.4990
 0.7670	53.5510
 0.7680	53.5920
 0.7690	53.6390
 0.7700	53.6900
 0.7710	53.7330
 0.7720	53.7490
 0.7730	53.7820
 0.7740	53.8240
 0.7750	53.8580
 0.7760	53.8730
 0.7770	53.8860
 0.7780	53.9020
 0.7790	53.9260
 0.7800	53.9570
 0.7810	53.9740
 0.7820	53.9790
 0.7830	54.0020
 0.7840	54.0160
 0.7850	54.0290
 0.7860	54.0460
 0.7870	54.0600
 0.7880	54.0810
 0.7890	54.0970
 0.7900	54.1010
 0.7910	54.1380
 0.7920	54.1620
 0.7930	54.1650
 0.7940	54.1660
 0.7950	54.1860
 0.7960	54.2050
 0.7970	54.2120
 0.7980	54.2220
 0.7990	54.2380
 0.8000	54.2510
 0.8010	54.2560
 0.8020	54.2750
 0.8030	54.2950
 0.8040	54.3110
 0.8050	54.3220
 0.8060	54.3450
 0.8070	54.3610
 0.8080	54.3660
 0.8090	54.3660
 0.8100	54.3840
 0.8110	54.3960
 0.8120	54.3990
 0.8130	54.4330
 0.8140	54.4460
 0.8150	54.4490
 0.8160	54.4640
 0.8170	54.4770
 0.8180	54.4940
 0.8190	54.5140
 0.8200	54.5310
 0.8210	54.5400
 0.8220	54.5430
 0.8230	54.5470
 0.8240	54.5640
 0.8250	54.5880
 0.8260	54.5990
 0.8270	54.5940
 0.8280	54.6020
 0.8290	54.6110
 0.8300	54.6170
 0.8310	54.6200
 0.8320	54.6370
 0.8330	54.6420
 0.8340	54.6400
 0.8350	54.6490
 0.8360	54.6570
 0.8370	54.6720
 0.8380	54.6950
 0.8390	54.7190
 0.8400	54.7370
 0.8410	54.7520
 0.8420	54.7670
 0.8430	54.7850
 0.8440	54.8010
 0.8450	54.8160
 0.8460	54.8310
 0.8470	54.8620
 0.8480	54.8820
 0.8490	54.8960
 0.8500	54.9170
 0.8510	54.9290
 0.8520	54.9410
 0.8530	54.9530
 0.8540	54.9630
 0.8550	54.9880
 0.8560	55.0060
 0.8570	55.0070
 0.8580	54.9990
 0.8590	55.0230
 0.8600	55.0530
 0.8610	55.0680
 0.8620	55.0740
 0.8630	55.0750
 0.8640	55.0780
 0.8650	55.0870
 0.8660	55.0930
 0.8670	55.1030
 0.8680	55.1100
 0.8690	55.1090
 0.8700	55.1110
 0.8710	55.1070
 0.8720	55.1090
 0.8730	55.1320
 0.8740	55.1350
 0.8750	55.1380
 0.8760	55.1390
 0.8770	55.1140
 0.8780	55.1230
 0.8790	55.1360
 0.8800	55.1300
 0.8810	55.1130
 0.8820	55.1150
 0.8830	55.1170
 0.8840	55.1050
 0.8850	55.0920
 0.8860	55.0890
 0.8870	55.0920
 0.8880	55.0880
 0.8890	55.0670
 0.8900	55.0510
 0.8910	55.0410
 0.8920	55.0290
 0.8930	55.0030
 0.8940	54.9860
 0.8950	54.9870
 0.8960	54.9980
 0.8970	54.9780
 0.8980	54.9550
 0.8990	54.9390
 0.9000	54.9180
 0.9010	54.8860
 0.9020	54.8630
 0.9030	54.8540
 0.9040	54.8390
 0.9050	54.8250
 0.9060	54.8080
 0.9070	54.7860
 0.9080	54.7630
 0.9090	54.7480
 0.9100	54.7420
 0.9110	54.7340
 0.9120	54.7030
 0.9130	54.6660
 0.9140	54.6400
 0.9150	54.6330
 0.9160	54.6110
 0.9170	54.5900
 0.9180	54.5580
 0.9190	54.5070
 0.9200	54.4890
 0.9210	54.4750
 0.9220	54.4480
 0.9230	54.4060
 0.9240	54.3660
 0.9250	54.3270
 0.9260	54.2820
 0.9270	54.2240
 0.9280	54.1730
 0.9290	54.1260
 0.9300	54.0730
 0.9310	54.0010
 0.9320	53.9420
 0.9330	53.8870
 0.9340	53.8220
 0.9350	53.7480
 0.9360	53.6850
 0.9370	53.6110
 0.9380	53.5230
 0.9390	53.4490
 0.9400	53.3600
 0.9410	53.2680
 0.9420	53.1820
 0.9430	53.0980
 0.9440	52.9940
 0.9450	52.8760
 0.9460	52.7550
 0.9470	52.6260
 0.9480	52.5040
 0.9490	52.3720
 0.9500	52.2170
 0.9510	52.0460
 0.9520	51.8820
 0.9530	51.7110
 0.9540	51.5210
 0.9550	51.3250
 0.9560	51.1460
 0.9570	50.9870
 0.9580	50.8430
 0.9590	50.6980
 0.9600	50.5470
 0.9610	50.4170
 0.9620	50.3340
 0.9630	50.2410
 0.9640	50.1530
 0.9650	50.0850
 0.9660	50.0450
 0.9670	50.0080
 0.9680	49.9430
 0.9690	49.8800
 0.9700	49.8560
 0.9710	49.8250
 0.9720	49.7990
 0.9730	49.7840
 0.9740	49.7740
 0.9750	49.7380
 0.9760	49.7230
 0.9770	49.7270
 0.9780	49.7230
 0.9790	49.7320
 0.9800	49.7330
 0.9810	49.7360
 0.9820	49.7610
 0.9830	49.8040
 0.9840	49.8380
 0.9850	49.8700
 0.9860	49.9190
 0.9870	49.9570
 0.9880	49.9980
 0.9890	50.0410
 0.9900	50.0870
 0.9910	50.1470
 0.9920	50.2120
 0.9930	50.2630
 0.9940	50.2990
 0.9950	50.3940
 0.9960	50.4710
 0.9970	50.5190
 0.9980	50.5690
 0.9990	50.6480
 1.0000	50.7910
 1.0010	50.8930
 1.0020	51.0180
 1.0030	51.1000
 1.0040	51.1810
 1.0050	51.2560
 1.0060	51.3320
 1.0070	51.4090
 1.0080	51.4820
 1.0090	51.5500
 1.0100	51.6200
 1.0110	51.6880
 1.0120	51.7580
 1.0130	51.8280
 1.0140	51.9010
 1.0150	51.9760
 1.0160	52.0510
 1.0170	52.1240
 1.0180	52.2000
 1.0190	52.2750
 1.0200	52.3430
 1.0210	52.4190
 1.0220	52.4970
 1.0230	52.5710
 1.0240	52.6470
 1.0250	52.7170
 1.0260	52.7820
 1.0270	52.8460
 1.0280	52.9030
 1.0290	52.9660
 1.0300	53.0320
 1.0310	53.0940
 1.0320	53.1600
 1.0330	53.2200
 1.0340	53.2770
 1.0350	53.3330
 1.0360	53.3880
 1.0370	53.4490
 1.0380	53.5040
 1.0390	53.5570
 1.0400	53.6060
 1.0410	53.6490
 1.0420	53.6960
 1.0430	53.7430
 1.0440	53.7870
 1.0450	53.8310
 1.0460	53.8740
 1.0470	53.9090
 1.0480	53.9510
 1.0490	54.0030
 1.0500	54.0440
 1.0510	54.0830
 1.0520	54.1180
 1.0530	54.1510
 1.0540	54.1740
 1.0550	54.2020
 1.0560	54.2310
 1.0570	54.2590
 1.0580	54.2890
 1.0590	54.3130
 1.0600	54.3340
 1.0610	54.3560
 1.0620	54.3730
 1.0630	54.3920
 1.0640	54.4150
 1.0650	54.4340
 1.0660	54.4520
 1.0670	54.4670
 1.0680	54.4800
 1.0690	54.4910
 1.0700	54.4970
 1.0710	54.4970
 1.0720	54.5010
 1.0730	54.5040
 1.0740	54.5040
 1.0750	54.5060
 1.0760	54.5060
 1.0770	54.5000
 1.0780	54.4960
 1.0790	54.4940
 1.0800	54.4880
 1.0810	54.4820
 1.0820	54.4730
 1.0830	54.4610
 1.0840	54.4470
 1.0850	54.4280
 1.0860	54.4120
 1.0870	54.3950
 1.0880	54.3820
 1.0890	54.3590
 1.0900	54.3330
 1.0910	54.3060
 1.0920	54.2700
 1.0930	54.2420
 1.0940	54.2230
 1.0950	54.1930
 1.0960	54.1590
 1.0970	54.1250
 1.0980	54.0850
 1.0990	54.0470
 1.1000	54.0120
 1.1010	53.9740
 1.1020	53.9340
 1.1030	53.8950
 1.1040	53.8520
 1.1050	53.8070
 1.1060	53.7630
 1.1070	53.7190
 1.1080	53.6700
 1.1090	53.6200
 1.1100	53.5700
 1.1110	53.5150
 1.1120	53.4610
 1.1130	53.4120
 1.1140	53.3520
 1.1150	53.2880
 1.1160	53.2190
 1.1170	53.1440
 1.1180	53.0630
 1.1190	52.9810
 1.1200	52.8880
 1.1210	52.7840
 1.1220	52.6770
 1.1230	52.5560
 1.1240	52.4260
 1.1250	52.2820
 1.1260	52.1300
 1.1270	51.9600
 1.1280	51.7770
 1.1290	51.5760
 1.1300	51.3660
 1.1310	51.1310
 1.1320	50.8750
 1.1330	50.6040
 1.1340	50.3110
 1.1350	50.0080
 1.1360	49.6900
 1.1370	49.3600
 1.1380	49.0210
 1.1390	48.6710
 1.1400	48.3120
 1.1410	47.9520
 1.1420	47.5860
 1.1430	47.2190
 1.1440	46.8600
 1.1450	46.5000
 1.1460	46.1540
 1.1470	45.8090
 1.1480	45.4860
 1.1490	45.1690
 1.1500	44.8780
 1.1510	44.6030
 1.1520	44.3490
 1.1530	44.1150
 1.1540	43.8980
 1.1550	43.6980
 1.1560	43.5170
 1.1570	43.3540
 1.1580	43.2090
 1.1590	43.0790
 1.1600	42.9620
 1.1610	42.8550
 1.1620	42.7580
 1.1630	42.6710
 1.1640	42.5920
 1.1650	42.5230
 1.1660	42.4650
 1.1670	42.4100
 1.1680	42.3650
 1.1690	42.3210
 1.1700	42.2830
 1.1710	42.2430
 1.1720	42.2080
 1.1730	42.1700
 1.1740	42.1310
 1.1750	42.0920
 1.1760	42.0540
 1.1770	42.0140
 1.1780	41.9720
 1.1790	41.9280
 1.1800	41.8830
 1.1810	41.8360
 1.1820	41.7900
 1.1830	41.7440
 1.1840	41.6950
 1.1850	41.6470
 1.1860	41.6000
 1.1870	41.5550
 1.1880	41.5130
 1.1890	41.4730
 1.1900	41.4370
 1.1910	41.4030
 1.1920	41.3760
 1.1930	41.3530
 1.1940	41.3330
 1.1950	41.3180
 1.1960	41.3050
 1.1970	41.2930
 1.1980	41.2880
 1.1990	41.2890
 1.2000	41.2960
 1.2010	41.3090
 1.2020	41.3250
 1.2030	41.3440
 1.2040	41.3680
 1.2050	41.3960
 1.2060	41.4290
 1.2070	41.4670
 1.2080	41.5080
 1.2090	41.5530
 1.2100	41.6010
 1.2110	41.6520
 1.2120	41.7050
 1.2130	41.7630
 1.2140	41.8230
 1.2150	41.8880
 1.2160	41.9580
 1.2170	42.0310
 1.2180	42.1050
 1.2190	42.1800
 1.2200	42.2540
 1.2210	42.3300
 1.2220	42.4090
 1.2230	42.4880
 1.2240	42.5690
 1.2250	42.6500
 1.2260	42.7280
 1.2270	42.8050
 1.2280	42.8830
 1.2290	42.9590
 1.2300	43.0320
 1.2310	43.1050
 1.2320	43.1770
 1.2330	43.2440
 1.2340	43.3100
 1.2350	43.3760
 1.2360	43.4400
 1.2370	43.5010
 1.2380	43.5630
 1.2390	43.6220
 1.2400	43.6810
 1.2410	43.7380
 1.2420	43.7920
 1.2430	43.8460
 1.2440	43.8970
 1.2450	43.9440
 1.2460	43.9910
 1.2470	44.0360
 1.2480	44.0810
 1.2490	44.1260
 1.2500	44.1690
 1.2510	44.2100
 1.2520	44.2480
 1.2530	44.2820
 1.2540	44.3150
 1.2550	44.3460
 1.2560	44.3750
 1.2570	44.4030
 1.2580	44.4270
 1.2590	44.4490
 1.2600	44.4670
 1.2610	44.4850
 1.2620	44.5000
 1.2630	44.5150
 1.2640	44.5290
 1.2650	44.5390
 1.2660	44.5470
 1.2670	44.5530
 1.2680	44.5560
 1.2690	44.5560
 1.2700	44.5540
 1.2710	44.5480
 1.2720	44.5410
 1.2730	44.5330
 1.2740	44.5210
 1.2750	44.5060
 1.2760	44.4880
 1.2770	44.4690
 1.2780	44.4510
 1.2790	44.4280
 1.2800	44.4020
 1.2810	44.3730
 1.2820	44.3390
 1.2830	44.3020
 1.2840	44.2630
 1.2850	44.2230
 1.2860	44.1770
 1.2870	44.1270
 1.2880	44.0750
 1.2890	44.0200
 1.2900	43.9580
 1.2910	43.8930
 1.2920	43.8270
 1.2930	43.7550
 1.2940	43.6770
 1.2950	43.5940
 1.2960	43.5020
 1.2970	43.4060
 1.2980	43.3070
 1.2990	43.2020
 1.3000	43.0950
 1.3010	42.9840
 1.3020	42.8650
 1.3030	42.7410
 1.3040	42.6110
 1.3050	42.4760
 1.3060	42.3340
 1.3070	42.1900
 1.3080	42.0410
 1.3090	41.8840
 1.3100	41.7230
 1.3110	41.5540
 1.3120	41.3750
 1.3130	41.1950
 1.3140	41.0080
 1.3150	40.8130
 1.3160	40.6150
 1.3170	40.4160
 1.3180	40.2080
 1.3190	39.9960
 1.3200	39.7800
 1.3210	39.5590
 1.3220	39.3340
 1.3230	39.1070
 1.3240	38.8740
 1.3250	38.6390
 1.3260	38.3990
 1.3270	38.1560
 1.3280	37.9140
 1.3290	37.6670
 1.3300	37.4190
 1.3310	37.1700
 1.3320	36.9200
 1.3330	36.6720
 1.3340	36.4240
 1.3350	36.1770
 1.3360	35.9300
 1.3370	35.6820
 1.3380	35.4370
 1.3390	35.1970
 1.3400	34.9590
 1.3410	34.7280
 1.3420	34.5010
 1.3430	34.2760
 1.3440	34.0540
 1.3450	33.8360
 1.3460	33.6210
 1.3470	33.4110
 1.3480	33.2060
 1.3490	33.0060
 1.3500	32.8100
 1.3510	32.6160
 1.3520	32.4250
 1.3530	32.2360
 1.3540	32.0480
 1.3550	31.8620
 1.3560	31.6760
 1.3570	31.4900
 1.3580	31.3020
 1.3590	31.1120
 1.3600	30.9180
 1.3610	30.7190
 1.3620	30.5140
 1.3630	30.3050
 1.3640	30.0890
 1.3650	29.8640
 1.3660	29.6330
 1.3670	29.3940
 1.3680	29.1420
 1.3690	28.8790
 1.3700	28.6020
 1.3710	28.3140
 1.3720	28.0120
 1.3730	27.6950
 1.3740	27.3660
 1.3750	27.0200
 1.3760	26.6570
 1.3770	26.2760
 1.3780	25.8750
 1.3790	25.4580
 1.3800	25.0220
 1.3810	24.5660
 1.3820	24.1000
 1.3830	23.6190
 1.3840	23.1290
 1.3850	22.6260
 1.3860	22.1200
 1.3870	21.6000
 1.3880	21.0880
 1.3890	20.5730
 1.3900	20.0600
 1.3910	19.5580
 1.3920	19.0600
 1.3930	18.5690
 1.3940	18.0900
 1.3950	17.6180
 1.3960	17.1620
 1.3970	16.7220
 1.3980	16.2980
 1.3990	15.8950
 1.4000	15.5100
 1.4010	15.1400
 1.4020	14.7890
 1.4030	14.4570
 1.4040	14.1420
 1.4050	13.8470
 1.4060	13.5690
 1.4070	13.3090
 1.4080	13.0650
 1.4090	12.8360
 1.4100	12.6250
 1.4110	12.4270
 1.4120	12.2440
 1.4130	12.0730
 1.4140	11.9150
 1.4150	11.7690
 1.4160	11.6350
 1.4170	11.5110
 1.4180	11.3970
 1.4190	11.2900
 1.4200	11.1900
 1.4210	11.0980
 1.4220	11.0130
 1.4230	10.9370
 1.4240	10.8690
 1.4250	10.8050
 1.4260	10.7480
 1.4270	10.6950
 1.4280	10.6460
 1.4290	10.6020
 1.4300	10.5640
 1.4310	10.5290
 1.4320	10.4970
 1.4330	10.4700
 1.4340	10.4460
 1.4350	10.4250
 1.4360	10.4070
 1.4370	10.3920
 1.4380	10.3790
 1.4390	10.3680
 1.4400	10.3590
 1.4410	10.3530
 1.4420	10.3480
 1.4430	10.3470
 1.4440	10.3460
 1.4450	10.3470
 1.4460	10.3490
 1.4470	10.3510
 1.4480	10.3540
 1.4490	10.3590
 1.4500	10.3640
 1.4510	10.3700
 1.4520	10.3780
 1.4530	10.3860
 1.4540	10.3960
 1.4550	10.4090
 1.4560	10.4230
 1.4570	10.4380
 1.4580	10.4540
 1.4590	10.4720
 1.4600	10.4940
 1.4610	10.5160
 1.4620	10.5420
 1.4630	10.5710
 1.4640	10.6010
 1.4650	10.6350
 1.4660	10.6720
 1.4670	10.7100
 1.4680	10.7520
 1.4690	10.7950
 1.4700	10.8400
 1.4710	10.8890
 1.4720	10.9400
 1.4730	10.9930
 1.4740	11.0490
 1.4750	11.1070
 1.4760	11.1690
 1.4770	11.2320
 1.4780	11.2950
 1.4790	11.3600
 1.4800	11.4250
 1.4810	11.4920
 1.4820	11.5610
 1.4830	11.6320
 1.4840	11.7040
 1.4850	11.7780
 1.4860	11.8520
 1.4870	11.9290
 1.4880	12.0050
 1.4890	12.0810
 1.4900	12.1590
 1.4910	12.2380
 1.4920	12.3180
 1.4930	12.3990
 1.4940	12.4800
 1.4950	12.5610
 1.4960	12.6430
 1.4970	12.7230
 1.4980	12.8060
 1.4990	12.8890
 1.5000	12.9720
 1.5010	13.0570
 1.5020	13.1410
 1.5030	13.2260
 1.5040	13.3110
 1.5050	13.3950
 1.5060	13.4800
 1.5070	13.5650
 1.5080	13.6510
 1.5090	13.7380
 1.5100	13.8240
 1.5110	13.9090
 1.5120	13.9940
 1.5130	14.0780
 1.5140	14.1630
 1.5150	14.2490
 1.5160	14.3340
 1.5170	14.4200
 1.5180	14.5050
 1.5190	14.5890
 1.5200	14.6710
 1.5210	14.7540
 1.5220	14.8370
 1.5230	14.9200
 1.5240	15.0030
 1.5250	15.0870
 1.5260	15.1690
 1.5270	15.2500
 1.5280	15.3320
 1.5290	15.4120
 1.5300	15.4920
 1.5310	15.5720
 1.5320	15.6510
 1.5330	15.7290
 1.5340	15.8060
 1.5350	15.8830
 1.5360	15.9620
 1.5370	16.0400
 1.5380	16.1190
 1.5390	16.1980
 1.5400	16.2740
 1.5410	16.3520
 1.5420	16.4280
 1.5430	16.5040
 1.5440	16.5830
 1.5450	16.6600
 1.5460	16.7370
 1.5470	16.8150
 1.5480	16.8890
 1.5490	16.9650
 1.5500	17.0410
 1.5510	17.1140
 1.5520	17.1870
 1.5530	17.2600
 1.5540	17.3320
 1.5550	17.4060
 1.5560	17.4800
 1.5570	17.5510
 1.5580	17.6220
 1.5590	17.6920
 1.5600	17.7620
 1.5610	17.8320
 1.5620	17.9020
 1.5630	17.9710
 1.5640	18.0390
 1.5650	18.1070
 1.5660	18.1740
 1.5670	18.2410
 1.5680	18.3090
 1.5690	18.3740
 1.5700	18.4410
 1.5710	18.5070
 1.5720	18.5730
 1.5730	18.6410
 1.5740	18.7080
 1.5750	18.7730
 1.5760	18.8390
 1.5770	18.9040
 1.5780	18.9670
 1.5790	19.0300
 1.5800	19.0940
 1.5810	19.1560
 1.5820	19.2210
 1.5830	19.2850
 1.5840	19.3480
 1.5850	19.4110
 1.5860	19.4730
 1.5870	19.5340
 1.5880	19.5980
 1.5890	19.6630
 1.5900	19.7270
 1.5910	19.7910
 1.5920	19.8550
 1.5930	19.9170
 1.5940	19.9800
 1.5950	20.0440
 1.5960	20.1090
 1.5970	20.1740
 1.5980	20.2390
 1.5990	20.3020
 1.6000	20.3630
 1.6010	20.4230
 1.6020	20.4860
 1.6030	20.5500
 1.6040	20.6110
 1.6050	20.6740
 1.6060	20.7350
 1.6070	20.7940
 1.6080	20.8540
 1.6090	20.9130
 1.6100	20.9730
 1.6110	21.0320
 1.6120	21.0900
 1.6130	21.1470
 1.6140	21.2010
 1.6150	21.2540
 1.6160	21.3060
 1.6170	21.3570
 1.6180	21.4090
 1.6190	21.4590
 1.6200	21.5070
 1.6210	21.5550
 1.6220	21.5990
 1.6230	21.6410
 1.6240	21.6850
 1.6250	21.7260
 1.6260	21.7680
 1.6270	21.8110
 1.6280	21.8490
 1.6290	21.8880
 1.6300	21.9260
 1.6310	21.9640
 1.6320	22.0030
 1.6330	22.0410
 1.6340	22.0800
 1.6350	22.1170
 1.6360	22.1540
 1.6370	22.1910
 1.6380	22.2270
 1.6390	22.2630
 1.6400	22.2990
 1.6410	22.3330
 1.6420	22.3660
 1.6430	22.3950
 1.6440	22.4200
 1.6450	22.4440
 1.6460	22.4660
 1.6470	22.4860
 1.6480	22.5040
 1.6490	22.5180
 1.6500	22.5290
 1.6510	22.5350
 1.6520	22.5410
 1.6530	22.5450
 1.6540	22.5460
 1.6550	22.5440
 1.6560	22.5390
 1.6570	22.5320
 1.6580	22.5230
 1.6590	22.5140
 1.6600	22.5040
 1.6610	22.4920
 1.6620	22.4810
 1.6630	22.4680
 1.6640	22.4550
 1.6650	22.4430
 1.6660	22.4290
 1.6670	22.4160
 1.6680	22.4060
 1.6690	22.3950
 1.6700	22.3830
 1.6710	22.3710
 1.6720	22.3580
 1.6730	22.3430
 1.6740	22.3290
 1.6750	22.3120
 1.6760	22.2940
 1.6770	22.2760
 1.6780	22.2560
 1.6790	22.2350
 1.6800	22.2100
 1.6810	22.1800
 1.6820	22.1480
 1.6830	22.1150
 1.6840	22.0800
 1.6850	22.0430
 1.6860	22.0040
 1.6870	21.9620
 1.6880	21.9170
 1.6890	21.8710
 1.6900	21.8230
 1.6910	21.7740
 1.6920	21.7250
 1.6930	21.6720
 1.6940	21.6200
 1.6950	21.5690
 1.6960	21.5160
 1.6970	21.4630
 1.6980	21.4090
 1.6990	21.3530
 1.7000	21.2970
 1.7010	21.2420
 1.7020	21.1860
 1.7030	21.1310
 1.7040	21.0730
 1.7050	21.0130
 1.7060	20.9540
 1.7070	20.8940
 1.7080	20.8340
 1.7090	20.7720
 1.7100	20.7120
 1.7110	20.6520
 1.7120	20.5960
 1.7130	20.5410
 1.7140	20.4880
 1.7150	20.4330
 1.7160	20.3810
 1.7170	20.3330
 1.7180	20.2850
 1.7190	20.2400
 1.7200	20.1950
 1.7210	20.1500
 1.7220	20.1070
 1.7230	20.0650
 1.7240	20.0240
 1.7250	19.9860
 1.7260	19.9470
 1.7270	19.9090
 1.7280	19.8740
 1.7290	19.8420
 1.7300	19.8140
 1.7310	19.7860
 1.7320	19.7620
 1.7330	19.7360
 1.7340	19.7110
 1.7350	19.6840
 1.7360	19.6580
 1.7370	19.6270
 1.7380	19.5940
 1.7390	19.5590
 1.7400	19.5190
 1.7410	19.4780
 1.7420	19.4380
 1.7430	19.3920
 1.7440	19.3430
 1.7450	19.2910
 1.7460	19.2340
 1.7470	19.1810
 1.7480	19.1270
 1.7490	19.0720
 1.7500	19.0180
 1.7510	18.9630
 1.7520	18.9040
 1.7530	18.8480
 1.7540	18.7920
 1.7550	18.7380
 1.7560	18.6850
 1.7570	18.6360
 1.7580	18.5870
 1.7590	18.5410
 1.7600	18.4970
 1.7610	18.4540
 1.7620	18.4130
 1.7630	18.3730
 1.7640	18.3360
 1.7650	18.3030
 1.7660	18.2700
 1.7670	18.2370
 1.7680	18.2070
 1.7690	18.1770
 1.7700	18.1480
 1.7710	18.1210
 1.7720	18.0930
 1.7730	18.0620
 1.7740	18.0350
 1.7750	18.0100
 1.7760	17.9860
 1.7770	17.9640
 1.7780	17.9430
 1.7790	17.9240
 1.7800	17.9070
 1.7810	17.8930
 1.7820	17.8790
 1.7830	17.8660
 1.7840	17.8560
 1.7850	17.8480
 1.7860	17.8400
 1.7870	17.8350
 1.7880	17.8260
 1.7890	17.8210
 1.7900	17.8190
 1.7910	17.8180
 1.7920	17.8230
 1.7930	17.8260
 1.7940	17.8300
 1.7950	17.8350
 1.7960	17.8390
 1.7970	17.8440
 1.7980	17.8510
 1.7990	17.8570
 1.8000	17.8630
 1.8010	17.8700
 1.8020	17.8770
 1.8030	17.8840
 1.8040	17.8920
 1.8050	17.8990
 1.8060	17.9060
 1.8070	17.9130
 1.8080	17.9200
 1.8090	17.9270
 1.8100	17.9340
 1.8110	17.9400
 1.8120	17.9480
 1.8130	17.9540
 1.8140	17.9570
 1.8150	17.9620
 1.8160	17.9630
 1.8170	17.9650
 1.8180	17.9680
 1.8190	17.9700
 1.8200	17.9710
 1.8210	17.9700
 1.8220	17.9680
 1.8230	17.9630
 1.8240	17.9600
 1.8250	17.9580
 1.8260	17.9550
 1.8270	17.9530
 1.8280	17.9480
 1.8290	17.9410
 1.8300	17.9070
 1.8310	17.8570
 1.8320	17.8130
 1.8330	17.7940
 1.8340	17.7730
 1.8350	17.7480
 1.8360	17.7170
 1.8370	17.6860
 1.8380	17.6510
 1.8390	17.6110
 1.8400	17.5730
 1.8410	17.5250
 1.8420	17.4690
 1.8430	17.4100
 1.8440	17.3450
 1.8450	17.2710
 1.8460	17.1960
 1.8470	17.1160
 1.8480	17.0280
 1.8490	16.9350
 1.8500	16.8310
 1.8510	16.7180
 1.8520	16.5950
 1.8530	16.4650
 1.8540	16.3270
 1.8550	16.1830
 1.8560	16.0320
 1.8570	15.8680
 1.8580	15.6960
 1.8590	15.5180
 1.8600	15.3310
 1.8610	15.1310
 1.8620	14.9260
 1.8630	14.7160
 1.8640	14.4910
 1.8650	14.2600
 1.8660	14.0200
 1.8670	13.7650
 1.8680	13.5050
 1.8690	13.2310
 1.8700	12.9520
 1.8710	12.6630
 1.8720	12.3750
 1.8730	12.0760
 1.8740	11.7760
 1.8750	11.4760
 1.8760	11.1710
 1.8770	10.8680
 1.8780	10.5700
 1.8790	10.2720
 1.8800	 9.9810
 1.8810	 9.6930
 1.8820	 9.4110
 1.8830	 9.1360
 1.8840	 8.8690
 1.8850	 8.6100
 1.8860	 8.3560
 1.8870	 8.1110
 1.8880	 7.8760
 1.8890	 7.6500
 1.8900	 7.4350
 1.8910	 7.2330
 1.8920	 7.0410
 1.8930	 6.8610
 1.8940	 6.6930
 1.8950	 6.5400
 1.8960	 6.3970
 1.8970	 6.2610
 1.8980	 6.1390
 1.8990	 6.0270
 1.9000	 5.9230
 1.9010	 5.8290
 1.9020	 5.7440
 1.9030	 5.6690
 1.9040	 5.5990
 1.9050	 5.5350
 1.9060	 5.4760
 1.9070	 5.4230
 1.9080	 5.3760
 1.9090	 5.3320
 1.9100	 5.2930
 1.9110	 5.2580
 1.9120	 5.2250
 1.9130	 5.1970
 1.9140	 5.1740
 1.9150	 5.1530
 1.9160	 5.1330
 1.9170	 5.1160
 1.9180	 5.0980
 1.9190	 5.0830
 1.9200	 5.0720
 1.9210	 5.0620
 1.9220	 5.0550
 1.9230	 5.0520
 1.9240	 5.0480
 1.9250	 5.0460
 1.9260	 5.0440
 1.9270	 5.0430
 1.9280	 5.0420
 1.9290	 5.0430
 1.9300	 5.0470
 1.9310	 5.0510
 1.9320	 5.0560
 1.9330	 5.0620
 1.9340	 5.0680
 1.9350	 5.0760
 1.9360	 5.0860
 1.9370	 5.0950
 1.9380	 5.1070
 1.9390	 5.1160
 1.9400	 5.1260
 1.9410	 5.1390
 1.9420	 5.1540
 1.9430	 5.1670
 1.9440	 5.1800
 1.9450	 5.1930
 1.9460	 5.2080
 1.9470	 5.2220
 1.9480	 5.2380
 1.9490	 5.2570
 1.9500	 5.2750
 1.9510	 5.2920
 1.9520	 5.3080
 1.9530	 5.3270
 1.9540	 5.3480
 1.9550	 5.3680
 1.9560	 5.3890
 1.9570	 5.4100
 1.9580	 5.4280
 1.9590	 5.4500
 1.9600	 5.4740
 1.9610	 5.4960
 1.9620	 5.5170
 1.9630	 5.5390
 1.9640	 5.5590
 1.9650	 5.5840
 1.9660	 5.6130
 1.9670	 5.6430
 1.9680	 5.6710
 1.9690	 5.7000
 1.9700	 5.7270
 1.9710	 5.7490
 1.9720	 5.7740
 1.9730	 5.7980
 1.9740	 5.8250
 1.9750	 5.8530
 1.9760	 5.8830
 1.9770	 5.9140
 1.9780	 5.9450
 1.9790	 5.9760
 1.9800	 6.0080
 1.9810	 6.0380
 1.9820	 6.0690
 1.9830	 6.0990
 1.9840	 6.1240
 1.9850	 6.1540
 1.9860	 6.1860
 1.9870	 6.2210
 1.9880	 6.2530
 1.9890	 6.2880
 1.9900	 6.3200
 1.9910	 6.3500
 1.9920	 6.3830
 1.9930	 6.4180
 1.9940	 6.4520
 1.9950	 6.4890
 1.9960	 6.5230
 1.9970	 6.5580
 1.9980	 6.5920
 1.9990	 6.6240
 2.0000	 6.6560
 2.0010	 6.6870
 2.0020	 6.7210
 2.0030	 6.7570
 2.0040	 6.7920
 2.0050	 6.8270
 2.0060	 6.8660
 2.0070	 6.9000
 2.0080	 6.9290
 2.0090	 6.9610
 2.0100	 6.9880
 2.0110	 7.0190
 2.0120	 7.0540
 2.0130	 7.0870
 2.0140	 7.1190
 2.0150	 7.1520
 2.0160	 7.1820
 2.0170	 7.2080
 2.0180	 7.2370
 2.0190	 7.2670
 2.0200	 7.2970
 2.0210	 7.3310
 2.0220	 7.3610
 2.0230	 7.3890
 2.0240	 7.4190
 2.0250	 7.4480
 2.0260	 7.4760
 2.0270	 7.5020
 2.0280	 7.5300
 2.0290	 7.5560
 2.0300	 7.5790
 2.0310	 7.6050
 2.0320	 7.6330
 2.0330	 7.6590
 2.0340	 7.6880
 2.0350	 7.7120
 2.0360	 7.7330
 2.0370	 7.7550
 2.0380	 7.7730
 2.0390	 7.7920
 2.0400	 7.8120
 2.0410	 7.8310
 2.0420	 7.8510
 2.0430	 7.8690
 2.0440	 7.8900
 2.0450	 7.9130
 2.0460	 7.9330
 2.0470	 7.9520
 2.0480	 7.9700
 2.0490	 7.9830
 2.0500	 7.9990
 2.0510	 8.0150
 2.0520	 8.0320
 2.0530	 8.0520
 2.0540	 8.0720
 2.0550	 8.0920
 2.0560	 8.1140
 2.0570	 8.1350
 2.0580	 8.1540
 2.0590	 8.1740
 2.0600	 8.1940
 2.0610	 8.2120
 2.0620	 8.2290
 2.0630	 8.2450
 2.0640	 8.2590
 2.0650	 8.2760
 2.0660	 8.2950
 2.0670	 8.3120
 2.0680	 8.3270
 2.0690	 8.3420
 2.0700	 8.3570
 2.0710	 8.3710
 2.0720	 8.3850
 2.0730	 8.4020
 2.0740	 8.4180
 2.0750	 8.4330
 2.0760	 8.4510
 2.0770	 8.4720
 2.0780	 8.4910
 2.0790	 8.5100
 2.0800	 8.5300
 2.0810	 8.5490
 2.0820	 8.5680
 2.0830	 8.5850
 2.0840	 8.6040
 2.0850	 8.6240
 2.0860	 8.6430
 2.0870	 8.6610
 2.0880	 8.6830
 2.0890	 8.7020
 2.0900	 8.7180
 2.0910	 8.7360
 2.0920	 8.7540
 2.0930	 8.7720
 2.0940	 8.7900
 2.0950	 8.8090
 2.0960	 8.8320
 2.0970	 8.8520
 2.0980	 8.8720
 2.0990	 8.8930
 2.1000	 8.9130
 2.1010	 8.9330
 2.1020	 8.9510
 2.1030	 8.9710
 2.1040	 8.9930
 2.1050	 9.0140
 2.1060	 9.0340
 2.1070	 9.0540
 2.1080	 9.0750
 2.1090	 9.0930
 2.1100	 9.1140
 2.1110	 9.1420
 2.1120	 9.1610
 2.1130	 9.1750
 2.1140	 9.1920
 2.1150	 9.2050
 2.1160	 9.2230
 2.1170	 9.2460
 2.1180	 9.2670
 2.1190	 9.2850
 2.1200	 9.3050
 2.1210	 9.3240
 2.1220	 9.3440
 2.1230	 9.3650
 2.1240	 9.3880
 2.1250	 9.4090
 2.1260	 9.4290
 2.1270	 9.4500
 2.1280	 9.4700
 2.1290	 9.4900
 2.1300	 9.5100
 2.1310	 9.5280
 2.1320	 9.5440
 2.1330	 9.5620
 2.1340	 9.5770
 2.1350	 9.5970
 2.1360	 9.6190
 2.1370	 9.6400
 2.1380	 9.6620
 2.1390	 9.6830
 2.1400	 9.7020
 2.1410	 9.7190
 2.1420	 9.7370
 2.1430	 9.7540
 2.1440	 9.7740
 2.1450	 9.7950
 2.1460	 9.8130
 2.1470	 9.8320
 2.1480	 9.8500
 2.1490	 9.8630
 2.1500	 9.8820
 2.1510	 9.9030
 2.1520	 9.9250
 2.1530	 9.9520
 2.1540	 9.9730
 2.1550	 9.9910
 2.1560	10.0100
 2.1570	10.0240
 2.1580	10.0410
 2.1590	10.0590
 2.1600	10.0800
 2.1610	10.0990
 2.1620	10.1180
 2.1630	10.1340
 2.1640	10.1460
 2.1650	10.1620
 2.1660	10.1750
 2.1670	10.1910
 2.1680	10.2090
 2.1690	10.2270
 2.1700	10.2420
 2.1710	10.2620
 2.1720	10.2870
 2.1730	10.3070
 2.1740	10.3280
 2.1750	10.3450
 2.1760	10.3540
 2.1770	10.3700
 2.1780	10.3890
 2.1790	10.4050
 2.1800	10.4280
 2.1810	10.4440
 2.1820	10.4530
 2.1830	10.4620
 2.1840	10.4730
 2.1850	10.4820
 2.1860	10.4970
 2.1870	10.5170
 2.1880	10.5320
 2.1890	10.5460
 2.1900	10.5620
 2.1910	10.5760
 2.1920	10.5920
 2.1930	10.6090
 2.1940	10.6250
 2.1950	10.6420
 2.1960	10.6540
 2.1970	10.6610
 2.1980	10.6700
 2.1990	10.6740
 2.2000	10.6840
 2.2010	10.7010
 2.2020	10.7140
 2.2030	10.7290
 2.2040	10.7410
 2.2050	10.7480
 2.2060	10.7560
 2.2070	10.7660
 2.2080	10.7760
 2.2090	10.7850
 2.2100	10.7970
 2.2110	10.8010
 2.2120	10.7990
 2.2130	10.8010
 2.2140	10.8030
 2.2150	10.8030
 2.2160	10.8060
 2.2170	10.8060
 2.2180	10.8030
 2.2190	10.7990
 2.2200	10.7920
 2.2210	10.7870
 2.2220	10.7780
 2.2230	10.7720
 2.2240	10.7730
 2.2250	10.7640
 2.2260	10.7520
 2.2270	10.7370
 2.2280	10.7150
 2.2290	10.6930
 2.2300	10.6680
 2.2310	10.6420
 2.2320	10.6180
 2.2330	10.5880
 2.2340	10.5600
 2.2350	10.5340
 2.2360	10.5080
 2.2370	10.4810
 2.2380	10.4530
 2.2390	10.4250
 2.2400	10.3950
 2.2410	10.3630
 2.2420	10.3290
 2.2430	10.2940
 2.2440	10.2550
 2.2450	10.2100
 2.2460	10.1690
 2.2470	10.1290
 2.2480	10.0860
 2.2490	10.0430
 2.2500	 9.9960
 2.2510	 9.9420
 2.2520	 9.8920
 2.2530	 9.8430
 2.2540	 9.7930
 2.2550	 9.7440
 2.2560	 9.6950
 2.2570	 9.6480
 2.2580	 9.5990
 2.2590	 9.5510
 2.2600	 9.5030
 2.2610	 9.4550
 2.2620	 9.4040
 2.2630	 9.3500
 2.2640	 9.2980
 2.2650	 9.2490
 2.2660	 9.2050
 2.2670	 9.1690
 2.2680	 9.1450
 2.2690	 9.1130
 2.2700	 9.0800
 2.2710	 9.0480
 2.2720	 9.0160
 2.2730	 8.9840
 2.2740	 8.9510
 2.2750	 8.9260
 2.2760	 8.9020
 2.2770	 8.8790
 2.2780	 8.8610
 2.2790	 8.8430
 2.2800	 8.8250
 2.2810	 8.8060
 2.2820	 8.7910
 2.2830	 8.7720
 2.2840	 8.7530
 2.2850	 8.7310
 2.2860	 8.7060
 2.2870	 8.6860
 2.2880	 8.6690
 2.2890	 8.6490
 2.2900	 8.6340
 2.2910	 8.6120
 2.2920	 8.5820
 2.2930	 8.5520
 2.2940	 8.5180
 2.2950	 8.4850
 2.2960	 8.4470
 2.2970	 8.4130
 2.2980	 8.3860
 2.2990	 8.3510
 2.3000	 8.3200
 2.3010	 8.2940
 2.3020	 8.2670
 2.3030	 8.2370
 2.3040	 8.2050
 2.3050	 8.1760
 2.3060	 8.1470
 2.3070	 8.1220
 2.3080	 8.0980
 2.3090	 8.0760
 2.3100	 8.0600
 2.3110	 8.0420
 2.3120	 8.0340
 2.3130	 8.0360
 2.3140	 8.0360
 2.3150	 8.0420
 2.3160	 8.0450
 2.3170	 8.0470
 2.3180	 8.0490
 2.3190	 8.0490
 2.3200	 8.0460
 2.3210	 8.0420
 2.3220	 8.0360
 2.3230	 8.0260
 2.3240	 8.0170
 2.3250	 8.0070
 2.3260	 7.9940
 2.3270	 7.9780
 2.3280	 7.9620
 2.3290	 7.9480
 2.3300	 7.9290
 2.3310	 7.9060
 2.3320	 7.8840
 2.3330	 7.8570
 2.3340	 7.8340
 2.3350	 7.8180
 2.3360	 7.7980
 2.3370	 7.7800
 2.3380	 7.7580
 2.3390	 7.7270
 2.3400	 7.7030
 2.3410	 7.6820
 2.3420	 7.6590
 2.3430	 7.6380
 2.3440	 7.6170
 2.3450	 7.5880
 2.3460	 7.5670
 2.3470	 7.5530
 2.3480	 7.5370
 2.3490	 7.5220
 2.3500	 7.5080
 2.3510	 7.4920
 2.3520	 7.4790
 2.3530	 7.4700
 2.3540	 7.4620
 2.3550	 7.4550
 2.3560	 7.4440
 2.3570	 7.4350
 2.3580	 7.4320
 2.3590	 7.4310
 2.3600	 7.4300
 2.3610	 7.4280
 2.3620	 7.4110
 2.3630	 7.3900
 2.3640	 7.3710
 2.3650	 7.3580
 2.3660	 7.3500
 2.3670	 7.3350
 2.3680	 7.3210
 2.3690	 7.3010
 2.3700	 7.2790
 2.3710	 7.2700
 2.3720	 7.2510
 2.3730	 7.2290
 2.3740	 7.2080
 2.3750	 7.1820
 2.3760	 7.1690
 2.3770	 7.1600
 2.3780	 7.1510
 2.3790	 7.1490
 2.3800	 7.1350
 2.3810	 7.1260
 2.3820	 7.1220
 2.3830	 7.0990
 2.3840	 7.0780
 2.3850	 7.0600
 2.3860	 7.0350
 2.3870	 7.0110
 2.3880	 6.9980
 2.3890	 6.9840
 2.3900	 6.9610
 2.3910	 6.9450
 2.3920	 6.9260
 2.3930	 6.8970
 2.3940	 6.8760
 2.3950	 6.8680
 2.3960	 6.8560
 2.3970	 6.8350
 2.3980	 6.8220
 2.3990	 6.8120
 2.4000	 6.7980
 2.4010	 6.7900
 2.4020	 6.7800
 2.4030	 6.7650
 2.4040	 6.7410
 2.4050	 6.7150
 2.4060	 6.6910
 2.4070	 6.6670
 2.4080	 6.6470
 2.4090	 6.6340
 2.4100	 6.6290
 2.4110	 6.6210
 2.4120	 6.6100
 2.4130	 6.5950
 2.4140	 6.5700
 2.4150	 6.5470
 2.4160	 6.5230
 2.4170	 6.5000
 2.4180	 6.4920
 2.4190	 6.4680
 2.4200	 6.4430
 2.4210	 6.4330
 2.4220	 6.4100
 2.4230	 6.4010
 2.4240	 6.3990
 2.4250	 6.3790
 2.4260	 6.3520
 2.4270	 6.3200
 2.4280	 6.2930
 2.4290	 6.2710
 2.4300	 6.2610
 2.4310	 6.2460
 2.4320	 6.2250
 2.4330	 6.2220
 2.4340	 6.2060
 2.4350	 6.1970
 2.4360	 6.1850
 2.4370	 6.1490
 2.4380	 6.1260
 2.4390	 6.0910
 2.4400	 6.0620
 2.4410	 6.0400
 2.4420	 6.0110
 2.4430	 6.0030
 2.4440	 5.9980
 2.4450	 5.9880
 2.4460	 5.9760
 2.4470	 5.9720
 2.4480	 5.9530
 2.4490	 5.9170
 2.4500	 5.8970
 2.4510	 5.8670
 2.4520	 5.8390
 2.4530	 5.8280
 2.4540	 5.8120
 2.4550	 5.7780
 2.4560	 5.7530
 2.4570	 5.7510
 2.4580	 5.7320
 2.4590	 5.7200
 2.4600	 5.7220
 2.4610	 5.7130
 2.4620	 5.6960
 2.4630	 5.6780
 2.4640	 5.6430
 2.4650	 5.5910
 2.4660	 5.5750
 2.4670	 5.5730
 2.4680	 5.5640
 2.4690	 5.5670
 2.4700	 5.5650
 2.4710	 5.5780
 2.4720	 5.5740
 2.4730	 5.5670
 2.4740	 5.5480
 2.4750	 5.4990
 2.4760	 5.4840
 2.4770	 5.4850
 2.4780	 5.4680
 2.4790	 5.4560
 2.4800	 5.4410
 2.4810	 5.4120
 2.4820	 5.3970
 2.4830	 5.3910
 2.4840	 5.3830
 2.4850	 5.3680
 2.4860	 5.3360
 2.4870	 5.3280
 2.4880	 5.3080
 2.4890	 5.3070
 2.4900	 5.3310
 2.4910	 5.3140
 2.4920	 5.3240
 2.4930	 5.3080
 2.4940	 5.2770
 2.4950	 5.3030
 2.4960	 5.3260
 2.4970	 5.3210
 2.4980	 5.2910
 2.4990	 5.2990
 2.5000	 5.2920
