Name: Quercus rubra
Type: Vegetation
Class: Tree
Genus: Quercus
Species: rubra
Sample No.: QURU-1-1
Owner: UCSB
Wavelength Range: TIR
Origin: USA; Massachusetts; Harvard Forest
Collection Date: 7/8/2013
Description: Samples were collected as part of NSF Macrosystem Biology proposal titled: Collaborative Research: Thermal controls on ecosystem metabolism and function: scaling from leaves to canopies to regions. Samples were collected and overnighted to JPL facilities for processing. The same leaves were processed in the Nicolet and then measured using the ASD.
Measurement: Hemispherical reflectance
First Column: X
Second Column: Y
X Units: Wavelength (micrometers)
Y Units: Reflectance (percentage)
First X Value: 2.501
Last X Value: 15.387
Number of X Values: 1737
Additional Information: vegetation.tree.quercus.rubra.tir.quru-1-1.ucsb.nicolet.ancillary.txt

 2.5010	 7.6300
 2.5030	 7.9680
 2.5040	 8.2840
 2.5050	 7.7770
 2.5060	 7.7650
 2.5070	 8.2100
 2.5090	 8.1020
 2.5100	 7.9660
 2.5110	 7.9740
 2.5120	 7.7860
 2.5140	 7.9070
 2.5150	 7.7110
 2.5160	 7.7210
 2.5170	 7.7800
 2.5180	 7.9010
 2.5200	 8.0750
 2.5210	 7.8510
 2.5220	 7.6010
 2.5230	 7.7660
 2.5250	 7.7720
 2.5260	 7.7280
 2.5270	 7.6600
 2.5280	 7.6720
 2.5290	 7.7930
 2.5310	 7.9700
 2.5320	 7.8750
 2.5330	 7.9350
 2.5340	 7.8970
 2.5360	 7.8750
 2.5370	 7.7660
 2.5380	 7.5180
 2.5390	 7.5010
 2.5410	 7.6830
 2.5420	 7.7400
 2.5430	 7.5770
 2.5440	 7.4260
 2.5460	 7.8550
 2.5470	 8.0990
 2.5480	 7.8800
 2.5490	 7.8190
 2.5510	 7.5680
 2.5520	 7.4940
 2.5530	 7.6010
 2.5540	 7.6120
 2.5560	 7.8200
 2.5570	 7.7690
 2.5580	 7.6400
 2.5590	 7.6960
 2.5610	 7.7320
 2.5620	 7.5100
 2.5630	 7.6410
 2.5640	 7.7600
 2.5660	 7.8290
 2.5670	 7.6260
 2.5680	 7.4860
 2.5700	 7.5840
 2.5710	 8.0250
 2.5720	 8.0660
 2.5730	 7.9100
 2.5750	 8.0480
 2.5760	 8.0820
 2.5770	 7.6990
 2.5790	 7.6180
 2.5800	 7.5540
 2.5810	 7.7640
 2.5820	 7.4760
 2.5840	 7.3020
 2.5850	 7.3270
 2.5860	 7.4120
 2.5880	 7.6470
 2.5890	 7.8740
 2.5900	 7.6560
 2.5910	 7.1460
 2.5930	 6.9710
 2.5940	 7.2990
 2.5950	 7.4980
 2.5970	 7.5450
 2.5980	 7.4840
 2.5990	 7.5270
 2.6000	 7.6040
 2.6020	 7.5780
 2.6030	 7.0440
 2.6040	 6.9230
 2.6060	 7.0670
 2.6070	 7.2060
 2.6080	 7.2440
 2.6100	 7.4140
 2.6110	 7.4130
 2.6120	 7.3790
 2.6140	 7.1760
 2.6150	 7.1570
 2.6160	 7.1220
 2.6180	 7.0710
 2.6190	 7.1060
 2.6200	 7.3360
 2.6220	 7.3430
 2.6230	 7.3530
 2.6240	 7.1520
 2.6260	 6.8150
 2.6270	 6.6220
 2.6280	 6.7320
 2.6300	 6.6120
 2.6310	 6.6090
 2.6320	 6.4780
 2.6340	 6.4820
 2.6350	 6.5900
 2.6360	 6.4490
 2.6380	 6.0830
 2.6390	 5.9370
 2.6400	 6.1520
 2.6420	 6.2140
 2.6430	 6.1540
 2.6440	 6.2310
 2.6460	 6.1790
 2.6470	 6.2640
 2.6480	 6.3280
 2.6500	 6.2580
 2.6510	 6.0400
 2.6520	 6.0640
 2.6540	 5.9340
 2.6550	 6.0470
 2.6560	 6.2370
 2.6580	 6.1170
 2.6590	 5.9130
 2.6610	 5.8940
 2.6620	 5.4170
 2.6630	 5.2680
 2.6650	 5.5970
 2.6660	 5.8500
 2.6670	 5.9030
 2.6690	 5.8620
 2.6700	 5.4490
 2.6720	 5.4910
 2.6730	 5.7170
 2.6740	 5.7050
 2.6760	 5.7190
 2.6770	 5.6960
 2.6780	 5.4850
 2.6800	 5.6560
 2.6810	 5.5930
 2.6830	 5.5030
 2.6840	 5.8120
 2.6850	 6.2900
 2.6870	 6.1550
 2.6880	 5.8290
 2.6900	 5.9000
 2.6910	 5.8350
 2.6920	 5.5700
 2.6940	 5.2510
 2.6950	 5.2050
 2.6970	 5.3770
 2.6980	 5.3680
 2.6990	 5.4240
 2.7010	 5.5610
 2.7020	 5.7010
 2.7040	 5.6980
 2.7050	 5.7850
 2.7060	 5.6400
 2.7080	 5.5710
 2.7090	 5.3370
 2.7110	 5.3030
 2.7120	 5.3760
 2.7130	 5.3870
 2.7150	 5.3120
 2.7160	 5.1610
 2.7180	 5.0020
 2.7190	 5.0940
 2.7210	 5.2790
 2.7220	 5.3660
 2.7230	 5.2090
 2.7250	 5.5510
 2.7260	 5.7720
 2.7280	 5.6390
 2.7290	 5.2690
 2.7310	 5.3150
 2.7320	 5.3940
 2.7330	 5.2640
 2.7350	 5.3390
 2.7360	 5.5950
 2.7380	 5.8540
 2.7390	 5.9960
 2.7410	 5.6550
 2.7420	 5.7360
 2.7440	 5.6070
 2.7450	 5.4310
 2.7470	 5.6850
 2.7480	 5.5300
 2.7490	 5.3600
 2.7510	 5.5220
 2.7520	 5.6160
 2.7540	 5.5830
 2.7550	 6.1210
 2.7570	 6.8240
 2.7580	 6.4870
 2.7600	 5.7590
 2.7610	 5.6970
 2.7630	 5.7040
 2.7640	 5.3180
 2.7660	 5.4370
 2.7670	 5.5040
 2.7680	 5.4710
 2.7700	 5.4770
 2.7710	 5.8540
 2.7730	 6.0240
 2.7740	 6.0770
 2.7760	 5.7170
 2.7770	 5.7290
 2.7790	 5.8520
 2.7800	 5.6840
 2.7820	 5.7270
 2.7830	 5.8780
 2.7850	 5.7630
 2.7860	 6.0120
 2.7880	 6.1880
 2.7890	 5.9150
 2.7910	 5.4550
 2.7920	 5.5680
 2.7940	 5.6500
 2.7950	 5.7770
 2.7970	 5.6150
 2.7980	 5.6400
 2.8000	 5.3760
 2.8010	 5.6170
 2.8030	 5.9000
 2.8040	 5.9060
 2.8060	 5.8260
 2.8070	 5.8700
 2.8090	 5.7280
 2.8110	 5.6550
 2.8120	 5.3220
 2.8140	 5.3000
 2.8150	 5.5590
 2.8170	 5.7210
 2.8180	 5.4730
 2.8200	 5.2520
 2.8210	 5.5940
 2.8230	 6.1910
 2.8240	 5.9310
 2.8260	 5.3870
 2.8270	 5.0460
 2.8290	 5.1150
 2.8300	 5.5050
 2.8320	 6.3440
 2.8340	 6.1970
 2.8350	 6.0570
 2.8370	 5.7550
 2.8380	 5.5090
 2.8400	 5.6180
 2.8410	 5.7800
 2.8430	 5.5380
 2.8440	 5.6920
 2.8460	 5.9610
 2.8480	 6.0890
 2.8490	 5.7220
 2.8510	 5.3700
 2.8520	 5.2200
 2.8540	 5.6880
 2.8550	 5.9740
 2.8570	 5.9010
 2.8590	 5.6130
 2.8600	 5.8460
 2.8620	 5.8960
 2.8630	 6.1060
 2.8650	 6.0540
 2.8660	 5.8640
 2.8680	 5.7360
 2.8700	 6.1770
 2.8710	 6.1260
 2.8730	 5.5690
 2.8740	 5.1980
 2.8760	 5.1420
 2.8780	 5.8490
 2.8790	 6.7240
 2.8810	 6.5240
 2.8820	 5.7960
 2.8840	 5.7920
 2.8860	 6.7220
 2.8870	 6.0210
 2.8890	 5.4250
 2.8900	 5.7860
 2.8920	 5.6420
 2.8940	 5.5690
 2.8950	 6.2180
 2.8970	 6.7090
 2.8980	 6.4900
 2.9000	 6.0030
 2.9020	 6.0820
 2.9030	 5.8860
 2.9050	 5.6350
 2.9070	 5.6090
 2.9080	 5.6600
 2.9100	 5.4040
 2.9120	 5.4610
 2.9130	 5.7230
 2.9150	 5.9690
 2.9160	 5.9320
 2.9180	 5.8640
 2.9200	 5.8670
 2.9210	 5.8030
 2.9230	 5.7440
 2.9250	 5.8680
 2.9260	 5.7720
 2.9280	 5.9850
 2.9300	 5.6800
 2.9310	 5.7540
 2.9330	 5.7420
 2.9350	 5.7740
 2.9360	 5.6310
 2.9380	 5.5950
 2.9400	 5.5600
 2.9410	 5.4900
 2.9430	 5.3370
 2.9450	 5.7850
 2.9460	 5.6200
 2.9480	 5.9380
 2.9500	 5.6140
 2.9510	 5.2220
 2.9530	 5.4180
 2.9550	 5.6710
 2.9560	 6.4190
 2.9580	 7.5550
 2.9600	 6.8140
 2.9610	 6.2930
 2.9630	 6.5650
 2.9650	 6.3000
 2.9660	 6.3060
 2.9680	 6.8490
 2.9700	 6.2610
 2.9720	 6.2800
 2.9730	 5.9310
 2.9750	 5.2140
 2.9770	 2.6750
 2.9780	 3.0360
 2.9800	 5.5760
 2.9820	 6.6480
 2.9840	 7.0320
 2.9850	 6.8400
 2.9870	 7.5960
 2.9890	 6.5610
 2.9900	 4.8780
 2.9920	 4.8720
 2.9940	 3.2040
 2.9960	 3.6880
 2.9970	 6.1060
 2.9990	 5.9800
 3.0010	 4.9930
 3.0030	 5.5240
 3.0040	 6.2640
 3.0060	 6.3200
 3.0080	 6.0900
 3.0100	 5.7460
 3.0110	 4.4050
 3.0130	 3.9150
 3.0150	 5.9590
 3.0170	 6.6950
 3.0180	 5.6750
 3.0200	 5.3060
 3.0220	 5.0460
 3.0240	 5.2540
 3.0250	 5.6990
 3.0270	 5.9070
 3.0290	 5.7800
 3.0310	 5.0600
 3.0320	 5.5040
 3.0340	 5.3740
 3.0360	 4.2410
 3.0380	 4.8080
 3.0400	 6.2890
 3.0410	 7.2660
 3.0430	 7.5480
 3.0450	 8.4210
 3.0470	 7.0350
 3.0480	 7.0400
 3.0500	 6.9870
 3.0520	 6.5820
 3.0540	 7.8530
 3.0560	 7.6300
 3.0570	 7.8990
 3.0590	 6.4160
 3.0610	 5.5130
 3.0630	 5.6570
 3.0650	 6.4410
 3.0660	 6.4420
 3.0680	 4.9680
 3.0700	 4.5910
 3.0720	 5.6450
 3.0740	 6.5730
 3.0760	 6.2850
 3.0770	 5.9670
 3.0790	 5.6860
 3.0810	 5.7210
 3.0830	 5.8000
 3.0850	 5.9250
 3.0870	 6.0660
 3.0880	 5.8880
 3.0900	 5.8030
 3.0920	 6.3240
 3.0940	 6.4250
 3.0960	 6.3520
 3.0980	 6.3760
 3.0990	 6.2230
 3.1010	 5.7760
 3.1030	 5.9790
 3.1050	 6.2340
 3.1070	 5.9050
 3.1090	 5.6470
 3.1110	 6.1240
 3.1120	 6.0270
 3.1140	 6.1900
 3.1160	 6.2270
 3.1180	 5.7300
 3.1200	 5.5220
 3.1220	 6.1420
 3.1240	 6.4830
 3.1260	 6.2300
 3.1270	 6.1060
 3.1290	 6.5690
 3.1310	 6.8090
 3.1330	 5.7830
 3.1350	 5.5890
 3.1370	 5.4950
 3.1390	 5.7320
 3.1410	 6.1980
 3.1430	 6.5370
 3.1450	 5.4340
 3.1460	 6.3000
 3.1480	 7.4900
 3.1500	 7.3200
 3.1520	 7.2890
 3.1540	 6.1290
 3.1560	 5.1780
 3.1580	 3.3470
 3.1600	 1.8760
 3.1620	 3.7130
 3.1640	 8.3150
 3.1660	10.3440
 3.1680	 6.9340
 3.1700	 2.9960
 3.1710	 3.2960
 3.1730	 4.1920
 3.1750	 5.9340
 3.1770	 6.2130
 3.1790	 4.2490
 3.1810	 3.1920
 3.1830	 5.7680
 3.1850	 7.9870
 3.1870	 7.4170
 3.1890	 6.3830
 3.1910	 6.1360
 3.1930	 5.8080
 3.1950	 5.5510
 3.1970	 5.7940
 3.1990	 6.1290
 3.2010	 5.7390
 3.2030	 5.6850
 3.2050	 5.6300
 3.2070	 5.4980
 3.2090	 5.2300
 3.2110	 5.3660
 3.2130	 5.4510
 3.2150	 5.5760
 3.2170	 5.4320
 3.2190	 5.4510
 3.2210	 5.4810
 3.2230	 5.8390
 3.2250	 5.8960
 3.2270	 5.7080
 3.2290	 5.4600
 3.2310	 5.6440
 3.2330	 5.6960
 3.2350	 5.3420
 3.2370	 5.2770
 3.2390	 5.5370
 3.2410	 5.5450
 3.2430	 5.2300
 3.2450	 5.1340
 3.2470	 5.7020
 3.2490	 5.4240
 3.2510	 5.4080
 3.2530	 5.5160
 3.2550	 5.3870
 3.2570	 4.9340
 3.2590	 5.0340
 3.2610	 5.6250
 3.2630	 5.4230
 3.2650	 5.3030
 3.2670	 5.8830
 3.2690	 5.6110
 3.2720	 5.5100
 3.2740	 5.4340
 3.2760	 5.0100
 3.2780	 4.8050
 3.2800	 5.1590
 3.2820	 5.3200
 3.2840	 5.1100
 3.2860	 5.1110
 3.2880	 5.1430
 3.2900	 4.8440
 3.2920	 5.3050
 3.2940	 5.6920
 3.2960	 5.6370
 3.2990	 5.6210
 3.3010	 5.3250
 3.3030	 5.1380
 3.3050	 5.3410
 3.3070	 5.1020
 3.3090	 5.2360
 3.3110	 5.7950
 3.3130	 5.4810
 3.3150	 4.9110
 3.3180	 5.1040
 3.3200	 4.9370
 3.3220	 4.8950
 3.3240	 5.1250
 3.3260	 5.0620
 3.3280	 4.7760
 3.3300	 4.9230
 3.3330	 5.0600
 3.3350	 5.0210
 3.3370	 4.8030
 3.3390	 4.7500
 3.3410	 4.9120
 3.3430	 4.9700
 3.3450	 4.5700
 3.3480	 4.5980
 3.3500	 4.5830
 3.3520	 4.5710
 3.3540	 4.6090
 3.3560	 4.6280
 3.3580	 4.6840
 3.3610	 4.7770
 3.3630	 4.5340
 3.3650	 4.6610
 3.3670	 4.4570
 3.3690	 4.2700
 3.3720	 4.1430
 3.3740	 4.1610
 3.3760	 4.3090
 3.3780	 4.3590
 3.3800	 4.3640
 3.3830	 4.7310
 3.3850	 4.7270
 3.3870	 4.7060
 3.3890	 4.7850
 3.3910	 4.7250
 3.3940	 4.5880
 3.3960	 4.5400
 3.3980	 4.0330
 3.4000	 3.6630
 3.4020	 3.7380
 3.4050	 3.7450
 3.4070	 3.7200
 3.4090	 3.8920
 3.4110	 3.9180
 3.4140	 4.2420
 3.4160	 4.5320
 3.4180	 4.7970
 3.4200	 5.4260
 3.4230	 6.5020
 3.4250	 7.6250
 3.4270	 9.0450
 3.4290	10.3140
 3.4320	10.3860
 3.4340	 9.6250
 3.4360	 9.0680
 3.4390	 8.3010
 3.4410	 7.8270
 3.4430	 7.5780
 3.4450	 7.4490
 3.4480	 7.3630
 3.4500	 7.3110
 3.4520	 6.7560
 3.4550	 6.3850
 3.4570	 6.4710
 3.4590	 6.6610
 3.4620	 6.5310
 3.4640	 6.1370
 3.4660	 6.1240
 3.4680	 6.5780
 3.4710	 6.7400
 3.4730	 6.6050
 3.4750	 6.4140
 3.4780	 6.2530
 3.4800	 6.0870
 3.4820	 5.9270
 3.4850	 5.8190
 3.4870	 5.8210
 3.4890	 5.8050
 3.4920	 5.6410
 3.4940	 5.3650
 3.4970	 5.2990
 3.4990	 5.1400
 3.5010	 5.1690
 3.5040	 5.3510
 3.5060	 6.0770
 3.5080	 7.4990
 3.5110	 9.3960
 3.5130	 9.9710
 3.5160	 9.3670
 3.5180	 8.6240
 3.5200	 8.0460
 3.5230	 7.8580
 3.5250	 7.7820
 3.5270	 7.7410
 3.5300	 7.6800
 3.5320	 7.3060
 3.5350	 7.0420
 3.5370	 6.9210
 3.5400	 6.8140
 3.5420	 6.6300
 3.5440	 6.5220
 3.5470	 6.5740
 3.5490	 6.5980
 3.5520	 6.2880
 3.5540	 6.3890
 3.5570	 6.5490
 3.5590	 6.5560
 3.5610	 6.3840
 3.5640	 6.3690
 3.5660	 6.3550
 3.5690	 6.3160
 3.5710	 6.5060
 3.5740	 6.6810
 3.5760	 6.3840
 3.5790	 6.2410
 3.5810	 6.3010
 3.5840	 5.9370
 3.5860	 5.5690
 3.5890	 6.1030
 3.5910	 6.9790
 3.5930	 7.0680
 3.5960	 6.7870
 3.5980	 6.8140
 3.6010	 6.5630
 3.6030	 6.1630
 3.6060	 5.9580
 3.6080	 6.0350
 3.6110	 6.2650
 3.6140	 6.2510
 3.6160	 6.0370
 3.6190	 6.0770
 3.6210	 6.2690
 3.6240	 6.3840
 3.6260	 6.1800
 3.6290	 5.9560
 3.6310	 5.7790
 3.6340	 6.0830
 3.6360	 6.0030
 3.6390	 5.9480
 3.6410	 6.0440
 3.6440	 6.0470
 3.6470	 6.0130
 3.6490	 5.9970
 3.6520	 6.0460
 3.6540	 6.0380
 3.6570	 6.0200
 3.6590	 5.9520
 3.6620	 5.8240
 3.6650	 5.9530
 3.6670	 6.0820
 3.6700	 6.0780
 3.6720	 6.0680
 3.6750	 6.0250
 3.6780	 6.0110
 3.6800	 6.0360
 3.6830	 5.8610
 3.6850	 5.8120
 3.6880	 5.8430
 3.6910	 5.9500
 3.6930	 6.1640
 3.6960	 6.1690
 3.6990	 5.9510
 3.7010	 6.0270
 3.7040	 6.0210
 3.7060	 6.0730
 3.7090	 6.0630
 3.7120	 5.9540
 3.7140	 5.8110
 3.7170	 5.9320
 3.7200	 5.8810
 3.7220	 5.6860
 3.7250	 5.9800
 3.7280	 6.1970
 3.7300	 5.8540
 3.7330	 5.7780
 3.7360	 5.8470
 3.7390	 6.1000
 3.7410	 6.1640
 3.7440	 5.9790
 3.7470	 5.7000
 3.7490	 5.6790
 3.7520	 5.8790
 3.7550	 6.0850
 3.7580	 6.1410
 3.7600	 6.1190
 3.7630	 6.2280
 3.7660	 6.0230
 3.7680	 5.7230
 3.7710	 5.7520
 3.7740	 5.6910
 3.7770	 5.8130
 3.7790	 5.9110
 3.7820	 5.8210
 3.7850	 5.6640
 3.7880	 5.8080
 3.7900	 6.0100
 3.7930	 5.9390
 3.7960	 5.8830
 3.7990	 5.9120
 3.8020	 5.9840
 3.8040	 5.9840
 3.8070	 5.8620
 3.8100	 5.6720
 3.8130	 5.6880
 3.8160	 5.8450
 3.8180	 5.8020
 3.8210	 5.8170
 3.8240	 5.8280
 3.8270	 5.8100
 3.8300	 5.8870
 3.8330	 5.8970
 3.8350	 6.0160
 3.8380	 6.0360
 3.8410	 5.9430
 3.8440	 5.7620
 3.8470	 5.3960
 3.8500	 5.5820
 3.8520	 5.5280
 3.8550	 5.6090
 3.8580	 5.7920
 3.8610	 5.8500
 3.8640	 5.7700
 3.8670	 5.7410
 3.8700	 5.8000
 3.8730	 6.0330
 3.8750	 6.0080
 3.8780	 5.7570
 3.8810	 5.6630
 3.8840	 5.8090
 3.8870	 5.8910
 3.8900	 6.0080
 3.8930	 5.9980
 3.8960	 5.8180
 3.8990	 5.6960
 3.9020	 5.7040
 3.9050	 5.7730
 3.9080	 5.8780
 3.9110	 5.9210
 3.9140	 5.9440
 3.9160	 5.9120
 3.9190	 6.0210
 3.9220	 6.0010
 3.9250	 5.9500
 3.9280	 6.0280
 3.9310	 5.9580
 3.9340	 5.8990
 3.9370	 5.9330
 3.9400	 5.8480
 3.9430	 5.8550
 3.9460	 5.8650
 3.9490	 5.8940
 3.9520	 5.7960
 3.9550	 5.7470
 3.9580	 5.8120
 3.9610	 5.9690
 3.9640	 6.0200
 3.9670	 6.0100
 3.9700	 5.9420
 3.9730	 5.9400
 3.9770	 5.8830
 3.9800	 5.9400
 3.9830	 5.9970
 3.9860	 5.9290
 3.9890	 5.7980
 3.9920	 5.7400
 3.9950	 5.6830
 3.9980	 5.7950
 4.0010	 5.8320
 4.0040	 5.8370
 4.0070	 5.7780
 4.0100	 5.8030
 4.0130	 5.8940
 4.0170	 6.0140
 4.0200	 5.9300
 4.0230	 5.8510
 4.0260	 5.9220
 4.0290	 5.9790
 4.0320	 5.8720
 4.0350	 5.7620
 4.0380	 5.6970
 4.0420	 5.7360
 4.0450	 5.7220
 4.0480	 5.7150
 4.0510	 5.6180
 4.0540	 5.7030
 4.0570	 5.7770
 4.0610	 5.8650
 4.0640	 5.9250
 4.0670	 5.8400
 4.0700	 5.7000
 4.0730	 5.7310
 4.0770	 5.8320
 4.0800	 5.9390
 4.0830	 5.8850
 4.0860	 5.8410
 4.0890	 5.7260
 4.0930	 5.6140
 4.0960	 5.6180
 4.0990	 5.7560
 4.1020	 5.7030
 4.1060	 5.6680
 4.1090	 5.5440
 4.1120	 5.7010
 4.1150	 5.7930
 4.1190	 5.7300
 4.1220	 5.6370
 4.1250	 5.6840
 4.1280	 5.8600
 4.1320	 5.8880
 4.1350	 5.9540
 4.1380	 5.9960
 4.1420	 5.9500
 4.1450	 5.9020
 4.1480	 5.7940
 4.1520	 5.8270
 4.1550	 5.7920
 4.1580	 5.7080
 4.1620	 5.7240
 4.1650	 5.8370
 4.1680	 5.8230
 4.1720	 5.7340
 4.1750	 5.7420
 4.1780	 5.7140
 4.1820	 5.7290
 4.1850	 5.7970
 4.1890	 5.7580
 4.1920	 5.8260
 4.1950	 5.8700
 4.1990	 5.8300
 4.2020	 5.9410
 4.2060	 6.0230
 4.2090	 6.2300
 4.2120	 6.6070
 4.2160	 6.6430
 4.2190	 6.7710
 4.2230	 7.0550
 4.2260	 6.7120
 4.2300	 6.9410
 4.2330	 7.7410
 4.2360	 7.9790
 4.2400	 8.1360
 4.2430	 6.9810
 4.2470	 6.6200
 4.2500	 6.6490
 4.2540	 6.3870
 4.2570	 6.1840
 4.2610	 6.4760
 4.2640	 6.8650
 4.2680	 7.0310
 4.2710	 7.7980
 4.2750	 7.7180
 4.2780	 6.7070
 4.2820	 6.6580
 4.2850	 6.9460
 4.2890	 6.8420
 4.2930	 6.4740
 4.2960	 6.3530
 4.3000	 6.5040
 4.3030	 6.4320
 4.3070	 6.3130
 4.3100	 6.3640
 4.3140	 6.3380
 4.3180	 6.2620
 4.3210	 6.2290
 4.3250	 6.2620
 4.3280	 6.0870
 4.3320	 5.8160
 4.3360	 5.6960
 4.3390	 5.7850
 4.3430	 5.8660
 4.3470	 5.8990
 4.3500	 5.8740
 4.3540	 5.7670
 4.3570	 5.7140
 4.3610	 5.6330
 4.3650	 5.6320
 4.3680	 5.7010
 4.3720	 5.6300
 4.3760	 5.5680
 4.3800	 5.6770
 4.3830	 5.6900
 4.3870	 5.6440
 4.3910	 5.6270
 4.3940	 5.6560
 4.3980	 5.6800
 4.4020	 5.6120
 4.4060	 5.5840
 4.4090	 5.5330
 4.4130	 5.5490
 4.4170	 5.6210
 4.4210	 5.7950
 4.4240	 5.7590
 4.4280	 5.6180
 4.4320	 5.5150
 4.4360	 5.4910
 4.4400	 5.5460
 4.4430	 5.6480
 4.4470	 5.6810
 4.4510	 5.6320
 4.4550	 5.5790
 4.4590	 5.5910
 4.4620	 5.5530
 4.4660	 5.4900
 4.4700	 5.4450
 4.4740	 5.4950
 4.4780	 5.5550
 4.4820	 5.4770
 4.4860	 5.3770
 4.4900	 5.4870
 4.4930	 5.4720
 4.4970	 5.4770
 4.5010	 5.4640
 4.5050	 5.5470
 4.5090	 5.6040
 4.5130	 5.5070
 4.5170	 5.5140
 4.5210	 5.5610
 4.5250	 5.4980
 4.5290	 5.5540
 4.5330	 5.6910
 4.5370	 5.5860
 4.5410	 5.4960
 4.5450	 5.4840
 4.5490	 5.4870
 4.5530	 5.5340
 4.5570	 5.6460
 4.5610	 5.6560
 4.5650	 5.5710
 4.5690	 5.4880
 4.5730	 5.3950
 4.5770	 5.2760
 4.5810	 5.2330
 4.5850	 5.4800
 4.5890	 5.5890
 4.5930	 5.5870
 4.5970	 5.4920
 4.6010	 5.3450
 4.6050	 5.5420
 4.6090	 5.6140
 4.6130	 5.3570
 4.6170	 5.4570
 4.6220	 5.4620
 4.6260	 5.3930
 4.6300	 5.4420
 4.6340	 5.5010
 4.6380	 5.4000
 4.6420	 5.2000
 4.6460	 5.3810
 4.6510	 5.5220
 4.6550	 5.4510
 4.6590	 5.4750
 4.6630	 5.5350
 4.6670	 5.4650
 4.6720	 5.4200
 4.6760	 5.5350
 4.6800	 5.5210
 4.6840	 5.5150
 4.6880	 5.4860
 4.6930	 5.4650
 4.6970	 5.5570
 4.7010	 5.5850
 4.7050	 5.5220
 4.7100	 5.4260
 4.7140	 5.3690
 4.7180	 5.3450
 4.7230	 5.4730
 4.7270	 5.5210
 4.7310	 5.4460
 4.7360	 5.4200
 4.7400	 5.3600
 4.7440	 5.3800
 4.7490	 5.4480
 4.7530	 5.4330
 4.7570	 5.3870
 4.7620	 5.5520
 4.7660	 5.6770
 4.7700	 5.6550
 4.7750	 5.6300
 4.7790	 5.4930
 4.7840	 4.9540
 4.7880	 4.8090
 4.7920	 5.2360
 4.7970	 5.6580
 4.8010	 5.6100
 4.8060	 5.3740
 4.8100	 5.5350
 4.8150	 5.4930
 4.8190	 5.4170
 4.8240	 5.4960
 4.8280	 5.4750
 4.8330	 5.3750
 4.8370	 5.3540
 4.8420	 5.4230
 4.8460	 5.5820
 4.8510	 5.6070
 4.8550	 5.5710
 4.8600	 5.4530
 4.8640	 5.4370
 4.8690	 5.4290
 4.8730	 5.4650
 4.8780	 5.4550
 4.8830	 5.5090
 4.8870	 5.4380
 4.8920	 5.4280
 4.8960	 5.5510
 4.9010	 5.5220
 4.9060	 5.4910
 4.9100	 5.5500
 4.9150	 5.5940
 4.9200	 5.6420
 4.9240	 5.5790
 4.9290	 5.5160
 4.9340	 5.4390
 4.9380	 5.3660
 4.9430	 5.4420
 4.9480	 5.5060
 4.9530	 5.4920
 4.9570	 5.5760
 4.9620	 5.5470
 4.9670	 5.5460
 4.9720	 5.6370
 4.9760	 5.6300
 4.9810	 5.4430
 4.9860	 5.3210
 4.9910	 5.2460
 4.9960	 5.3800
 5.0000	 5.5480
 5.0050	 5.5960
 5.0100	 5.5710
 5.0150	 5.5780
 5.0200	 5.6690
 5.0250	 5.6890
 5.0290	 5.5890
 5.0340	 5.6340
 5.0390	 5.6700
 5.0440	 5.6730
 5.0490	 5.5880
 5.0540	 5.6910
 5.0590	 5.6930
 5.0640	 5.5860
 5.0690	 5.4850
 5.0740	 5.5220
 5.0790	 5.6830
 5.0840	 5.5770
 5.0890	 5.5010
 5.0940	 5.5100
 5.0990	 5.5210
 5.1040	 5.6060
 5.1090	 5.5950
 5.1140	 5.6700
 5.1190	 5.6520
 5.1240	 5.5820
 5.1290	 5.5990
 5.1340	 5.8320
 5.1390	 5.7800
 5.1440	 5.6720
 5.1490	 5.7820
 5.1540	 5.7950
 5.1600	 5.5400
 5.1650	 5.6150
 5.1700	 5.7760
 5.1750	 5.7580
 5.1800	 5.5710
 5.1850	 5.5080
 5.1910	 5.5950
 5.1960	 5.5590
 5.2010	 5.6050
 5.2060	 5.6460
 5.2110	 5.5140
 5.2170	 5.8000
 5.2220	 5.9330
 5.2270	 5.6950
 5.2320	 5.5900
 5.2380	 5.5660
 5.2430	 5.4800
 5.2480	 5.6110
 5.2540	 5.6940
 5.2590	 5.7830
 5.2640	 5.8540
 5.2700	 5.9190
 5.2750	 5.9030
 5.2800	 5.8180
 5.2860	 5.6530
 5.2910	 5.6670
 5.2970	 5.7070
 5.3020	 5.7300
 5.3070	 5.7960
 5.3130	 5.8280
 5.3180	 5.7040
 5.3240	 5.6600
 5.3290	 5.7070
 5.3350	 5.7640
 5.3400	 5.7760
 5.3460	 5.7840
 5.3510	 5.6650
 5.3570	 5.5500
 5.3620	 5.4880
 5.3680	 5.5380
 5.3730	 5.7010
 5.3790	 5.7510
 5.3850	 5.7040
 5.3900	 5.7380
 5.3960	 5.7100
 5.4010	 5.7270
 5.4070	 5.7740
 5.4130	 5.7720
 5.4180	 5.6890
 5.4240	 5.7700
 5.4300	 5.8360
 5.4350	 5.8300
 5.4410	 5.7240
 5.4470	 5.7660
 5.4530	 5.8160
 5.4580	 5.8590
 5.4640	 5.7740
 5.4700	 5.7100
 5.4760	 5.6490
 5.4810	 5.6110
 5.4870	 5.6980
 5.4930	 5.7950
 5.4990	 5.7470
 5.5050	 5.6010
 5.5110	 5.5740
 5.5160	 5.7090
 5.5220	 5.7980
 5.5280	 5.8250
 5.5340	 5.7980
 5.5400	 5.7150
 5.5460	 5.6700
 5.5520	 5.7790
 5.5580	 5.8550
 5.5640	 5.8310
 5.5700	 5.8160
 5.5760	 5.9450
 5.5820	 5.9670
 5.5880	 5.8550
 5.5940	 5.7580
 5.6000	 5.8630
 5.6060	 5.9480
 5.6120	 5.9020
 5.6180	 5.9170
 5.6240	 5.9470
 5.6300	 5.8310
 5.6360	 5.6480
 5.6420	 5.5420
 5.6490	 5.4940
 5.6550	 5.4860
 5.6610	 5.6070
 5.6670	 5.4880
 5.6730	 5.4530
 5.6800	 5.4250
 5.6860	 5.3870
 5.6920	 5.3670
 5.6980	 5.3670
 5.7040	 5.3240
 5.7110	 5.3140
 5.7170	 5.2920
 5.7230	 5.2330
 5.7300	 5.0300
 5.7360	 5.0930
 5.7420	 5.1000
 5.7490	 5.1840
 5.7550	 5.2230
 5.7620	 5.4050
 5.7680	 5.4610
 5.7740	 5.4750
 5.7810	 5.4760
 5.7870	 5.5900
 5.7940	 5.6480
 5.8000	 5.7630
 5.8070	 5.8180
 5.8130	 5.7690
 5.8200	 5.7190
 5.8260	 5.8060
 5.8330	 5.8080
 5.8390	 5.8910
 5.8460	 5.8190
 5.8530	 5.8340
 5.8590	 5.8720
 5.8660	 6.0300
 5.8720	 6.1030
 5.8790	 6.1350
 5.8860	 5.9940
 5.8920	 6.1220
 5.8990	 6.2900
 5.9060	 6.4560
 5.9130	 6.4650
 5.9190	 6.4850
 5.9260	 6.5290
 5.9330	 6.6490
 5.9400	 6.6620
 5.9470	 6.7500
 5.9530	 6.8500
 5.9600	 6.7580
 5.9670	 6.6170
 5.9740	 6.6560
 5.9810	 6.7710
 5.9880	 6.9490
 5.9950	 6.7810
 6.0020	 6.7930
 6.0090	 6.7950
 6.0160	 6.6900
 6.0230	 6.6050
 6.0300	 6.5420
 6.0370	 6.3190
 6.0440	 6.3610
 6.0510	 6.4190
 6.0580	 6.4650
 6.0650	 6.3560
 6.0720	 6.3840
 6.0790	 6.5090
 6.0860	 6.5830
 6.0930	 6.5520
 6.1000	 6.5760
 6.1080	 6.4210
 6.1150	 6.4270
 6.1220	 6.4290
 6.1290	 6.5070
 6.1370	 6.2470
 6.1440	 6.1960
 6.1510	 6.1710
 6.1580	 6.2640
 6.1660	 6.4120
 6.1730	 6.4850
 6.1800	 6.1910
 6.1880	 6.1010
 6.1950	 6.1270
 6.2030	 6.2190
 6.2100	 6.1830
 6.2170	 6.0950
 6.2250	 5.8520
 6.2320	 5.8130
 6.2400	 5.8090
 6.2470	 5.9780
 6.2550	 5.9990
 6.2630	 6.0820
 6.2700	 5.9090
 6.2780	 6.0550
 6.2850	 6.3200
 6.2930	 6.2930
 6.3010	 6.1490
 6.3080	 6.0850
 6.3160	 5.8810
 6.3240	 5.9940
 6.3310	 6.0940
 6.3390	 6.2410
 6.3470	 6.1980
 6.3550	 6.1610
 6.3620	 6.3080
 6.3700	 6.5090
 6.3780	 6.3000
 6.3860	 6.1960
 6.3940	 6.0530
 6.4020	 5.9460
 6.4100	 5.9090
 6.4180	 6.1900
 6.4260	 6.3000
 6.4330	 6.4490
 6.4410	 6.4540
 6.4490	 6.2990
 6.4580	 6.0620
 6.4660	 6.0880
 6.4740	 5.9240
 6.4820	 5.9510
 6.4900	 6.0210
 6.4980	 6.1900
 6.5060	 6.1800
 6.5140	 6.2440
 6.5230	 6.2320
 6.5310	 6.2400
 6.5390	 6.1600
 6.5470	 6.2560
 6.5550	 6.3540
 6.5640	 6.3620
 6.5720	 5.9490
 6.5800	 5.6290
 6.5890	 5.3760
 6.5970	 5.4380
 6.6060	 5.4690
 6.6140	 5.5330
 6.6220	 5.4470
 6.6310	 5.4640
 6.6390	 5.4240
 6.6480	 5.6050
 6.6560	 5.7170
 6.6650	 5.6770
 6.6740	 5.5450
 6.6820	 5.7020
 6.6910	 5.6900
 6.6990	 5.7390
 6.7080	 5.5970
 6.7170	 5.6820
 6.7260	 5.5340
 6.7340	 5.4930
 6.7430	 5.4360
 6.7520	 5.5600
 6.7610	 5.4050
 6.7690	 5.2410
 6.7780	 5.3350
 6.7870	 6.3850
 6.7960	 6.8180
 6.8050	 6.3820
 6.8140	 5.9000
 6.8230	 5.9550
 6.8320	 6.6030
 6.8410	 7.4970
 6.8500	 7.2100
 6.8590	 6.6580
 6.8680	 6.4530
 6.8770	 6.5060
 6.8860	 6.3900
 6.8950	 6.5040
 6.9050	 6.4000
 6.9140	 6.2930
 6.9230	 6.2650
 6.9320	 6.2580
 6.9420	 6.1380
 6.9510	 6.3050
 6.9600	 6.3480
 6.9700	 6.2380
 6.9790	 6.1200
 6.9880	 6.3760
 6.9980	 6.2810
 7.0070	 6.2520
 7.0170	 6.2290
 7.0260	 6.3410
 7.0360	 6.3550
 7.0450	 6.4540
 7.0550	 6.3970
 7.0650	 6.4240
 7.0740	 6.3770
 7.0840	 6.2890
 7.0940	 6.1870
 7.1030	 6.3570
 7.1130	 6.2590
 7.1230	 6.1440
 7.1330	 6.0780
 7.1420	 6.1470
 7.1520	 6.0290
 7.1620	 6.0780
 7.1720	 5.9190
 7.1820	 5.9780
 7.1920	 5.9340
 7.2020	 5.9960
 7.2120	 6.0300
 7.2220	 6.0670
 7.2320	 5.7560
 7.2420	 5.7380
 7.2520	 5.6010
 7.2620	 5.6850
 7.2730	 5.7790
 7.2830	 5.8700
 7.2930	 5.7910
 7.3030	 5.7370
 7.3140	 5.5190
 7.3240	 5.5460
 7.3340	 5.4050
 7.3450	 5.6830
 7.3550	 5.8170
 7.3660	 5.8450
 7.3760	 5.6880
 7.3870	 5.7430
 7.3970	 5.7840
 7.4080	 5.9940
 7.4180	 5.8940
 7.4290	 5.8370
 7.4400	 5.8150
 7.4500	 5.8830
 7.4610	 5.7120
 7.4720	 5.6470
 7.4830	 5.6170
 7.4930	 5.7210
 7.5040	 5.7090
 7.5150	 5.9210
 7.5260	 5.9360
 7.5370	 6.0340
 7.5480	 5.8580
 7.5590	 5.7880
 7.5700	 5.5590
 7.5810	 5.5830
 7.5920	 5.3190
 7.6030	 5.1610
 7.6140	 5.1810
 7.6260	 5.3670
 7.6370	 5.3470
 7.6480	 5.4980
 7.6590	 5.4450
 7.6710	 5.4990
 7.6820	 5.3480
 7.6930	 5.3290
 7.7050	 5.2130
 7.7160	 5.2560
 7.7280	 5.0320
 7.7390	 5.0310
 7.7510	 4.8250
 7.7630	 4.8180
 7.7740	 4.6830
 7.7860	 4.7350
 7.7980	 4.6920
 7.8090	 4.8990
 7.8210	 4.9570
 7.8330	 5.0760
 7.8450	 4.8880
 7.8570	 4.9000
 7.8690	 4.9900
 7.8810	 4.9580
 7.8930	 4.6980
 7.9050	 4.7790
 7.9170	 4.6910
 7.9290	 4.8130
 7.9410	 4.8090
 7.9530	 4.9470
 7.9650	 4.7400
 7.9780	 4.6660
 7.9900	 4.6850
 8.0020	 4.5970
 8.0150	 4.4330
 8.0270	 4.6410
 8.0390	 4.5470
 8.0520	 4.6920
 8.0640	 4.5530
 8.0770	 4.6960
 8.0900	 4.6610
 8.1020	 4.8540
 8.1150	 4.8340
 8.1280	 4.9320
 8.1400	 4.7500
 8.1530	 4.7320
 8.1660	 4.8140
 8.1790	 4.9680
 8.1920	 4.6400
 8.2050	 4.8060
 8.2180	 4.7480
 8.2310	 4.6430
 8.2440	 4.5850
 8.2570	 4.7800
 8.2700	 4.5370
 8.2830	 4.6670
 8.2970	 4.9000
 8.3100	 5.3740
 8.3230	 5.2420
 8.3370	 5.1930
 8.3500	 5.1690
 8.3640	 5.3470
 8.3770	 5.0760
 8.3910	 5.0810
 8.4040	 4.9760
 8.4180	 5.0880
 8.4320	 4.9270
 8.4450	 5.1110
 8.4590	 4.9770
 8.4730	 4.9950
 8.4870	 4.9180
 8.5010	 4.9840
 8.5150	 4.7890
 8.5290	 5.0660
 8.5430	 5.2090
 8.5570	 5.3610
 8.5710	 5.2980
 8.5850	 5.7070
 8.5990	 5.7010
 8.6140	 5.7640
 8.6280	 5.6440
 8.6420	 5.8700
 8.6570	 5.7190
 8.6710	 5.7200
 8.6860	 5.6050
 8.7000	 5.9320
 8.7150	 5.8980
 8.7300	 5.8610
 8.7440	 5.8310
 8.7590	 6.1220
 8.7740	 5.9300
 8.7890	 5.9580
 8.8040	 5.8500
 8.8190	 5.9610
 8.8340	 5.8440
 8.8490	 5.9470
 8.8640	 5.8830
 8.8790	 6.2620
 8.8940	 6.1410
 8.9100	 6.1230
 8.9250	 5.9770
 8.9400	 6.4190
 8.9560	 6.4140
 8.9710	 6.5520
 8.9870	 6.3960
 9.0020	 6.4400
 9.0180	 6.2730
 9.0340	 6.4880
 9.0500	 6.3170
 9.0650	 6.3650
 9.0810	 6.3570
 9.0970	 6.5950
 9.1130	 6.6240
 9.1290	 6.6900
 9.1450	 6.4860
 9.1610	 6.6680
 9.1780	 6.3470
 9.1940	 6.2540
 9.2100	 6.2210
 9.2270	 6.7100
 9.2430	 6.4520
 9.2600	 6.4310
 9.2760	 6.6450
 9.2930	 6.9790
 9.3090	 6.8850
 9.3260	 7.1810
 9.3430	 7.1950
 9.3600	 7.3510
 9.3770	 7.1090
 9.3940	 7.3020
 9.4110	 7.0630
 9.4280	 7.1970
 9.4450	 7.0280
 9.4620	 7.1290
 9.4800	 6.9140
 9.4970	 7.3130
 9.5140	 7.4940
 9.5320	 7.8240
 9.5500	 7.6910
 9.5670	 7.8310
 9.5850	 7.5380
 9.6030	 7.5160
 9.6200	 7.2060
 9.6380	 7.5970
 9.6560	 7.5850
 9.6740	 7.6320
 9.6920	 7.4010
 9.7100	 7.5690
 9.7290	 7.3740
 9.7470	 7.3600
 9.7650	 7.2510
 9.7840	 7.4620
 9.8020	 7.2170
 9.8210	 7.3370
 9.8390	 7.1660
 9.8580	 7.3140
 9.8770	 7.1850
 9.8960	 7.2330
 9.9150	 7.1090
 9.9340	 7.2980
 9.9530	 7.1170
 9.9720	 7.0660
 9.9910	 6.6760
10.0100	 6.8450
10.0300	 6.6000
10.0490	 6.6010
10.0690	 6.4580
10.0880	 6.7860
10.1080	 6.6380
10.1280	 6.5970
10.1480	 6.3420
10.1670	 6.4550
10.1870	 6.2810
10.2070	 6.4990
10.2280	 6.2170
10.2480	 6.1010
10.2680	 5.7920
10.2890	 6.0470
10.3090	 5.9660
10.3300	 5.9140
10.3500	 5.5240
10.3710	 5.8440
10.3920	 5.9430
10.4120	 5.9700
10.4330	 5.7680
10.4540	 6.1660
10.4760	 5.9080
10.4970	 5.9570
10.5180	 6.0100
10.5390	 6.2770
10.5610	 5.8990
10.5820	 6.0680
10.6040	 5.8140
10.6260	 5.8220
10.6480	 5.7390
10.6700	 6.0160
10.6920	 5.5530
10.7140	 5.8490
10.7360	 5.8480
10.7580	 5.8520
10.7800	 5.7920
10.8030	 6.2050
10.8250	 5.9050
10.8480	 5.9510
10.8710	 5.7100
10.8940	 5.8500
10.9170	 5.6980
10.9400	 5.8940
10.9630	 5.8940
10.9860	 5.8260
11.0090	 5.5530
11.0330	 6.1530
11.0560	 5.8840
11.0800	 5.8800
11.1040	 6.0770
11.1270	 6.4810
11.1510	 6.0220
11.1750	 5.9390
11.2000	 5.8560
11.2240	 6.3600
11.2480	 6.0830
11.2730	 5.7300
11.2970	 5.7500
11.3220	 6.7270
11.3470	 6.1230
11.3720	 6.1780
11.3970	 6.2410
11.4220	 6.5290
11.4470	 6.5090
11.4720	 6.8340
11.4980	 6.4270
11.5230	 6.5570
11.5490	 6.4800
11.5750	 6.6090
11.6000	 6.4100
11.6260	 6.7260
11.6530	 6.5410
11.6790	 6.9410
11.7050	 6.7210
11.7320	 6.5230
11.7580	 6.0220
11.7850	 6.4500
11.8120	 6.8680
11.8390	 7.4530
11.8660	 6.9110
11.8930	 7.1320
11.9200	 7.4470
11.9480	 7.7230
11.9760	 7.1900
12.0030	 7.6270
12.0310	 7.7870
12.0590	 8.0690
12.0870	 7.9190
12.1150	 8.3360
12.1440	 8.1530
12.1720	 8.4430
12.2010	 8.1080
12.2300	 8.6080
12.2590	 8.7620
12.2880	 8.8780
12.3170	 8.4890
12.3460	 8.9390
12.3760	 9.0740
12.4050	 9.5770
12.4350	 9.4510
12.4650	 9.6200
12.4950	 9.3090
12.5250	 9.7660
12.5550	 9.6860
12.5860	 9.6650
12.6170	 9.3650
12.6470	 9.8870
12.6780	 9.5140
12.7090	 9.5760
12.7410	 9.1690
12.7720	 9.4420
12.8030	 9.4640
12.8350	 9.9040
12.8670	 9.5430
12.8990	 9.8740
12.9310	 9.6800
12.9640	10.0410
12.9960	 9.9200
13.0290	10.2990
13.0610	10.0000
13.0940	10.0980
13.1280	 9.7540
13.1610	10.0360
13.1940	 9.8940
13.2280	10.3160
13.2620	10.0520
13.2960	10.3410
13.3300	 9.9690
13.3640	10.3570
13.3990	10.1560
13.4340	10.5480
13.4690	 9.5800
13.5040	 9.6310
13.5390	 9.7660
13.5740	10.0560
13.6100	 9.8650
13.6460	10.3000
13.6820	 9.8970
13.7180	 9.9670
13.7540	 9.1950
13.7910	10.2550
13.8280	10.6310
13.8650	11.0820
13.9020	10.8980
13.9390	11.0650
13.9770	10.5820
14.0150	11.2410
14.0530	10.8450
14.0910	10.6260
14.1290	10.1020
14.1680	10.7650
14.2070	10.3340
14.2460	11.0640
14.2850	11.1640
14.3240	11.2410
14.3640	10.3030
14.4040	11.0800
14.4440	11.1220
14.4840	11.6850
14.5250	10.6820
14.5660	10.9520
14.6070	10.2970
14.6480	11.0710
14.6900	10.5130
14.7310	10.9860
14.7730	10.7010
14.8150	10.8650
14.8580	10.5310
14.9010	11.9650
14.9440	10.7540
14.9870	10.7280
15.0300	10.4280
15.0740	11.0940
15.1180	10.5880
15.1620	11.3990
15.2060	10.4320
15.2510	11.3290
15.2960	10.2540
15.3410	10.3110
15.3870	 9.8320
