Name: Ficus craterostoma
Type: vegetation
Class: Tree
Genus: Ficus
Species: craterostoma
Sample No.: JPL091
Owner: JPL
Wavelength Range: TIR
Origin: 34.1258; - 118.1156; WGS84
Collection Date: 2/2/2016
Description: Samples were collected at the Huntington Garden in San Marino California as part of a JPL Subcontract studying HyTES imagery. Samples were taken to JPL and processed within 48 hours of collection. The same leaves were processed in the Nicolet and then measured using the ASD.
Measurement: Hemispherical reflectance
First Column: X
Second Column: Y
X Units: Wavelength (micrometer)
Y Units: Reflectance (percentage)
First X Value: 2.501
Last X Value: 15.387
Number of X Values: 1737
Additional Information: 

 2.5010	 5.5730
 2.5030	 5.5570
 2.5040	 5.6080
 2.5050	 5.6040
 2.5060	 5.5960
 2.5070	 5.5750
 2.5090	 5.5820
 2.5100	 5.6080
 2.5110	 5.6150
 2.5120	 5.5210
 2.5140	 5.5190
 2.5150	 5.5070
 2.5160	 5.4950
 2.5170	 5.4530
 2.5180	 5.4660
 2.5200	 5.5240
 2.5210	 5.5780
 2.5220	 5.5790
 2.5230	 5.5650
 2.5250	 5.5290
 2.5260	 5.5690
 2.5270	 5.5450
 2.5280	 5.5560
 2.5300	 5.5640
 2.5310	 5.6010
 2.5320	 5.5030
 2.5330	 5.4850
 2.5340	 5.5290
 2.5360	 5.6130
 2.5370	 5.5790
 2.5380	 5.5350
 2.5390	 5.5700
 2.5410	 5.6180
 2.5420	 5.5320
 2.5430	 5.5340
 2.5440	 5.5710
 2.5460	 5.5810
 2.5470	 5.5820
 2.5480	 5.6000
 2.5490	 5.6000
 2.5510	 5.5930
 2.5520	 5.5330
 2.5530	 5.5350
 2.5540	 5.4780
 2.5560	 5.5420
 2.5570	 5.5950
 2.5580	 5.6390
 2.5590	 5.5810
 2.5610	 5.5680
 2.5620	 5.5510
 2.5630	 5.5940
 2.5650	 5.6170
 2.5660	 5.6440
 2.5670	 5.6420
 2.5680	 5.6010
 2.5700	 5.5910
 2.5710	 5.6390
 2.5720	 5.6560
 2.5730	 5.6780
 2.5750	 5.5940
 2.5760	 5.5530
 2.5770	 5.5340
 2.5790	 5.5820
 2.5800	 5.5780
 2.5810	 5.5960
 2.5820	 5.5630
 2.5840	 5.5570
 2.5850	 5.5600
 2.5860	 5.6420
 2.5880	 5.5770
 2.5890	 5.5000
 2.5900	 5.4920
 2.5910	 5.5400
 2.5930	 5.5420
 2.5940	 5.6140
 2.5950	 5.5850
 2.5970	 5.5670
 2.5980	 5.5100
 2.5990	 5.5390
 2.6010	 5.5090
 2.6020	 5.5130
 2.6030	 5.5090
 2.6040	 5.5190
 2.6060	 5.5180
 2.6070	 5.5330
 2.6080	 5.4650
 2.6100	 5.5150
 2.6110	 5.5450
 2.6120	 5.5370
 2.6140	 5.5110
 2.6150	 5.5060
 2.6160	 5.4480
 2.6180	 5.4770
 2.6190	 5.5180
 2.6200	 5.5660
 2.6220	 5.4930
 2.6230	 5.4610
 2.6240	 5.4680
 2.6260	 5.5270
 2.6270	 5.4300
 2.6280	 5.3970
 2.6300	 5.4350
 2.6310	 5.4260
 2.6320	 5.3890
 2.6340	 5.4280
 2.6350	 5.3680
 2.6360	 5.3830
 2.6380	 5.3860
 2.6390	 5.4250
 2.6400	 5.3860
 2.6420	 5.3490
 2.6430	 5.3420
 2.6440	 5.4340
 2.6460	 5.3920
 2.6470	 5.3800
 2.6480	 5.3530
 2.6500	 5.3330
 2.6510	 5.3260
 2.6520	 5.3060
 2.6540	 5.2770
 2.6550	 5.3180
 2.6570	 5.2920
 2.6580	 5.3010
 2.6590	 5.2640
 2.6610	 5.2910
 2.6620	 5.3290
 2.6630	 5.4140
 2.6650	 5.3630
 2.6660	 5.3210
 2.6670	 5.3380
 2.6690	 5.4230
 2.6700	 5.3580
 2.6720	 5.2620
 2.6730	 5.2640
 2.6740	 5.2980
 2.6760	 5.2710
 2.6770	 5.2650
 2.6780	 5.2310
 2.6800	 5.2430
 2.6810	 5.2430
 2.6830	 5.3030
 2.6840	 5.3030
 2.6850	 5.2790
 2.6870	 5.2480
 2.6880	 5.2610
 2.6900	 5.2500
 2.6910	 5.2960
 2.6920	 5.2320
 2.6940	 5.2320
 2.6950	 5.2520
 2.6970	 5.2940
 2.6980	 5.2970
 2.6990	 5.3090
 2.7010	 5.2540
 2.7020	 5.2460
 2.7040	 5.2470
 2.7050	 5.3130
 2.7060	 5.3160
 2.7080	 5.3490
 2.7090	 5.3000
 2.7110	 5.2630
 2.7120	 5.2130
 2.7130	 5.2560
 2.7150	 5.2610
 2.7160	 5.2930
 2.7180	 5.2470
 2.7190	 5.2620
 2.7210	 5.2840
 2.7220	 5.3130
 2.7230	 5.3010
 2.7250	 5.2870
 2.7260	 5.2160
 2.7280	 5.2740
 2.7290	 5.2930
 2.7310	 5.2890
 2.7320	 5.2740
 2.7340	 5.2810
 2.7350	 5.2520
 2.7360	 5.2590
 2.7380	 5.2280
 2.7390	 5.2750
 2.7410	 5.2130
 2.7420	 5.1950
 2.7440	 5.2430
 2.7450	 5.3930
 2.7470	 5.3900
 2.7480	 5.3420
 2.7490	 5.2950
 2.7510	 5.3320
 2.7520	 5.3040
 2.7540	 5.2830
 2.7550	 5.2490
 2.7570	 5.3150
 2.7580	 5.3430
 2.7600	 5.3600
 2.7610	 5.3340
 2.7630	 5.3710
 2.7640	 5.3040
 2.7660	 5.2710
 2.7670	 5.3040
 2.7690	 5.3400
 2.7700	 5.2590
 2.7720	 5.2860
 2.7730	 5.3160
 2.7740	 5.3140
 2.7760	 5.2520
 2.7770	 5.2320
 2.7790	 5.2240
 2.7800	 5.2630
 2.7820	 5.2630
 2.7830	 5.2940
 2.7850	 5.1800
 2.7860	 5.1720
 2.7880	 5.2260
 2.7890	 5.2440
 2.7910	 5.2200
 2.7920	 5.2300
 2.7940	 5.2180
 2.7950	 5.2950
 2.7970	 5.2250
 2.7980	 5.2180
 2.8000	 5.2410
 2.8010	 5.2770
 2.8030	 5.1950
 2.8040	 5.2260
 2.8060	 5.2360
 2.8080	 5.2880
 2.8090	 5.2770
 2.8110	 5.2770
 2.8120	 5.2640
 2.8140	 5.3340
 2.8150	 5.2900
 2.8170	 5.2420
 2.8180	 5.2270
 2.8200	 5.2660
 2.8210	 5.2730
 2.8230	 5.3030
 2.8240	 5.3180
 2.8260	 5.3620
 2.8270	 5.2670
 2.8290	 5.2580
 2.8310	 5.2640
 2.8320	 5.3270
 2.8340	 5.3010
 2.8350	 5.2960
 2.8370	 5.2320
 2.8380	 5.2460
 2.8400	 5.2430
 2.8410	 5.3080
 2.8430	 5.2690
 2.8440	 5.2630
 2.8460	 5.2260
 2.8480	 5.2580
 2.8490	 5.2130
 2.8510	 5.2850
 2.8520	 5.3170
 2.8540	 5.3270
 2.8550	 5.2360
 2.8570	 5.2230
 2.8590	 5.2240
 2.8600	 5.2330
 2.8620	 5.1770
 2.8630	 5.1640
 2.8650	 5.1700
 2.8660	 5.2660
 2.8680	 5.2910
 2.8700	 5.3060
 2.8710	 5.2610
 2.8730	 5.2770
 2.8740	 5.2910
 2.8760	 5.3300
 2.8780	 5.2690
 2.8790	 5.2700
 2.8810	 5.2700
 2.8820	 5.3430
 2.8840	 5.3290
 2.8860	 5.3230
 2.8870	 5.2980
 2.8890	 5.3240
 2.8900	 5.2410
 2.8920	 5.2410
 2.8940	 5.2550
 2.8950	 5.2530
 2.8970	 5.2450
 2.8990	 5.2480
 2.9000	 5.1720
 2.9020	 5.1690
 2.9030	 5.2410
 2.9050	 5.3250
 2.9070	 5.3110
 2.9080	 5.3570
 2.9100	 5.2910
 2.9120	 5.2990
 2.9130	 5.3080
 2.9150	 5.3190
 2.9160	 5.2660
 2.9180	 5.3170
 2.9200	 5.3320
 2.9210	 5.3670
 2.9230	 5.4020
 2.9250	 5.3840
 2.9260	 5.3340
 2.9280	 5.3710
 2.9300	 5.3340
 2.9310	 5.2890
 2.9330	 5.2420
 2.9350	 5.3070
 2.9360	 5.3480
 2.9380	 5.3300
 2.9400	 5.3020
 2.9410	 5.3630
 2.9430	 5.3570
 2.9450	 5.3970
 2.9460	 5.3770
 2.9480	 5.3810
 2.9500	 5.3450
 2.9510	 5.3910
 2.9530	 5.4250
 2.9550	 5.4050
 2.9560	 5.3110
 2.9580	 5.2670
 2.9600	 5.2560
 2.9610	 5.3050
 2.9630	 5.3010
 2.9650	 5.3390
 2.9670	 5.3180
 2.9680	 5.3240
 2.9700	 5.3410
 2.9720	 5.3210
 2.9730	 5.2320
 2.9750	 5.2440
 2.9770	 5.2930
 2.9780	 5.3740
 2.9800	 5.2860
 2.9820	 5.2880
 2.9840	 5.2760
 2.9850	 5.2910
 2.9870	 5.2820
 2.9890	 5.3360
 2.9900	 5.3370
 2.9920	 5.3460
 2.9940	 5.2790
 2.9960	 5.3030
 2.9970	 5.3190
 2.9990	 5.3660
 3.0010	 5.3570
 3.0030	 5.3790
 3.0040	 5.3610
 3.0060	 5.3850
 3.0080	 5.3450
 3.0100	 5.3600
 3.0110	 5.3630
 3.0130	 5.3970
 3.0150	 5.3770
 3.0170	 5.4040
 3.0180	 5.3400
 3.0200	 5.3390
 3.0220	 5.3030
 3.0240	 5.3120
 3.0250	 5.3220
 3.0270	 5.4060
 3.0290	 5.3520
 3.0310	 5.3110
 3.0320	 5.3050
 3.0340	 5.3140
 3.0360	 5.2750
 3.0380	 5.3020
 3.0400	 5.3300
 3.0410	 5.3930
 3.0430	 5.3740
 3.0450	 5.3590
 3.0470	 5.3160
 3.0480	 5.3670
 3.0500	 5.3330
 3.0520	 5.2960
 3.0540	 5.3100
 3.0560	 5.4060
 3.0570	 5.3990
 3.0590	 5.3840
 3.0610	 5.3530
 3.0630	 5.3600
 3.0650	 5.3300
 3.0670	 5.3480
 3.0680	 5.3230
 3.0700	 5.3180
 3.0720	 5.3400
 3.0740	 5.3570
 3.0760	 5.3010
 3.0770	 5.3550
 3.0790	 5.3240
 3.0810	 5.3060
 3.0830	 5.2830
 3.0850	 5.2920
 3.0870	 5.2900
 3.0880	 5.2860
 3.0900	 5.2970
 3.0920	 5.3660
 3.0940	 5.3470
 3.0960	 5.2990
 3.0980	 5.2550
 3.1000	 5.3370
 3.1010	 5.3160
 3.1030	 5.3300
 3.1050	 5.3350
 3.1070	 5.3440
 3.1090	 5.3130
 3.1110	 5.3330
 3.1130	 5.3440
 3.1140	 5.3420
 3.1160	 5.3060
 3.1180	 5.3090
 3.1200	 5.3260
 3.1220	 5.3680
 3.1240	 5.3240
 3.1260	 5.2780
 3.1280	 5.2730
 3.1290	 5.3040
 3.1310	 5.2400
 3.1330	 5.2360
 3.1350	 5.2330
 3.1370	 5.2990
 3.1390	 5.3040
 3.1410	 5.3010
 3.1430	 5.2730
 3.1450	 5.3270
 3.1470	 5.3170
 3.1480	 5.3500
 3.1500	 5.3270
 3.1520	 5.3300
 3.1540	 5.3080
 3.1560	 5.3260
 3.1580	 5.2690
 3.1600	 5.2540
 3.1620	 5.2310
 3.1640	 5.2660
 3.1660	 5.2270
 3.1680	 5.2450
 3.1700	 5.2740
 3.1720	 5.2720
 3.1730	 5.2580
 3.1750	 5.3100
 3.1770	 5.2680
 3.1790	 5.2740
 3.1810	 5.2260
 3.1830	 5.2000
 3.1850	 5.1910
 3.1870	 5.2340
 3.1890	 5.2220
 3.1910	 5.2520
 3.1930	 5.2490
 3.1950	 5.2690
 3.1970	 5.2500
 3.1990	 5.2850
 3.2010	 5.2920
 3.2030	 5.3000
 3.2050	 5.2820
 3.2070	 5.3010
 3.2090	 5.2390
 3.2110	 5.2500
 3.2130	 5.2260
 3.2150	 5.2120
 3.2170	 5.2100
 3.2190	 5.2460
 3.2210	 5.2260
 3.2230	 5.2470
 3.2250	 5.2170
 3.2270	 5.2650
 3.2290	 5.2640
 3.2310	 5.2430
 3.2330	 5.2470
 3.2350	 5.2060
 3.2370	 5.1720
 3.2390	 5.2450
 3.2410	 5.1930
 3.2430	 5.1530
 3.2450	 5.1350
 3.2470	 5.1550
 3.2490	 5.1420
 3.2510	 5.1830
 3.2530	 5.2090
 3.2550	 5.2470
 3.2570	 5.2080
 3.2590	 5.1980
 3.2610	 5.1550
 3.2630	 5.2070
 3.2650	 5.2040
 3.2670	 5.1850
 3.2700	 5.1480
 3.2720	 5.0940
 3.2740	 5.0800
 3.2760	 5.1520
 3.2780	 5.1670
 3.2800	 5.1670
 3.2820	 5.1530
 3.2840	 5.1930
 3.2860	 5.1660
 3.2880	 5.1800
 3.2900	 5.1680
 3.2920	 5.1960
 3.2940	 5.1820
 3.2970	 5.1790
 3.2990	 5.1650
 3.3010	 5.1530
 3.3030	 5.1100
 3.3050	 5.0950
 3.3070	 5.0790
 3.3090	 5.1100
 3.3110	 5.0940
 3.3130	 5.0590
 3.3160	 5.0360
 3.3180	 5.0890
 3.3200	 5.0650
 3.3220	 5.0460
 3.3240	 5.0220
 3.3260	 5.0330
 3.3280	 5.0070
 3.3300	 5.0230
 3.3330	 5.0280
 3.3350	 5.0310
 3.3370	 4.9920
 3.3390	 4.9710
 3.3410	 4.9820
 3.3430	 5.0230
 3.3450	 4.9930
 3.3480	 4.9560
 3.3500	 4.9140
 3.3520	 4.9220
 3.3540	 4.9150
 3.3560	 4.9440
 3.3580	 4.9440
 3.3610	 4.9240
 3.3630	 4.8860
 3.3650	 4.9010
 3.3670	 4.8420
 3.3690	 4.8110
 3.3720	 4.7940
 3.3740	 4.8620
 3.3760	 4.8920
 3.3780	 4.8800
 3.3800	 4.8490
 3.3830	 4.8360
 3.3850	 4.7730
 3.3870	 4.7790
 3.3890	 4.7720
 3.3910	 4.7500
 3.3940	 4.7250
 3.3960	 4.7780
 3.3980	 4.7490
 3.4000	 4.7390
 3.4030	 4.7120
 3.4050	 4.7670
 3.4070	 4.8010
 3.4090	 4.8520
 3.4110	 4.9630
 3.4140	 5.1530
 3.4160	 5.2900
 3.4180	 5.5700
 3.4200	 5.9440
 3.4230	 6.3640
 3.4250	 6.7730
 3.4270	 7.3060
 3.4300	 7.6100
 3.4320	 7.4830
 3.4340	 7.0200
 3.4360	 6.6140
 3.4390	 6.3640
 3.4410	 6.2410
 3.4430	 6.1520
 3.4450	 6.0570
 3.4480	 5.9570
 3.4500	 5.9540
 3.4520	 5.9590
 3.4550	 5.9380
 3.4570	 5.8740
 3.4590	 5.8530
 3.4620	 5.8190
 3.4640	 5.8160
 3.4660	 5.7500
 3.4690	 5.7060
 3.4710	 5.6470
 3.4730	 5.5970
 3.4760	 5.5570
 3.4780	 5.5640
 3.4800	 5.4530
 3.4830	 5.4310
 3.4850	 5.4380
 3.4870	 5.4030
 3.4900	 5.3440
 3.4920	 5.3410
 3.4940	 5.2910
 3.4970	 5.2800
 3.4990	 5.3110
 3.5010	 5.3970
 3.5040	 5.5550
 3.5060	 5.9830
 3.5080	 6.6440
 3.5110	 7.2590
 3.5130	 7.2570
 3.5160	 6.8460
 3.5180	 6.4700
 3.5200	 6.2720
 3.5230	 6.1180
 3.5250	 6.0540
 3.5280	 5.9650
 3.5300	 5.9140
 3.5320	 5.8810
 3.5350	 5.8670
 3.5370	 5.8360
 3.5400	 5.8120
 3.5420	 5.7580
 3.5440	 5.7260
 3.5470	 5.7130
 3.5490	 5.7280
 3.5520	 5.6980
 3.5540	 5.6950
 3.5570	 5.6830
 3.5590	 5.6920
 3.5610	 5.6880
 3.5640	 5.6820
 3.5660	 5.6450
 3.5690	 5.6120
 3.5710	 5.5400
 3.5740	 5.5630
 3.5760	 5.6050
 3.5790	 5.5940
 3.5810	 5.5610
 3.5840	 5.6200
 3.5860	 5.6260
 3.5890	 5.6030
 3.5910	 5.5850
 3.5940	 5.6130
 3.5960	 5.5830
 3.5990	 5.5330
 3.6010	 5.5030
 3.6040	 5.5330
 3.6060	 5.5290
 3.6090	 5.5360
 3.6110	 5.5150
 3.6140	 5.5570
 3.6160	 5.5260
 3.6190	 5.4820
 3.6210	 5.4800
 3.6240	 5.5210
 3.6260	 5.5500
 3.6290	 5.5860
 3.6310	 5.5400
 3.6340	 5.5140
 3.6360	 5.4920
 3.6390	 5.4960
 3.6410	 5.4860
 3.6440	 5.5160
 3.6470	 5.5150
 3.6490	 5.5150
 3.6520	 5.4930
 3.6540	 5.4840
 3.6570	 5.4670
 3.6590	 5.4890
 3.6620	 5.5080
 3.6650	 5.5350
 3.6670	 5.5390
 3.6700	 5.5710
 3.6720	 5.5290
 3.6750	 5.5140
 3.6780	 5.5210
 3.6800	 5.5320
 3.6830	 5.5110
 3.6850	 5.4830
 3.6880	 5.4670
 3.6910	 5.5030
 3.6930	 5.5130
 3.6960	 5.5130
 3.6990	 5.4850
 3.7010	 5.4590
 3.7040	 5.4740
 3.7070	 5.5100
 3.7090	 5.4840
 3.7120	 5.5030
 3.7150	 5.5130
 3.7170	 5.5250
 3.7200	 5.5330
 3.7230	 5.5160
 3.7250	 5.4840
 3.7280	 5.4910
 3.7310	 5.4630
 3.7330	 5.4630
 3.7360	 5.4720
 3.7390	 5.4690
 3.7410	 5.4640
 3.7440	 5.4840
 3.7470	 5.4580
 3.7490	 5.4390
 3.7520	 5.4200
 3.7550	 5.4650
 3.7580	 5.5200
 3.7600	 5.4900
 3.7630	 5.4380
 3.7660	 5.4710
 3.7690	 5.4940
 3.7710	 5.5000
 3.7740	 5.4850
 3.7770	 5.5040
 3.7790	 5.5250
 3.7820	 5.5350
 3.7850	 5.4530
 3.7880	 5.4490
 3.7910	 5.5080
 3.7930	 5.5380
 3.7960	 5.5140
 3.7990	 5.4950
 3.8020	 5.4700
 3.8040	 5.4930
 3.8070	 5.4940
 3.8100	 5.5400
 3.8130	 5.5270
 3.8160	 5.5170
 3.8180	 5.5260
 3.8210	 5.4990
 3.8240	 5.4610
 3.8270	 5.4670
 3.8300	 5.4470
 3.8330	 5.4670
 3.8350	 5.4630
 3.8380	 5.4930
 3.8410	 5.4880
 3.8440	 5.4670
 3.8470	 5.4700
 3.8500	 5.4760
 3.8520	 5.4830
 3.8550	 5.5070
 3.8580	 5.4740
 3.8610	 5.4720
 3.8640	 5.4800
 3.8670	 5.4710
 3.8700	 5.4840
 3.8730	 5.5020
 3.8760	 5.4940
 3.8780	 5.4940
 3.8810	 5.4660
 3.8840	 5.4490
 3.8870	 5.4750
 3.8900	 5.5140
 3.8930	 5.5110
 3.8960	 5.5030
 3.8990	 5.4900
 3.9020	 5.4960
 3.9050	 5.4480
 3.9080	 5.4510
 3.9110	 5.5060
 3.9140	 5.5080
 3.9170	 5.5020
 3.9190	 5.5130
 3.9220	 5.4700
 3.9250	 5.4580
 3.9280	 5.4630
 3.9310	 5.4540
 3.9340	 5.4280
 3.9370	 5.4590
 3.9400	 5.4780
 3.9430	 5.4970
 3.9460	 5.4820
 3.9490	 5.4840
 3.9520	 5.4810
 3.9550	 5.4970
 3.9580	 5.4990
 3.9610	 5.4910
 3.9640	 5.4860
 3.9670	 5.4820
 3.9700	 5.4850
 3.9740	 5.5220
 3.9770	 5.4670
 3.9800	 5.4440
 3.9830	 5.4620
 3.9860	 5.4870
 3.9890	 5.4760
 3.9920	 5.4680
 3.9950	 5.4610
 3.9980	 5.4750
 4.0010	 5.4780
 4.0040	 5.4550
 4.0070	 5.4120
 4.0100	 5.4240
 4.0140	 5.4590
 4.0170	 5.4890
 4.0200	 5.4650
 4.0230	 5.4700
 4.0260	 5.4630
 4.0290	 5.4380
 4.0320	 5.4250
 4.0350	 5.4280
 4.0390	 5.4140
 4.0420	 5.4200
 4.0450	 5.4410
 4.0480	 5.4770
 4.0510	 5.4770
 4.0540	 5.4840
 4.0570	 5.4860
 4.0610	 5.4770
 4.0640	 5.4610
 4.0670	 5.4870
 4.0700	 5.4790
 4.0730	 5.4560
 4.0770	 5.4540
 4.0800	 5.4110
 4.0830	 5.3730
 4.0860	 5.4200
 4.0890	 5.4380
 4.0930	 5.4400
 4.0960	 5.4190
 4.0990	 5.4680
 4.1020	 5.4600
 4.1060	 5.4060
 4.1090	 5.4190
 4.1120	 5.4360
 4.1150	 5.3970
 4.1190	 5.4040
 4.1220	 5.4570
 4.1250	 5.4670
 4.1290	 5.4470
 4.1320	 5.4670
 4.1350	 5.4290
 4.1380	 5.4330
 4.1420	 5.4770
 4.1450	 5.4780
 4.1480	 5.4520
 4.1520	 5.4700
 4.1550	 5.4280
 4.1580	 5.4240
 4.1620	 5.4720
 4.1650	 5.4840
 4.1680	 5.4370
 4.1720	 5.4360
 4.1750	 5.4540
 4.1780	 5.4750
 4.1820	 5.4500
 4.1850	 5.4610
 4.1890	 5.4600
 4.1920	 5.4560
 4.1950	 5.4610
 4.1990	 5.5240
 4.2020	 5.5690
 4.2060	 5.5300
 4.2090	 5.4840
 4.2120	 5.5730
 4.2160	 5.6440
 4.2190	 5.6360
 4.2230	 5.6200
 4.2260	 5.6020
 4.2300	 5.5750
 4.2330	 5.6060
 4.2360	 5.5540
 4.2400	 5.5230
 4.2430	 5.5230
 4.2470	 5.4970
 4.2500	 5.5330
 4.2540	 5.5170
 4.2570	 5.5080
 4.2610	 5.6250
 4.2640	 5.6590
 4.2680	 5.6230
 4.2710	 5.6250
 4.2750	 5.5960
 4.2780	 5.5050
 4.2820	 5.5130
 4.2850	 5.5210
 4.2890	 5.5540
 4.2930	 5.5910
 4.2960	 5.5660
 4.3000	 5.5240
 4.3030	 5.4740
 4.3070	 5.5510
 4.3100	 5.6080
 4.3140	 5.5390
 4.3180	 5.5120
 4.3210	 5.5120
 4.3250	 5.5180
 4.3280	 5.4940
 4.3320	 5.4940
 4.3360	 5.4940
 4.3390	 5.4520
 4.3430	 5.4300
 4.3470	 5.4350
 4.3500	 5.4450
 4.3540	 5.4240
 4.3580	 5.4010
 4.3610	 5.4400
 4.3650	 5.4660
 4.3690	 5.4290
 4.3720	 5.3890
 4.3760	 5.3950
 4.3800	 5.4080
 4.3830	 5.4400
 4.3870	 5.4470
 4.3910	 5.4810
 4.3940	 5.4850
 4.3980	 5.4630
 4.4020	 5.4270
 4.4060	 5.4090
 4.4090	 5.4570
 4.4130	 5.4840
 4.4170	 5.4370
 4.4210	 5.4080
 4.4240	 5.4320
 4.4280	 5.4370
 4.4320	 5.4290
 4.4360	 5.4400
 4.4400	 5.4340
 4.4430	 5.4040
 4.4470	 5.4030
 4.4510	 5.4200
 4.4550	 5.4340
 4.4590	 5.4510
 4.4630	 5.4560
 4.4660	 5.4350
 4.4700	 5.4260
 4.4740	 5.4360
 4.4780	 5.4200
 4.4820	 5.4140
 4.4860	 5.4040
 4.4900	 5.4180
 4.4930	 5.4200
 4.4970	 5.4190
 4.5010	 5.4170
 4.5050	 5.3900
 4.5090	 5.3740
 4.5130	 5.3660
 4.5170	 5.4090
 4.5210	 5.4260
 4.5250	 5.4310
 4.5290	 5.4260
 4.5330	 5.3990
 4.5370	 5.3880
 4.5410	 5.3930
 4.5450	 5.4110
 4.5490	 5.4120
 4.5530	 5.4110
 4.5570	 5.4220
 4.5610	 5.4150
 4.5650	 5.3790
 4.5690	 5.3790
 4.5730	 5.4140
 4.5770	 5.4280
 4.5810	 5.4170
 4.5850	 5.4250
 4.5890	 5.4330
 4.5930	 5.4400
 4.5970	 5.4500
 4.6010	 5.4100
 4.6050	 5.3930
 4.6090	 5.3760
 4.6130	 5.3710
 4.6170	 5.3980
 4.6220	 5.4160
 4.6260	 5.4160
 4.6300	 5.4040
 4.6340	 5.4020
 4.6380	 5.3840
 4.6420	 5.3940
 4.6460	 5.4140
 4.6510	 5.4060
 4.6550	 5.3930
 4.6590	 5.3700
 4.6630	 5.3560
 4.6670	 5.3550
 4.6720	 5.3700
 4.6760	 5.3830
 4.6800	 5.4160
 4.6840	 5.3900
 4.6880	 5.3650
 4.6930	 5.3970
 4.6970	 5.4140
 4.7010	 5.4040
 4.7050	 5.3920
 4.7100	 5.3730
 4.7140	 5.3740
 4.7180	 5.3760
 4.7230	 5.3900
 4.7270	 5.3800
 4.7310	 5.3580
 4.7360	 5.3660
 4.7400	 5.3850
 4.7440	 5.3890
 4.7490	 5.3720
 4.7530	 5.3680
 4.7570	 5.3830
 4.7620	 5.3930
 4.7660	 5.4030
 4.7700	 5.4200
 4.7750	 5.4200
 4.7790	 5.3910
 4.7840	 5.3560
 4.7880	 5.3380
 4.7920	 5.3750
 4.7970	 5.4010
 4.8010	 5.3990
 4.8060	 5.3980
 4.8100	 5.4070
 4.8150	 5.3900
 4.8190	 5.3880
 4.8240	 5.4030
 4.8280	 5.4000
 4.8330	 5.3660
 4.8370	 5.3490
 4.8420	 5.3680
 4.8460	 5.4090
 4.8510	 5.3980
 4.8550	 5.3890
 4.8600	 5.4040
 4.8640	 5.4010
 4.8690	 5.3620
 4.8740	 5.3860
 4.8780	 5.3970
 4.8830	 5.3880
 4.8870	 5.4050
 4.8920	 5.4080
 4.8970	 5.3940
 4.9010	 5.3810
 4.9060	 5.3740
 4.9100	 5.4100
 4.9150	 5.4280
 4.9200	 5.4410
 4.9240	 5.4230
 4.9290	 5.4100
 4.9340	 5.4080
 4.9390	 5.4240
 4.9430	 5.3920
 4.9480	 5.3580
 4.9530	 5.3460
 4.9570	 5.3860
 4.9620	 5.3980
 4.9670	 5.3840
 4.9720	 5.3720
 4.9760	 5.4080
 4.9810	 5.4170
 4.9860	 5.4060
 4.9910	 5.3890
 4.9960	 5.4020
 5.0000	 5.4160
 5.0050	 5.4180
 5.0100	 5.4120
 5.0150	 5.4010
 5.0200	 5.3620
 5.0250	 5.3770
 5.0300	 5.3850
 5.0340	 5.3860
 5.0390	 5.3990
 5.0440	 5.3990
 5.0490	 5.3540
 5.0540	 5.3570
 5.0590	 5.3760
 5.0640	 5.3820
 5.0690	 5.3710
 5.0740	 5.3910
 5.0790	 5.3650
 5.0840	 5.3440
 5.0890	 5.3560
 5.0940	 5.4090
 5.0990	 5.4250
 5.1040	 5.4170
 5.1090	 5.4010
 5.1140	 5.3620
 5.1190	 5.3330
 5.1240	 5.3660
 5.1290	 5.3730
 5.1340	 5.4060
 5.1390	 5.4060
 5.1440	 5.4010
 5.1490	 5.3970
 5.1550	 5.4300
 5.1600	 5.4160
 5.1650	 5.4120
 5.1700	 5.3920
 5.1750	 5.3710
 5.1800	 5.3510
 5.1850	 5.3770
 5.1910	 5.3890
 5.1960	 5.3850
 5.2010	 5.3840
 5.2060	 5.3910
 5.2110	 5.3330
 5.2170	 5.3190
 5.2220	 5.3600
 5.2270	 5.3770
 5.2330	 5.3390
 5.2380	 5.3340
 5.2430	 5.3660
 5.2480	 5.3910
 5.2540	 5.3720
 5.2590	 5.3870
 5.2640	 5.3760
 5.2700	 5.3830
 5.2750	 5.3640
 5.2800	 5.3490
 5.2860	 5.3410
 5.2910	 5.3530
 5.2970	 5.3100
 5.3020	 5.3160
 5.3080	 5.3330
 5.3130	 5.3620
 5.3180	 5.3340
 5.3240	 5.3350
 5.3290	 5.3580
 5.3350	 5.3700
 5.3400	 5.3710
 5.3460	 5.3890
 5.3510	 5.3500
 5.3570	 5.3480
 5.3620	 5.2970
 5.3680	 5.2640
 5.3740	 5.2870
 5.3790	 5.3490
 5.3850	 5.3450
 5.3900	 5.3390
 5.3960	 5.3450
 5.4010	 5.3380
 5.4070	 5.2790
 5.4130	 5.2750
 5.4180	 5.2770
 5.4240	 5.2970
 5.4300	 5.2700
 5.4350	 5.2980
 5.4410	 5.2990
 5.4470	 5.2740
 5.4530	 5.2490
 5.4580	 5.2840
 5.4640	 5.2800
 5.4700	 5.2990
 5.4760	 5.3010
 5.4810	 5.3170
 5.4870	 5.2930
 5.4930	 5.2830
 5.4990	 5.2750
 5.5050	 5.3110
 5.5110	 5.3130
 5.5160	 5.3140
 5.5220	 5.2610
 5.5280	 5.2460
 5.5340	 5.2640
 5.5400	 5.3010
 5.5460	 5.2620
 5.5520	 5.2640
 5.5580	 5.2430
 5.5640	 5.2600
 5.5700	 5.2310
 5.5760	 5.2320
 5.5820	 5.2460
 5.5880	 5.2560
 5.5940	 5.2320
 5.6000	 5.2160
 5.6060	 5.1770
 5.6120	 5.1900
 5.6180	 5.1750
 5.6240	 5.1900
 5.6300	 5.1840
 5.6360	 5.2100
 5.6420	 5.1840
 5.6490	 5.1790
 5.6550	 5.1540
 5.6610	 5.1520
 5.6670	 5.1260
 5.6730	 5.0940
 5.6800	 5.0450
 5.6860	 5.0660
 5.6920	 5.0450
 5.6980	 5.0240
 5.7050	 4.9600
 5.7110	 4.9360
 5.7170	 4.8960
 5.7230	 4.8420
 5.7300	 4.8100
 5.7360	 4.7990
 5.7420	 4.7430
 5.7490	 4.7240
 5.7550	 4.7310
 5.7620	 4.8190
 5.7680	 4.8650
 5.7740	 4.9300
 5.7810	 5.0250
 5.7870	 5.1740
 5.7940	 5.2230
 5.8000	 5.2810
 5.8070	 5.3030
 5.8130	 5.3370
 5.8200	 5.3170
 5.8260	 5.3410
 5.8330	 5.3530
 5.8390	 5.3900
 5.8460	 5.4190
 5.8530	 5.4630
 5.8590	 5.4560
 5.8660	 5.4920
 5.8730	 5.5470
 5.8790	 5.5880
 5.8860	 5.5270
 5.8930	 5.5630
 5.8990	 5.5790
 5.9060	 5.6380
 5.9130	 5.6660
 5.9190	 5.6950
 5.9260	 5.6860
 5.9330	 5.6930
 5.9400	 5.6630
 5.9470	 5.7180
 5.9530	 5.6910
 5.9600	 5.7080
 5.9670	 5.6850
 5.9740	 5.6850
 5.9810	 5.6670
 5.9880	 5.6570
 5.9950	 5.6400
 6.0020	 5.6290
 6.0090	 5.6020
 6.0160	 5.6430
 6.0230	 5.6420
 6.0300	 5.6580
 6.0370	 5.6660
 6.0440	 5.6360
 6.0510	 5.5460
 6.0580	 5.6260
 6.0650	 5.6040
 6.0720	 5.5500
 6.0790	 5.5170
 6.0860	 5.5540
 6.0930	 5.5690
 6.1010	 5.5990
 6.1080	 5.5280
 6.1150	 5.4730
 6.1220	 5.4370
 6.1290	 5.4740
 6.1370	 5.4220
 6.1440	 5.4440
 6.1510	 5.4590
 6.1580	 5.4720
 6.1660	 5.3900
 6.1730	 5.4330
 6.1800	 5.4710
 6.1880	 5.5030
 6.1950	 5.5220
 6.2030	 5.5680
 6.2100	 5.5440
 6.2180	 5.5830
 6.2250	 5.5690
 6.2320	 5.6270
 6.2400	 5.6510
 6.2480	 5.7010
 6.2550	 5.7020
 6.2630	 5.6930
 6.2700	 5.6740
 6.2780	 5.7260
 6.2850	 5.6890
 6.2930	 5.6880
 6.3010	 5.6990
 6.3080	 5.7410
 6.3160	 5.7220
 6.3240	 5.7340
 6.3310	 5.6940
 6.3390	 5.7320
 6.3470	 5.7020
 6.3550	 5.6990
 6.3620	 5.6700
 6.3700	 5.6770
 6.3780	 5.6430
 6.3860	 5.6780
 6.3940	 5.6600
 6.4020	 5.6870
 6.4100	 5.6530
 6.4180	 5.6500
 6.4260	 5.6170
 6.4340	 5.6620
 6.4420	 5.6260
 6.4500	 5.6190
 6.4580	 5.5610
 6.4660	 5.5570
 6.4740	 5.5240
 6.4820	 5.5380
 6.4900	 5.5190
 6.4980	 5.5640
 6.5060	 5.5290
 6.5140	 5.5720
 6.5230	 5.5340
 6.5310	 5.5070
 6.5390	 5.4970
 6.5470	 5.5310
 6.5560	 5.4890
 6.5640	 5.5090
 6.5720	 5.4770
 6.5800	 5.4760
 6.5890	 5.4520
 6.5970	 5.4730
 6.6060	 5.4380
 6.6140	 5.4380
 6.6230	 5.3940
 6.6310	 5.4200
 6.6390	 5.3830
 6.6480	 5.3990
 6.6570	 5.3940
 6.6650	 5.3990
 6.6740	 5.3710
 6.6820	 5.3910
 6.6910	 5.3170
 6.7000	 5.3110
 6.7080	 5.2810
 6.7170	 5.2810
 6.7260	 5.2150
 6.7340	 5.2340
 6.7430	 5.2140
 6.7520	 5.2220
 6.7610	 5.1880
 6.7690	 5.1700
 6.7780	 5.1860
 6.7870	 5.3600
 6.7960	 5.3140
 6.8050	 5.1770
 6.8140	 5.1170
 6.8230	 5.2320
 6.8320	 5.3770
 6.8410	 5.5170
 6.8500	 5.4560
 6.8590	 5.4180
 6.8680	 5.3600
 6.8770	 5.4670
 6.8860	 5.4870
 6.8960	 5.4710
 6.9050	 5.4580
 6.9140	 5.4820
 6.9230	 5.4490
 6.9320	 5.4790
 6.9420	 5.4720
 6.9510	 5.5410
 6.9600	 5.5030
 6.9700	 5.5310
 6.9790	 5.5260
 6.9880	 5.5610
 6.9980	 5.5220
 7.0070	 5.5590
 7.0170	 5.5490
 7.0260	 5.5540
 7.0360	 5.5090
 7.0450	 5.5210
 7.0550	 5.4820
 7.0650	 5.5850
 7.0740	 5.5700
 7.0840	 5.5370
 7.0940	 5.4830
 7.1030	 5.4810
 7.1130	 5.4530
 7.1230	 5.4950
 7.1330	 5.4130
 7.1420	 5.4360
 7.1520	 5.3830
 7.1620	 5.3900
 7.1720	 5.3710
 7.1820	 5.3940
 7.1920	 5.3270
 7.2020	 5.3630
 7.2120	 5.3270
 7.2220	 5.3650
 7.2320	 5.3500
 7.2420	 5.4190
 7.2520	 5.4750
 7.2620	 5.5490
 7.2730	 5.4890
 7.2830	 5.4660
 7.2930	 5.4140
 7.3030	 5.4440
 7.3140	 5.4340
 7.3240	 5.4660
 7.3340	 5.4400
 7.3450	 5.4870
 7.3550	 5.4450
 7.3660	 5.4450
 7.3760	 5.4520
 7.3870	 5.4570
 7.3970	 5.4000
 7.4080	 5.4380
 7.4180	 5.3740
 7.4290	 5.3810
 7.4400	 5.3670
 7.4500	 5.4560
 7.4610	 5.4300
 7.4720	 5.4090
 7.4830	 5.3460
 7.4930	 5.3830
 7.5040	 5.3710
 7.5150	 5.4210
 7.5260	 5.3590
 7.5370	 5.3800
 7.5480	 5.3620
 7.5590	 5.3870
 7.5700	 5.3340
 7.5810	 5.3870
 7.5920	 5.3550
 7.6030	 5.3630
 7.6140	 5.3350
 7.6260	 5.3800
 7.6370	 5.3420
 7.6480	 5.3880
 7.6590	 5.3290
 7.6710	 5.3330
 7.6820	 5.3380
 7.6940	 5.4180
 7.7050	 5.3810
 7.7160	 5.4110
 7.7280	 5.3440
 7.7390	 5.3790
 7.7510	 5.3330
 7.7630	 5.3610
 7.7740	 5.3430
 7.7860	 5.4110
 7.7980	 5.3910
 7.8090	 5.3930
 7.8210	 5.3250
 7.8330	 5.3440
 7.8450	 5.3440
 7.8570	 5.3850
 7.8690	 5.3270
 7.8810	 5.3600
 7.8930	 5.3390
 7.9050	 5.3990
 7.9170	 5.3440
 7.9290	 5.3490
 7.9410	 5.3370
 7.9530	 5.4240
 7.9650	 5.3990
 7.9780	 5.4710
 7.9900	 5.4610
 8.0020	 5.4950
 8.0150	 5.4600
 8.0270	 5.5300
 8.0390	 5.5350
 8.0520	 5.5780
 8.0640	 5.5270
 8.0770	 5.6120
 8.0900	 5.5740
 8.1020	 5.6270
 8.1150	 5.5690
 8.1280	 5.5760
 8.1400	 5.5020
 8.1530	 5.5460
 8.1660	 5.5530
 8.1790	 5.7080
 8.1920	 5.6430
 8.2050	 5.6450
 8.2180	 5.5900
 8.2310	 5.6860
 8.2440	 5.6410
 8.2570	 5.6790
 8.2700	 5.6700
 8.2830	 5.7580
 8.2970	 5.6430
 8.3100	 5.6860
 8.3230	 5.6830
 8.3370	 5.7220
 8.3500	 5.6470
 8.3640	 5.7570
 8.3770	 5.7360
 8.3910	 5.7760
 8.4040	 5.7250
 8.4180	 5.7950
 8.4320	 5.6500
 8.4450	 5.7150
 8.4590	 5.7500
 8.4730	 5.8220
 8.4870	 5.7500
 8.5010	 5.8500
 8.5150	 5.8430
 8.5290	 5.9800
 8.5430	 5.9700
 8.5570	 6.0330
 8.5710	 6.0340
 8.5850	 6.1460
 8.5990	 6.0800
 8.6140	 6.1230
 8.6280	 6.1360
 8.6420	 6.2690
 8.6570	 6.1790
 8.6710	 6.2410
 8.6860	 6.1860
 8.7000	 6.2690
 8.7150	 6.2320
 8.7300	 6.2980
 8.7440	 6.2520
 8.7590	 6.4160
 8.7740	 6.3810
 8.7890	 6.3930
 8.8040	 6.2800
 8.8190	 6.3950
 8.8340	 6.3440
 8.8490	 6.3980
 8.8640	 6.3710
 8.8790	 6.4600
 8.8940	 6.3420
 8.9100	 6.4140
 8.9250	 6.3780
 8.9400	 6.5020
 8.9560	 6.5050
 8.9710	 6.6580
 8.9870	 6.5970
 9.0020	 6.7180
 9.0180	 6.7680
 9.0340	 6.9070
 9.0500	 6.8140
 9.0650	 6.8880
 9.0810	 6.9160
 9.0970	 7.0840
 9.1130	 7.0680
 9.1290	 7.1100
 9.1450	 7.0700
 9.1620	 7.1610
 9.1780	 7.0570
 9.1940	 7.1920
 9.2100	 7.1490
 9.2270	 7.2100
 9.2430	 7.1740
 9.2600	 7.2610
 9.2760	 7.1580
 9.2930	 7.1380
 9.3100	 7.0050
 9.3260	 7.0910
 9.3430	 7.0170
 9.3600	 7.1410
 9.3770	 7.0940
 9.3940	 7.1600
 9.4110	 7.0210
 9.4280	 7.0250
 9.4450	 6.9070
 9.4620	 7.0220
 9.4800	 6.9190
 9.4970	 6.9370
 9.5150	 6.8290
 9.5320	 6.9230
 9.5500	 6.8120
 9.5670	 6.8330
 9.5850	 6.7210
 9.6030	 6.7630
 9.6200	 6.6070
 9.6380	 6.6090
 9.6560	 6.5310
 9.6740	 6.6560
 9.6920	 6.5020
 9.7110	 6.5510
 9.7290	 6.4450
 9.7470	 6.4980
 9.7650	 6.3400
 9.7840	 6.3970
 9.8020	 6.3600
 9.8210	 6.3840
 9.8390	 6.2200
 9.8580	 6.2460
 9.8770	 6.1020
 9.8960	 6.2170
 9.9150	 6.2130
 9.9340	 6.2910
 9.9530	 6.1460
 9.9720	 6.1790
 9.9910	 6.0690
10.0100	 6.1290
10.0300	 6.0210
10.0490	 6.1000
10.0690	 5.9780
10.0880	 6.0190
10.1080	 5.9870
10.1280	 6.0800
10.1480	 5.9920
10.1670	 6.0780
10.1870	 5.9570
10.2070	 5.9820
10.2280	 5.8770
10.2480	 5.9400
10.2680	 5.8680
10.2890	 5.9980
10.3090	 5.9950
10.3300	 6.0440
10.3500	 5.8790
10.3710	 5.9610
10.3920	 5.9240
10.4120	 6.0190
10.4330	 5.9190
10.4540	 5.9840
10.4760	 5.9010
10.4970	 5.9430
10.5180	 5.8170
10.5390	 5.8990
10.5610	 5.8290
10.5820	 5.9540
10.6040	 5.9270
10.6260	 5.9800
10.6480	 5.8650
10.6700	 6.0070
10.6920	 5.9750
10.7140	 6.0910
10.7360	 6.0160
10.7580	 6.0640
10.7800	 5.9330
10.8030	 6.0160
10.8250	 5.8800
10.8480	 5.9110
10.8710	 5.8380
10.8940	 5.9700
10.9170	 5.8670
10.9400	 5.9470
10.9630	 5.8640
10.9860	 5.9600
11.0090	 5.9030
11.0330	 6.0150
11.0560	 5.9430
11.0800	 6.0280
11.1040	 5.9000
11.1270	 5.9730
11.1510	 5.8790
11.1750	 5.9200
11.2000	 5.8300
11.2240	 5.9550
11.2480	 5.8530
11.2730	 5.9900
11.2970	 5.9780
11.3220	 6.0650
11.3470	 5.9710
11.3720	 6.1180
11.3970	 6.0480
11.4220	 6.2040
11.4470	 6.1610
11.4720	 6.2830
11.4980	 6.1550
11.5230	 6.2090
11.5490	 6.0930
11.5750	 6.2200
11.6000	 6.1390
11.6260	 6.2100
11.6530	 6.0210
11.6790	 6.1740
11.7050	 6.2050
11.7320	 6.3310
11.7580	 6.1800
11.7850	 6.2870
11.8120	 6.1200
11.8390	 6.2510
11.8660	 6.3560
11.8930	 6.4230
11.9200	 6.1800
11.9480	 6.2350
11.9760	 6.0980
12.0030	 6.2220
12.0310	 6.1000
12.0590	 6.2070
12.0870	 6.1020
12.1150	 6.2550
12.1440	 6.1680
12.1720	 6.2920
12.2010	 6.1580
12.2300	 6.2970
12.2590	 6.1660
12.2880	 6.2510
12.3170	 6.1010
12.3460	 6.2200
12.3760	 6.1610
12.4050	 6.3230
12.4350	 6.1840
12.4650	 6.3550
12.4950	 6.2320
12.5250	 6.3270
12.5550	 6.1370
12.5860	 6.2470
12.6170	 6.0580
12.6470	 6.1320
12.6780	 5.9940
12.7090	 6.1190
12.7410	 5.8950
12.7720	 6.0070
12.8030	 5.8770
12.8350	 6.0010
12.8670	 5.8160
12.8990	 5.9080
12.9310	 5.7340
12.9640	 5.9160
12.9960	 5.7500
13.0290	 5.8340
13.0610	 5.6390
13.0940	 5.7570
13.1280	 5.6560
13.1610	 5.7980
13.1940	 5.6160
13.2280	 5.6600
13.2620	 5.4290
13.2960	 5.6070
13.3300	 5.4170
13.3640	 5.5480
13.3990	 5.4160
13.4340	 5.5910
13.4690	 5.3860
13.5040	 5.5150
13.5390	 5.2810
13.5740	 5.3740
13.6100	 5.1680
13.6460	 5.2950
13.6820	 5.1710
13.7180	 5.3540
13.7540	 5.1680
13.7910	 5.3620
13.8280	 5.1810
13.8650	 5.4630
13.9020	 5.3380
13.9390	 5.4250
13.9770	 5.2040
14.0150	 5.5130
14.0530	 5.4380
14.0910	 5.6910
14.1290	 5.4330
14.1680	 5.4090
14.2070	 5.1280
14.2460	 5.4360
14.2850	 5.2020
14.3240	 5.3600
14.3640	 5.2550
14.4040	 5.6150
14.4440	 5.3090
14.4840	 5.5310
14.5250	 5.3460
14.5660	 5.6810
14.6070	 5.2840
14.6480	 5.5000
14.6900	 5.3510
14.7310	 5.6720
14.7730	 5.4200
14.8150	 5.6570
14.8580	 5.3190
14.9010	 5.7150
14.9440	 5.5580
14.9870	 5.8980
15.0300	 5.3040
15.0740	 5.6120
15.1180	 5.2740
15.1620	 5.6470
15.2060	 5.5360
15.2510	 6.0310
15.2960	 5.5210
15.3410	 5.9730
15.3870	 5.5480
