Name: Caesalpinia cacalaco
Type: vegetation
Class: Tree
Genus: Caesalpinia
Species: cacalaco
Sample No.: JPL067
Owner: JPL
Wavelength Range: VSWIR
Origin: 34.12622; - 118.10958; WGS84
Collection Date: 2/2/2016
Description: Samples were collected at the Huntington Garden in San Marino California as part of a JPL Subcontract studying HyTES imagery. Samples were taken to JPL and processed within 48 hours of collection. The same leaves were processed in the Nicolet and then measured using the ASD.
Measurement: Bidirectional reflectance
First Column: X
Second Column: Y
X Units: Wavelength (micrometer)
Y Units: Reflectance (percentage)
First X Value: 0.35
Last X Value: 2.5
Number of X Values: 2151
Additional Information: 

 0.3500	 5.8450
 0.3510	 6.0770
 0.3520	 4.5950
 0.3530	 4.1190
 0.3540	 6.0400
 0.3550	 5.5150
 0.3560	 5.3290
 0.3570	 5.7880
 0.3580	 5.9800
 0.3590	 6.0260
 0.3600	 5.7760
 0.3610	 5.5100
 0.3620	 6.1120
 0.3630	 5.9700
 0.3640	 5.3620
 0.3650	 4.9730
 0.3660	 5.1660
 0.3670	 5.2410
 0.3680	 5.1120
 0.3690	 5.0870
 0.3700	 4.6260
 0.3710	 4.4500
 0.3720	 4.9100
 0.3730	 5.4440
 0.3740	 5.5260
 0.3750	 5.3330
 0.3760	 5.2670
 0.3770	 5.4720
 0.3780	 5.5120
 0.3790	 5.2410
 0.3800	 4.8240
 0.3810	 4.7660
 0.3820	 4.8680
 0.3830	 4.9140
 0.3840	 4.8960
 0.3850	 5.2850
 0.3860	 5.6740
 0.3870	 5.4850
 0.3880	 5.1320
 0.3890	 4.8850
 0.3900	 4.9200
 0.3910	 5.3250
 0.3920	 5.4570
 0.3930	 5.4390
 0.3940	 5.4500
 0.3950	 5.3950
 0.3960	 5.1640
 0.3970	 4.9460
 0.3980	 5.0120
 0.3990	 5.0880
 0.4000	 5.3450
 0.4010	 5.6110
 0.4020	 5.2400
 0.4030	 5.0440
 0.4040	 5.1220
 0.4050	 5.3620
 0.4060	 5.7000
 0.4070	 5.6200
 0.4080	 5.3070
 0.4090	 5.3520
 0.4100	 5.2090
 0.4110	 5.2050
 0.4120	 5.4670
 0.4130	 5.6100
 0.4140	 5.5910
 0.4150	 5.4910
 0.4160	 5.4220
 0.4170	 5.3170
 0.4180	 5.4100
 0.4190	 5.6830
 0.4200	 5.8750
 0.4210	 5.8120
 0.4220	 5.6140
 0.4230	 5.4590
 0.4240	 5.5000
 0.4250	 5.6910
 0.4260	 5.8830
 0.4270	 5.9110
 0.4280	 5.8740
 0.4290	 5.8580
 0.4300	 5.8840
 0.4310	 5.8830
 0.4320	 5.9650
 0.4330	 6.0440
 0.4340	 6.0350
 0.4350	 6.0480
 0.4360	 6.0790
 0.4370	 6.0850
 0.4380	 6.0110
 0.4390	 6.0840
 0.4400	 6.1330
 0.4410	 6.0730
 0.4420	 6.1760
 0.4430	 6.1860
 0.4440	 6.0950
 0.4450	 6.0070
 0.4460	 6.0680
 0.4470	 6.2210
 0.4480	 6.3060
 0.4490	 6.0770
 0.4500	 5.9780
 0.4510	 6.0530
 0.4520	 6.2010
 0.4530	 6.2160
 0.4540	 6.1730
 0.4550	 6.1430
 0.4560	 6.1870
 0.4570	 6.2370
 0.4580	 6.2480
 0.4590	 6.2100
 0.4600	 6.1640
 0.4610	 6.2030
 0.4620	 6.2180
 0.4630	 6.1010
 0.4640	 6.1720
 0.4650	 6.1970
 0.4660	 6.1460
 0.4670	 6.2110
 0.4680	 6.2160
 0.4690	 6.1930
 0.4700	 6.2010
 0.4710	 6.2360
 0.4720	 6.2200
 0.4730	 6.1780
 0.4740	 6.1840
 0.4750	 6.1850
 0.4760	 6.1670
 0.4770	 6.1420
 0.4780	 6.1630
 0.4790	 6.1710
 0.4800	 6.1680
 0.4810	 6.1680
 0.4820	 6.1540
 0.4830	 6.1670
 0.4840	 6.2010
 0.4850	 6.2050
 0.4860	 6.2230
 0.4870	 6.2330
 0.4880	 6.2220
 0.4890	 6.2330
 0.4900	 6.2260
 0.4910	 6.2210
 0.4920	 6.2490
 0.4930	 6.1890
 0.4940	 6.1900
 0.4950	 6.2940
 0.4960	 6.3640
 0.4970	 6.3970
 0.4980	 6.4170
 0.4990	 6.4510
 0.5000	 6.4600
 0.5010	 6.5050
 0.5020	 6.5620
 0.5030	 6.5480
 0.5040	 6.6500
 0.5050	 6.7430
 0.5060	 6.7530
 0.5070	 6.8460
 0.5080	 6.9510
 0.5090	 7.0550
 0.5100	 7.1690
 0.5110	 7.3110
 0.5120	 7.4610
 0.5130	 7.6140
 0.5140	 7.7890
 0.5150	 7.9820
 0.5160	 8.1830
 0.5170	 8.3910
 0.5180	 8.6430
 0.5190	 8.8970
 0.5200	 9.1330
 0.5210	 9.3480
 0.5220	 9.6320
 0.5230	 9.9090
 0.5240	10.1390
 0.5250	10.4290
 0.5260	10.7180
 0.5270	10.9760
 0.5280	11.1900
 0.5290	11.4020
 0.5300	11.6010
 0.5310	11.7870
 0.5320	11.9810
 0.5330	12.1370
 0.5340	12.2660
 0.5350	12.3940
 0.5360	12.5340
 0.5370	12.6490
 0.5380	12.7290
 0.5390	12.7900
 0.5400	12.8730
 0.5410	12.9850
 0.5420	13.1080
 0.5430	13.2010
 0.5440	13.2600
 0.5450	13.2890
 0.5460	13.2960
 0.5470	13.3150
 0.5480	13.3150
 0.5490	13.2980
 0.5500	13.3260
 0.5510	13.3320
 0.5520	13.3160
 0.5530	13.2870
 0.5540	13.2440
 0.5550	13.2000
 0.5560	13.1490
 0.5570	13.0740
 0.5580	12.9740
 0.5590	12.8550
 0.5600	12.7300
 0.5610	12.6180
 0.5620	12.5100
 0.5630	12.3830
 0.5640	12.2220
 0.5650	12.0910
 0.5660	11.9570
 0.5670	11.7990
 0.5680	11.6110
 0.5690	11.4340
 0.5700	11.2620
 0.5710	11.0830
 0.5720	10.9070
 0.5730	10.7350
 0.5740	10.5680
 0.5750	10.4060
 0.5760	10.2780
 0.5770	10.1700
 0.5780	10.0650
 0.5790	 9.9560
 0.5800	 9.8560
 0.5810	 9.7600
 0.5820	 9.6580
 0.5830	 9.5650
 0.5840	 9.5030
 0.5850	 9.4590
 0.5860	 9.3870
 0.5870	 9.3140
 0.5880	 9.2490
 0.5890	 9.1880
 0.5900	 9.1280
 0.5910	 9.0710
 0.5920	 9.0240
 0.5930	 8.9950
 0.5940	 8.9550
 0.5950	 8.9100
 0.5960	 8.8680
 0.5970	 8.8440
 0.5980	 8.8300
 0.5990	 8.8160
 0.6000	 8.7950
 0.6010	 8.7630
 0.6020	 8.7150
 0.6030	 8.6560
 0.6040	 8.5950
 0.6050	 8.5400
 0.6060	 8.4940
 0.6070	 8.4450
 0.6080	 8.3430
 0.6090	 8.2680
 0.6100	 8.2270
 0.6110	 8.1840
 0.6120	 8.1220
 0.6130	 8.0330
 0.6140	 7.9270
 0.6150	 7.8290
 0.6160	 7.7290
 0.6170	 7.6400
 0.6180	 7.5810
 0.6190	 7.5660
 0.6200	 7.5200
 0.6210	 7.4480
 0.6220	 7.4140
 0.6230	 7.3900
 0.6240	 7.3600
 0.6250	 7.3260
 0.6260	 7.3190
 0.6270	 7.3080
 0.6280	 7.2940
 0.6290	 7.2850
 0.6300	 7.2830
 0.6310	 7.2770
 0.6320	 7.2660
 0.6330	 7.2650
 0.6340	 7.2470
 0.6350	 7.2120
 0.6360	 7.1690
 0.6370	 7.1390
 0.6380	 7.1020
 0.6390	 7.0510
 0.6400	 6.9810
 0.6410	 6.9130
 0.6420	 6.8470
 0.6430	 6.7820
 0.6440	 6.7220
 0.6450	 6.6630
 0.6460	 6.6010
 0.6470	 6.5390
 0.6480	 6.4920
 0.6490	 6.4600
 0.6500	 6.4340
 0.6510	 6.3990
 0.6520	 6.3530
 0.6530	 6.3240
 0.6540	 6.3230
 0.6550	 6.3160
 0.6560	 6.2650
 0.6570	 6.1940
 0.6580	 6.1490
 0.6590	 6.1400
 0.6600	 6.1160
 0.6610	 6.0660
 0.6620	 6.0180
 0.6630	 5.9860
 0.6640	 5.9630
 0.6650	 5.9430
 0.6660	 5.9390
 0.6670	 5.9310
 0.6680	 5.9180
 0.6690	 5.9100
 0.6700	 5.9130
 0.6710	 5.9260
 0.6720	 5.9410
 0.6730	 5.9400
 0.6740	 5.9520
 0.6750	 5.9750
 0.6760	 6.0000
 0.6770	 6.0270
 0.6780	 6.0530
 0.6790	 6.0880
 0.6800	 6.1460
 0.6810	 6.1980
 0.6820	 6.2490
 0.6830	 6.3030
 0.6840	 6.3470
 0.6850	 6.4100
 0.6860	 6.4860
 0.6870	 6.5650
 0.6880	 6.6790
 0.6890	 6.8310
 0.6900	 7.0280
 0.6910	 7.2780
 0.6920	 7.5720
 0.6930	 7.9490
 0.6940	 8.4320
 0.6950	 8.9890
 0.6960	 9.6260
 0.6970	10.3450
 0.6980	11.1500
 0.6990	12.0370
 0.7000	12.9760
 0.7010	13.9540
 0.7020	14.9770
 0.7030	16.0440
 0.7040	17.1290
 0.7050	18.2140
 0.7060	19.3140
 0.7070	20.4210
 0.7080	21.5350
 0.7090	22.6610
 0.7100	23.7660
 0.7110	24.8840
 0.7120	26.0130
 0.7130	27.1140
 0.7140	28.2160
 0.7150	29.3140
 0.7160	30.3980
 0.7170	31.4690
 0.7180	32.5320
 0.7190	33.5790
 0.7200	34.6000
 0.7210	35.6160
 0.7220	36.5840
 0.7230	37.5120
 0.7240	38.4530
 0.7250	39.3490
 0.7260	40.1950
 0.7270	41.0040
 0.7280	41.7830
 0.7290	42.5350
 0.7300	43.2450
 0.7310	43.9020
 0.7320	44.5290
 0.7330	45.1350
 0.7340	45.7100
 0.7350	46.2300
 0.7360	46.7240
 0.7370	47.1860
 0.7380	47.6120
 0.7390	48.0240
 0.7400	48.4000
 0.7410	48.7420
 0.7420	49.0600
 0.7430	49.3530
 0.7440	49.6230
 0.7450	49.8650
 0.7460	50.0770
 0.7470	50.2840
 0.7480	50.4830
 0.7490	50.6670
 0.7500	50.8440
 0.7510	50.9870
 0.7520	51.0940
 0.7530	51.1790
 0.7540	51.2730
 0.7550	51.3780
 0.7560	51.4730
 0.7570	51.5220
 0.7580	51.6000
 0.7590	51.6680
 0.7600	51.7080
 0.7610	51.7700
 0.7620	51.8170
 0.7630	51.8550
 0.7640	51.8980
 0.7650	51.9390
 0.7660	51.9590
 0.7670	51.9740
 0.7680	52.0200
 0.7690	52.0540
 0.7700	52.0610
 0.7710	52.0490
 0.7720	52.0610
 0.7730	52.0530
 0.7740	52.0500
 0.7750	52.0740
 0.7760	52.1030
 0.7770	52.1160
 0.7780	52.1110
 0.7790	52.0970
 0.7800	52.1020
 0.7810	52.1070
 0.7820	52.1140
 0.7830	52.1480
 0.7840	52.1440
 0.7850	52.1320
 0.7860	52.1390
 0.7870	52.1370
 0.7880	52.1110
 0.7890	52.0920
 0.7900	52.1100
 0.7910	52.1100
 0.7920	52.1250
 0.7930	52.1360
 0.7940	52.0960
 0.7950	52.0830
 0.7960	52.0890
 0.7970	52.0950
 0.7980	52.0780
 0.7990	52.0800
 0.8000	52.0580
 0.8010	51.9940
 0.8020	52.0100
 0.8030	52.0310
 0.8040	52.0310
 0.8050	52.0070
 0.8060	51.9720
 0.8070	51.9690
 0.8080	51.9830
 0.8090	51.9600
 0.8100	51.9480
 0.8110	51.9330
 0.8120	51.9080
 0.8130	51.9020
 0.8140	51.8880
 0.8150	51.8710
 0.8160	51.8610
 0.8170	51.8560
 0.8180	51.8550
 0.8190	51.8370
 0.8200	51.7870
 0.8210	51.7700
 0.8220	51.7810
 0.8230	51.7920
 0.8240	51.7620
 0.8250	51.7540
 0.8260	51.7390
 0.8270	51.7050
 0.8280	51.6810
 0.8290	51.6720
 0.8300	51.6620
 0.8310	51.6460
 0.8320	51.6880
 0.8330	51.6710
 0.8340	51.6400
 0.8350	51.6730
 0.8360	51.6540
 0.8370	51.6360
 0.8380	51.6410
 0.8390	51.6560
 0.8400	51.6460
 0.8410	51.6290
 0.8420	51.6090
 0.8430	51.5680
 0.8440	51.6020
 0.8450	51.6480
 0.8460	51.6460
 0.8470	51.6380
 0.8480	51.6230
 0.8490	51.6320
 0.8500	51.6810
 0.8510	51.6960
 0.8520	51.7070
 0.8530	51.7100
 0.8540	51.6890
 0.8550	51.7290
 0.8560	51.7220
 0.8570	51.6750
 0.8580	51.7140
 0.8590	51.7450
 0.8600	51.7700
 0.8610	51.7840
 0.8620	51.7520
 0.8630	51.7660
 0.8640	51.7970
 0.8650	51.8040
 0.8660	51.8050
 0.8670	51.8620
 0.8680	51.9080
 0.8690	51.8710
 0.8700	51.8690
 0.8710	51.8680
 0.8720	51.8670
 0.8730	51.8810
 0.8740	51.8850
 0.8750	51.9090
 0.8760	51.9460
 0.8770	51.9550
 0.8780	51.9520
 0.8790	51.9770
 0.8800	52.0170
 0.8810	51.9960
 0.8820	52.0190
 0.8830	52.0390
 0.8840	52.0250
 0.8850	52.0660
 0.8860	52.0630
 0.8870	52.0470
 0.8880	52.0640
 0.8890	52.1030
 0.8900	52.1080
 0.8910	52.0990
 0.8920	52.1220
 0.8930	52.1630
 0.8940	52.1530
 0.8950	52.1070
 0.8960	52.0940
 0.8970	52.1290
 0.8980	52.1660
 0.8990	52.2000
 0.9000	52.2570
 0.9010	52.2570
 0.9020	52.2270
 0.9030	52.2010
 0.9040	52.1970
 0.9050	52.2330
 0.9060	52.2590
 0.9070	52.2460
 0.9080	52.2340
 0.9090	52.2450
 0.9100	52.2590
 0.9110	52.2560
 0.9120	52.2390
 0.9130	52.2230
 0.9140	52.2150
 0.9150	52.2140
 0.9160	52.2110
 0.9170	52.2000
 0.9180	52.2020
 0.9190	52.2320
 0.9200	52.2450
 0.9210	52.2020
 0.9220	52.1590
 0.9230	52.1900
 0.9240	52.1480
 0.9250	52.1100
 0.9260	52.1020
 0.9270	52.1020
 0.9280	52.1540
 0.9290	52.1370
 0.9300	52.0430
 0.9310	51.9800
 0.9320	51.9740
 0.9330	51.9890
 0.9340	51.9920
 0.9350	51.9590
 0.9360	51.8890
 0.9370	51.8590
 0.9380	51.8650
 0.9390	51.7800
 0.9400	51.7240
 0.9410	51.6680
 0.9420	51.6030
 0.9430	51.6030
 0.9440	51.6200
 0.9450	51.5960
 0.9460	51.5130
 0.9470	51.4580
 0.9480	51.4000
 0.9490	51.3580
 0.9500	51.3330
 0.9510	51.2640
 0.9520	51.1760
 0.9530	51.1100
 0.9540	51.0800
 0.9550	51.0160
 0.9560	50.8950
 0.9570	50.7690
 0.9580	50.7000
 0.9590	50.7150
 0.9600	50.6570
 0.9610	50.5720
 0.9620	50.5600
 0.9630	50.5940
 0.9640	50.5390
 0.9650	50.4480
 0.9660	50.4200
 0.9670	50.3680
 0.9680	50.3690
 0.9690	50.3610
 0.9700	50.2670
 0.9710	50.2100
 0.9720	50.2570
 0.9730	50.3200
 0.9740	50.2760
 0.9750	50.2230
 0.9760	50.2490
 0.9770	50.2850
 0.9780	50.2340
 0.9790	50.2730
 0.9800	50.1960
 0.9810	50.1040
 0.9820	50.1900
 0.9830	50.2700
 0.9840	50.2330
 0.9850	50.1830
 0.9860	50.2660
 0.9870	50.2880
 0.9880	50.3810
 0.9890	50.4300
 0.9900	50.2860
 0.9910	50.2530
 0.9920	50.2370
 0.9930	50.2470
 0.9940	50.3160
 0.9950	50.3380
 0.9960	50.3270
 0.9970	50.3560
 0.9980	50.4710
 0.9990	50.5020
 1.0000	50.4380
 1.0010	50.9140
 1.0020	50.9350
 1.0030	50.9200
 1.0040	50.9570
 1.0050	50.9910
 1.0060	51.0220
 1.0070	51.0770
 1.0080	51.0920
 1.0090	51.0590
 1.0100	51.0740
 1.0110	51.0950
 1.0120	51.1160
 1.0130	51.1920
 1.0140	51.2090
 1.0150	51.1910
 1.0160	51.1520
 1.0170	51.1470
 1.0180	51.1540
 1.0190	51.2190
 1.0200	51.3290
 1.0210	51.3840
 1.0220	51.4290
 1.0230	51.4540
 1.0240	51.4250
 1.0250	51.4380
 1.0260	51.4680
 1.0270	51.4800
 1.0280	51.4780
 1.0290	51.5110
 1.0300	51.5640
 1.0310	51.5980
 1.0320	51.6510
 1.0330	51.6920
 1.0340	51.7140
 1.0350	51.7210
 1.0360	51.7410
 1.0370	51.7410
 1.0380	51.7470
 1.0390	51.7360
 1.0400	51.7440
 1.0410	51.7740
 1.0420	51.7840
 1.0430	51.7940
 1.0440	51.7890
 1.0450	51.7420
 1.0460	51.7410
 1.0470	51.7580
 1.0480	51.7780
 1.0490	51.8450
 1.0500	51.8830
 1.0510	51.9100
 1.0520	51.9180
 1.0530	51.9320
 1.0540	51.9310
 1.0550	51.9470
 1.0560	51.9670
 1.0570	51.9870
 1.0580	52.0150
 1.0590	52.0390
 1.0600	52.0730
 1.0610	52.0830
 1.0620	52.0730
 1.0630	52.0740
 1.0640	52.0600
 1.0650	52.0530
 1.0660	52.0720
 1.0670	52.0710
 1.0680	52.0610
 1.0690	52.0410
 1.0700	52.0230
 1.0710	51.9780
 1.0720	51.9850
 1.0730	52.0160
 1.0740	52.0380
 1.0750	52.0960
 1.0760	52.1160
 1.0770	52.1070
 1.0780	52.1100
 1.0790	52.1110
 1.0800	52.1100
 1.0810	52.1010
 1.0820	52.1050
 1.0830	52.1350
 1.0840	52.1290
 1.0850	52.0920
 1.0860	52.0880
 1.0870	52.0770
 1.0880	52.0370
 1.0890	52.0400
 1.0900	52.0890
 1.0910	52.0950
 1.0920	52.0990
 1.0930	52.0890
 1.0940	52.0520
 1.0950	52.0350
 1.0960	52.0150
 1.0970	52.0010
 1.0980	52.0010
 1.0990	51.9910
 1.1000	51.9710
 1.1010	51.9610
 1.1020	51.9540
 1.1030	51.9430
 1.1040	51.9320
 1.1050	51.9490
 1.1060	51.9460
 1.1070	51.9380
 1.1080	51.9250
 1.1090	51.9070
 1.1100	51.8870
 1.1110	51.8640
 1.1120	51.8400
 1.1130	51.8060
 1.1140	51.7860
 1.1150	51.7800
 1.1160	51.7580
 1.1170	51.7350
 1.1180	51.7130
 1.1190	51.6880
 1.1200	51.6540
 1.1210	51.6200
 1.1220	51.5920
 1.1230	51.5530
 1.1240	51.5020
 1.1250	51.4500
 1.1260	51.3950
 1.1270	51.3370
 1.1280	51.2710
 1.1290	51.2050
 1.1300	51.1500
 1.1310	51.0720
 1.1320	50.9860
 1.1330	50.8850
 1.1340	50.7520
 1.1350	50.6400
 1.1360	50.5320
 1.1370	50.4180
 1.1380	50.3000
 1.1390	50.1710
 1.1400	50.0090
 1.1410	49.8400
 1.1420	49.6920
 1.1430	49.5390
 1.1440	49.3860
 1.1450	49.2380
 1.1460	49.0920
 1.1470	48.9330
 1.1480	48.7990
 1.1490	48.6830
 1.1500	48.5620
 1.1510	48.4480
 1.1520	48.3400
 1.1530	48.2260
 1.1540	48.1290
 1.1550	48.0440
 1.1560	47.9650
 1.1570	47.9060
 1.1580	47.8530
 1.1590	47.7940
 1.1600	47.7560
 1.1610	47.7020
 1.1620	47.6450
 1.1630	47.6020
 1.1640	47.5490
 1.1650	47.5110
 1.1660	47.4830
 1.1670	47.4510
 1.1680	47.4240
 1.1690	47.3990
 1.1700	47.3690
 1.1710	47.3500
 1.1720	47.3460
 1.1730	47.3350
 1.1740	47.3290
 1.1750	47.3140
 1.1760	47.2890
 1.1770	47.2770
 1.1780	47.2640
 1.1790	47.2410
 1.1800	47.2270
 1.1810	47.2020
 1.1820	47.1810
 1.1830	47.1730
 1.1840	47.1470
 1.1850	47.1240
 1.1860	47.1110
 1.1870	47.0860
 1.1880	47.0710
 1.1890	47.0750
 1.1900	47.0690
 1.1910	47.0610
 1.1920	47.0490
 1.1930	47.0380
 1.1940	47.0260
 1.1950	47.0000
 1.1960	46.9950
 1.1970	47.0020
 1.1980	47.0070
 1.1990	47.0300
 1.2000	47.0450
 1.2010	47.0600
 1.2020	47.0770
 1.2030	47.0790
 1.2040	47.0920
 1.2050	47.0970
 1.2060	47.0970
 1.2070	47.1230
 1.2080	47.1430
 1.2090	47.1660
 1.2100	47.2050
 1.2110	47.2250
 1.2120	47.2310
 1.2130	47.2420
 1.2140	47.2360
 1.2150	47.2500
 1.2160	47.2740
 1.2170	47.3050
 1.2180	47.3310
 1.2190	47.3610
 1.2200	47.3760
 1.2210	47.3860
 1.2220	47.4130
 1.2230	47.4480
 1.2240	47.4920
 1.2250	47.5330
 1.2260	47.5640
 1.2270	47.5890
 1.2280	47.6110
 1.2290	47.6350
 1.2300	47.6600
 1.2310	47.6900
 1.2320	47.7240
 1.2330	47.7580
 1.2340	47.7820
 1.2350	47.8070
 1.2360	47.8210
 1.2370	47.8190
 1.2380	47.8230
 1.2390	47.8410
 1.2400	47.8610
 1.2410	47.8830
 1.2420	47.9040
 1.2430	47.9200
 1.2440	47.9330
 1.2450	47.9510
 1.2460	47.9690
 1.2470	47.9880
 1.2480	48.0050
 1.2490	48.0180
 1.2500	48.0380
 1.2510	48.0400
 1.2520	48.0410
 1.2530	48.0620
 1.2540	48.0720
 1.2550	48.0830
 1.2560	48.0960
 1.2570	48.0950
 1.2580	48.0940
 1.2590	48.0980
 1.2600	48.1070
 1.2610	48.1130
 1.2620	48.1200
 1.2630	48.1350
 1.2640	48.1380
 1.2650	48.1430
 1.2660	48.1440
 1.2670	48.1350
 1.2680	48.1270
 1.2690	48.1270
 1.2700	48.1280
 1.2710	48.1250
 1.2720	48.1180
 1.2730	48.1040
 1.2740	48.0860
 1.2750	48.0670
 1.2760	48.0540
 1.2770	48.0420
 1.2780	48.0310
 1.2790	48.0110
 1.2800	47.9820
 1.2810	47.9540
 1.2820	47.9250
 1.2830	47.9070
 1.2840	47.8900
 1.2850	47.8710
 1.2860	47.8490
 1.2870	47.8240
 1.2880	47.7960
 1.2890	47.7680
 1.2900	47.7330
 1.2910	47.6890
 1.2920	47.6300
 1.2930	47.5700
 1.2940	47.5110
 1.2950	47.4590
 1.2960	47.4330
 1.2970	47.3880
 1.2980	47.3430
 1.2990	47.3060
 1.3000	47.2450
 1.3010	47.1890
 1.3020	47.1310
 1.3030	47.0570
 1.3040	46.9800
 1.3050	46.9040
 1.3060	46.8290
 1.3070	46.7460
 1.3080	46.6660
 1.3090	46.5780
 1.3100	46.4890
 1.3110	46.4010
 1.3120	46.3070
 1.3130	46.2030
 1.3140	46.1010
 1.3150	45.9950
 1.3160	45.8980
 1.3170	45.8060
 1.3180	45.7060
 1.3190	45.5870
 1.3200	45.4510
 1.3210	45.3120
 1.3220	45.1780
 1.3230	45.0650
 1.3240	44.9560
 1.3250	44.8290
 1.3260	44.6990
 1.3270	44.5670
 1.3280	44.4160
 1.3290	44.2610
 1.3300	44.1010
 1.3310	43.9310
 1.3320	43.7740
 1.3330	43.6210
 1.3340	43.4620
 1.3350	43.3150
 1.3360	43.1630
 1.3370	43.0050
 1.3380	42.8620
 1.3390	42.7150
 1.3400	42.5580
 1.3410	42.4070
 1.3420	42.2460
 1.3430	42.0930
 1.3440	41.9580
 1.3450	41.8140
 1.3460	41.6720
 1.3470	41.5310
 1.3480	41.3830
 1.3490	41.2390
 1.3500	41.1020
 1.3510	40.9600
 1.3520	40.8130
 1.3530	40.6680
 1.3540	40.5270
 1.3550	40.3960
 1.3560	40.2690
 1.3570	40.1390
 1.3580	40.0060
 1.3590	39.8560
 1.3600	39.6970
 1.3610	39.5330
 1.3620	39.3680
 1.3630	39.2010
 1.3640	39.0320
 1.3650	38.8560
 1.3660	38.6650
 1.3670	38.4580
 1.3680	38.2500
 1.3690	38.0310
 1.3700	37.7890
 1.3710	37.5330
 1.3720	37.2460
 1.3730	36.9340
 1.3740	36.6070
 1.3750	36.2570
 1.3760	35.8950
 1.3770	35.5100
 1.3780	35.0910
 1.3790	34.6510
 1.3800	34.1810
 1.3810	33.6770
 1.3820	33.1570
 1.3830	32.6160
 1.3840	32.0560
 1.3850	31.4770
 1.3860	30.8750
 1.3870	30.2480
 1.3880	29.6130
 1.3890	28.9550
 1.3900	28.2930
 1.3910	27.6390
 1.3920	26.9810
 1.3930	26.3240
 1.3940	25.6760
 1.3950	25.0210
 1.3960	24.3740
 1.3970	23.7420
 1.3980	23.1200
 1.3990	22.5320
 1.4000	21.9620
 1.4010	21.4060
 1.4020	20.8760
 1.4030	20.3640
 1.4040	19.8750
 1.4050	19.4210
 1.4060	18.9880
 1.4070	18.5830
 1.4080	18.2010
 1.4090	17.8420
 1.4100	17.5070
 1.4110	17.1980
 1.4120	16.9100
 1.4130	16.6340
 1.4140	16.3830
 1.4150	16.1520
 1.4160	15.9380
 1.4170	15.7430
 1.4180	15.5570
 1.4190	15.3830
 1.4200	15.2170
 1.4210	15.0640
 1.4220	14.9250
 1.4230	14.7990
 1.4240	14.6870
 1.4250	14.5800
 1.4260	14.4830
 1.4270	14.3910
 1.4280	14.3050
 1.4290	14.2290
 1.4300	14.1620
 1.4310	14.1010
 1.4320	14.0500
 1.4330	13.9970
 1.4340	13.9470
 1.4350	13.9040
 1.4360	13.8650
 1.4370	13.8340
 1.4380	13.8110
 1.4390	13.7910
 1.4400	13.7720
 1.4410	13.7570
 1.4420	13.7470
 1.4430	13.7350
 1.4440	13.7270
 1.4450	13.7240
 1.4460	13.7160
 1.4470	13.7180
 1.4480	13.7270
 1.4490	13.7320
 1.4500	13.7430
 1.4510	13.7540
 1.4520	13.7600
 1.4530	13.7680
 1.4540	13.7800
 1.4550	13.8020
 1.4560	13.8240
 1.4570	13.8480
 1.4580	13.8750
 1.4590	13.8990
 1.4600	13.9340
 1.4610	13.9780
 1.4620	14.0210
 1.4630	14.0750
 1.4640	14.1310
 1.4650	14.1920
 1.4660	14.2630
 1.4670	14.3330
 1.4680	14.4110
 1.4690	14.4920
 1.4700	14.5760
 1.4710	14.6670
 1.4720	14.7540
 1.4730	14.8470
 1.4740	14.9460
 1.4750	15.0460
 1.4760	15.1580
 1.4770	15.2740
 1.4780	15.3830
 1.4790	15.5040
 1.4800	15.6250
 1.4810	15.7420
 1.4820	15.8630
 1.4830	15.9850
 1.4840	16.1090
 1.4850	16.2340
 1.4860	16.3670
 1.4870	16.5090
 1.4880	16.6470
 1.4890	16.7880
 1.4900	16.9270
 1.4910	17.0620
 1.4920	17.1980
 1.4930	17.3330
 1.4940	17.4710
 1.4950	17.6120
 1.4960	17.7540
 1.4970	17.8970
 1.4980	18.0400
 1.4990	18.1810
 1.5000	18.3220
 1.5010	18.4630
 1.5020	18.6050
 1.5030	18.7470
 1.5040	18.8920
 1.5050	19.0390
 1.5060	19.1880
 1.5070	19.3390
 1.5080	19.4890
 1.5090	19.6410
 1.5100	19.7900
 1.5110	19.9380
 1.5120	20.0840
 1.5130	20.2310
 1.5140	20.3780
 1.5150	20.5230
 1.5160	20.6670
 1.5170	20.8090
 1.5180	20.9470
 1.5190	21.0860
 1.5200	21.2320
 1.5210	21.3810
 1.5220	21.5230
 1.5230	21.6620
 1.5240	21.7970
 1.5250	21.9320
 1.5260	22.0650
 1.5270	22.2040
 1.5280	22.3440
 1.5290	22.4860
 1.5300	22.6290
 1.5310	22.7700
 1.5320	22.9080
 1.5330	23.0370
 1.5340	23.1620
 1.5350	23.2910
 1.5360	23.4190
 1.5370	23.5460
 1.5380	23.6810
 1.5390	23.8140
 1.5400	23.9430
 1.5410	24.0730
 1.5420	24.1970
 1.5430	24.3230
 1.5440	24.4510
 1.5450	24.5740
 1.5460	24.6960
 1.5470	24.8210
 1.5480	24.9400
 1.5490	25.0570
 1.5500	25.1750
 1.5510	25.2880
 1.5520	25.3980
 1.5530	25.5060
 1.5540	25.6210
 1.5550	25.7350
 1.5560	25.8410
 1.5570	25.9580
 1.5580	26.0680
 1.5590	26.1710
 1.5600	26.2810
 1.5610	26.3820
 1.5620	26.4790
 1.5630	26.5720
 1.5640	26.6650
 1.5650	26.7600
 1.5660	26.8600
 1.5670	26.9710
 1.5680	27.0790
 1.5690	27.1820
 1.5700	27.2860
 1.5710	27.3870
 1.5720	27.4790
 1.5730	27.5690
 1.5740	27.6550
 1.5750	27.7370
 1.5760	27.8230
 1.5770	27.9140
 1.5780	28.0110
 1.5790	28.1090
 1.5800	28.2030
 1.5810	28.2860
 1.5820	28.3660
 1.5830	28.4370
 1.5840	28.5060
 1.5850	28.5880
 1.5860	28.6660
 1.5870	28.7480
 1.5880	28.8390
 1.5890	28.9170
 1.5900	28.9980
 1.5910	29.0820
 1.5920	29.1610
 1.5930	29.2410
 1.5940	29.3260
 1.5950	29.4050
 1.5960	29.4740
 1.5970	29.5460
 1.5980	29.6220
 1.5990	29.6940
 1.6000	29.7610
 1.6010	29.8320
 1.6020	29.8990
 1.6030	29.9580
 1.6040	30.0220
 1.6050	30.0840
 1.6060	30.1470
 1.6070	30.2090
 1.6080	30.2760
 1.6090	30.3450
 1.6100	30.3920
 1.6110	30.4390
 1.6120	30.4930
 1.6130	30.5360
 1.6140	30.5910
 1.6150	30.6510
 1.6160	30.7010
 1.6170	30.7550
 1.6180	30.8090
 1.6190	30.8630
 1.6200	30.9210
 1.6210	30.9780
 1.6220	31.0340
 1.6230	31.0910
 1.6240	31.1450
 1.6250	31.1950
 1.6260	31.2390
 1.6270	31.2840
 1.6280	31.3240
 1.6290	31.3630
 1.6300	31.4020
 1.6310	31.4430
 1.6320	31.4820
 1.6330	31.5250
 1.6340	31.5750
 1.6350	31.6110
 1.6360	31.6420
 1.6370	31.6690
 1.6380	31.6790
 1.6390	31.7060
 1.6400	31.7440
 1.6410	31.7740
 1.6420	31.8150
 1.6430	31.8440
 1.6440	31.8620
 1.6450	31.8760
 1.6460	31.8830
 1.6470	31.9010
 1.6480	31.9060
 1.6490	31.9170
 1.6500	31.9440
 1.6510	31.9570
 1.6520	31.9760
 1.6530	31.9920
 1.6540	31.9940
 1.6550	32.0020
 1.6560	32.0060
 1.6570	32.0100
 1.6580	32.0160
 1.6590	32.0170
 1.6600	32.0260
 1.6610	32.0260
 1.6620	32.0350
 1.6630	32.0440
 1.6640	32.0380
 1.6650	32.0450
 1.6660	32.0480
 1.6670	32.0560
 1.6680	32.0720
 1.6690	32.0820
 1.6700	32.0860
 1.6710	32.0850
 1.6720	32.0770
 1.6730	32.0660
 1.6740	32.0620
 1.6750	32.0490
 1.6760	32.0360
 1.6770	32.0190
 1.6780	31.9890
 1.6790	31.9650
 1.6800	31.9340
 1.6810	31.9030
 1.6820	31.8670
 1.6830	31.8230
 1.6840	31.7820
 1.6850	31.7300
 1.6860	31.6860
 1.6870	31.6520
 1.6880	31.6090
 1.6890	31.5750
 1.6900	31.5360
 1.6910	31.4900
 1.6920	31.4490
 1.6930	31.4140
 1.6940	31.3750
 1.6950	31.3340
 1.6960	31.2930
 1.6970	31.2480
 1.6980	31.2000
 1.6990	31.1520
 1.7000	31.1090
 1.7010	31.0620
 1.7020	31.0280
 1.7030	31.0060
 1.7040	30.9670
 1.7050	30.9300
 1.7060	30.8760
 1.7070	30.8020
 1.7080	30.7410
 1.7090	30.6720
 1.7100	30.6240
 1.7110	30.5910
 1.7120	30.5590
 1.7130	30.5200
 1.7140	30.4640
 1.7150	30.3970
 1.7160	30.3350
 1.7170	30.2690
 1.7180	30.1970
 1.7190	30.1340
 1.7200	30.0720
 1.7210	30.0050
 1.7220	29.9510
 1.7230	29.9030
 1.7240	29.8390
 1.7250	29.7770
 1.7260	29.7230
 1.7270	29.6600
 1.7280	29.6050
 1.7290	29.5570
 1.7300	29.4890
 1.7310	29.4370
 1.7320	29.3960
 1.7330	29.3500
 1.7340	29.3110
 1.7350	29.2720
 1.7360	29.2330
 1.7370	29.1870
 1.7380	29.1390
 1.7390	29.0930
 1.7400	29.0410
 1.7410	28.9880
 1.7420	28.9370
 1.7430	28.8820
 1.7440	28.8220
 1.7450	28.7620
 1.7460	28.7070
 1.7470	28.6390
 1.7480	28.5560
 1.7490	28.4850
 1.7500	28.4120
 1.7510	28.3390
 1.7520	28.2730
 1.7530	28.2050
 1.7540	28.1350
 1.7550	28.0660
 1.7560	27.9930
 1.7570	27.9150
 1.7580	27.8270
 1.7590	27.7460
 1.7600	27.6760
 1.7610	27.6160
 1.7620	27.5520
 1.7630	27.4950
 1.7640	27.4350
 1.7650	27.3740
 1.7660	27.3110
 1.7670	27.2440
 1.7680	27.1880
 1.7690	27.1330
 1.7700	27.0820
 1.7710	27.0420
 1.7720	27.0010
 1.7730	26.9600
 1.7740	26.9200
 1.7750	26.8830
 1.7760	26.8440
 1.7770	26.8020
 1.7780	26.7630
 1.7790	26.7240
 1.7800	26.6910
 1.7810	26.6610
 1.7820	26.6330
 1.7830	26.6120
 1.7840	26.5860
 1.7850	26.5570
 1.7860	26.5350
 1.7870	26.5150
 1.7880	26.4970
 1.7890	26.4910
 1.7900	26.4990
 1.7910	26.4940
 1.7920	26.4830
 1.7930	26.4780
 1.7940	26.4680
 1.7950	26.4620
 1.7960	26.4730
 1.7970	26.4690
 1.7980	26.4460
 1.7990	26.4390
 1.8000	26.4350
 1.8010	26.4330
 1.8020	26.4440
 1.8030	26.4520
 1.8040	26.4600
 1.8050	26.4670
 1.8060	26.4770
 1.8070	26.4820
 1.8080	26.4800
 1.8090	26.4820
 1.8100	26.4870
 1.8110	26.4880
 1.8120	26.4940
 1.8130	26.5150
 1.8140	26.5170
 1.8150	26.5120
 1.8160	26.5050
 1.8170	26.4990
 1.8180	26.4970
 1.8190	26.5030
 1.8200	26.5100
 1.8210	26.5160
 1.8220	26.5060
 1.8230	26.4870
 1.8240	26.4750
 1.8250	26.4440
 1.8260	26.4290
 1.8270	26.4400
 1.8280	26.4320
 1.8290	26.4140
 1.8300	26.3920
 1.8310	26.6550
 1.8320	26.6140
 1.8330	26.5720
 1.8340	26.4910
 1.8350	26.4150
 1.8360	26.3620
 1.8370	26.3100
 1.8380	26.2690
 1.8390	26.2120
 1.8400	26.1570
 1.8410	26.0810
 1.8420	25.9950
 1.8430	25.8800
 1.8440	25.7690
 1.8450	25.6620
 1.8460	25.5280
 1.8470	25.3970
 1.8480	25.2660
 1.8490	25.1080
 1.8500	24.9320
 1.8510	24.7340
 1.8520	24.5380
 1.8530	24.3440
 1.8540	24.1320
 1.8550	23.9290
 1.8560	23.7310
 1.8570	23.4870
 1.8580	23.2240
 1.8590	22.9320
 1.8600	22.6180
 1.8610	22.2530
 1.8620	21.8690
 1.8630	21.4730
 1.8640	21.0650
 1.8650	20.6750
 1.8660	20.2850
 1.8670	19.8650
 1.8680	19.4430
 1.8690	18.9980
 1.8700	18.5160
 1.8710	17.9980
 1.8720	17.4840
 1.8730	16.9570
 1.8740	16.4110
 1.8750	15.8710
 1.8760	15.3310
 1.8770	14.7730
 1.8780	14.2150
 1.8790	13.6920
 1.8800	13.1730
 1.8810	12.6650
 1.8820	12.1590
 1.8830	11.6630
 1.8840	11.1590
 1.8850	10.6550
 1.8860	10.1810
 1.8870	 9.7560
 1.8880	 9.3550
 1.8890	 8.9750
 1.8900	 8.6090
 1.8910	 8.2590
 1.8920	 7.9110
 1.8930	 7.5870
 1.8940	 7.3030
 1.8950	 7.0430
 1.8960	 6.8110
 1.8970	 6.6100
 1.8980	 6.4200
 1.8990	 6.2540
 1.9000	 6.0990
 1.9010	 5.9590
 1.9020	 5.8360
 1.9030	 5.7310
 1.9040	 5.6350
 1.9050	 5.5580
 1.9060	 5.4680
 1.9070	 5.3960
 1.9080	 5.3360
 1.9090	 5.2910
 1.9100	 5.2570
 1.9110	 5.2090
 1.9120	 5.1460
 1.9130	 5.1080
 1.9140	 5.0700
 1.9150	 5.0480
 1.9160	 5.0410
 1.9170	 5.0400
 1.9180	 5.0300
 1.9190	 5.0040
 1.9200	 4.9860
 1.9210	 4.9660
 1.9220	 4.9560
 1.9230	 4.9600
 1.9240	 4.9540
 1.9250	 4.9440
 1.9260	 4.9430
 1.9270	 4.9480
 1.9280	 4.9330
 1.9290	 4.9420
 1.9300	 4.9600
 1.9310	 4.9580
 1.9320	 4.9670
 1.9330	 4.9810
 1.9340	 5.0040
 1.9350	 5.0150
 1.9360	 5.0280
 1.9370	 5.0360
 1.9380	 5.0380
 1.9390	 5.0300
 1.9400	 5.0280
 1.9410	 5.0220
 1.9420	 5.0130
 1.9430	 5.0220
 1.9440	 5.0320
 1.9450	 5.0490
 1.9460	 5.0690
 1.9470	 5.0980
 1.9480	 5.1210
 1.9490	 5.1400
 1.9500	 5.1690
 1.9510	 5.1980
 1.9520	 5.2120
 1.9530	 5.2320
 1.9540	 5.2590
 1.9550	 5.2780
 1.9560	 5.2970
 1.9570	 5.3140
 1.9580	 5.3210
 1.9590	 5.3400
 1.9600	 5.3620
 1.9610	 5.3870
 1.9620	 5.4180
 1.9630	 5.4490
 1.9640	 5.4960
 1.9650	 5.5430
 1.9660	 5.5940
 1.9670	 5.6470
 1.9680	 5.6770
 1.9690	 5.6840
 1.9700	 5.6990
 1.9710	 5.6900
 1.9720	 5.7110
 1.9730	 5.7400
 1.9740	 5.7880
 1.9750	 5.8500
 1.9760	 5.9100
 1.9770	 5.9680
 1.9780	 6.0290
 1.9790	 6.0760
 1.9800	 6.1140
 1.9810	 6.1510
 1.9820	 6.1680
 1.9830	 6.2050
 1.9840	 6.2540
 1.9850	 6.2970
 1.9860	 6.3460
 1.9870	 6.3910
 1.9880	 6.4210
 1.9890	 6.4570
 1.9900	 6.5160
 1.9910	 6.5830
 1.9920	 6.6420
 1.9930	 6.7110
 1.9940	 6.7730
 1.9950	 6.8240
 1.9960	 6.8770
 1.9970	 6.9310
 1.9980	 6.9860
 1.9990	 7.0360
 2.0000	 7.0900
 2.0010	 7.1320
 2.0020	 7.1810
 2.0030	 7.2200
 2.0040	 7.2590
 2.0050	 7.3150
 2.0060	 7.3850
 2.0070	 7.4500
 2.0080	 7.5290
 2.0090	 7.5910
 2.0100	 7.6470
 2.0110	 7.7020
 2.0120	 7.7450
 2.0130	 7.7870
 2.0140	 7.8530
 2.0150	 7.9130
 2.0160	 7.9800
 2.0170	 8.0370
 2.0180	 8.0930
 2.0190	 8.1320
 2.0200	 8.1890
 2.0210	 8.2590
 2.0220	 8.3230
 2.0230	 8.3930
 2.0240	 8.4530
 2.0250	 8.5000
 2.0260	 8.5590
 2.0270	 8.6170
 2.0280	 8.6890
 2.0290	 8.7570
 2.0300	 8.8120
 2.0310	 8.8610
 2.0320	 8.8930
 2.0330	 8.9340
 2.0340	 8.9730
 2.0350	 9.0180
 2.0360	 9.0640
 2.0370	 9.1200
 2.0380	 9.1990
 2.0390	 9.2550
 2.0400	 9.3060
 2.0410	 9.3570
 2.0420	 9.4010
 2.0430	 9.4280
 2.0440	 9.4720
 2.0450	 9.5290
 2.0460	 9.5690
 2.0470	 9.5970
 2.0480	 9.6440
 2.0490	 9.6970
 2.0500	 9.7450
 2.0510	 9.8050
 2.0520	 9.8570
 2.0530	 9.8930
 2.0540	 9.9420
 2.0550	 9.9980
 2.0560	10.0630
 2.0570	10.1210
 2.0580	10.1830
 2.0590	10.2420
 2.0600	10.3000
 2.0610	10.3550
 2.0620	10.4160
 2.0630	10.4650
 2.0640	10.5000
 2.0650	10.5460
 2.0660	10.5860
 2.0670	10.6380
 2.0680	10.7090
 2.0690	10.7700
 2.0700	10.8360
 2.0710	10.8940
 2.0720	10.9520
 2.0730	10.9840
 2.0740	11.0350
 2.0750	11.0870
 2.0760	11.1370
 2.0770	11.1890
 2.0780	11.2460
 2.0790	11.3020
 2.0800	11.3610
 2.0810	11.4300
 2.0820	11.4920
 2.0830	11.5490
 2.0840	11.6080
 2.0850	11.6720
 2.0860	11.7260
 2.0870	11.7860
 2.0880	11.8210
 2.0890	11.8580
 2.0900	11.8810
 2.0910	11.9150
 2.0920	11.9400
 2.0930	11.9830
 2.0940	12.0360
 2.0950	12.0910
 2.0960	12.1640
 2.0970	12.2190
 2.0980	12.2740
 2.0990	12.3190
 2.1000	12.3390
 2.1010	12.3830
 2.1020	12.4330
 2.1030	12.4860
 2.1040	12.5560
 2.1050	12.6260
 2.1060	12.6780
 2.1070	12.7160
 2.1080	12.7620
 2.1090	12.8060
 2.1100	12.8420
 2.1110	12.8710
 2.1120	12.9170
 2.1130	12.9660
 2.1140	13.0070
 2.1150	13.0600
 2.1160	13.1080
 2.1170	13.1280
 2.1180	13.1730
 2.1190	13.2450
 2.1200	13.3040
 2.1210	13.3650
 2.1220	13.4350
 2.1230	13.4710
 2.1240	13.4860
 2.1250	13.5100
 2.1260	13.5140
 2.1270	13.5340
 2.1280	13.5600
 2.1290	13.5970
 2.1300	13.6390
 2.1310	13.6840
 2.1320	13.7510
 2.1330	13.7980
 2.1340	13.8420
 2.1350	13.8730
 2.1360	13.8750
 2.1370	13.8980
 2.1380	13.9160
 2.1390	13.9420
 2.1400	13.9940
 2.1410	14.0330
 2.1420	14.0650
 2.1430	14.0900
 2.1440	14.1210
 2.1450	14.1360
 2.1460	14.1830
 2.1470	14.2620
 2.1480	14.3030
 2.1490	14.3470
 2.1500	14.3780
 2.1510	14.3670
 2.1520	14.3880
 2.1530	14.4270
 2.1540	14.4560
 2.1550	14.4990
 2.1560	14.5240
 2.1570	14.5360
 2.1580	14.5500
 2.1590	14.5690
 2.1600	14.5620
 2.1610	14.5660
 2.1620	14.5710
 2.1630	14.5980
 2.1640	14.6320
 2.1650	14.6710
 2.1660	14.7490
 2.1670	14.7760
 2.1680	14.7720
 2.1690	14.7920
 2.1700	14.7990
 2.1710	14.8090
 2.1720	14.8360
 2.1730	14.8550
 2.1740	14.8560
 2.1750	14.8740
 2.1760	14.9030
 2.1770	14.9340
 2.1780	14.9730
 2.1790	15.0080
 2.1800	15.0490
 2.1810	15.0870
 2.1820	15.1250
 2.1830	15.1580
 2.1840	15.1840
 2.1850	15.2070
 2.1860	15.2220
 2.1870	15.2220
 2.1880	15.2360
 2.1890	15.2450
 2.1900	15.2700
 2.1910	15.3150
 2.1920	15.3390
 2.1930	15.3570
 2.1940	15.3790
 2.1950	15.3910
 2.1960	15.4120
 2.1970	15.4460
 2.1980	15.4690
 2.1990	15.4860
 2.2000	15.4990
 2.2010	15.5060
 2.2020	15.5130
 2.2030	15.5140
 2.2040	15.5180
 2.2050	15.5310
 2.2060	15.5210
 2.2070	15.5310
 2.2080	15.5420
 2.2090	15.5670
 2.2100	15.6100
 2.2110	15.6350
 2.2120	15.6660
 2.2130	15.6830
 2.2140	15.6780
 2.2150	15.6910
 2.2160	15.7220
 2.2170	15.7200
 2.2180	15.6960
 2.2190	15.6940
 2.2200	15.6750
 2.2210	15.6770
 2.2220	15.7210
 2.2230	15.7380
 2.2240	15.7440
 2.2250	15.7510
 2.2260	15.7600
 2.2270	15.7530
 2.2280	15.7270
 2.2290	15.7140
 2.2300	15.7030
 2.2310	15.6800
 2.2320	15.6760
 2.2330	15.6930
 2.2340	15.6820
 2.2350	15.6730
 2.2360	15.6280
 2.2370	15.5520
 2.2380	15.4970
 2.2390	15.4220
 2.2400	15.3710
 2.2410	15.3400
 2.2420	15.3060
 2.2430	15.2860
 2.2440	15.2430
 2.2450	15.2000
 2.2460	15.1440
 2.2470	15.0560
 2.2480	14.9900
 2.2490	14.9450
 2.2500	14.8690
 2.2510	14.7780
 2.2520	14.6910
 2.2530	14.5690
 2.2540	14.4790
 2.2550	14.4100
 2.2560	14.3420
 2.2570	14.2860
 2.2580	14.2360
 2.2590	14.2070
 2.2600	14.1560
 2.2610	14.1090
 2.2620	14.0370
 2.2630	13.9340
 2.2640	13.8640
 2.2650	13.8000
 2.2660	13.7640
 2.2670	13.7160
 2.2680	13.6770
 2.2690	13.6440
 2.2700	13.6080
 2.2710	13.5700
 2.2720	13.5650
 2.2730	13.5040
 2.2740	13.4040
 2.2750	13.3280
 2.2760	13.2230
 2.2770	13.1520
 2.2780	13.0910
 2.2790	13.0640
 2.2800	13.0870
 2.2810	13.0640
 2.2820	13.0580
 2.2830	13.0200
 2.2840	12.9250
 2.2850	12.8610
 2.2860	12.7940
 2.2870	12.7490
 2.2880	12.7160
 2.2890	12.6940
 2.2900	12.7060
 2.2910	12.7010
 2.2920	12.7090
 2.2930	12.6850
 2.2940	12.6370
 2.2950	12.5850
 2.2960	12.5110
 2.2970	12.4340
 2.2980	12.3450
 2.2990	12.2640
 2.3000	12.1890
 2.3010	12.0840
 2.3020	12.0040
 2.3030	11.9300
 2.3040	11.8210
 2.3050	11.7540
 2.3060	11.7030
 2.3070	11.6520
 2.3080	11.6300
 2.3090	11.6200
 2.3100	11.6350
 2.3110	11.6350
 2.3120	11.6240
 2.3130	11.6290
 2.3140	11.6050
 2.3150	11.5280
 2.3160	11.5070
 2.3170	11.5160
 2.3180	11.4870
 2.3190	11.4600
 2.3200	11.4350
 2.3210	11.3790
 2.3220	11.3520
 2.3230	11.3570
 2.3240	11.3470
 2.3250	11.3560
 2.3260	11.3190
 2.3270	11.2550
 2.3280	11.1970
 2.3290	11.0830
 2.3300	11.0360
 2.3310	11.0460
 2.3320	11.0320
 2.3330	11.0540
 2.3340	11.0340
 2.3350	10.9570
 2.3360	10.9200
 2.3370	10.8940
 2.3380	10.8560
 2.3390	10.8450
 2.3400	10.8050
 2.3410	10.7270
 2.3420	10.6710
 2.3430	10.6250
 2.3440	10.5670
 2.3450	10.4930
 2.3460	10.4380
 2.3470	10.3830
 2.3480	10.3270
 2.3490	10.2970
 2.3500	10.2590
 2.3510	10.1970
 2.3520	10.1660
 2.3530	10.1640
 2.3540	10.1440
 2.3550	10.1500
 2.3560	10.1230
 2.3570	10.0490
 2.3580	10.0010
 2.3590	 9.9400
 2.3600	 9.9350
 2.3610	 9.9600
 2.3620	 9.9120
 2.3630	 9.8480
 2.3640	 9.7220
 2.3650	 9.5900
 2.3660	 9.5170
 2.3670	 9.4370
 2.3680	 9.4320
 2.3690	 9.4560
 2.3700	 9.4560
 2.3710	 9.4720
 2.3720	 9.4680
 2.3730	 9.4200
 2.3740	 9.3650
 2.3750	 9.3130
 2.3760	 9.2320
 2.3770	 9.1860
 2.3780	 9.1930
 2.3790	 9.2010
 2.3800	 9.2070
 2.3810	 9.1900
 2.3820	 9.1210
 2.3830	 9.0100
 2.3840	 8.9110
 2.3850	 8.8540
 2.3860	 8.7990
 2.3870	 8.7640
 2.3880	 8.7190
 2.3890	 8.6520
 2.3900	 8.5660
 2.3910	 8.5300
 2.3920	 8.5520
 2.3930	 8.5280
 2.3940	 8.5590
 2.3950	 8.5810
 2.3960	 8.5650
 2.3970	 8.5740
 2.3980	 8.5660
 2.3990	 8.5610
 2.4000	 8.4990
 2.4010	 8.3940
 2.4020	 8.3190
 2.4030	 8.1940
 2.4040	 8.1070
 2.4050	 8.1220
 2.4060	 8.0880
 2.4070	 8.0670
 2.4080	 8.0440
 2.4090	 8.0290
 2.4100	 7.9860
 2.4110	 7.8970
 2.4120	 7.8960
 2.4130	 7.7810
 2.4140	 7.6830
 2.4150	 7.6290
 2.4160	 7.5250
 2.4170	 7.5400
 2.4180	 7.5260
 2.4190	 7.5020
 2.4200	 7.4820
 2.4210	 7.3990
 2.4220	 7.3690
 2.4230	 7.3640
 2.4240	 7.3300
 2.4250	 7.2550
 2.4260	 7.1440
 2.4270	 7.0900
 2.4280	 7.0940
 2.4290	 7.0590
 2.4300	 7.0250
 2.4310	 6.9620
 2.4320	 6.8340
 2.4330	 6.8010
 2.4340	 6.8940
 2.4350	 6.9970
 2.4360	 7.0800
 2.4370	 7.0630
 2.4380	 6.9700
 2.4390	 6.8360
 2.4400	 6.6420
 2.4410	 6.5500
 2.4420	 6.4800
 2.4430	 6.4250
 2.4440	 6.3720
 2.4450	 6.2790
 2.4460	 6.2860
 2.4470	 6.3180
 2.4480	 6.4200
 2.4490	 6.4700
 2.4500	 6.4420
 2.4510	 6.4090
 2.4520	 6.2510
 2.4530	 6.2600
 2.4540	 6.2750
 2.4550	 6.1730
 2.4560	 6.2190
 2.4570	 6.0950
 2.4580	 6.0350
 2.4590	 6.0110
 2.4600	 5.8980
 2.4610	 6.0810
 2.4620	 6.0610
 2.4630	 5.9480
 2.4640	 6.0250
 2.4650	 5.9770
 2.4660	 6.0240
 2.4670	 6.1550
 2.4680	 6.1070
 2.4690	 5.9780
 2.4700	 5.9180
 2.4710	 5.9130
 2.4720	 5.8840
 2.4730	 5.8160
 2.4740	 5.8400
 2.4750	 5.9420
 2.4760	 5.9880
 2.4770	 6.0400
 2.4780	 6.0330
 2.4790	 5.8810
 2.4800	 5.8930
 2.4810	 6.1680
 2.4820	 6.1620
 2.4830	 6.0270
 2.4840	 5.8310
 2.4850	 5.4280
 2.4860	 5.3420
 2.4870	 5.3040
 2.4880	 5.1920
 2.4890	 5.4960
 2.4900	 5.7420
 2.4910	 6.1160
 2.4920	 6.5580
 2.4930	 6.5190
 2.4940	 6.6580
 2.4950	 6.5310
 2.4960	 6.2130
 2.4970	 6.3840
 2.4980	 6.1440
 2.4990	 5.8910
 2.5000	 6.1250
