Name: Adenostoma fasciculatum 3
Type: vegetation
Class: Shrub
Genus: Adenostoma
Species: fasciculatum
Sample No.: VH044
Owner: UCSB
Wavelength Range: VSWIR
Origin: 34.5084; -119.7686; WGS84
Collection Date: 4/1/2013
Description: Samples were collected as part of the HyspIRI Airborne Campaign. 48 individual plants were sampled in three times in 2013 - spring  summer  and fall. The name of the sample includes a 1  2  or 3 which references a different individual of the species. Samples were taken to JPL and processed within 48 hours of collection. The same leaves were processed in the Nicolet and then measured using the ASD.
Measurement: Bidirectional reflectance
First Column: X
Second Column: Y
X Units: Wavelength (micrometers)
Y Units: Reflectance (percentage)
First X Value: 0.35
Last X Value: 2.5
Number of X Values: 2151
Additional Information: vegetation.shrub.adenostoma.fasciculatum.vswir.vh044.ucsb.asd.ancillary.txt

 0.3500	 2.9650
 0.3510	 2.8120
 0.3520	 2.6140
 0.3530	 2.4440
 0.3540	 2.3530
 0.3550	 2.3690
 0.3560	 2.4890
 0.3570	 2.5310
 0.3580	 2.3020
 0.3590	 2.3140
 0.3600	 2.4610
 0.3610	 2.5570
 0.3620	 2.3910
 0.3630	 2.3690
 0.3640	 2.4270
 0.3650	 2.4210
 0.3660	 2.4270
 0.3670	 2.3910
 0.3680	 2.3500
 0.3690	 2.3910
 0.3700	 2.3940
 0.3710	 2.3640
 0.3720	 2.3280
 0.3730	 2.3130
 0.3740	 2.3100
 0.3750	 2.3430
 0.3760	 2.4290
 0.3770	 2.5400
 0.3780	 2.5510
 0.3790	 2.4850
 0.3800	 2.4800
 0.3810	 2.4630
 0.3820	 2.3870
 0.3830	 2.2850
 0.3840	 2.3740
 0.3850	 2.4540
 0.3860	 2.4500
 0.3870	 2.3700
 0.3880	 2.3950
 0.3890	 2.4660
 0.3900	 2.5200
 0.3910	 2.5180
 0.3920	 2.4590
 0.3930	 2.4160
 0.3940	 2.4350
 0.3950	 2.4510
 0.3960	 2.4830
 0.3970	 2.5000
 0.3980	 2.4650
 0.3990	 2.4740
 0.4000	 2.4900
 0.4010	 2.4930
 0.4020	 2.5020
 0.4030	 2.5190
 0.4040	 2.5400
 0.4050	 2.5620
 0.4060	 2.5900
 0.4070	 2.6280
 0.4080	 2.6640
 0.4090	 2.6810
 0.4100	 2.7170
 0.4110	 2.7670
 0.4120	 2.8130
 0.4130	 2.8280
 0.4140	 2.8370
 0.4150	 2.8520
 0.4160	 2.8810
 0.4170	 2.9330
 0.4180	 2.9750
 0.4190	 3.0020
 0.4200	 3.0400
 0.4210	 3.0550
 0.4220	 3.0790
 0.4230	 3.1310
 0.4240	 3.1650
 0.4250	 3.1780
 0.4260	 3.1880
 0.4270	 3.2200
 0.4280	 3.2720
 0.4290	 3.3120
 0.4300	 3.3300
 0.4310	 3.3470
 0.4320	 3.3750
 0.4330	 3.4020
 0.4340	 3.4160
 0.4350	 3.4330
 0.4360	 3.4520
 0.4370	 3.4800
 0.4380	 3.5280
 0.4390	 3.5640
 0.4400	 3.5890
 0.4410	 3.6100
 0.4420	 3.6350
 0.4430	 3.6670
 0.4440	 3.6970
 0.4450	 3.7140
 0.4460	 3.7420
 0.4470	 3.7710
 0.4480	 3.8010
 0.4490	 3.8470
 0.4500	 3.8650
 0.4510	 3.8840
 0.4520	 3.9320
 0.4530	 3.9810
 0.4540	 4.0200
 0.4550	 4.0440
 0.4560	 4.0560
 0.4570	 4.0940
 0.4580	 4.1290
 0.4590	 4.1430
 0.4600	 4.1650
 0.4610	 4.1940
 0.4620	 4.2200
 0.4630	 4.2400
 0.4640	 4.2690
 0.4650	 4.2920
 0.4660	 4.3080
 0.4670	 4.3280
 0.4680	 4.3540
 0.4690	 4.3680
 0.4700	 4.3650
 0.4710	 4.3860
 0.4720	 4.4000
 0.4730	 4.4080
 0.4740	 4.4260
 0.4750	 4.4330
 0.4760	 4.4420
 0.4770	 4.4570
 0.4780	 4.4650
 0.4790	 4.4780
 0.4800	 4.4850
 0.4810	 4.4830
 0.4820	 4.5010
 0.4830	 4.5140
 0.4840	 4.5230
 0.4850	 4.5530
 0.4860	 4.5850
 0.4870	 4.6150
 0.4880	 4.6420
 0.4890	 4.6720
 0.4900	 4.7020
 0.4910	 4.7370
 0.4920	 4.7820
 0.4930	 4.8380
 0.4940	 4.8950
 0.4950	 4.9500
 0.4960	 5.0130
 0.4970	 5.0830
 0.4980	 5.1590
 0.4990	 5.2410
 0.5000	 5.3340
 0.5010	 5.4310
 0.5020	 5.5350
 0.5030	 5.6510
 0.5040	 5.7740
 0.5050	 5.9030
 0.5060	 6.0420
 0.5070	 6.2040
 0.5080	 6.3680
 0.5090	 6.5400
 0.5100	 6.7280
 0.5110	 6.9230
 0.5120	 7.1240
 0.5130	 7.3350
 0.5140	 7.5560
 0.5150	 7.7880
 0.5160	 8.0300
 0.5170	 8.2820
 0.5180	 8.5340
 0.5190	 8.7940
 0.5200	 9.0620
 0.5210	 9.3310
 0.5220	 9.5920
 0.5230	 9.8470
 0.5240	10.0980
 0.5250	10.3430
 0.5260	10.5780
 0.5270	10.8020
 0.5280	11.0160
 0.5290	11.2220
 0.5300	11.4150
 0.5310	11.5930
 0.5320	11.7630
 0.5330	11.9120
 0.5340	12.0500
 0.5350	12.1890
 0.5360	12.3080
 0.5370	12.4160
 0.5380	12.5200
 0.5390	12.6150
 0.5400	12.7060
 0.5410	12.7940
 0.5420	12.8820
 0.5430	12.9670
 0.5440	13.0400
 0.5450	13.1080
 0.5460	13.1790
 0.5470	13.2450
 0.5480	13.3010
 0.5490	13.3490
 0.5500	13.3920
 0.5510	13.4290
 0.5520	13.4570
 0.5530	13.4730
 0.5540	13.4710
 0.5550	13.4590
 0.5560	13.4380
 0.5570	13.4010
 0.5580	13.3520
 0.5590	13.2890
 0.5600	13.2180
 0.5610	13.1540
 0.5620	13.0820
 0.5630	13.0040
 0.5640	12.9290
 0.5650	12.8400
 0.5660	12.7410
 0.5670	12.6340
 0.5680	12.5170
 0.5690	12.3940
 0.5700	12.2650
 0.5710	12.1330
 0.5720	12.0060
 0.5730	11.8820
 0.5740	11.7630
 0.5750	11.6530
 0.5760	11.5530
 0.5770	11.4610
 0.5780	11.3770
 0.5790	11.2960
 0.5800	11.2160
 0.5810	11.1410
 0.5820	11.0780
 0.5830	11.0250
 0.5840	10.9720
 0.5850	10.9150
 0.5860	10.8630
 0.5870	10.8090
 0.5880	10.7620
 0.5890	10.7250
 0.5900	10.6940
 0.5910	10.6740
 0.5920	10.6630
 0.5930	10.6500
 0.5940	10.6440
 0.5950	10.6340
 0.5960	10.6160
 0.5970	10.5980
 0.5980	10.5830
 0.5990	10.5700
 0.6000	10.5520
 0.6010	10.5310
 0.6020	10.5030
 0.6030	10.4640
 0.6040	10.4200
 0.6050	10.3640
 0.6060	10.2990
 0.6070	10.2290
 0.6080	10.1510
 0.6090	10.0680
 0.6100	 9.9810
 0.6110	 9.8920
 0.6120	 9.8040
 0.6130	 9.7110
 0.6140	 9.6130
 0.6150	 9.5220
 0.6160	 9.4350
 0.6170	 9.3530
 0.6180	 9.2750
 0.6190	 9.2070
 0.6200	 9.1480
 0.6210	 9.0960
 0.6220	 9.0510
 0.6230	 9.0150
 0.6240	 8.9840
 0.6250	 8.9540
 0.6260	 8.9350
 0.6270	 8.9230
 0.6280	 8.9160
 0.6290	 8.9070
 0.6300	 8.9010
 0.6310	 8.8970
 0.6320	 8.8920
 0.6330	 8.8750
 0.6340	 8.8550
 0.6350	 8.8230
 0.6360	 8.7760
 0.6370	 8.7210
 0.6380	 8.6590
 0.6390	 8.5840
 0.6400	 8.4940
 0.6410	 8.3980
 0.6420	 8.2960
 0.6430	 8.1880
 0.6440	 8.0710
 0.6450	 7.9490
 0.6460	 7.8260
 0.6470	 7.7060
 0.6480	 7.5920
 0.6490	 7.4900
 0.6500	 7.3990
 0.6510	 7.3140
 0.6520	 7.2450
 0.6530	 7.1780
 0.6540	 7.1040
 0.6550	 7.0290
 0.6560	 6.9450
 0.6570	 6.8460
 0.6580	 6.7330
 0.6590	 6.6180
 0.6600	 6.4950
 0.6610	 6.3620
 0.6620	 6.2270
 0.6630	 6.0960
 0.6640	 5.9700
 0.6650	 5.8510
 0.6660	 5.7390
 0.6670	 5.6410
 0.6680	 5.5590
 0.6690	 5.4910
 0.6700	 5.4270
 0.6710	 5.3750
 0.6720	 5.3390
 0.6730	 5.3100
 0.6740	 5.2900
 0.6750	 5.2790
 0.6760	 5.2720
 0.6770	 5.2730
 0.6780	 5.2850
 0.6790	 5.3100
 0.6800	 5.3530
 0.6810	 5.4140
 0.6820	 5.5020
 0.6830	 5.6240
 0.6840	 5.7770
 0.6850	 5.9690
 0.6860	 6.2070
 0.6870	 6.4970
 0.6880	 6.8430
 0.6890	 7.2510
 0.6900	 7.7200
 0.6910	 8.2500
 0.6920	 8.8440
 0.6930	 9.5050
 0.6940	10.2270
 0.6950	11.0000
 0.6960	11.8270
 0.6970	12.7000
 0.6980	13.6110
 0.6990	14.5580
 0.7000	15.5360
 0.7010	16.5370
 0.7020	17.5530
 0.7030	18.5810
 0.7040	19.6160
 0.7050	20.6520
 0.7060	21.6810
 0.7070	22.7130
 0.7080	23.7460
 0.7090	24.7780
 0.7100	25.8170
 0.7110	26.8610
 0.7120	27.9050
 0.7130	28.9440
 0.7140	29.9900
 0.7150	31.0400
 0.7160	32.0890
 0.7170	33.1340
 0.7180	34.1750
 0.7190	35.2100
 0.7200	36.2390
 0.7210	37.2640
 0.7220	38.2790
 0.7230	39.2780
 0.7240	40.2570
 0.7250	41.2110
 0.7260	42.1410
 0.7270	43.0460
 0.7280	43.9210
 0.7290	44.7630
 0.7300	45.5720
 0.7310	46.3480
 0.7320	47.0910
 0.7330	47.8000
 0.7340	48.4750
 0.7350	49.1180
 0.7360	49.7270
 0.7370	50.3030
 0.7380	50.8480
 0.7390	51.3650
 0.7400	51.8530
 0.7410	52.3110
 0.7420	52.7420
 0.7430	53.1410
 0.7440	53.5170
 0.7450	53.8700
 0.7460	54.1970
 0.7470	54.5020
 0.7480	54.7840
 0.7490	55.0450
 0.7500	55.2870
 0.7510	55.5100
 0.7520	55.7170
 0.7530	55.9100
 0.7540	56.0870
 0.7550	56.2480
 0.7560	56.3950
 0.7570	56.5340
 0.7580	56.6630
 0.7590	56.7790
 0.7600	56.8850
 0.7610	56.9910
 0.7620	57.0900
 0.7630	57.1790
 0.7640	57.2580
 0.7650	57.3380
 0.7660	57.4130
 0.7670	57.4820
 0.7680	57.5480
 0.7690	57.6080
 0.7700	57.6670
 0.7710	57.7260
 0.7720	57.7780
 0.7730	57.8290
 0.7740	57.8750
 0.7750	57.9170
 0.7760	57.9680
 0.7770	58.0190
 0.7780	58.0660
 0.7790	58.1070
 0.7800	58.1460
 0.7810	58.1900
 0.7820	58.2380
 0.7830	58.2760
 0.7840	58.3140
 0.7850	58.3540
 0.7860	58.3950
 0.7870	58.4240
 0.7880	58.4580
 0.7890	58.4960
 0.7900	58.5330
 0.7910	58.5650
 0.7920	58.6010
 0.7930	58.6370
 0.7940	58.6640
 0.7950	58.6950
 0.7960	58.7250
 0.7970	58.7530
 0.7980	58.7830
 0.7990	58.8080
 0.8000	58.8330
 0.8010	58.8620
 0.8020	58.8910
 0.8030	58.9160
 0.8040	58.9360
 0.8050	58.9540
 0.8060	58.9710
 0.8070	58.9920
 0.8080	59.0160
 0.8090	59.0350
 0.8100	59.0500
 0.8110	59.0640
 0.8120	59.0800
 0.8130	59.1010
 0.8140	59.1190
 0.8150	59.1320
 0.8160	59.1400
 0.8170	59.1550
 0.8180	59.1640
 0.8190	59.1710
 0.8200	59.1870
 0.8210	59.1910
 0.8220	59.1960
 0.8230	59.2050
 0.8240	59.2130
 0.8250	59.2080
 0.8260	59.2050
 0.8270	59.2090
 0.8280	59.1970
 0.8290	59.1780
 0.8300	59.1640
 0.8310	59.1570
 0.8320	59.1440
 0.8330	59.1360
 0.8340	59.1350
 0.8350	59.1370
 0.8360	59.1380
 0.8370	59.1430
 0.8380	59.1500
 0.8390	59.1570
 0.8400	59.1780
 0.8410	59.1930
 0.8420	59.1980
 0.8430	59.2130
 0.8440	59.2250
 0.8450	59.2380
 0.8460	59.2540
 0.8470	59.2640
 0.8480	59.2770
 0.8490	59.2940
 0.8500	59.3130
 0.8510	59.3290
 0.8520	59.3440
 0.8530	59.3600
 0.8540	59.3810
 0.8550	59.3900
 0.8560	59.4000
 0.8570	59.4160
 0.8580	59.4270
 0.8590	59.4390
 0.8600	59.4520
 0.8610	59.4640
 0.8620	59.4770
 0.8630	59.4890
 0.8640	59.4990
 0.8650	59.5080
 0.8660	59.5290
 0.8670	59.5400
 0.8680	59.5440
 0.8690	59.5520
 0.8700	59.5630
 0.8710	59.5690
 0.8720	59.5740
 0.8730	59.5920
 0.8740	59.6000
 0.8750	59.6120
 0.8760	59.6260
 0.8770	59.6260
 0.8780	59.6340
 0.8790	59.6430
 0.8800	59.6470
 0.8810	59.6460
 0.8820	59.6500
 0.8830	59.6520
 0.8840	59.6460
 0.8850	59.6510
 0.8860	59.6570
 0.8870	59.6560
 0.8880	59.6480
 0.8890	59.6480
 0.8900	59.6370
 0.8910	59.6270
 0.8920	59.6350
 0.8930	59.6280
 0.8940	59.6250
 0.8950	59.6260
 0.8960	59.6200
 0.8970	59.6100
 0.8980	59.6080
 0.8990	59.6050
 0.9000	59.5800
 0.9010	59.5700
 0.9020	59.5660
 0.9030	59.5610
 0.9040	59.5590
 0.9050	59.5420
 0.9060	59.5240
 0.9070	59.5150
 0.9080	59.4940
 0.9090	59.4810
 0.9100	59.4720
 0.9110	59.4600
 0.9120	59.4420
 0.9130	59.4280
 0.9140	59.4110
 0.9150	59.3870
 0.9160	59.3620
 0.9170	59.3240
 0.9180	59.2870
 0.9190	59.2710
 0.9200	59.2360
 0.9210	59.1880
 0.9220	59.1330
 0.9230	59.0790
 0.9240	59.0230
 0.9250	58.9660
 0.9260	58.9050
 0.9270	58.8340
 0.9280	58.7420
 0.9290	58.6470
 0.9300	58.5560
 0.9310	58.4610
 0.9320	58.3590
 0.9330	58.2450
 0.9340	58.1250
 0.9350	58.0230
 0.9360	57.9110
 0.9370	57.7860
 0.9380	57.6520
 0.9390	57.5110
 0.9400	57.3670
 0.9410	57.2160
 0.9420	57.0600
 0.9430	56.9160
 0.9440	56.7590
 0.9450	56.5730
 0.9460	56.3590
 0.9470	56.1440
 0.9480	55.9270
 0.9490	55.6950
 0.9500	55.4380
 0.9510	55.1740
 0.9520	54.9120
 0.9530	54.6490
 0.9540	54.3840
 0.9550	54.1220
 0.9560	53.8600
 0.9570	53.6110
 0.9580	53.3890
 0.9590	53.1750
 0.9600	52.9760
 0.9610	52.8100
 0.9620	52.6820
 0.9630	52.5420
 0.9640	52.4420
 0.9650	52.3510
 0.9660	52.2330
 0.9670	52.1860
 0.9680	52.1330
 0.9690	52.0700
 0.9700	52.0200
 0.9710	51.9820
 0.9720	51.9480
 0.9730	51.9260
 0.9740	51.9240
 0.9750	51.9060
 0.9760	51.9000
 0.9770	51.9020
 0.9780	51.8960
 0.9790	51.9020
 0.9800	51.9360
 0.9810	51.9690
 0.9820	51.9740
 0.9830	52.0060
 0.9840	52.0450
 0.9850	52.0910
 0.9860	52.1560
 0.9870	52.2150
 0.9880	52.2920
 0.9890	52.3690
 0.9900	52.4200
 0.9910	52.5110
 0.9920	52.6510
 0.9930	52.7910
 0.9940	52.9310
 0.9950	53.0710
 0.9960	53.2110
 0.9970	53.3510
 0.9980	53.4910
 0.9990	53.6310
 1.0000	53.7710
 1.0010	53.9110
 1.0020	54.0510
 1.0030	54.1910
 1.0040	54.3320
 1.0050	54.4720
 1.0060	54.6120
 1.0070	54.7520
 1.0080	54.8920
 1.0090	55.0320
 1.0100	55.0320
 1.0110	55.1430
 1.0120	55.2530
 1.0130	55.3620
 1.0140	55.4710
 1.0150	55.5820
 1.0160	55.6870
 1.0170	55.7990
 1.0180	55.9140
 1.0190	56.0250
 1.0200	56.1390
 1.0210	56.2470
 1.0220	56.3540
 1.0230	56.4650
 1.0240	56.5830
 1.0250	56.6920
 1.0260	56.7960
 1.0270	56.9030
 1.0280	57.0080
 1.0290	57.1100
 1.0300	57.2160
 1.0310	57.3170
 1.0320	57.4130
 1.0330	57.5020
 1.0340	57.5980
 1.0350	57.6920
 1.0360	57.7830
 1.0370	57.8760
 1.0380	57.9640
 1.0390	58.0470
 1.0400	58.1300
 1.0410	58.2110
 1.0420	58.2900
 1.0430	58.3690
 1.0440	58.4420
 1.0450	58.5130
 1.0460	58.5790
 1.0470	58.6400
 1.0480	58.7010
 1.0490	58.7590
 1.0500	58.8170
 1.0510	58.8820
 1.0520	58.9370
 1.0530	58.9900
 1.0540	59.0410
 1.0550	59.0890
 1.0560	59.1320
 1.0570	59.1760
 1.0580	59.2220
 1.0590	59.2610
 1.0600	59.2950
 1.0610	59.3290
 1.0620	59.3600
 1.0630	59.3880
 1.0640	59.4170
 1.0650	59.4390
 1.0660	59.4490
 1.0670	59.4650
 1.0680	59.4820
 1.0690	59.4970
 1.0700	59.5110
 1.0710	59.5300
 1.0720	59.5390
 1.0730	59.5400
 1.0740	59.5410
 1.0750	59.5390
 1.0760	59.5340
 1.0770	59.5280
 1.0780	59.5180
 1.0790	59.5070
 1.0800	59.4890
 1.0810	59.4650
 1.0820	59.4410
 1.0830	59.4130
 1.0840	59.3830
 1.0850	59.3500
 1.0860	59.3200
 1.0870	59.2850
 1.0880	59.2500
 1.0890	59.2100
 1.0900	59.1680
 1.0910	59.1240
 1.0920	59.0780
 1.0930	59.0290
 1.0940	58.9800
 1.0950	58.9260
 1.0960	58.8660
 1.0970	58.8060
 1.0980	58.7420
 1.0990	58.6800
 1.1000	58.6180
 1.1010	58.5530
 1.1020	58.4880
 1.1030	58.4200
 1.1040	58.3500
 1.1050	58.2800
 1.1060	58.2090
 1.1070	58.1390
 1.1080	58.0640
 1.1090	57.9890
 1.1100	57.9090
 1.1110	57.8260
 1.1120	57.7390
 1.1130	57.6510
 1.1140	57.5560
 1.1150	57.4610
 1.1160	57.3550
 1.1170	57.2490
 1.1180	57.1260
 1.1190	56.9920
 1.1200	56.8470
 1.1210	56.6910
 1.1220	56.5220
 1.1230	56.3390
 1.1240	56.1410
 1.1250	55.9220
 1.1260	55.6860
 1.1270	55.4280
 1.1280	55.1550
 1.1290	54.8550
 1.1300	54.5340
 1.1310	54.1890
 1.1320	53.8190
 1.1330	53.4300
 1.1340	53.0170
 1.1350	52.5890
 1.1360	52.1400
 1.1370	51.6760
 1.1380	51.2010
 1.1390	50.7180
 1.1400	50.2250
 1.1410	49.7350
 1.1420	49.2510
 1.1430	48.7700
 1.1440	48.3040
 1.1450	47.8470
 1.1460	47.4080
 1.1470	46.9750
 1.1480	46.5720
 1.1490	46.1850
 1.1500	45.8290
 1.1510	45.4970
 1.1520	45.1900
 1.1530	44.9080
 1.1540	44.6500
 1.1550	44.4150
 1.1560	44.2040
 1.1570	44.0180
 1.1580	43.8550
 1.1590	43.7090
 1.1600	43.5790
 1.1610	43.4650
 1.1620	43.3630
 1.1630	43.2760
 1.1640	43.2000
 1.1650	43.1320
 1.1660	43.0770
 1.1670	43.0240
 1.1680	42.9780
 1.1690	42.9360
 1.1700	42.9010
 1.1710	42.8650
 1.1720	42.8350
 1.1730	42.8010
 1.1740	42.7680
 1.1750	42.7340
 1.1760	42.7000
 1.1770	42.6650
 1.1780	42.6280
 1.1790	42.5910
 1.1800	42.5510
 1.1810	42.5100
 1.1820	42.4710
 1.1830	42.4310
 1.1840	42.3900
 1.1850	42.3520
 1.1860	42.3160
 1.1870	42.2820
 1.1880	42.2510
 1.1890	42.2220
 1.1900	42.1970
 1.1910	42.1760
 1.1920	42.1590
 1.1930	42.1470
 1.1940	42.1370
 1.1950	42.1270
 1.1960	42.1210
 1.1970	42.1210
 1.1980	42.1250
 1.1990	42.1350
 1.2000	42.1490
 1.2010	42.1650
 1.2020	42.1850
 1.2030	42.2080
 1.2040	42.2370
 1.2050	42.2680
 1.2060	42.3050
 1.2070	42.3440
 1.2080	42.3840
 1.2090	42.4280
 1.2100	42.4760
 1.2110	42.5270
 1.2120	42.5800
 1.2130	42.6390
 1.2140	42.7020
 1.2150	42.7670
 1.2160	42.8350
 1.2170	42.9060
 1.2180	42.9760
 1.2190	43.0470
 1.2200	43.1210
 1.2210	43.1940
 1.2220	43.2650
 1.2230	43.3370
 1.2240	43.4080
 1.2250	43.4790
 1.2260	43.5530
 1.2270	43.6240
 1.2280	43.6930
 1.2290	43.7600
 1.2300	43.8250
 1.2310	43.8870
 1.2320	43.9510
 1.2330	44.0130
 1.2340	44.0720
 1.2350	44.1290
 1.2360	44.1860
 1.2370	44.2410
 1.2380	44.2950
 1.2390	44.3500
 1.2400	44.4040
 1.2410	44.4560
 1.2420	44.5060
 1.2430	44.5550
 1.2440	44.6040
 1.2450	44.6510
 1.2460	44.6970
 1.2470	44.7420
 1.2480	44.7860
 1.2490	44.8280
 1.2500	44.8660
 1.2510	44.9020
 1.2520	44.9370
 1.2530	44.9710
 1.2540	45.0020
 1.2550	45.0330
 1.2560	45.0600
 1.2570	45.0820
 1.2580	45.1040
 1.2590	45.1230
 1.2600	45.1390
 1.2610	45.1530
 1.2620	45.1640
 1.2630	45.1710
 1.2640	45.1760
 1.2650	45.1810
 1.2660	45.1840
 1.2670	45.1840
 1.2680	45.1820
 1.2690	45.1730
 1.2700	45.1580
 1.2710	45.1400
 1.2720	45.1180
 1.2730	45.0950
 1.2740	45.0700
 1.2750	45.0420
 1.2760	45.0120
 1.2770	44.9770
 1.2780	44.9370
 1.2790	44.8940
 1.2800	44.8480
 1.2810	44.7980
 1.2820	44.7430
 1.2830	44.6850
 1.2840	44.6230
 1.2850	44.5560
 1.2860	44.4860
 1.2870	44.4100
 1.2880	44.3300
 1.2890	44.2430
 1.2900	44.1530
 1.2910	44.0580
 1.2920	43.9590
 1.2930	43.8570
 1.2940	43.7490
 1.2950	43.6360
 1.2960	43.5190
 1.2970	43.3970
 1.2980	43.2690
 1.2990	43.1340
 1.3000	42.9960
 1.3010	42.8530
 1.3020	42.7050
 1.3030	42.5510
 1.3040	42.3880
 1.3050	42.2200
 1.3060	42.0480
 1.3070	41.8720
 1.3080	41.6940
 1.3090	41.5100
 1.3100	41.3180
 1.3110	41.1210
 1.3120	40.9180
 1.3130	40.7100
 1.3140	40.4970
 1.3150	40.2800
 1.3160	40.0580
 1.3170	39.8300
 1.3180	39.5990
 1.3190	39.3620
 1.3200	39.1210
 1.3210	38.8750
 1.3220	38.6250
 1.3230	38.3740
 1.3240	38.1200
 1.3250	37.8680
 1.3260	37.6160
 1.3270	37.3580
 1.3280	37.1000
 1.3290	36.8400
 1.3300	36.5780
 1.3310	36.3170
 1.3320	36.0570
 1.3330	35.8000
 1.3340	35.5440
 1.3350	35.2890
 1.3360	35.0380
 1.3370	34.7880
 1.3380	34.5420
 1.3390	34.3000
 1.3400	34.0620
 1.3410	33.8300
 1.3420	33.6020
 1.3430	33.3760
 1.3440	33.1540
 1.3450	32.9370
 1.3460	32.7240
 1.3470	32.5160
 1.3480	32.3140
 1.3490	32.1140
 1.3500	31.9190
 1.3510	31.7270
 1.3520	31.5370
 1.3530	31.3490
 1.3540	31.1610
 1.3550	30.9770
 1.3560	30.7940
 1.3570	30.6090
 1.3580	30.4260
 1.3590	30.2400
 1.3600	30.0510
 1.3610	29.8600
 1.3620	29.6620
 1.3630	29.4580
 1.3640	29.2470
 1.3650	29.0260
 1.3660	28.8000
 1.3670	28.5640
 1.3680	28.3160
 1.3690	28.0560
 1.3700	27.7810
 1.3710	27.4930
 1.3720	27.1900
 1.3730	26.8690
 1.3740	26.5330
 1.3750	26.1800
 1.3760	25.8060
 1.3770	25.4140
 1.3780	25.0000
 1.3790	24.5680
 1.3800	24.1190
 1.3810	23.6510
 1.3820	23.1750
 1.3830	22.6850
 1.3840	22.1880
 1.3850	21.6770
 1.3860	21.1660
 1.3870	20.6430
 1.3880	20.1270
 1.3890	19.6100
 1.3900	19.0950
 1.3910	18.5900
 1.3920	18.0890
 1.3930	17.5960
 1.3940	17.1170
 1.3950	16.6450
 1.3960	16.1870
 1.3970	15.7470
 1.3980	15.3230
 1.3990	14.9210
 1.4000	14.5370
 1.4010	14.1690
 1.4020	13.8220
 1.4030	13.4910
 1.4040	13.1790
 1.4050	12.8860
 1.4060	12.6110
 1.4070	12.3540
 1.4080	12.1140
 1.4090	11.8880
 1.4100	11.6790
 1.4110	11.4840
 1.4120	11.3030
 1.4130	11.1350
 1.4140	10.9780
 1.4150	10.8350
 1.4160	10.7020
 1.4170	10.5800
 1.4180	10.4670
 1.4190	10.3630
 1.4200	10.2660
 1.4210	10.1780
 1.4220	10.0960
 1.4230	10.0200
 1.4240	 9.9510
 1.4250	 9.8870
 1.4260	 9.8290
 1.4270	 9.7750
 1.4280	 9.7280
 1.4290	 9.6830
 1.4300	 9.6430
 1.4310	 9.6070
 1.4320	 9.5740
 1.4330	 9.5450
 1.4340	 9.5190
 1.4350	 9.4970
 1.4360	 9.4770
 1.4370	 9.4600
 1.4380	 9.4450
 1.4390	 9.4330
 1.4400	 9.4220
 1.4410	 9.4130
 1.4420	 9.4080
 1.4430	 9.4040
 1.4440	 9.4030
 1.4450	 9.4030
 1.4460	 9.4040
 1.4470	 9.4060
 1.4480	 9.4090
 1.4490	 9.4140
 1.4500	 9.4200
 1.4510	 9.4260
 1.4520	 9.4340
 1.4530	 9.4430
 1.4540	 9.4540
 1.4550	 9.4670
 1.4560	 9.4820
 1.4570	 9.4990
 1.4580	 9.5170
 1.4590	 9.5380
 1.4600	 9.5610
 1.4610	 9.5860
 1.4620	 9.6160
 1.4630	 9.6480
 1.4640	 9.6820
 1.4650	 9.7190
 1.4660	 9.7600
 1.4670	 9.8030
 1.4680	 9.8500
 1.4690	 9.9000
 1.4700	 9.9530
 1.4710	10.0090
 1.4720	10.0670
 1.4730	10.1270
 1.4740	10.1900
 1.4750	10.2530
 1.4760	10.3210
 1.4770	10.3890
 1.4780	10.4590
 1.4790	10.5320
 1.4800	10.6050
 1.4810	10.6790
 1.4820	10.7560
 1.4830	10.8330
 1.4840	10.9130
 1.4850	10.9930
 1.4860	11.0740
 1.4870	11.1560
 1.4880	11.2400
 1.4890	11.3240
 1.4900	11.4090
 1.4910	11.4950
 1.4920	11.5810
 1.4930	11.6670
 1.4940	11.7540
 1.4950	11.8420
 1.4960	11.9310
 1.4970	12.0200
 1.4980	12.1090
 1.4990	12.2000
 1.5000	12.2900
 1.5010	12.3810
 1.5020	12.4720
 1.5030	12.5650
 1.5040	12.6570
 1.5050	12.7490
 1.5060	12.8420
 1.5070	12.9350
 1.5080	13.0280
 1.5090	13.1210
 1.5100	13.2150
 1.5110	13.3080
 1.5120	13.4010
 1.5130	13.4930
 1.5140	13.5880
 1.5150	13.6820
 1.5160	13.7760
 1.5170	13.8710
 1.5180	13.9640
 1.5190	14.0560
 1.5200	14.1480
 1.5210	14.2390
 1.5220	14.3310
 1.5230	14.4230
 1.5240	14.5150
 1.5250	14.6080
 1.5260	14.7000
 1.5270	14.7920
 1.5280	14.8830
 1.5290	14.9740
 1.5300	15.0650
 1.5310	15.1550
 1.5320	15.2450
 1.5330	15.3350
 1.5340	15.4230
 1.5350	15.5110
 1.5360	15.5990
 1.5370	15.6850
 1.5380	15.7720
 1.5390	15.8580
 1.5400	15.9430
 1.5410	16.0290
 1.5420	16.1150
 1.5430	16.2010
 1.5440	16.2880
 1.5450	16.3740
 1.5460	16.4580
 1.5470	16.5420
 1.5480	16.6240
 1.5490	16.7070
 1.5500	16.7900
 1.5510	16.8710
 1.5520	16.9530
 1.5530	17.0330
 1.5540	17.1120
 1.5550	17.1930
 1.5560	17.2730
 1.5570	17.3530
 1.5580	17.4320
 1.5590	17.5090
 1.5600	17.5860
 1.5610	17.6610
 1.5620	17.7350
 1.5630	17.8100
 1.5640	17.8840
 1.5650	17.9590
 1.5660	18.0330
 1.5670	18.1060
 1.5680	18.1790
 1.5690	18.2510
 1.5700	18.3220
 1.5710	18.3940
 1.5720	18.4640
 1.5730	18.5340
 1.5740	18.6040
 1.5750	18.6730
 1.5760	18.7430
 1.5770	18.8130
 1.5780	18.8810
 1.5790	18.9500
 1.5800	19.0180
 1.5810	19.0850
 1.5820	19.1520
 1.5830	19.2180
 1.5840	19.2850
 1.5850	19.3510
 1.5860	19.4180
 1.5870	19.4820
 1.5880	19.5460
 1.5890	19.6090
 1.5900	19.6720
 1.5910	19.7350
 1.5920	19.7980
 1.5930	19.8600
 1.5940	19.9210
 1.5950	19.9830
 1.5960	20.0460
 1.5970	20.1070
 1.5980	20.1690
 1.5990	20.2290
 1.6000	20.2880
 1.6010	20.3450
 1.6020	20.4020
 1.6030	20.4590
 1.6040	20.5140
 1.6050	20.5690
 1.6060	20.6250
 1.6070	20.6800
 1.6080	20.7350
 1.6090	20.7880
 1.6100	20.8390
 1.6110	20.8900
 1.6120	20.9400
 1.6130	20.9900
 1.6140	21.0410
 1.6150	21.0920
 1.6160	21.1420
 1.6170	21.1910
 1.6180	21.2400
 1.6190	21.2890
 1.6200	21.3360
 1.6210	21.3840
 1.6220	21.4290
 1.6230	21.4720
 1.6240	21.5150
 1.6250	21.5560
 1.6260	21.5980
 1.6270	21.6400
 1.6280	21.6820
 1.6290	21.7220
 1.6300	21.7610
 1.6310	21.7990
 1.6320	21.8350
 1.6330	21.8720
 1.6340	21.9090
 1.6350	21.9430
 1.6360	21.9770
 1.6370	22.0090
 1.6380	22.0390
 1.6390	22.0680
 1.6400	22.0960
 1.6410	22.1210
 1.6420	22.1430
 1.6430	22.1650
 1.6440	22.1850
 1.6450	22.2050
 1.6460	22.2220
 1.6470	22.2370
 1.6480	22.2480
 1.6490	22.2590
 1.6500	22.2670
 1.6510	22.2740
 1.6520	22.2800
 1.6530	22.2830
 1.6540	22.2830
 1.6550	22.2800
 1.6560	22.2760
 1.6570	22.2710
 1.6580	22.2670
 1.6590	22.2610
 1.6600	22.2550
 1.6610	22.2480
 1.6620	22.2430
 1.6630	22.2370
 1.6640	22.2330
 1.6650	22.2280
 1.6660	22.2230
 1.6670	22.2180
 1.6680	22.2140
 1.6690	22.2100
 1.6700	22.2050
 1.6710	22.1980
 1.6720	22.1910
 1.6730	22.1850
 1.6740	22.1780
 1.6750	22.1700
 1.6760	22.1610
 1.6770	22.1490
 1.6780	22.1350
 1.6790	22.1190
 1.6800	22.1020
 1.6810	22.0840
 1.6820	22.0640
 1.6830	22.0390
 1.6840	22.0140
 1.6850	21.9850
 1.6860	21.9540
 1.6870	21.9230
 1.6880	21.8900
 1.6890	21.8540
 1.6900	21.8180
 1.6910	21.7800
 1.6920	21.7410
 1.6930	21.7010
 1.6940	21.6590
 1.6950	21.6150
 1.6960	21.5690
 1.6970	21.5210
 1.6980	21.4730
 1.6990	21.4230
 1.7000	21.3740
 1.7010	21.3240
 1.7020	21.2740
 1.7030	21.2240
 1.7040	21.1740
 1.7050	21.1220
 1.7060	21.0710
 1.7070	21.0190
 1.7080	20.9690
 1.7090	20.9200
 1.7100	20.8710
 1.7110	20.8240
 1.7120	20.7760
 1.7130	20.7290
 1.7140	20.6840
 1.7150	20.6390
 1.7160	20.5960
 1.7170	20.5540
 1.7180	20.5100
 1.7190	20.4660
 1.7200	20.4230
 1.7210	20.3810
 1.7220	20.3390
 1.7230	20.2980
 1.7240	20.2580
 1.7250	20.2180
 1.7260	20.1800
 1.7270	20.1440
 1.7280	20.1080
 1.7290	20.0720
 1.7300	20.0400
 1.7310	20.0070
 1.7320	19.9780
 1.7330	19.9450
 1.7340	19.9120
 1.7350	19.8770
 1.7360	19.8430
 1.7370	19.8040
 1.7380	19.7650
 1.7390	19.7220
 1.7400	19.6750
 1.7410	19.6250
 1.7420	19.5720
 1.7430	19.5200
 1.7440	19.4650
 1.7450	19.4090
 1.7460	19.3530
 1.7470	19.2950
 1.7480	19.2350
 1.7490	19.1750
 1.7500	19.1140
 1.7510	19.0550
 1.7520	18.9960
 1.7530	18.9390
 1.7540	18.8840
 1.7550	18.8280
 1.7560	18.7740
 1.7570	18.7210
 1.7580	18.6680
 1.7590	18.6190
 1.7600	18.5690
 1.7610	18.5230
 1.7620	18.4780
 1.7630	18.4340
 1.7640	18.3910
 1.7650	18.3500
 1.7660	18.3120
 1.7670	18.2770
 1.7680	18.2420
 1.7690	18.2090
 1.7700	18.1760
 1.7710	18.1430
 1.7720	18.1110
 1.7730	18.0810
 1.7740	18.0530
 1.7750	18.0270
 1.7760	18.0010
 1.7770	17.9750
 1.7780	17.9510
 1.7790	17.9270
 1.7800	17.9050
 1.7810	17.8850
 1.7820	17.8660
 1.7830	17.8480
 1.7840	17.8320
 1.7850	17.8180
 1.7860	17.8030
 1.7870	17.7880
 1.7880	17.7750
 1.7890	17.7650
 1.7900	17.7590
 1.7910	17.7530
 1.7920	17.7520
 1.7930	17.7490
 1.7940	17.7460
 1.7950	17.7460
 1.7960	17.7460
 1.7970	17.7460
 1.7980	17.7470
 1.7990	17.7490
 1.8000	17.7510
 1.8010	17.7540
 1.8020	17.7600
 1.8030	17.7650
 1.8040	17.7710
 1.8050	17.7770
 1.8060	17.7850
 1.8070	17.7920
 1.8080	17.7980
 1.8090	17.8040
 1.8100	17.8110
 1.8110	17.8150
 1.8120	17.8170
 1.8130	17.8190
 1.8140	17.8200
 1.8150	17.8250
 1.8160	17.8290
 1.8170	17.8290
 1.8180	17.8290
 1.8190	17.8240
 1.8200	17.8220
 1.8210	17.8230
 1.8220	17.8190
 1.8230	17.8130
 1.8240	17.8070
 1.8250	17.7990
 1.8260	17.7890
 1.8270	17.7560
 1.8280	17.7240
 1.8290	17.6910
 1.8300	17.6590
 1.8310	17.6260
 1.8320	17.5940
 1.8330	17.5610
 1.8340	17.5280
 1.8350	17.5280
 1.8360	17.4880
 1.8370	17.4410
 1.8380	17.3960
 1.8390	17.3460
 1.8400	17.2900
 1.8410	17.2320
 1.8420	17.1750
 1.8430	17.1080
 1.8440	17.0340
 1.8450	16.9540
 1.8460	16.8650
 1.8470	16.7700
 1.8480	16.6680
 1.8490	16.5590
 1.8500	16.4430
 1.8510	16.3230
 1.8520	16.1930
 1.8530	16.0510
 1.8540	15.9000
 1.8550	15.7360
 1.8560	15.5630
 1.8570	15.3830
 1.8580	15.1960
 1.8590	14.9980
 1.8600	14.7900
 1.8610	14.5720
 1.8620	14.3470
 1.8630	14.1070
 1.8640	13.8560
 1.8650	13.5980
 1.8660	13.3250
 1.8670	13.0420
 1.8680	12.7520
 1.8690	12.4490
 1.8700	12.1380
 1.8710	11.8160
 1.8720	11.4910
 1.8730	11.1610
 1.8740	10.8290
 1.8750	10.4980
 1.8760	10.1620
 1.8770	 9.8250
 1.8780	 9.4900
 1.8790	 9.1540
 1.8800	 8.8280
 1.8810	 8.5070
 1.8820	 8.1920
 1.8830	 7.8810
 1.8840	 7.5760
 1.8850	 7.2740
 1.8860	 6.9820
 1.8870	 6.6990
 1.8880	 6.4270
 1.8890	 6.1710
 1.8900	 5.9270
 1.8910	 5.6960
 1.8920	 5.4750
 1.8930	 5.2720
 1.8940	 5.0790
 1.8950	 4.9000
 1.8960	 4.7360
 1.8970	 4.5850
 1.8980	 4.4460
 1.8990	 4.3170
 1.9000	 4.1970
 1.9010	 4.0890
 1.9020	 3.9880
 1.9030	 3.8960
 1.9040	 3.8160
 1.9050	 3.7420
 1.9060	 3.6750
 1.9070	 3.6180
 1.9080	 3.5640
 1.9090	 3.5160
 1.9100	 3.4760
 1.9110	 3.4390
 1.9120	 3.4080
 1.9130	 3.3780
 1.9140	 3.3510
 1.9150	 3.3260
 1.9160	 3.3040
 1.9170	 3.2810
 1.9180	 3.2630
 1.9190	 3.2480
 1.9200	 3.2350
 1.9210	 3.2260
 1.9220	 3.2180
 1.9230	 3.2140
 1.9240	 3.2090
 1.9250	 3.2040
 1.9260	 3.2000
 1.9270	 3.1960
 1.9280	 3.1950
 1.9290	 3.1970
 1.9300	 3.2000
 1.9310	 3.2070
 1.9320	 3.2130
 1.9330	 3.2190
 1.9340	 3.2260
 1.9350	 3.2350
 1.9360	 3.2440
 1.9370	 3.2530
 1.9380	 3.2630
 1.9390	 3.2740
 1.9400	 3.2850
 1.9410	 3.2970
 1.9420	 3.3130
 1.9430	 3.3300
 1.9440	 3.3470
 1.9450	 3.3640
 1.9460	 3.3810
 1.9470	 3.3960
 1.9480	 3.4140
 1.9490	 3.4330
 1.9500	 3.4530
 1.9510	 3.4750
 1.9520	 3.4970
 1.9530	 3.5180
 1.9540	 3.5390
 1.9550	 3.5600
 1.9560	 3.5790
 1.9570	 3.6020
 1.9580	 3.6270
 1.9590	 3.6510
 1.9600	 3.6760
 1.9610	 3.7020
 1.9620	 3.7290
 1.9630	 3.7540
 1.9640	 3.7810
 1.9650	 3.8090
 1.9660	 3.8380
 1.9670	 3.8670
 1.9680	 3.8970
 1.9690	 3.9280
 1.9700	 3.9590
 1.9710	 3.9890
 1.9720	 4.0200
 1.9730	 4.0490
 1.9740	 4.0790
 1.9750	 4.1120
 1.9760	 4.1440
 1.9770	 4.1780
 1.9780	 4.2120
 1.9790	 4.2460
 1.9800	 4.2810
 1.9810	 4.3150
 1.9820	 4.3470
 1.9830	 4.3810
 1.9840	 4.4140
 1.9850	 4.4490
 1.9860	 4.4850
 1.9870	 4.5240
 1.9880	 4.5640
 1.9890	 4.6020
 1.9900	 4.6390
 1.9910	 4.6780
 1.9920	 4.7170
 1.9930	 4.7560
 1.9940	 4.7950
 1.9950	 4.8340
 1.9960	 4.8720
 1.9970	 4.9070
 1.9980	 4.9450
 1.9990	 4.9820
 2.0000	 5.0200
 2.0010	 5.0600
 2.0020	 5.1000
 2.0030	 5.1420
 2.0040	 5.1840
 2.0050	 5.2240
 2.0060	 5.2630
 2.0070	 5.3010
 2.0080	 5.3370
 2.0090	 5.3740
 2.0100	 5.4100
 2.0110	 5.4490
 2.0120	 5.4880
 2.0130	 5.5290
 2.0140	 5.5690
 2.0150	 5.6080
 2.0160	 5.6470
 2.0170	 5.6840
 2.0180	 5.7220
 2.0190	 5.7610
 2.0200	 5.8000
 2.0210	 5.8390
 2.0220	 5.8770
 2.0230	 5.9160
 2.0240	 5.9530
 2.0250	 5.9870
 2.0260	 6.0220
 2.0270	 6.0570
 2.0280	 6.0920
 2.0290	 6.1270
 2.0300	 6.1600
 2.0310	 6.1940
 2.0320	 6.2270
 2.0330	 6.2610
 2.0340	 6.2960
 2.0350	 6.3310
 2.0360	 6.3660
 2.0370	 6.4000
 2.0380	 6.4320
 2.0390	 6.4650
 2.0400	 6.4980
 2.0410	 6.5310
 2.0420	 6.5670
 2.0430	 6.6000
 2.0440	 6.6320
 2.0450	 6.6620
 2.0460	 6.6910
 2.0470	 6.7180
 2.0480	 6.7460
 2.0490	 6.7730
 2.0500	 6.8020
 2.0510	 6.8310
 2.0520	 6.8610
 2.0530	 6.8920
 2.0540	 6.9220
 2.0550	 6.9520
 2.0560	 6.9820
 2.0570	 7.0130
 2.0580	 7.0450
 2.0590	 7.0770
 2.0600	 7.1080
 2.0610	 7.1400
 2.0620	 7.1720
 2.0630	 7.2040
 2.0640	 7.2350
 2.0650	 7.2680
 2.0660	 7.3010
 2.0670	 7.3340
 2.0680	 7.3680
 2.0690	 7.4000
 2.0700	 7.4280
 2.0710	 7.4590
 2.0720	 7.4890
 2.0730	 7.5210
 2.0740	 7.5550
 2.0750	 7.5920
 2.0760	 7.6250
 2.0770	 7.6580
 2.0780	 7.6910
 2.0790	 7.7210
 2.0800	 7.7520
 2.0810	 7.7820
 2.0820	 7.8130
 2.0830	 7.8440
 2.0840	 7.8750
 2.0850	 7.9070
 2.0860	 7.9380
 2.0870	 7.9640
 2.0880	 7.9960
 2.0890	 8.0250
 2.0900	 8.0540
 2.0910	 8.0860
 2.0920	 8.1190
 2.0930	 8.1510
 2.0940	 8.1840
 2.0950	 8.2170
 2.0960	 8.2490
 2.0970	 8.2800
 2.0980	 8.3070
 2.0990	 8.3370
 2.1000	 8.3660
 2.1010	 8.3960
 2.1020	 8.4310
 2.1030	 8.4620
 2.1040	 8.4890
 2.1050	 8.5150
 2.1060	 8.5440
 2.1070	 8.5720
 2.1080	 8.6000
 2.1090	 8.6300
 2.1100	 8.6600
 2.1110	 8.6870
 2.1120	 8.7150
 2.1130	 8.7450
 2.1140	 8.7730
 2.1150	 8.7960
 2.1160	 8.8220
 2.1170	 8.8480
 2.1180	 8.8750
 2.1190	 8.9030
 2.1200	 8.9290
 2.1210	 8.9540
 2.1220	 8.9790
 2.1230	 9.0040
 2.1240	 9.0260
 2.1250	 9.0510
 2.1260	 9.0760
 2.1270	 9.1000
 2.1280	 9.1240
 2.1290	 9.1470
 2.1300	 9.1670
 2.1310	 9.1880
 2.1320	 9.2070
 2.1330	 9.2280
 2.1340	 9.2490
 2.1350	 9.2700
 2.1360	 9.2920
 2.1370	 9.3130
 2.1380	 9.3310
 2.1390	 9.3510
 2.1400	 9.3710
 2.1410	 9.3930
 2.1420	 9.4150
 2.1430	 9.4370
 2.1440	 9.4590
 2.1450	 9.4810
 2.1460	 9.5040
 2.1470	 9.5300
 2.1480	 9.5520
 2.1490	 9.5730
 2.1500	 9.5940
 2.1510	 9.6130
 2.1520	 9.6330
 2.1530	 9.6550
 2.1540	 9.6740
 2.1550	 9.6900
 2.1560	 9.7080
 2.1570	 9.7250
 2.1580	 9.7420
 2.1590	 9.7620
 2.1600	 9.7810
 2.1610	 9.7980
 2.1620	 9.8150
 2.1630	 9.8340
 2.1640	 9.8550
 2.1650	 9.8730
 2.1660	 9.8930
 2.1670	 9.9100
 2.1680	 9.9240
 2.1690	 9.9400
 2.1700	 9.9570
 2.1710	 9.9740
 2.1720	 9.9890
 2.1730	10.0050
 2.1740	10.0230
 2.1750	10.0380
 2.1760	10.0510
 2.1770	10.0660
 2.1780	10.0820
 2.1790	10.0980
 2.1800	10.1190
 2.1810	10.1370
 2.1820	10.1520
 2.1830	10.1670
 2.1840	10.1830
 2.1850	10.1990
 2.1860	10.2130
 2.1870	10.2240
 2.1880	10.2380
 2.1890	10.2510
 2.1900	10.2650
 2.1910	10.2810
 2.1920	10.2960
 2.1930	10.3090
 2.1940	10.3230
 2.1950	10.3380
 2.1960	10.3530
 2.1970	10.3690
 2.1980	10.3830
 2.1990	10.3990
 2.2000	10.4120
 2.2010	10.4250
 2.2020	10.4350
 2.2030	10.4380
 2.2040	10.4470
 2.2050	10.4560
 2.2060	10.4670
 2.2070	10.4770
 2.2080	10.4930
 2.2090	10.5030
 2.2100	10.5100
 2.2110	10.5160
 2.2120	10.5200
 2.2130	10.5230
 2.2140	10.5220
 2.2150	10.5240
 2.2160	10.5260
 2.2170	10.5290
 2.2180	10.5340
 2.2190	10.5350
 2.2200	10.5380
 2.2210	10.5350
 2.2220	10.5270
 2.2230	10.5220
 2.2240	10.5140
 2.2250	10.5070
 2.2260	10.5020
 2.2270	10.4940
 2.2280	10.4840
 2.2290	10.4700
 2.2300	10.4550
 2.2310	10.4360
 2.2320	10.4150
 2.2330	10.3910
 2.2340	10.3690
 2.2350	10.3460
 2.2360	10.3230
 2.2370	10.3020
 2.2380	10.2740
 2.2390	10.2430
 2.2400	10.2080
 2.2410	10.1650
 2.2420	10.1270
 2.2430	10.0900
 2.2440	10.0540
 2.2450	10.0220
 2.2460	 9.9850
 2.2470	 9.9470
 2.2480	 9.9070
 2.2490	 9.8630
 2.2500	 9.8210
 2.2510	 9.7810
 2.2520	 9.7380
 2.2530	 9.6930
 2.2540	 9.6510
 2.2550	 9.6070
 2.2560	 9.5660
 2.2570	 9.5310
 2.2580	 9.4910
 2.2590	 9.4500
 2.2600	 9.4080
 2.2610	 9.3640
 2.2620	 9.3180
 2.2630	 9.2730
 2.2640	 9.2320
 2.2650	 9.1910
 2.2660	 9.1530
 2.2670	 9.1130
 2.2680	 9.0720
 2.2690	 9.0320
 2.2700	 8.9910
 2.2710	 8.9510
 2.2720	 8.9130
 2.2730	 8.8770
 2.2740	 8.8430
 2.2750	 8.8090
 2.2760	 8.7780
 2.2770	 8.7440
 2.2780	 8.7070
 2.2790	 8.6720
 2.2800	 8.6370
 2.2810	 8.6040
 2.2820	 8.5760
 2.2830	 8.5430
 2.2840	 8.5110
 2.2850	 8.4770
 2.2860	 8.4390
 2.2870	 8.4020
 2.2880	 8.3670
 2.2890	 8.3300
 2.2900	 8.2930
 2.2910	 8.2530
 2.2920	 8.2110
 2.2930	 8.1680
 2.2940	 8.1230
 2.2950	 8.0800
 2.2960	 8.0350
 2.2970	 7.9950
 2.2980	 7.9570
 2.2990	 7.9210
 2.3000	 7.8840
 2.3010	 7.8530
 2.3020	 7.8240
 2.3030	 7.7890
 2.3040	 7.7580
 2.3050	 7.7310
 2.3060	 7.7030
 2.3070	 7.6790
 2.3080	 7.6560
 2.3090	 7.6340
 2.3100	 7.6210
 2.3110	 7.6140
 2.3120	 7.6030
 2.3130	 7.5960
 2.3140	 7.5870
 2.3150	 7.5760
 2.3160	 7.5660
 2.3170	 7.5590
 2.3180	 7.5470
 2.3190	 7.5300
 2.3200	 7.5140
 2.3210	 7.4990
 2.3220	 7.4820
 2.3230	 7.4630
 2.3240	 7.4450
 2.3250	 7.4280
 2.3260	 7.4090
 2.3270	 7.3910
 2.3280	 7.3680
 2.3290	 7.3400
 2.3300	 7.3120
 2.3310	 7.2790
 2.3320	 7.2480
 2.3330	 7.2160
 2.3340	 7.1850
 2.3350	 7.1580
 2.3360	 7.1260
 2.3370	 7.0900
 2.3380	 7.0590
 2.3390	 7.0270
 2.3400	 6.9970
 2.3410	 6.9750
 2.3420	 6.9460
 2.3430	 6.9060
 2.3440	 6.8780
 2.3450	 6.8520
 2.3460	 6.8260
 2.3470	 6.8090
 2.3480	 6.7850
 2.3490	 6.7550
 2.3500	 6.7280
 2.3510	 6.6980
 2.3520	 6.6740
 2.3530	 6.6530
 2.3540	 6.6360
 2.3550	 6.6220
 2.3560	 6.6070
 2.3570	 6.5860
 2.3580	 6.5620
 2.3590	 6.5370
 2.3600	 6.5120
 2.3610	 6.4870
 2.3620	 6.4600
 2.3630	 6.4410
 2.3640	 6.4210
 2.3650	 6.3970
 2.3660	 6.3790
 2.3670	 6.3580
 2.3680	 6.3310
 2.3690	 6.3080
 2.3700	 6.2870
 2.3710	 6.2570
 2.3720	 6.2290
 2.3730	 6.2060
 2.3740	 6.1760
 2.3750	 6.1450
 2.3760	 6.1230
 2.3770	 6.1010
 2.3780	 6.0760
 2.3790	 6.0560
 2.3800	 6.0320
 2.3810	 6.0080
 2.3820	 5.9890
 2.3830	 5.9670
 2.3840	 5.9350
 2.3850	 5.8980
 2.3860	 5.8640
 2.3870	 5.8350
 2.3880	 5.8190
 2.3890	 5.7980
 2.3900	 5.7690
 2.3910	 5.7510
 2.3920	 5.7300
 2.3930	 5.7100
 2.3940	 5.6910
 2.3950	 5.6550
 2.3960	 5.6170
 2.3970	 5.5830
 2.3980	 5.5500
 2.3990	 5.5220
 2.4000	 5.5010
 2.4010	 5.4840
 2.4020	 5.4700
 2.4030	 5.4590
 2.4040	 5.4400
 2.4050	 5.4150
 2.4060	 5.3900
 2.4070	 5.3650
 2.4080	 5.3380
 2.4090	 5.3170
 2.4100	 5.2940
 2.4110	 5.2580
 2.4120	 5.2280
 2.4130	 5.2030
 2.4140	 5.1690
 2.4150	 5.1380
 2.4160	 5.1080
 2.4170	 5.0660
 2.4180	 5.0320
 2.4190	 5.0080
 2.4200	 4.9850
 2.4210	 4.9710
 2.4220	 4.9530
 2.4230	 4.9460
 2.4240	 4.9310
 2.4250	 4.9070
 2.4260	 4.8910
 2.4270	 4.8580
 2.4280	 4.8240
 2.4290	 4.7940
 2.4300	 4.7610
 2.4310	 4.7310
 2.4320	 4.7030
 2.4330	 4.6770
 2.4340	 4.6500
 2.4350	 4.6330
 2.4360	 4.6080
 2.4370	 4.5760
 2.4380	 4.5490
 2.4390	 4.5130
 2.4400	 4.4860
 2.4410	 4.4730
 2.4420	 4.4500
 2.4430	 4.4280
 2.4440	 4.4110
 2.4450	 4.3890
 2.4460	 4.3710
 2.4470	 4.3470
 2.4480	 4.3130
 2.4490	 4.2780
 2.4500	 4.2500
 2.4510	 4.2350
 2.4520	 4.2280
 2.4530	 4.2320
 2.4540	 4.2210
 2.4550	 4.1890
 2.4560	 4.1510
 2.4570	 4.1090
 2.4580	 4.0710
 2.4590	 4.0420
 2.4600	 4.0270
 2.4610	 4.0090
 2.4620	 3.9960
 2.4630	 3.9900
 2.4640	 3.9580
 2.4650	 3.9200
 2.4660	 3.8830
 2.4670	 3.8510
 2.4680	 3.8430
 2.4690	 3.8230
 2.4700	 3.8100
 2.4710	 3.7940
 2.4720	 3.7870
 2.4730	 3.8140
 2.4740	 3.8070
 2.4750	 3.7680
 2.4760	 3.7450
 2.4770	 3.7150
 2.4780	 3.6990
 2.4790	 3.7140
 2.4800	 3.7070
 2.4810	 3.6860
 2.4820	 3.6650
 2.4830	 3.6390
 2.4840	 3.6260
 2.4850	 3.5970
 2.4860	 3.5820
 2.4870	 3.5740
 2.4880	 3.5300
 2.4890	 3.4940
 2.4900	 3.4620
 2.4910	 3.4320
 2.4920	 3.4460
 2.4930	 3.4830
 2.4940	 3.5090
 2.4950	 3.5480
 2.4960	 3.5800
 2.4970	 3.5490
 2.4980	 3.5110
 2.4990	 3.4670
 2.5000	 3.3670
