Name: Salvia leucophylla 3
Type: vegetation
Class: Shrub
Genus: Salvia
Species: leucophylla
Sample No.: VH191
Owner: UCSB
Wavelength Range: VSWIR
Origin: 34.698; -120.0477; WGS84
Collection Date: 6/9/2013
Description: Samples were collected as part of the HyspIRI Airborne Campaign. 48 individual plants were sampled in three times in 2013 - spring  summer  and fall. The name of the sample includes a 1  2  or 3 which references a different individual of the species. Samples were taken to JPL and processed within 48 hours of collection. The same leaves were processed in the Nicolet and then measured using the ASD.
Measurement: Bidirectional reflectance
First Column: X
Second Column: Y
X Units: Wavelength (micrometers)
Y Units: Reflectance (percentage)
First X Value: 0.35
Last X Value: 2.5
Number of X Values: 2151
Additional Information: vegetation.shrub.salvia.leucophylla.vswir.vh191.ucsb.asd.ancillary.txt

 0.3500	 5.8030
 0.3510	 5.7060
 0.3520	 5.7020
 0.3530	 5.7420
 0.3540	 5.7480
 0.3550	 5.7510
 0.3560	 5.7320
 0.3570	 5.7100
 0.3580	 5.7260
 0.3590	 5.8020
 0.3600	 5.8670
 0.3610	 5.8590
 0.3620	 5.7210
 0.3630	 5.7680
 0.3640	 5.8630
 0.3650	 5.8320
 0.3660	 5.8390
 0.3670	 5.9070
 0.3680	 6.0190
 0.3690	 6.1430
 0.3700	 6.1940
 0.3710	 6.2040
 0.3720	 6.2110
 0.3730	 6.2100
 0.3740	 6.2940
 0.3750	 6.4270
 0.3760	 6.5090
 0.3770	 6.4240
 0.3780	 6.4160
 0.3790	 6.5270
 0.3800	 6.6090
 0.3810	 6.6810
 0.3820	 6.7200
 0.3830	 6.7160
 0.3840	 6.6950
 0.3850	 6.7410
 0.3860	 6.8490
 0.3870	 6.9730
 0.3880	 7.0810
 0.3890	 7.0570
 0.3900	 6.9800
 0.3910	 7.1100
 0.3920	 7.2200
 0.3930	 7.2430
 0.3940	 7.1890
 0.3950	 7.1890
 0.3960	 7.2470
 0.3970	 7.3240
 0.3980	 7.3710
 0.3990	 7.3830
 0.4000	 7.4210
 0.4010	 7.4830
 0.4020	 7.5000
 0.4030	 7.5220
 0.4040	 7.5380
 0.4050	 7.5300
 0.4060	 7.5540
 0.4070	 7.5770
 0.4080	 7.6020
 0.4090	 7.6460
 0.4100	 7.6900
 0.4110	 7.7360
 0.4120	 7.7810
 0.4130	 7.7800
 0.4140	 7.8320
 0.4150	 7.8790
 0.4160	 7.8670
 0.4170	 7.9340
 0.4180	 8.0030
 0.4190	 8.0490
 0.4200	 8.1160
 0.4210	 8.1630
 0.4220	 8.2120
 0.4230	 8.2770
 0.4240	 8.3190
 0.4250	 8.3750
 0.4260	 8.4350
 0.4270	 8.4770
 0.4280	 8.5450
 0.4290	 8.6040
 0.4300	 8.6430
 0.4310	 8.6940
 0.4320	 8.7590
 0.4330	 8.8240
 0.4340	 8.8860
 0.4350	 8.9520
 0.4360	 9.0130
 0.4370	 9.0590
 0.4380	 9.0890
 0.4390	 9.1230
 0.4400	 9.1650
 0.4410	 9.2150
 0.4420	 9.2590
 0.4430	 9.3060
 0.4440	 9.3520
 0.4450	 9.3910
 0.4460	 9.4280
 0.4470	 9.4710
 0.4480	 9.5140
 0.4490	 9.5370
 0.4500	 9.5750
 0.4510	 9.6170
 0.4520	 9.6510
 0.4530	 9.6940
 0.4540	 9.7290
 0.4550	 9.7570
 0.4560	 9.7920
 0.4570	 9.8370
 0.4580	 9.8730
 0.4590	 9.8960
 0.4600	 9.9220
 0.4610	 9.9510
 0.4620	 9.9860
 0.4630	10.0260
 0.4640	10.0540
 0.4650	10.0810
 0.4660	10.1170
 0.4670	10.1590
 0.4680	10.1870
 0.4690	10.2100
 0.4700	10.2380
 0.4710	10.2710
 0.4720	10.2920
 0.4730	10.3080
 0.4740	10.3410
 0.4750	10.3690
 0.4760	10.3890
 0.4770	10.4050
 0.4780	10.4210
 0.4790	10.4390
 0.4800	10.4640
 0.4810	10.4980
 0.4820	10.5220
 0.4830	10.5450
 0.4840	10.5750
 0.4850	10.6130
 0.4860	10.6400
 0.4870	10.6690
 0.4880	10.7090
 0.4890	10.7440
 0.4900	10.7780
 0.4910	10.8170
 0.4920	10.8650
 0.4930	10.9150
 0.4940	10.9730
 0.4950	11.0370
 0.4960	11.0950
 0.4970	11.1660
 0.4980	11.2430
 0.4990	11.3160
 0.5000	11.3910
 0.5010	11.4740
 0.5020	11.5680
 0.5030	11.6720
 0.5040	11.7770
 0.5050	11.8880
 0.5060	12.0040
 0.5070	12.1290
 0.5080	12.2590
 0.5090	12.3950
 0.5100	12.5380
 0.5110	12.6830
 0.5120	12.8310
 0.5130	12.9860
 0.5140	13.1540
 0.5150	13.3260
 0.5160	13.4940
 0.5170	13.6580
 0.5180	13.8320
 0.5190	14.0050
 0.5200	14.1780
 0.5210	14.3560
 0.5220	14.5260
 0.5230	14.6940
 0.5240	14.8640
 0.5250	15.0300
 0.5260	15.1920
 0.5270	15.3520
 0.5280	15.5130
 0.5290	15.6680
 0.5300	15.8150
 0.5310	15.9570
 0.5320	16.1010
 0.5330	16.2420
 0.5340	16.3810
 0.5350	16.5210
 0.5360	16.6500
 0.5370	16.7830
 0.5380	16.9200
 0.5390	17.0540
 0.5400	17.1830
 0.5410	17.3200
 0.5420	17.4690
 0.5430	17.6020
 0.5440	17.7270
 0.5450	17.8450
 0.5460	17.9530
 0.5470	18.0430
 0.5480	18.1270
 0.5490	18.2170
 0.5500	18.3220
 0.5510	18.4210
 0.5520	18.5130
 0.5530	18.6010
 0.5540	18.6890
 0.5550	18.7720
 0.5560	18.8480
 0.5570	18.9230
 0.5580	19.0020
 0.5590	19.0820
 0.5600	19.1620
 0.5610	19.2410
 0.5620	19.3230
 0.5630	19.4050
 0.5640	19.4810
 0.5650	19.5450
 0.5660	19.6030
 0.5670	19.6620
 0.5680	19.7240
 0.5690	19.7800
 0.5700	19.8290
 0.5710	19.8750
 0.5720	19.9260
 0.5730	19.9830
 0.5740	20.0420
 0.5750	20.0970
 0.5760	20.1520
 0.5770	20.2090
 0.5780	20.2680
 0.5790	20.3350
 0.5800	20.3960
 0.5810	20.4490
 0.5820	20.4960
 0.5830	20.5390
 0.5840	20.5810
 0.5850	20.6220
 0.5860	20.6630
 0.5870	20.7130
 0.5880	20.7690
 0.5890	20.8220
 0.5900	20.8730
 0.5910	20.9230
 0.5920	20.9780
 0.5930	21.0440
 0.5940	21.1100
 0.5950	21.1750
 0.5960	21.2350
 0.5970	21.2860
 0.5980	21.3310
 0.5990	21.3750
 0.6000	21.4260
 0.6010	21.4760
 0.6020	21.5230
 0.6030	21.5660
 0.6040	21.6100
 0.6050	21.6520
 0.6060	21.6920
 0.6070	21.7310
 0.6080	21.7720
 0.6090	21.8160
 0.6100	21.8700
 0.6110	21.9370
 0.6120	21.9620
 0.6130	21.9660
 0.6140	21.9720
 0.6150	21.9850
 0.6160	22.0010
 0.6170	22.0210
 0.6180	22.0470
 0.6190	22.0740
 0.6200	22.1040
 0.6210	22.1360
 0.6220	22.1690
 0.6230	22.2020
 0.6240	22.2420
 0.6250	22.2900
 0.6260	22.3370
 0.6270	22.3810
 0.6280	22.4270
 0.6290	22.4770
 0.6300	22.5250
 0.6310	22.5680
 0.6320	22.6040
 0.6330	22.6330
 0.6340	22.6520
 0.6350	22.6600
 0.6360	22.6550
 0.6370	22.6380
 0.6380	22.6020
 0.6390	22.5480
 0.6400	22.4830
 0.6410	22.4090
 0.6420	22.3210
 0.6430	22.2230
 0.6440	22.1330
 0.6450	22.0380
 0.6460	21.9410
 0.6470	21.8500
 0.6480	21.7730
 0.6490	21.7090
 0.6500	21.6590
 0.6510	21.6250
 0.6520	21.5950
 0.6530	21.5710
 0.6540	21.5500
 0.6550	21.5310
 0.6560	21.5070
 0.6570	21.4720
 0.6580	21.4220
 0.6590	21.3610
 0.6600	21.2890
 0.6610	21.2070
 0.6620	21.1110
 0.6630	21.0090
 0.6640	20.9020
 0.6650	20.7960
 0.6660	20.7000
 0.6670	20.6160
 0.6680	20.5420
 0.6690	20.4790
 0.6700	20.4370
 0.6710	20.4130
 0.6720	20.4040
 0.6730	20.4090
 0.6740	20.4390
 0.6750	20.4860
 0.6760	20.5420
 0.6770	20.6210
 0.6780	20.7120
 0.6790	20.8220
 0.6800	20.9660
 0.6810	21.1410
 0.6820	21.3600
 0.6830	21.6380
 0.6840	21.9760
 0.6850	22.3710
 0.6860	22.8230
 0.6870	23.3290
 0.6880	23.8770
 0.6890	24.4540
 0.6900	25.0520
 0.6910	25.6640
 0.6920	26.2700
 0.6930	26.8600
 0.6940	27.4300
 0.6950	27.9740
 0.6960	28.4930
 0.6970	28.9810
 0.6980	29.4340
 0.6990	29.8590
 0.7000	30.2560
 0.7010	30.6230
 0.7020	30.9560
 0.7030	31.2630
 0.7040	31.5510
 0.7050	31.8220
 0.7060	32.0670
 0.7070	32.2940
 0.7080	32.5050
 0.7090	32.6990
 0.7100	32.8780
 0.7110	33.0480
 0.7120	33.2100
 0.7130	33.3610
 0.7140	33.5040
 0.7150	33.6410
 0.7160	33.7720
 0.7170	33.8920
 0.7180	34.0110
 0.7190	34.1280
 0.7200	34.2430
 0.7210	34.3510
 0.7220	34.4540
 0.7230	34.5550
 0.7240	34.6550
 0.7250	34.7520
 0.7260	34.8450
 0.7270	34.9370
 0.7280	35.0270
 0.7290	35.1170
 0.7300	35.2050
 0.7310	35.2900
 0.7320	35.3770
 0.7330	35.4590
 0.7340	35.5400
 0.7350	35.6240
 0.7360	35.7060
 0.7370	35.7850
 0.7380	35.8640
 0.7390	35.9410
 0.7400	36.0190
 0.7410	36.0980
 0.7420	36.1740
 0.7430	36.2510
 0.7440	36.3290
 0.7450	36.4070
 0.7460	36.4820
 0.7470	36.5540
 0.7480	36.6280
 0.7490	36.7060
 0.7500	36.7810
 0.7510	36.8550
 0.7520	36.9270
 0.7530	36.9970
 0.7540	37.0730
 0.7550	37.1490
 0.7560	37.2220
 0.7570	37.2940
 0.7580	37.3640
 0.7590	37.4340
 0.7600	37.5060
 0.7610	37.5820
 0.7620	37.6530
 0.7630	37.7220
 0.7640	37.7960
 0.7650	37.8720
 0.7660	37.9430
 0.7670	38.0100
 0.7680	38.0830
 0.7690	38.1510
 0.7700	38.2210
 0.7710	38.2940
 0.7720	38.3630
 0.7730	38.4320
 0.7740	38.5020
 0.7750	38.5720
 0.7760	38.6390
 0.7770	38.7100
 0.7780	38.7830
 0.7790	38.8530
 0.7800	38.9200
 0.7810	38.9870
 0.7820	39.0550
 0.7830	39.1190
 0.7840	39.1860
 0.7850	39.2510
 0.7860	39.3110
 0.7870	39.3790
 0.7880	39.4470
 0.7890	39.5100
 0.7900	39.5680
 0.7910	39.6300
 0.7920	39.6920
 0.7930	39.7510
 0.7940	39.8080
 0.7950	39.8680
 0.7960	39.9290
 0.7970	39.9880
 0.7980	40.0440
 0.7990	40.0970
 0.8000	40.1520
 0.8010	40.2130
 0.8020	40.2560
 0.8030	40.3080
 0.8040	40.3620
 0.8050	40.4050
 0.8060	40.4550
 0.8070	40.5030
 0.8080	40.5490
 0.8090	40.6000
 0.8100	40.6450
 0.8110	40.6890
 0.8120	40.7340
 0.8130	40.7770
 0.8140	40.8190
 0.8150	40.8580
 0.8160	40.8950
 0.8170	40.9400
 0.8180	40.9860
 0.8190	41.0280
 0.8200	41.0590
 0.8210	41.0910
 0.8220	41.1260
 0.8230	41.1630
 0.8240	41.2010
 0.8250	41.2350
 0.8260	41.2720
 0.8270	41.3120
 0.8280	41.3470
 0.8290	41.3800
 0.8300	41.4140
 0.8310	41.4470
 0.8320	41.4690
 0.8330	41.5060
 0.8340	41.5450
 0.8350	41.5670
 0.8360	41.6000
 0.8370	41.6350
 0.8380	41.6670
 0.8390	41.7030
 0.8400	41.7340
 0.8410	41.7680
 0.8420	41.8060
 0.8430	41.8460
 0.8440	41.8750
 0.8450	41.9010
 0.8460	41.9320
 0.8470	41.9670
 0.8480	42.0020
 0.8490	42.0360
 0.8500	42.0690
 0.8510	42.1030
 0.8520	42.1420
 0.8530	42.1780
 0.8540	42.2050
 0.8550	42.2380
 0.8560	42.2720
 0.8570	42.3060
 0.8580	42.3410
 0.8590	42.3780
 0.8600	42.4160
 0.8610	42.4560
 0.8620	42.4920
 0.8630	42.5230
 0.8640	42.5570
 0.8650	42.5970
 0.8660	42.6340
 0.8670	42.6710
 0.8680	42.7080
 0.8690	42.7460
 0.8700	42.7770
 0.8710	42.8130
 0.8720	42.8530
 0.8730	42.8960
 0.8740	42.9360
 0.8750	42.9750
 0.8760	43.0150
 0.8770	43.0540
 0.8780	43.0930
 0.8790	43.1330
 0.8800	43.1740
 0.8810	43.2090
 0.8820	43.2430
 0.8830	43.2810
 0.8840	43.3240
 0.8850	43.3620
 0.8860	43.4020
 0.8870	43.4380
 0.8880	43.4660
 0.8890	43.5030
 0.8900	43.5440
 0.8910	43.5860
 0.8920	43.6230
 0.8930	43.6570
 0.8940	43.6920
 0.8950	43.7290
 0.8960	43.7670
 0.8970	43.8060
 0.8980	43.8450
 0.8990	43.8780
 0.9000	43.9060
 0.9010	43.9470
 0.9020	43.9840
 0.9030	44.0120
 0.9040	44.0510
 0.9050	44.0880
 0.9060	44.1180
 0.9070	44.1490
 0.9080	44.1950
 0.9090	44.2260
 0.9100	44.2520
 0.9110	44.2850
 0.9120	44.3190
 0.9130	44.3520
 0.9140	44.3860
 0.9150	44.4200
 0.9160	44.4520
 0.9170	44.4790
 0.9180	44.5060
 0.9190	44.5400
 0.9200	44.5690
 0.9210	44.6020
 0.9220	44.6330
 0.9230	44.6560
 0.9240	44.6800
 0.9250	44.7070
 0.9260	44.7310
 0.9270	44.7500
 0.9280	44.7740
 0.9290	44.8110
 0.9300	44.8470
 0.9310	44.8600
 0.9320	44.8760
 0.9330	44.9010
 0.9340	44.9280
 0.9350	44.9370
 0.9360	44.9550
 0.9370	44.9810
 0.9380	45.0050
 0.9390	45.0080
 0.9400	45.0180
 0.9410	45.0360
 0.9420	45.0540
 0.9430	45.0570
 0.9440	45.0650
 0.9450	45.0760
 0.9460	45.0920
 0.9470	45.1150
 0.9480	45.1150
 0.9490	45.1100
 0.9500	45.1180
 0.9510	45.1300
 0.9520	45.1320
 0.9530	45.1300
 0.9540	45.1290
 0.9550	45.1190
 0.9560	45.1200
 0.9570	45.1250
 0.9580	45.1250
 0.9590	45.1210
 0.9600	45.1180
 0.9610	45.1130
 0.9620	45.1030
 0.9630	45.1050
 0.9640	45.1190
 0.9650	45.1340
 0.9660	45.1370
 0.9670	45.1250
 0.9680	45.1250
 0.9690	45.1320
 0.9700	45.1330
 0.9710	45.1570
 0.9720	45.1690
 0.9730	45.1700
 0.9740	45.1790
 0.9750	45.1820
 0.9760	45.1950
 0.9770	45.2090
 0.9780	45.2110
 0.9790	45.2270
 0.9800	45.2390
 0.9810	45.2430
 0.9820	45.2490
 0.9830	45.2600
 0.9840	45.2690
 0.9850	45.2870
 0.9860	45.3190
 0.9870	45.3290
 0.9880	45.3520
 0.9890	45.3720
 0.9900	45.3630
 0.9910	45.3760
 0.9920	45.4110
 0.9930	45.4330
 0.9940	45.4150
 0.9950	45.4330
 0.9960	45.4480
 0.9970	45.4550
 0.9980	45.4640
 0.9990	45.4670
 1.0000	45.5700
 1.0010	45.7270
 1.0020	45.8170
 1.0030	45.8300
 1.0040	45.8440
 1.0050	45.8560
 1.0060	45.8740
 1.0070	45.8930
 1.0080	45.9090
 1.0090	45.9250
 1.0100	45.9420
 1.0110	45.9590
 1.0120	45.9740
 1.0130	45.9860
 1.0140	46.0010
 1.0150	46.0150
 1.0160	46.0310
 1.0170	46.0510
 1.0180	46.0690
 1.0190	46.0860
 1.0200	46.1030
 1.0210	46.1140
 1.0220	46.1270
 1.0230	46.1420
 1.0240	46.1560
 1.0250	46.1700
 1.0260	46.1850
 1.0270	46.2020
 1.0280	46.2180
 1.0290	46.2310
 1.0300	46.2470
 1.0310	46.2610
 1.0320	46.2720
 1.0330	46.2810
 1.0340	46.2950
 1.0350	46.3070
 1.0360	46.3200
 1.0370	46.3340
 1.0380	46.3480
 1.0390	46.3640
 1.0400	46.3780
 1.0410	46.3910
 1.0420	46.4040
 1.0430	46.4180
 1.0440	46.4310
 1.0450	46.4440
 1.0460	46.4580
 1.0470	46.4710
 1.0480	46.4840
 1.0490	46.4970
 1.0500	46.5100
 1.0510	46.5210
 1.0520	46.5330
 1.0530	46.5460
 1.0540	46.5610
 1.0550	46.5750
 1.0560	46.5910
 1.0570	46.6030
 1.0580	46.6170
 1.0590	46.6270
 1.0600	46.6330
 1.0610	46.6410
 1.0620	46.6440
 1.0630	46.6530
 1.0640	46.6680
 1.0650	46.6800
 1.0660	46.6950
 1.0670	46.7070
 1.0680	46.7180
 1.0690	46.7270
 1.0700	46.7340
 1.0710	46.7400
 1.0720	46.7450
 1.0730	46.7490
 1.0740	46.7530
 1.0750	46.7560
 1.0760	46.7630
 1.0770	46.7730
 1.0780	46.7810
 1.0790	46.7920
 1.0800	46.8020
 1.0810	46.8060
 1.0820	46.8140
 1.0830	46.8240
 1.0840	46.8320
 1.0850	46.8370
 1.0860	46.8440
 1.0870	46.8490
 1.0880	46.8520
 1.0890	46.8580
 1.0900	46.8660
 1.0910	46.8720
 1.0920	46.8780
 1.0930	46.8830
 1.0940	46.8850
 1.0950	46.8900
 1.0960	46.8950
 1.0970	46.9000
 1.0980	46.9050
 1.0990	46.9100
 1.1000	46.9160
 1.1010	46.9200
 1.1020	46.9220
 1.1030	46.9250
 1.1040	46.9270
 1.1050	46.9320
 1.1060	46.9350
 1.1070	46.9410
 1.1080	46.9440
 1.1090	46.9440
 1.1100	46.9460
 1.1110	46.9500
 1.1120	46.9520
 1.1130	46.9540
 1.1140	46.9540
 1.1150	46.9530
 1.1160	46.9520
 1.1170	46.9520
 1.1180	46.9500
 1.1190	46.9460
 1.1200	46.9420
 1.1210	46.9380
 1.1220	46.9310
 1.1230	46.9270
 1.1240	46.9240
 1.1250	46.9180
 1.1260	46.9140
 1.1270	46.9010
 1.1280	46.8840
 1.1290	46.8660
 1.1300	46.8430
 1.1310	46.8200
 1.1320	46.7970
 1.1330	46.7710
 1.1340	46.7450
 1.1350	46.7130
 1.1360	46.6780
 1.1370	46.6420
 1.1380	46.6030
 1.1390	46.5590
 1.1400	46.5150
 1.1410	46.4740
 1.1420	46.4310
 1.1430	46.3830
 1.1440	46.3360
 1.1450	46.2890
 1.1460	46.2410
 1.1470	46.1920
 1.1480	46.1470
 1.1490	46.1030
 1.1500	46.0590
 1.1510	46.0170
 1.1520	45.9770
 1.1530	45.9360
 1.1540	45.9010
 1.1550	45.8680
 1.1560	45.8380
 1.1570	45.8110
 1.1580	45.7850
 1.1590	45.7590
 1.1600	45.7340
 1.1610	45.7100
 1.1620	45.6880
 1.1630	45.6700
 1.1640	45.6540
 1.1650	45.6390
 1.1660	45.6290
 1.1670	45.6160
 1.1680	45.6030
 1.1690	45.5900
 1.1700	45.5760
 1.1710	45.5620
 1.1720	45.5490
 1.1730	45.5350
 1.1740	45.5220
 1.1750	45.5080
 1.1760	45.4910
 1.1770	45.4760
 1.1780	45.4600
 1.1790	45.4460
 1.1800	45.4330
 1.1810	45.4180
 1.1820	45.4020
 1.1830	45.3850
 1.1840	45.3710
 1.1850	45.3590
 1.1860	45.3500
 1.1870	45.3440
 1.1880	45.3380
 1.1890	45.3350
 1.1900	45.3320
 1.1910	45.3300
 1.1920	45.3300
 1.1930	45.3310
 1.1940	45.3320
 1.1950	45.3360
 1.1960	45.3420
 1.1970	45.3460
 1.1980	45.3520
 1.1990	45.3610
 1.2000	45.3660
 1.2010	45.3730
 1.2020	45.3870
 1.2030	45.3980
 1.2040	45.4090
 1.2050	45.4220
 1.2060	45.4340
 1.2070	45.4480
 1.2080	45.4660
 1.2090	45.4850
 1.2100	45.5040
 1.2110	45.5250
 1.2120	45.5480
 1.2130	45.5710
 1.2140	45.5950
 1.2150	45.6180
 1.2160	45.6410
 1.2170	45.6650
 1.2180	45.6890
 1.2190	45.7150
 1.2200	45.7430
 1.2210	45.7680
 1.2220	45.7930
 1.2230	45.8190
 1.2240	45.8450
 1.2250	45.8710
 1.2260	45.8950
 1.2270	45.9180
 1.2280	45.9390
 1.2290	45.9590
 1.2300	45.9820
 1.2310	46.0040
 1.2320	46.0250
 1.2330	46.0420
 1.2340	46.0600
 1.2350	46.0790
 1.2360	46.0960
 1.2370	46.1130
 1.2380	46.1300
 1.2390	46.1450
 1.2400	46.1590
 1.2410	46.1740
 1.2420	46.1880
 1.2430	46.2000
 1.2440	46.2130
 1.2450	46.2240
 1.2460	46.2340
 1.2470	46.2440
 1.2480	46.2570
 1.2490	46.2690
 1.2500	46.2810
 1.2510	46.2940
 1.2520	46.3030
 1.2530	46.3110
 1.2540	46.3190
 1.2550	46.3260
 1.2560	46.3360
 1.2570	46.3460
 1.2580	46.3550
 1.2590	46.3620
 1.2600	46.3680
 1.2610	46.3740
 1.2620	46.3790
 1.2630	46.3830
 1.2640	46.3880
 1.2650	46.3930
 1.2660	46.3960
 1.2670	46.4010
 1.2680	46.4060
 1.2690	46.4080
 1.2700	46.4090
 1.2710	46.4120
 1.2720	46.4130
 1.2730	46.4160
 1.2740	46.4200
 1.2750	46.4200
 1.2760	46.4200
 1.2770	46.4200
 1.2780	46.4170
 1.2790	46.4170
 1.2800	46.4180
 1.2810	46.4170
 1.2820	46.4170
 1.2830	46.4170
 1.2840	46.4150
 1.2850	46.4140
 1.2860	46.4130
 1.2870	46.4100
 1.2880	46.4060
 1.2890	46.3980
 1.2900	46.3900
 1.2910	46.3810
 1.2920	46.3730
 1.2930	46.3650
 1.2940	46.3550
 1.2950	46.3430
 1.2960	46.3310
 1.2970	46.3150
 1.2980	46.3000
 1.2990	46.2830
 1.3000	46.2610
 1.3010	46.2410
 1.3020	46.2200
 1.3030	46.2040
 1.3040	46.1870
 1.3050	46.1670
 1.3060	46.1440
 1.3070	46.1190
 1.3080	46.0930
 1.3090	46.0660
 1.3100	46.0390
 1.3110	46.0110
 1.3120	45.9810
 1.3130	45.9520
 1.3140	45.9220
 1.3150	45.8910
 1.3160	45.8570
 1.3170	45.8230
 1.3180	45.7850
 1.3190	45.7470
 1.3200	45.7070
 1.3210	45.6620
 1.3220	45.6210
 1.3230	45.5790
 1.3240	45.5330
 1.3250	45.4900
 1.3260	45.4430
 1.3270	45.3940
 1.3280	45.3450
 1.3290	45.2940
 1.3300	45.2420
 1.3310	45.1890
 1.3320	45.1360
 1.3330	45.0830
 1.3340	45.0280
 1.3350	44.9730
 1.3360	44.9160
 1.3370	44.8580
 1.3380	44.7990
 1.3390	44.7380
 1.3400	44.6790
 1.3410	44.6200
 1.3420	44.5600
 1.3430	44.4990
 1.3440	44.4370
 1.3450	44.3740
 1.3460	44.3120
 1.3470	44.2490
 1.3480	44.1860
 1.3490	44.1220
 1.3500	44.0570
 1.3510	43.9920
 1.3520	43.9260
 1.3530	43.8600
 1.3540	43.7960
 1.3550	43.7300
 1.3560	43.6640
 1.3570	43.6010
 1.3580	43.5350
 1.3590	43.4680
 1.3600	43.3990
 1.3610	43.3280
 1.3620	43.2560
 1.3630	43.1830
 1.3640	43.1090
 1.3650	43.0340
 1.3660	42.9560
 1.3670	42.8760
 1.3680	42.7910
 1.3690	42.6990
 1.3700	42.6000
 1.3710	42.4960
 1.3720	42.3840
 1.3730	42.2650
 1.3740	42.1380
 1.3750	41.9990
 1.3760	41.8480
 1.3770	41.6870
 1.3780	41.5090
 1.3790	41.3210
 1.3800	41.1200
 1.3810	40.9040
 1.3820	40.6760
 1.3830	40.4380
 1.3840	40.1850
 1.3850	39.9200
 1.3860	39.6420
 1.3870	39.3490
 1.3880	39.0460
 1.3890	38.7310
 1.3900	38.4050
 1.3910	38.0720
 1.3920	37.7280
 1.3930	37.3750
 1.3940	37.0180
 1.3950	36.6520
 1.3960	36.2850
 1.3970	35.9160
 1.3980	35.5450
 1.3990	35.1820
 1.4000	34.8210
 1.4010	34.4630
 1.4020	34.1130
 1.4030	33.7660
 1.4040	33.4260
 1.4050	33.0980
 1.4060	32.7780
 1.4070	32.4740
 1.4080	32.1820
 1.4090	31.9000
 1.4100	31.6350
 1.4110	31.3810
 1.4120	31.1410
 1.4130	30.9150
 1.4140	30.7030
 1.4150	30.5060
 1.4160	30.3230
 1.4170	30.1490
 1.4180	29.9890
 1.4190	29.8400
 1.4200	29.7010
 1.4210	29.5740
 1.4220	29.4560
 1.4230	29.3500
 1.4240	29.2540
 1.4250	29.1650
 1.4260	29.0860
 1.4270	29.0120
 1.4280	28.9480
 1.4290	28.8890
 1.4300	28.8370
 1.4310	28.7910
 1.4320	28.7520
 1.4330	28.7170
 1.4340	28.6880
 1.4350	28.6650
 1.4360	28.6480
 1.4370	28.6340
 1.4380	28.6250
 1.4390	28.6190
 1.4400	28.6150
 1.4410	28.6160
 1.4420	28.6190
 1.4430	28.6250
 1.4440	28.6340
 1.4450	28.6440
 1.4460	28.6550
 1.4470	28.6670
 1.4480	28.6810
 1.4490	28.6970
 1.4500	28.7130
 1.4510	28.7310
 1.4520	28.7490
 1.4530	28.7670
 1.4540	28.7870
 1.4550	28.8100
 1.4560	28.8340
 1.4570	28.8600
 1.4580	28.8900
 1.4590	28.9200
 1.4600	28.9530
 1.4610	28.9900
 1.4620	29.0290
 1.4630	29.0720
 1.4640	29.1210
 1.4650	29.1730
 1.4660	29.2280
 1.4670	29.2870
 1.4680	29.3510
 1.4690	29.4190
 1.4700	29.4900
 1.4710	29.5670
 1.4720	29.6460
 1.4730	29.7280
 1.4740	29.8150
 1.4750	29.9040
 1.4760	29.9970
 1.4770	30.0890
 1.4780	30.1800
 1.4790	30.2740
 1.4800	30.3680
 1.4810	30.4650
 1.4820	30.5670
 1.4830	30.6690
 1.4840	30.7720
 1.4850	30.8740
 1.4860	30.9740
 1.4870	31.0740
 1.4880	31.1730
 1.4890	31.2740
 1.4900	31.3750
 1.4910	31.4780
 1.4920	31.5800
 1.4930	31.6820
 1.4940	31.7830
 1.4950	31.8830
 1.4960	31.9830
 1.4970	32.0820
 1.4980	32.1800
 1.4990	32.2790
 1.5000	32.3760
 1.5010	32.4730
 1.5020	32.5700
 1.5030	32.6680
 1.5040	32.7640
 1.5050	32.8610
 1.5060	32.9570
 1.5070	33.0510
 1.5080	33.1450
 1.5090	33.2370
 1.5100	33.3290
 1.5110	33.4190
 1.5120	33.5080
 1.5130	33.5970
 1.5140	33.6840
 1.5150	33.7720
 1.5160	33.8580
 1.5170	33.9420
 1.5180	34.0250
 1.5190	34.1080
 1.5200	34.1890
 1.5210	34.2690
 1.5220	34.3470
 1.5230	34.4240
 1.5240	34.4990
 1.5250	34.5740
 1.5260	34.6490
 1.5270	34.7200
 1.5280	34.7940
 1.5290	34.8650
 1.5300	34.9340
 1.5310	35.0030
 1.5320	35.0710
 1.5330	35.1380
 1.5340	35.2050
 1.5350	35.2710
 1.5360	35.3340
 1.5370	35.3960
 1.5380	35.4560
 1.5390	35.5150
 1.5400	35.5750
 1.5410	35.6350
 1.5420	35.6950
 1.5430	35.7540
 1.5440	35.8110
 1.5450	35.8650
 1.5460	35.9190
 1.5470	35.9730
 1.5480	36.0280
 1.5490	36.0820
 1.5500	36.1330
 1.5510	36.1830
 1.5520	36.2340
 1.5530	36.2830
 1.5540	36.3340
 1.5550	36.3830
 1.5560	36.4300
 1.5570	36.4780
 1.5580	36.5240
 1.5590	36.5720
 1.5600	36.6180
 1.5610	36.6620
 1.5620	36.7090
 1.5630	36.7540
 1.5640	36.7990
 1.5650	36.8440
 1.5660	36.8870
 1.5670	36.9300
 1.5680	36.9730
 1.5690	37.0150
 1.5700	37.0580
 1.5710	37.1000
 1.5720	37.1410
 1.5730	37.1800
 1.5740	37.2200
 1.5750	37.2570
 1.5760	37.2960
 1.5770	37.3350
 1.5780	37.3740
 1.5790	37.4130
 1.5800	37.4520
 1.5810	37.4920
 1.5820	37.5330
 1.5830	37.5730
 1.5840	37.6120
 1.5850	37.6480
 1.5860	37.6830
 1.5870	37.7170
 1.5880	37.7520
 1.5890	37.7890
 1.5900	37.8250
 1.5910	37.8610
 1.5920	37.8980
 1.5930	37.9340
 1.5940	37.9690
 1.5950	38.0040
 1.5960	38.0360
 1.5970	38.0680
 1.5980	38.1020
 1.5990	38.1350
 1.6000	38.1680
 1.6010	38.2010
 1.6020	38.2330
 1.6030	38.2630
 1.6040	38.2940
 1.6050	38.3260
 1.6060	38.3570
 1.6070	38.3890
 1.6080	38.4190
 1.6090	38.4470
 1.6100	38.4750
 1.6110	38.5040
 1.6120	38.5310
 1.6130	38.5560
 1.6140	38.5820
 1.6150	38.6070
 1.6160	38.6330
 1.6170	38.6580
 1.6180	38.6800
 1.6190	38.7030
 1.6200	38.7260
 1.6210	38.7450
 1.6220	38.7650
 1.6230	38.7830
 1.6240	38.7980
 1.6250	38.8130
 1.6260	38.8290
 1.6270	38.8430
 1.6280	38.8570
 1.6290	38.8710
 1.6300	38.8840
 1.6310	38.8970
 1.6320	38.9130
 1.6330	38.9260
 1.6340	38.9390
 1.6350	38.9520
 1.6360	38.9650
 1.6370	38.9780
 1.6380	38.9920
 1.6390	39.0050
 1.6400	39.0180
 1.6410	39.0270
 1.6420	39.0330
 1.6430	39.0380
 1.6440	39.0390
 1.6450	39.0420
 1.6460	39.0460
 1.6470	39.0480
 1.6480	39.0470
 1.6490	39.0450
 1.6500	39.0400
 1.6510	39.0350
 1.6520	39.0310
 1.6530	39.0250
 1.6540	39.0180
 1.6550	39.0100
 1.6560	38.9980
 1.6570	38.9830
 1.6580	38.9700
 1.6590	38.9560
 1.6600	38.9420
 1.6610	38.9270
 1.6620	38.9070
 1.6630	38.8860
 1.6640	38.8650
 1.6650	38.8430
 1.6660	38.8200
 1.6670	38.7950
 1.6680	38.7670
 1.6690	38.7340
 1.6700	38.7010
 1.6710	38.6660
 1.6720	38.6280
 1.6730	38.5910
 1.6740	38.5500
 1.6750	38.5040
 1.6760	38.4540
 1.6770	38.4020
 1.6780	38.3460
 1.6790	38.2890
 1.6800	38.2330
 1.6810	38.1710
 1.6820	38.1070
 1.6830	38.0400
 1.6840	37.9730
 1.6850	37.9060
 1.6860	37.8370
 1.6870	37.7670
 1.6880	37.6980
 1.6890	37.6250
 1.6900	37.5530
 1.6910	37.4820
 1.6920	37.4110
 1.6930	37.3390
 1.6940	37.2710
 1.6950	37.2060
 1.6960	37.1430
 1.6970	37.0850
 1.6980	37.0270
 1.6990	36.9710
 1.7000	36.9150
 1.7010	36.8610
 1.7020	36.8060
 1.7030	36.7520
 1.7040	36.7000
 1.7050	36.6490
 1.7060	36.5980
 1.7070	36.5490
 1.7080	36.4990
 1.7090	36.4480
 1.7100	36.3990
 1.7110	36.3490
 1.7120	36.2990
 1.7130	36.2520
 1.7140	36.2030
 1.7150	36.1560
 1.7160	36.1140
 1.7170	36.0730
 1.7180	36.0380
 1.7190	36.0070
 1.7200	35.9790
 1.7210	35.9520
 1.7220	35.9260
 1.7230	35.9000
 1.7240	35.8740
 1.7250	35.8530
 1.7260	35.8360
 1.7270	35.8220
 1.7280	35.8120
 1.7290	35.8050
 1.7300	35.7990
 1.7310	35.7960
 1.7320	35.7970
 1.7330	35.7980
 1.7340	35.8060
 1.7350	35.8070
 1.7360	35.8070
 1.7370	35.8050
 1.7380	35.7990
 1.7390	35.7910
 1.7400	35.7850
 1.7410	35.7710
 1.7420	35.7530
 1.7430	35.7330
 1.7440	35.7080
 1.7450	35.6830
 1.7460	35.6560
 1.7470	35.6290
 1.7480	35.6010
 1.7490	35.5730
 1.7500	35.5440
 1.7510	35.5170
 1.7520	35.4880
 1.7530	35.4650
 1.7540	35.4450
 1.7550	35.4280
 1.7560	35.4120
 1.7570	35.3980
 1.7580	35.3830
 1.7590	35.3710
 1.7600	35.3600
 1.7610	35.3490
 1.7620	35.3410
 1.7630	35.3330
 1.7640	35.3280
 1.7650	35.3260
 1.7660	35.3250
 1.7670	35.3270
 1.7680	35.3270
 1.7690	35.3270
 1.7700	35.3270
 1.7710	35.3270
 1.7720	35.3280
 1.7730	35.3320
 1.7740	35.3340
 1.7750	35.3360
 1.7760	35.3370
 1.7770	35.3360
 1.7780	35.3370
 1.7790	35.3380
 1.7800	35.3400
 1.7810	35.3430
 1.7820	35.3490
 1.7830	35.3560
 1.7840	35.3640
 1.7850	35.3730
 1.7860	35.3820
 1.7870	35.3910
 1.7880	35.3990
 1.7890	35.4060
 1.7900	35.4130
 1.7910	35.4190
 1.7920	35.4220
 1.7930	35.4280
 1.7940	35.4370
 1.7950	35.4450
 1.7960	35.4540
 1.7970	35.4640
 1.7980	35.4750
 1.7990	35.4850
 1.8000	35.4980
 1.8010	35.5080
 1.8020	35.5160
 1.8030	35.5240
 1.8040	35.5330
 1.8050	35.5430
 1.8060	35.5530
 1.8070	35.5630
 1.8080	35.5730
 1.8090	35.5820
 1.8100	35.5900
 1.8110	35.5970
 1.8120	35.6050
 1.8130	35.6150
 1.8140	35.6230
 1.8150	35.6340
 1.8160	35.6420
 1.8170	35.6440
 1.8180	35.6460
 1.8190	35.6460
 1.8200	35.6490
 1.8210	35.6590
 1.8220	35.6650
 1.8230	35.6720
 1.8240	35.6760
 1.8250	35.6780
 1.8260	35.6790
 1.8270	35.6780
 1.8280	35.6780
 1.8290	35.6780
 1.8300	35.5920
 1.8310	35.4270
 1.8320	35.3410
 1.8330	35.3350
 1.8340	35.3240
 1.8350	35.3120
 1.8360	35.3000
 1.8370	35.2800
 1.8380	35.2600
 1.8390	35.2360
 1.8400	35.2060
 1.8410	35.1760
 1.8420	35.1490
 1.8430	35.1170
 1.8440	35.0780
 1.8450	35.0390
 1.8460	34.9930
 1.8470	34.9390
 1.8480	34.8830
 1.8490	34.8200
 1.8500	34.7490
 1.8510	34.6740
 1.8520	34.5880
 1.8530	34.4900
 1.8540	34.3870
 1.8550	34.2770
 1.8560	34.1590
 1.8570	34.0360
 1.8580	33.8990
 1.8590	33.7510
 1.8600	33.5890
 1.8610	33.4170
 1.8620	33.2330
 1.8630	33.0350
 1.8640	32.8200
 1.8650	32.5920
 1.8660	32.3510
 1.8670	32.0910
 1.8680	31.8190
 1.8690	31.5290
 1.8700	31.2180
 1.8710	30.8860
 1.8720	30.5450
 1.8730	30.1890
 1.8740	29.8130
 1.8750	29.4260
 1.8760	29.0190
 1.8770	28.5990
 1.8780	28.1710
 1.8790	27.7290
 1.8800	27.2800
 1.8810	26.8250
 1.8820	26.3570
 1.8830	25.8750
 1.8840	25.3870
 1.8850	24.8880
 1.8860	24.3860
 1.8870	23.8860
 1.8880	23.3830
 1.8890	22.8870
 1.8900	22.3960
 1.8910	21.9140
 1.8920	21.4340
 1.8930	20.9730
 1.8940	20.5220
 1.8950	20.0860
 1.8960	19.6720
 1.8970	19.2740
 1.8980	18.8960
 1.8990	18.5400
 1.9000	18.2010
 1.9010	17.8800
 1.9020	17.5800
 1.9030	17.2990
 1.9040	17.0400
 1.9050	16.8040
 1.9060	16.5860
 1.9070	16.3900
 1.9080	16.2120
 1.9090	16.0500
 1.9100	15.9050
 1.9110	15.7710
 1.9120	15.6490
 1.9130	15.5380
 1.9140	15.4400
 1.9150	15.3500
 1.9160	15.2740
 1.9170	15.2090
 1.9180	15.1500
 1.9190	15.1020
 1.9200	15.0620
 1.9210	15.0290
 1.9220	15.0010
 1.9230	14.9810
 1.9240	14.9640
 1.9250	14.9510
 1.9260	14.9440
 1.9270	14.9460
 1.9280	14.9550
 1.9290	14.9660
 1.9300	14.9820
 1.9310	14.9990
 1.9320	15.0200
 1.9330	15.0450
 1.9340	15.0760
 1.9350	15.1080
 1.9360	15.1410
 1.9370	15.1800
 1.9380	15.2220
 1.9390	15.2690
 1.9400	15.3170
 1.9410	15.3680
 1.9420	15.4190
 1.9430	15.4730
 1.9440	15.5300
 1.9450	15.5920
 1.9460	15.6540
 1.9470	15.7180
 1.9480	15.7820
 1.9490	15.8470
 1.9500	15.9130
 1.9510	15.9800
 1.9520	16.0510
 1.9530	16.1230
 1.9540	16.1950
 1.9550	16.2690
 1.9560	16.3460
 1.9570	16.4230
 1.9580	16.5010
 1.9590	16.5820
 1.9600	16.6640
 1.9610	16.7460
 1.9620	16.8330
 1.9630	16.9180
 1.9640	17.0020
 1.9650	17.0880
 1.9660	17.1720
 1.9670	17.2570
 1.9680	17.3440
 1.9690	17.4310
 1.9700	17.5190
 1.9710	17.6110
 1.9720	17.7000
 1.9730	17.7900
 1.9740	17.8770
 1.9750	17.9680
 1.9760	18.0610
 1.9770	18.1550
 1.9780	18.2500
 1.9790	18.3430
 1.9800	18.4330
 1.9810	18.5270
 1.9820	18.6200
 1.9830	18.7150
 1.9840	18.8160
 1.9850	18.9120
 1.9860	19.0080
 1.9870	19.1020
 1.9880	19.1940
 1.9890	19.2870
 1.9900	19.3830
 1.9910	19.4800
 1.9920	19.5760
 1.9930	19.6770
 1.9940	19.7730
 1.9950	19.8660
 1.9960	19.9590
 1.9970	20.0520
 1.9980	20.1440
 1.9990	20.2360
 2.0000	20.3260
 2.0010	20.4130
 2.0020	20.5050
 2.0030	20.5920
 2.0040	20.6810
 2.0050	20.7690
 2.0060	20.8580
 2.0070	20.9430
 2.0080	21.0270
 2.0090	21.1100
 2.0100	21.1930
 2.0110	21.2740
 2.0120	21.3520
 2.0130	21.4330
 2.0140	21.5120
 2.0150	21.5850
 2.0160	21.6600
 2.0170	21.7330
 2.0180	21.8050
 2.0190	21.8760
 2.0200	21.9450
 2.0210	22.0120
 2.0220	22.0780
 2.0230	22.1410
 2.0240	22.2040
 2.0250	22.2660
 2.0260	22.3280
 2.0270	22.3880
 2.0280	22.4500
 2.0290	22.5040
 2.0300	22.5620
 2.0310	22.6140
 2.0320	22.6630
 2.0330	22.7110
 2.0340	22.7570
 2.0350	22.8020
 2.0360	22.8460
 2.0370	22.8880
 2.0380	22.9310
 2.0390	22.9710
 2.0400	23.0060
 2.0410	23.0430
 2.0420	23.0780
 2.0430	23.1140
 2.0440	23.1480
 2.0450	23.1820
 2.0460	23.2160
 2.0470	23.2480
 2.0480	23.2790
 2.0490	23.3110
 2.0500	23.3410
 2.0510	23.3700
 2.0520	23.4000
 2.0530	23.4270
 2.0540	23.4580
 2.0550	23.4890
 2.0560	23.5220
 2.0570	23.5530
 2.0580	23.5870
 2.0590	23.6170
 2.0600	23.6450
 2.0610	23.6730
 2.0620	23.6980
 2.0630	23.7260
 2.0640	23.7540
 2.0650	23.7830
 2.0660	23.8160
 2.0670	23.8470
 2.0680	23.8760
 2.0690	23.9050
 2.0700	23.9320
 2.0710	23.9620
 2.0720	23.9930
 2.0730	24.0250
 2.0740	24.0570
 2.0750	24.0920
 2.0760	24.1230
 2.0770	24.1500
 2.0780	24.1800
 2.0790	24.2090
 2.0800	24.2400
 2.0810	24.2720
 2.0820	24.3030
 2.0830	24.3340
 2.0840	24.3660
 2.0850	24.3980
 2.0860	24.4300
 2.0870	24.4630
 2.0880	24.4940
 2.0890	24.5280
 2.0900	24.5630
 2.0910	24.5950
 2.0920	24.6290
 2.0930	24.6590
 2.0940	24.6870
 2.0950	24.7160
 2.0960	24.7450
 2.0970	24.7750
 2.0980	24.8050
 2.0990	24.8370
 2.1000	24.8710
 2.1010	24.9030
 2.1020	24.9340
 2.1030	24.9650
 2.1040	24.9980
 2.1050	25.0280
 2.1060	25.0580
 2.1070	25.0900
 2.1080	25.1200
 2.1090	25.1490
 2.1100	25.1770
 2.1110	25.2040
 2.1120	25.2350
 2.1130	25.2690
 2.1140	25.3020
 2.1150	25.3390
 2.1160	25.3720
 2.1170	25.3980
 2.1180	25.4280
 2.1190	25.4580
 2.1200	25.4890
 2.1210	25.5210
 2.1220	25.5570
 2.1230	25.5900
 2.1240	25.6220
 2.1250	25.6520
 2.1260	25.6790
 2.1270	25.7060
 2.1280	25.7310
 2.1290	25.7570
 2.1300	25.7830
 2.1310	25.8080
 2.1320	25.8330
 2.1330	25.8580
 2.1340	25.8820
 2.1350	25.9080
 2.1360	25.9360
 2.1370	25.9620
 2.1380	25.9870
 2.1390	26.0120
 2.1400	26.0340
 2.1410	26.0580
 2.1420	26.0840
 2.1430	26.1120
 2.1440	26.1400
 2.1450	26.1710
 2.1460	26.1980
 2.1470	26.2220
 2.1480	26.2470
 2.1490	26.2710
 2.1500	26.2930
 2.1510	26.3130
 2.1520	26.3340
 2.1530	26.3530
 2.1540	26.3740
 2.1550	26.3940
 2.1560	26.4160
 2.1570	26.4360
 2.1580	26.4590
 2.1590	26.4870
 2.1600	26.5120
 2.1610	26.5370
 2.1620	26.5580
 2.1630	26.5770
 2.1640	26.5900
 2.1650	26.6060
 2.1660	26.6190
 2.1670	26.6360
 2.1680	26.6530
 2.1690	26.6740
 2.1700	26.7000
 2.1710	26.7230
 2.1720	26.7480
 2.1730	26.7710
 2.1740	26.7900
 2.1750	26.8100
 2.1760	26.8300
 2.1770	26.8480
 2.1780	26.8670
 2.1790	26.8840
 2.1800	26.9020
 2.1810	26.9180
 2.1820	26.9330
 2.1830	26.9480
 2.1840	26.9630
 2.1850	26.9760
 2.1860	26.9950
 2.1870	27.0190
 2.1880	27.0400
 2.1890	27.0660
 2.1900	27.0840
 2.1910	27.0980
 2.1920	27.1110
 2.1930	27.1170
 2.1940	27.1310
 2.1950	27.1470
 2.1960	27.1630
 2.1970	27.1870
 2.1980	27.2020
 2.1990	27.2130
 2.2000	27.2240
 2.2010	27.2290
 2.2020	27.2390
 2.2030	27.2540
 2.2040	27.2640
 2.2050	27.2720
 2.2060	27.2830
 2.2070	27.2930
 2.2080	27.3010
 2.2090	27.3090
 2.2100	27.3210
 2.2110	27.3270
 2.2120	27.3270
 2.2130	27.3280
 2.2140	27.3250
 2.2150	27.3240
 2.2160	27.3240
 2.2170	27.3210
 2.2180	27.3190
 2.2190	27.3140
 2.2200	27.3060
 2.2210	27.2960
 2.2220	27.2860
 2.2230	27.2710
 2.2240	27.2530
 2.2250	27.2330
 2.2260	27.2130
 2.2270	27.1840
 2.2280	27.1480
 2.2290	27.1110
 2.2300	27.0680
 2.2310	27.0200
 2.2320	26.9750
 2.2330	26.9300
 2.2340	26.8810
 2.2350	26.8310
 2.2360	26.7750
 2.2370	26.7160
 2.2380	26.6530
 2.2390	26.5860
 2.2400	26.5170
 2.2410	26.4450
 2.2420	26.3700
 2.2430	26.2930
 2.2440	26.2090
 2.2450	26.1160
 2.2460	26.0270
 2.2470	25.9390
 2.2480	25.8410
 2.2490	25.7380
 2.2500	25.6370
 2.2510	25.5290
 2.2520	25.4220
 2.2530	25.3200
 2.2540	25.2120
 2.2550	25.0920
 2.2560	24.9810
 2.2570	24.8730
 2.2580	24.7660
 2.2590	24.6650
 2.2600	24.5620
 2.2610	24.4580
 2.2620	24.3520
 2.2630	24.2540
 2.2640	24.1550
 2.2650	24.0600
 2.2660	23.9690
 2.2670	23.8740
 2.2680	23.7760
 2.2690	23.6840
 2.2700	23.5930
 2.2710	23.5070
 2.2720	23.4250
 2.2730	23.3470
 2.2740	23.2730
 2.2750	23.1990
 2.2760	23.1300
 2.2770	23.0600
 2.2780	22.9930
 2.2790	22.9230
 2.2800	22.8540
 2.2810	22.7830
 2.2820	22.7080
 2.2830	22.6350
 2.2840	22.5650
 2.2850	22.4900
 2.2860	22.4160
 2.2870	22.3380
 2.2880	22.2520
 2.2890	22.1670
 2.2900	22.0780
 2.2910	21.9940
 2.2920	21.9140
 2.2930	21.8310
 2.2940	21.7500
 2.2950	21.6690
 2.2960	21.5830
 2.2970	21.5010
 2.2980	21.4200
 2.2990	21.3450
 2.3000	21.2700
 2.3010	21.2020
 2.3020	21.1540
 2.3030	21.1100
 2.3040	21.0720
 2.3050	21.0480
 2.3060	21.0270
 2.3070	21.0060
 2.3080	20.9990
 2.3090	21.0020
 2.3100	21.0070
 2.3110	21.0190
 2.3120	21.0360
 2.3130	21.0620
 2.3140	21.0870
 2.3150	21.1170
 2.3160	21.1430
 2.3170	21.1690
 2.3180	21.1910
 2.3190	21.2110
 2.3200	21.2290
 2.3210	21.2450
 2.3220	21.2520
 2.3230	21.2550
 2.3240	21.2480
 2.3250	21.2290
 2.3260	21.2110
 2.3270	21.1860
 2.3280	21.1630
 2.3290	21.1400
 2.3300	21.1150
 2.3310	21.0900
 2.3320	21.0600
 2.3330	21.0280
 2.3340	20.9890
 2.3350	20.9410
 2.3360	20.8970
 2.3370	20.8490
 2.3380	20.8050
 2.3390	20.7640
 2.3400	20.7200
 2.3410	20.6710
 2.3420	20.6240
 2.3430	20.5750
 2.3440	20.5310
 2.3450	20.4860
 2.3460	20.4520
 2.3470	20.4270
 2.3480	20.4020
 2.3490	20.3870
 2.3500	20.3680
 2.3510	20.3480
 2.3520	20.3280
 2.3530	20.3050
 2.3540	20.2840
 2.3550	20.2760
 2.3560	20.2660
 2.3570	20.2580
 2.3580	20.2540
 2.3590	20.2430
 2.3600	20.2300
 2.3610	20.2150
 2.3620	20.2020
 2.3630	20.1870
 2.3640	20.1630
 2.3650	20.1480
 2.3660	20.1330
 2.3670	20.1100
 2.3680	20.0890
 2.3690	20.0690
 2.3700	20.0400
 2.3710	20.0110
 2.3720	19.9880
 2.3730	19.9560
 2.3740	19.9230
 2.3750	19.8960
 2.3760	19.8690
 2.3770	19.8450
 2.3780	19.8250
 2.3790	19.8010
 2.3800	19.7670
 2.3810	19.7250
 2.3820	19.6810
 2.3830	19.6400
 2.3840	19.6070
 2.3850	19.5750
 2.3860	19.5440
 2.3870	19.5100
 2.3880	19.4680
 2.3890	19.4340
 2.3900	19.3990
 2.3910	19.3520
 2.3920	19.3060
 2.3930	19.2690
 2.3940	19.2300
 2.3950	19.1950
 2.3960	19.1660
 2.3970	19.1170
 2.3980	19.0580
 2.3990	19.0070
 2.4000	18.9530
 2.4010	18.9000
 2.4020	18.8590
 2.4030	18.8230
 2.4040	18.7910
 2.4050	18.7600
 2.4060	18.7180
 2.4070	18.6670
 2.4080	18.6080
 2.4090	18.5520
 2.4100	18.5120
 2.4110	18.4650
 2.4120	18.4220
 2.4130	18.3900
 2.4140	18.3470
 2.4150	18.3030
 2.4160	18.2600
 2.4170	18.1980
 2.4180	18.1430
 2.4190	18.1000
 2.4200	18.0590
 2.4210	18.0250
 2.4220	17.9710
 2.4230	17.8990
 2.4240	17.8330
 2.4250	17.7850
 2.4260	17.7470
 2.4270	17.7040
 2.4280	17.6610
 2.4290	17.5960
 2.4300	17.5220
 2.4310	17.4770
 2.4320	17.4330
 2.4330	17.3730
 2.4340	17.3160
 2.4350	17.2580
 2.4360	17.1940
 2.4370	17.1480
 2.4380	17.1100
 2.4390	17.0570
 2.4400	16.9960
 2.4410	16.9250
 2.4420	16.8700
 2.4430	16.8200
 2.4440	16.7620
 2.4450	16.6990
 2.4460	16.6140
 2.4470	16.5260
 2.4480	16.4550
 2.4490	16.4040
 2.4500	16.3440
 2.4510	16.2960
 2.4520	16.2520
 2.4530	16.1990
 2.4540	16.1620
 2.4550	16.1130
 2.4560	16.0470
 2.4570	15.9760
 2.4580	15.8940
 2.4590	15.8000
 2.4600	15.7210
 2.4610	15.6610
 2.4620	15.5940
 2.4630	15.5320
 2.4640	15.4930
 2.4650	15.4570
 2.4660	15.4260
 2.4670	15.4070
 2.4680	15.3690
 2.4690	15.3450
 2.4700	15.3090
 2.4710	15.2820
 2.4720	15.2350
 2.4730	15.1490
 2.4740	15.0910
 2.4750	15.0310
 2.4760	14.9820
 2.4770	14.9520
 2.4780	14.9160
 2.4790	14.8910
 2.4800	14.8620
 2.4810	14.8320
 2.4820	14.8010
 2.4830	14.7880
 2.4840	14.8070
 2.4850	14.8060
 2.4860	14.7730
 2.4870	14.7310
 2.4880	14.6590
 2.4890	14.6040
 2.4900	14.6040
 2.4910	14.5830
 2.4920	14.5960
 2.4930	14.6320
 2.4940	14.6200
 2.4950	14.6260
 2.4960	14.5900
 2.4970	14.4940
 2.4980	14.4310
 2.4990	14.3540
 2.5000	14.3300
