Name: Quercus agrifolia 3
Type: vegetation
Class: Tree
Genus: Quercus
Species: agrifolia
Sample No.: VH180
Owner: UCSB
Wavelength Range: VSWIR
Origin: 34.7165; -120.0603; WGS84
Collection Date: 6/9/2013
Description: Samples were collected as part of the HyspIRI Airborne Campaign. 48 individual plants were sampled in three times in 2013 - spring  summer  and fall. The name of the sample includes a 1  2  or 3 which references a different individual of the species. Samples were taken to JPL and processed within 48 hours of collection. The same leaves were processed in the Nicolet and then measured using the ASD.
Measurement: Bidirectional reflectance
First Column: X
Second Column: Y
X Units: Wavelength (micrometers)
Y Units: Reflectance (percentage)
First X Value: 0.35
Last X Value: 2.5
Number of X Values: 2151
Additional Information: vegetation.tree.quercus.agrifolia.vswir.vh180.ucsb.asd.ancillary.txt

 0.3500	 3.7290
 0.3510	 3.7240
 0.3520	 3.6450
 0.3530	 3.6660
 0.3540	 3.8490
 0.3550	 3.7730
 0.3560	 3.7340
 0.3570	 3.7010
 0.3580	 3.5130
 0.3590	 3.5500
 0.3600	 3.6190
 0.3610	 3.6360
 0.3620	 3.7330
 0.3630	 3.7030
 0.3640	 3.6370
 0.3650	 3.6350
 0.3660	 3.5370
 0.3670	 3.5160
 0.3680	 3.5710
 0.3690	 3.5880
 0.3700	 3.6830
 0.3710	 3.7220
 0.3720	 3.6690
 0.3730	 3.6960
 0.3740	 3.6540
 0.3750	 3.6240
 0.3760	 3.6980
 0.3770	 3.6820
 0.3780	 3.6650
 0.3790	 3.6780
 0.3800	 3.6850
 0.3810	 3.6810
 0.3820	 3.6220
 0.3830	 3.5330
 0.3840	 3.5750
 0.3850	 3.6210
 0.3860	 3.6190
 0.3870	 3.5770
 0.3880	 3.5570
 0.3890	 3.5710
 0.3900	 3.6080
 0.3910	 3.6240
 0.3920	 3.6050
 0.3930	 3.5850
 0.3940	 3.5950
 0.3950	 3.5960
 0.3960	 3.6160
 0.3970	 3.6180
 0.3980	 3.5680
 0.3990	 3.5500
 0.4000	 3.5780
 0.4010	 3.6170
 0.4020	 3.5750
 0.4030	 3.5670
 0.4040	 3.6020
 0.4050	 3.6420
 0.4060	 3.6450
 0.4070	 3.6240
 0.4080	 3.6010
 0.4090	 3.5920
 0.4100	 3.6210
 0.4110	 3.6410
 0.4120	 3.6390
 0.4130	 3.6690
 0.4140	 3.6840
 0.4150	 3.6880
 0.4160	 3.7000
 0.4170	 3.6980
 0.4180	 3.7040
 0.4190	 3.7230
 0.4200	 3.7320
 0.4210	 3.7480
 0.4220	 3.7620
 0.4230	 3.7700
 0.4240	 3.7910
 0.4250	 3.8010
 0.4260	 3.8090
 0.4270	 3.8210
 0.4280	 3.8320
 0.4290	 3.8460
 0.4300	 3.8620
 0.4310	 3.8640
 0.4320	 3.8860
 0.4330	 3.9140
 0.4340	 3.9300
 0.4350	 3.9380
 0.4360	 3.9410
 0.4370	 3.9470
 0.4380	 3.9640
 0.4390	 3.9680
 0.4400	 3.9640
 0.4410	 3.9620
 0.4420	 3.9780
 0.4430	 4.0010
 0.4440	 4.0140
 0.4450	 4.0100
 0.4460	 4.0210
 0.4470	 4.0310
 0.4480	 4.0310
 0.4490	 4.0370
 0.4500	 4.0530
 0.4510	 4.0690
 0.4520	 4.0780
 0.4530	 4.0810
 0.4540	 4.0920
 0.4550	 4.1030
 0.4560	 4.1040
 0.4570	 4.1100
 0.4580	 4.1230
 0.4590	 4.1340
 0.4600	 4.1230
 0.4610	 4.1190
 0.4620	 4.1280
 0.4630	 4.1340
 0.4640	 4.1360
 0.4650	 4.1440
 0.4660	 4.1510
 0.4670	 4.1360
 0.4680	 4.1430
 0.4690	 4.1490
 0.4700	 4.1430
 0.4710	 4.1550
 0.4720	 4.1540
 0.4730	 4.1480
 0.4740	 4.1460
 0.4750	 4.1590
 0.4760	 4.1660
 0.4770	 4.1610
 0.4780	 4.1550
 0.4790	 4.1540
 0.4800	 4.1570
 0.4810	 4.1540
 0.4820	 4.1590
 0.4830	 4.1650
 0.4840	 4.1700
 0.4850	 4.1730
 0.4860	 4.1860
 0.4870	 4.2000
 0.4880	 4.2110
 0.4890	 4.2140
 0.4900	 4.2180
 0.4910	 4.2260
 0.4920	 4.2520
 0.4930	 4.2680
 0.4940	 4.2790
 0.4950	 4.2930
 0.4960	 4.3200
 0.4970	 4.3380
 0.4980	 4.3480
 0.4990	 4.3700
 0.5000	 4.3980
 0.5010	 4.4260
 0.5020	 4.4520
 0.5030	 4.4870
 0.5040	 4.5230
 0.5050	 4.5670
 0.5060	 4.6150
 0.5070	 4.6770
 0.5080	 4.7300
 0.5090	 4.7850
 0.5100	 4.8550
 0.5110	 4.9230
 0.5120	 4.9950
 0.5130	 5.0800
 0.5140	 5.1790
 0.5150	 5.2840
 0.5160	 5.3890
 0.5170	 5.4970
 0.5180	 5.6210
 0.5190	 5.7500
 0.5200	 5.8750
 0.5210	 6.0070
 0.5220	 6.1530
 0.5230	 6.2990
 0.5240	 6.4330
 0.5250	 6.5590
 0.5260	 6.6890
 0.5270	 6.8170
 0.5280	 6.9410
 0.5290	 7.0510
 0.5300	 7.1530
 0.5310	 7.2510
 0.5320	 7.3480
 0.5330	 7.4330
 0.5340	 7.5080
 0.5350	 7.5740
 0.5360	 7.6380
 0.5370	 7.6930
 0.5380	 7.7410
 0.5390	 7.7890
 0.5400	 7.8350
 0.5410	 7.8790
 0.5420	 7.9250
 0.5430	 7.9690
 0.5440	 8.0110
 0.5450	 8.0420
 0.5460	 8.0670
 0.5470	 8.0840
 0.5480	 8.1010
 0.5490	 8.1210
 0.5500	 8.1370
 0.5510	 8.1470
 0.5520	 8.1500
 0.5530	 8.1490
 0.5540	 8.1340
 0.5550	 8.1110
 0.5560	 8.0810
 0.5570	 8.0410
 0.5580	 7.9950
 0.5590	 7.9410
 0.5600	 7.8810
 0.5610	 7.8210
 0.5620	 7.7570
 0.5630	 7.6920
 0.5640	 7.6240
 0.5650	 7.5420
 0.5660	 7.4560
 0.5670	 7.3650
 0.5680	 7.2660
 0.5690	 7.1670
 0.5700	 7.0720
 0.5710	 6.9810
 0.5720	 6.8890
 0.5730	 6.8050
 0.5740	 6.7280
 0.5750	 6.6640
 0.5760	 6.6140
 0.5770	 6.5690
 0.5780	 6.5180
 0.5790	 6.4650
 0.5800	 6.4130
 0.5810	 6.3670
 0.5820	 6.3190
 0.5830	 6.2730
 0.5840	 6.2250
 0.5850	 6.1750
 0.5860	 6.1270
 0.5870	 6.0840
 0.5880	 6.0430
 0.5890	 6.0150
 0.5900	 5.9990
 0.5910	 5.9900
 0.5920	 5.9810
 0.5930	 5.9670
 0.5940	 5.9510
 0.5950	 5.9320
 0.5960	 5.9100
 0.5970	 5.8900
 0.5980	 5.8650
 0.5990	 5.8390
 0.6000	 5.8160
 0.6010	 5.7940
 0.6020	 5.7730
 0.6030	 5.7490
 0.6040	 5.7240
 0.6050	 5.6980
 0.6060	 5.6700
 0.6070	 5.6360
 0.6080	 5.6090
 0.6090	 5.5790
 0.6100	 5.5470
 0.6110	 5.5220
 0.6120	 5.4850
 0.6130	 5.4400
 0.6140	 5.3910
 0.6150	 5.3530
 0.6160	 5.3180
 0.6170	 5.2860
 0.6180	 5.2590
 0.6190	 5.2280
 0.6200	 5.2020
 0.6210	 5.1830
 0.6220	 5.1640
 0.6230	 5.1470
 0.6240	 5.1350
 0.6250	 5.1220
 0.6260	 5.1080
 0.6270	 5.1050
 0.6280	 5.1040
 0.6290	 5.0990
 0.6300	 5.0910
 0.6310	 5.0860
 0.6320	 5.0810
 0.6330	 5.0740
 0.6340	 5.0600
 0.6350	 5.0400
 0.6360	 5.0210
 0.6370	 4.9980
 0.6380	 4.9680
 0.6390	 4.9350
 0.6400	 4.9000
 0.6410	 4.8620
 0.6420	 4.8240
 0.6430	 4.7880
 0.6440	 4.7510
 0.6450	 4.7140
 0.6460	 4.6790
 0.6470	 4.6410
 0.6480	 4.6100
 0.6490	 4.5810
 0.6500	 4.5580
 0.6510	 4.5410
 0.6520	 4.5240
 0.6530	 4.5110
 0.6540	 4.4950
 0.6550	 4.4760
 0.6560	 4.4540
 0.6570	 4.4320
 0.6580	 4.4120
 0.6590	 4.3880
 0.6600	 4.3580
 0.6610	 4.3300
 0.6620	 4.3110
 0.6630	 4.2900
 0.6640	 4.2690
 0.6650	 4.2490
 0.6660	 4.2340
 0.6670	 4.2220
 0.6680	 4.2120
 0.6690	 4.2080
 0.6700	 4.2030
 0.6710	 4.1990
 0.6720	 4.2010
 0.6730	 4.2130
 0.6740	 4.2220
 0.6750	 4.2310
 0.6760	 4.2430
 0.6770	 4.2590
 0.6780	 4.2770
 0.6790	 4.2960
 0.6800	 4.3250
 0.6810	 4.3580
 0.6820	 4.3930
 0.6830	 4.4270
 0.6840	 4.4690
 0.6850	 4.5180
 0.6860	 4.5760
 0.6870	 4.6470
 0.6880	 4.7310
 0.6890	 4.8300
 0.6900	 4.9550
 0.6910	 5.1050
 0.6920	 5.2840
 0.6930	 5.5030
 0.6940	 5.7650
 0.6950	 6.0740
 0.6960	 6.4310
 0.6970	 6.8390
 0.6980	 7.2990
 0.6990	 7.8050
 0.7000	 8.3600
 0.7010	 8.9560
 0.7020	 9.5830
 0.7030	10.2390
 0.7040	10.9190
 0.7050	11.6120
 0.7060	12.3150
 0.7070	13.0230
 0.7080	13.7370
 0.7090	14.4560
 0.7100	15.1710
 0.7110	15.8860
 0.7120	16.5970
 0.7130	17.2980
 0.7140	18.0000
 0.7150	18.6950
 0.7160	19.3780
 0.7170	20.0550
 0.7180	20.7220
 0.7190	21.3790
 0.7200	22.0230
 0.7210	22.6510
 0.7220	23.2640
 0.7230	23.8610
 0.7240	24.4440
 0.7250	25.0040
 0.7260	25.5470
 0.7270	26.0780
 0.7280	26.5740
 0.7290	27.0540
 0.7300	27.5160
 0.7310	27.9510
 0.7320	28.3710
 0.7330	28.7720
 0.7340	29.1500
 0.7350	29.5040
 0.7360	29.8420
 0.7370	30.1640
 0.7380	30.4700
 0.7390	30.7550
 0.7400	31.0230
 0.7410	31.2730
 0.7420	31.5090
 0.7430	31.7280
 0.7440	31.9330
 0.7450	32.1230
 0.7460	32.2970
 0.7470	32.4620
 0.7480	32.6120
 0.7490	32.7480
 0.7500	32.8790
 0.7510	32.9940
 0.7520	33.0980
 0.7530	33.2000
 0.7540	33.2850
 0.7550	33.3680
 0.7560	33.4480
 0.7570	33.5110
 0.7580	33.5770
 0.7590	33.6370
 0.7600	33.6880
 0.7610	33.7410
 0.7620	33.7850
 0.7630	33.8240
 0.7640	33.8600
 0.7650	33.8950
 0.7660	33.9280
 0.7670	33.9580
 0.7680	33.9880
 0.7690	34.0110
 0.7700	34.0300
 0.7710	34.0480
 0.7720	34.0740
 0.7730	34.0940
 0.7740	34.1100
 0.7750	34.1250
 0.7760	34.1430
 0.7770	34.1600
 0.7780	34.1740
 0.7790	34.1870
 0.7800	34.2020
 0.7810	34.2200
 0.7820	34.2390
 0.7830	34.2570
 0.7840	34.2690
 0.7850	34.2810
 0.7860	34.2960
 0.7870	34.3080
 0.7880	34.3170
 0.7890	34.3270
 0.7900	34.3430
 0.7910	34.3510
 0.7920	34.3650
 0.7930	34.3840
 0.7940	34.3950
 0.7950	34.4040
 0.7960	34.4120
 0.7970	34.4230
 0.7980	34.4360
 0.7990	34.4520
 0.8000	34.4640
 0.8010	34.4680
 0.8020	34.4750
 0.8030	34.4810
 0.8040	34.4890
 0.8050	34.5000
 0.8060	34.5080
 0.8070	34.5120
 0.8080	34.5190
 0.8090	34.5330
 0.8100	34.5430
 0.8110	34.5550
 0.8120	34.5670
 0.8130	34.5700
 0.8140	34.5740
 0.8150	34.5790
 0.8160	34.5840
 0.8170	34.5920
 0.8180	34.5970
 0.8190	34.6030
 0.8200	34.6170
 0.8210	34.6230
 0.8220	34.6310
 0.8230	34.6430
 0.8240	34.6500
 0.8250	34.6520
 0.8260	34.6600
 0.8270	34.6720
 0.8280	34.6720
 0.8290	34.6770
 0.8300	34.6850
 0.8310	34.6930
 0.8320	34.6950
 0.8330	34.7030
 0.8340	34.7160
 0.8350	34.7240
 0.8360	34.7290
 0.8370	34.7320
 0.8380	34.7370
 0.8390	34.7550
 0.8400	34.7680
 0.8410	34.7780
 0.8420	34.7880
 0.8430	34.7960
 0.8440	34.8010
 0.8450	34.8080
 0.8460	34.8220
 0.8470	34.8330
 0.8480	34.8460
 0.8490	34.8600
 0.8500	34.8680
 0.8510	34.8790
 0.8520	34.8860
 0.8530	34.8920
 0.8540	34.9050
 0.8550	34.9180
 0.8560	34.9280
 0.8570	34.9350
 0.8580	34.9420
 0.8590	34.9510
 0.8600	34.9600
 0.8610	34.9700
 0.8620	34.9780
 0.8630	34.9860
 0.8640	34.9940
 0.8650	35.0040
 0.8660	35.0140
 0.8670	35.0220
 0.8680	35.0310
 0.8690	35.0440
 0.8700	35.0550
 0.8710	35.0580
 0.8720	35.0580
 0.8730	35.0710
 0.8740	35.0810
 0.8750	35.0930
 0.8760	35.1050
 0.8770	35.1070
 0.8780	35.1100
 0.8790	35.1200
 0.8800	35.1340
 0.8810	35.1400
 0.8820	35.1420
 0.8830	35.1460
 0.8840	35.1550
 0.8850	35.1610
 0.8860	35.1640
 0.8870	35.1690
 0.8880	35.1760
 0.8890	35.1820
 0.8900	35.1830
 0.8910	35.1890
 0.8920	35.2090
 0.8930	35.2100
 0.8940	35.2080
 0.8950	35.2130
 0.8960	35.2210
 0.8970	35.2200
 0.8980	35.2150
 0.8990	35.2150
 0.9000	35.2260
 0.9010	35.2420
 0.9020	35.2520
 0.9030	35.2550
 0.9040	35.2610
 0.9050	35.2600
 0.9060	35.2580
 0.9070	35.2570
 0.9080	35.2560
 0.9090	35.2600
 0.9100	35.2650
 0.9110	35.2670
 0.9120	35.2740
 0.9130	35.2760
 0.9140	35.2740
 0.9150	35.2730
 0.9160	35.2780
 0.9170	35.2820
 0.9180	35.2850
 0.9190	35.2890
 0.9200	35.2870
 0.9210	35.2840
 0.9220	35.2850
 0.9230	35.2910
 0.9240	35.2910
 0.9250	35.2860
 0.9260	35.2790
 0.9270	35.2750
 0.9280	35.2650
 0.9290	35.2570
 0.9300	35.2540
 0.9310	35.2490
 0.9320	35.2480
 0.9330	35.2460
 0.9340	35.2420
 0.9350	35.2330
 0.9360	35.2220
 0.9370	35.2080
 0.9380	35.1940
 0.9390	35.1880
 0.9400	35.1820
 0.9410	35.1690
 0.9420	35.1510
 0.9430	35.1380
 0.9440	35.1220
 0.9450	35.1040
 0.9460	35.0840
 0.9470	35.0670
 0.9480	35.0400
 0.9490	35.0070
 0.9500	34.9780
 0.9510	34.9550
 0.9520	34.9280
 0.9530	34.8960
 0.9540	34.8600
 0.9550	34.8290
 0.9560	34.7920
 0.9570	34.7480
 0.9580	34.7070
 0.9590	34.6820
 0.9600	34.6550
 0.9610	34.6290
 0.9620	34.6060
 0.9630	34.5780
 0.9640	34.5650
 0.9650	34.5550
 0.9660	34.5350
 0.9670	34.5230
 0.9680	34.5200
 0.9690	34.5160
 0.9700	34.4980
 0.9710	34.4850
 0.9720	34.4750
 0.9730	34.4770
 0.9740	34.4900
 0.9750	34.4860
 0.9760	34.4850
 0.9770	34.4880
 0.9780	34.4830
 0.9790	34.4660
 0.9800	34.4760
 0.9810	34.4990
 0.9820	34.5010
 0.9830	34.5030
 0.9840	34.5160
 0.9850	34.5220
 0.9860	34.5080
 0.9870	34.5350
 0.9880	34.5580
 0.9890	34.5650
 0.9900	34.5680
 0.9910	34.5870
 0.9920	34.6150
 0.9930	34.6360
 0.9940	34.6390
 0.9950	34.6470
 0.9960	34.6600
 0.9970	34.6820
 0.9980	34.7140
 0.9990	34.7370
 1.0000	34.8250
 1.0010	34.9840
 1.0020	35.0810
 1.0030	35.1020
 1.0040	35.1200
 1.0050	35.1380
 1.0060	35.1560
 1.0070	35.1770
 1.0080	35.1960
 1.0090	35.2170
 1.0100	35.2370
 1.0110	35.2560
 1.0120	35.2750
 1.0130	35.2930
 1.0140	35.3120
 1.0150	35.3310
 1.0160	35.3500
 1.0170	35.3670
 1.0180	35.3810
 1.0190	35.3970
 1.0200	35.4140
 1.0210	35.4370
 1.0220	35.4580
 1.0230	35.4760
 1.0240	35.4930
 1.0250	35.5100
 1.0260	35.5240
 1.0270	35.5390
 1.0280	35.5580
 1.0290	35.5720
 1.0300	35.5810
 1.0310	35.5940
 1.0320	35.6080
 1.0330	35.6210
 1.0340	35.6360
 1.0350	35.6520
 1.0360	35.6680
 1.0370	35.6830
 1.0380	35.6970
 1.0390	35.7110
 1.0400	35.7240
 1.0410	35.7340
 1.0420	35.7460
 1.0430	35.7580
 1.0440	35.7690
 1.0450	35.7760
 1.0460	35.7860
 1.0470	35.7980
 1.0480	35.8100
 1.0490	35.8250
 1.0500	35.8380
 1.0510	35.8520
 1.0520	35.8620
 1.0530	35.8720
 1.0540	35.8820
 1.0550	35.8910
 1.0560	35.9000
 1.0570	35.9080
 1.0580	35.9160
 1.0590	35.9240
 1.0600	35.9300
 1.0610	35.9400
 1.0620	35.9540
 1.0630	35.9640
 1.0640	35.9730
 1.0650	35.9810
 1.0660	35.9860
 1.0670	35.9920
 1.0680	35.9970
 1.0690	36.0030
 1.0700	36.0090
 1.0710	36.0130
 1.0720	36.0200
 1.0730	36.0310
 1.0740	36.0370
 1.0750	36.0430
 1.0760	36.0470
 1.0770	36.0460
 1.0780	36.0500
 1.0790	36.0530
 1.0800	36.0570
 1.0810	36.0620
 1.0820	36.0670
 1.0830	36.0690
 1.0840	36.0720
 1.0850	36.0740
 1.0860	36.0760
 1.0870	36.0800
 1.0880	36.0840
 1.0890	36.0870
 1.0900	36.0910
 1.0910	36.0930
 1.0920	36.0920
 1.0930	36.0910
 1.0940	36.0880
 1.0950	36.0860
 1.0960	36.0820
 1.0970	36.0800
 1.0980	36.0770
 1.0990	36.0740
 1.1000	36.0740
 1.1010	36.0700
 1.1020	36.0650
 1.1030	36.0600
 1.1040	36.0550
 1.1050	36.0490
 1.1060	36.0420
 1.1070	36.0370
 1.1080	36.0290
 1.1090	36.0180
 1.1100	36.0080
 1.1110	35.9990
 1.1120	35.9890
 1.1130	35.9790
 1.1140	35.9680
 1.1150	35.9570
 1.1160	35.9440
 1.1170	35.9320
 1.1180	35.9160
 1.1190	35.8970
 1.1200	35.8790
 1.1210	35.8600
 1.1220	35.8360
 1.1230	35.8090
 1.1240	35.7800
 1.1250	35.7470
 1.1260	35.7090
 1.1270	35.6700
 1.1280	35.6300
 1.1290	35.5850
 1.1300	35.5360
 1.1310	35.4830
 1.1320	35.4260
 1.1330	35.3630
 1.1340	35.2970
 1.1350	35.2240
 1.1360	35.1460
 1.1370	35.0630
 1.1380	34.9750
 1.1390	34.8850
 1.1400	34.7910
 1.1410	34.6940
 1.1420	34.5940
 1.1430	34.4930
 1.1440	34.3920
 1.1450	34.2880
 1.1460	34.1870
 1.1470	34.0860
 1.1480	33.9890
 1.1490	33.8930
 1.1500	33.8030
 1.1510	33.7170
 1.1520	33.6350
 1.1530	33.5560
 1.1540	33.4840
 1.1550	33.4170
 1.1560	33.3560
 1.1570	33.3000
 1.1580	33.2490
 1.1590	33.2040
 1.1600	33.1650
 1.1610	33.1320
 1.1620	33.1020
 1.1630	33.0740
 1.1640	33.0490
 1.1650	33.0280
 1.1660	33.0120
 1.1670	32.9960
 1.1680	32.9850
 1.1690	32.9740
 1.1700	32.9620
 1.1710	32.9520
 1.1720	32.9450
 1.1730	32.9350
 1.1740	32.9260
 1.1750	32.9160
 1.1760	32.9060
 1.1770	32.8950
 1.1780	32.8840
 1.1790	32.8710
 1.1800	32.8580
 1.1810	32.8440
 1.1820	32.8320
 1.1830	32.8200
 1.1840	32.8050
 1.1850	32.7920
 1.1860	32.7790
 1.1870	32.7650
 1.1880	32.7540
 1.1890	32.7450
 1.1900	32.7360
 1.1910	32.7270
 1.1920	32.7200
 1.1930	32.7120
 1.1940	32.7060
 1.1950	32.7010
 1.1960	32.6970
 1.1970	32.6920
 1.1980	32.6910
 1.1990	32.6900
 1.2000	32.6910
 1.2010	32.6950
 1.2020	32.6970
 1.2030	32.6990
 1.2040	32.7040
 1.2050	32.7110
 1.2060	32.7200
 1.2070	32.7310
 1.2080	32.7430
 1.2090	32.7550
 1.2100	32.7690
 1.2110	32.7860
 1.2120	32.8050
 1.2130	32.8270
 1.2140	32.8510
 1.2150	32.8790
 1.2160	32.9100
 1.2170	32.9410
 1.2180	32.9760
 1.2190	33.0120
 1.2200	33.0480
 1.2210	33.0860
 1.2220	33.1240
 1.2230	33.1600
 1.2240	33.1970
 1.2250	33.2340
 1.2260	33.2720
 1.2270	33.3100
 1.2280	33.3470
 1.2290	33.3840
 1.2300	33.4180
 1.2310	33.4510
 1.2320	33.4820
 1.2330	33.5120
 1.2340	33.5410
 1.2350	33.5690
 1.2360	33.5960
 1.2370	33.6220
 1.2380	33.6470
 1.2390	33.6700
 1.2400	33.6940
 1.2410	33.7170
 1.2420	33.7400
 1.2430	33.7610
 1.2440	33.7840
 1.2450	33.8060
 1.2460	33.8290
 1.2470	33.8510
 1.2480	33.8700
 1.2490	33.8900
 1.2500	33.9070
 1.2510	33.9230
 1.2520	33.9400
 1.2530	33.9540
 1.2540	33.9680
 1.2550	33.9810
 1.2560	33.9940
 1.2570	34.0060
 1.2580	34.0170
 1.2590	34.0270
 1.2600	34.0350
 1.2610	34.0430
 1.2620	34.0500
 1.2630	34.0570
 1.2640	34.0630
 1.2650	34.0690
 1.2660	34.0750
 1.2670	34.0790
 1.2680	34.0810
 1.2690	34.0830
 1.2700	34.0830
 1.2710	34.0800
 1.2720	34.0790
 1.2730	34.0770
 1.2740	34.0750
 1.2750	34.0740
 1.2760	34.0740
 1.2770	34.0720
 1.2780	34.0660
 1.2790	34.0560
 1.2800	34.0470
 1.2810	34.0390
 1.2820	34.0310
 1.2830	34.0240
 1.2840	34.0160
 1.2850	34.0030
 1.2860	33.9890
 1.2870	33.9750
 1.2880	33.9590
 1.2890	33.9440
 1.2900	33.9290
 1.2910	33.9120
 1.2920	33.8930
 1.2930	33.8720
 1.2940	33.8510
 1.2950	33.8290
 1.2960	33.8060
 1.2970	33.7800
 1.2980	33.7530
 1.2990	33.7250
 1.3000	33.6950
 1.3010	33.6660
 1.3020	33.6340
 1.3030	33.5960
 1.3040	33.5570
 1.3050	33.5160
 1.3060	33.4720
 1.3070	33.4290
 1.3080	33.3820
 1.3090	33.3340
 1.3100	33.2830
 1.3110	33.2280
 1.3120	33.1690
 1.3130	33.1090
 1.3140	33.0460
 1.3150	32.9810
 1.3160	32.9130
 1.3170	32.8420
 1.3180	32.7690
 1.3190	32.6940
 1.3200	32.6160
 1.3210	32.5350
 1.3220	32.4520
 1.3230	32.3620
 1.3240	32.2680
 1.3250	32.1750
 1.3260	32.0790
 1.3270	31.9810
 1.3280	31.8810
 1.3290	31.7770
 1.3300	31.6710
 1.3310	31.5620
 1.3320	31.4510
 1.3330	31.3410
 1.3340	31.2280
 1.3350	31.1140
 1.3360	30.9990
 1.3370	30.8800
 1.3380	30.7610
 1.3390	30.6430
 1.3400	30.5230
 1.3410	30.4070
 1.3420	30.2920
 1.3430	30.1760
 1.3440	30.0610
 1.3450	29.9470
 1.3460	29.8320
 1.3470	29.7200
 1.3480	29.6100
 1.3490	29.5000
 1.3500	29.3930
 1.3510	29.2850
 1.3520	29.1770
 1.3530	29.0700
 1.3540	28.9620
 1.3550	28.8550
 1.3560	28.7480
 1.3570	28.6410
 1.3580	28.5340
 1.3590	28.4240
 1.3600	28.3120
 1.3610	28.1970
 1.3620	28.0770
 1.3630	27.9550
 1.3640	27.8290
 1.3650	27.6980
 1.3660	27.5640
 1.3670	27.4230
 1.3680	27.2730
 1.3690	27.1140
 1.3700	26.9450
 1.3710	26.7670
 1.3720	26.5790
 1.3730	26.3780
 1.3740	26.1670
 1.3750	25.9400
 1.3760	25.6980
 1.3770	25.4390
 1.3780	25.1600
 1.3790	24.8640
 1.3800	24.5500
 1.3810	24.2150
 1.3820	23.8670
 1.3830	23.5020
 1.3840	23.1220
 1.3850	22.7260
 1.3860	22.3200
 1.3870	21.8960
 1.3880	21.4680
 1.3890	21.0300
 1.3900	20.5850
 1.3910	20.1380
 1.3920	19.6870
 1.3930	19.2330
 1.3940	18.7820
 1.3950	18.3300
 1.3960	17.8850
 1.3970	17.4470
 1.3980	17.0170
 1.3990	16.6020
 1.4000	16.1990
 1.4010	15.8050
 1.4020	15.4280
 1.4030	15.0620
 1.4040	14.7120
 1.4050	14.3800
 1.4060	14.0640
 1.4070	13.7680
 1.4080	13.4890
 1.4090	13.2250
 1.4100	12.9790
 1.4110	12.7480
 1.4120	12.5320
 1.4130	12.3330
 1.4140	12.1490
 1.4150	11.9790
 1.4160	11.8240
 1.4170	11.6800
 1.4180	11.5500
 1.4190	11.4300
 1.4200	11.3180
 1.4210	11.2170
 1.4220	11.1250
 1.4230	11.0420
 1.4240	10.9680
 1.4250	10.9000
 1.4260	10.8400
 1.4270	10.7850
 1.4280	10.7370
 1.4290	10.6930
 1.4300	10.6560
 1.4310	10.6230
 1.4320	10.5960
 1.4330	10.5720
 1.4340	10.5520
 1.4350	10.5360
 1.4360	10.5240
 1.4370	10.5140
 1.4380	10.5100
 1.4390	10.5080
 1.4400	10.5070
 1.4410	10.5070
 1.4420	10.5110
 1.4430	10.5150
 1.4440	10.5210
 1.4450	10.5290
 1.4460	10.5380
 1.4470	10.5490
 1.4480	10.5610
 1.4490	10.5750
 1.4500	10.5880
 1.4510	10.6040
 1.4520	10.6200
 1.4530	10.6380
 1.4540	10.6550
 1.4550	10.6740
 1.4560	10.6950
 1.4570	10.7170
 1.4580	10.7410
 1.4590	10.7680
 1.4600	10.7970
 1.4610	10.8280
 1.4620	10.8630
 1.4630	10.9010
 1.4640	10.9430
 1.4650	10.9880
 1.4660	11.0370
 1.4670	11.0870
 1.4680	11.1420
 1.4690	11.2020
 1.4700	11.2650
 1.4710	11.3310
 1.4720	11.4000
 1.4730	11.4700
 1.4740	11.5440
 1.4750	11.6210
 1.4760	11.7000
 1.4770	11.7810
 1.4780	11.8640
 1.4790	11.9490
 1.4800	12.0350
 1.4810	12.1200
 1.4820	12.2090
 1.4830	12.2980
 1.4840	12.3880
 1.4850	12.4780
 1.4860	12.5670
 1.4870	12.6580
 1.4880	12.7490
 1.4890	12.8420
 1.4900	12.9350
 1.4910	13.0290
 1.4920	13.1230
 1.4930	13.2170
 1.4940	13.3110
 1.4950	13.4070
 1.4960	13.5010
 1.4970	13.5970
 1.4980	13.6920
 1.4990	13.7870
 1.5000	13.8820
 1.5010	13.9780
 1.5020	14.0730
 1.5030	14.1680
 1.5040	14.2630
 1.5050	14.3570
 1.5060	14.4530
 1.5070	14.5480
 1.5080	14.6420
 1.5090	14.7360
 1.5100	14.8300
 1.5110	14.9230
 1.5120	15.0150
 1.5130	15.1060
 1.5140	15.1970
 1.5150	15.2870
 1.5160	15.3750
 1.5170	15.4650
 1.5180	15.5540
 1.5190	15.6410
 1.5200	15.7290
 1.5210	15.8140
 1.5220	15.8990
 1.5230	15.9840
 1.5240	16.0690
 1.5250	16.1550
 1.5260	16.2390
 1.5270	16.3210
 1.5280	16.4030
 1.5290	16.4820
 1.5300	16.5610
 1.5310	16.6410
 1.5320	16.7190
 1.5330	16.7980
 1.5340	16.8760
 1.5350	16.9530
 1.5360	17.0290
 1.5370	17.1030
 1.5380	17.1770
 1.5390	17.2510
 1.5400	17.3230
 1.5410	17.3970
 1.5420	17.4690
 1.5430	17.5400
 1.5440	17.6120
 1.5450	17.6820
 1.5460	17.7530
 1.5470	17.8220
 1.5480	17.8910
 1.5490	17.9600
 1.5500	18.0280
 1.5510	18.0940
 1.5520	18.1600
 1.5530	18.2240
 1.5540	18.2890
 1.5550	18.3530
 1.5560	18.4180
 1.5570	18.4810
 1.5580	18.5440
 1.5590	18.6050
 1.5600	18.6650
 1.5610	18.7240
 1.5620	18.7830
 1.5630	18.8410
 1.5640	18.9000
 1.5650	18.9590
 1.5660	19.0170
 1.5670	19.0740
 1.5680	19.1320
 1.5690	19.1880
 1.5700	19.2450
 1.5710	19.3000
 1.5720	19.3530
 1.5730	19.4070
 1.5740	19.4610
 1.5750	19.5150
 1.5760	19.5710
 1.5770	19.6250
 1.5780	19.6770
 1.5790	19.7300
 1.5800	19.7820
 1.5810	19.8330
 1.5820	19.8850
 1.5830	19.9360
 1.5840	19.9890
 1.5850	20.0410
 1.5860	20.0940
 1.5870	20.1480
 1.5880	20.2020
 1.5890	20.2550
 1.5900	20.3090
 1.5910	20.3630
 1.5920	20.4150
 1.5930	20.4680
 1.5940	20.5200
 1.5950	20.5710
 1.5960	20.6230
 1.5970	20.6750
 1.5980	20.7260
 1.5990	20.7770
 1.6000	20.8270
 1.6010	20.8760
 1.6020	20.9240
 1.6030	20.9730
 1.6040	21.0210
 1.6050	21.0700
 1.6060	21.1180
 1.6070	21.1630
 1.6080	21.2110
 1.6090	21.2560
 1.6100	21.3010
 1.6110	21.3450
 1.6120	21.3860
 1.6130	21.4290
 1.6140	21.4720
 1.6150	21.5120
 1.6160	21.5550
 1.6170	21.5940
 1.6180	21.6320
 1.6190	21.6710
 1.6200	21.7070
 1.6210	21.7430
 1.6220	21.7790
 1.6230	21.8130
 1.6240	21.8470
 1.6250	21.8800
 1.6260	21.9110
 1.6270	21.9430
 1.6280	21.9730
 1.6290	22.0030
 1.6300	22.0320
 1.6310	22.0590
 1.6320	22.0840
 1.6330	22.1080
 1.6340	22.1320
 1.6350	22.1530
 1.6360	22.1740
 1.6370	22.1920
 1.6380	22.2070
 1.6390	22.2200
 1.6400	22.2330
 1.6410	22.2440
 1.6420	22.2540
 1.6430	22.2600
 1.6440	22.2630
 1.6450	22.2630
 1.6460	22.2630
 1.6470	22.2600
 1.6480	22.2560
 1.6490	22.2490
 1.6500	22.2420
 1.6510	22.2330
 1.6520	22.2220
 1.6530	22.2110
 1.6540	22.1980
 1.6550	22.1850
 1.6560	22.1720
 1.6570	22.1600
 1.6580	22.1470
 1.6590	22.1340
 1.6600	22.1220
 1.6610	22.1100
 1.6620	22.0990
 1.6630	22.0910
 1.6640	22.0820
 1.6650	22.0750
 1.6660	22.0710
 1.6670	22.0630
 1.6680	22.0560
 1.6690	22.0470
 1.6700	22.0340
 1.6710	22.0220
 1.6720	22.0100
 1.6730	21.9970
 1.6740	21.9800
 1.6750	21.9620
 1.6760	21.9440
 1.6770	21.9230
 1.6780	21.8990
 1.6790	21.8750
 1.6800	21.8450
 1.6810	21.8120
 1.6820	21.7780
 1.6830	21.7420
 1.6840	21.7040
 1.6850	21.6640
 1.6860	21.6230
 1.6870	21.5790
 1.6880	21.5330
 1.6890	21.4870
 1.6900	21.4390
 1.6910	21.3900
 1.6920	21.3420
 1.6930	21.2940
 1.6940	21.2450
 1.6950	21.1950
 1.6960	21.1440
 1.6970	21.0930
 1.6980	21.0410
 1.6990	20.9880
 1.7000	20.9370
 1.7010	20.8870
 1.7020	20.8350
 1.7030	20.7840
 1.7040	20.7290
 1.7050	20.6690
 1.7060	20.6110
 1.7070	20.5520
 1.7080	20.4930
 1.7090	20.4340
 1.7100	20.3740
 1.7110	20.3140
 1.7120	20.2530
 1.7130	20.1930
 1.7140	20.1340
 1.7150	20.0740
 1.7160	20.0170
 1.7170	19.9610
 1.7180	19.9050
 1.7190	19.8510
 1.7200	19.8000
 1.7210	19.7500
 1.7220	19.7020
 1.7230	19.6550
 1.7240	19.6060
 1.7250	19.5610
 1.7260	19.5220
 1.7270	19.4870
 1.7280	19.4560
 1.7290	19.4290
 1.7300	19.4060
 1.7310	19.3900
 1.7320	19.3860
 1.7330	19.3800
 1.7340	19.3800
 1.7350	19.3800
 1.7360	19.3820
 1.7370	19.3800
 1.7380	19.3820
 1.7390	19.3770
 1.7400	19.3680
 1.7410	19.3540
 1.7420	19.3370
 1.7430	19.3150
 1.7440	19.2890
 1.7450	19.2580
 1.7460	19.2230
 1.7470	19.1860
 1.7480	19.1460
 1.7490	19.1060
 1.7500	19.0630
 1.7510	19.0190
 1.7520	18.9720
 1.7530	18.9250
 1.7540	18.8750
 1.7550	18.8280
 1.7560	18.7790
 1.7570	18.7320
 1.7580	18.6860
 1.7590	18.6400
 1.7600	18.5960
 1.7610	18.5540
 1.7620	18.5170
 1.7630	18.4840
 1.7640	18.4520
 1.7650	18.4230
 1.7660	18.3970
 1.7670	18.3730
 1.7680	18.3510
 1.7690	18.3320
 1.7700	18.3140
 1.7710	18.2970
 1.7720	18.2810
 1.7730	18.2670
 1.7740	18.2510
 1.7750	18.2360
 1.7760	18.2190
 1.7770	18.2010
 1.7780	18.1840
 1.7790	18.1660
 1.7800	18.1520
 1.7810	18.1410
 1.7820	18.1280
 1.7830	18.1170
 1.7840	18.1050
 1.7850	18.0910
 1.7860	18.0820
 1.7870	18.0740
 1.7880	18.0660
 1.7890	18.0600
 1.7900	18.0540
 1.7910	18.0490
 1.7920	18.0460
 1.7930	18.0430
 1.7940	18.0410
 1.7950	18.0410
 1.7960	18.0430
 1.7970	18.0450
 1.7980	18.0480
 1.7990	18.0500
 1.8000	18.0510
 1.8010	18.0540
 1.8020	18.0570
 1.8030	18.0620
 1.8040	18.0700
 1.8050	18.0760
 1.8060	18.0820
 1.8070	18.0880
 1.8080	18.0920
 1.8090	18.0970
 1.8100	18.1020
 1.8110	18.1070
 1.8120	18.1120
 1.8130	18.1160
 1.8140	18.1210
 1.8150	18.1240
 1.8160	18.1270
 1.8170	18.1290
 1.8180	18.1310
 1.8190	18.1320
 1.8200	18.1340
 1.8210	18.1380
 1.8220	18.1410
 1.8230	18.1440
 1.8240	18.1440
 1.8250	18.1420
 1.8260	18.1400
 1.8270	18.1360
 1.8280	18.1330
 1.8290	18.1320
 1.8300	18.0020
 1.8310	17.7530
 1.8320	17.6190
 1.8330	17.6050
 1.8340	17.5870
 1.8350	17.5670
 1.8360	17.5450
 1.8370	17.5190
 1.8380	17.4900
 1.8390	17.4580
 1.8400	17.4220
 1.8410	17.3810
 1.8420	17.3360
 1.8430	17.2880
 1.8440	17.2310
 1.8450	17.1700
 1.8460	17.1040
 1.8470	17.0320
 1.8480	16.9530
 1.8490	16.8690
 1.8500	16.7750
 1.8510	16.6730
 1.8520	16.5630
 1.8530	16.4440
 1.8540	16.3170
 1.8550	16.1810
 1.8560	16.0350
 1.8570	15.8820
 1.8580	15.7170
 1.8590	15.5430
 1.8600	15.3590
 1.8610	15.1640
 1.8620	14.9570
 1.8630	14.7400
 1.8640	14.5090
 1.8650	14.2630
 1.8660	14.0060
 1.8670	13.7320
 1.8680	13.4470
 1.8690	13.1530
 1.8700	12.8450
 1.8710	12.5250
 1.8720	12.2000
 1.8730	11.8670
 1.8740	11.5230
 1.8750	11.1740
 1.8760	10.8200
 1.8770	10.4670
 1.8780	10.1100
 1.8790	 9.7530
 1.8800	 9.4040
 1.8810	 9.0600
 1.8820	 8.7140
 1.8830	 8.3750
 1.8840	 8.0470
 1.8850	 7.7190
 1.8860	 7.3990
 1.8870	 7.0930
 1.8880	 6.7950
 1.8890	 6.5080
 1.8900	 6.2370
 1.8910	 5.9820
 1.8920	 5.7390
 1.8930	 5.5150
 1.8940	 5.3090
 1.8950	 5.1170
 1.8960	 4.9380
 1.8970	 4.7750
 1.8980	 4.6240
 1.8990	 4.4880
 1.9000	 4.3640
 1.9010	 4.2510
 1.9020	 4.1480
 1.9030	 4.0580
 1.9040	 3.9780
 1.9050	 3.9060
 1.9060	 3.8400
 1.9070	 3.7850
 1.9080	 3.7360
 1.9090	 3.6940
 1.9100	 3.6570
 1.9110	 3.6230
 1.9120	 3.5900
 1.9130	 3.5630
 1.9140	 3.5410
 1.9150	 3.5190
 1.9160	 3.5040
 1.9170	 3.4910
 1.9180	 3.4810
 1.9190	 3.4710
 1.9200	 3.4580
 1.9210	 3.4520
 1.9220	 3.4440
 1.9230	 3.4410
 1.9240	 3.4390
 1.9250	 3.4390
 1.9260	 3.4410
 1.9270	 3.4430
 1.9280	 3.4480
 1.9290	 3.4500
 1.9300	 3.4540
 1.9310	 3.4600
 1.9320	 3.4690
 1.9330	 3.4770
 1.9340	 3.4860
 1.9350	 3.4960
 1.9360	 3.5030
 1.9370	 3.5140
 1.9380	 3.5250
 1.9390	 3.5380
 1.9400	 3.5510
 1.9410	 3.5690
 1.9420	 3.5870
 1.9430	 3.6040
 1.9440	 3.6200
 1.9450	 3.6390
 1.9460	 3.6560
 1.9470	 3.6720
 1.9480	 3.6900
 1.9490	 3.7080
 1.9500	 3.7270
 1.9510	 3.7480
 1.9520	 3.7680
 1.9530	 3.7930
 1.9540	 3.8160
 1.9550	 3.8390
 1.9560	 3.8670
 1.9570	 3.8930
 1.9580	 3.9180
 1.9590	 3.9430
 1.9600	 3.9700
 1.9610	 3.9950
 1.9620	 4.0200
 1.9630	 4.0460
 1.9640	 4.0730
 1.9650	 4.1000
 1.9660	 4.1310
 1.9670	 4.1630
 1.9680	 4.1960
 1.9690	 4.2290
 1.9700	 4.2620
 1.9710	 4.2930
 1.9720	 4.3250
 1.9730	 4.3570
 1.9740	 4.3900
 1.9750	 4.4230
 1.9760	 4.4610
 1.9770	 4.4960
 1.9780	 4.5330
 1.9790	 4.5700
 1.9800	 4.6070
 1.9810	 4.6430
 1.9820	 4.6800
 1.9830	 4.7180
 1.9840	 4.7590
 1.9850	 4.7980
 1.9860	 4.8400
 1.9870	 4.8840
 1.9880	 4.9260
 1.9890	 4.9630
 1.9900	 5.0030
 1.9910	 5.0450
 1.9920	 5.0870
 1.9930	 5.1300
 1.9940	 5.1710
 1.9950	 5.2090
 1.9960	 5.2480
 1.9970	 5.2900
 1.9980	 5.3310
 1.9990	 5.3760
 2.0000	 5.4180
 2.0010	 5.4580
 2.0020	 5.4980
 2.0030	 5.5390
 2.0040	 5.5790
 2.0050	 5.6190
 2.0060	 5.6650
 2.0070	 5.7060
 2.0080	 5.7480
 2.0090	 5.7880
 2.0100	 5.8280
 2.0110	 5.8690
 2.0120	 5.9100
 2.0130	 5.9520
 2.0140	 5.9930
 2.0150	 6.0320
 2.0160	 6.0720
 2.0170	 6.1090
 2.0180	 6.1450
 2.0190	 6.1790
 2.0200	 6.2140
 2.0210	 6.2510
 2.0220	 6.2840
 2.0230	 6.3200
 2.0240	 6.3520
 2.0250	 6.3860
 2.0260	 6.4190
 2.0270	 6.4520
 2.0280	 6.4820
 2.0290	 6.5100
 2.0300	 6.5370
 2.0310	 6.5630
 2.0320	 6.5930
 2.0330	 6.6170
 2.0340	 6.6430
 2.0350	 6.6670
 2.0360	 6.6910
 2.0370	 6.7130
 2.0380	 6.7350
 2.0390	 6.7560
 2.0400	 6.7740
 2.0410	 6.7930
 2.0420	 6.8150
 2.0430	 6.8310
 2.0440	 6.8480
 2.0450	 6.8680
 2.0460	 6.8840
 2.0470	 6.8980
 2.0480	 6.9140
 2.0490	 6.9300
 2.0500	 6.9470
 2.0510	 6.9650
 2.0520	 6.9830
 2.0530	 7.0010
 2.0540	 7.0180
 2.0550	 7.0360
 2.0560	 7.0530
 2.0570	 7.0730
 2.0580	 7.0900
 2.0590	 7.1070
 2.0600	 7.1240
 2.0610	 7.1430
 2.0620	 7.1580
 2.0630	 7.1760
 2.0640	 7.1920
 2.0650	 7.2080
 2.0660	 7.2240
 2.0670	 7.2450
 2.0680	 7.2690
 2.0690	 7.2880
 2.0700	 7.3040
 2.0710	 7.3230
 2.0720	 7.3390
 2.0730	 7.3550
 2.0740	 7.3730
 2.0750	 7.3950
 2.0760	 7.4140
 2.0770	 7.4310
 2.0780	 7.4500
 2.0790	 7.4680
 2.0800	 7.4870
 2.0810	 7.5040
 2.0820	 7.5210
 2.0830	 7.5390
 2.0840	 7.5560
 2.0850	 7.5750
 2.0860	 7.5930
 2.0870	 7.6100
 2.0880	 7.6260
 2.0890	 7.6440
 2.0900	 7.6630
 2.0910	 7.6820
 2.0920	 7.7040
 2.0930	 7.7230
 2.0940	 7.7400
 2.0950	 7.7580
 2.0960	 7.7750
 2.0970	 7.7900
 2.0980	 7.8060
 2.0990	 7.8230
 2.1000	 7.8380
 2.1010	 7.8560
 2.1020	 7.8740
 2.1030	 7.8940
 2.1040	 7.9160
 2.1050	 7.9360
 2.1060	 7.9540
 2.1070	 7.9720
 2.1080	 7.9900
 2.1090	 8.0070
 2.1100	 8.0230
 2.1110	 8.0410
 2.1120	 8.0580
 2.1130	 8.0730
 2.1140	 8.0890
 2.1150	 8.1050
 2.1160	 8.1220
 2.1170	 8.1410
 2.1180	 8.1600
 2.1190	 8.1770
 2.1200	 8.1940
 2.1210	 8.2130
 2.1220	 8.2300
 2.1230	 8.2440
 2.1240	 8.2600
 2.1250	 8.2760
 2.1260	 8.2910
 2.1270	 8.3050
 2.1280	 8.3240
 2.1290	 8.3370
 2.1300	 8.3490
 2.1310	 8.3650
 2.1320	 8.3820
 2.1330	 8.3980
 2.1340	 8.4160
 2.1350	 8.4320
 2.1360	 8.4470
 2.1370	 8.4640
 2.1380	 8.4810
 2.1390	 8.4980
 2.1400	 8.5130
 2.1410	 8.5300
 2.1420	 8.5460
 2.1430	 8.5640
 2.1440	 8.5850
 2.1450	 8.6060
 2.1460	 8.6250
 2.1470	 8.6420
 2.1480	 8.6630
 2.1490	 8.6810
 2.1500	 8.7000
 2.1510	 8.7180
 2.1520	 8.7400
 2.1530	 8.7570
 2.1540	 8.7770
 2.1550	 8.7920
 2.1560	 8.8070
 2.1570	 8.8230
 2.1580	 8.8400
 2.1590	 8.8520
 2.1600	 8.8710
 2.1610	 8.8840
 2.1620	 8.9000
 2.1630	 8.9170
 2.1640	 8.9340
 2.1650	 8.9490
 2.1660	 8.9640
 2.1670	 8.9790
 2.1680	 8.9910
 2.1690	 9.0040
 2.1700	 9.0190
 2.1710	 9.0320
 2.1720	 9.0480
 2.1730	 9.0640
 2.1740	 9.0790
 2.1750	 9.0970
 2.1760	 9.1120
 2.1770	 9.1280
 2.1780	 9.1480
 2.1790	 9.1670
 2.1800	 9.1840
 2.1810	 9.2000
 2.1820	 9.2150
 2.1830	 9.2290
 2.1840	 9.2460
 2.1850	 9.2640
 2.1860	 9.2840
 2.1870	 9.3080
 2.1880	 9.3270
 2.1890	 9.3490
 2.1900	 9.3670
 2.1910	 9.3840
 2.1920	 9.4000
 2.1930	 9.4110
 2.1940	 9.4260
 2.1950	 9.4440
 2.1960	 9.4580
 2.1970	 9.4740
 2.1980	 9.4880
 2.1990	 9.4990
 2.2000	 9.5100
 2.2010	 9.5240
 2.2020	 9.5370
 2.2030	 9.5490
 2.2040	 9.5620
 2.2050	 9.5720
 2.2060	 9.5850
 2.2070	 9.5970
 2.2080	 9.6100
 2.2090	 9.6220
 2.2100	 9.6370
 2.2110	 9.6480
 2.2120	 9.6560
 2.2130	 9.6610
 2.2140	 9.6620
 2.2150	 9.6650
 2.2160	 9.6630
 2.2170	 9.6650
 2.2180	 9.6690
 2.2190	 9.6690
 2.2200	 9.6690
 2.2210	 9.6630
 2.2220	 9.6510
 2.2230	 9.6410
 2.2240	 9.6270
 2.2250	 9.6130
 2.2260	 9.5970
 2.2270	 9.5790
 2.2280	 9.5550
 2.2290	 9.5310
 2.2300	 9.5040
 2.2310	 9.4770
 2.2320	 9.4450
 2.2330	 9.4110
 2.2340	 9.3730
 2.2350	 9.3320
 2.2360	 9.2920
 2.2370	 9.2530
 2.2380	 9.2110
 2.2390	 9.1690
 2.2400	 9.1240
 2.2410	 9.0770
 2.2420	 9.0300
 2.2430	 8.9760
 2.2440	 8.9260
 2.2450	 8.8740
 2.2460	 8.8240
 2.2470	 8.7750
 2.2480	 8.7250
 2.2490	 8.6740
 2.2500	 8.6220
 2.2510	 8.5690
 2.2520	 8.5200
 2.2530	 8.4670
 2.2540	 8.4170
 2.2550	 8.3690
 2.2560	 8.3220
 2.2570	 8.2760
 2.2580	 8.2320
 2.2590	 8.1830
 2.2600	 8.1390
 2.2610	 8.0930
 2.2620	 8.0510
 2.2630	 8.0110
 2.2640	 7.9670
 2.2650	 7.9270
 2.2660	 7.8820
 2.2670	 7.8410
 2.2680	 7.8050
 2.2690	 7.7700
 2.2700	 7.7400
 2.2710	 7.7050
 2.2720	 7.6690
 2.2730	 7.6380
 2.2740	 7.6050
 2.2750	 7.5750
 2.2760	 7.5510
 2.2770	 7.5230
 2.2780	 7.4980
 2.2790	 7.4740
 2.2800	 7.4520
 2.2810	 7.4260
 2.2820	 7.3960
 2.2830	 7.3710
 2.2840	 7.3510
 2.2850	 7.3250
 2.2860	 7.2990
 2.2870	 7.2720
 2.2880	 7.2390
 2.2890	 7.2060
 2.2900	 7.1740
 2.2910	 7.1420
 2.2920	 7.1130
 2.2930	 7.0810
 2.2940	 7.0450
 2.2950	 7.0080
 2.2960	 6.9640
 2.2970	 6.9250
 2.2980	 6.8840
 2.2990	 6.8410
 2.3000	 6.8070
 2.3010	 6.7690
 2.3020	 6.7280
 2.3030	 6.6960
 2.3040	 6.6630
 2.3050	 6.6230
 2.3060	 6.5930
 2.3070	 6.5580
 2.3080	 6.5190
 2.3090	 6.4850
 2.3100	 6.4570
 2.3110	 6.4340
 2.3120	 6.4190
 2.3130	 6.4110
 2.3140	 6.4050
 2.3150	 6.4080
 2.3160	 6.4100
 2.3170	 6.4220
 2.3180	 6.4290
 2.3190	 6.4350
 2.3200	 6.4410
 2.3210	 6.4430
 2.3220	 6.4510
 2.3230	 6.4680
 2.3240	 6.4710
 2.3250	 6.4740
 2.3260	 6.4660
 2.3270	 6.4360
 2.3280	 6.4190
 2.3290	 6.4000
 2.3300	 6.3820
 2.3310	 6.3700
 2.3320	 6.3510
 2.3330	 6.3260
 2.3340	 6.3060
 2.3350	 6.2900
 2.3360	 6.2670
 2.3370	 6.2460
 2.3380	 6.2240
 2.3390	 6.2030
 2.3400	 6.1760
 2.3410	 6.1480
 2.3420	 6.1230
 2.3430	 6.0950
 2.3440	 6.0700
 2.3450	 6.0490
 2.3460	 6.0280
 2.3470	 5.9990
 2.3480	 5.9780
 2.3490	 5.9540
 2.3500	 5.9380
 2.3510	 5.9310
 2.3520	 5.9230
 2.3530	 5.9160
 2.3540	 5.9120
 2.3550	 5.9030
 2.3560	 5.8970
 2.3570	 5.8920
 2.3580	 5.8810
 2.3590	 5.8730
 2.3600	 5.8680
 2.3610	 5.8570
 2.3620	 5.8510
 2.3630	 5.8410
 2.3640	 5.8240
 2.3650	 5.8070
 2.3660	 5.7940
 2.3670	 5.7880
 2.3680	 5.7790
 2.3690	 5.7700
 2.3700	 5.7560
 2.3710	 5.7370
 2.3720	 5.7150
 2.3730	 5.6880
 2.3740	 5.6650
 2.3750	 5.6470
 2.3760	 5.6340
 2.3770	 5.6200
 2.3780	 5.6010
 2.3790	 5.5770
 2.3800	 5.5500
 2.3810	 5.5270
 2.3820	 5.5090
 2.3830	 5.4930
 2.3840	 5.4720
 2.3850	 5.4520
 2.3860	 5.4370
 2.3870	 5.4130
 2.3880	 5.3970
 2.3890	 5.3860
 2.3900	 5.3620
 2.3910	 5.3420
 2.3920	 5.3170
 2.3930	 5.2770
 2.3940	 5.2540
 2.3950	 5.2380
 2.3960	 5.2160
 2.3970	 5.2090
 2.3980	 5.1940
 2.3990	 5.1670
 2.4000	 5.1470
 2.4010	 5.1230
 2.4020	 5.1020
 2.4030	 5.0850
 2.4040	 5.0640
 2.4050	 5.0370
 2.4060	 5.0090
 2.4070	 4.9950
 2.4080	 4.9850
 2.4090	 4.9690
 2.4100	 4.9490
 2.4110	 4.9250
 2.4120	 4.8940
 2.4130	 4.8700
 2.4140	 4.8540
 2.4150	 4.8290
 2.4160	 4.8090
 2.4170	 4.7960
 2.4180	 4.7820
 2.4190	 4.7660
 2.4200	 4.7340
 2.4210	 4.7050
 2.4220	 4.6710
 2.4230	 4.6310
 2.4240	 4.6070
 2.4250	 4.5750
 2.4260	 4.5510
 2.4270	 4.5310
 2.4280	 4.5090
 2.4290	 4.4960
 2.4300	 4.4770
 2.4310	 4.4710
 2.4320	 4.4660
 2.4330	 4.4470
 2.4340	 4.4290
 2.4350	 4.4060
 2.4360	 4.3730
 2.4370	 4.3440
 2.4380	 4.3120
 2.4390	 4.2810
 2.4400	 4.2570
 2.4410	 4.2320
 2.4420	 4.2120
 2.4430	 4.1870
 2.4440	 4.1700
 2.4450	 4.1530
 2.4460	 4.1350
 2.4470	 4.1330
 2.4480	 4.1150
 2.4490	 4.0940
 2.4500	 4.0780
 2.4510	 4.0550
 2.4520	 4.0200
 2.4530	 4.0140
 2.4540	 4.0000
 2.4550	 3.9800
 2.4560	 3.9810
 2.4570	 3.9570
 2.4580	 3.9410
 2.4590	 3.9280
 2.4600	 3.8890
 2.4610	 3.8590
 2.4620	 3.8250
 2.4630	 3.7890
 2.4640	 3.7870
 2.4650	 3.7880
 2.4660	 3.7800
 2.4670	 3.7850
 2.4680	 3.7550
 2.4690	 3.7610
 2.4700	 3.7490
 2.4710	 3.7380
 2.4720	 3.7200
 2.4730	 3.6740
 2.4740	 3.6470
 2.4750	 3.6370
 2.4760	 3.6250
 2.4770	 3.6150
 2.4780	 3.6120
 2.4790	 3.6090
 2.4800	 3.6100
 2.4810	 3.6360
 2.4820	 3.6310
 2.4830	 3.6370
 2.4840	 3.6560
 2.4850	 3.6570
 2.4860	 3.6670
 2.4870	 3.6700
 2.4880	 3.6750
 2.4890	 3.6630
 2.4900	 3.6410
 2.4910	 3.6290
 2.4920	 3.5820
 2.4930	 3.5550
 2.4940	 3.5700
 2.4950	 3.5550
 2.4960	 3.5230
 2.4970	 3.5080
 2.4980	 3.4520
 2.4990	 3.3830
 2.5000	 3.3640
