Name: Quercus douglasii 1
Type: vegetation
Class: Tree
Genus: Quercus
Species: douglasii
Sample No.: VH074
Owner: UCSB
Wavelength Range: VSWIR
Origin: 34.7153; -120.0598; WGS84
Collection Date: 4/21/2013
Description: Samples were collected as part of the HyspIRI Airborne Campaign. 48 individual plants were sampled in three times in 2013 - spring  summer  and fall. The name of the sample includes a 1  2  or 3 which references a different individual of the species. Samples were taken to JPL and processed within 48 hours of collection. The same leaves were processed in the Nicolet and then measured using the ASD.
Measurement: Bidirectional reflectance
First Column: X
Second Column: Y
X Units: Wavelength (micrometers)
Y Units: Reflectance (percentage)
First X Value: 0.35
Last X Value: 2.5
Number of X Values: 2151
Additional Information: vegetation.tree.quercus.douglasii.vswir.vh074.ucsb.asd.ancillary.txt

 0.3500	 4.4480
 0.3510	 4.9400
 0.3520	 4.9480
 0.3530	 4.7370
 0.3540	 4.7000
 0.3550	 4.5680
 0.3560	 4.5910
 0.3570	 4.6890
 0.3580	 4.6440
 0.3590	 4.6340
 0.3600	 4.6640
 0.3610	 4.7010
 0.3620	 4.6940
 0.3630	 4.5970
 0.3640	 4.5360
 0.3650	 4.5910
 0.3660	 4.5020
 0.3670	 4.4980
 0.3680	 4.5760
 0.3690	 4.5720
 0.3700	 4.5520
 0.3710	 4.5130
 0.3720	 4.4760
 0.3730	 4.5320
 0.3740	 4.5830
 0.3750	 4.6310
 0.3760	 4.6910
 0.3770	 4.6920
 0.3780	 4.6370
 0.3790	 4.5590
 0.3800	 4.5160
 0.3810	 4.5470
 0.3820	 4.5950
 0.3830	 4.6150
 0.3840	 4.6430
 0.3850	 4.6420
 0.3860	 4.6320
 0.3870	 4.6510
 0.3880	 4.6970
 0.3890	 4.7170
 0.3900	 4.7040
 0.3910	 4.7030
 0.3920	 4.7210
 0.3930	 4.7410
 0.3940	 4.7440
 0.3950	 4.7160
 0.3960	 4.7460
 0.3970	 4.8040
 0.3980	 4.8210
 0.3990	 4.8660
 0.4000	 4.9170
 0.4010	 4.9590
 0.4020	 4.9960
 0.4030	 5.0310
 0.4040	 5.0620
 0.4050	 5.0920
 0.4060	 5.1540
 0.4070	 5.2090
 0.4080	 5.2410
 0.4090	 5.2580
 0.4100	 5.3000
 0.4110	 5.3650
 0.4120	 5.4340
 0.4130	 5.4680
 0.4140	 5.5160
 0.4150	 5.5750
 0.4160	 5.6330
 0.4170	 5.7110
 0.4180	 5.7720
 0.4190	 5.8200
 0.4200	 5.8910
 0.4210	 5.9370
 0.4220	 5.9970
 0.4230	 6.0870
 0.4240	 6.1400
 0.4250	 6.1780
 0.4260	 6.2260
 0.4270	 6.2960
 0.4280	 6.3620
 0.4290	 6.4130
 0.4300	 6.4520
 0.4310	 6.4860
 0.4320	 6.5370
 0.4330	 6.5990
 0.4340	 6.6560
 0.4350	 6.6940
 0.4360	 6.7130
 0.4370	 6.7300
 0.4380	 6.7680
 0.4390	 6.7920
 0.4400	 6.8130
 0.4410	 6.8400
 0.4420	 6.8590
 0.4430	 6.8790
 0.4440	 6.9010
 0.4450	 6.9250
 0.4460	 6.9500
 0.4470	 6.9680
 0.4480	 6.9810
 0.4490	 6.9950
 0.4500	 7.0070
 0.4510	 7.0200
 0.4520	 7.0390
 0.4530	 7.0460
 0.4540	 7.0480
 0.4550	 7.0530
 0.4560	 7.0690
 0.4570	 7.0850
 0.4580	 7.0880
 0.4590	 7.0830
 0.4600	 7.0960
 0.4610	 7.1090
 0.4620	 7.1170
 0.4630	 7.1230
 0.4640	 7.1200
 0.4650	 7.1160
 0.4660	 7.1150
 0.4670	 7.1190
 0.4680	 7.1140
 0.4690	 7.1120
 0.4700	 7.1210
 0.4710	 7.1180
 0.4720	 7.1220
 0.4730	 7.1310
 0.4740	 7.1300
 0.4750	 7.1280
 0.4760	 7.1270
 0.4770	 7.1260
 0.4780	 7.1160
 0.4790	 7.1140
 0.4800	 7.1180
 0.4810	 7.1190
 0.4820	 7.1120
 0.4830	 7.1150
 0.4840	 7.1280
 0.4850	 7.1370
 0.4860	 7.1380
 0.4870	 7.1420
 0.4880	 7.1520
 0.4890	 7.1520
 0.4900	 7.1550
 0.4910	 7.1650
 0.4920	 7.1810
 0.4930	 7.1900
 0.4940	 7.1940
 0.4950	 7.2010
 0.4960	 7.2180
 0.4970	 7.2380
 0.4980	 7.2570
 0.4990	 7.2740
 0.5000	 7.2990
 0.5010	 7.3270
 0.5020	 7.3570
 0.5030	 7.3880
 0.5040	 7.4300
 0.5050	 7.4800
 0.5060	 7.5340
 0.5070	 7.5910
 0.5080	 7.6580
 0.5090	 7.7360
 0.5100	 7.8230
 0.5110	 7.9170
 0.5120	 8.0180
 0.5130	 8.1310
 0.5140	 8.2670
 0.5150	 8.4070
 0.5160	 8.5560
 0.5170	 8.7230
 0.5180	 8.8960
 0.5190	 9.0840
 0.5200	 9.2830
 0.5210	 9.4860
 0.5220	 9.6920
 0.5230	 9.9000
 0.5240	10.1070
 0.5250	10.3150
 0.5260	10.5170
 0.5270	10.7090
 0.5280	10.8850
 0.5290	11.0590
 0.5300	11.2190
 0.5310	11.3630
 0.5320	11.5020
 0.5330	11.6290
 0.5340	11.7430
 0.5350	11.8460
 0.5360	11.9470
 0.5370	12.0350
 0.5380	12.1130
 0.5390	12.1920
 0.5400	12.2660
 0.5410	12.3390
 0.5420	12.4130
 0.5430	12.4810
 0.5440	12.5460
 0.5450	12.6060
 0.5460	12.6520
 0.5470	12.6840
 0.5480	12.7140
 0.5490	12.7450
 0.5500	12.7740
 0.5510	12.7940
 0.5520	12.8060
 0.5530	12.8080
 0.5540	12.7890
 0.5550	12.7550
 0.5560	12.7070
 0.5570	12.6460
 0.5580	12.5720
 0.5590	12.4810
 0.5600	12.3750
 0.5610	12.2700
 0.5620	12.1630
 0.5630	12.0490
 0.5640	11.9230
 0.5650	11.7860
 0.5660	11.6510
 0.5670	11.5200
 0.5680	11.3840
 0.5690	11.2410
 0.5700	11.0940
 0.5710	10.9490
 0.5720	10.8100
 0.5730	10.6790
 0.5740	10.5590
 0.5750	10.4540
 0.5760	10.3450
 0.5770	10.2390
 0.5780	10.1420
 0.5790	10.0520
 0.5800	 9.9630
 0.5810	 9.8790
 0.5820	 9.8030
 0.5830	 9.7270
 0.5840	 9.6550
 0.5850	 9.5900
 0.5860	 9.5300
 0.5870	 9.4750
 0.5880	 9.4230
 0.5890	 9.3720
 0.5900	 9.3320
 0.5910	 9.2980
 0.5920	 9.2680
 0.5930	 9.2420
 0.5940	 9.2180
 0.5950	 9.1980
 0.5960	 9.1810
 0.5970	 9.1650
 0.5980	 9.1440
 0.5990	 9.1160
 0.6000	 9.0820
 0.6010	 9.0460
 0.6020	 9.0100
 0.6030	 8.9710
 0.6040	 8.9240
 0.6050	 8.8750
 0.6060	 8.8250
 0.6070	 8.7720
 0.6080	 8.7090
 0.6090	 8.6510
 0.6100	 8.5990
 0.6110	 8.5430
 0.6120	 8.4780
 0.6130	 8.4050
 0.6140	 8.3320
 0.6150	 8.2670
 0.6160	 8.2090
 0.6170	 8.1540
 0.6180	 8.1000
 0.6190	 8.0600
 0.6200	 8.0220
 0.6210	 7.9850
 0.6220	 7.9500
 0.6230	 7.9240
 0.6240	 7.9000
 0.6250	 7.8760
 0.6260	 7.8600
 0.6270	 7.8470
 0.6280	 7.8350
 0.6290	 7.8220
 0.6300	 7.8160
 0.6310	 7.8110
 0.6320	 7.8020
 0.6330	 7.7890
 0.6340	 7.7750
 0.6350	 7.7560
 0.6360	 7.7320
 0.6370	 7.7010
 0.6380	 7.6680
 0.6390	 7.6310
 0.6400	 7.5890
 0.6410	 7.5470
 0.6420	 7.5010
 0.6430	 7.4520
 0.6440	 7.4090
 0.6450	 7.3640
 0.6460	 7.3140
 0.6470	 7.2640
 0.6480	 7.2270
 0.6490	 7.1930
 0.6500	 7.1600
 0.6510	 7.1260
 0.6520	 7.0990
 0.6530	 7.0720
 0.6540	 7.0420
 0.6550	 7.0160
 0.6560	 6.9860
 0.6570	 6.9510
 0.6580	 6.9150
 0.6590	 6.8820
 0.6600	 6.8480
 0.6610	 6.8130
 0.6620	 6.7830
 0.6630	 6.7510
 0.6640	 6.7230
 0.6650	 6.7030
 0.6660	 6.6880
 0.6670	 6.6740
 0.6680	 6.6590
 0.6690	 6.6490
 0.6700	 6.6460
 0.6710	 6.6450
 0.6720	 6.6450
 0.6730	 6.6490
 0.6740	 6.6540
 0.6750	 6.6590
 0.6760	 6.6650
 0.6770	 6.6750
 0.6780	 6.6880
 0.6790	 6.7040
 0.6800	 6.7230
 0.6810	 6.7430
 0.6820	 6.7670
 0.6830	 6.7940
 0.6840	 6.8270
 0.6850	 6.8660
 0.6860	 6.9130
 0.6870	 6.9720
 0.6880	 7.0470
 0.6890	 7.1460
 0.6900	 7.2740
 0.6910	 7.4390
 0.6920	 7.6540
 0.6930	 7.9250
 0.6940	 8.2580
 0.6950	 8.6570
 0.6960	 9.1200
 0.6970	 9.6500
 0.6980	10.2480
 0.6990	10.9060
 0.7000	11.6210
 0.7010	12.3840
 0.7020	13.1840
 0.7030	14.0110
 0.7040	14.8610
 0.7050	15.7320
 0.7060	16.6130
 0.7070	17.4970
 0.7080	18.3870
 0.7090	19.2860
 0.7100	20.1850
 0.7110	21.0840
 0.7120	21.9820
 0.7130	22.8780
 0.7140	23.7730
 0.7150	24.6640
 0.7160	25.5480
 0.7170	26.4280
 0.7180	27.2990
 0.7190	28.1590
 0.7200	29.0070
 0.7210	29.8430
 0.7220	30.6630
 0.7230	31.4650
 0.7240	32.2480
 0.7250	33.0070
 0.7260	33.7380
 0.7270	34.4420
 0.7280	35.1210
 0.7290	35.7730
 0.7300	36.3990
 0.7310	36.9980
 0.7320	37.5630
 0.7330	38.1010
 0.7340	38.6140
 0.7350	39.1010
 0.7360	39.5580
 0.7370	39.9860
 0.7380	40.3870
 0.7390	40.7810
 0.7400	41.1410
 0.7410	41.4690
 0.7420	41.7810
 0.7430	42.0780
 0.7440	42.3550
 0.7450	42.6060
 0.7460	42.8340
 0.7470	43.0540
 0.7480	43.2610
 0.7490	43.4460
 0.7500	43.6170
 0.7510	43.7700
 0.7520	43.9120
 0.7530	44.0510
 0.7540	44.1680
 0.7550	44.2780
 0.7560	44.3830
 0.7570	44.4720
 0.7580	44.5580
 0.7590	44.6390
 0.7600	44.7140
 0.7610	44.7850
 0.7620	44.8420
 0.7630	44.8880
 0.7640	44.9310
 0.7650	44.9830
 0.7660	45.0340
 0.7670	45.0770
 0.7680	45.1110
 0.7690	45.1370
 0.7700	45.1660
 0.7710	45.1990
 0.7720	45.2290
 0.7730	45.2550
 0.7740	45.2780
 0.7750	45.3000
 0.7760	45.3220
 0.7770	45.3460
 0.7780	45.3670
 0.7790	45.3820
 0.7800	45.4030
 0.7810	45.4230
 0.7820	45.4390
 0.7830	45.4540
 0.7840	45.4670
 0.7850	45.4820
 0.7860	45.5000
 0.7870	45.5130
 0.7880	45.5180
 0.7890	45.5270
 0.7900	45.5510
 0.7910	45.5620
 0.7920	45.5660
 0.7930	45.5720
 0.7940	45.5850
 0.7950	45.5930
 0.7960	45.6010
 0.7970	45.6100
 0.7980	45.6140
 0.7990	45.6180
 0.8000	45.6220
 0.8010	45.6220
 0.8020	45.6300
 0.8030	45.6310
 0.8040	45.6280
 0.8050	45.6300
 0.8060	45.6370
 0.8070	45.6330
 0.8080	45.6240
 0.8090	45.6310
 0.8100	45.6320
 0.8110	45.6320
 0.8120	45.6330
 0.8130	45.6300
 0.8140	45.6270
 0.8150	45.6220
 0.8160	45.6150
 0.8170	45.6110
 0.8180	45.6120
 0.8190	45.6130
 0.8200	45.6070
 0.8210	45.6000
 0.8220	45.5970
 0.8230	45.5970
 0.8240	45.5890
 0.8250	45.5790
 0.8260	45.5740
 0.8270	45.5730
 0.8280	45.5660
 0.8290	45.5630
 0.8300	45.5600
 0.8310	45.5550
 0.8320	45.5490
 0.8330	45.5400
 0.8340	45.5330
 0.8350	45.5370
 0.8360	45.5420
 0.8370	45.5420
 0.8380	45.5350
 0.8390	45.5260
 0.8400	45.5270
 0.8410	45.5300
 0.8420	45.5320
 0.8430	45.5380
 0.8440	45.5430
 0.8450	45.5450
 0.8460	45.5460
 0.8470	45.5430
 0.8480	45.5430
 0.8490	45.5500
 0.8500	45.5640
 0.8510	45.5700
 0.8520	45.5700
 0.8530	45.5700
 0.8540	45.5810
 0.8550	45.5820
 0.8560	45.5830
 0.8570	45.5880
 0.8580	45.5980
 0.8590	45.6020
 0.8600	45.6080
 0.8610	45.6160
 0.8620	45.6200
 0.8630	45.6250
 0.8640	45.6300
 0.8650	45.6330
 0.8660	45.6460
 0.8670	45.6590
 0.8680	45.6670
 0.8690	45.6710
 0.8700	45.6850
 0.8710	45.6900
 0.8720	45.6930
 0.8730	45.7070
 0.8740	45.7120
 0.8750	45.7130
 0.8760	45.7150
 0.8770	45.7180
 0.8780	45.7360
 0.8790	45.7480
 0.8800	45.7510
 0.8810	45.7650
 0.8820	45.7700
 0.8830	45.7740
 0.8840	45.7830
 0.8850	45.7920
 0.8860	45.8030
 0.8870	45.8120
 0.8880	45.8140
 0.8890	45.8240
 0.8900	45.8300
 0.8910	45.8290
 0.8920	45.8250
 0.8930	45.8300
 0.8940	45.8440
 0.8950	45.8610
 0.8960	45.8740
 0.8970	45.8800
 0.8980	45.8830
 0.8990	45.8860
 0.9000	45.8850
 0.9010	45.8850
 0.9020	45.8960
 0.9030	45.9150
 0.9040	45.9210
 0.9050	45.9280
 0.9060	45.9320
 0.9070	45.9340
 0.9080	45.9340
 0.9090	45.9370
 0.9100	45.9370
 0.9110	45.9320
 0.9120	45.9600
 0.9130	45.9650
 0.9140	45.9530
 0.9150	45.9480
 0.9160	45.9630
 0.9170	45.9760
 0.9180	45.9800
 0.9190	45.9780
 0.9200	45.9680
 0.9210	45.9680
 0.9220	45.9710
 0.9230	45.9600
 0.9240	45.9540
 0.9250	45.9480
 0.9260	45.9400
 0.9270	45.9330
 0.9280	45.9260
 0.9290	45.9150
 0.9300	45.9020
 0.9310	45.9000
 0.9320	45.8850
 0.9330	45.8600
 0.9340	45.8370
 0.9350	45.8310
 0.9360	45.8100
 0.9370	45.7810
 0.9380	45.7550
 0.9390	45.7350
 0.9400	45.7120
 0.9410	45.6940
 0.9420	45.6800
 0.9430	45.6550
 0.9440	45.6210
 0.9450	45.5810
 0.9460	45.5390
 0.9470	45.5000
 0.9480	45.4620
 0.9490	45.4250
 0.9500	45.3850
 0.9510	45.3310
 0.9520	45.2850
 0.9530	45.2390
 0.9540	45.1830
 0.9550	45.1210
 0.9560	45.0590
 0.9570	45.0000
 0.9580	44.9470
 0.9590	44.9100
 0.9600	44.8640
 0.9610	44.8150
 0.9620	44.7790
 0.9630	44.7750
 0.9640	44.7530
 0.9650	44.7200
 0.9660	44.7020
 0.9670	44.6730
 0.9680	44.6600
 0.9690	44.6470
 0.9700	44.6170
 0.9710	44.6160
 0.9720	44.6080
 0.9730	44.5930
 0.9740	44.5830
 0.9750	44.5610
 0.9760	44.5530
 0.9770	44.5680
 0.9780	44.5980
 0.9790	44.5910
 0.9800	44.5830
 0.9810	44.5800
 0.9820	44.5700
 0.9830	44.5730
 0.9840	44.5950
 0.9850	44.6140
 0.9860	44.6040
 0.9870	44.6030
 0.9880	44.6220
 0.9890	44.6370
 0.9900	44.6230
 0.9910	44.6490
 0.9920	44.7190
 0.9930	44.7890
 0.9940	44.8590
 0.9950	44.9290
 0.9960	44.9990
 0.9970	45.0690
 0.9980	45.1390
 0.9990	45.2090
 1.0000	45.2790
 1.0010	45.3490
 1.0020	45.4190
 1.0030	45.4900
 1.0040	45.5600
 1.0050	45.6300
 1.0060	45.7000
 1.0070	45.7700
 1.0080	45.8400
 1.0090	45.9100
 1.0100	45.9100
 1.0110	45.9320
 1.0120	45.9510
 1.0130	45.9700
 1.0140	45.9850
 1.0150	45.9970
 1.0160	46.0130
 1.0170	46.0270
 1.0180	46.0400
 1.0190	46.0570
 1.0200	46.0720
 1.0210	46.0870
 1.0220	46.1050
 1.0230	46.1210
 1.0240	46.1370
 1.0250	46.1540
 1.0260	46.1690
 1.0270	46.1860
 1.0280	46.2050
 1.0290	46.2210
 1.0300	46.2370
 1.0310	46.2490
 1.0320	46.2580
 1.0330	46.2670
 1.0340	46.2800
 1.0350	46.2990
 1.0360	46.3190
 1.0370	46.3370
 1.0380	46.3500
 1.0390	46.3590
 1.0400	46.3690
 1.0410	46.3760
 1.0420	46.3870
 1.0430	46.3980
 1.0440	46.4090
 1.0450	46.4210
 1.0460	46.4320
 1.0470	46.4410
 1.0480	46.4510
 1.0490	46.4620
 1.0500	46.4710
 1.0510	46.4790
 1.0520	46.4880
 1.0530	46.4940
 1.0540	46.4970
 1.0550	46.5020
 1.0560	46.5070
 1.0570	46.5130
 1.0580	46.5220
 1.0590	46.5270
 1.0600	46.5300
 1.0610	46.5330
 1.0620	46.5350
 1.0630	46.5360
 1.0640	46.5380
 1.0650	46.5390
 1.0660	46.5360
 1.0670	46.5360
 1.0680	46.5370
 1.0690	46.5390
 1.0700	46.5400
 1.0710	46.5420
 1.0720	46.5430
 1.0730	46.5410
 1.0740	46.5390
 1.0750	46.5380
 1.0760	46.5350
 1.0770	46.5330
 1.0780	46.5280
 1.0790	46.5250
 1.0800	46.5190
 1.0810	46.5080
 1.0820	46.5010
 1.0830	46.4930
 1.0840	46.4880
 1.0850	46.4890
 1.0860	46.4870
 1.0870	46.4810
 1.0880	46.4720
 1.0890	46.4640
 1.0900	46.4500
 1.0910	46.4410
 1.0920	46.4360
 1.0930	46.4270
 1.0940	46.4160
 1.0950	46.4060
 1.0960	46.3960
 1.0970	46.3860
 1.0980	46.3780
 1.0990	46.3690
 1.1000	46.3610
 1.1010	46.3520
 1.1020	46.3430
 1.1030	46.3310
 1.1040	46.3200
 1.1050	46.3080
 1.1060	46.2960
 1.1070	46.2860
 1.1080	46.2730
 1.1090	46.2570
 1.1100	46.2450
 1.1110	46.2320
 1.1120	46.2180
 1.1130	46.2080
 1.1140	46.1920
 1.1150	46.1710
 1.1160	46.1510
 1.1170	46.1300
 1.1180	46.1070
 1.1190	46.0810
 1.1200	46.0580
 1.1210	46.0350
 1.1220	46.0050
 1.1230	45.9740
 1.1240	45.9420
 1.1250	45.9040
 1.1260	45.8620
 1.1270	45.8130
 1.1280	45.7590
 1.1290	45.7000
 1.1300	45.6370
 1.1310	45.5650
 1.1320	45.4880
 1.1330	45.4060
 1.1340	45.3150
 1.1350	45.2200
 1.1360	45.1210
 1.1370	45.0160
 1.1380	44.9030
 1.1390	44.7860
 1.1400	44.6640
 1.1410	44.5400
 1.1420	44.4130
 1.1430	44.2840
 1.1440	44.1540
 1.1450	44.0190
 1.1460	43.8900
 1.1470	43.7600
 1.1480	43.6370
 1.1490	43.5180
 1.1500	43.4050
 1.1510	43.2950
 1.1520	43.1960
 1.1530	43.1030
 1.1540	43.0180
 1.1550	42.9430
 1.1560	42.8750
 1.1570	42.8120
 1.1580	42.7560
 1.1590	42.7090
 1.1600	42.6660
 1.1610	42.6290
 1.1620	42.5970
 1.1630	42.5690
 1.1640	42.5460
 1.1650	42.5260
 1.1660	42.5120
 1.1670	42.4970
 1.1680	42.4840
 1.1690	42.4710
 1.1700	42.4580
 1.1710	42.4460
 1.1720	42.4380
 1.1730	42.4280
 1.1740	42.4200
 1.1750	42.4120
 1.1760	42.4030
 1.1770	42.3930
 1.1780	42.3830
 1.1790	42.3730
 1.1800	42.3630
 1.1810	42.3540
 1.1820	42.3420
 1.1830	42.3290
 1.1840	42.3160
 1.1850	42.3050
 1.1860	42.2920
 1.1870	42.2790
 1.1880	42.2680
 1.1890	42.2580
 1.1900	42.2490
 1.1910	42.2410
 1.1920	42.2360
 1.1930	42.2310
 1.1940	42.2280
 1.1950	42.2280
 1.1960	42.2290
 1.1970	42.2310
 1.1980	42.2330
 1.1990	42.2350
 1.2000	42.2400
 1.2010	42.2440
 1.2020	42.2470
 1.2030	42.2540
 1.2040	42.2600
 1.2050	42.2670
 1.2060	42.2790
 1.2070	42.2900
 1.2080	42.3010
 1.2090	42.3160
 1.2100	42.3290
 1.2110	42.3430
 1.2120	42.3590
 1.2130	42.3760
 1.2140	42.3940
 1.2150	42.4120
 1.2160	42.4310
 1.2170	42.4500
 1.2180	42.4670
 1.2190	42.4850
 1.2200	42.5040
 1.2210	42.5270
 1.2220	42.5480
 1.2230	42.5700
 1.2240	42.5920
 1.2250	42.6130
 1.2260	42.6330
 1.2270	42.6520
 1.2280	42.6720
 1.2290	42.6910
 1.2300	42.7110
 1.2310	42.7320
 1.2320	42.7510
 1.2330	42.7680
 1.2340	42.7850
 1.2350	42.7990
 1.2360	42.8140
 1.2370	42.8300
 1.2380	42.8450
 1.2390	42.8610
 1.2400	42.8750
 1.2410	42.8880
 1.2420	42.9010
 1.2430	42.9140
 1.2440	42.9270
 1.2450	42.9410
 1.2460	42.9560
 1.2470	42.9660
 1.2480	42.9750
 1.2490	42.9840
 1.2500	42.9920
 1.2510	43.0010
 1.2520	43.0100
 1.2530	43.0160
 1.2540	43.0230
 1.2550	43.0300
 1.2560	43.0370
 1.2570	43.0430
 1.2580	43.0500
 1.2590	43.0530
 1.2600	43.0530
 1.2610	43.0530
 1.2620	43.0520
 1.2630	43.0490
 1.2640	43.0460
 1.2650	43.0430
 1.2660	43.0390
 1.2670	43.0340
 1.2680	43.0300
 1.2690	43.0260
 1.2700	43.0210
 1.2710	43.0130
 1.2720	43.0050
 1.2730	42.9940
 1.2740	42.9840
 1.2750	42.9760
 1.2760	42.9650
 1.2770	42.9530
 1.2780	42.9400
 1.2790	42.9240
 1.2800	42.9070
 1.2810	42.8910
 1.2820	42.8700
 1.2830	42.8490
 1.2840	42.8270
 1.2850	42.8040
 1.2860	42.7800
 1.2870	42.7550
 1.2880	42.7300
 1.2890	42.7000
 1.2900	42.6690
 1.2910	42.6370
 1.2920	42.6020
 1.2930	42.5650
 1.2940	42.5290
 1.2950	42.4890
 1.2960	42.4460
 1.2970	42.4030
 1.2980	42.3570
 1.2990	42.3070
 1.3000	42.2550
 1.3010	42.1990
 1.3020	42.1410
 1.3030	42.0820
 1.3040	42.0230
 1.3050	41.9610
 1.3060	41.8950
 1.3070	41.8250
 1.3080	41.7520
 1.3090	41.6790
 1.3100	41.6040
 1.3110	41.5250
 1.3120	41.4460
 1.3130	41.3630
 1.3140	41.2770
 1.3150	41.1900
 1.3160	41.1000
 1.3170	41.0060
 1.3180	40.9100
 1.3190	40.8110
 1.3200	40.7070
 1.3210	40.6020
 1.3220	40.4930
 1.3230	40.3810
 1.3240	40.2670
 1.3250	40.1510
 1.3260	40.0340
 1.3270	39.9150
 1.3280	39.7930
 1.3290	39.6690
 1.3300	39.5420
 1.3310	39.4140
 1.3320	39.2840
 1.3330	39.1540
 1.3340	39.0250
 1.3350	38.8930
 1.3360	38.7610
 1.3370	38.6290
 1.3380	38.4960
 1.3390	38.3620
 1.3400	38.2290
 1.3410	38.0990
 1.3420	37.9690
 1.3430	37.8400
 1.3440	37.7120
 1.3450	37.5850
 1.3460	37.4560
 1.3470	37.3300
 1.3480	37.2060
 1.3490	37.0820
 1.3500	36.9600
 1.3510	36.8380
 1.3520	36.7150
 1.3530	36.5950
 1.3540	36.4750
 1.3550	36.3520
 1.3560	36.2300
 1.3570	36.1060
 1.3580	35.9830
 1.3590	35.8570
 1.3600	35.7270
 1.3610	35.5920
 1.3620	35.4510
 1.3630	35.3060
 1.3640	35.1560
 1.3650	34.9990
 1.3660	34.8340
 1.3670	34.6590
 1.3680	34.4730
 1.3690	34.2760
 1.3700	34.0650
 1.3710	33.8410
 1.3720	33.6020
 1.3730	33.3470
 1.3740	33.0780
 1.3750	32.7880
 1.3760	32.4770
 1.3770	32.1460
 1.3780	31.7880
 1.3790	31.4100
 1.3800	31.0100
 1.3810	30.5840
 1.3820	30.1410
 1.3830	29.6790
 1.3840	29.1980
 1.3850	28.6970
 1.3860	28.1840
 1.3870	27.6480
 1.3880	27.1090
 1.3890	26.5580
 1.3900	25.9980
 1.3910	25.4380
 1.3920	24.8750
 1.3930	24.3100
 1.3940	23.7500
 1.3950	23.1890
 1.3960	22.6370
 1.3970	22.0980
 1.3980	21.5690
 1.3990	21.0620
 1.4000	20.5710
 1.4010	20.0950
 1.4020	19.6410
 1.4030	19.2030
 1.4040	18.7870
 1.4050	18.3930
 1.4060	18.0190
 1.4070	17.6710
 1.4080	17.3430
 1.4090	17.0350
 1.4100	16.7490
 1.4110	16.4810
 1.4120	16.2320
 1.4130	16.0030
 1.4140	15.7900
 1.4150	15.5960
 1.4160	15.4180
 1.4170	15.2540
 1.4180	15.1050
 1.4190	14.9680
 1.4200	14.8420
 1.4210	14.7280
 1.4220	14.6240
 1.4230	14.5310
 1.4240	14.4460
 1.4250	14.3680
 1.4260	14.2990
 1.4270	14.2360
 1.4280	14.1810
 1.4290	14.1310
 1.4300	14.0890
 1.4310	14.0520
 1.4320	14.0220
 1.4330	13.9940
 1.4340	13.9710
 1.4350	13.9520
 1.4360	13.9360
 1.4370	13.9230
 1.4380	13.9150
 1.4390	13.9100
 1.4400	13.9060
 1.4410	13.9060
 1.4420	13.9070
 1.4430	13.9090
 1.4440	13.9160
 1.4450	13.9220
 1.4460	13.9310
 1.4470	13.9420
 1.4480	13.9530
 1.4490	13.9650
 1.4500	13.9790
 1.4510	13.9940
 1.4520	14.0110
 1.4530	14.0290
 1.4540	14.0480
 1.4550	14.0690
 1.4560	14.0930
 1.4570	14.1200
 1.4580	14.1490
 1.4590	14.1810
 1.4600	14.2170
 1.4610	14.2560
 1.4620	14.2990
 1.4630	14.3480
 1.4640	14.3990
 1.4650	14.4550
 1.4660	14.5160
 1.4670	14.5820
 1.4680	14.6530
 1.4690	14.7280
 1.4700	14.8080
 1.4710	14.8930
 1.4720	14.9800
 1.4730	15.0710
 1.4740	15.1650
 1.4750	15.2610
 1.4760	15.3620
 1.4770	15.4640
 1.4780	15.5680
 1.4790	15.6760
 1.4800	15.7830
 1.4810	15.8920
 1.4820	16.0030
 1.4830	16.1150
 1.4840	16.2290
 1.4850	16.3440
 1.4860	16.4600
 1.4870	16.5770
 1.4880	16.6950
 1.4890	16.8120
 1.4900	16.9310
 1.4910	17.0490
 1.4920	17.1680
 1.4930	17.2870
 1.4940	17.4070
 1.4950	17.5290
 1.4960	17.6500
 1.4970	17.7700
 1.4980	17.8920
 1.4990	18.0120
 1.5000	18.1340
 1.5010	18.2590
 1.5020	18.3820
 1.5030	18.5050
 1.5040	18.6280
 1.5050	18.7490
 1.5060	18.8700
 1.5070	18.9920
 1.5080	19.1140
 1.5090	19.2360
 1.5100	19.3580
 1.5110	19.4790
 1.5120	19.6000
 1.5130	19.7200
 1.5140	19.8380
 1.5150	19.9570
 1.5160	20.0740
 1.5170	20.1910
 1.5180	20.3080
 1.5190	20.4240
 1.5200	20.5400
 1.5210	20.6540
 1.5220	20.7690
 1.5230	20.8830
 1.5240	20.9960
 1.5250	21.1090
 1.5260	21.2190
 1.5270	21.3280
 1.5280	21.4370
 1.5290	21.5440
 1.5300	21.6530
 1.5310	21.7610
 1.5320	21.8660
 1.5330	21.9720
 1.5340	22.0750
 1.5350	22.1780
 1.5360	22.2810
 1.5370	22.3800
 1.5380	22.4790
 1.5390	22.5780
 1.5400	22.6760
 1.5410	22.7750
 1.5420	22.8730
 1.5430	22.9720
 1.5440	23.0690
 1.5450	23.1650
 1.5460	23.2600
 1.5470	23.3530
 1.5480	23.4460
 1.5490	23.5390
 1.5500	23.6300
 1.5510	23.7210
 1.5520	23.8130
 1.5530	23.9030
 1.5540	23.9920
 1.5550	24.0780
 1.5560	24.1610
 1.5570	24.2450
 1.5580	24.3280
 1.5590	24.4110
 1.5600	24.4960
 1.5610	24.5770
 1.5620	24.6560
 1.5630	24.7340
 1.5640	24.8110
 1.5650	24.8890
 1.5660	24.9660
 1.5670	25.0420
 1.5680	25.1170
 1.5690	25.1900
 1.5700	25.2630
 1.5710	25.3370
 1.5720	25.4080
 1.5730	25.4800
 1.5740	25.5520
 1.5750	25.6210
 1.5760	25.6910
 1.5770	25.7600
 1.5780	25.8270
 1.5790	25.8950
 1.5800	25.9620
 1.5810	26.0280
 1.5820	26.0940
 1.5830	26.1610
 1.5840	26.2260
 1.5850	26.2910
 1.5860	26.3570
 1.5870	26.4210
 1.5880	26.4830
 1.5890	26.5460
 1.5900	26.6100
 1.5910	26.6720
 1.5920	26.7350
 1.5930	26.7960
 1.5940	26.8560
 1.5950	26.9140
 1.5960	26.9730
 1.5970	27.0300
 1.5980	27.0880
 1.5990	27.1460
 1.6000	27.2030
 1.6010	27.2610
 1.6020	27.3190
 1.6030	27.3740
 1.6040	27.4270
 1.6050	27.4800
 1.6060	27.5310
 1.6070	27.5830
 1.6080	27.6350
 1.6090	27.6860
 1.6100	27.7360
 1.6110	27.7840
 1.6120	27.8320
 1.6130	27.8770
 1.6140	27.9200
 1.6150	27.9660
 1.6160	28.0110
 1.6170	28.0560
 1.6180	28.1010
 1.6190	28.1430
 1.6200	28.1830
 1.6210	28.2230
 1.6220	28.2620
 1.6230	28.3010
 1.6240	28.3410
 1.6250	28.3800
 1.6260	28.4180
 1.6270	28.4560
 1.6280	28.4890
 1.6290	28.5230
 1.6300	28.5570
 1.6310	28.5890
 1.6320	28.6230
 1.6330	28.6540
 1.6340	28.6830
 1.6350	28.7120
 1.6360	28.7410
 1.6370	28.7670
 1.6380	28.7910
 1.6390	28.8140
 1.6400	28.8350
 1.6410	28.8540
 1.6420	28.8740
 1.6430	28.8910
 1.6440	28.9060
 1.6450	28.9200
 1.6460	28.9320
 1.6470	28.9430
 1.6480	28.9520
 1.6490	28.9600
 1.6500	28.9670
 1.6510	28.9720
 1.6520	28.9740
 1.6530	28.9760
 1.6540	28.9760
 1.6550	28.9770
 1.6560	28.9780
 1.6570	28.9760
 1.6580	28.9740
 1.6590	28.9710
 1.6600	28.9660
 1.6610	28.9650
 1.6620	28.9630
 1.6630	28.9650
 1.6640	28.9670
 1.6650	28.9660
 1.6660	28.9660
 1.6670	28.9640
 1.6680	28.9640
 1.6690	28.9640
 1.6700	28.9610
 1.6710	28.9570
 1.6720	28.9510
 1.6730	28.9440
 1.6740	28.9340
 1.6750	28.9190
 1.6760	28.9050
 1.6770	28.8900
 1.6780	28.8720
 1.6790	28.8540
 1.6800	28.8310
 1.6810	28.8040
 1.6820	28.7770
 1.6830	28.7480
 1.6840	28.7170
 1.6850	28.6830
 1.6860	28.6490
 1.6870	28.6120
 1.6880	28.5720
 1.6890	28.5310
 1.6900	28.4920
 1.6910	28.4530
 1.6920	28.4130
 1.6930	28.3730
 1.6940	28.3330
 1.6950	28.2910
 1.6960	28.2500
 1.6970	28.2110
 1.6980	28.1690
 1.6990	28.1270
 1.7000	28.0830
 1.7010	28.0370
 1.7020	27.9910
 1.7030	27.9430
 1.7040	27.8960
 1.7050	27.8490
 1.7060	27.8020
 1.7070	27.7580
 1.7080	27.7110
 1.7090	27.6630
 1.7100	27.6140
 1.7110	27.5620
 1.7120	27.5110
 1.7130	27.4630
 1.7140	27.4160
 1.7150	27.3700
 1.7160	27.3250
 1.7170	27.2780
 1.7180	27.2330
 1.7190	27.1890
 1.7200	27.1460
 1.7210	27.1030
 1.7220	27.0580
 1.7230	27.0120
 1.7240	26.9670
 1.7250	26.9230
 1.7260	26.8800
 1.7270	26.8390
 1.7280	26.7990
 1.7290	26.7580
 1.7300	26.7170
 1.7310	26.6780
 1.7320	26.6390
 1.7330	26.6000
 1.7340	26.5630
 1.7350	26.5240
 1.7360	26.4820
 1.7370	26.4400
 1.7380	26.3970
 1.7390	26.3540
 1.7400	26.3100
 1.7410	26.2640
 1.7420	26.2160
 1.7430	26.1650
 1.7440	26.1120
 1.7450	26.0570
 1.7460	25.9990
 1.7470	25.9430
 1.7480	25.8860
 1.7490	25.8290
 1.7500	25.7730
 1.7510	25.7130
 1.7520	25.6500
 1.7530	25.5870
 1.7540	25.5230
 1.7550	25.4590
 1.7560	25.3980
 1.7570	25.3380
 1.7580	25.2780
 1.7590	25.2210
 1.7600	25.1610
 1.7610	25.1020
 1.7620	25.0460
 1.7630	24.9920
 1.7640	24.9400
 1.7650	24.8910
 1.7660	24.8430
 1.7670	24.7970
 1.7680	24.7520
 1.7690	24.7070
 1.7700	24.6630
 1.7710	24.6180
 1.7720	24.5760
 1.7730	24.5360
 1.7740	24.4970
 1.7750	24.4610
 1.7760	24.4250
 1.7770	24.3890
 1.7780	24.3560
 1.7790	24.3250
 1.7800	24.2950
 1.7810	24.2670
 1.7820	24.2420
 1.7830	24.2190
 1.7840	24.1950
 1.7850	24.1730
 1.7860	24.1520
 1.7870	24.1290
 1.7880	24.1140
 1.7890	24.1000
 1.7900	24.0880
 1.7910	24.0750
 1.7920	24.0620
 1.7930	24.0510
 1.7940	24.0410
 1.7950	24.0330
 1.7960	24.0290
 1.7970	24.0250
 1.7980	24.0200
 1.7990	24.0190
 1.8000	24.0210
 1.8010	24.0220
 1.8020	24.0240
 1.8030	24.0260
 1.8040	24.0270
 1.8050	24.0280
 1.8060	24.0310
 1.8070	24.0330
 1.8080	24.0330
 1.8090	24.0340
 1.8100	24.0370
 1.8110	24.0370
 1.8120	24.0400
 1.8130	24.0420
 1.8140	24.0410
 1.8150	24.0390
 1.8160	24.0360
 1.8170	24.0320
 1.8180	24.0300
 1.8190	24.0270
 1.8200	24.0220
 1.8210	24.0150
 1.8220	24.0080
 1.8230	24.0000
 1.8240	23.9920
 1.8250	23.9850
 1.8260	23.9750
 1.8270	23.9340
 1.8280	23.8920
 1.8290	23.8510
 1.8300	23.8090
 1.8310	23.7670
 1.8320	23.7260
 1.8330	23.6840
 1.8340	23.6430
 1.8350	23.6430
 1.8360	23.5990
 1.8370	23.5520
 1.8380	23.4980
 1.8390	23.4390
 1.8400	23.3750
 1.8410	23.3070
 1.8420	23.2350
 1.8430	23.1590
 1.8440	23.0740
 1.8450	22.9800
 1.8460	22.8810
 1.8470	22.7740
 1.8480	22.6590
 1.8490	22.5330
 1.8500	22.3960
 1.8510	22.2480
 1.8520	22.0890
 1.8530	21.9180
 1.8540	21.7390
 1.8550	21.5490
 1.8560	21.3450
 1.8570	21.1290
 1.8580	20.9000
 1.8590	20.6560
 1.8600	20.3990
 1.8610	20.1270
 1.8620	19.8410
 1.8630	19.5420
 1.8640	19.2270
 1.8650	18.8960
 1.8660	18.5470
 1.8670	18.1820
 1.8680	17.8040
 1.8690	17.4110
 1.8700	17.0030
 1.8710	16.5810
 1.8720	16.1510
 1.8730	15.7080
 1.8740	15.2590
 1.8750	14.8040
 1.8760	14.3410
 1.8770	13.8810
 1.8780	13.4220
 1.8790	12.9640
 1.8800	12.5150
 1.8810	12.0720
 1.8820	11.6310
 1.8830	11.1960
 1.8840	10.7720
 1.8850	10.3530
 1.8860	 9.9470
 1.8870	 9.5540
 1.8880	 9.1750
 1.8890	 8.8200
 1.8900	 8.4820
 1.8910	 8.1640
 1.8920	 7.8650
 1.8930	 7.5890
 1.8940	 7.3290
 1.8950	 7.0900
 1.8960	 6.8750
 1.8970	 6.6730
 1.8980	 6.4900
 1.8990	 6.3270
 1.9000	 6.1760
 1.9010	 6.0410
 1.9020	 5.9160
 1.9030	 5.8070
 1.9040	 5.7080
 1.9050	 5.6200
 1.9060	 5.5430
 1.9070	 5.4760
 1.9080	 5.4150
 1.9090	 5.3630
 1.9100	 5.3190
 1.9110	 5.2790
 1.9120	 5.2470
 1.9130	 5.2170
 1.9140	 5.1910
 1.9150	 5.1670
 1.9160	 5.1470
 1.9170	 5.1320
 1.9180	 5.1180
 1.9190	 5.1050
 1.9200	 5.0960
 1.9210	 5.0890
 1.9220	 5.0830
 1.9230	 5.0790
 1.9240	 5.0770
 1.9250	 5.0760
 1.9260	 5.0770
 1.9270	 5.0810
 1.9280	 5.0840
 1.9290	 5.0900
 1.9300	 5.0960
 1.9310	 5.1010
 1.9320	 5.1110
 1.9330	 5.1200
 1.9340	 5.1300
 1.9350	 5.1420
 1.9360	 5.1540
 1.9370	 5.1670
 1.9380	 5.1820
 1.9390	 5.1980
 1.9400	 5.2140
 1.9410	 5.2330
 1.9420	 5.2530
 1.9430	 5.2730
 1.9440	 5.2940
 1.9450	 5.3160
 1.9460	 5.3380
 1.9470	 5.3630
 1.9480	 5.3860
 1.9490	 5.4100
 1.9500	 5.4340
 1.9510	 5.4590
 1.9520	 5.4840
 1.9530	 5.5110
 1.9540	 5.5380
 1.9550	 5.5670
 1.9560	 5.5990
 1.9570	 5.6300
 1.9580	 5.6620
 1.9590	 5.6930
 1.9600	 5.7230
 1.9610	 5.7540
 1.9620	 5.7890
 1.9630	 5.8210
 1.9640	 5.8540
 1.9650	 5.8910
 1.9660	 5.9270
 1.9670	 5.9660
 1.9680	 6.0040
 1.9690	 6.0420
 1.9700	 6.0820
 1.9710	 6.1230
 1.9720	 6.1640
 1.9730	 6.2070
 1.9740	 6.2490
 1.9750	 6.2900
 1.9760	 6.3330
 1.9770	 6.3750
 1.9780	 6.4200
 1.9790	 6.4660
 1.9800	 6.5140
 1.9810	 6.5620
 1.9820	 6.6120
 1.9830	 6.6610
 1.9840	 6.7090
 1.9850	 6.7580
 1.9860	 6.8050
 1.9870	 6.8530
 1.9880	 6.9010
 1.9890	 6.9510
 1.9900	 7.0020
 1.9910	 7.0550
 1.9920	 7.1090
 1.9930	 7.1640
 1.9940	 7.2190
 1.9950	 7.2740
 1.9960	 7.3290
 1.9970	 7.3840
 1.9980	 7.4390
 1.9990	 7.4950
 2.0000	 7.5500
 2.0010	 7.6050
 2.0020	 7.6610
 2.0030	 7.7140
 2.0040	 7.7700
 2.0050	 7.8260
 2.0060	 7.8810
 2.0070	 7.9370
 2.0080	 7.9950
 2.0090	 8.0510
 2.0100	 8.1070
 2.0110	 8.1620
 2.0120	 8.2180
 2.0130	 8.2710
 2.0140	 8.3230
 2.0150	 8.3760
 2.0160	 8.4310
 2.0170	 8.4870
 2.0180	 8.5400
 2.0190	 8.5940
 2.0200	 8.6470
 2.0210	 8.6970
 2.0220	 8.7480
 2.0230	 8.8000
 2.0240	 8.8500
 2.0250	 8.8980
 2.0260	 8.9460
 2.0270	 8.9910
 2.0280	 9.0390
 2.0290	 9.0880
 2.0300	 9.1340
 2.0310	 9.1810
 2.0320	 9.2290
 2.0330	 9.2750
 2.0340	 9.3190
 2.0350	 9.3620
 2.0360	 9.4030
 2.0370	 9.4430
 2.0380	 9.4790
 2.0390	 9.5190
 2.0400	 9.5580
 2.0410	 9.5980
 2.0420	 9.6380
 2.0430	 9.6790
 2.0440	 9.7160
 2.0450	 9.7510
 2.0460	 9.7870
 2.0470	 9.8210
 2.0480	 9.8560
 2.0490	 9.8920
 2.0500	 9.9280
 2.0510	 9.9640
 2.0520	10.0020
 2.0530	10.0410
 2.0540	10.0800
 2.0550	10.1210
 2.0560	10.1620
 2.0570	10.2000
 2.0580	10.2350
 2.0590	10.2710
 2.0600	10.3030
 2.0610	10.3410
 2.0620	10.3830
 2.0630	10.4230
 2.0640	10.4640
 2.0650	10.5040
 2.0660	10.5410
 2.0670	10.5790
 2.0680	10.6180
 2.0690	10.6560
 2.0700	10.6940
 2.0710	10.7330
 2.0720	10.7710
 2.0730	10.8090
 2.0740	10.8470
 2.0750	10.8870
 2.0760	10.9260
 2.0770	10.9640
 2.0780	11.0020
 2.0790	11.0380
 2.0800	11.0750
 2.0810	11.1130
 2.0820	11.1500
 2.0830	11.1890
 2.0840	11.2240
 2.0850	11.2550
 2.0860	11.2900
 2.0870	11.3260
 2.0880	11.3620
 2.0890	11.4000
 2.0900	11.4430
 2.0910	11.4790
 2.0920	11.5110
 2.0930	11.5440
 2.0940	11.5730
 2.0950	11.6050
 2.0960	11.6410
 2.0970	11.6740
 2.0980	11.7070
 2.0990	11.7400
 2.1000	11.7710
 2.1010	11.8020
 2.1020	11.8350
 2.1030	11.8670
 2.1040	11.8990
 2.1050	11.9300
 2.1060	11.9610
 2.1070	11.9900
 2.1080	12.0200
 2.1090	12.0510
 2.1100	12.0800
 2.1110	12.1110
 2.1120	12.1390
 2.1130	12.1640
 2.1140	12.1930
 2.1150	12.2210
 2.1160	12.2500
 2.1170	12.2810
 2.1180	12.3100
 2.1190	12.3360
 2.1200	12.3640
 2.1210	12.3910
 2.1220	12.4190
 2.1230	12.4450
 2.1240	12.4720
 2.1250	12.4980
 2.1260	12.5230
 2.1270	12.5480
 2.1280	12.5730
 2.1290	12.5970
 2.1300	12.6200
 2.1310	12.6430
 2.1320	12.6660
 2.1330	12.6860
 2.1340	12.7010
 2.1350	12.7200
 2.1360	12.7380
 2.1370	12.7560
 2.1380	12.7770
 2.1390	12.7960
 2.1400	12.8160
 2.1410	12.8340
 2.1420	12.8530
 2.1430	12.8730
 2.1440	12.8910
 2.1450	12.9070
 2.1460	12.9250
 2.1470	12.9430
 2.1480	12.9620
 2.1490	12.9820
 2.1500	13.0010
 2.1510	13.0230
 2.1520	13.0390
 2.1530	13.0520
 2.1540	13.0670
 2.1550	13.0800
 2.1560	13.0930
 2.1570	13.1080
 2.1580	13.1230
 2.1590	13.1380
 2.1600	13.1490
 2.1610	13.1620
 2.1620	13.1750
 2.1630	13.1870
 2.1640	13.1970
 2.1650	13.2110
 2.1660	13.2290
 2.1670	13.2420
 2.1680	13.2560
 2.1690	13.2690
 2.1700	13.2770
 2.1710	13.2900
 2.1720	13.3060
 2.1730	13.3220
 2.1740	13.3410
 2.1750	13.3560
 2.1760	13.3690
 2.1770	13.3840
 2.1780	13.3990
 2.1790	13.4150
 2.1800	13.4360
 2.1810	13.4550
 2.1820	13.4720
 2.1830	13.4940
 2.1840	13.5120
 2.1850	13.5290
 2.1860	13.5490
 2.1870	13.5720
 2.1880	13.5920
 2.1890	13.6150
 2.1900	13.6330
 2.1910	13.6460
 2.1920	13.6610
 2.1930	13.6740
 2.1940	13.6910
 2.1950	13.7110
 2.1960	13.7300
 2.1970	13.7510
 2.1980	13.7730
 2.1990	13.7990
 2.2000	13.8180
 2.2010	13.8350
 2.2020	13.8520
 2.2030	13.8630
 2.2040	13.8770
 2.2050	13.8940
 2.2060	13.9130
 2.2070	13.9260
 2.2080	13.9370
 2.2090	13.9480
 2.2100	13.9540
 2.2110	13.9640
 2.2120	13.9760
 2.2130	13.9870
 2.2140	13.9990
 2.2150	14.0090
 2.2160	14.0190
 2.2170	14.0270
 2.2180	14.0340
 2.2190	14.0380
 2.2200	14.0390
 2.2210	14.0400
 2.2220	14.0380
 2.2230	14.0360
 2.2240	14.0310
 2.2250	14.0250
 2.2260	14.0210
 2.2270	14.0100
 2.2280	13.9960
 2.2290	13.9810
 2.2300	13.9610
 2.2310	13.9400
 2.2320	13.9210
 2.2330	13.9010
 2.2340	13.8790
 2.2350	13.8550
 2.2360	13.8270
 2.2370	13.7960
 2.2380	13.7650
 2.2390	13.7340
 2.2400	13.6980
 2.2410	13.6590
 2.2420	13.6240
 2.2430	13.5890
 2.2440	13.5520
 2.2450	13.5210
 2.2460	13.4810
 2.2470	13.4310
 2.2480	13.3870
 2.2490	13.3420
 2.2500	13.2970
 2.2510	13.2540
 2.2520	13.2100
 2.2530	13.1630
 2.2540	13.1180
 2.2550	13.0740
 2.2560	13.0300
 2.2570	12.9870
 2.2580	12.9430
 2.2590	12.8970
 2.2600	12.8530
 2.2610	12.8120
 2.2620	12.7670
 2.2630	12.7210
 2.2640	12.6760
 2.2650	12.6300
 2.2660	12.5880
 2.2670	12.5460
 2.2680	12.5110
 2.2690	12.4670
 2.2700	12.4190
 2.2710	12.3760
 2.2720	12.3330
 2.2730	12.2930
 2.2740	12.2580
 2.2750	12.2220
 2.2760	12.1850
 2.2770	12.1470
 2.2780	12.1090
 2.2790	12.0700
 2.2800	12.0250
 2.2810	11.9880
 2.2820	11.9550
 2.2830	11.9210
 2.2840	11.8930
 2.2850	11.8600
 2.2860	11.8230
 2.2870	11.7880
 2.2880	11.7550
 2.2890	11.7180
 2.2900	11.6790
 2.2910	11.6410
 2.2920	11.6000
 2.2930	11.5590
 2.2940	11.5200
 2.2950	11.4780
 2.2960	11.4290
 2.2970	11.3840
 2.2980	11.3420
 2.2990	11.2990
 2.3000	11.2560
 2.3010	11.2190
 2.3020	11.1770
 2.3030	11.1340
 2.3040	11.0930
 2.3050	11.0510
 2.3060	11.0150
 2.3070	10.9810
 2.3080	10.9440
 2.3090	10.9100
 2.3100	10.8730
 2.3110	10.8360
 2.3120	10.8080
 2.3130	10.7840
 2.3140	10.7630
 2.3150	10.7520
 2.3160	10.7330
 2.3170	10.7130
 2.3180	10.6910
 2.3190	10.6640
 2.3200	10.6390
 2.3210	10.6160
 2.3220	10.5880
 2.3230	10.5580
 2.3240	10.5310
 2.3250	10.5070
 2.3260	10.4780
 2.3270	10.4510
 2.3280	10.4210
 2.3290	10.3840
 2.3300	10.3500
 2.3310	10.3160
 2.3320	10.2830
 2.3330	10.2480
 2.3340	10.2110
 2.3350	10.1740
 2.3360	10.1350
 2.3370	10.0880
 2.3380	10.0500
 2.3390	10.0180
 2.3400	 9.9820
 2.3410	 9.9470
 2.3420	 9.9080
 2.3430	 9.8620
 2.3440	 9.8210
 2.3450	 9.7810
 2.3460	 9.7460
 2.3470	 9.7170
 2.3480	 9.6850
 2.3490	 9.6560
 2.3500	 9.6250
 2.3510	 9.5910
 2.3520	 9.5620
 2.3530	 9.5330
 2.3540	 9.5110
 2.3550	 9.4940
 2.3560	 9.4770
 2.3570	 9.4630
 2.3580	 9.4410
 2.3590	 9.4140
 2.3600	 9.3790
 2.3610	 9.3390
 2.3620	 9.3100
 2.3630	 9.2870
 2.3640	 9.2630
 2.3650	 9.2440
 2.3660	 9.2150
 2.3670	 9.1810
 2.3680	 9.1540
 2.3690	 9.1260
 2.3700	 9.0980
 2.3710	 9.0660
 2.3720	 9.0300
 2.3730	 8.9910
 2.3740	 8.9490
 2.3750	 8.9200
 2.3760	 8.8940
 2.3770	 8.8650
 2.3780	 8.8440
 2.3790	 8.8130
 2.3800	 8.7740
 2.3810	 8.7380
 2.3820	 8.7030
 2.3830	 8.6690
 2.3840	 8.6340
 2.3850	 8.5990
 2.3860	 8.5670
 2.3870	 8.5340
 2.3880	 8.5030
 2.3890	 8.4730
 2.3900	 8.4340
 2.3910	 8.3970
 2.3920	 8.3570
 2.3930	 8.3160
 2.3940	 8.2860
 2.3950	 8.2590
 2.3960	 8.2310
 2.3970	 8.2040
 2.3980	 8.1680
 2.3990	 8.1140
 2.4000	 8.0580
 2.4010	 8.0080
 2.4020	 7.9610
 2.4030	 7.9260
 2.4040	 7.9010
 2.4050	 7.8780
 2.4060	 7.8470
 2.4070	 7.8050
 2.4080	 7.7640
 2.4090	 7.7150
 2.4100	 7.6690
 2.4110	 7.6420
 2.4120	 7.6200
 2.4130	 7.5860
 2.4140	 7.5500
 2.4150	 7.5120
 2.4160	 7.4570
 2.4170	 7.4090
 2.4180	 7.3780
 2.4190	 7.3410
 2.4200	 7.3120
 2.4210	 7.2910
 2.4220	 7.2640
 2.4230	 7.2350
 2.4240	 7.1950
 2.4250	 7.1440
 2.4260	 7.0940
 2.4270	 7.0490
 2.4280	 7.0130
 2.4290	 6.9880
 2.4300	 6.9750
 2.4310	 6.9560
 2.4320	 6.9250
 2.4330	 6.8830
 2.4340	 6.8310
 2.4350	 6.7900
 2.4360	 6.7520
 2.4370	 6.7200
 2.4380	 6.6890
 2.4390	 6.6540
 2.4400	 6.6250
 2.4410	 6.5890
 2.4420	 6.5670
 2.4430	 6.5270
 2.4440	 6.4740
 2.4450	 6.4370
 2.4460	 6.3990
 2.4470	 6.3700
 2.4480	 6.3330
 2.4490	 6.2960
 2.4500	 6.2650
 2.4510	 6.2290
 2.4520	 6.1990
 2.4530	 6.1750
 2.4540	 6.1340
 2.4550	 6.0840
 2.4560	 6.0510
 2.4570	 6.0160
 2.4580	 5.9920
 2.4590	 5.9870
 2.4600	 5.9720
 2.4610	 5.9550
 2.4620	 5.9260
 2.4630	 5.9060
 2.4640	 5.8970
 2.4650	 5.8640
 2.4660	 5.8400
 2.4670	 5.8020
 2.4680	 5.7460
 2.4690	 5.7400
 2.4700	 5.7290
 2.4710	 5.7360
 2.4720	 5.7190
 2.4730	 5.6890
 2.4740	 5.6650
 2.4750	 5.6130
 2.4760	 5.5850
 2.4770	 5.5860
 2.4780	 5.5750
 2.4790	 5.5610
 2.4800	 5.5700
 2.4810	 5.5940
 2.4820	 5.5900
 2.4830	 5.5810
 2.4840	 5.5510
 2.4850	 5.5230
 2.4860	 5.4730
 2.4870	 5.4390
 2.4880	 5.3930
 2.4890	 5.3440
 2.4900	 5.3480
 2.4910	 5.3560
 2.4920	 5.3830
 2.4930	 5.4070
 2.4940	 5.3900
 2.4950	 5.3500
 2.4960	 5.3150
 2.4970	 5.3170
 2.4980	 5.3350
 2.4990	 5.3720
 2.5000	 5.3850
