Name: Abies concolor 3
Type: vegetation
Class: Tree
Genus: Abies
Species: concolor
Sample No.: VH168
Owner: UCSB
Wavelength Range: TIR
Origin: 37.0439; -119.3058; WGS84
Collection Date: 6/8/2013
Description: Samples were collected as part of the HyspIRI Airborne Campaign. 48 individual plants were sampled in three times in 2013 - spring  summer  and fall. The name of the sample includes a 1  2  or 3 which references a different individual of the species. Samples were taken to JPL and processed within 48 hours of collection. The same leaves were processed in the Nicolet and then measured using the ASD.
Measurement: Hemispherical reflectance
First Column: X
Second Column: Y
X Units: Wavelength (micrometers)
Y Units: Reflectance (percentage)
First X Value: 2.501
Last X Value: 15.387
Number of X Values: 1737
Additional Information: vegetation.tree.abies.concolor.tir.vh168.ucsb.nicolet.ancillary.txt

 2.5010	 4.2040
 2.5030	 4.1910
 2.5040	 4.3370
 2.5050	 4.3910
 2.5060	 4.4480
 2.5070	 4.4200
 2.5090	 4.3430
 2.5100	 4.3730
 2.5110	 4.2090
 2.5120	 4.2070
 2.5140	 4.3260
 2.5150	 4.1190
 2.5160	 4.0940
 2.5170	 4.2720
 2.5180	 4.3210
 2.5200	 4.3310
 2.5210	 4.2980
 2.5220	 4.3140
 2.5230	 4.4340
 2.5250	 4.4410
 2.5260	 4.2340
 2.5270	 4.1230
 2.5280	 4.1780
 2.5290	 4.1990
 2.5310	 4.2330
 2.5320	 4.1860
 2.5330	 4.1920
 2.5340	 4.2220
 2.5360	 4.1920
 2.5370	 4.2410
 2.5380	 4.3450
 2.5390	 4.2880
 2.5410	 4.0970
 2.5420	 4.1220
 2.5430	 4.2730
 2.5440	 4.4060
 2.5460	 4.3190
 2.5470	 4.2500
 2.5480	 4.2370
 2.5490	 4.2680
 2.5510	 4.2910
 2.5520	 4.3770
 2.5530	 4.3310
 2.5540	 4.2120
 2.5560	 4.2900
 2.5570	 4.4180
 2.5580	 4.2690
 2.5590	 4.1820
 2.5610	 4.2770
 2.5620	 4.4720
 2.5630	 4.4620
 2.5640	 4.3200
 2.5660	 4.1810
 2.5670	 4.2250
 2.5680	 4.2920
 2.5700	 4.3120
 2.5710	 4.3860
 2.5720	 4.4090
 2.5730	 4.3960
 2.5750	 4.4360
 2.5760	 4.3640
 2.5770	 4.2910
 2.5790	 4.2600
 2.5800	 4.1740
 2.5810	 4.2510
 2.5820	 4.2830
 2.5840	 4.1350
 2.5850	 4.0920
 2.5860	 4.2990
 2.5880	 4.3980
 2.5890	 4.3160
 2.5900	 4.2820
 2.5910	 4.2210
 2.5930	 4.2700
 2.5940	 4.4520
 2.5950	 4.4810
 2.5970	 4.2880
 2.5980	 4.1970
 2.5990	 4.2270
 2.6000	 4.2730
 2.6020	 4.3560
 2.6030	 4.3130
 2.6040	 4.2060
 2.6060	 4.1090
 2.6070	 4.1110
 2.6080	 4.1010
 2.6100	 4.0910
 2.6110	 4.0130
 2.6120	 3.8770
 2.6140	 3.9460
 2.6150	 4.0960
 2.6160	 4.1390
 2.6180	 4.1060
 2.6190	 4.1430
 2.6200	 3.9940
 2.6220	 4.0120
 2.6230	 4.1660
 2.6240	 4.1110
 2.6260	 3.9280
 2.6270	 3.8610
 2.6280	 4.0510
 2.6300	 4.1810
 2.6310	 4.0570
 2.6320	 3.9440
 2.6340	 3.8810
 2.6350	 3.9090
 2.6360	 3.8780
 2.6380	 3.8500
 2.6390	 3.8530
 2.6400	 3.7870
 2.6420	 3.6830
 2.6430	 3.7760
 2.6440	 3.7240
 2.6460	 3.7110
 2.6470	 3.6920
 2.6480	 3.6950
 2.6500	 3.7200
 2.6510	 3.8050
 2.6520	 3.7510
 2.6540	 3.6100
 2.6550	 3.5930
 2.6560	 3.4990
 2.6580	 3.3720
 2.6590	 3.3520
 2.6610	 3.3770
 2.6620	 3.5990
 2.6630	 3.6610
 2.6650	 3.4520
 2.6660	 3.3840
 2.6670	 3.5100
 2.6690	 3.4900
 2.6700	 3.4800
 2.6720	 3.3420
 2.6730	 3.1820
 2.6740	 3.1990
 2.6760	 3.1940
 2.6770	 3.2170
 2.6780	 3.2790
 2.6800	 3.1380
 2.6810	 3.1830
 2.6830	 3.1750
 2.6840	 3.0830
 2.6850	 3.0130
 2.6870	 2.9630
 2.6880	 2.9400
 2.6900	 2.9940
 2.6910	 2.9010
 2.6920	 2.9300
 2.6940	 3.0030
 2.6950	 2.8450
 2.6970	 2.7520
 2.6980	 2.8210
 2.6990	 2.8600
 2.7010	 2.8810
 2.7020	 2.9380
 2.7040	 2.9200
 2.7050	 2.8140
 2.7060	 2.8720
 2.7080	 2.8370
 2.7090	 2.7910
 2.7110	 2.7470
 2.7120	 2.6850
 2.7130	 2.6160
 2.7150	 2.6500
 2.7160	 2.7560
 2.7180	 2.7730
 2.7190	 2.8290
 2.7210	 2.8370
 2.7220	 2.7840
 2.7230	 2.5940
 2.7250	 2.6000
 2.7260	 2.7110
 2.7280	 2.6940
 2.7290	 2.6240
 2.7310	 2.5030
 2.7320	 2.4470
 2.7330	 2.4850
 2.7350	 2.5770
 2.7360	 2.5760
 2.7380	 2.6330
 2.7390	 2.6440
 2.7410	 2.5740
 2.7420	 2.4560
 2.7440	 2.4690
 2.7450	 2.4200
 2.7470	 2.6030
 2.7480	 2.7200
 2.7490	 2.5920
 2.7510	 2.3880
 2.7520	 2.3990
 2.7540	 2.4010
 2.7550	 2.6490
 2.7570	 2.6530
 2.7580	 2.4150
 2.7600	 2.2760
 2.7610	 2.5260
 2.7630	 2.7370
 2.7640	 2.6330
 2.7660	 2.6340
 2.7670	 2.6380
 2.7680	 2.4040
 2.7700	 2.4170
 2.7710	 2.4660
 2.7730	 2.4320
 2.7740	 2.4910
 2.7760	 2.7210
 2.7770	 2.6590
 2.7790	 2.5320
 2.7800	 2.4940
 2.7820	 2.5450
 2.7830	 2.4720
 2.7850	 2.4270
 2.7860	 2.5600
 2.7880	 2.6660
 2.7890	 2.5700
 2.7910	 2.7170
 2.7920	 2.9270
 2.7940	 2.7880
 2.7950	 2.5420
 2.7970	 2.5600
 2.7980	 2.6900
 2.8000	 2.6790
 2.8010	 2.5890
 2.8030	 2.4530
 2.8040	 2.4520
 2.8060	 2.6050
 2.8070	 2.6600
 2.8090	 2.6240
 2.8110	 2.4710
 2.8120	 2.5080
 2.8140	 2.5380
 2.8150	 2.5530
 2.8170	 2.5720
 2.8180	 2.5600
 2.8200	 2.5080
 2.8210	 2.5190
 2.8230	 2.4950
 2.8240	 2.3940
 2.8260	 2.4730
 2.8270	 2.4490
 2.8290	 2.3980
 2.8300	 2.4620
 2.8320	 2.4340
 2.8340	 2.5660
 2.8350	 2.6870
 2.8370	 2.6130
 2.8380	 2.6590
 2.8400	 2.5890
 2.8410	 2.4490
 2.8430	 2.4160
 2.8440	 2.4320
 2.8460	 2.3320
 2.8480	 2.2630
 2.8490	 2.4160
 2.8510	 2.5010
 2.8520	 2.6450
 2.8540	 2.6620
 2.8550	 2.5400
 2.8570	 2.5630
 2.8590	 2.5360
 2.8600	 2.5320
 2.8620	 2.7090
 2.8630	 2.7120
 2.8650	 2.6510
 2.8660	 2.6000
 2.8680	 2.5240
 2.8700	 2.5180
 2.8710	 2.4940
 2.8730	 2.6100
 2.8740	 2.6350
 2.8760	 2.5300
 2.8780	 2.5550
 2.8790	 2.5670
 2.8810	 2.4770
 2.8820	 2.4290
 2.8840	 2.6140
 2.8860	 2.7070
 2.8870	 2.7970
 2.8890	 2.6650
 2.8900	 2.6610
 2.8920	 2.6490
 2.8940	 2.5160
 2.8950	 2.4430
 2.8970	 2.6050
 2.8980	 2.6000
 2.9000	 2.5570
 2.9020	 2.6360
 2.9030	 2.7640
 2.9050	 2.8790
 2.9070	 2.8380
 2.9080	 2.5330
 2.9100	 2.3350
 2.9120	 2.3010
 2.9130	 2.3950
 2.9150	 2.5400
 2.9160	 2.6360
 2.9180	 2.5610
 2.9200	 2.5210
 2.9210	 2.4780
 2.9230	 2.5390
 2.9250	 2.5590
 2.9260	 2.4510
 2.9280	 2.3890
 2.9300	 2.5020
 2.9310	 2.5050
 2.9330	 2.5440
 2.9350	 2.5870
 2.9360	 2.4700
 2.9380	 2.5120
 2.9400	 2.5870
 2.9410	 2.6730
 2.9430	 2.7440
 2.9450	 2.6440
 2.9460	 2.6480
 2.9480	 2.4850
 2.9500	 2.2390
 2.9510	 2.1530
 2.9530	 2.3180
 2.9550	 2.2150
 2.9560	 2.0660
 2.9580	 2.1140
 2.9600	 2.6000
 2.9610	 2.8940
 2.9630	 2.4790
 2.9650	 2.0790
 2.9660	 2.4980
 2.9680	 3.1530
 2.9700	 2.9600
 2.9720	 2.7120
 2.9730	 2.8170
 2.9750	 3.2210
 2.9770	 3.8210
 2.9780	 4.2930
 2.9800	 3.3840
 2.9820	 1.3520
 2.9840	 0.8610
 2.9850	 1.7660
 2.9870	 2.7280
 2.9890	 3.3390
 2.9900	 3.0820
 2.9920	 1.5950
 2.9940	 1.5040
 2.9960	 2.7820
 2.9970	 4.3910
 2.9990	 4.4340
 3.0010	 3.0020
 3.0030	 2.6710
 3.0040	 2.9490
 3.0060	 2.7620
 3.0080	 2.2650
 3.0100	 1.7440
 3.0110	 2.0240
 3.0130	 2.7320
 3.0150	 3.2640
 3.0170	 3.1710
 3.0180	 2.4360
 3.0200	 1.9910
 3.0220	 2.3730
 3.0240	 2.6730
 3.0250	 2.6740
 3.0270	 2.5950
 3.0290	 2.6270
 3.0310	 2.5940
 3.0320	 2.2170
 3.0340	 1.6560
 3.0360	 2.3580
 3.0380	 2.5850
 3.0400	 1.7310
 3.0410	 1.7180
 3.0430	 3.0730
 3.0450	 4.0430
 3.0470	 2.1840
 3.0480	 0.0850
 3.0500	 1.1880
 3.0520	 2.7900
 3.0540	 2.0650
 3.0560	 1.2180
 3.0570	 2.0020
 3.0590	 2.6680
 3.0610	 2.8750
 3.0630	 1.2200
 3.0650	 0.2620
 3.0660	 1.5000
 3.0680	 2.8630
 3.0700	 3.2120
 3.0720	 2.7720
 3.0740	 3.0340
 3.0760	 2.9480
 3.0770	 2.8380
 3.0790	 2.6670
 3.0810	 2.5940
 3.0830	 2.6640
 3.0850	 2.7320
 3.0870	 2.4440
 3.0880	 2.3800
 3.0900	 2.6250
 3.0920	 2.7000
 3.0940	 2.6270
 3.0960	 2.5200
 3.0980	 2.5200
 3.0990	 2.5330
 3.1010	 2.5570
 3.1030	 2.5810
 3.1050	 2.2940
 3.1070	 2.2150
 3.1090	 2.5420
 3.1110	 2.4350
 3.1120	 2.0470
 3.1140	 2.3520
 3.1160	 2.8900
 3.1180	 3.0790
 3.1200	 2.8650
 3.1220	 2.3340
 3.1240	 2.3060
 3.1260	 2.7560
 3.1270	 2.7240
 3.1290	 2.8690
 3.1310	 2.8110
 3.1330	 2.9640
 3.1350	 3.3590
 3.1370	 3.1350
 3.1390	 2.3660
 3.1410	 1.8200
 3.1430	 2.3980
 3.1450	 2.3500
 3.1460	 1.7230
 3.1480	 1.8710
 3.1500	 2.3910
 3.1520	 2.3620
 3.1540	 2.1410
 3.1560	 1.9320
 3.1580	 1.6380
 3.1600	 1.4640
 3.1620	 1.4570
 3.1640	 1.9610
 3.1660	 3.1700
 3.1680	 3.2290
 3.1700	 2.4710
 3.1710	 2.8440
 3.1730	 3.9630
 3.1750	 3.4210
 3.1770	 2.2680
 3.1790	 2.2940
 3.1810	 2.6460
 3.1830	 2.1850
 3.1850	 2.0080
 3.1870	 2.2900
 3.1890	 2.4870
 3.1910	 2.5760
 3.1930	 2.5540
 3.1950	 2.6010
 3.1970	 2.5350
 3.1990	 2.4160
 3.2010	 2.4330
 3.2030	 2.5540
 3.2050	 2.5600
 3.2070	 2.4840
 3.2090	 2.4620
 3.2110	 2.5440
 3.2130	 2.4630
 3.2150	 2.4680
 3.2170	 2.6920
 3.2190	 2.6180
 3.2210	 2.4400
 3.2230	 2.4230
 3.2250	 2.4660
 3.2270	 2.5450
 3.2290	 2.5260
 3.2310	 2.3400
 3.2330	 2.4050
 3.2350	 2.5090
 3.2370	 2.4710
 3.2390	 2.5800
 3.2410	 2.5390
 3.2430	 2.5130
 3.2450	 2.4880
 3.2470	 2.4710
 3.2490	 2.5880
 3.2510	 2.6510
 3.2530	 2.5250
 3.2550	 2.2760
 3.2570	 1.9290
 3.2590	 1.9800
 3.2610	 2.0460
 3.2630	 2.0520
 3.2650	 2.1130
 3.2670	 2.2840
 3.2690	 2.4920
 3.2720	 2.4330
 3.2740	 2.4110
 3.2760	 2.5080
 3.2780	 2.5200
 3.2800	 2.4880
 3.2820	 2.3840
 3.2840	 2.5300
 3.2860	 2.4700
 3.2880	 2.3550
 3.2900	 2.3130
 3.2920	 2.3600
 3.2940	 2.3120
 3.2960	 2.2930
 3.2990	 2.4450
 3.3010	 2.5570
 3.3030	 2.2790
 3.3050	 2.1230
 3.3070	 2.3900
 3.3090	 2.5310
 3.3110	 2.3300
 3.3130	 2.3420
 3.3150	 2.4150
 3.3180	 2.4260
 3.3200	 2.4180
 3.3220	 2.3660
 3.3240	 2.3230
 3.3260	 2.3040
 3.3280	 2.2280
 3.3300	 2.1920
 3.3330	 2.2420
 3.3350	 2.3070
 3.3370	 2.4410
 3.3390	 2.4940
 3.3410	 2.3530
 3.3430	 2.1460
 3.3450	 2.1430
 3.3480	 2.3170
 3.3500	 2.3900
 3.3520	 2.3770
 3.3540	 2.3090
 3.3560	 2.2070
 3.3580	 2.1730
 3.3610	 2.1710
 3.3630	 2.2280
 3.3650	 2.2350
 3.3670	 2.0960
 3.3690	 2.0180
 3.3720	 1.9780
 3.3740	 2.0640
 3.3760	 2.1750
 3.3780	 2.1080
 3.3800	 2.1330
 3.3830	 2.1590
 3.3850	 1.9320
 3.3870	 1.9300
 3.3890	 2.1190
 3.3910	 2.1290
 3.3940	 2.1500
 3.3960	 2.0920
 3.3980	 1.9740
 3.4000	 1.8860
 3.4020	 1.6780
 3.4050	 1.6840
 3.4070	 1.9320
 3.4090	 1.9770
 3.4110	 1.9390
 3.4140	 1.9260
 3.4160	 2.1140
 3.4180	 2.3370
 3.4200	 2.5690
 3.4230	 2.8100
 3.4250	 3.1970
 3.4270	 3.5830
 3.4290	 3.8610
 3.4320	 4.0250
 3.4340	 3.9390
 3.4360	 3.6560
 3.4390	 3.4500
 3.4410	 3.2900
 3.4430	 3.2100
 3.4450	 3.1440
 3.4480	 3.0960
 3.4500	 2.9850
 3.4520	 3.1010
 3.4550	 3.1110
 3.4570	 2.8780
 3.4590	 2.9780
 3.4620	 3.1110
 3.4640	 2.9190
 3.4660	 2.7930
 3.4680	 2.7930
 3.4710	 2.7780
 3.4730	 2.7370
 3.4750	 2.7450
 3.4780	 2.6660
 3.4800	 2.5330
 3.4820	 2.5200
 3.4850	 2.5620
 3.4870	 2.6590
 3.4890	 2.5950
 3.4920	 2.3930
 3.4940	 2.3480
 3.4970	 2.3330
 3.4990	 2.3300
 3.5010	 2.3480
 3.5040	 2.5070
 3.5060	 2.8450
 3.5080	 3.4500
 3.5110	 3.9540
 3.5130	 3.9310
 3.5160	 3.7510
 3.5180	 3.6480
 3.5200	 3.5350
 3.5230	 3.3960
 3.5250	 3.2090
 3.5270	 3.1960
 3.5300	 3.1920
 3.5320	 3.1150
 3.5350	 3.0940
 3.5370	 3.0910
 3.5400	 3.1120
 3.5420	 3.1440
 3.5440	 3.0210
 3.5470	 2.9400
 3.5490	 2.8290
 3.5520	 2.7910
 3.5540	 2.9440
 3.5570	 3.0650
 3.5590	 3.0340
 3.5610	 2.9950
 3.5640	 2.9010
 3.5660	 2.8380
 3.5690	 2.8700
 3.5710	 2.9110
 3.5740	 2.9520
 3.5760	 2.9820
 3.5790	 2.9060
 3.5810	 2.8160
 3.5840	 2.8000
 3.5860	 2.7780
 3.5890	 2.8020
 3.5910	 2.8580
 3.5930	 2.8680
 3.5960	 2.7730
 3.5980	 2.8080
 3.6010	 2.9880
 3.6030	 2.9200
 3.6060	 2.7990
 3.6080	 2.7370
 3.6110	 2.7490
 3.6140	 2.8000
 3.6160	 2.8450
 3.6190	 2.8590
 3.6210	 2.8600
 3.6240	 2.8380
 3.6260	 2.8720
 3.6290	 2.8170
 3.6310	 2.7950
 3.6340	 2.8110
 3.6360	 3.0160
 3.6390	 3.0720
 3.6410	 2.8860
 3.6440	 2.7490
 3.6470	 2.7470
 3.6490	 2.7280
 3.6520	 2.7670
 3.6540	 2.7950
 3.6570	 2.8150
 3.6590	 2.7750
 3.6620	 2.7330
 3.6650	 2.7170
 3.6670	 2.7960
 3.6700	 2.7910
 3.6720	 2.7270
 3.6750	 2.7030
 3.6780	 2.7270
 3.6800	 2.7310
 3.6830	 2.7590
 3.6850	 2.7710
 3.6880	 2.8410
 3.6910	 2.8830
 3.6930	 2.8420
 3.6960	 2.7680
 3.6990	 2.7740
 3.7010	 2.7940
 3.7040	 2.8640
 3.7060	 2.9760
 3.7090	 2.9500
 3.7120	 2.7770
 3.7140	 2.7670
 3.7170	 2.7910
 3.7200	 2.8580
 3.7220	 2.8280
 3.7250	 2.7330
 3.7280	 2.7430
 3.7300	 2.7170
 3.7330	 2.8050
 3.7360	 2.9100
 3.7390	 2.8070
 3.7410	 2.7850
 3.7440	 2.7500
 3.7470	 2.5990
 3.7490	 2.5710
 3.7520	 2.7350
 3.7550	 2.9360
 3.7580	 2.9650
 3.7600	 2.7730
 3.7630	 2.7400
 3.7660	 2.8190
 3.7680	 2.7610
 3.7710	 2.6980
 3.7740	 2.8170
 3.7770	 2.8560
 3.7790	 2.7480
 3.7820	 2.6850
 3.7850	 2.7990
 3.7880	 2.8460
 3.7900	 2.8700
 3.7930	 2.8830
 3.7960	 2.8590
 3.7990	 2.8120
 3.8020	 2.8660
 3.8040	 2.9330
 3.8070	 2.9690
 3.8100	 2.9700
 3.8130	 2.9610
 3.8160	 2.9430
 3.8180	 2.8750
 3.8210	 2.8460
 3.8240	 2.8300
 3.8270	 2.8300
 3.8300	 2.9380
 3.8330	 2.8580
 3.8350	 2.9480
 3.8380	 2.9110
 3.8410	 2.7530
 3.8440	 2.7530
 3.8470	 2.6960
 3.8500	 2.7690
 3.8520	 2.9960
 3.8550	 2.9880
 3.8580	 2.9110
 3.8610	 2.9100
 3.8640	 2.9280
 3.8670	 2.8880
 3.8700	 2.9220
 3.8730	 2.9220
 3.8750	 2.8780
 3.8780	 2.8650
 3.8810	 2.8690
 3.8840	 2.8490
 3.8870	 2.8380
 3.8900	 2.8770
 3.8930	 3.0160
 3.8960	 3.0390
 3.8990	 2.9300
 3.9020	 2.8560
 3.9050	 2.9340
 3.9080	 2.9250
 3.9110	 2.9120
 3.9140	 2.9810
 3.9160	 3.0260
 3.9190	 2.9650
 3.9220	 2.9360
 3.9250	 2.9220
 3.9280	 2.8700
 3.9310	 2.8430
 3.9340	 2.9400
 3.9370	 2.9660
 3.9400	 2.9790
 3.9430	 2.9460
 3.9460	 2.9240
 3.9490	 2.8900
 3.9520	 2.8680
 3.9550	 2.8160
 3.9580	 2.8680
 3.9610	 2.9510
 3.9640	 2.9870
 3.9670	 2.9580
 3.9700	 2.8750
 3.9730	 2.8590
 3.9770	 2.9410
 3.9800	 3.0180
 3.9830	 3.0170
 3.9860	 2.9880
 3.9890	 3.0170
 3.9920	 2.9430
 3.9950	 2.9450
 3.9980	 2.9560
 4.0010	 2.9500
 4.0040	 2.9300
 4.0070	 2.9230
 4.0100	 3.0250
 4.0130	 3.0960
 4.0170	 2.9870
 4.0200	 2.9800
 4.0230	 2.9940
 4.0260	 2.9850
 4.0290	 2.9820
 4.0320	 3.0030
 4.0350	 3.0220
 4.0380	 3.0300
 4.0420	 2.9750
 4.0450	 2.9230
 4.0480	 2.9510
 4.0510	 3.0080
 4.0540	 2.9730
 4.0570	 2.9610
 4.0610	 2.9030
 4.0640	 2.9510
 4.0670	 3.0110
 4.0700	 3.0050
 4.0730	 2.9490
 4.0770	 2.9720
 4.0800	 2.9890
 4.0830	 2.9300
 4.0860	 2.8630
 4.0890	 2.8820
 4.0930	 2.9250
 4.0960	 2.9190
 4.0990	 2.9150
 4.1020	 2.9140
 4.1060	 2.9450
 4.1090	 3.0240
 4.1120	 2.9650
 4.1150	 2.9780
 4.1190	 3.0680
 4.1220	 3.1330
 4.1250	 3.0360
 4.1280	 2.9400
 4.1320	 2.9080
 4.1350	 2.9690
 4.1380	 2.9680
 4.1420	 3.0020
 4.1450	 3.0240
 4.1480	 3.0110
 4.1520	 2.9840
 4.1550	 3.0140
 4.1580	 2.9690
 4.1620	 2.9170
 4.1650	 2.9150
 4.1680	 2.9770
 4.1720	 2.9790
 4.1750	 2.9560
 4.1780	 2.9190
 4.1820	 2.8710
 4.1850	 2.8760
 4.1890	 2.9580
 4.1920	 2.9320
 4.1950	 2.9410
 4.1990	 2.9510
 4.2020	 2.9840
 4.2060	 2.9830
 4.2090	 2.9470
 4.2120	 2.9890
 4.2160	 3.0760
 4.2190	 2.8950
 4.2230	 2.9940
 4.2260	 2.8610
 4.2300	 2.9210
 4.2330	 3.1920
 4.2360	 3.3310
 4.2400	 3.2530
 4.2430	 3.2870
 4.2470	 3.1300
 4.2500	 3.1370
 4.2540	 3.1020
 4.2570	 3.0510
 4.2610	 3.0150
 4.2640	 3.1540
 4.2680	 3.1420
 4.2710	 2.9880
 4.2750	 2.8610
 4.2780	 3.0060
 4.2820	 3.0630
 4.2850	 3.1180
 4.2890	 3.0620
 4.2930	 3.0390
 4.2960	 3.1120
 4.3000	 3.2310
 4.3030	 3.0270
 4.3070	 2.9400
 4.3100	 2.9630
 4.3140	 3.0520
 4.3180	 3.0760
 4.3210	 3.0460
 4.3250	 3.0510
 4.3280	 3.0250
 4.3320	 2.8850
 4.3360	 2.8830
 4.3390	 2.8570
 4.3430	 2.8670
 4.3470	 2.9210
 4.3500	 2.9540
 4.3540	 2.9190
 4.3570	 2.9280
 4.3610	 2.9070
 4.3650	 2.8660
 4.3680	 2.8450
 4.3720	 2.8770
 4.3760	 2.8140
 4.3800	 2.8170
 4.3830	 2.7760
 4.3870	 2.8100
 4.3910	 2.8030
 4.3940	 2.8190
 4.3980	 2.8140
 4.4020	 2.8100
 4.4060	 2.7890
 4.4090	 2.7950
 4.4130	 2.7520
 4.4170	 2.7220
 4.4210	 2.7880
 4.4240	 2.8020
 4.4280	 2.7300
 4.4320	 2.8160
 4.4360	 2.8710
 4.4400	 2.8660
 4.4430	 2.7900
 4.4470	 2.8130
 4.4510	 2.7880
 4.4550	 2.8070
 4.4590	 2.7940
 4.4620	 2.7930
 4.4660	 2.7720
 4.4700	 2.7340
 4.4740	 2.7430
 4.4780	 2.8030
 4.4820	 2.7690
 4.4860	 2.8400
 4.4900	 2.8550
 4.4930	 2.7930
 4.4970	 2.6890
 4.5010	 2.7200
 4.5050	 2.7750
 4.5090	 2.7830
 4.5130	 2.7280
 4.5170	 2.7430
 4.5210	 2.7690
 4.5250	 2.7790
 4.5290	 2.7190
 4.5330	 2.6620
 4.5370	 2.6770
 4.5410	 2.7380
 4.5450	 2.7110
 4.5490	 2.7400
 4.5530	 2.6740
 4.5570	 2.6560
 4.5610	 2.6670
 4.5650	 2.7330
 4.5690	 2.7680
 4.5730	 2.7780
 4.5770	 2.7580
 4.5810	 2.7650
 4.5850	 2.7030
 4.5890	 2.7040
 4.5930	 2.7000
 4.5970	 2.6820
 4.6010	 2.6130
 4.6050	 2.6770
 4.6090	 2.8310
 4.6130	 2.7350
 4.6170	 2.6290
 4.6220	 2.9060
 4.6260	 2.8250
 4.6300	 2.7850
 4.6340	 2.7670
 4.6380	 2.6070
 4.6420	 2.5010
 4.6460	 2.5210
 4.6510	 2.5330
 4.6550	 2.6100
 4.6590	 2.5720
 4.6630	 2.6030
 4.6670	 2.6480
 4.6720	 2.6920
 4.6760	 2.5970
 4.6800	 2.6140
 4.6840	 2.6810
 4.6880	 2.7880
 4.6930	 2.6940
 4.6970	 2.5840
 4.7010	 2.5900
 4.7050	 2.7480
 4.7100	 2.7560
 4.7140	 2.7370
 4.7180	 2.6550
 4.7230	 2.6670
 4.7270	 2.6290
 4.7310	 2.6600
 4.7360	 2.6020
 4.7400	 2.6200
 4.7440	 2.6350
 4.7490	 2.6910
 4.7530	 2.6830
 4.7570	 2.7020
 4.7620	 2.6660
 4.7660	 2.6840
 4.7700	 2.6450
 4.7750	 2.6600
 4.7790	 2.5640
 4.7840	 2.7560
 4.7880	 2.9380
 4.7920	 2.7730
 4.7970	 2.5300
 4.8010	 2.7410
 4.8060	 2.8350
 4.8100	 2.7440
 4.8150	 2.6680
 4.8190	 2.5930
 4.8240	 2.5660
 4.8280	 2.6400
 4.8330	 2.6360
 4.8370	 2.6520
 4.8420	 2.5970
 4.8460	 2.6280
 4.8510	 2.6740
 4.8550	 2.6640
 4.8600	 2.5700
 4.8640	 2.6370
 4.8690	 2.7190
 4.8730	 2.7560
 4.8780	 2.6430
 4.8830	 2.5890
 4.8870	 2.6050
 4.8920	 2.6760
 4.8960	 2.7450
 4.9010	 2.7820
 4.9060	 2.6790
 4.9100	 2.6550
 4.9150	 2.6050
 4.9200	 2.6060
 4.9240	 2.6030
 4.9290	 2.6570
 4.9340	 2.6630
 4.9380	 2.7440
 4.9430	 2.7370
 4.9480	 2.7600
 4.9530	 2.7470
 4.9570	 2.8020
 4.9620	 2.7850
 4.9670	 2.7710
 4.9720	 2.7160
 4.9760	 2.7280
 4.9810	 2.7430
 4.9860	 2.7810
 4.9910	 2.7130
 4.9960	 2.6430
 5.0000	 2.6110
 5.0050	 2.7250
 5.0100	 2.7480
 5.0150	 2.8010
 5.0200	 2.7540
 5.0250	 2.6890
 5.0290	 2.6160
 5.0340	 2.6750
 5.0390	 2.6930
 5.0440	 2.7260
 5.0490	 2.6740
 5.0540	 2.6930
 5.0590	 2.6920
 5.0640	 2.7550
 5.0690	 2.7530
 5.0740	 2.7870
 5.0790	 2.7500
 5.0840	 2.7740
 5.0890	 2.7440
 5.0940	 2.7700
 5.0990	 2.7570
 5.1040	 2.7570
 5.1090	 2.7500
 5.1140	 2.8480
 5.1190	 2.8070
 5.1240	 2.7700
 5.1290	 2.7210
 5.1340	 2.7810
 5.1390	 2.7970
 5.1440	 2.7930
 5.1490	 2.7080
 5.1540	 2.7120
 5.1600	 2.7310
 5.1650	 2.8660
 5.1700	 2.8270
 5.1750	 2.8070
 5.1800	 2.8240
 5.1850	 2.8670
 5.1910	 2.8010
 5.1960	 2.8120
 5.2010	 2.8020
 5.2060	 2.8190
 5.2110	 2.7790
 5.2170	 2.8350
 5.2220	 2.8180
 5.2270	 2.8220
 5.2320	 2.7540
 5.2380	 2.7500
 5.2430	 2.7590
 5.2480	 2.7820
 5.2540	 2.7600
 5.2590	 2.8460
 5.2640	 2.8320
 5.2700	 2.8260
 5.2750	 2.8200
 5.2800	 2.8940
 5.2860	 2.8020
 5.2910	 2.7820
 5.2970	 2.7900
 5.3020	 2.8360
 5.3070	 2.7820
 5.3130	 2.7770
 5.3180	 2.7440
 5.3240	 2.7490
 5.3290	 2.7750
 5.3350	 2.8620
 5.3400	 2.7790
 5.3460	 2.7910
 5.3510	 2.7730
 5.3570	 2.7650
 5.3620	 2.7520
 5.3680	 2.7870
 5.3730	 2.7060
 5.3790	 2.6660
 5.3850	 2.6280
 5.3900	 2.7120
 5.3960	 2.7150
 5.4010	 2.7700
 5.4070	 2.7550
 5.4130	 2.7400
 5.4180	 2.7260
 5.4240	 2.7110
 5.4300	 2.6760
 5.4350	 2.7020
 5.4410	 2.6240
 5.4470	 2.6720
 5.4530	 2.7130
 5.4580	 2.7370
 5.4640	 2.6840
 5.4700	 2.7190
 5.4760	 2.6430
 5.4810	 2.6710
 5.4870	 2.6600
 5.4930	 2.6470
 5.4990	 2.5550
 5.5050	 2.5790
 5.5110	 2.5440
 5.5160	 2.6100
 5.5220	 2.5770
 5.5280	 2.5800
 5.5340	 2.5590
 5.5400	 2.6100
 5.5460	 2.5550
 5.5520	 2.5390
 5.5580	 2.5020
 5.5640	 2.5610
 5.5700	 2.5440
 5.5760	 2.5270
 5.5820	 2.4730
 5.5880	 2.4740
 5.5940	 2.3710
 5.6000	 2.4120
 5.6060	 2.4390
 5.6120	 2.4580
 5.6180	 2.3720
 5.6240	 2.3550
 5.6300	 2.3330
 5.6360	 2.3730
 5.6420	 2.3260
 5.6490	 2.3280
 5.6550	 2.2510
 5.6610	 2.2610
 5.6670	 2.1870
 5.6730	 2.1510
 5.6800	 2.0890
 5.6860	 2.0630
 5.6920	 1.9750
 5.6980	 1.9960
 5.7040	 1.9320
 5.7110	 1.9090
 5.7170	 1.8210
 5.7230	 1.8650
 5.7300	 1.7110
 5.7360	 1.6220
 5.7420	 1.6220
 5.7490	 1.8730
 5.7550	 2.1030
 5.7620	 2.3280
 5.7680	 2.4650
 5.7740	 2.6950
 5.7810	 2.7540
 5.7870	 2.7800
 5.7940	 2.7260
 5.8000	 2.7850
 5.8070	 2.7020
 5.8130	 2.6720
 5.8200	 2.6120
 5.8260	 2.6020
 5.8330	 2.5450
 5.8390	 2.6740
 5.8460	 2.6660
 5.8530	 2.7290
 5.8590	 2.7700
 5.8660	 2.7890
 5.8720	 2.6520
 5.8790	 2.6900
 5.8860	 2.7320
 5.8920	 2.8910
 5.8990	 2.9090
 5.9060	 2.9290
 5.9130	 2.8130
 5.9190	 2.7890
 5.9260	 2.7600
 5.9330	 2.8610
 5.9400	 2.8470
 5.9470	 2.8460
 5.9530	 2.7510
 5.9600	 2.8600
 5.9670	 2.8940
 5.9740	 2.9300
 5.9810	 2.9020
 5.9880	 2.9660
 5.9950	 2.9760
 6.0020	 3.0530
 6.0090	 3.0140
 6.0160	 3.0170
 6.0230	 2.9460
 6.0300	 3.0460
 6.0370	 3.0330
 6.0440	 2.9910
 6.0510	 2.8730
 6.0580	 2.9650
 6.0650	 3.0470
 6.0720	 3.0720
 6.0790	 2.9550
 6.0860	 2.9860
 6.0930	 2.9890
 6.1000	 3.0980
 6.1080	 3.1150
 6.1150	 3.1520
 6.1220	 3.1250
 6.1290	 3.2610
 6.1370	 3.2800
 6.1440	 3.3280
 6.1510	 3.2770
 6.1580	 3.3170
 6.1660	 3.3500
 6.1730	 3.5020
 6.1800	 3.4130
 6.1880	 3.4240
 6.1950	 3.4260
 6.2030	 3.4670
 6.2100	 3.2790
 6.2170	 3.2230
 6.2250	 3.1530
 6.2320	 3.2390
 6.2400	 3.2240
 6.2470	 3.2630
 6.2550	 3.1580
 6.2630	 3.1630
 6.2700	 3.0810
 6.2780	 3.1010
 6.2850	 2.9480
 6.2930	 2.9970
 6.3010	 3.0060
 6.3080	 2.9730
 6.3160	 2.8660
 6.3240	 2.8880
 6.3310	 2.7910
 6.3390	 2.8270
 6.3470	 2.7850
 6.3550	 2.8520
 6.3620	 2.8040
 6.3700	 2.8360
 6.3780	 2.7570
 6.3860	 2.8330
 6.3940	 2.7610
 6.4020	 2.7080
 6.4100	 2.6960
 6.4180	 2.7850
 6.4260	 2.7400
 6.4330	 2.7620
 6.4410	 2.7220
 6.4490	 2.8040
 6.4580	 2.7550
 6.4660	 2.8410
 6.4740	 2.7900
 6.4820	 2.8110
 6.4900	 2.6850
 6.4980	 2.7190
 6.5060	 2.6540
 6.5140	 2.6590
 6.5230	 2.5380
 6.5310	 2.5270
 6.5390	 2.5430
 6.5470	 2.6390
 6.5550	 2.5020
 6.5640	 2.4930
 6.5720	 2.3600
 6.5800	 2.3710
 6.5890	 2.4300
 6.5970	 2.5260
 6.6060	 2.4140
 6.6140	 2.4530
 6.6220	 2.5110
 6.6310	 2.6100
 6.6390	 2.5070
 6.6480	 2.5060
 6.6560	 2.4640
 6.6650	 2.5230
 6.6740	 2.4130
 6.6820	 2.5010
 6.6910	 2.4860
 6.6990	 2.4900
 6.7080	 2.4230
 6.7170	 2.4220
 6.7260	 2.2910
 6.7340	 2.3020
 6.7430	 2.2600
 6.7520	 2.2860
 6.7610	 2.2360
 6.7690	 2.3450
 6.7780	 2.3720
 6.7870	 2.6130
 6.7960	 2.6420
 6.8050	 2.6970
 6.8140	 2.5490
 6.8230	 2.5050
 6.8320	 2.6170
 6.8410	 2.8740
 6.8500	 2.7520
 6.8590	 2.7140
 6.8680	 2.6600
 6.8770	 2.6930
 6.8860	 2.6000
 6.8950	 2.6760
 6.9050	 2.6390
 6.9140	 2.7580
 6.9230	 2.7630
 6.9320	 2.7380
 6.9420	 2.6170
 6.9510	 2.6460
 6.9600	 2.5530
 6.9700	 2.6390
 6.9790	 2.5900
 6.9880	 2.6690
 6.9980	 2.5830
 7.0070	 2.5780
 7.0170	 2.5220
 7.0260	 2.6250
 7.0360	 2.5300
 7.0450	 2.5660
 7.0550	 2.5270
 7.0650	 2.6140
 7.0740	 2.6150
 7.0840	 2.7340
 7.0940	 2.7020
 7.1030	 2.7080
 7.1130	 2.5900
 7.1230	 2.6790
 7.1330	 2.5970
 7.1420	 2.6260
 7.1520	 2.6350
 7.1620	 2.6920
 7.1720	 2.5760
 7.1820	 2.6830
 7.1920	 2.6710
 7.2020	 2.7010
 7.2120	 2.5960
 7.2220	 2.5880
 7.2320	 2.5830
 7.2420	 2.7440
 7.2520	 2.5850
 7.2620	 2.5490
 7.2730	 2.5130
 7.2830	 2.5900
 7.2930	 2.5350
 7.3030	 2.6250
 7.3140	 2.5300
 7.3240	 2.6020
 7.3340	 2.6060
 7.3450	 2.6410
 7.3550	 2.5370
 7.3660	 2.5390
 7.3760	 2.4440
 7.3870	 2.4880
 7.3970	 2.4340
 7.4080	 2.5920
 7.4180	 2.5610
 7.4290	 2.4910
 7.4400	 2.3340
 7.4500	 2.4330
 7.4610	 2.3850
 7.4720	 2.4990
 7.4830	 2.5250
 7.4930	 2.6060
 7.5040	 2.5560
 7.5150	 2.6170
 7.5260	 2.5900
 7.5370	 2.7100
 7.5480	 2.6850
 7.5590	 2.8070
 7.5700	 2.7560
 7.5810	 2.7950
 7.5920	 2.7490
 7.6030	 2.8240
 7.6140	 2.7360
 7.6260	 2.8070
 7.6370	 2.7650
 7.6480	 2.7460
 7.6590	 2.6210
 7.6710	 2.6820
 7.6820	 2.5590
 7.6930	 2.6410
 7.7050	 2.5760
 7.7160	 2.6160
 7.7280	 2.6440
 7.7390	 2.7520
 7.7510	 2.5820
 7.7630	 2.5680
 7.7740	 2.4230
 7.7860	 2.4610
 7.7980	 2.4040
 7.8090	 2.4710
 7.8210	 2.3530
 7.8330	 2.4520
 7.8450	 2.3780
 7.8570	 2.4110
 7.8690	 2.3390
 7.8810	 2.4170
 7.8930	 2.3370
 7.9050	 2.3950
 7.9170	 2.2280
 7.9290	 2.3780
 7.9410	 2.4370
 7.9530	 2.4470
 7.9650	 2.2590
 7.9780	 2.3710
 7.9900	 2.2970
 8.0020	 2.3730
 8.0150	 2.3260
 8.0270	 2.4460
 8.0390	 2.3880
 8.0520	 2.4840
 8.0640	 2.3510
 8.0770	 2.4070
 8.0900	 2.3540
 8.1020	 2.4600
 8.1150	 2.4200
 8.1280	 2.6460
 8.1400	 2.4530
 8.1530	 2.4380
 8.1660	 2.3600
 8.1790	 2.4590
 8.1920	 2.2410
 8.2050	 2.3330
 8.2180	 2.4390
 8.2310	 2.5100
 8.2440	 2.3810
 8.2570	 2.5620
 8.2700	 2.4190
 8.2830	 2.4180
 8.2970	 2.3040
 8.3100	 2.4160
 8.3230	 2.3170
 8.3370	 2.5360
 8.3500	 2.5240
 8.3640	 2.6410
 8.3770	 2.4960
 8.3910	 2.6060
 8.4040	 2.5240
 8.4180	 2.5290
 8.4320	 2.3550
 8.4450	 2.5750
 8.4590	 2.4580
 8.4730	 2.4740
 8.4870	 2.3450
 8.5010	 2.4730
 8.5150	 2.4600
 8.5290	 2.6300
 8.5430	 2.4980
 8.5570	 2.5720
 8.5710	 2.4150
 8.5850	 2.5720
 8.5990	 2.4790
 8.6140	 2.6000
 8.6280	 2.5280
 8.6420	 2.7280
 8.6570	 2.6460
 8.6710	 2.8190
 8.6860	 2.7030
 8.7000	 2.8120
 8.7150	 2.7460
 8.7300	 2.8260
 8.7440	 2.6340
 8.7590	 2.7500
 8.7740	 2.6550
 8.7890	 2.7460
 8.8040	 2.5730
 8.8190	 2.7670
 8.8340	 2.7200
 8.8490	 2.7510
 8.8640	 2.5490
 8.8790	 2.7120
 8.8940	 2.6390
 8.9100	 2.7330
 8.9250	 2.5440
 8.9400	 2.7160
 8.9560	 2.6950
 8.9710	 2.8760
 8.9870	 2.6980
 9.0020	 2.7490
 9.0180	 2.5800
 9.0340	 2.7770
 9.0500	 2.7300
 9.0650	 2.9300
 9.0810	 2.7460
 9.0970	 2.7780
 9.1130	 2.7090
 9.1290	 2.9160
 9.1450	 2.7930
 9.1610	 2.8590
 9.1780	 2.6590
 9.1940	 2.8820
 9.2100	 2.7620
 9.2270	 2.8760
 9.2430	 2.7670
 9.2600	 2.8190
 9.2760	 2.5720
 9.2930	 2.7450
 9.3090	 2.6240
 9.3260	 2.7750
 9.3430	 2.6410
 9.3600	 2.7140
 9.3770	 2.6230
 9.3940	 2.8470
 9.4110	 2.7240
 9.4280	 2.8640
 9.4450	 2.7130
 9.4620	 2.9440
 9.4800	 2.8860
 9.4970	 2.9250
 9.5140	 2.7090
 9.5320	 2.9680
 9.5500	 2.8640
 9.5670	 2.9970
 9.5850	 2.9110
 9.6030	 3.0020
 9.6200	 2.8280
 9.6380	 3.1020
 9.6560	 2.9000
 9.6740	 2.8750
 9.6920	 2.7280
 9.7100	 2.9550
 9.7290	 2.8040
 9.7470	 2.9220
 9.7650	 2.7800
 9.7840	 2.9020
 9.8020	 2.7590
 9.8210	 2.9930
 9.8390	 2.9220
 9.8580	 2.9880
 9.8770	 2.7420
 9.8960	 2.8180
 9.9150	 2.5970
 9.9340	 2.7630
 9.9530	 2.8050
 9.9720	 2.9840
 9.9910	 2.8010
10.0100	 2.9200
10.0300	 2.6140
10.0490	 2.7490
10.0690	 2.8410
10.0880	 2.9320
10.1080	 2.6330
10.1280	 2.9330
10.1480	 2.9030
10.1670	 2.9430
10.1870	 2.7530
10.2070	 2.8640
10.2280	 2.6490
10.2480	 2.7070
10.2680	 2.5780
10.2890	 2.6870
10.3090	 2.5240
10.3300	 2.5770
10.3500	 2.4780
10.3710	 2.7670
10.3920	 2.7000
10.4120	 2.8500
10.4330	 2.6210
10.4540	 2.7360
10.4760	 2.6740
10.4970	 2.7690
10.5180	 2.6020
10.5390	 2.8560
10.5610	 2.7390
10.5820	 2.8520
10.6040	 2.6710
10.6260	 2.6810
10.6480	 2.5390
10.6700	 2.7630
10.6920	 2.5540
10.7140	 2.6690
10.7360	 2.6480
10.7580	 2.9550
10.7800	 2.7810
10.8030	 2.7700
10.8250	 2.5030
10.8480	 2.7680
10.8710	 2.8190
10.8940	 2.9320
10.9170	 2.6270
10.9400	 2.7130
10.9630	 2.6170
10.9860	 2.8580
11.0090	 2.5810
11.0330	 2.7890
11.0560	 2.6720
11.0800	 2.6830
11.1040	 2.6340
11.1270	 2.9280
11.1510	 2.6080
11.1750	 2.7870
11.2000	 2.6560
11.2240	 2.7720
11.2480	 2.6710
11.2730	 3.0860
11.2970	 2.8280
11.3220	 2.7130
11.3470	 2.5330
11.3720	 2.6910
11.3970	 2.6030
11.4220	 2.7450
11.4470	 2.4680
11.4720	 2.7000
11.4980	 2.6710
11.5230	 2.8080
11.5490	 2.5900
11.5750	 2.7300
11.6000	 2.5790
11.6260	 2.8730
11.6530	 2.7060
11.6790	 2.9030
11.7050	 2.6890
11.7320	 2.8660
11.7580	 2.6540
11.7850	 2.6720
11.8120	 2.3140
11.8390	 2.4710
11.8660	 2.3890
11.8930	 2.6670
11.9200	 2.4220
11.9480	 2.6420
11.9760	 2.4250
12.0030	 2.6430
12.0310	 2.4260
12.0590	 2.6330
12.0870	 2.4940
12.1150	 2.6790
12.1440	 2.4100
12.1720	 2.6550
12.2010	 2.5740
12.2300	 2.8690
12.2590	 2.7520
12.2880	 2.9490
12.3170	 2.6470
12.3460	 2.7770
12.3760	 2.3340
12.4050	 2.6130
12.4350	 2.4270
12.4650	 2.5660
12.4950	 2.3500
12.5250	 2.7170
12.5550	 2.4840
12.5860	 2.7140
12.6170	 2.4160
12.6470	 2.7490
12.6780	 2.5540
12.7090	 2.6590
12.7410	 2.3940
12.7720	 2.5750
12.8030	 2.3970
12.8350	 2.9530
12.8670	 2.8020
12.8990	 2.8650
12.9310	 2.5210
12.9640	 2.7990
12.9960	 2.5650
13.0290	 2.7550
13.0610	 2.4570
13.0940	 2.6180
13.1280	 2.3610
13.1610	 2.5340
13.1940	 2.2770
13.2280	 2.7440
13.2620	 2.5610
13.2960	 2.7580
13.3300	 2.3770
13.3640	 2.4680
13.3990	 2.1840
13.4340	 2.7420
13.4690	 2.3860
13.5040	 2.5590
13.5390	 2.2040
13.5740	 2.3390
13.6100	 2.1480
13.6460	 2.7470
13.6820	 2.5730
13.7180	 3.0060
13.7540	 2.5340
13.7910	 2.8230
13.8280	 2.6070
13.8650	 2.9400
13.9020	 2.8010
13.9390	 3.1600
13.9770	 2.6660
14.0150	 2.9790
14.0530	 2.6490
14.0910	 2.9730
14.1290	 2.6000
14.1680	 2.8260
14.2070	 2.4190
14.2460	 2.7230
14.2850	 2.2260
14.3240	 2.8650
14.3640	 2.6130
14.4040	 3.0130
14.4440	 2.2580
14.4840	 2.5420
14.5250	 2.4850
14.5660	 3.1140
14.6070	 2.6620
14.6480	 3.1890
14.6900	 2.7060
14.7310	 3.1700
14.7730	 2.6020
14.8150	 2.9510
14.8580	 2.0170
14.9010	 2.7070
14.9440	 1.1920
14.9870	 1.5440
15.0300	 1.7200
15.0740	 2.4480
15.1180	 1.9190
15.1620	 2.8460
15.2060	 2.5460
15.2510	 3.2330
15.2960	 2.5570
15.3410	 3.3080
15.3870	 2.8790
