Name: Umbellularia californica 2
Type: vegetation
Class: Shrub
Genus: Umbellularia
Species: californica
Sample No.: VH027
Owner: UCSB
Wavelength Range: VSWIR
Origin: 34.5074; -119.7632; WGS84
Collection Date: 4/1/2013
Description: Samples were collected as part of the HyspIRI Airborne Campaign. 48 individual plants were sampled in three times in 2013 - spring  summer  and fall. The name of the sample includes a 1  2  or 3 which references a different individual of the species. Samples were taken to JPL and processed within 48 hours of collection. The same leaves were processed in the Nicolet and then measured using the ASD.
Measurement: Bidirectional reflectance
First Column: X
Second Column: Y
X Units: Wavelength (micrometers)
Y Units: Reflectance (percentage)
First X Value: 0.35
Last X Value: 2.5
Number of X Values: 2151
Additional Information: vegetation.shrub.umbellularia.californica.vswir.vh027.ucsb.asd.ancillary.txt

 0.3500	 6.0390
 0.3510	 6.1160
 0.3520	 6.2150
 0.3530	 6.2460
 0.3540	 6.1840
 0.3550	 6.0900
 0.3560	 6.1030
 0.3570	 6.1160
 0.3580	 5.9450
 0.3590	 5.9630
 0.3600	 6.0400
 0.3610	 6.0510
 0.3620	 5.9470
 0.3630	 5.9420
 0.3640	 6.0110
 0.3650	 6.0630
 0.3660	 5.9970
 0.3670	 5.9450
 0.3680	 5.9360
 0.3690	 5.9260
 0.3700	 5.9060
 0.3710	 5.8970
 0.3720	 5.9090
 0.3730	 5.9130
 0.3740	 5.9330
 0.3750	 5.9240
 0.3760	 5.8560
 0.3770	 5.8460
 0.3780	 5.8700
 0.3790	 5.8940
 0.3800	 5.8760
 0.3810	 5.8200
 0.3820	 5.7910
 0.3830	 5.8120
 0.3840	 5.8020
 0.3850	 5.7980
 0.3860	 5.8110
 0.3870	 5.8440
 0.3880	 5.8810
 0.3890	 5.8560
 0.3900	 5.8070
 0.3910	 5.8730
 0.3920	 5.8650
 0.3930	 5.8320
 0.3940	 5.8270
 0.3950	 5.7840
 0.3960	 5.7790
 0.3970	 5.8120
 0.3980	 5.8410
 0.3990	 5.8340
 0.4000	 5.8190
 0.4010	 5.8260
 0.4020	 5.8820
 0.4030	 5.9090
 0.4040	 5.8990
 0.4050	 5.8760
 0.4060	 5.9150
 0.4070	 5.9280
 0.4080	 5.9170
 0.4090	 5.9400
 0.4100	 5.9290
 0.4110	 5.9300
 0.4120	 5.9620
 0.4130	 5.9720
 0.4140	 5.9630
 0.4150	 5.9510
 0.4160	 5.9590
 0.4170	 6.0060
 0.4180	 6.0320
 0.4190	 6.0320
 0.4200	 6.0550
 0.4210	 6.0760
 0.4220	 6.0810
 0.4230	 6.0720
 0.4240	 6.0850
 0.4250	 6.1080
 0.4260	 6.1240
 0.4270	 6.1180
 0.4280	 6.1260
 0.4290	 6.1300
 0.4300	 6.1280
 0.4310	 6.1390
 0.4320	 6.1520
 0.4330	 6.1660
 0.4340	 6.1770
 0.4350	 6.1650
 0.4360	 6.1640
 0.4370	 6.1730
 0.4380	 6.1700
 0.4390	 6.1750
 0.4400	 6.1850
 0.4410	 6.1930
 0.4420	 6.1900
 0.4430	 6.1860
 0.4440	 6.1880
 0.4450	 6.2020
 0.4460	 6.2140
 0.4470	 6.2250
 0.4480	 6.2350
 0.4490	 6.2460
 0.4500	 6.2520
 0.4510	 6.2540
 0.4520	 6.2550
 0.4530	 6.2590
 0.4540	 6.2700
 0.4550	 6.2840
 0.4560	 6.2950
 0.4570	 6.2990
 0.4580	 6.2980
 0.4590	 6.2970
 0.4600	 6.3020
 0.4610	 6.2970
 0.4620	 6.2900
 0.4630	 6.2940
 0.4640	 6.3030
 0.4650	 6.3070
 0.4660	 6.3030
 0.4670	 6.2900
 0.4680	 6.2920
 0.4690	 6.2900
 0.4700	 6.2760
 0.4710	 6.2800
 0.4720	 6.2900
 0.4730	 6.2930
 0.4740	 6.2820
 0.4750	 6.2770
 0.4760	 6.2810
 0.4770	 6.2880
 0.4780	 6.2850
 0.4790	 6.2850
 0.4800	 6.2910
 0.4810	 6.3010
 0.4820	 6.3020
 0.4830	 6.3090
 0.4840	 6.3180
 0.4850	 6.3190
 0.4860	 6.3260
 0.4870	 6.3330
 0.4880	 6.3360
 0.4890	 6.3490
 0.4900	 6.3600
 0.4910	 6.3710
 0.4920	 6.3870
 0.4930	 6.4060
 0.4940	 6.4260
 0.4950	 6.4480
 0.4960	 6.4710
 0.4970	 6.4970
 0.4980	 6.5220
 0.4990	 6.5450
 0.5000	 6.5780
 0.5010	 6.6210
 0.5020	 6.6690
 0.5030	 6.7100
 0.5040	 6.7630
 0.5050	 6.8290
 0.5060	 6.9020
 0.5070	 6.9810
 0.5080	 7.0610
 0.5090	 7.1490
 0.5100	 7.2560
 0.5110	 7.3710
 0.5120	 7.4940
 0.5130	 7.6240
 0.5140	 7.7650
 0.5150	 7.9290
 0.5160	 8.1040
 0.5170	 8.2800
 0.5180	 8.4720
 0.5190	 8.6730
 0.5200	 8.8790
 0.5210	 9.0900
 0.5220	 9.3000
 0.5230	 9.5090
 0.5240	 9.7210
 0.5250	 9.9380
 0.5260	10.1370
 0.5270	10.3230
 0.5280	10.5060
 0.5290	10.6730
 0.5300	10.8310
 0.5310	10.9800
 0.5320	11.1170
 0.5330	11.2440
 0.5340	11.3590
 0.5350	11.4580
 0.5360	11.5450
 0.5370	11.6300
 0.5380	11.7100
 0.5390	11.7760
 0.5400	11.8450
 0.5410	11.9140
 0.5420	11.9790
 0.5430	12.0390
 0.5440	12.0940
 0.5450	12.1450
 0.5460	12.1910
 0.5470	12.2240
 0.5480	12.2490
 0.5490	12.2720
 0.5500	12.2940
 0.5510	12.3110
 0.5520	12.3190
 0.5530	12.3140
 0.5540	12.2940
 0.5550	12.2580
 0.5560	12.2070
 0.5570	12.1420
 0.5580	12.0630
 0.5590	11.9740
 0.5600	11.8800
 0.5610	11.7720
 0.5620	11.6580
 0.5630	11.5370
 0.5640	11.4090
 0.5650	11.2710
 0.5660	11.1310
 0.5670	10.9920
 0.5680	10.8470
 0.5690	10.7000
 0.5700	10.5550
 0.5710	10.4130
 0.5720	10.2730
 0.5730	10.1350
 0.5740	10.0050
 0.5750	 9.8880
 0.5760	 9.7820
 0.5770	 9.6790
 0.5780	 9.5760
 0.5790	 9.4820
 0.5800	 9.3950
 0.5810	 9.3160
 0.5820	 9.2480
 0.5830	 9.1860
 0.5840	 9.1220
 0.5850	 9.0580
 0.5860	 8.9990
 0.5870	 8.9460
 0.5880	 8.8980
 0.5890	 8.8540
 0.5900	 8.8120
 0.5910	 8.7740
 0.5920	 8.7380
 0.5930	 8.7020
 0.5940	 8.6780
 0.5950	 8.6590
 0.5960	 8.6390
 0.5970	 8.6160
 0.5980	 8.5920
 0.5990	 8.5640
 0.6000	 8.5290
 0.6010	 8.4950
 0.6020	 8.4580
 0.6030	 8.4190
 0.6040	 8.3850
 0.6050	 8.3420
 0.6060	 8.2940
 0.6070	 8.2450
 0.6080	 8.1940
 0.6090	 8.1430
 0.6100	 8.0920
 0.6110	 8.0410
 0.6120	 7.9840
 0.6130	 7.9240
 0.6140	 7.8630
 0.6150	 7.8110
 0.6160	 7.7560
 0.6170	 7.7050
 0.6180	 7.6630
 0.6190	 7.6230
 0.6200	 7.5860
 0.6210	 7.5550
 0.6220	 7.5290
 0.6230	 7.5060
 0.6240	 7.4840
 0.6250	 7.4660
 0.6260	 7.4500
 0.6270	 7.4390
 0.6280	 7.4310
 0.6290	 7.4260
 0.6300	 7.4190
 0.6310	 7.4110
 0.6320	 7.4010
 0.6330	 7.3900
 0.6340	 7.3700
 0.6350	 7.3450
 0.6360	 7.3160
 0.6370	 7.2780
 0.6380	 7.2380
 0.6390	 7.1950
 0.6400	 7.1460
 0.6410	 7.0920
 0.6420	 7.0390
 0.6430	 6.9860
 0.6440	 6.9340
 0.6450	 6.8800
 0.6460	 6.8310
 0.6470	 6.7890
 0.6480	 6.7510
 0.6490	 6.7160
 0.6500	 6.6860
 0.6510	 6.6630
 0.6520	 6.6390
 0.6530	 6.6150
 0.6540	 6.5940
 0.6550	 6.5760
 0.6560	 6.5550
 0.6570	 6.5320
 0.6580	 6.5100
 0.6590	 6.4850
 0.6600	 6.4590
 0.6610	 6.4330
 0.6620	 6.4060
 0.6630	 6.3820
 0.6640	 6.3610
 0.6650	 6.3440
 0.6660	 6.3340
 0.6670	 6.3250
 0.6680	 6.3180
 0.6690	 6.3190
 0.6700	 6.3200
 0.6710	 6.3240
 0.6720	 6.3320
 0.6730	 6.3450
 0.6740	 6.3610
 0.6750	 6.3800
 0.6760	 6.4010
 0.6770	 6.4220
 0.6780	 6.4490
 0.6790	 6.4810
 0.6800	 6.5160
 0.6810	 6.5540
 0.6820	 6.5930
 0.6830	 6.6340
 0.6840	 6.6870
 0.6850	 6.7470
 0.6860	 6.8130
 0.6870	 6.8910
 0.6880	 6.9960
 0.6890	 7.1240
 0.6900	 7.2820
 0.6910	 7.4830
 0.6920	 7.7350
 0.6930	 8.0480
 0.6940	 8.4280
 0.6950	 8.8860
 0.6960	 9.4160
 0.6970	10.0200
 0.6980	10.7010
 0.6990	11.4540
 0.7000	12.2690
 0.7010	13.1330
 0.7020	14.0400
 0.7030	14.9840
 0.7040	15.9520
 0.7050	16.9310
 0.7060	17.9170
 0.7070	18.9070
 0.7080	19.9000
 0.7090	20.8970
 0.7100	21.8790
 0.7110	22.8570
 0.7120	23.8330
 0.7130	24.7970
 0.7140	25.7480
 0.7150	26.6880
 0.7160	27.6190
 0.7170	28.5320
 0.7180	29.4260
 0.7190	30.3050
 0.7200	31.1770
 0.7210	32.0220
 0.7220	32.8490
 0.7230	33.6580
 0.7240	34.4440
 0.7250	35.1970
 0.7260	35.9260
 0.7270	36.6360
 0.7280	37.3220
 0.7290	37.9710
 0.7300	38.5840
 0.7310	39.1670
 0.7320	39.7290
 0.7330	40.2730
 0.7340	40.7930
 0.7350	41.2780
 0.7360	41.7380
 0.7370	42.1720
 0.7380	42.5810
 0.7390	42.9660
 0.7400	43.3270
 0.7410	43.6620
 0.7420	43.9730
 0.7430	44.2730
 0.7440	44.5470
 0.7450	44.7940
 0.7460	45.0290
 0.7470	45.2490
 0.7480	45.4520
 0.7490	45.6370
 0.7500	45.8040
 0.7510	45.9590
 0.7520	46.1010
 0.7530	46.2260
 0.7540	46.3350
 0.7550	46.4400
 0.7560	46.5390
 0.7570	46.6190
 0.7580	46.6980
 0.7590	46.7670
 0.7600	46.8260
 0.7610	46.8880
 0.7620	46.9420
 0.7630	46.9890
 0.7640	47.0340
 0.7650	47.0740
 0.7660	47.1120
 0.7670	47.1420
 0.7680	47.1560
 0.7690	47.1760
 0.7700	47.1960
 0.7710	47.2140
 0.7720	47.2420
 0.7730	47.2570
 0.7740	47.2690
 0.7750	47.2850
 0.7760	47.2940
 0.7770	47.3050
 0.7780	47.3210
 0.7790	47.3390
 0.7800	47.3430
 0.7810	47.3510
 0.7820	47.3660
 0.7830	47.3760
 0.7840	47.3880
 0.7850	47.3960
 0.7860	47.3970
 0.7870	47.4030
 0.7880	47.4090
 0.7890	47.4160
 0.7900	47.4250
 0.7910	47.4360
 0.7920	47.4480
 0.7930	47.4520
 0.7940	47.4390
 0.7950	47.4410
 0.7960	47.4470
 0.7970	47.4480
 0.7980	47.4550
 0.7990	47.4530
 0.8000	47.4480
 0.8010	47.4460
 0.8020	47.4460
 0.8030	47.4480
 0.8040	47.4450
 0.8050	47.4330
 0.8060	47.4340
 0.8070	47.4280
 0.8080	47.4180
 0.8090	47.4240
 0.8100	47.4110
 0.8110	47.4010
 0.8120	47.4010
 0.8130	47.3790
 0.8140	47.3710
 0.8150	47.3680
 0.8160	47.3510
 0.8170	47.3390
 0.8180	47.3330
 0.8190	47.3290
 0.8200	47.3180
 0.8210	47.3040
 0.8220	47.2950
 0.8230	47.2890
 0.8240	47.2710
 0.8250	47.2460
 0.8260	47.2290
 0.8270	47.2250
 0.8280	47.2100
 0.8290	47.2020
 0.8300	47.1950
 0.8310	47.1790
 0.8320	47.1510
 0.8330	47.1360
 0.8340	47.1360
 0.8350	47.1410
 0.8360	47.1210
 0.8370	47.1040
 0.8380	47.0950
 0.8390	47.0840
 0.8400	47.0810
 0.8410	47.0770
 0.8420	47.0680
 0.8430	47.0590
 0.8440	47.0520
 0.8450	47.0480
 0.8460	47.0440
 0.8470	47.0360
 0.8480	47.0240
 0.8490	47.0150
 0.8500	47.0150
 0.8510	47.0220
 0.8520	47.0170
 0.8530	47.0030
 0.8540	46.9930
 0.8550	46.9890
 0.8560	46.9890
 0.8570	46.9850
 0.8580	46.9680
 0.8590	46.9720
 0.8600	46.9760
 0.8610	46.9680
 0.8620	46.9730
 0.8630	46.9780
 0.8640	46.9830
 0.8650	46.9840
 0.8660	46.9760
 0.8670	46.9700
 0.8680	46.9700
 0.8690	46.9760
 0.8700	46.9810
 0.8710	46.9800
 0.8720	46.9750
 0.8730	46.9690
 0.8740	46.9630
 0.8750	46.9630
 0.8760	46.9710
 0.8770	46.9790
 0.8780	46.9890
 0.8790	46.9900
 0.8800	46.9850
 0.8810	46.9900
 0.8820	47.0070
 0.8830	47.0120
 0.8840	46.9960
 0.8850	46.9920
 0.8860	47.0090
 0.8870	47.0240
 0.8880	47.0150
 0.8890	47.0240
 0.8900	47.0330
 0.8910	47.0380
 0.8920	47.0360
 0.8930	47.0250
 0.8940	47.0350
 0.8950	47.0540
 0.8960	47.0470
 0.8970	47.0550
 0.8980	47.0610
 0.8990	47.0590
 0.9000	47.0560
 0.9010	47.0600
 0.9020	47.0620
 0.9030	47.0600
 0.9040	47.0670
 0.9050	47.0690
 0.9060	47.0720
 0.9070	47.0810
 0.9080	47.0880
 0.9090	47.0950
 0.9100	47.0990
 0.9110	47.0980
 0.9120	47.1040
 0.9130	47.1200
 0.9140	47.1270
 0.9150	47.1160
 0.9160	47.1210
 0.9170	47.1180
 0.9180	47.1090
 0.9190	47.1030
 0.9200	47.1070
 0.9210	47.1060
 0.9220	47.1020
 0.9230	47.1070
 0.9240	47.1140
 0.9250	47.1100
 0.9260	47.0950
 0.9270	47.0810
 0.9280	47.0830
 0.9290	47.0820
 0.9300	47.0730
 0.9310	47.0660
 0.9320	47.0730
 0.9330	47.0670
 0.9340	47.0450
 0.9350	47.0340
 0.9360	47.0250
 0.9370	47.0120
 0.9380	46.9970
 0.9390	46.9870
 0.9400	46.9860
 0.9410	46.9630
 0.9420	46.9160
 0.9430	46.9060
 0.9440	46.8860
 0.9450	46.8680
 0.9460	46.8590
 0.9470	46.8250
 0.9480	46.7960
 0.9490	46.7640
 0.9500	46.7210
 0.9510	46.6880
 0.9520	46.6660
 0.9530	46.6370
 0.9540	46.5890
 0.9550	46.5520
 0.9560	46.5140
 0.9570	46.4690
 0.9580	46.4210
 0.9590	46.4050
 0.9600	46.3670
 0.9610	46.3220
 0.9620	46.3000
 0.9630	46.2830
 0.9640	46.2690
 0.9650	46.2580
 0.9660	46.2430
 0.9670	46.2210
 0.9680	46.2110
 0.9690	46.1950
 0.9700	46.1540
 0.9710	46.1560
 0.9720	46.1420
 0.9730	46.1210
 0.9740	46.1200
 0.9750	46.1100
 0.9760	46.1080
 0.9770	46.1070
 0.9780	46.0920
 0.9790	46.0830
 0.9800	46.0920
 0.9810	46.1070
 0.9820	46.1120
 0.9830	46.1030
 0.9840	46.1040
 0.9850	46.1020
 0.9860	46.0790
 0.9870	46.0880
 0.9880	46.1140
 0.9890	46.1300
 0.9900	46.1210
 0.9910	46.1250
 0.9920	46.1860
 0.9930	46.2460
 0.9940	46.3070
 0.9950	46.3680
 0.9960	46.4290
 0.9970	46.4890
 0.9980	46.5500
 0.9990	46.6110
 1.0000	46.6710
 1.0010	46.7320
 1.0020	46.7930
 1.0030	46.8530
 1.0040	46.9140
 1.0050	46.9750
 1.0060	47.0350
 1.0070	47.0960
 1.0080	47.1570
 1.0090	47.2170
 1.0100	47.2170
 1.0110	47.2230
 1.0120	47.2300
 1.0130	47.2370
 1.0140	47.2430
 1.0150	47.2470
 1.0160	47.2540
 1.0170	47.2630
 1.0180	47.2650
 1.0190	47.2690
 1.0200	47.2810
 1.0210	47.2880
 1.0220	47.2950
 1.0230	47.3000
 1.0240	47.3010
 1.0250	47.3070
 1.0260	47.3150
 1.0270	47.3230
 1.0280	47.3340
 1.0290	47.3420
 1.0300	47.3500
 1.0310	47.3560
 1.0320	47.3600
 1.0330	47.3660
 1.0340	47.3740
 1.0350	47.3770
 1.0360	47.3850
 1.0370	47.3950
 1.0380	47.4020
 1.0390	47.4100
 1.0400	47.4130
 1.0410	47.4090
 1.0420	47.4120
 1.0430	47.4140
 1.0440	47.4180
 1.0450	47.4280
 1.0460	47.4330
 1.0470	47.4350
 1.0480	47.4380
 1.0490	47.4390
 1.0500	47.4400
 1.0510	47.4420
 1.0520	47.4450
 1.0530	47.4460
 1.0540	47.4450
 1.0550	47.4450
 1.0560	47.4440
 1.0570	47.4460
 1.0580	47.4520
 1.0590	47.4530
 1.0600	47.4540
 1.0610	47.4540
 1.0620	47.4470
 1.0630	47.4450
 1.0640	47.4460
 1.0650	47.4450
 1.0660	47.4450
 1.0670	47.4440
 1.0680	47.4410
 1.0690	47.4340
 1.0700	47.4320
 1.0710	47.4310
 1.0720	47.4280
 1.0730	47.4260
 1.0740	47.4220
 1.0750	47.4130
 1.0760	47.4080
 1.0770	47.4050
 1.0780	47.3980
 1.0790	47.3890
 1.0800	47.3820
 1.0810	47.3710
 1.0820	47.3640
 1.0830	47.3640
 1.0840	47.3610
 1.0850	47.3560
 1.0860	47.3510
 1.0870	47.3450
 1.0880	47.3370
 1.0890	47.3290
 1.0900	47.3200
 1.0910	47.3140
 1.0920	47.3080
 1.0930	47.3020
 1.0940	47.2990
 1.0950	47.2910
 1.0960	47.2760
 1.0970	47.2650
 1.0980	47.2520
 1.0990	47.2410
 1.1000	47.2350
 1.1010	47.2260
 1.1020	47.2150
 1.1030	47.2050
 1.1040	47.1990
 1.1050	47.1890
 1.1060	47.1800
 1.1070	47.1750
 1.1080	47.1630
 1.1090	47.1470
 1.1100	47.1330
 1.1110	47.1160
 1.1120	47.1030
 1.1130	47.0920
 1.1140	47.0800
 1.1150	47.0700
 1.1160	47.0570
 1.1170	47.0430
 1.1180	47.0260
 1.1190	47.0060
 1.1200	46.9860
 1.1210	46.9650
 1.1220	46.9420
 1.1230	46.9200
 1.1240	46.8960
 1.1250	46.8650
 1.1260	46.8300
 1.1270	46.7940
 1.1280	46.7540
 1.1290	46.7100
 1.1300	46.6640
 1.1310	46.6100
 1.1320	46.5490
 1.1330	46.4860
 1.1340	46.4190
 1.1350	46.3460
 1.1360	46.2680
 1.1370	46.1850
 1.1380	46.0980
 1.1390	46.0090
 1.1400	45.9140
 1.1410	45.8200
 1.1420	45.7250
 1.1430	45.6270
 1.1440	45.5310
 1.1450	45.4370
 1.1460	45.3430
 1.1470	45.2450
 1.1480	45.1540
 1.1490	45.0630
 1.1500	44.9790
 1.1510	44.9010
 1.1520	44.8260
 1.1530	44.7530
 1.1540	44.6880
 1.1550	44.6270
 1.1560	44.5730
 1.1570	44.5240
 1.1580	44.4810
 1.1590	44.4380
 1.1600	44.3980
 1.1610	44.3630
 1.1620	44.3310
 1.1630	44.3030
 1.1640	44.2780
 1.1650	44.2550
 1.1660	44.2330
 1.1670	44.2130
 1.1680	44.1950
 1.1690	44.1770
 1.1700	44.1610
 1.1710	44.1440
 1.1720	44.1290
 1.1730	44.1140
 1.1740	44.1000
 1.1750	44.0840
 1.1760	44.0640
 1.1770	44.0450
 1.1780	44.0250
 1.1790	44.0040
 1.1800	43.9850
 1.1810	43.9680
 1.1820	43.9470
 1.1830	43.9270
 1.1840	43.9050
 1.1850	43.8840
 1.1860	43.8650
 1.1870	43.8480
 1.1880	43.8310
 1.1890	43.8160
 1.1900	43.8000
 1.1910	43.7810
 1.1920	43.7660
 1.1930	43.7510
 1.1940	43.7400
 1.1950	43.7310
 1.1960	43.7240
 1.1970	43.7180
 1.1980	43.7120
 1.1990	43.7090
 1.2000	43.7090
 1.2010	43.7130
 1.2020	43.7150
 1.2030	43.7170
 1.2040	43.7230
 1.2050	43.7300
 1.2060	43.7390
 1.2070	43.7510
 1.2080	43.7650
 1.2090	43.7800
 1.2100	43.7960
 1.2110	43.8140
 1.2120	43.8330
 1.2130	43.8520
 1.2140	43.8700
 1.2150	43.8910
 1.2160	43.9140
 1.2170	43.9380
 1.2180	43.9670
 1.2190	43.9940
 1.2200	44.0200
 1.2210	44.0480
 1.2220	44.0760
 1.2230	44.1020
 1.2240	44.1290
 1.2250	44.1550
 1.2260	44.1810
 1.2270	44.2050
 1.2280	44.2300
 1.2290	44.2550
 1.2300	44.2750
 1.2310	44.2940
 1.2320	44.3130
 1.2330	44.3320
 1.2340	44.3490
 1.2350	44.3660
 1.2360	44.3820
 1.2370	44.3980
 1.2380	44.4120
 1.2390	44.4270
 1.2400	44.4410
 1.2410	44.4530
 1.2420	44.4620
 1.2430	44.4730
 1.2440	44.4830
 1.2450	44.4920
 1.2460	44.5010
 1.2470	44.5100
 1.2480	44.5200
 1.2490	44.5300
 1.2500	44.5390
 1.2510	44.5440
 1.2520	44.5470
 1.2530	44.5500
 1.2540	44.5530
 1.2550	44.5580
 1.2560	44.5620
 1.2570	44.5670
 1.2580	44.5710
 1.2590	44.5720
 1.2600	44.5700
 1.2610	44.5690
 1.2620	44.5670
 1.2630	44.5650
 1.2640	44.5640
 1.2650	44.5630
 1.2660	44.5600
 1.2670	44.5550
 1.2680	44.5510
 1.2690	44.5470
 1.2700	44.5410
 1.2710	44.5370
 1.2720	44.5340
 1.2730	44.5260
 1.2740	44.5160
 1.2750	44.5080
 1.2760	44.4980
 1.2770	44.4900
 1.2780	44.4810
 1.2790	44.4680
 1.2800	44.4530
 1.2810	44.4380
 1.2820	44.4220
 1.2830	44.4080
 1.2840	44.3920
 1.2850	44.3730
 1.2860	44.3540
 1.2870	44.3340
 1.2880	44.3130
 1.2890	44.2870
 1.2900	44.2610
 1.2910	44.2320
 1.2920	44.2020
 1.2930	44.1730
 1.2940	44.1420
 1.2950	44.1090
 1.2960	44.0750
 1.2970	44.0390
 1.2980	44.0000
 1.2990	43.9570
 1.3000	43.9140
 1.3010	43.8680
 1.3020	43.8210
 1.3030	43.7750
 1.3040	43.7280
 1.3050	43.6790
 1.3060	43.6290
 1.3070	43.5780
 1.3080	43.5220
 1.3090	43.4620
 1.3100	43.4020
 1.3110	43.3390
 1.3120	43.2750
 1.3130	43.2130
 1.3140	43.1480
 1.3150	43.0800
 1.3160	43.0110
 1.3170	42.9410
 1.3180	42.8650
 1.3190	42.7860
 1.3200	42.7070
 1.3210	42.6220
 1.3220	42.5380
 1.3230	42.4560
 1.3240	42.3700
 1.3250	42.2830
 1.3260	42.1950
 1.3270	42.1020
 1.3280	42.0090
 1.3290	41.9140
 1.3300	41.8170
 1.3310	41.7190
 1.3320	41.6190
 1.3330	41.5190
 1.3340	41.4180
 1.3350	41.3140
 1.3360	41.2090
 1.3370	41.1050
 1.3380	40.9990
 1.3390	40.8940
 1.3400	40.7890
 1.3410	40.6840
 1.3420	40.5770
 1.3430	40.4690
 1.3440	40.3640
 1.3450	40.2590
 1.3460	40.1530
 1.3470	40.0490
 1.3480	39.9450
 1.3490	39.8410
 1.3500	39.7370
 1.3510	39.6350
 1.3520	39.5310
 1.3530	39.4280
 1.3540	39.3240
 1.3550	39.2190
 1.3560	39.1120
 1.3570	39.0050
 1.3580	38.8970
 1.3590	38.7870
 1.3600	38.6760
 1.3610	38.5620
 1.3620	38.4420
 1.3630	38.3180
 1.3640	38.1900
 1.3650	38.0540
 1.3660	37.9130
 1.3670	37.7640
 1.3680	37.6050
 1.3690	37.4380
 1.3700	37.2590
 1.3710	37.0710
 1.3720	36.8700
 1.3730	36.6540
 1.3740	36.4240
 1.3750	36.1760
 1.3760	35.9100
 1.3770	35.6230
 1.3780	35.3140
 1.3790	34.9870
 1.3800	34.6390
 1.3810	34.2690
 1.3820	33.8830
 1.3830	33.4780
 1.3840	33.0540
 1.3850	32.6120
 1.3860	32.1530
 1.3870	31.6730
 1.3880	31.1870
 1.3890	30.6870
 1.3900	30.1740
 1.3910	29.6610
 1.3920	29.1380
 1.3930	28.6090
 1.3940	28.0810
 1.3950	27.5460
 1.3960	27.0190
 1.3970	26.4990
 1.3980	25.9870
 1.3990	25.4920
 1.4000	25.0070
 1.4010	24.5340
 1.4020	24.0770
 1.4030	23.6340
 1.4040	23.2090
 1.4050	22.8040
 1.4060	22.4180
 1.4070	22.0550
 1.4080	21.7130
 1.4090	21.3890
 1.4100	21.0870
 1.4110	20.8020
 1.4120	20.5380
 1.4130	20.2920
 1.4140	20.0630
 1.4150	19.8540
 1.4160	19.6620
 1.4170	19.4840
 1.4180	19.3230
 1.4190	19.1740
 1.4200	19.0390
 1.4210	18.9160
 1.4220	18.8030
 1.4230	18.7010
 1.4240	18.6110
 1.4250	18.5280
 1.4260	18.4560
 1.4270	18.3910
 1.4280	18.3350
 1.4290	18.2840
 1.4300	18.2400
 1.4310	18.2030
 1.4320	18.1720
 1.4330	18.1470
 1.4340	18.1270
 1.4350	18.1120
 1.4360	18.1020
 1.4370	18.0960
 1.4380	18.0950
 1.4390	18.0960
 1.4400	18.1010
 1.4410	18.1100
 1.4420	18.1220
 1.4430	18.1360
 1.4440	18.1530
 1.4450	18.1700
 1.4460	18.1890
 1.4470	18.2090
 1.4480	18.2310
 1.4490	18.2550
 1.4500	18.2810
 1.4510	18.3080
 1.4520	18.3380
 1.4530	18.3680
 1.4540	18.4000
 1.4550	18.4330
 1.4560	18.4680
 1.4570	18.5060
 1.4580	18.5480
 1.4590	18.5940
 1.4600	18.6440
 1.4610	18.6970
 1.4620	18.7540
 1.4630	18.8160
 1.4640	18.8830
 1.4650	18.9550
 1.4660	19.0320
 1.4670	19.1130
 1.4680	19.2010
 1.4690	19.2930
 1.4700	19.3890
 1.4710	19.4900
 1.4720	19.5920
 1.4730	19.6990
 1.4740	19.8090
 1.4750	19.9220
 1.4760	20.0390
 1.4770	20.1570
 1.4780	20.2760
 1.4790	20.3980
 1.4800	20.5200
 1.4810	20.6440
 1.4820	20.7700
 1.4830	20.8950
 1.4840	21.0230
 1.4850	21.1510
 1.4860	21.2800
 1.4870	21.4110
 1.4880	21.5410
 1.4890	21.6710
 1.4900	21.8020
 1.4910	21.9310
 1.4920	22.0620
 1.4930	22.1930
 1.4940	22.3240
 1.4950	22.4570
 1.4960	22.5880
 1.4970	22.7200
 1.4980	22.8520
 1.4990	22.9820
 1.5000	23.1130
 1.5010	23.2460
 1.5020	23.3770
 1.5030	23.5080
 1.5040	23.6380
 1.5050	23.7660
 1.5060	23.8940
 1.5070	24.0200
 1.5080	24.1470
 1.5090	24.2740
 1.5100	24.4000
 1.5110	24.5250
 1.5120	24.6500
 1.5130	24.7720
 1.5140	24.8920
 1.5150	25.0120
 1.5160	25.1310
 1.5170	25.2490
 1.5180	25.3670
 1.5190	25.4840
 1.5200	25.5990
 1.5210	25.7120
 1.5220	25.8240
 1.5230	25.9360
 1.5240	26.0470
 1.5250	26.1570
 1.5260	26.2640
 1.5270	26.3720
 1.5280	26.4780
 1.5290	26.5830
 1.5300	26.6870
 1.5310	26.7900
 1.5320	26.8900
 1.5330	26.9920
 1.5340	27.0920
 1.5350	27.1900
 1.5360	27.2880
 1.5370	27.3830
 1.5380	27.4780
 1.5390	27.5720
 1.5400	27.6630
 1.5410	27.7550
 1.5420	27.8460
 1.5430	27.9360
 1.5440	28.0270
 1.5450	28.1160
 1.5460	28.2030
 1.5470	28.2890
 1.5480	28.3730
 1.5490	28.4570
 1.5500	28.5410
 1.5510	28.6230
 1.5520	28.7050
 1.5530	28.7850
 1.5540	28.8660
 1.5550	28.9470
 1.5560	29.0260
 1.5570	29.1050
 1.5580	29.1820
 1.5590	29.2570
 1.5600	29.3330
 1.5610	29.4070
 1.5620	29.4810
 1.5630	29.5520
 1.5640	29.6220
 1.5650	29.6930
 1.5660	29.7620
 1.5670	29.8310
 1.5680	29.9020
 1.5690	29.9700
 1.5700	30.0370
 1.5710	30.1050
 1.5720	30.1710
 1.5730	30.2370
 1.5740	30.3020
 1.5750	30.3680
 1.5760	30.4330
 1.5770	30.4970
 1.5780	30.5600
 1.5790	30.6240
 1.5800	30.6860
 1.5810	30.7470
 1.5820	30.8080
 1.5830	30.8680
 1.5840	30.9290
 1.5850	30.9900
 1.5860	31.0510
 1.5870	31.1130
 1.5880	31.1730
 1.5890	31.2330
 1.5900	31.2910
 1.5910	31.3470
 1.5920	31.4040
 1.5930	31.4610
 1.5940	31.5160
 1.5950	31.5720
 1.5960	31.6290
 1.5970	31.6840
 1.5980	31.7410
 1.5990	31.7960
 1.6000	31.8510
 1.6010	31.9070
 1.6020	31.9580
 1.6030	32.0110
 1.6040	32.0620
 1.6050	32.1130
 1.6060	32.1640
 1.6070	32.2160
 1.6080	32.2670
 1.6090	32.3160
 1.6100	32.3630
 1.6110	32.4100
 1.6120	32.4540
 1.6130	32.5000
 1.6140	32.5460
 1.6150	32.5900
 1.6160	32.6340
 1.6170	32.6750
 1.6180	32.7150
 1.6190	32.7560
 1.6200	32.7940
 1.6210	32.8320
 1.6220	32.8700
 1.6230	32.9050
 1.6240	32.9410
 1.6250	32.9760
 1.6260	33.0070
 1.6270	33.0390
 1.6280	33.0680
 1.6290	33.0980
 1.6300	33.1290
 1.6310	33.1580
 1.6320	33.1870
 1.6330	33.2150
 1.6340	33.2410
 1.6350	33.2680
 1.6360	33.2950
 1.6370	33.3210
 1.6380	33.3470
 1.6390	33.3710
 1.6400	33.3910
 1.6410	33.4120
 1.6420	33.4310
 1.6430	33.4490
 1.6440	33.4660
 1.6450	33.4820
 1.6460	33.4960
 1.6470	33.5090
 1.6480	33.5210
 1.6490	33.5310
 1.6500	33.5400
 1.6510	33.5460
 1.6520	33.5490
 1.6530	33.5510
 1.6540	33.5510
 1.6550	33.5490
 1.6560	33.5450
 1.6570	33.5380
 1.6580	33.5280
 1.6590	33.5180
 1.6600	33.5060
 1.6610	33.4920
 1.6620	33.4790
 1.6630	33.4640
 1.6640	33.4480
 1.6650	33.4300
 1.6660	33.4080
 1.6670	33.3860
 1.6680	33.3610
 1.6690	33.3350
 1.6700	33.3070
 1.6710	33.2760
 1.6720	33.2430
 1.6730	33.2090
 1.6740	33.1730
 1.6750	33.1320
 1.6760	33.0900
 1.6770	33.0470
 1.6780	32.9980
 1.6790	32.9480
 1.6800	32.8950
 1.6810	32.8370
 1.6820	32.7770
 1.6830	32.7160
 1.6840	32.6500
 1.6850	32.5810
 1.6860	32.5110
 1.6870	32.4380
 1.6880	32.3670
 1.6890	32.2930
 1.6900	32.2180
 1.6910	32.1430
 1.6920	32.0680
 1.6930	31.9940
 1.6940	31.9210
 1.6950	31.8480
 1.6960	31.7770
 1.6970	31.7090
 1.6980	31.6390
 1.6990	31.5700
 1.7000	31.5000
 1.7010	31.4280
 1.7020	31.3580
 1.7030	31.2890
 1.7040	31.2200
 1.7050	31.1520
 1.7060	31.0840
 1.7070	31.0130
 1.7080	30.9470
 1.7090	30.8810
 1.7100	30.8180
 1.7110	30.7580
 1.7120	30.6990
 1.7130	30.6410
 1.7140	30.5900
 1.7150	30.5400
 1.7160	30.4930
 1.7170	30.4490
 1.7180	30.4070
 1.7190	30.3680
 1.7200	30.3320
 1.7210	30.2990
 1.7220	30.2660
 1.7230	30.2360
 1.7240	30.2060
 1.7250	30.1790
 1.7260	30.1550
 1.7270	30.1340
 1.7280	30.1140
 1.7290	30.0970
 1.7300	30.0800
 1.7310	30.0640
 1.7320	30.0490
 1.7330	30.0330
 1.7340	30.0200
 1.7350	30.0030
 1.7360	29.9850
 1.7370	29.9640
 1.7380	29.9430
 1.7390	29.9150
 1.7400	29.8820
 1.7410	29.8450
 1.7420	29.7990
 1.7430	29.7530
 1.7440	29.7040
 1.7450	29.6520
 1.7460	29.5950
 1.7470	29.5380
 1.7480	29.4780
 1.7490	29.4190
 1.7500	29.3620
 1.7510	29.3030
 1.7520	29.2450
 1.7530	29.1870
 1.7540	29.1290
 1.7550	29.0740
 1.7560	29.0190
 1.7570	28.9680
 1.7580	28.9210
 1.7590	28.8770
 1.7600	28.8350
 1.7610	28.7920
 1.7620	28.7530
 1.7630	28.7170
 1.7640	28.6820
 1.7650	28.6500
 1.7660	28.6180
 1.7670	28.5870
 1.7680	28.5570
 1.7690	28.5270
 1.7700	28.4980
 1.7710	28.4690
 1.7720	28.4410
 1.7730	28.4140
 1.7740	28.3880
 1.7750	28.3620
 1.7760	28.3390
 1.7770	28.3190
 1.7780	28.3010
 1.7790	28.2840
 1.7800	28.2700
 1.7810	28.2570
 1.7820	28.2490
 1.7830	28.2440
 1.7840	28.2400
 1.7850	28.2390
 1.7860	28.2380
 1.7870	28.2400
 1.7880	28.2420
 1.7890	28.2440
 1.7900	28.2460
 1.7910	28.2490
 1.7920	28.2510
 1.7930	28.2550
 1.7940	28.2600
 1.7950	28.2660
 1.7960	28.2760
 1.7970	28.2850
 1.7980	28.2940
 1.7990	28.3040
 1.8000	28.3140
 1.8010	28.3230
 1.8020	28.3310
 1.8030	28.3410
 1.8040	28.3540
 1.8050	28.3630
 1.8060	28.3690
 1.8070	28.3770
 1.8080	28.3810
 1.8090	28.3890
 1.8100	28.4020
 1.8110	28.4070
 1.8120	28.4100
 1.8130	28.4140
 1.8140	28.4160
 1.8150	28.4180
 1.8160	28.4210
 1.8170	28.4220
 1.8180	28.4210
 1.8190	28.4200
 1.8200	28.4180
 1.8210	28.4150
 1.8220	28.4120
 1.8230	28.4090
 1.8240	28.4020
 1.8250	28.3950
 1.8260	28.3860
 1.8270	28.3270
 1.8280	28.2670
 1.8290	28.2080
 1.8300	28.1480
 1.8310	28.0890
 1.8320	28.0300
 1.8330	27.9700
 1.8340	27.9110
 1.8350	27.9110
 1.8360	27.8720
 1.8370	27.8290
 1.8380	27.7840
 1.8390	27.7330
 1.8400	27.6770
 1.8410	27.6150
 1.8420	27.5470
 1.8430	27.4770
 1.8440	27.3970
 1.8450	27.3090
 1.8460	27.2170
 1.8470	27.1120
 1.8480	26.9980
 1.8490	26.8770
 1.8500	26.7460
 1.8510	26.6030
 1.8520	26.4520
 1.8530	26.2930
 1.8540	26.1200
 1.8550	25.9330
 1.8560	25.7340
 1.8570	25.5180
 1.8580	25.2820
 1.8590	25.0360
 1.8600	24.7760
 1.8610	24.5010
 1.8620	24.2110
 1.8630	23.9050
 1.8640	23.5820
 1.8650	23.2380
 1.8660	22.8720
 1.8670	22.4880
 1.8680	22.0860
 1.8690	21.6620
 1.8700	21.2190
 1.8710	20.7560
 1.8720	20.2800
 1.8730	19.7860
 1.8740	19.2830
 1.8750	18.7740
 1.8760	18.2470
 1.8770	17.7170
 1.8780	17.1840
 1.8790	16.6430
 1.8800	16.1130
 1.8810	15.5870
 1.8820	15.0630
 1.8830	14.5370
 1.8840	14.0220
 1.8850	13.5070
 1.8860	13.0050
 1.8870	12.5200
 1.8880	12.0470
 1.8890	11.5990
 1.8900	11.1720
 1.8910	10.7650
 1.8920	10.3760
 1.8930	10.0120
 1.8940	 9.6680
 1.8950	 9.3490
 1.8960	 9.0540
 1.8970	 8.7830
 1.8980	 8.5380
 1.8990	 8.3110
 1.9000	 8.1020
 1.9010	 7.9150
 1.9020	 7.7430
 1.9030	 7.5890
 1.9040	 7.4520
 1.9050	 7.3300
 1.9060	 7.2240
 1.9070	 7.1310
 1.9080	 7.0480
 1.9090	 6.9730
 1.9100	 6.9070
 1.9110	 6.8470
 1.9120	 6.7950
 1.9130	 6.7490
 1.9140	 6.7100
 1.9150	 6.6770
 1.9160	 6.6480
 1.9170	 6.6240
 1.9180	 6.6070
 1.9190	 6.5910
 1.9200	 6.5780
 1.9210	 6.5680
 1.9220	 6.5590
 1.9230	 6.5540
 1.9240	 6.5500
 1.9250	 6.5480
 1.9260	 6.5480
 1.9270	 6.5500
 1.9280	 6.5550
 1.9290	 6.5630
 1.9300	 6.5740
 1.9310	 6.5850
 1.9320	 6.5970
 1.9330	 6.6120
 1.9340	 6.6290
 1.9350	 6.6470
 1.9360	 6.6690
 1.9370	 6.6920
 1.9380	 6.7160
 1.9390	 6.7410
 1.9400	 6.7680
 1.9410	 6.7980
 1.9420	 6.8270
 1.9430	 6.8590
 1.9440	 6.8910
 1.9450	 6.9210
 1.9460	 6.9540
 1.9470	 6.9870
 1.9480	 7.0230
 1.9490	 7.0620
 1.9500	 7.1030
 1.9510	 7.1440
 1.9520	 7.1880
 1.9530	 7.2310
 1.9540	 7.2740
 1.9550	 7.3190
 1.9560	 7.3640
 1.9570	 7.4120
 1.9580	 7.4640
 1.9590	 7.5140
 1.9600	 7.5660
 1.9610	 7.6170
 1.9620	 7.6670
 1.9630	 7.7170
 1.9640	 7.7710
 1.9650	 7.8270
 1.9660	 7.8840
 1.9670	 7.9430
 1.9680	 8.0030
 1.9690	 8.0640
 1.9700	 8.1260
 1.9710	 8.1910
 1.9720	 8.2550
 1.9730	 8.3180
 1.9740	 8.3840
 1.9750	 8.4500
 1.9760	 8.5180
 1.9770	 8.5850
 1.9780	 8.6510
 1.9790	 8.7190
 1.9800	 8.7870
 1.9810	 8.8570
 1.9820	 8.9310
 1.9830	 9.0020
 1.9840	 9.0730
 1.9850	 9.1450
 1.9860	 9.2180
 1.9870	 9.2920
 1.9880	 9.3680
 1.9890	 9.4430
 1.9900	 9.5200
 1.9910	 9.5970
 1.9920	 9.6740
 1.9930	 9.7510
 1.9940	 9.8290
 1.9950	 9.9080
 1.9960	 9.9860
 1.9970	10.0620
 1.9980	10.1390
 1.9990	10.2140
 2.0000	10.2920
 2.0010	10.3690
 2.0020	10.4480
 2.0030	10.5250
 2.0040	10.6000
 2.0050	10.6760
 2.0060	10.7530
 2.0070	10.8280
 2.0080	10.9030
 2.0090	10.9770
 2.0100	11.0490
 2.0110	11.1220
 2.0120	11.1960
 2.0130	11.2700
 2.0140	11.3440
 2.0150	11.4170
 2.0160	11.4890
 2.0170	11.5600
 2.0180	11.6280
 2.0190	11.6920
 2.0200	11.7580
 2.0210	11.8210
 2.0220	11.8850
 2.0230	11.9510
 2.0240	12.0160
 2.0250	12.0830
 2.0260	12.1460
 2.0270	12.2060
 2.0280	12.2660
 2.0290	12.3250
 2.0300	12.3770
 2.0310	12.4330
 2.0320	12.4890
 2.0330	12.5440
 2.0340	12.6000
 2.0350	12.6520
 2.0360	12.7010
 2.0370	12.7500
 2.0380	12.7960
 2.0390	12.8430
 2.0400	12.8890
 2.0410	12.9360
 2.0420	12.9810
 2.0430	13.0260
 2.0440	13.0720
 2.0450	13.1210
 2.0460	13.1660
 2.0470	13.2100
 2.0480	13.2520
 2.0490	13.2900
 2.0500	13.3310
 2.0510	13.3710
 2.0520	13.4140
 2.0530	13.4580
 2.0540	13.5020
 2.0550	13.5450
 2.0560	13.5880
 2.0570	13.6320
 2.0580	13.6760
 2.0590	13.7200
 2.0600	13.7650
 2.0610	13.8100
 2.0620	13.8520
 2.0630	13.8980
 2.0640	13.9480
 2.0650	13.9950
 2.0660	14.0420
 2.0670	14.0890
 2.0680	14.1340
 2.0690	14.1800
 2.0700	14.2270
 2.0710	14.2730
 2.0720	14.3180
 2.0730	14.3620
 2.0740	14.4060
 2.0750	14.4500
 2.0760	14.4960
 2.0770	14.5440
 2.0780	14.5900
 2.0790	14.6370
 2.0800	14.6820
 2.0810	14.7250
 2.0820	14.7690
 2.0830	14.8120
 2.0840	14.8570
 2.0850	14.9040
 2.0860	14.9500
 2.0870	14.9930
 2.0880	15.0390
 2.0890	15.0820
 2.0900	15.1230
 2.0910	15.1670
 2.0920	15.2140
 2.0930	15.2580
 2.0940	15.3010
 2.0950	15.3440
 2.0960	15.3840
 2.0970	15.4280
 2.0980	15.4750
 2.0990	15.5210
 2.1000	15.5700
 2.1010	15.6170
 2.1020	15.6610
 2.1030	15.7060
 2.1040	15.7500
 2.1050	15.7930
 2.1060	15.8360
 2.1070	15.8770
 2.1080	15.9220
 2.1090	15.9660
 2.1100	16.0110
 2.1110	16.0580
 2.1120	16.1020
 2.1130	16.1440
 2.1140	16.1880
 2.1150	16.2340
 2.1160	16.2770
 2.1170	16.3170
 2.1180	16.3590
 2.1190	16.4000
 2.1200	16.4400
 2.1210	16.4810
 2.1220	16.5220
 2.1230	16.5630
 2.1240	16.6010
 2.1250	16.6410
 2.1260	16.6820
 2.1270	16.7200
 2.1280	16.7550
 2.1290	16.7920
 2.1300	16.8290
 2.1310	16.8640
 2.1320	16.9010
 2.1330	16.9340
 2.1340	16.9620
 2.1350	16.9920
 2.1360	17.0190
 2.1370	17.0480
 2.1380	17.0790
 2.1390	17.1090
 2.1400	17.1390
 2.1410	17.1690
 2.1420	17.1980
 2.1430	17.2280
 2.1440	17.2540
 2.1450	17.2790
 2.1460	17.3040
 2.1470	17.3280
 2.1480	17.3530
 2.1490	17.3800
 2.1500	17.4050
 2.1510	17.4300
 2.1520	17.4530
 2.1530	17.4750
 2.1540	17.4950
 2.1550	17.5150
 2.1560	17.5340
 2.1570	17.5520
 2.1580	17.5710
 2.1590	17.5890
 2.1600	17.6090
 2.1610	17.6320
 2.1620	17.6500
 2.1630	17.6680
 2.1640	17.6860
 2.1650	17.7030
 2.1660	17.7160
 2.1670	17.7340
 2.1680	17.7520
 2.1690	17.7710
 2.1700	17.7940
 2.1710	17.8150
 2.1720	17.8370
 2.1730	17.8570
 2.1740	17.8740
 2.1750	17.8950
 2.1760	17.9170
 2.1770	17.9390
 2.1780	17.9650
 2.1790	17.9900
 2.1800	18.0150
 2.1810	18.0380
 2.1820	18.0610
 2.1830	18.0820
 2.1840	18.1020
 2.1850	18.1210
 2.1860	18.1400
 2.1870	18.1580
 2.1880	18.1800
 2.1890	18.2010
 2.1900	18.2250
 2.1910	18.2540
 2.1920	18.2780
 2.1930	18.3030
 2.1940	18.3270
 2.1950	18.3500
 2.1960	18.3700
 2.1970	18.3890
 2.1980	18.4070
 2.1990	18.4190
 2.2000	18.4330
 2.2010	18.4500
 2.2020	18.4620
 2.2030	18.4730
 2.2040	18.4830
 2.2050	18.4920
 2.2060	18.4990
 2.2070	18.5070
 2.2080	18.5160
 2.2090	18.5200
 2.2100	18.5210
 2.2110	18.5220
 2.2120	18.5210
 2.2130	18.5200
 2.2140	18.5200
 2.2150	18.5180
 2.2160	18.5130
 2.2170	18.5070
 2.2180	18.5000
 2.2190	18.4890
 2.2200	18.4730
 2.2210	18.4580
 2.2220	18.4400
 2.2230	18.4210
 2.2240	18.4040
 2.2250	18.3800
 2.2260	18.3510
 2.2270	18.3210
 2.2280	18.2860
 2.2290	18.2510
 2.2300	18.2170
 2.2310	18.1840
 2.2320	18.1440
 2.2330	18.1010
 2.2340	18.0530
 2.2350	17.9990
 2.2360	17.9440
 2.2370	17.8840
 2.2380	17.8240
 2.2390	17.7620
 2.2400	17.6970
 2.2410	17.6310
 2.2420	17.5620
 2.2430	17.4860
 2.2440	17.4140
 2.2450	17.3430
 2.2460	17.2690
 2.2470	17.1980
 2.2480	17.1220
 2.2490	17.0440
 2.2500	16.9620
 2.2510	16.8740
 2.2520	16.7900
 2.2530	16.7040
 2.2540	16.6200
 2.2550	16.5440
 2.2560	16.4590
 2.2570	16.3690
 2.2580	16.2800
 2.2590	16.1840
 2.2600	16.0930
 2.2610	16.0010
 2.2620	15.9150
 2.2630	15.8250
 2.2640	15.7400
 2.2650	15.6580
 2.2660	15.5750
 2.2670	15.4960
 2.2680	15.4210
 2.2690	15.3460
 2.2700	15.2710
 2.2710	15.2020
 2.2720	15.1380
 2.2730	15.0730
 2.2740	15.0100
 2.2750	14.9500
 2.2760	14.8910
 2.2770	14.8330
 2.2780	14.7780
 2.2790	14.7230
 2.2800	14.6680
 2.2810	14.6160
 2.2820	14.5710
 2.2830	14.5200
 2.2840	14.4680
 2.2850	14.4150
 2.2860	14.3570
 2.2870	14.3030
 2.2880	14.2540
 2.2890	14.1980
 2.2900	14.1370
 2.2910	14.0760
 2.2920	14.0080
 2.2930	13.9430
 2.2940	13.8800
 2.2950	13.8170
 2.2960	13.7510
 2.2970	13.6900
 2.2980	13.6310
 2.2990	13.5740
 2.3000	13.5210
 2.3010	13.4710
 2.3020	13.4160
 2.3030	13.3630
 2.3040	13.3120
 2.3050	13.2640
 2.3060	13.2260
 2.3070	13.1950
 2.3080	13.1660
 2.3090	13.1390
 2.3100	13.1160
 2.3110	13.0960
 2.3120	13.0800
 2.3130	13.0690
 2.3140	13.0600
 2.3150	13.0540
 2.3160	13.0500
 2.3170	13.0530
 2.3180	13.0490
 2.3190	13.0470
 2.3200	13.0370
 2.3210	13.0230
 2.3220	13.0050
 2.3230	12.9780
 2.3240	12.9550
 2.3250	12.9320
 2.3260	12.9030
 2.3270	12.8690
 2.3280	12.8380
 2.3290	12.8020
 2.3300	12.7690
 2.3310	12.7390
 2.3320	12.7070
 2.3330	12.6720
 2.3340	12.6380
 2.3350	12.6050
 2.3360	12.5680
 2.3370	12.5260
 2.3380	12.4880
 2.3390	12.4490
 2.3400	12.4100
 2.3410	12.3730
 2.3420	12.3370
 2.3430	12.3040
 2.3440	12.2670
 2.3450	12.2300
 2.3460	12.1940
 2.3470	12.1550
 2.3480	12.1180
 2.3490	12.0800
 2.3500	12.0480
 2.3510	12.0230
 2.3520	11.9950
 2.3530	11.9700
 2.3540	11.9500
 2.3550	11.9290
 2.3560	11.9050
 2.3570	11.8860
 2.3580	11.8690
 2.3590	11.8440
 2.3600	11.8160
 2.3610	11.7970
 2.3620	11.7800
 2.3630	11.7600
 2.3640	11.7390
 2.3650	11.7110
 2.3660	11.6720
 2.3670	11.6350
 2.3680	11.6080
 2.3690	11.5830
 2.3700	11.5550
 2.3710	11.5300
 2.3720	11.4940
 2.3730	11.4540
 2.3740	11.4220
 2.3750	11.3880
 2.3760	11.3580
 2.3770	11.3400
 2.3780	11.3230
 2.3790	11.3020
 2.3800	11.2750
 2.3810	11.2290
 2.3820	11.1790
 2.3830	11.1370
 2.3840	11.0990
 2.3850	11.0680
 2.3860	11.0400
 2.3870	11.0120
 2.3880	10.9790
 2.3890	10.9450
 2.3900	10.9160
 2.3910	10.8730
 2.3920	10.8270
 2.3930	10.7810
 2.3940	10.7280
 2.3950	10.6900
 2.3960	10.6590
 2.3970	10.6280
 2.3980	10.5920
 2.3990	10.5370
 2.4000	10.4850
 2.4010	10.4430
 2.4020	10.4060
 2.4030	10.3700
 2.4040	10.3320
 2.4050	10.2830
 2.4060	10.2340
 2.4070	10.1950
 2.4080	10.1620
 2.4090	10.1310
 2.4100	10.0940
 2.4110	10.0630
 2.4120	10.0270
 2.4130	 9.9810
 2.4140	 9.9400
 2.4150	 9.8920
 2.4160	 9.8350
 2.4170	 9.7940
 2.4180	 9.7620
 2.4190	 9.7180
 2.4200	 9.6790
 2.4210	 9.6310
 2.4220	 9.5830
 2.4230	 9.5500
 2.4240	 9.5080
 2.4250	 9.4600
 2.4260	 9.4100
 2.4270	 9.3600
 2.4280	 9.3160
 2.4290	 9.2740
 2.4300	 9.2350
 2.4310	 9.1950
 2.4320	 9.1550
 2.4330	 9.1200
 2.4340	 9.0860
 2.4350	 9.0440
 2.4360	 8.9910
 2.4370	 8.9420
 2.4380	 8.9000
 2.4390	 8.8640
 2.4400	 8.8300
 2.4410	 8.7820
 2.4420	 8.7290
 2.4430	 8.6700
 2.4440	 8.6110
 2.4450	 8.5750
 2.4460	 8.5310
 2.4470	 8.4820
 2.4480	 8.4460
 2.4490	 8.4090
 2.4500	 8.3660
 2.4510	 8.3260
 2.4520	 8.2850
 2.4530	 8.2370
 2.4540	 8.2030
 2.4550	 8.1590
 2.4560	 8.1140
 2.4570	 8.0790
 2.4580	 8.0270
 2.4590	 7.9920
 2.4600	 7.9570
 2.4610	 7.9210
 2.4620	 7.8960
 2.4630	 7.8650
 2.4640	 7.8270
 2.4650	 7.7730
 2.4660	 7.7410
 2.4670	 7.7190
 2.4680	 7.7060
 2.4690	 7.7270
 2.4700	 7.7080
 2.4710	 7.6670
 2.4720	 7.6390
 2.4730	 7.5980
 2.4740	 7.5670
 2.4750	 7.5520
 2.4760	 7.5350
 2.4770	 7.5100
 2.4780	 7.4830
 2.4790	 7.4620
 2.4800	 7.4420
 2.4810	 7.4210
 2.4820	 7.4030
 2.4830	 7.3930
 2.4840	 7.3760
 2.4850	 7.3280
 2.4860	 7.3100
 2.4870	 7.2840
 2.4880	 7.2380
 2.4890	 7.2260
 2.4900	 7.1830
 2.4910	 7.1470
 2.4920	 7.1440
 2.4930	 7.1110
 2.4940	 7.0760
 2.4950	 7.0620
 2.4960	 7.0470
 2.4970	 7.0680
 2.4980	 7.1500
 2.4990	 7.1990
 2.5000	 7.1900
