Name: Baccharis pilularis 2
Type: vegetation
Class: Shrub
Genus: Baccharis
Species: pilularis
Sample No.: VH046
Owner: UCSB
Wavelength Range: VSWIR
Origin: 34.5084; -119.7683; WGS84
Collection Date: 4/1/2013
Description: Samples were collected as part of the HyspIRI Airborne Campaign. 48 individual plants were sampled in three times in 2013 - spring  summer  and fall. The name of the sample includes a 1  2  or 3 which references a different individual of the species. Samples were taken to JPL and processed within 48 hours of collection. The same leaves were processed in the Nicolet and then measured using the ASD.
Measurement: Bidirectional reflectance
First Column: X
Second Column: Y
X Units: Wavelength (micrometers)
Y Units: Reflectance (percentage)
First X Value: 0.35
Last X Value: 2.5
Number of X Values: 2151
Additional Information: vegetation.shrub.baccharis.pilularis.vswir.vh046.ucsb.asd.ancillary.txt

 0.3500	 5.0630
 0.3510	 5.0700
 0.3520	 4.9650
 0.3530	 4.9180
 0.3540	 5.0110
 0.3550	 4.9070
 0.3560	 4.9170
 0.3570	 4.9620
 0.3580	 4.8190
 0.3590	 4.8940
 0.3600	 4.9450
 0.3610	 4.8840
 0.3620	 4.9290
 0.3630	 4.8850
 0.3640	 4.8380
 0.3650	 4.8760
 0.3660	 4.8130
 0.3670	 4.8760
 0.3680	 4.9720
 0.3690	 4.8260
 0.3700	 4.7880
 0.3710	 4.7900
 0.3720	 4.7790
 0.3730	 4.8450
 0.3740	 4.8570
 0.3750	 4.8310
 0.3760	 4.8170
 0.3770	 4.7870
 0.3780	 4.8160
 0.3790	 4.8870
 0.3800	 4.9050
 0.3810	 4.8290
 0.3820	 4.7600
 0.3830	 4.7620
 0.3840	 4.7810
 0.3850	 4.7650
 0.3860	 4.7790
 0.3870	 4.8890
 0.3880	 4.8880
 0.3890	 4.8910
 0.3900	 4.9180
 0.3910	 4.8700
 0.3920	 4.8650
 0.3930	 4.8700
 0.3940	 4.8570
 0.3950	 4.8990
 0.3960	 4.8940
 0.3970	 4.8620
 0.3980	 4.8740
 0.3990	 4.8740
 0.4000	 4.8510
 0.4010	 4.8270
 0.4020	 4.8550
 0.4030	 4.8830
 0.4040	 4.8870
 0.4050	 4.8670
 0.4060	 4.8880
 0.4070	 4.8800
 0.4080	 4.8560
 0.4090	 4.8800
 0.4100	 4.8990
 0.4110	 4.9090
 0.4120	 4.9160
 0.4130	 4.9260
 0.4140	 4.9110
 0.4150	 4.9000
 0.4160	 4.9220
 0.4170	 4.9260
 0.4180	 4.9180
 0.4190	 4.9130
 0.4200	 4.9250
 0.4210	 4.9460
 0.4220	 4.9580
 0.4230	 4.9570
 0.4240	 4.9680
 0.4250	 4.9830
 0.4260	 4.9970
 0.4270	 5.0100
 0.4280	 5.0220
 0.4290	 5.0200
 0.4300	 5.0150
 0.4310	 5.0470
 0.4320	 5.0580
 0.4330	 5.0630
 0.4340	 5.0860
 0.4350	 5.1170
 0.4360	 5.1440
 0.4370	 5.1560
 0.4380	 5.1460
 0.4390	 5.1550
 0.4400	 5.1530
 0.4410	 5.1290
 0.4420	 5.1440
 0.4430	 5.1630
 0.4440	 5.1750
 0.4450	 5.1860
 0.4460	 5.2130
 0.4470	 5.2250
 0.4480	 5.2190
 0.4490	 5.2250
 0.4500	 5.2360
 0.4510	 5.2470
 0.4520	 5.2550
 0.4530	 5.2720
 0.4540	 5.2930
 0.4550	 5.3060
 0.4560	 5.2980
 0.4570	 5.3070
 0.4580	 5.3200
 0.4590	 5.3260
 0.4600	 5.3240
 0.4610	 5.3350
 0.4620	 5.3490
 0.4630	 5.3490
 0.4640	 5.3510
 0.4650	 5.3500
 0.4660	 5.3490
 0.4670	 5.3590
 0.4680	 5.3730
 0.4690	 5.3820
 0.4700	 5.3800
 0.4710	 5.3580
 0.4720	 5.3670
 0.4730	 5.3880
 0.4740	 5.3720
 0.4750	 5.3910
 0.4760	 5.4050
 0.4770	 5.3960
 0.4780	 5.3990
 0.4790	 5.3990
 0.4800	 5.4030
 0.4810	 5.4150
 0.4820	 5.4110
 0.4830	 5.4140
 0.4840	 5.4320
 0.4850	 5.4490
 0.4860	 5.4530
 0.4870	 5.4550
 0.4880	 5.4640
 0.4890	 5.4760
 0.4900	 5.4860
 0.4910	 5.4960
 0.4920	 5.5100
 0.4930	 5.5350
 0.4940	 5.5560
 0.4950	 5.5670
 0.4960	 5.5770
 0.4970	 5.6060
 0.4980	 5.6470
 0.4990	 5.6840
 0.5000	 5.7070
 0.5010	 5.7460
 0.5020	 5.8000
 0.5030	 5.8430
 0.5040	 5.8850
 0.5050	 5.9400
 0.5060	 6.0130
 0.5070	 6.0890
 0.5080	 6.1660
 0.5090	 6.2510
 0.5100	 6.3560
 0.5110	 6.4600
 0.5120	 6.5690
 0.5130	 6.6880
 0.5140	 6.8220
 0.5150	 6.9690
 0.5160	 7.1270
 0.5170	 7.2940
 0.5180	 7.4660
 0.5190	 7.6500
 0.5200	 7.8410
 0.5210	 8.0290
 0.5220	 8.2320
 0.5230	 8.4340
 0.5240	 8.6240
 0.5250	 8.8190
 0.5260	 9.0120
 0.5270	 9.1960
 0.5280	 9.3690
 0.5290	 9.5360
 0.5300	 9.6950
 0.5310	 9.8440
 0.5320	 9.9820
 0.5330	10.1080
 0.5340	10.2250
 0.5350	10.3330
 0.5360	10.4330
 0.5370	10.5260
 0.5380	10.6130
 0.5390	10.6900
 0.5400	10.7620
 0.5410	10.8370
 0.5420	10.9190
 0.5430	10.9890
 0.5440	11.0500
 0.5450	11.1050
 0.5460	11.1500
 0.5470	11.1720
 0.5480	11.1880
 0.5490	11.2110
 0.5500	11.2390
 0.5510	11.2570
 0.5520	11.2620
 0.5530	11.2580
 0.5540	11.2420
 0.5550	11.2150
 0.5560	11.1770
 0.5570	11.1280
 0.5580	11.0730
 0.5590	11.0070
 0.5600	10.9260
 0.5610	10.8380
 0.5620	10.7450
 0.5630	10.6450
 0.5640	10.5350
 0.5650	10.4210
 0.5660	10.3040
 0.5670	10.1840
 0.5680	10.0640
 0.5690	 9.9420
 0.5700	 9.8210
 0.5710	 9.7030
 0.5720	 9.5820
 0.5730	 9.4620
 0.5740	 9.3480
 0.5750	 9.2450
 0.5760	 9.1550
 0.5770	 9.0710
 0.5780	 8.9860
 0.5790	 8.9090
 0.5800	 8.8400
 0.5810	 8.7740
 0.5820	 8.7050
 0.5830	 8.6470
 0.5840	 8.5960
 0.5850	 8.5500
 0.5860	 8.5200
 0.5870	 8.4810
 0.5880	 8.4330
 0.5890	 8.3880
 0.5900	 8.3570
 0.5910	 8.3350
 0.5920	 8.3140
 0.5930	 8.2850
 0.5940	 8.2550
 0.5950	 8.2290
 0.5960	 8.2080
 0.5970	 8.1920
 0.5980	 8.1780
 0.5990	 8.1630
 0.6000	 8.1420
 0.6010	 8.1140
 0.6020	 8.0830
 0.6030	 8.0500
 0.6040	 8.0070
 0.6050	 7.9650
 0.6060	 7.9210
 0.6070	 7.8710
 0.6080	 7.8150
 0.6090	 7.7670
 0.6100	 7.7290
 0.6110	 7.6900
 0.6120	 7.6290
 0.6130	 7.5560
 0.6140	 7.4870
 0.6150	 7.4300
 0.6160	 7.3800
 0.6170	 7.3320
 0.6180	 7.2860
 0.6190	 7.2480
 0.6200	 7.2160
 0.6210	 7.1880
 0.6220	 7.1600
 0.6230	 7.1370
 0.6240	 7.1160
 0.6250	 7.0960
 0.6260	 7.0860
 0.6270	 7.0770
 0.6280	 7.0670
 0.6290	 7.0600
 0.6300	 7.0590
 0.6310	 7.0560
 0.6320	 7.0490
 0.6330	 7.0370
 0.6340	 7.0220
 0.6350	 7.0050
 0.6360	 6.9820
 0.6370	 6.9530
 0.6380	 6.9180
 0.6390	 6.8780
 0.6400	 6.8360
 0.6410	 6.7870
 0.6420	 6.7360
 0.6430	 6.6860
 0.6440	 6.6330
 0.6450	 6.5790
 0.6460	 6.5280
 0.6470	 6.4820
 0.6480	 6.4340
 0.6490	 6.3970
 0.6500	 6.3680
 0.6510	 6.3380
 0.6520	 6.3130
 0.6530	 6.2880
 0.6540	 6.2600
 0.6550	 6.2320
 0.6560	 6.2030
 0.6570	 6.1720
 0.6580	 6.1380
 0.6590	 6.1040
 0.6600	 6.0710
 0.6610	 6.0360
 0.6620	 6.0020
 0.6630	 5.9690
 0.6640	 5.9410
 0.6650	 5.9180
 0.6660	 5.8960
 0.6670	 5.8790
 0.6680	 5.8670
 0.6690	 5.8570
 0.6700	 5.8490
 0.6710	 5.8460
 0.6720	 5.8460
 0.6730	 5.8470
 0.6740	 5.8530
 0.6750	 5.8640
 0.6760	 5.8760
 0.6770	 5.8870
 0.6780	 5.8980
 0.6790	 5.9130
 0.6800	 5.9370
 0.6810	 5.9590
 0.6820	 5.9880
 0.6830	 6.0270
 0.6840	 6.0770
 0.6850	 6.1340
 0.6860	 6.2020
 0.6870	 6.2870
 0.6880	 6.3960
 0.6890	 6.5320
 0.6900	 6.7010
 0.6910	 6.9160
 0.6920	 7.1800
 0.6930	 7.4960
 0.6940	 7.8640
 0.6950	 8.2840
 0.6960	 8.7630
 0.6970	 9.3010
 0.6980	 9.8940
 0.6990	10.5290
 0.7000	11.2070
 0.7010	11.9280
 0.7020	12.6830
 0.7030	13.4690
 0.7040	14.2760
 0.7050	15.0940
 0.7060	15.9310
 0.7070	16.7770
 0.7080	17.6290
 0.7090	18.4890
 0.7100	19.3590
 0.7110	20.2360
 0.7120	21.1180
 0.7130	21.9990
 0.7140	22.8810
 0.7150	23.7640
 0.7160	24.6450
 0.7170	25.5240
 0.7180	26.3980
 0.7190	27.2650
 0.7200	28.1210
 0.7210	28.9660
 0.7220	29.7970
 0.7230	30.6130
 0.7240	31.4080
 0.7250	32.1830
 0.7260	32.9330
 0.7270	33.6560
 0.7280	34.3550
 0.7290	35.0260
 0.7300	35.6630
 0.7310	36.2650
 0.7320	36.8520
 0.7330	37.4080
 0.7340	37.9270
 0.7350	38.4200
 0.7360	38.8890
 0.7370	39.3310
 0.7380	39.7470
 0.7390	40.1410
 0.7400	40.5050
 0.7410	40.8450
 0.7420	41.1700
 0.7430	41.4740
 0.7440	41.7520
 0.7450	42.0060
 0.7460	42.2450
 0.7470	42.4700
 0.7480	42.6770
 0.7490	42.8610
 0.7500	43.0280
 0.7510	43.1890
 0.7520	43.3370
 0.7530	43.4650
 0.7540	43.5820
 0.7550	43.6870
 0.7560	43.7850
 0.7570	43.8890
 0.7580	43.9740
 0.7590	44.0480
 0.7600	44.1200
 0.7610	44.1840
 0.7620	44.2440
 0.7630	44.3000
 0.7640	44.3530
 0.7650	44.3970
 0.7660	44.4350
 0.7670	44.4720
 0.7680	44.5110
 0.7690	44.5470
 0.7700	44.5760
 0.7710	44.6010
 0.7720	44.6360
 0.7730	44.6570
 0.7740	44.6740
 0.7750	44.6990
 0.7760	44.7270
 0.7770	44.7470
 0.7780	44.7630
 0.7790	44.7820
 0.7800	44.8000
 0.7810	44.8220
 0.7820	44.8480
 0.7830	44.8660
 0.7840	44.8770
 0.7850	44.8890
 0.7860	44.9080
 0.7870	44.9250
 0.7880	44.9420
 0.7890	44.9560
 0.7900	44.9680
 0.7910	44.9800
 0.7920	44.9910
 0.7930	45.0010
 0.7940	45.0090
 0.7950	45.0190
 0.7960	45.0290
 0.7970	45.0370
 0.7980	45.0450
 0.7990	45.0510
 0.8000	45.0540
 0.8010	45.0560
 0.8020	45.0620
 0.8030	45.0640
 0.8040	45.0650
 0.8050	45.0690
 0.8060	45.0710
 0.8070	45.0690
 0.8080	45.0660
 0.8090	45.0670
 0.8100	45.0640
 0.8110	45.0590
 0.8120	45.0550
 0.8130	45.0480
 0.8140	45.0430
 0.8150	45.0380
 0.8160	45.0300
 0.8170	45.0250
 0.8180	45.0190
 0.8190	45.0120
 0.8200	45.0020
 0.8210	44.9950
 0.8220	44.9870
 0.8230	44.9780
 0.8240	44.9690
 0.8250	44.9540
 0.8260	44.9360
 0.8270	44.9210
 0.8280	44.9080
 0.8290	44.8970
 0.8300	44.8840
 0.8310	44.8660
 0.8320	44.8460
 0.8330	44.8300
 0.8340	44.8150
 0.8350	44.7980
 0.8360	44.7890
 0.8370	44.7840
 0.8380	44.7790
 0.8390	44.7740
 0.8400	44.7670
 0.8410	44.7640
 0.8420	44.7620
 0.8430	44.7580
 0.8440	44.7520
 0.8450	44.7520
 0.8460	44.7570
 0.8470	44.7520
 0.8480	44.7460
 0.8490	44.7460
 0.8500	44.7540
 0.8510	44.7510
 0.8520	44.7500
 0.8530	44.7490
 0.8540	44.7420
 0.8550	44.7410
 0.8560	44.7450
 0.8570	44.7510
 0.8580	44.7520
 0.8590	44.7530
 0.8600	44.7510
 0.8610	44.7490
 0.8620	44.7610
 0.8630	44.7640
 0.8640	44.7590
 0.8650	44.7570
 0.8660	44.7710
 0.8670	44.7730
 0.8680	44.7720
 0.8690	44.7790
 0.8700	44.7790
 0.8710	44.7820
 0.8720	44.7880
 0.8730	44.7950
 0.8740	44.7990
 0.8750	44.8000
 0.8760	44.8010
 0.8770	44.8090
 0.8780	44.8160
 0.8790	44.8220
 0.8800	44.8240
 0.8810	44.8220
 0.8820	44.8240
 0.8830	44.8280
 0.8840	44.8320
 0.8850	44.8400
 0.8860	44.8460
 0.8870	44.8500
 0.8880	44.8550
 0.8890	44.8600
 0.8900	44.8540
 0.8910	44.8500
 0.8920	44.8620
 0.8930	44.8700
 0.8940	44.8660
 0.8950	44.8590
 0.8960	44.8630
 0.8970	44.8670
 0.8980	44.8670
 0.8990	44.8660
 0.9000	44.8690
 0.9010	44.8680
 0.9020	44.8750
 0.9030	44.8880
 0.9040	44.8820
 0.9050	44.8780
 0.9060	44.8760
 0.9070	44.8750
 0.9080	44.8800
 0.9090	44.8740
 0.9100	44.8710
 0.9110	44.8790
 0.9120	44.8780
 0.9130	44.8770
 0.9140	44.8730
 0.9150	44.8620
 0.9160	44.8570
 0.9170	44.8510
 0.9180	44.8440
 0.9190	44.8340
 0.9200	44.8200
 0.9210	44.8060
 0.9220	44.7940
 0.9230	44.7810
 0.9240	44.7450
 0.9250	44.7110
 0.9260	44.6880
 0.9270	44.6700
 0.9280	44.6450
 0.9290	44.6050
 0.9300	44.5560
 0.9310	44.5130
 0.9320	44.4820
 0.9330	44.4390
 0.9340	44.3830
 0.9350	44.3430
 0.9360	44.2930
 0.9370	44.2380
 0.9380	44.1780
 0.9390	44.1050
 0.9400	44.0510
 0.9410	43.9930
 0.9420	43.9180
 0.9430	43.8540
 0.9440	43.7740
 0.9450	43.6880
 0.9460	43.6040
 0.9470	43.5100
 0.9480	43.4090
 0.9490	43.3040
 0.9500	43.1940
 0.9510	43.0630
 0.9520	42.9330
 0.9530	42.8040
 0.9540	42.6750
 0.9550	42.5530
 0.9560	42.4240
 0.9570	42.2970
 0.9580	42.1850
 0.9590	42.0750
 0.9600	41.9750
 0.9610	41.8920
 0.9620	41.8270
 0.9630	41.7670
 0.9640	41.6830
 0.9650	41.6130
 0.9660	41.5970
 0.9670	41.5670
 0.9680	41.5330
 0.9690	41.5060
 0.9700	41.4880
 0.9710	41.4640
 0.9720	41.4450
 0.9730	41.4340
 0.9740	41.4260
 0.9750	41.4180
 0.9760	41.4270
 0.9770	41.4380
 0.9780	41.4260
 0.9790	41.4260
 0.9800	41.4400
 0.9810	41.4580
 0.9820	41.4700
 0.9830	41.4870
 0.9840	41.4950
 0.9850	41.5060
 0.9860	41.5430
 0.9870	41.5920
 0.9880	41.6250
 0.9890	41.6520
 0.9900	41.6970
 0.9910	41.7390
 0.9920	41.7970
 0.9930	41.8550
 0.9940	41.9140
 0.9950	41.9720
 0.9960	42.0300
 0.9970	42.0890
 0.9980	42.1470
 0.9990	42.2050
 1.0000	42.2640
 1.0010	42.3220
 1.0020	42.3800
 1.0030	42.4390
 1.0040	42.4970
 1.0050	42.5550
 1.0060	42.6140
 1.0070	42.6720
 1.0080	42.7310
 1.0090	42.7890
 1.0100	42.7890
 1.0110	42.8380
 1.0120	42.8870
 1.0130	42.9320
 1.0140	42.9770
 1.0150	43.0200
 1.0160	43.0690
 1.0170	43.1150
 1.0180	43.1540
 1.0190	43.1940
 1.0200	43.2390
 1.0210	43.2800
 1.0220	43.3230
 1.0230	43.3640
 1.0240	43.4030
 1.0250	43.4450
 1.0260	43.4860
 1.0270	43.5260
 1.0280	43.5670
 1.0290	43.6060
 1.0300	43.6400
 1.0310	43.6770
 1.0320	43.7150
 1.0330	43.7530
 1.0340	43.7870
 1.0350	43.8190
 1.0360	43.8470
 1.0370	43.8750
 1.0380	43.9070
 1.0390	43.9420
 1.0400	43.9730
 1.0410	44.0060
 1.0420	44.0370
 1.0430	44.0630
 1.0440	44.0900
 1.0450	44.1170
 1.0460	44.1420
 1.0470	44.1660
 1.0480	44.1880
 1.0490	44.2080
 1.0500	44.2290
 1.0510	44.2490
 1.0520	44.2660
 1.0530	44.2850
 1.0540	44.3090
 1.0550	44.3240
 1.0560	44.3340
 1.0570	44.3460
 1.0580	44.3530
 1.0590	44.3640
 1.0600	44.3810
 1.0610	44.3920
 1.0620	44.4020
 1.0630	44.4100
 1.0640	44.4130
 1.0650	44.4180
 1.0660	44.4250
 1.0670	44.4290
 1.0680	44.4310
 1.0690	44.4340
 1.0700	44.4350
 1.0710	44.4320
 1.0720	44.4310
 1.0730	44.4320
 1.0740	44.4300
 1.0750	44.4260
 1.0760	44.4240
 1.0770	44.4240
 1.0780	44.4180
 1.0790	44.4060
 1.0800	44.3970
 1.0810	44.3860
 1.0820	44.3740
 1.0830	44.3620
 1.0840	44.3510
 1.0850	44.3390
 1.0860	44.3260
 1.0870	44.3110
 1.0880	44.3000
 1.0890	44.2840
 1.0900	44.2630
 1.0910	44.2440
 1.0920	44.2260
 1.0930	44.2060
 1.0940	44.1830
 1.0950	44.1610
 1.0960	44.1390
 1.0970	44.1150
 1.0980	44.0910
 1.0990	44.0670
 1.1000	44.0440
 1.1010	44.0190
 1.1020	43.9960
 1.1030	43.9710
 1.1040	43.9440
 1.1050	43.9160
 1.1060	43.8890
 1.1070	43.8640
 1.1080	43.8340
 1.1090	43.8060
 1.1100	43.7730
 1.1110	43.7370
 1.1120	43.7010
 1.1130	43.6640
 1.1140	43.6250
 1.1150	43.5870
 1.1160	43.5420
 1.1170	43.4940
 1.1180	43.4410
 1.1190	43.3820
 1.1200	43.3210
 1.1210	43.2580
 1.1220	43.1860
 1.1230	43.1090
 1.1240	43.0270
 1.1250	42.9310
 1.1260	42.8270
 1.1270	42.7130
 1.1280	42.5900
 1.1290	42.4540
 1.1300	42.3100
 1.1310	42.1520
 1.1320	41.9830
 1.1330	41.8010
 1.1340	41.6080
 1.1350	41.4010
 1.1360	41.1810
 1.1370	40.9490
 1.1380	40.7050
 1.1390	40.4540
 1.1400	40.1990
 1.1410	39.9430
 1.1420	39.6810
 1.1430	39.4180
 1.1440	39.1590
 1.1450	38.8940
 1.1460	38.6450
 1.1470	38.4000
 1.1480	38.1690
 1.1490	37.9450
 1.1500	37.7380
 1.1510	37.5400
 1.1520	37.3590
 1.1530	37.1910
 1.1540	37.0400
 1.1550	36.9050
 1.1560	36.7830
 1.1570	36.6760
 1.1580	36.5820
 1.1590	36.4970
 1.1600	36.4230
 1.1610	36.3590
 1.1620	36.3050
 1.1630	36.2590
 1.1640	36.2210
 1.1650	36.1870
 1.1660	36.1610
 1.1670	36.1380
 1.1680	36.1200
 1.1690	36.1040
 1.1700	36.0910
 1.1710	36.0790
 1.1720	36.0700
 1.1730	36.0600
 1.1740	36.0510
 1.1750	36.0420
 1.1760	36.0320
 1.1770	36.0210
 1.1780	36.0080
 1.1790	35.9940
 1.1800	35.9780
 1.1810	35.9610
 1.1820	35.9450
 1.1830	35.9280
 1.1840	35.9130
 1.1850	35.8970
 1.1860	35.8810
 1.1870	35.8680
 1.1880	35.8560
 1.1890	35.8440
 1.1900	35.8350
 1.1910	35.8290
 1.1920	35.8250
 1.1930	35.8230
 1.1940	35.8210
 1.1950	35.8210
 1.1960	35.8210
 1.1970	35.8230
 1.1980	35.8290
 1.1990	35.8400
 1.2000	35.8530
 1.2010	35.8700
 1.2020	35.8870
 1.2030	35.9040
 1.2040	35.9230
 1.2050	35.9440
 1.2060	35.9670
 1.2070	35.9940
 1.2080	36.0200
 1.2090	36.0490
 1.2100	36.0790
 1.2110	36.1100
 1.2120	36.1420
 1.2130	36.1770
 1.2140	36.2120
 1.2150	36.2490
 1.2160	36.2880
 1.2170	36.3270
 1.2180	36.3650
 1.2190	36.4060
 1.2200	36.4460
 1.2210	36.4870
 1.2220	36.5290
 1.2230	36.5680
 1.2240	36.6050
 1.2250	36.6430
 1.2260	36.6800
 1.2270	36.7170
 1.2280	36.7540
 1.2290	36.7900
 1.2300	36.8250
 1.2310	36.8590
 1.2320	36.8920
 1.2330	36.9250
 1.2340	36.9570
 1.2350	36.9900
 1.2360	37.0210
 1.2370	37.0500
 1.2380	37.0790
 1.2390	37.1060
 1.2400	37.1310
 1.2410	37.1580
 1.2420	37.1850
 1.2430	37.2100
 1.2440	37.2360
 1.2450	37.2610
 1.2460	37.2820
 1.2470	37.3050
 1.2480	37.3260
 1.2490	37.3450
 1.2500	37.3640
 1.2510	37.3800
 1.2520	37.3950
 1.2530	37.4080
 1.2540	37.4210
 1.2550	37.4330
 1.2560	37.4450
 1.2570	37.4570
 1.2580	37.4660
 1.2590	37.4730
 1.2600	37.4770
 1.2610	37.4800
 1.2620	37.4790
 1.2630	37.4790
 1.2640	37.4770
 1.2650	37.4720
 1.2660	37.4670
 1.2670	37.4600
 1.2680	37.4500
 1.2690	37.4400
 1.2700	37.4280
 1.2710	37.4140
 1.2720	37.3990
 1.2730	37.3830
 1.2740	37.3650
 1.2750	37.3450
 1.2760	37.3210
 1.2770	37.2950
 1.2780	37.2680
 1.2790	37.2410
 1.2800	37.2100
 1.2810	37.1770
 1.2820	37.1420
 1.2830	37.1030
 1.2840	37.0610
 1.2850	37.0180
 1.2860	36.9690
 1.2870	36.9180
 1.2880	36.8620
 1.2890	36.8060
 1.2900	36.7460
 1.2910	36.6820
 1.2920	36.6140
 1.2930	36.5430
 1.2940	36.4680
 1.2950	36.3920
 1.2960	36.3110
 1.2970	36.2260
 1.2980	36.1380
 1.2990	36.0460
 1.3000	35.9520
 1.3010	35.8520
 1.3020	35.7490
 1.3030	35.6420
 1.3040	35.5280
 1.3050	35.4130
 1.3060	35.2930
 1.3070	35.1700
 1.3080	35.0440
 1.3090	34.9140
 1.3100	34.7810
 1.3110	34.6450
 1.3120	34.5040
 1.3130	34.3580
 1.3140	34.2060
 1.3150	34.0450
 1.3160	33.8830
 1.3170	33.7160
 1.3180	33.5460
 1.3190	33.3740
 1.3200	33.2000
 1.3210	33.0220
 1.3220	32.8390
 1.3230	32.6540
 1.3240	32.4640
 1.3250	32.2740
 1.3260	32.0810
 1.3270	31.8850
 1.3280	31.6870
 1.3290	31.4860
 1.3300	31.2850
 1.3310	31.0840
 1.3320	30.8820
 1.3330	30.6810
 1.3340	30.4790
 1.3350	30.2750
 1.3360	30.0740
 1.3370	29.8720
 1.3380	29.6740
 1.3390	29.4800
 1.3400	29.2840
 1.3410	29.0930
 1.3420	28.9040
 1.3430	28.7150
 1.3440	28.5320
 1.3450	28.3500
 1.3460	28.1710
 1.3470	27.9950
 1.3480	27.8220
 1.3490	27.6510
 1.3500	27.4830
 1.3510	27.3170
 1.3520	27.1520
 1.3530	26.9890
 1.3540	26.8250
 1.3550	26.6620
 1.3560	26.4990
 1.3570	26.3340
 1.3580	26.1710
 1.3590	26.0050
 1.3600	25.8360
 1.3610	25.6640
 1.3620	25.4840
 1.3630	25.2990
 1.3640	25.1080
 1.3650	24.9080
 1.3660	24.7020
 1.3670	24.4860
 1.3680	24.2570
 1.3690	24.0180
 1.3700	23.7630
 1.3710	23.4960
 1.3720	23.2150
 1.3730	22.9170
 1.3740	22.6070
 1.3750	22.2780
 1.3760	21.9320
 1.3770	21.5680
 1.3780	21.1840
 1.3790	20.7840
 1.3800	20.3700
 1.3810	19.9370
 1.3820	19.4970
 1.3830	19.0450
 1.3840	18.5870
 1.3850	18.1170
 1.3860	17.6490
 1.3870	17.1720
 1.3880	16.7040
 1.3890	16.2380
 1.3900	15.7760
 1.3910	15.3260
 1.3920	14.8820
 1.3930	14.4480
 1.3940	14.0280
 1.3950	13.6190
 1.3960	13.2270
 1.3970	12.8530
 1.3980	12.4970
 1.3990	12.1620
 1.4000	11.8440
 1.4010	11.5450
 1.4020	11.2660
 1.4030	11.0040
 1.4040	10.7610
 1.4050	10.5350
 1.4060	10.3240
 1.4070	10.1310
 1.4080	 9.9520
 1.4090	 9.7870
 1.4100	 9.6370
 1.4110	 9.5000
 1.4120	 9.3730
 1.4130	 9.2580
 1.4140	 9.1530
 1.4150	 9.0580
 1.4160	 8.9710
 1.4170	 8.8920
 1.4180	 8.8200
 1.4190	 8.7540
 1.4200	 8.6940
 1.4210	 8.6400
 1.4220	 8.5900
 1.4230	 8.5460
 1.4240	 8.5070
 1.4250	 8.4700
 1.4260	 8.4390
 1.4270	 8.4100
 1.4280	 8.3830
 1.4290	 8.3600
 1.4300	 8.3400
 1.4310	 8.3220
 1.4320	 8.3070
 1.4330	 8.2940
 1.4340	 8.2840
 1.4350	 8.2750
 1.4360	 8.2670
 1.4370	 8.2620
 1.4380	 8.2570
 1.4390	 8.2540
 1.4400	 8.2530
 1.4410	 8.2530
 1.4420	 8.2540
 1.4430	 8.2560
 1.4440	 8.2590
 1.4450	 8.2630
 1.4460	 8.2680
 1.4470	 8.2740
 1.4480	 8.2800
 1.4490	 8.2860
 1.4500	 8.2920
 1.4510	 8.3000
 1.4520	 8.3090
 1.4530	 8.3190
 1.4540	 8.3290
 1.4550	 8.3410
 1.4560	 8.3520
 1.4570	 8.3650
 1.4580	 8.3800
 1.4590	 8.3960
 1.4600	 8.4140
 1.4610	 8.4330
 1.4620	 8.4540
 1.4630	 8.4780
 1.4640	 8.5040
 1.4650	 8.5310
 1.4660	 8.5610
 1.4670	 8.5920
 1.4680	 8.6260
 1.4690	 8.6610
 1.4700	 8.7000
 1.4710	 8.7420
 1.4720	 8.7850
 1.4730	 8.8290
 1.4740	 8.8750
 1.4750	 8.9220
 1.4760	 8.9710
 1.4770	 9.0210
 1.4780	 9.0740
 1.4790	 9.1290
 1.4800	 9.1850
 1.4810	 9.2420
 1.4820	 9.3000
 1.4830	 9.3580
 1.4840	 9.4170
 1.4850	 9.4760
 1.4860	 9.5370
 1.4870	 9.6000
 1.4880	 9.6630
 1.4890	 9.7260
 1.4900	 9.7910
 1.4910	 9.8570
 1.4920	 9.9230
 1.4930	 9.9910
 1.4940	10.0600
 1.4950	10.1270
 1.4960	10.1960
 1.4970	10.2660
 1.4980	10.3360
 1.4990	10.4080
 1.5000	10.4800
 1.5010	10.5520
 1.5020	10.6250
 1.5030	10.6980
 1.5040	10.7710
 1.5050	10.8450
 1.5060	10.9190
 1.5070	10.9940
 1.5080	11.0690
 1.5090	11.1450
 1.5100	11.2210
 1.5110	11.2960
 1.5120	11.3730
 1.5130	11.4500
 1.5140	11.5270
 1.5150	11.6040
 1.5160	11.6810
 1.5170	11.7580
 1.5180	11.8350
 1.5190	11.9120
 1.5200	11.9900
 1.5210	12.0660
 1.5220	12.1430
 1.5230	12.2220
 1.5240	12.3000
 1.5250	12.3770
 1.5260	12.4540
 1.5270	12.5310
 1.5280	12.6080
 1.5290	12.6840
 1.5300	12.7600
 1.5310	12.8370
 1.5320	12.9120
 1.5330	12.9890
 1.5340	13.0660
 1.5350	13.1420
 1.5360	13.2190
 1.5370	13.2950
 1.5380	13.3710
 1.5390	13.4480
 1.5400	13.5230
 1.5410	13.5980
 1.5420	13.6740
 1.5430	13.7490
 1.5440	13.8250
 1.5450	13.8970
 1.5460	13.9700
 1.5470	14.0430
 1.5480	14.1160
 1.5490	14.1910
 1.5500	14.2650
 1.5510	14.3380
 1.5520	14.4100
 1.5530	14.4800
 1.5540	14.5500
 1.5550	14.6200
 1.5560	14.6880
 1.5570	14.7580
 1.5580	14.8270
 1.5590	14.8960
 1.5600	14.9670
 1.5610	15.0360
 1.5620	15.1040
 1.5630	15.1720
 1.5640	15.2390
 1.5650	15.3050
 1.5660	15.3700
 1.5670	15.4340
 1.5680	15.4980
 1.5690	15.5600
 1.5700	15.6240
 1.5710	15.6880
 1.5720	15.7500
 1.5730	15.8140
 1.5740	15.8760
 1.5750	15.9380
 1.5760	15.9990
 1.5770	16.0580
 1.5780	16.1180
 1.5790	16.1780
 1.5800	16.2360
 1.5810	16.2960
 1.5820	16.3550
 1.5830	16.4140
 1.5840	16.4730
 1.5850	16.5300
 1.5860	16.5860
 1.5870	16.6430
 1.5880	16.6980
 1.5890	16.7540
 1.5900	16.8100
 1.5910	16.8650
 1.5920	16.9210
 1.5930	16.9750
 1.5940	17.0280
 1.5950	17.0830
 1.5960	17.1370
 1.5970	17.1900
 1.5980	17.2430
 1.5990	17.2950
 1.6000	17.3460
 1.6010	17.3960
 1.6020	17.4470
 1.6030	17.4950
 1.6040	17.5440
 1.6050	17.5940
 1.6060	17.6430
 1.6070	17.6920
 1.6080	17.7400
 1.6090	17.7860
 1.6100	17.8310
 1.6110	17.8760
 1.6120	17.9210
 1.6130	17.9640
 1.6140	18.0080
 1.6150	18.0510
 1.6160	18.0950
 1.6170	18.1370
 1.6180	18.1780
 1.6190	18.2190
 1.6200	18.2590
 1.6210	18.2980
 1.6220	18.3390
 1.6230	18.3780
 1.6240	18.4150
 1.6250	18.4520
 1.6260	18.4880
 1.6270	18.5230
 1.6280	18.5560
 1.6290	18.5890
 1.6300	18.6210
 1.6310	18.6520
 1.6320	18.6820
 1.6330	18.7120
 1.6340	18.7400
 1.6350	18.7660
 1.6360	18.7920
 1.6370	18.8160
 1.6380	18.8390
 1.6390	18.8600
 1.6400	18.8800
 1.6410	18.8980
 1.6420	18.9140
 1.6430	18.9290
 1.6440	18.9430
 1.6450	18.9550
 1.6460	18.9660
 1.6470	18.9730
 1.6480	18.9780
 1.6490	18.9830
 1.6500	18.9840
 1.6510	18.9840
 1.6520	18.9830
 1.6530	18.9800
 1.6540	18.9760
 1.6550	18.9740
 1.6560	18.9710
 1.6570	18.9660
 1.6580	18.9630
 1.6590	18.9590
 1.6600	18.9560
 1.6610	18.9540
 1.6620	18.9530
 1.6630	18.9520
 1.6640	18.9530
 1.6650	18.9540
 1.6660	18.9570
 1.6670	18.9610
 1.6680	18.9640
 1.6690	18.9680
 1.6700	18.9730
 1.6710	18.9770
 1.6720	18.9800
 1.6730	18.9840
 1.6740	18.9870
 1.6750	18.9870
 1.6760	18.9860
 1.6770	18.9840
 1.6780	18.9810
 1.6790	18.9750
 1.6800	18.9680
 1.6810	18.9610
 1.6820	18.9520
 1.6830	18.9410
 1.6840	18.9290
 1.6850	18.9130
 1.6860	18.8960
 1.6870	18.8790
 1.6880	18.8610
 1.6890	18.8430
 1.6900	18.8220
 1.6910	18.8000
 1.6920	18.7770
 1.6930	18.7520
 1.6940	18.7260
 1.6950	18.6990
 1.6960	18.6700
 1.6970	18.6390
 1.6980	18.6080
 1.6990	18.5750
 1.7000	18.5410
 1.7010	18.5070
 1.7020	18.4710
 1.7030	18.4340
 1.7040	18.3970
 1.7050	18.3580
 1.7060	18.3190
 1.7070	18.2800
 1.7080	18.2400
 1.7090	18.1980
 1.7100	18.1560
 1.7110	18.1130
 1.7120	18.0710
 1.7130	18.0270
 1.7140	17.9820
 1.7150	17.9380
 1.7160	17.8920
 1.7170	17.8460
 1.7180	17.7990
 1.7190	17.7530
 1.7200	17.7060
 1.7210	17.6600
 1.7220	17.6120
 1.7230	17.5660
 1.7240	17.5200
 1.7250	17.4740
 1.7260	17.4290
 1.7270	17.3850
 1.7280	17.3410
 1.7290	17.2980
 1.7300	17.2540
 1.7310	17.2120
 1.7320	17.1720
 1.7330	17.1310
 1.7340	17.0920
 1.7350	17.0500
 1.7360	17.0070
 1.7370	16.9640
 1.7380	16.9200
 1.7390	16.8760
 1.7400	16.8320
 1.7410	16.7860
 1.7420	16.7380
 1.7430	16.6900
 1.7440	16.6410
 1.7450	16.5910
 1.7460	16.5410
 1.7470	16.4900
 1.7480	16.4380
 1.7490	16.3870
 1.7500	16.3360
 1.7510	16.2840
 1.7520	16.2300
 1.7530	16.1790
 1.7540	16.1300
 1.7550	16.0800
 1.7560	16.0300
 1.7570	15.9780
 1.7580	15.9280
 1.7590	15.8800
 1.7600	15.8320
 1.7610	15.7830
 1.7620	15.7370
 1.7630	15.6920
 1.7640	15.6490
 1.7650	15.6090
 1.7660	15.5690
 1.7670	15.5300
 1.7680	15.4910
 1.7690	15.4510
 1.7700	15.4130
 1.7710	15.3760
 1.7720	15.3410
 1.7730	15.3090
 1.7740	15.2760
 1.7750	15.2440
 1.7760	15.2130
 1.7770	15.1810
 1.7780	15.1530
 1.7790	15.1280
 1.7800	15.1030
 1.7810	15.0800
 1.7820	15.0580
 1.7830	15.0370
 1.7840	15.0170
 1.7850	14.9990
 1.7860	14.9800
 1.7870	14.9610
 1.7880	14.9440
 1.7890	14.9290
 1.7900	14.9180
 1.7910	14.9080
 1.7920	14.9010
 1.7930	14.8940
 1.7940	14.8860
 1.7950	14.8810
 1.7960	14.8770
 1.7970	14.8750
 1.7980	14.8740
 1.7990	14.8720
 1.8000	14.8700
 1.8010	14.8690
 1.8020	14.8690
 1.8030	14.8690
 1.8040	14.8700
 1.8050	14.8710
 1.8060	14.8710
 1.8070	14.8720
 1.8080	14.8740
 1.8090	14.8740
 1.8100	14.8740
 1.8110	14.8750
 1.8120	14.8740
 1.8130	14.8740
 1.8140	14.8760
 1.8150	14.8760
 1.8160	14.8760
 1.8170	14.8720
 1.8180	14.8670
 1.8190	14.8620
 1.8200	14.8570
 1.8210	14.8560
 1.8220	14.8490
 1.8230	14.8360
 1.8240	14.8250
 1.8250	14.8150
 1.8260	14.8020
 1.8270	14.7900
 1.8280	14.7770
 1.8290	14.7650
 1.8300	14.7520
 1.8310	14.7400
 1.8320	14.7270
 1.8330	14.7150
 1.8340	14.7030
 1.8350	14.7030
 1.8360	14.6650
 1.8370	14.6250
 1.8380	14.5800
 1.8390	14.5320
 1.8400	14.4800
 1.8410	14.4240
 1.8420	14.3640
 1.8430	14.3010
 1.8440	14.2320
 1.8450	14.1590
 1.8460	14.0810
 1.8470	13.9960
 1.8480	13.9070
 1.8490	13.8110
 1.8500	13.7050
 1.8510	13.5930
 1.8520	13.4720
 1.8530	13.3410
 1.8540	13.2100
 1.8550	13.0710
 1.8560	12.9200
 1.8570	12.7660
 1.8580	12.6000
 1.8590	12.4280
 1.8600	12.2460
 1.8610	12.0620
 1.8620	11.8690
 1.8630	11.6710
 1.8640	11.4670
 1.8650	11.2540
 1.8660	11.0380
 1.8670	10.8130
 1.8680	10.5820
 1.8690	10.3460
 1.8700	10.1080
 1.8710	 9.8650
 1.8720	 9.6220
 1.8730	 9.3820
 1.8740	 9.1420
 1.8750	 8.9070
 1.8760	 8.6760
 1.8770	 8.4500
 1.8780	 8.2310
 1.8790	 8.0190
 1.8800	 7.8170
 1.8810	 7.6210
 1.8820	 7.4340
 1.8830	 7.2540
 1.8840	 7.0850
 1.8850	 6.9230
 1.8860	 6.7690
 1.8870	 6.6260
 1.8880	 6.4930
 1.8890	 6.3690
 1.8900	 6.2580
 1.8910	 6.1530
 1.8920	 6.0570
 1.8930	 5.9690
 1.8940	 5.8890
 1.8950	 5.8190
 1.8960	 5.7540
 1.8970	 5.6980
 1.8980	 5.6490
 1.8990	 5.6020
 1.9000	 5.5610
 1.9010	 5.5280
 1.9020	 5.4940
 1.9030	 5.4630
 1.9040	 5.4360
 1.9050	 5.4110
 1.9060	 5.3900
 1.9070	 5.3720
 1.9080	 5.3580
 1.9090	 5.3480
 1.9100	 5.3340
 1.9110	 5.3220
 1.9120	 5.3110
 1.9130	 5.3020
 1.9140	 5.2920
 1.9150	 5.2870
 1.9160	 5.2810
 1.9170	 5.2750
 1.9180	 5.2700
 1.9190	 5.2640
 1.9200	 5.2610
 1.9210	 5.2580
 1.9220	 5.2560
 1.9230	 5.2560
 1.9240	 5.2550
 1.9250	 5.2550
 1.9260	 5.2550
 1.9270	 5.2540
 1.9280	 5.2550
 1.9290	 5.2550
 1.9300	 5.2550
 1.9310	 5.2580
 1.9320	 5.2590
 1.9330	 5.2620
 1.9340	 5.2680
 1.9350	 5.2730
 1.9360	 5.2790
 1.9370	 5.2840
 1.9380	 5.2900
 1.9390	 5.2920
 1.9400	 5.2940
 1.9410	 5.2980
 1.9420	 5.3020
 1.9430	 5.3100
 1.9440	 5.3170
 1.9450	 5.3250
 1.9460	 5.3320
 1.9470	 5.3360
 1.9480	 5.3420
 1.9490	 5.3470
 1.9500	 5.3530
 1.9510	 5.3590
 1.9520	 5.3690
 1.9530	 5.3800
 1.9540	 5.3880
 1.9550	 5.3950
 1.9560	 5.4000
 1.9570	 5.4060
 1.9580	 5.4100
 1.9590	 5.4170
 1.9600	 5.4250
 1.9610	 5.4350
 1.9620	 5.4460
 1.9630	 5.4580
 1.9640	 5.4690
 1.9650	 5.4810
 1.9660	 5.4920
 1.9670	 5.5020
 1.9680	 5.5130
 1.9690	 5.5260
 1.9700	 5.5370
 1.9710	 5.5480
 1.9720	 5.5590
 1.9730	 5.5700
 1.9740	 5.5810
 1.9750	 5.5920
 1.9760	 5.6040
 1.9770	 5.6160
 1.9780	 5.6270
 1.9790	 5.6380
 1.9800	 5.6500
 1.9810	 5.6620
 1.9820	 5.6730
 1.9830	 5.6860
 1.9840	 5.6990
 1.9850	 5.7130
 1.9860	 5.7300
 1.9870	 5.7460
 1.9880	 5.7620
 1.9890	 5.7780
 1.9900	 5.7930
 1.9910	 5.8090
 1.9920	 5.8240
 1.9930	 5.8390
 1.9940	 5.8540
 1.9950	 5.8700
 1.9960	 5.8860
 1.9970	 5.9050
 1.9980	 5.9220
 1.9990	 5.9400
 2.0000	 5.9570
 2.0010	 5.9750
 2.0020	 5.9910
 2.0030	 6.0080
 2.0040	 6.0270
 2.0050	 6.0460
 2.0060	 6.0670
 2.0070	 6.0870
 2.0080	 6.1070
 2.0090	 6.1240
 2.0100	 6.1380
 2.0110	 6.1530
 2.0120	 6.1670
 2.0130	 6.1810
 2.0140	 6.2000
 2.0150	 6.2200
 2.0160	 6.2400
 2.0170	 6.2590
 2.0180	 6.2770
 2.0190	 6.2910
 2.0200	 6.3090
 2.0210	 6.3280
 2.0220	 6.3460
 2.0230	 6.3680
 2.0240	 6.3860
 2.0250	 6.4000
 2.0260	 6.4150
 2.0270	 6.4290
 2.0280	 6.4430
 2.0290	 6.4600
 2.0300	 6.4760
 2.0310	 6.4930
 2.0320	 6.5110
 2.0330	 6.5280
 2.0340	 6.5470
 2.0350	 6.5640
 2.0360	 6.5800
 2.0370	 6.5960
 2.0380	 6.6100
 2.0390	 6.6250
 2.0400	 6.6420
 2.0410	 6.6590
 2.0420	 6.6770
 2.0430	 6.6940
 2.0440	 6.7100
 2.0450	 6.7280
 2.0460	 6.7430
 2.0470	 6.7570
 2.0480	 6.7720
 2.0490	 6.7840
 2.0500	 6.7990
 2.0510	 6.8140
 2.0520	 6.8290
 2.0530	 6.8460
 2.0540	 6.8610
 2.0550	 6.8740
 2.0560	 6.8900
 2.0570	 6.9060
 2.0580	 6.9210
 2.0590	 6.9370
 2.0600	 6.9530
 2.0610	 6.9690
 2.0620	 6.9840
 2.0630	 7.0000
 2.0640	 7.0170
 2.0650	 7.0340
 2.0660	 7.0520
 2.0670	 7.0680
 2.0680	 7.0840
 2.0690	 7.1000
 2.0700	 7.1140
 2.0710	 7.1300
 2.0720	 7.1490
 2.0730	 7.1670
 2.0740	 7.1860
 2.0750	 7.2070
 2.0760	 7.2240
 2.0770	 7.2380
 2.0780	 7.2550
 2.0790	 7.2730
 2.0800	 7.2900
 2.0810	 7.3080
 2.0820	 7.3240
 2.0830	 7.3370
 2.0840	 7.3530
 2.0850	 7.3700
 2.0860	 7.3880
 2.0870	 7.4040
 2.0880	 7.4250
 2.0890	 7.4450
 2.0900	 7.4630
 2.0910	 7.4810
 2.0920	 7.5010
 2.0930	 7.5180
 2.0940	 7.5320
 2.0950	 7.5490
 2.0960	 7.5640
 2.0970	 7.5810
 2.0980	 7.5980
 2.0990	 7.6140
 2.1000	 7.6310
 2.1010	 7.6480
 2.1020	 7.6630
 2.1030	 7.6790
 2.1040	 7.6940
 2.1050	 7.7120
 2.1060	 7.7290
 2.1070	 7.7460
 2.1080	 7.7640
 2.1090	 7.7820
 2.1100	 7.7990
 2.1110	 7.8170
 2.1120	 7.8330
 2.1130	 7.8460
 2.1140	 7.8620
 2.1150	 7.8800
 2.1160	 7.8960
 2.1170	 7.9100
 2.1180	 7.9260
 2.1190	 7.9420
 2.1200	 7.9580
 2.1210	 7.9770
 2.1220	 7.9950
 2.1230	 8.0100
 2.1240	 8.0220
 2.1250	 8.0360
 2.1260	 8.0490
 2.1270	 8.0640
 2.1280	 8.0780
 2.1290	 8.0930
 2.1300	 8.1100
 2.1310	 8.1240
 2.1320	 8.1360
 2.1330	 8.1490
 2.1340	 8.1590
 2.1350	 8.1710
 2.1360	 8.1860
 2.1370	 8.1990
 2.1380	 8.2100
 2.1390	 8.2210
 2.1400	 8.2310
 2.1410	 8.2430
 2.1420	 8.2550
 2.1430	 8.2680
 2.1440	 8.2800
 2.1450	 8.2920
 2.1460	 8.3040
 2.1470	 8.3140
 2.1480	 8.3250
 2.1490	 8.3360
 2.1500	 8.3490
 2.1510	 8.3650
 2.1520	 8.3770
 2.1530	 8.3900
 2.1540	 8.4000
 2.1550	 8.4030
 2.1560	 8.4120
 2.1570	 8.4250
 2.1580	 8.4360
 2.1590	 8.4480
 2.1600	 8.4620
 2.1610	 8.4720
 2.1620	 8.4810
 2.1630	 8.4900
 2.1640	 8.4990
 2.1650	 8.5090
 2.1660	 8.5190
 2.1670	 8.5280
 2.1680	 8.5390
 2.1690	 8.5470
 2.1700	 8.5530
 2.1710	 8.5600
 2.1720	 8.5690
 2.1730	 8.5760
 2.1740	 8.5820
 2.1750	 8.5900
 2.1760	 8.5980
 2.1770	 8.6070
 2.1780	 8.6190
 2.1790	 8.6290
 2.1800	 8.6390
 2.1810	 8.6480
 2.1820	 8.6570
 2.1830	 8.6650
 2.1840	 8.6740
 2.1850	 8.6820
 2.1860	 8.6900
 2.1870	 8.6970
 2.1880	 8.7070
 2.1890	 8.7190
 2.1900	 8.7300
 2.1910	 8.7430
 2.1920	 8.7530
 2.1930	 8.7610
 2.1940	 8.7700
 2.1950	 8.7760
 2.1960	 8.7840
 2.1970	 8.7910
 2.1980	 8.7990
 2.1990	 8.8090
 2.2000	 8.8170
 2.2010	 8.8270
 2.2020	 8.8350
 2.2030	 8.8390
 2.2040	 8.8460
 2.2050	 8.8540
 2.2060	 8.8610
 2.2070	 8.8670
 2.2080	 8.8740
 2.2090	 8.8780
 2.2100	 8.8770
 2.2110	 8.8810
 2.2120	 8.8860
 2.2130	 8.8910
 2.2140	 8.8980
 2.2150	 8.9030
 2.2160	 8.9060
 2.2170	 8.9080
 2.2180	 8.9080
 2.2190	 8.9090
 2.2200	 8.9100
 2.2210	 8.9100
 2.2220	 8.9080
 2.2230	 8.9060
 2.2240	 8.9010
 2.2250	 8.8970
 2.2260	 8.8950
 2.2270	 8.8910
 2.2280	 8.8840
 2.2290	 8.8770
 2.2300	 8.8680
 2.2310	 8.8590
 2.2320	 8.8470
 2.2330	 8.8330
 2.2340	 8.8200
 2.2350	 8.8050
 2.2360	 8.7900
 2.2370	 8.7790
 2.2380	 8.7610
 2.2390	 8.7400
 2.2400	 8.7200
 2.2410	 8.6960
 2.2420	 8.6770
 2.2430	 8.6610
 2.2440	 8.6420
 2.2450	 8.6240
 2.2460	 8.6040
 2.2470	 8.5820
 2.2480	 8.5590
 2.2490	 8.5330
 2.2500	 8.5100
 2.2510	 8.4880
 2.2520	 8.4660
 2.2530	 8.4500
 2.2540	 8.4280
 2.2550	 8.4030
 2.2560	 8.3800
 2.2570	 8.3550
 2.2580	 8.3300
 2.2590	 8.3050
 2.2600	 8.2820
 2.2610	 8.2580
 2.2620	 8.2340
 2.2630	 8.2140
 2.2640	 8.1940
 2.2650	 8.1690
 2.2660	 8.1430
 2.2670	 8.1180
 2.2680	 8.0910
 2.2690	 8.0670
 2.2700	 8.0450
 2.2710	 8.0240
 2.2720	 8.0040
 2.2730	 7.9830
 2.2740	 7.9600
 2.2750	 7.9400
 2.2760	 7.9210
 2.2770	 7.9010
 2.2780	 7.8850
 2.2790	 7.8670
 2.2800	 7.8460
 2.2810	 7.8270
 2.2820	 7.8100
 2.2830	 7.7920
 2.2840	 7.7750
 2.2850	 7.7550
 2.2860	 7.7320
 2.2870	 7.7100
 2.2880	 7.6880
 2.2890	 7.6670
 2.2900	 7.6500
 2.2910	 7.6300
 2.2920	 7.6080
 2.2930	 7.5870
 2.2940	 7.5650
 2.2950	 7.5440
 2.2960	 7.5250
 2.2970	 7.5040
 2.2980	 7.4830
 2.2990	 7.4580
 2.3000	 7.4420
 2.3010	 7.4250
 2.3020	 7.4030
 2.3030	 7.3850
 2.3040	 7.3610
 2.3050	 7.3370
 2.3060	 7.3220
 2.3070	 7.3080
 2.3080	 7.2930
 2.3090	 7.2820
 2.3100	 7.2680
 2.3110	 7.2500
 2.3120	 7.2340
 2.3130	 7.2170
 2.3140	 7.2050
 2.3150	 7.1960
 2.3160	 7.1890
 2.3170	 7.1870
 2.3180	 7.1800
 2.3190	 7.1710
 2.3200	 7.1570
 2.3210	 7.1390
 2.3220	 7.1190
 2.3230	 7.0910
 2.3240	 7.0740
 2.3250	 7.0590
 2.3260	 7.0460
 2.3270	 7.0450
 2.3280	 7.0310
 2.3290	 7.0110
 2.3300	 6.9960
 2.3310	 6.9750
 2.3320	 6.9600
 2.3330	 6.9550
 2.3340	 6.9400
 2.3350	 6.9240
 2.3360	 6.9050
 2.3370	 6.8770
 2.3380	 6.8540
 2.3390	 6.8280
 2.3400	 6.8100
 2.3410	 6.7970
 2.3420	 6.7840
 2.3430	 6.7750
 2.3440	 6.7640
 2.3450	 6.7510
 2.3460	 6.7390
 2.3470	 6.7280
 2.3480	 6.7150
 2.3490	 6.6980
 2.3500	 6.6830
 2.3510	 6.6650
 2.3520	 6.6520
 2.3530	 6.6410
 2.3540	 6.6350
 2.3550	 6.6290
 2.3560	 6.6200
 2.3570	 6.6160
 2.3580	 6.6080
 2.3590	 6.5950
 2.3600	 6.5860
 2.3610	 6.5730
 2.3620	 6.5520
 2.3630	 6.5420
 2.3640	 6.5320
 2.3650	 6.5150
 2.3660	 6.5080
 2.3670	 6.4960
 2.3680	 6.4800
 2.3690	 6.4720
 2.3700	 6.4550
 2.3710	 6.4350
 2.3720	 6.4170
 2.3730	 6.4000
 2.3740	 6.3880
 2.3750	 6.3820
 2.3760	 6.3740
 2.3770	 6.3630
 2.3780	 6.3530
 2.3790	 6.3420
 2.3800	 6.3310
 2.3810	 6.3200
 2.3820	 6.3060
 2.3830	 6.2930
 2.3840	 6.2750
 2.3850	 6.2580
 2.3860	 6.2470
 2.3870	 6.2350
 2.3880	 6.2280
 2.3890	 6.2220
 2.3900	 6.2060
 2.3910	 6.1940
 2.3920	 6.1810
 2.3930	 6.1800
 2.3940	 6.1810
 2.3950	 6.1690
 2.3960	 6.1610
 2.3970	 6.1420
 2.3980	 6.1220
 2.3990	 6.1150
 2.4000	 6.1000
 2.4010	 6.0860
 2.4020	 6.0760
 2.4030	 6.0640
 2.4040	 6.0640
 2.4050	 6.0610
 2.4060	 6.0500
 2.4070	 6.0380
 2.4080	 6.0200
 2.4090	 6.0120
 2.4100	 6.0030
 2.4110	 5.9940
 2.4120	 5.9850
 2.4130	 5.9600
 2.4140	 5.9400
 2.4150	 5.9290
 2.4160	 5.9130
 2.4170	 5.9060
 2.4180	 5.8950
 2.4190	 5.8730
 2.4200	 5.8600
 2.4210	 5.8480
 2.4220	 5.8390
 2.4230	 5.8370
 2.4240	 5.8300
 2.4250	 5.8280
 2.4260	 5.8170
 2.4270	 5.7900
 2.4280	 5.7760
 2.4290	 5.7690
 2.4300	 5.7580
 2.4310	 5.7480
 2.4320	 5.7340
 2.4330	 5.7150
 2.4340	 5.6940
 2.4350	 5.6910
 2.4360	 5.6920
 2.4370	 5.6800
 2.4380	 5.6630
 2.4390	 5.6430
 2.4400	 5.6300
 2.4410	 5.6170
 2.4420	 5.6070
 2.4430	 5.6080
 2.4440	 5.5910
 2.4450	 5.5760
 2.4460	 5.5790
 2.4470	 5.5740
 2.4480	 5.5550
 2.4490	 5.5330
 2.4500	 5.5110
 2.4510	 5.4900
 2.4520	 5.4840
 2.4530	 5.4790
 2.4540	 5.4770
 2.4550	 5.4880
 2.4560	 5.4890
 2.4570	 5.4840
 2.4580	 5.4720
 2.4590	 5.4330
 2.4600	 5.3910
 2.4610	 5.3800
 2.4620	 5.3900
 2.4630	 5.3950
 2.4640	 5.4070
 2.4650	 5.4050
 2.4660	 5.3710
 2.4670	 5.3480
 2.4680	 5.3290
 2.4690	 5.3090
 2.4700	 5.2980
 2.4710	 5.2910
 2.4720	 5.2950
 2.4730	 5.3200
 2.4740	 5.3220
 2.4750	 5.3260
 2.4760	 5.3070
 2.4770	 5.2480
 2.4780	 5.2250
 2.4790	 5.2060
 2.4800	 5.2130
 2.4810	 5.2590
 2.4820	 5.2690
 2.4830	 5.2560
 2.4840	 5.2180
 2.4850	 5.2060
 2.4860	 5.1900
 2.4870	 5.1990
 2.4880	 5.2190
 2.4890	 5.2070
 2.4900	 5.2340
 2.4910	 5.2240
 2.4920	 5.1680
 2.4930	 5.1430
 2.4940	 5.1270
 2.4950	 5.1130
 2.4960	 5.1160
 2.4970	 5.1590
 2.4980	 5.1910
 2.4990	 5.2360
 2.5000	 5.2990
