Name: Abies concolor 3
Type: vegetation
Class: Tree
Genus: Abies
Species: concolor
Sample No.: VH071
Owner: UCSB
Wavelength Range: VSWIR
Origin: 37.0439; -119.3058; WGS84
Collection Date: 4/20/2013
Description: Samples were collected as part of the HyspIRI Airborne Campaign. 48 individual plants were sampled in three times in 2013 - spring  summer  and fall. The name of the sample includes a 1  2  or 3 which references a different individual of the species. Samples were taken to JPL and processed within 48 hours of collection. The same leaves were processed in the Nicolet and then measured using the ASD.
Measurement: Bidirectional reflectance
First Column: X
Second Column: Y
X Units: Wavelength (micrometers)
Y Units: Reflectance (percentage)
First X Value: 0.35
Last X Value: 2.5
Number of X Values: 2151
Additional Information: vegetation.tree.abies.concolor.vswir.vh071.ucsb.asd.ancillary.txt

 0.3500	 6.6860
 0.3510	 6.3580
 0.3520	 6.3820
 0.3530	 6.4830
 0.3540	 6.3600
 0.3550	 6.1930
 0.3560	 6.1120
 0.3570	 6.1220
 0.3580	 6.1630
 0.3590	 6.2120
 0.3600	 6.1690
 0.3610	 6.0770
 0.3620	 6.1850
 0.3630	 6.1650
 0.3640	 6.0510
 0.3650	 5.9810
 0.3660	 6.0740
 0.3670	 6.1730
 0.3680	 6.1880
 0.3690	 6.0980
 0.3700	 6.0200
 0.3710	 6.0330
 0.3720	 6.1100
 0.3730	 6.0490
 0.3740	 6.0080
 0.3750	 5.9820
 0.3760	 5.9320
 0.3770	 5.9090
 0.3780	 5.9260
 0.3790	 5.9750
 0.3800	 6.0230
 0.3810	 5.9820
 0.3820	 5.9290
 0.3830	 5.9220
 0.3840	 5.9160
 0.3850	 5.9840
 0.3860	 6.0270
 0.3870	 5.9370
 0.3880	 5.9300
 0.3890	 5.9710
 0.3900	 6.0040
 0.3910	 5.9760
 0.3920	 5.9700
 0.3930	 5.9910
 0.3940	 6.0290
 0.3950	 6.0670
 0.3960	 6.0860
 0.3970	 6.1010
 0.3980	 6.1390
 0.3990	 6.1570
 0.4000	 6.2050
 0.4010	 6.2780
 0.4020	 6.2980
 0.4030	 6.3420
 0.4040	 6.3870
 0.4050	 6.4110
 0.4060	 6.4780
 0.4070	 6.4980
 0.4080	 6.4920
 0.4090	 6.5490
 0.4100	 6.6350
 0.4110	 6.7100
 0.4120	 6.7640
 0.4130	 6.8360
 0.4140	 6.9060
 0.4150	 6.9770
 0.4160	 7.0550
 0.4170	 7.1420
 0.4180	 7.2320
 0.4190	 7.3150
 0.4200	 7.3780
 0.4210	 7.4270
 0.4220	 7.4950
 0.4230	 7.5970
 0.4240	 7.6980
 0.4250	 7.7700
 0.4260	 7.8300
 0.4270	 7.9040
 0.4280	 7.9580
 0.4290	 8.0150
 0.4300	 8.0880
 0.4310	 8.1600
 0.4320	 8.2360
 0.4330	 8.2980
 0.4340	 8.3330
 0.4350	 8.3720
 0.4360	 8.4190
 0.4370	 8.4760
 0.4380	 8.5440
 0.4390	 8.6070
 0.4400	 8.6630
 0.4410	 8.7150
 0.4420	 8.7650
 0.4430	 8.8170
 0.4440	 8.8680
 0.4450	 8.9110
 0.4460	 8.9480
 0.4470	 9.0000
 0.4480	 9.0630
 0.4490	 9.1040
 0.4500	 9.1440
 0.4510	 9.1840
 0.4520	 9.2210
 0.4530	 9.2540
 0.4540	 9.2870
 0.4550	 9.3170
 0.4560	 9.3420
 0.4570	 9.3650
 0.4580	 9.3910
 0.4590	 9.4160
 0.4600	 9.4220
 0.4610	 9.4320
 0.4620	 9.4460
 0.4630	 9.4580
 0.4640	 9.4820
 0.4650	 9.4950
 0.4660	 9.4960
 0.4670	 9.4990
 0.4680	 9.5120
 0.4690	 9.5220
 0.4700	 9.5210
 0.4710	 9.5340
 0.4720	 9.5390
 0.4730	 9.5330
 0.4740	 9.5280
 0.4750	 9.5370
 0.4760	 9.5460
 0.4770	 9.5550
 0.4780	 9.5760
 0.4790	 9.5800
 0.4800	 9.5820
 0.4810	 9.6000
 0.4820	 9.6130
 0.4830	 9.6200
 0.4840	 9.6260
 0.4850	 9.6370
 0.4860	 9.6570
 0.4870	 9.6730
 0.4880	 9.6810
 0.4890	 9.7020
 0.4900	 9.7340
 0.4910	 9.7690
 0.4920	 9.8000
 0.4930	 9.8360
 0.4940	 9.8780
 0.4950	 9.9240
 0.4960	 9.9660
 0.4970	10.0250
 0.4980	10.0910
 0.4990	10.1490
 0.5000	10.2240
 0.5010	10.3030
 0.5020	10.3860
 0.5030	10.4840
 0.5040	10.5850
 0.5050	10.6920
 0.5060	10.8080
 0.5070	10.9300
 0.5080	11.0650
 0.5090	11.2110
 0.5100	11.3660
 0.5110	11.5370
 0.5120	11.7140
 0.5130	11.8960
 0.5140	12.0910
 0.5150	12.2860
 0.5160	12.4920
 0.5170	12.7170
 0.5180	12.9470
 0.5190	13.1760
 0.5200	13.4050
 0.5210	13.6380
 0.5220	13.8690
 0.5230	14.0910
 0.5240	14.3070
 0.5250	14.5270
 0.5260	14.7300
 0.5270	14.9160
 0.5280	15.0920
 0.5290	15.2600
 0.5300	15.4150
 0.5310	15.5530
 0.5320	15.6760
 0.5330	15.7940
 0.5340	15.9000
 0.5350	15.9930
 0.5360	16.0830
 0.5370	16.1650
 0.5380	16.2390
 0.5390	16.3030
 0.5400	16.3600
 0.5410	16.4110
 0.5420	16.4590
 0.5430	16.5120
 0.5440	16.5640
 0.5450	16.6150
 0.5460	16.6640
 0.5470	16.7140
 0.5480	16.7620
 0.5490	16.8050
 0.5500	16.8420
 0.5510	16.8650
 0.5520	16.8790
 0.5530	16.8850
 0.5540	16.8780
 0.5550	16.8500
 0.5560	16.8070
 0.5570	16.7590
 0.5580	16.6930
 0.5590	16.6130
 0.5600	16.5270
 0.5610	16.4350
 0.5620	16.3350
 0.5630	16.2310
 0.5640	16.1250
 0.5650	16.0120
 0.5660	15.8920
 0.5670	15.7650
 0.5680	15.6300
 0.5690	15.4900
 0.5700	15.3490
 0.5710	15.2090
 0.5720	15.0770
 0.5730	14.9500
 0.5740	14.8270
 0.5750	14.7090
 0.5760	14.5970
 0.5770	14.4920
 0.5780	14.3910
 0.5790	14.2950
 0.5800	14.2070
 0.5810	14.1270
 0.5820	14.0530
 0.5830	13.9860
 0.5840	13.9190
 0.5850	13.8490
 0.5860	13.7830
 0.5870	13.7220
 0.5880	13.6640
 0.5890	13.6090
 0.5900	13.5650
 0.5910	13.5270
 0.5920	13.4930
 0.5930	13.4600
 0.5940	13.4320
 0.5950	13.4060
 0.5960	13.3800
 0.5970	13.3550
 0.5980	13.3270
 0.5990	13.2980
 0.6000	13.2690
 0.6010	13.2330
 0.6020	13.2000
 0.6030	13.1670
 0.6040	13.1190
 0.6050	13.0670
 0.6060	13.0110
 0.6070	12.9530
 0.6080	12.8890
 0.6090	12.8220
 0.6100	12.7520
 0.6110	12.6770
 0.6120	12.6040
 0.6130	12.5320
 0.6140	12.4620
 0.6150	12.3900
 0.6160	12.3260
 0.6170	12.2620
 0.6180	12.1940
 0.6190	12.1400
 0.6200	12.0920
 0.6210	12.0480
 0.6220	12.0080
 0.6230	11.9740
 0.6240	11.9470
 0.6250	11.9280
 0.6260	11.9130
 0.6270	11.8980
 0.6280	11.8840
 0.6290	11.8730
 0.6300	11.8640
 0.6310	11.8550
 0.6320	11.8420
 0.6330	11.8240
 0.6340	11.7940
 0.6350	11.7530
 0.6360	11.7000
 0.6370	11.6380
 0.6380	11.5670
 0.6390	11.4880
 0.6400	11.4050
 0.6410	11.3180
 0.6420	11.2270
 0.6430	11.1330
 0.6440	11.0350
 0.6450	10.9370
 0.6460	10.8440
 0.6470	10.7590
 0.6480	10.6790
 0.6490	10.6080
 0.6500	10.5490
 0.6510	10.5000
 0.6520	10.4550
 0.6530	10.4140
 0.6540	10.3790
 0.6550	10.3400
 0.6560	10.2930
 0.6570	10.2390
 0.6580	10.1780
 0.6590	10.1110
 0.6600	10.0360
 0.6610	 9.9560
 0.6620	 9.8770
 0.6630	 9.8000
 0.6640	 9.7260
 0.6650	 9.6540
 0.6660	 9.5910
 0.6670	 9.5360
 0.6680	 9.4890
 0.6690	 9.4480
 0.6700	 9.4170
 0.6710	 9.3930
 0.6720	 9.3750
 0.6730	 9.3670
 0.6740	 9.3620
 0.6750	 9.3610
 0.6760	 9.3660
 0.6770	 9.3820
 0.6780	 9.4020
 0.6790	 9.4290
 0.6800	 9.4650
 0.6810	 9.5140
 0.6820	 9.5820
 0.6830	 9.6710
 0.6840	 9.7780
 0.6850	 9.9120
 0.6860	10.0790
 0.6870	10.2840
 0.6880	10.5330
 0.6890	10.8280
 0.6900	11.1750
 0.6910	11.5880
 0.6920	12.0610
 0.6930	12.5950
 0.6940	13.1880
 0.6950	13.8400
 0.6960	14.5470
 0.6970	15.3050
 0.6980	16.1040
 0.6990	16.9420
 0.7000	17.8110
 0.7010	18.7030
 0.7020	19.6070
 0.7030	20.5190
 0.7040	21.4360
 0.7050	22.3530
 0.7060	23.2670
 0.7070	24.1870
 0.7080	25.1110
 0.7090	26.0360
 0.7100	26.9650
 0.7110	27.9030
 0.7120	28.8520
 0.7130	29.8100
 0.7140	30.7730
 0.7150	31.7460
 0.7160	32.7310
 0.7170	33.7260
 0.7180	34.7270
 0.7190	35.7310
 0.7200	36.7380
 0.7210	37.7490
 0.7220	38.7620
 0.7230	39.7710
 0.7240	40.7690
 0.7250	41.7590
 0.7260	42.7330
 0.7270	43.6840
 0.7280	44.6230
 0.7290	45.5370
 0.7300	46.4270
 0.7310	47.2900
 0.7320	48.1220
 0.7330	48.9250
 0.7340	49.7010
 0.7350	50.4480
 0.7360	51.1640
 0.7370	51.8470
 0.7380	52.4980
 0.7390	53.1130
 0.7400	53.6950
 0.7410	54.2490
 0.7420	54.7770
 0.7430	55.2650
 0.7440	55.7220
 0.7450	56.1520
 0.7460	56.5530
 0.7470	56.9260
 0.7480	57.2720
 0.7490	57.5920
 0.7500	57.8910
 0.7510	58.1670
 0.7520	58.4180
 0.7530	58.6480
 0.7540	58.8600
 0.7550	59.0570
 0.7560	59.2390
 0.7570	59.4050
 0.7580	59.5550
 0.7590	59.6920
 0.7600	59.8210
 0.7610	59.9400
 0.7620	60.0490
 0.7630	60.1510
 0.7640	60.2470
 0.7650	60.3290
 0.7660	60.4060
 0.7670	60.4790
 0.7680	60.5460
 0.7690	60.6100
 0.7700	60.6700
 0.7710	60.7270
 0.7720	60.7830
 0.7730	60.8330
 0.7740	60.8830
 0.7750	60.9350
 0.7760	60.9770
 0.7770	61.0170
 0.7780	61.0590
 0.7790	61.1020
 0.7800	61.1430
 0.7810	61.1820
 0.7820	61.2170
 0.7830	61.2470
 0.7840	61.2810
 0.7850	61.3170
 0.7860	61.3520
 0.7870	61.3860
 0.7880	61.4220
 0.7890	61.4520
 0.7900	61.4720
 0.7910	61.4970
 0.7920	61.5250
 0.7930	61.5550
 0.7940	61.5800
 0.7950	61.6010
 0.7960	61.6230
 0.7970	61.6470
 0.7980	61.6650
 0.7990	61.6860
 0.8000	61.7090
 0.8010	61.7270
 0.8020	61.7370
 0.8030	61.7520
 0.8040	61.7750
 0.8050	61.7970
 0.8060	61.8080
 0.8070	61.8170
 0.8080	61.8260
 0.8090	61.8310
 0.8100	61.8380
 0.8110	61.8490
 0.8120	61.8610
 0.8130	61.8690
 0.8140	61.8700
 0.8150	61.8740
 0.8160	61.8860
 0.8170	61.8990
 0.8180	61.9090
 0.8190	61.9150
 0.8200	61.9180
 0.8210	61.9170
 0.8220	61.9250
 0.8230	61.9390
 0.8240	61.9410
 0.8250	61.9450
 0.8260	61.9450
 0.8270	61.9400
 0.8280	61.9420
 0.8290	61.9390
 0.8300	61.9350
 0.8310	61.9350
 0.8320	61.9350
 0.8330	61.9360
 0.8340	61.9390
 0.8350	61.9450
 0.8360	61.9560
 0.8370	61.9660
 0.8380	61.9750
 0.8390	61.9870
 0.8400	61.9880
 0.8410	61.9920
 0.8420	62.0040
 0.8430	62.0200
 0.8440	62.0320
 0.8450	62.0450
 0.8460	62.0620
 0.8470	62.0790
 0.8480	62.0910
 0.8490	62.1050
 0.8500	62.1270
 0.8510	62.1400
 0.8520	62.1510
 0.8530	62.1650
 0.8540	62.1840
 0.8550	62.2010
 0.8560	62.2130
 0.8570	62.2230
 0.8580	62.2390
 0.8590	62.2510
 0.8600	62.2640
 0.8610	62.2800
 0.8620	62.2940
 0.8630	62.3100
 0.8640	62.3270
 0.8650	62.3430
 0.8660	62.3470
 0.8670	62.3570
 0.8680	62.3690
 0.8690	62.3790
 0.8700	62.3890
 0.8710	62.4030
 0.8720	62.4210
 0.8730	62.4370
 0.8740	62.4470
 0.8750	62.4580
 0.8760	62.4710
 0.8770	62.4860
 0.8780	62.4960
 0.8790	62.5050
 0.8800	62.5130
 0.8810	62.5140
 0.8820	62.5270
 0.8830	62.5420
 0.8840	62.5480
 0.8850	62.5570
 0.8860	62.5590
 0.8870	62.5580
 0.8880	62.5590
 0.8890	62.5690
 0.8900	62.5740
 0.8910	62.5780
 0.8920	62.5860
 0.8930	62.5850
 0.8940	62.5890
 0.8950	62.5940
 0.8960	62.5860
 0.8970	62.5860
 0.8980	62.5900
 0.8990	62.5950
 0.9000	62.5940
 0.9010	62.5870
 0.9020	62.5870
 0.9030	62.5930
 0.9040	62.5900
 0.9050	62.5830
 0.9060	62.5770
 0.9070	62.5760
 0.9080	62.5750
 0.9090	62.5750
 0.9100	62.5700
 0.9110	62.5600
 0.9120	62.5600
 0.9130	62.5540
 0.9140	62.5500
 0.9150	62.5560
 0.9160	62.5490
 0.9170	62.5400
 0.9180	62.5290
 0.9190	62.5120
 0.9200	62.5110
 0.9210	62.5000
 0.9220	62.4750
 0.9230	62.4470
 0.9240	62.4290
 0.9250	62.4150
 0.9260	62.3950
 0.9270	62.3580
 0.9280	62.3160
 0.9290	62.2790
 0.9300	62.2450
 0.9310	62.2010
 0.9320	62.1610
 0.9330	62.1100
 0.9340	62.0490
 0.9350	61.9990
 0.9360	61.9280
 0.9370	61.8660
 0.9380	61.8190
 0.9390	61.7500
 0.9400	61.6800
 0.9410	61.6130
 0.9420	61.5380
 0.9430	61.4340
 0.9440	61.3340
 0.9450	61.2420
 0.9460	61.1450
 0.9470	61.0140
 0.9480	60.8910
 0.9490	60.7640
 0.9500	60.6160
 0.9510	60.4610
 0.9520	60.2820
 0.9530	60.1000
 0.9540	59.9390
 0.9550	59.7920
 0.9560	59.6260
 0.9570	59.4610
 0.9580	59.3190
 0.9590	59.1630
 0.9600	59.0190
 0.9610	58.8980
 0.9620	58.8000
 0.9630	58.7060
 0.9640	58.6210
 0.9650	58.5370
 0.9660	58.4500
 0.9670	58.3970
 0.9680	58.3470
 0.9690	58.2950
 0.9700	58.2460
 0.9710	58.2070
 0.9720	58.1580
 0.9730	58.1050
 0.9740	58.0710
 0.9750	58.0540
 0.9760	58.0360
 0.9770	58.0140
 0.9780	57.9950
 0.9790	57.9870
 0.9800	57.9840
 0.9810	57.9840
 0.9820	57.9870
 0.9830	57.9900
 0.9840	58.0020
 0.9850	58.0170
 0.9860	58.0270
 0.9870	58.0580
 0.9880	58.0920
 0.9890	58.1290
 0.9900	58.1740
 0.9910	58.2080
 0.9920	58.2990
 0.9930	58.3890
 0.9940	58.4790
 0.9950	58.5690
 0.9960	58.6590
 0.9970	58.7490
 0.9980	58.8390
 0.9990	58.9290
 1.0000	59.0190
 1.0010	59.1100
 1.0020	59.2000
 1.0030	59.2900
 1.0040	59.3800
 1.0050	59.4700
 1.0060	59.5600
 1.0070	59.6500
 1.0080	59.7400
 1.0090	59.8310
 1.0100	59.8310
 1.0110	59.9140
 1.0120	59.9890
 1.0130	60.0630
 1.0140	60.1370
 1.0150	60.2100
 1.0160	60.2810
 1.0170	60.3520
 1.0180	60.4280
 1.0190	60.5060
 1.0200	60.5780
 1.0210	60.6550
 1.0220	60.7320
 1.0230	60.8050
 1.0240	60.8760
 1.0250	60.9480
 1.0260	61.0180
 1.0270	61.0870
 1.0280	61.1550
 1.0290	61.2260
 1.0300	61.3010
 1.0310	61.3700
 1.0320	61.4370
 1.0330	61.5030
 1.0340	61.5660
 1.0350	61.6280
 1.0360	61.6870
 1.0370	61.7470
 1.0380	61.8070
 1.0390	61.8650
 1.0400	61.9210
 1.0410	61.9800
 1.0420	62.0330
 1.0430	62.0760
 1.0440	62.1270
 1.0450	62.1840
 1.0460	62.2360
 1.0470	62.2870
 1.0480	62.3370
 1.0490	62.3840
 1.0500	62.4290
 1.0510	62.4780
 1.0520	62.5220
 1.0530	62.5620
 1.0540	62.5950
 1.0550	62.6320
 1.0560	62.6670
 1.0570	62.7020
 1.0580	62.7400
 1.0590	62.7740
 1.0600	62.8000
 1.0610	62.8320
 1.0620	62.8660
 1.0630	62.8950
 1.0640	62.9220
 1.0650	62.9500
 1.0660	62.9730
 1.0670	62.9950
 1.0680	63.0160
 1.0690	63.0400
 1.0700	63.0570
 1.0710	63.0690
 1.0720	63.0840
 1.0730	63.1020
 1.0740	63.1130
 1.0750	63.1200
 1.0760	63.1300
 1.0770	63.1390
 1.0780	63.1440
 1.0790	63.1470
 1.0800	63.1520
 1.0810	63.1530
 1.0820	63.1520
 1.0830	63.1530
 1.0840	63.1500
 1.0850	63.1410
 1.0860	63.1280
 1.0870	63.1180
 1.0880	63.1100
 1.0890	63.0980
 1.0900	63.0870
 1.0910	63.0690
 1.0920	63.0460
 1.0930	63.0250
 1.0940	63.0030
 1.0950	62.9790
 1.0960	62.9560
 1.0970	62.9320
 1.0980	62.9060
 1.0990	62.8770
 1.1000	62.8490
 1.1010	62.8180
 1.1020	62.7830
 1.1030	62.7470
 1.1040	62.7100
 1.1050	62.6700
 1.1060	62.6310
 1.1070	62.5930
 1.1080	62.5510
 1.1090	62.5080
 1.1100	62.4630
 1.1110	62.4150
 1.1120	62.3640
 1.1130	62.3150
 1.1140	62.2560
 1.1150	62.1880
 1.1160	62.1210
 1.1170	62.0520
 1.1180	61.9760
 1.1190	61.8990
 1.1200	61.8140
 1.1210	61.7180
 1.1220	61.6110
 1.1230	61.4920
 1.1240	61.3630
 1.1250	61.2210
 1.1260	61.0680
 1.1270	60.8980
 1.1280	60.7170
 1.1290	60.5180
 1.1300	60.3050
 1.1310	60.0720
 1.1320	59.8230
 1.1330	59.5550
 1.1340	59.2650
 1.1350	58.9640
 1.1360	58.6470
 1.1370	58.3160
 1.1380	57.9740
 1.1390	57.6240
 1.1400	57.2610
 1.1410	56.8970
 1.1420	56.5300
 1.1430	56.1610
 1.1440	55.7970
 1.1450	55.4280
 1.1460	55.0770
 1.1470	54.7280
 1.1480	54.3980
 1.1490	54.0790
 1.1500	53.7770
 1.1510	53.4850
 1.1520	53.2120
 1.1530	52.9540
 1.1540	52.7160
 1.1550	52.4950
 1.1560	52.2950
 1.1570	52.1100
 1.1580	51.9400
 1.1590	51.7870
 1.1600	51.6450
 1.1610	51.5140
 1.1620	51.3960
 1.1630	51.2830
 1.1640	51.1780
 1.1650	51.0820
 1.1660	50.9960
 1.1670	50.9140
 1.1680	50.8430
 1.1690	50.7710
 1.1700	50.7060
 1.1710	50.6400
 1.1720	50.5770
 1.1730	50.5140
 1.1740	50.4530
 1.1750	50.3900
 1.1760	50.3270
 1.1770	50.2650
 1.1780	50.1990
 1.1790	50.1330
 1.1800	50.0660
 1.1810	49.9970
 1.1820	49.9300
 1.1830	49.8640
 1.1840	49.8010
 1.1850	49.7390
 1.1860	49.6760
 1.1870	49.6160
 1.1880	49.5600
 1.1890	49.5050
 1.1900	49.4550
 1.1910	49.4090
 1.1920	49.3680
 1.1930	49.3310
 1.1940	49.3000
 1.1950	49.2740
 1.1960	49.2520
 1.1970	49.2360
 1.1980	49.2250
 1.1990	49.2190
 1.2000	49.2190
 1.2010	49.2220
 1.2020	49.2310
 1.2030	49.2470
 1.2040	49.2680
 1.2050	49.2970
 1.2060	49.3320
 1.2070	49.3690
 1.2080	49.4120
 1.2090	49.4590
 1.2100	49.5130
 1.2110	49.5700
 1.2120	49.6290
 1.2130	49.6950
 1.2140	49.7650
 1.2150	49.8380
 1.2160	49.9170
 1.2170	49.9990
 1.2180	50.0820
 1.2190	50.1690
 1.2200	50.2570
 1.2210	50.3470
 1.2220	50.4370
 1.2230	50.5260
 1.2240	50.6160
 1.2250	50.7030
 1.2260	50.7880
 1.2270	50.8750
 1.2280	50.9600
 1.2290	51.0440
 1.2300	51.1260
 1.2310	51.2050
 1.2320	51.2800
 1.2330	51.3520
 1.2340	51.4230
 1.2350	51.4920
 1.2360	51.5620
 1.2370	51.6300
 1.2380	51.6980
 1.2390	51.7630
 1.2400	51.8250
 1.2410	51.8850
 1.2420	51.9410
 1.2430	51.9980
 1.2440	52.0540
 1.2450	52.1070
 1.2460	52.1610
 1.2470	52.2120
 1.2480	52.2610
 1.2490	52.3080
 1.2500	52.3490
 1.2510	52.3890
 1.2520	52.4310
 1.2530	52.4700
 1.2540	52.5070
 1.2550	52.5440
 1.2560	52.5780
 1.2570	52.6110
 1.2580	52.6450
 1.2590	52.6750
 1.2600	52.7030
 1.2610	52.7270
 1.2620	52.7470
 1.2630	52.7620
 1.2640	52.7770
 1.2650	52.7910
 1.2660	52.8030
 1.2670	52.8140
 1.2680	52.8220
 1.2690	52.8280
 1.2700	52.8310
 1.2710	52.8320
 1.2720	52.8300
 1.2730	52.8240
 1.2740	52.8160
 1.2750	52.8050
 1.2760	52.7910
 1.2770	52.7770
 1.2780	52.7600
 1.2790	52.7380
 1.2800	52.7120
 1.2810	52.6840
 1.2820	52.6510
 1.2830	52.6150
 1.2840	52.5780
 1.2850	52.5360
 1.2860	52.4890
 1.2870	52.4400
 1.2880	52.3890
 1.2890	52.3330
 1.2900	52.2710
 1.2910	52.2050
 1.2920	52.1360
 1.2930	52.0610
 1.2940	51.9850
 1.2950	51.9060
 1.2960	51.8190
 1.2970	51.7280
 1.2980	51.6320
 1.2990	51.5280
 1.3000	51.4190
 1.3010	51.3070
 1.3020	51.1910
 1.3030	51.0680
 1.3040	50.9370
 1.3050	50.7990
 1.3060	50.6550
 1.3070	50.5050
 1.3080	50.3530
 1.3090	50.1960
 1.3100	50.0320
 1.3110	49.8610
 1.3120	49.6840
 1.3130	49.5000
 1.3140	49.3100
 1.3150	49.1130
 1.3160	48.9120
 1.3170	48.7080
 1.3180	48.4980
 1.3190	48.2820
 1.3200	48.0590
 1.3210	47.8270
 1.3220	47.5920
 1.3230	47.3570
 1.3240	47.1160
 1.3250	46.8740
 1.3260	46.6290
 1.3270	46.3740
 1.3280	46.1190
 1.3290	45.8610
 1.3300	45.6040
 1.3310	45.3490
 1.3320	45.0890
 1.3330	44.8320
 1.3340	44.5730
 1.3350	44.3110
 1.3360	44.0530
 1.3370	43.7960
 1.3380	43.5410
 1.3390	43.2880
 1.3400	43.0370
 1.3410	42.7930
 1.3420	42.5510
 1.3430	42.3120
 1.3440	42.0770
 1.3450	41.8460
 1.3460	41.6170
 1.3470	41.3950
 1.3480	41.1780
 1.3490	40.9650
 1.3500	40.7590
 1.3510	40.5540
 1.3520	40.3510
 1.3530	40.1500
 1.3540	39.9490
 1.3550	39.7500
 1.3560	39.5510
 1.3570	39.3500
 1.3580	39.1520
 1.3590	38.9510
 1.3600	38.7460
 1.3610	38.5400
 1.3620	38.3260
 1.3630	38.1070
 1.3640	37.8830
 1.3650	37.6480
 1.3660	37.4070
 1.3670	37.1570
 1.3680	36.8930
 1.3690	36.6180
 1.3700	36.3260
 1.3710	36.0210
 1.3720	35.7010
 1.3730	35.3600
 1.3740	35.0040
 1.3750	34.6260
 1.3760	34.2240
 1.3770	33.8020
 1.3780	33.3520
 1.3790	32.8820
 1.3800	32.3900
 1.3810	31.8730
 1.3820	31.3420
 1.3830	30.7940
 1.3840	30.2290
 1.3850	29.6460
 1.3860	29.0550
 1.3870	28.4440
 1.3880	27.8380
 1.3890	27.2260
 1.3900	26.6100
 1.3910	26.0030
 1.3920	25.3980
 1.3930	24.7960
 1.3940	24.2050
 1.3950	23.6180
 1.3960	23.0460
 1.3970	22.4900
 1.3980	21.9500
 1.3990	21.4340
 1.4000	20.9360
 1.4010	20.4570
 1.4020	20.0000
 1.4030	19.5590
 1.4040	19.1410
 1.4050	18.7450
 1.4060	18.3680
 1.4070	18.0160
 1.4080	17.6830
 1.4090	17.3690
 1.4100	17.0750
 1.4110	16.7970
 1.4120	16.5370
 1.4130	16.2940
 1.4140	16.0660
 1.4150	15.8560
 1.4160	15.6610
 1.4170	15.4790
 1.4180	15.3090
 1.4190	15.1480
 1.4200	14.9990
 1.4210	14.8590
 1.4220	14.7300
 1.4230	14.6110
 1.4240	14.5000
 1.4250	14.3960
 1.4260	14.3000
 1.4270	14.2100
 1.4280	14.1280
 1.4290	14.0520
 1.4300	13.9830
 1.4310	13.9200
 1.4320	13.8640
 1.4330	13.8110
 1.4340	13.7630
 1.4350	13.7200
 1.4360	13.6810
 1.4370	13.6460
 1.4380	13.6170
 1.4390	13.5900
 1.4400	13.5670
 1.4410	13.5470
 1.4420	13.5300
 1.4430	13.5160
 1.4440	13.5050
 1.4450	13.4950
 1.4460	13.4890
 1.4470	13.4840
 1.4480	13.4820
 1.4490	13.4820
 1.4500	13.4840
 1.4510	13.4870
 1.4520	13.4910
 1.4530	13.4970
 1.4540	13.5030
 1.4550	13.5120
 1.4560	13.5230
 1.4570	13.5370
 1.4580	13.5530
 1.4590	13.5720
 1.4600	13.5940
 1.4610	13.6190
 1.4620	13.6470
 1.4630	13.6790
 1.4640	13.7140
 1.4650	13.7520
 1.4660	13.7930
 1.4670	13.8370
 1.4680	13.8860
 1.4690	13.9370
 1.4700	13.9930
 1.4710	14.0530
 1.4720	14.1140
 1.4730	14.1780
 1.4740	14.2450
 1.4750	14.3160
 1.4760	14.3900
 1.4770	14.4660
 1.4780	14.5430
 1.4790	14.6230
 1.4800	14.7040
 1.4810	14.7870
 1.4820	14.8720
 1.4830	14.9580
 1.4840	15.0470
 1.4850	15.1370
 1.4860	15.2290
 1.4870	15.3240
 1.4880	15.4170
 1.4890	15.5110
 1.4900	15.6070
 1.4910	15.7030
 1.4920	15.8010
 1.4930	15.9010
 1.4940	16.0000
 1.4950	16.1000
 1.4960	16.2000
 1.4970	16.2990
 1.4980	16.4000
 1.4990	16.5020
 1.5000	16.6040
 1.5010	16.7080
 1.5020	16.8110
 1.5030	16.9150
 1.5040	17.0190
 1.5050	17.1220
 1.5060	17.2260
 1.5070	17.3300
 1.5080	17.4340
 1.5090	17.5380
 1.5100	17.6420
 1.5110	17.7460
 1.5120	17.8500
 1.5130	17.9530
 1.5140	18.0570
 1.5150	18.1600
 1.5160	18.2620
 1.5170	18.3630
 1.5180	18.4640
 1.5190	18.5650
 1.5200	18.6660
 1.5210	18.7670
 1.5220	18.8670
 1.5230	18.9660
 1.5240	19.0650
 1.5250	19.1640
 1.5260	19.2600
 1.5270	19.3560
 1.5280	19.4520
 1.5290	19.5470
 1.5300	19.6420
 1.5310	19.7380
 1.5320	19.8320
 1.5330	19.9250
 1.5340	20.0180
 1.5350	20.1100
 1.5360	20.2010
 1.5370	20.2910
 1.5380	20.3820
 1.5390	20.4710
 1.5400	20.5600
 1.5410	20.6490
 1.5420	20.7370
 1.5430	20.8260
 1.5440	20.9150
 1.5450	21.0030
 1.5460	21.0910
 1.5470	21.1780
 1.5480	21.2630
 1.5490	21.3490
 1.5500	21.4350
 1.5510	21.5200
 1.5520	21.6050
 1.5530	21.6880
 1.5540	21.7700
 1.5550	21.8520
 1.5560	21.9340
 1.5570	22.0150
 1.5580	22.0950
 1.5590	22.1760
 1.5600	22.2560
 1.5610	22.3350
 1.5620	22.4140
 1.5630	22.4940
 1.5640	22.5700
 1.5650	22.6480
 1.5660	22.7260
 1.5670	22.8030
 1.5680	22.8800
 1.5690	22.9550
 1.5700	23.0300
 1.5710	23.1050
 1.5720	23.1780
 1.5730	23.2520
 1.5740	23.3250
 1.5750	23.3980
 1.5760	23.4730
 1.5770	23.5480
 1.5780	23.6220
 1.5790	23.6960
 1.5800	23.7670
 1.5810	23.8390
 1.5820	23.9110
 1.5830	23.9810
 1.5840	24.0530
 1.5850	24.1230
 1.5860	24.1930
 1.5870	24.2650
 1.5880	24.3370
 1.5890	24.4090
 1.5900	24.4810
 1.5910	24.5530
 1.5920	24.6240
 1.5930	24.6960
 1.5940	24.7690
 1.5950	24.8420
 1.5960	24.9130
 1.5970	24.9850
 1.5980	25.0570
 1.5990	25.1290
 1.6000	25.2020
 1.6010	25.2740
 1.6020	25.3450
 1.6030	25.4160
 1.6040	25.4870
 1.6050	25.5590
 1.6060	25.6300
 1.6070	25.6990
 1.6080	25.7680
 1.6090	25.8340
 1.6100	25.9000
 1.6110	25.9670
 1.6120	26.0330
 1.6130	26.0980
 1.6140	26.1640
 1.6150	26.2280
 1.6160	26.2910
 1.6170	26.3510
 1.6180	26.4120
 1.6190	26.4710
 1.6200	26.5280
 1.6210	26.5840
 1.6220	26.6380
 1.6230	26.6880
 1.6240	26.7390
 1.6250	26.7890
 1.6260	26.8380
 1.6270	26.8860
 1.6280	26.9320
 1.6290	26.9770
 1.6300	27.0200
 1.6310	27.0630
 1.6320	27.1050
 1.6330	27.1460
 1.6340	27.1860
 1.6350	27.2270
 1.6360	27.2660
 1.6370	27.3070
 1.6380	27.3480
 1.6390	27.3870
 1.6400	27.4260
 1.6410	27.4620
 1.6420	27.4960
 1.6430	27.5280
 1.6440	27.5570
 1.6450	27.5850
 1.6460	27.6080
 1.6470	27.6280
 1.6480	27.6480
 1.6490	27.6620
 1.6500	27.6760
 1.6510	27.6860
 1.6520	27.6910
 1.6530	27.6930
 1.6540	27.6930
 1.6550	27.6920
 1.6560	27.6900
 1.6570	27.6870
 1.6580	27.6820
 1.6590	27.6770
 1.6600	27.6700
 1.6610	27.6610
 1.6620	27.6510
 1.6630	27.6400
 1.6640	27.6290
 1.6650	27.6200
 1.6660	27.6100
 1.6670	27.6000
 1.6680	27.5900
 1.6690	27.5750
 1.6700	27.5610
 1.6710	27.5470
 1.6720	27.5320
 1.6730	27.5160
 1.6740	27.4980
 1.6750	27.4780
 1.6760	27.4550
 1.6770	27.4300
 1.6780	27.4040
 1.6790	27.3740
 1.6800	27.3400
 1.6810	27.3070
 1.6820	27.2680
 1.6830	27.2250
 1.6840	27.1810
 1.6850	27.1310
 1.6860	27.0790
 1.6870	27.0240
 1.6880	26.9640
 1.6890	26.9020
 1.6900	26.8390
 1.6910	26.7730
 1.6920	26.7070
 1.6930	26.6420
 1.6940	26.5750
 1.6950	26.5070
 1.6960	26.4400
 1.6970	26.3710
 1.6980	26.3030
 1.6990	26.2350
 1.7000	26.1670
 1.7010	26.0990
 1.7020	26.0320
 1.7030	25.9660
 1.7040	25.8990
 1.7050	25.8320
 1.7060	25.7640
 1.7070	25.6960
 1.7080	25.6290
 1.7090	25.5630
 1.7100	25.4980
 1.7110	25.4350
 1.7120	25.3740
 1.7130	25.3150
 1.7140	25.2600
 1.7150	25.2040
 1.7160	25.1510
 1.7170	25.1000
 1.7180	25.0520
 1.7190	25.0060
 1.7200	24.9610
 1.7210	24.9160
 1.7220	24.8710
 1.7230	24.8290
 1.7240	24.7880
 1.7250	24.7490
 1.7260	24.7130
 1.7270	24.6780
 1.7280	24.6450
 1.7290	24.6160
 1.7300	24.5890
 1.7310	24.5620
 1.7320	24.5360
 1.7330	24.5080
 1.7340	24.4820
 1.7350	24.4520
 1.7360	24.4210
 1.7370	24.3860
 1.7380	24.3500
 1.7390	24.3090
 1.7400	24.2650
 1.7410	24.2180
 1.7420	24.1640
 1.7430	24.1100
 1.7440	24.0530
 1.7450	23.9940
 1.7460	23.9310
 1.7470	23.8700
 1.7480	23.8060
 1.7490	23.7430
 1.7500	23.6810
 1.7510	23.6220
 1.7520	23.5640
 1.7530	23.5070
 1.7540	23.4520
 1.7550	23.3980
 1.7560	23.3450
 1.7570	23.2960
 1.7580	23.2500
 1.7590	23.2040
 1.7600	23.1600
 1.7610	23.1210
 1.7620	23.0820
 1.7630	23.0450
 1.7640	23.0110
 1.7650	22.9760
 1.7660	22.9440
 1.7670	22.9170
 1.7680	22.8880
 1.7690	22.8610
 1.7700	22.8350
 1.7710	22.8070
 1.7720	22.7820
 1.7730	22.7580
 1.7740	22.7360
 1.7750	22.7160
 1.7760	22.6960
 1.7770	22.6760
 1.7780	22.6600
 1.7790	22.6460
 1.7800	22.6350
 1.7810	22.6280
 1.7820	22.6230
 1.7830	22.6210
 1.7840	22.6200
 1.7850	22.6210
 1.7860	22.6250
 1.7870	22.6300
 1.7880	22.6380
 1.7890	22.6470
 1.7900	22.6550
 1.7910	22.6630
 1.7920	22.6700
 1.7930	22.6790
 1.7940	22.6890
 1.7950	22.7010
 1.7960	22.7150
 1.7970	22.7290
 1.7980	22.7460
 1.7990	22.7610
 1.8000	22.7760
 1.8010	22.7910
 1.8020	22.8070
 1.8030	22.8220
 1.8040	22.8380
 1.8050	22.8540
 1.8060	22.8670
 1.8070	22.8830
 1.8080	22.9020
 1.8090	22.9170
 1.8100	22.9320
 1.8110	22.9430
 1.8120	22.9540
 1.8130	22.9660
 1.8140	22.9770
 1.8150	22.9880
 1.8160	22.9960
 1.8170	23.0040
 1.8180	23.0130
 1.8190	23.0220
 1.8200	23.0290
 1.8210	23.0330
 1.8220	23.0360
 1.8230	23.0370
 1.8240	23.0400
 1.8250	23.0450
 1.8260	23.0460
 1.8270	23.0260
 1.8280	23.0070
 1.8290	22.9870
 1.8300	22.9670
 1.8310	22.9480
 1.8320	22.9280
 1.8330	22.9080
 1.8340	22.8890
 1.8350	22.8890
 1.8360	22.8630
 1.8370	22.8310
 1.8380	22.7940
 1.8390	22.7520
 1.8400	22.7040
 1.8410	22.6530
 1.8420	22.5990
 1.8430	22.5370
 1.8440	22.4690
 1.8450	22.3950
 1.8460	22.3130
 1.8470	22.2230
 1.8480	22.1260
 1.8490	22.0170
 1.8500	21.8990
 1.8510	21.7720
 1.8520	21.6370
 1.8530	21.4880
 1.8540	21.3330
 1.8550	21.1660
 1.8560	20.9870
 1.8570	20.7970
 1.8580	20.5900
 1.8590	20.3740
 1.8600	20.1460
 1.8610	19.9060
 1.8620	19.6520
 1.8630	19.3900
 1.8640	19.1120
 1.8650	18.8180
 1.8660	18.5140
 1.8670	18.1930
 1.8680	17.8580
 1.8690	17.5100
 1.8700	17.1500
 1.8710	16.7770
 1.8720	16.4010
 1.8730	16.0150
 1.8740	15.6230
 1.8750	15.2270
 1.8760	14.8190
 1.8770	14.4110
 1.8780	14.0060
 1.8790	13.5980
 1.8800	13.2000
 1.8810	12.8100
 1.8820	12.4230
 1.8830	12.0380
 1.8840	11.6610
 1.8850	11.2860
 1.8860	10.9210
 1.8870	10.5670
 1.8880	10.2240
 1.8890	 9.9010
 1.8900	 9.5890
 1.8910	 9.2930
 1.8920	 9.0090
 1.8930	 8.7430
 1.8940	 8.4880
 1.8950	 8.2510
 1.8960	 8.0330
 1.8970	 7.8290
 1.8980	 7.6390
 1.8990	 7.4660
 1.9000	 7.3040
 1.9010	 7.1560
 1.9020	 7.0180
 1.9030	 6.8940
 1.9040	 6.7800
 1.9050	 6.6760
 1.9060	 6.5820
 1.9070	 6.4990
 1.9080	 6.4260
 1.9090	 6.3590
 1.9100	 6.2960
 1.9110	 6.2390
 1.9120	 6.1880
 1.9130	 6.1410
 1.9140	 6.1010
 1.9150	 6.0650
 1.9160	 6.0300
 1.9170	 5.9970
 1.9180	 5.9670
 1.9190	 5.9410
 1.9200	 5.9220
 1.9210	 5.9060
 1.9220	 5.8900
 1.9230	 5.8760
 1.9240	 5.8640
 1.9250	 5.8530
 1.9260	 5.8440
 1.9270	 5.8380
 1.9280	 5.8350
 1.9290	 5.8330
 1.9300	 5.8340
 1.9310	 5.8370
 1.9320	 5.8420
 1.9330	 5.8470
 1.9340	 5.8530
 1.9350	 5.8600
 1.9360	 5.8670
 1.9370	 5.8770
 1.9380	 5.8890
 1.9390	 5.9030
 1.9400	 5.9190
 1.9410	 5.9340
 1.9420	 5.9500
 1.9430	 5.9670
 1.9440	 5.9860
 1.9450	 6.0050
 1.9460	 6.0260
 1.9470	 6.0490
 1.9480	 6.0720
 1.9490	 6.0950
 1.9500	 6.1210
 1.9510	 6.1460
 1.9520	 6.1720
 1.9530	 6.2010
 1.9540	 6.2270
 1.9550	 6.2550
 1.9560	 6.2840
 1.9570	 6.3130
 1.9580	 6.3430
 1.9590	 6.3730
 1.9600	 6.4010
 1.9610	 6.4320
 1.9620	 6.4640
 1.9630	 6.4970
 1.9640	 6.5330
 1.9650	 6.5690
 1.9660	 6.6030
 1.9670	 6.6370
 1.9680	 6.6720
 1.9690	 6.7080
 1.9700	 6.7450
 1.9710	 6.7860
 1.9720	 6.8240
 1.9730	 6.8610
 1.9740	 6.8980
 1.9750	 6.9330
 1.9760	 6.9710
 1.9770	 7.0100
 1.9780	 7.0490
 1.9790	 7.0890
 1.9800	 7.1310
 1.9810	 7.1730
 1.9820	 7.2150
 1.9830	 7.2580
 1.9840	 7.3000
 1.9850	 7.3420
 1.9860	 7.3840
 1.9870	 7.4300
 1.9880	 7.4750
 1.9890	 7.5190
 1.9900	 7.5650
 1.9910	 7.6100
 1.9920	 7.6550
 1.9930	 7.7010
 1.9940	 7.7460
 1.9950	 7.7900
 1.9960	 7.8340
 1.9970	 7.8750
 1.9980	 7.9200
 1.9990	 7.9650
 2.0000	 8.0110
 2.0010	 8.0580
 2.0020	 8.1080
 2.0030	 8.1530
 2.0040	 8.1980
 2.0050	 8.2430
 2.0060	 8.2850
 2.0070	 8.3300
 2.0080	 8.3750
 2.0090	 8.4200
 2.0100	 8.4650
 2.0110	 8.5090
 2.0120	 8.5520
 2.0130	 8.5960
 2.0140	 8.6410
 2.0150	 8.6840
 2.0160	 8.7290
 2.0170	 8.7690
 2.0180	 8.8120
 2.0190	 8.8540
 2.0200	 8.8960
 2.0210	 8.9380
 2.0220	 8.9790
 2.0230	 9.0190
 2.0240	 9.0570
 2.0250	 9.0930
 2.0260	 9.1300
 2.0270	 9.1640
 2.0280	 9.2000
 2.0290	 9.2340
 2.0300	 9.2690
 2.0310	 9.3030
 2.0320	 9.3360
 2.0330	 9.3690
 2.0340	 9.4030
 2.0350	 9.4340
 2.0360	 9.4630
 2.0370	 9.4920
 2.0380	 9.5200
 2.0390	 9.5490
 2.0400	 9.5800
 2.0410	 9.6090
 2.0420	 9.6390
 2.0430	 9.6680
 2.0440	 9.6960
 2.0450	 9.7210
 2.0460	 9.7470
 2.0470	 9.7730
 2.0480	 9.7990
 2.0490	 9.8250
 2.0500	 9.8500
 2.0510	 9.8740
 2.0520	 9.8970
 2.0530	 9.9180
 2.0540	 9.9410
 2.0550	 9.9630
 2.0560	 9.9870
 2.0570	10.0090
 2.0580	10.0340
 2.0590	10.0570
 2.0600	10.0800
 2.0610	10.1020
 2.0620	10.1250
 2.0630	10.1480
 2.0640	10.1700
 2.0650	10.1920
 2.0660	10.2120
 2.0670	10.2330
 2.0680	10.2530
 2.0690	10.2740
 2.0700	10.2950
 2.0710	10.3180
 2.0720	10.3410
 2.0730	10.3660
 2.0740	10.3890
 2.0750	10.4140
 2.0760	10.4370
 2.0770	10.4590
 2.0780	10.4810
 2.0790	10.5020
 2.0800	10.5250
 2.0810	10.5480
 2.0820	10.5720
 2.0830	10.5980
 2.0840	10.6230
 2.0850	10.6460
 2.0860	10.6700
 2.0870	10.6940
 2.0880	10.7200
 2.0890	10.7440
 2.0900	10.7700
 2.0910	10.7950
 2.0920	10.8190
 2.0930	10.8430
 2.0940	10.8680
 2.0950	10.8920
 2.0960	10.9140
 2.0970	10.9370
 2.0980	10.9610
 2.0990	10.9850
 2.1000	11.0090
 2.1010	11.0330
 2.1020	11.0560
 2.1030	11.0810
 2.1040	11.1050
 2.1050	11.1310
 2.1060	11.1580
 2.1070	11.1880
 2.1080	11.2140
 2.1090	11.2410
 2.1100	11.2680
 2.1110	11.2930
 2.1120	11.3190
 2.1130	11.3470
 2.1140	11.3740
 2.1150	11.4000
 2.1160	11.4260
 2.1170	11.4510
 2.1180	11.4770
 2.1190	11.5030
 2.1200	11.5300
 2.1210	11.5590
 2.1220	11.5860
 2.1230	11.6140
 2.1240	11.6420
 2.1250	11.6690
 2.1260	11.6950
 2.1270	11.7210
 2.1280	11.7430
 2.1290	11.7690
 2.1300	11.7970
 2.1310	11.8240
 2.1320	11.8520
 2.1330	11.8780
 2.1340	11.9010
 2.1350	11.9250
 2.1360	11.9480
 2.1370	11.9720
 2.1380	11.9940
 2.1390	12.0190
 2.1400	12.0470
 2.1410	12.0730
 2.1420	12.1000
 2.1430	12.1280
 2.1440	12.1560
 2.1450	12.1850
 2.1460	12.2140
 2.1470	12.2450
 2.1480	12.2740
 2.1490	12.3000
 2.1500	12.3290
 2.1510	12.3570
 2.1520	12.3870
 2.1530	12.4210
 2.1540	12.4490
 2.1550	12.4720
 2.1560	12.4980
 2.1570	12.5190
 2.1580	12.5430
 2.1590	12.5710
 2.1600	12.5950
 2.1610	12.6180
 2.1620	12.6420
 2.1630	12.6690
 2.1640	12.6960
 2.1650	12.7220
 2.1660	12.7530
 2.1670	12.7770
 2.1680	12.7950
 2.1690	12.8180
 2.1700	12.8380
 2.1710	12.8630
 2.1720	12.8920
 2.1730	12.9200
 2.1740	12.9490
 2.1750	12.9760
 2.1760	13.0030
 2.1770	13.0270
 2.1780	13.0470
 2.1790	13.0700
 2.1800	13.0960
 2.1810	13.1200
 2.1820	13.1450
 2.1830	13.1690
 2.1840	13.1930
 2.1850	13.2160
 2.1860	13.2390
 2.1870	13.2630
 2.1880	13.2850
 2.1890	13.3040
 2.1900	13.3250
 2.1910	13.3450
 2.1920	13.3680
 2.1930	13.3930
 2.1940	13.4160
 2.1950	13.4420
 2.1960	13.4620
 2.1970	13.4760
 2.1980	13.4930
 2.1990	13.5080
 2.2000	13.5260
 2.2010	13.5460
 2.2020	13.5640
 2.2030	13.5830
 2.2040	13.6020
 2.2050	13.6200
 2.2060	13.6400
 2.2070	13.6540
 2.2080	13.6680
 2.2090	13.6780
 2.2100	13.6830
 2.2110	13.6900
 2.2120	13.6980
 2.2130	13.7060
 2.2140	13.7160
 2.2150	13.7220
 2.2160	13.7300
 2.2170	13.7320
 2.2180	13.7300
 2.2190	13.7290
 2.2200	13.7250
 2.2210	13.7190
 2.2220	13.7120
 2.2230	13.7020
 2.2240	13.6850
 2.2250	13.6710
 2.2260	13.6580
 2.2270	13.6380
 2.2280	13.6170
 2.2290	13.5930
 2.2300	13.5640
 2.2310	13.5310
 2.2320	13.4990
 2.2330	13.4640
 2.2340	13.4280
 2.2350	13.3900
 2.2360	13.3490
 2.2370	13.3060
 2.2380	13.2600
 2.2390	13.2080
 2.2400	13.1570
 2.2410	13.1050
 2.2420	13.0520
 2.2430	12.9990
 2.2440	12.9410
 2.2450	12.8790
 2.2460	12.8200
 2.2470	12.7630
 2.2480	12.7020
 2.2490	12.6450
 2.2500	12.5820
 2.2510	12.5130
 2.2520	12.4440
 2.2530	12.3730
 2.2540	12.3030
 2.2550	12.2300
 2.2560	12.1590
 2.2570	12.0910
 2.2580	12.0190
 2.2590	11.9470
 2.2600	11.8740
 2.2610	11.7970
 2.2620	11.7220
 2.2630	11.6530
 2.2640	11.5860
 2.2650	11.5250
 2.2660	11.4650
 2.2670	11.4050
 2.2680	11.3460
 2.2690	11.2910
 2.2700	11.2390
 2.2710	11.1890
 2.2720	11.1420
 2.2730	11.0950
 2.2740	11.0460
 2.2750	11.0050
 2.2760	10.9710
 2.2770	10.9350
 2.2780	10.9030
 2.2790	10.8700
 2.2800	10.8350
 2.2810	10.8040
 2.2820	10.7780
 2.2830	10.7450
 2.2840	10.7080
 2.2850	10.6720
 2.2860	10.6320
 2.2870	10.5960
 2.2880	10.5700
 2.2890	10.5340
 2.2900	10.4960
 2.2910	10.4560
 2.2920	10.4060
 2.2930	10.3620
 2.2940	10.3210
 2.2950	10.2770
 2.2960	10.2340
 2.2970	10.1880
 2.2980	10.1370
 2.2990	10.0860
 2.3000	10.0390
 2.3010	 9.9980
 2.3020	 9.9620
 2.3030	 9.9290
 2.3040	 9.8950
 2.3050	 9.8590
 2.3060	 9.8290
 2.3070	 9.8080
 2.3080	 9.7940
 2.3090	 9.7820
 2.3100	 9.7710
 2.3110	 9.7570
 2.3120	 9.7470
 2.3130	 9.7370
 2.3140	 9.7300
 2.3150	 9.7300
 2.3160	 9.7250
 2.3170	 9.7210
 2.3180	 9.7170
 2.3190	 9.7140
 2.3200	 9.7090
 2.3210	 9.7080
 2.3220	 9.6990
 2.3230	 9.6830
 2.3240	 9.6700
 2.3250	 9.6580
 2.3260	 9.6390
 2.3270	 9.6170
 2.3280	 9.5930
 2.3290	 9.5600
 2.3300	 9.5330
 2.3310	 9.5110
 2.3320	 9.4860
 2.3330	 9.4610
 2.3340	 9.4340
 2.3350	 9.4050
 2.3360	 9.3740
 2.3370	 9.3400
 2.3380	 9.3080
 2.3390	 9.2780
 2.3400	 9.2460
 2.3410	 9.2110
 2.3420	 9.1830
 2.3430	 9.1590
 2.3440	 9.1330
 2.3450	 9.1120
 2.3460	 9.0900
 2.3470	 9.0650
 2.3480	 9.0380
 2.3490	 9.0030
 2.3500	 8.9820
 2.3510	 8.9670
 2.3520	 8.9510
 2.3530	 8.9440
 2.3540	 8.9390
 2.3550	 8.9260
 2.3560	 8.9110
 2.3570	 8.9000
 2.3580	 8.8900
 2.3590	 8.8750
 2.3600	 8.8580
 2.3610	 8.8440
 2.3620	 8.8220
 2.3630	 8.7950
 2.3640	 8.7770
 2.3650	 8.7540
 2.3660	 8.7360
 2.3670	 8.7290
 2.3680	 8.7170
 2.3690	 8.7000
 2.3700	 8.6760
 2.3710	 8.6440
 2.3720	 8.6110
 2.3730	 8.5800
 2.3740	 8.5560
 2.3750	 8.5380
 2.3760	 8.5100
 2.3770	 8.4880
 2.3780	 8.4680
 2.3790	 8.4370
 2.3800	 8.4180
 2.3810	 8.4010
 2.3820	 8.3780
 2.3830	 8.3570
 2.3840	 8.3370
 2.3850	 8.3150
 2.3860	 8.2870
 2.3870	 8.2650
 2.3880	 8.2460
 2.3890	 8.2180
 2.3900	 8.1970
 2.3910	 8.1820
 2.3920	 8.1550
 2.3930	 8.1260
 2.3940	 8.1070
 2.3950	 8.0880
 2.3960	 8.0660
 2.3970	 8.0490
 2.3980	 8.0340
 2.3990	 8.0040
 2.4000	 7.9730
 2.4010	 7.9560
 2.4020	 7.9320
 2.4030	 7.9130
 2.4040	 7.8970
 2.4050	 7.8630
 2.4060	 7.8390
 2.4070	 7.8100
 2.4080	 7.7680
 2.4090	 7.7460
 2.4100	 7.7200
 2.4110	 7.6860
 2.4120	 7.6730
 2.4130	 7.6560
 2.4140	 7.6200
 2.4150	 7.6040
 2.4160	 7.5830
 2.4170	 7.5380
 2.4180	 7.5120
 2.4190	 7.4880
 2.4200	 7.4580
 2.4210	 7.4490
 2.4220	 7.4350
 2.4230	 7.4040
 2.4240	 7.3790
 2.4250	 7.3400
 2.4260	 7.2950
 2.4270	 7.2580
 2.4280	 7.2150
 2.4290	 7.1810
 2.4300	 7.1510
 2.4310	 7.1290
 2.4320	 7.1090
 2.4330	 7.0790
 2.4340	 7.0690
 2.4350	 7.0600
 2.4360	 7.0290
 2.4370	 6.9960
 2.4380	 6.9470
 2.4390	 6.8910
 2.4400	 6.8360
 2.4410	 6.7970
 2.4420	 6.7750
 2.4430	 6.7320
 2.4440	 6.7070
 2.4450	 6.7030
 2.4460	 6.6810
 2.4470	 6.6780
 2.4480	 6.6710
 2.4490	 6.6380
 2.4500	 6.6050
 2.4510	 6.5640
 2.4520	 6.5240
 2.4530	 6.5130
 2.4540	 6.4970
 2.4550	 6.4720
 2.4560	 6.4590
 2.4570	 6.4210
 2.4580	 6.3830
 2.4590	 6.3670
 2.4600	 6.3320
 2.4610	 6.2920
 2.4620	 6.2650
 2.4630	 6.2360
 2.4640	 6.2120
 2.4650	 6.1900
 2.4660	 6.1640
 2.4670	 6.1300
 2.4680	 6.1030
 2.4690	 6.0740
 2.4700	 6.0620
 2.4710	 6.0820
 2.4720	 6.0690
 2.4730	 6.0520
 2.4740	 6.0340
 2.4750	 5.9720
 2.4760	 5.9450
 2.4770	 5.9470
 2.4780	 5.9320
 2.4790	 5.9270
 2.4800	 5.9160
 2.4810	 5.8790
 2.4820	 5.8960
 2.4830	 5.9190
 2.4840	 5.9110
 2.4850	 5.9030
 2.4860	 5.8840
 2.4870	 5.8230
 2.4880	 5.7800
 2.4890	 5.7960
 2.4900	 5.7970
 2.4910	 5.7860
 2.4920	 5.7950
 2.4930	 5.7650
 2.4940	 5.7120
 2.4950	 5.7050
 2.4960	 5.7100
 2.4970	 5.7220
 2.4980	 5.7650
 2.4990	 5.7630
 2.5000	 5.7210
