Name: Heteromeles arbutifolia 3
Type: vegetation
Class: Shrub
Genus: Heteromeles
Species: arbutifolia
Sample No.: VH137
Owner: UCSB
Wavelength Range: VSWIR
Origin: 34.4908; -119.7912; WGS84
Collection Date: 6/3/2013
Description: Samples were collected as part of the HyspIRI Airborne Campaign. 48 individual plants were sampled in three times in 2013 - spring  summer  and fall. The name of the sample includes a 1  2  or 3 which references a different individual of the species. Samples were taken to JPL and processed within 48 hours of collection. The same leaves were processed in the Nicolet and then measured using the ASD.
Measurement: Bidirectional reflectance
First Column: X
Second Column: Y
X Units: Wavelength (micrometers)
Y Units: Reflectance (percentage)
First X Value: 0.35
Last X Value: 2.5
Number of X Values: 2151
Additional Information: vegetation.shrub.heteromeles.arbutifolia.vswir.vh137.ucsb.asd.ancillary.txt

 0.3500	 4.7920
 0.3510	 4.9930
 0.3520	 5.0750
 0.3530	 5.0250
 0.3540	 4.9220
 0.3550	 4.8900
 0.3560	 4.9020
 0.3570	 4.8630
 0.3580	 4.6850
 0.3590	 4.5750
 0.3600	 4.5930
 0.3610	 4.6860
 0.3620	 4.6820
 0.3630	 4.7130
 0.3640	 4.6770
 0.3650	 4.5200
 0.3660	 4.5640
 0.3670	 4.6520
 0.3680	 4.7060
 0.3690	 4.7120
 0.3700	 4.6530
 0.3710	 4.5980
 0.3720	 4.5960
 0.3730	 4.6490
 0.3740	 4.6360
 0.3750	 4.5740
 0.3760	 4.5200
 0.3770	 4.4970
 0.3780	 4.4970
 0.3790	 4.5070
 0.3800	 4.5080
 0.3810	 4.5030
 0.3820	 4.5190
 0.3830	 4.5480
 0.3840	 4.4820
 0.3850	 4.4430
 0.3860	 4.4500
 0.3870	 4.4780
 0.3880	 4.4810
 0.3890	 4.4770
 0.3900	 4.4620
 0.3910	 4.4180
 0.3920	 4.4510
 0.3930	 4.4900
 0.3940	 4.4760
 0.3950	 4.4710
 0.3960	 4.4650
 0.3970	 4.4540
 0.3980	 4.4410
 0.3990	 4.4310
 0.4000	 4.4220
 0.4010	 4.4140
 0.4020	 4.4180
 0.4030	 4.4470
 0.4040	 4.4650
 0.4050	 4.4480
 0.4060	 4.4590
 0.4070	 4.4480
 0.4080	 4.4340
 0.4090	 4.4750
 0.4100	 4.4940
 0.4110	 4.4970
 0.4120	 4.4930
 0.4130	 4.4780
 0.4140	 4.4930
 0.4150	 4.5300
 0.4160	 4.5640
 0.4170	 4.5740
 0.4180	 4.5770
 0.4190	 4.5950
 0.4200	 4.6400
 0.4210	 4.6650
 0.4220	 4.6810
 0.4230	 4.7000
 0.4240	 4.6930
 0.4250	 4.7200
 0.4260	 4.7570
 0.4270	 4.7530
 0.4280	 4.7610
 0.4290	 4.7790
 0.4300	 4.7970
 0.4310	 4.8010
 0.4320	 4.8340
 0.4330	 4.8620
 0.4340	 4.8530
 0.4350	 4.8610
 0.4360	 4.8660
 0.4370	 4.8650
 0.4380	 4.8690
 0.4390	 4.8820
 0.4400	 4.8910
 0.4410	 4.8900
 0.4420	 4.8880
 0.4430	 4.8940
 0.4440	 4.9060
 0.4450	 4.9190
 0.4460	 4.9140
 0.4470	 4.9160
 0.4480	 4.9320
 0.4490	 4.9520
 0.4500	 4.9500
 0.4510	 4.9460
 0.4520	 4.9600
 0.4530	 4.9710
 0.4540	 4.9840
 0.4550	 4.9960
 0.4560	 4.9950
 0.4570	 4.9850
 0.4580	 4.9790
 0.4590	 4.9820
 0.4600	 4.9840
 0.4610	 4.9870
 0.4620	 4.9960
 0.4630	 5.0110
 0.4640	 5.0060
 0.4650	 4.9940
 0.4660	 4.9830
 0.4670	 4.9760
 0.4680	 4.9830
 0.4690	 4.9970
 0.4700	 5.0080
 0.4710	 4.9970
 0.4720	 4.9830
 0.4730	 4.9770
 0.4740	 4.9820
 0.4750	 4.9880
 0.4760	 4.9860
 0.4770	 4.9760
 0.4780	 4.9760
 0.4790	 4.9770
 0.4800	 4.9810
 0.4810	 4.9880
 0.4820	 4.9840
 0.4830	 4.9820
 0.4840	 4.9890
 0.4850	 5.0030
 0.4860	 5.0070
 0.4870	 5.0090
 0.4880	 5.0180
 0.4890	 5.0270
 0.4900	 5.0330
 0.4910	 5.0420
 0.4920	 5.0600
 0.4930	 5.0570
 0.4940	 5.0690
 0.4950	 5.1020
 0.4960	 5.1150
 0.4970	 5.1330
 0.4980	 5.1550
 0.4990	 5.1780
 0.5000	 5.2030
 0.5010	 5.2320
 0.5020	 5.2660
 0.5030	 5.3090
 0.5040	 5.3570
 0.5050	 5.4070
 0.5060	 5.4590
 0.5070	 5.5180
 0.5080	 5.5830
 0.5090	 5.6560
 0.5100	 5.7430
 0.5110	 5.8340
 0.5120	 5.9290
 0.5130	 6.0310
 0.5140	 6.1490
 0.5150	 6.2780
 0.5160	 6.4190
 0.5170	 6.5690
 0.5180	 6.7220
 0.5190	 6.8890
 0.5200	 7.0670
 0.5210	 7.2370
 0.5220	 7.4130
 0.5230	 7.5940
 0.5240	 7.7780
 0.5250	 7.9630
 0.5260	 8.1430
 0.5270	 8.3120
 0.5280	 8.4700
 0.5290	 8.6160
 0.5300	 8.7590
 0.5310	 8.8960
 0.5320	 9.0140
 0.5330	 9.1200
 0.5340	 9.2220
 0.5350	 9.3210
 0.5360	 9.3990
 0.5370	 9.4680
 0.5380	 9.5300
 0.5390	 9.5860
 0.5400	 9.6470
 0.5410	 9.7090
 0.5420	 9.7630
 0.5430	 9.8110
 0.5440	 9.8550
 0.5450	 9.8960
 0.5460	 9.9350
 0.5470	 9.9510
 0.5480	 9.9630
 0.5490	 9.9790
 0.5500	 9.9990
 0.5510	10.0140
 0.5520	10.0180
 0.5530	10.0080
 0.5540	 9.9860
 0.5550	 9.9530
 0.5560	 9.9090
 0.5570	 9.8560
 0.5580	 9.7860
 0.5590	 9.7090
 0.5600	 9.6280
 0.5610	 9.5350
 0.5620	 9.4360
 0.5630	 9.3320
 0.5640	 9.2230
 0.5650	 9.1130
 0.5660	 8.9990
 0.5670	 8.8760
 0.5680	 8.7450
 0.5690	 8.6160
 0.5700	 8.4900
 0.5710	 8.3670
 0.5720	 8.2510
 0.5730	 8.1370
 0.5740	 8.0270
 0.5750	 7.9280
 0.5760	 7.8350
 0.5770	 7.7530
 0.5780	 7.6780
 0.5790	 7.6030
 0.5800	 7.5330
 0.5810	 7.4690
 0.5820	 7.4120
 0.5830	 7.3550
 0.5840	 7.3000
 0.5850	 7.2490
 0.5860	 7.1990
 0.5870	 7.1530
 0.5880	 7.1100
 0.5890	 7.0680
 0.5900	 7.0310
 0.5910	 7.0000
 0.5920	 6.9750
 0.5930	 6.9520
 0.5940	 6.9270
 0.5950	 6.9020
 0.5960	 6.8820
 0.5970	 6.8660
 0.5980	 6.8480
 0.5990	 6.8270
 0.6000	 6.8010
 0.6010	 6.7780
 0.6020	 6.7550
 0.6030	 6.7250
 0.6040	 6.6890
 0.6050	 6.6540
 0.6060	 6.6160
 0.6070	 6.5730
 0.6080	 6.5310
 0.6090	 6.4910
 0.6100	 6.4540
 0.6110	 6.4220
 0.6120	 6.3730
 0.6130	 6.3150
 0.6140	 6.2600
 0.6150	 6.2150
 0.6160	 6.1700
 0.6170	 6.1270
 0.6180	 6.0920
 0.6190	 6.0590
 0.6200	 6.0300
 0.6210	 6.0050
 0.6220	 5.9810
 0.6230	 5.9620
 0.6240	 5.9440
 0.6250	 5.9270
 0.6260	 5.9140
 0.6270	 5.9060
 0.6280	 5.8990
 0.6290	 5.8920
 0.6300	 5.8860
 0.6310	 5.8800
 0.6320	 5.8720
 0.6330	 5.8600
 0.6340	 5.8450
 0.6350	 5.8250
 0.6360	 5.7980
 0.6370	 5.7730
 0.6380	 5.7380
 0.6390	 5.6970
 0.6400	 5.6600
 0.6410	 5.6170
 0.6420	 5.5730
 0.6430	 5.5320
 0.6440	 5.4890
 0.6450	 5.4470
 0.6460	 5.4060
 0.6470	 5.3680
 0.6480	 5.3360
 0.6490	 5.3080
 0.6500	 5.2850
 0.6510	 5.2660
 0.6520	 5.2480
 0.6530	 5.2300
 0.6540	 5.2120
 0.6550	 5.1970
 0.6560	 5.1810
 0.6570	 5.1610
 0.6580	 5.1370
 0.6590	 5.1150
 0.6600	 5.0930
 0.6610	 5.0710
 0.6620	 5.0490
 0.6630	 5.0310
 0.6640	 5.0180
 0.6650	 5.0060
 0.6660	 4.9920
 0.6670	 4.9880
 0.6680	 4.9900
 0.6690	 4.9880
 0.6700	 4.9920
 0.6710	 5.0000
 0.6720	 5.0110
 0.6730	 5.0290
 0.6740	 5.0480
 0.6750	 5.0670
 0.6760	 5.0870
 0.6770	 5.1110
 0.6780	 5.1430
 0.6790	 5.1790
 0.6800	 5.2120
 0.6810	 5.2480
 0.6820	 5.2880
 0.6830	 5.3330
 0.6840	 5.3810
 0.6850	 5.4390
 0.6860	 5.5030
 0.6870	 5.5720
 0.6880	 5.6580
 0.6890	 5.7640
 0.6900	 5.8960
 0.6910	 6.0640
 0.6920	 6.2730
 0.6930	 6.5280
 0.6940	 6.8360
 0.6950	 7.2070
 0.6960	 7.6410
 0.6970	 8.1390
 0.6980	 8.7040
 0.6990	 9.3290
 0.7000	10.0130
 0.7010	10.7530
 0.7020	11.5450
 0.7030	12.3750
 0.7040	13.2380
 0.7050	14.1260
 0.7060	15.0380
 0.7070	15.9710
 0.7080	16.9220
 0.7090	17.8850
 0.7100	18.8560
 0.7110	19.8390
 0.7120	20.8360
 0.7130	21.8390
 0.7140	22.8410
 0.7150	23.8440
 0.7160	24.8480
 0.7170	25.8490
 0.7180	26.8420
 0.7190	27.8260
 0.7200	28.7980
 0.7210	29.7530
 0.7220	30.6900
 0.7230	31.6090
 0.7240	32.5010
 0.7250	33.3680
 0.7260	34.2070
 0.7270	35.0130
 0.7280	35.7860
 0.7290	36.5240
 0.7300	37.2280
 0.7310	37.8990
 0.7320	38.5350
 0.7330	39.1390
 0.7340	39.7080
 0.7350	40.2430
 0.7360	40.7540
 0.7370	41.2320
 0.7380	41.6720
 0.7390	42.0880
 0.7400	42.4740
 0.7410	42.8330
 0.7420	43.1690
 0.7430	43.4800
 0.7440	43.7640
 0.7450	44.0250
 0.7460	44.2640
 0.7470	44.4840
 0.7480	44.6860
 0.7490	44.8680
 0.7500	45.0310
 0.7510	45.1790
 0.7520	45.3130
 0.7530	45.4350
 0.7540	45.5460
 0.7550	45.6460
 0.7560	45.7370
 0.7570	45.8180
 0.7580	45.8910
 0.7590	45.9590
 0.7600	46.0200
 0.7610	46.0690
 0.7620	46.1150
 0.7630	46.1570
 0.7640	46.1920
 0.7650	46.2270
 0.7660	46.2590
 0.7670	46.2870
 0.7680	46.3080
 0.7690	46.3260
 0.7700	46.3450
 0.7710	46.3660
 0.7720	46.3810
 0.7730	46.3980
 0.7740	46.4120
 0.7750	46.4200
 0.7760	46.4310
 0.7770	46.4450
 0.7780	46.4580
 0.7790	46.4670
 0.7800	46.4750
 0.7810	46.4870
 0.7820	46.5010
 0.7830	46.5080
 0.7840	46.5190
 0.7850	46.5300
 0.7860	46.5390
 0.7870	46.5490
 0.7880	46.5590
 0.7890	46.5690
 0.7900	46.5790
 0.7910	46.5840
 0.7920	46.5870
 0.7930	46.5900
 0.7940	46.5970
 0.7950	46.6060
 0.7960	46.6130
 0.7970	46.6170
 0.7980	46.6240
 0.7990	46.6250
 0.8000	46.6250
 0.8010	46.6290
 0.8020	46.6320
 0.8030	46.6350
 0.8040	46.6360
 0.8050	46.6330
 0.8060	46.6320
 0.8070	46.6330
 0.8080	46.6300
 0.8090	46.6260
 0.8100	46.6260
 0.8110	46.6260
 0.8120	46.6240
 0.8130	46.6190
 0.8140	46.6150
 0.8150	46.6110
 0.8160	46.6080
 0.8170	46.6060
 0.8180	46.6020
 0.8190	46.5970
 0.8200	46.5910
 0.8210	46.5860
 0.8220	46.5830
 0.8230	46.5780
 0.8240	46.5670
 0.8250	46.5610
 0.8260	46.5550
 0.8270	46.5470
 0.8280	46.5420
 0.8290	46.5370
 0.8300	46.5310
 0.8310	46.5220
 0.8320	46.5120
 0.8330	46.5020
 0.8340	46.4940
 0.8350	46.4920
 0.8360	46.4920
 0.8370	46.4860
 0.8380	46.4790
 0.8390	46.4810
 0.8400	46.4780
 0.8410	46.4760
 0.8420	46.4770
 0.8430	46.4700
 0.8440	46.4670
 0.8450	46.4640
 0.8460	46.4620
 0.8470	46.4620
 0.8480	46.4580
 0.8490	46.4530
 0.8500	46.4550
 0.8510	46.4550
 0.8520	46.4610
 0.8530	46.4680
 0.8540	46.4670
 0.8550	46.4670
 0.8560	46.4630
 0.8570	46.4590
 0.8580	46.4690
 0.8590	46.4750
 0.8600	46.4750
 0.8610	46.4700
 0.8620	46.4690
 0.8630	46.4710
 0.8640	46.4740
 0.8650	46.4790
 0.8660	46.4800
 0.8670	46.4800
 0.8680	46.4800
 0.8690	46.4840
 0.8700	46.4900
 0.8710	46.4950
 0.8720	46.4980
 0.8730	46.5000
 0.8740	46.5040
 0.8750	46.5090
 0.8760	46.5150
 0.8770	46.5230
 0.8780	46.5240
 0.8790	46.5250
 0.8800	46.5270
 0.8810	46.5300
 0.8820	46.5340
 0.8830	46.5370
 0.8840	46.5370
 0.8850	46.5370
 0.8860	46.5460
 0.8870	46.5550
 0.8880	46.5550
 0.8890	46.5570
 0.8900	46.5620
 0.8910	46.5640
 0.8920	46.5620
 0.8930	46.5710
 0.8940	46.5710
 0.8950	46.5660
 0.8960	46.5720
 0.8970	46.5810
 0.8980	46.5840
 0.8990	46.5790
 0.9000	46.5750
 0.9010	46.5840
 0.9020	46.5920
 0.9030	46.5930
 0.9040	46.5900
 0.9050	46.5930
 0.9060	46.5960
 0.9070	46.6000
 0.9080	46.6100
 0.9090	46.6050
 0.9100	46.5980
 0.9110	46.6010
 0.9120	46.6080
 0.9130	46.6080
 0.9140	46.6070
 0.9150	46.6140
 0.9160	46.6100
 0.9170	46.6080
 0.9180	46.6110
 0.9190	46.6110
 0.9200	46.6020
 0.9210	46.5980
 0.9220	46.5980
 0.9230	46.5960
 0.9240	46.6030
 0.9250	46.5980
 0.9260	46.5790
 0.9270	46.5640
 0.9280	46.5580
 0.9290	46.5560
 0.9300	46.5490
 0.9310	46.5330
 0.9320	46.5110
 0.9330	46.4960
 0.9340	46.4870
 0.9350	46.4660
 0.9360	46.4550
 0.9370	46.4380
 0.9380	46.4120
 0.9390	46.3920
 0.9400	46.3700
 0.9410	46.3410
 0.9420	46.3100
 0.9430	46.3060
 0.9440	46.2880
 0.9450	46.2530
 0.9460	46.2100
 0.9470	46.1740
 0.9480	46.1420
 0.9490	46.1070
 0.9500	46.0630
 0.9510	46.0110
 0.9520	45.9540
 0.9530	45.8990
 0.9540	45.8500
 0.9550	45.7930
 0.9560	45.7350
 0.9570	45.6830
 0.9580	45.6370
 0.9590	45.5850
 0.9600	45.5420
 0.9610	45.5100
 0.9620	45.4850
 0.9630	45.4540
 0.9640	45.4200
 0.9650	45.3850
 0.9660	45.3540
 0.9670	45.3390
 0.9680	45.3260
 0.9690	45.3100
 0.9700	45.2910
 0.9710	45.2610
 0.9720	45.2510
 0.9730	45.2510
 0.9740	45.2380
 0.9750	45.2320
 0.9760	45.2280
 0.9770	45.2180
 0.9780	45.1980
 0.9790	45.1880
 0.9800	45.2010
 0.9810	45.2190
 0.9820	45.2190
 0.9830	45.2200
 0.9840	45.2160
 0.9850	45.2170
 0.9860	45.2350
 0.9870	45.2480
 0.9880	45.2570
 0.9890	45.2650
 0.9900	45.2710
 0.9910	45.2800
 0.9920	45.3290
 0.9930	45.3770
 0.9940	45.4260
 0.9950	45.4750
 0.9960	45.5240
 0.9970	45.5720
 0.9980	45.6210
 0.9990	45.6700
 1.0000	45.7180
 1.0010	45.7670
 1.0020	45.8160
 1.0030	45.8650
 1.0040	45.9130
 1.0050	45.9620
 1.0060	46.0110
 1.0070	46.0600
 1.0080	46.1080
 1.0090	46.1570
 1.0100	46.1570
 1.0110	46.1730
 1.0120	46.1890
 1.0130	46.2010
 1.0140	46.2160
 1.0150	46.2320
 1.0160	46.2490
 1.0170	46.2670
 1.0180	46.2850
 1.0190	46.3030
 1.0200	46.3200
 1.0210	46.3310
 1.0220	46.3420
 1.0230	46.3570
 1.0240	46.3730
 1.0250	46.3900
 1.0260	46.4160
 1.0270	46.4330
 1.0280	46.4420
 1.0290	46.4570
 1.0300	46.4730
 1.0310	46.4860
 1.0320	46.4990
 1.0330	46.5100
 1.0340	46.5180
 1.0350	46.5280
 1.0360	46.5440
 1.0370	46.5620
 1.0380	46.5790
 1.0390	46.5980
 1.0400	46.6120
 1.0410	46.6230
 1.0420	46.6330
 1.0430	46.6390
 1.0440	46.6490
 1.0450	46.6630
 1.0460	46.6730
 1.0470	46.6850
 1.0480	46.6960
 1.0490	46.7040
 1.0500	46.7130
 1.0510	46.7240
 1.0520	46.7340
 1.0530	46.7410
 1.0540	46.7450
 1.0550	46.7520
 1.0560	46.7580
 1.0570	46.7650
 1.0580	46.7750
 1.0590	46.7790
 1.0600	46.7770
 1.0610	46.7790
 1.0620	46.7800
 1.0630	46.7830
 1.0640	46.7900
 1.0650	46.7950
 1.0660	46.7960
 1.0670	46.7990
 1.0680	46.8030
 1.0690	46.8060
 1.0700	46.8080
 1.0710	46.8090
 1.0720	46.8100
 1.0730	46.8100
 1.0740	46.8100
 1.0750	46.8130
 1.0760	46.8120
 1.0770	46.8080
 1.0780	46.8050
 1.0790	46.8030
 1.0800	46.8000
 1.0810	46.7990
 1.0820	46.7960
 1.0830	46.7920
 1.0840	46.7870
 1.0850	46.7820
 1.0860	46.7730
 1.0870	46.7680
 1.0880	46.7640
 1.0890	46.7570
 1.0900	46.7510
 1.0910	46.7450
 1.0920	46.7370
 1.0930	46.7290
 1.0940	46.7200
 1.0950	46.7120
 1.0960	46.7020
 1.0970	46.6940
 1.0980	46.6890
 1.0990	46.6810
 1.1000	46.6720
 1.1010	46.6620
 1.1020	46.6510
 1.1030	46.6400
 1.1040	46.6260
 1.1050	46.6140
 1.1060	46.6020
 1.1070	46.5910
 1.1080	46.5780
 1.1090	46.5660
 1.1100	46.5510
 1.1110	46.5330
 1.1120	46.5160
 1.1130	46.4970
 1.1140	46.4800
 1.1150	46.4660
 1.1160	46.4470
 1.1170	46.4280
 1.1180	46.4060
 1.1190	46.3780
 1.1200	46.3500
 1.1210	46.3220
 1.1220	46.2920
 1.1230	46.2580
 1.1240	46.2200
 1.1250	46.1790
 1.1260	46.1330
 1.1270	46.0810
 1.1280	46.0260
 1.1290	45.9630
 1.1300	45.8940
 1.1310	45.8210
 1.1320	45.7430
 1.1330	45.6590
 1.1340	45.5690
 1.1350	45.4740
 1.1360	45.3730
 1.1370	45.2690
 1.1380	45.1620
 1.1390	45.0470
 1.1400	44.9260
 1.1410	44.8060
 1.1420	44.6830
 1.1430	44.5610
 1.1440	44.4390
 1.1450	44.3170
 1.1460	44.1960
 1.1470	44.0740
 1.1480	43.9570
 1.1490	43.8420
 1.1500	43.7330
 1.1510	43.6270
 1.1520	43.5300
 1.1530	43.4380
 1.1540	43.3520
 1.1550	43.2730
 1.1560	43.2020
 1.1570	43.1340
 1.1580	43.0730
 1.1590	43.0200
 1.1600	42.9690
 1.1610	42.9230
 1.1620	42.8810
 1.1630	42.8410
 1.1640	42.8070
 1.1650	42.7770
 1.1660	42.7550
 1.1670	42.7300
 1.1680	42.7080
 1.1690	42.6850
 1.1700	42.6610
 1.1710	42.6390
 1.1720	42.6210
 1.1730	42.6010
 1.1740	42.5820
 1.1750	42.5640
 1.1760	42.5460
 1.1770	42.5260
 1.1780	42.5030
 1.1790	42.4810
 1.1800	42.4580
 1.1810	42.4360
 1.1820	42.4160
 1.1830	42.3960
 1.1840	42.3760
 1.1850	42.3570
 1.1860	42.3370
 1.1870	42.3180
 1.1880	42.3000
 1.1890	42.2810
 1.1900	42.2660
 1.1910	42.2520
 1.1920	42.2400
 1.1930	42.2300
 1.1940	42.2230
 1.1950	42.2160
 1.1960	42.2110
 1.1970	42.2080
 1.1980	42.2050
 1.1990	42.2040
 1.2000	42.2030
 1.2010	42.2070
 1.2020	42.2150
 1.2030	42.2220
 1.2040	42.2340
 1.2050	42.2480
 1.2060	42.2630
 1.2070	42.2800
 1.2080	42.3010
 1.2090	42.3230
 1.2100	42.3460
 1.2110	42.3700
 1.2120	42.3940
 1.2130	42.4210
 1.2140	42.4500
 1.2150	42.4800
 1.2160	42.5140
 1.2170	42.5450
 1.2180	42.5750
 1.2190	42.6070
 1.2200	42.6390
 1.2210	42.6730
 1.2220	42.7060
 1.2230	42.7380
 1.2240	42.7690
 1.2250	42.8000
 1.2260	42.8300
 1.2270	42.8600
 1.2280	42.8900
 1.2290	42.9170
 1.2300	42.9460
 1.2310	42.9760
 1.2320	43.0020
 1.2330	43.0280
 1.2340	43.0530
 1.2350	43.0750
 1.2360	43.0970
 1.2370	43.1200
 1.2380	43.1420
 1.2390	43.1610
 1.2400	43.1840
 1.2410	43.2040
 1.2420	43.2230
 1.2430	43.2420
 1.2440	43.2580
 1.2450	43.2750
 1.2460	43.2910
 1.2470	43.3060
 1.2480	43.3210
 1.2490	43.3350
 1.2500	43.3480
 1.2510	43.3610
 1.2520	43.3720
 1.2530	43.3810
 1.2540	43.3890
 1.2550	43.3970
 1.2560	43.4060
 1.2570	43.4150
 1.2580	43.4220
 1.2590	43.4280
 1.2600	43.4330
 1.2610	43.4370
 1.2620	43.4400
 1.2630	43.4450
 1.2640	43.4460
 1.2650	43.4490
 1.2660	43.4520
 1.2670	43.4480
 1.2680	43.4470
 1.2690	43.4470
 1.2700	43.4440
 1.2710	43.4410
 1.2720	43.4400
 1.2730	43.4360
 1.2740	43.4270
 1.2750	43.4190
 1.2760	43.4110
 1.2770	43.4020
 1.2780	43.3920
 1.2790	43.3820
 1.2800	43.3680
 1.2810	43.3530
 1.2820	43.3380
 1.2830	43.3250
 1.2840	43.3100
 1.2850	43.2910
 1.2860	43.2710
 1.2870	43.2480
 1.2880	43.2230
 1.2890	43.1960
 1.2900	43.1700
 1.2910	43.1400
 1.2920	43.1080
 1.2930	43.0770
 1.2940	43.0430
 1.2950	43.0060
 1.2960	42.9660
 1.2970	42.9250
 1.2980	42.8820
 1.2990	42.8390
 1.3000	42.7960
 1.3010	42.7480
 1.3020	42.6950
 1.3030	42.6400
 1.3040	42.5830
 1.3050	42.5220
 1.3060	42.4600
 1.3070	42.3940
 1.3080	42.3250
 1.3090	42.2560
 1.3100	42.1850
 1.3110	42.1110
 1.3120	42.0370
 1.3130	41.9600
 1.3140	41.8770
 1.3150	41.7920
 1.3160	41.7040
 1.3170	41.6120
 1.3180	41.5180
 1.3190	41.4230
 1.3200	41.3230
 1.3210	41.2200
 1.3220	41.1140
 1.3230	41.0040
 1.3240	40.8930
 1.3250	40.7800
 1.3260	40.6640
 1.3270	40.5460
 1.3280	40.4280
 1.3290	40.3050
 1.3300	40.1800
 1.3310	40.0520
 1.3320	39.9220
 1.3330	39.7920
 1.3340	39.6590
 1.3350	39.5260
 1.3360	39.3930
 1.3370	39.2560
 1.3380	39.1210
 1.3390	38.9860
 1.3400	38.8490
 1.3410	38.7160
 1.3420	38.5830
 1.3430	38.4510
 1.3440	38.3210
 1.3450	38.1920
 1.3460	38.0630
 1.3470	37.9360
 1.3480	37.8080
 1.3490	37.6820
 1.3500	37.5580
 1.3510	37.4340
 1.3520	37.3100
 1.3530	37.1860
 1.3540	37.0630
 1.3550	36.9390
 1.3560	36.8140
 1.3570	36.6890
 1.3580	36.5630
 1.3590	36.4330
 1.3600	36.3010
 1.3610	36.1670
 1.3620	36.0250
 1.3630	35.8790
 1.3640	35.7290
 1.3650	35.5700
 1.3660	35.4070
 1.3670	35.2360
 1.3680	35.0540
 1.3690	34.8610
 1.3700	34.6560
 1.3710	34.4400
 1.3720	34.2080
 1.3730	33.9610
 1.3740	33.6990
 1.3750	33.4170
 1.3760	33.1150
 1.3770	32.7950
 1.3780	32.4480
 1.3790	32.0800
 1.3800	31.6890
 1.3810	31.2700
 1.3820	30.8350
 1.3830	30.3790
 1.3840	29.9060
 1.3850	29.4130
 1.3860	28.9060
 1.3870	28.3770
 1.3880	27.8430
 1.3890	27.2960
 1.3900	26.7390
 1.3910	26.1820
 1.3920	25.6190
 1.3930	25.0510
 1.3940	24.4840
 1.3950	23.9140
 1.3960	23.3510
 1.3970	22.8000
 1.3980	22.2580
 1.3990	21.7360
 1.4000	21.2280
 1.4010	20.7320
 1.4020	20.2560
 1.4030	19.7950
 1.4040	19.3550
 1.4050	18.9370
 1.4060	18.5390
 1.4070	18.1650
 1.4080	17.8130
 1.4090	17.4790
 1.4100	17.1680
 1.4110	16.8750
 1.4120	16.6010
 1.4130	16.3470
 1.4140	16.1100
 1.4150	15.8930
 1.4160	15.6920
 1.4170	15.5060
 1.4180	15.3360
 1.4190	15.1770
 1.4200	15.0310
 1.4210	14.8960
 1.4220	14.7730
 1.4230	14.6620
 1.4240	14.5610
 1.4250	14.4680
 1.4260	14.3860
 1.4270	14.3090
 1.4280	14.2400
 1.4290	14.1780
 1.4300	14.1230
 1.4310	14.0740
 1.4320	14.0330
 1.4330	13.9970
 1.4340	13.9670
 1.4350	13.9410
 1.4360	13.9190
 1.4370	13.9010
 1.4380	13.8870
 1.4390	13.8770
 1.4400	13.8720
 1.4410	13.8690
 1.4420	13.8680
 1.4430	13.8720
 1.4440	13.8770
 1.4450	13.8840
 1.4460	13.8940
 1.4470	13.9050
 1.4480	13.9180
 1.4490	13.9330
 1.4500	13.9500
 1.4510	13.9670
 1.4520	13.9860
 1.4530	14.0070
 1.4540	14.0290
 1.4550	14.0530
 1.4560	14.0790
 1.4570	14.1080
 1.4580	14.1390
 1.4590	14.1740
 1.4600	14.2120
 1.4610	14.2530
 1.4620	14.2970
 1.4630	14.3460
 1.4640	14.3990
 1.4650	14.4570
 1.4660	14.5210
 1.4670	14.5890
 1.4680	14.6620
 1.4690	14.7370
 1.4700	14.8170
 1.4710	14.9020
 1.4720	14.9890
 1.4730	15.0810
 1.4740	15.1770
 1.4750	15.2740
 1.4760	15.3770
 1.4770	15.4820
 1.4780	15.5880
 1.4790	15.6980
 1.4800	15.8070
 1.4810	15.9180
 1.4820	16.0320
 1.4830	16.1470
 1.4840	16.2630
 1.4850	16.3800
 1.4860	16.4980
 1.4870	16.6170
 1.4880	16.7350
 1.4890	16.8540
 1.4900	16.9740
 1.4910	17.0940
 1.4920	17.2160
 1.4930	17.3390
 1.4940	17.4610
 1.4950	17.5860
 1.4960	17.7090
 1.4970	17.8320
 1.4980	17.9550
 1.4990	18.0770
 1.5000	18.1990
 1.5010	18.3230
 1.5020	18.4460
 1.5030	18.5700
 1.5040	18.6930
 1.5050	18.8150
 1.5060	18.9380
 1.5070	19.0590
 1.5080	19.1810
 1.5090	19.3020
 1.5100	19.4230
 1.5110	19.5430
 1.5120	19.6630
 1.5130	19.7810
 1.5140	19.9000
 1.5150	20.0170
 1.5160	20.1340
 1.5170	20.2520
 1.5180	20.3680
 1.5190	20.4840
 1.5200	20.5980
 1.5210	20.7110
 1.5220	20.8240
 1.5230	20.9370
 1.5240	21.0480
 1.5250	21.1590
 1.5260	21.2690
 1.5270	21.3770
 1.5280	21.4850
 1.5290	21.5920
 1.5300	21.6960
 1.5310	21.8010
 1.5320	21.9040
 1.5330	22.0070
 1.5340	22.1090
 1.5350	22.2090
 1.5360	22.3100
 1.5370	22.4090
 1.5380	22.5060
 1.5390	22.6040
 1.5400	22.7010
 1.5410	22.7970
 1.5420	22.8920
 1.5430	22.9860
 1.5440	23.0810
 1.5450	23.1720
 1.5460	23.2620
 1.5470	23.3530
 1.5480	23.4420
 1.5490	23.5300
 1.5500	23.6170
 1.5510	23.7030
 1.5520	23.7900
 1.5530	23.8760
 1.5540	23.9610
 1.5550	24.0450
 1.5560	24.1280
 1.5570	24.2110
 1.5580	24.2920
 1.5590	24.3720
 1.5600	24.4520
 1.5610	24.5290
 1.5620	24.6050
 1.5630	24.6830
 1.5640	24.7570
 1.5650	24.8330
 1.5660	24.9070
 1.5670	24.9810
 1.5680	25.0550
 1.5690	25.1270
 1.5700	25.1990
 1.5710	25.2720
 1.5720	25.3430
 1.5730	25.4150
 1.5740	25.4870
 1.5750	25.5560
 1.5760	25.6260
 1.5770	25.6960
 1.5780	25.7650
 1.5790	25.8340
 1.5800	25.9020
 1.5810	25.9690
 1.5820	26.0370
 1.5830	26.1040
 1.5840	26.1710
 1.5850	26.2370
 1.5860	26.3020
 1.5870	26.3670
 1.5880	26.4310
 1.5890	26.4950
 1.5900	26.5570
 1.5910	26.6200
 1.5920	26.6830
 1.5930	26.7470
 1.5940	26.8120
 1.5950	26.8770
 1.5960	26.9400
 1.5970	27.0010
 1.5980	27.0610
 1.5990	27.1210
 1.6000	27.1820
 1.6010	27.2410
 1.6020	27.3000
 1.6030	27.3580
 1.6040	27.4150
 1.6050	27.4700
 1.6060	27.5260
 1.6070	27.5810
 1.6080	27.6340
 1.6090	27.6880
 1.6100	27.7410
 1.6110	27.7930
 1.6120	27.8450
 1.6130	27.8960
 1.6140	27.9450
 1.6150	27.9930
 1.6160	28.0400
 1.6170	28.0860
 1.6180	28.1310
 1.6190	28.1760
 1.6200	28.2200
 1.6210	28.2640
 1.6220	28.3060
 1.6230	28.3480
 1.6240	28.3890
 1.6250	28.4260
 1.6260	28.4630
 1.6270	28.5000
 1.6280	28.5370
 1.6290	28.5730
 1.6300	28.6090
 1.6310	28.6440
 1.6320	28.6780
 1.6330	28.7120
 1.6340	28.7460
 1.6350	28.7780
 1.6360	28.8090
 1.6370	28.8390
 1.6380	28.8690
 1.6390	28.8970
 1.6400	28.9250
 1.6410	28.9480
 1.6420	28.9690
 1.6430	28.9860
 1.6440	29.0000
 1.6450	29.0140
 1.6460	29.0250
 1.6470	29.0320
 1.6480	29.0350
 1.6490	29.0340
 1.6500	29.0310
 1.6510	29.0250
 1.6520	29.0180
 1.6530	29.0080
 1.6540	28.9980
 1.6550	28.9820
 1.6560	28.9650
 1.6570	28.9470
 1.6580	28.9240
 1.6590	28.9020
 1.6600	28.8810
 1.6610	28.8580
 1.6620	28.8370
 1.6630	28.8150
 1.6640	28.7940
 1.6650	28.7760
 1.6660	28.7560
 1.6670	28.7360
 1.6680	28.7180
 1.6690	28.7010
 1.6700	28.6860
 1.6710	28.6690
 1.6720	28.6520
 1.6730	28.6310
 1.6740	28.6120
 1.6750	28.5930
 1.6760	28.5730
 1.6770	28.5520
 1.6780	28.5280
 1.6790	28.5000
 1.6800	28.4700
 1.6810	28.4370
 1.6820	28.4000
 1.6830	28.3610
 1.6840	28.3200
 1.6850	28.2770
 1.6860	28.2310
 1.6870	28.1820
 1.6880	28.1310
 1.6890	28.0800
 1.6900	28.0290
 1.6910	27.9780
 1.6920	27.9260
 1.6930	27.8740
 1.6940	27.8210
 1.6950	27.7690
 1.6960	27.7160
 1.6970	27.6630
 1.6980	27.6090
 1.6990	27.5530
 1.7000	27.4970
 1.7010	27.4390
 1.7020	27.3790
 1.7030	27.3170
 1.7040	27.2540
 1.7050	27.1900
 1.7060	27.1240
 1.7070	27.0550
 1.7080	26.9900
 1.7090	26.9230
 1.7100	26.8590
 1.7110	26.7980
 1.7120	26.7350
 1.7130	26.6750
 1.7140	26.6160
 1.7150	26.5600
 1.7160	26.5080
 1.7170	26.4580
 1.7180	26.4120
 1.7190	26.3670
 1.7200	26.3240
 1.7210	26.2800
 1.7220	26.2370
 1.7230	26.1970
 1.7240	26.1590
 1.7250	26.1230
 1.7260	26.0910
 1.7270	26.0590
 1.7280	26.0280
 1.7290	25.9970
 1.7300	25.9680
 1.7310	25.9390
 1.7320	25.9130
 1.7330	25.8840
 1.7340	25.8530
 1.7350	25.8220
 1.7360	25.7930
 1.7370	25.7590
 1.7380	25.7240
 1.7390	25.6860
 1.7400	25.6440
 1.7410	25.5990
 1.7420	25.5520
 1.7430	25.5040
 1.7440	25.4530
 1.7450	25.4020
 1.7460	25.3490
 1.7470	25.2980
 1.7480	25.2460
 1.7490	25.1940
 1.7500	25.1440
 1.7510	25.0920
 1.7520	25.0370
 1.7530	24.9870
 1.7540	24.9370
 1.7550	24.8900
 1.7560	24.8440
 1.7570	24.8010
 1.7580	24.7580
 1.7590	24.7140
 1.7600	24.6720
 1.7610	24.6330
 1.7620	24.5960
 1.7630	24.5630
 1.7640	24.5310
 1.7650	24.5020
 1.7660	24.4720
 1.7670	24.4410
 1.7680	24.4100
 1.7690	24.3780
 1.7700	24.3490
 1.7710	24.3210
 1.7720	24.2930
 1.7730	24.2640
 1.7740	24.2380
 1.7750	24.2130
 1.7760	24.1880
 1.7770	24.1640
 1.7780	24.1410
 1.7790	24.1170
 1.7800	24.0980
 1.7810	24.0820
 1.7820	24.0680
 1.7830	24.0570
 1.7840	24.0480
 1.7850	24.0420
 1.7860	24.0360
 1.7870	24.0330
 1.7880	24.0300
 1.7890	24.0270
 1.7900	24.0260
 1.7910	24.0250
 1.7920	24.0250
 1.7930	24.0260
 1.7940	24.0290
 1.7950	24.0330
 1.7960	24.0400
 1.7970	24.0470
 1.7980	24.0540
 1.7990	24.0610
 1.8000	24.0670
 1.8010	24.0740
 1.8020	24.0820
 1.8030	24.0910
 1.8040	24.1030
 1.8050	24.1130
 1.8060	24.1250
 1.8070	24.1340
 1.8080	24.1400
 1.8090	24.1480
 1.8100	24.1560
 1.8110	24.1650
 1.8120	24.1740
 1.8130	24.1800
 1.8140	24.1870
 1.8150	24.1930
 1.8160	24.1970
 1.8170	24.2000
 1.8180	24.2020
 1.8190	24.2050
 1.8200	24.2070
 1.8210	24.2100
 1.8220	24.2110
 1.8230	24.2090
 1.8240	24.2060
 1.8250	24.2020
 1.8260	24.1960
 1.8270	24.1580
 1.8280	24.1210
 1.8290	24.0830
 1.8300	24.0450
 1.8310	24.0070
 1.8320	23.9700
 1.8330	23.9320
 1.8340	23.8940
 1.8350	23.8940
 1.8360	23.8590
 1.8370	23.8150
 1.8380	23.7710
 1.8390	23.7230
 1.8400	23.6750
 1.8410	23.6180
 1.8420	23.5560
 1.8430	23.4840
 1.8440	23.4030
 1.8450	23.3200
 1.8460	23.2300
 1.8470	23.1340
 1.8480	23.0300
 1.8490	22.9160
 1.8500	22.7900
 1.8510	22.6540
 1.8520	22.5040
 1.8530	22.3450
 1.8540	22.1750
 1.8550	21.9910
 1.8560	21.7970
 1.8570	21.5920
 1.8580	21.3710
 1.8590	21.1370
 1.8600	20.8910
 1.8610	20.6290
 1.8620	20.3500
 1.8630	20.0580
 1.8640	19.7460
 1.8650	19.4180
 1.8660	19.0770
 1.8670	18.7140
 1.8680	18.3370
 1.8690	17.9400
 1.8700	17.5250
 1.8710	17.0920
 1.8720	16.6500
 1.8730	16.1920
 1.8740	15.7250
 1.8750	15.2540
 1.8760	14.7710
 1.8770	14.2860
 1.8780	13.8040
 1.8790	13.3180
 1.8800	12.8420
 1.8810	12.3710
 1.8820	11.9020
 1.8830	11.4350
 1.8840	10.9760
 1.8850	10.5200
 1.8860	10.0760
 1.8870	 9.6490
 1.8880	 9.2330
 1.8890	 8.8400
 1.8900	 8.4650
 1.8910	 8.1100
 1.8920	 7.7710
 1.8930	 7.4570
 1.8940	 7.1580
 1.8950	 6.8830
 1.8960	 6.6290
 1.8970	 6.3940
 1.8980	 6.1800
 1.8990	 5.9840
 1.9000	 5.8050
 1.9010	 5.6460
 1.9020	 5.4990
 1.9030	 5.3690
 1.9040	 5.2530
 1.9050	 5.1480
 1.9060	 5.0560
 1.9070	 4.9770
 1.9080	 4.9060
 1.9090	 4.8410
 1.9100	 4.7850
 1.9110	 4.7340
 1.9120	 4.6910
 1.9130	 4.6530
 1.9140	 4.6210
 1.9150	 4.5920
 1.9160	 4.5670
 1.9170	 4.5430
 1.9180	 4.5240
 1.9190	 4.5080
 1.9200	 4.4940
 1.9210	 4.4840
 1.9220	 4.4760
 1.9230	 4.4700
 1.9240	 4.4660
 1.9250	 4.4650
 1.9260	 4.4650
 1.9270	 4.4650
 1.9280	 4.4660
 1.9290	 4.4680
 1.9300	 4.4710
 1.9310	 4.4760
 1.9320	 4.4840
 1.9330	 4.4940
 1.9340	 4.5060
 1.9350	 4.5180
 1.9360	 4.5330
 1.9370	 4.5480
 1.9380	 4.5640
 1.9390	 4.5800
 1.9400	 4.5990
 1.9410	 4.6180
 1.9420	 4.6350
 1.9430	 4.6550
 1.9440	 4.6750
 1.9450	 4.6940
 1.9460	 4.7160
 1.9470	 4.7400
 1.9480	 4.7650
 1.9490	 4.7910
 1.9500	 4.8180
 1.9510	 4.8440
 1.9520	 4.8720
 1.9530	 4.9000
 1.9540	 4.9290
 1.9550	 4.9590
 1.9560	 4.9910
 1.9570	 5.0230
 1.9580	 5.0540
 1.9590	 5.0890
 1.9600	 5.1260
 1.9610	 5.1620
 1.9620	 5.2000
 1.9630	 5.2400
 1.9640	 5.2800
 1.9650	 5.3210
 1.9660	 5.3640
 1.9670	 5.4060
 1.9680	 5.4490
 1.9690	 5.4910
 1.9700	 5.5350
 1.9710	 5.5780
 1.9720	 5.6230
 1.9730	 5.6680
 1.9740	 5.7150
 1.9750	 5.7650
 1.9760	 5.8140
 1.9770	 5.8640
 1.9780	 5.9160
 1.9790	 5.9670
 1.9800	 6.0160
 1.9810	 6.0670
 1.9820	 6.1200
 1.9830	 6.1720
 1.9840	 6.2270
 1.9850	 6.2810
 1.9860	 6.3330
 1.9870	 6.3880
 1.9880	 6.4430
 1.9890	 6.5000
 1.9900	 6.5570
 1.9910	 6.6140
 1.9920	 6.6710
 1.9930	 6.7290
 1.9940	 6.7870
 1.9950	 6.8440
 1.9960	 6.9020
 1.9970	 6.9620
 1.9980	 7.0200
 1.9990	 7.0780
 2.0000	 7.1380
 2.0010	 7.1960
 2.0020	 7.2530
 2.0030	 7.3110
 2.0040	 7.3670
 2.0050	 7.4250
 2.0060	 7.4840
 2.0070	 7.5430
 2.0080	 7.6030
 2.0090	 7.6620
 2.0100	 7.7190
 2.0110	 7.7770
 2.0120	 7.8350
 2.0130	 7.8910
 2.0140	 7.9460
 2.0150	 8.0010
 2.0160	 8.0550
 2.0170	 8.1100
 2.0180	 8.1640
 2.0190	 8.2160
 2.0200	 8.2700
 2.0210	 8.3240
 2.0220	 8.3760
 2.0230	 8.4290
 2.0240	 8.4800
 2.0250	 8.5290
 2.0260	 8.5780
 2.0270	 8.6270
 2.0280	 8.6740
 2.0290	 8.7220
 2.0300	 8.7670
 2.0310	 8.8090
 2.0320	 8.8470
 2.0330	 8.8880
 2.0340	 8.9290
 2.0350	 8.9690
 2.0360	 9.0120
 2.0370	 9.0530
 2.0380	 9.0910
 2.0390	 9.1300
 2.0400	 9.1660
 2.0410	 9.2030
 2.0420	 9.2410
 2.0430	 9.2770
 2.0440	 9.3110
 2.0450	 9.3460
 2.0460	 9.3790
 2.0470	 9.4090
 2.0480	 9.4410
 2.0490	 9.4730
 2.0500	 9.5050
 2.0510	 9.5350
 2.0520	 9.5670
 2.0530	 9.6020
 2.0540	 9.6360
 2.0550	 9.6720
 2.0560	 9.7080
 2.0570	 9.7420
 2.0580	 9.7760
 2.0590	 9.8100
 2.0600	 9.8430
 2.0610	 9.8770
 2.0620	 9.9120
 2.0630	 9.9460
 2.0640	 9.9810
 2.0650	10.0150
 2.0660	10.0480
 2.0670	10.0830
 2.0680	10.1190
 2.0690	10.1550
 2.0700	10.1920
 2.0710	10.2270
 2.0720	10.2610
 2.0730	10.2940
 2.0740	10.3280
 2.0750	10.3620
 2.0760	10.3970
 2.0770	10.4340
 2.0780	10.4700
 2.0790	10.5080
 2.0800	10.5420
 2.0810	10.5750
 2.0820	10.6080
 2.0830	10.6370
 2.0840	10.6680
 2.0850	10.7020
 2.0860	10.7350
 2.0870	10.7680
 2.0880	10.8000
 2.0890	10.8330
 2.0900	10.8660
 2.0910	10.8970
 2.0920	10.9270
 2.0930	10.9590
 2.0940	10.9910
 2.0950	11.0220
 2.0960	11.0560
 2.0970	11.0870
 2.0980	11.1140
 2.0990	11.1450
 2.1000	11.1770
 2.1010	11.2090
 2.1020	11.2440
 2.1030	11.2770
 2.1040	11.3110
 2.1050	11.3440
 2.1060	11.3760
 2.1070	11.4100
 2.1080	11.4400
 2.1090	11.4690
 2.1100	11.4980
 2.1110	11.5240
 2.1120	11.5540
 2.1130	11.5880
 2.1140	11.6190
 2.1150	11.6520
 2.1160	11.6830
 2.1170	11.7080
 2.1180	11.7370
 2.1190	11.7690
 2.1200	11.7970
 2.1210	11.8250
 2.1220	11.8540
 2.1230	11.8800
 2.1240	11.9020
 2.1250	11.9260
 2.1260	11.9500
 2.1270	11.9760
 2.1280	12.0040
 2.1290	12.0290
 2.1300	12.0560
 2.1310	12.0800
 2.1320	12.0990
 2.1330	12.1210
 2.1340	12.1450
 2.1350	12.1660
 2.1360	12.1880
 2.1370	12.2100
 2.1380	12.2280
 2.1390	12.2490
 2.1400	12.2690
 2.1410	12.2950
 2.1420	12.3210
 2.1430	12.3500
 2.1440	12.3770
 2.1450	12.4060
 2.1460	12.4320
 2.1470	12.4570
 2.1480	12.4810
 2.1490	12.5030
 2.1500	12.5260
 2.1510	12.5470
 2.1520	12.5710
 2.1530	12.5980
 2.1540	12.6250
 2.1550	12.6570
 2.1560	12.6840
 2.1570	12.7090
 2.1580	12.7350
 2.1590	12.7580
 2.1600	12.7800
 2.1610	12.8100
 2.1620	12.8410
 2.1630	12.8700
 2.1640	12.9020
 2.1650	12.9310
 2.1660	12.9550
 2.1670	12.9830
 2.1680	13.0130
 2.1690	13.0410
 2.1700	13.0690
 2.1710	13.0950
 2.1720	13.1190
 2.1730	13.1460
 2.1740	13.1730
 2.1750	13.2000
 2.1760	13.2270
 2.1770	13.2540
 2.1780	13.2830
 2.1790	13.3110
 2.1800	13.3390
 2.1810	13.3670
 2.1820	13.3970
 2.1830	13.4260
 2.1840	13.4550
 2.1850	13.4860
 2.1860	13.5160
 2.1870	13.5430
 2.1880	13.5730
 2.1890	13.6030
 2.1900	13.6330
 2.1910	13.6640
 2.1920	13.6920
 2.1930	13.7190
 2.1940	13.7450
 2.1950	13.7680
 2.1960	13.7930
 2.1970	13.8170
 2.1980	13.8420
 2.1990	13.8690
 2.2000	13.8940
 2.2010	13.9170
 2.2020	13.9390
 2.2030	13.9580
 2.2040	13.9770
 2.2050	13.9910
 2.2060	14.0110
 2.2070	14.0300
 2.2080	14.0510
 2.2090	14.0670
 2.2100	14.0840
 2.2110	14.0950
 2.2120	14.1000
 2.2130	14.1100
 2.2140	14.1180
 2.2150	14.1290
 2.2160	14.1450
 2.2170	14.1540
 2.2180	14.1650
 2.2190	14.1700
 2.2200	14.1670
 2.2210	14.1680
 2.2220	14.1660
 2.2230	14.1650
 2.2240	14.1680
 2.2250	14.1640
 2.2260	14.1560
 2.2270	14.1470
 2.2280	14.1340
 2.2290	14.1200
 2.2300	14.1030
 2.2310	14.0850
 2.2320	14.0600
 2.2330	14.0340
 2.2340	14.0060
 2.2350	13.9760
 2.2360	13.9410
 2.2370	13.9040
 2.2380	13.8620
 2.2390	13.8140
 2.2400	13.7670
 2.2410	13.7200
 2.2420	13.6680
 2.2430	13.6140
 2.2440	13.5570
 2.2450	13.4960
 2.2460	13.4340
 2.2470	13.3680
 2.2480	13.3050
 2.2490	13.2430
 2.2500	13.1780
 2.2510	13.1130
 2.2520	13.0440
 2.2530	12.9680
 2.2540	12.8970
 2.2550	12.8290
 2.2560	12.7580
 2.2570	12.6900
 2.2580	12.6180
 2.2590	12.5410
 2.2600	12.4670
 2.2610	12.3930
 2.2620	12.3190
 2.2630	12.2470
 2.2640	12.1710
 2.2650	12.0980
 2.2660	12.0260
 2.2670	11.9560
 2.2680	11.8860
 2.2690	11.8200
 2.2700	11.7560
 2.2710	11.6920
 2.2720	11.6310
 2.2730	11.5670
 2.2740	11.4980
 2.2750	11.4390
 2.2760	11.3840
 2.2770	11.3310
 2.2780	11.2860
 2.2790	11.2350
 2.2800	11.1840
 2.2810	11.1310
 2.2820	11.0740
 2.2830	11.0230
 2.2840	10.9730
 2.2850	10.9250
 2.2860	10.8810
 2.2870	10.8360
 2.2880	10.7900
 2.2890	10.7440
 2.2900	10.7000
 2.2910	10.6530
 2.2920	10.6040
 2.2930	10.5530
 2.2940	10.4990
 2.2950	10.4460
 2.2960	10.3890
 2.2970	10.3370
 2.2980	10.2840
 2.2990	10.2370
 2.3000	10.2000
 2.3010	10.1640
 2.3020	10.1320
 2.3030	10.0970
 2.3040	10.0550
 2.3050	10.0160
 2.3060	 9.9800
 2.3070	 9.9530
 2.3080	 9.9340
 2.3090	 9.9170
 2.3100	 9.9080
 2.3110	 9.8960
 2.3120	 9.8860
 2.3130	 9.8790
 2.3140	 9.8690
 2.3150	 9.8600
 2.3160	 9.8500
 2.3170	 9.8380
 2.3180	 9.8270
 2.3190	 9.8190
 2.3200	 9.8050
 2.3210	 9.7900
 2.3220	 9.7700
 2.3230	 9.7430
 2.3240	 9.7190
 2.3250	 9.6890
 2.3260	 9.6630
 2.3270	 9.6390
 2.3280	 9.6100
 2.3290	 9.5810
 2.3300	 9.5470
 2.3310	 9.5040
 2.3320	 9.4690
 2.3330	 9.4350
 2.3340	 9.3980
 2.3350	 9.3630
 2.3360	 9.3270
 2.3370	 9.2890
 2.3380	 9.2520
 2.3390	 9.2190
 2.3400	 9.1800
 2.3410	 9.1310
 2.3420	 9.0910
 2.3430	 9.0500
 2.3440	 9.0160
 2.3450	 8.9930
 2.3460	 8.9660
 2.3470	 8.9360
 2.3480	 8.9100
 2.3490	 8.8840
 2.3500	 8.8580
 2.3510	 8.8360
 2.3520	 8.8130
 2.3530	 8.7880
 2.3540	 8.7610
 2.3550	 8.7340
 2.3560	 8.7130
 2.3570	 8.6850
 2.3580	 8.6620
 2.3590	 8.6420
 2.3600	 8.6110
 2.3610	 8.5810
 2.3620	 8.5500
 2.3630	 8.5260
 2.3640	 8.5070
 2.3650	 8.4890
 2.3660	 8.4730
 2.3670	 8.4490
 2.3680	 8.4260
 2.3690	 8.3980
 2.3700	 8.3710
 2.3710	 8.3420
 2.3720	 8.3080
 2.3730	 8.2830
 2.3740	 8.2540
 2.3750	 8.2270
 2.3760	 8.2010
 2.3770	 8.1690
 2.3780	 8.1410
 2.3790	 8.1070
 2.3800	 8.0750
 2.3810	 8.0430
 2.3820	 8.0080
 2.3830	 7.9750
 2.3840	 7.9410
 2.3850	 7.9050
 2.3860	 7.8740
 2.3870	 7.8500
 2.3880	 7.8210
 2.3890	 7.7860
 2.3900	 7.7530
 2.3910	 7.7190
 2.3920	 7.6810
 2.3930	 7.6520
 2.3940	 7.6220
 2.3950	 7.5890
 2.3960	 7.5580
 2.3970	 7.5210
 2.3980	 7.4800
 2.3990	 7.4360
 2.4000	 7.3960
 2.4010	 7.3490
 2.4020	 7.3180
 2.4030	 7.2870
 2.4040	 7.2450
 2.4050	 7.2260
 2.4060	 7.2020
 2.4070	 7.1740
 2.4080	 7.1500
 2.4090	 7.1110
 2.4100	 7.0720
 2.4110	 7.0340
 2.4120	 7.0010
 2.4130	 6.9740
 2.4140	 6.9420
 2.4150	 6.9070
 2.4160	 6.8740
 2.4170	 6.8420
 2.4180	 6.8070
 2.4190	 6.7730
 2.4200	 6.7370
 2.4210	 6.7000
 2.4220	 6.6630
 2.4230	 6.6210
 2.4240	 6.5850
 2.4250	 6.5520
 2.4260	 6.5190
 2.4270	 6.4810
 2.4280	 6.4450
 2.4290	 6.4080
 2.4300	 6.3630
 2.4310	 6.3310
 2.4320	 6.2950
 2.4330	 6.2510
 2.4340	 6.2170
 2.4350	 6.1710
 2.4360	 6.1420
 2.4370	 6.1200
 2.4380	 6.0810
 2.4390	 6.0530
 2.4400	 6.0230
 2.4410	 5.9780
 2.4420	 5.9420
 2.4430	 5.9090
 2.4440	 5.8790
 2.4450	 5.8490
 2.4460	 5.8120
 2.4470	 5.7780
 2.4480	 5.7440
 2.4490	 5.7220
 2.4500	 5.7040
 2.4510	 5.6670
 2.4520	 5.6250
 2.4530	 5.5750
 2.4540	 5.5340
 2.4550	 5.5140
 2.4560	 5.4940
 2.4570	 5.4570
 2.4580	 5.4140
 2.4590	 5.3760
 2.4600	 5.3390
 2.4610	 5.3200
 2.4620	 5.3190
 2.4630	 5.3140
 2.4640	 5.3020
 2.4650	 5.2820
 2.4660	 5.2540
 2.4670	 5.2090
 2.4680	 5.1760
 2.4690	 5.1500
 2.4700	 5.1250
 2.4710	 5.1120
 2.4720	 5.0930
 2.4730	 5.0800
 2.4740	 5.0670
 2.4750	 5.0450
 2.4760	 5.0290
 2.4770	 5.0040
 2.4780	 4.9990
 2.4790	 5.0320
 2.4800	 5.0350
 2.4810	 5.0400
 2.4820	 5.0170
 2.4830	 4.9450
 2.4840	 4.8990
 2.4850	 4.8800
 2.4860	 4.8640
 2.4870	 4.8520
 2.4880	 4.8430
 2.4890	 4.8330
 2.4900	 4.8370
 2.4910	 4.8410
 2.4920	 4.8450
 2.4930	 4.8390
 2.4940	 4.7900
 2.4950	 4.7820
 2.4960	 4.7980
 2.4970	 4.7970
 2.4980	 4.8210
 2.4990	 4.8240
 2.5000	 4.7970
