Name: Baccharis pilularis 3
Type: vegetation
Class: Shrub
Genus: Baccharis
Species: pilularis
Sample No.: VH101
Owner: UCSB
Wavelength Range: VSWIR
Origin: 34.418; -119.8456; WGS84
Collection Date: 6/3/2013
Description: Samples were collected as part of the HyspIRI Airborne Campaign. 48 individual plants were sampled in three times in 2013 - spring  summer  and fall. The name of the sample includes a 1  2  or 3 which references a different individual of the species. Samples were taken to JPL and processed within 48 hours of collection. The same leaves were processed in the Nicolet and then measured using the ASD.
Measurement: Bidirectional reflectance
First Column: X
Second Column: Y
X Units: Wavelength (micrometers)
Y Units: Reflectance (percentage)
First X Value: 0.35
Last X Value: 2.5
Number of X Values: 2151
Additional Information: vegetation.shrub.baccharis.pilularis.vswir.vh101.ucsb.asd.ancillary.txt

 0.3500	 4.6170
 0.3510	 4.7500
 0.3520	 4.7640
 0.3530	 4.6730
 0.3540	 4.5380
 0.3550	 4.4480
 0.3560	 4.5350
 0.3570	 4.6750
 0.3580	 4.6420
 0.3590	 4.5190
 0.3600	 4.4240
 0.3610	 4.4160
 0.3620	 4.4720
 0.3630	 4.5660
 0.3640	 4.6020
 0.3650	 4.5250
 0.3660	 4.4800
 0.3670	 4.4540
 0.3680	 4.4710
 0.3690	 4.5640
 0.3700	 4.5350
 0.3710	 4.4830
 0.3720	 4.4850
 0.3730	 4.5030
 0.3740	 4.4580
 0.3750	 4.4380
 0.3760	 4.5270
 0.3770	 4.5170
 0.3780	 4.5230
 0.3790	 4.5630
 0.3800	 4.5620
 0.3810	 4.5610
 0.3820	 4.5890
 0.3830	 4.6510
 0.3840	 4.6920
 0.3850	 4.6870
 0.3860	 4.6740
 0.3870	 4.7040
 0.3880	 4.7030
 0.3890	 4.7230
 0.3900	 4.7640
 0.3910	 4.7660
 0.3920	 4.7610
 0.3930	 4.7610
 0.3940	 4.7710
 0.3950	 4.7720
 0.3960	 4.8220
 0.3970	 4.8860
 0.3980	 4.8990
 0.3990	 4.9220
 0.4000	 4.9520
 0.4010	 4.9840
 0.4020	 5.0240
 0.4030	 5.0390
 0.4040	 5.0660
 0.4050	 5.1310
 0.4060	 5.1730
 0.4070	 5.2100
 0.4080	 5.2370
 0.4090	 5.2400
 0.4100	 5.2980
 0.4110	 5.3580
 0.4120	 5.3910
 0.4130	 5.4330
 0.4140	 5.4720
 0.4150	 5.5110
 0.4160	 5.5550
 0.4170	 5.5870
 0.4180	 5.6330
 0.4190	 5.6910
 0.4200	 5.7400
 0.4210	 5.7910
 0.4220	 5.8440
 0.4230	 5.8940
 0.4240	 5.9300
 0.4250	 5.9610
 0.4260	 6.0040
 0.4270	 6.0720
 0.4280	 6.1170
 0.4290	 6.1520
 0.4300	 6.1890
 0.4310	 6.2380
 0.4320	 6.2820
 0.4330	 6.3190
 0.4340	 6.3520
 0.4350	 6.3940
 0.4360	 6.4310
 0.4370	 6.4560
 0.4380	 6.4670
 0.4390	 6.5010
 0.4400	 6.5360
 0.4410	 6.5580
 0.4420	 6.5800
 0.4430	 6.6040
 0.4440	 6.6330
 0.4450	 6.6690
 0.4460	 6.6960
 0.4470	 6.7170
 0.4480	 6.7390
 0.4490	 6.7810
 0.4500	 6.8050
 0.4510	 6.8220
 0.4520	 6.8490
 0.4530	 6.8750
 0.4540	 6.8930
 0.4550	 6.9090
 0.4560	 6.9330
 0.4570	 6.9420
 0.4580	 6.9490
 0.4590	 6.9660
 0.4600	 6.9830
 0.4610	 6.9970
 0.4620	 7.0090
 0.4630	 7.0190
 0.4640	 7.0260
 0.4650	 7.0340
 0.4660	 7.0400
 0.4670	 7.0420
 0.4680	 7.0520
 0.4690	 7.0600
 0.4700	 7.0630
 0.4710	 7.0700
 0.4720	 7.0850
 0.4730	 7.0970
 0.4740	 7.0940
 0.4750	 7.0940
 0.4760	 7.0970
 0.4770	 7.1060
 0.4780	 7.1230
 0.4790	 7.1340
 0.4800	 7.1390
 0.4810	 7.1430
 0.4820	 7.1540
 0.4830	 7.1690
 0.4840	 7.1850
 0.4850	 7.2000
 0.4860	 7.2140
 0.4870	 7.2340
 0.4880	 7.2640
 0.4890	 7.2840
 0.4900	 7.3110
 0.4910	 7.3400
 0.4920	 7.3620
 0.4930	 7.4000
 0.4940	 7.4410
 0.4950	 7.4810
 0.4960	 7.5250
 0.4970	 7.5810
 0.4980	 7.6440
 0.4990	 7.7100
 0.5000	 7.7710
 0.5010	 7.8460
 0.5020	 7.9340
 0.5030	 8.0200
 0.5040	 8.1180
 0.5050	 8.2310
 0.5060	 8.3590
 0.5070	 8.4840
 0.5080	 8.6230
 0.5090	 8.7770
 0.5100	 8.9440
 0.5110	 9.1260
 0.5120	 9.3220
 0.5130	 9.5280
 0.5140	 9.7420
 0.5150	 9.9710
 0.5160	10.2130
 0.5170	10.4640
 0.5180	10.7220
 0.5190	10.9870
 0.5200	11.2560
 0.5210	11.5290
 0.5220	11.8010
 0.5230	12.0710
 0.5240	12.3360
 0.5250	12.5850
 0.5260	12.8250
 0.5270	13.0540
 0.5280	13.2660
 0.5290	13.4630
 0.5300	13.6500
 0.5310	13.8260
 0.5320	13.9800
 0.5330	14.1190
 0.5340	14.2440
 0.5350	14.3540
 0.5360	14.4590
 0.5370	14.5490
 0.5380	14.6240
 0.5390	14.6950
 0.5400	14.7670
 0.5410	14.8390
 0.5420	14.9080
 0.5430	14.9700
 0.5440	15.0300
 0.5450	15.0830
 0.5460	15.1230
 0.5470	15.1510
 0.5480	15.1770
 0.5490	15.2070
 0.5500	15.2340
 0.5510	15.2510
 0.5520	15.2580
 0.5530	15.2560
 0.5540	15.2420
 0.5550	15.2110
 0.5560	15.1630
 0.5570	15.0990
 0.5580	15.0210
 0.5590	14.9350
 0.5600	14.8430
 0.5610	14.7380
 0.5620	14.6250
 0.5630	14.5060
 0.5640	14.3770
 0.5650	14.2370
 0.5660	14.0860
 0.5670	13.9270
 0.5680	13.7680
 0.5690	13.6020
 0.5700	13.4310
 0.5710	13.2630
 0.5720	13.1000
 0.5730	12.9550
 0.5740	12.8220
 0.5750	12.6910
 0.5760	12.5660
 0.5770	12.4470
 0.5780	12.3340
 0.5790	12.2220
 0.5800	12.1150
 0.5810	12.0190
 0.5820	11.9350
 0.5830	11.8560
 0.5840	11.7800
 0.5850	11.7050
 0.5860	11.6320
 0.5870	11.5640
 0.5880	11.5030
 0.5890	11.4510
 0.5900	11.4060
 0.5910	11.3720
 0.5920	11.3420
 0.5930	11.3050
 0.5940	11.2680
 0.5950	11.2380
 0.5960	11.2130
 0.5970	11.1830
 0.5980	11.1510
 0.5990	11.1180
 0.6000	11.0830
 0.6010	11.0440
 0.6020	10.9960
 0.6030	10.9430
 0.6040	10.8910
 0.6050	10.8330
 0.6060	10.7670
 0.6070	10.6950
 0.6080	10.6220
 0.6090	10.5490
 0.6100	10.4780
 0.6110	10.4060
 0.6120	10.3160
 0.6130	10.2220
 0.6140	10.1350
 0.6150	10.0510
 0.6160	 9.9710
 0.6170	 9.9000
 0.6180	 9.8400
 0.6190	 9.7830
 0.6200	 9.7280
 0.6210	 9.6780
 0.6220	 9.6370
 0.6230	 9.6010
 0.6240	 9.5660
 0.6250	 9.5360
 0.6260	 9.5190
 0.6270	 9.5050
 0.6280	 9.4920
 0.6290	 9.4800
 0.6300	 9.4700
 0.6310	 9.4590
 0.6320	 9.4430
 0.6330	 9.4210
 0.6340	 9.3920
 0.6350	 9.3570
 0.6360	 9.3120
 0.6370	 9.2600
 0.6380	 9.1980
 0.6390	 9.1290
 0.6400	 9.0530
 0.6410	 8.9750
 0.6420	 8.8940
 0.6430	 8.8080
 0.6440	 8.7240
 0.6450	 8.6380
 0.6460	 8.5550
 0.6470	 8.4790
 0.6480	 8.4060
 0.6490	 8.3390
 0.6500	 8.2790
 0.6510	 8.2270
 0.6520	 8.1790
 0.6530	 8.1320
 0.6540	 8.0840
 0.6550	 8.0390
 0.6560	 7.9880
 0.6570	 7.9310
 0.6580	 7.8710
 0.6590	 7.8070
 0.6600	 7.7420
 0.6610	 7.6790
 0.6620	 7.6140
 0.6630	 7.5600
 0.6640	 7.5140
 0.6650	 7.4720
 0.6660	 7.4310
 0.6670	 7.3990
 0.6680	 7.3770
 0.6690	 7.3650
 0.6700	 7.3600
 0.6710	 7.3600
 0.6720	 7.3640
 0.6730	 7.3750
 0.6740	 7.3930
 0.6750	 7.4160
 0.6760	 7.4420
 0.6770	 7.4740
 0.6780	 7.5120
 0.6790	 7.5540
 0.6800	 7.6060
 0.6810	 7.6650
 0.6820	 7.7290
 0.6830	 7.8020
 0.6840	 7.8890
 0.6850	 7.9950
 0.6860	 8.1190
 0.6870	 8.2670
 0.6880	 8.4560
 0.6890	 8.6880
 0.6900	 8.9700
 0.6910	 9.3090
 0.6920	 9.7130
 0.6930	10.1840
 0.6940	10.7250
 0.6950	11.3340
 0.6960	12.0020
 0.6970	12.7310
 0.6980	13.5180
 0.6990	14.3510
 0.7000	15.2250
 0.7010	16.1300
 0.7020	17.0550
 0.7030	17.9960
 0.7040	18.9440
 0.7050	19.8910
 0.7060	20.8340
 0.7070	21.7690
 0.7080	22.6960
 0.7090	23.6120
 0.7100	24.5120
 0.7110	25.4000
 0.7120	26.2770
 0.7130	27.1380
 0.7140	27.9800
 0.7150	28.8040
 0.7160	29.6110
 0.7170	30.4000
 0.7180	31.1710
 0.7190	31.9220
 0.7200	32.6470
 0.7210	33.3530
 0.7220	34.0360
 0.7230	34.6950
 0.7240	35.3270
 0.7250	35.9320
 0.7260	36.5090
 0.7270	37.0600
 0.7280	37.5900
 0.7290	38.0900
 0.7300	38.5590
 0.7310	39.0030
 0.7320	39.4280
 0.7330	39.8270
 0.7340	40.2010
 0.7350	40.5500
 0.7360	40.8810
 0.7370	41.1940
 0.7380	41.4850
 0.7390	41.7530
 0.7400	42.0040
 0.7410	42.2390
 0.7420	42.4550
 0.7430	42.6580
 0.7440	42.8420
 0.7450	43.0090
 0.7460	43.1660
 0.7470	43.3110
 0.7480	43.4410
 0.7490	43.5560
 0.7500	43.6670
 0.7510	43.7680
 0.7520	43.8570
 0.7530	43.9340
 0.7540	44.0060
 0.7550	44.0720
 0.7560	44.1320
 0.7570	44.1880
 0.7580	44.2400
 0.7590	44.2870
 0.7600	44.3290
 0.7610	44.3660
 0.7620	44.3990
 0.7630	44.4300
 0.7640	44.4620
 0.7650	44.4900
 0.7660	44.5130
 0.7670	44.5320
 0.7680	44.5520
 0.7690	44.5710
 0.7700	44.5920
 0.7710	44.6110
 0.7720	44.6200
 0.7730	44.6350
 0.7740	44.6540
 0.7750	44.6700
 0.7760	44.6850
 0.7770	44.7000
 0.7780	44.7150
 0.7790	44.7300
 0.7800	44.7420
 0.7810	44.7550
 0.7820	44.7700
 0.7830	44.7870
 0.7840	44.8000
 0.7850	44.8140
 0.7860	44.8290
 0.7870	44.8440
 0.7880	44.8550
 0.7890	44.8670
 0.7900	44.8820
 0.7910	44.8960
 0.7920	44.9100
 0.7930	44.9220
 0.7940	44.9340
 0.7950	44.9400
 0.7960	44.9480
 0.7970	44.9630
 0.7980	44.9740
 0.7990	44.9810
 0.8000	44.9860
 0.8010	44.9930
 0.8020	45.0020
 0.8030	45.0090
 0.8040	45.0150
 0.8050	45.0200
 0.8060	45.0290
 0.8070	45.0350
 0.8080	45.0360
 0.8090	45.0340
 0.8100	45.0360
 0.8110	45.0420
 0.8120	45.0480
 0.8130	45.0490
 0.8140	45.0480
 0.8150	45.0490
 0.8160	45.0540
 0.8170	45.0560
 0.8180	45.0500
 0.8190	45.0450
 0.8200	45.0520
 0.8210	45.0560
 0.8220	45.0530
 0.8230	45.0490
 0.8240	45.0490
 0.8250	45.0440
 0.8260	45.0380
 0.8270	45.0330
 0.8280	45.0290
 0.8290	45.0280
 0.8300	45.0250
 0.8310	45.0180
 0.8320	45.0140
 0.8330	45.0130
 0.8340	45.0130
 0.8350	45.0100
 0.8360	45.0120
 0.8370	45.0130
 0.8380	45.0100
 0.8390	45.0060
 0.8400	45.0070
 0.8410	45.0130
 0.8420	45.0190
 0.8430	45.0190
 0.8440	45.0210
 0.8450	45.0280
 0.8460	45.0360
 0.8470	45.0340
 0.8480	45.0410
 0.8490	45.0500
 0.8500	45.0540
 0.8510	45.0550
 0.8520	45.0600
 0.8530	45.0670
 0.8540	45.0700
 0.8550	45.0740
 0.8560	45.0820
 0.8570	45.0910
 0.8580	45.0940
 0.8590	45.0980
 0.8600	45.1050
 0.8610	45.1140
 0.8620	45.1210
 0.8630	45.1260
 0.8640	45.1330
 0.8650	45.1450
 0.8660	45.1540
 0.8670	45.1620
 0.8680	45.1690
 0.8690	45.1760
 0.8700	45.1850
 0.8710	45.1930
 0.8720	45.2000
 0.8730	45.2100
 0.8740	45.2170
 0.8750	45.2250
 0.8760	45.2330
 0.8770	45.2430
 0.8780	45.2580
 0.8790	45.2670
 0.8800	45.2670
 0.8810	45.2760
 0.8820	45.2940
 0.8830	45.3110
 0.8840	45.3170
 0.8850	45.3190
 0.8860	45.3240
 0.8870	45.3330
 0.8880	45.3450
 0.8890	45.3560
 0.8900	45.3670
 0.8910	45.3770
 0.8920	45.3840
 0.8930	45.3960
 0.8940	45.4080
 0.8950	45.4160
 0.8960	45.4180
 0.8970	45.4300
 0.8980	45.4450
 0.8990	45.4550
 0.9000	45.4550
 0.9010	45.4600
 0.9020	45.4700
 0.9030	45.4810
 0.9040	45.4900
 0.9050	45.5000
 0.9060	45.5110
 0.9070	45.5190
 0.9080	45.5230
 0.9090	45.5320
 0.9100	45.5380
 0.9110	45.5410
 0.9120	45.5550
 0.9130	45.5640
 0.9140	45.5680
 0.9150	45.5710
 0.9160	45.5710
 0.9170	45.5750
 0.9180	45.5830
 0.9190	45.5890
 0.9200	45.5860
 0.9210	45.5820
 0.9220	45.5800
 0.9230	45.5800
 0.9240	45.5730
 0.9250	45.5640
 0.9260	45.5580
 0.9270	45.5520
 0.9280	45.5400
 0.9290	45.5230
 0.9300	45.5040
 0.9310	45.4910
 0.9320	45.4690
 0.9330	45.4500
 0.9340	45.4390
 0.9350	45.4260
 0.9360	45.4050
 0.9370	45.3770
 0.9380	45.3450
 0.9390	45.3100
 0.9400	45.2890
 0.9410	45.2680
 0.9420	45.2340
 0.9430	45.1930
 0.9440	45.1630
 0.9450	45.1350
 0.9460	45.0980
 0.9470	45.0490
 0.9480	44.9860
 0.9490	44.9240
 0.9500	44.8700
 0.9510	44.8090
 0.9520	44.7420
 0.9530	44.6670
 0.9540	44.5890
 0.9550	44.5230
 0.9560	44.4620
 0.9570	44.4020
 0.9580	44.3430
 0.9590	44.2950
 0.9600	44.2530
 0.9610	44.2140
 0.9620	44.1760
 0.9630	44.1390
 0.9640	44.1190
 0.9650	44.1090
 0.9660	44.0950
 0.9670	44.0820
 0.9680	44.0630
 0.9690	44.0490
 0.9700	44.0500
 0.9710	44.0520
 0.9720	44.0460
 0.9730	44.0350
 0.9740	44.0280
 0.9750	44.0330
 0.9760	44.0510
 0.9770	44.0660
 0.9780	44.0660
 0.9790	44.0780
 0.9800	44.0810
 0.9810	44.0760
 0.9820	44.0760
 0.9830	44.0950
 0.9840	44.1250
 0.9850	44.1470
 0.9860	44.1490
 0.9870	44.1660
 0.9880	44.1860
 0.9890	44.2070
 0.9900	44.2300
 0.9910	44.2580
 0.9920	44.2730
 0.9930	44.2880
 0.9940	44.3030
 0.9950	44.3180
 0.9960	44.3330
 0.9970	44.3480
 0.9980	44.3630
 0.9990	44.3780
 1.0000	44.3930
 1.0010	44.4090
 1.0020	44.4240
 1.0030	44.4390
 1.0040	44.4540
 1.0050	44.4690
 1.0060	44.4840
 1.0070	44.4990
 1.0080	44.5140
 1.0090	44.5290
 1.0100	44.5290
 1.0110	44.5570
 1.0120	44.5830
 1.0130	44.6060
 1.0140	44.6310
 1.0150	44.6590
 1.0160	44.6870
 1.0170	44.7110
 1.0180	44.7330
 1.0190	44.7550
 1.0200	44.7800
 1.0210	44.8080
 1.0220	44.8320
 1.0230	44.8550
 1.0240	44.8740
 1.0250	44.8960
 1.0260	44.9170
 1.0270	44.9380
 1.0280	44.9590
 1.0290	44.9810
 1.0300	45.0020
 1.0310	45.0230
 1.0320	45.0460
 1.0330	45.0680
 1.0340	45.0880
 1.0350	45.1090
 1.0360	45.1290
 1.0370	45.1450
 1.0380	45.1620
 1.0390	45.1790
 1.0400	45.1960
 1.0410	45.2130
 1.0420	45.2310
 1.0430	45.2510
 1.0440	45.2670
 1.0450	45.2830
 1.0460	45.2960
 1.0470	45.3030
 1.0480	45.3150
 1.0490	45.3300
 1.0500	45.3420
 1.0510	45.3560
 1.0520	45.3690
 1.0530	45.3810
 1.0540	45.3890
 1.0550	45.3980
 1.0560	45.4070
 1.0570	45.4150
 1.0580	45.4200
 1.0590	45.4290
 1.0600	45.4420
 1.0610	45.4510
 1.0620	45.4590
 1.0630	45.4670
 1.0640	45.4720
 1.0650	45.4750
 1.0660	45.4800
 1.0670	45.4830
 1.0680	45.4850
 1.0690	45.4840
 1.0700	45.4860
 1.0710	45.4900
 1.0720	45.4940
 1.0730	45.5000
 1.0740	45.5020
 1.0750	45.5010
 1.0760	45.5010
 1.0770	45.4970
 1.0780	45.4960
 1.0790	45.4970
 1.0800	45.4960
 1.0810	45.4940
 1.0820	45.4900
 1.0830	45.4830
 1.0840	45.4790
 1.0850	45.4760
 1.0860	45.4710
 1.0870	45.4660
 1.0880	45.4620
 1.0890	45.4550
 1.0900	45.4460
 1.0910	45.4360
 1.0920	45.4260
 1.0930	45.4170
 1.0940	45.4080
 1.0950	45.3980
 1.0960	45.3900
 1.0970	45.3810
 1.0980	45.3720
 1.0990	45.3600
 1.1000	45.3480
 1.1010	45.3350
 1.1020	45.3200
 1.1030	45.3040
 1.1040	45.2900
 1.1050	45.2780
 1.1060	45.2640
 1.1070	45.2530
 1.1080	45.2390
 1.1090	45.2230
 1.1100	45.2070
 1.1110	45.1920
 1.1120	45.1750
 1.1130	45.1570
 1.1140	45.1380
 1.1150	45.1180
 1.1160	45.0940
 1.1170	45.0670
 1.1180	45.0400
 1.1190	45.0110
 1.1200	44.9780
 1.1210	44.9440
 1.1220	44.9080
 1.1230	44.8650
 1.1240	44.8190
 1.1250	44.7680
 1.1260	44.7140
 1.1270	44.6500
 1.1280	44.5810
 1.1290	44.5020
 1.1300	44.4130
 1.1310	44.3180
 1.1320	44.2150
 1.1330	44.1040
 1.1340	43.9870
 1.1350	43.8600
 1.1360	43.7240
 1.1370	43.5810
 1.1380	43.4320
 1.1390	43.2780
 1.1400	43.1200
 1.1410	42.9610
 1.1420	42.7990
 1.1430	42.6370
 1.1440	42.4780
 1.1450	42.3180
 1.1460	42.1650
 1.1470	42.0130
 1.1480	41.8710
 1.1490	41.7300
 1.1500	41.6030
 1.1510	41.4850
 1.1520	41.3760
 1.1530	41.2780
 1.1540	41.1890
 1.1550	41.1080
 1.1560	41.0370
 1.1570	40.9770
 1.1580	40.9270
 1.1590	40.8840
 1.1600	40.8460
 1.1610	40.8120
 1.1620	40.7810
 1.1630	40.7530
 1.1640	40.7320
 1.1650	40.7120
 1.1660	40.6980
 1.1670	40.6850
 1.1680	40.6760
 1.1690	40.6680
 1.1700	40.6630
 1.1710	40.6580
 1.1720	40.6540
 1.1730	40.6470
 1.1740	40.6410
 1.1750	40.6330
 1.1760	40.6270
 1.1770	40.6180
 1.1780	40.6080
 1.1790	40.6000
 1.1800	40.5900
 1.1810	40.5790
 1.1820	40.5720
 1.1830	40.5630
 1.1840	40.5520
 1.1850	40.5400
 1.1860	40.5290
 1.1870	40.5210
 1.1880	40.5140
 1.1890	40.5090
 1.1900	40.5060
 1.1910	40.5040
 1.1920	40.5040
 1.1930	40.5070
 1.1940	40.5090
 1.1950	40.5120
 1.1960	40.5170
 1.1970	40.5220
 1.1980	40.5310
 1.1990	40.5460
 1.2000	40.5590
 1.2010	40.5730
 1.2020	40.5880
 1.2030	40.6040
 1.2040	40.6210
 1.2050	40.6400
 1.2060	40.6610
 1.2070	40.6810
 1.2080	40.7010
 1.2090	40.7240
 1.2100	40.7480
 1.2110	40.7720
 1.2120	40.8000
 1.2130	40.8260
 1.2140	40.8530
 1.2150	40.8810
 1.2160	40.9080
 1.2170	40.9350
 1.2180	40.9650
 1.2190	40.9930
 1.2200	41.0210
 1.2210	41.0500
 1.2220	41.0760
 1.2230	41.1030
 1.2240	41.1340
 1.2250	41.1650
 1.2260	41.1930
 1.2270	41.2210
 1.2280	41.2480
 1.2290	41.2720
 1.2300	41.2970
 1.2310	41.3210
 1.2320	41.3450
 1.2330	41.3680
 1.2340	41.3910
 1.2350	41.4140
 1.2360	41.4360
 1.2370	41.4560
 1.2380	41.4760
 1.2390	41.4960
 1.2400	41.5150
 1.2410	41.5350
 1.2420	41.5540
 1.2430	41.5740
 1.2440	41.5920
 1.2450	41.6100
 1.2460	41.6270
 1.2470	41.6420
 1.2480	41.6550
 1.2490	41.6680
 1.2500	41.6810
 1.2510	41.6950
 1.2520	41.7080
 1.2530	41.7190
 1.2540	41.7270
 1.2550	41.7340
 1.2560	41.7410
 1.2570	41.7490
 1.2580	41.7560
 1.2590	41.7630
 1.2600	41.7680
 1.2610	41.7720
 1.2620	41.7730
 1.2630	41.7740
 1.2640	41.7740
 1.2650	41.7700
 1.2660	41.7670
 1.2670	41.7620
 1.2680	41.7550
 1.2690	41.7510
 1.2700	41.7450
 1.2710	41.7370
 1.2720	41.7280
 1.2730	41.7180
 1.2740	41.7050
 1.2750	41.6900
 1.2760	41.6740
 1.2770	41.6550
 1.2780	41.6360
 1.2790	41.6180
 1.2800	41.5990
 1.2810	41.5760
 1.2820	41.5520
 1.2830	41.5270
 1.2840	41.4990
 1.2850	41.4720
 1.2860	41.4430
 1.2870	41.4110
 1.2880	41.3760
 1.2890	41.3380
 1.2900	41.3010
 1.2910	41.2630
 1.2920	41.2260
 1.2930	41.1860
 1.2940	41.1420
 1.2950	41.0920
 1.2960	41.0390
 1.2970	40.9850
 1.2980	40.9330
 1.2990	40.8790
 1.3000	40.8230
 1.3010	40.7640
 1.3020	40.7000
 1.3030	40.6310
 1.3040	40.5620
 1.3050	40.4900
 1.3060	40.4150
 1.3070	40.3380
 1.3080	40.2570
 1.3090	40.1700
 1.3100	40.0810
 1.3110	39.9860
 1.3120	39.8880
 1.3130	39.7900
 1.3140	39.6880
 1.3150	39.5830
 1.3160	39.4750
 1.3170	39.3650
 1.3180	39.2490
 1.3190	39.1290
 1.3200	39.0050
 1.3210	38.8760
 1.3220	38.7450
 1.3230	38.6130
 1.3240	38.4800
 1.3250	38.3450
 1.3260	38.2050
 1.3270	38.0620
 1.3280	37.9160
 1.3290	37.7660
 1.3300	37.6160
 1.3310	37.4670
 1.3320	37.3140
 1.3330	37.1630
 1.3340	37.0110
 1.3350	36.8560
 1.3360	36.7020
 1.3370	36.5470
 1.3380	36.3910
 1.3390	36.2350
 1.3400	36.0820
 1.3410	35.9310
 1.3420	35.7820
 1.3430	35.6340
 1.3440	35.4870
 1.3450	35.3410
 1.3460	35.1940
 1.3470	35.0510
 1.3480	34.9100
 1.3490	34.7710
 1.3500	34.6330
 1.3510	34.4950
 1.3520	34.3570
 1.3530	34.2190
 1.3540	34.0790
 1.3550	33.9400
 1.3560	33.8000
 1.3570	33.6570
 1.3580	33.5140
 1.3590	33.3670
 1.3600	33.2150
 1.3610	33.0580
 1.3620	32.8960
 1.3630	32.7280
 1.3640	32.5510
 1.3650	32.3650
 1.3660	32.1710
 1.3670	31.9670
 1.3680	31.7530
 1.3690	31.5250
 1.3700	31.2820
 1.3710	31.0240
 1.3720	30.7520
 1.3730	30.4610
 1.3740	30.1560
 1.3750	29.8320
 1.3760	29.4860
 1.3770	29.1200
 1.3780	28.7270
 1.3790	28.3120
 1.3800	27.8760
 1.3810	27.4150
 1.3820	26.9400
 1.3830	26.4470
 1.3840	25.9410
 1.3850	25.4170
 1.3860	24.8850
 1.3870	24.3350
 1.3880	23.7880
 1.3890	23.2350
 1.3900	22.6780
 1.3910	22.1300
 1.3920	21.5810
 1.3930	21.0340
 1.3940	20.4980
 1.3950	19.9660
 1.3960	19.4490
 1.3970	18.9500
 1.3980	18.4680
 1.3990	18.0080
 1.4000	17.5680
 1.4010	17.1460
 1.4020	16.7480
 1.4030	16.3710
 1.4040	16.0160
 1.4050	15.6840
 1.4060	15.3730
 1.4070	15.0850
 1.4080	14.8180
 1.4090	14.5690
 1.4100	14.3410
 1.4110	14.1310
 1.4120	13.9380
 1.4130	13.7610
 1.4140	13.5990
 1.4150	13.4540
 1.4160	13.3210
 1.4170	13.1990
 1.4180	13.0900
 1.4190	12.9910
 1.4200	12.9010
 1.4210	12.8200
 1.4220	12.7470
 1.4230	12.6830
 1.4240	12.6250
 1.4250	12.5730
 1.4260	12.5280
 1.4270	12.4890
 1.4280	12.4550
 1.4290	12.4250
 1.4300	12.4010
 1.4310	12.3790
 1.4320	12.3620
 1.4330	12.3490
 1.4340	12.3390
 1.4350	12.3330
 1.4360	12.3300
 1.4370	12.3290
 1.4380	12.3290
 1.4390	12.3330
 1.4400	12.3380
 1.4410	12.3450
 1.4420	12.3550
 1.4430	12.3660
 1.4440	12.3790
 1.4450	12.3930
 1.4460	12.4070
 1.4470	12.4230
 1.4480	12.4400
 1.4490	12.4580
 1.4500	12.4780
 1.4510	12.4980
 1.4520	12.5190
 1.4530	12.5420
 1.4540	12.5660
 1.4550	12.5910
 1.4560	12.6200
 1.4570	12.6500
 1.4580	12.6830
 1.4590	12.7200
 1.4600	12.7610
 1.4610	12.8050
 1.4620	12.8520
 1.4630	12.9050
 1.4640	12.9610
 1.4650	13.0210
 1.4660	13.0850
 1.4670	13.1530
 1.4680	13.2260
 1.4690	13.3030
 1.4700	13.3830
 1.4710	13.4670
 1.4720	13.5530
 1.4730	13.6430
 1.4740	13.7360
 1.4750	13.8310
 1.4760	13.9290
 1.4770	14.0290
 1.4780	14.1310
 1.4790	14.2370
 1.4800	14.3420
 1.4810	14.4490
 1.4820	14.5590
 1.4830	14.6680
 1.4840	14.7810
 1.4850	14.8950
 1.4860	15.0090
 1.4870	15.1260
 1.4880	15.2420
 1.4890	15.3600
 1.4900	15.4790
 1.4910	15.5980
 1.4920	15.7180
 1.4930	15.8390
 1.4940	15.9610
 1.4950	16.0830
 1.4960	16.2060
 1.4970	16.3290
 1.4980	16.4540
 1.4990	16.5790
 1.5000	16.7040
 1.5010	16.8290
 1.5020	16.9540
 1.5030	17.0800
 1.5040	17.2050
 1.5050	17.3300
 1.5060	17.4560
 1.5070	17.5820
 1.5080	17.7080
 1.5090	17.8350
 1.5100	17.9610
 1.5110	18.0860
 1.5120	18.2120
 1.5130	18.3360
 1.5140	18.4600
 1.5150	18.5840
 1.5160	18.7080
 1.5170	18.8310
 1.5180	18.9550
 1.5190	19.0780
 1.5200	19.2010
 1.5210	19.3210
 1.5220	19.4420
 1.5230	19.5630
 1.5240	19.6810
 1.5250	19.8010
 1.5260	19.9210
 1.5270	20.0410
 1.5280	20.1590
 1.5290	20.2750
 1.5300	20.3920
 1.5310	20.5070
 1.5320	20.6200
 1.5330	20.7350
 1.5340	20.8480
 1.5350	20.9600
 1.5360	21.0740
 1.5370	21.1840
 1.5380	21.2950
 1.5390	21.4050
 1.5400	21.5140
 1.5410	21.6230
 1.5420	21.7310
 1.5430	21.8380
 1.5440	21.9440
 1.5450	22.0460
 1.5460	22.1500
 1.5470	22.2540
 1.5480	22.3570
 1.5490	22.4610
 1.5500	22.5620
 1.5510	22.6620
 1.5520	22.7630
 1.5530	22.8620
 1.5540	22.9600
 1.5550	23.0560
 1.5560	23.1510
 1.5570	23.2430
 1.5580	23.3340
 1.5590	23.4270
 1.5600	23.5190
 1.5610	23.6080
 1.5620	23.6980
 1.5630	23.7880
 1.5640	23.8740
 1.5650	23.9610
 1.5660	24.0470
 1.5670	24.1310
 1.5680	24.2150
 1.5690	24.2980
 1.5700	24.3800
 1.5710	24.4630
 1.5720	24.5430
 1.5730	24.6240
 1.5740	24.7030
 1.5750	24.7810
 1.5760	24.8590
 1.5770	24.9350
 1.5780	25.0110
 1.5790	25.0870
 1.5800	25.1620
 1.5810	25.2380
 1.5820	25.3130
 1.5830	25.3860
 1.5840	25.4580
 1.5850	25.5290
 1.5860	25.6000
 1.5870	25.6710
 1.5880	25.7410
 1.5890	25.8090
 1.5900	25.8770
 1.5910	25.9430
 1.5920	26.0080
 1.5930	26.0720
 1.5940	26.1350
 1.5950	26.1980
 1.5960	26.2600
 1.5970	26.3220
 1.5980	26.3840
 1.5990	26.4450
 1.6000	26.5050
 1.6010	26.5650
 1.6020	26.6240
 1.6030	26.6830
 1.6040	26.7390
 1.6050	26.7940
 1.6060	26.8480
 1.6070	26.9030
 1.6080	26.9560
 1.6090	27.0080
 1.6100	27.0590
 1.6110	27.1060
 1.6120	27.1540
 1.6130	27.2020
 1.6140	27.2480
 1.6150	27.2940
 1.6160	27.3400
 1.6170	27.3850
 1.6180	27.4290
 1.6190	27.4730
 1.6200	27.5140
 1.6210	27.5550
 1.6220	27.5950
 1.6230	27.6340
 1.6240	27.6750
 1.6250	27.7150
 1.6260	27.7540
 1.6270	27.7910
 1.6280	27.8260
 1.6290	27.8610
 1.6300	27.8960
 1.6310	27.9310
 1.6320	27.9660
 1.6330	27.9980
 1.6340	28.0290
 1.6350	28.0600
 1.6360	28.0900
 1.6370	28.1210
 1.6380	28.1510
 1.6390	28.1790
 1.6400	28.2070
 1.6410	28.2330
 1.6420	28.2580
 1.6430	28.2830
 1.6440	28.3070
 1.6450	28.3270
 1.6460	28.3450
 1.6470	28.3610
 1.6480	28.3770
 1.6490	28.3930
 1.6500	28.4060
 1.6510	28.4170
 1.6520	28.4250
 1.6530	28.4290
 1.6540	28.4330
 1.6550	28.4350
 1.6560	28.4340
 1.6570	28.4350
 1.6580	28.4330
 1.6590	28.4280
 1.6600	28.4240
 1.6610	28.4170
 1.6620	28.4090
 1.6630	28.4030
 1.6640	28.3960
 1.6650	28.3880
 1.6660	28.3790
 1.6670	28.3680
 1.6680	28.3560
 1.6690	28.3420
 1.6700	28.3270
 1.6710	28.3090
 1.6720	28.2890
 1.6730	28.2700
 1.6740	28.2470
 1.6750	28.2220
 1.6760	28.1950
 1.6770	28.1660
 1.6780	28.1340
 1.6790	28.1020
 1.6800	28.0670
 1.6810	28.0290
 1.6820	27.9900
 1.6830	27.9500
 1.6840	27.9080
 1.6850	27.8630
 1.6860	27.8180
 1.6870	27.7720
 1.6880	27.7260
 1.6890	27.6780
 1.6900	27.6310
 1.6910	27.5820
 1.6920	27.5350
 1.6930	27.4870
 1.6940	27.4420
 1.6950	27.3980
 1.6960	27.3530
 1.6970	27.3070
 1.6980	27.2620
 1.6990	27.2150
 1.7000	27.1690
 1.7010	27.1250
 1.7020	27.0780
 1.7030	27.0290
 1.7040	26.9820
 1.7050	26.9330
 1.7060	26.8850
 1.7070	26.8360
 1.7080	26.7870
 1.7090	26.7360
 1.7100	26.6870
 1.7110	26.6380
 1.7120	26.5900
 1.7130	26.5420
 1.7140	26.4950
 1.7150	26.4480
 1.7160	26.4010
 1.7170	26.3560
 1.7180	26.3090
 1.7190	26.2620
 1.7200	26.2150
 1.7210	26.1670
 1.7220	26.1190
 1.7230	26.0730
 1.7240	26.0270
 1.7250	25.9810
 1.7260	25.9360
 1.7270	25.8890
 1.7280	25.8440
 1.7290	25.7990
 1.7300	25.7570
 1.7310	25.7140
 1.7320	25.6710
 1.7330	25.6270
 1.7340	25.5820
 1.7350	25.5370
 1.7360	25.4920
 1.7370	25.4440
 1.7380	25.3960
 1.7390	25.3450
 1.7400	25.2890
 1.7410	25.2330
 1.7420	25.1770
 1.7430	25.1170
 1.7440	25.0560
 1.7450	24.9920
 1.7460	24.9260
 1.7470	24.8590
 1.7480	24.7890
 1.7490	24.7200
 1.7500	24.6490
 1.7510	24.5790
 1.7520	24.5090
 1.7530	24.4400
 1.7540	24.3700
 1.7550	24.3000
 1.7560	24.2290
 1.7570	24.1570
 1.7580	24.0850
 1.7590	24.0150
 1.7600	23.9470
 1.7610	23.8840
 1.7620	23.8210
 1.7630	23.7590
 1.7640	23.6970
 1.7650	23.6350
 1.7660	23.5780
 1.7670	23.5220
 1.7680	23.4690
 1.7690	23.4190
 1.7700	23.3710
 1.7710	23.3240
 1.7720	23.2780
 1.7730	23.2340
 1.7740	23.1910
 1.7750	23.1510
 1.7760	23.1100
 1.7770	23.0710
 1.7780	23.0340
 1.7790	22.9990
 1.7800	22.9650
 1.7810	22.9340
 1.7820	22.9030
 1.7830	22.8710
 1.7840	22.8430
 1.7850	22.8170
 1.7860	22.7940
 1.7870	22.7740
 1.7880	22.7550
 1.7890	22.7370
 1.7900	22.7200
 1.7910	22.7040
 1.7920	22.6880
 1.7930	22.6750
 1.7940	22.6630
 1.7950	22.6540
 1.7960	22.6510
 1.7970	22.6460
 1.7980	22.6410
 1.7990	22.6380
 1.8000	22.6360
 1.8010	22.6330
 1.8020	22.6320
 1.8030	22.6310
 1.8040	22.6280
 1.8050	22.6270
 1.8060	22.6280
 1.8070	22.6280
 1.8080	22.6280
 1.8090	22.6260
 1.8100	22.6240
 1.8110	22.6210
 1.8120	22.6170
 1.8130	22.6140
 1.8140	22.6110
 1.8150	22.6080
 1.8160	22.6030
 1.8170	22.5970
 1.8180	22.5920
 1.8190	22.5810
 1.8200	22.5720
 1.8210	22.5610
 1.8220	22.5490
 1.8230	22.5400
 1.8240	22.5250
 1.8250	22.5020
 1.8260	22.4830
 1.8270	22.4920
 1.8280	22.5010
 1.8290	22.5090
 1.8300	22.5180
 1.8310	22.5270
 1.8320	22.5360
 1.8330	22.5450
 1.8340	22.5530
 1.8350	22.5530
 1.8360	22.4980
 1.8370	22.4350
 1.8380	22.3680
 1.8390	22.2940
 1.8400	22.2130
 1.8410	22.1250
 1.8420	22.0330
 1.8430	21.9340
 1.8440	21.8290
 1.8450	21.7160
 1.8460	21.5960
 1.8470	21.4690
 1.8480	21.3310
 1.8490	21.1780
 1.8500	21.0170
 1.8510	20.8470
 1.8520	20.6660
 1.8530	20.4710
 1.8540	20.2680
 1.8550	20.0530
 1.8560	19.8240
 1.8570	19.5830
 1.8580	19.3290
 1.8590	19.0600
 1.8600	18.7770
 1.8610	18.4800
 1.8620	18.1700
 1.8630	17.8500
 1.8640	17.5190
 1.8650	17.1720
 1.8660	16.8120
 1.8670	16.4350
 1.8680	16.0430
 1.8690	15.6400
 1.8700	15.2290
 1.8710	14.8070
 1.8720	14.3820
 1.8730	13.9530
 1.8740	13.5180
 1.8750	13.0840
 1.8760	12.6490
 1.8770	12.2220
 1.8780	11.8030
 1.8790	11.3910
 1.8800	10.9930
 1.8810	10.6050
 1.8820	10.2270
 1.8830	 9.8600
 1.8840	 9.5100
 1.8850	 9.1700
 1.8860	 8.8430
 1.8870	 8.5350
 1.8880	 8.2420
 1.8890	 7.9650
 1.8900	 7.7070
 1.8910	 7.4680
 1.8920	 7.2450
 1.8930	 7.0420
 1.8940	 6.8580
 1.8950	 6.6930
 1.8960	 6.5430
 1.8970	 6.4030
 1.8980	 6.2780
 1.8990	 6.1650
 1.9000	 6.0620
 1.9010	 5.9730
 1.9020	 5.8910
 1.9030	 5.8200
 1.9040	 5.7550
 1.9050	 5.7000
 1.9060	 5.6510
 1.9070	 5.6080
 1.9080	 5.5690
 1.9090	 5.5340
 1.9100	 5.5060
 1.9110	 5.4800
 1.9120	 5.4600
 1.9130	 5.4400
 1.9140	 5.4250
 1.9150	 5.4090
 1.9160	 5.3950
 1.9170	 5.3850
 1.9180	 5.3750
 1.9190	 5.3680
 1.9200	 5.3640
 1.9210	 5.3580
 1.9220	 5.3550
 1.9230	 5.3540
 1.9240	 5.3530
 1.9250	 5.3520
 1.9260	 5.3540
 1.9270	 5.3590
 1.9280	 5.3620
 1.9290	 5.3660
 1.9300	 5.3700
 1.9310	 5.3750
 1.9320	 5.3800
 1.9330	 5.3880
 1.9340	 5.3980
 1.9350	 5.4070
 1.9360	 5.4180
 1.9370	 5.4280
 1.9380	 5.4390
 1.9390	 5.4490
 1.9400	 5.4610
 1.9410	 5.4730
 1.9420	 5.4870
 1.9430	 5.5010
 1.9440	 5.5160
 1.9450	 5.5300
 1.9460	 5.5470
 1.9470	 5.5670
 1.9480	 5.5850
 1.9490	 5.6030
 1.9500	 5.6220
 1.9510	 5.6400
 1.9520	 5.6590
 1.9530	 5.6800
 1.9540	 5.7030
 1.9550	 5.7260
 1.9560	 5.7520
 1.9570	 5.7750
 1.9580	 5.7970
 1.9590	 5.8200
 1.9600	 5.8420
 1.9610	 5.8660
 1.9620	 5.8900
 1.9630	 5.9180
 1.9640	 5.9450
 1.9650	 5.9710
 1.9660	 6.0020
 1.9670	 6.0310
 1.9680	 6.0610
 1.9690	 6.0910
 1.9700	 6.1200
 1.9710	 6.1470
 1.9720	 6.1770
 1.9730	 6.2100
 1.9740	 6.2410
 1.9750	 6.2750
 1.9760	 6.3100
 1.9770	 6.3450
 1.9780	 6.3810
 1.9790	 6.4160
 1.9800	 6.4530
 1.9810	 6.4890
 1.9820	 6.5250
 1.9830	 6.5630
 1.9840	 6.6040
 1.9850	 6.6450
 1.9860	 6.6850
 1.9870	 6.7270
 1.9880	 6.7670
 1.9890	 6.8050
 1.9900	 6.8480
 1.9910	 6.8900
 1.9920	 6.9340
 1.9930	 6.9810
 1.9940	 7.0260
 1.9950	 7.0690
 1.9960	 7.1120
 1.9970	 7.1560
 1.9980	 7.2000
 1.9990	 7.2430
 2.0000	 7.2900
 2.0010	 7.3350
 2.0020	 7.3810
 2.0030	 7.4310
 2.0040	 7.4770
 2.0050	 7.5230
 2.0060	 7.5700
 2.0070	 7.6180
 2.0080	 7.6640
 2.0090	 7.7130
 2.0100	 7.7640
 2.0110	 7.8130
 2.0120	 7.8610
 2.0130	 7.9090
 2.0140	 7.9550
 2.0150	 8.0040
 2.0160	 8.0540
 2.0170	 8.1010
 2.0180	 8.1490
 2.0190	 8.1950
 2.0200	 8.2440
 2.0210	 8.2950
 2.0220	 8.3430
 2.0230	 8.3930
 2.0240	 8.4410
 2.0250	 8.4850
 2.0260	 8.5320
 2.0270	 8.5790
 2.0280	 8.6260
 2.0290	 8.6730
 2.0300	 8.7180
 2.0310	 8.7650
 2.0320	 8.8100
 2.0330	 8.8560
 2.0340	 8.9050
 2.0350	 8.9510
 2.0360	 8.9960
 2.0370	 9.0410
 2.0380	 9.0840
 2.0390	 9.1290
 2.0400	 9.1760
 2.0410	 9.2210
 2.0420	 9.2650
 2.0430	 9.3080
 2.0440	 9.3530
 2.0450	 9.3960
 2.0460	 9.4400
 2.0470	 9.4870
 2.0480	 9.5300
 2.0490	 9.5700
 2.0500	 9.6110
 2.0510	 9.6510
 2.0520	 9.6930
 2.0530	 9.7370
 2.0540	 9.7800
 2.0550	 9.8240
 2.0560	 9.8680
 2.0570	 9.9110
 2.0580	 9.9560
 2.0590	10.0020
 2.0600	10.0500
 2.0610	10.0970
 2.0620	10.1440
 2.0630	10.1920
 2.0640	10.2380
 2.0650	10.2850
 2.0660	10.3330
 2.0670	10.3800
 2.0680	10.4280
 2.0690	10.4750
 2.0700	10.5210
 2.0710	10.5680
 2.0720	10.6160
 2.0730	10.6600
 2.0740	10.7060
 2.0750	10.7540
 2.0760	10.8000
 2.0770	10.8440
 2.0780	10.8890
 2.0790	10.9340
 2.0800	10.9790
 2.0810	11.0260
 2.0820	11.0710
 2.0830	11.1150
 2.0840	11.1600
 2.0850	11.2050
 2.0860	11.2510
 2.0870	11.2970
 2.0880	11.3450
 2.0890	11.3920
 2.0900	11.4380
 2.0910	11.4850
 2.0920	11.5340
 2.0930	11.5790
 2.0940	11.6220
 2.0950	11.6670
 2.0960	11.7090
 2.0970	11.7530
 2.0980	11.7990
 2.0990	11.8430
 2.1000	11.8850
 2.1010	11.9310
 2.1020	11.9790
 2.1030	12.0230
 2.1040	12.0680
 2.1050	12.1120
 2.1060	12.1550
 2.1070	12.1950
 2.1080	12.2370
 2.1090	12.2820
 2.1100	12.3250
 2.1110	12.3670
 2.1120	12.4090
 2.1130	12.4510
 2.1140	12.4930
 2.1150	12.5350
 2.1160	12.5740
 2.1170	12.6090
 2.1180	12.6470
 2.1190	12.6860
 2.1200	12.7240
 2.1210	12.7640
 2.1220	12.8050
 2.1230	12.8420
 2.1240	12.8760
 2.1250	12.9100
 2.1260	12.9420
 2.1270	12.9770
 2.1280	13.0140
 2.1290	13.0480
 2.1300	13.0820
 2.1310	13.1150
 2.1320	13.1440
 2.1330	13.1740
 2.1340	13.2050
 2.1350	13.2350
 2.1360	13.2640
 2.1370	13.2910
 2.1380	13.3150
 2.1390	13.3400
 2.1400	13.3620
 2.1410	13.3880
 2.1420	13.4150
 2.1430	13.4440
 2.1440	13.4710
 2.1450	13.5000
 2.1460	13.5250
 2.1470	13.5480
 2.1480	13.5710
 2.1490	13.5900
 2.1500	13.6100
 2.1510	13.6320
 2.1520	13.6500
 2.1530	13.6670
 2.1540	13.6840
 2.1550	13.6980
 2.1560	13.7160
 2.1570	13.7380
 2.1580	13.7580
 2.1590	13.7780
 2.1600	13.8000
 2.1610	13.8180
 2.1620	13.8340
 2.1630	13.8510
 2.1640	13.8670
 2.1650	13.8820
 2.1660	13.8960
 2.1670	13.9110
 2.1680	13.9230
 2.1690	13.9380
 2.1700	13.9570
 2.1710	13.9720
 2.1720	13.9850
 2.1730	13.9980
 2.1740	14.0060
 2.1750	14.0190
 2.1760	14.0330
 2.1770	14.0480
 2.1780	14.0660
 2.1790	14.0820
 2.1800	14.0990
 2.1810	14.1130
 2.1820	14.1260
 2.1830	14.1370
 2.1840	14.1470
 2.1850	14.1550
 2.1860	14.1650
 2.1870	14.1740
 2.1880	14.1840
 2.1890	14.1960
 2.1900	14.2060
 2.1910	14.2160
 2.1920	14.2260
 2.1930	14.2360
 2.1940	14.2450
 2.1950	14.2530
 2.1960	14.2610
 2.1970	14.2680
 2.1980	14.2750
 2.1990	14.2840
 2.2000	14.2890
 2.2010	14.2900
 2.2020	14.2920
 2.2030	14.2920
 2.2040	14.2920
 2.2050	14.2940
 2.2060	14.2930
 2.2070	14.2910
 2.2080	14.2850
 2.2090	14.2830
 2.2100	14.2820
 2.2110	14.2770
 2.2120	14.2720
 2.2130	14.2660
 2.2140	14.2560
 2.2150	14.2480
 2.2160	14.2420
 2.2170	14.2340
 2.2180	14.2230
 2.2190	14.2130
 2.2200	14.2060
 2.2210	14.1940
 2.2220	14.1790
 2.2230	14.1630
 2.2240	14.1450
 2.2250	14.1240
 2.2260	14.1030
 2.2270	14.0790
 2.2280	14.0530
 2.2290	14.0250
 2.2300	13.9930
 2.2310	13.9630
 2.2320	13.9290
 2.2330	13.8920
 2.2340	13.8560
 2.2350	13.8200
 2.2360	13.7830
 2.2370	13.7470
 2.2380	13.7060
 2.2390	13.6630
 2.2400	13.6200
 2.2410	13.5750
 2.2420	13.5300
 2.2430	13.4860
 2.2440	13.4410
 2.2450	13.3940
 2.2460	13.3510
 2.2470	13.3090
 2.2480	13.2670
 2.2490	13.2290
 2.2500	13.1870
 2.2510	13.1420
 2.2520	13.0980
 2.2530	13.0530
 2.2540	13.0060
 2.2550	12.9600
 2.2560	12.9130
 2.2570	12.8630
 2.2580	12.8130
 2.2590	12.7600
 2.2600	12.7080
 2.2610	12.6550
 2.2620	12.6030
 2.2630	12.5510
 2.2640	12.5020
 2.2650	12.4550
 2.2660	12.4060
 2.2670	12.3560
 2.2680	12.3060
 2.2690	12.2570
 2.2700	12.2070
 2.2710	12.1610
 2.2720	12.1200
 2.2730	12.0730
 2.2740	12.0230
 2.2750	11.9760
 2.2760	11.9260
 2.2770	11.8800
 2.2780	11.8370
 2.2790	11.7950
 2.2800	11.7540
 2.2810	11.7150
 2.2820	11.6800
 2.2830	11.6410
 2.2840	11.6010
 2.2850	11.5630
 2.2860	11.5250
 2.2870	11.4850
 2.2880	11.4490
 2.2890	11.4080
 2.2900	11.3600
 2.2910	11.3170
 2.2920	11.2730
 2.2930	11.2290
 2.2940	11.1870
 2.2950	11.1450
 2.2960	11.1020
 2.2970	11.0610
 2.2980	11.0230
 2.2990	10.9840
 2.3000	10.9450
 2.3010	10.9090
 2.3020	10.8680
 2.3030	10.8280
 2.3040	10.7930
 2.3050	10.7570
 2.3060	10.7250
 2.3070	10.6950
 2.3080	10.6580
 2.3090	10.6220
 2.3100	10.5890
 2.3110	10.5570
 2.3120	10.5310
 2.3130	10.5160
 2.3140	10.4920
 2.3150	10.4650
 2.3160	10.4420
 2.3170	10.4170
 2.3180	10.3970
 2.3190	10.3830
 2.3200	10.3660
 2.3210	10.3490
 2.3220	10.3250
 2.3230	10.2970
 2.3240	10.2670
 2.3250	10.2280
 2.3260	10.1930
 2.3270	10.1560
 2.3280	10.1220
 2.3290	10.0890
 2.3300	10.0570
 2.3310	10.0290
 2.3320	 9.9980
 2.3330	 9.9670
 2.3340	 9.9350
 2.3350	 9.9010
 2.3360	 9.8680
 2.3370	 9.8350
 2.3380	 9.8010
 2.3390	 9.7690
 2.3400	 9.7320
 2.3410	 9.6880
 2.3420	 9.6490
 2.3430	 9.6090
 2.3440	 9.5720
 2.3450	 9.5440
 2.3460	 9.5110
 2.3470	 9.4770
 2.3480	 9.4430
 2.3490	 9.4070
 2.3500	 9.3720
 2.3510	 9.3350
 2.3520	 9.3040
 2.3530	 9.2760
 2.3540	 9.2460
 2.3550	 9.2180
 2.3560	 9.1910
 2.3570	 9.1600
 2.3580	 9.1280
 2.3590	 9.0940
 2.3600	 9.0590
 2.3610	 9.0310
 2.3620	 9.0010
 2.3630	 8.9730
 2.3640	 8.9450
 2.3650	 8.9140
 2.3660	 8.8820
 2.3670	 8.8480
 2.3680	 8.8190
 2.3690	 8.7880
 2.3700	 8.7490
 2.3710	 8.7150
 2.3720	 8.6830
 2.3730	 8.6500
 2.3740	 8.6250
 2.3750	 8.5990
 2.3760	 8.5680
 2.3770	 8.5340
 2.3780	 8.4960
 2.3790	 8.4650
 2.3800	 8.4360
 2.3810	 8.4050
 2.3820	 8.3810
 2.3830	 8.3610
 2.3840	 8.3330
 2.3850	 8.3020
 2.3860	 8.2670
 2.3870	 8.2230
 2.3880	 8.1810
 2.3890	 8.1510
 2.3900	 8.1210
 2.3910	 8.0940
 2.3920	 8.0720
 2.3930	 8.0360
 2.3940	 8.0010
 2.3950	 7.9690
 2.3960	 7.9290
 2.3970	 7.8880
 2.3980	 7.8480
 2.3990	 7.8130
 2.4000	 7.7830
 2.4010	 7.7540
 2.4020	 7.7340
 2.4030	 7.7060
 2.4040	 7.6720
 2.4050	 7.6430
 2.4060	 7.6100
 2.4070	 7.5720
 2.4080	 7.5370
 2.4090	 7.5090
 2.4100	 7.4870
 2.4110	 7.4580
 2.4120	 7.4210
 2.4130	 7.3850
 2.4140	 7.3440
 2.4150	 7.3230
 2.4160	 7.3210
 2.4170	 7.3060
 2.4180	 7.2760
 2.4190	 7.2330
 2.4200	 7.1850
 2.4210	 7.1370
 2.4220	 7.1030
 2.4230	 7.0820
 2.4240	 7.0550
 2.4250	 7.0300
 2.4260	 7.0120
 2.4270	 6.9730
 2.4280	 6.9370
 2.4290	 6.9140
 2.4300	 6.8740
 2.4310	 6.8560
 2.4320	 6.8360
 2.4330	 6.7940
 2.4340	 6.7690
 2.4350	 6.7280
 2.4360	 6.6770
 2.4370	 6.6400
 2.4380	 6.6070
 2.4390	 6.5960
 2.4400	 6.5880
 2.4410	 6.5720
 2.4420	 6.5530
 2.4430	 6.5160
 2.4440	 6.4790
 2.4450	 6.4580
 2.4460	 6.4390
 2.4470	 6.4230
 2.4480	 6.4000
 2.4490	 6.3640
 2.4500	 6.3310
 2.4510	 6.2980
 2.4520	 6.2670
 2.4530	 6.2490
 2.4540	 6.2270
 2.4550	 6.1990
 2.4560	 6.1770
 2.4570	 6.1530
 2.4580	 6.1180
 2.4590	 6.0990
 2.4600	 6.0970
 2.4610	 6.0740
 2.4620	 6.0530
 2.4630	 6.0340
 2.4640	 5.9960
 2.4650	 5.9730
 2.4660	 5.9660
 2.4670	 5.9560
 2.4680	 5.9300
 2.4690	 5.8960
 2.4700	 5.8790
 2.4710	 5.8480
 2.4720	 5.8270
 2.4730	 5.8430
 2.4740	 5.8260
 2.4750	 5.7930
 2.4760	 5.7790
 2.4770	 5.7520
 2.4780	 5.7440
 2.4790	 5.7660
 2.4800	 5.7540
 2.4810	 5.7370
 2.4820	 5.6700
 2.4830	 5.6150
 2.4840	 5.5840
 2.4850	 5.5600
 2.4860	 5.5790
 2.4870	 5.5990
 2.4880	 5.5950
 2.4890	 5.6230
 2.4900	 5.6360
 2.4910	 5.6590
 2.4920	 5.6900
 2.4930	 5.6840
 2.4940	 5.6790
 2.4950	 5.6220
 2.4960	 5.5770
 2.4970	 5.5880
 2.4980	 5.5870
 2.4990	 5.6200
 2.5000	 5.6490
