Name: Arctostaphylos glandulosa 2
Type: vegetation
Class: Shrub
Genus: Arctostaphylos
Species: glandulosa
Sample No.: VH119
Owner: UCSB
Wavelength Range: TIR
Origin: 34.5084; -119.7682; WGS84
Collection Date: 6/3/2013
Description: Samples were collected as part of the HyspIRI Airborne Campaign. 48 individual plants were sampled in three times in 2013 - spring  summer  and fall. The name of the sample includes a 1  2  or 3 which references a different individual of the species. Samples were taken to JPL and processed within 48 hours of collection. The same leaves were processed in the Nicolet and then measured using the ASD.
Measurement: Hemispherical reflectance
First Column: X
Second Column: Y
X Units: Wavelength (micrometers)
Y Units: Reflectance (percentage)
First X Value: 2.501
Last X Value: 15.387
Number of X Values: 1737
Additional Information: vegetation.shrub.arctostaphylos.glandulosa.tir.vh119.ucsb.nicolet.ancillary.txt

 2.5010	 8.7020
 2.5030	 8.5810
 2.5040	 8.6280
 2.5050	 8.7210
 2.5060	 8.8090
 2.5070	 8.6140
 2.5090	 8.6190
 2.5100	 8.7290
 2.5110	 8.7540
 2.5120	 8.6050
 2.5140	 8.4730
 2.5150	 8.4740
 2.5160	 8.6900
 2.5170	 8.6090
 2.5180	 8.5110
 2.5200	 8.5000
 2.5210	 8.7210
 2.5220	 8.7510
 2.5230	 8.7190
 2.5250	 8.6220
 2.5260	 8.6490
 2.5270	 8.6110
 2.5280	 8.5930
 2.5290	 8.5160
 2.5310	 8.5710
 2.5320	 8.5510
 2.5330	 8.5980
 2.5340	 8.5630
 2.5360	 8.5910
 2.5370	 8.5530
 2.5380	 8.5330
 2.5390	 8.5450
 2.5410	 8.6660
 2.5420	 8.5880
 2.5430	 8.5530
 2.5440	 8.5600
 2.5460	 8.6610
 2.5470	 8.5990
 2.5480	 8.5720
 2.5490	 8.6730
 2.5510	 8.7560
 2.5520	 8.6970
 2.5530	 8.7300
 2.5540	 8.6850
 2.5560	 8.6750
 2.5570	 8.7070
 2.5580	 8.7390
 2.5590	 8.6440
 2.5610	 8.6290
 2.5620	 8.5730
 2.5630	 8.6050
 2.5640	 8.6430
 2.5660	 8.6410
 2.5670	 8.5670
 2.5680	 8.5990
 2.5700	 8.5660
 2.5710	 8.6460
 2.5720	 8.6720
 2.5730	 8.6770
 2.5750	 8.6120
 2.5760	 8.5990
 2.5770	 8.6000
 2.5790	 8.6000
 2.5800	 8.6350
 2.5810	 8.6920
 2.5820	 8.5890
 2.5840	 8.6200
 2.5850	 8.6260
 2.5860	 8.6280
 2.5880	 8.5500
 2.5890	 8.5600
 2.5900	 8.5180
 2.5910	 8.6600
 2.5930	 8.6340
 2.5940	 8.6780
 2.5950	 8.6320
 2.5970	 8.6100
 2.5980	 8.6190
 2.5990	 8.6600
 2.6000	 8.6590
 2.6020	 8.7520
 2.6030	 8.6340
 2.6040	 8.5610
 2.6060	 8.5700
 2.6070	 8.6040
 2.6080	 8.4830
 2.6100	 8.5330
 2.6110	 8.6390
 2.6120	 8.7050
 2.6140	 8.6380
 2.6150	 8.6030
 2.6160	 8.5090
 2.6180	 8.5670
 2.6190	 8.5710
 2.6200	 8.5320
 2.6220	 8.5220
 2.6230	 8.5330
 2.6240	 8.4220
 2.6260	 8.5100
 2.6270	 8.4920
 2.6280	 8.4920
 2.6300	 8.4350
 2.6310	 8.4490
 2.6320	 8.3900
 2.6340	 8.4380
 2.6350	 8.4040
 2.6360	 8.4070
 2.6380	 8.4310
 2.6390	 8.3910
 2.6400	 8.3280
 2.6420	 8.3790
 2.6430	 8.3980
 2.6440	 8.4350
 2.6460	 8.3970
 2.6470	 8.4730
 2.6480	 8.4660
 2.6500	 8.4610
 2.6510	 8.2960
 2.6520	 8.3460
 2.6540	 8.3030
 2.6550	 8.3860
 2.6560	 8.4620
 2.6580	 8.4230
 2.6590	 8.2970
 2.6610	 8.3470
 2.6620	 8.2720
 2.6630	 8.3000
 2.6650	 8.2760
 2.6660	 8.2840
 2.6670	 8.3360
 2.6690	 8.3300
 2.6700	 8.2790
 2.6720	 8.3650
 2.6730	 8.3730
 2.6740	 8.3390
 2.6760	 8.2760
 2.6770	 8.3580
 2.6780	 8.4520
 2.6800	 8.4700
 2.6810	 8.2430
 2.6830	 8.1610
 2.6840	 8.1660
 2.6850	 8.2660
 2.6870	 8.1860
 2.6880	 8.1390
 2.6900	 8.0990
 2.6910	 8.1210
 2.6920	 8.0900
 2.6940	 8.1200
 2.6950	 8.0650
 2.6970	 8.1450
 2.6980	 8.0820
 2.6990	 8.0420
 2.7010	 7.9290
 2.7020	 7.8970
 2.7040	 7.8300
 2.7050	 7.8880
 2.7060	 7.9480
 2.7080	 8.0160
 2.7090	 8.0030
 2.7110	 8.0940
 2.7120	 7.9860
 2.7130	 7.8580
 2.7150	 7.8720
 2.7160	 7.9420
 2.7180	 7.8850
 2.7190	 7.8460
 2.7210	 7.8740
 2.7220	 7.9590
 2.7230	 7.9200
 2.7250	 7.9020
 2.7260	 7.8450
 2.7280	 7.8920
 2.7290	 7.8950
 2.7310	 7.9600
 2.7320	 7.8490
 2.7330	 7.8120
 2.7350	 7.7020
 2.7360	 7.6730
 2.7380	 7.6250
 2.7390	 7.7820
 2.7410	 7.9020
 2.7420	 7.8850
 2.7440	 7.7840
 2.7450	 7.7830
 2.7470	 7.8090
 2.7480	 7.8850
 2.7490	 7.7370
 2.7510	 7.7590
 2.7520	 7.7800
 2.7540	 7.7780
 2.7550	 7.7520
 2.7570	 7.7970
 2.7580	 7.7280
 2.7600	 7.7350
 2.7610	 7.8240
 2.7630	 7.8550
 2.7640	 7.8000
 2.7660	 7.9110
 2.7670	 7.8650
 2.7680	 7.8210
 2.7700	 7.8380
 2.7710	 7.8670
 2.7730	 7.7960
 2.7740	 7.7780
 2.7760	 7.7290
 2.7770	 7.6790
 2.7790	 7.6590
 2.7800	 7.7930
 2.7820	 7.8450
 2.7830	 7.8290
 2.7850	 7.7050
 2.7860	 7.6600
 2.7880	 7.6420
 2.7890	 7.7200
 2.7910	 7.7280
 2.7920	 7.7050
 2.7940	 7.6500
 2.7950	 7.6370
 2.7970	 7.5790
 2.7980	 7.6790
 2.8000	 7.7360
 2.8010	 7.7500
 2.8030	 7.6480
 2.8040	 7.6990
 2.8060	 7.6840
 2.8070	 7.6690
 2.8090	 7.6570
 2.8110	 7.7350
 2.8120	 7.7240
 2.8140	 7.6930
 2.8150	 7.6440
 2.8170	 7.7150
 2.8180	 7.6820
 2.8200	 7.7510
 2.8210	 7.8320
 2.8230	 7.9440
 2.8240	 7.8300
 2.8260	 7.6570
 2.8270	 7.5520
 2.8290	 7.6580
 2.8300	 7.6640
 2.8320	 7.6800
 2.8340	 7.6860
 2.8350	 7.7890
 2.8370	 7.8530
 2.8380	 7.8400
 2.8400	 7.7680
 2.8410	 7.8280
 2.8430	 7.8100
 2.8440	 7.8210
 2.8460	 7.7280
 2.8480	 7.6750
 2.8490	 7.5350
 2.8510	 7.5820
 2.8520	 7.6190
 2.8540	 7.7130
 2.8550	 7.6810
 2.8570	 7.6590
 2.8590	 7.6940
 2.8600	 7.7090
 2.8620	 7.5510
 2.8630	 7.4970
 2.8650	 7.5360
 2.8660	 7.7090
 2.8680	 7.7020
 2.8700	 7.6800
 2.8710	 7.6430
 2.8730	 7.6600
 2.8740	 7.6300
 2.8760	 7.7590
 2.8780	 7.7520
 2.8790	 7.7230
 2.8810	 7.5950
 2.8820	 7.5100
 2.8840	 7.5330
 2.8860	 7.5870
 2.8870	 7.6060
 2.8890	 7.7060
 2.8900	 7.5790
 2.8920	 7.5850
 2.8940	 7.6350
 2.8950	 7.7720
 2.8970	 7.6970
 2.8980	 7.6000
 2.9000	 7.5420
 2.9020	 7.6380
 2.9030	 7.6770
 2.9050	 7.6960
 2.9070	 7.7820
 2.9080	 7.6910
 2.9100	 7.5950
 2.9120	 7.6960
 2.9130	 7.6540
 2.9150	 7.6590
 2.9160	 7.7470
 2.9180	 7.7650
 2.9200	 7.6460
 2.9210	 7.7420
 2.9230	 7.7760
 2.9250	 7.8860
 2.9260	 7.8290
 2.9280	 7.7420
 2.9300	 7.7880
 2.9310	 7.8860
 2.9330	 7.7460
 2.9350	 7.6750
 2.9360	 7.6200
 2.9380	 7.6380
 2.9400	 7.6470
 2.9410	 7.6610
 2.9430	 7.6280
 2.9450	 7.7010
 2.9460	 7.6650
 2.9480	 7.6350
 2.9500	 7.6490
 2.9510	 7.6660
 2.9530	 7.5940
 2.9550	 7.7170
 2.9560	 7.7520
 2.9580	 7.7580
 2.9600	 7.6980
 2.9610	 7.6700
 2.9630	 7.5450
 2.9650	 7.6250
 2.9660	 7.7060
 2.9680	 7.7480
 2.9700	 7.6030
 2.9720	 7.5970
 2.9730	 7.6610
 2.9750	 7.7090
 2.9770	 7.7440
 2.9780	 7.8680
 2.9800	 7.7780
 2.9820	 7.7560
 2.9840	 7.7310
 2.9850	 7.7150
 2.9870	 7.6510
 2.9890	 7.6720
 2.9900	 7.6770
 2.9920	 7.7480
 2.9940	 7.7090
 2.9960	 7.7440
 2.9970	 7.7760
 2.9990	 7.7760
 3.0010	 7.7090
 3.0030	 7.7010
 3.0040	 7.5920
 3.0060	 7.4440
 3.0080	 7.4040
 3.0100	 7.5500
 3.0110	 7.5570
 3.0130	 7.6830
 3.0150	 7.8190
 3.0170	 7.8400
 3.0180	 7.7160
 3.0200	 7.6810
 3.0220	 7.5980
 3.0240	 7.7150
 3.0250	 7.6890
 3.0270	 7.6820
 3.0290	 7.6820
 3.0310	 7.7450
 3.0320	 7.6680
 3.0340	 7.6430
 3.0360	 7.6550
 3.0380	 7.7540
 3.0400	 7.6690
 3.0410	 7.6700
 3.0430	 7.6620
 3.0450	 7.6660
 3.0470	 7.6960
 3.0480	 7.6480
 3.0500	 7.5850
 3.0520	 7.6780
 3.0540	 7.6260
 3.0560	 7.6230
 3.0570	 7.5470
 3.0590	 7.6010
 3.0610	 7.6080
 3.0630	 7.6480
 3.0650	 7.6180
 3.0660	 7.5960
 3.0680	 7.5540
 3.0700	 7.5730
 3.0720	 7.6510
 3.0740	 7.7800
 3.0760	 7.7470
 3.0770	 7.7660
 3.0790	 7.7220
 3.0810	 7.6930
 3.0830	 7.5960
 3.0850	 7.5600
 3.0870	 7.5880
 3.0880	 7.6610
 3.0900	 7.5930
 3.0920	 7.6340
 3.0940	 7.6400
 3.0960	 7.5970
 3.0980	 7.4610
 3.0990	 7.5150
 3.1010	 7.6680
 3.1030	 7.7350
 3.1050	 7.6210
 3.1070	 7.5330
 3.1090	 7.4320
 3.1110	 7.4560
 3.1120	 7.5170
 3.1140	 7.6510
 3.1160	 7.6520
 3.1180	 7.5930
 3.1200	 7.5490
 3.1220	 7.6630
 3.1240	 7.6900
 3.1260	 7.6130
 3.1270	 7.4640
 3.1290	 7.4920
 3.1310	 7.5770
 3.1330	 7.6100
 3.1350	 7.5720
 3.1370	 7.5470
 3.1390	 7.5290
 3.1410	 7.5560
 3.1430	 7.5210
 3.1450	 7.5900
 3.1460	 7.5750
 3.1480	 7.6360
 3.1500	 7.5750
 3.1520	 7.5150
 3.1540	 7.4580
 3.1560	 7.5280
 3.1580	 7.5450
 3.1600	 7.5320
 3.1620	 7.5050
 3.1640	 7.6120
 3.1660	 7.5850
 3.1680	 7.6390
 3.1700	 7.6930
 3.1710	 7.5890
 3.1730	 7.4930
 3.1750	 7.6060
 3.1770	 7.6230
 3.1790	 7.6230
 3.1810	 7.6420
 3.1830	 7.6820
 3.1850	 7.6320
 3.1870	 7.5800
 3.1890	 7.4900
 3.1910	 7.5430
 3.1930	 7.5280
 3.1950	 7.5130
 3.1970	 7.4930
 3.1990	 7.5650
 3.2010	 7.5730
 3.2030	 7.5100
 3.2050	 7.4490
 3.2070	 7.5000
 3.2090	 7.4160
 3.2110	 7.4400
 3.2130	 7.4770
 3.2150	 7.5180
 3.2170	 7.5150
 3.2190	 7.5200
 3.2210	 7.5090
 3.2230	 7.5850
 3.2250	 7.5050
 3.2270	 7.4600
 3.2290	 7.4350
 3.2310	 7.4890
 3.2330	 7.4780
 3.2350	 7.4630
 3.2370	 7.4070
 3.2390	 7.4290
 3.2410	 7.4250
 3.2430	 7.4140
 3.2450	 7.4120
 3.2470	 7.4690
 3.2490	 7.4550
 3.2510	 7.4260
 3.2530	 7.4280
 3.2550	 7.4770
 3.2570	 7.4240
 3.2590	 7.5170
 3.2610	 7.5320
 3.2630	 7.4590
 3.2650	 7.3970
 3.2670	 7.4330
 3.2690	 7.3840
 3.2720	 7.3580
 3.2740	 7.3350
 3.2760	 7.3410
 3.2780	 7.2550
 3.2800	 7.3210
 3.2820	 7.4320
 3.2840	 7.4870
 3.2860	 7.4240
 3.2880	 7.3420
 3.2900	 7.3030
 3.2920	 7.3490
 3.2940	 7.2930
 3.2960	 7.3280
 3.2990	 7.3350
 3.3010	 7.3120
 3.3030	 7.3030
 3.3050	 7.3430
 3.3070	 7.3170
 3.3090	 7.3880
 3.3110	 7.4530
 3.3130	 7.4440
 3.3150	 7.3410
 3.3180	 7.2780
 3.3200	 7.2130
 3.3220	 7.2120
 3.3240	 7.2100
 3.3260	 7.2970
 3.3280	 7.2630
 3.3300	 7.2340
 3.3330	 7.1920
 3.3350	 7.1570
 3.3370	 7.1160
 3.3390	 7.1650
 3.3410	 7.1520
 3.3430	 7.1560
 3.3450	 7.1310
 3.3480	 7.0880
 3.3500	 6.9470
 3.3520	 6.9600
 3.3540	 7.0040
 3.3560	 7.0960
 3.3580	 7.1120
 3.3610	 7.0440
 3.3630	 6.9510
 3.3650	 7.0310
 3.3670	 6.9780
 3.3690	 6.9350
 3.3720	 6.9240
 3.3740	 6.9470
 3.3760	 6.9120
 3.3780	 6.8580
 3.3800	 6.8140
 3.3830	 6.8490
 3.3850	 6.8840
 3.3870	 6.9360
 3.3890	 6.9070
 3.3910	 6.7790
 3.3940	 6.6980
 3.3960	 6.7850
 3.3980	 6.7900
 3.4000	 6.7150
 3.4020	 6.6150
 3.4050	 6.6420
 3.4070	 6.5320
 3.4090	 6.4560
 3.4110	 6.4200
 3.4140	 6.4770
 3.4160	 6.6910
 3.4180	 7.0330
 3.4200	 7.3820
 3.4230	 8.1340
 3.4250	 9.0940
 3.4270	10.0680
 3.4290	10.6560
 3.4320	10.6090
 3.4340	10.0760
 3.4360	 9.5060
 3.4390	 9.0440
 3.4410	 8.8390
 3.4430	 8.6500
 3.4450	 8.4880
 3.4480	 8.4080
 3.4500	 8.3570
 3.4520	 8.2920
 3.4550	 8.2370
 3.4570	 8.1910
 3.4590	 8.1890
 3.4620	 8.1220
 3.4640	 8.0970
 3.4660	 8.0470
 3.4680	 8.0560
 3.4710	 8.0130
 3.4730	 7.9270
 3.4750	 7.8490
 3.4780	 7.8130
 3.4800	 7.7240
 3.4820	 7.6700
 3.4850	 7.6310
 3.4870	 7.5950
 3.4890	 7.3690
 3.4920	 7.2570
 3.4940	 7.1850
 3.4970	 7.1020
 3.4990	 7.1040
 3.5010	 7.1450
 3.5040	 7.0510
 3.5060	 7.4520
 3.5080	 8.5700
 3.5110	 9.8370
 3.5130	10.3240
 3.5160	10.0560
 3.5180	 9.5940
 3.5200	 9.2460
 3.5230	 8.9470
 3.5250	 8.7600
 3.5270	 8.5980
 3.5300	 8.5090
 3.5320	 8.4220
 3.5350	 8.3660
 3.5370	 8.3420
 3.5400	 8.3650
 3.5420	 8.3150
 3.5440	 8.3100
 3.5470	 8.2460
 3.5490	 8.2230
 3.5520	 8.1880
 3.5540	 8.2030
 3.5570	 8.1380
 3.5590	 8.0650
 3.5610	 8.0350
 3.5640	 8.1120
 3.5660	 8.0970
 3.5690	 8.0130
 3.5710	 7.9460
 3.5740	 7.9810
 3.5760	 8.0210
 3.5790	 7.9920
 3.5810	 7.9550
 3.5840	 8.0240
 3.5860	 7.9840
 3.5890	 7.9580
 3.5910	 7.9600
 3.5930	 7.9580
 3.5960	 7.9120
 3.5980	 7.9840
 3.6010	 7.9950
 3.6030	 7.9830
 3.6060	 7.9440
 3.6080	 7.9190
 3.6110	 7.9500
 3.6140	 7.9210
 3.6160	 7.8390
 3.6190	 7.8380
 3.6210	 7.8730
 3.6240	 7.9050
 3.6260	 7.8760
 3.6290	 7.8590
 3.6310	 7.8380
 3.6340	 7.8420
 3.6360	 7.8590
 3.6390	 7.8810
 3.6410	 7.8130
 3.6440	 7.7980
 3.6470	 7.8160
 3.6490	 7.8590
 3.6520	 7.8440
 3.6540	 7.8370
 3.6570	 7.8150
 3.6590	 7.8120
 3.6620	 7.8590
 3.6650	 7.8610
 3.6670	 7.8070
 3.6700	 7.8280
 3.6720	 7.7880
 3.6750	 7.8230
 3.6780	 7.8040
 3.6800	 7.7290
 3.6830	 7.6970
 3.6850	 7.8030
 3.6880	 7.7990
 3.6910	 7.7930
 3.6930	 7.7880
 3.6960	 7.7430
 3.6990	 7.7120
 3.7010	 7.7810
 3.7040	 7.7780
 3.7060	 7.8300
 3.7090	 7.8300
 3.7120	 7.7850
 3.7140	 7.7240
 3.7170	 7.7460
 3.7200	 7.7780
 3.7220	 7.7930
 3.7250	 7.7610
 3.7280	 7.7680
 3.7300	 7.7700
 3.7330	 7.8120
 3.7360	 7.7650
 3.7390	 7.7300
 3.7410	 7.7140
 3.7440	 7.7600
 3.7470	 7.7900
 3.7490	 7.7410
 3.7520	 7.6670
 3.7550	 7.7100
 3.7580	 7.6950
 3.7600	 7.7570
 3.7630	 7.7800
 3.7660	 7.7550
 3.7680	 7.7680
 3.7710	 7.8110
 3.7740	 7.7990
 3.7770	 7.7280
 3.7790	 7.6780
 3.7820	 7.7230
 3.7850	 7.8190
 3.7880	 7.8190
 3.7900	 7.7280
 3.7930	 7.7220
 3.7960	 7.7120
 3.7990	 7.7530
 3.8020	 7.6980
 3.8040	 7.6410
 3.8070	 7.6660
 3.8100	 7.7400
 3.8130	 7.7120
 3.8160	 7.6930
 3.8180	 7.7190
 3.8210	 7.7400
 3.8240	 7.6820
 3.8270	 7.6990
 3.8300	 7.7640
 3.8330	 7.7770
 3.8350	 7.7290
 3.8380	 7.6780
 3.8410	 7.6690
 3.8440	 7.7630
 3.8470	 7.7860
 3.8500	 7.7370
 3.8520	 7.7220
 3.8550	 7.8190
 3.8580	 7.7740
 3.8610	 7.6840
 3.8640	 7.6730
 3.8670	 7.7560
 3.8700	 7.7330
 3.8730	 7.6910
 3.8750	 7.6970
 3.8780	 7.7330
 3.8810	 7.7380
 3.8840	 7.7630
 3.8870	 7.7680
 3.8900	 7.7060
 3.8930	 7.6970
 3.8960	 7.7130
 3.8990	 7.7510
 3.9020	 7.7950
 3.9050	 7.7320
 3.9080	 7.7320
 3.9110	 7.7630
 3.9140	 7.7820
 3.9160	 7.7810
 3.9190	 7.7490
 3.9220	 7.7200
 3.9250	 7.6900
 3.9280	 7.6840
 3.9310	 7.7280
 3.9340	 7.7910
 3.9370	 7.8320
 3.9400	 7.7480
 3.9430	 7.7130
 3.9460	 7.6800
 3.9490	 7.6580
 3.9520	 7.6920
 3.9550	 7.7510
 3.9580	 7.7250
 3.9610	 7.7060
 3.9640	 7.6750
 3.9670	 7.6490
 3.9700	 7.6810
 3.9730	 7.7840
 3.9770	 7.7850
 3.9800	 7.7730
 3.9830	 7.7240
 3.9860	 7.6790
 3.9890	 7.6980
 3.9920	 7.6860
 3.9950	 7.6670
 3.9980	 7.6880
 4.0010	 7.6970
 4.0040	 7.7400
 4.0070	 7.7700
 4.0100	 7.7740
 4.0130	 7.7090
 4.0170	 7.7070
 4.0200	 7.7140
 4.0230	 7.6750
 4.0260	 7.6550
 4.0290	 7.7230
 4.0320	 7.7150
 4.0350	 7.7490
 4.0380	 7.7510
 4.0420	 7.7090
 4.0450	 7.7130
 4.0480	 7.7620
 4.0510	 7.7810
 4.0540	 7.7800
 4.0570	 7.7300
 4.0610	 7.6710
 4.0640	 7.6410
 4.0670	 7.6900
 4.0700	 7.7530
 4.0730	 7.7290
 4.0770	 7.6640
 4.0800	 7.7070
 4.0830	 7.7500
 4.0860	 7.7340
 4.0890	 7.6720
 4.0930	 7.6990
 4.0960	 7.7120
 4.0990	 7.7290
 4.1020	 7.7200
 4.1060	 7.6730
 4.1090	 7.6730
 4.1120	 7.6880
 4.1150	 7.6830
 4.1190	 7.7160
 4.1220	 7.6850
 4.1250	 7.6190
 4.1280	 7.6720
 4.1320	 7.7410
 4.1350	 7.7760
 4.1380	 7.7930
 4.1420	 7.7970
 4.1450	 7.8120
 4.1480	 7.7480
 4.1520	 7.7310
 4.1550	 7.7380
 4.1580	 7.7340
 4.1620	 7.7350
 4.1650	 7.7260
 4.1680	 7.7100
 4.1720	 7.7290
 4.1750	 7.6970
 4.1780	 7.7280
 4.1820	 7.7670
 4.1850	 7.7660
 4.1890	 7.7580
 4.1920	 7.7400
 4.1950	 7.7400
 4.1990	 7.7490
 4.2020	 7.7280
 4.2060	 7.7050
 4.2090	 7.6800
 4.2120	 7.6440
 4.2160	 7.5250
 4.2190	 7.4910
 4.2230	 7.4720
 4.2260	 7.4940
 4.2300	 7.4770
 4.2330	 7.4220
 4.2360	 7.4920
 4.2400	 7.5600
 4.2430	 7.4770
 4.2470	 7.4930
 4.2500	 7.5550
 4.2540	 7.6000
 4.2570	 7.6120
 4.2610	 7.5520
 4.2640	 7.4350
 4.2680	 7.3930
 4.2710	 7.4560
 4.2750	 7.4140
 4.2780	 7.3510
 4.2820	 7.3270
 4.2850	 7.5120
 4.2890	 7.6470
 4.2930	 7.5590
 4.2960	 7.5540
 4.3000	 7.6570
 4.3030	 7.7300
 4.3070	 7.7430
 4.3100	 7.6430
 4.3140	 7.5990
 4.3180	 7.6950
 4.3210	 7.7370
 4.3250	 7.7370
 4.3280	 7.6630
 4.3320	 7.6170
 4.3360	 7.6470
 4.3390	 7.6820
 4.3430	 7.7140
 4.3470	 7.7060
 4.3500	 7.6700
 4.3540	 7.7320
 4.3570	 7.7480
 4.3610	 7.7070
 4.3650	 7.6770
 4.3680	 7.6310
 4.3720	 7.5970
 4.3760	 7.6200
 4.3800	 7.6670
 4.3830	 7.6740
 4.3870	 7.6780
 4.3910	 7.6810
 4.3940	 7.7140
 4.3980	 7.7290
 4.4020	 7.7150
 4.4060	 7.7290
 4.4090	 7.7410
 4.4130	 7.6900
 4.4170	 7.6510
 4.4210	 7.6510
 4.4240	 7.6890
 4.4280	 7.7150
 4.4320	 7.7500
 4.4360	 7.7470
 4.4400	 7.6600
 4.4430	 7.6160
 4.4470	 7.6430
 4.4510	 7.7230
 4.4550	 7.7630
 4.4590	 7.7640
 4.4620	 7.7230
 4.4660	 7.6970
 4.4700	 7.7360
 4.4740	 7.7040
 4.4780	 7.6470
 4.4820	 7.6920
 4.4860	 7.7080
 4.4900	 7.7220
 4.4930	 7.7410
 4.4970	 7.6900
 4.5010	 7.6300
 4.5050	 7.5970
 4.5090	 7.6630
 4.5130	 7.6480
 4.5170	 7.6270
 4.5210	 7.6410
 4.5250	 7.6390
 4.5290	 7.6580
 4.5330	 7.6200
 4.5370	 7.5850
 4.5410	 7.5970
 4.5450	 7.6050
 4.5490	 7.6120
 4.5530	 7.6170
 4.5570	 7.6330
 4.5610	 7.6300
 4.5650	 7.5910
 4.5690	 7.5370
 4.5730	 7.5680
 4.5770	 7.6040
 4.5810	 7.6410
 4.5850	 7.5880
 4.5890	 7.5360
 4.5930	 7.6140
 4.5970	 7.6800
 4.6010	 7.6010
 4.6050	 7.5780
 4.6090	 7.6040
 4.6130	 7.5930
 4.6170	 7.6190
 4.6220	 7.5840
 4.6260	 7.5240
 4.6300	 7.5390
 4.6340	 7.5580
 4.6380	 7.5910
 4.6420	 7.6280
 4.6460	 7.6310
 4.6510	 7.6200
 4.6550	 7.6400
 4.6590	 7.6220
 4.6630	 7.5730
 4.6670	 7.5520
 4.6720	 7.6110
 4.6760	 7.5610
 4.6800	 7.4980
 4.6840	 7.5180
 4.6880	 7.5310
 4.6930	 7.5570
 4.6970	 7.6030
 4.7010	 7.6050
 4.7050	 7.5960
 4.7100	 7.5450
 4.7140	 7.5230
 4.7180	 7.5200
 4.7230	 7.5440
 4.7270	 7.5460
 4.7310	 7.5660
 4.7360	 7.6010
 4.7400	 7.6360
 4.7440	 7.6170
 4.7490	 7.5860
 4.7530	 7.5670
 4.7570	 7.5390
 4.7620	 7.5450
 4.7660	 7.6070
 4.7700	 7.6000
 4.7750	 7.5780
 4.7790	 7.5780
 4.7840	 7.6040
 4.7880	 7.6270
 4.7920	 7.6280
 4.7970	 7.5780
 4.8010	 7.5460
 4.8060	 7.5290
 4.8100	 7.5270
 4.8150	 7.5880
 4.8190	 7.6660
 4.8240	 7.6030
 4.8280	 7.5600
 4.8330	 7.6020
 4.8370	 7.6640
 4.8420	 7.6410
 4.8460	 7.6010
 4.8510	 7.5230
 4.8550	 7.5180
 4.8600	 7.5450
 4.8640	 7.5900
 4.8690	 7.6060
 4.8730	 7.6070
 4.8780	 7.5760
 4.8830	 7.5430
 4.8870	 7.5650
 4.8920	 7.6630
 4.8960	 7.6390
 4.9010	 7.5820
 4.9060	 7.5160
 4.9100	 7.5450
 4.9150	 7.6220
 4.9200	 7.6490
 4.9240	 7.6150
 4.9290	 7.6620
 4.9340	 7.6770
 4.9380	 7.6700
 4.9430	 7.6480
 4.9480	 7.6650
 4.9530	 7.6320
 4.9570	 7.6130
 4.9620	 7.6010
 4.9670	 7.5900
 4.9720	 7.6230
 4.9760	 7.6940
 4.9810	 7.6990
 4.9860	 7.6900
 4.9910	 7.6800
 4.9960	 7.6640
 5.0000	 7.5990
 5.0050	 7.6030
 5.0100	 7.6060
 5.0150	 7.6200
 5.0200	 7.6250
 5.0250	 7.6010
 5.0290	 7.5410
 5.0340	 7.5740
 5.0390	 7.6610
 5.0440	 7.6810
 5.0490	 7.6370
 5.0540	 7.6300
 5.0590	 7.5940
 5.0640	 7.5680
 5.0690	 7.5450
 5.0740	 7.5620
 5.0790	 7.5740
 5.0840	 7.6040
 5.0890	 7.6470
 5.0940	 7.6550
 5.0990	 7.6200
 5.1040	 7.5960
 5.1090	 7.5780
 5.1140	 7.6080
 5.1190	 7.6620
 5.1240	 7.7450
 5.1290	 7.7220
 5.1340	 7.6240
 5.1390	 7.5840
 5.1440	 7.5780
 5.1490	 7.5580
 5.1540	 7.6390
 5.1600	 7.6440
 5.1650	 7.6470
 5.1700	 7.6310
 5.1750	 7.6350
 5.1800	 7.6200
 5.1850	 7.6200
 5.1910	 7.6640
 5.1960	 7.6530
 5.2010	 7.6180
 5.2060	 7.6700
 5.2110	 7.6070
 5.2170	 7.5530
 5.2220	 7.5710
 5.2270	 7.6010
 5.2320	 7.6010
 5.2380	 7.6110
 5.2430	 7.5780
 5.2480	 7.6390
 5.2540	 7.6290
 5.2590	 7.5220
 5.2640	 7.4900
 5.2700	 7.5850
 5.2750	 7.5870
 5.2800	 7.5780
 5.2860	 7.5760
 5.2910	 7.5630
 5.2970	 7.5370
 5.3020	 7.5970
 5.3070	 7.5650
 5.3130	 7.5690
 5.3180	 7.6220
 5.3240	 7.6650
 5.3290	 7.6270
 5.3350	 7.6770
 5.3400	 7.6470
 5.3460	 7.5870
 5.3510	 7.5580
 5.3570	 7.5320
 5.3620	 7.4760
 5.3680	 7.5170
 5.3730	 7.5590
 5.3790	 7.6100
 5.3850	 7.5720
 5.3900	 7.5850
 5.3960	 7.6010
 5.4010	 7.6180
 5.4070	 7.6040
 5.4130	 7.6290
 5.4180	 7.5880
 5.4240	 7.5440
 5.4300	 7.5170
 5.4350	 7.6090
 5.4410	 7.5640
 5.4470	 7.5410
 5.4530	 7.5380
 5.4580	 7.5520
 5.4640	 7.5240
 5.4700	 7.5150
 5.4760	 7.4750
 5.4810	 7.5220
 5.4870	 7.5090
 5.4930	 7.5450
 5.4990	 7.5290
 5.5050	 7.5470
 5.5110	 7.5380
 5.5160	 7.5530
 5.5220	 7.5070
 5.5280	 7.5450
 5.5340	 7.5270
 5.5400	 7.4990
 5.5460	 7.4410
 5.5520	 7.4710
 5.5580	 7.5260
 5.5640	 7.5610
 5.5700	 7.5500
 5.5760	 7.5590
 5.5820	 7.4670
 5.5880	 7.4590
 5.5940	 7.4480
 5.6000	 7.4560
 5.6060	 7.4240
 5.6120	 7.4040
 5.6180	 7.3560
 5.6240	 7.3680
 5.6300	 7.3440
 5.6360	 7.4250
 5.6420	 7.4890
 5.6490	 7.5050
 5.6550	 7.4300
 5.6610	 7.4080
 5.6670	 7.3560
 5.6730	 7.3840
 5.6800	 7.3390
 5.6860	 7.3550
 5.6920	 7.3880
 5.6980	 7.3800
 5.7040	 7.2970
 5.7110	 7.3210
 5.7170	 7.3130
 5.7230	 7.3150
 5.7300	 7.2640
 5.7360	 7.3000
 5.7420	 7.2820
 5.7490	 7.2900
 5.7550	 7.2750
 5.7620	 7.2990
 5.7680	 7.3460
 5.7740	 7.4450
 5.7810	 7.4480
 5.7870	 7.4670
 5.7940	 7.4600
 5.8000	 7.4650
 5.8070	 7.4250
 5.8130	 7.4430
 5.8200	 7.4640
 5.8260	 7.5100
 5.8330	 7.5000
 5.8390	 7.5800
 5.8460	 7.5810
 5.8530	 7.5940
 5.8590	 7.5390
 5.8660	 7.5890
 5.8720	 7.5500
 5.8790	 7.5910
 5.8860	 7.5650
 5.8920	 7.5770
 5.8990	 7.5830
 5.9060	 7.6440
 5.9130	 7.5980
 5.9190	 7.5730
 5.9260	 7.5050
 5.9330	 7.5850
 5.9400	 7.6320
 5.9470	 7.6840
 5.9530	 7.6440
 5.9600	 7.5930
 5.9670	 7.5670
 5.9740	 7.6780
 5.9810	 7.5960
 5.9880	 7.5490
 5.9950	 7.5560
 6.0020	 7.6720
 6.0090	 7.6240
 6.0160	 7.6170
 6.0230	 7.5930
 6.0300	 7.6320
 6.0370	 7.6590
 6.0440	 7.7940
 6.0510	 7.7840
 6.0580	 7.7080
 6.0650	 7.6870
 6.0720	 7.6890
 6.0790	 7.5660
 6.0860	 7.5970
 6.0930	 7.6290
 6.1000	 7.7020
 6.1080	 7.6880
 6.1150	 7.6840
 6.1220	 7.5990
 6.1290	 7.6400
 6.1370	 7.6410
 6.1440	 7.6880
 6.1510	 7.6200
 6.1580	 7.6360
 6.1660	 7.5970
 6.1730	 7.7030
 6.1800	 7.7370
 6.1880	 7.7780
 6.1950	 7.7160
 6.2030	 7.7590
 6.2100	 7.6660
 6.2170	 7.7400
 6.2250	 7.7380
 6.2320	 7.7780
 6.2400	 7.7650
 6.2470	 7.7890
 6.2550	 7.6040
 6.2630	 7.6020
 6.2700	 7.6140
 6.2780	 7.7240
 6.2850	 7.7240
 6.2930	 7.7050
 6.3010	 7.6130
 6.3080	 7.6220
 6.3160	 7.6550
 6.3240	 7.7390
 6.3310	 7.7010
 6.3390	 7.7650
 6.3470	 7.7040
 6.3550	 7.6950
 6.3620	 7.6160
 6.3700	 7.6950
 6.3780	 7.7120
 6.3860	 7.7790
 6.3940	 7.7150
 6.4020	 7.6840
 6.4100	 7.6070
 6.4180	 7.6010
 6.4260	 7.5810
 6.4330	 7.6580
 6.4410	 7.5490
 6.4490	 7.5920
 6.4580	 7.6020
 6.4660	 7.6200
 6.4740	 7.5660
 6.4820	 7.6430
 6.4900	 7.5730
 6.4980	 7.5370
 6.5060	 7.4690
 6.5140	 7.5080
 6.5230	 7.4790
 6.5310	 7.4900
 6.5390	 7.4260
 6.5470	 7.4530
 6.5550	 7.3690
 6.5640	 7.4330
 6.5720	 7.4550
 6.5800	 7.4430
 6.5890	 7.3150
 6.5970	 7.3420
 6.6060	 7.3540
 6.6140	 7.4270
 6.6220	 7.4010
 6.6310	 7.4150
 6.6390	 7.3530
 6.6480	 7.3220
 6.6560	 7.2600
 6.6650	 7.3400
 6.6740	 7.2980
 6.6820	 7.2910
 6.6910	 7.2200
 6.6990	 7.2690
 6.7080	 7.2180
 6.7170	 7.2140
 6.7260	 7.0900
 6.7340	 7.1100
 6.7430	 7.0570
 6.7520	 6.9820
 6.7610	 6.7930
 6.7690	 6.7330
 6.7780	 6.7350
 6.7870	 7.3410
 6.7960	 7.8420
 6.8050	 7.8160
 6.8140	 7.5250
 6.8230	 7.3920
 6.8320	 7.6260
 6.8410	 8.2780
 6.8500	 8.2980
 6.8590	 8.1190
 6.8680	 7.9220
 6.8770	 7.9040
 6.8860	 7.8610
 6.8950	 7.8720
 6.9050	 7.7540
 6.9140	 7.7490
 6.9230	 7.6740
 6.9320	 7.6460
 6.9420	 7.6630
 6.9510	 7.7840
 6.9600	 7.6850
 6.9700	 7.6940
 6.9790	 7.6910
 6.9880	 7.6820
 6.9980	 7.6250
 7.0070	 7.6650
 7.0170	 7.6230
 7.0260	 7.7210
 7.0360	 7.6900
 7.0450	 7.6800
 7.0550	 7.5640
 7.0650	 7.6730
 7.0740	 7.6920
 7.0840	 7.6930
 7.0940	 7.6460
 7.1030	 7.7290
 7.1130	 7.6640
 7.1230	 7.6920
 7.1330	 7.6650
 7.1420	 7.7490
 7.1520	 7.6640
 7.1620	 7.6080
 7.1720	 7.5330
 7.1820	 7.5980
 7.1920	 7.5550
 7.2020	 7.6220
 7.2120	 7.5860
 7.2220	 7.5680
 7.2320	 7.5050
 7.2420	 7.5680
 7.2520	 7.5610
 7.2620	 7.5870
 7.2730	 7.4910
 7.2830	 7.5670
 7.2930	 7.5730
 7.3030	 7.5950
 7.3140	 7.4970
 7.3240	 7.5190
 7.3340	 7.4830
 7.3450	 7.5460
 7.3550	 7.4620
 7.3660	 7.5660
 7.3760	 7.4960
 7.3870	 7.4780
 7.3970	 7.4370
 7.4080	 7.4600
 7.4180	 7.3780
 7.4290	 7.4510
 7.4400	 7.4350
 7.4500	 7.4960
 7.4610	 7.4450
 7.4720	 7.3600
 7.4830	 7.2560
 7.4930	 7.3390
 7.5040	 7.3520
 7.5150	 7.4680
 7.5260	 7.4110
 7.5370	 7.4660
 7.5480	 7.4090
 7.5590	 7.4570
 7.5700	 7.4070
 7.5810	 7.4210
 7.5920	 7.3870
 7.6030	 7.4770
 7.6140	 7.3900
 7.6260	 7.3990
 7.6370	 7.3340
 7.6480	 7.3530
 7.6590	 7.3800
 7.6710	 7.5210
 7.6820	 7.4370
 7.6930	 7.5100
 7.7050	 7.4820
 7.7160	 7.4850
 7.7280	 7.3520
 7.7390	 7.3980
 7.7510	 7.3590
 7.7630	 7.3850
 7.7740	 7.3000
 7.7860	 7.3300
 7.7980	 7.3130
 7.8090	 7.4110
 7.8210	 7.3590
 7.8330	 7.4150
 7.8450	 7.3020
 7.8570	 7.2880
 7.8690	 7.1800
 7.8810	 7.2250
 7.8930	 7.2360
 7.9050	 7.3500
 7.9170	 7.2710
 7.9290	 7.2570
 7.9410	 7.2070
 7.9530	 7.2750
 7.9650	 7.1840
 7.9780	 7.1800
 7.9900	 7.1190
 8.0020	 7.3800
 8.0150	 7.3230
 8.0270	 7.3200
 8.0390	 7.3340
 8.0520	 7.4260
 8.0640	 7.2750
 8.0770	 7.3100
 8.0900	 7.2500
 8.1020	 7.3360
 8.1150	 7.1850
 8.1280	 7.2650
 8.1400	 7.2190
 8.1530	 7.3210
 8.1660	 7.2220
 8.1790	 7.2620
 8.1920	 7.2390
 8.2050	 7.4280
 8.2180	 7.3340
 8.2310	 7.3660
 8.2440	 7.2530
 8.2570	 7.3300
 8.2700	 7.2650
 8.2830	 7.3790
 8.2970	 7.3310
 8.3100	 7.3690
 8.3230	 7.2260
 8.3370	 7.3490
 8.3500	 7.2150
 8.3640	 7.3010
 8.3770	 7.1770
 8.3910	 7.3100
 8.4040	 7.3250
 8.4180	 7.3290
 8.4320	 7.0850
 8.4450	 7.2100
 8.4590	 7.1780
 8.4730	 7.2550
 8.4870	 7.1580
 8.5010	 7.2680
 8.5150	 7.2150
 8.5290	 7.2480
 8.5430	 7.0490
 8.5570	 7.0990
 8.5710	 7.0050
 8.5850	 7.1850
 8.5990	 7.0630
 8.6140	 7.1100
 8.6280	 7.0650
 8.6420	 7.2430
 8.6570	 7.1830
 8.6710	 7.2250
 8.6860	 7.0250
 8.7000	 7.2590
 8.7150	 7.3010
 8.7300	 7.2280
 8.7440	 7.1370
 8.7590	 7.3520
 8.7740	 7.2350
 8.7890	 7.3210
 8.8040	 7.1950
 8.8190	 7.3130
 8.8340	 7.2360
 8.8490	 7.4210
 8.8640	 7.4230
 8.8790	 7.4850
 8.8940	 7.4220
 8.9100	 7.5080
 8.9250	 7.3110
 8.9400	 7.3800
 8.9560	 7.3460
 8.9710	 7.4950
 8.9870	 7.3260
 9.0020	 7.4050
 9.0180	 7.2790
 9.0340	 7.3940
 9.0500	 7.2970
 9.0650	 7.3600
 9.0810	 7.3230
 9.0970	 7.6410
 9.1130	 7.5100
 9.1290	 7.5320
 9.1450	 7.4650
 9.1610	 7.5810
 9.1780	 7.4270
 9.1940	 7.5480
 9.2100	 7.4540
 9.2270	 7.5670
 9.2430	 7.3870
 9.2600	 7.4900
 9.2760	 7.4170
 9.2930	 7.5270
 9.3090	 7.3890
 9.3260	 7.5830
 9.3430	 7.4460
 9.3600	 7.5200
 9.3770	 7.5260
 9.3940	 7.7950
 9.4110	 7.5900
 9.4280	 7.5770
 9.4450	 7.3480
 9.4620	 7.4970
 9.4800	 7.4060
 9.4970	 7.5980
 9.5140	 7.5760
 9.5320	 7.7930
 9.5500	 7.6560
 9.5670	 7.5800
 9.5850	 7.3800
 9.6030	 7.4920
 9.6200	 7.2920
 9.6380	 7.4570
 9.6560	 7.4900
 9.6740	 7.7570
 9.6920	 7.6020
 9.7100	 7.6140
 9.7290	 7.4330
 9.7470	 7.6010
 9.7650	 7.4290
 9.7840	 7.4740
 9.8020	 7.4800
 9.8210	 7.6730
 9.8390	 7.5480
 9.8580	 7.5570
 9.8770	 7.4280
 9.8960	 7.5680
 9.9150	 7.4220
 9.9340	 7.5710
 9.9530	 7.3900
 9.9720	 7.4320
 9.9910	 7.3810
10.0100	 7.5330
10.0300	 7.2710
10.0490	 7.3110
10.0690	 7.2870
10.0880	 7.3540
10.1080	 7.1910
10.1280	 7.3860
10.1480	 7.2690
10.1670	 7.3400
10.1870	 7.2330
10.2070	 7.4260
10.2280	 7.3350
10.2480	 7.3640
10.2680	 7.1130
10.2890	 7.1670
10.3090	 7.0740
10.3300	 7.2910
10.3500	 7.1940
10.3710	 7.3010
10.3920	 7.1520
10.4120	 7.2940
10.4330	 7.2600
10.4540	 7.3260
10.4760	 7.0010
10.4970	 7.1950
10.5180	 7.1930
10.5390	 7.3180
10.5610	 7.1490
10.5820	 7.3080
10.6040	 7.1900
10.6260	 7.3990
10.6480	 7.2620
10.6700	 7.3480
10.6920	 7.3050
10.7140	 7.3640
10.7360	 7.1260
10.7580	 7.3220
10.7800	 7.2230
10.8030	 7.3500
10.8250	 7.1800
10.8480	 7.3000
10.8710	 7.1530
10.8940	 7.3080
10.9170	 7.2480
10.9400	 7.4390
10.9630	 7.2180
10.9860	 7.3410
11.0090	 7.2740
11.0330	 7.4530
11.0560	 7.3110
11.0800	 7.3890
11.1040	 7.1780
11.1270	 7.3580
11.1510	 7.1800
11.1750	 7.2040
11.2000	 7.0480
11.2240	 7.3720
11.2480	 7.3250
11.2730	 7.4010
11.2970	 7.1250
11.3220	 7.2870
11.3470	 7.1940
11.3720	 7.3230
11.3970	 7.1290
11.4220	 7.3780
11.4470	 7.2950
11.4720	 7.4850
11.4980	 7.1650
11.5230	 7.2010
11.5490	 7.1100
11.5750	 7.3590
11.6000	 7.1720
11.6260	 7.2800
11.6530	 7.0390
11.6790	 7.2460
11.7050	 7.0210
11.7320	 7.1470
11.7580	 7.0770
11.7850	 7.3250
11.8120	 7.2550
11.8390	 7.4300
11.8660	 7.1780
11.8930	 7.3320
11.9200	 7.1760
11.9480	 7.3480
11.9760	 7.1380
12.0030	 7.3240
12.0310	 7.1240
12.0590	 7.3190
12.0870	 7.1650
12.1150	 7.3790
12.1440	 7.2880
12.1720	 7.6440
12.2010	 7.3750
12.2300	 7.3220
12.2590	 7.0910
12.2880	 7.5010
12.3170	 7.4460
12.3460	 7.6920
12.3760	 7.4530
12.4050	 7.4410
12.4350	 7.2370
12.4650	 7.5580
12.4950	 7.2820
12.5250	 7.4230
12.5550	 7.1720
12.5860	 7.3410
12.6170	 7.0870
12.6470	 7.3470
12.6780	 7.1780
12.7090	 7.4800
12.7410	 7.2360
12.7720	 7.4440
12.8030	 7.1630
12.8350	 7.3060
12.8670	 7.0940
12.8990	 7.2490
12.9310	 7.0460
12.9640	 7.3020
12.9960	 6.9310
13.0290	 7.1930
13.0610	 7.0230
13.0940	 7.3130
13.1280	 7.2500
13.1610	 7.4840
13.1940	 7.3730
13.2280	 8.4900
13.2620	 7.9100
13.2960	 7.4170
13.3300	 7.2930
13.3640	 7.4060
13.3990	 6.9490
13.4340	 7.0840
13.4690	 6.9450
13.5040	 7.4320
13.5390	 7.1640
13.5740	 7.2950
13.6100	 7.0410
13.6460	 7.4750
13.6820	 7.6940
13.7180	 8.1540
13.7540	 7.4400
13.7910	 7.4050
13.8280	 7.1730
13.8650	 7.9010
13.9020	 8.3570
13.9390	 8.6750
13.9770	 7.9540
14.0150	 8.0400
14.0530	 7.5310
14.0910	 7.6940
14.1290	 7.6130
14.1680	 7.8820
14.2070	 7.3010
14.2460	 7.6750
14.2850	 7.4900
14.3240	 7.7550
14.3640	 7.2640
14.4040	 7.6960
14.4440	 7.1570
14.4840	 7.4120
14.5250	 7.2640
14.5660	 7.5150
14.6070	 6.9520
14.6480	 7.3740
14.6900	 6.9630
14.7310	 7.2670
14.7730	 7.1040
14.8150	 7.7280
14.8580	 7.1200
14.9010	 7.3360
14.9440	 6.6010
14.9870	 7.5680
15.0300	 7.2570
15.0740	 7.7670
15.1180	 7.3200
15.1620	 7.7830
15.2060	 7.0100
15.2510	 7.6240
15.2960	 7.0760
15.3410	 7.4770
15.3870	 7.0250
