Name: Brachychiton discolor
Type: vegetation
Class: Tree
Genus: Brachychiton
Species: discolor
Sample No.: JPL102
Owner: JPL
Wavelength Range: VSWIR
Origin: 34.12615; - 118.11507; WGS84
Collection Date: 2/2/2016
Description: Samples were collected at the Huntington Garden in San Marino California as part of a JPL Subcontract studying HyTES imagery. Samples were taken to JPL and processed within 48 hours of collection. The same leaves were processed in the Nicolet and then measured using the ASD.
Measurement: Bidirectional reflectance
First Column: X
Second Column: Y
X Units: Wavelength (micrometer)
Y Units: Reflectance (percentage)
First X Value: 0.35
Last X Value: 2.5
Number of X Values: 2151
Additional Information: 

 0.3500	14.8430
 0.3510	12.9720
 0.3520	13.5370
 0.3530	14.9970
 0.3540	15.4610
 0.3550	15.2920
 0.3560	14.6510
 0.3570	13.7040
 0.3580	12.7520
 0.3590	13.4980
 0.3600	13.6930
 0.3610	12.9640
 0.3620	14.0450
 0.3630	14.1780
 0.3640	13.9850
 0.3650	14.3540
 0.3660	13.8170
 0.3670	13.5180
 0.3680	13.7350
 0.3690	14.0510
 0.3700	13.8660
 0.3710	13.9870
 0.3720	14.5870
 0.3730	14.3480
 0.3740	13.9600
 0.3750	13.8990
 0.3760	14.3150
 0.3770	14.3130
 0.3780	14.1290
 0.3790	13.8270
 0.3800	13.2990
 0.3810	13.4780
 0.3820	13.7750
 0.3830	13.7110
 0.3840	13.6340
 0.3850	13.4330
 0.3860	13.2210
 0.3870	13.1980
 0.3880	13.6550
 0.3890	13.8900
 0.3900	13.6180
 0.3910	13.0830
 0.3920	13.1880
 0.3930	13.4550
 0.3940	13.4140
 0.3950	13.4150
 0.3960	13.5120
 0.3970	13.6500
 0.3980	13.6960
 0.3990	13.3620
 0.4000	13.0620
 0.4010	13.0650
 0.4020	13.3830
 0.4030	13.3300
 0.4040	13.1900
 0.4050	13.3310
 0.4060	13.5950
 0.4070	13.3710
 0.4080	12.9020
 0.4090	12.9170
 0.4100	13.0730
 0.4110	13.2030
 0.4120	13.2330
 0.4130	13.1810
 0.4140	13.3080
 0.4150	13.4480
 0.4160	13.3600
 0.4170	13.1010
 0.4180	13.0160
 0.4190	13.1760
 0.4200	13.3810
 0.4210	13.3770
 0.4220	13.2990
 0.4230	13.2780
 0.4240	13.2180
 0.4250	13.1500
 0.4260	13.1310
 0.4270	13.1960
 0.4280	13.1720
 0.4290	13.0720
 0.4300	12.9650
 0.4310	12.9700
 0.4320	12.9640
 0.4330	12.9300
 0.4340	12.8820
 0.4350	12.8570
 0.4360	12.7760
 0.4370	12.7250
 0.4380	12.8910
 0.4390	12.9630
 0.4400	13.0150
 0.4410	13.1030
 0.4420	13.1000
 0.4430	13.0660
 0.4440	13.0550
 0.4450	13.0980
 0.4460	13.1020
 0.4470	13.1460
 0.4480	13.1840
 0.4490	13.0170
 0.4500	13.0050
 0.4510	13.0940
 0.4520	13.1440
 0.4530	13.0820
 0.4540	13.0400
 0.4550	13.0550
 0.4560	13.0950
 0.4570	13.0520
 0.4580	13.0120
 0.4590	13.0330
 0.4600	13.0900
 0.4610	13.0370
 0.4620	12.9760
 0.4630	13.0440
 0.4640	13.0850
 0.4650	13.0600
 0.4660	13.0230
 0.4670	13.1050
 0.4680	13.1700
 0.4690	13.1300
 0.4700	13.0020
 0.4710	13.0560
 0.4720	13.1540
 0.4730	13.1770
 0.4740	13.0540
 0.4750	13.0160
 0.4760	13.0220
 0.4770	13.0390
 0.4780	13.0920
 0.4790	13.1300
 0.4800	13.1370
 0.4810	13.1050
 0.4820	13.0160
 0.4830	12.9630
 0.4840	12.9720
 0.4850	13.0060
 0.4860	13.0200
 0.4870	13.0320
 0.4880	13.0480
 0.4890	13.0060
 0.4900	12.9560
 0.4910	12.9440
 0.4920	12.9980
 0.4930	13.0390
 0.4940	13.0390
 0.4950	13.0340
 0.4960	13.1400
 0.4970	13.1730
 0.4980	13.1440
 0.4990	13.1130
 0.5000	13.1020
 0.5010	13.1420
 0.5020	13.2020
 0.5030	13.2120
 0.5040	13.2500
 0.5050	13.3000
 0.5060	13.3320
 0.5070	13.3310
 0.5080	13.3310
 0.5090	13.3560
 0.5100	13.4170
 0.5110	13.4490
 0.5120	13.5070
 0.5130	13.5970
 0.5140	13.6540
 0.5150	13.7080
 0.5160	13.7590
 0.5170	13.8140
 0.5180	13.9120
 0.5190	14.0020
 0.5200	14.0780
 0.5210	14.1640
 0.5220	14.2320
 0.5230	14.3170
 0.5240	14.4370
 0.5250	14.5480
 0.5260	14.6660
 0.5270	14.7760
 0.5280	14.8580
 0.5290	14.9630
 0.5300	15.0330
 0.5310	15.0570
 0.5320	15.0920
 0.5330	15.1900
 0.5340	15.2980
 0.5350	15.3540
 0.5360	15.3850
 0.5370	15.4010
 0.5380	15.4030
 0.5390	15.3800
 0.5400	15.3570
 0.5410	15.2880
 0.5420	15.1740
 0.5430	15.1200
 0.5440	15.1030
 0.5450	15.1380
 0.5460	15.2370
 0.5470	15.3420
 0.5480	15.4240
 0.5490	15.4720
 0.5500	15.4960
 0.5510	15.5270
 0.5520	15.5590
 0.5530	15.5760
 0.5540	15.5450
 0.5550	15.5230
 0.5560	15.5170
 0.5570	15.4930
 0.5580	15.4410
 0.5590	15.3900
 0.5600	15.3540
 0.5610	15.2950
 0.5620	15.2450
 0.5630	15.1940
 0.5640	15.1240
 0.5650	15.0670
 0.5660	15.0120
 0.5670	14.9490
 0.5680	14.8750
 0.5690	14.8030
 0.5700	14.7360
 0.5710	14.6710
 0.5720	14.5940
 0.5730	14.5290
 0.5740	14.4740
 0.5750	14.4090
 0.5760	14.3810
 0.5770	14.3590
 0.5780	14.3180
 0.5790	14.2540
 0.5800	14.1910
 0.5810	14.1420
 0.5820	14.1140
 0.5830	14.1060
 0.5840	14.0900
 0.5850	14.0590
 0.5860	14.0290
 0.5870	13.9950
 0.5880	13.9780
 0.5890	13.9850
 0.5900	13.9830
 0.5910	13.9630
 0.5920	13.9440
 0.5930	13.9570
 0.5940	13.9750
 0.5950	13.9800
 0.5960	13.9700
 0.5970	13.9610
 0.5980	13.9310
 0.5990	13.9070
 0.6000	13.9150
 0.6010	13.9060
 0.6020	13.8980
 0.6030	13.8970
 0.6040	13.8910
 0.6050	13.8550
 0.6060	13.8240
 0.6070	13.8180
 0.6080	13.7880
 0.6090	13.7140
 0.6100	13.5820
 0.6110	13.4120
 0.6120	13.3950
 0.6130	13.4640
 0.6140	13.5390
 0.6150	13.5530
 0.6160	13.5710
 0.6170	13.5750
 0.6180	13.5430
 0.6190	13.5340
 0.6200	13.5130
 0.6210	13.4880
 0.6220	13.4960
 0.6230	13.4980
 0.6240	13.5010
 0.6250	13.5040
 0.6260	13.4700
 0.6270	13.4680
 0.6280	13.4880
 0.6290	13.4890
 0.6300	13.4690
 0.6310	13.4700
 0.6320	13.4960
 0.6330	13.5060
 0.6340	13.5060
 0.6350	13.5050
 0.6360	13.5100
 0.6370	13.5100
 0.6380	13.4930
 0.6390	13.4770
 0.6400	13.4840
 0.6410	13.4460
 0.6420	13.4250
 0.6430	13.4440
 0.6440	13.4400
 0.6450	13.4440
 0.6460	13.4400
 0.6470	13.4130
 0.6480	13.4000
 0.6490	13.4050
 0.6500	13.4190
 0.6510	13.4240
 0.6520	13.4270
 0.6530	13.4270
 0.6540	13.4250
 0.6550	13.4180
 0.6560	13.4300
 0.6570	13.4410
 0.6580	13.4300
 0.6590	13.4680
 0.6600	13.4880
 0.6610	13.4680
 0.6620	13.4440
 0.6630	13.4620
 0.6640	13.4890
 0.6650	13.4880
 0.6660	13.4700
 0.6670	13.5000
 0.6680	13.5500
 0.6690	13.5540
 0.6700	13.5580
 0.6710	13.5730
 0.6720	13.5950
 0.6730	13.6090
 0.6740	13.6440
 0.6750	13.6870
 0.6760	13.7220
 0.6770	13.7510
 0.6780	13.7800
 0.6790	13.8170
 0.6800	13.8700
 0.6810	13.8920
 0.6820	13.9310
 0.6830	14.0010
 0.6840	14.0370
 0.6850	14.0660
 0.6860	14.1000
 0.6870	14.1420
 0.6880	14.1760
 0.6890	14.2110
 0.6900	14.2570
 0.6910	14.3230
 0.6920	14.4000
 0.6930	14.4890
 0.6940	14.6060
 0.6950	14.7830
 0.6960	14.9910
 0.6970	15.2240
 0.6980	15.4990
 0.6990	15.8700
 0.7000	16.2590
 0.7010	16.6650
 0.7020	17.1570
 0.7030	17.6900
 0.7040	18.2580
 0.7050	18.8630
 0.7060	19.5220
 0.7070	20.1910
 0.7080	20.8890
 0.7090	21.6530
 0.7100	22.4390
 0.7110	23.2490
 0.7120	24.0940
 0.7130	24.9930
 0.7140	25.9150
 0.7150	26.8580
 0.7160	27.8310
 0.7170	28.8480
 0.7180	29.8620
 0.7190	30.8900
 0.7200	31.9700
 0.7210	33.0430
 0.7220	34.1160
 0.7230	35.2010
 0.7240	36.3100
 0.7250	37.3680
 0.7260	38.4190
 0.7270	39.4990
 0.7280	40.5610
 0.7290	41.5950
 0.7300	42.5840
 0.7310	43.5260
 0.7320	44.4630
 0.7330	45.3820
 0.7340	46.2650
 0.7350	47.1030
 0.7360	47.9130
 0.7370	48.6800
 0.7380	49.3910
 0.7390	50.0640
 0.7400	50.7140
 0.7410	51.3270
 0.7420	51.8840
 0.7430	52.4260
 0.7440	52.9230
 0.7450	53.3690
 0.7460	53.7890
 0.7470	54.1820
 0.7480	54.5440
 0.7490	54.8720
 0.7500	55.1740
 0.7510	55.4310
 0.7520	55.6720
 0.7530	55.9220
 0.7540	56.1350
 0.7550	56.3150
 0.7560	56.4760
 0.7570	56.6280
 0.7580	56.7660
 0.7590	56.8870
 0.7600	56.9950
 0.7610	57.1020
 0.7620	57.2030
 0.7630	57.2870
 0.7640	57.3470
 0.7650	57.3880
 0.7660	57.4280
 0.7670	57.4730
 0.7680	57.5200
 0.7690	57.5410
 0.7700	57.5710
 0.7710	57.6170
 0.7720	57.6420
 0.7730	57.6390
 0.7740	57.6620
 0.7750	57.7290
 0.7760	57.7110
 0.7770	57.7190
 0.7780	57.7410
 0.7790	57.7230
 0.7800	57.7180
 0.7810	57.7290
 0.7820	57.7410
 0.7830	57.7310
 0.7840	57.7420
 0.7850	57.7470
 0.7860	57.7310
 0.7870	57.7360
 0.7880	57.7400
 0.7890	57.7430
 0.7900	57.7460
 0.7910	57.7350
 0.7920	57.7310
 0.7930	57.7340
 0.7940	57.7310
 0.7950	57.7000
 0.7960	57.6670
 0.7970	57.6550
 0.7980	57.6730
 0.7990	57.6780
 0.8000	57.6590
 0.8010	57.6300
 0.8020	57.6470
 0.8030	57.6360
 0.8040	57.5980
 0.8050	57.5660
 0.8060	57.5390
 0.8070	57.5130
 0.8080	57.4990
 0.8090	57.5140
 0.8100	57.5010
 0.8110	57.4800
 0.8120	57.4770
 0.8130	57.4970
 0.8140	57.4700
 0.8150	57.4350
 0.8160	57.4320
 0.8170	57.4120
 0.8180	57.4070
 0.8190	57.4060
 0.8200	57.3850
 0.8210	57.3560
 0.8220	57.3540
 0.8230	57.3670
 0.8240	57.3450
 0.8250	57.3200
 0.8260	57.3070
 0.8270	57.3070
 0.8280	57.3060
 0.8290	57.3130
 0.8300	57.3340
 0.8310	57.3600
 0.8320	57.3480
 0.8330	57.3090
 0.8340	57.2720
 0.8350	57.2700
 0.8360	57.3010
 0.8370	57.3200
 0.8380	57.3150
 0.8390	57.3070
 0.8400	57.3190
 0.8410	57.3390
 0.8420	57.3500
 0.8430	57.3430
 0.8440	57.3540
 0.8450	57.3660
 0.8460	57.3630
 0.8470	57.3760
 0.8480	57.3990
 0.8490	57.4230
 0.8500	57.4420
 0.8510	57.4440
 0.8520	57.4330
 0.8530	57.4380
 0.8540	57.4870
 0.8550	57.5170
 0.8560	57.5420
 0.8570	57.5600
 0.8580	57.5540
 0.8590	57.5770
 0.8600	57.5990
 0.8610	57.6010
 0.8620	57.5970
 0.8630	57.6460
 0.8640	57.6860
 0.8650	57.6680
 0.8660	57.6790
 0.8670	57.7210
 0.8680	57.7520
 0.8690	57.7390
 0.8700	57.7540
 0.8710	57.7720
 0.8720	57.7830
 0.8730	57.7950
 0.8740	57.8240
 0.8750	57.8730
 0.8760	57.9050
 0.8770	57.8600
 0.8780	57.8610
 0.8790	57.9050
 0.8800	57.9620
 0.8810	57.9840
 0.8820	57.9920
 0.8830	58.0020
 0.8840	58.0200
 0.8850	58.0310
 0.8860	58.0290
 0.8870	58.0430
 0.8880	58.0930
 0.8890	58.1340
 0.8900	58.1510
 0.8910	58.1440
 0.8920	58.1290
 0.8930	58.1400
 0.8940	58.1810
 0.8950	58.2260
 0.8960	58.2420
 0.8970	58.2570
 0.8980	58.2430
 0.8990	58.2320
 0.9000	58.2980
 0.9010	58.2890
 0.9020	58.2820
 0.9030	58.3090
 0.9040	58.3110
 0.9050	58.2870
 0.9060	58.2920
 0.9070	58.3350
 0.9080	58.3230
 0.9090	58.3450
 0.9100	58.3760
 0.9110	58.3760
 0.9120	58.3420
 0.9130	58.3780
 0.9140	58.4210
 0.9150	58.3930
 0.9160	58.3590
 0.9170	58.3660
 0.9180	58.3840
 0.9190	58.3710
 0.9200	58.3950
 0.9210	58.3720
 0.9220	58.3430
 0.9230	58.3840
 0.9240	58.3550
 0.9250	58.3240
 0.9260	58.3220
 0.9270	58.3400
 0.9280	58.3470
 0.9290	58.3330
 0.9300	58.3050
 0.9310	58.2810
 0.9320	58.2460
 0.9330	58.2130
 0.9340	58.1910
 0.9350	58.1850
 0.9360	58.2040
 0.9370	58.2010
 0.9380	58.1620
 0.9390	58.1310
 0.9400	58.0640
 0.9410	58.0330
 0.9420	58.0630
 0.9430	58.0690
 0.9440	58.0730
 0.9450	58.0750
 0.9460	58.0570
 0.9470	57.9680
 0.9480	57.9080
 0.9490	57.8940
 0.9500	57.8960
 0.9510	57.8470
 0.9520	57.7660
 0.9530	57.7130
 0.9540	57.7050
 0.9550	57.5720
 0.9560	57.5690
 0.9570	57.6130
 0.9580	57.5590
 0.9590	57.4740
 0.9600	57.4850
 0.9610	57.5070
 0.9620	57.4380
 0.9630	57.4260
 0.9640	57.4370
 0.9650	57.4170
 0.9660	57.3470
 0.9670	57.3810
 0.9680	57.3540
 0.9690	57.2710
 0.9700	57.2210
 0.9710	57.2950
 0.9720	57.3260
 0.9730	57.3160
 0.9740	57.3340
 0.9750	57.2990
 0.9760	57.2710
 0.9770	57.2500
 0.9780	57.2210
 0.9790	57.2350
 0.9800	57.2380
 0.9810	57.2220
 0.9820	57.2100
 0.9830	57.2140
 0.9840	57.2950
 0.9850	57.3560
 0.9860	57.2850
 0.9870	57.2850
 0.9880	57.2330
 0.9890	57.2020
 0.9900	57.2960
 0.9910	57.2420
 0.9920	57.3160
 0.9930	57.3980
 0.9940	57.2850
 0.9950	57.3780
 0.9960	57.4250
 0.9970	57.3730
 0.9980	57.3000
 0.9990	57.3640
 1.0000	57.3220
 1.0010	57.3500
 1.0020	57.3940
 1.0030	57.5000
 1.0040	57.5540
 1.0050	57.5800
 1.0060	57.5520
 1.0070	57.5030
 1.0080	57.4960
 1.0090	57.4860
 1.0100	57.5140
 1.0110	57.6110
 1.0120	57.6490
 1.0130	57.6780
 1.0140	57.6990
 1.0150	57.6980
 1.0160	57.6700
 1.0170	57.6880
 1.0180	57.7580
 1.0190	57.7680
 1.0200	57.7890
 1.0210	57.8300
 1.0220	57.8030
 1.0230	57.8200
 1.0240	57.8840
 1.0250	57.9020
 1.0260	57.9070
 1.0270	57.9020
 1.0280	57.8670
 1.0290	57.8530
 1.0300	57.8010
 1.0310	57.8160
 1.0320	57.8890
 1.0330	57.9560
 1.0340	57.9950
 1.0350	58.0230
 1.0360	58.0040
 1.0370	57.9840
 1.0380	58.0060
 1.0390	58.0860
 1.0400	58.1060
 1.0410	58.1170
 1.0420	58.1230
 1.0430	58.0910
 1.0440	58.0900
 1.0450	58.1150
 1.0460	58.1190
 1.0470	58.1020
 1.0480	58.1040
 1.0490	58.0860
 1.0500	58.1050
 1.0510	58.1540
 1.0520	58.2370
 1.0530	58.2690
 1.0540	58.3020
 1.0550	58.3300
 1.0560	58.3260
 1.0570	58.3360
 1.0580	58.3670
 1.0590	58.3760
 1.0600	58.3710
 1.0610	58.3620
 1.0620	58.3420
 1.0630	58.3310
 1.0640	58.3080
 1.0650	58.3010
 1.0660	58.3080
 1.0670	58.3180
 1.0680	58.3340
 1.0690	58.3590
 1.0700	58.3770
 1.0710	58.4150
 1.0720	58.4070
 1.0730	58.3730
 1.0740	58.3560
 1.0750	58.3080
 1.0760	58.2980
 1.0770	58.3100
 1.0780	58.3280
 1.0790	58.3670
 1.0800	58.3960
 1.0810	58.4410
 1.0820	58.4700
 1.0830	58.4910
 1.0840	58.5060
 1.0850	58.5030
 1.0860	58.5120
 1.0870	58.5220
 1.0880	58.5300
 1.0890	58.5380
 1.0900	58.5540
 1.0910	58.5560
 1.0920	58.5480
 1.0930	58.5460
 1.0940	58.5470
 1.0950	58.5390
 1.0960	58.5260
 1.0970	58.5140
 1.0980	58.4880
 1.0990	58.4750
 1.1000	58.4710
 1.1010	58.4660
 1.1020	58.4650
 1.1030	58.4670
 1.1040	58.4770
 1.1050	58.4820
 1.1060	58.4720
 1.1070	58.4530
 1.1080	58.4390
 1.1090	58.4160
 1.1100	58.3950
 1.1110	58.3750
 1.1120	58.3650
 1.1130	58.3520
 1.1140	58.3380
 1.1150	58.3370
 1.1160	58.3290
 1.1170	58.3100
 1.1180	58.3020
 1.1190	58.2950
 1.1200	58.3010
 1.1210	58.3030
 1.1220	58.2800
 1.1230	58.2570
 1.1240	58.2180
 1.1250	58.1810
 1.1260	58.1370
 1.1270	58.0990
 1.1280	58.0620
 1.1290	58.0230
 1.1300	57.9850
 1.1310	57.9430
 1.1320	57.8990
 1.1330	57.8540
 1.1340	57.8300
 1.1350	57.7690
 1.1360	57.6930
 1.1370	57.6010
 1.1380	57.4960
 1.1390	57.3680
 1.1400	57.2510
 1.1410	57.1370
 1.1420	57.0320
 1.1430	56.9430
 1.1440	56.8540
 1.1450	56.7850
 1.1460	56.7000
 1.1470	56.6080
 1.1480	56.5130
 1.1490	56.3980
 1.1500	56.3070
 1.1510	56.2180
 1.1520	56.1470
 1.1530	56.1080
 1.1540	56.0520
 1.1550	56.0000
 1.1560	55.9350
 1.1570	55.8670
 1.1580	55.8100
 1.1590	55.7670
 1.1600	55.7430
 1.1610	55.7360
 1.1620	55.7220
 1.1630	55.7030
 1.1640	55.6820
 1.1650	55.6560
 1.1660	55.6170
 1.1670	55.5900
 1.1680	55.5620
 1.1690	55.5500
 1.1700	55.5600
 1.1710	55.5520
 1.1720	55.5460
 1.1730	55.5340
 1.1740	55.5110
 1.1750	55.4770
 1.1760	55.4730
 1.1770	55.4880
 1.1780	55.4890
 1.1790	55.4830
 1.1800	55.4700
 1.1810	55.4560
 1.1820	55.4450
 1.1830	55.4390
 1.1840	55.4380
 1.1850	55.4290
 1.1860	55.4130
 1.1870	55.4030
 1.1880	55.3890
 1.1890	55.3570
 1.1900	55.3550
 1.1910	55.3770
 1.1920	55.3810
 1.1930	55.3940
 1.1940	55.3890
 1.1950	55.3610
 1.1960	55.3430
 1.1970	55.3270
 1.1980	55.3370
 1.1990	55.3500
 1.2000	55.3510
 1.2010	55.3630
 1.2020	55.3660
 1.2030	55.3710
 1.2040	55.3840
 1.2050	55.3820
 1.2060	55.3940
 1.2070	55.4210
 1.2080	55.4410
 1.2090	55.4630
 1.2100	55.4850
 1.2110	55.5040
 1.2120	55.5160
 1.2130	55.5330
 1.2140	55.5550
 1.2150	55.5710
 1.2160	55.5860
 1.2170	55.6010
 1.2180	55.6160
 1.2190	55.6340
 1.2200	55.6510
 1.2210	55.6630
 1.2220	55.6810
 1.2230	55.6930
 1.2240	55.7100
 1.2250	55.7310
 1.2260	55.7350
 1.2270	55.7510
 1.2280	55.7690
 1.2290	55.7880
 1.2300	55.8200
 1.2310	55.8410
 1.2320	55.8740
 1.2330	55.9090
 1.2340	55.9310
 1.2350	55.9530
 1.2360	55.9700
 1.2370	55.9770
 1.2380	55.9700
 1.2390	55.9740
 1.2400	55.9810
 1.2410	55.9840
 1.2420	55.9990
 1.2430	56.0300
 1.2440	56.0470
 1.2450	56.0690
 1.2460	56.0970
 1.2470	56.1070
 1.2480	56.1130
 1.2490	56.1280
 1.2500	56.1380
 1.2510	56.1450
 1.2520	56.1560
 1.2530	56.1510
 1.2540	56.1430
 1.2550	56.1370
 1.2560	56.1290
 1.2570	56.1320
 1.2580	56.1310
 1.2590	56.1350
 1.2600	56.1450
 1.2610	56.1560
 1.2620	56.1680
 1.2630	56.1890
 1.2640	56.2050
 1.2650	56.1980
 1.2660	56.1850
 1.2670	56.1710
 1.2680	56.1500
 1.2690	56.1480
 1.2700	56.1630
 1.2710	56.1720
 1.2720	56.1840
 1.2730	56.1890
 1.2740	56.1820
 1.2750	56.1630
 1.2760	56.1410
 1.2770	56.1260
 1.2780	56.1060
 1.2790	56.0900
 1.2800	56.0620
 1.2810	56.0220
 1.2820	55.9970
 1.2830	55.9780
 1.2840	55.9600
 1.2850	55.9470
 1.2860	55.9430
 1.2870	55.9370
 1.2880	55.9260
 1.2890	55.9250
 1.2900	55.9400
 1.2910	55.9180
 1.2920	55.8850
 1.2930	55.8610
 1.2940	55.8160
 1.2950	55.7900
 1.2960	55.7790
 1.2970	55.7510
 1.2980	55.7260
 1.2990	55.6940
 1.3000	55.6550
 1.3010	55.6160
 1.3020	55.5810
 1.3030	55.5310
 1.3040	55.4680
 1.3050	55.4070
 1.3060	55.3470
 1.3070	55.3070
 1.3080	55.2680
 1.3090	55.2170
 1.3100	55.1700
 1.3110	55.1150
 1.3120	55.0550
 1.3130	55.0080
 1.3140	54.9580
 1.3150	54.9080
 1.3160	54.8490
 1.3170	54.7900
 1.3180	54.7210
 1.3190	54.6490
 1.3200	54.5700
 1.3210	54.4750
 1.3220	54.3980
 1.3230	54.3090
 1.3240	54.2050
 1.3250	54.1280
 1.3260	54.0400
 1.3270	53.9390
 1.3280	53.8490
 1.3290	53.7520
 1.3300	53.6540
 1.3310	53.5710
 1.3320	53.4920
 1.3330	53.3980
 1.3340	53.2900
 1.3350	53.1720
 1.3360	53.0420
 1.3370	52.9340
 1.3380	52.8330
 1.3390	52.7290
 1.3400	52.6300
 1.3410	52.5250
 1.3420	52.4180
 1.3430	52.3130
 1.3440	52.2170
 1.3450	52.1170
 1.3460	52.0150
 1.3470	51.9190
 1.3480	51.8200
 1.3490	51.7280
 1.3500	51.6460
 1.3510	51.5590
 1.3520	51.4740
 1.3530	51.3930
 1.3540	51.3000
 1.3550	51.2070
 1.3560	51.1220
 1.3570	51.0260
 1.3580	50.9310
 1.3590	50.8350
 1.3600	50.7190
 1.3610	50.5990
 1.3620	50.4700
 1.3630	50.3410
 1.3640	50.2050
 1.3650	50.0630
 1.3660	49.9270
 1.3670	49.7770
 1.3680	49.6240
 1.3690	49.4580
 1.3700	49.2700
 1.3710	49.0750
 1.3720	48.8590
 1.3730	48.6230
 1.3740	48.3750
 1.3750	48.1160
 1.3760	47.8360
 1.3770	47.5430
 1.3780	47.2340
 1.3790	46.9000
 1.3800	46.5480
 1.3810	46.1770
 1.3820	45.7730
 1.3830	45.3370
 1.3840	44.8830
 1.3850	44.4010
 1.3860	43.9060
 1.3870	43.3940
 1.3880	42.8670
 1.3890	42.3180
 1.3900	41.7600
 1.3910	41.2030
 1.3920	40.6340
 1.3930	40.0740
 1.3940	39.5070
 1.3950	38.9280
 1.3960	38.3650
 1.3970	37.8010
 1.3980	37.2420
 1.3990	36.7080
 1.4000	36.1800
 1.4010	35.6590
 1.4020	35.1670
 1.4030	34.6840
 1.4040	34.2180
 1.4050	33.7920
 1.4060	33.3840
 1.4070	32.9990
 1.4080	32.6360
 1.4090	32.2940
 1.4100	31.9630
 1.4110	31.6470
 1.4120	31.3560
 1.4130	31.0790
 1.4140	30.8240
 1.4150	30.5980
 1.4160	30.3810
 1.4170	30.1750
 1.4180	29.9830
 1.4190	29.8050
 1.4200	29.6390
 1.4210	29.4820
 1.4220	29.3450
 1.4230	29.2200
 1.4240	29.1040
 1.4250	28.9980
 1.4260	28.9090
 1.4270	28.8170
 1.4280	28.7270
 1.4290	28.6470
 1.4300	28.5720
 1.4310	28.5090
 1.4320	28.4550
 1.4330	28.4070
 1.4340	28.3690
 1.4350	28.3330
 1.4360	28.3010
 1.4370	28.2710
 1.4380	28.2410
 1.4390	28.2120
 1.4400	28.1860
 1.4410	28.1650
 1.4420	28.1480
 1.4430	28.1360
 1.4440	28.1270
 1.4450	28.1240
 1.4460	28.1230
 1.4470	28.1250
 1.4480	28.1340
 1.4490	28.1430
 1.4500	28.1550
 1.4510	28.1700
 1.4520	28.1850
 1.4530	28.2050
 1.4540	28.2280
 1.4550	28.2530
 1.4560	28.2790
 1.4570	28.3060
 1.4580	28.3420
 1.4590	28.3790
 1.4600	28.4230
 1.4610	28.4720
 1.4620	28.5220
 1.4630	28.5850
 1.4640	28.6470
 1.4650	28.7130
 1.4660	28.7870
 1.4670	28.8590
 1.4680	28.9370
 1.4690	29.0230
 1.4700	29.1100
 1.4710	29.2060
 1.4720	29.3070
 1.4730	29.4120
 1.4740	29.5210
 1.4750	29.6350
 1.4760	29.7610
 1.4770	29.8840
 1.4780	30.0100
 1.4790	30.1400
 1.4800	30.2630
 1.4810	30.3960
 1.4820	30.5260
 1.4830	30.6490
 1.4840	30.7830
 1.4850	30.9190
 1.4860	31.0540
 1.4870	31.2010
 1.4880	31.3360
 1.4890	31.4600
 1.4900	31.5950
 1.4910	31.7320
 1.4920	31.8700
 1.4930	32.0180
 1.4940	32.1610
 1.4950	32.3020
 1.4960	32.4460
 1.4970	32.5900
 1.4980	32.7380
 1.4990	32.8880
 1.5000	33.0400
 1.5010	33.1970
 1.5020	33.3480
 1.5030	33.4980
 1.5040	33.6430
 1.5050	33.7820
 1.5060	33.9240
 1.5070	34.0650
 1.5080	34.2050
 1.5090	34.3440
 1.5100	34.4790
 1.5110	34.6170
 1.5120	34.7580
 1.5130	34.8980
 1.5140	35.0450
 1.5150	35.1880
 1.5160	35.3230
 1.5170	35.4590
 1.5180	35.5930
 1.5190	35.7280
 1.5200	35.8680
 1.5210	36.0070
 1.5220	36.1450
 1.5230	36.2750
 1.5240	36.4040
 1.5250	36.5410
 1.5260	36.6790
 1.5270	36.8130
 1.5280	36.9480
 1.5290	37.0750
 1.5300	37.1960
 1.5310	37.3220
 1.5320	37.4430
 1.5330	37.5610
 1.5340	37.6860
 1.5350	37.8140
 1.5360	37.9490
 1.5370	38.0870
 1.5380	38.2130
 1.5390	38.3300
 1.5400	38.4510
 1.5410	38.5630
 1.5420	38.6760
 1.5430	38.7940
 1.5440	38.9050
 1.5450	39.0170
 1.5460	39.1390
 1.5470	39.2580
 1.5480	39.3680
 1.5490	39.4810
 1.5500	39.5930
 1.5510	39.6980
 1.5520	39.8070
 1.5530	39.9070
 1.5540	40.0020
 1.5550	40.0930
 1.5560	40.1840
 1.5570	40.2800
 1.5580	40.3780
 1.5590	40.4820
 1.5600	40.5870
 1.5610	40.6890
 1.5620	40.7820
 1.5630	40.8690
 1.5640	40.9540
 1.5650	41.0350
 1.5660	41.1240
 1.5670	41.2140
 1.5680	41.3040
 1.5690	41.3960
 1.5700	41.4740
 1.5710	41.5530
 1.5720	41.6340
 1.5730	41.7080
 1.5740	41.7880
 1.5750	41.8690
 1.5760	41.9510
 1.5770	42.0330
 1.5780	42.1170
 1.5790	42.2050
 1.5800	42.2830
 1.5810	42.3570
 1.5820	42.4300
 1.5830	42.4990
 1.5840	42.5750
 1.5850	42.6580
 1.5860	42.7410
 1.5870	42.8230
 1.5880	42.8910
 1.5890	42.9560
 1.5900	43.0210
 1.5910	43.0840
 1.5920	43.1640
 1.5930	43.2340
 1.5940	43.3060
 1.5950	43.3710
 1.5960	43.4150
 1.5970	43.4780
 1.5980	43.5490
 1.5990	43.6180
 1.6000	43.6980
 1.6010	43.7680
 1.6020	43.8190
 1.6030	43.8740
 1.6040	43.9250
 1.6050	43.9670
 1.6060	44.0260
 1.6070	44.0920
 1.6080	44.1580
 1.6090	44.2280
 1.6100	44.2820
 1.6110	44.3240
 1.6120	44.3570
 1.6130	44.3940
 1.6140	44.4410
 1.6150	44.4960
 1.6160	44.5590
 1.6170	44.6130
 1.6180	44.6590
 1.6190	44.6980
 1.6200	44.7320
 1.6210	44.7780
 1.6220	44.8210
 1.6230	44.8650
 1.6240	44.9210
 1.6250	44.9670
 1.6260	45.0040
 1.6270	45.0470
 1.6280	45.0800
 1.6290	45.1140
 1.6300	45.1500
 1.6310	45.1830
 1.6320	45.2080
 1.6330	45.2390
 1.6340	45.2800
 1.6350	45.3110
 1.6360	45.3350
 1.6370	45.3630
 1.6380	45.3920
 1.6390	45.4140
 1.6400	45.4390
 1.6410	45.4670
 1.6420	45.4920
 1.6430	45.5110
 1.6440	45.5310
 1.6450	45.5280
 1.6460	45.5380
 1.6470	45.5560
 1.6480	45.5720
 1.6490	45.6080
 1.6500	45.6390
 1.6510	45.6460
 1.6520	45.6570
 1.6530	45.6560
 1.6540	45.6370
 1.6550	45.6460
 1.6560	45.6580
 1.6570	45.6640
 1.6580	45.6740
 1.6590	45.6640
 1.6600	45.6580
 1.6610	45.6640
 1.6620	45.6670
 1.6630	45.6780
 1.6640	45.6800
 1.6650	45.6610
 1.6660	45.6510
 1.6670	45.6350
 1.6680	45.6120
 1.6690	45.6020
 1.6700	45.5920
 1.6710	45.5880
 1.6720	45.5880
 1.6730	45.5800
 1.6740	45.5620
 1.6750	45.5280
 1.6760	45.4940
 1.6770	45.4650
 1.6780	45.4410
 1.6790	45.4250
 1.6800	45.4040
 1.6810	45.3700
 1.6820	45.3210
 1.6830	45.2700
 1.6840	45.2230
 1.6850	45.1790
 1.6860	45.1430
 1.6870	45.1210
 1.6880	45.0950
 1.6890	45.0790
 1.6900	45.0480
 1.6910	44.9980
 1.6920	44.9530
 1.6930	44.8940
 1.6940	44.8500
 1.6950	44.8250
 1.6960	44.7820
 1.6970	44.7400
 1.6980	44.6900
 1.6990	44.6200
 1.7000	44.5610
 1.7010	44.5080
 1.7020	44.4540
 1.7030	44.4030
 1.7040	44.3490
 1.7050	44.2910
 1.7060	44.2360
 1.7070	44.1830
 1.7080	44.1260
 1.7090	44.0710
 1.7100	44.0170
 1.7110	43.9500
 1.7120	43.9150
 1.7130	43.8730
 1.7140	43.8340
 1.7150	43.7980
 1.7160	43.7480
 1.7170	43.6930
 1.7180	43.6370
 1.7190	43.5980
 1.7200	43.5580
 1.7210	43.5100
 1.7220	43.4500
 1.7230	43.3910
 1.7240	43.3500
 1.7250	43.3110
 1.7260	43.2880
 1.7270	43.2580
 1.7280	43.2090
 1.7290	43.1770
 1.7300	43.1600
 1.7310	43.1350
 1.7320	43.1130
 1.7330	43.0870
 1.7340	43.0540
 1.7350	43.0210
 1.7360	42.9920
 1.7370	42.9580
 1.7380	42.9170
 1.7390	42.8830
 1.7400	42.8510
 1.7410	42.8120
 1.7420	42.7690
 1.7430	42.7260
 1.7440	42.6770
 1.7450	42.6300
 1.7460	42.5960
 1.7470	42.5370
 1.7480	42.4570
 1.7490	42.3930
 1.7500	42.3180
 1.7510	42.2540
 1.7520	42.2060
 1.7530	42.1440
 1.7540	42.0740
 1.7550	42.0140
 1.7560	41.9440
 1.7570	41.8860
 1.7580	41.8380
 1.7590	41.7910
 1.7600	41.7550
 1.7610	41.7010
 1.7620	41.6450
 1.7630	41.5750
 1.7640	41.5170
 1.7650	41.4680
 1.7660	41.4180
 1.7670	41.3700
 1.7680	41.3320
 1.7690	41.3040
 1.7700	41.2700
 1.7710	41.2400
 1.7720	41.2120
 1.7730	41.1820
 1.7740	41.1460
 1.7750	41.1100
 1.7760	41.0800
 1.7770	41.0450
 1.7780	41.0170
 1.7790	41.0010
 1.7800	40.9830
 1.7810	40.9650
 1.7820	40.9440
 1.7830	40.9280
 1.7840	40.9070
 1.7850	40.8720
 1.7860	40.8640
 1.7870	40.8720
 1.7880	40.8600
 1.7890	40.8620
 1.7900	40.8320
 1.7910	40.8190
 1.7920	40.8190
 1.7930	40.8190
 1.7940	40.8270
 1.7950	40.8360
 1.7960	40.8500
 1.7970	40.8610
 1.7980	40.8830
 1.7990	40.8930
 1.8000	40.8930
 1.8010	40.9000
 1.8020	40.8990
 1.8030	40.9100
 1.8040	40.9380
 1.8050	40.9540
 1.8060	40.9760
 1.8070	40.9840
 1.8080	40.9720
 1.8090	40.9830
 1.8100	41.0090
 1.8110	40.9950
 1.8120	40.9970
 1.8130	40.9960
 1.8140	40.9800
 1.8150	40.9900
 1.8160	41.0070
 1.8170	41.0030
 1.8180	41.0040
 1.8190	41.0310
 1.8200	41.0380
 1.8210	41.0400
 1.8220	41.0320
 1.8230	40.9960
 1.8240	40.9790
 1.8250	40.9650
 1.8260	40.9570
 1.8270	40.9630
 1.8280	40.9580
 1.8290	40.9520
 1.8300	40.9350
 1.8310	41.3980
 1.8320	41.3520
 1.8330	41.2690
 1.8340	41.1750
 1.8350	41.0780
 1.8360	40.9870
 1.8370	40.9370
 1.8380	40.9210
 1.8390	40.8770
 1.8400	40.8310
 1.8410	40.7650
 1.8420	40.6810
 1.8430	40.6090
 1.8440	40.5180
 1.8450	40.4190
 1.8460	40.3230
 1.8470	40.2130
 1.8480	40.0790
 1.8490	39.9430
 1.8500	39.7840
 1.8510	39.6090
 1.8520	39.3920
 1.8530	39.1970
 1.8540	39.0030
 1.8550	38.7900
 1.8560	38.5770
 1.8570	38.3090
 1.8580	38.0080
 1.8590	37.7230
 1.8600	37.4320
 1.8610	37.1350
 1.8620	36.8280
 1.8630	36.5010
 1.8640	36.1540
 1.8650	35.7770
 1.8660	35.3740
 1.8670	34.9560
 1.8680	34.5130
 1.8690	34.0320
 1.8700	33.5300
 1.8710	33.0030
 1.8720	32.4620
 1.8730	31.8990
 1.8740	31.3430
 1.8750	30.7890
 1.8760	30.2370
 1.8770	29.6750
 1.8780	29.0880
 1.8790	28.4670
 1.8800	27.8370
 1.8810	27.1840
 1.8820	26.5320
 1.8830	25.8700
 1.8840	25.2580
 1.8850	24.6830
 1.8860	24.1240
 1.8870	23.6000
 1.8880	23.0770
 1.8890	22.5510
 1.8900	22.0410
 1.8910	21.5780
 1.8920	21.1440
 1.8930	20.7430
 1.8940	20.3720
 1.8950	20.0290
 1.8960	19.6920
 1.8970	19.3830
 1.8980	19.0980
 1.8990	18.8420
 1.9000	18.6130
 1.9010	18.4180
 1.9020	18.2220
 1.9030	18.0480
 1.9040	17.8920
 1.9050	17.7320
 1.9060	17.5890
 1.9070	17.4740
 1.9080	17.3910
 1.9090	17.3300
 1.9100	17.2790
 1.9110	17.2230
 1.9120	17.1720
 1.9130	17.1200
 1.9140	17.0640
 1.9150	17.0180
 1.9160	16.9790
 1.9170	16.9550
 1.9180	16.9290
 1.9190	16.9000
 1.9200	16.8830
 1.9210	16.8750
 1.9220	16.8600
 1.9230	16.8400
 1.9240	16.8350
 1.9250	16.8460
 1.9260	16.8250
 1.9270	16.8120
 1.9280	16.8030
 1.9290	16.7800
 1.9300	16.7550
 1.9310	16.7600
 1.9320	16.7810
 1.9330	16.8030
 1.9340	16.8510
 1.9350	16.8740
 1.9360	16.8840
 1.9370	16.9100
 1.9380	16.9370
 1.9390	16.9530
 1.9400	17.0000
 1.9410	17.0220
 1.9420	17.0320
 1.9430	17.0710
 1.9440	17.0900
 1.9450	17.0990
 1.9460	17.1160
 1.9470	17.1150
 1.9480	17.1370
 1.9490	17.1720
 1.9500	17.2250
 1.9510	17.2780
 1.9520	17.3210
 1.9530	17.3650
 1.9540	17.4040
 1.9550	17.4510
 1.9560	17.5090
 1.9570	17.5510
 1.9580	17.5750
 1.9590	17.6240
 1.9600	17.6730
 1.9610	17.7270
 1.9620	17.7990
 1.9630	17.8740
 1.9640	17.9390
 1.9650	17.9860
 1.9660	18.0210
 1.9670	18.0620
 1.9680	18.1040
 1.9690	18.1320
 1.9700	18.1820
 1.9710	18.2420
 1.9720	18.3050
 1.9730	18.3850
 1.9740	18.4520
 1.9750	18.5010
 1.9760	18.5830
 1.9770	18.6620
 1.9780	18.7360
 1.9790	18.8090
 1.9800	18.8920
 1.9810	18.9620
 1.9820	19.0260
 1.9830	19.0880
 1.9840	19.1520
 1.9850	19.2080
 1.9860	19.2500
 1.9870	19.2890
 1.9880	19.3380
 1.9890	19.4030
 1.9900	19.4860
 1.9910	19.5730
 1.9920	19.6720
 1.9930	19.7960
 1.9940	19.8970
 1.9950	20.0070
 1.9960	20.0990
 1.9970	20.1660
 1.9980	20.2430
 1.9990	20.3200
 2.0000	20.3890
 2.0010	20.4680
 2.0020	20.5490
 2.0030	20.6300
 2.0040	20.7160
 2.0050	20.7990
 2.0060	20.8810
 2.0070	20.9630
 2.0080	21.0390
 2.0090	21.1290
 2.0100	21.2280
 2.0110	21.3260
 2.0120	21.4340
 2.0130	21.5410
 2.0140	21.6460
 2.0150	21.7570
 2.0160	21.8430
 2.0170	21.9220
 2.0180	21.9970
 2.0190	22.0520
 2.0200	22.1110
 2.0210	22.1560
 2.0220	22.2300
 2.0230	22.3200
 2.0240	22.3970
 2.0250	22.4860
 2.0260	22.5770
 2.0270	22.6610
 2.0280	22.7380
 2.0290	22.8300
 2.0300	22.9290
 2.0310	23.0100
 2.0320	23.0760
 2.0330	23.1500
 2.0340	23.2190
 2.0350	23.2910
 2.0360	23.3640
 2.0370	23.4390
 2.0380	23.5260
 2.0390	23.5890
 2.0400	23.6320
 2.0410	23.6800
 2.0420	23.6880
 2.0430	23.7460
 2.0440	23.8110
 2.0450	23.9000
 2.0460	23.9870
 2.0470	24.1020
 2.0480	24.1760
 2.0490	24.2320
 2.0500	24.2940
 2.0510	24.3280
 2.0520	24.3840
 2.0530	24.4540
 2.0540	24.5210
 2.0550	24.5820
 2.0560	24.6620
 2.0570	24.7490
 2.0580	24.8450
 2.0590	24.9430
 2.0600	25.0650
 2.0610	25.1560
 2.0620	25.2320
 2.0630	25.3140
 2.0640	25.3820
 2.0650	25.4560
 2.0660	25.5460
 2.0670	25.6170
 2.0680	25.6650
 2.0690	25.7320
 2.0700	25.7890
 2.0710	25.8640
 2.0720	25.9630
 2.0730	26.0610
 2.0740	26.1380
 2.0750	26.2070
 2.0760	26.2850
 2.0770	26.3410
 2.0780	26.4270
 2.0790	26.5580
 2.0800	26.6460
 2.0810	26.7300
 2.0820	26.7950
 2.0830	26.8120
 2.0840	26.8570
 2.0850	26.8930
 2.0860	26.9560
 2.0870	27.0340
 2.0880	27.1340
 2.0890	27.2310
 2.0900	27.3500
 2.0910	27.4380
 2.0920	27.5260
 2.0930	27.5960
 2.0940	27.6400
 2.0950	27.7000
 2.0960	27.7500
 2.0970	27.8120
 2.0980	27.8870
 2.0990	27.9590
 2.1000	28.0400
 2.1010	28.1110
 2.1020	28.1770
 2.1030	28.2460
 2.1040	28.3100
 2.1050	28.3820
 2.1060	28.4310
 2.1070	28.4670
 2.1080	28.5210
 2.1090	28.5500
 2.1100	28.6310
 2.1110	28.7800
 2.1120	28.8580
 2.1130	28.9410
 2.1140	28.9900
 2.1150	28.9580
 2.1160	28.9900
 2.1170	29.0380
 2.1180	29.0910
 2.1190	29.1770
 2.1200	29.2480
 2.1210	29.3120
 2.1220	29.3910
 2.1230	29.4370
 2.1240	29.4640
 2.1250	29.5200
 2.1260	29.5660
 2.1270	29.6220
 2.1280	29.7160
 2.1290	29.7710
 2.1300	29.8000
 2.1310	29.8400
 2.1320	29.8690
 2.1330	29.9110
 2.1340	29.9700
 2.1350	30.0090
 2.1360	30.0270
 2.1370	30.0740
 2.1380	30.1330
 2.1390	30.1810
 2.1400	30.2430
 2.1410	30.3160
 2.1420	30.3490
 2.1430	30.3380
 2.1440	30.3740
 2.1450	30.4140
 2.1460	30.4610
 2.1470	30.5460
 2.1480	30.5840
 2.1490	30.5970
 2.1500	30.6160
 2.1510	30.6190
 2.1520	30.6290
 2.1530	30.6380
 2.1540	30.6530
 2.1550	30.6760
 2.1560	30.6870
 2.1570	30.6950
 2.1580	30.7070
 2.1590	30.7240
 2.1600	30.7170
 2.1610	30.7070
 2.1620	30.7280
 2.1630	30.7120
 2.1640	30.6640
 2.1650	30.6550
 2.1660	30.6380
 2.1670	30.6590
 2.1680	30.7360
 2.1690	30.7660
 2.1700	30.8020
 2.1710	30.8150
 2.1720	30.7820
 2.1730	30.7800
 2.1740	30.7780
 2.1750	30.7930
 2.1760	30.8500
 2.1770	30.8670
 2.1780	30.8570
 2.1790	30.8700
 2.1800	30.8370
 2.1810	30.8660
 2.1820	30.9510
 2.1830	31.0600
 2.1840	31.1430
 2.1850	31.2740
 2.1860	31.3120
 2.1870	31.2790
 2.1880	31.2890
 2.1890	31.2580
 2.1900	31.2780
 2.1910	31.3630
 2.1920	31.3790
 2.1930	31.3610
 2.1940	31.3710
 2.1950	31.3610
 2.1960	31.3660
 2.1970	31.4100
 2.1980	31.4270
 2.1990	31.4060
 2.2000	31.4210
 2.2010	31.4720
 2.2020	31.4940
 2.2030	31.5120
 2.2040	31.5310
 2.2050	31.5260
 2.2060	31.5310
 2.2070	31.5350
 2.2080	31.5520
 2.2090	31.5580
 2.2100	31.5500
 2.2110	31.5580
 2.2120	31.5710
 2.2130	31.5910
 2.2140	31.6280
 2.2150	31.6350
 2.2160	31.6440
 2.2170	31.6330
 2.2180	31.5780
 2.2190	31.5610
 2.2200	31.5540
 2.2210	31.5430
 2.2220	31.5590
 2.2230	31.5480
 2.2240	31.5280
 2.2250	31.4910
 2.2260	31.4160
 2.2270	31.3640
 2.2280	31.3190
 2.2290	31.2590
 2.2300	31.1980
 2.2310	31.1570
 2.2320	31.0650
 2.2330	30.9800
 2.2340	30.9240
 2.2350	30.8860
 2.2360	30.8390
 2.2370	30.8230
 2.2380	30.7590
 2.2390	30.6600
 2.2400	30.5880
 2.2410	30.5110
 2.2420	30.4360
 2.2430	30.3840
 2.2440	30.3040
 2.2450	30.1990
 2.2460	30.1130
 2.2470	30.0040
 2.2480	29.9390
 2.2490	29.9070
 2.2500	29.8660
 2.2510	29.8600
 2.2520	29.8340
 2.2530	29.7740
 2.2540	29.7510
 2.2550	29.7550
 2.2560	29.7420
 2.2570	29.7850
 2.2580	29.7520
 2.2590	29.6290
 2.2600	29.5550
 2.2610	29.4470
 2.2620	29.3830
 2.2630	29.3640
 2.2640	29.3740
 2.2650	29.3390
 2.2660	29.2630
 2.2670	29.1800
 2.2680	29.0530
 2.2690	28.9610
 2.2700	28.8670
 2.2710	28.8040
 2.2720	28.7630
 2.2730	28.7210
 2.2740	28.7040
 2.2750	28.6560
 2.2760	28.5960
 2.2770	28.5410
 2.2780	28.4700
 2.2790	28.4200
 2.2800	28.3690
 2.2810	28.3440
 2.2820	28.3410
 2.2830	28.3310
 2.2840	28.3560
 2.2850	28.3460
 2.2860	28.3240
 2.2870	28.2750
 2.2880	28.1850
 2.2890	28.1130
 2.2900	28.0300
 2.2910	27.9580
 2.2920	27.8860
 2.2930	27.8310
 2.2940	27.8130
 2.2950	27.7420
 2.2960	27.6560
 2.2970	27.5680
 2.2980	27.4360
 2.2990	27.2960
 2.3000	27.2190
 2.3010	27.1900
 2.3020	27.1630
 2.3030	27.1330
 2.3040	27.0890
 2.3050	27.0450
 2.3060	27.0180
 2.3070	26.9620
 2.3080	26.8830
 2.3090	26.7970
 2.3100	26.7130
 2.3110	26.6620
 2.3120	26.6130
 2.3130	26.5900
 2.3140	26.5870
 2.3150	26.5870
 2.3160	26.5990
 2.3170	26.6620
 2.3180	26.6810
 2.3190	26.6890
 2.3200	26.6860
 2.3210	26.6740
 2.3220	26.6400
 2.3230	26.5730
 2.3240	26.5200
 2.3250	26.4760
 2.3260	26.4170
 2.3270	26.3400
 2.3280	26.2890
 2.3290	26.2270
 2.3300	26.1810
 2.3310	26.1730
 2.3320	26.1390
 2.3330	26.1090
 2.3340	26.0500
 2.3350	25.9700
 2.3360	25.9000
 2.3370	25.7830
 2.3380	25.7320
 2.3390	25.7400
 2.3400	25.6950
 2.3410	25.6630
 2.3420	25.6100
 2.3430	25.4910
 2.3440	25.4340
 2.3450	25.4280
 2.3460	25.3980
 2.3470	25.3810
 2.3480	25.3590
 2.3490	25.3100
 2.3500	25.2830
 2.3510	25.2900
 2.3520	25.2560
 2.3530	25.1960
 2.3540	25.1690
 2.3550	25.0700
 2.3560	25.0280
 2.3570	25.0850
 2.3580	25.0380
 2.3590	25.0100
 2.3600	25.0330
 2.3610	24.9160
 2.3620	24.8800
 2.3630	24.8630
 2.3640	24.7920
 2.3650	24.8410
 2.3660	24.7640
 2.3670	24.6520
 2.3680	24.6260
 2.3690	24.5140
 2.3700	24.4400
 2.3710	24.3730
 2.3720	24.3090
 2.3730	24.3120
 2.3740	24.2880
 2.3750	24.3320
 2.3760	24.3450
 2.3770	24.2700
 2.3780	24.2750
 2.3790	24.2410
 2.3800	24.2350
 2.3810	24.2400
 2.3820	24.1250
 2.3830	24.0780
 2.3840	24.0230
 2.3850	23.9100
 2.3860	23.9120
 2.3870	23.9370
 2.3880	23.8740
 2.3890	23.8250
 2.3900	23.7780
 2.3910	23.6610
 2.3920	23.5500
 2.3930	23.4600
 2.3940	23.3630
 2.3950	23.3040
 2.3960	23.2700
 2.3970	23.1550
 2.3980	23.0320
 2.3990	23.0020
 2.4000	22.9180
 2.4010	22.9510
 2.4020	23.1180
 2.4030	23.1130
 2.4040	23.0450
 2.4050	22.9310
 2.4060	22.7790
 2.4070	22.7280
 2.4080	22.7340
 2.4090	22.7170
 2.4100	22.6220
 2.4110	22.4140
 2.4120	22.2010
 2.4130	22.1560
 2.4140	22.1720
 2.4150	22.2470
 2.4160	22.3960
 2.4170	22.3820
 2.4180	22.3250
 2.4190	22.2740
 2.4200	22.1870
 2.4210	22.1240
 2.4220	22.0080
 2.4230	21.8940
 2.4240	21.7830
 2.4250	21.7430
 2.4260	21.7500
 2.4270	21.7280
 2.4280	21.6660
 2.4290	21.5500
 2.4300	21.4600
 2.4310	21.4280
 2.4320	21.4160
 2.4330	21.2240
 2.4340	21.0470
 2.4350	20.8780
 2.4360	20.7730
 2.4370	20.9270
 2.4380	20.9870
 2.4390	21.1000
 2.4400	21.1300
 2.4410	21.0440
 2.4420	21.1730
 2.4430	21.1540
 2.4440	21.1330
 2.4450	21.2700
 2.4460	21.2440
 2.4470	21.2260
 2.4480	21.1920
 2.4490	20.9460
 2.4500	20.7950
 2.4510	20.7060
 2.4520	20.5250
 2.4530	20.5200
 2.4540	20.4590
 2.4550	20.3050
 2.4560	20.3750
 2.4570	20.3510
 2.4580	20.3350
 2.4590	20.3910
 2.4600	20.1860
 2.4610	20.0970
 2.4620	20.0720
 2.4630	19.9520
 2.4640	20.1030
 2.4650	20.1540
 2.4660	19.8780
 2.4670	19.6150
 2.4680	19.5690
 2.4690	19.6680
 2.4700	19.7850
 2.4710	20.1600
 2.4720	20.1950
 2.4730	20.1020
 2.4740	20.0200
 2.4750	19.7110
 2.4760	19.6410
 2.4770	19.6000
 2.4780	19.5770
 2.4790	19.7140
 2.4800	19.7530
 2.4810	19.7780
 2.4820	19.6840
 2.4830	19.7230
 2.4840	19.4410
 2.4850	19.3700
 2.4860	19.6370
 2.4870	19.8140
 2.4880	19.9450
 2.4890	20.0380
 2.4900	19.7790
 2.4910	19.3420
 2.4920	19.6560
 2.4930	19.9190
 2.4940	19.8080
 2.4950	19.9820
 2.4960	19.8470
 2.4970	19.3560
 2.4980	19.2530
 2.4990	19.4320
 2.5000	19.2750
