Name: Eucalyptus rudius
Type: vegetation
Class: Tree
Genus: Eucalyptus
Species: rudius
Sample No.: JPL218
Owner: JPL
Wavelength Range: VSWIR
Origin: 34.12445; -118.11324; WGS84
Collection Date: 10/3/2016
Description: Samples were collected at the Huntington Garden in San Marino California as part of a JPL Subcontract studying HyTES imagery. Samples were taken to JPL and processed within 48 hours of collection. The same leaves were processed in the Nicolet and then measured using the ASD.
Measurement: Bidirectional reflectance
First Column: X
Second Column: Y
X Units: Wavelength (micrometer)
Y Units: Reflectance (percentage)
First X Value: 0.35
Last X Value: 2.5
Number of X Values: 2151
Additional Information: vegetation.tree.eucalyptus.rudius.vswir.jpl218.jpl.asd.ancillary.txt

 0.3500	 6.7840
 0.3510	 6.8070
 0.3520	 6.8200
 0.3530	 6.8020
 0.3540	 6.7520
 0.3550	 6.6320
 0.3560	 6.6460
 0.3570	 6.7230
 0.3580	 6.6760
 0.3590	 6.6790
 0.3600	 6.6480
 0.3610	 6.5790
 0.3620	 6.6070
 0.3630	 6.5770
 0.3640	 6.5710
 0.3650	 6.6540
 0.3660	 6.5900
 0.3670	 6.5670
 0.3680	 6.6030
 0.3690	 6.5970
 0.3700	 6.5760
 0.3710	 6.5590
 0.3720	 6.5610
 0.3730	 6.5870
 0.3740	 6.5950
 0.3750	 6.6090
 0.3760	 6.6500
 0.3770	 6.6210
 0.3780	 6.5520
 0.3790	 6.5070
 0.3800	 6.5530
 0.3810	 6.5450
 0.3820	 6.5220
 0.3830	 6.5310
 0.3840	 6.5640
 0.3850	 6.5880
 0.3860	 6.5830
 0.3870	 6.5490
 0.3880	 6.5590
 0.3890	 6.5950
 0.3900	 6.6220
 0.3910	 6.6030
 0.3920	 6.5890
 0.3930	 6.5810
 0.3940	 6.5820
 0.3950	 6.6200
 0.3960	 6.6600
 0.3970	 6.6790
 0.3980	 6.6690
 0.3990	 6.6570
 0.4000	 6.6480
 0.4010	 6.6610
 0.4020	 6.7320
 0.4030	 6.7370
 0.4040	 6.7280
 0.4050	 6.7670
 0.4060	 6.7740
 0.4070	 6.7940
 0.4080	 6.8260
 0.4090	 6.8440
 0.4100	 6.8790
 0.4110	 6.9250
 0.4120	 6.9650
 0.4130	 6.9840
 0.4140	 7.0170
 0.4150	 7.0630
 0.4160	 7.1090
 0.4170	 7.1650
 0.4180	 7.1990
 0.4190	 7.2130
 0.4200	 7.2440
 0.4210	 7.2850
 0.4220	 7.3280
 0.4230	 7.3650
 0.4240	 7.3970
 0.4250	 7.4250
 0.4260	 7.4560
 0.4270	 7.4980
 0.4280	 7.5350
 0.4290	 7.5580
 0.4300	 7.5700
 0.4310	 7.5800
 0.4320	 7.5940
 0.4330	 7.6140
 0.4340	 7.6380
 0.4350	 7.6500
 0.4360	 7.6690
 0.4370	 7.6910
 0.4380	 7.7020
 0.4390	 7.7110
 0.4400	 7.7310
 0.4410	 7.7610
 0.4420	 7.7710
 0.4430	 7.7840
 0.4440	 7.8030
 0.4450	 7.8260
 0.4460	 7.8520
 0.4470	 7.8710
 0.4480	 7.8820
 0.4490	 7.8970
 0.4500	 7.9070
 0.4510	 7.9190
 0.4520	 7.9420
 0.4530	 7.9540
 0.4540	 7.9670
 0.4550	 7.9780
 0.4560	 7.9810
 0.4570	 7.9860
 0.4580	 7.9920
 0.4590	 7.9970
 0.4600	 8.0000
 0.4610	 8.0030
 0.4620	 8.0030
 0.4630	 7.9960
 0.4640	 7.9890
 0.4650	 7.9810
 0.4660	 7.9760
 0.4670	 7.9770
 0.4680	 7.9780
 0.4690	 7.9760
 0.4700	 7.9720
 0.4710	 7.9790
 0.4720	 7.9760
 0.4730	 7.9670
 0.4740	 7.9690
 0.4750	 7.9640
 0.4760	 7.9600
 0.4770	 7.9590
 0.4780	 7.9580
 0.4790	 7.9570
 0.4800	 7.9590
 0.4810	 7.9640
 0.4820	 7.9560
 0.4830	 7.9560
 0.4840	 7.9650
 0.4850	 7.9600
 0.4860	 7.9540
 0.4870	 7.9570
 0.4880	 7.9720
 0.4890	 7.9800
 0.4900	 7.9920
 0.4910	 8.0070
 0.4920	 8.0180
 0.4930	 8.0340
 0.4940	 8.0520
 0.4950	 8.0700
 0.4960	 8.0960
 0.4970	 8.1300
 0.4980	 8.1630
 0.4990	 8.1910
 0.5000	 8.2280
 0.5010	 8.2680
 0.5020	 8.3110
 0.5030	 8.3640
 0.5040	 8.4260
 0.5050	 8.4910
 0.5060	 8.5560
 0.5070	 8.6360
 0.5080	 8.7250
 0.5090	 8.8180
 0.5100	 8.9150
 0.5110	 9.0230
 0.5120	 9.1430
 0.5130	 9.2740
 0.5140	 9.4160
 0.5150	 9.5640
 0.5160	 9.7170
 0.5170	 9.8780
 0.5180	10.0600
 0.5190	10.2500
 0.5200	10.4430
 0.5210	10.6420
 0.5220	10.8390
 0.5230	11.0390
 0.5240	11.2420
 0.5250	11.4380
 0.5260	11.6270
 0.5270	11.8080
 0.5280	11.9800
 0.5290	12.1430
 0.5300	12.2940
 0.5310	12.4310
 0.5320	12.5560
 0.5330	12.6700
 0.5340	12.7730
 0.5350	12.8630
 0.5360	12.9400
 0.5370	13.0070
 0.5380	13.0680
 0.5390	13.1230
 0.5400	13.1720
 0.5410	13.2170
 0.5420	13.2580
 0.5430	13.2950
 0.5440	13.3290
 0.5450	13.3600
 0.5460	13.3900
 0.5470	13.4170
 0.5480	13.4400
 0.5490	13.4580
 0.5500	13.4740
 0.5510	13.4800
 0.5520	13.4770
 0.5530	13.4660
 0.5540	13.4440
 0.5550	13.4080
 0.5560	13.3580
 0.5570	13.2950
 0.5580	13.2190
 0.5590	13.1370
 0.5600	13.0510
 0.5610	12.9580
 0.5620	12.8570
 0.5630	12.7490
 0.5640	12.6360
 0.5650	12.5190
 0.5660	12.3960
 0.5670	12.2660
 0.5680	12.1310
 0.5690	11.9940
 0.5700	11.8570
 0.5710	11.7210
 0.5720	11.5880
 0.5730	11.4610
 0.5740	11.3410
 0.5750	11.2300
 0.5760	11.1260
 0.5770	11.0260
 0.5780	10.9330
 0.5790	10.8480
 0.5800	10.7680
 0.5810	10.6910
 0.5820	10.6180
 0.5830	10.5490
 0.5840	10.4840
 0.5850	10.4240
 0.5860	10.3650
 0.5870	10.3070
 0.5880	10.2550
 0.5890	10.2100
 0.5900	10.1720
 0.5910	10.1370
 0.5920	10.1020
 0.5930	10.0680
 0.5940	10.0390
 0.5950	10.0120
 0.5960	 9.9870
 0.5970	 9.9610
 0.5980	 9.9350
 0.5990	 9.9090
 0.6000	 9.8830
 0.6010	 9.8520
 0.6020	 9.8200
 0.6030	 9.7850
 0.6040	 9.7380
 0.6050	 9.6950
 0.6060	 9.6490
 0.6070	 9.5960
 0.6080	 9.5420
 0.6090	 9.4850
 0.6100	 9.4250
 0.6110	 9.3640
 0.6120	 9.3070
 0.6130	 9.2490
 0.6140	 9.1880
 0.6150	 9.1290
 0.6160	 9.0740
 0.6170	 9.0220
 0.6180	 8.9690
 0.6190	 8.9260
 0.6200	 8.8870
 0.6210	 8.8500
 0.6220	 8.8140
 0.6230	 8.7860
 0.6240	 8.7640
 0.6250	 8.7450
 0.6260	 8.7260
 0.6270	 8.7110
 0.6280	 8.7000
 0.6290	 8.6900
 0.6300	 8.6810
 0.6310	 8.6690
 0.6320	 8.6530
 0.6330	 8.6380
 0.6340	 8.6150
 0.6350	 8.5850
 0.6360	 8.5510
 0.6370	 8.5090
 0.6380	 8.4610
 0.6390	 8.4100
 0.6400	 8.3550
 0.6410	 8.2990
 0.6420	 8.2410
 0.6430	 8.1800
 0.6440	 8.1180
 0.6450	 8.0600
 0.6460	 8.0050
 0.6470	 7.9530
 0.6480	 7.9030
 0.6490	 7.8610
 0.6500	 7.8270
 0.6510	 7.8000
 0.6520	 7.7770
 0.6530	 7.7560
 0.6540	 7.7340
 0.6550	 7.7130
 0.6560	 7.6890
 0.6570	 7.6620
 0.6580	 7.6320
 0.6590	 7.6000
 0.6600	 7.5650
 0.6610	 7.5290
 0.6620	 7.4960
 0.6630	 7.4640
 0.6640	 7.4340
 0.6650	 7.4120
 0.6660	 7.3960
 0.6670	 7.3860
 0.6680	 7.3810
 0.6690	 7.3820
 0.6700	 7.3890
 0.6710	 7.4050
 0.6720	 7.4300
 0.6730	 7.4610
 0.6740	 7.4950
 0.6750	 7.5340
 0.6760	 7.5800
 0.6770	 7.6330
 0.6780	 7.6950
 0.6790	 7.7630
 0.6800	 7.8350
 0.6810	 7.9160
 0.6820	 8.0040
 0.6830	 8.0960
 0.6840	 8.1900
 0.6850	 8.2890
 0.6860	 8.3950
 0.6870	 8.5130
 0.6880	 8.6460
 0.6890	 8.8020
 0.6900	 8.9900
 0.6910	 9.2210
 0.6920	 9.5050
 0.6930	 9.8470
 0.6940	10.2480
 0.6950	10.7160
 0.6960	11.2520
 0.6970	11.8530
 0.6980	12.5170
 0.6990	13.2410
 0.7000	14.0130
 0.7010	14.8270
 0.7020	15.6770
 0.7030	16.5500
 0.7040	17.4430
 0.7050	18.3510
 0.7060	19.2670
 0.7070	20.1930
 0.7080	21.1270
 0.7090	22.0640
 0.7100	23.0040
 0.7110	23.9470
 0.7120	24.8940
 0.7130	25.8420
 0.7140	26.7890
 0.7150	27.7340
 0.7160	28.6690
 0.7170	29.5940
 0.7180	30.5090
 0.7190	31.4110
 0.7200	32.2970
 0.7210	33.1610
 0.7220	34.0000
 0.7230	34.8150
 0.7240	35.6040
 0.7250	36.3640
 0.7260	37.0900
 0.7270	37.7830
 0.7280	38.4490
 0.7290	39.0780
 0.7300	39.6730
 0.7310	40.2360
 0.7320	40.7690
 0.7330	41.2670
 0.7340	41.7330
 0.7350	42.1680
 0.7360	42.5720
 0.7370	42.9470
 0.7380	43.2950
 0.7390	43.6180
 0.7400	43.9130
 0.7410	44.1810
 0.7420	44.4260
 0.7430	44.6500
 0.7440	44.8510
 0.7450	45.0290
 0.7460	45.1850
 0.7470	45.3250
 0.7480	45.4470
 0.7490	45.5510
 0.7500	45.6440
 0.7510	45.7270
 0.7520	45.7990
 0.7530	45.8600
 0.7540	45.9110
 0.7550	45.9570
 0.7560	45.9970
 0.7570	46.0310
 0.7580	46.0600
 0.7590	46.0840
 0.7600	46.1040
 0.7610	46.1210
 0.7620	46.1340
 0.7630	46.1430
 0.7640	46.1510
 0.7650	46.1530
 0.7660	46.1530
 0.7670	46.1520
 0.7680	46.1470
 0.7690	46.1440
 0.7700	46.1430
 0.7710	46.1400
 0.7720	46.1330
 0.7730	46.1270
 0.7740	46.1210
 0.7750	46.1150
 0.7760	46.1130
 0.7770	46.1110
 0.7780	46.1090
 0.7790	46.1080
 0.7800	46.1060
 0.7810	46.1050
 0.7820	46.1050
 0.7830	46.1060
 0.7840	46.1060
 0.7850	46.1050
 0.7860	46.1040
 0.7870	46.1060
 0.7880	46.1040
 0.7890	46.1020
 0.7900	46.1020
 0.7910	46.1020
 0.7920	46.1000
 0.7930	46.0970
 0.7940	46.0970
 0.7950	46.0930
 0.7960	46.0870
 0.7970	46.0820
 0.7980	46.0760
 0.7990	46.0720
 0.8000	46.0670
 0.8010	46.0580
 0.8020	46.0480
 0.8030	46.0410
 0.8040	46.0350
 0.8050	46.0260
 0.8060	46.0170
 0.8070	46.0060
 0.8080	45.9920
 0.8090	45.9830
 0.8100	45.9740
 0.8110	45.9660
 0.8120	45.9560
 0.8130	45.9420
 0.8140	45.9280
 0.8150	45.9140
 0.8160	45.9020
 0.8170	45.8910
 0.8180	45.8800
 0.8190	45.8660
 0.8200	45.8530
 0.8210	45.8410
 0.8220	45.8290
 0.8230	45.8160
 0.8240	45.8060
 0.8250	45.7960
 0.8260	45.7830
 0.8270	45.7690
 0.8280	45.7580
 0.8290	45.7440
 0.8300	45.7300
 0.8310	45.7160
 0.8320	45.7020
 0.8330	45.6910
 0.8340	45.6820
 0.8350	45.6740
 0.8360	45.6640
 0.8370	45.6540
 0.8380	45.6460
 0.8390	45.6370
 0.8400	45.6310
 0.8410	45.6270
 0.8420	45.6240
 0.8430	45.6200
 0.8440	45.6120
 0.8450	45.6040
 0.8460	45.6000
 0.8470	45.5980
 0.8480	45.5950
 0.8490	45.5920
 0.8500	45.5910
 0.8510	45.5880
 0.8520	45.5870
 0.8530	45.5880
 0.8540	45.5880
 0.8550	45.5880
 0.8560	45.5870
 0.8570	45.5850
 0.8580	45.5860
 0.8590	45.5860
 0.8600	45.5860
 0.8610	45.5840
 0.8620	45.5850
 0.8630	45.5860
 0.8640	45.5870
 0.8650	45.5880
 0.8660	45.5900
 0.8670	45.5930
 0.8680	45.5960
 0.8690	45.6000
 0.8700	45.6050
 0.8710	45.6080
 0.8720	45.6110
 0.8730	45.6180
 0.8740	45.6200
 0.8750	45.6200
 0.8760	45.6210
 0.8770	45.6270
 0.8780	45.6330
 0.8790	45.6370
 0.8800	45.6420
 0.8810	45.6480
 0.8820	45.6470
 0.8830	45.6480
 0.8840	45.6560
 0.8850	45.6620
 0.8860	45.6640
 0.8870	45.6650
 0.8880	45.6700
 0.8890	45.6720
 0.8900	45.6730
 0.8910	45.6750
 0.8920	45.6820
 0.8930	45.6890
 0.8940	45.6890
 0.8950	45.6870
 0.8960	45.6910
 0.8970	45.6920
 0.8980	45.6940
 0.8990	45.6980
 0.9000	45.7010
 0.9010	45.7050
 0.9020	45.7020
 0.9030	45.6980
 0.9040	45.7080
 0.9050	45.7080
 0.9060	45.7050
 0.9070	45.7060
 0.9080	45.7070
 0.9090	45.7090
 0.9100	45.7080
 0.9110	45.7040
 0.9120	45.7000
 0.9130	45.7030
 0.9140	45.7060
 0.9150	45.7020
 0.9160	45.7010
 0.9170	45.7070
 0.9180	45.7100
 0.9190	45.7010
 0.9200	45.6940
 0.9210	45.6890
 0.9220	45.6850
 0.9230	45.6820
 0.9240	45.6720
 0.9250	45.6650
 0.9260	45.6620
 0.9270	45.6520
 0.9280	45.6360
 0.9290	45.6220
 0.9300	45.6100
 0.9310	45.5920
 0.9320	45.5750
 0.9330	45.5600
 0.9340	45.5460
 0.9350	45.5300
 0.9360	45.5080
 0.9370	45.4860
 0.9380	45.4660
 0.9390	45.4440
 0.9400	45.4190
 0.9410	45.3960
 0.9420	45.3720
 0.9430	45.3380
 0.9440	45.3060
 0.9450	45.2750
 0.9460	45.2450
 0.9470	45.2070
 0.9480	45.1690
 0.9490	45.1270
 0.9500	45.0800
 0.9510	45.0410
 0.9520	44.9970
 0.9530	44.9500
 0.9540	44.9010
 0.9550	44.8430
 0.9560	44.7910
 0.9570	44.7460
 0.9580	44.7060
 0.9590	44.6620
 0.9600	44.6190
 0.9610	44.5820
 0.9620	44.5520
 0.9630	44.5240
 0.9640	44.4950
 0.9650	44.4670
 0.9660	44.4410
 0.9670	44.4150
 0.9680	44.3990
 0.9690	44.3850
 0.9700	44.3630
 0.9710	44.3430
 0.9720	44.3200
 0.9730	44.3020
 0.9740	44.2970
 0.9750	44.2810
 0.9760	44.2710
 0.9770	44.2670
 0.9780	44.2600
 0.9790	44.2470
 0.9800	44.2390
 0.9810	44.2380
 0.9820	44.2400
 0.9830	44.2420
 0.9840	44.2270
 0.9850	44.2110
 0.9860	44.2170
 0.9870	44.2210
 0.9880	44.2160
 0.9890	44.2140
 0.9900	44.2280
 0.9910	44.2210
 0.9920	44.2300
 0.9930	44.2430
 0.9940	44.2340
 0.9950	44.2320
 0.9960	44.2390
 0.9970	44.2530
 0.9980	44.2670
 0.9990	44.2620
 1.0000	44.2680
 1.0010	44.1410
 1.0020	44.1510
 1.0030	44.1590
 1.0040	44.1640
 1.0050	44.1750
 1.0060	44.1880
 1.0070	44.1980
 1.0080	44.2100
 1.0090	44.2240
 1.0100	44.2350
 1.0110	44.2450
 1.0120	44.2560
 1.0130	44.2610
 1.0140	44.2720
 1.0150	44.2870
 1.0160	44.3010
 1.0170	44.3140
 1.0180	44.3280
 1.0190	44.3380
 1.0200	44.3460
 1.0210	44.3580
 1.0220	44.3730
 1.0230	44.3860
 1.0240	44.3970
 1.0250	44.4100
 1.0260	44.4230
 1.0270	44.4350
 1.0280	44.4460
 1.0290	44.4570
 1.0300	44.4630
 1.0310	44.4730
 1.0320	44.4840
 1.0330	44.4950
 1.0340	44.5040
 1.0350	44.5140
 1.0360	44.5250
 1.0370	44.5370
 1.0380	44.5470
 1.0390	44.5570
 1.0400	44.5670
 1.0410	44.5740
 1.0420	44.5820
 1.0430	44.5910
 1.0440	44.5980
 1.0450	44.6010
 1.0460	44.6060
 1.0470	44.6120
 1.0480	44.6190
 1.0490	44.6300
 1.0500	44.6380
 1.0510	44.6440
 1.0520	44.6520
 1.0530	44.6570
 1.0540	44.6600
 1.0550	44.6650
 1.0560	44.6710
 1.0570	44.6750
 1.0580	44.6760
 1.0590	44.6800
 1.0600	44.6830
 1.0610	44.6860
 1.0620	44.6870
 1.0630	44.6900
 1.0640	44.6930
 1.0650	44.6950
 1.0660	44.7000
 1.0670	44.7020
 1.0680	44.7040
 1.0690	44.7040
 1.0700	44.7040
 1.0710	44.7020
 1.0720	44.7010
 1.0730	44.6980
 1.0740	44.6980
 1.0750	44.6990
 1.0760	44.6980
 1.0770	44.7000
 1.0780	44.6980
 1.0790	44.6900
 1.0800	44.6860
 1.0810	44.6820
 1.0820	44.6780
 1.0830	44.6770
 1.0840	44.6750
 1.0850	44.6730
 1.0860	44.6710
 1.0870	44.6670
 1.0880	44.6630
 1.0890	44.6580
 1.0900	44.6520
 1.0910	44.6460
 1.0920	44.6420
 1.0930	44.6350
 1.0940	44.6260
 1.0950	44.6190
 1.0960	44.6140
 1.0970	44.6070
 1.0980	44.6020
 1.0990	44.5950
 1.1000	44.5870
 1.1010	44.5780
 1.1020	44.5680
 1.1030	44.5580
 1.1040	44.5490
 1.1050	44.5420
 1.1060	44.5320
 1.1070	44.5230
 1.1080	44.5130
 1.1090	44.5010
 1.1100	44.4910
 1.1110	44.4820
 1.1120	44.4710
 1.1130	44.4610
 1.1140	44.4490
 1.1150	44.4370
 1.1160	44.4230
 1.1170	44.4080
 1.1180	44.3900
 1.1190	44.3710
 1.1200	44.3500
 1.1210	44.3280
 1.1220	44.3040
 1.1230	44.2790
 1.1240	44.2510
 1.1250	44.2180
 1.1260	44.1820
 1.1270	44.1420
 1.1280	44.0990
 1.1290	44.0500
 1.1300	43.9980
 1.1310	43.9380
 1.1320	43.8730
 1.1330	43.8040
 1.1340	43.7290
 1.1350	43.6490
 1.1360	43.5670
 1.1370	43.4770
 1.1380	43.3840
 1.1390	43.2870
 1.1400	43.1830
 1.1410	43.0780
 1.1420	42.9690
 1.1430	42.8580
 1.1440	42.7490
 1.1450	42.6390
 1.1460	42.5310
 1.1470	42.4230
 1.1480	42.3200
 1.1490	42.2160
 1.1500	42.1200
 1.1510	42.0290
 1.1520	41.9430
 1.1530	41.8620
 1.1540	41.7870
 1.1550	41.7160
 1.1560	41.6500
 1.1570	41.5900
 1.1580	41.5340
 1.1590	41.4840
 1.1600	41.4370
 1.1610	41.3930
 1.1620	41.3530
 1.1630	41.3170
 1.1640	41.2810
 1.1650	41.2470
 1.1660	41.2150
 1.1670	41.1840
 1.1680	41.1540
 1.1690	41.1250
 1.1700	41.0990
 1.1710	41.0740
 1.1720	41.0500
 1.1730	41.0250
 1.1740	41.0010
 1.1750	40.9760
 1.1760	40.9520
 1.1770	40.9260
 1.1780	40.9000
 1.1790	40.8740
 1.1800	40.8470
 1.1810	40.8200
 1.1820	40.7940
 1.1830	40.7670
 1.1840	40.7390
 1.1850	40.7140
 1.1860	40.6900
 1.1870	40.6690
 1.1880	40.6500
 1.1890	40.6340
 1.1900	40.6200
 1.1910	40.6080
 1.1920	40.5990
 1.1930	40.5930
 1.1940	40.5870
 1.1950	40.5830
 1.1960	40.5810
 1.1970	40.5790
 1.1980	40.5810
 1.1990	40.5870
 1.2000	40.5940
 1.2010	40.6030
 1.2020	40.6120
 1.2030	40.6230
 1.2040	40.6340
 1.2050	40.6460
 1.2060	40.6590
 1.2070	40.6730
 1.2080	40.6880
 1.2090	40.7060
 1.2100	40.7240
 1.2110	40.7420
 1.2120	40.7620
 1.2130	40.7820
 1.2140	40.8020
 1.2150	40.8230
 1.2160	40.8440
 1.2170	40.8660
 1.2180	40.8870
 1.2190	40.9080
 1.2200	40.9290
 1.2210	40.9520
 1.2220	40.9760
 1.2230	40.9990
 1.2240	41.0220
 1.2250	41.0450
 1.2260	41.0660
 1.2270	41.0890
 1.2280	41.1120
 1.2290	41.1330
 1.2300	41.1530
 1.2310	41.1710
 1.2320	41.1890
 1.2330	41.2080
 1.2340	41.2260
 1.2350	41.2430
 1.2360	41.2600
 1.2370	41.2760
 1.2380	41.2920
 1.2390	41.3070
 1.2400	41.3220
 1.2410	41.3350
 1.2420	41.3470
 1.2430	41.3590
 1.2440	41.3730
 1.2450	41.3860
 1.2460	41.3980
 1.2470	41.4080
 1.2480	41.4160
 1.2490	41.4250
 1.2500	41.4350
 1.2510	41.4430
 1.2520	41.4540
 1.2530	41.4640
 1.2540	41.4710
 1.2550	41.4780
 1.2560	41.4840
 1.2570	41.4890
 1.2580	41.4950
 1.2590	41.4990
 1.2600	41.5020
 1.2610	41.5050
 1.2620	41.5060
 1.2630	41.5070
 1.2640	41.5080
 1.2650	41.5070
 1.2660	41.5070
 1.2670	41.5050
 1.2680	41.5010
 1.2690	41.4960
 1.2700	41.4900
 1.2710	41.4830
 1.2720	41.4760
 1.2730	41.4690
 1.2740	41.4620
 1.2750	41.4530
 1.2760	41.4430
 1.2770	41.4330
 1.2780	41.4210
 1.2790	41.4090
 1.2800	41.3970
 1.2810	41.3810
 1.2820	41.3660
 1.2830	41.3490
 1.2840	41.3280
 1.2850	41.3090
 1.2860	41.2900
 1.2870	41.2680
 1.2880	41.2430
 1.2890	41.2190
 1.2900	41.1940
 1.2910	41.1640
 1.2920	41.1340
 1.2930	41.1050
 1.2940	41.0720
 1.2950	41.0380
 1.2960	41.0020
 1.2970	40.9640
 1.2980	40.9240
 1.2990	40.8830
 1.3000	40.8420
 1.3010	40.7970
 1.3020	40.7500
 1.3030	40.7010
 1.3040	40.6470
 1.3050	40.5940
 1.3060	40.5420
 1.3070	40.4870
 1.3080	40.4310
 1.3090	40.3740
 1.3100	40.3110
 1.3110	40.2460
 1.3120	40.1770
 1.3130	40.1060
 1.3140	40.0330
 1.3150	39.9560
 1.3160	39.8780
 1.3170	39.7990
 1.3180	39.7170
 1.3190	39.6320
 1.3200	39.5480
 1.3210	39.4610
 1.3220	39.3700
 1.3230	39.2780
 1.3240	39.1840
 1.3250	39.0870
 1.3260	38.9880
 1.3270	38.8870
 1.3280	38.7840
 1.3290	38.6790
 1.3300	38.5720
 1.3310	38.4630
 1.3320	38.3530
 1.3330	38.2400
 1.3340	38.1260
 1.3350	38.0120
 1.3360	37.8970
 1.3370	37.7810
 1.3380	37.6680
 1.3390	37.5530
 1.3400	37.4390
 1.3410	37.3260
 1.3420	37.2120
 1.3430	37.1000
 1.3440	36.9900
 1.3450	36.8790
 1.3460	36.7670
 1.3470	36.6580
 1.3480	36.5490
 1.3490	36.4410
 1.3500	36.3360
 1.3510	36.2290
 1.3520	36.1210
 1.3530	36.0150
 1.3540	35.9070
 1.3550	35.8010
 1.3560	35.6930
 1.3570	35.5840
 1.3580	35.4750
 1.3590	35.3630
 1.3600	35.2490
 1.3610	35.1330
 1.3620	35.0120
 1.3630	34.8870
 1.3640	34.7570
 1.3650	34.6200
 1.3660	34.4760
 1.3670	34.3240
 1.3680	34.1620
 1.3690	33.9930
 1.3700	33.8110
 1.3710	33.6180
 1.3720	33.4140
 1.3730	33.1940
 1.3740	32.9600
 1.3750	32.7090
 1.3760	32.4370
 1.3770	32.1460
 1.3780	31.8310
 1.3790	31.4970
 1.3800	31.1410
 1.3810	30.7610
 1.3820	30.3630
 1.3830	29.9450
 1.3840	29.5060
 1.3850	29.0470
 1.3860	28.5730
 1.3870	28.0760
 1.3880	27.5740
 1.3890	27.0580
 1.3900	26.5300
 1.3910	26.0020
 1.3920	25.4660
 1.3930	24.9240
 1.3940	24.3860
 1.3950	23.8440
 1.3960	23.3110
 1.3970	22.7880
 1.3980	22.2720
 1.3990	21.7760
 1.4000	21.2930
 1.4010	20.8220
 1.4020	20.3710
 1.4030	19.9340
 1.4040	19.5150
 1.4050	19.1170
 1.4060	18.7370
 1.4070	18.3810
 1.4080	18.0460
 1.4090	17.7270
 1.4100	17.4280
 1.4110	17.1460
 1.4120	16.8810
 1.4130	16.6350
 1.4140	16.4040
 1.4150	16.1910
 1.4160	15.9920
 1.4170	15.8070
 1.4180	15.6360
 1.4190	15.4740
 1.4200	15.3240
 1.4210	15.1860
 1.4220	15.0560
 1.4230	14.9390
 1.4240	14.8310
 1.4250	14.7290
 1.4260	14.6360
 1.4270	14.5480
 1.4280	14.4660
 1.4290	14.3910
 1.4300	14.3230
 1.4310	14.2590
 1.4320	14.2030
 1.4330	14.1500
 1.4340	14.1030
 1.4350	14.0600
 1.4360	14.0230
 1.4370	13.9890
 1.4380	13.9580
 1.4390	13.9310
 1.4400	13.9080
 1.4410	13.8880
 1.4420	13.8720
 1.4430	13.8590
 1.4440	13.8470
 1.4450	13.8380
 1.4460	13.8320
 1.4470	13.8280
 1.4480	13.8250
 1.4490	13.8250
 1.4500	13.8250
 1.4510	13.8280
 1.4520	13.8340
 1.4530	13.8400
 1.4540	13.8490
 1.4550	13.8600
 1.4560	13.8730
 1.4570	13.8900
 1.4580	13.9090
 1.4590	13.9320
 1.4600	13.9580
 1.4610	13.9870
 1.4620	14.0210
 1.4630	14.0580
 1.4640	14.1000
 1.4650	14.1450
 1.4660	14.1940
 1.4670	14.2480
 1.4680	14.3070
 1.4690	14.3700
 1.4700	14.4370
 1.4710	14.5080
 1.4720	14.5820
 1.4730	14.6590
 1.4740	14.7400
 1.4750	14.8250
 1.4760	14.9120
 1.4770	15.0010
 1.4780	15.0930
 1.4790	15.1880
 1.4800	15.2850
 1.4810	15.3840
 1.4820	15.4850
 1.4830	15.5870
 1.4840	15.6900
 1.4850	15.7950
 1.4860	15.9010
 1.4870	16.0080
 1.4880	16.1160
 1.4890	16.2250
 1.4900	16.3350
 1.4910	16.4450
 1.4920	16.5570
 1.4930	16.6710
 1.4940	16.7840
 1.4950	16.8990
 1.4960	17.0130
 1.4970	17.1260
 1.4980	17.2420
 1.4990	17.3580
 1.5000	17.4750
 1.5010	17.5920
 1.5020	17.7090
 1.5030	17.8270
 1.5040	17.9440
 1.5050	18.0620
 1.5060	18.1790
 1.5070	18.2970
 1.5080	18.4150
 1.5090	18.5330
 1.5100	18.6510
 1.5110	18.7680
 1.5120	18.8870
 1.5130	19.0030
 1.5140	19.1190
 1.5150	19.2360
 1.5160	19.3510
 1.5170	19.4670
 1.5180	19.5830
 1.5190	19.6990
 1.5200	19.8150
 1.5210	19.9290
 1.5220	20.0420
 1.5230	20.1550
 1.5240	20.2680
 1.5250	20.3820
 1.5260	20.4950
 1.5270	20.6070
 1.5280	20.7180
 1.5290	20.8260
 1.5300	20.9350
 1.5310	21.0420
 1.5320	21.1490
 1.5330	21.2560
 1.5340	21.3630
 1.5350	21.4680
 1.5360	21.5730
 1.5370	21.6750
 1.5380	21.7760
 1.5390	21.8790
 1.5400	21.9800
 1.5410	22.0790
 1.5420	22.1790
 1.5430	22.2780
 1.5440	22.3750
 1.5450	22.4720
 1.5460	22.5670
 1.5470	22.6610
 1.5480	22.7550
 1.5490	22.8490
 1.5500	22.9420
 1.5510	23.0350
 1.5520	23.1270
 1.5530	23.2160
 1.5540	23.3050
 1.5550	23.3920
 1.5560	23.4770
 1.5570	23.5610
 1.5580	23.6450
 1.5590	23.7290
 1.5600	23.8120
 1.5610	23.8930
 1.5620	23.9730
 1.5630	24.0510
 1.5640	24.1300
 1.5650	24.2080
 1.5660	24.2840
 1.5670	24.3580
 1.5680	24.4340
 1.5690	24.5070
 1.5700	24.5800
 1.5710	24.6540
 1.5720	24.7250
 1.5730	24.7950
 1.5740	24.8660
 1.5750	24.9350
 1.5760	25.0050
 1.5770	25.0720
 1.5780	25.1380
 1.5790	25.2050
 1.5800	25.2710
 1.5810	25.3360
 1.5820	25.4020
 1.5830	25.4670
 1.5840	25.5320
 1.5850	25.5960
 1.5860	25.6600
 1.5870	25.7220
 1.5880	25.7820
 1.5890	25.8440
 1.5900	25.9050
 1.5910	25.9660
 1.5920	26.0260
 1.5930	26.0840
 1.5940	26.1430
 1.5950	26.2010
 1.5960	26.2580
 1.5970	26.3160
 1.5980	26.3710
 1.5990	26.4270
 1.6000	26.4820
 1.6010	26.5360
 1.6020	26.5900
 1.6030	26.6440
 1.6040	26.6970
 1.6050	26.7490
 1.6060	26.8000
 1.6070	26.8490
 1.6080	26.8980
 1.6090	26.9480
 1.6100	26.9960
 1.6110	27.0440
 1.6120	27.0900
 1.6130	27.1350
 1.6140	27.1780
 1.6150	27.2200
 1.6160	27.2620
 1.6170	27.3040
 1.6180	27.3440
 1.6190	27.3820
 1.6200	27.4190
 1.6210	27.4540
 1.6220	27.4870
 1.6230	27.5210
 1.6240	27.5530
 1.6250	27.5850
 1.6260	27.6170
 1.6270	27.6490
 1.6280	27.6770
 1.6290	27.7070
 1.6300	27.7360
 1.6310	27.7650
 1.6320	27.7950
 1.6330	27.8240
 1.6340	27.8540
 1.6350	27.8830
 1.6360	27.9120
 1.6370	27.9410
 1.6380	27.9680
 1.6390	27.9950
 1.6400	28.0240
 1.6410	28.0490
 1.6420	28.0730
 1.6430	28.0940
 1.6440	28.1100
 1.6450	28.1280
 1.6460	28.1430
 1.6470	28.1570
 1.6480	28.1700
 1.6490	28.1800
 1.6500	28.1890
 1.6510	28.1950
 1.6520	28.1990
 1.6530	28.2010
 1.6540	28.2030
 1.6550	28.2040
 1.6560	28.2020
 1.6570	28.1970
 1.6580	28.1920
 1.6590	28.1870
 1.6600	28.1830
 1.6610	28.1770
 1.6620	28.1690
 1.6630	28.1590
 1.6640	28.1480
 1.6650	28.1360
 1.6660	28.1230
 1.6670	28.1100
 1.6680	28.0950
 1.6690	28.0770
 1.6700	28.0560
 1.6710	28.0330
 1.6720	28.0070
 1.6730	27.9790
 1.6740	27.9500
 1.6750	27.9130
 1.6760	27.8730
 1.6770	27.8280
 1.6780	27.7810
 1.6790	27.7300
 1.6800	27.6770
 1.6810	27.6220
 1.6820	27.5650
 1.6830	27.5040
 1.6840	27.4420
 1.6850	27.3770
 1.6860	27.3090
 1.6870	27.2400
 1.6880	27.1730
 1.6890	27.1040
 1.6900	27.0380
 1.6910	26.9730
 1.6920	26.9090
 1.6930	26.8470
 1.6940	26.7870
 1.6950	26.7280
 1.6960	26.6720
 1.6970	26.6200
 1.6980	26.5700
 1.6990	26.5240
 1.7000	26.4770
 1.7010	26.4310
 1.7020	26.3870
 1.7030	26.3440
 1.7040	26.3020
 1.7050	26.2620
 1.7060	26.2230
 1.7070	26.1840
 1.7080	26.1460
 1.7090	26.1080
 1.7100	26.0720
 1.7110	26.0380
 1.7120	26.0030
 1.7130	25.9700
 1.7140	25.9370
 1.7150	25.9030
 1.7160	25.8690
 1.7170	25.8370
 1.7180	25.8020
 1.7190	25.7680
 1.7200	25.7350
 1.7210	25.7000
 1.7220	25.6660
 1.7230	25.6320
 1.7240	25.5960
 1.7250	25.5600
 1.7260	25.5220
 1.7270	25.4870
 1.7280	25.4510
 1.7290	25.4160
 1.7300	25.3830
 1.7310	25.3510
 1.7320	25.3210
 1.7330	25.2910
 1.7340	25.2620
 1.7350	25.2320
 1.7360	25.2030
 1.7370	25.1720
 1.7380	25.1400
 1.7390	25.1040
 1.7400	25.0660
 1.7410	25.0260
 1.7420	24.9810
 1.7430	24.9370
 1.7440	24.8920
 1.7450	24.8440
 1.7460	24.7930
 1.7470	24.7420
 1.7480	24.6880
 1.7490	24.6360
 1.7500	24.5830
 1.7510	24.5310
 1.7520	24.4770
 1.7530	24.4270
 1.7540	24.3770
 1.7550	24.3310
 1.7560	24.2860
 1.7570	24.2390
 1.7580	24.1950
 1.7590	24.1500
 1.7600	24.1060
 1.7610	24.0660
 1.7620	24.0270
 1.7630	23.9880
 1.7640	23.9510
 1.7650	23.9140
 1.7660	23.8800
 1.7670	23.8480
 1.7680	23.8180
 1.7690	23.7910
 1.7700	23.7640
 1.7710	23.7390
 1.7720	23.7140
 1.7730	23.6900
 1.7740	23.6670
 1.7750	23.6450
 1.7760	23.6250
 1.7770	23.6060
 1.7780	23.5900
 1.7790	23.5760
 1.7800	23.5630
 1.7810	23.5530
 1.7820	23.5400
 1.7830	23.5260
 1.7840	23.5170
 1.7850	23.5080
 1.7860	23.5010
 1.7870	23.4980
 1.7880	23.4940
 1.7890	23.4910
 1.7900	23.4920
 1.7910	23.4920
 1.7920	23.4930
 1.7930	23.4950
 1.7940	23.4980
 1.7950	23.5020
 1.7960	23.5090
 1.7970	23.5160
 1.7980	23.5230
 1.7990	23.5300
 1.8000	23.5350
 1.8010	23.5430
 1.8020	23.5530
 1.8030	23.5620
 1.8040	23.5720
 1.8050	23.5820
 1.8060	23.5900
 1.8070	23.5990
 1.8080	23.6100
 1.8090	23.6190
 1.8100	23.6280
 1.8110	23.6370
 1.8120	23.6440
 1.8130	23.6510
 1.8140	23.6580
 1.8150	23.6650
 1.8160	23.6720
 1.8170	23.6750
 1.8180	23.6750
 1.8190	23.6730
 1.8200	23.6730
 1.8210	23.6730
 1.8220	23.6720
 1.8230	23.6730
 1.8240	23.6700
 1.8250	23.6670
 1.8260	23.6620
 1.8270	23.6560
 1.8280	23.6470
 1.8290	23.6350
 1.8300	23.6220
 1.8310	23.4940
 1.8320	23.4750
 1.8330	23.4520
 1.8340	23.4230
 1.8350	23.3900
 1.8360	23.3550
 1.8370	23.3170
 1.8380	23.2760
 1.8390	23.2290
 1.8400	23.1790
 1.8410	23.1210
 1.8420	23.0570
 1.8430	22.9920
 1.8440	22.9210
 1.8450	22.8450
 1.8460	22.7630
 1.8470	22.6670
 1.8480	22.5630
 1.8490	22.4510
 1.8500	22.3280
 1.8510	22.1960
 1.8520	22.0560
 1.8530	21.9030
 1.8540	21.7390
 1.8550	21.5630
 1.8560	21.3760
 1.8570	21.1770
 1.8580	20.9610
 1.8590	20.7360
 1.8600	20.4990
 1.8610	20.2480
 1.8620	19.9820
 1.8630	19.7090
 1.8640	19.4190
 1.8650	19.1100
 1.8660	18.7920
 1.8670	18.4500
 1.8680	18.0910
 1.8690	17.7190
 1.8700	17.3310
 1.8710	16.9250
 1.8720	16.5120
 1.8730	16.0890
 1.8740	15.6560
 1.8750	15.2160
 1.8760	14.7680
 1.8770	14.3250
 1.8780	13.8810
 1.8790	13.4350
 1.8800	12.9990
 1.8810	12.5690
 1.8820	12.1380
 1.8830	11.7120
 1.8840	11.2980
 1.8850	10.8900
 1.8860	10.4910
 1.8870	10.1080
 1.8880	 9.7390
 1.8890	 9.3860
 1.8900	 9.0540
 1.8910	 8.7400
 1.8920	 8.4420
 1.8930	 8.1640
 1.8940	 7.9030
 1.8950	 7.6630
 1.8960	 7.4390
 1.8970	 7.2340
 1.8980	 7.0490
 1.8990	 6.8780
 1.9000	 6.7190
 1.9010	 6.5760
 1.9020	 6.4450
 1.9030	 6.3290
 1.9040	 6.2240
 1.9050	 6.1300
 1.9060	 6.0460
 1.9070	 5.9700
 1.9080	 5.9020
 1.9090	 5.8450
 1.9100	 5.7960
 1.9110	 5.7480
 1.9120	 5.7060
 1.9130	 5.6670
 1.9140	 5.6300
 1.9150	 5.5990
 1.9160	 5.5730
 1.9170	 5.5510
 1.9180	 5.5320
 1.9190	 5.5140
 1.9200	 5.4990
 1.9210	 5.4870
 1.9220	 5.4770
 1.9230	 5.4700
 1.9240	 5.4630
 1.9250	 5.4570
 1.9260	 5.4500
 1.9270	 5.4450
 1.9280	 5.4420
 1.9290	 5.4390
 1.9300	 5.4410
 1.9310	 5.4420
 1.9320	 5.4440
 1.9330	 5.4470
 1.9340	 5.4530
 1.9350	 5.4600
 1.9360	 5.4660
 1.9370	 5.4750
 1.9380	 5.4880
 1.9390	 5.5010
 1.9400	 5.5130
 1.9410	 5.5270
 1.9420	 5.5390
 1.9430	 5.5500
 1.9440	 5.5630
 1.9450	 5.5770
 1.9460	 5.5940
 1.9470	 5.6120
 1.9480	 5.6310
 1.9490	 5.6510
 1.9500	 5.6710
 1.9510	 5.6930
 1.9520	 5.7150
 1.9530	 5.7370
 1.9540	 5.7600
 1.9550	 5.7830
 1.9560	 5.8050
 1.9570	 5.8300
 1.9580	 5.8580
 1.9590	 5.8850
 1.9600	 5.9140
 1.9610	 5.9420
 1.9620	 5.9690
 1.9630	 5.9940
 1.9640	 6.0230
 1.9650	 6.0540
 1.9660	 6.0850
 1.9670	 6.1190
 1.9680	 6.1520
 1.9690	 6.1840
 1.9700	 6.2170
 1.9710	 6.2530
 1.9720	 6.2890
 1.9730	 6.3260
 1.9740	 6.3630
 1.9750	 6.3980
 1.9760	 6.4350
 1.9770	 6.4710
 1.9780	 6.5080
 1.9790	 6.5470
 1.9800	 6.5890
 1.9810	 6.6280
 1.9820	 6.6680
 1.9830	 6.7080
 1.9840	 6.7470
 1.9850	 6.7870
 1.9860	 6.8280
 1.9870	 6.8690
 1.9880	 6.9110
 1.9890	 6.9540
 1.9900	 6.9990
 1.9910	 7.0410
 1.9920	 7.0850
 1.9930	 7.1290
 1.9940	 7.1740
 1.9950	 7.2210
 1.9960	 7.2660
 1.9970	 7.3110
 1.9980	 7.3560
 1.9990	 7.3990
 2.0000	 7.4440
 2.0010	 7.4920
 2.0020	 7.5390
 2.0030	 7.5860
 2.0040	 7.6340
 2.0050	 7.6820
 2.0060	 7.7290
 2.0070	 7.7780
 2.0080	 7.8290
 2.0090	 7.8780
 2.0100	 7.9270
 2.0110	 7.9760
 2.0120	 8.0240
 2.0130	 8.0720
 2.0140	 8.1210
 2.0150	 8.1700
 2.0160	 8.2200
 2.0170	 8.2670
 2.0180	 8.3160
 2.0190	 8.3670
 2.0200	 8.4160
 2.0210	 8.4630
 2.0220	 8.5130
 2.0230	 8.5640
 2.0240	 8.6130
 2.0250	 8.6650
 2.0260	 8.7140
 2.0270	 8.7610
 2.0280	 8.8040
 2.0290	 8.8480
 2.0300	 8.8920
 2.0310	 8.9360
 2.0320	 8.9780
 2.0330	 9.0220
 2.0340	 9.0650
 2.0350	 9.1090
 2.0360	 9.1540
 2.0370	 9.1980
 2.0380	 9.2420
 2.0390	 9.2850
 2.0400	 9.3270
 2.0410	 9.3690
 2.0420	 9.4080
 2.0430	 9.4500
 2.0440	 9.4900
 2.0450	 9.5300
 2.0460	 9.5700
 2.0470	 9.6110
 2.0480	 9.6490
 2.0490	 9.6860
 2.0500	 9.7230
 2.0510	 9.7590
 2.0520	 9.7960
 2.0530	 9.8330
 2.0540	 9.8710
 2.0550	 9.9100
 2.0560	 9.9510
 2.0570	 9.9890
 2.0580	10.0280
 2.0590	10.0670
 2.0600	10.1040
 2.0610	10.1440
 2.0620	10.1870
 2.0630	10.2270
 2.0640	10.2680
 2.0650	10.3070
 2.0660	10.3440
 2.0670	10.3830
 2.0680	10.4200
 2.0690	10.4600
 2.0700	10.5040
 2.0710	10.5470
 2.0720	10.5930
 2.0730	10.6350
 2.0740	10.6760
 2.0750	10.7140
 2.0760	10.7560
 2.0770	10.7990
 2.0780	10.8390
 2.0790	10.8810
 2.0800	10.9210
 2.0810	10.9570
 2.0820	10.9950
 2.0830	11.0350
 2.0840	11.0760
 2.0850	11.1160
 2.0860	11.1580
 2.0870	11.2040
 2.0880	11.2450
 2.0890	11.2870
 2.0900	11.3290
 2.0910	11.3700
 2.0920	11.4070
 2.0930	11.4470
 2.0940	11.4900
 2.0950	11.5290
 2.0960	11.5670
 2.0970	11.6070
 2.0980	11.6470
 2.0990	11.6850
 2.1000	11.7270
 2.1010	11.7650
 2.1020	11.8000
 2.1030	11.8360
 2.1040	11.8730
 2.1050	11.9100
 2.1060	11.9440
 2.1070	11.9760
 2.1080	12.0120
 2.1090	12.0490
 2.1100	12.0860
 2.1110	12.1290
 2.1120	12.1660
 2.1130	12.2010
 2.1140	12.2350
 2.1150	12.2650
 2.1160	12.2980
 2.1170	12.3320
 2.1180	12.3640
 2.1190	12.3960
 2.1200	12.4300
 2.1210	12.4620
 2.1220	12.4960
 2.1230	12.5290
 2.1240	12.5660
 2.1250	12.5990
 2.1260	12.6300
 2.1270	12.6620
 2.1280	12.6920
 2.1290	12.7230
 2.1300	12.7550
 2.1310	12.7850
 2.1320	12.8140
 2.1330	12.8420
 2.1340	12.8700
 2.1350	12.8980
 2.1360	12.9280
 2.1370	12.9560
 2.1380	12.9830
 2.1390	13.0100
 2.1400	13.0370
 2.1410	13.0620
 2.1420	13.0860
 2.1430	13.1100
 2.1440	13.1350
 2.1450	13.1580
 2.1460	13.1830
 2.1470	13.2110
 2.1480	13.2350
 2.1490	13.2580
 2.1500	13.2820
 2.1510	13.3030
 2.1520	13.3260
 2.1530	13.3530
 2.1540	13.3760
 2.1550	13.3970
 2.1560	13.4180
 2.1570	13.4350
 2.1580	13.4530
 2.1590	13.4720
 2.1600	13.4920
 2.1610	13.5100
 2.1620	13.5250
 2.1630	13.5430
 2.1640	13.5590
 2.1650	13.5760
 2.1660	13.5950
 2.1670	13.6120
 2.1680	13.6280
 2.1690	13.6440
 2.1700	13.6560
 2.1710	13.6730
 2.1720	13.6900
 2.1730	13.7060
 2.1740	13.7260
 2.1750	13.7440
 2.1760	13.7590
 2.1770	13.7760
 2.1780	13.7930
 2.1790	13.8120
 2.1800	13.8310
 2.1810	13.8500
 2.1820	13.8700
 2.1830	13.8900
 2.1840	13.9090
 2.1850	13.9260
 2.1860	13.9420
 2.1870	13.9570
 2.1880	13.9750
 2.1890	13.9940
 2.1900	14.0120
 2.1910	14.0310
 2.1920	14.0480
 2.1930	14.0640
 2.1940	14.0790
 2.1950	14.0940
 2.1960	14.1070
 2.1970	14.1150
 2.1980	14.1290
 2.1990	14.1450
 2.2000	14.1600
 2.2010	14.1840
 2.2020	14.1990
 2.2030	14.2070
 2.2040	14.2170
 2.2050	14.2250
 2.2060	14.2330
 2.2070	14.2410
 2.2080	14.2490
 2.2090	14.2590
 2.2100	14.2680
 2.2110	14.2750
 2.2120	14.2830
 2.2130	14.2870
 2.2140	14.2880
 2.2150	14.2900
 2.2160	14.2920
 2.2170	14.2930
 2.2180	14.2940
 2.2190	14.2880
 2.2200	14.2760
 2.2210	14.2660
 2.2220	14.2500
 2.2230	14.2390
 2.2240	14.2350
 2.2250	14.2240
 2.2260	14.2120
 2.2270	14.1970
 2.2280	14.1770
 2.2290	14.1550
 2.2300	14.1310
 2.2310	14.1040
 2.2320	14.0760
 2.2330	14.0470
 2.2340	14.0130
 2.2350	13.9760
 2.2360	13.9380
 2.2370	13.8960
 2.2380	13.8530
 2.2390	13.8100
 2.2400	13.7640
 2.2410	13.7160
 2.2420	13.6660
 2.2430	13.6150
 2.2440	13.5600
 2.2450	13.5010
 2.2460	13.4420
 2.2470	13.3790
 2.2480	13.3170
 2.2490	13.2560
 2.2500	13.1930
 2.2510	13.1270
 2.2520	13.0610
 2.2530	12.9900
 2.2540	12.9230
 2.2550	12.8580
 2.2560	12.7930
 2.2570	12.7350
 2.2580	12.6700
 2.2590	12.5980
 2.2600	12.5300
 2.2610	12.4610
 2.2620	12.3920
 2.2630	12.3340
 2.2640	12.2780
 2.2650	12.2190
 2.2660	12.1610
 2.2670	12.1050
 2.2680	12.0490
 2.2690	11.9940
 2.2700	11.9410
 2.2710	11.8940
 2.2720	11.8490
 2.2730	11.8060
 2.2740	11.7690
 2.2750	11.7300
 2.2760	11.6870
 2.2770	11.6490
 2.2780	11.6140
 2.2790	11.5800
 2.2800	11.5500
 2.2810	11.5170
 2.2820	11.4840
 2.2830	11.4480
 2.2840	11.4080
 2.2850	11.3710
 2.2860	11.3340
 2.2870	11.3000
 2.2880	11.2710
 2.2890	11.2350
 2.2900	11.1970
 2.2910	11.1560
 2.2920	11.1070
 2.2930	11.0600
 2.2940	11.0100
 2.2950	10.9650
 2.2960	10.9220
 2.2970	10.8780
 2.2980	10.8360
 2.2990	10.7980
 2.3000	10.7530
 2.3010	10.7080
 2.3020	10.6670
 2.3030	10.6240
 2.3040	10.5860
 2.3050	10.5520
 2.3060	10.5170
 2.3070	10.4840
 2.3080	10.4560
 2.3090	10.4290
 2.3100	10.4040
 2.3110	10.3810
 2.3120	10.3620
 2.3130	10.3440
 2.3140	10.3300
 2.3150	10.3220
 2.3160	10.3140
 2.3170	10.3110
 2.3180	10.3020
 2.3190	10.2950
 2.3200	10.2840
 2.3210	10.2660
 2.3220	10.2510
 2.3230	10.2320
 2.3240	10.2170
 2.3250	10.2040
 2.3260	10.1860
 2.3270	10.1680
 2.3280	10.1490
 2.3290	10.1280
 2.3300	10.1070
 2.3310	10.0910
 2.3320	10.0650
 2.3330	10.0310
 2.3340	10.0010
 2.3350	 9.9670
 2.3360	 9.9350
 2.3370	 9.9030
 2.3380	 9.8730
 2.3390	 9.8430
 2.3400	 9.8130
 2.3410	 9.7860
 2.3420	 9.7550
 2.3430	 9.7200
 2.3440	 9.6860
 2.3450	 9.6500
 2.3460	 9.6170
 2.3470	 9.5840
 2.3480	 9.5520
 2.3490	 9.5230
 2.3500	 9.4960
 2.3510	 9.4730
 2.3520	 9.4500
 2.3530	 9.4330
 2.3540	 9.4090
 2.3550	 9.3820
 2.3560	 9.3570
 2.3570	 9.3450
 2.3580	 9.3360
 2.3590	 9.3260
 2.3600	 9.3100
 2.3610	 9.2840
 2.3620	 9.2540
 2.3630	 9.2350
 2.3640	 9.2150
 2.3650	 9.1790
 2.3660	 9.1500
 2.3670	 9.1240
 2.3680	 9.0960
 2.3690	 9.0780
 2.3700	 9.0610
 2.3710	 9.0370
 2.3720	 9.0120
 2.3730	 8.9900
 2.3740	 8.9540
 2.3750	 8.9220
 2.3760	 8.8950
 2.3770	 8.8700
 2.3780	 8.8580
 2.3790	 8.8400
 2.3800	 8.8160
 2.3810	 8.7870
 2.3820	 8.7500
 2.3830	 8.7140
 2.3840	 8.6760
 2.3850	 8.6480
 2.3860	 8.6200
 2.3870	 8.5970
 2.3880	 8.5740
 2.3890	 8.5400
 2.3900	 8.5000
 2.3910	 8.4530
 2.3920	 8.4220
 2.3930	 8.3960
 2.3940	 8.3700
 2.3950	 8.3610
 2.3960	 8.3350
 2.3970	 8.3040
 2.3980	 8.2800
 2.3990	 8.2460
 2.4000	 8.2140
 2.4010	 8.1870
 2.4020	 8.1560
 2.4030	 8.1170
 2.4040	 8.0800
 2.4050	 8.0500
 2.4060	 8.0210
 2.4070	 7.9980
 2.4080	 7.9720
 2.4090	 7.9350
 2.4100	 7.9010
 2.4110	 7.8650
 2.4120	 7.8410
 2.4130	 7.8240
 2.4140	 7.7870
 2.4150	 7.7520
 2.4160	 7.7200
 2.4170	 7.6830
 2.4180	 7.6660
 2.4190	 7.6440
 2.4200	 7.6070
 2.4210	 7.5650
 2.4220	 7.5200
 2.4230	 7.4920
 2.4240	 7.4640
 2.4250	 7.4460
 2.4260	 7.4280
 2.4270	 7.3890
 2.4280	 7.3650
 2.4290	 7.3270
 2.4300	 7.2780
 2.4310	 7.2580
 2.4320	 7.2330
 2.4330	 7.2100
 2.4340	 7.1940
 2.4350	 7.1650
 2.4360	 7.1300
 2.4370	 7.0970
 2.4380	 7.0770
 2.4390	 7.0460
 2.4400	 7.0140
 2.4410	 6.9860
 2.4420	 6.9570
 2.4430	 6.9300
 2.4440	 6.9040
 2.4450	 6.8790
 2.4460	 6.8400
 2.4470	 6.8150
 2.4480	 6.7880
 2.4490	 6.7570
 2.4500	 6.7460
 2.4510	 6.7070
 2.4520	 6.6650
 2.4530	 6.6490
 2.4540	 6.6030
 2.4550	 6.5710
 2.4560	 6.5680
 2.4570	 6.5450
 2.4580	 6.5340
 2.4590	 6.5240
 2.4600	 6.4910
 2.4610	 6.4580
 2.4620	 6.4310
 2.4630	 6.4060
 2.4640	 6.3940
 2.4650	 6.3850
 2.4660	 6.3520
 2.4670	 6.3330
 2.4680	 6.3260
 2.4690	 6.3320
 2.4700	 6.3160
 2.4710	 6.2930
 2.4720	 6.2620
 2.4730	 6.1810
 2.4740	 6.1550
 2.4750	 6.1540
 2.4760	 6.1450
 2.4770	 6.1910
 2.4780	 6.1900
 2.4790	 6.1490
 2.4800	 6.1190
 2.4810	 6.0690
 2.4820	 6.0400
 2.4830	 6.0500
 2.4840	 6.0720
 2.4850	 6.0230
 2.4860	 5.9980
 2.4870	 5.9790
 2.4880	 5.9590
 2.4890	 5.9910
 2.4900	 6.0000
 2.4910	 5.9970
 2.4920	 6.0020
 2.4930	 5.9670
 2.4940	 5.9460
 2.4950	 5.9460
 2.4960	 5.9460
 2.4970	 5.9390
 2.4980	 5.9190
 2.4990	 5.9440
 2.5000	 5.9360
