Name: Quercus douglasii 1
Type: vegetation
Class: Tree
Genus: Quercus
Species: douglasii
Sample No.: VH269
Owner: UCSB
Wavelength Range: VSWIR
Origin: 34.7153; -120.0598; WGS84
Collection Date: 11/2/2013
Description: Samples were collected as part of the HyspIRI Airborne Campaign. 48 individual plants were sampled in three times in 2013 - spring  summer  and fall. The name of the sample includes a 1  2  or 3 which references a different individual of the species. Samples were taken to JPL and processed within 48 hours of collection. The same leaves were processed in the Nicolet and then measured using the ASD.
Measurement: Bidirectional reflectance
First Column: X
Second Column: Y
X Units: Wavelength (micrometers)
Y Units: Reflectance (percentage)
First X Value: 0.35
Last X Value: 2.5
Number of X Values: 2151
Additional Information: vegetation.tree.quercus.douglasii.vswir.vh269.ucsb.asd.ancillary.txt

 0.3500	 4.8050
 0.3510	 4.8610
 0.3520	 4.7970
 0.3530	 4.7400
 0.3540	 4.7730
 0.3550	 4.7340
 0.3560	 4.6240
 0.3570	 4.5030
 0.3580	 4.4610
 0.3590	 4.5500
 0.3600	 4.6470
 0.3610	 4.6720
 0.3620	 4.6200
 0.3630	 4.6220
 0.3640	 4.6500
 0.3650	 4.6390
 0.3660	 4.5450
 0.3670	 4.5600
 0.3680	 4.6540
 0.3690	 4.6540
 0.3700	 4.7000
 0.3710	 4.6940
 0.3720	 4.6180
 0.3730	 4.6490
 0.3740	 4.7750
 0.3750	 4.8200
 0.3760	 4.6640
 0.3770	 4.7060
 0.3780	 4.7020
 0.3790	 4.6640
 0.3800	 4.8140
 0.3810	 4.7690
 0.3820	 4.7400
 0.3830	 4.8450
 0.3840	 4.7680
 0.3850	 4.7620
 0.3860	 4.8150
 0.3870	 4.8290
 0.3880	 4.8070
 0.3890	 4.8280
 0.3900	 4.8890
 0.3910	 4.8900
 0.3920	 4.8870
 0.3930	 4.8970
 0.3940	 4.9180
 0.3950	 4.9090
 0.3960	 4.9120
 0.3970	 4.9410
 0.3980	 4.9880
 0.3990	 5.0100
 0.4000	 5.0450
 0.4010	 5.1010
 0.4020	 5.1390
 0.4030	 5.1170
 0.4040	 5.1030
 0.4050	 5.1560
 0.4060	 5.2230
 0.4070	 5.2440
 0.4080	 5.2490
 0.4090	 5.3090
 0.4100	 5.3280
 0.4110	 5.3490
 0.4120	 5.3950
 0.4130	 5.4140
 0.4140	 5.4510
 0.4150	 5.5060
 0.4160	 5.5680
 0.4170	 5.6200
 0.4180	 5.6720
 0.4190	 5.7170
 0.4200	 5.7320
 0.4210	 5.7690
 0.4220	 5.8170
 0.4230	 5.8630
 0.4240	 5.9230
 0.4250	 5.9730
 0.4260	 6.0070
 0.4270	 6.0340
 0.4280	 6.0800
 0.4290	 6.1290
 0.4300	 6.1730
 0.4310	 6.2280
 0.4320	 6.2620
 0.4330	 6.2950
 0.4340	 6.3480
 0.4350	 6.3860
 0.4360	 6.4200
 0.4370	 6.4500
 0.4380	 6.4690
 0.4390	 6.4740
 0.4400	 6.4960
 0.4410	 6.5420
 0.4420	 6.5510
 0.4430	 6.5600
 0.4440	 6.5800
 0.4450	 6.6130
 0.4460	 6.6500
 0.4470	 6.6690
 0.4480	 6.6740
 0.4490	 6.6980
 0.4500	 6.7200
 0.4510	 6.7380
 0.4520	 6.7520
 0.4530	 6.7710
 0.4540	 6.7860
 0.4550	 6.7970
 0.4560	 6.8080
 0.4570	 6.8280
 0.4580	 6.8470
 0.4590	 6.8580
 0.4600	 6.8630
 0.4610	 6.8720
 0.4620	 6.8810
 0.4630	 6.8840
 0.4640	 6.8850
 0.4650	 6.8980
 0.4660	 6.9160
 0.4670	 6.9190
 0.4680	 6.9260
 0.4690	 6.9360
 0.4700	 6.9440
 0.4710	 6.9440
 0.4720	 6.9400
 0.4730	 6.9430
 0.4740	 6.9630
 0.4750	 6.9590
 0.4760	 6.9620
 0.4770	 6.9810
 0.4780	 6.9750
 0.4790	 6.9880
 0.4800	 7.0070
 0.4810	 7.0060
 0.4820	 7.0150
 0.4830	 7.0270
 0.4840	 7.0360
 0.4850	 7.0430
 0.4860	 7.0540
 0.4870	 7.0680
 0.4880	 7.0850
 0.4890	 7.0930
 0.4900	 7.1060
 0.4910	 7.1250
 0.4920	 7.1400
 0.4930	 7.1510
 0.4940	 7.1730
 0.4950	 7.2070
 0.4960	 7.2300
 0.4970	 7.2540
 0.4980	 7.2830
 0.4990	 7.3170
 0.5000	 7.3490
 0.5010	 7.3910
 0.5020	 7.4460
 0.5030	 7.5020
 0.5040	 7.5620
 0.5050	 7.6290
 0.5060	 7.7040
 0.5070	 7.7930
 0.5080	 7.8890
 0.5090	 7.9950
 0.5100	 8.1170
 0.5110	 8.2440
 0.5120	 8.3800
 0.5130	 8.5280
 0.5140	 8.6980
 0.5150	 8.8720
 0.5160	 9.0600
 0.5170	 9.2690
 0.5180	 9.4910
 0.5190	 9.7090
 0.5200	 9.9260
 0.5210	10.1570
 0.5220	10.3880
 0.5230	10.6190
 0.5240	10.8500
 0.5250	11.0780
 0.5260	11.2890
 0.5270	11.4850
 0.5280	11.6710
 0.5290	11.8500
 0.5300	12.0140
 0.5310	12.1630
 0.5320	12.3010
 0.5330	12.4320
 0.5340	12.5480
 0.5350	12.6430
 0.5360	12.7270
 0.5370	12.8100
 0.5380	12.8910
 0.5390	12.9600
 0.5400	13.0270
 0.5410	13.0950
 0.5420	13.1650
 0.5430	13.2250
 0.5440	13.2880
 0.5450	13.3530
 0.5460	13.4100
 0.5470	13.4300
 0.5480	13.4510
 0.5490	13.4880
 0.5500	13.5190
 0.5510	13.5360
 0.5520	13.5450
 0.5530	13.5480
 0.5540	13.5270
 0.5550	13.4950
 0.5560	13.4540
 0.5570	13.4020
 0.5580	13.3360
 0.5590	13.2590
 0.5600	13.1740
 0.5610	13.0830
 0.5620	12.9840
 0.5630	12.8780
 0.5640	12.7630
 0.5650	12.6390
 0.5660	12.5110
 0.5670	12.3820
 0.5680	12.2490
 0.5690	12.1130
 0.5700	11.9700
 0.5710	11.8220
 0.5720	11.6830
 0.5730	11.5460
 0.5740	11.4130
 0.5750	11.2900
 0.5760	11.1760
 0.5770	11.0650
 0.5780	10.9570
 0.5790	10.8590
 0.5800	10.7670
 0.5810	10.6800
 0.5820	10.5970
 0.5830	10.5270
 0.5840	10.4650
 0.5850	10.4070
 0.5860	10.3490
 0.5870	10.3010
 0.5880	10.2590
 0.5890	10.2190
 0.5900	10.1860
 0.5910	10.1540
 0.5920	10.1200
 0.5930	10.0870
 0.5940	10.0580
 0.5950	10.0330
 0.5960	10.0120
 0.5970	 9.9930
 0.5980	 9.9720
 0.5990	 9.9470
 0.6000	 9.9150
 0.6010	 9.8820
 0.6020	 9.8410
 0.6030	 9.7960
 0.6040	 9.7520
 0.6050	 9.7010
 0.6060	 9.6450
 0.6070	 9.5860
 0.6080	 9.5220
 0.6090	 9.4570
 0.6100	 9.3970
 0.6110	 9.3470
 0.6120	 9.2810
 0.6130	 9.2050
 0.6140	 9.1260
 0.6150	 9.0550
 0.6160	 9.0000
 0.6170	 8.9500
 0.6180	 8.8980
 0.6190	 8.8580
 0.6200	 8.8220
 0.6210	 8.7890
 0.6220	 8.7660
 0.6230	 8.7430
 0.6240	 8.7230
 0.6250	 8.7100
 0.6260	 8.6980
 0.6270	 8.6910
 0.6280	 8.6870
 0.6290	 8.6800
 0.6300	 8.6830
 0.6310	 8.6880
 0.6320	 8.6880
 0.6330	 8.6830
 0.6340	 8.6730
 0.6350	 8.6620
 0.6360	 8.6470
 0.6370	 8.6240
 0.6380	 8.5940
 0.6390	 8.5570
 0.6400	 8.5170
 0.6410	 8.4740
 0.6420	 8.4240
 0.6430	 8.3690
 0.6440	 8.3170
 0.6450	 8.2650
 0.6460	 8.2130
 0.6470	 8.1640
 0.6480	 8.1170
 0.6490	 8.0760
 0.6500	 8.0410
 0.6510	 8.0080
 0.6520	 7.9720
 0.6530	 7.9350
 0.6540	 7.9020
 0.6550	 7.8790
 0.6560	 7.8450
 0.6570	 7.8060
 0.6580	 7.7750
 0.6590	 7.7420
 0.6600	 7.7070
 0.6610	 7.6720
 0.6620	 7.6410
 0.6630	 7.6170
 0.6640	 7.5990
 0.6650	 7.5870
 0.6660	 7.5720
 0.6670	 7.5610
 0.6680	 7.5550
 0.6690	 7.5540
 0.6700	 7.5580
 0.6710	 7.5660
 0.6720	 7.5780
 0.6730	 7.5900
 0.6740	 7.6060
 0.6750	 7.6250
 0.6760	 7.6420
 0.6770	 7.6680
 0.6780	 7.6950
 0.6790	 7.7230
 0.6800	 7.7550
 0.6810	 7.7900
 0.6820	 7.8290
 0.6830	 7.8730
 0.6840	 7.9190
 0.6850	 7.9730
 0.6860	 8.0370
 0.6870	 8.1140
 0.6880	 8.2090
 0.6890	 8.3350
 0.6900	 8.4980
 0.6910	 8.6970
 0.6920	 8.9590
 0.6930	 9.2830
 0.6940	 9.6720
 0.6950	10.1270
 0.6960	10.6660
 0.6970	11.2820
 0.6980	11.9610
 0.6990	12.7030
 0.7000	13.5080
 0.7010	14.3660
 0.7020	15.2570
 0.7030	16.1790
 0.7040	17.1180
 0.7050	18.0680
 0.7060	19.0400
 0.7070	20.0040
 0.7080	20.9560
 0.7090	21.9050
 0.7100	22.8530
 0.7110	23.7920
 0.7120	24.7170
 0.7130	25.6300
 0.7140	26.5180
 0.7150	27.3920
 0.7160	28.2550
 0.7170	29.0920
 0.7180	29.9250
 0.7190	30.7360
 0.7200	31.4980
 0.7210	32.2600
 0.7220	33.0000
 0.7230	33.7080
 0.7240	34.3900
 0.7250	35.0550
 0.7260	35.6820
 0.7270	36.2640
 0.7280	36.8490
 0.7290	37.4000
 0.7300	37.9130
 0.7310	38.3980
 0.7320	38.8650
 0.7330	39.3070
 0.7340	39.7220
 0.7350	40.1200
 0.7360	40.4980
 0.7370	40.8540
 0.7380	41.1840
 0.7390	41.4810
 0.7400	41.7640
 0.7410	42.0400
 0.7420	42.3050
 0.7430	42.5200
 0.7440	42.7290
 0.7450	42.9400
 0.7460	43.1200
 0.7470	43.2810
 0.7480	43.4350
 0.7490	43.5830
 0.7500	43.7090
 0.7510	43.8330
 0.7520	43.9520
 0.7530	44.0520
 0.7540	44.1340
 0.7550	44.2070
 0.7560	44.2790
 0.7570	44.3530
 0.7580	44.4250
 0.7590	44.4790
 0.7600	44.5120
 0.7610	44.5420
 0.7620	44.5920
 0.7630	44.6400
 0.7640	44.6630
 0.7650	44.6980
 0.7660	44.7130
 0.7670	44.7250
 0.7680	44.7710
 0.7690	44.7840
 0.7700	44.7880
 0.7710	44.8030
 0.7720	44.8340
 0.7730	44.8420
 0.7740	44.8400
 0.7750	44.8490
 0.7760	44.8630
 0.7770	44.8780
 0.7780	44.8840
 0.7790	44.8730
 0.7800	44.8780
 0.7810	44.8950
 0.7820	44.9110
 0.7830	44.9160
 0.7840	44.9260
 0.7850	44.9360
 0.7860	44.9430
 0.7870	44.9460
 0.7880	44.9520
 0.7890	44.9590
 0.7900	44.9690
 0.7910	44.9880
 0.7920	44.9880
 0.7930	44.9830
 0.7940	45.0060
 0.7950	45.0100
 0.7960	45.0200
 0.7970	45.0440
 0.7980	45.0540
 0.7990	45.0520
 0.8000	45.0540
 0.8010	45.0710
 0.8020	45.0750
 0.8030	45.0730
 0.8040	45.0770
 0.8050	45.0980
 0.8060	45.1170
 0.8070	45.1210
 0.8080	45.1200
 0.8090	45.1390
 0.8100	45.1580
 0.8110	45.1740
 0.8120	45.1860
 0.8130	45.1970
 0.8140	45.2100
 0.8150	45.2200
 0.8160	45.2290
 0.8170	45.2490
 0.8180	45.2610
 0.8190	45.2700
 0.8200	45.2850
 0.8210	45.2890
 0.8220	45.3010
 0.8230	45.3190
 0.8240	45.3200
 0.8250	45.3340
 0.8260	45.3560
 0.8270	45.3780
 0.8280	45.4050
 0.8290	45.4140
 0.8300	45.4210
 0.8310	45.4370
 0.8320	45.4240
 0.8330	45.4310
 0.8340	45.4520
 0.8350	45.4630
 0.8360	45.4870
 0.8370	45.4970
 0.8380	45.4970
 0.8390	45.5110
 0.8400	45.5500
 0.8410	45.5820
 0.8420	45.5930
 0.8430	45.6040
 0.8440	45.6120
 0.8450	45.6140
 0.8460	45.6150
 0.8470	45.6350
 0.8480	45.6490
 0.8490	45.6590
 0.8500	45.6760
 0.8510	45.6990
 0.8520	45.7140
 0.8530	45.7190
 0.8540	45.7160
 0.8550	45.7380
 0.8560	45.7560
 0.8570	45.7610
 0.8580	45.7700
 0.8590	45.7910
 0.8600	45.8070
 0.8610	45.8110
 0.8620	45.8150
 0.8630	45.8100
 0.8640	45.8100
 0.8650	45.8290
 0.8660	45.8530
 0.8670	45.8490
 0.8680	45.8360
 0.8690	45.8420
 0.8700	45.8490
 0.8710	45.8700
 0.8720	45.8900
 0.8730	45.8810
 0.8740	45.8810
 0.8750	45.8830
 0.8760	45.8850
 0.8770	45.8920
 0.8780	45.8830
 0.8790	45.8840
 0.8800	45.9010
 0.8810	45.9050
 0.8820	45.9020
 0.8830	45.9100
 0.8840	45.9300
 0.8850	45.9200
 0.8860	45.9080
 0.8870	45.9010
 0.8880	45.8960
 0.8890	45.8890
 0.8900	45.8880
 0.8910	45.9020
 0.8920	45.9260
 0.8930	45.9010
 0.8940	45.8740
 0.8950	45.8700
 0.8960	45.8880
 0.8970	45.8760
 0.8980	45.8620
 0.8990	45.8590
 0.9000	45.8640
 0.9010	45.8630
 0.9020	45.8710
 0.9030	45.8790
 0.9040	45.8530
 0.9050	45.8560
 0.9060	45.8650
 0.9070	45.8600
 0.9080	45.8580
 0.9090	45.8610
 0.9100	45.8580
 0.9110	45.8470
 0.9120	45.8550
 0.9130	45.8350
 0.9140	45.8170
 0.9150	45.8280
 0.9160	45.8030
 0.9170	45.7850
 0.9180	45.7840
 0.9190	45.7930
 0.9200	45.7930
 0.9210	45.7910
 0.9220	45.7900
 0.9230	45.7850
 0.9240	45.7600
 0.9250	45.7310
 0.9260	45.7150
 0.9270	45.7210
 0.9280	45.7340
 0.9290	45.7360
 0.9300	45.7220
 0.9310	45.7010
 0.9320	45.7020
 0.9330	45.6910
 0.9340	45.6660
 0.9350	45.6680
 0.9360	45.6590
 0.9370	45.6400
 0.9380	45.6170
 0.9390	45.5980
 0.9400	45.5780
 0.9410	45.5710
 0.9420	45.5680
 0.9430	45.5190
 0.9440	45.4810
 0.9450	45.4580
 0.9460	45.4400
 0.9470	45.4270
 0.9480	45.4040
 0.9490	45.3690
 0.9500	45.3310
 0.9510	45.3070
 0.9520	45.2750
 0.9530	45.2380
 0.9540	45.2000
 0.9550	45.1580
 0.9560	45.1260
 0.9570	45.0920
 0.9580	45.0490
 0.9590	45.0190
 0.9600	45.0040
 0.9610	44.9920
 0.9620	44.9660
 0.9630	44.9240
 0.9640	44.8960
 0.9650	44.8870
 0.9660	44.8820
 0.9670	44.8510
 0.9680	44.8510
 0.9690	44.8570
 0.9700	44.8230
 0.9710	44.8090
 0.9720	44.8060
 0.9730	44.8050
 0.9740	44.8050
 0.9750	44.8180
 0.9760	44.8110
 0.9770	44.8030
 0.9780	44.8240
 0.9790	44.8180
 0.9800	44.8200
 0.9810	44.8370
 0.9820	44.8560
 0.9830	44.8480
 0.9840	44.8400
 0.9850	44.8460
 0.9860	44.8610
 0.9870	44.8580
 0.9880	44.8990
 0.9890	44.9470
 0.9900	44.9380
 0.9910	44.9320
 0.9920	44.9540
 0.9930	44.9900
 0.9940	45.0040
 0.9950	44.9990
 0.9960	44.9910
 0.9970	45.0020
 0.9980	45.0340
 0.9990	45.0330
 1.0000	44.9810
 1.0010	44.8840
 1.0020	44.8510
 1.0030	44.8720
 1.0040	44.8920
 1.0050	44.9110
 1.0060	44.9320
 1.0070	44.9520
 1.0080	44.9700
 1.0090	44.9890
 1.0100	45.0070
 1.0110	45.0200
 1.0120	45.0350
 1.0130	45.0520
 1.0140	45.0690
 1.0150	45.0850
 1.0160	45.1090
 1.0170	45.1210
 1.0180	45.1250
 1.0190	45.1320
 1.0200	45.1380
 1.0210	45.1520
 1.0220	45.1700
 1.0230	45.1860
 1.0240	45.2050
 1.0250	45.2200
 1.0260	45.2330
 1.0270	45.2460
 1.0280	45.2550
 1.0290	45.2660
 1.0300	45.2800
 1.0310	45.2910
 1.0320	45.3030
 1.0330	45.3120
 1.0340	45.3200
 1.0350	45.3310
 1.0360	45.3460
 1.0370	45.3580
 1.0380	45.3660
 1.0390	45.3700
 1.0400	45.3760
 1.0410	45.3780
 1.0420	45.3840
 1.0430	45.3950
 1.0440	45.4050
 1.0450	45.4150
 1.0460	45.4250
 1.0470	45.4360
 1.0480	45.4430
 1.0490	45.4470
 1.0500	45.4520
 1.0510	45.4560
 1.0520	45.4620
 1.0530	45.4680
 1.0540	45.4760
 1.0550	45.4820
 1.0560	45.4860
 1.0570	45.4920
 1.0580	45.4980
 1.0590	45.5050
 1.0600	45.5170
 1.0610	45.5230
 1.0620	45.5260
 1.0630	45.5290
 1.0640	45.5280
 1.0650	45.5300
 1.0660	45.5340
 1.0670	45.5370
 1.0680	45.5400
 1.0690	45.5440
 1.0700	45.5430
 1.0710	45.5410
 1.0720	45.5380
 1.0730	45.5290
 1.0740	45.5310
 1.0750	45.5420
 1.0760	45.5440
 1.0770	45.5470
 1.0780	45.5460
 1.0790	45.5330
 1.0800	45.5300
 1.0810	45.5360
 1.0820	45.5350
 1.0830	45.5330
 1.0840	45.5300
 1.0850	45.5270
 1.0860	45.5160
 1.0870	45.5090
 1.0880	45.5010
 1.0890	45.4960
 1.0900	45.4910
 1.0910	45.4860
 1.0920	45.4870
 1.0930	45.4810
 1.0940	45.4700
 1.0950	45.4620
 1.0960	45.4550
 1.0970	45.4450
 1.0980	45.4340
 1.0990	45.4240
 1.1000	45.4120
 1.1010	45.4010
 1.1020	45.3920
 1.1030	45.3850
 1.1040	45.3750
 1.1050	45.3610
 1.1060	45.3480
 1.1070	45.3320
 1.1080	45.3210
 1.1090	45.3140
 1.1100	45.3010
 1.1110	45.2900
 1.1120	45.2750
 1.1130	45.2530
 1.1140	45.2360
 1.1150	45.2210
 1.1160	45.2030
 1.1170	45.1870
 1.1180	45.1660
 1.1190	45.1390
 1.1200	45.1110
 1.1210	45.0850
 1.1220	45.0550
 1.1230	45.0310
 1.1240	45.0060
 1.1250	44.9730
 1.1260	44.9390
 1.1270	44.8980
 1.1280	44.8500
 1.1290	44.8010
 1.1300	44.7510
 1.1310	44.6960
 1.1320	44.6380
 1.1330	44.5750
 1.1340	44.5100
 1.1350	44.4370
 1.1360	44.3580
 1.1370	44.2740
 1.1380	44.1860
 1.1390	44.0980
 1.1400	44.0060
 1.1410	43.9120
 1.1420	43.8170
 1.1430	43.7180
 1.1440	43.6190
 1.1450	43.5170
 1.1460	43.4200
 1.1470	43.3220
 1.1480	43.2300
 1.1490	43.1450
 1.1500	43.0610
 1.1510	42.9750
 1.1520	42.8960
 1.1530	42.8210
 1.1540	42.7500
 1.1550	42.6810
 1.1560	42.6210
 1.1570	42.5670
 1.1580	42.5150
 1.1590	42.4720
 1.1600	42.4360
 1.1610	42.4020
 1.1620	42.3730
 1.1630	42.3500
 1.1640	42.3300
 1.1650	42.3120
 1.1660	42.3010
 1.1670	42.2880
 1.1680	42.2760
 1.1690	42.2660
 1.1700	42.2570
 1.1710	42.2500
 1.1720	42.2480
 1.1730	42.2430
 1.1740	42.2380
 1.1750	42.2310
 1.1760	42.2230
 1.1770	42.2150
 1.1780	42.2050
 1.1790	42.1990
 1.1800	42.1930
 1.1810	42.1860
 1.1820	42.1770
 1.1830	42.1670
 1.1840	42.1550
 1.1850	42.1440
 1.1860	42.1360
 1.1870	42.1270
 1.1880	42.1200
 1.1890	42.1130
 1.1900	42.1060
 1.1910	42.1000
 1.1920	42.0960
 1.1930	42.0950
 1.1940	42.0940
 1.1950	42.0930
 1.1960	42.0940
 1.1970	42.0960
 1.1980	42.0950
 1.1990	42.0980
 1.2000	42.1000
 1.2010	42.1030
 1.2020	42.1110
 1.2030	42.1200
 1.2040	42.1270
 1.2050	42.1340
 1.2060	42.1420
 1.2070	42.1520
 1.2080	42.1640
 1.2090	42.1800
 1.2100	42.1980
 1.2110	42.2150
 1.2120	42.2320
 1.2130	42.2500
 1.2140	42.2670
 1.2150	42.2850
 1.2160	42.3040
 1.2170	42.3240
 1.2180	42.3450
 1.2190	42.3660
 1.2200	42.3850
 1.2210	42.4040
 1.2220	42.4200
 1.2230	42.4360
 1.2240	42.4580
 1.2250	42.4800
 1.2260	42.5000
 1.2270	42.5230
 1.2280	42.5420
 1.2290	42.5580
 1.2300	42.5740
 1.2310	42.5930
 1.2320	42.6110
 1.2330	42.6300
 1.2340	42.6480
 1.2350	42.6660
 1.2360	42.6820
 1.2370	42.6950
 1.2380	42.7080
 1.2390	42.7230
 1.2400	42.7360
 1.2410	42.7510
 1.2420	42.7670
 1.2430	42.7820
 1.2440	42.7980
 1.2450	42.8110
 1.2460	42.8230
 1.2470	42.8320
 1.2480	42.8400
 1.2490	42.8490
 1.2500	42.8570
 1.2510	42.8650
 1.2520	42.8730
 1.2530	42.8810
 1.2540	42.8880
 1.2550	42.8930
 1.2560	42.8980
 1.2570	42.9040
 1.2580	42.9080
 1.2590	42.9100
 1.2600	42.9120
 1.2610	42.9140
 1.2620	42.9160
 1.2630	42.9160
 1.2640	42.9200
 1.2650	42.9230
 1.2660	42.9220
 1.2670	42.9230
 1.2680	42.9220
 1.2690	42.9170
 1.2700	42.9130
 1.2710	42.9100
 1.2720	42.9020
 1.2730	42.8960
 1.2740	42.8880
 1.2750	42.8770
 1.2760	42.8700
 1.2770	42.8600
 1.2780	42.8490
 1.2790	42.8390
 1.2800	42.8260
 1.2810	42.8140
 1.2820	42.8020
 1.2830	42.7900
 1.2840	42.7760
 1.2850	42.7620
 1.2860	42.7490
 1.2870	42.7350
 1.2880	42.7210
 1.2890	42.7050
 1.2900	42.6880
 1.2910	42.6710
 1.2920	42.6510
 1.2930	42.6310
 1.2940	42.6090
 1.2950	42.5830
 1.2960	42.5560
 1.2970	42.5300
 1.2980	42.5030
 1.2990	42.4770
 1.3000	42.4500
 1.3010	42.4210
 1.3020	42.3920
 1.3030	42.3610
 1.3040	42.3250
 1.3050	42.2850
 1.3060	42.2410
 1.3070	42.1950
 1.3080	42.1450
 1.3090	42.0980
 1.3100	42.0500
 1.3110	41.9970
 1.3120	41.9430
 1.3130	41.8850
 1.3140	41.8220
 1.3150	41.7540
 1.3160	41.6850
 1.3170	41.6130
 1.3180	41.5400
 1.3190	41.4650
 1.3200	41.3870
 1.3210	41.3080
 1.3220	41.2250
 1.3230	41.1400
 1.3240	41.0520
 1.3250	40.9610
 1.3260	40.8670
 1.3270	40.7690
 1.3280	40.6700
 1.3290	40.5700
 1.3300	40.4680
 1.3310	40.3650
 1.3320	40.2590
 1.3330	40.1510
 1.3340	40.0420
 1.3350	39.9300
 1.3360	39.8160
 1.3370	39.7010
 1.3380	39.5870
 1.3390	39.4720
 1.3400	39.3580
 1.3410	39.2440
 1.3420	39.1300
 1.3430	39.0170
 1.3440	38.9030
 1.3450	38.7900
 1.3460	38.6770
 1.3470	38.5660
 1.3480	38.4550
 1.3490	38.3480
 1.3500	38.2440
 1.3510	38.1380
 1.3520	38.0340
 1.3530	37.9290
 1.3540	37.8200
 1.3550	37.7150
 1.3560	37.6100
 1.3570	37.5020
 1.3580	37.3950
 1.3590	37.2840
 1.3600	37.1670
 1.3610	37.0480
 1.3620	36.9270
 1.3630	36.8020
 1.3640	36.6700
 1.3650	36.5360
 1.3660	36.3970
 1.3670	36.2480
 1.3680	36.0960
 1.3690	35.9320
 1.3700	35.7540
 1.3710	35.5680
 1.3720	35.3710
 1.3730	35.1610
 1.3740	34.9430
 1.3750	34.7100
 1.3760	34.4590
 1.3770	34.1910
 1.3780	33.8990
 1.3790	33.5900
 1.3800	33.2630
 1.3810	32.9090
 1.3820	32.5370
 1.3830	32.1450
 1.3840	31.7360
 1.3850	31.3080
 1.3860	30.8640
 1.3870	30.4000
 1.3880	29.9290
 1.3890	29.4420
 1.3900	28.9460
 1.3910	28.4480
 1.3920	27.9410
 1.3930	27.4250
 1.3940	26.9080
 1.3950	26.3820
 1.3960	25.8610
 1.3970	25.3450
 1.3980	24.8350
 1.3990	24.3400
 1.4000	23.8550
 1.4010	23.3770
 1.4020	22.9180
 1.4030	22.4710
 1.4040	22.0420
 1.4050	21.6340
 1.4060	21.2430
 1.4070	20.8730
 1.4080	20.5240
 1.4090	20.1930
 1.4100	19.8830
 1.4110	19.5900
 1.4120	19.3190
 1.4130	19.0670
 1.4140	18.8350
 1.4150	18.6230
 1.4160	18.4280
 1.4170	18.2470
 1.4180	18.0830
 1.4190	17.9330
 1.4200	17.7960
 1.4210	17.6710
 1.4220	17.5590
 1.4230	17.4590
 1.4240	17.3680
 1.4250	17.2870
 1.4260	17.2150
 1.4270	17.1520
 1.4280	17.0990
 1.4290	17.0520
 1.4300	17.0140
 1.4310	16.9800
 1.4320	16.9520
 1.4330	16.9290
 1.4340	16.9110
 1.4350	16.8980
 1.4360	16.8900
 1.4370	16.8870
 1.4380	16.8860
 1.4390	16.8890
 1.4400	16.8940
 1.4410	16.9010
 1.4420	16.9120
 1.4430	16.9240
 1.4440	16.9380
 1.4450	16.9530
 1.4460	16.9700
 1.4470	16.9880
 1.4480	17.0070
 1.4490	17.0270
 1.4500	17.0490
 1.4510	17.0720
 1.4520	17.0940
 1.4530	17.1180
 1.4540	17.1440
 1.4550	17.1700
 1.4560	17.1990
 1.4570	17.2310
 1.4580	17.2650
 1.4590	17.3020
 1.4600	17.3430
 1.4610	17.3890
 1.4620	17.4380
 1.4630	17.4900
 1.4640	17.5470
 1.4650	17.6080
 1.4660	17.6730
 1.4670	17.7440
 1.4680	17.8190
 1.4690	17.8990
 1.4700	17.9850
 1.4710	18.0740
 1.4720	18.1660
 1.4730	18.2610
 1.4740	18.3590
 1.4750	18.4610
 1.4760	18.5670
 1.4770	18.6740
 1.4780	18.7820
 1.4790	18.8940
 1.4800	19.0040
 1.4810	19.1160
 1.4820	19.2310
 1.4830	19.3450
 1.4840	19.4600
 1.4850	19.5770
 1.4860	19.6910
 1.4870	19.8080
 1.4880	19.9250
 1.4890	20.0410
 1.4900	20.1580
 1.4910	20.2770
 1.4920	20.3940
 1.4930	20.5100
 1.4940	20.6270
 1.4950	20.7460
 1.4960	20.8640
 1.4970	20.9820
 1.4980	21.0990
 1.4990	21.2150
 1.5000	21.3320
 1.5010	21.4520
 1.5020	21.5690
 1.5030	21.6860
 1.5040	21.8020
 1.5050	21.9150
 1.5060	22.0300
 1.5070	22.1440
 1.5080	22.2570
 1.5090	22.3710
 1.5100	22.4820
 1.5110	22.5930
 1.5120	22.7050
 1.5130	22.8140
 1.5140	22.9220
 1.5150	23.0290
 1.5160	23.1320
 1.5170	23.2350
 1.5180	23.3380
 1.5190	23.4380
 1.5200	23.5380
 1.5210	23.6370
 1.5220	23.7350
 1.5230	23.8350
 1.5240	23.9340
 1.5250	24.0330
 1.5260	24.1310
 1.5270	24.2260
 1.5280	24.3200
 1.5290	24.4130
 1.5300	24.5030
 1.5310	24.5930
 1.5320	24.6810
 1.5330	24.7680
 1.5340	24.8540
 1.5350	24.9380
 1.5360	25.0230
 1.5370	25.1080
 1.5380	25.1930
 1.5390	25.2770
 1.5400	25.3600
 1.5410	25.4400
 1.5420	25.5200
 1.5430	25.5970
 1.5440	25.6750
 1.5450	25.7520
 1.5460	25.8280
 1.5470	25.9040
 1.5480	25.9800
 1.5490	26.0540
 1.5500	26.1270
 1.5510	26.1990
 1.5520	26.2710
 1.5530	26.3390
 1.5540	26.4090
 1.5550	26.4790
 1.5560	26.5460
 1.5570	26.6170
 1.5580	26.6840
 1.5590	26.7490
 1.5600	26.8150
 1.5610	26.8790
 1.5620	26.9420
 1.5630	27.0050
 1.5640	27.0660
 1.5650	27.1260
 1.5660	27.1850
 1.5670	27.2450
 1.5680	27.3040
 1.5690	27.3610
 1.5700	27.4200
 1.5710	27.4750
 1.5720	27.5310
 1.5730	27.5900
 1.5740	27.6470
 1.5750	27.7050
 1.5760	27.7640
 1.5770	27.8220
 1.5780	27.8780
 1.5790	27.9350
 1.5800	27.9910
 1.5810	28.0460
 1.5820	28.1000
 1.5830	28.1530
 1.5840	28.2050
 1.5850	28.2570
 1.5860	28.3110
 1.5870	28.3640
 1.5880	28.4180
 1.5890	28.4710
 1.5900	28.5230
 1.5910	28.5740
 1.5920	28.6250
 1.5930	28.6760
 1.5940	28.7280
 1.5950	28.7800
 1.5960	28.8300
 1.5970	28.8790
 1.5980	28.9290
 1.5990	28.9770
 1.6000	29.0260
 1.6010	29.0740
 1.6020	29.1190
 1.6030	29.1640
 1.6040	29.2090
 1.6050	29.2550
 1.6060	29.3010
 1.6070	29.3460
 1.6080	29.3900
 1.6090	29.4300
 1.6100	29.4710
 1.6110	29.5140
 1.6120	29.5560
 1.6130	29.5990
 1.6140	29.6370
 1.6150	29.6710
 1.6160	29.7050
 1.6170	29.7350
 1.6180	29.7680
 1.6190	29.8040
 1.6200	29.8380
 1.6210	29.8730
 1.6220	29.9080
 1.6230	29.9400
 1.6240	29.9720
 1.6250	30.0050
 1.6260	30.0370
 1.6270	30.0690
 1.6280	30.1010
 1.6290	30.1290
 1.6300	30.1550
 1.6310	30.1810
 1.6320	30.2050
 1.6330	30.2280
 1.6340	30.2520
 1.6350	30.2740
 1.6360	30.2960
 1.6370	30.3170
 1.6380	30.3380
 1.6390	30.3550
 1.6400	30.3700
 1.6410	30.3830
 1.6420	30.3930
 1.6430	30.4020
 1.6440	30.4090
 1.6450	30.4140
 1.6460	30.4160
 1.6470	30.4180
 1.6480	30.4180
 1.6490	30.4190
 1.6500	30.4200
 1.6510	30.4190
 1.6520	30.4160
 1.6530	30.4100
 1.6540	30.4000
 1.6550	30.3870
 1.6560	30.3710
 1.6570	30.3540
 1.6580	30.3390
 1.6590	30.3260
 1.6600	30.3130
 1.6610	30.3000
 1.6620	30.2880
 1.6630	30.2770
 1.6640	30.2680
 1.6650	30.2610
 1.6660	30.2540
 1.6670	30.2450
 1.6680	30.2330
 1.6690	30.2200
 1.6700	30.2090
 1.6710	30.1970
 1.6720	30.1830
 1.6730	30.1690
 1.6740	30.1530
 1.6750	30.1320
 1.6760	30.1110
 1.6770	30.0890
 1.6780	30.0630
 1.6790	30.0390
 1.6800	30.0150
 1.6810	29.9880
 1.6820	29.9560
 1.6830	29.9220
 1.6840	29.8850
 1.6850	29.8410
 1.6860	29.8000
 1.6870	29.7580
 1.6880	29.7140
 1.6890	29.6720
 1.6900	29.6290
 1.6910	29.5850
 1.6920	29.5400
 1.6930	29.4940
 1.6940	29.4490
 1.6950	29.4020
 1.6960	29.3580
 1.6970	29.3190
 1.6980	29.2740
 1.6990	29.2290
 1.7000	29.1830
 1.7010	29.1350
 1.7020	29.0890
 1.7030	29.0470
 1.7040	29.0020
 1.7050	28.9560
 1.7060	28.9070
 1.7070	28.8560
 1.7080	28.8030
 1.7090	28.7460
 1.7100	28.6940
 1.7110	28.6420
 1.7120	28.5940
 1.7130	28.5480
 1.7140	28.5020
 1.7150	28.4550
 1.7160	28.4080
 1.7170	28.3630
 1.7180	28.3220
 1.7190	28.2820
 1.7200	28.2450
 1.7210	28.2080
 1.7220	28.1690
 1.7230	28.1300
 1.7240	28.0890
 1.7250	28.0510
 1.7260	28.0120
 1.7270	27.9760
 1.7280	27.9470
 1.7290	27.9160
 1.7300	27.8870
 1.7310	27.8600
 1.7320	27.8340
 1.7330	27.8080
 1.7340	27.7850
 1.7350	27.7600
 1.7360	27.7330
 1.7370	27.7050
 1.7380	27.6750
 1.7390	27.6430
 1.7400	27.6080
 1.7410	27.5710
 1.7420	27.5320
 1.7430	27.4910
 1.7440	27.4470
 1.7450	27.4020
 1.7460	27.3550
 1.7470	27.3080
 1.7480	27.2610
 1.7490	27.2120
 1.7500	27.1600
 1.7510	27.1110
 1.7520	27.0620
 1.7530	27.0130
 1.7540	26.9680
 1.7550	26.9180
 1.7560	26.8670
 1.7570	26.8160
 1.7580	26.7660
 1.7590	26.7160
 1.7600	26.6660
 1.7610	26.6190
 1.7620	26.5750
 1.7630	26.5360
 1.7640	26.4960
 1.7650	26.4560
 1.7660	26.4200
 1.7670	26.3850
 1.7680	26.3530
 1.7690	26.3280
 1.7700	26.2990
 1.7710	26.2700
 1.7720	26.2400
 1.7730	26.2070
 1.7740	26.1760
 1.7750	26.1430
 1.7760	26.1150
 1.7770	26.0900
 1.7780	26.0650
 1.7790	26.0430
 1.7800	26.0210
 1.7810	25.9960
 1.7820	25.9750
 1.7830	25.9580
 1.7840	25.9400
 1.7850	25.9240
 1.7860	25.9080
 1.7870	25.8920
 1.7880	25.8760
 1.7890	25.8660
 1.7900	25.8530
 1.7910	25.8440
 1.7920	25.8390
 1.7930	25.8350
 1.7940	25.8330
 1.7950	25.8320
 1.7960	25.8310
 1.7970	25.8300
 1.7980	25.8310
 1.7990	25.8300
 1.8000	25.8290
 1.8010	25.8280
 1.8020	25.8250
 1.8030	25.8260
 1.8040	25.8280
 1.8050	25.8310
 1.8060	25.8360
 1.8070	25.8410
 1.8080	25.8440
 1.8090	25.8480
 1.8100	25.8540
 1.8110	25.8580
 1.8120	25.8650
 1.8130	25.8700
 1.8140	25.8720
 1.8150	25.8730
 1.8160	25.8730
 1.8170	25.8710
 1.8180	25.8690
 1.8190	25.8700
 1.8200	25.8690
 1.8210	25.8670
 1.8220	25.8660
 1.8230	25.8650
 1.8240	25.8610
 1.8250	25.8580
 1.8260	25.8510
 1.8270	25.8390
 1.8280	25.8280
 1.8290	25.8180
 1.8300	25.8860
 1.8310	26.0460
 1.8320	26.1050
 1.8330	26.0810
 1.8340	26.0550
 1.8350	26.0260
 1.8360	25.9910
 1.8370	25.9560
 1.8380	25.9140
 1.8390	25.8720
 1.8400	25.8320
 1.8410	25.7820
 1.8420	25.7270
 1.8430	25.6660
 1.8440	25.5950
 1.8450	25.5110
 1.8460	25.4290
 1.8470	25.3360
 1.8480	25.2330
 1.8490	25.1310
 1.8500	25.0180
 1.8510	24.8970
 1.8520	24.7660
 1.8530	24.6320
 1.8540	24.4810
 1.8550	24.3160
 1.8560	24.1420
 1.8570	23.9510
 1.8580	23.7470
 1.8590	23.5310
 1.8600	23.3020
 1.8610	23.0590
 1.8620	22.8010
 1.8630	22.5310
 1.8640	22.2470
 1.8650	21.9430
 1.8660	21.6240
 1.8670	21.2880
 1.8680	20.9350
 1.8690	20.5610
 1.8700	20.1720
 1.8710	19.7670
 1.8720	19.3470
 1.8730	18.9100
 1.8740	18.4660
 1.8750	18.0130
 1.8760	17.5470
 1.8770	17.0780
 1.8780	16.6030
 1.8790	16.1210
 1.8800	15.6440
 1.8810	15.1690
 1.8820	14.6890
 1.8830	14.2130
 1.8840	13.7480
 1.8850	13.2820
 1.8860	12.8270
 1.8870	12.3850
 1.8880	11.9500
 1.8890	11.5330
 1.8900	11.1380
 1.8910	10.7600
 1.8920	10.3980
 1.8930	10.0610
 1.8940	 9.7460
 1.8950	 9.4480
 1.8960	 9.1710
 1.8970	 8.9160
 1.8980	 8.6830
 1.8990	 8.4680
 1.9000	 8.2700
 1.9010	 8.0970
 1.9020	 7.9330
 1.9030	 7.7820
 1.9040	 7.6490
 1.9050	 7.5310
 1.9060	 7.4260
 1.9070	 7.3360
 1.9080	 7.2540
 1.9090	 7.1820
 1.9100	 7.1230
 1.9110	 7.0690
 1.9120	 7.0270
 1.9130	 6.9870
 1.9140	 6.9530
 1.9150	 6.9210
 1.9160	 6.8940
 1.9170	 6.8720
 1.9180	 6.8570
 1.9190	 6.8470
 1.9200	 6.8390
 1.9210	 6.8350
 1.9220	 6.8320
 1.9230	 6.8290
 1.9240	 6.8300
 1.9250	 6.8330
 1.9260	 6.8370
 1.9270	 6.8440
 1.9280	 6.8500
 1.9290	 6.8560
 1.9300	 6.8660
 1.9310	 6.8810
 1.9320	 6.8990
 1.9330	 6.9160
 1.9340	 6.9360
 1.9350	 6.9560
 1.9360	 6.9760
 1.9370	 6.9980
 1.9380	 7.0240
 1.9390	 7.0520
 1.9400	 7.0800
 1.9410	 7.1070
 1.9420	 7.1380
 1.9430	 7.1670
 1.9440	 7.1980
 1.9450	 7.2320
 1.9460	 7.2650
 1.9470	 7.2980
 1.9480	 7.3330
 1.9490	 7.3700
 1.9500	 7.4080
 1.9510	 7.4450
 1.9520	 7.4830
 1.9530	 7.5200
 1.9540	 7.5570
 1.9550	 7.5970
 1.9560	 7.6400
 1.9570	 7.6840
 1.9580	 7.7310
 1.9590	 7.7770
 1.9600	 7.8240
 1.9610	 7.8710
 1.9620	 7.9190
 1.9630	 7.9680
 1.9640	 8.0180
 1.9650	 8.0680
 1.9660	 8.1200
 1.9670	 8.1730
 1.9680	 8.2260
 1.9690	 8.2780
 1.9700	 8.3340
 1.9710	 8.3920
 1.9720	 8.4490
 1.9730	 8.5080
 1.9740	 8.5680
 1.9750	 8.6250
 1.9760	 8.6860
 1.9770	 8.7490
 1.9780	 8.8130
 1.9790	 8.8760
 1.9800	 8.9400
 1.9810	 9.0030
 1.9820	 9.0620
 1.9830	 9.1250
 1.9840	 9.1900
 1.9850	 9.2550
 1.9860	 9.3220
 1.9870	 9.3890
 1.9880	 9.4560
 1.9890	 9.5220
 1.9900	 9.5880
 1.9910	 9.6560
 1.9920	 9.7240
 1.9930	 9.7910
 1.9940	 9.8590
 1.9950	 9.9300
 1.9960	 9.9970
 1.9970	10.0620
 1.9980	10.1290
 1.9990	10.1970
 2.0000	10.2610
 2.0010	10.3270
 2.0020	10.3940
 2.0030	10.4570
 2.0040	10.5230
 2.0050	10.5900
 2.0060	10.6590
 2.0070	10.7260
 2.0080	10.7960
 2.0090	10.8600
 2.0100	10.9230
 2.0110	10.9840
 2.0120	11.0400
 2.0130	11.1010
 2.0140	11.1610
 2.0150	11.2190
 2.0160	11.2790
 2.0170	11.3350
 2.0180	11.3920
 2.0190	11.4470
 2.0200	11.5020
 2.0210	11.5590
 2.0220	11.6110
 2.0230	11.6580
 2.0240	11.7070
 2.0250	11.7540
 2.0260	11.8000
 2.0270	11.8480
 2.0280	11.8950
 2.0290	11.9390
 2.0300	11.9800
 2.0310	12.0210
 2.0320	12.0610
 2.0330	12.0990
 2.0340	12.1360
 2.0350	12.1730
 2.0360	12.2070
 2.0370	12.2420
 2.0380	12.2790
 2.0390	12.3130
 2.0400	12.3440
 2.0410	12.3750
 2.0420	12.4030
 2.0430	12.4310
 2.0440	12.4610
 2.0450	12.4950
 2.0460	12.5250
 2.0470	12.5540
 2.0480	12.5820
 2.0490	12.6040
 2.0500	12.6290
 2.0510	12.6530
 2.0520	12.6780
 2.0530	12.7060
 2.0540	12.7310
 2.0550	12.7510
 2.0560	12.7760
 2.0570	12.7980
 2.0580	12.8200
 2.0590	12.8440
 2.0600	12.8680
 2.0610	12.8950
 2.0620	12.9230
 2.0630	12.9510
 2.0640	12.9830
 2.0650	13.0110
 2.0660	13.0350
 2.0670	13.0600
 2.0680	13.0830
 2.0690	13.1080
 2.0700	13.1340
 2.0710	13.1610
 2.0720	13.1880
 2.0730	13.2170
 2.0740	13.2450
 2.0750	13.2730
 2.0760	13.3000
 2.0770	13.3270
 2.0780	13.3540
 2.0790	13.3830
 2.0800	13.4100
 2.0810	13.4370
 2.0820	13.4620
 2.0830	13.4840
 2.0840	13.5080
 2.0850	13.5340
 2.0860	13.5590
 2.0870	13.5830
 2.0880	13.6090
 2.0890	13.6300
 2.0900	13.6460
 2.0910	13.6670
 2.0920	13.6860
 2.0930	13.7080
 2.0940	13.7360
 2.0950	13.7590
 2.0960	13.7820
 2.0970	13.8040
 2.0980	13.8200
 2.0990	13.8430
 2.1000	13.8700
 2.1010	13.8930
 2.1020	13.9210
 2.1030	13.9460
 2.1040	13.9670
 2.1050	13.9880
 2.1060	14.0100
 2.1070	14.0340
 2.1080	14.0570
 2.1090	14.0820
 2.1100	14.1050
 2.1110	14.1280
 2.1120	14.1520
 2.1130	14.1740
 2.1140	14.1980
 2.1150	14.2230
 2.1160	14.2450
 2.1170	14.2660
 2.1180	14.2880
 2.1190	14.3100
 2.1200	14.3310
 2.1210	14.3530
 2.1220	14.3750
 2.1230	14.3930
 2.1240	14.4080
 2.1250	14.4240
 2.1260	14.4370
 2.1270	14.4530
 2.1280	14.4710
 2.1290	14.4880
 2.1300	14.5040
 2.1310	14.5200
 2.1320	14.5360
 2.1330	14.5520
 2.1340	14.5690
 2.1350	14.5850
 2.1360	14.5980
 2.1370	14.6130
 2.1380	14.6270
 2.1390	14.6430
 2.1400	14.6590
 2.1410	14.6770
 2.1420	14.6940
 2.1430	14.7110
 2.1440	14.7310
 2.1450	14.7530
 2.1460	14.7720
 2.1470	14.7910
 2.1480	14.8070
 2.1490	14.8150
 2.1500	14.8290
 2.1510	14.8460
 2.1520	14.8590
 2.1530	14.8720
 2.1540	14.8850
 2.1550	14.8930
 2.1560	14.9050
 2.1570	14.9220
 2.1580	14.9360
 2.1590	14.9490
 2.1600	14.9610
 2.1610	14.9740
 2.1620	14.9920
 2.1630	15.0080
 2.1640	15.0270
 2.1650	15.0430
 2.1660	15.0560
 2.1670	15.0730
 2.1680	15.0910
 2.1690	15.1070
 2.1700	15.1260
 2.1710	15.1390
 2.1720	15.1460
 2.1730	15.1590
 2.1740	15.1710
 2.1750	15.1850
 2.1760	15.2040
 2.1770	15.2200
 2.1780	15.2320
 2.1790	15.2480
 2.1800	15.2680
 2.1810	15.2880
 2.1820	15.3100
 2.1830	15.3370
 2.1840	15.3590
 2.1850	15.3790
 2.1860	15.3990
 2.1870	15.4150
 2.1880	15.4370
 2.1890	15.4630
 2.1900	15.4860
 2.1910	15.5130
 2.1920	15.5340
 2.1930	15.5490
 2.1940	15.5680
 2.1950	15.5880
 2.1960	15.6090
 2.1970	15.6320
 2.1980	15.6520
 2.1990	15.6700
 2.2000	15.6890
 2.2010	15.7060
 2.2020	15.7250
 2.2030	15.7510
 2.2040	15.7710
 2.2050	15.7880
 2.2060	15.8070
 2.2070	15.8230
 2.2080	15.8340
 2.2090	15.8470
 2.2100	15.8590
 2.2110	15.8730
 2.2120	15.8880
 2.2130	15.9020
 2.2140	15.9200
 2.2150	15.9330
 2.2160	15.9430
 2.2170	15.9520
 2.2180	15.9580
 2.2190	15.9650
 2.2200	15.9720
 2.2210	15.9740
 2.2220	15.9760
 2.2230	15.9740
 2.2240	15.9680
 2.2250	15.9590
 2.2260	15.9430
 2.2270	15.9290
 2.2280	15.9140
 2.2290	15.8950
 2.2300	15.8730
 2.2310	15.8530
 2.2320	15.8280
 2.2330	15.7960
 2.2340	15.7660
 2.2350	15.7360
 2.2360	15.6980
 2.2370	15.6530
 2.2380	15.6100
 2.2390	15.5640
 2.2400	15.5170
 2.2410	15.4710
 2.2420	15.4220
 2.2430	15.3720
 2.2440	15.3190
 2.2450	15.2650
 2.2460	15.2110
 2.2470	15.1530
 2.2480	15.0950
 2.2490	15.0400
 2.2500	14.9810
 2.2510	14.9190
 2.2520	14.8570
 2.2530	14.7890
 2.2540	14.7270
 2.2550	14.6670
 2.2560	14.6070
 2.2570	14.5460
 2.2580	14.4910
 2.2590	14.4400
 2.2600	14.3890
 2.2610	14.3450
 2.2620	14.2990
 2.2630	14.2470
 2.2640	14.1950
 2.2650	14.1490
 2.2660	14.1020
 2.2670	14.0530
 2.2680	14.0050
 2.2690	13.9610
 2.2700	13.9140
 2.2710	13.8720
 2.2720	13.8390
 2.2730	13.8000
 2.2740	13.7600
 2.2750	13.7190
 2.2760	13.6760
 2.2770	13.6390
 2.2780	13.6080
 2.2790	13.5720
 2.2800	13.5420
 2.2810	13.5060
 2.2820	13.4620
 2.2830	13.4220
 2.2840	13.3810
 2.2850	13.3430
 2.2860	13.3070
 2.2870	13.2720
 2.2880	13.2410
 2.2890	13.2060
 2.2900	13.1730
 2.2910	13.1350
 2.2920	13.0920
 2.2930	13.0470
 2.2940	12.9910
 2.2950	12.9420
 2.2960	12.8880
 2.2970	12.8430
 2.2980	12.8080
 2.2990	12.7720
 2.3000	12.7370
 2.3010	12.7010
 2.3020	12.6530
 2.3030	12.6080
 2.3040	12.5610
 2.3050	12.5160
 2.3060	12.4790
 2.3070	12.4500
 2.3080	12.4230
 2.3090	12.3990
 2.3100	12.3800
 2.3110	12.3570
 2.3120	12.3370
 2.3130	12.3220
 2.3140	12.3050
 2.3150	12.2870
 2.3160	12.2710
 2.3170	12.2580
 2.3180	12.2410
 2.3190	12.2180
 2.3200	12.2060
 2.3210	12.2050
 2.3220	12.1880
 2.3230	12.1770
 2.3240	12.1530
 2.3250	12.1050
 2.3260	12.0750
 2.3270	12.0530
 2.3280	12.0240
 2.3290	11.9950
 2.3300	11.9660
 2.3310	11.9300
 2.3320	11.9020
 2.3330	11.8840
 2.3340	11.8560
 2.3350	11.8250
 2.3360	11.7920
 2.3370	11.7500
 2.3380	11.7130
 2.3390	11.6780
 2.3400	11.6420
 2.3410	11.6070
 2.3420	11.5720
 2.3430	11.5350
 2.3440	11.5020
 2.3450	11.4730
 2.3460	11.4420
 2.3470	11.4100
 2.3480	11.3830
 2.3490	11.3570
 2.3500	11.3350
 2.3510	11.3240
 2.3520	11.3080
 2.3530	11.2950
 2.3540	11.2740
 2.3550	11.2460
 2.3560	11.2250
 2.3570	11.2060
 2.3580	11.1830
 2.3590	11.1630
 2.3600	11.1450
 2.3610	11.1240
 2.3620	11.1050
 2.3630	11.0860
 2.3640	11.0620
 2.3650	11.0320
 2.3660	11.0100
 2.3670	10.9950
 2.3680	10.9690
 2.3690	10.9520
 2.3700	10.9280
 2.3710	10.8920
 2.3720	10.8690
 2.3730	10.8370
 2.3740	10.8040
 2.3750	10.7840
 2.3760	10.7570
 2.3770	10.7320
 2.3780	10.7070
 2.3790	10.6810
 2.3800	10.6490
 2.3810	10.6070
 2.3820	10.5620
 2.3830	10.5120
 2.3840	10.4630
 2.3850	10.4280
 2.3860	10.4010
 2.3870	10.3690
 2.3880	10.3320
 2.3890	10.3020
 2.3900	10.2700
 2.3910	10.2380
 2.3920	10.2190
 2.3930	10.1910
 2.3940	10.1500
 2.3950	10.1100
 2.3960	10.0620
 2.3970	10.0150
 2.3980	 9.9750
 2.3990	 9.9390
 2.4000	 9.9000
 2.4010	 9.8490
 2.4020	 9.8060
 2.4030	 9.7760
 2.4040	 9.7400
 2.4050	 9.7070
 2.4060	 9.6750
 2.4070	 9.6310
 2.4080	 9.5870
 2.4090	 9.5460
 2.4100	 9.5050
 2.4110	 9.4580
 2.4120	 9.4160
 2.4130	 9.3860
 2.4140	 9.3450
 2.4150	 9.2920
 2.4160	 9.2400
 2.4170	 9.1930
 2.4180	 9.1460
 2.4190	 9.1020
 2.4200	 9.0600
 2.4210	 9.0220
 2.4220	 8.9830
 2.4230	 8.9430
 2.4240	 8.9210
 2.4250	 8.8800
 2.4260	 8.8290
 2.4270	 8.7760
 2.4280	 8.7130
 2.4290	 8.6610
 2.4300	 8.6100
 2.4310	 8.5940
 2.4320	 8.5750
 2.4330	 8.5280
 2.4340	 8.4920
 2.4350	 8.4340
 2.4360	 8.3660
 2.4370	 8.3100
 2.4380	 8.2730
 2.4390	 8.2310
 2.4400	 8.2020
 2.4410	 8.1970
 2.4420	 8.1620
 2.4430	 8.1230
 2.4440	 8.0920
 2.4450	 8.0430
 2.4460	 7.9960
 2.4470	 7.9580
 2.4480	 7.9180
 2.4490	 7.8670
 2.4500	 7.8240
 2.4510	 7.7850
 2.4520	 7.7230
 2.4530	 7.6940
 2.4540	 7.6820
 2.4550	 7.6410
 2.4560	 7.6350
 2.4570	 7.6210
 2.4580	 7.5620
 2.4590	 7.5280
 2.4600	 7.4830
 2.4610	 7.4130
 2.4620	 7.3700
 2.4630	 7.3300
 2.4640	 7.3090
 2.4650	 7.3080
 2.4660	 7.2880
 2.4670	 7.2620
 2.4680	 7.2290
 2.4690	 7.2090
 2.4700	 7.1940
 2.4710	 7.1850
 2.4720	 7.1770
 2.4730	 7.1820
 2.4740	 7.1440
 2.4750	 7.0800
 2.4760	 7.0400
 2.4770	 6.9690
 2.4780	 6.9420
 2.4790	 6.9770
 2.4800	 6.9670
 2.4810	 6.9370
 2.4820	 6.8930
 2.4830	 6.8420
 2.4840	 6.8040
 2.4850	 6.8070
 2.4860	 6.7720
 2.4870	 6.7500
 2.4880	 6.7850
 2.4890	 6.7880
 2.4900	 6.7940
 2.4910	 6.8060
 2.4920	 6.7590
 2.4930	 6.7020
 2.4940	 6.6690
 2.4950	 6.6590
 2.4960	 6.6680
 2.4970	 6.6520
 2.4980	 6.6430
 2.4990	 6.6090
 2.5000	 6.5610
