Name: Baccharis pilularis 2
Type: vegetation
Class: Shrub
Genus: Baccharis
Species: pilularis
Sample No.: VH003
Owner: UCSB
Wavelength Range: VSWIR
Origin: 34.418; -119.8455; WGS84
Collection Date: 4/1/2013
Description: Samples were collected as part of the HyspIRI Airborne Campaign. 48 individual plants were sampled in three times in 2013 - spring  summer  and fall. The name of the sample includes a 1  2  or 3 which references a different individual of the species. Samples were taken to JPL and processed within 48 hours of collection. The same leaves were processed in the Nicolet and then measured using the ASD.
Measurement: Bidirectional reflectance
First Column: X
Second Column: Y
X Units: Wavelength (micrometers)
Y Units: Reflectance (percentage)
First X Value: 0.35
Last X Value: 2.5
Number of X Values: 2151
Additional Information: vegetation.shrub.baccharis.pilularis.vswir.vh003.ucsb.asd.ancillary.txt

 0.3500	 3.6330
 0.3510	 3.6930
 0.3520	 3.8210
 0.3530	 3.9030
 0.3540	 3.8770
 0.3550	 3.7860
 0.3560	 3.7820
 0.3570	 3.7950
 0.3580	 3.6780
 0.3590	 3.7130
 0.3600	 3.7530
 0.3610	 3.7070
 0.3620	 3.6030
 0.3630	 3.6480
 0.3640	 3.7560
 0.3650	 3.7880
 0.3660	 3.7190
 0.3670	 3.6810
 0.3680	 3.7060
 0.3690	 3.7440
 0.3700	 3.7470
 0.3710	 3.7360
 0.3720	 3.7300
 0.3730	 3.7070
 0.3740	 3.7430
 0.3750	 3.7680
 0.3760	 3.7060
 0.3770	 3.7120
 0.3780	 3.7570
 0.3790	 3.7960
 0.3800	 3.7770
 0.3810	 3.7290
 0.3820	 3.6990
 0.3830	 3.7130
 0.3840	 3.7500
 0.3850	 3.7830
 0.3860	 3.7880
 0.3870	 3.7700
 0.3880	 3.8470
 0.3890	 3.8610
 0.3900	 3.8090
 0.3910	 3.8650
 0.3920	 3.8670
 0.3930	 3.8520
 0.3940	 3.8600
 0.3950	 3.8270
 0.3960	 3.8580
 0.3970	 3.9220
 0.3980	 3.9370
 0.3990	 3.9320
 0.4000	 3.9400
 0.4010	 3.9810
 0.4020	 4.0590
 0.4030	 4.1000
 0.4040	 4.1040
 0.4050	 4.1000
 0.4060	 4.1500
 0.4070	 4.1820
 0.4080	 4.1910
 0.4090	 4.2170
 0.4100	 4.2350
 0.4110	 4.2640
 0.4120	 4.3120
 0.4130	 4.3510
 0.4140	 4.3810
 0.4150	 4.4050
 0.4160	 4.4340
 0.4170	 4.4950
 0.4180	 4.5360
 0.4190	 4.5580
 0.4200	 4.6140
 0.4210	 4.6600
 0.4220	 4.6840
 0.4230	 4.6950
 0.4240	 4.7390
 0.4250	 4.7870
 0.4260	 4.8210
 0.4270	 4.8330
 0.4280	 4.8700
 0.4290	 4.9030
 0.4300	 4.9220
 0.4310	 4.9510
 0.4320	 4.9790
 0.4330	 5.0090
 0.4340	 5.0400
 0.4350	 5.0510
 0.4360	 5.0660
 0.4370	 5.0880
 0.4380	 5.1030
 0.4390	 5.1210
 0.4400	 5.1450
 0.4410	 5.1670
 0.4420	 5.1710
 0.4430	 5.1810
 0.4440	 5.2000
 0.4450	 5.2220
 0.4460	 5.2470
 0.4470	 5.2690
 0.4480	 5.2870
 0.4490	 5.3110
 0.4500	 5.3290
 0.4510	 5.3410
 0.4520	 5.3510
 0.4530	 5.3730
 0.4540	 5.3950
 0.4550	 5.4140
 0.4560	 5.4300
 0.4570	 5.4410
 0.4580	 5.4470
 0.4590	 5.4500
 0.4600	 5.4630
 0.4610	 5.4700
 0.4620	 5.4720
 0.4630	 5.4770
 0.4640	 5.4930
 0.4650	 5.5040
 0.4660	 5.5020
 0.4670	 5.4930
 0.4680	 5.4980
 0.4690	 5.5000
 0.4700	 5.4890
 0.4710	 5.4960
 0.4720	 5.5160
 0.4730	 5.5310
 0.4740	 5.5190
 0.4750	 5.5190
 0.4760	 5.5290
 0.4770	 5.5380
 0.4780	 5.5310
 0.4790	 5.5350
 0.4800	 5.5470
 0.4810	 5.5550
 0.4820	 5.5600
 0.4830	 5.5670
 0.4840	 5.5770
 0.4850	 5.5840
 0.4860	 5.5950
 0.4870	 5.6030
 0.4880	 5.6090
 0.4890	 5.6270
 0.4900	 5.6480
 0.4910	 5.6690
 0.4920	 5.6870
 0.4930	 5.7100
 0.4940	 5.7390
 0.4950	 5.7690
 0.4960	 5.7920
 0.4970	 5.8210
 0.4980	 5.8550
 0.4990	 5.8880
 0.5000	 5.9260
 0.5010	 5.9740
 0.5020	 6.0280
 0.5030	 6.0750
 0.5040	 6.1370
 0.5050	 6.2090
 0.5060	 6.2840
 0.5070	 6.3650
 0.5080	 6.4450
 0.5090	 6.5330
 0.5100	 6.6410
 0.5110	 6.7540
 0.5120	 6.8710
 0.5130	 6.9960
 0.5140	 7.1290
 0.5150	 7.2810
 0.5160	 7.4430
 0.5170	 7.6040
 0.5180	 7.7800
 0.5190	 7.9610
 0.5200	 8.1460
 0.5210	 8.3380
 0.5220	 8.5300
 0.5230	 8.7220
 0.5240	 8.9130
 0.5250	 9.1070
 0.5260	 9.2920
 0.5270	 9.4660
 0.5280	 9.6330
 0.5290	 9.7850
 0.5300	 9.9300
 0.5310	10.0680
 0.5320	10.1940
 0.5330	10.3110
 0.5340	10.4180
 0.5350	10.5120
 0.5360	10.5970
 0.5370	10.6780
 0.5380	10.7540
 0.5390	10.8170
 0.5400	10.8840
 0.5410	10.9520
 0.5420	11.0190
 0.5430	11.0760
 0.5440	11.1280
 0.5450	11.1760
 0.5460	11.2170
 0.5470	11.2430
 0.5480	11.2630
 0.5490	11.2830
 0.5500	11.3030
 0.5510	11.3220
 0.5520	11.3310
 0.5530	11.3250
 0.5540	11.3070
 0.5550	11.2770
 0.5560	11.2370
 0.5570	11.1860
 0.5580	11.1240
 0.5590	11.0550
 0.5600	10.9810
 0.5610	10.8950
 0.5620	10.8040
 0.5630	10.7070
 0.5640	10.6030
 0.5650	10.4910
 0.5660	10.3790
 0.5670	10.2700
 0.5680	10.1510
 0.5690	10.0310
 0.5700	 9.9110
 0.5710	 9.7940
 0.5720	 9.6780
 0.5730	 9.5630
 0.5740	 9.4530
 0.5750	 9.3470
 0.5760	 9.2530
 0.5770	 9.1620
 0.5780	 9.0710
 0.5790	 8.9890
 0.5800	 8.9110
 0.5810	 8.8370
 0.5820	 8.7710
 0.5830	 8.7130
 0.5840	 8.6580
 0.5850	 8.6050
 0.5860	 8.5580
 0.5870	 8.5100
 0.5880	 8.4640
 0.5890	 8.4230
 0.5900	 8.3870
 0.5910	 8.3580
 0.5920	 8.3330
 0.5930	 8.3050
 0.5940	 8.2890
 0.5950	 8.2760
 0.5960	 8.2600
 0.5970	 8.2450
 0.5980	 8.2300
 0.5990	 8.2110
 0.6000	 8.1850
 0.6010	 8.1560
 0.6020	 8.1240
 0.6030	 8.0900
 0.6040	 8.0560
 0.6050	 8.0120
 0.6060	 7.9610
 0.6070	 7.9080
 0.6080	 7.8540
 0.6090	 7.8000
 0.6100	 7.7480
 0.6110	 7.6990
 0.6120	 7.6390
 0.6130	 7.5710
 0.6140	 7.5000
 0.6150	 7.4400
 0.6160	 7.3820
 0.6170	 7.3280
 0.6180	 7.2830
 0.6190	 7.2400
 0.6200	 7.2030
 0.6210	 7.1710
 0.6220	 7.1430
 0.6230	 7.1180
 0.6240	 7.0970
 0.6250	 7.0780
 0.6260	 7.0590
 0.6270	 7.0460
 0.6280	 7.0380
 0.6290	 7.0310
 0.6300	 7.0260
 0.6310	 7.0190
 0.6320	 7.0090
 0.6330	 6.9980
 0.6340	 6.9810
 0.6350	 6.9600
 0.6360	 6.9370
 0.6370	 6.9030
 0.6380	 6.8700
 0.6390	 6.8340
 0.6400	 6.7920
 0.6410	 6.7450
 0.6420	 6.6980
 0.6430	 6.6520
 0.6440	 6.6030
 0.6450	 6.5500
 0.6460	 6.4980
 0.6470	 6.4540
 0.6480	 6.4110
 0.6490	 6.3700
 0.6500	 6.3310
 0.6510	 6.2980
 0.6520	 6.2630
 0.6530	 6.2260
 0.6540	 6.1910
 0.6550	 6.1560
 0.6560	 6.1170
 0.6570	 6.0750
 0.6580	 6.0340
 0.6590	 5.9890
 0.6600	 5.9430
 0.6610	 5.8970
 0.6620	 5.8500
 0.6630	 5.8080
 0.6640	 5.7690
 0.6650	 5.7350
 0.6660	 5.7090
 0.6670	 5.6860
 0.6680	 5.6670
 0.6690	 5.6560
 0.6700	 5.6470
 0.6710	 5.6420
 0.6720	 5.6430
 0.6730	 5.6490
 0.6740	 5.6590
 0.6750	 5.6720
 0.6760	 5.6880
 0.6770	 5.7060
 0.6780	 5.7280
 0.6790	 5.7560
 0.6800	 5.7910
 0.6810	 5.8320
 0.6820	 5.8760
 0.6830	 5.9240
 0.6840	 5.9910
 0.6850	 6.0680
 0.6860	 6.1530
 0.6870	 6.2530
 0.6880	 6.3810
 0.6890	 6.5330
 0.6900	 6.7100
 0.6910	 6.9250
 0.6920	 7.1830
 0.6930	 7.4840
 0.6940	 7.8310
 0.6950	 8.2310
 0.6960	 8.6760
 0.6970	 9.1690
 0.6980	 9.7110
 0.6990	10.3000
 0.7000	10.9300
 0.7010	11.5970
 0.7020	12.2940
 0.7030	13.0210
 0.7040	13.7730
 0.7050	14.5420
 0.7060	15.3230
 0.7070	16.1160
 0.7080	16.9220
 0.7090	17.7440
 0.7100	18.5640
 0.7110	19.3920
 0.7120	20.2290
 0.7130	21.0690
 0.7140	21.9050
 0.7150	22.7430
 0.7160	23.5840
 0.7170	24.4140
 0.7180	25.2360
 0.7190	26.0520
 0.7200	26.8650
 0.7210	27.6600
 0.7220	28.4420
 0.7230	29.2090
 0.7240	29.9570
 0.7250	30.6760
 0.7260	31.3740
 0.7270	32.0550
 0.7280	32.7130
 0.7290	33.3350
 0.7300	33.9200
 0.7310	34.4770
 0.7320	35.0110
 0.7330	35.5250
 0.7340	36.0170
 0.7350	36.4760
 0.7360	36.9060
 0.7370	37.3110
 0.7380	37.6930
 0.7390	38.0500
 0.7400	38.3830
 0.7410	38.6910
 0.7420	38.9790
 0.7430	39.2540
 0.7440	39.5050
 0.7450	39.7300
 0.7460	39.9400
 0.7470	40.1390
 0.7480	40.3240
 0.7490	40.4900
 0.7500	40.6380
 0.7510	40.7810
 0.7520	40.9120
 0.7530	41.0230
 0.7540	41.1250
 0.7550	41.2230
 0.7560	41.3140
 0.7570	41.3880
 0.7580	41.4630
 0.7590	41.5310
 0.7600	41.5890
 0.7610	41.6480
 0.7620	41.7020
 0.7630	41.7520
 0.7640	41.8000
 0.7650	41.8430
 0.7660	41.8860
 0.7670	41.9210
 0.7680	41.9410
 0.7690	41.9670
 0.7700	41.9940
 0.7710	42.0190
 0.7720	42.0530
 0.7730	42.0770
 0.7740	42.0970
 0.7750	42.1200
 0.7760	42.1400
 0.7770	42.1620
 0.7780	42.1890
 0.7790	42.2170
 0.7800	42.2280
 0.7810	42.2440
 0.7820	42.2690
 0.7830	42.2890
 0.7840	42.3110
 0.7850	42.3290
 0.7860	42.3410
 0.7870	42.3550
 0.7880	42.3720
 0.7890	42.3910
 0.7900	42.4100
 0.7910	42.4330
 0.7920	42.4540
 0.7930	42.4680
 0.7940	42.4710
 0.7950	42.4830
 0.7960	42.4950
 0.7970	42.5060
 0.7980	42.5250
 0.7990	42.5380
 0.8000	42.5440
 0.8010	42.5460
 0.8020	42.5580
 0.8030	42.5690
 0.8040	42.5730
 0.8050	42.5720
 0.8060	42.5840
 0.8070	42.5880
 0.8080	42.5850
 0.8090	42.6010
 0.8100	42.5970
 0.8110	42.5980
 0.8120	42.6080
 0.8130	42.5960
 0.8140	42.5970
 0.8150	42.6000
 0.8160	42.5920
 0.8170	42.5900
 0.8180	42.5920
 0.8190	42.5940
 0.8200	42.5890
 0.8210	42.5800
 0.8220	42.5780
 0.8230	42.5820
 0.8240	42.5730
 0.8250	42.5500
 0.8260	42.5350
 0.8270	42.5350
 0.8280	42.5290
 0.8290	42.5260
 0.8300	42.5190
 0.8310	42.5030
 0.8320	42.4800
 0.8330	42.4730
 0.8340	42.4780
 0.8350	42.4830
 0.8360	42.4680
 0.8370	42.4590
 0.8380	42.4570
 0.8390	42.4450
 0.8400	42.4490
 0.8410	42.4550
 0.8420	42.4550
 0.8430	42.4480
 0.8440	42.4460
 0.8450	42.4500
 0.8460	42.4540
 0.8470	42.4510
 0.8480	42.4440
 0.8490	42.4410
 0.8500	42.4480
 0.8510	42.4600
 0.8520	42.4610
 0.8530	42.4530
 0.8540	42.4490
 0.8550	42.4550
 0.8560	42.4610
 0.8570	42.4600
 0.8580	42.4530
 0.8590	42.4640
 0.8600	42.4740
 0.8610	42.4760
 0.8620	42.4910
 0.8630	42.5000
 0.8640	42.5090
 0.8650	42.5190
 0.8660	42.5180
 0.8670	42.5220
 0.8680	42.5310
 0.8690	42.5430
 0.8700	42.5540
 0.8710	42.5570
 0.8720	42.5570
 0.8730	42.5640
 0.8740	42.5710
 0.8750	42.5790
 0.8760	42.5930
 0.8770	42.6100
 0.8780	42.6290
 0.8790	42.6410
 0.8800	42.6470
 0.8810	42.6590
 0.8820	42.6790
 0.8830	42.6910
 0.8840	42.6880
 0.8850	42.6980
 0.8860	42.7220
 0.8870	42.7390
 0.8880	42.7400
 0.8890	42.7590
 0.8900	42.7790
 0.8910	42.7940
 0.8920	42.8040
 0.8930	42.8090
 0.8940	42.8300
 0.8950	42.8570
 0.8960	42.8620
 0.8970	42.8750
 0.8980	42.8870
 0.8990	42.8950
 0.9000	42.9050
 0.9010	42.9230
 0.9020	42.9380
 0.9030	42.9460
 0.9040	42.9600
 0.9050	42.9700
 0.9060	42.9840
 0.9070	43.0030
 0.9080	43.0120
 0.9090	43.0290
 0.9100	43.0470
 0.9110	43.0580
 0.9120	43.0720
 0.9130	43.0900
 0.9140	43.1030
 0.9150	43.1060
 0.9160	43.1190
 0.9170	43.1250
 0.9180	43.1230
 0.9190	43.1190
 0.9200	43.1280
 0.9210	43.1290
 0.9220	43.1260
 0.9230	43.1330
 0.9240	43.1400
 0.9250	43.1360
 0.9260	43.1220
 0.9270	43.1040
 0.9280	43.1030
 0.9290	43.1030
 0.9300	43.0920
 0.9310	43.0750
 0.9320	43.0720
 0.9330	43.0560
 0.9340	43.0260
 0.9350	43.0100
 0.9360	42.9870
 0.9370	42.9640
 0.9380	42.9460
 0.9390	42.9220
 0.9400	42.9020
 0.9410	42.8670
 0.9420	42.8140
 0.9430	42.7830
 0.9440	42.7370
 0.9450	42.6960
 0.9460	42.6670
 0.9470	42.6130
 0.9480	42.5590
 0.9490	42.5000
 0.9500	42.4310
 0.9510	42.3630
 0.9520	42.3050
 0.9530	42.2410
 0.9540	42.1600
 0.9550	42.0910
 0.9560	42.0150
 0.9570	41.9380
 0.9580	41.8720
 0.9590	41.8340
 0.9600	41.7730
 0.9610	41.7120
 0.9620	41.6850
 0.9630	41.6590
 0.9640	41.6460
 0.9650	41.6370
 0.9660	41.6180
 0.9670	41.5940
 0.9680	41.5840
 0.9690	41.5720
 0.9700	41.5450
 0.9710	41.5470
 0.9720	41.5330
 0.9730	41.5150
 0.9740	41.5240
 0.9750	41.5280
 0.9760	41.5420
 0.9770	41.5530
 0.9780	41.5490
 0.9790	41.5450
 0.9800	41.5670
 0.9810	41.5950
 0.9820	41.5990
 0.9830	41.6160
 0.9840	41.6420
 0.9850	41.6530
 0.9860	41.6370
 0.9870	41.6510
 0.9880	41.6930
 0.9890	41.7340
 0.9900	41.7460
 0.9910	41.7690
 0.9920	41.8500
 0.9930	41.9310
 0.9940	42.0130
 0.9950	42.0940
 0.9960	42.1750
 0.9970	42.2560
 0.9980	42.3370
 0.9990	42.4180
 1.0000	42.5000
 1.0010	42.5810
 1.0020	42.6620
 1.0030	42.7430
 1.0040	42.8240
 1.0050	42.9050
 1.0060	42.9870
 1.0070	43.0680
 1.0080	43.1490
 1.0090	43.2300
 1.0100	43.2300
 1.0110	43.2570
 1.0120	43.2840
 1.0130	43.3110
 1.0140	43.3370
 1.0150	43.3620
 1.0160	43.3860
 1.0170	43.4150
 1.0180	43.4370
 1.0190	43.4580
 1.0200	43.4870
 1.0210	43.5120
 1.0220	43.5340
 1.0230	43.5580
 1.0240	43.5820
 1.0250	43.6060
 1.0260	43.6320
 1.0270	43.6590
 1.0280	43.6870
 1.0290	43.7130
 1.0300	43.7400
 1.0310	43.7640
 1.0320	43.7860
 1.0330	43.8080
 1.0340	43.8310
 1.0350	43.8490
 1.0360	43.8710
 1.0370	43.8950
 1.0380	43.9160
 1.0390	43.9400
 1.0400	43.9580
 1.0410	43.9750
 1.0420	43.9910
 1.0430	44.0020
 1.0440	44.0190
 1.0450	44.0410
 1.0460	44.0570
 1.0470	44.0720
 1.0480	44.0870
 1.0490	44.0950
 1.0500	44.1060
 1.0510	44.1200
 1.0520	44.1320
 1.0530	44.1420
 1.0540	44.1500
 1.0550	44.1600
 1.0560	44.1670
 1.0570	44.1760
 1.0580	44.1870
 1.0590	44.1950
 1.0600	44.2020
 1.0610	44.2070
 1.0620	44.2080
 1.0630	44.2120
 1.0640	44.2170
 1.0650	44.2190
 1.0660	44.2230
 1.0670	44.2250
 1.0680	44.2240
 1.0690	44.2190
 1.0700	44.2180
 1.0710	44.2180
 1.0720	44.2170
 1.0730	44.2170
 1.0740	44.2140
 1.0750	44.2060
 1.0760	44.2020
 1.0770	44.2010
 1.0780	44.1940
 1.0790	44.1860
 1.0800	44.1790
 1.0810	44.1680
 1.0820	44.1600
 1.0830	44.1570
 1.0840	44.1500
 1.0850	44.1420
 1.0860	44.1310
 1.0870	44.1210
 1.0880	44.1100
 1.0890	44.0980
 1.0900	44.0860
 1.0910	44.0760
 1.0920	44.0670
 1.0930	44.0560
 1.0940	44.0480
 1.0950	44.0330
 1.0960	44.0100
 1.0970	43.9920
 1.0980	43.9700
 1.0990	43.9520
 1.1000	43.9410
 1.1010	43.9250
 1.1020	43.9040
 1.1030	43.8870
 1.1040	43.8730
 1.1050	43.8540
 1.1060	43.8380
 1.1070	43.8280
 1.1080	43.8100
 1.1090	43.7880
 1.1100	43.7680
 1.1110	43.7450
 1.1120	43.7250
 1.1130	43.7070
 1.1140	43.6860
 1.1150	43.6660
 1.1160	43.6420
 1.1170	43.6170
 1.1180	43.5870
 1.1190	43.5550
 1.1200	43.5200
 1.1210	43.4840
 1.1220	43.4420
 1.1230	43.3960
 1.1240	43.3460
 1.1250	43.2870
 1.1260	43.2210
 1.1270	43.1490
 1.1280	43.0750
 1.1290	42.9880
 1.1300	42.8970
 1.1310	42.7930
 1.1320	42.6760
 1.1330	42.5510
 1.1340	42.4170
 1.1350	42.2750
 1.1360	42.1230
 1.1370	41.9630
 1.1380	41.7970
 1.1390	41.6250
 1.1400	41.4480
 1.1410	41.2690
 1.1420	41.0910
 1.1430	40.9120
 1.1440	40.7370
 1.1450	40.5610
 1.1460	40.3930
 1.1470	40.2240
 1.1480	40.0670
 1.1490	39.9140
 1.1500	39.7740
 1.1510	39.6420
 1.1520	39.5220
 1.1530	39.4160
 1.1540	39.3170
 1.1550	39.2280
 1.1560	39.1500
 1.1570	39.0810
 1.1580	39.0210
 1.1590	38.9690
 1.1600	38.9230
 1.1610	38.8820
 1.1620	38.8470
 1.1630	38.8160
 1.1640	38.7920
 1.1650	38.7690
 1.1660	38.7520
 1.1670	38.7350
 1.1680	38.7200
 1.1690	38.7050
 1.1700	38.6930
 1.1710	38.6810
 1.1720	38.6710
 1.1730	38.6600
 1.1740	38.6510
 1.1750	38.6380
 1.1760	38.6230
 1.1770	38.6090
 1.1780	38.5940
 1.1790	38.5780
 1.1800	38.5660
 1.1810	38.5540
 1.1820	38.5390
 1.1830	38.5240
 1.1840	38.5070
 1.1850	38.4900
 1.1860	38.4770
 1.1870	38.4660
 1.1880	38.4550
 1.1890	38.4460
 1.1900	38.4380
 1.1910	38.4300
 1.1920	38.4250
 1.1930	38.4230
 1.1940	38.4230
 1.1950	38.4260
 1.1960	38.4310
 1.1970	38.4370
 1.1980	38.4440
 1.1990	38.4530
 1.2000	38.4650
 1.2010	38.4820
 1.2020	38.4990
 1.2030	38.5160
 1.2040	38.5340
 1.2050	38.5510
 1.2060	38.5700
 1.2070	38.5910
 1.2080	38.6130
 1.2090	38.6380
 1.2100	38.6640
 1.2110	38.6890
 1.2120	38.7160
 1.2130	38.7420
 1.2140	38.7670
 1.2150	38.7960
 1.2160	38.8250
 1.2170	38.8560
 1.2180	38.8900
 1.2190	38.9240
 1.2200	38.9550
 1.2210	38.9880
 1.2220	39.0210
 1.2230	39.0520
 1.2240	39.0820
 1.2250	39.1130
 1.2260	39.1410
 1.2270	39.1700
 1.2280	39.2000
 1.2290	39.2290
 1.2300	39.2540
 1.2310	39.2780
 1.2320	39.3020
 1.2330	39.3260
 1.2340	39.3490
 1.2350	39.3740
 1.2360	39.3970
 1.2370	39.4200
 1.2380	39.4420
 1.2390	39.4640
 1.2400	39.4840
 1.2410	39.5030
 1.2420	39.5220
 1.2430	39.5410
 1.2440	39.5590
 1.2450	39.5760
 1.2460	39.5940
 1.2470	39.6110
 1.2480	39.6270
 1.2490	39.6440
 1.2500	39.6570
 1.2510	39.6680
 1.2520	39.6800
 1.2530	39.6880
 1.2540	39.6970
 1.2550	39.7060
 1.2560	39.7150
 1.2570	39.7250
 1.2580	39.7330
 1.2590	39.7380
 1.2600	39.7400
 1.2610	39.7420
 1.2620	39.7410
 1.2630	39.7410
 1.2640	39.7410
 1.2650	39.7400
 1.2660	39.7360
 1.2670	39.7290
 1.2680	39.7230
 1.2690	39.7170
 1.2700	39.7080
 1.2710	39.7000
 1.2720	39.6920
 1.2730	39.6780
 1.2740	39.6630
 1.2750	39.6490
 1.2760	39.6300
 1.2770	39.6130
 1.2780	39.5970
 1.2790	39.5750
 1.2800	39.5530
 1.2810	39.5300
 1.2820	39.5010
 1.2830	39.4740
 1.2840	39.4450
 1.2850	39.4100
 1.2860	39.3750
 1.2870	39.3370
 1.2880	39.2980
 1.2890	39.2520
 1.2900	39.2070
 1.2910	39.1580
 1.2920	39.1050
 1.2930	39.0520
 1.2940	38.9950
 1.2950	38.9340
 1.2960	38.8710
 1.2970	38.8070
 1.2980	38.7380
 1.2990	38.6640
 1.3000	38.5870
 1.3010	38.5070
 1.3020	38.4250
 1.3030	38.3440
 1.3040	38.2600
 1.3050	38.1740
 1.3060	38.0840
 1.3070	37.9900
 1.3080	37.8930
 1.3090	37.7910
 1.3100	37.6860
 1.3110	37.5770
 1.3120	37.4650
 1.3130	37.3530
 1.3140	37.2370
 1.3150	37.1190
 1.3160	36.9970
 1.3170	36.8750
 1.3180	36.7460
 1.3190	36.6130
 1.3200	36.4800
 1.3210	36.3420
 1.3220	36.2030
 1.3230	36.0640
 1.3240	35.9180
 1.3250	35.7720
 1.3260	35.6240
 1.3270	35.4720
 1.3280	35.3210
 1.3290	35.1670
 1.3300	35.0100
 1.3310	34.8550
 1.3320	34.6970
 1.3330	34.5400
 1.3340	34.3820
 1.3350	34.2230
 1.3360	34.0650
 1.3370	33.9060
 1.3380	33.7490
 1.3390	33.5920
 1.3400	33.4350
 1.3410	33.2820
 1.3420	33.1290
 1.3430	32.9760
 1.3440	32.8270
 1.3450	32.6790
 1.3460	32.5320
 1.3470	32.3860
 1.3480	32.2420
 1.3490	32.0990
 1.3500	31.9580
 1.3510	31.8190
 1.3520	31.6800
 1.3530	31.5400
 1.3540	31.4010
 1.3550	31.2590
 1.3560	31.1160
 1.3570	30.9740
 1.3580	30.8300
 1.3590	30.6830
 1.3600	30.5330
 1.3610	30.3780
 1.3620	30.2150
 1.3630	30.0470
 1.3640	29.8730
 1.3650	29.6900
 1.3660	29.4990
 1.3670	29.2960
 1.3680	29.0810
 1.3690	28.8540
 1.3700	28.6120
 1.3710	28.3550
 1.3720	28.0830
 1.3730	27.7930
 1.3740	27.4860
 1.3750	27.1610
 1.3760	26.8130
 1.3770	26.4450
 1.3780	26.0520
 1.3790	25.6390
 1.3800	25.2070
 1.3810	24.7540
 1.3820	24.2890
 1.3830	23.8070
 1.3840	23.3130
 1.3850	22.8030
 1.3860	22.2870
 1.3870	21.7550
 1.3880	21.2290
 1.3890	20.6960
 1.3900	20.1620
 1.3910	19.6390
 1.3920	19.1170
 1.3930	18.6000
 1.3940	18.0960
 1.3950	17.5980
 1.3960	17.1160
 1.3970	16.6530
 1.3980	16.2060
 1.3990	15.7840
 1.4000	15.3800
 1.4010	14.9960
 1.4020	14.6340
 1.4030	14.2910
 1.4040	13.9690
 1.4050	13.6680
 1.4060	13.3860
 1.4070	13.1270
 1.4080	12.8850
 1.4090	12.6620
 1.4100	12.4560
 1.4110	12.2660
 1.4120	12.0920
 1.4130	11.9320
 1.4140	11.7850
 1.4150	11.6520
 1.4160	11.5300
 1.4170	11.4180
 1.4180	11.3170
 1.4190	11.2250
 1.4200	11.1400
 1.4210	11.0630
 1.4220	10.9930
 1.4230	10.9300
 1.4240	10.8740
 1.4250	10.8220
 1.4260	10.7770
 1.4270	10.7350
 1.4280	10.7000
 1.4290	10.6670
 1.4300	10.6380
 1.4310	10.6130
 1.4320	10.5920
 1.4330	10.5740
 1.4340	10.5600
 1.4350	10.5470
 1.4360	10.5360
 1.4370	10.5280
 1.4380	10.5230
 1.4390	10.5190
 1.4400	10.5180
 1.4410	10.5200
 1.4420	10.5220
 1.4430	10.5260
 1.4440	10.5320
 1.4450	10.5390
 1.4460	10.5470
 1.4470	10.5560
 1.4480	10.5660
 1.4490	10.5770
 1.4500	10.5900
 1.4510	10.6030
 1.4520	10.6190
 1.4530	10.6350
 1.4540	10.6530
 1.4550	10.6730
 1.4560	10.6940
 1.4570	10.7180
 1.4580	10.7430
 1.4590	10.7720
 1.4600	10.8040
 1.4610	10.8380
 1.4620	10.8760
 1.4630	10.9180
 1.4640	10.9620
 1.4650	11.0120
 1.4660	11.0650
 1.4670	11.1200
 1.4680	11.1800
 1.4690	11.2430
 1.4700	11.3090
 1.4710	11.3800
 1.4720	11.4520
 1.4730	11.5270
 1.4740	11.6060
 1.4750	11.6860
 1.4760	11.7690
 1.4770	11.8540
 1.4780	11.9410
 1.4790	12.0300
 1.4800	12.1190
 1.4810	12.2100
 1.4820	12.3030
 1.4830	12.3960
 1.4840	12.4920
 1.4850	12.5900
 1.4860	12.6880
 1.4870	12.7880
 1.4880	12.8880
 1.4890	12.9890
 1.4900	13.0900
 1.4910	13.1930
 1.4920	13.2960
 1.4930	13.3990
 1.4940	13.5040
 1.4950	13.6100
 1.4960	13.7170
 1.4970	13.8250
 1.4980	13.9340
 1.4990	14.0430
 1.5000	14.1530
 1.5010	14.2660
 1.5020	14.3770
 1.5030	14.4890
 1.5040	14.6010
 1.5050	14.7110
 1.5060	14.8230
 1.5070	14.9360
 1.5080	15.0490
 1.5090	15.1630
 1.5100	15.2770
 1.5110	15.3900
 1.5120	15.5040
 1.5130	15.6170
 1.5140	15.7300
 1.5150	15.8440
 1.5160	15.9570
 1.5170	16.0700
 1.5180	16.1830
 1.5190	16.2950
 1.5200	16.4070
 1.5210	16.5190
 1.5220	16.6300
 1.5230	16.7430
 1.5240	16.8550
 1.5250	16.9670
 1.5260	17.0790
 1.5270	17.1900
 1.5280	17.3020
 1.5290	17.4110
 1.5300	17.5210
 1.5310	17.6300
 1.5320	17.7370
 1.5330	17.8450
 1.5340	17.9530
 1.5350	18.0600
 1.5360	18.1670
 1.5370	18.2720
 1.5380	18.3770
 1.5390	18.4830
 1.5400	18.5860
 1.5410	18.6900
 1.5420	18.7920
 1.5430	18.8940
 1.5440	18.9960
 1.5450	19.0980
 1.5460	19.1980
 1.5470	19.2980
 1.5480	19.3980
 1.5490	19.4970
 1.5500	19.5950
 1.5510	19.6930
 1.5520	19.7900
 1.5530	19.8850
 1.5540	19.9800
 1.5550	20.0760
 1.5560	20.1710
 1.5570	20.2660
 1.5580	20.3580
 1.5590	20.4480
 1.5600	20.5380
 1.5610	20.6270
 1.5620	20.7140
 1.5630	20.8020
 1.5640	20.8890
 1.5650	20.9760
 1.5660	21.0610
 1.5670	21.1460
 1.5680	21.2320
 1.5690	21.3130
 1.5700	21.3960
 1.5710	21.4770
 1.5720	21.5570
 1.5730	21.6390
 1.5740	21.7190
 1.5750	21.7980
 1.5760	21.8760
 1.5770	21.9520
 1.5780	22.0270
 1.5790	22.1030
 1.5800	22.1790
 1.5810	22.2530
 1.5820	22.3280
 1.5830	22.4000
 1.5840	22.4720
 1.5850	22.5430
 1.5860	22.6140
 1.5870	22.6840
 1.5880	22.7530
 1.5890	22.8220
 1.5900	22.8890
 1.5910	22.9560
 1.5920	23.0230
 1.5930	23.0880
 1.5940	23.1520
 1.5950	23.2160
 1.5960	23.2800
 1.5970	23.3430
 1.5980	23.4070
 1.5990	23.4690
 1.6000	23.5300
 1.6010	23.5910
 1.6020	23.6490
 1.6030	23.7080
 1.6040	23.7670
 1.6050	23.8230
 1.6060	23.8800
 1.6070	23.9350
 1.6080	23.9880
 1.6090	24.0400
 1.6100	24.0900
 1.6110	24.1390
 1.6120	24.1880
 1.6130	24.2370
 1.6140	24.2850
 1.6150	24.3320
 1.6160	24.3780
 1.6170	24.4210
 1.6180	24.4630
 1.6190	24.5060
 1.6200	24.5480
 1.6210	24.5900
 1.6220	24.6310
 1.6230	24.6690
 1.6240	24.7070
 1.6250	24.7430
 1.6260	24.7780
 1.6270	24.8140
 1.6280	24.8480
 1.6290	24.8820
 1.6300	24.9160
 1.6310	24.9510
 1.6320	24.9850
 1.6330	25.0180
 1.6340	25.0510
 1.6350	25.0860
 1.6360	25.1210
 1.6370	25.1540
 1.6380	25.1880
 1.6390	25.2190
 1.6400	25.2480
 1.6410	25.2770
 1.6420	25.3050
 1.6430	25.3320
 1.6440	25.3580
 1.6450	25.3810
 1.6460	25.4050
 1.6470	25.4260
 1.6480	25.4460
 1.6490	25.4650
 1.6500	25.4810
 1.6510	25.4940
 1.6520	25.5050
 1.6530	25.5120
 1.6540	25.5160
 1.6550	25.5190
 1.6560	25.5200
 1.6570	25.5200
 1.6580	25.5180
 1.6590	25.5140
 1.6600	25.5090
 1.6610	25.5030
 1.6620	25.4980
 1.6630	25.4910
 1.6640	25.4830
 1.6650	25.4760
 1.6660	25.4660
 1.6670	25.4540
 1.6680	25.4430
 1.6690	25.4300
 1.6700	25.4150
 1.6710	25.3980
 1.6720	25.3790
 1.6730	25.3600
 1.6740	25.3390
 1.6750	25.3140
 1.6760	25.2860
 1.6770	25.2550
 1.6780	25.2220
 1.6790	25.1870
 1.6800	25.1510
 1.6810	25.1120
 1.6820	25.0720
 1.6830	25.0300
 1.6840	24.9840
 1.6850	24.9370
 1.6860	24.8890
 1.6870	24.8400
 1.6880	24.7910
 1.6890	24.7420
 1.6900	24.6920
 1.6910	24.6440
 1.6920	24.5950
 1.6930	24.5470
 1.6940	24.5000
 1.6950	24.4550
 1.6960	24.4080
 1.6970	24.3630
 1.6980	24.3160
 1.6990	24.2680
 1.7000	24.2210
 1.7010	24.1750
 1.7020	24.1280
 1.7030	24.0820
 1.7040	24.0350
 1.7050	23.9860
 1.7060	23.9380
 1.7070	23.8890
 1.7080	23.8430
 1.7090	23.8000
 1.7100	23.7550
 1.7110	23.7110
 1.7120	23.6650
 1.7130	23.6180
 1.7140	23.5730
 1.7150	23.5280
 1.7160	23.4830
 1.7170	23.4380
 1.7180	23.3930
 1.7190	23.3490
 1.7200	23.3070
 1.7210	23.2660
 1.7220	23.2250
 1.7230	23.1830
 1.7240	23.1380
 1.7250	23.0940
 1.7260	23.0510
 1.7270	23.0090
 1.7280	22.9670
 1.7290	22.9270
 1.7300	22.8830
 1.7310	22.8400
 1.7320	22.8000
 1.7330	22.7570
 1.7340	22.7160
 1.7350	22.6740
 1.7360	22.6290
 1.7370	22.5840
 1.7380	22.5390
 1.7390	22.4900
 1.7400	22.4370
 1.7410	22.3840
 1.7420	22.3280
 1.7430	22.2710
 1.7440	22.2130
 1.7450	22.1530
 1.7460	22.0880
 1.7470	22.0250
 1.7480	21.9590
 1.7490	21.8940
 1.7500	21.8300
 1.7510	21.7640
 1.7520	21.6970
 1.7530	21.6290
 1.7540	21.5600
 1.7550	21.4910
 1.7560	21.4220
 1.7570	21.3530
 1.7580	21.2870
 1.7590	21.2240
 1.7600	21.1620
 1.7610	21.1020
 1.7620	21.0430
 1.7630	20.9840
 1.7640	20.9280
 1.7650	20.8760
 1.7660	20.8240
 1.7670	20.7770
 1.7680	20.7290
 1.7690	20.6820
 1.7700	20.6360
 1.7710	20.5910
 1.7720	20.5480
 1.7730	20.5060
 1.7740	20.4670
 1.7750	20.4320
 1.7760	20.3960
 1.7770	20.3620
 1.7780	20.3290
 1.7790	20.2940
 1.7800	20.2650
 1.7810	20.2400
 1.7820	20.2150
 1.7830	20.1910
 1.7840	20.1690
 1.7850	20.1480
 1.7860	20.1280
 1.7870	20.1110
 1.7880	20.0940
 1.7890	20.0790
 1.7900	20.0660
 1.7910	20.0540
 1.7920	20.0420
 1.7930	20.0330
 1.7940	20.0280
 1.7950	20.0230
 1.7960	20.0200
 1.7970	20.0170
 1.7980	20.0130
 1.7990	20.0100
 1.8000	20.0090
 1.8010	20.0080
 1.8020	20.0080
 1.8030	20.0090
 1.8040	20.0120
 1.8050	20.0130
 1.8060	20.0140
 1.8070	20.0160
 1.8080	20.0190
 1.8090	20.0190
 1.8100	20.0200
 1.8110	20.0180
 1.8120	20.0160
 1.8130	20.0130
 1.8140	20.0120
 1.8150	20.0120
 1.8160	20.0090
 1.8170	20.0030
 1.8180	19.9980
 1.8190	19.9860
 1.8200	19.9770
 1.8210	19.9730
 1.8220	19.9630
 1.8230	19.9530
 1.8240	19.9400
 1.8250	19.9260
 1.8260	19.9090
 1.8270	19.8860
 1.8280	19.8630
 1.8290	19.8400
 1.8300	19.8180
 1.8310	19.7950
 1.8320	19.7720
 1.8330	19.7490
 1.8340	19.7260
 1.8350	19.7260
 1.8360	19.6750
 1.8370	19.6180
 1.8380	19.5590
 1.8390	19.4940
 1.8400	19.4230
 1.8410	19.3440
 1.8420	19.2600
 1.8430	19.1690
 1.8440	19.0680
 1.8450	18.9630
 1.8460	18.8550
 1.8470	18.7390
 1.8480	18.6140
 1.8490	18.4760
 1.8500	18.3280
 1.8510	18.1700
 1.8520	18.0010
 1.8530	17.8210
 1.8540	17.6380
 1.8550	17.4420
 1.8560	17.2360
 1.8570	17.0190
 1.8580	16.7840
 1.8590	16.5420
 1.8600	16.2900
 1.8610	16.0250
 1.8620	15.7480
 1.8630	15.4630
 1.8640	15.1610
 1.8650	14.8470
 1.8660	14.5250
 1.8670	14.1880
 1.8680	13.8440
 1.8690	13.4910
 1.8700	13.1290
 1.8710	12.7560
 1.8720	12.3850
 1.8730	12.0090
 1.8740	11.6320
 1.8750	11.2600
 1.8760	10.8870
 1.8770	10.5200
 1.8780	10.1590
 1.8790	 9.8020
 1.8800	 9.4600
 1.8810	 9.1280
 1.8820	 8.8040
 1.8830	 8.4910
 1.8840	 8.1910
 1.8850	 7.8980
 1.8860	 7.6200
 1.8870	 7.3570
 1.8880	 7.1070
 1.8890	 6.8740
 1.8900	 6.6560
 1.8910	 6.4540
 1.8920	 6.2690
 1.8930	 6.0980
 1.8940	 5.9390
 1.8950	 5.7970
 1.8960	 5.6640
 1.8970	 5.5400
 1.8980	 5.4330
 1.8990	 5.3340
 1.9000	 5.2430
 1.9010	 5.1640
 1.9020	 5.0920
 1.9030	 5.0290
 1.9040	 4.9730
 1.9050	 4.9250
 1.9060	 4.8790
 1.9070	 4.8400
 1.9080	 4.8040
 1.9090	 4.7720
 1.9100	 4.7460
 1.9110	 4.7210
 1.9120	 4.6980
 1.9130	 4.6790
 1.9140	 4.6640
 1.9150	 4.6500
 1.9160	 4.6400
 1.9170	 4.6320
 1.9180	 4.6210
 1.9190	 4.6110
 1.9200	 4.6030
 1.9210	 4.5960
 1.9220	 4.5910
 1.9230	 4.5880
 1.9240	 4.5860
 1.9250	 4.5850
 1.9260	 4.5850
 1.9270	 4.5870
 1.9280	 4.5920
 1.9290	 4.5960
 1.9300	 4.6010
 1.9310	 4.6040
 1.9320	 4.6070
 1.9330	 4.6120
 1.9340	 4.6150
 1.9350	 4.6210
 1.9360	 4.6270
 1.9370	 4.6350
 1.9380	 4.6450
 1.9390	 4.6550
 1.9400	 4.6650
 1.9410	 4.6760
 1.9420	 4.6870
 1.9430	 4.6990
 1.9440	 4.7130
 1.9450	 4.7270
 1.9460	 4.7410
 1.9470	 4.7560
 1.9480	 4.7700
 1.9490	 4.7840
 1.9500	 4.8000
 1.9510	 4.8160
 1.9520	 4.8310
 1.9530	 4.8470
 1.9540	 4.8640
 1.9550	 4.8820
 1.9560	 4.9000
 1.9570	 4.9200
 1.9580	 4.9420
 1.9590	 4.9620
 1.9600	 4.9820
 1.9610	 5.0020
 1.9620	 5.0220
 1.9630	 5.0410
 1.9640	 5.0610
 1.9650	 5.0820
 1.9660	 5.1030
 1.9670	 5.1280
 1.9680	 5.1520
 1.9690	 5.1780
 1.9700	 5.2020
 1.9710	 5.2270
 1.9720	 5.2520
 1.9730	 5.2770
 1.9740	 5.3050
 1.9750	 5.3350
 1.9760	 5.3640
 1.9770	 5.3940
 1.9780	 5.4240
 1.9790	 5.4540
 1.9800	 5.4820
 1.9810	 5.5130
 1.9820	 5.5420
 1.9830	 5.5730
 1.9840	 5.6050
 1.9850	 5.6370
 1.9860	 5.6670
 1.9870	 5.7000
 1.9880	 5.7310
 1.9890	 5.7620
 1.9900	 5.7950
 1.9910	 5.8270
 1.9920	 5.8620
 1.9930	 5.9000
 1.9940	 5.9350
 1.9950	 5.9700
 1.9960	 6.0060
 1.9970	 6.0390
 1.9980	 6.0740
 1.9990	 6.1100
 2.0000	 6.1470
 2.0010	 6.1850
 2.0020	 6.2240
 2.0030	 6.2610
 2.0040	 6.2990
 2.0050	 6.3370
 2.0060	 6.3740
 2.0070	 6.4110
 2.0080	 6.4450
 2.0090	 6.4830
 2.0100	 6.5200
 2.0110	 6.5580
 2.0120	 6.5980
 2.0130	 6.6380
 2.0140	 6.6770
 2.0150	 6.7140
 2.0160	 6.7540
 2.0170	 6.7950
 2.0180	 6.8340
 2.0190	 6.8740
 2.0200	 6.9130
 2.0210	 6.9510
 2.0220	 6.9890
 2.0230	 7.0250
 2.0240	 7.0630
 2.0250	 7.1000
 2.0260	 7.1370
 2.0270	 7.1750
 2.0280	 7.2130
 2.0290	 7.2500
 2.0300	 7.2890
 2.0310	 7.3270
 2.0320	 7.3670
 2.0330	 7.4040
 2.0340	 7.4380
 2.0350	 7.4730
 2.0360	 7.5060
 2.0370	 7.5410
 2.0380	 7.5750
 2.0390	 7.6110
 2.0400	 7.6470
 2.0410	 7.6830
 2.0420	 7.7210
 2.0430	 7.7570
 2.0440	 7.7930
 2.0450	 7.8270
 2.0460	 7.8620
 2.0470	 7.8960
 2.0480	 7.9310
 2.0490	 7.9660
 2.0500	 8.0000
 2.0510	 8.0320
 2.0520	 8.0680
 2.0530	 8.1070
 2.0540	 8.1440
 2.0550	 8.1830
 2.0560	 8.2230
 2.0570	 8.2610
 2.0580	 8.2960
 2.0590	 8.3340
 2.0600	 8.3730
 2.0610	 8.4120
 2.0620	 8.4550
 2.0630	 8.4950
 2.0640	 8.5360
 2.0650	 8.5760
 2.0660	 8.6150
 2.0670	 8.6550
 2.0680	 8.6950
 2.0690	 8.7360
 2.0700	 8.7780
 2.0710	 8.8190
 2.0720	 8.8580
 2.0730	 8.8990
 2.0740	 8.9400
 2.0750	 8.9790
 2.0760	 9.0190
 2.0770	 9.0600
 2.0780	 9.1010
 2.0790	 9.1420
 2.0800	 9.1830
 2.0810	 9.2260
 2.0820	 9.2670
 2.0830	 9.3070
 2.0840	 9.3470
 2.0850	 9.3860
 2.0860	 9.4250
 2.0870	 9.4650
 2.0880	 9.5060
 2.0890	 9.5460
 2.0900	 9.5890
 2.0910	 9.6280
 2.0920	 9.6640
 2.0930	 9.7020
 2.0940	 9.7400
 2.0950	 9.7790
 2.0960	 9.8170
 2.0970	 9.8570
 2.0980	 9.8980
 2.0990	 9.9370
 2.1000	 9.9780
 2.1010	10.0160
 2.1020	10.0510
 2.1030	10.0860
 2.1040	10.1210
 2.1050	10.1550
 2.1060	10.1920
 2.1070	10.2300
 2.1080	10.2680
 2.1090	10.3080
 2.1100	10.3450
 2.1110	10.3780
 2.1120	10.4130
 2.1130	10.4470
 2.1140	10.4810
 2.1150	10.5160
 2.1160	10.5500
 2.1170	10.5850
 2.1180	10.6170
 2.1190	10.6460
 2.1200	10.6770
 2.1210	10.7100
 2.1220	10.7400
 2.1230	10.7720
 2.1240	10.8040
 2.1250	10.8360
 2.1260	10.8670
 2.1270	10.8980
 2.1280	10.9300
 2.1290	10.9600
 2.1300	10.9880
 2.1310	11.0140
 2.1320	11.0400
 2.1330	11.0640
 2.1340	11.0850
 2.1350	11.1060
 2.1360	11.1250
 2.1370	11.1450
 2.1380	11.1680
 2.1390	11.1900
 2.1400	11.2120
 2.1410	11.2360
 2.1420	11.2580
 2.1430	11.2780
 2.1440	11.2980
 2.1450	11.3180
 2.1460	11.3360
 2.1470	11.3520
 2.1480	11.3690
 2.1490	11.3850
 2.1500	11.4020
 2.1510	11.4210
 2.1520	11.4380
 2.1530	11.4510
 2.1540	11.4680
 2.1550	11.4860
 2.1560	11.5020
 2.1570	11.5210
 2.1580	11.5360
 2.1590	11.5480
 2.1600	11.5590
 2.1610	11.5700
 2.1620	11.5780
 2.1630	11.5890
 2.1640	11.6020
 2.1650	11.6130
 2.1660	11.6260
 2.1670	11.6370
 2.1680	11.6450
 2.1690	11.6570
 2.1700	11.6710
 2.1710	11.6830
 2.1720	11.6960
 2.1730	11.7090
 2.1740	11.7190
 2.1750	11.7330
 2.1760	11.7520
 2.1770	11.7650
 2.1780	11.7770
 2.1790	11.7890
 2.1800	11.7990
 2.1810	11.8110
 2.1820	11.8240
 2.1830	11.8400
 2.1840	11.8530
 2.1850	11.8650
 2.1860	11.8750
 2.1870	11.8820
 2.1880	11.8930
 2.1890	11.9030
 2.1900	11.9150
 2.1910	11.9330
 2.1920	11.9450
 2.1930	11.9540
 2.1940	11.9640
 2.1950	11.9750
 2.1960	11.9830
 2.1970	11.9910
 2.1980	11.9980
 2.1990	12.0020
 2.2000	12.0080
 2.2010	12.0150
 2.2020	12.0210
 2.2030	12.0280
 2.2040	12.0310
 2.2050	12.0320
 2.2060	12.0280
 2.2070	12.0250
 2.2080	12.0170
 2.2090	12.0110
 2.2100	12.0050
 2.2110	12.0010
 2.2120	11.9970
 2.2130	11.9940
 2.2140	11.9940
 2.2150	11.9890
 2.2160	11.9810
 2.2170	11.9740
 2.2180	11.9650
 2.2190	11.9550
 2.2200	11.9460
 2.2210	11.9350
 2.2220	11.9220
 2.2230	11.9080
 2.2240	11.8910
 2.2250	11.8750
 2.2260	11.8590
 2.2270	11.8410
 2.2280	11.8220
 2.2290	11.8000
 2.2300	11.7760
 2.2310	11.7500
 2.2320	11.7190
 2.2330	11.6860
 2.2340	11.6520
 2.2350	11.6130
 2.2360	11.5740
 2.2370	11.5320
 2.2380	11.4930
 2.2390	11.4520
 2.2400	11.4140
 2.2410	11.3820
 2.2420	11.3430
 2.2430	11.3000
 2.2440	11.2630
 2.2450	11.2280
 2.2460	11.1930
 2.2470	11.1640
 2.2480	11.1320
 2.2490	11.0980
 2.2500	11.0660
 2.2510	11.0360
 2.2520	11.0040
 2.2530	10.9750
 2.2540	10.9400
 2.2550	10.9020
 2.2560	10.8650
 2.2570	10.8250
 2.2580	10.7840
 2.2590	10.7470
 2.2600	10.7050
 2.2610	10.6590
 2.2620	10.6150
 2.2630	10.5660
 2.2640	10.5230
 2.2650	10.4810
 2.2660	10.4330
 2.2670	10.3890
 2.2680	10.3480
 2.2690	10.3050
 2.2700	10.2600
 2.2710	10.2190
 2.2720	10.1800
 2.2730	10.1400
 2.2740	10.1030
 2.2750	10.0650
 2.2760	10.0220
 2.2770	 9.9850
 2.2780	 9.9530
 2.2790	 9.9170
 2.2800	 9.8810
 2.2810	 9.8460
 2.2820	 9.8080
 2.2830	 9.7730
 2.2840	 9.7410
 2.2850	 9.7070
 2.2860	 9.6710
 2.2870	 9.6370
 2.2880	 9.6020
 2.2890	 9.5660
 2.2900	 9.5290
 2.2910	 9.4920
 2.2920	 9.4520
 2.2930	 9.4150
 2.2940	 9.3830
 2.2950	 9.3470
 2.2960	 9.3090
 2.2970	 9.2740
 2.2980	 9.2400
 2.2990	 9.2040
 2.3000	 9.1750
 2.3010	 9.1490
 2.3020	 9.1180
 2.3030	 9.0870
 2.3040	 9.0530
 2.3050	 9.0160
 2.3060	 8.9850
 2.3070	 8.9570
 2.3080	 8.9340
 2.3090	 8.9150
 2.3100	 8.8930
 2.3110	 8.8730
 2.3120	 8.8530
 2.3130	 8.8340
 2.3140	 8.8150
 2.3150	 8.7960
 2.3160	 8.7780
 2.3170	 8.7590
 2.3180	 8.7420
 2.3190	 8.7270
 2.3200	 8.7100
 2.3210	 8.6950
 2.3220	 8.6770
 2.3230	 8.6580
 2.3240	 8.6370
 2.3250	 8.6170
 2.3260	 8.5900
 2.3270	 8.5580
 2.3280	 8.5310
 2.3290	 8.5040
 2.3300	 8.4760
 2.3310	 8.4550
 2.3320	 8.4270
 2.3330	 8.3910
 2.3340	 8.3620
 2.3350	 8.3390
 2.3360	 8.3100
 2.3370	 8.2840
 2.3380	 8.2550
 2.3390	 8.2200
 2.3400	 8.1880
 2.3410	 8.1590
 2.3420	 8.1280
 2.3430	 8.0980
 2.3440	 8.0630
 2.3450	 8.0210
 2.3460	 7.9870
 2.3470	 7.9500
 2.3480	 7.9240
 2.3490	 7.9160
 2.3500	 7.8970
 2.3510	 7.8790
 2.3520	 7.8560
 2.3530	 7.8220
 2.3540	 7.7940
 2.3550	 7.7700
 2.3560	 7.7450
 2.3570	 7.7280
 2.3580	 7.7100
 2.3590	 7.6880
 2.3600	 7.6630
 2.3610	 7.6380
 2.3620	 7.6120
 2.3630	 7.5880
 2.3640	 7.5690
 2.3650	 7.5410
 2.3660	 7.5090
 2.3670	 7.4850
 2.3680	 7.4610
 2.3690	 7.4450
 2.3700	 7.4230
 2.3710	 7.3930
 2.3720	 7.3630
 2.3730	 7.3270
 2.3740	 7.3060
 2.3750	 7.2870
 2.3760	 7.2550
 2.3770	 7.2420
 2.3780	 7.2190
 2.3790	 7.1850
 2.3800	 7.1660
 2.3810	 7.1310
 2.3820	 7.0940
 2.3830	 7.0710
 2.3840	 7.0450
 2.3850	 7.0130
 2.3860	 6.9770
 2.3870	 6.9450
 2.3880	 6.9160
 2.3890	 6.8970
 2.3900	 6.8870
 2.3910	 6.8670
 2.3920	 6.8400
 2.3930	 6.8120
 2.3940	 6.7900
 2.3950	 6.7670
 2.3960	 6.7480
 2.3970	 6.7270
 2.3980	 6.6950
 2.3990	 6.6680
 2.4000	 6.6400
 2.4010	 6.6120
 2.4020	 6.5900
 2.4030	 6.5630
 2.4040	 6.5420
 2.4050	 6.5230
 2.4060	 6.5000
 2.4070	 6.4820
 2.4080	 6.4670
 2.4090	 6.4420
 2.4100	 6.4060
 2.4110	 6.3720
 2.4120	 6.3450
 2.4130	 6.3160
 2.4140	 6.2990
 2.4150	 6.2820
 2.4160	 6.2480
 2.4170	 6.2090
 2.4180	 6.1730
 2.4190	 6.1420
 2.4200	 6.1170
 2.4210	 6.0980
 2.4220	 6.0850
 2.4230	 6.0730
 2.4240	 6.0500
 2.4250	 6.0210
 2.4260	 5.9940
 2.4270	 5.9600
 2.4280	 5.9260
 2.4290	 5.9010
 2.4300	 5.8790
 2.4310	 5.8570
 2.4320	 5.8370
 2.4330	 5.8290
 2.4340	 5.8160
 2.4350	 5.7850
 2.4360	 5.7530
 2.4370	 5.7080
 2.4380	 5.6650
 2.4390	 5.6540
 2.4400	 5.6360
 2.4410	 5.6160
 2.4420	 5.6090
 2.4430	 5.5770
 2.4440	 5.5480
 2.4450	 5.5420
 2.4460	 5.5150
 2.4470	 5.4920
 2.4480	 5.4820
 2.4490	 5.4570
 2.4500	 5.4430
 2.4510	 5.4220
 2.4520	 5.3970
 2.4530	 5.3690
 2.4540	 5.3330
 2.4550	 5.3130
 2.4560	 5.3070
 2.4570	 5.3050
 2.4580	 5.2960
 2.4590	 5.2820
 2.4600	 5.2540
 2.4610	 5.2240
 2.4620	 5.2200
 2.4630	 5.2010
 2.4640	 5.1710
 2.4650	 5.1570
 2.4660	 5.1370
 2.4670	 5.1280
 2.4680	 5.1210
 2.4690	 5.0970
 2.4700	 5.0780
 2.4710	 5.0610
 2.4720	 5.0430
 2.4730	 5.0190
 2.4740	 5.0010
 2.4750	 4.9880
 2.4760	 4.9700
 2.4770	 4.9630
 2.4780	 4.9650
 2.4790	 4.9640
 2.4800	 4.9480
 2.4810	 4.9350
 2.4820	 4.9060
 2.4830	 4.8750
 2.4840	 4.8710
 2.4850	 4.8620
 2.4860	 4.8330
 2.4870	 4.8250
 2.4880	 4.8120
 2.4890	 4.7930
 2.4900	 4.8000
 2.4910	 4.8030
 2.4920	 4.8010
 2.4930	 4.8160
 2.4940	 4.8230
 2.4950	 4.8030
 2.4960	 4.7950
 2.4970	 4.7930
 2.4980	 4.7840
 2.4990	 4.7790
 2.5000	 4.7720
