Name: Arctostaphylos glandulosa 1
Type: vegetation
Class: Shrub
Genus: Arctostaphylos
Species: glandulosa
Sample No.: VH229
Owner: UCSB
Wavelength Range: VSWIR
Origin: 34.5084; -119.7682; WGS84
Collection Date: 10/13/2013
Description: Samples were collected as part of the HyspIRI Airborne Campaign. 48 individual plants were sampled in three times in 2013 - spring  summer  and fall. The name of the sample includes a 1  2  or 3 which references a different individual of the species. Samples were taken to JPL and processed within 48 hours of collection. The same leaves were processed in the Nicolet and then measured using the ASD.
Measurement: Bidirectional reflectance
First Column: X
Second Column: Y
X Units: Wavelength (micrometers)
Y Units: Reflectance (percentage)
First X Value: 0.35
Last X Value: 2.5
Number of X Values: 2151
Additional Information: vegetation.shrub.arctostaphylos.glandulosa.vswir.vh229.ucsb.asd.ancillary.txt

 0.3500	 6.7080
 0.3510	 6.6070
 0.3520	 6.4360
 0.3530	 6.4190
 0.3540	 6.6080
 0.3550	 6.6180
 0.3560	 6.5880
 0.3570	 6.5730
 0.3580	 6.5640
 0.3590	 6.4200
 0.3600	 6.3810
 0.3610	 6.5030
 0.3620	 6.5490
 0.3630	 6.3430
 0.3640	 6.1690
 0.3650	 6.2620
 0.3660	 6.2160
 0.3670	 6.2150
 0.3680	 6.2640
 0.3690	 6.2470
 0.3700	 6.2530
 0.3710	 6.2370
 0.3720	 6.1910
 0.3730	 6.2010
 0.3740	 6.3030
 0.3750	 6.4320
 0.3760	 6.4790
 0.3770	 6.2940
 0.3780	 6.1810
 0.3790	 6.2200
 0.3800	 6.2780
 0.3810	 6.2240
 0.3820	 6.1920
 0.3830	 6.2480
 0.3840	 6.1980
 0.3850	 6.2130
 0.3860	 6.2240
 0.3870	 6.1260
 0.3880	 6.0910
 0.3890	 6.1720
 0.3900	 6.2930
 0.3910	 6.2710
 0.3920	 6.1570
 0.3930	 6.0690
 0.3940	 6.0750
 0.3950	 6.0880
 0.3960	 6.0860
 0.3970	 6.0960
 0.3980	 6.1520
 0.3990	 6.1390
 0.4000	 6.1310
 0.4010	 6.1490
 0.4020	 6.1270
 0.4030	 6.0810
 0.4040	 6.0440
 0.4050	 6.0480
 0.4060	 6.1370
 0.4070	 6.1350
 0.4080	 6.0600
 0.4090	 6.0560
 0.4100	 6.0550
 0.4110	 6.0490
 0.4120	 6.0420
 0.4130	 6.0580
 0.4140	 6.0780
 0.4150	 6.0910
 0.4160	 6.0940
 0.4170	 6.1020
 0.4180	 6.1490
 0.4190	 6.1950
 0.4200	 6.1480
 0.4210	 6.1840
 0.4220	 6.2400
 0.4230	 6.2560
 0.4240	 6.3100
 0.4250	 6.3820
 0.4260	 6.4530
 0.4270	 6.5150
 0.4280	 6.5990
 0.4290	 6.6790
 0.4300	 6.7500
 0.4310	 6.8310
 0.4320	 6.9270
 0.4330	 7.0400
 0.4340	 7.1700
 0.4350	 7.3070
 0.4360	 7.4360
 0.4370	 7.5580
 0.4380	 7.6860
 0.4390	 7.8020
 0.4400	 7.9270
 0.4410	 8.0650
 0.4420	 8.1780
 0.4430	 8.2980
 0.4440	 8.4300
 0.4450	 8.5620
 0.4460	 8.6790
 0.4470	 8.7810
 0.4480	 8.8750
 0.4490	 8.9690
 0.4500	 9.0780
 0.4510	 9.1860
 0.4520	 9.2730
 0.4530	 9.3330
 0.4540	 9.3900
 0.4550	 9.4560
 0.4560	 9.5330
 0.4570	 9.5990
 0.4580	 9.6550
 0.4590	 9.7050
 0.4600	 9.7490
 0.4610	 9.7900
 0.4620	 9.8270
 0.4630	 9.8580
 0.4640	 9.9000
 0.4650	 9.9330
 0.4660	 9.9560
 0.4670	 9.9780
 0.4680	 9.9990
 0.4690	10.0270
 0.4700	10.0610
 0.4710	10.0790
 0.4720	10.0940
 0.4730	10.1110
 0.4740	10.1280
 0.4750	10.1420
 0.4760	10.1560
 0.4770	10.1690
 0.4780	10.1630
 0.4790	10.1780
 0.4800	10.2020
 0.4810	10.2140
 0.4820	10.2350
 0.4830	10.2530
 0.4840	10.2670
 0.4850	10.2860
 0.4860	10.3130
 0.4870	10.3360
 0.4880	10.3480
 0.4890	10.3620
 0.4900	10.4030
 0.4910	10.4520
 0.4920	10.4800
 0.4930	10.5390
 0.4940	10.5950
 0.4950	10.6370
 0.4960	10.6990
 0.4970	10.7680
 0.4980	10.8420
 0.4990	10.9200
 0.5000	11.0040
 0.5010	11.0840
 0.5020	11.1710
 0.5030	11.2880
 0.5040	11.4030
 0.5050	11.5200
 0.5060	11.6450
 0.5070	11.7680
 0.5080	11.9180
 0.5090	12.0860
 0.5100	12.2450
 0.5110	12.4020
 0.5120	12.5750
 0.5130	12.7680
 0.5140	12.9660
 0.5150	13.1740
 0.5160	13.3880
 0.5170	13.6050
 0.5180	13.8220
 0.5190	14.0600
 0.5200	14.3110
 0.5210	14.5490
 0.5220	14.7870
 0.5230	15.0330
 0.5240	15.2850
 0.5250	15.5210
 0.5260	15.7580
 0.5270	15.9970
 0.5280	16.2340
 0.5290	16.4600
 0.5300	16.6850
 0.5310	16.9130
 0.5320	17.1360
 0.5330	17.3580
 0.5340	17.5730
 0.5350	17.7800
 0.5360	17.9850
 0.5370	18.1880
 0.5380	18.3890
 0.5390	18.5840
 0.5400	18.7770
 0.5410	18.9670
 0.5420	19.1500
 0.5430	19.3280
 0.5440	19.5040
 0.5450	19.6740
 0.5460	19.8330
 0.5470	19.9970
 0.5480	20.1480
 0.5490	20.2790
 0.5500	20.4080
 0.5510	20.5170
 0.5520	20.6090
 0.5530	20.6890
 0.5540	20.7560
 0.5550	20.8030
 0.5560	20.8300
 0.5570	20.8430
 0.5580	20.8450
 0.5590	20.8400
 0.5600	20.8240
 0.5610	20.7900
 0.5620	20.7490
 0.5630	20.7010
 0.5640	20.6450
 0.5650	20.5780
 0.5660	20.5010
 0.5670	20.4150
 0.5680	20.3150
 0.5690	20.2000
 0.5700	20.0720
 0.5710	19.9400
 0.5720	19.8150
 0.5730	19.6920
 0.5740	19.5660
 0.5750	19.4370
 0.5760	19.3130
 0.5770	19.1980
 0.5780	19.1000
 0.5790	19.0320
 0.5800	18.9640
 0.5810	18.8870
 0.5820	18.8050
 0.5830	18.7300
 0.5840	18.6520
 0.5850	18.5680
 0.5860	18.4790
 0.5870	18.3960
 0.5880	18.3240
 0.5890	18.2650
 0.5900	18.1950
 0.5910	18.1420
 0.5920	18.1040
 0.5930	18.0600
 0.5940	18.0240
 0.5950	17.9890
 0.5960	17.9550
 0.5970	17.9280
 0.5980	17.9040
 0.5990	17.8780
 0.6000	17.8440
 0.6010	17.8060
 0.6020	17.7630
 0.6030	17.7140
 0.6040	17.6570
 0.6050	17.5810
 0.6060	17.4980
 0.6070	17.4150
 0.6080	17.3240
 0.6090	17.2240
 0.6100	17.1210
 0.6110	17.0190
 0.6120	16.9150
 0.6130	16.8080
 0.6140	16.7030
 0.6150	16.6030
 0.6160	16.5010
 0.6170	16.4060
 0.6180	16.3250
 0.6190	16.2410
 0.6200	16.1670
 0.6210	16.1050
 0.6220	16.0470
 0.6230	16.0050
 0.6240	15.9680
 0.6250	15.9300
 0.6260	15.9080
 0.6270	15.8970
 0.6280	15.8840
 0.6290	15.8590
 0.6300	15.8470
 0.6310	15.8330
 0.6320	15.8100
 0.6330	15.7830
 0.6340	15.7480
 0.6350	15.6990
 0.6360	15.6310
 0.6370	15.5450
 0.6380	15.4420
 0.6390	15.3230
 0.6400	15.1880
 0.6410	15.0390
 0.6420	14.8880
 0.6430	14.7370
 0.6440	14.5770
 0.6450	14.4130
 0.6460	14.2520
 0.6470	14.0990
 0.6480	13.9620
 0.6490	13.8400
 0.6500	13.7330
 0.6510	13.6390
 0.6520	13.5520
 0.6530	13.4680
 0.6540	13.3830
 0.6550	13.2900
 0.6560	13.1870
 0.6570	13.0700
 0.6580	12.9390
 0.6590	12.7930
 0.6600	12.6350
 0.6610	12.4710
 0.6620	12.3100
 0.6630	12.1440
 0.6640	11.9820
 0.6650	11.8320
 0.6660	11.6930
 0.6670	11.5600
 0.6680	11.4410
 0.6690	11.3470
 0.6700	11.2640
 0.6710	11.1920
 0.6720	11.1330
 0.6730	11.0890
 0.6740	11.0550
 0.6750	11.0290
 0.6760	11.0120
 0.6770	11.0060
 0.6780	11.0100
 0.6790	11.0280
 0.6800	11.0660
 0.6810	11.1250
 0.6820	11.2190
 0.6830	11.3520
 0.6840	11.5160
 0.6850	11.7420
 0.6860	12.0320
 0.6870	12.3820
 0.6880	12.8000
 0.6890	13.2930
 0.6900	13.8670
 0.6910	14.5320
 0.6920	15.2740
 0.6930	16.0940
 0.6940	16.9910
 0.6950	17.9660
 0.6960	19.0000
 0.6970	20.0870
 0.6980	21.2280
 0.6990	22.4070
 0.7000	23.6130
 0.7010	24.8360
 0.7020	26.0620
 0.7030	27.2830
 0.7040	28.4890
 0.7050	29.6690
 0.7060	30.8200
 0.7070	31.9410
 0.7080	33.0210
 0.7090	34.0530
 0.7100	35.0650
 0.7110	36.0290
 0.7120	36.9400
 0.7130	37.8160
 0.7140	38.6590
 0.7150	39.4600
 0.7160	40.2140
 0.7170	40.9360
 0.7180	41.6200
 0.7190	42.2630
 0.7200	42.8680
 0.7210	43.4500
 0.7220	44.0020
 0.7230	44.5170
 0.7240	44.9850
 0.7250	45.4260
 0.7260	45.8450
 0.7270	46.2430
 0.7280	46.6210
 0.7290	46.9590
 0.7300	47.2670
 0.7310	47.5640
 0.7320	47.8400
 0.7330	48.0910
 0.7340	48.3220
 0.7350	48.5480
 0.7360	48.7640
 0.7370	48.9550
 0.7380	49.1170
 0.7390	49.2850
 0.7400	49.4480
 0.7410	49.5980
 0.7420	49.7290
 0.7430	49.8600
 0.7440	49.9690
 0.7450	50.0660
 0.7460	50.1840
 0.7470	50.2740
 0.7480	50.3520
 0.7490	50.4340
 0.7500	50.4930
 0.7510	50.5740
 0.7520	50.6490
 0.7530	50.6840
 0.7540	50.7500
 0.7550	50.8120
 0.7560	50.8580
 0.7570	50.8980
 0.7580	50.9420
 0.7590	50.9790
 0.7600	51.0060
 0.7610	51.0460
 0.7620	51.0670
 0.7630	51.0850
 0.7640	51.1210
 0.7650	51.1440
 0.7660	51.1800
 0.7670	51.2140
 0.7680	51.2140
 0.7690	51.2190
 0.7700	51.2440
 0.7710	51.2800
 0.7720	51.2890
 0.7730	51.2920
 0.7740	51.3010
 0.7750	51.3210
 0.7760	51.3370
 0.7770	51.3600
 0.7780	51.3820
 0.7790	51.3900
 0.7800	51.3920
 0.7810	51.3920
 0.7820	51.3950
 0.7830	51.4100
 0.7840	51.4240
 0.7850	51.4450
 0.7860	51.4690
 0.7870	51.4760
 0.7880	51.4780
 0.7890	51.4820
 0.7900	51.4940
 0.7910	51.5090
 0.7920	51.5160
 0.7930	51.5210
 0.7940	51.5410
 0.7950	51.5450
 0.7960	51.5510
 0.7970	51.5650
 0.7980	51.5620
 0.7990	51.5640
 0.8000	51.5790
 0.8010	51.6010
 0.8020	51.6020
 0.8030	51.6100
 0.8040	51.6230
 0.8050	51.6250
 0.8060	51.6360
 0.8070	51.6430
 0.8080	51.6520
 0.8090	51.6750
 0.8100	51.6690
 0.8110	51.6600
 0.8120	51.6720
 0.8130	51.7140
 0.8140	51.7160
 0.8150	51.7010
 0.8160	51.7050
 0.8170	51.7180
 0.8180	51.7240
 0.8190	51.7280
 0.8200	51.7430
 0.8210	51.7460
 0.8220	51.7600
 0.8230	51.7770
 0.8240	51.7660
 0.8250	51.7650
 0.8260	51.7680
 0.8270	51.7700
 0.8280	51.7800
 0.8290	51.8040
 0.8300	51.8070
 0.8310	51.7740
 0.8320	51.7730
 0.8330	51.7780
 0.8340	51.7840
 0.8350	51.7910
 0.8360	51.7900
 0.8370	51.7950
 0.8380	51.8020
 0.8390	51.7950
 0.8400	51.8040
 0.8410	51.8140
 0.8420	51.8190
 0.8430	51.8280
 0.8440	51.8350
 0.8450	51.8330
 0.8460	51.8260
 0.8470	51.8380
 0.8480	51.8630
 0.8490	51.8780
 0.8500	51.8650
 0.8510	51.8580
 0.8520	51.8690
 0.8530	51.8890
 0.8540	51.8960
 0.8550	51.8820
 0.8560	51.8770
 0.8570	51.8900
 0.8580	51.9080
 0.8590	51.9110
 0.8600	51.8960
 0.8610	51.8780
 0.8620	51.8950
 0.8630	51.9020
 0.8640	51.8900
 0.8650	51.8770
 0.8660	51.9110
 0.8670	51.9180
 0.8680	51.9080
 0.8690	51.9130
 0.8700	51.9080
 0.8710	51.9030
 0.8720	51.9090
 0.8730	51.9260
 0.8740	51.9270
 0.8750	51.9320
 0.8760	51.9340
 0.8770	51.9030
 0.8780	51.8950
 0.8790	51.8950
 0.8800	51.8930
 0.8810	51.9020
 0.8820	51.9250
 0.8830	51.9250
 0.8840	51.8890
 0.8850	51.8720
 0.8860	51.8610
 0.8870	51.8630
 0.8880	51.8780
 0.8890	51.8720
 0.8900	51.8440
 0.8910	51.8290
 0.8920	51.8590
 0.8930	51.8540
 0.8940	51.8190
 0.8950	51.7840
 0.8960	51.7810
 0.8970	51.7720
 0.8980	51.7700
 0.8990	51.7710
 0.9000	51.7530
 0.9010	51.7540
 0.9020	51.7400
 0.9030	51.7090
 0.9040	51.7070
 0.9050	51.6950
 0.9060	51.6870
 0.9070	51.6890
 0.9080	51.6710
 0.9090	51.6690
 0.9100	51.6640
 0.9110	51.6440
 0.9120	51.6320
 0.9130	51.6210
 0.9140	51.6040
 0.9150	51.5790
 0.9160	51.5690
 0.9170	51.5460
 0.9180	51.5170
 0.9190	51.5080
 0.9200	51.5270
 0.9210	51.5200
 0.9220	51.4820
 0.9230	51.4440
 0.9240	51.4360
 0.9250	51.4210
 0.9260	51.3840
 0.9270	51.3470
 0.9280	51.3690
 0.9290	51.3630
 0.9300	51.3160
 0.9310	51.2930
 0.9320	51.2540
 0.9330	51.2190
 0.9340	51.1940
 0.9350	51.1580
 0.9360	51.1430
 0.9370	51.1160
 0.9380	51.0640
 0.9390	51.0200
 0.9400	50.9940
 0.9410	50.9740
 0.9420	50.9430
 0.9430	50.8790
 0.9440	50.8200
 0.9450	50.7740
 0.9460	50.7330
 0.9470	50.6790
 0.9480	50.6280
 0.9490	50.5650
 0.9500	50.4760
 0.9510	50.3710
 0.9520	50.2920
 0.9530	50.2290
 0.9540	50.1560
 0.9550	50.0870
 0.9560	49.9730
 0.9570	49.8500
 0.9580	49.7640
 0.9590	49.6890
 0.9600	49.6240
 0.9610	49.5660
 0.9620	49.5100
 0.9630	49.4350
 0.9640	49.3460
 0.9650	49.2680
 0.9660	49.2280
 0.9670	49.2100
 0.9680	49.1960
 0.9690	49.1700
 0.9700	49.1300
 0.9710	49.1150
 0.9720	49.0980
 0.9730	49.0820
 0.9740	49.0780
 0.9750	49.0610
 0.9760	49.0170
 0.9770	48.9930
 0.9780	49.0310
 0.9790	48.9990
 0.9800	49.0030
 0.9810	49.0320
 0.9820	49.0240
 0.9830	49.0060
 0.9840	49.0160
 0.9850	49.0400
 0.9860	49.0490
 0.9870	49.0730
 0.9880	49.0890
 0.9890	49.1190
 0.9900	49.1850
 0.9910	49.2370
 0.9920	49.3250
 0.9930	49.4140
 0.9940	49.5020
 0.9950	49.5900
 0.9960	49.6790
 0.9970	49.7670
 0.9980	49.8550
 0.9990	49.9430
 1.0000	50.0320
 1.0010	50.1200
 1.0020	50.2080
 1.0030	50.2970
 1.0040	50.3850
 1.0050	50.4730
 1.0060	50.5620
 1.0070	50.6500
 1.0080	50.7380
 1.0090	50.8260
 1.0100	50.8260
 1.0110	50.8520
 1.0120	50.8810
 1.0130	50.9000
 1.0140	50.9340
 1.0150	50.9760
 1.0160	51.0190
 1.0170	51.0610
 1.0180	51.1000
 1.0190	51.1260
 1.0200	51.1480
 1.0210	51.1770
 1.0220	51.2190
 1.0230	51.2580
 1.0240	51.3080
 1.0250	51.3420
 1.0260	51.3650
 1.0270	51.3960
 1.0280	51.4200
 1.0290	51.4500
 1.0300	51.4950
 1.0310	51.5270
 1.0320	51.5480
 1.0330	51.5770
 1.0340	51.6120
 1.0350	51.6340
 1.0360	51.6570
 1.0370	51.6780
 1.0380	51.7030
 1.0390	51.7270
 1.0400	51.7490
 1.0410	51.7730
 1.0420	51.7940
 1.0430	51.8050
 1.0440	51.8240
 1.0450	51.8480
 1.0460	51.8710
 1.0470	51.8970
 1.0480	51.9200
 1.0490	51.9440
 1.0500	51.9670
 1.0510	51.9880
 1.0520	52.0080
 1.0530	52.0210
 1.0540	52.0280
 1.0550	52.0420
 1.0560	52.0520
 1.0570	52.0630
 1.0580	52.0810
 1.0590	52.0900
 1.0600	52.0870
 1.0610	52.0960
 1.0620	52.1160
 1.0630	52.1220
 1.0640	52.1260
 1.0650	52.1280
 1.0660	52.1160
 1.0670	52.1120
 1.0680	52.1110
 1.0690	52.1150
 1.0700	52.1240
 1.0710	52.1430
 1.0720	52.1440
 1.0730	52.1450
 1.0740	52.1420
 1.0750	52.1250
 1.0760	52.1150
 1.0770	52.1120
 1.0780	52.1040
 1.0790	52.0920
 1.0800	52.0810
 1.0810	52.0720
 1.0820	52.0610
 1.0830	52.0500
 1.0840	52.0380
 1.0850	52.0230
 1.0860	52.0120
 1.0870	51.9990
 1.0880	51.9830
 1.0890	51.9730
 1.0900	51.9700
 1.0910	51.9590
 1.0920	51.9520
 1.0930	51.9370
 1.0940	51.9120
 1.0950	51.8920
 1.0960	51.8680
 1.0970	51.8510
 1.0980	51.8360
 1.0990	51.8220
 1.1000	51.8190
 1.1010	51.8050
 1.1020	51.7860
 1.1030	51.7700
 1.1040	51.7420
 1.1050	51.7110
 1.1060	51.6850
 1.1070	51.6600
 1.1080	51.6320
 1.1090	51.6050
 1.1100	51.5740
 1.1110	51.5410
 1.1120	51.5040
 1.1130	51.4630
 1.1140	51.4260
 1.1150	51.3950
 1.1160	51.3520
 1.1170	51.3100
 1.1180	51.2600
 1.1190	51.2020
 1.1200	51.1360
 1.1210	51.0740
 1.1220	51.0090
 1.1230	50.9380
 1.1240	50.8630
 1.1250	50.7830
 1.1260	50.6990
 1.1270	50.6100
 1.1280	50.5180
 1.1290	50.4180
 1.1300	50.3090
 1.1310	50.1980
 1.1320	50.0850
 1.1330	49.9610
 1.1340	49.8340
 1.1350	49.6970
 1.1360	49.5480
 1.1370	49.3930
 1.1380	49.2400
 1.1390	49.0800
 1.1400	48.9070
 1.1410	48.7270
 1.1420	48.5410
 1.1430	48.3430
 1.1440	48.1450
 1.1450	47.9450
 1.1460	47.7440
 1.1470	47.5330
 1.1480	47.3370
 1.1490	47.1420
 1.1500	46.9570
 1.1510	46.7790
 1.1520	46.6060
 1.1530	46.4350
 1.1540	46.2800
 1.1550	46.1310
 1.1560	45.9970
 1.1570	45.8800
 1.1580	45.7740
 1.1590	45.6740
 1.1600	45.5910
 1.1610	45.5180
 1.1620	45.4470
 1.1630	45.3880
 1.1640	45.3300
 1.1650	45.2780
 1.1660	45.2300
 1.1670	45.1900
 1.1680	45.1580
 1.1690	45.1260
 1.1700	45.1000
 1.1710	45.0720
 1.1720	45.0460
 1.1730	45.0200
 1.1740	44.9930
 1.1750	44.9660
 1.1760	44.9340
 1.1770	44.9000
 1.1780	44.8650
 1.1790	44.8260
 1.1800	44.7870
 1.1810	44.7540
 1.1820	44.7240
 1.1830	44.6910
 1.1840	44.6620
 1.1850	44.6340
 1.1860	44.5980
 1.1870	44.5610
 1.1880	44.5300
 1.1890	44.5010
 1.1900	44.4710
 1.1910	44.4470
 1.1920	44.4200
 1.1930	44.3870
 1.1940	44.3630
 1.1950	44.3430
 1.1960	44.3280
 1.1970	44.3160
 1.1980	44.3080
 1.1990	44.3010
 1.2000	44.2910
 1.2010	44.2870
 1.2020	44.2920
 1.2030	44.3000
 1.2040	44.3140
 1.2050	44.3300
 1.2060	44.3480
 1.2070	44.3670
 1.2080	44.3900
 1.2090	44.4180
 1.2100	44.4550
 1.2110	44.4960
 1.2120	44.5430
 1.2130	44.5930
 1.2140	44.6480
 1.2150	44.7030
 1.2160	44.7630
 1.2170	44.8240
 1.2180	44.8840
 1.2190	44.9490
 1.2200	45.0170
 1.2210	45.0800
 1.2220	45.1470
 1.2230	45.2140
 1.2240	45.2740
 1.2250	45.3410
 1.2260	45.4080
 1.2270	45.4700
 1.2280	45.5370
 1.2290	45.5970
 1.2300	45.6540
 1.2310	45.7110
 1.2320	45.7610
 1.2330	45.8110
 1.2340	45.8600
 1.2350	45.9050
 1.2360	45.9490
 1.2370	45.9950
 1.2380	46.0330
 1.2390	46.0630
 1.2400	46.0960
 1.2410	46.1300
 1.2420	46.1670
 1.2430	46.2040
 1.2440	46.2390
 1.2450	46.2710
 1.2460	46.2970
 1.2470	46.3260
 1.2480	46.3560
 1.2490	46.3830
 1.2500	46.4070
 1.2510	46.4290
 1.2520	46.4500
 1.2530	46.4700
 1.2540	46.4980
 1.2550	46.5280
 1.2560	46.5550
 1.2570	46.5830
 1.2580	46.6000
 1.2590	46.6150
 1.2600	46.6250
 1.2610	46.6350
 1.2620	46.6410
 1.2630	46.6490
 1.2640	46.6590
 1.2650	46.6660
 1.2660	46.6710
 1.2670	46.6740
 1.2680	46.6700
 1.2690	46.6680
 1.2700	46.6680
 1.2710	46.6700
 1.2720	46.6720
 1.2730	46.6720
 1.2740	46.6700
 1.2750	46.6630
 1.2760	46.6550
 1.2770	46.6460
 1.2780	46.6340
 1.2790	46.6240
 1.2800	46.6130
 1.2810	46.5940
 1.2820	46.5780
 1.2830	46.5600
 1.2840	46.5360
 1.2850	46.5130
 1.2860	46.4870
 1.2870	46.4570
 1.2880	46.4220
 1.2890	46.3910
 1.2900	46.3530
 1.2910	46.3110
 1.2920	46.2680
 1.2930	46.2150
 1.2940	46.1610
 1.2950	46.1110
 1.2960	46.0500
 1.2970	45.9850
 1.2980	45.9190
 1.2990	45.8410
 1.3000	45.7630
 1.3010	45.6910
 1.3020	45.6100
 1.3030	45.5280
 1.3040	45.4410
 1.3050	45.3470
 1.3060	45.2510
 1.3070	45.1510
 1.3080	45.0470
 1.3090	44.9390
 1.3100	44.8330
 1.3110	44.7210
 1.3120	44.6040
 1.3130	44.4830
 1.3140	44.3570
 1.3150	44.2210
 1.3160	44.0890
 1.3170	43.9590
 1.3180	43.8240
 1.3190	43.6820
 1.3200	43.5350
 1.3210	43.3770
 1.3220	43.2160
 1.3230	43.0530
 1.3240	42.8880
 1.3250	42.7210
 1.3260	42.5480
 1.3270	42.3680
 1.3280	42.1850
 1.3290	41.9980
 1.3300	41.8090
 1.3310	41.6240
 1.3320	41.4380
 1.3330	41.2490
 1.3340	41.0620
 1.3350	40.8680
 1.3360	40.6700
 1.3370	40.4760
 1.3380	40.2770
 1.3390	40.0800
 1.3400	39.8880
 1.3410	39.6910
 1.3420	39.4970
 1.3430	39.3100
 1.3440	39.1210
 1.3450	38.9330
 1.3460	38.7490
 1.3470	38.5650
 1.3480	38.3780
 1.3490	38.1960
 1.3500	38.0190
 1.3510	37.8380
 1.3520	37.6630
 1.3530	37.4910
 1.3540	37.3180
 1.3550	37.1540
 1.3560	36.9860
 1.3570	36.8120
 1.3580	36.6420
 1.3590	36.4640
 1.3600	36.2840
 1.3610	36.1030
 1.3620	35.9140
 1.3630	35.7250
 1.3640	35.5270
 1.3650	35.3200
 1.3660	35.1130
 1.3670	34.8950
 1.3680	34.6660
 1.3690	34.4280
 1.3700	34.1730
 1.3710	33.9050
 1.3720	33.6230
 1.3730	33.3250
 1.3740	33.0130
 1.3750	32.6820
 1.3760	32.3270
 1.3770	31.9510
 1.3780	31.5490
 1.3790	31.1290
 1.3800	30.6910
 1.3810	30.2310
 1.3820	29.7540
 1.3830	29.2580
 1.3840	28.7430
 1.3850	28.2050
 1.3860	27.6580
 1.3870	27.0880
 1.3880	26.5200
 1.3890	25.9420
 1.3900	25.3610
 1.3910	24.7870
 1.3920	24.2100
 1.3930	23.6330
 1.3940	23.0630
 1.3950	22.4920
 1.3960	21.9330
 1.3970	21.3900
 1.3980	20.8590
 1.3990	20.3530
 1.4000	19.8590
 1.4010	19.3790
 1.4020	18.9200
 1.4030	18.4770
 1.4040	18.0560
 1.4050	17.6600
 1.4060	17.2840
 1.4070	16.9330
 1.4080	16.6030
 1.4090	16.2930
 1.4100	16.0050
 1.4110	15.7390
 1.4120	15.4940
 1.4130	15.2680
 1.4140	15.0590
 1.4150	14.8680
 1.4160	14.6920
 1.4170	14.5290
 1.4180	14.3840
 1.4190	14.2520
 1.4200	14.1300
 1.4210	14.0200
 1.4220	13.9190
 1.4230	13.8290
 1.4240	13.7480
 1.4250	13.6750
 1.4260	13.6140
 1.4270	13.5570
 1.4280	13.5100
 1.4290	13.4660
 1.4300	13.4270
 1.4310	13.3940
 1.4320	13.3670
 1.4330	13.3420
 1.4340	13.3240
 1.4350	13.3080
 1.4360	13.2950
 1.4370	13.2850
 1.4380	13.2800
 1.4390	13.2780
 1.4400	13.2780
 1.4410	13.2820
 1.4420	13.2880
 1.4430	13.2930
 1.4440	13.3010
 1.4450	13.3120
 1.4460	13.3220
 1.4470	13.3360
 1.4480	13.3520
 1.4490	13.3660
 1.4500	13.3820
 1.4510	13.3980
 1.4520	13.4130
 1.4530	13.4300
 1.4540	13.4470
 1.4550	13.4650
 1.4560	13.4870
 1.4570	13.5090
 1.4580	13.5330
 1.4590	13.5600
 1.4600	13.5870
 1.4610	13.6150
 1.4620	13.6460
 1.4630	13.6820
 1.4640	13.7190
 1.4650	13.7600
 1.4660	13.8050
 1.4670	13.8500
 1.4680	13.8980
 1.4690	13.9520
 1.4700	14.0100
 1.4710	14.0730
 1.4720	14.1410
 1.4730	14.2120
 1.4740	14.2850
 1.4750	14.3590
 1.4760	14.4380
 1.4770	14.5150
 1.4780	14.5930
 1.4790	14.6770
 1.4800	14.7600
 1.4810	14.8470
 1.4820	14.9370
 1.4830	15.0240
 1.4840	15.1130
 1.4850	15.2030
 1.4860	15.2930
 1.4870	15.3880
 1.4880	15.4820
 1.4890	15.5730
 1.4900	15.6670
 1.4910	15.7610
 1.4920	15.8550
 1.4930	15.9510
 1.4940	16.0480
 1.4950	16.1460
 1.4960	16.2440
 1.4970	16.3430
 1.4980	16.4410
 1.4990	16.5370
 1.5000	16.6340
 1.5010	16.7310
 1.5020	16.8280
 1.5030	16.9260
 1.5040	17.0220
 1.5050	17.1150
 1.5060	17.2100
 1.5070	17.3030
 1.5080	17.3970
 1.5090	17.4930
 1.5100	17.5880
 1.5110	17.6850
 1.5120	17.7810
 1.5130	17.8720
 1.5140	17.9630
 1.5150	18.0520
 1.5160	18.1390
 1.5170	18.2310
 1.5180	18.3240
 1.5190	18.4150
 1.5200	18.5080
 1.5210	18.5990
 1.5220	18.6890
 1.5230	18.7780
 1.5240	18.8640
 1.5250	18.9470
 1.5260	19.0310
 1.5270	19.1140
 1.5280	19.1970
 1.5290	19.2810
 1.5300	19.3620
 1.5310	19.4410
 1.5320	19.5170
 1.5330	19.5940
 1.5340	19.6750
 1.5350	19.7560
 1.5360	19.8360
 1.5370	19.9140
 1.5380	19.9880
 1.5390	20.0620
 1.5400	20.1340
 1.5410	20.2090
 1.5420	20.2870
 1.5430	20.3600
 1.5440	20.4330
 1.5450	20.5020
 1.5460	20.5710
 1.5470	20.6400
 1.5480	20.7060
 1.5490	20.7750
 1.5500	20.8460
 1.5510	20.9160
 1.5520	20.9900
 1.5530	21.0620
 1.5540	21.1300
 1.5550	21.1970
 1.5560	21.2610
 1.5570	21.3220
 1.5580	21.3830
 1.5590	21.4460
 1.5600	21.5110
 1.5610	21.5740
 1.5620	21.6370
 1.5630	21.6980
 1.5640	21.7530
 1.5650	21.8100
 1.5660	21.8690
 1.5670	21.9290
 1.5680	21.9900
 1.5690	22.0500
 1.5700	22.1080
 1.5710	22.1670
 1.5720	22.2260
 1.5730	22.2860
 1.5740	22.3480
 1.5750	22.4060
 1.5760	22.4610
 1.5770	22.5170
 1.5780	22.5710
 1.5790	22.6300
 1.5800	22.6920
 1.5810	22.7520
 1.5820	22.8090
 1.5830	22.8620
 1.5840	22.9140
 1.5850	22.9660
 1.5860	23.0210
 1.5870	23.0790
 1.5880	23.1370
 1.5890	23.1950
 1.5900	23.2510
 1.5910	23.3050
 1.5920	23.3570
 1.5930	23.4100
 1.5940	23.4630
 1.5950	23.5160
 1.5960	23.5710
 1.5970	23.6260
 1.5980	23.6790
 1.5990	23.7340
 1.6000	23.7870
 1.6010	23.8390
 1.6020	23.8900
 1.6030	23.9430
 1.6040	23.9930
 1.6050	24.0440
 1.6060	24.0950
 1.6070	24.1470
 1.6080	24.2010
 1.6090	24.2530
 1.6100	24.3040
 1.6110	24.3520
 1.6120	24.3980
 1.6130	24.4420
 1.6140	24.4860
 1.6150	24.5270
 1.6160	24.5680
 1.6170	24.6060
 1.6180	24.6450
 1.6190	24.6850
 1.6200	24.7220
 1.6210	24.7650
 1.6220	24.8050
 1.6230	24.8450
 1.6240	24.8850
 1.6250	24.9200
 1.6260	24.9500
 1.6270	24.9790
 1.6280	25.0060
 1.6290	25.0330
 1.6300	25.0610
 1.6310	25.0860
 1.6320	25.1100
 1.6330	25.1320
 1.6340	25.1510
 1.6350	25.1680
 1.6360	25.1860
 1.6370	25.1990
 1.6380	25.2100
 1.6390	25.2140
 1.6400	25.2080
 1.6410	25.2030
 1.6420	25.1950
 1.6430	25.1840
 1.6440	25.1740
 1.6450	25.1520
 1.6460	25.1230
 1.6470	25.0890
 1.6480	25.0540
 1.6490	25.0210
 1.6500	24.9820
 1.6510	24.9400
 1.6520	24.8980
 1.6530	24.8520
 1.6540	24.8090
 1.6550	24.7690
 1.6560	24.7280
 1.6570	24.6910
 1.6580	24.6550
 1.6590	24.6240
 1.6600	24.6000
 1.6610	24.5800
 1.6620	24.5630
 1.6630	24.5510
 1.6640	24.5450
 1.6650	24.5430
 1.6660	24.5500
 1.6670	24.5640
 1.6680	24.5840
 1.6690	24.6090
 1.6700	24.6360
 1.6710	24.6620
 1.6720	24.6880
 1.6730	24.7150
 1.6740	24.7390
 1.6750	24.7610
 1.6760	24.7800
 1.6770	24.7890
 1.6780	24.7930
 1.6790	24.7890
 1.6800	24.7740
 1.6810	24.7520
 1.6820	24.7260
 1.6830	24.6980
 1.6840	24.6640
 1.6850	24.6270
 1.6860	24.5880
 1.6870	24.5410
 1.6880	24.4910
 1.6890	24.4440
 1.6900	24.3910
 1.6910	24.3350
 1.6920	24.2760
 1.6930	24.2090
 1.6940	24.1470
 1.6950	24.0880
 1.6960	24.0270
 1.6970	23.9680
 1.6980	23.9070
 1.6990	23.8450
 1.7000	23.7810
 1.7010	23.7120
 1.7020	23.6480
 1.7030	23.5840
 1.7040	23.5190
 1.7050	23.4570
 1.7060	23.3890
 1.7070	23.3120
 1.7080	23.2400
 1.7090	23.1680
 1.7100	23.0960
 1.7110	23.0260
 1.7120	22.9560
 1.7130	22.8880
 1.7140	22.8290
 1.7150	22.7750
 1.7160	22.7230
 1.7170	22.6760
 1.7180	22.6290
 1.7190	22.5820
 1.7200	22.5380
 1.7210	22.4930
 1.7220	22.4480
 1.7230	22.4040
 1.7240	22.3670
 1.7250	22.3360
 1.7260	22.3020
 1.7270	22.2730
 1.7280	22.2440
 1.7290	22.2150
 1.7300	22.1920
 1.7310	22.1790
 1.7320	22.1760
 1.7330	22.1710
 1.7340	22.1760
 1.7350	22.1730
 1.7360	22.1660
 1.7370	22.1570
 1.7380	22.1430
 1.7390	22.1280
 1.7400	22.1130
 1.7410	22.0870
 1.7420	22.0530
 1.7430	22.0190
 1.7440	21.9770
 1.7450	21.9350
 1.7460	21.8930
 1.7470	21.8460
 1.7480	21.7910
 1.7490	21.7430
 1.7500	21.6980
 1.7510	21.6540
 1.7520	21.6150
 1.7530	21.5680
 1.7540	21.5190
 1.7550	21.4670
 1.7560	21.4110
 1.7570	21.3660
 1.7580	21.3180
 1.7590	21.2740
 1.7600	21.2350
 1.7610	21.1920
 1.7620	21.1560
 1.7630	21.1280
 1.7640	21.1020
 1.7650	21.0820
 1.7660	21.0610
 1.7670	21.0420
 1.7680	21.0210
 1.7690	21.0000
 1.7700	20.9820
 1.7710	20.9650
 1.7720	20.9490
 1.7730	20.9350
 1.7740	20.9200
 1.7750	20.9010
 1.7760	20.8880
 1.7770	20.8780
 1.7780	20.8650
 1.7790	20.8540
 1.7800	20.8430
 1.7810	20.8290
 1.7820	20.8200
 1.7830	20.8150
 1.7840	20.8100
 1.7850	20.8090
 1.7860	20.8030
 1.7870	20.7980
 1.7880	20.7900
 1.7890	20.7860
 1.7900	20.7860
 1.7910	20.7870
 1.7920	20.7880
 1.7930	20.7930
 1.7940	20.7990
 1.7950	20.8060
 1.7960	20.8160
 1.7970	20.8250
 1.7980	20.8310
 1.7990	20.8390
 1.8000	20.8520
 1.8010	20.8580
 1.8020	20.8610
 1.8030	20.8650
 1.8040	20.8610
 1.8050	20.8650
 1.8060	20.8720
 1.8070	20.8790
 1.8080	20.8890
 1.8090	20.8940
 1.8100	20.8970
 1.8110	20.9040
 1.8120	20.9040
 1.8130	20.9190
 1.8140	20.9310
 1.8150	20.9390
 1.8160	20.9530
 1.8170	20.9600
 1.8180	20.9620
 1.8190	20.9630
 1.8200	20.9680
 1.8210	20.9750
 1.8220	20.9800
 1.8230	20.9880
 1.8240	20.9920
 1.8250	20.9880
 1.8260	20.9920
 1.8270	20.9420
 1.8280	20.8910
 1.8290	20.8410
 1.8300	20.7910
 1.8310	20.7400
 1.8320	20.6900
 1.8330	20.6400
 1.8340	20.5890
 1.8350	20.5890
 1.8360	20.5620
 1.8370	20.5350
 1.8380	20.5160
 1.8390	20.4850
 1.8400	20.4520
 1.8410	20.4100
 1.8420	20.3610
 1.8430	20.3040
 1.8440	20.2510
 1.8450	20.1890
 1.8460	20.1200
 1.8470	20.0470
 1.8480	19.9630
 1.8490	19.8670
 1.8500	19.7670
 1.8510	19.6600
 1.8520	19.5480
 1.8530	19.4300
 1.8540	19.3140
 1.8550	19.1950
 1.8560	19.0570
 1.8570	18.9050
 1.8580	18.7400
 1.8590	18.5660
 1.8600	18.3760
 1.8610	18.1860
 1.8620	17.9850
 1.8630	17.7660
 1.8640	17.5360
 1.8650	17.2890
 1.8660	17.0340
 1.8670	16.7770
 1.8680	16.5130
 1.8690	16.2380
 1.8700	15.9490
 1.8710	15.6460
 1.8720	15.3330
 1.8730	15.0140
 1.8740	14.6860
 1.8750	14.3550
 1.8760	14.0280
 1.8770	13.6920
 1.8780	13.3560
 1.8790	13.0270
 1.8800	12.7000
 1.8810	12.3710
 1.8820	12.0540
 1.8830	11.7450
 1.8840	11.4380
 1.8850	11.1410
 1.8860	10.8510
 1.8870	10.5730
 1.8880	10.3040
 1.8890	10.0540
 1.8900	 9.8160
 1.8910	 9.5860
 1.8920	 9.3630
 1.8930	 9.1590
 1.8940	 8.9640
 1.8950	 8.7850
 1.8960	 8.6230
 1.8970	 8.4720
 1.8980	 8.3330
 1.8990	 8.2010
 1.9000	 8.0800
 1.9010	 7.9670
 1.9020	 7.8710
 1.9030	 7.7900
 1.9040	 7.7160
 1.9050	 7.6500
 1.9060	 7.5920
 1.9070	 7.5280
 1.9080	 7.4730
 1.9090	 7.4280
 1.9100	 7.3840
 1.9110	 7.3490
 1.9120	 7.3230
 1.9130	 7.3010
 1.9140	 7.2890
 1.9150	 7.2740
 1.9160	 7.2560
 1.9170	 7.2410
 1.9180	 7.2190
 1.9190	 7.2020
 1.9200	 7.1980
 1.9210	 7.1980
 1.9220	 7.1990
 1.9230	 7.2060
 1.9240	 7.2120
 1.9250	 7.2210
 1.9260	 7.2200
 1.9270	 7.2140
 1.9280	 7.2140
 1.9290	 7.2130
 1.9300	 7.2140
 1.9310	 7.2230
 1.9320	 7.2310
 1.9330	 7.2410
 1.9340	 7.2480
 1.9350	 7.2620
 1.9360	 7.2860
 1.9370	 7.3010
 1.9380	 7.3140
 1.9390	 7.3280
 1.9400	 7.3410
 1.9410	 7.3540
 1.9420	 7.3700
 1.9430	 7.3880
 1.9440	 7.4070
 1.9450	 7.4260
 1.9460	 7.4440
 1.9470	 7.4640
 1.9480	 7.4840
 1.9490	 7.5020
 1.9500	 7.5220
 1.9510	 7.5410
 1.9520	 7.5650
 1.9530	 7.5890
 1.9540	 7.6080
 1.9550	 7.6320
 1.9560	 7.6630
 1.9570	 7.6860
 1.9580	 7.7060
 1.9590	 7.7300
 1.9600	 7.7540
 1.9610	 7.7770
 1.9620	 7.8010
 1.9630	 7.8260
 1.9640	 7.8530
 1.9650	 7.8780
 1.9660	 7.9080
 1.9670	 7.9400
 1.9680	 7.9700
 1.9690	 7.9940
 1.9700	 8.0260
 1.9710	 8.0650
 1.9720	 8.0970
 1.9730	 8.1220
 1.9740	 8.1590
 1.9750	 8.1850
 1.9760	 8.2120
 1.9770	 8.2530
 1.9780	 8.2910
 1.9790	 8.3260
 1.9800	 8.3630
 1.9810	 8.3950
 1.9820	 8.4200
 1.9830	 8.4460
 1.9840	 8.4640
 1.9850	 8.4930
 1.9860	 8.5230
 1.9870	 8.5590
 1.9880	 8.5940
 1.9890	 8.6350
 1.9900	 8.6820
 1.9910	 8.7190
 1.9920	 8.7600
 1.9930	 8.8110
 1.9940	 8.8500
 1.9950	 8.8790
 1.9960	 8.9160
 1.9970	 8.9520
 1.9980	 8.9880
 1.9990	 9.0310
 2.0000	 9.0650
 2.0010	 9.0990
 2.0020	 9.1370
 2.0030	 9.1720
 2.0040	 9.2030
 2.0050	 9.2330
 2.0060	 9.2560
 2.0070	 9.2880
 2.0080	 9.3230
 2.0090	 9.3580
 2.0100	 9.4010
 2.0110	 9.4380
 2.0120	 9.4740
 2.0130	 9.5020
 2.0140	 9.5360
 2.0150	 9.5690
 2.0160	 9.6000
 2.0170	 9.6330
 2.0180	 9.6670
 2.0190	 9.7020
 2.0200	 9.7350
 2.0210	 9.7710
 2.0220	 9.8020
 2.0230	 9.8250
 2.0240	 9.8520
 2.0250	 9.8800
 2.0260	 9.9040
 2.0270	 9.9260
 2.0280	 9.9500
 2.0290	 9.9700
 2.0300	 9.9940
 2.0310	10.0180
 2.0320	10.0450
 2.0330	10.0680
 2.0340	10.0870
 2.0350	10.1080
 2.0360	10.1300
 2.0370	10.1480
 2.0380	10.1620
 2.0390	10.1770
 2.0400	10.1860
 2.0410	10.1980
 2.0420	10.2130
 2.0430	10.2300
 2.0440	10.2450
 2.0450	10.2610
 2.0460	10.2750
 2.0470	10.2870
 2.0480	10.3040
 2.0490	10.3250
 2.0500	10.3420
 2.0510	10.3570
 2.0520	10.3720
 2.0530	10.3830
 2.0540	10.3960
 2.0550	10.4070
 2.0560	10.4280
 2.0570	10.4450
 2.0580	10.4550
 2.0590	10.4670
 2.0600	10.4790
 2.0610	10.4900
 2.0620	10.4990
 2.0630	10.5090
 2.0640	10.5220
 2.0650	10.5320
 2.0660	10.5360
 2.0670	10.5490
 2.0680	10.5670
 2.0690	10.5820
 2.0700	10.6050
 2.0710	10.6200
 2.0720	10.6300
 2.0730	10.6370
 2.0740	10.6410
 2.0750	10.6380
 2.0760	10.6450
 2.0770	10.6510
 2.0780	10.6610
 2.0790	10.6800
 2.0800	10.6950
 2.0810	10.7090
 2.0820	10.7220
 2.0830	10.7410
 2.0840	10.7490
 2.0850	10.7430
 2.0860	10.7470
 2.0870	10.7490
 2.0880	10.7510
 2.0890	10.7620
 2.0900	10.7870
 2.0910	10.8000
 2.0920	10.8100
 2.0930	10.8230
 2.0940	10.8320
 2.0950	10.8450
 2.0960	10.8610
 2.0970	10.8770
 2.0980	10.8940
 2.0990	10.9100
 2.1000	10.9270
 2.1010	10.9440
 2.1020	10.9650
 2.1030	10.9790
 2.1040	10.9950
 2.1050	11.0020
 2.1060	11.0110
 2.1070	11.0140
 2.1080	11.0210
 2.1090	11.0300
 2.1100	11.0360
 2.1110	11.0400
 2.1120	11.0470
 2.1130	11.0540
 2.1140	11.0620
 2.1150	11.0720
 2.1160	11.0780
 2.1170	11.0830
 2.1180	11.0840
 2.1190	11.0740
 2.1200	11.0740
 2.1210	11.0740
 2.1220	11.0790
 2.1230	11.0890
 2.1240	11.1120
 2.1250	11.1200
 2.1260	11.1230
 2.1270	11.1310
 2.1280	11.1350
 2.1290	11.1430
 2.1300	11.1600
 2.1310	11.1690
 2.1320	11.1730
 2.1330	11.1790
 2.1340	11.1800
 2.1350	11.1880
 2.1360	11.2010
 2.1370	11.2130
 2.1380	11.2300
 2.1390	11.2440
 2.1400	11.2490
 2.1410	11.2640
 2.1420	11.2810
 2.1430	11.3000
 2.1440	11.3180
 2.1450	11.3440
 2.1460	11.3580
 2.1470	11.3620
 2.1480	11.3750
 2.1490	11.3850
 2.1500	11.4000
 2.1510	11.4220
 2.1520	11.4380
 2.1530	11.4480
 2.1540	11.4650
 2.1550	11.4850
 2.1560	11.5020
 2.1570	11.5170
 2.1580	11.5390
 2.1590	11.5670
 2.1600	11.5870
 2.1610	11.6110
 2.1620	11.6490
 2.1630	11.6780
 2.1640	11.7040
 2.1650	11.7250
 2.1660	11.7410
 2.1670	11.7580
 2.1680	11.7680
 2.1690	11.7860
 2.1700	11.8110
 2.1710	11.8310
 2.1720	11.8550
 2.1730	11.8730
 2.1740	11.8860
 2.1750	11.9000
 2.1760	11.9110
 2.1770	11.9240
 2.1780	11.9430
 2.1790	11.9570
 2.1800	11.9650
 2.1810	11.9780
 2.1820	11.9910
 2.1830	12.0060
 2.1840	12.0240
 2.1850	12.0520
 2.1860	12.0670
 2.1870	12.0770
 2.1880	12.0880
 2.1890	12.0840
 2.1900	12.1060
 2.1910	12.1480
 2.1920	12.1730
 2.1930	12.2080
 2.1940	12.2310
 2.1950	12.2320
 2.1960	12.2450
 2.1970	12.2600
 2.1980	12.2740
 2.1990	12.2880
 2.2000	12.3040
 2.2010	12.3190
 2.2020	12.3380
 2.2030	12.3650
 2.2040	12.3850
 2.2050	12.3990
 2.2060	12.4230
 2.2070	12.4410
 2.2080	12.4560
 2.2090	12.4690
 2.2100	12.4830
 2.2110	12.4930
 2.2120	12.4960
 2.2130	12.5030
 2.2140	12.5100
 2.2150	12.5210
 2.2160	12.5380
 2.2170	12.5490
 2.2180	12.5600
 2.2190	12.5680
 2.2200	12.5670
 2.2210	12.5690
 2.2220	12.5710
 2.2230	12.5750
 2.2240	12.5790
 2.2250	12.5820
 2.2260	12.5870
 2.2270	12.5890
 2.2280	12.5880
 2.2290	12.5860
 2.2300	12.5810
 2.2310	12.5790
 2.2320	12.5640
 2.2330	12.5520
 2.2340	12.5340
 2.2350	12.5110
 2.2360	12.4830
 2.2370	12.4510
 2.2380	12.4220
 2.2390	12.3880
 2.2400	12.3560
 2.2410	12.3260
 2.2420	12.2950
 2.2430	12.2640
 2.2440	12.2240
 2.2450	12.1790
 2.2460	12.1350
 2.2470	12.0840
 2.2480	12.0360
 2.2490	11.9930
 2.2500	11.9480
 2.2510	11.9030
 2.2520	11.8510
 2.2530	11.7920
 2.2540	11.7420
 2.2550	11.6940
 2.2560	11.6420
 2.2570	11.5990
 2.2580	11.5490
 2.2590	11.4810
 2.2600	11.4240
 2.2610	11.3650
 2.2620	11.3230
 2.2630	11.2820
 2.2640	11.2550
 2.2650	11.2210
 2.2660	11.1780
 2.2670	11.1400
 2.2680	11.0990
 2.2690	11.0560
 2.2700	11.0170
 2.2710	10.9710
 2.2720	10.9110
 2.2730	10.8710
 2.2740	10.8380
 2.2750	10.8080
 2.2760	10.7890
 2.2770	10.7660
 2.2780	10.7440
 2.2790	10.7160
 2.2800	10.6860
 2.2810	10.6540
 2.2820	10.6130
 2.2830	10.5760
 2.2840	10.5370
 2.2850	10.5050
 2.2860	10.4840
 2.2870	10.4500
 2.2880	10.4080
 2.2890	10.3790
 2.2900	10.3560
 2.2910	10.3240
 2.2920	10.3080
 2.2930	10.2740
 2.2940	10.2090
 2.2950	10.1600
 2.2960	10.1120
 2.2970	10.0680
 2.2980	10.0370
 2.2990	 9.9920
 2.3000	 9.9470
 2.3010	 9.9100
 2.3020	 9.8720
 2.3030	 9.8380
 2.3040	 9.8090
 2.3050	 9.7830
 2.3060	 9.7530
 2.3070	 9.7220
 2.3080	 9.7000
 2.3090	 9.6810
 2.3100	 9.6820
 2.3110	 9.7030
 2.3120	 9.7060
 2.3130	 9.7120
 2.3140	 9.7160
 2.3150	 9.7080
 2.3160	 9.7150
 2.3170	 9.7350
 2.3180	 9.7450
 2.3190	 9.7520
 2.3200	 9.7630
 2.3210	 9.7750
 2.3220	 9.7890
 2.3230	 9.8150
 2.3240	 9.8150
 2.3250	 9.7930
 2.3260	 9.7870
 2.3270	 9.7760
 2.3280	 9.7620
 2.3290	 9.7600
 2.3300	 9.7490
 2.3310	 9.7270
 2.3320	 9.6990
 2.3330	 9.6690
 2.3340	 9.6380
 2.3350	 9.5830
 2.3360	 9.5580
 2.3370	 9.5560
 2.3380	 9.5480
 2.3390	 9.5640
 2.3400	 9.5570
 2.3410	 9.5270
 2.3420	 9.5110
 2.3430	 9.4980
 2.3440	 9.4740
 2.3450	 9.4470
 2.3460	 9.4270
 2.3470	 9.3900
 2.3480	 9.3670
 2.3490	 9.3670
 2.3500	 9.3600
 2.3510	 9.3480
 2.3520	 9.3450
 2.3530	 9.3470
 2.3540	 9.3510
 2.3550	 9.3670
 2.3560	 9.3800
 2.3570	 9.3780
 2.3580	 9.3920
 2.3590	 9.3970
 2.3600	 9.3750
 2.3610	 9.3620
 2.3620	 9.3210
 2.3630	 9.2830
 2.3640	 9.2760
 2.3650	 9.2640
 2.3660	 9.2780
 2.3670	 9.2940
 2.3680	 9.2950
 2.3690	 9.2980
 2.3700	 9.2830
 2.3710	 9.2500
 2.3720	 9.2190
 2.3730	 9.1840
 2.3740	 9.1510
 2.3750	 9.1350
 2.3760	 9.1110
 2.3770	 9.0820
 2.3780	 9.0660
 2.3790	 9.0440
 2.3800	 9.0300
 2.3810	 9.0280
 2.3820	 9.0090
 2.3830	 8.9850
 2.3840	 8.9630
 2.3850	 8.9450
 2.3860	 8.9440
 2.3870	 8.9570
 2.3880	 8.9590
 2.3890	 8.9730
 2.3900	 8.9890
 2.3910	 8.9620
 2.3920	 8.9380
 2.3930	 8.9010
 2.3940	 8.8480
 2.3950	 8.8130
 2.3960	 8.7850
 2.3970	 8.7350
 2.3980	 8.7000
 2.3990	 8.7130
 2.4000	 8.6830
 2.4010	 8.6580
 2.4020	 8.6670
 2.4030	 8.6350
 2.4040	 8.6480
 2.4050	 8.6680
 2.4060	 8.6410
 2.4070	 8.6460
 2.4080	 8.6230
 2.4090	 8.5730
 2.4100	 8.5740
 2.4110	 8.5620
 2.4120	 8.5120
 2.4130	 8.5190
 2.4140	 8.5150
 2.4150	 8.4580
 2.4160	 8.4520
 2.4170	 8.4780
 2.4180	 8.4700
 2.4190	 8.4880
 2.4200	 8.5140
 2.4210	 8.4620
 2.4220	 8.4090
 2.4230	 8.3540
 2.4240	 8.2870
 2.4250	 8.2900
 2.4260	 8.3040
 2.4270	 8.3100
 2.4280	 8.3610
 2.4290	 8.3560
 2.4300	 8.3070
 2.4310	 8.3220
 2.4320	 8.3170
 2.4330	 8.2630
 2.4340	 8.2530
 2.4350	 8.2200
 2.4360	 8.1320
 2.4370	 8.1260
 2.4380	 8.1160
 2.4390	 8.0780
 2.4400	 8.0760
 2.4410	 8.0460
 2.4420	 8.0620
 2.4430	 8.1080
 2.4440	 8.1090
 2.4450	 8.0520
 2.4460	 7.9710
 2.4470	 7.8940
 2.4480	 7.8380
 2.4490	 7.8410
 2.4500	 7.8690
 2.4510	 7.8940
 2.4520	 7.9410
 2.4530	 7.9800
 2.4540	 7.9530
 2.4550	 7.9190
 2.4560	 7.8480
 2.4570	 7.7890
 2.4580	 7.8170
 2.4590	 7.8080
 2.4600	 7.7960
 2.4610	 7.7920
 2.4620	 7.7800
 2.4630	 7.7940
 2.4640	 7.8100
 2.4650	 7.8320
 2.4660	 7.7990
 2.4670	 7.7120
 2.4680	 7.7170
 2.4690	 7.6790
 2.4700	 7.6690
 2.4710	 7.7320
 2.4720	 7.7310
 2.4730	 7.7230
 2.4740	 7.6870
 2.4750	 7.6330
 2.4760	 7.5990
 2.4770	 7.4830
 2.4780	 7.4750
 2.4790	 7.5030
 2.4800	 7.4860
 2.4810	 7.5950
 2.4820	 7.5870
 2.4830	 7.5500
 2.4840	 7.4610
 2.4850	 7.3270
 2.4860	 7.2750
 2.4870	 7.3380
 2.4880	 7.4590
 2.4890	 7.5410
 2.4900	 7.6180
 2.4910	 7.5910
 2.4920	 7.5230
 2.4930	 7.5470
 2.4940	 7.5230
 2.4950	 7.4770
 2.4960	 7.5650
 2.4970	 7.6520
 2.4980	 7.5870
 2.4990	 7.5850
 2.5000	 7.6940
