Name: Jacaranda mimosifolia
Type: vegetation
Class: Tree
Genus: Jacaranda
Species: mimosifolia
Sample No.: JPL201
Owner: JPL
Wavelength Range: VSWIR
Origin: 34.12558; -118.11333; WGS84
Collection Date: 10/3/2016
Description: Samples were collected at the Huntington Garden in San Marino California as part of a JPL Subcontract studying HyTES imagery. Samples were taken to JPL and processed within 48 hours of collection. The same leaves were processed in the Nicolet and then measured using the ASD.
Measurement: Bidirectional reflectance
First Column: X
Second Column: Y
X Units: Wavelength (micrometer)
Y Units: Reflectance (percentage)
First X Value: 0.35
Last X Value: 2.5
Number of X Values: 2151
Additional Information: vegetation.tree.jacaranda.mimosifolia.vswir.jpl201.jpl.asd.ancillary.txt

 0.3500	 2.6290
 0.3510	 2.6980
 0.3520	 2.7250
 0.3530	 2.6860
 0.3540	 2.6310
 0.3550	 2.6830
 0.3560	 2.6690
 0.3570	 2.6430
 0.3580	 2.7350
 0.3590	 2.6720
 0.3600	 2.6710
 0.3610	 2.7700
 0.3620	 2.6990
 0.3630	 2.6480
 0.3640	 2.6440
 0.3650	 2.6590
 0.3660	 2.6390
 0.3670	 2.6340
 0.3680	 2.6270
 0.3690	 2.5670
 0.3700	 2.5780
 0.3710	 2.6070
 0.3720	 2.6120
 0.3730	 2.6200
 0.3740	 2.5880
 0.3750	 2.5500
 0.3760	 2.5540
 0.3770	 2.6050
 0.3780	 2.6150
 0.3790	 2.5850
 0.3800	 2.5910
 0.3810	 2.5900
 0.3820	 2.5930
 0.3830	 2.5990
 0.3840	 2.5580
 0.3850	 2.5360
 0.3860	 2.5170
 0.3870	 2.4810
 0.3880	 2.5690
 0.3890	 2.6380
 0.3900	 2.6220
 0.3910	 2.5570
 0.3920	 2.5760
 0.3930	 2.6020
 0.3940	 2.5730
 0.3950	 2.5790
 0.3960	 2.5850
 0.3970	 2.5860
 0.3980	 2.5880
 0.3990	 2.5970
 0.4000	 2.6060
 0.4010	 2.6100
 0.4020	 2.6070
 0.4030	 2.5870
 0.4040	 2.5880
 0.4050	 2.6270
 0.4060	 2.6240
 0.4070	 2.6260
 0.4080	 2.6420
 0.4090	 2.6520
 0.4100	 2.6420
 0.4110	 2.6420
 0.4120	 2.6660
 0.4130	 2.6870
 0.4140	 2.6970
 0.4150	 2.7040
 0.4160	 2.7150
 0.4170	 2.7080
 0.4180	 2.7190
 0.4190	 2.7440
 0.4200	 2.7470
 0.4210	 2.7530
 0.4220	 2.7630
 0.4230	 2.7740
 0.4240	 2.7730
 0.4250	 2.7780
 0.4260	 2.7890
 0.4270	 2.7970
 0.4280	 2.8010
 0.4290	 2.8140
 0.4300	 2.8320
 0.4310	 2.8360
 0.4320	 2.8330
 0.4330	 2.8370
 0.4340	 2.8540
 0.4350	 2.8540
 0.4360	 2.8530
 0.4370	 2.8580
 0.4380	 2.8730
 0.4390	 2.8690
 0.4400	 2.8660
 0.4410	 2.8780
 0.4420	 2.8730
 0.4430	 2.8810
 0.4440	 2.8970
 0.4450	 2.9060
 0.4460	 2.9120
 0.4470	 2.9130
 0.4480	 2.9130
 0.4490	 2.9220
 0.4500	 2.9310
 0.4510	 2.9430
 0.4520	 2.9570
 0.4530	 2.9570
 0.4540	 2.9630
 0.4550	 2.9730
 0.4560	 2.9740
 0.4570	 2.9820
 0.4580	 2.9920
 0.4590	 2.9970
 0.4600	 3.0020
 0.4610	 3.0020
 0.4620	 2.9980
 0.4630	 2.9920
 0.4640	 2.9960
 0.4650	 3.0060
 0.4660	 3.0160
 0.4670	 3.0200
 0.4680	 3.0140
 0.4690	 3.0070
 0.4700	 3.0050
 0.4710	 3.0110
 0.4720	 3.0160
 0.4730	 3.0180
 0.4740	 3.0180
 0.4750	 3.0240
 0.4760	 3.0270
 0.4770	 3.0250
 0.4780	 3.0350
 0.4790	 3.0360
 0.4800	 3.0360
 0.4810	 3.0410
 0.4820	 3.0470
 0.4830	 3.0510
 0.4840	 3.0540
 0.4850	 3.0610
 0.4860	 3.0680
 0.4870	 3.0790
 0.4880	 3.0950
 0.4890	 3.0970
 0.4900	 3.1060
 0.4910	 3.1260
 0.4920	 3.1480
 0.4930	 3.1630
 0.4940	 3.1790
 0.4950	 3.2020
 0.4960	 3.2210
 0.4970	 3.2460
 0.4980	 3.2760
 0.4990	 3.3100
 0.5000	 3.3460
 0.5010	 3.3840
 0.5020	 3.4310
 0.5030	 3.4910
 0.5040	 3.5470
 0.5050	 3.6010
 0.5060	 3.6600
 0.5070	 3.7370
 0.5080	 3.8170
 0.5090	 3.9020
 0.5100	 3.9980
 0.5110	 4.1120
 0.5120	 4.2300
 0.5130	 4.3480
 0.5140	 4.4800
 0.5150	 4.6190
 0.5160	 4.7670
 0.5170	 4.9250
 0.5180	 5.0890
 0.5190	 5.2550
 0.5200	 5.4240
 0.5210	 5.6030
 0.5220	 5.7840
 0.5230	 5.9620
 0.5240	 6.1360
 0.5250	 6.3100
 0.5260	 6.4750
 0.5270	 6.6320
 0.5280	 6.7830
 0.5290	 6.9240
 0.5300	 7.0550
 0.5310	 7.1770
 0.5320	 7.2900
 0.5330	 7.3920
 0.5340	 7.4860
 0.5350	 7.5710
 0.5360	 7.6420
 0.5370	 7.7060
 0.5380	 7.7680
 0.5390	 7.8290
 0.5400	 7.8900
 0.5410	 7.9500
 0.5420	 8.0100
 0.5430	 8.0620
 0.5440	 8.1020
 0.5450	 8.1280
 0.5460	 8.1410
 0.5470	 8.1440
 0.5480	 8.1500
 0.5490	 8.1600
 0.5500	 8.1690
 0.5510	 8.1730
 0.5520	 8.1740
 0.5530	 8.1700
 0.5540	 8.1540
 0.5550	 8.1240
 0.5560	 8.0860
 0.5570	 8.0450
 0.5580	 7.9920
 0.5590	 7.9300
 0.5600	 7.8600
 0.5610	 7.7820
 0.5620	 7.7010
 0.5630	 7.6140
 0.5640	 7.5220
 0.5650	 7.4240
 0.5660	 7.3230
 0.5670	 7.2200
 0.5680	 7.1150
 0.5690	 7.0080
 0.5700	 6.9000
 0.5710	 6.7930
 0.5720	 6.6900
 0.5730	 6.5880
 0.5740	 6.4900
 0.5750	 6.4010
 0.5760	 6.3160
 0.5770	 6.2350
 0.5780	 6.1600
 0.5790	 6.0940
 0.5800	 6.0280
 0.5810	 5.9620
 0.5820	 5.9040
 0.5830	 5.8540
 0.5840	 5.8070
 0.5850	 5.7590
 0.5860	 5.7110
 0.5870	 5.6690
 0.5880	 5.6310
 0.5890	 5.5930
 0.5900	 5.5560
 0.5910	 5.5250
 0.5920	 5.4960
 0.5930	 5.4670
 0.5940	 5.4410
 0.5950	 5.4210
 0.5960	 5.4040
 0.5970	 5.3830
 0.5980	 5.3650
 0.5990	 5.3480
 0.6000	 5.3280
 0.6010	 5.3040
 0.6020	 5.2790
 0.6030	 5.2520
 0.6040	 5.2220
 0.6050	 5.1880
 0.6060	 5.1500
 0.6070	 5.1130
 0.6080	 5.0720
 0.6090	 5.0300
 0.6100	 4.9930
 0.6110	 4.9610
 0.6120	 4.9160
 0.6130	 4.8600
 0.6140	 4.8020
 0.6150	 4.7560
 0.6160	 4.7090
 0.6170	 4.6630
 0.6180	 4.6200
 0.6190	 4.5850
 0.6200	 4.5540
 0.6210	 4.5240
 0.6220	 4.5010
 0.6230	 4.4790
 0.6240	 4.4590
 0.6250	 4.4440
 0.6260	 4.4310
 0.6270	 4.4220
 0.6280	 4.4160
 0.6290	 4.4090
 0.6300	 4.4040
 0.6310	 4.3970
 0.6320	 4.3850
 0.6330	 4.3680
 0.6340	 4.3490
 0.6350	 4.3270
 0.6360	 4.2970
 0.6370	 4.2630
 0.6380	 4.2190
 0.6390	 4.1690
 0.6400	 4.1210
 0.6410	 4.0690
 0.6420	 4.0170
 0.6430	 3.9650
 0.6440	 3.9100
 0.6450	 3.8580
 0.6460	 3.8110
 0.6470	 3.7660
 0.6480	 3.7260
 0.6490	 3.6920
 0.6500	 3.6640
 0.6510	 3.6400
 0.6520	 3.6200
 0.6530	 3.6030
 0.6540	 3.5860
 0.6550	 3.5680
 0.6560	 3.5500
 0.6570	 3.5300
 0.6580	 3.5050
 0.6590	 3.4750
 0.6600	 3.4470
 0.6610	 3.4200
 0.6620	 3.3920
 0.6630	 3.3650
 0.6640	 3.3390
 0.6650	 3.3170
 0.6660	 3.2990
 0.6670	 3.2850
 0.6680	 3.2740
 0.6690	 3.2650
 0.6700	 3.2630
 0.6710	 3.2630
 0.6720	 3.2630
 0.6730	 3.2690
 0.6740	 3.2780
 0.6750	 3.2910
 0.6760	 3.3080
 0.6770	 3.3240
 0.6780	 3.3440
 0.6790	 3.3670
 0.6800	 3.3930
 0.6810	 3.4250
 0.6820	 3.4610
 0.6830	 3.5010
 0.6840	 3.5480
 0.6850	 3.6070
 0.6860	 3.6790
 0.6870	 3.7640
 0.6880	 3.8700
 0.6890	 4.0030
 0.6900	 4.1670
 0.6910	 4.3670
 0.6920	 4.6090
 0.6930	 4.8930
 0.6940	 5.2210
 0.6950	 5.5960
 0.6960	 6.0150
 0.6970	 6.4770
 0.6980	 6.9750
 0.6990	 7.5010
 0.7000	 8.0550
 0.7010	 8.6300
 0.7020	 9.2180
 0.7030	 9.8170
 0.7040	10.4220
 0.7050	11.0270
 0.7060	11.6340
 0.7070	12.2370
 0.7080	12.8350
 0.7090	13.4320
 0.7100	14.0230
 0.7110	14.6130
 0.7120	15.2010
 0.7130	15.7840
 0.7140	16.3580
 0.7150	16.9290
 0.7160	17.4960
 0.7170	18.0560
 0.7180	18.6070
 0.7190	19.1500
 0.7200	19.6840
 0.7210	20.2040
 0.7220	20.7100
 0.7230	21.2040
 0.7240	21.6820
 0.7250	22.1460
 0.7260	22.5910
 0.7270	23.0170
 0.7280	23.4250
 0.7290	23.8140
 0.7300	24.1860
 0.7310	24.5380
 0.7320	24.8740
 0.7330	25.1900
 0.7340	25.4850
 0.7350	25.7630
 0.7360	26.0260
 0.7370	26.2710
 0.7380	26.4990
 0.7390	26.7170
 0.7400	26.9180
 0.7410	27.1030
 0.7420	27.2760
 0.7430	27.4350
 0.7440	27.5790
 0.7450	27.7110
 0.7460	27.8310
 0.7470	27.9400
 0.7480	28.0410
 0.7490	28.1350
 0.7500	28.2190
 0.7510	28.2940
 0.7520	28.3620
 0.7530	28.4230
 0.7540	28.4780
 0.7550	28.5280
 0.7560	28.5750
 0.7570	28.6180
 0.7580	28.6570
 0.7590	28.6910
 0.7600	28.7210
 0.7610	28.7500
 0.7620	28.7730
 0.7630	28.7940
 0.7640	28.8160
 0.7650	28.8300
 0.7660	28.8450
 0.7670	28.8620
 0.7680	28.8750
 0.7690	28.8850
 0.7700	28.8950
 0.7710	28.9060
 0.7720	28.9160
 0.7730	28.9220
 0.7740	28.9290
 0.7750	28.9400
 0.7760	28.9480
 0.7770	28.9530
 0.7780	28.9580
 0.7790	28.9640
 0.7800	28.9690
 0.7810	28.9750
 0.7820	28.9790
 0.7830	28.9820
 0.7840	28.9880
 0.7850	28.9930
 0.7860	28.9960
 0.7870	28.9990
 0.7880	29.0020
 0.7890	29.0040
 0.7900	29.0040
 0.7910	29.0070
 0.7920	29.0080
 0.7930	29.0070
 0.7940	29.0110
 0.7950	29.0100
 0.7960	29.0070
 0.7970	29.0050
 0.7980	29.0030
 0.7990	29.0010
 0.8000	28.9990
 0.8010	28.9930
 0.8020	28.9880
 0.8030	28.9830
 0.8040	28.9790
 0.8050	28.9760
 0.8060	28.9710
 0.8070	28.9640
 0.8080	28.9570
 0.8090	28.9510
 0.8100	28.9460
 0.8110	28.9390
 0.8120	28.9290
 0.8130	28.9230
 0.8140	28.9140
 0.8150	28.9040
 0.8160	28.8960
 0.8170	28.8900
 0.8180	28.8820
 0.8190	28.8720
 0.8200	28.8630
 0.8210	28.8540
 0.8220	28.8480
 0.8230	28.8420
 0.8240	28.8340
 0.8250	28.8240
 0.8260	28.8160
 0.8270	28.8080
 0.8280	28.7980
 0.8290	28.7900
 0.8300	28.7850
 0.8310	28.7790
 0.8320	28.7690
 0.8330	28.7600
 0.8340	28.7530
 0.8350	28.7480
 0.8360	28.7440
 0.8370	28.7390
 0.8380	28.7330
 0.8390	28.7290
 0.8400	28.7240
 0.8410	28.7220
 0.8420	28.7220
 0.8430	28.7180
 0.8440	28.7120
 0.8450	28.7070
 0.8460	28.7040
 0.8470	28.7040
 0.8480	28.7040
 0.8490	28.7030
 0.8500	28.7000
 0.8510	28.6980
 0.8520	28.6970
 0.8530	28.7000
 0.8540	28.7070
 0.8550	28.7060
 0.8560	28.7030
 0.8570	28.7020
 0.8580	28.7050
 0.8590	28.7080
 0.8600	28.7120
 0.8610	28.7160
 0.8620	28.7180
 0.8630	28.7170
 0.8640	28.7180
 0.8650	28.7240
 0.8660	28.7280
 0.8670	28.7320
 0.8680	28.7370
 0.8690	28.7410
 0.8700	28.7420
 0.8710	28.7430
 0.8720	28.7480
 0.8730	28.7550
 0.8740	28.7590
 0.8750	28.7650
 0.8760	28.7710
 0.8770	28.7740
 0.8780	28.7800
 0.8790	28.7870
 0.8800	28.7940
 0.8810	28.8020
 0.8820	28.8080
 0.8830	28.8120
 0.8840	28.8160
 0.8850	28.8210
 0.8860	28.8270
 0.8870	28.8320
 0.8880	28.8350
 0.8890	28.8430
 0.8900	28.8510
 0.8910	28.8570
 0.8920	28.8590
 0.8930	28.8610
 0.8940	28.8660
 0.8950	28.8730
 0.8960	28.8820
 0.8970	28.8850
 0.8980	28.8910
 0.8990	28.8980
 0.9000	28.9010
 0.9010	28.9050
 0.9020	28.9100
 0.9030	28.9160
 0.9040	28.9220
 0.9050	28.9240
 0.9060	28.9290
 0.9070	28.9370
 0.9080	28.9390
 0.9090	28.9430
 0.9100	28.9510
 0.9110	28.9570
 0.9120	28.9510
 0.9130	28.9510
 0.9140	28.9560
 0.9150	28.9630
 0.9160	28.9650
 0.9170	28.9640
 0.9180	28.9630
 0.9190	28.9630
 0.9200	28.9660
 0.9210	28.9690
 0.9220	28.9710
 0.9230	28.9710
 0.9240	28.9680
 0.9250	28.9670
 0.9260	28.9650
 0.9270	28.9570
 0.9280	28.9520
 0.9290	28.9450
 0.9300	28.9400
 0.9310	28.9440
 0.9320	28.9350
 0.9330	28.9250
 0.9340	28.9190
 0.9350	28.9120
 0.9360	28.9030
 0.9370	28.8990
 0.9380	28.8990
 0.9390	28.8840
 0.9400	28.8760
 0.9410	28.8680
 0.9420	28.8540
 0.9430	28.8430
 0.9440	28.8310
 0.9450	28.8180
 0.9460	28.8090
 0.9470	28.8000
 0.9480	28.7860
 0.9490	28.7650
 0.9500	28.7390
 0.9510	28.7150
 0.9520	28.6940
 0.9530	28.6770
 0.9540	28.6610
 0.9550	28.6410
 0.9560	28.6180
 0.9570	28.5970
 0.9580	28.5820
 0.9590	28.5680
 0.9600	28.5510
 0.9610	28.5290
 0.9620	28.5040
 0.9630	28.4960
 0.9640	28.4860
 0.9650	28.4760
 0.9660	28.4710
 0.9670	28.4560
 0.9680	28.4450
 0.9690	28.4390
 0.9700	28.4330
 0.9710	28.4150
 0.9720	28.4010
 0.9730	28.4000
 0.9740	28.4060
 0.9750	28.3960
 0.9760	28.3880
 0.9770	28.3880
 0.9780	28.3910
 0.9790	28.3810
 0.9800	28.3690
 0.9810	28.3580
 0.9820	28.3480
 0.9830	28.3630
 0.9840	28.3730
 0.9850	28.3640
 0.9860	28.3410
 0.9870	28.3490
 0.9880	28.3610
 0.9890	28.3660
 0.9900	28.3610
 0.9910	28.3580
 0.9920	28.3640
 0.9930	28.3710
 0.9940	28.3660
 0.9950	28.3690
 0.9960	28.3640
 0.9970	28.3510
 0.9980	28.3440
 0.9990	28.3630
 1.0000	28.3830
 1.0010	28.4160
 1.0020	28.4180
 1.0030	28.4220
 1.0040	28.4260
 1.0050	28.4310
 1.0060	28.4350
 1.0070	28.4380
 1.0080	28.4410
 1.0090	28.4440
 1.0100	28.4470
 1.0110	28.4520
 1.0120	28.4570
 1.0130	28.4640
 1.0140	28.4700
 1.0150	28.4760
 1.0160	28.4790
 1.0170	28.4820
 1.0180	28.4810
 1.0190	28.4800
 1.0200	28.4860
 1.0210	28.4890
 1.0220	28.4940
 1.0230	28.4990
 1.0240	28.5040
 1.0250	28.5090
 1.0260	28.5180
 1.0270	28.5210
 1.0280	28.5190
 1.0290	28.5220
 1.0300	28.5230
 1.0310	28.5270
 1.0320	28.5360
 1.0330	28.5450
 1.0340	28.5500
 1.0350	28.5530
 1.0360	28.5560
 1.0370	28.5550
 1.0380	28.5560
 1.0390	28.5580
 1.0400	28.5600
 1.0410	28.5590
 1.0420	28.5610
 1.0430	28.5630
 1.0440	28.5650
 1.0450	28.5700
 1.0460	28.5730
 1.0470	28.5750
 1.0480	28.5780
 1.0490	28.5810
 1.0500	28.5830
 1.0510	28.5860
 1.0520	28.5880
 1.0530	28.5900
 1.0540	28.5900
 1.0550	28.5930
 1.0560	28.5980
 1.0570	28.6010
 1.0580	28.6050
 1.0590	28.6080
 1.0600	28.6100
 1.0610	28.6120
 1.0620	28.6130
 1.0630	28.6150
 1.0640	28.6180
 1.0650	28.6210
 1.0660	28.6240
 1.0670	28.6270
 1.0680	28.6290
 1.0690	28.6320
 1.0700	28.6330
 1.0710	28.6340
 1.0720	28.6370
 1.0730	28.6410
 1.0740	28.6440
 1.0750	28.6480
 1.0760	28.6520
 1.0770	28.6550
 1.0780	28.6570
 1.0790	28.6570
 1.0800	28.6590
 1.0810	28.6590
 1.0820	28.6600
 1.0830	28.6640
 1.0840	28.6660
 1.0850	28.6640
 1.0860	28.6650
 1.0870	28.6640
 1.0880	28.6620
 1.0890	28.6620
 1.0900	28.6620
 1.0910	28.6630
 1.0920	28.6680
 1.0930	28.6680
 1.0940	28.6670
 1.0950	28.6660
 1.0960	28.6610
 1.0970	28.6580
 1.0980	28.6560
 1.0990	28.6550
 1.1000	28.6560
 1.1010	28.6550
 1.1020	28.6530
 1.1030	28.6530
 1.1040	28.6510
 1.1050	28.6470
 1.1060	28.6440
 1.1070	28.6410
 1.1080	28.6380
 1.1090	28.6350
 1.1100	28.6310
 1.1110	28.6250
 1.1120	28.6200
 1.1130	28.6130
 1.1140	28.6060
 1.1150	28.6010
 1.1160	28.5940
 1.1170	28.5860
 1.1180	28.5780
 1.1190	28.5700
 1.1200	28.5600
 1.1210	28.5500
 1.1220	28.5390
 1.1230	28.5260
 1.1240	28.5110
 1.1250	28.4950
 1.1260	28.4780
 1.1270	28.4580
 1.1280	28.4360
 1.1290	28.4140
 1.1300	28.3910
 1.1310	28.3650
 1.1320	28.3360
 1.1330	28.3050
 1.1340	28.2700
 1.1350	28.2340
 1.1360	28.1960
 1.1370	28.1570
 1.1380	28.1180
 1.1390	28.0770
 1.1400	28.0340
 1.1410	27.9910
 1.1420	27.9480
 1.1430	27.9030
 1.1440	27.8600
 1.1450	27.8170
 1.1460	27.7740
 1.1470	27.7290
 1.1480	27.6870
 1.1490	27.6460
 1.1500	27.6090
 1.1510	27.5750
 1.1520	27.5420
 1.1530	27.5120
 1.1540	27.4830
 1.1550	27.4550
 1.1560	27.4280
 1.1570	27.4040
 1.1580	27.3800
 1.1590	27.3580
 1.1600	27.3410
 1.1610	27.3240
 1.1620	27.3100
 1.1630	27.2980
 1.1640	27.2860
 1.1650	27.2750
 1.1660	27.2640
 1.1670	27.2540
 1.1680	27.2450
 1.1690	27.2370
 1.1700	27.2300
 1.1710	27.2220
 1.1720	27.2150
 1.1730	27.2080
 1.1740	27.2000
 1.1750	27.1940
 1.1760	27.1890
 1.1770	27.1840
 1.1780	27.1790
 1.1790	27.1730
 1.1800	27.1680
 1.1810	27.1600
 1.1820	27.1540
 1.1830	27.1470
 1.1840	27.1390
 1.1850	27.1320
 1.1860	27.1240
 1.1870	27.1180
 1.1880	27.1120
 1.1890	27.1070
 1.1900	27.1020
 1.1910	27.0970
 1.1920	27.0930
 1.1930	27.0890
 1.1940	27.0870
 1.1950	27.0850
 1.1960	27.0840
 1.1970	27.0820
 1.1980	27.0800
 1.1990	27.0800
 1.2000	27.0790
 1.2010	27.0800
 1.2020	27.0830
 1.2030	27.0860
 1.2040	27.0890
 1.2050	27.0920
 1.2060	27.0960
 1.2070	27.1020
 1.2080	27.1080
 1.2090	27.1140
 1.2100	27.1200
 1.2110	27.1270
 1.2120	27.1340
 1.2130	27.1420
 1.2140	27.1510
 1.2150	27.1610
 1.2160	27.1710
 1.2170	27.1810
 1.2180	27.1890
 1.2190	27.1990
 1.2200	27.2090
 1.2210	27.2180
 1.2220	27.2290
 1.2230	27.2420
 1.2240	27.2530
 1.2250	27.2640
 1.2260	27.2740
 1.2270	27.2830
 1.2280	27.2920
 1.2290	27.3000
 1.2300	27.3070
 1.2310	27.3140
 1.2320	27.3210
 1.2330	27.3270
 1.2340	27.3340
 1.2350	27.3430
 1.2360	27.3490
 1.2370	27.3560
 1.2380	27.3620
 1.2390	27.3680
 1.2400	27.3730
 1.2410	27.3780
 1.2420	27.3830
 1.2430	27.3860
 1.2440	27.3910
 1.2450	27.3950
 1.2460	27.3980
 1.2470	27.4030
 1.2480	27.4060
 1.2490	27.4100
 1.2500	27.4150
 1.2510	27.4190
 1.2520	27.4230
 1.2530	27.4240
 1.2540	27.4250
 1.2550	27.4270
 1.2560	27.4290
 1.2570	27.4300
 1.2580	27.4330
 1.2590	27.4340
 1.2600	27.4340
 1.2610	27.4340
 1.2620	27.4330
 1.2630	27.4310
 1.2640	27.4280
 1.2650	27.4260
 1.2660	27.4250
 1.2670	27.4230
 1.2680	27.4210
 1.2690	27.4200
 1.2700	27.4180
 1.2710	27.4140
 1.2720	27.4090
 1.2730	27.4040
 1.2740	27.3970
 1.2750	27.3910
 1.2760	27.3850
 1.2770	27.3790
 1.2780	27.3720
 1.2790	27.3660
 1.2800	27.3580
 1.2810	27.3500
 1.2820	27.3420
 1.2830	27.3330
 1.2840	27.3240
 1.2850	27.3160
 1.2860	27.3050
 1.2870	27.2940
 1.2880	27.2830
 1.2890	27.2720
 1.2900	27.2610
 1.2910	27.2500
 1.2920	27.2390
 1.2930	27.2280
 1.2940	27.2150
 1.2950	27.2020
 1.2960	27.1900
 1.2970	27.1780
 1.2980	27.1630
 1.2990	27.1470
 1.3000	27.1310
 1.3010	27.1150
 1.3020	27.1010
 1.3030	27.0850
 1.3040	27.0670
 1.3050	27.0470
 1.3060	27.0270
 1.3070	27.0070
 1.3080	26.9850
 1.3090	26.9640
 1.3100	26.9400
 1.3110	26.9130
 1.3120	26.8870
 1.3130	26.8580
 1.3140	26.8290
 1.3150	26.7990
 1.3160	26.7680
 1.3170	26.7360
 1.3180	26.7040
 1.3190	26.6680
 1.3200	26.6320
 1.3210	26.5930
 1.3220	26.5520
 1.3230	26.5120
 1.3240	26.4700
 1.3250	26.4270
 1.3260	26.3840
 1.3270	26.3400
 1.3280	26.2940
 1.3290	26.2470
 1.3300	26.1980
 1.3310	26.1480
 1.3320	26.0970
 1.3330	26.0460
 1.3340	25.9950
 1.3350	25.9440
 1.3360	25.8910
 1.3370	25.8390
 1.3380	25.7860
 1.3390	25.7310
 1.3400	25.6770
 1.3410	25.6230
 1.3420	25.5700
 1.3430	25.5170
 1.3440	25.4660
 1.3450	25.4140
 1.3460	25.3610
 1.3470	25.3080
 1.3480	25.2540
 1.3490	25.2010
 1.3500	25.1490
 1.3510	25.0980
 1.3520	25.0470
 1.3530	24.9950
 1.3540	24.9420
 1.3550	24.8880
 1.3560	24.8340
 1.3570	24.7800
 1.3580	24.7270
 1.3590	24.6730
 1.3600	24.6190
 1.3610	24.5630
 1.3620	24.5040
 1.3630	24.4450
 1.3640	24.3850
 1.3650	24.3230
 1.3660	24.2580
 1.3670	24.1890
 1.3680	24.1150
 1.3690	24.0360
 1.3700	23.9520
 1.3710	23.8630
 1.3720	23.7680
 1.3730	23.6650
 1.3740	23.5530
 1.3750	23.4320
 1.3760	23.2990
 1.3770	23.1560
 1.3780	23.0020
 1.3790	22.8350
 1.3800	22.6590
 1.3810	22.4700
 1.3820	22.2690
 1.3830	22.0580
 1.3840	21.8360
 1.3850	21.6010
 1.3860	21.3570
 1.3870	21.1000
 1.3880	20.8360
 1.3890	20.5630
 1.3900	20.2800
 1.3910	19.9930
 1.3920	19.6990
 1.3930	19.3980
 1.3940	19.0960
 1.3950	18.7890
 1.3960	18.4820
 1.3970	18.1770
 1.3980	17.8740
 1.3990	17.5780
 1.4000	17.2860
 1.4010	16.9990
 1.4020	16.7210
 1.4030	16.4470
 1.4040	16.1840
 1.4050	15.9300
 1.4060	15.6860
 1.4070	15.4560
 1.4080	15.2370
 1.4090	15.0270
 1.4100	14.8300
 1.4110	14.6410
 1.4120	14.4650
 1.4130	14.3000
 1.4140	14.1450
 1.4150	14.0020
 1.4160	13.8680
 1.4170	13.7420
 1.4180	13.6260
 1.4190	13.5180
 1.4200	13.4180
 1.4210	13.3260
 1.4220	13.2410
 1.4230	13.1630
 1.4240	13.0920
 1.4250	13.0270
 1.4260	12.9680
 1.4270	12.9130
 1.4280	12.8630
 1.4290	12.8180
 1.4300	12.7780
 1.4310	12.7420
 1.4320	12.7120
 1.4330	12.6840
 1.4340	12.6600
 1.4350	12.6390
 1.4360	12.6210
 1.4370	12.6070
 1.4380	12.5960
 1.4390	12.5900
 1.4400	12.5870
 1.4410	12.5840
 1.4420	12.5840
 1.4430	12.5850
 1.4440	12.5870
 1.4450	12.5910
 1.4460	12.5970
 1.4470	12.6050
 1.4480	12.6140
 1.4490	12.6250
 1.4500	12.6370
 1.4510	12.6490
 1.4520	12.6620
 1.4530	12.6770
 1.4540	12.6920
 1.4550	12.7090
 1.4560	12.7270
 1.4570	12.7450
 1.4580	12.7670
 1.4590	12.7900
 1.4600	12.8150
 1.4610	12.8440
 1.4620	12.8750
 1.4630	12.9090
 1.4640	12.9450
 1.4650	12.9850
 1.4660	13.0290
 1.4670	13.0750
 1.4680	13.1240
 1.4690	13.1770
 1.4700	13.2330
 1.4710	13.2920
 1.4720	13.3520
 1.4730	13.4150
 1.4740	13.4790
 1.4750	13.5450
 1.4760	13.6150
 1.4770	13.6850
 1.4780	13.7570
 1.4790	13.8300
 1.4800	13.9040
 1.4810	13.9780
 1.4820	14.0540
 1.4830	14.1310
 1.4840	14.2080
 1.4850	14.2860
 1.4860	14.3640
 1.4870	14.4420
 1.4880	14.5210
 1.4890	14.5990
 1.4900	14.6780
 1.4910	14.7570
 1.4920	14.8370
 1.4930	14.9180
 1.4940	14.9980
 1.4950	15.0800
 1.4960	15.1600
 1.4970	15.2370
 1.4980	15.3160
 1.4990	15.3950
 1.5000	15.4730
 1.5010	15.5520
 1.5020	15.6310
 1.5030	15.7090
 1.5040	15.7870
 1.5050	15.8640
 1.5060	15.9420
 1.5070	16.0200
 1.5080	16.0980
 1.5090	16.1750
 1.5100	16.2520
 1.5110	16.3270
 1.5120	16.4020
 1.5130	16.4760
 1.5140	16.5500
 1.5150	16.6240
 1.5160	16.6960
 1.5170	16.7680
 1.5180	16.8390
 1.5190	16.9100
 1.5200	16.9810
 1.5210	17.0490
 1.5220	17.1170
 1.5230	17.1850
 1.5240	17.2510
 1.5250	17.3180
 1.5260	17.3840
 1.5270	17.4500
 1.5280	17.5160
 1.5290	17.5810
 1.5300	17.6440
 1.5310	17.7050
 1.5320	17.7650
 1.5330	17.8250
 1.5340	17.8840
 1.5350	17.9430
 1.5360	18.0030
 1.5370	18.0600
 1.5380	18.1180
 1.5390	18.1760
 1.5400	18.2320
 1.5410	18.2880
 1.5420	18.3430
 1.5430	18.3970
 1.5440	18.4520
 1.5450	18.5070
 1.5460	18.5600
 1.5470	18.6130
 1.5480	18.6640
 1.5490	18.7150
 1.5500	18.7670
 1.5510	18.8180
 1.5520	18.8680
 1.5530	18.9160
 1.5540	18.9650
 1.5550	19.0110
 1.5560	19.0570
 1.5570	19.1040
 1.5580	19.1490
 1.5590	19.1960
 1.5600	19.2420
 1.5610	19.2860
 1.5620	19.3290
 1.5630	19.3720
 1.5640	19.4150
 1.5650	19.4570
 1.5660	19.4990
 1.5670	19.5400
 1.5680	19.5810
 1.5690	19.6220
 1.5700	19.6620
 1.5710	19.7010
 1.5720	19.7390
 1.5730	19.7770
 1.5740	19.8150
 1.5750	19.8530
 1.5760	19.8910
 1.5770	19.9280
 1.5780	19.9660
 1.5790	20.0020
 1.5800	20.0370
 1.5810	20.0750
 1.5820	20.1110
 1.5830	20.1470
 1.5840	20.1830
 1.5850	20.2170
 1.5860	20.2510
 1.5870	20.2860
 1.5880	20.3210
 1.5890	20.3560
 1.5900	20.3920
 1.5910	20.4250
 1.5920	20.4580
 1.5930	20.4900
 1.5940	20.5210
 1.5950	20.5530
 1.5960	20.5860
 1.5970	20.6190
 1.5980	20.6500
 1.5990	20.6810
 1.6000	20.7110
 1.6010	20.7410
 1.6020	20.7720
 1.6030	20.8040
 1.6040	20.8340
 1.6050	20.8620
 1.6060	20.8900
 1.6070	20.9180
 1.6080	20.9450
 1.6090	20.9730
 1.6100	21.0010
 1.6110	21.0280
 1.6120	21.0530
 1.6130	21.0770
 1.6140	21.1000
 1.6150	21.1230
 1.6160	21.1460
 1.6170	21.1690
 1.6180	21.1910
 1.6190	21.2120
 1.6200	21.2320
 1.6210	21.2510
 1.6220	21.2700
 1.6230	21.2890
 1.6240	21.3080
 1.6250	21.3250
 1.6260	21.3430
 1.6270	21.3610
 1.6280	21.3780
 1.6290	21.3950
 1.6300	21.4110
 1.6310	21.4260
 1.6320	21.4430
 1.6330	21.4570
 1.6340	21.4710
 1.6350	21.4850
 1.6360	21.4980
 1.6370	21.5110
 1.6380	21.5240
 1.6390	21.5360
 1.6400	21.5480
 1.6410	21.5580
 1.6420	21.5680
 1.6430	21.5760
 1.6440	21.5830
 1.6450	21.5890
 1.6460	21.5940
 1.6470	21.5980
 1.6480	21.6000
 1.6490	21.6010
 1.6500	21.6010
 1.6510	21.5980
 1.6520	21.5940
 1.6530	21.5880
 1.6540	21.5810
 1.6550	21.5720
 1.6560	21.5620
 1.6570	21.5490
 1.6580	21.5330
 1.6590	21.5150
 1.6600	21.4950
 1.6610	21.4730
 1.6620	21.4490
 1.6630	21.4260
 1.6640	21.4020
 1.6650	21.3770
 1.6660	21.3510
 1.6670	21.3240
 1.6680	21.2990
 1.6690	21.2740
 1.6700	21.2500
 1.6710	21.2280
 1.6720	21.2060
 1.6730	21.1860
 1.6740	21.1680
 1.6750	21.1510
 1.6760	21.1350
 1.6770	21.1210
 1.6780	21.1080
 1.6790	21.0980
 1.6800	21.0890
 1.6810	21.0780
 1.6820	21.0680
 1.6830	21.0580
 1.6840	21.0460
 1.6850	21.0370
 1.6860	21.0260
 1.6870	21.0120
 1.6880	20.9990
 1.6890	20.9850
 1.6900	20.9700
 1.6910	20.9560
 1.6920	20.9410
 1.6930	20.9250
 1.6940	20.9090
 1.6950	20.8930
 1.6960	20.8750
 1.6970	20.8550
 1.6980	20.8350
 1.6990	20.8150
 1.7000	20.7940
 1.7010	20.7750
 1.7020	20.7540
 1.7030	20.7310
 1.7040	20.7070
 1.7050	20.6840
 1.7060	20.6580
 1.7070	20.6320
 1.7080	20.6040
 1.7090	20.5750
 1.7100	20.5450
 1.7110	20.5150
 1.7120	20.4850
 1.7130	20.4550
 1.7140	20.4260
 1.7150	20.3960
 1.7160	20.3700
 1.7170	20.3420
 1.7180	20.3150
 1.7190	20.2910
 1.7200	20.2640
 1.7210	20.2380
 1.7220	20.2130
 1.7230	20.1900
 1.7240	20.1680
 1.7250	20.1470
 1.7260	20.1270
 1.7270	20.1070
 1.7280	20.0880
 1.7290	20.0700
 1.7300	20.0550
 1.7310	20.0400
 1.7320	20.0270
 1.7330	20.0130
 1.7340	19.9990
 1.7350	19.9850
 1.7360	19.9710
 1.7370	19.9550
 1.7380	19.9390
 1.7390	19.9200
 1.7400	19.9000
 1.7410	19.8780
 1.7420	19.8560
 1.7430	19.8310
 1.7440	19.8050
 1.7450	19.7780
 1.7460	19.7500
 1.7470	19.7220
 1.7480	19.6950
 1.7490	19.6660
 1.7500	19.6350
 1.7510	19.6060
 1.7520	19.5760
 1.7530	19.5480
 1.7540	19.5230
 1.7550	19.4950
 1.7560	19.4650
 1.7570	19.4350
 1.7580	19.4060
 1.7590	19.3810
 1.7600	19.3570
 1.7610	19.3330
 1.7620	19.3100
 1.7630	19.2860
 1.7640	19.2630
 1.7650	19.2410
 1.7660	19.2200
 1.7670	19.2010
 1.7680	19.1820
 1.7690	19.1660
 1.7700	19.1500
 1.7710	19.1360
 1.7720	19.1210
 1.7730	19.1050
 1.7740	19.0910
 1.7750	19.0750
 1.7760	19.0600
 1.7770	19.0450
 1.7780	19.0320
 1.7790	19.0180
 1.7800	19.0070
 1.7810	18.9990
 1.7820	18.9890
 1.7830	18.9800
 1.7840	18.9710
 1.7850	18.9610
 1.7860	18.9540
 1.7870	18.9500
 1.7880	18.9460
 1.7890	18.9440
 1.7900	18.9410
 1.7910	18.9390
 1.7920	18.9360
 1.7930	18.9350
 1.7940	18.9350
 1.7950	18.9350
 1.7960	18.9370
 1.7970	18.9380
 1.7980	18.9400
 1.7990	18.9420
 1.8000	18.9440
 1.8010	18.9470
 1.8020	18.9540
 1.8030	18.9580
 1.8040	18.9620
 1.8050	18.9670
 1.8060	18.9720
 1.8070	18.9760
 1.8080	18.9810
 1.8090	18.9850
 1.8100	18.9870
 1.8110	18.9930
 1.8120	19.0000
 1.8130	19.0030
 1.8140	19.0050
 1.8150	19.0060
 1.8160	19.0040
 1.8170	19.0050
 1.8180	19.0070
 1.8190	19.0040
 1.8200	19.0040
 1.8210	19.0030
 1.8220	19.0040
 1.8230	19.0090
 1.8240	19.0090
 1.8250	19.0080
 1.8260	19.0050
 1.8270	18.9970
 1.8280	18.9910
 1.8290	18.9830
 1.8300	18.9760
 1.8310	18.7500
 1.8320	18.7340
 1.8330	18.7200
 1.8340	18.7030
 1.8350	18.6850
 1.8360	18.6660
 1.8370	18.6450
 1.8380	18.6230
 1.8390	18.6000
 1.8400	18.5800
 1.8410	18.5520
 1.8420	18.5210
 1.8430	18.4820
 1.8440	18.4400
 1.8450	18.3930
 1.8460	18.3400
 1.8470	18.2860
 1.8480	18.2280
 1.8490	18.1660
 1.8500	18.0960
 1.8510	18.0200
 1.8520	17.9380
 1.8530	17.8530
 1.8540	17.7590
 1.8550	17.6620
 1.8560	17.5590
 1.8570	17.4380
 1.8580	17.3080
 1.8590	17.1720
 1.8600	17.0290
 1.8610	16.8730
 1.8620	16.7100
 1.8630	16.5370
 1.8640	16.3520
 1.8650	16.1570
 1.8660	15.9500
 1.8670	15.7270
 1.8680	15.4920
 1.8690	15.2390
 1.8700	14.9750
 1.8710	14.6980
 1.8720	14.4130
 1.8730	14.1160
 1.8740	13.8100
 1.8750	13.4930
 1.8760	13.1650
 1.8770	12.8300
 1.8780	12.4900
 1.8790	12.1430
 1.8800	11.7960
 1.8810	11.4470
 1.8820	11.0940
 1.8830	10.7380
 1.8840	10.3830
 1.8850	10.0260
 1.8860	 9.6720
 1.8870	 9.3210
 1.8880	 8.9750
 1.8890	 8.6370
 1.8900	 8.3090
 1.8910	 7.9940
 1.8920	 7.6880
 1.8930	 7.3970
 1.8940	 7.1190
 1.8950	 6.8540
 1.8960	 6.6030
 1.8970	 6.3670
 1.8980	 6.1470
 1.8990	 5.9460
 1.9000	 5.7580
 1.9010	 5.5860
 1.9020	 5.4260
 1.9030	 5.2810
 1.9040	 5.1480
 1.9050	 5.0280
 1.9060	 4.9190
 1.9070	 4.8250
 1.9080	 4.7400
 1.9090	 4.6600
 1.9100	 4.5900
 1.9110	 4.5290
 1.9120	 4.4770
 1.9130	 4.4270
 1.9140	 4.3850
 1.9150	 4.3480
 1.9160	 4.3150
 1.9170	 4.2840
 1.9180	 4.2590
 1.9190	 4.2370
 1.9200	 4.2160
 1.9210	 4.2020
 1.9220	 4.1880
 1.9230	 4.1770
 1.9240	 4.1690
 1.9250	 4.1640
 1.9260	 4.1610
 1.9270	 4.1630
 1.9280	 4.1680
 1.9290	 4.1730
 1.9300	 4.1790
 1.9310	 4.1840
 1.9320	 4.1910
 1.9330	 4.2010
 1.9340	 4.2130
 1.9350	 4.2280
 1.9360	 4.2480
 1.9370	 4.2670
 1.9380	 4.2880
 1.9390	 4.3110
 1.9400	 4.3350
 1.9410	 4.3550
 1.9420	 4.3780
 1.9430	 4.4040
 1.9440	 4.4300
 1.9450	 4.4580
 1.9460	 4.4880
 1.9470	 4.5220
 1.9480	 4.5550
 1.9490	 4.5910
 1.9500	 4.6260
 1.9510	 4.6640
 1.9520	 4.6990
 1.9530	 4.7330
 1.9540	 4.7720
 1.9550	 4.8100
 1.9560	 4.8470
 1.9570	 4.8870
 1.9580	 4.9290
 1.9590	 4.9690
 1.9600	 5.0120
 1.9610	 5.0520
 1.9620	 5.0910
 1.9630	 5.1310
 1.9640	 5.1740
 1.9650	 5.2180
 1.9660	 5.2650
 1.9670	 5.3140
 1.9680	 5.3630
 1.9690	 5.4090
 1.9700	 5.4580
 1.9710	 5.5080
 1.9720	 5.5590
 1.9730	 5.6120
 1.9740	 5.6640
 1.9750	 5.7150
 1.9760	 5.7670
 1.9770	 5.8190
 1.9780	 5.8740
 1.9790	 5.9290
 1.9800	 5.9880
 1.9810	 6.0440
 1.9820	 6.0970
 1.9830	 6.1510
 1.9840	 6.2020
 1.9850	 6.2570
 1.9860	 6.3150
 1.9870	 6.3750
 1.9880	 6.4370
 1.9890	 6.4970
 1.9900	 6.5550
 1.9910	 6.6140
 1.9920	 6.6730
 1.9930	 6.7320
 1.9940	 6.7900
 1.9950	 6.8490
 1.9960	 6.9080
 1.9970	 6.9670
 1.9980	 7.0250
 1.9990	 7.0840
 2.0000	 7.1410
 2.0010	 7.1990
 2.0020	 7.2550
 2.0030	 7.3100
 2.0040	 7.3670
 2.0050	 7.4250
 2.0060	 7.4840
 2.0070	 7.5430
 2.0080	 7.6050
 2.0090	 7.6620
 2.0100	 7.7150
 2.0110	 7.7700
 2.0120	 7.8230
 2.0130	 7.8750
 2.0140	 7.9280
 2.0150	 7.9810
 2.0160	 8.0330
 2.0170	 8.0860
 2.0180	 8.1390
 2.0190	 8.1950
 2.0200	 8.2450
 2.0210	 8.2910
 2.0220	 8.3380
 2.0230	 8.3810
 2.0240	 8.4260
 2.0250	 8.4710
 2.0260	 8.5160
 2.0270	 8.5600
 2.0280	 8.6020
 2.0290	 8.6420
 2.0300	 8.6840
 2.0310	 8.7250
 2.0320	 8.7650
 2.0330	 8.8050
 2.0340	 8.8470
 2.0350	 8.8860
 2.0360	 8.9240
 2.0370	 8.9600
 2.0380	 8.9950
 2.0390	 9.0290
 2.0400	 9.0610
 2.0410	 9.0940
 2.0420	 9.1270
 2.0430	 9.1590
 2.0440	 9.1900
 2.0450	 9.2210
 2.0460	 9.2510
 2.0470	 9.2780
 2.0480	 9.3070
 2.0490	 9.3370
 2.0500	 9.3680
 2.0510	 9.4010
 2.0520	 9.4320
 2.0530	 9.4620
 2.0540	 9.4930
 2.0550	 9.5240
 2.0560	 9.5550
 2.0570	 9.5860
 2.0580	 9.6190
 2.0590	 9.6510
 2.0600	 9.6830
 2.0610	 9.7140
 2.0620	 9.7460
 2.0630	 9.7770
 2.0640	 9.8070
 2.0650	 9.8380
 2.0660	 9.8710
 2.0670	 9.9030
 2.0680	 9.9380
 2.0690	 9.9720
 2.0700	10.0050
 2.0710	10.0390
 2.0720	10.0750
 2.0730	10.1080
 2.0740	10.1420
 2.0750	10.1760
 2.0760	10.2080
 2.0770	10.2370
 2.0780	10.2670
 2.0790	10.2950
 2.0800	10.3240
 2.0810	10.3530
 2.0820	10.3810
 2.0830	10.4110
 2.0840	10.4390
 2.0850	10.4660
 2.0860	10.4940
 2.0870	10.5220
 2.0880	10.5520
 2.0890	10.5820
 2.0900	10.6150
 2.0910	10.6440
 2.0920	10.6710
 2.0930	10.6980
 2.0940	10.7220
 2.0950	10.7470
 2.0960	10.7720
 2.0970	10.7970
 2.0980	10.8220
 2.0990	10.8480
 2.1000	10.8750
 2.1010	10.9000
 2.1020	10.9270
 2.1030	10.9520
 2.1040	10.9740
 2.1050	10.9970
 2.1060	11.0190
 2.1070	11.0400
 2.1080	11.0630
 2.1090	11.0860
 2.1100	11.1080
 2.1110	11.1300
 2.1120	11.1520
 2.1130	11.1720
 2.1140	11.1930
 2.1150	11.2140
 2.1160	11.2340
 2.1170	11.2530
 2.1180	11.2740
 2.1190	11.2970
 2.1200	11.3210
 2.1210	11.3470
 2.1220	11.3750
 2.1230	11.4030
 2.1240	11.4300
 2.1250	11.4600
 2.1260	11.4920
 2.1270	11.5200
 2.1280	11.5490
 2.1290	11.5740
 2.1300	11.5940
 2.1310	11.6160
 2.1320	11.6360
 2.1330	11.6550
 2.1340	11.6730
 2.1350	11.6900
 2.1360	11.7050
 2.1370	11.7210
 2.1380	11.7360
 2.1390	11.7520
 2.1400	11.7670
 2.1410	11.7850
 2.1420	11.8040
 2.1430	11.8240
 2.1440	11.8440
 2.1450	11.8630
 2.1460	11.8830
 2.1470	11.9020
 2.1480	11.9230
 2.1490	11.9450
 2.1500	11.9650
 2.1510	11.9850
 2.1520	12.0020
 2.1530	12.0180
 2.1540	12.0320
 2.1550	12.0440
 2.1560	12.0580
 2.1570	12.0730
 2.1580	12.0900
 2.1590	12.1110
 2.1600	12.1310
 2.1610	12.1510
 2.1620	12.1710
 2.1630	12.1870
 2.1640	12.2000
 2.1650	12.2160
 2.1660	12.2310
 2.1670	12.2470
 2.1680	12.2660
 2.1690	12.2840
 2.1700	12.3020
 2.1710	12.3200
 2.1720	12.3400
 2.1730	12.3560
 2.1740	12.3680
 2.1750	12.3840
 2.1760	12.4010
 2.1770	12.4170
 2.1780	12.4340
 2.1790	12.4510
 2.1800	12.4680
 2.1810	12.4840
 2.1820	12.5010
 2.1830	12.5210
 2.1840	12.5350
 2.1850	12.5460
 2.1860	12.5600
 2.1870	12.5720
 2.1880	12.5880
 2.1890	12.6070
 2.1900	12.6260
 2.1910	12.6470
 2.1920	12.6650
 2.1930	12.6820
 2.1940	12.7000
 2.1950	12.7190
 2.1960	12.7380
 2.1970	12.7580
 2.1980	12.7750
 2.1990	12.7880
 2.2000	12.8030
 2.2010	12.8170
 2.2020	12.8300
 2.2030	12.8430
 2.2040	12.8550
 2.2050	12.8660
 2.2060	12.8750
 2.2070	12.8860
 2.2080	12.8970
 2.2090	12.9050
 2.2100	12.9100
 2.2110	12.9160
 2.2120	12.9190
 2.2130	12.9220
 2.2140	12.9260
 2.2150	12.9280
 2.2160	12.9330
 2.2170	12.9310
 2.2180	12.9260
 2.2190	12.9200
 2.2200	12.9090
 2.2210	12.9010
 2.2220	12.8940
 2.2230	12.8860
 2.2240	12.8780
 2.2250	12.8670
 2.2260	12.8530
 2.2270	12.8370
 2.2280	12.8180
 2.2290	12.7980
 2.2300	12.7760
 2.2310	12.7500
 2.2320	12.7230
 2.2330	12.6950
 2.2340	12.6670
 2.2350	12.6370
 2.2360	12.6060
 2.2370	12.5750
 2.2380	12.5420
 2.2390	12.5100
 2.2400	12.4720
 2.2410	12.4300
 2.2420	12.3880
 2.2430	12.3400
 2.2440	12.2970
 2.2450	12.2530
 2.2460	12.2110
 2.2470	12.1750
 2.2480	12.1340
 2.2490	12.0920
 2.2500	12.0500
 2.2510	12.0070
 2.2520	11.9650
 2.2530	11.9230
 2.2540	11.8800
 2.2550	11.8350
 2.2560	11.7920
 2.2570	11.7520
 2.2580	11.7100
 2.2590	11.6670
 2.2600	11.6240
 2.2610	11.5790
 2.2620	11.5360
 2.2630	11.4950
 2.2640	11.4490
 2.2650	11.4020
 2.2660	11.3570
 2.2670	11.3140
 2.2680	11.2720
 2.2690	11.2310
 2.2700	11.1940
 2.2710	11.1530
 2.2720	11.1100
 2.2730	11.0720
 2.2740	11.0370
 2.2750	11.0010
 2.2760	10.9670
 2.2770	10.9310
 2.2780	10.8930
 2.2790	10.8550
 2.2800	10.8180
 2.2810	10.7800
 2.2820	10.7390
 2.2830	10.7010
 2.2840	10.6620
 2.2850	10.6250
 2.2860	10.5890
 2.2870	10.5530
 2.2880	10.5200
 2.2890	10.4820
 2.2900	10.4410
 2.2910	10.4000
 2.2920	10.3530
 2.2930	10.3080
 2.2940	10.2640
 2.2950	10.2200
 2.2960	10.1730
 2.2970	10.1300
 2.2980	10.0890
 2.2990	10.0470
 2.3000	10.0090
 2.3010	 9.9770
 2.3020	 9.9450
 2.3030	 9.9120
 2.3040	 9.8820
 2.3050	 9.8480
 2.3060	 9.8140
 2.3070	 9.7860
 2.3080	 9.7550
 2.3090	 9.7240
 2.3100	 9.7070
 2.3110	 9.6900
 2.3120	 9.6750
 2.3130	 9.6680
 2.3140	 9.6570
 2.3150	 9.6440
 2.3160	 9.6360
 2.3170	 9.6340
 2.3180	 9.6250
 2.3190	 9.6160
 2.3200	 9.6060
 2.3210	 9.5900
 2.3220	 9.5770
 2.3230	 9.5660
 2.3240	 9.5480
 2.3250	 9.5260
 2.3260	 9.5030
 2.3270	 9.4750
 2.3280	 9.4490
 2.3290	 9.4220
 2.3300	 9.3950
 2.3310	 9.3670
 2.3320	 9.3400
 2.3330	 9.3160
 2.3340	 9.2860
 2.3350	 9.2480
 2.3360	 9.2180
 2.3370	 9.1850
 2.3380	 9.1560
 2.3390	 9.1370
 2.3400	 9.1090
 2.3410	 9.0740
 2.3420	 9.0430
 2.3430	 9.0110
 2.3440	 8.9780
 2.3450	 8.9460
 2.3460	 8.9150
 2.3470	 8.8780
 2.3480	 8.8480
 2.3490	 8.8270
 2.3500	 8.8040
 2.3510	 8.7840
 2.3520	 8.7650
 2.3530	 8.7470
 2.3540	 8.7260
 2.3550	 8.7120
 2.3560	 8.6960
 2.3570	 8.6840
 2.3580	 8.6650
 2.3590	 8.6370
 2.3600	 8.6140
 2.3610	 8.5880
 2.3620	 8.5560
 2.3630	 8.5340
 2.3640	 8.5070
 2.3650	 8.4750
 2.3660	 8.4560
 2.3670	 8.4410
 2.3680	 8.4250
 2.3690	 8.4030
 2.3700	 8.3720
 2.3710	 8.3390
 2.3720	 8.3110
 2.3730	 8.2960
 2.3740	 8.2900
 2.3750	 8.2810
 2.3760	 8.2640
 2.3770	 8.2350
 2.3780	 8.2110
 2.3790	 8.1920
 2.3800	 8.1670
 2.3810	 8.1480
 2.3820	 8.1300
 2.3830	 8.1100
 2.3840	 8.0880
 2.3850	 8.0620
 2.3860	 8.0350
 2.3870	 8.0020
 2.3880	 7.9620
 2.3890	 7.9230
 2.3900	 7.8850
 2.3910	 7.8510
 2.3920	 7.8290
 2.3930	 7.8040
 2.3940	 7.7740
 2.3950	 7.7490
 2.3960	 7.7190
 2.3970	 7.6800
 2.3980	 7.6460
 2.3990	 7.6160
 2.4000	 7.5760
 2.4010	 7.5480
 2.4020	 7.5280
 2.4030	 7.4980
 2.4040	 7.4730
 2.4050	 7.4440
 2.4060	 7.4010
 2.4070	 7.3590
 2.4080	 7.3190
 2.4090	 7.2790
 2.4100	 7.2540
 2.4110	 7.2360
 2.4120	 7.1950
 2.4130	 7.1490
 2.4140	 7.1100
 2.4150	 7.0580
 2.4160	 7.0210
 2.4170	 6.9950
 2.4180	 6.9730
 2.4190	 6.9540
 2.4200	 6.9210
 2.4210	 6.8890
 2.4220	 6.8410
 2.4230	 6.7760
 2.4240	 6.7310
 2.4250	 6.7010
 2.4260	 6.6670
 2.4270	 6.6550
 2.4280	 6.6430
 2.4290	 6.5960
 2.4300	 6.5530
 2.4310	 6.5080
 2.4320	 6.4590
 2.4330	 6.4230
 2.4340	 6.3800
 2.4350	 6.3300
 2.4360	 6.2970
 2.4370	 6.2740
 2.4380	 6.2370
 2.4390	 6.2120
 2.4400	 6.1910
 2.4410	 6.1540
 2.4420	 6.1290
 2.4430	 6.1080
 2.4440	 6.0610
 2.4450	 6.0010
 2.4460	 5.9500
 2.4470	 5.9040
 2.4480	 5.8680
 2.4490	 5.8510
 2.4500	 5.8450
 2.4510	 5.8250
 2.4520	 5.7830
 2.4530	 5.7290
 2.4540	 5.6660
 2.4550	 5.6030
 2.4560	 5.5590
 2.4570	 5.5330
 2.4580	 5.5110
 2.4590	 5.4950
 2.4600	 5.4690
 2.4610	 5.4360
 2.4620	 5.3830
 2.4630	 5.3260
 2.4640	 5.3020
 2.4650	 5.2640
 2.4660	 5.2500
 2.4670	 5.2570
 2.4680	 5.2230
 2.4690	 5.1990
 2.4700	 5.1730
 2.4710	 5.1430
 2.4720	 5.1210
 2.4730	 5.1000
 2.4740	 5.0890
 2.4750	 5.0910
 2.4760	 5.0730
 2.4770	 5.0470
 2.4780	 5.0300
 2.4790	 4.9950
 2.4800	 4.9680
 2.4810	 4.9580
 2.4820	 4.9300
 2.4830	 4.9170
 2.4840	 4.9030
 2.4850	 4.8990
 2.4860	 4.9030
 2.4870	 4.8830
 2.4880	 4.8490
 2.4890	 4.8150
 2.4900	 4.7820
 2.4910	 4.7500
 2.4920	 4.7200
 2.4930	 4.6940
 2.4940	 4.6870
 2.4950	 4.6810
 2.4960	 4.6970
 2.4970	 4.7260
 2.4980	 4.7190
 2.4990	 4.7230
 2.5000	 4.7090
