Name: Calocedrus decrruens 3
Type: vegetation
Class: Tree
Genus: Calocedrus
Species: decurrens
Sample No.: VH252
Owner: UCSB
Wavelength Range: TIR
Origin: 37.0443; -119.3026; WGS84
Collection Date: 11/2/2013
Description: Samples were collected as part of the HyspIRI Airborne Campaign. 48 individual plants were sampled in three times in 2013 - spring  summer  and fall. The name of the sample includes a 1  2  or 3 which references a different individual of the species. Samples were taken to JPL and processed within 48 hours of collection. The same leaves were processed in the Nicolet and then measured using the ASD.
Measurement: Hemispherical reflectance
First Column: X
Second Column: Y
X Units: Wavelength (micrometers)
Y Units: Reflectance (percentage)
First X Value: 2.501
Last X Value: 15.387
Number of X Values: 1737
Additional Information: vegetation.tree.calocedrus.decurrens.tir.vh252.ucsb.nicolet.ancillary.txt

 2.5010	12.5460
 2.5030	12.5790
 2.5040	12.6970
 2.5050	12.6010
 2.5060	12.6710
 2.5070	12.6950
 2.5090	12.7030
 2.5100	12.5880
 2.5110	12.5030
 2.5120	12.5290
 2.5140	12.6220
 2.5150	12.5970
 2.5160	12.7090
 2.5170	12.6830
 2.5180	12.5670
 2.5200	12.4150
 2.5210	12.4580
 2.5220	12.4740
 2.5230	12.5250
 2.5250	12.5210
 2.5260	12.4720
 2.5270	12.3700
 2.5280	12.3990
 2.5290	12.4690
 2.5310	12.3930
 2.5320	12.2920
 2.5330	12.4470
 2.5340	12.4550
 2.5360	12.4960
 2.5370	12.5350
 2.5380	12.5900
 2.5390	12.6090
 2.5410	12.6330
 2.5420	12.5790
 2.5430	12.7140
 2.5440	12.7750
 2.5460	12.8060
 2.5470	12.7090
 2.5480	12.7330
 2.5490	12.6700
 2.5510	12.6900
 2.5520	12.5830
 2.5530	12.6780
 2.5540	12.7040
 2.5560	12.6860
 2.5570	12.7380
 2.5580	12.8150
 2.5590	12.7360
 2.5610	12.7650
 2.5620	12.7970
 2.5630	12.7960
 2.5640	12.6840
 2.5660	12.7100
 2.5670	12.6820
 2.5680	12.6570
 2.5700	12.6910
 2.5710	12.7770
 2.5720	12.7800
 2.5730	12.8480
 2.5750	12.8140
 2.5760	12.8940
 2.5770	12.8240
 2.5790	12.7780
 2.5800	12.7030
 2.5810	12.9330
 2.5820	12.9460
 2.5840	12.8390
 2.5850	12.7470
 2.5860	12.8190
 2.5880	12.7490
 2.5890	12.6870
 2.5900	12.6000
 2.5910	12.6670
 2.5930	12.6420
 2.5940	12.6550
 2.5950	12.6260
 2.5970	12.6040
 2.5980	12.5530
 2.5990	12.5980
 2.6000	12.6590
 2.6020	12.6610
 2.6030	12.5370
 2.6040	12.5180
 2.6060	12.5490
 2.6070	12.6000
 2.6080	12.4990
 2.6100	12.5470
 2.6110	12.5950
 2.6120	12.5670
 2.6140	12.5290
 2.6150	12.4260
 2.6160	12.2980
 2.6180	12.2470
 2.6190	12.0760
 2.6200	12.1620
 2.6220	12.1910
 2.6230	12.1650
 2.6240	12.2800
 2.6260	12.2180
 2.6270	12.0090
 2.6280	12.1170
 2.6300	12.1680
 2.6310	12.2000
 2.6320	12.1930
 2.6340	12.1460
 2.6350	11.9830
 2.6360	11.8870
 2.6380	11.8350
 2.6390	11.8360
 2.6400	11.6490
 2.6420	11.6330
 2.6430	11.7700
 2.6440	11.8200
 2.6460	11.6120
 2.6470	11.5140
 2.6480	11.4900
 2.6500	11.5890
 2.6510	11.5800
 2.6520	11.5650
 2.6540	11.4100
 2.6550	11.4200
 2.6560	11.3640
 2.6580	11.4140
 2.6590	11.4590
 2.6610	11.4980
 2.6620	11.4310
 2.6630	11.3860
 2.6650	11.3550
 2.6660	11.4460
 2.6670	11.3490
 2.6690	11.3530
 2.6700	11.3510
 2.6720	11.1730
 2.6730	11.1070
 2.6740	11.1700
 2.6760	11.2850
 2.6770	11.4200
 2.6780	11.2260
 2.6800	11.1280
 2.6810	11.0000
 2.6830	10.9400
 2.6840	10.8540
 2.6850	10.8040
 2.6870	10.7270
 2.6880	10.7790
 2.6900	10.7690
 2.6910	10.9270
 2.6920	10.9460
 2.6940	10.7490
 2.6950	10.6110
 2.6970	10.6210
 2.6980	10.5460
 2.6990	10.5710
 2.7010	10.5380
 2.7020	10.6550
 2.7040	10.5660
 2.7050	10.5200
 2.7060	10.4450
 2.7080	10.5690
 2.7090	10.5180
 2.7110	10.6500
 2.7120	10.6750
 2.7130	10.5820
 2.7150	10.4850
 2.7160	10.3540
 2.7180	10.1470
 2.7190	10.3090
 2.7210	10.5350
 2.7220	10.5570
 2.7230	10.3100
 2.7250	10.3220
 2.7260	10.3780
 2.7280	10.4950
 2.7290	10.4730
 2.7310	10.4100
 2.7320	10.2270
 2.7330	10.2260
 2.7350	10.2890
 2.7360	10.2620
 2.7380	10.3120
 2.7390	10.3970
 2.7410	10.2210
 2.7420	10.0590
 2.7440	10.0130
 2.7450	10.2320
 2.7470	10.3350
 2.7480	10.3460
 2.7490	10.4520
 2.7510	10.6750
 2.7520	10.7510
 2.7540	10.7750
 2.7550	10.6570
 2.7570	10.6680
 2.7580	10.6660
 2.7600	10.7350
 2.7610	10.7300
 2.7630	10.6180
 2.7640	10.4590
 2.7660	10.4440
 2.7670	10.3920
 2.7680	10.4990
 2.7700	10.7100
 2.7710	10.8270
 2.7730	10.5260
 2.7740	10.4680
 2.7760	10.4610
 2.7770	10.4220
 2.7790	10.3850
 2.7800	10.6040
 2.7820	10.6710
 2.7830	10.5960
 2.7850	10.4660
 2.7860	10.3970
 2.7880	10.4380
 2.7890	10.7290
 2.7910	10.5000
 2.7920	10.4600
 2.7940	10.5400
 2.7950	10.6700
 2.7970	10.7480
 2.7980	10.7830
 2.8000	10.5500
 2.8010	10.3790
 2.8030	10.3480
 2.8040	10.4700
 2.8060	10.4310
 2.8070	10.4860
 2.8090	10.5850
 2.8110	10.6110
 2.8120	10.4850
 2.8140	10.3980
 2.8150	10.5440
 2.8170	10.6270
 2.8180	10.5150
 2.8200	10.6940
 2.8210	10.6280
 2.8230	10.5690
 2.8240	10.4290
 2.8260	10.4130
 2.8270	10.5180
 2.8290	10.5910
 2.8300	10.5830
 2.8320	10.6280
 2.8340	10.5250
 2.8350	10.5310
 2.8370	10.5450
 2.8380	10.5570
 2.8400	10.6650
 2.8410	10.7680
 2.8430	10.5430
 2.8440	10.4640
 2.8460	10.6590
 2.8480	10.8410
 2.8490	10.6250
 2.8510	10.5180
 2.8520	10.5720
 2.8540	10.6460
 2.8550	10.6360
 2.8570	10.7030
 2.8590	10.6900
 2.8600	10.7320
 2.8620	10.7670
 2.8630	10.7740
 2.8650	10.5780
 2.8660	10.6250
 2.8680	10.7060
 2.8700	10.6650
 2.8710	10.6560
 2.8730	10.7560
 2.8740	10.7920
 2.8760	10.8670
 2.8780	10.8430
 2.8790	10.6520
 2.8810	10.3790
 2.8820	10.4460
 2.8840	10.5350
 2.8860	10.3250
 2.8870	10.0560
 2.8890	10.4810
 2.8900	10.9050
 2.8920	10.8580
 2.8940	10.4890
 2.8950	10.5590
 2.8970	10.6620
 2.8980	10.6510
 2.9000	10.5330
 2.9020	10.5210
 2.9030	10.6050
 2.9050	10.7310
 2.9070	10.6540
 2.9080	10.5540
 2.9100	10.3590
 2.9120	10.4140
 2.9130	10.6330
 2.9150	10.7170
 2.9160	10.7540
 2.9180	10.6200
 2.9200	10.4660
 2.9210	10.5040
 2.9230	10.5370
 2.9250	10.6340
 2.9260	10.7480
 2.9280	10.7690
 2.9300	10.7760
 2.9310	10.8650
 2.9330	10.9400
 2.9350	10.8050
 2.9360	10.4830
 2.9380	10.4640
 2.9400	10.7360
 2.9410	10.6910
 2.9430	10.5860
 2.9450	10.7990
 2.9460	10.8690
 2.9480	10.9700
 2.9500	11.0550
 2.9510	10.6120
 2.9530	10.3720
 2.9550	10.3170
 2.9560	10.3050
 2.9580	10.2980
 2.9600	10.4570
 2.9610	10.4950
 2.9630	10.3160
 2.9650	10.2170
 2.9660	10.3410
 2.9680	10.3570
 2.9700	10.5400
 2.9720	10.7150
 2.9730	10.5430
 2.9750	10.9060
 2.9770	10.7110
 2.9780	10.3520
 2.9800	10.7040
 2.9820	10.5590
 2.9840	10.2560
 2.9850	10.7690
 2.9870	10.9180
 2.9890	11.9440
 2.9900	12.8640
 2.9920	13.6150
 2.9940	14.0770
 2.9960	13.2460
 2.9970	11.4690
 2.9990	10.9970
 3.0010	10.8760
 3.0030	10.9860
 3.0040	10.6050
 3.0060	10.3470
 3.0080	10.1100
 3.0100	10.6520
 3.0110	10.5200
 3.0130	10.2950
 3.0150	10.5190
 3.0170	10.6010
 3.0180	10.1770
 3.0200	10.0770
 3.0220	10.2690
 3.0240	10.4110
 3.0250	10.4580
 3.0270	10.3640
 3.0290	10.5370
 3.0310	10.7690
 3.0320	10.4730
 3.0340	10.4610
 3.0360	10.4850
 3.0380	10.0920
 3.0400	 9.6970
 3.0410	 9.6570
 3.0430	10.5260
 3.0450	10.8900
 3.0470	11.4270
 3.0480	10.8480
 3.0500	 9.7940
 3.0520	 9.3910
 3.0540	 9.4200
 3.0560	 9.8410
 3.0570	10.6210
 3.0590	10.6480
 3.0610	10.5230
 3.0630	10.8570
 3.0650	10.8320
 3.0660	10.9490
 3.0680	10.6740
 3.0700	10.3420
 3.0720	10.0660
 3.0740	10.4330
 3.0760	10.5090
 3.0770	10.5700
 3.0790	10.7480
 3.0810	10.7000
 3.0830	10.5620
 3.0850	10.5590
 3.0870	10.3950
 3.0880	10.4090
 3.0900	10.3470
 3.0920	10.2910
 3.0940	10.2750
 3.0960	10.4390
 3.0980	10.3660
 3.0990	10.3640
 3.1010	10.4050
 3.1030	10.7210
 3.1050	10.8070
 3.1070	10.5850
 3.1090	10.2720
 3.1110	10.4310
 3.1120	10.3710
 3.1140	10.4000
 3.1160	10.4430
 3.1180	10.5410
 3.1200	10.5790
 3.1220	10.6190
 3.1240	10.4080
 3.1260	10.4040
 3.1270	10.3780
 3.1290	10.4860
 3.1310	10.3580
 3.1330	10.6510
 3.1350	11.0860
 3.1370	11.1250
 3.1390	10.7580
 3.1410	10.6130
 3.1430	 9.7600
 3.1450	 9.1920
 3.1460	 8.8890
 3.1480	 8.7040
 3.1500	 9.5320
 3.1520	10.9260
 3.1540	11.4270
 3.1560	10.7070
 3.1580	10.3010
 3.1600	10.6270
 3.1620	10.8640
 3.1640	10.5280
 3.1660	 9.9350
 3.1680	 9.2450
 3.1700	 9.4440
 3.1710	11.1950
 3.1730	12.0130
 3.1750	11.2410
 3.1770	10.1870
 3.1790	10.3800
 3.1810	11.1270
 3.1830	11.6720
 3.1850	11.0460
 3.1870	10.2260
 3.1890	10.2740
 3.1910	10.4540
 3.1930	10.4630
 3.1950	10.4590
 3.1970	10.1670
 3.1990	 9.9990
 3.2010	10.0880
 3.2030	10.2800
 3.2050	10.2800
 3.2070	10.2510
 3.2090	10.3370
 3.2110	10.3660
 3.2130	10.2910
 3.2150	10.2420
 3.2170	10.2580
 3.2190	10.2310
 3.2210	10.1650
 3.2230	10.2070
 3.2250	10.2040
 3.2270	10.3560
 3.2290	10.3040
 3.2310	10.1950
 3.2330	10.0920
 3.2350	10.0510
 3.2370	10.0250
 3.2390	10.0170
 3.2410	10.2910
 3.2430	10.3440
 3.2450	10.1680
 3.2470	10.0860
 3.2490	10.1070
 3.2510	10.1520
 3.2530	10.1690
 3.2550	10.2500
 3.2570	10.1140
 3.2590	10.1220
 3.2610	10.2510
 3.2630	10.2040
 3.2650	 9.9880
 3.2670	 9.9820
 3.2690	10.1580
 3.2720	10.2310
 3.2740	10.0800
 3.2760	10.0790
 3.2780	10.0460
 3.2800	10.0640
 3.2820	10.0900
 3.2840	10.2460
 3.2860	10.2090
 3.2880	10.2200
 3.2900	10.2150
 3.2920	10.2410
 3.2940	10.0720
 3.2960	10.0530
 3.2990	10.0860
 3.3010	 9.9830
 3.3030	10.0110
 3.3050	10.1850
 3.3070	10.1080
 3.3090	10.0810
 3.3110	10.0520
 3.3130	10.0980
 3.3150	10.2620
 3.3180	10.2690
 3.3200	10.0640
 3.3220	10.1460
 3.3240	10.0160
 3.3260	 9.9750
 3.3280	10.0410
 3.3300	 9.9770
 3.3330	 9.8300
 3.3350	 9.8220
 3.3370	 9.8450
 3.3390	 9.9150
 3.3410	 9.9540
 3.3430	10.0180
 3.3450	 9.9070
 3.3480	 9.9130
 3.3500	 9.9060
 3.3520	 9.8340
 3.3540	 9.8820
 3.3560	 9.9640
 3.3580	 9.8150
 3.3610	 9.8540
 3.3630	 9.9180
 3.3650	 9.8360
 3.3670	 9.7790
 3.3690	 9.7070
 3.3720	 9.6240
 3.3740	 9.6710
 3.3760	 9.7540
 3.3780	 9.7790
 3.3800	 9.6070
 3.3830	 9.6410
 3.3850	 9.7020
 3.3870	 9.7080
 3.3890	 9.5820
 3.3910	 9.5260
 3.3940	 9.5720
 3.3960	 9.5350
 3.3980	 9.4470
 3.4000	 9.5160
 3.4020	 9.5220
 3.4050	 9.5750
 3.4070	 9.5730
 3.4090	 9.7350
 3.4110	 9.8140
 3.4140	 9.9990
 3.4160	10.2910
 3.4180	10.4210
 3.4200	10.5290
 3.4230	11.0480
 3.4250	11.6090
 3.4270	12.0830
 3.4290	12.3000
 3.4320	12.1560
 3.4340	11.7980
 3.4360	11.6100
 3.4390	11.4790
 3.4410	11.4340
 3.4430	11.1960
 3.4450	11.0140
 3.4480	11.0630
 3.4500	10.9560
 3.4520	10.5900
 3.4550	10.5880
 3.4570	10.6670
 3.4590	10.5460
 3.4620	10.5150
 3.4640	10.5570
 3.4660	10.5440
 3.4680	10.6030
 3.4710	10.5200
 3.4730	10.5400
 3.4750	10.5150
 3.4780	10.5350
 3.4800	10.5560
 3.4820	10.4390
 3.4850	10.1870
 3.4870	10.0560
 3.4890	10.1020
 3.4920	10.1450
 3.4940	10.1140
 3.4970	10.0630
 3.4990	 9.9480
 3.5010	10.0660
 3.5040	10.2920
 3.5060	10.7580
 3.5080	11.5110
 3.5110	12.1660
 3.5130	12.1400
 3.5160	11.8440
 3.5180	11.5730
 3.5200	11.4280
 3.5230	11.1840
 3.5250	11.0690
 3.5270	11.0230
 3.5300	10.9770
 3.5320	10.9030
 3.5350	10.8960
 3.5370	10.7490
 3.5400	10.6030
 3.5420	10.5560
 3.5440	10.7590
 3.5470	10.9080
 3.5490	10.8680
 3.5520	10.7840
 3.5540	10.7530
 3.5570	10.6960
 3.5590	10.6960
 3.5610	10.5830
 3.5640	10.5030
 3.5660	10.4760
 3.5690	10.5040
 3.5710	10.5040
 3.5740	10.5040
 3.5760	10.6210
 3.5790	10.7280
 3.5810	10.7000
 3.5840	10.6300
 3.5860	10.5350
 3.5890	10.4560
 3.5910	10.3710
 3.5930	10.3390
 3.5960	10.3760
 3.5980	10.5350
 3.6010	10.4380
 3.6030	10.4310
 3.6060	10.4010
 3.6080	10.4190
 3.6110	10.4490
 3.6140	10.5000
 3.6160	10.4150
 3.6190	10.4270
 3.6210	10.4180
 3.6240	10.4580
 3.6260	10.5310
 3.6290	10.5160
 3.6310	10.4330
 3.6340	10.4240
 3.6360	10.4150
 3.6390	10.4570
 3.6410	10.4630
 3.6440	10.5460
 3.6470	10.5260
 3.6490	10.5410
 3.6520	10.4560
 3.6540	10.3960
 3.6570	10.3910
 3.6590	10.5140
 3.6620	10.4070
 3.6650	10.3840
 3.6670	10.4250
 3.6700	10.5120
 3.6720	10.5920
 3.6750	10.5200
 3.6780	10.4300
 3.6800	10.3420
 3.6830	10.3390
 3.6850	10.4300
 3.6880	10.4730
 3.6910	10.4920
 3.6930	10.4250
 3.6960	10.4610
 3.6990	10.4770
 3.7010	10.4800
 3.7040	10.5000
 3.7060	10.5990
 3.7090	10.6010
 3.7120	10.6070
 3.7140	10.5520
 3.7170	10.4650
 3.7200	10.3990
 3.7220	10.4550
 3.7250	10.4090
 3.7280	10.4720
 3.7300	10.5480
 3.7330	10.5520
 3.7360	10.5050
 3.7390	10.4950
 3.7410	10.5200
 3.7440	10.5110
 3.7470	10.4840
 3.7490	10.5150
 3.7520	10.5600
 3.7550	10.5370
 3.7580	10.4860
 3.7600	10.6140
 3.7630	10.6130
 3.7660	10.4690
 3.7680	10.3570
 3.7710	10.5450
 3.7740	10.5780
 3.7770	10.5350
 3.7790	10.6170
 3.7820	10.6860
 3.7850	10.6860
 3.7880	10.6900
 3.7900	10.6360
 3.7930	10.6710
 3.7960	10.6730
 3.7990	10.6610
 3.8020	10.6430
 3.8040	10.6680
 3.8070	10.5980
 3.8100	10.6080
 3.8130	10.5550
 3.8160	10.5620
 3.8180	10.5660
 3.8210	10.5040
 3.8240	10.5010
 3.8270	10.6500
 3.8300	10.6520
 3.8330	10.7190
 3.8350	10.6680
 3.8380	10.5820
 3.8410	10.5470
 3.8440	10.6040
 3.8470	10.6200
 3.8500	10.5850
 3.8520	10.6240
 3.8550	10.7550
 3.8580	10.6840
 3.8610	10.6120
 3.8640	10.7220
 3.8670	10.8050
 3.8700	10.6850
 3.8730	10.6220
 3.8750	10.6600
 3.8780	10.7090
 3.8810	10.7330
 3.8840	10.7650
 3.8870	10.7120
 3.8900	10.6430
 3.8930	10.6210
 3.8960	10.6910
 3.8990	10.7070
 3.9020	10.7380
 3.9050	10.7260
 3.9080	10.7800
 3.9110	10.7210
 3.9140	10.6240
 3.9160	10.5680
 3.9190	10.6190
 3.9220	10.6970
 3.9250	10.7630
 3.9280	10.6430
 3.9310	10.6680
 3.9340	10.7280
 3.9370	10.7370
 3.9400	10.7060
 3.9430	10.7700
 3.9460	10.7780
 3.9490	10.7900
 3.9520	10.7530
 3.9550	10.8010
 3.9580	10.7470
 3.9610	10.7770
 3.9640	10.7970
 3.9670	10.7510
 3.9700	10.7260
 3.9730	10.8130
 3.9770	10.7750
 3.9800	10.8250
 3.9830	10.8420
 3.9860	10.7590
 3.9890	10.6840
 3.9920	10.7410
 3.9950	10.7870
 3.9980	10.7130
 4.0010	10.6750
 4.0040	10.6580
 4.0070	10.5170
 4.0100	10.4980
 4.0130	10.5740
 4.0170	10.6890
 4.0200	10.7590
 4.0230	10.7690
 4.0260	10.7960
 4.0290	10.7850
 4.0320	10.7580
 4.0350	10.8260
 4.0380	10.8320
 4.0420	10.7740
 4.0450	10.7490
 4.0480	10.7960
 4.0510	10.7540
 4.0540	10.7260
 4.0570	10.7820
 4.0610	10.8920
 4.0640	10.8410
 4.0670	10.7620
 4.0700	10.8060
 4.0730	10.8800
 4.0770	10.8220
 4.0800	10.7490
 4.0830	10.6920
 4.0860	10.6950
 4.0890	10.6980
 4.0930	10.7120
 4.0960	10.7190
 4.0990	10.7220
 4.1020	10.7220
 4.1060	10.6480
 4.1090	10.6620
 4.1120	10.7610
 4.1150	10.7970
 4.1190	10.7920
 4.1220	10.7870
 4.1250	10.8050
 4.1280	10.7110
 4.1320	10.7060
 4.1350	10.7580
 4.1380	10.7320
 4.1420	10.7840
 4.1450	10.9170
 4.1480	10.8800
 4.1520	10.8140
 4.1550	10.8110
 4.1580	10.8620
 4.1620	10.8230
 4.1650	10.7880
 4.1680	10.7480
 4.1720	10.7110
 4.1750	10.6970
 4.1780	10.7490
 4.1820	10.8320
 4.1850	10.7600
 4.1890	10.6830
 4.1920	10.8070
 4.1950	10.9570
 4.1990	11.0950
 4.2020	11.1240
 4.2060	11.1480
 4.2090	11.3050
 4.2120	11.5410
 4.2160	11.7410
 4.2190	12.0270
 4.2230	11.9600
 4.2260	11.9800
 4.2300	12.2310
 4.2330	12.4470
 4.2360	12.4830
 4.2400	12.5210
 4.2430	12.3960
 4.2470	12.2330
 4.2500	12.0460
 4.2540	11.6740
 4.2570	11.4210
 4.2610	11.6010
 4.2640	11.8380
 4.2680	12.1890
 4.2710	12.3430
 4.2750	12.2640
 4.2780	11.9690
 4.2820	11.8590
 4.2850	11.7190
 4.2890	11.7960
 4.2930	11.9100
 4.2960	11.9100
 4.3000	11.9270
 4.3030	11.7010
 4.3070	11.5440
 4.3100	11.4170
 4.3140	11.2590
 4.3180	11.2700
 4.3210	11.2380
 4.3250	11.2520
 4.3280	11.2480
 4.3320	11.2600
 4.3360	11.0830
 4.3390	10.9020
 4.3430	10.9060
 4.3470	10.9950
 4.3500	10.9720
 4.3540	10.8840
 4.3570	10.7870
 4.3610	10.7200
 4.3650	10.7290
 4.3680	10.8300
 4.3720	10.7860
 4.3760	10.6630
 4.3800	10.5280
 4.3830	10.4900
 4.3870	10.6380
 4.3910	10.7100
 4.3940	10.7450
 4.3980	10.6910
 4.4020	10.6260
 4.4060	10.6910
 4.4090	10.7370
 4.4130	10.7290
 4.4170	10.6980
 4.4210	10.6770
 4.4240	10.6840
 4.4280	10.6930
 4.4320	10.6540
 4.4360	10.5400
 4.4400	10.5760
 4.4430	10.6650
 4.4470	10.5950
 4.4510	10.6260
 4.4550	10.6320
 4.4590	10.5980
 4.4620	10.6000
 4.4660	10.5730
 4.4700	10.5690
 4.4740	10.5740
 4.4780	10.6030
 4.4820	10.6420
 4.4860	10.6290
 4.4900	10.6630
 4.4930	10.6230
 4.4970	10.5800
 4.5010	10.5550
 4.5050	10.5840
 4.5090	10.6130
 4.5130	10.5690
 4.5170	10.5670
 4.5210	10.6110
 4.5250	10.5690
 4.5290	10.4820
 4.5330	10.3850
 4.5370	10.4730
 4.5410	10.6560
 4.5450	10.6400
 4.5490	10.5820
 4.5530	10.5380
 4.5570	10.5290
 4.5610	10.5050
 4.5650	10.5110
 4.5690	10.5940
 4.5730	10.5590
 4.5770	10.5110
 4.5810	10.5320
 4.5850	10.5890
 4.5890	10.6210
 4.5930	10.6050
 4.5970	10.4880
 4.6010	10.3480
 4.6050	10.3510
 4.6090	10.3970
 4.6130	10.4440
 4.6170	10.4550
 4.6220	10.4470
 4.6260	10.5260
 4.6300	10.5690
 4.6340	10.5500
 4.6380	10.4790
 4.6420	10.4700
 4.6460	10.5350
 4.6510	10.5400
 4.6550	10.4880
 4.6590	10.4520
 4.6630	10.4680
 4.6670	10.4600
 4.6720	10.5130
 4.6760	10.5150
 4.6800	10.4380
 4.6840	10.3620
 4.6880	10.4030
 4.6930	10.4290
 4.6970	10.4960
 4.7010	10.5360
 4.7050	10.4720
 4.7100	10.4440
 4.7140	10.4060
 4.7180	10.4890
 4.7230	10.6000
 4.7270	10.5670
 4.7310	10.5490
 4.7360	10.5180
 4.7400	10.5570
 4.7440	10.5440
 4.7490	10.4830
 4.7530	10.4290
 4.7570	10.4150
 4.7620	10.4680
 4.7660	10.4910
 4.7700	10.4390
 4.7750	10.3300
 4.7790	10.2460
 4.7840	10.1990
 4.7880	10.4010
 4.7920	10.6190
 4.7970	10.5590
 4.8010	10.4850
 4.8060	10.5380
 4.8100	10.7060
 4.8150	10.6510
 4.8190	10.4240
 4.8240	10.3730
 4.8280	10.4310
 4.8330	10.5120
 4.8370	10.5480
 4.8420	10.5550
 4.8460	10.5610
 4.8510	10.5310
 4.8550	10.5800
 4.8600	10.5860
 4.8640	10.6030
 4.8690	10.5340
 4.8730	10.5310
 4.8780	10.5180
 4.8830	10.5270
 4.8870	10.5500
 4.8920	10.5320
 4.8960	10.5530
 4.9010	10.5130
 4.9060	10.5040
 4.9100	10.5920
 4.9150	10.6620
 4.9200	10.6280
 4.9240	10.5840
 4.9290	10.5270
 4.9340	10.4560
 4.9380	10.5010
 4.9430	10.5250
 4.9480	10.5520
 4.9530	10.5550
 4.9570	10.5650
 4.9620	10.6190
 4.9670	10.5980
 4.9720	10.6100
 4.9760	10.7420
 4.9810	10.7250
 4.9860	10.7290
 4.9910	10.7000
 4.9960	10.6350
 5.0000	10.7040
 5.0050	10.7650
 5.0100	10.7160
 5.0150	10.7980
 5.0200	10.8450
 5.0250	10.8180
 5.0290	10.7750
 5.0340	10.7610
 5.0390	10.6670
 5.0440	10.6280
 5.0490	10.7450
 5.0540	10.7630
 5.0590	10.6800
 5.0640	10.7080
 5.0690	10.7040
 5.0740	10.7470
 5.0790	10.8360
 5.0840	10.7590
 5.0890	10.6550
 5.0940	10.6300
 5.0990	10.6530
 5.1040	10.7340
 5.1090	10.7810
 5.1140	10.7980
 5.1190	10.8150
 5.1240	10.7550
 5.1290	10.6360
 5.1340	10.6620
 5.1390	10.7320
 5.1440	10.6990
 5.1490	10.7150
 5.1540	10.7930
 5.1600	10.8120
 5.1650	10.7930
 5.1700	10.7750
 5.1750	10.8650
 5.1800	10.8460
 5.1850	10.7910
 5.1910	10.7470
 5.1960	10.7080
 5.2010	10.6850
 5.2060	10.7350
 5.2110	10.7700
 5.2170	10.8160
 5.2220	10.8170
 5.2270	10.8270
 5.2320	10.7940
 5.2380	10.7670
 5.2430	10.7280
 5.2480	10.7360
 5.2540	10.7260
 5.2590	10.6520
 5.2640	10.7030
 5.2700	10.8520
 5.2750	10.7920
 5.2800	10.7550
 5.2860	10.7560
 5.2910	10.7520
 5.2970	10.7160
 5.3020	10.7340
 5.3070	10.6460
 5.3130	10.6890
 5.3180	10.7320
 5.3240	10.7160
 5.3290	10.7430
 5.3350	10.7930
 5.3400	10.7040
 5.3460	10.6710
 5.3510	10.7060
 5.3570	10.7710
 5.3620	10.7380
 5.3680	10.6370
 5.3730	10.4940
 5.3790	10.4860
 5.3850	10.5220
 5.3900	10.5460
 5.3960	10.5410
 5.4010	10.6320
 5.4070	10.6230
 5.4130	10.6810
 5.4180	10.7750
 5.4240	10.6780
 5.4300	10.5800
 5.4350	10.5380
 5.4410	10.5160
 5.4470	10.5220
 5.4530	10.4740
 5.4580	10.4500
 5.4640	10.3820
 5.4700	10.3880
 5.4760	10.4830
 5.4810	10.5560
 5.4870	10.4860
 5.4930	10.5090
 5.4990	10.4730
 5.5050	10.4030
 5.5110	10.3420
 5.5160	10.4050
 5.5220	10.5170
 5.5280	10.5370
 5.5340	10.4560
 5.5400	10.4410
 5.5460	10.4110
 5.5520	10.3510
 5.5580	10.2580
 5.5640	10.2750
 5.5700	10.2850
 5.5760	10.2830
 5.5820	10.2420
 5.5880	10.2290
 5.5940	10.2000
 5.6000	10.1770
 5.6060	10.2190
 5.6120	10.1970
 5.6180	10.1010
 5.6240	10.1160
 5.6300	10.1070
 5.6360	10.0160
 5.6420	 9.9120
 5.6490	 9.9550
 5.6550	 9.9990
 5.6610	 9.9370
 5.6670	 9.8520
 5.6730	 9.8760
 5.6800	 9.8360
 5.6860	 9.7820
 5.6920	 9.7320
 5.6980	 9.7200
 5.7040	 9.5080
 5.7110	 9.3570
 5.7170	 9.3600
 5.7230	 9.3140
 5.7300	 9.1580
 5.7360	 9.0880
 5.7420	 9.0940
 5.7490	 9.3250
 5.7550	 9.7160
 5.7620	10.2830
 5.7680	10.7660
 5.7740	11.0990
 5.7810	11.2480
 5.7870	11.3890
 5.7940	11.3090
 5.8000	11.1800
 5.8070	11.0760
 5.8130	11.0720
 5.8200	11.0470
 5.8260	11.0720
 5.8330	11.0440
 5.8390	11.1290
 5.8460	11.1820
 5.8530	11.0950
 5.8590	11.0050
 5.8660	11.0430
 5.8720	11.0930
 5.8790	11.1820
 5.8860	11.1000
 5.8920	11.0400
 5.8990	10.9660
 5.9060	11.1170
 5.9130	11.1200
 5.9190	11.1740
 5.9260	11.2130
 5.9330	11.1880
 5.9400	11.1150
 5.9470	11.1350
 5.9530	11.0800
 5.9600	11.1680
 5.9670	11.2480
 5.9740	11.2830
 5.9810	11.2730
 5.9880	11.2820
 5.9950	11.2410
 6.0020	11.3260
 6.0090	11.3260
 6.0160	11.3740
 6.0230	11.3640
 6.0300	11.3500
 6.0370	11.4220
 6.0440	11.4760
 6.0510	11.2520
 6.0580	11.2850
 6.0650	11.3090
 6.0720	11.3350
 6.0790	11.3820
 6.0860	11.4980
 6.0930	11.5170
 6.1000	11.6200
 6.1080	11.6080
 6.1150	11.5360
 6.1220	11.5990
 6.1290	11.8510
 6.1370	11.8390
 6.1440	11.8530
 6.1510	11.9710
 6.1580	12.1510
 6.1660	12.1920
 6.1730	12.2790
 6.1800	12.1950
 6.1880	12.1020
 6.1950	11.9450
 6.2030	11.9890
 6.2100	11.9230
 6.2170	11.8750
 6.2250	11.9030
 6.2320	11.8240
 6.2400	11.6220
 6.2470	11.6380
 6.2550	11.6820
 6.2630	11.7450
 6.2700	11.6470
 6.2780	11.5820
 6.2850	11.5690
 6.2930	11.6360
 6.3010	11.5160
 6.3080	11.4610
 6.3160	11.4330
 6.3240	11.3950
 6.3310	11.2880
 6.3390	11.2440
 6.3470	11.1630
 6.3550	11.2200
 6.3620	11.2110
 6.3700	11.2350
 6.3780	11.2200
 6.3860	11.2050
 6.3940	11.1120
 6.4020	11.1310
 6.4100	11.0720
 6.4180	11.1980
 6.4260	11.2260
 6.4330	11.2000
 6.4410	11.1400
 6.4490	11.0930
 6.4580	10.9420
 6.4660	11.0140
 6.4740	11.0260
 6.4820	11.0080
 6.4900	10.9140
 6.4980	10.8940
 6.5060	10.9290
 6.5140	10.9710
 6.5230	10.8100
 6.5310	10.8080
 6.5390	10.7530
 6.5470	10.7600
 6.5550	10.7360
 6.5640	10.7230
 6.5720	10.6560
 6.5800	10.7030
 6.5890	10.6480
 6.5970	10.5630
 6.6060	10.5560
 6.6140	10.5820
 6.6220	10.4630
 6.6310	10.4980
 6.6390	10.4790
 6.6480	10.4810
 6.6560	10.4770
 6.6650	10.5280
 6.6740	10.4820
 6.6820	10.5370
 6.6910	10.5440
 6.6990	10.5890
 6.7080	10.4590
 6.7170	10.4300
 6.7260	10.4250
 6.7340	10.3980
 6.7430	10.3190
 6.7520	10.3970
 6.7610	10.3220
 6.7690	10.4130
 6.7780	10.5600
 6.7870	10.6880
 6.7960	10.6500
 6.8050	10.6170
 6.8140	10.6380
 6.8230	10.8290
 6.8320	10.9510
 6.8410	11.1400
 6.8500	11.1070
 6.8590	10.8950
 6.8680	10.7370
 6.8770	10.9290
 6.8860	10.9150
 6.8950	10.9190
 6.9050	10.9260
 6.9140	10.9630
 6.9230	10.8380
 6.9320	10.8350
 6.9420	10.8080
 6.9510	10.9110
 6.9600	10.8660
 6.9700	10.7760
 6.9790	10.7220
 6.9880	10.7730
 6.9980	10.7010
 7.0070	10.7980
 7.0170	10.7900
 7.0260	10.7520
 7.0360	10.7540
 7.0450	10.8960
 7.0550	10.8710
 7.0650	10.9700
 7.0740	11.0830
 7.0840	11.1060
 7.0940	11.0090
 7.1030	10.9760
 7.1130	10.9440
 7.1230	10.9610
 7.1330	10.8100
 7.1420	10.8980
 7.1520	10.8820
 7.1620	10.8540
 7.1720	10.8370
 7.1820	10.9520
 7.1920	10.9360
 7.2020	10.8290
 7.2120	10.6690
 7.2220	10.8140
 7.2320	10.7680
 7.2420	10.8430
 7.2520	10.8160
 7.2620	10.7470
 7.2730	10.7250
 7.2830	10.8820
 7.2930	10.8290
 7.3030	10.8190
 7.3140	10.7370
 7.3240	10.7430
 7.3340	10.6550
 7.3450	10.6800
 7.3550	10.6040
 7.3660	10.6730
 7.3760	10.6460
 7.3870	10.6890
 7.3970	10.6560
 7.4080	10.6810
 7.4180	10.5630
 7.4290	10.6130
 7.4400	10.6330
 7.4500	10.6290
 7.4610	10.4900
 7.4720	10.6060
 7.4830	10.6310
 7.4930	10.7280
 7.5040	10.7700
 7.5150	10.8770
 7.5260	10.8570
 7.5370	10.9410
 7.5480	10.9720
 7.5590	11.0530
 7.5700	10.9690
 7.5810	11.1390
 7.5920	11.4010
 7.6030	11.4750
 7.6140	11.1670
 7.6260	11.0450
 7.6370	11.0760
 7.6480	11.0480
 7.6590	10.7680
 7.6710	10.7790
 7.6820	10.7310
 7.6930	10.6380
 7.7050	10.5040
 7.7160	10.5520
 7.7280	10.4700
 7.7390	10.4670
 7.7510	10.4250
 7.7630	10.5500
 7.7740	10.4060
 7.7860	10.4240
 7.7980	10.5000
 7.8090	10.5970
 7.8210	10.5340
 7.8330	10.5500
 7.8450	10.4310
 7.8570	10.4030
 7.8690	10.3570
 7.8810	10.4780
 7.8930	10.4250
 7.9050	10.4140
 7.9170	10.3230
 7.9290	10.4130
 7.9410	10.4410
 7.9530	10.4490
 7.9650	10.3030
 7.9780	10.2540
 7.9900	10.1990
 8.0020	10.3450
 8.0150	10.3210
 8.0270	10.2730
 8.0390	10.1040
 8.0520	10.2190
 8.0640	10.1350
 8.0770	10.2420
 8.0900	10.2860
 8.1020	10.4930
 8.1150	10.4390
 8.1280	10.5600
 8.1400	10.5060
 8.1530	10.5580
 8.1660	10.3530
 8.1790	10.3060
 8.1920	10.3000
 8.2050	10.4150
 8.2180	10.2840
 8.2310	10.3090
 8.2440	10.1810
 8.2570	10.3270
 8.2700	10.2150
 8.2830	10.2250
 8.2970	10.0860
 8.3100	10.1490
 8.3230	10.2410
 8.3370	10.3380
 8.3500	10.1320
 8.3640	10.3060
 8.3770	10.3110
 8.3910	10.3330
 8.4040	10.3640
 8.4180	10.6480
 8.4320	10.5150
 8.4450	10.4840
 8.4590	10.4090
 8.4730	10.5740
 8.4870	10.4580
 8.5010	10.3910
 8.5150	10.2970
 8.5290	10.3830
 8.5430	10.2030
 8.5570	10.2850
 8.5710	10.3680
 8.5850	10.5460
 8.5990	10.3560
 8.6140	10.4580
 8.6280	10.5240
 8.6420	10.7900
 8.6570	10.7160
 8.6710	10.6440
 8.6860	10.5280
 8.7000	10.4120
 8.7150	10.2510
 8.7300	10.5870
 8.7440	10.5320
 8.7590	10.5120
 8.7740	10.3650
 8.7890	10.5700
 8.8040	10.5660
 8.8190	10.6730
 8.8340	10.5720
 8.8490	10.7290
 8.8640	10.6320
 8.8790	10.6910
 8.8940	10.4900
 8.9100	10.4540
 8.9250	10.3480
 8.9400	10.5530
 8.9560	10.5530
 8.9710	10.7320
 8.9870	10.5010
 9.0020	10.5630
 9.0180	10.6720
 9.0340	10.8130
 9.0500	10.5240
 9.0650	10.5740
 9.0810	10.5590
 9.0970	10.6650
 9.1130	10.5810
 9.1290	10.7740
 9.1450	10.6530
 9.1610	10.6870
 9.1780	10.5460
 9.1940	10.6130
 9.2100	10.4570
 9.2270	10.5210
 9.2430	10.3620
 9.2600	10.3810
 9.2760	10.4920
 9.2930	10.8730
 9.3090	10.5660
 9.3260	10.6040
 9.3430	10.4780
 9.3600	10.5460
 9.3770	10.5900
 9.3940	10.7930
 9.4110	10.5980
 9.4280	10.6950
 9.4450	10.6390
 9.4620	10.8240
 9.4800	10.6760
 9.4970	10.7320
 9.5140	10.5920
 9.5320	10.7310
 9.5500	10.6050
 9.5670	10.7470
 9.5850	10.6910
 9.6030	10.7570
 9.6200	10.6420
 9.6380	10.9670
 9.6560	10.9200
 9.6740	10.9170
 9.6920	10.6480
 9.7100	10.7090
 9.7290	10.6220
 9.7470	10.8950
 9.7650	10.9550
 9.7840	10.8890
 9.8020	10.6920
 9.8210	10.7810
 9.8390	10.5720
 9.8580	10.6460
 9.8770	10.6350
 9.8960	10.8650
 9.9150	10.7570
 9.9340	10.8220
 9.9530	10.5240
 9.9720	10.6000
 9.9910	10.6030
10.0100	10.6610
10.0300	10.4310
10.0490	10.4780
10.0690	10.4240
10.0880	10.5750
10.1080	10.4840
10.1280	10.4860
10.1480	10.3900
10.1670	10.6270
10.1870	10.5040
10.2070	10.5590
10.2280	10.4700
10.2480	10.6500
10.2680	10.4090
10.2890	10.3760
10.3090	10.3150
10.3300	10.4100
10.3500	10.3010
10.3710	10.4630
10.3920	10.2900
10.4120	10.4520
10.4330	10.3800
10.4540	10.5320
10.4760	10.3570
10.4970	10.3970
10.5180	10.2610
10.5390	10.3630
10.5610	10.2620
10.5820	10.3990
10.6040	10.2060
10.6260	10.3640
10.6480	10.3470
10.6700	10.4470
10.6920	10.2760
10.7140	10.5130
10.7360	10.3570
10.7580	10.3940
10.7800	10.2710
10.8030	10.3330
10.8250	10.2080
10.8480	10.4860
10.8710	10.4800
10.8940	10.4820
10.9170	10.2090
10.9400	10.2340
10.9630	10.1160
10.9860	10.5620
11.0090	10.5720
11.0330	10.6950
11.0560	10.3410
11.0800	10.3610
11.1040	10.3020
11.1270	10.3770
11.1510	10.0730
11.1750	10.1120
11.2000	10.0720
11.2240	10.2590
11.2480	10.0850
11.2730	10.1770
11.2970	 9.9740
11.3220	10.0980
11.3470	 9.8040
11.3720	10.0840
11.3970	10.2420
11.4220	10.4610
11.4470	10.4620
11.4720	11.0310
11.4980	10.5330
11.5230	10.3050
11.5490	10.0000
11.5750	10.0950
11.6000	10.1070
11.6260	10.2620
11.6530	10.0930
11.6790	10.2270
11.7050	 9.7540
11.7320	 9.8250
11.7580	 9.9820
11.7850	10.1940
11.8120	 9.8260
11.8390	 9.9670
11.8660	 9.8540
11.8930	10.1020
11.9200	 9.9280
11.9480	10.1670
11.9760	 9.8940
12.0030	 9.9110
12.0310	10.0940
12.0590	10.1470
12.0870	 9.7430
12.1150	 9.9330
12.1440	 9.8500
12.1720	10.2560
12.2010	10.1360
12.2300	10.1440
12.2590	 9.9540
12.2880	10.2790
12.3170	10.1830
12.3460	10.1910
12.3760	 9.9260
12.4050	10.2830
12.4350	10.2820
12.4650	10.3820
12.4950	10.0070
12.5250	10.4140
12.5550	10.4370
12.5860	10.4490
12.6170	10.1050
12.6470	10.3100
12.6780	10.2050
12.7090	10.5260
12.7410	10.4050
12.7720	10.5110
12.8030	10.1610
12.8350	10.1920
12.8670	 9.7340
12.8990	 9.9180
12.9310	 9.7340
12.9640	 9.9430
12.9960	 9.7810
13.0290	 9.8210
13.0610	 9.4780
13.0940	 9.9780
13.1280	 9.7620
13.1610	 9.9780
13.1940	10.0360
13.2280	10.3690
13.2620	10.0230
13.2960	10.0780
13.3300	 9.8160
13.3640	10.0830
13.3990	 9.6510
13.4340	 9.8530
13.4690	 9.5840
13.5040	 9.8470
13.5390	 9.6050
13.5740	 9.9460
13.6100	 9.6840
13.6460	 9.8120
13.6820	 9.8680
13.7180	10.2560
13.7540	 9.7720
13.7910	10.2240
13.8280	10.3480
13.8650	10.7240
13.9020	10.4120
13.9390	10.5420
13.9770	10.3190
14.0150	10.7720
14.0530	10.2030
14.0910	10.2990
14.1290	10.1770
14.1680	10.5730
14.2070	10.3610
14.2460	10.5430
14.2850	10.1680
14.3240	10.3370
14.3640	10.0200
14.4040	10.6150
14.4440	10.3880
14.4840	10.7060
14.5250	10.1510
14.5660	10.3360
14.6070	 9.9350
14.6480	10.4040
14.6900	 9.9570
14.7310	10.5740
14.7730	10.1840
14.8150	10.5000
14.8580	 9.9580
14.9010	10.2800
14.9440	 9.8950
14.9870	10.8830
15.0300	 9.8090
15.0740	10.1600
15.1180	 9.9490
15.1620	10.6310
15.2060	10.2830
15.2510	11.2970
15.2960	10.1780
15.3410	10.0750
15.3870	 9.4030
