Name: Pinus lambertiana 3
Type: vegetation
Class: Tree
Genus: Pinus
Species: lambertiana
Sample No.: VH165
Owner: UCSB
Wavelength Range: VSWIR
Origin: 37.0433; -119.3048; WGS84
Collection Date: 6/8/2013
Description: Samples were collected as part of the HyspIRI Airborne Campaign. 48 individual plants were sampled in three times in 2013 - spring  summer  and fall. The name of the sample includes a 1  2  or 3 which references a different individual of the species. Samples were taken to JPL and processed within 48 hours of collection. The same leaves were processed in the Nicolet and then measured using the ASD.
Measurement: Bidirectional reflectance
First Column: X
Second Column: Y
X Units: Wavelength (micrometers)
Y Units: Reflectance (percentage)
First X Value: 0.35
Last X Value: 2.5
Number of X Values: 2151
Additional Information: vegetation.tree.pinus.lambertiana.vswir.vh165.ucsb.asd.ancillary.txt

 0.3500	 4.6110
 0.3510	 4.7520
 0.3520	 4.7840
 0.3530	 4.7030
 0.3540	 4.5920
 0.3550	 4.5870
 0.3560	 4.4960
 0.3570	 4.4260
 0.3580	 4.5940
 0.3590	 4.7010
 0.3600	 4.6330
 0.3610	 4.4570
 0.3620	 4.4300
 0.3630	 4.5250
 0.3640	 4.6410
 0.3650	 4.6630
 0.3660	 4.5420
 0.3670	 4.5040
 0.3680	 4.5660
 0.3690	 4.5890
 0.3700	 4.4800
 0.3710	 4.4200
 0.3720	 4.4750
 0.3730	 4.4590
 0.3740	 4.4360
 0.3750	 4.4410
 0.3760	 4.4860
 0.3770	 4.5370
 0.3780	 4.5150
 0.3790	 4.4590
 0.3800	 4.5020
 0.3810	 4.4790
 0.3820	 4.4490
 0.3830	 4.4670
 0.3840	 4.4910
 0.3850	 4.4430
 0.3860	 4.4080
 0.3870	 4.4820
 0.3880	 4.4910
 0.3890	 4.4750
 0.3900	 4.4560
 0.3910	 4.4270
 0.3920	 4.4280
 0.3930	 4.4450
 0.3940	 4.4640
 0.3950	 4.4480
 0.3960	 4.4570
 0.3970	 4.4600
 0.3980	 4.4150
 0.3990	 4.4850
 0.4000	 4.5140
 0.4010	 4.4710
 0.4020	 4.5060
 0.4030	 4.5260
 0.4040	 4.5290
 0.4050	 4.5410
 0.4060	 4.5770
 0.4070	 4.6010
 0.4080	 4.6220
 0.4090	 4.6690
 0.4100	 4.6990
 0.4110	 4.7220
 0.4120	 4.7510
 0.4130	 4.7980
 0.4140	 4.8580
 0.4150	 4.9140
 0.4160	 4.9570
 0.4170	 5.0020
 0.4180	 5.0530
 0.4190	 5.1160
 0.4200	 5.1860
 0.4210	 5.2650
 0.4220	 5.3270
 0.4230	 5.3680
 0.4240	 5.4060
 0.4250	 5.4650
 0.4260	 5.5350
 0.4270	 5.5980
 0.4280	 5.6540
 0.4290	 5.7120
 0.4300	 5.7670
 0.4310	 5.7990
 0.4320	 5.8420
 0.4330	 5.8900
 0.4340	 5.9290
 0.4350	 5.9670
 0.4360	 6.0030
 0.4370	 6.0350
 0.4380	 6.0700
 0.4390	 6.1120
 0.4400	 6.1520
 0.4410	 6.1850
 0.4420	 6.2220
 0.4430	 6.2520
 0.4440	 6.2750
 0.4450	 6.2950
 0.4460	 6.3330
 0.4470	 6.3690
 0.4480	 6.3920
 0.4490	 6.4170
 0.4500	 6.4450
 0.4510	 6.4710
 0.4520	 6.4950
 0.4530	 6.5140
 0.4540	 6.5310
 0.4550	 6.5530
 0.4560	 6.5760
 0.4570	 6.5850
 0.4580	 6.5980
 0.4590	 6.6170
 0.4600	 6.6290
 0.4610	 6.6440
 0.4620	 6.6630
 0.4630	 6.6750
 0.4640	 6.6790
 0.4650	 6.6820
 0.4660	 6.6950
 0.4670	 6.7010
 0.4680	 6.7110
 0.4690	 6.7240
 0.4700	 6.7320
 0.4710	 6.7400
 0.4720	 6.7420
 0.4730	 6.7440
 0.4740	 6.7590
 0.4750	 6.7660
 0.4760	 6.7690
 0.4770	 6.7710
 0.4780	 6.7910
 0.4790	 6.8110
 0.4800	 6.8210
 0.4810	 6.8190
 0.4820	 6.8170
 0.4830	 6.8280
 0.4840	 6.8480
 0.4850	 6.8560
 0.4860	 6.8720
 0.4870	 6.8890
 0.4880	 6.9040
 0.4890	 6.9280
 0.4900	 6.9570
 0.4910	 6.9850
 0.4920	 7.0080
 0.4930	 7.0480
 0.4940	 7.0900
 0.4950	 7.1310
 0.4960	 7.1690
 0.4970	 7.2270
 0.4980	 7.2930
 0.4990	 7.3560
 0.5000	 7.4130
 0.5010	 7.4820
 0.5020	 7.5610
 0.5030	 7.6510
 0.5040	 7.7510
 0.5050	 7.8600
 0.5060	 7.9710
 0.5070	 8.0950
 0.5080	 8.2280
 0.5090	 8.3670
 0.5100	 8.5190
 0.5110	 8.6810
 0.5120	 8.8610
 0.5130	 9.0500
 0.5140	 9.2470
 0.5150	 9.4510
 0.5160	 9.6660
 0.5170	 9.8880
 0.5180	10.1240
 0.5190	10.3600
 0.5200	10.5930
 0.5210	10.8240
 0.5220	11.0520
 0.5230	11.2830
 0.5240	11.5180
 0.5250	11.7320
 0.5260	11.9380
 0.5270	12.1360
 0.5280	12.3210
 0.5290	12.4980
 0.5300	12.6650
 0.5310	12.8200
 0.5320	12.9590
 0.5330	13.0950
 0.5340	13.2240
 0.5350	13.3410
 0.5360	13.4440
 0.5370	13.5400
 0.5380	13.6330
 0.5390	13.7230
 0.5400	13.8100
 0.5410	13.8860
 0.5420	13.9530
 0.5430	14.0280
 0.5440	14.1020
 0.5450	14.1780
 0.5460	14.2560
 0.5470	14.3330
 0.5480	14.4010
 0.5490	14.4590
 0.5500	14.5160
 0.5510	14.5640
 0.5520	14.6020
 0.5530	14.6340
 0.5540	14.6520
 0.5550	14.6580
 0.5560	14.6520
 0.5570	14.6340
 0.5580	14.6040
 0.5590	14.5640
 0.5600	14.5130
 0.5610	14.4490
 0.5620	14.3750
 0.5630	14.2930
 0.5640	14.2070
 0.5650	14.1170
 0.5660	14.0190
 0.5670	13.9150
 0.5680	13.8070
 0.5690	13.6950
 0.5700	13.5820
 0.5710	13.4670
 0.5720	13.3430
 0.5730	13.2210
 0.5740	13.1060
 0.5750	12.9960
 0.5760	12.8970
 0.5770	12.8140
 0.5780	12.7410
 0.5790	12.6630
 0.5800	12.5860
 0.5810	12.5110
 0.5820	12.4380
 0.5830	12.3690
 0.5840	12.3080
 0.5850	12.2510
 0.5860	12.1940
 0.5870	12.1410
 0.5880	12.0870
 0.5890	12.0300
 0.5900	11.9790
 0.5910	11.9350
 0.5920	11.8960
 0.5930	11.8610
 0.5940	11.8380
 0.5950	11.8230
 0.5960	11.8130
 0.5970	11.8050
 0.5980	11.7970
 0.5990	11.7870
 0.6000	11.7720
 0.6010	11.7490
 0.6020	11.7210
 0.6030	11.6910
 0.6040	11.6530
 0.6050	11.6070
 0.6060	11.5520
 0.6070	11.4860
 0.6080	11.4140
 0.6090	11.3400
 0.6100	11.2630
 0.6110	11.1830
 0.6120	11.1070
 0.6130	11.0350
 0.6140	10.9630
 0.6150	10.8910
 0.6160	10.8230
 0.6170	10.7580
 0.6180	10.6970
 0.6190	10.6440
 0.6200	10.5950
 0.6210	10.5490
 0.6220	10.5110
 0.6230	10.4810
 0.6240	10.4570
 0.6250	10.4390
 0.6260	10.4280
 0.6270	10.4220
 0.6280	10.4150
 0.6290	10.4080
 0.6300	10.4060
 0.6310	10.4010
 0.6320	10.3890
 0.6330	10.3730
 0.6340	10.3440
 0.6350	10.3030
 0.6360	10.2490
 0.6370	10.1780
 0.6380	10.0940
 0.6390	10.0050
 0.6400	 9.9080
 0.6410	 9.7990
 0.6420	 9.6880
 0.6430	 9.5780
 0.6440	 9.4640
 0.6450	 9.3490
 0.6460	 9.2400
 0.6470	 9.1360
 0.6480	 9.0420
 0.6490	 8.9630
 0.6500	 8.8990
 0.6510	 8.8420
 0.6520	 8.7900
 0.6530	 8.7450
 0.6540	 8.7030
 0.6550	 8.6560
 0.6560	 8.6020
 0.6570	 8.5400
 0.6580	 8.4680
 0.6590	 8.3920
 0.6600	 8.3080
 0.6610	 8.2250
 0.6620	 8.1370
 0.6630	 8.0520
 0.6640	 7.9700
 0.6650	 7.8970
 0.6660	 7.8310
 0.6670	 7.7780
 0.6680	 7.7330
 0.6690	 7.6900
 0.6700	 7.6570
 0.6710	 7.6360
 0.6720	 7.6210
 0.6730	 7.6150
 0.6740	 7.6130
 0.6750	 7.6150
 0.6760	 7.6260
 0.6770	 7.6450
 0.6780	 7.6670
 0.6790	 7.6980
 0.6800	 7.7400
 0.6810	 7.7930
 0.6820	 7.8630
 0.6830	 7.9540
 0.6840	 8.0710
 0.6850	 8.2190
 0.6860	 8.4090
 0.6870	 8.6470
 0.6880	 8.9440
 0.6890	 9.3090
 0.6900	 9.7500
 0.6910	10.2670
 0.6920	10.8640
 0.6930	11.5320
 0.6940	12.2690
 0.6950	13.0670
 0.6960	13.9130
 0.6970	14.8030
 0.6980	15.7350
 0.6990	16.6940
 0.7000	17.6700
 0.7010	18.6590
 0.7020	19.6570
 0.7030	20.6530
 0.7040	21.6420
 0.7050	22.6230
 0.7060	23.5970
 0.7070	24.5600
 0.7080	25.5100
 0.7090	26.4500
 0.7100	27.3890
 0.7110	28.3180
 0.7120	29.2370
 0.7130	30.1480
 0.7140	31.0520
 0.7150	31.9470
 0.7160	32.8330
 0.7170	33.7130
 0.7180	34.5800
 0.7190	35.4340
 0.7200	36.2780
 0.7210	37.1110
 0.7220	37.9320
 0.7230	38.7350
 0.7240	39.5130
 0.7250	40.2700
 0.7260	41.0050
 0.7270	41.7170
 0.7280	42.4060
 0.7290	43.0670
 0.7300	43.7000
 0.7310	44.3070
 0.7320	44.8870
 0.7330	45.4400
 0.7340	45.9650
 0.7350	46.4680
 0.7360	46.9450
 0.7370	47.3970
 0.7380	47.8250
 0.7390	48.2340
 0.7400	48.6180
 0.7410	48.9790
 0.7420	49.3200
 0.7430	49.6390
 0.7440	49.9390
 0.7450	50.2220
 0.7460	50.4860
 0.7470	50.7290
 0.7480	50.9550
 0.7490	51.1690
 0.7500	51.3750
 0.7510	51.5610
 0.7520	51.7310
 0.7530	51.8910
 0.7540	52.0390
 0.7550	52.1780
 0.7560	52.3100
 0.7570	52.4300
 0.7580	52.5440
 0.7590	52.6510
 0.7600	52.7500
 0.7610	52.8470
 0.7620	52.9390
 0.7630	53.0220
 0.7640	53.0970
 0.7650	53.1730
 0.7660	53.2450
 0.7670	53.3130
 0.7680	53.3790
 0.7690	53.4400
 0.7700	53.5020
 0.7710	53.5630
 0.7720	53.6180
 0.7730	53.6730
 0.7740	53.7260
 0.7750	53.7780
 0.7760	53.8360
 0.7770	53.8880
 0.7780	53.9340
 0.7790	53.9770
 0.7800	54.0220
 0.7810	54.0700
 0.7820	54.1200
 0.7830	54.1630
 0.7840	54.2080
 0.7850	54.2510
 0.7860	54.2890
 0.7870	54.3350
 0.7880	54.3770
 0.7890	54.4170
 0.7900	54.4580
 0.7910	54.4980
 0.7920	54.5340
 0.7930	54.5690
 0.7940	54.6080
 0.7950	54.6420
 0.7960	54.6770
 0.7970	54.7150
 0.7980	54.7470
 0.7990	54.7740
 0.8000	54.8010
 0.8010	54.8330
 0.8020	54.8650
 0.8030	54.8910
 0.8040	54.9140
 0.8050	54.9420
 0.8060	54.9640
 0.8070	54.9860
 0.8080	55.0110
 0.8090	55.0330
 0.8100	55.0540
 0.8110	55.0760
 0.8120	55.0980
 0.8130	55.1120
 0.8140	55.1300
 0.8150	55.1490
 0.8160	55.1680
 0.8170	55.1890
 0.8180	55.2070
 0.8190	55.2220
 0.8200	55.2360
 0.8210	55.2530
 0.8220	55.2660
 0.8230	55.2780
 0.8240	55.2930
 0.8250	55.3040
 0.8260	55.3120
 0.8270	55.3180
 0.8280	55.3210
 0.8290	55.3250
 0.8300	55.3320
 0.8310	55.3420
 0.8320	55.3450
 0.8330	55.3520
 0.8340	55.3640
 0.8350	55.3790
 0.8360	55.3940
 0.8370	55.4030
 0.8380	55.4090
 0.8390	55.4230
 0.8400	55.4410
 0.8410	55.4580
 0.8420	55.4720
 0.8430	55.4930
 0.8440	55.5110
 0.8450	55.5290
 0.8460	55.5480
 0.8470	55.5620
 0.8480	55.5830
 0.8490	55.6030
 0.8500	55.6150
 0.8510	55.6400
 0.8520	55.6610
 0.8530	55.6760
 0.8540	55.6930
 0.8550	55.7140
 0.8560	55.7330
 0.8570	55.7480
 0.8580	55.7660
 0.8590	55.7880
 0.8600	55.8060
 0.8610	55.8200
 0.8620	55.8330
 0.8630	55.8510
 0.8640	55.8710
 0.8650	55.8900
 0.8660	55.9080
 0.8670	55.9280
 0.8680	55.9440
 0.8690	55.9530
 0.8700	55.9710
 0.8710	55.9910
 0.8720	56.0100
 0.8730	56.0240
 0.8740	56.0430
 0.8750	56.0620
 0.8760	56.0820
 0.8770	56.1070
 0.8780	56.1220
 0.8790	56.1330
 0.8800	56.1480
 0.8810	56.1670
 0.8820	56.1770
 0.8830	56.1890
 0.8840	56.2070
 0.8850	56.2190
 0.8860	56.2270
 0.8870	56.2330
 0.8880	56.2420
 0.8890	56.2550
 0.8900	56.2660
 0.8910	56.2760
 0.8920	56.2860
 0.8930	56.2910
 0.8940	56.2980
 0.8950	56.3100
 0.8960	56.3260
 0.8970	56.3320
 0.8980	56.3360
 0.8990	56.3400
 0.9000	56.3410
 0.9010	56.3470
 0.9020	56.3560
 0.9030	56.3630
 0.9040	56.3600
 0.9050	56.3600
 0.9060	56.3670
 0.9070	56.3780
 0.9080	56.3750
 0.9090	56.3730
 0.9100	56.3750
 0.9110	56.3810
 0.9120	56.3770
 0.9130	56.3820
 0.9140	56.3900
 0.9150	56.3880
 0.9160	56.3920
 0.9170	56.3910
 0.9180	56.3880
 0.9190	56.3890
 0.9200	56.3820
 0.9210	56.3790
 0.9220	56.3790
 0.9230	56.3700
 0.9240	56.3440
 0.9250	56.3310
 0.9260	56.3200
 0.9270	56.2800
 0.9280	56.2580
 0.9290	56.2360
 0.9300	56.2060
 0.9310	56.1730
 0.9320	56.1320
 0.9330	56.0910
 0.9340	56.0530
 0.9350	56.0060
 0.9360	55.9590
 0.9370	55.9120
 0.9380	55.8640
 0.9390	55.8110
 0.9400	55.7430
 0.9410	55.6710
 0.9420	55.6040
 0.9430	55.5420
 0.9440	55.4660
 0.9450	55.3830
 0.9460	55.2990
 0.9470	55.1910
 0.9480	55.0880
 0.9490	54.9780
 0.9500	54.8500
 0.9510	54.7280
 0.9520	54.5890
 0.9530	54.4370
 0.9540	54.2830
 0.9550	54.1440
 0.9560	53.9980
 0.9570	53.8550
 0.9580	53.7260
 0.9590	53.5920
 0.9600	53.4770
 0.9610	53.3730
 0.9620	53.2690
 0.9630	53.1840
 0.9640	53.1090
 0.9650	53.0360
 0.9660	52.9650
 0.9670	52.9170
 0.9680	52.8700
 0.9690	52.8240
 0.9700	52.7860
 0.9710	52.7420
 0.9720	52.7190
 0.9730	52.6940
 0.9740	52.6400
 0.9750	52.6240
 0.9760	52.6090
 0.9770	52.5930
 0.9780	52.5910
 0.9790	52.5740
 0.9800	52.5780
 0.9810	52.5870
 0.9820	52.5800
 0.9830	52.6170
 0.9840	52.6420
 0.9850	52.6660
 0.9860	52.7190
 0.9870	52.7460
 0.9880	52.7650
 0.9890	52.7890
 0.9900	52.8260
 0.9910	52.8680
 0.9920	52.9120
 0.9930	52.9610
 0.9940	53.0170
 0.9950	53.0710
 0.9960	53.1180
 0.9970	53.1670
 0.9980	53.2340
 0.9990	53.3130
 1.0000	53.8230
 1.0010	54.7370
 1.0020	55.2480
 1.0030	55.3100
 1.0040	55.3750
 1.0050	55.4430
 1.0060	55.5190
 1.0070	55.5900
 1.0080	55.6570
 1.0090	55.7170
 1.0100	55.7830
 1.0110	55.8460
 1.0120	55.9140
 1.0130	55.9870
 1.0140	56.0570
 1.0150	56.1280
 1.0160	56.1980
 1.0170	56.2650
 1.0180	56.3320
 1.0190	56.3980
 1.0200	56.4640
 1.0210	56.5320
 1.0220	56.6010
 1.0230	56.6700
 1.0240	56.7430
 1.0250	56.8100
 1.0260	56.8720
 1.0270	56.9380
 1.0280	57.0010
 1.0290	57.0660
 1.0300	57.1350
 1.0310	57.2000
 1.0320	57.2620
 1.0330	57.3200
 1.0340	57.3780
 1.0350	57.4340
 1.0360	57.4860
 1.0370	57.5460
 1.0380	57.6050
 1.0390	57.6650
 1.0400	57.7220
 1.0410	57.7830
 1.0420	57.8360
 1.0430	57.8830
 1.0440	57.9320
 1.0450	57.9790
 1.0460	58.0270
 1.0470	58.0800
 1.0480	58.1270
 1.0490	58.1730
 1.0500	58.2170
 1.0510	58.2580
 1.0520	58.2950
 1.0530	58.3310
 1.0540	58.3630
 1.0550	58.3960
 1.0560	58.4280
 1.0570	58.4610
 1.0580	58.4960
 1.0590	58.5280
 1.0600	58.5600
 1.0610	58.5880
 1.0620	58.6120
 1.0630	58.6370
 1.0640	58.6620
 1.0650	58.6840
 1.0660	58.7060
 1.0670	58.7240
 1.0680	58.7380
 1.0690	58.7460
 1.0700	58.7600
 1.0710	58.7740
 1.0720	58.7860
 1.0730	58.8000
 1.0740	58.8080
 1.0750	58.8100
 1.0760	58.8150
 1.0770	58.8190
 1.0780	58.8230
 1.0790	58.8300
 1.0800	58.8320
 1.0810	58.8310
 1.0820	58.8290
 1.0830	58.8290
 1.0840	58.8230
 1.0850	58.8130
 1.0860	58.8050
 1.0870	58.7940
 1.0880	58.7800
 1.0890	58.7680
 1.0900	58.7580
 1.0910	58.7440
 1.0920	58.7310
 1.0930	58.7100
 1.0940	58.6830
 1.0950	58.6600
 1.0960	58.6370
 1.0970	58.6120
 1.0980	58.5900
 1.0990	58.5670
 1.1000	58.5430
 1.1010	58.5150
 1.1020	58.4860
 1.1030	58.4550
 1.1040	58.4210
 1.1050	58.3860
 1.1060	58.3530
 1.1070	58.3230
 1.1080	58.2890
 1.1090	58.2540
 1.1100	58.2170
 1.1110	58.1800
 1.1120	58.1370
 1.1130	58.0920
 1.1140	58.0430
 1.1150	57.9940
 1.1160	57.9360
 1.1170	57.8710
 1.1180	57.8020
 1.1190	57.7280
 1.1200	57.6450
 1.1210	57.5610
 1.1220	57.4710
 1.1230	57.3700
 1.1240	57.2620
 1.1250	57.1380
 1.1260	57.0020
 1.1270	56.8550
 1.1280	56.6950
 1.1290	56.5210
 1.1300	56.3390
 1.1310	56.1360
 1.1320	55.9150
 1.1330	55.6820
 1.1340	55.4330
 1.1350	55.1730
 1.1360	54.9020
 1.1370	54.6170
 1.1380	54.3200
 1.1390	54.0170
 1.1400	53.7010
 1.1410	53.3810
 1.1420	53.0570
 1.1430	52.7290
 1.1440	52.4060
 1.1450	52.0790
 1.1460	51.7640
 1.1470	51.4470
 1.1480	51.1470
 1.1490	50.8500
 1.1500	50.5740
 1.1510	50.3070
 1.1520	50.0580
 1.1530	49.8230
 1.1540	49.6060
 1.1550	49.4040
 1.1560	49.2180
 1.1570	49.0500
 1.1580	48.8970
 1.1590	48.7590
 1.1600	48.6350
 1.1610	48.5230
 1.1620	48.4190
 1.1630	48.3250
 1.1640	48.2430
 1.1650	48.1660
 1.1660	48.1000
 1.1670	48.0360
 1.1680	47.9790
 1.1690	47.9240
 1.1700	47.8720
 1.1710	47.8250
 1.1720	47.7830
 1.1730	47.7390
 1.1740	47.7000
 1.1750	47.6590
 1.1760	47.6170
 1.1770	47.5720
 1.1780	47.5260
 1.1790	47.4790
 1.1800	47.4290
 1.1810	47.3790
 1.1820	47.3290
 1.1830	47.2810
 1.1840	47.2340
 1.1850	47.1860
 1.1860	47.1390
 1.1870	47.0950
 1.1880	47.0540
 1.1890	47.0150
 1.1900	46.9790
 1.1910	46.9450
 1.1920	46.9160
 1.1930	46.8880
 1.1940	46.8660
 1.1950	46.8480
 1.1960	46.8320
 1.1970	46.8210
 1.1980	46.8150
 1.1990	46.8160
 1.2000	46.8200
 1.2010	46.8290
 1.2020	46.8430
 1.2030	46.8580
 1.2040	46.8770
 1.2050	46.9010
 1.2060	46.9290
 1.2070	46.9610
 1.2080	46.9990
 1.2090	47.0380
 1.2100	47.0800
 1.2110	47.1270
 1.2120	47.1780
 1.2130	47.2320
 1.2140	47.2920
 1.2150	47.3540
 1.2160	47.4190
 1.2170	47.4840
 1.2180	47.5540
 1.2190	47.6270
 1.2200	47.6990
 1.2210	47.7740
 1.2220	47.8470
 1.2230	47.9170
 1.2240	47.9910
 1.2250	48.0640
 1.2260	48.1390
 1.2270	48.2140
 1.2280	48.2880
 1.2290	48.3600
 1.2300	48.4290
 1.2310	48.4970
 1.2320	48.5650
 1.2330	48.6300
 1.2340	48.6930
 1.2350	48.7550
 1.2360	48.8150
 1.2370	48.8730
 1.2380	48.9290
 1.2390	48.9850
 1.2400	49.0400
 1.2410	49.0920
 1.2420	49.1390
 1.2430	49.1870
 1.2440	49.2340
 1.2450	49.2790
 1.2460	49.3250
 1.2470	49.3710
 1.2480	49.4130
 1.2490	49.4550
 1.2500	49.4920
 1.2510	49.5280
 1.2520	49.5630
 1.2530	49.5950
 1.2540	49.6270
 1.2550	49.6580
 1.2560	49.6880
 1.2570	49.7150
 1.2580	49.7400
 1.2590	49.7630
 1.2600	49.7830
 1.2610	49.8020
 1.2620	49.8180
 1.2630	49.8320
 1.2640	49.8450
 1.2650	49.8560
 1.2660	49.8670
 1.2670	49.8780
 1.2680	49.8870
 1.2690	49.8930
 1.2700	49.8970
 1.2710	49.8990
 1.2720	49.8990
 1.2730	49.8980
 1.2740	49.8940
 1.2750	49.8850
 1.2760	49.8750
 1.2770	49.8640
 1.2780	49.8500
 1.2790	49.8350
 1.2800	49.8180
 1.2810	49.7960
 1.2820	49.7710
 1.2830	49.7450
 1.2840	49.7150
 1.2850	49.6810
 1.2860	49.6420
 1.2870	49.5990
 1.2880	49.5520
 1.2890	49.5010
 1.2900	49.4440
 1.2910	49.3820
 1.2920	49.3170
 1.2930	49.2440
 1.2940	49.1670
 1.2950	49.0870
 1.2960	48.9980
 1.2970	48.9020
 1.2980	48.8030
 1.2990	48.6980
 1.3000	48.5890
 1.3010	48.4760
 1.3020	48.3550
 1.3030	48.2300
 1.3040	48.1000
 1.3050	47.9640
 1.3060	47.8240
 1.3070	47.6760
 1.3080	47.5260
 1.3090	47.3720
 1.3100	47.2110
 1.3110	47.0440
 1.3120	46.8700
 1.3130	46.6930
 1.3140	46.5100
 1.3150	46.3240
 1.3160	46.1320
 1.3170	45.9350
 1.3180	45.7330
 1.3190	45.5270
 1.3200	45.3190
 1.3210	45.1040
 1.3220	44.8830
 1.3230	44.6590
 1.3240	44.4280
 1.3250	44.1980
 1.3260	43.9650
 1.3270	43.7280
 1.3280	43.4920
 1.3290	43.2500
 1.3300	43.0060
 1.3310	42.7620
 1.3320	42.5150
 1.3330	42.2690
 1.3340	42.0250
 1.3350	41.7820
 1.3360	41.5390
 1.3370	41.2940
 1.3380	41.0530
 1.3390	40.8130
 1.3400	40.5750
 1.3410	40.3430
 1.3420	40.1120
 1.3430	39.8830
 1.3440	39.6610
 1.3450	39.4410
 1.3460	39.2230
 1.3470	39.0110
 1.3480	38.8040
 1.3490	38.6000
 1.3500	38.4010
 1.3510	38.2040
 1.3520	38.0070
 1.3530	37.8140
 1.3540	37.6220
 1.3550	37.4300
 1.3560	37.2410
 1.3570	37.0520
 1.3580	36.8640
 1.3590	36.6740
 1.3600	36.4800
 1.3610	36.2840
 1.3620	36.0820
 1.3630	35.8750
 1.3640	35.6640
 1.3650	35.4450
 1.3660	35.2190
 1.3670	34.9850
 1.3680	34.7400
 1.3690	34.4840
 1.3700	34.2140
 1.3710	33.9300
 1.3720	33.6320
 1.3730	33.3180
 1.3740	32.9890
 1.3750	32.6420
 1.3760	32.2740
 1.3770	31.8860
 1.3780	31.4710
 1.3790	31.0360
 1.3800	30.5810
 1.3810	30.1020
 1.3820	29.6100
 1.3830	29.1020
 1.3840	28.5800
 1.3850	28.0390
 1.3860	27.4930
 1.3870	26.9300
 1.3880	26.3700
 1.3890	25.8050
 1.3900	25.2350
 1.3910	24.6720
 1.3920	24.1100
 1.3930	23.5490
 1.3940	22.9980
 1.3950	22.4520
 1.3960	21.9180
 1.3970	21.4010
 1.3980	20.8980
 1.3990	20.4170
 1.4000	19.9540
 1.4010	19.5060
 1.4020	19.0800
 1.4030	18.6700
 1.4040	18.2800
 1.4050	17.9130
 1.4060	17.5630
 1.4070	17.2350
 1.4080	16.9270
 1.4090	16.6350
 1.4100	16.3640
 1.4110	16.1080
 1.4120	15.8690
 1.4130	15.6470
 1.4140	15.4400
 1.4150	15.2490
 1.4160	15.0700
 1.4170	14.9040
 1.4180	14.7520
 1.4190	14.6090
 1.4200	14.4770
 1.4210	14.3560
 1.4220	14.2430
 1.4230	14.1410
 1.4240	14.0470
 1.4250	13.9590
 1.4260	13.8800
 1.4270	13.8050
 1.4280	13.7370
 1.4290	13.6750
 1.4300	13.6200
 1.4310	13.5700
 1.4320	13.5260
 1.4330	13.4850
 1.4340	13.4490
 1.4350	13.4170
 1.4360	13.3890
 1.4370	13.3640
 1.4380	13.3440
 1.4390	13.3260
 1.4400	13.3130
 1.4410	13.3030
 1.4420	13.2940
 1.4430	13.2880
 1.4440	13.2840
 1.4450	13.2820
 1.4460	13.2820
 1.4470	13.2830
 1.4480	13.2860
 1.4490	13.2910
 1.4500	13.2980
 1.4510	13.3060
 1.4520	13.3160
 1.4530	13.3250
 1.4540	13.3360
 1.4550	13.3490
 1.4560	13.3630
 1.4570	13.3800
 1.4580	13.3980
 1.4590	13.4180
 1.4600	13.4400
 1.4610	13.4650
 1.4620	13.4940
 1.4630	13.5250
 1.4640	13.5580
 1.4650	13.5950
 1.4660	13.6350
 1.4670	13.6790
 1.4680	13.7260
 1.4690	13.7770
 1.4700	13.8300
 1.4710	13.8860
 1.4720	13.9470
 1.4730	14.0090
 1.4740	14.0740
 1.4750	14.1430
 1.4760	14.2130
 1.4770	14.2850
 1.4780	14.3590
 1.4790	14.4360
 1.4800	14.5140
 1.4810	14.5930
 1.4820	14.6740
 1.4830	14.7550
 1.4840	14.8380
 1.4850	14.9220
 1.4860	15.0070
 1.4870	15.0950
 1.4880	15.1830
 1.4890	15.2730
 1.4900	15.3620
 1.4910	15.4510
 1.4920	15.5420
 1.4930	15.6320
 1.4940	15.7230
 1.4950	15.8160
 1.4960	15.9100
 1.4970	16.0020
 1.4980	16.0960
 1.4990	16.1910
 1.5000	16.2850
 1.5010	16.3790
 1.5020	16.4730
 1.5030	16.5670
 1.5040	16.6620
 1.5050	16.7570
 1.5060	16.8510
 1.5070	16.9460
 1.5080	17.0410
 1.5090	17.1350
 1.5100	17.2290
 1.5110	17.3240
 1.5120	17.4170
 1.5130	17.5100
 1.5140	17.6030
 1.5150	17.6950
 1.5160	17.7850
 1.5170	17.8780
 1.5180	17.9700
 1.5190	18.0590
 1.5200	18.1510
 1.5210	18.2400
 1.5220	18.3270
 1.5230	18.4170
 1.5240	18.5040
 1.5250	18.5900
 1.5260	18.6750
 1.5270	18.7590
 1.5280	18.8440
 1.5290	18.9280
 1.5300	19.0130
 1.5310	19.0970
 1.5320	19.1790
 1.5330	19.2620
 1.5340	19.3440
 1.5350	19.4260
 1.5360	19.5080
 1.5370	19.5870
 1.5380	19.6670
 1.5390	19.7460
 1.5400	19.8230
 1.5410	19.9010
 1.5420	19.9780
 1.5430	20.0540
 1.5440	20.1310
 1.5450	20.2070
 1.5460	20.2830
 1.5470	20.3580
 1.5480	20.4340
 1.5490	20.5090
 1.5500	20.5840
 1.5510	20.6600
 1.5520	20.7350
 1.5530	20.8080
 1.5540	20.8800
 1.5550	20.9510
 1.5560	21.0220
 1.5570	21.0940
 1.5580	21.1660
 1.5590	21.2360
 1.5600	21.3060
 1.5610	21.3740
 1.5620	21.4420
 1.5630	21.5110
 1.5640	21.5780
 1.5650	21.6460
 1.5660	21.7150
 1.5670	21.7820
 1.5680	21.8500
 1.5690	21.9150
 1.5700	21.9800
 1.5710	22.0450
 1.5720	22.1100
 1.5730	22.1750
 1.5740	22.2410
 1.5750	22.3050
 1.5760	22.3680
 1.5770	22.4330
 1.5780	22.4960
 1.5790	22.5600
 1.5800	22.6250
 1.5810	22.6880
 1.5820	22.7510
 1.5830	22.8140
 1.5840	22.8780
 1.5850	22.9410
 1.5860	23.0040
 1.5870	23.0680
 1.5880	23.1310
 1.5890	23.1950
 1.5900	23.2590
 1.5910	23.3230
 1.5920	23.3890
 1.5930	23.4540
 1.5940	23.5190
 1.5950	23.5830
 1.5960	23.6480
 1.5970	23.7140
 1.5980	23.7800
 1.5990	23.8450
 1.6000	23.9100
 1.6010	23.9730
 1.6020	24.0370
 1.6030	24.1020
 1.6040	24.1660
 1.6050	24.2310
 1.6060	24.2940
 1.6070	24.3560
 1.6080	24.4160
 1.6090	24.4760
 1.6100	24.5350
 1.6110	24.5960
 1.6120	24.6550
 1.6130	24.7130
 1.6140	24.7710
 1.6150	24.8250
 1.6160	24.8800
 1.6170	24.9350
 1.6180	24.9880
 1.6190	25.0400
 1.6200	25.0910
 1.6210	25.1400
 1.6220	25.1890
 1.6230	25.2370
 1.6240	25.2830
 1.6250	25.3280
 1.6260	25.3730
 1.6270	25.4160
 1.6280	25.4580
 1.6290	25.4990
 1.6300	25.5380
 1.6310	25.5770
 1.6320	25.6160
 1.6330	25.6550
 1.6340	25.6970
 1.6350	25.7370
 1.6360	25.7780
 1.6370	25.8160
 1.6380	25.8530
 1.6390	25.8870
 1.6400	25.9190
 1.6410	25.9490
 1.6420	25.9770
 1.6430	26.0020
 1.6440	26.0240
 1.6450	26.0420
 1.6460	26.0580
 1.6470	26.0700
 1.6480	26.0810
 1.6490	26.0890
 1.6500	26.0930
 1.6510	26.0960
 1.6520	26.0950
 1.6530	26.0920
 1.6540	26.0880
 1.6550	26.0800
 1.6560	26.0720
 1.6570	26.0630
 1.6580	26.0530
 1.6590	26.0410
 1.6600	26.0290
 1.6610	26.0190
 1.6620	26.0090
 1.6630	26.0000
 1.6640	25.9930
 1.6650	25.9860
 1.6660	25.9810
 1.6670	25.9770
 1.6680	25.9740
 1.6690	25.9700
 1.6700	25.9670
 1.6710	25.9660
 1.6720	25.9650
 1.6730	25.9650
 1.6740	25.9650
 1.6750	25.9620
 1.6760	25.9590
 1.6770	25.9560
 1.6780	25.9490
 1.6790	25.9420
 1.6800	25.9310
 1.6810	25.9170
 1.6820	25.8990
 1.6830	25.8770
 1.6840	25.8540
 1.6850	25.8270
 1.6860	25.7980
 1.6870	25.7670
 1.6880	25.7310
 1.6890	25.6920
 1.6900	25.6520
 1.6910	25.6080
 1.6920	25.5640
 1.6930	25.5170
 1.6940	25.4710
 1.6950	25.4240
 1.6960	25.3790
 1.6970	25.3350
 1.6980	25.2910
 1.6990	25.2480
 1.7000	25.2030
 1.7010	25.1550
 1.7020	25.1090
 1.7030	25.0640
 1.7040	25.0180
 1.7050	24.9720
 1.7060	24.9250
 1.7070	24.8760
 1.7080	24.8290
 1.7090	24.7830
 1.7100	24.7360
 1.7110	24.6890
 1.7120	24.6410
 1.7130	24.5940
 1.7140	24.5480
 1.7150	24.5030
 1.7160	24.4580
 1.7170	24.4130
 1.7180	24.3680
 1.7190	24.3200
 1.7200	24.2730
 1.7210	24.2280
 1.7220	24.1820
 1.7230	24.1330
 1.7240	24.0850
 1.7250	24.0380
 1.7260	23.9940
 1.7270	23.9510
 1.7280	23.9080
 1.7290	23.8650
 1.7300	23.8210
 1.7310	23.7790
 1.7320	23.7410
 1.7330	23.7020
 1.7340	23.6660
 1.7350	23.6260
 1.7360	23.5870
 1.7370	23.5460
 1.7380	23.5030
 1.7390	23.4580
 1.7400	23.4140
 1.7410	23.3660
 1.7420	23.3150
 1.7430	23.2640
 1.7440	23.2120
 1.7450	23.1600
 1.7460	23.1060
 1.7470	23.0530
 1.7480	22.9980
 1.7490	22.9450
 1.7500	22.8920
 1.7510	22.8410
 1.7520	22.7920
 1.7530	22.7410
 1.7540	22.6900
 1.7550	22.6390
 1.7560	22.5880
 1.7570	22.5410
 1.7580	22.4950
 1.7590	22.4480
 1.7600	22.4040
 1.7610	22.3600
 1.7620	22.3180
 1.7630	22.2780
 1.7640	22.2380
 1.7650	22.1990
 1.7660	22.1610
 1.7670	22.1250
 1.7680	22.0890
 1.7690	22.0530
 1.7700	22.0200
 1.7710	21.9870
 1.7720	21.9570
 1.7730	21.9300
 1.7740	21.9020
 1.7750	21.8740
 1.7760	21.8500
 1.7770	21.8260
 1.7780	21.8050
 1.7790	21.7850
 1.7800	21.7680
 1.7810	21.7520
 1.7820	21.7400
 1.7830	21.7330
 1.7840	21.7250
 1.7850	21.7180
 1.7860	21.7130
 1.7870	21.7090
 1.7880	21.7080
 1.7890	21.7090
 1.7900	21.7100
 1.7910	21.7120
 1.7920	21.7180
 1.7930	21.7230
 1.7940	21.7280
 1.7950	21.7350
 1.7960	21.7460
 1.7970	21.7550
 1.7980	21.7660
 1.7990	21.7760
 1.8000	21.7840
 1.8010	21.7930
 1.8020	21.8050
 1.8030	21.8150
 1.8040	21.8260
 1.8050	21.8360
 1.8060	21.8450
 1.8070	21.8540
 1.8080	21.8620
 1.8090	21.8710
 1.8100	21.8810
 1.8110	21.8890
 1.8120	21.8990
 1.8130	21.9070
 1.8140	21.9140
 1.8150	21.9230
 1.8160	21.9310
 1.8170	21.9380
 1.8180	21.9430
 1.8190	21.9490
 1.8200	21.9540
 1.8210	21.9590
 1.8220	21.9630
 1.8230	21.9650
 1.8240	21.9650
 1.8250	21.9630
 1.8260	21.9610
 1.8270	21.9580
 1.8280	21.9560
 1.8290	21.9550
 1.8300	21.9170
 1.8310	21.8490
 1.8320	21.8030
 1.8330	21.7860
 1.8340	21.7690
 1.8350	21.7490
 1.8360	21.7190
 1.8370	21.6870
 1.8380	21.6550
 1.8390	21.6180
 1.8400	21.5790
 1.8410	21.5340
 1.8420	21.4850
 1.8430	21.4320
 1.8440	21.3720
 1.8450	21.3060
 1.8460	21.2380
 1.8470	21.1590
 1.8480	21.0690
 1.8490	20.9720
 1.8500	20.8670
 1.8510	20.7510
 1.8520	20.6300
 1.8530	20.5010
 1.8540	20.3620
 1.8550	20.2150
 1.8560	20.0550
 1.8570	19.8850
 1.8580	19.7050
 1.8590	19.5140
 1.8600	19.3120
 1.8610	19.0980
 1.8620	18.8720
 1.8630	18.6350
 1.8640	18.3860
 1.8650	18.1210
 1.8660	17.8500
 1.8670	17.5630
 1.8680	17.2630
 1.8690	16.9530
 1.8700	16.6300
 1.8710	16.2930
 1.8720	15.9510
 1.8730	15.6000
 1.8740	15.2410
 1.8750	14.8780
 1.8760	14.5100
 1.8770	14.1420
 1.8780	13.7750
 1.8790	13.4070
 1.8800	13.0450
 1.8810	12.6870
 1.8820	12.3300
 1.8830	11.9770
 1.8840	11.6300
 1.8850	11.2850
 1.8860	10.9480
 1.8870	10.6210
 1.8880	10.3040
 1.8890	10.0040
 1.8900	 9.7160
 1.8910	 9.4410
 1.8920	 9.1800
 1.8930	 8.9340
 1.8940	 8.6980
 1.8950	 8.4810
 1.8960	 8.2770
 1.8970	 8.0820
 1.8980	 7.9080
 1.8990	 7.7490
 1.9000	 7.5960
 1.9010	 7.4590
 1.9020	 7.3320
 1.9030	 7.2150
 1.9040	 7.1100
 1.9050	 7.0150
 1.9060	 6.9310
 1.9070	 6.8590
 1.9080	 6.7920
 1.9090	 6.7290
 1.9100	 6.6740
 1.9110	 6.6230
 1.9120	 6.5800
 1.9130	 6.5370
 1.9140	 6.5030
 1.9150	 6.4690
 1.9160	 6.4410
 1.9170	 6.4180
 1.9180	 6.3960
 1.9190	 6.3770
 1.9200	 6.3610
 1.9210	 6.3460
 1.9220	 6.3330
 1.9230	 6.3260
 1.9240	 6.3190
 1.9250	 6.3130
 1.9260	 6.3090
 1.9270	 6.3060
 1.9280	 6.3030
 1.9290	 6.3020
 1.9300	 6.3100
 1.9310	 6.3160
 1.9320	 6.3220
 1.9330	 6.3310
 1.9340	 6.3460
 1.9350	 6.3550
 1.9360	 6.3620
 1.9370	 6.3760
 1.9380	 6.3850
 1.9390	 6.3970
 1.9400	 6.4120
 1.9410	 6.4350
 1.9420	 6.4540
 1.9430	 6.4740
 1.9440	 6.4930
 1.9450	 6.5140
 1.9460	 6.5320
 1.9470	 6.5520
 1.9480	 6.5740
 1.9490	 6.5960
 1.9500	 6.6190
 1.9510	 6.6410
 1.9520	 6.6630
 1.9530	 6.6890
 1.9540	 6.7140
 1.9550	 6.7410
 1.9560	 6.7710
 1.9570	 6.7990
 1.9580	 6.8250
 1.9590	 6.8550
 1.9600	 6.8820
 1.9610	 6.9130
 1.9620	 6.9450
 1.9630	 6.9800
 1.9640	 7.0120
 1.9650	 7.0430
 1.9660	 7.0740
 1.9670	 7.1070
 1.9680	 7.1400
 1.9690	 7.1770
 1.9700	 7.2130
 1.9710	 7.2500
 1.9720	 7.2870
 1.9730	 7.3240
 1.9740	 7.3610
 1.9750	 7.3970
 1.9760	 7.4350
 1.9770	 7.4740
 1.9780	 7.5110
 1.9790	 7.5480
 1.9800	 7.5890
 1.9810	 7.6280
 1.9820	 7.6720
 1.9830	 7.7120
 1.9840	 7.7530
 1.9850	 7.7920
 1.9860	 7.8300
 1.9870	 7.8710
 1.9880	 7.9150
 1.9890	 7.9580
 1.9900	 8.0030
 1.9910	 8.0490
 1.9920	 8.0920
 1.9930	 8.1370
 1.9940	 8.1810
 1.9950	 8.2250
 1.9960	 8.2680
 1.9970	 8.3110
 1.9980	 8.3550
 1.9990	 8.4000
 2.0000	 8.4450
 2.0010	 8.4890
 2.0020	 8.5310
 2.0030	 8.5770
 2.0040	 8.6210
 2.0050	 8.6640
 2.0060	 8.7060
 2.0070	 8.7500
 2.0080	 8.7930
 2.0090	 8.8350
 2.0100	 8.8800
 2.0110	 8.9210
 2.0120	 8.9580
 2.0130	 8.9960
 2.0140	 9.0340
 2.0150	 9.0760
 2.0160	 9.1190
 2.0170	 9.1610
 2.0180	 9.2030
 2.0190	 9.2410
 2.0200	 9.2800
 2.0210	 9.3140
 2.0220	 9.3520
 2.0230	 9.3920
 2.0240	 9.4300
 2.0250	 9.4640
 2.0260	 9.4970
 2.0270	 9.5300
 2.0280	 9.5600
 2.0290	 9.5940
 2.0300	 9.6270
 2.0310	 9.6580
 2.0320	 9.6940
 2.0330	 9.7210
 2.0340	 9.7450
 2.0350	 9.7700
 2.0360	 9.7940
 2.0370	 9.8200
 2.0380	 9.8480
 2.0390	 9.8740
 2.0400	 9.9010
 2.0410	 9.9260
 2.0420	 9.9520
 2.0430	 9.9740
 2.0440	 9.9960
 2.0450	10.0180
 2.0460	10.0380
 2.0470	10.0570
 2.0480	10.0760
 2.0490	10.0940
 2.0500	10.1120
 2.0510	10.1300
 2.0520	10.1500
 2.0530	10.1700
 2.0540	10.1900
 2.0550	10.2100
 2.0560	10.2290
 2.0570	10.2470
 2.0580	10.2610
 2.0590	10.2790
 2.0600	10.2950
 2.0610	10.3120
 2.0620	10.3330
 2.0630	10.3510
 2.0640	10.3710
 2.0650	10.3890
 2.0660	10.4040
 2.0670	10.4180
 2.0680	10.4310
 2.0690	10.4440
 2.0700	10.4590
 2.0710	10.4730
 2.0720	10.4880
 2.0730	10.5050
 2.0740	10.5200
 2.0750	10.5360
 2.0760	10.5520
 2.0770	10.5650
 2.0780	10.5820
 2.0790	10.5970
 2.0800	10.6160
 2.0810	10.6400
 2.0820	10.6580
 2.0830	10.6770
 2.0840	10.6950
 2.0850	10.7050
 2.0860	10.7190
 2.0870	10.7310
 2.0880	10.7460
 2.0890	10.7630
 2.0900	10.7820
 2.0910	10.8000
 2.0920	10.8190
 2.0930	10.8380
 2.0940	10.8590
 2.0950	10.8750
 2.0960	10.8920
 2.0970	10.9070
 2.0980	10.9170
 2.0990	10.9320
 2.1000	10.9480
 2.1010	10.9650
 2.1020	10.9880
 2.1030	11.0060
 2.1040	11.0240
 2.1050	11.0410
 2.1060	11.0600
 2.1070	11.0760
 2.1080	11.0950
 2.1090	11.1110
 2.1100	11.1320
 2.1110	11.1530
 2.1120	11.1760
 2.1130	11.2000
 2.1140	11.2220
 2.1150	11.2440
 2.1160	11.2650
 2.1170	11.2880
 2.1180	11.3080
 2.1190	11.3240
 2.1200	11.3420
 2.1210	11.3610
 2.1220	11.3780
 2.1230	11.3960
 2.1240	11.4160
 2.1250	11.4340
 2.1260	11.4500
 2.1270	11.4700
 2.1280	11.4940
 2.1290	11.5160
 2.1300	11.5410
 2.1310	11.5630
 2.1320	11.5810
 2.1330	11.6010
 2.1340	11.6210
 2.1350	11.6410
 2.1360	11.6620
 2.1370	11.6810
 2.1380	11.6980
 2.1390	11.7170
 2.1400	11.7370
 2.1410	11.7570
 2.1420	11.7780
 2.1430	11.8000
 2.1440	11.8220
 2.1450	11.8450
 2.1460	11.8670
 2.1470	11.8900
 2.1480	11.9150
 2.1490	11.9420
 2.1500	11.9670
 2.1510	11.9950
 2.1520	12.0200
 2.1530	12.0400
 2.1540	12.0620
 2.1550	12.0840
 2.1560	12.1070
 2.1570	12.1300
 2.1580	12.1530
 2.1590	12.1760
 2.1600	12.1990
 2.1610	12.2220
 2.1620	12.2420
 2.1630	12.2630
 2.1640	12.2810
 2.1650	12.3040
 2.1660	12.3300
 2.1670	12.3540
 2.1680	12.3830
 2.1690	12.4070
 2.1700	12.4270
 2.1710	12.4490
 2.1720	12.4710
 2.1730	12.4910
 2.1740	12.5120
 2.1750	12.5320
 2.1760	12.5510
 2.1770	12.5720
 2.1780	12.5950
 2.1790	12.6180
 2.1800	12.6410
 2.1810	12.6650
 2.1820	12.6870
 2.1830	12.7110
 2.1840	12.7320
 2.1850	12.7520
 2.1860	12.7710
 2.1870	12.7870
 2.1880	12.8060
 2.1890	12.8260
 2.1900	12.8450
 2.1910	12.8650
 2.1920	12.8850
 2.1930	12.9030
 2.1940	12.9230
 2.1950	12.9450
 2.1960	12.9650
 2.1970	12.9860
 2.1980	13.0050
 2.1990	13.0210
 2.2000	13.0380
 2.2010	13.0530
 2.2020	13.0710
 2.2030	13.0930
 2.2040	13.1100
 2.2050	13.1270
 2.2060	13.1430
 2.2070	13.1570
 2.2080	13.1680
 2.2090	13.1810
 2.2100	13.1940
 2.2110	13.2080
 2.2120	13.2240
 2.2130	13.2340
 2.2140	13.2410
 2.2150	13.2490
 2.2160	13.2520
 2.2170	13.2560
 2.2180	13.2620
 2.2190	13.2650
 2.2200	13.2650
 2.2210	13.2640
 2.2220	13.2630
 2.2230	13.2590
 2.2240	13.2560
 2.2250	13.2480
 2.2260	13.2330
 2.2270	13.2220
 2.2280	13.2120
 2.2290	13.1970
 2.2300	13.1820
 2.2310	13.1680
 2.2320	13.1450
 2.2330	13.1170
 2.2340	13.0920
 2.2350	13.0670
 2.2360	13.0380
 2.2370	13.0070
 2.2380	12.9740
 2.2390	12.9360
 2.2400	12.9010
 2.2410	12.8670
 2.2420	12.8270
 2.2430	12.7850
 2.2440	12.7400
 2.2450	12.6870
 2.2460	12.6390
 2.2470	12.5930
 2.2480	12.5430
 2.2490	12.4920
 2.2500	12.4400
 2.2510	12.3850
 2.2520	12.3290
 2.2530	12.2720
 2.2540	12.2150
 2.2550	12.1570
 2.2560	12.0990
 2.2570	12.0400
 2.2580	11.9830
 2.2590	11.9280
 2.2600	11.8730
 2.2610	11.8200
 2.2620	11.7670
 2.2630	11.7130
 2.2640	11.6580
 2.2650	11.6060
 2.2660	11.5580
 2.2670	11.5120
 2.2680	11.4710
 2.2690	11.4260
 2.2700	11.3820
 2.2710	11.3400
 2.2720	11.2990
 2.2730	11.2630
 2.2740	11.2300
 2.2750	11.2000
 2.2760	11.1760
 2.2770	11.1470
 2.2780	11.1190
 2.2790	11.0910
 2.2800	11.0630
 2.2810	11.0390
 2.2820	11.0230
 2.2830	11.0030
 2.2840	10.9850
 2.2850	10.9660
 2.2860	10.9460
 2.2870	10.9250
 2.2880	10.9030
 2.2890	10.8790
 2.2900	10.8510
 2.2910	10.8270
 2.2920	10.8050
 2.2930	10.7810
 2.2940	10.7570
 2.2950	10.7300
 2.2960	10.6930
 2.2970	10.6600
 2.2980	10.6250
 2.2990	10.5940
 2.3000	10.5590
 2.3010	10.5250
 2.3020	10.4850
 2.3030	10.4500
 2.3040	10.4160
 2.3050	10.3790
 2.3060	10.3460
 2.3070	10.3170
 2.3080	10.2930
 2.3090	10.2770
 2.3100	10.2560
 2.3110	10.2330
 2.3120	10.2110
 2.3130	10.1810
 2.3140	10.1650
 2.3150	10.1560
 2.3160	10.1490
 2.3170	10.1490
 2.3180	10.1420
 2.3190	10.1330
 2.3200	10.1230
 2.3210	10.1110
 2.3220	10.1000
 2.3230	10.0940
 2.3240	10.0780
 2.3250	10.0570
 2.3260	10.0370
 2.3270	10.0090
 2.3280	 9.9870
 2.3290	 9.9680
 2.3300	 9.9460
 2.3310	 9.9220
 2.3320	 9.9020
 2.3330	 9.8820
 2.3340	 9.8630
 2.3350	 9.8480
 2.3360	 9.8300
 2.3370	 9.8040
 2.3380	 9.7850
 2.3390	 9.7710
 2.3400	 9.7520
 2.3410	 9.7330
 2.3420	 9.7100
 2.3430	 9.6800
 2.3440	 9.6510
 2.3450	 9.6180
 2.3460	 9.5920
 2.3470	 9.5700
 2.3480	 9.5490
 2.3490	 9.5330
 2.3500	 9.5160
 2.3510	 9.5060
 2.3520	 9.4890
 2.3530	 9.4710
 2.3540	 9.4540
 2.3550	 9.4340
 2.3560	 9.4100
 2.3570	 9.3910
 2.3580	 9.3760
 2.3590	 9.3660
 2.3600	 9.3560
 2.3610	 9.3430
 2.3620	 9.3260
 2.3630	 9.3020
 2.3640	 9.2760
 2.3650	 9.2580
 2.3660	 9.2460
 2.3670	 9.2250
 2.3680	 9.2080
 2.3690	 9.1820
 2.3700	 9.1540
 2.3710	 9.1320
 2.3720	 9.1090
 2.3730	 9.0980
 2.3740	 9.0780
 2.3750	 9.0600
 2.3760	 9.0410
 2.3770	 9.0080
 2.3780	 8.9890
 2.3790	 8.9620
 2.3800	 8.9290
 2.3810	 8.9170
 2.3820	 8.9010
 2.3830	 8.8840
 2.3840	 8.8670
 2.3850	 8.8410
 2.3860	 8.8080
 2.3870	 8.7810
 2.3880	 8.7630
 2.3890	 8.7430
 2.3900	 8.7230
 2.3910	 8.7130
 2.3920	 8.6930
 2.3930	 8.6700
 2.3940	 8.6560
 2.3950	 8.6280
 2.3960	 8.5940
 2.3970	 8.5750
 2.3980	 8.5540
 2.3990	 8.5210
 2.4000	 8.5070
 2.4010	 8.4870
 2.4020	 8.4560
 2.4030	 8.4290
 2.4040	 8.4020
 2.4050	 8.3690
 2.4060	 8.3410
 2.4070	 8.3290
 2.4080	 8.3120
 2.4090	 8.2890
 2.4100	 8.2710
 2.4110	 8.2340
 2.4120	 8.1990
 2.4130	 8.1710
 2.4140	 8.1310
 2.4150	 8.1020
 2.4160	 8.0710
 2.4170	 8.0410
 2.4180	 8.0250
 2.4190	 7.9950
 2.4200	 7.9760
 2.4210	 7.9610
 2.4220	 7.9260
 2.4230	 7.8940
 2.4240	 7.8580
 2.4250	 7.8050
 2.4260	 7.7730
 2.4270	 7.7500
 2.4280	 7.7150
 2.4290	 7.6890
 2.4300	 7.6680
 2.4310	 7.6370
 2.4320	 7.6080
 2.4330	 7.5850
 2.4340	 7.5560
 2.4350	 7.5240
 2.4360	 7.5060
 2.4370	 7.4880
 2.4380	 7.4660
 2.4390	 7.4490
 2.4400	 7.4170
 2.4410	 7.3770
 2.4420	 7.3470
 2.4430	 7.3110
 2.4440	 7.2860
 2.4450	 7.2710
 2.4460	 7.2440
 2.4470	 7.2060
 2.4480	 7.1800
 2.4490	 7.1470
 2.4500	 7.1200
 2.4510	 7.0990
 2.4520	 7.0830
 2.4530	 7.0650
 2.4540	 7.0410
 2.4550	 7.0180
 2.4560	 7.0050
 2.4570	 6.9750
 2.4580	 6.9440
 2.4590	 6.9270
 2.4600	 6.8990
 2.4610	 6.8930
 2.4620	 6.8880
 2.4630	 6.8650
 2.4640	 6.8450
 2.4650	 6.8100
 2.4660	 6.7700
 2.4670	 6.7360
 2.4680	 6.7100
 2.4690	 6.6930
 2.4700	 6.6760
 2.4710	 6.6460
 2.4720	 6.6260
 2.4730	 6.6130
 2.4740	 6.6030
 2.4750	 6.6300
 2.4760	 6.6200
 2.4770	 6.5730
 2.4780	 6.5570
 2.4790	 6.5550
 2.4800	 6.5260
 2.4810	 6.4960
 2.4820	 6.4830
 2.4830	 6.4200
 2.4840	 6.4130
 2.4850	 6.4530
 2.4860	 6.4520
 2.4870	 6.4500
 2.4880	 6.4220
 2.4890	 6.3960
 2.4900	 6.3760
 2.4910	 6.3530
 2.4920	 6.3860
 2.4930	 6.3960
 2.4940	 6.4080
 2.4950	 6.4290
 2.4960	 6.3810
 2.4970	 6.3500
 2.4980	 6.3600
 2.4990	 6.3640
 2.5000	 6.3920
