Name: Quercus robur
Type: vegetation
Class: Tree
Genus: Quercus
Species: robur
Sample No.: JPL178
Owner: JPL
Wavelength Range: VSWIR
Origin: 34.12873; -118.11324; WGS84
Collection Date: 10/3/2016
Description: Samples were collected at the Huntington Garden in San Marino California as part of a JPL Subcontract studying HyTES imagery. Samples were taken to JPL and processed within 48 hours of collection. The same leaves were processed in the Nicolet and then measured using the ASD.
Measurement: Bidirectional reflectance
First Column: X
Second Column: Y
X Units: Wavelength (micrometer)
Y Units: Reflectance (percentage)
First X Value: 0.35
Last X Value: 2.5
Number of X Values: 2151
Additional Information: vegetation.tree.quercus.robur.vswir.jpl178.jpl.asd.ancillary.txt

 0.3500	 4.6280
 0.3510	 4.5670
 0.3520	 4.6200
 0.3530	 4.6560
 0.3540	 4.5790
 0.3550	 4.5110
 0.3560	 4.5100
 0.3570	 4.5250
 0.3580	 4.4720
 0.3590	 4.4200
 0.3600	 4.4130
 0.3610	 4.4160
 0.3620	 4.2870
 0.3630	 4.3060
 0.3640	 4.3880
 0.3650	 4.3970
 0.3660	 4.4000
 0.3670	 4.3900
 0.3680	 4.3510
 0.3690	 4.2710
 0.3700	 4.2970
 0.3710	 4.3510
 0.3720	 4.3570
 0.3730	 4.3030
 0.3740	 4.2810
 0.3750	 4.2930
 0.3760	 4.3100
 0.3770	 4.3320
 0.3780	 4.3260
 0.3790	 4.3030
 0.3800	 4.3130
 0.3810	 4.3040
 0.3820	 4.3020
 0.3830	 4.3210
 0.3840	 4.3190
 0.3850	 4.3680
 0.3860	 4.4090
 0.3870	 4.3620
 0.3880	 4.3360
 0.3890	 4.3330
 0.3900	 4.3380
 0.3910	 4.3290
 0.3920	 4.3780
 0.3930	 4.4180
 0.3940	 4.3980
 0.3950	 4.3730
 0.3960	 4.3850
 0.3970	 4.4010
 0.3980	 4.3690
 0.3990	 4.4110
 0.4000	 4.4480
 0.4010	 4.4480
 0.4020	 4.4620
 0.4030	 4.4690
 0.4040	 4.4760
 0.4050	 4.4920
 0.4060	 4.5150
 0.4070	 4.5350
 0.4080	 4.5540
 0.4090	 4.5840
 0.4100	 4.6020
 0.4110	 4.6110
 0.4120	 4.6170
 0.4130	 4.6240
 0.4140	 4.6270
 0.4150	 4.6360
 0.4160	 4.6590
 0.4170	 4.6920
 0.4180	 4.7100
 0.4190	 4.7100
 0.4200	 4.7050
 0.4210	 4.7280
 0.4220	 4.7510
 0.4230	 4.7520
 0.4240	 4.7450
 0.4250	 4.7560
 0.4260	 4.7730
 0.4270	 4.7740
 0.4280	 4.7900
 0.4290	 4.8030
 0.4300	 4.8040
 0.4310	 4.7980
 0.4320	 4.8110
 0.4330	 4.8270
 0.4340	 4.8270
 0.4350	 4.8230
 0.4360	 4.8230
 0.4370	 4.8310
 0.4380	 4.8460
 0.4390	 4.8480
 0.4400	 4.8450
 0.4410	 4.8470
 0.4420	 4.8570
 0.4430	 4.8600
 0.4440	 4.8630
 0.4450	 4.8770
 0.4460	 4.8790
 0.4470	 4.8840
 0.4480	 4.8950
 0.4490	 4.8990
 0.4500	 4.9010
 0.4510	 4.9040
 0.4520	 4.9100
 0.4530	 4.9170
 0.4540	 4.9190
 0.4550	 4.9180
 0.4560	 4.9220
 0.4570	 4.9240
 0.4580	 4.9230
 0.4590	 4.9210
 0.4600	 4.9280
 0.4610	 4.9310
 0.4620	 4.9290
 0.4630	 4.9310
 0.4640	 4.9400
 0.4650	 4.9400
 0.4660	 4.9320
 0.4670	 4.9330
 0.4680	 4.9390
 0.4690	 4.9410
 0.4700	 4.9360
 0.4710	 4.9360
 0.4720	 4.9340
 0.4730	 4.9320
 0.4740	 4.9340
 0.4750	 4.9380
 0.4760	 4.9400
 0.4770	 4.9400
 0.4780	 4.9410
 0.4790	 4.9420
 0.4800	 4.9420
 0.4810	 4.9420
 0.4820	 4.9420
 0.4830	 4.9430
 0.4840	 4.9460
 0.4850	 4.9560
 0.4860	 4.9590
 0.4870	 4.9590
 0.4880	 4.9640
 0.4890	 4.9740
 0.4900	 4.9830
 0.4910	 4.9900
 0.4920	 4.9980
 0.4930	 5.0040
 0.4940	 5.0120
 0.4950	 5.0250
 0.4960	 5.0430
 0.4970	 5.0630
 0.4980	 5.0830
 0.4990	 5.0990
 0.5000	 5.1190
 0.5010	 5.1460
 0.5020	 5.1810
 0.5030	 5.2190
 0.5040	 5.2610
 0.5050	 5.3030
 0.5060	 5.3480
 0.5070	 5.4080
 0.5080	 5.4780
 0.5090	 5.5540
 0.5100	 5.6320
 0.5110	 5.7180
 0.5120	 5.8180
 0.5130	 5.9300
 0.5140	 6.0530
 0.5150	 6.1890
 0.5160	 6.3340
 0.5170	 6.4890
 0.5180	 6.6550
 0.5190	 6.8310
 0.5200	 7.0150
 0.5210	 7.2050
 0.5220	 7.3960
 0.5230	 7.5890
 0.5240	 7.7810
 0.5250	 7.9750
 0.5260	 8.1580
 0.5270	 8.3320
 0.5280	 8.5000
 0.5290	 8.6570
 0.5300	 8.8040
 0.5310	 8.9410
 0.5320	 9.0670
 0.5330	 9.1790
 0.5340	 9.2800
 0.5350	 9.3740
 0.5360	 9.4550
 0.5370	 9.5290
 0.5380	 9.5980
 0.5390	 9.6610
 0.5400	 9.7220
 0.5410	 9.7800
 0.5420	 9.8340
 0.5430	 9.8860
 0.5440	 9.9320
 0.5450	 9.9700
 0.5460	10.0030
 0.5470	10.0280
 0.5480	10.0500
 0.5490	10.0720
 0.5500	10.0930
 0.5510	10.1080
 0.5520	10.1150
 0.5530	10.1090
 0.5540	10.0920
 0.5550	10.0600
 0.5560	10.0130
 0.5570	 9.9510
 0.5580	 9.8810
 0.5590	 9.8000
 0.5600	 9.7090
 0.5610	 9.6150
 0.5620	 9.5130
 0.5630	 9.4050
 0.5640	 9.2970
 0.5650	 9.1810
 0.5660	 9.0620
 0.5670	 8.9430
 0.5680	 8.8220
 0.5690	 8.6980
 0.5700	 8.5710
 0.5710	 8.4430
 0.5720	 8.3210
 0.5730	 8.2030
 0.5740	 8.0910
 0.5750	 7.9870
 0.5760	 7.8860
 0.5770	 7.7910
 0.5780	 7.7050
 0.5790	 7.6280
 0.5800	 7.5580
 0.5810	 7.4910
 0.5820	 7.4250
 0.5830	 7.3690
 0.5840	 7.3140
 0.5850	 7.2590
 0.5860	 7.2080
 0.5870	 7.1620
 0.5880	 7.1180
 0.5890	 7.0770
 0.5900	 7.0440
 0.5910	 7.0130
 0.5920	 6.9840
 0.5930	 6.9570
 0.5940	 6.9330
 0.5950	 6.9110
 0.5960	 6.8930
 0.5970	 6.8760
 0.5980	 6.8570
 0.5990	 6.8370
 0.6000	 6.8140
 0.6010	 6.7890
 0.6020	 6.7600
 0.6030	 6.7270
 0.6040	 6.6930
 0.6050	 6.6530
 0.6060	 6.6100
 0.6070	 6.5670
 0.6080	 6.5180
 0.6090	 6.4690
 0.6100	 6.4200
 0.6110	 6.3690
 0.6120	 6.3190
 0.6130	 6.2640
 0.6140	 6.2090
 0.6150	 6.1600
 0.6160	 6.1110
 0.6170	 6.0670
 0.6180	 6.0290
 0.6190	 5.9950
 0.6200	 5.9650
 0.6210	 5.9370
 0.6220	 5.9140
 0.6230	 5.8910
 0.6240	 5.8720
 0.6250	 5.8590
 0.6260	 5.8460
 0.6270	 5.8360
 0.6280	 5.8280
 0.6290	 5.8200
 0.6300	 5.8150
 0.6310	 5.8110
 0.6320	 5.8050
 0.6330	 5.7960
 0.6340	 5.7830
 0.6350	 5.7650
 0.6360	 5.7400
 0.6370	 5.7090
 0.6380	 5.6770
 0.6390	 5.6420
 0.6400	 5.6010
 0.6410	 5.5590
 0.6420	 5.5170
 0.6430	 5.4770
 0.6440	 5.4350
 0.6450	 5.3930
 0.6460	 5.3540
 0.6470	 5.3210
 0.6480	 5.2920
 0.6490	 5.2670
 0.6500	 5.2460
 0.6510	 5.2270
 0.6520	 5.2100
 0.6530	 5.1960
 0.6540	 5.1840
 0.6550	 5.1710
 0.6560	 5.1580
 0.6570	 5.1430
 0.6580	 5.1230
 0.6590	 5.1070
 0.6600	 5.0900
 0.6610	 5.0720
 0.6620	 5.0580
 0.6630	 5.0450
 0.6640	 5.0360
 0.6650	 5.0290
 0.6660	 5.0270
 0.6670	 5.0290
 0.6680	 5.0330
 0.6690	 5.0400
 0.6700	 5.0520
 0.6710	 5.0690
 0.6720	 5.0890
 0.6730	 5.1110
 0.6740	 5.1360
 0.6750	 5.1650
 0.6760	 5.1970
 0.6770	 5.2320
 0.6780	 5.2720
 0.6790	 5.3150
 0.6800	 5.3590
 0.6810	 5.4100
 0.6820	 5.4630
 0.6830	 5.5160
 0.6840	 5.5700
 0.6850	 5.6260
 0.6860	 5.6870
 0.6870	 5.7540
 0.6880	 5.8320
 0.6890	 5.9290
 0.6900	 6.0550
 0.6910	 6.2200
 0.6920	 6.4320
 0.6930	 6.7000
 0.6940	 7.0310
 0.6950	 7.4310
 0.6960	 7.9040
 0.6970	 8.4450
 0.6980	 9.0480
 0.6990	 9.7100
 0.7000	10.4250
 0.7010	11.1850
 0.7020	11.9790
 0.7030	12.7990
 0.7040	13.6390
 0.7050	14.4910
 0.7060	15.3500
 0.7070	16.2170
 0.7080	17.0870
 0.7090	17.9610
 0.7100	18.8360
 0.7110	19.7140
 0.7120	20.5930
 0.7130	21.4700
 0.7140	22.3460
 0.7150	23.2210
 0.7160	24.0930
 0.7170	24.9590
 0.7180	25.8180
 0.7190	26.6690
 0.7200	27.5090
 0.7210	28.3330
 0.7220	29.1440
 0.7230	29.9370
 0.7240	30.7090
 0.7250	31.4600
 0.7260	32.1870
 0.7270	32.8880
 0.7280	33.5630
 0.7290	34.2110
 0.7300	34.8320
 0.7310	35.4240
 0.7320	35.9890
 0.7330	36.5250
 0.7340	37.0310
 0.7350	37.5100
 0.7360	37.9630
 0.7370	38.3880
 0.7380	38.7860
 0.7390	39.1600
 0.7400	39.5080
 0.7410	39.8300
 0.7420	40.1290
 0.7430	40.4050
 0.7440	40.6580
 0.7450	40.8900
 0.7460	41.1020
 0.7470	41.2930
 0.7480	41.4680
 0.7490	41.6270
 0.7500	41.7700
 0.7510	41.9020
 0.7520	42.0200
 0.7530	42.1230
 0.7540	42.2150
 0.7550	42.2990
 0.7560	42.3760
 0.7570	42.4420
 0.7580	42.5010
 0.7590	42.5570
 0.7600	42.6080
 0.7610	42.6510
 0.7620	42.6890
 0.7630	42.7230
 0.7640	42.7560
 0.7650	42.7810
 0.7660	42.8010
 0.7670	42.8180
 0.7680	42.8370
 0.7690	42.8530
 0.7700	42.8630
 0.7710	42.8700
 0.7720	42.8820
 0.7730	42.8920
 0.7740	42.9010
 0.7750	42.9090
 0.7760	42.9160
 0.7770	42.9220
 0.7780	42.9280
 0.7790	42.9350
 0.7800	42.9380
 0.7810	42.9450
 0.7820	42.9530
 0.7830	42.9590
 0.7840	42.9630
 0.7850	42.9670
 0.7860	42.9690
 0.7870	42.9690
 0.7880	42.9710
 0.7890	42.9750
 0.7900	42.9760
 0.7910	42.9760
 0.7920	42.9760
 0.7930	42.9780
 0.7940	42.9790
 0.7950	42.9780
 0.7960	42.9750
 0.7970	42.9690
 0.7980	42.9650
 0.7990	42.9620
 0.8000	42.9560
 0.8010	42.9490
 0.8020	42.9430
 0.8030	42.9380
 0.8040	42.9320
 0.8050	42.9250
 0.8060	42.9150
 0.8070	42.9060
 0.8080	42.8990
 0.8090	42.8890
 0.8100	42.8790
 0.8110	42.8670
 0.8120	42.8550
 0.8130	42.8440
 0.8140	42.8320
 0.8150	42.8190
 0.8160	42.8070
 0.8170	42.7970
 0.8180	42.7860
 0.8190	42.7740
 0.8200	42.7630
 0.8210	42.7480
 0.8220	42.7330
 0.8230	42.7190
 0.8240	42.7060
 0.8250	42.6940
 0.8260	42.6820
 0.8270	42.6700
 0.8280	42.6570
 0.8290	42.6450
 0.8300	42.6320
 0.8310	42.6170
 0.8320	42.6060
 0.8330	42.5930
 0.8340	42.5790
 0.8350	42.5680
 0.8360	42.5610
 0.8370	42.5520
 0.8380	42.5410
 0.8390	42.5340
 0.8400	42.5250
 0.8410	42.5180
 0.8420	42.5140
 0.8430	42.5080
 0.8440	42.5020
 0.8450	42.4970
 0.8460	42.4920
 0.8470	42.4850
 0.8480	42.4780
 0.8490	42.4730
 0.8500	42.4700
 0.8510	42.4670
 0.8520	42.4650
 0.8530	42.4610
 0.8540	42.4580
 0.8550	42.4570
 0.8560	42.4570
 0.8570	42.4560
 0.8580	42.4530
 0.8590	42.4530
 0.8600	42.4560
 0.8610	42.4610
 0.8620	42.4610
 0.8630	42.4610
 0.8640	42.4640
 0.8650	42.4700
 0.8660	42.4680
 0.8670	42.4710
 0.8680	42.4760
 0.8690	42.4770
 0.8700	42.4810
 0.8710	42.4850
 0.8720	42.4890
 0.8730	42.4970
 0.8740	42.5030
 0.8750	42.5100
 0.8760	42.5180
 0.8770	42.5240
 0.8780	42.5310
 0.8790	42.5370
 0.8800	42.5420
 0.8810	42.5480
 0.8820	42.5520
 0.8830	42.5560
 0.8840	42.5630
 0.8850	42.5720
 0.8860	42.5790
 0.8870	42.5860
 0.8880	42.5940
 0.8890	42.5990
 0.8900	42.6020
 0.8910	42.6040
 0.8920	42.6110
 0.8930	42.6160
 0.8940	42.6220
 0.8950	42.6310
 0.8960	42.6430
 0.8970	42.6460
 0.8980	42.6490
 0.8990	42.6550
 0.9000	42.6630
 0.9010	42.6710
 0.9020	42.6740
 0.9030	42.6740
 0.9040	42.6830
 0.9050	42.6900
 0.9060	42.6950
 0.9070	42.6990
 0.9080	42.6980
 0.9090	42.7050
 0.9100	42.7120
 0.9110	42.7110
 0.9120	42.7130
 0.9130	42.7150
 0.9140	42.7190
 0.9150	42.7240
 0.9160	42.7190
 0.9170	42.7220
 0.9180	42.7260
 0.9190	42.7210
 0.9200	42.7180
 0.9210	42.7200
 0.9220	42.7210
 0.9230	42.7170
 0.9240	42.7120
 0.9250	42.7020
 0.9260	42.6920
 0.9270	42.6950
 0.9280	42.6860
 0.9290	42.6750
 0.9300	42.6690
 0.9310	42.6600
 0.9320	42.6500
 0.9330	42.6410
 0.9340	42.6310
 0.9350	42.6140
 0.9360	42.6000
 0.9370	42.5870
 0.9380	42.5720
 0.9390	42.5540
 0.9400	42.5480
 0.9410	42.5400
 0.9420	42.5190
 0.9430	42.4960
 0.9440	42.4680
 0.9450	42.4470
 0.9460	42.4320
 0.9470	42.4000
 0.9480	42.3730
 0.9490	42.3500
 0.9500	42.3250
 0.9510	42.2880
 0.9520	42.2620
 0.9530	42.2330
 0.9540	42.1890
 0.9550	42.1620
 0.9560	42.1280
 0.9570	42.0890
 0.9580	42.0530
 0.9590	42.0220
 0.9600	41.9970
 0.9610	41.9730
 0.9620	41.9440
 0.9630	41.9220
 0.9640	41.9010
 0.9650	41.8780
 0.9660	41.8570
 0.9670	41.8510
 0.9680	41.8310
 0.9690	41.8040
 0.9700	41.7880
 0.9710	41.7770
 0.9720	41.7700
 0.9730	41.7610
 0.9740	41.7450
 0.9750	41.7410
 0.9760	41.7400
 0.9770	41.7360
 0.9780	41.7260
 0.9790	41.7100
 0.9800	41.7040
 0.9810	41.7050
 0.9820	41.7020
 0.9830	41.6900
 0.9840	41.6850
 0.9850	41.6880
 0.9860	41.6930
 0.9870	41.6940
 0.9880	41.6900
 0.9890	41.6840
 0.9900	41.6790
 0.9910	41.6720
 0.9920	41.6750
 0.9930	41.6830
 0.9940	41.6830
 0.9950	41.6870
 0.9960	41.6960
 0.9970	41.7020
 0.9980	41.6970
 0.9990	41.6940
 1.0000	41.7020
 1.0010	42.6030
 1.0020	42.6070
 1.0030	42.6100
 1.0040	42.6130
 1.0050	42.6160
 1.0060	42.6250
 1.0070	42.6350
 1.0080	42.6410
 1.0090	42.6470
 1.0100	42.6530
 1.0110	42.6520
 1.0120	42.6580
 1.0130	42.6720
 1.0140	42.6780
 1.0150	42.6810
 1.0160	42.6870
 1.0170	42.6880
 1.0180	42.6920
 1.0190	42.7020
 1.0200	42.7080
 1.0210	42.7160
 1.0220	42.7190
 1.0230	42.7250
 1.0240	42.7290
 1.0250	42.7350
 1.0260	42.7410
 1.0270	42.7480
 1.0280	42.7580
 1.0290	42.7660
 1.0300	42.7750
 1.0310	42.7840
 1.0320	42.7940
 1.0330	42.8020
 1.0340	42.8080
 1.0350	42.8150
 1.0360	42.8190
 1.0370	42.8240
 1.0380	42.8300
 1.0390	42.8340
 1.0400	42.8410
 1.0410	42.8520
 1.0420	42.8570
 1.0430	42.8630
 1.0440	42.8670
 1.0450	42.8660
 1.0460	42.8690
 1.0470	42.8740
 1.0480	42.8800
 1.0490	42.8890
 1.0500	42.8950
 1.0510	42.9040
 1.0520	42.9070
 1.0530	42.9110
 1.0540	42.9140
 1.0550	42.9160
 1.0560	42.9180
 1.0570	42.9200
 1.0580	42.9210
 1.0590	42.9230
 1.0600	42.9260
 1.0610	42.9280
 1.0620	42.9320
 1.0630	42.9330
 1.0640	42.9310
 1.0650	42.9290
 1.0660	42.9260
 1.0670	42.9230
 1.0680	42.9210
 1.0690	42.9190
 1.0700	42.9160
 1.0710	42.9120
 1.0720	42.9100
 1.0730	42.9070
 1.0740	42.9060
 1.0750	42.9080
 1.0760	42.9040
 1.0770	42.8980
 1.0780	42.8940
 1.0790	42.8860
 1.0800	42.8810
 1.0810	42.8810
 1.0820	42.8780
 1.0830	42.8770
 1.0840	42.8730
 1.0850	42.8660
 1.0860	42.8580
 1.0870	42.8530
 1.0880	42.8490
 1.0890	42.8430
 1.0900	42.8380
 1.0910	42.8320
 1.0920	42.8240
 1.0930	42.8180
 1.0940	42.8150
 1.0950	42.8100
 1.0960	42.8050
 1.0970	42.7990
 1.0980	42.7910
 1.0990	42.7850
 1.1000	42.7800
 1.1010	42.7740
 1.1020	42.7670
 1.1030	42.7600
 1.1040	42.7530
 1.1050	42.7440
 1.1060	42.7370
 1.1070	42.7320
 1.1080	42.7260
 1.1090	42.7200
 1.1100	42.7120
 1.1110	42.7030
 1.1120	42.6950
 1.1130	42.6880
 1.1140	42.6800
 1.1150	42.6740
 1.1160	42.6640
 1.1170	42.6510
 1.1180	42.6380
 1.1190	42.6230
 1.1200	42.6060
 1.1210	42.5930
 1.1220	42.5770
 1.1230	42.5550
 1.1240	42.5340
 1.1250	42.5110
 1.1260	42.4870
 1.1270	42.4610
 1.1280	42.4370
 1.1290	42.4050
 1.1300	42.3680
 1.1310	42.3280
 1.1320	42.2850
 1.1330	42.2370
 1.1340	42.1850
 1.1350	42.1310
 1.1360	42.0730
 1.1370	42.0110
 1.1380	41.9480
 1.1390	41.8850
 1.1400	41.8140
 1.1410	41.7420
 1.1420	41.6690
 1.1430	41.5920
 1.1440	41.5160
 1.1450	41.4400
 1.1460	41.3650
 1.1470	41.2900
 1.1480	41.2160
 1.1490	41.1420
 1.1500	41.0740
 1.1510	41.0080
 1.1520	40.9460
 1.1530	40.8890
 1.1540	40.8340
 1.1550	40.7820
 1.1560	40.7340
 1.1570	40.6890
 1.1580	40.6490
 1.1590	40.6100
 1.1600	40.5770
 1.1610	40.5460
 1.1620	40.5190
 1.1630	40.4930
 1.1640	40.4690
 1.1650	40.4470
 1.1660	40.4270
 1.1670	40.4070
 1.1680	40.3890
 1.1690	40.3710
 1.1700	40.3530
 1.1710	40.3380
 1.1720	40.3260
 1.1730	40.3120
 1.1740	40.3000
 1.1750	40.2860
 1.1760	40.2700
 1.1770	40.2540
 1.1780	40.2370
 1.1790	40.2210
 1.1800	40.2050
 1.1810	40.1900
 1.1820	40.1740
 1.1830	40.1580
 1.1840	40.1430
 1.1850	40.1270
 1.1860	40.1110
 1.1870	40.0970
 1.1880	40.0830
 1.1890	40.0690
 1.1900	40.0570
 1.1910	40.0460
 1.1920	40.0360
 1.1930	40.0290
 1.1940	40.0200
 1.1950	40.0110
 1.1960	40.0040
 1.1970	39.9970
 1.1980	39.9900
 1.1990	39.9880
 1.2000	39.9880
 1.2010	39.9880
 1.2020	39.9880
 1.2030	39.9880
 1.2040	39.9890
 1.2050	39.9910
 1.2060	39.9940
 1.2070	39.9980
 1.2080	40.0030
 1.2090	40.0060
 1.2100	40.0130
 1.2110	40.0200
 1.2120	40.0290
 1.2130	40.0390
 1.2140	40.0510
 1.2150	40.0630
 1.2160	40.0740
 1.2170	40.0880
 1.2180	40.1020
 1.2190	40.1160
 1.2200	40.1310
 1.2210	40.1460
 1.2220	40.1580
 1.2230	40.1730
 1.2240	40.1870
 1.2250	40.2030
 1.2260	40.2200
 1.2270	40.2340
 1.2280	40.2480
 1.2290	40.2620
 1.2300	40.2740
 1.2310	40.2880
 1.2320	40.3010
 1.2330	40.3120
 1.2340	40.3240
 1.2350	40.3340
 1.2360	40.3420
 1.2370	40.3500
 1.2380	40.3580
 1.2390	40.3660
 1.2400	40.3730
 1.2410	40.3810
 1.2420	40.3900
 1.2430	40.3970
 1.2440	40.4050
 1.2450	40.4110
 1.2460	40.4190
 1.2470	40.4250
 1.2480	40.4310
 1.2490	40.4370
 1.2500	40.4420
 1.2510	40.4460
 1.2520	40.4500
 1.2530	40.4530
 1.2540	40.4560
 1.2550	40.4570
 1.2560	40.4590
 1.2570	40.4600
 1.2580	40.4600
 1.2590	40.4600
 1.2600	40.4610
 1.2610	40.4600
 1.2620	40.4590
 1.2630	40.4590
 1.2640	40.4570
 1.2650	40.4550
 1.2660	40.4540
 1.2670	40.4510
 1.2680	40.4460
 1.2690	40.4410
 1.2700	40.4350
 1.2710	40.4310
 1.2720	40.4270
 1.2730	40.4230
 1.2740	40.4180
 1.2750	40.4100
 1.2760	40.4020
 1.2770	40.3950
 1.2780	40.3880
 1.2790	40.3790
 1.2800	40.3690
 1.2810	40.3580
 1.2820	40.3460
 1.2830	40.3350
 1.2840	40.3240
 1.2850	40.3100
 1.2860	40.2930
 1.2870	40.2740
 1.2880	40.2530
 1.2890	40.2320
 1.2900	40.2090
 1.2910	40.1850
 1.2920	40.1630
 1.2930	40.1390
 1.2940	40.1130
 1.2950	40.0860
 1.2960	40.0560
 1.2970	40.0230
 1.2980	39.9900
 1.2990	39.9570
 1.3000	39.9210
 1.3010	39.8840
 1.3020	39.8450
 1.3030	39.8030
 1.3040	39.7590
 1.3050	39.7150
 1.3060	39.6700
 1.3070	39.6250
 1.3080	39.5780
 1.3090	39.5320
 1.3100	39.4850
 1.3110	39.4360
 1.3120	39.3860
 1.3130	39.3340
 1.3140	39.2800
 1.3150	39.2230
 1.3160	39.1660
 1.3170	39.1080
 1.3180	39.0480
 1.3190	38.9870
 1.3200	38.9250
 1.3210	38.8610
 1.3220	38.7960
 1.3230	38.7280
 1.3240	38.6620
 1.3250	38.5940
 1.3260	38.5240
 1.3270	38.4520
 1.3280	38.3770
 1.3290	38.3000
 1.3300	38.2220
 1.3310	38.1440
 1.3320	38.0660
 1.3330	37.9870
 1.3340	37.9070
 1.3350	37.8270
 1.3360	37.7450
 1.3370	37.6620
 1.3380	37.5800
 1.3390	37.4970
 1.3400	37.4140
 1.3410	37.3320
 1.3420	37.2500
 1.3430	37.1670
 1.3440	37.0860
 1.3450	37.0060
 1.3460	36.9260
 1.3470	36.8460
 1.3480	36.7660
 1.3490	36.6870
 1.3500	36.6100
 1.3510	36.5300
 1.3520	36.4510
 1.3530	36.3740
 1.3540	36.2940
 1.3550	36.2160
 1.3560	36.1370
 1.3570	36.0560
 1.3580	35.9730
 1.3590	35.8910
 1.3600	35.8070
 1.3610	35.7210
 1.3620	35.6330
 1.3630	35.5400
 1.3640	35.4420
 1.3650	35.3390
 1.3660	35.2330
 1.3670	35.1230
 1.3680	35.0050
 1.3690	34.8810
 1.3700	34.7450
 1.3710	34.6000
 1.3720	34.4440
 1.3730	34.2740
 1.3740	34.0940
 1.3750	33.8980
 1.3760	33.6870
 1.3770	33.4630
 1.3780	33.2170
 1.3790	32.9530
 1.3800	32.6700
 1.3810	32.3650
 1.3820	32.0430
 1.3830	31.7050
 1.3840	31.3470
 1.3850	30.9710
 1.3860	30.5790
 1.3870	30.1650
 1.3880	29.7430
 1.3890	29.3080
 1.3900	28.8580
 1.3910	28.4040
 1.3920	27.9380
 1.3930	27.4620
 1.3940	26.9820
 1.3950	26.4970
 1.3960	26.0130
 1.3970	25.5330
 1.3980	25.0560
 1.3990	24.5890
 1.4000	24.1300
 1.4010	23.6790
 1.4020	23.2430
 1.4030	22.8160
 1.4040	22.4030
 1.4050	22.0070
 1.4060	21.6260
 1.4070	21.2640
 1.4080	20.9210
 1.4090	20.5920
 1.4100	20.2830
 1.4110	19.9880
 1.4120	19.7110
 1.4130	19.4520
 1.4140	19.2090
 1.4150	18.9820
 1.4160	18.7700
 1.4170	18.5720
 1.4180	18.3880
 1.4190	18.2170
 1.4200	18.0570
 1.4210	17.9080
 1.4220	17.7700
 1.4230	17.6430
 1.4240	17.5270
 1.4250	17.4190
 1.4260	17.3210
 1.4270	17.2300
 1.4280	17.1460
 1.4290	17.0690
 1.4300	17.0010
 1.4310	16.9380
 1.4320	16.8830
 1.4330	16.8330
 1.4340	16.7880
 1.4350	16.7490
 1.4360	16.7140
 1.4370	16.6850
 1.4380	16.6590
 1.4390	16.6370
 1.4400	16.6210
 1.4410	16.6080
 1.4420	16.5980
 1.4430	16.5900
 1.4440	16.5860
 1.4450	16.5840
 1.4460	16.5840
 1.4470	16.5880
 1.4480	16.5930
 1.4490	16.6000
 1.4500	16.6090
 1.4510	16.6200
 1.4520	16.6320
 1.4530	16.6460
 1.4540	16.6620
 1.4550	16.6800
 1.4560	16.7000
 1.4570	16.7240
 1.4580	16.7510
 1.4590	16.7810
 1.4600	16.8140
 1.4610	16.8510
 1.4620	16.8900
 1.4630	16.9350
 1.4640	16.9840
 1.4650	17.0390
 1.4660	17.0980
 1.4670	17.1620
 1.4680	17.2300
 1.4690	17.3020
 1.4700	17.3780
 1.4710	17.4600
 1.4720	17.5450
 1.4730	17.6340
 1.4740	17.7260
 1.4750	17.8200
 1.4760	17.9180
 1.4770	18.0180
 1.4780	18.1200
 1.4790	18.2240
 1.4800	18.3290
 1.4810	18.4360
 1.4820	18.5460
 1.4830	18.6570
 1.4840	18.7680
 1.4850	18.8800
 1.4860	18.9910
 1.4870	19.1040
 1.4880	19.2180
 1.4890	19.3330
 1.4900	19.4480
 1.4910	19.5640
 1.4920	19.6800
 1.4930	19.7970
 1.4940	19.9130
 1.4950	20.0310
 1.4960	20.1470
 1.4970	20.2620
 1.4980	20.3780
 1.4990	20.4940
 1.5000	20.6110
 1.5010	20.7290
 1.5020	20.8450
 1.5030	20.9610
 1.5040	21.0760
 1.5050	21.1880
 1.5060	21.3020
 1.5070	21.4170
 1.5080	21.5320
 1.5090	21.6470
 1.5100	21.7610
 1.5110	21.8720
 1.5120	21.9840
 1.5130	22.0930
 1.5140	22.2030
 1.5150	22.3130
 1.5160	22.4210
 1.5170	22.5300
 1.5180	22.6360
 1.5190	22.7420
 1.5200	22.8470
 1.5210	22.9500
 1.5220	23.0520
 1.5230	23.1540
 1.5240	23.2550
 1.5250	23.3550
 1.5260	23.4550
 1.5270	23.5540
 1.5280	23.6520
 1.5290	23.7470
 1.5300	23.8410
 1.5310	23.9340
 1.5320	24.0260
 1.5330	24.1180
 1.5340	24.2100
 1.5350	24.3000
 1.5360	24.3890
 1.5370	24.4770
 1.5380	24.5630
 1.5390	24.6500
 1.5400	24.7350
 1.5410	24.8200
 1.5420	24.9030
 1.5430	24.9860
 1.5440	25.0690
 1.5450	25.1500
 1.5460	25.2310
 1.5470	25.3110
 1.5480	25.3890
 1.5490	25.4680
 1.5500	25.5450
 1.5510	25.6210
 1.5520	25.6960
 1.5530	25.7680
 1.5540	25.8400
 1.5550	25.9110
 1.5560	25.9800
 1.5570	26.0510
 1.5580	26.1210
 1.5590	26.1890
 1.5600	26.2560
 1.5610	26.3210
 1.5620	26.3850
 1.5630	26.4510
 1.5640	26.5150
 1.5650	26.5790
 1.5660	26.6420
 1.5670	26.7030
 1.5680	26.7650
 1.5690	26.8250
 1.5700	26.8850
 1.5710	26.9460
 1.5720	27.0050
 1.5730	27.0650
 1.5740	27.1240
 1.5750	27.1820
 1.5760	27.2400
 1.5770	27.2990
 1.5780	27.3550
 1.5790	27.4110
 1.5800	27.4660
 1.5810	27.5200
 1.5820	27.5740
 1.5830	27.6290
 1.5840	27.6840
 1.5850	27.7380
 1.5860	27.7930
 1.5870	27.8470
 1.5880	27.8990
 1.5890	27.9520
 1.5900	28.0050
 1.5910	28.0570
 1.5920	28.1090
 1.5930	28.1600
 1.5940	28.2090
 1.5950	28.2580
 1.5960	28.3080
 1.5970	28.3560
 1.5980	28.4050
 1.5990	28.4550
 1.6000	28.5030
 1.6010	28.5500
 1.6020	28.5970
 1.6030	28.6420
 1.6040	28.6860
 1.6050	28.7300
 1.6060	28.7730
 1.6070	28.8180
 1.6080	28.8640
 1.6090	28.9080
 1.6100	28.9510
 1.6110	28.9930
 1.6120	29.0320
 1.6130	29.0710
 1.6140	29.1110
 1.6150	29.1500
 1.6160	29.1890
 1.6170	29.2270
 1.6180	29.2650
 1.6190	29.3020
 1.6200	29.3380
 1.6210	29.3740
 1.6220	29.4090
 1.6230	29.4430
 1.6240	29.4770
 1.6250	29.5110
 1.6260	29.5440
 1.6270	29.5760
 1.6280	29.6070
 1.6290	29.6380
 1.6300	29.6690
 1.6310	29.6990
 1.6320	29.7290
 1.6330	29.7570
 1.6340	29.7810
 1.6350	29.8070
 1.6360	29.8310
 1.6370	29.8560
 1.6380	29.8810
 1.6390	29.9040
 1.6400	29.9260
 1.6410	29.9470
 1.6420	29.9660
 1.6430	29.9820
 1.6440	29.9950
 1.6450	30.0100
 1.6460	30.0230
 1.6470	30.0360
 1.6480	30.0460
 1.6490	30.0550
 1.6500	30.0600
 1.6510	30.0650
 1.6520	30.0690
 1.6530	30.0700
 1.6540	30.0710
 1.6550	30.0720
 1.6560	30.0700
 1.6570	30.0680
 1.6580	30.0640
 1.6590	30.0580
 1.6600	30.0520
 1.6610	30.0450
 1.6620	30.0410
 1.6630	30.0350
 1.6640	30.0280
 1.6650	30.0220
 1.6660	30.0150
 1.6670	30.0070
 1.6680	29.9990
 1.6690	29.9900
 1.6700	29.9810
 1.6710	29.9730
 1.6720	29.9630
 1.6730	29.9530
 1.6740	29.9420
 1.6750	29.9300
 1.6760	29.9170
 1.6770	29.9010
 1.6780	29.8830
 1.6790	29.8610
 1.6800	29.8390
 1.6810	29.8140
 1.6820	29.7890
 1.6830	29.7620
 1.6840	29.7330
 1.6850	29.7010
 1.6860	29.6680
 1.6870	29.6320
 1.6880	29.5970
 1.6890	29.5600
 1.6900	29.5250
 1.6910	29.4900
 1.6920	29.4540
 1.6930	29.4160
 1.6940	29.3790
 1.6950	29.3410
 1.6960	29.3050
 1.6970	29.2710
 1.6980	29.2350
 1.6990	29.1980
 1.7000	29.1620
 1.7010	29.1260
 1.7020	29.0900
 1.7030	29.0540
 1.7040	29.0170
 1.7050	28.9770
 1.7060	28.9400
 1.7070	28.9030
 1.7080	28.8650
 1.7090	28.8290
 1.7100	28.7910
 1.7110	28.7530
 1.7120	28.7150
 1.7130	28.6770
 1.7140	28.6360
 1.7150	28.5970
 1.7160	28.5570
 1.7170	28.5170
 1.7180	28.4790
 1.7190	28.4390
 1.7200	28.3990
 1.7210	28.3590
 1.7220	28.3180
 1.7230	28.2780
 1.7240	28.2360
 1.7250	28.1950
 1.7260	28.1540
 1.7270	28.1140
 1.7280	28.0780
 1.7290	28.0420
 1.7300	28.0080
 1.7310	27.9760
 1.7320	27.9440
 1.7330	27.9150
 1.7340	27.8900
 1.7350	27.8630
 1.7360	27.8390
 1.7370	27.8130
 1.7380	27.7840
 1.7390	27.7540
 1.7400	27.7240
 1.7410	27.6910
 1.7420	27.6540
 1.7430	27.6170
 1.7440	27.5760
 1.7450	27.5350
 1.7460	27.4940
 1.7470	27.4510
 1.7480	27.4060
 1.7490	27.3610
 1.7500	27.3140
 1.7510	27.2680
 1.7520	27.2210
 1.7530	27.1750
 1.7540	27.1290
 1.7550	27.0820
 1.7560	27.0360
 1.7570	26.9900
 1.7580	26.9440
 1.7590	26.9000
 1.7600	26.8560
 1.7610	26.8150
 1.7620	26.7750
 1.7630	26.7350
 1.7640	26.6980
 1.7650	26.6640
 1.7660	26.6310
 1.7670	26.5990
 1.7680	26.5690
 1.7690	26.5400
 1.7700	26.5120
 1.7710	26.4850
 1.7720	26.4600
 1.7730	26.4370
 1.7740	26.4130
 1.7750	26.3930
 1.7760	26.3720
 1.7770	26.3500
 1.7780	26.3280
 1.7790	26.3070
 1.7800	26.2880
 1.7810	26.2680
 1.7820	26.2520
 1.7830	26.2400
 1.7840	26.2290
 1.7850	26.2200
 1.7860	26.2110
 1.7870	26.2030
 1.7880	26.1960
 1.7890	26.1900
 1.7900	26.1860
 1.7910	26.1830
 1.7920	26.1800
 1.7930	26.1810
 1.7940	26.1830
 1.7950	26.1860
 1.7960	26.1930
 1.7970	26.1980
 1.7980	26.2020
 1.7990	26.2070
 1.8000	26.2130
 1.8010	26.2190
 1.8020	26.2260
 1.8030	26.2330
 1.8040	26.2400
 1.8050	26.2500
 1.8060	26.2620
 1.8070	26.2710
 1.8080	26.2810
 1.8090	26.2880
 1.8100	26.2930
 1.8110	26.2990
 1.8120	26.3040
 1.8130	26.3080
 1.8140	26.3120
 1.8150	26.3140
 1.8160	26.3160
 1.8170	26.3220
 1.8180	26.3250
 1.8190	26.3290
 1.8200	26.3300
 1.8210	26.3270
 1.8220	26.3260
 1.8230	26.3260
 1.8240	26.3260
 1.8250	26.3300
 1.8260	26.3280
 1.8270	26.3240
 1.8280	26.3190
 1.8290	26.3090
 1.8300	26.3010
 1.8310	25.9360
 1.8320	25.9210
 1.8330	25.9020
 1.8340	25.8790
 1.8350	25.8510
 1.8360	25.8190
 1.8370	25.7890
 1.8380	25.7570
 1.8390	25.7190
 1.8400	25.6820
 1.8410	25.6350
 1.8420	25.5800
 1.8430	25.5210
 1.8440	25.4570
 1.8450	25.3880
 1.8460	25.3150
 1.8470	25.2340
 1.8480	25.1450
 1.8490	25.0480
 1.8500	24.9420
 1.8510	24.8280
 1.8520	24.7030
 1.8530	24.5690
 1.8540	24.4250
 1.8550	24.2690
 1.8560	24.1020
 1.8570	23.9260
 1.8580	23.7370
 1.8590	23.5330
 1.8600	23.3170
 1.8610	23.0870
 1.8620	22.8400
 1.8630	22.5780
 1.8640	22.2970
 1.8650	22.0010
 1.8660	21.6870
 1.8670	21.3490
 1.8680	20.9980
 1.8690	20.6250
 1.8700	20.2330
 1.8710	19.8200
 1.8720	19.4000
 1.8730	18.9630
 1.8740	18.5100
 1.8750	18.0470
 1.8760	17.5670
 1.8770	17.0790
 1.8780	16.5850
 1.8790	16.0810
 1.8800	15.5810
 1.8810	15.0770
 1.8820	14.5720
 1.8830	14.0650
 1.8840	13.5610
 1.8850	13.0520
 1.8860	12.5490
 1.8870	12.0560
 1.8880	11.5720
 1.8890	11.1090
 1.8900	10.6620
 1.8910	10.2330
 1.8920	 9.8190
 1.8930	 9.4300
 1.8940	 9.0590
 1.8950	 8.7090
 1.8960	 8.3830
 1.8970	 8.0780
 1.8980	 7.8010
 1.8990	 7.5460
 1.9000	 7.3070
 1.9010	 7.0930
 1.9020	 6.8940
 1.9030	 6.7120
 1.9040	 6.5460
 1.9050	 6.4020
 1.9060	 6.2730
 1.9070	 6.1580
 1.9080	 6.0560
 1.9090	 5.9640
 1.9100	 5.8810
 1.9110	 5.8060
 1.9120	 5.7410
 1.9130	 5.6820
 1.9140	 5.6290
 1.9150	 5.5830
 1.9160	 5.5450
 1.9170	 5.5080
 1.9180	 5.4780
 1.9190	 5.4530
 1.9200	 5.4290
 1.9210	 5.4110
 1.9220	 5.3950
 1.9230	 5.3830
 1.9240	 5.3730
 1.9250	 5.3660
 1.9260	 5.3610
 1.9270	 5.3590
 1.9280	 5.3590
 1.9290	 5.3600
 1.9300	 5.3640
 1.9310	 5.3700
 1.9320	 5.3770
 1.9330	 5.3870
 1.9340	 5.4020
 1.9350	 5.4170
 1.9360	 5.4350
 1.9370	 5.4530
 1.9380	 5.4700
 1.9390	 5.4880
 1.9400	 5.5070
 1.9410	 5.5310
 1.9420	 5.5580
 1.9430	 5.5860
 1.9440	 5.6150
 1.9450	 5.6460
 1.9460	 5.6770
 1.9470	 5.7080
 1.9480	 5.7400
 1.9490	 5.7740
 1.9500	 5.8050
 1.9510	 5.8420
 1.9520	 5.8800
 1.9530	 5.9170
 1.9540	 5.9580
 1.9550	 6.0010
 1.9560	 6.0450
 1.9570	 6.0890
 1.9580	 6.1360
 1.9590	 6.1830
 1.9600	 6.2290
 1.9610	 6.2750
 1.9620	 6.3220
 1.9630	 6.3710
 1.9640	 6.4180
 1.9650	 6.4700
 1.9660	 6.5240
 1.9670	 6.5780
 1.9680	 6.6320
 1.9690	 6.6880
 1.9700	 6.7420
 1.9710	 6.7950
 1.9720	 6.8510
 1.9730	 6.9080
 1.9740	 6.9680
 1.9750	 7.0300
 1.9760	 7.0920
 1.9770	 7.1550
 1.9780	 7.2200
 1.9790	 7.2860
 1.9800	 7.3540
 1.9810	 7.4220
 1.9820	 7.4920
 1.9830	 7.5610
 1.9840	 7.6280
 1.9850	 7.6970
 1.9860	 7.7650
 1.9870	 7.8340
 1.9880	 7.9040
 1.9890	 7.9740
 1.9900	 8.0430
 1.9910	 8.1120
 1.9920	 8.1830
 1.9930	 8.2540
 1.9940	 8.3260
 1.9950	 8.4000
 1.9960	 8.4720
 1.9970	 8.5390
 1.9980	 8.6110
 1.9990	 8.6830
 2.0000	 8.7550
 2.0010	 8.8310
 2.0020	 8.9060
 2.0030	 8.9790
 2.0040	 9.0520
 2.0050	 9.1260
 2.0060	 9.1990
 2.0070	 9.2700
 2.0080	 9.3400
 2.0090	 9.4110
 2.0100	 9.4800
 2.0110	 9.5500
 2.0120	 9.6200
 2.0130	 9.6910
 2.0140	 9.7550
 2.0150	 9.8200
 2.0160	 9.8860
 2.0170	 9.9510
 2.0180	10.0170
 2.0190	10.0860
 2.0200	10.1510
 2.0210	10.2150
 2.0220	10.2790
 2.0230	10.3430
 2.0240	10.4040
 2.0250	10.4630
 2.0260	10.5220
 2.0270	10.5800
 2.0280	10.6350
 2.0290	10.6890
 2.0300	10.7460
 2.0310	10.8000
 2.0320	10.8530
 2.0330	10.9050
 2.0340	10.9570
 2.0350	11.0060
 2.0360	11.0560
 2.0370	11.1030
 2.0380	11.1460
 2.0390	11.1920
 2.0400	11.2380
 2.0410	11.2830
 2.0420	11.3280
 2.0430	11.3730
 2.0440	11.4160
 2.0450	11.4550
 2.0460	11.4960
 2.0470	11.5370
 2.0480	11.5770
 2.0490	11.6140
 2.0500	11.6550
 2.0510	11.6950
 2.0520	11.7360
 2.0530	11.7780
 2.0540	11.8190
 2.0550	11.8590
 2.0560	11.8980
 2.0570	11.9410
 2.0580	11.9820
 2.0590	12.0250
 2.0600	12.0680
 2.0610	12.1120
 2.0620	12.1580
 2.0630	12.2010
 2.0640	12.2420
 2.0650	12.2870
 2.0660	12.3330
 2.0670	12.3770
 2.0680	12.4240
 2.0690	12.4690
 2.0700	12.5110
 2.0710	12.5530
 2.0720	12.5970
 2.0730	12.6400
 2.0740	12.6820
 2.0750	12.7230
 2.0760	12.7640
 2.0770	12.8050
 2.0780	12.8480
 2.0790	12.8910
 2.0800	12.9340
 2.0810	12.9760
 2.0820	13.0180
 2.0830	13.0600
 2.0840	13.1010
 2.0850	13.1430
 2.0860	13.1830
 2.0870	13.2230
 2.0880	13.2630
 2.0890	13.3020
 2.0900	13.3400
 2.0910	13.3800
 2.0920	13.4210
 2.0930	13.4630
 2.0940	13.5110
 2.0950	13.5520
 2.0960	13.5900
 2.0970	13.6280
 2.0980	13.6620
 2.0990	13.6990
 2.1000	13.7380
 2.1010	13.7760
 2.1020	13.8160
 2.1030	13.8540
 2.1040	13.8920
 2.1050	13.9300
 2.1060	13.9680
 2.1070	14.0030
 2.1080	14.0420
 2.1090	14.0820
 2.1100	14.1210
 2.1110	14.1610
 2.1120	14.1980
 2.1130	14.2340
 2.1140	14.2690
 2.1150	14.3010
 2.1160	14.3350
 2.1170	14.3660
 2.1180	14.4020
 2.1190	14.4460
 2.1200	14.4830
 2.1210	14.5200
 2.1220	14.5600
 2.1230	14.5930
 2.1240	14.6190
 2.1250	14.6490
 2.1260	14.6780
 2.1270	14.7070
 2.1280	14.7340
 2.1290	14.7640
 2.1300	14.7960
 2.1310	14.8250
 2.1320	14.8540
 2.1330	14.8830
 2.1340	14.9100
 2.1350	14.9370
 2.1360	14.9670
 2.1370	14.9940
 2.1380	15.0200
 2.1390	15.0460
 2.1400	15.0700
 2.1410	15.0940
 2.1420	15.1190
 2.1430	15.1440
 2.1440	15.1700
 2.1450	15.1980
 2.1460	15.2240
 2.1470	15.2500
 2.1480	15.2750
 2.1490	15.2990
 2.1500	15.3230
 2.1510	15.3430
 2.1520	15.3670
 2.1530	15.3920
 2.1540	15.4150
 2.1550	15.4420
 2.1560	15.4650
 2.1570	15.4840
 2.1580	15.5050
 2.1590	15.5260
 2.1600	15.5470
 2.1610	15.5630
 2.1620	15.5830
 2.1630	15.6010
 2.1640	15.6150
 2.1650	15.6330
 2.1660	15.6520
 2.1670	15.6720
 2.1680	15.6920
 2.1690	15.7140
 2.1700	15.7400
 2.1710	15.7630
 2.1720	15.7850
 2.1730	15.8090
 2.1740	15.8320
 2.1750	15.8560
 2.1760	15.8830
 2.1770	15.9080
 2.1780	15.9330
 2.1790	15.9570
 2.1800	15.9790
 2.1810	16.0020
 2.1820	16.0250
 2.1830	16.0480
 2.1840	16.0710
 2.1850	16.0940
 2.1860	16.1200
 2.1870	16.1490
 2.1880	16.1740
 2.1890	16.2000
 2.1900	16.2260
 2.1910	16.2490
 2.1920	16.2740
 2.1930	16.3000
 2.1940	16.3260
 2.1950	16.3500
 2.1960	16.3790
 2.1970	16.4150
 2.1980	16.4450
 2.1990	16.4780
 2.2000	16.5040
 2.2010	16.5220
 2.2020	16.5420
 2.2030	16.5560
 2.2040	16.5750
 2.2050	16.5980
 2.2060	16.6200
 2.2070	16.6390
 2.2080	16.6620
 2.2090	16.6780
 2.2100	16.6870
 2.2110	16.7010
 2.2120	16.7120
 2.2130	16.7260
 2.2140	16.7440
 2.2150	16.7580
 2.2160	16.7710
 2.2170	16.7820
 2.2180	16.7940
 2.2190	16.8010
 2.2200	16.8070
 2.2210	16.8100
 2.2220	16.8090
 2.2230	16.8080
 2.2240	16.8110
 2.2250	16.8070
 2.2260	16.7980
 2.2270	16.7900
 2.2280	16.7780
 2.2290	16.7640
 2.2300	16.7500
 2.2310	16.7370
 2.2320	16.7130
 2.2330	16.6850
 2.2340	16.6540
 2.2350	16.6160
 2.2360	16.5800
 2.2370	16.5420
 2.2380	16.5030
 2.2390	16.4640
 2.2400	16.4220
 2.2410	16.3780
 2.2420	16.3310
 2.2430	16.2800
 2.2440	16.2300
 2.2450	16.1800
 2.2460	16.1250
 2.2470	16.0670
 2.2480	16.0080
 2.2490	15.9440
 2.2500	15.8810
 2.2510	15.8180
 2.2520	15.7530
 2.2530	15.6850
 2.2540	15.6170
 2.2550	15.5460
 2.2560	15.4780
 2.2570	15.4100
 2.2580	15.3410
 2.2590	15.2740
 2.2600	15.2060
 2.2610	15.1340
 2.2620	15.0670
 2.2630	15.0050
 2.2640	14.9450
 2.2650	14.8870
 2.2660	14.8280
 2.2670	14.7700
 2.2680	14.7080
 2.2690	14.6520
 2.2700	14.6040
 2.2710	14.5500
 2.2720	14.4950
 2.2730	14.4440
 2.2740	14.3920
 2.2750	14.3460
 2.2760	14.3080
 2.2770	14.2660
 2.2780	14.2220
 2.2790	14.1820
 2.2800	14.1440
 2.2810	14.1060
 2.2820	14.0710
 2.2830	14.0320
 2.2840	13.9870
 2.2850	13.9480
 2.2860	13.9110
 2.2870	13.8740
 2.2880	13.8410
 2.2890	13.8030
 2.2900	13.7600
 2.2910	13.7210
 2.2920	13.6810
 2.2930	13.6390
 2.2940	13.5990
 2.2950	13.5560
 2.2960	13.5040
 2.2970	13.4580
 2.2980	13.4160
 2.2990	13.3750
 2.3000	13.3290
 2.3010	13.2820
 2.3020	13.2320
 2.3030	13.1750
 2.3040	13.1220
 2.3050	13.0760
 2.3060	13.0240
 2.3070	12.9770
 2.3080	12.9360
 2.3090	12.8940
 2.3100	12.8610
 2.3110	12.8310
 2.3120	12.8030
 2.3130	12.7780
 2.3140	12.7550
 2.3150	12.7330
 2.3160	12.7160
 2.3170	12.7040
 2.3180	12.6900
 2.3190	12.6760
 2.3200	12.6680
 2.3210	12.6650
 2.3220	12.6530
 2.3230	12.6490
 2.3240	12.6280
 2.3250	12.5930
 2.3260	12.5610
 2.3270	12.5230
 2.3280	12.4860
 2.3290	12.4500
 2.3300	12.4130
 2.3310	12.3740
 2.3320	12.3380
 2.3330	12.3040
 2.3340	12.2670
 2.3350	12.2300
 2.3360	12.1920
 2.3370	12.1500
 2.3380	12.1090
 2.3390	12.0640
 2.3400	12.0220
 2.3410	11.9800
 2.3420	11.9390
 2.3430	11.9020
 2.3440	11.8610
 2.3450	11.8170
 2.3460	11.7750
 2.3470	11.7270
 2.3480	11.6870
 2.3490	11.6540
 2.3500	11.6200
 2.3510	11.5930
 2.3520	11.5640
 2.3530	11.5340
 2.3540	11.5020
 2.3550	11.4720
 2.3560	11.4440
 2.3570	11.4210
 2.3580	11.4030
 2.3590	11.3780
 2.3600	11.3530
 2.3610	11.3200
 2.3620	11.2820
 2.3630	11.2520
 2.3640	11.2140
 2.3650	11.1840
 2.3660	11.1570
 2.3670	11.1220
 2.3680	11.0890
 2.3690	11.0480
 2.3700	11.0010
 2.3710	10.9640
 2.3720	10.9340
 2.3730	10.9120
 2.3740	10.8840
 2.3750	10.8400
 2.3760	10.7930
 2.3770	10.7480
 2.3780	10.7060
 2.3790	10.6690
 2.3800	10.6350
 2.3810	10.5900
 2.3820	10.5460
 2.3830	10.5060
 2.3840	10.4690
 2.3850	10.4390
 2.3860	10.3990
 2.3870	10.3570
 2.3880	10.3120
 2.3890	10.2660
 2.3900	10.2260
 2.3910	10.1800
 2.3920	10.1360
 2.3930	10.0950
 2.3940	10.0440
 2.3950	10.0030
 2.3960	 9.9710
 2.3970	 9.9320
 2.3980	 9.8990
 2.3990	 9.8710
 2.4000	 9.8290
 2.4010	 9.7690
 2.4020	 9.7130
 2.4030	 9.6590
 2.4040	 9.6050
 2.4050	 9.5720
 2.4060	 9.5470
 2.4070	 9.5080
 2.4080	 9.4650
 2.4090	 9.4210
 2.4100	 9.3680
 2.4110	 9.3150
 2.4120	 9.2640
 2.4130	 9.2150
 2.4140	 9.1660
 2.4150	 9.1160
 2.4160	 9.0710
 2.4170	 9.0240
 2.4180	 8.9710
 2.4190	 8.9250
 2.4200	 8.8800
 2.4210	 8.8340
 2.4220	 8.7900
 2.4230	 8.7480
 2.4240	 8.7060
 2.4250	 8.6530
 2.4260	 8.5990
 2.4270	 8.5580
 2.4280	 8.5050
 2.4290	 8.4480
 2.4300	 8.4090
 2.4310	 8.3700
 2.4320	 8.3280
 2.4330	 8.3040
 2.4340	 8.2790
 2.4350	 8.2290
 2.4360	 8.1850
 2.4370	 8.1590
 2.4380	 8.1130
 2.4390	 8.0610
 2.4400	 8.0200
 2.4410	 7.9520
 2.4420	 7.8780
 2.4430	 7.8250
 2.4440	 7.7770
 2.4450	 7.7230
 2.4460	 7.6820
 2.4470	 7.6610
 2.4480	 7.6110
 2.4490	 7.5520
 2.4500	 7.5250
 2.4510	 7.4810
 2.4520	 7.4340
 2.4530	 7.4080
 2.4540	 7.3650
 2.4550	 7.3160
 2.4560	 7.2820
 2.4570	 7.2640
 2.4580	 7.2470
 2.4590	 7.2030
 2.4600	 7.1630
 2.4610	 7.1350
 2.4620	 7.0970
 2.4630	 7.0870
 2.4640	 7.0630
 2.4650	 6.9870
 2.4660	 6.9320
 2.4670	 6.8700
 2.4680	 6.8170
 2.4690	 6.7940
 2.4700	 6.7630
 2.4710	 6.7410
 2.4720	 6.7210
 2.4730	 6.7180
 2.4740	 6.6980
 2.4750	 6.6840
 2.4760	 6.6470
 2.4770	 6.5560
 2.4780	 6.5340
 2.4790	 6.5400
 2.4800	 6.5200
 2.4810	 6.5370
 2.4820	 6.5170
 2.4830	 6.4810
 2.4840	 6.4440
 2.4850	 6.4130
 2.4860	 6.3530
 2.4870	 6.3070
 2.4880	 6.3200
 2.4890	 6.3460
 2.4900	 6.3480
 2.4910	 6.3270
 2.4920	 6.3070
 2.4930	 6.2670
 2.4940	 6.2310
 2.4950	 6.1990
 2.4960	 6.1590
 2.4970	 6.1770
 2.4980	 6.1860
 2.4990	 6.2000
 2.5000	 6.2450
