Name: Pinus strobus
Type: Vegetation
Class: Tree
Genus: Pinus
Species: strobus
Sample No.: PIST-3-29
Owner: UCSB
Wavelength Range: VSWIR
Origin: USA; Massachusetts; Harvard Forest
Collection Date: 7/8/2013
Description: Samples were collected as part of NSF Macrosystem Biology proposal titled: Collaborative Research: Thermal controls on ecosystem metabolism and function: scaling from leaves to canopies to regions. Samples were collected and overnighted to JPL facilities for processing. The same leaves were processed in the Nicolet and then measured using the ASD.
Measurement: Bidirectional reflectance
First Column: X
Second Column: Y
X Units: Wavelength (micrometers)
Y Units: Reflectance (percentage)
First X Value: 0.35
Last X Value: 2.5
Number of X Values: 2151
Additional Information: vegetation.tree.pinus.strobus.vswir.pist-3-29.ucsb.asd.ancillary.txt

 0.3500	 7.1270
 0.3510	 6.5810
 0.3520	 6.2870
 0.3530	 6.2630
 0.3540	 6.2890
 0.3550	 6.3310
 0.3560	 6.4790
 0.3570	 6.4490
 0.3580	 5.9180
 0.3590	 5.9360
 0.3600	 6.0010
 0.3610	 5.9320
 0.3620	 6.2270
 0.3630	 6.2140
 0.3640	 6.0470
 0.3650	 6.0000
 0.3660	 5.9510
 0.3670	 5.9400
 0.3680	 5.9810
 0.3690	 6.0580
 0.3700	 6.0590
 0.3710	 6.0130
 0.3720	 5.9770
 0.3730	 6.0390
 0.3740	 5.9710
 0.3750	 5.9030
 0.3760	 5.9990
 0.3770	 5.9660
 0.3780	 5.8850
 0.3790	 5.8490
 0.3800	 5.9320
 0.3810	 5.8710
 0.3820	 5.8440
 0.3830	 5.9320
 0.3840	 5.8290
 0.3850	 5.7250
 0.3860	 5.7200
 0.3870	 5.8360
 0.3880	 5.8650
 0.3890	 5.9030
 0.3900	 5.9350
 0.3910	 5.8260
 0.3920	 5.8200
 0.3930	 5.8290
 0.3940	 5.7670
 0.3950	 5.7320
 0.3960	 5.7790
 0.3970	 5.8490
 0.3980	 5.8430
 0.3990	 5.8170
 0.4000	 5.8390
 0.4010	 5.8950
 0.4020	 5.8690
 0.4030	 5.8190
 0.4040	 5.8180
 0.4050	 5.8950
 0.4060	 5.9520
 0.4070	 5.9540
 0.4080	 5.9310
 0.4090	 5.9530
 0.4100	 6.0260
 0.4110	 6.0950
 0.4120	 6.1250
 0.4130	 6.1330
 0.4140	 6.1620
 0.4150	 6.2180
 0.4160	 6.2860
 0.4170	 6.3400
 0.4180	 6.3730
 0.4190	 6.4070
 0.4200	 6.4880
 0.4210	 6.5160
 0.4220	 6.5370
 0.4230	 6.5940
 0.4240	 6.6480
 0.4250	 6.6760
 0.4260	 6.6960
 0.4270	 6.7450
 0.4280	 6.8130
 0.4290	 6.8520
 0.4300	 6.8590
 0.4310	 6.8910
 0.4320	 6.9210
 0.4330	 6.9210
 0.4340	 6.8900
 0.4350	 6.9190
 0.4360	 6.9740
 0.4370	 7.0210
 0.4380	 7.0330
 0.4390	 7.0580
 0.4400	 7.0850
 0.4410	 7.1020
 0.4420	 7.1180
 0.4430	 7.1280
 0.4440	 7.1400
 0.4450	 7.1670
 0.4460	 7.2050
 0.4470	 7.2330
 0.4480	 7.2480
 0.4490	 7.2800
 0.4500	 7.2750
 0.4510	 7.2790
 0.4520	 7.3310
 0.4530	 7.3600
 0.4540	 7.3670
 0.4550	 7.3680
 0.4560	 7.3850
 0.4570	 7.3910
 0.4580	 7.3900
 0.4590	 7.3940
 0.4600	 7.4230
 0.4610	 7.4260
 0.4620	 7.4140
 0.4630	 7.4140
 0.4640	 7.4140
 0.4650	 7.4180
 0.4660	 7.4240
 0.4670	 7.4240
 0.4680	 7.4240
 0.4690	 7.4320
 0.4700	 7.4430
 0.4710	 7.4250
 0.4720	 7.4150
 0.4730	 7.4240
 0.4740	 7.4420
 0.4750	 7.4250
 0.4760	 7.4140
 0.4770	 7.4250
 0.4780	 7.4290
 0.4790	 7.4270
 0.4800	 7.4240
 0.4810	 7.4310
 0.4820	 7.4560
 0.4830	 7.4670
 0.4840	 7.4590
 0.4850	 7.4560
 0.4860	 7.4620
 0.4870	 7.4700
 0.4880	 7.4820
 0.4890	 7.5200
 0.4900	 7.5540
 0.4910	 7.5840
 0.4920	 7.6260
 0.4930	 7.6480
 0.4940	 7.6740
 0.4950	 7.7180
 0.4960	 7.7770
 0.4970	 7.8310
 0.4980	 7.8850
 0.4990	 7.9550
 0.5000	 8.0510
 0.5010	 8.1350
 0.5020	 8.2090
 0.5030	 8.3100
 0.5040	 8.4300
 0.5050	 8.5590
 0.5060	 8.6940
 0.5070	 8.8480
 0.5080	 9.0100
 0.5090	 9.1830
 0.5100	 9.3760
 0.5110	 9.5810
 0.5120	 9.7910
 0.5130	10.0100
 0.5140	10.2570
 0.5150	10.5110
 0.5160	10.7730
 0.5170	11.0480
 0.5180	11.3330
 0.5190	11.6180
 0.5200	11.8990
 0.5210	12.1780
 0.5220	12.4600
 0.5230	12.7370
 0.5240	12.9990
 0.5250	13.2440
 0.5260	13.4790
 0.5270	13.7030
 0.5280	13.9060
 0.5290	14.0860
 0.5300	14.2510
 0.5310	14.4050
 0.5320	14.5420
 0.5330	14.6650
 0.5340	14.7760
 0.5350	14.8730
 0.5360	14.9550
 0.5370	15.0310
 0.5380	15.1010
 0.5390	15.1580
 0.5400	15.1980
 0.5410	15.2290
 0.5420	15.2630
 0.5430	15.3070
 0.5440	15.3510
 0.5450	15.3920
 0.5460	15.4350
 0.5470	15.5050
 0.5480	15.5630
 0.5490	15.5960
 0.5500	15.6280
 0.5510	15.6490
 0.5520	15.6590
 0.5530	15.6610
 0.5540	15.6470
 0.5550	15.6140
 0.5560	15.5620
 0.5570	15.4970
 0.5580	15.4260
 0.5590	15.3420
 0.5600	15.2410
 0.5610	15.1370
 0.5620	15.0190
 0.5630	14.8910
 0.5640	14.7570
 0.5650	14.6170
 0.5660	14.4710
 0.5670	14.3180
 0.5680	14.1560
 0.5690	13.9800
 0.5700	13.8000
 0.5710	13.6260
 0.5720	13.4670
 0.5730	13.3160
 0.5740	13.1680
 0.5750	13.0190
 0.5760	12.8760
 0.5770	12.7520
 0.5780	12.6450
 0.5790	12.5340
 0.5800	12.4390
 0.5810	12.3520
 0.5820	12.2630
 0.5830	12.1820
 0.5840	12.1030
 0.5850	12.0270
 0.5860	11.9540
 0.5870	11.8850
 0.5880	11.8200
 0.5890	11.7610
 0.5900	11.7010
 0.5910	11.6510
 0.5920	11.6090
 0.5930	11.5670
 0.5940	11.5350
 0.5950	11.5080
 0.5960	11.4820
 0.5970	11.4620
 0.5980	11.4380
 0.5990	11.4100
 0.6000	11.3820
 0.6010	11.3530
 0.6020	11.3170
 0.6030	11.2710
 0.6040	11.2150
 0.6050	11.1550
 0.6060	11.0890
 0.6070	11.0160
 0.6080	10.9390
 0.6090	10.8470
 0.6100	10.7420
 0.6110	10.6420
 0.6120	10.5620
 0.6130	10.4980
 0.6140	10.4370
 0.6150	10.3530
 0.6160	10.2810
 0.6170	10.2160
 0.6180	10.1470
 0.6190	10.0960
 0.6200	10.0420
 0.6210	 9.9870
 0.6220	 9.9490
 0.6230	 9.9170
 0.6240	 9.8880
 0.6250	 9.8630
 0.6260	 9.8410
 0.6270	 9.8260
 0.6280	 9.8160
 0.6290	 9.8070
 0.6300	 9.7960
 0.6310	 9.7820
 0.6320	 9.7660
 0.6330	 9.7490
 0.6340	 9.7270
 0.6350	 9.6910
 0.6360	 9.6380
 0.6370	 9.5750
 0.6380	 9.4990
 0.6390	 9.4180
 0.6400	 9.3370
 0.6410	 9.2490
 0.6420	 9.1560
 0.6430	 9.0580
 0.6440	 8.9610
 0.6450	 8.8620
 0.6460	 8.7670
 0.6470	 8.6840
 0.6480	 8.6050
 0.6490	 8.5290
 0.6500	 8.4630
 0.6510	 8.4170
 0.6520	 8.3720
 0.6530	 8.3280
 0.6540	 8.2860
 0.6550	 8.2410
 0.6560	 8.1970
 0.6570	 8.1480
 0.6580	 8.0870
 0.6590	 8.0220
 0.6600	 7.9570
 0.6610	 7.8930
 0.6620	 7.8300
 0.6630	 7.7690
 0.6640	 7.7130
 0.6650	 7.6650
 0.6660	 7.6260
 0.6670	 7.5910
 0.6680	 7.5610
 0.6690	 7.5400
 0.6700	 7.5240
 0.6710	 7.5150
 0.6720	 7.5150
 0.6730	 7.5210
 0.6740	 7.5280
 0.6750	 7.5420
 0.6760	 7.5640
 0.6770	 7.5840
 0.6780	 7.6090
 0.6790	 7.6420
 0.6800	 7.6810
 0.6810	 7.7320
 0.6820	 7.7910
 0.6830	 7.8600
 0.6840	 7.9530
 0.6850	 8.0640
 0.6860	 8.1980
 0.6870	 8.3650
 0.6880	 8.5820
 0.6890	 8.8510
 0.6900	 9.1760
 0.6910	 9.5660
 0.6920	10.0220
 0.6930	10.5460
 0.6940	11.1390
 0.6950	11.7880
 0.6960	12.4920
 0.6970	13.2450
 0.6980	14.0400
 0.6990	14.8780
 0.7000	15.7510
 0.7010	16.6520
 0.7020	17.5730
 0.7030	18.5030
 0.7040	19.4420
 0.7050	20.3860
 0.7060	21.3330
 0.7070	22.2880
 0.7080	23.2440
 0.7090	24.1940
 0.7100	25.1430
 0.7110	26.0970
 0.7120	27.0510
 0.7130	27.9910
 0.7140	28.9350
 0.7150	29.8740
 0.7160	30.7990
 0.7170	31.7160
 0.7180	32.6290
 0.7190	33.5330
 0.7200	34.4180
 0.7210	35.2850
 0.7220	36.1370
 0.7230	36.9750
 0.7240	37.7860
 0.7250	38.5760
 0.7260	39.3420
 0.7270	40.0810
 0.7280	40.7760
 0.7290	41.4610
 0.7300	42.1250
 0.7310	42.7420
 0.7320	43.3200
 0.7330	43.8780
 0.7340	44.4200
 0.7350	44.9340
 0.7360	45.4010
 0.7370	45.8470
 0.7380	46.2840
 0.7390	46.6710
 0.7400	47.0460
 0.7410	47.4060
 0.7420	47.7320
 0.7430	48.0430
 0.7440	48.3240
 0.7450	48.5800
 0.7460	48.8300
 0.7470	49.0600
 0.7480	49.2620
 0.7490	49.4430
 0.7500	49.6340
 0.7510	49.7920
 0.7520	49.9240
 0.7530	50.0530
 0.7540	50.1890
 0.7550	50.2990
 0.7560	50.3910
 0.7570	50.5020
 0.7580	50.5690
 0.7590	50.6420
 0.7600	50.7380
 0.7610	50.7910
 0.7620	50.8420
 0.7630	50.8950
 0.7640	50.9430
 0.7650	50.9960
 0.7660	51.0490
 0.7670	51.0900
 0.7680	51.1080
 0.7690	51.1450
 0.7700	51.1830
 0.7710	51.2130
 0.7720	51.2510
 0.7730	51.2880
 0.7740	51.3140
 0.7750	51.3300
 0.7760	51.3560
 0.7770	51.3780
 0.7780	51.4000
 0.7790	51.4290
 0.7800	51.4510
 0.7810	51.4740
 0.7820	51.4980
 0.7830	51.5120
 0.7840	51.5220
 0.7850	51.5500
 0.7860	51.5940
 0.7870	51.6060
 0.7880	51.6240
 0.7890	51.6460
 0.7900	51.6570
 0.7910	51.6640
 0.7920	51.6790
 0.7930	51.7030
 0.7940	51.7310
 0.7950	51.7590
 0.7960	51.7690
 0.7970	51.7630
 0.7980	51.7730
 0.7990	51.7880
 0.8000	51.8060
 0.8010	51.8200
 0.8020	51.8140
 0.8030	51.8070
 0.8040	51.8140
 0.8050	51.8380
 0.8060	51.8310
 0.8070	51.8390
 0.8080	51.8620
 0.8090	51.8550
 0.8100	51.8470
 0.8110	51.8540
 0.8120	51.8720
 0.8130	51.8720
 0.8140	51.8650
 0.8150	51.8680
 0.8160	51.8800
 0.8170	51.8550
 0.8180	51.8610
 0.8190	51.8740
 0.8200	51.8480
 0.8210	51.8370
 0.8220	51.8410
 0.8230	51.8470
 0.8240	51.8360
 0.8250	51.8350
 0.8260	51.8280
 0.8270	51.8100
 0.8280	51.7950
 0.8290	51.7900
 0.8300	51.7890
 0.8310	51.7860
 0.8320	51.7890
 0.8330	51.7850
 0.8340	51.7720
 0.8350	51.7580
 0.8360	51.7520
 0.8370	51.7510
 0.8380	51.7530
 0.8390	51.7550
 0.8400	51.7390
 0.8410	51.7520
 0.8420	51.7890
 0.8430	51.7690
 0.8440	51.7530
 0.8450	51.7510
 0.8460	51.7620
 0.8470	51.7860
 0.8480	51.7890
 0.8490	51.7810
 0.8500	51.7820
 0.8510	51.7790
 0.8520	51.7820
 0.8530	51.7920
 0.8540	51.8010
 0.8550	51.8230
 0.8560	51.8280
 0.8570	51.8200
 0.8580	51.8400
 0.8590	51.8500
 0.8600	51.8470
 0.8610	51.8450
 0.8620	51.8680
 0.8630	51.8840
 0.8640	51.8840
 0.8650	51.8760
 0.8660	51.8910
 0.8670	51.8980
 0.8680	51.8980
 0.8690	51.9020
 0.8700	51.9180
 0.8710	51.9280
 0.8720	51.9300
 0.8730	51.9280
 0.8740	51.9500
 0.8750	51.9820
 0.8760	52.0010
 0.8770	51.9920
 0.8780	51.9760
 0.8790	51.9810
 0.8800	52.0100
 0.8810	52.0270
 0.8820	52.0240
 0.8830	52.0200
 0.8840	52.0270
 0.8850	52.0250
 0.8860	52.0360
 0.8870	52.0530
 0.8880	52.0670
 0.8890	52.0790
 0.8900	52.0780
 0.8910	52.0770
 0.8920	52.0900
 0.8930	52.0970
 0.8940	52.1140
 0.8950	52.1280
 0.8960	52.1140
 0.8970	52.1050
 0.8980	52.1150
 0.8990	52.1350
 0.9000	52.1380
 0.9010	52.1380
 0.9020	52.1400
 0.9030	52.1450
 0.9040	52.1450
 0.9050	52.1600
 0.9060	52.1770
 0.9070	52.1810
 0.9080	52.1650
 0.9090	52.1880
 0.9100	52.2140
 0.9110	52.2040
 0.9120	52.1790
 0.9130	52.1720
 0.9140	52.1890
 0.9150	52.2130
 0.9160	52.1970
 0.9170	52.1820
 0.9180	52.1840
 0.9190	52.1930
 0.9200	52.1700
 0.9210	52.1830
 0.9220	52.2150
 0.9230	52.2020
 0.9240	52.1780
 0.9250	52.1560
 0.9260	52.1450
 0.9270	52.1410
 0.9280	52.1060
 0.9290	52.0730
 0.9300	52.0560
 0.9310	52.0390
 0.9320	52.0050
 0.9330	51.9780
 0.9340	51.9550
 0.9350	51.8960
 0.9360	51.8620
 0.9370	51.8420
 0.9380	51.8120
 0.9390	51.7520
 0.9400	51.7150
 0.9410	51.6760
 0.9420	51.6290
 0.9430	51.6230
 0.9440	51.5370
 0.9450	51.4440
 0.9460	51.4020
 0.9470	51.3500
 0.9480	51.2910
 0.9490	51.2260
 0.9500	51.1490
 0.9510	51.0300
 0.9520	50.9110
 0.9530	50.8000
 0.9540	50.7020
 0.9550	50.6430
 0.9560	50.5560
 0.9570	50.4580
 0.9580	50.3760
 0.9590	50.2660
 0.9600	50.1940
 0.9610	50.1380
 0.9620	50.0640
 0.9630	50.0230
 0.9640	49.9920
 0.9650	49.9500
 0.9660	49.8920
 0.9670	49.8650
 0.9680	49.8320
 0.9690	49.8100
 0.9700	49.8230
 0.9710	49.8270
 0.9720	49.8230
 0.9730	49.8080
 0.9740	49.7820
 0.9750	49.7630
 0.9760	49.7730
 0.9770	49.7910
 0.9780	49.7890
 0.9790	49.8190
 0.9800	49.7900
 0.9810	49.7610
 0.9820	49.8270
 0.9830	49.8350
 0.9840	49.8450
 0.9850	49.8740
 0.9860	49.9070
 0.9870	49.9380
 0.9880	49.9330
 0.9890	49.9190
 0.9900	49.9450
 0.9910	50.0040
 0.9920	50.0900
 0.9930	50.1750
 0.9940	50.2600
 0.9950	50.3460
 0.9960	50.4310
 0.9970	50.5160
 0.9980	50.6020
 0.9990	50.6870
 1.0000	50.7720
 1.0010	50.8580
 1.0020	50.9430
 1.0030	51.0280
 1.0040	51.1140
 1.0050	51.1990
 1.0060	51.2840
 1.0070	51.3700
 1.0080	51.4550
 1.0090	51.5400
 1.0100	51.5400
 1.0110	51.5640
 1.0120	51.5990
 1.0130	51.6450
 1.0140	51.6890
 1.0150	51.7400
 1.0160	51.7840
 1.0170	51.8320
 1.0180	51.8650
 1.0190	51.8810
 1.0200	51.9130
 1.0210	51.9490
 1.0220	51.9860
 1.0230	52.0240
 1.0240	52.0700
 1.0250	52.1080
 1.0260	52.1430
 1.0270	52.1750
 1.0280	52.2060
 1.0290	52.2400
 1.0300	52.2700
 1.0310	52.3040
 1.0320	52.3470
 1.0330	52.3870
 1.0340	52.4240
 1.0350	52.4520
 1.0360	52.4790
 1.0370	52.5090
 1.0380	52.5400
 1.0390	52.5750
 1.0400	52.6050
 1.0410	52.6370
 1.0420	52.6590
 1.0430	52.6710
 1.0440	52.6880
 1.0450	52.6990
 1.0460	52.7170
 1.0470	52.7430
 1.0480	52.7660
 1.0490	52.7890
 1.0500	52.8130
 1.0510	52.8400
 1.0520	52.8600
 1.0530	52.8840
 1.0540	52.9080
 1.0550	52.9330
 1.0560	52.9630
 1.0570	52.9830
 1.0580	52.9990
 1.0590	53.0150
 1.0600	53.0280
 1.0610	53.0350
 1.0620	53.0340
 1.0630	53.0440
 1.0640	53.0550
 1.0650	53.0630
 1.0660	53.0790
 1.0670	53.0910
 1.0680	53.1010
 1.0690	53.1020
 1.0700	53.1110
 1.0710	53.1280
 1.0720	53.1340
 1.0730	53.1330
 1.0740	53.1390
 1.0750	53.1450
 1.0760	53.1480
 1.0770	53.1560
 1.0780	53.1570
 1.0790	53.1430
 1.0800	53.1400
 1.0810	53.1450
 1.0820	53.1410
 1.0830	53.1340
 1.0840	53.1290
 1.0850	53.1230
 1.0860	53.1100
 1.0870	53.1000
 1.0880	53.0910
 1.0890	53.0850
 1.0900	53.0790
 1.0910	53.0690
 1.0920	53.0620
 1.0930	53.0520
 1.0940	53.0350
 1.0950	53.0220
 1.0960	53.0140
 1.0970	53.0010
 1.0980	52.9800
 1.0990	52.9660
 1.1000	52.9590
 1.1010	52.9420
 1.1020	52.9270
 1.1030	52.9050
 1.1040	52.8780
 1.1050	52.8530
 1.1060	52.8300
 1.1070	52.8120
 1.1080	52.7880
 1.1090	52.7610
 1.1100	52.7340
 1.1110	52.7060
 1.1120	52.6760
 1.1130	52.6470
 1.1140	52.6140
 1.1150	52.5750
 1.1160	52.5390
 1.1170	52.5050
 1.1180	52.4650
 1.1190	52.4250
 1.1200	52.3810
 1.1210	52.3280
 1.1220	52.2750
 1.1230	52.2120
 1.1240	52.1380
 1.1250	52.0560
 1.1260	51.9660
 1.1270	51.8680
 1.1280	51.7650
 1.1290	51.6500
 1.1300	51.5280
 1.1310	51.3920
 1.1320	51.2430
 1.1330	51.0860
 1.1340	50.9180
 1.1350	50.7410
 1.1360	50.5560
 1.1370	50.3610
 1.1380	50.1600
 1.1390	49.9480
 1.1400	49.7270
 1.1410	49.5050
 1.1420	49.2790
 1.1430	49.0560
 1.1440	48.8340
 1.1450	48.6120
 1.1460	48.3970
 1.1470	48.1800
 1.1480	47.9790
 1.1490	47.7830
 1.1500	47.6030
 1.1510	47.4360
 1.1520	47.2800
 1.1530	47.1340
 1.1540	47.0010
 1.1550	46.8800
 1.1560	46.7680
 1.1570	46.6720
 1.1580	46.5900
 1.1590	46.5180
 1.1600	46.4580
 1.1610	46.4040
 1.1620	46.3500
 1.1630	46.3030
 1.1640	46.2610
 1.1650	46.2230
 1.1660	46.1900
 1.1670	46.1650
 1.1680	46.1460
 1.1690	46.1260
 1.1700	46.1150
 1.1710	46.0990
 1.1720	46.0810
 1.1730	46.0630
 1.1740	46.0450
 1.1750	46.0230
 1.1760	46.0010
 1.1770	45.9810
 1.1780	45.9580
 1.1790	45.9380
 1.1800	45.9150
 1.1810	45.8920
 1.1820	45.8700
 1.1830	45.8430
 1.1840	45.8200
 1.1850	45.8010
 1.1860	45.7820
 1.1870	45.7620
 1.1880	45.7450
 1.1890	45.7270
 1.1900	45.7120
 1.1910	45.7000
 1.1920	45.6910
 1.1930	45.6820
 1.1940	45.6770
 1.1950	45.6770
 1.1960	45.6770
 1.1970	45.6780
 1.1980	45.6860
 1.1990	45.6950
 1.2000	45.7070
 1.2010	45.7230
 1.2020	45.7400
 1.2030	45.7580
 1.2040	45.7800
 1.2050	45.8040
 1.2060	45.8310
 1.2070	45.8590
 1.2080	45.8830
 1.2090	45.9100
 1.2100	45.9400
 1.2110	45.9720
 1.2120	46.0040
 1.2130	46.0410
 1.2140	46.0800
 1.2150	46.1230
 1.2160	46.1710
 1.2170	46.2160
 1.2180	46.2650
 1.2190	46.3160
 1.2200	46.3650
 1.2210	46.4130
 1.2220	46.4580
 1.2230	46.5060
 1.2240	46.5580
 1.2250	46.6070
 1.2260	46.6620
 1.2270	46.7160
 1.2280	46.7570
 1.2290	46.8020
 1.2300	46.8490
 1.2310	46.8930
 1.2320	46.9380
 1.2330	46.9790
 1.2340	47.0190
 1.2350	47.0540
 1.2360	47.0900
 1.2370	47.1210
 1.2380	47.1580
 1.2390	47.1990
 1.2400	47.2350
 1.2410	47.2760
 1.2420	47.3160
 1.2430	47.3490
 1.2440	47.3800
 1.2450	47.4060
 1.2460	47.4320
 1.2470	47.4570
 1.2480	47.4820
 1.2490	47.5100
 1.2500	47.5340
 1.2510	47.5620
 1.2520	47.5910
 1.2530	47.6120
 1.2540	47.6300
 1.2550	47.6440
 1.2560	47.6530
 1.2570	47.6650
 1.2580	47.6760
 1.2590	47.6850
 1.2600	47.6950
 1.2610	47.7030
 1.2620	47.7090
 1.2630	47.7130
 1.2640	47.7190
 1.2650	47.7200
 1.2660	47.7140
 1.2670	47.7120
 1.2680	47.7100
 1.2690	47.7070
 1.2700	47.7070
 1.2710	47.7050
 1.2720	47.7010
 1.2730	47.6890
 1.2740	47.6750
 1.2750	47.6640
 1.2760	47.6500
 1.2770	47.6350
 1.2780	47.6240
 1.2790	47.6070
 1.2800	47.5850
 1.2810	47.5640
 1.2820	47.5410
 1.2830	47.5180
 1.2840	47.4960
 1.2850	47.4640
 1.2860	47.4240
 1.2870	47.3850
 1.2880	47.3410
 1.2890	47.2960
 1.2900	47.2570
 1.2910	47.2180
 1.2920	47.1690
 1.2930	47.1130
 1.2940	47.0510
 1.2950	46.9880
 1.2960	46.9250
 1.2970	46.8540
 1.2980	46.7800
 1.2990	46.7040
 1.3000	46.6220
 1.3010	46.5390
 1.3020	46.4510
 1.3030	46.3560
 1.3040	46.2600
 1.3050	46.1640
 1.3060	46.0590
 1.3070	45.9490
 1.3080	45.8370
 1.3090	45.7170
 1.3100	45.5980
 1.3110	45.4780
 1.3120	45.3480
 1.3130	45.2170
 1.3140	45.0820
 1.3150	44.9420
 1.3160	44.7960
 1.3170	44.6480
 1.3180	44.4940
 1.3190	44.3300
 1.3200	44.1630
 1.3210	43.9910
 1.3220	43.8160
 1.3230	43.6400
 1.3240	43.4600
 1.3250	43.2770
 1.3260	43.0940
 1.3270	42.9080
 1.3280	42.7200
 1.3290	42.5280
 1.3300	42.3340
 1.3310	42.1340
 1.3320	41.9300
 1.3330	41.7330
 1.3340	41.5320
 1.3350	41.3290
 1.3360	41.1340
 1.3370	40.9350
 1.3380	40.7330
 1.3390	40.5360
 1.3400	40.3380
 1.3410	40.1390
 1.3420	39.9450
 1.3430	39.7600
 1.3440	39.5760
 1.3450	39.3920
 1.3460	39.2100
 1.3470	39.0300
 1.3480	38.8480
 1.3490	38.6700
 1.3500	38.4970
 1.3510	38.3240
 1.3520	38.1520
 1.3530	37.9780
 1.3540	37.8050
 1.3550	37.6330
 1.3560	37.4580
 1.3570	37.2850
 1.3580	37.1150
 1.3590	36.9390
 1.3600	36.7630
 1.3610	36.5810
 1.3620	36.3880
 1.3630	36.1930
 1.3640	35.9920
 1.3650	35.7850
 1.3660	35.5740
 1.3670	35.3530
 1.3680	35.1180
 1.3690	34.8720
 1.3700	34.6090
 1.3710	34.3350
 1.3720	34.0450
 1.3730	33.7330
 1.3740	33.4070
 1.3750	33.0610
 1.3760	32.6920
 1.3770	32.3030
 1.3780	31.8850
 1.3790	31.4460
 1.3800	30.9900
 1.3810	30.5130
 1.3820	30.0220
 1.3830	29.5160
 1.3840	28.9950
 1.3850	28.4530
 1.3860	27.9070
 1.3870	27.3440
 1.3880	26.7880
 1.3890	26.2270
 1.3900	25.6650
 1.3910	25.1130
 1.3920	24.5600
 1.3930	24.0080
 1.3940	23.4670
 1.3950	22.9290
 1.3960	22.4050
 1.3970	21.9000
 1.3980	21.4100
 1.3990	20.9450
 1.4000	20.4970
 1.4010	20.0640
 1.4020	19.6540
 1.4030	19.2640
 1.4040	18.8960
 1.4050	18.5520
 1.4060	18.2270
 1.4070	17.9230
 1.4080	17.6360
 1.4090	17.3660
 1.4100	17.1180
 1.4110	16.8870
 1.4120	16.6740
 1.4130	16.4790
 1.4140	16.2980
 1.4150	16.1330
 1.4160	15.9810
 1.4170	15.8410
 1.4180	15.7140
 1.4190	15.5960
 1.4200	15.4890
 1.4210	15.3910
 1.4220	15.3020
 1.4230	15.2210
 1.4240	15.1480
 1.4250	15.0820
 1.4260	15.0260
 1.4270	14.9720
 1.4280	14.9230
 1.4290	14.8800
 1.4300	14.8410
 1.4310	14.8080
 1.4320	14.7830
 1.4330	14.7590
 1.4340	14.7380
 1.4350	14.7220
 1.4360	14.7100
 1.4370	14.7020
 1.4380	14.6990
 1.4390	14.6990
 1.4400	14.7010
 1.4410	14.7030
 1.4420	14.7060
 1.4430	14.7110
 1.4440	14.7190
 1.4450	14.7280
 1.4460	14.7390
 1.4470	14.7520
 1.4480	14.7660
 1.4490	14.7820
 1.4500	14.7990
 1.4510	14.8160
 1.4520	14.8350
 1.4530	14.8550
 1.4540	14.8750
 1.4550	14.8980
 1.4560	14.9220
 1.4570	14.9500
 1.4580	14.9780
 1.4590	15.0090
 1.4600	15.0430
 1.4610	15.0800
 1.4620	15.1200
 1.4630	15.1630
 1.4640	15.2110
 1.4650	15.2620
 1.4660	15.3170
 1.4670	15.3760
 1.4680	15.4400
 1.4690	15.5070
 1.4700	15.5770
 1.4710	15.6520
 1.4720	15.7280
 1.4730	15.8070
 1.4740	15.8910
 1.4750	15.9770
 1.4760	16.0660
 1.4770	16.1590
 1.4780	16.2520
 1.4790	16.3490
 1.4800	16.4480
 1.4810	16.5470
 1.4820	16.6490
 1.4830	16.7510
 1.4840	16.8530
 1.4850	16.9580
 1.4860	17.0610
 1.4870	17.1650
 1.4880	17.2700
 1.4890	17.3760
 1.4900	17.4830
 1.4910	17.5900
 1.4920	17.6980
 1.4930	17.8060
 1.4940	17.9170
 1.4950	18.0310
 1.4960	18.1450
 1.4970	18.2600
 1.4980	18.3740
 1.4990	18.4840
 1.5000	18.5980
 1.5010	18.7130
 1.5020	18.8280
 1.5030	18.9460
 1.5040	19.0610
 1.5050	19.1730
 1.5060	19.2870
 1.5070	19.4030
 1.5080	19.5180
 1.5090	19.6330
 1.5100	19.7480
 1.5110	19.8620
 1.5120	19.9760
 1.5130	20.0890
 1.5140	20.2010
 1.5150	20.3140
 1.5160	20.4270
 1.5170	20.5400
 1.5180	20.6530
 1.5190	20.7660
 1.5200	20.8780
 1.5210	20.9860
 1.5220	21.0960
 1.5230	21.2060
 1.5240	21.3130
 1.5250	21.4220
 1.5260	21.5300
 1.5270	21.6340
 1.5280	21.7400
 1.5290	21.8450
 1.5300	21.9490
 1.5310	22.0550
 1.5320	22.1590
 1.5330	22.2610
 1.5340	22.3670
 1.5350	22.4670
 1.5360	22.5700
 1.5370	22.6750
 1.5380	22.7740
 1.5390	22.8750
 1.5400	22.9780
 1.5410	23.0760
 1.5420	23.1750
 1.5430	23.2700
 1.5440	23.3660
 1.5450	23.4620
 1.5460	23.5580
 1.5470	23.6580
 1.5480	23.7550
 1.5490	23.8470
 1.5500	23.9390
 1.5510	24.0300
 1.5520	24.1190
 1.5530	24.2090
 1.5540	24.2980
 1.5550	24.3880
 1.5560	24.4760
 1.5570	24.5650
 1.5580	24.6550
 1.5590	24.7400
 1.5600	24.8250
 1.5610	24.9090
 1.5620	24.9900
 1.5630	25.0720
 1.5640	25.1560
 1.5650	25.2410
 1.5660	25.3240
 1.5670	25.4050
 1.5680	25.4830
 1.5690	25.5600
 1.5700	25.6400
 1.5710	25.7200
 1.5720	25.8010
 1.5730	25.8830
 1.5740	25.9600
 1.5750	26.0380
 1.5760	26.1150
 1.5770	26.1890
 1.5780	26.2680
 1.5790	26.3440
 1.5800	26.4220
 1.5810	26.5010
 1.5820	26.5710
 1.5830	26.6430
 1.5840	26.7160
 1.5850	26.7870
 1.5860	26.8610
 1.5870	26.9330
 1.5880	27.0030
 1.5890	27.0760
 1.5900	27.1460
 1.5910	27.2140
 1.5920	27.2840
 1.5930	27.3510
 1.5940	27.4210
 1.5950	27.4910
 1.5960	27.5580
 1.5970	27.6270
 1.5980	27.6950
 1.5990	27.7660
 1.6000	27.8410
 1.6010	27.9130
 1.6020	27.9840
 1.6030	28.0530
 1.6040	28.1150
 1.6050	28.1750
 1.6060	28.2370
 1.6070	28.2990
 1.6080	28.3630
 1.6090	28.4250
 1.6100	28.4840
 1.6110	28.5420
 1.6120	28.5990
 1.6130	28.6540
 1.6140	28.7120
 1.6150	28.7700
 1.6160	28.8260
 1.6170	28.8840
 1.6180	28.9370
 1.6190	28.9860
 1.6200	29.0290
 1.6210	29.0680
 1.6220	29.1060
 1.6230	29.1440
 1.6240	29.1830
 1.6250	29.2190
 1.6260	29.2540
 1.6270	29.2890
 1.6280	29.3200
 1.6290	29.3550
 1.6300	29.3930
 1.6310	29.4290
 1.6320	29.4630
 1.6330	29.5000
 1.6340	29.5380
 1.6350	29.5760
 1.6360	29.6200
 1.6370	29.6590
 1.6380	29.6970
 1.6390	29.7340
 1.6400	29.7680
 1.6410	29.8000
 1.6420	29.8310
 1.6430	29.8590
 1.6440	29.8830
 1.6450	29.9070
 1.6460	29.9250
 1.6470	29.9390
 1.6480	29.9490
 1.6490	29.9570
 1.6500	29.9600
 1.6510	29.9640
 1.6520	29.9700
 1.6530	29.9710
 1.6540	29.9690
 1.6550	29.9680
 1.6560	29.9630
 1.6570	29.9560
 1.6580	29.9490
 1.6590	29.9370
 1.6600	29.9230
 1.6610	29.9090
 1.6620	29.8910
 1.6630	29.8740
 1.6640	29.8560
 1.6650	29.8380
 1.6660	29.8210
 1.6670	29.8040
 1.6680	29.7860
 1.6690	29.7630
 1.6700	29.7390
 1.6710	29.7190
 1.6720	29.6990
 1.6730	29.6830
 1.6740	29.6680
 1.6750	29.6480
 1.6760	29.6270
 1.6770	29.6040
 1.6780	29.5740
 1.6790	29.5460
 1.6800	29.5180
 1.6810	29.4890
 1.6820	29.4610
 1.6830	29.4270
 1.6840	29.3860
 1.6850	29.3430
 1.6860	29.2970
 1.6870	29.2500
 1.6880	29.2020
 1.6890	29.1500
 1.6900	29.0990
 1.6910	29.0480
 1.6920	28.9990
 1.6930	28.9490
 1.6940	28.9030
 1.6950	28.8600
 1.6960	28.8140
 1.6970	28.7700
 1.6980	28.7240
 1.6990	28.6750
 1.7000	28.6260
 1.7010	28.5770
 1.7020	28.5260
 1.7030	28.4720
 1.7040	28.4200
 1.7050	28.3710
 1.7060	28.3160
 1.7070	28.2590
 1.7080	28.2050
 1.7090	28.1470
 1.7100	28.0920
 1.7110	28.0430
 1.7120	27.9880
 1.7130	27.9290
 1.7140	27.8730
 1.7150	27.8170
 1.7160	27.7610
 1.7170	27.7100
 1.7180	27.6540
 1.7190	27.5980
 1.7200	27.5470
 1.7210	27.4950
 1.7220	27.4400
 1.7230	27.3840
 1.7240	27.3230
 1.7250	27.2610
 1.7260	27.2080
 1.7270	27.1580
 1.7280	27.1080
 1.7290	27.0600
 1.7300	27.0110
 1.7310	26.9670
 1.7320	26.9260
 1.7330	26.8880
 1.7340	26.8560
 1.7350	26.8200
 1.7360	26.7890
 1.7370	26.7510
 1.7380	26.7080
 1.7390	26.6630
 1.7400	26.6130
 1.7410	26.5610
 1.7420	26.5080
 1.7430	26.4520
 1.7440	26.3930
 1.7450	26.3360
 1.7460	26.2760
 1.7470	26.2170
 1.7480	26.1600
 1.7490	26.1010
 1.7500	26.0410
 1.7510	25.9810
 1.7520	25.9200
 1.7530	25.8570
 1.7540	25.7920
 1.7550	25.7260
 1.7560	25.6630
 1.7570	25.6050
 1.7580	25.5450
 1.7590	25.4890
 1.7600	25.4340
 1.7610	25.3800
 1.7620	25.3290
 1.7630	25.2810
 1.7640	25.2310
 1.7650	25.1790
 1.7660	25.1300
 1.7670	25.0780
 1.7680	25.0310
 1.7690	24.9890
 1.7700	24.9470
 1.7710	24.9060
 1.7720	24.8670
 1.7730	24.8280
 1.7740	24.7930
 1.7750	24.7620
 1.7760	24.7310
 1.7770	24.7020
 1.7780	24.6730
 1.7790	24.6430
 1.7800	24.6150
 1.7810	24.5860
 1.7820	24.5620
 1.7830	24.5400
 1.7840	24.5250
 1.7850	24.5160
 1.7860	24.5060
 1.7870	24.5000
 1.7880	24.4910
 1.7890	24.4820
 1.7900	24.4720
 1.7910	24.4640
 1.7920	24.4560
 1.7930	24.4480
 1.7940	24.4400
 1.7950	24.4340
 1.7960	24.4250
 1.7970	24.4240
 1.7980	24.4290
 1.7990	24.4350
 1.8000	24.4480
 1.8010	24.4560
 1.8020	24.4610
 1.8030	24.4660
 1.8040	24.4710
 1.8050	24.4770
 1.8060	24.4880
 1.8070	24.4900
 1.8080	24.4890
 1.8090	24.4870
 1.8100	24.4790
 1.8110	24.4740
 1.8120	24.4720
 1.8130	24.4720
 1.8140	24.4690
 1.8150	24.4720
 1.8160	24.4760
 1.8170	24.4730
 1.8180	24.4700
 1.8190	24.4680
 1.8200	24.4660
 1.8210	24.4740
 1.8220	24.4700
 1.8230	24.4580
 1.8240	24.4450
 1.8250	24.4210
 1.8260	24.4050
 1.8270	24.3500
 1.8280	24.2950
 1.8290	24.2400
 1.8300	24.1860
 1.8310	24.1310
 1.8320	24.0760
 1.8330	24.0210
 1.8340	23.9660
 1.8350	23.9660
 1.8360	23.9300
 1.8370	23.8820
 1.8380	23.8290
 1.8390	23.7720
 1.8400	23.7080
 1.8410	23.6450
 1.8420	23.5830
 1.8430	23.5110
 1.8440	23.4330
 1.8450	23.3470
 1.8460	23.2450
 1.8470	23.1340
 1.8480	23.0110
 1.8490	22.8760
 1.8500	22.7380
 1.8510	22.5930
 1.8520	22.4460
 1.8530	22.2870
 1.8540	22.1160
 1.8550	21.9340
 1.8560	21.7310
 1.8570	21.5110
 1.8580	21.2830
 1.8590	21.0440
 1.8600	20.7900
 1.8610	20.5260
 1.8620	20.2650
 1.8630	19.9990
 1.8640	19.7130
 1.8650	19.4110
 1.8660	19.0940
 1.8670	18.7500
 1.8680	18.3960
 1.8690	18.0380
 1.8700	17.6630
 1.8710	17.2720
 1.8720	16.8760
 1.8730	16.4780
 1.8740	16.0750
 1.8750	15.6750
 1.8760	15.2680
 1.8770	14.8640
 1.8780	14.4600
 1.8790	14.0530
 1.8800	13.6600
 1.8810	13.2770
 1.8820	12.8970
 1.8830	12.5190
 1.8840	12.1530
 1.8850	11.7950
 1.8860	11.4490
 1.8870	11.1200
 1.8880	10.8030
 1.8890	10.4960
 1.8900	10.2000
 1.8910	 9.9220
 1.8920	 9.6560
 1.8930	 9.4090
 1.8940	 9.1760
 1.8950	 8.9600
 1.8960	 8.7590
 1.8970	 8.5740
 1.8980	 8.4080
 1.8990	 8.2610
 1.9000	 8.1210
 1.9010	 7.9970
 1.9020	 7.8800
 1.9030	 7.7730
 1.9040	 7.6770
 1.9050	 7.5900
 1.9060	 7.5140
 1.9070	 7.4470
 1.9080	 7.3880
 1.9090	 7.3340
 1.9100	 7.2900
 1.9110	 7.2460
 1.9120	 7.2090
 1.9130	 7.1730
 1.9140	 7.1400
 1.9150	 7.1080
 1.9160	 7.0770
 1.9170	 7.0530
 1.9180	 7.0350
 1.9190	 7.0200
 1.9200	 7.0110
 1.9210	 7.0010
 1.9220	 6.9930
 1.9230	 6.9860
 1.9240	 6.9840
 1.9250	 6.9830
 1.9260	 6.9910
 1.9270	 7.0030
 1.9280	 7.0090
 1.9290	 7.0170
 1.9300	 7.0260
 1.9310	 7.0320
 1.9320	 7.0400
 1.9330	 7.0500
 1.9340	 7.0610
 1.9350	 7.0720
 1.9360	 7.0850
 1.9370	 7.1000
 1.9380	 7.1150
 1.9390	 7.1370
 1.9400	 7.1530
 1.9410	 7.1760
 1.9420	 7.2020
 1.9430	 7.2210
 1.9440	 7.2460
 1.9450	 7.2790
 1.9460	 7.3070
 1.9470	 7.3380
 1.9480	 7.3650
 1.9490	 7.3910
 1.9500	 7.4150
 1.9510	 7.4400
 1.9520	 7.4620
 1.9530	 7.4900
 1.9540	 7.5180
 1.9550	 7.5470
 1.9560	 7.5780
 1.9570	 7.6100
 1.9580	 7.6470
 1.9590	 7.6810
 1.9600	 7.7130
 1.9610	 7.7490
 1.9620	 7.7850
 1.9630	 7.8230
 1.9640	 7.8610
 1.9650	 7.9000
 1.9660	 7.9380
 1.9670	 7.9750
 1.9680	 8.0140
 1.9690	 8.0550
 1.9700	 8.0950
 1.9710	 8.1360
 1.9720	 8.1770
 1.9730	 8.2180
 1.9740	 8.2570
 1.9750	 8.2990
 1.9760	 8.3460
 1.9770	 8.3920
 1.9780	 8.4400
 1.9790	 8.4880
 1.9800	 8.5380
 1.9810	 8.5860
 1.9820	 8.6330
 1.9830	 8.6790
 1.9840	 8.7240
 1.9850	 8.7710
 1.9860	 8.8190
 1.9870	 8.8670
 1.9880	 8.9160
 1.9890	 8.9650
 1.9900	 9.0150
 1.9910	 9.0700
 1.9920	 9.1230
 1.9930	 9.1810
 1.9940	 9.2350
 1.9950	 9.2860
 1.9960	 9.3370
 1.9970	 9.3860
 1.9980	 9.4350
 1.9990	 9.4820
 2.0000	 9.5320
 2.0010	 9.5810
 2.0020	 9.6350
 2.0030	 9.6900
 2.0040	 9.7420
 2.0050	 9.7950
 2.0060	 9.8470
 2.0070	 9.9010
 2.0080	 9.9590
 2.0090	10.0130
 2.0100	10.0660
 2.0110	10.1180
 2.0120	10.1690
 2.0130	10.2170
 2.0140	10.2660
 2.0150	10.3160
 2.0160	10.3590
 2.0170	10.4060
 2.0180	10.4540
 2.0190	10.5030
 2.0200	10.5510
 2.0210	10.5990
 2.0220	10.6470
 2.0230	10.6960
 2.0240	10.7430
 2.0250	10.7900
 2.0260	10.8350
 2.0270	10.8780
 2.0280	10.9180
 2.0290	10.9600
 2.0300	11.0080
 2.0310	11.0480
 2.0320	11.0850
 2.0330	11.1220
 2.0340	11.1540
 2.0350	11.1860
 2.0360	11.2150
 2.0370	11.2490
 2.0380	11.2860
 2.0390	11.3230
 2.0400	11.3690
 2.0410	11.4070
 2.0420	11.4360
 2.0430	11.4650
 2.0440	11.4970
 2.0450	11.5240
 2.0460	11.5610
 2.0470	11.6090
 2.0480	11.6470
 2.0490	11.6850
 2.0500	11.7210
 2.0510	11.7490
 2.0520	11.7810
 2.0530	11.8160
 2.0540	11.8490
 2.0550	11.8830
 2.0560	11.9130
 2.0570	11.9430
 2.0580	11.9730
 2.0590	12.0030
 2.0600	12.0320
 2.0610	12.0640
 2.0620	12.0980
 2.0630	12.1320
 2.0640	12.1690
 2.0650	12.2040
 2.0660	12.2350
 2.0670	12.2720
 2.0680	12.3130
 2.0690	12.3510
 2.0700	12.3930
 2.0710	12.4300
 2.0720	12.4620
 2.0730	12.4920
 2.0740	12.5230
 2.0750	12.5520
 2.0760	12.5850
 2.0770	12.6230
 2.0780	12.6540
 2.0790	12.6850
 2.0800	12.7140
 2.0810	12.7330
 2.0820	12.7620
 2.0830	12.7970
 2.0840	12.8300
 2.0850	12.8690
 2.0860	12.9020
 2.0870	12.9300
 2.0880	12.9590
 2.0890	12.9890
 2.0900	13.0170
 2.0910	13.0480
 2.0920	13.0810
 2.0930	13.1120
 2.0940	13.1440
 2.0950	13.1770
 2.0960	13.2100
 2.0970	13.2450
 2.0980	13.2860
 2.0990	13.3210
 2.1000	13.3580
 2.1010	13.3900
 2.1020	13.4160
 2.1030	13.4420
 2.1040	13.4620
 2.1050	13.4830
 2.1060	13.5090
 2.1070	13.5340
 2.1080	13.5660
 2.1090	13.6090
 2.1100	13.6420
 2.1110	13.6760
 2.1120	13.7080
 2.1130	13.7370
 2.1140	13.7670
 2.1150	13.8000
 2.1160	13.8270
 2.1170	13.8470
 2.1180	13.8720
 2.1190	13.8940
 2.1200	13.9200
 2.1210	13.9510
 2.1220	13.9830
 2.1230	14.0110
 2.1240	14.0380
 2.1250	14.0680
 2.1260	14.1020
 2.1270	14.1270
 2.1280	14.1510
 2.1290	14.1750
 2.1300	14.1920
 2.1310	14.2140
 2.1320	14.2430
 2.1330	14.2660
 2.1340	14.2830
 2.1350	14.3030
 2.1360	14.3200
 2.1370	14.3400
 2.1380	14.3630
 2.1390	14.3870
 2.1400	14.4140
 2.1410	14.4440
 2.1420	14.4690
 2.1430	14.4940
 2.1440	14.5200
 2.1450	14.5440
 2.1460	14.5690
 2.1470	14.5960
 2.1480	14.6200
 2.1490	14.6380
 2.1500	14.6610
 2.1510	14.6860
 2.1520	14.7090
 2.1530	14.7340
 2.1540	14.7550
 2.1550	14.7690
 2.1560	14.7860
 2.1570	14.8050
 2.1580	14.8210
 2.1590	14.8350
 2.1600	14.8520
 2.1610	14.8660
 2.1620	14.8870
 2.1630	14.9050
 2.1640	14.9280
 2.1650	14.9450
 2.1660	14.9600
 2.1670	14.9740
 2.1680	14.9850
 2.1690	14.9970
 2.1700	15.0070
 2.1710	15.0230
 2.1720	15.0490
 2.1730	15.0650
 2.1740	15.0780
 2.1750	15.0940
 2.1760	15.0970
 2.1770	15.1140
 2.1780	15.1480
 2.1790	15.1710
 2.1800	15.1940
 2.1810	15.2160
 2.1820	15.2360
 2.1830	15.2480
 2.1840	15.2640
 2.1850	15.2830
 2.1860	15.2960
 2.1870	15.3030
 2.1880	15.3180
 2.1890	15.3360
 2.1900	15.3550
 2.1910	15.3810
 2.1920	15.4020
 2.1930	15.4220
 2.1940	15.4430
 2.1950	15.4690
 2.1960	15.4820
 2.1970	15.4840
 2.1980	15.4920
 2.1990	15.4930
 2.2000	15.4990
 2.2010	15.5120
 2.2020	15.5230
 2.2030	15.5340
 2.2040	15.5430
 2.2050	15.5510
 2.2060	15.5620
 2.2070	15.5690
 2.2080	15.5730
 2.2090	15.5780
 2.2100	15.5810
 2.2110	15.5840
 2.2120	15.5850
 2.2130	15.5860
 2.2140	15.5900
 2.2150	15.5890
 2.2160	15.5880
 2.2170	15.5820
 2.2180	15.5650
 2.2190	15.5580
 2.2200	15.5580
 2.2210	15.5470
 2.2220	15.5340
 2.2230	15.5220
 2.2240	15.5000
 2.2250	15.4870
 2.2260	15.4960
 2.2270	15.4820
 2.2280	15.4560
 2.2290	15.4320
 2.2300	15.3970
 2.2310	15.3590
 2.2320	15.3290
 2.2330	15.2990
 2.2340	15.2710
 2.2350	15.2440
 2.2360	15.2110
 2.2370	15.1800
 2.2380	15.1440
 2.2390	15.1020
 2.2400	15.0580
 2.2410	15.0100
 2.2420	14.9640
 2.2430	14.9110
 2.2440	14.8690
 2.2450	14.8430
 2.2460	14.7960
 2.2470	14.7390
 2.2480	14.6850
 2.2490	14.6180
 2.2500	14.5560
 2.2510	14.4970
 2.2520	14.4390
 2.2530	14.3810
 2.2540	14.3230
 2.2550	14.2750
 2.2560	14.2180
 2.2570	14.1490
 2.2580	14.0840
 2.2590	14.0110
 2.2600	13.9490
 2.2610	13.8910
 2.2620	13.8470
 2.2630	13.8020
 2.2640	13.7550
 2.2650	13.6970
 2.2660	13.6410
 2.2670	13.5900
 2.2680	13.5360
 2.2690	13.4930
 2.2700	13.4660
 2.2710	13.4210
 2.2720	13.3710
 2.2730	13.3280
 2.2740	13.2750
 2.2750	13.2380
 2.2760	13.2170
 2.2770	13.1890
 2.2780	13.1670
 2.2790	13.1360
 2.2800	13.0930
 2.2810	13.0630
 2.2820	13.0330
 2.2830	13.0050
 2.2840	12.9870
 2.2850	12.9650
 2.2860	12.9440
 2.2870	12.9150
 2.2880	12.8870
 2.2890	12.8510
 2.2900	12.8010
 2.2910	12.7580
 2.2920	12.7070
 2.2930	12.6680
 2.2940	12.6410
 2.2950	12.6090
 2.2960	12.5890
 2.2970	12.5590
 2.2980	12.5250
 2.2990	12.4810
 2.3000	12.4400
 2.3010	12.3910
 2.3020	12.3410
 2.3030	12.2950
 2.3040	12.2410
 2.3050	12.1890
 2.3060	12.1520
 2.3070	12.1160
 2.3080	12.0840
 2.3090	12.0630
 2.3100	12.0480
 2.3110	12.0240
 2.3120	11.9990
 2.3130	11.9750
 2.3140	11.9590
 2.3150	11.9400
 2.3160	11.9320
 2.3170	11.9460
 2.3180	11.9390
 2.3190	11.9220
 2.3200	11.9060
 2.3210	11.8780
 2.3220	11.8620
 2.3230	11.8530
 2.3240	11.8430
 2.3250	11.8420
 2.3260	11.8300
 2.3270	11.8170
 2.3280	11.7920
 2.3290	11.7520
 2.3300	11.7240
 2.3310	11.6940
 2.3320	11.6640
 2.3330	11.6450
 2.3340	11.6160
 2.3350	11.5790
 2.3360	11.5390
 2.3370	11.4930
 2.3380	11.4510
 2.3390	11.4050
 2.3400	11.3630
 2.3410	11.3200
 2.3420	11.2920
 2.3430	11.2790
 2.3440	11.2530
 2.3450	11.2270
 2.3460	11.2080
 2.3470	11.1810
 2.3480	11.1580
 2.3490	11.1570
 2.3500	11.1360
 2.3510	11.0910
 2.3520	11.0680
 2.3530	11.0550
 2.3540	11.0280
 2.3550	11.0190
 2.3560	11.0060
 2.3570	10.9730
 2.3580	10.9520
 2.3590	10.9270
 2.3600	10.9000
 2.3610	10.8950
 2.3620	10.8750
 2.3630	10.8580
 2.3640	10.8600
 2.3650	10.8230
 2.3660	10.7840
 2.3670	10.7690
 2.3680	10.7280
 2.3690	10.6810
 2.3700	10.6480
 2.3710	10.5960
 2.3720	10.5380
 2.3730	10.5020
 2.3740	10.4800
 2.3750	10.4610
 2.3760	10.4490
 2.3770	10.4370
 2.3780	10.4160
 2.3790	10.4060
 2.3800	10.3880
 2.3810	10.3660
 2.3820	10.3590
 2.3830	10.3270
 2.3840	10.2750
 2.3850	10.2190
 2.3860	10.1770
 2.3870	10.1400
 2.3880	10.1190
 2.3890	10.1270
 2.3900	10.0970
 2.3910	10.0590
 2.3920	10.0300
 2.3930	 9.9950
 2.3940	 9.9760
 2.3950	 9.9230
 2.3960	 9.8850
 2.3970	 9.8700
 2.3980	 9.8420
 2.3990	 9.8520
 2.4000	 9.8550
 2.4010	 9.8320
 2.4020	 9.8070
 2.4030	 9.7620
 2.4040	 9.7270
 2.4050	 9.6870
 2.4060	 9.6290
 2.4070	 9.5920
 2.4080	 9.5490
 2.4090	 9.4980
 2.4100	 9.4410
 2.4110	 9.3820
 2.4120	 9.3510
 2.4130	 9.3130
 2.4140	 9.3020
 2.4150	 9.3190
 2.4160	 9.3090
 2.4170	 9.3160
 2.4180	 9.2940
 2.4190	 9.2170
 2.4200	 9.1730
 2.4210	 9.1470
 2.4220	 9.1160
 2.4230	 9.1200
 2.4240	 9.1100
 2.4250	 9.0310
 2.4260	 8.9920
 2.4270	 8.9620
 2.4280	 8.9080
 2.4290	 8.9080
 2.4300	 8.8690
 2.4310	 8.8300
 2.4320	 8.8290
 2.4330	 8.7700
 2.4340	 8.7280
 2.4350	 8.7030
 2.4360	 8.6350
 2.4370	 8.6340
 2.4380	 8.6610
 2.4390	 8.6350
 2.4400	 8.6170
 2.4410	 8.5630
 2.4420	 8.5010
 2.4430	 8.4730
 2.4440	 8.4480
 2.4450	 8.4310
 2.4460	 8.3840
 2.4470	 8.3410
 2.4480	 8.3180
 2.4490	 8.2820
 2.4500	 8.2860
 2.4510	 8.2640
 2.4520	 8.2130
 2.4530	 8.2040
 2.4540	 8.1830
 2.4550	 8.1770
 2.4560	 8.1860
 2.4570	 8.1720
 2.4580	 8.1220
 2.4590	 8.0490
 2.4600	 7.9770
 2.4610	 7.9110
 2.4620	 7.8520
 2.4630	 7.8390
 2.4640	 7.8360
 2.4650	 7.8020
 2.4660	 7.8150
 2.4670	 7.7990
 2.4680	 7.7620
 2.4690	 7.7330
 2.4700	 7.7030
 2.4710	 7.6740
 2.4720	 7.6380
 2.4730	 7.5810
 2.4740	 7.5380
 2.4750	 7.4920
 2.4760	 7.4810
 2.4770	 7.5420
 2.4780	 7.5500
 2.4790	 7.5350
 2.4800	 7.5020
 2.4810	 7.4010
 2.4820	 7.3850
 2.4830	 7.3760
 2.4840	 7.4090
 2.4850	 7.4230
 2.4860	 7.3740
 2.4870	 7.3610
 2.4880	 7.3790
 2.4890	 7.3730
 2.4900	 7.4030
 2.4910	 7.4710
 2.4920	 7.4620
 2.4930	 7.4530
 2.4940	 7.4490
 2.4950	 7.3940
 2.4960	 7.4010
 2.4970	 7.3940
 2.4980	 7.3170
 2.4990	 7.2910
 2.5000	 7.2940
