Name: Quercus agrifolia 1
Type: vegetation
Class: Tree
Genus: Quercus
Species: agrifolia
Sample No.: VH075
Owner: UCSB
Wavelength Range: VSWIR
Origin: 34.7153; -120.0601; WGS84
Collection Date: 4/21/2013
Description: Samples were collected as part of the HyspIRI Airborne Campaign. 48 individual plants were sampled in three times in 2013 - spring  summer  and fall. The name of the sample includes a 1  2  or 3 which references a different individual of the species. Samples were taken to JPL and processed within 48 hours of collection. The same leaves were processed in the Nicolet and then measured using the ASD.
Measurement: Bidirectional reflectance
First Column: X
Second Column: Y
X Units: Wavelength (micrometers)
Y Units: Reflectance (percentage)
First X Value: 0.35
Last X Value: 2.5
Number of X Values: 2151
Additional Information: vegetation.tree.quercus.agrifolia.vswir.vh075.ucsb.asd.ancillary.txt

 0.3500	 3.3840
 0.3510	 3.5150
 0.3520	 3.4380
 0.3530	 3.3420
 0.3540	 3.4140
 0.3550	 3.3560
 0.3560	 3.2140
 0.3570	 3.1510
 0.3580	 3.3330
 0.3590	 3.4350
 0.3600	 3.4080
 0.3610	 3.3040
 0.3620	 3.2680
 0.3630	 3.2800
 0.3640	 3.2930
 0.3650	 3.2700
 0.3660	 3.2360
 0.3670	 3.2240
 0.3680	 3.2660
 0.3690	 3.3700
 0.3700	 3.3180
 0.3710	 3.1830
 0.3720	 3.1120
 0.3730	 3.3410
 0.3740	 3.3210
 0.3750	 3.1880
 0.3760	 3.2150
 0.3770	 3.1890
 0.3780	 3.2260
 0.3790	 3.2940
 0.3800	 3.2340
 0.3810	 3.1700
 0.3820	 3.1660
 0.3830	 3.2160
 0.3840	 3.1800
 0.3850	 3.1420
 0.3860	 3.1220
 0.3870	 3.1190
 0.3880	 3.1300
 0.3890	 3.1480
 0.3900	 3.1440
 0.3910	 3.0670
 0.3920	 3.1170
 0.3930	 3.1730
 0.3940	 3.1290
 0.3950	 3.0960
 0.3960	 3.1210
 0.3970	 3.1380
 0.3980	 3.0580
 0.3990	 3.0800
 0.4000	 3.0990
 0.4010	 3.0750
 0.4020	 3.0910
 0.4030	 3.1120
 0.4040	 3.1010
 0.4050	 3.0490
 0.4060	 3.0520
 0.4070	 3.0890
 0.4080	 3.1180
 0.4090	 3.0960
 0.4100	 3.1100
 0.4110	 3.1400
 0.4120	 3.1630
 0.4130	 3.1790
 0.4140	 3.1780
 0.4150	 3.1820
 0.4160	 3.2070
 0.4170	 3.2030
 0.4180	 3.1900
 0.4190	 3.1980
 0.4200	 3.2540
 0.4210	 3.2590
 0.4220	 3.2670
 0.4230	 3.3130
 0.4240	 3.3050
 0.4250	 3.2950
 0.4260	 3.3020
 0.4270	 3.3240
 0.4280	 3.3190
 0.4290	 3.3210
 0.4300	 3.3430
 0.4310	 3.3530
 0.4320	 3.3720
 0.4330	 3.3920
 0.4340	 3.4090
 0.4350	 3.4460
 0.4360	 3.4660
 0.4370	 3.4640
 0.4380	 3.4620
 0.4390	 3.4520
 0.4400	 3.4430
 0.4410	 3.4450
 0.4420	 3.4660
 0.4430	 3.4870
 0.4440	 3.5000
 0.4450	 3.5080
 0.4460	 3.5340
 0.4470	 3.5560
 0.4480	 3.5660
 0.4490	 3.5730
 0.4500	 3.5850
 0.4510	 3.5950
 0.4520	 3.6000
 0.4530	 3.6100
 0.4540	 3.6170
 0.4550	 3.6300
 0.4560	 3.6660
 0.4570	 3.6600
 0.4580	 3.6450
 0.4590	 3.6480
 0.4600	 3.6710
 0.4610	 3.6810
 0.4620	 3.6830
 0.4630	 3.6930
 0.4640	 3.6980
 0.4650	 3.6980
 0.4660	 3.6980
 0.4670	 3.7110
 0.4680	 3.7010
 0.4690	 3.6950
 0.4700	 3.7120
 0.4710	 3.7140
 0.4720	 3.7070
 0.4730	 3.7040
 0.4740	 3.7140
 0.4750	 3.7110
 0.4760	 3.7140
 0.4770	 3.7290
 0.4780	 3.7350
 0.4790	 3.7370
 0.4800	 3.7370
 0.4810	 3.7380
 0.4820	 3.7480
 0.4830	 3.7570
 0.4840	 3.7630
 0.4850	 3.7630
 0.4860	 3.7690
 0.4870	 3.7810
 0.4880	 3.7960
 0.4890	 3.8090
 0.4900	 3.8150
 0.4910	 3.8230
 0.4920	 3.8450
 0.4930	 3.8640
 0.4940	 3.8810
 0.4950	 3.8960
 0.4960	 3.9060
 0.4970	 3.9260
 0.4980	 3.9530
 0.4990	 3.9790
 0.5000	 4.0050
 0.5010	 4.0410
 0.5020	 4.0840
 0.5030	 4.1190
 0.5040	 4.1560
 0.5050	 4.2020
 0.5060	 4.2590
 0.5070	 4.3000
 0.5080	 4.3570
 0.5090	 4.4290
 0.5100	 4.5030
 0.5110	 4.5780
 0.5120	 4.6570
 0.5130	 4.7430
 0.5140	 4.8310
 0.5150	 4.9380
 0.5160	 5.0520
 0.5170	 5.1600
 0.5180	 5.2760
 0.5190	 5.3990
 0.5200	 5.5280
 0.5210	 5.6640
 0.5220	 5.7950
 0.5230	 5.9250
 0.5240	 6.0580
 0.5250	 6.1860
 0.5260	 6.3070
 0.5270	 6.4240
 0.5280	 6.5410
 0.5290	 6.6480
 0.5300	 6.7430
 0.5310	 6.8320
 0.5320	 6.9190
 0.5330	 7.0030
 0.5340	 7.0780
 0.5350	 7.1420
 0.5360	 7.2000
 0.5370	 7.2500
 0.5380	 7.2970
 0.5390	 7.3490
 0.5400	 7.3930
 0.5410	 7.4410
 0.5420	 7.4980
 0.5430	 7.5430
 0.5440	 7.5820
 0.5450	 7.6180
 0.5460	 7.6520
 0.5470	 7.6670
 0.5480	 7.6790
 0.5490	 7.6940
 0.5500	 7.7110
 0.5510	 7.7300
 0.5520	 7.7410
 0.5530	 7.7390
 0.5540	 7.7300
 0.5550	 7.7120
 0.5560	 7.6820
 0.5570	 7.6410
 0.5580	 7.5910
 0.5590	 7.5380
 0.5600	 7.4860
 0.5610	 7.4320
 0.5620	 7.3740
 0.5630	 7.3150
 0.5640	 7.2560
 0.5650	 7.1870
 0.5660	 7.1070
 0.5670	 7.0190
 0.5680	 6.9270
 0.5690	 6.8340
 0.5700	 6.7420
 0.5710	 6.6530
 0.5720	 6.5700
 0.5730	 6.4940
 0.5740	 6.4300
 0.5750	 6.3790
 0.5760	 6.3280
 0.5770	 6.2750
 0.5780	 6.2230
 0.5790	 6.1700
 0.5800	 6.1220
 0.5810	 6.0800
 0.5820	 6.0440
 0.5830	 6.0050
 0.5840	 5.9590
 0.5850	 5.9100
 0.5860	 5.8680
 0.5870	 5.8210
 0.5880	 5.7740
 0.5890	 5.7340
 0.5900	 5.7150
 0.5910	 5.7040
 0.5920	 5.6980
 0.5930	 5.6960
 0.5940	 5.6890
 0.5950	 5.6740
 0.5960	 5.6540
 0.5970	 5.6390
 0.5980	 5.6170
 0.5990	 5.5940
 0.6000	 5.5760
 0.6010	 5.5550
 0.6020	 5.5320
 0.6030	 5.5070
 0.6040	 5.4800
 0.6050	 5.4580
 0.6060	 5.4330
 0.6070	 5.3990
 0.6080	 5.3640
 0.6090	 5.3300
 0.6100	 5.3010
 0.6110	 5.2770
 0.6120	 5.2360
 0.6130	 5.1840
 0.6140	 5.1330
 0.6150	 5.0940
 0.6160	 5.0550
 0.6170	 5.0190
 0.6180	 4.9910
 0.6190	 4.9620
 0.6200	 4.9380
 0.6210	 4.9180
 0.6220	 4.8970
 0.6230	 4.8760
 0.6240	 4.8630
 0.6250	 4.8550
 0.6260	 4.8410
 0.6270	 4.8330
 0.6280	 4.8280
 0.6290	 4.8240
 0.6300	 4.8250
 0.6310	 4.8230
 0.6320	 4.8150
 0.6330	 4.8070
 0.6340	 4.7920
 0.6350	 4.7750
 0.6360	 4.7570
 0.6370	 4.7350
 0.6380	 4.7090
 0.6390	 4.6790
 0.6400	 4.6450
 0.6410	 4.6070
 0.6420	 4.5700
 0.6430	 4.5350
 0.6440	 4.4990
 0.6450	 4.4610
 0.6460	 4.4260
 0.6470	 4.3940
 0.6480	 4.3630
 0.6490	 4.3360
 0.6500	 4.3120
 0.6510	 4.2880
 0.6520	 4.2720
 0.6530	 4.2570
 0.6540	 4.2360
 0.6550	 4.2120
 0.6560	 4.1890
 0.6570	 4.1670
 0.6580	 4.1450
 0.6590	 4.1160
 0.6600	 4.0850
 0.6610	 4.0560
 0.6620	 4.0270
 0.6630	 4.0000
 0.6640	 3.9740
 0.6650	 3.9490
 0.6660	 3.9320
 0.6670	 3.9160
 0.6680	 3.9030
 0.6690	 3.8990
 0.6700	 3.8980
 0.6710	 3.8980
 0.6720	 3.9010
 0.6730	 3.9040
 0.6740	 3.9120
 0.6750	 3.9260
 0.6760	 3.9450
 0.6770	 3.9640
 0.6780	 3.9850
 0.6790	 4.0090
 0.6800	 4.0390
 0.6810	 4.0740
 0.6820	 4.1140
 0.6830	 4.1580
 0.6840	 4.2090
 0.6850	 4.2660
 0.6860	 4.3320
 0.6870	 4.4080
 0.6880	 4.4940
 0.6890	 4.6010
 0.6900	 4.7310
 0.6910	 4.8870
 0.6920	 5.0790
 0.6930	 5.3080
 0.6940	 5.5750
 0.6950	 5.8810
 0.6960	 6.2350
 0.6970	 6.6380
 0.6980	 7.0870
 0.6990	 7.5750
 0.7000	 8.1060
 0.7010	 8.6760
 0.7020	 9.2710
 0.7030	 9.8920
 0.7040	10.5340
 0.7050	11.1900
 0.7060	11.8670
 0.7070	12.5490
 0.7080	13.2370
 0.7090	13.9440
 0.7100	14.6560
 0.7110	15.3800
 0.7120	16.1150
 0.7130	16.8500
 0.7140	17.5920
 0.7150	18.3420
 0.7160	19.0960
 0.7170	19.8530
 0.7180	20.6140
 0.7190	21.3760
 0.7200	22.1310
 0.7210	22.8810
 0.7220	23.6300
 0.7230	24.3750
 0.7240	25.1070
 0.7250	25.8270
 0.7260	26.5250
 0.7270	27.1970
 0.7280	27.8680
 0.7290	28.5130
 0.7300	29.1350
 0.7310	29.7370
 0.7320	30.3060
 0.7330	30.8540
 0.7340	31.3830
 0.7350	31.8870
 0.7360	32.3670
 0.7370	32.8200
 0.7380	33.2460
 0.7390	33.6510
 0.7400	34.0310
 0.7410	34.3890
 0.7420	34.7310
 0.7430	35.0440
 0.7440	35.3380
 0.7450	35.6130
 0.7460	35.8630
 0.7470	36.0930
 0.7480	36.3060
 0.7490	36.5030
 0.7500	36.6830
 0.7510	36.8520
 0.7520	37.0070
 0.7530	37.1460
 0.7540	37.2740
 0.7550	37.3870
 0.7560	37.4900
 0.7570	37.5910
 0.7580	37.6860
 0.7590	37.7690
 0.7600	37.8420
 0.7610	37.9120
 0.7620	37.9700
 0.7630	38.0220
 0.7640	38.0760
 0.7650	38.1240
 0.7660	38.1680
 0.7670	38.2060
 0.7680	38.2420
 0.7690	38.2770
 0.7700	38.3100
 0.7710	38.3390
 0.7720	38.3620
 0.7730	38.3820
 0.7740	38.4060
 0.7750	38.4350
 0.7760	38.4540
 0.7770	38.4770
 0.7780	38.5010
 0.7790	38.5190
 0.7800	38.5330
 0.7810	38.5510
 0.7820	38.5740
 0.7830	38.5920
 0.7840	38.6070
 0.7850	38.6250
 0.7860	38.6470
 0.7870	38.6600
 0.7880	38.6730
 0.7890	38.6890
 0.7900	38.7080
 0.7910	38.7230
 0.7920	38.7370
 0.7930	38.7510
 0.7940	38.7660
 0.7950	38.7770
 0.7960	38.7900
 0.7970	38.8080
 0.7980	38.8200
 0.7990	38.8310
 0.8000	38.8420
 0.8010	38.8520
 0.8020	38.8600
 0.8030	38.8690
 0.8040	38.8800
 0.8050	38.8950
 0.8060	38.9070
 0.8070	38.9140
 0.8080	38.9210
 0.8090	38.9400
 0.8100	38.9460
 0.8110	38.9520
 0.8120	38.9640
 0.8130	38.9710
 0.8140	38.9780
 0.8150	38.9870
 0.8160	38.9990
 0.8170	39.0080
 0.8180	39.0180
 0.8190	39.0270
 0.8200	39.0370
 0.8210	39.0450
 0.8220	39.0600
 0.8230	39.0750
 0.8240	39.0710
 0.8250	39.0790
 0.8260	39.0900
 0.8270	39.0990
 0.8280	39.1050
 0.8290	39.1090
 0.8300	39.1160
 0.8310	39.1270
 0.8320	39.1360
 0.8330	39.1490
 0.8340	39.1600
 0.8350	39.1610
 0.8360	39.1700
 0.8370	39.1790
 0.8380	39.1860
 0.8390	39.1940
 0.8400	39.2060
 0.8410	39.2180
 0.8420	39.2290
 0.8430	39.2430
 0.8440	39.2510
 0.8450	39.2620
 0.8460	39.2820
 0.8470	39.2950
 0.8480	39.3050
 0.8490	39.3170
 0.8500	39.3340
 0.8510	39.3440
 0.8520	39.3560
 0.8530	39.3710
 0.8540	39.3850
 0.8550	39.3900
 0.8560	39.3990
 0.8570	39.4140
 0.8580	39.4280
 0.8590	39.4440
 0.8600	39.4580
 0.8610	39.4650
 0.8620	39.4700
 0.8630	39.4710
 0.8640	39.4780
 0.8650	39.4970
 0.8660	39.5160
 0.8670	39.5280
 0.8680	39.5380
 0.8690	39.5520
 0.8700	39.5690
 0.8710	39.5760
 0.8720	39.5760
 0.8730	39.5850
 0.8740	39.5980
 0.8750	39.6100
 0.8760	39.6190
 0.8770	39.6300
 0.8780	39.6430
 0.8790	39.6560
 0.8800	39.6660
 0.8810	39.6720
 0.8820	39.6790
 0.8830	39.6860
 0.8840	39.6920
 0.8850	39.7010
 0.8860	39.7050
 0.8870	39.7110
 0.8880	39.7260
 0.8890	39.7430
 0.8900	39.7490
 0.8910	39.7460
 0.8920	39.7440
 0.8930	39.7490
 0.8940	39.7550
 0.8950	39.7630
 0.8960	39.7770
 0.8970	39.7820
 0.8980	39.7890
 0.8990	39.7950
 0.9000	39.7820
 0.9010	39.7870
 0.9020	39.7970
 0.9030	39.8070
 0.9040	39.8260
 0.9050	39.8350
 0.9060	39.8440
 0.9070	39.8540
 0.9080	39.8480
 0.9090	39.8480
 0.9100	39.8530
 0.9110	39.8550
 0.9120	39.8570
 0.9130	39.8650
 0.9140	39.8780
 0.9150	39.8890
 0.9160	39.8910
 0.9170	39.8840
 0.9180	39.8800
 0.9190	39.8900
 0.9200	39.8880
 0.9210	39.8890
 0.9220	39.8930
 0.9230	39.8940
 0.9240	39.8930
 0.9250	39.8890
 0.9260	39.8820
 0.9270	39.8730
 0.9280	39.8800
 0.9290	39.8840
 0.9300	39.8770
 0.9310	39.8600
 0.9320	39.8450
 0.9330	39.8410
 0.9340	39.8400
 0.9350	39.8210
 0.9360	39.8140
 0.9370	39.8070
 0.9380	39.7950
 0.9390	39.7900
 0.9400	39.7670
 0.9410	39.7500
 0.9420	39.7510
 0.9430	39.7340
 0.9440	39.7090
 0.9450	39.6870
 0.9460	39.6680
 0.9470	39.6350
 0.9480	39.6180
 0.9490	39.6000
 0.9500	39.5640
 0.9510	39.5230
 0.9520	39.4960
 0.9530	39.4700
 0.9540	39.4310
 0.9550	39.3900
 0.9560	39.3540
 0.9570	39.3210
 0.9580	39.2820
 0.9590	39.2310
 0.9600	39.1980
 0.9610	39.1760
 0.9620	39.1440
 0.9630	39.1110
 0.9640	39.0780
 0.9650	39.0560
 0.9660	39.0540
 0.9670	39.0370
 0.9680	39.0240
 0.9690	39.0210
 0.9700	39.0260
 0.9710	39.0200
 0.9720	39.0150
 0.9730	39.0060
 0.9740	38.9900
 0.9750	38.9910
 0.9760	39.0010
 0.9770	39.0140
 0.9780	39.0240
 0.9790	38.9980
 0.9800	38.9860
 0.9810	38.9980
 0.9820	39.0170
 0.9830	39.0310
 0.9840	39.0400
 0.9850	39.0440
 0.9860	39.0480
 0.9870	39.0640
 0.9880	39.0920
 0.9890	39.1080
 0.9900	39.1010
 0.9910	39.1320
 0.9920	39.1410
 0.9930	39.1500
 0.9940	39.1590
 0.9950	39.1680
 0.9960	39.1770
 0.9970	39.1860
 0.9980	39.1950
 0.9990	39.2040
 1.0000	39.2120
 1.0010	39.2210
 1.0020	39.2300
 1.0030	39.2390
 1.0040	39.2480
 1.0050	39.2570
 1.0060	39.2660
 1.0070	39.2750
 1.0080	39.2840
 1.0090	39.2930
 1.0100	39.2930
 1.0110	39.3060
 1.0120	39.3270
 1.0130	39.3580
 1.0140	39.3820
 1.0150	39.4060
 1.0160	39.4290
 1.0170	39.4520
 1.0180	39.4670
 1.0190	39.4860
 1.0200	39.5080
 1.0210	39.5260
 1.0220	39.5470
 1.0230	39.5670
 1.0240	39.5870
 1.0250	39.6060
 1.0260	39.6230
 1.0270	39.6420
 1.0280	39.6580
 1.0290	39.6770
 1.0300	39.6970
 1.0310	39.7170
 1.0320	39.7400
 1.0330	39.7580
 1.0340	39.7730
 1.0350	39.7940
 1.0360	39.8090
 1.0370	39.8220
 1.0380	39.8350
 1.0390	39.8470
 1.0400	39.8620
 1.0410	39.8790
 1.0420	39.8940
 1.0430	39.9100
 1.0440	39.9260
 1.0450	39.9410
 1.0460	39.9560
 1.0470	39.9730
 1.0480	39.9870
 1.0490	39.9970
 1.0500	40.0100
 1.0510	40.0250
 1.0520	40.0410
 1.0530	40.0550
 1.0540	40.0710
 1.0550	40.0830
 1.0560	40.0900
 1.0570	40.1010
 1.0580	40.1120
 1.0590	40.1230
 1.0600	40.1360
 1.0610	40.1460
 1.0620	40.1500
 1.0630	40.1600
 1.0640	40.1720
 1.0650	40.1810
 1.0660	40.1910
 1.0670	40.2010
 1.0680	40.2090
 1.0690	40.2130
 1.0700	40.2190
 1.0710	40.2250
 1.0720	40.2300
 1.0730	40.2330
 1.0740	40.2390
 1.0750	40.2490
 1.0760	40.2560
 1.0770	40.2640
 1.0780	40.2690
 1.0790	40.2720
 1.0800	40.2750
 1.0810	40.2770
 1.0820	40.2810
 1.0830	40.2860
 1.0840	40.2890
 1.0850	40.2940
 1.0860	40.2980
 1.0870	40.2990
 1.0880	40.2960
 1.0890	40.2980
 1.0900	40.3000
 1.0910	40.3000
 1.0920	40.3030
 1.0930	40.3010
 1.0940	40.2960
 1.0950	40.2920
 1.0960	40.2850
 1.0970	40.2830
 1.0980	40.2860
 1.0990	40.2840
 1.1000	40.2860
 1.1010	40.2830
 1.1020	40.2760
 1.1030	40.2670
 1.1040	40.2610
 1.1050	40.2550
 1.1060	40.2490
 1.1070	40.2460
 1.1080	40.2400
 1.1090	40.2340
 1.1100	40.2260
 1.1110	40.2160
 1.1120	40.2050
 1.1130	40.1900
 1.1140	40.1780
 1.1150	40.1650
 1.1160	40.1510
 1.1170	40.1410
 1.1180	40.1250
 1.1190	40.1060
 1.1200	40.0860
 1.1210	40.0630
 1.1220	40.0370
 1.1230	40.0100
 1.1240	39.9820
 1.1250	39.9490
 1.1260	39.9150
 1.1270	39.8730
 1.1280	39.8280
 1.1290	39.7760
 1.1300	39.7180
 1.1310	39.6560
 1.1320	39.5900
 1.1330	39.5190
 1.1340	39.4430
 1.1350	39.3630
 1.1360	39.2790
 1.1370	39.1900
 1.1380	39.0950
 1.1390	38.9970
 1.1400	38.8910
 1.1410	38.7840
 1.1420	38.6750
 1.1430	38.5630
 1.1440	38.4500
 1.1450	38.3340
 1.1460	38.2220
 1.1470	38.1080
 1.1480	37.9990
 1.1490	37.8920
 1.1500	37.7900
 1.1510	37.6900
 1.1520	37.5960
 1.1530	37.5040
 1.1540	37.4200
 1.1550	37.3420
 1.1560	37.2710
 1.1570	37.2080
 1.1580	37.1510
 1.1590	37.0970
 1.1600	37.0470
 1.1610	37.0000
 1.1620	36.9570
 1.1630	36.9210
 1.1640	36.8870
 1.1650	36.8550
 1.1660	36.8270
 1.1670	36.8020
 1.1680	36.7810
 1.1690	36.7610
 1.1700	36.7470
 1.1710	36.7310
 1.1720	36.7160
 1.1730	36.7020
 1.1740	36.6890
 1.1750	36.6740
 1.1760	36.6570
 1.1770	36.6390
 1.1780	36.6190
 1.1790	36.5990
 1.1800	36.5800
 1.1810	36.5600
 1.1820	36.5400
 1.1830	36.5210
 1.1840	36.5020
 1.1850	36.4840
 1.1860	36.4670
 1.1870	36.4510
 1.1880	36.4350
 1.1890	36.4200
 1.1900	36.4070
 1.1910	36.3960
 1.1920	36.3850
 1.1930	36.3740
 1.1940	36.3660
 1.1950	36.3590
 1.1960	36.3530
 1.1970	36.3500
 1.1980	36.3480
 1.1990	36.3440
 1.2000	36.3440
 1.2010	36.3470
 1.2020	36.3540
 1.2030	36.3600
 1.2040	36.3680
 1.2050	36.3780
 1.2060	36.3880
 1.2070	36.4020
 1.2080	36.4180
 1.2090	36.4340
 1.2100	36.4510
 1.2110	36.4710
 1.2120	36.4930
 1.2130	36.5190
 1.2140	36.5490
 1.2150	36.5820
 1.2160	36.6180
 1.2170	36.6570
 1.2180	36.6960
 1.2190	36.7360
 1.2200	36.7790
 1.2210	36.8230
 1.2220	36.8700
 1.2230	36.9170
 1.2240	36.9630
 1.2250	37.0090
 1.2260	37.0510
 1.2270	37.0930
 1.2280	37.1350
 1.2290	37.1750
 1.2300	37.2160
 1.2310	37.2570
 1.2320	37.2950
 1.2330	37.3300
 1.2340	37.3630
 1.2350	37.3910
 1.2360	37.4220
 1.2370	37.4530
 1.2380	37.4830
 1.2390	37.5160
 1.2400	37.5470
 1.2410	37.5760
 1.2420	37.6020
 1.2430	37.6280
 1.2440	37.6520
 1.2450	37.6760
 1.2460	37.7030
 1.2470	37.7260
 1.2480	37.7460
 1.2490	37.7680
 1.2500	37.7880
 1.2510	37.8080
 1.2520	37.8300
 1.2530	37.8490
 1.2540	37.8680
 1.2550	37.8850
 1.2560	37.9010
 1.2570	37.9180
 1.2580	37.9320
 1.2590	37.9460
 1.2600	37.9600
 1.2610	37.9730
 1.2620	37.9850
 1.2630	37.9970
 1.2640	38.0070
 1.2650	38.0130
 1.2660	38.0180
 1.2670	38.0220
 1.2680	38.0250
 1.2690	38.0300
 1.2700	38.0340
 1.2710	38.0370
 1.2720	38.0370
 1.2730	38.0370
 1.2740	38.0370
 1.2750	38.0350
 1.2760	38.0310
 1.2770	38.0280
 1.2780	38.0240
 1.2790	38.0180
 1.2800	38.0130
 1.2810	38.0080
 1.2820	38.0000
 1.2830	37.9910
 1.2840	37.9810
 1.2850	37.9690
 1.2860	37.9560
 1.2870	37.9420
 1.2880	37.9290
 1.2890	37.9150
 1.2900	37.8990
 1.2910	37.8840
 1.2920	37.8680
 1.2930	37.8500
 1.2940	37.8320
 1.2950	37.8090
 1.2960	37.7850
 1.2970	37.7600
 1.2980	37.7320
 1.2990	37.7030
 1.3000	37.6720
 1.3010	37.6380
 1.3020	37.6020
 1.3030	37.5650
 1.3040	37.5210
 1.3050	37.4770
 1.3060	37.4320
 1.3070	37.3850
 1.3080	37.3360
 1.3090	37.2840
 1.3100	37.2280
 1.3110	37.1680
 1.3120	37.1060
 1.3130	37.0400
 1.3140	36.9730
 1.3150	36.9020
 1.3160	36.8290
 1.3170	36.7540
 1.3180	36.6760
 1.3190	36.5930
 1.3200	36.5050
 1.3210	36.4120
 1.3220	36.3190
 1.3230	36.2210
 1.3240	36.1190
 1.3250	36.0170
 1.3260	35.9120
 1.3270	35.8040
 1.3280	35.6970
 1.3290	35.5850
 1.3300	35.4710
 1.3310	35.3540
 1.3320	35.2350
 1.3330	35.1170
 1.3340	34.9950
 1.3350	34.8700
 1.3360	34.7450
 1.3370	34.6180
 1.3380	34.4900
 1.3390	34.3620
 1.3400	34.2350
 1.3410	34.1080
 1.3420	33.9820
 1.3430	33.8570
 1.3440	33.7360
 1.3450	33.6140
 1.3460	33.4930
 1.3470	33.3740
 1.3480	33.2550
 1.3490	33.1380
 1.3500	33.0230
 1.3510	32.9080
 1.3520	32.7940
 1.3530	32.6810
 1.3540	32.5680
 1.3550	32.4540
 1.3560	32.3400
 1.3570	32.2260
 1.3580	32.1110
 1.3590	31.9940
 1.3600	31.8750
 1.3610	31.7510
 1.3620	31.6240
 1.3630	31.4940
 1.3640	31.3570
 1.3650	31.2140
 1.3660	31.0660
 1.3670	30.9100
 1.3680	30.7470
 1.3690	30.5760
 1.3700	30.3910
 1.3710	30.1970
 1.3720	29.9890
 1.3730	29.7670
 1.3740	29.5340
 1.3750	29.2850
 1.3760	29.0150
 1.3770	28.7280
 1.3780	28.4180
 1.3790	28.0880
 1.3800	27.7380
 1.3810	27.3640
 1.3820	26.9730
 1.3830	26.5630
 1.3840	26.1350
 1.3850	25.6890
 1.3860	25.2290
 1.3870	24.7470
 1.3880	24.2630
 1.3890	23.7660
 1.3900	23.2590
 1.3910	22.7520
 1.3920	22.2400
 1.3930	21.7220
 1.3940	21.2070
 1.3950	20.6920
 1.3960	20.1840
 1.3970	19.6860
 1.3980	19.1970
 1.3990	18.7240
 1.4000	18.2640
 1.4010	17.8160
 1.4020	17.3860
 1.4030	16.9690
 1.4040	16.5700
 1.4050	16.1900
 1.4060	15.8270
 1.4070	15.4860
 1.4080	15.1630
 1.4090	14.8590
 1.4100	14.5730
 1.4110	14.3030
 1.4120	14.0510
 1.4130	13.8160
 1.4140	13.5970
 1.4150	13.3980
 1.4160	13.2120
 1.4170	13.0400
 1.4180	12.8810
 1.4190	12.7320
 1.4200	12.5960
 1.4210	12.4700
 1.4220	12.3530
 1.4230	12.2480
 1.4240	12.1520
 1.4250	12.0620
 1.4260	11.9830
 1.4270	11.9090
 1.4280	11.8420
 1.4290	11.7810
 1.4300	11.7280
 1.4310	11.6790
 1.4320	11.6370
 1.4330	11.5980
 1.4340	11.5640
 1.4350	11.5340
 1.4360	11.5090
 1.4370	11.4870
 1.4380	11.4700
 1.4390	11.4560
 1.4400	11.4460
 1.4410	11.4390
 1.4420	11.4350
 1.4430	11.4330
 1.4440	11.4320
 1.4450	11.4330
 1.4460	11.4350
 1.4470	11.4400
 1.4480	11.4470
 1.4490	11.4550
 1.4500	11.4650
 1.4510	11.4750
 1.4520	11.4870
 1.4530	11.5000
 1.4540	11.5150
 1.4550	11.5310
 1.4560	11.5490
 1.4570	11.5690
 1.4580	11.5920
 1.4590	11.6170
 1.4600	11.6460
 1.4610	11.6780
 1.4620	11.7130
 1.4630	11.7520
 1.4640	11.7940
 1.4650	11.8390
 1.4660	11.8890
 1.4670	11.9420
 1.4680	12.0000
 1.4690	12.0620
 1.4700	12.1280
 1.4710	12.1980
 1.4720	12.2680
 1.4730	12.3430
 1.4740	12.4220
 1.4750	12.5010
 1.4760	12.5860
 1.4770	12.6730
 1.4780	12.7610
 1.4790	12.8530
 1.4800	12.9440
 1.4810	13.0350
 1.4820	13.1300
 1.4830	13.2240
 1.4840	13.3220
 1.4850	13.4220
 1.4860	13.5210
 1.4870	13.6220
 1.4880	13.7220
 1.4890	13.8220
 1.4900	13.9240
 1.4910	14.0250
 1.4920	14.1280
 1.4930	14.2320
 1.4940	14.3360
 1.4950	14.4420
 1.4960	14.5480
 1.4970	14.6520
 1.4980	14.7580
 1.4990	14.8620
 1.5000	14.9680
 1.5010	15.0770
 1.5020	15.1830
 1.5030	15.2900
 1.5040	15.3970
 1.5050	15.5030
 1.5060	15.6100
 1.5070	15.7170
 1.5080	15.8230
 1.5090	15.9300
 1.5100	16.0350
 1.5110	16.1380
 1.5120	16.2420
 1.5130	16.3430
 1.5140	16.4460
 1.5150	16.5510
 1.5160	16.6540
 1.5170	16.7580
 1.5180	16.8610
 1.5190	16.9610
 1.5200	17.0610
 1.5210	17.1600
 1.5220	17.2590
 1.5230	17.3580
 1.5240	17.4570
 1.5250	17.5550
 1.5260	17.6520
 1.5270	17.7480
 1.5280	17.8440
 1.5290	17.9370
 1.5300	18.0300
 1.5310	18.1230
 1.5320	18.2130
 1.5330	18.3030
 1.5340	18.3920
 1.5350	18.4790
 1.5360	18.5670
 1.5370	18.6540
 1.5380	18.7410
 1.5390	18.8270
 1.5400	18.9120
 1.5410	18.9980
 1.5420	19.0830
 1.5430	19.1660
 1.5440	19.2500
 1.5450	19.3320
 1.5460	19.4120
 1.5470	19.4950
 1.5480	19.5770
 1.5490	19.6580
 1.5500	19.7400
 1.5510	19.8190
 1.5520	19.8960
 1.5530	19.9730
 1.5540	20.0510
 1.5550	20.1270
 1.5560	20.2010
 1.5570	20.2760
 1.5580	20.3490
 1.5590	20.4210
 1.5600	20.4950
 1.5610	20.5670
 1.5620	20.6360
 1.5630	20.7060
 1.5640	20.7730
 1.5650	20.8410
 1.5660	20.9080
 1.5670	20.9760
 1.5680	21.0450
 1.5690	21.1110
 1.5700	21.1770
 1.5710	21.2430
 1.5720	21.3070
 1.5730	21.3730
 1.5740	21.4390
 1.5750	21.5030
 1.5760	21.5670
 1.5770	21.6300
 1.5780	21.6920
 1.5790	21.7540
 1.5800	21.8160
 1.5810	21.8780
 1.5820	21.9400
 1.5830	22.0010
 1.5840	22.0620
 1.5850	22.1220
 1.5860	22.1820
 1.5870	22.2440
 1.5880	22.3060
 1.5890	22.3670
 1.5900	22.4280
 1.5910	22.4890
 1.5920	22.5500
 1.5930	22.6090
 1.5940	22.6690
 1.5950	22.7310
 1.5960	22.7910
 1.5970	22.8500
 1.5980	22.9090
 1.5990	22.9650
 1.6000	23.0230
 1.6010	23.0820
 1.6020	23.1410
 1.6030	23.2000
 1.6040	23.2550
 1.6050	23.3100
 1.6060	23.3640
 1.6070	23.4180
 1.6080	23.4730
 1.6090	23.5270
 1.6100	23.5790
 1.6110	23.6310
 1.6120	23.6820
 1.6130	23.7320
 1.6140	23.7800
 1.6150	23.8280
 1.6160	23.8750
 1.6170	23.9190
 1.6180	23.9640
 1.6190	24.0090
 1.6200	24.0510
 1.6210	24.0930
 1.6220	24.1340
 1.6230	24.1740
 1.6240	24.2130
 1.6250	24.2510
 1.6260	24.2890
 1.6270	24.3250
 1.6280	24.3580
 1.6290	24.3920
 1.6300	24.4250
 1.6310	24.4580
 1.6320	24.4940
 1.6330	24.5250
 1.6340	24.5560
 1.6350	24.5830
 1.6360	24.6070
 1.6370	24.6310
 1.6380	24.6540
 1.6390	24.6760
 1.6400	24.6990
 1.6410	24.7160
 1.6420	24.7290
 1.6430	24.7410
 1.6440	24.7490
 1.6450	24.7550
 1.6460	24.7590
 1.6470	24.7610
 1.6480	24.7580
 1.6490	24.7530
 1.6500	24.7460
 1.6510	24.7380
 1.6520	24.7290
 1.6530	24.7200
 1.6540	24.7110
 1.6550	24.7000
 1.6560	24.6870
 1.6570	24.6740
 1.6580	24.6590
 1.6590	24.6430
 1.6600	24.6280
 1.6610	24.6140
 1.6620	24.5990
 1.6630	24.5840
 1.6640	24.5680
 1.6650	24.5540
 1.6660	24.5400
 1.6670	24.5260
 1.6680	24.5120
 1.6690	24.4950
 1.6700	24.4770
 1.6710	24.4580
 1.6720	24.4380
 1.6730	24.4140
 1.6740	24.3870
 1.6750	24.3610
 1.6760	24.3330
 1.6770	24.3040
 1.6780	24.2730
 1.6790	24.2370
 1.6800	24.1990
 1.6810	24.1590
 1.6820	24.1160
 1.6830	24.0700
 1.6840	24.0230
 1.6850	23.9720
 1.6860	23.9190
 1.6870	23.8640
 1.6880	23.8060
 1.6890	23.7470
 1.6900	23.6890
 1.6910	23.6330
 1.6920	23.5760
 1.6930	23.5200
 1.6940	23.4620
 1.6950	23.4020
 1.6960	23.3440
 1.6970	23.2860
 1.6980	23.2270
 1.6990	23.1690
 1.7000	23.1100
 1.7010	23.0490
 1.7020	22.9880
 1.7030	22.9280
 1.7040	22.8660
 1.7050	22.8030
 1.7060	22.7390
 1.7070	22.6730
 1.7080	22.6080
 1.7090	22.5420
 1.7100	22.4760
 1.7110	22.4080
 1.7120	22.3430
 1.7130	22.2770
 1.7140	22.2180
 1.7150	22.1580
 1.7160	22.0950
 1.7170	22.0370
 1.7180	21.9790
 1.7190	21.9200
 1.7200	21.8660
 1.7210	21.8120
 1.7220	21.7580
 1.7230	21.7060
 1.7240	21.6580
 1.7250	21.6130
 1.7260	21.5730
 1.7270	21.5370
 1.7280	21.5060
 1.7290	21.4800
 1.7300	21.4620
 1.7310	21.4500
 1.7320	21.4500
 1.7330	21.4500
 1.7340	21.4560
 1.7350	21.4610
 1.7360	21.4680
 1.7370	21.4720
 1.7380	21.4770
 1.7390	21.4750
 1.7400	21.4700
 1.7410	21.4570
 1.7420	21.4380
 1.7430	21.4140
 1.7440	21.3840
 1.7450	21.3500
 1.7460	21.3110
 1.7470	21.2700
 1.7480	21.2230
 1.7490	21.1770
 1.7500	21.1300
 1.7510	21.0820
 1.7520	21.0340
 1.7530	20.9820
 1.7540	20.9280
 1.7550	20.8730
 1.7560	20.8210
 1.7570	20.7730
 1.7580	20.7250
 1.7590	20.6790
 1.7600	20.6350
 1.7610	20.5920
 1.7620	20.5530
 1.7630	20.5170
 1.7640	20.4850
 1.7650	20.4580
 1.7660	20.4320
 1.7670	20.4120
 1.7680	20.3910
 1.7690	20.3730
 1.7700	20.3560
 1.7710	20.3410
 1.7720	20.3270
 1.7730	20.3170
 1.7740	20.3040
 1.7750	20.2910
 1.7760	20.2770
 1.7770	20.2610
 1.7780	20.2490
 1.7790	20.2400
 1.7800	20.2310
 1.7810	20.2250
 1.7820	20.2170
 1.7830	20.2090
 1.7840	20.2030
 1.7850	20.1980
 1.7860	20.1950
 1.7870	20.1950
 1.7880	20.1950
 1.7890	20.1970
 1.7900	20.2010
 1.7910	20.2040
 1.7920	20.2060
 1.7930	20.2100
 1.7940	20.2140
 1.7950	20.2210
 1.7960	20.2290
 1.7970	20.2390
 1.7980	20.2490
 1.7990	20.2600
 1.8000	20.2720
 1.8010	20.2850
 1.8020	20.2990
 1.8030	20.3110
 1.8040	20.3240
 1.8050	20.3350
 1.8060	20.3450
 1.8070	20.3540
 1.8080	20.3620
 1.8090	20.3720
 1.8100	20.3840
 1.8110	20.3960
 1.8120	20.4100
 1.8130	20.4210
 1.8140	20.4320
 1.8150	20.4410
 1.8160	20.4490
 1.8170	20.4570
 1.8180	20.4640
 1.8190	20.4710
 1.8200	20.4770
 1.8210	20.4840
 1.8220	20.4880
 1.8230	20.4880
 1.8240	20.4920
 1.8250	20.4960
 1.8260	20.4980
 1.8270	20.4850
 1.8280	20.4720
 1.8290	20.4590
 1.8300	20.4460
 1.8310	20.4330
 1.8320	20.4200
 1.8330	20.4070
 1.8340	20.3940
 1.8350	20.3940
 1.8360	20.3670
 1.8370	20.3390
 1.8380	20.3060
 1.8390	20.2670
 1.8400	20.2240
 1.8410	20.1760
 1.8420	20.1230
 1.8430	20.0650
 1.8440	20.0030
 1.8450	19.9340
 1.8460	19.8610
 1.8470	19.7800
 1.8480	19.6870
 1.8490	19.5840
 1.8500	19.4730
 1.8510	19.3510
 1.8520	19.2190
 1.8530	19.0810
 1.8540	18.9340
 1.8550	18.7740
 1.8560	18.6040
 1.8570	18.4190
 1.8580	18.2240
 1.8590	18.0160
 1.8600	17.7960
 1.8610	17.5580
 1.8620	17.3120
 1.8630	17.0530
 1.8640	16.7780
 1.8650	16.4930
 1.8660	16.1900
 1.8670	15.8670
 1.8680	15.5320
 1.8690	15.1810
 1.8700	14.8160
 1.8710	14.4360
 1.8720	14.0520
 1.8730	13.6550
 1.8740	13.2480
 1.8750	12.8380
 1.8760	12.4150
 1.8770	11.9910
 1.8780	11.5710
 1.8790	11.1490
 1.8800	10.7340
 1.8810	10.3240
 1.8820	 9.9170
 1.8830	 9.5120
 1.8840	 9.1150
 1.8850	 8.7270
 1.8860	 8.3500
 1.8870	 7.9870
 1.8880	 7.6360
 1.8890	 7.3000
 1.8900	 6.9820
 1.8910	 6.6810
 1.8920	 6.3950
 1.8930	 6.1310
 1.8940	 5.8850
 1.8950	 5.6570
 1.8960	 5.4470
 1.8970	 5.2530
 1.8980	 5.0750
 1.8990	 4.9130
 1.9000	 4.7650
 1.9010	 4.6360
 1.9020	 4.5150
 1.9030	 4.4090
 1.9040	 4.3130
 1.9050	 4.2260
 1.9060	 4.1500
 1.9070	 4.0860
 1.9080	 4.0270
 1.9090	 3.9740
 1.9100	 3.9300
 1.9110	 3.8880
 1.9120	 3.8520
 1.9130	 3.8180
 1.9140	 3.7900
 1.9150	 3.7620
 1.9160	 3.7360
 1.9170	 3.7150
 1.9180	 3.6970
 1.9190	 3.6830
 1.9200	 3.6730
 1.9210	 3.6650
 1.9220	 3.6570
 1.9230	 3.6520
 1.9240	 3.6470
 1.9250	 3.6420
 1.9260	 3.6380
 1.9270	 3.6410
 1.9280	 3.6430
 1.9290	 3.6450
 1.9300	 3.6490
 1.9310	 3.6530
 1.9320	 3.6540
 1.9330	 3.6590
 1.9340	 3.6680
 1.9350	 3.6760
 1.9360	 3.6840
 1.9370	 3.6930
 1.9380	 3.7040
 1.9390	 3.7140
 1.9400	 3.7240
 1.9410	 3.7380
 1.9420	 3.7530
 1.9430	 3.7710
 1.9440	 3.7900
 1.9450	 3.8100
 1.9460	 3.8290
 1.9470	 3.8470
 1.9480	 3.8670
 1.9490	 3.8860
 1.9500	 3.9070
 1.9510	 3.9270
 1.9520	 3.9480
 1.9530	 3.9660
 1.9540	 3.9850
 1.9550	 4.0090
 1.9560	 4.0350
 1.9570	 4.0620
 1.9580	 4.0950
 1.9590	 4.1220
 1.9600	 4.1470
 1.9610	 4.1750
 1.9620	 4.2030
 1.9630	 4.2300
 1.9640	 4.2610
 1.9650	 4.2930
 1.9660	 4.3250
 1.9670	 4.3610
 1.9680	 4.3940
 1.9690	 4.4270
 1.9700	 4.4610
 1.9710	 4.4940
 1.9720	 4.5280
 1.9730	 4.5650
 1.9740	 4.6030
 1.9750	 4.6390
 1.9760	 4.6740
 1.9770	 4.7110
 1.9780	 4.7480
 1.9790	 4.7880
 1.9800	 4.8290
 1.9810	 4.8710
 1.9820	 4.9160
 1.9830	 4.9570
 1.9840	 4.9960
 1.9850	 5.0380
 1.9860	 5.0780
 1.9870	 5.1180
 1.9880	 5.1630
 1.9890	 5.2070
 1.9900	 5.2510
 1.9910	 5.2950
 1.9920	 5.3390
 1.9930	 5.3830
 1.9940	 5.4280
 1.9950	 5.4720
 1.9960	 5.5160
 1.9970	 5.5580
 1.9980	 5.6030
 1.9990	 5.6490
 2.0000	 5.6950
 2.0010	 5.7430
 2.0020	 5.7920
 2.0030	 5.8380
 2.0040	 5.8820
 2.0050	 5.9290
 2.0060	 5.9750
 2.0070	 6.0220
 2.0080	 6.0730
 2.0090	 6.1200
 2.0100	 6.1640
 2.0110	 6.2090
 2.0120	 6.2520
 2.0130	 6.2950
 2.0140	 6.3390
 2.0150	 6.3860
 2.0160	 6.4310
 2.0170	 6.4740
 2.0180	 6.5160
 2.0190	 6.5550
 2.0200	 6.5970
 2.0210	 6.6400
 2.0220	 6.6810
 2.0230	 6.7240
 2.0240	 6.7650
 2.0250	 6.8040
 2.0260	 6.8430
 2.0270	 6.8810
 2.0280	 6.9170
 2.0290	 6.9520
 2.0300	 6.9870
 2.0310	 7.0220
 2.0320	 7.0570
 2.0330	 7.0930
 2.0340	 7.1310
 2.0350	 7.1650
 2.0360	 7.1970
 2.0370	 7.2290
 2.0380	 7.2590
 2.0390	 7.2880
 2.0400	 7.3180
 2.0410	 7.3460
 2.0420	 7.3700
 2.0430	 7.3920
 2.0440	 7.4170
 2.0450	 7.4420
 2.0460	 7.4680
 2.0470	 7.4960
 2.0480	 7.5210
 2.0490	 7.5460
 2.0500	 7.5700
 2.0510	 7.5940
 2.0520	 7.6160
 2.0530	 7.6350
 2.0540	 7.6550
 2.0550	 7.6730
 2.0560	 7.6910
 2.0570	 7.7150
 2.0580	 7.7390
 2.0590	 7.7640
 2.0600	 7.7950
 2.0610	 7.8200
 2.0620	 7.8420
 2.0630	 7.8660
 2.0640	 7.8870
 2.0650	 7.9120
 2.0660	 7.9400
 2.0670	 7.9670
 2.0680	 7.9960
 2.0690	 8.0230
 2.0700	 8.0500
 2.0710	 8.0760
 2.0720	 8.0990
 2.0730	 8.1230
 2.0740	 8.1490
 2.0750	 8.1730
 2.0760	 8.2000
 2.0770	 8.2300
 2.0780	 8.2550
 2.0790	 8.2780
 2.0800	 8.3030
 2.0810	 8.3260
 2.0820	 8.3510
 2.0830	 8.3780
 2.0840	 8.4040
 2.0850	 8.4260
 2.0860	 8.4510
 2.0870	 8.4780
 2.0880	 8.5040
 2.0890	 8.5290
 2.0900	 8.5560
 2.0910	 8.5800
 2.0920	 8.6020
 2.0930	 8.6270
 2.0940	 8.6510
 2.0950	 8.6760
 2.0960	 8.7020
 2.0970	 8.7260
 2.0980	 8.7480
 2.0990	 8.7730
 2.1000	 8.7980
 2.1010	 8.8240
 2.1020	 8.8530
 2.1030	 8.8800
 2.1040	 8.9040
 2.1050	 8.9270
 2.1060	 8.9510
 2.1070	 8.9750
 2.1080	 9.0000
 2.1090	 9.0270
 2.1100	 9.0520
 2.1110	 9.0750
 2.1120	 9.0980
 2.1130	 9.1170
 2.1140	 9.1410
 2.1150	 9.1660
 2.1160	 9.1910
 2.1170	 9.2200
 2.1180	 9.2440
 2.1190	 9.2640
 2.1200	 9.2850
 2.1210	 9.3030
 2.1220	 9.3210
 2.1230	 9.3410
 2.1240	 9.3600
 2.1250	 9.3810
 2.1260	 9.4060
 2.1270	 9.4270
 2.1280	 9.4490
 2.1290	 9.4700
 2.1300	 9.4880
 2.1310	 9.5060
 2.1320	 9.5240
 2.1330	 9.5420
 2.1340	 9.5580
 2.1350	 9.5780
 2.1360	 9.6030
 2.1370	 9.6250
 2.1380	 9.6480
 2.1390	 9.6700
 2.1400	 9.6860
 2.1410	 9.7050
 2.1420	 9.7270
 2.1430	 9.7510
 2.1440	 9.7740
 2.1450	 9.7980
 2.1460	 9.8210
 2.1470	 9.8420
 2.1480	 9.8630
 2.1490	 9.8840
 2.1500	 9.9060
 2.1510	 9.9280
 2.1520	 9.9490
 2.1530	 9.9730
 2.1540	 9.9950
 2.1550	10.0150
 2.1560	10.0360
 2.1570	10.0580
 2.1580	10.0800
 2.1590	10.1030
 2.1600	10.1220
 2.1610	10.1420
 2.1620	10.1620
 2.1630	10.1820
 2.1640	10.2000
 2.1650	10.2190
 2.1660	10.2380
 2.1670	10.2580
 2.1680	10.2770
 2.1690	10.2970
 2.1700	10.3180
 2.1710	10.3370
 2.1720	10.3530
 2.1730	10.3710
 2.1740	10.3860
 2.1750	10.4060
 2.1760	10.4310
 2.1770	10.4520
 2.1780	10.4720
 2.1790	10.4920
 2.1800	10.5090
 2.1810	10.5270
 2.1820	10.5440
 2.1830	10.5630
 2.1840	10.5840
 2.1850	10.6070
 2.1860	10.6270
 2.1870	10.6480
 2.1880	10.6690
 2.1890	10.6870
 2.1900	10.7090
 2.1910	10.7370
 2.1920	10.7590
 2.1930	10.7800
 2.1940	10.8000
 2.1950	10.8170
 2.1960	10.8350
 2.1970	10.8510
 2.1980	10.8690
 2.1990	10.8890
 2.2000	10.9060
 2.2010	10.9230
 2.2020	10.9390
 2.2030	10.9550
 2.2040	10.9680
 2.2050	10.9790
 2.2060	10.9910
 2.2070	11.0020
 2.2080	11.0090
 2.2090	11.0190
 2.2100	11.0290
 2.2110	11.0390
 2.2120	11.0490
 2.2130	11.0570
 2.2140	11.0660
 2.2150	11.0680
 2.2160	11.0630
 2.2170	11.0610
 2.2180	11.0540
 2.2190	11.0490
 2.2200	11.0510
 2.2210	11.0430
 2.2220	11.0310
 2.2230	11.0180
 2.2240	10.9990
 2.2250	10.9790
 2.2260	10.9590
 2.2270	10.9350
 2.2280	10.9090
 2.2290	10.8780
 2.2300	10.8440
 2.2310	10.8080
 2.2320	10.7700
 2.2330	10.7280
 2.2340	10.6840
 2.2350	10.6390
 2.2360	10.5890
 2.2370	10.5350
 2.2380	10.4830
 2.2390	10.4330
 2.2400	10.3780
 2.2410	10.3220
 2.2420	10.2630
 2.2430	10.1960
 2.2440	10.1320
 2.2450	10.0660
 2.2460	10.0010
 2.2470	 9.9370
 2.2480	 9.8710
 2.2490	 9.8020
 2.2500	 9.7350
 2.2510	 9.6670
 2.2520	 9.5990
 2.2530	 9.5290
 2.2540	 9.4640
 2.2550	 9.4010
 2.2560	 9.3380
 2.2570	 9.2800
 2.2580	 9.2200
 2.2590	 9.1560
 2.2600	 9.0950
 2.2610	 9.0350
 2.2620	 8.9770
 2.2630	 8.9240
 2.2640	 8.8710
 2.2650	 8.8200
 2.2660	 8.7710
 2.2670	 8.7240
 2.2680	 8.6770
 2.2690	 8.6350
 2.2700	 8.5980
 2.2710	 8.5600
 2.2720	 8.5240
 2.2730	 8.4870
 2.2740	 8.4480
 2.2750	 8.4120
 2.2760	 8.3750
 2.2770	 8.3400
 2.2780	 8.3050
 2.2790	 8.2760
 2.2800	 8.2510
 2.2810	 8.2250
 2.2820	 8.2040
 2.2830	 8.1760
 2.2840	 8.1420
 2.2850	 8.1080
 2.2860	 8.0720
 2.2870	 8.0330
 2.2880	 7.9910
 2.2890	 7.9500
 2.2900	 7.9010
 2.2910	 7.8590
 2.2920	 7.8260
 2.2930	 7.7850
 2.2940	 7.7490
 2.2950	 7.7060
 2.2960	 7.6530
 2.2970	 7.6030
 2.2980	 7.5540
 2.2990	 7.5000
 2.3000	 7.4500
 2.3010	 7.4030
 2.3020	 7.3510
 2.3030	 7.3060
 2.3040	 7.2630
 2.3050	 7.2200
 2.3060	 7.1870
 2.3070	 7.1580
 2.3080	 7.1200
 2.3090	 7.0840
 2.3100	 7.0530
 2.3110	 7.0250
 2.3120	 7.0080
 2.3130	 7.0050
 2.3140	 6.9990
 2.3150	 6.9940
 2.3160	 6.9980
 2.3170	 7.0110
 2.3180	 7.0200
 2.3190	 7.0350
 2.3200	 7.0450
 2.3210	 7.0520
 2.3220	 7.0590
 2.3230	 7.0710
 2.3240	 7.0770
 2.3250	 7.0810
 2.3260	 7.0760
 2.3270	 7.0610
 2.3280	 7.0450
 2.3290	 7.0200
 2.3300	 6.9980
 2.3310	 6.9770
 2.3320	 6.9520
 2.3330	 6.9230
 2.3340	 6.8970
 2.3350	 6.8720
 2.3360	 6.8470
 2.3370	 6.8270
 2.3380	 6.8020
 2.3390	 6.7750
 2.3400	 6.7460
 2.3410	 6.7120
 2.3420	 6.6820
 2.3430	 6.6500
 2.3440	 6.6200
 2.3450	 6.5920
 2.3460	 6.5640
 2.3470	 6.5340
 2.3480	 6.5110
 2.3490	 6.4940
 2.3500	 6.4770
 2.3510	 6.4670
 2.3520	 6.4530
 2.3530	 6.4350
 2.3540	 6.4220
 2.3550	 6.4130
 2.3560	 6.4030
 2.3570	 6.3980
 2.3580	 6.3970
 2.3590	 6.3920
 2.3600	 6.3850
 2.3610	 6.3790
 2.3620	 6.3710
 2.3630	 6.3490
 2.3640	 6.3340
 2.3650	 6.3160
 2.3660	 6.2930
 2.3670	 6.2910
 2.3680	 6.2810
 2.3690	 6.2580
 2.3700	 6.2380
 2.3710	 6.2100
 2.3720	 6.1850
 2.3730	 6.1760
 2.3740	 6.1570
 2.3750	 6.1330
 2.3760	 6.1070
 2.3770	 6.0700
 2.3780	 6.0440
 2.3790	 6.0210
 2.3800	 6.0020
 2.3810	 5.9790
 2.3820	 5.9450
 2.3830	 5.9280
 2.3840	 5.9060
 2.3850	 5.8810
 2.3860	 5.8710
 2.3870	 5.8500
 2.3880	 5.8280
 2.3890	 5.8080
 2.3900	 5.7810
 2.3910	 5.7500
 2.3920	 5.7240
 2.3930	 5.6990
 2.3940	 5.6800
 2.3950	 5.6660
 2.3960	 5.6420
 2.3970	 5.6280
 2.3980	 5.6180
 2.3990	 5.5900
 2.4000	 5.5680
 2.4010	 5.5440
 2.4020	 5.5120
 2.4030	 5.4850
 2.4040	 5.4630
 2.4050	 5.4390
 2.4060	 5.4120
 2.4070	 5.3870
 2.4080	 5.3620
 2.4090	 5.3290
 2.4100	 5.3020
 2.4110	 5.2820
 2.4120	 5.2580
 2.4130	 5.2330
 2.4140	 5.2060
 2.4150	 5.1920
 2.4160	 5.1770
 2.4170	 5.1630
 2.4180	 5.1620
 2.4190	 5.1360
 2.4200	 5.0940
 2.4210	 5.0570
 2.4220	 5.0060
 2.4230	 4.9640
 2.4240	 4.9500
 2.4250	 4.9480
 2.4260	 4.9490
 2.4270	 4.9420
 2.4280	 4.9120
 2.4290	 4.8720
 2.4300	 4.8270
 2.4310	 4.7860
 2.4320	 4.7660
 2.4330	 4.7540
 2.4340	 4.7320
 2.4350	 4.7140
 2.4360	 4.6980
 2.4370	 4.6700
 2.4380	 4.6500
 2.4390	 4.6340
 2.4400	 4.6070
 2.4410	 4.5660
 2.4420	 4.5230
 2.4430	 4.4870
 2.4440	 4.4490
 2.4450	 4.4400
 2.4460	 4.4410
 2.4470	 4.4360
 2.4480	 4.4340
 2.4490	 4.4180
 2.4500	 4.4030
 2.4510	 4.3650
 2.4520	 4.3190
 2.4530	 4.2970
 2.4540	 4.2760
 2.4550	 4.2710
 2.4560	 4.2620
 2.4570	 4.2260
 2.4580	 4.2000
 2.4590	 4.1700
 2.4600	 4.1330
 2.4610	 4.1160
 2.4620	 4.0930
 2.4630	 4.0550
 2.4640	 4.0390
 2.4650	 4.0430
 2.4660	 4.0260
 2.4670	 4.0020
 2.4680	 4.0080
 2.4690	 3.9730
 2.4700	 3.9490
 2.4710	 3.9430
 2.4720	 3.9350
 2.4730	 3.9290
 2.4740	 3.9170
 2.4750	 3.9180
 2.4760	 3.9050
 2.4770	 3.8640
 2.4780	 3.8440
 2.4790	 3.8250
 2.4800	 3.7960
 2.4810	 3.7780
 2.4820	 3.7570
 2.4830	 3.7260
 2.4840	 3.7320
 2.4850	 3.7350
 2.4860	 3.7180
 2.4870	 3.7440
 2.4880	 3.7670
 2.4890	 3.7480
 2.4900	 3.7600
 2.4910	 3.7670
 2.4920	 3.7510
 2.4930	 3.7450
 2.4940	 3.7580
 2.4950	 3.7380
 2.4960	 3.6870
 2.4970	 3.6800
 2.4980	 3.6200
 2.4990	 3.6020
 2.5000	 3.6720
