Name: Quercus lobata 1
Type: vegetation
Class: Tree
Genus: Quercus
Species: lobata
Sample No.: VH181
Owner: UCSB
Wavelength Range: VSWIR
Origin: 34.7139; -120.0598; WGS84
Collection Date: 6/9/2013
Description: Samples were collected as part of the HyspIRI Airborne Campaign. 48 individual plants were sampled in three times in 2013 - spring  summer  and fall. The name of the sample includes a 1  2  or 3 which references a different individual of the species. Samples were taken to JPL and processed within 48 hours of collection. The same leaves were processed in the Nicolet and then measured using the ASD.
Measurement: Bidirectional reflectance
First Column: X
Second Column: Y
X Units: Wavelength (micrometers)
Y Units: Reflectance (percentage)
First X Value: 0.35
Last X Value: 2.5
Number of X Values: 2151
Additional Information: vegetation.tree.quercus.lobata.vswir.vh181.ucsb.asd.ancillary.txt

 0.3500	 4.9920
 0.3510	 4.8910
 0.3520	 4.9570
 0.3530	 5.0230
 0.3540	 4.9210
 0.3550	 4.8430
 0.3560	 4.8320
 0.3570	 4.9050
 0.3580	 5.0290
 0.3590	 4.9750
 0.3600	 4.8500
 0.3610	 4.7720
 0.3620	 4.8320
 0.3630	 4.8480
 0.3640	 4.8060
 0.3650	 4.7550
 0.3660	 4.7870
 0.3670	 4.8610
 0.3680	 4.8900
 0.3690	 4.7880
 0.3700	 4.7610
 0.3710	 4.8050
 0.3720	 4.8750
 0.3730	 4.9540
 0.3740	 4.9130
 0.3750	 4.8580
 0.3760	 4.9100
 0.3770	 4.9110
 0.3780	 4.8960
 0.3790	 4.9270
 0.3800	 5.0580
 0.3810	 5.0130
 0.3820	 4.9390
 0.3830	 4.9610
 0.3840	 4.9840
 0.3850	 5.0150
 0.3860	 5.0450
 0.3870	 5.0660
 0.3880	 5.0890
 0.3890	 5.0710
 0.3900	 5.0460
 0.3910	 5.1380
 0.3920	 5.2060
 0.3930	 5.2120
 0.3940	 5.1800
 0.3950	 5.2240
 0.3960	 5.2610
 0.3970	 5.3080
 0.3980	 5.4050
 0.3990	 5.3930
 0.4000	 5.3880
 0.4010	 5.4410
 0.4020	 5.5020
 0.4030	 5.5530
 0.4040	 5.5810
 0.4050	 5.5890
 0.4060	 5.6310
 0.4070	 5.6860
 0.4080	 5.7360
 0.4090	 5.7750
 0.4100	 5.8480
 0.4110	 5.9130
 0.4120	 5.9450
 0.4130	 5.9710
 0.4140	 6.0050
 0.4150	 6.0600
 0.4160	 6.1450
 0.4170	 6.1880
 0.4180	 6.2120
 0.4190	 6.2530
 0.4200	 6.3320
 0.4210	 6.3840
 0.4220	 6.4120
 0.4230	 6.4340
 0.4240	 6.4720
 0.4250	 6.4990
 0.4260	 6.5270
 0.4270	 6.5760
 0.4280	 6.5940
 0.4290	 6.6100
 0.4300	 6.6400
 0.4310	 6.6790
 0.4320	 6.7080
 0.4330	 6.7300
 0.4340	 6.7420
 0.4350	 6.7630
 0.4360	 6.7850
 0.4370	 6.8020
 0.4380	 6.8160
 0.4390	 6.8340
 0.4400	 6.8460
 0.4410	 6.8490
 0.4420	 6.8740
 0.4430	 6.8790
 0.4440	 6.8770
 0.4450	 6.8920
 0.4460	 6.9060
 0.4470	 6.9280
 0.4480	 6.9470
 0.4490	 6.9360
 0.4500	 6.9530
 0.4510	 6.9740
 0.4520	 6.9720
 0.4530	 6.9750
 0.4540	 6.9940
 0.4550	 7.0160
 0.4560	 7.0160
 0.4570	 7.0250
 0.4580	 7.0380
 0.4590	 7.0410
 0.4600	 7.0480
 0.4610	 7.0510
 0.4620	 7.0570
 0.4630	 7.0660
 0.4640	 7.0660
 0.4650	 7.0660
 0.4660	 7.0680
 0.4670	 7.0710
 0.4680	 7.0790
 0.4690	 7.0900
 0.4700	 7.0960
 0.4710	 7.0900
 0.4720	 7.0880
 0.4730	 7.0880
 0.4740	 7.0840
 0.4750	 7.0860
 0.4760	 7.0920
 0.4770	 7.0980
 0.4780	 7.1010
 0.4790	 7.1000
 0.4800	 7.0960
 0.4810	 7.1020
 0.4820	 7.1150
 0.4830	 7.1220
 0.4840	 7.1250
 0.4850	 7.1340
 0.4860	 7.1430
 0.4870	 7.1500
 0.4880	 7.1570
 0.4890	 7.1570
 0.4900	 7.1660
 0.4910	 7.1760
 0.4920	 7.1800
 0.4930	 7.1890
 0.4940	 7.2000
 0.4950	 7.2100
 0.4960	 7.2260
 0.4970	 7.2340
 0.4980	 7.2490
 0.4990	 7.2750
 0.5000	 7.2860
 0.5010	 7.3020
 0.5020	 7.3290
 0.5030	 7.3510
 0.5040	 7.3810
 0.5050	 7.4140
 0.5060	 7.4500
 0.5070	 7.4940
 0.5080	 7.5360
 0.5090	 7.5790
 0.5100	 7.6280
 0.5110	 7.6880
 0.5120	 7.7590
 0.5130	 7.8410
 0.5140	 7.9210
 0.5150	 8.0130
 0.5160	 8.1160
 0.5170	 8.2250
 0.5180	 8.3360
 0.5190	 8.4580
 0.5200	 8.5880
 0.5210	 8.7160
 0.5220	 8.8520
 0.5230	 8.9930
 0.5240	 9.1310
 0.5250	 9.2690
 0.5260	 9.3960
 0.5270	 9.5170
 0.5280	 9.6370
 0.5290	 9.7500
 0.5300	 9.8530
 0.5310	 9.9450
 0.5320	10.0330
 0.5330	10.1130
 0.5340	10.1840
 0.5350	10.2490
 0.5360	10.3090
 0.5370	10.3580
 0.5380	10.4050
 0.5390	10.4490
 0.5400	10.4920
 0.5410	10.5370
 0.5420	10.5870
 0.5430	10.6210
 0.5440	10.6560
 0.5450	10.6920
 0.5460	10.7210
 0.5470	10.7370
 0.5480	10.7530
 0.5490	10.7680
 0.5500	10.7820
 0.5510	10.7970
 0.5520	10.8050
 0.5530	10.8000
 0.5540	10.7860
 0.5550	10.7630
 0.5560	10.7310
 0.5570	10.6870
 0.5580	10.6350
 0.5590	10.5770
 0.5600	10.5110
 0.5610	10.4390
 0.5620	10.3660
 0.5630	10.2910
 0.5640	10.2130
 0.5650	10.1290
 0.5660	10.0380
 0.5670	 9.9430
 0.5680	 9.8520
 0.5690	 9.7580
 0.5700	 9.6630
 0.5710	 9.5650
 0.5720	 9.4720
 0.5730	 9.3870
 0.5740	 9.3130
 0.5750	 9.2420
 0.5760	 9.1700
 0.5770	 9.1030
 0.5780	 9.0350
 0.5790	 8.9720
 0.5800	 8.9150
 0.5810	 8.8670
 0.5820	 8.8240
 0.5830	 8.7840
 0.5840	 8.7470
 0.5850	 8.7140
 0.5860	 8.6840
 0.5870	 8.6590
 0.5880	 8.6360
 0.5890	 8.6110
 0.5900	 8.5960
 0.5910	 8.5880
 0.5920	 8.5830
 0.5930	 8.5750
 0.5940	 8.5640
 0.5950	 8.5490
 0.5960	 8.5320
 0.5970	 8.5210
 0.5980	 8.5090
 0.5990	 8.4910
 0.6000	 8.4760
 0.6010	 8.4590
 0.6020	 8.4410
 0.6030	 8.4210
 0.6040	 8.3960
 0.6050	 8.3710
 0.6060	 8.3440
 0.6070	 8.3130
 0.6080	 8.2780
 0.6090	 8.2490
 0.6100	 8.2250
 0.6110	 8.2090
 0.6120	 8.1710
 0.6130	 8.1260
 0.6140	 8.0850
 0.6150	 8.0520
 0.6160	 8.0200
 0.6170	 7.9900
 0.6180	 7.9660
 0.6190	 7.9430
 0.6200	 7.9220
 0.6210	 7.9050
 0.6220	 7.8910
 0.6230	 7.8760
 0.6240	 7.8630
 0.6250	 7.8520
 0.6260	 7.8470
 0.6270	 7.8380
 0.6280	 7.8260
 0.6290	 7.8210
 0.6300	 7.8170
 0.6310	 7.8140
 0.6320	 7.8090
 0.6330	 7.8010
 0.6340	 7.7940
 0.6350	 7.7830
 0.6360	 7.7720
 0.6370	 7.7600
 0.6380	 7.7430
 0.6390	 7.7210
 0.6400	 7.6970
 0.6410	 7.6730
 0.6420	 7.6510
 0.6430	 7.6280
 0.6440	 7.6080
 0.6450	 7.5860
 0.6460	 7.5640
 0.6470	 7.5440
 0.6480	 7.5250
 0.6490	 7.5070
 0.6500	 7.4900
 0.6510	 7.4740
 0.6520	 7.4640
 0.6530	 7.4530
 0.6540	 7.4440
 0.6550	 7.4330
 0.6560	 7.4190
 0.6570	 7.4060
 0.6580	 7.3920
 0.6590	 7.3750
 0.6600	 7.3600
 0.6610	 7.3470
 0.6620	 7.3340
 0.6630	 7.3260
 0.6640	 7.3210
 0.6650	 7.3120
 0.6660	 7.3080
 0.6670	 7.3070
 0.6680	 7.3060
 0.6690	 7.3100
 0.6700	 7.3150
 0.6710	 7.3230
 0.6720	 7.3330
 0.6730	 7.3440
 0.6740	 7.3570
 0.6750	 7.3700
 0.6760	 7.3820
 0.6770	 7.4010
 0.6780	 7.4240
 0.6790	 7.4500
 0.6800	 7.4710
 0.6810	 7.4960
 0.6820	 7.5210
 0.6830	 7.5500
 0.6840	 7.5810
 0.6850	 7.6150
 0.6860	 7.6530
 0.6870	 7.6930
 0.6880	 7.7410
 0.6890	 7.7990
 0.6900	 7.8710
 0.6910	 7.9670
 0.6920	 8.0820
 0.6930	 8.2290
 0.6940	 8.4210
 0.6950	 8.6500
 0.6960	 8.9240
 0.6970	 9.2470
 0.6980	 9.6180
 0.6990	10.0400
 0.7000	10.5100
 0.7010	11.0200
 0.7020	11.5760
 0.7030	12.1660
 0.7040	12.7860
 0.7050	13.4360
 0.7060	14.1070
 0.7070	14.8010
 0.7080	15.5130
 0.7090	16.2380
 0.7100	16.9820
 0.7110	17.7400
 0.7120	18.5080
 0.7130	19.2840
 0.7140	20.0720
 0.7150	20.8670
 0.7160	21.6620
 0.7170	22.4600
 0.7180	23.2610
 0.7190	24.0610
 0.7200	24.8570
 0.7210	25.6460
 0.7220	26.4300
 0.7230	27.2060
 0.7240	27.9650
 0.7250	28.7040
 0.7260	29.4280
 0.7270	30.1380
 0.7280	30.8220
 0.7290	31.4830
 0.7300	32.1200
 0.7310	32.7310
 0.7320	33.3150
 0.7330	33.8770
 0.7340	34.4160
 0.7350	34.9220
 0.7360	35.4090
 0.7370	35.8700
 0.7380	36.3010
 0.7390	36.7130
 0.7400	37.0990
 0.7410	37.4610
 0.7420	37.8050
 0.7430	38.1270
 0.7440	38.4240
 0.7450	38.6960
 0.7460	38.9500
 0.7470	39.1910
 0.7480	39.4110
 0.7490	39.6080
 0.7500	39.7990
 0.7510	39.9680
 0.7520	40.1220
 0.7530	40.2700
 0.7540	40.3970
 0.7550	40.5140
 0.7560	40.6230
 0.7570	40.7200
 0.7580	40.8070
 0.7590	40.8880
 0.7600	40.9620
 0.7610	41.0260
 0.7620	41.0900
 0.7630	41.1470
 0.7640	41.1900
 0.7650	41.2390
 0.7660	41.2820
 0.7670	41.3190
 0.7680	41.3550
 0.7690	41.3840
 0.7700	41.4100
 0.7710	41.4360
 0.7720	41.4570
 0.7730	41.4790
 0.7740	41.5030
 0.7750	41.5280
 0.7760	41.5420
 0.7770	41.5540
 0.7780	41.5690
 0.7790	41.5850
 0.7800	41.5950
 0.7810	41.6100
 0.7820	41.6290
 0.7830	41.6450
 0.7840	41.6530
 0.7850	41.6580
 0.7860	41.6640
 0.7870	41.6760
 0.7880	41.6860
 0.7890	41.6960
 0.7900	41.7100
 0.7910	41.7180
 0.7920	41.7230
 0.7930	41.7290
 0.7940	41.7370
 0.7950	41.7460
 0.7960	41.7520
 0.7970	41.7560
 0.7980	41.7560
 0.7990	41.7590
 0.8000	41.7620
 0.8010	41.7610
 0.8020	41.7650
 0.8030	41.7620
 0.8040	41.7590
 0.8050	41.7660
 0.8060	41.7650
 0.8070	41.7640
 0.8080	41.7640
 0.8090	41.7610
 0.8100	41.7570
 0.8110	41.7590
 0.8120	41.7640
 0.8130	41.7560
 0.8140	41.7440
 0.8150	41.7360
 0.8160	41.7350
 0.8170	41.7370
 0.8180	41.7330
 0.8190	41.7250
 0.8200	41.7170
 0.8210	41.7140
 0.8220	41.7170
 0.8230	41.7180
 0.8240	41.7080
 0.8250	41.6920
 0.8260	41.6820
 0.8270	41.6820
 0.8280	41.6790
 0.8290	41.6690
 0.8300	41.6610
 0.8310	41.6610
 0.8320	41.6560
 0.8330	41.6480
 0.8340	41.6430
 0.8350	41.6440
 0.8360	41.6370
 0.8370	41.6300
 0.8380	41.6280
 0.8390	41.6280
 0.8400	41.6230
 0.8410	41.6180
 0.8420	41.6170
 0.8430	41.6200
 0.8440	41.6160
 0.8450	41.6130
 0.8460	41.6160
 0.8470	41.6190
 0.8480	41.6190
 0.8490	41.6190
 0.8500	41.6230
 0.8510	41.6220
 0.8520	41.6230
 0.8530	41.6270
 0.8540	41.6290
 0.8550	41.6330
 0.8560	41.6310
 0.8570	41.6280
 0.8580	41.6360
 0.8590	41.6380
 0.8600	41.6400
 0.8610	41.6470
 0.8620	41.6440
 0.8630	41.6450
 0.8640	41.6470
 0.8650	41.6500
 0.8660	41.6580
 0.8670	41.6620
 0.8680	41.6640
 0.8690	41.6680
 0.8700	41.6720
 0.8710	41.6770
 0.8720	41.6810
 0.8730	41.6830
 0.8740	41.6920
 0.8750	41.7040
 0.8760	41.7120
 0.8770	41.7100
 0.8780	41.7150
 0.8790	41.7240
 0.8800	41.7330
 0.8810	41.7380
 0.8820	41.7380
 0.8830	41.7410
 0.8840	41.7500
 0.8850	41.7520
 0.8860	41.7570
 0.8870	41.7630
 0.8880	41.7630
 0.8890	41.7600
 0.8900	41.7630
 0.8910	41.7720
 0.8920	41.7830
 0.8930	41.7890
 0.8940	41.7940
 0.8950	41.7960
 0.8960	41.7980
 0.8970	41.8040
 0.8980	41.8070
 0.8990	41.8060
 0.9000	41.8060
 0.9010	41.8100
 0.9020	41.8220
 0.9030	41.8380
 0.9040	41.8410
 0.9050	41.8450
 0.9060	41.8490
 0.9070	41.8500
 0.9080	41.8470
 0.9090	41.8470
 0.9100	41.8490
 0.9110	41.8510
 0.9120	41.8580
 0.9130	41.8660
 0.9140	41.8710
 0.9150	41.8700
 0.9160	41.8730
 0.9170	41.8800
 0.9180	41.8820
 0.9190	41.8750
 0.9200	41.8810
 0.9210	41.8870
 0.9220	41.8860
 0.9230	41.8740
 0.9240	41.8660
 0.9250	41.8660
 0.9260	41.8680
 0.9270	41.8630
 0.9280	41.8540
 0.9290	41.8430
 0.9300	41.8310
 0.9310	41.8160
 0.9320	41.8150
 0.9330	41.8080
 0.9340	41.7940
 0.9350	41.7900
 0.9360	41.7760
 0.9370	41.7560
 0.9380	41.7370
 0.9390	41.7210
 0.9400	41.7070
 0.9410	41.6940
 0.9420	41.6760
 0.9430	41.6420
 0.9440	41.6180
 0.9450	41.5990
 0.9460	41.5770
 0.9470	41.5550
 0.9480	41.5200
 0.9490	41.4840
 0.9500	41.4550
 0.9510	41.4200
 0.9520	41.3790
 0.9530	41.3400
 0.9540	41.3040
 0.9550	41.2590
 0.9560	41.2140
 0.9570	41.1770
 0.9580	41.1500
 0.9590	41.1090
 0.9600	41.0740
 0.9610	41.0460
 0.9620	41.0190
 0.9630	40.9970
 0.9640	40.9780
 0.9650	40.9590
 0.9660	40.9350
 0.9670	40.9070
 0.9680	40.9040
 0.9690	40.9100
 0.9700	40.8960
 0.9710	40.8790
 0.9720	40.8650
 0.9730	40.8580
 0.9740	40.8560
 0.9750	40.8370
 0.9760	40.8390
 0.9770	40.8530
 0.9780	40.8470
 0.9790	40.8410
 0.9800	40.8440
 0.9810	40.8450
 0.9820	40.8300
 0.9830	40.8410
 0.9840	40.8620
 0.9850	40.8730
 0.9860	40.8650
 0.9870	40.8690
 0.9880	40.8800
 0.9890	40.8880
 0.9900	40.8860
 0.9910	40.9010
 0.9920	40.9090
 0.9930	40.9160
 0.9940	40.9340
 0.9950	40.9370
 0.9960	40.9560
 0.9970	40.9820
 0.9980	40.9920
 0.9990	41.0030
 1.0000	41.1270
 1.0010	41.3480
 1.0020	41.4710
 1.0030	41.4910
 1.0040	41.5110
 1.0050	41.5250
 1.0060	41.5430
 1.0070	41.5570
 1.0080	41.5690
 1.0090	41.5770
 1.0100	41.5890
 1.0110	41.6000
 1.0120	41.6130
 1.0130	41.6270
 1.0140	41.6400
 1.0150	41.6540
 1.0160	41.6650
 1.0170	41.6740
 1.0180	41.6840
 1.0190	41.6900
 1.0200	41.6980
 1.0210	41.7110
 1.0220	41.7240
 1.0230	41.7360
 1.0240	41.7500
 1.0250	41.7630
 1.0260	41.7760
 1.0270	41.7870
 1.0280	41.7990
 1.0290	41.8100
 1.0300	41.8170
 1.0310	41.8260
 1.0320	41.8360
 1.0330	41.8430
 1.0340	41.8540
 1.0350	41.8600
 1.0360	41.8650
 1.0370	41.8790
 1.0380	41.8890
 1.0390	41.9020
 1.0400	41.9120
 1.0410	41.9230
 1.0420	41.9310
 1.0430	41.9340
 1.0440	41.9410
 1.0450	41.9500
 1.0460	41.9580
 1.0470	41.9700
 1.0480	41.9790
 1.0490	41.9850
 1.0500	41.9910
 1.0510	41.9960
 1.0520	42.0040
 1.0530	42.0090
 1.0540	42.0150
 1.0550	42.0190
 1.0560	42.0210
 1.0570	42.0260
 1.0580	42.0350
 1.0590	42.0370
 1.0600	42.0360
 1.0610	42.0380
 1.0620	42.0380
 1.0630	42.0400
 1.0640	42.0490
 1.0650	42.0520
 1.0660	42.0480
 1.0670	42.0480
 1.0680	42.0470
 1.0690	42.0440
 1.0700	42.0440
 1.0710	42.0470
 1.0720	42.0470
 1.0730	42.0460
 1.0740	42.0440
 1.0750	42.0430
 1.0760	42.0390
 1.0770	42.0330
 1.0780	42.0280
 1.0790	42.0200
 1.0800	42.0170
 1.0810	42.0210
 1.0820	42.0200
 1.0830	42.0160
 1.0840	42.0140
 1.0850	42.0090
 1.0860	42.0040
 1.0870	41.9990
 1.0880	41.9970
 1.0890	41.9930
 1.0900	41.9870
 1.0910	41.9830
 1.0920	41.9820
 1.0930	41.9760
 1.0940	41.9660
 1.0950	41.9580
 1.0960	41.9510
 1.0970	41.9420
 1.0980	41.9320
 1.0990	41.9240
 1.1000	41.9130
 1.1010	41.9040
 1.1020	41.8960
 1.1030	41.8920
 1.1040	41.8860
 1.1050	41.8760
 1.1060	41.8660
 1.1070	41.8550
 1.1080	41.8450
 1.1090	41.8340
 1.1100	41.8220
 1.1110	41.8110
 1.1120	41.7990
 1.1130	41.7850
 1.1140	41.7710
 1.1150	41.7580
 1.1160	41.7450
 1.1170	41.7330
 1.1180	41.7190
 1.1190	41.7040
 1.1200	41.6860
 1.1210	41.6670
 1.1220	41.6450
 1.1230	41.6200
 1.1240	41.5940
 1.1250	41.5640
 1.1260	41.5320
 1.1270	41.4950
 1.1280	41.4540
 1.1290	41.4090
 1.1300	41.3590
 1.1310	41.3060
 1.1320	41.2500
 1.1330	41.1890
 1.1340	41.1260
 1.1350	41.0550
 1.1360	40.9790
 1.1370	40.8990
 1.1380	40.8120
 1.1390	40.7220
 1.1400	40.6300
 1.1410	40.5350
 1.1420	40.4390
 1.1430	40.3410
 1.1440	40.2430
 1.1450	40.1420
 1.1460	40.0460
 1.1470	39.9470
 1.1480	39.8530
 1.1490	39.7610
 1.1500	39.6740
 1.1510	39.5900
 1.1520	39.5120
 1.1530	39.4390
 1.1540	39.3730
 1.1550	39.3120
 1.1560	39.2550
 1.1570	39.2030
 1.1580	39.1570
 1.1590	39.1170
 1.1600	39.0820
 1.1610	39.0530
 1.1620	39.0270
 1.1630	39.0030
 1.1640	38.9820
 1.1650	38.9630
 1.1660	38.9450
 1.1670	38.9310
 1.1680	38.9200
 1.1690	38.9090
 1.1700	38.8990
 1.1710	38.8900
 1.1720	38.8820
 1.1730	38.8740
 1.1740	38.8680
 1.1750	38.8610
 1.1760	38.8520
 1.1770	38.8420
 1.1780	38.8310
 1.1790	38.8200
 1.1800	38.8090
 1.1810	38.7970
 1.1820	38.7840
 1.1830	38.7700
 1.1840	38.7580
 1.1850	38.7460
 1.1860	38.7360
 1.1870	38.7280
 1.1880	38.7200
 1.1890	38.7140
 1.1900	38.7090
 1.1910	38.7040
 1.1920	38.7010
 1.1930	38.7000
 1.1940	38.6980
 1.1950	38.6950
 1.1960	38.6950
 1.1970	38.6930
 1.1980	38.6930
 1.1990	38.6970
 1.2000	38.6990
 1.2010	38.7020
 1.2020	38.7070
 1.2030	38.7120
 1.2040	38.7180
 1.2050	38.7280
 1.2060	38.7380
 1.2070	38.7480
 1.2080	38.7600
 1.2090	38.7730
 1.2100	38.7850
 1.2110	38.7990
 1.2120	38.8130
 1.2130	38.8280
 1.2140	38.8430
 1.2150	38.8600
 1.2160	38.8800
 1.2170	38.8990
 1.2180	38.9180
 1.2190	38.9370
 1.2200	38.9560
 1.2210	38.9750
 1.2220	38.9940
 1.2230	39.0130
 1.2240	39.0310
 1.2250	39.0490
 1.2260	39.0670
 1.2270	39.0850
 1.2280	39.1010
 1.2290	39.1170
 1.2300	39.1350
 1.2310	39.1520
 1.2320	39.1680
 1.2330	39.1860
 1.2340	39.2000
 1.2350	39.2120
 1.2360	39.2250
 1.2370	39.2360
 1.2380	39.2470
 1.2390	39.2610
 1.2400	39.2730
 1.2410	39.2850
 1.2420	39.2970
 1.2430	39.3060
 1.2440	39.3160
 1.2450	39.3270
 1.2460	39.3400
 1.2470	39.3500
 1.2480	39.3580
 1.2490	39.3670
 1.2500	39.3710
 1.2510	39.3770
 1.2520	39.3830
 1.2530	39.3870
 1.2540	39.3910
 1.2550	39.3940
 1.2560	39.4000
 1.2570	39.4060
 1.2580	39.4100
 1.2590	39.4130
 1.2600	39.4140
 1.2610	39.4160
 1.2620	39.4170
 1.2630	39.4200
 1.2640	39.4200
 1.2650	39.4190
 1.2660	39.4170
 1.2670	39.4130
 1.2680	39.4090
 1.2690	39.4040
 1.2700	39.4000
 1.2710	39.3930
 1.2720	39.3870
 1.2730	39.3830
 1.2740	39.3760
 1.2750	39.3680
 1.2760	39.3580
 1.2770	39.3470
 1.2780	39.3380
 1.2790	39.3280
 1.2800	39.3160
 1.2810	39.3050
 1.2820	39.2920
 1.2830	39.2780
 1.2840	39.2630
 1.2850	39.2470
 1.2860	39.2300
 1.2870	39.2110
 1.2880	39.1900
 1.2890	39.1700
 1.2900	39.1470
 1.2910	39.1210
 1.2920	39.0960
 1.2930	39.0690
 1.2940	39.0430
 1.2950	39.0160
 1.2960	38.9880
 1.2970	38.9580
 1.2980	38.9240
 1.2990	38.8870
 1.3000	38.8500
 1.3010	38.8120
 1.3020	38.7720
 1.3030	38.7300
 1.3040	38.6860
 1.3050	38.6380
 1.3060	38.5890
 1.3070	38.5390
 1.3080	38.4860
 1.3090	38.4320
 1.3100	38.3770
 1.3110	38.3210
 1.3120	38.2630
 1.3130	38.2030
 1.3140	38.1380
 1.3150	38.0690
 1.3160	38.0000
 1.3170	37.9290
 1.3180	37.8550
 1.3190	37.7800
 1.3200	37.7030
 1.3210	37.6220
 1.3220	37.5380
 1.3230	37.4520
 1.3240	37.3640
 1.3250	37.2750
 1.3260	37.1830
 1.3270	37.0890
 1.3280	36.9940
 1.3290	36.8940
 1.3300	36.7960
 1.3310	36.6970
 1.3320	36.5950
 1.3330	36.4940
 1.3340	36.3890
 1.3350	36.2820
 1.3360	36.1760
 1.3370	36.0680
 1.3380	35.9620
 1.3390	35.8550
 1.3400	35.7470
 1.3410	35.6400
 1.3420	35.5340
 1.3430	35.4280
 1.3440	35.3240
 1.3450	35.2210
 1.3460	35.1190
 1.3470	35.0180
 1.3480	34.9170
 1.3490	34.8170
 1.3500	34.7190
 1.3510	34.6190
 1.3520	34.5180
 1.3530	34.4180
 1.3540	34.3150
 1.3550	34.2130
 1.3560	34.1150
 1.3570	34.0120
 1.3580	33.9090
 1.3590	33.8040
 1.3600	33.6950
 1.3610	33.5830
 1.3620	33.4680
 1.3630	33.3500
 1.3640	33.2260
 1.3650	33.0970
 1.3660	32.9630
 1.3670	32.8190
 1.3680	32.6680
 1.3690	32.5090
 1.3700	32.3370
 1.3710	32.1570
 1.3720	31.9640
 1.3730	31.7570
 1.3740	31.5380
 1.3750	31.3020
 1.3760	31.0480
 1.3770	30.7770
 1.3780	30.4850
 1.3790	30.1740
 1.3800	29.8440
 1.3810	29.4920
 1.3820	29.1250
 1.3830	28.7380
 1.3840	28.3360
 1.3850	27.9180
 1.3860	27.4860
 1.3870	27.0350
 1.3880	26.5780
 1.3890	26.1100
 1.3900	25.6320
 1.3910	25.1530
 1.3920	24.6670
 1.3930	24.1770
 1.3940	23.6890
 1.3950	23.1970
 1.3960	22.7110
 1.3970	22.2330
 1.3980	21.7640
 1.3990	21.3110
 1.4000	20.8700
 1.4010	20.4400
 1.4020	20.0280
 1.4030	19.6300
 1.4040	19.2500
 1.4050	18.8890
 1.4060	18.5460
 1.4070	18.2240
 1.4080	17.9200
 1.4090	17.6330
 1.4100	17.3680
 1.4110	17.1180
 1.4120	16.8880
 1.4130	16.6750
 1.4140	16.4770
 1.4150	16.2960
 1.4160	16.1290
 1.4170	15.9740
 1.4180	15.8340
 1.4190	15.7040
 1.4200	15.5870
 1.4210	15.4810
 1.4220	15.3840
 1.4230	15.2970
 1.4240	15.2170
 1.4250	15.1450
 1.4260	15.0830
 1.4270	15.0250
 1.4280	14.9760
 1.4290	14.9310
 1.4300	14.8920
 1.4310	14.8580
 1.4320	14.8300
 1.4330	14.8060
 1.4340	14.7870
 1.4350	14.7720
 1.4360	14.7600
 1.4370	14.7520
 1.4380	14.7460
 1.4390	14.7430
 1.4400	14.7430
 1.4410	14.7450
 1.4420	14.7500
 1.4430	14.7570
 1.4440	14.7650
 1.4450	14.7740
 1.4460	14.7850
 1.4470	14.7980
 1.4480	14.8100
 1.4490	14.8240
 1.4500	14.8400
 1.4510	14.8560
 1.4520	14.8740
 1.4530	14.8930
 1.4540	14.9120
 1.4550	14.9340
 1.4560	14.9580
 1.4570	14.9830
 1.4580	15.0120
 1.4590	15.0440
 1.4600	15.0790
 1.4610	15.1150
 1.4620	15.1550
 1.4630	15.1990
 1.4640	15.2470
 1.4650	15.3000
 1.4660	15.3570
 1.4670	15.4180
 1.4680	15.4830
 1.4690	15.5510
 1.4700	15.6230
 1.4710	15.6990
 1.4720	15.7780
 1.4730	15.8600
 1.4740	15.9440
 1.4750	16.0310
 1.4760	16.1220
 1.4770	16.2140
 1.4780	16.3080
 1.4790	16.4050
 1.4800	16.5030
 1.4810	16.6010
 1.4820	16.7020
 1.4830	16.8030
 1.4840	16.9060
 1.4850	17.0100
 1.4860	17.1130
 1.4870	17.2190
 1.4880	17.3240
 1.4890	17.4280
 1.4900	17.5340
 1.4910	17.6400
 1.4920	17.7460
 1.4930	17.8540
 1.4940	17.9610
 1.4950	18.0690
 1.4960	18.1770
 1.4970	18.2850
 1.4980	18.3920
 1.4990	18.4990
 1.5000	18.6060
 1.5010	18.7140
 1.5020	18.8210
 1.5030	18.9280
 1.5040	19.0360
 1.5050	19.1430
 1.5060	19.2500
 1.5070	19.3560
 1.5080	19.4620
 1.5090	19.5680
 1.5100	19.6740
 1.5110	19.7780
 1.5120	19.8840
 1.5130	19.9880
 1.5140	20.0890
 1.5150	20.1920
 1.5160	20.2940
 1.5170	20.3950
 1.5180	20.4970
 1.5190	20.5970
 1.5200	20.6970
 1.5210	20.7960
 1.5220	20.8940
 1.5230	20.9920
 1.5240	21.0880
 1.5250	21.1840
 1.5260	21.2790
 1.5270	21.3730
 1.5280	21.4670
 1.5290	21.5590
 1.5300	21.6500
 1.5310	21.7410
 1.5320	21.8300
 1.5330	21.9190
 1.5340	22.0080
 1.5350	22.0960
 1.5360	22.1840
 1.5370	22.2690
 1.5380	22.3530
 1.5390	22.4380
 1.5400	22.5200
 1.5410	22.6040
 1.5420	22.6880
 1.5430	22.7700
 1.5440	22.8510
 1.5450	22.9320
 1.5460	23.0110
 1.5470	23.0900
 1.5480	23.1670
 1.5490	23.2430
 1.5500	23.3170
 1.5510	23.3910
 1.5520	23.4660
 1.5530	23.5400
 1.5540	23.6130
 1.5550	23.6870
 1.5560	23.7570
 1.5570	23.8290
 1.5580	23.8990
 1.5590	23.9670
 1.5600	24.0370
 1.5610	24.1040
 1.5620	24.1680
 1.5630	24.2330
 1.5640	24.2960
 1.5650	24.3590
 1.5660	24.4210
 1.5670	24.4830
 1.5680	24.5450
 1.5690	24.6050
 1.5700	24.6660
 1.5710	24.7260
 1.5720	24.7850
 1.5730	24.8450
 1.5740	24.9060
 1.5750	24.9650
 1.5760	25.0240
 1.5770	25.0820
 1.5780	25.1390
 1.5790	25.1960
 1.5800	25.2520
 1.5810	25.3080
 1.5820	25.3650
 1.5830	25.4200
 1.5840	25.4750
 1.5850	25.5300
 1.5860	25.5840
 1.5870	25.6390
 1.5880	25.6920
 1.5890	25.7450
 1.5900	25.7980
 1.5910	25.8500
 1.5920	25.9020
 1.5930	25.9530
 1.5940	26.0030
 1.5950	26.0550
 1.5960	26.1060
 1.5970	26.1560
 1.5980	26.2050
 1.5990	26.2530
 1.6000	26.3010
 1.6010	26.3490
 1.6020	26.3970
 1.6030	26.4430
 1.6040	26.4890
 1.6050	26.5340
 1.6060	26.5770
 1.6070	26.6200
 1.6080	26.6620
 1.6090	26.7030
 1.6100	26.7450
 1.6110	26.7870
 1.6120	26.8260
 1.6130	26.8660
 1.6140	26.9040
 1.6150	26.9410
 1.6160	26.9800
 1.6170	27.0170
 1.6180	27.0540
 1.6190	27.0910
 1.6200	27.1250
 1.6210	27.1590
 1.6220	27.1940
 1.6230	27.2270
 1.6240	27.2600
 1.6250	27.2940
 1.6260	27.3270
 1.6270	27.3590
 1.6280	27.3900
 1.6290	27.4190
 1.6300	27.4460
 1.6310	27.4730
 1.6320	27.4990
 1.6330	27.5250
 1.6340	27.5500
 1.6350	27.5740
 1.6360	27.6000
 1.6370	27.6210
 1.6380	27.6410
 1.6390	27.6590
 1.6400	27.6760
 1.6410	27.6920
 1.6420	27.7080
 1.6430	27.7220
 1.6440	27.7340
 1.6450	27.7430
 1.6460	27.7520
 1.6470	27.7580
 1.6480	27.7640
 1.6490	27.7670
 1.6500	27.7690
 1.6510	27.7690
 1.6520	27.7650
 1.6530	27.7610
 1.6540	27.7560
 1.6550	27.7500
 1.6560	27.7440
 1.6570	27.7380
 1.6580	27.7320
 1.6590	27.7240
 1.6600	27.7180
 1.6610	27.7120
 1.6620	27.7050
 1.6630	27.6990
 1.6640	27.6940
 1.6650	27.6870
 1.6660	27.6820
 1.6670	27.6770
 1.6680	27.6730
 1.6690	27.6700
 1.6700	27.6650
 1.6710	27.6590
 1.6720	27.6520
 1.6730	27.6400
 1.6740	27.6280
 1.6750	27.6150
 1.6760	27.6010
 1.6770	27.5880
 1.6780	27.5730
 1.6790	27.5560
 1.6800	27.5360
 1.6810	27.5110
 1.6820	27.4860
 1.6830	27.4570
 1.6840	27.4250
 1.6850	27.3930
 1.6860	27.3580
 1.6870	27.3220
 1.6880	27.2860
 1.6890	27.2480
 1.6900	27.2110
 1.6910	27.1730
 1.6920	27.1350
 1.6930	27.0980
 1.6940	27.0590
 1.6950	27.0190
 1.6960	26.9800
 1.6970	26.9410
 1.6980	26.9000
 1.6990	26.8600
 1.7000	26.8190
 1.7010	26.7760
 1.7020	26.7340
 1.7030	26.6930
 1.7040	26.6500
 1.7050	26.6060
 1.7060	26.5630
 1.7070	26.5170
 1.7080	26.4750
 1.7090	26.4350
 1.7100	26.3930
 1.7110	26.3520
 1.7120	26.3110
 1.7130	26.2690
 1.7140	26.2270
 1.7150	26.1890
 1.7160	26.1480
 1.7170	26.1080
 1.7180	26.0700
 1.7190	26.0310
 1.7200	25.9920
 1.7210	25.9550
 1.7220	25.9170
 1.7230	25.8780
 1.7240	25.8390
 1.7250	25.8030
 1.7260	25.7670
 1.7270	25.7330
 1.7280	25.7000
 1.7290	25.6670
 1.7300	25.6330
 1.7310	25.6020
 1.7320	25.5730
 1.7330	25.5430
 1.7340	25.5130
 1.7350	25.4820
 1.7360	25.4500
 1.7370	25.4150
 1.7380	25.3770
 1.7390	25.3390
 1.7400	25.3000
 1.7410	25.2590
 1.7420	25.2200
 1.7430	25.1770
 1.7440	25.1310
 1.7450	25.0860
 1.7460	25.0380
 1.7470	24.9940
 1.7480	24.9510
 1.7490	24.9060
 1.7500	24.8620
 1.7510	24.8160
 1.7520	24.7660
 1.7530	24.7190
 1.7540	24.6720
 1.7550	24.6280
 1.7560	24.5840
 1.7570	24.5370
 1.7580	24.4920
 1.7590	24.4460
 1.7600	24.4000
 1.7610	24.3570
 1.7620	24.3160
 1.7630	24.2740
 1.7640	24.2350
 1.7650	24.2000
 1.7660	24.1640
 1.7670	24.1310
 1.7680	24.0970
 1.7690	24.0610
 1.7700	24.0290
 1.7710	23.9990
 1.7720	23.9680
 1.7730	23.9400
 1.7740	23.9110
 1.7750	23.8790
 1.7760	23.8500
 1.7770	23.8220
 1.7780	23.7970
 1.7790	23.7770
 1.7800	23.7540
 1.7810	23.7340
 1.7820	23.7140
 1.7830	23.6930
 1.7840	23.6750
 1.7850	23.6590
 1.7860	23.6430
 1.7870	23.6280
 1.7880	23.6140
 1.7890	23.6010
 1.7900	23.5880
 1.7910	23.5770
 1.7920	23.5690
 1.7930	23.5620
 1.7940	23.5590
 1.7950	23.5560
 1.7960	23.5530
 1.7970	23.5520
 1.7980	23.5530
 1.7990	23.5530
 1.8000	23.5550
 1.8010	23.5560
 1.8020	23.5570
 1.8030	23.5590
 1.8040	23.5630
 1.8050	23.5660
 1.8060	23.5690
 1.8070	23.5720
 1.8080	23.5740
 1.8090	23.5770
 1.8100	23.5820
 1.8110	23.5840
 1.8120	23.5870
 1.8130	23.5890
 1.8140	23.5880
 1.8150	23.5910
 1.8160	23.5930
 1.8170	23.5960
 1.8180	23.6010
 1.8190	23.6000
 1.8200	23.6010
 1.8210	23.6010
 1.8220	23.5990
 1.8230	23.5970
 1.8240	23.5930
 1.8250	23.5850
 1.8260	23.5780
 1.8270	23.5750
 1.8280	23.5660
 1.8290	23.5540
 1.8300	23.5950
 1.8310	23.7010
 1.8320	23.7290
 1.8330	23.7040
 1.8340	23.6770
 1.8350	23.6470
 1.8360	23.6140
 1.8370	23.5780
 1.8380	23.5380
 1.8390	23.4930
 1.8400	23.4480
 1.8410	23.3920
 1.8420	23.3290
 1.8430	23.2580
 1.8440	23.1800
 1.8450	23.0990
 1.8460	23.0160
 1.8470	22.9280
 1.8480	22.8320
 1.8490	22.7270
 1.8500	22.6110
 1.8510	22.4820
 1.8520	22.3460
 1.8530	22.1990
 1.8540	22.0440
 1.8550	21.8830
 1.8560	21.7090
 1.8570	21.5220
 1.8580	21.3240
 1.8590	21.1130
 1.8600	20.8880
 1.8610	20.6510
 1.8620	20.4020
 1.8630	20.1420
 1.8640	19.8640
 1.8650	19.5690
 1.8660	19.2630
 1.8670	18.9370
 1.8680	18.5980
 1.8690	18.2470
 1.8700	17.8800
 1.8710	17.4970
 1.8720	17.1080
 1.8730	16.7090
 1.8740	16.3010
 1.8750	15.8920
 1.8760	15.4730
 1.8770	15.0520
 1.8780	14.6290
 1.8790	14.2030
 1.8800	13.7860
 1.8810	13.3720
 1.8820	12.9630
 1.8830	12.5600
 1.8840	12.1640
 1.8850	11.7740
 1.8860	11.3960
 1.8870	11.0300
 1.8880	10.6770
 1.8890	10.3440
 1.8900	10.0280
 1.8910	 9.7310
 1.8920	 9.4470
 1.8930	 9.1870
 1.8940	 8.9420
 1.8950	 8.7130
 1.8960	 8.5030
 1.8970	 8.3120
 1.8980	 8.1400
 1.8990	 7.9840
 1.9000	 7.8420
 1.9010	 7.7120
 1.9020	 7.5960
 1.9030	 7.4920
 1.9040	 7.3980
 1.9050	 7.3160
 1.9060	 7.2440
 1.9070	 7.1780
 1.9080	 7.1220
 1.9090	 7.0740
 1.9100	 7.0360
 1.9110	 6.9980
 1.9120	 6.9630
 1.9130	 6.9330
 1.9140	 6.9070
 1.9150	 6.8840
 1.9160	 6.8670
 1.9170	 6.8520
 1.9180	 6.8420
 1.9190	 6.8310
 1.9200	 6.8200
 1.9210	 6.8110
 1.9220	 6.8060
 1.9230	 6.8010
 1.9240	 6.8010
 1.9250	 6.8040
 1.9260	 6.8080
 1.9270	 6.8120
 1.9280	 6.8170
 1.9290	 6.8220
 1.9300	 6.8290
 1.9310	 6.8330
 1.9320	 6.8390
 1.9330	 6.8470
 1.9340	 6.8600
 1.9350	 6.8710
 1.9360	 6.8860
 1.9370	 6.8990
 1.9380	 6.9130
 1.9390	 6.9260
 1.9400	 6.9440
 1.9410	 6.9580
 1.9420	 6.9770
 1.9430	 6.9970
 1.9440	 7.0170
 1.9450	 7.0400
 1.9460	 7.0620
 1.9470	 7.0820
 1.9480	 7.1040
 1.9490	 7.1250
 1.9500	 7.1490
 1.9510	 7.1710
 1.9520	 7.1950
 1.9530	 7.2200
 1.9540	 7.2460
 1.9550	 7.2720
 1.9560	 7.3030
 1.9570	 7.3340
 1.9580	 7.3620
 1.9590	 7.3940
 1.9600	 7.4240
 1.9610	 7.4560
 1.9620	 7.4870
 1.9630	 7.5200
 1.9640	 7.5530
 1.9650	 7.5880
 1.9660	 7.6240
 1.9670	 7.6580
 1.9680	 7.6950
 1.9690	 7.7270
 1.9700	 7.7640
 1.9710	 7.8020
 1.9720	 7.8410
 1.9730	 7.8800
 1.9740	 7.9210
 1.9750	 7.9620
 1.9760	 8.0020
 1.9770	 8.0460
 1.9780	 8.0870
 1.9790	 8.1280
 1.9800	 8.1720
 1.9810	 8.2160
 1.9820	 8.2630
 1.9830	 8.3080
 1.9840	 8.3540
 1.9850	 8.4020
 1.9860	 8.4460
 1.9870	 8.4930
 1.9880	 8.5410
 1.9890	 8.5850
 1.9900	 8.6360
 1.9910	 8.6860
 1.9920	 8.7360
 1.9930	 8.7880
 1.9940	 8.8380
 1.9950	 8.8830
 1.9960	 8.9350
 1.9970	 8.9890
 1.9980	 9.0410
 1.9990	 9.0930
 2.0000	 9.1440
 2.0010	 9.1940
 2.0020	 9.2450
 2.0030	 9.3000
 2.0040	 9.3580
 2.0050	 9.4100
 2.0060	 9.4630
 2.0070	 9.5140
 2.0080	 9.5620
 2.0090	 9.6120
 2.0100	 9.6660
 2.0110	 9.7170
 2.0120	 9.7680
 2.0130	 9.8180
 2.0140	 9.8660
 2.0150	 9.9130
 2.0160	 9.9640
 2.0170	10.0160
 2.0180	10.0640
 2.0190	10.1180
 2.0200	10.1640
 2.0210	10.2090
 2.0220	10.2540
 2.0230	10.3000
 2.0240	10.3450
 2.0250	10.3900
 2.0260	10.4330
 2.0270	10.4720
 2.0280	10.5110
 2.0290	10.5520
 2.0300	10.5920
 2.0310	10.6320
 2.0320	10.6720
 2.0330	10.7110
 2.0340	10.7500
 2.0350	10.7860
 2.0360	10.8230
 2.0370	10.8580
 2.0380	10.8920
 2.0390	10.9260
 2.0400	10.9570
 2.0410	10.9900
 2.0420	11.0220
 2.0430	11.0520
 2.0440	11.0840
 2.0450	11.1170
 2.0460	11.1490
 2.0470	11.1780
 2.0480	11.2090
 2.0490	11.2390
 2.0500	11.2680
 2.0510	11.2980
 2.0520	11.3280
 2.0530	11.3560
 2.0540	11.3870
 2.0550	11.4180
 2.0560	11.4480
 2.0570	11.4790
 2.0580	11.5130
 2.0590	11.5460
 2.0600	11.5810
 2.0610	11.6160
 2.0620	11.6520
 2.0630	11.6840
 2.0640	11.7140
 2.0650	11.7460
 2.0660	11.7730
 2.0670	11.8030
 2.0680	11.8350
 2.0690	11.8670
 2.0700	11.9000
 2.0710	11.9340
 2.0720	11.9690
 2.0730	12.0050
 2.0740	12.0380
 2.0750	12.0710
 2.0760	12.1030
 2.0770	12.1330
 2.0780	12.1630
 2.0790	12.1940
 2.0800	12.2260
 2.0810	12.2570
 2.0820	12.2890
 2.0830	12.3220
 2.0840	12.3510
 2.0850	12.3790
 2.0860	12.4070
 2.0870	12.4350
 2.0880	12.4640
 2.0890	12.4920
 2.0900	12.5220
 2.0910	12.5520
 2.0920	12.5820
 2.0930	12.6090
 2.0940	12.6370
 2.0950	12.6640
 2.0960	12.6910
 2.0970	12.7180
 2.0980	12.7480
 2.0990	12.7770
 2.1000	12.8040
 2.1010	12.8310
 2.1020	12.8580
 2.1030	12.8830
 2.1040	12.9110
 2.1050	12.9370
 2.1060	12.9620
 2.1070	12.9840
 2.1080	13.0090
 2.1090	13.0310
 2.1100	13.0560
 2.1110	13.0820
 2.1120	13.1080
 2.1130	13.1340
 2.1140	13.1610
 2.1150	13.1900
 2.1160	13.2140
 2.1170	13.2370
 2.1180	13.2610
 2.1190	13.2820
 2.1200	13.3030
 2.1210	13.3250
 2.1220	13.3490
 2.1230	13.3730
 2.1240	13.3970
 2.1250	13.4190
 2.1260	13.4420
 2.1270	13.4630
 2.1280	13.4820
 2.1290	13.5000
 2.1300	13.5180
 2.1310	13.5350
 2.1320	13.5490
 2.1330	13.5650
 2.1340	13.5830
 2.1350	13.5990
 2.1360	13.6120
 2.1370	13.6280
 2.1380	13.6420
 2.1390	13.6570
 2.1400	13.6730
 2.1410	13.6900
 2.1420	13.7080
 2.1430	13.7250
 2.1440	13.7430
 2.1450	13.7630
 2.1460	13.7800
 2.1470	13.7940
 2.1480	13.8090
 2.1490	13.8230
 2.1500	13.8390
 2.1510	13.8570
 2.1520	13.8730
 2.1530	13.8890
 2.1540	13.9040
 2.1550	13.9200
 2.1560	13.9310
 2.1570	13.9350
 2.1580	13.9430
 2.1590	13.9510
 2.1600	13.9560
 2.1610	13.9720
 2.1620	13.9880
 2.1630	14.0010
 2.1640	14.0140
 2.1650	14.0270
 2.1660	14.0390
 2.1670	14.0520
 2.1680	14.0640
 2.1690	14.0780
 2.1700	14.0940
 2.1710	14.1090
 2.1720	14.1270
 2.1730	14.1430
 2.1740	14.1550
 2.1750	14.1690
 2.1760	14.1800
 2.1770	14.1950
 2.1780	14.2120
 2.1790	14.2290
 2.1800	14.2470
 2.1810	14.2660
 2.1820	14.2870
 2.1830	14.3060
 2.1840	14.3250
 2.1850	14.3440
 2.1860	14.3640
 2.1870	14.3800
 2.1880	14.4010
 2.1890	14.4250
 2.1900	14.4450
 2.1910	14.4660
 2.1920	14.4840
 2.1930	14.4980
 2.1940	14.5150
 2.1950	14.5340
 2.1960	14.5530
 2.1970	14.5750
 2.1980	14.5930
 2.1990	14.6060
 2.2000	14.6230
 2.2010	14.6380
 2.2020	14.6550
 2.2030	14.6750
 2.2040	14.6930
 2.2050	14.7110
 2.2060	14.7260
 2.2070	14.7390
 2.2080	14.7480
 2.2090	14.7600
 2.2100	14.7710
 2.2110	14.7830
 2.2120	14.7990
 2.2130	14.8100
 2.2140	14.8180
 2.2150	14.8280
 2.2160	14.8380
 2.2170	14.8460
 2.2180	14.8540
 2.2190	14.8610
 2.2200	14.8660
 2.2210	14.8680
 2.2220	14.8670
 2.2230	14.8640
 2.2240	14.8570
 2.2250	14.8510
 2.2260	14.8480
 2.2270	14.8410
 2.2280	14.8360
 2.2290	14.8250
 2.2300	14.8110
 2.2310	14.7940
 2.2320	14.7690
 2.2330	14.7440
 2.2340	14.7200
 2.2350	14.6940
 2.2360	14.6690
 2.2370	14.6470
 2.2380	14.6170
 2.2390	14.5820
 2.2400	14.5460
 2.2410	14.5050
 2.2420	14.4650
 2.2430	14.4250
 2.2440	14.3840
 2.2450	14.3430
 2.2460	14.3000
 2.2470	14.2560
 2.2480	14.2130
 2.2490	14.1710
 2.2500	14.1260
 2.2510	14.0820
 2.2520	14.0350
 2.2530	13.9830
 2.2540	13.9340
 2.2550	13.8870
 2.2560	13.8390
 2.2570	13.7930
 2.2580	13.7460
 2.2590	13.7000
 2.2600	13.6520
 2.2610	13.6010
 2.2620	13.5540
 2.2630	13.5090
 2.2640	13.4590
 2.2650	13.4130
 2.2660	13.3700
 2.2670	13.3280
 2.2680	13.2900
 2.2690	13.2480
 2.2700	13.2060
 2.2710	13.1630
 2.2720	13.1170
 2.2730	13.0770
 2.2740	13.0400
 2.2750	13.0030
 2.2760	12.9690
 2.2770	12.9340
 2.2780	12.8970
 2.2790	12.8580
 2.2800	12.8170
 2.2810	12.7830
 2.2820	12.7550
 2.2830	12.7210
 2.2840	12.6900
 2.2850	12.6560
 2.2860	12.6180
 2.2870	12.5830
 2.2880	12.5520
 2.2890	12.5190
 2.2900	12.4850
 2.2910	12.4480
 2.2920	12.4080
 2.2930	12.3690
 2.2940	12.3250
 2.2950	12.2850
 2.2960	12.2460
 2.2970	12.2080
 2.2980	12.1740
 2.2990	12.1410
 2.3000	12.1110
 2.3010	12.0770
 2.3020	12.0430
 2.3030	12.0120
 2.3040	11.9760
 2.3050	11.9430
 2.3060	11.9100
 2.3070	11.8790
 2.3080	11.8530
 2.3090	11.8320
 2.3100	11.8130
 2.3110	11.7910
 2.3120	11.7720
 2.3130	11.7550
 2.3140	11.7360
 2.3150	11.7200
 2.3160	11.7020
 2.3170	11.6820
 2.3180	11.6660
 2.3190	11.6510
 2.3200	11.6340
 2.3210	11.6190
 2.3220	11.6010
 2.3230	11.5830
 2.3240	11.5600
 2.3250	11.5360
 2.3260	11.5120
 2.3270	11.4850
 2.3280	11.4560
 2.3290	11.4230
 2.3300	11.3900
 2.3310	11.3490
 2.3320	11.3150
 2.3330	11.2830
 2.3340	11.2550
 2.3350	11.2340
 2.3360	11.2030
 2.3370	11.1690
 2.3380	11.1360
 2.3390	11.0940
 2.3400	11.0570
 2.3410	11.0210
 2.3420	10.9880
 2.3430	10.9490
 2.3440	10.9170
 2.3450	10.8930
 2.3460	10.8700
 2.3470	10.8530
 2.3480	10.8310
 2.3490	10.8040
 2.3500	10.7800
 2.3510	10.7590
 2.3520	10.7330
 2.3530	10.7020
 2.3540	10.6720
 2.3550	10.6510
 2.3560	10.6320
 2.3570	10.6240
 2.3580	10.6120
 2.3590	10.5890
 2.3600	10.5610
 2.3610	10.5350
 2.3620	10.5180
 2.3630	10.4990
 2.3640	10.4840
 2.3650	10.4680
 2.3660	10.4410
 2.3670	10.4060
 2.3680	10.3720
 2.3690	10.3400
 2.3700	10.3130
 2.3710	10.3010
 2.3720	10.2810
 2.3730	10.2460
 2.3740	10.2150
 2.3750	10.1870
 2.3760	10.1580
 2.3770	10.1360
 2.3780	10.1090
 2.3790	10.0740
 2.3800	10.0470
 2.3810	10.0230
 2.3820	 9.9960
 2.3830	 9.9640
 2.3840	 9.9310
 2.3850	 9.8950
 2.3860	 9.8560
 2.3870	 9.8260
 2.3880	 9.7950
 2.3890	 9.7640
 2.3900	 9.7410
 2.3910	 9.7210
 2.3920	 9.6930
 2.3930	 9.6610
 2.3940	 9.6290
 2.3950	 9.5860
 2.3960	 9.5520
 2.3970	 9.5230
 2.3980	 9.4960
 2.3990	 9.4720
 2.4000	 9.4360
 2.4010	 9.4100
 2.4020	 9.3810
 2.4030	 9.3410
 2.4040	 9.3170
 2.4050	 9.2890
 2.4060	 9.2550
 2.4070	 9.2310
 2.4080	 9.1980
 2.4090	 9.1520
 2.4100	 9.1060
 2.4110	 9.0700
 2.4120	 9.0350
 2.4130	 9.0110
 2.4140	 8.9900
 2.4150	 8.9540
 2.4160	 8.9160
 2.4170	 8.8710
 2.4180	 8.8260
 2.4190	 8.7890
 2.4200	 8.7560
 2.4210	 8.7300
 2.4220	 8.7020
 2.4230	 8.6710
 2.4240	 8.6400
 2.4250	 8.6090
 2.4260	 8.5790
 2.4270	 8.5460
 2.4280	 8.5070
 2.4290	 8.4700
 2.4300	 8.4390
 2.4310	 8.4100
 2.4320	 8.3960
 2.4330	 8.3740
 2.4340	 8.3390
 2.4350	 8.3180
 2.4360	 8.2840
 2.4370	 8.2520
 2.4380	 8.2230
 2.4390	 8.1850
 2.4400	 8.1630
 2.4410	 8.1470
 2.4420	 8.1270
 2.4430	 8.1010
 2.4440	 8.0630
 2.4450	 8.0150
 2.4460	 7.9590
 2.4470	 7.9270
 2.4480	 7.8980
 2.4490	 7.8550
 2.4500	 7.8350
 2.4510	 7.8040
 2.4520	 7.7750
 2.4530	 7.7640
 2.4540	 7.7440
 2.4550	 7.7340
 2.4560	 7.7200
 2.4570	 7.7010
 2.4580	 7.6910
 2.4590	 7.6560
 2.4600	 7.6230
 2.4610	 7.5930
 2.4620	 7.5590
 2.4630	 7.5360
 2.4640	 7.5180
 2.4650	 7.4870
 2.4660	 7.4450
 2.4670	 7.4330
 2.4680	 7.4250
 2.4690	 7.4520
 2.4700	 7.4400
 2.4710	 7.3930
 2.4720	 7.3680
 2.4730	 7.3290
 2.4740	 7.3070
 2.4750	 7.3170
 2.4760	 7.3070
 2.4770	 7.2860
 2.4780	 7.2610
 2.4790	 7.2360
 2.4800	 7.2120
 2.4810	 7.1750
 2.4820	 7.1610
 2.4830	 7.1190
 2.4840	 7.0770
 2.4850	 7.0760
 2.4860	 7.0710
 2.4870	 7.0640
 2.4880	 7.0790
 2.4890	 7.0660
 2.4900	 7.0390
 2.4910	 7.0500
 2.4920	 7.0480
 2.4930	 7.0550
 2.4940	 7.0660
 2.4950	 7.0360
 2.4960	 7.0380
 2.4970	 7.0560
 2.4980	 7.0410
 2.4990	 7.0340
 2.5000	 7.0160
