Name: Puya venusta
Type: vegetation
Class: Shrub
Genus: Puya
Species: venusta
Sample No.: JPL079
Owner: JPL
Wavelength Range: VSWIR
Origin: 34.12562; - 118.1098; WGS84
Collection Date: 2/2/2016
Description: Samples were collected at the Huntington Garden in San Marino California as part of a JPL Subcontract studying HyTES imagery. Samples were taken to JPL and processed within 48 hours of collection. The same leaves were processed in the Nicolet and then measured using the ASD.
Measurement: Bidirectional reflectance
First Column: X
Second Column: Y
X Units: Wavelength (micrometer)
Y Units: Reflectance (percentage)
First X Value: 0.35
Last X Value: 2.5
Number of X Values: 2151
Additional Information: 

 0.3500	 9.5140
 0.3510	 8.9120
 0.3520	 9.1770
 0.3530	 9.9030
 0.3540	10.4310
 0.3550	10.4540
 0.3560	10.1160
 0.3570	 9.5910
 0.3580	 9.1320
 0.3590	 9.6030
 0.3600	10.2800
 0.3610	10.3570
 0.3620	 9.0230
 0.3630	 8.3560
 0.3640	 8.9850
 0.3650	10.3810
 0.3660	10.1440
 0.3670	 9.6940
 0.3680	 9.5490
 0.3690	 9.5790
 0.3700	10.0760
 0.3710	10.2340
 0.3720	10.0100
 0.3730	11.0060
 0.3740	11.1260
 0.3750	10.9200
 0.3760	11.3160
 0.3770	10.7920
 0.3780	10.6510
 0.3790	11.0340
 0.3800	11.0360
 0.3810	10.9590
 0.3820	11.1650
 0.3830	11.6330
 0.3840	11.4740
 0.3850	11.5200
 0.3860	11.8400
 0.3870	12.2090
 0.3880	12.5790
 0.3890	12.3630
 0.3900	11.8110
 0.3910	12.0180
 0.3920	12.3760
 0.3930	12.5370
 0.3940	12.4510
 0.3950	12.7340
 0.3960	12.9400
 0.3970	13.1440
 0.3980	13.5660
 0.3990	13.5170
 0.4000	13.3530
 0.4010	13.3200
 0.4020	13.3920
 0.4030	13.5890
 0.4040	13.7980
 0.4050	13.9430
 0.4060	14.1260
 0.4070	14.2670
 0.4080	14.3940
 0.4090	14.5820
 0.4100	14.6450
 0.4110	14.7490
 0.4120	14.9790
 0.4130	15.2250
 0.4140	15.3230
 0.4150	15.3870
 0.4160	15.5610
 0.4170	15.6080
 0.4180	15.7160
 0.4190	15.9480
 0.4200	16.2290
 0.4210	16.3900
 0.4220	16.4900
 0.4230	16.6120
 0.4240	16.7640
 0.4250	16.9710
 0.4260	17.1470
 0.4270	17.1960
 0.4280	17.3210
 0.4290	17.4800
 0.4300	17.6240
 0.4310	17.7240
 0.4320	17.8810
 0.4330	18.0330
 0.4340	18.1290
 0.4350	18.3080
 0.4360	18.4000
 0.4370	18.4160
 0.4380	18.4970
 0.4390	18.5310
 0.4400	18.5570
 0.4410	18.5900
 0.4420	18.5230
 0.4430	18.5940
 0.4440	18.7600
 0.4450	18.8730
 0.4460	18.9290
 0.4470	18.9290
 0.4480	18.9170
 0.4490	18.9860
 0.4500	19.1020
 0.4510	19.1680
 0.4520	19.1460
 0.4530	19.2440
 0.4540	19.2790
 0.4550	19.2640
 0.4560	19.3260
 0.4570	19.3300
 0.4580	19.3420
 0.4590	19.3880
 0.4600	19.3610
 0.4610	19.3510
 0.4620	19.3620
 0.4630	19.3850
 0.4640	19.5030
 0.4650	19.5610
 0.4660	19.5260
 0.4670	19.4980
 0.4680	19.4380
 0.4690	19.4060
 0.4700	19.4530
 0.4710	19.5590
 0.4720	19.6030
 0.4730	19.5560
 0.4740	19.4630
 0.4750	19.5410
 0.4760	19.5920
 0.4770	19.5320
 0.4780	19.5250
 0.4790	19.5350
 0.4800	19.5840
 0.4810	19.6690
 0.4820	19.5970
 0.4830	19.5820
 0.4840	19.6630
 0.4850	19.7210
 0.4860	19.7250
 0.4870	19.7310
 0.4880	19.7670
 0.4890	19.7480
 0.4900	19.7500
 0.4910	19.7850
 0.4920	19.8320
 0.4930	19.8640
 0.4940	19.8360
 0.4950	19.7740
 0.4960	19.8040
 0.4970	19.9100
 0.4980	19.9930
 0.4990	19.9830
 0.5000	20.0100
 0.5010	20.0610
 0.5020	20.1110
 0.5030	20.1350
 0.5040	20.2360
 0.5050	20.3580
 0.5060	20.4400
 0.5070	20.4570
 0.5080	20.5560
 0.5090	20.7160
 0.5100	20.8510
 0.5110	20.9950
 0.5120	21.1040
 0.5130	21.1880
 0.5140	21.3340
 0.5150	21.4910
 0.5160	21.6580
 0.5170	21.8360
 0.5180	21.9670
 0.5190	22.1420
 0.5200	22.3450
 0.5210	22.4870
 0.5220	22.6920
 0.5230	22.9010
 0.5240	23.0650
 0.5250	23.2130
 0.5260	23.3610
 0.5270	23.5240
 0.5280	23.7030
 0.5290	23.8440
 0.5300	23.9500
 0.5310	24.0440
 0.5320	24.1620
 0.5330	24.2550
 0.5340	24.3410
 0.5350	24.4370
 0.5360	24.5140
 0.5370	24.5740
 0.5380	24.6310
 0.5390	24.7050
 0.5400	24.8260
 0.5410	24.9850
 0.5420	25.1410
 0.5430	25.2070
 0.5440	25.2440
 0.5450	25.2480
 0.5460	25.2000
 0.5470	25.1120
 0.5480	25.0500
 0.5490	25.0330
 0.5500	25.0150
 0.5510	24.9850
 0.5520	24.9570
 0.5530	24.9470
 0.5540	24.9380
 0.5550	24.8890
 0.5560	24.8200
 0.5570	24.7870
 0.5580	24.7490
 0.5590	24.6740
 0.5600	24.5670
 0.5610	24.5000
 0.5620	24.4360
 0.5630	24.3450
 0.5640	24.2170
 0.5650	24.1230
 0.5660	24.0520
 0.5670	23.9820
 0.5680	23.8850
 0.5690	23.7890
 0.5700	23.6840
 0.5710	23.5670
 0.5720	23.4950
 0.5730	23.4020
 0.5740	23.2820
 0.5750	23.1700
 0.5760	23.0780
 0.5770	23.0020
 0.5780	22.9350
 0.5790	22.8630
 0.5800	22.7740
 0.5810	22.6920
 0.5820	22.6450
 0.5830	22.6240
 0.5840	22.6090
 0.5850	22.5860
 0.5860	22.5530
 0.5870	22.5120
 0.5880	22.4520
 0.5890	22.3730
 0.5900	22.3170
 0.5910	22.2580
 0.5920	22.2070
 0.5930	22.1930
 0.5940	22.1480
 0.5950	22.1210
 0.5960	22.1280
 0.5970	22.0980
 0.5980	22.0690
 0.5990	22.0520
 0.6000	22.0410
 0.6010	22.0110
 0.6020	21.9680
 0.6030	21.9250
 0.6040	21.9030
 0.6050	21.8620
 0.6060	21.7950
 0.6070	21.7120
 0.6080	21.6580
 0.6090	21.6090
 0.6100	21.6100
 0.6110	21.6930
 0.6120	21.6230
 0.6130	21.4810
 0.6140	21.3450
 0.6150	21.2460
 0.6160	21.1680
 0.6170	21.0940
 0.6180	21.0180
 0.6190	20.9700
 0.6200	20.9500
 0.6210	20.9320
 0.6220	20.8770
 0.6230	20.8240
 0.6240	20.7950
 0.6250	20.7860
 0.6260	20.7450
 0.6270	20.7290
 0.6280	20.7310
 0.6290	20.7250
 0.6300	20.6920
 0.6310	20.6790
 0.6320	20.6820
 0.6330	20.6400
 0.6340	20.6160
 0.6350	20.5850
 0.6360	20.5310
 0.6370	20.5170
 0.6380	20.5050
 0.6390	20.4660
 0.6400	20.3910
 0.6410	20.3320
 0.6420	20.2800
 0.6430	20.2260
 0.6440	20.1680
 0.6450	20.0980
 0.6460	20.0280
 0.6470	19.9730
 0.6480	19.9220
 0.6490	19.8800
 0.6500	19.8400
 0.6510	19.7960
 0.6520	19.7730
 0.6530	19.7500
 0.6540	19.7120
 0.6550	19.6720
 0.6560	19.6350
 0.6570	19.5930
 0.6580	19.5330
 0.6590	19.4680
 0.6600	19.4000
 0.6610	19.3390
 0.6620	19.3010
 0.6630	19.2350
 0.6640	19.1590
 0.6650	19.0970
 0.6660	19.0590
 0.6670	19.0240
 0.6680	18.9940
 0.6690	18.9800
 0.6700	18.9430
 0.6710	18.9150
 0.6720	18.9130
 0.6730	18.9170
 0.6740	18.9150
 0.6750	18.9050
 0.6760	18.8950
 0.6770	18.9210
 0.6780	18.9460
 0.6790	18.9630
 0.6800	18.9900
 0.6810	19.0270
 0.6820	19.0770
 0.6830	19.1410
 0.6840	19.2050
 0.6850	19.3100
 0.6860	19.4260
 0.6870	19.5220
 0.6880	19.6740
 0.6890	19.8650
 0.6900	20.0800
 0.6910	20.3170
 0.6920	20.5970
 0.6930	20.9090
 0.6940	21.2560
 0.6950	21.6710
 0.6960	22.0960
 0.6970	22.5390
 0.6980	23.0290
 0.6990	23.5720
 0.7000	24.1270
 0.7010	24.6770
 0.7020	25.2360
 0.7030	25.8220
 0.7040	26.4320
 0.7050	27.0550
 0.7060	27.6670
 0.7070	28.2860
 0.7080	28.9210
 0.7090	29.5750
 0.7100	30.2110
 0.7110	30.8540
 0.7120	31.5170
 0.7130	32.2010
 0.7140	32.8960
 0.7150	33.5940
 0.7160	34.2870
 0.7170	34.9690
 0.7180	35.6790
 0.7190	36.4010
 0.7200	37.1010
 0.7210	37.8100
 0.7220	38.5270
 0.7230	39.2390
 0.7240	39.9210
 0.7250	40.5770
 0.7260	41.2330
 0.7270	41.8910
 0.7280	42.4880
 0.7290	43.0870
 0.7300	43.6780
 0.7310	44.2240
 0.7320	44.7290
 0.7330	45.2210
 0.7340	45.6950
 0.7350	46.1140
 0.7360	46.5260
 0.7370	46.9370
 0.7380	47.3290
 0.7390	47.6380
 0.7400	47.9620
 0.7410	48.2880
 0.7420	48.5640
 0.7430	48.8160
 0.7440	49.0710
 0.7450	49.3120
 0.7460	49.4820
 0.7470	49.6590
 0.7480	49.8330
 0.7490	49.9860
 0.7500	50.1200
 0.7510	50.2400
 0.7520	50.3590
 0.7530	50.4840
 0.7540	50.5670
 0.7550	50.6340
 0.7560	50.6950
 0.7570	50.7430
 0.7580	50.8170
 0.7590	50.8830
 0.7600	50.9270
 0.7610	50.9820
 0.7620	50.9940
 0.7630	50.9990
 0.7640	51.0380
 0.7650	51.0700
 0.7660	51.0950
 0.7670	51.1150
 0.7680	51.1320
 0.7690	51.1530
 0.7700	51.1710
 0.7710	51.1790
 0.7720	51.1710
 0.7730	51.1770
 0.7740	51.1990
 0.7750	51.2270
 0.7760	51.2120
 0.7770	51.2120
 0.7780	51.2280
 0.7790	51.2320
 0.7800	51.2220
 0.7810	51.2190
 0.7820	51.2300
 0.7830	51.2470
 0.7840	51.2730
 0.7850	51.2740
 0.7860	51.2430
 0.7870	51.2400
 0.7880	51.2520
 0.7890	51.2720
 0.7900	51.2880
 0.7910	51.2730
 0.7920	51.2540
 0.7930	51.2570
 0.7940	51.2940
 0.7950	51.2930
 0.7960	51.2810
 0.7970	51.2770
 0.7980	51.2710
 0.7990	51.2630
 0.8000	51.2670
 0.8010	51.2890
 0.8020	51.2950
 0.8030	51.2720
 0.8040	51.2450
 0.8050	51.2440
 0.8060	51.2240
 0.8070	51.2050
 0.8080	51.2000
 0.8090	51.2140
 0.8100	51.2240
 0.8110	51.2130
 0.8120	51.1780
 0.8130	51.1440
 0.8140	51.1460
 0.8150	51.1510
 0.8160	51.1260
 0.8170	51.1060
 0.8180	51.0840
 0.8190	51.0740
 0.8200	51.0850
 0.8210	51.0520
 0.8220	51.0300
 0.8230	51.0200
 0.8240	50.9750
 0.8250	50.9520
 0.8260	50.9290
 0.8270	50.8940
 0.8280	50.8780
 0.8290	50.8310
 0.8300	50.7770
 0.8310	50.7420
 0.8320	50.7000
 0.8330	50.6660
 0.8340	50.6500
 0.8350	50.6500
 0.8360	50.6320
 0.8370	50.5890
 0.8380	50.5470
 0.8390	50.5440
 0.8400	50.5220
 0.8410	50.5110
 0.8420	50.5200
 0.8430	50.5110
 0.8440	50.5320
 0.8450	50.5470
 0.8460	50.5310
 0.8470	50.5230
 0.8480	50.5190
 0.8490	50.5070
 0.8500	50.4830
 0.8510	50.5020
 0.8520	50.5000
 0.8530	50.4770
 0.8540	50.4730
 0.8550	50.4830
 0.8560	50.4790
 0.8570	50.4660
 0.8580	50.4860
 0.8590	50.4710
 0.8600	50.4530
 0.8610	50.4570
 0.8620	50.4730
 0.8630	50.5140
 0.8640	50.5320
 0.8650	50.5000
 0.8660	50.4810
 0.8670	50.4830
 0.8680	50.4870
 0.8690	50.4720
 0.8700	50.4670
 0.8710	50.4670
 0.8720	50.4560
 0.8730	50.4270
 0.8740	50.4510
 0.8750	50.4750
 0.8760	50.4740
 0.8770	50.4670
 0.8780	50.4640
 0.8790	50.4680
 0.8800	50.4700
 0.8810	50.4500
 0.8820	50.4180
 0.8830	50.3910
 0.8840	50.3770
 0.8850	50.3530
 0.8860	50.3590
 0.8870	50.3850
 0.8880	50.4040
 0.8890	50.3830
 0.8900	50.3590
 0.8910	50.3410
 0.8920	50.3230
 0.8930	50.2740
 0.8940	50.2610
 0.8950	50.2870
 0.8960	50.3100
 0.8970	50.3150
 0.8980	50.2960
 0.8990	50.2610
 0.9000	50.2260
 0.9010	50.1890
 0.9020	50.1540
 0.9030	50.1370
 0.9040	50.1640
 0.9050	50.1690
 0.9060	50.1360
 0.9070	50.0950
 0.9080	50.1260
 0.9090	50.0920
 0.9100	50.0410
 0.9110	50.0290
 0.9120	49.9920
 0.9130	49.9740
 0.9140	49.9540
 0.9150	49.9100
 0.9160	49.8920
 0.9170	49.8460
 0.9180	49.7760
 0.9190	49.7150
 0.9200	49.6850
 0.9210	49.5890
 0.9220	49.4860
 0.9230	49.4780
 0.9240	49.3760
 0.9250	49.2680
 0.9260	49.1720
 0.9270	49.0530
 0.9280	48.9580
 0.9290	48.8700
 0.9300	48.7520
 0.9310	48.5730
 0.9320	48.4190
 0.9330	48.2970
 0.9340	48.1940
 0.9350	48.0860
 0.9360	47.9150
 0.9370	47.7120
 0.9380	47.5250
 0.9390	47.3920
 0.9400	47.2640
 0.9410	47.0850
 0.9420	46.8510
 0.9430	46.6440
 0.9440	46.4740
 0.9450	46.2920
 0.9460	46.0620
 0.9470	45.8120
 0.9480	45.5580
 0.9490	45.3040
 0.9500	45.0380
 0.9510	44.7250
 0.9520	44.4350
 0.9530	44.1730
 0.9540	43.9100
 0.9550	43.5700
 0.9560	43.2360
 0.9570	42.9140
 0.9580	42.6190
 0.9590	42.4980
 0.9600	42.3370
 0.9610	42.1540
 0.9620	42.0370
 0.9630	41.9760
 0.9640	41.9290
 0.9650	41.8320
 0.9660	41.6720
 0.9670	41.6350
 0.9680	41.5740
 0.9690	41.5100
 0.9700	41.5160
 0.9710	41.5750
 0.9720	41.5350
 0.9730	41.3990
 0.9740	41.2750
 0.9750	41.3060
 0.9760	41.3800
 0.9770	41.4300
 0.9780	41.4290
 0.9790	41.3570
 0.9800	41.3950
 0.9810	41.4630
 0.9820	41.4170
 0.9830	41.4970
 0.9840	41.5930
 0.9850	41.6420
 0.9860	41.6410
 0.9870	41.6560
 0.9880	41.7480
 0.9890	41.9010
 0.9900	42.0360
 0.9910	42.0150
 0.9920	41.9790
 0.9930	41.9880
 0.9940	42.0480
 0.9950	42.1670
 0.9960	42.3650
 0.9970	42.5130
 0.9980	42.4980
 0.9990	42.5670
 1.0000	42.6290
 1.0010	43.6650
 1.0020	43.7750
 1.0030	43.8280
 1.0040	43.9420
 1.0050	44.0710
 1.0060	44.1820
 1.0070	44.3470
 1.0080	44.4670
 1.0090	44.5590
 1.0100	44.6630
 1.0110	44.7540
 1.0120	44.8580
 1.0130	44.9810
 1.0140	45.0960
 1.0150	45.2170
 1.0160	45.3230
 1.0170	45.4340
 1.0180	45.5230
 1.0190	45.6090
 1.0200	45.6960
 1.0210	45.7880
 1.0220	45.9240
 1.0230	46.0570
 1.0240	46.2370
 1.0250	46.3520
 1.0260	46.4360
 1.0270	46.5350
 1.0280	46.6080
 1.0290	46.7000
 1.0300	46.8070
 1.0310	46.9160
 1.0320	47.0380
 1.0330	47.1370
 1.0340	47.2630
 1.0350	47.3690
 1.0360	47.4400
 1.0370	47.5370
 1.0380	47.6270
 1.0390	47.7170
 1.0400	47.7960
 1.0410	47.8630
 1.0420	47.9440
 1.0430	48.0320
 1.0440	48.0990
 1.0450	48.1580
 1.0460	48.2370
 1.0470	48.3180
 1.0480	48.3810
 1.0490	48.4580
 1.0500	48.5200
 1.0510	48.5530
 1.0520	48.5750
 1.0530	48.6200
 1.0540	48.6860
 1.0550	48.7290
 1.0560	48.7770
 1.0570	48.8010
 1.0580	48.7870
 1.0590	48.8100
 1.0600	48.8390
 1.0610	48.8690
 1.0620	48.9250
 1.0630	48.9650
 1.0640	48.9990
 1.0650	49.0230
 1.0660	49.0470
 1.0670	49.0590
 1.0680	49.0600
 1.0690	49.0380
 1.0700	49.0410
 1.0710	49.0540
 1.0720	49.0450
 1.0730	49.0340
 1.0740	49.0280
 1.0750	49.0130
 1.0760	48.9910
 1.0770	48.9740
 1.0780	48.9530
 1.0790	48.9210
 1.0800	48.8860
 1.0810	48.8540
 1.0820	48.8210
 1.0830	48.7860
 1.0840	48.7390
 1.0850	48.6830
 1.0860	48.6370
 1.0870	48.5840
 1.0880	48.5120
 1.0890	48.4630
 1.0900	48.4370
 1.0910	48.3840
 1.0920	48.3270
 1.0930	48.2670
 1.0940	48.1860
 1.0950	48.1230
 1.0960	48.0640
 1.0970	48.0120
 1.0980	47.9860
 1.0990	47.9320
 1.1000	47.8640
 1.1010	47.8000
 1.1020	47.7300
 1.1030	47.6400
 1.1040	47.5620
 1.1050	47.5060
 1.1060	47.4420
 1.1070	47.3780
 1.1080	47.3080
 1.1090	47.2450
 1.1100	47.1690
 1.1110	47.0840
 1.1120	47.0000
 1.1130	46.9120
 1.1140	46.8250
 1.1150	46.7410
 1.1160	46.6470
 1.1170	46.5690
 1.1180	46.4550
 1.1190	46.3160
 1.1200	46.1650
 1.1210	46.0090
 1.1220	45.8500
 1.1230	45.7000
 1.1240	45.5200
 1.1250	45.3080
 1.1260	45.0650
 1.1270	44.8120
 1.1280	44.5350
 1.1290	44.2410
 1.1300	43.9430
 1.1310	43.6010
 1.1320	43.2220
 1.1330	42.8330
 1.1340	42.4200
 1.1350	41.9850
 1.1360	41.5290
 1.1370	41.0560
 1.1380	40.5570
 1.1390	40.0630
 1.1400	39.5790
 1.1410	39.0920
 1.1420	38.6140
 1.1430	38.1300
 1.1440	37.6570
 1.1450	37.1690
 1.1460	36.7330
 1.1470	36.3090
 1.1480	35.9250
 1.1490	35.5780
 1.1500	35.2540
 1.1510	34.9540
 1.1520	34.6780
 1.1530	34.4290
 1.1540	34.2040
 1.1550	34.0050
 1.1560	33.8240
 1.1570	33.6690
 1.1580	33.5280
 1.1590	33.3980
 1.1600	33.2860
 1.1610	33.1900
 1.1620	33.1060
 1.1630	33.0410
 1.1640	32.9870
 1.1650	32.9330
 1.1660	32.8900
 1.1670	32.8460
 1.1680	32.7990
 1.1690	32.7620
 1.1700	32.7320
 1.1710	32.7050
 1.1720	32.6880
 1.1730	32.6670
 1.1740	32.6460
 1.1750	32.6320
 1.1760	32.6080
 1.1770	32.5790
 1.1780	32.5510
 1.1790	32.5110
 1.1800	32.4730
 1.1810	32.4460
 1.1820	32.4140
 1.1830	32.3910
 1.1840	32.3760
 1.1850	32.3490
 1.1860	32.3320
 1.1870	32.3200
 1.1880	32.2980
 1.1890	32.2650
 1.1900	32.2460
 1.1910	32.2250
 1.1920	32.2110
 1.1930	32.2120
 1.1940	32.2070
 1.1950	32.2010
 1.1960	32.1960
 1.1970	32.1920
 1.1980	32.1880
 1.1990	32.1870
 1.2000	32.1900
 1.2010	32.1930
 1.2020	32.1990
 1.2030	32.2120
 1.2040	32.2260
 1.2050	32.2410
 1.2060	32.2640
 1.2070	32.2910
 1.2080	32.3210
 1.2090	32.3590
 1.2100	32.3990
 1.2110	32.4330
 1.2120	32.4640
 1.2130	32.4940
 1.2140	32.5160
 1.2150	32.5470
 1.2160	32.5810
 1.2170	32.6180
 1.2180	32.6570
 1.2190	32.7010
 1.2200	32.7480
 1.2210	32.7930
 1.2220	32.8360
 1.2230	32.8740
 1.2240	32.9110
 1.2250	32.9570
 1.2260	33.0060
 1.2270	33.0530
 1.2280	33.1050
 1.2290	33.1490
 1.2300	33.1860
 1.2310	33.2310
 1.2320	33.2680
 1.2330	33.3070
 1.2340	33.3470
 1.2350	33.3880
 1.2360	33.4270
 1.2370	33.4660
 1.2380	33.5090
 1.2390	33.5540
 1.2400	33.6000
 1.2410	33.6530
 1.2420	33.7040
 1.2430	33.7420
 1.2440	33.7850
 1.2450	33.8200
 1.2460	33.8440
 1.2470	33.8700
 1.2480	33.8950
 1.2490	33.9220
 1.2500	33.9490
 1.2510	33.9850
 1.2520	34.0260
 1.2530	34.0550
 1.2540	34.0820
 1.2550	34.1010
 1.2560	34.1130
 1.2570	34.1390
 1.2580	34.1640
 1.2590	34.1830
 1.2600	34.2040
 1.2610	34.2140
 1.2620	34.2130
 1.2630	34.2140
 1.2640	34.2200
 1.2650	34.2230
 1.2660	34.2330
 1.2670	34.2290
 1.2680	34.2200
 1.2690	34.2100
 1.2700	34.1910
 1.2710	34.1760
 1.2720	34.1510
 1.2730	34.1200
 1.2740	34.0840
 1.2750	34.0410
 1.2760	34.0010
 1.2770	33.9580
 1.2780	33.9170
 1.2790	33.8730
 1.2800	33.8260
 1.2810	33.7730
 1.2820	33.7100
 1.2830	33.6400
 1.2840	33.5680
 1.2850	33.4900
 1.2860	33.4120
 1.2870	33.3340
 1.2880	33.2590
 1.2890	33.1720
 1.2900	33.0850
 1.2910	32.9840
 1.2920	32.8660
 1.2930	32.7530
 1.2940	32.6370
 1.2950	32.5220
 1.2960	32.4120
 1.2970	32.2920
 1.2980	32.1530
 1.2990	32.0090
 1.3000	31.8680
 1.3010	31.7230
 1.3020	31.5770
 1.3030	31.4110
 1.3040	31.2310
 1.3050	31.0560
 1.3060	30.8730
 1.3070	30.6980
 1.3080	30.5300
 1.3090	30.3510
 1.3100	30.1720
 1.3110	29.9900
 1.3120	29.8090
 1.3130	29.6230
 1.3140	29.4300
 1.3150	29.2370
 1.3160	29.0380
 1.3170	28.8320
 1.3180	28.6190
 1.3190	28.4070
 1.3200	28.1870
 1.3210	27.9610
 1.3220	27.7420
 1.3230	27.5190
 1.3240	27.2960
 1.3250	27.0790
 1.3260	26.8580
 1.3270	26.6440
 1.3280	26.4330
 1.3290	26.2230
 1.3300	26.0160
 1.3310	25.8070
 1.3320	25.5960
 1.3330	25.3890
 1.3340	25.1830
 1.3350	24.9800
 1.3360	24.7840
 1.3370	24.5990
 1.3380	24.4210
 1.3390	24.2410
 1.3400	24.0700
 1.3410	23.9010
 1.3420	23.7300
 1.3430	23.5690
 1.3440	23.4100
 1.3450	23.2500
 1.3460	23.0890
 1.3470	22.9360
 1.3480	22.7820
 1.3490	22.6400
 1.3500	22.5040
 1.3510	22.3790
 1.3520	22.2540
 1.3530	22.1260
 1.3540	22.0030
 1.3550	21.8730
 1.3560	21.7490
 1.3570	21.6310
 1.3580	21.5050
 1.3590	21.3820
 1.3600	21.2570
 1.3610	21.1280
 1.3620	21.0000
 1.3630	20.8630
 1.3640	20.7180
 1.3650	20.5700
 1.3660	20.4150
 1.3670	20.2560
 1.3680	20.0920
 1.3690	19.9180
 1.3700	19.7350
 1.3710	19.5500
 1.3720	19.3550
 1.3730	19.1530
 1.3740	18.9440
 1.3750	18.7270
 1.3760	18.5060
 1.3770	18.2810
 1.3780	18.0490
 1.3790	17.8120
 1.3800	17.5720
 1.3810	17.3280
 1.3820	17.0880
 1.3830	16.8460
 1.3840	16.6140
 1.3850	16.3860
 1.3860	16.1660
 1.3870	15.9530
 1.3880	15.7500
 1.3890	15.5510
 1.3900	15.3650
 1.3910	15.1950
 1.3920	15.0340
 1.3930	14.8820
 1.3940	14.7420
 1.3950	14.6100
 1.3960	14.4850
 1.3970	14.3700
 1.3980	14.2680
 1.3990	14.1750
 1.4000	14.0910
 1.4010	14.0190
 1.4020	13.9470
 1.4030	13.8770
 1.4040	13.8180
 1.4050	13.7610
 1.4060	13.7150
 1.4070	13.6790
 1.4080	13.6450
 1.4090	13.6070
 1.4100	13.5690
 1.4110	13.5310
 1.4120	13.4940
 1.4130	13.4620
 1.4140	13.4350
 1.4150	13.4120
 1.4160	13.3870
 1.4170	13.3650
 1.4180	13.3460
 1.4190	13.3260
 1.4200	13.3100
 1.4210	13.2960
 1.4220	13.2840
 1.4230	13.2750
 1.4240	13.2660
 1.4250	13.2540
 1.4260	13.2390
 1.4270	13.2270
 1.4280	13.2150
 1.4290	13.2030
 1.4300	13.1930
 1.4310	13.1850
 1.4320	13.1740
 1.4330	13.1660
 1.4340	13.1660
 1.4350	13.1590
 1.4360	13.1480
 1.4370	13.1440
 1.4380	13.1350
 1.4390	13.1310
 1.4400	13.1300
 1.4410	13.1280
 1.4420	13.1290
 1.4430	13.1260
 1.4440	13.1210
 1.4450	13.1200
 1.4460	13.1150
 1.4470	13.1100
 1.4480	13.1050
 1.4490	13.0990
 1.4500	13.0950
 1.4510	13.0950
 1.4520	13.0970
 1.4530	13.0980
 1.4540	13.0960
 1.4550	13.0930
 1.4560	13.0910
 1.4570	13.0910
 1.4580	13.0910
 1.4590	13.0920
 1.4600	13.0970
 1.4610	13.0990
 1.4620	13.1000
 1.4630	13.1020
 1.4640	13.1010
 1.4650	13.1040
 1.4660	13.1070
 1.4670	13.1070
 1.4680	13.1120
 1.4690	13.1170
 1.4700	13.1210
 1.4710	13.1310
 1.4720	13.1380
 1.4730	13.1430
 1.4740	13.1500
 1.4750	13.1540
 1.4760	13.1550
 1.4770	13.1580
 1.4780	13.1640
 1.4790	13.1720
 1.4800	13.1860
 1.4810	13.1990
 1.4820	13.2070
 1.4830	13.2090
 1.4840	13.2120
 1.4850	13.2190
 1.4860	13.2260
 1.4870	13.2400
 1.4880	13.2530
 1.4890	13.2620
 1.4900	13.2710
 1.4910	13.2790
 1.4920	13.2880
 1.4930	13.2960
 1.4940	13.3080
 1.4950	13.3250
 1.4960	13.3390
 1.4970	13.3550
 1.4980	13.3690
 1.4990	13.3790
 1.5000	13.3890
 1.5010	13.3990
 1.5020	13.4100
 1.5030	13.4220
 1.5040	13.4360
 1.5050	13.4540
 1.5060	13.4680
 1.5070	13.4780
 1.5080	13.4910
 1.5090	13.5030
 1.5100	13.5190
 1.5110	13.5370
 1.5120	13.5550
 1.5130	13.5700
 1.5140	13.5880
 1.5150	13.6060
 1.5160	13.6250
 1.5170	13.6450
 1.5180	13.6590
 1.5190	13.6760
 1.5200	13.6960
 1.5210	13.7120
 1.5220	13.7320
 1.5230	13.7570
 1.5240	13.7790
 1.5250	13.8050
 1.5260	13.8300
 1.5270	13.8470
 1.5280	13.8650
 1.5290	13.8810
 1.5300	13.8980
 1.5310	13.9190
 1.5320	13.9430
 1.5330	13.9680
 1.5340	13.9910
 1.5350	14.0110
 1.5360	14.0260
 1.5370	14.0430
 1.5380	14.0590
 1.5390	14.0800
 1.5400	14.1030
 1.5410	14.1280
 1.5420	14.1570
 1.5430	14.1780
 1.5440	14.2050
 1.5450	14.2350
 1.5460	14.2590
 1.5470	14.2840
 1.5480	14.3060
 1.5490	14.3260
 1.5500	14.3460
 1.5510	14.3700
 1.5520	14.3960
 1.5530	14.4220
 1.5540	14.4520
 1.5550	14.4810
 1.5560	14.5100
 1.5570	14.5350
 1.5580	14.5590
 1.5590	14.5870
 1.5600	14.6180
 1.5610	14.6500
 1.5620	14.6800
 1.5630	14.7100
 1.5640	14.7370
 1.5650	14.7660
 1.5660	14.7990
 1.5670	14.8290
 1.5680	14.8620
 1.5690	14.8920
 1.5700	14.9250
 1.5710	14.9510
 1.5720	14.9690
 1.5730	14.9950
 1.5740	15.0180
 1.5750	15.0420
 1.5760	15.0750
 1.5770	15.1080
 1.5780	15.1360
 1.5790	15.1640
 1.5800	15.1950
 1.5810	15.2210
 1.5820	15.2460
 1.5830	15.2730
 1.5840	15.2940
 1.5850	15.3150
 1.5860	15.3450
 1.5870	15.3760
 1.5880	15.4140
 1.5890	15.4480
 1.5900	15.4770
 1.5910	15.5070
 1.5920	15.5350
 1.5930	15.5700
 1.5940	15.6030
 1.5950	15.6340
 1.5960	15.6630
 1.5970	15.6880
 1.5980	15.7130
 1.5990	15.7360
 1.6000	15.7620
 1.6010	15.7850
 1.6020	15.8090
 1.6030	15.8400
 1.6040	15.8680
 1.6050	15.8990
 1.6060	15.9300
 1.6070	15.9570
 1.6080	15.9840
 1.6090	16.0100
 1.6100	16.0360
 1.6110	16.0620
 1.6120	16.0890
 1.6130	16.1170
 1.6140	16.1460
 1.6150	16.1760
 1.6160	16.2020
 1.6170	16.2280
 1.6180	16.2520
 1.6190	16.2710
 1.6200	16.2970
 1.6210	16.3220
 1.6220	16.3430
 1.6230	16.3750
 1.6240	16.3960
 1.6250	16.4120
 1.6260	16.4370
 1.6270	16.4580
 1.6280	16.4840
 1.6290	16.5060
 1.6300	16.5200
 1.6310	16.5380
 1.6320	16.5530
 1.6330	16.5720
 1.6340	16.5930
 1.6350	16.6140
 1.6360	16.6370
 1.6370	16.6600
 1.6380	16.6810
 1.6390	16.7000
 1.6400	16.7180
 1.6410	16.7360
 1.6420	16.7540
 1.6430	16.7700
 1.6440	16.7870
 1.6450	16.8020
 1.6460	16.8210
 1.6470	16.8410
 1.6480	16.8530
 1.6490	16.8670
 1.6500	16.8810
 1.6510	16.8900
 1.6520	16.8970
 1.6530	16.9090
 1.6540	16.9150
 1.6550	16.9230
 1.6560	16.9430
 1.6570	16.9590
 1.6580	16.9730
 1.6590	16.9830
 1.6600	16.9870
 1.6610	16.9840
 1.6620	16.9810
 1.6630	16.9840
 1.6640	16.9840
 1.6650	16.9920
 1.6660	16.9980
 1.6670	16.9980
 1.6680	16.9970
 1.6690	16.9880
 1.6700	16.9850
 1.6710	16.9880
 1.6720	16.9890
 1.6730	16.9940
 1.6740	16.9930
 1.6750	16.9810
 1.6760	16.9710
 1.6770	16.9640
 1.6780	16.9570
 1.6790	16.9650
 1.6800	16.9740
 1.6810	16.9710
 1.6820	16.9650
 1.6830	16.9500
 1.6840	16.9330
 1.6850	16.9220
 1.6860	16.9160
 1.6870	16.9100
 1.6880	16.9030
 1.6890	16.8900
 1.6900	16.8800
 1.6910	16.8680
 1.6920	16.8570
 1.6930	16.8490
 1.6940	16.8390
 1.6950	16.8290
 1.6960	16.8140
 1.6970	16.7980
 1.6980	16.7780
 1.6990	16.7500
 1.7000	16.7270
 1.7010	16.7020
 1.7020	16.6830
 1.7030	16.6740
 1.7040	16.6560
 1.7050	16.6400
 1.7060	16.6160
 1.7070	16.5770
 1.7080	16.5540
 1.7090	16.5380
 1.7100	16.5160
 1.7110	16.4990
 1.7120	16.4710
 1.7130	16.4380
 1.7140	16.4110
 1.7150	16.3890
 1.7160	16.3620
 1.7170	16.3290
 1.7180	16.2940
 1.7190	16.2630
 1.7200	16.2340
 1.7210	16.2010
 1.7220	16.1690
 1.7230	16.1360
 1.7240	16.1010
 1.7250	16.0710
 1.7260	16.0370
 1.7270	16.0030
 1.7280	15.9800
 1.7290	15.9590
 1.7300	15.9500
 1.7310	15.9310
 1.7320	15.9050
 1.7330	15.8830
 1.7340	15.8560
 1.7350	15.8330
 1.7360	15.8170
 1.7370	15.7930
 1.7380	15.7630
 1.7390	15.7370
 1.7400	15.7100
 1.7410	15.6820
 1.7420	15.6580
 1.7430	15.6280
 1.7440	15.5910
 1.7450	15.5590
 1.7460	15.5260
 1.7470	15.4990
 1.7480	15.4790
 1.7490	15.4490
 1.7500	15.4190
 1.7510	15.3860
 1.7520	15.3460
 1.7530	15.3080
 1.7540	15.2690
 1.7550	15.2300
 1.7560	15.1890
 1.7570	15.1560
 1.7580	15.1270
 1.7590	15.1000
 1.7600	15.0770
 1.7610	15.0430
 1.7620	15.0130
 1.7630	14.9780
 1.7640	14.9480
 1.7650	14.9230
 1.7660	14.8990
 1.7670	14.8740
 1.7680	14.8530
 1.7690	14.8380
 1.7700	14.8180
 1.7710	14.7950
 1.7720	14.7760
 1.7730	14.7550
 1.7740	14.7360
 1.7750	14.7240
 1.7760	14.7070
 1.7770	14.6850
 1.7780	14.6720
 1.7790	14.6640
 1.7800	14.6530
 1.7810	14.6450
 1.7820	14.6400
 1.7830	14.6360
 1.7840	14.6290
 1.7850	14.6280
 1.7860	14.6200
 1.7870	14.6030
 1.7880	14.5960
 1.7890	14.5940
 1.7900	14.5950
 1.7910	14.5950
 1.7920	14.5980
 1.7930	14.5960
 1.7940	14.5840
 1.7950	14.5820
 1.7960	14.5830
 1.7970	14.5830
 1.7980	14.5920
 1.7990	14.5930
 1.8000	14.5850
 1.8010	14.5830
 1.8020	14.5810
 1.8030	14.5820
 1.8040	14.5840
 1.8050	14.5950
 1.8060	14.6200
 1.8070	14.6220
 1.8080	14.6210
 1.8090	14.6170
 1.8100	14.5900
 1.8110	14.5980
 1.8120	14.6120
 1.8130	14.6190
 1.8140	14.6230
 1.8150	14.6170
 1.8160	14.5960
 1.8170	14.5810
 1.8180	14.5730
 1.8190	14.5830
 1.8200	14.5860
 1.8210	14.5980
 1.8220	14.5940
 1.8230	14.5660
 1.8240	14.5540
 1.8250	14.5380
 1.8260	14.5360
 1.8270	14.5580
 1.8280	14.5590
 1.8290	14.5570
 1.8300	14.5420
 1.8310	14.9380
 1.8320	14.9180
 1.8330	14.9180
 1.8340	14.9150
 1.8350	14.9230
 1.8360	14.9380
 1.8370	14.9300
 1.8380	14.9110
 1.8390	14.8940
 1.8400	14.8690
 1.8410	14.8420
 1.8420	14.8170
 1.8430	14.7810
 1.8440	14.7320
 1.8450	14.6770
 1.8460	14.6210
 1.8470	14.5970
 1.8480	14.5860
 1.8490	14.5780
 1.8500	14.5580
 1.8510	14.5350
 1.8520	14.4970
 1.8530	14.4620
 1.8540	14.4070
 1.8550	14.3560
 1.8560	14.3180
 1.8570	14.2740
 1.8580	14.2250
 1.8590	14.1710
 1.8600	14.1170
 1.8610	14.0480
 1.8620	13.9830
 1.8630	13.9270
 1.8640	13.8770
 1.8650	13.8290
 1.8660	13.7590
 1.8670	13.7100
 1.8680	13.6700
 1.8690	13.6130
 1.8700	13.5640
 1.8710	13.5260
 1.8720	13.4750
 1.8730	13.4200
 1.8740	13.3760
 1.8750	13.3190
 1.8760	13.2600
 1.8770	13.2090
 1.8780	13.1390
 1.8790	13.0800
 1.8800	13.0390
 1.8810	13.0130
 1.8820	12.9670
 1.8830	12.9400
 1.8840	12.9310
 1.8850	12.9040
 1.8860	12.8940
 1.8870	12.8690
 1.8880	12.8230
 1.8890	12.7860
 1.8900	12.7470
 1.8910	12.7080
 1.8920	12.6700
 1.8930	12.6500
 1.8940	12.6340
 1.8950	12.6090
 1.8960	12.6070
 1.8970	12.6040
 1.8980	12.5720
 1.8990	12.5310
 1.9000	12.4960
 1.9010	12.4500
 1.9020	12.4140
 1.9030	12.3810
 1.9040	12.3600
 1.9050	12.3520
 1.9060	12.3410
 1.9070	12.3480
 1.9080	12.3680
 1.9090	12.3610
 1.9100	12.3450
 1.9110	12.3320
 1.9120	12.3070
 1.9130	12.2910
 1.9140	12.2800
 1.9150	12.2720
 1.9160	12.2550
 1.9170	12.2250
 1.9180	12.1920
 1.9190	12.1660
 1.9200	12.1660
 1.9210	12.1710
 1.9220	12.1690
 1.9230	12.1730
 1.9240	12.1750
 1.9250	12.1720
 1.9260	12.1630
 1.9270	12.1460
 1.9280	12.1370
 1.9290	12.1420
 1.9300	12.1600
 1.9310	12.1720
 1.9320	12.1800
 1.9330	12.1820
 1.9340	12.1440
 1.9350	12.1400
 1.9360	12.1630
 1.9370	12.1800
 1.9380	12.2030
 1.9390	12.2340
 1.9400	12.2610
 1.9410	12.2720
 1.9420	12.2610
 1.9430	12.2380
 1.9440	12.2330
 1.9450	12.2190
 1.9460	12.2210
 1.9470	12.2510
 1.9480	12.2660
 1.9490	12.2790
 1.9500	12.2870
 1.9510	12.2900
 1.9520	12.3050
 1.9530	12.3120
 1.9540	12.3060
 1.9550	12.3070
 1.9560	12.3050
 1.9570	12.3060
 1.9580	12.3120
 1.9590	12.3160
 1.9600	12.3250
 1.9610	12.3260
 1.9620	12.3150
 1.9630	12.3230
 1.9640	12.3190
 1.9650	12.3070
 1.9660	12.3050
 1.9670	12.3110
 1.9680	12.3240
 1.9690	12.3550
 1.9700	12.3650
 1.9710	12.3770
 1.9720	12.3790
 1.9730	12.3590
 1.9740	12.3530
 1.9750	12.3520
 1.9760	12.3590
 1.9770	12.3720
 1.9780	12.3950
 1.9790	12.4110
 1.9800	12.4290
 1.9810	12.4400
 1.9820	12.4480
 1.9830	12.4560
 1.9840	12.4510
 1.9850	12.4680
 1.9860	12.5030
 1.9870	12.5130
 1.9880	12.5380
 1.9890	12.5570
 1.9900	12.5680
 1.9910	12.5820
 1.9920	12.5940
 1.9930	12.6100
 1.9940	12.6230
 1.9950	12.6400
 1.9960	12.6410
 1.9970	12.6330
 1.9980	12.6290
 1.9990	12.6170
 2.0000	12.5910
 2.0010	12.6020
 2.0020	12.6170
 2.0030	12.6290
 2.0040	12.6470
 2.0050	12.6490
 2.0060	12.6310
 2.0070	12.6320
 2.0080	12.6300
 2.0090	12.6370
 2.0100	12.6700
 2.0110	12.6830
 2.0120	12.6790
 2.0130	12.6950
 2.0140	12.7130
 2.0150	12.7060
 2.0160	12.7180
 2.0170	12.7410
 2.0180	12.7480
 2.0190	12.7430
 2.0200	12.7500
 2.0210	12.7630
 2.0220	12.7620
 2.0230	12.7570
 2.0240	12.7600
 2.0250	12.7500
 2.0260	12.7540
 2.0270	12.7760
 2.0280	12.7970
 2.0290	12.8040
 2.0300	12.8120
 2.0310	12.8230
 2.0320	12.8330
 2.0330	12.8340
 2.0340	12.8280
 2.0350	12.8340
 2.0360	12.8360
 2.0370	12.8430
 2.0380	12.8690
 2.0390	12.8800
 2.0400	12.8830
 2.0410	12.8810
 2.0420	12.8610
 2.0430	12.8600
 2.0440	12.8670
 2.0450	12.8840
 2.0460	12.8890
 2.0470	12.8990
 2.0480	12.9120
 2.0490	12.9160
 2.0500	12.9210
 2.0510	12.9490
 2.0520	12.9510
 2.0530	12.9240
 2.0540	12.9140
 2.0550	12.9170
 2.0560	12.8970
 2.0570	12.8740
 2.0580	12.8650
 2.0590	12.8450
 2.0600	12.8000
 2.0610	12.7980
 2.0620	12.8200
 2.0630	12.8320
 2.0640	12.8620
 2.0650	12.8850
 2.0660	12.9060
 2.0670	12.9190
 2.0680	12.9330
 2.0690	12.9430
 2.0700	12.9320
 2.0710	12.9350
 2.0720	12.9520
 2.0730	12.9640
 2.0740	12.9670
 2.0750	12.9720
 2.0760	12.9690
 2.0770	12.9460
 2.0780	12.9500
 2.0790	12.9600
 2.0800	12.9780
 2.0810	13.0280
 2.0820	13.0440
 2.0830	13.0540
 2.0840	13.0570
 2.0850	13.0260
 2.0860	13.0160
 2.0870	13.0110
 2.0880	13.0090
 2.0890	13.0160
 2.0900	13.0330
 2.0910	13.0510
 2.0920	13.0720
 2.0930	13.0960
 2.0940	13.1350
 2.0950	13.1470
 2.0960	13.1490
 2.0970	13.1540
 2.0980	13.1500
 2.0990	13.1360
 2.1000	13.1060
 2.1010	13.0950
 2.1020	13.0830
 2.1030	13.0690
 2.1040	13.0580
 2.1050	13.0720
 2.1060	13.0780
 2.1070	13.0680
 2.1080	13.0890
 2.1090	13.1370
 2.1100	13.1660
 2.1110	13.1980
 2.1120	13.2250
 2.1130	13.2550
 2.1140	13.2640
 2.1150	13.2550
 2.1160	13.2590
 2.1170	13.2480
 2.1180	13.2470
 2.1190	13.2660
 2.1200	13.2730
 2.1210	13.2740
 2.1220	13.2710
 2.1230	13.2630
 2.1240	13.2440
 2.1250	13.2440
 2.1260	13.2430
 2.1270	13.2490
 2.1280	13.2760
 2.1290	13.2880
 2.1300	13.2930
 2.1310	13.2980
 2.1320	13.3010
 2.1330	13.3060
 2.1340	13.3080
 2.1350	13.3150
 2.1360	13.3190
 2.1370	13.3310
 2.1380	13.3620
 2.1390	13.3730
 2.1400	13.3760
 2.1410	13.3860
 2.1420	13.3860
 2.1430	13.3590
 2.1440	13.3740
 2.1450	13.4140
 2.1460	13.4330
 2.1470	13.4700
 2.1480	13.4780
 2.1490	13.4570
 2.1500	13.4460
 2.1510	13.4230
 2.1520	13.4130
 2.1530	13.4160
 2.1540	13.4040
 2.1550	13.3780
 2.1560	13.3700
 2.1570	13.3550
 2.1580	13.3520
 2.1590	13.3610
 2.1600	13.3980
 2.1610	13.4080
 2.1620	13.4110
 2.1630	13.4070
 2.1640	13.3870
 2.1650	13.3840
 2.1660	13.3830
 2.1670	13.3810
 2.1680	13.3910
 2.1690	13.3840
 2.1700	13.3550
 2.1710	13.3510
 2.1720	13.3540
 2.1730	13.3530
 2.1740	13.3660
 2.1750	13.3750
 2.1760	13.3920
 2.1770	13.3840
 2.1780	13.3490
 2.1790	13.3380
 2.1800	13.3090
 2.1810	13.2980
 2.1820	13.3120
 2.1830	13.3490
 2.1840	13.3530
 2.1850	13.3370
 2.1860	13.3550
 2.1870	13.3770
 2.1880	13.3950
 2.1890	13.4440
 2.1900	13.4550
 2.1910	13.4330
 2.1920	13.4320
 2.1930	13.4360
 2.1940	13.4240
 2.1950	13.4020
 2.1960	13.3860
 2.1970	13.3490
 2.1980	13.3360
 2.1990	13.3450
 2.2000	13.3510
 2.2010	13.3680
 2.2020	13.3780
 2.2030	13.3790
 2.2040	13.3880
 2.2050	13.4020
 2.2060	13.4150
 2.2070	13.4260
 2.2080	13.4560
 2.2090	13.4380
 2.2100	13.3800
 2.2110	13.3630
 2.2120	13.3330
 2.2130	13.3230
 2.2140	13.3550
 2.2150	13.3550
 2.2160	13.3290
 2.2170	13.3320
 2.2180	13.3500
 2.2190	13.3550
 2.2200	13.3750
 2.2210	13.3720
 2.2220	13.3480
 2.2230	13.3280
 2.2240	13.2910
 2.2250	13.2700
 2.2260	13.2520
 2.2270	13.2350
 2.2280	13.2400
 2.2290	13.2270
 2.2300	13.2080
 2.2310	13.1740
 2.2320	13.1400
 2.2330	13.1280
 2.2340	13.1280
 2.2350	13.1570
 2.2360	13.1530
 2.2370	13.1410
 2.2380	13.1400
 2.2390	13.1280
 2.2400	13.1270
 2.2410	13.1460
 2.2420	13.1530
 2.2430	13.1560
 2.2440	13.1520
 2.2450	13.1590
 2.2460	13.1410
 2.2470	13.1000
 2.2480	13.0720
 2.2490	13.0210
 2.2500	13.0060
 2.2510	13.0180
 2.2520	13.0210
 2.2530	13.0540
 2.2540	13.0620
 2.2550	13.0390
 2.2560	13.0380
 2.2570	13.0420
 2.2580	13.0400
 2.2590	13.0620
 2.2600	13.0570
 2.2610	13.0200
 2.2620	12.9910
 2.2630	12.9370
 2.2640	12.9060
 2.2650	12.9210
 2.2660	12.9400
 2.2670	12.9520
 2.2680	12.9980
 2.2690	12.9870
 2.2700	12.9310
 2.2710	12.9100
 2.2720	12.8730
 2.2730	12.8690
 2.2740	12.9020
 2.2750	12.9080
 2.2760	12.9220
 2.2770	12.9190
 2.2780	12.8970
 2.2790	12.8820
 2.2800	12.8600
 2.2810	12.8490
 2.2820	12.8490
 2.2830	12.8370
 2.2840	12.8170
 2.2850	12.8160
 2.2860	12.8350
 2.2870	12.8210
 2.2880	12.7940
 2.2890	12.7820
 2.2900	12.7380
 2.2910	12.7200
 2.2920	12.7500
 2.2930	12.7520
 2.2940	12.7420
 2.2950	12.7390
 2.2960	12.7360
 2.2970	12.7250
 2.2980	12.7090
 2.2990	12.6950
 2.3000	12.6670
 2.3010	12.6380
 2.3020	12.6390
 2.3030	12.6230
 2.3040	12.6060
 2.3050	12.6100
 2.3060	12.5980
 2.3070	12.5660
 2.3080	12.5510
 2.3090	12.5500
 2.3100	12.5380
 2.3110	12.5680
 2.3120	12.6000
 2.3130	12.6580
 2.3140	12.6710
 2.3150	12.6920
 2.3160	12.6740
 2.3170	12.5810
 2.3180	12.5830
 2.3190	12.6030
 2.3200	12.6290
 2.3210	12.7230
 2.3220	12.7720
 2.3230	12.8070
 2.3240	12.8340
 2.3250	12.8580
 2.3260	12.8420
 2.3270	12.7810
 2.3280	12.7600
 2.3290	12.7090
 2.3300	12.7250
 2.3310	12.8050
 2.3320	12.8330
 2.3330	12.8950
 2.3340	12.9030
 2.3350	12.8640
 2.3360	12.8240
 2.3370	12.7280
 2.3380	12.6910
 2.3390	12.6590
 2.3400	12.6590
 2.3410	12.7550
 2.3420	12.7660
 2.3430	12.7170
 2.3440	12.7150
 2.3450	12.6950
 2.3460	12.6760
 2.3470	12.7160
 2.3480	12.7020
 2.3490	12.6090
 2.3500	12.5880
 2.3510	12.5910
 2.3520	12.6000
 2.3530	12.6710
 2.3540	12.6730
 2.3550	12.7050
 2.3560	12.7140
 2.3570	12.6740
 2.3580	12.6900
 2.3590	12.6410
 2.3600	12.5920
 2.3610	12.6030
 2.3620	12.6380
 2.3630	12.7020
 2.3640	12.7560
 2.3650	12.8170
 2.3660	12.7930
 2.3670	12.7180
 2.3680	12.6680
 2.3690	12.6230
 2.3700	12.6000
 2.3710	12.5780
 2.3720	12.6140
 2.3730	12.6270
 2.3740	12.6170
 2.3750	12.7100
 2.3760	12.7740
 2.3770	12.8000
 2.3780	12.8350
 2.3790	12.8130
 2.3800	12.7250
 2.3810	12.6390
 2.3820	12.6050
 2.3830	12.5770
 2.3840	12.6000
 2.3850	12.5990
 2.3860	12.5670
 2.3870	12.5650
 2.3880	12.5270
 2.3890	12.5000
 2.3900	12.4820
 2.3910	12.4200
 2.3920	12.3880
 2.3930	12.4560
 2.3940	12.5050
 2.3950	12.5430
 2.3960	12.5610
 2.3970	12.5170
 2.3980	12.5190
 2.3990	12.5030
 2.4000	12.5100
 2.4010	12.5030
 2.4020	12.4620
 2.4030	12.4730
 2.4040	12.4660
 2.4050	12.4580
 2.4060	12.4330
 2.4070	12.4440
 2.4080	12.5190
 2.4090	12.6080
 2.4100	12.6950
 2.4110	12.7110
 2.4120	12.6870
 2.4130	12.6490
 2.4140	12.6460
 2.4150	12.6710
 2.4160	12.6500
 2.4170	12.6010
 2.4180	12.5440
 2.4190	12.4530
 2.4200	12.4050
 2.4210	12.4810
 2.4220	12.5310
 2.4230	12.5630
 2.4240	12.5700
 2.4250	12.5000
 2.4260	12.4220
 2.4270	12.4250
 2.4280	12.4820
 2.4290	12.4270
 2.4300	12.3780
 2.4310	12.3050
 2.4320	12.1830
 2.4330	12.2160
 2.4340	12.3760
 2.4350	12.4480
 2.4360	12.4910
 2.4370	12.4350
 2.4380	12.2540
 2.4390	12.2970
 2.4400	12.3570
 2.4410	12.4870
 2.4420	12.6390
 2.4430	12.5280
 2.4440	12.4360
 2.4450	12.3620
 2.4460	12.3160
 2.4470	12.4800
 2.4480	12.6840
 2.4490	12.7370
 2.4500	12.6970
 2.4510	12.5490
 2.4520	12.3410
 2.4530	12.2000
 2.4540	12.1090
 2.4550	12.0450
 2.4560	12.0510
 2.4570	12.2100
 2.4580	12.4120
 2.4590	12.6200
 2.4600	12.7200
 2.4610	12.6440
 2.4620	12.5070
 2.4630	12.3320
 2.4640	12.1590
 2.4650	12.0660
 2.4660	12.1560
 2.4670	12.1710
 2.4680	12.1490
 2.4690	12.1940
 2.4700	12.1520
 2.4710	12.1360
 2.4720	12.1360
 2.4730	12.0840
 2.4740	12.1150
 2.4750	12.1400
 2.4760	12.1910
 2.4770	12.2990
 2.4780	12.3640
 2.4790	12.5660
 2.4800	12.6360
 2.4810	12.5740
 2.4820	12.5330
 2.4830	12.3820
 2.4840	12.3550
 2.4850	12.1950
 2.4860	11.9080
 2.4870	11.6880
 2.4880	11.5860
 2.4890	11.7850
 2.4900	11.8270
 2.4910	12.0110
 2.4920	12.2070
 2.4930	11.9400
 2.4940	11.8270
 2.4950	11.8420
 2.4960	11.6030
 2.4970	11.4950
 2.4980	11.7490
 2.4990	11.6830
 2.5000	11.6620
