Name: Umbellularia californica 3
Type: vegetation
Class: Shrub
Genus: Umbellularia
Species: californica
Sample No.: VH239
Owner: UCSB
Wavelength Range: VSWIR
Origin: 34.5075; -119.763; WGS84
Collection Date: 10/13/2013
Description: Samples were collected as part of the HyspIRI Airborne Campaign. 48 individual plants were sampled in three times in 2013 - spring  summer  and fall. The name of the sample includes a 1  2  or 3 which references a different individual of the species. Samples were taken to JPL and processed within 48 hours of collection. The same leaves were processed in the Nicolet and then measured using the ASD.
Measurement: Bidirectional reflectance
First Column: X
Second Column: Y
X Units: Wavelength (micrometers)
Y Units: Reflectance (percentage)
First X Value: 0.35
Last X Value: 2.5
Number of X Values: 2151
Additional Information: vegetation.shrub.umbellularia.californica.vswir.vh239.ucsb.asd.ancillary.txt

 0.3500	 8.0000
 0.3510	 7.8180
 0.3520	 7.9220
 0.3530	 7.9880
 0.3540	 7.8130
 0.3550	 7.9780
 0.3560	 7.9540
 0.3570	 7.8180
 0.3580	 7.9150
 0.3590	 7.9780
 0.3600	 7.9350
 0.3610	 7.8390
 0.3620	 7.8850
 0.3630	 7.8560
 0.3640	 7.8250
 0.3650	 7.8780
 0.3660	 7.8570
 0.3670	 7.8310
 0.3680	 7.8160
 0.3690	 7.7850
 0.3700	 7.7330
 0.3710	 7.6450
 0.3720	 7.5880
 0.3730	 7.8030
 0.3740	 7.8030
 0.3750	 7.7180
 0.3760	 7.7860
 0.3770	 7.7140
 0.3780	 7.6600
 0.3790	 7.6670
 0.3800	 7.6620
 0.3810	 7.5360
 0.3820	 7.4890
 0.3830	 7.6210
 0.3840	 7.7260
 0.3850	 7.6730
 0.3860	 7.5710
 0.3870	 7.5900
 0.3880	 7.6590
 0.3890	 7.6610
 0.3900	 7.6110
 0.3910	 7.6480
 0.3920	 7.6860
 0.3930	 7.6820
 0.3940	 7.6330
 0.3950	 7.6300
 0.3960	 7.5830
 0.3970	 7.5400
 0.3980	 7.5970
 0.3990	 7.6690
 0.4000	 7.6940
 0.4010	 7.6820
 0.4020	 7.7360
 0.4030	 7.6940
 0.4040	 7.6450
 0.4050	 7.6860
 0.4060	 7.7280
 0.4070	 7.7200
 0.4080	 7.6930
 0.4090	 7.7230
 0.4100	 7.7700
 0.4110	 7.8080
 0.4120	 7.8170
 0.4130	 7.7730
 0.4140	 7.8060
 0.4150	 7.8810
 0.4160	 7.9180
 0.4170	 7.9150
 0.4180	 7.9320
 0.4190	 7.9750
 0.4200	 7.9960
 0.4210	 8.0420
 0.4220	 8.0950
 0.4230	 8.1340
 0.4240	 8.1530
 0.4250	 8.1750
 0.4260	 8.2120
 0.4270	 8.2660
 0.4280	 8.3070
 0.4290	 8.3400
 0.4300	 8.3690
 0.4310	 8.3880
 0.4320	 8.4010
 0.4330	 8.4180
 0.4340	 8.4430
 0.4350	 8.4490
 0.4360	 8.4860
 0.4370	 8.5410
 0.4380	 8.5520
 0.4390	 8.5610
 0.4400	 8.5880
 0.4410	 8.6330
 0.4420	 8.6690
 0.4430	 8.6830
 0.4440	 8.6920
 0.4450	 8.7170
 0.4460	 8.7360
 0.4470	 8.7510
 0.4480	 8.7690
 0.4490	 8.8050
 0.4500	 8.8040
 0.4510	 8.8020
 0.4520	 8.8370
 0.4530	 8.8740
 0.4540	 8.8870
 0.4550	 8.8810
 0.4560	 8.8860
 0.4570	 8.9210
 0.4580	 8.9410
 0.4590	 8.9280
 0.4600	 8.9320
 0.4610	 8.9570
 0.4620	 8.9870
 0.4630	 8.9980
 0.4640	 9.0100
 0.4650	 9.0130
 0.4660	 9.0120
 0.4670	 9.0270
 0.4680	 9.0370
 0.4690	 9.0520
 0.4700	 9.0710
 0.4710	 9.0490
 0.4720	 9.0440
 0.4730	 9.0590
 0.4740	 9.0690
 0.4750	 9.0710
 0.4760	 9.0710
 0.4770	 9.0730
 0.4780	 9.0790
 0.4790	 9.0760
 0.4800	 9.0730
 0.4810	 9.0810
 0.4820	 9.0920
 0.4830	 9.0930
 0.4840	 9.0930
 0.4850	 9.1180
 0.4860	 9.1280
 0.4870	 9.1320
 0.4880	 9.1460
 0.4890	 9.1750
 0.4900	 9.2020
 0.4910	 9.2250
 0.4920	 9.2560
 0.4930	 9.2920
 0.4940	 9.3250
 0.4950	 9.3570
 0.4960	 9.4070
 0.4970	 9.4570
 0.4980	 9.5080
 0.4990	 9.5670
 0.5000	 9.6260
 0.5010	 9.6990
 0.5020	 9.7780
 0.5030	 9.8470
 0.5040	 9.9400
 0.5050	10.0450
 0.5060	10.1500
 0.5070	10.2670
 0.5080	10.3890
 0.5090	10.5210
 0.5100	10.6680
 0.5110	10.8210
 0.5120	10.9860
 0.5130	11.1650
 0.5140	11.3580
 0.5150	11.5660
 0.5160	11.7810
 0.5170	12.0000
 0.5180	12.2490
 0.5190	12.5050
 0.5200	12.7640
 0.5210	13.0330
 0.5220	13.3140
 0.5230	13.6070
 0.5240	13.9060
 0.5250	14.1890
 0.5260	14.4840
 0.5270	14.7840
 0.5280	15.0750
 0.5290	15.3620
 0.5300	15.6470
 0.5310	15.9270
 0.5320	16.1970
 0.5330	16.4540
 0.5340	16.7030
 0.5350	16.9490
 0.5360	17.1900
 0.5370	17.4150
 0.5380	17.6250
 0.5390	17.8330
 0.5400	18.0340
 0.5410	18.2180
 0.5420	18.3850
 0.5430	18.5530
 0.5440	18.7220
 0.5450	18.8810
 0.5460	19.0200
 0.5470	19.1760
 0.5480	19.3270
 0.5490	19.4570
 0.5500	19.5590
 0.5510	19.6470
 0.5520	19.7190
 0.5530	19.7700
 0.5540	19.8030
 0.5550	19.8080
 0.5560	19.7880
 0.5570	19.7530
 0.5580	19.6980
 0.5590	19.6270
 0.5600	19.5410
 0.5610	19.4280
 0.5620	19.3110
 0.5630	19.1850
 0.5640	19.0340
 0.5650	18.8710
 0.5660	18.6980
 0.5670	18.5180
 0.5680	18.3370
 0.5690	18.1400
 0.5700	17.9360
 0.5710	17.7360
 0.5720	17.5260
 0.5730	17.3340
 0.5740	17.1620
 0.5750	16.9930
 0.5760	16.8330
 0.5770	16.6840
 0.5780	16.5450
 0.5790	16.4120
 0.5800	16.2930
 0.5810	16.1790
 0.5820	16.0600
 0.5830	15.9540
 0.5840	15.8540
 0.5850	15.7550
 0.5860	15.6570
 0.5870	15.5700
 0.5880	15.4920
 0.5890	15.4210
 0.5900	15.3570
 0.5910	15.2940
 0.5920	15.2320
 0.5930	15.1760
 0.5940	15.1270
 0.5950	15.0870
 0.5960	15.0520
 0.5970	15.0070
 0.5980	14.9640
 0.5990	14.9190
 0.6000	14.8690
 0.6010	14.8130
 0.6020	14.7470
 0.6030	14.6710
 0.6040	14.5880
 0.6050	14.5030
 0.6060	14.4110
 0.6070	14.3090
 0.6080	14.1980
 0.6090	14.0800
 0.6100	13.9540
 0.6110	13.8240
 0.6120	13.7070
 0.6130	13.6010
 0.6140	13.5020
 0.6150	13.4010
 0.6160	13.2980
 0.6170	13.2020
 0.6180	13.1190
 0.6190	13.0380
 0.6200	12.9600
 0.6210	12.8910
 0.6220	12.8420
 0.6230	12.7980
 0.6240	12.7590
 0.6250	12.7250
 0.6260	12.7020
 0.6270	12.6830
 0.6280	12.6680
 0.6290	12.6610
 0.6300	12.6480
 0.6310	12.6380
 0.6320	12.6300
 0.6330	12.6170
 0.6340	12.5950
 0.6350	12.5630
 0.6360	12.5190
 0.6370	12.4670
 0.6380	12.3970
 0.6390	12.3130
 0.6400	12.2240
 0.6410	12.1250
 0.6420	12.0180
 0.6430	11.9070
 0.6440	11.7960
 0.6450	11.6800
 0.6460	11.5620
 0.6470	11.4490
 0.6480	11.3480
 0.6490	11.2520
 0.6500	11.1610
 0.6510	11.0830
 0.6520	11.0120
 0.6530	10.9440
 0.6540	10.8730
 0.6550	10.7940
 0.6560	10.7110
 0.6570	10.6220
 0.6580	10.5290
 0.6590	10.4310
 0.6600	10.3260
 0.6610	10.2190
 0.6620	10.1140
 0.6630	10.0240
 0.6640	 9.9430
 0.6650	 9.8630
 0.6660	 9.7870
 0.6670	 9.7220
 0.6680	 9.6680
 0.6690	 9.6180
 0.6700	 9.5930
 0.6710	 9.5720
 0.6720	 9.5490
 0.6730	 9.5360
 0.6740	 9.5260
 0.6750	 9.5210
 0.6760	 9.5210
 0.6770	 9.5270
 0.6780	 9.5380
 0.6790	 9.5570
 0.6800	 9.5870
 0.6810	 9.6210
 0.6820	 9.6690
 0.6830	 9.7340
 0.6840	 9.8150
 0.6850	 9.9250
 0.6860	10.0680
 0.6870	10.2480
 0.6880	10.4760
 0.6890	10.7600
 0.6900	11.1070
 0.6910	11.5270
 0.6920	12.0420
 0.6930	12.6470
 0.6940	13.3430
 0.6950	14.1490
 0.6960	15.0580
 0.6970	16.0670
 0.6980	17.1700
 0.6990	18.3580
 0.7000	19.6190
 0.7010	20.9450
 0.7020	22.3230
 0.7030	23.7300
 0.7040	25.1480
 0.7050	26.5660
 0.7060	27.9900
 0.7070	29.4090
 0.7080	30.8060
 0.7090	32.1750
 0.7100	33.5260
 0.7110	34.8490
 0.7120	36.1350
 0.7130	37.3870
 0.7140	38.6150
 0.7150	39.8080
 0.7160	40.9560
 0.7170	42.0600
 0.7180	43.1410
 0.7190	44.1920
 0.7200	45.1930
 0.7210	46.1580
 0.7220	47.0770
 0.7230	47.9560
 0.7240	48.8180
 0.7250	49.6140
 0.7260	50.3700
 0.7270	51.1080
 0.7280	51.7930
 0.7290	52.4540
 0.7300	53.0790
 0.7310	53.6510
 0.7320	54.2100
 0.7330	54.7370
 0.7340	55.2280
 0.7350	55.7030
 0.7360	56.1270
 0.7370	56.5240
 0.7380	56.9140
 0.7390	57.2720
 0.7400	57.6100
 0.7410	57.9320
 0.7420	58.2360
 0.7430	58.5120
 0.7440	58.7600
 0.7450	58.9890
 0.7460	59.2150
 0.7470	59.4210
 0.7480	59.6070
 0.7490	59.7740
 0.7500	59.9210
 0.7510	60.0830
 0.7520	60.2330
 0.7530	60.3350
 0.7540	60.4340
 0.7550	60.5370
 0.7560	60.6430
 0.7570	60.7450
 0.7580	60.8120
 0.7590	60.8680
 0.7600	60.9310
 0.7610	61.0010
 0.7620	61.0660
 0.7630	61.1090
 0.7640	61.1290
 0.7650	61.1700
 0.7660	61.1960
 0.7670	61.2220
 0.7680	61.2820
 0.7690	61.2970
 0.7700	61.3030
 0.7710	61.3230
 0.7720	61.3460
 0.7730	61.3700
 0.7740	61.3780
 0.7750	61.3680
 0.7760	61.3730
 0.7770	61.4000
 0.7780	61.4380
 0.7790	61.4660
 0.7800	61.4430
 0.7810	61.4270
 0.7820	61.4410
 0.7830	61.4610
 0.7840	61.4420
 0.7850	61.4350
 0.7860	61.4740
 0.7870	61.5130
 0.7880	61.5000
 0.7890	61.4760
 0.7900	61.4930
 0.7910	61.4810
 0.7920	61.4940
 0.7930	61.5220
 0.7940	61.5120
 0.7950	61.5090
 0.7960	61.5020
 0.7970	61.4950
 0.7980	61.5210
 0.7990	61.5260
 0.8000	61.5210
 0.8010	61.5270
 0.8020	61.5400
 0.8030	61.5450
 0.8040	61.5490
 0.8050	61.5630
 0.8060	61.5410
 0.8070	61.5370
 0.8080	61.5610
 0.8090	61.5730
 0.8100	61.5380
 0.8110	61.5120
 0.8120	61.5270
 0.8130	61.5520
 0.8140	61.5640
 0.8150	61.5610
 0.8160	61.5570
 0.8170	61.5710
 0.8180	61.5770
 0.8190	61.5790
 0.8200	61.5900
 0.8210	61.5870
 0.8220	61.5990
 0.8230	61.6300
 0.8240	61.6610
 0.8250	61.6490
 0.8260	61.6250
 0.8270	61.6150
 0.8280	61.6140
 0.8290	61.6300
 0.8300	61.6590
 0.8310	61.6850
 0.8320	61.6630
 0.8330	61.6580
 0.8340	61.6620
 0.8350	61.6490
 0.8360	61.6740
 0.8370	61.7010
 0.8380	61.7140
 0.8390	61.7230
 0.8400	61.7250
 0.8410	61.7300
 0.8420	61.7380
 0.8430	61.7350
 0.8440	61.7520
 0.8450	61.7810
 0.8460	61.8050
 0.8470	61.7980
 0.8480	61.8100
 0.8490	61.8330
 0.8500	61.8370
 0.8510	61.8220
 0.8520	61.8240
 0.8530	61.8320
 0.8540	61.8200
 0.8550	61.8560
 0.8560	61.8890
 0.8570	61.8880
 0.8580	61.8540
 0.8590	61.8510
 0.8600	61.8770
 0.8610	61.9080
 0.8620	61.9050
 0.8630	61.9280
 0.8640	61.9350
 0.8650	61.9010
 0.8660	61.9020
 0.8670	61.9200
 0.8680	61.9370
 0.8690	61.9390
 0.8700	61.9350
 0.8710	61.9500
 0.8720	61.9660
 0.8730	61.9460
 0.8740	61.9530
 0.8750	61.9460
 0.8760	61.9310
 0.8770	61.9560
 0.8780	61.9550
 0.8790	61.9360
 0.8800	61.9280
 0.8810	61.9590
 0.8820	61.9650
 0.8830	61.9680
 0.8840	61.9860
 0.8850	61.9870
 0.8860	61.9500
 0.8870	61.9100
 0.8880	61.9040
 0.8890	61.9210
 0.8900	61.9250
 0.8910	61.9170
 0.8920	61.9160
 0.8930	61.9150
 0.8940	61.9250
 0.8950	61.9360
 0.8960	61.9330
 0.8970	61.9040
 0.8980	61.8700
 0.8990	61.8690
 0.9000	61.9320
 0.9010	61.9290
 0.9020	61.9070
 0.9030	61.9010
 0.9040	61.8940
 0.9050	61.8930
 0.9060	61.8770
 0.9070	61.8450
 0.9080	61.8450
 0.9090	61.8410
 0.9100	61.8510
 0.9110	61.8710
 0.9120	61.8160
 0.9130	61.7980
 0.9140	61.8080
 0.9150	61.8090
 0.9160	61.8130
 0.9170	61.8320
 0.9180	61.8310
 0.9190	61.7860
 0.9200	61.7920
 0.9210	61.7860
 0.9220	61.7640
 0.9230	61.7570
 0.9240	61.7350
 0.9250	61.7360
 0.9260	61.7460
 0.9270	61.7240
 0.9280	61.7340
 0.9290	61.7410
 0.9300	61.7180
 0.9310	61.6670
 0.9320	61.6450
 0.9330	61.6450
 0.9340	61.6420
 0.9350	61.6100
 0.9360	61.6020
 0.9370	61.5820
 0.9380	61.5410
 0.9390	61.5220
 0.9400	61.5300
 0.9410	61.5150
 0.9420	61.4650
 0.9430	61.4520
 0.9440	61.4420
 0.9450	61.4050
 0.9460	61.3410
 0.9470	61.3030
 0.9480	61.2620
 0.9490	61.2220
 0.9500	61.1900
 0.9510	61.1620
 0.9520	61.1150
 0.9530	61.0610
 0.9540	61.0170
 0.9550	60.9830
 0.9560	60.9180
 0.9570	60.8360
 0.9580	60.7700
 0.9590	60.7110
 0.9600	60.6990
 0.9610	60.6840
 0.9620	60.6210
 0.9630	60.6020
 0.9640	60.5910
 0.9650	60.5690
 0.9660	60.5350
 0.9670	60.5000
 0.9680	60.4940
 0.9690	60.5030
 0.9700	60.4970
 0.9710	60.4680
 0.9720	60.4690
 0.9730	60.4740
 0.9740	60.4400
 0.9750	60.4490
 0.9760	60.4430
 0.9770	60.4510
 0.9780	60.5160
 0.9790	60.5210
 0.9800	60.4610
 0.9810	60.3950
 0.9820	60.4020
 0.9830	60.4930
 0.9840	60.5390
 0.9850	60.5240
 0.9860	60.4980
 0.9870	60.4790
 0.9880	60.4660
 0.9890	60.4760
 0.9900	60.5190
 0.9910	60.5700
 0.9920	60.6130
 0.9930	60.6560
 0.9940	60.6990
 0.9950	60.7430
 0.9960	60.7860
 0.9970	60.8290
 0.9980	60.8720
 0.9990	60.9150
 1.0000	60.9580
 1.0010	61.0020
 1.0020	61.0450
 1.0030	61.0880
 1.0040	61.1310
 1.0050	61.1740
 1.0060	61.2180
 1.0070	61.2610
 1.0080	61.3040
 1.0090	61.3470
 1.0100	61.3470
 1.0110	61.3680
 1.0120	61.3900
 1.0130	61.4030
 1.0140	61.4230
 1.0150	61.4420
 1.0160	61.4750
 1.0170	61.5100
 1.0180	61.5390
 1.0190	61.5720
 1.0200	61.5920
 1.0210	61.5960
 1.0220	61.6040
 1.0230	61.6140
 1.0240	61.6210
 1.0250	61.6310
 1.0260	61.6440
 1.0270	61.6530
 1.0280	61.6510
 1.0290	61.6640
 1.0300	61.6880
 1.0310	61.7070
 1.0320	61.7300
 1.0330	61.7630
 1.0340	61.7790
 1.0350	61.7880
 1.0360	61.8020
 1.0370	61.8010
 1.0380	61.8070
 1.0390	61.8110
 1.0400	61.8170
 1.0410	61.8300
 1.0420	61.8350
 1.0430	61.8310
 1.0440	61.8360
 1.0450	61.8450
 1.0460	61.8480
 1.0470	61.8560
 1.0480	61.8600
 1.0490	61.8550
 1.0500	61.8510
 1.0510	61.8480
 1.0520	61.8450
 1.0530	61.8450
 1.0540	61.8430
 1.0550	61.8450
 1.0560	61.8510
 1.0570	61.8620
 1.0580	61.8820
 1.0590	61.8910
 1.0600	61.9050
 1.0610	61.9090
 1.0620	61.8930
 1.0630	61.8940
 1.0640	61.9020
 1.0650	61.9070
 1.0660	61.9170
 1.0670	61.9270
 1.0680	61.9370
 1.0690	61.9440
 1.0700	61.9510
 1.0710	61.9650
 1.0720	61.9670
 1.0730	61.9620
 1.0740	61.9570
 1.0750	61.9450
 1.0760	61.9390
 1.0770	61.9350
 1.0780	61.9310
 1.0790	61.9320
 1.0800	61.9280
 1.0810	61.9120
 1.0820	61.9090
 1.0830	61.9130
 1.0840	61.9130
 1.0850	61.9190
 1.0860	61.9260
 1.0870	61.9250
 1.0880	61.9150
 1.0890	61.9080
 1.0900	61.8980
 1.0910	61.8910
 1.0920	61.8830
 1.0930	61.8760
 1.0940	61.8740
 1.0950	61.8660
 1.0960	61.8540
 1.0970	61.8430
 1.0980	61.8340
 1.0990	61.8200
 1.1000	61.8020
 1.1010	61.7860
 1.1020	61.7750
 1.1030	61.7460
 1.1040	61.7110
 1.1050	61.6960
 1.1060	61.6770
 1.1070	61.6550
 1.1080	61.6400
 1.1090	61.6380
 1.1100	61.6250
 1.1110	61.6140
 1.1120	61.5920
 1.1130	61.5610
 1.1140	61.5330
 1.1150	61.4950
 1.1160	61.4670
 1.1170	61.4510
 1.1180	61.4230
 1.1190	61.3930
 1.1200	61.3620
 1.1210	61.3180
 1.1220	61.2740
 1.1230	61.2350
 1.1240	61.1850
 1.1250	61.1320
 1.1260	61.0810
 1.1270	61.0160
 1.1280	60.9370
 1.1290	60.8630
 1.1300	60.7860
 1.1310	60.7050
 1.1320	60.6260
 1.1330	60.5360
 1.1340	60.4410
 1.1350	60.3320
 1.1360	60.2110
 1.1370	60.0850
 1.1380	59.9540
 1.1390	59.8140
 1.1400	59.6800
 1.1410	59.5450
 1.1420	59.4000
 1.1430	59.2560
 1.1440	59.1120
 1.1450	58.9580
 1.1460	58.8200
 1.1470	58.6920
 1.1480	58.5580
 1.1490	58.4260
 1.1500	58.3010
 1.1510	58.1700
 1.1520	58.0530
 1.1530	57.9460
 1.1540	57.8470
 1.1550	57.7520
 1.1560	57.6710
 1.1570	57.6010
 1.1580	57.5340
 1.1590	57.4730
 1.1600	57.4160
 1.1610	57.3600
 1.1620	57.3100
 1.1630	57.2650
 1.1640	57.2230
 1.1650	57.1820
 1.1660	57.1430
 1.1670	57.1090
 1.1680	57.0760
 1.1690	57.0480
 1.1700	57.0280
 1.1710	57.0040
 1.1720	56.9820
 1.1730	56.9550
 1.1740	56.9250
 1.1750	56.8930
 1.1760	56.8660
 1.1770	56.8340
 1.1780	56.8010
 1.1790	56.7660
 1.1800	56.7310
 1.1810	56.6990
 1.1820	56.6710
 1.1830	56.6430
 1.1840	56.6110
 1.1850	56.5780
 1.1860	56.5410
 1.1870	56.5080
 1.1880	56.4810
 1.1890	56.4560
 1.1900	56.4310
 1.1910	56.4120
 1.1920	56.3920
 1.1930	56.3670
 1.1940	56.3530
 1.1950	56.3480
 1.1960	56.3420
 1.1970	56.3410
 1.1980	56.3440
 1.1990	56.3460
 1.2000	56.3510
 1.2010	56.3580
 1.2020	56.3660
 1.2030	56.3780
 1.2040	56.3970
 1.2050	56.4200
 1.2060	56.4440
 1.2070	56.4740
 1.2080	56.5060
 1.2090	56.5360
 1.2100	56.5670
 1.2110	56.6010
 1.2120	56.6340
 1.2130	56.6690
 1.2140	56.7070
 1.2150	56.7480
 1.2160	56.7870
 1.2170	56.8340
 1.2180	56.8880
 1.2190	56.9440
 1.2200	57.0060
 1.2210	57.0630
 1.2220	57.1130
 1.2230	57.1620
 1.2240	57.2070
 1.2250	57.2500
 1.2260	57.2990
 1.2270	57.3430
 1.2280	57.3920
 1.2290	57.4360
 1.2300	57.4700
 1.2310	57.5070
 1.2320	57.5400
 1.2330	57.5760
 1.2340	57.6140
 1.2350	57.6590
 1.2360	57.6990
 1.2370	57.7390
 1.2380	57.7690
 1.2390	57.7980
 1.2400	57.8300
 1.2410	57.8570
 1.2420	57.8840
 1.2430	57.9120
 1.2440	57.9380
 1.2450	57.9640
 1.2460	57.9960
 1.2470	58.0240
 1.2480	58.0380
 1.2490	58.0500
 1.2500	58.0570
 1.2510	58.0640
 1.2520	58.0730
 1.2530	58.0780
 1.2540	58.0870
 1.2550	58.0970
 1.2560	58.1100
 1.2570	58.1230
 1.2580	58.1350
 1.2590	58.1460
 1.2600	58.1500
 1.2610	58.1600
 1.2620	58.1740
 1.2630	58.1900
 1.2640	58.1980
 1.2650	58.2020
 1.2660	58.2010
 1.2670	58.1970
 1.2680	58.1880
 1.2690	58.1800
 1.2700	58.1730
 1.2710	58.1600
 1.2720	58.1480
 1.2730	58.1400
 1.2740	58.1280
 1.2750	58.1170
 1.2760	58.1080
 1.2770	58.0980
 1.2780	58.0890
 1.2790	58.0810
 1.2800	58.0580
 1.2810	58.0320
 1.2820	58.0130
 1.2830	57.9920
 1.2840	57.9730
 1.2850	57.9590
 1.2860	57.9410
 1.2870	57.9180
 1.2880	57.8900
 1.2890	57.8600
 1.2900	57.8240
 1.2910	57.7910
 1.2920	57.7600
 1.2930	57.7280
 1.2940	57.7000
 1.2950	57.6650
 1.2960	57.6230
 1.2970	57.5850
 1.2980	57.5450
 1.2990	57.5070
 1.3000	57.4740
 1.3010	57.4310
 1.3020	57.3880
 1.3030	57.3490
 1.3040	57.3000
 1.3050	57.2530
 1.3060	57.2090
 1.3070	57.1510
 1.3080	57.0860
 1.3090	57.0170
 1.3100	56.9430
 1.3110	56.8690
 1.3120	56.7910
 1.3130	56.7140
 1.3140	56.6280
 1.3150	56.5320
 1.3160	56.4410
 1.3170	56.3500
 1.3180	56.2530
 1.3190	56.1590
 1.3200	56.0580
 1.3210	55.9470
 1.3220	55.8330
 1.3230	55.7160
 1.3240	55.5950
 1.3250	55.4670
 1.3260	55.3370
 1.3270	55.2000
 1.3280	55.0570
 1.3290	54.9140
 1.3300	54.7670
 1.3310	54.6190
 1.3320	54.4700
 1.3330	54.3240
 1.3340	54.1760
 1.3350	54.0210
 1.3360	53.8600
 1.3370	53.6970
 1.3380	53.5400
 1.3390	53.3840
 1.3400	53.2300
 1.3410	53.0790
 1.3420	52.9240
 1.3430	52.7700
 1.3440	52.6160
 1.3450	52.4640
 1.3460	52.3150
 1.3470	52.1650
 1.3480	52.0160
 1.3490	51.8670
 1.3500	51.7210
 1.3510	51.5680
 1.3520	51.4160
 1.3530	51.2670
 1.3540	51.1180
 1.3550	50.9680
 1.3560	50.8200
 1.3570	50.6720
 1.3580	50.5180
 1.3590	50.3620
 1.3600	50.2000
 1.3610	50.0340
 1.3620	49.8670
 1.3630	49.6900
 1.3640	49.5060
 1.3650	49.3150
 1.3660	49.1180
 1.3670	48.9130
 1.3680	48.6980
 1.3690	48.4720
 1.3700	48.2280
 1.3710	47.9680
 1.3720	47.6980
 1.3730	47.4110
 1.3740	47.1090
 1.3750	46.7920
 1.3760	46.4520
 1.3770	46.0880
 1.3780	45.6980
 1.3790	45.2800
 1.3800	44.8310
 1.3810	44.3530
 1.3820	43.8530
 1.3830	43.3290
 1.3840	42.7780
 1.3850	42.2020
 1.3860	41.6090
 1.3870	40.9850
 1.3880	40.3570
 1.3890	39.7150
 1.3900	39.0600
 1.3910	38.4000
 1.3920	37.7320
 1.3930	37.0600
 1.3940	36.3870
 1.3950	35.7120
 1.3960	35.0450
 1.3970	34.3820
 1.3980	33.7310
 1.3990	33.1020
 1.4000	32.4850
 1.4010	31.8840
 1.4020	31.3050
 1.4030	30.7400
 1.4040	30.1970
 1.4050	29.6790
 1.4060	29.1830
 1.4070	28.7150
 1.4080	28.2710
 1.4090	27.8520
 1.4100	27.4630
 1.4110	27.0960
 1.4120	26.7550
 1.4130	26.4390
 1.4140	26.1430
 1.4150	25.8730
 1.4160	25.6240
 1.4170	25.3910
 1.4180	25.1830
 1.4190	24.9900
 1.4200	24.8160
 1.4210	24.6610
 1.4220	24.5160
 1.4230	24.3870
 1.4240	24.2710
 1.4250	24.1650
 1.4260	24.0730
 1.4270	23.9900
 1.4280	23.9160
 1.4290	23.8520
 1.4300	23.7980
 1.4310	23.7510
 1.4320	23.7140
 1.4330	23.6820
 1.4340	23.6540
 1.4350	23.6340
 1.4360	23.6200
 1.4370	23.6120
 1.4380	23.6120
 1.4390	23.6170
 1.4400	23.6260
 1.4410	23.6400
 1.4420	23.6550
 1.4430	23.6760
 1.4440	23.7020
 1.4450	23.7280
 1.4460	23.7560
 1.4470	23.7860
 1.4480	23.8160
 1.4490	23.8460
 1.4500	23.8790
 1.4510	23.9150
 1.4520	23.9480
 1.4530	23.9810
 1.4540	24.0150
 1.4550	24.0500
 1.4560	24.0930
 1.4570	24.1420
 1.4580	24.1940
 1.4590	24.2500
 1.4600	24.3080
 1.4610	24.3720
 1.4620	24.4390
 1.4630	24.5140
 1.4640	24.5930
 1.4650	24.6770
 1.4660	24.7690
 1.4670	24.8640
 1.4680	24.9640
 1.4690	25.0710
 1.4700	25.1820
 1.4710	25.2980
 1.4720	25.4180
 1.4730	25.5440
 1.4740	25.6750
 1.4750	25.8110
 1.4760	25.9530
 1.4770	26.0950
 1.4780	26.2400
 1.4790	26.3890
 1.4800	26.5360
 1.4810	26.6860
 1.4820	26.8390
 1.4830	26.9940
 1.4840	27.1500
 1.4850	27.3070
 1.4860	27.4640
 1.4870	27.6230
 1.4880	27.7820
 1.4890	27.9390
 1.4900	28.0980
 1.4910	28.2570
 1.4920	28.4160
 1.4930	28.5760
 1.4940	28.7360
 1.4950	28.8940
 1.4960	29.0520
 1.4970	29.2090
 1.4980	29.3680
 1.4990	29.5300
 1.5000	29.6900
 1.5010	29.8520
 1.5020	30.0110
 1.5030	30.1680
 1.5040	30.3230
 1.5050	30.4770
 1.5060	30.6300
 1.5070	30.7800
 1.5080	30.9320
 1.5090	31.0820
 1.5100	31.2340
 1.5110	31.3850
 1.5120	31.5350
 1.5130	31.6840
 1.5140	31.8340
 1.5150	31.9850
 1.5160	32.1310
 1.5170	32.2770
 1.5180	32.4180
 1.5190	32.5560
 1.5200	32.6970
 1.5210	32.8390
 1.5220	32.9770
 1.5230	33.1130
 1.5240	33.2470
 1.5250	33.3760
 1.5260	33.5010
 1.5270	33.6270
 1.5280	33.7550
 1.5290	33.8760
 1.5300	34.0000
 1.5310	34.1220
 1.5320	34.2390
 1.5330	34.3600
 1.5340	34.4800
 1.5350	34.5970
 1.5360	34.7160
 1.5370	34.8350
 1.5380	34.9480
 1.5390	35.0630
 1.5400	35.1750
 1.5410	35.2850
 1.5420	35.3980
 1.5430	35.5070
 1.5440	35.6160
 1.5450	35.7220
 1.5460	35.8240
 1.5470	35.9280
 1.5480	36.0300
 1.5490	36.1360
 1.5500	36.2400
 1.5510	36.3390
 1.5520	36.4400
 1.5530	36.5370
 1.5540	36.6350
 1.5550	36.7390
 1.5560	36.8410
 1.5570	36.9440
 1.5580	37.0460
 1.5590	37.1430
 1.5600	37.2370
 1.5610	37.3240
 1.5620	37.4080
 1.5630	37.4940
 1.5640	37.5800
 1.5650	37.6680
 1.5660	37.7550
 1.5670	37.8400
 1.5680	37.9230
 1.5690	38.0060
 1.5700	38.0950
 1.5710	38.1850
 1.5720	38.2730
 1.5730	38.3590
 1.5740	38.4380
 1.5750	38.5200
 1.5760	38.6020
 1.5770	38.6820
 1.5780	38.7700
 1.5790	38.8500
 1.5800	38.9250
 1.5810	39.0060
 1.5820	39.0790
 1.5830	39.1550
 1.5840	39.2380
 1.5850	39.3150
 1.5860	39.3920
 1.5870	39.4670
 1.5880	39.5350
 1.5890	39.6090
 1.5900	39.6790
 1.5910	39.7490
 1.5920	39.8240
 1.5930	39.8990
 1.5940	39.9750
 1.5950	40.0570
 1.5960	40.1340
 1.5970	40.2100
 1.5980	40.2890
 1.5990	40.3600
 1.6000	40.4370
 1.6010	40.5140
 1.6020	40.5850
 1.6030	40.6580
 1.6040	40.7280
 1.6050	40.7940
 1.6060	40.8550
 1.6070	40.9090
 1.6080	40.9650
 1.6090	41.0230
 1.6100	41.0810
 1.6110	41.1450
 1.6120	41.2040
 1.6130	41.2560
 1.6140	41.3120
 1.6150	41.3640
 1.6160	41.4200
 1.6170	41.4790
 1.6180	41.5360
 1.6190	41.5930
 1.6200	41.6460
 1.6210	41.6920
 1.6220	41.7310
 1.6230	41.7690
 1.6240	41.8070
 1.6250	41.8420
 1.6260	41.8810
 1.6270	41.9200
 1.6280	41.9540
 1.6290	41.9880
 1.6300	42.0210
 1.6310	42.0540
 1.6320	42.0860
 1.6330	42.1160
 1.6340	42.1470
 1.6350	42.1730
 1.6360	42.1930
 1.6370	42.2190
 1.6380	42.2430
 1.6390	42.2710
 1.6400	42.3020
 1.6410	42.3310
 1.6420	42.3600
 1.6430	42.3880
 1.6440	42.4190
 1.6450	42.4430
 1.6460	42.4620
 1.6470	42.4790
 1.6480	42.4940
 1.6490	42.5060
 1.6500	42.5140
 1.6510	42.5150
 1.6520	42.5110
 1.6530	42.5020
 1.6540	42.4910
 1.6550	42.4770
 1.6560	42.4580
 1.6570	42.4440
 1.6580	42.4320
 1.6590	42.4150
 1.6600	42.4000
 1.6610	42.3820
 1.6620	42.3590
 1.6630	42.3320
 1.6640	42.3090
 1.6650	42.2820
 1.6660	42.2490
 1.6670	42.2120
 1.6680	42.1640
 1.6690	42.1120
 1.6700	42.0570
 1.6710	41.9970
 1.6720	41.9370
 1.6730	41.8700
 1.6740	41.8040
 1.6750	41.7410
 1.6760	41.6670
 1.6770	41.5880
 1.6780	41.5040
 1.6790	41.4130
 1.6800	41.3310
 1.6810	41.2540
 1.6820	41.1690
 1.6830	41.0790
 1.6840	40.9790
 1.6850	40.8650
 1.6860	40.7470
 1.6870	40.6290
 1.6880	40.5120
 1.6890	40.4000
 1.6900	40.2850
 1.6910	40.1700
 1.6920	40.0530
 1.6930	39.9290
 1.6940	39.8120
 1.6950	39.6950
 1.6960	39.5860
 1.6970	39.4860
 1.6980	39.3830
 1.6990	39.2820
 1.7000	39.1860
 1.7010	39.0940
 1.7020	38.9970
 1.7030	38.9020
 1.7040	38.8020
 1.7050	38.6920
 1.7060	38.5880
 1.7070	38.4830
 1.7080	38.3810
 1.7090	38.2820
 1.7100	38.1880
 1.7110	38.0930
 1.7120	38.0070
 1.7130	37.9280
 1.7140	37.8620
 1.7150	37.8050
 1.7160	37.7520
 1.7170	37.7080
 1.7180	37.6680
 1.7190	37.6270
 1.7200	37.5920
 1.7210	37.5570
 1.7220	37.5180
 1.7230	37.4870
 1.7240	37.4550
 1.7250	37.4230
 1.7260	37.3940
 1.7270	37.3650
 1.7280	37.3470
 1.7290	37.3350
 1.7300	37.3350
 1.7310	37.3300
 1.7320	37.3260
 1.7330	37.3230
 1.7340	37.3210
 1.7350	37.3170
 1.7360	37.3200
 1.7370	37.3100
 1.7380	37.2960
 1.7390	37.2720
 1.7400	37.2360
 1.7410	37.1940
 1.7420	37.1460
 1.7430	37.0900
 1.7440	37.0210
 1.7450	36.9590
 1.7460	36.8930
 1.7470	36.8290
 1.7480	36.7700
 1.7490	36.7090
 1.7500	36.6470
 1.7510	36.5830
 1.7520	36.5200
 1.7530	36.4570
 1.7540	36.3920
 1.7550	36.3280
 1.7560	36.2680
 1.7570	36.2090
 1.7580	36.1550
 1.7590	36.1080
 1.7600	36.0610
 1.7610	36.0240
 1.7620	35.9880
 1.7630	35.9600
 1.7640	35.9300
 1.7650	35.8970
 1.7660	35.8690
 1.7670	35.8470
 1.7680	35.8210
 1.7690	35.7980
 1.7700	35.7720
 1.7710	35.7420
 1.7720	35.7150
 1.7730	35.6860
 1.7740	35.6640
 1.7750	35.6460
 1.7760	35.6290
 1.7770	35.6170
 1.7780	35.6030
 1.7790	35.5850
 1.7800	35.5750
 1.7810	35.5720
 1.7820	35.5670
 1.7830	35.5660
 1.7840	35.5680
 1.7850	35.5710
 1.7860	35.5800
 1.7870	35.5940
 1.7880	35.6080
 1.7890	35.6250
 1.7900	35.6600
 1.7910	35.6850
 1.7920	35.7100
 1.7930	35.7330
 1.7940	35.7440
 1.7950	35.7620
 1.7960	35.7870
 1.7970	35.8060
 1.7980	35.8210
 1.7990	35.8390
 1.8000	35.8540
 1.8010	35.8720
 1.8020	35.8940
 1.8030	35.9150
 1.8040	35.9330
 1.8050	35.9550
 1.8060	35.9810
 1.8070	36.0040
 1.8080	36.0300
 1.8090	36.0500
 1.8100	36.0670
 1.8110	36.0830
 1.8120	36.0940
 1.8130	36.1010
 1.8140	36.1000
 1.8150	36.0970
 1.8160	36.0940
 1.8170	36.0940
 1.8180	36.1030
 1.8190	36.1170
 1.8200	36.1310
 1.8210	36.1540
 1.8220	36.1660
 1.8230	36.1670
 1.8240	36.1710
 1.8250	36.1670
 1.8260	36.1630
 1.8270	36.0820
 1.8280	36.0020
 1.8290	35.9210
 1.8300	35.8400
 1.8310	35.7600
 1.8320	35.6790
 1.8330	35.5990
 1.8340	35.5180
 1.8350	35.5180
 1.8360	35.4830
 1.8370	35.4430
 1.8380	35.3950
 1.8390	35.3460
 1.8400	35.2990
 1.8410	35.2350
 1.8420	35.1620
 1.8430	35.0850
 1.8440	34.9830
 1.8450	34.8930
 1.8460	34.8070
 1.8470	34.6930
 1.8480	34.5790
 1.8490	34.4500
 1.8500	34.3010
 1.8510	34.1290
 1.8520	33.9530
 1.8530	33.7570
 1.8540	33.5510
 1.8550	33.3290
 1.8560	33.0840
 1.8570	32.8340
 1.8580	32.5670
 1.8590	32.2810
 1.8600	31.9770
 1.8610	31.6680
 1.8620	31.3280
 1.8630	30.9620
 1.8640	30.5850
 1.8650	30.1740
 1.8660	29.7390
 1.8670	29.2980
 1.8680	28.8330
 1.8690	28.3440
 1.8700	27.8260
 1.8710	27.2890
 1.8720	26.7230
 1.8730	26.1340
 1.8740	25.5350
 1.8750	24.9320
 1.8760	24.3210
 1.8770	23.7030
 1.8780	23.0770
 1.8790	22.4420
 1.8800	21.8190
 1.8810	21.1980
 1.8820	20.5780
 1.8830	19.9590
 1.8840	19.3520
 1.8850	18.7470
 1.8860	18.1580
 1.8870	17.5880
 1.8880	17.0400
 1.8890	16.5200
 1.8900	16.0220
 1.8910	15.5480
 1.8920	15.1030
 1.8930	14.6740
 1.8940	14.2680
 1.8950	13.8920
 1.8960	13.5400
 1.8970	13.2270
 1.8980	12.9400
 1.8990	12.6680
 1.9000	12.4240
 1.9010	12.2100
 1.9020	12.0100
 1.9030	11.8360
 1.9040	11.6800
 1.9050	11.5290
 1.9060	11.3920
 1.9070	11.2730
 1.9080	11.1630
 1.9090	11.0720
 1.9100	10.9910
 1.9110	10.9140
 1.9120	10.8450
 1.9130	10.7860
 1.9140	10.7360
 1.9150	10.6910
 1.9160	10.6590
 1.9170	10.6320
 1.9180	10.6100
 1.9190	10.5880
 1.9200	10.5720
 1.9210	10.5620
 1.9220	10.5520
 1.9230	10.5460
 1.9240	10.5440
 1.9250	10.5450
 1.9260	10.5470
 1.9270	10.5540
 1.9280	10.5640
 1.9290	10.5760
 1.9300	10.5900
 1.9310	10.6080
 1.9320	10.6280
 1.9330	10.6490
 1.9340	10.6720
 1.9350	10.6960
 1.9360	10.7190
 1.9370	10.7490
 1.9380	10.7820
 1.9390	10.8210
 1.9400	10.8600
 1.9410	10.9010
 1.9420	10.9390
 1.9430	10.9710
 1.9440	11.0110
 1.9450	11.0510
 1.9460	11.0970
 1.9470	11.1550
 1.9480	11.2040
 1.9490	11.2490
 1.9500	11.3000
 1.9510	11.3520
 1.9520	11.4060
 1.9530	11.4650
 1.9540	11.5260
 1.9550	11.5840
 1.9560	11.6350
 1.9570	11.6910
 1.9580	11.7460
 1.9590	11.8070
 1.9600	11.8680
 1.9610	11.9360
 1.9620	12.0100
 1.9630	12.0840
 1.9640	12.1610
 1.9650	12.2350
 1.9660	12.3080
 1.9670	12.3770
 1.9680	12.4460
 1.9690	12.5080
 1.9700	12.5790
 1.9710	12.6520
 1.9720	12.7260
 1.9730	12.8050
 1.9740	12.8810
 1.9750	12.9590
 1.9760	13.0380
 1.9770	13.1120
 1.9780	13.1860
 1.9790	13.2630
 1.9800	13.3340
 1.9810	13.4150
 1.9820	13.5060
 1.9830	13.5920
 1.9840	13.6790
 1.9850	13.7670
 1.9860	13.8510
 1.9870	13.9410
 1.9880	14.0300
 1.9890	14.1200
 1.9900	14.2140
 1.9910	14.3060
 1.9920	14.3990
 1.9930	14.4910
 1.9940	14.5890
 1.9950	14.6900
 1.9960	14.7870
 1.9970	14.8890
 1.9980	14.9850
 1.9990	15.0760
 2.0000	15.1620
 2.0010	15.2510
 2.0020	15.3380
 2.0030	15.4140
 2.0040	15.5010
 2.0050	15.5870
 2.0060	15.6710
 2.0070	15.7560
 2.0080	15.8440
 2.0090	15.9330
 2.0100	16.0280
 2.0110	16.1140
 2.0120	16.2000
 2.0130	16.2780
 2.0140	16.3570
 2.0150	16.4260
 2.0160	16.5030
 2.0170	16.5850
 2.0180	16.6640
 2.0190	16.7380
 2.0200	16.8180
 2.0210	16.9040
 2.0220	16.9810
 2.0230	17.0570
 2.0240	17.1300
 2.0250	17.1950
 2.0260	17.2640
 2.0270	17.3310
 2.0280	17.4050
 2.0290	17.4780
 2.0300	17.5440
 2.0310	17.6070
 2.0320	17.6640
 2.0330	17.7210
 2.0340	17.7700
 2.0350	17.8260
 2.0360	17.8900
 2.0370	17.9440
 2.0380	17.9950
 2.0390	18.0460
 2.0400	18.0890
 2.0410	18.1350
 2.0420	18.1820
 2.0430	18.2360
 2.0440	18.2810
 2.0450	18.3240
 2.0460	18.3660
 2.0470	18.4030
 2.0480	18.4400
 2.0490	18.4720
 2.0500	18.5120
 2.0510	18.5560
 2.0520	18.5970
 2.0530	18.6360
 2.0540	18.6800
 2.0550	18.7270
 2.0560	18.7680
 2.0570	18.8140
 2.0580	18.8670
 2.0590	18.9100
 2.0600	18.9440
 2.0610	18.9850
 2.0620	19.0260
 2.0630	19.0660
 2.0640	19.1070
 2.0650	19.1480
 2.0660	19.1810
 2.0670	19.2230
 2.0680	19.2670
 2.0690	19.3140
 2.0700	19.3670
 2.0710	19.4200
 2.0720	19.4790
 2.0730	19.5360
 2.0740	19.5830
 2.0750	19.6240
 2.0760	19.6660
 2.0770	19.6960
 2.0780	19.7380
 2.0790	19.7870
 2.0800	19.8330
 2.0810	19.8770
 2.0820	19.9260
 2.0830	19.9760
 2.0840	20.0250
 2.0850	20.0820
 2.0860	20.1320
 2.0870	20.1740
 2.0880	20.2180
 2.0890	20.2640
 2.0900	20.3070
 2.0910	20.3500
 2.0920	20.3950
 2.0930	20.4370
 2.0940	20.4730
 2.0950	20.5170
 2.0960	20.5660
 2.0970	20.6150
 2.0980	20.6750
 2.0990	20.7230
 2.1000	20.7600
 2.1010	20.8070
 2.1020	20.8520
 2.1030	20.8990
 2.1040	20.9540
 2.1050	21.0090
 2.1060	21.0610
 2.1070	21.1080
 2.1080	21.1580
 2.1090	21.2120
 2.1100	21.2600
 2.1110	21.3060
 2.1120	21.3520
 2.1130	21.3950
 2.1140	21.4420
 2.1150	21.4970
 2.1160	21.5430
 2.1170	21.5860
 2.1180	21.6300
 2.1190	21.6710
 2.1200	21.7120
 2.1210	21.7520
 2.1220	21.7980
 2.1230	21.8410
 2.1240	21.8820
 2.1250	21.9210
 2.1260	21.9590
 2.1270	22.0000
 2.1280	22.0420
 2.1290	22.0800
 2.1300	22.1170
 2.1310	22.1530
 2.1320	22.1790
 2.1330	22.2140
 2.1340	22.2620
 2.1350	22.2970
 2.1360	22.3290
 2.1370	22.3600
 2.1380	22.3820
 2.1390	22.4100
 2.1400	22.4460
 2.1410	22.4770
 2.1420	22.5060
 2.1430	22.5310
 2.1440	22.5630
 2.1450	22.5920
 2.1460	22.6290
 2.1470	22.6780
 2.1480	22.7200
 2.1490	22.7650
 2.1500	22.8070
 2.1510	22.8480
 2.1520	22.8850
 2.1530	22.9210
 2.1540	22.9490
 2.1550	22.9690
 2.1560	22.9880
 2.1570	22.9940
 2.1580	23.0120
 2.1590	23.0360
 2.1600	23.0620
 2.1610	23.0830
 2.1620	23.1090
 2.1630	23.1260
 2.1640	23.1270
 2.1650	23.1470
 2.1660	23.1700
 2.1670	23.2030
 2.1680	23.2550
 2.1690	23.2910
 2.1700	23.3300
 2.1710	23.3600
 2.1720	23.3730
 2.1730	23.4010
 2.1740	23.4380
 2.1750	23.4670
 2.1760	23.5020
 2.1770	23.5310
 2.1780	23.5480
 2.1790	23.5710
 2.1800	23.5980
 2.1810	23.6240
 2.1820	23.6520
 2.1830	23.6800
 2.1840	23.7060
 2.1850	23.7290
 2.1860	23.7600
 2.1870	23.7950
 2.1880	23.8290
 2.1890	23.8700
 2.1900	23.9040
 2.1910	23.9380
 2.1920	23.9640
 2.1930	23.9840
 2.1940	24.0020
 2.1950	24.0080
 2.1960	24.0230
 2.1970	24.0410
 2.1980	24.0570
 2.1990	24.0740
 2.2000	24.0910
 2.2010	24.1080
 2.2020	24.1220
 2.2030	24.1380
 2.2040	24.1500
 2.2050	24.1530
 2.2060	24.1610
 2.2070	24.1670
 2.2080	24.1740
 2.2090	24.1770
 2.2100	24.1760
 2.2110	24.1790
 2.2120	24.1830
 2.2130	24.1750
 2.2140	24.1670
 2.2150	24.1510
 2.2160	24.1190
 2.2170	24.1000
 2.2180	24.0830
 2.2190	24.0660
 2.2200	24.0570
 2.2210	24.0370
 2.2220	24.0130
 2.2230	23.9840
 2.2240	23.9470
 2.2250	23.9080
 2.2260	23.8630
 2.2270	23.8180
 2.2280	23.7650
 2.2290	23.7170
 2.2300	23.6810
 2.2310	23.6270
 2.2320	23.5780
 2.2330	23.5360
 2.2340	23.4880
 2.2350	23.4400
 2.2360	23.3810
 2.2370	23.3210
 2.2380	23.2510
 2.2390	23.1650
 2.2400	23.0880
 2.2410	23.0080
 2.2420	22.9310
 2.2430	22.8640
 2.2440	22.7780
 2.2450	22.6850
 2.2460	22.5880
 2.2470	22.4740
 2.2480	22.3720
 2.2490	22.2760
 2.2500	22.1760
 2.2510	22.0780
 2.2520	21.9750
 2.2530	21.8670
 2.2540	21.7620
 2.2550	21.6590
 2.2560	21.5540
 2.2570	21.4470
 2.2580	21.3430
 2.2590	21.2370
 2.2600	21.1340
 2.2610	21.0350
 2.2620	20.9450
 2.2630	20.8360
 2.2640	20.7320
 2.2650	20.6350
 2.2660	20.5300
 2.2670	20.4310
 2.2680	20.3410
 2.2690	20.2460
 2.2700	20.1390
 2.2710	20.0520
 2.2720	19.9760
 2.2730	19.9030
 2.2740	19.8400
 2.2750	19.7790
 2.2760	19.7240
 2.2770	19.6630
 2.2780	19.6090
 2.2790	19.5460
 2.2800	19.4690
 2.2810	19.4070
 2.2820	19.3530
 2.2830	19.2940
 2.2840	19.2460
 2.2850	19.1840
 2.2860	19.1100
 2.2870	19.0410
 2.2880	18.9660
 2.2890	18.8940
 2.2900	18.8270
 2.2910	18.7560
 2.2920	18.6720
 2.2930	18.6030
 2.2940	18.5480
 2.2950	18.4760
 2.2960	18.4090
 2.2970	18.3370
 2.2980	18.2500
 2.2990	18.1580
 2.3000	18.0860
 2.3010	18.0170
 2.3020	17.9370
 2.3030	17.8640
 2.3040	17.7910
 2.3050	17.7160
 2.3060	17.6700
 2.3070	17.6530
 2.3080	17.6370
 2.3090	17.6410
 2.3100	17.6430
 2.3110	17.6340
 2.3120	17.6400
 2.3130	17.6520
 2.3140	17.6660
 2.3150	17.6920
 2.3160	17.7070
 2.3170	17.7270
 2.3180	17.7280
 2.3190	17.7070
 2.3200	17.7040
 2.3210	17.6970
 2.3220	17.6910
 2.3230	17.7030
 2.3240	17.6950
 2.3250	17.6660
 2.3260	17.6520
 2.3270	17.6420
 2.3280	17.6230
 2.3290	17.6080
 2.3300	17.5820
 2.3310	17.5440
 2.3320	17.5050
 2.3330	17.4590
 2.3340	17.4150
 2.3350	17.3630
 2.3360	17.3230
 2.3370	17.2830
 2.3380	17.2570
 2.3390	17.2500
 2.3400	17.2270
 2.3410	17.2140
 2.3420	17.1840
 2.3430	17.1360
 2.3440	17.0950
 2.3450	17.0410
 2.3460	16.9990
 2.3470	16.9600
 2.3480	16.9310
 2.3490	16.9150
 2.3500	16.9000
 2.3510	16.8980
 2.3520	16.8810
 2.3530	16.8500
 2.3540	16.8400
 2.3550	16.8210
 2.3560	16.8180
 2.3570	16.8250
 2.3580	16.8180
 2.3590	16.7920
 2.3600	16.7580
 2.3610	16.7130
 2.3620	16.6740
 2.3630	16.6540
 2.3640	16.6350
 2.3650	16.6140
 2.3660	16.5880
 2.3670	16.5560
 2.3680	16.5090
 2.3690	16.4880
 2.3700	16.4870
 2.3710	16.4600
 2.3720	16.4450
 2.3730	16.4210
 2.3740	16.3860
 2.3750	16.3760
 2.3760	16.3810
 2.3770	16.3750
 2.3780	16.3240
 2.3790	16.2690
 2.3800	16.2200
 2.3810	16.1750
 2.3820	16.1650
 2.3830	16.1310
 2.3840	16.0820
 2.3850	16.0450
 2.3860	15.9840
 2.3870	15.9280
 2.3880	15.8960
 2.3890	15.8560
 2.3900	15.8050
 2.3910	15.7710
 2.3920	15.7310
 2.3930	15.6780
 2.3940	15.6440
 2.3950	15.6440
 2.3960	15.6360
 2.3970	15.5830
 2.3980	15.5150
 2.3990	15.4380
 2.4000	15.3570
 2.4010	15.3350
 2.4020	15.3580
 2.4030	15.3380
 2.4040	15.3170
 2.4050	15.3000
 2.4060	15.2410
 2.4070	15.2050
 2.4080	15.1730
 2.4090	15.1050
 2.4100	15.0450
 2.4110	15.0290
 2.4120	15.0160
 2.4130	14.9950
 2.4140	14.9760
 2.4150	14.9060
 2.4160	14.8220
 2.4170	14.7730
 2.4180	14.7330
 2.4190	14.7130
 2.4200	14.6910
 2.4210	14.6270
 2.4220	14.5630
 2.4230	14.4960
 2.4240	14.4340
 2.4250	14.4120
 2.4260	14.3680
 2.4270	14.3420
 2.4280	14.3320
 2.4290	14.2870
 2.4300	14.2640
 2.4310	14.2320
 2.4320	14.1650
 2.4330	14.0700
 2.4340	13.9830
 2.4350	13.9440
 2.4360	13.9200
 2.4370	13.9190
 2.4380	13.9310
 2.4390	13.9010
 2.4400	13.8040
 2.4410	13.7340
 2.4420	13.7080
 2.4430	13.6290
 2.4440	13.5620
 2.4450	13.4910
 2.4460	13.3280
 2.4470	13.2280
 2.4480	13.2290
 2.4490	13.1960
 2.4500	13.1940
 2.4510	13.1960
 2.4520	13.1210
 2.4530	13.0870
 2.4540	13.1160
 2.4550	13.1360
 2.4560	13.1140
 2.4570	13.0580
 2.4580	12.9870
 2.4590	12.8710
 2.4600	12.7840
 2.4610	12.7380
 2.4620	12.7190
 2.4630	12.8080
 2.4640	12.8220
 2.4650	12.7490
 2.4660	12.6860
 2.4670	12.5450
 2.4680	12.4920
 2.4690	12.5790
 2.4700	12.5650
 2.4710	12.5450
 2.4720	12.5210
 2.4730	12.4320
 2.4740	12.4020
 2.4750	12.3930
 2.4760	12.3460
 2.4770	12.3180
 2.4780	12.2650
 2.4790	12.1890
 2.4800	12.1880
 2.4810	12.2170
 2.4820	12.2660
 2.4830	12.2520
 2.4840	12.2030
 2.4850	12.1160
 2.4860	12.0290
 2.4870	12.0520
 2.4880	12.1070
 2.4890	12.0840
 2.4900	11.9860
 2.4910	11.8790
 2.4920	11.8240
 2.4930	11.8370
 2.4940	12.0240
 2.4950	12.1550
 2.4960	12.0580
 2.4970	12.0750
 2.4980	12.0250
 2.4990	11.9220
 2.5000	12.0150
