Name: Ceanothus spinosus 2
Type: vegetation
Class: Shrub
Genus: Ceanothus
Species: spinosus
Sample No.: VH009
Owner: UCSB
Wavelength Range: TIR
Origin: 34.4906; -119.7908; WGS84
Collection Date: 4/1/2013
Description: Samples were collected as part of the HyspIRI Airborne Campaign. 48 individual plants were sampled in three times in 2013 - spring  summer  and fall. The name of the sample includes a 1  2  or 3 which references a different individual of the species. Samples were taken to JPL and processed within 48 hours of collection. The same leaves were processed in the Nicolet and then measured using the ASD.
Measurement: Hemispherical reflectance
First Column: X
Second Column: Y
X Units: Wavelength (micrometers)
Y Units: Reflectance (percentage)
First X Value: 2.501
Last X Value: 15.387
Number of X Values: 1737
Additional Information: vegetation.shrub.ceanothus.spinosus.tir.vh009.ucsb.nicolet.ancillary.txt

 2.5010	 5.4050
 2.5030	 5.3030
 2.5040	 5.1010
 2.5050	 5.0830
 2.5060	 5.2050
 2.5070	 5.2620
 2.5090	 5.2650
 2.5100	 5.0540
 2.5110	 5.0150
 2.5120	 5.0900
 2.5140	 5.0910
 2.5150	 5.0620
 2.5160	 5.1320
 2.5170	 5.2240
 2.5180	 5.2960
 2.5200	 5.1460
 2.5210	 5.0710
 2.5220	 5.0470
 2.5230	 5.0490
 2.5250	 5.0870
 2.5260	 5.1140
 2.5270	 5.0840
 2.5280	 5.0950
 2.5290	 5.0690
 2.5310	 5.0860
 2.5320	 5.0600
 2.5330	 5.0440
 2.5340	 5.0650
 2.5360	 5.0690
 2.5370	 4.9730
 2.5380	 4.9390
 2.5390	 4.9380
 2.5410	 5.0260
 2.5420	 5.0470
 2.5430	 5.0490
 2.5440	 5.0580
 2.5460	 5.1250
 2.5470	 5.0360
 2.5480	 4.9900
 2.5490	 4.9900
 2.5510	 5.0930
 2.5520	 5.1450
 2.5530	 5.2440
 2.5540	 5.1450
 2.5560	 5.0920
 2.5570	 5.0320
 2.5580	 5.0570
 2.5590	 5.0500
 2.5610	 5.0290
 2.5620	 5.0330
 2.5630	 5.0380
 2.5640	 5.0410
 2.5660	 5.1750
 2.5670	 5.1350
 2.5680	 5.1790
 2.5700	 5.2040
 2.5710	 5.1450
 2.5720	 5.1530
 2.5730	 5.1670
 2.5750	 4.9960
 2.5760	 4.9920
 2.5770	 5.0680
 2.5790	 5.1230
 2.5800	 5.0000
 2.5810	 5.0570
 2.5820	 5.1110
 2.5840	 5.2150
 2.5850	 5.2080
 2.5860	 5.1110
 2.5880	 5.0350
 2.5890	 5.0920
 2.5900	 5.0770
 2.5910	 5.0700
 2.5930	 4.9900
 2.5940	 4.9280
 2.5950	 4.9060
 2.5970	 4.9500
 2.5980	 4.8960
 2.5990	 4.9890
 2.6000	 4.9920
 2.6020	 4.9700
 2.6030	 4.9760
 2.6040	 4.9120
 2.6060	 4.8340
 2.6070	 4.9730
 2.6080	 5.0020
 2.6100	 5.0820
 2.6110	 4.9760
 2.6120	 4.8800
 2.6140	 4.8030
 2.6150	 4.9730
 2.6160	 4.9330
 2.6180	 4.7390
 2.6190	 4.6940
 2.6200	 4.8240
 2.6220	 4.8500
 2.6230	 4.7540
 2.6240	 4.6540
 2.6260	 4.7080
 2.6270	 4.6360
 2.6280	 4.6370
 2.6300	 4.6200
 2.6310	 4.6650
 2.6320	 4.6720
 2.6340	 4.7380
 2.6350	 4.6770
 2.6360	 4.6730
 2.6380	 4.6100
 2.6390	 4.5800
 2.6400	 4.5360
 2.6420	 4.6240
 2.6430	 4.6370
 2.6440	 4.6280
 2.6460	 4.5700
 2.6470	 4.5280
 2.6480	 4.4900
 2.6500	 4.5150
 2.6510	 4.5860
 2.6520	 4.5590
 2.6540	 4.5360
 2.6550	 4.6020
 2.6560	 4.4930
 2.6580	 4.4190
 2.6590	 4.3660
 2.6610	 4.4020
 2.6620	 4.3990
 2.6630	 4.3610
 2.6650	 4.3150
 2.6660	 4.3230
 2.6670	 4.3540
 2.6690	 4.4700
 2.6700	 4.3840
 2.6720	 4.2830
 2.6730	 4.3460
 2.6740	 4.4020
 2.6760	 4.2740
 2.6770	 4.2970
 2.6780	 4.3600
 2.6800	 4.4210
 2.6810	 4.3410
 2.6830	 4.3220
 2.6840	 4.3640
 2.6850	 4.4400
 2.6870	 4.3340
 2.6880	 4.3550
 2.6900	 4.2820
 2.6910	 4.2730
 2.6920	 4.2710
 2.6940	 4.3210
 2.6950	 4.4760
 2.6970	 4.5030
 2.6980	 4.3250
 2.6990	 4.2750
 2.7010	 4.2320
 2.7020	 4.3120
 2.7040	 4.3030
 2.7050	 4.3350
 2.7060	 4.3310
 2.7080	 4.3850
 2.7090	 4.3970
 2.7110	 4.4780
 2.7120	 4.4650
 2.7130	 4.4200
 2.7150	 4.3610
 2.7160	 4.4120
 2.7180	 4.3760
 2.7190	 4.4020
 2.7210	 4.4160
 2.7220	 4.5600
 2.7230	 4.5280
 2.7250	 4.5320
 2.7260	 4.5140
 2.7280	 4.5230
 2.7290	 4.5160
 2.7310	 4.5710
 2.7320	 4.5580
 2.7330	 4.5750
 2.7350	 4.6010
 2.7360	 4.6110
 2.7380	 4.4940
 2.7390	 4.4990
 2.7410	 4.5650
 2.7420	 4.5920
 2.7440	 4.4250
 2.7450	 4.4450
 2.7470	 4.5630
 2.7480	 4.7050
 2.7490	 4.6920
 2.7510	 4.6320
 2.7520	 4.4660
 2.7540	 4.6210
 2.7550	 4.8780
 2.7570	 4.9670
 2.7580	 4.8710
 2.7600	 4.8040
 2.7610	 4.6960
 2.7630	 4.7210
 2.7640	 4.7630
 2.7660	 4.8200
 2.7670	 4.7570
 2.7680	 4.6890
 2.7700	 4.5420
 2.7710	 4.6420
 2.7730	 4.7100
 2.7740	 4.7700
 2.7760	 4.7510
 2.7770	 4.8400
 2.7790	 4.8200
 2.7800	 4.8850
 2.7820	 4.8660
 2.7830	 4.8340
 2.7850	 4.8230
 2.7860	 4.8090
 2.7880	 4.7330
 2.7890	 4.8490
 2.7910	 4.8570
 2.7920	 4.9900
 2.7940	 4.9610
 2.7950	 4.8580
 2.7970	 4.8960
 2.7980	 4.9810
 2.8000	 4.9720
 2.8010	 5.0600
 2.8030	 5.0850
 2.8040	 5.1750
 2.8060	 5.1340
 2.8070	 5.0780
 2.8090	 4.9420
 2.8110	 5.0440
 2.8120	 4.9870
 2.8140	 4.9580
 2.8150	 4.9920
 2.8170	 5.0160
 2.8180	 4.9200
 2.8200	 4.9920
 2.8210	 5.1180
 2.8230	 5.1760
 2.8240	 5.0920
 2.8260	 5.0090
 2.8270	 5.0030
 2.8290	 5.1580
 2.8300	 5.2170
 2.8320	 5.2210
 2.8340	 5.1150
 2.8350	 5.1580
 2.8370	 5.2190
 2.8380	 5.3140
 2.8400	 5.3130
 2.8410	 5.2570
 2.8430	 5.2140
 2.8440	 5.3060
 2.8460	 5.1740
 2.8480	 5.2470
 2.8490	 5.3260
 2.8510	 5.4100
 2.8520	 5.3620
 2.8540	 5.3480
 2.8550	 5.3050
 2.8570	 5.3150
 2.8590	 5.3390
 2.8600	 5.3940
 2.8620	 5.3560
 2.8630	 5.4180
 2.8650	 5.3990
 2.8660	 5.3650
 2.8680	 5.2760
 2.8700	 5.3490
 2.8710	 5.3250
 2.8730	 5.3080
 2.8740	 5.2970
 2.8760	 5.3830
 2.8780	 5.3360
 2.8790	 5.4120
 2.8810	 5.4560
 2.8820	 5.4620
 2.8840	 5.5010
 2.8860	 5.4600
 2.8870	 5.3580
 2.8890	 5.3790
 2.8900	 5.4300
 2.8920	 5.5890
 2.8940	 5.5070
 2.8950	 5.4770
 2.8970	 5.5750
 2.8980	 5.5620
 2.9000	 5.4060
 2.9020	 5.3440
 2.9030	 5.3060
 2.9050	 5.4620
 2.9070	 5.6710
 2.9080	 5.6030
 2.9100	 5.4150
 2.9120	 5.5880
 2.9130	 5.6530
 2.9150	 5.6720
 2.9160	 5.5870
 2.9180	 5.4760
 2.9200	 5.4660
 2.9210	 5.5900
 2.9230	 5.5380
 2.9250	 5.4220
 2.9260	 5.4300
 2.9280	 5.4640
 2.9300	 5.5240
 2.9310	 5.7160
 2.9330	 5.5980
 2.9350	 5.5250
 2.9360	 5.4670
 2.9380	 5.6540
 2.9400	 5.7420
 2.9410	 5.6740
 2.9430	 5.5160
 2.9450	 5.4440
 2.9460	 5.4620
 2.9480	 5.5200
 2.9500	 5.4940
 2.9510	 5.7340
 2.9530	 5.7290
 2.9550	 5.3880
 2.9560	 5.2200
 2.9580	 5.4360
 2.9600	 5.5220
 2.9610	 5.6340
 2.9630	 5.4290
 2.9650	 5.2250
 2.9660	 5.4220
 2.9680	 5.6040
 2.9700	 5.5230
 2.9720	 5.6490
 2.9730	 5.3900
 2.9750	 5.4260
 2.9770	 5.2210
 2.9780	 4.8640
 2.9800	 5.1890
 2.9820	 5.6230
 2.9840	 5.5360
 2.9850	 4.9670
 2.9870	 4.5790
 2.9890	 4.9870
 2.9900	 5.1590
 2.9920	 5.0880
 2.9940	 5.3720
 2.9960	 5.9300
 2.9970	 5.4240
 2.9990	 5.0690
 3.0010	 5.5910
 3.0030	 5.5700
 3.0040	 5.2980
 3.0060	 5.3490
 3.0080	 5.5420
 3.0100	 5.3360
 3.0110	 5.4210
 3.0130	 6.0470
 3.0150	 6.3170
 3.0170	 5.7700
 3.0180	 5.4720
 3.0200	 5.6450
 3.0220	 5.2910
 3.0240	 5.2970
 3.0250	 5.2100
 3.0270	 5.4380
 3.0290	 5.3650
 3.0310	 4.8940
 3.0320	 4.6580
 3.0340	 5.3380
 3.0360	 6.0630
 3.0380	 5.4690
 3.0400	 4.9030
 3.0410	 5.6450
 3.0430	 5.4190
 3.0450	 5.2050
 3.0470	 5.1370
 3.0480	 5.1550
 3.0500	 5.3100
 3.0520	 5.6100
 3.0540	 5.0810
 3.0560	 4.7720
 3.0570	 5.1700
 3.0590	 4.9700
 3.0610	 4.8470
 3.0630	 4.9660
 3.0650	 5.1140
 3.0660	 5.0610
 3.0680	 4.5820
 3.0700	 4.5280
 3.0720	 4.7810
 3.0740	 5.1310
 3.0760	 4.9360
 3.0770	 4.8650
 3.0790	 4.9500
 3.0810	 5.0500
 3.0830	 5.1970
 3.0850	 5.3490
 3.0870	 5.1900
 3.0880	 4.9980
 3.0900	 5.0210
 3.0920	 5.2460
 3.0940	 5.2190
 3.0960	 5.1870
 3.0980	 4.9500
 3.0990	 4.8140
 3.1010	 4.8090
 3.1030	 4.9740
 3.1050	 4.9180
 3.1070	 4.8220
 3.1090	 4.9450
 3.1110	 4.9240
 3.1120	 4.7430
 3.1140	 4.8770
 3.1160	 4.9830
 3.1180	 4.9280
 3.1200	 4.8650
 3.1220	 4.8650
 3.1240	 4.8810
 3.1260	 4.9270
 3.1270	 4.9390
 3.1290	 4.9800
 3.1310	 4.8910
 3.1330	 4.7900
 3.1350	 4.8690
 3.1370	 4.9500
 3.1390	 4.7760
 3.1410	 4.7520
 3.1430	 5.0170
 3.1450	 5.0870
 3.1460	 4.6400
 3.1480	 4.6650
 3.1500	 4.8300
 3.1520	 4.8660
 3.1540	 4.7710
 3.1560	 4.8860
 3.1580	 5.2950
 3.1600	 5.2980
 3.1620	 4.6640
 3.1640	 4.6730
 3.1660	 5.0660
 3.1680	 5.1390
 3.1700	 4.6880
 3.1710	 4.7430
 3.1730	 5.2780
 3.1750	 4.7960
 3.1770	 4.7620
 3.1790	 5.5190
 3.1810	 5.0190
 3.1830	 4.3810
 3.1850	 4.2660
 3.1870	 4.3570
 3.1890	 4.5900
 3.1910	 4.8210
 3.1930	 4.8400
 3.1950	 4.5790
 3.1970	 4.3150
 3.1990	 4.3970
 3.2010	 4.4220
 3.2030	 4.5470
 3.2050	 4.6020
 3.2070	 4.6470
 3.2090	 4.5680
 3.2110	 4.5320
 3.2130	 4.5220
 3.2150	 4.5270
 3.2170	 4.4200
 3.2190	 4.4330
 3.2210	 4.4640
 3.2230	 4.4810
 3.2250	 4.4650
 3.2270	 4.5400
 3.2290	 4.4870
 3.2310	 4.4500
 3.2330	 4.3150
 3.2350	 4.2910
 3.2370	 4.3670
 3.2390	 4.4720
 3.2410	 4.3600
 3.2430	 4.2090
 3.2450	 4.1660
 3.2470	 4.3200
 3.2490	 4.4200
 3.2510	 4.5080
 3.2530	 4.4270
 3.2550	 4.4090
 3.2570	 4.3790
 3.2590	 4.4140
 3.2610	 4.3010
 3.2630	 4.3230
 3.2650	 4.3580
 3.2670	 4.3970
 3.2690	 4.3280
 3.2720	 4.2790
 3.2740	 4.2420
 3.2760	 4.2490
 3.2780	 4.2380
 3.2800	 4.2170
 3.2820	 4.2190
 3.2840	 4.3230
 3.2860	 4.2670
 3.2880	 4.3400
 3.2900	 4.3500
 3.2920	 4.2700
 3.2940	 4.2040
 3.2960	 4.2860
 3.2990	 4.3060
 3.3010	 4.2920
 3.3030	 4.2280
 3.3050	 4.1220
 3.3070	 4.0560
 3.3090	 4.1630
 3.3110	 4.1390
 3.3130	 4.0920
 3.3150	 4.0750
 3.3180	 4.1170
 3.3200	 4.0760
 3.3220	 4.0040
 3.3240	 3.9860
 3.3260	 4.0040
 3.3280	 3.9780
 3.3300	 4.0650
 3.3330	 4.0210
 3.3350	 3.9010
 3.3370	 3.8430
 3.3390	 3.9500
 3.3410	 3.9750
 3.3430	 3.9560
 3.3450	 3.8760
 3.3480	 3.9290
 3.3500	 3.9630
 3.3520	 3.9270
 3.3540	 3.7760
 3.3560	 3.7460
 3.3580	 3.7310
 3.3610	 3.7540
 3.3630	 3.7590
 3.3650	 3.7400
 3.3670	 3.6250
 3.3690	 3.7100
 3.3720	 3.7350
 3.3740	 3.7350
 3.3760	 3.6920
 3.3780	 3.7120
 3.3800	 3.6560
 3.3830	 3.6820
 3.3850	 3.6560
 3.3870	 3.7040
 3.3890	 3.6350
 3.3910	 3.5910
 3.3940	 3.5230
 3.3960	 3.6620
 3.3980	 3.6730
 3.4000	 3.6190
 3.4020	 3.6580
 3.4050	 3.8030
 3.4070	 3.9670
 3.4090	 4.2180
 3.4110	 4.4650
 3.4140	 4.7510
 3.4160	 5.0510
 3.4180	 5.3870
 3.4200	 5.8010
 3.4230	 6.4630
 3.4250	 7.1430
 3.4270	 7.8050
 3.4290	 7.9990
 3.4320	 7.6780
 3.4340	 6.9870
 3.4360	 6.4730
 3.4390	 6.0420
 3.4410	 5.8180
 3.4430	 5.7940
 3.4450	 5.7730
 3.4480	 5.6890
 3.4500	 5.6980
 3.4520	 5.6390
 3.4550	 5.5550
 3.4570	 5.4800
 3.4590	 5.5070
 3.4620	 5.4840
 3.4640	 5.4030
 3.4660	 5.3050
 3.4680	 5.2340
 3.4710	 5.0540
 3.4730	 4.9820
 3.4750	 4.9100
 3.4780	 4.8990
 3.4800	 4.9310
 3.4820	 4.8620
 3.4850	 4.7320
 3.4870	 4.7320
 3.4890	 4.7110
 3.4920	 4.7010
 3.4940	 4.6770
 3.4970	 4.7520
 3.4990	 4.8000
 3.5010	 5.0010
 3.5040	 5.3040
 3.5060	 5.9830
 3.5080	 6.9500
 3.5110	 7.7120
 3.5130	 7.5320
 3.5160	 6.8690
 3.5180	 6.3460
 3.5200	 6.0590
 3.5230	 5.8470
 3.5250	 5.7580
 3.5270	 5.6190
 3.5300	 5.5880
 3.5320	 5.5420
 3.5350	 5.4510
 3.5370	 5.4280
 3.5400	 5.4040
 3.5420	 5.3390
 3.5440	 5.3620
 3.5470	 5.2970
 3.5490	 5.2570
 3.5520	 5.2320
 3.5540	 5.2000
 3.5570	 5.1710
 3.5590	 5.2580
 3.5610	 5.2380
 3.5640	 5.1550
 3.5660	 5.0030
 3.5690	 4.9430
 3.5710	 4.9850
 3.5740	 5.0910
 3.5760	 5.1280
 3.5790	 5.1470
 3.5810	 5.1840
 3.5840	 5.2080
 3.5860	 5.0980
 3.5890	 5.0650
 3.5910	 5.0630
 3.5930	 4.9700
 3.5960	 5.0180
 3.5980	 5.1360
 3.6010	 5.0990
 3.6030	 4.9780
 3.6060	 4.9170
 3.6080	 4.9730
 3.6110	 4.9980
 3.6140	 4.9810
 3.6160	 4.9270
 3.6190	 4.9780
 3.6210	 4.9990
 3.6240	 4.9510
 3.6260	 4.9880
 3.6290	 5.0580
 3.6310	 4.9980
 3.6340	 4.9430
 3.6360	 4.8010
 3.6390	 4.8080
 3.6410	 4.8670
 3.6440	 4.9010
 3.6470	 4.8890
 3.6490	 4.9270
 3.6520	 4.9200
 3.6540	 4.9030
 3.6570	 4.9000
 3.6590	 4.8830
 3.6620	 4.8540
 3.6650	 4.8540
 3.6670	 4.8480
 3.6700	 4.8390
 3.6720	 4.8460
 3.6750	 4.8860
 3.6780	 4.8700
 3.6800	 4.8710
 3.6830	 4.8540
 3.6850	 4.9160
 3.6880	 4.9200
 3.6910	 4.9170
 3.6930	 4.8060
 3.6960	 4.7720
 3.6990	 4.7790
 3.7010	 4.7790
 3.7040	 4.8210
 3.7060	 4.8960
 3.7090	 4.8820
 3.7120	 4.8750
 3.7140	 4.8140
 3.7170	 4.7710
 3.7200	 4.7950
 3.7220	 4.8590
 3.7250	 4.9020
 3.7280	 4.8780
 3.7300	 4.8130
 3.7330	 4.8170
 3.7360	 4.8280
 3.7390	 4.8150
 3.7410	 4.7650
 3.7440	 4.7670
 3.7470	 4.7650
 3.7490	 4.7880
 3.7520	 4.8240
 3.7550	 4.8920
 3.7580	 4.8390
 3.7600	 4.7660
 3.7630	 4.7550
 3.7660	 4.8800
 3.7680	 4.9260
 3.7710	 4.8710
 3.7740	 4.7750
 3.7770	 4.8580
 3.7790	 4.9210
 3.7820	 4.8940
 3.7850	 4.8170
 3.7880	 4.8030
 3.7900	 4.8260
 3.7930	 4.8630
 3.7960	 4.8280
 3.7990	 4.8150
 3.8020	 4.8070
 3.8040	 4.8100
 3.8070	 4.8370
 3.8100	 4.8200
 3.8130	 4.7970
 3.8160	 4.8040
 3.8180	 4.8240
 3.8210	 4.9010
 3.8240	 4.8270
 3.8270	 4.7700
 3.8300	 4.8200
 3.8330	 4.8890
 3.8350	 4.9220
 3.8380	 4.9080
 3.8410	 4.8410
 3.8440	 4.8100
 3.8470	 4.8080
 3.8500	 4.8660
 3.8520	 4.8980
 3.8550	 4.9050
 3.8580	 4.8940
 3.8610	 4.9490
 3.8640	 4.8880
 3.8670	 4.8500
 3.8700	 4.8700
 3.8730	 4.9630
 3.8750	 4.9500
 3.8780	 4.9060
 3.8810	 4.8530
 3.8840	 4.8610
 3.8870	 4.8360
 3.8900	 4.8360
 3.8930	 4.8170
 3.8960	 4.7850
 3.8990	 4.7690
 3.9020	 4.8200
 3.9050	 4.8130
 3.9080	 4.8240
 3.9110	 4.7980
 3.9140	 4.8230
 3.9160	 4.8950
 3.9190	 4.9220
 3.9220	 4.8860
 3.9250	 4.8250
 3.9280	 4.8160
 3.9310	 4.8960
 3.9340	 4.8860
 3.9370	 4.8620
 3.9400	 4.8550
 3.9430	 4.8380
 3.9460	 4.8700
 3.9490	 4.9660
 3.9520	 4.9420
 3.9550	 4.8850
 3.9580	 4.8920
 3.9610	 4.9340
 3.9640	 4.9260
 3.9670	 4.9310
 3.9700	 4.9260
 3.9730	 4.9520
 3.9770	 4.9620
 3.9800	 4.9440
 3.9830	 4.9210
 3.9860	 4.9670
 3.9890	 4.9410
 3.9920	 4.9420
 3.9950	 4.9360
 3.9980	 4.9180
 4.0010	 4.8780
 4.0040	 4.9030
 4.0070	 4.9200
 4.0100	 4.9000
 4.0130	 4.8730
 4.0170	 4.8720
 4.0200	 4.8340
 4.0230	 4.8170
 4.0260	 4.8560
 4.0290	 4.9370
 4.0320	 4.9590
 4.0350	 4.9190
 4.0380	 4.8850
 4.0420	 4.8720
 4.0450	 4.8770
 4.0480	 4.9150
 4.0510	 4.8980
 4.0540	 4.8670
 4.0570	 4.8940
 4.0610	 4.9730
 4.0640	 4.9450
 4.0670	 4.9480
 4.0700	 4.9320
 4.0730	 4.9450
 4.0770	 4.9730
 4.0800	 4.9610
 4.0830	 4.9360
 4.0860	 4.9340
 4.0890	 4.9310
 4.0930	 4.9600
 4.0960	 4.9300
 4.0990	 4.8730
 4.1020	 4.8430
 4.1060	 4.8550
 4.1090	 4.8600
 4.1120	 4.9660
 4.1150	 4.9570
 4.1190	 4.8970
 4.1220	 4.9030
 4.1250	 4.9230
 4.1280	 4.9140
 4.1320	 4.9510
 4.1350	 4.9290
 4.1380	 4.8850
 4.1420	 4.8530
 4.1450	 4.9000
 4.1480	 4.8890
 4.1520	 4.8900
 4.1550	 4.9260
 4.1580	 4.8960
 4.1620	 4.8500
 4.1650	 4.8890
 4.1680	 4.8860
 4.1720	 4.9120
 4.1750	 4.9280
 4.1780	 4.9500
 4.1820	 4.9680
 4.1850	 4.9630
 4.1890	 4.9300
 4.1920	 4.8820
 4.1950	 4.8340
 4.1990	 4.8710
 4.2020	 4.9280
 4.2060	 4.9520
 4.2090	 4.9200
 4.2120	 4.8610
 4.2160	 4.8320
 4.2190	 4.7750
 4.2230	 4.7750
 4.2260	 4.8740
 4.2300	 4.7280
 4.2330	 4.4740
 4.2360	 4.3880
 4.2400	 4.5240
 4.2430	 4.8360
 4.2470	 4.8830
 4.2500	 4.6600
 4.2540	 4.6580
 4.2570	 4.7130
 4.2610	 4.7220
 4.2640	 4.7350
 4.2680	 4.8460
 4.2710	 4.7510
 4.2750	 4.6820
 4.2780	 4.7400
 4.2820	 4.7280
 4.2850	 4.7060
 4.2890	 4.7260
 4.2930	 4.7200
 4.2960	 4.6330
 4.3000	 4.5900
 4.3030	 4.6430
 4.3070	 4.7460
 4.3100	 4.7740
 4.3140	 4.7740
 4.3180	 4.7550
 4.3210	 4.6640
 4.3250	 4.6400
 4.3280	 4.6480
 4.3320	 4.6860
 4.3360	 4.7720
 4.3390	 4.8660
 4.3430	 4.8400
 4.3470	 4.8230
 4.3500	 4.8520
 4.3540	 4.8510
 4.3570	 4.8160
 4.3610	 4.8420
 4.3650	 4.8740
 4.3680	 4.8380
 4.3720	 4.8610
 4.3760	 4.9140
 4.3800	 4.8990
 4.3830	 4.8400
 4.3870	 4.7950
 4.3910	 4.8240
 4.3940	 4.7950
 4.3980	 4.7780
 4.4020	 4.8330
 4.4060	 4.8540
 4.4090	 4.8130
 4.4130	 4.7520
 4.4170	 4.7220
 4.4210	 4.7910
 4.4240	 4.8230
 4.4280	 4.8190
 4.4320	 4.8010
 4.4360	 4.7900
 4.4400	 4.8140
 4.4430	 4.8240
 4.4470	 4.8140
 4.4510	 4.8440
 4.4550	 4.8370
 4.4590	 4.8070
 4.4620	 4.8260
 4.4660	 4.8570
 4.4700	 4.8450
 4.4740	 4.8500
 4.4780	 4.7950
 4.4820	 4.7260
 4.4860	 4.7640
 4.4900	 4.8010
 4.4930	 4.7850
 4.4970	 4.7630
 4.5010	 4.7860
 4.5050	 4.8320
 4.5090	 4.8410
 4.5130	 4.8690
 4.5170	 4.8410
 4.5210	 4.7860
 4.5250	 4.7880
 4.5290	 4.7990
 4.5330	 4.7920
 4.5370	 4.7630
 4.5410	 4.7690
 4.5450	 4.7940
 4.5490	 4.7960
 4.5530	 4.8120
 4.5570	 4.7880
 4.5610	 4.8370
 4.5650	 4.8540
 4.5690	 4.8300
 4.5730	 4.8120
 4.5770	 4.7630
 4.5810	 4.7750
 4.5850	 4.8470
 4.5890	 4.8400
 4.5930	 4.8450
 4.5970	 4.8850
 4.6010	 4.8280
 4.6050	 4.8220
 4.6090	 4.7750
 4.6130	 4.7770
 4.6170	 4.7830
 4.6220	 4.7550
 4.6260	 4.7560
 4.6300	 4.7210
 4.6340	 4.6870
 4.6380	 4.7190
 4.6420	 4.7590
 4.6460	 4.7010
 4.6510	 4.6980
 4.6550	 4.6940
 4.6590	 4.6800
 4.6630	 4.7640
 4.6670	 4.7700
 4.6720	 4.7220
 4.6760	 4.7560
 4.6800	 4.8030
 4.6840	 4.8170
 4.6880	 4.7680
 4.6930	 4.7570
 4.6970	 4.7820
 4.7010	 4.8300
 4.7050	 4.7700
 4.7100	 4.6970
 4.7140	 4.7650
 4.7180	 4.7840
 4.7230	 4.7530
 4.7270	 4.7900
 4.7310	 4.7520
 4.7360	 4.7330
 4.7400	 4.7550
 4.7440	 4.7270
 4.7490	 4.7430
 4.7530	 4.7900
 4.7570	 4.8080
 4.7620	 4.8010
 4.7660	 4.7840
 4.7700	 4.7150
 4.7750	 4.7070
 4.7790	 4.7070
 4.7840	 4.6730
 4.7880	 4.7120
 4.7920	 4.7440
 4.7970	 4.7210
 4.8010	 4.6790
 4.8060	 4.6940
 4.8100	 4.7260
 4.8150	 4.6970
 4.8190	 4.6880
 4.8240	 4.6900
 4.8280	 4.7240
 4.8330	 4.7420
 4.8370	 4.7530
 4.8420	 4.6840
 4.8460	 4.6530
 4.8510	 4.6950
 4.8550	 4.7130
 4.8600	 4.6970
 4.8640	 4.6720
 4.8690	 4.6610
 4.8730	 4.7040
 4.8780	 4.6910
 4.8830	 4.6970
 4.8870	 4.6720
 4.8920	 4.6760
 4.8960	 4.7050
 4.9010	 4.6930
 4.9060	 4.6790
 4.9100	 4.7030
 4.9150	 4.6800
 4.9200	 4.6420
 4.9240	 4.6830
 4.9290	 4.7350
 4.9340	 4.7220
 4.9380	 4.7040
 4.9430	 4.6820
 4.9480	 4.6870
 4.9530	 4.7030
 4.9570	 4.7260
 4.9620	 4.7000
 4.9670	 4.6560
 4.9720	 4.6140
 4.9760	 4.6040
 4.9810	 4.6310
 4.9860	 4.6490
 4.9910	 4.6560
 4.9960	 4.6840
 5.0000	 4.6580
 5.0050	 4.6970
 5.0100	 4.6320
 5.0150	 4.5880
 5.0200	 4.6200
 5.0250	 4.6690
 5.0290	 4.6810
 5.0340	 4.6670
 5.0390	 4.6280
 5.0440	 4.6590
 5.0490	 4.6820
 5.0540	 4.6850
 5.0590	 4.7070
 5.0640	 4.7280
 5.0690	 4.7270
 5.0740	 4.7360
 5.0790	 4.6940
 5.0840	 4.6920
 5.0890	 4.6700
 5.0940	 4.6400
 5.0990	 4.6440
 5.1040	 4.6330
 5.1090	 4.6460
 5.1140	 4.6980
 5.1190	 4.6470
 5.1240	 4.6620
 5.1290	 4.7410
 5.1340	 4.7840
 5.1390	 4.7680
 5.1440	 4.7440
 5.1490	 4.6600
 5.1540	 4.6390
 5.1600	 4.7020
 5.1650	 4.7130
 5.1700	 4.6660
 5.1750	 4.6720
 5.1800	 4.6700
 5.1850	 4.7120
 5.1910	 4.6990
 5.1960	 4.6730
 5.2010	 4.6640
 5.2060	 4.6310
 5.2110	 4.6310
 5.2170	 4.6820
 5.2220	 4.6610
 5.2270	 4.6660
 5.2320	 4.6610
 5.2380	 4.6840
 5.2430	 4.6910
 5.2480	 4.7550
 5.2540	 4.7080
 5.2590	 4.6560
 5.2640	 4.6700
 5.2700	 4.7290
 5.2750	 4.6960
 5.2800	 4.6790
 5.2860	 4.6700
 5.2910	 4.6890
 5.2970	 4.6050
 5.3020	 4.6250
 5.3070	 4.6430
 5.3130	 4.6330
 5.3180	 4.6220
 5.3240	 4.6270
 5.3290	 4.6230
 5.3350	 4.6230
 5.3400	 4.5890
 5.3460	 4.6080
 5.3510	 4.6480
 5.3570	 4.7020
 5.3620	 4.6700
 5.3680	 4.6200
 5.3730	 4.5810
 5.3790	 4.5800
 5.3850	 4.5480
 5.3900	 4.5830
 5.3960	 4.5870
 5.4010	 4.6570
 5.4070	 4.6920
 5.4130	 4.6630
 5.4180	 4.5670
 5.4240	 4.5800
 5.4300	 4.5630
 5.4350	 4.5870
 5.4410	 4.5880
 5.4470	 4.5870
 5.4530	 4.5380
 5.4580	 4.5900
 5.4640	 4.6260
 5.4700	 4.5520
 5.4760	 4.4920
 5.4810	 4.5320
 5.4870	 4.5020
 5.4930	 4.5310
 5.4990	 4.5130
 5.5050	 4.5140
 5.5110	 4.5040
 5.5160	 4.4810
 5.5220	 4.4810
 5.5280	 4.5140
 5.5340	 4.4840
 5.5400	 4.4740
 5.5460	 4.4630
 5.5520	 4.4860
 5.5580	 4.4610
 5.5640	 4.4640
 5.5700	 4.4370
 5.5760	 4.4330
 5.5820	 4.3940
 5.5880	 4.3960
 5.5940	 4.3860
 5.6000	 4.3920
 5.6060	 4.3340
 5.6120	 4.3360
 5.6180	 4.3520
 5.6240	 4.3830
 5.6300	 4.3290
 5.6360	 4.3270
 5.6420	 4.2900
 5.6490	 4.2780
 5.6550	 4.2270
 5.6610	 4.1940
 5.6670	 4.1220
 5.6730	 4.0640
 5.6800	 4.0030
 5.6860	 3.9880
 5.6920	 3.9210
 5.6980	 3.8780
 5.7040	 3.7860
 5.7110	 3.6910
 5.7170	 3.5710
 5.7230	 3.5620
 5.7300	 3.5560
 5.7360	 3.5890
 5.7420	 3.6710
 5.7490	 3.8590
 5.7550	 4.0900
 5.7620	 4.4000
 5.7680	 4.7220
 5.7740	 5.0750
 5.7810	 5.2500
 5.7870	 5.3830
 5.7940	 5.4880
 5.8000	 5.5950
 5.8070	 5.6410
 5.8130	 5.6390
 5.8200	 5.6260
 5.8260	 5.7130
 5.8330	 5.7310
 5.8390	 5.8170
 5.8460	 5.8460
 5.8530	 5.9050
 5.8590	 5.8980
 5.8660	 5.9510
 5.8720	 5.9430
 5.8790	 5.9420
 5.8860	 5.8330
 5.8920	 5.8660
 5.8990	 5.9050
 5.9060	 5.8800
 5.9130	 5.7850
 5.9190	 5.7210
 5.9260	 5.6460
 5.9330	 5.6470
 5.9400	 5.6010
 5.9470	 5.6170
 5.9530	 5.5460
 5.9600	 5.4850
 5.9670	 5.3870
 5.9740	 5.3490
 5.9810	 5.2320
 5.9880	 5.1800
 5.9950	 5.1030
 6.0020	 5.0800
 6.0090	 4.9960
 6.0160	 4.9680
 6.0230	 4.9210
 6.0300	 4.9310
 6.0370	 4.8640
 6.0440	 4.9050
 6.0510	 4.8480
 6.0580	 4.8120
 6.0650	 4.7600
 6.0720	 4.7780
 6.0790	 4.6990
 6.0860	 4.6560
 6.0930	 4.6930
 6.1000	 4.8130
 6.1080	 4.7440
 6.1150	 4.6820
 6.1220	 4.5810
 6.1290	 4.5920
 6.1370	 4.6210
 6.1440	 4.6630
 6.1510	 4.6140
 6.1580	 4.6280
 6.1660	 4.5500
 6.1730	 4.5810
 6.1800	 4.5670
 6.1880	 4.6090
 6.1950	 4.5980
 6.2030	 4.6140
 6.2100	 4.5730
 6.2170	 4.5990
 6.2250	 4.5330
 6.2320	 4.5650
 6.2400	 4.5860
 6.2470	 4.6140
 6.2550	 4.5700
 6.2630	 4.5650
 6.2700	 4.5490
 6.2780	 4.5570
 6.2850	 4.5320
 6.2930	 4.5420
 6.3010	 4.4730
 6.3080	 4.5370
 6.3160	 4.4980
 6.3240	 4.5270
 6.3310	 4.5150
 6.3390	 4.5380
 6.3470	 4.5130
 6.3550	 4.5430
 6.3620	 4.4660
 6.3700	 4.4900
 6.3780	 4.4860
 6.3860	 4.5520
 6.3940	 4.5170
 6.4020	 4.5470
 6.4100	 4.5210
 6.4180	 4.5320
 6.4260	 4.5300
 6.4330	 4.5290
 6.4410	 4.4660
 6.4490	 4.5280
 6.4580	 4.5420
 6.4660	 4.5810
 6.4740	 4.5150
 6.4820	 4.5340
 6.4900	 4.5240
 6.4980	 4.5490
 6.5060	 4.4770
 6.5140	 4.4620
 6.5230	 4.4280
 6.5310	 4.5200
 6.5390	 4.4800
 6.5470	 4.4640
 6.5550	 4.3900
 6.5640	 4.3920
 6.5720	 4.4240
 6.5800	 4.4800
 6.5890	 4.4680
 6.5970	 4.5940
 6.6060	 4.6150
 6.6140	 4.5970
 6.6220	 4.5180
 6.6310	 4.5750
 6.6390	 4.5420
 6.6480	 4.6350
 6.6560	 4.6020
 6.6650	 4.5300
 6.6740	 4.4240
 6.6820	 4.4160
 6.6910	 4.3580
 6.6990	 4.3510
 6.7080	 4.2910
 6.7170	 4.3360
 6.7260	 4.3090
 6.7340	 4.3060
 6.7430	 4.2430
 6.7520	 4.1860
 6.7610	 4.1190
 6.7690	 4.1700
 6.7780	 4.2460
 6.7870	 4.4630
 6.7960	 4.4690
 6.8050	 4.3960
 6.8140	 4.3220
 6.8230	 4.5390
 6.8320	 4.8130
 6.8410	 4.9530
 6.8500	 4.8750
 6.8590	 4.8910
 6.8680	 4.8200
 6.8770	 4.8830
 6.8860	 4.8440
 6.8950	 4.8710
 6.9050	 4.8130
 6.9140	 4.7690
 6.9230	 4.6620
 6.9320	 4.6500
 6.9420	 4.6020
 6.9510	 4.6670
 6.9600	 4.6500
 6.9700	 4.6030
 6.9790	 4.5330
 6.9880	 4.6590
 6.9980	 4.6430
 7.0070	 4.6410
 7.0170	 4.5150
 7.0260	 4.5010
 7.0360	 4.4790
 7.0450	 4.5150
 7.0550	 4.4180
 7.0650	 4.4210
 7.0740	 4.4040
 7.0840	 4.4960
 7.0940	 4.4850
 7.1030	 4.5100
 7.1130	 4.3420
 7.1230	 4.3320
 7.1330	 4.3480
 7.1420	 4.4700
 7.1520	 4.4330
 7.1620	 4.4310
 7.1720	 4.3770
 7.1820	 4.4020
 7.1920	 4.3830
 7.2020	 4.4520
 7.2120	 4.4260
 7.2220	 4.5190
 7.2320	 4.5060
 7.2420	 4.5390
 7.2520	 4.4280
 7.2620	 4.4620
 7.2730	 4.4700
 7.2830	 4.5400
 7.2930	 4.5270
 7.3030	 4.5590
 7.3140	 4.5140
 7.3240	 4.5880
 7.3340	 4.5420
 7.3450	 4.5370
 7.3550	 4.4650
 7.3660	 4.5280
 7.3760	 4.4790
 7.3870	 4.5190
 7.3970	 4.5270
 7.4080	 4.5920
 7.4180	 4.4780
 7.4290	 4.5240
 7.4400	 4.4430
 7.4500	 4.3990
 7.4610	 4.3540
 7.4720	 4.4010
 7.4830	 4.3030
 7.4930	 4.2830
 7.5040	 4.2420
 7.5150	 4.3030
 7.5260	 4.2230
 7.5370	 4.2560
 7.5480	 4.1670
 7.5590	 4.1680
 7.5700	 4.1740
 7.5810	 4.2790
 7.5920	 4.2050
 7.6030	 4.2300
 7.6140	 4.1250
 7.6260	 4.1960
 7.6370	 4.2380
 7.6480	 4.3250
 7.6590	 4.2530
 7.6710	 4.2290
 7.6820	 4.2100
 7.6930	 4.2860
 7.7050	 4.1910
 7.7160	 4.1870
 7.7280	 4.0590
 7.7390	 4.1220
 7.7510	 4.1560
 7.7630	 4.3100
 7.7740	 4.2160
 7.7860	 4.1720
 7.7980	 4.0780
 7.8090	 4.1470
 7.8210	 4.0960
 7.8330	 4.1860
 7.8450	 4.1840
 7.8570	 4.3020
 7.8690	 4.2860
 7.8810	 4.3760
 7.8930	 4.3690
 7.9050	 4.3730
 7.9170	 4.2310
 7.9290	 4.3160
 7.9410	 4.3200
 7.9530	 4.3990
 7.9650	 4.3850
 7.9780	 4.5280
 7.9900	 4.4620
 8.0020	 4.4170
 8.0150	 4.3760
 8.0270	 4.5770
 8.0390	 4.5520
 8.0520	 4.6850
 8.0640	 4.6360
 8.0770	 4.6930
 8.0900	 4.7060
 8.1020	 4.7540
 8.1150	 4.6380
 8.1280	 4.6670
 8.1400	 4.5900
 8.1530	 4.7290
 8.1660	 4.7020
 8.1790	 4.8040
 8.1920	 4.6970
 8.2050	 4.7260
 8.2180	 4.6100
 8.2310	 4.7290
 8.2440	 4.7220
 8.2570	 4.8670
 8.2700	 4.7030
 8.2830	 4.7390
 8.2970	 4.6680
 8.3100	 4.7730
 8.3230	 4.7260
 8.3370	 4.8500
 8.3500	 4.8280
 8.3640	 4.9880
 8.3770	 4.9200
 8.3910	 5.0270
 8.4040	 5.0430
 8.4180	 5.2020
 8.4320	 5.1610
 8.4450	 5.1940
 8.4590	 5.1370
 8.4730	 5.3580
 8.4870	 5.3380
 8.5010	 5.5400
 8.5150	 5.6580
 8.5290	 5.8090
 8.5430	 5.7290
 8.5570	 5.8750
 8.5710	 5.8720
 8.5850	 5.9390
 8.5990	 5.7930
 8.6140	 5.8010
 8.6280	 5.5960
 8.6420	 5.4810
 8.6570	 5.3540
 8.6710	 5.4780
 8.6860	 5.4060
 8.7000	 5.4210
 8.7150	 5.3380
 8.7300	 5.4270
 8.7440	 5.3280
 8.7590	 5.4430
 8.7740	 5.3290
 8.7890	 5.3420
 8.8040	 5.1510
 8.8190	 5.2500
 8.8340	 5.2740
 8.8490	 5.4380
 8.8640	 5.2370
 8.8790	 5.2900
 8.8940	 5.1870
 8.9100	 5.2110
 8.9250	 5.0280
 8.9400	 5.1070
 8.9560	 4.9690
 8.9710	 4.9920
 8.9870	 4.8450
 9.0020	 4.8810
 9.0180	 4.6830
 9.0340	 4.7770
 9.0500	 4.7270
 9.0650	 4.8070
 9.0810	 4.7290
 9.0970	 4.8340
 9.1130	 4.7220
 9.1290	 4.8680
 9.1450	 4.8390
 9.1610	 4.8950
 9.1780	 4.6950
 9.1940	 4.8320
 9.2100	 4.6740
 9.2270	 4.7580
 9.2430	 4.6830
 9.2600	 4.7190
 9.2760	 4.5990
 9.2930	 4.7350
 9.3090	 4.4650
 9.3260	 4.4790
 9.3430	 4.3000
 9.3600	 4.4360
 9.3770	 4.3460
 9.3940	 4.3550
 9.4110	 4.2520
 9.4280	 4.4020
 9.4450	 4.2950
 9.4620	 4.3060
 9.4800	 4.1010
 9.4970	 4.2650
 9.5140	 4.1310
 9.5320	 4.1590
 9.5500	 4.0110
 9.5670	 4.0870
 9.5850	 4.0370
 9.6030	 4.2520
 9.6200	 4.1570
 9.6380	 4.1400
 9.6560	 3.9450
 9.6740	 4.0330
 9.6920	 3.9450
 9.7100	 4.0450
 9.7290	 3.9280
 9.7470	 4.0990
 9.7650	 3.9870
 9.7840	 4.0340
 9.8020	 3.8150
 9.8210	 3.8920
 9.8390	 3.8150
 9.8580	 3.9550
 9.8770	 3.8530
 9.8960	 3.9990
 9.9150	 3.9050
 9.9340	 4.0210
 9.9530	 3.9830
 9.9720	 4.2070
 9.9910	 4.1620
10.0100	 4.2950
10.0300	 4.1590
10.0490	 4.2810
10.0690	 4.1510
10.0880	 4.2360
10.1080	 4.1750
10.1280	 4.3050
10.1480	 4.1660
10.1670	 4.2830
10.1870	 4.2140
10.2070	 4.3130
10.2280	 4.1640
10.2480	 4.3400
10.2680	 4.2390
10.2890	 4.2740
10.3090	 4.2660
10.3300	 4.4610
10.3500	 4.2820
10.3710	 4.2170
10.3920	 4.0680
10.4120	 4.2060
10.4330	 4.0080
10.4540	 4.0920
10.4760	 4.0380
10.4970	 4.2100
10.5180	 4.0840
10.5390	 4.1460
10.5610	 4.0700
10.5820	 4.2790
10.6040	 4.1970
10.6260	 4.3860
10.6480	 4.2870
10.6700	 4.3170
10.6920	 4.1290
10.7140	 4.2710
10.7360	 4.1310
10.7580	 4.1580
10.7800	 3.9560
10.8030	 4.1500
10.8250	 4.0840
10.8480	 4.2070
10.8710	 4.0490
10.8940	 4.0910
10.9170	 3.9810
10.9400	 4.0030
10.9630	 3.8090
10.9860	 3.9420
11.0090	 3.7880
11.0330	 3.8420
11.0560	 3.6530
11.0800	 3.8070
11.1040	 3.7690
11.1270	 3.9780
11.1510	 3.7210
11.1750	 3.8150
11.2000	 3.7250
11.2240	 3.8480
11.2480	 3.6440
11.2730	 3.7420
11.2970	 3.3220
11.3220	 3.5500
11.3470	 3.5800
11.3720	 3.6490
11.3970	 3.5240
11.4220	 3.6220
11.4470	 3.5460
11.4720	 3.8020
11.4980	 3.5380
11.5230	 3.5280
11.5490	 3.4120
11.5750	 3.6290
11.6000	 3.5000
11.6260	 3.5630
11.6530	 3.3300
11.6790	 3.4010
11.7050	 3.1610
11.7320	 3.3360
11.7580	 3.2120
11.7850	 3.3160
11.8120	 3.2530
11.8390	 3.4130
11.8660	 3.1810
11.8930	 3.3470
11.9200	 3.1420
11.9480	 3.1310
11.9760	 2.8880
12.0030	 3.1250
12.0310	 2.9880
12.0590	 3.2180
12.0870	 3.0000
12.1150	 3.0610
12.1440	 2.9690
12.1720	 3.2380
12.2010	 2.9710
12.2300	 3.0540
12.2590	 2.8510
12.2880	 3.0210
12.3170	 2.7570
12.3460	 2.8220
12.3760	 2.6840
12.4050	 2.8760
12.4350	 2.6870
12.4650	 2.9520
12.4950	 2.7850
12.5250	 2.9670
12.5550	 2.7300
12.5860	 2.8740
12.6170	 2.6320
12.6470	 2.7300
12.6780	 2.4800
12.7090	 2.6100
12.7410	 2.3620
12.7720	 2.6880
12.8030	 2.4730
12.8350	 2.6400
12.8670	 2.4650
12.8990	 2.5850
12.9310	 2.2640
12.9640	 2.5850
12.9960	 2.4060
13.0290	 2.7680
13.0610	 2.5920
13.0940	 2.6430
13.1280	 2.3930
13.1610	 2.5330
13.1940	 2.1760
13.2280	 2.3640
13.2620	 2.2420
13.2960	 2.4610
13.3300	 2.1830
13.3640	 2.3970
13.3990	 2.0800
13.4340	 2.4910
13.4690	 2.3560
13.5040	 2.3830
13.5390	 1.9840
13.5740	 2.5040
13.6100	 2.3460
13.6460	 2.3500
13.6820	 2.0610
13.7180	 2.4460
13.7540	 1.9030
13.7910	 2.1760
13.8280	 2.0690
13.8650	 2.3740
13.9020	 2.1750
13.9390	 2.5140
13.9770	 2.2730
14.0150	 2.4300
14.0530	 2.1040
14.0910	 2.5810
14.1290	 2.3280
14.1680	 2.6620
14.2070	 2.2510
14.2460	 2.3000
14.2850	 1.8360
14.3240	 2.2480
14.3640	 2.0510
14.4040	 2.3470
14.4440	 1.8160
14.4840	 2.1520
14.5250	 2.0130
14.5660	 2.4570
14.6070	 2.1290
14.6480	 2.6130
14.6900	 1.9970
14.7310	 2.2760
14.7730	 1.7810
14.8150	 2.2190
14.8580	 1.8360
14.9010	 2.7770
14.9440	 2.3540
14.9870	 2.5380
15.0300	 1.9170
15.0740	 2.3010
15.1180	 1.6660
15.1620	 2.3580
15.2060	 1.9780
15.2510	 2.5670
15.2960	 2.1580
15.3410	 2.9700
15.3870	 2.5420
