Name: Pinus ponderosa 2
Type: vegetation
Class: Tree
Genus: Pinus
Species: ponderosa
Sample No.: VH062
Owner: UCSB
Wavelength Range: VSWIR
Origin: 37.044; -119.3023; WGS84
Collection Date: 4/20/2013
Description: Samples were collected as part of the HyspIRI Airborne Campaign. 48 individual plants were sampled in three times in 2013 - spring  summer  and fall. The name of the sample includes a 1  2  or 3 which references a different individual of the species. Samples were taken to JPL and processed within 48 hours of collection. The same leaves were processed in the Nicolet and then measured using the ASD.
Measurement: Bidirectional reflectance
First Column: X
Second Column: Y
X Units: Wavelength (micrometers)
Y Units: Reflectance (percentage)
First X Value: 0.35
Last X Value: 2.5
Number of X Values: 2151
Additional Information: vegetation.tree.pinus.ponderosa.vswir.vh062.ucsb.asd.ancillary.txt

 0.3500	 5.7870
 0.3510	 5.8400
 0.3520	 5.9410
 0.3530	 5.9350
 0.3540	 5.7730
 0.3550	 5.8010
 0.3560	 5.7880
 0.3570	 5.7770
 0.3580	 5.9050
 0.3590	 5.8480
 0.3600	 5.7490
 0.3610	 5.7120
 0.3620	 5.7270
 0.3630	 5.6110
 0.3640	 5.5420
 0.3650	 5.6620
 0.3660	 5.6180
 0.3670	 5.5780
 0.3680	 5.5830
 0.3690	 5.5830
 0.3700	 5.5830
 0.3710	 5.5950
 0.3720	 5.6190
 0.3730	 5.6230
 0.3740	 5.6150
 0.3750	 5.5490
 0.3760	 5.4200
 0.3770	 5.4730
 0.3780	 5.5480
 0.3790	 5.5640
 0.3800	 5.5260
 0.3810	 5.5100
 0.3820	 5.4850
 0.3830	 5.4380
 0.3840	 5.4360
 0.3850	 5.4630
 0.3860	 5.4910
 0.3870	 5.4960
 0.3880	 5.5260
 0.3890	 5.4750
 0.3900	 5.3830
 0.3910	 5.4400
 0.3920	 5.4880
 0.3930	 5.5130
 0.3940	 5.5190
 0.3950	 5.4720
 0.3960	 5.4670
 0.3970	 5.4970
 0.3980	 5.5030
 0.3990	 5.4430
 0.4000	 5.4090
 0.4010	 5.4360
 0.4020	 5.4750
 0.4030	 5.4750
 0.4040	 5.4740
 0.4050	 5.5110
 0.4060	 5.5410
 0.4070	 5.5540
 0.4080	 5.5620
 0.4090	 5.5890
 0.4100	 5.6320
 0.4110	 5.6800
 0.4120	 5.7240
 0.4130	 5.7630
 0.4140	 5.8140
 0.4150	 5.8680
 0.4160	 5.9110
 0.4170	 5.9830
 0.4180	 6.0390
 0.4190	 6.0820
 0.4200	 6.1550
 0.4210	 6.2330
 0.4220	 6.3070
 0.4230	 6.3780
 0.4240	 6.4500
 0.4250	 6.5280
 0.4260	 6.6020
 0.4270	 6.6570
 0.4280	 6.7360
 0.4290	 6.8110
 0.4300	 6.8700
 0.4310	 6.9270
 0.4320	 6.9910
 0.4330	 7.0500
 0.4340	 7.0930
 0.4350	 7.1400
 0.4360	 7.1920
 0.4370	 7.2480
 0.4380	 7.3050
 0.4390	 7.3540
 0.4400	 7.4070
 0.4410	 7.4670
 0.4420	 7.5100
 0.4430	 7.5320
 0.4440	 7.5550
 0.4450	 7.6060
 0.4460	 7.6610
 0.4470	 7.7030
 0.4480	 7.7290
 0.4490	 7.7400
 0.4500	 7.7730
 0.4510	 7.8130
 0.4520	 7.8390
 0.4530	 7.8580
 0.4540	 7.8770
 0.4550	 7.9030
 0.4560	 7.9390
 0.4570	 7.9620
 0.4580	 7.9860
 0.4590	 8.0140
 0.4600	 8.0230
 0.4610	 8.0360
 0.4620	 8.0530
 0.4630	 8.0660
 0.4640	 8.0780
 0.4650	 8.0850
 0.4660	 8.0920
 0.4670	 8.1100
 0.4680	 8.1250
 0.4690	 8.1380
 0.4700	 8.1530
 0.4710	 8.1630
 0.4720	 8.1620
 0.4730	 8.1600
 0.4740	 8.1730
 0.4750	 8.1740
 0.4760	 8.1860
 0.4770	 8.2100
 0.4780	 8.2090
 0.4790	 8.1960
 0.4800	 8.1930
 0.4810	 8.2110
 0.4820	 8.2170
 0.4830	 8.2240
 0.4840	 8.2340
 0.4850	 8.2370
 0.4860	 8.2430
 0.4870	 8.2530
 0.4880	 8.2660
 0.4890	 8.2870
 0.4900	 8.3030
 0.4910	 8.3210
 0.4920	 8.3550
 0.4930	 8.3760
 0.4940	 8.4000
 0.4950	 8.4340
 0.4960	 8.4580
 0.4970	 8.4980
 0.4980	 8.5480
 0.4990	 8.5980
 0.5000	 8.6460
 0.5010	 8.7030
 0.5020	 8.7680
 0.5030	 8.8280
 0.5040	 8.9030
 0.5050	 8.9910
 0.5060	 9.0860
 0.5070	 9.1700
 0.5080	 9.2680
 0.5090	 9.3810
 0.5100	 9.5020
 0.5110	 9.6300
 0.5120	 9.7680
 0.5130	 9.9180
 0.5140	10.0770
 0.5150	10.2380
 0.5160	10.4060
 0.5170	10.5890
 0.5180	10.7800
 0.5190	10.9790
 0.5200	11.1850
 0.5210	11.3960
 0.5220	11.6060
 0.5230	11.8150
 0.5240	12.0240
 0.5250	12.2350
 0.5260	12.4380
 0.5270	12.6320
 0.5280	12.8250
 0.5290	13.0060
 0.5300	13.1810
 0.5310	13.3500
 0.5320	13.5100
 0.5330	13.6580
 0.5340	13.7990
 0.5350	13.9360
 0.5360	14.0650
 0.5370	14.1860
 0.5380	14.2960
 0.5390	14.3950
 0.5400	14.4800
 0.5410	14.5640
 0.5420	14.6530
 0.5430	14.7380
 0.5440	14.8220
 0.5450	14.9050
 0.5460	14.9900
 0.5470	15.0830
 0.5480	15.1730
 0.5490	15.2510
 0.5500	15.3160
 0.5510	15.3700
 0.5520	15.4110
 0.5530	15.4400
 0.5540	15.4610
 0.5550	15.4620
 0.5560	15.4450
 0.5570	15.4160
 0.5580	15.3790
 0.5590	15.3320
 0.5600	15.2760
 0.5610	15.2060
 0.5620	15.1260
 0.5630	15.0380
 0.5640	14.9420
 0.5650	14.8470
 0.5660	14.7470
 0.5670	14.6380
 0.5680	14.5120
 0.5690	14.3850
 0.5700	14.2590
 0.5710	14.1300
 0.5720	13.9920
 0.5730	13.8490
 0.5740	13.7110
 0.5750	13.5910
 0.5760	13.4890
 0.5770	13.4010
 0.5780	13.3210
 0.5790	13.2390
 0.5800	13.1630
 0.5810	13.0900
 0.5820	13.0140
 0.5830	12.9390
 0.5840	12.8780
 0.5850	12.8290
 0.5860	12.7780
 0.5870	12.7260
 0.5880	12.6770
 0.5890	12.6350
 0.5900	12.5910
 0.5910	12.5480
 0.5920	12.5100
 0.5930	12.4770
 0.5940	12.4470
 0.5950	12.4220
 0.5960	12.4030
 0.5970	12.3920
 0.5980	12.3880
 0.5990	12.3850
 0.6000	12.3760
 0.6010	12.3580
 0.6020	12.3330
 0.6030	12.3000
 0.6040	12.2570
 0.6050	12.2060
 0.6060	12.1450
 0.6070	12.0780
 0.6080	12.0060
 0.6090	11.9210
 0.6100	11.8270
 0.6110	11.7360
 0.6120	11.6600
 0.6130	11.5930
 0.6140	11.5260
 0.6150	11.4630
 0.6160	11.3980
 0.6170	11.3370
 0.6180	11.2830
 0.6190	11.2340
 0.6200	11.1880
 0.6210	11.1450
 0.6220	11.1120
 0.6230	11.0830
 0.6240	11.0600
 0.6250	11.0440
 0.6260	11.0340
 0.6270	11.0270
 0.6280	11.0190
 0.6290	11.0110
 0.6300	11.0080
 0.6310	11.0060
 0.6320	11.0030
 0.6330	10.9990
 0.6340	10.9890
 0.6350	10.9740
 0.6360	10.9530
 0.6370	10.9180
 0.6380	10.8770
 0.6390	10.8320
 0.6400	10.7820
 0.6410	10.7240
 0.6420	10.6640
 0.6430	10.6020
 0.6440	10.5340
 0.6450	10.4610
 0.6460	10.3870
 0.6470	10.3210
 0.6480	10.2610
 0.6490	10.1980
 0.6500	10.1360
 0.6510	10.0890
 0.6520	10.0430
 0.6530	 9.9950
 0.6540	 9.9460
 0.6550	 9.9000
 0.6560	 9.8390
 0.6570	 9.7660
 0.6580	 9.6930
 0.6590	 9.6150
 0.6600	 9.5320
 0.6610	 9.4470
 0.6620	 9.3600
 0.6630	 9.2820
 0.6640	 9.2090
 0.6650	 9.1390
 0.6660	 9.0780
 0.6670	 9.0260
 0.6680	 8.9820
 0.6690	 8.9460
 0.6700	 8.9140
 0.6710	 8.8900
 0.6720	 8.8730
 0.6730	 8.8600
 0.6740	 8.8560
 0.6750	 8.8560
 0.6760	 8.8550
 0.6770	 8.8610
 0.6780	 8.8740
 0.6790	 8.8940
 0.6800	 8.9150
 0.6810	 8.9500
 0.6820	 9.0000
 0.6830	 9.0650
 0.6840	 9.1430
 0.6850	 9.2480
 0.6860	 9.3840
 0.6870	 9.5520
 0.6880	 9.7590
 0.6890	10.0100
 0.6900	10.3110
 0.6910	10.6630
 0.6920	11.0680
 0.6930	11.5290
 0.6940	12.0450
 0.6950	12.6160
 0.6960	13.2360
 0.6970	13.9010
 0.6980	14.6090
 0.6990	15.3580
 0.7000	16.1430
 0.7010	16.9570
 0.7020	17.7950
 0.7030	18.6500
 0.7040	19.5240
 0.7050	20.4170
 0.7060	21.3170
 0.7070	22.2300
 0.7080	23.1570
 0.7090	24.0970
 0.7100	25.0510
 0.7110	26.0180
 0.7120	27.0000
 0.7130	27.9950
 0.7140	29.0100
 0.7150	30.0420
 0.7160	31.0860
 0.7170	32.1440
 0.7180	33.2170
 0.7190	34.3030
 0.7200	35.3990
 0.7210	36.5060
 0.7220	37.6220
 0.7230	38.7440
 0.7240	39.8680
 0.7250	40.9890
 0.7260	42.1030
 0.7270	43.2090
 0.7280	44.3040
 0.7290	45.3810
 0.7300	46.4400
 0.7310	47.4810
 0.7320	48.5020
 0.7330	49.4930
 0.7340	50.4560
 0.7350	51.3980
 0.7360	52.3080
 0.7370	53.1880
 0.7380	54.0370
 0.7390	54.8500
 0.7400	55.6330
 0.7410	56.3810
 0.7420	57.0890
 0.7430	57.7700
 0.7440	58.4160
 0.7450	59.0260
 0.7460	59.6040
 0.7470	60.1450
 0.7480	60.6510
 0.7490	61.1250
 0.7500	61.5640
 0.7510	61.9730
 0.7520	62.3560
 0.7530	62.7120
 0.7540	63.0420
 0.7550	63.3430
 0.7560	63.6200
 0.7570	63.8770
 0.7580	64.1080
 0.7590	64.3270
 0.7600	64.5380
 0.7610	64.7200
 0.7620	64.8860
 0.7630	65.0440
 0.7640	65.1950
 0.7650	65.3240
 0.7660	65.4460
 0.7670	65.5600
 0.7680	65.6650
 0.7690	65.7730
 0.7700	65.8740
 0.7710	65.9610
 0.7720	66.0370
 0.7730	66.1140
 0.7740	66.1890
 0.7750	66.2580
 0.7760	66.3250
 0.7770	66.3870
 0.7780	66.4440
 0.7790	66.4980
 0.7800	66.5490
 0.7810	66.5990
 0.7820	66.6480
 0.7830	66.6940
 0.7840	66.7480
 0.7850	66.7950
 0.7860	66.8320
 0.7870	66.8800
 0.7880	66.9240
 0.7890	66.9610
 0.7900	66.9950
 0.7910	67.0330
 0.7920	67.0680
 0.7930	67.0990
 0.7940	67.1370
 0.7950	67.1700
 0.7960	67.1970
 0.7970	67.2220
 0.7980	67.2600
 0.7990	67.2920
 0.8000	67.3190
 0.8010	67.3430
 0.8020	67.3670
 0.8030	67.3910
 0.8040	67.4200
 0.8050	67.4520
 0.8060	67.4730
 0.8070	67.4890
 0.8080	67.5050
 0.8090	67.5200
 0.8100	67.5390
 0.8110	67.5610
 0.8120	67.5850
 0.8130	67.6080
 0.8140	67.6270
 0.8150	67.6470
 0.8160	67.6690
 0.8170	67.6870
 0.8180	67.7060
 0.8190	67.7280
 0.8200	67.7490
 0.8210	67.7680
 0.8220	67.7810
 0.8230	67.7910
 0.8240	67.8110
 0.8250	67.8370
 0.8260	67.8500
 0.8270	67.8500
 0.8280	67.8680
 0.8290	67.8790
 0.8300	67.8840
 0.8310	67.8890
 0.8320	67.8900
 0.8330	67.9020
 0.8340	67.9230
 0.8350	67.9420
 0.8360	67.9550
 0.8370	67.9760
 0.8380	68.0000
 0.8390	68.0140
 0.8400	68.0420
 0.8410	68.0730
 0.8420	68.0980
 0.8430	68.1230
 0.8440	68.1520
 0.8450	68.1820
 0.8460	68.2100
 0.8470	68.2440
 0.8480	68.2630
 0.8490	68.2790
 0.8500	68.3060
 0.8510	68.3320
 0.8520	68.3600
 0.8530	68.3880
 0.8540	68.4100
 0.8550	68.4420
 0.8560	68.4710
 0.8570	68.4950
 0.8580	68.5210
 0.8590	68.5340
 0.8600	68.5470
 0.8610	68.5680
 0.8620	68.5900
 0.8630	68.6050
 0.8640	68.6220
 0.8650	68.6450
 0.8660	68.6510
 0.8670	68.6640
 0.8680	68.6820
 0.8690	68.6970
 0.8700	68.7160
 0.8710	68.7180
 0.8720	68.7160
 0.8730	68.7370
 0.8740	68.7520
 0.8750	68.7560
 0.8760	68.7590
 0.8770	68.7710
 0.8780	68.7780
 0.8790	68.7750
 0.8800	68.7700
 0.8810	68.7760
 0.8820	68.7780
 0.8830	68.7730
 0.8840	68.7630
 0.8850	68.7640
 0.8860	68.7630
 0.8870	68.7530
 0.8880	68.7350
 0.8890	68.7280
 0.8900	68.7130
 0.8910	68.6930
 0.8920	68.6790
 0.8930	68.6580
 0.8940	68.6380
 0.8950	68.6210
 0.8960	68.6090
 0.8970	68.5990
 0.8980	68.5820
 0.8990	68.5570
 0.9000	68.5370
 0.9010	68.5170
 0.9020	68.4930
 0.9030	68.4670
 0.9040	68.4460
 0.9050	68.4190
 0.9060	68.3930
 0.9070	68.3690
 0.9080	68.3390
 0.9090	68.3160
 0.9100	68.2930
 0.9110	68.2610
 0.9120	68.2290
 0.9130	68.2010
 0.9140	68.1740
 0.9150	68.1460
 0.9160	68.1270
 0.9170	68.0930
 0.9180	68.0560
 0.9190	68.0310
 0.9200	67.9910
 0.9210	67.9570
 0.9220	67.9280
 0.9230	67.8910
 0.9240	67.8520
 0.9250	67.8070
 0.9260	67.7500
 0.9270	67.6780
 0.9280	67.6150
 0.9290	67.5550
 0.9300	67.4850
 0.9310	67.3910
 0.9320	67.3140
 0.9330	67.2380
 0.9340	67.1520
 0.9350	67.0650
 0.9360	66.9620
 0.9370	66.8670
 0.9380	66.7830
 0.9390	66.6800
 0.9400	66.5620
 0.9410	66.4380
 0.9420	66.3150
 0.9430	66.1920
 0.9440	66.0410
 0.9450	65.8800
 0.9460	65.7170
 0.9470	65.5270
 0.9480	65.3340
 0.9490	65.1370
 0.9500	64.9260
 0.9510	64.6890
 0.9520	64.4350
 0.9530	64.1730
 0.9540	63.9080
 0.9550	63.6440
 0.9560	63.3740
 0.9570	63.1250
 0.9580	62.9150
 0.9590	62.7050
 0.9600	62.5070
 0.9610	62.3270
 0.9620	62.1640
 0.9630	62.0150
 0.9640	61.8520
 0.9650	61.7160
 0.9660	61.6440
 0.9670	61.5370
 0.9680	61.4320
 0.9690	61.3400
 0.9700	61.2600
 0.9710	61.2100
 0.9720	61.1540
 0.9730	61.0920
 0.9740	61.0370
 0.9750	60.9720
 0.9760	60.9360
 0.9770	60.9140
 0.9780	60.8730
 0.9790	60.8410
 0.9800	60.8260
 0.9810	60.8300
 0.9820	60.8420
 0.9830	60.8490
 0.9840	60.8630
 0.9850	60.8800
 0.9860	60.8930
 0.9870	60.9210
 0.9880	60.9820
 0.9890	61.0560
 0.9900	61.1060
 0.9910	61.1520
 0.9920	61.2940
 0.9930	61.4350
 0.9940	61.5770
 0.9950	61.7180
 0.9960	61.8600
 0.9970	62.0010
 0.9980	62.1430
 0.9990	62.2840
 1.0000	62.4260
 1.0010	62.5670
 1.0020	62.7090
 1.0030	62.8500
 1.0040	62.9920
 1.0050	63.1330
 1.0060	63.2750
 1.0070	63.4160
 1.0080	63.5580
 1.0090	63.6990
 1.0100	63.6990
 1.0110	63.8010
 1.0120	63.9030
 1.0130	64.0040
 1.0140	64.1080
 1.0150	64.2130
 1.0160	64.3190
 1.0170	64.4320
 1.0180	64.5440
 1.0190	64.6450
 1.0200	64.7540
 1.0210	64.8620
 1.0220	64.9640
 1.0230	65.0700
 1.0240	65.1780
 1.0250	65.2860
 1.0260	65.3950
 1.0270	65.5020
 1.0280	65.6130
 1.0290	65.7160
 1.0300	65.8090
 1.0310	65.9070
 1.0320	66.0060
 1.0330	66.0990
 1.0340	66.1980
 1.0350	66.2980
 1.0360	66.3860
 1.0370	66.4760
 1.0380	66.5660
 1.0390	66.6540
 1.0400	66.7410
 1.0410	66.8300
 1.0420	66.9150
 1.0430	66.9990
 1.0440	67.0780
 1.0450	67.1550
 1.0460	67.2300
 1.0470	67.3010
 1.0480	67.3720
 1.0490	67.4450
 1.0500	67.5140
 1.0510	67.5840
 1.0520	67.6470
 1.0530	67.7060
 1.0540	67.7610
 1.0550	67.8180
 1.0560	67.8710
 1.0570	67.9230
 1.0580	67.9760
 1.0590	68.0250
 1.0600	68.0730
 1.0610	68.1170
 1.0620	68.1550
 1.0630	68.1960
 1.0640	68.2360
 1.0650	68.2700
 1.0660	68.3020
 1.0670	68.3320
 1.0680	68.3590
 1.0690	68.3770
 1.0700	68.4000
 1.0710	68.4250
 1.0720	68.4430
 1.0730	68.4550
 1.0740	68.4680
 1.0750	68.4790
 1.0760	68.4890
 1.0770	68.5060
 1.0780	68.5100
 1.0790	68.5090
 1.0800	68.5050
 1.0810	68.4930
 1.0820	68.4810
 1.0830	68.4680
 1.0840	68.4530
 1.0850	68.4340
 1.0860	68.4150
 1.0870	68.3940
 1.0880	68.3720
 1.0890	68.3450
 1.0900	68.3160
 1.0910	68.2840
 1.0920	68.2480
 1.0930	68.2100
 1.0940	68.1700
 1.0950	68.1260
 1.0960	68.0820
 1.0970	68.0330
 1.0980	67.9800
 1.0990	67.9260
 1.1000	67.8680
 1.1010	67.8110
 1.1020	67.7550
 1.1030	67.6980
 1.1040	67.6430
 1.1050	67.5810
 1.1060	67.5150
 1.1070	67.4420
 1.1080	67.3710
 1.1090	67.2990
 1.1100	67.2220
 1.1110	67.1460
 1.1120	67.0600
 1.1130	66.9680
 1.1140	66.8720
 1.1150	66.7720
 1.1160	66.6650
 1.1170	66.5530
 1.1180	66.4300
 1.1190	66.2980
 1.1200	66.1600
 1.1210	66.0090
 1.1220	65.8480
 1.1230	65.6700
 1.1240	65.4720
 1.1250	65.2570
 1.1260	65.0270
 1.1270	64.7710
 1.1280	64.4990
 1.1290	64.2010
 1.1300	63.8810
 1.1310	63.5380
 1.1320	63.1730
 1.1330	62.7890
 1.1340	62.3810
 1.1350	61.9560
 1.1360	61.5120
 1.1370	61.0480
 1.1380	60.5680
 1.1390	60.0800
 1.1400	59.5830
 1.1410	59.0840
 1.1420	58.5850
 1.1430	58.0870
 1.1440	57.5980
 1.1450	57.1050
 1.1460	56.6360
 1.1470	56.1740
 1.1480	55.7330
 1.1490	55.3060
 1.1500	54.9040
 1.1510	54.5180
 1.1520	54.1560
 1.1530	53.8120
 1.1540	53.4950
 1.1550	53.1990
 1.1560	52.9260
 1.1570	52.6760
 1.1580	52.4490
 1.1590	52.2350
 1.1600	52.0370
 1.1610	51.8570
 1.1620	51.6880
 1.1630	51.5340
 1.1640	51.3960
 1.1650	51.2650
 1.1660	51.1460
 1.1670	51.0340
 1.1680	50.9310
 1.1690	50.8310
 1.1700	50.7420
 1.1710	50.6530
 1.1720	50.5680
 1.1730	50.4820
 1.1740	50.3970
 1.1750	50.3130
 1.1760	50.2280
 1.1770	50.1410
 1.1780	50.0510
 1.1790	49.9590
 1.1800	49.8630
 1.1810	49.7650
 1.1820	49.6690
 1.1830	49.5750
 1.1840	49.4810
 1.1850	49.3880
 1.1860	49.3000
 1.1870	49.2130
 1.1880	49.1310
 1.1890	49.0530
 1.1900	48.9810
 1.1910	48.9130
 1.1920	48.8520
 1.1930	48.7960
 1.1940	48.7470
 1.1950	48.7050
 1.1960	48.6670
 1.1970	48.6350
 1.1980	48.6110
 1.1990	48.5950
 1.2000	48.5850
 1.2010	48.5830
 1.2020	48.5870
 1.2030	48.5910
 1.2040	48.6030
 1.2050	48.6230
 1.2060	48.6500
 1.2070	48.6840
 1.2080	48.7250
 1.2090	48.7730
 1.2100	48.8270
 1.2110	48.8880
 1.2120	48.9560
 1.2130	49.0320
 1.2140	49.1140
 1.2150	49.2040
 1.2160	49.3010
 1.2170	49.4040
 1.2180	49.5120
 1.2190	49.6210
 1.2200	49.7360
 1.2210	49.8540
 1.2220	49.9730
 1.2230	50.0920
 1.2240	50.2120
 1.2250	50.3280
 1.2260	50.4420
 1.2270	50.5580
 1.2280	50.6720
 1.2290	50.7840
 1.2300	50.8960
 1.2310	51.0030
 1.2320	51.1070
 1.2330	51.2050
 1.2340	51.3020
 1.2350	51.3940
 1.2360	51.4850
 1.2370	51.5730
 1.2380	51.6610
 1.2390	51.7440
 1.2400	51.8230
 1.2410	51.9000
 1.2420	51.9720
 1.2430	52.0450
 1.2440	52.1150
 1.2450	52.1850
 1.2460	52.2550
 1.2470	52.3190
 1.2480	52.3790
 1.2490	52.4370
 1.2500	52.4920
 1.2510	52.5460
 1.2520	52.5970
 1.2530	52.6460
 1.2540	52.6930
 1.2550	52.7370
 1.2560	52.7810
 1.2570	52.8200
 1.2580	52.8560
 1.2590	52.8900
 1.2600	52.9200
 1.2610	52.9480
 1.2620	52.9750
 1.2630	53.0010
 1.2640	53.0230
 1.2650	53.0430
 1.2660	53.0610
 1.2670	53.0730
 1.2680	53.0840
 1.2690	53.0930
 1.2700	53.0990
 1.2710	53.1020
 1.2720	53.1010
 1.2730	53.0980
 1.2740	53.0910
 1.2750	53.0840
 1.2760	53.0760
 1.2770	53.0640
 1.2780	53.0480
 1.2790	53.0290
 1.2800	53.0100
 1.2810	52.9850
 1.2820	52.9540
 1.2830	52.9190
 1.2840	52.8810
 1.2850	52.8390
 1.2860	52.7920
 1.2870	52.7410
 1.2880	52.6860
 1.2890	52.6240
 1.2900	52.5570
 1.2910	52.4850
 1.2920	52.4060
 1.2930	52.3190
 1.2940	52.2260
 1.2950	52.1270
 1.2960	52.0210
 1.2970	51.9100
 1.2980	51.7930
 1.2990	51.6680
 1.3000	51.5380
 1.3010	51.3980
 1.3020	51.2520
 1.3030	51.1010
 1.3040	50.9400
 1.3050	50.7780
 1.3060	50.6110
 1.3070	50.4330
 1.3080	50.2530
 1.3090	50.0650
 1.3100	49.8680
 1.3110	49.6660
 1.3120	49.4530
 1.3130	49.2350
 1.3140	49.0130
 1.3150	48.7840
 1.3160	48.5510
 1.3170	48.3160
 1.3180	48.0750
 1.3190	47.8260
 1.3200	47.5740
 1.3210	47.3150
 1.3220	47.0500
 1.3230	46.7820
 1.3240	46.5070
 1.3250	46.2330
 1.3260	45.9550
 1.3270	45.6740
 1.3280	45.3920
 1.3290	45.1040
 1.3300	44.8160
 1.3310	44.5290
 1.3320	44.2390
 1.3330	43.9520
 1.3340	43.6670
 1.3350	43.3820
 1.3360	43.1000
 1.3370	42.8180
 1.3380	42.5400
 1.3390	42.2650
 1.3400	41.9910
 1.3410	41.7270
 1.3420	41.4670
 1.3430	41.2100
 1.3440	40.9590
 1.3450	40.7110
 1.3460	40.4640
 1.3470	40.2260
 1.3480	39.9930
 1.3490	39.7660
 1.3500	39.5450
 1.3510	39.3270
 1.3520	39.1120
 1.3530	38.9010
 1.3540	38.6910
 1.3550	38.4850
 1.3560	38.2790
 1.3570	38.0710
 1.3580	37.8650
 1.3590	37.6560
 1.3600	37.4440
 1.3610	37.2320
 1.3620	37.0160
 1.3630	36.7930
 1.3640	36.5640
 1.3650	36.3280
 1.3660	36.0860
 1.3670	35.8380
 1.3680	35.5800
 1.3690	35.3100
 1.3700	35.0250
 1.3710	34.7270
 1.3720	34.4150
 1.3730	34.0860
 1.3740	33.7450
 1.3750	33.3880
 1.3760	33.0100
 1.3770	32.6130
 1.3780	32.1920
 1.3790	31.7510
 1.3800	31.2910
 1.3810	30.8090
 1.3820	30.3150
 1.3830	29.8040
 1.3840	29.2820
 1.3850	28.7450
 1.3860	28.2030
 1.3870	27.6450
 1.3880	27.0910
 1.3890	26.5320
 1.3900	25.9730
 1.3910	25.4230
 1.3920	24.8740
 1.3930	24.3310
 1.3940	23.7990
 1.3950	23.2700
 1.3960	22.7560
 1.3970	22.2570
 1.3980	21.7710
 1.3990	21.3090
 1.4000	20.8630
 1.4010	20.4320
 1.4020	20.0210
 1.4030	19.6250
 1.4040	19.2470
 1.4050	18.8890
 1.4060	18.5480
 1.4070	18.2290
 1.4080	17.9250
 1.4090	17.6380
 1.4100	17.3680
 1.4110	17.1140
 1.4120	16.8760
 1.4130	16.6540
 1.4140	16.4440
 1.4150	16.2500
 1.4160	16.0680
 1.4170	15.8970
 1.4180	15.7380
 1.4190	15.5880
 1.4200	15.4470
 1.4210	15.3160
 1.4220	15.1960
 1.4230	15.0840
 1.4240	14.9780
 1.4250	14.8800
 1.4260	14.7900
 1.4270	14.7050
 1.4280	14.6280
 1.4290	14.5560
 1.4300	14.4910
 1.4310	14.4300
 1.4320	14.3770
 1.4330	14.3270
 1.4340	14.2820
 1.4350	14.2410
 1.4360	14.2040
 1.4370	14.1720
 1.4380	14.1440
 1.4390	14.1190
 1.4400	14.0970
 1.4410	14.0770
 1.4420	14.0600
 1.4430	14.0460
 1.4440	14.0340
 1.4450	14.0240
 1.4460	14.0170
 1.4470	14.0110
 1.4480	14.0070
 1.4490	14.0050
 1.4500	14.0040
 1.4510	14.0050
 1.4520	14.0070
 1.4530	14.0110
 1.4540	14.0160
 1.4550	14.0230
 1.4560	14.0310
 1.4570	14.0410
 1.4580	14.0530
 1.4590	14.0660
 1.4600	14.0840
 1.4610	14.1040
 1.4620	14.1260
 1.4630	14.1510
 1.4640	14.1790
 1.4650	14.2080
 1.4660	14.2420
 1.4670	14.2790
 1.4680	14.3190
 1.4690	14.3620
 1.4700	14.4090
 1.4710	14.4600
 1.4720	14.5110
 1.4730	14.5660
 1.4740	14.6230
 1.4750	14.6800
 1.4760	14.7420
 1.4770	14.8050
 1.4780	14.8700
 1.4790	14.9370
 1.4800	15.0050
 1.4810	15.0740
 1.4820	15.1460
 1.4830	15.2190
 1.4840	15.2930
 1.4850	15.3680
 1.4860	15.4440
 1.4870	15.5210
 1.4880	15.6000
 1.4890	15.6800
 1.4900	15.7600
 1.4910	15.8390
 1.4920	15.9210
 1.4930	16.0040
 1.4940	16.0870
 1.4950	16.1730
 1.4960	16.2570
 1.4970	16.3400
 1.4980	16.4250
 1.4990	16.5110
 1.5000	16.5970
 1.5010	16.6830
 1.5020	16.7690
 1.5030	16.8560
 1.5040	16.9430
 1.5050	17.0310
 1.5060	17.1190
 1.5070	17.2060
 1.5080	17.2940
 1.5090	17.3820
 1.5100	17.4710
 1.5110	17.5590
 1.5120	17.6460
 1.5130	17.7300
 1.5140	17.8160
 1.5150	17.9020
 1.5160	17.9880
 1.5170	18.0760
 1.5180	18.1620
 1.5190	18.2480
 1.5200	18.3330
 1.5210	18.4150
 1.5220	18.4980
 1.5230	18.5800
 1.5240	18.6610
 1.5250	18.7420
 1.5260	18.8220
 1.5270	18.9010
 1.5280	18.9810
 1.5290	19.0600
 1.5300	19.1390
 1.5310	19.2170
 1.5320	19.2950
 1.5330	19.3720
 1.5340	19.4490
 1.5350	19.5260
 1.5360	19.6020
 1.5370	19.6770
 1.5380	19.7520
 1.5390	19.8270
 1.5400	19.9010
 1.5410	19.9760
 1.5420	20.0500
 1.5430	20.1250
 1.5440	20.2000
 1.5450	20.2720
 1.5460	20.3450
 1.5470	20.4170
 1.5480	20.4880
 1.5490	20.5610
 1.5500	20.6320
 1.5510	20.7020
 1.5520	20.7720
 1.5530	20.8410
 1.5540	20.9110
 1.5550	20.9800
 1.5560	21.0480
 1.5570	21.1180
 1.5580	21.1860
 1.5590	21.2550
 1.5600	21.3240
 1.5610	21.3920
 1.5620	21.4580
 1.5630	21.5220
 1.5640	21.5860
 1.5650	21.6520
 1.5660	21.7170
 1.5670	21.7820
 1.5680	21.8490
 1.5690	21.9110
 1.5700	21.9750
 1.5710	22.0400
 1.5720	22.1040
 1.5730	22.1690
 1.5740	22.2330
 1.5750	22.2970
 1.5760	22.3600
 1.5770	22.4210
 1.5780	22.4830
 1.5790	22.5460
 1.5800	22.6090
 1.5810	22.6730
 1.5820	22.7360
 1.5830	22.7980
 1.5840	22.8630
 1.5850	22.9260
 1.5860	22.9890
 1.5870	23.0530
 1.5880	23.1180
 1.5890	23.1830
 1.5900	23.2480
 1.5910	23.3150
 1.5920	23.3800
 1.5930	23.4450
 1.5940	23.5120
 1.5950	23.5800
 1.5960	23.6490
 1.5970	23.7190
 1.5980	23.7890
 1.5990	23.8580
 1.6000	23.9280
 1.6010	23.9970
 1.6020	24.0660
 1.6030	24.1350
 1.6040	24.2020
 1.6050	24.2690
 1.6060	24.3350
 1.6070	24.4000
 1.6080	24.4670
 1.6090	24.5320
 1.6100	24.5980
 1.6110	24.6650
 1.6120	24.7290
 1.6130	24.7950
 1.6140	24.8590
 1.6150	24.9200
 1.6160	24.9810
 1.6170	25.0390
 1.6180	25.0960
 1.6190	25.1550
 1.6200	25.2110
 1.6210	25.2670
 1.6220	25.3230
 1.6230	25.3750
 1.6240	25.4260
 1.6250	25.4750
 1.6260	25.5210
 1.6270	25.5670
 1.6280	25.6130
 1.6290	25.6580
 1.6300	25.7020
 1.6310	25.7460
 1.6320	25.7900
 1.6330	25.8330
 1.6340	25.8780
 1.6350	25.9220
 1.6360	25.9650
 1.6370	26.0080
 1.6380	26.0510
 1.6390	26.0920
 1.6400	26.1320
 1.6410	26.1690
 1.6420	26.2040
 1.6430	26.2370
 1.6440	26.2700
 1.6450	26.2980
 1.6460	26.3240
 1.6470	26.3470
 1.6480	26.3650
 1.6490	26.3810
 1.6500	26.3950
 1.6510	26.4050
 1.6520	26.4110
 1.6530	26.4150
 1.6540	26.4180
 1.6550	26.4190
 1.6560	26.4160
 1.6570	26.4130
 1.6580	26.4090
 1.6590	26.4020
 1.6600	26.3970
 1.6610	26.3890
 1.6620	26.3780
 1.6630	26.3680
 1.6640	26.3580
 1.6650	26.3470
 1.6660	26.3380
 1.6670	26.3280
 1.6680	26.3170
 1.6690	26.3030
 1.6700	26.2910
 1.6710	26.2770
 1.6720	26.2630
 1.6730	26.2500
 1.6740	26.2360
 1.6750	26.2190
 1.6760	26.1990
 1.6770	26.1770
 1.6780	26.1510
 1.6790	26.1230
 1.6800	26.0940
 1.6810	26.0620
 1.6820	26.0260
 1.6830	25.9880
 1.6840	25.9480
 1.6850	25.9020
 1.6860	25.8540
 1.6870	25.8020
 1.6880	25.7460
 1.6890	25.6890
 1.6900	25.6300
 1.6910	25.5680
 1.6920	25.5060
 1.6930	25.4400
 1.6940	25.3750
 1.6950	25.3100
 1.6960	25.2430
 1.6970	25.1760
 1.6980	25.1070
 1.6990	25.0350
 1.7000	24.9640
 1.7010	24.8910
 1.7020	24.8230
 1.7030	24.7590
 1.7040	24.6950
 1.7050	24.6340
 1.7060	24.5720
 1.7070	24.5090
 1.7080	24.4510
 1.7090	24.3940
 1.7100	24.3390
 1.7110	24.2870
 1.7120	24.2360
 1.7130	24.1860
 1.7140	24.1380
 1.7150	24.0890
 1.7160	24.0420
 1.7170	23.9950
 1.7180	23.9470
 1.7190	23.9010
 1.7200	23.8560
 1.7210	23.8120
 1.7220	23.7700
 1.7230	23.7280
 1.7240	23.6870
 1.7250	23.6480
 1.7260	23.6130
 1.7270	23.5820
 1.7280	23.5520
 1.7290	23.5270
 1.7300	23.5050
 1.7310	23.4850
 1.7320	23.4710
 1.7330	23.4550
 1.7340	23.4410
 1.7350	23.4240
 1.7360	23.4060
 1.7370	23.3850
 1.7380	23.3610
 1.7390	23.3340
 1.7400	23.3050
 1.7410	23.2700
 1.7420	23.2290
 1.7430	23.1870
 1.7440	23.1400
 1.7450	23.0920
 1.7460	23.0430
 1.7470	22.9930
 1.7480	22.9400
 1.7490	22.8880
 1.7500	22.8350
 1.7510	22.7850
 1.7520	22.7360
 1.7530	22.6860
 1.7540	22.6370
 1.7550	22.5880
 1.7560	22.5400
 1.7570	22.4950
 1.7580	22.4530
 1.7590	22.4100
 1.7600	22.3690
 1.7610	22.3290
 1.7620	22.2940
 1.7630	22.2630
 1.7640	22.2350
 1.7650	22.2120
 1.7660	22.1880
 1.7670	22.1640
 1.7680	22.1430
 1.7690	22.1240
 1.7700	22.1050
 1.7710	22.0890
 1.7720	22.0720
 1.7730	22.0570
 1.7740	22.0410
 1.7750	22.0250
 1.7760	22.0110
 1.7770	21.9980
 1.7780	21.9850
 1.7790	21.9730
 1.7800	21.9630
 1.7810	21.9540
 1.7820	21.9480
 1.7830	21.9440
 1.7840	21.9430
 1.7850	21.9440
 1.7860	21.9450
 1.7870	21.9460
 1.7880	21.9490
 1.7890	21.9540
 1.7900	21.9630
 1.7910	21.9720
 1.7920	21.9840
 1.7930	21.9940
 1.7940	22.0050
 1.7950	22.0180
 1.7960	22.0310
 1.7970	22.0460
 1.7980	22.0670
 1.7990	22.0830
 1.8000	22.0950
 1.8010	22.1110
 1.8020	22.1260
 1.8030	22.1410
 1.8040	22.1590
 1.8050	22.1750
 1.8060	22.1860
 1.8070	22.2000
 1.8080	22.2160
 1.8090	22.2300
 1.8100	22.2450
 1.8110	22.2610
 1.8120	22.2750
 1.8130	22.2890
 1.8140	22.3020
 1.8150	22.3150
 1.8160	22.3270
 1.8170	22.3410
 1.8180	22.3530
 1.8190	22.3630
 1.8200	22.3750
 1.8210	22.3860
 1.8220	22.3960
 1.8230	22.4060
 1.8240	22.4140
 1.8250	22.4190
 1.8260	22.4230
 1.8270	22.4100
 1.8280	22.3960
 1.8290	22.3820
 1.8300	22.3690
 1.8310	22.3550
 1.8320	22.3410
 1.8330	22.3270
 1.8340	22.3140
 1.8350	22.3140
 1.8360	22.2950
 1.8370	22.2730
 1.8380	22.2500
 1.8390	22.2210
 1.8400	22.1910
 1.8410	22.1530
 1.8420	22.1110
 1.8430	22.0590
 1.8440	22.0050
 1.8450	21.9480
 1.8460	21.8840
 1.8470	21.8160
 1.8480	21.7380
 1.8490	21.6520
 1.8500	21.5560
 1.8510	21.4500
 1.8520	21.3350
 1.8530	21.2110
 1.8540	21.0780
 1.8550	20.9350
 1.8560	20.7850
 1.8570	20.6220
 1.8580	20.4460
 1.8590	20.2630
 1.8600	20.0690
 1.8610	19.8650
 1.8620	19.6500
 1.8630	19.4250
 1.8640	19.1870
 1.8650	18.9370
 1.8660	18.6770
 1.8670	18.3990
 1.8680	18.1110
 1.8690	17.8130
 1.8700	17.5050
 1.8710	17.1840
 1.8720	16.8630
 1.8730	16.5300
 1.8740	16.1880
 1.8750	15.8420
 1.8760	15.4880
 1.8770	15.1350
 1.8780	14.7800
 1.8790	14.4230
 1.8800	14.0730
 1.8810	13.7260
 1.8820	13.3800
 1.8830	13.0380
 1.8840	12.7020
 1.8850	12.3640
 1.8860	12.0360
 1.8870	11.7160
 1.8880	11.4040
 1.8890	11.1090
 1.8900	10.8220
 1.8910	10.5490
 1.8920	10.2870
 1.8930	10.0410
 1.8940	 9.8050
 1.8950	 9.5850
 1.8960	 9.3790
 1.8970	 9.1850
 1.8980	 9.0050
 1.8990	 8.8360
 1.9000	 8.6780
 1.9010	 8.5320
 1.9020	 8.3960
 1.9030	 8.2730
 1.9040	 8.1580
 1.9050	 8.0530
 1.9060	 7.9570
 1.9070	 7.8690
 1.9080	 7.7910
 1.9090	 7.7230
 1.9100	 7.6610
 1.9110	 7.6020
 1.9120	 7.5510
 1.9130	 7.5020
 1.9140	 7.4580
 1.9150	 7.4170
 1.9160	 7.3840
 1.9170	 7.3540
 1.9180	 7.3260
 1.9190	 7.3040
 1.9200	 7.2820
 1.9210	 7.2600
 1.9220	 7.2430
 1.9230	 7.2260
 1.9240	 7.2140
 1.9250	 7.2060
 1.9260	 7.2030
 1.9270	 7.1990
 1.9280	 7.1970
 1.9290	 7.1950
 1.9300	 7.1900
 1.9310	 7.1920
 1.9320	 7.1980
 1.9330	 7.2050
 1.9340	 7.2160
 1.9350	 7.2260
 1.9360	 7.2360
 1.9370	 7.2470
 1.9380	 7.2580
 1.9390	 7.2700
 1.9400	 7.2850
 1.9410	 7.3010
 1.9420	 7.3180
 1.9430	 7.3360
 1.9440	 7.3550
 1.9450	 7.3740
 1.9460	 7.3960
 1.9470	 7.4190
 1.9480	 7.4420
 1.9490	 7.4660
 1.9500	 7.4870
 1.9510	 7.5100
 1.9520	 7.5360
 1.9530	 7.5620
 1.9540	 7.5900
 1.9550	 7.6190
 1.9560	 7.6490
 1.9570	 7.6790
 1.9580	 7.7100
 1.9590	 7.7410
 1.9600	 7.7700
 1.9610	 7.8000
 1.9620	 7.8310
 1.9630	 7.8610
 1.9640	 7.8910
 1.9650	 7.9230
 1.9660	 7.9540
 1.9670	 7.9880
 1.9680	 8.0240
 1.9690	 8.0630
 1.9700	 8.1000
 1.9710	 8.1360
 1.9720	 8.1730
 1.9730	 8.2110
 1.9740	 8.2480
 1.9750	 8.2870
 1.9760	 8.3270
 1.9770	 8.3660
 1.9780	 8.4050
 1.9790	 8.4450
 1.9800	 8.4860
 1.9810	 8.5270
 1.9820	 8.5670
 1.9830	 8.6080
 1.9840	 8.6490
 1.9850	 8.6910
 1.9860	 8.7340
 1.9870	 8.7750
 1.9880	 8.8180
 1.9890	 8.8630
 1.9900	 8.9050
 1.9910	 8.9480
 1.9920	 8.9920
 1.9930	 9.0340
 1.9940	 9.0770
 1.9950	 9.1200
 1.9960	 9.1630
 1.9970	 9.2040
 1.9980	 9.2470
 1.9990	 9.2920
 2.0000	 9.3380
 2.0010	 9.3830
 2.0020	 9.4280
 2.0030	 9.4710
 2.0040	 9.5140
 2.0050	 9.5570
 2.0060	 9.6020
 2.0070	 9.6450
 2.0080	 9.6870
 2.0090	 9.7270
 2.0100	 9.7660
 2.0110	 9.8060
 2.0120	 9.8460
 2.0130	 9.8860
 2.0140	 9.9230
 2.0150	 9.9600
 2.0160	 9.9960
 2.0170	10.0310
 2.0180	10.0670
 2.0190	10.1040
 2.0200	10.1390
 2.0210	10.1740
 2.0220	10.2060
 2.0230	10.2340
 2.0240	10.2630
 2.0250	10.2940
 2.0260	10.3220
 2.0270	10.3470
 2.0280	10.3770
 2.0290	10.4060
 2.0300	10.4310
 2.0310	10.4580
 2.0320	10.4870
 2.0330	10.5130
 2.0340	10.5380
 2.0350	10.5630
 2.0360	10.5880
 2.0370	10.6120
 2.0380	10.6320
 2.0390	10.6530
 2.0400	10.6730
 2.0410	10.6920
 2.0420	10.7090
 2.0430	10.7240
 2.0440	10.7410
 2.0450	10.7580
 2.0460	10.7740
 2.0470	10.7910
 2.0480	10.8090
 2.0490	10.8260
 2.0500	10.8430
 2.0510	10.8610
 2.0520	10.8780
 2.0530	10.8920
 2.0540	10.9070
 2.0550	10.9220
 2.0560	10.9360
 2.0570	10.9490
 2.0580	10.9640
 2.0590	10.9790
 2.0600	10.9930
 2.0610	11.0090
 2.0620	11.0280
 2.0630	11.0460
 2.0640	11.0640
 2.0650	11.0820
 2.0660	11.0980
 2.0670	11.1150
 2.0680	11.1310
 2.0690	11.1470
 2.0700	11.1620
 2.0710	11.1770
 2.0720	11.1900
 2.0730	11.2050
 2.0740	11.2200
 2.0750	11.2350
 2.0760	11.2500
 2.0770	11.2650
 2.0780	11.2800
 2.0790	11.2960
 2.0800	11.3120
 2.0810	11.3280
 2.0820	11.3450
 2.0830	11.3640
 2.0840	11.3820
 2.0850	11.4040
 2.0860	11.4240
 2.0870	11.4430
 2.0880	11.4620
 2.0890	11.4790
 2.0900	11.4960
 2.0910	11.5120
 2.0920	11.5270
 2.0930	11.5450
 2.0940	11.5660
 2.0950	11.5860
 2.0960	11.6100
 2.0970	11.6290
 2.0980	11.6450
 2.0990	11.6630
 2.1000	11.6830
 2.1010	11.7020
 2.1020	11.7230
 2.1030	11.7430
 2.1040	11.7630
 2.1050	11.7810
 2.1060	11.8010
 2.1070	11.8230
 2.1080	11.8430
 2.1090	11.8640
 2.1100	11.8850
 2.1110	11.9060
 2.1120	11.9280
 2.1130	11.9520
 2.1140	11.9740
 2.1150	11.9960
 2.1160	12.0180
 2.1170	12.0400
 2.1180	12.0630
 2.1190	12.0890
 2.1200	12.1120
 2.1210	12.1360
 2.1220	12.1600
 2.1230	12.1820
 2.1240	12.2030
 2.1250	12.2260
 2.1260	12.2480
 2.1270	12.2710
 2.1280	12.2940
 2.1290	12.3150
 2.1300	12.3330
 2.1310	12.3520
 2.1320	12.3700
 2.1330	12.3910
 2.1340	12.4150
 2.1350	12.4360
 2.1360	12.4570
 2.1370	12.4770
 2.1380	12.4930
 2.1390	12.5120
 2.1400	12.5310
 2.1410	12.5550
 2.1420	12.5780
 2.1430	12.6050
 2.1440	12.6290
 2.1450	12.6540
 2.1460	12.6770
 2.1470	12.7000
 2.1480	12.7230
 2.1490	12.7450
 2.1500	12.7690
 2.1510	12.7960
 2.1520	12.8200
 2.1530	12.8450
 2.1540	12.8680
 2.1550	12.8880
 2.1560	12.9070
 2.1570	12.9230
 2.1580	12.9430
 2.1590	12.9660
 2.1600	12.9890
 2.1610	13.0120
 2.1620	13.0350
 2.1630	13.0580
 2.1640	13.0770
 2.1650	13.0980
 2.1660	13.1200
 2.1670	13.1420
 2.1680	13.1650
 2.1690	13.1860
 2.1700	13.2070
 2.1710	13.2270
 2.1720	13.2410
 2.1730	13.2610
 2.1740	13.2850
 2.1750	13.3080
 2.1760	13.3340
 2.1770	13.3570
 2.1780	13.3750
 2.1790	13.3960
 2.1800	13.4180
 2.1810	13.4390
 2.1820	13.4600
 2.1830	13.4830
 2.1840	13.5060
 2.1850	13.5280
 2.1860	13.5490
 2.1870	13.5690
 2.1880	13.5900
 2.1890	13.6090
 2.1900	13.6290
 2.1910	13.6500
 2.1920	13.6700
 2.1930	13.6870
 2.1940	13.7080
 2.1950	13.7330
 2.1960	13.7530
 2.1970	13.7710
 2.1980	13.7880
 2.1990	13.8010
 2.2000	13.8160
 2.2010	13.8310
 2.2020	13.8470
 2.2030	13.8650
 2.2040	13.8810
 2.2050	13.8960
 2.2060	13.9100
 2.2070	13.9240
 2.2080	13.9360
 2.2090	13.9480
 2.2100	13.9600
 2.2110	13.9710
 2.2120	13.9820
 2.2130	13.9910
 2.2140	14.0010
 2.2150	14.0060
 2.2160	14.0070
 2.2170	14.0070
 2.2180	14.0040
 2.2190	14.0030
 2.2200	14.0050
 2.2210	14.0000
 2.2220	13.9930
 2.2230	13.9840
 2.2240	13.9690
 2.2250	13.9560
 2.2260	13.9460
 2.2270	13.9320
 2.2280	13.9210
 2.2290	13.9030
 2.2300	13.8810
 2.2310	13.8560
 2.2320	13.8300
 2.2330	13.7980
 2.2340	13.7650
 2.2350	13.7310
 2.2360	13.6940
 2.2370	13.6530
 2.2380	13.6110
 2.2390	13.5670
 2.2400	13.5220
 2.2410	13.4740
 2.2420	13.4260
 2.2430	13.3770
 2.2440	13.3280
 2.2450	13.2800
 2.2460	13.2290
 2.2470	13.1770
 2.2480	13.1230
 2.2490	13.0660
 2.2500	13.0060
 2.2510	12.9460
 2.2520	12.8820
 2.2530	12.8130
 2.2540	12.7470
 2.2550	12.6800
 2.2560	12.6140
 2.2570	12.5470
 2.2580	12.4820
 2.2590	12.4180
 2.2600	12.3540
 2.2610	12.2930
 2.2620	12.2300
 2.2630	12.1650
 2.2640	12.1040
 2.2650	12.0470
 2.2660	11.9930
 2.2670	11.9440
 2.2680	11.9020
 2.2690	11.8540
 2.2700	11.8060
 2.2710	11.7610
 2.2720	11.7110
 2.2730	11.6710
 2.2740	11.6390
 2.2750	11.6070
 2.2760	11.5800
 2.2770	11.5520
 2.2780	11.5250
 2.2790	11.5010
 2.2800	11.4790
 2.2810	11.4580
 2.2820	11.4420
 2.2830	11.4220
 2.2840	11.4000
 2.2850	11.3780
 2.2860	11.3550
 2.2870	11.3310
 2.2880	11.3050
 2.2890	11.2790
 2.2900	11.2510
 2.2910	11.2220
 2.2920	11.1940
 2.2930	11.1600
 2.2940	11.1190
 2.2950	11.0800
 2.2960	11.0330
 2.2970	10.9920
 2.2980	10.9520
 2.2990	10.9160
 2.3000	10.8810
 2.3010	10.8460
 2.3020	10.8100
 2.3030	10.7750
 2.3040	10.7420
 2.3050	10.7120
 2.3060	10.6870
 2.3070	10.6640
 2.3080	10.6340
 2.3090	10.6110
 2.3100	10.6020
 2.3110	10.5900
 2.3120	10.5830
 2.3130	10.5890
 2.3140	10.5910
 2.3150	10.5930
 2.3160	10.5970
 2.3170	10.6090
 2.3180	10.6090
 2.3190	10.6020
 2.3200	10.6020
 2.3210	10.6030
 2.3220	10.6000
 2.3230	10.5990
 2.3240	10.5930
 2.3250	10.5790
 2.3260	10.5670
 2.3270	10.5580
 2.3280	10.5420
 2.3290	10.5220
 2.3300	10.5000
 2.3310	10.4720
 2.3320	10.4470
 2.3330	10.4210
 2.3340	10.3970
 2.3350	10.3750
 2.3360	10.3540
 2.3370	10.3340
 2.3380	10.3130
 2.3390	10.2910
 2.3400	10.2680
 2.3410	10.2450
 2.3420	10.2210
 2.3430	10.1950
 2.3440	10.1700
 2.3450	10.1400
 2.3460	10.1150
 2.3470	10.0880
 2.3480	10.0710
 2.3490	10.0630
 2.3500	10.0510
 2.3510	10.0420
 2.3520	10.0340
 2.3530	10.0220
 2.3540	10.0160
 2.3550	10.0140
 2.3560	10.0090
 2.3570	10.0030
 2.3580	 9.9920
 2.3590	 9.9750
 2.3600	 9.9550
 2.3610	 9.9410
 2.3620	 9.9280
 2.3630	 9.9160
 2.3640	 9.9050
 2.3650	 9.8870
 2.3660	 9.8630
 2.3670	 9.8380
 2.3680	 9.8240
 2.3690	 9.8090
 2.3700	 9.7920
 2.3710	 9.7850
 2.3720	 9.7630
 2.3730	 9.7270
 2.3740	 9.6960
 2.3750	 9.6730
 2.3760	 9.6540
 2.3770	 9.6470
 2.3780	 9.6420
 2.3790	 9.6260
 2.3800	 9.6060
 2.3810	 9.5860
 2.3820	 9.5650
 2.3830	 9.5430
 2.3840	 9.5190
 2.3850	 9.5060
 2.3860	 9.4930
 2.3870	 9.4790
 2.3880	 9.4730
 2.3890	 9.4520
 2.3900	 9.4310
 2.3910	 9.4270
 2.3920	 9.4110
 2.3930	 9.3980
 2.3940	 9.3820
 2.3950	 9.3480
 2.3960	 9.3250
 2.3970	 9.3050
 2.3980	 9.2850
 2.3990	 9.2710
 2.4000	 9.2480
 2.4010	 9.2340
 2.4020	 9.2150
 2.4030	 9.1980
 2.4040	 9.1960
 2.4050	 9.1720
 2.4060	 9.1420
 2.4070	 9.1060
 2.4080	 9.0580
 2.4090	 9.0300
 2.4100	 9.0060
 2.4110	 8.9880
 2.4120	 8.9800
 2.4130	 8.9610
 2.4140	 8.9340
 2.4150	 8.9080
 2.4160	 8.8800
 2.4170	 8.8450
 2.4180	 8.8120
 2.4190	 8.7790
 2.4200	 8.7570
 2.4210	 8.7390
 2.4220	 8.7210
 2.4230	 8.7170
 2.4240	 8.6950
 2.4250	 8.6650
 2.4260	 8.6380
 2.4270	 8.6060
 2.4280	 8.5750
 2.4290	 8.5430
 2.4300	 8.5140
 2.4310	 8.4880
 2.4320	 8.4560
 2.4330	 8.4350
 2.4340	 8.4190
 2.4350	 8.3950
 2.4360	 8.3800
 2.4370	 8.3530
 2.4380	 8.3240
 2.4390	 8.3030
 2.4400	 8.2700
 2.4410	 8.2420
 2.4420	 8.2200
 2.4430	 8.1900
 2.4440	 8.1670
 2.4450	 8.1520
 2.4460	 8.1230
 2.4470	 8.1020
 2.4480	 8.0790
 2.4490	 8.0460
 2.4500	 8.0240
 2.4510	 8.0050
 2.4520	 7.9860
 2.4530	 7.9700
 2.4540	 7.9350
 2.4550	 7.8930
 2.4560	 7.8590
 2.4570	 7.8080
 2.4580	 7.7800
 2.4590	 7.7730
 2.4600	 7.7440
 2.4610	 7.7340
 2.4620	 7.7270
 2.4630	 7.7040
 2.4640	 7.6880
 2.4650	 7.6760
 2.4660	 7.6560
 2.4670	 7.6410
 2.4680	 7.6270
 2.4690	 7.6320
 2.4700	 7.6200
 2.4710	 7.6000
 2.4720	 7.5800
 2.4730	 7.5430
 2.4740	 7.5110
 2.4750	 7.4750
 2.4760	 7.4540
 2.4770	 7.4420
 2.4780	 7.4230
 2.4790	 7.4140
 2.4800	 7.4120
 2.4810	 7.4120
 2.4820	 7.4120
 2.4830	 7.3870
 2.4840	 7.3710
 2.4850	 7.3660
 2.4860	 7.3690
 2.4870	 7.3860
 2.4880	 7.3930
 2.4890	 7.3750
 2.4900	 7.3240
 2.4910	 7.3030
 2.4920	 7.3160
 2.4930	 7.3210
 2.4940	 7.3300
 2.4950	 7.3040
 2.4960	 7.2930
 2.4970	 7.2790
 2.4980	 7.2490
 2.4990	 7.2980
 2.5000	 7.3240
