Name: Magnolia grandiflora
Type: vegetation
Class: Tree
Genus: Magnolia
Species: grandiflora
Sample No.: JPL115
Owner: JPL
Wavelength Range: VSWIR
Origin: 34.12721; -118.1134;; WGS84
Collection Date: 9/7/2016
Description: Samples were collected at the Huntington Garden in San Marino California as part of a JPL Subcontract studying HyTES imagery. Samples were taken to JPL and processed within 48 hours of collection. The same leaves were processed in the Nicolet and then measured using the ASD.
Measurement: Bidirectional reflectance
First Column: X
Second Column: Y
X Units: Wavelength (micrometer)
Y Units: Reflectance (percentage)
First X Value: 0.35
Last X Value: 2.5
Number of X Values: 2151
Additional Information: vegetation.tree.magnolia.grandiflora.vswir.jpl115.jpl.asd.ancillary.txt

 0.3500	 6.0450
 0.3510	 5.9790
 0.3520	 6.0510
 0.3530	 6.1060
 0.3540	 6.0160
 0.3550	 5.9500
 0.3560	 5.9030
 0.3570	 5.8760
 0.3580	 5.8650
 0.3590	 5.7960
 0.3600	 5.8180
 0.3610	 5.9260
 0.3620	 5.8680
 0.3630	 5.8320
 0.3640	 5.8400
 0.3650	 5.8530
 0.3660	 5.7730
 0.3670	 5.7700
 0.3680	 5.8300
 0.3690	 5.8210
 0.3700	 5.8000
 0.3710	 5.7520
 0.3720	 5.6970
 0.3730	 5.7440
 0.3740	 5.7890
 0.3750	 5.8050
 0.3760	 5.8020
 0.3770	 5.8240
 0.3780	 5.8200
 0.3790	 5.7770
 0.3800	 5.7160
 0.3810	 5.6940
 0.3820	 5.7260
 0.3830	 5.7760
 0.3840	 5.7000
 0.3850	 5.6850
 0.3860	 5.7180
 0.3870	 5.7170
 0.3880	 5.6960
 0.3890	 5.6960
 0.3900	 5.7140
 0.3910	 5.6940
 0.3920	 5.6680
 0.3930	 5.6500
 0.3940	 5.6490
 0.3950	 5.6660
 0.3960	 5.6560
 0.3970	 5.6310
 0.3980	 5.6300
 0.3990	 5.6570
 0.4000	 5.6790
 0.4010	 5.6820
 0.4020	 5.6770
 0.4030	 5.6750
 0.4040	 5.6710
 0.4050	 5.6570
 0.4060	 5.6530
 0.4070	 5.6520
 0.4080	 5.6510
 0.4090	 5.6560
 0.4100	 5.6690
 0.4110	 5.6800
 0.4120	 5.6780
 0.4130	 5.6630
 0.4140	 5.6740
 0.4150	 5.6950
 0.4160	 5.6940
 0.4170	 5.6980
 0.4180	 5.7000
 0.4190	 5.7060
 0.4200	 5.7260
 0.4210	 5.7320
 0.4220	 5.7430
 0.4230	 5.7670
 0.4240	 5.7720
 0.4250	 5.7830
 0.4260	 5.7970
 0.4270	 5.8030
 0.4280	 5.8160
 0.4290	 5.8330
 0.4300	 5.8510
 0.4310	 5.8750
 0.4320	 5.9070
 0.4330	 5.9360
 0.4340	 5.9550
 0.4350	 5.9750
 0.4360	 5.9840
 0.4370	 5.9840
 0.4380	 5.9860
 0.4390	 5.9780
 0.4400	 5.9700
 0.4410	 5.9720
 0.4420	 5.9810
 0.4430	 5.9950
 0.4440	 6.0030
 0.4450	 5.9930
 0.4460	 5.9950
 0.4470	 5.9980
 0.4480	 6.0030
 0.4490	 6.0230
 0.4500	 6.0310
 0.4510	 6.0300
 0.4520	 6.0330
 0.4530	 6.0400
 0.4540	 6.0400
 0.4550	 6.0380
 0.4560	 6.0470
 0.4570	 6.0470
 0.4580	 6.0470
 0.4590	 6.0530
 0.4600	 6.0540
 0.4610	 6.0530
 0.4620	 6.0520
 0.4630	 6.0540
 0.4640	 6.0560
 0.4650	 6.0610
 0.4660	 6.0680
 0.4670	 6.0650
 0.4680	 6.0690
 0.4690	 6.0750
 0.4700	 6.0760
 0.4710	 6.0720
 0.4720	 6.0720
 0.4730	 6.0760
 0.4740	 6.0760
 0.4750	 6.0730
 0.4760	 6.0760
 0.4770	 6.0840
 0.4780	 6.0810
 0.4790	 6.0860
 0.4800	 6.0950
 0.4810	 6.0990
 0.4820	 6.0970
 0.4830	 6.1030
 0.4840	 6.1180
 0.4850	 6.1270
 0.4860	 6.1360
 0.4870	 6.1480
 0.4880	 6.1600
 0.4890	 6.1580
 0.4900	 6.1630
 0.4910	 6.1710
 0.4920	 6.1700
 0.4930	 6.1750
 0.4940	 6.1810
 0.4950	 6.1860
 0.4960	 6.2000
 0.4970	 6.2130
 0.4980	 6.2230
 0.4990	 6.2330
 0.5000	 6.2460
 0.5010	 6.2670
 0.5020	 6.2940
 0.5030	 6.3200
 0.5040	 6.3530
 0.5050	 6.3880
 0.5060	 6.4230
 0.5070	 6.4650
 0.5080	 6.5140
 0.5090	 6.5670
 0.5100	 6.6220
 0.5110	 6.6850
 0.5120	 6.7520
 0.5130	 6.8250
 0.5140	 6.9110
 0.5150	 7.0040
 0.5160	 7.1010
 0.5170	 7.2030
 0.5180	 7.3130
 0.5190	 7.4280
 0.5200	 7.5480
 0.5210	 7.6760
 0.5220	 7.8060
 0.5230	 7.9370
 0.5240	 8.0690
 0.5250	 8.1980
 0.5260	 8.3250
 0.5270	 8.4490
 0.5280	 8.5680
 0.5290	 8.6760
 0.5300	 8.7770
 0.5310	 8.8740
 0.5320	 8.9620
 0.5330	 9.0420
 0.5340	 9.1130
 0.5350	 9.1780
 0.5360	 9.2380
 0.5370	 9.2940
 0.5380	 9.3470
 0.5390	 9.3990
 0.5400	 9.4580
 0.5410	 9.5290
 0.5420	 9.6040
 0.5430	 9.6590
 0.5440	 9.6920
 0.5450	 9.7030
 0.5460	 9.6970
 0.5470	 9.6750
 0.5480	 9.6610
 0.5490	 9.6650
 0.5500	 9.6760
 0.5510	 9.6860
 0.5520	 9.6900
 0.5530	 9.6860
 0.5540	 9.6710
 0.5550	 9.6500
 0.5560	 9.6230
 0.5570	 9.5850
 0.5580	 9.5410
 0.5590	 9.4890
 0.5600	 9.4270
 0.5610	 9.3530
 0.5620	 9.2700
 0.5630	 9.1820
 0.5640	 9.0920
 0.5650	 9.0020
 0.5660	 8.9130
 0.5670	 8.8280
 0.5680	 8.7460
 0.5690	 8.6630
 0.5700	 8.5840
 0.5710	 8.5110
 0.5720	 8.4300
 0.5730	 8.3480
 0.5740	 8.2700
 0.5750	 8.1960
 0.5760	 8.1330
 0.5770	 8.0770
 0.5780	 8.0240
 0.5790	 7.9730
 0.5800	 7.9220
 0.5810	 7.8720
 0.5820	 7.8300
 0.5830	 7.8000
 0.5840	 7.7830
 0.5850	 7.7700
 0.5860	 7.7540
 0.5870	 7.7330
 0.5880	 7.7030
 0.5890	 7.6610
 0.5900	 7.6230
 0.5910	 7.5880
 0.5920	 7.5570
 0.5930	 7.5290
 0.5940	 7.4980
 0.5950	 7.4730
 0.5960	 7.4580
 0.5970	 7.4510
 0.5980	 7.4470
 0.5990	 7.4410
 0.6000	 7.4340
 0.6010	 7.4160
 0.6020	 7.3970
 0.6030	 7.3780
 0.6040	 7.3570
 0.6050	 7.3320
 0.6060	 7.3050
 0.6070	 7.2790
 0.6080	 7.2480
 0.6090	 7.2280
 0.6100	 7.2250
 0.6110	 7.2330
 0.6120	 7.2000
 0.6130	 7.1430
 0.6140	 7.0840
 0.6150	 7.0480
 0.6160	 7.0130
 0.6170	 6.9820
 0.6180	 6.9570
 0.6190	 6.9370
 0.6200	 6.9200
 0.6210	 6.9030
 0.6220	 6.8850
 0.6230	 6.8690
 0.6240	 6.8560
 0.6250	 6.8460
 0.6260	 6.8390
 0.6270	 6.8350
 0.6280	 6.8320
 0.6290	 6.8280
 0.6300	 6.8270
 0.6310	 6.8250
 0.6320	 6.8180
 0.6330	 6.8040
 0.6340	 6.7940
 0.6350	 6.7810
 0.6360	 6.7620
 0.6370	 6.7430
 0.6380	 6.7230
 0.6390	 6.7030
 0.6400	 6.6830
 0.6410	 6.6560
 0.6420	 6.6280
 0.6430	 6.6040
 0.6440	 6.5820
 0.6450	 6.5560
 0.6460	 6.5310
 0.6470	 6.5120
 0.6480	 6.4940
 0.6490	 6.4770
 0.6500	 6.4630
 0.6510	 6.4540
 0.6520	 6.4440
 0.6530	 6.4350
 0.6540	 6.4270
 0.6550	 6.4180
 0.6560	 6.4070
 0.6570	 6.3940
 0.6580	 6.3790
 0.6590	 6.3660
 0.6600	 6.3520
 0.6610	 6.3380
 0.6620	 6.3250
 0.6630	 6.3110
 0.6640	 6.2970
 0.6650	 6.2840
 0.6660	 6.2760
 0.6670	 6.2710
 0.6680	 6.2680
 0.6690	 6.2650
 0.6700	 6.2640
 0.6710	 6.2670
 0.6720	 6.2730
 0.6730	 6.2790
 0.6740	 6.2870
 0.6750	 6.2980
 0.6760	 6.3110
 0.6770	 6.3250
 0.6780	 6.3400
 0.6790	 6.3570
 0.6800	 6.3780
 0.6810	 6.4020
 0.6820	 6.4280
 0.6830	 6.4580
 0.6840	 6.4930
 0.6850	 6.5350
 0.6860	 6.5850
 0.6870	 6.6410
 0.6880	 6.7020
 0.6890	 6.7770
 0.6900	 6.8710
 0.6910	 6.9880
 0.6920	 7.1300
 0.6930	 7.3020
 0.6940	 7.5120
 0.6950	 7.7670
 0.6960	 8.0620
 0.6970	 8.4020
 0.6980	 8.7970
 0.6990	 9.2460
 0.7000	 9.7430
 0.7010	10.2880
 0.7020	10.8790
 0.7030	11.5100
 0.7040	12.1740
 0.7050	12.8700
 0.7060	13.5960
 0.7070	14.3460
 0.7080	15.1180
 0.7090	15.9120
 0.7100	16.7240
 0.7110	17.5600
 0.7120	18.4190
 0.7130	19.2940
 0.7140	20.1840
 0.7150	21.0930
 0.7160	22.0180
 0.7170	22.9590
 0.7180	23.9120
 0.7190	24.8750
 0.7200	25.8480
 0.7210	26.8220
 0.7220	27.7980
 0.7230	28.7750
 0.7240	29.7470
 0.7250	30.7080
 0.7260	31.6550
 0.7270	32.5880
 0.7280	33.4980
 0.7290	34.3870
 0.7300	35.2520
 0.7310	36.0920
 0.7320	36.9030
 0.7330	37.6870
 0.7340	38.4410
 0.7350	39.1640
 0.7360	39.8570
 0.7370	40.5170
 0.7380	41.1450
 0.7390	41.7410
 0.7400	42.3070
 0.7410	42.8430
 0.7420	43.3480
 0.7430	43.8200
 0.7440	44.2590
 0.7450	44.6680
 0.7460	45.0540
 0.7470	45.4110
 0.7480	45.7420
 0.7490	46.0480
 0.7500	46.3280
 0.7510	46.5870
 0.7520	46.8280
 0.7530	47.0500
 0.7540	47.2560
 0.7550	47.4380
 0.7560	47.6010
 0.7570	47.7520
 0.7580	47.8880
 0.7590	48.0140
 0.7600	48.1310
 0.7610	48.2410
 0.7620	48.3350
 0.7630	48.4180
 0.7640	48.4970
 0.7650	48.5720
 0.7660	48.6390
 0.7670	48.6950
 0.7680	48.7450
 0.7690	48.7920
 0.7700	48.8330
 0.7710	48.8680
 0.7720	48.9020
 0.7730	48.9360
 0.7740	48.9670
 0.7750	48.9920
 0.7760	49.0210
 0.7770	49.0490
 0.7780	49.0710
 0.7790	49.0880
 0.7800	49.1090
 0.7810	49.1280
 0.7820	49.1440
 0.7830	49.1570
 0.7840	49.1700
 0.7850	49.1860
 0.7860	49.2030
 0.7870	49.2150
 0.7880	49.2230
 0.7890	49.2300
 0.7900	49.2400
 0.7910	49.2530
 0.7920	49.2650
 0.7930	49.2740
 0.7940	49.2820
 0.7950	49.2920
 0.7960	49.3000
 0.7970	49.3040
 0.7980	49.3080
 0.7990	49.3140
 0.8000	49.3170
 0.8010	49.3190
 0.8020	49.3260
 0.8030	49.3320
 0.8040	49.3360
 0.8050	49.3450
 0.8060	49.3520
 0.8070	49.3580
 0.8080	49.3600
 0.8090	49.3630
 0.8100	49.3630
 0.8110	49.3680
 0.8120	49.3780
 0.8130	49.3800
 0.8140	49.3790
 0.8150	49.3770
 0.8160	49.3800
 0.8170	49.3900
 0.8180	49.3990
 0.8190	49.4040
 0.8200	49.4070
 0.8210	49.4120
 0.8220	49.4150
 0.8230	49.4170
 0.8240	49.4190
 0.8250	49.4270
 0.8260	49.4350
 0.8270	49.4380
 0.8280	49.4430
 0.8290	49.4440
 0.8300	49.4440
 0.8310	49.4480
 0.8320	49.4550
 0.8330	49.4610
 0.8340	49.4650
 0.8350	49.4700
 0.8360	49.4770
 0.8370	49.4830
 0.8380	49.4900
 0.8390	49.5010
 0.8400	49.5090
 0.8410	49.5200
 0.8420	49.5360
 0.8430	49.5470
 0.8440	49.5580
 0.8450	49.5690
 0.8460	49.5810
 0.8470	49.5940
 0.8480	49.6040
 0.8490	49.6150
 0.8500	49.6290
 0.8510	49.6370
 0.8520	49.6470
 0.8530	49.6560
 0.8540	49.6600
 0.8550	49.6690
 0.8560	49.6820
 0.8570	49.6930
 0.8580	49.6980
 0.8590	49.7150
 0.8600	49.7320
 0.8610	49.7420
 0.8620	49.7500
 0.8630	49.7640
 0.8640	49.7750
 0.8650	49.7790
 0.8660	49.7830
 0.8670	49.7900
 0.8680	49.7980
 0.8690	49.8060
 0.8700	49.8130
 0.8710	49.8180
 0.8720	49.8230
 0.8730	49.8320
 0.8740	49.8410
 0.8750	49.8480
 0.8760	49.8540
 0.8770	49.8640
 0.8780	49.8700
 0.8790	49.8730
 0.8800	49.8760
 0.8810	49.8890
 0.8820	49.8910
 0.8830	49.8920
 0.8840	49.9010
 0.8850	49.8990
 0.8860	49.8960
 0.8870	49.8970
 0.8880	49.9050
 0.8890	49.9070
 0.8900	49.9110
 0.8910	49.9140
 0.8920	49.9120
 0.8930	49.9160
 0.8940	49.9180
 0.8950	49.9170
 0.8960	49.9160
 0.8970	49.9250
 0.8980	49.9300
 0.8990	49.9260
 0.9000	49.9210
 0.9010	49.9210
 0.9020	49.9230
 0.9030	49.9250
 0.9040	49.9300
 0.9050	49.9220
 0.9060	49.9170
 0.9070	49.9210
 0.9080	49.9240
 0.9090	49.9160
 0.9100	49.9100
 0.9110	49.9130
 0.9120	49.9060
 0.9130	49.8980
 0.9140	49.8920
 0.9150	49.8900
 0.9160	49.8880
 0.9170	49.8820
 0.9180	49.8730
 0.9190	49.8650
 0.9200	49.8590
 0.9210	49.8480
 0.9220	49.8390
 0.9230	49.8340
 0.9240	49.8130
 0.9250	49.7970
 0.9260	49.7840
 0.9270	49.7610
 0.9280	49.7360
 0.9290	49.7090
 0.9300	49.6850
 0.9310	49.6720
 0.9320	49.6390
 0.9330	49.6090
 0.9340	49.5850
 0.9350	49.5460
 0.9360	49.5070
 0.9370	49.4680
 0.9380	49.4280
 0.9390	49.3900
 0.9400	49.3530
 0.9410	49.3130
 0.9420	49.2660
 0.9430	49.2200
 0.9440	49.1710
 0.9450	49.1200
 0.9460	49.0630
 0.9470	48.9920
 0.9480	48.9230
 0.9490	48.8540
 0.9500	48.7800
 0.9510	48.7010
 0.9520	48.6080
 0.9530	48.5140
 0.9540	48.4320
 0.9550	48.3460
 0.9560	48.2710
 0.9570	48.1950
 0.9580	48.1110
 0.9590	48.0420
 0.9600	47.9880
 0.9610	47.9390
 0.9620	47.8820
 0.9630	47.8250
 0.9640	47.7920
 0.9650	47.7700
 0.9660	47.7340
 0.9670	47.7050
 0.9680	47.6810
 0.9690	47.6610
 0.9700	47.6420
 0.9710	47.6250
 0.9720	47.6140
 0.9730	47.6100
 0.9740	47.6100
 0.9750	47.5890
 0.9760	47.5850
 0.9770	47.5990
 0.9780	47.6100
 0.9790	47.6060
 0.9800	47.6170
 0.9810	47.6300
 0.9820	47.6260
 0.9830	47.6470
 0.9840	47.6620
 0.9850	47.6790
 0.9860	47.7140
 0.9870	47.7410
 0.9880	47.7600
 0.9890	47.7730
 0.9900	47.7900
 0.9910	47.8310
 0.9920	47.8630
 0.9930	47.8870
 0.9940	47.9190
 0.9950	47.9290
 0.9960	47.9570
 0.9970	48.0020
 0.9980	48.0400
 0.9990	48.0510
 1.0000	48.0950
 1.0010	48.2600
 1.0020	48.2930
 1.0030	48.3290
 1.0040	48.3670
 1.0050	48.4070
 1.0060	48.4480
 1.0070	48.4850
 1.0080	48.5220
 1.0090	48.5570
 1.0100	48.5920
 1.0110	48.6270
 1.0120	48.6630
 1.0130	48.7010
 1.0140	48.7370
 1.0150	48.7720
 1.0160	48.8050
 1.0170	48.8390
 1.0180	48.8680
 1.0190	48.8990
 1.0200	48.9340
 1.0210	48.9670
 1.0220	49.0020
 1.0230	49.0370
 1.0240	49.0730
 1.0250	49.1070
 1.0260	49.1390
 1.0270	49.1710
 1.0280	49.2020
 1.0290	49.2330
 1.0300	49.2670
 1.0310	49.2990
 1.0320	49.3290
 1.0330	49.3610
 1.0340	49.3920
 1.0350	49.4180
 1.0360	49.4440
 1.0370	49.4680
 1.0380	49.4920
 1.0390	49.5150
 1.0400	49.5370
 1.0410	49.5570
 1.0420	49.5770
 1.0430	49.5970
 1.0440	49.6180
 1.0450	49.6400
 1.0460	49.6600
 1.0470	49.6830
 1.0480	49.7020
 1.0490	49.7190
 1.0500	49.7360
 1.0510	49.7520
 1.0520	49.7670
 1.0530	49.7800
 1.0540	49.7910
 1.0550	49.8040
 1.0560	49.8170
 1.0570	49.8300
 1.0580	49.8480
 1.0590	49.8600
 1.0600	49.8670
 1.0610	49.8740
 1.0620	49.8770
 1.0630	49.8830
 1.0640	49.8930
 1.0650	49.9000
 1.0660	49.9090
 1.0670	49.9150
 1.0680	49.9200
 1.0690	49.9200
 1.0700	49.9240
 1.0710	49.9270
 1.0720	49.9290
 1.0730	49.9300
 1.0740	49.9300
 1.0750	49.9260
 1.0760	49.9260
 1.0770	49.9290
 1.0780	49.9290
 1.0790	49.9300
 1.0800	49.9300
 1.0810	49.9290
 1.0820	49.9240
 1.0830	49.9160
 1.0840	49.9100
 1.0850	49.9020
 1.0860	49.8940
 1.0870	49.8870
 1.0880	49.8830
 1.0890	49.8740
 1.0900	49.8630
 1.0910	49.8530
 1.0920	49.8440
 1.0930	49.8320
 1.0940	49.8220
 1.0950	49.8090
 1.0960	49.7940
 1.0970	49.7790
 1.0980	49.7650
 1.0990	49.7490
 1.1000	49.7340
 1.1010	49.7180
 1.1020	49.7010
 1.1030	49.6840
 1.1040	49.6700
 1.1050	49.6520
 1.1060	49.6320
 1.1070	49.6100
 1.1080	49.5880
 1.1090	49.5610
 1.1100	49.5400
 1.1110	49.5210
 1.1120	49.4990
 1.1130	49.4780
 1.1140	49.4550
 1.1150	49.4320
 1.1160	49.4030
 1.1170	49.3730
 1.1180	49.3390
 1.1190	49.3000
 1.1200	49.2570
 1.1210	49.2130
 1.1220	49.1660
 1.1230	49.1120
 1.1240	49.0540
 1.1250	48.9870
 1.1260	48.9160
 1.1270	48.8340
 1.1280	48.7440
 1.1290	48.6430
 1.1300	48.5340
 1.1310	48.4110
 1.1320	48.2780
 1.1330	48.1360
 1.1340	47.9820
 1.1350	47.8190
 1.1360	47.6490
 1.1370	47.4680
 1.1380	47.2780
 1.1390	47.0820
 1.1400	46.8760
 1.1410	46.6690
 1.1420	46.4590
 1.1430	46.2450
 1.1440	46.0350
 1.1450	45.8220
 1.1460	45.6170
 1.1470	45.4120
 1.1480	45.2180
 1.1490	45.0290
 1.1500	44.8520
 1.1510	44.6840
 1.1520	44.5270
 1.1530	44.3800
 1.1540	44.2440
 1.1550	44.1190
 1.1560	44.0050
 1.1570	43.9010
 1.1580	43.8080
 1.1590	43.7250
 1.1600	43.6470
 1.1610	43.5790
 1.1620	43.5190
 1.1630	43.4640
 1.1640	43.4170
 1.1650	43.3740
 1.1660	43.3370
 1.1670	43.3010
 1.1680	43.2680
 1.1690	43.2380
 1.1700	43.2130
 1.1710	43.1860
 1.1720	43.1620
 1.1730	43.1380
 1.1740	43.1160
 1.1750	43.0930
 1.1760	43.0710
 1.1770	43.0490
 1.1780	43.0230
 1.1790	42.9960
 1.1800	42.9700
 1.1810	42.9430
 1.1820	42.9160
 1.1830	42.8910
 1.1840	42.8650
 1.1850	42.8400
 1.1860	42.8170
 1.1870	42.7940
 1.1880	42.7730
 1.1890	42.7530
 1.1900	42.7360
 1.1910	42.7190
 1.1920	42.7050
 1.1930	42.6940
 1.1940	42.6840
 1.1950	42.6770
 1.1960	42.6740
 1.1970	42.6730
 1.1980	42.6740
 1.1990	42.6770
 1.2000	42.6840
 1.2010	42.6930
 1.2020	42.7040
 1.2030	42.7180
 1.2040	42.7350
 1.2050	42.7530
 1.2060	42.7750
 1.2070	42.8000
 1.2080	42.8270
 1.2090	42.8560
 1.2100	42.8860
 1.2110	42.9170
 1.2120	42.9480
 1.2130	42.9810
 1.2140	43.0150
 1.2150	43.0520
 1.2160	43.0910
 1.2170	43.1290
 1.2180	43.1690
 1.2190	43.2090
 1.2200	43.2480
 1.2210	43.2890
 1.2220	43.3330
 1.2230	43.3760
 1.2240	43.4190
 1.2250	43.4610
 1.2260	43.5020
 1.2270	43.5430
 1.2280	43.5820
 1.2290	43.6220
 1.2300	43.6620
 1.2310	43.6990
 1.2320	43.7370
 1.2330	43.7750
 1.2340	43.8110
 1.2350	43.8460
 1.2360	43.8800
 1.2370	43.9130
 1.2380	43.9460
 1.2390	43.9770
 1.2400	44.0080
 1.2410	44.0390
 1.2420	44.0680
 1.2430	44.0940
 1.2440	44.1210
 1.2450	44.1490
 1.2460	44.1760
 1.2470	44.2030
 1.2480	44.2290
 1.2490	44.2520
 1.2500	44.2740
 1.2510	44.2960
 1.2520	44.3180
 1.2530	44.3380
 1.2540	44.3580
 1.2550	44.3750
 1.2560	44.3900
 1.2570	44.4040
 1.2580	44.4160
 1.2590	44.4270
 1.2600	44.4370
 1.2610	44.4460
 1.2620	44.4530
 1.2630	44.4580
 1.2640	44.4610
 1.2650	44.4640
 1.2660	44.4640
 1.2670	44.4650
 1.2680	44.4660
 1.2690	44.4640
 1.2700	44.4610
 1.2710	44.4560
 1.2720	44.4470
 1.2730	44.4370
 1.2740	44.4280
 1.2750	44.4160
 1.2760	44.4020
 1.2770	44.3860
 1.2780	44.3670
 1.2790	44.3460
 1.2800	44.3240
 1.2810	44.3030
 1.2820	44.2780
 1.2830	44.2510
 1.2840	44.2210
 1.2850	44.1860
 1.2860	44.1500
 1.2870	44.1120
 1.2880	44.0740
 1.2890	44.0320
 1.2900	43.9870
 1.2910	43.9390
 1.2920	43.8890
 1.2930	43.8350
 1.2940	43.7800
 1.2950	43.7210
 1.2960	43.6590
 1.2970	43.5960
 1.2980	43.5310
 1.2990	43.4620
 1.3000	43.3900
 1.3010	43.3130
 1.3020	43.2310
 1.3030	43.1460
 1.3040	43.0580
 1.3050	42.9690
 1.3060	42.8770
 1.3070	42.7790
 1.3080	42.6770
 1.3090	42.5710
 1.3100	42.4590
 1.3110	42.3450
 1.3120	42.2270
 1.3130	42.1050
 1.3140	41.9770
 1.3150	41.8450
 1.3160	41.7090
 1.3170	41.5700
 1.3180	41.4250
 1.3190	41.2770
 1.3200	41.1230
 1.3210	40.9640
 1.3220	40.8030
 1.3230	40.6380
 1.3240	40.4690
 1.3250	40.2980
 1.3260	40.1220
 1.3270	39.9430
 1.3280	39.7610
 1.3290	39.5750
 1.3300	39.3870
 1.3310	39.1970
 1.3320	39.0040
 1.3330	38.8110
 1.3340	38.6170
 1.3350	38.4200
 1.3360	38.2240
 1.3370	38.0270
 1.3380	37.8300
 1.3390	37.6370
 1.3400	37.4410
 1.3410	37.2500
 1.3420	37.0620
 1.3430	36.8710
 1.3440	36.6840
 1.3450	36.4990
 1.3460	36.3140
 1.3470	36.1340
 1.3480	35.9570
 1.3490	35.7830
 1.3500	35.6120
 1.3510	35.4410
 1.3520	35.2710
 1.3530	35.1030
 1.3540	34.9330
 1.3550	34.7630
 1.3560	34.5950
 1.3570	34.4240
 1.3580	34.2530
 1.3590	34.0790
 1.3600	33.9000
 1.3610	33.7170
 1.3620	33.5270
 1.3630	33.3310
 1.3640	33.1290
 1.3650	32.9170
 1.3660	32.6970
 1.3670	32.4660
 1.3680	32.2220
 1.3690	31.9660
 1.3700	31.6940
 1.3710	31.4070
 1.3720	31.1060
 1.3730	30.7840
 1.3740	30.4470
 1.3750	30.0890
 1.3760	29.7060
 1.3770	29.3000
 1.3780	28.8670
 1.3790	28.4100
 1.3800	27.9280
 1.3810	27.4160
 1.3820	26.8870
 1.3830	26.3360
 1.3840	25.7680
 1.3850	25.1790
 1.3860	24.5830
 1.3870	23.9660
 1.3880	23.3540
 1.3890	22.7340
 1.3900	22.1120
 1.3910	21.4980
 1.3920	20.8860
 1.3930	20.2780
 1.3940	19.6820
 1.3950	19.0920
 1.3960	18.5180
 1.3970	17.9650
 1.3980	17.4310
 1.3990	16.9260
 1.4000	16.4420
 1.4010	15.9780
 1.4020	15.5420
 1.4030	15.1260
 1.4040	14.7360
 1.4050	14.3730
 1.4060	14.0320
 1.4070	13.7160
 1.4080	13.4220
 1.4090	13.1480
 1.4100	12.8950
 1.4110	12.6610
 1.4120	12.4450
 1.4130	12.2460
 1.4140	12.0620
 1.4150	11.8950
 1.4160	11.7410
 1.4170	11.5980
 1.4180	11.4680
 1.4190	11.3460
 1.4200	11.2350
 1.4210	11.1330
 1.4220	11.0400
 1.4230	10.9550
 1.4240	10.8770
 1.4250	10.8040
 1.4260	10.7390
 1.4270	10.6780
 1.4280	10.6240
 1.4290	10.5740
 1.4300	10.5310
 1.4310	10.4910
 1.4320	10.4560
 1.4330	10.4230
 1.4340	10.3940
 1.4350	10.3690
 1.4360	10.3470
 1.4370	10.3280
 1.4380	10.3130
 1.4390	10.3010
 1.4400	10.2910
 1.4410	10.2820
 1.4420	10.2760
 1.4430	10.2710
 1.4440	10.2680
 1.4450	10.2660
 1.4460	10.2670
 1.4470	10.2690
 1.4480	10.2730
 1.4490	10.2780
 1.4500	10.2830
 1.4510	10.2900
 1.4520	10.2980
 1.4530	10.3080
 1.4540	10.3190
 1.4550	10.3310
 1.4560	10.3460
 1.4570	10.3620
 1.4580	10.3810
 1.4590	10.4020
 1.4600	10.4270
 1.4610	10.4530
 1.4620	10.4820
 1.4630	10.5150
 1.4640	10.5500
 1.4650	10.5890
 1.4660	10.6310
 1.4670	10.6760
 1.4680	10.7250
 1.4690	10.7770
 1.4700	10.8320
 1.4710	10.8910
 1.4720	10.9520
 1.4730	11.0160
 1.4740	11.0840
 1.4750	11.1540
 1.4760	11.2270
 1.4770	11.3020
 1.4780	11.3790
 1.4790	11.4580
 1.4800	11.5370
 1.4810	11.6190
 1.4820	11.7040
 1.4830	11.7900
 1.4840	11.8780
 1.4850	11.9680
 1.4860	12.0590
 1.4870	12.1520
 1.4880	12.2460
 1.4890	12.3420
 1.4900	12.4380
 1.4910	12.5350
 1.4920	12.6340
 1.4930	12.7340
 1.4940	12.8350
 1.4950	12.9380
 1.4960	13.0410
 1.4970	13.1440
 1.4980	13.2480
 1.4990	13.3530
 1.5000	13.4590
 1.5010	13.5660
 1.5020	13.6740
 1.5030	13.7830
 1.5040	13.8920
 1.5050	14.0010
 1.5060	14.1110
 1.5070	14.2220
 1.5080	14.3340
 1.5090	14.4460
 1.5100	14.5580
 1.5110	14.6710
 1.5120	14.7840
 1.5130	14.8960
 1.5140	15.0090
 1.5150	15.1220
 1.5160	15.2340
 1.5170	15.3470
 1.5180	15.4600
 1.5190	15.5720
 1.5200	15.6840
 1.5210	15.7950
 1.5220	15.9050
 1.5230	16.0160
 1.5240	16.1260
 1.5250	16.2370
 1.5260	16.3470
 1.5270	16.4580
 1.5280	16.5680
 1.5290	16.6760
 1.5300	16.7840
 1.5310	16.8930
 1.5320	16.9990
 1.5330	17.1050
 1.5340	17.2120
 1.5350	17.3170
 1.5360	17.4240
 1.5370	17.5290
 1.5380	17.6330
 1.5390	17.7370
 1.5400	17.8390
 1.5410	17.9420
 1.5420	18.0450
 1.5430	18.1480
 1.5440	18.2510
 1.5450	18.3520
 1.5460	18.4520
 1.5470	18.5530
 1.5480	18.6530
 1.5490	18.7530
 1.5500	18.8520
 1.5510	18.9490
 1.5520	19.0480
 1.5530	19.1440
 1.5540	19.2400
 1.5550	19.3360
 1.5560	19.4300
 1.5570	19.5240
 1.5580	19.6170
 1.5590	19.7100
 1.5600	19.8030
 1.5610	19.8940
 1.5620	19.9830
 1.5630	20.0730
 1.5640	20.1620
 1.5650	20.2510
 1.5660	20.3400
 1.5670	20.4280
 1.5680	20.5150
 1.5690	20.6020
 1.5700	20.6890
 1.5710	20.7760
 1.5720	20.8610
 1.5730	20.9470
 1.5740	21.0310
 1.5750	21.1140
 1.5760	21.1980
 1.5770	21.2800
 1.5780	21.3630
 1.5790	21.4450
 1.5800	21.5260
 1.5810	21.6070
 1.5820	21.6880
 1.5830	21.7690
 1.5840	21.8500
 1.5850	21.9300
 1.5860	22.0100
 1.5870	22.0880
 1.5880	22.1670
 1.5890	22.2470
 1.5900	22.3270
 1.5910	22.4060
 1.5920	22.4860
 1.5930	22.5640
 1.5940	22.6420
 1.5950	22.7190
 1.5960	22.7960
 1.5970	22.8750
 1.5980	22.9530
 1.5990	23.0300
 1.6000	23.1070
 1.6010	23.1820
 1.6020	23.2550
 1.6030	23.3290
 1.6040	23.4030
 1.6050	23.4760
 1.6060	23.5470
 1.6070	23.6180
 1.6080	23.6890
 1.6090	23.7560
 1.6100	23.8240
 1.6110	23.8910
 1.6120	23.9570
 1.6130	24.0230
 1.6140	24.0870
 1.6150	24.1480
 1.6160	24.2080
 1.6170	24.2650
 1.6180	24.3210
 1.6190	24.3780
 1.6200	24.4330
 1.6210	24.4890
 1.6220	24.5440
 1.6230	24.5970
 1.6240	24.6520
 1.6250	24.7050
 1.6260	24.7590
 1.6270	24.8140
 1.6280	24.8690
 1.6290	24.9230
 1.6300	24.9770
 1.6310	25.0300
 1.6320	25.0830
 1.6330	25.1350
 1.6340	25.1860
 1.6350	25.2360
 1.6360	25.2860
 1.6370	25.3350
 1.6380	25.3840
 1.6390	25.4320
 1.6400	25.4790
 1.6410	25.5240
 1.6420	25.5680
 1.6430	25.6100
 1.6440	25.6530
 1.6450	25.6910
 1.6460	25.7270
 1.6470	25.7610
 1.6480	25.7920
 1.6490	25.8220
 1.6500	25.8490
 1.6510	25.8740
 1.6520	25.8960
 1.6530	25.9150
 1.6540	25.9330
 1.6550	25.9480
 1.6560	25.9600
 1.6570	25.9700
 1.6580	25.9770
 1.6590	25.9810
 1.6600	25.9850
 1.6610	25.9880
 1.6620	25.9870
 1.6630	25.9860
 1.6640	25.9820
 1.6650	25.9740
 1.6660	25.9660
 1.6670	25.9560
 1.6680	25.9440
 1.6690	25.9320
 1.6700	25.9190
 1.6710	25.9040
 1.6720	25.8850
 1.6730	25.8650
 1.6740	25.8420
 1.6750	25.8180
 1.6760	25.7910
 1.6770	25.7630
 1.6780	25.7320
 1.6790	25.6980
 1.6800	25.6620
 1.6810	25.6240
 1.6820	25.5830
 1.6830	25.5400
 1.6840	25.4960
 1.6850	25.4490
 1.6860	25.4000
 1.6870	25.3510
 1.6880	25.3010
 1.6890	25.2530
 1.6900	25.2060
 1.6910	25.1600
 1.6920	25.1150
 1.6930	25.0690
 1.6940	25.0250
 1.6950	24.9830
 1.6960	24.9400
 1.6970	24.8980
 1.6980	24.8530
 1.6990	24.8060
 1.7000	24.7590
 1.7010	24.7120
 1.7020	24.6630
 1.7030	24.6160
 1.7040	24.5660
 1.7050	24.5150
 1.7060	24.4650
 1.7070	24.4140
 1.7080	24.3630
 1.7090	24.3110
 1.7100	24.2590
 1.7110	24.2070
 1.7120	24.1560
 1.7130	24.1050
 1.7140	24.0540
 1.7150	24.0030
 1.7160	23.9520
 1.7170	23.9020
 1.7180	23.8520
 1.7190	23.8020
 1.7200	23.7540
 1.7210	23.7050
 1.7220	23.6570
 1.7230	23.6100
 1.7240	23.5640
 1.7250	23.5160
 1.7260	23.4680
 1.7270	23.4210
 1.7280	23.3740
 1.7290	23.3280
 1.7300	23.2850
 1.7310	23.2410
 1.7320	23.2000
 1.7330	23.1560
 1.7340	23.1140
 1.7350	23.0690
 1.7360	23.0230
 1.7370	22.9730
 1.7380	22.9220
 1.7390	22.8680
 1.7400	22.8120
 1.7410	22.7540
 1.7420	22.6930
 1.7430	22.6310
 1.7440	22.5650
 1.7450	22.4990
 1.7460	22.4300
 1.7470	22.3620
 1.7480	22.2940
 1.7490	22.2250
 1.7500	22.1550
 1.7510	22.0870
 1.7520	22.0180
 1.7530	21.9500
 1.7540	21.8830
 1.7550	21.8160
 1.7560	21.7490
 1.7570	21.6840
 1.7580	21.6210
 1.7590	21.5600
 1.7600	21.4980
 1.7610	21.4380
 1.7620	21.3800
 1.7630	21.3210
 1.7640	21.2650
 1.7650	21.2110
 1.7660	21.1580
 1.7670	21.1080
 1.7680	21.0600
 1.7690	21.0150
 1.7700	20.9710
 1.7710	20.9300
 1.7720	20.8890
 1.7730	20.8480
 1.7740	20.8110
 1.7750	20.7750
 1.7760	20.7430
 1.7770	20.7140
 1.7780	20.6850
 1.7790	20.6580
 1.7800	20.6340
 1.7810	20.6100
 1.7820	20.5900
 1.7830	20.5730
 1.7840	20.5590
 1.7850	20.5470
 1.7860	20.5370
 1.7870	20.5300
 1.7880	20.5210
 1.7890	20.5150
 1.7900	20.5100
 1.7910	20.5090
 1.7920	20.5110
 1.7930	20.5140
 1.7940	20.5190
 1.7950	20.5240
 1.7960	20.5290
 1.7970	20.5360
 1.7980	20.5430
 1.7990	20.5520
 1.8000	20.5620
 1.8010	20.5720
 1.8020	20.5830
 1.8030	20.5930
 1.8040	20.6020
 1.8050	20.6130
 1.8060	20.6220
 1.8070	20.6330
 1.8080	20.6460
 1.8090	20.6570
 1.8100	20.6660
 1.8110	20.6760
 1.8120	20.6840
 1.8130	20.6920
 1.8140	20.6980
 1.8150	20.7040
 1.8160	20.7070
 1.8170	20.7100
 1.8180	20.7130
 1.8190	20.7160
 1.8200	20.7180
 1.8210	20.7210
 1.8220	20.7220
 1.8230	20.7220
 1.8240	20.7200
 1.8250	20.7160
 1.8260	20.7100
 1.8270	20.7010
 1.8280	20.6910
 1.8290	20.6780
 1.8300	20.6640
 1.8310	19.7560
 1.8320	19.7290
 1.8330	19.6990
 1.8340	19.6660
 1.8350	19.6290
 1.8360	19.5860
 1.8370	19.5380
 1.8380	19.4860
 1.8390	19.4290
 1.8400	19.3670
 1.8410	19.3010
 1.8420	19.2300
 1.8430	19.1510
 1.8440	19.0650
 1.8450	18.9710
 1.8460	18.8690
 1.8470	18.7580
 1.8480	18.6360
 1.8490	18.5040
 1.8500	18.3640
 1.8510	18.2130
 1.8520	18.0530
 1.8530	17.8800
 1.8540	17.6990
 1.8550	17.5070
 1.8560	17.2980
 1.8570	17.0790
 1.8580	16.8490
 1.8590	16.6080
 1.8600	16.3530
 1.8610	16.0900
 1.8620	15.8160
 1.8630	15.5310
 1.8640	15.2350
 1.8650	14.9230
 1.8660	14.6030
 1.8670	14.2700
 1.8680	13.9230
 1.8690	13.5710
 1.8700	13.2100
 1.8710	12.8400
 1.8720	12.4680
 1.8730	12.0940
 1.8740	11.7170
 1.8750	11.3450
 1.8760	10.9750
 1.8770	10.6120
 1.8780	10.2630
 1.8790	 9.9230
 1.8800	 9.5960
 1.8810	 9.2820
 1.8820	 8.9800
 1.8830	 8.6850
 1.8840	 8.4050
 1.8850	 8.1400
 1.8860	 7.8880
 1.8870	 7.6530
 1.8880	 7.4340
 1.8890	 7.2340
 1.8900	 7.0500
 1.8910	 6.8830
 1.8920	 6.7330
 1.8930	 6.6010
 1.8940	 6.4800
 1.8950	 6.3720
 1.8960	 6.2740
 1.8970	 6.1870
 1.8980	 6.1130
 1.8990	 6.0500
 1.9000	 5.9920
 1.9010	 5.9460
 1.9020	 5.9030
 1.9030	 5.8660
 1.9040	 5.8350
 1.9050	 5.8070
 1.9060	 5.7820
 1.9070	 5.7620
 1.9080	 5.7450
 1.9090	 5.7310
 1.9100	 5.7200
 1.9110	 5.7100
 1.9120	 5.7030
 1.9130	 5.6960
 1.9140	 5.6920
 1.9150	 5.6890
 1.9160	 5.6840
 1.9170	 5.6800
 1.9180	 5.6750
 1.9190	 5.6700
 1.9200	 5.6660
 1.9210	 5.6640
 1.9220	 5.6630
 1.9230	 5.6640
 1.9240	 5.6640
 1.9250	 5.6640
 1.9260	 5.6630
 1.9270	 5.6630
 1.9280	 5.6620
 1.9290	 5.6600
 1.9300	 5.6610
 1.9310	 5.6600
 1.9320	 5.6600
 1.9330	 5.6610
 1.9340	 5.6620
 1.9350	 5.6640
 1.9360	 5.6660
 1.9370	 5.6690
 1.9380	 5.6710
 1.9390	 5.6750
 1.9400	 5.6790
 1.9410	 5.6860
 1.9420	 5.6920
 1.9430	 5.6960
 1.9440	 5.7010
 1.9450	 5.7060
 1.9460	 5.7110
 1.9470	 5.7170
 1.9480	 5.7240
 1.9490	 5.7310
 1.9500	 5.7370
 1.9510	 5.7430
 1.9520	 5.7480
 1.9530	 5.7540
 1.9540	 5.7600
 1.9550	 5.7680
 1.9560	 5.7770
 1.9570	 5.7850
 1.9580	 5.7930
 1.9590	 5.8000
 1.9600	 5.8050
 1.9610	 5.8120
 1.9620	 5.8210
 1.9630	 5.8300
 1.9640	 5.8390
 1.9650	 5.8490
 1.9660	 5.8580
 1.9670	 5.8670
 1.9680	 5.8780
 1.9690	 5.8900
 1.9700	 5.9010
 1.9710	 5.9130
 1.9720	 5.9250
 1.9730	 5.9360
 1.9740	 5.9480
 1.9750	 5.9630
 1.9760	 5.9770
 1.9770	 5.9910
 1.9780	 6.0090
 1.9790	 6.0270
 1.9800	 6.0440
 1.9810	 6.0620
 1.9820	 6.0800
 1.9830	 6.0980
 1.9840	 6.1160
 1.9850	 6.1340
 1.9860	 6.1500
 1.9870	 6.1680
 1.9880	 6.1870
 1.9890	 6.2040
 1.9900	 6.2220
 1.9910	 6.2410
 1.9920	 6.2600
 1.9930	 6.2800
 1.9940	 6.3000
 1.9950	 6.3200
 1.9960	 6.3410
 1.9970	 6.3630
 1.9980	 6.3860
 1.9990	 6.4100
 2.0000	 6.4340
 2.0010	 6.4570
 2.0020	 6.4810
 2.0030	 6.5040
 2.0040	 6.5290
 2.0050	 6.5530
 2.0060	 6.5770
 2.0070	 6.6020
 2.0080	 6.6270
 2.0090	 6.6520
 2.0100	 6.6770
 2.0110	 6.7020
 2.0120	 6.7250
 2.0130	 6.7500
 2.0140	 6.7780
 2.0150	 6.8030
 2.0160	 6.8310
 2.0170	 6.8600
 2.0180	 6.8860
 2.0190	 6.9110
 2.0200	 6.9370
 2.0210	 6.9630
 2.0220	 6.9890
 2.0230	 7.0170
 2.0240	 7.0430
 2.0250	 7.0680
 2.0260	 7.0940
 2.0270	 7.1190
 2.0280	 7.1450
 2.0290	 7.1690
 2.0300	 7.1950
 2.0310	 7.2210
 2.0320	 7.2460
 2.0330	 7.2710
 2.0340	 7.2970
 2.0350	 7.3210
 2.0360	 7.3440
 2.0370	 7.3680
 2.0380	 7.3910
 2.0390	 7.4150
 2.0400	 7.4380
 2.0410	 7.4620
 2.0420	 7.4870
 2.0430	 7.5110
 2.0440	 7.5340
 2.0450	 7.5580
 2.0460	 7.5810
 2.0470	 7.6040
 2.0480	 7.6270
 2.0490	 7.6520
 2.0500	 7.6760
 2.0510	 7.7010
 2.0520	 7.7260
 2.0530	 7.7500
 2.0540	 7.7740
 2.0550	 7.7950
 2.0560	 7.8170
 2.0570	 7.8430
 2.0580	 7.8690
 2.0590	 7.8950
 2.0600	 7.9230
 2.0610	 7.9480
 2.0620	 7.9690
 2.0630	 7.9930
 2.0640	 8.0160
 2.0650	 8.0410
 2.0660	 8.0680
 2.0670	 8.0940
 2.0680	 8.1200
 2.0690	 8.1460
 2.0700	 8.1720
 2.0710	 8.1980
 2.0720	 8.2250
 2.0730	 8.2510
 2.0740	 8.2780
 2.0750	 8.3040
 2.0760	 8.3310
 2.0770	 8.3580
 2.0780	 8.3850
 2.0790	 8.4130
 2.0800	 8.4410
 2.0810	 8.4690
 2.0820	 8.4960
 2.0830	 8.5230
 2.0840	 8.5490
 2.0850	 8.5730
 2.0860	 8.5980
 2.0870	 8.6220
 2.0880	 8.6480
 2.0890	 8.6750
 2.0900	 8.7030
 2.0910	 8.7310
 2.0920	 8.7600
 2.0930	 8.7880
 2.0940	 8.8140
 2.0950	 8.8420
 2.0960	 8.8700
 2.0970	 8.8980
 2.0980	 8.9260
 2.0990	 8.9550
 2.1000	 8.9820
 2.1010	 9.0110
 2.1020	 9.0390
 2.1030	 9.0680
 2.1040	 9.0980
 2.1050	 9.1280
 2.1060	 9.1570
 2.1070	 9.1850
 2.1080	 9.2160
 2.1090	 9.2490
 2.1100	 9.2800
 2.1110	 9.3140
 2.1120	 9.3440
 2.1130	 9.3700
 2.1140	 9.4000
 2.1150	 9.4310
 2.1160	 9.4600
 2.1170	 9.4910
 2.1180	 9.5200
 2.1190	 9.5480
 2.1200	 9.5770
 2.1210	 9.6050
 2.1220	 9.6340
 2.1230	 9.6650
 2.1240	 9.6960
 2.1250	 9.7270
 2.1260	 9.7600
 2.1270	 9.7910
 2.1280	 9.8230
 2.1290	 9.8530
 2.1300	 9.8820
 2.1310	 9.9100
 2.1320	 9.9360
 2.1330	 9.9640
 2.1340	 9.9940
 2.1350	10.0220
 2.1360	10.0500
 2.1370	10.0770
 2.1380	10.1010
 2.1390	10.1260
 2.1400	10.1520
 2.1410	10.1760
 2.1420	10.2010
 2.1430	10.2260
 2.1440	10.2510
 2.1450	10.2780
 2.1460	10.3010
 2.1470	10.3260
 2.1480	10.3480
 2.1490	10.3660
 2.1500	10.3880
 2.1510	10.4100
 2.1520	10.4320
 2.1530	10.4540
 2.1540	10.4760
 2.1550	10.4960
 2.1560	10.5170
 2.1570	10.5380
 2.1580	10.5600
 2.1590	10.5820
 2.1600	10.6030
 2.1610	10.6220
 2.1620	10.6420
 2.1630	10.6600
 2.1640	10.6760
 2.1650	10.6920
 2.1660	10.7070
 2.1670	10.7220
 2.1680	10.7350
 2.1690	10.7520
 2.1700	10.7710
 2.1710	10.7890
 2.1720	10.8100
 2.1730	10.8290
 2.1740	10.8480
 2.1750	10.8660
 2.1760	10.8810
 2.1770	10.8990
 2.1780	10.9190
 2.1790	10.9370
 2.1800	10.9570
 2.1810	10.9760
 2.1820	10.9950
 2.1830	11.0130
 2.1840	11.0320
 2.1850	11.0520
 2.1860	11.0710
 2.1870	11.0890
 2.1880	11.1070
 2.1890	11.1250
 2.1900	11.1440
 2.1910	11.1630
 2.1920	11.1820
 2.1930	11.2020
 2.1940	11.2210
 2.1950	11.2380
 2.1960	11.2540
 2.1970	11.2700
 2.1980	11.2840
 2.1990	11.2960
 2.2000	11.3080
 2.2010	11.3210
 2.2020	11.3330
 2.2030	11.3430
 2.2040	11.3540
 2.2050	11.3640
 2.2060	11.3720
 2.2070	11.3830
 2.2080	11.3960
 2.2090	11.4050
 2.2100	11.4120
 2.2110	11.4180
 2.2120	11.4190
 2.2130	11.4240
 2.2140	11.4300
 2.2150	11.4340
 2.2160	11.4380
 2.2170	11.4390
 2.2180	11.4370
 2.2190	11.4350
 2.2200	11.4310
 2.2210	11.4280
 2.2220	11.4270
 2.2230	11.4200
 2.2240	11.4130
 2.2250	11.4020
 2.2260	11.3850
 2.2270	11.3690
 2.2280	11.3510
 2.2290	11.3320
 2.2300	11.3110
 2.2310	11.2890
 2.2320	11.2630
 2.2330	11.2380
 2.2340	11.2120
 2.2350	11.1860
 2.2360	11.1580
 2.2370	11.1290
 2.2380	11.0990
 2.2390	11.0670
 2.2400	11.0330
 2.2410	10.9990
 2.2420	10.9620
 2.2430	10.9240
 2.2440	10.8840
 2.2450	10.8410
 2.2460	10.7990
 2.2470	10.7540
 2.2480	10.7090
 2.2490	10.6650
 2.2500	10.6190
 2.2510	10.5730
 2.2520	10.5270
 2.2530	10.4800
 2.2540	10.4340
 2.2550	10.3920
 2.2560	10.3460
 2.2570	10.2990
 2.2580	10.2530
 2.2590	10.2020
 2.2600	10.1540
 2.2610	10.1090
 2.2620	10.0650
 2.2630	10.0240
 2.2640	 9.9860
 2.2650	 9.9480
 2.2660	 9.9080
 2.2670	 9.8690
 2.2680	 9.8250
 2.2690	 9.7880
 2.2700	 9.7550
 2.2710	 9.7190
 2.2720	 9.6850
 2.2730	 9.6510
 2.2740	 9.6150
 2.2750	 9.5830
 2.2760	 9.5570
 2.2770	 9.5280
 2.2780	 9.4970
 2.2790	 9.4700
 2.2800	 9.4420
 2.2810	 9.4170
 2.2820	 9.3980
 2.2830	 9.3750
 2.2840	 9.3510
 2.2850	 9.3280
 2.2860	 9.3050
 2.2870	 9.2810
 2.2880	 9.2580
 2.2890	 9.2340
 2.2900	 9.2070
 2.2910	 9.1820
 2.2920	 9.1620
 2.2930	 9.1370
 2.2940	 9.1100
 2.2950	 9.0830
 2.2960	 9.0520
 2.2970	 9.0230
 2.2980	 8.9950
 2.2990	 8.9690
 2.3000	 8.9440
 2.3010	 8.9180
 2.3020	 8.8930
 2.3030	 8.8690
 2.3040	 8.8470
 2.3050	 8.8230
 2.3060	 8.8000
 2.3070	 8.7770
 2.3080	 8.7490
 2.3090	 8.7260
 2.3100	 8.7060
 2.3110	 8.6870
 2.3120	 8.6690
 2.3130	 8.6550
 2.3140	 8.6380
 2.3150	 8.6200
 2.3160	 8.6050
 2.3170	 8.5930
 2.3180	 8.5780
 2.3190	 8.5640
 2.3200	 8.5500
 2.3210	 8.5340
 2.3220	 8.5180
 2.3230	 8.5040
 2.3240	 8.4900
 2.3250	 8.4770
 2.3260	 8.4610
 2.3270	 8.4440
 2.3280	 8.4260
 2.3290	 8.4060
 2.3300	 8.3850
 2.3310	 8.3650
 2.3320	 8.3440
 2.3330	 8.3150
 2.3340	 8.2930
 2.3350	 8.2750
 2.3360	 8.2550
 2.3370	 8.2380
 2.3380	 8.2180
 2.3390	 8.1960
 2.3400	 8.1730
 2.3410	 8.1470
 2.3420	 8.1260
 2.3430	 8.1040
 2.3440	 8.0840
 2.3450	 8.0690
 2.3460	 8.0490
 2.3470	 8.0250
 2.3480	 8.0030
 2.3490	 7.9780
 2.3500	 7.9580
 2.3510	 7.9420
 2.3520	 7.9260
 2.3530	 7.9110
 2.3540	 7.9000
 2.3550	 7.8850
 2.3560	 7.8680
 2.3570	 7.8520
 2.3580	 7.8370
 2.3590	 7.8260
 2.3600	 7.8160
 2.3610	 7.8050
 2.3620	 7.7910
 2.3630	 7.7700
 2.3640	 7.7460
 2.3650	 7.7230
 2.3660	 7.7000
 2.3670	 7.6890
 2.3680	 7.6840
 2.3690	 7.6750
 2.3700	 7.6650
 2.3710	 7.6470
 2.3720	 7.6240
 2.3730	 7.6060
 2.3740	 7.5920
 2.3750	 7.5800
 2.3760	 7.5690
 2.3770	 7.5560
 2.3780	 7.5380
 2.3790	 7.5150
 2.3800	 7.4940
 2.3810	 7.4710
 2.3820	 7.4510
 2.3830	 7.4350
 2.3840	 7.4210
 2.3850	 7.4050
 2.3860	 7.3860
 2.3870	 7.3750
 2.3880	 7.3600
 2.3890	 7.3420
 2.3900	 7.3260
 2.3910	 7.3050
 2.3920	 7.2780
 2.3930	 7.2570
 2.3940	 7.2420
 2.3950	 7.2240
 2.3960	 7.2080
 2.3970	 7.1990
 2.3980	 7.1860
 2.3990	 7.1730
 2.4000	 7.1610
 2.4010	 7.1390
 2.4020	 7.1130
 2.4030	 7.0920
 2.4040	 7.0700
 2.4050	 7.0520
 2.4060	 7.0410
 2.4070	 7.0250
 2.4080	 7.0100
 2.4090	 6.9890
 2.4100	 6.9590
 2.4110	 6.9420
 2.4120	 6.9300
 2.4130	 6.9190
 2.4140	 6.9150
 2.4150	 6.9070
 2.4160	 6.8960
 2.4170	 6.8960
 2.4180	 6.8920
 2.4190	 6.8750
 2.4200	 6.8550
 2.4210	 6.8210
 2.4220	 6.7950
 2.4230	 6.7780
 2.4240	 6.7560
 2.4250	 6.7490
 2.4260	 6.7380
 2.4270	 6.7200
 2.4280	 6.7090
 2.4290	 6.7000
 2.4300	 6.6880
 2.4310	 6.6740
 2.4320	 6.6530
 2.4330	 6.6290
 2.4340	 6.6150
 2.4350	 6.6030
 2.4360	 6.5970
 2.4370	 6.5890
 2.4380	 6.5700
 2.4390	 6.5590
 2.4400	 6.5440
 2.4410	 6.5310
 2.4420	 6.5270
 2.4430	 6.5170
 2.4440	 6.5080
 2.4450	 6.5030
 2.4460	 6.4870
 2.4470	 6.4750
 2.4480	 6.4630
 2.4490	 6.4450
 2.4500	 6.4360
 2.4510	 6.4240
 2.4520	 6.4230
 2.4530	 6.4250
 2.4540	 6.4080
 2.4550	 6.3980
 2.4560	 6.3860
 2.4570	 6.3630
 2.4580	 6.3480
 2.4590	 6.3350
 2.4600	 6.3160
 2.4610	 6.3050
 2.4620	 6.3160
 2.4630	 6.3300
 2.4640	 6.3270
 2.4650	 6.3160
 2.4660	 6.3000
 2.4670	 6.2770
 2.4680	 6.2670
 2.4690	 6.2880
 2.4700	 6.2890
 2.4710	 6.2760
 2.4720	 6.2680
 2.4730	 6.2590
 2.4740	 6.2390
 2.4750	 6.2140
 2.4760	 6.2020
 2.4770	 6.1780
 2.4780	 6.1690
 2.4790	 6.1850
 2.4800	 6.1790
 2.4810	 6.1730
 2.4820	 6.1730
 2.4830	 6.1620
 2.4840	 6.1650
 2.4850	 6.1680
 2.4860	 6.1730
 2.4870	 6.1950
 2.4880	 6.1950
 2.4890	 6.1890
 2.4900	 6.2020
 2.4910	 6.1900
 2.4920	 6.1950
 2.4930	 6.2250
 2.4940	 6.2060
 2.4950	 6.1870
 2.4960	 6.1750
 2.4970	 6.1400
 2.4980	 6.1600
 2.4990	 6.2050
 2.5000	 6.2200
