Name: Adenostoma fasciculatum 3
Type: vegetation
Class: Shrub
Genus: Adenostoma
Species: fasciculatum
Sample No.: VH043
Owner: UCSB
Wavelength Range: TIR
Origin: 34.5084; -119.7686; WGS84
Collection Date: 4/1/2013
Description: Samples were collected as part of the HyspIRI Airborne Campaign. 48 individual plants were sampled in three times in 2013 - spring  summer  and fall. The name of the sample includes a 1  2  or 3 which references a different individual of the species. Samples were taken to JPL and processed within 48 hours of collection. The same leaves were processed in the Nicolet and then measured using the ASD.
Measurement: Hemispherical reflectance
First Column: X
Second Column: Y
X Units: Wavelength (micrometers)
Y Units: Reflectance (percentage)
First X Value: 2.501
Last X Value: 15.387
Number of X Values: 1737
Additional Information: vegetation.shrub.adenostoma.fasciculatum.tir.vh043.ucsb.nicolet.ancillary.txt

 2.5010	 8.0420
 2.5030	 7.9120
 2.5040	 7.8460
 2.5050	 7.7590
 2.5060	 7.7820
 2.5070	 7.8670
 2.5090	 7.9730
 2.5100	 7.9180
 2.5110	 7.8780
 2.5120	 7.7860
 2.5140	 7.8290
 2.5150	 7.8820
 2.5160	 7.8520
 2.5170	 7.7980
 2.5180	 7.8830
 2.5200	 7.9300
 2.5210	 8.0330
 2.5220	 7.9610
 2.5230	 7.9200
 2.5250	 7.8300
 2.5260	 7.7630
 2.5270	 7.6990
 2.5280	 7.7470
 2.5290	 7.8220
 2.5310	 7.8940
 2.5320	 7.9170
 2.5330	 7.8720
 2.5340	 7.7670
 2.5360	 7.8730
 2.5370	 7.8830
 2.5380	 7.9310
 2.5390	 7.9820
 2.5410	 7.9540
 2.5420	 7.8020
 2.5430	 7.8030
 2.5440	 7.8070
 2.5460	 7.8840
 2.5470	 7.9010
 2.5480	 7.9730
 2.5490	 7.8670
 2.5510	 7.8920
 2.5520	 7.8760
 2.5530	 7.8510
 2.5540	 7.9430
 2.5560	 8.0030
 2.5570	 7.9580
 2.5580	 7.9990
 2.5590	 7.9400
 2.5610	 7.9480
 2.5620	 7.9820
 2.5630	 7.9410
 2.5640	 7.8310
 2.5660	 7.8500
 2.5670	 7.8290
 2.5680	 7.8830
 2.5700	 7.9480
 2.5710	 8.0090
 2.5720	 8.0160
 2.5730	 8.0040
 2.5750	 7.8850
 2.5760	 7.9030
 2.5770	 7.8740
 2.5790	 7.9090
 2.5800	 7.9870
 2.5810	 8.0100
 2.5820	 7.8920
 2.5840	 7.9740
 2.5850	 7.9260
 2.5860	 7.8670
 2.5880	 7.8390
 2.5890	 7.8340
 2.5900	 7.7810
 2.5910	 7.8640
 2.5930	 7.9090
 2.5940	 7.9390
 2.5950	 7.8430
 2.5970	 7.7920
 2.5980	 7.8500
 2.5990	 7.9920
 2.6000	 7.9890
 2.6020	 7.9080
 2.6030	 7.8540
 2.6040	 7.8970
 2.6060	 7.7870
 2.6070	 7.7690
 2.6080	 7.8160
 2.6100	 7.8840
 2.6110	 7.8420
 2.6120	 7.8420
 2.6140	 7.7610
 2.6150	 7.7900
 2.6160	 7.7830
 2.6180	 7.7330
 2.6190	 7.6260
 2.6200	 7.6100
 2.6220	 7.5950
 2.6230	 7.6310
 2.6240	 7.5920
 2.6260	 7.5980
 2.6270	 7.4720
 2.6280	 7.5050
 2.6300	 7.5630
 2.6310	 7.4720
 2.6320	 7.3440
 2.6340	 7.3530
 2.6350	 7.2810
 2.6360	 7.3450
 2.6380	 7.4010
 2.6390	 7.5090
 2.6400	 7.4700
 2.6420	 7.4470
 2.6430	 7.3170
 2.6440	 7.2520
 2.6460	 7.2460
 2.6470	 7.3180
 2.6480	 7.2700
 2.6500	 7.2530
 2.6510	 7.1940
 2.6520	 7.2330
 2.6540	 7.2290
 2.6550	 7.2280
 2.6560	 7.1500
 2.6580	 7.1570
 2.6590	 7.0940
 2.6610	 7.1210
 2.6620	 7.0490
 2.6630	 7.0590
 2.6650	 7.0470
 2.6660	 7.0360
 2.6670	 6.9450
 2.6690	 6.8610
 2.6700	 6.7740
 2.6720	 6.8590
 2.6730	 6.9280
 2.6740	 6.9350
 2.6760	 6.8000
 2.6770	 6.7770
 2.6780	 6.8130
 2.6800	 6.8580
 2.6810	 6.8020
 2.6830	 6.7160
 2.6840	 6.6540
 2.6850	 6.6270
 2.6870	 6.5500
 2.6880	 6.5240
 2.6900	 6.4980
 2.6910	 6.5600
 2.6920	 6.5750
 2.6940	 6.6420
 2.6950	 6.5600
 2.6970	 6.5960
 2.6980	 6.5830
 2.6990	 6.5460
 2.7010	 6.4880
 2.7020	 6.4530
 2.7040	 6.4700
 2.7050	 6.4450
 2.7060	 6.3140
 2.7080	 6.3960
 2.7090	 6.3710
 2.7110	 6.4270
 2.7120	 6.3660
 2.7130	 6.3050
 2.7150	 6.1780
 2.7160	 6.2230
 2.7180	 6.2100
 2.7190	 6.1940
 2.7210	 6.0270
 2.7220	 6.0300
 2.7230	 6.0880
 2.7250	 6.0610
 2.7260	 6.0140
 2.7280	 6.0650
 2.7290	 6.0890
 2.7310	 6.1110
 2.7320	 5.9600
 2.7330	 5.9330
 2.7350	 5.9900
 2.7360	 6.0520
 2.7380	 5.9900
 2.7390	 5.9940
 2.7410	 5.8720
 2.7420	 5.8250
 2.7440	 5.9170
 2.7450	 6.0990
 2.7470	 6.0250
 2.7480	 5.9250
 2.7490	 5.8560
 2.7510	 5.9640
 2.7520	 5.9410
 2.7540	 6.0380
 2.7550	 6.0760
 2.7570	 5.8520
 2.7580	 5.8060
 2.7600	 5.8340
 2.7610	 5.7240
 2.7630	 5.8350
 2.7640	 5.8330
 2.7660	 5.8830
 2.7670	 5.9540
 2.7680	 5.9840
 2.7700	 5.8910
 2.7710	 5.8670
 2.7730	 5.7520
 2.7740	 5.8040
 2.7760	 5.9340
 2.7770	 6.0390
 2.7790	 5.9820
 2.7800	 5.9510
 2.7820	 5.8770
 2.7830	 5.6920
 2.7850	 5.6590
 2.7860	 5.8760
 2.7880	 5.9630
 2.7890	 5.9230
 2.7910	 5.8450
 2.7920	 5.9150
 2.7940	 5.9070
 2.7950	 5.8960
 2.7970	 5.8820
 2.7980	 5.9510
 2.8000	 5.8940
 2.8010	 5.8940
 2.8030	 5.8080
 2.8040	 5.7570
 2.8060	 5.7700
 2.8070	 5.9450
 2.8090	 5.8680
 2.8110	 5.7780
 2.8120	 5.7680
 2.8140	 5.8120
 2.8150	 5.8130
 2.8170	 5.8360
 2.8180	 5.8610
 2.8200	 5.8490
 2.8210	 5.7950
 2.8230	 5.9100
 2.8240	 5.8650
 2.8260	 5.8550
 2.8270	 5.7630
 2.8290	 5.8080
 2.8300	 5.8040
 2.8320	 5.8260
 2.8340	 5.6790
 2.8350	 5.6760
 2.8370	 5.7840
 2.8380	 5.9070
 2.8400	 5.8420
 2.8410	 5.7750
 2.8430	 5.7480
 2.8440	 5.8560
 2.8460	 5.8050
 2.8480	 5.8540
 2.8490	 5.8580
 2.8510	 5.8720
 2.8520	 5.8670
 2.8540	 5.8180
 2.8550	 5.7990
 2.8570	 5.8900
 2.8590	 5.8470
 2.8600	 5.9450
 2.8620	 5.9620
 2.8630	 5.9040
 2.8650	 5.7720
 2.8660	 5.8760
 2.8680	 5.9630
 2.8700	 5.9970
 2.8710	 5.9690
 2.8730	 5.9330
 2.8740	 5.7930
 2.8760	 5.8070
 2.8780	 5.8290
 2.8790	 5.9530
 2.8810	 6.0510
 2.8820	 6.1430
 2.8840	 6.0660
 2.8860	 5.9680
 2.8870	 5.8220
 2.8890	 5.8370
 2.8900	 5.8120
 2.8920	 5.8910
 2.8940	 5.8470
 2.8950	 5.8570
 2.8970	 5.8600
 2.8980	 5.9060
 2.9000	 5.8120
 2.9020	 5.8270
 2.9030	 5.7510
 2.9050	 5.8370
 2.9070	 5.9310
 2.9080	 5.9710
 2.9100	 5.9470
 2.9120	 5.9790
 2.9130	 5.9150
 2.9150	 5.8750
 2.9160	 5.8100
 2.9180	 5.8000
 2.9200	 5.8950
 2.9210	 6.0070
 2.9230	 5.9430
 2.9250	 5.9930
 2.9260	 5.9800
 2.9280	 6.0020
 2.9300	 5.9470
 2.9310	 5.9820
 2.9330	 5.9400
 2.9350	 5.9570
 2.9360	 5.8400
 2.9380	 5.8290
 2.9400	 5.9470
 2.9410	 6.1230
 2.9430	 6.0020
 2.9450	 5.8250
 2.9460	 5.8050
 2.9480	 5.9220
 2.9500	 5.9030
 2.9510	 5.8690
 2.9530	 5.8380
 2.9550	 5.9770
 2.9560	 6.0460
 2.9580	 6.0850
 2.9600	 5.8360
 2.9610	 5.5480
 2.9630	 5.5520
 2.9650	 5.7870
 2.9660	 5.9890
 2.9680	 6.1850
 2.9700	 6.1470
 2.9720	 5.8340
 2.9730	 5.9340
 2.9750	 6.0570
 2.9770	 5.9190
 2.9780	 5.9990
 2.9800	 6.7240
 2.9820	 6.7400
 2.9840	 5.9060
 2.9850	 5.7080
 2.9870	 5.8860
 2.9890	 5.8980
 2.9900	 5.9860
 2.9920	 6.4710
 2.9940	 6.0290
 2.9960	 5.2390
 2.9970	 5.5470
 2.9990	 5.6040
 3.0010	 5.1620
 3.0030	 5.4700
 3.0040	 5.7860
 3.0060	 5.9470
 3.0080	 6.0410
 3.0100	 6.0340
 3.0110	 5.8920
 3.0130	 5.6930
 3.0150	 5.6700
 3.0170	 5.7190
 3.0180	 5.5480
 3.0200	 5.4420
 3.0220	 5.3900
 3.0240	 5.9920
 3.0250	 6.4360
 3.0270	 6.5450
 3.0290	 6.3310
 3.0310	 6.3770
 3.0320	 6.4690
 3.0340	 6.2110
 3.0360	 6.0030
 3.0380	 5.7350
 3.0400	 5.6840
 3.0410	 5.9400
 3.0430	 5.9340
 3.0450	 6.3590
 3.0470	 6.4400
 3.0480	 6.4470
 3.0500	 6.4820
 3.0520	 5.6340
 3.0540	 5.6010
 3.0560	 6.0600
 3.0570	 6.1720
 3.0590	 5.9200
 3.0610	 5.7070
 3.0630	 6.0220
 3.0650	 6.1040
 3.0660	 6.0370
 3.0680	 5.8320
 3.0700	 5.7390
 3.0720	 6.0640
 3.0740	 6.3180
 3.0760	 6.1480
 3.0770	 5.9500
 3.0790	 5.7100
 3.0810	 5.7500
 3.0830	 5.8230
 3.0850	 6.0250
 3.0870	 6.0340
 3.0880	 6.0100
 3.0900	 5.7740
 3.0920	 5.7690
 3.0940	 5.9090
 3.0960	 6.2210
 3.0980	 6.2620
 3.0990	 6.0790
 3.1010	 5.9570
 3.1030	 6.0300
 3.1050	 6.0460
 3.1070	 6.0940
 3.1090	 6.0780
 3.1110	 5.9970
 3.1120	 5.8500
 3.1140	 5.9130
 3.1160	 5.9340
 3.1180	 5.9750
 3.1200	 5.9770
 3.1220	 6.0280
 3.1240	 6.0040
 3.1260	 6.0500
 3.1270	 5.9620
 3.1290	 5.9300
 3.1310	 6.0190
 3.1330	 6.0680
 3.1350	 5.8110
 3.1370	 5.6450
 3.1390	 5.7540
 3.1410	 5.9990
 3.1430	 6.0280
 3.1450	 5.8150
 3.1460	 5.7800
 3.1480	 5.9190
 3.1500	 6.0030
 3.1520	 5.9990
 3.1540	 6.0000
 3.1560	 6.3150
 3.1580	 6.0480
 3.1600	 5.7800
 3.1620	 6.0520
 3.1640	 5.9880
 3.1660	 5.8240
 3.1680	 6.1390
 3.1700	 6.0610
 3.1710	 5.9520
 3.1730	 6.0650
 3.1750	 5.6470
 3.1770	 5.5560
 3.1790	 6.0200
 3.1810	 6.2200
 3.1830	 6.0440
 3.1850	 5.8460
 3.1870	 5.9850
 3.1890	 5.9630
 3.1910	 5.8030
 3.1930	 5.7790
 3.1950	 6.0190
 3.1970	 6.1030
 3.1990	 5.9820
 3.2010	 5.9090
 3.2030	 5.9550
 3.2050	 5.8890
 3.2070	 5.9110
 3.2090	 5.9150
 3.2110	 5.9080
 3.2130	 5.8600
 3.2150	 5.9130
 3.2170	 5.9090
 3.2190	 5.9640
 3.2210	 5.9820
 3.2230	 5.9920
 3.2250	 5.9490
 3.2270	 5.9860
 3.2290	 6.0430
 3.2310	 6.0160
 3.2330	 5.9060
 3.2350	 5.9470
 3.2370	 6.1120
 3.2390	 6.1220
 3.2410	 6.0150
 3.2430	 6.0780
 3.2450	 5.8840
 3.2470	 5.8440
 3.2490	 6.0040
 3.2510	 6.1090
 3.2530	 6.0530
 3.2550	 5.9240
 3.2570	 5.8280
 3.2590	 5.8950
 3.2610	 5.9820
 3.2630	 5.9150
 3.2650	 5.8370
 3.2670	 5.9240
 3.2690	 5.9420
 3.2720	 5.9950
 3.2740	 5.9230
 3.2760	 5.9190
 3.2780	 5.9640
 3.2800	 5.9660
 3.2820	 5.8650
 3.2840	 5.8780
 3.2860	 5.8260
 3.2880	 5.8340
 3.2900	 5.8140
 3.2920	 5.8760
 3.2940	 5.8540
 3.2960	 5.8930
 3.2990	 5.9490
 3.3010	 5.9680
 3.3030	 5.8960
 3.3050	 5.9040
 3.3070	 5.9540
 3.3090	 5.9540
 3.3110	 5.8570
 3.3130	 5.8900
 3.3150	 5.8650
 3.3180	 5.8130
 3.3200	 5.8160
 3.3220	 5.7610
 3.3240	 5.7490
 3.3260	 5.8650
 3.3280	 5.8200
 3.3300	 5.8300
 3.3330	 5.8500
 3.3350	 5.8930
 3.3370	 5.9530
 3.3390	 5.9800
 3.3410	 5.8150
 3.3430	 5.8240
 3.3450	 5.7790
 3.3480	 5.7720
 3.3500	 5.7780
 3.3520	 5.8320
 3.3540	 5.7690
 3.3560	 5.8020
 3.3580	 5.7690
 3.3610	 5.7460
 3.3630	 5.7270
 3.3650	 5.8320
 3.3670	 5.8200
 3.3690	 5.7260
 3.3720	 5.7520
 3.3740	 5.9260
 3.3760	 5.9000
 3.3780	 5.8960
 3.3800	 5.8270
 3.3830	 5.8630
 3.3850	 5.8300
 3.3870	 5.7820
 3.3890	 5.8060
 3.3910	 5.8210
 3.3940	 5.7980
 3.3960	 5.8530
 3.3980	 5.8990
 3.4000	 5.8720
 3.4020	 5.7510
 3.4050	 5.7760
 3.4070	 5.8080
 3.4090	 5.9320
 3.4110	 5.9860
 3.4140	 6.1080
 3.4160	 6.2640
 3.4180	 6.3920
 3.4200	 6.3960
 3.4230	 6.5600
 3.4250	 6.8710
 3.4270	 7.1320
 3.4290	 7.1350
 3.4320	 7.0100
 3.4340	 6.7720
 3.4360	 6.5570
 3.4390	 6.3240
 3.4410	 6.2880
 3.4430	 6.2290
 3.4450	 6.2510
 3.4480	 6.2210
 3.4500	 6.2510
 3.4520	 6.1950
 3.4550	 6.1200
 3.4570	 6.2000
 3.4590	 6.2610
 3.4620	 6.2560
 3.4640	 6.2390
 3.4660	 6.0490
 3.4680	 6.0670
 3.4710	 6.1270
 3.4730	 6.0800
 3.4750	 5.9850
 3.4780	 6.0620
 3.4800	 6.1020
 3.4820	 6.1460
 3.4850	 6.1770
 3.4870	 6.1630
 3.4890	 6.0440
 3.4920	 6.0640
 3.4940	 6.0890
 3.4970	 6.0950
 3.4990	 6.0420
 3.5010	 6.1370
 3.5040	 6.2210
 3.5060	 6.4380
 3.5080	 6.7390
 3.5110	 6.9620
 3.5130	 6.8330
 3.5160	 6.6100
 3.5180	 6.4930
 3.5200	 6.4610
 3.5230	 6.2850
 3.5250	 6.2270
 3.5270	 6.2620
 3.5300	 6.2570
 3.5320	 6.1810
 3.5350	 6.1530
 3.5370	 6.1250
 3.5400	 6.1220
 3.5420	 6.0940
 3.5440	 6.1130
 3.5470	 6.1210
 3.5490	 6.1790
 3.5520	 6.1870
 3.5540	 6.1570
 3.5570	 6.1430
 3.5590	 6.1800
 3.5610	 6.1570
 3.5640	 6.1410
 3.5660	 6.1540
 3.5690	 6.1510
 3.5710	 6.0850
 3.5740	 6.1390
 3.5760	 6.1530
 3.5790	 6.1910
 3.5810	 6.1440
 3.5840	 6.1600
 3.5860	 6.1740
 3.5890	 6.2100
 3.5910	 6.1050
 3.5930	 6.1410
 3.5960	 6.3020
 3.5980	 6.2590
 3.6010	 6.1700
 3.6030	 6.3010
 3.6060	 6.3520
 3.6080	 6.2430
 3.6110	 6.1550
 3.6140	 6.1630
 3.6160	 6.0910
 3.6190	 6.1320
 3.6210	 6.1630
 3.6240	 6.1430
 3.6260	 6.1340
 3.6290	 6.2010
 3.6310	 6.1910
 3.6340	 6.1770
 3.6360	 6.1240
 3.6390	 6.1000
 3.6410	 6.1150
 3.6440	 6.1660
 3.6470	 6.1560
 3.6490	 6.1380
 3.6520	 6.1510
 3.6540	 6.1940
 3.6570	 6.1590
 3.6590	 6.1930
 3.6620	 6.2030
 3.6650	 6.1900
 3.6670	 6.1240
 3.6700	 6.0630
 3.6720	 6.0700
 3.6750	 6.1320
 3.6780	 6.1150
 3.6800	 6.1130
 3.6830	 6.1240
 3.6850	 6.1460
 3.6880	 6.1250
 3.6910	 6.1510
 3.6930	 6.1950
 3.6960	 6.1790
 3.6990	 6.0580
 3.7010	 6.0500
 3.7040	 6.1050
 3.7060	 6.1620
 3.7090	 6.1380
 3.7120	 6.1830
 3.7140	 6.2130
 3.7170	 6.2290
 3.7200	 6.2080
 3.7220	 6.2550
 3.7250	 6.2080
 3.7280	 6.1370
 3.7300	 6.1570
 3.7330	 6.2390
 3.7360	 6.2400
 3.7390	 6.2270
 3.7410	 6.1470
 3.7440	 6.1770
 3.7470	 6.2230
 3.7490	 6.2770
 3.7520	 6.1770
 3.7550	 6.0650
 3.7580	 6.0330
 3.7600	 6.1330
 3.7630	 6.1650
 3.7660	 6.1810
 3.7680	 6.1970
 3.7710	 6.1430
 3.7740	 6.0870
 3.7770	 6.1860
 3.7790	 6.2680
 3.7820	 6.2520
 3.7850	 6.2200
 3.7880	 6.2450
 3.7900	 6.2060
 3.7930	 6.1690
 3.7960	 6.1220
 3.7990	 6.1810
 3.8020	 6.1990
 3.8040	 6.1920
 3.8070	 6.2270
 3.8100	 6.2630
 3.8130	 6.2130
 3.8160	 6.2050
 3.8180	 6.2260
 3.8210	 6.2220
 3.8240	 6.1740
 3.8270	 6.1830
 3.8300	 6.1880
 3.8330	 6.2330
 3.8350	 6.2750
 3.8380	 6.3330
 3.8410	 6.3030
 3.8440	 6.3030
 3.8470	 6.2500
 3.8500	 6.2890
 3.8520	 6.3230
 3.8550	 6.2860
 3.8580	 6.2510
 3.8610	 6.2390
 3.8640	 6.2610
 3.8670	 6.2790
 3.8700	 6.2530
 3.8730	 6.2980
 3.8750	 6.2580
 3.8780	 6.2900
 3.8810	 6.3220
 3.8840	 6.2850
 3.8870	 6.1950
 3.8900	 6.2230
 3.8930	 6.1810
 3.8960	 6.1380
 3.8990	 6.1740
 3.9020	 6.2660
 3.9050	 6.2880
 3.9080	 6.3080
 3.9110	 6.2940
 3.9140	 6.2980
 3.9160	 6.2680
 3.9190	 6.2830
 3.9220	 6.3360
 3.9250	 6.3750
 3.9280	 6.3650
 3.9310	 6.3280
 3.9340	 6.2730
 3.9370	 6.3230
 3.9400	 6.3560
 3.9430	 6.3360
 3.9460	 6.2940
 3.9490	 6.3280
 3.9520	 6.3510
 3.9550	 6.3980
 3.9580	 6.4200
 3.9610	 6.4100
 3.9640	 6.3660
 3.9670	 6.3870
 3.9700	 6.3950
 3.9730	 6.3820
 3.9770	 6.3240
 3.9800	 6.2940
 3.9830	 6.3020
 3.9860	 6.3230
 3.9890	 6.3810
 3.9920	 6.4180
 3.9950	 6.4210
 3.9980	 6.4180
 4.0010	 6.3490
 4.0040	 6.3030
 4.0070	 6.3050
 4.0100	 6.3230
 4.0130	 6.3640
 4.0170	 6.4430
 4.0200	 6.3900
 4.0230	 6.3810
 4.0260	 6.3780
 4.0290	 6.3990
 4.0320	 6.3870
 4.0350	 6.3580
 4.0380	 6.3430
 4.0420	 6.3700
 4.0450	 6.3600
 4.0480	 6.3620
 4.0510	 6.3060
 4.0540	 6.3360
 4.0570	 6.3590
 4.0610	 6.3920
 4.0640	 6.3880
 4.0670	 6.4040
 4.0700	 6.4300
 4.0730	 6.4760
 4.0770	 6.4560
 4.0800	 6.4200
 4.0830	 6.4230
 4.0860	 6.4630
 4.0890	 6.4270
 4.0930	 6.3380
 4.0960	 6.3190
 4.0990	 6.3800
 4.1020	 6.3790
 4.1060	 6.3660
 4.1090	 6.3520
 4.1120	 6.3860
 4.1150	 6.4680
 4.1190	 6.5230
 4.1220	 6.4560
 4.1250	 6.3900
 4.1280	 6.3770
 4.1320	 6.4420
 4.1350	 6.4710
 4.1380	 6.4590
 4.1420	 6.4310
 4.1450	 6.4490
 4.1480	 6.4370
 4.1520	 6.4300
 4.1550	 6.3870
 4.1580	 6.3930
 4.1620	 6.3940
 4.1650	 6.3960
 4.1680	 6.3810
 4.1720	 6.4190
 4.1750	 6.4480
 4.1780	 6.4320
 4.1820	 6.4300
 4.1850	 6.5070
 4.1890	 6.4850
 4.1920	 6.4560
 4.1950	 6.4890
 4.1990	 6.6230
 4.2020	 6.6410
 4.2060	 6.5880
 4.2090	 6.6590
 4.2120	 6.8030
 4.2160	 6.9780
 4.2190	 7.0320
 4.2230	 6.9950
 4.2260	 7.1630
 4.2300	 7.1460
 4.2330	 7.2010
 4.2360	 7.2900
 4.2400	 7.1340
 4.2430	 7.0770
 4.2470	 7.0720
 4.2500	 6.9430
 4.2540	 6.9330
 4.2570	 6.9270
 4.2610	 6.9580
 4.2640	 7.1290
 4.2680	 7.2210
 4.2710	 7.1250
 4.2750	 7.1700
 4.2780	 6.9840
 4.2820	 6.8010
 4.2850	 6.8440
 4.2890	 6.8940
 4.2930	 6.9080
 4.2960	 6.8880
 4.3000	 6.8510
 4.3030	 6.8880
 4.3070	 6.7470
 4.3100	 6.6540
 4.3140	 6.6000
 4.3180	 6.6240
 4.3210	 6.4910
 4.3250	 6.4460
 4.3280	 6.4420
 4.3320	 6.5170
 4.3360	 6.5560
 4.3390	 6.5140
 4.3430	 6.4250
 4.3470	 6.3680
 4.3500	 6.4310
 4.3540	 6.4640
 4.3570	 6.4410
 4.3610	 6.3970
 4.3650	 6.3400
 4.3680	 6.3450
 4.3720	 6.2750
 4.3760	 6.2440
 4.3800	 6.2750
 4.3830	 6.2910
 4.3870	 6.2670
 4.3910	 6.2810
 4.3940	 6.3360
 4.3980	 6.3170
 4.4020	 6.2690
 4.4060	 6.2360
 4.4090	 6.2500
 4.4130	 6.2990
 4.4170	 6.3500
 4.4210	 6.3600
 4.4240	 6.3420
 4.4280	 6.3290
 4.4320	 6.2770
 4.4360	 6.2990
 4.4400	 6.2830
 4.4430	 6.2520
 4.4470	 6.2510
 4.4510	 6.1840
 4.4550	 6.1750
 4.4590	 6.2040
 4.4620	 6.1720
 4.4660	 6.1560
 4.4700	 6.1700
 4.4740	 6.2300
 4.4780	 6.2500
 4.4820	 6.1580
 4.4860	 6.1230
 4.4900	 6.1660
 4.4930	 6.2020
 4.4970	 6.1590
 4.5010	 6.1220
 4.5050	 6.1660
 4.5090	 6.2310
 4.5130	 6.1770
 4.5170	 6.1790
 4.5210	 6.1950
 4.5250	 6.1770
 4.5290	 6.1370
 4.5330	 6.1730
 4.5370	 6.1960
 4.5410	 6.2140
 4.5450	 6.1590
 4.5490	 6.0550
 4.5530	 6.0650
 4.5570	 6.1350
 4.5610	 6.2020
 4.5650	 6.1920
 4.5690	 6.1780
 4.5730	 6.1540
 4.5770	 6.1420
 4.5810	 6.1170
 4.5850	 6.0930
 4.5890	 6.1810
 4.5930	 6.1800
 4.5970	 6.1160
 4.6010	 6.1120
 4.6050	 6.1250
 4.6090	 6.1680
 4.6130	 6.1310
 4.6170	 6.1220
 4.6220	 6.1730
 4.6260	 6.1870
 4.6300	 6.1480
 4.6340	 6.1450
 4.6380	 6.1330
 4.6420	 6.0870
 4.6460	 6.0820
 4.6510	 6.0850
 4.6550	 6.1110
 4.6590	 6.1380
 4.6630	 6.1420
 4.6670	 6.1470
 4.6720	 6.1150
 4.6760	 6.0790
 4.6800	 6.1300
 4.6840	 6.1040
 4.6880	 6.1320
 4.6930	 6.1470
 4.6970	 6.1040
 4.7010	 6.1190
 4.7050	 6.0970
 4.7100	 6.0170
 4.7140	 6.0420
 4.7180	 6.1250
 4.7230	 6.1620
 4.7270	 6.1170
 4.7310	 6.0720
 4.7360	 6.0650
 4.7400	 6.0800
 4.7440	 6.1110
 4.7490	 6.1010
 4.7530	 6.0940
 4.7570	 6.1060
 4.7620	 6.1290
 4.7660	 6.1020
 4.7700	 6.1340
 4.7750	 6.1410
 4.7790	 6.1350
 4.7840	 6.1390
 4.7880	 6.1680
 4.7920	 6.1290
 4.7970	 6.0760
 4.8010	 6.1090
 4.8060	 6.0950
 4.8100	 6.0990
 4.8150	 6.1460
 4.8190	 6.1380
 4.8240	 6.0910
 4.8280	 6.1310
 4.8330	 6.1220
 4.8370	 6.1210
 4.8420	 6.1100
 4.8460	 6.1130
 4.8510	 6.0920
 4.8550	 6.0580
 4.8600	 6.0470
 4.8640	 6.0440
 4.8690	 6.0470
 4.8730	 6.0580
 4.8780	 6.0510
 4.8830	 6.0990
 4.8870	 6.1320
 4.8920	 6.1630
 4.8960	 6.1640
 4.9010	 6.1320
 4.9060	 6.0930
 4.9100	 6.0610
 4.9150	 6.0280
 4.9200	 6.0860
 4.9240	 6.1430
 4.9290	 6.1430
 4.9340	 6.0690
 4.9380	 6.0260
 4.9430	 6.0120
 4.9480	 6.0830
 4.9530	 6.1270
 4.9570	 6.0790
 4.9620	 6.0570
 4.9670	 6.0840
 4.9720	 6.1220
 4.9760	 6.1500
 4.9810	 6.1190
 4.9860	 6.0750
 4.9910	 6.0480
 4.9960	 6.0810
 5.0000	 6.1000
 5.0050	 6.1470
 5.0100	 6.1300
 5.0150	 6.0970
 5.0200	 6.0960
 5.0250	 6.1740
 5.0290	 6.2050
 5.0340	 6.1660
 5.0390	 6.1300
 5.0440	 6.1880
 5.0490	 6.1990
 5.0540	 6.1760
 5.0590	 6.1660
 5.0640	 6.1460
 5.0690	 6.1090
 5.0740	 6.1180
 5.0790	 6.1130
 5.0840	 6.1230
 5.0890	 6.1640
 5.0940	 6.2540
 5.0990	 6.2680
 5.1040	 6.2810
 5.1090	 6.2390
 5.1140	 6.2410
 5.1190	 6.2190
 5.1240	 6.1490
 5.1290	 6.1030
 5.1340	 6.1810
 5.1390	 6.2420
 5.1440	 6.2210
 5.1490	 6.2110
 5.1540	 6.2190
 5.1600	 6.1860
 5.1650	 6.1900
 5.1700	 6.1700
 5.1750	 6.1870
 5.1800	 6.2180
 5.1850	 6.2260
 5.1910	 6.2010
 5.1960	 6.2380
 5.2010	 6.2360
 5.2060	 6.2730
 5.2110	 6.2520
 5.2170	 6.1810
 5.2220	 6.1780
 5.2270	 6.2120
 5.2320	 6.1620
 5.2380	 6.2000
 5.2430	 6.1910
 5.2480	 6.1920
 5.2540	 6.1920
 5.2590	 6.2190
 5.2640	 6.2110
 5.2700	 6.2310
 5.2750	 6.2100
 5.2800	 6.2560
 5.2860	 6.1920
 5.2910	 6.1590
 5.2970	 6.1690
 5.3020	 6.1920
 5.3070	 6.1900
 5.3130	 6.2440
 5.3180	 6.2390
 5.3240	 6.2300
 5.3290	 6.1420
 5.3350	 6.0790
 5.3400	 6.0880
 5.3460	 6.1340
 5.3510	 6.1380
 5.3570	 6.1840
 5.3620	 6.1680
 5.3680	 6.1670
 5.3730	 6.1820
 5.3790	 6.1840
 5.3850	 6.1810
 5.3900	 6.2010
 5.3960	 6.1330
 5.4010	 6.1000
 5.4070	 6.1040
 5.4130	 6.1620
 5.4180	 6.1650
 5.4240	 6.1080
 5.4300	 6.0330
 5.4350	 6.0470
 5.4410	 6.0450
 5.4470	 6.0520
 5.4530	 6.0120
 5.4580	 6.0580
 5.4640	 6.0890
 5.4700	 6.0640
 5.4760	 6.0260
 5.4810	 6.0680
 5.4870	 6.0910
 5.4930	 6.1050
 5.4990	 6.0670
 5.5050	 5.9960
 5.5110	 5.9540
 5.5160	 5.9680
 5.5220	 5.9490
 5.5280	 5.9190
 5.5340	 5.8750
 5.5400	 5.8900
 5.5460	 5.9380
 5.5520	 5.9670
 5.5580	 5.8960
 5.5640	 5.8780
 5.5700	 5.8550
 5.5760	 5.8710
 5.5820	 5.8590
 5.5880	 5.8740
 5.5940	 5.8010
 5.6000	 5.7470
 5.6060	 5.7630
 5.6120	 5.8250
 5.6180	 5.8190
 5.6240	 5.7880
 5.6300	 5.7720
 5.6360	 5.7590
 5.6420	 5.7240
 5.6490	 5.7990
 5.6550	 5.7780
 5.6610	 5.7410
 5.6670	 5.6530
 5.6730	 5.6160
 5.6800	 5.6050
 5.6860	 5.6370
 5.6920	 5.6110
 5.6980	 5.5840
 5.7040	 5.5530
 5.7110	 5.5420
 5.7170	 5.5120
 5.7230	 5.4970
 5.7300	 5.4740
 5.7360	 5.5080
 5.7420	 5.5240
 5.7490	 5.5320
 5.7550	 5.5280
 5.7620	 5.5530
 5.7680	 5.5050
 5.7740	 5.6010
 5.7810	 5.6790
 5.7870	 5.7080
 5.7940	 5.7030
 5.8000	 5.7900
 5.8070	 5.7850
 5.8130	 5.7400
 5.8200	 5.6840
 5.8260	 5.7550
 5.8330	 5.8330
 5.8390	 5.8570
 5.8460	 5.8580
 5.8530	 5.8990
 5.8590	 5.9280
 5.8660	 5.9750
 5.8720	 5.9460
 5.8790	 5.9440
 5.8860	 5.9160
 5.8920	 5.9060
 5.8990	 5.7990
 5.9060	 5.8360
 5.9130	 5.8550
 5.9190	 5.9180
 5.9260	 5.9860
 5.9330	 6.1200
 5.9400	 6.1180
 5.9470	 6.1850
 5.9530	 6.1990
 5.9600	 6.2210
 5.9670	 6.1070
 5.9740	 6.1170
 5.9810	 6.0940
 5.9880	 6.0780
 5.9950	 6.0310
 6.0020	 6.1450
 6.0090	 6.1650
 6.0160	 6.1750
 6.0230	 6.1250
 6.0300	 6.1450
 6.0370	 6.1650
 6.0440	 6.2590
 6.0510	 6.2100
 6.0580	 6.1900
 6.0650	 6.1500
 6.0720	 6.1450
 6.0790	 6.1300
 6.0860	 6.1560
 6.0930	 6.1520
 6.1000	 6.2020
 6.1080	 6.1530
 6.1150	 6.1320
 6.1220	 6.1630
 6.1290	 6.2220
 6.1370	 6.1390
 6.1440	 6.0950
 6.1510	 6.1010
 6.1580	 6.2130
 6.1660	 6.2570
 6.1730	 6.2320
 6.1800	 6.0880
 6.1880	 6.1020
 6.1950	 6.0980
 6.2030	 6.1580
 6.2100	 6.1550
 6.2170	 6.1570
 6.2250	 6.1550
 6.2320	 6.2660
 6.2400	 6.2340
 6.2470	 6.2360
 6.2550	 6.1530
 6.2630	 6.0930
 6.2700	 6.0980
 6.2780	 6.1910
 6.2850	 6.1880
 6.2930	 6.1570
 6.3010	 6.0820
 6.3080	 6.1540
 6.3160	 6.0860
 6.3240	 6.1220
 6.3310	 6.1410
 6.3390	 6.1810
 6.3470	 6.0950
 6.3550	 6.0820
 6.3620	 6.0600
 6.3700	 6.0800
 6.3780	 6.0720
 6.3860	 6.1900
 6.3940	 6.1420
 6.4020	 6.0960
 6.4100	 6.0330
 6.4180	 6.0920
 6.4260	 6.1080
 6.4330	 6.1460
 6.4410	 6.0520
 6.4490	 6.0460
 6.4580	 6.0180
 6.4660	 6.0630
 6.4740	 5.9780
 6.4820	 5.9960
 6.4900	 5.9840
 6.4980	 6.0120
 6.5060	 5.9110
 6.5140	 5.8940
 6.5230	 5.8690
 6.5310	 5.9320
 6.5390	 5.9170
 6.5470	 5.9770
 6.5550	 5.9430
 6.5640	 5.9340
 6.5720	 5.8710
 6.5800	 5.9360
 6.5890	 5.9510
 6.5970	 5.9440
 6.6060	 5.8550
 6.6140	 5.9000
 6.6220	 5.8820
 6.6310	 5.8640
 6.6390	 5.8520
 6.6480	 5.9140
 6.6560	 5.8790
 6.6650	 5.9170
 6.6740	 5.9010
 6.6820	 5.8920
 6.6910	 5.8420
 6.6990	 5.8780
 6.7080	 5.8310
 6.7170	 5.8560
 6.7260	 5.8020
 6.7340	 5.8330
 6.7430	 5.7920
 6.7520	 5.8320
 6.7610	 5.8130
 6.7690	 5.8700
 6.7780	 5.8690
 6.7870	 5.9960
 6.7960	 5.9590
 6.8050	 5.9330
 6.8140	 5.8550
 6.8230	 5.8960
 6.8320	 5.8960
 6.8410	 5.9870
 6.8500	 5.9190
 6.8590	 5.9210
 6.8680	 5.8910
 6.8770	 5.9720
 6.8860	 5.9270
 6.8950	 5.9420
 6.9050	 5.8960
 6.9140	 5.9690
 6.9230	 5.9600
 6.9320	 5.9880
 6.9420	 5.9660
 6.9510	 6.0020
 6.9600	 5.8790
 6.9700	 5.8910
 6.9790	 5.9540
 6.9880	 6.1000
 6.9980	 6.0530
 7.0070	 6.0740
 7.0170	 6.0400
 7.0260	 6.0490
 7.0360	 5.9660
 7.0450	 5.9670
 7.0550	 5.8910
 7.0650	 6.0110
 7.0740	 6.0470
 7.0840	 6.0760
 7.0940	 6.0150
 7.1030	 6.0360
 7.1130	 6.0190
 7.1230	 6.0520
 7.1330	 5.9690
 7.1420	 5.9980
 7.1520	 5.9390
 7.1620	 6.0130
 7.1720	 5.9530
 7.1820	 5.9630
 7.1920	 5.9180
 7.2020	 5.9380
 7.2120	 5.9310
 7.2220	 5.9760
 7.2320	 5.8480
 7.2420	 5.8610
 7.2520	 5.8290
 7.2620	 5.9670
 7.2730	 5.9890
 7.2830	 5.9970
 7.2930	 5.9150
 7.3030	 5.9070
 7.3140	 5.8770
 7.3240	 5.9660
 7.3340	 5.9070
 7.3450	 5.9230
 7.3550	 5.8730
 7.3660	 5.9650
 7.3760	 5.9010
 7.3870	 5.8980
 7.3970	 5.8640
 7.4080	 5.9310
 7.4180	 5.8580
 7.4290	 5.9370
 7.4400	 5.9160
 7.4500	 5.9990
 7.4610	 5.9720
 7.4720	 5.9330
 7.4830	 5.9100
 7.4930	 6.0290
 7.5040	 5.9250
 7.5150	 5.9030
 7.5260	 5.8480
 7.5370	 5.8970
 7.5480	 5.8170
 7.5590	 5.8980
 7.5700	 5.8930
 7.5810	 5.9510
 7.5920	 5.9050
 7.6030	 5.9870
 7.6140	 5.9310
 7.6260	 5.9560
 7.6370	 5.8560
 7.6480	 5.8850
 7.6590	 5.8710
 7.6710	 5.9320
 7.6820	 5.8650
 7.6930	 5.9120
 7.7050	 5.8560
 7.7160	 5.8990
 7.7280	 5.8090
 7.7390	 5.8970
 7.7510	 5.8890
 7.7630	 5.9290
 7.7740	 5.8530
 7.7860	 5.9090
 7.7980	 5.8740
 7.8090	 5.9310
 7.8210	 5.8840
 7.8330	 5.8950
 7.8450	 5.7790
 7.8570	 5.8300
 7.8690	 5.8130
 7.8810	 5.9880
 7.8930	 5.9350
 7.9050	 5.8930
 7.9170	 5.7900
 7.9290	 5.7820
 7.9410	 5.7000
 7.9530	 5.7840
 7.9650	 5.7880
 7.9780	 5.9380
 7.9900	 5.9470
 8.0020	 6.0060
 8.0150	 5.8420
 8.0270	 5.9420
 8.0390	 5.9780
 8.0520	 6.1020
 8.0640	 5.9720
 8.0770	 5.9570
 8.0900	 5.9140
 8.1020	 5.9570
 8.1150	 5.8350
 8.1280	 5.9750
 8.1400	 5.9990
 8.1530	 6.0530
 8.1660	 5.9480
 8.1790	 5.9620
 8.1920	 5.9440
 8.2050	 6.1590
 8.2180	 6.0840
 8.2310	 6.1130
 8.2440	 5.9530
 8.2570	 5.9320
 8.2700	 5.8830
 8.2830	 6.0870
 8.2970	 6.0390
 8.3100	 6.1090
 8.3230	 5.9890
 8.3370	 5.9640
 8.3500	 5.8800
 8.3640	 6.0480
 8.3770	 5.9590
 8.3910	 6.0990
 8.4040	 6.0600
 8.4180	 6.1300
 8.4320	 6.1270
 8.4450	 6.2770
 8.4590	 6.1740
 8.4730	 6.1990
 8.4870	 6.1470
 8.5010	 6.3230
 8.5150	 6.2280
 8.5290	 6.2860
 8.5430	 6.2790
 8.5570	 6.4060
 8.5710	 6.3030
 8.5850	 6.3140
 8.5990	 6.2300
 8.6140	 6.3630
 8.6280	 6.1870
 8.6420	 6.3300
 8.6570	 6.3260
 8.6710	 6.4320
 8.6860	 6.3000
 8.7000	 6.4090
 8.7150	 6.4010
 8.7300	 6.4530
 8.7440	 6.3760
 8.7590	 6.4420
 8.7740	 6.3420
 8.7890	 6.4210
 8.8040	 6.2910
 8.8190	 6.4670
 8.8340	 6.3560
 8.8490	 6.3280
 8.8640	 6.2060
 8.8790	 6.3110
 8.8940	 6.2560
 8.9100	 6.4660
 8.9250	 6.4050
 8.9400	 6.5230
 8.9560	 6.3870
 8.9710	 6.4090
 8.9870	 6.3020
 9.0020	 6.4920
 9.0180	 6.4320
 9.0340	 6.4870
 9.0500	 6.4040
 9.0650	 6.4240
 9.0810	 6.3050
 9.0970	 6.3870
 9.1130	 6.2780
 9.1290	 6.3670
 9.1450	 6.2650
 9.1610	 6.4760
 9.1780	 6.4890
 9.1940	 6.5110
 9.2100	 6.3210
 9.2270	 6.5000
 9.2430	 6.3340
 9.2600	 6.4350
 9.2760	 6.4420
 9.2930	 6.5890
 9.3090	 6.3420
 9.3260	 6.4850
 9.3430	 6.4470
 9.3600	 6.5140
 9.3770	 6.5620
 9.3940	 6.6990
 9.4110	 6.4620
 9.4280	 6.4930
 9.4450	 6.3780
 9.4620	 6.5230
 9.4800	 6.4690
 9.4970	 6.6240
 9.5140	 6.5020
 9.5320	 6.4890
 9.5500	 6.3050
 9.5670	 6.5040
 9.5850	 6.4570
 9.6030	 6.5760
 9.6200	 6.4720
 9.6380	 6.5650
 9.6560	 6.3880
 9.6740	 6.4090
 9.6920	 6.3440
 9.7100	 6.6550
 9.7290	 6.5680
 9.7470	 6.4450
 9.7650	 6.3000
 9.7840	 6.5960
 9.8020	 6.5910
 9.8210	 6.7990
 9.8390	 6.6630
 9.8580	 6.5050
 9.8770	 6.3710
 9.8960	 6.5200
 9.9150	 6.3630
 9.9340	 6.4910
 9.9530	 6.3950
 9.9720	 6.4080
 9.9910	 6.2240
10.0100	 6.3230
10.0300	 6.3070
10.0490	 6.4620
10.0690	 6.3580
10.0880	 6.4240
10.1080	 6.1900
10.1280	 6.3230
10.1480	 6.3670
10.1670	 6.5610
10.1870	 6.3680
10.2070	 6.4260
10.2280	 6.3450
10.2480	 6.4450
10.2680	 6.2780
10.2890	 6.3950
10.3090	 6.2960
10.3300	 6.3930
10.3500	 6.2730
10.3710	 6.2920
10.3920	 6.1680
10.4120	 6.2160
10.4330	 6.0420
10.4540	 6.2400
10.4760	 6.2550
10.4970	 6.4210
10.5180	 6.2510
10.5390	 6.3790
10.5610	 6.2870
10.5820	 6.4160
10.6040	 6.3520
10.6260	 6.5090
10.6480	 6.3300
10.6700	 6.3830
10.6920	 6.2880
10.7140	 6.3840
10.7360	 6.2590
10.7580	 6.3380
10.7800	 6.1690
10.8030	 6.3760
10.8250	 6.2970
10.8480	 6.3880
10.8710	 6.2020
10.8940	 6.3270
10.9170	 6.2770
10.9400	 6.3770
10.9630	 6.0850
10.9860	 6.1720
11.0090	 6.1830
11.0330	 6.3510
11.0560	 6.1660
11.0800	 6.2910
11.1040	 6.0180
11.1270	 6.1150
11.1510	 6.1430
11.1750	 6.2580
11.2000	 6.0410
11.2240	 6.1630
11.2480	 6.2310
11.2730	 6.4040
11.2970	 6.1320
11.3220	 6.2530
11.3470	 6.0500
11.3720	 6.1560
11.3970	 6.0830
11.4220	 6.2930
11.4470	 6.1420
11.4720	 6.4200
11.4980	 6.2140
11.5230	 6.2140
11.5490	 6.0620
11.5750	 6.1920
11.6000	 6.0270
11.6260	 6.2630
11.6530	 6.1610
11.6790	 6.2160
11.7050	 6.0000
11.7320	 6.1770
11.7580	 6.0230
11.7850	 6.2530
11.8120	 6.1530
11.8390	 6.2000
11.8660	 5.9250
11.8930	 6.1600
11.9200	 6.0700
11.9480	 6.2140
11.9760	 5.9560
12.0030	 6.1020
12.0310	 5.9280
12.0590	 6.1110
12.0870	 6.0400
12.1150	 6.2360
12.1440	 6.0230
12.1720	 6.2340
12.2010	 6.0850
12.2300	 6.2610
12.2590	 6.1460
12.2880	 6.3710
12.3170	 6.2770
12.3460	 6.3460
12.3760	 6.0290
12.4050	 6.1780
12.4350	 6.0260
12.4650	 6.1620
12.4950	 5.9510
12.5250	 6.2690
12.5550	 6.1710
12.5860	 6.2540
12.6170	 5.9740
12.6470	 6.1820
12.6780	 6.0050
12.7090	 6.2360
12.7410	 6.1980
12.7720	 6.3670
12.8030	 6.0450
12.8350	 6.2870
12.8670	 6.0170
12.8990	 6.0680
12.9310	 5.9640
12.9640	 6.2220
12.9960	 5.9850
13.0290	 6.2910
13.0610	 6.1350
13.0940	 6.3060
13.1280	 6.1820
13.1610	 6.4210
13.1940	 6.1640
13.2280	 6.1850
13.2620	 6.1010
13.2960	 6.4060
13.3300	 6.0590
13.3640	 6.2480
13.3990	 6.0210
13.4340	 6.3340
13.4690	 6.0280
13.5040	 6.2020
13.5390	 5.8860
13.5740	 6.1880
13.6100	 5.9670
13.6460	 6.1840
13.6820	 5.9540
13.7180	 6.3700
13.7540	 6.3140
13.7910	 6.5360
13.8280	 6.2270
13.8650	 6.4260
13.9020	 6.1540
13.9390	 6.3440
13.9770	 6.1200
14.0150	 6.3420
14.0530	 5.9130
14.0910	 6.2030
14.1290	 6.1060
14.1680	 6.4420
14.2070	 6.1970
14.2460	 6.5530
14.2850	 6.3370
14.3240	 6.4740
14.3640	 5.9240
14.4040	 6.1710
14.4440	 5.7840
14.4840	 6.0680
14.5250	 5.8180
14.5660	 6.3850
14.6070	 6.0680
14.6480	 6.3480
14.6900	 5.7300
14.7310	 6.4460
14.7730	 6.2050
14.8150	 6.3060
14.8580	 5.5950
14.9010	 6.0840
14.9440	 6.0970
14.9870	 7.1840
15.0300	 6.2420
15.0740	 6.4540
15.1180	 5.7990
15.1620	 6.4930
15.2060	 6.3250
15.2510	 6.8510
15.2960	 6.1950
15.3410	 6.8090
15.3870	 6.0560
