Name: Adenostoma fasciculatum 2
Type: vegetation
Class: Shrub
Genus: Adenostoma
Species: fasciculatum
Sample No.: VH042
Owner: UCSB
Wavelength Range: VSWIR
Origin: 34.5084; -119.7687; WGS84
Collection Date: 4/1/2013
Description: Samples were collected as part of the HyspIRI Airborne Campaign. 48 individual plants were sampled in three times in 2013 - spring  summer  and fall. The name of the sample includes a 1  2  or 3 which references a different individual of the species. Samples were taken to JPL and processed within 48 hours of collection. The same leaves were processed in the Nicolet and then measured using the ASD.
Measurement: Bidirectional reflectance
First Column: X
Second Column: Y
X Units: Wavelength (micrometers)
Y Units: Reflectance (percentage)
First X Value: 0.35
Last X Value: 2.5
Number of X Values: 2151
Additional Information: vegetation.shrub.adenostoma.fasciculatum.vswir.vh042.ucsb.asd.ancillary.txt

 0.3500	 1.4960
 0.3510	 1.9080
 0.3520	 1.7890
 0.3530	 1.5360
 0.3540	 1.6090
 0.3550	 1.6740
 0.3560	 1.6510
 0.3570	 1.5890
 0.3580	 1.5900
 0.3590	 1.5860
 0.3600	 1.5590
 0.3610	 1.4970
 0.3620	 1.3830
 0.3630	 1.4320
 0.3640	 1.4890
 0.3650	 1.4010
 0.3660	 1.3800
 0.3670	 1.4180
 0.3680	 1.4850
 0.3690	 1.5350
 0.3700	 1.5120
 0.3710	 1.4920
 0.3720	 1.5140
 0.3730	 1.5330
 0.3740	 1.4730
 0.3750	 1.4200
 0.3760	 1.4620
 0.3770	 1.4190
 0.3780	 1.4610
 0.3790	 1.5610
 0.3800	 1.5390
 0.3810	 1.5650
 0.3820	 1.5860
 0.3830	 1.5630
 0.3840	 1.5770
 0.3850	 1.5390
 0.3860	 1.5070
 0.3870	 1.5630
 0.3880	 1.5540
 0.3890	 1.5550
 0.3900	 1.5730
 0.3910	 1.5360
 0.3920	 1.5590
 0.3930	 1.5890
 0.3940	 1.5720
 0.3950	 1.5460
 0.3960	 1.5290
 0.3970	 1.5410
 0.3980	 1.5950
 0.3990	 1.6160
 0.4000	 1.6170
 0.4010	 1.6240
 0.4020	 1.6550
 0.4030	 1.6860
 0.4040	 1.6990
 0.4050	 1.6960
 0.4060	 1.7320
 0.4070	 1.7800
 0.4080	 1.8140
 0.4090	 1.8200
 0.4100	 1.8250
 0.4110	 1.8300
 0.4120	 1.8430
 0.4130	 1.8980
 0.4140	 1.9640
 0.4150	 2.0060
 0.4160	 2.0120
 0.4170	 2.0610
 0.4180	 2.0980
 0.4190	 2.1120
 0.4200	 2.1440
 0.4210	 2.1990
 0.4220	 2.2320
 0.4230	 2.2290
 0.4240	 2.2810
 0.4250	 2.3110
 0.4260	 2.3350
 0.4270	 2.3980
 0.4280	 2.4240
 0.4290	 2.4430
 0.4300	 2.4710
 0.4310	 2.4900
 0.4320	 2.5170
 0.4330	 2.5530
 0.4340	 2.5870
 0.4350	 2.6120
 0.4360	 2.6360
 0.4370	 2.6640
 0.4380	 2.6920
 0.4390	 2.7070
 0.4400	 2.7290
 0.4410	 2.7640
 0.4420	 2.7760
 0.4430	 2.7860
 0.4440	 2.8050
 0.4450	 2.8380
 0.4460	 2.8640
 0.4470	 2.8870
 0.4480	 2.9080
 0.4490	 2.9280
 0.4500	 2.9640
 0.4510	 3.0000
 0.4520	 3.0220
 0.4530	 3.0590
 0.4540	 3.0890
 0.4550	 3.1090
 0.4560	 3.1250
 0.4570	 3.1410
 0.4580	 3.1620
 0.4590	 3.1900
 0.4600	 3.2060
 0.4610	 3.2280
 0.4620	 3.2470
 0.4630	 3.2540
 0.4640	 3.2680
 0.4650	 3.2730
 0.4660	 3.2750
 0.4670	 3.2990
 0.4680	 3.3180
 0.4690	 3.3240
 0.4700	 3.3190
 0.4710	 3.3200
 0.4720	 3.3320
 0.4730	 3.3490
 0.4740	 3.3600
 0.4750	 3.3600
 0.4760	 3.3640
 0.4770	 3.3750
 0.4780	 3.3740
 0.4790	 3.3820
 0.4800	 3.3920
 0.4810	 3.3950
 0.4820	 3.4010
 0.4830	 3.4190
 0.4840	 3.4410
 0.4850	 3.4500
 0.4860	 3.4670
 0.4870	 3.4900
 0.4880	 3.5160
 0.4890	 3.5510
 0.4900	 3.5770
 0.4910	 3.6020
 0.4920	 3.6470
 0.4930	 3.6970
 0.4940	 3.7450
 0.4950	 3.7920
 0.4960	 3.8610
 0.4970	 3.9290
 0.4980	 4.0000
 0.4990	 4.0830
 0.5000	 4.1740
 0.5010	 4.2640
 0.5020	 4.3570
 0.5030	 4.4700
 0.5040	 4.5890
 0.5050	 4.7170
 0.5060	 4.8570
 0.5070	 5.0100
 0.5080	 5.1760
 0.5090	 5.3550
 0.5100	 5.5410
 0.5110	 5.7350
 0.5120	 5.9430
 0.5130	 6.1640
 0.5140	 6.3890
 0.5150	 6.6290
 0.5160	 6.8810
 0.5170	 7.1390
 0.5180	 7.4050
 0.5190	 7.6750
 0.5200	 7.9480
 0.5210	 8.2190
 0.5220	 8.4910
 0.5230	 8.7600
 0.5240	 9.0210
 0.5250	 9.2780
 0.5260	 9.5260
 0.5270	 9.7590
 0.5280	 9.9730
 0.5290	10.1760
 0.5300	10.3700
 0.5310	10.5510
 0.5320	10.7180
 0.5330	10.8680
 0.5340	11.0080
 0.5350	11.1410
 0.5360	11.2570
 0.5370	11.3580
 0.5380	11.4510
 0.5390	11.5430
 0.5400	11.6300
 0.5410	11.7150
 0.5420	11.8000
 0.5430	11.8720
 0.5440	11.9450
 0.5450	12.0120
 0.5460	12.0650
 0.5470	12.1060
 0.5480	12.1400
 0.5490	12.1720
 0.5500	12.2030
 0.5510	12.2240
 0.5520	12.2340
 0.5530	12.2340
 0.5540	12.2210
 0.5550	12.1980
 0.5560	12.1620
 0.5570	12.1040
 0.5580	12.0390
 0.5590	11.9660
 0.5600	11.8850
 0.5610	11.8040
 0.5620	11.7140
 0.5630	11.6150
 0.5640	11.5110
 0.5650	11.3910
 0.5660	11.2650
 0.5670	11.1380
 0.5680	11.0070
 0.5690	10.8640
 0.5700	10.7160
 0.5710	10.5690
 0.5720	10.4190
 0.5730	10.2800
 0.5740	10.1530
 0.5750	10.0370
 0.5760	 9.9300
 0.5770	 9.8250
 0.5780	 9.7210
 0.5790	 9.6340
 0.5800	 9.5490
 0.5810	 9.4630
 0.5820	 9.3790
 0.5830	 9.3030
 0.5840	 9.2340
 0.5850	 9.1700
 0.5860	 9.1060
 0.5870	 9.0520
 0.5880	 9.0050
 0.5890	 8.9590
 0.5900	 8.9180
 0.5910	 8.8800
 0.5920	 8.8450
 0.5930	 8.8170
 0.5940	 8.7960
 0.5950	 8.7790
 0.5960	 8.7640
 0.5970	 8.7580
 0.5980	 8.7400
 0.5990	 8.7160
 0.6000	 8.6940
 0.6010	 8.6590
 0.6020	 8.6220
 0.6030	 8.5830
 0.6040	 8.5350
 0.6050	 8.4770
 0.6060	 8.4120
 0.6070	 8.3420
 0.6080	 8.2640
 0.6090	 8.1850
 0.6100	 8.1110
 0.6110	 8.0420
 0.6120	 7.9540
 0.6130	 7.8530
 0.6140	 7.7500
 0.6150	 7.6600
 0.6160	 7.5750
 0.6170	 7.4950
 0.6180	 7.4220
 0.6190	 7.3610
 0.6200	 7.3070
 0.6210	 7.2560
 0.6220	 7.2120
 0.6230	 7.1750
 0.6240	 7.1430
 0.6250	 7.1150
 0.6260	 7.0980
 0.6270	 7.0860
 0.6280	 7.0790
 0.6290	 7.0780
 0.6300	 7.0720
 0.6310	 7.0650
 0.6320	 7.0570
 0.6330	 7.0410
 0.6340	 7.0180
 0.6350	 6.9820
 0.6360	 6.9290
 0.6370	 6.8750
 0.6380	 6.8050
 0.6390	 6.7220
 0.6400	 6.6360
 0.6410	 6.5380
 0.6420	 6.4300
 0.6430	 6.3170
 0.6440	 6.1990
 0.6450	 6.0780
 0.6460	 5.9610
 0.6470	 5.8510
 0.6480	 5.7470
 0.6490	 5.6530
 0.6500	 5.5700
 0.6510	 5.4990
 0.6520	 5.4330
 0.6530	 5.3740
 0.6540	 5.3210
 0.6550	 5.2630
 0.6560	 5.1940
 0.6570	 5.1130
 0.6580	 5.0220
 0.6590	 4.9230
 0.6600	 4.8200
 0.6610	 4.7150
 0.6620	 4.6050
 0.6630	 4.5020
 0.6640	 4.4030
 0.6650	 4.3090
 0.6660	 4.2240
 0.6670	 4.1480
 0.6680	 4.0830
 0.6690	 4.0290
 0.6700	 3.9910
 0.6710	 3.9600
 0.6720	 3.9320
 0.6730	 3.9150
 0.6740	 3.9040
 0.6750	 3.9010
 0.6760	 3.9060
 0.6770	 3.9150
 0.6780	 3.9320
 0.6790	 3.9600
 0.6800	 4.0010
 0.6810	 4.0550
 0.6820	 4.1320
 0.6830	 4.2390
 0.6840	 4.3700
 0.6850	 4.5360
 0.6860	 4.7420
 0.6870	 4.9940
 0.6880	 5.3090
 0.6890	 5.6830
 0.6900	 6.1200
 0.6910	 6.6280
 0.6920	 7.2030
 0.6930	 7.8470
 0.6940	 8.5560
 0.6950	 9.3230
 0.6960	10.1470
 0.6970	11.0220
 0.6980	11.9440
 0.6990	12.9090
 0.7000	13.9040
 0.7010	14.9270
 0.7020	15.9730
 0.7030	17.0260
 0.7040	18.0870
 0.7050	19.1550
 0.7060	20.2290
 0.7070	21.3040
 0.7080	22.3780
 0.7090	23.4550
 0.7100	24.5360
 0.7110	25.6220
 0.7120	26.7120
 0.7130	27.8040
 0.7140	28.9020
 0.7150	30.0010
 0.7160	31.0980
 0.7170	32.2000
 0.7180	33.3010
 0.7190	34.3980
 0.7200	35.4890
 0.7210	36.5650
 0.7220	37.6340
 0.7230	38.6910
 0.7240	39.7210
 0.7250	40.7320
 0.7260	41.7150
 0.7270	42.6660
 0.7280	43.5990
 0.7290	44.4930
 0.7300	45.3480
 0.7310	46.1730
 0.7320	46.9540
 0.7330	47.6980
 0.7340	48.4100
 0.7350	49.0920
 0.7360	49.7270
 0.7370	50.3270
 0.7380	50.9040
 0.7390	51.4530
 0.7400	51.9590
 0.7410	52.4320
 0.7420	52.8850
 0.7430	53.3010
 0.7440	53.6910
 0.7450	54.0570
 0.7460	54.3880
 0.7470	54.6930
 0.7480	54.9830
 0.7490	55.2570
 0.7500	55.4880
 0.7510	55.7000
 0.7520	55.9020
 0.7530	56.0980
 0.7540	56.2730
 0.7550	56.4290
 0.7560	56.5730
 0.7570	56.7150
 0.7580	56.8290
 0.7590	56.9380
 0.7600	57.0530
 0.7610	57.1460
 0.7620	57.2320
 0.7630	57.3100
 0.7640	57.3790
 0.7650	57.4510
 0.7660	57.5220
 0.7670	57.5870
 0.7680	57.6400
 0.7690	57.6970
 0.7700	57.7450
 0.7710	57.7880
 0.7720	57.8450
 0.7730	57.8940
 0.7740	57.9330
 0.7750	57.9670
 0.7760	58.0100
 0.7770	58.0540
 0.7780	58.0910
 0.7790	58.1190
 0.7800	58.1590
 0.7810	58.2040
 0.7820	58.2440
 0.7830	58.2730
 0.7840	58.3040
 0.7850	58.3380
 0.7860	58.3750
 0.7870	58.4260
 0.7880	58.4520
 0.7890	58.4720
 0.7900	58.5090
 0.7910	58.5330
 0.7920	58.5580
 0.7930	58.5900
 0.7940	58.6250
 0.7950	58.6480
 0.7960	58.6760
 0.7970	58.7130
 0.7980	58.7390
 0.7990	58.7630
 0.8000	58.7870
 0.8010	58.8080
 0.8020	58.8290
 0.8030	58.8530
 0.8040	58.8770
 0.8050	58.8960
 0.8060	58.9070
 0.8070	58.9240
 0.8080	58.9430
 0.8090	58.9430
 0.8100	58.9640
 0.8110	58.9880
 0.8120	59.0030
 0.8130	59.0230
 0.8140	59.0260
 0.8150	59.0300
 0.8160	59.0500
 0.8170	59.0680
 0.8180	59.0740
 0.8190	59.0760
 0.8200	59.0860
 0.8210	59.0870
 0.8220	59.0820
 0.8230	59.0810
 0.8240	59.0920
 0.8250	59.0970
 0.8260	59.0890
 0.8270	59.0720
 0.8280	59.0590
 0.8290	59.0540
 0.8300	59.0420
 0.8310	59.0160
 0.8320	59.0100
 0.8330	59.0050
 0.8340	58.9980
 0.8350	58.9890
 0.8360	58.9830
 0.8370	58.9780
 0.8380	58.9810
 0.8390	59.0030
 0.8400	59.0050
 0.8410	59.0080
 0.8420	59.0220
 0.8430	59.0310
 0.8440	59.0410
 0.8450	59.0560
 0.8460	59.0720
 0.8470	59.0690
 0.8480	59.0800
 0.8490	59.1000
 0.8500	59.1090
 0.8510	59.1110
 0.8520	59.1130
 0.8530	59.1240
 0.8540	59.1490
 0.8550	59.1690
 0.8560	59.1740
 0.8570	59.1750
 0.8580	59.1940
 0.8590	59.2150
 0.8600	59.2270
 0.8610	59.2250
 0.8620	59.2210
 0.8630	59.2200
 0.8640	59.2210
 0.8650	59.2250
 0.8660	59.2490
 0.8670	59.2660
 0.8680	59.2650
 0.8690	59.2520
 0.8700	59.2710
 0.8710	59.2840
 0.8720	59.2840
 0.8730	59.2880
 0.8740	59.3050
 0.8750	59.3200
 0.8760	59.3290
 0.8770	59.3380
 0.8780	59.3340
 0.8790	59.3320
 0.8800	59.3360
 0.8810	59.3200
 0.8820	59.3230
 0.8830	59.3340
 0.8840	59.3370
 0.8850	59.3210
 0.8860	59.3130
 0.8870	59.3140
 0.8880	59.3170
 0.8890	59.3110
 0.8900	59.3000
 0.8910	59.2950
 0.8920	59.3000
 0.8930	59.2920
 0.8940	59.2770
 0.8950	59.2650
 0.8960	59.2640
 0.8970	59.2580
 0.8980	59.2480
 0.8990	59.2370
 0.9000	59.2220
 0.9010	59.2210
 0.9020	59.2100
 0.9030	59.1890
 0.9040	59.1940
 0.9050	59.1980
 0.9060	59.1820
 0.9070	59.1490
 0.9080	59.1370
 0.9090	59.1320
 0.9100	59.1240
 0.9110	59.1100
 0.9120	59.0930
 0.9130	59.0610
 0.9140	59.0340
 0.9150	59.0270
 0.9160	58.9950
 0.9170	58.9640
 0.9180	58.9440
 0.9190	58.9310
 0.9200	58.9040
 0.9210	58.8550
 0.9220	58.7960
 0.9230	58.7440
 0.9240	58.6770
 0.9250	58.6110
 0.9260	58.5490
 0.9270	58.4810
 0.9280	58.3980
 0.9290	58.3080
 0.9300	58.2160
 0.9310	58.1220
 0.9320	57.9940
 0.9330	57.8810
 0.9340	57.7940
 0.9350	57.6770
 0.9360	57.5440
 0.9370	57.4080
 0.9380	57.2770
 0.9390	57.1530
 0.9400	57.0040
 0.9410	56.8580
 0.9420	56.7260
 0.9430	56.5660
 0.9440	56.3830
 0.9450	56.1900
 0.9460	55.9920
 0.9470	55.7810
 0.9480	55.5550
 0.9490	55.3270
 0.9500	55.0990
 0.9510	54.8390
 0.9520	54.5630
 0.9530	54.2840
 0.9540	54.0130
 0.9550	53.7410
 0.9560	53.4740
 0.9570	53.2260
 0.9580	53.0050
 0.9590	52.8040
 0.9600	52.6200
 0.9610	52.4610
 0.9620	52.3320
 0.9630	52.2180
 0.9640	52.1030
 0.9650	51.9930
 0.9660	51.9040
 0.9670	51.8530
 0.9680	51.7910
 0.9690	51.7330
 0.9700	51.7050
 0.9710	51.6600
 0.9720	51.6230
 0.9730	51.5970
 0.9740	51.5740
 0.9750	51.5730
 0.9760	51.5720
 0.9770	51.5650
 0.9780	51.5590
 0.9790	51.5680
 0.9800	51.5830
 0.9810	51.6050
 0.9820	51.6380
 0.9830	51.6930
 0.9840	51.7300
 0.9850	51.7610
 0.9860	51.8150
 0.9870	51.8780
 0.9880	51.9230
 0.9890	51.9650
 0.9900	52.0260
 0.9910	52.0880
 0.9920	52.2720
 0.9930	52.4550
 0.9940	52.6390
 0.9950	52.8220
 0.9960	53.0060
 0.9970	53.1890
 0.9980	53.3730
 0.9990	53.5570
 1.0000	53.7400
 1.0010	53.9240
 1.0020	54.1070
 1.0030	54.2910
 1.0040	54.4740
 1.0050	54.6580
 1.0060	54.8420
 1.0070	55.0250
 1.0080	55.2090
 1.0090	55.3920
 1.0100	55.3920
 1.0110	55.4950
 1.0120	55.6030
 1.0130	55.7060
 1.0140	55.8150
 1.0150	55.9330
 1.0160	56.0470
 1.0170	56.1600
 1.0180	56.2690
 1.0190	56.3780
 1.0200	56.4900
 1.0210	56.6010
 1.0220	56.7150
 1.0230	56.8270
 1.0240	56.9410
 1.0250	57.0520
 1.0260	57.1630
 1.0270	57.2700
 1.0280	57.3770
 1.0290	57.4820
 1.0300	57.5820
 1.0310	57.6820
 1.0320	57.7830
 1.0330	57.8760
 1.0340	57.9730
 1.0350	58.0700
 1.0360	58.1660
 1.0370	58.2620
 1.0380	58.3540
 1.0390	58.4420
 1.0400	58.5290
 1.0410	58.6120
 1.0420	58.6960
 1.0430	58.7820
 1.0440	58.8590
 1.0450	58.9330
 1.0460	59.0030
 1.0470	59.0660
 1.0480	59.1300
 1.0490	59.1940
 1.0500	59.2590
 1.0510	59.3270
 1.0520	59.3910
 1.0530	59.4480
 1.0540	59.5030
 1.0550	59.5510
 1.0560	59.5880
 1.0570	59.6260
 1.0580	59.6610
 1.0590	59.6980
 1.0600	59.7340
 1.0610	59.7660
 1.0620	59.7990
 1.0630	59.8260
 1.0640	59.8470
 1.0650	59.8680
 1.0660	59.8890
 1.0670	59.9030
 1.0680	59.9130
 1.0690	59.9180
 1.0700	59.9250
 1.0710	59.9270
 1.0720	59.9290
 1.0730	59.9330
 1.0740	59.9300
 1.0750	59.9230
 1.0760	59.9110
 1.0770	59.8950
 1.0780	59.8780
 1.0790	59.8580
 1.0800	59.8340
 1.0810	59.8090
 1.0820	59.7810
 1.0830	59.7490
 1.0840	59.7150
 1.0850	59.6800
 1.0860	59.6420
 1.0870	59.6010
 1.0880	59.5570
 1.0890	59.5120
 1.0900	59.4660
 1.0910	59.4160
 1.0920	59.3660
 1.0930	59.3110
 1.0940	59.2500
 1.0950	59.1910
 1.0960	59.1290
 1.0970	59.0670
 1.0980	59.0050
 1.0990	58.9410
 1.1000	58.8760
 1.1010	58.8090
 1.1020	58.7400
 1.1030	58.6700
 1.1040	58.6020
 1.1050	58.5290
 1.1060	58.4550
 1.1070	58.3780
 1.1080	58.3030
 1.1090	58.2280
 1.1100	58.1480
 1.1110	58.0720
 1.1120	57.9860
 1.1130	57.8920
 1.1140	57.7970
 1.1150	57.7030
 1.1160	57.5970
 1.1170	57.4880
 1.1180	57.3660
 1.1190	57.2340
 1.1200	57.0890
 1.1210	56.9350
 1.1220	56.7670
 1.1230	56.5840
 1.1240	56.3870
 1.1250	56.1680
 1.1260	55.9340
 1.1270	55.6770
 1.1280	55.4010
 1.1290	55.1010
 1.1300	54.7820
 1.1310	54.4360
 1.1320	54.0640
 1.1330	53.6760
 1.1340	53.2640
 1.1350	52.8370
 1.1360	52.3900
 1.1370	51.9280
 1.1380	51.4540
 1.1390	50.9700
 1.1400	50.4810
 1.1410	49.9970
 1.1420	49.5110
 1.1430	49.0300
 1.1440	48.5630
 1.1450	48.0980
 1.1460	47.6590
 1.1470	47.2320
 1.1480	46.8320
 1.1490	46.4520
 1.1500	46.0990
 1.1510	45.7690
 1.1520	45.4650
 1.1530	45.1860
 1.1540	44.9310
 1.1550	44.7000
 1.1560	44.4930
 1.1570	44.3060
 1.1580	44.1380
 1.1590	43.9870
 1.1600	43.8550
 1.1610	43.7390
 1.1620	43.6360
 1.1630	43.5440
 1.1640	43.4630
 1.1650	43.3920
 1.1660	43.3320
 1.1670	43.2760
 1.1680	43.2310
 1.1690	43.1860
 1.1700	43.1470
 1.1710	43.1090
 1.1720	43.0790
 1.1730	43.0450
 1.1740	43.0140
 1.1750	42.9820
 1.1760	42.9480
 1.1770	42.9100
 1.1780	42.8730
 1.1790	42.8380
 1.1800	42.8010
 1.1810	42.7640
 1.1820	42.7260
 1.1830	42.6870
 1.1840	42.6490
 1.1850	42.6140
 1.1860	42.5800
 1.1870	42.5460
 1.1880	42.5160
 1.1890	42.4880
 1.1900	42.4640
 1.1910	42.4450
 1.1920	42.4290
 1.1930	42.4150
 1.1940	42.4060
 1.1950	42.4010
 1.1960	42.4000
 1.1970	42.4020
 1.1980	42.4080
 1.1990	42.4180
 1.2000	42.4280
 1.2010	42.4430
 1.2020	42.4660
 1.2030	42.4890
 1.2040	42.5140
 1.2050	42.5440
 1.2060	42.5760
 1.2070	42.6100
 1.2080	42.6480
 1.2090	42.6890
 1.2100	42.7320
 1.2110	42.7800
 1.2120	42.8320
 1.2130	42.8850
 1.2140	42.9400
 1.2150	42.9980
 1.2160	43.0590
 1.2170	43.1200
 1.2180	43.1850
 1.2190	43.2510
 1.2200	43.3170
 1.2210	43.3840
 1.2220	43.4500
 1.2230	43.5170
 1.2240	43.5820
 1.2250	43.6450
 1.2260	43.7050
 1.2270	43.7650
 1.2280	43.8240
 1.2290	43.8860
 1.2300	43.9470
 1.2310	44.0050
 1.2320	44.0640
 1.2330	44.1190
 1.2340	44.1740
 1.2350	44.2290
 1.2360	44.2810
 1.2370	44.3310
 1.2380	44.3800
 1.2390	44.4280
 1.2400	44.4760
 1.2410	44.5270
 1.2420	44.5750
 1.2430	44.6190
 1.2440	44.6620
 1.2450	44.7050
 1.2460	44.7460
 1.2470	44.7870
 1.2480	44.8290
 1.2490	44.8700
 1.2500	44.9100
 1.2510	44.9490
 1.2520	44.9810
 1.2530	45.0090
 1.2540	45.0380
 1.2550	45.0630
 1.2560	45.0880
 1.2570	45.1120
 1.2580	45.1310
 1.2590	45.1470
 1.2600	45.1600
 1.2610	45.1720
 1.2620	45.1820
 1.2630	45.1890
 1.2640	45.1940
 1.2650	45.1970
 1.2660	45.1960
 1.2670	45.1920
 1.2680	45.1900
 1.2690	45.1860
 1.2700	45.1760
 1.2710	45.1630
 1.2720	45.1440
 1.2730	45.1180
 1.2740	45.0930
 1.2750	45.0640
 1.2760	45.0330
 1.2770	45.0000
 1.2780	44.9600
 1.2790	44.9170
 1.2800	44.8720
 1.2810	44.8220
 1.2820	44.7680
 1.2830	44.7100
 1.2840	44.6470
 1.2850	44.5820
 1.2860	44.5130
 1.2870	44.4380
 1.2880	44.3580
 1.2890	44.2730
 1.2900	44.1830
 1.2910	44.0860
 1.2920	43.9880
 1.2930	43.8830
 1.2940	43.7700
 1.2950	43.6520
 1.2960	43.5290
 1.2970	43.4020
 1.2980	43.2710
 1.2990	43.1350
 1.3000	42.9940
 1.3010	42.8460
 1.3020	42.6910
 1.3030	42.5320
 1.3040	42.3670
 1.3050	42.1970
 1.3060	42.0230
 1.3070	41.8420
 1.3080	41.6550
 1.3090	41.4670
 1.3100	41.2740
 1.3110	41.0750
 1.3120	40.8710
 1.3130	40.6640
 1.3140	40.4520
 1.3150	40.2350
 1.3160	40.0150
 1.3170	39.7910
 1.3180	39.5620
 1.3190	39.3290
 1.3200	39.0940
 1.3210	38.8540
 1.3220	38.6100
 1.3230	38.3630
 1.3240	38.1130
 1.3250	37.8670
 1.3260	37.6170
 1.3270	37.3650
 1.3280	37.1140
 1.3290	36.8580
 1.3300	36.6050
 1.3310	36.3550
 1.3320	36.1000
 1.3330	35.8520
 1.3340	35.6040
 1.3350	35.3580
 1.3360	35.1160
 1.3370	34.8750
 1.3380	34.6370
 1.3390	34.4030
 1.3400	34.1710
 1.3410	33.9480
 1.3420	33.7280
 1.3430	33.5130
 1.3440	33.3040
 1.3450	33.0970
 1.3460	32.8930
 1.3470	32.6950
 1.3480	32.4980
 1.3490	32.3090
 1.3500	32.1260
 1.3510	31.9440
 1.3520	31.7660
 1.3530	31.5900
 1.3540	31.4110
 1.3550	31.2350
 1.3560	31.0590
 1.3570	30.8820
 1.3580	30.7060
 1.3590	30.5280
 1.3600	30.3460
 1.3610	30.1600
 1.3620	29.9660
 1.3630	29.7680
 1.3640	29.5630
 1.3650	29.3490
 1.3660	29.1280
 1.3670	28.8960
 1.3680	28.6500
 1.3690	28.3940
 1.3700	28.1220
 1.3710	27.8370
 1.3720	27.5390
 1.3730	27.2190
 1.3740	26.8870
 1.3750	26.5380
 1.3760	26.1680
 1.3770	25.7800
 1.3780	25.3690
 1.3790	24.9390
 1.3800	24.4910
 1.3810	24.0230
 1.3820	23.5450
 1.3830	23.0530
 1.3840	22.5520
 1.3850	22.0380
 1.3860	21.5210
 1.3870	20.9910
 1.3880	20.4690
 1.3890	19.9430
 1.3900	19.4190
 1.3910	18.9050
 1.3920	18.3960
 1.3930	17.8930
 1.3940	17.4030
 1.3950	16.9200
 1.3960	16.4520
 1.3970	15.9990
 1.3980	15.5630
 1.3990	15.1510
 1.4000	14.7540
 1.4010	14.3730
 1.4020	14.0140
 1.4030	13.6700
 1.4040	13.3450
 1.4050	13.0410
 1.4060	12.7530
 1.4070	12.4850
 1.4080	12.2340
 1.4090	11.9970
 1.4100	11.7780
 1.4110	11.5720
 1.4120	11.3800
 1.4130	11.2030
 1.4140	11.0370
 1.4150	10.8850
 1.4160	10.7430
 1.4170	10.6120
 1.4180	10.4900
 1.4190	10.3760
 1.4200	10.2700
 1.4210	10.1730
 1.4220	10.0830
 1.4230	10.0010
 1.4240	 9.9250
 1.4250	 9.8540
 1.4260	 9.7900
 1.4270	 9.7290
 1.4280	 9.6740
 1.4290	 9.6230
 1.4300	 9.5780
 1.4310	 9.5350
 1.4320	 9.4980
 1.4330	 9.4630
 1.4340	 9.4320
 1.4350	 9.4040
 1.4360	 9.3780
 1.4370	 9.3560
 1.4380	 9.3370
 1.4390	 9.3220
 1.4400	 9.3090
 1.4410	 9.2970
 1.4420	 9.2880
 1.4430	 9.2810
 1.4440	 9.2750
 1.4450	 9.2720
 1.4460	 9.2710
 1.4470	 9.2710
 1.4480	 9.2720
 1.4490	 9.2750
 1.4500	 9.2790
 1.4510	 9.2840
 1.4520	 9.2910
 1.4530	 9.3000
 1.4540	 9.3090
 1.4550	 9.3210
 1.4560	 9.3350
 1.4570	 9.3500
 1.4580	 9.3680
 1.4590	 9.3880
 1.4600	 9.4110
 1.4610	 9.4370
 1.4620	 9.4660
 1.4630	 9.4980
 1.4640	 9.5320
 1.4650	 9.5700
 1.4660	 9.6090
 1.4670	 9.6530
 1.4680	 9.7010
 1.4690	 9.7520
 1.4700	 9.8070
 1.4710	 9.8650
 1.4720	 9.9240
 1.4730	 9.9860
 1.4740	10.0500
 1.4750	10.1170
 1.4760	10.1870
 1.4770	10.2590
 1.4780	10.3330
 1.4790	10.4080
 1.4800	10.4830
 1.4810	10.5600
 1.4820	10.6380
 1.4830	10.7180
 1.4840	10.8000
 1.4850	10.8830
 1.4860	10.9680
 1.4870	11.0550
 1.4880	11.1400
 1.4890	11.2270
 1.4900	11.3140
 1.4910	11.4010
 1.4920	11.4910
 1.4930	11.5820
 1.4940	11.6730
 1.4950	11.7640
 1.4960	11.8560
 1.4970	11.9470
 1.4980	12.0400
 1.4990	12.1330
 1.5000	12.2270
 1.5010	12.3220
 1.5020	12.4170
 1.5030	12.5130
 1.5040	12.6080
 1.5050	12.7020
 1.5060	12.7980
 1.5070	12.8940
 1.5080	12.9910
 1.5090	13.0880
 1.5100	13.1850
 1.5110	13.2820
 1.5120	13.3790
 1.5130	13.4740
 1.5140	13.5700
 1.5150	13.6660
 1.5160	13.7600
 1.5170	13.8560
 1.5180	13.9520
 1.5190	14.0480
 1.5200	14.1450
 1.5210	14.2400
 1.5220	14.3350
 1.5230	14.4300
 1.5240	14.5250
 1.5250	14.6200
 1.5260	14.7150
 1.5270	14.8100
 1.5280	14.9040
 1.5290	14.9970
 1.5300	15.0900
 1.5310	15.1830
 1.5320	15.2750
 1.5330	15.3670
 1.5340	15.4590
 1.5350	15.5500
 1.5360	15.6420
 1.5370	15.7320
 1.5380	15.8210
 1.5390	15.9120
 1.5400	16.0000
 1.5410	16.0900
 1.5420	16.1790
 1.5430	16.2670
 1.5440	16.3550
 1.5450	16.4430
 1.5460	16.5290
 1.5470	16.6150
 1.5480	16.7010
 1.5490	16.7860
 1.5500	16.8700
 1.5510	16.9550
 1.5520	17.0400
 1.5530	17.1250
 1.5540	17.2090
 1.5550	17.2930
 1.5560	17.3740
 1.5570	17.4550
 1.5580	17.5350
 1.5590	17.6150
 1.5600	17.6940
 1.5610	17.7710
 1.5620	17.8490
 1.5630	17.9250
 1.5640	18.0010
 1.5650	18.0770
 1.5660	18.1520
 1.5670	18.2280
 1.5680	18.3040
 1.5690	18.3790
 1.5700	18.4530
 1.5710	18.5270
 1.5720	18.5990
 1.5730	18.6710
 1.5740	18.7440
 1.5750	18.8150
 1.5760	18.8860
 1.5770	18.9580
 1.5780	19.0290
 1.5790	19.1000
 1.5800	19.1690
 1.5810	19.2380
 1.5820	19.3050
 1.5830	19.3720
 1.5840	19.4400
 1.5850	19.5060
 1.5860	19.5720
 1.5870	19.6390
 1.5880	19.7040
 1.5890	19.7690
 1.5900	19.8340
 1.5910	19.8980
 1.5920	19.9610
 1.5930	20.0230
 1.5940	20.0850
 1.5950	20.1470
 1.5960	20.2090
 1.5970	20.2700
 1.5980	20.3300
 1.5990	20.3900
 1.6000	20.4490
 1.6010	20.5070
 1.6020	20.5660
 1.6030	20.6230
 1.6040	20.6800
 1.6050	20.7380
 1.6060	20.7940
 1.6070	20.8480
 1.6080	20.9030
 1.6090	20.9560
 1.6100	21.0070
 1.6110	21.0590
 1.6120	21.1100
 1.6130	21.1610
 1.6140	21.2130
 1.6150	21.2630
 1.6160	21.3120
 1.6170	21.3600
 1.6180	21.4060
 1.6190	21.4510
 1.6200	21.4970
 1.6210	21.5430
 1.6220	21.5880
 1.6230	21.6350
 1.6240	21.6800
 1.6250	21.7230
 1.6260	21.7670
 1.6270	21.8080
 1.6280	21.8490
 1.6290	21.8890
 1.6300	21.9270
 1.6310	21.9650
 1.6320	22.0010
 1.6330	22.0370
 1.6340	22.0730
 1.6350	22.1080
 1.6360	22.1450
 1.6370	22.1780
 1.6380	22.2100
 1.6390	22.2390
 1.6400	22.2660
 1.6410	22.2920
 1.6420	22.3180
 1.6430	22.3410
 1.6440	22.3620
 1.6450	22.3810
 1.6460	22.3980
 1.6470	22.4140
 1.6480	22.4310
 1.6490	22.4450
 1.6500	22.4560
 1.6510	22.4650
 1.6520	22.4710
 1.6530	22.4740
 1.6540	22.4760
 1.6550	22.4760
 1.6560	22.4750
 1.6570	22.4740
 1.6580	22.4720
 1.6590	22.4670
 1.6600	22.4620
 1.6610	22.4560
 1.6620	22.4490
 1.6630	22.4450
 1.6640	22.4400
 1.6650	22.4340
 1.6660	22.4290
 1.6670	22.4230
 1.6680	22.4170
 1.6690	22.4120
 1.6700	22.4060
 1.6710	22.4010
 1.6720	22.3980
 1.6730	22.3940
 1.6740	22.3890
 1.6750	22.3820
 1.6760	22.3730
 1.6770	22.3630
 1.6780	22.3520
 1.6790	22.3400
 1.6800	22.3280
 1.6810	22.3120
 1.6820	22.2950
 1.6830	22.2760
 1.6840	22.2560
 1.6850	22.2350
 1.6860	22.2140
 1.6870	22.1920
 1.6880	22.1670
 1.6890	22.1400
 1.6900	22.1110
 1.6910	22.0780
 1.6920	22.0460
 1.6930	22.0140
 1.6940	21.9790
 1.6950	21.9420
 1.6960	21.9050
 1.6970	21.8670
 1.6980	21.8260
 1.6990	21.7860
 1.7000	21.7430
 1.7010	21.6960
 1.7020	21.6500
 1.7030	21.6030
 1.7040	21.5560
 1.7050	21.5100
 1.7060	21.4640
 1.7070	21.4180
 1.7080	21.3720
 1.7090	21.3240
 1.7100	21.2780
 1.7110	21.2330
 1.7120	21.1890
 1.7130	21.1450
 1.7140	21.0980
 1.7150	21.0520
 1.7160	21.0070
 1.7170	20.9610
 1.7180	20.9190
 1.7190	20.8770
 1.7200	20.8340
 1.7210	20.7900
 1.7220	20.7460
 1.7230	20.7020
 1.7240	20.6600
 1.7250	20.6190
 1.7260	20.5800
 1.7270	20.5400
 1.7280	20.5020
 1.7290	20.4640
 1.7300	20.4270
 1.7310	20.3900
 1.7320	20.3550
 1.7330	20.3180
 1.7340	20.2800
 1.7350	20.2420
 1.7360	20.2040
 1.7370	20.1640
 1.7380	20.1240
 1.7390	20.0800
 1.7400	20.0320
 1.7410	19.9830
 1.7420	19.9310
 1.7430	19.8790
 1.7440	19.8260
 1.7450	19.7690
 1.7460	19.7080
 1.7470	19.6480
 1.7480	19.5850
 1.7490	19.5250
 1.7500	19.4670
 1.7510	19.4080
 1.7520	19.3490
 1.7530	19.2900
 1.7540	19.2300
 1.7550	19.1730
 1.7560	19.1160
 1.7570	19.0600
 1.7580	19.0050
 1.7590	18.9520
 1.7600	18.8990
 1.7610	18.8520
 1.7620	18.8050
 1.7630	18.7570
 1.7640	18.7110
 1.7650	18.6670
 1.7660	18.6250
 1.7670	18.5870
 1.7680	18.5470
 1.7690	18.5080
 1.7700	18.4710
 1.7710	18.4340
 1.7720	18.4000
 1.7730	18.3690
 1.7740	18.3370
 1.7750	18.3070
 1.7760	18.2770
 1.7770	18.2490
 1.7780	18.2220
 1.7790	18.1950
 1.7800	18.1710
 1.7810	18.1480
 1.7820	18.1280
 1.7830	18.1100
 1.7840	18.0940
 1.7850	18.0800
 1.7860	18.0660
 1.7870	18.0540
 1.7880	18.0420
 1.7890	18.0330
 1.7900	18.0260
 1.7910	18.0210
 1.7920	18.0180
 1.7930	18.0150
 1.7940	18.0130
 1.7950	18.0130
 1.7960	18.0140
 1.7970	18.0150
 1.7980	18.0170
 1.7990	18.0190
 1.8000	18.0200
 1.8010	18.0240
 1.8020	18.0300
 1.8030	18.0370
 1.8040	18.0460
 1.8050	18.0530
 1.8060	18.0590
 1.8070	18.0650
 1.8080	18.0710
 1.8090	18.0770
 1.8100	18.0830
 1.8110	18.0880
 1.8120	18.0930
 1.8130	18.0990
 1.8140	18.1040
 1.8150	18.1060
 1.8160	18.1060
 1.8170	18.1050
 1.8180	18.1040
 1.8190	18.1080
 1.8200	18.1080
 1.8210	18.1050
 1.8220	18.1010
 1.8230	18.0920
 1.8240	18.0840
 1.8250	18.0740
 1.8260	18.0650
 1.8270	17.9990
 1.8280	17.9330
 1.8290	17.8680
 1.8300	17.8020
 1.8310	17.7360
 1.8320	17.6710
 1.8330	17.6050
 1.8340	17.5390
 1.8350	17.5390
 1.8360	17.5010
 1.8370	17.4570
 1.8380	17.4110
 1.8390	17.3620
 1.8400	17.3120
 1.8410	17.2540
 1.8420	17.1920
 1.8430	17.1250
 1.8440	17.0530
 1.8450	16.9750
 1.8460	16.8890
 1.8470	16.7950
 1.8480	16.6910
 1.8490	16.5770
 1.8500	16.4560
 1.8510	16.3280
 1.8520	16.1930
 1.8530	16.0470
 1.8540	15.8930
 1.8550	15.7280
 1.8560	15.5530
 1.8570	15.3700
 1.8580	15.1770
 1.8590	14.9740
 1.8600	14.7610
 1.8610	14.5390
 1.8620	14.3080
 1.8630	14.0640
 1.8640	13.8100
 1.8650	13.5450
 1.8660	13.2630
 1.8670	12.9670
 1.8680	12.6630
 1.8690	12.3490
 1.8700	12.0250
 1.8710	11.6920
 1.8720	11.3560
 1.8730	11.0110
 1.8740	10.6620
 1.8750	10.3100
 1.8760	 9.9550
 1.8770	 9.6010
 1.8780	 9.2490
 1.8790	 8.8980
 1.8800	 8.5570
 1.8810	 8.2220
 1.8820	 7.8890
 1.8830	 7.5580
 1.8840	 7.2360
 1.8850	 6.9170
 1.8860	 6.6070
 1.8870	 6.3120
 1.8880	 6.0260
 1.8890	 5.7530
 1.8900	 5.4920
 1.8910	 5.2450
 1.8920	 5.0110
 1.8930	 4.7910
 1.8940	 4.5840
 1.8950	 4.3940
 1.8960	 4.2160
 1.8970	 4.0510
 1.8980	 3.9010
 1.8990	 3.7630
 1.9000	 3.6350
 1.9010	 3.5210
 1.9020	 3.4150
 1.9030	 3.3190
 1.9040	 3.2310
 1.9050	 3.1510
 1.9060	 3.0800
 1.9070	 3.0170
 1.9080	 2.9620
 1.9090	 2.9130
 1.9100	 2.8670
 1.9110	 2.8250
 1.9120	 2.7860
 1.9130	 2.7520
 1.9140	 2.7210
 1.9150	 2.6950
 1.9160	 2.6740
 1.9170	 2.6540
 1.9180	 2.6390
 1.9190	 2.6230
 1.9200	 2.6070
 1.9210	 2.5930
 1.9220	 2.5820
 1.9230	 2.5730
 1.9240	 2.5660
 1.9250	 2.5620
 1.9260	 2.5590
 1.9270	 2.5570
 1.9280	 2.5550
 1.9290	 2.5550
 1.9300	 2.5580
 1.9310	 2.5600
 1.9320	 2.5630
 1.9330	 2.5670
 1.9340	 2.5720
 1.9350	 2.5790
 1.9360	 2.5870
 1.9370	 2.5950
 1.9380	 2.6030
 1.9390	 2.6130
 1.9400	 2.6250
 1.9410	 2.6390
 1.9420	 2.6550
 1.9430	 2.6720
 1.9440	 2.6890
 1.9450	 2.7050
 1.9460	 2.7220
 1.9470	 2.7410
 1.9480	 2.7590
 1.9490	 2.7770
 1.9500	 2.7960
 1.9510	 2.8160
 1.9520	 2.8350
 1.9530	 2.8560
 1.9540	 2.8780
 1.9550	 2.9010
 1.9560	 2.9250
 1.9570	 2.9500
 1.9580	 2.9780
 1.9590	 3.0040
 1.9600	 3.0290
 1.9610	 3.0550
 1.9620	 3.0810
 1.9630	 3.1060
 1.9640	 3.1350
 1.9650	 3.1650
 1.9660	 3.1930
 1.9670	 3.2240
 1.9680	 3.2540
 1.9690	 3.2840
 1.9700	 3.3140
 1.9710	 3.3460
 1.9720	 3.3770
 1.9730	 3.4070
 1.9740	 3.4390
 1.9750	 3.4710
 1.9760	 3.5040
 1.9770	 3.5390
 1.9780	 3.5750
 1.9790	 3.6100
 1.9800	 3.6440
 1.9810	 3.6810
 1.9820	 3.7180
 1.9830	 3.7570
 1.9840	 3.7990
 1.9850	 3.8390
 1.9860	 3.8780
 1.9870	 3.9150
 1.9880	 3.9520
 1.9890	 3.9890
 1.9900	 4.0270
 1.9910	 4.0680
 1.9920	 4.1090
 1.9930	 4.1520
 1.9940	 4.1930
 1.9950	 4.2330
 1.9960	 4.2740
 1.9970	 4.3130
 1.9980	 4.3530
 1.9990	 4.3940
 2.0000	 4.4350
 2.0010	 4.4750
 2.0020	 4.5150
 2.0030	 4.5560
 2.0040	 4.5980
 2.0050	 4.6390
 2.0060	 4.6810
 2.0070	 4.7220
 2.0080	 4.7630
 2.0090	 4.8040
 2.0100	 4.8460
 2.0110	 4.8880
 2.0120	 4.9290
 2.0130	 4.9720
 2.0140	 5.0120
 2.0150	 5.0540
 2.0160	 5.0970
 2.0170	 5.1380
 2.0180	 5.1780
 2.0190	 5.2180
 2.0200	 5.2580
 2.0210	 5.2970
 2.0220	 5.3370
 2.0230	 5.3780
 2.0240	 5.4170
 2.0250	 5.4560
 2.0260	 5.4950
 2.0270	 5.5340
 2.0280	 5.5730
 2.0290	 5.6100
 2.0300	 5.6490
 2.0310	 5.6870
 2.0320	 5.7250
 2.0330	 5.7620
 2.0340	 5.7990
 2.0350	 5.8380
 2.0360	 5.8790
 2.0370	 5.9160
 2.0380	 5.9520
 2.0390	 5.9870
 2.0400	 6.0170
 2.0410	 6.0490
 2.0420	 6.0820
 2.0430	 6.1150
 2.0440	 6.1480
 2.0450	 6.1810
 2.0460	 6.2150
 2.0470	 6.2490
 2.0480	 6.2820
 2.0490	 6.3160
 2.0500	 6.3500
 2.0510	 6.3840
 2.0520	 6.4170
 2.0530	 6.4520
 2.0540	 6.4870
 2.0550	 6.5220
 2.0560	 6.5550
 2.0570	 6.5890
 2.0580	 6.6230
 2.0590	 6.6580
 2.0600	 6.6930
 2.0610	 6.7280
 2.0620	 6.7640
 2.0630	 6.8000
 2.0640	 6.8360
 2.0650	 6.8710
 2.0660	 6.9070
 2.0670	 6.9420
 2.0680	 6.9770
 2.0690	 7.0130
 2.0700	 7.0500
 2.0710	 7.0860
 2.0720	 7.1220
 2.0730	 7.1580
 2.0740	 7.1940
 2.0750	 7.2310
 2.0760	 7.2680
 2.0770	 7.3060
 2.0780	 7.3430
 2.0790	 7.3810
 2.0800	 7.4160
 2.0810	 7.4510
 2.0820	 7.4860
 2.0830	 7.5200
 2.0840	 7.5540
 2.0850	 7.5880
 2.0860	 7.6230
 2.0870	 7.6610
 2.0880	 7.6950
 2.0890	 7.7290
 2.0900	 7.7620
 2.0910	 7.7940
 2.0920	 7.8210
 2.0930	 7.8540
 2.0940	 7.8890
 2.0950	 7.9240
 2.0960	 7.9600
 2.0970	 7.9940
 2.0980	 8.0270
 2.0990	 8.0600
 2.1000	 8.0900
 2.1010	 8.1230
 2.1020	 8.1560
 2.1030	 8.1890
 2.1040	 8.2240
 2.1050	 8.2600
 2.1060	 8.2940
 2.1070	 8.3270
 2.1080	 8.3590
 2.1090	 8.3900
 2.1100	 8.4210
 2.1110	 8.4530
 2.1120	 8.4850
 2.1130	 8.5170
 2.1140	 8.5480
 2.1150	 8.5770
 2.1160	 8.6070
 2.1170	 8.6360
 2.1180	 8.6660
 2.1190	 8.6990
 2.1200	 8.7300
 2.1210	 8.7590
 2.1220	 8.7900
 2.1230	 8.8190
 2.1240	 8.8450
 2.1250	 8.8720
 2.1260	 8.9000
 2.1270	 8.9260
 2.1280	 8.9530
 2.1290	 8.9760
 2.1300	 8.9940
 2.1310	 9.0160
 2.1320	 9.0370
 2.1330	 9.0600
 2.1340	 9.0860
 2.1350	 9.1100
 2.1360	 9.1330
 2.1370	 9.1560
 2.1380	 9.1790
 2.1390	 9.2010
 2.1400	 9.2200
 2.1410	 9.2400
 2.1420	 9.2610
 2.1430	 9.2800
 2.1440	 9.3030
 2.1450	 9.3300
 2.1460	 9.3550
 2.1470	 9.3810
 2.1480	 9.4060
 2.1490	 9.4270
 2.1500	 9.4500
 2.1510	 9.4750
 2.1520	 9.4980
 2.1530	 9.5210
 2.1540	 9.5420
 2.1550	 9.5590
 2.1560	 9.5780
 2.1570	 9.5970
 2.1580	 9.6150
 2.1590	 9.6330
 2.1600	 9.6490
 2.1610	 9.6680
 2.1620	 9.6870
 2.1630	 9.7070
 2.1640	 9.7320
 2.1650	 9.7500
 2.1660	 9.7640
 2.1670	 9.7810
 2.1680	 9.7960
 2.1690	 9.8130
 2.1700	 9.8330
 2.1710	 9.8500
 2.1720	 9.8630
 2.1730	 9.8780
 2.1740	 9.8950
 2.1750	 9.9110
 2.1760	 9.9280
 2.1770	 9.9440
 2.1780	 9.9610
 2.1790	 9.9780
 2.1800	 9.9960
 2.1810	10.0120
 2.1820	10.0280
 2.1830	10.0450
 2.1840	10.0600
 2.1850	10.0740
 2.1860	10.0910
 2.1870	10.1100
 2.1880	10.1270
 2.1890	10.1460
 2.1900	10.1640
 2.1910	10.1800
 2.1920	10.1950
 2.1930	10.2110
 2.1940	10.2260
 2.1950	10.2380
 2.1960	10.2520
 2.1970	10.2670
 2.1980	10.2800
 2.1990	10.2910
 2.2000	10.3030
 2.2010	10.3130
 2.2020	10.3240
 2.2030	10.3360
 2.2040	10.3470
 2.2050	10.3580
 2.2060	10.3670
 2.2070	10.3780
 2.2080	10.3890
 2.2090	10.3970
 2.2100	10.4020
 2.2110	10.4080
 2.2120	10.4130
 2.2130	10.4170
 2.2140	10.4220
 2.2150	10.4260
 2.2160	10.4270
 2.2170	10.4290
 2.2180	10.4340
 2.2190	10.4340
 2.2200	10.4330
 2.2210	10.4300
 2.2220	10.4220
 2.2230	10.4150
 2.2240	10.4070
 2.2250	10.3990
 2.2260	10.3910
 2.2270	10.3800
 2.2280	10.3680
 2.2290	10.3540
 2.2300	10.3370
 2.2310	10.3180
 2.2320	10.2970
 2.2330	10.2740
 2.2340	10.2480
 2.2350	10.2200
 2.2360	10.1930
 2.2370	10.1640
 2.2380	10.1330
 2.2390	10.1010
 2.2400	10.0680
 2.2410	10.0350
 2.2420	10.0000
 2.2430	 9.9650
 2.2440	 9.9290
 2.2450	 9.8870
 2.2460	 9.8500
 2.2470	 9.8160
 2.2480	 9.7790
 2.2490	 9.7430
 2.2500	 9.7050
 2.2510	 9.6660
 2.2520	 9.6240
 2.2530	 9.5790
 2.2540	 9.5370
 2.2550	 9.4950
 2.2560	 9.4530
 2.2570	 9.4150
 2.2580	 9.3760
 2.2590	 9.3340
 2.2600	 9.2940
 2.2610	 9.2550
 2.2620	 9.2180
 2.2630	 9.1830
 2.2640	 9.1430
 2.2650	 9.1030
 2.2660	 9.0600
 2.2670	 9.0200
 2.2680	 8.9800
 2.2690	 8.9430
 2.2700	 8.9090
 2.2710	 8.8730
 2.2720	 8.8360
 2.2730	 8.8030
 2.2740	 8.7700
 2.2750	 8.7380
 2.2760	 8.7080
 2.2770	 8.6760
 2.2780	 8.6420
 2.2790	 8.6100
 2.2800	 8.5800
 2.2810	 8.5460
 2.2820	 8.5120
 2.2830	 8.4770
 2.2840	 8.4410
 2.2850	 8.4070
 2.2860	 8.3720
 2.2870	 8.3390
 2.2880	 8.3110
 2.2890	 8.2760
 2.2900	 8.2370
 2.2910	 8.1990
 2.2920	 8.1600
 2.2930	 8.1180
 2.2940	 8.0740
 2.2950	 8.0300
 2.2960	 7.9800
 2.2970	 7.9370
 2.2980	 7.9010
 2.2990	 7.8680
 2.3000	 7.8350
 2.3010	 7.8000
 2.3020	 7.7640
 2.3030	 7.7280
 2.3040	 7.6980
 2.3050	 7.6720
 2.3060	 7.6460
 2.3070	 7.6210
 2.3080	 7.5940
 2.3090	 7.5670
 2.3100	 7.5400
 2.3110	 7.5210
 2.3120	 7.5020
 2.3130	 7.4860
 2.3140	 7.4690
 2.3150	 7.4580
 2.3160	 7.4380
 2.3170	 7.4140
 2.3180	 7.3920
 2.3190	 7.3640
 2.3200	 7.3440
 2.3210	 7.3300
 2.3220	 7.3130
 2.3230	 7.2980
 2.3240	 7.2810
 2.3250	 7.2620
 2.3260	 7.2400
 2.3270	 7.2140
 2.3280	 7.1890
 2.3290	 7.1610
 2.3300	 7.1320
 2.3310	 7.1050
 2.3320	 7.0730
 2.3330	 7.0350
 2.3340	 7.0000
 2.3350	 6.9630
 2.3360	 6.9310
 2.3370	 6.9050
 2.3380	 6.8720
 2.3390	 6.8380
 2.3400	 6.8050
 2.3410	 6.7670
 2.3420	 6.7340
 2.3430	 6.7080
 2.3440	 6.6760
 2.3450	 6.6400
 2.3460	 6.6080
 2.3470	 6.5770
 2.3480	 6.5470
 2.3490	 6.5170
 2.3500	 6.4910
 2.3510	 6.4660
 2.3520	 6.4420
 2.3530	 6.4250
 2.3540	 6.4040
 2.3550	 6.3790
 2.3560	 6.3570
 2.3570	 6.3330
 2.3580	 6.3090
 2.3590	 6.2790
 2.3600	 6.2510
 2.3610	 6.2260
 2.3620	 6.1990
 2.3630	 6.1770
 2.3640	 6.1500
 2.3650	 6.1200
 2.3660	 6.0990
 2.3670	 6.0820
 2.3680	 6.0680
 2.3690	 6.0440
 2.3700	 6.0140
 2.3710	 5.9770
 2.3720	 5.9370
 2.3730	 5.9070
 2.3740	 5.8820
 2.3750	 5.8620
 2.3760	 5.8400
 2.3770	 5.8140
 2.3780	 5.7840
 2.3790	 5.7450
 2.3800	 5.7150
 2.3810	 5.6930
 2.3820	 5.6740
 2.3830	 5.6520
 2.3840	 5.6290
 2.3850	 5.6050
 2.3860	 5.5660
 2.3870	 5.5270
 2.3880	 5.5010
 2.3890	 5.4680
 2.3900	 5.4390
 2.3910	 5.4250
 2.3920	 5.4020
 2.3930	 5.3770
 2.3940	 5.3510
 2.3950	 5.3110
 2.3960	 5.2740
 2.3970	 5.2440
 2.3980	 5.2110
 2.3990	 5.1910
 2.4000	 5.1710
 2.4010	 5.1370
 2.4020	 5.1070
 2.4030	 5.0810
 2.4040	 5.0520
 2.4050	 5.0330
 2.4060	 5.0180
 2.4070	 4.9880
 2.4080	 4.9630
 2.4090	 4.9440
 2.4100	 4.9100
 2.4110	 4.8830
 2.4120	 4.8570
 2.4130	 4.8130
 2.4140	 4.7790
 2.4150	 4.7610
 2.4160	 4.7360
 2.4170	 4.7060
 2.4180	 4.6720
 2.4190	 4.6430
 2.4200	 4.6100
 2.4210	 4.5870
 2.4220	 4.5740
 2.4230	 4.5360
 2.4240	 4.4960
 2.4250	 4.4620
 2.4260	 4.4270
 2.4270	 4.4030
 2.4280	 4.3840
 2.4290	 4.3590
 2.4300	 4.3330
 2.4310	 4.3150
 2.4320	 4.2810
 2.4330	 4.2420
 2.4340	 4.2160
 2.4350	 4.1770
 2.4360	 4.1430
 2.4370	 4.1150
 2.4380	 4.0770
 2.4390	 4.0590
 2.4400	 4.0430
 2.4410	 4.0210
 2.4420	 4.0080
 2.4430	 3.9680
 2.4440	 3.9240
 2.4450	 3.8950
 2.4460	 3.8630
 2.4470	 3.8340
 2.4480	 3.8030
 2.4490	 3.7850
 2.4500	 3.7650
 2.4510	 3.7290
 2.4520	 3.7090
 2.4530	 3.6890
 2.4540	 3.6530
 2.4550	 3.6380
 2.4560	 3.6220
 2.4570	 3.5810
 2.4580	 3.5500
 2.4590	 3.5110
 2.4600	 3.4710
 2.4610	 3.4490
 2.4620	 3.4230
 2.4630	 3.4100
 2.4640	 3.4150
 2.4650	 3.4100
 2.4660	 3.3910
 2.4670	 3.3830
 2.4680	 3.3660
 2.4690	 3.3200
 2.4700	 3.2970
 2.4710	 3.2770
 2.4720	 3.2540
 2.4730	 3.2420
 2.4740	 3.2310
 2.4750	 3.2200
 2.4760	 3.2050
 2.4770	 3.1970
 2.4780	 3.1840
 2.4790	 3.1590
 2.4800	 3.1460
 2.4810	 3.1420
 2.4820	 3.1310
 2.4830	 3.1200
 2.4840	 3.1020
 2.4850	 3.0820
 2.4860	 3.0640
 2.4870	 3.0370
 2.4880	 3.0160
 2.4890	 2.9930
 2.4900	 2.9890
 2.4910	 3.0150
 2.4920	 3.0200
 2.4930	 3.0330
 2.4940	 3.0200
 2.4950	 2.9690
 2.4960	 2.9640
 2.4970	 2.9490
 2.4980	 2.9230
 2.4990	 2.9270
 2.5000	 2.9000
