Name: Tipuana tipu
Type: vegetation
Class: Tree
Genus: Tipuana
Species: tipu
Sample No.: JPL252
Owner: JPL
Wavelength Range: VSWIR
Origin: 34.12974; -118.11245; WGS84
Collection Date: 10/6/2016
Description: Samples were collected at the Huntington Garden in San Marino California as part of a JPL Subcontract studying HyTES imagery. Samples were taken to JPL and processed within 48 hours of collection. The same leaves were processed in the Nicolet and then measured using the ASD.
Measurement: Bidirectional reflectance
First Column: X
Second Column: Y
X Units: Wavelength (micrometer)
Y Units: Reflectance (percentage)
First X Value: 0.35
Last X Value: 2.5
Number of X Values: 2151
Additional Information: vegetation.tree.tipuana.tipu.vswir.jpl252.jpl.asd.ancillary.txt

 0.3500	 4.9270
 0.3510	 4.8140
 0.3520	 4.6340
 0.3530	 4.5520
 0.3540	 4.6320
 0.3550	 4.6050
 0.3560	 4.5800
 0.3570	 4.5570
 0.3580	 4.4910
 0.3590	 4.5280
 0.3600	 4.5470
 0.3610	 4.4990
 0.3620	 4.4610
 0.3630	 4.4320
 0.3640	 4.4280
 0.3650	 4.4480
 0.3660	 4.4280
 0.3670	 4.3810
 0.3680	 4.3440
 0.3690	 4.3630
 0.3700	 4.3600
 0.3710	 4.3640
 0.3720	 4.3880
 0.3730	 4.3790
 0.3740	 4.3420
 0.3750	 4.2970
 0.3760	 4.2690
 0.3770	 4.2900
 0.3780	 4.2900
 0.3790	 4.2840
 0.3800	 4.3510
 0.3810	 4.3520
 0.3820	 4.3100
 0.3830	 4.2720
 0.3840	 4.2940
 0.3850	 4.2440
 0.3860	 4.2010
 0.3870	 4.2740
 0.3880	 4.2870
 0.3890	 4.2530
 0.3900	 4.2120
 0.3910	 4.2110
 0.3920	 4.1930
 0.3930	 4.1620
 0.3940	 4.1440
 0.3950	 4.1920
 0.3960	 4.2110
 0.3970	 4.1980
 0.3980	 4.1920
 0.3990	 4.2200
 0.4000	 4.2240
 0.4010	 4.1970
 0.4020	 4.2090
 0.4030	 4.2290
 0.4040	 4.2390
 0.4050	 4.2330
 0.4060	 4.2270
 0.4070	 4.2430
 0.4080	 4.2710
 0.4090	 4.2820
 0.4100	 4.2820
 0.4110	 4.2830
 0.4120	 4.2950
 0.4130	 4.3240
 0.4140	 4.3500
 0.4150	 4.3670
 0.4160	 4.3800
 0.4170	 4.4160
 0.4180	 4.4500
 0.4190	 4.4710
 0.4200	 4.4890
 0.4210	 4.5090
 0.4220	 4.5370
 0.4230	 4.5700
 0.4240	 4.5950
 0.4250	 4.6220
 0.4260	 4.6500
 0.4270	 4.6750
 0.4280	 4.7070
 0.4290	 4.7340
 0.4300	 4.7540
 0.4310	 4.7790
 0.4320	 4.8020
 0.4330	 4.8250
 0.4340	 4.8520
 0.4350	 4.8670
 0.4360	 4.8830
 0.4370	 4.9010
 0.4380	 4.9100
 0.4390	 4.9220
 0.4400	 4.9320
 0.4410	 4.9350
 0.4420	 4.9450
 0.4430	 4.9520
 0.4440	 4.9580
 0.4450	 4.9710
 0.4460	 4.9840
 0.4470	 4.9980
 0.4480	 5.0120
 0.4490	 5.0190
 0.4500	 5.0310
 0.4510	 5.0440
 0.4520	 5.0560
 0.4530	 5.0690
 0.4540	 5.0750
 0.4550	 5.0820
 0.4560	 5.1020
 0.4570	 5.1080
 0.4580	 5.1090
 0.4590	 5.1100
 0.4600	 5.1130
 0.4610	 5.1170
 0.4620	 5.1210
 0.4630	 5.1240
 0.4640	 5.1280
 0.4650	 5.1270
 0.4660	 5.1220
 0.4670	 5.1220
 0.4680	 5.1240
 0.4690	 5.1240
 0.4700	 5.1220
 0.4710	 5.1160
 0.4720	 5.1150
 0.4730	 5.1140
 0.4740	 5.1040
 0.4750	 5.0980
 0.4760	 5.0970
 0.4770	 5.0990
 0.4780	 5.0910
 0.4790	 5.0870
 0.4800	 5.0860
 0.4810	 5.0810
 0.4820	 5.0830
 0.4830	 5.0930
 0.4840	 5.1060
 0.4850	 5.1090
 0.4860	 5.1150
 0.4870	 5.1210
 0.4880	 5.1260
 0.4890	 5.1430
 0.4900	 5.1560
 0.4910	 5.1680
 0.4920	 5.1840
 0.4930	 5.1980
 0.4940	 5.2160
 0.4950	 5.2400
 0.4960	 5.2630
 0.4970	 5.2860
 0.4980	 5.3110
 0.4990	 5.3410
 0.5000	 5.3750
 0.5010	 5.4130
 0.5020	 5.4540
 0.5030	 5.4990
 0.5040	 5.5430
 0.5050	 5.5940
 0.5060	 5.6530
 0.5070	 5.7130
 0.5080	 5.7830
 0.5090	 5.8610
 0.5100	 5.9400
 0.5110	 6.0270
 0.5120	 6.1200
 0.5130	 6.2170
 0.5140	 6.3260
 0.5150	 6.4420
 0.5160	 6.5680
 0.5170	 6.7010
 0.5180	 6.8420
 0.5190	 6.9900
 0.5200	 7.1450
 0.5210	 7.3070
 0.5220	 7.4700
 0.5230	 7.6350
 0.5240	 7.8020
 0.5250	 7.9680
 0.5260	 8.1310
 0.5270	 8.2890
 0.5280	 8.4410
 0.5290	 8.5860
 0.5300	 8.7230
 0.5310	 8.8500
 0.5320	 8.9710
 0.5330	 9.0840
 0.5340	 9.1870
 0.5350	 9.2820
 0.5360	 9.3640
 0.5370	 9.4400
 0.5380	 9.5120
 0.5390	 9.5810
 0.5400	 9.6540
 0.5410	 9.7310
 0.5420	 9.8080
 0.5430	 9.8750
 0.5440	 9.9210
 0.5450	 9.9470
 0.5460	 9.9600
 0.5470	 9.9620
 0.5480	 9.9640
 0.5490	 9.9720
 0.5500	 9.9860
 0.5510	 9.9940
 0.5520	 9.9910
 0.5530	 9.9760
 0.5540	 9.9510
 0.5550	 9.9110
 0.5560	 9.8590
 0.5570	 9.8000
 0.5580	 9.7290
 0.5590	 9.6500
 0.5600	 9.5660
 0.5610	 9.4730
 0.5620	 9.3790
 0.5630	 9.2840
 0.5640	 9.1820
 0.5650	 9.0790
 0.5660	 8.9740
 0.5670	 8.8670
 0.5680	 8.7530
 0.5690	 8.6370
 0.5700	 8.5200
 0.5710	 8.4030
 0.5720	 8.2910
 0.5730	 8.1820
 0.5740	 8.0770
 0.5750	 7.9750
 0.5760	 7.8820
 0.5770	 7.7960
 0.5780	 7.7170
 0.5790	 7.6440
 0.5800	 7.5800
 0.5810	 7.5200
 0.5820	 7.4600
 0.5830	 7.4050
 0.5840	 7.3550
 0.5850	 7.3060
 0.5860	 7.2580
 0.5870	 7.2140
 0.5880	 7.1730
 0.5890	 7.1360
 0.5900	 7.0980
 0.5910	 7.0640
 0.5920	 7.0340
 0.5930	 7.0070
 0.5940	 6.9820
 0.5950	 6.9600
 0.5960	 6.9390
 0.5970	 6.9200
 0.5980	 6.9010
 0.5990	 6.8800
 0.6000	 6.8580
 0.6010	 6.8320
 0.6020	 6.8010
 0.6030	 6.7650
 0.6040	 6.7270
 0.6050	 6.6850
 0.6060	 6.6380
 0.6070	 6.5900
 0.6080	 6.5390
 0.6090	 6.4930
 0.6100	 6.4570
 0.6110	 6.4270
 0.6120	 6.3740
 0.6130	 6.3020
 0.6140	 6.2250
 0.6150	 6.1640
 0.6160	 6.1070
 0.6170	 6.0550
 0.6180	 6.0110
 0.6190	 5.9720
 0.6200	 5.9370
 0.6210	 5.9050
 0.6220	 5.8760
 0.6230	 5.8490
 0.6240	 5.8240
 0.6250	 5.8020
 0.6260	 5.7870
 0.6270	 5.7720
 0.6280	 5.7600
 0.6290	 5.7510
 0.6300	 5.7430
 0.6310	 5.7350
 0.6320	 5.7240
 0.6330	 5.7120
 0.6340	 5.6980
 0.6350	 5.6820
 0.6360	 5.6630
 0.6370	 5.6390
 0.6380	 5.6110
 0.6390	 5.5800
 0.6400	 5.5470
 0.6410	 5.5150
 0.6420	 5.4790
 0.6430	 5.4410
 0.6440	 5.4030
 0.6450	 5.3640
 0.6460	 5.3260
 0.6470	 5.2890
 0.6480	 5.2490
 0.6490	 5.2130
 0.6500	 5.1810
 0.6510	 5.1490
 0.6520	 5.1170
 0.6530	 5.0870
 0.6540	 5.0600
 0.6550	 5.0300
 0.6560	 4.9960
 0.6570	 4.9600
 0.6580	 4.9210
 0.6590	 4.8800
 0.6600	 4.8380
 0.6610	 4.7960
 0.6620	 4.7560
 0.6630	 4.7190
 0.6640	 4.6860
 0.6650	 4.6560
 0.6660	 4.6310
 0.6670	 4.6100
 0.6680	 4.5950
 0.6690	 4.5860
 0.6700	 4.5790
 0.6710	 4.5790
 0.6720	 4.5850
 0.6730	 4.5930
 0.6740	 4.6060
 0.6750	 4.6230
 0.6760	 4.6430
 0.6770	 4.6660
 0.6780	 4.6950
 0.6790	 4.7280
 0.6800	 4.7630
 0.6810	 4.8040
 0.6820	 4.8510
 0.6830	 4.9030
 0.6840	 4.9600
 0.6850	 5.0240
 0.6860	 5.0950
 0.6870	 5.1750
 0.6880	 5.2660
 0.6890	 5.3750
 0.6900	 5.5060
 0.6910	 5.6620
 0.6920	 5.8480
 0.6930	 6.0670
 0.6940	 6.3240
 0.6950	 6.6250
 0.6960	 6.9730
 0.6970	 7.3690
 0.6980	 7.8120
 0.6990	 8.3040
 0.7000	 8.8460
 0.7010	 9.4330
 0.7020	10.0600
 0.7030	10.7260
 0.7040	11.4280
 0.7050	12.1610
 0.7060	12.9220
 0.7070	13.7080
 0.7080	14.5160
 0.7090	15.3450
 0.7100	16.1940
 0.7110	17.0650
 0.7120	17.9570
 0.7130	18.8640
 0.7140	19.7850
 0.7150	20.7210
 0.7160	21.6710
 0.7170	22.6320
 0.7180	23.6010
 0.7190	24.5730
 0.7200	25.5450
 0.7210	26.5170
 0.7220	27.4840
 0.7230	28.4410
 0.7240	29.3880
 0.7250	30.3230
 0.7260	31.2370
 0.7270	32.1280
 0.7280	32.9940
 0.7290	33.8340
 0.7300	34.6470
 0.7310	35.4300
 0.7320	36.1820
 0.7330	36.9020
 0.7340	37.5890
 0.7350	38.2430
 0.7360	38.8640
 0.7370	39.4520
 0.7380	40.0080
 0.7390	40.5320
 0.7400	41.0260
 0.7410	41.4880
 0.7420	41.9200
 0.7430	42.3210
 0.7440	42.6930
 0.7450	43.0390
 0.7460	43.3580
 0.7470	43.6530
 0.7480	43.9220
 0.7490	44.1660
 0.7500	44.3930
 0.7510	44.6020
 0.7520	44.7900
 0.7530	44.9600
 0.7540	45.1160
 0.7550	45.2570
 0.7560	45.3840
 0.7570	45.5020
 0.7580	45.6050
 0.7590	45.7000
 0.7600	45.7880
 0.7610	45.8670
 0.7620	45.9370
 0.7630	46.0000
 0.7640	46.0570
 0.7650	46.1090
 0.7660	46.1540
 0.7670	46.1930
 0.7680	46.2280
 0.7690	46.2580
 0.7700	46.2860
 0.7710	46.3130
 0.7720	46.3370
 0.7730	46.3570
 0.7740	46.3760
 0.7750	46.3960
 0.7760	46.4110
 0.7770	46.4240
 0.7780	46.4360
 0.7790	46.4480
 0.7800	46.4600
 0.7810	46.4730
 0.7820	46.4860
 0.7830	46.4940
 0.7840	46.5030
 0.7850	46.5100
 0.7860	46.5140
 0.7870	46.5180
 0.7880	46.5230
 0.7890	46.5250
 0.7900	46.5240
 0.7910	46.5270
 0.7920	46.5280
 0.7930	46.5260
 0.7940	46.5240
 0.7950	46.5240
 0.7960	46.5220
 0.7970	46.5180
 0.7980	46.5110
 0.7990	46.5030
 0.8000	46.4950
 0.8010	46.4870
 0.8020	46.4830
 0.8030	46.4750
 0.8040	46.4640
 0.8050	46.4540
 0.8060	46.4430
 0.8070	46.4310
 0.8080	46.4200
 0.8090	46.4090
 0.8100	46.3960
 0.8110	46.3830
 0.8120	46.3700
 0.8130	46.3530
 0.8140	46.3370
 0.8150	46.3230
 0.8160	46.3090
 0.8170	46.2950
 0.8180	46.2810
 0.8190	46.2650
 0.8200	46.2480
 0.8210	46.2340
 0.8220	46.2200
 0.8230	46.2050
 0.8240	46.1890
 0.8250	46.1730
 0.8260	46.1570
 0.8270	46.1420
 0.8280	46.1290
 0.8290	46.1120
 0.8300	46.0960
 0.8310	46.0850
 0.8320	46.0700
 0.8330	46.0580
 0.8340	46.0480
 0.8350	46.0330
 0.8360	46.0250
 0.8370	46.0160
 0.8380	46.0070
 0.8390	46.0000
 0.8400	45.9930
 0.8410	45.9870
 0.8420	45.9830
 0.8430	45.9770
 0.8440	45.9730
 0.8450	45.9680
 0.8460	45.9630
 0.8470	45.9600
 0.8480	45.9600
 0.8490	45.9600
 0.8500	45.9570
 0.8510	45.9530
 0.8520	45.9510
 0.8530	45.9530
 0.8540	45.9570
 0.8550	45.9550
 0.8560	45.9530
 0.8570	45.9550
 0.8580	45.9580
 0.8590	45.9610
 0.8600	45.9670
 0.8610	45.9740
 0.8620	45.9750
 0.8630	45.9810
 0.8640	45.9890
 0.8650	45.9950
 0.8660	45.9990
 0.8670	46.0040
 0.8680	46.0100
 0.8690	46.0180
 0.8700	46.0270
 0.8710	46.0340
 0.8720	46.0400
 0.8730	46.0490
 0.8740	46.0570
 0.8750	46.0670
 0.8760	46.0770
 0.8770	46.0810
 0.8780	46.0880
 0.8790	46.0950
 0.8800	46.1030
 0.8810	46.1120
 0.8820	46.1260
 0.8830	46.1380
 0.8840	46.1440
 0.8850	46.1480
 0.8860	46.1560
 0.8870	46.1660
 0.8880	46.1730
 0.8890	46.1810
 0.8900	46.1910
 0.8910	46.2000
 0.8920	46.2050
 0.8930	46.2130
 0.8940	46.2230
 0.8950	46.2320
 0.8960	46.2360
 0.8970	46.2470
 0.8980	46.2550
 0.8990	46.2600
 0.9000	46.2720
 0.9010	46.2780
 0.9020	46.2830
 0.9030	46.2910
 0.9040	46.2980
 0.9050	46.3040
 0.9060	46.3090
 0.9070	46.3150
 0.9080	46.3220
 0.9090	46.3220
 0.9100	46.3240
 0.9110	46.3330
 0.9120	46.3380
 0.9130	46.3410
 0.9140	46.3430
 0.9150	46.3450
 0.9160	46.3520
 0.9170	46.3540
 0.9180	46.3530
 0.9190	46.3550
 0.9200	46.3580
 0.9210	46.3520
 0.9220	46.3430
 0.9230	46.3410
 0.9240	46.3370
 0.9250	46.3270
 0.9260	46.3140
 0.9270	46.3090
 0.9280	46.2980
 0.9290	46.2820
 0.9300	46.2660
 0.9310	46.2550
 0.9320	46.2410
 0.9330	46.2250
 0.9340	46.2060
 0.9350	46.1810
 0.9360	46.1590
 0.9370	46.1400
 0.9380	46.1230
 0.9390	46.1010
 0.9400	46.0700
 0.9410	46.0410
 0.9420	46.0180
 0.9430	45.9890
 0.9440	45.9600
 0.9450	45.9230
 0.9460	45.8780
 0.9470	45.8440
 0.9480	45.8120
 0.9490	45.7740
 0.9500	45.7270
 0.9510	45.6800
 0.9520	45.6290
 0.9530	45.5790
 0.9540	45.5300
 0.9550	45.4770
 0.9560	45.4280
 0.9570	45.3820
 0.9580	45.3330
 0.9590	45.2900
 0.9600	45.2480
 0.9610	45.2090
 0.9620	45.1760
 0.9630	45.1400
 0.9640	45.1140
 0.9650	45.0940
 0.9660	45.0710
 0.9670	45.0490
 0.9680	45.0260
 0.9690	45.0080
 0.9700	44.9970
 0.9710	44.9710
 0.9720	44.9550
 0.9730	44.9500
 0.9740	44.9430
 0.9750	44.9260
 0.9760	44.9210
 0.9770	44.9270
 0.9780	44.9280
 0.9790	44.9140
 0.9800	44.9020
 0.9810	44.8960
 0.9820	44.8890
 0.9830	44.8850
 0.9840	44.8860
 0.9850	44.8860
 0.9860	44.8810
 0.9870	44.8880
 0.9880	44.8990
 0.9890	44.9070
 0.9900	44.9070
 0.9910	44.9120
 0.9920	44.9180
 0.9930	44.9320
 0.9940	44.9560
 0.9950	44.9680
 0.9960	44.9730
 0.9970	44.9750
 0.9980	44.9750
 0.9990	44.9870
 1.0000	45.0030
 1.0010	45.7290
 1.0020	45.7380
 1.0030	45.7480
 1.0040	45.7590
 1.0050	45.7700
 1.0060	45.7800
 1.0070	45.7890
 1.0080	45.8020
 1.0090	45.8170
 1.0100	45.8290
 1.0110	45.8440
 1.0120	45.8550
 1.0130	45.8600
 1.0140	45.8690
 1.0150	45.8800
 1.0160	45.8890
 1.0170	45.9020
 1.0180	45.9150
 1.0190	45.9290
 1.0200	45.9400
 1.0210	45.9490
 1.0220	45.9560
 1.0230	45.9670
 1.0240	45.9790
 1.0250	45.9890
 1.0260	46.0010
 1.0270	46.0130
 1.0280	46.0230
 1.0290	46.0340
 1.0300	46.0480
 1.0310	46.0610
 1.0320	46.0730
 1.0330	46.0840
 1.0340	46.0970
 1.0350	46.1090
 1.0360	46.1190
 1.0370	46.1290
 1.0380	46.1390
 1.0390	46.1470
 1.0400	46.1570
 1.0410	46.1680
 1.0420	46.1770
 1.0430	46.1830
 1.0440	46.1910
 1.0450	46.2000
 1.0460	46.2070
 1.0470	46.2130
 1.0480	46.2210
 1.0490	46.2290
 1.0500	46.2360
 1.0510	46.2430
 1.0520	46.2500
 1.0530	46.2550
 1.0540	46.2560
 1.0550	46.2590
 1.0560	46.2610
 1.0570	46.2650
 1.0580	46.2720
 1.0590	46.2750
 1.0600	46.2780
 1.0610	46.2820
 1.0620	46.2840
 1.0630	46.2860
 1.0640	46.2890
 1.0650	46.2910
 1.0660	46.2910
 1.0670	46.2910
 1.0680	46.2910
 1.0690	46.2910
 1.0700	46.2920
 1.0710	46.2930
 1.0720	46.2930
 1.0730	46.2970
 1.0740	46.2940
 1.0750	46.2860
 1.0760	46.2830
 1.0770	46.2760
 1.0780	46.2720
 1.0790	46.2740
 1.0800	46.2720
 1.0810	46.2690
 1.0820	46.2650
 1.0830	46.2590
 1.0840	46.2530
 1.0850	46.2450
 1.0860	46.2390
 1.0870	46.2330
 1.0880	46.2250
 1.0890	46.2190
 1.0900	46.2150
 1.0910	46.2080
 1.0920	46.2030
 1.0930	46.1940
 1.0940	46.1810
 1.0950	46.1700
 1.0960	46.1570
 1.0970	46.1470
 1.0980	46.1420
 1.0990	46.1320
 1.1000	46.1200
 1.1010	46.1090
 1.1020	46.0950
 1.1030	46.0830
 1.1040	46.0740
 1.1050	46.0640
 1.1060	46.0520
 1.1070	46.0370
 1.1080	46.0230
 1.1090	46.0080
 1.1100	45.9940
 1.1110	45.9810
 1.1120	45.9670
 1.1130	45.9520
 1.1140	45.9370
 1.1150	45.9220
 1.1160	45.9050
 1.1170	45.8860
 1.1180	45.8670
 1.1190	45.8480
 1.1200	45.8260
 1.1210	45.8030
 1.1220	45.7760
 1.1230	45.7450
 1.1240	45.7120
 1.1250	45.6760
 1.1260	45.6390
 1.1270	45.5940
 1.1280	45.5470
 1.1290	45.4910
 1.1300	45.4300
 1.1310	45.3630
 1.1320	45.2900
 1.1330	45.2140
 1.1340	45.1330
 1.1350	45.0450
 1.1360	44.9530
 1.1370	44.8560
 1.1380	44.7500
 1.1390	44.6400
 1.1400	44.5260
 1.1410	44.4090
 1.1420	44.2900
 1.1430	44.1700
 1.1440	44.0500
 1.1450	43.9290
 1.1460	43.8130
 1.1470	43.6970
 1.1480	43.5860
 1.1490	43.4760
 1.1500	43.3730
 1.1510	43.2720
 1.1520	43.1780
 1.1530	43.0870
 1.1540	43.0060
 1.1550	42.9320
 1.1560	42.8610
 1.1570	42.7980
 1.1580	42.7400
 1.1590	42.6830
 1.1600	42.6340
 1.1610	42.5900
 1.1620	42.5510
 1.1630	42.5170
 1.1640	42.4840
 1.1650	42.4530
 1.1660	42.4230
 1.1670	42.3970
 1.1680	42.3740
 1.1690	42.3530
 1.1700	42.3350
 1.1710	42.3160
 1.1720	42.2970
 1.1730	42.2780
 1.1740	42.2600
 1.1750	42.2410
 1.1760	42.2230
 1.1770	42.2050
 1.1780	42.1850
 1.1790	42.1650
 1.1800	42.1490
 1.1810	42.1300
 1.1820	42.1110
 1.1830	42.0950
 1.1840	42.0750
 1.1850	42.0580
 1.1860	42.0430
 1.1870	42.0270
 1.1880	42.0130
 1.1890	42.0010
 1.1900	41.9910
 1.1910	41.9810
 1.1920	41.9730
 1.1930	41.9660
 1.1940	41.9590
 1.1950	41.9530
 1.1960	41.9470
 1.1970	41.9420
 1.1980	41.9410
 1.1990	41.9420
 1.2000	41.9460
 1.2010	41.9500
 1.2020	41.9550
 1.2030	41.9600
 1.2040	41.9650
 1.2050	41.9710
 1.2060	41.9770
 1.2070	41.9840
 1.2080	41.9910
 1.2090	42.0010
 1.2100	42.0130
 1.2110	42.0250
 1.2120	42.0380
 1.2130	42.0520
 1.2140	42.0660
 1.2150	42.0800
 1.2160	42.0970
 1.2170	42.1120
 1.2180	42.1280
 1.2190	42.1450
 1.2200	42.1610
 1.2210	42.1800
 1.2220	42.1970
 1.2230	42.2150
 1.2240	42.2350
 1.2250	42.2540
 1.2260	42.2720
 1.2270	42.2900
 1.2280	42.3070
 1.2290	42.3240
 1.2300	42.3400
 1.2310	42.3540
 1.2320	42.3680
 1.2330	42.3820
 1.2340	42.3960
 1.2350	42.4110
 1.2360	42.4250
 1.2370	42.4380
 1.2380	42.4510
 1.2390	42.4620
 1.2400	42.4730
 1.2410	42.4840
 1.2420	42.4940
 1.2430	42.5020
 1.2440	42.5100
 1.2450	42.5180
 1.2460	42.5250
 1.2470	42.5320
 1.2480	42.5400
 1.2490	42.5470
 1.2500	42.5540
 1.2510	42.5620
 1.2520	42.5680
 1.2530	42.5720
 1.2540	42.5770
 1.2550	42.5800
 1.2560	42.5830
 1.2570	42.5860
 1.2580	42.5870
 1.2590	42.5880
 1.2600	42.5900
 1.2610	42.5890
 1.2620	42.5860
 1.2630	42.5820
 1.2640	42.5780
 1.2650	42.5720
 1.2660	42.5660
 1.2670	42.5600
 1.2680	42.5540
 1.2690	42.5460
 1.2700	42.5390
 1.2710	42.5320
 1.2720	42.5220
 1.2730	42.5110
 1.2740	42.4990
 1.2750	42.4860
 1.2760	42.4740
 1.2770	42.4620
 1.2780	42.4490
 1.2790	42.4330
 1.2800	42.4160
 1.2810	42.3970
 1.2820	42.3790
 1.2830	42.3590
 1.2840	42.3380
 1.2850	42.3160
 1.2860	42.2910
 1.2870	42.2640
 1.2880	42.2360
 1.2890	42.2070
 1.2900	42.1730
 1.2910	42.1400
 1.2920	42.1070
 1.2930	42.0680
 1.2940	42.0290
 1.2950	41.9900
 1.2960	41.9460
 1.2970	41.9010
 1.2980	41.8570
 1.2990	41.8100
 1.3000	41.7610
 1.3010	41.7100
 1.3020	41.6560
 1.3030	41.5980
 1.3040	41.5380
 1.3050	41.4770
 1.3060	41.4120
 1.3070	41.3460
 1.3080	41.2800
 1.3090	41.2120
 1.3100	41.1420
 1.3110	41.0710
 1.3120	40.9950
 1.3130	40.9160
 1.3140	40.8350
 1.3150	40.7520
 1.3160	40.6660
 1.3170	40.5780
 1.3180	40.4860
 1.3190	40.3930
 1.3200	40.2970
 1.3210	40.1990
 1.3220	40.1000
 1.3230	39.9970
 1.3240	39.8930
 1.3250	39.7860
 1.3260	39.6770
 1.3270	39.5650
 1.3280	39.4510
 1.3290	39.3360
 1.3300	39.2180
 1.3310	39.0990
 1.3320	38.9780
 1.3330	38.8560
 1.3340	38.7340
 1.3350	38.6130
 1.3360	38.4900
 1.3370	38.3660
 1.3380	38.2430
 1.3390	38.1190
 1.3400	37.9950
 1.3410	37.8720
 1.3420	37.7490
 1.3430	37.6260
 1.3440	37.5060
 1.3450	37.3870
 1.3460	37.2700
 1.3470	37.1530
 1.3480	37.0360
 1.3490	36.9210
 1.3500	36.8070
 1.3510	36.6940
 1.3520	36.5810
 1.3530	36.4710
 1.3540	36.3590
 1.3550	36.2460
 1.3560	36.1340
 1.3570	36.0200
 1.3580	35.9060
 1.3590	35.7900
 1.3600	35.6720
 1.3610	35.5500
 1.3620	35.4210
 1.3630	35.2900
 1.3640	35.1510
 1.3650	35.0050
 1.3660	34.8530
 1.3670	34.6920
 1.3680	34.5210
 1.3690	34.3420
 1.3700	34.1490
 1.3710	33.9440
 1.3720	33.7240
 1.3730	33.4870
 1.3740	33.2340
 1.3750	32.9630
 1.3760	32.6710
 1.3770	32.3610
 1.3780	32.0250
 1.3790	31.6690
 1.3800	31.2900
 1.3810	30.8840
 1.3820	30.4590
 1.3830	30.0130
 1.3840	29.5460
 1.3850	29.0580
 1.3860	28.5530
 1.3870	28.0250
 1.3880	27.4900
 1.3890	26.9400
 1.3900	26.3780
 1.3910	25.8140
 1.3920	25.2450
 1.3930	24.6700
 1.3940	24.1000
 1.3950	23.5270
 1.3960	22.9620
 1.3970	22.4090
 1.3980	21.8650
 1.3990	21.3410
 1.4000	20.8310
 1.4010	20.3340
 1.4020	19.8590
 1.4030	19.4000
 1.4040	18.9610
 1.4050	18.5450
 1.4060	18.1490
 1.4070	17.7770
 1.4080	17.4250
 1.4090	17.0910
 1.4100	16.7800
 1.4110	16.4870
 1.4120	16.2120
 1.4130	15.9570
 1.4140	15.7180
 1.4150	15.4990
 1.4160	15.2960
 1.4170	15.1070
 1.4180	14.9310
 1.4190	14.7670
 1.4200	14.6150
 1.4210	14.4750
 1.4220	14.3440
 1.4230	14.2250
 1.4240	14.1140
 1.4250	14.0120
 1.4260	13.9180
 1.4270	13.8320
 1.4280	13.7540
 1.4290	13.6820
 1.4300	13.6160
 1.4310	13.5560
 1.4320	13.5030
 1.4330	13.4540
 1.4340	13.4110
 1.4350	13.3720
 1.4360	13.3380
 1.4370	13.3080
 1.4380	13.2820
 1.4390	13.2600
 1.4400	13.2410
 1.4410	13.2270
 1.4420	13.2150
 1.4430	13.2060
 1.4440	13.2000
 1.4450	13.1960
 1.4460	13.1940
 1.4470	13.1940
 1.4480	13.1960
 1.4490	13.2010
 1.4500	13.2070
 1.4510	13.2140
 1.4520	13.2240
 1.4530	13.2330
 1.4540	13.2450
 1.4550	13.2610
 1.4560	13.2780
 1.4570	13.2980
 1.4580	13.3220
 1.4590	13.3490
 1.4600	13.3800
 1.4610	13.4140
 1.4620	13.4510
 1.4630	13.4930
 1.4640	13.5400
 1.4650	13.5920
 1.4660	13.6490
 1.4670	13.7110
 1.4680	13.7770
 1.4690	13.8460
 1.4700	13.9200
 1.4710	13.9990
 1.4720	14.0810
 1.4730	14.1660
 1.4740	14.2560
 1.4750	14.3470
 1.4760	14.4430
 1.4770	14.5420
 1.4780	14.6420
 1.4790	14.7450
 1.4800	14.8480
 1.4810	14.9520
 1.4820	15.0600
 1.4830	15.1700
 1.4840	15.2810
 1.4850	15.3940
 1.4860	15.5060
 1.4870	15.6200
 1.4880	15.7340
 1.4890	15.8490
 1.4900	15.9660
 1.4910	16.0850
 1.4920	16.2030
 1.4930	16.3220
 1.4940	16.4420
 1.4950	16.5630
 1.4960	16.6840
 1.4970	16.8040
 1.4980	16.9260
 1.4990	17.0480
 1.5000	17.1710
 1.5010	17.2950
 1.5020	17.4180
 1.5030	17.5430
 1.5040	17.6660
 1.5050	17.7880
 1.5060	17.9110
 1.5070	18.0340
 1.5080	18.1570
 1.5090	18.2800
 1.5100	18.4040
 1.5110	18.5270
 1.5120	18.6500
 1.5130	18.7720
 1.5140	18.8950
 1.5150	19.0160
 1.5160	19.1370
 1.5170	19.2590
 1.5180	19.3780
 1.5190	19.4970
 1.5200	19.6170
 1.5210	19.7360
 1.5220	19.8550
 1.5230	19.9730
 1.5240	20.0890
 1.5250	20.2060
 1.5260	20.3220
 1.5270	20.4370
 1.5280	20.5500
 1.5290	20.6610
 1.5300	20.7710
 1.5310	20.8830
 1.5320	20.9930
 1.5330	21.1040
 1.5340	21.2130
 1.5350	21.3210
 1.5360	21.4290
 1.5370	21.5360
 1.5380	21.6410
 1.5390	21.7470
 1.5400	21.8500
 1.5410	21.9530
 1.5420	22.0560
 1.5430	22.1580
 1.5440	22.2600
 1.5450	22.3600
 1.5460	22.4600
 1.5470	22.5580
 1.5480	22.6550
 1.5490	22.7540
 1.5500	22.8510
 1.5510	22.9450
 1.5520	23.0400
 1.5530	23.1320
 1.5540	23.2220
 1.5550	23.3130
 1.5560	23.4010
 1.5570	23.4900
 1.5580	23.5780
 1.5590	23.6640
 1.5600	23.7510
 1.5610	23.8350
 1.5620	23.9180
 1.5630	24.0000
 1.5640	24.0800
 1.5650	24.1600
 1.5660	24.2390
 1.5670	24.3170
 1.5680	24.3960
 1.5690	24.4720
 1.5700	24.5480
 1.5710	24.6240
 1.5720	24.6990
 1.5730	24.7750
 1.5740	24.8490
 1.5750	24.9230
 1.5760	24.9960
 1.5770	25.0660
 1.5780	25.1360
 1.5790	25.2050
 1.5800	25.2750
 1.5810	25.3450
 1.5820	25.4140
 1.5830	25.4830
 1.5840	25.5510
 1.5850	25.6180
 1.5860	25.6860
 1.5870	25.7530
 1.5880	25.8200
 1.5890	25.8850
 1.5900	25.9480
 1.5910	26.0130
 1.5920	26.0770
 1.5930	26.1390
 1.5940	26.2010
 1.5950	26.2630
 1.5960	26.3230
 1.5970	26.3830
 1.5980	26.4430
 1.5990	26.5010
 1.6000	26.5600
 1.6010	26.6200
 1.6020	26.6760
 1.6030	26.7320
 1.6040	26.7890
 1.6050	26.8430
 1.6060	26.8960
 1.6070	26.9500
 1.6080	27.0020
 1.6090	27.0520
 1.6100	27.1040
 1.6110	27.1540
 1.6120	27.2030
 1.6130	27.2520
 1.6140	27.3010
 1.6150	27.3470
 1.6160	27.3920
 1.6170	27.4350
 1.6180	27.4780
 1.6190	27.5220
 1.6200	27.5660
 1.6210	27.6100
 1.6220	27.6500
 1.6230	27.6880
 1.6240	27.7260
 1.6250	27.7640
 1.6260	27.8030
 1.6270	27.8420
 1.6280	27.8790
 1.6290	27.9150
 1.6300	27.9500
 1.6310	27.9850
 1.6320	28.0200
 1.6330	28.0530
 1.6340	28.0870
 1.6350	28.1190
 1.6360	28.1480
 1.6370	28.1780
 1.6380	28.2080
 1.6390	28.2360
 1.6400	28.2650
 1.6410	28.2900
 1.6420	28.3110
 1.6430	28.3330
 1.6440	28.3500
 1.6450	28.3710
 1.6460	28.3890
 1.6470	28.4080
 1.6480	28.4240
 1.6490	28.4370
 1.6500	28.4490
 1.6510	28.4570
 1.6520	28.4630
 1.6530	28.4680
 1.6540	28.4730
 1.6550	28.4760
 1.6560	28.4770
 1.6570	28.4770
 1.6580	28.4730
 1.6590	28.4670
 1.6600	28.4610
 1.6610	28.4530
 1.6620	28.4460
 1.6630	28.4410
 1.6640	28.4350
 1.6650	28.4260
 1.6660	28.4160
 1.6670	28.4030
 1.6680	28.3900
 1.6690	28.3760
 1.6700	28.3600
 1.6710	28.3420
 1.6720	28.3200
 1.6730	28.2950
 1.6740	28.2700
 1.6750	28.2430
 1.6760	28.2140
 1.6770	28.1840
 1.6780	28.1540
 1.6790	28.1220
 1.6800	28.0870
 1.6810	28.0510
 1.6820	28.0120
 1.6830	27.9700
 1.6840	27.9300
 1.6850	27.8900
 1.6860	27.8500
 1.6870	27.8110
 1.6880	27.7700
 1.6890	27.7260
 1.6900	27.6830
 1.6910	27.6400
 1.6920	27.5980
 1.6930	27.5560
 1.6940	27.5140
 1.6950	27.4700
 1.6960	27.4270
 1.6970	27.3850
 1.6980	27.3430
 1.6990	27.3030
 1.7000	27.2610
 1.7010	27.2190
 1.7020	27.1760
 1.7030	27.1330
 1.7040	27.0900
 1.7050	27.0470
 1.7060	27.0020
 1.7070	26.9570
 1.7080	26.9110
 1.7090	26.8630
 1.7100	26.8140
 1.7110	26.7640
 1.7120	26.7160
 1.7130	26.6660
 1.7140	26.6190
 1.7150	26.5720
 1.7160	26.5220
 1.7170	26.4740
 1.7180	26.4270
 1.7190	26.3790
 1.7200	26.3330
 1.7210	26.2860
 1.7220	26.2360
 1.7230	26.1880
 1.7240	26.1400
 1.7250	26.0900
 1.7260	26.0430
 1.7270	25.9980
 1.7280	25.9540
 1.7290	25.9110
 1.7300	25.8700
 1.7310	25.8310
 1.7320	25.7930
 1.7330	25.7560
 1.7340	25.7200
 1.7350	25.6850
 1.7360	25.6510
 1.7370	25.6170
 1.7380	25.5860
 1.7390	25.5510
 1.7400	25.5140
 1.7410	25.4750
 1.7420	25.4330
 1.7430	25.3910
 1.7440	25.3480
 1.7450	25.3030
 1.7460	25.2570
 1.7470	25.2090
 1.7480	25.1590
 1.7490	25.1060
 1.7500	25.0510
 1.7510	24.9980
 1.7520	24.9430
 1.7530	24.8880
 1.7540	24.8340
 1.7550	24.7780
 1.7560	24.7200
 1.7570	24.6640
 1.7580	24.6090
 1.7590	24.5540
 1.7600	24.5020
 1.7610	24.4480
 1.7620	24.3970
 1.7630	24.3460
 1.7640	24.2980
 1.7650	24.2520
 1.7660	24.2080
 1.7670	24.1680
 1.7680	24.1290
 1.7690	24.0930
 1.7700	24.0560
 1.7710	24.0190
 1.7720	23.9840
 1.7730	23.9500
 1.7740	23.9180
 1.7750	23.8890
 1.7760	23.8580
 1.7770	23.8260
 1.7780	23.7980
 1.7790	23.7710
 1.7800	23.7480
 1.7810	23.7310
 1.7820	23.7120
 1.7830	23.6930
 1.7840	23.6770
 1.7850	23.6600
 1.7860	23.6470
 1.7870	23.6390
 1.7880	23.6290
 1.7890	23.6220
 1.7900	23.6160
 1.7910	23.6100
 1.7920	23.6070
 1.7930	23.6050
 1.7940	23.6040
 1.7950	23.6060
 1.7960	23.6100
 1.7970	23.6140
 1.7980	23.6210
 1.7990	23.6270
 1.8000	23.6330
 1.8010	23.6400
 1.8020	23.6470
 1.8030	23.6540
 1.8040	23.6610
 1.8050	23.6690
 1.8060	23.6770
 1.8070	23.6850
 1.8080	23.6940
 1.8090	23.7020
 1.8100	23.7100
 1.8110	23.7190
 1.8120	23.7270
 1.8130	23.7310
 1.8140	23.7330
 1.8150	23.7340
 1.8160	23.7330
 1.8170	23.7370
 1.8180	23.7390
 1.8190	23.7370
 1.8200	23.7350
 1.8210	23.7280
 1.8220	23.7230
 1.8230	23.7190
 1.8240	23.7140
 1.8250	23.7080
 1.8260	23.7000
 1.8270	23.6910
 1.8280	23.6800
 1.8290	23.6680
 1.8300	23.6520
 1.8310	23.5570
 1.8320	23.5320
 1.8330	23.5020
 1.8340	23.4700
 1.8350	23.4310
 1.8360	23.3890
 1.8370	23.3430
 1.8380	23.2920
 1.8390	23.2390
 1.8400	23.1870
 1.8410	23.1240
 1.8420	23.0550
 1.8430	22.9820
 1.8440	22.8970
 1.8450	22.8030
 1.8460	22.7020
 1.8470	22.5930
 1.8480	22.4770
 1.8490	22.3490
 1.8500	22.2100
 1.8510	22.0630
 1.8520	21.9040
 1.8530	21.7300
 1.8540	21.5460
 1.8550	21.3520
 1.8560	21.1430
 1.8570	20.9230
 1.8580	20.6910
 1.8590	20.4430
 1.8600	20.1800
 1.8610	19.9040
 1.8620	19.6080
 1.8630	19.2940
 1.8640	18.9680
 1.8650	18.6230
 1.8660	18.2610
 1.8670	17.8840
 1.8680	17.4890
 1.8690	17.0750
 1.8700	16.6460
 1.8710	16.2020
 1.8720	15.7490
 1.8730	15.2810
 1.8740	14.8030
 1.8750	14.3210
 1.8760	13.8260
 1.8770	13.3310
 1.8780	12.8370
 1.8790	12.3380
 1.8800	11.8490
 1.8810	11.3660
 1.8820	10.8840
 1.8830	10.4070
 1.8840	 9.9420
 1.8850	 9.4810
 1.8860	 9.0330
 1.8870	 8.6010
 1.8880	 8.1800
 1.8890	 7.7830
 1.8900	 7.4080
 1.8910	 7.0540
 1.8920	 6.7180
 1.8930	 6.4080
 1.8940	 6.1160
 1.8950	 5.8440
 1.8960	 5.5960
 1.8970	 5.3670
 1.8980	 5.1620
 1.8990	 4.9740
 1.9000	 4.8010
 1.9010	 4.6470
 1.9020	 4.5040
 1.9030	 4.3770
 1.9040	 4.2640
 1.9050	 4.1640
 1.9060	 4.0740
 1.9070	 3.9950
 1.9080	 3.9240
 1.9090	 3.8610
 1.9100	 3.8080
 1.9110	 3.7580
 1.9120	 3.7170
 1.9130	 3.6770
 1.9140	 3.6410
 1.9150	 3.6070
 1.9160	 3.5780
 1.9170	 3.5550
 1.9180	 3.5360
 1.9190	 3.5190
 1.9200	 3.5020
 1.9210	 3.4870
 1.9220	 3.4740
 1.9230	 3.4610
 1.9240	 3.4520
 1.9250	 3.4470
 1.9260	 3.4430
 1.9270	 3.4400
 1.9280	 3.4380
 1.9290	 3.4380
 1.9300	 3.4390
 1.9310	 3.4430
 1.9320	 3.4490
 1.9330	 3.4540
 1.9340	 3.4600
 1.9350	 3.4660
 1.9360	 3.4700
 1.9370	 3.4780
 1.9380	 3.4880
 1.9390	 3.5010
 1.9400	 3.5160
 1.9410	 3.5310
 1.9420	 3.5460
 1.9430	 3.5620
 1.9440	 3.5780
 1.9450	 3.5930
 1.9460	 3.6090
 1.9470	 3.6250
 1.9480	 3.6430
 1.9490	 3.6630
 1.9500	 3.6840
 1.9510	 3.7060
 1.9520	 3.7330
 1.9530	 3.7580
 1.9540	 3.7840
 1.9550	 3.8100
 1.9560	 3.8360
 1.9570	 3.8620
 1.9580	 3.8900
 1.9590	 3.9180
 1.9600	 3.9460
 1.9610	 3.9760
 1.9620	 4.0080
 1.9630	 4.0370
 1.9640	 4.0700
 1.9650	 4.1040
 1.9660	 4.1400
 1.9670	 4.1780
 1.9680	 4.2140
 1.9690	 4.2490
 1.9700	 4.2870
 1.9710	 4.3260
 1.9720	 4.3650
 1.9730	 4.4060
 1.9740	 4.4470
 1.9750	 4.4880
 1.9760	 4.5270
 1.9770	 4.5670
 1.9780	 4.6080
 1.9790	 4.6490
 1.9800	 4.6900
 1.9810	 4.7340
 1.9820	 4.7800
 1.9830	 4.8270
 1.9840	 4.8770
 1.9850	 4.9240
 1.9860	 4.9720
 1.9870	 5.0200
 1.9880	 5.0670
 1.9890	 5.1150
 1.9900	 5.1650
 1.9910	 5.2160
 1.9920	 5.2680
 1.9930	 5.3200
 1.9940	 5.3720
 1.9950	 5.4250
 1.9960	 5.4770
 1.9970	 5.5290
 1.9980	 5.5820
 1.9990	 5.6330
 2.0000	 5.6860
 2.0010	 5.7400
 2.0020	 5.7930
 2.0030	 5.8490
 2.0040	 5.9030
 2.0050	 5.9580
 2.0060	 6.0120
 2.0070	 6.0680
 2.0080	 6.1230
 2.0090	 6.1800
 2.0100	 6.2390
 2.0110	 6.2970
 2.0120	 6.3570
 2.0130	 6.4120
 2.0140	 6.4670
 2.0150	 6.5210
 2.0160	 6.5750
 2.0170	 6.6310
 2.0180	 6.6850
 2.0190	 6.7410
 2.0200	 6.7960
 2.0210	 6.8500
 2.0220	 6.9050
 2.0230	 6.9590
 2.0240	 7.0130
 2.0250	 7.0670
 2.0260	 7.1190
 2.0270	 7.1700
 2.0280	 7.2220
 2.0290	 7.2720
 2.0300	 7.3180
 2.0310	 7.3670
 2.0320	 7.4150
 2.0330	 7.4650
 2.0340	 7.5150
 2.0350	 7.5640
 2.0360	 7.6140
 2.0370	 7.6620
 2.0380	 7.7090
 2.0390	 7.7540
 2.0400	 7.7980
 2.0410	 7.8410
 2.0420	 7.8840
 2.0430	 7.9270
 2.0440	 7.9680
 2.0450	 8.0090
 2.0460	 8.0510
 2.0470	 8.0940
 2.0480	 8.1370
 2.0490	 8.1810
 2.0500	 8.2240
 2.0510	 8.2630
 2.0520	 8.3060
 2.0530	 8.3500
 2.0540	 8.3930
 2.0550	 8.4360
 2.0560	 8.4810
 2.0570	 8.5260
 2.0580	 8.5710
 2.0590	 8.6190
 2.0600	 8.6700
 2.0610	 8.7200
 2.0620	 8.7720
 2.0630	 8.8220
 2.0640	 8.8720
 2.0650	 8.9230
 2.0660	 8.9730
 2.0670	 9.0240
 2.0680	 9.0760
 2.0690	 9.1280
 2.0700	 9.1820
 2.0710	 9.2350
 2.0720	 9.2860
 2.0730	 9.3400
 2.0740	 9.3910
 2.0750	 9.4390
 2.0760	 9.4890
 2.0770	 9.5390
 2.0780	 9.5910
 2.0790	 9.6470
 2.0800	 9.6990
 2.0810	 9.7500
 2.0820	 9.8010
 2.0830	 9.8500
 2.0840	 9.9000
 2.0850	 9.9500
 2.0860	 9.9990
 2.0870	10.0470
 2.0880	10.0930
 2.0890	10.1390
 2.0900	10.1850
 2.0910	10.2330
 2.0920	10.2800
 2.0930	10.3280
 2.0940	10.3800
 2.0950	10.4280
 2.0960	10.4770
 2.0970	10.5240
 2.0980	10.5700
 2.0990	10.6160
 2.1000	10.6620
 2.1010	10.7080
 2.1020	10.7550
 2.1030	10.7990
 2.1040	10.8410
 2.1050	10.8850
 2.1060	10.9310
 2.1070	10.9770
 2.1080	11.0230
 2.1090	11.0710
 2.1100	11.1160
 2.1110	11.1580
 2.1120	11.2030
 2.1130	11.2480
 2.1140	11.2920
 2.1150	11.3370
 2.1160	11.3800
 2.1170	11.4230
 2.1180	11.4640
 2.1190	11.5020
 2.1200	11.5420
 2.1210	11.5810
 2.1220	11.6210
 2.1230	11.6610
 2.1240	11.7030
 2.1250	11.7430
 2.1260	11.7810
 2.1270	11.8190
 2.1280	11.8570
 2.1290	11.8910
 2.1300	11.9230
 2.1310	11.9540
 2.1320	11.9830
 2.1330	12.0140
 2.1340	12.0460
 2.1350	12.0760
 2.1360	12.1060
 2.1370	12.1340
 2.1380	12.1580
 2.1390	12.1850
 2.1400	12.2140
 2.1410	12.2410
 2.1420	12.2660
 2.1430	12.2930
 2.1440	12.3170
 2.1450	12.3350
 2.1460	12.3570
 2.1470	12.3790
 2.1480	12.4030
 2.1490	12.4310
 2.1500	12.4540
 2.1510	12.4760
 2.1520	12.4960
 2.1530	12.5120
 2.1540	12.5280
 2.1550	12.5440
 2.1560	12.5580
 2.1570	12.5710
 2.1580	12.5850
 2.1590	12.6000
 2.1600	12.6130
 2.1610	12.6280
 2.1620	12.6410
 2.1630	12.6550
 2.1640	12.6680
 2.1650	12.6850
 2.1660	12.7050
 2.1670	12.7220
 2.1680	12.7400
 2.1690	12.7580
 2.1700	12.7750
 2.1710	12.7920
 2.1720	12.8120
 2.1730	12.8300
 2.1740	12.8450
 2.1750	12.8620
 2.1760	12.8780
 2.1770	12.8970
 2.1780	12.9190
 2.1790	12.9410
 2.1800	12.9660
 2.1810	12.9900
 2.1820	13.0160
 2.1830	13.0390
 2.1840	13.0610
 2.1850	13.0810
 2.1860	13.1040
 2.1870	13.1260
 2.1880	13.1520
 2.1890	13.1830
 2.1900	13.2090
 2.1910	13.2370
 2.1920	13.2580
 2.1930	13.2720
 2.1940	13.2910
 2.1950	13.3060
 2.1960	13.3240
 2.1970	13.3460
 2.1980	13.3670
 2.1990	13.3860
 2.2000	13.4050
 2.2010	13.4260
 2.2020	13.4440
 2.2030	13.4590
 2.2040	13.4750
 2.2050	13.4890
 2.2060	13.5030
 2.2070	13.5160
 2.2080	13.5300
 2.2090	13.5400
 2.2100	13.5470
 2.2110	13.5530
 2.2120	13.5550
 2.2130	13.5580
 2.2140	13.5590
 2.2150	13.5600
 2.2160	13.5610
 2.2170	13.5590
 2.2180	13.5550
 2.2190	13.5500
 2.2200	13.5460
 2.2210	13.5360
 2.2220	13.5240
 2.2230	13.5080
 2.2240	13.4810
 2.2250	13.4590
 2.2260	13.4390
 2.2270	13.4140
 2.2280	13.3890
 2.2290	13.3620
 2.2300	13.3300
 2.2310	13.2940
 2.2320	13.2610
 2.2330	13.2250
 2.2340	13.1830
 2.2350	13.1360
 2.2360	13.0890
 2.2370	13.0370
 2.2380	12.9880
 2.2390	12.9400
 2.2400	12.8890
 2.2410	12.8380
 2.2420	12.7850
 2.2430	12.7300
 2.2440	12.6760
 2.2450	12.6190
 2.2460	12.5650
 2.2470	12.5140
 2.2480	12.4610
 2.2490	12.4080
 2.2500	12.3550
 2.2510	12.2990
 2.2520	12.2470
 2.2530	12.1990
 2.2540	12.1480
 2.2550	12.0980
 2.2560	12.0470
 2.2570	11.9940
 2.2580	11.9410
 2.2590	11.8890
 2.2600	11.8340
 2.2610	11.7750
 2.2620	11.7160
 2.2630	11.6630
 2.2640	11.6130
 2.2650	11.5650
 2.2660	11.5170
 2.2670	11.4650
 2.2680	11.4060
 2.2690	11.3530
 2.2700	11.3010
 2.2710	11.2500
 2.2720	11.2020
 2.2730	11.1530
 2.2740	11.1020
 2.2750	11.0560
 2.2760	11.0120
 2.2770	10.9660
 2.2780	10.9220
 2.2790	10.8760
 2.2800	10.8230
 2.2810	10.7790
 2.2820	10.7390
 2.2830	10.6970
 2.2840	10.6570
 2.2850	10.6160
 2.2860	10.5720
 2.2870	10.5300
 2.2880	10.4900
 2.2890	10.4490
 2.2900	10.4040
 2.2910	10.3620
 2.2920	10.3220
 2.2930	10.2780
 2.2940	10.2350
 2.2950	10.1900
 2.2960	10.1380
 2.2970	10.0910
 2.2980	10.0480
 2.2990	10.0020
 2.3000	 9.9580
 2.3010	 9.9150
 2.3020	 9.8640
 2.3030	 9.8110
 2.3040	 9.7580
 2.3050	 9.7040
 2.3060	 9.6600
 2.3070	 9.6170
 2.3080	 9.5760
 2.3090	 9.5410
 2.3100	 9.5050
 2.3110	 9.4700
 2.3120	 9.4380
 2.3130	 9.4090
 2.3140	 9.3790
 2.3150	 9.3470
 2.3160	 9.3240
 2.3170	 9.3050
 2.3180	 9.2880
 2.3190	 9.2820
 2.3200	 9.2660
 2.3210	 9.2510
 2.3220	 9.2280
 2.3230	 9.1970
 2.3240	 9.1680
 2.3250	 9.1290
 2.3260	 9.0980
 2.3270	 9.0700
 2.3280	 9.0420
 2.3290	 9.0170
 2.3300	 8.9880
 2.3310	 8.9610
 2.3320	 8.9280
 2.3330	 8.8910
 2.3340	 8.8530
 2.3350	 8.8090
 2.3360	 8.7670
 2.3370	 8.7240
 2.3380	 8.6820
 2.3390	 8.6390
 2.3400	 8.5980
 2.3410	 8.5580
 2.3420	 8.5170
 2.3430	 8.4750
 2.3440	 8.4340
 2.3450	 8.3930
 2.3460	 8.3530
 2.3470	 8.3170
 2.3480	 8.2810
 2.3490	 8.2470
 2.3500	 8.2090
 2.3510	 8.1610
 2.3520	 8.1220
 2.3530	 8.0850
 2.3540	 8.0490
 2.3550	 8.0160
 2.3560	 7.9920
 2.3570	 7.9660
 2.3580	 7.9320
 2.3590	 7.9120
 2.3600	 7.8860
 2.3610	 7.8450
 2.3620	 7.8170
 2.3630	 7.7750
 2.3640	 7.7300
 2.3650	 7.7040
 2.3660	 7.6680
 2.3670	 7.6320
 2.3680	 7.6000
 2.3690	 7.5620
 2.3700	 7.5240
 2.3710	 7.4880
 2.3720	 7.4530
 2.3730	 7.4190
 2.3740	 7.3860
 2.3750	 7.3600
 2.3760	 7.3340
 2.3770	 7.3010
 2.3780	 7.2620
 2.3790	 7.2140
 2.3800	 7.1650
 2.3810	 7.1260
 2.3820	 7.0940
 2.3830	 7.0590
 2.3840	 7.0270
 2.3850	 6.9960
 2.3860	 6.9580
 2.3870	 6.9210
 2.3880	 6.8870
 2.3890	 6.8560
 2.3900	 6.8220
 2.3910	 6.7870
 2.3920	 6.7550
 2.3930	 6.7200
 2.3940	 6.6750
 2.3950	 6.6380
 2.3960	 6.6040
 2.3970	 6.5590
 2.3980	 6.5230
 2.3990	 6.4880
 2.4000	 6.4540
 2.4010	 6.4240
 2.4020	 6.3880
 2.4030	 6.3520
 2.4040	 6.3120
 2.4050	 6.2800
 2.4060	 6.2450
 2.4070	 6.2000
 2.4080	 6.1580
 2.4090	 6.1090
 2.4100	 6.0640
 2.4110	 6.0340
 2.4120	 5.9990
 2.4130	 5.9660
 2.4140	 5.9370
 2.4150	 5.8960
 2.4160	 5.8610
 2.4170	 5.8270
 2.4180	 5.7900
 2.4190	 5.7610
 2.4200	 5.7190
 2.4210	 5.6650
 2.4220	 5.6260
 2.4230	 5.6020
 2.4240	 5.5690
 2.4250	 5.5440
 2.4260	 5.5140
 2.4270	 5.4570
 2.4280	 5.4140
 2.4290	 5.3780
 2.4300	 5.3370
 2.4310	 5.3000
 2.4320	 5.2620
 2.4330	 5.2340
 2.4340	 5.2020
 2.4350	 5.1690
 2.4360	 5.1350
 2.4370	 5.0990
 2.4380	 5.0570
 2.4390	 4.9990
 2.4400	 4.9580
 2.4410	 4.9110
 2.4420	 4.8620
 2.4430	 4.8360
 2.4440	 4.8080
 2.4450	 4.7740
 2.4460	 4.7430
 2.4470	 4.7190
 2.4480	 4.6810
 2.4490	 4.6410
 2.4500	 4.6210
 2.4510	 4.6070
 2.4520	 4.5940
 2.4530	 4.5760
 2.4540	 4.5430
 2.4550	 4.4890
 2.4560	 4.4500
 2.4570	 4.4230
 2.4580	 4.3940
 2.4590	 4.3790
 2.4600	 4.3450
 2.4610	 4.3210
 2.4620	 4.3300
 2.4630	 4.3110
 2.4640	 4.3020
 2.4650	 4.3080
 2.4660	 4.2690
 2.4670	 4.2330
 2.4680	 4.2040
 2.4690	 4.1530
 2.4700	 4.1230
 2.4710	 4.1050
 2.4720	 4.0770
 2.4730	 4.0480
 2.4740	 4.0260
 2.4750	 3.9950
 2.4760	 3.9900
 2.4770	 4.0150
 2.4780	 4.0290
 2.4790	 4.0640
 2.4800	 4.0650
 2.4810	 4.0570
 2.4820	 3.9930
 2.4830	 3.9400
 2.4840	 3.9210
 2.4850	 3.9080
 2.4860	 3.9230
 2.4870	 3.9360
 2.4880	 3.9290
 2.4890	 3.9060
 2.4900	 3.8720
 2.4910	 3.8140
 2.4920	 3.7640
 2.4930	 3.7570
 2.4940	 3.7400
 2.4950	 3.7650
 2.4960	 3.7980
 2.4970	 3.7870
 2.4980	 3.8420
 2.4990	 3.8940
 2.5000	 3.8590
