Name: Quercus douglasii 3
Type: vegetation
Class: Tree
Genus: Quercus
Species: douglasii
Sample No.: VH277
Owner: UCSB
Wavelength Range: TIR
Origin: 34.7165; -120.0605; WGS84
Collection Date: 11/2/2013
Description: Samples were collected as part of the HyspIRI Airborne Campaign. 48 individual plants were sampled in three times in 2013 - spring  summer  and fall. The name of the sample includes a 1  2  or 3 which references a different individual of the species. Samples were taken to JPL and processed within 48 hours of collection. The same leaves were processed in the Nicolet and then measured using the ASD.
Measurement: Hemispherical reflectance
First Column: X
Second Column: Y
X Units: Wavelength (micrometers)
Y Units: Reflectance (percentage)
First X Value: 2.501
Last X Value: 15.387
Number of X Values: 1737
Additional Information: vegetation.tree.quercus.douglasii.tir.vh277.ucsb.nicolet.ancillary.txt

 2.5010	 7.7930
 2.5030	 7.7490
 2.5040	 7.8540
 2.5050	 8.0350
 2.5060	 8.0980
 2.5070	 7.9210
 2.5090	 7.7180
 2.5100	 7.6880
 2.5110	 7.6680
 2.5120	 7.5830
 2.5140	 7.6760
 2.5150	 7.8550
 2.5160	 7.7000
 2.5170	 7.5260
 2.5180	 7.4590
 2.5200	 7.5840
 2.5210	 7.6010
 2.5220	 7.5430
 2.5230	 7.6730
 2.5250	 7.6160
 2.5260	 7.5810
 2.5270	 7.6770
 2.5280	 7.6080
 2.5290	 7.5550
 2.5310	 7.5620
 2.5320	 7.5110
 2.5330	 7.5780
 2.5340	 7.6720
 2.5360	 7.7230
 2.5370	 7.7950
 2.5380	 7.7560
 2.5390	 7.6500
 2.5410	 7.6480
 2.5420	 7.7840
 2.5430	 7.8750
 2.5440	 7.7340
 2.5460	 7.5830
 2.5470	 7.6070
 2.5480	 7.5860
 2.5490	 7.6590
 2.5510	 7.6440
 2.5520	 7.6420
 2.5530	 7.7770
 2.5540	 7.5930
 2.5560	 7.3880
 2.5570	 7.4150
 2.5580	 7.5230
 2.5590	 7.6460
 2.5610	 7.7360
 2.5620	 7.8470
 2.5630	 7.9140
 2.5640	 7.8800
 2.5660	 7.7670
 2.5670	 7.6650
 2.5680	 7.6700
 2.5700	 7.7200
 2.5710	 7.7680
 2.5720	 7.7300
 2.5730	 7.6850
 2.5750	 7.6740
 2.5760	 7.6370
 2.5770	 7.7890
 2.5790	 7.8490
 2.5800	 7.6740
 2.5810	 7.6460
 2.5820	 7.6550
 2.5840	 7.7490
 2.5850	 7.7290
 2.5860	 7.7290
 2.5880	 7.7540
 2.5890	 7.7020
 2.5900	 7.6720
 2.5910	 7.7060
 2.5930	 7.8470
 2.5940	 7.9680
 2.5950	 7.7570
 2.5970	 7.5890
 2.5980	 7.5610
 2.5990	 7.5740
 2.6000	 7.6620
 2.6020	 7.7170
 2.6030	 7.6040
 2.6040	 7.6240
 2.6060	 7.5810
 2.6070	 7.4520
 2.6080	 7.3800
 2.6100	 7.3660
 2.6110	 7.3410
 2.6120	 7.4160
 2.6140	 7.4680
 2.6150	 7.4060
 2.6160	 7.3160
 2.6180	 7.2070
 2.6190	 7.2430
 2.6200	 7.3670
 2.6220	 7.3640
 2.6230	 7.2090
 2.6240	 7.1290
 2.6260	 7.1880
 2.6270	 7.1850
 2.6280	 7.1790
 2.6300	 7.1430
 2.6310	 7.1140
 2.6320	 7.0990
 2.6340	 7.0470
 2.6350	 7.0240
 2.6360	 6.9380
 2.6380	 6.8830
 2.6390	 6.9430
 2.6400	 7.0340
 2.6420	 6.9900
 2.6430	 6.9850
 2.6440	 7.0220
 2.6460	 6.8760
 2.6470	 6.7350
 2.6480	 6.7410
 2.6500	 6.7890
 2.6510	 6.8740
 2.6520	 6.8860
 2.6540	 6.6930
 2.6550	 6.5560
 2.6560	 6.5240
 2.6580	 6.4970
 2.6590	 6.5330
 2.6610	 6.6990
 2.6620	 6.6690
 2.6630	 6.3990
 2.6650	 6.4920
 2.6660	 6.6530
 2.6670	 6.4350
 2.6690	 6.3300
 2.6700	 6.3540
 2.6720	 6.3360
 2.6730	 6.1890
 2.6740	 6.3310
 2.6760	 6.4530
 2.6770	 6.3130
 2.6780	 6.1650
 2.6800	 6.1080
 2.6810	 6.1960
 2.6830	 6.1870
 2.6840	 5.9410
 2.6850	 5.8800
 2.6870	 5.9750
 2.6880	 6.0360
 2.6900	 6.1440
 2.6910	 6.1940
 2.6920	 6.1850
 2.6940	 6.1270
 2.6950	 5.9240
 2.6970	 5.8260
 2.6980	 5.6420
 2.6990	 5.4800
 2.7010	 5.4930
 2.7020	 5.7340
 2.7040	 5.7370
 2.7050	 5.5790
 2.7060	 5.5190
 2.7080	 5.5460
 2.7090	 5.5930
 2.7110	 5.6130
 2.7120	 5.5570
 2.7130	 5.4460
 2.7150	 5.2210
 2.7160	 5.2100
 2.7180	 5.3550
 2.7190	 5.3070
 2.7210	 5.1930
 2.7220	 5.1920
 2.7230	 5.1260
 2.7250	 5.0810
 2.7260	 5.0470
 2.7280	 5.0280
 2.7290	 4.9760
 2.7310	 4.9260
 2.7320	 4.9290
 2.7330	 4.8190
 2.7350	 4.6720
 2.7360	 4.7480
 2.7380	 4.8080
 2.7390	 4.8060
 2.7410	 4.9060
 2.7420	 4.9830
 2.7440	 4.8800
 2.7450	 4.6380
 2.7470	 4.7150
 2.7480	 4.7190
 2.7490	 4.7770
 2.7510	 5.1330
 2.7520	 5.1450
 2.7540	 4.7600
 2.7550	 4.4940
 2.7570	 4.4490
 2.7580	 4.1540
 2.7600	 4.1840
 2.7610	 4.2450
 2.7630	 4.2500
 2.7640	 4.5290
 2.7660	 4.6770
 2.7670	 4.5710
 2.7680	 4.5340
 2.7700	 4.4050
 2.7710	 4.2470
 2.7730	 4.1600
 2.7740	 4.3470
 2.7760	 4.3280
 2.7770	 4.0860
 2.7790	 4.0330
 2.7800	 4.2390
 2.7820	 4.2270
 2.7830	 4.3420
 2.7850	 4.1570
 2.7860	 4.0220
 2.7880	 4.2490
 2.7890	 4.2800
 2.7910	 4.1100
 2.7920	 3.9230
 2.7940	 3.7930
 2.7950	 3.9000
 2.7970	 3.9900
 2.7980	 4.1990
 2.8000	 4.2280
 2.8010	 4.2480
 2.8030	 4.2620
 2.8040	 4.0620
 2.8060	 3.9500
 2.8070	 3.9930
 2.8090	 3.9920
 2.8110	 4.0220
 2.8120	 3.9850
 2.8140	 3.9660
 2.8150	 4.0820
 2.8170	 4.1200
 2.8180	 4.0160
 2.8200	 3.7940
 2.8210	 3.8180
 2.8230	 3.8670
 2.8240	 3.7850
 2.8260	 3.8000
 2.8270	 3.9390
 2.8290	 3.9730
 2.8300	 3.9730
 2.8320	 4.0580
 2.8340	 3.9990
 2.8350	 3.8060
 2.8370	 3.7070
 2.8380	 3.6690
 2.8400	 3.8050
 2.8410	 3.8580
 2.8430	 3.6480
 2.8440	 3.6420
 2.8460	 3.8490
 2.8480	 3.9720
 2.8490	 3.8020
 2.8510	 3.6000
 2.8520	 3.5030
 2.8540	 3.7420
 2.8550	 3.7430
 2.8570	 3.4190
 2.8590	 3.3090
 2.8600	 3.5270
 2.8620	 3.6270
 2.8630	 3.6960
 2.8650	 3.7650
 2.8660	 3.6860
 2.8680	 3.6680
 2.8700	 3.7550
 2.8710	 3.7050
 2.8730	 3.7420
 2.8740	 3.8300
 2.8760	 3.7180
 2.8780	 3.4950
 2.8790	 3.5230
 2.8810	 3.6130
 2.8820	 3.5140
 2.8840	 3.7800
 2.8860	 4.2070
 2.8870	 3.9210
 2.8890	 3.7490
 2.8900	 3.8240
 2.8920	 3.5530
 2.8940	 3.3980
 2.8950	 3.6100
 2.8970	 3.6880
 2.8980	 3.8210
 2.9000	 3.9170
 2.9020	 3.8800
 2.9030	 3.6950
 2.9050	 3.3880
 2.9070	 3.3850
 2.9080	 3.5500
 2.9100	 3.5900
 2.9120	 3.4220
 2.9130	 3.2700
 2.9150	 3.5010
 2.9160	 3.6280
 2.9180	 3.4770
 2.9200	 3.6040
 2.9210	 3.7710
 2.9230	 3.7340
 2.9250	 3.7430
 2.9260	 3.8400
 2.9280	 3.7720
 2.9300	 3.5940
 2.9310	 3.4070
 2.9330	 3.4980
 2.9350	 3.6490
 2.9360	 3.6460
 2.9380	 3.5650
 2.9400	 3.8270
 2.9410	 3.6710
 2.9430	 3.4010
 2.9450	 3.4650
 2.9460	 3.5990
 2.9480	 3.7100
 2.9500	 3.8220
 2.9510	 3.8270
 2.9530	 3.5020
 2.9550	 3.3640
 2.9560	 3.4170
 2.9580	 3.1840
 2.9600	 3.1380
 2.9610	 2.9300
 2.9630	 3.0390
 2.9650	 3.7810
 2.9660	 4.2440
 2.9680	 4.2080
 2.9700	 4.2130
 2.9720	 3.9010
 2.9730	 3.4780
 2.9750	 3.8340
 2.9770	 3.2840
 2.9780	 2.2990
 2.9800	 3.6280
 2.9820	 4.8740
 2.9840	 4.1810
 2.9850	 4.0660
 2.9870	 4.0870
 2.9890	 4.6450
 2.9900	 5.5640
 2.9920	 5.6320
 2.9940	 4.9370
 2.9960	 3.3190
 2.9970	 1.5400
 2.9990	 2.3540
 3.0010	 3.7270
 3.0030	 4.1930
 3.0040	 3.8540
 3.0060	 3.4810
 3.0080	 4.0380
 3.0100	 3.9270
 3.0110	 4.3070
 3.0130	 4.8690
 3.0150	 5.0430
 3.0170	 4.9140
 3.0180	 4.1750
 3.0200	 3.9850
 3.0220	 4.2500
 3.0240	 4.3030
 3.0250	 3.7390
 3.0270	 3.2100
 3.0290	 3.3590
 3.0310	 3.6170
 3.0320	 4.0140
 3.0340	 4.2830
 3.0360	 4.2530
 3.0380	 4.3510
 3.0400	 5.4850
 3.0410	 6.2030
 3.0430	 4.6590
 3.0450	 3.0190
 3.0470	 2.6660
 3.0480	 3.6690
 3.0500	 4.8140
 3.0520	 2.7460
 3.0540	 1.8170
 3.0560	 3.7200
 3.0570	 4.1700
 3.0590	 3.5620
 3.0610	 3.2010
 3.0630	 3.5860
 3.0650	 3.7740
 3.0660	 3.8060
 3.0680	 4.1610
 3.0700	 4.3750
 3.0720	 4.0190
 3.0740	 3.7050
 3.0760	 3.5530
 3.0770	 3.5080
 3.0790	 3.6170
 3.0810	 3.9020
 3.0830	 4.0730
 3.0850	 4.1750
 3.0870	 4.0670
 3.0880	 4.0510
 3.0900	 3.9940
 3.0920	 3.8890
 3.0940	 3.6790
 3.0960	 3.6770
 3.0980	 3.7420
 3.0990	 3.7480
 3.1010	 3.7850
 3.1030	 4.0830
 3.1050	 4.0920
 3.1070	 4.0970
 3.1090	 4.1670
 3.1110	 4.2370
 3.1120	 4.2740
 3.1140	 4.0780
 3.1160	 4.1420
 3.1180	 4.2880
 3.1200	 4.1540
 3.1220	 4.0900
 3.1240	 4.1240
 3.1260	 4.0470
 3.1270	 3.9780
 3.1290	 3.9880
 3.1310	 4.2450
 3.1330	 4.0810
 3.1350	 4.1600
 3.1370	 4.6160
 3.1390	 4.3370
 3.1410	 4.0020
 3.1430	 3.7280
 3.1450	 3.1960
 3.1460	 3.3910
 3.1480	 4.4770
 3.1500	 3.8240
 3.1520	 3.6430
 3.1540	 3.7040
 3.1560	 3.8400
 3.1580	 3.8610
 3.1600	 4.0850
 3.1620	 4.5000
 3.1640	 5.2210
 3.1660	 5.3450
 3.1680	 5.0530
 3.1700	 3.5860
 3.1710	 2.1610
 3.1730	 2.9200
 3.1750	 4.7430
 3.1770	 5.1630
 3.1790	 3.2130
 3.1810	 1.8760
 3.1830	 2.7950
 3.1850	 3.7560
 3.1870	 4.0760
 3.1890	 4.0070
 3.1910	 4.1380
 3.1930	 4.2310
 3.1950	 4.2550
 3.1970	 4.3930
 3.1990	 4.4500
 3.2010	 4.3380
 3.2030	 4.3130
 3.2050	 4.4430
 3.2070	 4.4400
 3.2090	 4.4370
 3.2110	 4.5400
 3.2130	 4.4180
 3.2150	 4.3600
 3.2170	 4.4090
 3.2190	 4.4680
 3.2210	 4.6030
 3.2230	 4.6330
 3.2250	 4.5700
 3.2270	 4.6950
 3.2290	 4.6830
 3.2310	 4.5360
 3.2330	 4.4370
 3.2350	 4.4440
 3.2370	 4.7730
 3.2390	 4.9190
 3.2410	 4.9430
 3.2430	 4.9260
 3.2450	 4.6550
 3.2470	 4.4120
 3.2490	 4.3640
 3.2510	 4.5450
 3.2530	 4.6140
 3.2550	 4.5850
 3.2570	 4.5590
 3.2590	 4.6650
 3.2610	 4.5600
 3.2630	 4.5110
 3.2650	 4.6690
 3.2670	 4.7520
 3.2690	 4.6610
 3.2720	 4.6610
 3.2740	 4.5280
 3.2760	 4.4740
 3.2780	 4.5020
 3.2800	 4.5280
 3.2820	 4.4970
 3.2840	 4.5610
 3.2860	 4.7370
 3.2880	 4.7940
 3.2900	 4.7110
 3.2920	 4.7150
 3.2940	 4.6330
 3.2960	 4.7200
 3.2990	 4.7850
 3.3010	 4.7920
 3.3030	 4.6750
 3.3050	 4.5870
 3.3070	 4.7030
 3.3090	 4.5520
 3.3110	 4.3210
 3.3130	 4.4710
 3.3150	 4.6040
 3.3180	 4.5090
 3.3200	 4.4510
 3.3220	 4.4980
 3.3240	 4.3800
 3.3260	 4.4300
 3.3280	 4.5030
 3.3300	 4.5220
 3.3330	 4.3790
 3.3350	 4.3630
 3.3370	 4.5150
 3.3390	 4.5950
 3.3410	 4.5620
 3.3430	 4.5550
 3.3450	 4.6150
 3.3480	 4.4990
 3.3500	 4.4110
 3.3520	 4.4590
 3.3540	 4.3510
 3.3560	 4.3650
 3.3580	 4.2900
 3.3610	 4.1970
 3.3630	 4.2000
 3.3650	 4.3130
 3.3670	 4.4130
 3.3690	 4.3290
 3.3720	 4.1370
 3.3740	 4.1590
 3.3760	 4.1100
 3.3780	 4.0350
 3.3800	 4.0640
 3.3830	 4.1160
 3.3850	 4.0770
 3.3870	 4.0610
 3.3890	 3.9760
 3.3910	 3.8610
 3.3940	 3.7880
 3.3960	 3.8060
 3.3980	 3.7930
 3.4000	 3.9740
 3.4020	 4.0410
 3.4050	 4.0160
 3.4070	 4.1080
 3.4090	 4.3280
 3.4110	 4.4120
 3.4140	 4.4990
 3.4160	 4.6900
 3.4180	 4.8910
 3.4200	 4.9650
 3.4230	 5.2450
 3.4250	 5.5970
 3.4270	 5.7430
 3.4290	 5.7120
 3.4320	 5.5000
 3.4340	 5.1770
 3.4360	 4.9590
 3.4390	 4.7860
 3.4410	 4.7370
 3.4430	 4.6920
 3.4450	 4.5770
 3.4480	 4.5420
 3.4500	 4.5050
 3.4520	 4.5210
 3.4550	 4.6720
 3.4570	 4.9490
 3.4590	 4.9810
 3.4620	 4.7070
 3.4640	 4.5360
 3.4660	 4.5480
 3.4680	 4.6600
 3.4710	 4.6650
 3.4730	 4.7720
 3.4750	 4.7600
 3.4780	 4.6480
 3.4800	 4.5880
 3.4820	 4.5330
 3.4850	 4.4510
 3.4870	 4.4350
 3.4890	 4.4300
 3.4920	 4.3840
 3.4940	 4.3120
 3.4970	 4.3970
 3.4990	 4.5640
 3.5010	 4.7870
 3.5040	 4.8790
 3.5060	 4.9960
 3.5080	 5.3930
 3.5110	 5.6350
 3.5130	 5.5180
 3.5160	 5.5060
 3.5180	 5.5140
 3.5200	 5.3710
 3.5230	 5.2480
 3.5250	 5.2090
 3.5270	 5.1930
 3.5300	 5.1950
 3.5320	 5.1910
 3.5350	 5.1860
 3.5370	 5.1210
 3.5400	 5.0460
 3.5420	 5.0490
 3.5440	 5.1230
 3.5470	 5.1700
 3.5490	 5.2000
 3.5520	 5.0740
 3.5540	 5.1320
 3.5570	 5.3420
 3.5590	 5.2910
 3.5610	 5.2550
 3.5640	 5.3360
 3.5660	 5.3410
 3.5690	 5.1330
 3.5710	 5.1330
 3.5740	 5.3110
 3.5760	 5.2620
 3.5790	 5.1560
 3.5810	 5.1660
 3.5840	 5.1370
 3.5860	 5.0940
 3.5890	 5.2200
 3.5910	 5.2960
 3.5930	 5.2060
 3.5960	 5.2110
 3.5980	 5.3690
 3.6010	 5.3760
 3.6030	 5.2010
 3.6060	 5.1970
 3.6080	 5.3760
 3.6110	 5.3160
 3.6140	 5.3040
 3.6160	 5.3190
 3.6190	 5.3080
 3.6210	 5.1910
 3.6240	 5.0970
 3.6260	 5.1370
 3.6290	 5.2220
 3.6310	 5.1850
 3.6340	 5.1450
 3.6360	 5.1790
 3.6390	 5.1000
 3.6410	 5.1760
 3.6440	 5.2980
 3.6470	 5.2750
 3.6490	 5.3000
 3.6520	 5.2960
 3.6540	 5.2730
 3.6570	 5.1780
 3.6590	 5.1390
 3.6620	 5.0880
 3.6650	 5.0800
 3.6670	 5.0960
 3.6700	 5.0460
 3.6720	 5.0820
 3.6750	 5.1730
 3.6780	 5.1500
 3.6800	 5.1190
 3.6830	 5.1730
 3.6850	 5.3460
 3.6880	 5.4430
 3.6910	 5.3270
 3.6930	 5.3410
 3.6960	 5.4200
 3.6990	 5.4160
 3.7010	 5.3240
 3.7040	 5.2380
 3.7060	 5.1660
 3.7090	 5.1880
 3.7120	 5.2250
 3.7140	 5.2110
 3.7170	 5.2480
 3.7200	 5.3560
 3.7220	 5.3370
 3.7250	 5.3810
 3.7280	 5.4680
 3.7300	 5.3450
 3.7330	 5.1960
 3.7360	 5.1650
 3.7390	 5.2100
 3.7410	 5.3560
 3.7440	 5.4270
 3.7470	 5.3400
 3.7490	 5.2940
 3.7520	 5.3330
 3.7550	 5.3270
 3.7580	 5.2320
 3.7600	 5.1980
 3.7630	 5.2430
 3.7660	 5.2910
 3.7680	 5.3250
 3.7710	 5.4020
 3.7740	 5.4560
 3.7770	 5.5090
 3.7790	 5.4720
 3.7820	 5.3190
 3.7850	 5.1850
 3.7880	 5.2520
 3.7900	 5.3750
 3.7930	 5.4150
 3.7960	 5.4630
 3.7990	 5.4110
 3.8020	 5.3600
 3.8040	 5.3480
 3.8070	 5.2920
 3.8100	 5.3370
 3.8130	 5.4380
 3.8160	 5.4520
 3.8180	 5.3390
 3.8210	 5.2070
 3.8240	 5.2360
 3.8270	 5.3260
 3.8300	 5.4100
 3.8330	 5.5530
 3.8350	 5.4600
 3.8380	 5.3250
 3.8410	 5.2020
 3.8440	 5.1810
 3.8470	 5.3450
 3.8500	 5.5310
 3.8520	 5.5960
 3.8550	 5.4730
 3.8580	 5.3640
 3.8610	 5.3940
 3.8640	 5.4390
 3.8670	 5.3690
 3.8700	 5.4060
 3.8730	 5.5100
 3.8750	 5.5080
 3.8780	 5.4110
 3.8810	 5.4790
 3.8840	 5.5030
 3.8870	 5.4610
 3.8900	 5.5210
 3.8930	 5.5100
 3.8960	 5.5030
 3.8990	 5.4720
 3.9020	 5.4970
 3.9050	 5.4730
 3.9080	 5.4840
 3.9110	 5.6300
 3.9140	 5.6120
 3.9160	 5.5710
 3.9190	 5.6810
 3.9220	 5.6300
 3.9250	 5.5550
 3.9280	 5.5370
 3.9310	 5.5540
 3.9340	 5.5390
 3.9370	 5.5010
 3.9400	 5.4860
 3.9430	 5.5320
 3.9460	 5.4910
 3.9490	 5.4300
 3.9520	 5.4740
 3.9550	 5.5030
 3.9580	 5.4990
 3.9610	 5.5120
 3.9640	 5.4700
 3.9670	 5.4560
 3.9700	 5.4350
 3.9730	 5.4000
 3.9770	 5.4320
 3.9800	 5.4110
 3.9830	 5.5150
 3.9860	 5.6310
 3.9890	 5.6070
 3.9920	 5.5410
 3.9950	 5.5320
 3.9980	 5.5710
 4.0010	 5.5890
 4.0040	 5.5480
 4.0070	 5.5160
 4.0100	 5.5060
 4.0130	 5.4640
 4.0170	 5.4970
 4.0200	 5.5060
 4.0230	 5.5120
 4.0260	 5.6230
 4.0290	 5.6500
 4.0320	 5.6210
 4.0350	 5.6020
 4.0380	 5.6390
 4.0420	 5.5750
 4.0450	 5.5430
 4.0480	 5.5190
 4.0510	 5.5250
 4.0540	 5.5660
 4.0570	 5.6030
 4.0610	 5.5700
 4.0640	 5.5840
 4.0670	 5.6990
 4.0700	 5.6620
 4.0730	 5.5660
 4.0770	 5.5130
 4.0800	 5.4790
 4.0830	 5.5110
 4.0860	 5.5470
 4.0890	 5.5470
 4.0930	 5.5460
 4.0960	 5.5240
 4.0990	 5.4550
 4.1020	 5.5130
 4.1060	 5.5970
 4.1090	 5.6860
 4.1120	 5.6840
 4.1150	 5.6910
 4.1190	 5.6760
 4.1220	 5.5380
 4.1250	 5.4820
 4.1280	 5.5440
 4.1320	 5.5730
 4.1350	 5.5440
 4.1380	 5.5050
 4.1420	 5.5120
 4.1450	 5.5160
 4.1480	 5.5770
 4.1520	 5.5830
 4.1550	 5.5410
 4.1580	 5.5770
 4.1620	 5.7040
 4.1650	 5.7400
 4.1680	 5.6200
 4.1720	 5.4860
 4.1750	 5.4570
 4.1780	 5.4630
 4.1820	 5.5380
 4.1850	 5.5730
 4.1890	 5.5910
 4.1920	 5.5750
 4.1950	 5.5160
 4.1990	 5.4490
 4.2020	 5.4270
 4.2060	 5.5820
 4.2090	 5.7150
 4.2120	 5.5770
 4.2160	 5.6760
 4.2190	 5.8720
 4.2230	 5.9740
 4.2260	 5.6310
 4.2300	 5.5610
 4.2330	 5.8470
 4.2360	 5.9650
 4.2400	 5.9290
 4.2430	 5.9570
 4.2470	 5.7740
 4.2500	 5.5670
 4.2540	 5.5810
 4.2570	 5.7340
 4.2610	 5.7790
 4.2640	 5.7360
 4.2680	 5.6340
 4.2710	 5.5490
 4.2750	 5.7620
 4.2780	 5.9710
 4.2820	 5.5730
 4.2850	 5.6100
 4.2890	 5.8540
 4.2930	 5.8160
 4.2960	 5.6330
 4.3000	 5.9150
 4.3030	 5.9580
 4.3070	 5.7140
 4.3100	 5.4820
 4.3140	 5.4990
 4.3180	 5.5500
 4.3210	 5.6320
 4.3250	 5.5880
 4.3280	 5.5490
 4.3320	 5.5570
 4.3360	 5.5720
 4.3390	 5.5910
 4.3430	 5.5350
 4.3470	 5.5100
 4.3500	 5.5420
 4.3540	 5.5480
 4.3570	 5.5000
 4.3610	 5.4030
 4.3650	 5.3950
 4.3680	 5.4280
 4.3720	 5.4930
 4.3760	 5.5230
 4.3800	 5.5840
 4.3830	 5.5510
 4.3870	 5.5370
 4.3910	 5.4900
 4.3940	 5.4920
 4.3980	 5.5220
 4.4020	 5.4980
 4.4060	 5.5210
 4.4090	 5.5760
 4.4130	 5.4990
 4.4170	 5.4720
 4.4210	 5.5040
 4.4240	 5.4660
 4.4280	 5.4160
 4.4320	 5.4630
 4.4360	 5.5620
 4.4400	 5.5120
 4.4430	 5.3590
 4.4470	 5.3810
 4.4510	 5.4590
 4.4550	 5.5000
 4.4590	 5.4510
 4.4620	 5.3830
 4.4660	 5.4000
 4.4700	 5.4630
 4.4740	 5.4750
 4.4780	 5.4300
 4.4820	 5.3030
 4.4860	 5.3070
 4.4900	 5.3370
 4.4930	 5.3620
 4.4970	 5.3660
 4.5010	 5.3380
 4.5050	 5.2750
 4.5090	 5.3070
 4.5130	 5.2960
 4.5170	 5.2570
 4.5210	 5.2500
 4.5250	 5.3280
 4.5290	 5.4270
 4.5330	 5.5070
 4.5370	 5.4360
 4.5410	 5.3600
 4.5450	 5.3130
 4.5490	 5.4490
 4.5530	 5.4030
 4.5570	 5.3390
 4.5610	 5.2980
 4.5650	 5.3440
 4.5690	 5.3520
 4.5730	 5.3100
 4.5770	 5.2990
 4.5810	 5.3850
 4.5850	 5.3240
 4.5890	 5.2330
 4.5930	 5.2720
 4.5970	 5.3670
 4.6010	 5.3040
 4.6050	 5.2660
 4.6090	 5.3700
 4.6130	 5.3670
 4.6170	 5.1530
 4.6220	 5.2130
 4.6260	 5.3020
 4.6300	 5.2740
 4.6340	 5.2150
 4.6380	 5.2660
 4.6420	 5.2070
 4.6460	 5.2370
 4.6510	 5.2590
 4.6550	 5.2080
 4.6590	 5.1670
 4.6630	 5.2340
 4.6670	 5.2390
 4.6720	 5.1840
 4.6760	 5.1820
 4.6800	 5.3040
 4.6840	 5.3310
 4.6880	 5.3030
 4.6930	 5.2330
 4.6970	 5.2810
 4.7010	 5.2370
 4.7050	 5.3110
 4.7100	 5.3500
 4.7140	 5.3380
 4.7180	 5.2870
 4.7230	 5.3010
 4.7270	 5.2470
 4.7310	 5.2460
 4.7360	 5.2640
 4.7400	 5.3040
 4.7440	 5.3470
 4.7490	 5.3820
 4.7530	 5.2480
 4.7570	 5.2990
 4.7620	 5.3350
 4.7660	 5.3200
 4.7700	 5.2130
 4.7750	 5.2070
 4.7790	 5.3100
 4.7840	 5.2550
 4.7880	 5.1150
 4.7920	 5.2300
 4.7970	 5.1250
 4.8010	 5.1270
 4.8060	 5.2680
 4.8100	 5.3930
 4.8150	 5.4190
 4.8190	 5.3900
 4.8240	 5.2890
 4.8280	 5.2840
 4.8330	 5.2160
 4.8370	 5.2140
 4.8420	 5.2290
 4.8460	 5.3800
 4.8510	 5.3510
 4.8550	 5.3030
 4.8600	 5.2150
 4.8640	 5.1940
 4.8690	 5.2200
 4.8730	 5.2980
 4.8780	 5.3330
 4.8830	 5.3600
 4.8870	 5.4180
 4.8920	 5.4530
 4.8960	 5.3750
 4.9010	 5.3610
 4.9060	 5.3430
 4.9100	 5.3310
 4.9150	 5.2400
 4.9200	 5.2550
 4.9240	 5.2530
 4.9290	 5.2810
 4.9340	 5.2660
 4.9380	 5.2600
 4.9430	 5.2330
 4.9480	 5.2500
 4.9530	 5.2340
 4.9570	 5.1810
 4.9620	 5.2270
 4.9670	 5.3300
 4.9720	 5.3690
 4.9760	 5.3770
 4.9810	 5.3730
 4.9860	 5.3720
 4.9910	 5.2690
 4.9960	 5.3520
 5.0000	 5.3240
 5.0050	 5.3140
 5.0100	 5.2810
 5.0150	 5.3020
 5.0200	 5.2620
 5.0250	 5.3340
 5.0290	 5.2940
 5.0340	 5.2770
 5.0390	 5.2400
 5.0440	 5.2550
 5.0490	 5.3210
 5.0540	 5.3790
 5.0590	 5.3040
 5.0640	 5.3300
 5.0690	 5.3290
 5.0740	 5.3330
 5.0790	 5.3300
 5.0840	 5.3130
 5.0890	 5.2810
 5.0940	 5.2700
 5.0990	 5.2160
 5.1040	 5.2510
 5.1090	 5.2350
 5.1140	 5.3420
 5.1190	 5.3720
 5.1240	 5.3830
 5.1290	 5.2750
 5.1340	 5.2780
 5.1390	 5.2320
 5.1440	 5.2650
 5.1490	 5.2220
 5.1540	 5.2080
 5.1600	 5.3260
 5.1650	 5.3410
 5.1700	 5.2100
 5.1750	 5.3030
 5.1800	 5.2900
 5.1850	 5.3130
 5.1910	 5.3040
 5.1960	 5.2460
 5.2010	 5.2270
 5.2060	 5.3350
 5.2110	 5.3120
 5.2170	 5.2710
 5.2220	 5.2360
 5.2270	 5.2790
 5.2320	 5.1730
 5.2380	 5.1570
 5.2430	 5.1470
 5.2480	 5.1900
 5.2540	 5.1920
 5.2590	 5.2360
 5.2640	 5.2220
 5.2700	 5.3020
 5.2750	 5.2630
 5.2800	 5.2650
 5.2860	 5.2990
 5.2910	 5.2830
 5.2970	 5.1890
 5.3020	 5.1300
 5.3070	 5.0920
 5.3130	 5.2130
 5.3180	 5.1760
 5.3240	 5.1150
 5.3290	 5.1070
 5.3350	 5.1700
 5.3400	 5.1780
 5.3460	 5.1360
 5.3510	 5.0180
 5.3570	 5.1870
 5.3620	 5.2240
 5.3680	 5.1960
 5.3730	 5.1740
 5.3790	 5.1630
 5.3850	 5.1440
 5.3900	 5.2160
 5.3960	 5.1510
 5.4010	 5.1550
 5.4070	 5.1370
 5.4130	 5.0730
 5.4180	 4.9950
 5.4240	 5.1020
 5.4300	 5.0570
 5.4350	 4.9510
 5.4410	 4.8460
 5.4470	 4.9290
 5.4530	 5.0250
 5.4580	 5.0510
 5.4640	 4.8870
 5.4700	 4.8290
 5.4760	 4.8260
 5.4810	 4.9690
 5.4870	 4.9410
 5.4930	 4.8460
 5.4990	 4.8200
 5.5050	 4.8510
 5.5110	 4.7810
 5.5160	 4.7700
 5.5220	 4.6850
 5.5280	 4.6340
 5.5340	 4.5850
 5.5400	 4.5640
 5.5460	 4.4180
 5.5520	 4.4610
 5.5580	 4.5500
 5.5640	 4.5730
 5.5700	 4.4290
 5.5760	 4.3680
 5.5820	 4.3110
 5.5880	 4.3700
 5.5940	 4.3560
 5.6000	 4.2960
 5.6060	 4.1710
 5.6120	 4.2090
 5.6180	 4.1800
 5.6240	 4.1330
 5.6300	 3.9410
 5.6360	 3.8750
 5.6420	 3.8950
 5.6490	 3.8990
 5.6550	 3.7350
 5.6610	 3.6720
 5.6670	 3.6410
 5.6730	 3.5770
 5.6800	 3.3850
 5.6860	 3.3400
 5.6920	 3.3260
 5.6980	 3.3320
 5.7040	 3.2250
 5.7110	 3.2140
 5.7170	 3.1360
 5.7230	 3.1580
 5.7300	 3.1400
 5.7360	 3.1060
 5.7420	 3.0940
 5.7490	 3.2010
 5.7550	 3.2980
 5.7620	 3.3810
 5.7680	 3.3370
 5.7740	 3.5020
 5.7810	 3.6810
 5.7870	 3.9180
 5.7940	 3.9860
 5.8000	 4.0600
 5.8070	 4.0860
 5.8130	 4.2450
 5.8200	 4.3230
 5.8260	 4.3870
 5.8330	 4.2850
 5.8390	 4.3010
 5.8460	 4.4110
 5.8530	 4.5980
 5.8590	 4.5890
 5.8660	 4.7560
 5.8720	 4.8250
 5.8790	 4.8870
 5.8860	 4.8580
 5.8920	 4.8960
 5.8990	 4.8460
 5.9060	 4.9220
 5.9130	 4.9000
 5.9190	 4.8530
 5.9260	 4.8100
 5.9330	 4.8630
 5.9400	 4.9150
 5.9470	 4.9380
 5.9530	 4.7430
 5.9600	 4.6970
 5.9670	 4.7160
 5.9740	 4.7180
 5.9810	 4.6750
 5.9880	 4.7190
 5.9950	 4.4460
 6.0020	 4.3580
 6.0090	 4.4110
 6.0160	 4.3530
 6.0230	 4.2250
 6.0300	 4.3140
 6.0370	 4.3040
 6.0440	 4.4380
 6.0510	 4.5360
 6.0580	 4.6310
 6.0650	 4.5730
 6.0720	 4.6070
 6.0790	 4.6160
 6.0860	 4.5390
 6.0930	 4.5240
 6.1000	 4.6730
 6.1080	 4.5590
 6.1150	 4.5270
 6.1220	 4.5960
 6.1290	 4.6320
 6.1370	 4.4250
 6.1440	 4.3500
 6.1510	 4.3190
 6.1580	 4.5190
 6.1660	 4.4790
 6.1730	 4.4270
 6.1800	 4.3310
 6.1880	 4.3910
 6.1950	 4.3980
 6.2030	 4.5270
 6.2100	 4.5060
 6.2170	 4.5520
 6.2250	 4.5530
 6.2320	 4.6700
 6.2400	 4.7050
 6.2470	 4.8600
 6.2550	 4.7890
 6.2630	 4.7780
 6.2700	 4.7820
 6.2780	 4.8520
 6.2850	 4.8330
 6.2930	 4.9570
 6.3010	 4.9000
 6.3080	 4.8850
 6.3160	 4.8890
 6.3240	 5.0760
 6.3310	 5.1440
 6.3390	 5.0910
 6.3470	 4.9230
 6.3550	 4.9080
 6.3620	 4.9190
 6.3700	 5.0820
 6.3780	 4.9580
 6.3860	 4.9480
 6.3940	 5.0350
 6.4020	 5.0930
 6.4100	 5.0530
 6.4180	 5.1550
 6.4260	 5.1720
 6.4330	 5.2640
 6.4410	 5.0900
 6.4490	 5.0290
 6.4580	 5.0980
 6.4660	 5.2270
 6.4740	 5.0820
 6.4820	 5.0240
 6.4900	 5.0990
 6.4980	 5.1430
 6.5060	 4.9500
 6.5140	 5.0480
 6.5230	 4.9340
 6.5310	 4.8430
 6.5390	 4.8190
 6.5470	 4.9260
 6.5550	 4.7120
 6.5640	 4.5780
 6.5720	 4.5640
 6.5800	 4.6790
 6.5890	 4.7020
 6.5970	 4.9100
 6.6060	 4.9140
 6.6140	 5.0100
 6.6220	 5.0900
 6.6310	 5.1790
 6.6390	 5.0440
 6.6480	 5.0320
 6.6560	 5.0060
 6.6650	 5.0980
 6.6740	 5.0460
 6.6820	 5.1100
 6.6910	 5.0870
 6.6990	 5.0810
 6.7080	 4.8510
 6.7170	 4.8770
 6.7260	 4.8070
 6.7340	 4.8430
 6.7430	 4.7730
 6.7520	 4.8550
 6.7610	 4.7030
 6.7690	 4.6070
 6.7780	 4.5740
 6.7870	 4.7500
 6.7960	 4.5230
 6.8050	 4.3850
 6.8140	 4.3310
 6.8230	 4.5050
 6.8320	 4.7170
 6.8410	 4.8860
 6.8500	 4.5900
 6.8590	 4.4350
 6.8680	 4.3790
 6.8770	 4.4550
 6.8860	 4.4540
 6.8950	 4.5640
 6.9050	 4.5450
 6.9140	 4.5950
 6.9230	 4.3890
 6.9320	 4.4060
 6.9420	 4.5140
 6.9510	 4.6030
 6.9600	 4.6110
 6.9700	 4.6510
 6.9790	 4.5400
 6.9880	 4.5940
 6.9980	 4.5470
 7.0070	 4.6270
 7.0170	 4.5850
 7.0260	 4.5750
 7.0360	 4.4770
 7.0450	 4.5550
 7.0550	 4.4960
 7.0650	 4.5100
 7.0740	 4.4660
 7.0840	 4.6570
 7.0940	 4.6740
 7.1030	 4.7010
 7.1130	 4.5390
 7.1230	 4.4730
 7.1330	 4.4720
 7.1420	 4.5150
 7.1520	 4.3460
 7.1620	 4.3910
 7.1720	 4.3810
 7.1820	 4.4560
 7.1920	 4.3050
 7.2020	 4.3580
 7.2120	 4.2620
 7.2220	 4.2520
 7.2320	 4.2940
 7.2420	 4.4230
 7.2520	 4.2540
 7.2620	 4.2660
 7.2730	 4.3000
 7.2830	 4.2970
 7.2930	 4.0690
 7.3030	 4.1400
 7.3140	 4.0890
 7.3240	 4.2810
 7.3340	 4.4460
 7.3450	 4.4910
 7.3550	 4.4200
 7.3660	 4.5420
 7.3760	 4.5710
 7.3870	 4.6450
 7.3970	 4.5750
 7.4080	 4.7040
 7.4180	 4.6230
 7.4290	 4.6560
 7.4400	 4.5750
 7.4500	 4.7080
 7.4610	 4.7320
 7.4720	 4.6690
 7.4830	 4.4270
 7.4930	 4.4670
 7.5040	 4.4510
 7.5150	 4.4580
 7.5260	 4.3760
 7.5370	 4.4710
 7.5480	 4.3820
 7.5590	 4.4950
 7.5700	 4.4420
 7.5810	 4.4610
 7.5920	 4.3540
 7.6030	 4.3660
 7.6140	 4.2870
 7.6260	 4.4130
 7.6370	 4.4810
 7.6480	 4.5930
 7.6590	 4.3650
 7.6710	 4.4130
 7.6820	 4.3980
 7.6930	 4.4940
 7.7050	 4.3180
 7.7160	 4.2680
 7.7280	 4.2000
 7.7390	 4.3940
 7.7510	 4.2590
 7.7630	 4.1410
 7.7740	 4.0650
 7.7860	 4.1350
 7.7980	 4.0100
 7.8090	 4.2310
 7.8210	 4.2300
 7.8330	 4.2390
 7.8450	 4.0970
 7.8570	 4.1930
 7.8690	 4.0970
 7.8810	 4.1440
 7.8930	 4.0580
 7.9050	 4.0590
 7.9170	 4.0250
 7.9290	 4.2430
 7.9410	 4.1030
 7.9530	 4.0610
 7.9650	 3.9720
 7.9780	 4.1000
 7.9900	 3.9480
 8.0020	 3.9560
 8.0150	 3.8580
 8.0270	 3.7650
 8.0390	 3.4750
 8.0520	 3.6420
 8.0640	 3.5250
 8.0770	 3.4900
 8.0900	 3.4790
 8.1020	 3.6560
 8.1150	 3.5350
 8.1280	 3.4850
 8.1400	 3.3930
 8.1530	 3.6370
 8.1660	 3.4720
 8.1790	 3.4280
 8.1920	 3.2730
 8.2050	 3.3780
 8.2180	 3.3370
 8.2310	 3.5700
 8.2440	 3.4440
 8.2570	 3.4360
 8.2700	 3.2900
 8.2830	 3.4000
 8.2970	 3.3500
 8.3100	 3.4950
 8.3230	 3.4800
 8.3370	 3.5260
 8.3500	 3.1620
 8.3640	 3.2670
 8.3770	 3.3760
 8.3910	 3.5540
 8.4040	 3.3520
 8.4180	 3.2510
 8.4320	 3.0290
 8.4450	 3.1910
 8.4590	 2.9560
 8.4730	 3.0420
 8.4870	 3.0380
 8.5010	 3.2980
 8.5150	 3.2790
 8.5290	 3.3940
 8.5430	 3.2640
 8.5570	 3.4110
 8.5710	 3.2960
 8.5850	 3.3130
 8.5990	 3.3750
 8.6140	 3.5760
 8.6280	 3.2820
 8.6420	 3.4780
 8.6570	 3.4770
 8.6710	 3.3900
 8.6860	 3.3660
 8.7000	 3.5410
 8.7150	 3.3940
 8.7300	 3.6020
 8.7440	 3.5650
 8.7590	 3.7020
 8.7740	 3.5090
 8.7890	 3.6220
 8.8040	 3.4230
 8.8190	 3.3910
 8.8340	 3.3970
 8.8490	 3.6040
 8.8640	 3.3010
 8.8790	 3.4340
 8.8940	 3.4330
 8.9100	 3.5750
 8.9250	 3.4380
 8.9400	 3.4770
 8.9560	 3.3800
 8.9710	 3.5350
 8.9870	 3.5230
 9.0020	 3.6440
 9.0180	 3.4360
 9.0340	 3.6650
 9.0500	 3.6520
 9.0650	 3.9270
 9.0810	 4.0190
 9.0970	 4.2980
 9.1130	 4.0880
 9.1290	 4.1680
 9.1450	 4.2300
 9.1610	 4.3630
 9.1780	 4.2620
 9.1940	 4.4940
 9.2100	 4.4690
 9.2270	 4.7440
 9.2430	 4.6430
 9.2600	 4.6880
 9.2760	 4.5360
 9.2930	 4.6210
 9.3090	 4.4340
 9.3260	 4.5470
 9.3430	 4.5330
 9.3600	 4.9070
 9.3770	 4.8530
 9.3940	 5.0880
 9.4110	 5.0290
 9.4280	 5.2330
 9.4450	 5.1040
 9.4620	 5.2390
 9.4800	 5.0970
 9.4970	 5.2480
 9.5140	 5.3630
 9.5320	 5.6340
 9.5500	 5.3930
 9.5670	 5.4890
 9.5850	 5.3950
 9.6030	 5.5810
 9.6200	 5.3390
 9.6380	 5.4390
 9.6560	 5.5140
 9.6740	 5.7170
 9.6920	 5.5450
 9.7100	 5.6800
 9.7290	 5.4990
 9.7470	 5.7890
 9.7650	 5.8590
 9.7840	 6.1850
 9.8020	 6.0100
 9.8210	 6.1140
 9.8390	 5.9940
 9.8580	 6.0290
 9.8770	 5.8510
 9.8960	 5.8440
 9.9150	 5.7690
 9.9340	 5.8610
 9.9530	 5.7100
 9.9720	 5.7330
 9.9910	 5.5950
10.0100	 5.8040
10.0300	 5.6480
10.0490	 5.6990
10.0690	 5.5570
10.0880	 5.7170
10.1080	 5.5150
10.1280	 5.6570
10.1480	 5.5930
10.1670	 5.6460
10.1870	 5.6220
10.2070	 5.8450
10.2280	 5.7240
10.2480	 5.7540
10.2680	 5.6460
10.2890	 5.8240
10.3090	 5.5760
10.3300	 5.7050
10.3500	 5.6390
10.3710	 5.7930
10.3920	 5.7110
10.4120	 5.8550
10.4330	 5.7730
10.4540	 5.9740
10.4760	 6.0830
10.4970	 6.2130
10.5180	 5.8690
10.5390	 5.8460
10.5610	 5.7260
10.5820	 5.9970
10.6040	 5.9650
10.6260	 6.0540
10.6480	 5.9190
10.6700	 6.2180
10.6920	 6.1380
10.7140	 6.1640
10.7360	 5.9970
10.7580	 6.2300
10.7800	 6.0470
10.8030	 6.2180
10.8250	 6.0820
10.8480	 6.0350
10.8710	 5.9660
10.8940	 6.2630
10.9170	 6.2260
10.9400	 6.3770
10.9630	 6.1650
10.9860	 6.3400
11.0090	 6.1070
11.0330	 6.2300
11.0560	 6.0710
11.0800	 6.1180
11.1040	 5.9650
11.1270	 5.9600
11.1510	 5.6980
11.1750	 5.9070
11.2000	 5.6320
11.2240	 5.7460
11.2480	 5.7920
11.2730	 6.1630
11.2970	 6.2500
11.3220	 6.3770
11.3470	 6.0200
11.3720	 6.0860
11.3970	 5.8840
11.4220	 5.8890
11.4470	 5.9010
11.4720	 6.2610
11.4980	 5.7800
11.5230	 5.7910
11.5490	 5.5820
11.5750	 5.6550
11.6000	 5.4240
11.6260	 5.6290
11.6530	 5.2870
11.6790	 5.1960
11.7050	 4.9130
11.7320	 5.1430
11.7580	 4.9000
11.7850	 5.0900
11.8120	 4.9840
11.8390	 5.1750
11.8660	 4.8200
11.8930	 4.9650
11.9200	 4.8270
11.9480	 4.9860
11.9760	 4.8360
12.0030	 5.0240
12.0310	 4.8410
12.0590	 5.0090
12.0870	 4.6920
12.1150	 4.8860
12.1440	 4.7170
12.1720	 4.7820
12.2010	 4.3780
12.2300	 4.3710
12.2590	 4.2900
12.2880	 4.6850
12.3170	 4.6060
12.3460	 4.8980
12.3760	 4.6120
12.4050	 4.8430
12.4350	 4.7180
12.4650	 4.9530
12.4950	 4.9240
12.5250	 4.9820
12.5550	 4.5490
12.5860	 4.5830
12.6170	 4.2450
12.6470	 4.6420
12.6780	 4.5380
12.7090	 4.7910
12.7410	 4.6130
12.7720	 4.8770
12.8030	 4.7180
12.8350	 5.1360
12.8670	 4.9550
12.8990	 4.8900
12.9310	 4.5570
12.9640	 4.9840
12.9960	 4.8310
13.0290	 4.9370
13.0610	 4.7900
13.0940	 5.0000
13.1280	 4.9460
13.1610	 5.2470
13.1940	 4.6520
13.2280	 4.1360
13.2620	 3.8600
13.2960	 4.5190
13.3300	 4.5230
13.3640	 4.8260
13.3990	 4.4430
13.4340	 4.6200
13.4690	 4.0880
13.5040	 3.9850
13.5390	 3.9890
13.5740	 4.5830
13.6100	 4.4850
13.6460	 5.1110
13.6820	 4.6520
13.7180	 4.6260
13.7540	 4.4690
13.7910	 4.6380
13.8280	 4.2040
13.8650	 4.7870
13.9020	 4.7070
13.9390	 5.0180
13.9770	 4.7080
14.0150	 4.8740
14.0530	 4.2640
14.0910	 4.4220
14.1290	 4.0950
14.1680	 4.4640
14.2070	 4.1770
14.2460	 4.6660
14.2850	 4.2730
14.3240	 4.1930
14.3640	 4.1760
14.4040	 4.9460
14.4440	 4.1990
14.4840	 4.5550
14.5250	 4.3120
14.5660	 5.0460
14.6070	 4.2490
14.6480	 4.5510
14.6900	 4.2110
14.7310	 4.5830
14.7730	 4.1780
14.8150	 4.7010
14.8580	 4.1150
14.9010	 4.8380
14.9440	 3.7400
14.9870	 4.1980
15.0300	 3.6200
15.0740	 4.2990
15.1180	 3.9080
15.1620	 4.3500
15.2060	 3.8340
15.2510	 4.2300
15.2960	 3.6770
15.3410	 4.4760
15.3870	 3.5170
