Name: Brachychiton discolor
Type: vegetation
Class: Tree
Genus: Brachychiton
Species: discolor
Sample No.: JPL082
Owner: JPL
Wavelength Range: VSWIR
Origin: 34.1244; - 118.11365; WGS84
Collection Date: 2/2/2016
Description: Samples were collected at the Huntington Garden in San Marino California as part of a JPL Subcontract studying HyTES imagery. Samples were taken to JPL and processed within 48 hours of collection. The same leaves were processed in the Nicolet and then measured using the ASD.
Measurement: Bidirectional reflectance
First Column: X
Second Column: Y
X Units: Wavelength (micrometer)
Y Units: Reflectance (percentage)
First X Value: 0.35
Last X Value: 2.5
Number of X Values: 2151
Additional Information: 

 0.3500	 6.6190
 0.3510	 6.4780
 0.3520	 5.5330
 0.3530	 5.7800
 0.3540	 7.8010
 0.3550	 7.4770
 0.3560	 6.8310
 0.3570	 6.2730
 0.3580	 5.4360
 0.3590	 5.5570
 0.3600	 6.0630
 0.3610	 6.4810
 0.3620	 6.7560
 0.3630	 6.8950
 0.3640	 6.8730
 0.3650	 6.6950
 0.3660	 6.4600
 0.3670	 5.9450
 0.3680	 5.5220
 0.3690	 5.9170
 0.3700	 6.3860
 0.3710	 6.7290
 0.3720	 6.7960
 0.3730	 6.2550
 0.3740	 6.1620
 0.3750	 6.3470
 0.3760	 6.3580
 0.3770	 6.5060
 0.3780	 6.7300
 0.3790	 6.9270
 0.3800	 6.9500
 0.3810	 6.5220
 0.3820	 5.9710
 0.3830	 5.6950
 0.3840	 6.0320
 0.3850	 6.1520
 0.3860	 6.1250
 0.3870	 6.2610
 0.3880	 6.1100
 0.3890	 5.9890
 0.3900	 5.9890
 0.3910	 5.9280
 0.3920	 5.6970
 0.3930	 5.7930
 0.3940	 6.3680
 0.3950	 6.4380
 0.3960	 6.3710
 0.3970	 6.1700
 0.3980	 5.7800
 0.3990	 5.9260
 0.4000	 6.1260
 0.4010	 6.1200
 0.4020	 6.0860
 0.4030	 6.2800
 0.4040	 6.4020
 0.4050	 6.1890
 0.4060	 5.9390
 0.4070	 5.9510
 0.4080	 6.0650
 0.4090	 5.8930
 0.4100	 6.0370
 0.4110	 6.1830
 0.4120	 6.1310
 0.4130	 6.0690
 0.4140	 6.1600
 0.4150	 6.1870
 0.4160	 5.9590
 0.4170	 6.0680
 0.4180	 6.2050
 0.4190	 6.1810
 0.4200	 5.9760
 0.4210	 5.8800
 0.4220	 6.0050
 0.4230	 6.2850
 0.4240	 6.3610
 0.4250	 6.2350
 0.4260	 6.1010
 0.4270	 6.1840
 0.4280	 6.1810
 0.4290	 6.1510
 0.4300	 6.1400
 0.4310	 6.1330
 0.4320	 6.1520
 0.4330	 6.2280
 0.4340	 6.3380
 0.4350	 6.2580
 0.4360	 6.1950
 0.4370	 6.2170
 0.4380	 6.2690
 0.4390	 6.2560
 0.4400	 6.2090
 0.4410	 6.1640
 0.4420	 6.1140
 0.4430	 6.1220
 0.4440	 6.1650
 0.4450	 6.1910
 0.4460	 6.2330
 0.4470	 6.2400
 0.4480	 6.2170
 0.4490	 6.2400
 0.4500	 6.2290
 0.4510	 6.1880
 0.4520	 6.1570
 0.4530	 6.2430
 0.4540	 6.3020
 0.4550	 6.2860
 0.4560	 6.2160
 0.4570	 6.1620
 0.4580	 6.1940
 0.4590	 6.2890
 0.4600	 6.2450
 0.4610	 6.2600
 0.4620	 6.2890
 0.4630	 6.2410
 0.4640	 6.2190
 0.4650	 6.2210
 0.4660	 6.2340
 0.4670	 6.2310
 0.4680	 6.2140
 0.4690	 6.2000
 0.4700	 6.1960
 0.4710	 6.1530
 0.4720	 6.2380
 0.4730	 6.3470
 0.4740	 6.2650
 0.4750	 6.2150
 0.4760	 6.2280
 0.4770	 6.2790
 0.4780	 6.2790
 0.4790	 6.2630
 0.4800	 6.2530
 0.4810	 6.2620
 0.4820	 6.2920
 0.4830	 6.2740
 0.4840	 6.2310
 0.4850	 6.2580
 0.4860	 6.2780
 0.4870	 6.2720
 0.4880	 6.2480
 0.4890	 6.2610
 0.4900	 6.2900
 0.4910	 6.3010
 0.4920	 6.2620
 0.4930	 6.2340
 0.4940	 6.2850
 0.4950	 6.3720
 0.4960	 6.2990
 0.4970	 6.2830
 0.4980	 6.3280
 0.4990	 6.3710
 0.5000	 6.3450
 0.5010	 6.3560
 0.5020	 6.4030
 0.5030	 6.3950
 0.5040	 6.3640
 0.5050	 6.3710
 0.5060	 6.4430
 0.5070	 6.5300
 0.5080	 6.5940
 0.5090	 6.6180
 0.5100	 6.6100
 0.5110	 6.6460
 0.5120	 6.7090
 0.5130	 6.7810
 0.5140	 6.8580
 0.5150	 6.9190
 0.5160	 7.0170
 0.5170	 7.1750
 0.5180	 7.2250
 0.5190	 7.2750
 0.5200	 7.3670
 0.5210	 7.4890
 0.5220	 7.6370
 0.5230	 7.7680
 0.5240	 7.8680
 0.5250	 7.9920
 0.5260	 8.1030
 0.5270	 8.1930
 0.5280	 8.2790
 0.5290	 8.4480
 0.5300	 8.5880
 0.5310	 8.6700
 0.5320	 8.7840
 0.5330	 8.8710
 0.5340	 8.9460
 0.5350	 9.0280
 0.5360	 9.0970
 0.5370	 9.1780
 0.5380	 9.2690
 0.5390	 9.3480
 0.5400	 9.4300
 0.5410	 9.5430
 0.5420	 9.6790
 0.5430	 9.7550
 0.5440	 9.7880
 0.5450	 9.8080
 0.5460	 9.8360
 0.5470	 9.7990
 0.5480	 9.7670
 0.5490	 9.7720
 0.5500	 9.7760
 0.5510	 9.7910
 0.5520	 9.7900
 0.5530	 9.7580
 0.5540	 9.7520
 0.5550	 9.7230
 0.5560	 9.6800
 0.5570	 9.6660
 0.5580	 9.6020
 0.5590	 9.5340
 0.5600	 9.4900
 0.5610	 9.4090
 0.5620	 9.3500
 0.5630	 9.2920
 0.5640	 9.1920
 0.5650	 9.1130
 0.5660	 9.0490
 0.5670	 8.9850
 0.5680	 8.8970
 0.5690	 8.8010
 0.5700	 8.7120
 0.5710	 8.6340
 0.5720	 8.5410
 0.5730	 8.4520
 0.5740	 8.3710
 0.5750	 8.2990
 0.5760	 8.2440
 0.5770	 8.1940
 0.5780	 8.1420
 0.5790	 8.0940
 0.5800	 8.0440
 0.5810	 7.9910
 0.5820	 7.9430
 0.5830	 7.9160
 0.5840	 7.9020
 0.5850	 7.8820
 0.5860	 7.8310
 0.5870	 7.7870
 0.5880	 7.7620
 0.5890	 7.7470
 0.5900	 7.7010
 0.5910	 7.6690
 0.5920	 7.6590
 0.5930	 7.6550
 0.5940	 7.6400
 0.5950	 7.5970
 0.5960	 7.5450
 0.5970	 7.5610
 0.5980	 7.5780
 0.5990	 7.5710
 0.6000	 7.5370
 0.6010	 7.4930
 0.6020	 7.4640
 0.6030	 7.4490
 0.6040	 7.4190
 0.6050	 7.4080
 0.6060	 7.3910
 0.6070	 7.3500
 0.6080	 7.3280
 0.6090	 7.2920
 0.6100	 7.2730
 0.6110	 7.3090
 0.6120	 7.2770
 0.6130	 7.2180
 0.6140	 7.1630
 0.6150	 7.0990
 0.6160	 7.0590
 0.6170	 7.0270
 0.6180	 6.9820
 0.6190	 6.9680
 0.6200	 6.9610
 0.6210	 6.9370
 0.6220	 6.8790
 0.6230	 6.8550
 0.6240	 6.8500
 0.6250	 6.8480
 0.6260	 6.8460
 0.6270	 6.8380
 0.6280	 6.8250
 0.6290	 6.8170
 0.6300	 6.8380
 0.6310	 6.8430
 0.6320	 6.8240
 0.6330	 6.8140
 0.6340	 6.7910
 0.6350	 6.7680
 0.6360	 6.7540
 0.6370	 6.7480
 0.6380	 6.7400
 0.6390	 6.7180
 0.6400	 6.6800
 0.6410	 6.6820
 0.6420	 6.6760
 0.6430	 6.6420
 0.6440	 6.6190
 0.6450	 6.5910
 0.6460	 6.5670
 0.6470	 6.5570
 0.6480	 6.5500
 0.6490	 6.5390
 0.6500	 6.5180
 0.6510	 6.4860
 0.6520	 6.4660
 0.6530	 6.4690
 0.6540	 6.4860
 0.6550	 6.4670
 0.6560	 6.4420
 0.6570	 6.4270
 0.6580	 6.4260
 0.6590	 6.4020
 0.6600	 6.3740
 0.6610	 6.3520
 0.6620	 6.3320
 0.6630	 6.3220
 0.6640	 6.3110
 0.6650	 6.2950
 0.6660	 6.3020
 0.6670	 6.2800
 0.6680	 6.2490
 0.6690	 6.2580
 0.6700	 6.2650
 0.6710	 6.2650
 0.6720	 6.2620
 0.6730	 6.2620
 0.6740	 6.2650
 0.6750	 6.2860
 0.6760	 6.3250
 0.6770	 6.2980
 0.6780	 6.2860
 0.6790	 6.3110
 0.6800	 6.3520
 0.6810	 6.3830
 0.6820	 6.3980
 0.6830	 6.4040
 0.6840	 6.4360
 0.6850	 6.4610
 0.6860	 6.4950
 0.6870	 6.5580
 0.6880	 6.6360
 0.6890	 6.6970
 0.6900	 6.7580
 0.6910	 6.8680
 0.6920	 6.9980
 0.6930	 7.1740
 0.6940	 7.4090
 0.6950	 7.6710
 0.6960	 7.9780
 0.6970	 8.3440
 0.6980	 8.7730
 0.6990	 9.2210
 0.7000	 9.7390
 0.7010	10.3340
 0.7020	10.9750
 0.7030	11.6390
 0.7040	12.3380
 0.7050	13.0780
 0.7060	13.8390
 0.7070	14.6420
 0.7080	15.4740
 0.7090	16.3120
 0.7100	17.1480
 0.7110	18.0140
 0.7120	18.9220
 0.7130	19.8670
 0.7140	20.7910
 0.7150	21.7070
 0.7160	22.6430
 0.7170	23.6230
 0.7180	24.6210
 0.7190	25.6120
 0.7200	26.5840
 0.7210	27.5610
 0.7220	28.5520
 0.7230	29.5440
 0.7240	30.5030
 0.7250	31.4540
 0.7260	32.3870
 0.7270	33.2900
 0.7280	34.1610
 0.7290	35.0190
 0.7300	35.8640
 0.7310	36.6790
 0.7320	37.4310
 0.7330	38.1490
 0.7340	38.8480
 0.7350	39.5310
 0.7360	40.1590
 0.7370	40.7490
 0.7380	41.3190
 0.7390	41.8550
 0.7400	42.3610
 0.7410	42.8360
 0.7420	43.2760
 0.7430	43.6730
 0.7440	44.0490
 0.7450	44.4120
 0.7460	44.7480
 0.7470	45.0520
 0.7480	45.3340
 0.7490	45.5970
 0.7500	45.8310
 0.7510	46.0430
 0.7520	46.2430
 0.7530	46.4370
 0.7540	46.5950
 0.7550	46.7320
 0.7560	46.8600
 0.7570	46.9880
 0.7580	47.1060
 0.7590	47.2210
 0.7600	47.3280
 0.7610	47.4090
 0.7620	47.4680
 0.7630	47.5360
 0.7640	47.6250
 0.7650	47.6740
 0.7660	47.7080
 0.7670	47.7500
 0.7680	47.8110
 0.7690	47.8440
 0.7700	47.8740
 0.7710	47.9060
 0.7720	47.9170
 0.7730	47.9410
 0.7740	47.9700
 0.7750	47.9880
 0.7760	47.9890
 0.7770	48.0070
 0.7780	48.0340
 0.7790	48.0450
 0.7800	48.0420
 0.7810	48.0390
 0.7820	48.0410
 0.7830	48.0400
 0.7840	48.0450
 0.7850	48.0570
 0.7860	48.0720
 0.7870	48.0820
 0.7880	48.0900
 0.7890	48.0840
 0.7900	48.0600
 0.7910	48.0670
 0.7920	48.0650
 0.7930	48.0540
 0.7940	48.0590
 0.7950	48.0440
 0.7960	48.0250
 0.7970	48.0160
 0.7980	48.0210
 0.7990	48.0220
 0.8000	48.0090
 0.8010	47.9830
 0.8020	47.9820
 0.8030	47.9690
 0.8040	47.9470
 0.8050	47.9330
 0.8060	47.9260
 0.8070	47.9280
 0.8080	47.9260
 0.8090	47.9040
 0.8100	47.8840
 0.8110	47.8660
 0.8120	47.8490
 0.8130	47.8370
 0.8140	47.8150
 0.8150	47.7990
 0.8160	47.8020
 0.8170	47.7910
 0.8180	47.7810
 0.8190	47.7780
 0.8200	47.7840
 0.8210	47.7680
 0.8220	47.7540
 0.8230	47.7440
 0.8240	47.7240
 0.8250	47.7070
 0.8260	47.6930
 0.8270	47.6830
 0.8280	47.6880
 0.8290	47.7010
 0.8300	47.7140
 0.8310	47.7200
 0.8320	47.7140
 0.8330	47.6960
 0.8340	47.6720
 0.8350	47.6510
 0.8360	47.6440
 0.8370	47.6580
 0.8380	47.6850
 0.8390	47.7010
 0.8400	47.7190
 0.8410	47.7200
 0.8420	47.7050
 0.8430	47.7040
 0.8440	47.7150
 0.8450	47.7230
 0.8460	47.7220
 0.8470	47.7470
 0.8480	47.7800
 0.8490	47.7930
 0.8500	47.7730
 0.8510	47.7780
 0.8520	47.8040
 0.8530	47.8350
 0.8540	47.8510
 0.8550	47.8510
 0.8560	47.8660
 0.8570	47.8940
 0.8580	47.9020
 0.8590	47.9110
 0.8600	47.9160
 0.8610	47.9170
 0.8620	47.9200
 0.8630	47.9380
 0.8640	47.9680
 0.8650	48.0040
 0.8660	48.0450
 0.8670	48.0560
 0.8680	48.0530
 0.8690	48.0640
 0.8700	48.0850
 0.8710	48.1020
 0.8720	48.1120
 0.8730	48.1220
 0.8740	48.1360
 0.8750	48.1600
 0.8760	48.1850
 0.8770	48.1900
 0.8780	48.2160
 0.8790	48.2410
 0.8800	48.2590
 0.8810	48.2990
 0.8820	48.2950
 0.8830	48.2920
 0.8840	48.3230
 0.8850	48.3360
 0.8860	48.3680
 0.8870	48.3940
 0.8880	48.3890
 0.8890	48.3970
 0.8900	48.4170
 0.8910	48.4320
 0.8920	48.4290
 0.8930	48.4420
 0.8940	48.4660
 0.8950	48.4850
 0.8960	48.4830
 0.8970	48.5210
 0.8980	48.5100
 0.8990	48.4710
 0.9000	48.5180
 0.9010	48.5090
 0.9020	48.5130
 0.9030	48.5430
 0.9040	48.5140
 0.9050	48.5150
 0.9060	48.5350
 0.9070	48.5500
 0.9080	48.5530
 0.9090	48.5460
 0.9100	48.5420
 0.9110	48.5490
 0.9120	48.5580
 0.9130	48.5470
 0.9140	48.5600
 0.9150	48.6190
 0.9160	48.5870
 0.9170	48.5800
 0.9180	48.5980
 0.9190	48.5940
 0.9200	48.5580
 0.9210	48.5740
 0.9220	48.6080
 0.9230	48.5770
 0.9240	48.5600
 0.9250	48.5420
 0.9260	48.5240
 0.9270	48.5190
 0.9280	48.5120
 0.9290	48.5030
 0.9300	48.4830
 0.9310	48.4490
 0.9320	48.4640
 0.9330	48.4370
 0.9340	48.3730
 0.9350	48.4040
 0.9360	48.4260
 0.9370	48.4050
 0.9380	48.3570
 0.9390	48.3520
 0.9400	48.3100
 0.9410	48.2920
 0.9420	48.3120
 0.9430	48.2480
 0.9440	48.2060
 0.9450	48.1820
 0.9460	48.1560
 0.9470	48.1500
 0.9480	48.0660
 0.9490	48.0140
 0.9500	48.0490
 0.9510	47.9550
 0.9520	47.8440
 0.9530	47.8290
 0.9540	47.9110
 0.9550	47.7670
 0.9560	47.7000
 0.9570	47.7120
 0.9580	47.7120
 0.9590	47.6530
 0.9600	47.5360
 0.9610	47.4540
 0.9620	47.4710
 0.9630	47.4580
 0.9640	47.4140
 0.9650	47.3850
 0.9660	47.4010
 0.9670	47.3730
 0.9680	47.3200
 0.9690	47.2670
 0.9700	47.2430
 0.9710	47.2730
 0.9720	47.3330
 0.9730	47.3540
 0.9740	47.2930
 0.9750	47.3090
 0.9760	47.2770
 0.9770	47.2480
 0.9780	47.3100
 0.9790	47.3050
 0.9800	47.3120
 0.9810	47.3250
 0.9820	47.3040
 0.9830	47.2800
 0.9840	47.2620
 0.9850	47.2550
 0.9860	47.2720
 0.9870	47.3690
 0.9880	47.3670
 0.9890	47.2930
 0.9900	47.2760
 0.9910	47.3050
 0.9920	47.3270
 0.9930	47.3570
 0.9940	47.4140
 0.9950	47.3820
 0.9960	47.3860
 0.9970	47.4060
 0.9980	47.3890
 0.9990	47.4520
 1.0000	47.4910
 1.0010	47.8560
 1.0020	47.8490
 1.0030	47.8450
 1.0040	47.8560
 1.0050	47.8560
 1.0060	47.8830
 1.0070	47.9350
 1.0080	47.9550
 1.0090	47.9440
 1.0100	47.9570
 1.0110	47.9680
 1.0120	47.9840
 1.0130	48.0190
 1.0140	48.0420
 1.0150	48.0540
 1.0160	48.0730
 1.0170	48.0930
 1.0180	48.1200
 1.0190	48.1490
 1.0200	48.1680
 1.0210	48.1940
 1.0220	48.1990
 1.0230	48.2100
 1.0240	48.2190
 1.0250	48.2300
 1.0260	48.2420
 1.0270	48.2520
 1.0280	48.2630
 1.0290	48.2630
 1.0300	48.2320
 1.0310	48.2390
 1.0320	48.2660
 1.0330	48.2860
 1.0340	48.3050
 1.0350	48.3510
 1.0360	48.3810
 1.0370	48.4080
 1.0380	48.4380
 1.0390	48.4900
 1.0400	48.5170
 1.0410	48.5310
 1.0420	48.5350
 1.0430	48.5190
 1.0440	48.5200
 1.0450	48.4900
 1.0460	48.5110
 1.0470	48.6020
 1.0480	48.6370
 1.0490	48.6620
 1.0500	48.6900
 1.0510	48.6880
 1.0520	48.6880
 1.0530	48.6940
 1.0540	48.7260
 1.0550	48.7280
 1.0560	48.6960
 1.0570	48.7030
 1.0580	48.7270
 1.0590	48.7350
 1.0600	48.7600
 1.0610	48.7670
 1.0620	48.7510
 1.0630	48.7450
 1.0640	48.7290
 1.0650	48.7340
 1.0660	48.7620
 1.0670	48.7740
 1.0680	48.7860
 1.0690	48.8110
 1.0700	48.8220
 1.0710	48.8140
 1.0720	48.8240
 1.0730	48.8610
 1.0740	48.8540
 1.0750	48.8230
 1.0760	48.8090
 1.0770	48.7630
 1.0780	48.7550
 1.0790	48.7870
 1.0800	48.7990
 1.0810	48.8220
 1.0820	48.8290
 1.0830	48.8160
 1.0840	48.8140
 1.0850	48.8050
 1.0860	48.8040
 1.0870	48.8080
 1.0880	48.8220
 1.0890	48.8310
 1.0900	48.8410
 1.0910	48.8500
 1.0920	48.8670
 1.0930	48.8640
 1.0940	48.8540
 1.0950	48.8420
 1.0960	48.7980
 1.0970	48.7890
 1.0980	48.8060
 1.0990	48.8070
 1.1000	48.8190
 1.1010	48.8250
 1.1020	48.8210
 1.1030	48.8120
 1.1040	48.8040
 1.1050	48.7880
 1.1060	48.7730
 1.1070	48.7520
 1.1080	48.7290
 1.1090	48.6970
 1.1100	48.6850
 1.1110	48.6790
 1.1120	48.6680
 1.1130	48.6710
 1.1140	48.6690
 1.1150	48.6610
 1.1160	48.6500
 1.1170	48.6480
 1.1180	48.6340
 1.1190	48.6100
 1.1200	48.5760
 1.1210	48.5500
 1.1220	48.5360
 1.1230	48.5310
 1.1240	48.5120
 1.1250	48.4750
 1.1260	48.4320
 1.1270	48.3680
 1.1280	48.2670
 1.1290	48.1970
 1.1300	48.1260
 1.1310	48.0560
 1.1320	48.0110
 1.1330	47.9350
 1.1340	47.8390
 1.1350	47.7540
 1.1360	47.6650
 1.1370	47.5640
 1.1380	47.4870
 1.1390	47.3970
 1.1400	47.3030
 1.1410	47.2060
 1.1420	47.0840
 1.1430	46.9530
 1.1440	46.8330
 1.1450	46.6980
 1.1460	46.5890
 1.1470	46.5040
 1.1480	46.3990
 1.1490	46.2920
 1.1500	46.1870
 1.1510	46.0710
 1.1520	45.9720
 1.1530	45.8720
 1.1540	45.7890
 1.1550	45.7180
 1.1560	45.6550
 1.1570	45.6110
 1.1580	45.5750
 1.1590	45.5410
 1.1600	45.4930
 1.1610	45.4310
 1.1620	45.3810
 1.1630	45.3250
 1.1640	45.2810
 1.1650	45.2490
 1.1660	45.2290
 1.1670	45.2020
 1.1680	45.1830
 1.1690	45.1630
 1.1700	45.1400
 1.1710	45.1190
 1.1720	45.0990
 1.1730	45.0820
 1.1740	45.0610
 1.1750	45.0510
 1.1760	45.0490
 1.1770	45.0460
 1.1780	45.0340
 1.1790	45.0160
 1.1800	44.9980
 1.1810	44.9590
 1.1820	44.9260
 1.1830	44.9060
 1.1840	44.8800
 1.1850	44.8700
 1.1860	44.8580
 1.1870	44.8240
 1.1880	44.8030
 1.1890	44.7790
 1.1900	44.7710
 1.1910	44.7800
 1.1920	44.7860
 1.1930	44.8100
 1.1940	44.8080
 1.1950	44.7900
 1.1960	44.7820
 1.1970	44.7730
 1.1980	44.7750
 1.1990	44.7920
 1.2000	44.8040
 1.2010	44.8080
 1.2020	44.8050
 1.2030	44.8030
 1.2040	44.8080
 1.2050	44.8160
 1.2060	44.8330
 1.2070	44.8460
 1.2080	44.8490
 1.2090	44.8520
 1.2100	44.8520
 1.2110	44.8670
 1.2120	44.8950
 1.2130	44.9230
 1.2140	44.9660
 1.2150	45.0000
 1.2160	45.0330
 1.2170	45.0570
 1.2180	45.0810
 1.2190	45.0960
 1.2200	45.1140
 1.2210	45.1360
 1.2220	45.1650
 1.2230	45.1950
 1.2240	45.2280
 1.2250	45.2620
 1.2260	45.2970
 1.2270	45.3330
 1.2280	45.3660
 1.2290	45.3960
 1.2300	45.4180
 1.2310	45.4340
 1.2320	45.4490
 1.2330	45.4620
 1.2340	45.4820
 1.2350	45.5180
 1.2360	45.5380
 1.2370	45.5530
 1.2380	45.5630
 1.2390	45.5820
 1.2400	45.5930
 1.2410	45.6110
 1.2420	45.6410
 1.2430	45.6500
 1.2440	45.6470
 1.2450	45.6600
 1.2460	45.6730
 1.2470	45.6810
 1.2480	45.7020
 1.2490	45.7250
 1.2500	45.7460
 1.2510	45.7660
 1.2520	45.7780
 1.2530	45.7700
 1.2540	45.7670
 1.2550	45.7620
 1.2560	45.7540
 1.2570	45.7730
 1.2580	45.7810
 1.2590	45.7860
 1.2600	45.8000
 1.2610	45.8050
 1.2620	45.7980
 1.2630	45.7950
 1.2640	45.7940
 1.2650	45.8000
 1.2660	45.8100
 1.2670	45.8100
 1.2680	45.8160
 1.2690	45.8200
 1.2700	45.8100
 1.2710	45.8000
 1.2720	45.7940
 1.2730	45.7900
 1.2740	45.7800
 1.2750	45.7870
 1.2760	45.7850
 1.2770	45.7600
 1.2780	45.7410
 1.2790	45.7200
 1.2800	45.6920
 1.2810	45.6740
 1.2820	45.6590
 1.2830	45.6340
 1.2840	45.6190
 1.2850	45.6010
 1.2860	45.5700
 1.2870	45.5400
 1.2880	45.5110
 1.2890	45.4650
 1.2900	45.4230
 1.2910	45.4010
 1.2920	45.3820
 1.2930	45.3660
 1.2940	45.3540
 1.2950	45.3260
 1.2960	45.2870
 1.2970	45.2450
 1.2980	45.2000
 1.2990	45.1670
 1.3000	45.1290
 1.3010	45.0950
 1.3020	45.0560
 1.3030	44.9930
 1.3040	44.9340
 1.3050	44.8760
 1.3060	44.8130
 1.3070	44.7570
 1.3080	44.6990
 1.3090	44.6320
 1.3100	44.5660
 1.3110	44.5020
 1.3120	44.4300
 1.3130	44.3460
 1.3140	44.2680
 1.3150	44.1930
 1.3160	44.1170
 1.3170	44.0410
 1.3180	43.9680
 1.3190	43.8880
 1.3200	43.7780
 1.3210	43.6610
 1.3220	43.5520
 1.3230	43.4330
 1.3240	43.3280
 1.3250	43.2310
 1.3260	43.1360
 1.3270	43.0460
 1.3280	42.9360
 1.3290	42.8270
 1.3300	42.7090
 1.3310	42.5750
 1.3320	42.4560
 1.3330	42.3410
 1.3340	42.2320
 1.3350	42.1220
 1.3360	41.9980
 1.3370	41.8650
 1.3380	41.7320
 1.3390	41.6060
 1.3400	41.4840
 1.3410	41.3700
 1.3420	41.2580
 1.3430	41.1360
 1.3440	41.0270
 1.3450	40.9170
 1.3460	40.8070
 1.3470	40.6950
 1.3480	40.5840
 1.3490	40.4740
 1.3500	40.3630
 1.3510	40.2540
 1.3520	40.1470
 1.3530	40.0360
 1.3540	39.9170
 1.3550	39.8070
 1.3560	39.6980
 1.3570	39.5940
 1.3580	39.4990
 1.3590	39.3920
 1.3600	39.2730
 1.3610	39.1410
 1.3620	39.0010
 1.3630	38.8620
 1.3640	38.7210
 1.3650	38.5830
 1.3660	38.4400
 1.3670	38.2840
 1.3680	38.1140
 1.3690	37.9280
 1.3700	37.7330
 1.3710	37.5250
 1.3720	37.3050
 1.3730	37.0730
 1.3740	36.8130
 1.3750	36.5310
 1.3760	36.2280
 1.3770	35.9040
 1.3780	35.5610
 1.3790	35.2000
 1.3800	34.8110
 1.3810	34.3990
 1.3820	33.9700
 1.3830	33.5230
 1.3840	33.0460
 1.3850	32.5470
 1.3860	32.0280
 1.3870	31.4720
 1.3880	30.9180
 1.3890	30.3490
 1.3900	29.7760
 1.3910	29.2020
 1.3920	28.6230
 1.3930	28.0430
 1.3940	27.4620
 1.3950	26.8770
 1.3960	26.3050
 1.3970	25.7460
 1.3980	25.1940
 1.3990	24.6600
 1.4000	24.1450
 1.4010	23.6410
 1.4020	23.1560
 1.4030	22.6910
 1.4040	22.2400
 1.4050	21.8080
 1.4060	21.4010
 1.4070	21.0170
 1.4080	20.6570
 1.4090	20.3180
 1.4100	19.9970
 1.4110	19.6930
 1.4120	19.4040
 1.4130	19.1390
 1.4140	18.8900
 1.4150	18.6620
 1.4160	18.4510
 1.4170	18.2490
 1.4180	18.0620
 1.4190	17.8870
 1.4200	17.7250
 1.4210	17.5770
 1.4220	17.4440
 1.4230	17.3250
 1.4240	17.2080
 1.4250	17.1010
 1.4260	17.0060
 1.4270	16.9120
 1.4280	16.8210
 1.4290	16.7430
 1.4300	16.6700
 1.4310	16.6050
 1.4320	16.5530
 1.4330	16.5000
 1.4340	16.4500
 1.4350	16.4050
 1.4360	16.3620
 1.4370	16.3260
 1.4380	16.2980
 1.4390	16.2710
 1.4400	16.2450
 1.4410	16.2270
 1.4420	16.2130
 1.4430	16.2010
 1.4440	16.1960
 1.4450	16.1920
 1.4460	16.1870
 1.4470	16.1860
 1.4480	16.1900
 1.4490	16.1940
 1.4500	16.1980
 1.4510	16.2000
 1.4520	16.2030
 1.4530	16.2110
 1.4540	16.2210
 1.4550	16.2390
 1.4560	16.2620
 1.4570	16.2870
 1.4580	16.3160
 1.4590	16.3460
 1.4600	16.3770
 1.4610	16.4080
 1.4620	16.4460
 1.4630	16.4910
 1.4640	16.5360
 1.4650	16.5910
 1.4660	16.6480
 1.4670	16.7070
 1.4680	16.7790
 1.4690	16.8500
 1.4700	16.9300
 1.4710	17.0190
 1.4720	17.1030
 1.4730	17.1930
 1.4740	17.2850
 1.4750	17.3740
 1.4760	17.4720
 1.4770	17.5780
 1.4780	17.6850
 1.4790	17.7970
 1.4800	17.9120
 1.4810	18.0290
 1.4820	18.1500
 1.4830	18.2680
 1.4840	18.3820
 1.4850	18.4950
 1.4860	18.6040
 1.4870	18.7180
 1.4880	18.8350
 1.4890	18.9520
 1.4900	19.0750
 1.4910	19.2030
 1.4920	19.3320
 1.4930	19.4660
 1.4940	19.5960
 1.4950	19.7280
 1.4960	19.8560
 1.4970	19.9790
 1.4980	20.1090
 1.4990	20.2400
 1.5000	20.3680
 1.5010	20.4970
 1.5020	20.6300
 1.5030	20.7650
 1.5040	20.8990
 1.5050	21.0400
 1.5060	21.1730
 1.5070	21.2960
 1.5080	21.4240
 1.5090	21.5510
 1.5100	21.6830
 1.5110	21.8130
 1.5120	21.9540
 1.5130	22.0840
 1.5140	22.2150
 1.5150	22.3540
 1.5160	22.4790
 1.5170	22.6080
 1.5180	22.7390
 1.5190	22.8620
 1.5200	22.9890
 1.5210	23.1200
 1.5220	23.2500
 1.5230	23.3780
 1.5240	23.5050
 1.5250	23.6310
 1.5260	23.7550
 1.5270	23.8750
 1.5280	23.9990
 1.5290	24.1200
 1.5300	24.2350
 1.5310	24.3520
 1.5320	24.4770
 1.5330	24.5980
 1.5340	24.7190
 1.5350	24.8430
 1.5360	24.9630
 1.5370	25.0780
 1.5380	25.1900
 1.5390	25.3000
 1.5400	25.4080
 1.5410	25.5200
 1.5420	25.6360
 1.5430	25.7510
 1.5440	25.8630
 1.5450	25.9710
 1.5460	26.0800
 1.5470	26.1920
 1.5480	26.3040
 1.5490	26.4110
 1.5500	26.5150
 1.5510	26.6200
 1.5520	26.7190
 1.5530	26.8170
 1.5540	26.9190
 1.5550	27.0110
 1.5560	27.1060
 1.5570	27.2050
 1.5580	27.2970
 1.5590	27.3970
 1.5600	27.4980
 1.5610	27.5960
 1.5620	27.6930
 1.5630	27.7820
 1.5640	27.8690
 1.5650	27.9500
 1.5660	28.0340
 1.5670	28.1170
 1.5680	28.2020
 1.5690	28.2930
 1.5700	28.3830
 1.5710	28.4720
 1.5720	28.5560
 1.5730	28.6370
 1.5740	28.7120
 1.5750	28.7940
 1.5760	28.8800
 1.5770	28.9590
 1.5780	29.0380
 1.5790	29.1200
 1.5800	29.2000
 1.5810	29.2820
 1.5820	29.3620
 1.5830	29.4330
 1.5840	29.5030
 1.5850	29.5800
 1.5860	29.6590
 1.5870	29.7410
 1.5880	29.8180
 1.5890	29.8850
 1.5900	29.9500
 1.5910	30.0100
 1.5920	30.0740
 1.5930	30.1480
 1.5940	30.2190
 1.5950	30.2980
 1.5960	30.3740
 1.5970	30.4380
 1.5980	30.5030
 1.5990	30.5540
 1.6000	30.6120
 1.6010	30.6820
 1.6020	30.7420
 1.6030	30.8130
 1.6040	30.8830
 1.6050	30.9460
 1.6060	31.0040
 1.6070	31.0580
 1.6080	31.1180
 1.6090	31.1750
 1.6100	31.2410
 1.6110	31.3010
 1.6120	31.3550
 1.6130	31.4100
 1.6140	31.4550
 1.6150	31.5110
 1.6160	31.5700
 1.6170	31.6180
 1.6180	31.6720
 1.6190	31.7190
 1.6200	31.7560
 1.6210	31.8020
 1.6220	31.8430
 1.6230	31.8880
 1.6240	31.9400
 1.6250	31.9810
 1.6260	32.0310
 1.6270	32.0840
 1.6280	32.1300
 1.6290	32.1720
 1.6300	32.1960
 1.6310	32.2300
 1.6320	32.2670
 1.6330	32.3020
 1.6340	32.3470
 1.6350	32.3850
 1.6360	32.4140
 1.6370	32.4460
 1.6380	32.4790
 1.6390	32.5070
 1.6400	32.5340
 1.6410	32.5570
 1.6420	32.5740
 1.6430	32.5980
 1.6440	32.6290
 1.6450	32.6520
 1.6460	32.6760
 1.6470	32.7030
 1.6480	32.7190
 1.6490	32.7420
 1.6500	32.7660
 1.6510	32.7760
 1.6520	32.7810
 1.6530	32.7800
 1.6540	32.7740
 1.6550	32.7660
 1.6560	32.7610
 1.6570	32.7560
 1.6580	32.7490
 1.6590	32.7470
 1.6600	32.7400
 1.6610	32.7370
 1.6620	32.7360
 1.6630	32.7280
 1.6640	32.7330
 1.6650	32.7340
 1.6660	32.7310
 1.6670	32.7270
 1.6680	32.7090
 1.6690	32.6970
 1.6700	32.6810
 1.6710	32.6590
 1.6720	32.6500
 1.6730	32.6350
 1.6740	32.6110
 1.6750	32.5900
 1.6760	32.5570
 1.6770	32.5150
 1.6780	32.4810
 1.6790	32.4540
 1.6800	32.4220
 1.6810	32.3870
 1.6820	32.3400
 1.6830	32.2860
 1.6840	32.2310
 1.6850	32.1700
 1.6860	32.1160
 1.6870	32.0650
 1.6880	32.0080
 1.6890	31.9630
 1.6900	31.9140
 1.6910	31.8670
 1.6920	31.8160
 1.6930	31.7620
 1.6940	31.7110
 1.6950	31.6560
 1.6960	31.5980
 1.6970	31.5440
 1.6980	31.4840
 1.6990	31.4210
 1.7000	31.3610
 1.7010	31.2990
 1.7020	31.2400
 1.7030	31.1780
 1.7040	31.1190
 1.7050	31.0660
 1.7060	31.0060
 1.7070	30.9480
 1.7080	30.8880
 1.7090	30.8200
 1.7100	30.7610
 1.7110	30.7030
 1.7120	30.6540
 1.7130	30.6070
 1.7140	30.5490
 1.7150	30.4920
 1.7160	30.4400
 1.7170	30.3890
 1.7180	30.3500
 1.7190	30.3150
 1.7200	30.2730
 1.7210	30.2310
 1.7220	30.1930
 1.7230	30.1570
 1.7240	30.1140
 1.7250	30.0700
 1.7260	30.0260
 1.7270	29.9870
 1.7280	29.9600
 1.7290	29.9360
 1.7300	29.9120
 1.7310	29.8870
 1.7320	29.8610
 1.7330	29.8350
 1.7340	29.8080
 1.7350	29.7820
 1.7360	29.7610
 1.7370	29.7330
 1.7380	29.7070
 1.7390	29.6730
 1.7400	29.6280
 1.7410	29.5870
 1.7420	29.5520
 1.7430	29.4990
 1.7440	29.4370
 1.7450	29.3810
 1.7460	29.3100
 1.7470	29.2530
 1.7480	29.2120
 1.7490	29.1540
 1.7500	29.0900
 1.7510	29.0330
 1.7520	28.9720
 1.7530	28.9140
 1.7540	28.8630
 1.7550	28.8030
 1.7560	28.7270
 1.7570	28.6620
 1.7580	28.5990
 1.7590	28.5440
 1.7600	28.5070
 1.7610	28.4500
 1.7620	28.3990
 1.7630	28.3340
 1.7640	28.2840
 1.7650	28.2490
 1.7660	28.2110
 1.7670	28.1760
 1.7680	28.1430
 1.7690	28.1130
 1.7700	28.0790
 1.7710	28.0440
 1.7720	28.0120
 1.7730	27.9760
 1.7740	27.9480
 1.7750	27.9270
 1.7760	27.9060
 1.7770	27.8880
 1.7780	27.8690
 1.7790	27.8550
 1.7800	27.8330
 1.7810	27.8070
 1.7820	27.7860
 1.7830	27.7600
 1.7840	27.7470
 1.7850	27.7420
 1.7860	27.7400
 1.7870	27.7450
 1.7880	27.7350
 1.7890	27.7370
 1.7900	27.7470
 1.7910	27.7510
 1.7920	27.7640
 1.7930	27.7740
 1.7940	27.7720
 1.7950	27.7770
 1.7960	27.7890
 1.7970	27.8030
 1.7980	27.8240
 1.7990	27.8340
 1.8000	27.8410
 1.8010	27.8460
 1.8020	27.8400
 1.8030	27.8450
 1.8040	27.8550
 1.8050	27.8700
 1.8060	27.8990
 1.8070	27.9150
 1.8080	27.9330
 1.8090	27.9460
 1.8100	27.9440
 1.8110	27.9510
 1.8120	27.9820
 1.8130	27.9990
 1.8140	28.0110
 1.8150	28.0250
 1.8160	28.0150
 1.8170	28.0250
 1.8180	28.0490
 1.8190	28.0560
 1.8200	28.0600
 1.8210	28.0400
 1.8220	28.0350
 1.8230	28.0450
 1.8240	28.0440
 1.8250	28.0460
 1.8260	28.0430
 1.8270	28.0300
 1.8280	28.0180
 1.8290	28.0060
 1.8300	27.9900
 1.8310	28.0520
 1.8320	27.9900
 1.8330	27.9560
 1.8340	27.9290
 1.8350	27.8850
 1.8360	27.8710
 1.8370	27.8290
 1.8380	27.7720
 1.8390	27.7370
 1.8400	27.7280
 1.8410	27.6760
 1.8420	27.6160
 1.8430	27.5610
 1.8440	27.4560
 1.8450	27.3500
 1.8460	27.2250
 1.8470	27.1030
 1.8480	26.9930
 1.8490	26.8600
 1.8500	26.7210
 1.8510	26.5850
 1.8520	26.4300
 1.8530	26.2240
 1.8540	26.0320
 1.8550	25.8270
 1.8560	25.5720
 1.8570	25.3420
 1.8580	25.0930
 1.8590	24.8210
 1.8600	24.5270
 1.8610	24.2460
 1.8620	23.9150
 1.8630	23.5710
 1.8640	23.2340
 1.8650	22.8550
 1.8660	22.4530
 1.8670	22.0270
 1.8680	21.6040
 1.8690	21.1720
 1.8700	20.7190
 1.8710	20.2620
 1.8720	19.8050
 1.8730	19.3000
 1.8740	18.7620
 1.8750	18.2280
 1.8760	17.6850
 1.8770	17.1480
 1.8780	16.6240
 1.8790	16.0920
 1.8800	15.5620
 1.8810	15.0300
 1.8820	14.4930
 1.8830	13.9720
 1.8840	13.4800
 1.8850	13.0040
 1.8860	12.5600
 1.8870	12.1160
 1.8880	11.6660
 1.8890	11.2500
 1.8900	10.8340
 1.8910	10.4480
 1.8920	10.0810
 1.8930	 9.7540
 1.8940	 9.4230
 1.8950	 9.1280
 1.8960	 8.8480
 1.8970	 8.5910
 1.8980	 8.3800
 1.8990	 8.1920
 1.9000	 8.0250
 1.9010	 7.9060
 1.9020	 7.7620
 1.9030	 7.6220
 1.9040	 7.4900
 1.9050	 7.3640
 1.9060	 7.2610
 1.9070	 7.2010
 1.9080	 7.1510
 1.9090	 7.1040
 1.9100	 7.0650
 1.9110	 7.0210
 1.9120	 6.9620
 1.9130	 6.9290
 1.9140	 6.9120
 1.9150	 6.8860
 1.9160	 6.8660
 1.9170	 6.8550
 1.9180	 6.8220
 1.9190	 6.7840
 1.9200	 6.7680
 1.9210	 6.7530
 1.9220	 6.7410
 1.9230	 6.7450
 1.9240	 6.7450
 1.9250	 6.7480
 1.9260	 6.7390
 1.9270	 6.7390
 1.9280	 6.7310
 1.9290	 6.7140
 1.9300	 6.7070
 1.9310	 6.6860
 1.9320	 6.6800
 1.9330	 6.6840
 1.9340	 6.6950
 1.9350	 6.7100
 1.9360	 6.7340
 1.9370	 6.7550
 1.9380	 6.7800
 1.9390	 6.8050
 1.9400	 6.8220
 1.9410	 6.8490
 1.9420	 6.8560
 1.9430	 6.8580
 1.9440	 6.8660
 1.9450	 6.8610
 1.9460	 6.8780
 1.9470	 6.9160
 1.9480	 6.9350
 1.9490	 6.9540
 1.9500	 6.9890
 1.9510	 6.9860
 1.9520	 6.9990
 1.9530	 7.0150
 1.9540	 7.0120
 1.9550	 7.0280
 1.9560	 7.0450
 1.9570	 7.0720
 1.9580	 7.1200
 1.9590	 7.1610
 1.9600	 7.2120
 1.9610	 7.2470
 1.9620	 7.2770
 1.9630	 7.2920
 1.9640	 7.3090
 1.9650	 7.3390
 1.9660	 7.3800
 1.9670	 7.4180
 1.9680	 7.4580
 1.9690	 7.5080
 1.9700	 7.5470
 1.9710	 7.5750
 1.9720	 7.6110
 1.9730	 7.6440
 1.9740	 7.6740
 1.9750	 7.7190
 1.9760	 7.7820
 1.9770	 7.8330
 1.9780	 7.8760
 1.9790	 7.9180
 1.9800	 7.9460
 1.9810	 7.9870
 1.9820	 8.0300
 1.9830	 8.0780
 1.9840	 8.1220
 1.9850	 8.1820
 1.9860	 8.2620
 1.9870	 8.3340
 1.9880	 8.4020
 1.9890	 8.4680
 1.9900	 8.5090
 1.9910	 8.5570
 1.9920	 8.6050
 1.9930	 8.6580
 1.9940	 8.7030
 1.9950	 8.7350
 1.9960	 8.7790
 1.9970	 8.8290
 1.9980	 8.8750
 1.9990	 8.9180
 2.0000	 8.9700
 2.0010	 9.0340
 2.0020	 9.1060
 2.0030	 9.1870
 2.0040	 9.2630
 2.0050	 9.3260
 2.0060	 9.3580
 2.0070	 9.4220
 2.0080	 9.4930
 2.0090	 9.5580
 2.0100	 9.6460
 2.0110	 9.7130
 2.0120	 9.7480
 2.0130	 9.8190
 2.0140	 9.8830
 2.0150	 9.9220
 2.0160	 9.9920
 2.0170	10.0480
 2.0180	10.1030
 2.0190	10.1640
 2.0200	10.2170
 2.0210	10.2550
 2.0220	10.3070
 2.0230	10.3660
 2.0240	10.4230
 2.0250	10.4890
 2.0260	10.5470
 2.0270	10.5970
 2.0280	10.6510
 2.0290	10.7080
 2.0300	10.7460
 2.0310	10.8010
 2.0320	10.8610
 2.0330	10.9200
 2.0340	10.9910
 2.0350	11.0500
 2.0360	11.1070
 2.0370	11.1560
 2.0380	11.1840
 2.0390	11.2290
 2.0400	11.2850
 2.0410	11.3320
 2.0420	11.3730
 2.0430	11.4350
 2.0440	11.4850
 2.0450	11.5280
 2.0460	11.5700
 2.0470	11.6060
 2.0480	11.6580
 2.0490	11.7090
 2.0500	11.7640
 2.0510	11.8400
 2.0520	11.9040
 2.0530	11.9720
 2.0540	12.0240
 2.0550	12.0600
 2.0560	12.1040
 2.0570	12.1480
 2.0580	12.1620
 2.0590	12.2020
 2.0600	12.2550
 2.0610	12.3070
 2.0620	12.3630
 2.0630	12.4230
 2.0640	12.4950
 2.0650	12.5550
 2.0660	12.6050
 2.0670	12.6650
 2.0680	12.7280
 2.0690	12.7900
 2.0700	12.8650
 2.0710	12.9290
 2.0720	12.9910
 2.0730	13.0330
 2.0740	13.0900
 2.0750	13.1520
 2.0760	13.2020
 2.0770	13.2450
 2.0780	13.3030
 2.0790	13.3530
 2.0800	13.4170
 2.0810	13.5140
 2.0820	13.5860
 2.0830	13.6510
 2.0840	13.7130
 2.0850	13.7660
 2.0860	13.8150
 2.0870	13.8520
 2.0880	13.8950
 2.0890	13.9460
 2.0900	13.9920
 2.0910	14.0520
 2.0920	14.1390
 2.0930	14.1920
 2.0940	14.2360
 2.0950	14.2770
 2.0960	14.2910
 2.0970	14.3280
 2.0980	14.3790
 2.0990	14.4190
 2.1000	14.4540
 2.1010	14.4960
 2.1020	14.5250
 2.1030	14.5740
 2.1040	14.6460
 2.1050	14.7130
 2.1060	14.7790
 2.1070	14.8560
 2.1080	14.9130
 2.1090	14.9580
 2.1100	15.0090
 2.1110	15.0450
 2.1120	15.1030
 2.1130	15.1810
 2.1140	15.2400
 2.1150	15.3060
 2.1160	15.3620
 2.1170	15.4080
 2.1180	15.4490
 2.1190	15.4830
 2.1200	15.5200
 2.1210	15.5550
 2.1220	15.5790
 2.1230	15.6140
 2.1240	15.6610
 2.1250	15.6920
 2.1260	15.7070
 2.1270	15.7440
 2.1280	15.7830
 2.1290	15.8240
 2.1300	15.8900
 2.1310	15.9330
 2.1320	15.9500
 2.1330	15.9900
 2.1340	16.0450
 2.1350	16.0820
 2.1360	16.1250
 2.1370	16.1610
 2.1380	16.1720
 2.1390	16.1950
 2.1400	16.2200
 2.1410	16.2620
 2.1420	16.2950
 2.1430	16.3300
 2.1440	16.3550
 2.1450	16.3770
 2.1460	16.3890
 2.1470	16.3820
 2.1480	16.3930
 2.1490	16.4070
 2.1500	16.4170
 2.1510	16.4240
 2.1520	16.4470
 2.1530	16.4700
 2.1540	16.5030
 2.1550	16.5760
 2.1560	16.6190
 2.1570	16.6580
 2.1580	16.6820
 2.1590	16.6920
 2.1600	16.6760
 2.1610	16.6850
 2.1620	16.7000
 2.1630	16.7230
 2.1640	16.7680
 2.1650	16.7910
 2.1660	16.8200
 2.1670	16.8210
 2.1680	16.7950
 2.1690	16.7910
 2.1700	16.7570
 2.1710	16.7710
 2.1720	16.8380
 2.1730	16.8660
 2.1740	16.9030
 2.1750	16.9230
 2.1760	16.9010
 2.1770	16.9100
 2.1780	16.9300
 2.1790	16.9560
 2.1800	17.0130
 2.1810	17.0490
 2.1820	17.0510
 2.1830	17.1030
 2.1840	17.1360
 2.1850	17.1560
 2.1860	17.1940
 2.1870	17.2590
 2.1880	17.2810
 2.1890	17.2910
 2.1900	17.2890
 2.1910	17.2400
 2.1920	17.2410
 2.1930	17.2470
 2.1940	17.2810
 2.1950	17.3710
 2.1960	17.4160
 2.1970	17.4700
 2.1980	17.4930
 2.1990	17.4600
 2.2000	17.4640
 2.2010	17.4730
 2.2020	17.4810
 2.2030	17.5050
 2.2040	17.5310
 2.2050	17.5530
 2.2060	17.5870
 2.2070	17.6020
 2.2080	17.6220
 2.2090	17.6200
 2.2100	17.5790
 2.2110	17.5860
 2.2120	17.6140
 2.2130	17.6230
 2.2140	17.6530
 2.2150	17.6520
 2.2160	17.6120
 2.2170	17.6020
 2.2180	17.6020
 2.2190	17.5950
 2.2200	17.5980
 2.2210	17.5880
 2.2220	17.5690
 2.2230	17.5460
 2.2240	17.5170
 2.2250	17.4890
 2.2260	17.4590
 2.2270	17.4260
 2.2280	17.4020
 2.2290	17.3580
 2.2300	17.3100
 2.2310	17.2250
 2.2320	17.1510
 2.2330	17.0950
 2.2340	17.0400
 2.2350	17.0010
 2.2360	16.9510
 2.2370	16.8950
 2.2380	16.8380
 2.2390	16.7790
 2.2400	16.7210
 2.2410	16.6530
 2.2420	16.6080
 2.2430	16.5770
 2.2440	16.5400
 2.2450	16.5290
 2.2460	16.4820
 2.2470	16.4130
 2.2480	16.3470
 2.2490	16.2560
 2.2500	16.1870
 2.2510	16.1120
 2.2520	16.0700
 2.2530	16.0690
 2.2540	16.0330
 2.2550	15.9860
 2.2560	15.9640
 2.2570	15.9340
 2.2580	15.9100
 2.2590	15.9580
 2.2600	15.9270
 2.2610	15.8410
 2.2620	15.7390
 2.2630	15.6280
 2.2640	15.5230
 2.2650	15.4660
 2.2660	15.4460
 2.2670	15.3970
 2.2680	15.3600
 2.2690	15.2940
 2.2700	15.2020
 2.2710	15.1320
 2.2720	15.0480
 2.2730	14.9980
 2.2740	14.9810
 2.2750	14.9360
 2.2760	14.9060
 2.2770	14.8540
 2.2780	14.7620
 2.2790	14.7130
 2.2800	14.6740
 2.2810	14.6410
 2.2820	14.6500
 2.2830	14.6190
 2.2840	14.5550
 2.2850	14.5120
 2.2860	14.4530
 2.2870	14.4190
 2.2880	14.4430
 2.2890	14.4160
 2.2900	14.3720
 2.2910	14.3110
 2.2920	14.1980
 2.2930	14.1110
 2.2940	14.0130
 2.2950	13.9420
 2.2960	13.9010
 2.2970	13.8450
 2.2980	13.7830
 2.2990	13.7580
 2.3000	13.7190
 2.3010	13.6580
 2.3020	13.5900
 2.3030	13.5350
 2.3040	13.4750
 2.3050	13.4570
 2.3060	13.4850
 2.3070	13.4730
 2.3080	13.4300
 2.3090	13.3810
 2.3100	13.2890
 2.3110	13.2420
 2.3120	13.1970
 2.3130	13.1560
 2.3140	13.1390
 2.3150	13.1560
 2.3160	13.1420
 2.3170	13.1240
 2.3180	13.1260
 2.3190	13.1220
 2.3200	13.1100
 2.3210	13.1330
 2.3220	13.1200
 2.3230	13.0570
 2.3240	13.0330
 2.3250	13.0360
 2.3260	13.0000
 2.3270	12.9680
 2.3280	12.9000
 2.3290	12.7770
 2.3300	12.6890
 2.3310	12.5800
 2.3320	12.5240
 2.3330	12.5130
 2.3340	12.4880
 2.3350	12.4890
 2.3360	12.4870
 2.3370	12.4900
 2.3380	12.4710
 2.3390	12.4600
 2.3400	12.4300
 2.3410	12.3880
 2.3420	12.3220
 2.3430	12.2080
 2.3440	12.1360
 2.3450	12.0320
 2.3460	11.9760
 2.3470	11.9720
 2.3480	11.9820
 2.3490	12.0340
 2.3500	12.0660
 2.3510	12.1640
 2.3520	12.1610
 2.3530	12.0700
 2.3540	11.9990
 2.3550	11.9040
 2.3560	11.8840
 2.3570	11.9140
 2.3580	11.9350
 2.3590	11.9630
 2.3600	11.8750
 2.3610	11.8360
 2.3620	11.8500
 2.3630	11.7880
 2.3640	11.7820
 2.3650	11.7480
 2.3660	11.6670
 2.3670	11.6310
 2.3680	11.6060
 2.3690	11.5710
 2.3700	11.4910
 2.3710	11.4570
 2.3720	11.4120
 2.3730	11.3660
 2.3740	11.3750
 2.3750	11.3480
 2.3760	11.2970
 2.3770	11.2150
 2.3780	11.2120
 2.3790	11.2290
 2.3800	11.1990
 2.3810	11.2450
 2.3820	11.2230
 2.3830	11.1370
 2.3840	11.1120
 2.3850	11.0610
 2.3860	11.0090
 2.3870	10.9770
 2.3880	10.8910
 2.3890	10.7950
 2.3900	10.7440
 2.3910	10.6390
 2.3920	10.5210
 2.3930	10.4750
 2.3940	10.3900
 2.3950	10.3960
 2.3960	10.5000
 2.3970	10.5250
 2.3980	10.6210
 2.3990	10.7090
 2.4000	10.7230
 2.4010	10.7040
 2.4020	10.5790
 2.4030	10.5210
 2.4040	10.4500
 2.4050	10.3480
 2.4060	10.2750
 2.4070	10.1270
 2.4080	10.0050
 2.4090	 9.9700
 2.4100	 9.9540
 2.4110	 9.9190
 2.4120	 9.9060
 2.4130	 9.7910
 2.4140	 9.6430
 2.4150	 9.6470
 2.4160	 9.5570
 2.4170	 9.5410
 2.4180	 9.7050
 2.4190	 9.7420
 2.4200	 9.7360
 2.4210	 9.6880
 2.4220	 9.5620
 2.4230	 9.4580
 2.4240	 9.4140
 2.4250	 9.3970
 2.4260	 9.4760
 2.4270	 9.5610
 2.4280	 9.4960
 2.4290	 9.5780
 2.4300	 9.6280
 2.4310	 9.4870
 2.4320	 9.5390
 2.4330	 9.3980
 2.4340	 9.1240
 2.4350	 9.1580
 2.4360	 9.0370
 2.4370	 9.0160
 2.4380	 9.1890
 2.4390	 9.0430
 2.4400	 8.9790
 2.4410	 8.9220
 2.4420	 8.7030
 2.4430	 8.6320
 2.4440	 8.5480
 2.4450	 8.4590
 2.4460	 8.4440
 2.4470	 8.4770
 2.4480	 8.4890
 2.4490	 8.4850
 2.4500	 8.5190
 2.4510	 8.4600
 2.4520	 8.4280
 2.4530	 8.4600
 2.4540	 8.4020
 2.4550	 8.3880
 2.4560	 8.4080
 2.4570	 8.3770
 2.4580	 8.3850
 2.4590	 8.4060
 2.4600	 8.4600
 2.4610	 8.5460
 2.4620	 8.5010
 2.4630	 8.3700
 2.4640	 8.1950
 2.4650	 8.0500
 2.4660	 8.0010
 2.4670	 7.9060
 2.4680	 7.9550
 2.4690	 7.7600
 2.4700	 7.7060
 2.4710	 7.8110
 2.4720	 7.7970
 2.4730	 7.8180
 2.4740	 7.9270
 2.4750	 7.9720
 2.4760	 8.1280
 2.4770	 8.5090
 2.4780	 8.5510
 2.4790	 8.4420
 2.4800	 8.3740
 2.4810	 8.1910
 2.4820	 8.0900
 2.4830	 8.1050
 2.4840	 8.2670
 2.4850	 7.9810
 2.4860	 7.7260
 2.4870	 7.7520
 2.4880	 7.8330
 2.4890	 7.9800
 2.4900	 8.1480
 2.4910	 8.3230
 2.4920	 8.3550
 2.4930	 8.3660
 2.4940	 8.7200
 2.4950	 8.7780
 2.4960	 8.4060
 2.4970	 8.1900
 2.4980	 7.5740
 2.4990	 7.2590
 2.5000	 7.4340
