Name: Abies concolor 2
Type: vegetation
Class: Tree
Genus: Abies
Species: concolor
Sample No.: VH257
Owner: UCSB
Wavelength Range: VSWIR
Origin: 37.0437; -119.3025; WGS84
Collection Date: 11/2/2013
Description: Samples were collected as part of the HyspIRI Airborne Campaign. 48 individual plants were sampled in three times in 2013 - spring  summer  and fall. The name of the sample includes a 1  2  or 3 which references a different individual of the species. Samples were taken to JPL and processed within 48 hours of collection. The same leaves were processed in the Nicolet and then measured using the ASD.
Measurement: Bidirectional reflectance
First Column: X
Second Column: Y
X Units: Wavelength (micrometers)
Y Units: Reflectance (percentage)
First X Value: 0.35
Last X Value: 2.5
Number of X Values: 2151
Additional Information: vegetation.tree.abies.concolor.vswir.vh257.ucsb.asd.ancillary.txt

 0.3500	 9.0170
 0.3510	 8.8560
 0.3520	 8.6510
 0.3530	 8.6050
 0.3540	 8.7360
 0.3550	 8.6880
 0.3560	 8.5660
 0.3570	 8.4770
 0.3580	 8.5070
 0.3590	 8.5690
 0.3600	 8.5800
 0.3610	 8.5210
 0.3620	 8.4470
 0.3630	 8.4060
 0.3640	 8.3900
 0.3650	 8.3850
 0.3660	 8.4110
 0.3670	 8.4270
 0.3680	 8.4020
 0.3690	 8.3240
 0.3700	 8.3780
 0.3710	 8.3900
 0.3720	 8.3050
 0.3730	 8.3790
 0.3740	 8.3610
 0.3750	 8.3170
 0.3760	 8.3640
 0.3770	 8.3490
 0.3780	 8.3310
 0.3790	 8.3160
 0.3800	 8.2620
 0.3810	 8.2500
 0.3820	 8.2390
 0.3830	 8.2250
 0.3840	 8.3530
 0.3850	 8.3360
 0.3860	 8.2410
 0.3870	 8.2410
 0.3880	 8.3080
 0.3890	 8.3130
 0.3900	 8.2530
 0.3910	 8.2560
 0.3920	 8.2660
 0.3930	 8.2480
 0.3940	 8.2070
 0.3950	 8.2550
 0.3960	 8.2840
 0.3970	 8.2790
 0.3980	 8.2740
 0.3990	 8.2880
 0.4000	 8.3010
 0.4010	 8.3040
 0.4020	 8.3060
 0.4030	 8.3140
 0.4040	 8.3510
 0.4050	 8.4190
 0.4060	 8.4390
 0.4070	 8.4660
 0.4080	 8.5120
 0.4090	 8.5620
 0.4100	 8.6110
 0.4110	 8.6730
 0.4120	 8.7470
 0.4130	 8.7890
 0.4140	 8.8370
 0.4150	 8.8910
 0.4160	 8.9430
 0.4170	 9.0250
 0.4180	 9.1070
 0.4190	 9.1840
 0.4200	 9.2710
 0.4210	 9.3480
 0.4220	 9.4250
 0.4230	 9.5090
 0.4240	 9.5720
 0.4250	 9.6520
 0.4260	 9.7320
 0.4270	 9.7830
 0.4280	 9.8710
 0.4290	 9.9560
 0.4300	10.0160
 0.4310	10.0760
 0.4320	10.1430
 0.4330	10.1980
 0.4340	10.2290
 0.4350	10.2690
 0.4360	10.3270
 0.4370	10.3980
 0.4380	10.4680
 0.4390	10.5290
 0.4400	10.5950
 0.4410	10.6720
 0.4420	10.7230
 0.4430	10.7690
 0.4440	10.8180
 0.4450	10.8660
 0.4460	10.9060
 0.4470	10.9520
 0.4480	11.0060
 0.4490	11.0570
 0.4500	11.1060
 0.4510	11.1430
 0.4520	11.1670
 0.4530	11.2190
 0.4540	11.2570
 0.4550	11.2750
 0.4560	11.2900
 0.4570	11.3240
 0.4580	11.3550
 0.4590	11.3720
 0.4600	11.3850
 0.4610	11.3970
 0.4620	11.4050
 0.4630	11.4090
 0.4640	11.4300
 0.4650	11.4520
 0.4660	11.4630
 0.4670	11.4630
 0.4680	11.4590
 0.4690	11.4570
 0.4700	11.4610
 0.4710	11.4650
 0.4720	11.4650
 0.4730	11.4630
 0.4740	11.4670
 0.4750	11.4720
 0.4760	11.4790
 0.4770	11.4880
 0.4780	11.4970
 0.4790	11.5080
 0.4800	11.5180
 0.4810	11.5240
 0.4820	11.5320
 0.4830	11.5400
 0.4840	11.5460
 0.4850	11.5540
 0.4860	11.5600
 0.4870	11.5750
 0.4880	11.6010
 0.4890	11.6260
 0.4900	11.6600
 0.4910	11.6990
 0.4920	11.7350
 0.4930	11.7860
 0.4940	11.8400
 0.4950	11.8930
 0.4960	11.9600
 0.4970	12.0270
 0.4980	12.0980
 0.4990	12.1820
 0.5000	12.2700
 0.5010	12.3690
 0.5020	12.4790
 0.5030	12.5950
 0.5040	12.7240
 0.5050	12.8660
 0.5060	13.0220
 0.5070	13.1840
 0.5080	13.3550
 0.5090	13.5410
 0.5100	13.7500
 0.5110	13.9700
 0.5120	14.2040
 0.5130	14.4530
 0.5140	14.7170
 0.5150	14.9930
 0.5160	15.2800
 0.5170	15.5770
 0.5180	15.8850
 0.5190	16.2020
 0.5200	16.5240
 0.5210	16.8440
 0.5220	17.1570
 0.5230	17.4580
 0.5240	17.7500
 0.5250	18.0370
 0.5260	18.3110
 0.5270	18.5650
 0.5280	18.7950
 0.5290	19.0080
 0.5300	19.2040
 0.5310	19.3800
 0.5320	19.5390
 0.5330	19.6790
 0.5340	19.8020
 0.5350	19.9100
 0.5360	20.0030
 0.5370	20.0830
 0.5380	20.1490
 0.5390	20.2030
 0.5400	20.2460
 0.5410	20.2720
 0.5420	20.2880
 0.5430	20.3190
 0.5440	20.3550
 0.5450	20.3940
 0.5460	20.4350
 0.5470	20.5020
 0.5480	20.5730
 0.5490	20.6290
 0.5500	20.6590
 0.5510	20.6800
 0.5520	20.6920
 0.5530	20.6910
 0.5540	20.6750
 0.5550	20.6460
 0.5560	20.5980
 0.5570	20.5270
 0.5580	20.4430
 0.5590	20.3460
 0.5600	20.2360
 0.5610	20.1140
 0.5620	19.9800
 0.5630	19.8310
 0.5640	19.6690
 0.5650	19.4970
 0.5660	19.3170
 0.5670	19.1320
 0.5680	18.9460
 0.5690	18.7490
 0.5700	18.5490
 0.5710	18.3570
 0.5720	18.1750
 0.5730	18.0030
 0.5740	17.8340
 0.5750	17.6620
 0.5760	17.4990
 0.5770	17.3490
 0.5780	17.2110
 0.5790	17.0780
 0.5800	16.9630
 0.5810	16.8620
 0.5820	16.7640
 0.5830	16.6740
 0.5840	16.5850
 0.5850	16.4960
 0.5860	16.4120
 0.5870	16.3330
 0.5880	16.2620
 0.5890	16.2000
 0.5900	16.1360
 0.5910	16.0760
 0.5920	16.0230
 0.5930	15.9790
 0.5940	15.9450
 0.5950	15.9140
 0.5960	15.8790
 0.5970	15.8380
 0.5980	15.7980
 0.5990	15.7590
 0.6000	15.7160
 0.6010	15.6720
 0.6020	15.6230
 0.6030	15.5670
 0.6040	15.5000
 0.6050	15.4240
 0.6060	15.3430
 0.6070	15.2580
 0.6080	15.1650
 0.6090	15.0600
 0.6100	14.9400
 0.6110	14.8110
 0.6120	14.7180
 0.6130	14.6410
 0.6140	14.5660
 0.6150	14.4850
 0.6160	14.4020
 0.6170	14.3220
 0.6180	14.2500
 0.6190	14.1840
 0.6200	14.1220
 0.6210	14.0680
 0.6220	14.0260
 0.6230	13.9880
 0.6240	13.9550
 0.6250	13.9280
 0.6260	13.9090
 0.6270	13.8940
 0.6280	13.8830
 0.6290	13.8720
 0.6300	13.8630
 0.6310	13.8520
 0.6320	13.8390
 0.6330	13.8260
 0.6340	13.8060
 0.6350	13.7740
 0.6360	13.7280
 0.6370	13.6640
 0.6380	13.5950
 0.6390	13.5200
 0.6400	13.4320
 0.6410	13.3360
 0.6420	13.2330
 0.6430	13.1280
 0.6440	13.0250
 0.6450	12.9210
 0.6460	12.8140
 0.6470	12.7080
 0.6480	12.6160
 0.6490	12.5310
 0.6500	12.4530
 0.6510	12.3830
 0.6520	12.3230
 0.6530	12.2660
 0.6540	12.2100
 0.6550	12.1530
 0.6560	12.0890
 0.6570	12.0170
 0.6580	11.9380
 0.6590	11.8550
 0.6600	11.7720
 0.6610	11.6870
 0.6620	11.5970
 0.6630	11.5150
 0.6640	11.4400
 0.6650	11.3700
 0.6660	11.3130
 0.6670	11.2650
 0.6680	11.2250
 0.6690	11.1920
 0.6700	11.1710
 0.6710	11.1600
 0.6720	11.1580
 0.6730	11.1630
 0.6740	11.1750
 0.6750	11.1940
 0.6760	11.2200
 0.6770	11.2480
 0.6780	11.2860
 0.6790	11.3340
 0.6800	11.3920
 0.6810	11.4630
 0.6820	11.5460
 0.6830	11.6410
 0.6840	11.7570
 0.6850	11.8970
 0.6860	12.0660
 0.6870	12.2690
 0.6880	12.5170
 0.6890	12.8130
 0.6900	13.1670
 0.6910	13.5910
 0.6920	14.0870
 0.6930	14.6560
 0.6940	15.3020
 0.6950	16.0330
 0.6960	16.8380
 0.6970	17.7150
 0.6980	18.6590
 0.6990	19.6600
 0.7000	20.7110
 0.7010	21.8030
 0.7020	22.9300
 0.7030	24.0750
 0.7040	25.2390
 0.7050	26.4170
 0.7060	27.5820
 0.7070	28.7600
 0.7080	29.9420
 0.7090	31.1140
 0.7100	32.2940
 0.7110	33.4680
 0.7120	34.6330
 0.7130	35.8020
 0.7140	36.9620
 0.7150	38.1100
 0.7160	39.2430
 0.7170	40.3580
 0.7180	41.4630
 0.7190	42.5540
 0.7200	43.6220
 0.7210	44.6730
 0.7220	45.6970
 0.7230	46.6910
 0.7240	47.6610
 0.7250	48.5960
 0.7260	49.4970
 0.7270	50.3660
 0.7280	51.1900
 0.7290	51.9790
 0.7300	52.7360
 0.7310	53.4570
 0.7320	54.1440
 0.7330	54.7860
 0.7340	55.3860
 0.7350	55.9660
 0.7360	56.5070
 0.7370	57.0120
 0.7380	57.4890
 0.7390	57.9370
 0.7400	58.3500
 0.7410	58.7330
 0.7420	59.0950
 0.7430	59.4320
 0.7440	59.7380
 0.7450	60.0170
 0.7460	60.2840
 0.7470	60.5240
 0.7480	60.7360
 0.7490	60.9230
 0.7500	61.0910
 0.7510	61.2540
 0.7520	61.3990
 0.7530	61.5170
 0.7540	61.6430
 0.7550	61.7520
 0.7560	61.8370
 0.7570	61.9140
 0.7580	61.9810
 0.7590	62.0460
 0.7600	62.1080
 0.7610	62.1560
 0.7620	62.1980
 0.7630	62.2390
 0.7640	62.2770
 0.7650	62.3000
 0.7660	62.3210
 0.7670	62.3410
 0.7680	62.3600
 0.7690	62.3750
 0.7700	62.3860
 0.7710	62.3930
 0.7720	62.3990
 0.7730	62.4010
 0.7740	62.4110
 0.7750	62.4300
 0.7760	62.4260
 0.7770	62.4240
 0.7780	62.4310
 0.7790	62.4390
 0.7800	62.4490
 0.7810	62.4530
 0.7820	62.4510
 0.7830	62.4530
 0.7840	62.4610
 0.7850	62.4730
 0.7860	62.4840
 0.7870	62.4930
 0.7880	62.4940
 0.7890	62.4930
 0.7900	62.4970
 0.7910	62.5020
 0.7920	62.5090
 0.7930	62.5160
 0.7940	62.5230
 0.7950	62.5390
 0.7960	62.5450
 0.7970	62.5430
 0.7980	62.5660
 0.7990	62.5670
 0.8000	62.5620
 0.8010	62.5690
 0.8020	62.5810
 0.8030	62.5910
 0.8040	62.5950
 0.8050	62.5950
 0.8060	62.6060
 0.8070	62.6110
 0.8080	62.6110
 0.8090	62.6200
 0.8100	62.6310
 0.8110	62.6390
 0.8120	62.6430
 0.8130	62.6440
 0.8140	62.6410
 0.8150	62.6450
 0.8160	62.6640
 0.8170	62.6740
 0.8180	62.6790
 0.8190	62.6820
 0.8200	62.6890
 0.8210	62.7010
 0.8220	62.7040
 0.8230	62.7040
 0.8240	62.7240
 0.8250	62.7330
 0.8260	62.7240
 0.8270	62.7100
 0.8280	62.7240
 0.8290	62.7390
 0.8300	62.7400
 0.8310	62.7260
 0.8320	62.7320
 0.8330	62.7330
 0.8340	62.7360
 0.8350	62.7530
 0.8360	62.7490
 0.8370	62.7540
 0.8380	62.7700
 0.8390	62.7820
 0.8400	62.7880
 0.8410	62.8010
 0.8420	62.8220
 0.8430	62.8380
 0.8440	62.8520
 0.8450	62.8610
 0.8460	62.8650
 0.8470	62.8780
 0.8480	62.8860
 0.8490	62.9000
 0.8500	62.9290
 0.8510	62.9400
 0.8520	62.9340
 0.8530	62.9300
 0.8540	62.9510
 0.8550	62.9660
 0.8560	62.9680
 0.8570	62.9680
 0.8580	62.9890
 0.8590	63.0060
 0.8600	63.0140
 0.8610	63.0180
 0.8620	63.0230
 0.8630	63.0090
 0.8640	63.0140
 0.8650	63.0560
 0.8660	63.0530
 0.8670	63.0450
 0.8680	63.0450
 0.8690	63.0520
 0.8700	63.0510
 0.8710	63.0420
 0.8720	63.0360
 0.8730	63.0460
 0.8740	63.0640
 0.8750	63.0760
 0.8760	63.0730
 0.8770	63.0600
 0.8780	63.0590
 0.8790	63.0560
 0.8800	63.0470
 0.8810	63.0440
 0.8820	63.0490
 0.8830	63.0520
 0.8840	63.0460
 0.8850	63.0350
 0.8860	63.0310
 0.8870	63.0250
 0.8880	63.0120
 0.8890	63.0130
 0.8900	63.0070
 0.8910	62.9960
 0.8920	62.9900
 0.8930	62.9720
 0.8940	62.9650
 0.8950	62.9610
 0.8960	62.9430
 0.8970	62.9400
 0.8980	62.9390
 0.8990	62.9300
 0.9000	62.9110
 0.9010	62.8930
 0.9020	62.8870
 0.9030	62.8870
 0.9040	62.8660
 0.9050	62.8410
 0.9060	62.8160
 0.9070	62.7980
 0.9080	62.8020
 0.9090	62.7880
 0.9100	62.7670
 0.9110	62.7550
 0.9120	62.7490
 0.9130	62.7310
 0.9140	62.7150
 0.9150	62.7140
 0.9160	62.6930
 0.9170	62.6700
 0.9180	62.6410
 0.9190	62.6050
 0.9200	62.5890
 0.9210	62.5740
 0.9220	62.5520
 0.9230	62.5210
 0.9240	62.4860
 0.9250	62.4500
 0.9260	62.4160
 0.9270	62.3800
 0.9280	62.3320
 0.9290	62.2910
 0.9300	62.2510
 0.9310	62.1920
 0.9320	62.1330
 0.9330	62.0860
 0.9340	62.0440
 0.9350	61.9830
 0.9360	61.9310
 0.9370	61.8730
 0.9380	61.8040
 0.9390	61.7520
 0.9400	61.6750
 0.9410	61.5910
 0.9420	61.5160
 0.9430	61.4470
 0.9440	61.3570
 0.9450	61.2670
 0.9460	61.1850
 0.9470	61.0510
 0.9480	60.9230
 0.9490	60.8090
 0.9500	60.6960
 0.9510	60.5540
 0.9520	60.4230
 0.9530	60.2770
 0.9540	60.1010
 0.9550	59.9570
 0.9560	59.8070
 0.9570	59.6640
 0.9580	59.5480
 0.9590	59.4280
 0.9600	59.3020
 0.9610	59.1920
 0.9620	59.1190
 0.9630	59.0440
 0.9640	58.9750
 0.9650	58.9140
 0.9660	58.8640
 0.9670	58.8360
 0.9680	58.7900
 0.9690	58.7400
 0.9700	58.7140
 0.9710	58.6850
 0.9720	58.6650
 0.9730	58.6540
 0.9740	58.6450
 0.9750	58.6240
 0.9760	58.6140
 0.9770	58.6210
 0.9780	58.6380
 0.9790	58.6430
 0.9800	58.6470
 0.9810	58.6640
 0.9820	58.7000
 0.9830	58.7220
 0.9840	58.7350
 0.9850	58.7590
 0.9860	58.8130
 0.9870	58.8550
 0.9880	58.8930
 0.9890	58.9360
 0.9900	58.9900
 0.9910	59.0310
 0.9920	59.0710
 0.9930	59.1150
 0.9940	59.1630
 0.9950	59.2330
 0.9960	59.3080
 0.9970	59.3630
 0.9980	59.3900
 0.9990	59.4420
 1.0000	59.6470
 1.0010	59.9200
 1.0020	60.1180
 1.0030	60.1870
 1.0040	60.2530
 1.0050	60.3160
 1.0060	60.3830
 1.0070	60.4430
 1.0080	60.5020
 1.0090	60.5570
 1.0100	60.6130
 1.0110	60.6650
 1.0120	60.7220
 1.0130	60.7790
 1.0140	60.8400
 1.0150	60.9050
 1.0160	60.9690
 1.0170	61.0270
 1.0180	61.0920
 1.0190	61.1510
 1.0200	61.2000
 1.0210	61.2620
 1.0220	61.3260
 1.0230	61.3860
 1.0240	61.4520
 1.0250	61.5090
 1.0260	61.5610
 1.0270	61.6090
 1.0280	61.6500
 1.0290	61.6980
 1.0300	61.7440
 1.0310	61.7910
 1.0320	61.8440
 1.0330	61.8930
 1.0340	61.9360
 1.0350	61.9850
 1.0360	62.0250
 1.0370	62.0710
 1.0380	62.1130
 1.0390	62.1560
 1.0400	62.1950
 1.0410	62.2330
 1.0420	62.2690
 1.0430	62.3000
 1.0440	62.3330
 1.0450	62.3670
 1.0460	62.3980
 1.0470	62.4240
 1.0480	62.4550
 1.0490	62.4910
 1.0500	62.5210
 1.0510	62.5500
 1.0520	62.5820
 1.0530	62.6070
 1.0540	62.6240
 1.0550	62.6450
 1.0560	62.6650
 1.0570	62.6870
 1.0580	62.7130
 1.0590	62.7310
 1.0600	62.7420
 1.0610	62.7560
 1.0620	62.7650
 1.0630	62.7770
 1.0640	62.7930
 1.0650	62.8070
 1.0660	62.8210
 1.0670	62.8300
 1.0680	62.8380
 1.0690	62.8460
 1.0700	62.8470
 1.0710	62.8390
 1.0720	62.8390
 1.0730	62.8400
 1.0740	62.8360
 1.0750	62.8300
 1.0760	62.8260
 1.0770	62.8160
 1.0780	62.8090
 1.0790	62.8090
 1.0800	62.8040
 1.0810	62.7970
 1.0820	62.7850
 1.0830	62.7710
 1.0840	62.7560
 1.0850	62.7320
 1.0860	62.7170
 1.0870	62.7000
 1.0880	62.6870
 1.0890	62.6680
 1.0900	62.6490
 1.0910	62.6270
 1.0920	62.6010
 1.0930	62.5770
 1.0940	62.5570
 1.0950	62.5310
 1.0960	62.5000
 1.0970	62.4710
 1.0980	62.4400
 1.0990	62.4080
 1.1000	62.3770
 1.1010	62.3440
 1.1020	62.3080
 1.1030	62.2720
 1.1040	62.2360
 1.1050	62.1990
 1.1060	62.1630
 1.1070	62.1280
 1.1080	62.0900
 1.1090	62.0510
 1.1100	62.0110
 1.1110	61.9680
 1.1120	61.9220
 1.1130	61.8750
 1.1140	61.8250
 1.1150	61.7710
 1.1160	61.7130
 1.1170	61.6550
 1.1180	61.5890
 1.1190	61.5200
 1.1200	61.4410
 1.1210	61.3550
 1.1220	61.2660
 1.1230	61.1650
 1.1240	61.0560
 1.1250	60.9360
 1.1260	60.8090
 1.1270	60.6670
 1.1280	60.5170
 1.1290	60.3500
 1.1300	60.1750
 1.1310	59.9790
 1.1320	59.7660
 1.1330	59.5380
 1.1340	59.2910
 1.1350	59.0320
 1.1360	58.7570
 1.1370	58.4730
 1.1380	58.1790
 1.1390	57.8720
 1.1400	57.5570
 1.1410	57.2380
 1.1420	56.9100
 1.1430	56.5800
 1.1440	56.2570
 1.1450	55.9320
 1.1460	55.6170
 1.1470	55.3020
 1.1480	55.0080
 1.1490	54.7190
 1.1500	54.4540
 1.1510	54.2080
 1.1520	53.9780
 1.1530	53.7650
 1.1540	53.5680
 1.1550	53.3870
 1.1560	53.2250
 1.1570	53.0810
 1.1580	52.9540
 1.1590	52.8400
 1.1600	52.7380
 1.1610	52.6460
 1.1620	52.5640
 1.1630	52.4910
 1.1640	52.4260
 1.1650	52.3680
 1.1660	52.3200
 1.1670	52.2750
 1.1680	52.2400
 1.1690	52.2050
 1.1700	52.1730
 1.1710	52.1410
 1.1720	52.1130
 1.1730	52.0820
 1.1740	52.0520
 1.1750	52.0220
 1.1760	51.9930
 1.1770	51.9600
 1.1780	51.9270
 1.1790	51.8940
 1.1800	51.8580
 1.1810	51.8200
 1.1820	51.7820
 1.1830	51.7430
 1.1840	51.7030
 1.1850	51.6650
 1.1860	51.6270
 1.1870	51.5900
 1.1880	51.5570
 1.1890	51.5260
 1.1900	51.4980
 1.1910	51.4740
 1.1920	51.4530
 1.1930	51.4370
 1.1940	51.4220
 1.1950	51.4090
 1.1960	51.4000
 1.1970	51.3910
 1.1980	51.3880
 1.1990	51.3940
 1.2000	51.4060
 1.2010	51.4230
 1.2020	51.4440
 1.2030	51.4680
 1.2040	51.4960
 1.2050	51.5270
 1.2060	51.5620
 1.2070	51.5990
 1.2080	51.6390
 1.2090	51.6840
 1.2100	51.7340
 1.2110	51.7850
 1.2120	51.8390
 1.2130	51.8950
 1.2140	51.9500
 1.2150	52.0120
 1.2160	52.0780
 1.2170	52.1470
 1.2180	52.2180
 1.2190	52.2880
 1.2200	52.3550
 1.2210	52.4250
 1.2220	52.4960
 1.2230	52.5680
 1.2240	52.6440
 1.2250	52.7150
 1.2260	52.7830
 1.2270	52.8510
 1.2280	52.9170
 1.2290	52.9830
 1.2300	53.0460
 1.2310	53.1090
 1.2320	53.1700
 1.2330	53.2270
 1.2340	53.2830
 1.2350	53.3390
 1.2360	53.3930
 1.2370	53.4460
 1.2380	53.4970
 1.2390	53.5470
 1.2400	53.5970
 1.2410	53.6440
 1.2420	53.6890
 1.2430	53.7340
 1.2440	53.7740
 1.2450	53.8120
 1.2460	53.8490
 1.2470	53.8850
 1.2480	53.9210
 1.2490	53.9570
 1.2500	53.9920
 1.2510	54.0240
 1.2520	54.0550
 1.2530	54.0830
 1.2540	54.1090
 1.2550	54.1340
 1.2560	54.1570
 1.2570	54.1760
 1.2580	54.1930
 1.2590	54.2080
 1.2600	54.2180
 1.2610	54.2310
 1.2620	54.2440
 1.2630	54.2540
 1.2640	54.2630
 1.2650	54.2700
 1.2660	54.2710
 1.2670	54.2720
 1.2680	54.2720
 1.2690	54.2710
 1.2700	54.2660
 1.2710	54.2550
 1.2720	54.2430
 1.2730	54.2270
 1.2740	54.2120
 1.2750	54.1960
 1.2760	54.1720
 1.2770	54.1460
 1.2780	54.1210
 1.2790	54.0920
 1.2800	54.0630
 1.2810	54.0320
 1.2820	53.9950
 1.2830	53.9590
 1.2840	53.9200
 1.2850	53.8780
 1.2860	53.8320
 1.2870	53.7810
 1.2880	53.7240
 1.2890	53.6650
 1.2900	53.6010
 1.2910	53.5320
 1.2920	53.4610
 1.2930	53.3850
 1.2940	53.3060
 1.2950	53.2210
 1.2960	53.1290
 1.2970	53.0320
 1.2980	52.9300
 1.2990	52.8220
 1.3000	52.7130
 1.3010	52.5960
 1.3020	52.4740
 1.3030	52.3480
 1.3040	52.2170
 1.3050	52.0820
 1.3060	51.9440
 1.3070	51.8000
 1.3080	51.6510
 1.3090	51.4940
 1.3100	51.3300
 1.3110	51.1600
 1.3120	50.9820
 1.3130	50.8010
 1.3140	50.6140
 1.3150	50.4210
 1.3160	50.2230
 1.3170	50.0220
 1.3180	49.8140
 1.3190	49.5990
 1.3200	49.3780
 1.3210	49.1510
 1.3220	48.9190
 1.3230	48.6860
 1.3240	48.4480
 1.3250	48.2090
 1.3260	47.9640
 1.3270	47.7140
 1.3280	47.4620
 1.3290	47.2060
 1.3300	46.9490
 1.3310	46.6900
 1.3320	46.4280
 1.3330	46.1670
 1.3340	45.9070
 1.3350	45.6450
 1.3360	45.3860
 1.3370	45.1250
 1.3380	44.8640
 1.3390	44.6060
 1.3400	44.3510
 1.3410	44.1010
 1.3420	43.8560
 1.3430	43.6150
 1.3440	43.3760
 1.3450	43.1390
 1.3460	42.9010
 1.3470	42.6710
 1.3480	42.4450
 1.3490	42.2220
 1.3500	42.0050
 1.3510	41.7900
 1.3520	41.5760
 1.3530	41.3630
 1.3540	41.1540
 1.3550	40.9440
 1.3560	40.7360
 1.3570	40.5280
 1.3580	40.3170
 1.3590	40.1010
 1.3600	39.8820
 1.3610	39.6570
 1.3620	39.4230
 1.3630	39.1820
 1.3640	38.9340
 1.3650	38.6720
 1.3660	38.4040
 1.3670	38.1220
 1.3680	37.8250
 1.3690	37.5150
 1.3700	37.1860
 1.3710	36.8420
 1.3720	36.4820
 1.3730	36.1000
 1.3740	35.7020
 1.3750	35.2830
 1.3760	34.8390
 1.3770	34.3740
 1.3780	33.8790
 1.3790	33.3600
 1.3800	32.8200
 1.3810	32.2520
 1.3820	31.6710
 1.3830	31.0710
 1.3840	30.4580
 1.3850	29.8260
 1.3860	29.1890
 1.3870	28.5330
 1.3880	27.8860
 1.3890	27.2330
 1.3900	26.5810
 1.3910	25.9420
 1.3920	25.3050
 1.3930	24.6760
 1.3940	24.0630
 1.3950	23.4590
 1.3960	22.8750
 1.3970	22.3100
 1.3980	21.7650
 1.3990	21.2480
 1.4000	20.7520
 1.4010	20.2780
 1.4020	19.8300
 1.4030	19.4040
 1.4040	19.0040
 1.4050	18.6300
 1.4060	18.2770
 1.4070	17.9500
 1.4080	17.6440
 1.4090	17.3580
 1.4100	17.0960
 1.4110	16.8520
 1.4120	16.6270
 1.4130	16.4200
 1.4140	16.2290
 1.4150	16.0550
 1.4160	15.8950
 1.4170	15.7460
 1.4180	15.6120
 1.4190	15.4870
 1.4200	15.3720
 1.4210	15.2680
 1.4220	15.1720
 1.4230	15.0850
 1.4240	15.0060
 1.4250	14.9340
 1.4260	14.8700
 1.4270	14.8110
 1.4280	14.7580
 1.4290	14.7100
 1.4300	14.6680
 1.4310	14.6320
 1.4320	14.6020
 1.4330	14.5750
 1.4340	14.5530
 1.4350	14.5340
 1.4360	14.5180
 1.4370	14.5050
 1.4380	14.4950
 1.4390	14.4880
 1.4400	14.4840
 1.4410	14.4830
 1.4420	14.4830
 1.4430	14.4860
 1.4440	14.4920
 1.4450	14.4990
 1.4460	14.5070
 1.4470	14.5180
 1.4480	14.5290
 1.4490	14.5400
 1.4500	14.5530
 1.4510	14.5670
 1.4520	14.5810
 1.4530	14.5970
 1.4540	14.6140
 1.4550	14.6330
 1.4560	14.6540
 1.4570	14.6760
 1.4580	14.7000
 1.4590	14.7260
 1.4600	14.7550
 1.4610	14.7880
 1.4620	14.8240
 1.4630	14.8650
 1.4640	14.9080
 1.4650	14.9550
 1.4660	15.0050
 1.4670	15.0570
 1.4680	15.1140
 1.4690	15.1750
 1.4700	15.2380
 1.4710	15.3070
 1.4720	15.3780
 1.4730	15.4520
 1.4740	15.5300
 1.4750	15.6090
 1.4760	15.6910
 1.4770	15.7750
 1.4780	15.8610
 1.4790	15.9500
 1.4800	16.0410
 1.4810	16.1340
 1.4820	16.2290
 1.4830	16.3240
 1.4840	16.4220
 1.4850	16.5220
 1.4860	16.6220
 1.4870	16.7250
 1.4880	16.8270
 1.4890	16.9290
 1.4900	17.0330
 1.4910	17.1380
 1.4920	17.2450
 1.4930	17.3540
 1.4940	17.4630
 1.4950	17.5730
 1.4960	17.6830
 1.4970	17.7920
 1.4980	17.9030
 1.4990	18.0140
 1.5000	18.1260
 1.5010	18.2390
 1.5020	18.3520
 1.5030	18.4650
 1.5040	18.5790
 1.5050	18.6930
 1.5060	18.8070
 1.5070	18.9210
 1.5080	19.0350
 1.5090	19.1510
 1.5100	19.2650
 1.5110	19.3800
 1.5120	19.4960
 1.5130	19.6090
 1.5140	19.7230
 1.5150	19.8370
 1.5160	19.9510
 1.5170	20.0650
 1.5180	20.1790
 1.5190	20.2920
 1.5200	20.4050
 1.5210	20.5150
 1.5220	20.6250
 1.5230	20.7350
 1.5240	20.8440
 1.5250	20.9560
 1.5260	21.0670
 1.5270	21.1750
 1.5280	21.2840
 1.5290	21.3920
 1.5300	21.5000
 1.5310	21.6090
 1.5320	21.7160
 1.5330	21.8220
 1.5340	21.9260
 1.5350	22.0300
 1.5360	22.1350
 1.5370	22.2390
 1.5380	22.3430
 1.5390	22.4470
 1.5400	22.5500
 1.5410	22.6530
 1.5420	22.7560
 1.5430	22.8580
 1.5440	22.9590
 1.5450	23.0580
 1.5460	23.1560
 1.5470	23.2540
 1.5480	23.3520
 1.5490	23.4520
 1.5500	23.5500
 1.5510	23.6470
 1.5520	23.7440
 1.5530	23.8380
 1.5540	23.9320
 1.5550	24.0270
 1.5560	24.1220
 1.5570	24.2160
 1.5580	24.3090
 1.5590	24.4010
 1.5600	24.4930
 1.5610	24.5850
 1.5620	24.6780
 1.5630	24.7700
 1.5640	24.8600
 1.5650	24.9500
 1.5660	25.0380
 1.5670	25.1240
 1.5680	25.2110
 1.5690	25.2950
 1.5700	25.3800
 1.5710	25.4640
 1.5720	25.5480
 1.5730	25.6330
 1.5740	25.7170
 1.5750	25.7990
 1.5760	25.8820
 1.5770	25.9630
 1.5780	26.0430
 1.5790	26.1260
 1.5800	26.2070
 1.5810	26.2890
 1.5820	26.3730
 1.5830	26.4550
 1.5840	26.5370
 1.5850	26.6170
 1.5860	26.6950
 1.5870	26.7730
 1.5880	26.8520
 1.5890	26.9330
 1.5900	27.0120
 1.5910	27.0900
 1.5920	27.1690
 1.5930	27.2460
 1.5940	27.3230
 1.5950	27.4020
 1.5960	27.4790
 1.5970	27.5560
 1.5980	27.6320
 1.5990	27.7060
 1.6000	27.7810
 1.6010	27.8540
 1.6020	27.9280
 1.6030	28.0050
 1.6040	28.0780
 1.6050	28.1520
 1.6060	28.2240
 1.6070	28.2940
 1.6080	28.3650
 1.6090	28.4340
 1.6100	28.5030
 1.6110	28.5720
 1.6120	28.6370
 1.6130	28.7040
 1.6140	28.7690
 1.6150	28.8310
 1.6160	28.8930
 1.6170	28.9520
 1.6180	29.0120
 1.6190	29.0720
 1.6200	29.1300
 1.6210	29.1880
 1.6220	29.2440
 1.6230	29.2970
 1.6240	29.3500
 1.6250	29.4020
 1.6260	29.4500
 1.6270	29.4990
 1.6280	29.5440
 1.6290	29.5890
 1.6300	29.6310
 1.6310	29.6720
 1.6320	29.7130
 1.6330	29.7530
 1.6340	29.7940
 1.6350	29.8340
 1.6360	29.8740
 1.6370	29.9110
 1.6380	29.9470
 1.6390	29.9840
 1.6400	30.0200
 1.6410	30.0540
 1.6420	30.0890
 1.6430	30.1190
 1.6440	30.1460
 1.6450	30.1730
 1.6460	30.1980
 1.6470	30.2210
 1.6480	30.2390
 1.6490	30.2520
 1.6500	30.2610
 1.6510	30.2650
 1.6520	30.2690
 1.6530	30.2710
 1.6540	30.2710
 1.6550	30.2690
 1.6560	30.2660
 1.6570	30.2600
 1.6580	30.2550
 1.6590	30.2470
 1.6600	30.2380
 1.6610	30.2270
 1.6620	30.2160
 1.6630	30.2070
 1.6640	30.1990
 1.6650	30.1920
 1.6660	30.1840
 1.6670	30.1730
 1.6680	30.1630
 1.6690	30.1510
 1.6700	30.1400
 1.6710	30.1330
 1.6720	30.1230
 1.6730	30.1090
 1.6740	30.0940
 1.6750	30.0750
 1.6760	30.0540
 1.6770	30.0360
 1.6780	30.0140
 1.6790	29.9900
 1.6800	29.9650
 1.6810	29.9330
 1.6820	29.8980
 1.6830	29.8610
 1.6840	29.8220
 1.6850	29.7790
 1.6860	29.7340
 1.6870	29.6870
 1.6880	29.6360
 1.6890	29.5840
 1.6900	29.5300
 1.6910	29.4710
 1.6920	29.4130
 1.6930	29.3550
 1.6940	29.2980
 1.6950	29.2400
 1.6960	29.1810
 1.6970	29.1220
 1.6980	29.0620
 1.6990	29.0000
 1.7000	28.9390
 1.7010	28.8780
 1.7020	28.8130
 1.7030	28.7470
 1.7040	28.6790
 1.7050	28.6070
 1.7060	28.5360
 1.7070	28.4630
 1.7080	28.3920
 1.7090	28.3190
 1.7100	28.2480
 1.7110	28.1790
 1.7120	28.1090
 1.7130	28.0390
 1.7140	27.9710
 1.7150	27.9040
 1.7160	27.8400
 1.7170	27.7780
 1.7180	27.7180
 1.7190	27.6590
 1.7200	27.5990
 1.7210	27.5380
 1.7220	27.4800
 1.7230	27.4250
 1.7240	27.3710
 1.7250	27.3170
 1.7260	27.2640
 1.7270	27.2110
 1.7280	27.1630
 1.7290	27.1180
 1.7300	27.0750
 1.7310	27.0300
 1.7320	26.9850
 1.7330	26.9390
 1.7340	26.8950
 1.7350	26.8500
 1.7360	26.8040
 1.7370	26.7550
 1.7380	26.7070
 1.7390	26.6520
 1.7400	26.5910
 1.7410	26.5300
 1.7420	26.4630
 1.7430	26.3960
 1.7440	26.3300
 1.7450	26.2590
 1.7460	26.1820
 1.7470	26.1090
 1.7480	26.0350
 1.7490	25.9610
 1.7500	25.8880
 1.7510	25.8150
 1.7520	25.7410
 1.7530	25.6720
 1.7540	25.6070
 1.7550	25.5410
 1.7560	25.4770
 1.7570	25.4150
 1.7580	25.3540
 1.7590	25.2950
 1.7600	25.2380
 1.7610	25.1830
 1.7620	25.1310
 1.7630	25.0810
 1.7640	25.0320
 1.7650	24.9860
 1.7660	24.9400
 1.7670	24.8940
 1.7680	24.8510
 1.7690	24.8130
 1.7700	24.7730
 1.7710	24.7340
 1.7720	24.6960
 1.7730	24.6580
 1.7740	24.6230
 1.7750	24.5900
 1.7760	24.5580
 1.7770	24.5250
 1.7780	24.4950
 1.7790	24.4650
 1.7800	24.4380
 1.7810	24.4130
 1.7820	24.3910
 1.7830	24.3730
 1.7840	24.3550
 1.7850	24.3380
 1.7860	24.3250
 1.7870	24.3160
 1.7880	24.3040
 1.7890	24.2950
 1.7900	24.2850
 1.7910	24.2780
 1.7920	24.2760
 1.7930	24.2740
 1.7940	24.2710
 1.7950	24.2710
 1.7960	24.2710
 1.7970	24.2720
 1.7980	24.2760
 1.7990	24.2780
 1.8000	24.2780
 1.8010	24.2810
 1.8020	24.2860
 1.8030	24.2900
 1.8040	24.2970
 1.8050	24.3040
 1.8060	24.3090
 1.8070	24.3150
 1.8080	24.3220
 1.8090	24.3280
 1.8100	24.3340
 1.8110	24.3420
 1.8120	24.3470
 1.8130	24.3500
 1.8140	24.3540
 1.8150	24.3590
 1.8160	24.3620
 1.8170	24.3640
 1.8180	24.3640
 1.8190	24.3560
 1.8200	24.3510
 1.8210	24.3470
 1.8220	24.3410
 1.8230	24.3350
 1.8240	24.3280
 1.8250	24.3190
 1.8260	24.3110
 1.8270	24.3070
 1.8280	24.2960
 1.8290	24.2820
 1.8300	24.3340
 1.8310	24.4690
 1.8320	24.5090
 1.8330	24.4790
 1.8340	24.4450
 1.8350	24.4100
 1.8360	24.3660
 1.8370	24.3190
 1.8380	24.2680
 1.8390	24.2110
 1.8400	24.1520
 1.8410	24.0830
 1.8420	24.0080
 1.8430	23.9260
 1.8440	23.8380
 1.8450	23.7410
 1.8460	23.6390
 1.8470	23.5280
 1.8480	23.4050
 1.8490	23.2730
 1.8500	23.1330
 1.8510	22.9840
 1.8520	22.8250
 1.8530	22.6560
 1.8540	22.4770
 1.8550	22.2850
 1.8560	22.0830
 1.8570	21.8660
 1.8580	21.6360
 1.8590	21.3980
 1.8600	21.1510
 1.8610	20.8900
 1.8620	20.6180
 1.8630	20.3380
 1.8640	20.0420
 1.8650	19.7300
 1.8660	19.4070
 1.8670	19.0710
 1.8680	18.7250
 1.8690	18.3670
 1.8700	18.0000
 1.8710	17.6240
 1.8720	17.2440
 1.8730	16.8540
 1.8740	16.4670
 1.8750	16.0830
 1.8760	15.6900
 1.8770	15.3040
 1.8780	14.9260
 1.8790	14.5500
 1.8800	14.1870
 1.8810	13.8350
 1.8820	13.4880
 1.8830	13.1460
 1.8840	12.8180
 1.8850	12.4990
 1.8860	12.1950
 1.8870	11.9080
 1.8880	11.6310
 1.8890	11.3700
 1.8900	11.1200
 1.8910	10.8850
 1.8920	10.6630
 1.8930	10.4580
 1.8940	10.2670
 1.8950	10.0920
 1.8960	 9.9300
 1.8970	 9.7790
 1.8980	 9.6400
 1.8990	 9.5150
 1.9000	 9.4010
 1.9010	 9.3000
 1.9020	 9.2060
 1.9030	 9.1230
 1.9040	 9.0480
 1.9050	 8.9780
 1.9060	 8.9150
 1.9070	 8.8610
 1.9080	 8.8140
 1.9090	 8.7690
 1.9100	 8.7290
 1.9110	 8.6930
 1.9120	 8.6590
 1.9130	 8.6290
 1.9140	 8.6030
 1.9150	 8.5820
 1.9160	 8.5630
 1.9170	 8.5470
 1.9180	 8.5350
 1.9190	 8.5250
 1.9200	 8.5170
 1.9210	 8.5100
 1.9220	 8.5020
 1.9230	 8.4920
 1.9240	 8.4870
 1.9250	 8.4830
 1.9260	 8.4800
 1.9270	 8.4820
 1.9280	 8.4850
 1.9290	 8.4880
 1.9300	 8.4920
 1.9310	 8.4960
 1.9320	 8.5020
 1.9330	 8.5100
 1.9340	 8.5210
 1.9350	 8.5310
 1.9360	 8.5440
 1.9370	 8.5570
 1.9380	 8.5680
 1.9390	 8.5830
 1.9400	 8.5970
 1.9410	 8.6140
 1.9420	 8.6320
 1.9430	 8.6490
 1.9440	 8.6680
 1.9450	 8.6910
 1.9460	 8.7100
 1.9470	 8.7290
 1.9480	 8.7480
 1.9490	 8.7650
 1.9500	 8.7830
 1.9510	 8.8020
 1.9520	 8.8220
 1.9530	 8.8440
 1.9540	 8.8670
 1.9550	 8.8920
 1.9560	 8.9200
 1.9570	 8.9460
 1.9580	 8.9740
 1.9590	 9.0030
 1.9600	 9.0320
 1.9610	 9.0600
 1.9620	 9.0900
 1.9630	 9.1180
 1.9640	 9.1470
 1.9650	 9.1750
 1.9660	 9.2050
 1.9670	 9.2350
 1.9680	 9.2640
 1.9690	 9.2930
 1.9700	 9.3220
 1.9710	 9.3510
 1.9720	 9.3810
 1.9730	 9.4120
 1.9740	 9.4440
 1.9750	 9.4770
 1.9760	 9.5130
 1.9770	 9.5490
 1.9780	 9.5870
 1.9790	 9.6230
 1.9800	 9.6580
 1.9810	 9.6940
 1.9820	 9.7300
 1.9830	 9.7660
 1.9840	 9.8000
 1.9850	 9.8370
 1.9860	 9.8730
 1.9870	 9.9100
 1.9880	 9.9480
 1.9890	 9.9880
 1.9900	10.0250
 1.9910	10.0620
 1.9920	10.0990
 1.9930	10.1350
 1.9940	10.1740
 1.9950	10.2130
 1.9960	10.2530
 1.9970	10.2950
 1.9980	10.3360
 1.9990	10.3770
 2.0000	10.4190
 2.0010	10.4600
 2.0020	10.5020
 2.0030	10.5430
 2.0040	10.5850
 2.0050	10.6260
 2.0060	10.6680
 2.0070	10.7090
 2.0080	10.7500
 2.0090	10.7900
 2.0100	10.8310
 2.0110	10.8710
 2.0120	10.9110
 2.0130	10.9520
 2.0140	10.9950
 2.0150	11.0340
 2.0160	11.0750
 2.0170	11.1130
 2.0180	11.1520
 2.0190	11.1880
 2.0200	11.2260
 2.0210	11.2660
 2.0220	11.3030
 2.0230	11.3410
 2.0240	11.3780
 2.0250	11.4120
 2.0260	11.4470
 2.0270	11.4790
 2.0280	11.5140
 2.0290	11.5450
 2.0300	11.5770
 2.0310	11.6090
 2.0320	11.6400
 2.0330	11.6720
 2.0340	11.7050
 2.0350	11.7360
 2.0360	11.7660
 2.0370	11.7950
 2.0380	11.8240
 2.0390	11.8520
 2.0400	11.8790
 2.0410	11.9070
 2.0420	11.9350
 2.0430	11.9590
 2.0440	11.9870
 2.0450	12.0160
 2.0460	12.0430
 2.0470	12.0710
 2.0480	12.0970
 2.0490	12.1200
 2.0500	12.1450
 2.0510	12.1720
 2.0520	12.1970
 2.0530	12.2230
 2.0540	12.2480
 2.0550	12.2730
 2.0560	12.2980
 2.0570	12.3210
 2.0580	12.3480
 2.0590	12.3730
 2.0600	12.3940
 2.0610	12.4180
 2.0620	12.4430
 2.0630	12.4680
 2.0640	12.4940
 2.0650	12.5180
 2.0660	12.5400
 2.0670	12.5640
 2.0680	12.5900
 2.0690	12.6150
 2.0700	12.6450
 2.0710	12.6720
 2.0720	12.6950
 2.0730	12.7170
 2.0740	12.7400
 2.0750	12.7600
 2.0760	12.7840
 2.0770	12.8120
 2.0780	12.8360
 2.0790	12.8610
 2.0800	12.8850
 2.0810	12.9050
 2.0820	12.9290
 2.0830	12.9550
 2.0840	12.9810
 2.0850	13.0100
 2.0860	13.0350
 2.0870	13.0600
 2.0880	13.0830
 2.0890	13.1060
 2.0900	13.1270
 2.0910	13.1530
 2.0920	13.1810
 2.0930	13.2070
 2.0940	13.2340
 2.0950	13.2610
 2.0960	13.2850
 2.0970	13.3120
 2.0980	13.3420
 2.0990	13.3700
 2.1000	13.4000
 2.1010	13.4280
 2.1020	13.4510
 2.1030	13.4770
 2.1040	13.5020
 2.1050	13.5270
 2.1060	13.5540
 2.1070	13.5840
 2.1080	13.6100
 2.1090	13.6340
 2.1100	13.6590
 2.1110	13.6840
 2.1120	13.7100
 2.1130	13.7400
 2.1140	13.7660
 2.1150	13.7910
 2.1160	13.8170
 2.1170	13.8420
 2.1180	13.8670
 2.1190	13.8910
 2.1200	13.9170
 2.1210	13.9430
 2.1220	13.9690
 2.1230	13.9970
 2.1240	14.0280
 2.1250	14.0550
 2.1260	14.0790
 2.1270	14.1040
 2.1280	14.1280
 2.1290	14.1530
 2.1300	14.1790
 2.1310	14.2050
 2.1320	14.2300
 2.1330	14.2560
 2.1340	14.2830
 2.1350	14.3070
 2.1360	14.3290
 2.1370	14.3520
 2.1380	14.3710
 2.1390	14.3920
 2.1400	14.4140
 2.1410	14.4390
 2.1420	14.4640
 2.1430	14.4920
 2.1440	14.5150
 2.1450	14.5360
 2.1460	14.5570
 2.1470	14.5740
 2.1480	14.5930
 2.1490	14.6120
 2.1500	14.6340
 2.1510	14.6590
 2.1520	14.6820
 2.1530	14.7070
 2.1540	14.7310
 2.1550	14.7510
 2.1560	14.7730
 2.1570	14.7940
 2.1580	14.8150
 2.1590	14.8350
 2.1600	14.8570
 2.1610	14.8780
 2.1620	14.8990
 2.1630	14.9190
 2.1640	14.9360
 2.1650	14.9560
 2.1660	14.9770
 2.1670	14.9970
 2.1680	15.0190
 2.1690	15.0390
 2.1700	15.0530
 2.1710	15.0730
 2.1720	15.0960
 2.1730	15.1180
 2.1740	15.1470
 2.1750	15.1680
 2.1760	15.1830
 2.1770	15.2020
 2.1780	15.2170
 2.1790	15.2350
 2.1800	15.2600
 2.1810	15.2800
 2.1820	15.2970
 2.1830	15.3130
 2.1840	15.3300
 2.1850	15.3430
 2.1860	15.3610
 2.1870	15.3850
 2.1880	15.4020
 2.1890	15.4170
 2.1900	15.4300
 2.1910	15.4350
 2.1920	15.4490
 2.1930	15.4690
 2.1940	15.4860
 2.1950	15.5080
 2.1960	15.5270
 2.1970	15.5450
 2.1980	15.5600
 2.1990	15.5760
 2.2000	15.5900
 2.2010	15.5990
 2.2020	15.6100
 2.2030	15.6230
 2.2040	15.6340
 2.2050	15.6420
 2.2060	15.6540
 2.2070	15.6630
 2.2080	15.6710
 2.2090	15.6790
 2.2100	15.6860
 2.2110	15.6920
 2.2120	15.6970
 2.2130	15.7030
 2.2140	15.7100
 2.2150	15.7130
 2.2160	15.7140
 2.2170	15.7140
 2.2180	15.7110
 2.2190	15.7080
 2.2200	15.7070
 2.2210	15.7010
 2.2220	15.6920
 2.2230	15.6840
 2.2240	15.6760
 2.2250	15.6650
 2.2260	15.6510
 2.2270	15.6360
 2.2280	15.6210
 2.2290	15.6030
 2.2300	15.5870
 2.2310	15.5660
 2.2320	15.5390
 2.2330	15.5100
 2.2340	15.4800
 2.2350	15.4450
 2.2360	15.4140
 2.2370	15.3830
 2.2380	15.3490
 2.2390	15.3140
 2.2400	15.2770
 2.2410	15.2380
 2.2420	15.1970
 2.2430	15.1570
 2.2440	15.1140
 2.2450	15.0680
 2.2460	15.0230
 2.2470	14.9770
 2.2480	14.9310
 2.2490	14.8840
 2.2500	14.8380
 2.2510	14.7940
 2.2520	14.7450
 2.2530	14.6950
 2.2540	14.6430
 2.2550	14.5870
 2.2560	14.5300
 2.2570	14.4720
 2.2580	14.4140
 2.2590	14.3510
 2.2600	14.2930
 2.2610	14.2350
 2.2620	14.1810
 2.2630	14.1280
 2.2640	14.0740
 2.2650	14.0260
 2.2660	13.9750
 2.2670	13.9270
 2.2680	13.8800
 2.2690	13.8370
 2.2700	13.7970
 2.2710	13.7540
 2.2720	13.7120
 2.2730	13.6720
 2.2740	13.6280
 2.2750	13.5900
 2.2760	13.5580
 2.2770	13.5270
 2.2780	13.4990
 2.2790	13.4710
 2.2800	13.4470
 2.2810	13.4220
 2.2820	13.4000
 2.2830	13.3740
 2.2840	13.3500
 2.2850	13.3200
 2.2860	13.2820
 2.2870	13.2460
 2.2880	13.2050
 2.2890	13.1670
 2.2900	13.1330
 2.2910	13.0950
 2.2920	13.0580
 2.2930	13.0180
 2.2940	12.9750
 2.2950	12.9330
 2.2960	12.8880
 2.2970	12.8470
 2.2980	12.8060
 2.2990	12.7680
 2.3000	12.7410
 2.3010	12.7050
 2.3020	12.6660
 2.3030	12.6340
 2.3040	12.6020
 2.3050	12.5760
 2.3060	12.5570
 2.3070	12.5360
 2.3080	12.5160
 2.3090	12.4970
 2.3100	12.4850
 2.3110	12.4780
 2.3120	12.4700
 2.3130	12.4660
 2.3140	12.4580
 2.3150	12.4490
 2.3160	12.4410
 2.3170	12.4300
 2.3180	12.4240
 2.3190	12.4240
 2.3200	12.4120
 2.3210	12.3980
 2.3220	12.3830
 2.3230	12.3620
 2.3240	12.3400
 2.3250	12.3170
 2.3260	12.2920
 2.3270	12.2590
 2.3280	12.2310
 2.3290	12.2080
 2.3300	12.1820
 2.3310	12.1530
 2.3320	12.1260
 2.3330	12.0990
 2.3340	12.0720
 2.3350	12.0440
 2.3360	12.0160
 2.3370	11.9890
 2.3380	11.9590
 2.3390	11.9250
 2.3400	11.8980
 2.3410	11.8690
 2.3420	11.8430
 2.3430	11.8240
 2.3440	11.8020
 2.3450	11.7790
 2.3460	11.7570
 2.3470	11.7310
 2.3480	11.7100
 2.3490	11.6890
 2.3500	11.6700
 2.3510	11.6610
 2.3520	11.6470
 2.3530	11.6300
 2.3540	11.6160
 2.3550	11.5970
 2.3560	11.5820
 2.3570	11.5690
 2.3580	11.5510
 2.3590	11.5310
 2.3600	11.5080
 2.3610	11.4840
 2.3620	11.4600
 2.3630	11.4420
 2.3640	11.4240
 2.3650	11.4050
 2.3660	11.3880
 2.3670	11.3670
 2.3680	11.3370
 2.3690	11.3050
 2.3700	11.2820
 2.3710	11.2630
 2.3720	11.2490
 2.3730	11.2450
 2.3740	11.2270
 2.3750	11.1960
 2.3760	11.1680
 2.3770	11.1260
 2.3780	11.0910
 2.3790	11.0750
 2.3800	11.0600
 2.3810	11.0540
 2.3820	11.0490
 2.3830	11.0270
 2.3840	11.0010
 2.3850	10.9780
 2.3860	10.9520
 2.3870	10.9360
 2.3880	10.9230
 2.3890	10.9050
 2.3900	10.8780
 2.3910	10.8550
 2.3920	10.8440
 2.3930	10.8240
 2.3940	10.8050
 2.3950	10.7890
 2.3960	10.7680
 2.3970	10.7330
 2.3980	10.7050
 2.3990	10.6880
 2.4000	10.6520
 2.4010	10.6280
 2.4020	10.6200
 2.4030	10.6010
 2.4040	10.5810
 2.4050	10.5590
 2.4060	10.5360
 2.4070	10.5060
 2.4080	10.4770
 2.4090	10.4610
 2.4100	10.4440
 2.4110	10.4320
 2.4120	10.4280
 2.4130	10.4250
 2.4140	10.4080
 2.4150	10.3870
 2.4160	10.3560
 2.4170	10.2970
 2.4180	10.2660
 2.4190	10.2440
 2.4200	10.2000
 2.4210	10.1870
 2.4220	10.1670
 2.4230	10.1350
 2.4240	10.1310
 2.4250	10.1170
 2.4260	10.0880
 2.4270	10.0670
 2.4280	10.0380
 2.4290	10.0000
 2.4300	 9.9720
 2.4310	 9.9610
 2.4320	 9.9470
 2.4330	 9.9340
 2.4340	 9.9250
 2.4350	 9.8850
 2.4360	 9.8440
 2.4370	 9.8220
 2.4380	 9.7960
 2.4390	 9.7990
 2.4400	 9.7890
 2.4410	 9.7530
 2.4420	 9.7310
 2.4430	 9.6800
 2.4440	 9.6390
 2.4450	 9.6360
 2.4460	 9.6260
 2.4470	 9.6150
 2.4480	 9.6020
 2.4490	 9.5890
 2.4500	 9.5620
 2.4510	 9.5270
 2.4520	 9.5020
 2.4530	 9.4500
 2.4540	 9.3980
 2.4550	 9.3790
 2.4560	 9.3630
 2.4570	 9.3580
 2.4580	 9.3610
 2.4590	 9.3390
 2.4600	 9.3080
 2.4610	 9.2830
 2.4620	 9.2460
 2.4630	 9.2190
 2.4640	 9.2160
 2.4650	 9.2050
 2.4660	 9.1890
 2.4670	 9.1880
 2.4680	 9.1770
 2.4690	 9.1450
 2.4700	 9.1230
 2.4710	 9.0860
 2.4720	 9.0580
 2.4730	 9.0340
 2.4740	 9.0230
 2.4750	 9.0300
 2.4760	 9.0440
 2.4770	 9.0880
 2.4780	 9.0890
 2.4790	 9.0650
 2.4800	 9.0330
 2.4810	 8.9510
 2.4820	 8.8800
 2.4830	 8.9010
 2.4840	 8.9250
 2.4850	 8.9440
 2.4860	 8.9820
 2.4870	 8.9640
 2.4880	 8.9240
 2.4890	 8.8800
 2.4900	 8.8200
 2.4910	 8.7750
 2.4920	 8.6970
 2.4930	 8.6830
 2.4940	 8.7710
 2.4950	 8.8230
 2.4960	 8.8970
 2.4970	 8.9400
 2.4980	 8.8900
 2.4990	 8.8480
 2.5000	 8.8300
