Name: Arctostaphylos glandulosa 1
Type: vegetation
Class: Shrub
Genus: Arctostaphylos
Species: glandulosa
Sample No.: VH241
Owner: UCSB
Wavelength Range: VSWIR
Origin: 37.0432; -119.304; WGS84
Collection Date: 11/2/2013
Description: Samples were collected as part of the HyspIRI Airborne Campaign. 48 individual plants were sampled in three times in 2013 - spring  summer  and fall. The name of the sample includes a 1  2  or 3 which references a different individual of the species. Samples were taken to JPL and processed within 48 hours of collection. The same leaves were processed in the Nicolet and then measured using the ASD.
Measurement: Bidirectional reflectance
First Column: X
Second Column: Y
X Units: Wavelength (micrometers)
Y Units: Reflectance (percentage)
First X Value: 0.35
Last X Value: 2.5
Number of X Values: 2151
Additional Information: vegetation.shrub.arctostaphylos.glandulosa.vswir.vh241.ucsb.asd.ancillary.txt

 0.3500	 5.6390
 0.3510	 5.6270
 0.3520	 5.5160
 0.3530	 5.4100
 0.3540	 5.3880
 0.3550	 5.4580
 0.3560	 5.4880
 0.3570	 5.4450
 0.3580	 5.3650
 0.3590	 5.3660
 0.3600	 5.3670
 0.3610	 5.3330
 0.3620	 5.3210
 0.3630	 5.2870
 0.3640	 5.2760
 0.3650	 5.3080
 0.3660	 5.2280
 0.3670	 5.2020
 0.3680	 5.2260
 0.3690	 5.1910
 0.3700	 5.1830
 0.3710	 5.1900
 0.3720	 5.2040
 0.3730	 5.2390
 0.3740	 5.2810
 0.3750	 5.2910
 0.3760	 5.2440
 0.3770	 5.2100
 0.3780	 5.2150
 0.3790	 5.2430
 0.3800	 5.2440
 0.3810	 5.2620
 0.3820	 5.2520
 0.3830	 5.2010
 0.3840	 5.1810
 0.3850	 5.2020
 0.3860	 5.2470
 0.3870	 5.2760
 0.3880	 5.2220
 0.3890	 5.2010
 0.3900	 5.2350
 0.3910	 5.2320
 0.3920	 5.2480
 0.3930	 5.2650
 0.3940	 5.2710
 0.3950	 5.2970
 0.3960	 5.3150
 0.3970	 5.3250
 0.3980	 5.3460
 0.3990	 5.3740
 0.4000	 5.3960
 0.4010	 5.4180
 0.4020	 5.4690
 0.4030	 5.4990
 0.4040	 5.5300
 0.4050	 5.5880
 0.4060	 5.6400
 0.4070	 5.6810
 0.4080	 5.7210
 0.4090	 5.7780
 0.4100	 5.8420
 0.4110	 5.9010
 0.4120	 5.9470
 0.4130	 5.9750
 0.4140	 6.0340
 0.4150	 6.1140
 0.4160	 6.1820
 0.4170	 6.2130
 0.4180	 6.2800
 0.4190	 6.3800
 0.4200	 6.4470
 0.4210	 6.4950
 0.4220	 6.5520
 0.4230	 6.6230
 0.4240	 6.6460
 0.4250	 6.6820
 0.4260	 6.7370
 0.4270	 6.7910
 0.4280	 6.8490
 0.4290	 6.9020
 0.4300	 6.9410
 0.4310	 6.9580
 0.4320	 7.0040
 0.4330	 7.0560
 0.4340	 7.0810
 0.4350	 7.0950
 0.4360	 7.1240
 0.4370	 7.1680
 0.4380	 7.2090
 0.4390	 7.2400
 0.4400	 7.2730
 0.4410	 7.3160
 0.4420	 7.3540
 0.4430	 7.3740
 0.4440	 7.3970
 0.4450	 7.4500
 0.4460	 7.4880
 0.4470	 7.5230
 0.4480	 7.5580
 0.4490	 7.5820
 0.4500	 7.6260
 0.4510	 7.6740
 0.4520	 7.7020
 0.4530	 7.7270
 0.4540	 7.7540
 0.4550	 7.7810
 0.4560	 7.8040
 0.4570	 7.8230
 0.4580	 7.8500
 0.4590	 7.8790
 0.4600	 7.8750
 0.4610	 7.8910
 0.4620	 7.9190
 0.4630	 7.9370
 0.4640	 7.9560
 0.4650	 7.9640
 0.4660	 7.9670
 0.4670	 7.9810
 0.4680	 7.9940
 0.4690	 8.0060
 0.4700	 8.0200
 0.4710	 8.0270
 0.4720	 8.0440
 0.4730	 8.0620
 0.4740	 8.0630
 0.4750	 8.0720
 0.4760	 8.0800
 0.4770	 8.0860
 0.4780	 8.1090
 0.4790	 8.1290
 0.4800	 8.1460
 0.4810	 8.1630
 0.4820	 8.1770
 0.4830	 8.1870
 0.4840	 8.1970
 0.4850	 8.2140
 0.4860	 8.2270
 0.4870	 8.2440
 0.4880	 8.2730
 0.4890	 8.3070
 0.4900	 8.3400
 0.4910	 8.3750
 0.4920	 8.4140
 0.4930	 8.4550
 0.4940	 8.5120
 0.4950	 8.5810
 0.4960	 8.6300
 0.4970	 8.6930
 0.4980	 8.7710
 0.4990	 8.8550
 0.5000	 8.9550
 0.5010	 9.0600
 0.5020	 9.1680
 0.5030	 9.2880
 0.5040	 9.4130
 0.5050	 9.5460
 0.5060	 9.6920
 0.5070	 9.8680
 0.5080	10.0480
 0.5090	10.2330
 0.5100	10.4340
 0.5110	10.6510
 0.5120	10.8790
 0.5130	11.1190
 0.5140	11.3800
 0.5150	11.6410
 0.5160	11.9080
 0.5170	12.1890
 0.5180	12.4780
 0.5190	12.7690
 0.5200	13.0600
 0.5210	13.3510
 0.5220	13.6320
 0.5230	13.9110
 0.5240	14.1890
 0.5250	14.4440
 0.5260	14.6830
 0.5270	14.9110
 0.5280	15.1310
 0.5290	15.3290
 0.5300	15.5110
 0.5310	15.6790
 0.5320	15.8300
 0.5330	15.9690
 0.5340	16.0970
 0.5350	16.2160
 0.5360	16.3300
 0.5370	16.4220
 0.5380	16.4980
 0.5390	16.5740
 0.5400	16.6410
 0.5410	16.7010
 0.5420	16.7560
 0.5430	16.8190
 0.5440	16.8790
 0.5450	16.9360
 0.5460	16.9940
 0.5470	17.0660
 0.5480	17.1340
 0.5490	17.1880
 0.5500	17.2340
 0.5510	17.2730
 0.5520	17.3030
 0.5530	17.3220
 0.5540	17.3310
 0.5550	17.3250
 0.5560	17.3020
 0.5570	17.2600
 0.5580	17.2040
 0.5590	17.1330
 0.5600	17.0480
 0.5610	16.9530
 0.5620	16.8500
 0.5630	16.7360
 0.5640	16.6090
 0.5650	16.4720
 0.5660	16.3320
 0.5670	16.1880
 0.5680	16.0360
 0.5690	15.8810
 0.5700	15.7230
 0.5710	15.5610
 0.5720	15.4050
 0.5730	15.2540
 0.5740	15.1100
 0.5750	14.9770
 0.5760	14.8460
 0.5770	14.7170
 0.5780	14.5930
 0.5790	14.4830
 0.5800	14.3740
 0.5810	14.2720
 0.5820	14.1840
 0.5830	14.1050
 0.5840	14.0310
 0.5850	13.9590
 0.5860	13.8850
 0.5870	13.8130
 0.5880	13.7460
 0.5890	13.6830
 0.5900	13.6220
 0.5910	13.5680
 0.5920	13.5200
 0.5930	13.4720
 0.5940	13.4330
 0.5950	13.3980
 0.5960	13.3640
 0.5970	13.3310
 0.5980	13.2950
 0.5990	13.2570
 0.6000	13.2210
 0.6010	13.1810
 0.6020	13.1380
 0.6030	13.0930
 0.6040	13.0430
 0.6050	12.9860
 0.6060	12.9230
 0.6070	12.8530
 0.6080	12.7790
 0.6090	12.7000
 0.6100	12.6130
 0.6110	12.5190
 0.6120	12.4420
 0.6130	12.3700
 0.6140	12.2940
 0.6150	12.2140
 0.6160	12.1400
 0.6170	12.0720
 0.6180	12.0060
 0.6190	11.9450
 0.6200	11.8910
 0.6210	11.8440
 0.6220	11.8040
 0.6230	11.7700
 0.6240	11.7420
 0.6250	11.7190
 0.6260	11.7060
 0.6270	11.6950
 0.6280	11.6860
 0.6290	11.6830
 0.6300	11.6740
 0.6310	11.6630
 0.6320	11.6500
 0.6330	11.6270
 0.6340	11.5920
 0.6350	11.5450
 0.6360	11.4830
 0.6370	11.4060
 0.6380	11.3160
 0.6390	11.2140
 0.6400	11.1000
 0.6410	10.9770
 0.6420	10.8500
 0.6430	10.7230
 0.6440	10.5910
 0.6450	10.4620
 0.6460	10.3400
 0.6470	10.2250
 0.6480	10.1270
 0.6490	10.0390
 0.6500	 9.9620
 0.6510	 9.8970
 0.6520	 9.8480
 0.6530	 9.8020
 0.6540	 9.7540
 0.6550	 9.7110
 0.6560	 9.6620
 0.6570	 9.6040
 0.6580	 9.5390
 0.6590	 9.4670
 0.6600	 9.3880
 0.6610	 9.3050
 0.6620	 9.2210
 0.6630	 9.1350
 0.6640	 9.0500
 0.6650	 8.9740
 0.6660	 8.9110
 0.6670	 8.8520
 0.6680	 8.7990
 0.6690	 8.7560
 0.6700	 8.7260
 0.6710	 8.7030
 0.6720	 8.6890
 0.6730	 8.6840
 0.6740	 8.6840
 0.6750	 8.6920
 0.6760	 8.7090
 0.6770	 8.7290
 0.6780	 8.7580
 0.6790	 8.7980
 0.6800	 8.8470
 0.6810	 8.9080
 0.6820	 8.9860
 0.6830	 9.0850
 0.6840	 9.2080
 0.6850	 9.3650
 0.6860	 9.5590
 0.6870	 9.7950
 0.6880	10.0930
 0.6890	10.4520
 0.6900	10.8810
 0.6910	11.3910
 0.6920	11.9810
 0.6930	12.6560
 0.6940	13.4160
 0.6950	14.2490
 0.6960	15.1570
 0.6970	16.1300
 0.6980	17.1580
 0.6990	18.2320
 0.7000	19.3440
 0.7010	20.4900
 0.7020	21.6630
 0.7030	22.8490
 0.7040	24.0440
 0.7050	25.2410
 0.7060	26.4330
 0.7070	27.6170
 0.7080	28.7930
 0.7090	29.9640
 0.7100	31.1340
 0.7110	32.2890
 0.7120	33.4290
 0.7130	34.5610
 0.7140	35.6840
 0.7150	36.7890
 0.7160	37.8740
 0.7170	38.9500
 0.7180	40.0020
 0.7190	41.0290
 0.7200	42.0370
 0.7210	43.0330
 0.7220	43.9970
 0.7230	44.9280
 0.7240	45.8430
 0.7250	46.7130
 0.7260	47.5500
 0.7270	48.3620
 0.7280	49.1390
 0.7290	49.8770
 0.7300	50.5790
 0.7310	51.2450
 0.7320	51.8790
 0.7330	52.4790
 0.7340	53.0460
 0.7350	53.5910
 0.7360	54.0990
 0.7370	54.5780
 0.7380	55.0330
 0.7390	55.4470
 0.7400	55.8490
 0.7410	56.2290
 0.7420	56.5690
 0.7430	56.8900
 0.7440	57.1920
 0.7450	57.4740
 0.7460	57.7310
 0.7470	57.9780
 0.7480	58.2050
 0.7490	58.4040
 0.7500	58.5780
 0.7510	58.7490
 0.7520	58.9120
 0.7530	59.0540
 0.7540	59.1770
 0.7550	59.2940
 0.7560	59.4070
 0.7570	59.5070
 0.7580	59.5930
 0.7590	59.6720
 0.7600	59.7460
 0.7610	59.8120
 0.7620	59.8750
 0.7630	59.9330
 0.7640	59.9840
 0.7650	60.0400
 0.7660	60.0830
 0.7670	60.1130
 0.7680	60.1420
 0.7690	60.1810
 0.7700	60.2140
 0.7710	60.2380
 0.7720	60.2640
 0.7730	60.2900
 0.7740	60.3120
 0.7750	60.3280
 0.7760	60.3510
 0.7770	60.3850
 0.7780	60.4110
 0.7790	60.4110
 0.7800	60.4390
 0.7810	60.4710
 0.7820	60.4930
 0.7830	60.5010
 0.7840	60.5270
 0.7850	60.5510
 0.7860	60.5640
 0.7870	60.5940
 0.7880	60.6070
 0.7890	60.6170
 0.7900	60.6460
 0.7910	60.6710
 0.7920	60.6890
 0.7930	60.7050
 0.7940	60.7280
 0.7950	60.7470
 0.7960	60.7710
 0.7970	60.7950
 0.7980	60.8010
 0.7990	60.8300
 0.8000	60.8590
 0.8010	60.8690
 0.8020	60.8870
 0.8030	60.9070
 0.8040	60.9290
 0.8050	60.9560
 0.8060	60.9680
 0.8070	60.9800
 0.8080	61.0040
 0.8090	61.0400
 0.8100	61.0560
 0.8110	61.0740
 0.8120	61.1060
 0.8130	61.1320
 0.8140	61.1480
 0.8150	61.1590
 0.8160	61.1740
 0.8170	61.2040
 0.8180	61.2330
 0.8190	61.2550
 0.8200	61.2740
 0.8210	61.3040
 0.8220	61.3320
 0.8230	61.3520
 0.8240	61.3690
 0.8250	61.3860
 0.8260	61.4030
 0.8270	61.4220
 0.8280	61.4450
 0.8290	61.4540
 0.8300	61.4660
 0.8310	61.4910
 0.8320	61.5000
 0.8330	61.5150
 0.8340	61.5360
 0.8350	61.5590
 0.8360	61.5780
 0.8370	61.6050
 0.8380	61.6340
 0.8390	61.6480
 0.8400	61.6760
 0.8410	61.7060
 0.8420	61.7300
 0.8430	61.7560
 0.8440	61.7690
 0.8450	61.7850
 0.8460	61.8160
 0.8470	61.8470
 0.8480	61.8690
 0.8490	61.8880
 0.8500	61.9120
 0.8510	61.9330
 0.8520	61.9540
 0.8530	61.9760
 0.8540	62.0000
 0.8550	62.0300
 0.8560	62.0480
 0.8570	62.0540
 0.8580	62.0660
 0.8590	62.0830
 0.8600	62.1050
 0.8610	62.1260
 0.8620	62.1340
 0.8630	62.1550
 0.8640	62.1720
 0.8650	62.1730
 0.8660	62.1850
 0.8670	62.2070
 0.8680	62.2320
 0.8690	62.2490
 0.8700	62.2630
 0.8710	62.2660
 0.8720	62.2700
 0.8730	62.2930
 0.8740	62.3030
 0.8750	62.3130
 0.8760	62.3230
 0.8770	62.3230
 0.8780	62.3280
 0.8790	62.3340
 0.8800	62.3370
 0.8810	62.3360
 0.8820	62.3400
 0.8830	62.3480
 0.8840	62.3550
 0.8850	62.3460
 0.8860	62.3530
 0.8870	62.3650
 0.8880	62.3660
 0.8890	62.3720
 0.8900	62.3740
 0.8910	62.3750
 0.8920	62.3800
 0.8930	62.3610
 0.8940	62.3390
 0.8950	62.3320
 0.8960	62.3480
 0.8970	62.3480
 0.8980	62.3390
 0.8990	62.3370
 0.9000	62.3470
 0.9010	62.3290
 0.9020	62.3170
 0.9030	62.3230
 0.9040	62.3190
 0.9050	62.3110
 0.9060	62.2990
 0.9070	62.2870
 0.9080	62.2880
 0.9090	62.2790
 0.9100	62.2730
 0.9110	62.2780
 0.9120	62.2690
 0.9130	62.2430
 0.9140	62.2250
 0.9150	62.2340
 0.9160	62.2280
 0.9170	62.2250
 0.9180	62.2200
 0.9190	62.2020
 0.9200	62.1820
 0.9210	62.1600
 0.9220	62.1420
 0.9230	62.1310
 0.9240	62.1090
 0.9250	62.0810
 0.9260	62.0560
 0.9270	62.0450
 0.9280	62.0330
 0.9290	62.0020
 0.9300	61.9590
 0.9310	61.9250
 0.9320	61.8920
 0.9330	61.8550
 0.9340	61.8140
 0.9350	61.7700
 0.9360	61.7540
 0.9370	61.7160
 0.9380	61.6490
 0.9390	61.6180
 0.9400	61.5840
 0.9410	61.5330
 0.9420	61.4680
 0.9430	61.4110
 0.9440	61.3600
 0.9450	61.3060
 0.9460	61.2390
 0.9470	61.1430
 0.9480	61.0550
 0.9490	60.9660
 0.9500	60.8620
 0.9510	60.7510
 0.9520	60.6400
 0.9530	60.5230
 0.9540	60.3970
 0.9550	60.2940
 0.9560	60.1850
 0.9570	60.0680
 0.9580	59.9540
 0.9590	59.8570
 0.9600	59.7720
 0.9610	59.6880
 0.9620	59.6060
 0.9630	59.5680
 0.9640	59.5270
 0.9650	59.4840
 0.9660	59.4550
 0.9670	59.4320
 0.9680	59.4080
 0.9690	59.3810
 0.9700	59.3570
 0.9710	59.3560
 0.9720	59.3460
 0.9730	59.3320
 0.9740	59.3370
 0.9750	59.3520
 0.9760	59.3670
 0.9770	59.3730
 0.9780	59.3700
 0.9790	59.3800
 0.9800	59.4110
 0.9810	59.4450
 0.9820	59.4570
 0.9830	59.4960
 0.9840	59.5220
 0.9850	59.5530
 0.9860	59.6160
 0.9870	59.6430
 0.9880	59.6830
 0.9890	59.7330
 0.9900	59.7690
 0.9910	59.8180
 0.9920	59.8750
 0.9930	59.9310
 0.9940	59.9820
 0.9950	60.0550
 0.9960	60.1190
 0.9970	60.1740
 0.9980	60.2290
 0.9990	60.2700
 1.0000	60.5090
 1.0010	60.8850
 1.0020	61.1370
 1.0030	61.1970
 1.0040	61.2580
 1.0050	61.3200
 1.0060	61.3770
 1.0070	61.4300
 1.0080	61.4930
 1.0090	61.5650
 1.0100	61.6290
 1.0110	61.6950
 1.0120	61.7590
 1.0130	61.8150
 1.0140	61.8760
 1.0150	61.9360
 1.0160	62.0040
 1.0170	62.0690
 1.0180	62.1310
 1.0190	62.1910
 1.0200	62.2510
 1.0210	62.3130
 1.0220	62.3730
 1.0230	62.4300
 1.0240	62.4830
 1.0250	62.5360
 1.0260	62.5840
 1.0270	62.6350
 1.0280	62.6890
 1.0290	62.7400
 1.0300	62.7900
 1.0310	62.8410
 1.0320	62.8910
 1.0330	62.9430
 1.0340	62.9980
 1.0350	63.0520
 1.0360	63.1000
 1.0370	63.1460
 1.0380	63.1910
 1.0390	63.2330
 1.0400	63.2760
 1.0410	63.3200
 1.0420	63.3610
 1.0430	63.3980
 1.0440	63.4370
 1.0450	63.4820
 1.0460	63.5170
 1.0470	63.5420
 1.0480	63.5760
 1.0490	63.6090
 1.0500	63.6390
 1.0510	63.6700
 1.0520	63.7070
 1.0530	63.7360
 1.0540	63.7570
 1.0550	63.7820
 1.0560	63.8090
 1.0570	63.8340
 1.0580	63.8570
 1.0590	63.8800
 1.0600	63.9060
 1.0610	63.9280
 1.0620	63.9460
 1.0630	63.9660
 1.0640	63.9860
 1.0650	64.0040
 1.0660	64.0240
 1.0670	64.0410
 1.0680	64.0560
 1.0690	64.0680
 1.0700	64.0790
 1.0710	64.0880
 1.0720	64.0970
 1.0730	64.1050
 1.0740	64.1140
 1.0750	64.1270
 1.0760	64.1320
 1.0770	64.1330
 1.0780	64.1360
 1.0790	64.1360
 1.0800	64.1370
 1.0810	64.1430
 1.0820	64.1420
 1.0830	64.1360
 1.0840	64.1300
 1.0850	64.1220
 1.0860	64.1150
 1.0870	64.1060
 1.0880	64.0960
 1.0890	64.0860
 1.0900	64.0770
 1.0910	64.0660
 1.0920	64.0560
 1.0930	64.0420
 1.0940	64.0240
 1.0950	64.0040
 1.0960	63.9820
 1.0970	63.9600
 1.0980	63.9360
 1.0990	63.9130
 1.1000	63.8900
 1.1010	63.8670
 1.1020	63.8440
 1.1030	63.8210
 1.1040	63.7930
 1.1050	63.7640
 1.1060	63.7330
 1.1070	63.6970
 1.1080	63.6650
 1.1090	63.6330
 1.1100	63.6000
 1.1110	63.5710
 1.1120	63.5330
 1.1130	63.4930
 1.1140	63.4510
 1.1150	63.4060
 1.1160	63.3580
 1.1170	63.3130
 1.1180	63.2590
 1.1190	63.2030
 1.1200	63.1380
 1.1210	63.0670
 1.1220	62.9890
 1.1230	62.9030
 1.1240	62.8060
 1.1250	62.7000
 1.1260	62.5900
 1.1270	62.4610
 1.1280	62.3200
 1.1290	62.1660
 1.1300	61.9990
 1.1310	61.8160
 1.1320	61.6210
 1.1330	61.4120
 1.1340	61.1860
 1.1350	60.9490
 1.1360	60.6990
 1.1370	60.4350
 1.1380	60.1610
 1.1390	59.8830
 1.1400	59.5960
 1.1410	59.3040
 1.1420	59.0040
 1.1430	58.7040
 1.1440	58.4090
 1.1450	58.1080
 1.1460	57.8240
 1.1470	57.5450
 1.1480	57.2780
 1.1490	57.0190
 1.1500	56.7790
 1.1510	56.5490
 1.1520	56.3370
 1.1530	56.1410
 1.1540	55.9590
 1.1550	55.7930
 1.1560	55.6410
 1.1570	55.5000
 1.1580	55.3780
 1.1590	55.2710
 1.1600	55.1750
 1.1610	55.0890
 1.1620	55.0130
 1.1630	54.9420
 1.1640	54.8770
 1.1650	54.8200
 1.1660	54.7740
 1.1670	54.7290
 1.1680	54.6910
 1.1690	54.6550
 1.1700	54.6250
 1.1710	54.5920
 1.1720	54.5610
 1.1730	54.5290
 1.1740	54.4950
 1.1750	54.4640
 1.1760	54.4320
 1.1770	54.3990
 1.1780	54.3640
 1.1790	54.3260
 1.1800	54.2850
 1.1810	54.2450
 1.1820	54.2040
 1.1830	54.1610
 1.1840	54.1180
 1.1850	54.0770
 1.1860	54.0370
 1.1870	53.9970
 1.1880	53.9590
 1.1890	53.9200
 1.1900	53.8850
 1.1910	53.8510
 1.1920	53.8200
 1.1930	53.7900
 1.1940	53.7630
 1.1950	53.7380
 1.1960	53.7140
 1.1970	53.6960
 1.1980	53.6830
 1.1990	53.6780
 1.2000	53.6780
 1.2010	53.6860
 1.2020	53.7020
 1.2030	53.7220
 1.2040	53.7480
 1.2050	53.7820
 1.2060	53.8210
 1.2070	53.8670
 1.2080	53.9180
 1.2090	53.9720
 1.2100	54.0310
 1.2110	54.0960
 1.2120	54.1680
 1.2130	54.2440
 1.2140	54.3270
 1.2150	54.4110
 1.2160	54.5000
 1.2170	54.5890
 1.2180	54.6780
 1.2190	54.7710
 1.2200	54.8640
 1.2210	54.9560
 1.2220	55.0510
 1.2230	55.1470
 1.2240	55.2420
 1.2250	55.3350
 1.2260	55.4250
 1.2270	55.5150
 1.2280	55.6030
 1.2290	55.6890
 1.2300	55.7760
 1.2310	55.8590
 1.2320	55.9400
 1.2330	56.0210
 1.2340	56.0970
 1.2350	56.1700
 1.2360	56.2400
 1.2370	56.3070
 1.2380	56.3720
 1.2390	56.4330
 1.2400	56.4930
 1.2410	56.5540
 1.2420	56.6110
 1.2430	56.6690
 1.2440	56.7250
 1.2450	56.7750
 1.2460	56.8250
 1.2470	56.8740
 1.2480	56.9200
 1.2490	56.9670
 1.2500	57.0110
 1.2510	57.0530
 1.2520	57.0940
 1.2530	57.1320
 1.2540	57.1690
 1.2550	57.2000
 1.2560	57.2280
 1.2570	57.2560
 1.2580	57.2810
 1.2590	57.3060
 1.2600	57.3340
 1.2610	57.3560
 1.2620	57.3740
 1.2630	57.3890
 1.2640	57.4030
 1.2650	57.4150
 1.2660	57.4280
 1.2670	57.4410
 1.2680	57.4510
 1.2690	57.4590
 1.2700	57.4630
 1.2710	57.4610
 1.2720	57.4560
 1.2730	57.4470
 1.2740	57.4370
 1.2750	57.4290
 1.2760	57.4180
 1.2770	57.4040
 1.2780	57.3880
 1.2790	57.3710
 1.2800	57.3540
 1.2810	57.3360
 1.2820	57.3110
 1.2830	57.2800
 1.2840	57.2460
 1.2850	57.2100
 1.2860	57.1730
 1.2870	57.1310
 1.2880	57.0880
 1.2890	57.0410
 1.2900	56.9870
 1.2910	56.9270
 1.2920	56.8640
 1.2930	56.7960
 1.2940	56.7230
 1.2950	56.6490
 1.2960	56.5720
 1.2970	56.4910
 1.2980	56.4070
 1.2990	56.3170
 1.3000	56.2220
 1.3010	56.1220
 1.3020	56.0160
 1.3030	55.9060
 1.3040	55.7880
 1.3050	55.6650
 1.3060	55.5420
 1.3070	55.4120
 1.3080	55.2800
 1.3090	55.1440
 1.3100	54.9980
 1.3110	54.8470
 1.3120	54.6910
 1.3130	54.5310
 1.3140	54.3640
 1.3150	54.1910
 1.3160	54.0140
 1.3170	53.8330
 1.3180	53.6450
 1.3190	53.4540
 1.3200	53.2580
 1.3210	53.0550
 1.3220	52.8460
 1.3230	52.6340
 1.3240	52.4180
 1.3250	52.2020
 1.3260	51.9830
 1.3270	51.7600
 1.3280	51.5340
 1.3290	51.3020
 1.3300	51.0690
 1.3310	50.8350
 1.3320	50.5980
 1.3330	50.3610
 1.3340	50.1220
 1.3350	49.8810
 1.3360	49.6430
 1.3370	49.4040
 1.3380	49.1670
 1.3390	48.9320
 1.3400	48.6960
 1.3410	48.4650
 1.3420	48.2380
 1.3430	48.0120
 1.3440	47.7910
 1.3450	47.5730
 1.3460	47.3570
 1.3470	47.1460
 1.3480	46.9410
 1.3490	46.7370
 1.3500	46.5380
 1.3510	46.3400
 1.3520	46.1430
 1.3530	45.9490
 1.3540	45.7540
 1.3550	45.5610
 1.3560	45.3660
 1.3570	45.1670
 1.3580	44.9690
 1.3590	44.7670
 1.3600	44.5600
 1.3610	44.3480
 1.3620	44.1270
 1.3630	43.9000
 1.3640	43.6650
 1.3650	43.4200
 1.3660	43.1680
 1.3670	42.9040
 1.3680	42.6260
 1.3690	42.3370
 1.3700	42.0300
 1.3710	41.7070
 1.3720	41.3710
 1.3730	41.0160
 1.3740	40.6440
 1.3750	40.2560
 1.3760	39.8410
 1.3770	39.4030
 1.3780	38.9390
 1.3790	38.4510
 1.3800	37.9410
 1.3810	37.4040
 1.3820	36.8500
 1.3830	36.2730
 1.3840	35.6840
 1.3850	35.0770
 1.3860	34.4620
 1.3870	33.8300
 1.3880	33.1990
 1.3890	32.5580
 1.3900	31.9140
 1.3910	31.2790
 1.3920	30.6420
 1.3930	30.0080
 1.3940	29.3850
 1.3950	28.7630
 1.3960	28.1530
 1.3970	27.5600
 1.3980	26.9800
 1.3990	26.4250
 1.4000	25.8900
 1.4010	25.3710
 1.4020	24.8770
 1.4030	24.4020
 1.4040	23.9480
 1.4050	23.5200
 1.4060	23.1130
 1.4070	22.7300
 1.4080	22.3700
 1.4090	22.0300
 1.4100	21.7130
 1.4110	21.4170
 1.4120	21.1410
 1.4130	20.8850
 1.4140	20.6480
 1.4150	20.4310
 1.4160	20.2300
 1.4170	20.0440
 1.4180	19.8730
 1.4190	19.7140
 1.4200	19.5690
 1.4210	19.4370
 1.4220	19.3160
 1.4230	19.2070
 1.4240	19.1080
 1.4250	19.0170
 1.4260	18.9360
 1.4270	18.8620
 1.4280	18.7980
 1.4290	18.7390
 1.4300	18.6880
 1.4310	18.6440
 1.4320	18.6060
 1.4330	18.5730
 1.4340	18.5480
 1.4350	18.5250
 1.4360	18.5070
 1.4370	18.4930
 1.4380	18.4840
 1.4390	18.4800
 1.4400	18.4800
 1.4410	18.4820
 1.4420	18.4880
 1.4430	18.4960
 1.4440	18.5060
 1.4450	18.5190
 1.4460	18.5340
 1.4470	18.5500
 1.4480	18.5680
 1.4490	18.5880
 1.4500	18.6090
 1.4510	18.6320
 1.4520	18.6560
 1.4530	18.6820
 1.4540	18.7090
 1.4550	18.7380
 1.4560	18.7690
 1.4570	18.8030
 1.4580	18.8400
 1.4590	18.8800
 1.4600	18.9240
 1.4610	18.9720
 1.4620	19.0250
 1.4630	19.0810
 1.4640	19.1420
 1.4650	19.2070
 1.4660	19.2770
 1.4670	19.3510
 1.4680	19.4310
 1.4690	19.5140
 1.4700	19.6010
 1.4710	19.6940
 1.4720	19.7900
 1.4730	19.8900
 1.4740	19.9950
 1.4750	20.1010
 1.4760	20.2110
 1.4770	20.3240
 1.4780	20.4390
 1.4790	20.5580
 1.4800	20.6780
 1.4810	20.7980
 1.4820	20.9200
 1.4830	21.0430
 1.4840	21.1700
 1.4850	21.2970
 1.4860	21.4240
 1.4870	21.5550
 1.4880	21.6840
 1.4890	21.8140
 1.4900	21.9460
 1.4910	22.0800
 1.4920	22.2140
 1.4930	22.3500
 1.4940	22.4850
 1.4950	22.6200
 1.4960	22.7560
 1.4970	22.8910
 1.4980	23.0270
 1.4990	23.1620
 1.5000	23.2980
 1.5010	23.4330
 1.5020	23.5690
 1.5030	23.7070
 1.5040	23.8430
 1.5050	23.9800
 1.5060	24.1160
 1.5070	24.2520
 1.5080	24.3880
 1.5090	24.5240
 1.5100	24.6590
 1.5110	24.7920
 1.5120	24.9260
 1.5130	25.0580
 1.5140	25.1880
 1.5150	25.3190
 1.5160	25.4490
 1.5170	25.5800
 1.5180	25.7090
 1.5190	25.8370
 1.5200	25.9650
 1.5210	26.0900
 1.5220	26.2150
 1.5230	26.3410
 1.5240	26.4650
 1.5250	26.5880
 1.5260	26.7110
 1.5270	26.8310
 1.5280	26.9510
 1.5290	27.0700
 1.5300	27.1860
 1.5310	27.3030
 1.5320	27.4190
 1.5330	27.5330
 1.5340	27.6480
 1.5350	27.7620
 1.5360	27.8750
 1.5370	27.9880
 1.5380	28.1010
 1.5390	28.2130
 1.5400	28.3250
 1.5410	28.4370
 1.5420	28.5460
 1.5430	28.6550
 1.5440	28.7630
 1.5450	28.8700
 1.5460	28.9770
 1.5470	29.0840
 1.5480	29.1880
 1.5490	29.2920
 1.5500	29.3950
 1.5510	29.4970
 1.5520	29.5990
 1.5530	29.7000
 1.5540	29.8010
 1.5550	29.9020
 1.5560	30.0000
 1.5570	30.0980
 1.5580	30.1950
 1.5590	30.2910
 1.5600	30.3880
 1.5610	30.4830
 1.5620	30.5780
 1.5630	30.6730
 1.5640	30.7650
 1.5650	30.8580
 1.5660	30.9490
 1.5670	31.0390
 1.5680	31.1300
 1.5690	31.2220
 1.5700	31.3120
 1.5710	31.4020
 1.5720	31.4900
 1.5730	31.5770
 1.5740	31.6640
 1.5750	31.7500
 1.5760	31.8370
 1.5770	31.9230
 1.5780	32.0070
 1.5790	32.0910
 1.5800	32.1740
 1.5810	32.2570
 1.5820	32.3410
 1.5830	32.4250
 1.5840	32.5090
 1.5850	32.5920
 1.5860	32.6730
 1.5870	32.7570
 1.5880	32.8400
 1.5890	32.9240
 1.5900	33.0070
 1.5910	33.0890
 1.5920	33.1710
 1.5930	33.2520
 1.5940	33.3330
 1.5950	33.4140
 1.5960	33.4940
 1.5970	33.5750
 1.5980	33.6540
 1.5990	33.7340
 1.6000	33.8140
 1.6010	33.8910
 1.6020	33.9700
 1.6030	34.0460
 1.6040	34.1230
 1.6050	34.2000
 1.6060	34.2760
 1.6070	34.3510
 1.6080	34.4260
 1.6090	34.4970
 1.6100	34.5680
 1.6110	34.6380
 1.6120	34.7070
 1.6130	34.7760
 1.6140	34.8420
 1.6150	34.9080
 1.6160	34.9730
 1.6170	35.0350
 1.6180	35.0980
 1.6190	35.1590
 1.6200	35.2170
 1.6210	35.2740
 1.6220	35.3280
 1.6230	35.3790
 1.6240	35.4300
 1.6250	35.4810
 1.6260	35.5300
 1.6270	35.5780
 1.6280	35.6230
 1.6290	35.6680
 1.6300	35.7110
 1.6310	35.7570
 1.6320	35.8040
 1.6330	35.8490
 1.6340	35.8970
 1.6350	35.9430
 1.6360	35.9880
 1.6370	36.0330
 1.6380	36.0790
 1.6390	36.1200
 1.6400	36.1620
 1.6410	36.1990
 1.6420	36.2340
 1.6430	36.2660
 1.6440	36.2950
 1.6450	36.3190
 1.6460	36.3380
 1.6470	36.3550
 1.6480	36.3700
 1.6490	36.3810
 1.6500	36.3900
 1.6510	36.3960
 1.6520	36.4000
 1.6530	36.4010
 1.6540	36.3990
 1.6550	36.3930
 1.6560	36.3840
 1.6570	36.3720
 1.6580	36.3560
 1.6590	36.3400
 1.6600	36.3210
 1.6610	36.3010
 1.6620	36.2810
 1.6630	36.2600
 1.6640	36.2370
 1.6650	36.2170
 1.6660	36.1940
 1.6670	36.1700
 1.6680	36.1470
 1.6690	36.1220
 1.6700	36.0980
 1.6710	36.0750
 1.6720	36.0510
 1.6730	36.0250
 1.6740	35.9950
 1.6750	35.9630
 1.6760	35.9270
 1.6770	35.8880
 1.6780	35.8450
 1.6790	35.8000
 1.6800	35.7540
 1.6810	35.7030
 1.6820	35.6470
 1.6830	35.5860
 1.6840	35.5160
 1.6850	35.4420
 1.6860	35.3630
 1.6870	35.2790
 1.6880	35.1930
 1.6890	35.0990
 1.6900	35.0030
 1.6910	34.9020
 1.6920	34.8020
 1.6930	34.7000
 1.6940	34.5960
 1.6950	34.4900
 1.6960	34.3850
 1.6970	34.2780
 1.6980	34.1720
 1.6990	34.0700
 1.7000	33.9640
 1.7010	33.8560
 1.7020	33.7440
 1.7030	33.6270
 1.7040	33.5110
 1.7050	33.3930
 1.7060	33.2730
 1.7070	33.1490
 1.7080	33.0290
 1.7090	32.9070
 1.7100	32.7920
 1.7110	32.6800
 1.7120	32.5770
 1.7130	32.4790
 1.7140	32.3910
 1.7150	32.3100
 1.7160	32.2360
 1.7170	32.1700
 1.7180	32.1100
 1.7190	32.0560
 1.7200	32.0070
 1.7210	31.9640
 1.7220	31.9230
 1.7230	31.8870
 1.7240	31.8540
 1.7250	31.8250
 1.7260	31.8010
 1.7270	31.7810
 1.7280	31.7650
 1.7290	31.7500
 1.7300	31.7400
 1.7310	31.7320
 1.7320	31.7300
 1.7330	31.7230
 1.7340	31.7180
 1.7350	31.7060
 1.7360	31.6930
 1.7370	31.6720
 1.7380	31.6470
 1.7390	31.6150
 1.7400	31.5750
 1.7410	31.5280
 1.7420	31.4720
 1.7430	31.4150
 1.7440	31.3540
 1.7450	31.2860
 1.7460	31.2120
 1.7470	31.1380
 1.7480	31.0570
 1.7490	30.9800
 1.7500	30.9040
 1.7510	30.8300
 1.7520	30.7540
 1.7530	30.6820
 1.7540	30.6120
 1.7550	30.5450
 1.7560	30.4820
 1.7570	30.4240
 1.7580	30.3690
 1.7590	30.3180
 1.7600	30.2700
 1.7610	30.2260
 1.7620	30.1840
 1.7630	30.1440
 1.7640	30.1070
 1.7650	30.0740
 1.7660	30.0400
 1.7670	30.0090
 1.7680	29.9780
 1.7690	29.9460
 1.7700	29.9140
 1.7710	29.8820
 1.7720	29.8520
 1.7730	29.8230
 1.7740	29.7940
 1.7750	29.7670
 1.7760	29.7400
 1.7770	29.7120
 1.7780	29.6900
 1.7790	29.6710
 1.7800	29.6570
 1.7810	29.6480
 1.7820	29.6420
 1.7830	29.6390
 1.7840	29.6370
 1.7850	29.6380
 1.7860	29.6430
 1.7870	29.6500
 1.7880	29.6610
 1.7890	29.6770
 1.7900	29.6900
 1.7910	29.7030
 1.7920	29.7140
 1.7930	29.7280
 1.7940	29.7440
 1.7950	29.7600
 1.7960	29.7770
 1.7970	29.7920
 1.7980	29.8070
 1.7990	29.8220
 1.8000	29.8370
 1.8010	29.8530
 1.8020	29.8700
 1.8030	29.8860
 1.8040	29.9020
 1.8050	29.9170
 1.8060	29.9310
 1.8070	29.9450
 1.8080	29.9580
 1.8090	29.9720
 1.8100	29.9850
 1.8110	29.9960
 1.8120	30.0090
 1.8130	30.0200
 1.8140	30.0290
 1.8150	30.0380
 1.8160	30.0470
 1.8170	30.0540
 1.8180	30.0600
 1.8190	30.0610
 1.8200	30.0640
 1.8210	30.0690
 1.8220	30.0710
 1.8230	30.0720
 1.8240	30.0720
 1.8250	30.0710
 1.8260	30.0670
 1.8270	30.0620
 1.8280	30.0540
 1.8290	30.0400
 1.8300	30.0610
 1.8310	30.1330
 1.8320	30.1470
 1.8330	30.1180
 1.8340	30.0820
 1.8350	30.0510
 1.8360	30.0120
 1.8370	29.9690
 1.8380	29.9240
 1.8390	29.8690
 1.8400	29.8050
 1.8410	29.7350
 1.8420	29.6600
 1.8430	29.5770
 1.8440	29.4860
 1.8450	29.3890
 1.8460	29.2860
 1.8470	29.1710
 1.8480	29.0410
 1.8490	28.9020
 1.8500	28.7540
 1.8510	28.5930
 1.8520	28.4220
 1.8530	28.2430
 1.8540	28.0500
 1.8550	27.8410
 1.8560	27.6190
 1.8570	27.3820
 1.8580	27.1280
 1.8590	26.8630
 1.8600	26.5840
 1.8610	26.2880
 1.8620	25.9760
 1.8630	25.6530
 1.8640	25.3080
 1.8650	24.9450
 1.8660	24.5710
 1.8670	24.1740
 1.8680	23.7620
 1.8690	23.3340
 1.8700	22.8860
 1.8710	22.4180
 1.8720	21.9410
 1.8730	21.4470
 1.8740	20.9400
 1.8750	20.4270
 1.8760	19.9020
 1.8770	19.3730
 1.8780	18.8420
 1.8790	18.3090
 1.8800	17.7850
 1.8810	17.2630
 1.8820	16.7440
 1.8830	16.2280
 1.8840	15.7170
 1.8850	15.2080
 1.8860	14.7120
 1.8870	14.2300
 1.8880	13.7610
 1.8890	13.3150
 1.8900	12.8870
 1.8910	12.4780
 1.8920	12.0870
 1.8930	11.7160
 1.8940	11.3640
 1.8950	11.0340
 1.8960	10.7250
 1.8970	10.4380
 1.8980	10.1750
 1.8990	 9.9320
 1.9000	 9.7060
 1.9010	 9.5040
 1.9020	 9.3140
 1.9030	 9.1420
 1.9040	 8.9860
 1.9050	 8.8450
 1.9060	 8.7180
 1.9070	 8.6070
 1.9080	 8.5070
 1.9090	 8.4180
 1.9100	 8.3390
 1.9110	 8.2670
 1.9120	 8.2060
 1.9130	 8.1490
 1.9140	 8.0990
 1.9150	 8.0540
 1.9160	 8.0140
 1.9170	 7.9790
 1.9180	 7.9500
 1.9190	 7.9240
 1.9200	 7.9040
 1.9210	 7.8880
 1.9220	 7.8760
 1.9230	 7.8690
 1.9240	 7.8630
 1.9250	 7.8590
 1.9260	 7.8570
 1.9270	 7.8590
 1.9280	 7.8620
 1.9290	 7.8700
 1.9300	 7.8830
 1.9310	 7.8930
 1.9320	 7.9070
 1.9330	 7.9220
 1.9340	 7.9380
 1.9350	 7.9570
 1.9360	 7.9800
 1.9370	 8.0050
 1.9380	 8.0330
 1.9390	 8.0630
 1.9400	 8.0910
 1.9410	 8.1210
 1.9420	 8.1510
 1.9430	 8.1840
 1.9440	 8.2200
 1.9450	 8.2600
 1.9460	 8.2980
 1.9470	 8.3370
 1.9480	 8.3770
 1.9490	 8.4180
 1.9500	 8.4590
 1.9510	 8.5030
 1.9520	 8.5490
 1.9530	 8.5970
 1.9540	 8.6470
 1.9550	 8.6970
 1.9560	 8.7480
 1.9570	 8.8000
 1.9580	 8.8530
 1.9590	 8.9070
 1.9600	 8.9600
 1.9610	 9.0160
 1.9620	 9.0730
 1.9630	 9.1320
 1.9640	 9.1920
 1.9650	 9.2540
 1.9660	 9.3170
 1.9670	 9.3780
 1.9680	 9.4410
 1.9690	 9.5060
 1.9700	 9.5700
 1.9710	 9.6340
 1.9720	 9.7000
 1.9730	 9.7690
 1.9740	 9.8360
 1.9750	 9.9050
 1.9760	 9.9750
 1.9770	10.0430
 1.9780	10.1130
 1.9790	10.1830
 1.9800	10.2520
 1.9810	10.3240
 1.9820	10.3980
 1.9830	10.4710
 1.9840	10.5460
 1.9850	10.6200
 1.9860	10.6940
 1.9870	10.7660
 1.9880	10.8400
 1.9890	10.9120
 1.9900	10.9840
 1.9910	11.0570
 1.9920	11.1310
 1.9930	11.2070
 1.9940	11.2830
 1.9950	11.3580
 1.9960	11.4340
 1.9970	11.5090
 1.9980	11.5850
 1.9990	11.6610
 2.0000	11.7360
 2.0010	11.8100
 2.0020	11.8850
 2.0030	11.9590
 2.0040	12.0350
 2.0050	12.1100
 2.0060	12.1870
 2.0070	12.2620
 2.0080	12.3360
 2.0090	12.4100
 2.0100	12.4860
 2.0110	12.5600
 2.0120	12.6310
 2.0130	12.7040
 2.0140	12.7750
 2.0150	12.8460
 2.0160	12.9170
 2.0170	12.9870
 2.0180	13.0570
 2.0190	13.1250
 2.0200	13.1940
 2.0210	13.2610
 2.0220	13.3270
 2.0230	13.3930
 2.0240	13.4570
 2.0250	13.5200
 2.0260	13.5810
 2.0270	13.6400
 2.0280	13.7010
 2.0290	13.7600
 2.0300	13.8170
 2.0310	13.8750
 2.0320	13.9340
 2.0330	13.9910
 2.0340	14.0470
 2.0350	14.1010
 2.0360	14.1520
 2.0370	14.2020
 2.0380	14.2490
 2.0390	14.2970
 2.0400	14.3440
 2.0410	14.3910
 2.0420	14.4390
 2.0430	14.4880
 2.0440	14.5340
 2.0450	14.5780
 2.0460	14.6230
 2.0470	14.6660
 2.0480	14.7070
 2.0490	14.7470
 2.0500	14.7880
 2.0510	14.8260
 2.0520	14.8660
 2.0530	14.9080
 2.0540	14.9480
 2.0550	14.9870
 2.0560	15.0270
 2.0570	15.0680
 2.0580	15.1080
 2.0590	15.1480
 2.0600	15.1910
 2.0610	15.2300
 2.0620	15.2680
 2.0630	15.3080
 2.0640	15.3470
 2.0650	15.3870
 2.0660	15.4300
 2.0670	15.4700
 2.0680	15.5100
 2.0690	15.5500
 2.0700	15.5930
 2.0710	15.6340
 2.0720	15.6720
 2.0730	15.7120
 2.0740	15.7520
 2.0750	15.7900
 2.0760	15.8310
 2.0770	15.8740
 2.0780	15.9150
 2.0790	15.9560
 2.0800	15.9950
 2.0810	16.0330
 2.0820	16.0710
 2.0830	16.1050
 2.0840	16.1440
 2.0850	16.1850
 2.0860	16.2250
 2.0870	16.2650
 2.0880	16.3050
 2.0890	16.3450
 2.0900	16.3840
 2.0910	16.4230
 2.0920	16.4640
 2.0930	16.5040
 2.0940	16.5430
 2.0950	16.5840
 2.0960	16.6270
 2.0970	16.6680
 2.0980	16.7100
 2.0990	16.7500
 2.1000	16.7890
 2.1010	16.8270
 2.1020	16.8640
 2.1030	16.9030
 2.1040	16.9400
 2.1050	16.9820
 2.1060	17.0250
 2.1070	17.0720
 2.1080	17.1160
 2.1090	17.1610
 2.1100	17.2060
 2.1110	17.2520
 2.1120	17.2940
 2.1130	17.3360
 2.1140	17.3770
 2.1150	17.4140
 2.1160	17.4540
 2.1170	17.4970
 2.1180	17.5380
 2.1190	17.5790
 2.1200	17.6200
 2.1210	17.6600
 2.1220	17.6990
 2.1230	17.7380
 2.1240	17.7770
 2.1250	17.8150
 2.1260	17.8530
 2.1270	17.8890
 2.1280	17.9230
 2.1290	17.9560
 2.1300	17.9870
 2.1310	18.0200
 2.1320	18.0530
 2.1330	18.0870
 2.1340	18.1210
 2.1350	18.1550
 2.1360	18.1880
 2.1370	18.2210
 2.1380	18.2540
 2.1390	18.2890
 2.1400	18.3250
 2.1410	18.3630
 2.1420	18.3960
 2.1430	18.4290
 2.1440	18.4620
 2.1450	18.4900
 2.1460	18.5220
 2.1470	18.5580
 2.1480	18.5890
 2.1490	18.6170
 2.1500	18.6450
 2.1510	18.6700
 2.1520	18.6970
 2.1530	18.7230
 2.1540	18.7510
 2.1550	18.7800
 2.1560	18.8100
 2.1570	18.8430
 2.1580	18.8730
 2.1590	18.9020
 2.1600	18.9300
 2.1610	18.9590
 2.1620	18.9890
 2.1630	19.0180
 2.1640	19.0490
 2.1650	19.0780
 2.1660	19.1040
 2.1670	19.1330
 2.1680	19.1610
 2.1690	19.1910
 2.1700	19.2230
 2.1710	19.2540
 2.1720	19.2900
 2.1730	19.3200
 2.1740	19.3450
 2.1750	19.3730
 2.1760	19.3970
 2.1770	19.4240
 2.1780	19.4570
 2.1790	19.4860
 2.1800	19.5150
 2.1810	19.5430
 2.1820	19.5680
 2.1830	19.5910
 2.1840	19.6190
 2.1850	19.6500
 2.1860	19.6770
 2.1870	19.7050
 2.1880	19.7290
 2.1890	19.7450
 2.1900	19.7670
 2.1910	19.7910
 2.1920	19.8150
 2.1930	19.8440
 2.1940	19.8680
 2.1950	19.8900
 2.1960	19.9110
 2.1970	19.9290
 2.1980	19.9470
 2.1990	19.9620
 2.2000	19.9770
 2.2010	19.9880
 2.2020	20.0010
 2.2030	20.0190
 2.2040	20.0310
 2.2050	20.0370
 2.2060	20.0480
 2.2070	20.0560
 2.2080	20.0600
 2.2090	20.0660
 2.2100	20.0740
 2.2110	20.0790
 2.2120	20.0800
 2.2130	20.0810
 2.2140	20.0800
 2.2150	20.0800
 2.2160	20.0830
 2.2170	20.0790
 2.2180	20.0750
 2.2190	20.0650
 2.2200	20.0450
 2.2210	20.0310
 2.2220	20.0170
 2.2230	20.0000
 2.2240	19.9870
 2.2250	19.9660
 2.2260	19.9380
 2.2270	19.9100
 2.2280	19.8790
 2.2290	19.8450
 2.2300	19.8080
 2.2310	19.7680
 2.2320	19.7210
 2.2330	19.6700
 2.2340	19.6190
 2.2350	19.5620
 2.2360	19.5070
 2.2370	19.4530
 2.2380	19.3940
 2.2390	19.3320
 2.2400	19.2690
 2.2410	19.2030
 2.2420	19.1370
 2.2430	19.0720
 2.2440	19.0000
 2.2450	18.9250
 2.2460	18.8450
 2.2470	18.7580
 2.2480	18.6730
 2.2490	18.5840
 2.2500	18.4950
 2.2510	18.4060
 2.2520	18.3120
 2.2530	18.2130
 2.2540	18.1170
 2.2550	18.0210
 2.2560	17.9240
 2.2570	17.8300
 2.2580	17.7310
 2.2590	17.6270
 2.2600	17.5220
 2.2610	17.4120
 2.2620	17.3060
 2.2630	17.1990
 2.2640	17.0970
 2.2650	17.0010
 2.2660	16.9050
 2.2670	16.8160
 2.2680	16.7310
 2.2690	16.6480
 2.2700	16.5710
 2.2710	16.4960
 2.2720	16.4220
 2.2730	16.3520
 2.2740	16.2870
 2.2750	16.2210
 2.2760	16.1560
 2.2770	16.0960
 2.2780	16.0420
 2.2790	15.9850
 2.2800	15.9310
 2.2810	15.8750
 2.2820	15.8190
 2.2830	15.7590
 2.2840	15.6990
 2.2850	15.6330
 2.2860	15.5610
 2.2870	15.4880
 2.2880	15.4110
 2.2890	15.3380
 2.2900	15.2660
 2.2910	15.1950
 2.2920	15.1290
 2.2930	15.0570
 2.2940	14.9790
 2.2950	14.9010
 2.2960	14.8160
 2.2970	14.7360
 2.2980	14.6550
 2.2990	14.5810
 2.3000	14.5080
 2.3010	14.4390
 2.3020	14.3770
 2.3030	14.3170
 2.3040	14.2690
 2.3050	14.2310
 2.3060	14.1960
 2.3070	14.1670
 2.3080	14.1430
 2.3090	14.1200
 2.3100	14.1070
 2.3110	14.1050
 2.3120	14.1020
 2.3130	14.1040
 2.3140	14.1090
 2.3150	14.1180
 2.3160	14.1270
 2.3170	14.1450
 2.3180	14.1520
 2.3190	14.1550
 2.3200	14.1530
 2.3210	14.1430
 2.3220	14.1340
 2.3230	14.1230
 2.3240	14.1050
 2.3250	14.0800
 2.3260	14.0540
 2.3270	14.0210
 2.3280	13.9860
 2.3290	13.9490
 2.3300	13.9140
 2.3310	13.8760
 2.3320	13.8350
 2.3330	13.7930
 2.3340	13.7510
 2.3350	13.7020
 2.3360	13.6590
 2.3370	13.6210
 2.3380	13.5780
 2.3390	13.5340
 2.3400	13.4880
 2.3410	13.4360
 2.3420	13.3910
 2.3430	13.3490
 2.3440	13.3070
 2.3450	13.2720
 2.3460	13.2350
 2.3470	13.1910
 2.3480	13.1580
 2.3490	13.1320
 2.3500	13.1070
 2.3510	13.0940
 2.3520	13.0780
 2.3530	13.0620
 2.3540	13.0460
 2.3550	13.0260
 2.3560	13.0050
 2.3570	12.9780
 2.3580	12.9570
 2.3590	12.9490
 2.3600	12.9290
 2.3610	12.9110
 2.3620	12.8880
 2.3630	12.8480
 2.3640	12.8150
 2.3650	12.7920
 2.3660	12.7710
 2.3670	12.7460
 2.3680	12.7210
 2.3690	12.6890
 2.3700	12.6450
 2.3710	12.6050
 2.3720	12.5690
 2.3730	12.5310
 2.3740	12.4980
 2.3750	12.4660
 2.3760	12.4370
 2.3770	12.4080
 2.3780	12.3760
 2.3790	12.3470
 2.3800	12.3160
 2.3810	12.2860
 2.3820	12.2630
 2.3830	12.2380
 2.3840	12.2120
 2.3850	12.1770
 2.3860	12.1470
 2.3870	12.1240
 2.3880	12.0940
 2.3890	12.0720
 2.3900	12.0370
 2.3910	11.9920
 2.3920	11.9570
 2.3930	11.9120
 2.3940	11.8740
 2.3950	11.8450
 2.3960	11.8110
 2.3970	11.7830
 2.3980	11.7620
 2.3990	11.7370
 2.4000	11.7080
 2.4010	11.6730
 2.4020	11.6300
 2.4030	11.5840
 2.4040	11.5440
 2.4050	11.5100
 2.4060	11.4820
 2.4070	11.4540
 2.4080	11.4140
 2.4090	11.3750
 2.4100	11.3370
 2.4110	11.3030
 2.4120	11.2690
 2.4130	11.2360
 2.4140	11.2020
 2.4150	11.1480
 2.4160	11.1040
 2.4170	11.0610
 2.4180	11.0150
 2.4190	10.9840
 2.4200	10.9500
 2.4210	10.9120
 2.4220	10.8700
 2.4230	10.8210
 2.4240	10.7780
 2.4250	10.7290
 2.4260	10.6860
 2.4270	10.6640
 2.4280	10.6280
 2.4290	10.5890
 2.4300	10.5530
 2.4310	10.4900
 2.4320	10.4340
 2.4330	10.3910
 2.4340	10.3490
 2.4350	10.3190
 2.4360	10.2840
 2.4370	10.2440
 2.4380	10.1920
 2.4390	10.1250
 2.4400	10.0690
 2.4410	10.0230
 2.4420	 9.9790
 2.4430	 9.9480
 2.4440	 9.9160
 2.4450	 9.8640
 2.4460	 9.8140
 2.4470	 9.7460
 2.4480	 9.6780
 2.4490	 9.6300
 2.4500	 9.5780
 2.4510	 9.5630
 2.4520	 9.5510
 2.4530	 9.5250
 2.4540	 9.5050
 2.4550	 9.4590
 2.4560	 9.4120
 2.4570	 9.3720
 2.4580	 9.3250
 2.4590	 9.2810
 2.4600	 9.2400
 2.4610	 9.1900
 2.4620	 9.1420
 2.4630	 9.1250
 2.4640	 9.1040
 2.4650	 9.0660
 2.4660	 9.0340
 2.4670	 8.9860
 2.4680	 8.9370
 2.4690	 8.8930
 2.4700	 8.8600
 2.4710	 8.8260
 2.4720	 8.7970
 2.4730	 8.7990
 2.4740	 8.7810
 2.4750	 8.7460
 2.4760	 8.7190
 2.4770	 8.6790
 2.4780	 8.6470
 2.4790	 8.6330
 2.4800	 8.6130
 2.4810	 8.5900
 2.4820	 8.5630
 2.4830	 8.5360
 2.4840	 8.5150
 2.4850	 8.4960
 2.4860	 8.4760
 2.4870	 8.4590
 2.4880	 8.4240
 2.4890	 8.4000
 2.4900	 8.4240
 2.4910	 8.4330
 2.4920	 8.4320
 2.4930	 8.4090
 2.4940	 8.3310
 2.4950	 8.2710
 2.4960	 8.2310
 2.4970	 8.2250
 2.4980	 8.2270
 2.4990	 8.2020
 2.5000	 8.2030
