Name: Tipuana tipu
Type: vegetation
Class: Tree
Genus: Tipuana
Species: tipu
Sample No.: JPL251
Owner: JPL
Wavelength Range: VSWIR
Origin: 34.12975; -118.11219; WGS84
Collection Date: 10/6/2016
Description: Samples were collected at the Huntington Garden in San Marino California as part of a JPL Subcontract studying HyTES imagery. Samples were taken to JPL and processed within 48 hours of collection. The same leaves were processed in the Nicolet and then measured using the ASD.
Measurement: Bidirectional reflectance
First Column: X
Second Column: Y
X Units: Wavelength (micrometer)
Y Units: Reflectance (percentage)
First X Value: 0.35
Last X Value: 2.5
Number of X Values: 2151
Additional Information: vegetation.tree.tipuana.tipu.vswir.jpl251.jpl.asd.ancillary.txt

 0.3500	 4.3480
 0.3510	 4.1370
 0.3520	 4.0080
 0.3530	 3.9910
 0.3540	 4.0380
 0.3550	 4.0250
 0.3560	 4.0290
 0.3570	 4.0210
 0.3580	 3.9410
 0.3590	 3.9660
 0.3600	 3.9680
 0.3610	 3.9060
 0.3620	 3.9070
 0.3630	 3.9050
 0.3640	 3.8920
 0.3650	 3.8770
 0.3660	 3.8820
 0.3670	 3.8520
 0.3680	 3.8150
 0.3690	 3.8460
 0.3700	 3.8430
 0.3710	 3.8420
 0.3720	 3.8530
 0.3730	 3.8130
 0.3740	 3.7510
 0.3750	 3.6950
 0.3760	 3.6790
 0.3770	 3.7470
 0.3780	 3.7630
 0.3790	 3.7370
 0.3800	 3.7960
 0.3810	 3.7990
 0.3820	 3.7580
 0.3830	 3.7160
 0.3840	 3.7320
 0.3850	 3.6820
 0.3860	 3.6290
 0.3870	 3.6740
 0.3880	 3.6820
 0.3890	 3.6640
 0.3900	 3.6390
 0.3910	 3.6260
 0.3920	 3.5880
 0.3930	 3.5620
 0.3940	 3.5740
 0.3950	 3.6000
 0.3960	 3.6100
 0.3970	 3.6010
 0.3980	 3.5860
 0.3990	 3.5920
 0.4000	 3.5950
 0.4010	 3.5830
 0.4020	 3.5660
 0.4030	 3.5670
 0.4040	 3.5760
 0.4050	 3.5740
 0.4060	 3.5680
 0.4070	 3.5680
 0.4080	 3.5700
 0.4090	 3.5660
 0.4100	 3.5620
 0.4110	 3.5640
 0.4120	 3.5730
 0.4130	 3.5880
 0.4140	 3.6050
 0.4150	 3.6200
 0.4160	 3.6310
 0.4170	 3.6520
 0.4180	 3.6830
 0.4190	 3.7150
 0.4200	 3.7330
 0.4210	 3.7510
 0.4220	 3.7800
 0.4230	 3.8200
 0.4240	 3.8490
 0.4250	 3.8820
 0.4260	 3.9190
 0.4270	 3.9560
 0.4280	 4.0020
 0.4290	 4.0480
 0.4300	 4.0910
 0.4310	 4.1360
 0.4320	 4.1760
 0.4330	 4.2210
 0.4340	 4.2740
 0.4350	 4.3030
 0.4360	 4.3320
 0.4370	 4.3660
 0.4380	 4.3960
 0.4390	 4.4280
 0.4400	 4.4580
 0.4410	 4.4840
 0.4420	 4.5120
 0.4430	 4.5350
 0.4440	 4.5580
 0.4450	 4.5900
 0.4460	 4.6260
 0.4470	 4.6590
 0.4480	 4.6860
 0.4490	 4.7080
 0.4500	 4.7350
 0.4510	 4.7610
 0.4520	 4.7800
 0.4530	 4.8030
 0.4540	 4.8220
 0.4550	 4.8410
 0.4560	 4.8660
 0.4570	 4.8790
 0.4580	 4.8890
 0.4590	 4.9000
 0.4600	 4.9070
 0.4610	 4.9130
 0.4620	 4.9190
 0.4630	 4.9250
 0.4640	 4.9330
 0.4650	 4.9360
 0.4660	 4.9330
 0.4670	 4.9290
 0.4680	 4.9290
 0.4690	 4.9330
 0.4700	 4.9390
 0.4710	 4.9380
 0.4720	 4.9370
 0.4730	 4.9360
 0.4740	 4.9310
 0.4750	 4.9290
 0.4760	 4.9300
 0.4770	 4.9320
 0.4780	 4.9240
 0.4790	 4.9220
 0.4800	 4.9240
 0.4810	 4.9200
 0.4820	 4.9230
 0.4830	 4.9340
 0.4840	 4.9480
 0.4850	 4.9570
 0.4860	 4.9650
 0.4870	 4.9730
 0.4880	 4.9830
 0.4890	 5.0020
 0.4900	 5.0170
 0.4910	 5.0310
 0.4920	 5.0520
 0.4930	 5.0740
 0.4940	 5.0980
 0.4950	 5.1250
 0.4960	 5.1570
 0.4970	 5.1880
 0.4980	 5.2220
 0.4990	 5.2600
 0.5000	 5.3040
 0.5010	 5.3560
 0.5020	 5.4140
 0.5030	 5.4710
 0.5040	 5.5310
 0.5050	 5.5980
 0.5060	 5.6740
 0.5070	 5.7530
 0.5080	 5.8400
 0.5090	 5.9320
 0.5100	 6.0260
 0.5110	 6.1280
 0.5120	 6.2380
 0.5130	 6.3530
 0.5140	 6.4730
 0.5150	 6.6010
 0.5160	 6.7350
 0.5170	 6.8750
 0.5180	 7.0190
 0.5190	 7.1690
 0.5200	 7.3220
 0.5210	 7.4770
 0.5220	 7.6300
 0.5230	 7.7850
 0.5240	 7.9420
 0.5250	 8.0900
 0.5260	 8.2320
 0.5270	 8.3670
 0.5280	 8.4930
 0.5290	 8.6110
 0.5300	 8.7210
 0.5310	 8.8210
 0.5320	 8.9120
 0.5330	 8.9980
 0.5340	 9.0760
 0.5350	 9.1440
 0.5360	 9.2000
 0.5370	 9.2510
 0.5380	 9.3010
 0.5390	 9.3470
 0.5400	 9.3970
 0.5410	 9.4540
 0.5420	 9.5130
 0.5430	 9.5610
 0.5440	 9.5920
 0.5450	 9.6040
 0.5460	 9.5990
 0.5470	 9.5840
 0.5480	 9.5740
 0.5490	 9.5730
 0.5500	 9.5760
 0.5510	 9.5740
 0.5520	 9.5630
 0.5530	 9.5440
 0.5540	 9.5140
 0.5550	 9.4730
 0.5560	 9.4220
 0.5570	 9.3650
 0.5580	 9.2980
 0.5590	 9.2250
 0.5600	 9.1510
 0.5610	 9.0700
 0.5620	 8.9850
 0.5630	 8.8990
 0.5640	 8.8100
 0.5650	 8.7200
 0.5660	 8.6280
 0.5670	 8.5330
 0.5680	 8.4340
 0.5690	 8.3310
 0.5700	 8.2260
 0.5710	 8.1220
 0.5720	 8.0200
 0.5730	 7.9230
 0.5740	 7.8300
 0.5750	 7.7410
 0.5760	 7.6590
 0.5770	 7.5820
 0.5780	 7.5110
 0.5790	 7.4460
 0.5800	 7.3860
 0.5810	 7.3290
 0.5820	 7.2710
 0.5830	 7.2230
 0.5840	 7.1780
 0.5850	 7.1310
 0.5860	 7.0860
 0.5870	 7.0440
 0.5880	 7.0060
 0.5890	 6.9710
 0.5900	 6.9360
 0.5910	 6.9040
 0.5920	 6.8760
 0.5930	 6.8500
 0.5940	 6.8290
 0.5950	 6.8090
 0.5960	 6.7910
 0.5970	 6.7760
 0.5980	 6.7590
 0.5990	 6.7410
 0.6000	 6.7200
 0.6010	 6.6950
 0.6020	 6.6640
 0.6030	 6.6290
 0.6040	 6.5910
 0.6050	 6.5510
 0.6060	 6.5060
 0.6070	 6.4560
 0.6080	 6.4050
 0.6090	 6.3610
 0.6100	 6.3270
 0.6110	 6.2980
 0.6120	 6.2440
 0.6130	 6.1710
 0.6140	 6.0930
 0.6150	 6.0330
 0.6160	 5.9760
 0.6170	 5.9220
 0.6180	 5.8770
 0.6190	 5.8390
 0.6200	 5.8050
 0.6210	 5.7730
 0.6220	 5.7410
 0.6230	 5.7140
 0.6240	 5.6890
 0.6250	 5.6650
 0.6260	 5.6480
 0.6270	 5.6320
 0.6280	 5.6190
 0.6290	 5.6100
 0.6300	 5.6010
 0.6310	 5.5910
 0.6320	 5.5800
 0.6330	 5.5690
 0.6340	 5.5560
 0.6350	 5.5400
 0.6360	 5.5220
 0.6370	 5.4980
 0.6380	 5.4710
 0.6390	 5.4430
 0.6400	 5.4130
 0.6410	 5.3800
 0.6420	 5.3450
 0.6430	 5.3070
 0.6440	 5.2690
 0.6450	 5.2310
 0.6460	 5.1910
 0.6470	 5.1510
 0.6480	 5.1100
 0.6490	 5.0720
 0.6500	 5.0370
 0.6510	 5.0020
 0.6520	 4.9660
 0.6530	 4.9310
 0.6540	 4.8990
 0.6550	 4.8640
 0.6560	 4.8240
 0.6570	 4.7820
 0.6580	 4.7370
 0.6590	 4.6910
 0.6600	 4.6410
 0.6610	 4.5910
 0.6620	 4.5460
 0.6630	 4.5030
 0.6640	 4.4650
 0.6650	 4.4310
 0.6660	 4.4030
 0.6670	 4.3820
 0.6680	 4.3670
 0.6690	 4.3580
 0.6700	 4.3540
 0.6710	 4.3580
 0.6720	 4.3690
 0.6730	 4.3850
 0.6740	 4.4060
 0.6750	 4.4310
 0.6760	 4.4610
 0.6770	 4.4950
 0.6780	 4.5380
 0.6790	 4.5860
 0.6800	 4.6360
 0.6810	 4.6930
 0.6820	 4.7560
 0.6830	 4.8240
 0.6840	 4.8960
 0.6850	 4.9740
 0.6860	 5.0600
 0.6870	 5.1550
 0.6880	 5.2590
 0.6890	 5.3780
 0.6900	 5.5140
 0.6910	 5.6720
 0.6920	 5.8530
 0.6930	 6.0590
 0.6940	 6.2930
 0.6950	 6.5570
 0.6960	 6.8490
 0.6970	 7.1730
 0.6980	 7.5300
 0.6990	 7.9210
 0.7000	 8.3450
 0.7010	 8.8030
 0.7020	 9.2900
 0.7030	 9.8100
 0.7040	10.3600
 0.7050	10.9390
 0.7060	11.5490
 0.7070	12.1870
 0.7080	12.8520
 0.7090	13.5410
 0.7100	14.2590
 0.7110	15.0070
 0.7120	15.7820
 0.7130	16.5840
 0.7140	17.4130
 0.7150	18.2680
 0.7160	19.1500
 0.7170	20.0580
 0.7180	20.9840
 0.7190	21.9260
 0.7200	22.8840
 0.7210	23.8540
 0.7220	24.8320
 0.7230	25.8140
 0.7240	26.7990
 0.7250	27.7820
 0.7260	28.7560
 0.7270	29.7160
 0.7280	30.6620
 0.7290	31.5900
 0.7300	32.4980
 0.7310	33.3800
 0.7320	34.2360
 0.7330	35.0640
 0.7340	35.8590
 0.7350	36.6210
 0.7360	37.3510
 0.7370	38.0470
 0.7380	38.7090
 0.7390	39.3350
 0.7400	39.9260
 0.7410	40.4820
 0.7420	41.0040
 0.7430	41.4900
 0.7440	41.9410
 0.7450	42.3580
 0.7460	42.7460
 0.7470	43.1020
 0.7480	43.4270
 0.7490	43.7250
 0.7500	43.9990
 0.7510	44.2470
 0.7520	44.4720
 0.7530	44.6750
 0.7540	44.8620
 0.7550	45.0300
 0.7560	45.1800
 0.7570	45.3160
 0.7580	45.4370
 0.7590	45.5470
 0.7600	45.6480
 0.7610	45.7370
 0.7620	45.8150
 0.7630	45.8850
 0.7640	45.9470
 0.7650	46.0020
 0.7660	46.0500
 0.7670	46.0910
 0.7680	46.1250
 0.7690	46.1540
 0.7700	46.1800
 0.7710	46.2040
 0.7720	46.2280
 0.7730	46.2460
 0.7740	46.2630
 0.7750	46.2800
 0.7760	46.2920
 0.7770	46.3030
 0.7780	46.3130
 0.7790	46.3220
 0.7800	46.3320
 0.7810	46.3420
 0.7820	46.3510
 0.7830	46.3580
 0.7840	46.3650
 0.7850	46.3710
 0.7860	46.3740
 0.7870	46.3760
 0.7880	46.3770
 0.7890	46.3780
 0.7900	46.3770
 0.7910	46.3760
 0.7920	46.3740
 0.7930	46.3720
 0.7940	46.3690
 0.7950	46.3660
 0.7960	46.3620
 0.7970	46.3580
 0.7980	46.3480
 0.7990	46.3390
 0.8000	46.3300
 0.8010	46.3220
 0.8020	46.3130
 0.8030	46.3020
 0.8040	46.2910
 0.8050	46.2810
 0.8060	46.2710
 0.8070	46.2580
 0.8080	46.2440
 0.8090	46.2320
 0.8100	46.2170
 0.8110	46.2020
 0.8120	46.1880
 0.8130	46.1700
 0.8140	46.1530
 0.8150	46.1370
 0.8160	46.1210
 0.8170	46.1040
 0.8180	46.0890
 0.8190	46.0740
 0.8200	46.0540
 0.8210	46.0360
 0.8220	46.0200
 0.8230	46.0050
 0.8240	45.9860
 0.8250	45.9700
 0.8260	45.9540
 0.8270	45.9380
 0.8280	45.9230
 0.8290	45.9040
 0.8300	45.8850
 0.8310	45.8700
 0.8320	45.8560
 0.8330	45.8440
 0.8340	45.8310
 0.8350	45.8170
 0.8360	45.8050
 0.8370	45.7940
 0.8380	45.7830
 0.8390	45.7730
 0.8400	45.7630
 0.8410	45.7550
 0.8420	45.7480
 0.8430	45.7410
 0.8440	45.7360
 0.8450	45.7290
 0.8460	45.7200
 0.8470	45.7170
 0.8480	45.7150
 0.8490	45.7130
 0.8500	45.7080
 0.8510	45.7040
 0.8520	45.7000
 0.8530	45.6980
 0.8540	45.7000
 0.8550	45.6960
 0.8560	45.6920
 0.8570	45.6910
 0.8580	45.6930
 0.8590	45.6970
 0.8600	45.7010
 0.8610	45.7050
 0.8620	45.7060
 0.8630	45.7070
 0.8640	45.7110
 0.8650	45.7160
 0.8660	45.7190
 0.8670	45.7240
 0.8680	45.7300
 0.8690	45.7340
 0.8700	45.7380
 0.8710	45.7440
 0.8720	45.7520
 0.8730	45.7590
 0.8740	45.7670
 0.8750	45.7750
 0.8760	45.7830
 0.8770	45.7840
 0.8780	45.7900
 0.8790	45.7960
 0.8800	45.8030
 0.8810	45.8130
 0.8820	45.8260
 0.8830	45.8350
 0.8840	45.8400
 0.8850	45.8400
 0.8860	45.8490
 0.8870	45.8590
 0.8880	45.8640
 0.8890	45.8720
 0.8900	45.8800
 0.8910	45.8860
 0.8920	45.8920
 0.8930	45.9010
 0.8940	45.9090
 0.8950	45.9140
 0.8960	45.9180
 0.8970	45.9270
 0.8980	45.9350
 0.8990	45.9430
 0.9000	45.9510
 0.9010	45.9570
 0.9020	45.9600
 0.9030	45.9630
 0.9040	45.9700
 0.9050	45.9770
 0.9060	45.9830
 0.9070	45.9850
 0.9080	45.9900
 0.9090	45.9930
 0.9100	45.9960
 0.9110	46.0000
 0.9120	46.0060
 0.9130	46.0070
 0.9140	46.0040
 0.9150	46.0000
 0.9160	46.0060
 0.9170	46.0080
 0.9180	46.0060
 0.9190	46.0060
 0.9200	46.0110
 0.9210	46.0070
 0.9220	45.9970
 0.9230	45.9950
 0.9240	45.9900
 0.9250	45.9790
 0.9260	45.9660
 0.9270	45.9590
 0.9280	45.9450
 0.9290	45.9300
 0.9300	45.9180
 0.9310	45.9070
 0.9320	45.8950
 0.9330	45.8780
 0.9340	45.8580
 0.9350	45.8340
 0.9360	45.8180
 0.9370	45.8010
 0.9380	45.7800
 0.9390	45.7550
 0.9400	45.7320
 0.9410	45.7090
 0.9420	45.6830
 0.9430	45.6530
 0.9440	45.6260
 0.9450	45.5940
 0.9460	45.5540
 0.9470	45.5190
 0.9480	45.4860
 0.9490	45.4550
 0.9500	45.4190
 0.9510	45.3740
 0.9520	45.3230
 0.9530	45.2700
 0.9540	45.2230
 0.9550	45.1740
 0.9560	45.1260
 0.9570	45.0800
 0.9580	45.0350
 0.9590	45.0000
 0.9600	44.9610
 0.9610	44.9190
 0.9620	44.8830
 0.9630	44.8510
 0.9640	44.8300
 0.9650	44.8100
 0.9660	44.7810
 0.9670	44.7520
 0.9680	44.7270
 0.9690	44.7100
 0.9700	44.6990
 0.9710	44.6790
 0.9720	44.6610
 0.9730	44.6470
 0.9740	44.6380
 0.9750	44.6340
 0.9760	44.6260
 0.9770	44.6160
 0.9780	44.6080
 0.9790	44.5990
 0.9800	44.5840
 0.9810	44.5710
 0.9820	44.5700
 0.9830	44.5730
 0.9840	44.5680
 0.9850	44.5570
 0.9860	44.5490
 0.9870	44.5530
 0.9880	44.5630
 0.9890	44.5730
 0.9900	44.5800
 0.9910	44.5740
 0.9920	44.5690
 0.9930	44.5750
 0.9940	44.5960
 0.9950	44.6100
 0.9960	44.6230
 0.9970	44.6320
 0.9980	44.6310
 0.9990	44.6270
 1.0000	44.6320
 1.0010	44.7710
 1.0020	44.7800
 1.0030	44.7890
 1.0040	44.7990
 1.0050	44.8080
 1.0060	44.8150
 1.0070	44.8270
 1.0080	44.8370
 1.0090	44.8480
 1.0100	44.8580
 1.0110	44.8660
 1.0120	44.8760
 1.0130	44.8860
 1.0140	44.8940
 1.0150	44.9040
 1.0160	44.9100
 1.0170	44.9180
 1.0180	44.9260
 1.0190	44.9360
 1.0200	44.9460
 1.0210	44.9520
 1.0220	44.9610
 1.0230	44.9700
 1.0240	44.9810
 1.0250	44.9900
 1.0260	45.0000
 1.0270	45.0110
 1.0280	45.0210
 1.0290	45.0290
 1.0300	45.0380
 1.0310	45.0470
 1.0320	45.0540
 1.0330	45.0610
 1.0340	45.0730
 1.0350	45.0830
 1.0360	45.0890
 1.0370	45.0960
 1.0380	45.1020
 1.0390	45.1060
 1.0400	45.1120
 1.0410	45.1200
 1.0420	45.1260
 1.0430	45.1310
 1.0440	45.1380
 1.0450	45.1450
 1.0460	45.1510
 1.0470	45.1540
 1.0480	45.1600
 1.0490	45.1680
 1.0500	45.1730
 1.0510	45.1780
 1.0520	45.1830
 1.0530	45.1880
 1.0540	45.1890
 1.0550	45.1910
 1.0560	45.1930
 1.0570	45.1970
 1.0580	45.2010
 1.0590	45.2060
 1.0600	45.2130
 1.0610	45.2190
 1.0620	45.2250
 1.0630	45.2280
 1.0640	45.2320
 1.0650	45.2340
 1.0660	45.2330
 1.0670	45.2340
 1.0680	45.2360
 1.0690	45.2390
 1.0700	45.2420
 1.0710	45.2450
 1.0720	45.2470
 1.0730	45.2520
 1.0740	45.2530
 1.0750	45.2500
 1.0760	45.2500
 1.0770	45.2480
 1.0780	45.2480
 1.0790	45.2520
 1.0800	45.2520
 1.0810	45.2510
 1.0820	45.2500
 1.0830	45.2470
 1.0840	45.2440
 1.0850	45.2390
 1.0860	45.2390
 1.0870	45.2350
 1.0880	45.2300
 1.0890	45.2260
 1.0900	45.2200
 1.0910	45.2160
 1.0920	45.2120
 1.0930	45.2060
 1.0940	45.2000
 1.0950	45.1930
 1.0960	45.1850
 1.0970	45.1770
 1.0980	45.1720
 1.0990	45.1630
 1.1000	45.1490
 1.1010	45.1390
 1.1020	45.1270
 1.1030	45.1160
 1.1040	45.1070
 1.1050	45.0990
 1.1060	45.0880
 1.1070	45.0750
 1.1080	45.0640
 1.1090	45.0520
 1.1100	45.0400
 1.1110	45.0270
 1.1120	45.0140
 1.1130	44.9980
 1.1140	44.9830
 1.1150	44.9680
 1.1160	44.9500
 1.1170	44.9300
 1.1180	44.9100
 1.1190	44.8880
 1.1200	44.8650
 1.1210	44.8420
 1.1220	44.8190
 1.1230	44.7910
 1.1240	44.7590
 1.1250	44.7240
 1.1260	44.6850
 1.1270	44.6430
 1.1280	44.5980
 1.1290	44.5480
 1.1300	44.4940
 1.1310	44.4350
 1.1320	44.3700
 1.1330	44.3000
 1.1340	44.2250
 1.1350	44.1460
 1.1360	44.0620
 1.1370	43.9750
 1.1380	43.8800
 1.1390	43.7820
 1.1400	43.6800
 1.1410	43.5750
 1.1420	43.4690
 1.1430	43.3620
 1.1440	43.2560
 1.1450	43.1480
 1.1460	43.0440
 1.1470	42.9390
 1.1480	42.8390
 1.1490	42.7410
 1.1500	42.6480
 1.1510	42.5570
 1.1520	42.4710
 1.1530	42.3870
 1.1540	42.3100
 1.1550	42.2410
 1.1560	42.1740
 1.1570	42.1140
 1.1580	42.0600
 1.1590	42.0080
 1.1600	41.9620
 1.1610	41.9200
 1.1620	41.8820
 1.1630	41.8480
 1.1640	41.8180
 1.1650	41.7880
 1.1660	41.7600
 1.1670	41.7360
 1.1680	41.7140
 1.1690	41.6930
 1.1700	41.6770
 1.1710	41.6590
 1.1720	41.6410
 1.1730	41.6230
 1.1740	41.6050
 1.1750	41.5870
 1.1760	41.5690
 1.1770	41.5510
 1.1780	41.5330
 1.1790	41.5160
 1.1800	41.4990
 1.1810	41.4820
 1.1820	41.4650
 1.1830	41.4480
 1.1840	41.4320
 1.1850	41.4150
 1.1860	41.4000
 1.1870	41.3850
 1.1880	41.3710
 1.1890	41.3590
 1.1900	41.3470
 1.1910	41.3370
 1.1920	41.3290
 1.1930	41.3230
 1.1940	41.3170
 1.1950	41.3130
 1.1960	41.3090
 1.1970	41.3030
 1.1980	41.3000
 1.1990	41.2990
 1.2000	41.3000
 1.2010	41.3030
 1.2020	41.3060
 1.2030	41.3090
 1.2040	41.3130
 1.2050	41.3190
 1.2060	41.3240
 1.2070	41.3290
 1.2080	41.3350
 1.2090	41.3420
 1.2100	41.3520
 1.2110	41.3620
 1.2120	41.3740
 1.2130	41.3860
 1.2140	41.4000
 1.2150	41.4140
 1.2160	41.4290
 1.2170	41.4440
 1.2180	41.4610
 1.2190	41.4760
 1.2200	41.4910
 1.2210	41.5070
 1.2220	41.5230
 1.2230	41.5400
 1.2240	41.5600
 1.2250	41.5790
 1.2260	41.5950
 1.2270	41.6120
 1.2280	41.6260
 1.2290	41.6410
 1.2300	41.6550
 1.2310	41.6690
 1.2320	41.6830
 1.2330	41.6970
 1.2340	41.7100
 1.2350	41.7250
 1.2360	41.7370
 1.2370	41.7490
 1.2380	41.7600
 1.2390	41.7680
 1.2400	41.7780
 1.2410	41.7870
 1.2420	41.7960
 1.2430	41.8050
 1.2440	41.8150
 1.2450	41.8230
 1.2460	41.8300
 1.2470	41.8340
 1.2480	41.8390
 1.2490	41.8450
 1.2500	41.8510
 1.2510	41.8570
 1.2520	41.8640
 1.2530	41.8670
 1.2540	41.8710
 1.2550	41.8750
 1.2560	41.8780
 1.2570	41.8820
 1.2580	41.8830
 1.2590	41.8840
 1.2600	41.8840
 1.2610	41.8820
 1.2620	41.8780
 1.2630	41.8760
 1.2640	41.8720
 1.2650	41.8650
 1.2660	41.8590
 1.2670	41.8530
 1.2680	41.8460
 1.2690	41.8400
 1.2700	41.8340
 1.2710	41.8270
 1.2720	41.8160
 1.2730	41.8050
 1.2740	41.7930
 1.2750	41.7790
 1.2760	41.7650
 1.2770	41.7520
 1.2780	41.7380
 1.2790	41.7230
 1.2800	41.7060
 1.2810	41.6890
 1.2820	41.6700
 1.2830	41.6520
 1.2840	41.6330
 1.2850	41.6120
 1.2860	41.5900
 1.2870	41.5660
 1.2880	41.5400
 1.2890	41.5150
 1.2900	41.4890
 1.2910	41.4610
 1.2920	41.4350
 1.2930	41.4070
 1.2940	41.3750
 1.2950	41.3430
 1.2960	41.3090
 1.2970	41.2740
 1.2980	41.2390
 1.2990	41.2000
 1.3000	41.1600
 1.3010	41.1180
 1.3020	41.0730
 1.3030	41.0290
 1.3040	40.9840
 1.3050	40.9350
 1.3060	40.8820
 1.3070	40.8280
 1.3080	40.7710
 1.3090	40.7130
 1.3100	40.6550
 1.3110	40.5940
 1.3120	40.5290
 1.3130	40.4630
 1.3140	40.3950
 1.3150	40.3230
 1.3160	40.2480
 1.3170	40.1720
 1.3180	40.0920
 1.3190	40.0080
 1.3200	39.9230
 1.3210	39.8340
 1.3220	39.7440
 1.3230	39.6530
 1.3240	39.5610
 1.3250	39.4670
 1.3260	39.3690
 1.3270	39.2680
 1.3280	39.1630
 1.3290	39.0570
 1.3300	38.9500
 1.3310	38.8410
 1.3320	38.7300
 1.3330	38.6190
 1.3340	38.5070
 1.3350	38.3960
 1.3360	38.2820
 1.3370	38.1650
 1.3380	38.0520
 1.3390	37.9370
 1.3400	37.8200
 1.3410	37.7060
 1.3420	37.5930
 1.3430	37.4800
 1.3440	37.3670
 1.3450	37.2560
 1.3460	37.1450
 1.3470	37.0350
 1.3480	36.9240
 1.3490	36.8160
 1.3500	36.7100
 1.3510	36.6030
 1.3520	36.4970
 1.3530	36.3930
 1.3540	36.2860
 1.3550	36.1800
 1.3560	36.0740
 1.3570	35.9680
 1.3580	35.8620
 1.3590	35.7550
 1.3600	35.6450
 1.3610	35.5320
 1.3620	35.4150
 1.3630	35.2940
 1.3640	35.1690
 1.3650	35.0370
 1.3660	34.9000
 1.3670	34.7550
 1.3680	34.6010
 1.3690	34.4390
 1.3700	34.2660
 1.3710	34.0820
 1.3720	33.8850
 1.3730	33.6730
 1.3740	33.4480
 1.3750	33.2070
 1.3760	32.9460
 1.3770	32.6670
 1.3780	32.3650
 1.3790	32.0430
 1.3800	31.7020
 1.3810	31.3370
 1.3820	30.9540
 1.3830	30.5520
 1.3840	30.1300
 1.3850	29.6880
 1.3860	29.2310
 1.3870	28.7530
 1.3880	28.2660
 1.3890	27.7660
 1.3900	27.2510
 1.3910	26.7330
 1.3920	26.2080
 1.3930	25.6760
 1.3940	25.1490
 1.3950	24.6170
 1.3960	24.0920
 1.3970	23.5750
 1.3980	23.0640
 1.3990	22.5710
 1.4000	22.0910
 1.4010	21.6200
 1.4020	21.1680
 1.4030	20.7290
 1.4040	20.3070
 1.4050	19.9060
 1.4060	19.5240
 1.4070	19.1630
 1.4080	18.8200
 1.4090	18.4950
 1.4100	18.1900
 1.4110	17.9020
 1.4120	17.6310
 1.4130	17.3790
 1.4140	17.1430
 1.4150	16.9250
 1.4160	16.7230
 1.4170	16.5330
 1.4180	16.3580
 1.4190	16.1920
 1.4200	16.0370
 1.4210	15.8940
 1.4220	15.7610
 1.4230	15.6400
 1.4240	15.5290
 1.4250	15.4250
 1.4260	15.3310
 1.4270	15.2420
 1.4280	15.1600
 1.4290	15.0850
 1.4300	15.0170
 1.4310	14.9540
 1.4320	14.8990
 1.4330	14.8480
 1.4340	14.8040
 1.4350	14.7630
 1.4360	14.7260
 1.4370	14.6940
 1.4380	14.6660
 1.4390	14.6420
 1.4400	14.6230
 1.4410	14.6080
 1.4420	14.5950
 1.4430	14.5830
 1.4440	14.5750
 1.4450	14.5690
 1.4460	14.5650
 1.4470	14.5640
 1.4480	14.5640
 1.4490	14.5670
 1.4500	14.5710
 1.4510	14.5770
 1.4520	14.5850
 1.4530	14.5940
 1.4540	14.6050
 1.4550	14.6190
 1.4560	14.6340
 1.4570	14.6520
 1.4580	14.6730
 1.4590	14.6980
 1.4600	14.7270
 1.4610	14.7590
 1.4620	14.7930
 1.4630	14.8330
 1.4640	14.8760
 1.4650	14.9240
 1.4660	14.9780
 1.4670	15.0350
 1.4680	15.0970
 1.4690	15.1620
 1.4700	15.2320
 1.4710	15.3060
 1.4720	15.3830
 1.4730	15.4630
 1.4740	15.5470
 1.4750	15.6330
 1.4760	15.7240
 1.4770	15.8170
 1.4780	15.9120
 1.4790	16.0110
 1.4800	16.1090
 1.4810	16.2080
 1.4820	16.3090
 1.4830	16.4110
 1.4840	16.5160
 1.4850	16.6210
 1.4860	16.7280
 1.4870	16.8360
 1.4880	16.9430
 1.4890	17.0500
 1.4900	17.1590
 1.4910	17.2680
 1.4920	17.3780
 1.4930	17.4900
 1.4940	17.6020
 1.4950	17.7130
 1.4960	17.8250
 1.4970	17.9360
 1.4980	18.0480
 1.4990	18.1610
 1.5000	18.2740
 1.5010	18.3900
 1.5020	18.5040
 1.5030	18.6210
 1.5040	18.7350
 1.5050	18.8460
 1.5060	18.9580
 1.5070	19.0700
 1.5080	19.1820
 1.5090	19.2970
 1.5100	19.4110
 1.5110	19.5230
 1.5120	19.6360
 1.5130	19.7480
 1.5140	19.8600
 1.5150	19.9710
 1.5160	20.0820
 1.5170	20.1920
 1.5180	20.3020
 1.5190	20.4110
 1.5200	20.5210
 1.5210	20.6290
 1.5220	20.7370
 1.5230	20.8440
 1.5240	20.9510
 1.5250	21.0570
 1.5260	21.1620
 1.5270	21.2670
 1.5280	21.3710
 1.5290	21.4720
 1.5300	21.5730
 1.5310	21.6740
 1.5320	21.7730
 1.5330	21.8740
 1.5340	21.9730
 1.5350	22.0710
 1.5360	22.1690
 1.5370	22.2650
 1.5380	22.3600
 1.5390	22.4550
 1.5400	22.5490
 1.5410	22.6440
 1.5420	22.7370
 1.5430	22.8290
 1.5440	22.9210
 1.5450	23.0110
 1.5460	23.1010
 1.5470	23.1910
 1.5480	23.2800
 1.5490	23.3680
 1.5500	23.4540
 1.5510	23.5390
 1.5520	23.6240
 1.5530	23.7070
 1.5540	23.7890
 1.5550	23.8720
 1.5560	23.9520
 1.5570	24.0330
 1.5580	24.1130
 1.5590	24.1910
 1.5600	24.2680
 1.5610	24.3420
 1.5620	24.4160
 1.5630	24.4880
 1.5640	24.5580
 1.5650	24.6290
 1.5660	24.6980
 1.5670	24.7670
 1.5680	24.8360
 1.5690	24.9040
 1.5700	24.9720
 1.5710	25.0390
 1.5720	25.1060
 1.5730	25.1730
 1.5740	25.2380
 1.5750	25.3010
 1.5760	25.3660
 1.5770	25.4270
 1.5780	25.4890
 1.5790	25.5520
 1.5800	25.6140
 1.5810	25.6760
 1.5820	25.7360
 1.5830	25.7970
 1.5840	25.8570
 1.5850	25.9160
 1.5860	25.9770
 1.5870	26.0360
 1.5880	26.0950
 1.5890	26.1540
 1.5900	26.2110
 1.5910	26.2680
 1.5920	26.3240
 1.5930	26.3790
 1.5940	26.4340
 1.5950	26.4910
 1.5960	26.5470
 1.5970	26.6010
 1.5980	26.6550
 1.5990	26.7080
 1.6000	26.7590
 1.6010	26.8110
 1.6020	26.8620
 1.6030	26.9130
 1.6040	26.9630
 1.6050	27.0120
 1.6060	27.0600
 1.6070	27.1070
 1.6080	27.1540
 1.6090	27.1990
 1.6100	27.2460
 1.6110	27.2910
 1.6120	27.3340
 1.6130	27.3770
 1.6140	27.4190
 1.6150	27.4600
 1.6160	27.5000
 1.6170	27.5390
 1.6180	27.5780
 1.6190	27.6170
 1.6200	27.6550
 1.6210	27.6920
 1.6220	27.7270
 1.6230	27.7610
 1.6240	27.7960
 1.6250	27.8310
 1.6260	27.8650
 1.6270	27.8990
 1.6280	27.9290
 1.6290	27.9610
 1.6300	27.9920
 1.6310	28.0220
 1.6320	28.0540
 1.6330	28.0820
 1.6340	28.1080
 1.6350	28.1340
 1.6360	28.1590
 1.6370	28.1850
 1.6380	28.2110
 1.6390	28.2330
 1.6400	28.2550
 1.6410	28.2730
 1.6420	28.2880
 1.6430	28.3030
 1.6440	28.3180
 1.6450	28.3300
 1.6460	28.3420
 1.6470	28.3530
 1.6480	28.3610
 1.6490	28.3670
 1.6500	28.3720
 1.6510	28.3710
 1.6520	28.3690
 1.6530	28.3680
 1.6540	28.3640
 1.6550	28.3580
 1.6560	28.3520
 1.6570	28.3430
 1.6580	28.3340
 1.6590	28.3230
 1.6600	28.3130
 1.6610	28.3020
 1.6620	28.2930
 1.6630	28.2860
 1.6640	28.2760
 1.6650	28.2650
 1.6660	28.2530
 1.6670	28.2410
 1.6680	28.2290
 1.6690	28.2170
 1.6700	28.2030
 1.6710	28.1880
 1.6720	28.1720
 1.6730	28.1530
 1.6740	28.1350
 1.6750	28.1130
 1.6760	28.0890
 1.6770	28.0670
 1.6780	28.0440
 1.6790	28.0180
 1.6800	27.9920
 1.6810	27.9640
 1.6820	27.9330
 1.6830	27.9010
 1.6840	27.8690
 1.6850	27.8350
 1.6860	27.8000
 1.6870	27.7640
 1.6880	27.7280
 1.6890	27.6890
 1.6900	27.6500
 1.6910	27.6120
 1.6920	27.5730
 1.6930	27.5350
 1.6940	27.4960
 1.6950	27.4570
 1.6960	27.4180
 1.6970	27.3790
 1.6980	27.3390
 1.6990	27.2970
 1.7000	27.2570
 1.7010	27.2160
 1.7020	27.1740
 1.7030	27.1330
 1.7040	27.0930
 1.7050	27.0520
 1.7060	27.0100
 1.7070	26.9700
 1.7080	26.9280
 1.7090	26.8830
 1.7100	26.8390
 1.7110	26.7930
 1.7120	26.7470
 1.7130	26.7000
 1.7140	26.6540
 1.7150	26.6080
 1.7160	26.5630
 1.7170	26.5200
 1.7180	26.4750
 1.7190	26.4290
 1.7200	26.3850
 1.7210	26.3400
 1.7220	26.2960
 1.7230	26.2500
 1.7240	26.2040
 1.7250	26.1580
 1.7260	26.1120
 1.7270	26.0690
 1.7280	26.0280
 1.7290	25.9900
 1.7300	25.9520
 1.7310	25.9170
 1.7320	25.8820
 1.7330	25.8490
 1.7340	25.8180
 1.7350	25.7880
 1.7360	25.7600
 1.7370	25.7310
 1.7380	25.7040
 1.7390	25.6730
 1.7400	25.6420
 1.7410	25.6090
 1.7420	25.5720
 1.7430	25.5360
 1.7440	25.4990
 1.7450	25.4610
 1.7460	25.4220
 1.7470	25.3800
 1.7480	25.3330
 1.7490	25.2880
 1.7500	25.2430
 1.7510	25.1970
 1.7520	25.1520
 1.7530	25.1050
 1.7540	25.0580
 1.7550	25.0100
 1.7560	24.9610
 1.7570	24.9110
 1.7580	24.8620
 1.7590	24.8150
 1.7600	24.7690
 1.7610	24.7220
 1.7620	24.6780
 1.7630	24.6330
 1.7640	24.5900
 1.7650	24.5500
 1.7660	24.5110
 1.7670	24.4750
 1.7680	24.4400
 1.7690	24.4070
 1.7700	24.3760
 1.7710	24.3450
 1.7720	24.3160
 1.7730	24.2880
 1.7740	24.2600
 1.7750	24.2310
 1.7760	24.2030
 1.7770	24.1760
 1.7780	24.1500
 1.7790	24.1270
 1.7800	24.1050
 1.7810	24.0850
 1.7820	24.0670
 1.7830	24.0510
 1.7840	24.0360
 1.7850	24.0220
 1.7860	24.0110
 1.7870	24.0020
 1.7880	23.9940
 1.7890	23.9870
 1.7900	23.9820
 1.7910	23.9760
 1.7920	23.9700
 1.7930	23.9660
 1.7940	23.9630
 1.7950	23.9630
 1.7960	23.9670
 1.7970	23.9700
 1.7980	23.9720
 1.7990	23.9770
 1.8000	23.9830
 1.8010	23.9890
 1.8020	24.0000
 1.8030	24.0080
 1.8040	24.0130
 1.8050	24.0200
 1.8060	24.0280
 1.8070	24.0350
 1.8080	24.0440
 1.8090	24.0510
 1.8100	24.0570
 1.8110	24.0640
 1.8120	24.0690
 1.8130	24.0730
 1.8140	24.0770
 1.8150	24.0780
 1.8160	24.0790
 1.8170	24.0800
 1.8180	24.0800
 1.8190	24.0810
 1.8200	24.0800
 1.8210	24.0780
 1.8220	24.0760
 1.8230	24.0750
 1.8240	24.0710
 1.8250	24.0630
 1.8260	24.0560
 1.8270	24.0480
 1.8280	24.0380
 1.8290	24.0320
 1.8300	24.0190
 1.8310	23.8650
 1.8320	23.8460
 1.8330	23.8250
 1.8340	23.7970
 1.8350	23.7660
 1.8360	23.7340
 1.8370	23.6970
 1.8380	23.6560
 1.8390	23.6120
 1.8400	23.5670
 1.8410	23.5140
 1.8420	23.4590
 1.8430	23.3980
 1.8440	23.3280
 1.8450	23.2530
 1.8460	23.1690
 1.8470	23.0770
 1.8480	22.9780
 1.8490	22.8650
 1.8500	22.7440
 1.8510	22.6140
 1.8520	22.4770
 1.8530	22.3270
 1.8540	22.1700
 1.8550	22.0030
 1.8560	21.8220
 1.8570	21.6300
 1.8580	21.4220
 1.8590	21.2000
 1.8600	20.9630
 1.8610	20.7110
 1.8620	20.4430
 1.8630	20.1640
 1.8640	19.8700
 1.8650	19.5600
 1.8660	19.2350
 1.8670	18.8910
 1.8680	18.5280
 1.8690	18.1510
 1.8700	17.7570
 1.8710	17.3450
 1.8720	16.9220
 1.8730	16.4860
 1.8740	16.0350
 1.8750	15.5780
 1.8760	15.1130
 1.8770	14.6450
 1.8780	14.1730
 1.8790	13.6910
 1.8800	13.2130
 1.8810	12.7340
 1.8820	12.2540
 1.8830	11.7760
 1.8840	11.3090
 1.8850	10.8420
 1.8860	10.3820
 1.8870	 9.9370
 1.8880	 9.5000
 1.8890	 9.0840
 1.8900	 8.6880
 1.8910	 8.3080
 1.8920	 7.9420
 1.8930	 7.6000
 1.8940	 7.2730
 1.8950	 6.9660
 1.8960	 6.6810
 1.8970	 6.4150
 1.8980	 6.1730
 1.8990	 5.9480
 1.9000	 5.7410
 1.9010	 5.5560
 1.9020	 5.3850
 1.9030	 5.2310
 1.9040	 5.0900
 1.9050	 4.9640
 1.9060	 4.8490
 1.9070	 4.7440
 1.9080	 4.6500
 1.9090	 4.5650
 1.9100	 4.4880
 1.9110	 4.4190
 1.9120	 4.3630
 1.9130	 4.3090
 1.9140	 4.2620
 1.9150	 4.2210
 1.9160	 4.1800
 1.9170	 4.1440
 1.9180	 4.1150
 1.9190	 4.0880
 1.9200	 4.0670
 1.9210	 4.0490
 1.9220	 4.0320
 1.9230	 4.0160
 1.9240	 4.0040
 1.9250	 3.9950
 1.9260	 3.9870
 1.9270	 3.9810
 1.9280	 3.9770
 1.9290	 3.9750
 1.9300	 3.9750
 1.9310	 3.9790
 1.9320	 3.9860
 1.9330	 3.9920
 1.9340	 4.0010
 1.9350	 4.0110
 1.9360	 4.0210
 1.9370	 4.0340
 1.9380	 4.0480
 1.9390	 4.0630
 1.9400	 4.0790
 1.9410	 4.0960
 1.9420	 4.1180
 1.9430	 4.1400
 1.9440	 4.1620
 1.9450	 4.1880
 1.9460	 4.2130
 1.9470	 4.2360
 1.9480	 4.2620
 1.9490	 4.2890
 1.9500	 4.3190
 1.9510	 4.3500
 1.9520	 4.3810
 1.9530	 4.4140
 1.9540	 4.4490
 1.9550	 4.4830
 1.9560	 4.5180
 1.9570	 4.5530
 1.9580	 4.5870
 1.9590	 4.6230
 1.9600	 4.6620
 1.9610	 4.7020
 1.9620	 4.7430
 1.9630	 4.7850
 1.9640	 4.8300
 1.9650	 4.8720
 1.9660	 4.9140
 1.9670	 4.9590
 1.9680	 5.0040
 1.9690	 5.0480
 1.9700	 5.0930
 1.9710	 5.1410
 1.9720	 5.1870
 1.9730	 5.2320
 1.9740	 5.2800
 1.9750	 5.3260
 1.9760	 5.3770
 1.9770	 5.4310
 1.9780	 5.4840
 1.9790	 5.5390
 1.9800	 5.5960
 1.9810	 5.6520
 1.9820	 5.7110
 1.9830	 5.7670
 1.9840	 5.8220
 1.9850	 5.8780
 1.9860	 5.9330
 1.9870	 5.9860
 1.9880	 6.0430
 1.9890	 6.1030
 1.9900	 6.1640
 1.9910	 6.2250
 1.9920	 6.2840
 1.9930	 6.3410
 1.9940	 6.3980
 1.9950	 6.4520
 1.9960	 6.5090
 1.9970	 6.5660
 1.9980	 6.6250
 1.9990	 6.6870
 2.0000	 6.7470
 2.0010	 6.8080
 2.0020	 6.8690
 2.0030	 6.9300
 2.0040	 6.9900
 2.0050	 7.0500
 2.0060	 7.1100
 2.0070	 7.1700
 2.0080	 7.2280
 2.0090	 7.2880
 2.0100	 7.3500
 2.0110	 7.4110
 2.0120	 7.4720
 2.0130	 7.5360
 2.0140	 7.5980
 2.0150	 7.6590
 2.0160	 7.7190
 2.0170	 7.7790
 2.0180	 7.8380
 2.0190	 7.8940
 2.0200	 7.9520
 2.0210	 8.0080
 2.0220	 8.0640
 2.0230	 8.1230
 2.0240	 8.1780
 2.0250	 8.2320
 2.0260	 8.2850
 2.0270	 8.3360
 2.0280	 8.3860
 2.0290	 8.4390
 2.0300	 8.4920
 2.0310	 8.5440
 2.0320	 8.5970
 2.0330	 8.6460
 2.0340	 8.6950
 2.0350	 8.7410
 2.0360	 8.7810
 2.0370	 8.8240
 2.0380	 8.8650
 2.0390	 8.9070
 2.0400	 8.9510
 2.0410	 8.9920
 2.0420	 9.0320
 2.0430	 9.0690
 2.0440	 9.1070
 2.0450	 9.1430
 2.0460	 9.1810
 2.0470	 9.2170
 2.0480	 9.2550
 2.0490	 9.2950
 2.0500	 9.3340
 2.0510	 9.3730
 2.0520	 9.4140
 2.0530	 9.4560
 2.0540	 9.4980
 2.0550	 9.5410
 2.0560	 9.5860
 2.0570	 9.6300
 2.0580	 9.6750
 2.0590	 9.7190
 2.0600	 9.7650
 2.0610	 9.8100
 2.0620	 9.8540
 2.0630	 9.9020
 2.0640	 9.9560
 2.0650	10.0050
 2.0660	10.0530
 2.0670	10.1020
 2.0680	10.1480
 2.0690	10.1960
 2.0700	10.2500
 2.0710	10.3010
 2.0720	10.3510
 2.0730	10.3970
 2.0740	10.4470
 2.0750	10.4970
 2.0760	10.5460
 2.0770	10.5950
 2.0780	10.6440
 2.0790	10.6930
 2.0800	10.7410
 2.0810	10.7930
 2.0820	10.8410
 2.0830	10.8850
 2.0840	10.9300
 2.0850	10.9730
 2.0860	11.0160
 2.0870	11.0580
 2.0880	11.1020
 2.0890	11.1450
 2.0900	11.1880
 2.0910	11.2300
 2.0920	11.2720
 2.0930	11.3140
 2.0940	11.3560
 2.0950	11.3990
 2.0960	11.4420
 2.0970	11.4860
 2.0980	11.5320
 2.0990	11.5740
 2.1000	11.6150
 2.1010	11.6550
 2.1020	11.6910
 2.1030	11.7280
 2.1040	11.7650
 2.1050	11.8020
 2.1060	11.8400
 2.1070	11.8780
 2.1080	11.9150
 2.1090	11.9540
 2.1100	11.9930
 2.1110	12.0300
 2.1120	12.0670
 2.1130	12.1050
 2.1140	12.1410
 2.1150	12.1750
 2.1160	12.2100
 2.1170	12.2440
 2.1180	12.2780
 2.1190	12.3110
 2.1200	12.3440
 2.1210	12.3750
 2.1220	12.4100
 2.1230	12.4410
 2.1240	12.4720
 2.1250	12.5020
 2.1260	12.5300
 2.1270	12.5600
 2.1280	12.5900
 2.1290	12.6160
 2.1300	12.6410
 2.1310	12.6650
 2.1320	12.6850
 2.1330	12.7080
 2.1340	12.7340
 2.1350	12.7570
 2.1360	12.7770
 2.1370	12.7980
 2.1380	12.8160
 2.1390	12.8350
 2.1400	12.8570
 2.1410	12.8780
 2.1420	12.8960
 2.1430	12.9120
 2.1440	12.9280
 2.1450	12.9440
 2.1460	12.9590
 2.1470	12.9740
 2.1480	12.9900
 2.1490	13.0060
 2.1500	13.0230
 2.1510	13.0460
 2.1520	13.0620
 2.1530	13.0740
 2.1540	13.0870
 2.1550	13.0960
 2.1560	13.1070
 2.1570	13.1180
 2.1580	13.1300
 2.1590	13.1420
 2.1600	13.1570
 2.1610	13.1720
 2.1620	13.1830
 2.1630	13.1920
 2.1640	13.1960
 2.1650	13.2070
 2.1660	13.2200
 2.1670	13.2320
 2.1680	13.2480
 2.1690	13.2640
 2.1700	13.2810
 2.1710	13.2980
 2.1720	13.3200
 2.1730	13.3390
 2.1740	13.3570
 2.1750	13.3760
 2.1760	13.3970
 2.1770	13.4150
 2.1780	13.4300
 2.1790	13.4490
 2.1800	13.4690
 2.1810	13.4890
 2.1820	13.5130
 2.1830	13.5380
 2.1840	13.5620
 2.1850	13.5850
 2.1860	13.6100
 2.1870	13.6350
 2.1880	13.6610
 2.1890	13.6870
 2.1900	13.7130
 2.1910	13.7390
 2.1920	13.7630
 2.1930	13.7850
 2.1940	13.8070
 2.1950	13.8290
 2.1960	13.8500
 2.1970	13.8710
 2.1980	13.8910
 2.1990	13.9070
 2.2000	13.9240
 2.2010	13.9390
 2.2020	13.9560
 2.2030	13.9760
 2.2040	13.9930
 2.2050	14.0100
 2.2060	14.0260
 2.2070	14.0420
 2.2080	14.0560
 2.2090	14.0690
 2.2100	14.0830
 2.2110	14.0920
 2.2120	14.0970
 2.2130	14.1030
 2.2140	14.1090
 2.2150	14.1120
 2.2160	14.1130
 2.2170	14.1130
 2.2180	14.1110
 2.2190	14.1070
 2.2200	14.1020
 2.2210	14.0950
 2.2220	14.0850
 2.2230	14.0720
 2.2240	14.0590
 2.2250	14.0410
 2.2260	14.0200
 2.2270	13.9960
 2.2280	13.9680
 2.2290	13.9400
 2.2300	13.9110
 2.2310	13.8820
 2.2320	13.8540
 2.2330	13.8220
 2.2340	13.7860
 2.2350	13.7460
 2.2360	13.7020
 2.2370	13.6550
 2.2380	13.6040
 2.2390	13.5460
 2.2400	13.4950
 2.2410	13.4410
 2.2420	13.3880
 2.2430	13.3380
 2.2440	13.2880
 2.2450	13.2330
 2.2460	13.1840
 2.2470	13.1420
 2.2480	13.0940
 2.2490	13.0450
 2.2500	12.9960
 2.2510	12.9430
 2.2520	12.8920
 2.2530	12.8420
 2.2540	12.7940
 2.2550	12.7460
 2.2560	12.6990
 2.2570	12.6570
 2.2580	12.6100
 2.2590	12.5600
 2.2600	12.5100
 2.2610	12.4590
 2.2620	12.4020
 2.2630	12.3520
 2.2640	12.3040
 2.2650	12.2560
 2.2660	12.2100
 2.2670	12.1580
 2.2680	12.1000
 2.2690	12.0500
 2.2700	11.9990
 2.2710	11.9510
 2.2720	11.9080
 2.2730	11.8620
 2.2740	11.8120
 2.2750	11.7670
 2.2760	11.7250
 2.2770	11.6840
 2.2780	11.6500
 2.2790	11.6070
 2.2800	11.5610
 2.2810	11.5160
 2.2820	11.4610
 2.2830	11.4180
 2.2840	11.3830
 2.2850	11.3460
 2.2860	11.3170
 2.2870	11.2810
 2.2880	11.2370
 2.2890	11.1990
 2.2900	11.1610
 2.2910	11.1220
 2.2920	11.0890
 2.2930	11.0510
 2.2940	11.0050
 2.2950	10.9630
 2.2960	10.9220
 2.2970	10.8780
 2.2980	10.8340
 2.2990	10.7910
 2.3000	10.7440
 2.3010	10.6980
 2.3020	10.6530
 2.3030	10.6060
 2.3040	10.5580
 2.3050	10.5110
 2.3060	10.4700
 2.3070	10.4270
 2.3080	10.3840
 2.3090	10.3480
 2.3100	10.3100
 2.3110	10.2800
 2.3120	10.2510
 2.3130	10.2260
 2.3140	10.2030
 2.3150	10.1830
 2.3160	10.1630
 2.3170	10.1450
 2.3180	10.1290
 2.3190	10.1140
 2.3200	10.0980
 2.3210	10.0840
 2.3220	10.0660
 2.3230	10.0420
 2.3240	10.0230
 2.3250	10.0090
 2.3260	 9.9840
 2.3270	 9.9550
 2.3280	 9.9260
 2.3290	 9.8890
 2.3300	 9.8530
 2.3310	 9.8200
 2.3320	 9.7840
 2.3330	 9.7450
 2.3340	 9.7070
 2.3350	 9.6720
 2.3360	 9.6360
 2.3370	 9.5970
 2.3380	 9.5580
 2.3390	 9.5160
 2.3400	 9.4760
 2.3410	 9.4340
 2.3420	 9.3940
 2.3430	 9.3560
 2.3440	 9.3210
 2.3450	 9.2920
 2.3460	 9.2580
 2.3470	 9.2280
 2.3480	 9.1930
 2.3490	 9.1460
 2.3500	 9.1090
 2.3510	 9.0750
 2.3520	 9.0420
 2.3530	 9.0150
 2.3540	 8.9910
 2.3550	 8.9590
 2.3560	 8.9320
 2.3570	 8.9110
 2.3580	 8.8840
 2.3590	 8.8590
 2.3600	 8.8360
 2.3610	 8.8130
 2.3620	 8.7860
 2.3630	 8.7520
 2.3640	 8.7200
 2.3650	 8.6960
 2.3660	 8.6660
 2.3670	 8.6340
 2.3680	 8.6050
 2.3690	 8.5600
 2.3700	 8.5130
 2.3710	 8.4830
 2.3720	 8.4480
 2.3730	 8.4160
 2.3740	 8.3910
 2.3750	 8.3630
 2.3760	 8.3370
 2.3770	 8.3060
 2.3780	 8.2700
 2.3790	 8.2290
 2.3800	 8.1880
 2.3810	 8.1560
 2.3820	 8.1220
 2.3830	 8.0880
 2.3840	 8.0480
 2.3850	 8.0030
 2.3860	 7.9610
 2.3870	 7.9200
 2.3880	 7.8920
 2.3890	 7.8670
 2.3900	 7.8320
 2.3910	 7.8000
 2.3920	 7.7640
 2.3930	 7.7200
 2.3940	 7.6890
 2.3950	 7.6640
 2.3960	 7.6240
 2.3970	 7.5920
 2.3980	 7.5620
 2.3990	 7.5160
 2.4000	 7.4700
 2.4010	 7.4200
 2.4020	 7.3750
 2.4030	 7.3400
 2.4040	 7.3100
 2.4050	 7.2850
 2.4060	 7.2460
 2.4070	 7.2070
 2.4080	 7.1740
 2.4090	 7.1290
 2.4100	 7.0780
 2.4110	 7.0350
 2.4120	 6.9940
 2.4130	 6.9620
 2.4140	 6.9400
 2.4150	 6.9080
 2.4160	 6.8620
 2.4170	 6.8160
 2.4180	 6.7750
 2.4190	 6.7450
 2.4200	 6.7090
 2.4210	 6.6660
 2.4220	 6.6260
 2.4230	 6.5800
 2.4240	 6.5330
 2.4250	 6.4910
 2.4260	 6.4500
 2.4270	 6.4070
 2.4280	 6.3590
 2.4290	 6.3210
 2.4300	 6.2850
 2.4310	 6.2300
 2.4320	 6.1840
 2.4330	 6.1420
 2.4340	 6.0930
 2.4350	 6.0560
 2.4360	 6.0190
 2.4370	 5.9920
 2.4380	 5.9630
 2.4390	 5.9370
 2.4400	 5.9200
 2.4410	 5.8850
 2.4420	 5.8520
 2.4430	 5.8110
 2.4440	 5.7700
 2.4450	 5.7380
 2.4460	 5.6860
 2.4470	 5.6380
 2.4480	 5.5860
 2.4490	 5.5140
 2.4500	 5.4710
 2.4510	 5.4470
 2.4520	 5.4210
 2.4530	 5.4010
 2.4540	 5.3820
 2.4550	 5.3620
 2.4560	 5.3280
 2.4570	 5.2980
 2.4580	 5.2620
 2.4590	 5.1980
 2.4600	 5.1570
 2.4610	 5.1360
 2.4620	 5.1090
 2.4630	 5.0860
 2.4640	 5.0590
 2.4650	 5.0340
 2.4660	 5.0040
 2.4670	 4.9750
 2.4680	 4.9460
 2.4690	 4.9230
 2.4700	 4.8960
 2.4710	 4.8700
 2.4720	 4.8620
 2.4730	 4.8610
 2.4740	 4.8420
 2.4750	 4.8320
 2.4760	 4.8070
 2.4770	 4.7640
 2.4780	 4.7280
 2.4790	 4.6920
 2.4800	 4.6720
 2.4810	 4.6490
 2.4820	 4.6210
 2.4830	 4.6130
 2.4840	 4.5830
 2.4850	 4.5750
 2.4860	 4.5990
 2.4870	 4.6000
 2.4880	 4.5710
 2.4890	 4.5270
 2.4900	 4.5020
 2.4910	 4.4960
 2.4920	 4.5010
 2.4930	 4.4920
 2.4940	 4.4450
 2.4950	 4.3770
 2.4960	 4.3280
 2.4970	 4.3140
 2.4980	 4.3020
 2.4990	 4.2960
 2.5000	 4.2800
