Name: Avena fatua
Type: vegetation
Class: grass
Genus: Avena
Species: fatua
Sample No.: VH352
Owner: UCSB
Wavelength Range: TIR
Origin: 34.5143; -119.798367; WGS84
Collection Date: 3/18/2015
Description: Samples were collected as part of the HyspIRI Airborne Campaign proposal titled: HyspIRI discrimination of plant species and functional types along a strong environmental temperature gradient. The same materials were processed in the Nicolet and then measured using the ASD.
Measurement: Hemispherical reflectance
First Column: X
Second Column: Y
X Units: Wavelength (micrometer)
Y Units: Reflectance (percentage)
First X Value: 2.501
Last X Value: 15.341
Number of X Values: 1736
Additional Information: 

 2.5010	 4.8670
 2.5030	 4.7350
 2.5040	 4.7290
 2.5050	 4.8330
 2.5060	 4.8780
 2.5070	 4.8110
 2.5090	 4.8330
 2.5100	 4.8430
 2.5110	 4.7840
 2.5120	 4.7360
 2.5140	 4.7680
 2.5150	 4.7570
 2.5160	 4.7330
 2.5170	 4.7250
 2.5180	 4.7520
 2.5200	 4.8390
 2.5210	 4.8070
 2.5220	 4.7660
 2.5230	 4.7680
 2.5250	 4.7590
 2.5260	 4.7500
 2.5270	 4.6940
 2.5280	 4.6210
 2.5300	 4.6360
 2.5310	 4.6510
 2.5320	 4.6340
 2.5330	 4.6500
 2.5340	 4.6950
 2.5360	 4.7520
 2.5370	 4.8200
 2.5380	 4.7990
 2.5390	 4.7540
 2.5410	 4.7520
 2.5420	 4.7100
 2.5430	 4.6940
 2.5440	 4.6730
 2.5460	 4.6630
 2.5470	 4.7400
 2.5480	 4.8050
 2.5490	 4.7280
 2.5510	 4.6940
 2.5520	 4.7050
 2.5530	 4.7210
 2.5540	 4.7160
 2.5560	 4.7750
 2.5570	 4.8000
 2.5580	 4.7860
 2.5590	 4.7780
 2.5610	 4.6850
 2.5620	 4.5960
 2.5630	 4.6440
 2.5650	 4.6580
 2.5660	 4.7060
 2.5670	 4.7370
 2.5680	 4.7950
 2.5700	 4.7680
 2.5710	 4.7090
 2.5720	 4.7120
 2.5730	 4.7030
 2.5750	 4.6660
 2.5760	 4.6310
 2.5770	 4.6550
 2.5790	 4.6560
 2.5800	 4.6800
 2.5810	 4.7260
 2.5820	 4.7110
 2.5840	 4.6450
 2.5850	 4.6320
 2.5860	 4.6610
 2.5880	 4.6110
 2.5890	 4.5980
 2.5900	 4.6090
 2.5910	 4.5590
 2.5930	 4.5090
 2.5940	 4.5340
 2.5950	 4.5540
 2.5970	 4.5920
 2.5980	 4.5660
 2.5990	 4.5070
 2.6010	 4.4500
 2.6020	 4.4530
 2.6030	 4.4700
 2.6040	 4.4180
 2.6060	 4.3810
 2.6070	 4.3260
 2.6080	 4.2680
 2.6100	 4.2270
 2.6110	 4.2070
 2.6120	 4.2190
 2.6140	 4.1770
 2.6150	 4.1750
 2.6160	 4.2020
 2.6180	 4.1850
 2.6190	 4.1070
 2.6200	 4.0700
 2.6220	 4.0190
 2.6230	 3.9700
 2.6240	 3.9500
 2.6260	 3.9410
 2.6270	 3.8810
 2.6280	 3.9030
 2.6300	 3.8620
 2.6310	 3.8650
 2.6320	 3.8370
 2.6340	 3.8040
 2.6350	 3.8040
 2.6360	 3.8070
 2.6380	 3.8020
 2.6390	 3.7420
 2.6400	 3.6090
 2.6420	 3.6070
 2.6430	 3.6260
 2.6440	 3.5430
 2.6460	 3.5120
 2.6470	 3.5120
 2.6480	 3.4440
 2.6500	 3.4120
 2.6510	 3.4140
 2.6520	 3.3880
 2.6540	 3.3270
 2.6550	 3.2950
 2.6570	 3.3610
 2.6580	 3.4070
 2.6590	 3.3130
 2.6610	 3.2290
 2.6620	 3.1420
 2.6630	 3.1340
 2.6650	 3.1180
 2.6660	 3.1040
 2.6670	 3.1130
 2.6690	 3.0700
 2.6700	 3.0440
 2.6720	 3.0520
 2.6730	 3.0570
 2.6740	 3.0690
 2.6760	 3.0280
 2.6770	 2.9620
 2.6780	 2.8800
 2.6800	 2.8720
 2.6810	 2.8840
 2.6830	 2.9490
 2.6840	 2.9360
 2.6850	 2.8990
 2.6870	 2.8290
 2.6880	 2.7440
 2.6900	 2.6810
 2.6910	 2.7630
 2.6920	 2.7900
 2.6940	 2.7390
 2.6950	 2.6370
 2.6970	 2.6200
 2.6980	 2.6280
 2.6990	 2.5890
 2.7010	 2.5750
 2.7020	 2.5370
 2.7040	 2.4820
 2.7050	 2.4470
 2.7060	 2.4050
 2.7080	 2.4410
 2.7090	 2.4100
 2.7110	 2.3870
 2.7120	 2.3880
 2.7130	 2.3590
 2.7150	 2.3120
 2.7160	 2.2970
 2.7180	 2.2870
 2.7190	 2.3890
 2.7210	 2.3910
 2.7220	 2.3170
 2.7230	 2.2130
 2.7250	 2.2120
 2.7260	 2.2580
 2.7280	 2.2640
 2.7290	 2.2480
 2.7310	 2.2410
 2.7320	 2.1940
 2.7340	 2.1820
 2.7350	 2.1140
 2.7360	 2.1360
 2.7380	 2.2000
 2.7390	 2.1970
 2.7410	 2.1160
 2.7420	 2.0650
 2.7440	 2.0550
 2.7450	 2.1300
 2.7470	 2.1100
 2.7480	 2.0540
 2.7490	 2.0600
 2.7510	 2.1220
 2.7520	 2.0800
 2.7540	 2.0680
 2.7550	 2.0330
 2.7570	 1.9670
 2.7580	 1.9580
 2.7600	 1.9220
 2.7610	 1.8640
 2.7630	 1.9520
 2.7640	 1.9910
 2.7660	 1.9140
 2.7670	 1.8650
 2.7690	 1.9440
 2.7700	 1.9820
 2.7720	 1.9830
 2.7730	 1.9260
 2.7740	 1.9150
 2.7760	 1.7970
 2.7770	 1.7350
 2.7790	 1.7840
 2.7800	 1.8090
 2.7820	 1.7960
 2.7830	 1.8240
 2.7850	 1.8410
 2.7860	 1.8350
 2.7880	 1.7820
 2.7890	 1.7810
 2.7910	 1.8070
 2.7920	 1.8010
 2.7940	 1.8130
 2.7950	 1.7990
 2.7970	 1.7550
 2.7980	 1.7710
 2.8000	 1.8070
 2.8010	 1.7760
 2.8030	 1.7380
 2.8040	 1.7540
 2.8060	 1.7290
 2.8080	 1.7310
 2.8090	 1.7090
 2.8110	 1.7440
 2.8120	 1.7450
 2.8140	 1.7080
 2.8150	 1.5970
 2.8170	 1.5560
 2.8180	 1.6230
 2.8200	 1.6960
 2.8210	 1.6440
 2.8230	 1.5900
 2.8240	 1.5960
 2.8260	 1.6570
 2.8270	 1.5450
 2.8290	 1.4960
 2.8310	 1.5560
 2.8320	 1.5510
 2.8340	 1.5010
 2.8350	 1.6050
 2.8370	 1.6780
 2.8380	 1.6400
 2.8400	 1.4970
 2.8410	 1.4950
 2.8430	 1.5850
 2.8440	 1.6550
 2.8460	 1.6020
 2.8480	 1.5320
 2.8490	 1.4740
 2.8510	 1.4890
 2.8520	 1.4970
 2.8540	 1.5280
 2.8550	 1.5160
 2.8570	 1.4860
 2.8590	 1.4640
 2.8600	 1.4950
 2.8620	 1.4940
 2.8630	 1.4630
 2.8650	 1.3920
 2.8660	 1.4060
 2.8680	 1.4550
 2.8700	 1.4960
 2.8710	 1.4560
 2.8730	 1.3960
 2.8740	 1.3830
 2.8760	 1.4400
 2.8780	 1.4790
 2.8790	 1.4680
 2.8810	 1.3690
 2.8820	 1.3350
 2.8840	 1.4090
 2.8860	 1.5000
 2.8870	 1.4830
 2.8890	 1.5410
 2.8900	 1.5130
 2.8920	 1.3460
 2.8940	 1.2910
 2.8950	 1.3440
 2.8970	 1.3780
 2.8990	 1.4110
 2.9000	 1.3410
 2.9020	 1.2820
 2.9030	 1.2570
 2.9050	 1.3280
 2.9070	 1.3370
 2.9080	 1.3530
 2.9100	 1.3440
 2.9120	 1.2990
 2.9130	 1.2880
 2.9150	 1.2960
 2.9160	 1.2780
 2.9180	 1.2950
 2.9200	 1.2220
 2.9210	 1.2500
 2.9230	 1.3310
 2.9250	 1.3660
 2.9260	 1.3800
 2.9280	 1.3650
 2.9300	 1.2980
 2.9310	 1.2750
 2.9330	 1.3880
 2.9350	 1.3630
 2.9360	 1.2680
 2.9380	 1.3080
 2.9400	 1.3260
 2.9410	 1.3140
 2.9430	 1.3200
 2.9450	 1.3350
 2.9460	 1.3500
 2.9480	 1.3380
 2.9500	 1.2290
 2.9510	 1.2150
 2.9530	 1.2460
 2.9550	 1.3490
 2.9560	 1.4120
 2.9580	 1.3960
 2.9600	 1.3970
 2.9610	 1.3870
 2.9630	 1.3960
 2.9650	 1.3680
 2.9670	 1.3850
 2.9680	 1.3590
 2.9700	 1.3070
 2.9720	 1.3280
 2.9730	 1.3020
 2.9750	 1.3300
 2.9770	 1.3580
 2.9780	 1.3280
 2.9800	 1.2900
 2.9820	 1.3340
 2.9840	 1.3730
 2.9850	 1.4370
 2.9870	 1.4130
 2.9890	 1.3690
 2.9900	 1.3700
 2.9920	 1.3860
 2.9940	 1.3670
 2.9960	 1.4030
 2.9970	 1.3620
 2.9990	 1.3500
 3.0010	 1.3440
 3.0030	 1.4140
 3.0040	 1.4180
 3.0060	 1.3990
 3.0080	 1.3560
 3.0100	 1.3660
 3.0110	 1.4170
 3.0130	 1.4140
 3.0150	 1.4260
 3.0170	 1.4170
 3.0180	 1.4070
 3.0200	 1.3700
 3.0220	 1.2670
 3.0240	 1.2360
 3.0250	 1.3250
 3.0270	 1.4140
 3.0290	 1.4210
 3.0310	 1.3640
 3.0320	 1.3200
 3.0340	 1.3870
 3.0360	 1.4580
 3.0380	 1.4800
 3.0400	 1.4340
 3.0410	 1.4700
 3.0430	 1.4370
 3.0450	 1.3690
 3.0470	 1.4020
 3.0480	 1.4700
 3.0500	 1.4370
 3.0520	 1.4320
 3.0540	 1.4680
 3.0560	 1.5100
 3.0570	 1.5470
 3.0590	 1.5790
 3.0610	 1.5060
 3.0630	 1.5010
 3.0650	 1.5090
 3.0670	 1.5000
 3.0680	 1.5330
 3.0700	 1.5050
 3.0720	 1.4100
 3.0740	 1.4090
 3.0760	 1.4390
 3.0770	 1.4710
 3.0790	 1.4630
 3.0810	 1.4910
 3.0830	 1.5330
 3.0850	 1.5390
 3.0870	 1.5420
 3.0880	 1.5700
 3.0900	 1.5420
 3.0920	 1.5110
 3.0940	 1.4850
 3.0960	 1.5010
 3.0980	 1.5430
 3.1000	 1.5970
 3.1010	 1.6200
 3.1030	 1.5990
 3.1050	 1.5920
 3.1070	 1.6120
 3.1090	 1.5750
 3.1110	 1.5850
 3.1130	 1.5890
 3.1140	 1.6440
 3.1160	 1.6480
 3.1180	 1.6020
 3.1200	 1.6020
 3.1220	 1.6680
 3.1240	 1.6870
 3.1260	 1.7190
 3.1280	 1.7010
 3.1290	 1.6860
 3.1310	 1.6650
 3.1330	 1.6450
 3.1350	 1.6510
 3.1370	 1.6800
 3.1390	 1.6780
 3.1410	 1.6780
 3.1430	 1.6720
 3.1450	 1.6950
 3.1470	 1.6930
 3.1480	 1.6840
 3.1500	 1.6900
 3.1520	 1.7170
 3.1540	 1.7410
 3.1560	 1.7660
 3.1580	 1.7350
 3.1600	 1.7170
 3.1620	 1.7250
 3.1640	 1.7800
 3.1660	 1.7760
 3.1680	 1.8150
 3.1700	 1.8260
 3.1720	 1.7890
 3.1730	 1.7540
 3.1750	 1.7920
 3.1770	 1.7750
 3.1790	 1.7750
 3.1810	 1.7860
 3.1830	 1.8130
 3.1850	 1.8180
 3.1870	 1.8250
 3.1890	 1.8240
 3.1910	 1.7820
 3.1930	 1.7890
 3.1950	 1.8920
 3.1970	 1.9070
 3.1990	 1.8720
 3.2010	 1.8000
 3.2030	 1.8090
 3.2050	 1.7820
 3.2070	 1.8080
 3.2090	 1.8270
 3.2110	 1.8090
 3.2130	 1.7790
 3.2150	 1.7970
 3.2170	 1.8390
 3.2190	 1.8930
 3.2210	 1.8640
 3.2230	 1.8380
 3.2250	 1.8000
 3.2270	 1.8390
 3.2290	 1.8620
 3.2310	 1.8720
 3.2330	 1.8540
 3.2350	 1.8640
 3.2370	 1.7980
 3.2390	 1.8040
 3.2410	 1.8320
 3.2430	 1.8580
 3.2450	 1.8280
 3.2470	 1.8010
 3.2490	 1.7850
 3.2510	 1.8540
 3.2530	 1.8930
 3.2550	 1.9400
 3.2570	 1.9440
 3.2590	 1.9350
 3.2610	 1.9430
 3.2630	 1.9410
 3.2650	 1.9440
 3.2670	 1.9770
 3.2700	 1.9450
 3.2720	 1.9180
 3.2740	 1.9470
 3.2760	 1.9350
 3.2780	 1.9070
 3.2800	 1.9030
 3.2820	 1.8940
 3.2840	 1.9070
 3.2860	 1.9410
 3.2880	 1.9870
 3.2900	 1.9630
 3.2920	 1.9510
 3.2940	 1.9390
 3.2970	 1.9190
 3.2990	 1.8990
 3.3010	 1.9090
 3.3030	 1.8750
 3.3050	 1.8640
 3.3070	 1.9380
 3.3090	 1.9830
 3.3110	 1.9960
 3.3130	 1.9730
 3.3160	 1.9450
 3.3180	 1.9340
 3.3200	 1.9270
 3.3220	 1.9750
 3.3240	 1.9680
 3.3260	 1.9430
 3.3280	 1.9570
 3.3300	 1.9820
 3.3330	 1.9560
 3.3350	 1.9440
 3.3370	 1.9210
 3.3390	 1.9400
 3.3410	 2.0070
 3.3430	 2.0280
 3.3450	 1.9820
 3.3480	 1.9500
 3.3500	 1.9420
 3.3520	 1.9810
 3.3540	 1.9910
 3.3560	 1.9950
 3.3580	 2.0200
 3.3610	 2.0170
 3.3630	 1.9410
 3.3650	 1.8960
 3.3670	 1.9110
 3.3690	 1.9620
 3.3720	 1.9750
 3.3740	 1.9820
 3.3760	 1.9800
 3.3780	 2.0650
 3.3800	 2.0980
 3.3830	 2.0580
 3.3850	 1.9850
 3.3870	 1.9490
 3.3890	 1.9480
 3.3910	 1.9970
 3.3940	 2.0590
 3.3960	 2.1310
 3.3980	 2.1360
 3.4000	 2.1160
 3.4030	 2.1540
 3.4050	 2.2090
 3.4070	 2.3140
 3.4090	 2.4910
 3.4110	 2.5740
 3.4140	 2.6280
 3.4160	 2.6560
 3.4180	 2.7400
 3.4200	 2.8220
 3.4230	 2.9140
 3.4250	 2.9660
 3.4270	 2.9940
 3.4300	 2.9500
 3.4320	 2.8080
 3.4340	 2.6570
 3.4360	 2.6000
 3.4390	 2.5410
 3.4410	 2.4460
 3.4430	 2.4390
 3.4450	 2.4350
 3.4480	 2.3950
 3.4500	 2.3740
 3.4520	 2.3520
 3.4550	 2.3130
 3.4570	 2.2940
 3.4590	 2.3460
 3.4620	 2.3060
 3.4640	 2.3010
 3.4660	 2.3150
 3.4690	 2.2910
 3.4710	 2.2600
 3.4730	 2.2100
 3.4760	 2.1940
 3.4780	 2.1950
 3.4800	 2.1510
 3.4830	 2.2190
 3.4850	 2.2770
 3.4870	 2.2540
 3.4900	 2.2150
 3.4920	 2.2370
 3.4940	 2.3350
 3.4970	 2.4160
 3.4990	 2.4590
 3.5010	 2.5040
 3.5040	 2.5750
 3.5060	 2.7550
 3.5080	 2.8940
 3.5110	 2.9490
 3.5130	 2.8600
 3.5160	 2.6920
 3.5180	 2.6090
 3.5200	 2.5780
 3.5230	 2.5820
 3.5250	 2.5770
 3.5280	 2.5410
 3.5300	 2.5320
 3.5320	 2.4990
 3.5350	 2.5120
 3.5370	 2.5410
 3.5400	 2.5630
 3.5420	 2.5800
 3.5440	 2.5500
 3.5470	 2.5390
 3.5490	 2.4990
 3.5520	 2.4950
 3.5540	 2.5420
 3.5570	 2.5550
 3.5590	 2.5380
 3.5610	 2.5190
 3.5640	 2.5400
 3.5660	 2.5440
 3.5690	 2.5310
 3.5710	 2.5330
 3.5740	 2.6030
 3.5760	 2.5920
 3.5790	 2.5290
 3.5810	 2.5610
 3.5840	 2.5970
 3.5860	 2.6260
 3.5890	 2.6460
 3.5910	 2.6260
 3.5940	 2.6450
 3.5960	 2.6870
 3.5990	 2.6990
 3.6010	 2.6680
 3.6040	 2.6840
 3.6060	 2.7230
 3.6090	 2.7130
 3.6110	 2.6800
 3.6140	 2.6920
 3.6160	 2.7200
 3.6190	 2.7410
 3.6210	 2.7530
 3.6240	 2.7690
 3.6260	 2.7180
 3.6290	 2.7060
 3.6310	 2.7150
 3.6340	 2.7720
 3.6360	 2.7990
 3.6390	 2.8000
 3.6410	 2.8100
 3.6440	 2.7980
 3.6470	 2.7840
 3.6490	 2.8170
 3.6520	 2.8360
 3.6540	 2.8350
 3.6570	 2.8380
 3.6590	 2.8860
 3.6620	 2.9220
 3.6650	 2.8970
 3.6670	 2.8720
 3.6700	 2.8720
 3.6720	 2.8570
 3.6750	 2.8860
 3.6780	 2.9050
 3.6800	 2.9430
 3.6830	 2.9540
 3.6850	 2.8980
 3.6880	 2.9440
 3.6910	 3.0530
 3.6930	 3.0700
 3.6960	 3.0260
 3.6990	 3.0130
 3.7010	 3.0030
 3.7040	 3.0320
 3.7070	 3.0660
 3.7090	 3.0730
 3.7120	 3.1190
 3.7150	 3.1340
 3.7170	 3.0900
 3.7200	 3.1170
 3.7230	 3.1220
 3.7250	 3.1160
 3.7280	 3.1060
 3.7310	 3.1310
 3.7330	 3.1610
 3.7360	 3.1760
 3.7390	 3.1690
 3.7410	 3.1810
 3.7440	 3.1720
 3.7470	 3.1890
 3.7490	 3.2450
 3.7520	 3.2830
 3.7550	 3.2690
 3.7580	 3.2520
 3.7600	 3.1960
 3.7630	 3.2060
 3.7660	 3.2820
 3.7690	 3.3330
 3.7710	 3.3020
 3.7740	 3.2810
 3.7770	 3.3360
 3.7790	 3.3610
 3.7820	 3.3630
 3.7850	 3.4000
 3.7880	 3.3820
 3.7910	 3.3580
 3.7930	 3.3760
 3.7960	 3.3910
 3.7990	 3.3670
 3.8020	 3.3600
 3.8040	 3.3930
 3.8070	 3.4040
 3.8100	 3.4220
 3.8130	 3.4600
 3.8160	 3.4660
 3.8180	 3.4530
 3.8210	 3.4440
 3.8240	 3.4360
 3.8270	 3.4270
 3.8300	 3.4610
 3.8330	 3.5140
 3.8350	 3.5340
 3.8380	 3.5410
 3.8410	 3.5390
 3.8440	 3.4830
 3.8470	 3.4650
 3.8500	 3.5040
 3.8520	 3.5280
 3.8550	 3.5480
 3.8580	 3.5970
 3.8610	 3.5660
 3.8640	 3.4980
 3.8670	 3.5110
 3.8700	 3.5550
 3.8730	 3.5610
 3.8760	 3.5530
 3.8780	 3.5190
 3.8810	 3.5050
 3.8840	 3.5570
 3.8870	 3.5780
 3.8900	 3.5150
 3.8930	 3.4790
 3.8960	 3.4530
 3.8990	 3.4800
 3.9020	 3.4890
 3.9050	 3.4580
 3.9080	 3.4630
 3.9110	 3.5130
 3.9140	 3.5440
 3.9170	 3.5240
 3.9190	 3.5010
 3.9220	 3.5140
 3.9250	 3.5160
 3.9280	 3.4900
 3.9310	 3.4720
 3.9340	 3.4870
 3.9370	 3.5000
 3.9400	 3.4890
 3.9430	 3.4650
 3.9460	 3.4780
 3.9490	 3.4840
 3.9520	 3.4990
 3.9550	 3.4970
 3.9580	 3.4880
 3.9610	 3.5030
 3.9640	 3.4890
 3.9670	 3.4460
 3.9700	 3.4210
 3.9740	 3.3630
 3.9770	 3.3730
 3.9800	 3.3680
 3.9830	 3.3620
 3.9860	 3.3790
 3.9890	 3.3930
 3.9920	 3.3470
 3.9950	 3.3570
 3.9980	 3.3450
 4.0010	 3.3740
 4.0040	 3.4120
 4.0070	 3.4270
 4.0100	 3.4250
 4.0140	 3.4200
 4.0170	 3.3910
 4.0200	 3.3810
 4.0230	 3.3670
 4.0260	 3.3430
 4.0290	 3.3390
 4.0320	 3.3550
 4.0350	 3.3880
 4.0390	 3.3660
 4.0420	 3.3270
 4.0450	 3.3550
 4.0480	 3.3830
 4.0510	 3.3840
 4.0540	 3.3230
 4.0570	 3.2710
 4.0610	 3.2560
 4.0640	 3.2500
 4.0670	 3.2530
 4.0700	 3.2900
 4.0730	 3.2860
 4.0770	 3.2680
 4.0800	 3.2460
 4.0830	 3.2480
 4.0860	 3.2530
 4.0890	 3.2970
 4.0930	 3.3130
 4.0960	 3.2910
 4.0990	 3.2860
 4.1020	 3.2600
 4.1060	 3.2530
 4.1090	 3.2380
 4.1120	 3.1740
 4.1150	 3.1790
 4.1190	 3.1560
 4.1220	 3.1390
 4.1250	 3.1610
 4.1290	 3.1560
 4.1320	 3.1230
 4.1350	 3.1410
 4.1380	 3.1590
 4.1420	 3.1620
 4.1450	 3.1440
 4.1480	 3.1680
 4.1520	 3.1820
 4.1550	 3.1400
 4.1580	 3.1190
 4.1620	 3.1410
 4.1650	 3.1500
 4.1680	 3.1440
 4.1720	 3.1240
 4.1750	 3.1110
 4.1780	 3.0790
 4.1820	 3.0630
 4.1850	 3.0220
 4.1890	 3.0500
 4.1920	 3.1000
 4.1950	 3.1230
 4.1990	 3.1200
 4.2020	 3.1300
 4.2060	 3.1140
 4.2090	 3.1430
 4.2120	 3.1570
 4.2160	 3.2010
 4.2190	 3.2020
 4.2230	 3.1220
 4.2260	 3.0790
 4.2300	 3.0910
 4.2330	 3.1970
 4.2360	 3.3100
 4.2400	 3.3470
 4.2430	 3.2450
 4.2470	 3.1720
 4.2500	 3.2000
 4.2540	 3.1570
 4.2570	 3.0670
 4.2610	 3.0620
 4.2640	 3.1660
 4.2680	 3.1790
 4.2710	 3.1590
 4.2750	 3.1030
 4.2780	 3.0640
 4.2820	 3.0570
 4.2850	 3.0690
 4.2890	 3.0030
 4.2930	 3.0360
 4.2960	 3.0540
 4.3000	 2.9960
 4.3030	 2.8910
 4.3070	 2.8780
 4.3100	 2.9020
 4.3140	 2.9110
 4.3180	 2.9360
 4.3210	 2.9350
 4.3250	 2.9140
 4.3280	 2.9290
 4.3320	 2.8590
 4.3360	 2.8450
 4.3390	 2.8430
 4.3430	 2.8270
 4.3470	 2.7910
 4.3500	 2.8060
 4.3540	 2.8230
 4.3580	 2.8110
 4.3610	 2.7720
 4.3650	 2.7820
 4.3690	 2.8180
 4.3720	 2.8120
 4.3760	 2.7370
 4.3800	 2.7170
 4.3830	 2.7470
 4.3870	 2.7770
 4.3910	 2.7310
 4.3940	 2.7060
 4.3980	 2.6860
 4.4020	 2.6940
 4.4060	 2.7300
 4.4090	 2.6960
 4.4130	 2.6330
 4.4170	 2.6680
 4.4210	 2.6520
 4.4240	 2.6470
 4.4280	 2.6310
 4.4320	 2.6510
 4.4360	 2.6780
 4.4400	 2.6780
 4.4430	 2.6550
 4.4470	 2.6660
 4.4510	 2.6360
 4.4550	 2.6260
 4.4590	 2.6400
 4.4630	 2.6500
 4.4660	 2.6260
 4.4700	 2.5870
 4.4740	 2.5490
 4.4780	 2.5920
 4.4820	 2.5830
 4.4860	 2.5920
 4.4900	 2.6240
 4.4930	 2.6200
 4.4970	 2.5530
 4.5010	 2.5580
 4.5050	 2.5790
 4.5090	 2.6070
 4.5130	 2.5970
 4.5170	 2.5930
 4.5210	 2.5690
 4.5250	 2.5790
 4.5290	 2.5850
 4.5330	 2.5880
 4.5370	 2.5770
 4.5410	 2.5840
 4.5450	 2.6120
 4.5490	 2.6080
 4.5530	 2.5220
 4.5570	 2.5090
 4.5610	 2.4680
 4.5650	 2.4640
 4.5690	 2.4860
 4.5730	 2.5020
 4.5770	 2.4790
 4.5810	 2.4910
 4.5850	 2.4840
 4.5890	 2.5210
 4.5930	 2.5210
 4.5970	 2.5080
 4.6010	 2.5180
 4.6050	 2.5210
 4.6090	 2.4860
 4.6130	 2.4780
 4.6170	 2.4440
 4.6220	 2.4420
 4.6260	 2.4110
 4.6300	 2.4510
 4.6340	 2.4930
 4.6380	 2.4700
 4.6420	 2.4410
 4.6460	 2.4750
 4.6510	 2.4500
 4.6550	 2.4820
 4.6590	 2.4540
 4.6630	 2.4600
 4.6670	 2.4640
 4.6720	 2.4780
 4.6760	 2.4510
 4.6800	 2.4330
 4.6840	 2.4230
 4.6880	 2.4870
 4.6930	 2.4820
 4.6970	 2.4510
 4.7010	 2.4350
 4.7050	 2.4730
 4.7100	 2.4990
 4.7140	 2.4690
 4.7180	 2.4330
 4.7230	 2.4530
 4.7270	 2.4450
 4.7310	 2.4500
 4.7360	 2.4310
 4.7400	 2.4530
 4.7440	 2.4440
 4.7490	 2.4330
 4.7530	 2.4180
 4.7570	 2.4510
 4.7620	 2.4440
 4.7660	 2.5100
 4.7700	 2.5560
 4.7750	 2.5450
 4.7790	 2.5150
 4.7840	 2.5300
 4.7880	 2.5020
 4.7920	 2.5070
 4.7970	 2.4760
 4.8010	 2.4650
 4.8060	 2.4430
 4.8100	 2.4870
 4.8150	 2.5090
 4.8190	 2.4970
 4.8240	 2.4800
 4.8280	 2.5170
 4.8330	 2.5150
 4.8370	 2.5450
 4.8420	 2.5260
 4.8460	 2.4930
 4.8510	 2.4440
 4.8550	 2.4580
 4.8600	 2.4710
 4.8640	 2.4960
 4.8690	 2.4860
 4.8740	 2.5370
 4.8780	 2.5050
 4.8830	 2.4990
 4.8870	 2.5560
 4.8920	 2.6030
 4.8970	 2.5510
 4.9010	 2.5650
 4.9060	 2.5830
 4.9100	 2.5880
 4.9150	 2.5460
 4.9200	 2.5640
 4.9240	 2.5630
 4.9290	 2.5400
 4.9340	 2.5220
 4.9390	 2.5640
 4.9430	 2.5760
 4.9480	 2.6020
 4.9530	 2.5910
 4.9570	 2.6530
 4.9620	 2.6440
 4.9670	 2.6280
 4.9720	 2.6290
 4.9760	 2.6220
 4.9810	 2.5780
 4.9860	 2.6340
 4.9910	 2.6430
 4.9960	 2.6360
 5.0000	 2.6090
 5.0050	 2.6350
 5.0100	 2.6180
 5.0150	 2.6530
 5.0200	 2.6480
 5.0250	 2.6750
 5.0300	 2.6880
 5.0340	 2.6740
 5.0390	 2.6360
 5.0440	 2.6980
 5.0490	 2.7080
 5.0540	 2.7120
 5.0590	 2.6830
 5.0640	 2.7450
 5.0690	 2.7300
 5.0740	 2.7060
 5.0790	 2.6950
 5.0840	 2.7240
 5.0890	 2.7010
 5.0940	 2.7270
 5.0990	 2.7540
 5.1040	 2.8020
 5.1090	 2.7980
 5.1140	 2.7690
 5.1190	 2.7680
 5.1240	 2.8130
 5.1290	 2.7430
 5.1340	 2.7660
 5.1390	 2.7900
 5.1440	 2.7700
 5.1490	 2.7140
 5.1550	 2.7400
 5.1600	 2.7670
 5.1650	 2.8210
 5.1700	 2.7830
 5.1750	 2.7900
 5.1800	 2.7790
 5.1850	 2.7940
 5.1910	 2.7870
 5.1960	 2.8390
 5.2010	 2.8510
 5.2060	 2.8390
 5.2110	 2.7680
 5.2170	 2.7800
 5.2220	 2.7750
 5.2270	 2.7720
 5.2330	 2.7670
 5.2380	 2.8210
 5.2430	 2.8080
 5.2480	 2.8380
 5.2540	 2.8020
 5.2590	 2.7870
 5.2640	 2.7580
 5.2700	 2.7780
 5.2750	 2.8110
 5.2800	 2.8270
 5.2860	 2.7580
 5.2910	 2.7740
 5.2970	 2.7510
 5.3020	 2.7660
 5.3080	 2.7990
 5.3130	 2.8380
 5.3180	 2.7850
 5.3240	 2.7500
 5.3290	 2.7390
 5.3350	 2.7440
 5.3400	 2.7160
 5.3460	 2.7840
 5.3510	 2.7670
 5.3570	 2.7430
 5.3620	 2.7260
 5.3680	 2.7770
 5.3740	 2.7600
 5.3790	 2.7710
 5.3850	 2.7260
 5.3900	 2.7200
 5.3960	 2.6980
 5.4010	 2.7480
 5.4070	 2.7130
 5.4130	 2.7470
 5.4180	 2.7730
 5.4240	 2.7210
 5.4300	 2.6470
 5.4350	 2.6780
 5.4410	 2.6650
 5.4470	 2.6660
 5.4530	 2.6040
 5.4580	 2.6230
 5.4640	 2.6140
 5.4700	 2.6290
 5.4760	 2.5980
 5.4810	 2.5880
 5.4870	 2.5090
 5.4930	 2.5040
 5.4990	 2.5060
 5.5050	 2.5230
 5.5110	 2.4940
 5.5160	 2.5510
 5.5220	 2.4900
 5.5280	 2.4470
 5.5340	 2.4470
 5.5400	 2.4630
 5.5460	 2.4050
 5.5520	 2.4210
 5.5580	 2.4040
 5.5640	 2.3740
 5.5700	 2.3840
 5.5760	 2.4110
 5.5820	 2.3320
 5.5880	 2.3110
 5.5940	 2.2900
 5.6000	 2.3210
 5.6060	 2.2900
 5.6120	 2.3030
 5.6180	 2.2490
 5.6240	 2.2280
 5.6300	 2.2190
 5.6360	 2.2430
 5.6420	 2.2210
 5.6490	 2.2110
 5.6550	 2.1030
 5.6610	 2.0670
 5.6670	 2.0390
 5.6730	 2.0710
 5.6800	 2.0220
 5.6860	 1.9920
 5.6920	 1.9270
 5.6980	 1.9380
 5.7050	 1.8470
 5.7110	 1.7960
 5.7170	 1.7570
 5.7230	 1.7850
 5.7300	 1.7570
 5.7360	 1.8160
 5.7420	 1.8520
 5.7490	 1.9130
 5.7550	 1.9460
 5.7620	 2.0220
 5.7680	 2.0300
 5.7740	 2.1030
 5.7810	 2.1150
 5.7870	 2.1530
 5.7940	 2.1220
 5.8000	 2.0790
 5.8070	 1.9860
 5.8130	 2.0330
 5.8200	 2.0400
 5.8260	 2.0320
 5.8330	 1.9750
 5.8390	 2.0120
 5.8460	 1.9560
 5.8530	 1.9710
 5.8590	 1.9070
 5.8660	 1.9130
 5.8730	 1.8880
 5.8790	 1.9250
 5.8860	 1.8580
 5.8930	 1.8650
 5.8990	 1.7960
 5.9060	 1.8050
 5.9130	 1.8210
 5.9190	 1.8480
 5.9260	 1.7660
 5.9330	 1.7660
 5.9400	 1.7220
 5.9470	 1.7300
 5.9530	 1.7110
 5.9600	 1.7100
 5.9670	 1.6230
 5.9740	 1.6240
 5.9810	 1.5920
 5.9880	 1.6630
 5.9950	 1.6700
 6.0020	 1.7050
 6.0090	 1.6910
 6.0160	 1.7120
 6.0230	 1.6640
 6.0300	 1.6480
 6.0370	 1.5640
 6.0440	 1.5910
 6.0510	 1.5570
 6.0580	 1.6100
 6.0650	 1.6270
 6.0720	 1.6960
 6.0790	 1.6220
 6.0860	 1.7120
 6.0930	 1.8000
 6.1010	 1.8070
 6.1080	 1.7690
 6.1150	 1.8200
 6.1220	 1.7580
 6.1290	 1.8410
 6.1370	 1.8340
 6.1440	 1.8260
 6.1510	 1.8170
 6.1580	 1.9270
 6.1660	 1.8590
 6.1730	 1.8730
 6.1800	 1.8950
 6.1880	 1.9670
 6.1950	 1.9520
 6.2030	 1.9840
 6.2100	 1.9730
 6.2180	 2.0190
 6.2250	 1.9560
 6.2320	 2.0030
 6.2400	 2.0270
 6.2480	 2.0720
 6.2550	 2.0820
 6.2630	 2.1480
 6.2700	 2.0210
 6.2780	 2.0280
 6.2850	 2.0260
 6.2930	 2.0280
 6.3010	 1.9730
 6.3080	 2.0280
 6.3160	 1.9630
 6.3240	 2.0360
 6.3310	 2.1050
 6.3390	 2.1930
 6.3470	 2.1000
 6.3550	 2.0770
 6.3620	 2.0660
 6.3700	 2.0850
 6.3780	 2.0020
 6.3860	 2.0720
 6.3940	 2.0800
 6.4020	 2.0780
 6.4100	 1.9760
 6.4180	 2.0100
 6.4260	 2.0090
 6.4340	 2.0210
 6.4420	 1.9930
 6.4500	 2.0600
 6.4580	 2.0760
 6.4660	 2.0910
 6.4740	 1.9830
 6.4820	 2.0080
 6.4900	 1.9870
 6.4980	 1.9840
 6.5060	 1.9530
 6.5140	 2.0320
 6.5230	 2.0400
 6.5310	 2.0510
 6.5390	 1.9710
 6.5470	 1.9700
 6.5560	 1.9450
 6.5640	 1.9940
 6.5720	 1.9530
 6.5800	 1.9440
 6.5890	 1.9210
 6.5970	 1.9480
 6.6060	 1.9320
 6.6140	 2.0530
 6.6230	 2.0050
 6.6310	 1.9900
 6.6390	 1.9530
 6.6480	 2.0140
 6.6570	 1.9680
 6.6650	 1.9550
 6.6740	 1.9250
 6.6820	 1.9370
 6.6910	 1.8550
 6.7000	 1.9230
 6.7080	 1.9130
 6.7170	 1.9100
 6.7260	 1.9000
 6.7340	 1.9360
 6.7430	 1.8150
 6.7520	 1.8270
 6.7610	 1.8300
 6.7690	 1.8850
 6.7780	 1.8500
 6.7870	 1.9880
 6.7960	 1.9020
 6.8050	 1.8670
 6.8140	 1.8690
 6.8230	 1.9730
 6.8320	 1.9970
 6.8410	 2.0080
 6.8500	 1.9310
 6.8590	 1.9620
 6.8680	 1.9080
 6.8770	 1.9320
 6.8860	 1.8970
 6.8960	 1.9520
 6.9050	 1.8900
 6.9140	 1.8610
 6.9230	 1.7960
 6.9320	 1.8710
 6.9420	 1.7960
 6.9510	 1.8260
 6.9600	 1.8290
 6.9700	 1.8590
 6.9790	 1.8240
 6.9880	 1.8820
 6.9980	 1.8470
 7.0070	 1.8650
 7.0170	 1.8040
 7.0260	 1.8360
 7.0360	 1.7570
 7.0450	 1.7570
 7.0550	 1.7530
 7.0650	 1.8930
 7.0740	 1.8750
 7.0840	 1.8640
 7.0940	 1.7710
 7.1030	 1.8480
 7.1130	 1.8650
 7.1230	 1.9160
 7.1330	 1.8250
 7.1420	 1.8730
 7.1520	 1.8800
 7.1620	 1.9440
 7.1720	 1.8400
 7.1820	 1.7720
 7.1920	 1.6810
 7.2020	 1.7360
 7.2120	 1.7190
 7.2220	 1.7790
 7.2320	 1.6830
 7.2420	 1.7160
 7.2520	 1.6820
 7.2620	 1.7210
 7.2730	 1.6890
 7.2830	 1.7600
 7.2930	 1.7510
 7.3030	 1.7890
 7.3140	 1.7560
 7.3240	 1.8380
 7.3340	 1.7640
 7.3450	 1.7990
 7.3550	 1.7250
 7.3660	 1.7270
 7.3760	 1.7680
 7.3870	 1.8510
 7.3970	 1.7550
 7.4080	 1.8050
 7.4180	 1.7680
 7.4290	 1.8170
 7.4400	 1.7740
 7.4500	 1.8390
 7.4610	 1.8090
 7.4720	 1.8360
 7.4830	 1.7620
 7.4930	 1.7800
 7.5040	 1.7050
 7.5150	 1.7670
 7.5260	 1.7430
 7.5370	 1.7540
 7.5480	 1.6630
 7.5590	 1.7190
 7.5700	 1.6960
 7.5810	 1.7350
 7.5920	 1.6840
 7.6030	 1.7600
 7.6140	 1.7080
 7.6260	 1.8040
 7.6370	 1.7700
 7.6480	 1.8220
 7.6590	 1.6830
 7.6710	 1.7140
 7.6820	 1.7400
 7.6940	 1.8090
 7.7050	 1.7450
 7.7160	 1.8470
 7.7280	 1.8170
 7.7390	 1.8090
 7.7510	 1.7210
 7.7630	 1.7940
 7.7740	 1.7670
 7.7860	 1.8010
 7.7980	 1.7160
 7.8090	 1.7680
 7.8210	 1.7150
 7.8330	 1.7280
 7.8450	 1.6630
 7.8570	 1.8110
 7.8690	 1.8300
 7.8810	 1.8530
 7.8930	 1.7600
 7.9050	 1.7950
 7.9170	 1.7540
 7.9290	 1.7640
 7.9410	 1.6710
 7.9530	 1.8100
 7.9650	 1.8600
 7.9780	 1.9190
 7.9900	 1.8580
 8.0020	 1.9540
 8.0150	 1.9050
 8.0270	 1.9540
 8.0390	 1.8560
 8.0520	 1.9180
 8.0640	 1.9670
 8.0770	 2.0370
 8.0900	 1.8580
 8.1020	 1.9150
 8.1150	 1.8510
 8.1280	 2.0130
 8.1400	 1.9970
 8.1530	 2.0390
 8.1660	 1.9680
 8.1790	 2.0440
 8.1920	 1.9250
 8.2050	 1.9970
 8.2180	 1.8890
 8.2310	 1.8910
 8.2440	 1.8260
 8.2570	 1.9420
 8.2700	 1.9520
 8.2830	 2.0440
 8.2970	 1.8690
 8.3100	 1.9520
 8.3230	 1.9170
 8.3370	 2.0540
 8.3500	 1.9830
 8.3640	 1.9830
 8.3770	 1.8100
 8.3910	 1.9200
 8.4040	 1.9190
 8.4180	 1.9520
 8.4320	 1.8770
 8.4450	 1.9850
 8.4590	 1.8790
 8.4730	 1.9100
 8.4870	 1.8120
 8.5010	 1.8990
 8.5150	 1.7860
 8.5290	 1.8800
 8.5430	 1.7280
 8.5570	 1.6670
 8.5710	 1.4940
 8.5850	 1.5730
 8.5990	 1.4890
 8.6140	 1.5990
 8.6280	 1.5300
 8.6420	 1.6480
 8.6570	 1.5620
 8.6710	 1.6590
 8.6860	 1.6220
 8.7000	 1.7700
 8.7150	 1.7000
 8.7300	 1.8020
 8.7440	 1.7650
 8.7590	 1.8600
 8.7740	 1.7740
 8.7890	 1.8710
 8.8040	 1.7580
 8.8190	 1.8460
 8.8340	 1.8690
 8.8490	 2.0410
 8.8640	 1.9180
 8.8790	 1.9110
 8.8940	 1.6860
 8.9100	 1.7670
 8.9250	 1.8310
 8.9400	 2.0050
 8.9560	 1.9010
 8.9710	 2.0500
 8.9870	 1.9950
 9.0020	 2.1250
 9.0180	 2.0850
 9.0340	 2.2480
 9.0500	 2.1390
 9.0650	 2.3290
 9.0810	 2.3340
 9.0970	 2.4320
 9.1130	 2.3200
 9.1290	 2.4580
 9.1450	 2.3420
 9.1620	 2.3950
 9.1780	 2.3090
 9.1940	 2.4090
 9.2100	 2.2940
 9.2270	 2.3040
 9.2430	 2.1390
 9.2600	 2.2260
 9.2760	 2.1400
 9.2930	 2.2710
 9.3100	 2.2790
 9.3260	 2.4130
 9.3430	 2.2060
 9.3600	 2.2920
 9.3770	 2.3140
 9.3940	 2.4640
 9.4110	 2.3810
 9.4280	 2.5870
 9.4450	 2.4890
 9.4620	 2.5580
 9.4800	 2.5630
 9.4970	 2.7500
 9.5150	 2.7050
 9.5320	 2.8420
 9.5500	 2.9400
 9.5670	 3.1840
 9.5850	 2.9690
 9.6030	 2.8950
 9.6200	 2.7560
 9.6380	 2.9440
 9.6560	 2.9370
 9.6740	 3.1020
 9.6920	 3.0030
 9.7110	 3.0240
 9.7290	 2.9070
 9.7470	 3.0300
 9.7650	 2.9840
 9.7840	 3.1590
 9.8020	 3.0200
 9.8210	 3.1400
 9.8390	 3.0650
 9.8580	 3.1480
 9.8770	 3.0580
 9.8960	 3.1240
 9.9150	 2.8510
 9.9340	 2.8380
 9.9530	 2.8120
 9.9720	 2.9920
 9.9910	 2.8960
10.0100	 3.0060
10.0300	 2.9150
10.0490	 2.9790
10.0690	 2.9110
10.0880	 3.0070
10.1080	 2.9160
10.1280	 3.0500
10.1480	 3.0130
10.1670	 3.1180
10.1870	 3.0110
10.2070	 3.1130
10.2280	 2.9540
10.2480	 3.0430
10.2680	 2.9280
10.2890	 2.9590
10.3090	 2.8970
10.3300	 3.0260
10.3500	 2.8890
10.3710	 2.9830
10.3920	 2.8830
10.4120	 3.0020
10.4330	 2.8540
10.4540	 2.9690
10.4760	 2.9270
10.4970	 3.0620
10.5180	 2.9580
10.5390	 3.0580
10.5610	 2.9110
10.5820	 2.9740
10.6040	 2.8650
10.6260	 2.9610
10.6480	 2.8470
10.6700	 2.8780
10.6920	 2.7510
10.7140	 2.9620
10.7360	 2.8630
10.7580	 2.8380
10.7800	 2.6760
10.8030	 2.8450
10.8250	 2.6890
10.8480	 2.7470
10.8710	 2.6370
10.8940	 2.7110
10.9170	 2.5130
10.9400	 2.6020
10.9630	 2.5570
10.9860	 2.7000
11.0090	 2.4870
11.0330	 2.7200
11.0560	 2.7150
11.0800	 2.6910
11.1040	 2.4200
11.1270	 2.5960
11.1510	 2.5300
11.1750	 2.6630
11.2000	 2.5140
11.2240	 2.5820
11.2480	 2.4190
11.2730	 2.5910
11.2970	 2.5000
11.3220	 2.6010
11.3470	 2.5280
11.3720	 2.6660
11.3970	 2.5490
11.4220	 2.5960
11.4470	 2.4350
11.4720	 2.7210
11.4980	 2.5560
11.5230	 2.6350
11.5490	 2.5080
11.5750	 2.6700
11.6000	 2.5100
11.6260	 2.6830
11.6530	 2.5810
11.6790	 2.6970
11.7050	 2.5370
11.7320	 2.5770
11.7580	 2.3660
11.7850	 2.5240
11.8120	 2.4340
11.8390	 2.5950
11.8660	 2.3930
11.8930	 2.5450
11.9200	 2.3710
11.9480	 2.4680
11.9760	 2.3270
12.0030	 2.4490
12.0310	 2.3310
12.0590	 2.5380
12.0870	 2.3430
12.1150	 2.4920
12.1440	 2.3990
12.1720	 2.4390
12.2010	 2.1900
12.2300	 2.4370
12.2590	 2.3410
12.2880	 2.4660
12.3170	 2.2570
12.3460	 2.3900
12.3760	 2.2920
12.4050	 2.4460
12.4350	 2.2590
12.4650	 2.4700
12.4950	 2.3670
12.5250	 2.4900
12.5550	 2.3130
12.5860	 2.4410
12.6170	 2.2080
12.6470	 2.3870
12.6780	 2.2370
12.7090	 2.5000
12.7410	 2.3880
12.7720	 2.5090
12.8030	 2.3110
12.8350	 2.5280
12.8670	 2.2360
12.8990	 2.3960
12.9310	 2.3380
12.9640	 2.5570
12.9960	 2.2890
13.0290	 2.3920
13.0610	 2.1120
13.0940	 2.2630
13.1280	 2.2780
13.1610	 2.5610
13.1940	 2.2740
13.2280	 2.5590
13.2620	 2.3760
13.2960	 2.5230
13.3300	 2.3220
13.3640	 2.4540
13.3990	 2.3300
13.4340	 2.6030
13.4690	 2.2670
13.5040	 2.5100
13.5390	 2.3370
13.5740	 2.5170
13.6100	 2.4190
13.6460	 2.6530
13.6820	 2.3440
13.7180	 2.3580
13.7540	 1.9330
13.7910	 2.3000
13.8280	 2.5070
13.8650	 2.7990
13.9020	 2.3890
13.9390	 2.4440
13.9770	 2.1810
14.0150	 2.4620
14.0530	 2.3110
14.0910	 2.6270
14.1290	 2.3820
14.1680	 2.4390
14.2070	 2.1520
14.2460	 2.4890
14.2850	 2.1720
14.3240	 2.5380
14.3640	 2.3360
14.4040	 2.6380
14.4440	 2.3060
14.4840	 2.6240
14.5250	 2.4470
14.5660	 2.7230
14.6070	 2.2480
14.6480	 2.5650
14.6900	 2.2560
14.7310	 2.5980
14.7730	 2.2640
14.8150	 2.7040
14.8580	 2.4290
14.9010	 2.7600
14.9440	 2.3760
14.9870	 3.1810
15.0300	 2.8910
15.0740	 3.3420
15.1180	 2.6260
15.1620	 2.9650
15.2060	 2.5500
15.2510	 3.0220
15.2960	 2.7480
15.3410	 3.1440
