Name: Heteromeles arbutifolia 3
Type: vegetation
Class: Shrub
Genus: Heteromeles
Species: arbutifolia
Sample No.: VH017
Owner: UCSB
Wavelength Range: VSWIR
Origin: 34.4908; -119.7912; WGS84
Collection Date: 4/1/2013
Description: Samples were collected as part of the HyspIRI Airborne Campaign. 48 individual plants were sampled in three times in 2013 - spring  summer  and fall. The name of the sample includes a 1  2  or 3 which references a different individual of the species. Samples were taken to JPL and processed within 48 hours of collection. The same leaves were processed in the Nicolet and then measured using the ASD.
Measurement: Bidirectional reflectance
First Column: X
Second Column: Y
X Units: Wavelength (micrometers)
Y Units: Reflectance (percentage)
First X Value: 0.35
Last X Value: 2.5
Number of X Values: 2151
Additional Information: vegetation.shrub.heteromeles.arbutifolia.vswir.vh017.ucsb.asd.ancillary.txt

 0.3500	 0.8520
 0.3510	 1.3860
 0.3520	 1.5620
 0.3530	 1.4220
 0.3540	 1.2240
 0.3550	 1.1630
 0.3560	 1.2660
 0.3570	 1.3810
 0.3580	 1.3130
 0.3590	 1.3520
 0.3600	 1.3830
 0.3610	 1.3480
 0.3620	 1.3230
 0.3630	 1.2620
 0.3640	 1.2380
 0.3650	 1.3000
 0.3660	 1.2800
 0.3670	 1.3790
 0.3680	 1.4800
 0.3690	 1.2990
 0.3700	 1.2840
 0.3710	 1.3640
 0.3720	 1.4120
 0.3730	 1.3320
 0.3740	 1.3190
 0.3750	 1.3810
 0.3760	 1.4360
 0.3770	 1.3160
 0.3780	 1.2540
 0.3790	 1.2800
 0.3800	 1.2500
 0.3810	 1.2570
 0.3820	 1.2560
 0.3830	 1.2320
 0.3840	 1.2920
 0.3850	 1.3010
 0.3860	 1.2660
 0.3870	 1.2500
 0.3880	 1.2550
 0.3890	 1.2810
 0.3900	 1.2940
 0.3910	 1.2280
 0.3920	 1.2730
 0.3930	 1.3100
 0.3940	 1.2540
 0.3950	 1.2760
 0.3960	 1.3310
 0.3970	 1.3680
 0.3980	 1.3430
 0.3990	 1.2680
 0.4000	 1.2550
 0.4010	 1.3090
 0.4020	 1.2940
 0.4030	 1.2500
 0.4040	 1.2470
 0.4050	 1.3160
 0.4060	 1.3380
 0.4070	 1.3180
 0.4080	 1.2830
 0.4090	 1.2690
 0.4100	 1.2960
 0.4110	 1.3090
 0.4120	 1.2890
 0.4130	 1.2860
 0.4140	 1.3140
 0.4150	 1.3340
 0.4160	 1.3150
 0.4170	 1.3340
 0.4180	 1.3480
 0.4190	 1.3430
 0.4200	 1.3370
 0.4210	 1.3600
 0.4220	 1.3830
 0.4230	 1.3870
 0.4240	 1.3970
 0.4250	 1.4170
 0.4260	 1.4370
 0.4270	 1.4410
 0.4280	 1.4470
 0.4290	 1.4630
 0.4300	 1.4900
 0.4310	 1.5190
 0.4320	 1.5330
 0.4330	 1.5430
 0.4340	 1.5640
 0.4350	 1.5850
 0.4360	 1.5920
 0.4370	 1.5950
 0.4380	 1.6160
 0.4390	 1.6290
 0.4400	 1.6280
 0.4410	 1.6170
 0.4420	 1.6180
 0.4430	 1.6270
 0.4440	 1.6420
 0.4450	 1.6600
 0.4460	 1.6740
 0.4470	 1.6820
 0.4480	 1.6850
 0.4490	 1.6910
 0.4500	 1.6950
 0.4510	 1.6980
 0.4520	 1.7060
 0.4530	 1.7260
 0.4540	 1.7330
 0.4550	 1.7310
 0.4560	 1.7430
 0.4570	 1.7480
 0.4580	 1.7490
 0.4590	 1.7500
 0.4600	 1.7510
 0.4610	 1.7590
 0.4620	 1.7620
 0.4630	 1.7500
 0.4640	 1.7370
 0.4650	 1.7490
 0.4660	 1.7740
 0.4670	 1.7620
 0.4680	 1.7650
 0.4690	 1.7690
 0.4700	 1.7600
 0.4710	 1.7690
 0.4720	 1.7720
 0.4730	 1.7660
 0.4740	 1.7600
 0.4750	 1.7630
 0.4760	 1.7680
 0.4770	 1.7670
 0.4780	 1.7610
 0.4790	 1.7700
 0.4800	 1.7830
 0.4810	 1.7810
 0.4820	 1.7800
 0.4830	 1.7800
 0.4840	 1.7790
 0.4850	 1.7750
 0.4860	 1.7790
 0.4870	 1.7890
 0.4880	 1.8010
 0.4890	 1.8120
 0.4900	 1.8140
 0.4910	 1.8120
 0.4920	 1.8170
 0.4930	 1.8200
 0.4940	 1.8300
 0.4950	 1.8460
 0.4960	 1.8540
 0.4970	 1.8640
 0.4980	 1.8760
 0.4990	 1.8920
 0.5000	 1.9140
 0.5010	 1.9370
 0.5020	 1.9550
 0.5030	 1.9680
 0.5040	 1.9980
 0.5050	 2.0360
 0.5060	 2.0710
 0.5070	 2.1000
 0.5080	 2.1320
 0.5090	 2.1680
 0.5100	 2.2090
 0.5110	 2.2690
 0.5120	 2.3270
 0.5130	 2.3770
 0.5140	 2.4330
 0.5150	 2.5020
 0.5160	 2.5760
 0.5170	 2.6500
 0.5180	 2.7310
 0.5190	 2.8140
 0.5200	 2.9010
 0.5210	 2.9980
 0.5220	 3.0920
 0.5230	 3.1790
 0.5240	 3.2600
 0.5250	 3.3490
 0.5260	 3.4390
 0.5270	 3.5280
 0.5280	 3.6110
 0.5290	 3.6960
 0.5300	 3.7750
 0.5310	 3.8460
 0.5320	 3.9100
 0.5330	 3.9720
 0.5340	 4.0320
 0.5350	 4.0910
 0.5360	 4.1370
 0.5370	 4.1810
 0.5380	 4.2260
 0.5390	 4.2690
 0.5400	 4.3180
 0.5410	 4.3710
 0.5420	 4.4210
 0.5430	 4.4610
 0.5440	 4.5030
 0.5450	 4.5400
 0.5460	 4.5610
 0.5470	 4.5650
 0.5480	 4.5710
 0.5490	 4.5880
 0.5500	 4.6100
 0.5510	 4.6220
 0.5520	 4.6260
 0.5530	 4.6290
 0.5540	 4.6240
 0.5550	 4.6090
 0.5560	 4.5870
 0.5570	 4.5640
 0.5580	 4.5330
 0.5590	 4.4980
 0.5600	 4.4600
 0.5610	 4.4120
 0.5620	 4.3630
 0.5630	 4.3130
 0.5640	 4.2620
 0.5650	 4.2090
 0.5660	 4.1490
 0.5670	 4.0870
 0.5680	 4.0300
 0.5690	 3.9640
 0.5700	 3.8960
 0.5710	 3.8350
 0.5720	 3.7720
 0.5730	 3.7110
 0.5740	 3.6530
 0.5750	 3.5920
 0.5760	 3.5400
 0.5770	 3.4920
 0.5780	 3.4460
 0.5790	 3.4010
 0.5800	 3.3580
 0.5810	 3.3200
 0.5820	 3.2890
 0.5830	 3.2600
 0.5840	 3.2330
 0.5850	 3.2090
 0.5860	 3.1860
 0.5870	 3.1670
 0.5880	 3.1460
 0.5890	 3.1220
 0.5900	 3.1010
 0.5910	 3.0820
 0.5920	 3.0670
 0.5930	 3.0600
 0.5940	 3.0460
 0.5950	 3.0310
 0.5960	 3.0170
 0.5970	 3.0030
 0.5980	 2.9920
 0.5990	 2.9820
 0.6000	 2.9720
 0.6010	 2.9550
 0.6020	 2.9390
 0.6030	 2.9250
 0.6040	 2.9010
 0.6050	 2.8780
 0.6060	 2.8560
 0.6070	 2.8290
 0.6080	 2.8010
 0.6090	 2.7830
 0.6100	 2.7730
 0.6110	 2.7610
 0.6120	 2.7310
 0.6130	 2.6890
 0.6140	 2.6440
 0.6150	 2.6120
 0.6160	 2.5800
 0.6170	 2.5490
 0.6180	 2.5230
 0.6190	 2.5060
 0.6200	 2.4910
 0.6210	 2.4760
 0.6220	 2.4650
 0.6230	 2.4520
 0.6240	 2.4370
 0.6250	 2.4240
 0.6260	 2.4190
 0.6270	 2.4170
 0.6280	 2.4140
 0.6290	 2.4090
 0.6300	 2.4090
 0.6310	 2.4080
 0.6320	 2.4020
 0.6330	 2.3940
 0.6340	 2.3870
 0.6350	 2.3790
 0.6360	 2.3660
 0.6370	 2.3470
 0.6380	 2.3260
 0.6390	 2.3070
 0.6400	 2.2840
 0.6410	 2.2620
 0.6420	 2.2400
 0.6430	 2.2170
 0.6440	 2.1890
 0.6450	 2.1600
 0.6460	 2.1350
 0.6470	 2.1130
 0.6480	 2.0870
 0.6490	 2.0660
 0.6500	 2.0520
 0.6510	 2.0400
 0.6520	 2.0240
 0.6530	 2.0050
 0.6540	 1.9880
 0.6550	 1.9760
 0.6560	 1.9620
 0.6570	 1.9450
 0.6580	 1.9260
 0.6590	 1.9040
 0.6600	 1.8820
 0.6610	 1.8630
 0.6620	 1.8460
 0.6630	 1.8260
 0.6640	 1.8070
 0.6650	 1.7900
 0.6660	 1.7780
 0.6670	 1.7680
 0.6680	 1.7600
 0.6690	 1.7530
 0.6700	 1.7480
 0.6710	 1.7460
 0.6720	 1.7470
 0.6730	 1.7480
 0.6740	 1.7510
 0.6750	 1.7580
 0.6760	 1.7660
 0.6770	 1.7750
 0.6780	 1.7860
 0.6790	 1.7990
 0.6800	 1.8140
 0.6810	 1.8350
 0.6820	 1.8570
 0.6830	 1.8800
 0.6840	 1.9090
 0.6850	 1.9430
 0.6860	 1.9840
 0.6870	 2.0310
 0.6880	 2.0890
 0.6890	 2.1590
 0.6900	 2.2440
 0.6910	 2.3510
 0.6920	 2.4820
 0.6930	 2.6380
 0.6940	 2.8260
 0.6950	 3.0500
 0.6960	 3.3120
 0.6970	 3.6130
 0.6980	 3.9540
 0.6990	 4.3320
 0.7000	 4.7500
 0.7010	 5.2040
 0.7020	 5.6810
 0.7030	 6.1830
 0.7040	 6.7070
 0.7050	 7.2500
 0.7060	 7.8050
 0.7070	 8.3760
 0.7080	 8.9580
 0.7090	 9.5470
 0.7100	10.1490
 0.7110	10.7630
 0.7120	11.3860
 0.7130	12.0150
 0.7140	12.6500
 0.7150	13.2920
 0.7160	13.9380
 0.7170	14.5860
 0.7180	15.2350
 0.7190	15.8840
 0.7200	16.5300
 0.7210	17.1730
 0.7220	17.8080
 0.7230	18.4300
 0.7240	19.0380
 0.7250	19.6320
 0.7260	20.2120
 0.7270	20.7750
 0.7280	21.3140
 0.7290	21.8310
 0.7300	22.3270
 0.7310	22.8000
 0.7320	23.2520
 0.7330	23.6790
 0.7340	24.0840
 0.7350	24.4670
 0.7360	24.8280
 0.7370	25.1650
 0.7380	25.4810
 0.7390	25.7790
 0.7400	26.0610
 0.7410	26.3210
 0.7420	26.5570
 0.7430	26.7830
 0.7440	26.9900
 0.7450	27.1770
 0.7460	27.3550
 0.7470	27.5160
 0.7480	27.6640
 0.7490	27.8010
 0.7500	27.9270
 0.7510	28.0390
 0.7520	28.1400
 0.7530	28.2350
 0.7540	28.3170
 0.7550	28.3920
 0.7560	28.4610
 0.7570	28.5230
 0.7580	28.5770
 0.7590	28.6280
 0.7600	28.6770
 0.7610	28.7210
 0.7620	28.7570
 0.7630	28.7890
 0.7640	28.8230
 0.7650	28.8500
 0.7660	28.8740
 0.7670	28.8960
 0.7680	28.9160
 0.7690	28.9320
 0.7700	28.9470
 0.7710	28.9630
 0.7720	28.9750
 0.7730	28.9860
 0.7740	28.9960
 0.7750	29.0030
 0.7760	29.0140
 0.7770	29.0230
 0.7780	29.0310
 0.7790	29.0410
 0.7800	29.0440
 0.7810	29.0500
 0.7820	29.0600
 0.7830	29.0640
 0.7840	29.0670
 0.7850	29.0720
 0.7860	29.0780
 0.7870	29.0810
 0.7880	29.0800
 0.7890	29.0810
 0.7900	29.0860
 0.7910	29.0920
 0.7920	29.0960
 0.7930	29.0980
 0.7940	29.1040
 0.7950	29.1080
 0.7960	29.1100
 0.7970	29.1120
 0.7980	29.1140
 0.7990	29.1170
 0.8000	29.1180
 0.8010	29.1160
 0.8020	29.1170
 0.8030	29.1190
 0.8040	29.1230
 0.8050	29.1270
 0.8060	29.1260
 0.8070	29.1250
 0.8080	29.1270
 0.8090	29.1320
 0.8100	29.1360
 0.8110	29.1380
 0.8120	29.1390
 0.8130	29.1400
 0.8140	29.1420
 0.8150	29.1450
 0.8160	29.1450
 0.8170	29.1470
 0.8180	29.1490
 0.8190	29.1510
 0.8200	29.1550
 0.8210	29.1580
 0.8220	29.1620
 0.8230	29.1680
 0.8240	29.1730
 0.8250	29.1770
 0.8260	29.1790
 0.8270	29.1800
 0.8280	29.1830
 0.8290	29.1850
 0.8300	29.1850
 0.8310	29.1850
 0.8320	29.1860
 0.8330	29.1920
 0.8340	29.2000
 0.8350	29.2020
 0.8360	29.2080
 0.8370	29.2140
 0.8380	29.2180
 0.8390	29.2200
 0.8400	29.2260
 0.8410	29.2330
 0.8420	29.2390
 0.8430	29.2470
 0.8440	29.2550
 0.8450	29.2610
 0.8460	29.2650
 0.8470	29.2670
 0.8480	29.2740
 0.8490	29.2850
 0.8500	29.2940
 0.8510	29.2960
 0.8520	29.3010
 0.8530	29.3110
 0.8540	29.3200
 0.8550	29.3200
 0.8560	29.3230
 0.8570	29.3310
 0.8580	29.3330
 0.8590	29.3360
 0.8600	29.3380
 0.8610	29.3410
 0.8620	29.3470
 0.8630	29.3530
 0.8640	29.3570
 0.8650	29.3560
 0.8660	29.3590
 0.8670	29.3660
 0.8680	29.3740
 0.8690	29.3770
 0.8700	29.3800
 0.8710	29.3790
 0.8720	29.3750
 0.8730	29.3760
 0.8740	29.3830
 0.8750	29.3870
 0.8760	29.3880
 0.8770	29.3940
 0.8780	29.3970
 0.8790	29.3940
 0.8800	29.3890
 0.8810	29.3900
 0.8820	29.3960
 0.8830	29.3990
 0.8840	29.3970
 0.8850	29.3970
 0.8860	29.3970
 0.8870	29.3980
 0.8880	29.4000
 0.8890	29.3940
 0.8900	29.3880
 0.8910	29.3860
 0.8920	29.3880
 0.8930	29.3830
 0.8940	29.3780
 0.8950	29.3760
 0.8960	29.3730
 0.8970	29.3720
 0.8980	29.3710
 0.8990	29.3670
 0.9000	29.3550
 0.9010	29.3530
 0.9020	29.3520
 0.9030	29.3470
 0.9040	29.3460
 0.9050	29.3460
 0.9060	29.3430
 0.9070	29.3380
 0.9080	29.3370
 0.9090	29.3340
 0.9100	29.3280
 0.9110	29.3200
 0.9120	29.3150
 0.9130	29.3070
 0.9140	29.3020
 0.9150	29.3040
 0.9160	29.2960
 0.9170	29.2960
 0.9180	29.2960
 0.9190	29.2860
 0.9200	29.2810
 0.9210	29.2720
 0.9220	29.2610
 0.9230	29.2570
 0.9240	29.2430
 0.9250	29.2300
 0.9260	29.2220
 0.9270	29.2120
 0.9280	29.2040
 0.9290	29.1920
 0.9300	29.1800
 0.9310	29.1770
 0.9320	29.1600
 0.9330	29.1440
 0.9340	29.1330
 0.9350	29.1100
 0.9360	29.0940
 0.9370	29.0780
 0.9380	29.0600
 0.9390	29.0490
 0.9400	29.0410
 0.9410	29.0230
 0.9420	28.9940
 0.9430	28.9710
 0.9440	28.9420
 0.9450	28.9130
 0.9460	28.8890
 0.9470	28.8530
 0.9480	28.8150
 0.9490	28.7790
 0.9500	28.7460
 0.9510	28.7130
 0.9520	28.6690
 0.9530	28.6180
 0.9540	28.5700
 0.9550	28.5320
 0.9560	28.4880
 0.9570	28.4460
 0.9580	28.4100
 0.9590	28.3620
 0.9600	28.3180
 0.9610	28.2820
 0.9620	28.2500
 0.9630	28.2110
 0.9640	28.1900
 0.9650	28.1740
 0.9660	28.1430
 0.9670	28.1380
 0.9680	28.1300
 0.9690	28.1170
 0.9700	28.1060
 0.9710	28.0850
 0.9720	28.0670
 0.9730	28.0600
 0.9740	28.0630
 0.9750	28.0470
 0.9760	28.0300
 0.9770	28.0280
 0.9780	28.0430
 0.9790	28.0290
 0.9800	28.0360
 0.9810	28.0490
 0.9820	28.0380
 0.9830	28.0410
 0.9840	28.0380
 0.9850	28.0350
 0.9860	28.0420
 0.9870	28.0540
 0.9880	28.0650
 0.9890	28.0810
 0.9900	28.1050
 0.9910	28.1160
 0.9920	28.1390
 0.9930	28.1620
 0.9940	28.1850
 0.9950	28.2080
 0.9960	28.2320
 0.9970	28.2550
 0.9980	28.2780
 0.9990	28.3010
 1.0000	28.3240
 1.0010	28.3470
 1.0020	28.3700
 1.0030	28.3930
 1.0040	28.4160
 1.0050	28.4390
 1.0060	28.4620
 1.0070	28.4860
 1.0080	28.5090
 1.0090	28.5320
 1.0100	28.5320
 1.0110	28.5480
 1.0120	28.5660
 1.0130	28.5840
 1.0140	28.6030
 1.0150	28.6220
 1.0160	28.6420
 1.0170	28.6580
 1.0180	28.6740
 1.0190	28.6850
 1.0200	28.6970
 1.0210	28.7120
 1.0220	28.7290
 1.0230	28.7460
 1.0240	28.7690
 1.0250	28.7860
 1.0260	28.8000
 1.0270	28.8140
 1.0280	28.8250
 1.0290	28.8390
 1.0300	28.8560
 1.0310	28.8720
 1.0320	28.8900
 1.0330	28.9060
 1.0340	28.9200
 1.0350	28.9320
 1.0360	28.9460
 1.0370	28.9580
 1.0380	28.9710
 1.0390	28.9840
 1.0400	28.9990
 1.0410	29.0150
 1.0420	29.0290
 1.0430	29.0450
 1.0440	29.0570
 1.0450	29.0640
 1.0460	29.0740
 1.0470	29.0830
 1.0480	29.0910
 1.0490	29.0990
 1.0500	29.1070
 1.0510	29.1150
 1.0520	29.1230
 1.0530	29.1300
 1.0540	29.1360
 1.0550	29.1430
 1.0560	29.1500
 1.0570	29.1560
 1.0580	29.1640
 1.0590	29.1700
 1.0600	29.1760
 1.0610	29.1800
 1.0620	29.1840
 1.0630	29.1880
 1.0640	29.1890
 1.0650	29.1900
 1.0660	29.1870
 1.0670	29.1890
 1.0680	29.1930
 1.0690	29.1980
 1.0700	29.1990
 1.0710	29.2010
 1.0720	29.2000
 1.0730	29.1920
 1.0740	29.1900
 1.0750	29.1880
 1.0760	29.1880
 1.0770	29.1880
 1.0780	29.1870
 1.0790	29.1880
 1.0800	29.1870
 1.0810	29.1820
 1.0820	29.1790
 1.0830	29.1750
 1.0840	29.1690
 1.0850	29.1620
 1.0860	29.1560
 1.0870	29.1500
 1.0880	29.1440
 1.0890	29.1370
 1.0900	29.1310
 1.0910	29.1230
 1.0920	29.1150
 1.0930	29.1070
 1.0940	29.0990
 1.0950	29.0900
 1.0960	29.0800
 1.0970	29.0710
 1.0980	29.0610
 1.0990	29.0520
 1.1000	29.0430
 1.1010	29.0340
 1.1020	29.0250
 1.1030	29.0150
 1.1040	29.0040
 1.1050	28.9930
 1.1060	28.9820
 1.1070	28.9710
 1.1080	28.9590
 1.1090	28.9480
 1.1100	28.9350
 1.1110	28.9200
 1.1120	28.9040
 1.1130	28.8870
 1.1140	28.8700
 1.1150	28.8530
 1.1160	28.8340
 1.1170	28.8160
 1.1180	28.7950
 1.1190	28.7750
 1.1200	28.7500
 1.1210	28.7210
 1.1220	28.6910
 1.1230	28.6570
 1.1240	28.6220
 1.1250	28.5820
 1.1260	28.5400
 1.1270	28.4940
 1.1280	28.4460
 1.1290	28.3910
 1.1300	28.3310
 1.1310	28.2660
 1.1320	28.1950
 1.1330	28.1220
 1.1340	28.0460
 1.1350	27.9650
 1.1360	27.8790
 1.1370	27.7890
 1.1380	27.6940
 1.1390	27.5950
 1.1400	27.4930
 1.1410	27.3900
 1.1420	27.2840
 1.1430	27.1790
 1.1440	27.0740
 1.1450	26.9670
 1.1460	26.8620
 1.1470	26.7570
 1.1480	26.6550
 1.1490	26.5530
 1.1500	26.4570
 1.1510	26.3660
 1.1520	26.2790
 1.1530	26.1960
 1.1540	26.1160
 1.1550	26.0390
 1.1560	25.9680
 1.1570	25.9030
 1.1580	25.8420
 1.1590	25.7870
 1.1600	25.7360
 1.1610	25.6880
 1.1620	25.6440
 1.1630	25.6040
 1.1640	25.5660
 1.1650	25.5310
 1.1660	25.4980
 1.1670	25.4670
 1.1680	25.4380
 1.1690	25.4110
 1.1700	25.3870
 1.1710	25.3620
 1.1720	25.3380
 1.1730	25.3150
 1.1740	25.2960
 1.1750	25.2740
 1.1760	25.2520
 1.1770	25.2310
 1.1780	25.2050
 1.1790	25.1790
 1.1800	25.1550
 1.1810	25.1310
 1.1820	25.1080
 1.1830	25.0870
 1.1840	25.0650
 1.1850	25.0440
 1.1860	25.0220
 1.1870	25.0020
 1.1880	24.9840
 1.1890	24.9670
 1.1900	24.9510
 1.1910	24.9380
 1.1920	24.9250
 1.1930	24.9130
 1.1940	24.9020
 1.1950	24.8930
 1.1960	24.8850
 1.1970	24.8780
 1.1980	24.8730
 1.1990	24.8700
 1.2000	24.8710
 1.2010	24.8760
 1.2020	24.8810
 1.2030	24.8900
 1.2040	24.9010
 1.2050	24.9120
 1.2060	24.9280
 1.2070	24.9470
 1.2080	24.9670
 1.2090	24.9890
 1.2100	25.0120
 1.2110	25.0370
 1.2120	25.0620
 1.2130	25.0890
 1.2140	25.1190
 1.2150	25.1490
 1.2160	25.1800
 1.2170	25.2090
 1.2180	25.2400
 1.2190	25.2720
 1.2200	25.3040
 1.2210	25.3390
 1.2220	25.3710
 1.2230	25.4030
 1.2240	25.4340
 1.2250	25.4640
 1.2260	25.4930
 1.2270	25.5210
 1.2280	25.5470
 1.2290	25.5740
 1.2300	25.6010
 1.2310	25.6260
 1.2320	25.6510
 1.2330	25.6740
 1.2340	25.6960
 1.2350	25.7150
 1.2360	25.7360
 1.2370	25.7570
 1.2380	25.7780
 1.2390	25.7970
 1.2400	25.8160
 1.2410	25.8360
 1.2420	25.8530
 1.2430	25.8710
 1.2440	25.8900
 1.2450	25.9060
 1.2460	25.9220
 1.2470	25.9360
 1.2480	25.9490
 1.2490	25.9620
 1.2500	25.9730
 1.2510	25.9850
 1.2520	25.9970
 1.2530	26.0080
 1.2540	26.0210
 1.2550	26.0320
 1.2560	26.0430
 1.2570	26.0520
 1.2580	26.0600
 1.2590	26.0670
 1.2600	26.0740
 1.2610	26.0790
 1.2620	26.0830
 1.2630	26.0870
 1.2640	26.0910
 1.2650	26.0950
 1.2660	26.0990
 1.2670	26.1000
 1.2680	26.1000
 1.2690	26.0990
 1.2700	26.0960
 1.2710	26.0940
 1.2720	26.0930
 1.2730	26.0900
 1.2740	26.0880
 1.2750	26.0830
 1.2760	26.0790
 1.2770	26.0740
 1.2780	26.0670
 1.2790	26.0610
 1.2800	26.0530
 1.2810	26.0430
 1.2820	26.0340
 1.2830	26.0220
 1.2840	26.0080
 1.2850	25.9950
 1.2860	25.9820
 1.2870	25.9650
 1.2880	25.9470
 1.2890	25.9280
 1.2900	25.9060
 1.2910	25.8810
 1.2920	25.8560
 1.2930	25.8290
 1.2940	25.8000
 1.2950	25.7710
 1.2960	25.7410
 1.2970	25.7090
 1.2980	25.6740
 1.2990	25.6380
 1.3000	25.5970
 1.3010	25.5540
 1.3020	25.5100
 1.3030	25.4660
 1.3040	25.4180
 1.3050	25.3690
 1.3060	25.3190
 1.3070	25.2650
 1.3080	25.2090
 1.3090	25.1520
 1.3100	25.0930
 1.3110	25.0300
 1.3120	24.9670
 1.3130	24.9020
 1.3140	24.8340
 1.3150	24.7640
 1.3160	24.6930
 1.3170	24.6200
 1.3180	24.5430
 1.3190	24.4640
 1.3200	24.3810
 1.3210	24.2950
 1.3220	24.2080
 1.3230	24.1200
 1.3240	24.0300
 1.3250	23.9380
 1.3260	23.8450
 1.3270	23.7510
 1.3280	23.6560
 1.3290	23.5570
 1.3300	23.4560
 1.3310	23.3540
 1.3320	23.2500
 1.3330	23.1460
 1.3340	23.0410
 1.3350	22.9350
 1.3360	22.8290
 1.3370	22.7240
 1.3380	22.6190
 1.3390	22.5140
 1.3400	22.4070
 1.3410	22.3020
 1.3420	22.1970
 1.3430	22.0940
 1.3440	21.9930
 1.3450	21.8920
 1.3460	21.7910
 1.3470	21.6920
 1.3480	21.5940
 1.3490	21.4970
 1.3500	21.4020
 1.3510	21.3080
 1.3520	21.2130
 1.3530	21.1210
 1.3540	21.0270
 1.3550	20.9330
 1.3560	20.8400
 1.3570	20.7450
 1.3580	20.6500
 1.3590	20.5530
 1.3600	20.4540
 1.3610	20.3520
 1.3620	20.2460
 1.3630	20.1370
 1.3640	20.0230
 1.3650	19.9040
 1.3660	19.7800
 1.3670	19.6500
 1.3680	19.5140
 1.3690	19.3710
 1.3700	19.2200
 1.3710	19.0620
 1.3720	18.8940
 1.3730	18.7150
 1.3740	18.5260
 1.3750	18.3240
 1.3760	18.1080
 1.3770	17.8790
 1.3780	17.6330
 1.3790	17.3720
 1.3800	17.0960
 1.3810	16.8040
 1.3820	16.5000
 1.3830	16.1830
 1.3840	15.8560
 1.3850	15.5150
 1.3860	15.1670
 1.3870	14.8060
 1.3880	14.4440
 1.3890	14.0730
 1.3900	13.6980
 1.3910	13.3240
 1.3920	12.9480
 1.3930	12.5700
 1.3940	12.1980
 1.3950	11.8250
 1.3960	11.4580
 1.3970	11.1000
 1.3980	10.7510
 1.3990	10.4150
 1.4000	10.0900
 1.4010	 9.7750
 1.4020	 9.4730
 1.4030	 9.1810
 1.4040	 8.9040
 1.4050	 8.6420
 1.4060	 8.3930
 1.4070	 8.1590
 1.4080	 7.9370
 1.4090	 7.7280
 1.4100	 7.5340
 1.4110	 7.3510
 1.4120	 7.1820
 1.4130	 7.0230
 1.4140	 6.8750
 1.4150	 6.7380
 1.4160	 6.6120
 1.4170	 6.4930
 1.4180	 6.3830
 1.4190	 6.2800
 1.4200	 6.1860
 1.4210	 6.0990
 1.4220	 6.0190
 1.4230	 5.9460
 1.4240	 5.8770
 1.4250	 5.8130
 1.4260	 5.7560
 1.4270	 5.7030
 1.4280	 5.6540
 1.4290	 5.6100
 1.4300	 5.5700
 1.4310	 5.5320
 1.4320	 5.4980
 1.4330	 5.4680
 1.4340	 5.4410
 1.4350	 5.4170
 1.4360	 5.3960
 1.4370	 5.3780
 1.4380	 5.3620
 1.4390	 5.3470
 1.4400	 5.3340
 1.4410	 5.3240
 1.4420	 5.3160
 1.4430	 5.3100
 1.4440	 5.3060
 1.4450	 5.3020
 1.4460	 5.3020
 1.4470	 5.3020
 1.4480	 5.3030
 1.4490	 5.3060
 1.4500	 5.3080
 1.4510	 5.3100
 1.4520	 5.3150
 1.4530	 5.3200
 1.4540	 5.3280
 1.4550	 5.3370
 1.4560	 5.3470
 1.4570	 5.3580
 1.4580	 5.3690
 1.4590	 5.3840
 1.4600	 5.3990
 1.4610	 5.4160
 1.4620	 5.4350
 1.4630	 5.4570
 1.4640	 5.4800
 1.4650	 5.5070
 1.4660	 5.5360
 1.4670	 5.5670
 1.4680	 5.6000
 1.4690	 5.6360
 1.4700	 5.6750
 1.4710	 5.7170
 1.4720	 5.7610
 1.4730	 5.8060
 1.4740	 5.8520
 1.4750	 5.9000
 1.4760	 5.9510
 1.4770	 6.0030
 1.4780	 6.0560
 1.4790	 6.1110
 1.4800	 6.1660
 1.4810	 6.2220
 1.4820	 6.2810
 1.4830	 6.3400
 1.4840	 6.4000
 1.4850	 6.4610
 1.4860	 6.5230
 1.4870	 6.5850
 1.4880	 6.6470
 1.4890	 6.7100
 1.4900	 6.7740
 1.4910	 6.8380
 1.4920	 6.9040
 1.4930	 6.9710
 1.4940	 7.0370
 1.4950	 7.1040
 1.4960	 7.1710
 1.4970	 7.2370
 1.4980	 7.3050
 1.4990	 7.3740
 1.5000	 7.4420
 1.5010	 7.5120
 1.5020	 7.5810
 1.5030	 7.6490
 1.5040	 7.7180
 1.5050	 7.7860
 1.5060	 7.8550
 1.5070	 7.9240
 1.5080	 7.9940
 1.5090	 8.0630
 1.5100	 8.1330
 1.5110	 8.2020
 1.5120	 8.2710
 1.5130	 8.3390
 1.5140	 8.4070
 1.5150	 8.4740
 1.5160	 8.5420
 1.5170	 8.6090
 1.5180	 8.6760
 1.5190	 8.7440
 1.5200	 8.8120
 1.5210	 8.8780
 1.5220	 8.9450
 1.5230	 9.0100
 1.5240	 9.0760
 1.5250	 9.1420
 1.5260	 9.2070
 1.5270	 9.2710
 1.5280	 9.3360
 1.5290	 9.4000
 1.5300	 9.4620
 1.5310	 9.5250
 1.5320	 9.5860
 1.5330	 9.6470
 1.5340	 9.7080
 1.5350	 9.7680
 1.5360	 9.8270
 1.5370	 9.8860
 1.5380	 9.9450
 1.5390	10.0040
 1.5400	10.0630
 1.5410	10.1210
 1.5420	10.1780
 1.5430	10.2340
 1.5440	10.2890
 1.5450	10.3450
 1.5460	10.4000
 1.5470	10.4550
 1.5480	10.5100
 1.5490	10.5660
 1.5500	10.6200
 1.5510	10.6740
 1.5520	10.7280
 1.5530	10.7800
 1.5540	10.8320
 1.5550	10.8840
 1.5560	10.9350
 1.5570	10.9860
 1.5580	11.0360
 1.5590	11.0860
 1.5600	11.1360
 1.5610	11.1860
 1.5620	11.2340
 1.5630	11.2830
 1.5640	11.3320
 1.5650	11.3780
 1.5660	11.4260
 1.5670	11.4730
 1.5680	11.5190
 1.5690	11.5660
 1.5700	11.6120
 1.5710	11.6580
 1.5720	11.7040
 1.5730	11.7500
 1.5740	11.7950
 1.5750	11.8400
 1.5760	11.8860
 1.5770	11.9300
 1.5780	11.9740
 1.5790	12.0190
 1.5800	12.0630
 1.5810	12.1080
 1.5820	12.1510
 1.5830	12.1940
 1.5840	12.2370
 1.5850	12.2790
 1.5860	12.3230
 1.5870	12.3670
 1.5880	12.4110
 1.5890	12.4550
 1.5900	12.4980
 1.5910	12.5400
 1.5920	12.5820
 1.5930	12.6240
 1.5940	12.6670
 1.5950	12.7100
 1.5960	12.7520
 1.5970	12.7940
 1.5980	12.8330
 1.5990	12.8730
 1.6000	12.9130
 1.6010	12.9520
 1.6020	12.9920
 1.6030	13.0320
 1.6040	13.0720
 1.6050	13.1110
 1.6060	13.1490
 1.6070	13.1860
 1.6080	13.2230
 1.6090	13.2580
 1.6100	13.2940
 1.6110	13.3300
 1.6120	13.3660
 1.6130	13.4010
 1.6140	13.4360
 1.6150	13.4690
 1.6160	13.5000
 1.6170	13.5330
 1.6180	13.5650
 1.6190	13.5960
 1.6200	13.6270
 1.6210	13.6570
 1.6220	13.6860
 1.6230	13.7140
 1.6240	13.7430
 1.6250	13.7700
 1.6260	13.7970
 1.6270	13.8240
 1.6280	13.8490
 1.6290	13.8750
 1.6300	13.9000
 1.6310	13.9250
 1.6320	13.9510
 1.6330	13.9740
 1.6340	13.9980
 1.6350	14.0200
 1.6360	14.0400
 1.6370	14.0600
 1.6380	14.0800
 1.6390	14.0980
 1.6400	14.1160
 1.6410	14.1320
 1.6420	14.1450
 1.6430	14.1570
 1.6440	14.1670
 1.6450	14.1760
 1.6460	14.1830
 1.6470	14.1890
 1.6480	14.1930
 1.6490	14.1940
 1.6500	14.1930
 1.6510	14.1900
 1.6520	14.1860
 1.6530	14.1800
 1.6540	14.1720
 1.6550	14.1620
 1.6560	14.1510
 1.6570	14.1390
 1.6580	14.1250
 1.6590	14.1110
 1.6600	14.0970
 1.6610	14.0810
 1.6620	14.0670
 1.6630	14.0530
 1.6640	14.0370
 1.6650	14.0230
 1.6660	14.0080
 1.6670	13.9940
 1.6680	13.9810
 1.6690	13.9700
 1.6700	13.9590
 1.6710	13.9440
 1.6720	13.9310
 1.6730	13.9170
 1.6740	13.9020
 1.6750	13.8880
 1.6760	13.8720
 1.6770	13.8530
 1.6780	13.8320
 1.6790	13.8110
 1.6800	13.7880
 1.6810	13.7620
 1.6820	13.7340
 1.6830	13.7020
 1.6840	13.6670
 1.6850	13.6320
 1.6860	13.5940
 1.6870	13.5550
 1.6880	13.5130
 1.6890	13.4670
 1.6900	13.4230
 1.6910	13.3760
 1.6920	13.3320
 1.6930	13.2900
 1.6940	13.2460
 1.6950	13.2030
 1.6960	13.1600
 1.6970	13.1170
 1.6980	13.0740
 1.6990	13.0340
 1.7000	12.9910
 1.7010	12.9490
 1.7020	12.9040
 1.7030	12.8590
 1.7040	12.8110
 1.7050	12.7600
 1.7060	12.7100
 1.7070	12.6580
 1.7080	12.6060
 1.7090	12.5520
 1.7100	12.5030
 1.7110	12.4530
 1.7120	12.4080
 1.7130	12.3680
 1.7140	12.3300
 1.7150	12.2940
 1.7160	12.2640
 1.7170	12.2390
 1.7180	12.2170
 1.7190	12.1990
 1.7200	12.1830
 1.7210	12.1670
 1.7220	12.1520
 1.7230	12.1390
 1.7240	12.1260
 1.7250	12.1150
 1.7260	12.1070
 1.7270	12.0980
 1.7280	12.0900
 1.7290	12.0810
 1.7300	12.0720
 1.7310	12.0620
 1.7320	12.0530
 1.7330	12.0410
 1.7340	12.0270
 1.7350	12.0110
 1.7360	11.9930
 1.7370	11.9730
 1.7380	11.9510
 1.7390	11.9280
 1.7400	11.9030
 1.7410	11.8750
 1.7420	11.8460
 1.7430	11.8160
 1.7440	11.7830
 1.7450	11.7510
 1.7460	11.7180
 1.7470	11.6860
 1.7480	11.6520
 1.7490	11.6210
 1.7500	11.5920
 1.7510	11.5610
 1.7520	11.5320
 1.7530	11.5020
 1.7540	11.4710
 1.7550	11.4420
 1.7560	11.4150
 1.7570	11.3910
 1.7580	11.3670
 1.7590	11.3460
 1.7600	11.3250
 1.7610	11.3050
 1.7620	11.2850
 1.7630	11.2650
 1.7640	11.2480
 1.7650	11.2320
 1.7660	11.2160
 1.7670	11.2040
 1.7680	11.1880
 1.7690	11.1700
 1.7700	11.1540
 1.7710	11.1370
 1.7720	11.1200
 1.7730	11.1060
 1.7740	11.0910
 1.7750	11.0740
 1.7760	11.0600
 1.7770	11.0470
 1.7780	11.0370
 1.7790	11.0310
 1.7800	11.0260
 1.7810	11.0240
 1.7820	11.0240
 1.7830	11.0270
 1.7840	11.0300
 1.7850	11.0350
 1.7860	11.0420
 1.7870	11.0510
 1.7880	11.0630
 1.7890	11.0750
 1.7900	11.0850
 1.7910	11.0960
 1.7920	11.1050
 1.7930	11.1160
 1.7940	11.1290
 1.7950	11.1410
 1.7960	11.1540
 1.7970	11.1650
 1.7980	11.1760
 1.7990	11.1870
 1.8000	11.1970
 1.8010	11.2080
 1.8020	11.2210
 1.8030	11.2330
 1.8040	11.2460
 1.8050	11.2570
 1.8060	11.2670
 1.8070	11.2770
 1.8080	11.2860
 1.8090	11.2950
 1.8100	11.3030
 1.8110	11.3130
 1.8120	11.3200
 1.8130	11.3270
 1.8140	11.3380
 1.8150	11.3450
 1.8160	11.3510
 1.8170	11.3570
 1.8180	11.3610
 1.8190	11.3680
 1.8200	11.3740
 1.8210	11.3810
 1.8220	11.3850
 1.8230	11.3880
 1.8240	11.3890
 1.8250	11.3870
 1.8260	11.3870
 1.8270	11.3730
 1.8280	11.3580
 1.8290	11.3430
 1.8300	11.3290
 1.8310	11.3140
 1.8320	11.3000
 1.8330	11.2850
 1.8340	11.2710
 1.8350	11.2710
 1.8360	11.2530
 1.8370	11.2340
 1.8380	11.2120
 1.8390	11.1860
 1.8400	11.1590
 1.8410	11.1260
 1.8420	11.0900
 1.8430	11.0500
 1.8440	11.0030
 1.8450	10.9560
 1.8460	10.9060
 1.8470	10.8470
 1.8480	10.7840
 1.8490	10.7170
 1.8500	10.6430
 1.8510	10.5620
 1.8520	10.4750
 1.8530	10.3840
 1.8540	10.2860
 1.8550	10.1800
 1.8560	10.0640
 1.8570	 9.9420
 1.8580	 9.8110
 1.8590	 9.6730
 1.8600	 9.5270
 1.8610	 9.3750
 1.8620	 9.2140
 1.8630	 9.0450
 1.8640	 8.8700
 1.8650	 8.6830
 1.8660	 8.4890
 1.8670	 8.2850
 1.8680	 8.0670
 1.8690	 7.8420
 1.8700	 7.6090
 1.8710	 7.3650
 1.8720	 7.1170
 1.8730	 6.8680
 1.8740	 6.6130
 1.8750	 6.3580
 1.8760	 6.1010
 1.8770	 5.8420
 1.8780	 5.5860
 1.8790	 5.3290
 1.8800	 5.0780
 1.8810	 4.8290
 1.8820	 4.5850
 1.8830	 4.3450
 1.8840	 4.1090
 1.8850	 3.8820
 1.8860	 3.6620
 1.8870	 3.4500
 1.8880	 3.2490
 1.8890	 3.0620
 1.8900	 2.8830
 1.8910	 2.7140
 1.8920	 2.5550
 1.8930	 2.4110
 1.8940	 2.2720
 1.8950	 2.1450
 1.8960	 2.0310
 1.8970	 1.9250
 1.8980	 1.8370
 1.8990	 1.7580
 1.9000	 1.6820
 1.9010	 1.6180
 1.9020	 1.5570
 1.9030	 1.4990
 1.9040	 1.4470
 1.9050	 1.4050
 1.9060	 1.3700
 1.9070	 1.3370
 1.9080	 1.3110
 1.9090	 1.2860
 1.9100	 1.2620
 1.9110	 1.2450
 1.9120	 1.2360
 1.9130	 1.2240
 1.9140	 1.2140
 1.9150	 1.2050
 1.9160	 1.1920
 1.9170	 1.1790
 1.9180	 1.1690
 1.9190	 1.1600
 1.9200	 1.1540
 1.9210	 1.1500
 1.9220	 1.1470
 1.9230	 1.1470
 1.9240	 1.1460
 1.9250	 1.1450
 1.9260	 1.1450
 1.9270	 1.1440
 1.9280	 1.1420
 1.9290	 1.1410
 1.9300	 1.1380
 1.9310	 1.1380
 1.9320	 1.1380
 1.9330	 1.1400
 1.9340	 1.1460
 1.9350	 1.1490
 1.9360	 1.1510
 1.9370	 1.1550
 1.9380	 1.1590
 1.9390	 1.1630
 1.9400	 1.1670
 1.9410	 1.1730
 1.9420	 1.1780
 1.9430	 1.1820
 1.9440	 1.1870
 1.9450	 1.1930
 1.9460	 1.1990
 1.9470	 1.2050
 1.9480	 1.2120
 1.9490	 1.2230
 1.9500	 1.2340
 1.9510	 1.2410
 1.9520	 1.2490
 1.9530	 1.2580
 1.9540	 1.2670
 1.9550	 1.2760
 1.9560	 1.2860
 1.9570	 1.2960
 1.9580	 1.3040
 1.9590	 1.3140
 1.9600	 1.3290
 1.9610	 1.3400
 1.9620	 1.3520
 1.9630	 1.3630
 1.9640	 1.3740
 1.9650	 1.3850
 1.9660	 1.3990
 1.9670	 1.4130
 1.9680	 1.4270
 1.9690	 1.4410
 1.9700	 1.4550
 1.9710	 1.4690
 1.9720	 1.4850
 1.9730	 1.5010
 1.9740	 1.5180
 1.9750	 1.5320
 1.9760	 1.5490
 1.9770	 1.5670
 1.9780	 1.5830
 1.9790	 1.6000
 1.9800	 1.6200
 1.9810	 1.6390
 1.9820	 1.6560
 1.9830	 1.6740
 1.9840	 1.6950
 1.9850	 1.7140
 1.9860	 1.7320
 1.9870	 1.7500
 1.9880	 1.7690
 1.9890	 1.7890
 1.9900	 1.8120
 1.9910	 1.8330
 1.9920	 1.8540
 1.9930	 1.8740
 1.9940	 1.8960
 1.9950	 1.9170
 1.9960	 1.9390
 1.9970	 1.9650
 1.9980	 1.9870
 1.9990	 2.0070
 2.0000	 2.0280
 2.0010	 2.0500
 2.0020	 2.0720
 2.0030	 2.0960
 2.0040	 2.1210
 2.0050	 2.1440
 2.0060	 2.1650
 2.0070	 2.1870
 2.0080	 2.2070
 2.0090	 2.2290
 2.0100	 2.2500
 2.0110	 2.2720
 2.0120	 2.2940
 2.0130	 2.3160
 2.0140	 2.3410
 2.0150	 2.3640
 2.0160	 2.3890
 2.0170	 2.4140
 2.0180	 2.4380
 2.0190	 2.4610
 2.0200	 2.4820
 2.0210	 2.5040
 2.0220	 2.5240
 2.0230	 2.5420
 2.0240	 2.5610
 2.0250	 2.5770
 2.0260	 2.5960
 2.0270	 2.6150
 2.0280	 2.6360
 2.0290	 2.6570
 2.0300	 2.6760
 2.0310	 2.6940
 2.0320	 2.7080
 2.0330	 2.7250
 2.0340	 2.7410
 2.0350	 2.7590
 2.0360	 2.7830
 2.0370	 2.8020
 2.0380	 2.8210
 2.0390	 2.8390
 2.0400	 2.8550
 2.0410	 2.8690
 2.0420	 2.8800
 2.0430	 2.8910
 2.0440	 2.9030
 2.0450	 2.9140
 2.0460	 2.9280
 2.0470	 2.9440
 2.0480	 2.9590
 2.0490	 2.9740
 2.0500	 2.9880
 2.0510	 3.0040
 2.0520	 3.0180
 2.0530	 3.0300
 2.0540	 3.0430
 2.0550	 3.0560
 2.0560	 3.0700
 2.0570	 3.0860
 2.0580	 3.1020
 2.0590	 3.1190
 2.0600	 3.1380
 2.0610	 3.1520
 2.0620	 3.1630
 2.0630	 3.1780
 2.0640	 3.1910
 2.0650	 3.2070
 2.0660	 3.2270
 2.0670	 3.2440
 2.0680	 3.2630
 2.0690	 3.2780
 2.0700	 3.2890
 2.0710	 3.3020
 2.0720	 3.3120
 2.0730	 3.3220
 2.0740	 3.3350
 2.0750	 3.3530
 2.0760	 3.3680
 2.0770	 3.3860
 2.0780	 3.4020
 2.0790	 3.4190
 2.0800	 3.4330
 2.0810	 3.4440
 2.0820	 3.4570
 2.0830	 3.4690
 2.0840	 3.4820
 2.0850	 3.4990
 2.0860	 3.5120
 2.0870	 3.5240
 2.0880	 3.5360
 2.0890	 3.5490
 2.0900	 3.5600
 2.0910	 3.5750
 2.0920	 3.5950
 2.0930	 3.6120
 2.0940	 3.6310
 2.0950	 3.6470
 2.0960	 3.6590
 2.0970	 3.6720
 2.0980	 3.6830
 2.0990	 3.6960
 2.1000	 3.7090
 2.1010	 3.7230
 2.1020	 3.7380
 2.1030	 3.7520
 2.1040	 3.7660
 2.1050	 3.7780
 2.1060	 3.7910
 2.1070	 3.8030
 2.1080	 3.8160
 2.1090	 3.8270
 2.1100	 3.8410
 2.1110	 3.8590
 2.1120	 3.8720
 2.1130	 3.8860
 2.1140	 3.9000
 2.1150	 3.9110
 2.1160	 3.9240
 2.1170	 3.9390
 2.1180	 3.9520
 2.1190	 3.9630
 2.1200	 3.9730
 2.1210	 3.9830
 2.1220	 3.9930
 2.1230	 4.0020
 2.1240	 4.0090
 2.1250	 4.0200
 2.1260	 4.0300
 2.1270	 4.0440
 2.1280	 4.0650
 2.1290	 4.0790
 2.1300	 4.0930
 2.1310	 4.1050
 2.1320	 4.1120
 2.1330	 4.1200
 2.1340	 4.1260
 2.1350	 4.1350
 2.1360	 4.1420
 2.1370	 4.1520
 2.1380	 4.1660
 2.1390	 4.1770
 2.1400	 4.1860
 2.1410	 4.1990
 2.1420	 4.2100
 2.1430	 4.2180
 2.1440	 4.2310
 2.1450	 4.2480
 2.1460	 4.2630
 2.1470	 4.2820
 2.1480	 4.2970
 2.1490	 4.3080
 2.1500	 4.3200
 2.1510	 4.3290
 2.1520	 4.3420
 2.1530	 4.3570
 2.1540	 4.3710
 2.1550	 4.3870
 2.1560	 4.4010
 2.1570	 4.4110
 2.1580	 4.4260
 2.1590	 4.4450
 2.1600	 4.4630
 2.1610	 4.4870
 2.1620	 4.5140
 2.1630	 4.5320
 2.1640	 4.5460
 2.1650	 4.5600
 2.1660	 4.5660
 2.1670	 4.5790
 2.1680	 4.5930
 2.1690	 4.6090
 2.1700	 4.6290
 2.1710	 4.6450
 2.1720	 4.6610
 2.1730	 4.6780
 2.1740	 4.6930
 2.1750	 4.7100
 2.1760	 4.7310
 2.1770	 4.7480
 2.1780	 4.7630
 2.1790	 4.7780
 2.1800	 4.7890
 2.1810	 4.8040
 2.1820	 4.8210
 2.1830	 4.8380
 2.1840	 4.8550
 2.1850	 4.8750
 2.1860	 4.8920
 2.1870	 4.9080
 2.1880	 4.9260
 2.1890	 4.9470
 2.1900	 4.9640
 2.1910	 4.9820
 2.1920	 4.9990
 2.1930	 5.0120
 2.1940	 5.0290
 2.1950	 5.0510
 2.1960	 5.0670
 2.1970	 5.0790
 2.1980	 5.0930
 2.1990	 5.1010
 2.2000	 5.1150
 2.2010	 5.1380
 2.2020	 5.1540
 2.2030	 5.1700
 2.2040	 5.1840
 2.2050	 5.1920
 2.2060	 5.2000
 2.2070	 5.2090
 2.2080	 5.2160
 2.2090	 5.2260
 2.2100	 5.2390
 2.2110	 5.2480
 2.2120	 5.2600
 2.2130	 5.2670
 2.2140	 5.2680
 2.2150	 5.2740
 2.2160	 5.2780
 2.2170	 5.2850
 2.2180	 5.2960
 2.2190	 5.3030
 2.2200	 5.3110
 2.2210	 5.3150
 2.2220	 5.3170
 2.2230	 5.3160
 2.2240	 5.3090
 2.2250	 5.3050
 2.2260	 5.2970
 2.2270	 5.2920
 2.2280	 5.2920
 2.2290	 5.2870
 2.2300	 5.2820
 2.2310	 5.2730
 2.2320	 5.2600
 2.2330	 5.2480
 2.2340	 5.2330
 2.2350	 5.2170
 2.2360	 5.1960
 2.2370	 5.1710
 2.2380	 5.1480
 2.2390	 5.1220
 2.2400	 5.0980
 2.2410	 5.0790
 2.2420	 5.0520
 2.2430	 5.0230
 2.2440	 4.9910
 2.2450	 4.9540
 2.2460	 4.9160
 2.2470	 4.8740
 2.2480	 4.8350
 2.2490	 4.7940
 2.2500	 4.7540
 2.2510	 4.7180
 2.2520	 4.6800
 2.2530	 4.6420
 2.2540	 4.6010
 2.2550	 4.5580
 2.2560	 4.5170
 2.2570	 4.4740
 2.2580	 4.4310
 2.2590	 4.3840
 2.2600	 4.3430
 2.2610	 4.3040
 2.2620	 4.2650
 2.2630	 4.2230
 2.2640	 4.1830
 2.2650	 4.1440
 2.2660	 4.1040
 2.2670	 4.0680
 2.2680	 4.0410
 2.2690	 4.0040
 2.2700	 3.9620
 2.2710	 3.9260
 2.2720	 3.8890
 2.2730	 3.8570
 2.2740	 3.8280
 2.2750	 3.8030
 2.2760	 3.7830
 2.2770	 3.7570
 2.2780	 3.7350
 2.2790	 3.7090
 2.2800	 3.6750
 2.2810	 3.6500
 2.2820	 3.6330
 2.2830	 3.6090
 2.2840	 3.5860
 2.2850	 3.5610
 2.2860	 3.5320
 2.2870	 3.5050
 2.2880	 3.4770
 2.2890	 3.4520
 2.2900	 3.4310
 2.2910	 3.4070
 2.2920	 3.3850
 2.2930	 3.3610
 2.2940	 3.3320
 2.2950	 3.3060
 2.2960	 3.2790
 2.2970	 3.2560
 2.2980	 3.2370
 2.2990	 3.2140
 2.3000	 3.1930
 2.3010	 3.1740
 2.3020	 3.1590
 2.3030	 3.1420
 2.3040	 3.1270
 2.3050	 3.1150
 2.3060	 3.0940
 2.3070	 3.0770
 2.3080	 3.0650
 2.3090	 3.0500
 2.3100	 3.0450
 2.3110	 3.0440
 2.3120	 3.0420
 2.3130	 3.0430
 2.3140	 3.0440
 2.3150	 3.0450
 2.3160	 3.0430
 2.3170	 3.0430
 2.3180	 3.0370
 2.3190	 3.0250
 2.3200	 3.0190
 2.3210	 3.0170
 2.3220	 3.0060
 2.3230	 2.9930
 2.3240	 2.9820
 2.3250	 2.9630
 2.3260	 2.9500
 2.3270	 2.9430
 2.3280	 2.9290
 2.3290	 2.9090
 2.3300	 2.8960
 2.3310	 2.8860
 2.3320	 2.8760
 2.3330	 2.8740
 2.3340	 2.8630
 2.3350	 2.8440
 2.3360	 2.8290
 2.3370	 2.8100
 2.3380	 2.7980
 2.3390	 2.7920
 2.3400	 2.7830
 2.3410	 2.7770
 2.3420	 2.7650
 2.3430	 2.7430
 2.3440	 2.7300
 2.3450	 2.7200
 2.3460	 2.7080
 2.3470	 2.7040
 2.3480	 2.6930
 2.3490	 2.6740
 2.3500	 2.6620
 2.3510	 2.6530
 2.3520	 2.6420
 2.3530	 2.6310
 2.3540	 2.6220
 2.3550	 2.6130
 2.3560	 2.6060
 2.3570	 2.6060
 2.3580	 2.6060
 2.3590	 2.5980
 2.3600	 2.5870
 2.3610	 2.5750
 2.3620	 2.5620
 2.3630	 2.5480
 2.3640	 2.5410
 2.3650	 2.5400
 2.3660	 2.5340
 2.3670	 2.5240
 2.3680	 2.5170
 2.3690	 2.5100
 2.3700	 2.5060
 2.3710	 2.4900
 2.3720	 2.4760
 2.3730	 2.4720
 2.3740	 2.4460
 2.3750	 2.4320
 2.3760	 2.4340
 2.3770	 2.4230
 2.3780	 2.4210
 2.3790	 2.4230
 2.3800	 2.4140
 2.3810	 2.3950
 2.3820	 2.3800
 2.3830	 2.3750
 2.3840	 2.3630
 2.3850	 2.3500
 2.3860	 2.3340
 2.3870	 2.3080
 2.3880	 2.2900
 2.3890	 2.2740
 2.3900	 2.2610
 2.3910	 2.2470
 2.3920	 2.2330
 2.3930	 2.2190
 2.3940	 2.2050
 2.3950	 2.1950
 2.3960	 2.1820
 2.3970	 2.1740
 2.3980	 2.1690
 2.3990	 2.1540
 2.4000	 2.1390
 2.4010	 2.1280
 2.4020	 2.1040
 2.4030	 2.0850
 2.4040	 2.0720
 2.4050	 2.0570
 2.4060	 2.0530
 2.4070	 2.0450
 2.4080	 2.0400
 2.4090	 2.0360
 2.4100	 2.0260
 2.4110	 2.0210
 2.4120	 2.0040
 2.4130	 1.9900
 2.4140	 1.9790
 2.4150	 1.9600
 2.4160	 1.9530
 2.4170	 1.9380
 2.4180	 1.9090
 2.4190	 1.8860
 2.4200	 1.8680
 2.4210	 1.8500
 2.4220	 1.8390
 2.4230	 1.8470
 2.4240	 1.8480
 2.4250	 1.8400
 2.4260	 1.8470
 2.4270	 1.8330
 2.4280	 1.8140
 2.4290	 1.8030
 2.4300	 1.7690
 2.4310	 1.7480
 2.4320	 1.7310
 2.4330	 1.7100
 2.4340	 1.7170
 2.4350	 1.7040
 2.4360	 1.6890
 2.4370	 1.6950
 2.4380	 1.6830
 2.4390	 1.6600
 2.4400	 1.6370
 2.4410	 1.5980
 2.4420	 1.5610
 2.4430	 1.5360
 2.4440	 1.5190
 2.4450	 1.5150
 2.4460	 1.5150
 2.4470	 1.5160
 2.4480	 1.5260
 2.4490	 1.5230
 2.4500	 1.4980
 2.4510	 1.4860
 2.4520	 1.4750
 2.4530	 1.4530
 2.4540	 1.4570
 2.4550	 1.4650
 2.4560	 1.4540
 2.4570	 1.4530
 2.4580	 1.4490
 2.4590	 1.4140
 2.4600	 1.4040
 2.4610	 1.4110
 2.4620	 1.4010
 2.4630	 1.4100
 2.4640	 1.4120
 2.4650	 1.3910
 2.4660	 1.3690
 2.4670	 1.3590
 2.4680	 1.3450
 2.4690	 1.3350
 2.4700	 1.3410
 2.4710	 1.3610
 2.4720	 1.3600
 2.4730	 1.3690
 2.4740	 1.3630
 2.4750	 1.3230
 2.4760	 1.3080
 2.4770	 1.2890
 2.4780	 1.2810
 2.4790	 1.3060
 2.4800	 1.2970
 2.4810	 1.2850
 2.4820	 1.2530
 2.4830	 1.2230
 2.4840	 1.2360
 2.4850	 1.2350
 2.4860	 1.2360
 2.4870	 1.2350
 2.4880	 1.2370
 2.4890	 1.2390
 2.4900	 1.2570
 2.4910	 1.2810
 2.4920	 1.2730
 2.4930	 1.2970
 2.4940	 1.3140
 2.4950	 1.3030
 2.4960	 1.3030
 2.4970	 1.3020
 2.4980	 1.2850
 2.4990	 1.2630
 2.5000	 1.2510
