Name: Baccharis pilularis 1
Type: vegetation
Class: Shrub
Genus: Baccharis
Species: pilularis
Sample No.: VH224
Owner: UCSB
Wavelength Range: VSWIR
Origin: 34.5084; -119.7687; WGS84
Collection Date: 10/13/2013
Description: Samples were collected as part of the HyspIRI Airborne Campaign. 48 individual plants were sampled in three times in 2013 - spring  summer  and fall. The name of the sample includes a 1  2  or 3 which references a different individual of the species. Samples were taken to JPL and processed within 48 hours of collection. The same leaves were processed in the Nicolet and then measured using the ASD.
Measurement: Bidirectional reflectance
First Column: X
Second Column: Y
X Units: Wavelength (micrometers)
Y Units: Reflectance (percentage)
First X Value: 0.35
Last X Value: 2.5
Number of X Values: 2151
Additional Information: vegetation.shrub.baccharis.pilularis.vswir.vh224.ucsb.asd.ancillary.txt

 0.3500	 7.8020
 0.3510	 7.7300
 0.3520	 7.6010
 0.3530	 7.4850
 0.3540	 7.4130
 0.3550	 7.3660
 0.3560	 7.3090
 0.3570	 7.3310
 0.3580	 7.5260
 0.3590	 7.5080
 0.3600	 7.3680
 0.3610	 7.2310
 0.3620	 7.1960
 0.3630	 7.2130
 0.3640	 7.2610
 0.3650	 7.3070
 0.3660	 7.2510
 0.3670	 7.1620
 0.3680	 7.1030
 0.3690	 7.1250
 0.3700	 7.2300
 0.3710	 7.2200
 0.3720	 7.0890
 0.3730	 7.2160
 0.3740	 7.2580
 0.3750	 7.1750
 0.3760	 7.0650
 0.3770	 7.1630
 0.3780	 7.2420
 0.3790	 7.2200
 0.3800	 7.1660
 0.3810	 7.1650
 0.3820	 7.1850
 0.3830	 7.1690
 0.3840	 7.0280
 0.3850	 6.9480
 0.3860	 6.9970
 0.3870	 7.1480
 0.3880	 7.1810
 0.3890	 7.1490
 0.3900	 7.1110
 0.3910	 7.1040
 0.3920	 7.0240
 0.3930	 6.9990
 0.3940	 7.0900
 0.3950	 7.0670
 0.3960	 7.0640
 0.3970	 7.0560
 0.3980	 6.9730
 0.3990	 6.9950
 0.4000	 7.0620
 0.4010	 7.0840
 0.4020	 6.9540
 0.4030	 6.9880
 0.4040	 7.0700
 0.4050	 7.0470
 0.4060	 7.0390
 0.4070	 6.9960
 0.4080	 6.9600
 0.4090	 7.0130
 0.4100	 7.0600
 0.4110	 7.0740
 0.4120	 7.0540
 0.4130	 7.0090
 0.4140	 6.9710
 0.4150	 6.9770
 0.4160	 7.0350
 0.4170	 7.0320
 0.4180	 7.0210
 0.4190	 7.0270
 0.4200	 7.0400
 0.4210	 7.0590
 0.4220	 7.0660
 0.4230	 7.0550
 0.4240	 7.0530
 0.4250	 7.0680
 0.4260	 7.0940
 0.4270	 7.1160
 0.4280	 7.1350
 0.4290	 7.1420
 0.4300	 7.1420
 0.4310	 7.1630
 0.4320	 7.1690
 0.4330	 7.1780
 0.4340	 7.2030
 0.4350	 7.1910
 0.4360	 7.2030
 0.4370	 7.2430
 0.4380	 7.2640
 0.4390	 7.2630
 0.4400	 7.2750
 0.4410	 7.3130
 0.4420	 7.3410
 0.4430	 7.3520
 0.4440	 7.3530
 0.4450	 7.3630
 0.4460	 7.4010
 0.4470	 7.4230
 0.4480	 7.4180
 0.4490	 7.4140
 0.4500	 7.4220
 0.4510	 7.4420
 0.4520	 7.4670
 0.4530	 7.4830
 0.4540	 7.5000
 0.4550	 7.5180
 0.4560	 7.5270
 0.4570	 7.5390
 0.4580	 7.5400
 0.4590	 7.5300
 0.4600	 7.5370
 0.4610	 7.5650
 0.4620	 7.5840
 0.4630	 7.5690
 0.4640	 7.5790
 0.4650	 7.5890
 0.4660	 7.5870
 0.4670	 7.5840
 0.4680	 7.6010
 0.4690	 7.6110
 0.4700	 7.6010
 0.4710	 7.6250
 0.4720	 7.6470
 0.4730	 7.6500
 0.4740	 7.6370
 0.4750	 7.6380
 0.4760	 7.6470
 0.4770	 7.6590
 0.4780	 7.6750
 0.4790	 7.6730
 0.4800	 7.6630
 0.4810	 7.6630
 0.4820	 7.6820
 0.4830	 7.6940
 0.4840	 7.6910
 0.4850	 7.6870
 0.4860	 7.6820
 0.4870	 7.6850
 0.4880	 7.6940
 0.4890	 7.6910
 0.4900	 7.7090
 0.4910	 7.7340
 0.4920	 7.7390
 0.4930	 7.7510
 0.4940	 7.7670
 0.4950	 7.7840
 0.4960	 7.8060
 0.4970	 7.8340
 0.4980	 7.8580
 0.4990	 7.8740
 0.5000	 7.8980
 0.5010	 7.9200
 0.5020	 7.9430
 0.5030	 7.9800
 0.5040	 8.0180
 0.5050	 8.0610
 0.5060	 8.1140
 0.5070	 8.1700
 0.5080	 8.2250
 0.5090	 8.2820
 0.5100	 8.3450
 0.5110	 8.4210
 0.5120	 8.5140
 0.5130	 8.6170
 0.5140	 8.7070
 0.5150	 8.8200
 0.5160	 8.9470
 0.5170	 9.0710
 0.5180	 9.2080
 0.5190	 9.3550
 0.5200	 9.5080
 0.5210	 9.6650
 0.5220	 9.8250
 0.5230	 9.9930
 0.5240	10.1690
 0.5250	10.3260
 0.5260	10.4800
 0.5270	10.6340
 0.5280	10.7860
 0.5290	10.9300
 0.5300	11.0590
 0.5310	11.1750
 0.5320	11.2960
 0.5330	11.3980
 0.5340	11.4870
 0.5350	11.5720
 0.5360	11.6490
 0.5370	11.7200
 0.5380	11.7820
 0.5390	11.8320
 0.5400	11.8750
 0.5410	11.9140
 0.5420	11.9520
 0.5430	11.9840
 0.5440	12.0260
 0.5450	12.0730
 0.5460	12.1150
 0.5470	12.1760
 0.5480	12.2370
 0.5490	12.2840
 0.5500	12.3170
 0.5510	12.3380
 0.5520	12.3510
 0.5530	12.3580
 0.5540	12.3530
 0.5550	12.3350
 0.5560	12.3060
 0.5570	12.2640
 0.5580	12.2100
 0.5590	12.1450
 0.5600	12.0700
 0.5610	11.9960
 0.5620	11.9120
 0.5630	11.8220
 0.5640	11.7310
 0.5650	11.6250
 0.5660	11.5170
 0.5670	11.4100
 0.5680	11.2960
 0.5690	11.1880
 0.5700	11.0800
 0.5710	10.9640
 0.5720	10.8440
 0.5730	10.7350
 0.5740	10.6430
 0.5750	10.5600
 0.5760	10.4800
 0.5770	10.4070
 0.5780	10.3440
 0.5790	10.2730
 0.5800	10.2210
 0.5810	10.1780
 0.5820	10.1260
 0.5830	10.0790
 0.5840	10.0240
 0.5850	 9.9610
 0.5860	 9.9060
 0.5870	 9.8550
 0.5880	 9.8120
 0.5890	 9.7810
 0.5900	 9.7610
 0.5910	 9.7430
 0.5920	 9.7220
 0.5930	 9.6950
 0.5940	 9.6750
 0.5950	 9.6650
 0.5960	 9.6590
 0.5970	 9.6400
 0.5980	 9.6220
 0.5990	 9.6040
 0.6000	 9.5790
 0.6010	 9.5510
 0.6020	 9.5260
 0.6030	 9.5060
 0.6040	 9.4800
 0.6050	 9.4490
 0.6060	 9.4140
 0.6070	 9.3770
 0.6080	 9.3380
 0.6090	 9.2860
 0.6100	 9.2210
 0.6110	 9.1530
 0.6120	 9.1130
 0.6130	 9.0870
 0.6140	 9.0590
 0.6150	 9.0230
 0.6160	 8.9860
 0.6170	 8.9530
 0.6180	 8.9230
 0.6190	 8.8980
 0.6200	 8.8730
 0.6210	 8.8480
 0.6220	 8.8330
 0.6230	 8.8220
 0.6240	 8.8130
 0.6250	 8.8040
 0.6260	 8.7910
 0.6270	 8.7840
 0.6280	 8.7820
 0.6290	 8.7800
 0.6300	 8.7700
 0.6310	 8.7640
 0.6320	 8.7630
 0.6330	 8.7620
 0.6340	 8.7510
 0.6350	 8.7350
 0.6360	 8.7180
 0.6370	 8.7000
 0.6380	 8.6740
 0.6390	 8.6390
 0.6400	 8.5990
 0.6410	 8.5600
 0.6420	 8.5220
 0.6430	 8.4870
 0.6440	 8.4460
 0.6450	 8.4080
 0.6460	 8.3720
 0.6470	 8.3350
 0.6480	 8.3040
 0.6490	 8.2800
 0.6500	 8.2570
 0.6510	 8.2330
 0.6520	 8.2200
 0.6530	 8.2070
 0.6540	 8.1880
 0.6550	 8.1760
 0.6560	 8.1570
 0.6570	 8.1370
 0.6580	 8.1240
 0.6590	 8.1020
 0.6600	 8.0750
 0.6610	 8.0490
 0.6620	 8.0330
 0.6630	 8.0120
 0.6640	 7.9940
 0.6650	 7.9820
 0.6660	 7.9660
 0.6670	 7.9570
 0.6680	 7.9560
 0.6690	 7.9570
 0.6700	 7.9570
 0.6710	 7.9620
 0.6720	 7.9720
 0.6730	 7.9820
 0.6740	 7.9930
 0.6750	 8.0080
 0.6760	 8.0280
 0.6770	 8.0440
 0.6780	 8.0660
 0.6790	 8.0940
 0.6800	 8.1260
 0.6810	 8.1610
 0.6820	 8.1940
 0.6830	 8.2270
 0.6840	 8.2730
 0.6850	 8.3300
 0.6860	 8.3910
 0.6870	 8.4520
 0.6880	 8.5360
 0.6890	 8.6390
 0.6900	 8.7660
 0.6910	 8.9240
 0.6920	 9.1130
 0.6930	 9.3460
 0.6940	 9.6360
 0.6950	 9.9860
 0.6960	10.4010
 0.6970	10.8800
 0.6980	11.4250
 0.6990	12.0430
 0.7000	12.7250
 0.7010	13.4680
 0.7020	14.2700
 0.7030	15.1360
 0.7040	16.0480
 0.7050	16.9940
 0.7060	17.9830
 0.7070	19.0110
 0.7080	20.0730
 0.7090	21.1670
 0.7100	22.2940
 0.7110	23.4420
 0.7120	24.6090
 0.7130	25.8070
 0.7140	27.0340
 0.7150	28.2740
 0.7160	29.5170
 0.7170	30.7690
 0.7180	32.0320
 0.7190	33.2990
 0.7200	34.5580
 0.7210	35.8200
 0.7220	37.0690
 0.7230	38.3020
 0.7240	39.5210
 0.7250	40.7100
 0.7260	41.8670
 0.7270	42.9940
 0.7280	44.0940
 0.7290	45.1610
 0.7300	46.1830
 0.7310	47.1540
 0.7320	48.0890
 0.7330	48.9810
 0.7340	49.8290
 0.7350	50.6410
 0.7360	51.4030
 0.7370	52.1250
 0.7380	52.8110
 0.7390	53.4460
 0.7400	54.0510
 0.7410	54.6260
 0.7420	55.1620
 0.7430	55.6510
 0.7440	56.1040
 0.7450	56.5280
 0.7460	56.9240
 0.7470	57.2910
 0.7480	57.6280
 0.7490	57.9360
 0.7500	58.2120
 0.7510	58.4630
 0.7520	58.6950
 0.7530	58.9090
 0.7540	59.1110
 0.7550	59.2860
 0.7560	59.4400
 0.7570	59.5960
 0.7580	59.7200
 0.7590	59.8340
 0.7600	59.9490
 0.7610	60.0430
 0.7620	60.1120
 0.7630	60.1810
 0.7640	60.2670
 0.7650	60.3270
 0.7660	60.3830
 0.7670	60.4390
 0.7680	60.4850
 0.7690	60.5230
 0.7700	60.5550
 0.7710	60.5840
 0.7720	60.6190
 0.7730	60.6490
 0.7740	60.6680
 0.7750	60.6790
 0.7760	60.7020
 0.7770	60.7190
 0.7780	60.7330
 0.7790	60.7560
 0.7800	60.7710
 0.7810	60.7820
 0.7820	60.7940
 0.7830	60.8170
 0.7840	60.8280
 0.7850	60.8440
 0.7860	60.8710
 0.7870	60.8780
 0.7880	60.8790
 0.7890	60.8880
 0.7900	60.9100
 0.7910	60.9160
 0.7920	60.9320
 0.7930	60.9520
 0.7940	60.9520
 0.7950	60.9580
 0.7960	60.9770
 0.7970	61.0010
 0.7980	61.0020
 0.7990	61.0160
 0.8000	61.0330
 0.8010	61.0410
 0.8020	61.0520
 0.8030	61.0720
 0.8040	61.0930
 0.8050	61.1040
 0.8060	61.1240
 0.8070	61.1380
 0.8080	61.1440
 0.8090	61.1560
 0.8100	61.1740
 0.8110	61.1980
 0.8120	61.2200
 0.8130	61.2260
 0.8140	61.2400
 0.8150	61.2620
 0.8160	61.2830
 0.8170	61.2910
 0.8180	61.3120
 0.8190	61.3440
 0.8200	61.3710
 0.8210	61.3790
 0.8220	61.3910
 0.8230	61.4120
 0.8240	61.4330
 0.8250	61.4590
 0.8260	61.4780
 0.8270	61.4900
 0.8280	61.5130
 0.8290	61.5390
 0.8300	61.5570
 0.8310	61.5650
 0.8320	61.5780
 0.8330	61.6000
 0.8340	61.6150
 0.8350	61.6100
 0.8360	61.6360
 0.8370	61.6700
 0.8380	61.6960
 0.8390	61.7090
 0.8400	61.7210
 0.8410	61.7420
 0.8420	61.7650
 0.8430	61.7740
 0.8440	61.7890
 0.8450	61.8160
 0.8460	61.8470
 0.8470	61.8620
 0.8480	61.8760
 0.8490	61.8920
 0.8500	61.9080
 0.8510	61.9330
 0.8520	61.9540
 0.8530	61.9650
 0.8540	61.9720
 0.8550	61.9970
 0.8560	62.0140
 0.8570	62.0180
 0.8580	62.0280
 0.8590	62.0220
 0.8600	62.0370
 0.8610	62.0760
 0.8620	62.0740
 0.8630	62.0690
 0.8640	62.0780
 0.8650	62.1040
 0.8660	62.1140
 0.8670	62.1130
 0.8680	62.1110
 0.8690	62.1140
 0.8700	62.1120
 0.8710	62.1260
 0.8720	62.1420
 0.8730	62.1330
 0.8740	62.1330
 0.8750	62.1430
 0.8760	62.1520
 0.8770	62.1410
 0.8780	62.1630
 0.8790	62.1780
 0.8800	62.1690
 0.8810	62.1710
 0.8820	62.1630
 0.8830	62.1550
 0.8840	62.1550
 0.8850	62.1560
 0.8860	62.1520
 0.8870	62.1500
 0.8880	62.1550
 0.8890	62.1360
 0.8900	62.1390
 0.8910	62.1550
 0.8920	62.1500
 0.8930	62.1250
 0.8940	62.1040
 0.8950	62.0930
 0.8960	62.0920
 0.8970	62.1040
 0.8980	62.1000
 0.8990	62.0720
 0.9000	62.0420
 0.9010	62.0410
 0.9020	62.0360
 0.9030	62.0210
 0.9040	62.0320
 0.9050	62.0310
 0.9060	62.0160
 0.9070	61.9980
 0.9080	61.9830
 0.9090	61.9870
 0.9100	61.9840
 0.9110	61.9590
 0.9120	61.9480
 0.9130	61.9490
 0.9140	61.9450
 0.9150	61.9230
 0.9160	61.9010
 0.9170	61.8930
 0.9180	61.8920
 0.9190	61.8820
 0.9200	61.8760
 0.9210	61.8640
 0.9220	61.8410
 0.9230	61.8010
 0.9240	61.7760
 0.9250	61.7730
 0.9260	61.7800
 0.9270	61.7730
 0.9280	61.7460
 0.9290	61.7140
 0.9300	61.6780
 0.9310	61.6270
 0.9320	61.6140
 0.9330	61.6120
 0.9340	61.5980
 0.9350	61.5700
 0.9360	61.5260
 0.9370	61.4720
 0.9380	61.4250
 0.9390	61.4130
 0.9400	61.3820
 0.9410	61.3450
 0.9420	61.3110
 0.9430	61.2620
 0.9440	61.2160
 0.9450	61.1720
 0.9460	61.1280
 0.9470	61.0890
 0.9480	61.0380
 0.9490	60.9710
 0.9500	60.8930
 0.9510	60.8180
 0.9520	60.7370
 0.9530	60.6480
 0.9540	60.5520
 0.9550	60.4530
 0.9560	60.3800
 0.9570	60.3240
 0.9580	60.2650
 0.9590	60.2060
 0.9600	60.1310
 0.9610	60.0480
 0.9620	59.9720
 0.9630	59.9200
 0.9640	59.8740
 0.9650	59.8400
 0.9660	59.8170
 0.9670	59.7580
 0.9680	59.7230
 0.9690	59.7230
 0.9700	59.7330
 0.9710	59.7000
 0.9720	59.6650
 0.9730	59.6390
 0.9740	59.6200
 0.9750	59.6420
 0.9760	59.6200
 0.9770	59.5920
 0.9780	59.6250
 0.9790	59.6360
 0.9800	59.6360
 0.9810	59.6210
 0.9820	59.5970
 0.9830	59.6520
 0.9840	59.6810
 0.9850	59.6800
 0.9860	59.6980
 0.9870	59.7410
 0.9880	59.7730
 0.9890	59.7870
 0.9900	59.8000
 0.9910	59.8450
 0.9920	59.8830
 0.9930	59.9200
 0.9940	59.9580
 0.9950	59.9950
 0.9960	60.0330
 0.9970	60.0700
 0.9980	60.1080
 0.9990	60.1450
 1.0000	60.1830
 1.0010	60.2200
 1.0020	60.2580
 1.0030	60.2950
 1.0040	60.3320
 1.0050	60.3700
 1.0060	60.4070
 1.0070	60.4450
 1.0080	60.4820
 1.0090	60.5200
 1.0100	60.5200
 1.0110	60.5460
 1.0120	60.5770
 1.0130	60.6090
 1.0140	60.6380
 1.0150	60.6700
 1.0160	60.6950
 1.0170	60.7240
 1.0180	60.7750
 1.0190	60.8320
 1.0200	60.8830
 1.0210	60.9280
 1.0220	60.9680
 1.0230	61.0030
 1.0240	61.0270
 1.0250	61.0590
 1.0260	61.0880
 1.0270	61.1220
 1.0280	61.1720
 1.0290	61.1990
 1.0300	61.2080
 1.0310	61.2290
 1.0320	61.2430
 1.0330	61.2600
 1.0340	61.2830
 1.0350	61.3310
 1.0360	61.3700
 1.0370	61.3890
 1.0380	61.4150
 1.0390	61.4420
 1.0400	61.4620
 1.0410	61.4740
 1.0420	61.4940
 1.0430	61.5210
 1.0440	61.5360
 1.0450	61.5530
 1.0460	61.5640
 1.0470	61.5560
 1.0480	61.5630
 1.0490	61.5780
 1.0500	61.5880
 1.0510	61.5960
 1.0520	61.6140
 1.0530	61.6290
 1.0540	61.6400
 1.0550	61.6580
 1.0560	61.6860
 1.0570	61.7000
 1.0580	61.7120
 1.0590	61.7200
 1.0600	61.7160
 1.0610	61.7220
 1.0620	61.7330
 1.0630	61.7420
 1.0640	61.7480
 1.0650	61.7600
 1.0660	61.7790
 1.0670	61.7900
 1.0680	61.8000
 1.0690	61.8140
 1.0700	61.8180
 1.0710	61.8140
 1.0720	61.8110
 1.0730	61.8030
 1.0740	61.8010
 1.0750	61.7960
 1.0760	61.7960
 1.0770	61.8020
 1.0780	61.8050
 1.0790	61.8100
 1.0800	61.8110
 1.0810	61.8080
 1.0820	61.8070
 1.0830	61.8060
 1.0840	61.8040
 1.0850	61.8050
 1.0860	61.8020
 1.0870	61.7990
 1.0880	61.7960
 1.0890	61.7860
 1.0900	61.7680
 1.0910	61.7590
 1.0920	61.7520
 1.0930	61.7390
 1.0940	61.7310
 1.0950	61.7200
 1.0960	61.6980
 1.0970	61.6810
 1.0980	61.6730
 1.0990	61.6560
 1.1000	61.6350
 1.1010	61.6120
 1.1020	61.5830
 1.1030	61.5550
 1.1040	61.5340
 1.1050	61.5110
 1.1060	61.4950
 1.1070	61.4920
 1.1080	61.4710
 1.1090	61.4470
 1.1100	61.4200
 1.1110	61.3820
 1.1120	61.3490
 1.1130	61.3220
 1.1140	61.2870
 1.1150	61.2500
 1.1160	61.2080
 1.1170	61.1660
 1.1180	61.1140
 1.1190	61.0530
 1.1200	60.9930
 1.1210	60.9250
 1.1220	60.8490
 1.1230	60.7730
 1.1240	60.6920
 1.1250	60.6090
 1.1260	60.5230
 1.1270	60.4310
 1.1280	60.3390
 1.1290	60.2320
 1.1300	60.1140
 1.1310	59.9910
 1.1320	59.8570
 1.1330	59.7200
 1.1340	59.5780
 1.1350	59.4280
 1.1360	59.2730
 1.1370	59.1070
 1.1380	58.9360
 1.1390	58.7620
 1.1400	58.5800
 1.1410	58.3950
 1.1420	58.2050
 1.1430	58.0130
 1.1440	57.8200
 1.1450	57.6180
 1.1460	57.4220
 1.1470	57.2220
 1.1480	57.0350
 1.1490	56.8510
 1.1500	56.6780
 1.1510	56.5150
 1.1520	56.3590
 1.1530	56.2050
 1.1540	56.0670
 1.1550	55.9410
 1.1560	55.8250
 1.1570	55.7160
 1.1580	55.6210
 1.1590	55.5290
 1.1600	55.4390
 1.1610	55.3650
 1.1620	55.2960
 1.1630	55.2350
 1.1640	55.1860
 1.1650	55.1400
 1.1660	55.0990
 1.1670	55.0630
 1.1680	55.0330
 1.1690	55.0050
 1.1700	54.9860
 1.1710	54.9600
 1.1720	54.9320
 1.1730	54.9080
 1.1740	54.8820
 1.1750	54.8570
 1.1760	54.8400
 1.1770	54.8230
 1.1780	54.7970
 1.1790	54.7710
 1.1800	54.7440
 1.1810	54.7100
 1.1820	54.6790
 1.1830	54.6490
 1.1840	54.6170
 1.1850	54.5870
 1.1860	54.5600
 1.1870	54.5420
 1.1880	54.5220
 1.1890	54.5030
 1.1900	54.4890
 1.1910	54.4780
 1.1920	54.4660
 1.1930	54.4590
 1.1940	54.4540
 1.1950	54.4490
 1.1960	54.4450
 1.1970	54.4450
 1.1980	54.4450
 1.1990	54.4490
 1.2000	54.4550
 1.2010	54.4660
 1.2020	54.4800
 1.2030	54.4970
 1.2040	54.5190
 1.2050	54.5410
 1.2060	54.5720
 1.2070	54.6020
 1.2080	54.6310
 1.2090	54.6670
 1.2100	54.7030
 1.2110	54.7450
 1.2120	54.7910
 1.2130	54.8380
 1.2140	54.8930
 1.2150	54.9440
 1.2160	54.9940
 1.2170	55.0450
 1.2180	55.1010
 1.2190	55.1510
 1.2200	55.2050
 1.2210	55.2670
 1.2220	55.3240
 1.2230	55.3800
 1.2240	55.4330
 1.2250	55.4850
 1.2260	55.5390
 1.2270	55.5910
 1.2280	55.6460
 1.2290	55.6970
 1.2300	55.7450
 1.2310	55.7930
 1.2320	55.8350
 1.2330	55.8750
 1.2340	55.9170
 1.2350	55.9610
 1.2360	56.0030
 1.2370	56.0470
 1.2380	56.0880
 1.2390	56.1230
 1.2400	56.1530
 1.2410	56.1870
 1.2420	56.2230
 1.2430	56.2570
 1.2440	56.2900
 1.2450	56.3180
 1.2460	56.3420
 1.2470	56.3670
 1.2480	56.3890
 1.2490	56.4170
 1.2500	56.4440
 1.2510	56.4660
 1.2520	56.4950
 1.2530	56.5110
 1.2540	56.5200
 1.2550	56.5340
 1.2560	56.5420
 1.2570	56.5540
 1.2580	56.5730
 1.2590	56.5880
 1.2600	56.6010
 1.2610	56.6140
 1.2620	56.6270
 1.2630	56.6370
 1.2640	56.6410
 1.2650	56.6530
 1.2660	56.6640
 1.2670	56.6580
 1.2680	56.6530
 1.2690	56.6450
 1.2700	56.6370
 1.2710	56.6380
 1.2720	56.6390
 1.2730	56.6320
 1.2740	56.6170
 1.2750	56.5960
 1.2760	56.5800
 1.2770	56.5670
 1.2780	56.5520
 1.2790	56.5370
 1.2800	56.5190
 1.2810	56.4970
 1.2820	56.4730
 1.2830	56.4530
 1.2840	56.4310
 1.2850	56.4060
 1.2860	56.3870
 1.2870	56.3590
 1.2880	56.3250
 1.2890	56.2880
 1.2900	56.2520
 1.2910	56.2050
 1.2920	56.1650
 1.2930	56.1250
 1.2940	56.0750
 1.2950	56.0320
 1.2960	55.9810
 1.2970	55.9270
 1.2980	55.8770
 1.2990	55.8180
 1.3000	55.7550
 1.3010	55.6930
 1.3020	55.6300
 1.3030	55.5640
 1.3040	55.4960
 1.3050	55.4220
 1.3060	55.3430
 1.3070	55.2600
 1.3080	55.1680
 1.3090	55.0760
 1.3100	54.9790
 1.3110	54.8690
 1.3120	54.7600
 1.3130	54.6480
 1.3140	54.5280
 1.3150	54.4020
 1.3160	54.2740
 1.3170	54.1440
 1.3180	54.0040
 1.3190	53.8600
 1.3200	53.7110
 1.3210	53.5500
 1.3220	53.3830
 1.3230	53.2150
 1.3240	53.0430
 1.3250	52.8750
 1.3260	52.7040
 1.3270	52.5230
 1.3280	52.3380
 1.3290	52.1460
 1.3300	51.9520
 1.3310	51.7620
 1.3320	51.5680
 1.3330	51.3710
 1.3340	51.1690
 1.3350	50.9630
 1.3360	50.7540
 1.3370	50.5400
 1.3380	50.3240
 1.3390	50.1090
 1.3400	49.8920
 1.3410	49.6800
 1.3420	49.4700
 1.3430	49.2620
 1.3440	49.0550
 1.3450	48.8500
 1.3460	48.6470
 1.3470	48.4490
 1.3480	48.2520
 1.3490	48.0550
 1.3500	47.8630
 1.3510	47.6670
 1.3520	47.4710
 1.3530	47.2800
 1.3540	47.0920
 1.3550	46.9040
 1.3560	46.7160
 1.3570	46.5300
 1.3580	46.3420
 1.3590	46.1490
 1.3600	45.9540
 1.3610	45.7540
 1.3620	45.5490
 1.3630	45.3440
 1.3640	45.1300
 1.3650	44.9050
 1.3660	44.6770
 1.3670	44.4330
 1.3680	44.1720
 1.3690	43.9020
 1.3700	43.6140
 1.3710	43.3140
 1.3720	43.0030
 1.3730	42.6710
 1.3740	42.3180
 1.3750	41.9460
 1.3760	41.5490
 1.3770	41.1230
 1.3780	40.6670
 1.3790	40.1870
 1.3800	39.6820
 1.3810	39.1530
 1.3820	38.5990
 1.3830	38.0230
 1.3840	37.4200
 1.3850	36.7890
 1.3860	36.1430
 1.3870	35.4720
 1.3880	34.7950
 1.3890	34.1030
 1.3900	33.3980
 1.3910	32.6940
 1.3920	31.9860
 1.3930	31.2720
 1.3940	30.5630
 1.3950	29.8510
 1.3960	29.1470
 1.3970	28.4600
 1.3980	27.7850
 1.3990	27.1340
 1.4000	26.5010
 1.4010	25.8820
 1.4020	25.2900
 1.4030	24.7180
 1.4040	24.1730
 1.4050	23.6560
 1.4060	23.1600
 1.4070	22.6970
 1.4080	22.2560
 1.4090	21.8420
 1.4100	21.4560
 1.4110	21.0920
 1.4120	20.7540
 1.4130	20.4380
 1.4140	20.1430
 1.4150	19.8750
 1.4160	19.6260
 1.4170	19.3960
 1.4180	19.1890
 1.4190	18.9950
 1.4200	18.8170
 1.4210	18.6590
 1.4220	18.5150
 1.4230	18.3840
 1.4240	18.2650
 1.4250	18.1550
 1.4260	18.0550
 1.4270	17.9640
 1.4280	17.8830
 1.4290	17.8120
 1.4300	17.7520
 1.4310	17.6970
 1.4320	17.6520
 1.4330	17.6130
 1.4340	17.5800
 1.4350	17.5510
 1.4360	17.5280
 1.4370	17.5120
 1.4380	17.4990
 1.4390	17.4910
 1.4400	17.4900
 1.4410	17.4910
 1.4420	17.4940
 1.4430	17.5010
 1.4440	17.5110
 1.4450	17.5220
 1.4460	17.5370
 1.4470	17.5570
 1.4480	17.5750
 1.4490	17.5950
 1.4500	17.6160
 1.4510	17.6360
 1.4520	17.6570
 1.4530	17.6810
 1.4540	17.7060
 1.4550	17.7310
 1.4560	17.7580
 1.4570	17.7900
 1.4580	17.8250
 1.4590	17.8630
 1.4600	17.9060
 1.4610	17.9510
 1.4620	17.9990
 1.4630	18.0500
 1.4640	18.1030
 1.4650	18.1600
 1.4660	18.2210
 1.4670	18.2920
 1.4680	18.3680
 1.4690	18.4480
 1.4700	18.5330
 1.4710	18.6220
 1.4720	18.7160
 1.4730	18.8150
 1.4740	18.9170
 1.4750	19.0200
 1.4760	19.1260
 1.4770	19.2350
 1.4780	19.3490
 1.4790	19.4660
 1.4800	19.5850
 1.4810	19.7090
 1.4820	19.8310
 1.4830	19.9510
 1.4840	20.0750
 1.4850	20.2000
 1.4860	20.3250
 1.4870	20.4560
 1.4880	20.5860
 1.4890	20.7150
 1.4900	20.8450
 1.4910	20.9760
 1.4920	21.1060
 1.4930	21.2360
 1.4940	21.3680
 1.4950	21.5010
 1.4960	21.6330
 1.4970	21.7650
 1.4980	21.8960
 1.4990	22.0230
 1.5000	22.1540
 1.5010	22.2840
 1.5020	22.4170
 1.5030	22.5540
 1.5040	22.6870
 1.5050	22.8180
 1.5060	22.9510
 1.5070	23.0820
 1.5080	23.2120
 1.5090	23.3430
 1.5100	23.4710
 1.5110	23.5980
 1.5120	23.7290
 1.5130	23.8580
 1.5140	23.9890
 1.5150	24.1200
 1.5160	24.2490
 1.5170	24.3770
 1.5180	24.5040
 1.5190	24.6260
 1.5200	24.7460
 1.5210	24.8660
 1.5220	24.9870
 1.5230	25.1050
 1.5240	25.2230
 1.5250	25.3410
 1.5260	25.4560
 1.5270	25.5700
 1.5280	25.6880
 1.5290	25.8020
 1.5300	25.9180
 1.5310	26.0340
 1.5320	26.1460
 1.5330	26.2540
 1.5340	26.3610
 1.5350	26.4690
 1.5360	26.5780
 1.5370	26.6860
 1.5380	26.7950
 1.5390	26.9010
 1.5400	27.0020
 1.5410	27.1040
 1.5420	27.2050
 1.5430	27.3050
 1.5440	27.4070
 1.5450	27.5080
 1.5460	27.6090
 1.5470	27.7120
 1.5480	27.8110
 1.5490	27.9100
 1.5500	28.0080
 1.5510	28.1030
 1.5520	28.2000
 1.5530	28.2930
 1.5540	28.3840
 1.5550	28.4770
 1.5560	28.5640
 1.5570	28.6540
 1.5580	28.7440
 1.5590	28.8270
 1.5600	28.9120
 1.5610	28.9940
 1.5620	29.0760
 1.5630	29.1620
 1.5640	29.2470
 1.5650	29.3310
 1.5660	29.4130
 1.5670	29.4930
 1.5680	29.5730
 1.5690	29.6530
 1.5700	29.7320
 1.5710	29.8110
 1.5720	29.8850
 1.5730	29.9560
 1.5740	30.0280
 1.5750	30.0990
 1.5760	30.1770
 1.5770	30.2560
 1.5780	30.3360
 1.5790	30.4170
 1.5800	30.4980
 1.5810	30.5780
 1.5820	30.6570
 1.5830	30.7350
 1.5840	30.8130
 1.5850	30.8890
 1.5860	30.9640
 1.5870	31.0360
 1.5880	31.1100
 1.5890	31.1840
 1.5900	31.2570
 1.5910	31.3270
 1.5920	31.3960
 1.5930	31.4650
 1.5940	31.5330
 1.5950	31.6050
 1.5960	31.6770
 1.5970	31.7440
 1.5980	31.8170
 1.5990	31.8890
 1.6000	31.9580
 1.6010	32.0290
 1.6020	32.0950
 1.6030	32.1630
 1.6040	32.2300
 1.6050	32.2950
 1.6060	32.3610
 1.6070	32.4250
 1.6080	32.4890
 1.6090	32.5530
 1.6100	32.6120
 1.6110	32.6710
 1.6120	32.7310
 1.6130	32.7890
 1.6140	32.8440
 1.6150	32.8990
 1.6160	32.9530
 1.6170	33.0050
 1.6180	33.0570
 1.6190	33.1060
 1.6200	33.1570
 1.6210	33.2050
 1.6220	33.2490
 1.6230	33.2950
 1.6240	33.3400
 1.6250	33.3850
 1.6260	33.4330
 1.6270	33.4790
 1.6280	33.5140
 1.6290	33.5490
 1.6300	33.5780
 1.6310	33.6130
 1.6320	33.6520
 1.6330	33.6880
 1.6340	33.7270
 1.6350	33.7600
 1.6360	33.7860
 1.6370	33.8140
 1.6380	33.8370
 1.6390	33.8640
 1.6400	33.8960
 1.6410	33.9180
 1.6420	33.9400
 1.6430	33.9520
 1.6440	33.9510
 1.6450	33.9520
 1.6460	33.9520
 1.6470	33.9470
 1.6480	33.9360
 1.6490	33.9160
 1.6500	33.8910
 1.6510	33.8640
 1.6520	33.8320
 1.6530	33.7950
 1.6540	33.7540
 1.6550	33.7100
 1.6560	33.6610
 1.6570	33.6120
 1.6580	33.5630
 1.6590	33.5110
 1.6600	33.4600
 1.6610	33.4100
 1.6620	33.3590
 1.6630	33.3080
 1.6640	33.2580
 1.6650	33.2070
 1.6660	33.1620
 1.6670	33.1260
 1.6680	33.0930
 1.6690	33.0660
 1.6700	33.0450
 1.6710	33.0220
 1.6720	33.0030
 1.6730	32.9920
 1.6740	32.9800
 1.6750	32.9680
 1.6760	32.9610
 1.6770	32.9520
 1.6780	32.9410
 1.6790	32.9320
 1.6800	32.9170
 1.6810	32.9010
 1.6820	32.8870
 1.6830	32.8700
 1.6840	32.8530
 1.6850	32.8330
 1.6860	32.8040
 1.6870	32.7720
 1.6880	32.7370
 1.6890	32.7000
 1.6900	32.6610
 1.6910	32.6220
 1.6920	32.5800
 1.6930	32.5330
 1.6940	32.4840
 1.6950	32.4320
 1.6960	32.3800
 1.6970	32.3270
 1.6980	32.2720
 1.6990	32.2190
 1.7000	32.1610
 1.7010	32.1020
 1.7020	32.0380
 1.7030	31.9680
 1.7040	31.8990
 1.7050	31.8270
 1.7060	31.7560
 1.7070	31.6860
 1.7080	31.6150
 1.7090	31.5390
 1.7100	31.4710
 1.7110	31.4060
 1.7120	31.3440
 1.7130	31.2780
 1.7140	31.2100
 1.7150	31.1490
 1.7160	31.0850
 1.7170	31.0250
 1.7180	30.9740
 1.7190	30.9150
 1.7200	30.8660
 1.7210	30.8250
 1.7220	30.7770
 1.7230	30.7330
 1.7240	30.6850
 1.7250	30.6400
 1.7260	30.6070
 1.7270	30.5730
 1.7280	30.5380
 1.7290	30.4950
 1.7300	30.4480
 1.7310	30.4070
 1.7320	30.3700
 1.7330	30.3320
 1.7340	30.2940
 1.7350	30.2570
 1.7360	30.2210
 1.7370	30.1780
 1.7380	30.1340
 1.7390	30.0830
 1.7400	30.0200
 1.7410	29.9630
 1.7420	29.9030
 1.7430	29.8440
 1.7440	29.7900
 1.7450	29.7280
 1.7460	29.6610
 1.7470	29.5950
 1.7480	29.5230
 1.7490	29.4620
 1.7500	29.4050
 1.7510	29.3520
 1.7520	29.3080
 1.7530	29.2570
 1.7540	29.2060
 1.7550	29.1550
 1.7560	29.1060
 1.7570	29.0600
 1.7580	29.0210
 1.7590	28.9880
 1.7600	28.9490
 1.7610	28.9090
 1.7620	28.8710
 1.7630	28.8280
 1.7640	28.7910
 1.7650	28.7580
 1.7660	28.7280
 1.7670	28.7010
 1.7680	28.6730
 1.7690	28.6500
 1.7700	28.6240
 1.7710	28.5940
 1.7720	28.5680
 1.7730	28.5420
 1.7740	28.5160
 1.7750	28.4930
 1.7760	28.4690
 1.7770	28.4460
 1.7780	28.4200
 1.7790	28.3870
 1.7800	28.3660
 1.7810	28.3460
 1.7820	28.3270
 1.7830	28.3170
 1.7840	28.3040
 1.7850	28.2850
 1.7860	28.2790
 1.7870	28.2820
 1.7880	28.2870
 1.7890	28.2930
 1.7900	28.2900
 1.7910	28.2890
 1.7920	28.2850
 1.7930	28.2820
 1.7940	28.2820
 1.7950	28.2830
 1.7960	28.2810
 1.7970	28.2850
 1.7980	28.2940
 1.7990	28.3010
 1.8000	28.3080
 1.8010	28.3170
 1.8020	28.3240
 1.8030	28.3360
 1.8040	28.3540
 1.8050	28.3670
 1.8060	28.3800
 1.8070	28.3910
 1.8080	28.4000
 1.8090	28.4080
 1.8100	28.4160
 1.8110	28.4200
 1.8120	28.4320
 1.8130	28.4410
 1.8140	28.4510
 1.8150	28.4590
 1.8160	28.4580
 1.8170	28.4630
 1.8180	28.4720
 1.8190	28.4780
 1.8200	28.4840
 1.8210	28.4830
 1.8220	28.4830
 1.8230	28.4860
 1.8240	28.4880
 1.8250	28.4930
 1.8260	28.4920
 1.8270	28.4160
 1.8280	28.3400
 1.8290	28.2640
 1.8300	28.1870
 1.8310	28.1110
 1.8320	28.0350
 1.8330	27.9590
 1.8340	27.8830
 1.8350	27.8830
 1.8360	27.8560
 1.8370	27.8230
 1.8380	27.7870
 1.8390	27.7430
 1.8400	27.6900
 1.8410	27.6300
 1.8420	27.5610
 1.8430	27.4950
 1.8440	27.4190
 1.8450	27.3380
 1.8460	27.2660
 1.8470	27.1730
 1.8480	27.0610
 1.8490	26.9450
 1.8500	26.8150
 1.8510	26.6690
 1.8520	26.5130
 1.8530	26.3540
 1.8540	26.1800
 1.8550	25.9940
 1.8560	25.7990
 1.8570	25.5820
 1.8580	25.3520
 1.8590	25.1070
 1.8600	24.8450
 1.8610	24.5600
 1.8620	24.2660
 1.8630	23.9590
 1.8640	23.6410
 1.8650	23.3010
 1.8660	22.9370
 1.8670	22.5550
 1.8680	22.1480
 1.8690	21.7280
 1.8700	21.2940
 1.8710	20.8490
 1.8720	20.3930
 1.8730	19.9240
 1.8740	19.4470
 1.8750	18.9610
 1.8760	18.4550
 1.8770	17.9510
 1.8780	17.4440
 1.8790	16.9260
 1.8800	16.4210
 1.8810	15.9240
 1.8820	15.4250
 1.8830	14.9210
 1.8840	14.4350
 1.8850	13.9590
 1.8860	13.4960
 1.8870	13.0500
 1.8880	12.6190
 1.8890	12.2060
 1.8900	11.8060
 1.8910	11.4300
 1.8920	11.0710
 1.8930	10.7430
 1.8940	10.4330
 1.8950	10.1420
 1.8960	 9.8760
 1.8970	 9.6280
 1.8980	 9.4050
 1.8990	 9.2070
 1.9000	 9.0260
 1.9010	 8.8730
 1.9020	 8.7250
 1.9030	 8.5900
 1.9040	 8.4690
 1.9050	 8.3640
 1.9060	 8.2740
 1.9070	 8.1990
 1.9080	 8.1290
 1.9090	 8.0590
 1.9100	 8.0040
 1.9110	 7.9490
 1.9120	 7.8910
 1.9130	 7.8490
 1.9140	 7.8170
 1.9150	 7.7820
 1.9160	 7.7640
 1.9170	 7.7570
 1.9180	 7.7440
 1.9190	 7.7340
 1.9200	 7.7240
 1.9210	 7.7060
 1.9220	 7.6960
 1.9230	 7.6930
 1.9240	 7.6880
 1.9250	 7.6820
 1.9260	 7.6850
 1.9270	 7.6900
 1.9280	 7.6890
 1.9290	 7.6980
 1.9300	 7.7050
 1.9310	 7.7100
 1.9320	 7.7240
 1.9330	 7.7340
 1.9340	 7.7420
 1.9350	 7.7560
 1.9360	 7.7730
 1.9370	 7.7880
 1.9380	 7.8060
 1.9390	 7.8220
 1.9400	 7.8400
 1.9410	 7.8650
 1.9420	 7.8890
 1.9430	 7.9220
 1.9440	 7.9450
 1.9450	 7.9620
 1.9460	 7.9830
 1.9470	 7.9980
 1.9480	 8.0190
 1.9490	 8.0460
 1.9500	 8.0770
 1.9510	 8.1040
 1.9520	 8.1380
 1.9530	 8.1700
 1.9540	 8.2000
 1.9550	 8.2330
 1.9560	 8.2680
 1.9570	 8.3030
 1.9580	 8.3410
 1.9590	 8.3760
 1.9600	 8.4010
 1.9610	 8.4370
 1.9620	 8.4780
 1.9630	 8.5210
 1.9640	 8.5640
 1.9650	 8.6080
 1.9660	 8.6450
 1.9670	 8.6760
 1.9680	 8.7150
 1.9690	 8.7550
 1.9700	 8.8030
 1.9710	 8.8630
 1.9720	 8.9130
 1.9730	 8.9640
 1.9740	 9.0130
 1.9750	 9.0550
 1.9760	 9.0970
 1.9770	 9.1510
 1.9780	 9.2080
 1.9790	 9.2620
 1.9800	 9.3210
 1.9810	 9.3760
 1.9820	 9.4250
 1.9830	 9.4780
 1.9840	 9.5320
 1.9850	 9.5870
 1.9860	 9.6420
 1.9870	 9.6970
 1.9880	 9.7550
 1.9890	 9.8080
 1.9900	 9.8560
 1.9910	 9.9050
 1.9920	 9.9580
 1.9930	10.0050
 1.9940	10.0650
 1.9950	10.1380
 1.9960	10.2030
 1.9970	10.2730
 1.9980	10.3390
 1.9990	10.4000
 2.0000	10.4610
 2.0010	10.5120
 2.0020	10.5660
 2.0030	10.6250
 2.0040	10.6790
 2.0050	10.7370
 2.0060	10.8040
 2.0070	10.8630
 2.0080	10.9150
 2.0090	10.9720
 2.0100	11.0340
 2.0110	11.0910
 2.0120	11.1440
 2.0130	11.2000
 2.0140	11.2580
 2.0150	11.3100
 2.0160	11.3630
 2.0170	11.4160
 2.0180	11.4690
 2.0190	11.5180
 2.0200	11.5680
 2.0210	11.6210
 2.0220	11.6700
 2.0230	11.7120
 2.0240	11.7600
 2.0250	11.8160
 2.0260	11.8620
 2.0270	11.9080
 2.0280	11.9490
 2.0290	11.9820
 2.0300	12.0180
 2.0310	12.0560
 2.0320	12.0960
 2.0330	12.1330
 2.0340	12.1690
 2.0350	12.2040
 2.0360	12.2330
 2.0370	12.2670
 2.0380	12.3050
 2.0390	12.3370
 2.0400	12.3660
 2.0410	12.3970
 2.0420	12.4220
 2.0430	12.4470
 2.0440	12.4740
 2.0450	12.5070
 2.0460	12.5310
 2.0470	12.5480
 2.0480	12.5710
 2.0490	12.5890
 2.0500	12.6130
 2.0510	12.6510
 2.0520	12.6780
 2.0530	12.6990
 2.0540	12.7260
 2.0550	12.7530
 2.0560	12.7750
 2.0570	12.8050
 2.0580	12.8360
 2.0590	12.8650
 2.0600	12.8940
 2.0610	12.9180
 2.0620	12.9350
 2.0630	12.9590
 2.0640	12.9760
 2.0650	13.0040
 2.0660	13.0450
 2.0670	13.0760
 2.0680	13.1050
 2.0690	13.1350
 2.0700	13.1630
 2.0710	13.1910
 2.0720	13.2200
 2.0730	13.2510
 2.0740	13.2770
 2.0750	13.2990
 2.0760	13.3210
 2.0770	13.3390
 2.0780	13.3620
 2.0790	13.3890
 2.0800	13.4100
 2.0810	13.4300
 2.0820	13.4510
 2.0830	13.4700
 2.0840	13.4890
 2.0850	13.5090
 2.0860	13.5300
 2.0870	13.5510
 2.0880	13.5660
 2.0890	13.5920
 2.0900	13.6270
 2.0910	13.6550
 2.0920	13.6850
 2.0930	13.7130
 2.0940	13.7420
 2.0950	13.7630
 2.0960	13.7820
 2.0970	13.7980
 2.0980	13.7990
 2.0990	13.8130
 2.1000	13.8300
 2.1010	13.8530
 2.1020	13.8910
 2.1030	13.9190
 2.1040	13.9460
 2.1050	13.9750
 2.1060	13.9950
 2.1070	14.0060
 2.1080	14.0210
 2.1090	14.0310
 2.1100	14.0490
 2.1110	14.0720
 2.1120	14.0890
 2.1130	14.1090
 2.1140	14.1220
 2.1150	14.1200
 2.1160	14.1280
 2.1170	14.1360
 2.1180	14.1470
 2.1190	14.1590
 2.1200	14.1760
 2.1210	14.1930
 2.1220	14.2170
 2.1230	14.2350
 2.1240	14.2540
 2.1250	14.2720
 2.1260	14.2860
 2.1270	14.3010
 2.1280	14.3210
 2.1290	14.3330
 2.1300	14.3350
 2.1310	14.3440
 2.1320	14.3460
 2.1330	14.3590
 2.1340	14.3820
 2.1350	14.3990
 2.1360	14.4230
 2.1370	14.4390
 2.1380	14.4400
 2.1390	14.4550
 2.1400	14.4760
 2.1410	14.4930
 2.1420	14.5170
 2.1430	14.5540
 2.1440	14.5790
 2.1450	14.6040
 2.1460	14.6230
 2.1470	14.6350
 2.1480	14.6540
 2.1490	14.6660
 2.1500	14.6920
 2.1510	14.7390
 2.1520	14.7670
 2.1530	14.7900
 2.1540	14.8160
 2.1550	14.8270
 2.1560	14.8490
 2.1570	14.8790
 2.1580	14.9090
 2.1590	14.9390
 2.1600	14.9740
 2.1610	15.0100
 2.1620	15.0510
 2.1630	15.0950
 2.1640	15.1480
 2.1650	15.1870
 2.1660	15.2280
 2.1670	15.2620
 2.1680	15.2820
 2.1690	15.3130
 2.1700	15.3570
 2.1710	15.3830
 2.1720	15.3980
 2.1730	15.4210
 2.1740	15.4360
 2.1750	15.4580
 2.1760	15.4970
 2.1770	15.5240
 2.1780	15.5420
 2.1790	15.5650
 2.1800	15.5760
 2.1810	15.6050
 2.1820	15.6500
 2.1830	15.6950
 2.1840	15.7330
 2.1850	15.7800
 2.1860	15.8140
 2.1870	15.8320
 2.1880	15.8580
 2.1890	15.8820
 2.1900	15.9140
 2.1910	15.9450
 2.1920	15.9830
 2.1930	16.0400
 2.1940	16.0770
 2.1950	16.1010
 2.1960	16.1340
 2.1970	16.1640
 2.1980	16.1910
 2.1990	16.2230
 2.2000	16.2530
 2.2010	16.2680
 2.2020	16.2930
 2.2030	16.3250
 2.2040	16.3550
 2.2050	16.3880
 2.2060	16.4140
 2.2070	16.4440
 2.2080	16.4750
 2.2090	16.5080
 2.2100	16.5510
 2.2110	16.5710
 2.2120	16.5760
 2.2130	16.5920
 2.2140	16.6000
 2.2150	16.6070
 2.2160	16.6200
 2.2170	16.6280
 2.2180	16.6180
 2.2190	16.6250
 2.2200	16.6510
 2.2210	16.6620
 2.2220	16.6710
 2.2230	16.6820
 2.2240	16.6950
 2.2250	16.6950
 2.2260	16.6930
 2.2270	16.6820
 2.2280	16.6430
 2.2290	16.6200
 2.2300	16.5970
 2.2310	16.5900
 2.2320	16.5740
 2.2330	16.5580
 2.2340	16.5320
 2.2350	16.4930
 2.2360	16.4630
 2.2370	16.4360
 2.2380	16.3990
 2.2390	16.3610
 2.2400	16.3220
 2.2410	16.2730
 2.2420	16.2280
 2.2430	16.1970
 2.2440	16.1370
 2.2450	16.0600
 2.2460	15.9890
 2.2470	15.8970
 2.2480	15.8250
 2.2490	15.7650
 2.2500	15.7040
 2.2510	15.6520
 2.2520	15.5910
 2.2530	15.5320
 2.2540	15.4670
 2.2550	15.3890
 2.2560	15.3200
 2.2570	15.2540
 2.2580	15.1900
 2.2590	15.1380
 2.2600	15.0770
 2.2610	15.0120
 2.2620	14.9440
 2.2630	14.8780
 2.2640	14.8140
 2.2650	14.7630
 2.2660	14.7070
 2.2670	14.6490
 2.2680	14.5910
 2.2690	14.5350
 2.2700	14.4780
 2.2710	14.4220
 2.2720	14.3720
 2.2730	14.3150
 2.2740	14.2490
 2.2750	14.1970
 2.2760	14.1500
 2.2770	14.1030
 2.2780	14.0630
 2.2790	14.0260
 2.2800	13.9900
 2.2810	13.9500
 2.2820	13.9160
 2.2830	13.8770
 2.2840	13.8300
 2.2850	13.7890
 2.2860	13.7590
 2.2870	13.7180
 2.2880	13.6660
 2.2890	13.6190
 2.2900	13.5660
 2.2910	13.5170
 2.2920	13.4760
 2.2930	13.4340
 2.2940	13.3880
 2.2950	13.3450
 2.2960	13.3040
 2.2970	13.2580
 2.2980	13.2050
 2.2990	13.1650
 2.3000	13.1190
 2.3010	13.0860
 2.3020	13.0650
 2.3030	13.0280
 2.3040	12.9820
 2.3050	12.9500
 2.3060	12.9120
 2.3070	12.8770
 2.3080	12.8730
 2.3090	12.8590
 2.3100	12.8500
 2.3110	12.8580
 2.3120	12.8520
 2.3130	12.8370
 2.3140	12.8330
 2.3150	12.8290
 2.3160	12.8260
 2.3170	12.8330
 2.3180	12.8180
 2.3190	12.7900
 2.3200	12.7730
 2.3210	12.7440
 2.3220	12.7230
 2.3230	12.7200
 2.3240	12.6980
 2.3250	12.6640
 2.3260	12.6430
 2.3270	12.6260
 2.3280	12.6000
 2.3290	12.5780
 2.3300	12.5490
 2.3310	12.4980
 2.3320	12.4710
 2.3330	12.4550
 2.3340	12.4340
 2.3350	12.4320
 2.3360	12.4090
 2.3370	12.3640
 2.3380	12.3350
 2.3390	12.3060
 2.3400	12.2740
 2.3410	12.2480
 2.3420	12.2200
 2.3430	12.1900
 2.3440	12.1520
 2.3450	12.1110
 2.3460	12.0710
 2.3470	12.0170
 2.3480	11.9800
 2.3490	11.9530
 2.3500	11.9270
 2.3510	11.9030
 2.3520	11.8850
 2.3530	11.8670
 2.3540	11.8670
 2.3550	11.8800
 2.3560	11.8780
 2.3570	11.8430
 2.3580	11.8070
 2.3590	11.7800
 2.3600	11.7440
 2.3610	11.7370
 2.3620	11.7350
 2.3630	11.6960
 2.3640	11.6590
 2.3650	11.6360
 2.3660	11.6140
 2.3670	11.6000
 2.3680	11.5880
 2.3690	11.5720
 2.3700	11.5250
 2.3710	11.4930
 2.3720	11.4880
 2.3730	11.4690
 2.3740	11.4690
 2.3750	11.4680
 2.3760	11.4430
 2.3770	11.4240
 2.3780	11.3840
 2.3790	11.3510
 2.3800	11.3180
 2.3810	11.2560
 2.3820	11.2240
 2.3830	11.1660
 2.3840	11.1190
 2.3850	11.1040
 2.3860	11.0790
 2.3870	11.0930
 2.3880	11.0630
 2.3890	11.0200
 2.3900	11.0020
 2.3910	10.9450
 2.3920	10.9270
 2.3930	10.9440
 2.3940	10.9210
 2.3950	10.8730
 2.3960	10.8170
 2.3970	10.7410
 2.3980	10.6740
 2.3990	10.6700
 2.4000	10.6640
 2.4010	10.6700
 2.4020	10.6860
 2.4030	10.6660
 2.4040	10.6790
 2.4050	10.6610
 2.4060	10.6110
 2.4070	10.5350
 2.4080	10.4600
 2.4090	10.4180
 2.4100	10.3610
 2.4110	10.3760
 2.4120	10.3570
 2.4130	10.2850
 2.4140	10.2600
 2.4150	10.1970
 2.4160	10.1740
 2.4170	10.1860
 2.4180	10.1350
 2.4190	10.1070
 2.4200	10.0730
 2.4210	 9.9950
 2.4220	 9.9690
 2.4230	 9.9870
 2.4240	 9.9800
 2.4250	 9.9620
 2.4260	 9.9490
 2.4270	 9.9020
 2.4280	 9.8450
 2.4290	 9.8160
 2.4300	 9.7770
 2.4310	 9.7320
 2.4320	 9.7170
 2.4330	 9.6920
 2.4340	 9.6660
 2.4350	 9.6900
 2.4360	 9.6560
 2.4370	 9.6070
 2.4380	 9.6150
 2.4390	 9.5380
 2.4400	 9.4400
 2.4410	 9.4180
 2.4420	 9.3810
 2.4430	 9.3450
 2.4440	 9.3610
 2.4450	 9.3980
 2.4460	 9.4310
 2.4470	 9.4470
 2.4480	 9.4240
 2.4490	 9.3410
 2.4500	 9.2530
 2.4510	 9.2340
 2.4520	 9.2300
 2.4530	 9.2120
 2.4540	 9.1710
 2.4550	 9.0940
 2.4560	 9.0540
 2.4570	 9.0240
 2.4580	 9.0070
 2.4590	 8.9960
 2.4600	 8.9690
 2.4610	 9.0010
 2.4620	 8.9580
 2.4630	 8.8670
 2.4640	 8.7850
 2.4650	 8.7110
 2.4660	 8.7220
 2.4670	 8.7110
 2.4680	 8.7750
 2.4690	 8.7830
 2.4700	 8.7430
 2.4710	 8.7250
 2.4720	 8.6760
 2.4730	 8.5230
 2.4740	 8.4830
 2.4750	 8.5300
 2.4760	 8.5710
 2.4770	 8.6740
 2.4780	 8.7080
 2.4790	 8.7110
 2.4800	 8.6800
 2.4810	 8.5870
 2.4820	 8.4840
 2.4830	 8.3980
 2.4840	 8.3260
 2.4850	 8.3300
 2.4860	 8.3880
 2.4870	 8.4590
 2.4880	 8.5440
 2.4890	 8.4750
 2.4900	 8.2980
 2.4910	 8.1590
 2.4920	 8.0100
 2.4930	 7.9800
 2.4940	 8.0270
 2.4950	 8.0540
 2.4960	 8.1930
 2.4970	 8.3110
 2.4980	 8.4650
 2.4990	 8.6480
 2.5000	 8.5900
