Name: Pinus lambertiana 1
Type: vegetation
Class: Tree
Genus: Pinus
Species: lambertiana
Sample No.: VH147
Owner: UCSB
Wavelength Range: VSWIR
Origin: 37.043; -119.3043; WGS84
Collection Date: 6/8/2013
Description: Samples were collected as part of the HyspIRI Airborne Campaign. 48 individual plants were sampled in three times in 2013 - spring  summer  and fall. The name of the sample includes a 1  2  or 3 which references a different individual of the species. Samples were taken to JPL and processed within 48 hours of collection. The same leaves were processed in the Nicolet and then measured using the ASD.
Measurement: Bidirectional reflectance
First Column: X
Second Column: Y
X Units: Wavelength (micrometers)
Y Units: Reflectance (percentage)
First X Value: 0.35
Last X Value: 2.5
Number of X Values: 2151
Additional Information: vegetation.tree.pinus.lambertiana.vswir.vh147.ucsb.asd.ancillary.txt

 0.3500	 7.4030
 0.3510	 7.4080
 0.3520	 7.3730
 0.3530	 7.2870
 0.3540	 7.1700
 0.3550	 7.1490
 0.3560	 7.1200
 0.3570	 7.1160
 0.3580	 7.2250
 0.3590	 7.2720
 0.3600	 7.2120
 0.3610	 7.0860
 0.3620	 7.0540
 0.3630	 7.1980
 0.3640	 7.3160
 0.3650	 7.2370
 0.3660	 7.1770
 0.3670	 7.1530
 0.3680	 7.1760
 0.3690	 7.2420
 0.3700	 7.1500
 0.3710	 7.0690
 0.3720	 7.0850
 0.3730	 7.0280
 0.3740	 7.0340
 0.3750	 7.0580
 0.3760	 7.0370
 0.3770	 7.1220
 0.3780	 7.1240
 0.3790	 7.0480
 0.3800	 7.0930
 0.3810	 7.0740
 0.3820	 7.0530
 0.3830	 7.0780
 0.3840	 7.0930
 0.3850	 7.0470
 0.3860	 7.0030
 0.3870	 7.0390
 0.3880	 7.0290
 0.3890	 7.0250
 0.3900	 7.0360
 0.3910	 7.0130
 0.3920	 6.9910
 0.3930	 6.9940
 0.3940	 7.0220
 0.3950	 7.0120
 0.3960	 7.0140
 0.3970	 7.0120
 0.3980	 6.9780
 0.3990	 7.0350
 0.4000	 7.0710
 0.4010	 7.0420
 0.4020	 7.0540
 0.4030	 7.0430
 0.4040	 7.0450
 0.4050	 7.0820
 0.4060	 7.1160
 0.4070	 7.1250
 0.4080	 7.1300
 0.4090	 7.1640
 0.4100	 7.2020
 0.4110	 7.2240
 0.4120	 7.2320
 0.4130	 7.2920
 0.4140	 7.3550
 0.4150	 7.4010
 0.4160	 7.4210
 0.4170	 7.4480
 0.4180	 7.4980
 0.4190	 7.5640
 0.4200	 7.6360
 0.4210	 7.7060
 0.4220	 7.7610
 0.4230	 7.7960
 0.4240	 7.8260
 0.4250	 7.8840
 0.4260	 7.9530
 0.4270	 7.9990
 0.4280	 8.0410
 0.4290	 8.0780
 0.4300	 8.1120
 0.4310	 8.1470
 0.4320	 8.1830
 0.4330	 8.2240
 0.4340	 8.2600
 0.4350	 8.2810
 0.4360	 8.3030
 0.4370	 8.3280
 0.4380	 8.3590
 0.4390	 8.3930
 0.4400	 8.4310
 0.4410	 8.4670
 0.4420	 8.5030
 0.4430	 8.5290
 0.4440	 8.5490
 0.4450	 8.5700
 0.4460	 8.5930
 0.4470	 8.6200
 0.4480	 8.6400
 0.4490	 8.6560
 0.4500	 8.6840
 0.4510	 8.7130
 0.4520	 8.7300
 0.4530	 8.7480
 0.4540	 8.7610
 0.4550	 8.7760
 0.4560	 8.7970
 0.4570	 8.8020
 0.4580	 8.8090
 0.4590	 8.8280
 0.4600	 8.8390
 0.4610	 8.8560
 0.4620	 8.8700
 0.4630	 8.8820
 0.4640	 8.8820
 0.4650	 8.8890
 0.4660	 8.9010
 0.4670	 8.9050
 0.4680	 8.9200
 0.4690	 8.9290
 0.4700	 8.9290
 0.4710	 8.9340
 0.4720	 8.9380
 0.4730	 8.9420
 0.4740	 8.9510
 0.4750	 8.9600
 0.4760	 8.9620
 0.4770	 8.9630
 0.4780	 8.9800
 0.4790	 8.9940
 0.4800	 8.9980
 0.4810	 8.9950
 0.4820	 8.9910
 0.4830	 9.0000
 0.4840	 9.0160
 0.4850	 9.0180
 0.4860	 9.0320
 0.4870	 9.0410
 0.4880	 9.0460
 0.4890	 9.0690
 0.4900	 9.0970
 0.4910	 9.1190
 0.4920	 9.1320
 0.4930	 9.1610
 0.4940	 9.1900
 0.4950	 9.2210
 0.4960	 9.2500
 0.4970	 9.2950
 0.4980	 9.3480
 0.4990	 9.3980
 0.5000	 9.4440
 0.5010	 9.4970
 0.5020	 9.5600
 0.5030	 9.6300
 0.5040	 9.7050
 0.5050	 9.7890
 0.5060	 9.8830
 0.5070	 9.9840
 0.5080	10.0930
 0.5090	10.2100
 0.5100	10.3390
 0.5110	10.4780
 0.5120	10.6290
 0.5130	10.7910
 0.5140	10.9640
 0.5150	11.1450
 0.5160	11.3340
 0.5170	11.5290
 0.5180	11.7370
 0.5190	11.9530
 0.5200	12.1710
 0.5210	12.3800
 0.5220	12.5860
 0.5230	12.7980
 0.5240	13.0170
 0.5250	13.2130
 0.5260	13.4020
 0.5270	13.5810
 0.5280	13.7450
 0.5290	13.9010
 0.5300	14.0480
 0.5310	14.1810
 0.5320	14.3050
 0.5330	14.4200
 0.5340	14.5260
 0.5350	14.6230
 0.5360	14.7030
 0.5370	14.7730
 0.5380	14.8410
 0.5390	14.9080
 0.5400	14.9700
 0.5410	15.0220
 0.5420	15.0670
 0.5430	15.1180
 0.5440	15.1690
 0.5450	15.2240
 0.5460	15.2880
 0.5470	15.3580
 0.5480	15.4210
 0.5490	15.4720
 0.5500	15.5150
 0.5510	15.5510
 0.5520	15.5790
 0.5530	15.5980
 0.5540	15.6010
 0.5550	15.5910
 0.5560	15.5650
 0.5570	15.5240
 0.5580	15.4740
 0.5590	15.4150
 0.5600	15.3480
 0.5610	15.2790
 0.5620	15.2070
 0.5630	15.1290
 0.5640	15.0410
 0.5650	14.9460
 0.5660	14.8370
 0.5670	14.7160
 0.5680	14.5930
 0.5690	14.4630
 0.5700	14.3340
 0.5710	14.2110
 0.5720	14.0860
 0.5730	13.9690
 0.5740	13.8640
 0.5750	13.7680
 0.5760	13.6800
 0.5770	13.5990
 0.5780	13.5240
 0.5790	13.4380
 0.5800	13.3620
 0.5810	13.2970
 0.5820	13.2380
 0.5830	13.1820
 0.5840	13.1230
 0.5850	13.0590
 0.5860	12.9960
 0.5870	12.9320
 0.5880	12.8690
 0.5890	12.8180
 0.5900	12.7910
 0.5910	12.7750
 0.5920	12.7610
 0.5930	12.7460
 0.5940	12.7360
 0.5950	12.7250
 0.5960	12.7120
 0.5970	12.6930
 0.5980	12.6750
 0.5990	12.6580
 0.6000	12.6410
 0.6010	12.6140
 0.6020	12.5880
 0.6030	12.5620
 0.6040	12.5270
 0.6050	12.4850
 0.6060	12.4350
 0.6070	12.3750
 0.6080	12.3120
 0.6090	12.2390
 0.6100	12.1580
 0.6110	12.0740
 0.6120	12.0050
 0.6130	11.9430
 0.6140	11.8840
 0.6150	11.8270
 0.6160	11.7700
 0.6170	11.7150
 0.6180	11.6640
 0.6190	11.6190
 0.6200	11.5740
 0.6210	11.5330
 0.6220	11.5040
 0.6230	11.4800
 0.6240	11.4590
 0.6250	11.4410
 0.6260	11.4320
 0.6270	11.4260
 0.6280	11.4190
 0.6290	11.4100
 0.6300	11.4070
 0.6310	11.4050
 0.6320	11.4000
 0.6330	11.3900
 0.6340	11.3710
 0.6350	11.3430
 0.6360	11.3060
 0.6370	11.2580
 0.6380	11.2040
 0.6390	11.1460
 0.6400	11.0850
 0.6410	11.0160
 0.6420	10.9440
 0.6430	10.8760
 0.6440	10.8070
 0.6450	10.7330
 0.6460	10.6590
 0.6470	10.5900
 0.6480	10.5250
 0.6490	10.4740
 0.6500	10.4350
 0.6510	10.3950
 0.6520	10.3570
 0.6530	10.3230
 0.6540	10.2930
 0.6550	10.2570
 0.6560	10.2160
 0.6570	10.1680
 0.6580	10.1140
 0.6590	10.0600
 0.6600	10.0040
 0.6610	 9.9460
 0.6620	 9.8880
 0.6630	 9.8340
 0.6640	 9.7820
 0.6650	 9.7380
 0.6660	 9.6990
 0.6670	 9.6730
 0.6680	 9.6520
 0.6690	 9.6300
 0.6700	 9.6190
 0.6710	 9.6160
 0.6720	 9.6160
 0.6730	 9.6220
 0.6740	 9.6360
 0.6750	 9.6530
 0.6760	 9.6700
 0.6770	 9.6970
 0.6780	 9.7280
 0.6790	 9.7620
 0.6800	 9.8060
 0.6810	 9.8590
 0.6820	 9.9200
 0.6830	 9.9890
 0.6840	10.0740
 0.6850	10.1790
 0.6860	10.3080
 0.6870	10.4660
 0.6880	10.6640
 0.6890	10.9080
 0.6900	11.2060
 0.6910	11.5710
 0.6920	12.0060
 0.6930	12.5050
 0.6940	13.0640
 0.6950	13.6940
 0.6960	14.3710
 0.6970	15.0990
 0.6980	15.8820
 0.6990	16.6950
 0.7000	17.5330
 0.7010	18.3950
 0.7020	19.2750
 0.7030	20.1580
 0.7040	21.0430
 0.7050	21.9330
 0.7060	22.8260
 0.7070	23.7170
 0.7080	24.6040
 0.7090	25.4880
 0.7100	26.3810
 0.7110	27.2810
 0.7120	28.1840
 0.7130	29.0800
 0.7140	29.9790
 0.7150	30.8850
 0.7160	31.7940
 0.7170	32.6960
 0.7180	33.5990
 0.7190	34.5030
 0.7200	35.4000
 0.7210	36.2890
 0.7220	37.1740
 0.7230	38.0500
 0.7240	38.9030
 0.7250	39.7520
 0.7260	40.5810
 0.7270	41.3810
 0.7280	42.1680
 0.7290	42.9310
 0.7300	43.6640
 0.7310	44.3650
 0.7320	45.0470
 0.7330	45.7060
 0.7340	46.3360
 0.7350	46.9340
 0.7360	47.5170
 0.7370	48.0700
 0.7380	48.5850
 0.7390	49.0780
 0.7400	49.5490
 0.7410	49.9930
 0.7420	50.4060
 0.7430	50.7920
 0.7440	51.1580
 0.7450	51.5010
 0.7460	51.8180
 0.7470	52.1130
 0.7480	52.3910
 0.7490	52.6510
 0.7500	52.8920
 0.7510	53.1160
 0.7520	53.3220
 0.7530	53.5120
 0.7540	53.6800
 0.7550	53.8350
 0.7560	53.9850
 0.7570	54.1300
 0.7580	54.2630
 0.7590	54.3840
 0.7600	54.4930
 0.7610	54.6030
 0.7620	54.7060
 0.7630	54.8000
 0.7640	54.8870
 0.7650	54.9650
 0.7660	55.0430
 0.7670	55.1160
 0.7680	55.1740
 0.7690	55.2400
 0.7700	55.3080
 0.7710	55.3680
 0.7720	55.4130
 0.7730	55.4660
 0.7740	55.5270
 0.7750	55.5890
 0.7760	55.6400
 0.7770	55.6820
 0.7780	55.7270
 0.7790	55.7840
 0.7800	55.8290
 0.7810	55.8730
 0.7820	55.9220
 0.7830	55.9770
 0.7840	56.0220
 0.7850	56.0540
 0.7860	56.0840
 0.7870	56.1300
 0.7880	56.1740
 0.7890	56.2140
 0.7900	56.2510
 0.7910	56.2920
 0.7920	56.3330
 0.7930	56.3700
 0.7940	56.4030
 0.7950	56.4390
 0.7960	56.4720
 0.7970	56.5020
 0.7980	56.5410
 0.7990	56.5730
 0.8000	56.6030
 0.8010	56.6350
 0.8020	56.6660
 0.8030	56.6860
 0.8040	56.7080
 0.8050	56.7440
 0.8060	56.7630
 0.8070	56.7840
 0.8080	56.8100
 0.8090	56.8310
 0.8100	56.8520
 0.8110	56.8770
 0.8120	56.9010
 0.8130	56.9150
 0.8140	56.9320
 0.8150	56.9580
 0.8160	56.9890
 0.8170	57.0130
 0.8180	57.0310
 0.8190	57.0480
 0.8200	57.0720
 0.8210	57.0910
 0.8220	57.1120
 0.8230	57.1330
 0.8240	57.1450
 0.8250	57.1520
 0.8260	57.1660
 0.8270	57.1880
 0.8280	57.1990
 0.8290	57.2010
 0.8300	57.2130
 0.8310	57.2430
 0.8320	57.2570
 0.8330	57.2650
 0.8340	57.2770
 0.8350	57.3010
 0.8360	57.3300
 0.8370	57.3460
 0.8380	57.3570
 0.8390	57.3840
 0.8400	57.3950
 0.8410	57.4120
 0.8420	57.4460
 0.8430	57.4790
 0.8440	57.4920
 0.8450	57.5050
 0.8460	57.5350
 0.8470	57.5700
 0.8480	57.5950
 0.8490	57.6120
 0.8500	57.6290
 0.8510	57.6630
 0.8520	57.6950
 0.8530	57.7180
 0.8540	57.7350
 0.8550	57.7610
 0.8560	57.7790
 0.8570	57.7930
 0.8580	57.8270
 0.8590	57.8540
 0.8600	57.8770
 0.8610	57.9000
 0.8620	57.9180
 0.8630	57.9370
 0.8640	57.9580
 0.8650	57.9780
 0.8660	58.0040
 0.8670	58.0270
 0.8680	58.0440
 0.8690	58.0570
 0.8700	58.0760
 0.8710	58.1030
 0.8720	58.1280
 0.8730	58.1370
 0.8740	58.1550
 0.8750	58.1750
 0.8760	58.1980
 0.8770	58.2280
 0.8780	58.2430
 0.8790	58.2590
 0.8800	58.2830
 0.8810	58.3070
 0.8820	58.3180
 0.8830	58.3320
 0.8840	58.3530
 0.8850	58.3560
 0.8860	58.3610
 0.8870	58.3710
 0.8880	58.3820
 0.8890	58.4060
 0.8900	58.4140
 0.8910	58.4170
 0.8920	58.4400
 0.8930	58.4480
 0.8940	58.4540
 0.8950	58.4650
 0.8960	58.4810
 0.8970	58.4930
 0.8980	58.5010
 0.8990	58.5030
 0.9000	58.4990
 0.9010	58.5060
 0.9020	58.5130
 0.9030	58.5200
 0.9040	58.5420
 0.9050	58.5510
 0.9060	58.5540
 0.9070	58.5580
 0.9080	58.5520
 0.9090	58.5440
 0.9100	58.5460
 0.9110	58.5620
 0.9120	58.5820
 0.9130	58.5930
 0.9140	58.5900
 0.9150	58.5760
 0.9160	58.5770
 0.9170	58.5750
 0.9180	58.5720
 0.9190	58.5760
 0.9200	58.5740
 0.9210	58.5710
 0.9220	58.5590
 0.9230	58.5310
 0.9240	58.5160
 0.9250	58.5140
 0.9260	58.5110
 0.9270	58.4880
 0.9280	58.4500
 0.9290	58.4140
 0.9300	58.3870
 0.9310	58.3680
 0.9320	58.3320
 0.9330	58.2890
 0.9340	58.2460
 0.9350	58.2000
 0.9360	58.1550
 0.9370	58.1060
 0.9380	58.0530
 0.9390	58.0020
 0.9400	57.9380
 0.9410	57.8620
 0.9420	57.7840
 0.9430	57.7190
 0.9440	57.6420
 0.9450	57.5630
 0.9460	57.4820
 0.9470	57.3730
 0.9480	57.2590
 0.9490	57.1420
 0.9500	57.0220
 0.9510	56.9050
 0.9520	56.7820
 0.9530	56.6410
 0.9540	56.4840
 0.9550	56.3500
 0.9560	56.2160
 0.9570	56.0830
 0.9580	55.9570
 0.9590	55.8450
 0.9600	55.7210
 0.9610	55.6010
 0.9620	55.5060
 0.9630	55.4380
 0.9640	55.3720
 0.9650	55.3050
 0.9660	55.2450
 0.9670	55.2040
 0.9680	55.1570
 0.9690	55.1120
 0.9700	55.0800
 0.9710	55.0350
 0.9720	55.0020
 0.9730	54.9770
 0.9740	54.9480
 0.9750	54.9470
 0.9760	54.9300
 0.9770	54.9040
 0.9780	54.9010
 0.9790	54.9000
 0.9800	54.9050
 0.9810	54.9080
 0.9820	54.9100
 0.9830	54.9550
 0.9840	54.9750
 0.9850	54.9770
 0.9860	55.0020
 0.9870	55.0370
 0.9880	55.0680
 0.9890	55.1010
 0.9900	55.1430
 0.9910	55.1690
 0.9920	55.1950
 0.9930	55.2450
 0.9940	55.3250
 0.9950	55.3740
 0.9960	55.4100
 0.9970	55.4450
 0.9980	55.4930
 0.9990	55.5820
 1.0000	55.8010
 1.0010	56.1150
 1.0020	56.3290
 1.0030	56.3920
 1.0040	56.4570
 1.0050	56.5240
 1.0060	56.5990
 1.0070	56.6670
 1.0080	56.7320
 1.0090	56.7920
 1.0100	56.8560
 1.0110	56.9170
 1.0120	56.9850
 1.0130	57.0610
 1.0140	57.1310
 1.0150	57.2000
 1.0160	57.2670
 1.0170	57.3300
 1.0180	57.3910
 1.0190	57.4560
 1.0200	57.5230
 1.0210	57.5940
 1.0220	57.6670
 1.0230	57.7390
 1.0240	57.8160
 1.0250	57.8830
 1.0260	57.9420
 1.0270	58.0060
 1.0280	58.0660
 1.0290	58.1300
 1.0300	58.2010
 1.0310	58.2670
 1.0320	58.3340
 1.0330	58.3920
 1.0340	58.4450
 1.0350	58.4990
 1.0360	58.5510
 1.0370	58.6080
 1.0380	58.6660
 1.0390	58.7310
 1.0400	58.7890
 1.0410	58.8480
 1.0420	58.9000
 1.0430	58.9450
 1.0440	58.9950
 1.0450	59.0440
 1.0460	59.0930
 1.0470	59.1460
 1.0480	59.1940
 1.0490	59.2370
 1.0500	59.2810
 1.0510	59.3230
 1.0520	59.3650
 1.0530	59.4040
 1.0540	59.4410
 1.0550	59.4780
 1.0560	59.5120
 1.0570	59.5470
 1.0580	59.5830
 1.0590	59.6170
 1.0600	59.6510
 1.0610	59.6820
 1.0620	59.7120
 1.0630	59.7400
 1.0640	59.7690
 1.0650	59.7930
 1.0660	59.8110
 1.0670	59.8310
 1.0680	59.8490
 1.0690	59.8600
 1.0700	59.8790
 1.0710	59.9040
 1.0720	59.9200
 1.0730	59.9350
 1.0740	59.9460
 1.0750	59.9500
 1.0760	59.9580
 1.0770	59.9670
 1.0780	59.9720
 1.0790	59.9760
 1.0800	59.9790
 1.0810	59.9810
 1.0820	59.9810
 1.0830	59.9810
 1.0840	59.9780
 1.0850	59.9690
 1.0860	59.9620
 1.0870	59.9550
 1.0880	59.9490
 1.0890	59.9410
 1.0900	59.9360
 1.0910	59.9230
 1.0920	59.9070
 1.0930	59.8880
 1.0940	59.8620
 1.0950	59.8400
 1.0960	59.8190
 1.0970	59.7940
 1.0980	59.7680
 1.0990	59.7440
 1.1000	59.7210
 1.1010	59.6940
 1.1020	59.6670
 1.1030	59.6390
 1.1040	59.6040
 1.1050	59.5680
 1.1060	59.5330
 1.1070	59.4990
 1.1080	59.4630
 1.1090	59.4260
 1.1100	59.3880
 1.1110	59.3510
 1.1120	59.3070
 1.1130	59.2620
 1.1140	59.2130
 1.1150	59.1620
 1.1160	59.1040
 1.1170	59.0410
 1.1180	58.9730
 1.1190	58.8980
 1.1200	58.8160
 1.1210	58.7300
 1.1220	58.6370
 1.1230	58.5360
 1.1240	58.4280
 1.1250	58.3040
 1.1260	58.1710
 1.1270	58.0230
 1.1280	57.8620
 1.1290	57.6870
 1.1300	57.5040
 1.1310	57.3020
 1.1320	57.0840
 1.1330	56.8530
 1.1340	56.6040
 1.1350	56.3450
 1.1360	56.0740
 1.1370	55.7900
 1.1380	55.4970
 1.1390	55.1960
 1.1400	54.8860
 1.1410	54.5730
 1.1420	54.2570
 1.1430	53.9370
 1.1440	53.6230
 1.1450	53.3060
 1.1460	53.0000
 1.1470	52.6970
 1.1480	52.4060
 1.1490	52.1210
 1.1500	51.8560
 1.1510	51.6000
 1.1520	51.3610
 1.1530	51.1390
 1.1540	50.9320
 1.1550	50.7400
 1.1560	50.5620
 1.1570	50.4010
 1.1580	50.2540
 1.1590	50.1190
 1.1600	49.9960
 1.1610	49.8850
 1.1620	49.7820
 1.1630	49.6880
 1.1640	49.6060
 1.1650	49.5290
 1.1660	49.4610
 1.1670	49.3970
 1.1680	49.3390
 1.1690	49.2810
 1.1700	49.2270
 1.1710	49.1770
 1.1720	49.1320
 1.1730	49.0860
 1.1740	49.0440
 1.1750	49.0010
 1.1760	48.9550
 1.1770	48.9080
 1.1780	48.8610
 1.1790	48.8120
 1.1800	48.7610
 1.1810	48.7120
 1.1820	48.6620
 1.1830	48.6140
 1.1840	48.5690
 1.1850	48.5220
 1.1860	48.4750
 1.1870	48.4320
 1.1880	48.3920
 1.1890	48.3530
 1.1900	48.3180
 1.1910	48.2850
 1.1920	48.2570
 1.1930	48.2320
 1.1940	48.2120
 1.1950	48.1970
 1.1960	48.1830
 1.1970	48.1720
 1.1980	48.1640
 1.1990	48.1610
 1.2000	48.1630
 1.2010	48.1720
 1.2020	48.1870
 1.2030	48.2020
 1.2040	48.2190
 1.2050	48.2410
 1.2060	48.2640
 1.2070	48.2930
 1.2080	48.3270
 1.2090	48.3640
 1.2100	48.4030
 1.2110	48.4460
 1.2120	48.4930
 1.2130	48.5430
 1.2140	48.5960
 1.2150	48.6520
 1.2160	48.7110
 1.2170	48.7710
 1.2180	48.8360
 1.2190	48.9030
 1.2200	48.9710
 1.2210	49.0400
 1.2220	49.1080
 1.2230	49.1750
 1.2240	49.2440
 1.2250	49.3130
 1.2260	49.3820
 1.2270	49.4510
 1.2280	49.5160
 1.2290	49.5830
 1.2300	49.6490
 1.2310	49.7130
 1.2320	49.7780
 1.2330	49.8390
 1.2340	49.8980
 1.2350	49.9540
 1.2360	50.0100
 1.2370	50.0650
 1.2380	50.1200
 1.2390	50.1740
 1.2400	50.2270
 1.2410	50.2760
 1.2420	50.3230
 1.2430	50.3680
 1.2440	50.4150
 1.2450	50.4600
 1.2460	50.5060
 1.2470	50.5500
 1.2480	50.5920
 1.2490	50.6320
 1.2500	50.6700
 1.2510	50.7080
 1.2520	50.7440
 1.2530	50.7780
 1.2540	50.8110
 1.2550	50.8430
 1.2560	50.8730
 1.2570	50.8990
 1.2580	50.9250
 1.2590	50.9500
 1.2600	50.9730
 1.2610	50.9930
 1.2620	51.0120
 1.2630	51.0280
 1.2640	51.0410
 1.2650	51.0510
 1.2660	51.0620
 1.2670	51.0720
 1.2680	51.0790
 1.2690	51.0860
 1.2700	51.0880
 1.2710	51.0870
 1.2720	51.0860
 1.2730	51.0820
 1.2740	51.0760
 1.2750	51.0660
 1.2760	51.0550
 1.2770	51.0420
 1.2780	51.0260
 1.2790	51.0080
 1.2800	50.9880
 1.2810	50.9650
 1.2820	50.9400
 1.2830	50.9140
 1.2840	50.8850
 1.2850	50.8520
 1.2860	50.8160
 1.2870	50.7770
 1.2880	50.7360
 1.2890	50.6880
 1.2900	50.6360
 1.2910	50.5800
 1.2920	50.5190
 1.2930	50.4550
 1.2940	50.3890
 1.2950	50.3150
 1.2960	50.2340
 1.2970	50.1450
 1.2980	50.0550
 1.2990	49.9590
 1.3000	49.8590
 1.3010	49.7570
 1.3020	49.6480
 1.3030	49.5350
 1.3040	49.4190
 1.3050	49.2970
 1.3060	49.1690
 1.3070	49.0340
 1.3080	48.8960
 1.3090	48.7550
 1.3100	48.6070
 1.3110	48.4530
 1.3120	48.2940
 1.3130	48.1300
 1.3140	47.9590
 1.3150	47.7840
 1.3160	47.6030
 1.3170	47.4160
 1.3180	47.2220
 1.3190	47.0250
 1.3200	46.8270
 1.3210	46.6230
 1.3220	46.4150
 1.3230	46.2020
 1.3240	45.9830
 1.3250	45.7640
 1.3260	45.5420
 1.3270	45.3160
 1.3280	45.0900
 1.3290	44.8600
 1.3300	44.6270
 1.3310	44.3950
 1.3320	44.1590
 1.3330	43.9250
 1.3340	43.6920
 1.3350	43.4590
 1.3360	43.2270
 1.3370	42.9940
 1.3380	42.7630
 1.3390	42.5340
 1.3400	42.3070
 1.3410	42.0850
 1.3420	41.8650
 1.3430	41.6460
 1.3440	41.4350
 1.3450	41.2260
 1.3460	41.0200
 1.3470	40.8190
 1.3480	40.6210
 1.3490	40.4260
 1.3500	40.2350
 1.3510	40.0480
 1.3520	39.8610
 1.3530	39.6790
 1.3540	39.4960
 1.3550	39.3140
 1.3560	39.1340
 1.3570	38.9530
 1.3580	38.7740
 1.3590	38.5940
 1.3600	38.4100
 1.3610	38.2240
 1.3620	38.0340
 1.3630	37.8380
 1.3640	37.6370
 1.3650	37.4270
 1.3660	37.2120
 1.3670	36.9880
 1.3680	36.7530
 1.3690	36.5080
 1.3700	36.2480
 1.3710	35.9740
 1.3720	35.6850
 1.3730	35.3790
 1.3740	35.0590
 1.3750	34.7200
 1.3760	34.3590
 1.3770	33.9780
 1.3780	33.5710
 1.3790	33.1450
 1.3800	32.6980
 1.3810	32.2260
 1.3820	31.7420
 1.3830	31.2410
 1.3840	30.7260
 1.3850	30.1940
 1.3860	29.6560
 1.3870	29.1000
 1.3880	28.5490
 1.3890	27.9920
 1.3900	27.4330
 1.3910	26.8800
 1.3920	26.3270
 1.3930	25.7760
 1.3940	25.2350
 1.3950	24.6980
 1.3960	24.1750
 1.3970	23.6680
 1.3980	23.1750
 1.3990	22.7060
 1.4000	22.2530
 1.4010	21.8140
 1.4020	21.3990
 1.4030	20.9970
 1.4040	20.6150
 1.4050	20.2560
 1.4060	19.9140
 1.4070	19.5940
 1.4080	19.2930
 1.4090	19.0070
 1.4100	18.7420
 1.4110	18.4920
 1.4120	18.2570
 1.4130	18.0390
 1.4140	17.8340
 1.4150	17.6420
 1.4160	17.4640
 1.4170	17.2990
 1.4180	17.1450
 1.4190	17.0020
 1.4200	16.8690
 1.4210	16.7450
 1.4220	16.6290
 1.4230	16.5220
 1.4240	16.4240
 1.4250	16.3320
 1.4260	16.2470
 1.4270	16.1680
 1.4280	16.0970
 1.4290	16.0310
 1.4300	15.9700
 1.4310	15.9140
 1.4320	15.8650
 1.4330	15.8190
 1.4340	15.7780
 1.4350	15.7390
 1.4360	15.7040
 1.4370	15.6730
 1.4380	15.6460
 1.4390	15.6230
 1.4400	15.6030
 1.4410	15.5860
 1.4420	15.5710
 1.4430	15.5590
 1.4440	15.5490
 1.4450	15.5410
 1.4460	15.5340
 1.4470	15.5290
 1.4480	15.5270
 1.4490	15.5260
 1.4500	15.5270
 1.4510	15.5290
 1.4520	15.5340
 1.4530	15.5400
 1.4540	15.5470
 1.4550	15.5560
 1.4560	15.5670
 1.4570	15.5790
 1.4580	15.5940
 1.4590	15.6110
 1.4600	15.6310
 1.4610	15.6530
 1.4620	15.6770
 1.4630	15.7050
 1.4640	15.7360
 1.4650	15.7690
 1.4660	15.8060
 1.4670	15.8450
 1.4680	15.8880
 1.4690	15.9340
 1.4700	15.9830
 1.4710	16.0360
 1.4720	16.0920
 1.4730	16.1510
 1.4740	16.2140
 1.4750	16.2780
 1.4760	16.3450
 1.4770	16.4140
 1.4780	16.4840
 1.4790	16.5580
 1.4800	16.6330
 1.4810	16.7090
 1.4820	16.7870
 1.4830	16.8650
 1.4840	16.9470
 1.4850	17.0290
 1.4860	17.1120
 1.4870	17.1960
 1.4880	17.2800
 1.4890	17.3660
 1.4900	17.4520
 1.4910	17.5400
 1.4920	17.6290
 1.4930	17.7190
 1.4940	17.8090
 1.4950	17.9000
 1.4960	17.9910
 1.4970	18.0820
 1.4980	18.1730
 1.4990	18.2660
 1.5000	18.3580
 1.5010	18.4510
 1.5020	18.5440
 1.5030	18.6380
 1.5040	18.7310
 1.5050	18.8240
 1.5060	18.9180
 1.5070	19.0120
 1.5080	19.1070
 1.5090	19.2030
 1.5100	19.2990
 1.5110	19.3940
 1.5120	19.4890
 1.5130	19.5820
 1.5140	19.6750
 1.5150	19.7680
 1.5160	19.8610
 1.5170	19.9530
 1.5180	20.0460
 1.5190	20.1370
 1.5200	20.2290
 1.5210	20.3200
 1.5220	20.4110
 1.5230	20.5020
 1.5240	20.5930
 1.5250	20.6830
 1.5260	20.7730
 1.5270	20.8610
 1.5280	20.9490
 1.5290	21.0370
 1.5300	21.1240
 1.5310	21.2120
 1.5320	21.2980
 1.5330	21.3840
 1.5340	21.4700
 1.5350	21.5550
 1.5360	21.6410
 1.5370	21.7240
 1.5380	21.8080
 1.5390	21.8920
 1.5400	21.9750
 1.5410	22.0580
 1.5420	22.1410
 1.5430	22.2230
 1.5440	22.3060
 1.5450	22.3860
 1.5460	22.4660
 1.5470	22.5470
 1.5480	22.6260
 1.5490	22.7060
 1.5500	22.7860
 1.5510	22.8660
 1.5520	22.9440
 1.5530	23.0200
 1.5540	23.0970
 1.5550	23.1720
 1.5560	23.2470
 1.5570	23.3220
 1.5580	23.3970
 1.5590	23.4730
 1.5600	23.5470
 1.5610	23.6200
 1.5620	23.6930
 1.5630	23.7640
 1.5640	23.8350
 1.5650	23.9070
 1.5660	23.9790
 1.5670	24.0490
 1.5680	24.1200
 1.5690	24.1910
 1.5700	24.2610
 1.5710	24.3310
 1.5720	24.4000
 1.5730	24.4670
 1.5740	24.5340
 1.5750	24.6010
 1.5760	24.6690
 1.5770	24.7360
 1.5780	24.8020
 1.5790	24.8670
 1.5800	24.9320
 1.5810	24.9970
 1.5820	25.0620
 1.5830	25.1280
 1.5840	25.1930
 1.5850	25.2570
 1.5860	25.3220
 1.5870	25.3880
 1.5880	25.4540
 1.5890	25.5210
 1.5900	25.5870
 1.5910	25.6510
 1.5920	25.7170
 1.5930	25.7820
 1.5940	25.8470
 1.5950	25.9130
 1.5960	25.9770
 1.5970	26.0420
 1.5980	26.1070
 1.5990	26.1700
 1.6000	26.2340
 1.6010	26.2950
 1.6020	26.3570
 1.6030	26.4190
 1.6040	26.4830
 1.6050	26.5470
 1.6060	26.6090
 1.6070	26.6690
 1.6080	26.7290
 1.6090	26.7870
 1.6100	26.8450
 1.6110	26.9050
 1.6120	26.9610
 1.6130	27.0180
 1.6140	27.0740
 1.6150	27.1270
 1.6160	27.1810
 1.6170	27.2360
 1.6180	27.2870
 1.6190	27.3380
 1.6200	27.3870
 1.6210	27.4350
 1.6220	27.4820
 1.6230	27.5310
 1.6240	27.5780
 1.6250	27.6230
 1.6260	27.6670
 1.6270	27.7100
 1.6280	27.7520
 1.6290	27.7930
 1.6300	27.8340
 1.6310	27.8740
 1.6320	27.9130
 1.6330	27.9520
 1.6340	27.9910
 1.6350	28.0290
 1.6360	28.0680
 1.6370	28.1040
 1.6380	28.1400
 1.6390	28.1740
 1.6400	28.2070
 1.6410	28.2370
 1.6420	28.2660
 1.6430	28.2910
 1.6440	28.3140
 1.6450	28.3330
 1.6460	28.3500
 1.6470	28.3640
 1.6480	28.3770
 1.6490	28.3870
 1.6500	28.3930
 1.6510	28.3960
 1.6520	28.3970
 1.6530	28.3950
 1.6540	28.3950
 1.6550	28.3910
 1.6560	28.3830
 1.6570	28.3760
 1.6580	28.3660
 1.6590	28.3550
 1.6600	28.3460
 1.6610	28.3380
 1.6620	28.3300
 1.6630	28.3220
 1.6640	28.3140
 1.6650	28.3060
 1.6660	28.3000
 1.6670	28.2940
 1.6680	28.2900
 1.6690	28.2850
 1.6700	28.2820
 1.6710	28.2780
 1.6720	28.2750
 1.6730	28.2730
 1.6740	28.2690
 1.6750	28.2640
 1.6760	28.2590
 1.6770	28.2520
 1.6780	28.2450
 1.6790	28.2380
 1.6800	28.2260
 1.6810	28.2110
 1.6820	28.1920
 1.6830	28.1700
 1.6840	28.1470
 1.6850	28.1220
 1.6860	28.0940
 1.6870	28.0620
 1.6880	28.0250
 1.6890	27.9860
 1.6900	27.9460
 1.6910	27.9050
 1.6920	27.8630
 1.6930	27.8190
 1.6940	27.7750
 1.6950	27.7290
 1.6960	27.6870
 1.6970	27.6460
 1.6980	27.6040
 1.6990	27.5620
 1.7000	27.5190
 1.7010	27.4720
 1.7020	27.4260
 1.7030	27.3800
 1.7040	27.3330
 1.7050	27.2830
 1.7060	27.2340
 1.7070	27.1840
 1.7080	27.1350
 1.7090	27.0870
 1.7100	27.0390
 1.7110	26.9910
 1.7120	26.9430
 1.7130	26.8970
 1.7140	26.8510
 1.7150	26.8040
 1.7160	26.7600
 1.7170	26.7150
 1.7180	26.6690
 1.7190	26.6230
 1.7200	26.5750
 1.7210	26.5290
 1.7220	26.4830
 1.7230	26.4370
 1.7240	26.3910
 1.7250	26.3460
 1.7260	26.3040
 1.7270	26.2640
 1.7280	26.2250
 1.7290	26.1860
 1.7300	26.1440
 1.7310	26.1070
 1.7320	26.0740
 1.7330	26.0400
 1.7340	26.0120
 1.7350	25.9800
 1.7360	25.9460
 1.7370	25.9110
 1.7380	25.8760
 1.7390	25.8380
 1.7400	25.7990
 1.7410	25.7570
 1.7420	25.7130
 1.7430	25.6660
 1.7440	25.6170
 1.7450	25.5680
 1.7460	25.5170
 1.7470	25.4650
 1.7480	25.4120
 1.7490	25.3610
 1.7500	25.3100
 1.7510	25.2590
 1.7520	25.2110
 1.7530	25.1600
 1.7540	25.1070
 1.7550	25.0540
 1.7560	25.0040
 1.7570	24.9540
 1.7580	24.9040
 1.7590	24.8590
 1.7600	24.8130
 1.7610	24.7700
 1.7620	24.7280
 1.7630	24.6860
 1.7640	24.6470
 1.7650	24.6100
 1.7660	24.5730
 1.7670	24.5360
 1.7680	24.5020
 1.7690	24.4670
 1.7700	24.4360
 1.7710	24.4090
 1.7720	24.3800
 1.7730	24.3540
 1.7740	24.3270
 1.7750	24.2990
 1.7760	24.2760
 1.7770	24.2550
 1.7780	24.2370
 1.7790	24.2220
 1.7800	24.2070
 1.7810	24.1930
 1.7820	24.1810
 1.7830	24.1700
 1.7840	24.1620
 1.7850	24.1560
 1.7860	24.1530
 1.7870	24.1520
 1.7880	24.1500
 1.7890	24.1520
 1.7900	24.1540
 1.7910	24.1570
 1.7920	24.1620
 1.7930	24.1680
 1.7940	24.1730
 1.7950	24.1820
 1.7960	24.1940
 1.7970	24.2050
 1.7980	24.2170
 1.7990	24.2290
 1.8000	24.2420
 1.8010	24.2530
 1.8020	24.2650
 1.8030	24.2760
 1.8040	24.2840
 1.8050	24.2940
 1.8060	24.3050
 1.8070	24.3150
 1.8080	24.3240
 1.8090	24.3350
 1.8100	24.3460
 1.8110	24.3560
 1.8120	24.3660
 1.8130	24.3760
 1.8140	24.3830
 1.8150	24.3930
 1.8160	24.4040
 1.8170	24.4110
 1.8180	24.4160
 1.8190	24.4190
 1.8200	24.4250
 1.8210	24.4340
 1.8220	24.4380
 1.8230	24.4400
 1.8240	24.4400
 1.8250	24.4320
 1.8260	24.4290
 1.8270	24.4290
 1.8280	24.4270
 1.8290	24.4290
 1.8300	24.4180
 1.8310	24.4040
 1.8320	24.3830
 1.8330	24.3640
 1.8340	24.3410
 1.8350	24.3200
 1.8360	24.2950
 1.8370	24.2670
 1.8380	24.2370
 1.8390	24.2010
 1.8400	24.1630
 1.8410	24.1150
 1.8420	24.0610
 1.8430	24.0020
 1.8440	23.9370
 1.8450	23.8690
 1.8460	23.7930
 1.8470	23.7060
 1.8480	23.6140
 1.8490	23.5130
 1.8500	23.4050
 1.8510	23.2900
 1.8520	23.1720
 1.8530	23.0400
 1.8540	22.8950
 1.8550	22.7400
 1.8560	22.5740
 1.8570	22.3970
 1.8580	22.2100
 1.8590	22.0150
 1.8600	21.8120
 1.8610	21.5940
 1.8620	21.3650
 1.8630	21.1270
 1.8640	20.8720
 1.8650	20.6030
 1.8660	20.3240
 1.8670	20.0320
 1.8680	19.7300
 1.8690	19.4190
 1.8700	19.0940
 1.8710	18.7570
 1.8720	18.4140
 1.8730	18.0610
 1.8740	17.7000
 1.8750	17.3380
 1.8760	16.9700
 1.8770	16.6030
 1.8780	16.2380
 1.8790	15.8720
 1.8800	15.5140
 1.8810	15.1600
 1.8820	14.8070
 1.8830	14.4560
 1.8840	14.1110
 1.8850	13.7690
 1.8860	13.4360
 1.8870	13.1170
 1.8880	12.8070
 1.8890	12.5120
 1.8900	12.2290
 1.8910	11.9580
 1.8920	11.6960
 1.8930	11.4480
 1.8940	11.2150
 1.8950	10.9960
 1.8960	10.7920
 1.8970	10.6050
 1.8980	10.4310
 1.8990	10.2720
 1.9000	10.1220
 1.9010	 9.9860
 1.9020	 9.8590
 1.9030	 9.7450
 1.9040	 9.6390
 1.9050	 9.5430
 1.9060	 9.4610
 1.9070	 9.3890
 1.9080	 9.3220
 1.9090	 9.2580
 1.9100	 9.2000
 1.9110	 9.1470
 1.9120	 9.1000
 1.9130	 9.0550
 1.9140	 9.0190
 1.9150	 8.9840
 1.9160	 8.9540
 1.9170	 8.9280
 1.9180	 8.9010
 1.9190	 8.8780
 1.9200	 8.8570
 1.9210	 8.8400
 1.9220	 8.8260
 1.9230	 8.8180
 1.9240	 8.8080
 1.9250	 8.8000
 1.9260	 8.7940
 1.9270	 8.7880
 1.9280	 8.7880
 1.9290	 8.7880
 1.9300	 8.7870
 1.9310	 8.7910
 1.9320	 8.7970
 1.9330	 8.8020
 1.9340	 8.8090
 1.9350	 8.8160
 1.9360	 8.8260
 1.9370	 8.8370
 1.9380	 8.8480
 1.9390	 8.8580
 1.9400	 8.8720
 1.9410	 8.8850
 1.9420	 8.9000
 1.9430	 8.9150
 1.9440	 8.9310
 1.9450	 8.9480
 1.9460	 8.9680
 1.9470	 8.9900
 1.9480	 9.0120
 1.9490	 9.0320
 1.9500	 9.0550
 1.9510	 9.0760
 1.9520	 9.0970
 1.9530	 9.1200
 1.9540	 9.1440
 1.9550	 9.1670
 1.9560	 9.1900
 1.9570	 9.2140
 1.9580	 9.2400
 1.9590	 9.2660
 1.9600	 9.2970
 1.9610	 9.3250
 1.9620	 9.3560
 1.9630	 9.3860
 1.9640	 9.4160
 1.9650	 9.4500
 1.9660	 9.4820
 1.9670	 9.5140
 1.9680	 9.5460
 1.9690	 9.5750
 1.9700	 9.6070
 1.9710	 9.6420
 1.9720	 9.6760
 1.9730	 9.7100
 1.9740	 9.7440
 1.9750	 9.7810
 1.9760	 9.8180
 1.9770	 9.8510
 1.9780	 9.8890
 1.9790	 9.9270
 1.9800	 9.9610
 1.9810	10.0010
 1.9820	10.0390
 1.9830	10.0800
 1.9840	10.1200
 1.9850	10.1620
 1.9860	10.2040
 1.9870	10.2450
 1.9880	10.2860
 1.9890	10.3280
 1.9900	10.3680
 1.9910	10.4100
 1.9920	10.4500
 1.9930	10.4920
 1.9940	10.5330
 1.9950	10.5730
 1.9960	10.6150
 1.9970	10.6570
 1.9980	10.6990
 1.9990	10.7390
 2.0000	10.7820
 2.0010	10.8240
 2.0020	10.8680
 2.0030	10.9150
 2.0040	10.9590
 2.0050	11.0030
 2.0060	11.0420
 2.0070	11.0840
 2.0080	11.1280
 2.0090	11.1710
 2.0100	11.2150
 2.0110	11.2590
 2.0120	11.2990
 2.0130	11.3380
 2.0140	11.3800
 2.0150	11.4230
 2.0160	11.4660
 2.0170	11.5090
 2.0180	11.5510
 2.0190	11.5910
 2.0200	11.6310
 2.0210	11.6710
 2.0220	11.7100
 2.0230	11.7440
 2.0240	11.7800
 2.0250	11.8120
 2.0260	11.8480
 2.0270	11.8840
 2.0280	11.9200
 2.0290	11.9560
 2.0300	11.9930
 2.0310	12.0290
 2.0320	12.0620
 2.0330	12.0950
 2.0340	12.1250
 2.0350	12.1570
 2.0360	12.1880
 2.0370	12.2170
 2.0380	12.2470
 2.0390	12.2750
 2.0400	12.3010
 2.0410	12.3280
 2.0420	12.3540
 2.0430	12.3800
 2.0440	12.4060
 2.0450	12.4330
 2.0460	12.4590
 2.0470	12.4860
 2.0480	12.5100
 2.0490	12.5310
 2.0500	12.5550
 2.0510	12.5780
 2.0520	12.6020
 2.0530	12.6280
 2.0540	12.6520
 2.0550	12.6740
 2.0560	12.6960
 2.0570	12.7190
 2.0580	12.7420
 2.0590	12.7660
 2.0600	12.7920
 2.0610	12.8160
 2.0620	12.8410
 2.0630	12.8640
 2.0640	12.8890
 2.0650	12.9120
 2.0660	12.9320
 2.0670	12.9540
 2.0680	12.9760
 2.0690	12.9970
 2.0700	13.0170
 2.0710	13.0390
 2.0720	13.0620
 2.0730	13.0830
 2.0740	13.1060
 2.0750	13.1320
 2.0760	13.1540
 2.0770	13.1730
 2.0780	13.1940
 2.0790	13.2130
 2.0800	13.2350
 2.0810	13.2600
 2.0820	13.2850
 2.0830	13.3110
 2.0840	13.3370
 2.0850	13.3620
 2.0860	13.3860
 2.0870	13.4100
 2.0880	13.4310
 2.0890	13.4540
 2.0900	13.4750
 2.0910	13.4970
 2.0920	13.5200
 2.0930	13.5430
 2.0940	13.5650
 2.0950	13.5880
 2.0960	13.6110
 2.0970	13.6320
 2.0980	13.6510
 2.0990	13.6720
 2.1000	13.6920
 2.1010	13.7140
 2.1020	13.7420
 2.1030	13.7670
 2.1040	13.7900
 2.1050	13.8150
 2.1060	13.8380
 2.1070	13.8580
 2.1080	13.8810
 2.1090	13.9040
 2.1100	13.9290
 2.1110	13.9550
 2.1120	13.9790
 2.1130	14.0040
 2.1140	14.0300
 2.1150	14.0570
 2.1160	14.0820
 2.1170	14.1080
 2.1180	14.1330
 2.1190	14.1570
 2.1200	14.1800
 2.1210	14.2040
 2.1220	14.2290
 2.1230	14.2510
 2.1240	14.2720
 2.1250	14.2940
 2.1260	14.3170
 2.1270	14.3370
 2.1280	14.3570
 2.1290	14.3770
 2.1300	14.3970
 2.1310	14.4180
 2.1320	14.4420
 2.1330	14.4630
 2.1340	14.4830
 2.1350	14.5040
 2.1360	14.5240
 2.1370	14.5450
 2.1380	14.5650
 2.1390	14.5870
 2.1400	14.6120
 2.1410	14.6340
 2.1420	14.6550
 2.1430	14.6760
 2.1440	14.6970
 2.1450	14.7140
 2.1460	14.7360
 2.1470	14.7600
 2.1480	14.7840
 2.1490	14.8100
 2.1500	14.8340
 2.1510	14.8570
 2.1520	14.8800
 2.1530	14.9020
 2.1540	14.9230
 2.1550	14.9430
 2.1560	14.9650
 2.1570	14.9850
 2.1580	15.0070
 2.1590	15.0310
 2.1600	15.0530
 2.1610	15.0720
 2.1620	15.0910
 2.1630	15.1080
 2.1640	15.1220
 2.1650	15.1410
 2.1660	15.1640
 2.1670	15.1850
 2.1680	15.2060
 2.1690	15.2270
 2.1700	15.2480
 2.1710	15.2690
 2.1720	15.2900
 2.1730	15.3120
 2.1740	15.3350
 2.1750	15.3550
 2.1760	15.3720
 2.1770	15.3920
 2.1780	15.4110
 2.1790	15.4300
 2.1800	15.4520
 2.1810	15.4730
 2.1820	15.4940
 2.1830	15.5110
 2.1840	15.5310
 2.1850	15.5520
 2.1860	15.5700
 2.1870	15.5860
 2.1880	15.6060
 2.1890	15.6270
 2.1900	15.6470
 2.1910	15.6740
 2.1920	15.6930
 2.1930	15.7060
 2.1940	15.7230
 2.1950	15.7350
 2.1960	15.7520
 2.1970	15.7740
 2.1980	15.7920
 2.1990	15.8090
 2.2000	15.8250
 2.2010	15.8360
 2.2020	15.8490
 2.2030	15.8650
 2.2040	15.8780
 2.2050	15.8920
 2.2060	15.9050
 2.2070	15.9170
 2.2080	15.9280
 2.2090	15.9390
 2.2100	15.9510
 2.2110	15.9620
 2.2120	15.9720
 2.2130	15.9820
 2.2140	15.9940
 2.2150	16.0030
 2.2160	16.0120
 2.2170	16.0170
 2.2180	16.0190
 2.2190	16.0180
 2.2200	16.0090
 2.2210	16.0050
 2.2220	16.0030
 2.2230	15.9980
 2.2240	15.9970
 2.2250	15.9920
 2.2260	15.9810
 2.2270	15.9690
 2.2280	15.9560
 2.2290	15.9410
 2.2300	15.9240
 2.2310	15.9040
 2.2320	15.8800
 2.2330	15.8510
 2.2340	15.8200
 2.2350	15.7830
 2.2360	15.7520
 2.2370	15.7230
 2.2380	15.6900
 2.2390	15.6570
 2.2400	15.6200
 2.2410	15.5790
 2.2420	15.5370
 2.2430	15.4910
 2.2440	15.4460
 2.2450	15.4000
 2.2460	15.3560
 2.2470	15.3160
 2.2480	15.2680
 2.2490	15.2130
 2.2500	15.1600
 2.2510	15.0990
 2.2520	15.0410
 2.2530	14.9850
 2.2540	14.9290
 2.2550	14.8700
 2.2560	14.8140
 2.2570	14.7590
 2.2580	14.7030
 2.2590	14.6470
 2.2600	14.5910
 2.2610	14.5340
 2.2620	14.4800
 2.2630	14.4290
 2.2640	14.3760
 2.2650	14.3240
 2.2660	14.2760
 2.2670	14.2290
 2.2680	14.1820
 2.2690	14.1380
 2.2700	14.0950
 2.2710	14.0570
 2.2720	14.0200
 2.2730	13.9880
 2.2740	13.9630
 2.2750	13.9340
 2.2760	13.9070
 2.2770	13.8790
 2.2780	13.8490
 2.2790	13.8210
 2.2800	13.7940
 2.2810	13.7700
 2.2820	13.7490
 2.2830	13.7280
 2.2840	13.7100
 2.2850	13.6900
 2.2860	13.6680
 2.2870	13.6480
 2.2880	13.6310
 2.2890	13.6090
 2.2900	13.5860
 2.2910	13.5610
 2.2920	13.5270
 2.2930	13.4960
 2.2940	13.4670
 2.2950	13.4350
 2.2960	13.4050
 2.2970	13.3710
 2.2980	13.3280
 2.2990	13.2910
 2.3000	13.2530
 2.3010	13.2130
 2.3020	13.1740
 2.3030	13.1350
 2.3040	13.0960
 2.3050	13.0580
 2.3060	13.0250
 2.3070	12.9940
 2.3080	12.9670
 2.3090	12.9470
 2.3100	12.9290
 2.3110	12.9150
 2.3120	12.8990
 2.3130	12.8840
 2.3140	12.8720
 2.3150	12.8590
 2.3160	12.8540
 2.3170	12.8580
 2.3180	12.8560
 2.3190	12.8570
 2.3200	12.8520
 2.3210	12.8430
 2.3220	12.8310
 2.3230	12.8130
 2.3240	12.7970
 2.3250	12.7740
 2.3260	12.7560
 2.3270	12.7430
 2.3280	12.7260
 2.3290	12.7110
 2.3300	12.6900
 2.3310	12.6620
 2.3320	12.6370
 2.3330	12.6080
 2.3340	12.5810
 2.3350	12.5540
 2.3360	12.5300
 2.3370	12.5080
 2.3380	12.4860
 2.3390	12.4670
 2.3400	12.4430
 2.3410	12.4160
 2.3420	12.3870
 2.3430	12.3560
 2.3440	12.3250
 2.3450	12.2890
 2.3460	12.2600
 2.3470	12.2340
 2.3480	12.2110
 2.3490	12.1930
 2.3500	12.1760
 2.3510	12.1660
 2.3520	12.1520
 2.3530	12.1440
 2.3540	12.1310
 2.3550	12.1110
 2.3560	12.0860
 2.3570	12.0600
 2.3580	12.0410
 2.3590	12.0260
 2.3600	12.0090
 2.3610	11.9910
 2.3620	11.9790
 2.3630	11.9680
 2.3640	11.9560
 2.3650	11.9390
 2.3660	11.9140
 2.3670	11.8900
 2.3680	11.8690
 2.3690	11.8570
 2.3700	11.8510
 2.3710	11.8300
 2.3720	11.8050
 2.3730	11.7770
 2.3740	11.7390
 2.3750	11.7180
 2.3760	11.7040
 2.3770	11.6720
 2.3780	11.6460
 2.3790	11.6150
 2.3800	11.5730
 2.3810	11.5540
 2.3820	11.5350
 2.3830	11.5110
 2.3840	11.4970
 2.3850	11.4790
 2.3860	11.4620
 2.3870	11.4520
 2.3880	11.4400
 2.3890	11.4200
 2.3900	11.4010
 2.3910	11.3780
 2.3920	11.3480
 2.3930	11.3270
 2.3940	11.3080
 2.3950	11.2860
 2.3960	11.2590
 2.3970	11.2260
 2.3980	11.1990
 2.3990	11.1690
 2.4000	11.1500
 2.4010	11.1410
 2.4020	11.1220
 2.4030	11.0980
 2.4040	11.0740
 2.4050	11.0290
 2.4060	10.9960
 2.4070	10.9780
 2.4080	10.9590
 2.4090	10.9480
 2.4100	10.9340
 2.4110	10.9070
 2.4120	10.8790
 2.4130	10.8590
 2.4140	10.8360
 2.4150	10.8050
 2.4160	10.7770
 2.4170	10.7550
 2.4180	10.7350
 2.4190	10.7130
 2.4200	10.6980
 2.4210	10.6600
 2.4220	10.6090
 2.4230	10.5720
 2.4240	10.5260
 2.4250	10.4840
 2.4260	10.4620
 2.4270	10.4430
 2.4280	10.4300
 2.4290	10.4150
 2.4300	10.3960
 2.4310	10.3720
 2.4320	10.3460
 2.4330	10.3350
 2.4340	10.3120
 2.4350	10.2640
 2.4360	10.2230
 2.4370	10.1820
 2.4380	10.1370
 2.4390	10.1220
 2.4400	10.1030
 2.4410	10.0660
 2.4420	10.0440
 2.4430	10.0360
 2.4440	10.0270
 2.4450	10.0030
 2.4460	 9.9720
 2.4470	 9.9360
 2.4480	 9.8890
 2.4490	 9.8550
 2.4500	 9.8280
 2.4510	 9.8040
 2.4520	 9.7780
 2.4530	 9.7540
 2.4540	 9.7340
 2.4550	 9.7130
 2.4560	 9.7080
 2.4570	 9.7140
 2.4580	 9.7080
 2.4590	 9.6670
 2.4600	 9.6140
 2.4610	 9.5750
 2.4620	 9.5300
 2.4630	 9.5170
 2.4640	 9.5100
 2.4650	 9.4700
 2.4660	 9.4480
 2.4670	 9.4280
 2.4680	 9.3860
 2.4690	 9.3720
 2.4700	 9.3490
 2.4710	 9.3310
 2.4720	 9.3190
 2.4730	 9.2930
 2.4740	 9.2780
 2.4750	 9.2830
 2.4760	 9.2670
 2.4770	 9.2480
 2.4780	 9.2290
 2.4790	 9.1900
 2.4800	 9.1800
 2.4810	 9.1850
 2.4820	 9.1790
 2.4830	 9.1920
 2.4840	 9.1670
 2.4850	 9.1430
 2.4860	 9.1300
 2.4870	 9.0820
 2.4880	 9.0420
 2.4890	 9.0600
 2.4900	 9.0660
 2.4910	 9.0630
 2.4920	 9.0990
 2.4930	 9.1180
 2.4940	 9.1020
 2.4950	 9.0940
 2.4960	 9.1110
 2.4970	 9.0990
 2.4980	 9.0950
 2.4990	 9.1320
 2.5000	 9.1450
