Name: Abies concolor 1
Type: vegetation
Class: Tree
Genus: Abies
Species: concolor
Sample No.: VH246
Owner: UCSB
Wavelength Range: TIR
Origin: 37.044; -119.3035; WGS84
Collection Date: 11/2/2013
Description: Samples were collected as part of the HyspIRI Airborne Campaign. 48 individual plants were sampled in three times in 2013 - spring  summer  and fall. The name of the sample includes a 1  2  or 3 which references a different individual of the species. Samples were taken to JPL and processed within 48 hours of collection. The same leaves were processed in the Nicolet and then measured using the ASD.
Measurement: Hemispherical reflectance
First Column: X
Second Column: Y
X Units: Wavelength (micrometers)
Y Units: Reflectance (percentage)
First X Value: 2.501
Last X Value: 15.387
Number of X Values: 1737
Additional Information: vegetation.tree.abies.concolor.tir.vh246.ucsb.nicolet.ancillary.txt

 2.5010	 7.1630
 2.5030	 7.1590
 2.5040	 7.1540
 2.5050	 7.1610
 2.5060	 7.1680
 2.5070	 7.1490
 2.5090	 7.1460
 2.5100	 7.1430
 2.5110	 7.1510
 2.5120	 7.1460
 2.5140	 7.1520
 2.5150	 7.1420
 2.5160	 7.1600
 2.5170	 7.1590
 2.5180	 7.1910
 2.5200	 7.1970
 2.5210	 7.1810
 2.5220	 7.1780
 2.5230	 7.1800
 2.5250	 7.1820
 2.5260	 7.1900
 2.5270	 7.1700
 2.5280	 7.1720
 2.5290	 7.1740
 2.5310	 7.1490
 2.5320	 7.1330
 2.5330	 7.1640
 2.5340	 7.1870
 2.5360	 7.1820
 2.5370	 7.1580
 2.5380	 7.1630
 2.5390	 7.1400
 2.5410	 7.1620
 2.5420	 7.2050
 2.5430	 7.2060
 2.5440	 7.1860
 2.5460	 7.1840
 2.5470	 7.1790
 2.5480	 7.1750
 2.5490	 7.1480
 2.5510	 7.1560
 2.5520	 7.1760
 2.5530	 7.1750
 2.5540	 7.1700
 2.5560	 7.1970
 2.5570	 7.1740
 2.5580	 7.1850
 2.5590	 7.1920
 2.5610	 7.2040
 2.5620	 7.1930
 2.5630	 7.1570
 2.5640	 7.1670
 2.5660	 7.1820
 2.5670	 7.1760
 2.5680	 7.1790
 2.5700	 7.1780
 2.5710	 7.1660
 2.5720	 7.1560
 2.5730	 7.1940
 2.5750	 7.2070
 2.5760	 7.2030
 2.5770	 7.1860
 2.5790	 7.1720
 2.5800	 7.1570
 2.5810	 7.1840
 2.5820	 7.1750
 2.5840	 7.1770
 2.5850	 7.1940
 2.5860	 7.1910
 2.5880	 7.1620
 2.5890	 7.1740
 2.5900	 7.1810
 2.5910	 7.1700
 2.5930	 7.1550
 2.5940	 7.1880
 2.5950	 7.1870
 2.5970	 7.1630
 2.5980	 7.1620
 2.5990	 7.1630
 2.6000	 7.1540
 2.6020	 7.1660
 2.6030	 7.1740
 2.6040	 7.1590
 2.6060	 7.1480
 2.6070	 7.1320
 2.6080	 7.1310
 2.6100	 7.1520
 2.6110	 7.1730
 2.6120	 7.1930
 2.6140	 7.1780
 2.6150	 7.1500
 2.6160	 7.1570
 2.6180	 7.1720
 2.6190	 7.1650
 2.6200	 7.1710
 2.6220	 7.1460
 2.6230	 7.1480
 2.6240	 7.1500
 2.6260	 7.1550
 2.6270	 7.1480
 2.6280	 7.1310
 2.6300	 7.1050
 2.6310	 7.0900
 2.6320	 7.1130
 2.6340	 7.1410
 2.6350	 7.1320
 2.6360	 7.1420
 2.6380	 7.1420
 2.6390	 7.1460
 2.6400	 7.1240
 2.6420	 7.0990
 2.6430	 7.0860
 2.6440	 7.0950
 2.6460	 7.1070
 2.6470	 7.1070
 2.6480	 7.0900
 2.6500	 7.0720
 2.6510	 7.0740
 2.6520	 7.1040
 2.6540	 7.0640
 2.6550	 7.0510
 2.6560	 7.0650
 2.6580	 7.0800
 2.6590	 7.0830
 2.6610	 7.0670
 2.6620	 7.0480
 2.6630	 7.0580
 2.6650	 7.0680
 2.6660	 7.0540
 2.6670	 7.0230
 2.6690	 7.0290
 2.6700	 7.0630
 2.6720	 7.0230
 2.6730	 7.0030
 2.6740	 7.0120
 2.6760	 7.0280
 2.6770	 7.0150
 2.6780	 6.9770
 2.6800	 6.9770
 2.6810	 6.9810
 2.6830	 7.0000
 2.6840	 6.9980
 2.6850	 7.0020
 2.6870	 6.9830
 2.6880	 6.9730
 2.6900	 6.9770
 2.6910	 7.0150
 2.6920	 7.0300
 2.6940	 7.0250
 2.6950	 6.9990
 2.6970	 6.9830
 2.6980	 6.9700
 2.6990	 6.9680
 2.7010	 6.9600
 2.7020	 6.9720
 2.7040	 6.9900
 2.7050	 6.9810
 2.7060	 6.9530
 2.7080	 6.9700
 2.7090	 6.9850
 2.7110	 6.9730
 2.7120	 6.9520
 2.7130	 6.9740
 2.7150	 6.9880
 2.7160	 6.9860
 2.7180	 6.9900
 2.7190	 7.0010
 2.7210	 6.9840
 2.7220	 6.9800
 2.7230	 6.9920
 2.7250	 6.9940
 2.7260	 6.9560
 2.7280	 6.9790
 2.7290	 6.9970
 2.7310	 6.9900
 2.7320	 7.0100
 2.7330	 7.0380
 2.7350	 7.0150
 2.7360	 6.9950
 2.7380	 6.9910
 2.7390	 7.0090
 2.7410	 7.0300
 2.7420	 7.0460
 2.7440	 7.0340
 2.7450	 7.0100
 2.7470	 6.9970
 2.7480	 7.0320
 2.7490	 7.0360
 2.7510	 7.0370
 2.7520	 6.9860
 2.7540	 6.9750
 2.7550	 7.0460
 2.7570	 7.0570
 2.7580	 7.0410
 2.7600	 7.0760
 2.7610	 7.0800
 2.7630	 7.0510
 2.7640	 7.0170
 2.7660	 7.0280
 2.7670	 7.0400
 2.7680	 7.0240
 2.7700	 7.0290
 2.7710	 7.0730
 2.7730	 7.0950
 2.7740	 7.0990
 2.7760	 7.0540
 2.7770	 7.0300
 2.7790	 7.0630
 2.7800	 7.0940
 2.7820	 7.0850
 2.7830	 7.0670
 2.7850	 7.0330
 2.7860	 7.0350
 2.7880	 7.0310
 2.7890	 7.0720
 2.7910	 7.1110
 2.7920	 7.0810
 2.7940	 7.0570
 2.7950	 7.0810
 2.7970	 7.0850
 2.7980	 7.0940
 2.8000	 7.1160
 2.8010	 7.1200
 2.8030	 7.1030
 2.8040	 7.1110
 2.8060	 7.1050
 2.8070	 7.0980
 2.8090	 7.0970
 2.8110	 7.1080
 2.8120	 7.1260
 2.8140	 7.1360
 2.8150	 7.1170
 2.8170	 7.1090
 2.8180	 7.1020
 2.8200	 7.1250
 2.8210	 7.1250
 2.8230	 7.1150
 2.8240	 7.1160
 2.8260	 7.1390
 2.8270	 7.1700
 2.8290	 7.1650
 2.8300	 7.1180
 2.8320	 7.1170
 2.8340	 7.0940
 2.8350	 7.1030
 2.8370	 7.1290
 2.8380	 7.1710
 2.8400	 7.1500
 2.8410	 7.1310
 2.8430	 7.1390
 2.8440	 7.1660
 2.8460	 7.1760
 2.8480	 7.1540
 2.8490	 7.1400
 2.8510	 7.1470
 2.8520	 7.1330
 2.8540	 7.1500
 2.8550	 7.1400
 2.8570	 7.1430
 2.8590	 7.1550
 2.8600	 7.1500
 2.8620	 7.1620
 2.8630	 7.1780
 2.8650	 7.1690
 2.8660	 7.1900
 2.8680	 7.1900
 2.8700	 7.2010
 2.8710	 7.2130
 2.8730	 7.2160
 2.8740	 7.2210
 2.8760	 7.2250
 2.8780	 7.1960
 2.8790	 7.1930
 2.8810	 7.1700
 2.8820	 7.1260
 2.8840	 7.1450
 2.8860	 7.1740
 2.8870	 7.1900
 2.8890	 7.2110
 2.8900	 7.2100
 2.8920	 7.2190
 2.8940	 7.2110
 2.8950	 7.2060
 2.8970	 7.1950
 2.8980	 7.1950
 2.9000	 7.1470
 2.9020	 7.1590
 2.9030	 7.1920
 2.9050	 7.1900
 2.9070	 7.1670
 2.9080	 7.1870
 2.9100	 7.1770
 2.9120	 7.1820
 2.9130	 7.2080
 2.9150	 7.2130
 2.9160	 7.2090
 2.9180	 7.2280
 2.9200	 7.2290
 2.9210	 7.2170
 2.9230	 7.2110
 2.9250	 7.1940
 2.9260	 7.1710
 2.9280	 7.1940
 2.9300	 7.2150
 2.9310	 7.2230
 2.9330	 7.2400
 2.9350	 7.2340
 2.9360	 7.2330
 2.9380	 7.2790
 2.9400	 7.2650
 2.9410	 7.2370
 2.9430	 7.1890
 2.9450	 7.2060
 2.9460	 7.1930
 2.9480	 7.2480
 2.9500	 7.2750
 2.9510	 7.2680
 2.9530	 7.2640
 2.9550	 7.1960
 2.9560	 7.2690
 2.9580	 7.3580
 2.9600	 7.2120
 2.9610	 7.1750
 2.9630	 7.3250
 2.9650	 7.3150
 2.9660	 7.3840
 2.9680	 7.4180
 2.9700	 7.1910
 2.9720	 7.2670
 2.9730	 7.4430
 2.9750	 7.3450
 2.9770	 7.2730
 2.9780	 7.2530
 2.9800	 7.3640
 2.9820	 7.3560
 2.9840	 7.2900
 2.9850	 7.3260
 2.9870	 7.3080
 2.9890	 7.2290
 2.9900	 7.3660
 2.9920	 7.4050
 2.9940	 7.1540
 2.9960	 6.9960
 2.9970	 7.2360
 2.9990	 7.3230
 3.0010	 7.1760
 3.0030	 7.2140
 3.0040	 7.3040
 3.0060	 7.2940
 3.0080	 7.2540
 3.0100	 7.2060
 3.0110	 7.2610
 3.0130	 7.2240
 3.0150	 7.2200
 3.0170	 7.1870
 3.0180	 7.1370
 3.0200	 7.1900
 3.0220	 7.2630
 3.0240	 7.2680
 3.0250	 7.2170
 3.0270	 7.2490
 3.0290	 7.2680
 3.0310	 7.1860
 3.0320	 7.1550
 3.0340	 7.1970
 3.0360	 7.2270
 3.0380	 7.3220
 3.0400	 7.4090
 3.0410	 7.2280
 3.0430	 7.1010
 3.0450	 7.0800
 3.0470	 7.0260
 3.0480	 7.4040
 3.0500	 7.7080
 3.0520	 7.4350
 3.0540	 7.1600
 3.0560	 7.0500
 3.0570	 7.0920
 3.0590	 7.2030
 3.0610	 7.1180
 3.0630	 7.1060
 3.0650	 7.1770
 3.0660	 7.1770
 3.0680	 7.2400
 3.0700	 7.2840
 3.0720	 7.2610
 3.0740	 7.2750
 3.0760	 7.2630
 3.0770	 7.2290
 3.0790	 7.2040
 3.0810	 7.2170
 3.0830	 7.2200
 3.0850	 7.2430
 3.0870	 7.2410
 3.0880	 7.2180
 3.0900	 7.2110
 3.0920	 7.2020
 3.0940	 7.1970
 3.0960	 7.2260
 3.0980	 7.2260
 3.0990	 7.1890
 3.1010	 7.1340
 3.1030	 7.1470
 3.1050	 7.2170
 3.1070	 7.2460
 3.1090	 7.2280
 3.1110	 7.2310
 3.1120	 7.1900
 3.1140	 7.1850
 3.1160	 7.2070
 3.1180	 7.2020
 3.1200	 7.1650
 3.1220	 7.1750
 3.1240	 7.2000
 3.1260	 7.2060
 3.1270	 7.2080
 3.1290	 7.2180
 3.1310	 7.1600
 3.1330	 7.1160
 3.1350	 7.2070
 3.1370	 7.3110
 3.1390	 7.3240
 3.1410	 7.3110
 3.1430	 7.3030
 3.1450	 7.3070
 3.1460	 7.2020
 3.1480	 7.2710
 3.1500	 7.3130
 3.1520	 7.3330
 3.1540	 7.2060
 3.1560	 7.0610
 3.1580	 7.1630
 3.1600	 7.2680
 3.1620	 7.1610
 3.1640	 7.1760
 3.1660	 7.2500
 3.1680	 7.3460
 3.1700	 7.1540
 3.1710	 6.9820
 3.1730	 7.0460
 3.1750	 7.1770
 3.1770	 7.3470
 3.1790	 7.2050
 3.1810	 7.1300
 3.1830	 7.2510
 3.1850	 7.2360
 3.1870	 7.2070
 3.1890	 7.2500
 3.1910	 7.1930
 3.1930	 7.1820
 3.1950	 7.1900
 3.1970	 7.2090
 3.1990	 7.2160
 3.2010	 7.1720
 3.2030	 7.1370
 3.2050	 7.1360
 3.2070	 7.1310
 3.2090	 7.1310
 3.2110	 7.1650
 3.2130	 7.1650
 3.2150	 7.1580
 3.2170	 7.1440
 3.2190	 7.1300
 3.2210	 7.1470
 3.2230	 7.1860
 3.2250	 7.2030
 3.2270	 7.1870
 3.2290	 7.1270
 3.2310	 7.1270
 3.2330	 7.1770
 3.2350	 7.1780
 3.2370	 7.1640
 3.2390	 7.1290
 3.2410	 7.0560
 3.2430	 7.1010
 3.2450	 7.1610
 3.2470	 7.1240
 3.2490	 7.1110
 3.2510	 7.1310
 3.2530	 7.1700
 3.2550	 7.1880
 3.2570	 7.1520
 3.2590	 7.1400
 3.2610	 7.1390
 3.2630	 7.1390
 3.2650	 7.1740
 3.2670	 7.1610
 3.2690	 7.1390
 3.2720	 7.1630
 3.2740	 7.1580
 3.2760	 7.1200
 3.2780	 7.1320
 3.2800	 7.1420
 3.2820	 7.1350
 3.2840	 7.1250
 3.2860	 7.1040
 3.2880	 7.0990
 3.2900	 7.0940
 3.2920	 7.1210
 3.2940	 7.1540
 3.2960	 7.1260
 3.2990	 7.1180
 3.3010	 7.1520
 3.3030	 7.1710
 3.3050	 7.1900
 3.3070	 7.1580
 3.3090	 7.1200
 3.3110	 7.1120
 3.3130	 7.1250
 3.3150	 7.1140
 3.3180	 7.0760
 3.3200	 7.0850
 3.3220	 7.1230
 3.3240	 7.1190
 3.3260	 7.1070
 3.3280	 7.1120
 3.3300	 7.1180
 3.3330	 7.1090
 3.3350	 7.1090
 3.3370	 7.0870
 3.3390	 7.1030
 3.3410	 7.1070
 3.3430	 7.1220
 3.3450	 7.1190
 3.3480	 7.1180
 3.3500	 7.1170
 3.3520	 7.1270
 3.3540	 7.1140
 3.3560	 7.1010
 3.3580	 7.1120
 3.3610	 7.1300
 3.3630	 7.1090
 3.3650	 7.0910
 3.3670	 7.0980
 3.3690	 7.1030
 3.3720	 7.0940
 3.3740	 7.1030
 3.3760	 7.1130
 3.3780	 7.1090
 3.3800	 7.0960
 3.3830	 7.0850
 3.3850	 7.0830
 3.3870	 7.1050
 3.3890	 7.1060
 3.3910	 7.1030
 3.3940	 7.0920
 3.3960	 7.0690
 3.3980	 7.1080
 3.4000	 7.1250
 3.4020	 7.1020
 3.4050	 7.1030
 3.4070	 7.0900
 3.4090	 7.1000
 3.4110	 7.1040
 3.4140	 7.1120
 3.4160	 7.1480
 3.4180	 7.2000
 3.4200	 7.2260
 3.4230	 7.2630
 3.4250	 7.3110
 3.4270	 7.3450
 3.4290	 7.3600
 3.4320	 7.3660
 3.4340	 7.3350
 3.4360	 7.3040
 3.4390	 7.2930
 3.4410	 7.2810
 3.4430	 7.2490
 3.4450	 7.2450
 3.4480	 7.2370
 3.4500	 7.2290
 3.4520	 7.2350
 3.4550	 7.2630
 3.4570	 7.2420
 3.4590	 7.2070
 3.4620	 7.2070
 3.4640	 7.2130
 3.4660	 7.2010
 3.4680	 7.2330
 3.4710	 7.2320
 3.4730	 7.1960
 3.4750	 7.1850
 3.4780	 7.2010
 3.4800	 7.1790
 3.4820	 7.1590
 3.4850	 7.1440
 3.4870	 7.1270
 3.4890	 7.1260
 3.4920	 7.1330
 3.4940	 7.1440
 3.4970	 7.1640
 3.4990	 7.1510
 3.5010	 7.1350
 3.5040	 7.1490
 3.5060	 7.2040
 3.5080	 7.2630
 3.5110	 7.2970
 3.5130	 7.3100
 3.5160	 7.2960
 3.5180	 7.2730
 3.5200	 7.2400
 3.5230	 7.2170
 3.5250	 7.2120
 3.5270	 7.1930
 3.5300	 7.1960
 3.5320	 7.2030
 3.5350	 7.2050
 3.5370	 7.1750
 3.5400	 7.1720
 3.5420	 7.1720
 3.5440	 7.1580
 3.5470	 7.1520
 3.5490	 7.1800
 3.5520	 7.1820
 3.5540	 7.1840
 3.5570	 7.1900
 3.5590	 7.1840
 3.5610	 7.1570
 3.5640	 7.1640
 3.5660	 7.1730
 3.5690	 7.1500
 3.5710	 7.1470
 3.5740	 7.1580
 3.5760	 7.1470
 3.5790	 7.1590
 3.5810	 7.1660
 3.5840	 7.1580
 3.5860	 7.1560
 3.5890	 7.1360
 3.5910	 7.1270
 3.5930	 7.1530
 3.5960	 7.1430
 3.5980	 7.1300
 3.6010	 7.1230
 3.6030	 7.1350
 3.6060	 7.1420
 3.6080	 7.1470
 3.6110	 7.1470
 3.6140	 7.1410
 3.6160	 7.1380
 3.6190	 7.1440
 3.6210	 7.1290
 3.6240	 7.1270
 3.6260	 7.1260
 3.6290	 7.1320
 3.6310	 7.1310
 3.6340	 7.1170
 3.6360	 7.1250
 3.6390	 7.1370
 3.6410	 7.1350
 3.6440	 7.1320
 3.6470	 7.1310
 3.6490	 7.1420
 3.6520	 7.1350
 3.6540	 7.1280
 3.6570	 7.1300
 3.6590	 7.1200
 3.6620	 7.1220
 3.6650	 7.1450
 3.6670	 7.1530
 3.6700	 7.1420
 3.6720	 7.1140
 3.6750	 7.1150
 3.6780	 7.1300
 3.6800	 7.1170
 3.6830	 7.1120
 3.6850	 7.1300
 3.6880	 7.1530
 3.6910	 7.1560
 3.6930	 7.1390
 3.6960	 7.1370
 3.6990	 7.1490
 3.7010	 7.1480
 3.7040	 7.1370
 3.7060	 7.1230
 3.7090	 7.1210
 3.7120	 7.1230
 3.7140	 7.1240
 3.7170	 7.1400
 3.7200	 7.1390
 3.7220	 7.1280
 3.7250	 7.1330
 3.7280	 7.1420
 3.7300	 7.1210
 3.7330	 7.1240
 3.7360	 7.1370
 3.7390	 7.1310
 3.7410	 7.1200
 3.7440	 7.1420
 3.7470	 7.1610
 3.7490	 7.1610
 3.7520	 7.1630
 3.7550	 7.1400
 3.7580	 7.1320
 3.7600	 7.1370
 3.7630	 7.1490
 3.7660	 7.1600
 3.7680	 7.1510
 3.7710	 7.1120
 3.7740	 7.1220
 3.7770	 7.1600
 3.7790	 7.1410
 3.7820	 7.1220
 3.7850	 7.1360
 3.7880	 7.1380
 3.7900	 7.1400
 3.7930	 7.1410
 3.7960	 7.1310
 3.7990	 7.1440
 3.8020	 7.1420
 3.8040	 7.1460
 3.8070	 7.1420
 3.8100	 7.1520
 3.8130	 7.1580
 3.8160	 7.1410
 3.8180	 7.1260
 3.8210	 7.1430
 3.8240	 7.1620
 3.8270	 7.1600
 3.8300	 7.1350
 3.8330	 7.1340
 3.8350	 7.1480
 3.8380	 7.1310
 3.8410	 7.1540
 3.8440	 7.1840
 3.8470	 7.1700
 3.8500	 7.1480
 3.8520	 7.1300
 3.8550	 7.1300
 3.8580	 7.1390
 3.8610	 7.1490
 3.8640	 7.1410
 3.8670	 7.1320
 3.8700	 7.1340
 3.8730	 7.1410
 3.8750	 7.1380
 3.8780	 7.1480
 3.8810	 7.1600
 3.8840	 7.1440
 3.8870	 7.1390
 3.8900	 7.1450
 3.8930	 7.1410
 3.8960	 7.1350
 3.8990	 7.1450
 3.9020	 7.1670
 3.9050	 7.1560
 3.9080	 7.1620
 3.9110	 7.1450
 3.9140	 7.1430
 3.9160	 7.1520
 3.9190	 7.1550
 3.9220	 7.1370
 3.9250	 7.1230
 3.9280	 7.1380
 3.9310	 7.1550
 3.9340	 7.1580
 3.9370	 7.1610
 3.9400	 7.1710
 3.9430	 7.1810
 3.9460	 7.1610
 3.9490	 7.1510
 3.9520	 7.1670
 3.9550	 7.1770
 3.9580	 7.1700
 3.9610	 7.1720
 3.9640	 7.1810
 3.9670	 7.1870
 3.9700	 7.1730
 3.9730	 7.1650
 3.9770	 7.1660
 3.9800	 7.1690
 3.9830	 7.1610
 3.9860	 7.1690
 3.9890	 7.1690
 3.9920	 7.1600
 3.9950	 7.1590
 3.9980	 7.1680
 4.0010	 7.1610
 4.0040	 7.1600
 4.0070	 7.1570
 4.0100	 7.1600
 4.0130	 7.1610
 4.0170	 7.1640
 4.0200	 7.1620
 4.0230	 7.1550
 4.0260	 7.1430
 4.0290	 7.1450
 4.0320	 7.1460
 4.0350	 7.1530
 4.0380	 7.1540
 4.0420	 7.1520
 4.0450	 7.1460
 4.0480	 7.1420
 4.0510	 7.1350
 4.0540	 7.1440
 4.0570	 7.1530
 4.0610	 7.1530
 4.0640	 7.1440
 4.0670	 7.1550
 4.0700	 7.1680
 4.0730	 7.1630
 4.0770	 7.1470
 4.0800	 7.1350
 4.0830	 7.1400
 4.0860	 7.1470
 4.0890	 7.1490
 4.0930	 7.1370
 4.0960	 7.1370
 4.0990	 7.1430
 4.1020	 7.1480
 4.1060	 7.1620
 4.1090	 7.1560
 4.1120	 7.1310
 4.1150	 7.1250
 4.1190	 7.1600
 4.1220	 7.1670
 4.1250	 7.1520
 4.1280	 7.1280
 4.1320	 7.1170
 4.1350	 7.1300
 4.1380	 7.1440
 4.1420	 7.1540
 4.1450	 7.1640
 4.1480	 7.1540
 4.1520	 7.1440
 4.1550	 7.1600
 4.1580	 7.1770
 4.1620	 7.1640
 4.1650	 7.1610
 4.1680	 7.1620
 4.1720	 7.1570
 4.1750	 7.1470
 4.1780	 7.1480
 4.1820	 7.1460
 4.1850	 7.1470
 4.1890	 7.1430
 4.1920	 7.1320
 4.1950	 7.1310
 4.1990	 7.1310
 4.2020	 7.1060
 4.2060	 7.0870
 4.2090	 7.0550
 4.2120	 6.9890
 4.2160	 6.9170
 4.2190	 6.8570
 4.2230	 6.7960
 4.2260	 6.7570
 4.2300	 6.7250
 4.2330	 6.6630
 4.2360	 6.6360
 4.2400	 6.7050
 4.2430	 6.7190
 4.2470	 6.7410
 4.2500	 6.7900
 4.2540	 6.8200
 4.2570	 6.8940
 4.2610	 6.9360
 4.2640	 6.8990
 4.2680	 6.8440
 4.2710	 6.7930
 4.2750	 6.8060
 4.2780	 6.8320
 4.2820	 6.8430
 4.2850	 6.8220
 4.2890	 6.7880
 4.2930	 6.7740
 4.2960	 6.8190
 4.3000	 6.8610
 4.3030	 6.8700
 4.3070	 6.8750
 4.3100	 6.9090
 4.3140	 6.9350
 4.3180	 6.9580
 4.3210	 6.9790
 4.3250	 6.9910
 4.3280	 7.0080
 4.3320	 7.0150
 4.3360	 7.0210
 4.3390	 7.0380
 4.3430	 7.0510
 4.3470	 7.0610
 4.3500	 7.0680
 4.3540	 7.0860
 4.3570	 7.0950
 4.3610	 7.0990
 4.3650	 7.1150
 4.3680	 7.1250
 4.3720	 7.1280
 4.3760	 7.1280
 4.3800	 7.1270
 4.3830	 7.1320
 4.3870	 7.1250
 4.3910	 7.1210
 4.3940	 7.1170
 4.3980	 7.1230
 4.4020	 7.1150
 4.4060	 7.1210
 4.4090	 7.1290
 4.4130	 7.1300
 4.4170	 7.1380
 4.4210	 7.1370
 4.4240	 7.1270
 4.4280	 7.1280
 4.4320	 7.1370
 4.4360	 7.1340
 4.4400	 7.1310
 4.4430	 7.1240
 4.4470	 7.1180
 4.4510	 7.1290
 4.4550	 7.1330
 4.4590	 7.1390
 4.4620	 7.1460
 4.4660	 7.1340
 4.4700	 7.1260
 4.4740	 7.1360
 4.4780	 7.1280
 4.4820	 7.1210
 4.4860	 7.1140
 4.4900	 7.1160
 4.4930	 7.1180
 4.4970	 7.1180
 4.5010	 7.1250
 4.5050	 7.1260
 4.5090	 7.1120
 4.5130	 7.1100
 4.5170	 7.1000
 4.5210	 7.1010
 4.5250	 7.1180
 4.5290	 7.1190
 4.5330	 7.1080
 4.5370	 7.1200
 4.5410	 7.1340
 4.5450	 7.1320
 4.5490	 7.1420
 4.5530	 7.1480
 4.5570	 7.1400
 4.5610	 7.1300
 4.5650	 7.1090
 4.5690	 7.1100
 4.5730	 7.1200
 4.5770	 7.1250
 4.5810	 7.1340
 4.5850	 7.1300
 4.5890	 7.1170
 4.5930	 7.1140
 4.5970	 7.1170
 4.6010	 7.1170
 4.6050	 7.1200
 4.6090	 7.1400
 4.6130	 7.1340
 4.6170	 7.1160
 4.6220	 7.1280
 4.6260	 7.1220
 4.6300	 7.1120
 4.6340	 7.1280
 4.6380	 7.1290
 4.6420	 7.1140
 4.6460	 7.1140
 4.6510	 7.1170
 4.6550	 7.1070
 4.6590	 7.1040
 4.6630	 7.1200
 4.6670	 7.1320
 4.6720	 7.1290
 4.6760	 7.1290
 4.6800	 7.1380
 4.6840	 7.1390
 4.6880	 7.1230
 4.6930	 7.1090
 4.6970	 7.0990
 4.7010	 7.1140
 4.7050	 7.1240
 4.7100	 7.1210
 4.7140	 7.1270
 4.7180	 7.1150
 4.7230	 7.0980
 4.7270	 7.1180
 4.7310	 7.1180
 4.7360	 7.1060
 4.7400	 7.1110
 4.7440	 7.1110
 4.7490	 7.1060
 4.7530	 7.1040
 4.7570	 7.1070
 4.7620	 7.1070
 4.7660	 7.0930
 4.7700	 7.1170
 4.7750	 7.1400
 4.7790	 7.1170
 4.7840	 7.1050
 4.7880	 7.1360
 4.7920	 7.1250
 4.7970	 7.0760
 4.8010	 7.0720
 4.8060	 7.1200
 4.8100	 7.1320
 4.8150	 7.1220
 4.8190	 7.1230
 4.8240	 7.1060
 4.8280	 7.0760
 4.8330	 7.0740
 4.8370	 7.1000
 4.8420	 7.1140
 4.8460	 7.1130
 4.8510	 7.1120
 4.8550	 7.1090
 4.8600	 7.1130
 4.8640	 7.1170
 4.8690	 7.1240
 4.8730	 7.1190
 4.8780	 7.1110
 4.8830	 7.1060
 4.8870	 7.0970
 4.8920	 7.0950
 4.8960	 7.0960
 4.9010	 7.1010
 4.9060	 7.1140
 4.9100	 7.1200
 4.9150	 7.1120
 4.9200	 7.1060
 4.9240	 7.1130
 4.9290	 7.1070
 4.9340	 7.0980
 4.9380	 7.0910
 4.9430	 7.1020
 4.9480	 7.1210
 4.9530	 7.1130
 4.9570	 7.1150
 4.9620	 7.1230
 4.9670	 7.1130
 4.9720	 7.1070
 4.9760	 7.1140
 4.9810	 7.1180
 4.9860	 7.1240
 4.9910	 7.1160
 4.9960	 7.1060
 5.0000	 7.1040
 5.0050	 7.1100
 5.0100	 7.1080
 5.0150	 7.1120
 5.0200	 7.1250
 5.0250	 7.1300
 5.0290	 7.1340
 5.0340	 7.1350
 5.0390	 7.1250
 5.0440	 7.1170
 5.0490	 7.1090
 5.0540	 7.1090
 5.0590	 7.1070
 5.0640	 7.1050
 5.0690	 7.1040
 5.0740	 7.1000
 5.0790	 7.1070
 5.0840	 7.1120
 5.0890	 7.1190
 5.0940	 7.1320
 5.0990	 7.1240
 5.1040	 7.1230
 5.1090	 7.1210
 5.1140	 7.1090
 5.1190	 7.1090
 5.1240	 7.1180
 5.1290	 7.1130
 5.1340	 7.1170
 5.1390	 7.1150
 5.1440	 7.1130
 5.1490	 7.1270
 5.1540	 7.1330
 5.1600	 7.1110
 5.1650	 7.0880
 5.1700	 7.0940
 5.1750	 7.1170
 5.1800	 7.1190
 5.1850	 7.1010
 5.1910	 7.0830
 5.1960	 7.0890
 5.2010	 7.0980
 5.2060	 7.1220
 5.2110	 7.1430
 5.2170	 7.1280
 5.2220	 7.1100
 5.2270	 7.1100
 5.2320	 7.0980
 5.2380	 7.0920
 5.2430	 7.1000
 5.2480	 7.1050
 5.2540	 7.1070
 5.2590	 7.1080
 5.2640	 7.1030
 5.2700	 7.1100
 5.2750	 7.1100
 5.2800	 7.1170
 5.2860	 7.1190
 5.2910	 7.1190
 5.2970	 7.1090
 5.3020	 7.1160
 5.3070	 7.1070
 5.3130	 7.1000
 5.3180	 7.1030
 5.3240	 7.1030
 5.3290	 7.1020
 5.3350	 7.1030
 5.3400	 7.1060
 5.3460	 7.1140
 5.3510	 7.1020
 5.3570	 7.1070
 5.3620	 7.1060
 5.3680	 7.1090
 5.3730	 7.1210
 5.3790	 7.1300
 5.3850	 7.1240
 5.3900	 7.1110
 5.3960	 7.0890
 5.4010	 7.0960
 5.4070	 7.0880
 5.4130	 7.0750
 5.4180	 7.0840
 5.4240	 7.0970
 5.4300	 7.0890
 5.4350	 7.0970
 5.4410	 7.1080
 5.4470	 7.1030
 5.4530	 7.0870
 5.4580	 7.0870
 5.4640	 7.0860
 5.4700	 7.0840
 5.4760	 7.0810
 5.4810	 7.0790
 5.4870	 7.0850
 5.4930	 7.0970
 5.4990	 7.0860
 5.5050	 7.0850
 5.5110	 7.0950
 5.5160	 7.0950
 5.5220	 7.0870
 5.5280	 7.0810
 5.5340	 7.0770
 5.5400	 7.1020
 5.5460	 7.1070
 5.5520	 7.1080
 5.5580	 7.1150
 5.5640	 7.1240
 5.5700	 7.1170
 5.5760	 7.1080
 5.5820	 7.0830
 5.5880	 7.0830
 5.5940	 7.0870
 5.6000	 7.0770
 5.6060	 7.0680
 5.6120	 7.0790
 5.6180	 7.0800
 5.6240	 7.0750
 5.6300	 7.0700
 5.6360	 7.0880
 5.6420	 7.0820
 5.6490	 7.0630
 5.6550	 7.0460
 5.6610	 7.0450
 5.6670	 7.0540
 5.6730	 7.0570
 5.6800	 7.0450
 5.6860	 7.0460
 5.6920	 7.0420
 5.6980	 7.0360
 5.7040	 7.0280
 5.7110	 7.0200
 5.7170	 7.0140
 5.7230	 7.0220
 5.7300	 7.0090
 5.7360	 7.0140
 5.7420	 7.0250
 5.7490	 7.0400
 5.7550	 7.0690
 5.7620	 7.1060
 5.7680	 7.1380
 5.7740	 7.1750
 5.7810	 7.1950
 5.7870	 7.2000
 5.7940	 7.1940
 5.8000	 7.1900
 5.8070	 7.1830
 5.8130	 7.1930
 5.8200	 7.2050
 5.8260	 7.2140
 5.8330	 7.2060
 5.8390	 7.2050
 5.8460	 7.2050
 5.8530	 7.2130
 5.8590	 7.2210
 5.8660	 7.2480
 5.8720	 7.2690
 5.8790	 7.2710
 5.8860	 7.2620
 5.8920	 7.2710
 5.8990	 7.2740
 5.9060	 7.2870
 5.9130	 7.3050
 5.9190	 7.3100
 5.9260	 7.3120
 5.9330	 7.3210
 5.9400	 7.3110
 5.9470	 7.3180
 5.9530	 7.3190
 5.9600	 7.3400
 5.9670	 7.3580
 5.9740	 7.3620
 5.9810	 7.3560
 5.9880	 7.3500
 5.9950	 7.3550
 6.0020	 7.3810
 6.0090	 7.3940
 6.0160	 7.3880
 6.0230	 7.3810
 6.0300	 7.3900
 6.0370	 7.3930
 6.0440	 7.4080
 6.0510	 7.4020
 6.0580	 7.4060
 6.0650	 7.4150
 6.0720	 7.4090
 6.0790	 7.3970
 6.0860	 7.4240
 6.0930	 7.4280
 6.1000	 7.4130
 6.1080	 7.4130
 6.1150	 7.4120
 6.1220	 7.4080
 6.1290	 7.4290
 6.1370	 7.4480
 6.1440	 7.4570
 6.1510	 7.4460
 6.1580	 7.4690
 6.1660	 7.4830
 6.1730	 7.4730
 6.1800	 7.4800
 6.1880	 7.4940
 6.1950	 7.4790
 6.2030	 7.4770
 6.2100	 7.4620
 6.2170	 7.4560
 6.2250	 7.4630
 6.2320	 7.4810
 6.2400	 7.4710
 6.2470	 7.4610
 6.2550	 7.4430
 6.2630	 7.4590
 6.2700	 7.4540
 6.2780	 7.4430
 6.2850	 7.4090
 6.2930	 7.3950
 6.3010	 7.4080
 6.3080	 7.4330
 6.3160	 7.4290
 6.3240	 7.3990
 6.3310	 7.3800
 6.3390	 7.3830
 6.3470	 7.3590
 6.3550	 7.3610
 6.3620	 7.3840
 6.3700	 7.3800
 6.3780	 7.3570
 6.3860	 7.3520
 6.3940	 7.3380
 6.4020	 7.3450
 6.4100	 7.3540
 6.4180	 7.3440
 6.4260	 7.3360
 6.4330	 7.3320
 6.4410	 7.3140
 6.4490	 7.3140
 6.4580	 7.3020
 6.4660	 7.2870
 6.4740	 7.2930
 6.4820	 7.3060
 6.4900	 7.2960
 6.4980	 7.2840
 6.5060	 7.2670
 6.5140	 7.2650
 6.5230	 7.2530
 6.5310	 7.2580
 6.5390	 7.2580
 6.5470	 7.2460
 6.5550	 7.2270
 6.5640	 7.2400
 6.5720	 7.2360
 6.5800	 7.2320
 6.5890	 7.2310
 6.5970	 7.2260
 6.6060	 7.2290
 6.6140	 7.2430
 6.6220	 7.2450
 6.6310	 7.2650
 6.6390	 7.2520
 6.6480	 7.2280
 6.6560	 7.2410
 6.6650	 7.2710
 6.6740	 7.2400
 6.6820	 7.2370
 6.6910	 7.2530
 6.6990	 7.2470
 6.7080	 7.2240
 6.7170	 7.2420
 6.7260	 7.2510
 6.7340	 7.2490
 6.7430	 7.2320
 6.7520	 7.2330
 6.7610	 7.2270
 6.7690	 7.2290
 6.7780	 7.2380
 6.7870	 7.2710
 6.7960	 7.2940
 6.8050	 7.3070
 6.8140	 7.3090
 6.8230	 7.3320
 6.8320	 7.3560
 6.8410	 7.3840
 6.8500	 7.3670
 6.8590	 7.3740
 6.8680	 7.3620
 6.8770	 7.3590
 6.8860	 7.3490
 6.8950	 7.3510
 6.9050	 7.3620
 6.9140	 7.3680
 6.9230	 7.3460
 6.9320	 7.3400
 6.9420	 7.3380
 6.9510	 7.3550
 6.9600	 7.3540
 6.9700	 7.3580
 6.9790	 7.3460
 6.9880	 7.3440
 6.9980	 7.3490
 7.0070	 7.3660
 7.0170	 7.3760
 7.0260	 7.3710
 7.0360	 7.3560
 7.0450	 7.3570
 7.0550	 7.3620
 7.0650	 7.3730
 7.0740	 7.3560
 7.0840	 7.3680
 7.0940	 7.3900
 7.1030	 7.3980
 7.1130	 7.3750
 7.1230	 7.3660
 7.1330	 7.3610
 7.1420	 7.3630
 7.1520	 7.3430
 7.1620	 7.3370
 7.1720	 7.3450
 7.1820	 7.3620
 7.1920	 7.3460
 7.2020	 7.3450
 7.2120	 7.3390
 7.2220	 7.3540
 7.2320	 7.3320
 7.2420	 7.3200
 7.2520	 7.3180
 7.2620	 7.3360
 7.2730	 7.3310
 7.2830	 7.3340
 7.2930	 7.3210
 7.3030	 7.3090
 7.3140	 7.3110
 7.3240	 7.3340
 7.3340	 7.3130
 7.3450	 7.3020
 7.3550	 7.2900
 7.3660	 7.2910
 7.3760	 7.2720
 7.3870	 7.2810
 7.3970	 7.2860
 7.4080	 7.2900
 7.4180	 7.2740
 7.4290	 7.2750
 7.4400	 7.2530
 7.4500	 7.2530
 7.4610	 7.2490
 7.4720	 7.2540
 7.4830	 7.2400
 7.4930	 7.2380
 7.5040	 7.2270
 7.5150	 7.2500
 7.5260	 7.2720
 7.5370	 7.2750
 7.5480	 7.2610
 7.5590	 7.2770
 7.5700	 7.2770
 7.5810	 7.2830
 7.5920	 7.2820
 7.6030	 7.2880
 7.6140	 7.2740
 7.6260	 7.2710
 7.6370	 7.2590
 7.6480	 7.2550
 7.6590	 7.2430
 7.6710	 7.2250
 7.6820	 7.2290
 7.6930	 7.2550
 7.7050	 7.2450
 7.7160	 7.2330
 7.7280	 7.2270
 7.7390	 7.2170
 7.7510	 7.2040
 7.7630	 7.2220
 7.7740	 7.2270
 7.7860	 7.2220
 7.7980	 7.1980
 7.8090	 7.1930
 7.8210	 7.1690
 7.8330	 7.1640
 7.8450	 7.1760
 7.8570	 7.2010
 7.8690	 7.1930
 7.8810	 7.2000
 7.8930	 7.1950
 7.9050	 7.2010
 7.9170	 7.1850
 7.9290	 7.1860
 7.9410	 7.1710
 7.9530	 7.1810
 7.9650	 7.1730
 7.9780	 7.1820
 7.9900	 7.1690
 8.0020	 7.1660
 8.0150	 7.1640
 8.0270	 7.1870
 8.0390	 7.1880
 8.0520	 7.1950
 8.0640	 7.1790
 8.0770	 7.1800
 8.0900	 7.1750
 8.1020	 7.1950
 8.1150	 7.2020
 8.1280	 7.2190
 8.1400	 7.1810
 8.1530	 7.1910
 8.1660	 7.1910
 8.1790	 7.2080
 8.1920	 7.2190
 8.2050	 7.2270
 8.2180	 7.2270
 8.2310	 7.2520
 8.2440	 7.2480
 8.2570	 7.2700
 8.2700	 7.2760
 8.2830	 7.2670
 8.2970	 7.2430
 8.3100	 7.2610
 8.3230	 7.2670
 8.3370	 7.2840
 8.3500	 7.2810
 8.3640	 7.3140
 8.3770	 7.3310
 8.3910	 7.3290
 8.4040	 7.3090
 8.4180	 7.3290
 8.4320	 7.3430
 8.4450	 7.3820
 8.4590	 7.3530
 8.4730	 7.3430
 8.4870	 7.3600
 8.5010	 7.3940
 8.5150	 7.3870
 8.5290	 7.3620
 8.5430	 7.3340
 8.5570	 7.3770
 8.5710	 7.3780
 8.5850	 7.3910
 8.5990	 7.3780
 8.6140	 7.4040
 8.6280	 7.3840
 8.6420	 7.3850
 8.6570	 7.3640
 8.6710	 7.3920
 8.6860	 7.3990
 8.7000	 7.3970
 8.7150	 7.3690
 8.7300	 7.3900
 8.7440	 7.3710
 8.7590	 7.4040
 8.7740	 7.4060
 8.7890	 7.4120
 8.8040	 7.4020
 8.8190	 7.4140
 8.8340	 7.3980
 8.8490	 7.4010
 8.8640	 7.3970
 8.8790	 7.4280
 8.8940	 7.4630
 8.9100	 7.4710
 8.9250	 7.4250
 8.9400	 7.4260
 8.9560	 7.4120
 8.9710	 7.4420
 8.9870	 7.4290
 9.0020	 7.4490
 9.0180	 7.4460
 9.0340	 7.4410
 9.0500	 7.4120
 9.0650	 7.4530
 9.0810	 7.4570
 9.0970	 7.4500
 9.1130	 7.4190
 9.1290	 7.4440
 9.1450	 7.4260
 9.1610	 7.4270
 9.1780	 7.4370
 9.1940	 7.4640
 9.2100	 7.4500
 9.2270	 7.4690
 9.2430	 7.4500
 9.2600	 7.4390
 9.2760	 7.4200
 9.2930	 7.4490
 9.3090	 7.4310
 9.3260	 7.4410
 9.3430	 7.4340
 9.3600	 7.4540
 9.3770	 7.4450
 9.3940	 7.4600
 9.4110	 7.4500
 9.4280	 7.4590
 9.4450	 7.4320
 9.4620	 7.4570
 9.4800	 7.4630
 9.4970	 7.4630
 9.5140	 7.4170
 9.5320	 7.4480
 9.5500	 7.4700
 9.5670	 7.5150
 9.5850	 7.4740
 9.6030	 7.4750
 9.6200	 7.4780
 9.6380	 7.4700
 9.6560	 7.4620
 9.6740	 7.4710
 9.6920	 7.4500
 9.7100	 7.4900
 9.7290	 7.4830
 9.7470	 7.4790
 9.7650	 7.4630
 9.7840	 7.4850
 9.8020	 7.4680
 9.8210	 7.4770
 9.8390	 7.4430
 9.8580	 7.4400
 9.8770	 7.4460
 9.8960	 7.4720
 9.9150	 7.4210
 9.9340	 7.4070
 9.9530	 7.3890
 9.9720	 7.4170
 9.9910	 7.4190
10.0100	 7.4120
10.0300	 7.3900
10.0490	 7.4190
10.0690	 7.4130
10.0880	 7.4090
10.1080	 7.3850
10.1280	 7.3980
10.1480	 7.3720
10.1670	 7.3640
10.1870	 7.3430
10.2070	 7.3510
10.2280	 7.3250
10.2480	 7.3240
10.2680	 7.2980
10.2890	 7.3190
10.3090	 7.3140
10.3300	 7.3100
10.3500	 7.2680
10.3710	 7.2750
10.3920	 7.2400
10.4120	 7.2820
10.4330	 7.3030
10.4540	 7.2720
10.4760	 7.2330
10.4970	 7.2550
10.5180	 7.2500
10.5390	 7.2560
10.5610	 7.2170
10.5820	 7.2400
10.6040	 7.2350
10.6260	 7.2540
10.6480	 7.2290
10.6700	 7.2430
10.6920	 7.2310
10.7140	 7.2370
10.7360	 7.2010
10.7580	 7.1980
10.7800	 7.2070
10.8030	 7.2390
10.8250	 7.2070
10.8480	 7.2270
10.8710	 7.2060
10.8940	 7.2260
10.9170	 7.2240
10.9400	 7.2380
10.9630	 7.1930
10.9860	 7.2060
11.0090	 7.1890
11.0330	 7.2150
11.0560	 7.1880
11.0800	 7.1670
11.1040	 7.1250
11.1270	 7.1740
11.1510	 7.2070
11.1750	 7.2060
11.2000	 7.1550
11.2240	 7.1720
11.2480	 7.1680
11.2730	 7.2180
11.2970	 7.1990
11.3220	 7.1940
11.3470	 7.1710
11.3720	 7.2090
11.3970	 7.1940
11.4220	 7.2240
11.4470	 7.2130
11.4720	 7.2280
11.4980	 7.2280
11.5230	 7.2450
11.5490	 7.1880
11.5750	 7.1670
11.6000	 7.1210
11.6260	 7.1230
11.6530	 7.1160
11.6790	 7.1450
11.7050	 7.1230
11.7320	 7.1230
11.7580	 7.1190
11.7850	 7.1460
11.8120	 7.1190
11.8390	 7.1530
11.8660	 7.1370
11.8930	 7.1370
11.9200	 7.1280
11.9480	 7.1560
11.9760	 7.1130
12.0030	 7.1390
12.0310	 7.1540
12.0590	 7.1630
12.0870	 7.1020
12.1150	 7.1210
12.1440	 7.1270
12.1720	 7.1990
12.2010	 7.1770
12.2300	 7.2180
12.2590	 7.1630
12.2880	 7.1180
12.3170	 7.1160
12.3460	 7.1870
12.3760	 7.1810
12.4050	 7.2150
12.4350	 7.1740
12.4650	 7.1740
12.4950	 7.1350
12.5250	 7.1410
12.5550	 7.1300
12.5860	 7.2060
12.6170	 7.1910
12.6470	 7.2150
12.6780	 7.1720
12.7090	 7.1990
12.7410	 7.1820
12.7720	 7.2060
12.8030	 7.1480
12.8350	 7.1610
12.8670	 7.1290
12.8990	 7.1360
12.9310	 7.1040
12.9640	 7.1710
12.9960	 7.1390
13.0290	 7.1360
13.0610	 7.1010
13.0940	 7.1460
13.1280	 7.1430
13.1610	 7.1580
13.1940	 7.1000
13.2280	 7.1450
13.2620	 7.1360
13.2960	 7.1470
13.3300	 7.0890
13.3640	 7.1440
13.3990	 7.1210
13.4340	 7.1520
13.4690	 7.1190
13.5040	 7.1150
13.5390	 7.0630
13.5740	 7.1140
13.6100	 7.0740
13.6460	 7.1240
13.6820	 7.0980
13.7180	 7.0960
13.7540	 7.0670
13.7910	 7.1630
13.8280	 7.1820
13.8650	 7.1840
13.9020	 7.1210
13.9390	 7.1750
13.9770	 7.1810
14.0150	 7.2280
14.0530	 7.1630
14.0910	 7.1720
14.1290	 7.1380
14.1680	 7.1530
14.2070	 7.0720
14.2460	 7.1210
14.2850	 7.1270
14.3240	 7.1700
14.3640	 7.0770
14.4040	 7.1130
14.4440	 7.0970
14.4840	 7.1480
14.5250	 7.0920
14.5660	 7.1410
14.6070	 7.1010
14.6480	 7.1400
14.6900	 7.1040
14.7310	 7.1880
14.7730	 7.0350
14.8150	 7.0500
14.8580	 7.0540
14.9010	 7.0700
14.9440	 6.4870
14.9870	 6.5410
15.0300	 6.9940
15.0740	 7.1480
15.1180	 7.0710
15.1620	 7.1270
15.2060	 7.0900
15.2510	 7.1710
15.2960	 7.0450
15.3410	 7.1120
15.3870	 7.1200
