Name: Quercus lobata 2
Type: vegetation
Class: Tree
Genus: Quercus
Species: lobata
Sample No.: VH284
Owner: UCSB
Wavelength Range: TIR
Origin: 34.7146; -120.0588; WGS84
Collection Date: 11/2/2013
Description: Samples were collected as part of the HyspIRI Airborne Campaign. 48 individual plants were sampled in three times in 2013 - spring  summer  and fall. The name of the sample includes a 1  2  or 3 which references a different individual of the species. Samples were taken to JPL and processed within 48 hours of collection. The same leaves were processed in the Nicolet and then measured using the ASD.
Measurement: Hemispherical reflectance
First Column: X
Second Column: Y
X Units: Wavelength (micrometers)
Y Units: Reflectance (percentage)
First X Value: 2.501
Last X Value: 15.387
Number of X Values: 1737
Additional Information: vegetation.tree.quercus.lobata.tir.vh284.ucsb.nicolet.ancillary.txt

 2.5010	16.0120
 2.5030	16.0670
 2.5040	16.2050
 2.5050	16.3700
 2.5060	16.2430
 2.5070	16.1420
 2.5090	16.2880
 2.5100	16.3190
 2.5110	16.2450
 2.5120	16.1820
 2.5140	16.2090
 2.5150	16.3700
 2.5160	16.2520
 2.5170	16.0480
 2.5180	16.0160
 2.5200	16.1220
 2.5210	16.1770
 2.5220	16.0490
 2.5230	15.9240
 2.5250	15.9480
 2.5260	16.0460
 2.5270	16.0430
 2.5280	16.0630
 2.5290	16.1000
 2.5310	16.0710
 2.5320	16.1060
 2.5330	16.1590
 2.5340	16.1220
 2.5360	16.1310
 2.5370	16.0300
 2.5380	15.8900
 2.5390	15.9470
 2.5410	16.1430
 2.5420	16.1050
 2.5430	15.9870
 2.5440	15.9770
 2.5460	15.9550
 2.5470	16.1030
 2.5480	16.2120
 2.5490	16.1720
 2.5510	16.1580
 2.5520	16.1670
 2.5530	16.1050
 2.5540	16.0090
 2.5560	15.9390
 2.5570	15.9580
 2.5580	16.0460
 2.5590	16.0610
 2.5610	16.1170
 2.5620	16.1550
 2.5630	16.1380
 2.5640	16.2780
 2.5660	16.3440
 2.5670	16.3360
 2.5680	16.3380
 2.5700	16.2160
 2.5710	16.0800
 2.5720	16.0810
 2.5730	16.1240
 2.5750	16.1740
 2.5760	16.2540
 2.5770	16.2100
 2.5790	16.1170
 2.5800	16.0590
 2.5810	16.1480
 2.5820	16.1880
 2.5840	16.3760
 2.5850	16.3740
 2.5860	16.1480
 2.5880	16.1330
 2.5890	16.3310
 2.5900	16.3200
 2.5910	16.2070
 2.5930	16.0180
 2.5940	16.1060
 2.5950	16.1850
 2.5970	16.1460
 2.5980	16.1020
 2.5990	15.9800
 2.6000	15.8980
 2.6020	15.8580
 2.6030	15.8470
 2.6040	15.8250
 2.6060	15.7970
 2.6070	15.8550
 2.6080	15.8060
 2.6100	15.8120
 2.6110	15.7520
 2.6120	15.7380
 2.6140	15.6540
 2.6150	15.6490
 2.6160	15.7450
 2.6180	15.6290
 2.6190	15.3510
 2.6200	15.3370
 2.6220	15.4070
 2.6230	15.3940
 2.6240	15.2520
 2.6260	15.1660
 2.6270	15.2800
 2.6280	15.2780
 2.6300	15.2300
 2.6310	15.2540
 2.6320	15.1420
 2.6340	14.8910
 2.6350	14.6900
 2.6360	14.7370
 2.6380	14.7820
 2.6390	14.7650
 2.6400	14.6620
 2.6420	14.5140
 2.6430	14.6730
 2.6440	14.7550
 2.6460	14.5660
 2.6470	14.4480
 2.6480	14.3990
 2.6500	14.2900
 2.6510	14.1920
 2.6520	14.0900
 2.6540	14.0600
 2.6550	14.1290
 2.6560	14.0500
 2.6580	14.0190
 2.6590	14.0540
 2.6610	13.9690
 2.6620	13.9150
 2.6630	13.8020
 2.6650	13.6950
 2.6660	13.6350
 2.6670	13.6240
 2.6690	13.6630
 2.6700	13.5810
 2.6720	13.4280
 2.6730	13.3040
 2.6740	13.3100
 2.6760	13.1490
 2.6770	13.0110
 2.6780	12.8500
 2.6800	12.7400
 2.6810	12.7200
 2.6830	12.6750
 2.6840	12.6100
 2.6850	12.4670
 2.6870	12.2980
 2.6880	12.0920
 2.6900	11.7630
 2.6910	11.4850
 2.6920	11.3290
 2.6940	11.2620
 2.6950	11.0370
 2.6970	10.7260
 2.6980	10.4090
 2.6990	10.2440
 2.7010	10.0190
 2.7020	 9.7740
 2.7040	 9.5090
 2.7050	 9.2910
 2.7060	 9.2970
 2.7080	 9.4860
 2.7090	 9.6200
 2.7110	 9.5340
 2.7120	 9.2500
 2.7130	 9.1990
 2.7150	 9.1630
 2.7160	 9.1140
 2.7180	 9.0460
 2.7190	 8.8880
 2.7210	 8.6520
 2.7220	 8.5940
 2.7230	 8.5160
 2.7250	 8.6050
 2.7260	 8.5710
 2.7280	 8.3480
 2.7290	 7.9430
 2.7310	 7.6730
 2.7320	 7.7640
 2.7330	 7.9730
 2.7350	 7.7720
 2.7360	 7.5400
 2.7380	 7.3640
 2.7390	 7.1470
 2.7410	 7.0520
 2.7420	 7.1290
 2.7440	 6.9550
 2.7450	 6.5960
 2.7470	 6.7310
 2.7480	 6.8300
 2.7490	 6.6040
 2.7510	 6.5060
 2.7520	 6.5710
 2.7540	 6.4330
 2.7550	 6.2230
 2.7570	 6.1140
 2.7580	 5.8240
 2.7600	 5.7930
 2.7610	 5.8110
 2.7630	 5.8390
 2.7640	 5.9340
 2.7660	 6.1300
 2.7670	 6.2500
 2.7680	 6.2510
 2.7700	 6.1180
 2.7710	 6.1310
 2.7730	 6.0180
 2.7740	 5.9240
 2.7760	 5.8380
 2.7770	 5.6270
 2.7790	 5.4860
 2.7800	 5.7630
 2.7820	 5.6960
 2.7830	 5.6350
 2.7850	 5.7110
 2.7860	 5.8540
 2.7880	 6.0210
 2.7890	 5.8910
 2.7910	 5.6810
 2.7920	 5.6430
 2.7940	 5.4850
 2.7950	 5.4800
 2.7970	 5.4540
 2.7980	 5.3700
 2.8000	 5.4100
 2.8010	 5.4720
 2.8030	 5.5530
 2.8040	 5.6620
 2.8060	 5.5950
 2.8070	 5.5930
 2.8090	 5.4060
 2.8110	 5.2450
 2.8120	 5.1900
 2.8140	 5.2300
 2.8150	 5.3180
 2.8170	 5.2660
 2.8180	 5.1330
 2.8200	 5.1890
 2.8210	 5.3220
 2.8230	 5.1650
 2.8240	 5.0040
 2.8260	 5.2540
 2.8270	 5.3860
 2.8290	 5.3700
 2.8300	 5.2220
 2.8320	 5.0570
 2.8340	 5.1620
 2.8350	 5.1500
 2.8370	 5.1050
 2.8380	 5.0610
 2.8400	 4.9530
 2.8410	 5.0220
 2.8430	 4.9930
 2.8440	 5.0140
 2.8460	 5.0390
 2.8480	 5.0120
 2.8490	 4.8920
 2.8510	 4.8560
 2.8520	 4.8230
 2.8540	 4.6620
 2.8550	 4.7210
 2.8570	 4.8140
 2.8590	 4.9080
 2.8600	 4.9230
 2.8620	 4.7430
 2.8630	 4.7940
 2.8650	 5.0030
 2.8660	 4.8860
 2.8680	 4.6830
 2.8700	 4.7100
 2.8710	 4.8110
 2.8730	 4.8560
 2.8740	 4.7890
 2.8760	 4.6260
 2.8780	 4.6000
 2.8790	 4.6700
 2.8810	 4.5990
 2.8820	 4.6980
 2.8840	 4.6660
 2.8860	 4.8110
 2.8870	 4.9220
 2.8890	 4.5480
 2.8900	 4.3480
 2.8920	 4.4750
 2.8940	 4.4660
 2.8950	 4.5520
 2.8970	 4.6680
 2.8980	 4.7110
 2.9000	 4.7520
 2.9020	 4.6230
 2.9030	 4.2380
 2.9050	 4.1610
 2.9070	 4.4440
 2.9080	 4.6730
 2.9100	 4.5100
 2.9120	 4.3700
 2.9130	 4.5700
 2.9150	 4.6590
 2.9160	 4.5250
 2.9180	 4.4910
 2.9200	 4.5870
 2.9210	 4.5870
 2.9230	 4.5250
 2.9250	 4.5620
 2.9260	 4.6010
 2.9280	 4.6320
 2.9300	 4.5340
 2.9310	 4.3200
 2.9330	 4.2780
 2.9350	 4.3640
 2.9360	 4.3050
 2.9380	 4.4030
 2.9400	 4.4700
 2.9410	 4.4170
 2.9430	 4.4900
 2.9450	 4.6130
 2.9460	 4.6420
 2.9480	 4.5530
 2.9500	 4.4110
 2.9510	 4.4520
 2.9530	 4.4910
 2.9550	 5.0010
 2.9560	 4.8880
 2.9580	 4.2920
 2.9600	 4.2210
 2.9610	 4.7770
 2.9630	 5.1510
 2.9650	 4.9920
 2.9660	 4.5710
 2.9680	 4.5980
 2.9700	 4.3200
 2.9720	 4.3790
 2.9730	 4.7100
 2.9750	 4.9310
 2.9770	 5.2940
 2.9780	 6.0590
 2.9800	 5.0310
 2.9820	 4.2260
 2.9840	 5.0700
 2.9850	 5.2610
 2.9870	 4.3500
 2.9890	 4.5720
 2.9900	 5.4190
 2.9920	 5.4510
 2.9940	 3.7970
 2.9960	 5.2080
 2.9970	 8.1740
 2.9990	 5.9600
 3.0010	 4.4210
 3.0030	 4.3160
 3.0040	 4.1600
 3.0060	 4.5650
 3.0080	 4.9510
 3.0100	 4.6020
 3.0110	 3.5290
 3.0130	 3.6650
 3.0150	 4.8970
 3.0170	 5.1700
 3.0180	 5.4930
 3.0200	 5.3010
 3.0220	 5.0910
 3.0240	 5.1950
 3.0250	 5.2580
 3.0270	 5.0930
 3.0290	 4.5480
 3.0310	 4.2880
 3.0320	 4.1190
 3.0340	 4.4280
 3.0360	 5.2370
 3.0380	 5.5760
 3.0400	 5.7430
 3.0410	 5.7000
 3.0430	 4.9750
 3.0450	 2.7030
 3.0470	 1.8380
 3.0480	 4.2430
 3.0500	 6.0650
 3.0520	 6.2490
 3.0540	 6.4130
 3.0560	 6.0080
 3.0570	 4.9100
 3.0590	 4.5860
 3.0610	 4.6040
 3.0630	 4.2120
 3.0650	 4.7060
 3.0660	 5.0810
 3.0680	 4.7590
 3.0700	 4.6550
 3.0720	 5.4470
 3.0740	 5.4290
 3.0760	 5.0320
 3.0770	 5.0300
 3.0790	 4.9920
 3.0810	 4.9680
 3.0830	 5.0260
 3.0850	 5.1960
 3.0870	 5.2360
 3.0880	 5.2630
 3.0900	 5.3970
 3.0920	 5.3270
 3.0940	 5.1680
 3.0960	 5.2220
 3.0980	 5.5390
 3.0990	 5.4660
 3.1010	 5.4580
 3.1030	 5.5980
 3.1050	 5.4710
 3.1070	 5.3290
 3.1090	 5.3620
 3.1110	 5.1720
 3.1120	 5.1480
 3.1140	 5.3050
 3.1160	 5.5510
 3.1180	 5.5480
 3.1200	 5.3820
 3.1220	 5.3460
 3.1240	 5.4360
 3.1260	 5.5790
 3.1270	 5.5480
 3.1290	 5.3910
 3.1310	 5.3980
 3.1330	 5.5670
 3.1350	 5.1940
 3.1370	 4.8330
 3.1390	 5.3080
 3.1410	 5.9000
 3.1430	 6.9670
 3.1450	 7.8990
 3.1460	 7.3680
 3.1480	 6.9460
 3.1500	 6.0520
 3.1520	 5.6150
 3.1540	 5.9370
 3.1560	 5.9630
 3.1580	 6.0290
 3.1600	 5.8460
 3.1620	 6.0190
 3.1640	 5.9370
 3.1660	 6.2970
 3.1680	 6.1580
 3.1700	 6.4170
 3.1710	 7.2720
 3.1730	 7.3690
 3.1750	 6.9720
 3.1770	 6.3600
 3.1790	 6.3810
 3.1810	 6.3010
 3.1830	 5.9720
 3.1850	 6.2210
 3.1870	 6.8690
 3.1890	 6.8810
 3.1910	 6.5260
 3.1930	 6.4420
 3.1950	 6.3370
 3.1970	 6.3040
 3.1990	 6.3100
 3.2010	 6.2190
 3.2030	 6.2990
 3.2050	 6.3160
 3.2070	 6.4270
 3.2090	 6.5610
 3.2110	 6.5450
 3.2130	 6.6160
 3.2150	 6.5610
 3.2170	 6.5530
 3.2190	 6.7750
 3.2210	 6.7820
 3.2230	 6.7140
 3.2250	 6.6780
 3.2270	 6.7520
 3.2290	 6.7200
 3.2310	 6.8040
 3.2330	 7.0060
 3.2350	 6.9920
 3.2370	 6.9030
 3.2390	 6.9470
 3.2410	 7.1220
 3.2430	 6.9510
 3.2450	 6.8280
 3.2470	 6.8480
 3.2490	 6.7000
 3.2510	 6.8270
 3.2530	 7.0220
 3.2550	 7.0270
 3.2570	 7.0610
 3.2590	 7.2100
 3.2610	 7.1550
 3.2630	 7.0740
 3.2650	 7.0660
 3.2670	 7.2210
 3.2690	 7.1570
 3.2720	 7.0760
 3.2740	 7.0690
 3.2760	 7.0680
 3.2780	 7.0130
 3.2800	 7.0710
 3.2820	 7.1390
 3.2840	 7.2960
 3.2860	 7.3500
 3.2880	 7.2630
 3.2900	 7.3480
 3.2920	 7.3870
 3.2940	 7.2490
 3.2960	 7.3060
 3.2990	 7.4800
 3.3010	 7.6810
 3.3030	 7.5690
 3.3050	 7.5810
 3.3070	 7.6690
 3.3090	 7.5550
 3.3110	 7.5970
 3.3130	 7.4460
 3.3150	 7.4060
 3.3180	 7.8290
 3.3200	 7.8900
 3.3220	 7.6940
 3.3240	 7.5710
 3.3260	 7.3770
 3.3280	 7.4170
 3.3300	 7.5170
 3.3330	 7.4930
 3.3350	 7.4020
 3.3370	 7.3460
 3.3390	 7.3600
 3.3410	 7.3900
 3.3430	 7.4840
 3.3450	 7.4790
 3.3480	 7.4070
 3.3500	 7.4430
 3.3520	 7.2730
 3.3540	 7.1120
 3.3560	 7.2420
 3.3580	 7.3590
 3.3610	 7.2580
 3.3630	 7.1260
 3.3650	 6.9920
 3.3670	 7.0500
 3.3690	 7.0440
 3.3720	 6.9120
 3.3740	 6.9210
 3.3760	 6.8720
 3.3780	 6.7500
 3.3800	 6.6270
 3.3830	 6.6390
 3.3850	 6.6970
 3.3870	 6.6530
 3.3890	 6.4880
 3.3910	 6.4190
 3.3940	 6.4010
 3.3960	 6.3270
 3.3980	 6.3460
 3.4000	 6.4640
 3.4020	 6.4890
 3.4050	 6.4430
 3.4070	 6.4050
 3.4090	 6.5070
 3.4110	 6.4690
 3.4140	 6.4350
 3.4160	 6.5530
 3.4180	 6.7100
 3.4200	 6.7600
 3.4230	 6.7680
 3.4250	 6.9060
 3.4270	 7.3030
 3.4290	 7.5650
 3.4320	 7.4200
 3.4340	 7.3470
 3.4360	 7.4650
 3.4390	 7.2130
 3.4410	 6.9910
 3.4430	 6.9820
 3.4450	 7.1490
 3.4480	 7.3190
 3.4500	 7.2680
 3.4520	 6.9270
 3.4550	 6.8770
 3.4570	 7.1990
 3.4590	 7.4180
 3.4620	 7.3540
 3.4640	 7.4150
 3.4660	 7.5020
 3.4680	 7.4970
 3.4710	 7.4020
 3.4730	 7.3480
 3.4750	 7.3870
 3.4780	 7.3340
 3.4800	 7.2550
 3.4820	 7.2290
 3.4850	 7.2490
 3.4870	 7.3220
 3.4890	 7.3610
 3.4920	 7.3140
 3.4940	 7.2740
 3.4970	 7.2770
 3.4990	 7.2730
 3.5010	 7.2810
 3.5040	 7.3030
 3.5060	 7.4830
 3.5080	 7.6830
 3.5110	 7.8890
 3.5130	 8.1630
 3.5160	 8.2960
 3.5180	 8.2550
 3.5200	 8.3190
 3.5230	 8.4430
 3.5250	 8.5460
 3.5270	 8.6050
 3.5300	 8.6330
 3.5320	 8.7650
 3.5350	 8.8860
 3.5370	 8.7810
 3.5400	 8.8190
 3.5420	 8.8920
 3.5440	 8.8370
 3.5470	 8.7620
 3.5490	 8.8220
 3.5520	 8.8820
 3.5540	 8.9820
 3.5570	 9.0340
 3.5590	 9.0940
 3.5610	 9.0620
 3.5640	 8.9230
 3.5660	 8.9900
 3.5690	 9.1420
 3.5710	 9.2220
 3.5740	 9.1860
 3.5760	 9.1560
 3.5790	 9.2220
 3.5810	 9.2310
 3.5840	 9.3370
 3.5860	 9.2640
 3.5890	 9.2300
 3.5910	 9.3330
 3.5930	 9.3090
 3.5960	 9.4050
 3.5980	 9.3920
 3.6010	 9.2540
 3.6030	 9.2500
 3.6060	 9.2610
 3.6080	 9.2930
 3.6110	 9.4520
 3.6140	 9.4390
 3.6160	 9.4020
 3.6190	 9.4190
 3.6210	 9.4720
 3.6240	 9.5150
 3.6260	 9.3840
 3.6290	 9.3600
 3.6310	 9.4710
 3.6340	 9.5040
 3.6360	 9.4380
 3.6390	 9.3720
 3.6410	 9.4060
 3.6440	 9.3780
 3.6470	 9.3440
 3.6490	 9.3760
 3.6520	 9.3430
 3.6540	 9.4250
 3.6570	 9.4930
 3.6590	 9.4030
 3.6620	 9.4000
 3.6650	 9.3690
 3.6670	 9.4580
 3.6700	 9.6890
 3.6720	 9.6370
 3.6750	 9.5700
 3.6780	 9.6500
 3.6800	 9.6990
 3.6830	 9.6010
 3.6850	 9.5880
 3.6880	 9.6650
 3.6910	 9.6150
 3.6930	 9.6150
 3.6960	 9.6660
 3.6990	 9.7190
 3.7010	 9.7780
 3.7040	 9.8490
 3.7060	 9.8290
 3.7090	 9.7400
 3.7120	 9.6720
 3.7140	 9.7410
 3.7170	 9.8210
 3.7200	 9.9040
 3.7220	 9.8840
 3.7250	 9.8740
 3.7280	 9.8370
 3.7300	 9.8260
 3.7330	 9.8270
 3.7360	 9.8230
 3.7390	 9.8120
 3.7410	 9.8850
 3.7440	 9.9200
 3.7470	 9.7410
 3.7490	 9.7360
 3.7520	 9.8760
 3.7550	 9.9380
 3.7580	 9.8770
 3.7600	 9.9140
 3.7630	10.0230
 3.7660	10.0240
 3.7680	 9.9640
 3.7710	 9.8370
 3.7740	 9.9520
 3.7770	10.0970
 3.7790	10.0100
 3.7820	 9.8770
 3.7850	10.0000
 3.7880	10.1530
 3.7900	10.0720
 3.7930	 9.9740
 3.7960	10.1200
 3.7990	10.1550
 3.8020	10.0590
 3.8040	10.0470
 3.8070	10.1000
 3.8100	10.1710
 3.8130	10.1860
 3.8160	10.1880
 3.8180	10.2160
 3.8210	10.2350
 3.8240	10.2210
 3.8270	10.2000
 3.8300	10.1530
 3.8330	10.1840
 3.8350	10.2570
 3.8380	10.2100
 3.8410	10.1900
 3.8440	10.2700
 3.8470	10.3730
 3.8500	10.4330
 3.8520	10.3100
 3.8550	10.2710
 3.8580	10.3580
 3.8610	10.3130
 3.8640	10.2950
 3.8670	10.3710
 3.8700	10.4570
 3.8730	10.3850
 3.8750	10.2810
 3.8780	10.3300
 3.8810	10.4620
 3.8840	10.4310
 3.8870	10.4210
 3.8900	10.3780
 3.8930	10.3320
 3.8960	10.3580
 3.8990	10.4470
 3.9020	10.4300
 3.9050	10.3540
 3.9080	10.4290
 3.9110	10.5650
 3.9140	10.6270
 3.9160	10.5420
 3.9190	10.5440
 3.9220	10.5040
 3.9250	10.5270
 3.9280	10.5420
 3.9310	10.5210
 3.9340	10.5140
 3.9370	10.5420
 3.9400	10.5420
 3.9430	10.5340
 3.9460	10.5210
 3.9490	10.5440
 3.9520	10.4620
 3.9550	10.4320
 3.9580	10.4140
 3.9610	10.4120
 3.9640	10.5530
 3.9670	10.6610
 3.9700	10.6620
 3.9730	10.6520
 3.9770	10.5910
 3.9800	10.5590
 3.9830	10.6300
 3.9860	10.5380
 3.9890	10.5340
 3.9920	10.6140
 3.9950	10.5630
 3.9980	10.5840
 4.0010	10.7140
 4.0040	10.7630
 4.0070	10.7100
 4.0100	10.7090
 4.0130	10.6930
 4.0170	10.7180
 4.0200	10.7060
 4.0230	10.6710
 4.0260	10.7330
 4.0290	10.6710
 4.0320	10.7010
 4.0350	10.7100
 4.0380	10.6780
 4.0420	10.7070
 4.0450	10.7350
 4.0480	10.7070
 4.0510	10.7640
 4.0540	10.8260
 4.0570	10.8370
 4.0610	10.7130
 4.0640	10.6660
 4.0670	10.7630
 4.0700	10.8540
 4.0730	10.8330
 4.0770	10.7380
 4.0800	10.8140
 4.0830	10.9260
 4.0860	10.9340
 4.0890	10.9490
 4.0930	10.8750
 4.0960	10.7820
 4.0990	10.7470
 4.1020	10.6680
 4.1060	10.6810
 4.1090	10.7990
 4.1120	10.8400
 4.1150	10.7100
 4.1190	10.6740
 4.1220	10.7480
 4.1250	10.8380
 4.1280	10.8560
 4.1320	10.8410
 4.1350	10.8490
 4.1380	10.8250
 4.1420	10.8120
 4.1450	10.7560
 4.1480	10.7590
 4.1520	10.8660
 4.1550	10.8210
 4.1580	10.8300
 4.1620	10.9010
 4.1650	10.8790
 4.1680	10.8660
 4.1720	10.8450
 4.1750	10.9020
 4.1780	10.8950
 4.1820	10.8590
 4.1850	10.8900
 4.1890	10.9050
 4.1920	10.8620
 4.1950	10.8670
 4.1990	10.8000
 4.2020	10.7370
 4.2060	10.6730
 4.2090	10.5990
 4.2120	10.5220
 4.2160	10.4150
 4.2190	10.5820
 4.2230	10.8910
 4.2260	10.6170
 4.2300	10.1170
 4.2330	10.1550
 4.2360	10.7380
 4.2400	10.3580
 4.2430	10.3440
 4.2470	10.6100
 4.2500	10.6240
 4.2540	10.6350
 4.2570	10.6890
 4.2610	10.5230
 4.2640	10.3580
 4.2680	10.3980
 4.2710	10.4800
 4.2750	10.4110
 4.2780	10.4780
 4.2820	10.4900
 4.2850	10.1910
 4.2890	10.0870
 4.2930	10.2210
 4.2960	10.2670
 4.3000	10.3500
 4.3030	10.4010
 4.3070	10.5550
 4.3100	10.5050
 4.3140	10.5390
 4.3180	10.6000
 4.3210	10.5010
 4.3250	10.4930
 4.3280	10.5830
 4.3320	10.5710
 4.3360	10.5680
 4.3390	10.5670
 4.3430	10.5480
 4.3470	10.4880
 4.3500	10.5100
 4.3540	10.5100
 4.3570	10.4690
 4.3610	10.4420
 4.3650	10.4650
 4.3680	10.4210
 4.3720	10.5220
 4.3760	10.5200
 4.3800	10.3670
 4.3830	10.3330
 4.3870	10.4530
 4.3910	10.4570
 4.3940	10.4210
 4.3980	10.3890
 4.4020	10.3940
 4.4060	10.3730
 4.4090	10.3490
 4.4130	10.2100
 4.4170	10.1860
 4.4210	10.2890
 4.4240	10.3350
 4.4280	10.2680
 4.4320	10.2270
 4.4360	10.2310
 4.4400	10.2930
 4.4430	10.3190
 4.4470	10.3090
 4.4510	10.2740
 4.4550	10.2280
 4.4590	10.1730
 4.4620	10.1930
 4.4660	10.1820
 4.4700	10.2360
 4.4740	10.1310
 4.4780	10.0250
 4.4820	10.0990
 4.4860	10.1690
 4.4900	10.0610
 4.4930	10.0230
 4.4970	10.0730
 4.5010	10.1000
 4.5050	10.0670
 4.5090	10.0930
 4.5130	10.0940
 4.5170	10.1110
 4.5210	10.0710
 4.5250	10.0600
 4.5290	10.0150
 4.5330	10.0280
 4.5370	10.0030
 4.5410	10.0460
 4.5450	10.0570
 4.5490	10.0200
 4.5530	 9.9300
 4.5570	 9.8880
 4.5610	 9.8680
 4.5650	 9.9480
 4.5690	 9.9220
 4.5730	 9.8840
 4.5770	 9.9320
 4.5810	 9.9460
 4.5850	 9.8210
 4.5890	 9.7850
 4.5930	 9.7890
 4.5970	 9.7890
 4.6010	 9.7880
 4.6050	 9.8310
 4.6090	 9.8390
 4.6130	 9.8980
 4.6170	 9.7690
 4.6220	 9.6950
 4.6260	 9.7720
 4.6300	 9.8580
 4.6340	 9.8410
 4.6380	 9.8050
 4.6420	 9.7840
 4.6460	 9.7270
 4.6510	 9.7230
 4.6550	 9.6350
 4.6590	 9.5440
 4.6630	 9.5800
 4.6670	 9.6360
 4.6720	 9.7250
 4.6760	 9.7350
 4.6800	 9.7020
 4.6840	 9.5880
 4.6880	 9.5500
 4.6930	 9.5360
 4.6970	 9.5890
 4.7010	 9.6350
 4.7050	 9.6600
 4.7100	 9.5360
 4.7140	 9.5260
 4.7180	 9.5990
 4.7230	 9.6770
 4.7270	 9.6290
 4.7310	 9.6380
 4.7360	 9.6290
 4.7400	 9.6550
 4.7440	 9.6450
 4.7490	 9.5710
 4.7530	 9.5030
 4.7570	 9.5590
 4.7620	 9.5860
 4.7660	 9.5730
 4.7700	 9.5130
 4.7750	 9.5340
 4.7790	 9.6150
 4.7840	 9.5930
 4.7880	 9.4340
 4.7920	 9.5220
 4.7970	 9.4890
 4.8010	 9.3900
 4.8060	 9.4690
 4.8100	 9.5570
 4.8150	 9.4520
 4.8190	 9.4320
 4.8240	 9.4880
 4.8280	 9.6390
 4.8330	 9.7020
 4.8370	 9.6680
 4.8420	 9.5540
 4.8460	 9.5300
 4.8510	 9.5360
 4.8550	 9.4860
 4.8600	 9.4450
 4.8640	 9.4830
 4.8690	 9.5250
 4.8730	 9.5680
 4.8780	 9.4950
 4.8830	 9.4550
 4.8870	 9.4540
 4.8920	 9.5150
 4.8960	 9.5250
 4.9010	 9.5380
 4.9060	 9.4780
 4.9100	 9.5270
 4.9150	 9.5250
 4.9200	 9.4650
 4.9240	 9.3930
 4.9290	 9.3760
 4.9340	 9.3610
 4.9380	 9.3820
 4.9430	 9.3080
 4.9480	 9.3220
 4.9530	 9.3200
 4.9570	 9.3600
 4.9620	 9.3280
 4.9670	 9.3640
 4.9720	 9.4010
 4.9760	 9.3890
 4.9810	 9.3630
 4.9860	 9.3980
 4.9910	 9.3140
 4.9960	 9.2850
 5.0000	 9.3140
 5.0050	 9.3580
 5.0100	 9.3870
 5.0150	 9.4570
 5.0200	 9.3960
 5.0250	 9.3390
 5.0290	 9.3010
 5.0340	 9.2780
 5.0390	 9.2650
 5.0440	 9.3000
 5.0490	 9.2420
 5.0540	 9.2480
 5.0590	 9.2770
 5.0640	 9.3790
 5.0690	 9.3390
 5.0740	 9.2680
 5.0790	 9.2920
 5.0840	 9.3810
 5.0890	 9.3450
 5.0940	 9.4270
 5.0990	 9.3500
 5.1040	 9.3570
 5.1090	 9.3530
 5.1140	 9.3800
 5.1190	 9.3780
 5.1240	 9.4040
 5.1290	 9.3200
 5.1340	 9.2640
 5.1390	 9.2820
 5.1440	 9.3910
 5.1490	 9.3600
 5.1540	 9.2520
 5.1600	 9.1690
 5.1650	 9.2800
 5.1700	 9.2650
 5.1750	 9.1850
 5.1800	 9.2160
 5.1850	 9.3340
 5.1910	 9.2730
 5.1960	 9.2390
 5.2010	 9.2550
 5.2060	 9.2180
 5.2110	 9.1360
 5.2170	 9.1740
 5.2220	 9.1690
 5.2270	 9.1030
 5.2320	 8.9920
 5.2380	 9.0040
 5.2430	 8.9660
 5.2480	 8.9930
 5.2540	 8.9890
 5.2590	 9.0370
 5.2640	 9.0080
 5.2700	 9.0290
 5.2750	 8.9140
 5.2800	 8.8870
 5.2860	 8.8820
 5.2910	 8.8420
 5.2970	 8.7210
 5.3020	 8.7200
 5.3070	 8.6960
 5.3130	 8.6680
 5.3180	 8.6590
 5.3240	 8.7210
 5.3290	 8.6740
 5.3350	 8.7090
 5.3400	 8.6730
 5.3460	 8.6170
 5.3510	 8.5500
 5.3570	 8.6680
 5.3620	 8.7130
 5.3680	 8.7010
 5.3730	 8.6260
 5.3790	 8.6360
 5.3850	 8.6270
 5.3900	 8.6740
 5.3960	 8.6640
 5.4010	 8.6480
 5.4070	 8.5870
 5.4130	 8.5760
 5.4180	 8.5510
 5.4240	 8.6490
 5.4300	 8.6480
 5.4350	 8.6240
 5.4410	 8.4760
 5.4470	 8.3840
 5.4530	 8.3780
 5.4580	 8.4100
 5.4640	 8.2820
 5.4700	 8.3330
 5.4760	 8.3170
 5.4810	 8.2390
 5.4870	 8.1950
 5.4930	 8.1690
 5.4990	 7.9950
 5.5050	 7.8980
 5.5110	 7.8060
 5.5160	 7.7900
 5.5220	 7.7500
 5.5280	 7.7220
 5.5340	 7.7290
 5.5400	 7.7330
 5.5460	 7.6170
 5.5520	 7.4840
 5.5580	 7.3280
 5.5640	 7.2890
 5.5700	 7.2360
 5.5760	 7.2480
 5.5820	 7.1960
 5.5880	 7.0890
 5.5940	 6.9350
 5.6000	 6.8410
 5.6060	 6.7140
 5.6120	 6.6800
 5.6180	 6.6570
 5.6240	 6.7220
 5.6300	 6.5840
 5.6360	 6.3650
 5.6420	 6.2000
 5.6490	 6.0830
 5.6550	 5.9590
 5.6610	 5.8900
 5.6670	 5.6510
 5.6730	 5.5300
 5.6800	 5.4350
 5.6860	 5.2990
 5.6920	 5.0830
 5.6980	 4.9980
 5.7040	 4.9190
 5.7110	 4.8210
 5.7170	 4.5760
 5.7230	 4.4890
 5.7300	 4.4610
 5.7360	 4.3980
 5.7420	 4.3790
 5.7490	 4.4690
 5.7550	 4.3590
 5.7620	 4.4200
 5.7680	 4.5830
 5.7740	 4.6760
 5.7810	 4.7420
 5.7870	 4.8950
 5.7940	 4.9480
 5.8000	 5.1470
 5.8070	 5.2070
 5.8130	 5.2570
 5.8200	 5.2840
 5.8260	 5.3730
 5.8330	 5.3730
 5.8390	 5.4090
 5.8460	 5.4970
 5.8530	 5.6940
 5.8590	 5.6850
 5.8660	 5.7870
 5.8720	 5.8470
 5.8790	 5.8950
 5.8860	 5.8690
 5.8920	 5.9000
 5.8990	 5.8650
 5.9060	 5.8460
 5.9130	 5.7970
 5.9190	 5.7310
 5.9260	 5.5910
 5.9330	 5.6540
 5.9400	 5.5980
 5.9470	 5.5140
 5.9530	 5.3840
 5.9600	 5.3520
 5.9670	 5.3760
 5.9740	 5.3820
 5.9810	 5.2170
 5.9880	 5.1470
 5.9950	 5.0560
 6.0020	 5.0890
 6.0090	 4.9520
 6.0160	 4.8830
 6.0230	 4.7500
 6.0300	 4.7600
 6.0370	 4.7460
 6.0440	 4.9450
 6.0510	 5.0640
 6.0580	 5.0250
 6.0650	 5.0440
 6.0720	 5.2410
 6.0790	 5.2090
 6.0860	 5.1470
 6.0930	 5.0600
 6.1000	 5.0360
 6.1080	 4.9190
 6.1150	 5.0800
 6.1220	 5.0620
 6.1290	 5.0340
 6.1370	 5.0030
 6.1440	 4.9970
 6.1510	 4.9670
 6.1580	 5.1400
 6.1660	 5.0140
 6.1730	 4.9940
 6.1800	 4.9650
 6.1880	 4.9250
 6.1950	 4.7740
 6.2030	 4.8450
 6.2100	 4.9720
 6.2170	 5.1150
 6.2250	 5.1300
 6.2320	 5.1660
 6.2400	 5.0970
 6.2470	 5.1510
 6.2550	 5.2130
 6.2630	 5.4000
 6.2700	 5.3670
 6.2780	 5.4670
 6.2850	 5.3760
 6.2930	 5.3770
 6.3010	 5.4130
 6.3080	 5.4880
 6.3160	 5.4760
 6.3240	 5.5630
 6.3310	 5.5060
 6.3390	 5.6150
 6.3470	 5.7560
 6.3550	 5.8060
 6.3620	 5.6430
 6.3700	 5.6510
 6.3780	 5.7360
 6.3860	 5.8350
 6.3940	 5.8540
 6.4020	 5.9400
 6.4100	 5.9290
 6.4180	 6.0420
 6.4260	 5.9650
 6.4330	 5.9280
 6.4410	 5.8120
 6.4490	 5.8470
 6.4580	 5.8200
 6.4660	 5.8740
 6.4740	 5.8460
 6.4820	 5.9230
 6.4900	 6.0310
 6.4980	 6.0640
 6.5060	 5.8300
 6.5140	 5.7740
 6.5230	 5.6440
 6.5310	 5.6800
 6.5390	 5.6450
 6.5470	 5.5530
 6.5550	 5.4470
 6.5640	 5.4900
 6.5720	 5.3860
 6.5800	 5.3090
 6.5890	 5.2020
 6.5970	 5.2160
 6.6060	 5.1630
 6.6140	 5.3740
 6.6220	 5.3720
 6.6310	 5.4170
 6.6390	 5.3510
 6.6480	 5.3400
 6.6560	 5.5220
 6.6650	 5.7190
 6.6740	 5.6420
 6.6820	 5.6450
 6.6910	 5.6420
 6.6990	 5.7580
 6.7080	 5.6410
 6.7170	 5.5760
 6.7260	 5.4010
 6.7340	 5.3720
 6.7430	 5.2550
 6.7520	 5.2990
 6.7610	 5.2110
 6.7690	 5.2710
 6.7780	 5.1990
 6.7870	 5.1000
 6.7960	 4.8660
 6.8050	 4.8470
 6.8140	 4.7190
 6.8230	 4.7960
 6.8320	 4.8540
 6.8410	 4.9670
 6.8500	 4.9100
 6.8590	 4.9290
 6.8680	 4.8060
 6.8770	 4.8280
 6.8860	 4.8090
 6.8950	 4.9110
 6.9050	 4.8290
 6.9140	 4.8440
 6.9230	 4.8230
 6.9320	 4.8110
 6.9420	 4.6360
 6.9510	 4.7580
 6.9600	 4.7320
 6.9700	 4.7650
 6.9790	 4.7580
 6.9880	 4.7810
 6.9980	 4.6720
 7.0070	 4.7800
 7.0170	 4.8260
 7.0260	 4.8550
 7.0360	 4.7380
 7.0450	 4.7540
 7.0550	 4.6230
 7.0650	 4.7150
 7.0740	 4.6300
 7.0840	 4.6980
 7.0940	 4.7340
 7.1030	 4.9650
 7.1130	 4.8710
 7.1230	 4.8000
 7.1330	 4.6900
 7.1420	 4.7050
 7.1520	 4.6680
 7.1620	 4.7400
 7.1720	 4.5860
 7.1820	 4.5450
 7.1920	 4.3760
 7.2020	 4.3540
 7.2120	 4.2630
 7.2220	 4.3320
 7.2320	 4.3630
 7.2420	 4.3900
 7.2520	 4.1600
 7.2620	 4.1550
 7.2730	 4.1680
 7.2830	 4.2900
 7.2930	 4.1540
 7.3030	 4.2800
 7.3140	 4.3270
 7.3240	 4.3510
 7.3340	 4.2630
 7.3450	 4.3950
 7.3550	 4.5020
 7.3660	 4.6520
 7.3760	 4.5220
 7.3870	 4.5670
 7.3970	 4.6060
 7.4080	 4.6390
 7.4180	 4.5410
 7.4290	 4.6290
 7.4400	 4.6100
 7.4500	 4.6340
 7.4610	 4.5680
 7.4720	 4.6690
 7.4830	 4.4780
 7.4930	 4.4920
 7.5040	 4.4500
 7.5150	 4.4240
 7.5260	 4.3750
 7.5370	 4.4420
 7.5480	 4.2670
 7.5590	 4.2750
 7.5700	 4.2280
 7.5810	 4.3050
 7.5920	 4.2510
 7.6030	 4.3480
 7.6140	 4.2680
 7.6260	 4.3020
 7.6370	 4.2950
 7.6480	 4.3790
 7.6590	 4.3090
 7.6710	 4.3810
 7.6820	 4.3410
 7.6930	 4.4470
 7.7050	 4.5170
 7.7160	 4.6170
 7.7280	 4.5630
 7.7390	 4.6880
 7.7510	 4.4760
 7.7630	 4.3270
 7.7740	 4.2510
 7.7860	 4.3240
 7.7980	 4.2170
 7.8090	 4.2380
 7.8210	 4.2100
 7.8330	 4.3680
 7.8450	 4.4100
 7.8570	 4.3910
 7.8690	 4.1740
 7.8810	 4.2300
 7.8930	 4.1650
 7.9050	 4.3570
 7.9170	 4.3460
 7.9290	 4.3200
 7.9410	 4.2370
 7.9530	 4.2900
 7.9650	 4.2600
 7.9780	 4.3020
 7.9900	 4.2320
 8.0020	 4.2990
 8.0150	 4.2680
 8.0270	 4.4200
 8.0390	 4.2580
 8.0520	 4.4300
 8.0640	 4.4520
 8.0770	 4.5350
 8.0900	 4.6820
 8.1020	 4.9310
 8.1150	 4.8900
 8.1280	 5.0590
 8.1400	 5.0060
 8.1530	 5.1060
 8.1660	 5.0420
 8.1790	 5.1780
 8.1920	 5.0650
 8.2050	 5.2020
 8.2180	 5.1740
 8.2310	 5.3870
 8.2440	 5.3890
 8.2570	 5.5540
 8.2700	 5.5310
 8.2830	 5.7220
 8.2970	 5.8010
 8.3100	 5.8960
 8.3230	 5.6290
 8.3370	 5.7200
 8.3500	 5.7080
 8.3640	 5.7670
 8.3770	 5.5920
 8.3910	 5.6240
 8.4040	 5.6170
 8.4180	 5.6990
 8.4320	 5.5900
 8.4450	 5.7310
 8.4590	 5.5740
 8.4730	 5.7690
 8.4870	 5.7990
 8.5010	 5.9430
 8.5150	 5.8530
 8.5290	 5.9390
 8.5430	 5.8990
 8.5570	 6.0610
 8.5710	 5.8770
 8.5850	 6.0530
 8.5990	 6.2790
 8.6140	 6.2770
 8.6280	 5.8250
 8.6420	 5.8300
 8.6570	 5.7260
 8.6710	 5.9850
 8.6860	 5.8310
 8.7000	 5.8960
 8.7150	 5.9590
 8.7300	 6.1060
 8.7440	 6.0600
 8.7590	 6.2850
 8.7740	 6.1120
 8.7890	 6.1180
 8.8040	 6.0480
 8.8190	 6.2370
 8.8340	 6.0610
 8.8490	 6.0200
 8.8640	 5.6040
 8.8790	 5.6810
 8.8940	 5.7000
 8.9100	 5.8470
 8.9250	 5.6160
 8.9400	 5.5330
 8.9560	 5.4520
 8.9710	 5.5400
 8.9870	 5.3630
 9.0020	 5.5180
 9.0180	 5.4600
 9.0340	 5.5740
 9.0500	 5.5130
 9.0650	 5.7350
 9.0810	 5.5740
 9.0970	 5.6290
 9.1130	 5.5690
 9.1290	 5.8240
 9.1450	 5.6480
 9.1610	 5.6980
 9.1780	 5.4920
 9.1940	 5.7110
 9.2100	 5.8410
 9.2270	 5.9780
 9.2430	 5.7830
 9.2600	 5.7570
 9.2760	 5.5260
 9.2930	 5.8290
 9.3090	 5.7580
 9.3260	 5.8500
 9.3430	 5.7640
 9.3600	 6.0280
 9.3770	 5.8330
 9.3940	 5.7640
 9.4110	 5.7530
 9.4280	 6.1500
 9.4450	 5.9630
 9.4620	 6.1690
 9.4800	 6.1410
 9.4970	 6.2700
 9.5140	 6.1840
 9.5320	 6.3610
 9.5500	 6.2660
 9.5670	 6.6010
 9.5850	 6.5390
 9.6030	 6.5320
 9.6200	 6.2280
 9.6380	 6.3690
 9.6560	 6.2890
 9.6740	 6.4630
 9.6920	 6.4570
 9.7100	 6.6920
 9.7290	 6.5380
 9.7470	 6.6730
 9.7650	 6.5560
 9.7840	 6.6390
 9.8020	 6.3770
 9.8210	 6.4450
 9.8390	 6.4030
 9.8580	 6.5670
 9.8770	 6.5610
 9.8960	 6.7170
 9.9150	 6.5740
 9.9340	 6.8200
 9.9530	 6.5930
 9.9720	 6.5610
 9.9910	 6.4450
10.0100	 6.5590
10.0300	 6.4550
10.0490	 6.5660
10.0690	 6.2700
10.0880	 6.3380
10.1080	 6.1910
10.1280	 6.3030
10.1480	 6.3270
10.1670	 6.7260
10.1870	 6.6670
10.2070	 6.7440
10.2280	 6.6300
10.2480	 6.7470
10.2680	 6.5310
10.2890	 6.4620
10.3090	 6.4310
10.3300	 6.6790
10.3500	 6.4160
10.3710	 6.5110
10.3920	 6.3740
10.4120	 6.3930
10.4330	 6.3760
10.4540	 6.8630
10.4760	 6.8150
10.4970	 6.9250
10.5180	 6.7490
10.5390	 6.8960
10.5610	 6.7500
10.5820	 6.8630
10.6040	 6.6520
10.6260	 6.5770
10.6480	 6.2070
10.6700	 6.4040
10.6920	 6.5220
10.7140	 6.5420
10.7360	 6.2750
10.7580	 6.6090
10.7800	 6.5500
10.8030	 6.6780
10.8250	 6.5260
10.8480	 6.4710
10.8710	 6.2450
10.8940	 6.4960
10.9170	 6.3060
10.9400	 6.2610
10.9630	 6.1310
10.9860	 6.5050
11.0090	 6.2490
11.0330	 6.2610
11.0560	 6.0930
11.0800	 6.2570
11.1040	 6.1180
11.1270	 6.2020
11.1510	 5.9020
11.1750	 6.1640
11.2000	 6.1810
11.2240	 6.4000
11.2480	 6.2690
11.2730	 6.3790
11.2970	 6.1480
11.3220	 6.2400
11.3470	 6.1920
11.3720	 6.3460
11.3970	 5.9610
11.4220	 6.1080
11.4470	 6.5230
11.4720	 7.3140
11.4980	 6.5180
11.5230	 6.1840
11.5490	 6.0230
11.5750	 6.0730
11.6000	 5.7820
11.6260	 6.0640
11.6530	 5.7310
11.6790	 5.6740
11.7050	 5.5280
11.7320	 5.7030
11.7580	 5.5170
11.7850	 5.7430
11.8120	 5.7520
11.8390	 5.7630
11.8660	 5.2980
11.8930	 5.4550
11.9200	 5.2250
11.9480	 5.4450
11.9760	 5.2540
12.0030	 5.4330
12.0310	 5.2630
12.0590	 5.2460
12.0870	 5.0760
12.1150	 5.2990
12.1440	 4.9250
12.1720	 4.9130
12.2010	 4.7890
12.2300	 5.2280
12.2590	 4.9240
12.2880	 5.0480
12.3170	 4.8190
12.3460	 5.2440
12.3760	 5.2850
12.4050	 5.5850
12.4350	 5.2090
12.4650	 5.1850
12.4950	 4.7950
12.5250	 5.0030
12.5550	 4.8240
12.5860	 5.0460
12.6170	 4.6990
12.6470	 5.0090
12.6780	 4.9570
12.7090	 5.0860
12.7410	 4.8340
12.7720	 5.2460
12.8030	 4.9930
12.8350	 4.9050
12.8670	 4.7590
12.8990	 5.1880
12.9310	 4.9450
12.9640	 5.1070
12.9960	 4.9460
13.0290	 5.0200
13.0610	 4.5850
13.0940	 4.8540
13.1280	 4.5680
13.1610	 4.9660
13.1940	 4.9430
13.2280	 4.9020
13.2620	 4.6330
13.2960	 4.8500
13.3300	 4.5710
13.3640	 4.9110
13.3990	 4.6470
13.4340	 4.8800
13.4690	 4.5510
13.5040	 4.7720
13.5390	 4.6060
13.5740	 4.9770
13.6100	 4.6420
13.6460	 4.8500
13.6820	 4.4830
13.7180	 4.5310
13.7540	 4.5020
13.7910	 4.9520
13.8280	 4.4610
13.8650	 4.7150
13.9020	 4.5540
13.9390	 4.6100
13.9770	 4.3280
14.0150	 4.7920
14.0530	 4.5730
14.0910	 4.9790
14.1290	 4.5010
14.1680	 4.8300
14.2070	 4.2760
14.2460	 4.4330
14.2850	 4.1980
14.3240	 4.6670
14.3640	 4.6760
14.4040	 5.0930
14.4440	 4.2860
14.4840	 4.1520
14.5250	 3.9170
14.5660	 4.6580
14.6070	 4.3890
14.6480	 5.2150
14.6900	 4.5730
14.7310	 4.6220
14.7730	 3.8010
14.8150	 4.3430
14.8580	 3.9830
14.9010	 4.3930
14.9440	 5.1550
14.9870	 6.7940
15.0300	 4.7510
15.0740	 4.7140
15.1180	 4.2820
15.1620	 5.4720
15.2060	 4.6040
15.2510	 4.8250
15.2960	 4.0800
15.3410	 4.9460
15.3870	 4.2550
