Name: Avena fatua
Type: vegetation
Class: grass
Genus: Avena
Species: fatua
Sample No.: VH353
Owner: UCSB
Wavelength Range: VSWIR
Origin: 34.5143; -119.798367; WGS84
Collection Date: 3/18/2015
Description: Samples were collected as part of the HyspIRI Airborne Campaign proposal titled: HyspIRI discrimination of plant species and functional types along a strong environmental temperature gradient. The same materials were processed in the Nicolet and then measured using the ASD.
Measurement: Bidirectional reflectance
First Column: X
Second Column: Y
X Units: Wavelength (micrometer)
Y Units: Reflectance (percentage)
First X Value: 0.35
Last X Value: 2.5
Number of X Values: 2151
Additional Information: 

 0.3500	 4.4740
 0.3510	 4.3010
 0.3520	 4.3290
 0.3530	 4.2720
 0.3540	 3.9950
 0.3550	 4.0130
 0.3560	 4.2020
 0.3570	 4.2840
 0.3580	 4.0130
 0.3590	 4.0530
 0.3600	 4.1460
 0.3610	 4.0930
 0.3620	 3.9010
 0.3630	 3.8940
 0.3640	 4.0530
 0.3650	 4.2110
 0.3660	 4.0510
 0.3670	 3.9720
 0.3680	 3.9940
 0.3690	 3.8860
 0.3700	 3.8830
 0.3710	 3.9610
 0.3720	 4.0390
 0.3730	 4.0020
 0.3740	 3.9580
 0.3750	 3.9210
 0.3760	 3.8890
 0.3770	 3.9130
 0.3780	 3.8850
 0.3790	 3.8450
 0.3800	 3.9440
 0.3810	 3.9870
 0.3820	 4.0040
 0.3830	 4.0260
 0.3840	 3.9910
 0.3850	 3.9120
 0.3860	 3.9030
 0.3870	 4.0550
 0.3880	 4.1020
 0.3890	 4.0600
 0.3900	 3.9960
 0.3910	 4.0110
 0.3920	 4.0700
 0.3930	 4.1060
 0.3940	 4.1020
 0.3950	 4.1900
 0.3960	 4.2170
 0.3970	 4.2140
 0.3980	 4.2850
 0.3990	 4.3950
 0.4000	 4.4670
 0.4010	 4.4930
 0.4020	 4.5630
 0.4030	 4.6130
 0.4040	 4.6770
 0.4050	 4.7860
 0.4060	 4.8760
 0.4070	 4.9350
 0.4080	 5.0010
 0.4090	 5.1360
 0.4100	 5.3070
 0.4110	 5.4420
 0.4120	 5.5170
 0.4130	 5.6000
 0.4140	 5.7260
 0.4150	 5.8580
 0.4160	 5.9530
 0.4170	 6.0830
 0.4180	 6.1870
 0.4190	 6.2700
 0.4200	 6.3950
 0.4210	 6.4820
 0.4220	 6.5730
 0.4230	 6.6930
 0.4240	 6.7690
 0.4250	 6.8250
 0.4260	 6.8870
 0.4270	 6.9730
 0.4280	 7.0490
 0.4290	 7.1050
 0.4300	 7.1520
 0.4310	 7.2210
 0.4320	 7.2810
 0.4330	 7.3240
 0.4340	 7.3570
 0.4350	 7.4150
 0.4360	 7.4480
 0.4370	 7.4760
 0.4380	 7.5630
 0.4390	 7.6290
 0.4400	 7.6680
 0.4410	 7.6910
 0.4420	 7.7150
 0.4430	 7.7530
 0.4440	 7.7990
 0.4450	 7.8370
 0.4460	 7.8620
 0.4470	 7.9090
 0.4480	 7.9740
 0.4490	 8.0020
 0.4500	 8.0260
 0.4510	 8.0640
 0.4520	 8.1130
 0.4530	 8.1180
 0.4540	 8.1450
 0.4550	 8.1960
 0.4560	 8.2290
 0.4570	 8.2610
 0.4580	 8.2780
 0.4590	 8.2770
 0.4600	 8.2880
 0.4610	 8.3150
 0.4620	 8.3350
 0.4630	 8.3280
 0.4640	 8.3460
 0.4650	 8.3630
 0.4660	 8.3690
 0.4670	 8.3780
 0.4680	 8.3840
 0.4690	 8.3880
 0.4700	 8.3890
 0.4710	 8.3660
 0.4720	 8.3690
 0.4730	 8.3920
 0.4740	 8.4050
 0.4750	 8.4010
 0.4760	 8.4020
 0.4770	 8.4150
 0.4780	 8.4240
 0.4790	 8.4380
 0.4800	 8.4490
 0.4810	 8.4480
 0.4820	 8.4600
 0.4830	 8.4770
 0.4840	 8.4910
 0.4850	 8.4990
 0.4860	 8.5260
 0.4870	 8.5620
 0.4880	 8.5940
 0.4890	 8.6230
 0.4900	 8.6690
 0.4910	 8.7250
 0.4920	 8.7730
 0.4930	 8.8340
 0.4940	 8.9010
 0.4950	 8.9700
 0.4960	 9.0430
 0.4970	 9.1440
 0.4980	 9.2510
 0.4990	 9.3450
 0.5000	 9.4560
 0.5010	 9.5860
 0.5020	 9.7320
 0.5030	 9.8920
 0.5040	10.0600
 0.5050	10.2350
 0.5060	10.4210
 0.5070	10.6330
 0.5080	10.8620
 0.5090	11.1020
 0.5100	11.3550
 0.5110	11.6350
 0.5120	11.9380
 0.5130	12.2540
 0.5140	12.5720
 0.5150	12.9090
 0.5160	13.2670
 0.5170	13.6390
 0.5180	14.0140
 0.5190	14.4060
 0.5200	14.8050
 0.5210	15.1900
 0.5220	15.5800
 0.5230	15.9620
 0.5240	16.3290
 0.5250	16.6950
 0.5260	17.0370
 0.5270	17.3590
 0.5280	17.6760
 0.5290	17.9560
 0.5300	18.2160
 0.5310	18.4620
 0.5320	18.6880
 0.5330	18.8910
 0.5340	19.0720
 0.5350	19.2370
 0.5360	19.3830
 0.5370	19.5130
 0.5380	19.6290
 0.5390	19.7340
 0.5400	19.8210
 0.5410	19.8970
 0.5420	19.9680
 0.5430	20.0290
 0.5440	20.0970
 0.5450	20.1750
 0.5460	20.2570
 0.5470	20.3290
 0.5480	20.3930
 0.5490	20.4500
 0.5500	20.4970
 0.5510	20.5210
 0.5520	20.5270
 0.5530	20.5260
 0.5540	20.5230
 0.5550	20.4970
 0.5560	20.4460
 0.5570	20.3830
 0.5580	20.3000
 0.5590	20.1890
 0.5600	20.0550
 0.5610	19.9300
 0.5620	19.7820
 0.5630	19.6190
 0.5640	19.4560
 0.5650	19.2880
 0.5660	19.1110
 0.5670	18.9210
 0.5680	18.7090
 0.5690	18.4910
 0.5700	18.2670
 0.5710	18.0370
 0.5720	17.8060
 0.5730	17.5830
 0.5740	17.3770
 0.5750	17.1940
 0.5760	17.0170
 0.5770	16.8440
 0.5780	16.6760
 0.5790	16.5190
 0.5800	16.3690
 0.5810	16.2270
 0.5820	16.0970
 0.5830	15.9790
 0.5840	15.8780
 0.5850	15.7860
 0.5860	15.6860
 0.5870	15.5550
 0.5880	15.4280
 0.5890	15.3340
 0.5900	15.2560
 0.5910	15.1760
 0.5920	15.1010
 0.5930	15.0440
 0.5940	14.9900
 0.5950	14.9450
 0.5960	14.9080
 0.5970	14.8650
 0.5980	14.8130
 0.5990	14.7590
 0.6000	14.7080
 0.6010	14.6540
 0.6020	14.5940
 0.6030	14.5290
 0.6040	14.4580
 0.6050	14.3780
 0.6060	14.2920
 0.6070	14.1990
 0.6080	14.0950
 0.6090	13.9830
 0.6100	13.8590
 0.6110	13.7240
 0.6120	13.6040
 0.6130	13.4960
 0.6140	13.3930
 0.6150	13.2840
 0.6160	13.1790
 0.6170	13.0780
 0.6180	12.9820
 0.6190	12.8920
 0.6200	12.8120
 0.6210	12.7440
 0.6220	12.6850
 0.6230	12.6290
 0.6240	12.5810
 0.6250	12.5440
 0.6260	12.5110
 0.6270	12.4870
 0.6280	12.4670
 0.6290	12.4440
 0.6300	12.4310
 0.6310	12.4120
 0.6320	12.3810
 0.6330	12.3480
 0.6340	12.3020
 0.6350	12.2370
 0.6360	12.1490
 0.6370	12.0520
 0.6380	11.9380
 0.6390	11.8080
 0.6400	11.6650
 0.6410	11.5140
 0.6420	11.3640
 0.6430	11.2160
 0.6440	11.0520
 0.6450	10.8970
 0.6460	10.7460
 0.6470	10.5960
 0.6480	10.4600
 0.6490	10.3380
 0.6500	10.2300
 0.6510	10.1340
 0.6520	10.0550
 0.6530	 9.9810
 0.6540	 9.9050
 0.6550	 9.8370
 0.6560	 9.7620
 0.6570	 9.6750
 0.6580	 9.5750
 0.6590	 9.4660
 0.6600	 9.3510
 0.6610	 9.2350
 0.6620	 9.1220
 0.6630	 9.0070
 0.6640	 8.8980
 0.6650	 8.7990
 0.6660	 8.7080
 0.6670	 8.6270
 0.6680	 8.5610
 0.6690	 8.5140
 0.6700	 8.4700
 0.6710	 8.4420
 0.6720	 8.4320
 0.6730	 8.4240
 0.6740	 8.4290
 0.6750	 8.4460
 0.6760	 8.4710
 0.6770	 8.4960
 0.6780	 8.5380
 0.6790	 8.5990
 0.6800	 8.6700
 0.6810	 8.7600
 0.6820	 8.8660
 0.6830	 8.9900
 0.6840	 9.1470
 0.6850	 9.3440
 0.6860	 9.5850
 0.6870	 9.8720
 0.6880	10.2310
 0.6890	10.6600
 0.6900	11.1620
 0.6910	11.7450
 0.6920	12.4080
 0.6930	13.1540
 0.6940	13.9820
 0.6950	14.8900
 0.6960	15.8640
 0.6970	16.8960
 0.6980	17.9780
 0.6990	19.1100
 0.7000	20.2700
 0.7010	21.4470
 0.7020	22.6350
 0.7030	23.8120
 0.7040	24.9800
 0.7050	26.1430
 0.7060	27.2950
 0.7070	28.4180
 0.7080	29.5080
 0.7090	30.5780
 0.7100	31.6390
 0.7110	32.6870
 0.7120	33.7160
 0.7130	34.7180
 0.7140	35.6920
 0.7150	36.6570
 0.7160	37.6210
 0.7170	38.5470
 0.7180	39.4380
 0.7190	40.3150
 0.7200	41.1960
 0.7210	42.0230
 0.7220	42.8290
 0.7230	43.6260
 0.7240	44.3940
 0.7250	45.1150
 0.7260	45.8110
 0.7270	46.4950
 0.7280	47.1350
 0.7290	47.7360
 0.7300	48.3140
 0.7310	48.8840
 0.7320	49.4060
 0.7330	49.8950
 0.7340	50.3550
 0.7350	50.7850
 0.7360	51.2160
 0.7370	51.6130
 0.7380	51.9540
 0.7390	52.2960
 0.7400	52.6050
 0.7410	52.8890
 0.7420	53.1650
 0.7430	53.4200
 0.7440	53.6340
 0.7450	53.8250
 0.7460	54.0360
 0.7470	54.1980
 0.7480	54.3400
 0.7490	54.4820
 0.7500	54.5840
 0.7510	54.6970
 0.7520	54.8050
 0.7530	54.8830
 0.7540	54.9860
 0.7550	55.0570
 0.7560	55.0920
 0.7570	55.1300
 0.7580	55.1850
 0.7590	55.2310
 0.7600	55.2560
 0.7610	55.2880
 0.7620	55.3160
 0.7630	55.3290
 0.7640	55.3260
 0.7650	55.3350
 0.7660	55.3500
 0.7670	55.3660
 0.7680	55.3710
 0.7690	55.3550
 0.7700	55.3510
 0.7710	55.3680
 0.7720	55.3690
 0.7730	55.3680
 0.7740	55.3510
 0.7750	55.3200
 0.7760	55.3350
 0.7770	55.3570
 0.7780	55.3650
 0.7790	55.3500
 0.7800	55.3480
 0.7810	55.3360
 0.7820	55.3170
 0.7830	55.3250
 0.7840	55.3270
 0.7850	55.3250
 0.7860	55.3250
 0.7870	55.3310
 0.7880	55.3150
 0.7890	55.3000
 0.7900	55.3110
 0.7910	55.3240
 0.7920	55.3310
 0.7930	55.3280
 0.7940	55.3150
 0.7950	55.3250
 0.7960	55.3320
 0.7970	55.3260
 0.7980	55.3380
 0.7990	55.3440
 0.8000	55.3240
 0.8010	55.2850
 0.8020	55.3080
 0.8030	55.3350
 0.8040	55.3400
 0.8050	55.3200
 0.8060	55.3250
 0.8070	55.3240
 0.8080	55.3170
 0.8090	55.3260
 0.8100	55.3130
 0.8110	55.3100
 0.8120	55.3280
 0.8130	55.3290
 0.8140	55.3220
 0.8150	55.3220
 0.8160	55.3320
 0.8170	55.3220
 0.8180	55.3260
 0.8190	55.3370
 0.8200	55.3280
 0.8210	55.3190
 0.8220	55.3200
 0.8230	55.3310
 0.8240	55.3430
 0.8250	55.3490
 0.8260	55.3450
 0.8270	55.3350
 0.8280	55.3350
 0.8290	55.3320
 0.8300	55.3260
 0.8310	55.3200
 0.8320	55.3200
 0.8330	55.3200
 0.8340	55.3240
 0.8350	55.3370
 0.8360	55.3580
 0.8370	55.3480
 0.8380	55.3230
 0.8390	55.3330
 0.8400	55.3240
 0.8410	55.3340
 0.8420	55.3700
 0.8430	55.3710
 0.8440	55.3800
 0.8450	55.3820
 0.8460	55.3660
 0.8470	55.3470
 0.8480	55.3630
 0.8490	55.3980
 0.8500	55.4170
 0.8510	55.3880
 0.8520	55.3750
 0.8530	55.3910
 0.8540	55.4130
 0.8550	55.4110
 0.8560	55.4100
 0.8570	55.4210
 0.8580	55.4360
 0.8590	55.4430
 0.8600	55.4460
 0.8610	55.4410
 0.8620	55.4050
 0.8630	55.4160
 0.8640	55.4500
 0.8650	55.4630
 0.8660	55.4420
 0.8670	55.4340
 0.8680	55.4440
 0.8690	55.4530
 0.8700	55.4370
 0.8710	55.4440
 0.8720	55.4610
 0.8730	55.4490
 0.8740	55.4410
 0.8750	55.4360
 0.8760	55.4380
 0.8770	55.4520
 0.8780	55.4410
 0.8790	55.4200
 0.8800	55.4120
 0.8810	55.4290
 0.8820	55.4250
 0.8830	55.4250
 0.8840	55.4380
 0.8850	55.3930
 0.8860	55.3790
 0.8870	55.3910
 0.8880	55.3990
 0.8890	55.4030
 0.8900	55.3760
 0.8910	55.3580
 0.8920	55.3910
 0.8930	55.3840
 0.8940	55.3710
 0.8950	55.3560
 0.8960	55.3290
 0.8970	55.3180
 0.8980	55.3450
 0.8990	55.3810
 0.9000	55.3600
 0.9010	55.3610
 0.9020	55.3490
 0.9030	55.3190
 0.9040	55.3200
 0.9050	55.2910
 0.9060	55.2720
 0.9070	55.2880
 0.9080	55.2890
 0.9090	55.2880
 0.9100	55.2740
 0.9110	55.2470
 0.9120	55.2450
 0.9130	55.2310
 0.9140	55.2090
 0.9150	55.1990
 0.9160	55.2290
 0.9170	55.2150
 0.9180	55.1760
 0.9190	55.1680
 0.9200	55.1680
 0.9210	55.1500
 0.9220	55.1190
 0.9230	55.0960
 0.9240	55.0720
 0.9250	55.0630
 0.9260	55.0570
 0.9270	55.0260
 0.9280	54.9920
 0.9290	54.9660
 0.9300	54.9350
 0.9310	54.8740
 0.9320	54.8600
 0.9330	54.8400
 0.9340	54.7960
 0.9350	54.7740
 0.9360	54.7540
 0.9370	54.7140
 0.9380	54.6590
 0.9390	54.6290
 0.9400	54.5710
 0.9410	54.5180
 0.9420	54.4880
 0.9430	54.4510
 0.9440	54.3800
 0.9450	54.3040
 0.9460	54.2500
 0.9470	54.2080
 0.9480	54.1490
 0.9490	54.0610
 0.9500	53.9570
 0.9510	53.8760
 0.9520	53.8030
 0.9530	53.7370
 0.9540	53.6690
 0.9550	53.5540
 0.9560	53.4740
 0.9570	53.4260
 0.9580	53.3690
 0.9590	53.2590
 0.9600	53.1660
 0.9610	53.1200
 0.9620	53.1110
 0.9630	53.0600
 0.9640	53.0150
 0.9650	52.9970
 0.9660	53.0080
 0.9670	53.0180
 0.9680	52.9870
 0.9690	52.9420
 0.9700	52.9250
 0.9710	52.9080
 0.9720	52.9090
 0.9730	52.9260
 0.9740	52.9410
 0.9750	52.9180
 0.9760	52.9130
 0.9770	52.9120
 0.9780	52.8870
 0.9790	52.9110
 0.9800	52.9400
 0.9810	52.9600
 0.9820	52.9730
 0.9830	52.9740
 0.9840	52.9980
 0.9850	53.0600
 0.9860	53.1400
 0.9870	53.1440
 0.9880	53.1140
 0.9890	53.0930
 0.9900	53.1150
 0.9910	53.1660
 0.9920	53.1920
 0.9930	53.1960
 0.9940	53.2190
 0.9950	53.3020
 0.9960	53.3530
 0.9970	53.3780
 0.9980	53.4140
 0.9990	53.4060
 1.0000	53.3660
 1.0010	53.2590
 1.0020	53.2390
 1.0030	53.2760
 1.0040	53.3110
 1.0050	53.3380
 1.0060	53.3720
 1.0070	53.4180
 1.0080	53.4520
 1.0090	53.4810
 1.0100	53.5110
 1.0110	53.5360
 1.0120	53.5640
 1.0130	53.5980
 1.0140	53.6280
 1.0150	53.6590
 1.0160	53.6810
 1.0170	53.7070
 1.0180	53.7260
 1.0190	53.7540
 1.0200	53.7970
 1.0210	53.8320
 1.0220	53.8680
 1.0230	53.8960
 1.0240	53.9110
 1.0250	53.9370
 1.0260	53.9690
 1.0270	53.9960
 1.0280	54.0280
 1.0290	54.0560
 1.0300	54.0770
 1.0310	54.1010
 1.0320	54.1260
 1.0330	54.1480
 1.0340	54.1700
 1.0350	54.1900
 1.0360	54.2020
 1.0370	54.2200
 1.0380	54.2340
 1.0390	54.2430
 1.0400	54.2570
 1.0410	54.2770
 1.0420	54.2900
 1.0430	54.3020
 1.0440	54.3150
 1.0450	54.3220
 1.0460	54.3330
 1.0470	54.3480
 1.0480	54.3590
 1.0490	54.3650
 1.0500	54.3740
 1.0510	54.3810
 1.0520	54.3860
 1.0530	54.3950
 1.0540	54.4060
 1.0550	54.4160
 1.0560	54.4270
 1.0570	54.4370
 1.0580	54.4430
 1.0590	54.4530
 1.0600	54.4670
 1.0610	54.4760
 1.0620	54.4880
 1.0630	54.4970
 1.0640	54.5000
 1.0650	54.5040
 1.0660	54.5050
 1.0670	54.5080
 1.0680	54.5100
 1.0690	54.5130
 1.0700	54.5120
 1.0710	54.5100
 1.0720	54.5100
 1.0730	54.5080
 1.0740	54.5070
 1.0750	54.5060
 1.0760	54.5080
 1.0770	54.5100
 1.0780	54.5110
 1.0790	54.5130
 1.0800	54.5130
 1.0810	54.5090
 1.0820	54.5050
 1.0830	54.5000
 1.0840	54.4950
 1.0850	54.4870
 1.0860	54.4810
 1.0870	54.4750
 1.0880	54.4670
 1.0890	54.4600
 1.0900	54.4530
 1.0910	54.4460
 1.0920	54.4380
 1.0930	54.4330
 1.0940	54.4320
 1.0950	54.4240
 1.0960	54.4140
 1.0970	54.4030
 1.0980	54.3830
 1.0990	54.3670
 1.1000	54.3530
 1.1010	54.3360
 1.1020	54.3120
 1.1030	54.2940
 1.1040	54.2790
 1.1050	54.2650
 1.1060	54.2470
 1.1070	54.2330
 1.1080	54.2150
 1.1090	54.1940
 1.1100	54.1700
 1.1110	54.1450
 1.1120	54.1180
 1.1130	54.0840
 1.1140	54.0550
 1.1150	54.0340
 1.1160	54.0000
 1.1170	53.9590
 1.1180	53.9200
 1.1190	53.8760
 1.1200	53.8290
 1.1210	53.7890
 1.1220	53.7460
 1.1230	53.6970
 1.1240	53.6410
 1.1250	53.5750
 1.1260	53.5010
 1.1270	53.4220
 1.1280	53.3370
 1.1290	53.2410
 1.1300	53.1410
 1.1310	53.0280
 1.1320	52.8990
 1.1330	52.7670
 1.1340	52.6270
 1.1350	52.4780
 1.1360	52.3210
 1.1370	52.1590
 1.1380	51.9800
 1.1390	51.7940
 1.1400	51.6040
 1.1410	51.4070
 1.1420	51.2070
 1.1430	51.0110
 1.1440	50.8160
 1.1450	50.6140
 1.1460	50.4290
 1.1470	50.2490
 1.1480	50.0790
 1.1490	49.9170
 1.1500	49.7680
 1.1510	49.6290
 1.1520	49.5020
 1.1530	49.3880
 1.1540	49.2850
 1.1550	49.1920
 1.1560	49.1130
 1.1570	49.0470
 1.1580	48.9920
 1.1590	48.9460
 1.1600	48.9090
 1.1610	48.8780
 1.1620	48.8520
 1.1630	48.8300
 1.1640	48.8120
 1.1650	48.7950
 1.1660	48.7820
 1.1670	48.7710
 1.1680	48.7620
 1.1690	48.7560
 1.1700	48.7560
 1.1710	48.7540
 1.1720	48.7520
 1.1730	48.7510
 1.1740	48.7520
 1.1750	48.7550
 1.1760	48.7520
 1.1770	48.7520
 1.1780	48.7570
 1.1790	48.7550
 1.1800	48.7560
 1.1810	48.7610
 1.1820	48.7520
 1.1830	48.7400
 1.1840	48.7310
 1.1850	48.7220
 1.1860	48.7140
 1.1870	48.7090
 1.1880	48.7030
 1.1890	48.6940
 1.1900	48.6870
 1.1910	48.6800
 1.1920	48.6780
 1.1930	48.6780
 1.1940	48.6810
 1.1950	48.6870
 1.1960	48.6930
 1.1970	48.7010
 1.1980	48.7050
 1.1990	48.7120
 1.2000	48.7240
 1.2010	48.7350
 1.2020	48.7500
 1.2030	48.7670
 1.2040	48.7810
 1.2050	48.7960
 1.2060	48.8150
 1.2070	48.8320
 1.2080	48.8520
 1.2090	48.8760
 1.2100	48.9000
 1.2110	48.9260
 1.2120	48.9560
 1.2130	48.9820
 1.2140	49.0050
 1.2150	49.0320
 1.2160	49.0580
 1.2170	49.0840
 1.2180	49.1160
 1.2190	49.1430
 1.2200	49.1690
 1.2210	49.1970
 1.2220	49.2240
 1.2230	49.2500
 1.2240	49.2770
 1.2250	49.3080
 1.2260	49.3400
 1.2270	49.3680
 1.2280	49.3930
 1.2290	49.4180
 1.2300	49.4440
 1.2310	49.4710
 1.2320	49.4960
 1.2330	49.5230
 1.2340	49.5490
 1.2350	49.5730
 1.2360	49.5970
 1.2370	49.6230
 1.2380	49.6460
 1.2390	49.6650
 1.2400	49.6860
 1.2410	49.7040
 1.2420	49.7230
 1.2430	49.7450
 1.2440	49.7640
 1.2450	49.7850
 1.2460	49.8060
 1.2470	49.8220
 1.2480	49.8340
 1.2490	49.8510
 1.2500	49.8650
 1.2510	49.8800
 1.2520	49.8990
 1.2530	49.9150
 1.2540	49.9300
 1.2550	49.9420
 1.2560	49.9500
 1.2570	49.9570
 1.2580	49.9620
 1.2590	49.9660
 1.2600	49.9700
 1.2610	49.9710
 1.2620	49.9710
 1.2630	49.9690
 1.2640	49.9660
 1.2650	49.9620
 1.2660	49.9620
 1.2670	49.9620
 1.2680	49.9630
 1.2690	49.9600
 1.2700	49.9470
 1.2710	49.9330
 1.2720	49.9150
 1.2730	49.8970
 1.2740	49.8850
 1.2750	49.8660
 1.2760	49.8420
 1.2770	49.8150
 1.2780	49.7840
 1.2790	49.7520
 1.2800	49.7190
 1.2810	49.6940
 1.2820	49.6660
 1.2830	49.6360
 1.2840	49.6020
 1.2850	49.5590
 1.2860	49.5160
 1.2870	49.4740
 1.2880	49.4310
 1.2890	49.3920
 1.2900	49.3550
 1.2910	49.3130
 1.2920	49.2680
 1.2930	49.2180
 1.2940	49.1680
 1.2950	49.1140
 1.2960	49.0580
 1.2970	49.0060
 1.2980	48.9470
 1.2990	48.8930
 1.3000	48.8390
 1.3010	48.7740
 1.3020	48.7040
 1.3030	48.6300
 1.3040	48.5480
 1.3050	48.4650
 1.3060	48.3780
 1.3070	48.2860
 1.3080	48.1910
 1.3090	48.0940
 1.3100	47.9940
 1.3110	47.8880
 1.3120	47.7740
 1.3130	47.6530
 1.3140	47.5290
 1.3150	47.3990
 1.3160	47.2680
 1.3170	47.1360
 1.3180	47.0000
 1.3190	46.8600
 1.3200	46.7160
 1.3210	46.5650
 1.3220	46.4100
 1.3230	46.2490
 1.3240	46.0830
 1.3250	45.9160
 1.3260	45.7440
 1.3270	45.5690
 1.3280	45.3890
 1.3290	45.2050
 1.3300	45.0220
 1.3310	44.8380
 1.3320	44.6540
 1.3330	44.4710
 1.3340	44.2850
 1.3350	44.0980
 1.3360	43.9090
 1.3370	43.7140
 1.3380	43.5240
 1.3390	43.3350
 1.3400	43.1440
 1.3410	42.9610
 1.3420	42.7790
 1.3430	42.5960
 1.3440	42.4140
 1.3450	42.2330
 1.3460	42.0510
 1.3470	41.8710
 1.3480	41.6920
 1.3490	41.5170
 1.3500	41.3450
 1.3510	41.1710
 1.3520	40.9990
 1.3530	40.8290
 1.3540	40.6580
 1.3550	40.4840
 1.3560	40.3100
 1.3570	40.1380
 1.3580	39.9600
 1.3590	39.7830
 1.3600	39.6010
 1.3610	39.4070
 1.3620	39.2070
 1.3630	39.0000
 1.3640	38.7820
 1.3650	38.5580
 1.3660	38.3250
 1.3670	38.0770
 1.3680	37.8170
 1.3690	37.5430
 1.3700	37.2470
 1.3710	36.9340
 1.3720	36.6040
 1.3730	36.2510
 1.3740	35.8800
 1.3750	35.4880
 1.3760	35.0690
 1.3770	34.6230
 1.3780	34.1490
 1.3790	33.6500
 1.3800	33.1230
 1.3810	32.5680
 1.3820	31.9950
 1.3830	31.3970
 1.3840	30.7840
 1.3850	30.1520
 1.3860	29.5100
 1.3870	28.8440
 1.3880	28.1830
 1.3890	27.5110
 1.3900	26.8360
 1.3910	26.1710
 1.3920	25.5070
 1.3930	24.8480
 1.3940	24.2030
 1.3950	23.5600
 1.3960	22.9350
 1.3970	22.3300
 1.3980	21.7400
 1.3990	21.1810
 1.4000	20.6460
 1.4010	20.1340
 1.4020	19.6510
 1.4030	19.1920
 1.4040	18.7600
 1.4050	18.3550
 1.4060	17.9750
 1.4070	17.6230
 1.4080	17.2980
 1.4090	16.9940
 1.4100	16.7150
 1.4110	16.4550
 1.4120	16.2140
 1.4130	15.9930
 1.4140	15.7890
 1.4150	15.6050
 1.4160	15.4380
 1.4170	15.2850
 1.4180	15.1470
 1.4190	15.0200
 1.4200	14.9030
 1.4210	14.7970
 1.4220	14.7010
 1.4230	14.6170
 1.4240	14.5400
 1.4250	14.4710
 1.4260	14.4140
 1.4270	14.3600
 1.4280	14.3120
 1.4290	14.2700
 1.4300	14.2350
 1.4310	14.2040
 1.4320	14.1800
 1.4330	14.1600
 1.4340	14.1450
 1.4350	14.1330
 1.4360	14.1270
 1.4370	14.1230
 1.4380	14.1220
 1.4390	14.1270
 1.4400	14.1330
 1.4410	14.1410
 1.4420	14.1520
 1.4430	14.1650
 1.4440	14.1770
 1.4450	14.1910
 1.4460	14.2040
 1.4470	14.2200
 1.4480	14.2390
 1.4490	14.2610
 1.4500	14.2860
 1.4510	14.3110
 1.4520	14.3350
 1.4530	14.3610
 1.4540	14.3880
 1.4550	14.4190
 1.4560	14.4540
 1.4570	14.4910
 1.4580	14.5330
 1.4590	14.5790
 1.4600	14.6290
 1.4610	14.6810
 1.4620	14.7370
 1.4630	14.7990
 1.4640	14.8640
 1.4650	14.9360
 1.4660	15.0130
 1.4670	15.0940
 1.4680	15.1820
 1.4690	15.2740
 1.4700	15.3710
 1.4710	15.4750
 1.4720	15.5810
 1.4730	15.6910
 1.4740	15.8030
 1.4750	15.9180
 1.4760	16.0380
 1.4770	16.1600
 1.4780	16.2830
 1.4790	16.4090
 1.4800	16.5360
 1.4810	16.6650
 1.4820	16.7990
 1.4830	16.9350
 1.4840	17.0710
 1.4850	17.2080
 1.4860	17.3460
 1.4870	17.4840
 1.4880	17.6240
 1.4890	17.7660
 1.4900	17.9090
 1.4910	18.0550
 1.4920	18.2010
 1.4930	18.3470
 1.4940	18.4950
 1.4950	18.6420
 1.4960	18.7910
 1.4970	18.9420
 1.4980	19.0920
 1.4990	19.2410
 1.5000	19.3930
 1.5010	19.5470
 1.5020	19.7000
 1.5030	19.8560
 1.5040	20.0100
 1.5050	20.1620
 1.5060	20.3150
 1.5070	20.4670
 1.5080	20.6200
 1.5090	20.7730
 1.5100	20.9290
 1.5110	21.0840
 1.5120	21.2380
 1.5130	21.3910
 1.5140	21.5410
 1.5150	21.6930
 1.5160	21.8450
 1.5170	21.9980
 1.5180	22.1500
 1.5190	22.3010
 1.5200	22.4510
 1.5210	22.5990
 1.5220	22.7460
 1.5230	22.8930
 1.5240	23.0410
 1.5250	23.1860
 1.5260	23.3300
 1.5270	23.4750
 1.5280	23.6190
 1.5290	23.7620
 1.5300	23.9070
 1.5310	24.0500
 1.5320	24.1920
 1.5330	24.3350
 1.5340	24.4760
 1.5350	24.6170
 1.5360	24.7560
 1.5370	24.8910
 1.5380	25.0270
 1.5390	25.1640
 1.5400	25.2970
 1.5410	25.4310
 1.5420	25.5640
 1.5430	25.6930
 1.5440	25.8220
 1.5450	25.9500
 1.5460	26.0750
 1.5470	26.2020
 1.5480	26.3260
 1.5490	26.4500
 1.5500	26.5730
 1.5510	26.6930
 1.5520	26.8160
 1.5530	26.9400
 1.5540	27.0610
 1.5550	27.1830
 1.5560	27.3030
 1.5570	27.4210
 1.5580	27.5370
 1.5590	27.6510
 1.5600	27.7630
 1.5610	27.8710
 1.5620	27.9800
 1.5630	28.0890
 1.5640	28.1950
 1.5650	28.3040
 1.5660	28.4130
 1.5670	28.5210
 1.5680	28.6300
 1.5690	28.7340
 1.5700	28.8340
 1.5710	28.9330
 1.5720	29.0300
 1.5730	29.1270
 1.5740	29.2250
 1.5750	29.3200
 1.5760	29.4160
 1.5770	29.5100
 1.5780	29.6010
 1.5790	29.6960
 1.5800	29.7910
 1.5810	29.8840
 1.5820	29.9770
 1.5830	30.0680
 1.5840	30.1550
 1.5850	30.2400
 1.5860	30.3290
 1.5870	30.4170
 1.5880	30.5060
 1.5890	30.5940
 1.5900	30.6790
 1.5910	30.7650
 1.5920	30.8500
 1.5930	30.9340
 1.5940	31.0210
 1.5950	31.1050
 1.5960	31.1890
 1.5970	31.2730
 1.5980	31.3530
 1.5990	31.4290
 1.6000	31.5030
 1.6010	31.5740
 1.6020	31.6480
 1.6030	31.7230
 1.6040	31.8000
 1.6050	31.8770
 1.6060	31.9500
 1.6070	32.0230
 1.6080	32.0950
 1.6090	32.1650
 1.6100	32.2370
 1.6110	32.3100
 1.6120	32.3780
 1.6130	32.4460
 1.6140	32.5140
 1.6150	32.5800
 1.6160	32.6490
 1.6170	32.7170
 1.6180	32.7800
 1.6190	32.8420
 1.6200	32.9020
 1.6210	32.9610
 1.6220	33.0220
 1.6230	33.0810
 1.6240	33.1410
 1.6250	33.2010
 1.6260	33.2550
 1.6270	33.3100
 1.6280	33.3660
 1.6290	33.4200
 1.6300	33.4740
 1.6310	33.5240
 1.6320	33.5700
 1.6330	33.6140
 1.6340	33.6560
 1.6350	33.6980
 1.6360	33.7370
 1.6370	33.7780
 1.6380	33.8220
 1.6390	33.8640
 1.6400	33.9070
 1.6410	33.9490
 1.6420	33.9880
 1.6430	34.0280
 1.6440	34.0700
 1.6450	34.1120
 1.6460	34.1520
 1.6470	34.1870
 1.6480	34.2180
 1.6490	34.2460
 1.6500	34.2700
 1.6510	34.2950
 1.6520	34.3200
 1.6530	34.3420
 1.6540	34.3620
 1.6550	34.3850
 1.6560	34.4050
 1.6570	34.4260
 1.6580	34.4470
 1.6590	34.4620
 1.6600	34.4770
 1.6610	34.4890
 1.6620	34.4970
 1.6630	34.5070
 1.6640	34.5140
 1.6650	34.5190
 1.6660	34.5270
 1.6670	34.5330
 1.6680	34.5340
 1.6690	34.5360
 1.6700	34.5350
 1.6710	34.5320
 1.6720	34.5280
 1.6730	34.5200
 1.6740	34.5100
 1.6750	34.4990
 1.6760	34.4830
 1.6770	34.4640
 1.6780	34.4440
 1.6790	34.4190
 1.6800	34.3910
 1.6810	34.3650
 1.6820	34.3340
 1.6830	34.3000
 1.6840	34.2690
 1.6850	34.2340
 1.6860	34.1980
 1.6870	34.1630
 1.6880	34.1260
 1.6890	34.0900
 1.6900	34.0510
 1.6910	34.0130
 1.6920	33.9720
 1.6930	33.9270
 1.6940	33.8850
 1.6950	33.8430
 1.6960	33.8030
 1.6970	33.7670
 1.6980	33.7270
 1.6990	33.6870
 1.7000	33.6450
 1.7010	33.6000
 1.7020	33.5540
 1.7030	33.5070
 1.7040	33.4610
 1.7050	33.4130
 1.7060	33.3660
 1.7070	33.3200
 1.7080	33.2700
 1.7090	33.2190
 1.7100	33.1670
 1.7110	33.1130
 1.7120	33.0560
 1.7130	32.9970
 1.7140	32.9330
 1.7150	32.8720
 1.7160	32.8130
 1.7170	32.7490
 1.7180	32.6890
 1.7190	32.6310
 1.7200	32.5640
 1.7210	32.4970
 1.7220	32.4310
 1.7230	32.3610
 1.7240	32.2990
 1.7250	32.2400
 1.7260	32.1750
 1.7270	32.1130
 1.7280	32.0500
 1.7290	31.9820
 1.7300	31.9160
 1.7310	31.8480
 1.7320	31.7790
 1.7330	31.7080
 1.7340	31.6330
 1.7350	31.5600
 1.7360	31.4860
 1.7370	31.4130
 1.7380	31.3440
 1.7390	31.2710
 1.7400	31.1960
 1.7410	31.1180
 1.7420	31.0360
 1.7430	30.9520
 1.7440	30.8640
 1.7450	30.7740
 1.7460	30.6820
 1.7470	30.5860
 1.7480	30.4870
 1.7490	30.3880
 1.7500	30.2850
 1.7510	30.1850
 1.7520	30.0860
 1.7530	29.9870
 1.7540	29.8870
 1.7550	29.7860
 1.7560	29.6860
 1.7570	29.5840
 1.7580	29.4890
 1.7590	29.3980
 1.7600	29.3100
 1.7610	29.2250
 1.7620	29.1370
 1.7630	29.0440
 1.7640	28.9570
 1.7650	28.8730
 1.7660	28.7910
 1.7670	28.7140
 1.7680	28.6370
 1.7690	28.5600
 1.7700	28.4860
 1.7710	28.4120
 1.7720	28.3420
 1.7730	28.2770
 1.7740	28.2140
 1.7750	28.1540
 1.7760	28.0950
 1.7770	28.0380
 1.7780	27.9840
 1.7790	27.9330
 1.7800	27.8830
 1.7810	27.8350
 1.7820	27.7890
 1.7830	27.7440
 1.7840	27.7020
 1.7850	27.6630
 1.7860	27.6270
 1.7870	27.5920
 1.7880	27.5610
 1.7890	27.5380
 1.7900	27.5260
 1.7910	27.5110
 1.7920	27.5000
 1.7930	27.4870
 1.7940	27.4660
 1.7950	27.4540
 1.7960	27.4480
 1.7970	27.4400
 1.7980	27.4350
 1.7990	27.4290
 1.8000	27.4150
 1.8010	27.4090
 1.8020	27.4100
 1.8030	27.4050
 1.8040	27.4000
 1.8050	27.3950
 1.8060	27.3840
 1.8070	27.3780
 1.8080	27.3750
 1.8090	27.3710
 1.8100	27.3690
 1.8110	27.3620
 1.8120	27.3550
 1.8130	27.3470
 1.8140	27.3380
 1.8150	27.3360
 1.8160	27.3300
 1.8170	27.3180
 1.8180	27.3060
 1.8190	27.2900
 1.8200	27.2700
 1.8210	27.2450
 1.8220	27.2220
 1.8230	27.1950
 1.8240	27.1700
 1.8250	27.1530
 1.8260	27.1290
 1.8270	27.1000
 1.8280	27.0710
 1.8290	27.0380
 1.8300	27.1160
 1.8310	27.3420
 1.8320	27.4020
 1.8330	27.3370
 1.8340	27.2680
 1.8350	27.2020
 1.8360	27.1260
 1.8370	27.0480
 1.8380	26.9670
 1.8390	26.8740
 1.8400	26.7740
 1.8410	26.6670
 1.8420	26.5520
 1.8430	26.4270
 1.8440	26.2930
 1.8450	26.1580
 1.8460	26.0140
 1.8470	25.8520
 1.8480	25.6830
 1.8490	25.4970
 1.8500	25.3010
 1.8510	25.0910
 1.8520	24.8790
 1.8530	24.6510
 1.8540	24.4070
 1.8550	24.1390
 1.8560	23.8510
 1.8570	23.5490
 1.8580	23.2270
 1.8590	22.8920
 1.8600	22.5410
 1.8610	22.1740
 1.8620	21.7890
 1.8630	21.3890
 1.8640	20.9770
 1.8650	20.5500
 1.8660	20.1080
 1.8670	19.6500
 1.8680	19.1800
 1.8690	18.6900
 1.8700	18.1880
 1.8710	17.6720
 1.8720	17.1510
 1.8730	16.6200
 1.8740	16.0820
 1.8750	15.5440
 1.8760	15.0050
 1.8770	14.4690
 1.8780	13.9400
 1.8790	13.4130
 1.8800	12.9030
 1.8810	12.4030
 1.8820	11.9120
 1.8830	11.4300
 1.8840	10.9620
 1.8850	10.4990
 1.8860	10.0500
 1.8870	 9.6240
 1.8880	 9.2190
 1.8890	 8.8380
 1.8900	 8.4740
 1.8910	 8.1330
 1.8920	 7.8130
 1.8930	 7.5140
 1.8940	 7.2340
 1.8950	 6.9810
 1.8960	 6.7460
 1.8970	 6.5290
 1.8980	 6.3330
 1.8990	 6.1530
 1.9000	 5.9900
 1.9010	 5.8480
 1.9020	 5.7160
 1.9030	 5.6010
 1.9040	 5.5000
 1.9050	 5.4050
 1.9060	 5.3200
 1.9070	 5.2430
 1.9080	 5.1720
 1.9090	 5.1120
 1.9100	 5.0600
 1.9110	 5.0130
 1.9120	 4.9740
 1.9130	 4.9380
 1.9140	 4.9080
 1.9150	 4.8820
 1.9160	 4.8640
 1.9170	 4.8470
 1.9180	 4.8300
 1.9190	 4.8190
 1.9200	 4.8050
 1.9210	 4.7930
 1.9220	 4.7870
 1.9230	 4.7850
 1.9240	 4.7840
 1.9250	 4.7870
 1.9260	 4.7910
 1.9270	 4.7920
 1.9280	 4.7980
 1.9290	 4.8060
 1.9300	 4.8180
 1.9310	 4.8330
 1.9320	 4.8480
 1.9330	 4.8650
 1.9340	 4.8840
 1.9350	 4.9020
 1.9360	 4.9180
 1.9370	 4.9390
 1.9380	 4.9610
 1.9390	 4.9820
 1.9400	 5.0080
 1.9410	 5.0370
 1.9420	 5.0640
 1.9430	 5.0940
 1.9440	 5.1240
 1.9450	 5.1570
 1.9460	 5.1900
 1.9470	 5.2250
 1.9480	 5.2600
 1.9490	 5.2990
 1.9500	 5.3350
 1.9510	 5.3700
 1.9520	 5.4050
 1.9530	 5.4410
 1.9540	 5.4820
 1.9550	 5.5220
 1.9560	 5.5660
 1.9570	 5.6080
 1.9580	 5.6470
 1.9590	 5.6900
 1.9600	 5.7360
 1.9610	 5.7810
 1.9620	 5.8260
 1.9630	 5.8750
 1.9640	 5.9260
 1.9650	 5.9730
 1.9660	 6.0240
 1.9670	 6.0780
 1.9680	 6.1310
 1.9690	 6.1840
 1.9700	 6.2360
 1.9710	 6.2880
 1.9720	 6.3410
 1.9730	 6.3920
 1.9740	 6.4450
 1.9750	 6.5020
 1.9760	 6.5570
 1.9770	 6.6130
 1.9780	 6.6700
 1.9790	 6.7310
 1.9800	 6.7950
 1.9810	 6.8580
 1.9820	 6.9260
 1.9830	 6.9910
 1.9840	 7.0540
 1.9850	 7.1170
 1.9860	 7.1780
 1.9870	 7.2410
 1.9880	 7.3030
 1.9890	 7.3640
 1.9900	 7.4280
 1.9910	 7.4940
 1.9920	 7.5610
 1.9930	 7.6300
 1.9940	 7.7000
 1.9950	 7.7710
 1.9960	 7.8410
 1.9970	 7.9140
 1.9980	 7.9840
 1.9990	 8.0520
 2.0000	 8.1210
 2.0010	 8.1900
 2.0020	 8.2570
 2.0030	 8.3270
 2.0040	 8.3980
 2.0050	 8.4690
 2.0060	 8.5440
 2.0070	 8.6140
 2.0080	 8.6810
 2.0090	 8.7510
 2.0100	 8.8200
 2.0110	 8.8880
 2.0120	 8.9590
 2.0130	 9.0280
 2.0140	 9.0910
 2.0150	 9.1570
 2.0160	 9.2260
 2.0170	 9.2960
 2.0180	 9.3680
 2.0190	 9.4440
 2.0200	 9.5150
 2.0210	 9.5850
 2.0220	 9.6530
 2.0230	 9.7180
 2.0240	 9.7840
 2.0250	 9.8490
 2.0260	 9.9150
 2.0270	 9.9810
 2.0280	10.0490
 2.0290	10.1190
 2.0300	10.1860
 2.0310	10.2510
 2.0320	10.3160
 2.0330	10.3790
 2.0340	10.4360
 2.0350	10.4990
 2.0360	10.5640
 2.0370	10.6300
 2.0380	10.7010
 2.0390	10.7660
 2.0400	10.8280
 2.0410	10.8870
 2.0420	10.9380
 2.0430	10.9930
 2.0440	11.0500
 2.0450	11.1070
 2.0460	11.1660
 2.0470	11.2300
 2.0480	11.2890
 2.0490	11.3450
 2.0500	11.4030
 2.0510	11.4600
 2.0520	11.5170
 2.0530	11.5740
 2.0540	11.6320
 2.0550	11.6890
 2.0560	11.7480
 2.0570	11.8090
 2.0580	11.8690
 2.0590	11.9280
 2.0600	11.9870
 2.0610	12.0420
 2.0620	12.0950
 2.0630	12.1490
 2.0640	12.1990
 2.0650	12.2540
 2.0660	12.3120
 2.0670	12.3690
 2.0680	12.4280
 2.0690	12.4870
 2.0700	12.5470
 2.0710	12.6070
 2.0720	12.6700
 2.0730	12.7250
 2.0740	12.7800
 2.0750	12.8310
 2.0760	12.8860
 2.0770	12.9410
 2.0780	13.0000
 2.0790	13.0630
 2.0800	13.1230
 2.0810	13.1810
 2.0820	13.2400
 2.0830	13.3030
 2.0840	13.3600
 2.0850	13.4110
 2.0860	13.4680
 2.0870	13.5240
 2.0880	13.5810
 2.0890	13.6410
 2.0900	13.7070
 2.0910	13.7730
 2.0920	13.8400
 2.0930	13.9050
 2.0940	13.9740
 2.0950	14.0370
 2.0960	14.0960
 2.0970	14.1520
 2.0980	14.2040
 2.0990	14.2580
 2.1000	14.3090
 2.1010	14.3640
 2.1020	14.4220
 2.1030	14.4780
 2.1040	14.5330
 2.1050	14.5920
 2.1060	14.6500
 2.1070	14.7080
 2.1080	14.7670
 2.1090	14.8270
 2.1100	14.8870
 2.1110	14.9480
 2.1120	15.0060
 2.1130	15.0580
 2.1140	15.1170
 2.1150	15.1790
 2.1160	15.2370
 2.1170	15.3020
 2.1180	15.3600
 2.1190	15.4110
 2.1200	15.4630
 2.1210	15.5130
 2.1220	15.5680
 2.1230	15.6210
 2.1240	15.6740
 2.1250	15.7270
 2.1260	15.7810
 2.1270	15.8330
 2.1280	15.8860
 2.1290	15.9360
 2.1300	15.9850
 2.1310	16.0350
 2.1320	16.0830
 2.1330	16.1290
 2.1340	16.1720
 2.1350	16.2170
 2.1360	16.2590
 2.1370	16.3020
 2.1380	16.3500
 2.1390	16.3940
 2.1400	16.4310
 2.1410	16.4740
 2.1420	16.5130
 2.1430	16.5480
 2.1440	16.5880
 2.1450	16.6330
 2.1460	16.6710
 2.1470	16.7130
 2.1480	16.7470
 2.1490	16.7720
 2.1500	16.8020
 2.1510	16.8290
 2.1520	16.8580
 2.1530	16.8870
 2.1540	16.9170
 2.1550	16.9490
 2.1560	16.9760
 2.1570	17.0020
 2.1580	17.0280
 2.1590	17.0520
 2.1600	17.0750
 2.1610	17.0990
 2.1620	17.1220
 2.1630	17.1410
 2.1640	17.1550
 2.1650	17.1740
 2.1660	17.1920
 2.1670	17.2130
 2.1680	17.2390
 2.1690	17.2600
 2.1700	17.2800
 2.1710	17.3000
 2.1720	17.3150
 2.1730	17.3350
 2.1740	17.3580
 2.1750	17.3760
 2.1760	17.3930
 2.1770	17.4110
 2.1780	17.4220
 2.1790	17.4400
 2.1800	17.4700
 2.1810	17.4930
 2.1820	17.5130
 2.1830	17.5360
 2.1840	17.5540
 2.1850	17.5620
 2.1860	17.5790
 2.1870	17.6000
 2.1880	17.6160
 2.1890	17.6330
 2.1900	17.6480
 2.1910	17.6570
 2.1920	17.6720
 2.1930	17.6960
 2.1940	17.7080
 2.1950	17.7150
 2.1960	17.7250
 2.1970	17.7300
 2.1980	17.7340
 2.1990	17.7440
 2.2000	17.7500
 2.2010	17.7480
 2.2020	17.7510
 2.2030	17.7600
 2.2040	17.7640
 2.2050	17.7640
 2.2060	17.7720
 2.2070	17.7730
 2.2080	17.7680
 2.2090	17.7690
 2.2100	17.7720
 2.2110	17.7710
 2.2120	17.7700
 2.2130	17.7690
 2.2140	17.7670
 2.2150	17.7660
 2.2160	17.7710
 2.2170	17.7680
 2.2180	17.7580
 2.2190	17.7510
 2.2200	17.7450
 2.2210	17.7340
 2.2220	17.7240
 2.2230	17.7090
 2.2240	17.6870
 2.2250	17.6660
 2.2260	17.6420
 2.2270	17.6200
 2.2280	17.5980
 2.2290	17.5750
 2.2300	17.5510
 2.2310	17.5290
 2.2320	17.5010
 2.2330	17.4710
 2.2340	17.4350
 2.2350	17.3940
 2.2360	17.3520
 2.2370	17.3030
 2.2380	17.2610
 2.2390	17.2200
 2.2400	17.1790
 2.2410	17.1440
 2.2420	17.1010
 2.2430	17.0550
 2.2440	17.0070
 2.2450	16.9510
 2.2460	16.9020
 2.2470	16.8560
 2.2480	16.8050
 2.2490	16.7560
 2.2500	16.7010
 2.2510	16.6370
 2.2520	16.5780
 2.2530	16.5200
 2.2540	16.4610
 2.2550	16.4030
 2.2560	16.3440
 2.2570	16.2790
 2.2580	16.2190
 2.2590	16.1620
 2.2600	16.1060
 2.2610	16.0570
 2.2620	16.0000
 2.2630	15.9400
 2.2640	15.8820
 2.2650	15.8220
 2.2660	15.7650
 2.2670	15.7110
 2.2680	15.6630
 2.2690	15.6090
 2.2700	15.5520
 2.2710	15.4980
 2.2720	15.4400
 2.2730	15.3890
 2.2740	15.3480
 2.2750	15.2990
 2.2760	15.2460
 2.2770	15.2040
 2.2780	15.1650
 2.2790	15.1270
 2.2800	15.1030
 2.2810	15.0650
 2.2820	15.0170
 2.2830	14.9730
 2.2840	14.9280
 2.2850	14.8810
 2.2860	14.8340
 2.2870	14.7880
 2.2880	14.7390
 2.2890	14.6930
 2.2900	14.6480
 2.2910	14.6040
 2.2920	14.5650
 2.2930	14.5220
 2.2940	14.4880
 2.2950	14.4420
 2.2960	14.3800
 2.2970	14.3260
 2.2980	14.2680
 2.2990	14.2100
 2.3000	14.1660
 2.3010	14.1240
 2.3020	14.0710
 2.3030	14.0120
 2.3040	13.9430
 2.3050	13.8690
 2.3060	13.8040
 2.3070	13.7510
 2.3080	13.7000
 2.3090	13.6470
 2.3100	13.5940
 2.3110	13.5280
 2.3120	13.4740
 2.3130	13.4270
 2.3140	13.3790
 2.3150	13.3350
 2.3160	13.2950
 2.3170	13.2550
 2.3180	13.2200
 2.3190	13.1970
 2.3200	13.1600
 2.3210	13.1190
 2.3220	13.0720
 2.3230	13.0130
 2.3240	12.9650
 2.3250	12.9190
 2.3260	12.8720
 2.3270	12.8290
 2.3280	12.7810
 2.3290	12.7260
 2.3300	12.6810
 2.3310	12.6400
 2.3320	12.5950
 2.3330	12.5550
 2.3340	12.5100
 2.3350	12.4580
 2.3360	12.4120
 2.3370	12.3740
 2.3380	12.3260
 2.3390	12.2790
 2.3400	12.2250
 2.3410	12.1550
 2.3420	12.0960
 2.3430	12.0330
 2.3440	11.9800
 2.3450	11.9420
 2.3460	11.8960
 2.3470	11.8510
 2.3480	11.8080
 2.3490	11.7620
 2.3500	11.7160
 2.3510	11.6750
 2.3520	11.6300
 2.3530	11.5780
 2.3540	11.5350
 2.3550	11.4990
 2.3560	11.4480
 2.3570	11.3940
 2.3580	11.3430
 2.3590	11.2960
 2.3600	11.2480
 2.3610	11.2030
 2.3620	11.1620
 2.3630	11.1150
 2.3640	11.0670
 2.3650	11.0240
 2.3660	10.9780
 2.3670	10.9370
 2.3680	10.8900
 2.3690	10.8340
 2.3700	10.7790
 2.3710	10.7190
 2.3720	10.6640
 2.3730	10.6200
 2.3740	10.5810
 2.3750	10.5510
 2.3760	10.5130
 2.3770	10.4740
 2.3780	10.4360
 2.3790	10.3820
 2.3800	10.3260
 2.3810	10.2820
 2.3820	10.2290
 2.3830	10.1710
 2.3840	10.1230
 2.3850	10.0720
 2.3860	10.0220
 2.3870	 9.9800
 2.3880	 9.9430
 2.3890	 9.8970
 2.3900	 9.8460
 2.3910	 9.8140
 2.3920	 9.7690
 2.3930	 9.7170
 2.3940	 9.6750
 2.3950	 9.6140
 2.3960	 9.5530
 2.3970	 9.5040
 2.3980	 9.4560
 2.3990	 9.4230
 2.4000	 9.3840
 2.4010	 9.3470
 2.4020	 9.3210
 2.4030	 9.2660
 2.4040	 9.2100
 2.4050	 9.1530
 2.4060	 9.0790
 2.4070	 9.0250
 2.4080	 8.9840
 2.4090	 8.9400
 2.4100	 8.9020
 2.4110	 8.8690
 2.4120	 8.8100
 2.4130	 8.7640
 2.4140	 8.7360
 2.4150	 8.6980
 2.4160	 8.6770
 2.4170	 8.6540
 2.4180	 8.6050
 2.4190	 8.5350
 2.4200	 8.4780
 2.4210	 8.4240
 2.4220	 8.3650
 2.4230	 8.3250
 2.4240	 8.2820
 2.4250	 8.2320
 2.4260	 8.1830
 2.4270	 8.1350
 2.4280	 8.0770
 2.4290	 8.0150
 2.4300	 7.9540
 2.4310	 7.9030
 2.4320	 7.8750
 2.4330	 7.8350
 2.4340	 7.7990
 2.4350	 7.7550
 2.4360	 7.7060
 2.4370	 7.6890
 2.4380	 7.6530
 2.4390	 7.5910
 2.4400	 7.5250
 2.4410	 7.4440
 2.4420	 7.3920
 2.4430	 7.3820
 2.4440	 7.3480
 2.4450	 7.2930
 2.4460	 7.2500
 2.4470	 7.2160
 2.4480	 7.1920
 2.4490	 7.1570
 2.4500	 7.1160
 2.4510	 7.0630
 2.4520	 6.9800
 2.4530	 6.9290
 2.4540	 6.8930
 2.4550	 6.8440
 2.4560	 6.8080
 2.4570	 6.7730
 2.4580	 6.7190
 2.4590	 6.6520
 2.4600	 6.6360
 2.4610	 6.6140
 2.4620	 6.5820
 2.4630	 6.5690
 2.4640	 6.5240
 2.4650	 6.5160
 2.4660	 6.5060
 2.4670	 6.4890
 2.4680	 6.4830
 2.4690	 6.4690
 2.4700	 6.4400
 2.4710	 6.3880
 2.4720	 6.3310
 2.4730	 6.2400
 2.4740	 6.1810
 2.4750	 6.1430
 2.4760	 6.1190
 2.4770	 6.1080
 2.4780	 6.0830
 2.4790	 6.0660
 2.4800	 6.0410
 2.4810	 6.0290
 2.4820	 6.0170
 2.4830	 5.9600
 2.4840	 5.9720
 2.4850	 5.9140
 2.4860	 5.8040
 2.4870	 5.7770
 2.4880	 5.7290
 2.4890	 5.7190
 2.4900	 5.7900
 2.4910	 5.8300
 2.4920	 5.8430
 2.4930	 5.7890
 2.4940	 5.7200
 2.4950	 5.6820
 2.4960	 5.5990
 2.4970	 5.5840
 2.4980	 5.6310
 2.4990	 5.6700
 2.5000	 5.7350
