Name: Quercus lobata 3
Type: vegetation
Class: Tree
Genus: Quercus
Species: lobata
Sample No.: VH090
Owner: UCSB
Wavelength Range: VSWIR
Origin: 34.7151; -120.0588; WGS84
Collection Date: 4/21/2013
Description: Samples were collected as part of the HyspIRI Airborne Campaign. 48 individual plants were sampled in three times in 2013 - spring  summer  and fall. The name of the sample includes a 1  2  or 3 which references a different individual of the species. Samples were taken to JPL and processed within 48 hours of collection. The same leaves were processed in the Nicolet and then measured using the ASD.
Measurement: Bidirectional reflectance
First Column: X
Second Column: Y
X Units: Wavelength (micrometers)
Y Units: Reflectance (percentage)
First X Value: 0.35
Last X Value: 2.5
Number of X Values: 2151
Additional Information: vegetation.tree.quercus.lobata.vswir.vh090.ucsb.asd.ancillary.txt

 0.3500	 6.6580
 0.3510	 6.5630
 0.3520	 6.6090
 0.3530	 6.6070
 0.3540	 6.4590
 0.3550	 6.4740
 0.3560	 6.6010
 0.3570	 6.6530
 0.3580	 6.4400
 0.3590	 6.3120
 0.3600	 6.3520
 0.3610	 6.4820
 0.3620	 6.4450
 0.3630	 6.3730
 0.3640	 6.3460
 0.3650	 6.4050
 0.3660	 6.5050
 0.3670	 6.5470
 0.3680	 6.5440
 0.3690	 6.5770
 0.3700	 6.5590
 0.3710	 6.5330
 0.3720	 6.5330
 0.3730	 6.5420
 0.3740	 6.5290
 0.3750	 6.5680
 0.3760	 6.6960
 0.3770	 6.6050
 0.3780	 6.5810
 0.3790	 6.6600
 0.3800	 6.6480
 0.3810	 6.5810
 0.3820	 6.5330
 0.3830	 6.5610
 0.3840	 6.6810
 0.3850	 6.7130
 0.3860	 6.7210
 0.3870	 6.8230
 0.3880	 6.8690
 0.3890	 6.8640
 0.3900	 6.8640
 0.3910	 6.9570
 0.3920	 6.9510
 0.3930	 6.9430
 0.3940	 7.0140
 0.3950	 7.0340
 0.3960	 7.0800
 0.3970	 7.1460
 0.3980	 7.1930
 0.3990	 7.2310
 0.4000	 7.2760
 0.4010	 7.3280
 0.4020	 7.3690
 0.4030	 7.4460
 0.4040	 7.5280
 0.4050	 7.5820
 0.4060	 7.6460
 0.4070	 7.7160
 0.4080	 7.7930
 0.4090	 7.8790
 0.4100	 7.9400
 0.4110	 8.0170
 0.4120	 8.1200
 0.4130	 8.1930
 0.4140	 8.2820
 0.4150	 8.3650
 0.4160	 8.4120
 0.4170	 8.4850
 0.4180	 8.5550
 0.4190	 8.6090
 0.4200	 8.6530
 0.4210	 8.7120
 0.4220	 8.7720
 0.4230	 8.8230
 0.4240	 8.8760
 0.4250	 8.9360
 0.4260	 8.9890
 0.4270	 9.0180
 0.4280	 9.0590
 0.4290	 9.1010
 0.4300	 9.1400
 0.4310	 9.1830
 0.4320	 9.1980
 0.4330	 9.2050
 0.4340	 9.2290
 0.4350	 9.2640
 0.4360	 9.2850
 0.4370	 9.2940
 0.4380	 9.3140
 0.4390	 9.3380
 0.4400	 9.3640
 0.4410	 9.3880
 0.4420	 9.4060
 0.4430	 9.4160
 0.4440	 9.4240
 0.4450	 9.4400
 0.4460	 9.4500
 0.4470	 9.4600
 0.4480	 9.4760
 0.4490	 9.4980
 0.4500	 9.5030
 0.4510	 9.5010
 0.4520	 9.5100
 0.4530	 9.5220
 0.4540	 9.5440
 0.4550	 9.5640
 0.4560	 9.5610
 0.4570	 9.5630
 0.4580	 9.5710
 0.4590	 9.5790
 0.4600	 9.5730
 0.4610	 9.5660
 0.4620	 9.5680
 0.4630	 9.5780
 0.4640	 9.5760
 0.4650	 9.5850
 0.4660	 9.6010
 0.4670	 9.5960
 0.4680	 9.5950
 0.4690	 9.5970
 0.4700	 9.5990
 0.4710	 9.5980
 0.4720	 9.5990
 0.4730	 9.6030
 0.4740	 9.6120
 0.4750	 9.6150
 0.4760	 9.6170
 0.4770	 9.6170
 0.4780	 9.6000
 0.4790	 9.5970
 0.4800	 9.6050
 0.4810	 9.6110
 0.4820	 9.6180
 0.4830	 9.6200
 0.4840	 9.6210
 0.4850	 9.6260
 0.4860	 9.6350
 0.4870	 9.6430
 0.4880	 9.6530
 0.4890	 9.6690
 0.4900	 9.6800
 0.4910	 9.6920
 0.4920	 9.7140
 0.4930	 9.7320
 0.4940	 9.7510
 0.4950	 9.7730
 0.4960	 9.7960
 0.4970	 9.8260
 0.4980	 9.8590
 0.4990	 9.8900
 0.5000	 9.9330
 0.5010	 9.9770
 0.5020	10.0220
 0.5030	10.0710
 0.5040	10.1340
 0.5050	10.2130
 0.5060	10.3050
 0.5070	10.3950
 0.5080	10.4970
 0.5090	10.6120
 0.5100	10.7360
 0.5110	10.8700
 0.5120	11.0210
 0.5130	11.1920
 0.5140	11.3750
 0.5150	11.5780
 0.5160	11.7940
 0.5170	12.0160
 0.5180	12.2520
 0.5190	12.4970
 0.5200	12.7500
 0.5210	13.0130
 0.5220	13.2720
 0.5230	13.5250
 0.5240	13.7750
 0.5250	14.0190
 0.5260	14.2580
 0.5270	14.4860
 0.5280	14.6930
 0.5290	14.8830
 0.5300	15.0620
 0.5310	15.2260
 0.5320	15.3710
 0.5330	15.5050
 0.5340	15.6280
 0.5350	15.7370
 0.5360	15.8300
 0.5370	15.9160
 0.5380	15.9930
 0.5390	16.0540
 0.5400	16.1120
 0.5410	16.1690
 0.5420	16.2250
 0.5430	16.2820
 0.5440	16.3330
 0.5450	16.3790
 0.5460	16.4240
 0.5470	16.4660
 0.5480	16.5070
 0.5490	16.5430
 0.5500	16.5650
 0.5510	16.5800
 0.5520	16.5850
 0.5530	16.5770
 0.5540	16.5510
 0.5550	16.5120
 0.5560	16.4570
 0.5570	16.3790
 0.5580	16.2900
 0.5590	16.1900
 0.5600	16.0760
 0.5610	15.9500
 0.5620	15.8190
 0.5630	15.6800
 0.5640	15.5310
 0.5650	15.3690
 0.5660	15.2030
 0.5670	15.0400
 0.5680	14.8740
 0.5690	14.7000
 0.5700	14.5250
 0.5710	14.3570
 0.5720	14.2080
 0.5730	14.0680
 0.5740	13.9350
 0.5750	13.8130
 0.5760	13.6910
 0.5770	13.5730
 0.5780	13.4650
 0.5790	13.3700
 0.5800	13.2800
 0.5810	13.1950
 0.5820	13.1170
 0.5830	13.0420
 0.5840	12.9610
 0.5850	12.8780
 0.5860	12.8090
 0.5870	12.7440
 0.5880	12.6800
 0.5890	12.6190
 0.5900	12.5720
 0.5910	12.5320
 0.5920	12.4990
 0.5930	12.4770
 0.5940	12.4540
 0.5950	12.4310
 0.5960	12.4070
 0.5970	12.3740
 0.5980	12.3400
 0.5990	12.3060
 0.6000	12.2710
 0.6010	12.2290
 0.6020	12.1860
 0.6030	12.1460
 0.6040	12.1080
 0.6050	12.0610
 0.6060	12.0100
 0.6070	11.9560
 0.6080	11.8960
 0.6090	11.8320
 0.6100	11.7670
 0.6110	11.7010
 0.6120	11.6380
 0.6130	11.5780
 0.6140	11.5190
 0.6150	11.4600
 0.6160	11.4030
 0.6170	11.3510
 0.6180	11.3060
 0.6190	11.2560
 0.6200	11.2160
 0.6210	11.1830
 0.6220	11.1470
 0.6230	11.1180
 0.6240	11.0950
 0.6250	11.0760
 0.6260	11.0590
 0.6270	11.0450
 0.6280	11.0340
 0.6290	11.0260
 0.6300	11.0200
 0.6310	11.0120
 0.6320	10.9980
 0.6330	10.9750
 0.6340	10.9550
 0.6350	10.9330
 0.6360	10.8960
 0.6370	10.8420
 0.6380	10.7890
 0.6390	10.7340
 0.6400	10.6700
 0.6410	10.6000
 0.6420	10.5320
 0.6430	10.4690
 0.6440	10.4030
 0.6450	10.3390
 0.6460	10.2820
 0.6470	10.2340
 0.6480	10.1920
 0.6490	10.1540
 0.6500	10.1190
 0.6510	10.0920
 0.6520	10.0720
 0.6530	10.0550
 0.6540	10.0350
 0.6550	10.0160
 0.6560	 9.9940
 0.6570	 9.9710
 0.6580	 9.9460
 0.6590	 9.9210
 0.6600	 9.8940
 0.6610	 9.8650
 0.6620	 9.8340
 0.6630	 9.8110
 0.6640	 9.7920
 0.6650	 9.7690
 0.6660	 9.7480
 0.6670	 9.7360
 0.6680	 9.7320
 0.6690	 9.7290
 0.6700	 9.7320
 0.6710	 9.7370
 0.6720	 9.7440
 0.6730	 9.7500
 0.6740	 9.7640
 0.6750	 9.7810
 0.6760	 9.7990
 0.6770	 9.8230
 0.6780	 9.8440
 0.6790	 9.8660
 0.6800	 9.9000
 0.6810	 9.9360
 0.6820	 9.9750
 0.6830	10.0200
 0.6840	10.0750
 0.6850	10.1380
 0.6860	10.2130
 0.6870	10.3060
 0.6880	10.4220
 0.6890	10.5710
 0.6900	10.7640
 0.6910	11.0150
 0.6920	11.3270
 0.6930	11.7080
 0.6940	12.1640
 0.6950	12.7030
 0.6960	13.3230
 0.6970	14.0230
 0.6980	14.8010
 0.6990	15.6440
 0.7000	16.5450
 0.7010	17.4940
 0.7020	18.4760
 0.7030	19.4830
 0.7040	20.5070
 0.7050	21.5370
 0.7060	22.5660
 0.7070	23.5940
 0.7080	24.6120
 0.7090	25.6160
 0.7100	26.6160
 0.7110	27.6100
 0.7120	28.5900
 0.7130	29.5460
 0.7140	30.4940
 0.7150	31.4320
 0.7160	32.3520
 0.7170	33.2500
 0.7180	34.1300
 0.7190	34.9900
 0.7200	35.8300
 0.7210	36.6500
 0.7220	37.4490
 0.7230	38.2220
 0.7240	38.9650
 0.7250	39.6860
 0.7260	40.3770
 0.7270	41.0340
 0.7280	41.6640
 0.7290	42.2660
 0.7300	42.8400
 0.7310	43.3870
 0.7320	43.9010
 0.7330	44.3860
 0.7340	44.8470
 0.7350	45.2840
 0.7360	45.6950
 0.7370	46.0810
 0.7380	46.4420
 0.7390	46.7770
 0.7400	47.0940
 0.7410	47.3930
 0.7420	47.6720
 0.7430	47.9250
 0.7440	48.1600
 0.7450	48.3820
 0.7460	48.5880
 0.7470	48.7750
 0.7480	48.9440
 0.7490	49.1000
 0.7500	49.2470
 0.7510	49.3790
 0.7520	49.4960
 0.7530	49.6030
 0.7540	49.7020
 0.7550	49.7930
 0.7560	49.8750
 0.7570	49.9480
 0.7580	50.0150
 0.7590	50.0760
 0.7600	50.1300
 0.7610	50.1840
 0.7620	50.2280
 0.7630	50.2670
 0.7640	50.3040
 0.7650	50.3400
 0.7660	50.3720
 0.7670	50.4020
 0.7680	50.4300
 0.7690	50.4530
 0.7700	50.4720
 0.7710	50.4910
 0.7720	50.5130
 0.7730	50.5270
 0.7740	50.5390
 0.7750	50.5530
 0.7760	50.5670
 0.7770	50.5850
 0.7780	50.6030
 0.7790	50.6130
 0.7800	50.6240
 0.7810	50.6380
 0.7820	50.6540
 0.7830	50.6650
 0.7840	50.6740
 0.7850	50.6820
 0.7860	50.6930
 0.7870	50.7040
 0.7880	50.7160
 0.7890	50.7270
 0.7900	50.7340
 0.7910	50.7360
 0.7920	50.7430
 0.7930	50.7540
 0.7940	50.7620
 0.7950	50.7690
 0.7960	50.7710
 0.7970	50.7710
 0.7980	50.7770
 0.7990	50.7780
 0.8000	50.7780
 0.8010	50.7840
 0.8020	50.7840
 0.8030	50.7790
 0.8040	50.7770
 0.8050	50.7840
 0.8060	50.7780
 0.8070	50.7730
 0.8080	50.7700
 0.8090	50.7660
 0.8100	50.7620
 0.8110	50.7610
 0.8120	50.7610
 0.8130	50.7560
 0.8140	50.7440
 0.8150	50.7360
 0.8160	50.7360
 0.8170	50.7310
 0.8180	50.7230
 0.8190	50.7140
 0.8200	50.7070
 0.8210	50.6980
 0.8220	50.6890
 0.8230	50.6810
 0.8240	50.6730
 0.8250	50.6650
 0.8260	50.6590
 0.8270	50.6560
 0.8280	50.6490
 0.8290	50.6380
 0.8300	50.6260
 0.8310	50.6170
 0.8320	50.6090
 0.8330	50.6030
 0.8340	50.5940
 0.8350	50.5830
 0.8360	50.5790
 0.8370	50.5750
 0.8380	50.5710
 0.8390	50.5730
 0.8400	50.5700
 0.8410	50.5670
 0.8420	50.5660
 0.8430	50.5590
 0.8440	50.5570
 0.8450	50.5590
 0.8460	50.5620
 0.8470	50.5670
 0.8480	50.5650
 0.8490	50.5600
 0.8500	50.5610
 0.8510	50.5670
 0.8520	50.5690
 0.8530	50.5670
 0.8540	50.5670
 0.8550	50.5700
 0.8560	50.5670
 0.8570	50.5620
 0.8580	50.5700
 0.8590	50.5790
 0.8600	50.5870
 0.8610	50.5910
 0.8620	50.5940
 0.8630	50.5920
 0.8640	50.5940
 0.8650	50.6050
 0.8660	50.6100
 0.8670	50.6120
 0.8680	50.6140
 0.8690	50.6220
 0.8700	50.6290
 0.8710	50.6370
 0.8720	50.6430
 0.8730	50.6420
 0.8740	50.6500
 0.8750	50.6580
 0.8760	50.6620
 0.8770	50.6660
 0.8780	50.6750
 0.8790	50.6860
 0.8800	50.6960
 0.8810	50.6950
 0.8820	50.6990
 0.8830	50.7080
 0.8840	50.7190
 0.8850	50.7220
 0.8860	50.7240
 0.8870	50.7290
 0.8880	50.7390
 0.8890	50.7490
 0.8900	50.7560
 0.8910	50.7580
 0.8920	50.7590
 0.8930	50.7750
 0.8940	50.7780
 0.8950	50.7730
 0.8960	50.7840
 0.8970	50.8050
 0.8980	50.8090
 0.8990	50.8010
 0.9000	50.8070
 0.9010	50.8140
 0.9020	50.8220
 0.9030	50.8330
 0.9040	50.8410
 0.9050	50.8420
 0.9060	50.8450
 0.9070	50.8520
 0.9080	50.8540
 0.9090	50.8650
 0.9100	50.8790
 0.9110	50.8870
 0.9120	50.8910
 0.9130	50.8910
 0.9140	50.8930
 0.9150	50.8990
 0.9160	50.8990
 0.9170	50.8990
 0.9180	50.8980
 0.9190	50.8930
 0.9200	50.8910
 0.9210	50.8950
 0.9220	50.9000
 0.9230	50.8960
 0.9240	50.8900
 0.9250	50.8890
 0.9260	50.8870
 0.9270	50.8700
 0.9280	50.8520
 0.9290	50.8490
 0.9300	50.8500
 0.9310	50.8220
 0.9320	50.8000
 0.9330	50.7880
 0.9340	50.7830
 0.9350	50.7810
 0.9360	50.7630
 0.9370	50.7420
 0.9380	50.7250
 0.9390	50.6980
 0.9400	50.6780
 0.9410	50.6620
 0.9420	50.6440
 0.9430	50.6150
 0.9440	50.5810
 0.9450	50.5530
 0.9460	50.5280
 0.9470	50.4840
 0.9480	50.4480
 0.9490	50.4150
 0.9500	50.3750
 0.9510	50.3380
 0.9520	50.2740
 0.9530	50.2110
 0.9540	50.1750
 0.9550	50.1410
 0.9560	50.1030
 0.9570	50.0560
 0.9580	49.9980
 0.9590	49.9420
 0.9600	49.9030
 0.9610	49.8700
 0.9620	49.8310
 0.9630	49.8100
 0.9640	49.7970
 0.9650	49.7800
 0.9660	49.7540
 0.9670	49.7430
 0.9680	49.7140
 0.9690	49.6940
 0.9700	49.7110
 0.9710	49.6800
 0.9720	49.6640
 0.9730	49.6610
 0.9740	49.6470
 0.9750	49.6400
 0.9760	49.6470
 0.9770	49.6530
 0.9780	49.6450
 0.9790	49.6580
 0.9800	49.6660
 0.9810	49.6640
 0.9820	49.6560
 0.9830	49.6520
 0.9840	49.6650
 0.9850	49.6860
 0.9860	49.6940
 0.9870	49.6950
 0.9880	49.7150
 0.9890	49.7340
 0.9900	49.7230
 0.9910	49.7340
 0.9920	49.8100
 0.9930	49.8870
 0.9940	49.9630
 0.9950	50.0390
 0.9960	50.1150
 0.9970	50.1920
 0.9980	50.2680
 0.9990	50.3440
 1.0000	50.4200
 1.0010	50.4970
 1.0020	50.5730
 1.0030	50.6490
 1.0040	50.7250
 1.0050	50.8020
 1.0060	50.8780
 1.0070	50.9540
 1.0080	51.0300
 1.0090	51.1060
 1.0100	51.1060
 1.0110	51.1120
 1.0120	51.1260
 1.0130	51.1470
 1.0140	51.1640
 1.0150	51.1800
 1.0160	51.1990
 1.0170	51.2090
 1.0180	51.2160
 1.0190	51.2270
 1.0200	51.2420
 1.0210	51.2600
 1.0220	51.2770
 1.0230	51.2910
 1.0240	51.3000
 1.0250	51.3130
 1.0260	51.3270
 1.0270	51.3390
 1.0280	51.3510
 1.0290	51.3630
 1.0300	51.3740
 1.0310	51.3840
 1.0320	51.3930
 1.0330	51.4040
 1.0340	51.4160
 1.0350	51.4250
 1.0360	51.4350
 1.0370	51.4460
 1.0380	51.4560
 1.0390	51.4630
 1.0400	51.4720
 1.0410	51.4810
 1.0420	51.4920
 1.0430	51.5050
 1.0440	51.5150
 1.0450	51.5280
 1.0460	51.5360
 1.0470	51.5400
 1.0480	51.5460
 1.0490	51.5490
 1.0500	51.5530
 1.0510	51.5590
 1.0520	51.5640
 1.0530	51.5700
 1.0540	51.5770
 1.0550	51.5840
 1.0560	51.5940
 1.0570	51.6000
 1.0580	51.6070
 1.0590	51.6110
 1.0600	51.6100
 1.0610	51.6130
 1.0620	51.6140
 1.0630	51.6170
 1.0640	51.6210
 1.0650	51.6240
 1.0660	51.6280
 1.0670	51.6290
 1.0680	51.6300
 1.0690	51.6290
 1.0700	51.6300
 1.0710	51.6330
 1.0720	51.6300
 1.0730	51.6260
 1.0740	51.6230
 1.0750	51.6170
 1.0760	51.6130
 1.0770	51.6130
 1.0780	51.6100
 1.0790	51.6050
 1.0800	51.6010
 1.0810	51.5980
 1.0820	51.5950
 1.0830	51.5930
 1.0840	51.5890
 1.0850	51.5860
 1.0860	51.5820
 1.0870	51.5750
 1.0880	51.5670
 1.0890	51.5580
 1.0900	51.5480
 1.0910	51.5380
 1.0920	51.5280
 1.0930	51.5190
 1.0940	51.5100
 1.0950	51.5000
 1.0960	51.4890
 1.0970	51.4810
 1.0980	51.4770
 1.0990	51.4690
 1.1000	51.4600
 1.1010	51.4510
 1.1020	51.4410
 1.1030	51.4310
 1.1040	51.4230
 1.1050	51.4150
 1.1060	51.4040
 1.1070	51.3900
 1.1080	51.3770
 1.1090	51.3650
 1.1100	51.3520
 1.1110	51.3420
 1.1120	51.3290
 1.1130	51.3160
 1.1140	51.3010
 1.1150	51.2830
 1.1160	51.2660
 1.1170	51.2490
 1.1180	51.2310
 1.1190	51.2100
 1.1200	51.1910
 1.1210	51.1690
 1.1220	51.1440
 1.1230	51.1160
 1.1240	51.0870
 1.1250	51.0540
 1.1260	51.0170
 1.1270	50.9750
 1.1280	50.9290
 1.1290	50.8770
 1.1300	50.8190
 1.1310	50.7550
 1.1320	50.6860
 1.1330	50.6120
 1.1340	50.5300
 1.1350	50.4460
 1.1360	50.3600
 1.1370	50.2670
 1.1380	50.1710
 1.1390	50.0690
 1.1400	49.9600
 1.1410	49.8490
 1.1420	49.7350
 1.1430	49.6230
 1.1440	49.5100
 1.1450	49.3930
 1.1460	49.2830
 1.1470	49.1700
 1.1480	49.0660
 1.1490	48.9660
 1.1500	48.8710
 1.1510	48.7800
 1.1520	48.6960
 1.1530	48.6170
 1.1540	48.5450
 1.1550	48.4780
 1.1560	48.4200
 1.1570	48.3690
 1.1580	48.3270
 1.1590	48.2900
 1.1600	48.2560
 1.1610	48.2280
 1.1620	48.2050
 1.1630	48.1860
 1.1640	48.1720
 1.1650	48.1590
 1.1660	48.1490
 1.1670	48.1400
 1.1680	48.1320
 1.1690	48.1260
 1.1700	48.1220
 1.1710	48.1180
 1.1720	48.1170
 1.1730	48.1150
 1.1740	48.1120
 1.1750	48.1090
 1.1760	48.1040
 1.1770	48.0980
 1.1780	48.0910
 1.1790	48.0820
 1.1800	48.0720
 1.1810	48.0640
 1.1820	48.0560
 1.1830	48.0500
 1.1840	48.0430
 1.1850	48.0350
 1.1860	48.0290
 1.1870	48.0220
 1.1880	48.0160
 1.1890	48.0110
 1.1900	48.0050
 1.1910	47.9960
 1.1920	47.9910
 1.1930	47.9870
 1.1940	47.9860
 1.1950	47.9870
 1.1960	47.9890
 1.1970	47.9900
 1.1980	47.9910
 1.1990	47.9940
 1.2000	47.9980
 1.2010	48.0020
 1.2020	48.0090
 1.2030	48.0170
 1.2040	48.0270
 1.2050	48.0380
 1.2060	48.0480
 1.2070	48.0590
 1.2080	48.0680
 1.2090	48.0790
 1.2100	48.0900
 1.2110	48.1030
 1.2120	48.1180
 1.2130	48.1330
 1.2140	48.1510
 1.2150	48.1680
 1.2160	48.1860
 1.2170	48.2030
 1.2180	48.2190
 1.2190	48.2380
 1.2200	48.2570
 1.2210	48.2770
 1.2220	48.2990
 1.2230	48.3200
 1.2240	48.3380
 1.2250	48.3550
 1.2260	48.3700
 1.2270	48.3840
 1.2280	48.4000
 1.2290	48.4170
 1.2300	48.4360
 1.2310	48.4520
 1.2320	48.4670
 1.2330	48.4820
 1.2340	48.4970
 1.2350	48.5100
 1.2360	48.5240
 1.2370	48.5370
 1.2380	48.5490
 1.2390	48.5600
 1.2400	48.5730
 1.2410	48.5860
 1.2420	48.5970
 1.2430	48.6070
 1.2440	48.6150
 1.2450	48.6240
 1.2460	48.6340
 1.2470	48.6450
 1.2480	48.6540
 1.2490	48.6620
 1.2500	48.6680
 1.2510	48.6730
 1.2520	48.6790
 1.2530	48.6870
 1.2540	48.6940
 1.2550	48.6960
 1.2560	48.7000
 1.2570	48.7040
 1.2580	48.7050
 1.2590	48.7060
 1.2600	48.7090
 1.2610	48.7090
 1.2620	48.7050
 1.2630	48.7030
 1.2640	48.7040
 1.2650	48.7020
 1.2660	48.7010
 1.2670	48.6990
 1.2680	48.6930
 1.2690	48.6900
 1.2700	48.6840
 1.2710	48.6780
 1.2720	48.6720
 1.2730	48.6620
 1.2740	48.6510
 1.2750	48.6420
 1.2760	48.6300
 1.2770	48.6200
 1.2780	48.6100
 1.2790	48.5950
 1.2800	48.5800
 1.2810	48.5670
 1.2820	48.5510
 1.2830	48.5370
 1.2840	48.5200
 1.2850	48.4990
 1.2860	48.4760
 1.2870	48.4520
 1.2880	48.4260
 1.2890	48.4010
 1.2900	48.3740
 1.2910	48.3460
 1.2920	48.3170
 1.2930	48.2850
 1.2940	48.2510
 1.2950	48.2140
 1.2960	48.1740
 1.2970	48.1330
 1.2980	48.0890
 1.2990	48.0430
 1.3000	47.9940
 1.3010	47.9450
 1.3020	47.8950
 1.3030	47.8430
 1.3040	47.7900
 1.3050	47.7330
 1.3060	47.6730
 1.3070	47.6100
 1.3080	47.5450
 1.3090	47.4780
 1.3100	47.4090
 1.3110	47.3380
 1.3120	47.2660
 1.3130	47.1900
 1.3140	47.1110
 1.3150	47.0300
 1.3160	46.9450
 1.3170	46.8580
 1.3180	46.7680
 1.3190	46.6760
 1.3200	46.5820
 1.3210	46.4840
 1.3220	46.3860
 1.3230	46.2860
 1.3240	46.1820
 1.3250	46.0790
 1.3260	45.9720
 1.3270	45.8640
 1.3280	45.7560
 1.3290	45.6420
 1.3300	45.5260
 1.3310	45.4090
 1.3320	45.2880
 1.3330	45.1700
 1.3340	45.0480
 1.3350	44.9240
 1.3360	44.8020
 1.3370	44.6790
 1.3380	44.5570
 1.3390	44.4380
 1.3400	44.3170
 1.3410	44.1980
 1.3420	44.0790
 1.3430	43.9580
 1.3440	43.8390
 1.3450	43.7200
 1.3460	43.6030
 1.3470	43.4870
 1.3480	43.3720
 1.3490	43.2600
 1.3500	43.1510
 1.3510	43.0390
 1.3520	42.9240
 1.3530	42.8110
 1.3540	42.6960
 1.3550	42.5810
 1.3560	42.4700
 1.3570	42.3560
 1.3580	42.2390
 1.3590	42.1190
 1.3600	41.9940
 1.3610	41.8670
 1.3620	41.7360
 1.3630	41.6000
 1.3640	41.4590
 1.3650	41.3080
 1.3660	41.1520
 1.3670	40.9860
 1.3680	40.8090
 1.3690	40.6230
 1.3700	40.4200
 1.3710	40.2050
 1.3720	39.9750
 1.3730	39.7260
 1.3740	39.4650
 1.3750	39.1850
 1.3760	38.8820
 1.3770	38.5620
 1.3780	38.2160
 1.3790	37.8480
 1.3800	37.4590
 1.3810	37.0440
 1.3820	36.6110
 1.3830	36.1560
 1.3840	35.6840
 1.3850	35.1910
 1.3860	34.6840
 1.3870	34.1560
 1.3880	33.6210
 1.3890	33.0740
 1.3900	32.5150
 1.3910	31.9550
 1.3920	31.3850
 1.3930	30.8130
 1.3940	30.2440
 1.3950	29.6710
 1.3960	29.1080
 1.3970	28.5550
 1.3980	28.0100
 1.3990	27.4850
 1.4000	26.9750
 1.4010	26.4800
 1.4020	26.0060
 1.4030	25.5460
 1.4040	25.1090
 1.4050	24.6970
 1.4060	24.3040
 1.4070	23.9390
 1.4080	23.5950
 1.4090	23.2700
 1.4100	22.9700
 1.4110	22.6880
 1.4120	22.4270
 1.4130	22.1860
 1.4140	21.9640
 1.4150	21.7630
 1.4160	21.5790
 1.4170	21.4090
 1.4180	21.2560
 1.4190	21.1160
 1.4200	20.9890
 1.4210	20.8740
 1.4220	20.7710
 1.4230	20.6790
 1.4240	20.5980
 1.4250	20.5250
 1.4260	20.4640
 1.4270	20.4080
 1.4280	20.3600
 1.4290	20.3180
 1.4300	20.2840
 1.4310	20.2540
 1.4320	20.2310
 1.4330	20.2130
 1.4340	20.1990
 1.4350	20.1900
 1.4360	20.1840
 1.4370	20.1820
 1.4380	20.1840
 1.4390	20.1890
 1.4400	20.1960
 1.4410	20.2060
 1.4420	20.2170
 1.4430	20.2310
 1.4440	20.2480
 1.4450	20.2670
 1.4460	20.2870
 1.4470	20.3080
 1.4480	20.3290
 1.4490	20.3510
 1.4500	20.3760
 1.4510	20.4010
 1.4520	20.4280
 1.4530	20.4580
 1.4540	20.4880
 1.4550	20.5190
 1.4560	20.5530
 1.4570	20.5890
 1.4580	20.6290
 1.4590	20.6710
 1.4600	20.7190
 1.4610	20.7700
 1.4620	20.8260
 1.4630	20.8870
 1.4640	20.9530
 1.4650	21.0230
 1.4660	21.1000
 1.4670	21.1810
 1.4680	21.2680
 1.4690	21.3610
 1.4700	21.4570
 1.4710	21.5590
 1.4720	21.6630
 1.4730	21.7710
 1.4740	21.8830
 1.4750	21.9970
 1.4760	22.1150
 1.4770	22.2360
 1.4780	22.3580
 1.4790	22.4850
 1.4800	22.6120
 1.4810	22.7390
 1.4820	22.8690
 1.4830	22.9980
 1.4840	23.1280
 1.4850	23.2600
 1.4860	23.3930
 1.4870	23.5280
 1.4880	23.6630
 1.4890	23.7980
 1.4900	23.9330
 1.4910	24.0680
 1.4920	24.2030
 1.4930	24.3390
 1.4940	24.4750
 1.4950	24.6120
 1.4960	24.7480
 1.4970	24.8840
 1.4980	25.0200
 1.4990	25.1560
 1.5000	25.2920
 1.5010	25.4300
 1.5020	25.5650
 1.5030	25.7010
 1.5040	25.8350
 1.5050	25.9690
 1.5060	26.1020
 1.5070	26.2340
 1.5080	26.3670
 1.5090	26.5000
 1.5100	26.6310
 1.5110	26.7620
 1.5120	26.8930
 1.5130	27.0220
 1.5140	27.1500
 1.5150	27.2770
 1.5160	27.4030
 1.5170	27.5290
 1.5180	27.6530
 1.5190	27.7770
 1.5200	27.9000
 1.5210	28.0210
 1.5220	28.1410
 1.5230	28.2620
 1.5240	28.3800
 1.5250	28.4980
 1.5260	28.6150
 1.5270	28.7320
 1.5280	28.8480
 1.5290	28.9610
 1.5300	29.0720
 1.5310	29.1830
 1.5320	29.2920
 1.5330	29.4010
 1.5340	29.5090
 1.5350	29.6150
 1.5360	29.7210
 1.5370	29.8240
 1.5380	29.9280
 1.5390	30.0310
 1.5400	30.1310
 1.5410	30.2330
 1.5420	30.3330
 1.5430	30.4300
 1.5440	30.5280
 1.5450	30.6230
 1.5460	30.7180
 1.5470	30.8140
 1.5480	30.9060
 1.5490	30.9990
 1.5500	31.0910
 1.5510	31.1800
 1.5520	31.2720
 1.5530	31.3610
 1.5540	31.4480
 1.5550	31.5360
 1.5560	31.6210
 1.5570	31.7050
 1.5580	31.7890
 1.5590	31.8690
 1.5600	31.9520
 1.5610	32.0360
 1.5620	32.1170
 1.5630	32.1980
 1.5640	32.2750
 1.5650	32.3500
 1.5660	32.4250
 1.5670	32.4990
 1.5680	32.5730
 1.5690	32.6450
 1.5700	32.7160
 1.5710	32.7890
 1.5720	32.8600
 1.5730	32.9330
 1.5740	33.0030
 1.5750	33.0720
 1.5760	33.1410
 1.5770	33.2080
 1.5780	33.2740
 1.5790	33.3410
 1.5800	33.4070
 1.5810	33.4730
 1.5820	33.5380
 1.5830	33.6020
 1.5840	33.6660
 1.5850	33.7290
 1.5860	33.7920
 1.5870	33.8540
 1.5880	33.9160
 1.5890	33.9770
 1.5900	34.0380
 1.5910	34.0990
 1.5920	34.1580
 1.5930	34.2190
 1.5940	34.2780
 1.5950	34.3350
 1.5960	34.3930
 1.5970	34.4480
 1.5980	34.5000
 1.5990	34.5530
 1.6000	34.6050
 1.6010	34.6580
 1.6020	34.7110
 1.6030	34.7640
 1.6040	34.8150
 1.6050	34.8630
 1.6060	34.9120
 1.6070	34.9600
 1.6080	35.0090
 1.6090	35.0570
 1.6100	35.1030
 1.6110	35.1480
 1.6120	35.1910
 1.6130	35.2360
 1.6140	35.2790
 1.6150	35.3220
 1.6160	35.3670
 1.6170	35.4080
 1.6180	35.4490
 1.6190	35.4900
 1.6200	35.5290
 1.6210	35.5670
 1.6220	35.6030
 1.6230	35.6390
 1.6240	35.6760
 1.6250	35.7110
 1.6260	35.7460
 1.6270	35.7800
 1.6280	35.8110
 1.6290	35.8430
 1.6300	35.8740
 1.6310	35.9030
 1.6320	35.9330
 1.6330	35.9610
 1.6340	35.9890
 1.6350	36.0150
 1.6360	36.0420
 1.6370	36.0670
 1.6380	36.0910
 1.6390	36.1130
 1.6400	36.1350
 1.6410	36.1540
 1.6420	36.1690
 1.6430	36.1840
 1.6440	36.1980
 1.6450	36.2100
 1.6460	36.2200
 1.6470	36.2310
 1.6480	36.2380
 1.6490	36.2430
 1.6500	36.2490
 1.6510	36.2530
 1.6520	36.2530
 1.6530	36.2530
 1.6540	36.2520
 1.6550	36.2490
 1.6560	36.2470
 1.6570	36.2460
 1.6580	36.2440
 1.6590	36.2420
 1.6600	36.2410
 1.6610	36.2420
 1.6620	36.2430
 1.6630	36.2420
 1.6640	36.2390
 1.6650	36.2380
 1.6660	36.2390
 1.6670	36.2410
 1.6680	36.2460
 1.6690	36.2470
 1.6700	36.2440
 1.6710	36.2410
 1.6720	36.2370
 1.6730	36.2320
 1.6740	36.2270
 1.6750	36.2200
 1.6760	36.2080
 1.6770	36.1940
 1.6780	36.1800
 1.6790	36.1620
 1.6800	36.1410
 1.6810	36.1200
 1.6820	36.0980
 1.6830	36.0710
 1.6840	36.0420
 1.6850	36.0090
 1.6860	35.9710
 1.6870	35.9360
 1.6880	35.9010
 1.6890	35.8660
 1.6900	35.8280
 1.6910	35.7850
 1.6920	35.7450
 1.6930	35.7060
 1.6940	35.6660
 1.6950	35.6280
 1.6960	35.5880
 1.6970	35.5480
 1.6980	35.5060
 1.6990	35.4620
 1.7000	35.4180
 1.7010	35.3710
 1.7020	35.3270
 1.7030	35.2850
 1.7040	35.2390
 1.7050	35.1940
 1.7060	35.1470
 1.7070	35.0980
 1.7080	35.0500
 1.7090	35.0020
 1.7100	34.9550
 1.7110	34.9070
 1.7120	34.8610
 1.7130	34.8130
 1.7140	34.7650
 1.7150	34.7200
 1.7160	34.6740
 1.7170	34.6300
 1.7180	34.5850
 1.7190	34.5380
 1.7200	34.4910
 1.7210	34.4450
 1.7220	34.4010
 1.7230	34.3570
 1.7240	34.3130
 1.7250	34.2700
 1.7260	34.2250
 1.7270	34.1800
 1.7280	34.1350
 1.7290	34.0900
 1.7300	34.0500
 1.7310	34.0080
 1.7320	33.9690
 1.7330	33.9290
 1.7340	33.8870
 1.7350	33.8440
 1.7360	33.8000
 1.7370	33.7540
 1.7380	33.7040
 1.7390	33.6540
 1.7400	33.6040
 1.7410	33.5510
 1.7420	33.4980
 1.7430	33.4430
 1.7440	33.3840
 1.7450	33.3250
 1.7460	33.2660
 1.7470	33.2070
 1.7480	33.1490
 1.7490	33.0870
 1.7500	33.0220
 1.7510	32.9600
 1.7520	32.8980
 1.7530	32.8350
 1.7540	32.7760
 1.7550	32.7120
 1.7560	32.6490
 1.7570	32.5860
 1.7580	32.5240
 1.7590	32.4620
 1.7600	32.4000
 1.7610	32.3390
 1.7620	32.2820
 1.7630	32.2280
 1.7640	32.1740
 1.7650	32.1200
 1.7660	32.0690
 1.7670	32.0200
 1.7680	31.9720
 1.7690	31.9270
 1.7700	31.8810
 1.7710	31.8320
 1.7720	31.7880
 1.7730	31.7460
 1.7740	31.7060
 1.7750	31.6700
 1.7760	31.6320
 1.7770	31.5930
 1.7780	31.5560
 1.7790	31.5180
 1.7800	31.4830
 1.7810	31.4480
 1.7820	31.4160
 1.7830	31.3850
 1.7840	31.3570
 1.7850	31.3310
 1.7860	31.3060
 1.7870	31.2810
 1.7880	31.2600
 1.7890	31.2400
 1.7900	31.2250
 1.7910	31.2100
 1.7920	31.1940
 1.7930	31.1810
 1.7940	31.1690
 1.7950	31.1600
 1.7960	31.1540
 1.7970	31.1470
 1.7980	31.1390
 1.7990	31.1350
 1.8000	31.1320
 1.8010	31.1310
 1.8020	31.1350
 1.8030	31.1340
 1.8040	31.1330
 1.8050	31.1310
 1.8060	31.1280
 1.8070	31.1260
 1.8080	31.1220
 1.8090	31.1210
 1.8100	31.1220
 1.8110	31.1220
 1.8120	31.1230
 1.8130	31.1200
 1.8140	31.1140
 1.8150	31.1120
 1.8160	31.1080
 1.8170	31.1030
 1.8180	31.0990
 1.8190	31.0970
 1.8200	31.0910
 1.8210	31.0880
 1.8220	31.0790
 1.8230	31.0600
 1.8240	31.0490
 1.8250	31.0430
 1.8260	31.0310
 1.8270	30.9480
 1.8280	30.8650
 1.8290	30.7820
 1.8300	30.6990
 1.8310	30.6160
 1.8320	30.5330
 1.8330	30.4500
 1.8340	30.3670
 1.8350	30.3670
 1.8360	30.3200
 1.8370	30.2670
 1.8380	30.2100
 1.8390	30.1490
 1.8400	30.0820
 1.8410	30.0100
 1.8420	29.9370
 1.8430	29.8550
 1.8440	29.7610
 1.8450	29.6640
 1.8460	29.5570
 1.8470	29.4390
 1.8480	29.3180
 1.8490	29.1850
 1.8500	29.0400
 1.8510	28.8820
 1.8520	28.7170
 1.8530	28.5380
 1.8540	28.3500
 1.8550	28.1470
 1.8560	27.9330
 1.8570	27.7080
 1.8580	27.4630
 1.8590	27.2020
 1.8600	26.9260
 1.8610	26.6360
 1.8620	26.3240
 1.8630	25.9990
 1.8640	25.6620
 1.8650	25.3040
 1.8660	24.9310
 1.8670	24.5360
 1.8680	24.1210
 1.8690	23.6880
 1.8700	23.2360
 1.8710	22.7620
 1.8720	22.2810
 1.8730	21.7910
 1.8740	21.2860
 1.8750	20.7770
 1.8760	20.2570
 1.8770	19.7330
 1.8780	19.2080
 1.8790	18.6820
 1.8800	18.1650
 1.8810	17.6530
 1.8820	17.1430
 1.8830	16.6390
 1.8840	16.1450
 1.8850	15.6580
 1.8860	15.1820
 1.8870	14.7220
 1.8880	14.2780
 1.8890	13.8600
 1.8900	13.4640
 1.8910	13.0880
 1.8920	12.7300
 1.8930	12.4000
 1.8940	12.0900
 1.8950	11.8020
 1.8960	11.5400
 1.8970	11.2970
 1.8980	11.0740
 1.8990	10.8730
 1.9000	10.6900
 1.9010	10.5280
 1.9020	10.3800
 1.9030	10.2520
 1.9040	10.1350
 1.9050	10.0320
 1.9060	 9.9400
 1.9070	 9.8590
 1.9080	 9.7890
 1.9090	 9.7280
 1.9100	 9.6740
 1.9110	 9.6260
 1.9120	 9.5880
 1.9130	 9.5530
 1.9140	 9.5240
 1.9150	 9.5020
 1.9160	 9.4820
 1.9170	 9.4650
 1.9180	 9.4530
 1.9190	 9.4420
 1.9200	 9.4360
 1.9210	 9.4310
 1.9220	 9.4270
 1.9230	 9.4250
 1.9240	 9.4250
 1.9250	 9.4280
 1.9260	 9.4300
 1.9270	 9.4360
 1.9280	 9.4450
 1.9290	 9.4520
 1.9300	 9.4640
 1.9310	 9.4760
 1.9320	 9.4870
 1.9330	 9.5010
 1.9340	 9.5180
 1.9350	 9.5350
 1.9360	 9.5540
 1.9370	 9.5760
 1.9380	 9.5980
 1.9390	 9.6210
 1.9400	 9.6460
 1.9410	 9.6740
 1.9420	 9.7030
 1.9430	 9.7340
 1.9440	 9.7630
 1.9450	 9.7930
 1.9460	 9.8230
 1.9470	 9.8500
 1.9480	 9.8810
 1.9490	 9.9120
 1.9500	 9.9490
 1.9510	 9.9850
 1.9520	10.0210
 1.9530	10.0610
 1.9540	10.1010
 1.9550	10.1400
 1.9560	10.1810
 1.9570	10.2210
 1.9580	10.2600
 1.9590	10.3020
 1.9600	10.3440
 1.9610	10.3890
 1.9620	10.4350
 1.9630	10.4830
 1.9640	10.5310
 1.9650	10.5800
 1.9660	10.6290
 1.9670	10.6810
 1.9680	10.7320
 1.9690	10.7840
 1.9700	10.8380
 1.9710	10.8920
 1.9720	10.9480
 1.9730	11.0050
 1.9740	11.0650
 1.9750	11.1250
 1.9760	11.1840
 1.9770	11.2420
 1.9780	11.3010
 1.9790	11.3610
 1.9800	11.4210
 1.9810	11.4840
 1.9820	11.5490
 1.9830	11.6130
 1.9840	11.6800
 1.9850	11.7460
 1.9860	11.8090
 1.9870	11.8740
 1.9880	11.9440
 1.9890	12.0120
 1.9900	12.0830
 1.9910	12.1550
 1.9920	12.2260
 1.9930	12.2970
 1.9940	12.3680
 1.9950	12.4380
 1.9960	12.5090
 1.9970	12.5790
 1.9980	12.6500
 1.9990	12.7250
 2.0000	12.7970
 2.0010	12.8710
 2.0020	12.9460
 2.0030	13.0160
 2.0040	13.0880
 2.0050	13.1620
 2.0060	13.2370
 2.0070	13.3100
 2.0080	13.3860
 2.0090	13.4580
 2.0100	13.5260
 2.0110	13.5960
 2.0120	13.6650
 2.0130	13.7350
 2.0140	13.8050
 2.0150	13.8730
 2.0160	13.9400
 2.0170	14.0070
 2.0180	14.0740
 2.0190	14.1420
 2.0200	14.2080
 2.0210	14.2760
 2.0220	14.3410
 2.0230	14.4030
 2.0240	14.4650
 2.0250	14.5270
 2.0260	14.5880
 2.0270	14.6490
 2.0280	14.7130
 2.0290	14.7720
 2.0300	14.8330
 2.0310	14.8940
 2.0320	14.9540
 2.0330	15.0140
 2.0340	15.0760
 2.0350	15.1320
 2.0360	15.1860
 2.0370	15.2380
 2.0380	15.2850
 2.0390	15.3350
 2.0400	15.3850
 2.0410	15.4350
 2.0420	15.4850
 2.0430	15.5370
 2.0440	15.5850
 2.0450	15.6310
 2.0460	15.6760
 2.0470	15.7180
 2.0480	15.7640
 2.0490	15.8110
 2.0500	15.8560
 2.0510	15.8990
 2.0520	15.9440
 2.0530	15.9870
 2.0540	16.0320
 2.0550	16.0790
 2.0560	16.1300
 2.0570	16.1780
 2.0580	16.2250
 2.0590	16.2710
 2.0600	16.3180
 2.0610	16.3640
 2.0620	16.4110
 2.0630	16.4580
 2.0640	16.5070
 2.0650	16.5540
 2.0660	16.6010
 2.0670	16.6480
 2.0680	16.6940
 2.0690	16.7390
 2.0700	16.7780
 2.0710	16.8220
 2.0720	16.8660
 2.0730	16.9110
 2.0740	16.9560
 2.0750	17.0050
 2.0760	17.0510
 2.0770	17.0980
 2.0780	17.1420
 2.0790	17.1860
 2.0800	17.2290
 2.0810	17.2690
 2.0820	17.3110
 2.0830	17.3550
 2.0840	17.3970
 2.0850	17.4390
 2.0860	17.4810
 2.0870	17.5200
 2.0880	17.5640
 2.0890	17.6070
 2.0900	17.6500
 2.0910	17.6920
 2.0920	17.7340
 2.0930	17.7760
 2.0940	17.8180
 2.0950	17.8590
 2.0960	17.9000
 2.0970	17.9400
 2.0980	17.9760
 2.0990	18.0140
 2.1000	18.0520
 2.1010	18.0910
 2.1020	18.1320
 2.1030	18.1720
 2.1040	18.2140
 2.1050	18.2530
 2.1060	18.2910
 2.1070	18.3270
 2.1080	18.3620
 2.1090	18.3940
 2.1100	18.4320
 2.1110	18.4720
 2.1120	18.5090
 2.1130	18.5490
 2.1140	18.5840
 2.1150	18.6130
 2.1160	18.6460
 2.1170	18.6800
 2.1180	18.7130
 2.1190	18.7480
 2.1200	18.7820
 2.1210	18.8160
 2.1220	18.8480
 2.1230	18.8810
 2.1240	18.9160
 2.1250	18.9440
 2.1260	18.9670
 2.1270	18.9960
 2.1280	19.0250
 2.1290	19.0510
 2.1300	19.0800
 2.1310	19.1070
 2.1320	19.1290
 2.1330	19.1540
 2.1340	19.1840
 2.1350	19.2110
 2.1360	19.2380
 2.1370	19.2630
 2.1380	19.2850
 2.1390	19.3070
 2.1400	19.3240
 2.1410	19.3490
 2.1420	19.3720
 2.1430	19.3960
 2.1440	19.4180
 2.1450	19.4400
 2.1460	19.4620
 2.1470	19.4830
 2.1480	19.5050
 2.1490	19.5290
 2.1500	19.5500
 2.1510	19.5710
 2.1520	19.5890
 2.1530	19.6020
 2.1540	19.6190
 2.1550	19.6330
 2.1560	19.6510
 2.1570	19.6750
 2.1580	19.6930
 2.1590	19.7090
 2.1600	19.7230
 2.1610	19.7360
 2.1620	19.7460
 2.1630	19.7580
 2.1640	19.7700
 2.1650	19.7840
 2.1660	19.7960
 2.1670	19.8100
 2.1680	19.8260
 2.1690	19.8390
 2.1700	19.8490
 2.1710	19.8610
 2.1720	19.8720
 2.1730	19.8850
 2.1740	19.9030
 2.1750	19.9190
 2.1760	19.9370
 2.1770	19.9540
 2.1780	19.9690
 2.1790	19.9850
 2.1800	20.0010
 2.1810	20.0180
 2.1820	20.0350
 2.1830	20.0540
 2.1840	20.0730
 2.1850	20.0920
 2.1860	20.1100
 2.1870	20.1260
 2.1880	20.1460
 2.1890	20.1680
 2.1900	20.1880
 2.1910	20.2110
 2.1920	20.2300
 2.1930	20.2460
 2.1940	20.2640
 2.1950	20.2780
 2.1960	20.2970
 2.1970	20.3230
 2.1980	20.3410
 2.1990	20.3590
 2.2000	20.3770
 2.2010	20.3910
 2.2020	20.4050
 2.2030	20.4200
 2.2040	20.4340
 2.2050	20.4450
 2.2060	20.4540
 2.2070	20.4650
 2.2080	20.4770
 2.2090	20.4900
 2.2100	20.5010
 2.2110	20.5160
 2.2120	20.5360
 2.2130	20.5470
 2.2140	20.5540
 2.2150	20.5610
 2.2160	20.5630
 2.2170	20.5660
 2.2180	20.5720
 2.2190	20.5740
 2.2200	20.5710
 2.2210	20.5690
 2.2220	20.5660
 2.2230	20.5620
 2.2240	20.5580
 2.2250	20.5520
 2.2260	20.5460
 2.2270	20.5390
 2.2280	20.5340
 2.2290	20.5220
 2.2300	20.5060
 2.2310	20.4860
 2.2320	20.4600
 2.2330	20.4250
 2.2340	20.3990
 2.2350	20.3720
 2.2360	20.3420
 2.2370	20.3130
 2.2380	20.2810
 2.2390	20.2420
 2.2400	20.2040
 2.2410	20.1670
 2.2420	20.1280
 2.2430	20.0860
 2.2440	20.0410
 2.2450	19.9930
 2.2460	19.9470
 2.2470	19.8970
 2.2480	19.8510
 2.2490	19.8100
 2.2500	19.7650
 2.2510	19.7190
 2.2520	19.6720
 2.2530	19.6210
 2.2540	19.5720
 2.2550	19.5230
 2.2560	19.4750
 2.2570	19.4280
 2.2580	19.3800
 2.2590	19.3310
 2.2600	19.2820
 2.2610	19.2330
 2.2620	19.1810
 2.2630	19.1270
 2.2640	19.0730
 2.2650	19.0210
 2.2660	18.9690
 2.2670	18.9180
 2.2680	18.8710
 2.2690	18.8200
 2.2700	18.7650
 2.2710	18.7140
 2.2720	18.6620
 2.2730	18.6140
 2.2740	18.5710
 2.2750	18.5230
 2.2760	18.4720
 2.2770	18.4230
 2.2780	18.3720
 2.2790	18.3270
 2.2800	18.2870
 2.2810	18.2460
 2.2820	18.2080
 2.2830	18.1670
 2.2840	18.1260
 2.2850	18.0830
 2.2860	18.0370
 2.2870	17.9920
 2.2880	17.9430
 2.2890	17.8990
 2.2900	17.8630
 2.2910	17.8200
 2.2920	17.7790
 2.2930	17.7310
 2.2940	17.6740
 2.2950	17.6180
 2.2960	17.5560
 2.2970	17.5040
 2.2980	17.4580
 2.2990	17.4130
 2.3000	17.3670
 2.3010	17.3230
 2.3020	17.2770
 2.3030	17.2310
 2.3040	17.1920
 2.3050	17.1530
 2.3060	17.1100
 2.3070	17.0680
 2.3080	17.0250
 2.3090	16.9860
 2.3100	16.9550
 2.3110	16.9210
 2.3120	16.8890
 2.3130	16.8600
 2.3140	16.8330
 2.3150	16.8070
 2.3160	16.7810
 2.3170	16.7610
 2.3180	16.7340
 2.3190	16.7050
 2.3200	16.6740
 2.3210	16.6400
 2.3220	16.6070
 2.3230	16.5720
 2.3240	16.5380
 2.3250	16.5060
 2.3260	16.4740
 2.3270	16.4460
 2.3280	16.4090
 2.3290	16.3710
 2.3300	16.3290
 2.3310	16.2790
 2.3320	16.2330
 2.3330	16.1850
 2.3340	16.1400
 2.3350	16.1000
 2.3360	16.0550
 2.3370	16.0100
 2.3380	15.9640
 2.3390	15.9120
 2.3400	15.8630
 2.3410	15.8160
 2.3420	15.7690
 2.3430	15.7200
 2.3440	15.6740
 2.3450	15.6280
 2.3460	15.5870
 2.3470	15.5490
 2.3480	15.5120
 2.3490	15.4810
 2.3500	15.4460
 2.3510	15.4090
 2.3520	15.3730
 2.3530	15.3380
 2.3540	15.3000
 2.3550	15.2690
 2.3560	15.2410
 2.3570	15.2100
 2.3580	15.1770
 2.3590	15.1440
 2.3600	15.1040
 2.3610	15.0700
 2.3620	15.0430
 2.3630	15.0120
 2.3640	14.9820
 2.3650	14.9390
 2.3660	14.8990
 2.3670	14.8690
 2.3680	14.8280
 2.3690	14.7970
 2.3700	14.7640
 2.3710	14.7180
 2.3720	14.6800
 2.3730	14.6370
 2.3740	14.5930
 2.3750	14.5510
 2.3760	14.5070
 2.3770	14.4640
 2.3780	14.4220
 2.3790	14.3790
 2.3800	14.3340
 2.3810	14.2980
 2.3820	14.2560
 2.3830	14.2050
 2.3840	14.1570
 2.3850	14.1000
 2.3860	14.0470
 2.3870	14.0070
 2.3880	13.9700
 2.3890	13.9330
 2.3900	13.8990
 2.3910	13.8640
 2.3920	13.8240
 2.3930	13.7950
 2.3940	13.7590
 2.3950	13.7170
 2.3960	13.6760
 2.3970	13.6190
 2.3980	13.5660
 2.3990	13.5140
 2.4000	13.4650
 2.4010	13.4250
 2.4020	13.3830
 2.4030	13.3380
 2.4040	13.2880
 2.4050	13.2430
 2.4060	13.1970
 2.4070	13.1470
 2.4080	13.1110
 2.4090	13.0700
 2.4100	13.0130
 2.4110	12.9720
 2.4120	12.9290
 2.4130	12.8780
 2.4140	12.8310
 2.4150	12.7710
 2.4160	12.7050
 2.4170	12.6380
 2.4180	12.5780
 2.4190	12.5400
 2.4200	12.5100
 2.4210	12.4770
 2.4220	12.4310
 2.4230	12.3730
 2.4240	12.3110
 2.4250	12.2630
 2.4260	12.2370
 2.4270	12.2050
 2.4280	12.1640
 2.4290	12.1150
 2.4300	12.0490
 2.4310	12.0010
 2.4320	11.9650
 2.4330	11.9230
 2.4340	11.8860
 2.4350	11.8380
 2.4360	11.7750
 2.4370	11.7270
 2.4380	11.6750
 2.4390	11.6320
 2.4400	11.6020
 2.4410	11.5620
 2.4420	11.5270
 2.4430	11.4820
 2.4440	11.4310
 2.4450	11.3900
 2.4460	11.3490
 2.4470	11.2980
 2.4480	11.2480
 2.4490	11.2070
 2.4500	11.1620
 2.4510	11.1240
 2.4520	11.0840
 2.4530	11.0500
 2.4540	11.0240
 2.4550	10.9990
 2.4560	10.9850
 2.4570	10.9390
 2.4580	10.8720
 2.4590	10.8200
 2.4600	10.7880
 2.4610	10.7660
 2.4620	10.7290
 2.4630	10.6950
 2.4640	10.6550
 2.4650	10.5950
 2.4660	10.5610
 2.4670	10.5300
 2.4680	10.4960
 2.4690	10.4660
 2.4700	10.4400
 2.4710	10.4110
 2.4720	10.3820
 2.4730	10.3690
 2.4740	10.3400
 2.4750	10.3000
 2.4760	10.2740
 2.4770	10.2440
 2.4780	10.2270
 2.4790	10.2260
 2.4800	10.2010
 2.4810	10.1630
 2.4820	10.1120
 2.4830	10.0730
 2.4840	10.0370
 2.4850	10.0360
 2.4860	10.0390
 2.4870	10.0370
 2.4880	10.0360
 2.4890	 9.9870
 2.4900	 9.9620
 2.4910	 9.9580
 2.4920	 9.9340
 2.4930	 9.9620
 2.4940	 9.9760
 2.4950	 9.9400
 2.4960	 9.9290
 2.4970	 9.9200
 2.4980	 9.9310
 2.4990	 9.9550
 2.5000	 9.9270
