Name: Quercus ilex
Type: vegetation
Class: Tree
Genus: Quercus
Species: ilex
Sample No.: JPL255
Owner: JPL
Wavelength Range: VSWIR
Origin: 34.13179; -118.11182; WGS84
Collection Date: 10/6/2016
Description: Samples were collected at the Huntington Garden in San Marino California as part of a JPL Subcontract studying HyTES imagery. Samples were taken to JPL and processed within 48 hours of collection. The same leaves were processed in the Nicolet and then measured using the ASD.
Measurement: Bidirectional reflectance
First Column: X
Second Column: Y
X Units: Wavelength (micrometer)
Y Units: Reflectance (percentage)
First X Value: 0.35
Last X Value: 2.5
Number of X Values: 2151
Additional Information: vegetation.tree.quercus.ilex.vswir.jpl255.jpl.asd.ancillary.txt

 0.3500	 6.6980
 0.3510	 6.5330
 0.3520	 6.3620
 0.3530	 6.2810
 0.3540	 6.3150
 0.3550	 6.3430
 0.3560	 6.3460
 0.3570	 6.3330
 0.3580	 6.3290
 0.3590	 6.3540
 0.3600	 6.3260
 0.3610	 6.2450
 0.3620	 6.2440
 0.3630	 6.2280
 0.3640	 6.2290
 0.3650	 6.2740
 0.3660	 6.2400
 0.3670	 6.1820
 0.3680	 6.1520
 0.3690	 6.1810
 0.3700	 6.1820
 0.3710	 6.1810
 0.3720	 6.1920
 0.3730	 6.1900
 0.3740	 6.1500
 0.3750	 6.1100
 0.3760	 6.1160
 0.3770	 6.1590
 0.3780	 6.1450
 0.3790	 6.1150
 0.3800	 6.2060
 0.3810	 6.2240
 0.3820	 6.1900
 0.3830	 6.1580
 0.3840	 6.1750
 0.3850	 6.1390
 0.3860	 6.1090
 0.3870	 6.1710
 0.3880	 6.1850
 0.3890	 6.1810
 0.3900	 6.1770
 0.3910	 6.1700
 0.3920	 6.1730
 0.3930	 6.1750
 0.3940	 6.1750
 0.3950	 6.2130
 0.3960	 6.2330
 0.3970	 6.2390
 0.3980	 6.2580
 0.3990	 6.2740
 0.4000	 6.2920
 0.4010	 6.3120
 0.4020	 6.3230
 0.4030	 6.3440
 0.4040	 6.3610
 0.4050	 6.3660
 0.4060	 6.3930
 0.4070	 6.4220
 0.4080	 6.4450
 0.4090	 6.4610
 0.4100	 6.4730
 0.4110	 6.4910
 0.4120	 6.5180
 0.4130	 6.5420
 0.4140	 6.5670
 0.4150	 6.5890
 0.4160	 6.6070
 0.4170	 6.6320
 0.4180	 6.6570
 0.4190	 6.6790
 0.4200	 6.6980
 0.4210	 6.7050
 0.4220	 6.7200
 0.4230	 6.7480
 0.4240	 6.7530
 0.4250	 6.7680
 0.4260	 6.7870
 0.4270	 6.7920
 0.4280	 6.8070
 0.4290	 6.8170
 0.4300	 6.8150
 0.4310	 6.8150
 0.4320	 6.8070
 0.4330	 6.8010
 0.4340	 6.8090
 0.4350	 6.8180
 0.4360	 6.8250
 0.4370	 6.8340
 0.4380	 6.8500
 0.4390	 6.8800
 0.4400	 6.9050
 0.4410	 6.9150
 0.4420	 6.9260
 0.4430	 6.9360
 0.4440	 6.9440
 0.4450	 6.9520
 0.4460	 6.9680
 0.4470	 6.9830
 0.4480	 6.9920
 0.4490	 6.9920
 0.4500	 7.0060
 0.4510	 7.0200
 0.4520	 7.0230
 0.4530	 7.0370
 0.4540	 7.0450
 0.4550	 7.0520
 0.4560	 7.0710
 0.4570	 7.0770
 0.4580	 7.0790
 0.4590	 7.0840
 0.4600	 7.0950
 0.4610	 7.1010
 0.4620	 7.1050
 0.4630	 7.1120
 0.4640	 7.1190
 0.4650	 7.1210
 0.4660	 7.1200
 0.4670	 7.1220
 0.4680	 7.1300
 0.4690	 7.1390
 0.4700	 7.1430
 0.4710	 7.1430
 0.4720	 7.1500
 0.4730	 7.1570
 0.4740	 7.1530
 0.4750	 7.1570
 0.4760	 7.1670
 0.4770	 7.1760
 0.4780	 7.1760
 0.4790	 7.1760
 0.4800	 7.1770
 0.4810	 7.1770
 0.4820	 7.1770
 0.4830	 7.1800
 0.4840	 7.1830
 0.4850	 7.1790
 0.4860	 7.1790
 0.4870	 7.1830
 0.4880	 7.1880
 0.4890	 7.1960
 0.4900	 7.2020
 0.4910	 7.2100
 0.4920	 7.2230
 0.4930	 7.2320
 0.4940	 7.2410
 0.4950	 7.2530
 0.4960	 7.2730
 0.4970	 7.2860
 0.4980	 7.2940
 0.4990	 7.3040
 0.5000	 7.3230
 0.5010	 7.3440
 0.5020	 7.3650
 0.5030	 7.3840
 0.5040	 7.4020
 0.5050	 7.4230
 0.5060	 7.4490
 0.5070	 7.4780
 0.5080	 7.5130
 0.5090	 7.5500
 0.5100	 7.5860
 0.5110	 7.6280
 0.5120	 7.6760
 0.5130	 7.7290
 0.5140	 7.7890
 0.5150	 7.8540
 0.5160	 7.9250
 0.5170	 8.0010
 0.5180	 8.0840
 0.5190	 8.1740
 0.5200	 8.2690
 0.5210	 8.3670
 0.5220	 8.4680
 0.5230	 8.5700
 0.5240	 8.6740
 0.5250	 8.7790
 0.5260	 8.8810
 0.5270	 8.9810
 0.5280	 9.0750
 0.5290	 9.1660
 0.5300	 9.2510
 0.5310	 9.3280
 0.5320	 9.4030
 0.5330	 9.4720
 0.5340	 9.5330
 0.5350	 9.5890
 0.5360	 9.6350
 0.5370	 9.6750
 0.5380	 9.7110
 0.5390	 9.7420
 0.5400	 9.7600
 0.5410	 9.7680
 0.5420	 9.7710
 0.5430	 9.7820
 0.5440	 9.8020
 0.5450	 9.8310
 0.5460	 9.8660
 0.5470	 9.9060
 0.5480	 9.9430
 0.5490	 9.9740
 0.5500	 9.9960
 0.5510	10.0120
 0.5520	10.0220
 0.5530	10.0250
 0.5540	10.0230
 0.5550	10.0120
 0.5560	 9.9910
 0.5570	 9.9630
 0.5580	 9.9250
 0.5590	 9.8820
 0.5600	 9.8350
 0.5610	 9.7810
 0.5620	 9.7200
 0.5630	 9.6510
 0.5640	 9.5750
 0.5650	 9.5010
 0.5660	 9.4300
 0.5670	 9.3610
 0.5680	 9.2920
 0.5690	 9.2190
 0.5700	 9.1450
 0.5710	 9.0750
 0.5720	 9.0070
 0.5730	 8.9410
 0.5740	 8.8750
 0.5750	 8.8100
 0.5760	 8.7530
 0.5770	 8.7080
 0.5780	 8.6730
 0.5790	 8.6420
 0.5800	 8.6110
 0.5810	 8.5750
 0.5820	 8.5330
 0.5830	 8.4970
 0.5840	 8.4690
 0.5850	 8.4490
 0.5860	 8.4270
 0.5870	 8.4030
 0.5880	 8.3800
 0.5890	 8.3640
 0.5900	 8.3480
 0.5910	 8.3300
 0.5920	 8.3100
 0.5930	 8.2930
 0.5940	 8.2840
 0.5950	 8.2830
 0.5960	 8.2870
 0.5970	 8.2920
 0.5980	 8.2920
 0.5990	 8.2870
 0.6000	 8.2810
 0.6010	 8.2730
 0.6020	 8.2610
 0.6030	 8.2460
 0.6040	 8.2290
 0.6050	 8.2120
 0.6060	 8.1910
 0.6070	 8.1650
 0.6080	 8.1390
 0.6090	 8.1070
 0.6100	 8.0610
 0.6110	 8.0050
 0.6120	 7.9820
 0.6130	 7.9740
 0.6140	 7.9670
 0.6150	 7.9520
 0.6160	 7.9370
 0.6170	 7.9220
 0.6180	 7.9050
 0.6190	 7.8900
 0.6200	 7.8750
 0.6210	 7.8620
 0.6220	 7.8540
 0.6230	 7.8470
 0.6240	 7.8400
 0.6250	 7.8330
 0.6260	 7.8320
 0.6270	 7.8300
 0.6280	 7.8270
 0.6290	 7.8250
 0.6300	 7.8190
 0.6310	 7.8140
 0.6320	 7.8140
 0.6330	 7.8190
 0.6340	 7.8160
 0.6350	 7.8090
 0.6360	 7.8020
 0.6370	 7.7900
 0.6380	 7.7770
 0.6390	 7.7640
 0.6400	 7.7500
 0.6410	 7.7360
 0.6420	 7.7210
 0.6430	 7.7050
 0.6440	 7.6880
 0.6450	 7.6740
 0.6460	 7.6630
 0.6470	 7.6510
 0.6480	 7.6390
 0.6490	 7.6280
 0.6500	 7.6190
 0.6510	 7.6140
 0.6520	 7.6080
 0.6530	 7.6040
 0.6540	 7.6030
 0.6550	 7.5990
 0.6560	 7.5930
 0.6570	 7.5870
 0.6580	 7.5820
 0.6590	 7.5760
 0.6600	 7.5690
 0.6610	 7.5610
 0.6620	 7.5540
 0.6630	 7.5480
 0.6640	 7.5450
 0.6650	 7.5430
 0.6660	 7.5420
 0.6670	 7.5430
 0.6680	 7.5460
 0.6690	 7.5520
 0.6700	 7.5570
 0.6710	 7.5640
 0.6720	 7.5750
 0.6730	 7.5870
 0.6740	 7.6000
 0.6750	 7.6140
 0.6760	 7.6290
 0.6770	 7.6440
 0.6780	 7.6620
 0.6790	 7.6840
 0.6800	 7.7060
 0.6810	 7.7320
 0.6820	 7.7600
 0.6830	 7.7880
 0.6840	 7.8160
 0.6850	 7.8450
 0.6860	 7.8770
 0.6870	 7.9120
 0.6880	 7.9490
 0.6890	 7.9930
 0.6900	 8.0500
 0.6910	 8.1210
 0.6920	 8.2130
 0.6930	 8.3280
 0.6940	 8.4710
 0.6950	 8.6510
 0.6960	 8.8720
 0.6970	 9.1360
 0.6980	 9.4460
 0.6990	 9.8060
 0.7000	10.2140
 0.7010	10.6690
 0.7020	11.1680
 0.7030	11.7080
 0.7040	12.2840
 0.7050	12.8960
 0.7060	13.5410
 0.7070	14.2140
 0.7080	14.9140
 0.7090	15.6430
 0.7100	16.3950
 0.7110	17.1720
 0.7120	17.9750
 0.7130	18.8010
 0.7140	19.6510
 0.7150	20.5220
 0.7160	21.4120
 0.7170	22.3230
 0.7180	23.2490
 0.7190	24.1870
 0.7200	25.1340
 0.7210	26.0900
 0.7220	27.0510
 0.7230	28.0130
 0.7240	28.9710
 0.7250	29.9250
 0.7260	30.8690
 0.7270	31.7960
 0.7280	32.7040
 0.7290	33.5930
 0.7300	34.4590
 0.7310	35.3000
 0.7320	36.1170
 0.7330	36.9060
 0.7340	37.6630
 0.7350	38.3900
 0.7360	39.0870
 0.7370	39.7530
 0.7380	40.3880
 0.7390	40.9910
 0.7400	41.5610
 0.7410	42.0990
 0.7420	42.6080
 0.7430	43.0870
 0.7440	43.5360
 0.7450	43.9560
 0.7460	44.3470
 0.7470	44.7120
 0.7480	45.0500
 0.7490	45.3610
 0.7500	45.6520
 0.7510	45.9200
 0.7520	46.1650
 0.7530	46.3910
 0.7540	46.6000
 0.7550	46.7900
 0.7560	46.9630
 0.7570	47.1200
 0.7580	47.2660
 0.7590	47.4010
 0.7600	47.5240
 0.7610	47.6370
 0.7620	47.7370
 0.7630	47.8280
 0.7640	47.9130
 0.7650	47.9910
 0.7660	48.0640
 0.7670	48.1300
 0.7680	48.1880
 0.7690	48.2410
 0.7700	48.2900
 0.7710	48.3360
 0.7720	48.3810
 0.7730	48.4190
 0.7740	48.4550
 0.7750	48.4930
 0.7760	48.5240
 0.7770	48.5520
 0.7780	48.5810
 0.7790	48.6100
 0.7800	48.6360
 0.7810	48.6630
 0.7820	48.6890
 0.7830	48.7110
 0.7840	48.7320
 0.7850	48.7520
 0.7860	48.7690
 0.7870	48.7850
 0.7880	48.8020
 0.7890	48.8180
 0.7900	48.8320
 0.7910	48.8470
 0.7920	48.8580
 0.7930	48.8670
 0.7940	48.8770
 0.7950	48.8900
 0.7960	48.9020
 0.7970	48.9110
 0.7980	48.9160
 0.7990	48.9240
 0.8000	48.9330
 0.8010	48.9380
 0.8020	48.9470
 0.8030	48.9520
 0.8040	48.9550
 0.8050	48.9620
 0.8060	48.9650
 0.8070	48.9650
 0.8080	48.9670
 0.8090	48.9730
 0.8100	48.9740
 0.8110	48.9740
 0.8120	48.9780
 0.8130	48.9810
 0.8140	48.9820
 0.8150	48.9820
 0.8160	48.9840
 0.8170	48.9850
 0.8180	48.9870
 0.8190	48.9890
 0.8200	48.9890
 0.8210	48.9900
 0.8220	48.9920
 0.8230	48.9950
 0.8240	48.9990
 0.8250	49.0010
 0.8260	49.0020
 0.8270	49.0060
 0.8280	49.0130
 0.8290	49.0160
 0.8300	49.0170
 0.8310	49.0190
 0.8320	49.0230
 0.8330	49.0290
 0.8340	49.0380
 0.8350	49.0450
 0.8360	49.0530
 0.8370	49.0620
 0.8380	49.0710
 0.8390	49.0780
 0.8400	49.0850
 0.8410	49.0950
 0.8420	49.1060
 0.8430	49.1190
 0.8440	49.1320
 0.8450	49.1440
 0.8460	49.1530
 0.8470	49.1650
 0.8480	49.1780
 0.8490	49.1930
 0.8500	49.2070
 0.8510	49.2160
 0.8520	49.2270
 0.8530	49.2420
 0.8540	49.2560
 0.8550	49.2670
 0.8560	49.2810
 0.8570	49.2970
 0.8580	49.3070
 0.8590	49.3170
 0.8600	49.3320
 0.8610	49.3520
 0.8620	49.3670
 0.8630	49.3850
 0.8640	49.4020
 0.8650	49.4140
 0.8660	49.4280
 0.8670	49.4410
 0.8680	49.4540
 0.8690	49.4690
 0.8700	49.4880
 0.8710	49.5020
 0.8720	49.5150
 0.8730	49.5350
 0.8740	49.5540
 0.8750	49.5730
 0.8760	49.5900
 0.8770	49.6030
 0.8780	49.6100
 0.8790	49.6230
 0.8800	49.6430
 0.8810	49.6560
 0.8820	49.6740
 0.8830	49.6920
 0.8840	49.7070
 0.8850	49.7130
 0.8860	49.7250
 0.8870	49.7400
 0.8880	49.7530
 0.8890	49.7660
 0.8900	49.7770
 0.8910	49.7890
 0.8920	49.8040
 0.8930	49.8160
 0.8940	49.8270
 0.8950	49.8380
 0.8960	49.8540
 0.8970	49.8670
 0.8980	49.8760
 0.8990	49.8870
 0.9000	49.9020
 0.9010	49.9150
 0.9020	49.9270
 0.9030	49.9400
 0.9040	49.9520
 0.9050	49.9610
 0.9060	49.9700
 0.9070	49.9820
 0.9080	49.9900
 0.9090	50.0010
 0.9100	50.0140
 0.9110	50.0230
 0.9120	50.0310
 0.9130	50.0430
 0.9140	50.0530
 0.9150	50.0560
 0.9160	50.0630
 0.9170	50.0720
 0.9180	50.0810
 0.9190	50.0860
 0.9200	50.0920
 0.9210	50.0940
 0.9220	50.0940
 0.9230	50.0970
 0.9240	50.1060
 0.9250	50.1080
 0.9260	50.1010
 0.9270	50.0960
 0.9280	50.0900
 0.9290	50.0810
 0.9300	50.0720
 0.9310	50.0690
 0.9320	50.0700
 0.9330	50.0680
 0.9340	50.0590
 0.9350	50.0420
 0.9360	50.0280
 0.9370	50.0150
 0.9380	50.0030
 0.9390	49.9930
 0.9400	49.9780
 0.9410	49.9630
 0.9420	49.9510
 0.9430	49.9250
 0.9440	49.9020
 0.9450	49.8770
 0.9460	49.8490
 0.9470	49.8230
 0.9480	49.8020
 0.9490	49.7760
 0.9500	49.7370
 0.9510	49.6970
 0.9520	49.6580
 0.9530	49.6150
 0.9540	49.5670
 0.9550	49.5300
 0.9560	49.4910
 0.9570	49.4500
 0.9580	49.4070
 0.9590	49.3710
 0.9600	49.3270
 0.9610	49.2880
 0.9620	49.2650
 0.9630	49.2340
 0.9640	49.2120
 0.9650	49.1920
 0.9660	49.1670
 0.9670	49.1680
 0.9680	49.1580
 0.9690	49.1410
 0.9700	49.1300
 0.9710	49.1060
 0.9720	49.0940
 0.9730	49.0940
 0.9740	49.0910
 0.9750	49.0870
 0.9760	49.0850
 0.9770	49.0880
 0.9780	49.0980
 0.9790	49.0940
 0.9800	49.0830
 0.9810	49.0770
 0.9820	49.0830
 0.9830	49.0970
 0.9840	49.1090
 0.9850	49.1090
 0.9860	49.1010
 0.9870	49.1130
 0.9880	49.1340
 0.9890	49.1580
 0.9900	49.1820
 0.9910	49.1950
 0.9920	49.1980
 0.9930	49.2070
 0.9940	49.2400
 0.9950	49.2650
 0.9960	49.2890
 0.9970	49.3090
 0.9980	49.3190
 0.9990	49.3340
 1.0000	49.3560
 1.0010	50.4540
 1.0020	50.4690
 1.0030	50.4840
 1.0040	50.5020
 1.0050	50.5180
 1.0060	50.5370
 1.0070	50.5610
 1.0080	50.5830
 1.0090	50.6060
 1.0100	50.6250
 1.0110	50.6420
 1.0120	50.6600
 1.0130	50.6760
 1.0140	50.6940
 1.0150	50.7160
 1.0160	50.7340
 1.0170	50.7510
 1.0180	50.7720
 1.0190	50.7930
 1.0200	50.8110
 1.0210	50.8280
 1.0220	50.8450
 1.0230	50.8650
 1.0240	50.8860
 1.0250	50.9040
 1.0260	50.9240
 1.0270	50.9430
 1.0280	50.9610
 1.0290	50.9780
 1.0300	50.9950
 1.0310	51.0140
 1.0320	51.0330
 1.0330	51.0510
 1.0340	51.0720
 1.0350	51.0950
 1.0360	51.1110
 1.0370	51.1250
 1.0380	51.1410
 1.0390	51.1560
 1.0400	51.1710
 1.0410	51.1900
 1.0420	51.2040
 1.0430	51.2160
 1.0440	51.2310
 1.0450	51.2480
 1.0460	51.2610
 1.0470	51.2710
 1.0480	51.2830
 1.0490	51.2900
 1.0500	51.3000
 1.0510	51.3140
 1.0520	51.3250
 1.0530	51.3360
 1.0540	51.3460
 1.0550	51.3540
 1.0560	51.3580
 1.0570	51.3650
 1.0580	51.3720
 1.0590	51.3790
 1.0600	51.3890
 1.0610	51.3970
 1.0620	51.4030
 1.0630	51.4080
 1.0640	51.4140
 1.0650	51.4190
 1.0660	51.4230
 1.0670	51.4260
 1.0680	51.4290
 1.0690	51.4320
 1.0700	51.4350
 1.0710	51.4390
 1.0720	51.4420
 1.0730	51.4470
 1.0740	51.4480
 1.0750	51.4440
 1.0760	51.4440
 1.0770	51.4430
 1.0780	51.4440
 1.0790	51.4500
 1.0800	51.4510
 1.0810	51.4510
 1.0820	51.4500
 1.0830	51.4460
 1.0840	51.4430
 1.0850	51.4390
 1.0860	51.4370
 1.0870	51.4330
 1.0880	51.4290
 1.0890	51.4270
 1.0900	51.4250
 1.0910	51.4220
 1.0920	51.4230
 1.0930	51.4200
 1.0940	51.4150
 1.0950	51.4100
 1.0960	51.4020
 1.0970	51.3970
 1.0980	51.3970
 1.0990	51.3920
 1.1000	51.3840
 1.1010	51.3790
 1.1020	51.3710
 1.1030	51.3650
 1.1040	51.3600
 1.1050	51.3540
 1.1060	51.3470
 1.1070	51.3360
 1.1080	51.3280
 1.1090	51.3200
 1.1100	51.3110
 1.1110	51.3030
 1.1120	51.2930
 1.1130	51.2810
 1.1140	51.2690
 1.1150	51.2560
 1.1160	51.2420
 1.1170	51.2270
 1.1180	51.2110
 1.1190	51.1960
 1.1200	51.1760
 1.1210	51.1540
 1.1220	51.1320
 1.1230	51.1040
 1.1240	51.0720
 1.1250	51.0370
 1.1260	51.0020
 1.1270	50.9580
 1.1280	50.9090
 1.1290	50.8550
 1.1300	50.7940
 1.1310	50.7290
 1.1320	50.6600
 1.1330	50.5850
 1.1340	50.5050
 1.1350	50.4180
 1.1360	50.3260
 1.1370	50.2280
 1.1380	50.1220
 1.1390	50.0120
 1.1400	49.8970
 1.1410	49.7780
 1.1420	49.6560
 1.1430	49.5320
 1.1440	49.4090
 1.1450	49.2810
 1.1460	49.1590
 1.1470	49.0390
 1.1480	48.9210
 1.1490	48.8030
 1.1500	48.6930
 1.1510	48.5850
 1.1520	48.4830
 1.1530	48.3850
 1.1540	48.2960
 1.1550	48.2130
 1.1560	48.1360
 1.1570	48.0660
 1.1580	48.0020
 1.1590	47.9400
 1.1600	47.8850
 1.1610	47.8350
 1.1620	47.7890
 1.1630	47.7500
 1.1640	47.7150
 1.1650	47.6810
 1.1660	47.6510
 1.1670	47.6240
 1.1680	47.6010
 1.1690	47.5780
 1.1700	47.5580
 1.1710	47.5370
 1.1720	47.5160
 1.1730	47.4950
 1.1740	47.4730
 1.1750	47.4540
 1.1760	47.4340
 1.1770	47.4130
 1.1780	47.3910
 1.1790	47.3680
 1.1800	47.3470
 1.1810	47.3230
 1.1820	47.3000
 1.1830	47.2780
 1.1840	47.2550
 1.1850	47.2330
 1.1860	47.2140
 1.1870	47.1930
 1.1880	47.1750
 1.1890	47.1570
 1.1900	47.1420
 1.1910	47.1290
 1.1920	47.1180
 1.1930	47.1090
 1.1940	47.0990
 1.1950	47.0890
 1.1960	47.0810
 1.1970	47.0760
 1.1980	47.0710
 1.1990	47.0710
 1.2000	47.0740
 1.2010	47.0760
 1.2020	47.0810
 1.2030	47.0870
 1.2040	47.0950
 1.2050	47.1040
 1.2060	47.1130
 1.2070	47.1270
 1.2080	47.1380
 1.2090	47.1550
 1.2100	47.1760
 1.2110	47.1960
 1.2120	47.2180
 1.2130	47.2420
 1.2140	47.2650
 1.2150	47.2930
 1.2160	47.3250
 1.2170	47.3570
 1.2180	47.3910
 1.2190	47.4260
 1.2200	47.4580
 1.2210	47.4920
 1.2220	47.5270
 1.2230	47.5610
 1.2240	47.6000
 1.2250	47.6360
 1.2260	47.6720
 1.2270	47.7070
 1.2280	47.7390
 1.2290	47.7710
 1.2300	47.8020
 1.2310	47.8310
 1.2320	47.8590
 1.2330	47.8860
 1.2340	47.9130
 1.2350	47.9400
 1.2360	47.9650
 1.2370	47.9910
 1.2380	48.0160
 1.2390	48.0380
 1.2400	48.0610
 1.2410	48.0850
 1.2420	48.1060
 1.2430	48.1240
 1.2440	48.1440
 1.2450	48.1620
 1.2460	48.1800
 1.2470	48.1980
 1.2480	48.2140
 1.2490	48.2310
 1.2500	48.2460
 1.2510	48.2620
 1.2520	48.2770
 1.2530	48.2890
 1.2540	48.3010
 1.2550	48.3120
 1.2560	48.3220
 1.2570	48.3320
 1.2580	48.3390
 1.2590	48.3470
 1.2600	48.3550
 1.2610	48.3600
 1.2620	48.3620
 1.2630	48.3670
 1.2640	48.3670
 1.2650	48.3660
 1.2660	48.3650
 1.2670	48.3650
 1.2680	48.3650
 1.2690	48.3660
 1.2700	48.3660
 1.2710	48.3650
 1.2720	48.3600
 1.2730	48.3550
 1.2740	48.3500
 1.2750	48.3440
 1.2760	48.3400
 1.2770	48.3350
 1.2780	48.3280
 1.2790	48.3210
 1.2800	48.3100
 1.2810	48.2980
 1.2820	48.2840
 1.2830	48.2700
 1.2840	48.2530
 1.2850	48.2350
 1.2860	48.2160
 1.2870	48.1940
 1.2880	48.1680
 1.2890	48.1440
 1.2900	48.1160
 1.2910	48.0830
 1.2920	48.0500
 1.2930	48.0110
 1.2940	47.9710
 1.2950	47.9310
 1.2960	47.8890
 1.2970	47.8460
 1.2980	47.8000
 1.2990	47.7520
 1.3000	47.7020
 1.3010	47.6480
 1.3020	47.5910
 1.3030	47.5320
 1.3040	47.4710
 1.3050	47.4070
 1.3060	47.3420
 1.3070	47.2740
 1.3080	47.2050
 1.3090	47.1350
 1.3100	47.0620
 1.3110	46.9870
 1.3120	46.9080
 1.3130	46.8260
 1.3140	46.7430
 1.3150	46.6590
 1.3160	46.5710
 1.3170	46.4810
 1.3180	46.3880
 1.3190	46.2910
 1.3200	46.1890
 1.3210	46.0860
 1.3220	45.9810
 1.3230	45.8750
 1.3240	45.7690
 1.3250	45.6610
 1.3260	45.5490
 1.3270	45.4340
 1.3280	45.3150
 1.3290	45.1920
 1.3300	45.0690
 1.3310	44.9440
 1.3320	44.8180
 1.3330	44.6900
 1.3340	44.5610
 1.3350	44.4320
 1.3360	44.3010
 1.3370	44.1690
 1.3380	44.0370
 1.3390	43.9040
 1.3400	43.7700
 1.3410	43.6400
 1.3420	43.5080
 1.3430	43.3770
 1.3440	43.2470
 1.3450	43.1180
 1.3460	42.9900
 1.3470	42.8650
 1.3480	42.7390
 1.3490	42.6160
 1.3500	42.4960
 1.3510	42.3740
 1.3520	42.2540
 1.3530	42.1370
 1.3540	42.0160
 1.3550	41.8970
 1.3560	41.7770
 1.3570	41.6560
 1.3580	41.5350
 1.3590	41.4100
 1.3600	41.2820
 1.3610	41.1510
 1.3620	41.0150
 1.3630	40.8740
 1.3640	40.7290
 1.3650	40.5740
 1.3660	40.4140
 1.3670	40.2470
 1.3680	40.0680
 1.3690	39.8810
 1.3700	39.6800
 1.3710	39.4670
 1.3720	39.2410
 1.3730	38.9980
 1.3740	38.7410
 1.3750	38.4650
 1.3760	38.1680
 1.3770	37.8520
 1.3780	37.5100
 1.3790	37.1460
 1.3800	36.7600
 1.3810	36.3470
 1.3820	35.9140
 1.3830	35.4580
 1.3840	34.9820
 1.3850	34.4830
 1.3860	33.9670
 1.3870	33.4270
 1.3880	32.8780
 1.3890	32.3120
 1.3900	31.7330
 1.3910	31.1520
 1.3920	30.5630
 1.3930	29.9690
 1.3940	29.3770
 1.3950	28.7800
 1.3960	28.1900
 1.3970	27.6110
 1.3980	27.0390
 1.3990	26.4870
 1.4000	25.9480
 1.4010	25.4210
 1.4020	24.9150
 1.4030	24.4220
 1.4040	23.9500
 1.4050	23.5000
 1.4060	23.0710
 1.4070	22.6690
 1.4080	22.2860
 1.4090	21.9220
 1.4100	21.5820
 1.4110	21.2610
 1.4120	20.9620
 1.4130	20.6820
 1.4140	20.4190
 1.4150	20.1780
 1.4160	19.9540
 1.4170	19.7450
 1.4180	19.5550
 1.4190	19.3760
 1.4200	19.2110
 1.4210	19.0590
 1.4220	18.9180
 1.4230	18.7890
 1.4240	18.6710
 1.4250	18.5630
 1.4260	18.4660
 1.4270	18.3760
 1.4280	18.2950
 1.4290	18.2200
 1.4300	18.1540
 1.4310	18.0930
 1.4320	18.0410
 1.4330	17.9940
 1.4340	17.9540
 1.4350	17.9180
 1.4360	17.8870
 1.4370	17.8610
 1.4380	17.8400
 1.4390	17.8220
 1.4400	17.8090
 1.4410	17.7990
 1.4420	17.7930
 1.4430	17.7890
 1.4440	17.7880
 1.4450	17.7890
 1.4460	17.7920
 1.4470	17.7970
 1.4480	17.8050
 1.4490	17.8140
 1.4500	17.8270
 1.4510	17.8400
 1.4520	17.8540
 1.4530	17.8700
 1.4540	17.8880
 1.4550	17.9090
 1.4560	17.9310
 1.4570	17.9560
 1.4580	17.9840
 1.4590	18.0140
 1.4600	18.0480
 1.4610	18.0860
 1.4620	18.1280
 1.4630	18.1740
 1.4640	18.2250
 1.4650	18.2790
 1.4660	18.3390
 1.4670	18.4040
 1.4680	18.4740
 1.4690	18.5480
 1.4700	18.6250
 1.4710	18.7070
 1.4720	18.7920
 1.4730	18.8820
 1.4740	18.9760
 1.4750	19.0730
 1.4760	19.1750
 1.4770	19.2780
 1.4780	19.3830
 1.4790	19.4910
 1.4800	19.6010
 1.4810	19.7120
 1.4820	19.8250
 1.4830	19.9390
 1.4840	20.0550
 1.4850	20.1720
 1.4860	20.2890
 1.4870	20.4100
 1.4880	20.5290
 1.4890	20.6500
 1.4900	20.7710
 1.4910	20.8940
 1.4920	21.0170
 1.4930	21.1410
 1.4940	21.2650
 1.4950	21.3910
 1.4960	21.5160
 1.4970	21.6390
 1.4980	21.7650
 1.4990	21.8910
 1.5000	22.0180
 1.5010	22.1470
 1.5020	22.2740
 1.5030	22.4020
 1.5040	22.5280
 1.5050	22.6510
 1.5060	22.7770
 1.5070	22.9040
 1.5080	23.0300
 1.5090	23.1570
 1.5100	23.2850
 1.5110	23.4090
 1.5120	23.5330
 1.5130	23.6570
 1.5140	23.7790
 1.5150	23.9030
 1.5160	24.0260
 1.5170	24.1490
 1.5180	24.2700
 1.5190	24.3920
 1.5200	24.5110
 1.5210	24.6290
 1.5220	24.7470
 1.5230	24.8640
 1.5240	24.9800
 1.5250	25.0970
 1.5260	25.2130
 1.5270	25.3280
 1.5280	25.4400
 1.5290	25.5490
 1.5300	25.6580
 1.5310	25.7680
 1.5320	25.8770
 1.5330	25.9860
 1.5340	26.0920
 1.5350	26.1980
 1.5360	26.3040
 1.5370	26.4090
 1.5380	26.5120
 1.5390	26.6150
 1.5400	26.7170
 1.5410	26.8180
 1.5420	26.9190
 1.5430	27.0190
 1.5440	27.1180
 1.5450	27.2160
 1.5460	27.3130
 1.5470	27.4110
 1.5480	27.5060
 1.5490	27.6030
 1.5500	27.6980
 1.5510	27.7910
 1.5520	27.8850
 1.5530	27.9760
 1.5540	28.0660
 1.5550	28.1560
 1.5560	28.2450
 1.5570	28.3320
 1.5580	28.4180
 1.5590	28.5040
 1.5600	28.5890
 1.5610	28.6730
 1.5620	28.7580
 1.5630	28.8400
 1.5640	28.9200
 1.5650	29.0000
 1.5660	29.0790
 1.5670	29.1570
 1.5680	29.2350
 1.5690	29.3120
 1.5700	29.3890
 1.5710	29.4670
 1.5720	29.5440
 1.5730	29.6210
 1.5740	29.6960
 1.5750	29.7690
 1.5760	29.8440
 1.5770	29.9170
 1.5780	29.9910
 1.5790	30.0660
 1.5800	30.1410
 1.5810	30.2160
 1.5820	30.2880
 1.5830	30.3610
 1.5840	30.4350
 1.5850	30.5060
 1.5860	30.5790
 1.5870	30.6520
 1.5880	30.7250
 1.5890	30.7970
 1.5900	30.8710
 1.5910	30.9450
 1.5920	31.0170
 1.5930	31.0890
 1.5940	31.1640
 1.5950	31.2380
 1.5960	31.3100
 1.5970	31.3820
 1.5980	31.4530
 1.5990	31.5230
 1.6000	31.5940
 1.6010	31.6650
 1.6020	31.7330
 1.6030	31.8010
 1.6040	31.8680
 1.6050	31.9350
 1.6060	32.0020
 1.6070	32.0690
 1.6080	32.1350
 1.6090	32.1980
 1.6100	32.2620
 1.6110	32.3250
 1.6120	32.3870
 1.6130	32.4490
 1.6140	32.5120
 1.6150	32.5720
 1.6160	32.6310
 1.6170	32.6880
 1.6180	32.7430
 1.6190	32.8000
 1.6200	32.8540
 1.6210	32.9080
 1.6220	32.9590
 1.6230	33.0080
 1.6240	33.0570
 1.6250	33.1070
 1.6260	33.1560
 1.6270	33.2040
 1.6280	33.2500
 1.6290	33.2960
 1.6300	33.3440
 1.6310	33.3890
 1.6320	33.4330
 1.6330	33.4750
 1.6340	33.5130
 1.6350	33.5520
 1.6360	33.5900
 1.6370	33.6270
 1.6380	33.6660
 1.6390	33.7010
 1.6400	33.7340
 1.6410	33.7640
 1.6420	33.7900
 1.6430	33.8160
 1.6440	33.8400
 1.6450	33.8630
 1.6460	33.8850
 1.6470	33.9030
 1.6480	33.9170
 1.6490	33.9290
 1.6500	33.9390
 1.6510	33.9430
 1.6520	33.9470
 1.6530	33.9480
 1.6540	33.9460
 1.6550	33.9420
 1.6560	33.9360
 1.6570	33.9290
 1.6580	33.9190
 1.6590	33.9080
 1.6600	33.8970
 1.6610	33.8820
 1.6620	33.8680
 1.6630	33.8540
 1.6640	33.8390
 1.6650	33.8250
 1.6660	33.8100
 1.6670	33.7940
 1.6680	33.7800
 1.6690	33.7660
 1.6700	33.7510
 1.6710	33.7350
 1.6720	33.7180
 1.6730	33.6980
 1.6740	33.6770
 1.6750	33.6550
 1.6760	33.6300
 1.6770	33.6050
 1.6780	33.5780
 1.6790	33.5470
 1.6800	33.5150
 1.6810	33.4820
 1.6820	33.4440
 1.6830	33.4020
 1.6840	33.3590
 1.6850	33.3130
 1.6860	33.2640
 1.6870	33.2150
 1.6880	33.1650
 1.6890	33.1120
 1.6900	33.0590
 1.6910	33.0050
 1.6920	32.9500
 1.6930	32.8930
 1.6940	32.8370
 1.6950	32.7800
 1.6960	32.7240
 1.6970	32.6690
 1.6980	32.6120
 1.6990	32.5530
 1.7000	32.4950
 1.7010	32.4370
 1.7020	32.3780
 1.7030	32.3180
 1.7040	32.2600
 1.7050	32.2000
 1.7060	32.1420
 1.7070	32.0870
 1.7080	32.0270
 1.7090	31.9660
 1.7100	31.9050
 1.7110	31.8420
 1.7120	31.7820
 1.7130	31.7230
 1.7140	31.6650
 1.7150	31.6080
 1.7160	31.5510
 1.7170	31.4970
 1.7180	31.4420
 1.7190	31.3890
 1.7200	31.3370
 1.7210	31.2850
 1.7220	31.2350
 1.7230	31.1900
 1.7240	31.1460
 1.7250	31.1030
 1.7260	31.0640
 1.7270	31.0270
 1.7280	30.9910
 1.7290	30.9600
 1.7300	30.9330
 1.7310	30.9060
 1.7320	30.8840
 1.7330	30.8590
 1.7340	30.8320
 1.7350	30.8080
 1.7360	30.7860
 1.7370	30.7600
 1.7380	30.7370
 1.7390	30.7050
 1.7400	30.6680
 1.7410	30.6280
 1.7420	30.5820
 1.7430	30.5370
 1.7440	30.4910
 1.7450	30.4430
 1.7460	30.3940
 1.7470	30.3420
 1.7480	30.2850
 1.7490	30.2300
 1.7500	30.1740
 1.7510	30.1190
 1.7520	30.0660
 1.7530	30.0100
 1.7540	29.9540
 1.7550	29.8970
 1.7560	29.8410
 1.7570	29.7890
 1.7580	29.7380
 1.7590	29.6890
 1.7600	29.6420
 1.7610	29.5920
 1.7620	29.5470
 1.7630	29.5040
 1.7640	29.4640
 1.7650	29.4290
 1.7660	29.3940
 1.7670	29.3600
 1.7680	29.3280
 1.7690	29.2980
 1.7700	29.2690
 1.7710	29.2430
 1.7720	29.2170
 1.7730	29.1910
 1.7740	29.1660
 1.7750	29.1410
 1.7760	29.1170
 1.7770	29.0940
 1.7780	29.0720
 1.7790	29.0490
 1.7800	29.0300
 1.7810	29.0140
 1.7820	29.0010
 1.7830	28.9920
 1.7840	28.9800
 1.7850	28.9700
 1.7860	28.9610
 1.7870	28.9520
 1.7880	28.9450
 1.7890	28.9410
 1.7900	28.9390
 1.7910	28.9390
 1.7920	28.9410
 1.7930	28.9440
 1.7940	28.9470
 1.7950	28.9520
 1.7960	28.9610
 1.7970	28.9690
 1.7980	28.9790
 1.7990	28.9900
 1.8000	29.0020
 1.8010	29.0140
 1.8020	29.0300
 1.8030	29.0430
 1.8040	29.0550
 1.8050	29.0680
 1.8060	29.0810
 1.8070	29.0940
 1.8080	29.1100
 1.8090	29.1230
 1.8100	29.1340
 1.8110	29.1470
 1.8120	29.1600
 1.8130	29.1700
 1.8140	29.1790
 1.8150	29.1860
 1.8160	29.1910
 1.8170	29.1990
 1.8180	29.2080
 1.8190	29.2140
 1.8200	29.2200
 1.8210	29.2230
 1.8220	29.2260
 1.8230	29.2300
 1.8240	29.2320
 1.8250	29.2330
 1.8260	29.2330
 1.8270	29.2310
 1.8280	29.2270
 1.8290	29.2230
 1.8300	29.2160
 1.8310	28.8650
 1.8320	28.8550
 1.8330	28.8390
 1.8340	28.8150
 1.8350	28.7910
 1.8360	28.7650
 1.8370	28.7290
 1.8380	28.6890
 1.8390	28.6470
 1.8400	28.5990
 1.8410	28.5470
 1.8420	28.4920
 1.8430	28.4320
 1.8440	28.3640
 1.8450	28.2880
 1.8460	28.2020
 1.8470	28.1080
 1.8480	28.0040
 1.8490	27.8880
 1.8500	27.7630
 1.8510	27.6300
 1.8520	27.4840
 1.8530	27.3210
 1.8540	27.1520
 1.8550	26.9700
 1.8560	26.7730
 1.8570	26.5630
 1.8580	26.3390
 1.8590	26.0990
 1.8600	25.8420
 1.8610	25.5720
 1.8620	25.2870
 1.8630	24.9880
 1.8640	24.6750
 1.8650	24.3400
 1.8660	23.9850
 1.8670	23.6110
 1.8680	23.2180
 1.8690	22.8080
 1.8700	22.3830
 1.8710	21.9430
 1.8720	21.4920
 1.8730	21.0270
 1.8740	20.5490
 1.8750	20.0640
 1.8760	19.5670
 1.8770	19.0640
 1.8780	18.5600
 1.8790	18.0500
 1.8800	17.5480
 1.8810	17.0490
 1.8820	16.5540
 1.8830	16.0630
 1.8840	15.5830
 1.8850	15.1100
 1.8860	14.6480
 1.8870	14.2050
 1.8880	13.7750
 1.8890	13.3640
 1.8900	12.9730
 1.8910	12.6040
 1.8920	12.2530
 1.8930	11.9260
 1.8940	11.6200
 1.8950	11.3380
 1.8960	11.0750
 1.8970	10.8340
 1.8980	10.6180
 1.8990	10.4210
 1.9000	10.2390
 1.9010	10.0810
 1.9020	 9.9310
 1.9030	 9.7950
 1.9040	 9.6740
 1.9050	 9.5670
 1.9060	 9.4720
 1.9070	 9.3930
 1.9080	 9.3230
 1.9090	 9.2560
 1.9100	 9.1980
 1.9110	 9.1460
 1.9120	 9.1010
 1.9130	 9.0610
 1.9140	 9.0300
 1.9150	 9.0040
 1.9160	 8.9800
 1.9170	 8.9610
 1.9180	 8.9420
 1.9190	 8.9230
 1.9200	 8.9090
 1.9210	 8.8940
 1.9220	 8.8820
 1.9230	 8.8720
 1.9240	 8.8670
 1.9250	 8.8630
 1.9260	 8.8630
 1.9270	 8.8650
 1.9280	 8.8680
 1.9290	 8.8720
 1.9300	 8.8750
 1.9310	 8.8790
 1.9320	 8.8860
 1.9330	 8.8930
 1.9340	 8.8990
 1.9350	 8.9100
 1.9360	 8.9230
 1.9370	 8.9370
 1.9380	 8.9530
 1.9390	 8.9710
 1.9400	 8.9900
 1.9410	 9.0130
 1.9420	 9.0320
 1.9430	 9.0520
 1.9440	 9.0720
 1.9450	 9.0900
 1.9460	 9.1120
 1.9470	 9.1370
 1.9480	 9.1610
 1.9490	 9.1860
 1.9500	 9.2140
 1.9510	 9.2410
 1.9520	 9.2670
 1.9530	 9.2950
 1.9540	 9.3260
 1.9550	 9.3560
 1.9560	 9.3880
 1.9570	 9.4190
 1.9580	 9.4490
 1.9590	 9.4820
 1.9600	 9.5180
 1.9610	 9.5540
 1.9620	 9.5910
 1.9630	 9.6300
 1.9640	 9.6660
 1.9650	 9.7030
 1.9660	 9.7400
 1.9670	 9.7820
 1.9680	 9.8220
 1.9690	 9.8620
 1.9700	 9.9040
 1.9710	 9.9460
 1.9720	 9.9890
 1.9730	10.0320
 1.9740	10.0800
 1.9750	10.1280
 1.9760	10.1790
 1.9770	10.2270
 1.9780	10.2770
 1.9790	10.3260
 1.9800	10.3730
 1.9810	10.4230
 1.9820	10.4780
 1.9830	10.5320
 1.9840	10.5860
 1.9850	10.6400
 1.9860	10.6950
 1.9870	10.7500
 1.9880	10.8010
 1.9890	10.8550
 1.9900	10.9080
 1.9910	10.9630
 1.9920	11.0190
 1.9930	11.0800
 1.9940	11.1380
 1.9950	11.1970
 1.9960	11.2560
 1.9970	11.3120
 1.9980	11.3720
 1.9990	11.4350
 2.0000	11.4960
 2.0010	11.5530
 2.0020	11.6130
 2.0030	11.6730
 2.0040	11.7290
 2.0050	11.7880
 2.0060	11.8500
 2.0070	11.9110
 2.0080	11.9690
 2.0090	12.0290
 2.0100	12.0910
 2.0110	12.1510
 2.0120	12.2100
 2.0130	12.2690
 2.0140	12.3270
 2.0150	12.3820
 2.0160	12.4380
 2.0170	12.4940
 2.0180	12.5480
 2.0190	12.6030
 2.0200	12.6560
 2.0210	12.7080
 2.0220	12.7590
 2.0230	12.8100
 2.0240	12.8620
 2.0250	12.9140
 2.0260	12.9650
 2.0270	13.0160
 2.0280	13.0640
 2.0290	13.1100
 2.0300	13.1540
 2.0310	13.1970
 2.0320	13.2390
 2.0330	13.2800
 2.0340	13.3190
 2.0350	13.3580
 2.0360	13.3950
 2.0370	13.4330
 2.0380	13.4700
 2.0390	13.5070
 2.0400	13.5420
 2.0410	13.5770
 2.0420	13.6120
 2.0430	13.6430
 2.0440	13.6760
 2.0450	13.7090
 2.0460	13.7400
 2.0470	13.7700
 2.0480	13.8010
 2.0490	13.8310
 2.0500	13.8620
 2.0510	13.8940
 2.0520	13.9270
 2.0530	13.9610
 2.0540	13.9930
 2.0550	14.0250
 2.0560	14.0600
 2.0570	14.0940
 2.0580	14.1240
 2.0590	14.1550
 2.0600	14.1840
 2.0610	14.2160
 2.0620	14.2440
 2.0630	14.2780
 2.0640	14.3170
 2.0650	14.3530
 2.0660	14.3890
 2.0670	14.4240
 2.0680	14.4560
 2.0690	14.4910
 2.0700	14.5290
 2.0710	14.5640
 2.0720	14.6000
 2.0730	14.6370
 2.0740	14.6720
 2.0750	14.7050
 2.0760	14.7410
 2.0770	14.7810
 2.0780	14.8180
 2.0790	14.8570
 2.0800	14.8940
 2.0810	14.9300
 2.0820	14.9650
 2.0830	14.9970
 2.0840	15.0320
 2.0850	15.0670
 2.0860	15.1010
 2.0870	15.1320
 2.0880	15.1670
 2.0890	15.2010
 2.0900	15.2340
 2.0910	15.2680
 2.0920	15.3050
 2.0930	15.3380
 2.0940	15.3680
 2.0950	15.4000
 2.0960	15.4320
 2.0970	15.4660
 2.0980	15.5020
 2.0990	15.5370
 2.1000	15.5760
 2.1010	15.6100
 2.1020	15.6410
 2.1030	15.6730
 2.1040	15.7020
 2.1050	15.7300
 2.1060	15.7620
 2.1070	15.7960
 2.1080	15.8290
 2.1090	15.8650
 2.1100	15.8990
 2.1110	15.9320
 2.1120	15.9650
 2.1130	15.9990
 2.1140	16.0320
 2.1150	16.0640
 2.1160	16.0980
 2.1170	16.1320
 2.1180	16.1650
 2.1190	16.1980
 2.1200	16.2300
 2.1210	16.2590
 2.1220	16.2900
 2.1230	16.3210
 2.1240	16.3530
 2.1250	16.3840
 2.1260	16.4140
 2.1270	16.4450
 2.1280	16.4780
 2.1290	16.5060
 2.1300	16.5330
 2.1310	16.5610
 2.1320	16.5850
 2.1330	16.6090
 2.1340	16.6330
 2.1350	16.6580
 2.1360	16.6840
 2.1370	16.7090
 2.1380	16.7340
 2.1390	16.7600
 2.1400	16.7860
 2.1410	16.8090
 2.1420	16.8350
 2.1430	16.8640
 2.1440	16.8890
 2.1450	16.9130
 2.1460	16.9380
 2.1470	16.9640
 2.1480	16.9910
 2.1490	17.0180
 2.1500	17.0450
 2.1510	17.0720
 2.1520	17.0980
 2.1530	17.1240
 2.1540	17.1470
 2.1550	17.1650
 2.1560	17.1870
 2.1570	17.2090
 2.1580	17.2310
 2.1590	17.2550
 2.1600	17.2770
 2.1610	17.2990
 2.1620	17.3180
 2.1630	17.3380
 2.1640	17.3590
 2.1650	17.3790
 2.1660	17.3960
 2.1670	17.4160
 2.1680	17.4360
 2.1690	17.4580
 2.1700	17.4800
 2.1710	17.5030
 2.1720	17.5290
 2.1730	17.5510
 2.1740	17.5710
 2.1750	17.5940
 2.1760	17.6160
 2.1770	17.6380
 2.1780	17.6650
 2.1790	17.6900
 2.1800	17.7120
 2.1810	17.7380
 2.1820	17.7670
 2.1830	17.7970
 2.1840	17.8250
 2.1850	17.8550
 2.1860	17.8850
 2.1870	17.9150
 2.1880	17.9430
 2.1890	17.9730
 2.1900	18.0020
 2.1910	18.0300
 2.1920	18.0570
 2.1930	18.0820
 2.1940	18.1080
 2.1950	18.1330
 2.1960	18.1580
 2.1970	18.1820
 2.1980	18.2070
 2.1990	18.2330
 2.2000	18.2570
 2.2010	18.2810
 2.2020	18.3050
 2.2030	18.3310
 2.2040	18.3530
 2.2050	18.3750
 2.2060	18.3980
 2.2070	18.4180
 2.2080	18.4330
 2.2090	18.4500
 2.2100	18.4660
 2.2110	18.4810
 2.2120	18.4950
 2.2130	18.5090
 2.2140	18.5240
 2.2150	18.5350
 2.2160	18.5430
 2.2170	18.5520
 2.2180	18.5610
 2.2190	18.5640
 2.2200	18.5640
 2.2210	18.5640
 2.2220	18.5590
 2.2230	18.5530
 2.2240	18.5480
 2.2250	18.5370
 2.2260	18.5200
 2.2270	18.5020
 2.2280	18.4850
 2.2290	18.4620
 2.2300	18.4380
 2.2310	18.4090
 2.2320	18.3740
 2.2330	18.3320
 2.2340	18.2900
 2.2350	18.2440
 2.2360	18.1960
 2.2370	18.1470
 2.2380	18.0950
 2.2390	18.0370
 2.2400	17.9820
 2.2410	17.9290
 2.2420	17.8680
 2.2430	17.8050
 2.2440	17.7400
 2.2450	17.6680
 2.2460	17.5970
 2.2470	17.5260
 2.2480	17.4530
 2.2490	17.3750
 2.2500	17.3030
 2.2510	17.2340
 2.2520	17.1610
 2.2530	17.0910
 2.2540	17.0200
 2.2550	16.9440
 2.2560	16.8730
 2.2570	16.8080
 2.2580	16.7380
 2.2590	16.6680
 2.2600	16.5980
 2.2610	16.5250
 2.2620	16.4580
 2.2630	16.3910
 2.2640	16.3270
 2.2650	16.2730
 2.2660	16.2150
 2.2670	16.1570
 2.2680	16.1030
 2.2690	16.0480
 2.2700	15.9910
 2.2710	15.9380
 2.2720	15.8880
 2.2730	15.8400
 2.2740	15.7890
 2.2750	15.7460
 2.2760	15.7090
 2.2770	15.6720
 2.2780	15.6430
 2.2790	15.6070
 2.2800	15.5690
 2.2810	15.5320
 2.2820	15.4890
 2.2830	15.4540
 2.2840	15.4230
 2.2850	15.3890
 2.2860	15.3590
 2.2870	15.3240
 2.2880	15.2830
 2.2890	15.2460
 2.2900	15.2100
 2.2910	15.1730
 2.2920	15.1420
 2.2930	15.1060
 2.2940	15.0690
 2.2950	15.0270
 2.2960	14.9770
 2.2970	14.9300
 2.2980	14.8800
 2.2990	14.8340
 2.3000	14.7860
 2.3010	14.7410
 2.3020	14.6940
 2.3030	14.6480
 2.3040	14.6050
 2.3050	14.5590
 2.3060	14.5210
 2.3070	14.4890
 2.3080	14.4630
 2.3090	14.4440
 2.3100	14.4210
 2.3110	14.3970
 2.3120	14.3740
 2.3130	14.3450
 2.3140	14.3310
 2.3150	14.3230
 2.3160	14.3140
 2.3170	14.3160
 2.3180	14.3120
 2.3190	14.3080
 2.3200	14.2980
 2.3210	14.2880
 2.3220	14.2700
 2.3230	14.2390
 2.3240	14.2170
 2.3250	14.1960
 2.3260	14.1730
 2.3270	14.1490
 2.3280	14.1250
 2.3290	14.1020
 2.3300	14.0720
 2.3310	14.0390
 2.3320	14.0080
 2.3330	13.9700
 2.3340	13.9360
 2.3350	13.9090
 2.3360	13.8790
 2.3370	13.8490
 2.3380	13.8140
 2.3390	13.7760
 2.3400	13.7390
 2.3410	13.6970
 2.3420	13.6610
 2.3430	13.6310
 2.3440	13.5970
 2.3450	13.5630
 2.3460	13.5320
 2.3470	13.5000
 2.3480	13.4710
 2.3490	13.4450
 2.3500	13.4230
 2.3510	13.4080
 2.3520	13.3910
 2.3530	13.3760
 2.3540	13.3620
 2.3550	13.3510
 2.3560	13.3290
 2.3570	13.3090
 2.3580	13.2950
 2.3590	13.2710
 2.3600	13.2500
 2.3610	13.2390
 2.3620	13.2250
 2.3630	13.2010
 2.3640	13.1780
 2.3650	13.1550
 2.3660	13.1210
 2.3670	13.0930
 2.3680	13.0660
 2.3690	13.0330
 2.3700	13.0080
 2.3710	12.9930
 2.3720	12.9780
 2.3730	12.9520
 2.3740	12.9220
 2.3750	12.8890
 2.3760	12.8600
 2.3770	12.8440
 2.3780	12.8280
 2.3790	12.8040
 2.3800	12.7690
 2.3810	12.7260
 2.3820	12.6830
 2.3830	12.6460
 2.3840	12.6160
 2.3850	12.5870
 2.3860	12.5580
 2.3870	12.5320
 2.3880	12.5070
 2.3890	12.4800
 2.3900	12.4480
 2.3910	12.4170
 2.3920	12.3950
 2.3930	12.3800
 2.3940	12.3640
 2.3950	12.3460
 2.3960	12.3080
 2.3970	12.2620
 2.3980	12.2270
 2.3990	12.1830
 2.4000	12.1490
 2.4010	12.1290
 2.4020	12.1020
 2.4030	12.0690
 2.4040	12.0380
 2.4050	12.0090
 2.4060	11.9670
 2.4070	11.9450
 2.4080	11.9280
 2.4090	11.8840
 2.4100	11.8490
 2.4110	11.8110
 2.4120	11.7640
 2.4130	11.7230
 2.4140	11.6930
 2.4150	11.6690
 2.4160	11.6320
 2.4170	11.6030
 2.4180	11.5660
 2.4190	11.5170
 2.4200	11.4760
 2.4210	11.4350
 2.4220	11.3920
 2.4230	11.3530
 2.4240	11.3330
 2.4250	11.3190
 2.4260	11.2950
 2.4270	11.2600
 2.4280	11.2160
 2.4290	11.1780
 2.4300	11.1510
 2.4310	11.1260
 2.4320	11.1020
 2.4330	11.0710
 2.4340	11.0230
 2.4350	10.9890
 2.4360	10.9570
 2.4370	10.9070
 2.4380	10.8810
 2.4390	10.8540
 2.4400	10.8040
 2.4410	10.7680
 2.4420	10.7210
 2.4430	10.6760
 2.4440	10.6530
 2.4450	10.6320
 2.4460	10.6040
 2.4470	10.5560
 2.4480	10.5100
 2.4490	10.4730
 2.4500	10.4450
 2.4510	10.4340
 2.4520	10.4050
 2.4530	10.3650
 2.4540	10.3230
 2.4550	10.2780
 2.4560	10.2560
 2.4570	10.2400
 2.4580	10.2200
 2.4590	10.2050
 2.4600	10.1830
 2.4610	10.1460
 2.4620	10.1220
 2.4630	10.1040
 2.4640	10.0850
 2.4650	10.0790
 2.4660	10.0460
 2.4670	10.0200
 2.4680	10.0190
 2.4690	 9.9830
 2.4700	 9.9680
 2.4710	 9.9560
 2.4720	 9.9350
 2.4730	 9.9400
 2.4740	 9.9360
 2.4750	 9.9130
 2.4760	 9.8850
 2.4770	 9.8390
 2.4780	 9.8110
 2.4790	 9.7940
 2.4800	 9.7790
 2.4810	 9.7900
 2.4820	 9.7590
 2.4830	 9.7210
 2.4840	 9.6790
 2.4850	 9.6290
 2.4860	 9.6350
 2.4870	 9.6330
 2.4880	 9.6160
 2.4890	 9.6620
 2.4900	 9.6910
 2.4910	 9.7110
 2.4920	 9.7500
 2.4930	 9.7490
 2.4940	 9.7410
 2.4950	 9.7090
 2.4960	 9.6810
 2.4970	 9.7020
 2.4980	 9.6960
 2.4990	 9.6460
 2.5000	 9.6260
