Name: Abies concolor 1
Type: vegetation
Class: Tree
Genus: Abies
Species: concolor
Sample No.: VH054
Owner: UCSB
Wavelength Range: VSWIR
Origin: 37.044; -119.3035; WGS84
Collection Date: 4/20/2013
Description: Samples were collected as part of the HyspIRI Airborne Campaign. 48 individual plants were sampled in three times in 2013 - spring  summer  and fall. The name of the sample includes a 1  2  or 3 which references a different individual of the species. Samples were taken to JPL and processed within 48 hours of collection. The same leaves were processed in the Nicolet and then measured using the ASD.
Measurement: Bidirectional reflectance
First Column: X
Second Column: Y
X Units: Wavelength (micrometers)
Y Units: Reflectance (percentage)
First X Value: 0.35
Last X Value: 2.5
Number of X Values: 2151
Additional Information: vegetation.tree.abies.concolor.vswir.vh054.ucsb.asd.ancillary.txt

 0.3500	 4.5600
 0.3510	 4.2390
 0.3520	 4.3070
 0.3530	 4.4240
 0.3540	 4.2750
 0.3550	 4.1650
 0.3560	 4.1800
 0.3570	 4.2260
 0.3580	 4.1580
 0.3590	 4.3060
 0.3600	 4.3890
 0.3610	 4.2850
 0.3620	 4.1620
 0.3630	 4.1690
 0.3640	 4.1680
 0.3650	 4.0470
 0.3660	 4.1000
 0.3670	 4.0830
 0.3680	 4.0010
 0.3690	 4.0220
 0.3700	 4.0130
 0.3710	 4.0640
 0.3720	 4.1670
 0.3730	 4.0810
 0.3740	 3.9940
 0.3750	 3.9830
 0.3760	 4.0450
 0.3770	 3.9700
 0.3780	 3.9330
 0.3790	 3.9840
 0.3800	 4.0520
 0.3810	 4.0110
 0.3820	 3.9890
 0.3830	 4.0560
 0.3840	 4.0670
 0.3850	 4.0340
 0.3860	 3.9910
 0.3870	 3.9840
 0.3880	 4.0540
 0.3890	 4.0770
 0.3900	 4.0460
 0.3910	 4.0800
 0.3920	 4.0490
 0.3930	 3.9950
 0.3940	 3.9750
 0.3950	 3.9910
 0.3960	 4.0130
 0.3970	 4.0440
 0.3980	 4.0950
 0.3990	 4.1090
 0.4000	 4.1200
 0.4010	 4.1410
 0.4020	 4.1490
 0.4030	 4.2160
 0.4040	 4.2870
 0.4050	 4.3100
 0.4060	 4.3370
 0.4070	 4.3600
 0.4080	 4.3900
 0.4090	 4.4540
 0.4100	 4.5390
 0.4110	 4.6080
 0.4120	 4.6490
 0.4130	 4.7130
 0.4140	 4.7860
 0.4150	 4.8520
 0.4160	 4.9070
 0.4170	 4.9780
 0.4180	 5.0390
 0.4190	 5.1020
 0.4200	 5.2110
 0.4210	 5.2880
 0.4220	 5.3400
 0.4230	 5.3950
 0.4240	 5.4840
 0.4250	 5.5810
 0.4260	 5.6650
 0.4270	 5.7240
 0.4280	 5.7790
 0.4290	 5.8460
 0.4300	 5.9200
 0.4310	 5.9690
 0.4320	 6.0350
 0.4330	 6.1070
 0.4340	 6.1660
 0.4350	 6.2120
 0.4360	 6.2590
 0.4370	 6.3030
 0.4380	 6.3310
 0.4390	 6.3630
 0.4400	 6.4040
 0.4410	 6.4500
 0.4420	 6.4910
 0.4430	 6.5350
 0.4440	 6.5750
 0.4450	 6.6010
 0.4460	 6.6460
 0.4470	 6.6790
 0.4480	 6.6960
 0.4490	 6.7300
 0.4500	 6.7700
 0.4510	 6.8030
 0.4520	 6.8200
 0.4530	 6.8390
 0.4540	 6.8610
 0.4550	 6.8880
 0.4560	 6.9200
 0.4570	 6.9240
 0.4580	 6.9280
 0.4590	 6.9470
 0.4600	 6.9570
 0.4610	 6.9690
 0.4620	 6.9800
 0.4630	 6.9840
 0.4640	 6.9870
 0.4650	 6.9890
 0.4660	 6.9910
 0.4670	 6.9930
 0.4680	 6.9980
 0.4690	 7.0010
 0.4700	 6.9990
 0.4710	 7.0010
 0.4720	 7.0070
 0.4730	 7.0110
 0.4740	 7.0090
 0.4750	 7.0130
 0.4760	 7.0220
 0.4770	 7.0330
 0.4780	 7.0360
 0.4790	 7.0330
 0.4800	 7.0270
 0.4810	 7.0260
 0.4820	 7.0320
 0.4830	 7.0420
 0.4840	 7.0540
 0.4850	 7.0670
 0.4860	 7.0760
 0.4870	 7.0850
 0.4880	 7.0980
 0.4890	 7.1120
 0.4900	 7.1280
 0.4910	 7.1470
 0.4920	 7.1720
 0.4930	 7.1950
 0.4940	 7.2270
 0.4950	 7.2680
 0.4960	 7.3030
 0.4970	 7.3540
 0.4980	 7.4090
 0.4990	 7.4570
 0.5000	 7.5270
 0.5010	 7.5990
 0.5020	 7.6690
 0.5030	 7.7490
 0.5040	 7.8470
 0.5050	 7.9560
 0.5060	 8.0700
 0.5070	 8.1850
 0.5080	 8.3180
 0.5090	 8.4640
 0.5100	 8.6170
 0.5110	 8.7880
 0.5120	 8.9640
 0.5130	 9.1450
 0.5140	 9.3490
 0.5150	 9.5660
 0.5160	 9.7910
 0.5170	10.0200
 0.5180	10.2500
 0.5190	10.4870
 0.5200	10.7330
 0.5210	10.9860
 0.5220	11.2320
 0.5230	11.4720
 0.5240	11.7060
 0.5250	11.9240
 0.5260	12.1360
 0.5270	12.3390
 0.5280	12.5250
 0.5290	12.6990
 0.5300	12.8600
 0.5310	13.0080
 0.5320	13.1430
 0.5330	13.2670
 0.5340	13.3780
 0.5350	13.4750
 0.5360	13.5670
 0.5370	13.6440
 0.5380	13.7120
 0.5390	13.7860
 0.5400	13.8580
 0.5410	13.9250
 0.5420	13.9850
 0.5430	14.0450
 0.5440	14.1020
 0.5450	14.1560
 0.5460	14.2060
 0.5470	14.2410
 0.5480	14.2710
 0.5490	14.3020
 0.5500	14.3390
 0.5510	14.3670
 0.5520	14.3830
 0.5530	14.3850
 0.5540	14.3690
 0.5550	14.3340
 0.5560	14.2820
 0.5570	14.2180
 0.5580	14.1400
 0.5590	14.0500
 0.5600	13.9540
 0.5610	13.8510
 0.5620	13.7450
 0.5630	13.6310
 0.5640	13.5050
 0.5650	13.3760
 0.5660	13.2450
 0.5670	13.1110
 0.5680	12.9790
 0.5690	12.8390
 0.5700	12.6880
 0.5710	12.5330
 0.5720	12.3850
 0.5730	12.2420
 0.5740	12.1040
 0.5750	11.9720
 0.5760	11.8420
 0.5770	11.7220
 0.5780	11.6160
 0.5790	11.5120
 0.5800	11.4160
 0.5810	11.3300
 0.5820	11.2520
 0.5830	11.1670
 0.5840	11.0890
 0.5850	11.0210
 0.5860	10.9570
 0.5870	10.9000
 0.5880	10.8500
 0.5890	10.8010
 0.5900	10.7500
 0.5910	10.7050
 0.5920	10.6660
 0.5930	10.6330
 0.5940	10.6020
 0.5950	10.5720
 0.5960	10.5430
 0.5970	10.5210
 0.5980	10.4970
 0.5990	10.4680
 0.6000	10.4360
 0.6010	10.4040
 0.6020	10.3660
 0.6030	10.3190
 0.6040	10.2640
 0.6050	10.2080
 0.6060	10.1490
 0.6070	10.0820
 0.6080	10.0070
 0.6090	 9.9350
 0.6100	 9.8670
 0.6110	 9.8020
 0.6120	 9.7230
 0.6130	 9.6320
 0.6140	 9.5400
 0.6150	 9.4620
 0.6160	 9.3880
 0.6170	 9.3180
 0.6180	 9.2560
 0.6190	 9.1940
 0.6200	 9.1410
 0.6210	 9.0980
 0.6220	 9.0570
 0.6230	 9.0250
 0.6240	 8.9970
 0.6250	 8.9730
 0.6260	 8.9550
 0.6270	 8.9410
 0.6280	 8.9300
 0.6290	 8.9220
 0.6300	 8.9140
 0.6310	 8.9050
 0.6320	 8.8940
 0.6330	 8.8790
 0.6340	 8.8550
 0.6350	 8.8220
 0.6360	 8.7800
 0.6370	 8.7290
 0.6380	 8.6690
 0.6390	 8.6030
 0.6400	 8.5340
 0.6410	 8.4580
 0.6420	 8.3770
 0.6430	 8.2920
 0.6440	 8.2070
 0.6450	 8.1200
 0.6460	 8.0360
 0.6470	 7.9590
 0.6480	 7.8780
 0.6490	 7.8080
 0.6500	 7.7520
 0.6510	 7.7030
 0.6520	 7.6580
 0.6530	 7.6140
 0.6540	 7.5690
 0.6550	 7.5240
 0.6560	 7.4770
 0.6570	 7.4210
 0.6580	 7.3500
 0.6590	 7.2830
 0.6600	 7.2110
 0.6610	 7.1330
 0.6620	 7.0550
 0.6630	 6.9790
 0.6640	 6.9060
 0.6650	 6.8390
 0.6660	 6.7840
 0.6670	 6.7370
 0.6680	 6.6960
 0.6690	 6.6610
 0.6700	 6.6310
 0.6710	 6.6100
 0.6720	 6.5990
 0.6730	 6.5920
 0.6740	 6.5870
 0.6750	 6.5880
 0.6760	 6.5940
 0.6770	 6.6020
 0.6780	 6.6160
 0.6790	 6.6380
 0.6800	 6.6690
 0.6810	 6.7100
 0.6820	 6.7640
 0.6830	 6.8330
 0.6840	 6.9230
 0.6850	 7.0330
 0.6860	 7.1700
 0.6870	 7.3400
 0.6880	 7.5580
 0.6890	 7.8200
 0.6900	 8.1350
 0.6910	 8.5150
 0.6920	 8.9510
 0.6930	 9.4480
 0.6940	10.0080
 0.6950	10.6290
 0.6960	11.3020
 0.6970	12.0220
 0.6980	12.7850
 0.6990	13.5850
 0.7000	14.4130
 0.7010	15.2600
 0.7020	16.1220
 0.7030	16.9910
 0.7040	17.8630
 0.7050	18.7330
 0.7060	19.6040
 0.7070	20.4790
 0.7080	21.3550
 0.7090	22.2300
 0.7100	23.1110
 0.7110	24.0000
 0.7120	24.8980
 0.7130	25.8090
 0.7140	26.7240
 0.7150	27.6490
 0.7160	28.5860
 0.7170	29.5300
 0.7180	30.4790
 0.7190	31.4350
 0.7200	32.3990
 0.7210	33.3670
 0.7220	34.3380
 0.7230	35.3080
 0.7240	36.2640
 0.7250	37.2180
 0.7260	38.1590
 0.7270	39.0780
 0.7280	39.9860
 0.7290	40.8730
 0.7300	41.7370
 0.7310	42.5790
 0.7320	43.3960
 0.7330	44.1870
 0.7340	44.9510
 0.7350	45.6820
 0.7360	46.3840
 0.7370	47.0590
 0.7380	47.7060
 0.7390	48.3180
 0.7400	48.9000
 0.7410	49.4530
 0.7420	49.9770
 0.7430	50.4660
 0.7440	50.9290
 0.7450	51.3650
 0.7460	51.7640
 0.7470	52.1390
 0.7480	52.4900
 0.7490	52.8120
 0.7500	53.1030
 0.7510	53.3810
 0.7520	53.6380
 0.7530	53.8630
 0.7540	54.0730
 0.7550	54.2670
 0.7560	54.4430
 0.7570	54.6030
 0.7580	54.7520
 0.7590	54.8870
 0.7600	55.0090
 0.7610	55.1240
 0.7620	55.2290
 0.7630	55.3230
 0.7640	55.4070
 0.7650	55.4840
 0.7660	55.5550
 0.7670	55.6220
 0.7680	55.6870
 0.7690	55.7420
 0.7700	55.7900
 0.7710	55.8350
 0.7720	55.8790
 0.7730	55.9220
 0.7740	55.9640
 0.7750	56.0050
 0.7760	56.0360
 0.7770	56.0720
 0.7780	56.1060
 0.7790	56.1260
 0.7800	56.1590
 0.7810	56.1930
 0.7820	56.2220
 0.7830	56.2470
 0.7840	56.2670
 0.7850	56.2900
 0.7860	56.3170
 0.7870	56.3420
 0.7880	56.3630
 0.7890	56.3830
 0.7900	56.4050
 0.7910	56.4270
 0.7920	56.4480
 0.7930	56.4640
 0.7940	56.4740
 0.7950	56.4920
 0.7960	56.5110
 0.7970	56.5250
 0.7980	56.5390
 0.7990	56.5580
 0.8000	56.5780
 0.8010	56.5910
 0.8020	56.5990
 0.8030	56.6070
 0.8040	56.6190
 0.8050	56.6350
 0.8060	56.6440
 0.8070	56.6500
 0.8080	56.6550
 0.8090	56.6640
 0.8100	56.6690
 0.8110	56.6760
 0.8120	56.6850
 0.8130	56.6870
 0.8140	56.6960
 0.8150	56.7040
 0.8160	56.7030
 0.8170	56.7170
 0.8180	56.7300
 0.8190	56.7360
 0.8200	56.7360
 0.8210	56.7470
 0.8220	56.7600
 0.8230	56.7670
 0.8240	56.7630
 0.8250	56.7650
 0.8260	56.7700
 0.8270	56.7710
 0.8280	56.7640
 0.8290	56.7610
 0.8300	56.7590
 0.8310	56.7530
 0.8320	56.7540
 0.8330	56.7520
 0.8340	56.7480
 0.8350	56.7480
 0.8360	56.7550
 0.8370	56.7690
 0.8380	56.7850
 0.8390	56.8020
 0.8400	56.8000
 0.8410	56.8090
 0.8420	56.8340
 0.8430	56.8450
 0.8440	56.8570
 0.8450	56.8730
 0.8460	56.8890
 0.8470	56.8980
 0.8480	56.9120
 0.8490	56.9290
 0.8500	56.9440
 0.8510	56.9590
 0.8520	56.9690
 0.8530	56.9810
 0.8540	57.0000
 0.8550	57.0070
 0.8560	57.0150
 0.8570	57.0290
 0.8580	57.0430
 0.8590	57.0610
 0.8600	57.0710
 0.8610	57.0720
 0.8620	57.0790
 0.8630	57.0830
 0.8640	57.0920
 0.8650	57.1120
 0.8660	57.1240
 0.8670	57.1390
 0.8680	57.1490
 0.8690	57.1450
 0.8700	57.1530
 0.8710	57.1600
 0.8720	57.1670
 0.8730	57.1790
 0.8740	57.1810
 0.8750	57.1820
 0.8760	57.1860
 0.8770	57.1890
 0.8780	57.1950
 0.8790	57.1980
 0.8800	57.1970
 0.8810	57.2020
 0.8820	57.1990
 0.8830	57.1950
 0.8840	57.1940
 0.8850	57.1970
 0.8860	57.1980
 0.8870	57.1900
 0.8880	57.1730
 0.8890	57.1720
 0.8900	57.1730
 0.8910	57.1670
 0.8920	57.1550
 0.8930	57.1510
 0.8940	57.1430
 0.8950	57.1300
 0.8960	57.1190
 0.8970	57.1050
 0.8980	57.0940
 0.8990	57.0840
 0.9000	57.0700
 0.9010	57.0630
 0.9020	57.0560
 0.9030	57.0450
 0.9040	57.0360
 0.9050	57.0130
 0.9060	56.9930
 0.9070	56.9830
 0.9080	56.9680
 0.9090	56.9490
 0.9100	56.9320
 0.9110	56.9220
 0.9120	56.9150
 0.9130	56.8920
 0.9140	56.8680
 0.9150	56.8550
 0.9160	56.8310
 0.9170	56.8110
 0.9180	56.7900
 0.9190	56.7590
 0.9200	56.7310
 0.9210	56.7060
 0.9220	56.6780
 0.9230	56.6390
 0.9240	56.5920
 0.9250	56.5520
 0.9260	56.5100
 0.9270	56.4470
 0.9280	56.3920
 0.9290	56.3480
 0.9300	56.3010
 0.9310	56.2250
 0.9320	56.1470
 0.9330	56.0690
 0.9340	55.9910
 0.9350	55.9170
 0.9360	55.8350
 0.9370	55.7500
 0.9380	55.6650
 0.9390	55.5820
 0.9400	55.4900
 0.9410	55.3810
 0.9420	55.2610
 0.9430	55.1580
 0.9440	55.0390
 0.9450	54.9070
 0.9460	54.7680
 0.9470	54.6290
 0.9480	54.4570
 0.9490	54.2740
 0.9500	54.1040
 0.9510	53.9230
 0.9520	53.7290
 0.9530	53.5160
 0.9540	53.2960
 0.9550	53.1230
 0.9560	52.9350
 0.9570	52.7240
 0.9580	52.5120
 0.9590	52.3550
 0.9600	52.2130
 0.9610	52.0700
 0.9620	51.9340
 0.9630	51.8430
 0.9640	51.7470
 0.9650	51.6530
 0.9660	51.5820
 0.9670	51.5040
 0.9680	51.4480
 0.9690	51.3910
 0.9700	51.3090
 0.9710	51.2600
 0.9720	51.2310
 0.9730	51.2020
 0.9740	51.1580
 0.9750	51.1070
 0.9760	51.0790
 0.9770	51.0680
 0.9780	51.0590
 0.9790	51.0530
 0.9800	51.0570
 0.9810	51.0610
 0.9820	51.0580
 0.9830	51.0750
 0.9840	51.1010
 0.9850	51.1290
 0.9860	51.1510
 0.9870	51.1620
 0.9880	51.2050
 0.9890	51.2670
 0.9900	51.3100
 0.9910	51.3410
 0.9920	51.4320
 0.9930	51.5230
 0.9940	51.6150
 0.9950	51.7060
 0.9960	51.7970
 0.9970	51.8880
 0.9980	51.9790
 0.9990	52.0700
 1.0000	52.1620
 1.0010	52.2530
 1.0020	52.3440
 1.0030	52.4350
 1.0040	52.5260
 1.0050	52.6180
 1.0060	52.7090
 1.0070	52.8000
 1.0080	52.8910
 1.0090	52.9820
 1.0100	52.9820
 1.0110	53.0640
 1.0120	53.1460
 1.0130	53.2290
 1.0140	53.3130
 1.0150	53.3980
 1.0160	53.4830
 1.0170	53.5640
 1.0180	53.6490
 1.0190	53.7330
 1.0200	53.8150
 1.0210	53.9020
 1.0220	53.9850
 1.0230	54.0670
 1.0240	54.1480
 1.0250	54.2280
 1.0260	54.3030
 1.0270	54.3840
 1.0280	54.4700
 1.0290	54.5490
 1.0300	54.6270
 1.0310	54.7040
 1.0320	54.7780
 1.0330	54.8510
 1.0340	54.9280
 1.0350	55.0000
 1.0360	55.0630
 1.0370	55.1240
 1.0380	55.1900
 1.0390	55.2530
 1.0400	55.3200
 1.0410	55.3970
 1.0420	55.4620
 1.0430	55.5250
 1.0440	55.5800
 1.0450	55.6220
 1.0460	55.6730
 1.0470	55.7210
 1.0480	55.7710
 1.0490	55.8290
 1.0500	55.8810
 1.0510	55.9330
 1.0520	55.9760
 1.0530	56.0200
 1.0540	56.0610
 1.0550	56.1000
 1.0560	56.1380
 1.0570	56.1750
 1.0580	56.2100
 1.0590	56.2440
 1.0600	56.2760
 1.0610	56.3080
 1.0620	56.3430
 1.0630	56.3690
 1.0640	56.3880
 1.0650	56.4090
 1.0660	56.4220
 1.0670	56.4380
 1.0680	56.4540
 1.0690	56.4750
 1.0700	56.4880
 1.0710	56.4990
 1.0720	56.5100
 1.0730	56.5200
 1.0740	56.5270
 1.0750	56.5360
 1.0760	56.5400
 1.0770	56.5390
 1.0780	56.5380
 1.0790	56.5350
 1.0800	56.5310
 1.0810	56.5270
 1.0820	56.5190
 1.0830	56.5090
 1.0840	56.4950
 1.0850	56.4770
 1.0860	56.4570
 1.0870	56.4360
 1.0880	56.4110
 1.0890	56.3880
 1.0900	56.3650
 1.0910	56.3400
 1.0920	56.3180
 1.0930	56.2870
 1.0940	56.2500
 1.0950	56.2150
 1.0960	56.1770
 1.0970	56.1380
 1.0980	56.1010
 1.0990	56.0620
 1.1000	56.0190
 1.1010	55.9760
 1.1020	55.9340
 1.1030	55.8880
 1.1040	55.8400
 1.1050	55.7940
 1.1060	55.7450
 1.1070	55.6930
 1.1080	55.6410
 1.1090	55.5880
 1.1100	55.5310
 1.1110	55.4710
 1.1120	55.4080
 1.1130	55.3430
 1.1140	55.2720
 1.1150	55.1990
 1.1160	55.1210
 1.1170	55.0380
 1.1180	54.9490
 1.1190	54.8560
 1.1200	54.7550
 1.1210	54.6480
 1.1220	54.5310
 1.1230	54.3980
 1.1240	54.2550
 1.1250	54.0960
 1.1260	53.9230
 1.1270	53.7310
 1.1280	53.5260
 1.1290	53.3010
 1.1300	53.0590
 1.1310	52.7980
 1.1320	52.5200
 1.1330	52.2240
 1.1340	51.9070
 1.1350	51.5740
 1.1360	51.2240
 1.1370	50.8600
 1.1380	50.4820
 1.1390	50.0990
 1.1400	49.7080
 1.1410	49.3140
 1.1420	48.9210
 1.1430	48.5280
 1.1440	48.1440
 1.1450	47.7590
 1.1460	47.3910
 1.1470	47.0260
 1.1480	46.6810
 1.1490	46.3470
 1.1500	46.0360
 1.1510	45.7390
 1.1520	45.4610
 1.1530	45.2010
 1.1540	44.9620
 1.1550	44.7400
 1.1560	44.5390
 1.1570	44.3570
 1.1580	44.1900
 1.1590	44.0370
 1.1600	43.8950
 1.1610	43.7660
 1.1620	43.6500
 1.1630	43.5460
 1.1640	43.4500
 1.1650	43.3600
 1.1660	43.2780
 1.1670	43.2010
 1.1680	43.1320
 1.1690	43.0650
 1.1700	43.0040
 1.1710	42.9430
 1.1720	42.8870
 1.1730	42.8290
 1.1740	42.7730
 1.1750	42.7180
 1.1760	42.6570
 1.1770	42.5960
 1.1780	42.5380
 1.1790	42.4770
 1.1800	42.4180
 1.1810	42.3590
 1.1820	42.2970
 1.1830	42.2360
 1.1840	42.1760
 1.1850	42.1180
 1.1860	42.0610
 1.1870	42.0060
 1.1880	41.9550
 1.1890	41.9070
 1.1900	41.8630
 1.1910	41.8250
 1.1920	41.7890
 1.1930	41.7550
 1.1940	41.7260
 1.1950	41.7010
 1.1960	41.6820
 1.1970	41.6650
 1.1980	41.6500
 1.1990	41.6450
 1.2000	41.6460
 1.2010	41.6500
 1.2020	41.6610
 1.2030	41.6740
 1.2040	41.6870
 1.2050	41.7060
 1.2060	41.7310
 1.2070	41.7600
 1.2080	41.7940
 1.2090	41.8330
 1.2100	41.8740
 1.2110	41.9210
 1.2120	41.9730
 1.2130	42.0290
 1.2140	42.0920
 1.2150	42.1560
 1.2160	42.2230
 1.2170	42.2910
 1.2180	42.3590
 1.2190	42.4300
 1.2200	42.5060
 1.2210	42.5820
 1.2220	42.6610
 1.2230	42.7410
 1.2240	42.8210
 1.2250	42.9020
 1.2260	42.9800
 1.2270	43.0570
 1.2280	43.1340
 1.2290	43.2070
 1.2300	43.2780
 1.2310	43.3480
 1.2320	43.4170
 1.2330	43.4820
 1.2340	43.5450
 1.2350	43.6070
 1.2360	43.6680
 1.2370	43.7280
 1.2380	43.7880
 1.2390	43.8450
 1.2400	43.9010
 1.2410	43.9530
 1.2420	44.0020
 1.2430	44.0530
 1.2440	44.1020
 1.2450	44.1500
 1.2460	44.1950
 1.2470	44.2370
 1.2480	44.2790
 1.2490	44.3210
 1.2500	44.3630
 1.2510	44.4030
 1.2520	44.4390
 1.2530	44.4710
 1.2540	44.5030
 1.2550	44.5360
 1.2560	44.5650
 1.2570	44.5930
 1.2580	44.6190
 1.2590	44.6420
 1.2600	44.6650
 1.2610	44.6850
 1.2620	44.7030
 1.2630	44.7180
 1.2640	44.7300
 1.2650	44.7390
 1.2660	44.7460
 1.2670	44.7520
 1.2680	44.7530
 1.2690	44.7530
 1.2700	44.7530
 1.2710	44.7480
 1.2720	44.7390
 1.2730	44.7310
 1.2740	44.7180
 1.2750	44.7010
 1.2760	44.6870
 1.2770	44.6670
 1.2780	44.6450
 1.2790	44.6210
 1.2800	44.5910
 1.2810	44.5570
 1.2820	44.5200
 1.2830	44.4800
 1.2840	44.4360
 1.2850	44.3890
 1.2860	44.3400
 1.2870	44.2860
 1.2880	44.2270
 1.2890	44.1640
 1.2900	44.0960
 1.2910	44.0210
 1.2920	43.9450
 1.2930	43.8660
 1.2940	43.7820
 1.2950	43.6960
 1.2960	43.6020
 1.2970	43.5020
 1.2980	43.3990
 1.2990	43.2900
 1.3000	43.1790
 1.3010	43.0630
 1.3020	42.9400
 1.3030	42.8130
 1.3040	42.6780
 1.3050	42.5380
 1.3060	42.3930
 1.3070	42.2430
 1.3080	42.0900
 1.3090	41.9290
 1.3100	41.7640
 1.3110	41.5910
 1.3120	41.4110
 1.3130	41.2310
 1.3140	41.0430
 1.3150	40.8500
 1.3160	40.6520
 1.3170	40.4510
 1.3180	40.2420
 1.3190	40.0280
 1.3200	39.8100
 1.3210	39.5860
 1.3220	39.3600
 1.3230	39.1290
 1.3240	38.8950
 1.3250	38.6620
 1.3260	38.4220
 1.3270	38.1790
 1.3280	37.9360
 1.3290	37.6890
 1.3300	37.4420
 1.3310	37.1940
 1.3320	36.9430
 1.3330	36.6950
 1.3340	36.4490
 1.3350	36.2040
 1.3360	35.9610
 1.3370	35.7190
 1.3380	35.4770
 1.3390	35.2400
 1.3400	35.0060
 1.3410	34.7750
 1.3420	34.5500
 1.3430	34.3290
 1.3440	34.1120
 1.3450	33.8990
 1.3460	33.6910
 1.3470	33.4870
 1.3480	33.2840
 1.3490	33.0880
 1.3500	32.8960
 1.3510	32.7070
 1.3520	32.5220
 1.3530	32.3410
 1.3540	32.1580
 1.3550	31.9770
 1.3560	31.7970
 1.3570	31.6150
 1.3580	31.4350
 1.3590	31.2510
 1.3600	31.0640
 1.3610	30.8740
 1.3620	30.6790
 1.3630	30.4800
 1.3640	30.2720
 1.3650	30.0550
 1.3660	29.8320
 1.3670	29.5990
 1.3680	29.3560
 1.3690	29.1020
 1.3700	28.8320
 1.3710	28.5500
 1.3720	28.2530
 1.3730	27.9380
 1.3740	27.6090
 1.3750	27.2600
 1.3760	26.8910
 1.3770	26.5030
 1.3780	26.0900
 1.3790	25.6580
 1.3800	25.2070
 1.3810	24.7350
 1.3820	24.2510
 1.3830	23.7510
 1.3840	23.2420
 1.3850	22.7170
 1.3860	22.1900
 1.3870	21.6500
 1.3880	21.1140
 1.3890	20.5740
 1.3900	20.0340
 1.3910	19.5030
 1.3920	18.9760
 1.3930	18.4560
 1.3940	17.9500
 1.3950	17.4490
 1.3960	16.9630
 1.3970	16.4950
 1.3980	16.0400
 1.3990	15.6090
 1.4000	15.1960
 1.4010	14.7990
 1.4020	14.4240
 1.4030	14.0640
 1.4040	13.7230
 1.4050	13.4030
 1.4060	13.0990
 1.4070	12.8160
 1.4080	12.5490
 1.4090	12.2980
 1.4100	12.0650
 1.4110	11.8460
 1.4120	11.6420
 1.4130	11.4520
 1.4140	11.2740
 1.4150	11.1100
 1.4160	10.9570
 1.4170	10.8140
 1.4180	10.6820
 1.4190	10.5570
 1.4200	10.4410
 1.4210	10.3340
 1.4220	10.2340
 1.4230	10.1420
 1.4240	10.0570
 1.4250	 9.9770
 1.4260	 9.9040
 1.4270	 9.8350
 1.4280	 9.7720
 1.4290	 9.7140
 1.4300	 9.6610
 1.4310	 9.6120
 1.4320	 9.5690
 1.4330	 9.5280
 1.4340	 9.4920
 1.4350	 9.4580
 1.4360	 9.4280
 1.4370	 9.4020
 1.4380	 9.3770
 1.4390	 9.3560
 1.4400	 9.3370
 1.4410	 9.3210
 1.4420	 9.3080
 1.4430	 9.2960
 1.4440	 9.2860
 1.4450	 9.2780
 1.4460	 9.2720
 1.4470	 9.2680
 1.4480	 9.2660
 1.4490	 9.2640
 1.4500	 9.2640
 1.4510	 9.2660
 1.4520	 9.2680
 1.4530	 9.2720
 1.4540	 9.2780
 1.4550	 9.2850
 1.4560	 9.2940
 1.4570	 9.3040
 1.4580	 9.3170
 1.4590	 9.3300
 1.4600	 9.3460
 1.4610	 9.3650
 1.4620	 9.3850
 1.4630	 9.4090
 1.4640	 9.4340
 1.4650	 9.4620
 1.4660	 9.4940
 1.4670	 9.5280
 1.4680	 9.5660
 1.4690	 9.6070
 1.4700	 9.6510
 1.4710	 9.6980
 1.4720	 9.7470
 1.4730	 9.7980
 1.4740	 9.8520
 1.4750	 9.9060
 1.4760	 9.9640
 1.4770	10.0220
 1.4780	10.0820
 1.4790	10.1440
 1.4800	10.2080
 1.4810	10.2740
 1.4820	10.3420
 1.4830	10.4110
 1.4840	10.4810
 1.4850	10.5520
 1.4860	10.6230
 1.4870	10.6960
 1.4880	10.7710
 1.4890	10.8460
 1.4900	10.9220
 1.4910	10.9980
 1.4920	11.0750
 1.4930	11.1530
 1.4940	11.2320
 1.4950	11.3140
 1.4960	11.3940
 1.4970	11.4730
 1.4980	11.5540
 1.4990	11.6350
 1.5000	11.7180
 1.5010	11.8020
 1.5020	11.8850
 1.5030	11.9700
 1.5040	12.0540
 1.5050	12.1380
 1.5060	12.2230
 1.5070	12.3080
 1.5080	12.3930
 1.5090	12.4790
 1.5100	12.5640
 1.5110	12.6500
 1.5120	12.7360
 1.5130	12.8210
 1.5140	12.9050
 1.5150	12.9910
 1.5160	13.0750
 1.5170	13.1610
 1.5180	13.2460
 1.5190	13.3300
 1.5200	13.4140
 1.5210	13.4970
 1.5220	13.5810
 1.5230	13.6650
 1.5240	13.7470
 1.5250	13.8300
 1.5260	13.9120
 1.5270	13.9930
 1.5280	14.0760
 1.5290	14.1580
 1.5300	14.2380
 1.5310	14.3190
 1.5320	14.3990
 1.5330	14.4790
 1.5340	14.5590
 1.5350	14.6380
 1.5360	14.7170
 1.5370	14.7950
 1.5380	14.8720
 1.5390	14.9490
 1.5400	15.0260
 1.5410	15.1030
 1.5420	15.1800
 1.5430	15.2560
 1.5440	15.3340
 1.5450	15.4090
 1.5460	15.4840
 1.5470	15.5590
 1.5480	15.6340
 1.5490	15.7070
 1.5500	15.7800
 1.5510	15.8540
 1.5520	15.9270
 1.5530	15.9990
 1.5540	16.0700
 1.5550	16.1400
 1.5560	16.2100
 1.5570	16.2810
 1.5580	16.3520
 1.5590	16.4230
 1.5600	16.4930
 1.5610	16.5620
 1.5620	16.6310
 1.5630	16.6990
 1.5640	16.7650
 1.5650	16.8330
 1.5660	16.9000
 1.5670	16.9660
 1.5680	17.0330
 1.5690	17.0990
 1.5700	17.1650
 1.5710	17.2300
 1.5720	17.2950
 1.5730	17.3620
 1.5740	17.4260
 1.5750	17.4900
 1.5760	17.5560
 1.5770	17.6200
 1.5780	17.6840
 1.5790	17.7480
 1.5800	17.8110
 1.5810	17.8740
 1.5820	17.9360
 1.5830	17.9980
 1.5840	18.0610
 1.5850	18.1230
 1.5860	18.1840
 1.5870	18.2480
 1.5880	18.3120
 1.5890	18.3750
 1.5900	18.4390
 1.5910	18.5020
 1.5920	18.5640
 1.5930	18.6260
 1.5940	18.6870
 1.5950	18.7490
 1.5960	18.8120
 1.5970	18.8720
 1.5980	18.9340
 1.5990	18.9950
 1.6000	19.0550
 1.6010	19.1160
 1.6020	19.1780
 1.6030	19.2370
 1.6040	19.2960
 1.6050	19.3560
 1.6060	19.4160
 1.6070	19.4750
 1.6080	19.5350
 1.6090	19.5940
 1.6100	19.6510
 1.6110	19.7090
 1.6120	19.7650
 1.6130	19.8210
 1.6140	19.8750
 1.6150	19.9280
 1.6160	19.9820
 1.6170	20.0330
 1.6180	20.0840
 1.6190	20.1340
 1.6200	20.1820
 1.6210	20.2330
 1.6220	20.2840
 1.6230	20.3310
 1.6240	20.3790
 1.6250	20.4240
 1.6260	20.4660
 1.6270	20.5090
 1.6280	20.5500
 1.6290	20.5910
 1.6300	20.6310
 1.6310	20.6690
 1.6320	20.7060
 1.6330	20.7430
 1.6340	20.7790
 1.6350	20.8150
 1.6360	20.8500
 1.6370	20.8840
 1.6380	20.9160
 1.6390	20.9490
 1.6400	20.9810
 1.6410	21.0120
 1.6420	21.0430
 1.6430	21.0720
 1.6440	21.0990
 1.6450	21.1240
 1.6460	21.1440
 1.6470	21.1600
 1.6480	21.1760
 1.6490	21.1900
 1.6500	21.2030
 1.6510	21.2150
 1.6520	21.2230
 1.6530	21.2290
 1.6540	21.2340
 1.6550	21.2370
 1.6560	21.2390
 1.6570	21.2410
 1.6580	21.2410
 1.6590	21.2400
 1.6600	21.2370
 1.6610	21.2330
 1.6620	21.2280
 1.6630	21.2250
 1.6640	21.2230
 1.6650	21.2210
 1.6660	21.2180
 1.6670	21.2160
 1.6680	21.2130
 1.6690	21.2090
 1.6700	21.2060
 1.6710	21.2010
 1.6720	21.1960
 1.6730	21.1910
 1.6740	21.1840
 1.6750	21.1740
 1.6760	21.1640
 1.6770	21.1520
 1.6780	21.1390
 1.6790	21.1250
 1.6800	21.1100
 1.6810	21.0910
 1.6820	21.0700
 1.6830	21.0450
 1.6840	21.0180
 1.6850	20.9880
 1.6860	20.9580
 1.6870	20.9240
 1.6880	20.8890
 1.6890	20.8550
 1.6900	20.8170
 1.6910	20.7770
 1.6920	20.7360
 1.6930	20.6920
 1.6940	20.6490
 1.6950	20.6050
 1.6960	20.5600
 1.6970	20.5160
 1.6980	20.4690
 1.6990	20.4200
 1.7000	20.3720
 1.7010	20.3240
 1.7020	20.2750
 1.7030	20.2280
 1.7040	20.1800
 1.7050	20.1310
 1.7060	20.0830
 1.7070	20.0350
 1.7080	19.9870
 1.7090	19.9400
 1.7100	19.8930
 1.7110	19.8460
 1.7120	19.7980
 1.7130	19.7510
 1.7140	19.7050
 1.7150	19.6570
 1.7160	19.6090
 1.7170	19.5600
 1.7180	19.5120
 1.7190	19.4630
 1.7200	19.4150
 1.7210	19.3670
 1.7220	19.3190
 1.7230	19.2710
 1.7240	19.2230
 1.7250	19.1750
 1.7260	19.1270
 1.7270	19.0800
 1.7280	19.0360
 1.7290	18.9950
 1.7300	18.9550
 1.7310	18.9170
 1.7320	18.8810
 1.7330	18.8460
 1.7340	18.8130
 1.7350	18.7780
 1.7360	18.7440
 1.7370	18.7070
 1.7380	18.6710
 1.7390	18.6310
 1.7400	18.5890
 1.7410	18.5440
 1.7420	18.4940
 1.7430	18.4450
 1.7440	18.3950
 1.7450	18.3420
 1.7460	18.2860
 1.7470	18.2330
 1.7480	18.1790
 1.7490	18.1260
 1.7500	18.0750
 1.7510	18.0230
 1.7520	17.9700
 1.7530	17.9180
 1.7540	17.8660
 1.7550	17.8160
 1.7560	17.7670
 1.7570	17.7210
 1.7580	17.6760
 1.7590	17.6310
 1.7600	17.5890
 1.7610	17.5460
 1.7620	17.5060
 1.7630	17.4690
 1.7640	17.4330
 1.7650	17.4020
 1.7660	17.3690
 1.7670	17.3350
 1.7680	17.3060
 1.7690	17.2800
 1.7700	17.2530
 1.7710	17.2310
 1.7720	17.2070
 1.7730	17.1820
 1.7740	17.1590
 1.7750	17.1360
 1.7760	17.1150
 1.7770	17.0930
 1.7780	17.0750
 1.7790	17.0570
 1.7800	17.0410
 1.7810	17.0270
 1.7820	17.0150
 1.7830	17.0040
 1.7840	16.9950
 1.7850	16.9870
 1.7860	16.9810
 1.7870	16.9740
 1.7880	16.9710
 1.7890	16.9690
 1.7900	16.9710
 1.7910	16.9720
 1.7920	16.9730
 1.7930	16.9760
 1.7940	16.9790
 1.7950	16.9830
 1.7960	16.9900
 1.7970	16.9980
 1.7980	17.0070
 1.7990	17.0150
 1.8000	17.0230
 1.8010	17.0320
 1.8020	17.0410
 1.8030	17.0510
 1.8040	17.0620
 1.8050	17.0730
 1.8060	17.0820
 1.8070	17.0910
 1.8080	17.1000
 1.8090	17.1080
 1.8100	17.1150
 1.8110	17.1200
 1.8120	17.1270
 1.8130	17.1370
 1.8140	17.1470
 1.8150	17.1570
 1.8160	17.1650
 1.8170	17.1690
 1.8180	17.1720
 1.8190	17.1780
 1.8200	17.1820
 1.8210	17.1870
 1.8220	17.1900
 1.8230	17.1880
 1.8240	17.1880
 1.8250	17.1880
 1.8260	17.1850
 1.8270	17.1540
 1.8280	17.1230
 1.8290	17.0910
 1.8300	17.0600
 1.8310	17.0290
 1.8320	16.9980
 1.8330	16.9670
 1.8340	16.9350
 1.8350	16.9350
 1.8360	16.9090
 1.8370	16.8790
 1.8380	16.8420
 1.8390	16.8020
 1.8400	16.7600
 1.8410	16.7110
 1.8420	16.6560
 1.8430	16.5990
 1.8440	16.5360
 1.8450	16.4670
 1.8460	16.3920
 1.8470	16.3120
 1.8480	16.2260
 1.8490	16.1300
 1.8500	16.0260
 1.8510	15.9140
 1.8520	15.7940
 1.8530	15.6610
 1.8540	15.5200
 1.8550	15.3750
 1.8560	15.2160
 1.8570	15.0500
 1.8580	14.8750
 1.8590	14.6890
 1.8600	14.4910
 1.8610	14.2890
 1.8620	14.0750
 1.8630	13.8500
 1.8640	13.6180
 1.8650	13.3730
 1.8660	13.1180
 1.8670	12.8520
 1.8680	12.5770
 1.8690	12.2940
 1.8700	12.0030
 1.8710	11.7040
 1.8720	11.4000
 1.8730	11.0880
 1.8740	10.7730
 1.8750	10.4550
 1.8760	10.1330
 1.8770	 9.8170
 1.8780	 9.5020
 1.8790	 9.1880
 1.8800	 8.8820
 1.8810	 8.5810
 1.8820	 8.2840
 1.8830	 7.9920
 1.8840	 7.7060
 1.8850	 7.4270
 1.8860	 7.1570
 1.8870	 6.8930
 1.8880	 6.6430
 1.8890	 6.4060
 1.8900	 6.1790
 1.8910	 5.9640
 1.8920	 5.7610
 1.8930	 5.5720
 1.8940	 5.3920
 1.8950	 5.2240
 1.8960	 5.0680
 1.8970	 4.9210
 1.8980	 4.7880
 1.8990	 4.6650
 1.9000	 4.5510
 1.9010	 4.4490
 1.9020	 4.3530
 1.9030	 4.2650
 1.9040	 4.1850
 1.9050	 4.1140
 1.9060	 4.0470
 1.9070	 3.9880
 1.9080	 3.9330
 1.9090	 3.8830
 1.9100	 3.8390
 1.9110	 3.7980
 1.9120	 3.7610
 1.9130	 3.7280
 1.9140	 3.6990
 1.9150	 3.6720
 1.9160	 3.6510
 1.9170	 3.6310
 1.9180	 3.6100
 1.9190	 3.5920
 1.9200	 3.5760
 1.9210	 3.5610
 1.9220	 3.5500
 1.9230	 3.5440
 1.9240	 3.5360
 1.9250	 3.5300
 1.9260	 3.5250
 1.9270	 3.5210
 1.9280	 3.5170
 1.9290	 3.5170
 1.9300	 3.5190
 1.9310	 3.5190
 1.9320	 3.5220
 1.9330	 3.5250
 1.9340	 3.5280
 1.9350	 3.5340
 1.9360	 3.5450
 1.9370	 3.5530
 1.9380	 3.5610
 1.9390	 3.5710
 1.9400	 3.5810
 1.9410	 3.5900
 1.9420	 3.6030
 1.9430	 3.6170
 1.9440	 3.6310
 1.9450	 3.6450
 1.9460	 3.6590
 1.9470	 3.6730
 1.9480	 3.6880
 1.9490	 3.7030
 1.9500	 3.7200
 1.9510	 3.7380
 1.9520	 3.7540
 1.9530	 3.7720
 1.9540	 3.7880
 1.9550	 3.8070
 1.9560	 3.8270
 1.9570	 3.8480
 1.9580	 3.8720
 1.9590	 3.8930
 1.9600	 3.9140
 1.9610	 3.9360
 1.9620	 3.9570
 1.9630	 3.9790
 1.9640	 4.0030
 1.9650	 4.0260
 1.9660	 4.0500
 1.9670	 4.0740
 1.9680	 4.0980
 1.9690	 4.1210
 1.9700	 4.1460
 1.9710	 4.1710
 1.9720	 4.1960
 1.9730	 4.2240
 1.9740	 4.2510
 1.9750	 4.2780
 1.9760	 4.3060
 1.9770	 4.3320
 1.9780	 4.3600
 1.9790	 4.3880
 1.9800	 4.4170
 1.9810	 4.4460
 1.9820	 4.4760
 1.9830	 4.5050
 1.9840	 4.5340
 1.9850	 4.5640
 1.9860	 4.5960
 1.9870	 4.6270
 1.9880	 4.6590
 1.9890	 4.6910
 1.9900	 4.7230
 1.9910	 4.7550
 1.9920	 4.7850
 1.9930	 4.8140
 1.9940	 4.8450
 1.9950	 4.8740
 1.9960	 4.9040
 1.9970	 4.9360
 1.9980	 4.9660
 1.9990	 4.9950
 2.0000	 5.0250
 2.0010	 5.0560
 2.0020	 5.0880
 2.0030	 5.1220
 2.0040	 5.1560
 2.0050	 5.1900
 2.0060	 5.2260
 2.0070	 5.2590
 2.0080	 5.2920
 2.0090	 5.3230
 2.0100	 5.3500
 2.0110	 5.3800
 2.0120	 5.4100
 2.0130	 5.4410
 2.0140	 5.4740
 2.0150	 5.5070
 2.0160	 5.5360
 2.0170	 5.5650
 2.0180	 5.5940
 2.0190	 5.6210
 2.0200	 5.6490
 2.0210	 5.6780
 2.0220	 5.7060
 2.0230	 5.7320
 2.0240	 5.7600
 2.0250	 5.7890
 2.0260	 5.8180
 2.0270	 5.8470
 2.0280	 5.8780
 2.0290	 5.9050
 2.0300	 5.9310
 2.0310	 5.9570
 2.0320	 5.9810
 2.0330	 6.0060
 2.0340	 6.0310
 2.0350	 6.0540
 2.0360	 6.0770
 2.0370	 6.0990
 2.0380	 6.1200
 2.0390	 6.1420
 2.0400	 6.1630
 2.0410	 6.1850
 2.0420	 6.2080
 2.0430	 6.2290
 2.0440	 6.2500
 2.0450	 6.2700
 2.0460	 6.2890
 2.0470	 6.3060
 2.0480	 6.3240
 2.0490	 6.3420
 2.0500	 6.3600
 2.0510	 6.3770
 2.0520	 6.3940
 2.0530	 6.4120
 2.0540	 6.4310
 2.0550	 6.4490
 2.0560	 6.4690
 2.0570	 6.4870
 2.0580	 6.5060
 2.0590	 6.5260
 2.0600	 6.5480
 2.0610	 6.5670
 2.0620	 6.5870
 2.0630	 6.6060
 2.0640	 6.6220
 2.0650	 6.6400
 2.0660	 6.6620
 2.0670	 6.6800
 2.0680	 6.6980
 2.0690	 6.7150
 2.0700	 6.7310
 2.0710	 6.7490
 2.0720	 6.7680
 2.0730	 6.7860
 2.0740	 6.8050
 2.0750	 6.8250
 2.0760	 6.8440
 2.0770	 6.8630
 2.0780	 6.8840
 2.0790	 6.9060
 2.0800	 6.9250
 2.0810	 6.9430
 2.0820	 6.9610
 2.0830	 6.9780
 2.0840	 6.9960
 2.0850	 7.0150
 2.0860	 7.0350
 2.0870	 7.0550
 2.0880	 7.0750
 2.0890	 7.0930
 2.0900	 7.1120
 2.0910	 7.1310
 2.0920	 7.1490
 2.0930	 7.1680
 2.0940	 7.1900
 2.0950	 7.2100
 2.0960	 7.2290
 2.0970	 7.2480
 2.0980	 7.2670
 2.0990	 7.2870
 2.1000	 7.3090
 2.1010	 7.3300
 2.1020	 7.3520
 2.1030	 7.3720
 2.1040	 7.3890
 2.1050	 7.4090
 2.1060	 7.4300
 2.1070	 7.4530
 2.1080	 7.4740
 2.1090	 7.4960
 2.1100	 7.5190
 2.1110	 7.5410
 2.1120	 7.5620
 2.1130	 7.5860
 2.1140	 7.6070
 2.1150	 7.6230
 2.1160	 7.6430
 2.1170	 7.6620
 2.1180	 7.6820
 2.1190	 7.7060
 2.1200	 7.7280
 2.1210	 7.7500
 2.1220	 7.7700
 2.1230	 7.7910
 2.1240	 7.8100
 2.1250	 7.8300
 2.1260	 7.8510
 2.1270	 7.8720
 2.1280	 7.8960
 2.1290	 7.9180
 2.1300	 7.9420
 2.1310	 7.9630
 2.1320	 7.9840
 2.1330	 8.0040
 2.1340	 8.0220
 2.1350	 8.0420
 2.1360	 8.0620
 2.1370	 8.0810
 2.1380	 8.0990
 2.1390	 8.1180
 2.1400	 8.1380
 2.1410	 8.1560
 2.1420	 8.1760
 2.1430	 8.1980
 2.1440	 8.2210
 2.1450	 8.2450
 2.1460	 8.2670
 2.1470	 8.2890
 2.1480	 8.3100
 2.1490	 8.3300
 2.1500	 8.3520
 2.1510	 8.3750
 2.1520	 8.3970
 2.1530	 8.4190
 2.1540	 8.4410
 2.1550	 8.4600
 2.1560	 8.4820
 2.1570	 8.5070
 2.1580	 8.5290
 2.1590	 8.5520
 2.1600	 8.5730
 2.1610	 8.5920
 2.1620	 8.6090
 2.1630	 8.6260
 2.1640	 8.6420
 2.1650	 8.6610
 2.1660	 8.6820
 2.1670	 8.7020
 2.1680	 8.7260
 2.1690	 8.7480
 2.1700	 8.7690
 2.1710	 8.7900
 2.1720	 8.8120
 2.1730	 8.8310
 2.1740	 8.8460
 2.1750	 8.8630
 2.1760	 8.8800
 2.1770	 8.8990
 2.1780	 8.9190
 2.1790	 8.9390
 2.1800	 8.9610
 2.1810	 8.9810
 2.1820	 8.9990
 2.1830	 9.0190
 2.1840	 9.0370
 2.1850	 9.0530
 2.1860	 9.0700
 2.1870	 9.0860
 2.1880	 9.1010
 2.1890	 9.1150
 2.1900	 9.1310
 2.1910	 9.1460
 2.1920	 9.1630
 2.1930	 9.1830
 2.1940	 9.2000
 2.1950	 9.2160
 2.1960	 9.2320
 2.1970	 9.2420
 2.1980	 9.2580
 2.1990	 9.2810
 2.2000	 9.2970
 2.2010	 9.3130
 2.2020	 9.3280
 2.2030	 9.3390
 2.2040	 9.3510
 2.2050	 9.3630
 2.2060	 9.3770
 2.2070	 9.3890
 2.2080	 9.3980
 2.2090	 9.4080
 2.2100	 9.4170
 2.2110	 9.4260
 2.2120	 9.4340
 2.2130	 9.4400
 2.2140	 9.4430
 2.2150	 9.4480
 2.2160	 9.4510
 2.2170	 9.4550
 2.2180	 9.4630
 2.2190	 9.4660
 2.2200	 9.4660
 2.2210	 9.4640
 2.2220	 9.4560
 2.2230	 9.4500
 2.2240	 9.4440
 2.2250	 9.4350
 2.2260	 9.4230
 2.2270	 9.4120
 2.2280	 9.3990
 2.2290	 9.3840
 2.2300	 9.3690
 2.2310	 9.3530
 2.2320	 9.3330
 2.2330	 9.3090
 2.2340	 9.2860
 2.2350	 9.2640
 2.2360	 9.2380
 2.2370	 9.2090
 2.2380	 9.1810
 2.2390	 9.1520
 2.2400	 9.1190
 2.2410	 9.0840
 2.2420	 9.0490
 2.2430	 9.0120
 2.2440	 8.9740
 2.2450	 8.9380
 2.2460	 8.8980
 2.2470	 8.8550
 2.2480	 8.8110
 2.2490	 8.7670
 2.2500	 8.7230
 2.2510	 8.6790
 2.2520	 8.6340
 2.2530	 8.5900
 2.2540	 8.5460
 2.2550	 8.5010
 2.2560	 8.4550
 2.2570	 8.4100
 2.2580	 8.3620
 2.2590	 8.3140
 2.2600	 8.2650
 2.2610	 8.2130
 2.2620	 8.1620
 2.2630	 8.1150
 2.2640	 8.0660
 2.2650	 8.0200
 2.2660	 7.9800
 2.2670	 7.9380
 2.2680	 7.8930
 2.2690	 7.8560
 2.2700	 7.8230
 2.2710	 7.7870
 2.2720	 7.7550
 2.2730	 7.7200
 2.2740	 7.6760
 2.2750	 7.6420
 2.2760	 7.6110
 2.2770	 7.5810
 2.2780	 7.5530
 2.2790	 7.5260
 2.2800	 7.5000
 2.2810	 7.4770
 2.2820	 7.4610
 2.2830	 7.4380
 2.2840	 7.4140
 2.2850	 7.3900
 2.2860	 7.3610
 2.2870	 7.3340
 2.2880	 7.3100
 2.2890	 7.2830
 2.2900	 7.2560
 2.2910	 7.2280
 2.2920	 7.2010
 2.2930	 7.1700
 2.2940	 7.1340
 2.2950	 7.1000
 2.2960	 7.0650
 2.2970	 7.0310
 2.2980	 6.9980
 2.2990	 6.9650
 2.3000	 6.9290
 2.3010	 6.8960
 2.3020	 6.8640
 2.3030	 6.8380
 2.3040	 6.8140
 2.3050	 6.7870
 2.3060	 6.7620
 2.3070	 6.7350
 2.3080	 6.7080
 2.3090	 6.6860
 2.3100	 6.6690
 2.3110	 6.6560
 2.3120	 6.6450
 2.3130	 6.6380
 2.3140	 6.6330
 2.3150	 6.6310
 2.3160	 6.6250
 2.3170	 6.6230
 2.3180	 6.6160
 2.3190	 6.6000
 2.3200	 6.5910
 2.3210	 6.5850
 2.3220	 6.5770
 2.3230	 6.5760
 2.3240	 6.5640
 2.3250	 6.5440
 2.3260	 6.5250
 2.3270	 6.4960
 2.3280	 6.4770
 2.3290	 6.4630
 2.3300	 6.4450
 2.3310	 6.4290
 2.3320	 6.4110
 2.3330	 6.3880
 2.3340	 6.3660
 2.3350	 6.3440
 2.3360	 6.3170
 2.3370	 6.2840
 2.3380	 6.2540
 2.3390	 6.2200
 2.3400	 6.1930
 2.3410	 6.1740
 2.3420	 6.1530
 2.3430	 6.1360
 2.3440	 6.1150
 2.3450	 6.0950
 2.3460	 6.0710
 2.3470	 6.0440
 2.3480	 6.0210
 2.3490	 5.9920
 2.3500	 5.9700
 2.3510	 5.9570
 2.3520	 5.9410
 2.3530	 5.9250
 2.3540	 5.9130
 2.3550	 5.9020
 2.3560	 5.8850
 2.3570	 5.8740
 2.3580	 5.8660
 2.3590	 5.8560
 2.3600	 5.8370
 2.3610	 5.8220
 2.3620	 5.8010
 2.3630	 5.7690
 2.3640	 5.7540
 2.3650	 5.7350
 2.3660	 5.7090
 2.3670	 5.6990
 2.3680	 5.6830
 2.3690	 5.6660
 2.3700	 5.6570
 2.3710	 5.6380
 2.3720	 5.6260
 2.3730	 5.6150
 2.3740	 5.5990
 2.3750	 5.5900
 2.3760	 5.5700
 2.3770	 5.5400
 2.3780	 5.5070
 2.3790	 5.4760
 2.3800	 5.4560
 2.3810	 5.4500
 2.3820	 5.4400
 2.3830	 5.4250
 2.3840	 5.4080
 2.3850	 5.3750
 2.3860	 5.3530
 2.3870	 5.3400
 2.3880	 5.3160
 2.3890	 5.3050
 2.3900	 5.2970
 2.3910	 5.2810
 2.3920	 5.2640
 2.3930	 5.2370
 2.3940	 5.2030
 2.3950	 5.1700
 2.3960	 5.1410
 2.3970	 5.1260
 2.3980	 5.1090
 2.3990	 5.0900
 2.4000	 5.0780
 2.4010	 5.0610
 2.4020	 5.0480
 2.4030	 5.0420
 2.4040	 5.0250
 2.4050	 4.9930
 2.4060	 4.9630
 2.4070	 4.9340
 2.4080	 4.9060
 2.4090	 4.8940
 2.4100	 4.8910
 2.4110	 4.8800
 2.4120	 4.8610
 2.4130	 4.8420
 2.4140	 4.8190
 2.4150	 4.7890
 2.4160	 4.7640
 2.4170	 4.7430
 2.4180	 4.7200
 2.4190	 4.6940
 2.4200	 4.6750
 2.4210	 4.6540
 2.4220	 4.6330
 2.4230	 4.6280
 2.4240	 4.6140
 2.4250	 4.5900
 2.4260	 4.5580
 2.4270	 4.5230
 2.4280	 4.4970
 2.4290	 4.4880
 2.4300	 4.4780
 2.4310	 4.4560
 2.4320	 4.4290
 2.4330	 4.3980
 2.4340	 4.3740
 2.4350	 4.3580
 2.4360	 4.3440
 2.4370	 4.3250
 2.4380	 4.3010
 2.4390	 4.2690
 2.4400	 4.2440
 2.4410	 4.2270
 2.4420	 4.2090
 2.4430	 4.2060
 2.4440	 4.1990
 2.4450	 4.1810
 2.4460	 4.1590
 2.4470	 4.1320
 2.4480	 4.0900
 2.4490	 4.0540
 2.4500	 4.0460
 2.4510	 4.0180
 2.4520	 4.0000
 2.4530	 3.9940
 2.4540	 3.9580
 2.4550	 3.9320
 2.4560	 3.9270
 2.4570	 3.9090
 2.4580	 3.8860
 2.4590	 3.8790
 2.4600	 3.8600
 2.4610	 3.8270
 2.4620	 3.7910
 2.4630	 3.7620
 2.4640	 3.7330
 2.4650	 3.7280
 2.4660	 3.7510
 2.4670	 3.7540
 2.4680	 3.7450
 2.4690	 3.7150
 2.4700	 3.6910
 2.4710	 3.6450
 2.4720	 3.6290
 2.4730	 3.6440
 2.4740	 3.6270
 2.4750	 3.6070
 2.4760	 3.6010
 2.4770	 3.5800
 2.4780	 3.5760
 2.4790	 3.6160
 2.4800	 3.6140
 2.4810	 3.5750
 2.4820	 3.5140
 2.4830	 3.4880
 2.4840	 3.5030
 2.4850	 3.5240
 2.4860	 3.5440
 2.4870	 3.5360
 2.4880	 3.4830
 2.4890	 3.4520
 2.4900	 3.4710
 2.4910	 3.4830
 2.4920	 3.4900
 2.4930	 3.5090
 2.4940	 3.4670
 2.4950	 3.4450
 2.4960	 3.4790
 2.4970	 3.4690
 2.4980	 3.4360
 2.4990	 3.4320
 2.5000	 3.4140
