Name: Heteromeles arbutifolia 1
Type: vegetation
Class: Shrub
Genus: Heteromeles
Species: arbutifolia
Sample No.: VH205
Owner: UCSB
Wavelength Range: TIR
Origin: 34.4907; -119.791; WGS84
Collection Date: 10/13/2013
Description: Samples were collected as part of the HyspIRI Airborne Campaign. 48 individual plants were sampled in three times in 2013 - spring  summer  and fall. The name of the sample includes a 1  2  or 3 which references a different individual of the species. Samples were taken to JPL and processed within 48 hours of collection. The same leaves were processed in the Nicolet and then measured using the ASD.
Measurement: Hemispherical reflectance
First Column: X
Second Column: Y
X Units: Wavelength (micrometers)
Y Units: Reflectance (percentage)
First X Value: 2.501
Last X Value: 15.387
Number of X Values: 1737
Additional Information: vegetation.shrub.heteromeles.arbutifolia.tir.vh205.ucsb.nicolet.ancillary.txt

 2.5010	 6.0770
 2.5030	 6.0700
 2.5040	 6.0130
 2.5050	 6.0540
 2.5060	 6.1250
 2.5070	 5.8850
 2.5090	 6.0580
 2.5100	 6.1600
 2.5110	 6.1700
 2.5120	 6.1420
 2.5140	 6.1640
 2.5150	 5.9680
 2.5160	 6.0570
 2.5170	 6.0100
 2.5180	 5.9720
 2.5200	 5.9460
 2.5210	 5.9440
 2.5220	 5.8570
 2.5230	 5.8850
 2.5250	 6.0760
 2.5260	 6.0440
 2.5270	 5.8760
 2.5280	 5.8620
 2.5290	 5.6640
 2.5310	 5.9170
 2.5320	 5.9700
 2.5330	 5.9500
 2.5340	 6.1350
 2.5360	 6.1290
 2.5370	 5.9210
 2.5380	 5.9120
 2.5390	 5.9060
 2.5410	 5.9690
 2.5420	 6.0100
 2.5430	 6.0720
 2.5440	 5.8230
 2.5460	 5.8500
 2.5470	 5.8860
 2.5480	 5.9370
 2.5490	 6.1310
 2.5510	 6.1100
 2.5520	 6.0570
 2.5530	 6.2010
 2.5540	 6.3190
 2.5560	 6.3010
 2.5570	 6.2510
 2.5580	 6.0630
 2.5590	 6.0280
 2.5610	 6.1740
 2.5620	 6.1790
 2.5630	 6.1940
 2.5640	 6.1270
 2.5660	 6.0060
 2.5670	 5.8990
 2.5680	 5.9240
 2.5700	 6.0150
 2.5710	 6.0110
 2.5720	 5.8750
 2.5730	 5.9400
 2.5750	 6.0970
 2.5760	 6.2370
 2.5770	 6.1590
 2.5790	 6.1430
 2.5800	 6.0570
 2.5810	 6.1950
 2.5820	 6.1950
 2.5840	 6.1610
 2.5850	 6.1830
 2.5860	 6.2480
 2.5880	 6.1360
 2.5890	 6.0450
 2.5900	 5.9940
 2.5910	 6.1100
 2.5930	 6.1880
 2.5940	 6.0430
 2.5950	 5.9800
 2.5970	 6.1310
 2.5980	 6.1100
 2.5990	 5.9420
 2.6000	 5.8440
 2.6020	 6.0450
 2.6030	 6.0930
 2.6040	 6.0810
 2.6060	 6.0820
 2.6070	 6.0410
 2.6080	 5.9730
 2.6100	 6.1220
 2.6110	 6.0530
 2.6120	 6.0920
 2.6140	 6.0110
 2.6150	 5.8790
 2.6160	 5.8100
 2.6180	 5.7680
 2.6190	 5.6750
 2.6200	 5.7720
 2.6220	 5.7740
 2.6230	 5.8060
 2.6240	 5.5890
 2.6260	 5.5160
 2.6270	 5.4790
 2.6280	 5.5710
 2.6300	 5.6420
 2.6310	 5.5820
 2.6320	 5.4840
 2.6340	 5.5820
 2.6350	 5.5500
 2.6360	 5.5050
 2.6380	 5.5960
 2.6390	 5.7610
 2.6400	 5.6420
 2.6420	 5.5620
 2.6430	 5.5730
 2.6440	 5.6930
 2.6460	 5.6940
 2.6470	 5.5750
 2.6480	 5.5230
 2.6500	 5.4070
 2.6510	 5.2730
 2.6520	 5.5180
 2.6540	 5.5220
 2.6550	 5.3430
 2.6560	 5.2630
 2.6580	 5.1660
 2.6590	 5.1370
 2.6610	 5.2340
 2.6620	 5.2880
 2.6630	 5.4200
 2.6650	 5.3540
 2.6660	 5.4650
 2.6670	 5.4320
 2.6690	 5.3650
 2.6700	 5.2840
 2.6720	 5.1690
 2.6730	 5.2260
 2.6740	 5.4280
 2.6760	 5.4610
 2.6770	 5.4640
 2.6780	 5.3710
 2.6800	 5.5350
 2.6810	 5.4510
 2.6830	 5.3000
 2.6840	 5.2000
 2.6850	 5.2020
 2.6870	 5.0580
 2.6880	 4.9590
 2.6900	 5.0140
 2.6910	 5.1040
 2.6920	 5.0760
 2.6940	 5.1350
 2.6950	 5.1390
 2.6970	 5.1820
 2.6980	 5.2950
 2.6990	 5.5030
 2.7010	 5.2150
 2.7020	 5.0620
 2.7040	 5.1340
 2.7050	 5.2000
 2.7060	 5.2620
 2.7080	 5.1750
 2.7090	 4.9300
 2.7110	 4.9080
 2.7120	 4.8950
 2.7130	 4.9540
 2.7150	 4.9900
 2.7160	 5.0840
 2.7180	 4.9710
 2.7190	 4.9060
 2.7210	 5.0640
 2.7220	 5.2210
 2.7230	 5.1110
 2.7250	 5.0760
 2.7260	 4.9130
 2.7280	 4.9760
 2.7290	 5.0520
 2.7310	 5.0900
 2.7320	 4.7790
 2.7330	 4.5810
 2.7350	 4.6320
 2.7360	 4.6760
 2.7380	 4.5890
 2.7390	 4.6310
 2.7410	 4.6640
 2.7420	 4.9160
 2.7440	 4.8460
 2.7450	 4.7940
 2.7470	 4.8180
 2.7480	 4.4210
 2.7490	 4.3120
 2.7510	 4.8060
 2.7520	 4.9490
 2.7540	 4.7830
 2.7550	 4.5630
 2.7570	 4.3150
 2.7580	 4.3340
 2.7600	 4.4540
 2.7610	 4.5130
 2.7630	 4.8170
 2.7640	 4.9580
 2.7660	 4.8280
 2.7670	 4.6770
 2.7680	 4.9560
 2.7700	 5.1590
 2.7710	 5.1270
 2.7730	 4.7370
 2.7740	 4.3940
 2.7760	 4.5710
 2.7770	 4.8140
 2.7790	 4.8110
 2.7800	 5.1150
 2.7820	 5.5220
 2.7830	 5.6410
 2.7850	 5.0810
 2.7860	 4.8750
 2.7880	 4.9440
 2.7890	 4.8790
 2.7910	 4.8150
 2.7920	 4.9060
 2.7940	 4.9940
 2.7950	 5.0840
 2.7970	 4.9400
 2.7980	 4.7730
 2.8000	 4.5480
 2.8010	 4.6480
 2.8030	 4.8300
 2.8040	 4.8350
 2.8060	 4.7980
 2.8070	 4.7560
 2.8090	 4.6720
 2.8110	 4.6120
 2.8120	 4.5940
 2.8140	 4.8040
 2.8150	 4.9580
 2.8170	 4.9820
 2.8180	 5.0560
 2.8200	 5.0250
 2.8210	 4.7460
 2.8230	 5.0000
 2.8240	 5.2020
 2.8260	 5.1650
 2.8270	 5.0590
 2.8290	 4.6830
 2.8300	 4.7000
 2.8320	 4.8580
 2.8340	 4.9120
 2.8350	 5.1120
 2.8370	 4.9290
 2.8380	 4.4970
 2.8400	 4.5170
 2.8410	 4.7220
 2.8430	 4.9250
 2.8440	 4.6940
 2.8460	 4.4970
 2.8480	 4.6600
 2.8490	 4.7760
 2.8510	 4.7360
 2.8520	 4.7010
 2.8540	 4.7300
 2.8550	 4.7980
 2.8570	 4.8960
 2.8590	 4.9850
 2.8600	 4.9320
 2.8620	 4.7220
 2.8630	 4.6350
 2.8650	 4.8380
 2.8660	 4.7310
 2.8680	 4.6950
 2.8700	 5.0080
 2.8710	 5.0190
 2.8730	 4.8400
 2.8740	 4.7990
 2.8760	 4.7740
 2.8780	 4.8550
 2.8790	 4.8570
 2.8810	 5.0190
 2.8820	 5.1510
 2.8840	 4.3920
 2.8860	 4.0620
 2.8870	 4.7910
 2.8890	 4.9310
 2.8900	 4.5070
 2.8920	 4.6520
 2.8940	 5.0830
 2.8950	 5.2050
 2.8970	 4.9810
 2.8980	 4.8160
 2.9000	 4.4990
 2.9020	 4.5320
 2.9030	 4.8380
 2.9050	 4.8340
 2.9070	 4.6120
 2.9080	 4.5590
 2.9100	 4.4490
 2.9120	 4.4980
 2.9130	 4.7100
 2.9150	 4.9890
 2.9160	 4.8860
 2.9180	 4.8770
 2.9200	 4.8890
 2.9210	 5.0160
 2.9230	 4.8110
 2.9250	 4.5960
 2.9260	 4.7180
 2.9280	 4.8970
 2.9300	 4.8930
 2.9310	 4.8850
 2.9330	 4.7280
 2.9350	 4.6960
 2.9360	 4.7480
 2.9380	 4.6380
 2.9400	 4.7450
 2.9410	 5.0120
 2.9430	 4.5650
 2.9450	 4.7260
 2.9460	 5.0530
 2.9480	 4.7810
 2.9500	 4.5030
 2.9510	 4.7540
 2.9530	 5.3820
 2.9550	 5.2890
 2.9560	 4.6440
 2.9580	 4.4760
 2.9600	 5.3280
 2.9610	 4.5950
 2.9630	 3.1630
 2.9650	 3.6420
 2.9660	 5.3690
 2.9680	 7.0750
 2.9700	 7.4230
 2.9720	 5.5910
 2.9730	 5.1960
 2.9750	 5.5320
 2.9770	 5.3640
 2.9780	 6.8290
 2.9800	 6.6110
 2.9820	 4.6450
 2.9840	 4.5480
 2.9850	 4.3430
 2.9870	 3.8560
 2.9890	 4.8490
 2.9900	 4.8890
 2.9920	 4.6830
 2.9940	 5.7240
 2.9960	 5.3820
 2.9970	 4.9670
 2.9990	 5.5620
 3.0010	 4.6470
 3.0030	 3.3430
 3.0040	 2.8740
 3.0060	 3.6690
 3.0080	 3.7660
 3.0100	 4.0050
 3.0110	 4.3560
 3.0130	 4.7930
 3.0150	 6.2940
 3.0170	 6.4190
 3.0180	 5.8980
 3.0200	 6.0690
 3.0220	 5.1200
 3.0240	 4.7480
 3.0250	 5.1030
 3.0270	 4.9400
 3.0290	 5.0270
 3.0310	 3.7190
 3.0320	 3.2240
 3.0340	 5.5090
 3.0360	 5.8140
 3.0380	 5.8750
 3.0400	 7.1040
 3.0410	 6.4140
 3.0430	 5.6620
 3.0450	 7.2630
 3.0470	 7.1520
 3.0480	 5.6120
 3.0500	 4.4760
 3.0520	 2.9950
 3.0540	 3.6860
 3.0560	 4.2500
 3.0570	 3.9880
 3.0590	 2.8830
 3.0610	 2.2890
 3.0630	 3.7360
 3.0650	 4.2910
 3.0660	 4.2400
 3.0680	 4.3710
 3.0700	 2.8440
 3.0720	 2.7060
 3.0740	 3.9320
 3.0760	 4.8130
 3.0770	 5.0850
 3.0790	 5.5520
 3.0810	 5.5510
 3.0830	 5.1280
 3.0850	 4.9480
 3.0870	 5.1000
 3.0880	 4.7660
 3.0900	 4.7320
 3.0920	 5.2950
 3.0940	 5.5970
 3.0960	 5.4820
 3.0980	 5.2360
 3.0990	 4.7510
 3.1010	 4.4730
 3.1030	 4.8720
 3.1050	 4.6260
 3.1070	 4.4600
 3.1090	 4.9470
 3.1110	 5.0490
 3.1120	 4.8890
 3.1140	 4.7510
 3.1160	 4.9530
 3.1180	 5.3310
 3.1200	 5.0870
 3.1220	 4.7590
 3.1240	 4.8740
 3.1260	 5.0800
 3.1270	 5.1390
 3.1290	 4.8770
 3.1310	 4.6790
 3.1330	 4.6910
 3.1350	 4.8960
 3.1370	 4.6580
 3.1390	 5.0940
 3.1410	 4.4470
 3.1430	 3.2750
 3.1450	 4.1270
 3.1460	 5.5930
 3.1480	 6.5370
 3.1500	 6.8930
 3.1520	 5.5700
 3.1540	 4.7120
 3.1560	 6.1390
 3.1580	 6.0590
 3.1600	 5.6200
 3.1620	 5.8720
 3.1640	 5.7200
 3.1660	 4.0980
 3.1680	 3.4210
 3.1700	 5.0250
 3.1710	 4.4660
 3.1730	 3.0060
 3.1750	 4.4200
 3.1770	 4.5290
 3.1790	 3.8110
 3.1810	 3.9940
 3.1830	 4.1680
 3.1850	 4.5860
 3.1870	 5.4380
 3.1890	 5.0990
 3.1910	 4.5230
 3.1930	 4.5630
 3.1950	 4.8900
 3.1970	 5.0100
 3.1990	 4.8060
 3.2010	 4.2940
 3.2030	 4.7600
 3.2050	 5.0010
 3.2070	 4.8210
 3.2090	 4.6640
 3.2110	 4.6840
 3.2130	 4.6660
 3.2150	 4.5600
 3.2170	 4.3730
 3.2190	 4.6670
 3.2210	 4.8490
 3.2230	 5.0480
 3.2250	 5.0680
 3.2270	 5.0870
 3.2290	 5.1380
 3.2310	 4.9650
 3.2330	 4.4210
 3.2350	 4.4670
 3.2370	 4.9950
 3.2390	 4.9400
 3.2410	 4.6140
 3.2430	 4.5820
 3.2450	 4.4680
 3.2470	 4.6980
 3.2490	 5.1500
 3.2510	 5.3530
 3.2530	 5.0700
 3.2550	 4.6610
 3.2570	 4.5990
 3.2590	 4.4990
 3.2610	 4.5170
 3.2630	 4.7940
 3.2650	 5.0840
 3.2670	 5.2660
 3.2690	 5.0180
 3.2720	 4.6500
 3.2740	 4.3970
 3.2760	 4.4800
 3.2780	 4.7110
 3.2800	 4.8090
 3.2820	 4.4410
 3.2840	 4.7220
 3.2860	 4.9040
 3.2880	 4.8330
 3.2900	 4.9020
 3.2920	 4.9410
 3.2940	 4.8310
 3.2960	 4.9410
 3.2990	 4.6640
 3.3010	 4.3850
 3.3030	 4.3760
 3.3050	 4.5360
 3.3070	 4.4780
 3.3090	 4.5540
 3.3110	 4.7740
 3.3130	 5.0770
 3.3150	 4.9760
 3.3180	 4.8250
 3.3200	 4.5480
 3.3220	 4.6510
 3.3240	 4.7050
 3.3260	 4.6400
 3.3280	 4.7670
 3.3300	 4.8240
 3.3330	 4.7050
 3.3350	 4.5680
 3.3370	 4.5460
 3.3390	 4.5840
 3.3410	 4.3420
 3.3430	 4.0090
 3.3450	 3.9400
 3.3480	 3.9330
 3.3500	 3.7850
 3.3520	 3.7920
 3.3540	 3.9480
 3.3560	 4.1660
 3.3580	 4.1380
 3.3610	 4.0230
 3.3630	 3.9710
 3.3650	 3.9370
 3.3670	 4.0050
 3.3690	 4.1590
 3.3720	 4.1350
 3.3740	 4.0370
 3.3760	 4.0970
 3.3780	 4.2000
 3.3800	 4.2180
 3.3830	 4.3570
 3.3850	 4.3970
 3.3870	 4.3450
 3.3890	 4.1870
 3.3910	 4.1840
 3.3940	 4.2100
 3.3960	 4.3270
 3.3980	 4.3130
 3.4000	 4.3600
 3.4020	 4.3710
 3.4050	 4.4930
 3.4070	 4.6690
 3.4090	 4.9130
 3.4110	 5.1500
 3.4140	 5.4130
 3.4160	 5.6790
 3.4180	 6.2480
 3.4200	 6.9920
 3.4230	 7.9260
 3.4250	 8.9390
 3.4270	10.2460
 3.4290	11.1500
 3.4320	10.6520
 3.4340	 9.2960
 3.4360	 8.1040
 3.4390	 7.3260
 3.4410	 7.0550
 3.4430	 6.8810
 3.4450	 6.4790
 3.4480	 6.0060
 3.4500	 5.8260
 3.4520	 6.0050
 3.4550	 6.3270
 3.4570	 6.0570
 3.4590	 6.0390
 3.4620	 6.1390
 3.4640	 6.0850
 3.4660	 5.9660
 3.4680	 5.8110
 3.4710	 5.7090
 3.4730	 5.6860
 3.4750	 5.5230
 3.4780	 5.4070
 3.4800	 5.4120
 3.4820	 5.4140
 3.4850	 5.2480
 3.4870	 5.1910
 3.4890	 5.2800
 3.4920	 5.3470
 3.4940	 5.2260
 3.4970	 5.2890
 3.4990	 5.3730
 3.5010	 5.5270
 3.5040	 6.0490
 3.5060	 7.1260
 3.5080	 8.6800
 3.5110	 9.9460
 3.5130	 9.7710
 3.5160	 8.6400
 3.5180	 7.8290
 3.5200	 7.4330
 3.5230	 6.8610
 3.5250	 6.5590
 3.5270	 6.4180
 3.5300	 6.2760
 3.5320	 6.1570
 3.5350	 6.0830
 3.5370	 5.9880
 3.5400	 5.9570
 3.5420	 5.8960
 3.5440	 5.8270
 3.5470	 5.6510
 3.5490	 5.6980
 3.5520	 5.7880
 3.5540	 5.8110
 3.5570	 5.7760
 3.5590	 5.7050
 3.5610	 5.5390
 3.5640	 5.5380
 3.5660	 5.5470
 3.5690	 5.6930
 3.5710	 5.8070
 3.5740	 5.7420
 3.5760	 5.5480
 3.5790	 5.4090
 3.5810	 5.3950
 3.5840	 5.3630
 3.5860	 5.3560
 3.5890	 5.3210
 3.5910	 5.5760
 3.5930	 6.0200
 3.5960	 5.7070
 3.5980	 5.4650
 3.6010	 5.5520
 3.6030	 5.5550
 3.6060	 5.5610
 3.6080	 5.5710
 3.6110	 5.6690
 3.6140	 5.7410
 3.6160	 5.6040
 3.6190	 5.5430
 3.6210	 5.4930
 3.6240	 5.5670
 3.6260	 5.5010
 3.6290	 5.4170
 3.6310	 5.3900
 3.6340	 5.4610
 3.6360	 5.6460
 3.6390	 5.5840
 3.6410	 5.3950
 3.6440	 5.4720
 3.6470	 5.4810
 3.6490	 5.4370
 3.6520	 5.4460
 3.6540	 5.3900
 3.6570	 5.3040
 3.6590	 5.3930
 3.6620	 5.3370
 3.6650	 5.3120
 3.6670	 5.3520
 3.6700	 5.4250
 3.6720	 5.3420
 3.6750	 5.3570
 3.6780	 5.2930
 3.6800	 5.2400
 3.6830	 5.2150
 3.6850	 5.2810
 3.6880	 5.3230
 3.6910	 5.3850
 3.6930	 5.3610
 3.6960	 5.3050
 3.6990	 5.1940
 3.7010	 5.2040
 3.7040	 5.2610
 3.7060	 5.2870
 3.7090	 5.2840
 3.7120	 5.4290
 3.7140	 5.4370
 3.7170	 5.2660
 3.7200	 5.1820
 3.7220	 5.2690
 3.7250	 5.2570
 3.7280	 5.2770
 3.7300	 5.2170
 3.7330	 5.1850
 3.7360	 5.2680
 3.7390	 5.2610
 3.7410	 5.0820
 3.7440	 5.1720
 3.7470	 5.2510
 3.7490	 5.2060
 3.7520	 5.2470
 3.7550	 5.2170
 3.7580	 5.2370
 3.7600	 5.2370
 3.7630	 5.1710
 3.7660	 5.1900
 3.7680	 5.2090
 3.7710	 5.2720
 3.7740	 5.3250
 3.7770	 5.4660
 3.7790	 5.2820
 3.7820	 5.2490
 3.7850	 5.3480
 3.7880	 5.2240
 3.7900	 5.1700
 3.7930	 5.2320
 3.7960	 5.3180
 3.7990	 5.3840
 3.8020	 5.3040
 3.8040	 5.1790
 3.8070	 5.2220
 3.8100	 5.3680
 3.8130	 5.4470
 3.8160	 5.3700
 3.8180	 5.2160
 3.8210	 5.2050
 3.8240	 5.1450
 3.8270	 5.3240
 3.8300	 5.3000
 3.8330	 5.1930
 3.8350	 5.2490
 3.8380	 5.3650
 3.8410	 5.3530
 3.8440	 5.2200
 3.8470	 5.1320
 3.8500	 5.2070
 3.8520	 5.4060
 3.8550	 5.5270
 3.8580	 5.3460
 3.8610	 5.2160
 3.8640	 5.1660
 3.8670	 5.2300
 3.8700	 5.2120
 3.8730	 5.1790
 3.8750	 5.2490
 3.8780	 5.2790
 3.8810	 5.2270
 3.8840	 5.2450
 3.8870	 5.1890
 3.8900	 5.0970
 3.8930	 5.1070
 3.8960	 5.3190
 3.8990	 5.3260
 3.9020	 5.2370
 3.9050	 5.3410
 3.9080	 5.4120
 3.9110	 5.3600
 3.9140	 5.3380
 3.9160	 5.4040
 3.9190	 5.3180
 3.9220	 5.1820
 3.9250	 5.1920
 3.9280	 5.3610
 3.9310	 5.4320
 3.9340	 5.3730
 3.9370	 5.4510
 3.9400	 5.3360
 3.9430	 5.2090
 3.9460	 5.1080
 3.9490	 5.1680
 3.9520	 5.3210
 3.9550	 5.4300
 3.9580	 5.3780
 3.9610	 5.3330
 3.9640	 5.3580
 3.9670	 5.4040
 3.9700	 5.4000
 3.9730	 5.3000
 3.9770	 5.1820
 3.9800	 5.1760
 3.9830	 5.2250
 3.9860	 5.1700
 3.9890	 5.0960
 3.9920	 5.0460
 3.9950	 5.1090
 3.9980	 5.2680
 4.0010	 5.2300
 4.0040	 5.2230
 4.0070	 5.2740
 4.0100	 5.2490
 4.0130	 5.2460
 4.0170	 5.3000
 4.0200	 5.3160
 4.0230	 5.3180
 4.0260	 5.3130
 4.0290	 5.2750
 4.0320	 5.1880
 4.0350	 5.1390
 4.0380	 5.1560
 4.0420	 5.1720
 4.0450	 5.2050
 4.0480	 5.2100
 4.0510	 5.1590
 4.0540	 5.1170
 4.0570	 5.1130
 4.0610	 5.2100
 4.0640	 5.2410
 4.0670	 5.2870
 4.0700	 5.2320
 4.0730	 5.1350
 4.0770	 5.1200
 4.0800	 5.2890
 4.0830	 5.3910
 4.0860	 5.3690
 4.0890	 5.2610
 4.0930	 5.2830
 4.0960	 5.3690
 4.0990	 5.3540
 4.1020	 5.2350
 4.1060	 5.2290
 4.1090	 5.1400
 4.1120	 5.0460
 4.1150	 5.1530
 4.1190	 5.1910
 4.1220	 5.1370
 4.1250	 5.0810
 4.1280	 5.1430
 4.1320	 5.1810
 4.1350	 5.1880
 4.1380	 5.1450
 4.1420	 5.1330
 4.1450	 5.1870
 4.1480	 5.2320
 4.1520	 5.2340
 4.1550	 5.1960
 4.1580	 5.1700
 4.1620	 5.1910
 4.1650	 5.1870
 4.1680	 5.2630
 4.1720	 5.3990
 4.1750	 5.4250
 4.1780	 5.3220
 4.1820	 5.1880
 4.1850	 5.2290
 4.1890	 5.2200
 4.1920	 5.3120
 4.1950	 5.4820
 4.1990	 5.5610
 4.2020	 5.6030
 4.2060	 5.5220
 4.2090	 5.5560
 4.2120	 5.9160
 4.2160	 5.9790
 4.2190	 5.8560
 4.2230	 5.8010
 4.2260	 6.0280
 4.2300	 6.4580
 4.2330	 6.4350
 4.2360	 6.3900
 4.2400	 6.2360
 4.2430	 5.7860
 4.2470	 5.8430
 4.2500	 5.9860
 4.2540	 5.9310
 4.2570	 5.6170
 4.2610	 5.6410
 4.2640	 6.1010
 4.2680	 6.0990
 4.2710	 5.7420
 4.2750	 5.4470
 4.2780	 5.3740
 4.2820	 5.7500
 4.2850	 5.9640
 4.2890	 5.9880
 4.2930	 6.0060
 4.2960	 5.7800
 4.3000	 5.8220
 4.3030	 5.8940
 4.3070	 5.7700
 4.3100	 5.6670
 4.3140	 5.5910
 4.3180	 5.4440
 4.3210	 5.3330
 4.3250	 5.3080
 4.3280	 5.3520
 4.3320	 5.4650
 4.3360	 5.5060
 4.3390	 5.4860
 4.3430	 5.3730
 4.3470	 5.2300
 4.3500	 5.2170
 4.3540	 5.2800
 4.3570	 5.2800
 4.3610	 5.1740
 4.3650	 5.1270
 4.3680	 5.1640
 4.3720	 5.2300
 4.3760	 5.3030
 4.3800	 5.2880
 4.3830	 5.1860
 4.3870	 5.1590
 4.3910	 5.1010
 4.3940	 5.0900
 4.3980	 5.1150
 4.4020	 5.2000
 4.4060	 5.2500
 4.4090	 5.2010
 4.4130	 5.1420
 4.4170	 5.1220
 4.4210	 5.0990
 4.4240	 5.0350
 4.4280	 5.0180
 4.4320	 5.1090
 4.4360	 5.1860
 4.4400	 5.2060
 4.4430	 5.2390
 4.4470	 5.1150
 4.4510	 5.0180
 4.4550	 5.1060
 4.4590	 5.0990
 4.4620	 4.9960
 4.4660	 5.0300
 4.4700	 5.1580
 4.4740	 5.2200
 4.4780	 5.1560
 4.4820	 5.0370
 4.4860	 5.0220
 4.4900	 5.0800
 4.4930	 5.1100
 4.4970	 5.0600
 4.5010	 4.9770
 4.5050	 5.0040
 4.5090	 5.1130
 4.5130	 5.1190
 4.5170	 5.0930
 4.5210	 5.1050
 4.5250	 5.1570
 4.5290	 5.2310
 4.5330	 5.1680
 4.5370	 5.0020
 4.5410	 5.0380
 4.5450	 5.1050
 4.5490	 5.0230
 4.5530	 5.0290
 4.5570	 5.0720
 4.5610	 5.1260
 4.5650	 5.1300
 4.5690	 5.1320
 4.5730	 5.1570
 4.5770	 5.1050
 4.5810	 5.0390
 4.5850	 4.9890
 4.5890	 5.1180
 4.5930	 5.2940
 4.5970	 5.3180
 4.6010	 5.2400
 4.6050	 5.1090
 4.6090	 5.1580
 4.6130	 5.0380
 4.6170	 4.9240
 4.6220	 4.9900
 4.6260	 4.9810
 4.6300	 4.8770
 4.6340	 5.0550
 4.6380	 5.0300
 4.6420	 4.9490
 4.6460	 4.9950
 4.6510	 4.9410
 4.6550	 4.9050
 4.6590	 4.9230
 4.6630	 4.9600
 4.6670	 4.9920
 4.6720	 4.9460
 4.6760	 4.9320
 4.6800	 5.0350
 4.6840	 5.0310
 4.6880	 4.9820
 4.6930	 5.0150
 4.6970	 5.0870
 4.7010	 4.9860
 4.7050	 4.8900
 4.7100	 4.9340
 4.7140	 5.1040
 4.7180	 5.2160
 4.7230	 5.1460
 4.7270	 5.0590
 4.7310	 5.0030
 4.7360	 4.9990
 4.7400	 5.0760
 4.7440	 5.0460
 4.7490	 5.0280
 4.7530	 5.1150
 4.7570	 5.1890
 4.7620	 5.0700
 4.7660	 4.9680
 4.7700	 4.9740
 4.7750	 4.9360
 4.7790	 5.0910
 4.7840	 5.0470
 4.7880	 4.9640
 4.7920	 5.2210
 4.7970	 5.3160
 4.8010	 5.1430
 4.8060	 4.8610
 4.8100	 4.9280
 4.8150	 5.0080
 4.8190	 4.9630
 4.8240	 5.0060
 4.8280	 5.0290
 4.8330	 4.9440
 4.8370	 4.9260
 4.8420	 5.0020
 4.8460	 5.0050
 4.8510	 4.9780
 4.8550	 4.9860
 4.8600	 5.0190
 4.8640	 5.0490
 4.8690	 4.9940
 4.8730	 4.9970
 4.8780	 5.0530
 4.8830	 4.9680
 4.8870	 4.9050
 4.8920	 5.0000
 4.8960	 4.9870
 4.9010	 4.9290
 4.9060	 4.9200
 4.9100	 5.0260
 4.9150	 5.1420
 4.9200	 5.1160
 4.9240	 5.0450
 4.9290	 5.1110
 4.9340	 5.0690
 4.9380	 5.0010
 4.9430	 4.9620
 4.9480	 4.9870
 4.9530	 5.0210
 4.9570	 5.0930
 4.9620	 5.0530
 4.9670	 4.9530
 4.9720	 4.9640
 4.9760	 5.0080
 4.9810	 4.9970
 4.9860	 5.0080
 4.9910	 4.9600
 4.9960	 4.9790
 5.0000	 4.9990
 5.0050	 5.0280
 5.0100	 4.9720
 5.0150	 4.9700
 5.0200	 4.9760
 5.0250	 5.0000
 5.0290	 5.0290
 5.0340	 5.0110
 5.0390	 5.0380
 5.0440	 5.0030
 5.0490	 4.9270
 5.0540	 4.9440
 5.0590	 4.9560
 5.0640	 4.9520
 5.0690	 4.9290
 5.0740	 5.0320
 5.0790	 5.0980
 5.0840	 5.0900
 5.0890	 4.9890
 5.0940	 5.0150
 5.0990	 4.9980
 5.1040	 4.9930
 5.1090	 4.9750
 5.1140	 4.8940
 5.1190	 4.8710
 5.1240	 4.9730
 5.1290	 5.0280
 5.1340	 5.0130
 5.1390	 4.9350
 5.1440	 4.9070
 5.1490	 4.9730
 5.1540	 5.0230
 5.1600	 4.9160
 5.1650	 4.8870
 5.1700	 4.8260
 5.1750	 4.8880
 5.1800	 4.9430
 5.1850	 4.9640
 5.1910	 5.0160
 5.1960	 5.0770
 5.2010	 4.9720
 5.2060	 4.9270
 5.2110	 4.8840
 5.2170	 4.8640
 5.2220	 4.7830
 5.2270	 4.9060
 5.2320	 4.9790
 5.2380	 4.9930
 5.2430	 4.9540
 5.2480	 4.8910
 5.2540	 4.7920
 5.2590	 4.8420
 5.2640	 4.9220
 5.2700	 4.9120
 5.2750	 4.9180
 5.2800	 5.0210
 5.2860	 5.0110
 5.2910	 5.0130
 5.2970	 4.9040
 5.3020	 4.8610
 5.3070	 4.8900
 5.3130	 4.9940
 5.3180	 4.9840
 5.3240	 4.9640
 5.3290	 4.9520
 5.3350	 5.0420
 5.3400	 5.0010
 5.3460	 4.9480
 5.3510	 4.8420
 5.3570	 4.8490
 5.3620	 4.9160
 5.3680	 4.9180
 5.3730	 4.8060
 5.3790	 4.8380
 5.3850	 4.8960
 5.3900	 4.9150
 5.3960	 4.8760
 5.4010	 4.8350
 5.4070	 4.8440
 5.4130	 4.8890
 5.4180	 4.7790
 5.4240	 4.9030
 5.4300	 4.8930
 5.4350	 4.8850
 5.4410	 4.8480
 5.4470	 4.8440
 5.4530	 4.7780
 5.4580	 4.8140
 5.4640	 4.7790
 5.4700	 4.7470
 5.4760	 4.7350
 5.4810	 4.7690
 5.4870	 4.7410
 5.4930	 4.7400
 5.4990	 4.6960
 5.5050	 4.7650
 5.5110	 4.7950
 5.5160	 4.8000
 5.5220	 4.8730
 5.5280	 4.8810
 5.5340	 4.7570
 5.5400	 4.7200
 5.5460	 4.6740
 5.5520	 4.7250
 5.5580	 4.7900
 5.5640	 4.8410
 5.5700	 4.8170
 5.5760	 4.7690
 5.5820	 4.6650
 5.5880	 4.6550
 5.5940	 4.6260
 5.6000	 4.6570
 5.6060	 4.5020
 5.6120	 4.4990
 5.6180	 4.4680
 5.6240	 4.4770
 5.6300	 4.5630
 5.6360	 4.6310
 5.6420	 4.5980
 5.6490	 4.6080
 5.6550	 4.4840
 5.6610	 4.3540
 5.6670	 4.3180
 5.6730	 4.3770
 5.6800	 4.3320
 5.6860	 4.2660
 5.6920	 4.1520
 5.6980	 4.1300
 5.7040	 4.1370
 5.7110	 4.1030
 5.7170	 4.0620
 5.7230	 4.0890
 5.7300	 4.0700
 5.7360	 4.1230
 5.7420	 4.1000
 5.7490	 4.1380
 5.7550	 4.1410
 5.7620	 4.2390
 5.7680	 4.3210
 5.7740	 4.4410
 5.7810	 4.4080
 5.7870	 4.4620
 5.7940	 4.5080
 5.8000	 4.5700
 5.8070	 4.6620
 5.8130	 4.8380
 5.8200	 4.9180
 5.8260	 5.0130
 5.8330	 5.0290
 5.8390	 4.9690
 5.8460	 4.9490
 5.8530	 4.9890
 5.8590	 4.9790
 5.8660	 5.1310
 5.8720	 5.1450
 5.8790	 5.2410
 5.8860	 5.1970
 5.8920	 5.0850
 5.8990	 5.1140
 5.9060	 5.1580
 5.9130	 5.0720
 5.9190	 5.1730
 5.9260	 5.1930
 5.9330	 5.3430
 5.9400	 5.4250
 5.9470	 5.4620
 5.9530	 5.4590
 5.9600	 5.4510
 5.9670	 5.4360
 5.9740	 5.4680
 5.9810	 5.3420
 5.9880	 5.3740
 5.9950	 5.3040
 6.0020	 5.1880
 6.0090	 5.1970
 6.0160	 5.3460
 6.0230	 5.3510
 6.0300	 5.4270
 6.0370	 5.4350
 6.0440	 5.4920
 6.0510	 5.4680
 6.0580	 5.3840
 6.0650	 5.1780
 6.0720	 5.1790
 6.0790	 5.1630
 6.0860	 5.1670
 6.0930	 5.2380
 6.1000	 5.3880
 6.1080	 5.4030
 6.1150	 5.3790
 6.1220	 5.2170
 6.1290	 5.2040
 6.1370	 5.1710
 6.1440	 5.2010
 6.1510	 5.1670
 6.1580	 5.2580
 6.1660	 5.3780
 6.1730	 5.4830
 6.1800	 5.3660
 6.1880	 5.3030
 6.1950	 5.1930
 6.2030	 5.2080
 6.2100	 5.1870
 6.2170	 5.2270
 6.2250	 5.2880
 6.2320	 5.3740
 6.2400	 5.2760
 6.2470	 5.2980
 6.2550	 5.3060
 6.2630	 5.2880
 6.2700	 5.1560
 6.2780	 5.1500
 6.2850	 5.1450
 6.2930	 5.1990
 6.3010	 5.2740
 6.3080	 5.3780
 6.3160	 5.2490
 6.3240	 5.1950
 6.3310	 5.1690
 6.3390	 5.1960
 6.3470	 5.1570
 6.3550	 5.2070
 6.3620	 5.1380
 6.3700	 5.1930
 6.3780	 5.2300
 6.3860	 5.2650
 6.3940	 5.1020
 6.4020	 5.0650
 6.4100	 5.1620
 6.4180	 5.1730
 6.4260	 5.0270
 6.4330	 5.0300
 6.4410	 4.9520
 6.4490	 5.0080
 6.4580	 4.9900
 6.4660	 4.9950
 6.4740	 4.9370
 6.4820	 5.0780
 6.4900	 5.1440
 6.4980	 5.1290
 6.5060	 5.0760
 6.5140	 5.0810
 6.5230	 4.9210
 6.5310	 4.8860
 6.5390	 4.8100
 6.5470	 4.8890
 6.5550	 4.8530
 6.5640	 4.8160
 6.5720	 4.8300
 6.5800	 4.8710
 6.5890	 4.7990
 6.5970	 4.9340
 6.6060	 4.9190
 6.6140	 4.9200
 6.6220	 4.8280
 6.6310	 4.9410
 6.6390	 5.0150
 6.6480	 4.9140
 6.6560	 4.6800
 6.6650	 4.6700
 6.6740	 4.6370
 6.6820	 4.7360
 6.6910	 4.7690
 6.6990	 4.7380
 6.7080	 4.6040
 6.7170	 4.5480
 6.7260	 4.4160
 6.7340	 4.4930
 6.7430	 4.4880
 6.7520	 4.5280
 6.7610	 4.4830
 6.7690	 4.5020
 6.7780	 4.6220
 6.7870	 5.0230
 6.7960	 4.9690
 6.8050	 4.6900
 6.8140	 4.4780
 6.8230	 4.5870
 6.8320	 4.8760
 6.8410	 5.2380
 6.8500	 5.0840
 6.8590	 4.9600
 6.8680	 4.7670
 6.8770	 4.7380
 6.8860	 4.7940
 6.8950	 4.9690
 6.9050	 4.9090
 6.9140	 4.9090
 6.9230	 4.8800
 6.9320	 5.0160
 6.9420	 5.0170
 6.9510	 5.0040
 6.9600	 4.9420
 6.9700	 5.0070
 6.9790	 4.9520
 6.9880	 4.9530
 6.9980	 4.9160
 7.0070	 5.0500
 7.0170	 5.0260
 7.0260	 4.9830
 7.0360	 4.9360
 7.0450	 5.0310
 7.0550	 4.9240
 7.0650	 4.9330
 7.0740	 4.8950
 7.0840	 4.8930
 7.0940	 4.8750
 7.1030	 4.9830
 7.1130	 4.9980
 7.1230	 5.0190
 7.1330	 4.8670
 7.1420	 4.8290
 7.1520	 4.6900
 7.1620	 4.7100
 7.1720	 4.6940
 7.1820	 4.6810
 7.1920	 4.5750
 7.2020	 4.6750
 7.2120	 4.7030
 7.2220	 4.6880
 7.2320	 4.6150
 7.2420	 4.7400
 7.2520	 4.7180
 7.2620	 4.7910
 7.2730	 4.6930
 7.2830	 4.7860
 7.2930	 4.7570
 7.3030	 4.7510
 7.3140	 4.7110
 7.3240	 4.8770
 7.3340	 4.7770
 7.3450	 4.8230
 7.3550	 4.7420
 7.3660	 4.7610
 7.3760	 4.7200
 7.3870	 4.7990
 7.3970	 4.7610
 7.4080	 4.7750
 7.4180	 4.6570
 7.4290	 4.7430
 7.4400	 4.7570
 7.4500	 4.8050
 7.4610	 4.7200
 7.4720	 4.8480
 7.4830	 4.8410
 7.4930	 4.8650
 7.5040	 4.7500
 7.5150	 4.7630
 7.5260	 4.6420
 7.5370	 4.6660
 7.5480	 4.5240
 7.5590	 4.5440
 7.5700	 4.4950
 7.5810	 4.5510
 7.5920	 4.5470
 7.6030	 4.7550
 7.6140	 4.8280
 7.6260	 4.8460
 7.6370	 4.6930
 7.6480	 4.7670
 7.6590	 4.7020
 7.6710	 4.5920
 7.6820	 4.4550
 7.6930	 4.5030
 7.7050	 4.5310
 7.7160	 4.6260
 7.7280	 4.5940
 7.7390	 4.6310
 7.7510	 4.4700
 7.7630	 4.4910
 7.7740	 4.4550
 7.7860	 4.4620
 7.7980	 4.4130
 7.8090	 4.4930
 7.8210	 4.4800
 7.8330	 4.5730
 7.8450	 4.5360
 7.8570	 4.6530
 7.8690	 4.5870
 7.8810	 4.6500
 7.8930	 4.6190
 7.9050	 4.6080
 7.9170	 4.4580
 7.9290	 4.6020
 7.9410	 4.5790
 7.9530	 4.6440
 7.9650	 4.5460
 7.9780	 4.6260
 7.9900	 4.6710
 8.0020	 4.7800
 8.0150	 4.6900
 8.0270	 4.7410
 8.0390	 4.5810
 8.0520	 4.7560
 8.0640	 4.7000
 8.0770	 4.7820
 8.0900	 4.6600
 8.1020	 4.6820
 8.1150	 4.6480
 8.1280	 4.7730
 8.1400	 4.7140
 8.1530	 4.8030
 8.1660	 4.6900
 8.1790	 4.8060
 8.1920	 4.7620
 8.2050	 4.9310
 8.2180	 4.7380
 8.2310	 4.6550
 8.2440	 4.5670
 8.2570	 4.9010
 8.2700	 4.8900
 8.2830	 5.0030
 8.2970	 4.9060
 8.3100	 4.9040
 8.3230	 4.6630
 8.3370	 4.8470
 8.3500	 4.8860
 8.3640	 4.9330
 8.3770	 4.7490
 8.3910	 4.8920
 8.4040	 4.7650
 8.4180	 4.9110
 8.4320	 4.9950
 8.4450	 5.1530
 8.4590	 4.9560
 8.4730	 5.1620
 8.4870	 5.0990
 8.5010	 5.1980
 8.5150	 5.1570
 8.5290	 5.1980
 8.5430	 5.1560
 8.5570	 5.3120
 8.5710	 5.3250
 8.5850	 5.5560
 8.5990	 5.4810
 8.6140	 5.4830
 8.6280	 5.3230
 8.6420	 5.5680
 8.6570	 5.6640
 8.6710	 5.7700
 8.6860	 5.5390
 8.7000	 5.4930
 8.7150	 5.4590
 8.7300	 5.7310
 8.7440	 5.6420
 8.7590	 5.7360
 8.7740	 5.5780
 8.7890	 5.5550
 8.8040	 5.4050
 8.8190	 5.6090
 8.8340	 5.4790
 8.8490	 5.4820
 8.8640	 5.4150
 8.8790	 5.6180
 8.8940	 5.5010
 8.9100	 5.5730
 8.9250	 5.5140
 8.9400	 5.6120
 8.9560	 5.2990
 8.9710	 5.2710
 8.9870	 5.2880
 9.0020	 5.5570
 9.0180	 5.4460
 9.0340	 5.5850
 9.0500	 5.4880
 9.0650	 5.7100
 9.0810	 5.6650
 9.0970	 5.6190
 9.1130	 5.4800
 9.1290	 5.6520
 9.1450	 5.5510
 9.1610	 5.6730
 9.1780	 5.4030
 9.1940	 5.4850
 9.2100	 5.4550
 9.2270	 5.7330
 9.2430	 5.6680
 9.2600	 5.7520
 9.2760	 5.5570
 9.2930	 5.7710
 9.3090	 5.5510
 9.3260	 5.4160
 9.3430	 5.3290
 9.3600	 5.5730
 9.3770	 5.4870
 9.3940	 5.5130
 9.4110	 5.3320
 9.4280	 5.5210
 9.4450	 5.5520
 9.4620	 5.8560
 9.4800	 5.6580
 9.4970	 5.5380
 9.5140	 5.2100
 9.5320	 5.4330
 9.5500	 5.5400
 9.5670	 5.6530
 9.5850	 5.4650
 9.6030	 5.5750
 9.6200	 5.5180
 9.6380	 5.6790
 9.6560	 5.6910
 9.6740	 5.7980
 9.6920	 5.6120
 9.7100	 5.8050
 9.7290	 5.6210
 9.7470	 5.6140
 9.7650	 5.5590
 9.7840	 5.8390
 9.8020	 5.6390
 9.8210	 5.6230
 9.8390	 5.5460
 9.8580	 5.6720
 9.8770	 5.3430
 9.8960	 5.4700
 9.9150	 5.4220
 9.9340	 5.6650
 9.9530	 5.5960
 9.9720	 5.6770
 9.9910	 5.3830
10.0100	 5.5590
10.0300	 5.3770
10.0490	 5.4590
10.0690	 5.3870
10.0880	 5.5660
10.1080	 5.5110
10.1280	 5.6850
10.1480	 5.6520
10.1670	 5.8550
10.1870	 5.6970
10.2070	 5.6840
10.2280	 5.4760
10.2480	 5.4770
10.2680	 5.2660
10.2890	 5.3330
10.3090	 5.3070
10.3300	 5.4280
10.3500	 5.1290
10.3710	 5.4240
10.3920	 5.4450
10.4120	 5.6060
10.4330	 5.6140
10.4540	 5.7460
10.4760	 5.5050
10.4970	 5.5360
10.5180	 5.3570
10.5390	 5.6020
10.5610	 5.6570
10.5820	 5.8050
10.6040	 5.6590
10.6260	 5.6490
10.6480	 5.6330
10.6700	 5.7060
10.6920	 5.5500
10.7140	 5.6850
10.7360	 5.3860
10.7580	 5.4920
10.7800	 5.3540
10.8030	 5.5220
10.8250	 5.5480
10.8480	 5.7660
10.8710	 5.3150
10.8940	 5.2830
10.9170	 5.2830
10.9400	 5.5530
10.9630	 5.3570
10.9860	 5.4320
11.0090	 5.4410
11.0330	 5.6480
11.0560	 5.4660
11.0800	 5.5160
11.1040	 5.3530
11.1270	 5.3930
11.1510	 5.0450
11.1750	 5.2030
11.2000	 5.1020
11.2240	 5.4110
11.2480	 5.1150
11.2730	 5.5360
11.2970	 5.9030
11.3220	 6.0680
11.3470	 5.5660
11.3720	 5.4260
11.3970	 5.4030
11.4220	 5.4230
11.4470	 5.1540
11.4720	 5.4020
11.4980	 5.2420
11.5230	 5.2350
11.5490	 5.0490
11.5750	 5.3220
11.6000	 5.1860
11.6260	 5.2500
11.6530	 5.0980
11.6790	 5.1390
11.7050	 4.8610
11.7320	 5.0650
11.7580	 4.9450
11.7850	 5.2060
11.8120	 5.0080
11.8390	 5.0550
11.8660	 4.6700
11.8930	 4.6260
11.9200	 4.4790
11.9480	 4.7560
11.9760	 4.7190
12.0030	 5.1170
12.0310	 4.8840
12.0590	 5.0970
12.0870	 4.9310
12.1150	 4.8400
12.1440	 4.7210
12.1720	 5.2010
12.2010	 4.9840
12.2300	 4.9860
12.2590	 4.5820
12.2880	 5.0010
12.3170	 4.9690
12.3460	 5.0190
12.3760	 4.6980
12.4050	 4.8140
12.4350	 4.6840
12.4650	 4.9950
12.4950	 4.9560
12.5250	 5.1390
12.5550	 4.7380
12.5860	 5.0200
12.6170	 4.8780
12.6470	 5.0340
12.6780	 4.8270
12.7090	 4.9770
12.7410	 4.6120
12.7720	 4.6410
12.8030	 4.4240
12.8350	 4.9040
12.8670	 4.7130
12.8990	 4.7010
12.9310	 4.5920
12.9640	 4.9420
12.9960	 4.5760
13.0290	 4.8230
13.0610	 4.6650
13.0940	 5.0010
13.1280	 4.7800
13.1610	 4.8930
13.1940	 4.6530
13.2280	 4.9870
13.2620	 4.6110
13.2960	 4.8360
13.3300	 4.8210
13.3640	 5.0400
13.3990	 4.8720
13.4340	 5.1540
13.4690	 5.0790
13.5040	 5.1980
13.5390	 4.8810
13.5740	 5.1600
13.6100	 4.5240
13.6460	 4.9150
13.6820	 4.9590
13.7180	 5.2430
13.7540	 4.6750
13.7910	 5.0790
13.8280	 5.0450
13.8650	 5.3400
13.9020	 4.8200
13.9390	 4.8850
13.9770	 4.5750
14.0150	 4.8590
14.0530	 4.5820
14.0910	 4.9400
14.1290	 4.7360
14.1680	 5.0830
14.2070	 4.9250
14.2460	 5.5130
14.2850	 5.0960
14.3240	 5.3470
14.3640	 4.8930
14.4040	 5.2990
14.4440	 4.9880
14.4840	 5.5260
14.5250	 5.1980
14.5660	 5.6440
14.6070	 5.4990
14.6480	 5.8640
14.6900	 4.9000
14.7310	 4.8230
14.7730	 4.5550
14.8150	 5.3190
14.8580	 4.9130
14.9010	 5.5480
14.9440	 4.6600
14.9870	 5.5050
15.0300	 4.9580
15.0740	 5.8110
15.1180	 5.2360
15.1620	 5.8060
15.2060	 5.7120
15.2510	 6.3890
15.2960	 4.9470
15.3410	 5.6010
15.3870	 5.3920
