Name: Umbellularia californica 3
Type: vegetation
Class: Shrub
Genus: Umbellularia
Species: californica
Sample No.: VH240
Owner: UCSB
Wavelength Range: TIR
Origin: 34.5075; -119.763; WGS84
Collection Date: 10/13/2013
Description: Samples were collected as part of the HyspIRI Airborne Campaign. 48 individual plants were sampled in three times in 2013 - spring  summer  and fall. The name of the sample includes a 1  2  or 3 which references a different individual of the species. Samples were taken to JPL and processed within 48 hours of collection. The same leaves were processed in the Nicolet and then measured using the ASD.
Measurement: Hemispherical reflectance
First Column: X
Second Column: Y
X Units: Wavelength (micrometers)
Y Units: Reflectance (percentage)
First X Value: 2.501
Last X Value: 15.387
Number of X Values: 1737
Additional Information: vegetation.shrub.umbellularia.californica.tir.vh240.ucsb.nicolet.ancillary.txt

 2.5010	 7.5220
 2.5030	 7.6220
 2.5040	 7.8050
 2.5050	 7.6710
 2.5060	 7.6420
 2.5070	 7.9130
 2.5090	 7.9860
 2.5100	 7.7910
 2.5110	 7.8500
 2.5120	 7.7910
 2.5140	 7.8230
 2.5150	 7.7280
 2.5160	 7.7140
 2.5170	 7.7730
 2.5180	 7.7490
 2.5200	 7.7350
 2.5210	 7.8070
 2.5220	 7.7700
 2.5230	 7.6200
 2.5250	 7.5160
 2.5260	 7.6230
 2.5270	 7.5720
 2.5280	 7.7400
 2.5290	 7.7160
 2.5310	 7.5920
 2.5320	 7.4850
 2.5330	 7.4700
 2.5340	 7.4170
 2.5360	 7.6470
 2.5370	 7.7170
 2.5380	 7.7760
 2.5390	 7.7970
 2.5410	 7.7230
 2.5420	 7.5480
 2.5430	 7.5980
 2.5440	 7.7540
 2.5460	 7.8170
 2.5470	 7.7360
 2.5480	 7.7260
 2.5490	 7.7080
 2.5510	 7.7270
 2.5520	 7.6390
 2.5530	 7.7550
 2.5540	 7.6000
 2.5560	 7.6930
 2.5570	 7.8290
 2.5580	 7.7980
 2.5590	 7.6200
 2.5610	 7.7270
 2.5620	 7.9840
 2.5630	 7.9830
 2.5640	 7.7120
 2.5660	 7.7170
 2.5670	 7.7680
 2.5680	 7.9310
 2.5700	 7.7950
 2.5710	 7.7100
 2.5720	 7.7010
 2.5730	 7.7050
 2.5750	 7.6980
 2.5760	 7.9180
 2.5770	 7.9490
 2.5790	 7.7240
 2.5800	 7.5680
 2.5810	 7.8820
 2.5820	 7.9460
 2.5840	 7.7880
 2.5850	 7.8240
 2.5860	 7.8070
 2.5880	 7.6420
 2.5890	 7.7900
 2.5900	 8.0670
 2.5910	 8.2440
 2.5930	 8.0810
 2.5940	 7.9240
 2.5950	 7.7940
 2.5970	 7.7180
 2.5980	 7.7220
 2.5990	 7.8750
 2.6000	 7.8260
 2.6020	 7.6620
 2.6030	 7.5550
 2.6040	 7.5750
 2.6060	 7.4620
 2.6070	 7.4120
 2.6080	 7.4620
 2.6100	 7.5540
 2.6110	 7.6120
 2.6120	 7.5720
 2.6140	 7.2690
 2.6150	 7.3200
 2.6160	 7.4780
 2.6180	 7.4250
 2.6190	 7.4610
 2.6200	 7.3610
 2.6220	 7.1680
 2.6230	 7.2330
 2.6240	 7.2390
 2.6260	 7.3240
 2.6270	 7.3880
 2.6280	 7.4060
 2.6300	 7.2260
 2.6310	 7.0870
 2.6320	 6.9180
 2.6340	 7.0240
 2.6350	 6.9510
 2.6360	 6.9440
 2.6380	 6.9550
 2.6390	 6.8720
 2.6400	 6.7710
 2.6420	 6.8350
 2.6430	 6.7910
 2.6440	 6.7620
 2.6460	 6.6440
 2.6470	 6.6450
 2.6480	 6.5880
 2.6500	 6.5640
 2.6510	 6.5810
 2.6520	 6.6730
 2.6540	 6.5260
 2.6550	 6.4830
 2.6560	 6.3960
 2.6580	 6.3900
 2.6590	 6.4140
 2.6610	 6.5740
 2.6620	 6.5240
 2.6630	 6.3780
 2.6650	 6.4950
 2.6660	 6.5150
 2.6670	 6.2040
 2.6690	 6.0650
 2.6700	 6.0520
 2.6720	 6.1060
 2.6730	 6.1940
 2.6740	 6.0970
 2.6760	 5.9440
 2.6770	 5.9360
 2.6780	 5.8860
 2.6800	 5.9350
 2.6810	 5.8570
 2.6830	 5.8240
 2.6840	 5.8150
 2.6850	 5.7900
 2.6870	 5.7100
 2.6880	 5.7650
 2.6900	 5.5540
 2.6910	 5.6320
 2.6920	 5.6420
 2.6940	 5.8120
 2.6950	 5.7660
 2.6970	 5.3510
 2.6980	 5.1240
 2.6990	 5.1640
 2.7010	 5.1470
 2.7020	 5.2290
 2.7040	 5.3640
 2.7050	 5.3360
 2.7060	 5.0660
 2.7080	 4.9080
 2.7090	 4.9700
 2.7110	 5.1140
 2.7120	 5.0810
 2.7130	 5.2270
 2.7150	 5.1400
 2.7160	 5.1560
 2.7180	 4.9140
 2.7190	 4.8660
 2.7210	 4.9700
 2.7220	 5.0110
 2.7230	 4.7420
 2.7250	 4.4650
 2.7260	 4.4220
 2.7280	 4.6680
 2.7290	 4.8490
 2.7310	 4.9150
 2.7320	 4.7030
 2.7330	 4.9430
 2.7350	 4.8940
 2.7360	 4.8450
 2.7380	 4.6430
 2.7390	 4.4790
 2.7410	 4.6190
 2.7420	 4.5840
 2.7440	 3.9500
 2.7450	 4.3640
 2.7470	 4.5240
 2.7480	 4.6750
 2.7490	 4.9730
 2.7510	 4.8840
 2.7520	 4.5290
 2.7540	 4.1390
 2.7550	 4.1990
 2.7570	 4.2230
 2.7580	 4.4780
 2.7600	 4.8030
 2.7610	 4.8010
 2.7630	 4.5600
 2.7640	 4.1760
 2.7660	 3.9700
 2.7670	 4.0610
 2.7680	 4.2880
 2.7700	 4.3090
 2.7710	 4.1330
 2.7730	 4.3240
 2.7740	 4.5880
 2.7760	 4.2060
 2.7770	 4.0700
 2.7790	 4.0650
 2.7800	 4.3100
 2.7820	 4.3320
 2.7830	 4.4580
 2.7850	 4.4140
 2.7860	 4.1340
 2.7880	 3.8430
 2.7890	 4.0550
 2.7910	 4.3380
 2.7920	 4.2950
 2.7940	 4.2420
 2.7950	 4.4310
 2.7970	 4.5280
 2.7980	 4.5410
 2.8000	 4.3710
 2.8010	 4.3260
 2.8030	 4.3240
 2.8040	 4.3970
 2.8060	 4.3250
 2.8070	 4.3220
 2.8090	 4.3030
 2.8110	 4.3860
 2.8120	 4.4140
 2.8140	 4.6070
 2.8150	 4.4920
 2.8170	 4.4430
 2.8180	 4.4080
 2.8200	 3.9960
 2.8210	 3.7570
 2.8230	 4.4640
 2.8240	 4.6230
 2.8260	 4.6480
 2.8270	 4.5540
 2.8290	 4.2420
 2.8300	 4.0180
 2.8320	 4.1970
 2.8340	 4.5510
 2.8350	 4.5100
 2.8370	 4.2210
 2.8380	 4.2360
 2.8400	 4.2060
 2.8410	 4.1040
 2.8430	 4.0570
 2.8440	 4.2940
 2.8460	 4.2580
 2.8480	 4.1660
 2.8490	 4.1640
 2.8510	 4.3420
 2.8520	 4.2860
 2.8540	 4.2490
 2.8550	 4.0850
 2.8570	 4.0180
 2.8590	 3.9660
 2.8600	 4.0970
 2.8620	 4.1540
 2.8630	 4.2000
 2.8650	 4.3480
 2.8660	 4.5420
 2.8680	 4.1030
 2.8700	 3.8430
 2.8710	 4.0880
 2.8730	 4.4460
 2.8740	 4.2210
 2.8760	 3.9730
 2.8780	 4.3480
 2.8790	 4.9310
 2.8810	 4.5700
 2.8820	 4.2580
 2.8840	 3.6280
 2.8860	 3.7730
 2.8870	 4.1240
 2.8890	 4.4310
 2.8900	 4.0830
 2.8920	 3.9860
 2.8940	 4.4550
 2.8950	 4.6550
 2.8970	 4.2210
 2.8980	 4.1320
 2.9000	 4.1280
 2.9020	 4.5340
 2.9030	 4.6690
 2.9050	 4.0600
 2.9070	 3.6870
 2.9080	 4.0450
 2.9100	 4.3800
 2.9120	 4.6220
 2.9130	 4.6190
 2.9150	 4.3100
 2.9160	 4.2620
 2.9180	 4.4700
 2.9200	 4.4550
 2.9210	 4.3270
 2.9230	 4.1510
 2.9250	 4.1590
 2.9260	 3.9950
 2.9280	 4.0800
 2.9300	 4.0230
 2.9310	 4.0480
 2.9330	 3.8720
 2.9350	 4.0550
 2.9360	 4.0660
 2.9380	 4.2220
 2.9400	 4.4880
 2.9410	 4.2330
 2.9430	 3.7500
 2.9450	 3.7670
 2.9460	 3.8710
 2.9480	 4.1390
 2.9500	 3.7180
 2.9510	 4.3060
 2.9530	 4.5180
 2.9550	 4.3890
 2.9560	 4.0930
 2.9580	 4.1350
 2.9600	 4.6850
 2.9610	 4.2070
 2.9630	 3.6420
 2.9650	 4.1660
 2.9660	 3.9370
 2.9680	 3.9110
 2.9700	 3.6500
 2.9720	 2.3090
 2.9730	 3.2170
 2.9750	 5.9040
 2.9770	 6.3770
 2.9780	 5.9570
 2.9800	 4.6710
 2.9820	 3.9800
 2.9840	 3.9680
 2.9850	 4.2780
 2.9870	 6.0040
 2.9890	 5.4720
 2.9900	 3.3230
 2.9920	 3.3200
 2.9940	 3.7000
 2.9960	 2.3550
 2.9970	 3.4060
 2.9990	 4.4870
 3.0010	 3.9250
 3.0030	 4.0370
 3.0040	 4.4730
 3.0060	 5.6210
 3.0080	 4.3710
 3.0100	 2.8860
 3.0110	 2.3430
 3.0130	 1.9460
 3.0150	 2.3840
 3.0170	 4.2000
 3.0180	 5.2450
 3.0200	 4.5320
 3.0220	 4.3290
 3.0240	 4.1960
 3.0250	 4.2250
 3.0270	 3.9380
 3.0290	 3.9700
 3.0310	 4.0840
 3.0320	 3.8090
 3.0340	 3.0120
 3.0360	 4.5880
 3.0380	 6.1020
 3.0400	 4.6650
 3.0410	 4.4750
 3.0430	 4.5120
 3.0450	 5.4880
 3.0470	 5.6660
 3.0480	 3.1260
 3.0500	 2.6350
 3.0520	 4.8210
 3.0540	 5.5890
 3.0560	 2.5880
 3.0570	 3.0290
 3.0590	 5.4050
 3.0610	 5.3940
 3.0630	 5.4760
 3.0650	 5.9180
 3.0660	 4.5280
 3.0680	 3.7140
 3.0700	 5.0450
 3.0720	 4.8710
 3.0740	 4.8510
 3.0760	 5.1120
 3.0770	 4.7790
 3.0790	 4.8590
 3.0810	 4.8730
 3.0830	 4.3360
 3.0850	 4.1080
 3.0870	 4.0290
 3.0880	 4.0460
 3.0900	 4.0090
 3.0920	 4.2820
 3.0940	 4.3440
 3.0960	 4.3630
 3.0980	 4.4240
 3.0990	 4.4350
 3.1010	 3.9900
 3.1030	 3.9630
 3.1050	 4.3430
 3.1070	 4.5300
 3.1090	 4.1680
 3.1110	 4.0070
 3.1120	 4.2080
 3.1140	 4.4690
 3.1160	 4.7250
 3.1180	 4.6840
 3.1200	 4.4190
 3.1220	 4.3790
 3.1240	 4.1710
 3.1260	 4.0250
 3.1270	 3.8870
 3.1290	 3.8880
 3.1310	 3.8910
 3.1330	 4.3910
 3.1350	 4.7530
 3.1370	 4.8750
 3.1390	 5.4700
 3.1410	 5.0820
 3.1430	 4.4220
 3.1450	 4.3690
 3.1460	 5.3480
 3.1480	 4.9440
 3.1500	 5.0900
 3.1520	 6.3460
 3.1540	 4.3940
 3.1560	 3.6220
 3.1580	 4.7050
 3.1600	 5.7590
 3.1620	 6.1450
 3.1640	 5.9590
 3.1660	 6.8260
 3.1680	 6.7960
 3.1700	 5.3590
 3.1710	 4.2230
 3.1730	 3.6650
 3.1750	 6.2890
 3.1770	 7.0600
 3.1790	 4.6740
 3.1810	 3.6960
 3.1830	 3.3260
 3.1850	 3.6310
 3.1870	 3.8980
 3.1890	 3.6310
 3.1910	 3.9600
 3.1930	 4.1800
 3.1950	 4.2570
 3.1970	 4.1030
 3.1990	 3.7100
 3.2010	 4.1090
 3.2030	 4.4020
 3.2050	 4.1700
 3.2070	 4.1840
 3.2090	 4.5190
 3.2110	 4.4830
 3.2130	 4.2380
 3.2150	 4.3380
 3.2170	 4.2830
 3.2190	 4.0620
 3.2210	 4.2770
 3.2230	 4.1820
 3.2250	 3.9880
 3.2270	 4.1420
 3.2290	 4.0710
 3.2310	 3.9530
 3.2330	 4.1030
 3.2350	 4.3330
 3.2370	 4.4710
 3.2390	 4.4840
 3.2410	 4.3110
 3.2430	 4.3670
 3.2450	 4.0740
 3.2470	 3.6700
 3.2490	 3.6340
 3.2510	 3.7940
 3.2530	 3.8780
 3.2550	 3.8400
 3.2570	 3.9340
 3.2590	 3.8300
 3.2610	 4.2240
 3.2630	 4.2830
 3.2650	 3.8620
 3.2670	 3.8410
 3.2690	 4.3080
 3.2720	 4.3100
 3.2740	 4.2240
 3.2760	 4.1700
 3.2780	 3.9510
 3.2800	 4.2160
 3.2820	 4.2860
 3.2840	 3.8960
 3.2860	 4.1220
 3.2880	 4.5710
 3.2900	 4.7700
 3.2920	 4.5190
 3.2940	 4.2230
 3.2960	 4.3440
 3.2990	 3.9900
 3.3010	 3.9840
 3.3030	 3.9930
 3.3050	 3.8110
 3.3070	 3.8680
 3.3090	 3.9460
 3.3110	 3.9990
 3.3130	 3.9790
 3.3150	 4.0150
 3.3180	 3.9680
 3.3200	 4.0680
 3.3220	 4.2840
 3.3240	 4.2240
 3.3260	 3.9910
 3.3280	 3.8020
 3.3300	 3.7230
 3.3330	 3.7410
 3.3350	 3.7930
 3.3370	 3.9630
 3.3390	 3.8350
 3.3410	 3.9110
 3.3430	 4.0080
 3.3450	 3.7830
 3.3480	 3.7090
 3.3500	 3.8450
 3.3520	 3.8300
 3.3540	 3.6190
 3.3560	 3.7160
 3.3580	 3.9190
 3.3610	 3.9250
 3.3630	 3.7740
 3.3650	 3.6440
 3.3670	 3.4980
 3.3690	 3.5210
 3.3720	 3.6030
 3.3740	 3.6290
 3.3760	 3.7370
 3.3780	 3.8200
 3.3800	 3.7260
 3.3830	 3.7220
 3.3850	 3.6920
 3.3870	 3.6230
 3.3890	 3.4440
 3.3910	 3.5000
 3.3940	 3.5050
 3.3960	 3.2620
 3.3980	 3.0640
 3.4000	 3.0530
 3.4020	 3.1790
 3.4050	 3.3340
 3.4070	 3.4130
 3.4090	 3.6150
 3.4110	 3.8750
 3.4140	 4.1200
 3.4160	 4.5240
 3.4180	 5.1210
 3.4200	 5.7110
 3.4230	 6.6450
 3.4250	 8.1150
 3.4270	 9.7610
 3.4290	10.4790
 3.4320	10.0870
 3.4340	 9.2780
 3.4360	 8.2690
 3.4390	 7.3600
 3.4410	 7.1720
 3.4430	 6.9280
 3.4450	 6.6330
 3.4480	 6.3330
 3.4500	 5.7220
 3.4520	 5.5520
 3.4550	 5.8980
 3.4570	 5.9480
 3.4590	 5.9970
 3.4620	 5.9740
 3.4640	 5.7030
 3.4660	 5.5660
 3.4680	 5.3300
 3.4710	 5.3380
 3.4730	 5.2540
 3.4750	 5.0770
 3.4780	 5.1060
 3.4800	 5.0840
 3.4820	 4.9200
 3.4850	 4.6940
 3.4870	 4.5360
 3.4890	 4.5620
 3.4920	 4.5920
 3.4940	 4.5030
 3.4970	 4.4280
 3.4990	 4.3720
 3.5010	 4.3440
 3.5040	 4.7210
 3.5060	 5.7340
 3.5080	 7.3510
 3.5110	 9.0590
 3.5130	 9.4350
 3.5160	 8.6490
 3.5180	 7.8880
 3.5200	 7.4070
 3.5230	 7.0470
 3.5250	 6.6540
 3.5270	 6.3800
 3.5300	 6.2370
 3.5320	 6.1150
 3.5350	 6.0520
 3.5370	 5.9660
 3.5400	 5.8510
 3.5420	 5.7740
 3.5440	 5.6430
 3.5470	 5.5410
 3.5490	 5.5330
 3.5520	 5.4640
 3.5540	 5.6250
 3.5570	 5.6190
 3.5590	 5.5010
 3.5610	 5.4910
 3.5640	 5.4270
 3.5660	 5.3630
 3.5690	 5.4170
 3.5710	 5.4550
 3.5740	 5.5600
 3.5760	 5.6680
 3.5790	 5.7040
 3.5810	 5.4490
 3.5840	 5.2470
 3.5860	 5.2990
 3.5890	 5.5370
 3.5910	 5.7370
 3.5930	 5.6140
 3.5960	 5.4440
 3.5980	 5.6640
 3.6010	 5.3420
 3.6030	 5.2510
 3.6060	 5.2590
 3.6080	 4.9520
 3.6110	 4.8810
 3.6140	 5.1040
 3.6160	 5.1530
 3.6190	 5.0940
 3.6210	 5.0350
 3.6240	 5.1110
 3.6260	 5.1830
 3.6290	 5.1480
 3.6310	 5.0750
 3.6340	 5.0910
 3.6360	 5.0590
 3.6390	 5.1420
 3.6410	 5.0950
 3.6440	 5.0250
 3.6470	 5.0590
 3.6490	 5.0420
 3.6520	 4.9440
 3.6540	 4.9360
 3.6570	 4.9750
 3.6590	 5.1140
 3.6620	 5.0590
 3.6650	 4.9470
 3.6670	 5.0160
 3.6700	 5.0610
 3.6720	 4.8710
 3.6750	 4.8990
 3.6780	 5.0950
 3.6800	 5.1640
 3.6830	 5.1680
 3.6850	 5.1150
 3.6880	 5.0240
 3.6910	 5.0950
 3.6930	 5.1220
 3.6960	 5.0860
 3.6990	 5.0370
 3.7010	 5.0170
 3.7040	 4.9860
 3.7060	 4.9540
 3.7090	 4.9550
 3.7120	 5.0260
 3.7140	 5.1530
 3.7170	 5.1050
 3.7200	 4.9980
 3.7220	 4.9640
 3.7250	 5.1060
 3.7280	 5.0970
 3.7300	 4.9690
 3.7330	 5.0830
 3.7360	 5.0730
 3.7390	 5.0040
 3.7410	 5.0480
 3.7440	 5.2440
 3.7470	 5.2230
 3.7490	 5.1440
 3.7520	 5.1240
 3.7550	 4.9130
 3.7580	 4.8350
 3.7600	 4.9210
 3.7630	 4.9890
 3.7660	 4.8950
 3.7680	 4.9310
 3.7710	 4.9720
 3.7740	 4.9930
 3.7770	 5.1110
 3.7790	 5.2080
 3.7820	 5.1880
 3.7850	 5.1190
 3.7880	 5.1240
 3.7900	 5.0180
 3.7930	 4.9220
 3.7960	 4.9020
 3.7990	 4.9390
 3.8020	 5.0560
 3.8040	 5.1200
 3.8070	 5.0690
 3.8100	 5.1250
 3.8130	 5.1440
 3.8160	 5.1430
 3.8180	 4.9470
 3.8210	 4.9710
 3.8240	 5.1360
 3.8270	 5.1980
 3.8300	 5.0460
 3.8330	 4.9940
 3.8350	 5.0340
 3.8380	 5.0880
 3.8410	 5.0740
 3.8440	 4.9760
 3.8470	 4.9940
 3.8500	 5.0210
 3.8520	 4.9280
 3.8550	 4.9210
 3.8580	 5.0330
 3.8610	 5.0980
 3.8640	 5.0600
 3.8670	 5.0180
 3.8700	 5.0050
 3.8730	 4.9670
 3.8750	 5.0450
 3.8780	 5.1170
 3.8810	 5.1340
 3.8840	 5.0600
 3.8870	 4.9990
 3.8900	 4.9670
 3.8930	 4.9810
 3.8960	 4.9560
 3.8990	 4.9160
 3.9020	 5.0630
 3.9050	 5.0400
 3.9080	 5.0200
 3.9110	 5.1190
 3.9140	 5.1190
 3.9160	 5.0810
 3.9190	 5.0410
 3.9220	 4.9950
 3.9250	 5.0210
 3.9280	 5.0800
 3.9310	 5.0370
 3.9340	 4.9520
 3.9370	 4.9430
 3.9400	 4.9370
 3.9430	 5.0550
 3.9460	 5.1260
 3.9490	 5.1890
 3.9520	 5.2400
 3.9550	 5.1650
 3.9580	 5.0530
 3.9610	 4.9970
 3.9640	 5.0690
 3.9670	 5.1850
 3.9700	 5.2050
 3.9730	 5.1020
 3.9770	 5.0280
 3.9800	 5.0950
 3.9830	 5.1320
 3.9860	 5.1010
 3.9890	 5.1000
 3.9920	 5.2090
 3.9950	 5.2060
 3.9980	 5.0570
 4.0010	 5.0030
 4.0040	 5.0540
 4.0070	 5.1180
 4.0100	 5.1500
 4.0130	 5.1530
 4.0170	 5.2160
 4.0200	 5.2470
 4.0230	 5.1800
 4.0260	 5.1160
 4.0290	 5.0840
 4.0320	 5.0980
 4.0350	 5.1400
 4.0380	 5.1400
 4.0420	 5.0880
 4.0450	 5.0940
 4.0480	 5.1640
 4.0510	 5.1540
 4.0540	 5.0590
 4.0570	 5.1650
 4.0610	 5.2330
 4.0640	 5.1940
 4.0670	 5.1080
 4.0700	 5.0100
 4.0730	 5.0740
 4.0770	 5.1610
 4.0800	 5.1020
 4.0830	 5.0600
 4.0860	 4.9530
 4.0890	 4.9700
 4.0930	 5.0640
 4.0960	 5.1440
 4.0990	 5.1500
 4.1020	 5.0330
 4.1060	 5.0200
 4.1090	 5.0530
 4.1120	 5.0960
 4.1150	 5.1850
 4.1190	 5.2220
 4.1220	 5.1070
 4.1250	 5.0910
 4.1280	 5.1270
 4.1320	 5.0760
 4.1350	 5.0600
 4.1380	 5.0010
 4.1420	 4.9620
 4.1450	 5.0810
 4.1480	 5.1940
 4.1520	 5.1370
 4.1550	 5.0920
 4.1580	 5.0420
 4.1620	 5.0210
 4.1650	 5.0730
 4.1680	 5.0340
 4.1720	 4.9960
 4.1750	 5.0000
 4.1780	 5.1000
 4.1820	 5.1280
 4.1850	 5.1240
 4.1890	 5.1090
 4.1920	 5.0200
 4.1950	 4.9620
 4.1990	 5.0110
 4.2020	 5.1410
 4.2060	 5.1930
 4.2090	 5.0870
 4.2120	 5.2360
 4.2160	 5.3700
 4.2190	 4.9550
 4.2230	 4.6830
 4.2260	 5.0110
 4.2300	 5.1550
 4.2330	 4.5970
 4.2360	 4.6060
 4.2400	 5.0110
 4.2430	 5.0570
 4.2470	 5.1840
 4.2500	 5.2160
 4.2540	 4.9790
 4.2570	 4.9000
 4.2610	 4.8260
 4.2640	 4.7940
 4.2680	 4.7250
 4.2710	 4.7090
 4.2750	 4.6960
 4.2780	 4.9180
 4.2820	 4.9800
 4.2850	 4.8860
 4.2890	 4.7880
 4.2930	 4.8530
 4.2960	 4.9610
 4.3000	 5.0350
 4.3030	 5.0920
 4.3070	 5.0530
 4.3100	 4.8260
 4.3140	 4.7120
 4.3180	 4.7690
 4.3210	 4.8070
 4.3250	 4.8060
 4.3280	 4.8760
 4.3320	 4.8180
 4.3360	 4.7450
 4.3390	 4.7350
 4.3430	 4.8100
 4.3470	 4.9060
 4.3500	 4.9860
 4.3540	 5.0270
 4.3570	 4.9370
 4.3610	 4.8390
 4.3650	 4.8920
 4.3680	 4.8650
 4.3720	 4.8690
 4.3760	 4.8740
 4.3800	 4.8020
 4.3830	 4.8030
 4.3870	 4.9180
 4.3910	 4.9600
 4.3940	 4.8320
 4.3980	 4.7560
 4.4020	 4.8330
 4.4060	 4.8340
 4.4090	 4.8350
 4.4130	 4.8460
 4.4170	 4.8150
 4.4210	 4.8000
 4.4240	 4.8090
 4.4280	 4.7610
 4.4320	 4.7350
 4.4360	 4.8900
 4.4400	 4.9840
 4.4430	 4.8150
 4.4470	 4.7640
 4.4510	 4.8490
 4.4550	 4.8620
 4.4590	 4.8350
 4.4620	 4.7650
 4.4660	 4.7290
 4.4700	 4.7230
 4.4740	 4.7270
 4.4780	 4.7270
 4.4820	 4.7550
 4.4860	 4.7780
 4.4900	 4.7690
 4.4930	 4.7830
 4.4970	 4.7490
 4.5010	 4.7240
 4.5050	 4.7590
 4.5090	 4.7080
 4.5130	 4.6790
 4.5170	 4.6900
 4.5210	 4.6550
 4.5250	 4.6520
 4.5290	 4.6360
 4.5330	 4.6090
 4.5370	 4.6350
 4.5410	 4.8030
 4.5450	 4.7870
 4.5490	 4.6270
 4.5530	 4.5800
 4.5570	 4.5930
 4.5610	 4.6630
 4.5650	 4.6800
 4.5690	 4.6420
 4.5730	 4.6700
 4.5770	 4.6230
 4.5810	 4.6130
 4.5850	 4.6380
 4.5890	 4.7260
 4.5930	 4.7360
 4.5970	 4.6840
 4.6010	 4.6830
 4.6050	 4.6140
 4.6090	 4.4470
 4.6130	 4.6050
 4.6170	 4.8120
 4.6220	 4.7580
 4.6260	 4.6870
 4.6300	 4.6720
 4.6340	 4.7330
 4.6380	 4.8450
 4.6420	 4.7630
 4.6460	 4.6400
 4.6510	 4.6010
 4.6550	 4.6490
 4.6590	 4.6250
 4.6630	 4.6370
 4.6670	 4.6320
 4.6720	 4.6280
 4.6760	 4.5850
 4.6800	 4.5620
 4.6840	 4.5330
 4.6880	 4.5730
 4.6930	 4.6010
 4.6970	 4.6330
 4.7010	 4.6590
 4.7050	 4.5610
 4.7100	 4.4790
 4.7140	 4.5920
 4.7180	 4.5390
 4.7230	 4.5650
 4.7270	 4.7030
 4.7310	 4.6420
 4.7360	 4.5330
 4.7400	 4.5730
 4.7440	 4.5430
 4.7490	 4.5860
 4.7530	 4.6800
 4.7570	 4.5970
 4.7620	 4.4780
 4.7660	 4.6230
 4.7700	 4.7430
 4.7750	 4.7000
 4.7790	 4.7100
 4.7840	 4.7670
 4.7880	 4.8170
 4.7920	 4.8750
 4.7970	 4.6750
 4.8010	 4.6160
 4.8060	 4.5940
 4.8100	 4.7290
 4.8150	 4.7780
 4.8190	 4.6670
 4.8240	 4.6210
 4.8280	 4.6020
 4.8330	 4.5380
 4.8370	 4.5390
 4.8420	 4.4350
 4.8460	 4.4830
 4.8510	 4.5380
 4.8550	 4.5760
 4.8600	 4.5610
 4.8640	 4.5800
 4.8690	 4.5940
 4.8730	 4.5680
 4.8780	 4.6190
 4.8830	 4.6460
 4.8870	 4.6100
 4.8920	 4.6010
 4.8960	 4.6270
 4.9010	 4.6560
 4.9060	 4.5880
 4.9100	 4.5860
 4.9150	 4.5970
 4.9200	 4.5700
 4.9240	 4.5320
 4.9290	 4.5760
 4.9340	 4.6170
 4.9380	 4.5590
 4.9430	 4.5050
 4.9480	 4.6040
 4.9530	 4.6610
 4.9570	 4.6830
 4.9620	 4.6110
 4.9670	 4.5090
 4.9720	 4.5120
 4.9760	 4.5510
 4.9810	 4.5680
 4.9860	 4.6690
 4.9910	 4.6350
 4.9960	 4.7050
 5.0000	 4.7050
 5.0050	 4.6080
 5.0100	 4.5430
 5.0150	 4.5720
 5.0200	 4.6010
 5.0250	 4.6340
 5.0290	 4.6240
 5.0340	 4.6620
 5.0390	 4.6860
 5.0440	 4.6450
 5.0490	 4.6140
 5.0540	 4.6090
 5.0590	 4.6780
 5.0640	 4.6880
 5.0690	 4.6460
 5.0740	 4.6980
 5.0790	 4.6810
 5.0840	 4.6930
 5.0890	 4.6650
 5.0940	 4.6650
 5.0990	 4.5600
 5.1040	 4.5800
 5.1090	 4.6570
 5.1140	 4.7150
 5.1190	 4.6420
 5.1240	 4.5750
 5.1290	 4.5560
 5.1340	 4.6330
 5.1390	 4.5720
 5.1440	 4.7070
 5.1490	 4.6950
 5.1540	 4.5630
 5.1600	 4.5650
 5.1650	 4.5780
 5.1700	 4.5740
 5.1750	 4.6500
 5.1800	 4.5500
 5.1850	 4.5340
 5.1910	 4.5750
 5.1960	 4.5590
 5.2010	 4.5310
 5.2060	 4.5060
 5.2110	 4.4780
 5.2170	 4.5530
 5.2220	 4.6230
 5.2270	 4.6390
 5.2320	 4.4950
 5.2380	 4.5560
 5.2430	 4.6500
 5.2480	 4.7260
 5.2540	 4.7720
 5.2590	 4.7570
 5.2640	 4.7170
 5.2700	 4.7020
 5.2750	 4.6400
 5.2800	 4.6930
 5.2860	 4.5340
 5.2910	 4.5130
 5.2970	 4.6610
 5.3020	 4.7110
 5.3070	 4.6060
 5.3130	 4.5110
 5.3180	 4.4280
 5.3240	 4.4440
 5.3290	 4.4500
 5.3350	 4.4780
 5.3400	 4.5020
 5.3460	 4.5590
 5.3510	 4.5750
 5.3570	 4.5250
 5.3620	 4.3850
 5.3680	 4.3960
 5.3730	 4.4520
 5.3790	 4.6140
 5.3850	 4.6790
 5.3900	 4.5690
 5.3960	 4.4670
 5.4010	 4.5470
 5.4070	 4.4460
 5.4130	 4.4140
 5.4180	 4.5050
 5.4240	 4.5120
 5.4300	 4.4250
 5.4350	 4.4610
 5.4410	 4.4360
 5.4470	 4.3800
 5.4530	 4.3310
 5.4580	 4.3440
 5.4640	 4.3760
 5.4700	 4.4020
 5.4760	 4.3190
 5.4810	 4.3060
 5.4870	 4.2480
 5.4930	 4.2990
 5.4990	 4.2150
 5.5050	 4.2000
 5.5110	 4.2360
 5.5160	 4.2720
 5.5220	 4.3020
 5.5280	 4.2770
 5.5340	 4.1460
 5.5400	 4.0850
 5.5460	 3.9990
 5.5520	 4.1370
 5.5580	 4.1670
 5.5640	 4.1390
 5.5700	 4.0960
 5.5760	 4.0680
 5.5820	 4.0440
 5.5880	 4.0710
 5.5940	 4.0360
 5.6000	 4.0600
 5.6060	 3.9910
 5.6120	 3.8860
 5.6180	 3.7920
 5.6240	 3.8160
 5.6300	 3.8100
 5.6360	 3.8420
 5.6420	 3.8010
 5.6490	 3.8490
 5.6550	 3.7060
 5.6610	 3.6670
 5.6670	 3.6420
 5.6730	 3.6420
 5.6800	 3.6280
 5.6860	 3.6410
 5.6920	 3.4750
 5.6980	 3.3320
 5.7040	 3.3460
 5.7110	 3.3990
 5.7170	 3.3660
 5.7230	 3.3690
 5.7300	 3.2490
 5.7360	 3.2210
 5.7420	 3.1220
 5.7490	 3.1790
 5.7550	 3.1670
 5.7620	 3.1900
 5.7680	 3.2610
 5.7740	 3.3350
 5.7810	 3.3130
 5.7870	 3.5120
 5.7940	 3.5430
 5.8000	 3.5300
 5.8070	 3.5880
 5.8130	 3.6850
 5.8200	 3.6290
 5.8260	 3.6940
 5.8330	 3.7900
 5.8390	 3.8670
 5.8460	 3.8550
 5.8530	 3.9420
 5.8590	 3.8730
 5.8660	 3.9720
 5.8720	 4.0010
 5.8790	 4.0530
 5.8860	 4.0520
 5.8920	 4.1440
 5.8990	 4.2020
 5.9060	 4.2570
 5.9130	 4.2360
 5.9190	 4.2990
 5.9260	 4.2610
 5.9330	 4.2390
 5.9400	 4.2160
 5.9470	 4.2850
 5.9530	 4.2460
 5.9600	 4.2800
 5.9670	 4.1910
 5.9740	 4.2240
 5.9810	 4.3030
 5.9880	 4.3370
 5.9950	 4.2410
 6.0020	 4.3320
 6.0090	 4.1940
 6.0160	 4.0920
 6.0230	 4.1420
 6.0300	 4.0880
 6.0370	 3.8500
 6.0440	 4.0030
 6.0510	 4.0940
 6.0580	 4.1270
 6.0650	 4.0620
 6.0720	 4.1570
 6.0790	 4.1960
 6.0860	 4.2290
 6.0930	 4.2160
 6.1000	 4.1750
 6.1080	 4.1440
 6.1150	 4.3020
 6.1220	 4.3200
 6.1290	 4.3860
 6.1370	 4.2790
 6.1440	 4.3780
 6.1510	 4.4040
 6.1580	 4.4430
 6.1660	 4.3250
 6.1730	 4.2230
 6.1800	 4.0250
 6.1880	 4.1420
 6.1950	 4.0500
 6.2030	 3.9970
 6.2100	 4.0690
 6.2170	 4.1560
 6.2250	 4.1260
 6.2320	 4.3130
 6.2400	 4.2320
 6.2470	 4.1170
 6.2550	 4.0470
 6.2630	 4.1680
 6.2700	 4.1900
 6.2780	 4.2350
 6.2850	 4.2140
 6.2930	 4.3640
 6.3010	 4.3530
 6.3080	 4.3110
 6.3160	 4.1530
 6.3240	 4.0890
 6.3310	 4.1520
 6.3390	 4.2910
 6.3470	 4.3780
 6.3550	 4.4780
 6.3620	 4.3400
 6.3700	 4.3180
 6.3780	 4.2090
 6.3860	 4.2810
 6.3940	 4.3470
 6.4020	 4.4060
 6.4100	 4.4090
 6.4180	 4.4960
 6.4260	 4.4310
 6.4330	 4.3670
 6.4410	 4.2710
 6.4490	 4.3510
 6.4580	 4.3490
 6.4660	 4.3690
 6.4740	 4.2920
 6.4820	 4.3360
 6.4900	 4.2690
 6.4980	 4.2470
 6.5060	 4.1700
 6.5140	 4.1710
 6.5230	 4.0960
 6.5310	 4.1430
 6.5390	 4.1170
 6.5470	 4.2040
 6.5550	 4.1780
 6.5640	 4.2220
 6.5720	 4.1160
 6.5800	 4.1000
 6.5890	 3.9290
 6.5970	 3.8890
 6.6060	 3.8200
 6.6140	 3.8100
 6.6220	 3.7610
 6.6310	 3.8950
 6.6390	 3.9800
 6.6480	 4.0350
 6.6560	 3.9690
 6.6650	 4.0550
 6.6740	 3.9850
 6.6820	 4.0540
 6.6910	 4.0440
 6.6990	 4.0300
 6.7080	 3.8720
 6.7170	 3.7860
 6.7260	 3.7550
 6.7340	 3.9240
 6.7430	 3.9720
 6.7520	 3.9140
 6.7610	 3.7140
 6.7690	 3.6980
 6.7780	 3.9250
 6.7870	 4.4840
 6.7960	 4.5410
 6.8050	 4.2470
 6.8140	 4.0110
 6.8230	 4.0670
 6.8320	 4.2890
 6.8410	 4.6130
 6.8500	 4.4140
 6.8590	 4.1870
 6.8680	 4.1090
 6.8770	 4.1690
 6.8860	 4.0690
 6.8950	 4.0220
 6.9050	 3.8590
 6.9140	 3.9610
 6.9230	 3.9590
 6.9320	 3.8960
 6.9420	 3.8160
 6.9510	 3.9060
 6.9600	 3.8540
 6.9700	 4.0230
 6.9790	 4.0130
 6.9880	 3.9400
 6.9980	 3.9260
 7.0070	 4.0570
 7.0170	 3.9890
 7.0260	 4.0100
 7.0360	 3.9930
 7.0450	 4.1040
 7.0550	 3.9280
 7.0650	 3.8580
 7.0740	 3.8550
 7.0840	 4.0790
 7.0940	 4.1450
 7.1030	 4.2190
 7.1130	 4.0820
 7.1230	 4.1170
 7.1330	 4.0070
 7.1420	 4.0670
 7.1520	 3.9780
 7.1620	 3.9730
 7.1720	 3.8800
 7.1820	 3.9730
 7.1920	 3.9480
 7.2020	 3.9530
 7.2120	 3.8020
 7.2220	 3.7810
 7.2320	 3.7770
 7.2420	 3.8970
 7.2520	 3.8240
 7.2620	 3.7800
 7.2730	 3.6240
 7.2830	 3.7520
 7.2930	 3.7490
 7.3030	 3.7280
 7.3140	 3.6810
 7.3240	 3.8350
 7.3340	 3.7820
 7.3450	 3.7940
 7.3550	 3.7220
 7.3660	 3.8060
 7.3760	 3.7620
 7.3870	 3.7690
 7.3970	 3.7870
 7.4080	 3.9850
 7.4180	 3.9870
 7.4290	 3.9860
 7.4400	 3.8250
 7.4500	 3.9050
 7.4610	 3.9040
 7.4720	 3.9750
 7.4830	 3.8290
 7.4930	 3.7790
 7.5040	 3.6860
 7.5150	 3.8280
 7.5260	 3.7940
 7.5370	 3.7880
 7.5480	 3.6790
 7.5590	 3.7140
 7.5700	 3.7800
 7.5810	 3.8620
 7.5920	 3.7130
 7.6030	 3.7760
 7.6140	 3.8010
 7.6260	 3.8060
 7.6370	 3.7170
 7.6480	 3.8100
 7.6590	 3.6490
 7.6710	 3.6790
 7.6820	 3.5290
 7.6930	 3.5380
 7.7050	 3.6290
 7.7160	 3.7510
 7.7280	 3.6120
 7.7390	 3.6000
 7.7510	 3.5480
 7.7630	 3.6040
 7.7740	 3.4220
 7.7860	 3.5440
 7.7980	 3.4780
 7.8090	 3.6320
 7.8210	 3.5530
 7.8330	 3.5020
 7.8450	 3.4460
 7.8570	 3.5720
 7.8690	 3.5530
 7.8810	 3.6640
 7.8930	 3.7070
 7.9050	 3.7990
 7.9170	 3.4910
 7.9290	 3.5450
 7.9410	 3.5220
 7.9530	 3.5960
 7.9650	 3.6210
 7.9780	 3.7520
 7.9900	 3.7110
 8.0020	 3.6110
 8.0150	 3.5180
 8.0270	 3.7970
 8.0390	 3.6740
 8.0520	 3.6730
 8.0640	 3.6010
 8.0770	 3.6160
 8.0900	 3.5540
 8.1020	 3.9470
 8.1150	 3.9580
 8.1280	 4.0940
 8.1400	 3.9670
 8.1530	 3.9650
 8.1660	 3.8930
 8.1790	 4.0050
 8.1920	 3.9310
 8.2050	 4.0590
 8.2180	 4.0030
 8.2310	 4.1080
 8.2440	 3.8590
 8.2570	 3.8140
 8.2700	 3.6470
 8.2830	 3.8030
 8.2970	 3.8830
 8.3100	 4.2010
 8.3230	 4.0650
 8.3370	 4.0870
 8.3500	 3.9370
 8.3640	 4.0800
 8.3770	 4.0440
 8.3910	 4.1100
 8.4040	 4.0630
 8.4180	 4.2320
 8.4320	 4.1360
 8.4450	 4.2340
 8.4590	 4.1920
 8.4730	 4.3080
 8.4870	 4.1690
 8.5010	 4.2840
 8.5150	 4.2010
 8.5290	 4.5190
 8.5430	 4.6320
 8.5570	 4.7440
 8.5710	 4.6130
 8.5850	 4.8330
 8.5990	 4.7090
 8.6140	 4.7810
 8.6280	 4.6910
 8.6420	 4.7740
 8.6570	 4.8070
 8.6710	 4.9570
 8.6860	 4.8290
 8.7000	 5.0640
 8.7150	 4.9920
 8.7300	 5.0290
 8.7440	 5.0300
 8.7590	 5.2480
 8.7740	 5.2150
 8.7890	 5.3220
 8.8040	 5.1970
 8.8190	 5.2380
 8.8340	 5.1130
 8.8490	 5.2850
 8.8640	 5.1900
 8.8790	 5.3810
 8.8940	 5.2230
 8.9100	 5.1050
 8.9250	 4.9470
 8.9400	 5.2400
 8.9560	 5.2770
 8.9710	 5.3690
 8.9870	 5.1700
 9.0020	 5.3580
 9.0180	 5.4010
 9.0340	 5.5350
 9.0500	 5.3540
 9.0650	 5.5930
 9.0810	 5.5310
 9.0970	 5.5080
 9.1130	 5.3160
 9.1290	 5.6240
 9.1450	 5.6630
 9.1610	 5.7500
 9.1780	 5.4000
 9.1940	 5.5270
 9.2100	 5.5030
 9.2270	 5.5840
 9.2430	 5.4750
 9.2600	 5.6090
 9.2760	 5.5080
 9.2930	 5.8220
 9.3090	 5.8150
 9.3260	 5.9460
 9.3430	 5.5950
 9.3600	 5.5850
 9.3770	 5.4900
 9.3940	 5.6330
 9.4110	 5.6910
 9.4280	 6.1660
 9.4450	 6.0710
 9.4620	 6.1250
 9.4800	 6.0150
 9.4970	 6.0670
 9.5140	 5.9750
 9.5320	 6.2680
 9.5500	 6.2310
 9.5670	 6.3750
 9.5850	 6.2240
 9.6030	 6.3970
 9.6200	 6.4010
 9.6380	 6.6560
 9.6560	 6.4550
 9.6740	 6.5620
 9.6920	 6.5110
 9.7100	 6.6850
 9.7290	 6.3580
 9.7470	 6.4010
 9.7650	 6.3690
 9.7840	 6.5030
 9.8020	 6.2990
 9.8210	 6.4240
 9.8390	 6.2040
 9.8580	 6.1360
 9.8770	 5.8890
 9.8960	 5.9760
 9.9150	 5.8720
 9.9340	 6.1310
 9.9530	 5.9580
 9.9720	 6.0560
 9.9910	 5.8720
10.0100	 5.8740
10.0300	 5.7260
10.0490	 5.7760
10.0690	 5.6280
10.0880	 5.5520
10.1080	 5.2890
10.1280	 5.3430
10.1480	 5.1380
10.1670	 5.3380
10.1870	 5.2100
10.2070	 5.0490
10.2280	 4.8270
10.2480	 4.9720
10.2680	 4.7330
10.2890	 4.9350
10.3090	 4.8720
10.3300	 4.8950
10.3500	 4.7650
10.3710	 5.0090
10.3920	 4.8590
10.4120	 4.9800
10.4330	 4.8060
10.4540	 4.8520
10.4760	 4.7080
10.4970	 4.8660
10.5180	 4.7280
10.5390	 4.8560
10.5610	 4.9100
10.5820	 5.1040
10.6040	 4.8460
10.6260	 4.8280
10.6480	 4.6480
10.6700	 4.8510
10.6920	 4.8050
10.7140	 4.9740
10.7360	 4.8060
10.7580	 4.9640
10.7800	 4.8340
10.8030	 4.8650
10.8250	 4.7360
10.8480	 4.9120
10.8710	 4.8510
10.8940	 4.9510
10.9170	 4.7900
10.9400	 5.0260
10.9630	 4.9210
10.9860	 4.9470
11.0090	 4.7990
11.0330	 4.9460
11.0560	 4.7740
11.0800	 4.9900
11.1040	 4.7150
11.1270	 4.9320
11.1510	 4.8930
11.1750	 4.9580
11.2000	 4.6140
11.2240	 4.6040
11.2480	 4.5980
11.2730	 4.4950
11.2970	 4.2370
11.3220	 5.0760
11.3470	 5.0380
11.3720	 5.1760
11.3970	 4.8300
11.4220	 4.8910
11.4470	 4.8710
11.4720	 5.1760
11.4980	 4.9510
11.5230	 5.0590
11.5490	 4.9930
11.5750	 5.2090
11.6000	 5.0000
11.6260	 5.1660
11.6530	 4.9320
11.6790	 5.1820
11.7050	 4.9670
11.7320	 5.0040
11.7580	 5.0040
11.7850	 5.2350
11.8120	 5.0630
11.8390	 5.2900
11.8660	 4.8980
11.8930	 4.9380
11.9200	 4.8450
11.9480	 5.1480
11.9760	 4.9350
12.0030	 5.0830
12.0310	 4.9310
12.0590	 4.9660
12.0870	 4.7880
12.1150	 5.3390
12.1440	 5.1430
12.1720	 5.2000
12.2010	 5.0590
12.2300	 5.3350
12.2590	 5.2400
12.2880	 5.5010
12.3170	 5.2790
12.3460	 5.5740
12.3760	 5.4420
12.4050	 5.5870
12.4350	 5.3060
12.4650	 5.4540
12.4950	 5.2270
12.5250	 5.5550
12.5550	 5.2010
12.5860	 5.3950
12.6170	 5.1670
12.6470	 5.2510
12.6780	 4.8110
12.7090	 5.2550
12.7410	 5.3340
12.7720	 5.5500
12.8030	 5.3700
12.8350	 5.4890
12.8670	 5.1320
12.8990	 5.4490
12.9310	 5.0930
12.9640	 5.3410
12.9960	 5.1630
13.0290	 5.3110
13.0610	 4.9650
13.0940	 5.2390
13.1280	 5.1960
13.1610	 5.4440
13.1940	 5.4970
13.2280	 7.1330
13.2620	 6.2070
13.2960	 5.0510
13.3300	 4.5270
13.3640	 4.8040
13.3990	 4.7180
13.4340	 5.1600
13.4690	 5.0320
13.5040	 4.9880
13.5390	 4.2050
13.5740	 4.5180
13.6100	 4.7710
13.6460	 5.1680
13.6820	 4.7770
13.7180	 5.1110
13.7540	 4.8380
13.7910	 4.8140
13.8280	 4.3600
13.8650	 4.8870
13.9020	 4.9360
13.9390	 5.4640
13.9770	 5.0600
14.0150	 5.2620
14.0530	 4.5420
14.0910	 4.5570
14.1290	 3.9440
14.1680	 4.2480
14.2070	 4.1730
14.2460	 4.5700
14.2850	 3.9840
14.3240	 4.0670
14.3640	 3.7420
14.4040	 4.5160
14.4440	 4.4900
14.4840	 4.7520
14.5250	 3.9030
14.5660	 4.2590
14.6070	 3.8540
14.6480	 4.3240
14.6900	 4.1290
14.7310	 4.6720
14.7730	 3.9830
14.8150	 4.0010
14.8580	 3.8340
14.9010	 4.5570
14.9440	 4.0400
14.9870	 4.2880
15.0300	 3.1120
15.0740	 3.8640
15.1180	 3.3280
15.1620	 3.9830
15.2060	 3.8310
15.2510	 4.3150
15.2960	 2.8800
15.3410	 3.3890
15.3870	 2.8880
