Name: Melaleuca linariifolia
Type: vegetation
Class: Tree
Genus: Melaleuca
Species: linariifolia
Sample No.: JPL198
Owner: JPL
Wavelength Range: VSWIR
Origin: 34.1258; -118.11316; WGS84
Collection Date: 10/3/2016
Description: Samples were collected at the Huntington Garden in San Marino California as part of a JPL Subcontract studying HyTES imagery. Samples were taken to JPL and processed within 48 hours of collection. The same leaves were processed in the Nicolet and then measured using the ASD.
Measurement: Bidirectional reflectance
First Column: X
Second Column: Y
X Units: Wavelength (micrometer)
Y Units: Reflectance (percentage)
First X Value: 0.35
Last X Value: 2.5
Number of X Values: 2151
Additional Information: vegetation.tree.melaleuca.linariifolia.vswir.jpl198.jpl.asd.ancillary.txt

 0.3500	 4.6570
 0.3510	 4.6840
 0.3520	 4.7970
 0.3530	 4.8620
 0.3540	 4.8000
 0.3550	 4.7330
 0.3560	 4.6410
 0.3570	 4.5730
 0.3580	 4.5950
 0.3590	 4.6860
 0.3600	 4.7070
 0.3610	 4.6360
 0.3620	 4.6190
 0.3630	 4.6040
 0.3640	 4.5920
 0.3650	 4.6000
 0.3660	 4.6830
 0.3670	 4.6360
 0.3680	 4.5240
 0.3690	 4.5720
 0.3700	 4.5890
 0.3710	 4.5770
 0.3720	 4.5650
 0.3730	 4.5740
 0.3740	 4.5670
 0.3750	 4.5420
 0.3760	 4.5170
 0.3770	 4.5390
 0.3780	 4.5260
 0.3790	 4.4790
 0.3800	 4.4700
 0.3810	 4.4360
 0.3820	 4.4500
 0.3830	 4.5200
 0.3840	 4.4620
 0.3850	 4.4560
 0.3860	 4.4910
 0.3870	 4.4960
 0.3880	 4.4990
 0.3890	 4.4950
 0.3900	 4.4960
 0.3910	 4.5290
 0.3920	 4.5060
 0.3930	 4.4790
 0.3940	 4.4990
 0.3950	 4.5360
 0.3960	 4.5440
 0.3970	 4.5370
 0.3980	 4.5550
 0.3990	 4.5370
 0.4000	 4.5260
 0.4010	 4.5350
 0.4020	 4.5270
 0.4030	 4.5570
 0.4040	 4.5990
 0.4050	 4.6120
 0.4060	 4.5860
 0.4070	 4.5880
 0.4080	 4.6160
 0.4090	 4.6300
 0.4100	 4.6590
 0.4110	 4.6730
 0.4120	 4.6660
 0.4130	 4.6880
 0.4140	 4.6960
 0.4150	 4.7010
 0.4160	 4.7210
 0.4170	 4.7290
 0.4180	 4.7380
 0.4190	 4.7510
 0.4200	 4.7630
 0.4210	 4.7840
 0.4220	 4.8030
 0.4230	 4.8120
 0.4240	 4.8100
 0.4250	 4.8170
 0.4260	 4.8310
 0.4270	 4.8380
 0.4280	 4.8510
 0.4290	 4.8570
 0.4300	 4.8560
 0.4310	 4.8690
 0.4320	 4.8700
 0.4330	 4.8720
 0.4340	 4.8890
 0.4350	 4.9060
 0.4360	 4.9120
 0.4370	 4.9090
 0.4380	 4.9020
 0.4390	 4.8960
 0.4400	 4.8900
 0.4410	 4.8860
 0.4420	 4.8960
 0.4430	 4.8970
 0.4440	 4.9000
 0.4450	 4.9170
 0.4460	 4.9260
 0.4470	 4.9260
 0.4480	 4.9270
 0.4490	 4.9460
 0.4500	 4.9550
 0.4510	 4.9630
 0.4520	 4.9790
 0.4530	 4.9750
 0.4540	 4.9750
 0.4550	 4.9840
 0.4560	 4.9890
 0.4570	 4.9900
 0.4580	 4.9840
 0.4590	 4.9750
 0.4600	 4.9750
 0.4610	 4.9710
 0.4620	 4.9640
 0.4630	 4.9620
 0.4640	 4.9610
 0.4650	 4.9560
 0.4660	 4.9480
 0.4670	 4.9420
 0.4680	 4.9360
 0.4690	 4.9290
 0.4700	 4.9220
 0.4710	 4.9240
 0.4720	 4.9210
 0.4730	 4.9160
 0.4740	 4.9160
 0.4750	 4.9130
 0.4760	 4.9090
 0.4770	 4.9060
 0.4780	 4.9100
 0.4790	 4.9120
 0.4800	 4.9110
 0.4810	 4.9080
 0.4820	 4.8970
 0.4830	 4.8970
 0.4840	 4.9070
 0.4850	 4.9110
 0.4860	 4.9180
 0.4870	 4.9220
 0.4880	 4.9210
 0.4890	 4.9280
 0.4900	 4.9310
 0.4910	 4.9320
 0.4920	 4.9420
 0.4930	 4.9470
 0.4940	 4.9550
 0.4950	 4.9690
 0.4960	 4.9850
 0.4970	 5.0030
 0.4980	 5.0200
 0.4990	 5.0370
 0.5000	 5.0580
 0.5010	 5.0800
 0.5020	 5.1050
 0.5030	 5.1380
 0.5040	 5.1720
 0.5050	 5.2090
 0.5060	 5.2510
 0.5070	 5.2960
 0.5080	 5.3380
 0.5090	 5.3820
 0.5100	 5.4360
 0.5110	 5.4950
 0.5120	 5.5570
 0.5130	 5.6210
 0.5140	 5.6920
 0.5150	 5.7670
 0.5160	 5.8460
 0.5170	 5.9310
 0.5180	 6.0170
 0.5190	 6.1000
 0.5200	 6.1830
 0.5210	 6.2750
 0.5220	 6.3660
 0.5230	 6.4550
 0.5240	 6.5420
 0.5250	 6.6280
 0.5260	 6.7110
 0.5270	 6.7900
 0.5280	 6.8680
 0.5290	 6.9380
 0.5300	 7.0000
 0.5310	 7.0570
 0.5320	 7.1130
 0.5330	 7.1620
 0.5340	 7.2060
 0.5350	 7.2460
 0.5360	 7.2790
 0.5370	 7.3090
 0.5380	 7.3380
 0.5390	 7.3680
 0.5400	 7.4070
 0.5410	 7.4550
 0.5420	 7.5040
 0.5430	 7.5400
 0.5440	 7.5580
 0.5450	 7.5590
 0.5460	 7.5450
 0.5470	 7.5240
 0.5480	 7.5050
 0.5490	 7.4940
 0.5500	 7.4930
 0.5510	 7.4910
 0.5520	 7.4850
 0.5530	 7.4730
 0.5540	 7.4590
 0.5550	 7.4400
 0.5560	 7.4160
 0.5570	 7.3910
 0.5580	 7.3600
 0.5590	 7.3240
 0.5600	 7.2830
 0.5610	 7.2360
 0.5620	 7.1850
 0.5630	 7.1300
 0.5640	 7.0730
 0.5650	 7.0150
 0.5660	 6.9540
 0.5670	 6.8910
 0.5680	 6.8290
 0.5690	 6.7690
 0.5700	 6.7100
 0.5710	 6.6510
 0.5720	 6.5900
 0.5730	 6.5290
 0.5740	 6.4710
 0.5750	 6.4200
 0.5760	 6.3750
 0.5770	 6.3330
 0.5780	 6.2920
 0.5790	 6.2550
 0.5800	 6.2170
 0.5810	 6.1800
 0.5820	 6.1470
 0.5830	 6.1220
 0.5840	 6.1000
 0.5850	 6.0760
 0.5860	 6.0490
 0.5870	 6.0190
 0.5880	 5.9890
 0.5890	 5.9590
 0.5900	 5.9330
 0.5910	 5.9080
 0.5920	 5.8840
 0.5930	 5.8610
 0.5940	 5.8400
 0.5950	 5.8230
 0.5960	 5.8110
 0.5970	 5.7950
 0.5980	 5.7810
 0.5990	 5.7710
 0.6000	 5.7620
 0.6010	 5.7450
 0.6020	 5.7270
 0.6030	 5.7080
 0.6040	 5.6900
 0.6050	 5.6660
 0.6060	 5.6390
 0.6070	 5.6130
 0.6080	 5.5860
 0.6090	 5.5680
 0.6100	 5.5620
 0.6110	 5.5620
 0.6120	 5.5330
 0.6130	 5.4850
 0.6140	 5.4330
 0.6150	 5.3960
 0.6160	 5.3630
 0.6170	 5.3320
 0.6180	 5.3050
 0.6190	 5.2810
 0.6200	 5.2610
 0.6210	 5.2430
 0.6220	 5.2220
 0.6230	 5.2020
 0.6240	 5.1860
 0.6250	 5.1750
 0.6260	 5.1620
 0.6270	 5.1520
 0.6280	 5.1460
 0.6290	 5.1400
 0.6300	 5.1340
 0.6310	 5.1260
 0.6320	 5.1140
 0.6330	 5.0980
 0.6340	 5.0810
 0.6350	 5.0610
 0.6360	 5.0380
 0.6370	 5.0090
 0.6380	 4.9780
 0.6390	 4.9450
 0.6400	 4.9130
 0.6410	 4.8750
 0.6420	 4.8370
 0.6430	 4.7990
 0.6440	 4.7600
 0.6450	 4.7210
 0.6460	 4.6850
 0.6470	 4.6550
 0.6480	 4.6280
 0.6490	 4.6050
 0.6500	 4.5870
 0.6510	 4.5710
 0.6520	 4.5570
 0.6530	 4.5450
 0.6540	 4.5350
 0.6550	 4.5230
 0.6560	 4.5100
 0.6570	 4.4950
 0.6580	 4.4780
 0.6590	 4.4600
 0.6600	 4.4400
 0.6610	 4.4190
 0.6620	 4.3990
 0.6630	 4.3810
 0.6640	 4.3620
 0.6650	 4.3430
 0.6660	 4.3310
 0.6670	 4.3220
 0.6680	 4.3150
 0.6690	 4.3130
 0.6700	 4.3150
 0.6710	 4.3220
 0.6720	 4.3330
 0.6730	 4.3510
 0.6740	 4.3700
 0.6750	 4.3910
 0.6760	 4.4170
 0.6770	 4.4480
 0.6780	 4.4850
 0.6790	 4.5250
 0.6800	 4.5640
 0.6810	 4.6120
 0.6820	 4.6640
 0.6830	 4.7170
 0.6840	 4.7730
 0.6850	 4.8340
 0.6860	 4.8990
 0.6870	 4.9680
 0.6880	 5.0450
 0.6890	 5.1330
 0.6900	 5.2390
 0.6910	 5.3660
 0.6920	 5.5150
 0.6930	 5.6900
 0.6940	 5.8950
 0.6950	 6.1310
 0.6960	 6.3950
 0.6970	 6.6870
 0.6980	 7.0070
 0.6990	 7.3590
 0.7000	 7.7360
 0.7010	 8.1360
 0.7020	 8.5600
 0.7030	 9.0020
 0.7040	 9.4610
 0.7050	 9.9360
 0.7060	10.4310
 0.7070	10.9380
 0.7080	11.4590
 0.7090	11.9960
 0.7100	12.5460
 0.7110	13.1140
 0.7120	13.7000
 0.7130	14.2970
 0.7140	14.9090
 0.7150	15.5380
 0.7160	16.1830
 0.7170	16.8410
 0.7180	17.5090
 0.7190	18.1870
 0.7200	18.8740
 0.7210	19.5690
 0.7220	20.2680
 0.7230	20.9670
 0.7240	21.6660
 0.7250	22.3600
 0.7260	23.0490
 0.7270	23.7290
 0.7280	24.3940
 0.7290	25.0470
 0.7300	25.6850
 0.7310	26.3030
 0.7320	26.9050
 0.7330	27.4850
 0.7340	28.0420
 0.7350	28.5770
 0.7360	29.0910
 0.7370	29.5810
 0.7380	30.0440
 0.7390	30.4830
 0.7400	30.8980
 0.7410	31.2860
 0.7420	31.6470
 0.7430	31.9880
 0.7440	32.3060
 0.7450	32.6000
 0.7460	32.8680
 0.7470	33.1170
 0.7480	33.3450
 0.7490	33.5520
 0.7500	33.7430
 0.7510	33.9160
 0.7520	34.0710
 0.7530	34.2120
 0.7540	34.3430
 0.7550	34.4640
 0.7560	34.5720
 0.7570	34.6670
 0.7580	34.7550
 0.7590	34.8360
 0.7600	34.9100
 0.7610	34.9770
 0.7620	35.0350
 0.7630	35.0870
 0.7640	35.1350
 0.7650	35.1740
 0.7660	35.2110
 0.7670	35.2480
 0.7680	35.2820
 0.7690	35.3080
 0.7700	35.3320
 0.7710	35.3570
 0.7720	35.3790
 0.7730	35.3970
 0.7740	35.4160
 0.7750	35.4380
 0.7760	35.4570
 0.7770	35.4750
 0.7780	35.4930
 0.7790	35.5120
 0.7800	35.5270
 0.7810	35.5420
 0.7820	35.5570
 0.7830	35.5680
 0.7840	35.5870
 0.7850	35.6040
 0.7860	35.6150
 0.7870	35.6260
 0.7880	35.6380
 0.7890	35.6480
 0.7900	35.6570
 0.7910	35.6690
 0.7920	35.6820
 0.7930	35.6930
 0.7940	35.6980
 0.7950	35.7050
 0.7960	35.7130
 0.7970	35.7210
 0.7980	35.7270
 0.7990	35.7310
 0.8000	35.7360
 0.8010	35.7420
 0.8020	35.7450
 0.8030	35.7460
 0.8040	35.7460
 0.8050	35.7480
 0.8060	35.7510
 0.8070	35.7550
 0.8080	35.7580
 0.8090	35.7560
 0.8100	35.7560
 0.8110	35.7560
 0.8120	35.7530
 0.8130	35.7490
 0.8140	35.7450
 0.8150	35.7430
 0.8160	35.7440
 0.8170	35.7470
 0.8180	35.7440
 0.8190	35.7380
 0.8200	35.7350
 0.8210	35.7350
 0.8220	35.7370
 0.8230	35.7380
 0.8240	35.7360
 0.8250	35.7330
 0.8260	35.7310
 0.8270	35.7290
 0.8280	35.7210
 0.8290	35.7140
 0.8300	35.7130
 0.8310	35.7160
 0.8320	35.7160
 0.8330	35.7160
 0.8340	35.7170
 0.8350	35.7170
 0.8360	35.7200
 0.8370	35.7200
 0.8380	35.7180
 0.8390	35.7190
 0.8400	35.7200
 0.8410	35.7240
 0.8420	35.7320
 0.8430	35.7370
 0.8440	35.7430
 0.8450	35.7470
 0.8460	35.7500
 0.8470	35.7540
 0.8480	35.7630
 0.8490	35.7730
 0.8500	35.7810
 0.8510	35.7880
 0.8520	35.7970
 0.8530	35.8070
 0.8540	35.8150
 0.8550	35.8220
 0.8560	35.8290
 0.8570	35.8370
 0.8580	35.8460
 0.8590	35.8570
 0.8600	35.8670
 0.8610	35.8750
 0.8620	35.8830
 0.8630	35.8970
 0.8640	35.9110
 0.8650	35.9220
 0.8660	35.9320
 0.8670	35.9450
 0.8680	35.9560
 0.8690	35.9580
 0.8700	35.9680
 0.8710	35.9800
 0.8720	35.9930
 0.8730	36.0050
 0.8740	36.0150
 0.8750	36.0250
 0.8760	36.0360
 0.8770	36.0500
 0.8780	36.0630
 0.8790	36.0740
 0.8800	36.0850
 0.8810	36.1010
 0.8820	36.1100
 0.8830	36.1200
 0.8840	36.1360
 0.8850	36.1430
 0.8860	36.1520
 0.8870	36.1620
 0.8880	36.1700
 0.8890	36.1780
 0.8900	36.1880
 0.8910	36.1980
 0.8920	36.2020
 0.8930	36.2120
 0.8940	36.2230
 0.8950	36.2310
 0.8960	36.2360
 0.8970	36.2470
 0.8980	36.2580
 0.8990	36.2640
 0.9000	36.2730
 0.9010	36.2790
 0.9020	36.2850
 0.9030	36.2910
 0.9040	36.2940
 0.9050	36.2990
 0.9060	36.3060
 0.9070	36.3130
 0.9080	36.3150
 0.9090	36.3190
 0.9100	36.3230
 0.9110	36.3260
 0.9120	36.3370
 0.9130	36.3460
 0.9140	36.3500
 0.9150	36.3490
 0.9160	36.3520
 0.9170	36.3540
 0.9180	36.3550
 0.9190	36.3570
 0.9200	36.3560
 0.9210	36.3480
 0.9220	36.3430
 0.9230	36.3510
 0.9240	36.3490
 0.9250	36.3410
 0.9260	36.3330
 0.9270	36.3260
 0.9280	36.3160
 0.9290	36.3080
 0.9300	36.3020
 0.9310	36.2910
 0.9320	36.2770
 0.9330	36.2610
 0.9340	36.2460
 0.9350	36.2310
 0.9360	36.2110
 0.9370	36.1940
 0.9380	36.1790
 0.9390	36.1580
 0.9400	36.1370
 0.9410	36.1150
 0.9420	36.0880
 0.9430	36.0630
 0.9440	36.0340
 0.9450	36.0040
 0.9460	35.9760
 0.9470	35.9450
 0.9480	35.9040
 0.9490	35.8620
 0.9500	35.8260
 0.9510	35.7770
 0.9520	35.7290
 0.9530	35.6800
 0.9540	35.6260
 0.9550	35.5760
 0.9560	35.5280
 0.9570	35.4810
 0.9580	35.4350
 0.9590	35.3960
 0.9600	35.3560
 0.9610	35.3170
 0.9620	35.2840
 0.9630	35.2610
 0.9640	35.2330
 0.9650	35.2060
 0.9660	35.1900
 0.9670	35.1720
 0.9680	35.1540
 0.9690	35.1380
 0.9700	35.1260
 0.9710	35.1110
 0.9720	35.0990
 0.9730	35.0890
 0.9740	35.0770
 0.9750	35.0660
 0.9760	35.0550
 0.9770	35.0460
 0.9780	35.0410
 0.9790	35.0320
 0.9800	35.0240
 0.9810	35.0210
 0.9820	35.0240
 0.9830	35.0270
 0.9840	35.0340
 0.9850	35.0440
 0.9860	35.0520
 0.9870	35.0580
 0.9880	35.0600
 0.9890	35.0620
 0.9900	35.0680
 0.9910	35.0780
 0.9920	35.1020
 0.9930	35.1220
 0.9940	35.1200
 0.9950	35.1210
 0.9960	35.1350
 0.9970	35.1550
 0.9980	35.1730
 0.9990	35.1870
 1.0000	35.1960
 1.0010	36.4990
 1.0020	36.5110
 1.0030	36.5270
 1.0040	36.5430
 1.0050	36.5590
 1.0060	36.5750
 1.0070	36.5890
 1.0080	36.6040
 1.0090	36.6210
 1.0100	36.6360
 1.0110	36.6500
 1.0120	36.6650
 1.0130	36.6810
 1.0140	36.6960
 1.0150	36.7120
 1.0160	36.7270
 1.0170	36.7400
 1.0180	36.7540
 1.0190	36.7720
 1.0200	36.7880
 1.0210	36.8030
 1.0220	36.8180
 1.0230	36.8350
 1.0240	36.8520
 1.0250	36.8700
 1.0260	36.8950
 1.0270	36.9120
 1.0280	36.9270
 1.0290	36.9430
 1.0300	36.9570
 1.0310	36.9720
 1.0320	36.9860
 1.0330	37.0030
 1.0340	37.0170
 1.0350	37.0310
 1.0360	37.0490
 1.0370	37.0650
 1.0380	37.0810
 1.0390	37.0980
 1.0400	37.1140
 1.0410	37.1280
 1.0420	37.1420
 1.0430	37.1560
 1.0440	37.1680
 1.0450	37.1800
 1.0460	37.1920
 1.0470	37.2020
 1.0480	37.2130
 1.0490	37.2260
 1.0500	37.2350
 1.0510	37.2440
 1.0520	37.2500
 1.0530	37.2570
 1.0540	37.2590
 1.0550	37.2660
 1.0560	37.2780
 1.0570	37.2850
 1.0580	37.2920
 1.0590	37.2980
 1.0600	37.3010
 1.0610	37.3040
 1.0620	37.3080
 1.0630	37.3100
 1.0640	37.3110
 1.0650	37.3110
 1.0660	37.3110
 1.0670	37.3110
 1.0680	37.3090
 1.0690	37.3070
 1.0700	37.3050
 1.0710	37.3020
 1.0720	37.3010
 1.0730	37.3030
 1.0740	37.3000
 1.0750	37.2970
 1.0760	37.2940
 1.0770	37.2890
 1.0780	37.2850
 1.0790	37.2830
 1.0800	37.2800
 1.0810	37.2740
 1.0820	37.2700
 1.0830	37.2690
 1.0840	37.2650
 1.0850	37.2600
 1.0860	37.2550
 1.0870	37.2470
 1.0880	37.2360
 1.0890	37.2270
 1.0900	37.2180
 1.0910	37.2090
 1.0920	37.2010
 1.0930	37.1910
 1.0940	37.1800
 1.0950	37.1700
 1.0960	37.1590
 1.0970	37.1490
 1.0980	37.1420
 1.0990	37.1320
 1.1000	37.1220
 1.1010	37.1120
 1.1020	37.1010
 1.1030	37.0880
 1.1040	37.0760
 1.1050	37.0640
 1.1060	37.0530
 1.1070	37.0440
 1.1080	37.0320
 1.1090	37.0230
 1.1100	37.0090
 1.1110	36.9920
 1.1120	36.9760
 1.1130	36.9610
 1.1140	36.9450
 1.1150	36.9280
 1.1160	36.9110
 1.1170	36.8950
 1.1180	36.8750
 1.1190	36.8540
 1.1200	36.8320
 1.1210	36.8050
 1.1220	36.7720
 1.1230	36.7400
 1.1240	36.7050
 1.1250	36.6660
 1.1260	36.6250
 1.1270	36.5780
 1.1280	36.5290
 1.1290	36.4710
 1.1300	36.4100
 1.1310	36.3390
 1.1320	36.2590
 1.1330	36.1760
 1.1340	36.0880
 1.1350	35.9940
 1.1360	35.8960
 1.1370	35.7930
 1.1380	35.6840
 1.1390	35.5690
 1.1400	35.4470
 1.1410	35.3240
 1.1420	35.1970
 1.1430	35.0670
 1.1440	34.9390
 1.1450	34.8100
 1.1460	34.6840
 1.1470	34.5570
 1.1480	34.4370
 1.1490	34.3190
 1.1500	34.2080
 1.1510	34.1020
 1.1520	34.0010
 1.1530	33.9050
 1.1540	33.8140
 1.1550	33.7290
 1.1560	33.6480
 1.1570	33.5730
 1.1580	33.5030
 1.1590	33.4380
 1.1600	33.3780
 1.1610	33.3230
 1.1620	33.2710
 1.1630	33.2230
 1.1640	33.1800
 1.1650	33.1380
 1.1660	33.0970
 1.1670	33.0590
 1.1680	33.0240
 1.1690	32.9880
 1.1700	32.9550
 1.1710	32.9230
 1.1720	32.8910
 1.1730	32.8590
 1.1740	32.8280
 1.1750	32.7980
 1.1760	32.7660
 1.1770	32.7320
 1.1780	32.7000
 1.1790	32.6660
 1.1800	32.6340
 1.1810	32.6020
 1.1820	32.5700
 1.1830	32.5400
 1.1840	32.5100
 1.1850	32.4820
 1.1860	32.4560
 1.1870	32.4310
 1.1880	32.4090
 1.1890	32.3900
 1.1900	32.3720
 1.1910	32.3570
 1.1920	32.3450
 1.1930	32.3350
 1.1940	32.3280
 1.1950	32.3250
 1.1960	32.3250
 1.1970	32.3240
 1.1980	32.3250
 1.1990	32.3280
 1.2000	32.3310
 1.2010	32.3380
 1.2020	32.3470
 1.2030	32.3560
 1.2040	32.3690
 1.2050	32.3810
 1.2060	32.3950
 1.2070	32.4100
 1.2080	32.4250
 1.2090	32.4440
 1.2100	32.4650
 1.2110	32.4860
 1.2120	32.5090
 1.2130	32.5320
 1.2140	32.5550
 1.2150	32.5790
 1.2160	32.6060
 1.2170	32.6320
 1.2180	32.6590
 1.2190	32.6880
 1.2200	32.7160
 1.2210	32.7460
 1.2220	32.7770
 1.2230	32.8070
 1.2240	32.8370
 1.2250	32.8660
 1.2260	32.8940
 1.2270	32.9220
 1.2280	32.9500
 1.2290	32.9760
 1.2300	33.0000
 1.2310	33.0220
 1.2320	33.0450
 1.2330	33.0670
 1.2340	33.0890
 1.2350	33.1130
 1.2360	33.1340
 1.2370	33.1520
 1.2380	33.1690
 1.2390	33.1860
 1.2400	33.2020
 1.2410	33.2200
 1.2420	33.2360
 1.2430	33.2510
 1.2440	33.2660
 1.2450	33.2820
 1.2460	33.2970
 1.2470	33.3110
 1.2480	33.3240
 1.2490	33.3360
 1.2500	33.3480
 1.2510	33.3600
 1.2520	33.3720
 1.2530	33.3790
 1.2540	33.3870
 1.2550	33.3940
 1.2560	33.3990
 1.2570	33.4050
 1.2580	33.4110
 1.2590	33.4160
 1.2600	33.4190
 1.2610	33.4220
 1.2620	33.4240
 1.2630	33.4250
 1.2640	33.4250
 1.2650	33.4240
 1.2660	33.4230
 1.2670	33.4210
 1.2680	33.4190
 1.2690	33.4170
 1.2700	33.4140
 1.2710	33.4090
 1.2720	33.4040
 1.2730	33.3980
 1.2740	33.3930
 1.2750	33.3860
 1.2760	33.3780
 1.2770	33.3670
 1.2780	33.3540
 1.2790	33.3420
 1.2800	33.3290
 1.2810	33.3130
 1.2820	33.2980
 1.2830	33.2780
 1.2840	33.2570
 1.2850	33.2370
 1.2860	33.2140
 1.2870	33.1880
 1.2880	33.1600
 1.2890	33.1310
 1.2900	33.1000
 1.2910	33.0680
 1.2920	33.0330
 1.2930	32.9950
 1.2940	32.9550
 1.2950	32.9120
 1.2960	32.8660
 1.2970	32.8190
 1.2980	32.7690
 1.2990	32.7150
 1.3000	32.6610
 1.3010	32.6040
 1.3020	32.5440
 1.3030	32.4830
 1.3040	32.4230
 1.3050	32.3590
 1.3060	32.2930
 1.3070	32.2260
 1.3080	32.1550
 1.3090	32.0830
 1.3100	32.0090
 1.3110	31.9330
 1.3120	31.8530
 1.3130	31.7720
 1.3140	31.6890
 1.3150	31.6040
 1.3160	31.5180
 1.3170	31.4300
 1.3180	31.3390
 1.3190	31.2450
 1.3200	31.1480
 1.3210	31.0480
 1.3220	30.9460
 1.3230	30.8430
 1.3240	30.7380
 1.3250	30.6320
 1.3260	30.5240
 1.3270	30.4120
 1.3280	30.2980
 1.3290	30.1840
 1.3300	30.0670
 1.3310	29.9520
 1.3320	29.8360
 1.3330	29.7190
 1.3340	29.6020
 1.3350	29.4830
 1.3360	29.3630
 1.3370	29.2430
 1.3380	29.1220
 1.3390	29.0020
 1.3400	28.8810
 1.3410	28.7630
 1.3420	28.6440
 1.3430	28.5260
 1.3440	28.4110
 1.3450	28.2960
 1.3460	28.1810
 1.3470	28.0670
 1.3480	27.9530
 1.3490	27.8420
 1.3500	27.7310
 1.3510	27.6230
 1.3520	27.5150
 1.3530	27.4080
 1.3540	27.3000
 1.3550	27.1940
 1.3560	27.0880
 1.3570	26.9820
 1.3580	26.8750
 1.3590	26.7660
 1.3600	26.6540
 1.3610	26.5400
 1.3620	26.4220
 1.3630	26.3010
 1.3640	26.1750
 1.3650	26.0450
 1.3660	25.9110
 1.3670	25.7680
 1.3680	25.6170
 1.3690	25.4570
 1.3700	25.2860
 1.3710	25.1070
 1.3720	24.9170
 1.3730	24.7130
 1.3740	24.5000
 1.3750	24.2720
 1.3760	24.0280
 1.3770	23.7680
 1.3780	23.4890
 1.3790	23.1940
 1.3800	22.8800
 1.3810	22.5460
 1.3820	22.1990
 1.3830	21.8360
 1.3840	21.4580
 1.3850	21.0660
 1.3860	20.6640
 1.3870	20.2450
 1.3880	19.8250
 1.3890	19.3980
 1.3900	18.9650
 1.3910	18.5340
 1.3920	18.0990
 1.3930	17.6630
 1.3940	17.2320
 1.3950	16.8010
 1.3960	16.3790
 1.3970	15.9660
 1.3980	15.5630
 1.3990	15.1760
 1.4000	14.8020
 1.4010	14.4400
 1.4020	14.0930
 1.4030	13.7590
 1.4040	13.4400
 1.4050	13.1380
 1.4060	12.8510
 1.4070	12.5820
 1.4080	12.3290
 1.4090	12.0890
 1.4100	11.8640
 1.4110	11.6530
 1.4120	11.4540
 1.4130	11.2690
 1.4140	11.0980
 1.4150	10.9380
 1.4160	10.7900
 1.4170	10.6520
 1.4180	10.5230
 1.4190	10.4020
 1.4200	10.2900
 1.4210	10.1870
 1.4220	10.0920
 1.4230	10.0040
 1.4240	 9.9230
 1.4250	 9.8460
 1.4260	 9.7750
 1.4270	 9.7090
 1.4280	 9.6480
 1.4290	 9.5920
 1.4300	 9.5410
 1.4310	 9.4940
 1.4320	 9.4520
 1.4330	 9.4130
 1.4340	 9.3790
 1.4350	 9.3470
 1.4360	 9.3180
 1.4370	 9.2920
 1.4380	 9.2680
 1.4390	 9.2480
 1.4400	 9.2300
 1.4410	 9.2150
 1.4420	 9.2010
 1.4430	 9.1900
 1.4440	 9.1810
 1.4450	 9.1730
 1.4460	 9.1670
 1.4470	 9.1630
 1.4480	 9.1590
 1.4490	 9.1580
 1.4500	 9.1590
 1.4510	 9.1600
 1.4520	 9.1620
 1.4530	 9.1670
 1.4540	 9.1720
 1.4550	 9.1790
 1.4560	 9.1880
 1.4570	 9.1970
 1.4580	 9.2090
 1.4590	 9.2230
 1.4600	 9.2400
 1.4610	 9.2590
 1.4620	 9.2810
 1.4630	 9.3050
 1.4640	 9.3330
 1.4650	 9.3650
 1.4660	 9.3990
 1.4670	 9.4360
 1.4680	 9.4760
 1.4690	 9.5180
 1.4700	 9.5620
 1.4710	 9.6090
 1.4720	 9.6580
 1.4730	 9.7090
 1.4740	 9.7650
 1.4750	 9.8220
 1.4760	 9.8830
 1.4770	 9.9450
 1.4780	10.0070
 1.4790	10.0730
 1.4800	10.1380
 1.4810	10.2040
 1.4820	10.2730
 1.4830	10.3430
 1.4840	10.4140
 1.4850	10.4870
 1.4860	10.5610
 1.4870	10.6360
 1.4880	10.7110
 1.4890	10.7870
 1.4900	10.8630
 1.4910	10.9400
 1.4920	11.0180
 1.4930	11.0980
 1.4940	11.1770
 1.4950	11.2560
 1.4960	11.3360
 1.4970	11.4160
 1.4980	11.4980
 1.4990	11.5800
 1.5000	11.6620
 1.5010	11.7450
 1.5020	11.8270
 1.5030	11.9110
 1.5040	11.9940
 1.5050	12.0770
 1.5060	12.1600
 1.5070	12.2430
 1.5080	12.3270
 1.5090	12.4100
 1.5100	12.4950
 1.5110	12.5790
 1.5120	12.6640
 1.5130	12.7480
 1.5140	12.8310
 1.5150	12.9150
 1.5160	12.9980
 1.5170	13.0820
 1.5180	13.1660
 1.5190	13.2490
 1.5200	13.3310
 1.5210	13.4120
 1.5220	13.4930
 1.5230	13.5750
 1.5240	13.6570
 1.5250	13.7380
 1.5260	13.8180
 1.5270	13.8980
 1.5280	13.9780
 1.5290	14.0560
 1.5300	14.1340
 1.5310	14.2130
 1.5320	14.2900
 1.5330	14.3680
 1.5340	14.4460
 1.5350	14.5220
 1.5360	14.5980
 1.5370	14.6730
 1.5380	14.7470
 1.5390	14.8210
 1.5400	14.8940
 1.5410	14.9670
 1.5420	15.0400
 1.5430	15.1120
 1.5440	15.1840
 1.5450	15.2550
 1.5460	15.3250
 1.5470	15.3960
 1.5480	15.4650
 1.5490	15.5340
 1.5500	15.6030
 1.5510	15.6700
 1.5520	15.7380
 1.5530	15.8050
 1.5540	15.8710
 1.5550	15.9380
 1.5560	16.0030
 1.5570	16.0690
 1.5580	16.1340
 1.5590	16.1970
 1.5600	16.2600
 1.5610	16.3200
 1.5620	16.3800
 1.5630	16.4420
 1.5640	16.5020
 1.5650	16.5630
 1.5660	16.6220
 1.5670	16.6810
 1.5680	16.7390
 1.5690	16.7960
 1.5700	16.8530
 1.5710	16.9110
 1.5720	16.9680
 1.5730	17.0250
 1.5740	17.0810
 1.5750	17.1380
 1.5760	17.1930
 1.5770	17.2470
 1.5780	17.3010
 1.5790	17.3540
 1.5800	17.4080
 1.5810	17.4620
 1.5820	17.5160
 1.5830	17.5700
 1.5840	17.6230
 1.5850	17.6740
 1.5860	17.7260
 1.5870	17.7780
 1.5880	17.8290
 1.5890	17.8790
 1.5900	17.9310
 1.5910	17.9820
 1.5920	18.0330
 1.5930	18.0830
 1.5940	18.1330
 1.5950	18.1820
 1.5960	18.2310
 1.5970	18.2810
 1.5980	18.3300
 1.5990	18.3780
 1.6000	18.4260
 1.6010	18.4730
 1.6020	18.5190
 1.6030	18.5660
 1.6040	18.6110
 1.6050	18.6560
 1.6060	18.7000
 1.6070	18.7420
 1.6080	18.7850
 1.6090	18.8270
 1.6100	18.8680
 1.6110	18.9100
 1.6120	18.9510
 1.6130	18.9920
 1.6140	19.0320
 1.6150	19.0700
 1.6160	19.1070
 1.6170	19.1450
 1.6180	19.1820
 1.6190	19.2190
 1.6200	19.2530
 1.6210	19.2880
 1.6220	19.3210
 1.6230	19.3530
 1.6240	19.3850
 1.6250	19.4160
 1.6260	19.4450
 1.6270	19.4740
 1.6280	19.5000
 1.6290	19.5270
 1.6300	19.5520
 1.6310	19.5780
 1.6320	19.6050
 1.6330	19.6310
 1.6340	19.6570
 1.6350	19.6830
 1.6360	19.7080
 1.6370	19.7320
 1.6380	19.7560
 1.6390	19.7790
 1.6400	19.8030
 1.6410	19.8260
 1.6420	19.8490
 1.6430	19.8700
 1.6440	19.8910
 1.6450	19.9090
 1.6460	19.9260
 1.6470	19.9390
 1.6480	19.9500
 1.6490	19.9610
 1.6500	19.9680
 1.6510	19.9760
 1.6520	19.9830
 1.6530	19.9860
 1.6540	19.9880
 1.6550	19.9890
 1.6560	19.9850
 1.6570	19.9820
 1.6580	19.9790
 1.6590	19.9720
 1.6600	19.9680
 1.6610	19.9620
 1.6620	19.9530
 1.6630	19.9430
 1.6640	19.9320
 1.6650	19.9170
 1.6660	19.9030
 1.6670	19.8900
 1.6680	19.8740
 1.6690	19.8560
 1.6700	19.8360
 1.6710	19.8110
 1.6720	19.7840
 1.6730	19.7550
 1.6740	19.7230
 1.6750	19.6880
 1.6760	19.6520
 1.6770	19.6130
 1.6780	19.5700
 1.6790	19.5250
 1.6800	19.4770
 1.6810	19.4280
 1.6820	19.3780
 1.6830	19.3270
 1.6840	19.2740
 1.6850	19.2200
 1.6860	19.1660
 1.6870	19.1130
 1.6880	19.0590
 1.6890	19.0050
 1.6900	18.9520
 1.6910	18.8980
 1.6920	18.8440
 1.6930	18.7890
 1.6940	18.7380
 1.6950	18.6880
 1.6960	18.6400
 1.6970	18.5960
 1.6980	18.5510
 1.6990	18.5070
 1.7000	18.4630
 1.7010	18.4200
 1.7020	18.3790
 1.7030	18.3390
 1.7040	18.3010
 1.7050	18.2650
 1.7060	18.2290
 1.7070	18.1920
 1.7080	18.1570
 1.7090	18.1220
 1.7100	18.0880
 1.7110	18.0550
 1.7120	18.0230
 1.7130	17.9910
 1.7140	17.9610
 1.7150	17.9310
 1.7160	17.9000
 1.7170	17.8710
 1.7180	17.8430
 1.7190	17.8150
 1.7200	17.7880
 1.7210	17.7590
 1.7220	17.7280
 1.7230	17.6990
 1.7240	17.6680
 1.7250	17.6360
 1.7260	17.6050
 1.7270	17.5750
 1.7280	17.5480
 1.7290	17.5210
 1.7300	17.4980
 1.7310	17.4740
 1.7320	17.4510
 1.7330	17.4300
 1.7340	17.4100
 1.7350	17.3900
 1.7360	17.3710
 1.7370	17.3490
 1.7380	17.3260
 1.7390	17.3000
 1.7400	17.2710
 1.7410	17.2410
 1.7420	17.2090
 1.7430	17.1750
 1.7440	17.1390
 1.7450	17.1030
 1.7460	17.0630
 1.7470	17.0250
 1.7480	16.9880
 1.7490	16.9490
 1.7500	16.9090
 1.7510	16.8700
 1.7520	16.8310
 1.7530	16.7940
 1.7540	16.7580
 1.7550	16.7240
 1.7560	16.6900
 1.7570	16.6580
 1.7580	16.6280
 1.7590	16.5980
 1.7600	16.5680
 1.7610	16.5420
 1.7620	16.5160
 1.7630	16.4910
 1.7640	16.4670
 1.7650	16.4420
 1.7660	16.4190
 1.7670	16.3990
 1.7680	16.3810
 1.7690	16.3660
 1.7700	16.3500
 1.7710	16.3340
 1.7720	16.3180
 1.7730	16.3000
 1.7740	16.2850
 1.7750	16.2690
 1.7760	16.2550
 1.7770	16.2410
 1.7780	16.2270
 1.7790	16.2140
 1.7800	16.2010
 1.7810	16.1900
 1.7820	16.1800
 1.7830	16.1720
 1.7840	16.1660
 1.7850	16.1600
 1.7860	16.1570
 1.7870	16.1560
 1.7880	16.1530
 1.7890	16.1530
 1.7900	16.1530
 1.7910	16.1540
 1.7920	16.1580
 1.7930	16.1610
 1.7940	16.1630
 1.7950	16.1670
 1.7960	16.1710
 1.7970	16.1770
 1.7980	16.1870
 1.7990	16.1950
 1.8000	16.2060
 1.8010	16.2150
 1.8020	16.2220
 1.8030	16.2300
 1.8040	16.2370
 1.8050	16.2460
 1.8060	16.2570
 1.8070	16.2670
 1.8080	16.2780
 1.8090	16.2880
 1.8100	16.2980
 1.8110	16.3090
 1.8120	16.3160
 1.8130	16.3220
 1.8140	16.3270
 1.8150	16.3330
 1.8160	16.3390
 1.8170	16.3440
 1.8180	16.3490
 1.8190	16.3530
 1.8200	16.3570
 1.8210	16.3610
 1.8220	16.3640
 1.8230	16.3650
 1.8240	16.3650
 1.8250	16.3650
 1.8260	16.3620
 1.8270	16.3540
 1.8280	16.3490
 1.8290	16.3430
 1.8300	16.3360
 1.8310	16.8830
 1.8320	16.8660
 1.8330	16.8450
 1.8340	16.8230
 1.8350	16.7940
 1.8360	16.7630
 1.8370	16.7320
 1.8380	16.6990
 1.8390	16.6630
 1.8400	16.6300
 1.8410	16.5860
 1.8420	16.5380
 1.8430	16.4820
 1.8440	16.4180
 1.8450	16.3480
 1.8460	16.2760
 1.8470	16.2030
 1.8480	16.1240
 1.8490	16.0370
 1.8500	15.9380
 1.8510	15.8290
 1.8520	15.7080
 1.8530	15.5810
 1.8540	15.4470
 1.8550	15.3060
 1.8560	15.1580
 1.8570	14.9980
 1.8580	14.8250
 1.8590	14.6460
 1.8600	14.4570
 1.8610	14.2610
 1.8620	14.0540
 1.8630	13.8340
 1.8640	13.6030
 1.8650	13.3580
 1.8660	13.0970
 1.8670	12.8250
 1.8680	12.5430
 1.8690	12.2510
 1.8700	11.9490
 1.8710	11.6370
 1.8720	11.3210
 1.8730	10.9980
 1.8740	10.6680
 1.8750	10.3360
 1.8760	 9.9960
 1.8770	 9.6570
 1.8780	 9.3240
 1.8790	 8.9900
 1.8800	 8.6640
 1.8810	 8.3450
 1.8820	 8.0270
 1.8830	 7.7080
 1.8840	 7.4000
 1.8850	 7.0960
 1.8860	 6.8000
 1.8870	 6.5190
 1.8880	 6.2450
 1.8890	 5.9870
 1.8900	 5.7420
 1.8910	 5.5100
 1.8920	 5.2900
 1.8930	 5.0850
 1.8940	 4.8930
 1.8950	 4.7170
 1.8960	 4.5550
 1.8970	 4.4040
 1.8980	 4.2660
 1.8990	 4.1370
 1.9000	 4.0200
 1.9010	 3.9150
 1.9020	 3.8170
 1.9030	 3.7310
 1.9040	 3.6530
 1.9050	 3.5810
 1.9060	 3.5190
 1.9070	 3.4660
 1.9080	 3.4170
 1.9090	 3.3710
 1.9100	 3.3300
 1.9110	 3.2940
 1.9120	 3.2620
 1.9130	 3.2330
 1.9140	 3.2100
 1.9150	 3.1900
 1.9160	 3.1670
 1.9170	 3.1460
 1.9180	 3.1280
 1.9190	 3.1120
 1.9200	 3.1000
 1.9210	 3.0900
 1.9220	 3.0800
 1.9230	 3.0720
 1.9240	 3.0640
 1.9250	 3.0560
 1.9260	 3.0490
 1.9270	 3.0450
 1.9280	 3.0440
 1.9290	 3.0450
 1.9300	 3.0480
 1.9310	 3.0490
 1.9320	 3.0510
 1.9330	 3.0530
 1.9340	 3.0580
 1.9350	 3.0610
 1.9360	 3.0630
 1.9370	 3.0680
 1.9380	 3.0730
 1.9390	 3.0780
 1.9400	 3.0860
 1.9410	 3.0950
 1.9420	 3.1030
 1.9430	 3.1110
 1.9440	 3.1220
 1.9450	 3.1350
 1.9460	 3.1470
 1.9470	 3.1610
 1.9480	 3.1750
 1.9490	 3.1890
 1.9500	 3.2030
 1.9510	 3.2170
 1.9520	 3.2320
 1.9530	 3.2470
 1.9540	 3.2640
 1.9550	 3.2810
 1.9560	 3.2990
 1.9570	 3.3170
 1.9580	 3.3340
 1.9590	 3.3530
 1.9600	 3.3720
 1.9610	 3.3920
 1.9620	 3.4140
 1.9630	 3.4350
 1.9640	 3.4530
 1.9650	 3.4720
 1.9660	 3.4910
 1.9670	 3.5110
 1.9680	 3.5330
 1.9690	 3.5600
 1.9700	 3.5850
 1.9710	 3.6090
 1.9720	 3.6330
 1.9730	 3.6590
 1.9740	 3.6830
 1.9750	 3.7070
 1.9760	 3.7320
 1.9770	 3.7570
 1.9780	 3.7800
 1.9790	 3.8070
 1.9800	 3.8370
 1.9810	 3.8650
 1.9820	 3.8950
 1.9830	 3.9230
 1.9840	 3.9470
 1.9850	 3.9770
 1.9860	 4.0080
 1.9870	 4.0410
 1.9880	 4.0750
 1.9890	 4.1090
 1.9900	 4.1410
 1.9910	 4.1700
 1.9920	 4.2000
 1.9930	 4.2290
 1.9940	 4.2600
 1.9950	 4.2920
 1.9960	 4.3250
 1.9970	 4.3590
 1.9980	 4.3920
 1.9990	 4.4270
 2.0000	 4.4570
 2.0010	 4.4890
 2.0020	 4.5230
 2.0030	 4.5550
 2.0040	 4.5880
 2.0050	 4.6220
 2.0060	 4.6570
 2.0070	 4.6910
 2.0080	 4.7230
 2.0090	 4.7580
 2.0100	 4.7940
 2.0110	 4.8280
 2.0120	 4.8600
 2.0130	 4.8950
 2.0140	 4.9280
 2.0150	 4.9610
 2.0160	 5.0000
 2.0170	 5.0390
 2.0180	 5.0740
 2.0190	 5.1090
 2.0200	 5.1420
 2.0210	 5.1710
 2.0220	 5.2020
 2.0230	 5.2360
 2.0240	 5.2670
 2.0250	 5.2980
 2.0260	 5.3280
 2.0270	 5.3540
 2.0280	 5.3830
 2.0290	 5.4130
 2.0300	 5.4450
 2.0310	 5.4780
 2.0320	 5.5160
 2.0330	 5.5470
 2.0340	 5.5760
 2.0350	 5.6050
 2.0360	 5.6300
 2.0370	 5.6570
 2.0380	 5.6840
 2.0390	 5.7110
 2.0400	 5.7380
 2.0410	 5.7650
 2.0420	 5.7910
 2.0430	 5.8190
 2.0440	 5.8450
 2.0450	 5.8730
 2.0460	 5.8990
 2.0470	 5.9250
 2.0480	 5.9490
 2.0490	 5.9700
 2.0500	 5.9940
 2.0510	 6.0190
 2.0520	 6.0450
 2.0530	 6.0760
 2.0540	 6.1030
 2.0550	 6.1280
 2.0560	 6.1540
 2.0570	 6.1780
 2.0580	 6.2020
 2.0590	 6.2270
 2.0600	 6.2520
 2.0610	 6.2780
 2.0620	 6.3050
 2.0630	 6.3320
 2.0640	 6.3600
 2.0650	 6.3870
 2.0660	 6.4130
 2.0670	 6.4410
 2.0680	 6.4690
 2.0690	 6.4960
 2.0700	 6.5230
 2.0710	 6.5490
 2.0720	 6.5730
 2.0730	 6.6010
 2.0740	 6.6270
 2.0750	 6.6530
 2.0760	 6.6800
 2.0770	 6.7080
 2.0780	 6.7350
 2.0790	 6.7630
 2.0800	 6.7920
 2.0810	 6.8210
 2.0820	 6.8500
 2.0830	 6.8800
 2.0840	 6.9100
 2.0850	 6.9410
 2.0860	 6.9700
 2.0870	 6.9990
 2.0880	 7.0280
 2.0890	 7.0540
 2.0900	 7.0770
 2.0910	 7.1010
 2.0920	 7.1220
 2.0930	 7.1480
 2.0940	 7.1760
 2.0950	 7.2030
 2.0960	 7.2340
 2.0970	 7.2620
 2.0980	 7.2880
 2.0990	 7.3140
 2.1000	 7.3390
 2.1010	 7.3650
 2.1020	 7.3900
 2.1030	 7.4170
 2.1040	 7.4450
 2.1050	 7.4700
 2.1060	 7.4970
 2.1070	 7.5240
 2.1080	 7.5500
 2.1090	 7.5750
 2.1100	 7.6010
 2.1110	 7.6270
 2.1120	 7.6530
 2.1130	 7.6780
 2.1140	 7.7030
 2.1150	 7.7260
 2.1160	 7.7500
 2.1170	 7.7730
 2.1180	 7.7980
 2.1190	 7.8240
 2.1200	 7.8490
 2.1210	 7.8730
 2.1220	 7.8980
 2.1230	 7.9230
 2.1240	 7.9460
 2.1250	 7.9710
 2.1260	 7.9960
 2.1270	 8.0190
 2.1280	 8.0400
 2.1290	 8.0620
 2.1300	 8.0850
 2.1310	 8.1060
 2.1320	 8.1300
 2.1330	 8.1500
 2.1340	 8.1630
 2.1350	 8.1820
 2.1360	 8.2030
 2.1370	 8.2230
 2.1380	 8.2490
 2.1390	 8.2710
 2.1400	 8.2890
 2.1410	 8.3060
 2.1420	 8.3280
 2.1430	 8.3510
 2.1440	 8.3720
 2.1450	 8.3980
 2.1460	 8.4170
 2.1470	 8.4320
 2.1480	 8.4480
 2.1490	 8.4620
 2.1500	 8.4770
 2.1510	 8.4910
 2.1520	 8.5080
 2.1530	 8.5280
 2.1540	 8.5470
 2.1550	 8.5690
 2.1560	 8.5890
 2.1570	 8.6090
 2.1580	 8.6260
 2.1590	 8.6400
 2.1600	 8.6520
 2.1610	 8.6640
 2.1620	 8.6770
 2.1630	 8.6910
 2.1640	 8.7100
 2.1650	 8.7240
 2.1660	 8.7360
 2.1670	 8.7490
 2.1680	 8.7610
 2.1690	 8.7750
 2.1700	 8.7920
 2.1710	 8.8060
 2.1720	 8.8190
 2.1730	 8.8340
 2.1740	 8.8470
 2.1750	 8.8620
 2.1760	 8.8810
 2.1770	 8.8960
 2.1780	 8.9100
 2.1790	 8.9240
 2.1800	 8.9320
 2.1810	 8.9450
 2.1820	 8.9600
 2.1830	 8.9760
 2.1840	 8.9920
 2.1850	 9.0110
 2.1860	 9.0260
 2.1870	 9.0370
 2.1880	 9.0530
 2.1890	 9.0710
 2.1900	 9.0880
 2.1910	 9.1100
 2.1920	 9.1260
 2.1930	 9.1370
 2.1940	 9.1500
 2.1950	 9.1600
 2.1960	 9.1730
 2.1970	 9.1890
 2.1980	 9.2020
 2.1990	 9.2150
 2.2000	 9.2270
 2.2010	 9.2360
 2.2020	 9.2450
 2.2030	 9.2540
 2.2040	 9.2630
 2.2050	 9.2740
 2.2060	 9.2860
 2.2070	 9.2950
 2.2080	 9.3040
 2.2090	 9.3120
 2.2100	 9.3180
 2.2110	 9.3220
 2.2120	 9.3260
 2.2130	 9.3250
 2.2140	 9.3170
 2.2150	 9.3150
 2.2160	 9.3130
 2.2170	 9.3120
 2.2180	 9.3160
 2.2190	 9.3150
 2.2200	 9.3100
 2.2210	 9.3050
 2.2220	 9.2990
 2.2230	 9.2900
 2.2240	 9.2830
 2.2250	 9.2700
 2.2260	 9.2500
 2.2270	 9.2330
 2.2280	 9.2180
 2.2290	 9.1980
 2.2300	 9.1810
 2.2310	 9.1580
 2.2320	 9.1250
 2.2330	 9.0910
 2.2340	 9.0580
 2.2350	 9.0210
 2.2360	 8.9830
 2.2370	 8.9480
 2.2380	 8.9070
 2.2390	 8.8620
 2.2400	 8.8180
 2.2410	 8.7750
 2.2420	 8.7280
 2.2430	 8.6790
 2.2440	 8.6270
 2.2450	 8.5710
 2.2460	 8.5170
 2.2470	 8.4610
 2.2480	 8.4080
 2.2490	 8.3590
 2.2500	 8.3050
 2.2510	 8.2520
 2.2520	 8.1980
 2.2530	 8.1360
 2.2540	 8.0800
 2.2550	 8.0260
 2.2560	 7.9720
 2.2570	 7.9210
 2.2580	 7.8680
 2.2590	 7.8120
 2.2600	 7.7600
 2.2610	 7.7080
 2.2620	 7.6590
 2.2630	 7.6170
 2.2640	 7.5770
 2.2650	 7.5360
 2.2660	 7.4950
 2.2670	 7.4540
 2.2680	 7.4090
 2.2690	 7.3710
 2.2700	 7.3350
 2.2710	 7.3010
 2.2720	 7.2720
 2.2730	 7.2400
 2.2740	 7.2090
 2.2750	 7.1810
 2.2760	 7.1550
 2.2770	 7.1280
 2.2780	 7.1030
 2.2790	 7.0760
 2.2800	 7.0440
 2.2810	 7.0190
 2.2820	 7.0000
 2.2830	 6.9750
 2.2840	 6.9530
 2.2850	 6.9280
 2.2860	 6.8990
 2.2870	 6.8720
 2.2880	 6.8460
 2.2890	 6.8200
 2.2900	 6.7940
 2.2910	 6.7670
 2.2920	 6.7400
 2.2930	 6.7130
 2.2940	 6.6860
 2.2950	 6.6550
 2.2960	 6.6220
 2.2970	 6.5880
 2.2980	 6.5510
 2.2990	 6.5150
 2.3000	 6.4830
 2.3010	 6.4520
 2.3020	 6.4200
 2.3030	 6.3910
 2.3040	 6.3620
 2.3050	 6.3360
 2.3060	 6.3120
 2.3070	 6.2870
 2.3080	 6.2630
 2.3090	 6.2430
 2.3100	 6.2300
 2.3110	 6.2230
 2.3120	 6.2160
 2.3130	 6.2170
 2.3140	 6.2100
 2.3150	 6.1980
 2.3160	 6.1930
 2.3170	 6.1900
 2.3180	 6.1860
 2.3190	 6.1870
 2.3200	 6.1850
 2.3210	 6.1790
 2.3220	 6.1730
 2.3230	 6.1670
 2.3240	 6.1560
 2.3250	 6.1400
 2.3260	 6.1290
 2.3270	 6.1200
 2.3280	 6.1050
 2.3290	 6.0890
 2.3300	 6.0720
 2.3310	 6.0450
 2.3320	 6.0230
 2.3330	 6.0030
 2.3340	 5.9810
 2.3350	 5.9560
 2.3360	 5.9360
 2.3370	 5.9200
 2.3380	 5.8990
 2.3390	 5.8760
 2.3400	 5.8560
 2.3410	 5.8330
 2.3420	 5.8110
 2.3430	 5.7950
 2.3440	 5.7740
 2.3450	 5.7500
 2.3460	 5.7260
 2.3470	 5.6970
 2.3480	 5.6770
 2.3490	 5.6650
 2.3500	 5.6490
 2.3510	 5.6330
 2.3520	 5.6200
 2.3530	 5.6070
 2.3540	 5.5890
 2.3550	 5.5850
 2.3560	 5.5760
 2.3570	 5.5580
 2.3580	 5.5430
 2.3590	 5.5270
 2.3600	 5.5080
 2.3610	 5.4900
 2.3620	 5.4690
 2.3630	 5.4410
 2.3640	 5.4210
 2.3650	 5.4180
 2.3660	 5.4080
 2.3670	 5.3950
 2.3680	 5.3860
 2.3690	 5.3650
 2.3700	 5.3440
 2.3710	 5.3270
 2.3720	 5.3110
 2.3730	 5.2970
 2.3740	 5.2820
 2.3750	 5.2720
 2.3760	 5.2650
 2.3770	 5.2510
 2.3780	 5.2370
 2.3790	 5.2220
 2.3800	 5.1930
 2.3810	 5.1590
 2.3820	 5.1300
 2.3830	 5.1090
 2.3840	 5.0910
 2.3850	 5.0760
 2.3860	 5.0610
 2.3870	 5.0380
 2.3880	 5.0150
 2.3890	 4.9920
 2.3900	 4.9760
 2.3910	 4.9580
 2.3920	 4.9360
 2.3930	 4.9210
 2.3940	 4.9060
 2.3950	 4.8870
 2.3960	 4.8710
 2.3970	 4.8500
 2.3980	 4.8120
 2.3990	 4.7790
 2.4000	 4.7590
 2.4010	 4.7390
 2.4020	 4.7280
 2.4030	 4.7150
 2.4040	 4.6880
 2.4050	 4.6670
 2.4060	 4.6470
 2.4070	 4.6170
 2.4080	 4.5950
 2.4090	 4.5760
 2.4100	 4.5610
 2.4110	 4.5730
 2.4120	 4.5780
 2.4130	 4.5670
 2.4140	 4.5440
 2.4150	 4.5000
 2.4160	 4.4690
 2.4170	 4.4440
 2.4180	 4.4230
 2.4190	 4.4080
 2.4200	 4.3890
 2.4210	 4.3730
 2.4220	 4.3580
 2.4230	 4.3390
 2.4240	 4.3230
 2.4250	 4.2950
 2.4260	 4.2560
 2.4270	 4.2220
 2.4280	 4.1950
 2.4290	 4.1760
 2.4300	 4.1670
 2.4310	 4.1450
 2.4320	 4.1120
 2.4330	 4.0820
 2.4340	 4.0520
 2.4350	 4.0350
 2.4360	 4.0210
 2.4370	 4.0150
 2.4380	 4.0090
 2.4390	 3.9910
 2.4400	 3.9780
 2.4410	 3.9560
 2.4420	 3.9340
 2.4430	 3.9230
 2.4440	 3.9030
 2.4450	 3.8850
 2.4460	 3.8660
 2.4470	 3.8450
 2.4480	 3.8340
 2.4490	 3.8200
 2.4500	 3.8040
 2.4510	 3.7910
 2.4520	 3.7940
 2.4530	 3.7870
 2.4540	 3.7510
 2.4550	 3.7280
 2.4560	 3.6990
 2.4570	 3.6830
 2.4580	 3.6870
 2.4590	 3.6770
 2.4600	 3.6620
 2.4610	 3.6280
 2.4620	 3.6050
 2.4630	 3.6010
 2.4640	 3.5750
 2.4650	 3.5420
 2.4660	 3.5280
 2.4670	 3.5050
 2.4680	 3.4900
 2.4690	 3.5010
 2.4700	 3.5000
 2.4710	 3.4960
 2.4720	 3.4870
 2.4730	 3.4810
 2.4740	 3.4620
 2.4750	 3.4250
 2.4760	 3.4060
 2.4770	 3.3850
 2.4780	 3.3800
 2.4790	 3.3920
 2.4800	 3.3890
 2.4810	 3.3970
 2.4820	 3.3930
 2.4830	 3.3840
 2.4840	 3.3780
 2.4850	 3.3490
 2.4860	 3.3160
 2.4870	 3.2780
 2.4880	 3.2540
 2.4890	 3.2460
 2.4900	 3.2540
 2.4910	 3.2480
 2.4920	 3.2730
 2.4930	 3.3050
 2.4940	 3.3050
 2.4950	 3.3240
 2.4960	 3.3030
 2.4970	 3.2600
 2.4980	 3.2450
 2.4990	 3.2780
 2.5000	 3.3250
