Name: Baccharis pilularis 2
Type: vegetation
Class: Shrub
Genus: Baccharis
Species: pilularis
Sample No.: VH045
Owner: UCSB
Wavelength Range: TIR
Origin: 34.5084; -119.7683; WGS84
Collection Date: 4/1/2013
Description: Samples were collected as part of the HyspIRI Airborne Campaign. 48 individual plants were sampled in three times in 2013 - spring  summer  and fall. The name of the sample includes a 1  2  or 3 which references a different individual of the species. Samples were taken to JPL and processed within 48 hours of collection. The same leaves were processed in the Nicolet and then measured using the ASD.
Measurement: Hemispherical reflectance
First Column: X
Second Column: Y
X Units: Wavelength (micrometers)
Y Units: Reflectance (percentage)
First X Value: 2.501
Last X Value: 15.387
Number of X Values: 1737
Additional Information: vegetation.shrub.baccharis.pilularis.tir.vh045.ucsb.nicolet.ancillary.txt

 2.5010	 5.1140
 2.5030	 5.2160
 2.5040	 5.3490
 2.5050	 5.2450
 2.5060	 5.1930
 2.5070	 5.1120
 2.5090	 5.1070
 2.5100	 5.1230
 2.5110	 5.2160
 2.5120	 5.1930
 2.5140	 5.1320
 2.5150	 5.0830
 2.5160	 5.0920
 2.5170	 5.0460
 2.5180	 5.0900
 2.5200	 5.0570
 2.5210	 5.1160
 2.5220	 5.1660
 2.5230	 5.2320
 2.5250	 5.2100
 2.5260	 5.1680
 2.5270	 5.1970
 2.5280	 5.1820
 2.5290	 5.0700
 2.5310	 5.1860
 2.5320	 5.1460
 2.5330	 5.0800
 2.5340	 5.1150
 2.5360	 5.0430
 2.5370	 4.9780
 2.5380	 5.1930
 2.5390	 5.2520
 2.5410	 5.1720
 2.5420	 5.0710
 2.5430	 5.2030
 2.5440	 5.2050
 2.5460	 5.1270
 2.5470	 5.0530
 2.5480	 5.1220
 2.5490	 5.1460
 2.5510	 5.1880
 2.5520	 5.1240
 2.5530	 5.2180
 2.5540	 5.1960
 2.5560	 5.1400
 2.5570	 5.0530
 2.5580	 4.9980
 2.5590	 5.0330
 2.5610	 5.1300
 2.5620	 5.1250
 2.5630	 5.1870
 2.5640	 5.1910
 2.5660	 5.1510
 2.5670	 5.0660
 2.5680	 5.1470
 2.5700	 5.1010
 2.5710	 5.1140
 2.5720	 5.1800
 2.5730	 5.3290
 2.5750	 5.3580
 2.5760	 5.3300
 2.5770	 5.2170
 2.5790	 5.2160
 2.5800	 5.1120
 2.5810	 5.1010
 2.5820	 5.0540
 2.5840	 5.0700
 2.5850	 5.1120
 2.5860	 5.1450
 2.5880	 5.1810
 2.5890	 5.2150
 2.5900	 5.0800
 2.5910	 5.0740
 2.5930	 5.2250
 2.5940	 5.3000
 2.5950	 5.2140
 2.5970	 5.1460
 2.5980	 5.1450
 2.5990	 5.2570
 2.6000	 5.2830
 2.6020	 5.2170
 2.6030	 5.0390
 2.6040	 4.9770
 2.6060	 5.0420
 2.6070	 5.1780
 2.6080	 5.1740
 2.6100	 5.1000
 2.6110	 5.0950
 2.6120	 5.1390
 2.6140	 5.1510
 2.6150	 5.1360
 2.6160	 5.0800
 2.6180	 5.1870
 2.6190	 5.2250
 2.6200	 5.2650
 2.6220	 5.1910
 2.6230	 5.1760
 2.6240	 5.1930
 2.6260	 5.1480
 2.6270	 4.9910
 2.6280	 4.9450
 2.6300	 4.9860
 2.6310	 5.1360
 2.6320	 5.0650
 2.6340	 5.1350
 2.6350	 5.1710
 2.6360	 5.1000
 2.6380	 4.9660
 2.6390	 5.0150
 2.6400	 5.0100
 2.6420	 5.0770
 2.6430	 5.0690
 2.6440	 5.1130
 2.6460	 5.0440
 2.6470	 5.0530
 2.6480	 5.0640
 2.6500	 5.1240
 2.6510	 5.1370
 2.6520	 5.1220
 2.6540	 4.9810
 2.6550	 4.9570
 2.6560	 5.0190
 2.6580	 5.0540
 2.6590	 4.9850
 2.6610	 5.0320
 2.6620	 5.0520
 2.6630	 5.0890
 2.6650	 5.0290
 2.6660	 4.9800
 2.6670	 4.9820
 2.6690	 4.9900
 2.6700	 5.0820
 2.6720	 5.1350
 2.6730	 5.0710
 2.6740	 5.0960
 2.6760	 5.0620
 2.6770	 5.0280
 2.6780	 4.9040
 2.6800	 4.9770
 2.6810	 4.9870
 2.6830	 5.0160
 2.6840	 4.9000
 2.6850	 4.8810
 2.6870	 4.8830
 2.6880	 4.8590
 2.6900	 4.8250
 2.6910	 4.8990
 2.6920	 4.9620
 2.6940	 5.0140
 2.6950	 4.9550
 2.6970	 4.9400
 2.6980	 4.8610
 2.6990	 4.8190
 2.7010	 4.8210
 2.7020	 4.9430
 2.7040	 4.9040
 2.7050	 4.9210
 2.7060	 4.9070
 2.7080	 4.9430
 2.7090	 4.8890
 2.7110	 4.9150
 2.7120	 4.8720
 2.7130	 4.8600
 2.7150	 4.7250
 2.7160	 4.6870
 2.7180	 4.7000
 2.7190	 4.7850
 2.7210	 4.8650
 2.7220	 4.8990
 2.7230	 4.7860
 2.7250	 4.8190
 2.7260	 4.8630
 2.7280	 4.9100
 2.7290	 4.8420
 2.7310	 4.8810
 2.7320	 4.8250
 2.7330	 4.8710
 2.7350	 4.8550
 2.7360	 4.8150
 2.7380	 4.8010
 2.7390	 4.8690
 2.7410	 4.7480
 2.7420	 4.7750
 2.7440	 4.7900
 2.7450	 4.8650
 2.7470	 4.7910
 2.7480	 4.7390
 2.7490	 4.6120
 2.7510	 4.5970
 2.7520	 4.7620
 2.7540	 4.7410
 2.7550	 4.6190
 2.7570	 4.7930
 2.7580	 4.8850
 2.7600	 4.8610
 2.7610	 4.6180
 2.7630	 4.6490
 2.7640	 4.6530
 2.7660	 4.6100
 2.7670	 4.5930
 2.7680	 4.6330
 2.7700	 4.5760
 2.7710	 4.5940
 2.7730	 4.5770
 2.7740	 4.5550
 2.7760	 4.5370
 2.7770	 4.8030
 2.7790	 4.6810
 2.7800	 4.6700
 2.7820	 4.8260
 2.7830	 4.8670
 2.7850	 4.7090
 2.7860	 4.7850
 2.7880	 4.6940
 2.7890	 4.6190
 2.7910	 4.6620
 2.7920	 4.8160
 2.7940	 4.7530
 2.7950	 4.7460
 2.7970	 4.7490
 2.7980	 4.7150
 2.8000	 4.6500
 2.8010	 4.6770
 2.8030	 4.6090
 2.8040	 4.6270
 2.8060	 4.5960
 2.8070	 4.5830
 2.8090	 4.4770
 2.8110	 4.5370
 2.8120	 4.6280
 2.8140	 4.6590
 2.8150	 4.5940
 2.8170	 4.6260
 2.8180	 4.5750
 2.8200	 4.5940
 2.8210	 4.6200
 2.8230	 4.6570
 2.8240	 4.5570
 2.8260	 4.5980
 2.8270	 4.5920
 2.8290	 4.5900
 2.8300	 4.4910
 2.8320	 4.5060
 2.8340	 4.5630
 2.8350	 4.6220
 2.8370	 4.5370
 2.8380	 4.5570
 2.8400	 4.6050
 2.8410	 4.6830
 2.8430	 4.6410
 2.8440	 4.7230
 2.8460	 4.7140
 2.8480	 4.7200
 2.8490	 4.6410
 2.8510	 4.6480
 2.8520	 4.6080
 2.8540	 4.6860
 2.8550	 4.7050
 2.8570	 4.7430
 2.8590	 4.6690
 2.8600	 4.6420
 2.8620	 4.5720
 2.8630	 4.6750
 2.8650	 4.5700
 2.8660	 4.5950
 2.8680	 4.7040
 2.8700	 4.7790
 2.8710	 4.6840
 2.8730	 4.7840
 2.8740	 4.7620
 2.8760	 4.7000
 2.8780	 4.5790
 2.8790	 4.6150
 2.8810	 4.5860
 2.8820	 4.5140
 2.8840	 4.4450
 2.8860	 4.5960
 2.8870	 4.6770
 2.8890	 4.6860
 2.8900	 4.5850
 2.8920	 4.7090
 2.8940	 4.7290
 2.8950	 4.6270
 2.8970	 4.4660
 2.8980	 4.5010
 2.9000	 4.5180
 2.9020	 4.5590
 2.9030	 4.5170
 2.9050	 4.6380
 2.9070	 4.7040
 2.9080	 4.7600
 2.9100	 4.6820
 2.9120	 4.6750
 2.9130	 4.6960
 2.9150	 4.7610
 2.9160	 4.7380
 2.9180	 4.7430
 2.9200	 4.6980
 2.9210	 4.6210
 2.9230	 4.6030
 2.9250	 4.7800
 2.9260	 4.7040
 2.9280	 4.6540
 2.9300	 4.6400
 2.9310	 4.7250
 2.9330	 4.6720
 2.9350	 4.6820
 2.9360	 4.7400
 2.9380	 4.7430
 2.9400	 4.6150
 2.9410	 4.6800
 2.9430	 4.7400
 2.9450	 4.9050
 2.9460	 4.8390
 2.9480	 4.7920
 2.9500	 4.7020
 2.9510	 4.8840
 2.9530	 4.9890
 2.9550	 4.9680
 2.9560	 4.8190
 2.9580	 4.9400
 2.9600	 5.1490
 2.9610	 5.1330
 2.9630	 4.8960
 2.9650	 4.8540
 2.9660	 5.0950
 2.9680	 5.1950
 2.9700	 5.2230
 2.9720	 5.1800
 2.9730	 4.9790
 2.9750	 5.3190
 2.9770	 4.8980
 2.9780	 4.4920
 2.9800	 4.5020
 2.9820	 4.7800
 2.9840	 4.8420
 2.9850	 4.9730
 2.9870	 4.8150
 2.9890	 4.6070
 2.9900	 4.6580
 2.9920	 4.4810
 2.9940	 4.4550
 2.9960	 5.0690
 2.9970	 4.7960
 2.9990	 4.6310
 3.0010	 4.5880
 3.0030	 4.6400
 3.0040	 4.8430
 3.0060	 4.7880
 3.0080	 4.5830
 3.0100	 4.8230
 3.0110	 4.7900
 3.0130	 4.5300
 3.0150	 4.2230
 3.0170	 4.3970
 3.0180	 4.6430
 3.0200	 4.7310
 3.0220	 5.0310
 3.0240	 4.8730
 3.0250	 4.6610
 3.0270	 4.9380
 3.0290	 5.2750
 3.0310	 4.7190
 3.0320	 4.0380
 3.0340	 4.3220
 3.0360	 5.0450
 3.0380	 5.4940
 3.0400	 5.7070
 3.0410	 5.3190
 3.0430	 4.7820
 3.0450	 4.4740
 3.0470	 4.8510
 3.0480	 5.0030
 3.0500	 5.0180
 3.0520	 5.3940
 3.0540	 5.3190
 3.0560	 5.2820
 3.0570	 5.2930
 3.0590	 5.1130
 3.0610	 4.8810
 3.0630	 4.8380
 3.0650	 4.7840
 3.0660	 4.9270
 3.0680	 4.7930
 3.0700	 4.5870
 3.0720	 4.6300
 3.0740	 4.7820
 3.0760	 4.8140
 3.0770	 4.9300
 3.0790	 4.7560
 3.0810	 4.6720
 3.0830	 4.6200
 3.0850	 4.6810
 3.0870	 4.8270
 3.0880	 4.8330
 3.0900	 4.6450
 3.0920	 4.6640
 3.0940	 4.6510
 3.0960	 4.5340
 3.0980	 4.4300
 3.0990	 4.6880
 3.1010	 4.6460
 3.1030	 4.5190
 3.1050	 4.6050
 3.1070	 4.7940
 3.1090	 4.6560
 3.1110	 4.5880
 3.1120	 4.7670
 3.1140	 4.8490
 3.1160	 4.8130
 3.1180	 4.7310
 3.1200	 4.5960
 3.1220	 4.6820
 3.1240	 4.7710
 3.1260	 4.6240
 3.1270	 4.5250
 3.1290	 4.7760
 3.1310	 4.7210
 3.1330	 4.6300
 3.1350	 4.5660
 3.1370	 4.8520
 3.1390	 4.6970
 3.1410	 4.4740
 3.1430	 4.4730
 3.1450	 4.6470
 3.1460	 4.8200
 3.1480	 4.7770
 3.1500	 4.5490
 3.1520	 4.6370
 3.1540	 4.4950
 3.1560	 4.4870
 3.1580	 4.6610
 3.1600	 4.8350
 3.1620	 4.7240
 3.1640	 4.3580
 3.1660	 4.3650
 3.1680	 4.8280
 3.1700	 5.0850
 3.1710	 4.7050
 3.1730	 4.7500
 3.1750	 5.0510
 3.1770	 4.6970
 3.1790	 4.8160
 3.1810	 5.0730
 3.1830	 4.6770
 3.1850	 4.3530
 3.1870	 4.7160
 3.1890	 4.8230
 3.1910	 4.6710
 3.1930	 4.6530
 3.1950	 4.6610
 3.1970	 4.5680
 3.1990	 4.5880
 3.2010	 4.5850
 3.2030	 4.5720
 3.2050	 4.5920
 3.2070	 4.6140
 3.2090	 4.6960
 3.2110	 4.8170
 3.2130	 4.7260
 3.2150	 4.6430
 3.2170	 4.6150
 3.2190	 4.6920
 3.2210	 4.7370
 3.2230	 4.7390
 3.2250	 4.7120
 3.2270	 4.6770
 3.2290	 4.6560
 3.2310	 4.6650
 3.2330	 4.5560
 3.2350	 4.6120
 3.2370	 4.6910
 3.2390	 4.7070
 3.2410	 4.7210
 3.2430	 4.8080
 3.2450	 4.7050
 3.2470	 4.6670
 3.2490	 4.6250
 3.2510	 4.6380
 3.2530	 4.5640
 3.2550	 4.6060
 3.2570	 4.5430
 3.2590	 4.5810
 3.2610	 4.6120
 3.2630	 4.6280
 3.2650	 4.5720
 3.2670	 4.6370
 3.2690	 4.6340
 3.2720	 4.6420
 3.2740	 4.6430
 3.2760	 4.7040
 3.2780	 4.6860
 3.2800	 4.6300
 3.2820	 4.6070
 3.2840	 4.6360
 3.2860	 4.5280
 3.2880	 4.5170
 3.2900	 4.5140
 3.2920	 4.5290
 3.2940	 4.5250
 3.2960	 4.5830
 3.2990	 4.5290
 3.3010	 4.5690
 3.3030	 4.5180
 3.3050	 4.5180
 3.3070	 4.5120
 3.3090	 4.5200
 3.3110	 4.4800
 3.3130	 4.5200
 3.3150	 4.5610
 3.3180	 4.5080
 3.3200	 4.4200
 3.3220	 4.4340
 3.3240	 4.4120
 3.3260	 4.4100
 3.3280	 4.3840
 3.3300	 4.4450
 3.3330	 4.4720
 3.3350	 4.4360
 3.3370	 4.3740
 3.3390	 4.2870
 3.3410	 4.2130
 3.3430	 4.3350
 3.3450	 4.3620
 3.3480	 4.4160
 3.3500	 4.4020
 3.3520	 4.3840
 3.3540	 4.3260
 3.3560	 4.2850
 3.3580	 4.2610
 3.3610	 4.3280
 3.3630	 4.3290
 3.3650	 4.3240
 3.3670	 4.3660
 3.3690	 4.4260
 3.3720	 4.3220
 3.3740	 4.4210
 3.3760	 4.4850
 3.3780	 4.3820
 3.3800	 4.3360
 3.3830	 4.4850
 3.3850	 4.5860
 3.3870	 4.6450
 3.3890	 4.3910
 3.3910	 4.2820
 3.3940	 4.2830
 3.3960	 4.3130
 3.3980	 4.2880
 3.4000	 4.3430
 3.4020	 4.4220
 3.4050	 4.5440
 3.4070	 4.6210
 3.4090	 4.7460
 3.4110	 4.9140
 3.4140	 5.2050
 3.4160	 5.4440
 3.4180	 5.8760
 3.4200	 6.4010
 3.4230	 7.0150
 3.4250	 7.7930
 3.4270	 8.5510
 3.4290	 8.7940
 3.4320	 8.3910
 3.4340	 7.5110
 3.4360	 6.7290
 3.4390	 6.3290
 3.4410	 6.2170
 3.4430	 6.0290
 3.4450	 5.9390
 3.4480	 5.8500
 3.4500	 5.6660
 3.4520	 5.5040
 3.4550	 5.5400
 3.4570	 5.5470
 3.4590	 5.5920
 3.4620	 5.5130
 3.4640	 5.4540
 3.4660	 5.4050
 3.4680	 5.3050
 3.4710	 5.1630
 3.4730	 5.1770
 3.4750	 5.1320
 3.4780	 5.0670
 3.4800	 5.0060
 3.4820	 4.9930
 3.4850	 4.9340
 3.4870	 4.8960
 3.4890	 4.8480
 3.4920	 4.8580
 3.4940	 4.8620
 3.4970	 4.9190
 3.4990	 5.0040
 3.5010	 5.2220
 3.5040	 5.4820
 3.5060	 6.1270
 3.5080	 7.2990
 3.5110	 8.2260
 3.5130	 7.9570
 3.5160	 7.2050
 3.5180	 6.5180
 3.5200	 6.0750
 3.5230	 5.8920
 3.5250	 5.8110
 3.5270	 5.6210
 3.5300	 5.5010
 3.5320	 5.4000
 3.5350	 5.3710
 3.5370	 5.3220
 3.5400	 5.3030
 3.5420	 5.3300
 3.5440	 5.3280
 3.5470	 5.2480
 3.5490	 5.1990
 3.5520	 5.1080
 3.5540	 5.1570
 3.5570	 5.1150
 3.5590	 5.1520
 3.5610	 5.1900
 3.5640	 5.1700
 3.5660	 5.0490
 3.5690	 5.0590
 3.5710	 5.0480
 3.5740	 5.1320
 3.5760	 5.1100
 3.5790	 5.0920
 3.5810	 5.0680
 3.5840	 5.0010
 3.5860	 4.8800
 3.5890	 4.8390
 3.5910	 4.9850
 3.5930	 5.0510
 3.5960	 4.9270
 3.5980	 4.8490
 3.6010	 4.8960
 3.6030	 5.0980
 3.6060	 5.0720
 3.6080	 5.0010
 3.6110	 4.9840
 3.6140	 4.9940
 3.6160	 4.9270
 3.6190	 4.9510
 3.6210	 4.9570
 3.6240	 4.9330
 3.6260	 4.8770
 3.6290	 4.9410
 3.6310	 4.9290
 3.6340	 4.8960
 3.6360	 4.8750
 3.6390	 4.9320
 3.6410	 4.9320
 3.6440	 4.9740
 3.6470	 4.9990
 3.6490	 4.9860
 3.6520	 4.9290
 3.6540	 4.9680
 3.6570	 4.9720
 3.6590	 4.9390
 3.6620	 4.8600
 3.6650	 4.8710
 3.6670	 4.9270
 3.6700	 4.9610
 3.6720	 4.9020
 3.6750	 4.8840
 3.6780	 4.9080
 3.6800	 4.9300
 3.6830	 4.8650
 3.6850	 4.8710
 3.6880	 4.8540
 3.6910	 4.8900
 3.6930	 4.9020
 3.6960	 4.9630
 3.6990	 4.9460
 3.7010	 4.8650
 3.7040	 4.8340
 3.7060	 4.9480
 3.7090	 4.9030
 3.7120	 4.8760
 3.7140	 4.9410
 3.7170	 4.9420
 3.7200	 4.8890
 3.7220	 4.8570
 3.7250	 4.7730
 3.7280	 4.8090
 3.7300	 4.8560
 3.7330	 4.8750
 3.7360	 4.8410
 3.7390	 4.8820
 3.7410	 4.8950
 3.7440	 4.9200
 3.7470	 4.8730
 3.7490	 4.8680
 3.7520	 4.8090
 3.7550	 4.8210
 3.7580	 4.8150
 3.7600	 4.8320
 3.7630	 4.8230
 3.7660	 4.8130
 3.7680	 4.7730
 3.7710	 4.7820
 3.7740	 4.8190
 3.7770	 4.8740
 3.7790	 4.8130
 3.7820	 4.7990
 3.7850	 4.8770
 3.7880	 4.9460
 3.7900	 4.9010
 3.7930	 4.8750
 3.7960	 4.7860
 3.7990	 4.8070
 3.8020	 4.8590
 3.8040	 4.9410
 3.8070	 4.8880
 3.8100	 4.8430
 3.8130	 4.8740
 3.8160	 4.9070
 3.8180	 4.8870
 3.8210	 4.9100
 3.8240	 4.8790
 3.8270	 4.8630
 3.8300	 4.7910
 3.8330	 4.8260
 3.8350	 4.8420
 3.8380	 4.8310
 3.8410	 4.8160
 3.8440	 4.8880
 3.8470	 4.9510
 3.8500	 4.9310
 3.8520	 4.8430
 3.8550	 4.8810
 3.8580	 4.8740
 3.8610	 4.8430
 3.8640	 4.8400
 3.8670	 4.8030
 3.8700	 4.7170
 3.8730	 4.7690
 3.8750	 4.8140
 3.8780	 4.8290
 3.8810	 4.7300
 3.8840	 4.7370
 3.8870	 4.7660
 3.8900	 4.7710
 3.8930	 4.8110
 3.8960	 4.9390
 3.8990	 4.9170
 3.9020	 4.8590
 3.9050	 4.8470
 3.9080	 4.8480
 3.9110	 4.8250
 3.9140	 4.8140
 3.9160	 4.7890
 3.9190	 4.8210
 3.9220	 4.7860
 3.9250	 4.7650
 3.9280	 4.7920
 3.9310	 4.8410
 3.9340	 4.8780
 3.9370	 4.9000
 3.9400	 4.8420
 3.9430	 4.8570
 3.9460	 4.8670
 3.9490	 4.8630
 3.9520	 4.8640
 3.9550	 4.8810
 3.9580	 4.8230
 3.9610	 4.7860
 3.9640	 4.7970
 3.9670	 4.8520
 3.9700	 4.8300
 3.9730	 4.8180
 3.9770	 4.8270
 3.9800	 4.8700
 3.9830	 4.8600
 3.9860	 4.8870
 3.9890	 4.8920
 3.9920	 4.9050
 3.9950	 4.9220
 3.9980	 4.9670
 4.0010	 4.9080
 4.0040	 4.8270
 4.0070	 4.8000
 4.0100	 4.8270
 4.0130	 4.8580
 4.0170	 4.8690
 4.0200	 4.8660
 4.0230	 4.8860
 4.0260	 4.8440
 4.0290	 4.8210
 4.0320	 4.8700
 4.0350	 4.8850
 4.0380	 4.8710
 4.0420	 4.9160
 4.0450	 4.8750
 4.0480	 4.8140
 4.0510	 4.8100
 4.0540	 4.8010
 4.0570	 4.8050
 4.0610	 4.8350
 4.0640	 4.7890
 4.0670	 4.7830
 4.0700	 4.7490
 4.0730	 4.7570
 4.0770	 4.8200
 4.0800	 4.8800
 4.0830	 4.8360
 4.0860	 4.7980
 4.0890	 4.8780
 4.0930	 4.9700
 4.0960	 4.8810
 4.0990	 4.8770
 4.1020	 4.9120
 4.1060	 4.9470
 4.1090	 4.9150
 4.1120	 4.8960
 4.1150	 4.8840
 4.1190	 4.9000
 4.1220	 4.8500
 4.1250	 4.8440
 4.1280	 4.8630
 4.1320	 4.8990
 4.1350	 4.8620
 4.1380	 4.8310
 4.1420	 4.8340
 4.1450	 4.8330
 4.1480	 4.7820
 4.1520	 4.7810
 4.1550	 4.8490
 4.1580	 4.8400
 4.1620	 4.8110
 4.1650	 4.8880
 4.1680	 4.8880
 4.1720	 4.8470
 4.1750	 4.8250
 4.1780	 4.8170
 4.1820	 4.8210
 4.1850	 4.8280
 4.1890	 4.8040
 4.1920	 4.8100
 4.1950	 4.9090
 4.1990	 5.0210
 4.2020	 4.9990
 4.2060	 4.9970
 4.2090	 4.9810
 4.2120	 4.9910
 4.2160	 4.9420
 4.2190	 4.8910
 4.2230	 5.0420
 4.2260	 5.1030
 4.2300	 5.1200
 4.2330	 5.2110
 4.2360	 5.2100
 4.2400	 5.0140
 4.2430	 4.8320
 4.2470	 4.9430
 4.2500	 4.9390
 4.2540	 4.9410
 4.2570	 4.8920
 4.2610	 4.9130
 4.2640	 4.9120
 4.2680	 5.1480
 4.2710	 5.1370
 4.2750	 4.9190
 4.2780	 4.9700
 4.2820	 5.0740
 4.2850	 5.0040
 4.2890	 4.9150
 4.2930	 4.8060
 4.2960	 4.9040
 4.3000	 4.9390
 4.3030	 4.9190
 4.3070	 4.9420
 4.3100	 4.9470
 4.3140	 4.9850
 4.3180	 5.0020
 4.3210	 4.8890
 4.3250	 4.8240
 4.3280	 4.8290
 4.3320	 4.8280
 4.3360	 4.8670
 4.3390	 4.8810
 4.3430	 4.8320
 4.3470	 4.8550
 4.3500	 4.8560
 4.3540	 4.8490
 4.3570	 4.8290
 4.3610	 4.8670
 4.3650	 4.8640
 4.3680	 4.8260
 4.3720	 4.8000
 4.3760	 4.8150
 4.3800	 4.8300
 4.3830	 4.8560
 4.3870	 4.8400
 4.3910	 4.8460
 4.3940	 4.8010
 4.3980	 4.7390
 4.4020	 4.7290
 4.4060	 4.8130
 4.4090	 4.8270
 4.4130	 4.7960
 4.4170	 4.8080
 4.4210	 4.8600
 4.4240	 4.8340
 4.4280	 4.8210
 4.4320	 4.8780
 4.4360	 4.9040
 4.4400	 4.8530
 4.4430	 4.8230
 4.4470	 4.7660
 4.4510	 4.7680
 4.4550	 4.8240
 4.4590	 4.7950
 4.4620	 4.7630
 4.4660	 4.7880
 4.4700	 4.7700
 4.4740	 4.7480
 4.4780	 4.7540
 4.4820	 4.7700
 4.4860	 4.7800
 4.4900	 4.8100
 4.4930	 4.8000
 4.4970	 4.8070
 4.5010	 4.7740
 4.5050	 4.7420
 4.5090	 4.7830
 4.5130	 4.8160
 4.5170	 4.8390
 4.5210	 4.8080
 4.5250	 4.7480
 4.5290	 4.7470
 4.5330	 4.7580
 4.5370	 4.7140
 4.5410	 4.7460
 4.5450	 4.7610
 4.5490	 4.7220
 4.5530	 4.7280
 4.5570	 4.7180
 4.5610	 4.7510
 4.5650	 4.7290
 4.5690	 4.7120
 4.5730	 4.7620
 4.5770	 4.7600
 4.5810	 4.6840
 4.5850	 4.6800
 4.5890	 4.8040
 4.5930	 4.8040
 4.5970	 4.7610
 4.6010	 4.7510
 4.6050	 4.7280
 4.6090	 4.7080
 4.6130	 4.6630
 4.6170	 4.6550
 4.6220	 4.7340
 4.6260	 4.7540
 4.6300	 4.7290
 4.6340	 4.8090
 4.6380	 4.7820
 4.6420	 4.6940
 4.6460	 4.6930
 4.6510	 4.7170
 4.6550	 4.7470
 4.6590	 4.7020
 4.6630	 4.6890
 4.6670	 4.7130
 4.6720	 4.7150
 4.6760	 4.7340
 4.6800	 4.7970
 4.6840	 4.7920
 4.6880	 4.7580
 4.6930	 4.7420
 4.6970	 4.7720
 4.7010	 4.7710
 4.7050	 4.7740
 4.7100	 4.8130
 4.7140	 4.7610
 4.7180	 4.6960
 4.7230	 4.6830
 4.7270	 4.7080
 4.7310	 4.7380
 4.7360	 4.7680
 4.7400	 4.8130
 4.7440	 4.7540
 4.7490	 4.7110
 4.7530	 4.7220
 4.7570	 4.7220
 4.7620	 4.7240
 4.7660	 4.7440
 4.7700	 4.7650
 4.7750	 4.7460
 4.7790	 4.6850
 4.7840	 4.7140
 4.7880	 4.7550
 4.7920	 4.7560
 4.7970	 4.7310
 4.8010	 4.6680
 4.8060	 4.6490
 4.8100	 4.7100
 4.8150	 4.6910
 4.8190	 4.6640
 4.8240	 4.7120
 4.8280	 4.7390
 4.8330	 4.6960
 4.8370	 4.7350
 4.8420	 4.7400
 4.8460	 4.6890
 4.8510	 4.6700
 4.8550	 4.7070
 4.8600	 4.7250
 4.8640	 4.7480
 4.8690	 4.7230
 4.8730	 4.7410
 4.8780	 4.7280
 4.8830	 4.7130
 4.8870	 4.7150
 4.8920	 4.7010
 4.8960	 4.6900
 4.9010	 4.7060
 4.9060	 4.6880
 4.9100	 4.6940
 4.9150	 4.7490
 4.9200	 4.7560
 4.9240	 4.7480
 4.9290	 4.7510
 4.9340	 4.7390
 4.9380	 4.7470
 4.9430	 4.7890
 4.9480	 4.7920
 4.9530	 4.7380
 4.9570	 4.7210
 4.9620	 4.6840
 4.9670	 4.6990
 4.9720	 4.7400
 4.9760	 4.7130
 4.9810	 4.6550
 4.9860	 4.6340
 4.9910	 4.6720
 4.9960	 4.7360
 5.0000	 4.7800
 5.0050	 4.8030
 5.0100	 4.7460
 5.0150	 4.7630
 5.0200	 4.7310
 5.0250	 4.6970
 5.0290	 4.7040
 5.0340	 4.7360
 5.0390	 4.6980
 5.0440	 4.6840
 5.0490	 4.7100
 5.0540	 4.7470
 5.0590	 4.7470
 5.0640	 4.7710
 5.0690	 4.7580
 5.0740	 4.7560
 5.0790	 4.7820
 5.0840	 4.7560
 5.0890	 4.7370
 5.0940	 4.7330
 5.0990	 4.7350
 5.1040	 4.7030
 5.1090	 4.6150
 5.1140	 4.5980
 5.1190	 4.6410
 5.1240	 4.6740
 5.1290	 4.6880
 5.1340	 4.7260
 5.1390	 4.7440
 5.1440	 4.7230
 5.1490	 4.6530
 5.1540	 4.6970
 5.1600	 4.7730
 5.1650	 4.7630
 5.1700	 4.6930
 5.1750	 4.7120
 5.1800	 4.7100
 5.1850	 4.7310
 5.1910	 4.7240
 5.1960	 4.7470
 5.2010	 4.6840
 5.2060	 4.7220
 5.2110	 4.7650
 5.2170	 4.7240
 5.2220	 4.6620
 5.2270	 4.6940
 5.2320	 4.7190
 5.2380	 4.7390
 5.2430	 4.7430
 5.2480	 4.7340
 5.2540	 4.7190
 5.2590	 4.7320
 5.2640	 4.6930
 5.2700	 4.6850
 5.2750	 4.6640
 5.2800	 4.6770
 5.2860	 4.6960
 5.2910	 4.6420
 5.2970	 4.6170
 5.3020	 4.6740
 5.3070	 4.6870
 5.3130	 4.6790
 5.3180	 4.6780
 5.3240	 4.7190
 5.3290	 4.6760
 5.3350	 4.7180
 5.3400	 4.7350
 5.3460	 4.7210
 5.3510	 4.7210
 5.3570	 4.7510
 5.3620	 4.7060
 5.3680	 4.6080
 5.3730	 4.6210
 5.3790	 4.6830
 5.3850	 4.6300
 5.3900	 4.6350
 5.3960	 4.6180
 5.4010	 4.6430
 5.4070	 4.6330
 5.4130	 4.6120
 5.4180	 4.6050
 5.4240	 4.6720
 5.4300	 4.6500
 5.4350	 4.6270
 5.4410	 4.5900
 5.4470	 4.5610
 5.4530	 4.5240
 5.4580	 4.5600
 5.4640	 4.6000
 5.4700	 4.6380
 5.4760	 4.6000
 5.4810	 4.5500
 5.4870	 4.5050
 5.4930	 4.5040
 5.4990	 4.5300
 5.5050	 4.5170
 5.5110	 4.4510
 5.5160	 4.4840
 5.5220	 4.5030
 5.5280	 4.5160
 5.5340	 4.4780
 5.5400	 4.5010
 5.5460	 4.4900
 5.5520	 4.5440
 5.5580	 4.5330
 5.5640	 4.4430
 5.5700	 4.3860
 5.5760	 4.4610
 5.5820	 4.4510
 5.5880	 4.4400
 5.5940	 4.3870
 5.6000	 4.4210
 5.6060	 4.4150
 5.6120	 4.3970
 5.6180	 4.3460
 5.6240	 4.3560
 5.6300	 4.3580
 5.6360	 4.3570
 5.6420	 4.3400
 5.6490	 4.3180
 5.6550	 4.2470
 5.6610	 4.2630
 5.6670	 4.2720
 5.6730	 4.2770
 5.6800	 4.2230
 5.6860	 4.1770
 5.6920	 4.1150
 5.6980	 4.1310
 5.7040	 4.1520
 5.7110	 4.1590
 5.7170	 4.0510
 5.7230	 4.0200
 5.7300	 4.0000
 5.7360	 4.0200
 5.7420	 3.9980
 5.7490	 3.9760
 5.7550	 3.9670
 5.7620	 4.1070
 5.7680	 4.1410
 5.7740	 4.1920
 5.7810	 4.2910
 5.7870	 4.3460
 5.7940	 4.3210
 5.8000	 4.3790
 5.8070	 4.3850
 5.8130	 4.4220
 5.8200	 4.4640
 5.8260	 4.4950
 5.8330	 4.4630
 5.8390	 4.5280
 5.8460	 4.5720
 5.8530	 4.6610
 5.8590	 4.7260
 5.8660	 4.7350
 5.8720	 4.6990
 5.8790	 4.7760
 5.8860	 4.7290
 5.8920	 4.7350
 5.8990	 4.7300
 5.9060	 4.7740
 5.9130	 4.7830
 5.9190	 4.8610
 5.9260	 4.8950
 5.9330	 5.0130
 5.9400	 5.0530
 5.9470	 5.0970
 5.9530	 5.0800
 5.9600	 5.1460
 5.9670	 5.1520
 5.9740	 5.1660
 5.9810	 5.1030
 5.9880	 5.1440
 5.9950	 5.1590
 6.0020	 5.1430
 6.0090	 5.0800
 6.0160	 5.1120
 6.0230	 5.0460
 6.0300	 4.9860
 6.0370	 4.9870
 6.0440	 5.1470
 6.0510	 5.2250
 6.0580	 5.0740
 6.0650	 4.9460
 6.0720	 5.0330
 6.0790	 5.0080
 6.0860	 5.0340
 6.0930	 4.9990
 6.1000	 5.0470
 6.1080	 5.0330
 6.1150	 5.0340
 6.1220	 5.0440
 6.1290	 5.0570
 6.1370	 4.9550
 6.1440	 4.9700
 6.1510	 4.9990
 6.1580	 5.0150
 6.1660	 5.0000
 6.1730	 5.0420
 6.1800	 5.0060
 6.1880	 5.0290
 6.1950	 4.9560
 6.2030	 4.9980
 6.2100	 5.0340
 6.2170	 5.1080
 6.2250	 4.9850
 6.2320	 5.0000
 6.2400	 5.0070
 6.2470	 5.0140
 6.2550	 4.9170
 6.2630	 4.9600
 6.2700	 4.9160
 6.2780	 5.0120
 6.2850	 5.0820
 6.2930	 5.1180
 6.3010	 5.0580
 6.3080	 5.0360
 6.3160	 4.9680
 6.3240	 4.9690
 6.3310	 4.9070
 6.3390	 4.9280
 6.3470	 4.9120
 6.3550	 4.9290
 6.3620	 4.8630
 6.3700	 4.9130
 6.3780	 4.9180
 6.3860	 4.9710
 6.3940	 4.9130
 6.4020	 4.9520
 6.4100	 4.9500
 6.4180	 4.9620
 6.4260	 4.8460
 6.4330	 4.8330
 6.4410	 4.8010
 6.4490	 4.8500
 6.4580	 4.8210
 6.4660	 4.8520
 6.4740	 4.7730
 6.4820	 4.8200
 6.4900	 4.8230
 6.4980	 4.8050
 6.5060	 4.7350
 6.5140	 4.7860
 6.5230	 4.7880
 6.5310	 4.8030
 6.5390	 4.7580
 6.5470	 4.7610
 6.5550	 4.6810
 6.5640	 4.6910
 6.5720	 4.6800
 6.5800	 4.6860
 6.5890	 4.6190
 6.5970	 4.7290
 6.6060	 4.7370
 6.6140	 4.6930
 6.6220	 4.6430
 6.6310	 4.7100
 6.6390	 4.6880
 6.6480	 4.7100
 6.6560	 4.6250
 6.6650	 4.6700
 6.6740	 4.7150
 6.6820	 4.7400
 6.6910	 4.6410
 6.6990	 4.6080
 6.7080	 4.5160
 6.7170	 4.5100
 6.7260	 4.4170
 6.7340	 4.4460
 6.7430	 4.4580
 6.7520	 4.4590
 6.7610	 4.4170
 6.7690	 4.4020
 6.7780	 4.4860
 6.7870	 4.8020
 6.7960	 4.7240
 6.8050	 4.5450
 6.8140	 4.4750
 6.8230	 4.6100
 6.8320	 4.7670
 6.8410	 4.8890
 6.8500	 4.7360
 6.8590	 4.7160
 6.8680	 4.6890
 6.8770	 4.7210
 6.8860	 4.6780
 6.8950	 4.7140
 6.9050	 4.6850
 6.9140	 4.6940
 6.9230	 4.5810
 6.9320	 4.5800
 6.9420	 4.5530
 6.9510	 4.6430
 6.9600	 4.6660
 6.9700	 4.6950
 6.9790	 4.6530
 6.9880	 4.6960
 6.9980	 4.6340
 7.0070	 4.6390
 7.0170	 4.6180
 7.0260	 4.7530
 7.0360	 4.7170
 7.0450	 4.7260
 7.0550	 4.6470
 7.0650	 4.6470
 7.0740	 4.5790
 7.0840	 4.6500
 7.0940	 4.6800
 7.1030	 4.7540
 7.1130	 4.6980
 7.1230	 4.6790
 7.1330	 4.5900
 7.1420	 4.6420
 7.1520	 4.6010
 7.1620	 4.6600
 7.1720	 4.5850
 7.1820	 4.5400
 7.1920	 4.5050
 7.2020	 4.6470
 7.2120	 4.5640
 7.2220	 4.5430
 7.2320	 4.4960
 7.2420	 4.5300
 7.2520	 4.5370
 7.2620	 4.6330
 7.2730	 4.6260
 7.2830	 4.5950
 7.2930	 4.4940
 7.3030	 4.5690
 7.3140	 4.5720
 7.3240	 4.6520
 7.3340	 4.5320
 7.3450	 4.5010
 7.3550	 4.4180
 7.3660	 4.5270
 7.3760	 4.5450
 7.3870	 4.5890
 7.3970	 4.5440
 7.4080	 4.6190
 7.4180	 4.5610
 7.4290	 4.5620
 7.4400	 4.5360
 7.4500	 4.5640
 7.4610	 4.5340
 7.4720	 4.5950
 7.4830	 4.4580
 7.4930	 4.4820
 7.5040	 4.4450
 7.5150	 4.4380
 7.5260	 4.4300
 7.5370	 4.5100
 7.5480	 4.4500
 7.5590	 4.4770
 7.5700	 4.4670
 7.5810	 4.5810
 7.5920	 4.5030
 7.6030	 4.4450
 7.6140	 4.3240
 7.6260	 4.4150
 7.6370	 4.3600
 7.6480	 4.3740
 7.6590	 4.4130
 7.6710	 4.5330
 7.6820	 4.5120
 7.6930	 4.5460
 7.7050	 4.4320
 7.7160	 4.4800
 7.7280	 4.4880
 7.7390	 4.5040
 7.7510	 4.3470
 7.7630	 4.3560
 7.7740	 4.3440
 7.7860	 4.4460
 7.7980	 4.3610
 7.8090	 4.3740
 7.8210	 4.2820
 7.8330	 4.3450
 7.8450	 4.3810
 7.8570	 4.4740
 7.8690	 4.3790
 7.8810	 4.4720
 7.8930	 4.4680
 7.9050	 4.5240
 7.9170	 4.4670
 7.9290	 4.5060
 7.9410	 4.3600
 7.9530	 4.4000
 7.9650	 4.4650
 7.9780	 4.5420
 7.9900	 4.4130
 8.0020	 4.4800
 8.0150	 4.4930
 8.0270	 4.5990
 8.0390	 4.5070
 8.0520	 4.6440
 8.0640	 4.6220
 8.0770	 4.6210
 8.0900	 4.5760
 8.1020	 4.6960
 8.1150	 4.6450
 8.1280	 4.6750
 8.1400	 4.4980
 8.1530	 4.5290
 8.1660	 4.5270
 8.1790	 4.7360
 8.1920	 4.6290
 8.2050	 4.6080
 8.2180	 4.5680
 8.2310	 4.7650
 8.2440	 4.6950
 8.2570	 4.6820
 8.2700	 4.6530
 8.2830	 4.7840
 8.2970	 4.7030
 8.3100	 4.7690
 8.3230	 4.6340
 8.3370	 4.6460
 8.3500	 4.5670
 8.3640	 4.7140
 8.3770	 4.5670
 8.3910	 4.6220
 8.4040	 4.5750
 8.4180	 4.7250
 8.4320	 4.6650
 8.4450	 4.8130
 8.4590	 4.7710
 8.4730	 4.9480
 8.4870	 4.9840
 8.5010	 5.0410
 8.5150	 4.8740
 8.5290	 5.0300
 8.5430	 5.0350
 8.5570	 5.0990
 8.5710	 5.0020
 8.5850	 5.1280
 8.5990	 5.0020
 8.6140	 5.0190
 8.6280	 5.1040
 8.6420	 5.2160
 8.6570	 5.0480
 8.6710	 5.2430
 8.6860	 5.2430
 8.7000	 5.3220
 8.7150	 5.2050
 8.7300	 5.1670
 8.7440	 5.0180
 8.7590	 5.1070
 8.7740	 4.9340
 8.7890	 5.1380
 8.8040	 5.1880
 8.8190	 5.1830
 8.8340	 5.0490
 8.8490	 5.1610
 8.8640	 5.0380
 8.8790	 5.1740
 8.8940	 5.0010
 8.9100	 4.9680
 8.9250	 5.0130
 8.9400	 5.3040
 8.9560	 5.0400
 8.9710	 5.0050
 8.9870	 4.9380
 9.0020	 5.0550
 9.0180	 4.9880
 9.0340	 5.2120
 9.0500	 4.9850
 9.0650	 4.9260
 9.0810	 4.9550
 9.0970	 5.2070
 9.1130	 4.9990
 9.1290	 4.9810
 9.1450	 4.8680
 9.1610	 5.0180
 9.1780	 4.9640
 9.1940	 5.0900
 9.2100	 4.9520
 9.2270	 5.0010
 9.2430	 4.9890
 9.2600	 5.2690
 9.2760	 5.1040
 9.2930	 5.1220
 9.3090	 4.9540
 9.3260	 4.9540
 9.3430	 4.8200
 9.3600	 4.9260
 9.3770	 4.8910
 9.3940	 5.0470
 9.4110	 4.9170
 9.4280	 5.0420
 9.4450	 4.8990
 9.4620	 4.9800
 9.4800	 4.9180
 9.4970	 5.0180
 9.5140	 4.8730
 9.5320	 5.0880
 9.5500	 5.0340
 9.5670	 5.1490
 9.5850	 5.0750
 9.6030	 5.2640
 9.6200	 5.1090
 9.6380	 5.0830
 9.6560	 4.9750
 9.6740	 5.1360
 9.6920	 5.0480
 9.7100	 5.1320
 9.7290	 5.0580
 9.7470	 5.1710
 9.7650	 5.0220
 9.7840	 5.0630
 9.8020	 4.9220
 9.8210	 4.3900
 9.8390	 4.1150
 9.8580	 5.0110
 9.8770	 5.0490
 9.8960	 5.1590
 9.9150	 5.0710
 9.9340	 5.1430
 9.9530	 4.9720
 9.9720	 5.0590
 9.9910	 4.8880
10.0100	 5.0300
10.0300	 4.9930
10.0490	 5.1150
10.0690	 4.9320
10.0880	 5.0180
10.1080	 4.9020
10.1280	 5.0050
10.1480	 4.9820
10.1670	 5.0910
10.1870	 4.9680
10.2070	 5.0840
10.2280	 4.8800
10.2480	 4.9650
10.2680	 4.9760
10.2890	 5.1290
10.3090	 4.9610
10.3300	 5.0180
10.3500	 4.8610
10.3710	 4.9830
10.3920	 4.8540
10.4120	 5.0160
10.4330	 4.9460
10.4540	 5.0500
10.4760	 4.9730
10.4970	 5.0870
10.5180	 4.8050
10.5390	 5.0820
10.5610	 5.0460
10.5820	 5.0210
10.6040	 4.8450
10.6260	 4.9240
10.6480	 4.7520
10.6700	 4.8820
10.6920	 4.7610
10.7140	 4.9190
10.7360	 4.9050
10.7580	 5.0930
10.7800	 4.8970
10.8030	 4.9630
10.8250	 4.8280
10.8480	 5.0220
10.8710	 4.9800
10.8940	 5.0310
10.9170	 4.8000
10.9400	 4.9440
10.9630	 4.8740
10.9860	 5.0510
11.0090	 4.9360
11.0330	 5.1190
11.0560	 4.9710
11.0800	 4.9440
11.1040	 4.4330
11.1270	 4.5570
11.1510	 4.7280
11.1750	 4.9340
11.2000	 4.7690
11.2240	 4.9520
11.2480	 4.8380
11.2730	 4.8710
11.2970	 4.7850
11.3220	 5.1910
11.3470	 4.9280
11.3720	 4.8330
11.3970	 4.6710
11.4220	 4.8800
11.4470	 4.7500
11.4720	 4.8830
11.4980	 4.9220
11.5230	 5.1000
11.5490	 4.9100
11.5750	 5.1110
11.6000	 4.8510
11.6260	 4.9180
11.6530	 4.8840
11.6790	 5.0250
11.7050	 4.8060
11.7320	 4.9970
11.7580	 4.9100
11.7850	 5.0720
11.8120	 4.8190
11.8390	 5.0290
11.8660	 5.0110
11.8930	 5.0960
11.9200	 4.8940
11.9480	 5.0350
11.9760	 4.7140
12.0030	 4.8860
12.0310	 4.7620
12.0590	 4.9250
12.0870	 4.7710
12.1150	 4.9750
12.1440	 4.7090
12.1720	 4.9500
12.2010	 4.7600
12.2300	 4.9500
12.2590	 4.7110
12.2880	 4.8920
12.3170	 4.7920
12.3460	 4.9300
12.3760	 4.6710
12.4050	 4.8460
12.4350	 4.6430
12.4650	 4.8880
12.4950	 4.7170
12.5250	 4.9210
12.5550	 4.8060
12.5860	 4.8770
12.6170	 4.6120
12.6470	 4.8370
12.6780	 4.6680
12.7090	 4.7730
12.7410	 4.5390
12.7720	 4.7610
12.8030	 4.6160
12.8350	 4.8170
12.8670	 4.6170
12.8990	 4.8240
12.9310	 4.6320
12.9640	 5.0140
12.9960	 4.8150
13.0290	 4.8640
13.0610	 4.5550
13.0940	 4.8200
13.1280	 4.6770
13.1610	 4.8810
13.1940	 4.5000
13.2280	 4.6440
13.2620	 4.5860
13.2960	 4.9150
13.3300	 4.7040
13.3640	 4.8610
13.3990	 4.6380
13.4340	 4.9310
13.4690	 4.6570
13.5040	 4.8080
13.5390	 4.5460
13.5740	 4.8360
13.6100	 4.4270
13.6460	 4.8320
13.6820	 4.8110
13.7180	 5.1750
13.7540	 4.8590
13.7910	 4.9740
13.8280	 4.9010
13.8650	 5.2590
13.9020	 4.9300
13.9390	 4.9810
13.9770	 4.5410
14.0150	 4.8700
14.0530	 4.6200
14.0910	 4.9880
14.1290	 4.7550
14.1680	 5.1880
14.2070	 4.9000
14.2460	 4.9570
14.2850	 4.6600
14.3240	 4.9050
14.3640	 4.4410
14.4040	 5.0150
14.4440	 4.8350
14.4840	 5.2950
14.5250	 4.8430
14.5660	 4.9670
14.6070	 4.6100
14.6480	 4.9030
14.6900	 4.4370
14.7310	 4.8550
14.7730	 4.4710
14.8150	 4.9430
14.8580	 4.4940
14.9010	 4.6910
14.9440	 3.8990
14.9870	 4.9140
15.0300	 4.2990
15.0740	 4.7670
15.1180	 4.3650
15.1620	 4.8680
15.2060	 4.4810
15.2510	 5.3840
15.2960	 4.4820
15.3410	 4.7980
15.3870	 4.1100
