Name: Arctostaphylos glandulosa 2
Type: vegetation
Class: Shrub
Genus: Arctostaphylos
Species: glandulosa
Sample No.: VH247
Owner: UCSB
Wavelength Range: TIR
Origin: 37.0441; -119.3033; WGS84
Collection Date: 11/2/2013
Description: Samples were collected as part of the HyspIRI Airborne Campaign. 48 individual plants were sampled in three times in 2013 - spring  summer  and fall. The name of the sample includes a 1  2  or 3 which references a different individual of the species. Samples were taken to JPL and processed within 48 hours of collection. The same leaves were processed in the Nicolet and then measured using the ASD.
Measurement: Hemispherical reflectance
First Column: X
Second Column: Y
X Units: Wavelength (micrometers)
Y Units: Reflectance (percentage)
First X Value: 2.501
Last X Value: 15.387
Number of X Values: 1737
Additional Information: vegetation.shrub.arctostaphylos.glandulosa.tir.vh247.ucsb.nicolet.ancillary.txt

 2.5010	 8.2910
 2.5030	 8.1150
 2.5040	 8.1460
 2.5050	 8.1200
 2.5060	 8.0960
 2.5070	 8.0380
 2.5090	 8.0320
 2.5100	 8.0190
 2.5110	 8.0770
 2.5120	 7.9760
 2.5140	 8.0620
 2.5150	 8.1690
 2.5160	 8.1620
 2.5170	 8.0980
 2.5180	 8.1560
 2.5200	 8.0630
 2.5210	 8.0540
 2.5220	 8.0500
 2.5230	 8.0850
 2.5250	 7.9260
 2.5260	 7.8550
 2.5270	 7.9290
 2.5280	 8.0470
 2.5290	 8.1250
 2.5310	 8.1680
 2.5320	 7.9370
 2.5330	 7.8840
 2.5340	 7.9940
 2.5360	 8.0570
 2.5370	 7.8900
 2.5380	 7.9190
 2.5390	 8.0070
 2.5410	 8.0340
 2.5420	 7.9090
 2.5430	 7.9400
 2.5440	 8.0430
 2.5460	 8.1280
 2.5470	 7.9800
 2.5480	 8.0900
 2.5490	 8.3190
 2.5510	 8.3760
 2.5520	 8.2030
 2.5530	 8.1320
 2.5540	 8.0360
 2.5560	 8.0770
 2.5570	 8.1560
 2.5580	 8.1280
 2.5590	 8.1740
 2.5610	 8.3540
 2.5620	 8.3290
 2.5630	 8.1630
 2.5640	 8.1730
 2.5660	 8.2610
 2.5670	 8.2510
 2.5680	 8.2150
 2.5700	 8.1540
 2.5710	 8.3320
 2.5720	 8.3410
 2.5730	 8.2740
 2.5750	 8.3660
 2.5760	 8.3770
 2.5770	 8.3290
 2.5790	 8.3710
 2.5800	 8.3760
 2.5810	 8.4180
 2.5820	 8.3640
 2.5840	 8.4120
 2.5850	 8.3580
 2.5860	 8.3450
 2.5880	 8.3140
 2.5890	 8.2160
 2.5900	 8.0840
 2.5910	 8.1590
 2.5930	 8.1090
 2.5940	 8.1980
 2.5950	 8.3430
 2.5970	 8.3960
 2.5980	 8.1730
 2.5990	 8.1430
 2.6000	 8.1450
 2.6020	 8.0140
 2.6030	 7.9900
 2.6040	 8.2290
 2.6060	 8.1730
 2.6070	 7.9960
 2.6080	 7.8630
 2.6100	 7.7890
 2.6110	 7.7920
 2.6120	 7.8680
 2.6140	 7.7310
 2.6150	 7.7330
 2.6160	 7.6980
 2.6180	 7.6030
 2.6190	 7.5170
 2.6200	 7.5690
 2.6220	 7.3360
 2.6230	 7.1540
 2.6240	 7.1310
 2.6260	 7.2320
 2.6270	 7.2900
 2.6280	 7.2590
 2.6300	 7.1990
 2.6310	 7.1950
 2.6320	 7.0390
 2.6340	 7.0090
 2.6350	 6.9300
 2.6360	 6.8770
 2.6380	 6.7990
 2.6390	 6.8630
 2.6400	 6.7720
 2.6420	 6.6630
 2.6430	 6.5660
 2.6440	 6.6440
 2.6460	 6.5150
 2.6470	 6.4520
 2.6480	 6.3400
 2.6500	 6.3440
 2.6510	 6.4360
 2.6520	 6.4140
 2.6540	 6.2260
 2.6550	 6.1600
 2.6560	 6.1300
 2.6580	 6.1880
 2.6590	 6.1430
 2.6610	 6.0840
 2.6620	 6.1070
 2.6630	 6.1610
 2.6650	 6.0440
 2.6660	 6.0640
 2.6670	 5.9150
 2.6690	 5.7880
 2.6700	 5.8840
 2.6720	 5.9210
 2.6730	 5.5410
 2.6740	 5.2620
 2.6760	 5.1620
 2.6770	 5.3770
 2.6780	 5.4070
 2.6800	 5.4730
 2.6810	 5.4090
 2.6830	 5.3030
 2.6840	 5.1270
 2.6850	 5.0890
 2.6870	 5.0010
 2.6880	 4.9830
 2.6900	 5.0900
 2.6910	 5.0430
 2.6920	 4.9120
 2.6940	 4.9300
 2.6950	 4.7940
 2.6970	 4.8380
 2.6980	 4.8930
 2.6990	 4.8390
 2.7010	 4.6210
 2.7020	 4.5920
 2.7040	 4.5600
 2.7050	 4.6230
 2.7060	 4.4500
 2.7080	 4.3630
 2.7090	 4.3880
 2.7110	 4.4040
 2.7120	 4.3400
 2.7130	 4.4100
 2.7150	 4.4760
 2.7160	 4.4550
 2.7180	 4.3150
 2.7190	 4.4130
 2.7210	 4.2030
 2.7220	 3.9530
 2.7230	 4.2250
 2.7250	 4.4390
 2.7260	 4.3020
 2.7280	 4.1500
 2.7290	 3.9920
 2.7310	 4.0050
 2.7320	 3.9580
 2.7330	 3.9250
 2.7350	 3.8710
 2.7360	 3.9450
 2.7380	 4.0320
 2.7390	 4.1660
 2.7410	 4.0580
 2.7420	 3.9720
 2.7440	 3.9370
 2.7450	 4.2540
 2.7470	 4.2440
 2.7480	 4.1560
 2.7490	 3.8430
 2.7510	 3.6230
 2.7520	 3.8780
 2.7540	 4.1210
 2.7550	 4.0210
 2.7570	 4.1050
 2.7580	 4.0360
 2.7600	 3.9300
 2.7610	 3.8750
 2.7630	 4.0730
 2.7640	 3.9170
 2.7660	 3.8660
 2.7670	 3.9820
 2.7680	 4.1050
 2.7700	 4.2630
 2.7710	 4.2930
 2.7730	 4.1280
 2.7740	 3.7570
 2.7760	 3.4350
 2.7770	 3.3720
 2.7790	 3.3240
 2.7800	 3.6760
 2.7820	 3.7740
 2.7830	 3.7710
 2.7850	 3.7110
 2.7860	 3.8710
 2.7880	 3.8890
 2.7890	 3.8750
 2.7910	 3.8260
 2.7920	 3.8190
 2.7940	 3.7070
 2.7950	 3.7750
 2.7970	 3.8270
 2.7980	 3.9460
 2.8000	 3.9510
 2.8010	 3.7670
 2.8030	 3.8010
 2.8040	 3.9210
 2.8060	 3.8180
 2.8070	 3.8420
 2.8090	 3.8320
 2.8110	 3.9380
 2.8120	 3.9750
 2.8140	 3.9620
 2.8150	 3.8400
 2.8170	 3.8980
 2.8180	 3.7860
 2.8200	 3.8850
 2.8210	 3.9800
 2.8230	 3.9160
 2.8240	 3.6840
 2.8260	 3.8310
 2.8270	 4.0450
 2.8290	 3.9640
 2.8300	 3.7340
 2.8320	 3.8510
 2.8340	 3.8160
 2.8350	 3.6640
 2.8370	 3.7250
 2.8380	 3.8680
 2.8400	 3.9220
 2.8410	 3.8530
 2.8430	 3.6490
 2.8440	 3.7830
 2.8460	 3.8000
 2.8480	 3.8070
 2.8490	 3.8340
 2.8510	 3.8030
 2.8520	 3.8450
 2.8540	 4.1000
 2.8550	 4.1610
 2.8570	 4.0900
 2.8590	 3.8190
 2.8600	 3.7250
 2.8620	 3.8520
 2.8630	 4.1430
 2.8650	 3.9730
 2.8660	 3.8600
 2.8680	 3.9230
 2.8700	 3.9100
 2.8710	 3.8520
 2.8730	 3.9850
 2.8740	 3.8880
 2.8760	 3.9040
 2.8780	 3.9150
 2.8790	 3.9190
 2.8810	 3.6790
 2.8820	 3.6010
 2.8840	 3.6510
 2.8860	 3.8130
 2.8870	 3.9530
 2.8890	 3.9010
 2.8900	 3.7680
 2.8920	 4.0280
 2.8940	 4.1090
 2.8950	 4.0280
 2.8970	 3.9140
 2.8980	 3.9050
 2.9000	 3.8550
 2.9020	 4.0540
 2.9030	 4.2020
 2.9050	 4.1620
 2.9070	 3.9200
 2.9080	 3.9000
 2.9100	 3.7760
 2.9120	 3.8890
 2.9130	 4.0300
 2.9150	 3.9870
 2.9160	 3.9570
 2.9180	 4.0260
 2.9200	 3.8220
 2.9210	 3.8840
 2.9230	 3.9290
 2.9250	 4.0400
 2.9260	 4.1270
 2.9280	 4.2080
 2.9300	 4.0340
 2.9310	 3.8590
 2.9330	 3.7500
 2.9350	 4.0210
 2.9360	 4.0640
 2.9380	 3.8180
 2.9400	 3.6330
 2.9410	 3.7450
 2.9430	 3.8090
 2.9450	 3.8890
 2.9460	 4.1670
 2.9480	 4.3940
 2.9500	 4.2810
 2.9510	 4.2860
 2.9530	 4.1000
 2.9550	 4.0340
 2.9560	 3.9690
 2.9580	 3.8870
 2.9600	 3.8640
 2.9610	 4.3270
 2.9630	 4.4220
 2.9650	 3.9880
 2.9660	 3.6850
 2.9680	 3.7530
 2.9700	 4.0660
 2.9720	 4.7330
 2.9730	 5.4270
 2.9750	 4.6980
 2.9770	 3.8750
 2.9780	 3.9400
 2.9800	 3.3750
 2.9820	 3.1500
 2.9840	 3.0260
 2.9850	 2.9450
 2.9870	 3.5090
 2.9890	 4.1840
 2.9900	 4.5500
 2.9920	 4.7120
 2.9940	 4.8110
 2.9960	 5.2100
 2.9970	 3.5870
 2.9990	 2.6480
 3.0010	 3.7980
 3.0030	 3.9170
 3.0040	 3.5250
 3.0060	 3.8340
 3.0080	 3.9140
 3.0100	 3.5220
 3.0110	 3.2910
 3.0130	 3.8170
 3.0150	 4.5700
 3.0170	 3.9240
 3.0180	 3.7230
 3.0200	 4.5210
 3.0220	 4.6930
 3.0240	 4.3740
 3.0250	 4.1420
 3.0270	 4.1690
 3.0290	 4.2800
 3.0310	 4.3080
 3.0320	 3.9640
 3.0340	 4.0800
 3.0360	 4.3760
 3.0380	 4.6080
 3.0400	 4.8500
 3.0410	 4.3790
 3.0430	 3.8290
 3.0450	 3.5950
 3.0470	 3.8420
 3.0480	 4.7750
 3.0500	 4.4550
 3.0520	 3.4520
 3.0540	 2.8660
 3.0560	 3.6670
 3.0570	 4.8050
 3.0590	 4.2480
 3.0610	 3.5090
 3.0630	 4.7050
 3.0650	 4.5380
 3.0660	 3.8630
 3.0680	 3.6060
 3.0700	 4.2140
 3.0720	 4.2460
 3.0740	 4.2210
 3.0760	 4.0400
 3.0770	 3.9730
 3.0790	 3.9680
 3.0810	 3.9700
 3.0830	 3.9210
 3.0850	 4.0610
 3.0870	 3.8260
 3.0880	 3.7670
 3.0900	 3.7720
 3.0920	 3.7820
 3.0940	 3.7040
 3.0960	 3.8610
 3.0980	 3.8540
 3.0990	 3.7260
 3.1010	 3.7500
 3.1030	 4.1570
 3.1050	 4.0710
 3.1070	 3.8740
 3.1090	 3.8830
 3.1110	 3.8720
 3.1120	 3.7720
 3.1140	 3.8410
 3.1160	 3.8850
 3.1180	 3.9920
 3.1200	 3.9030
 3.1220	 3.9360
 3.1240	 3.8540
 3.1260	 3.7760
 3.1270	 3.8850
 3.1290	 3.8810
 3.1310	 3.7270
 3.1330	 3.8900
 3.1350	 4.1240
 3.1370	 3.9880
 3.1390	 2.8770
 3.1410	 3.3020
 3.1430	 3.6890
 3.1450	 3.0310
 3.1460	 3.0790
 3.1480	 3.9630
 3.1500	 4.9140
 3.1520	 3.5340
 3.1540	 2.7300
 3.1560	 4.1920
 3.1580	 4.1200
 3.1600	 3.2770
 3.1620	 3.4910
 3.1640	 3.7090
 3.1660	 2.8240
 3.1680	 2.8270
 3.1700	 4.1070
 3.1710	 4.6450
 3.1730	 4.5840
 3.1750	 4.1440
 3.1770	 2.2970
 3.1790	 2.8570
 3.1810	 3.4920
 3.1830	 2.8280
 3.1850	 3.4710
 3.1870	 4.2210
 3.1890	 4.0010
 3.1910	 4.0460
 3.1930	 4.0480
 3.1950	 4.0380
 3.1970	 3.9380
 3.1990	 3.8600
 3.2010	 3.8760
 3.2030	 3.7830
 3.2050	 3.7740
 3.2070	 3.8520
 3.2090	 3.8130
 3.2110	 4.0120
 3.2130	 3.9330
 3.2150	 3.8460
 3.2170	 3.7740
 3.2190	 3.8620
 3.2210	 3.8430
 3.2230	 3.6550
 3.2250	 3.5870
 3.2270	 3.6630
 3.2290	 3.7080
 3.2310	 3.6980
 3.2330	 3.6410
 3.2350	 3.8440
 3.2370	 3.8800
 3.2390	 3.8920
 3.2410	 3.6680
 3.2430	 3.6420
 3.2450	 3.7630
 3.2470	 3.8890
 3.2490	 3.9580
 3.2510	 3.9880
 3.2530	 3.9370
 3.2550	 3.8400
 3.2570	 3.6960
 3.2590	 3.7690
 3.2610	 3.8030
 3.2630	 3.8380
 3.2650	 3.6020
 3.2670	 3.6540
 3.2690	 3.6620
 3.2720	 3.6330
 3.2740	 3.6230
 3.2760	 3.7500
 3.2780	 3.6790
 3.2800	 3.7430
 3.2820	 3.7130
 3.2840	 3.7330
 3.2860	 3.7130
 3.2880	 3.7010
 3.2900	 3.6080
 3.2920	 3.7230
 3.2940	 3.7180
 3.2960	 3.8160
 3.2990	 3.7530
 3.3010	 3.6200
 3.3030	 3.6990
 3.3050	 3.8050
 3.3070	 3.7910
 3.3090	 3.7530
 3.3110	 3.5680
 3.3130	 3.5030
 3.3150	 3.4660
 3.3180	 3.3550
 3.3200	 3.2870
 3.3220	 3.5740
 3.3240	 3.5850
 3.3260	 3.6420
 3.3280	 3.8010
 3.3300	 3.7430
 3.3330	 3.6430
 3.3350	 3.5480
 3.3370	 3.4200
 3.3390	 3.3470
 3.3410	 3.3590
 3.3430	 3.4430
 3.3450	 3.4250
 3.3480	 3.5160
 3.3500	 3.5680
 3.3520	 3.5260
 3.3540	 3.3930
 3.3560	 3.4470
 3.3580	 3.4940
 3.3610	 3.5300
 3.3630	 3.4970
 3.3650	 3.3870
 3.3670	 3.3010
 3.3690	 3.4200
 3.3720	 3.3190
 3.3740	 3.1880
 3.3760	 3.1790
 3.3780	 3.3030
 3.3800	 3.2350
 3.3830	 3.2130
 3.3850	 3.2360
 3.3870	 3.1590
 3.3890	 3.1770
 3.3910	 3.1560
 3.3940	 3.0340
 3.3960	 3.0310
 3.3980	 2.9780
 3.4000	 3.0450
 3.4020	 3.0800
 3.4050	 3.0990
 3.4070	 3.1430
 3.4090	 3.4400
 3.4110	 3.4990
 3.4140	 3.5290
 3.4160	 3.6330
 3.4180	 3.9030
 3.4200	 4.2360
 3.4230	 4.6460
 3.4250	 5.0840
 3.4270	 5.6240
 3.4290	 6.0530
 3.4320	 6.1180
 3.4340	 5.6790
 3.4360	 5.2580
 3.4390	 4.9060
 3.4410	 4.6850
 3.4430	 4.7230
 3.4450	 5.0090
 3.4480	 4.8920
 3.4500	 4.7080
 3.4520	 4.6930
 3.4550	 4.6500
 3.4570	 4.5480
 3.4590	 4.5200
 3.4620	 4.4910
 3.4640	 4.4750
 3.4660	 4.2990
 3.4680	 4.3210
 3.4710	 4.3380
 3.4730	 4.3320
 3.4750	 4.1760
 3.4780	 4.0990
 3.4800	 4.0390
 3.4820	 3.9680
 3.4850	 3.8880
 3.4870	 3.9390
 3.4890	 3.9180
 3.4920	 3.8290
 3.4940	 3.7810
 3.4970	 3.7230
 3.4990	 3.6420
 3.5010	 3.8310
 3.5040	 4.0550
 3.5060	 4.4900
 3.5080	 5.4190
 3.5110	 6.2070
 3.5130	 6.1550
 3.5160	 5.8450
 3.5180	 5.6020
 3.5200	 5.3210
 3.5230	 5.1500
 3.5250	 5.0710
 3.5270	 4.8930
 3.5300	 4.8150
 3.5320	 4.7150
 3.5350	 4.6650
 3.5370	 4.6400
 3.5400	 4.6220
 3.5420	 4.4740
 3.5440	 4.5280
 3.5470	 4.5830
 3.5490	 4.4820
 3.5520	 4.3960
 3.5540	 4.5380
 3.5570	 4.4740
 3.5590	 4.4060
 3.5610	 4.5050
 3.5640	 4.5410
 3.5660	 4.3920
 3.5690	 4.4970
 3.5710	 4.5100
 3.5740	 4.5470
 3.5760	 4.4440
 3.5790	 4.3910
 3.5810	 4.4260
 3.5840	 4.4970
 3.5860	 4.5090
 3.5890	 4.5180
 3.5910	 4.3270
 3.5930	 4.2560
 3.5960	 4.3290
 3.5980	 4.3240
 3.6010	 4.3060
 3.6030	 4.4320
 3.6060	 4.4450
 3.6080	 4.4340
 3.6110	 4.5340
 3.6140	 4.5670
 3.6160	 4.4650
 3.6190	 4.4460
 3.6210	 4.4530
 3.6240	 4.5030
 3.6260	 4.3760
 3.6290	 4.4510
 3.6310	 4.4780
 3.6340	 4.4900
 3.6360	 4.4640
 3.6390	 4.4250
 3.6410	 4.3600
 3.6440	 4.3930
 3.6470	 4.3600
 3.6490	 4.3680
 3.6520	 4.3760
 3.6540	 4.4340
 3.6570	 4.4090
 3.6590	 4.4260
 3.6620	 4.3740
 3.6650	 4.3830
 3.6670	 4.4470
 3.6700	 4.5170
 3.6720	 4.4820
 3.6750	 4.5190
 3.6780	 4.4580
 3.6800	 4.3760
 3.6830	 4.3590
 3.6850	 4.3200
 3.6880	 4.3040
 3.6910	 4.3830
 3.6930	 4.3540
 3.6960	 4.3530
 3.6990	 4.3730
 3.7010	 4.3130
 3.7040	 4.2370
 3.7060	 4.3340
 3.7090	 4.4020
 3.7120	 4.4680
 3.7140	 4.4900
 3.7170	 4.5510
 3.7200	 4.5010
 3.7220	 4.5440
 3.7250	 4.4940
 3.7280	 4.3980
 3.7300	 4.3460
 3.7330	 4.5260
 3.7360	 4.6430
 3.7390	 4.5880
 3.7410	 4.4690
 3.7440	 4.4700
 3.7470	 4.4490
 3.7490	 4.5330
 3.7520	 4.5560
 3.7550	 4.5230
 3.7580	 4.4990
 3.7600	 4.5890
 3.7630	 4.5690
 3.7660	 4.5470
 3.7680	 4.5180
 3.7710	 4.5660
 3.7740	 4.5970
 3.7770	 4.5870
 3.7790	 4.6190
 3.7820	 4.6490
 3.7850	 4.5980
 3.7880	 4.6740
 3.7900	 4.7210
 3.7930	 4.6920
 3.7960	 4.5620
 3.7990	 4.5840
 3.8020	 4.6040
 3.8040	 4.6850
 3.8070	 4.7530
 3.8100	 4.8170
 3.8130	 4.8600
 3.8160	 4.8730
 3.8180	 4.7460
 3.8210	 4.6370
 3.8240	 4.5760
 3.8270	 4.6840
 3.8300	 4.7890
 3.8330	 4.9220
 3.8350	 4.8750
 3.8380	 4.7200
 3.8410	 4.5360
 3.8440	 4.6360
 3.8470	 4.7670
 3.8500	 4.8340
 3.8520	 4.9140
 3.8550	 5.0110
 3.8580	 4.8310
 3.8610	 4.7430
 3.8640	 4.8250
 3.8670	 4.8830
 3.8700	 4.9520
 3.8730	 4.9060
 3.8750	 4.8500
 3.8780	 4.9730
 3.8810	 4.9370
 3.8840	 4.9230
 3.8870	 4.8900
 3.8900	 4.8210
 3.8930	 4.8080
 3.8960	 4.8830
 3.8990	 4.9210
 3.9020	 4.8920
 3.9050	 4.8500
 3.9080	 4.8490
 3.9110	 4.8750
 3.9140	 4.9530
 3.9160	 4.9650
 3.9190	 5.0670
 3.9220	 5.0330
 3.9250	 5.0070
 3.9280	 4.9930
 3.9310	 4.9640
 3.9340	 4.9500
 3.9370	 4.9540
 3.9400	 4.9660
 3.9430	 4.9530
 3.9460	 4.8810
 3.9490	 4.9300
 3.9520	 5.0300
 3.9550	 4.9510
 3.9580	 4.8820
 3.9610	 4.9330
 3.9640	 4.8990
 3.9670	 4.9470
 3.9700	 5.0110
 3.9730	 5.0200
 3.9770	 5.0540
 3.9800	 5.0740
 3.9830	 5.0330
 3.9860	 5.0860
 3.9890	 5.0270
 3.9920	 5.0050
 3.9950	 4.9820
 3.9980	 4.9240
 4.0010	 4.9100
 4.0040	 5.0220
 4.0070	 5.0630
 4.0100	 5.0170
 4.0130	 5.0150
 4.0170	 5.0450
 4.0200	 5.0660
 4.0230	 4.9760
 4.0260	 4.8960
 4.0290	 5.0360
 4.0320	 5.0810
 4.0350	 5.0620
 4.0380	 5.0850
 4.0420	 5.0430
 4.0450	 4.9030
 4.0480	 4.9060
 4.0510	 5.0140
 4.0540	 5.0740
 4.0570	 4.9960
 4.0610	 4.9660
 4.0640	 5.0040
 4.0670	 5.0790
 4.0700	 5.0280
 4.0730	 4.9970
 4.0770	 4.9640
 4.0800	 4.9910
 4.0830	 5.0180
 4.0860	 5.0900
 4.0890	 5.0480
 4.0930	 5.0100
 4.0960	 5.0160
 4.0990	 5.0380
 4.1020	 4.9710
 4.1060	 5.0400
 4.1090	 5.0570
 4.1120	 4.9710
 4.1150	 4.9970
 4.1190	 5.0030
 4.1220	 4.9530
 4.1250	 4.9510
 4.1280	 4.9110
 4.1320	 4.9710
 4.1350	 4.9570
 4.1380	 5.0030
 4.1420	 5.0340
 4.1450	 5.0620
 4.1480	 5.0480
 4.1520	 5.0150
 4.1550	 4.9730
 4.1580	 5.0190
 4.1620	 5.0600
 4.1650	 5.0390
 4.1680	 4.9680
 4.1720	 4.9720
 4.1750	 5.0100
 4.1780	 5.0310
 4.1820	 4.9910
 4.1850	 4.8780
 4.1890	 4.7940
 4.1920	 4.8980
 4.1950	 5.0140
 4.1990	 4.9670
 4.2020	 4.8310
 4.2060	 4.8940
 4.2090	 4.8080
 4.2120	 4.7970
 4.2160	 4.9330
 4.2190	 5.0630
 4.2230	 4.8910
 4.2260	 4.7900
 4.2300	 4.6910
 4.2330	 4.5330
 4.2360	 4.5650
 4.2400	 4.6790
 4.2430	 4.8310
 4.2470	 4.7530
 4.2500	 4.6020
 4.2540	 4.6050
 4.2570	 4.6210
 4.2610	 4.6930
 4.2640	 4.8000
 4.2680	 4.7940
 4.2710	 4.6490
 4.2750	 4.5270
 4.2780	 4.4010
 4.2820	 4.6500
 4.2850	 4.6970
 4.2890	 4.6650
 4.2930	 4.7120
 4.2960	 4.7350
 4.3000	 4.6240
 4.3030	 4.6960
 4.3070	 4.5620
 4.3100	 4.6090
 4.3140	 4.6810
 4.3180	 4.6580
 4.3210	 4.5080
 4.3250	 4.5640
 4.3280	 4.6800
 4.3320	 4.7250
 4.3360	 4.6460
 4.3390	 4.5120
 4.3430	 4.4960
 4.3470	 4.5400
 4.3500	 4.6010
 4.3540	 4.6290
 4.3570	 4.6050
 4.3610	 4.6390
 4.3650	 4.6640
 4.3680	 4.6850
 4.3720	 4.6040
 4.3760	 4.4890
 4.3800	 4.4430
 4.3830	 4.5230
 4.3870	 4.4990
 4.3910	 4.4850
 4.3940	 4.5590
 4.3980	 4.5150
 4.4020	 4.4240
 4.4060	 4.4110
 4.4090	 4.4630
 4.4130	 4.4350
 4.4170	 4.3720
 4.4210	 4.4510
 4.4240	 4.4840
 4.4280	 4.4630
 4.4320	 4.3950
 4.4360	 4.3850
 4.4400	 4.4320
 4.4430	 4.4320
 4.4470	 4.4410
 4.4510	 4.3650
 4.4550	 4.2700
 4.4590	 4.3050
 4.4620	 4.3930
 4.4660	 4.4060
 4.4700	 4.2780
 4.4740	 4.2710
 4.4780	 4.4050
 4.4820	 4.4690
 4.4860	 4.3830
 4.4900	 4.3570
 4.4930	 4.3070
 4.4970	 4.2780
 4.5010	 4.2900
 4.5050	 4.2310
 4.5090	 4.2270
 4.5130	 4.2830
 4.5170	 4.3390
 4.5210	 4.3140
 4.5250	 4.3090
 4.5290	 4.2920
 4.5330	 4.3240
 4.5370	 4.2530
 4.5410	 4.1300
 4.5450	 4.1860
 4.5490	 4.2660
 4.5530	 4.2380
 4.5570	 4.2090
 4.5610	 4.1860
 4.5650	 4.1400
 4.5690	 4.0880
 4.5730	 4.1580
 4.5770	 4.2850
 4.5810	 4.2660
 4.5850	 4.2020
 4.5890	 4.2120
 4.5930	 4.2180
 4.5970	 4.1860
 4.6010	 4.2270
 4.6050	 4.1960
 4.6090	 4.2600
 4.6130	 4.3110
 4.6170	 4.1540
 4.6220	 4.1190
 4.6260	 4.1460
 4.6300	 4.1820
 4.6340	 4.1740
 4.6380	 4.1530
 4.6420	 4.1270
 4.6460	 4.0940
 4.6510	 4.0830
 4.6550	 4.0970
 4.6590	 4.1120
 4.6630	 4.1080
 4.6670	 4.1780
 4.6720	 4.2560
 4.6760	 4.1760
 4.6800	 4.1250
 4.6840	 4.0970
 4.6880	 4.0930
 4.6930	 4.1540
 4.6970	 4.1150
 4.7010	 4.1300
 4.7050	 4.1370
 4.7100	 4.1310
 4.7140	 4.1910
 4.7180	 4.2380
 4.7230	 4.1970
 4.7270	 4.1290
 4.7310	 4.0950
 4.7360	 4.1260
 4.7400	 4.1430
 4.7440	 4.1700
 4.7490	 4.2030
 4.7530	 4.1950
 4.7570	 4.1390
 4.7620	 4.1410
 4.7660	 4.1310
 4.7700	 4.1320
 4.7750	 4.1170
 4.7790	 4.1530
 4.7840	 4.2100
 4.7880	 4.3970
 4.7920	 4.3520
 4.7970	 4.0940
 4.8010	 4.0590
 4.8060	 4.1050
 4.8100	 4.1320
 4.8150	 4.1560
 4.8190	 4.1700
 4.8240	 4.1590
 4.8280	 4.1620
 4.8330	 4.1220
 4.8370	 4.1450
 4.8420	 4.0930
 4.8460	 3.9840
 4.8510	 4.0020
 4.8550	 4.0820
 4.8600	 4.0980
 4.8640	 4.1200
 4.8690	 4.1570
 4.8730	 4.1980
 4.8780	 4.1800
 4.8830	 4.1740
 4.8870	 4.2550
 4.8920	 4.2530
 4.8960	 4.1500
 4.9010	 4.1680
 4.9060	 4.1750
 4.9100	 4.1280
 4.9150	 4.2530
 4.9200	 4.3420
 4.9240	 4.2430
 4.9290	 4.1650
 4.9340	 4.2380
 4.9380	 4.2950
 4.9430	 4.2170
 4.9480	 4.2420
 4.9530	 4.2920
 4.9570	 4.2630
 4.9620	 4.2310
 4.9670	 4.2370
 4.9720	 4.1700
 4.9760	 4.1720
 4.9810	 4.2420
 4.9860	 4.2770
 4.9910	 4.3230
 4.9960	 4.3450
 5.0000	 4.2870
 5.0050	 4.3360
 5.0100	 4.3420
 5.0150	 4.3230
 5.0200	 4.2930
 5.0250	 4.2890
 5.0290	 4.2470
 5.0340	 4.1990
 5.0390	 4.1790
 5.0440	 4.2720
 5.0490	 4.3020
 5.0540	 4.2620
 5.0590	 4.3710
 5.0640	 4.4250
 5.0690	 4.3080
 5.0740	 4.2400
 5.0790	 4.2630
 5.0840	 4.3880
 5.0890	 4.3540
 5.0940	 4.3210
 5.0990	 4.3600
 5.1040	 4.3540
 5.1090	 4.3680
 5.1140	 4.4310
 5.1190	 4.4360
 5.1240	 4.4570
 5.1290	 4.4740
 5.1340	 4.4630
 5.1390	 4.4340
 5.1440	 4.5150
 5.1490	 4.5340
 5.1540	 4.4430
 5.1600	 4.3730
 5.1650	 4.4610
 5.1700	 4.4220
 5.1750	 4.3460
 5.1800	 4.3060
 5.1850	 4.2870
 5.1910	 4.3750
 5.1960	 4.4450
 5.2010	 4.4450
 5.2060	 4.4560
 5.2110	 4.3990
 5.2170	 4.4200
 5.2220	 4.4580
 5.2270	 4.4390
 5.2320	 4.4230
 5.2380	 4.4190
 5.2430	 4.3690
 5.2480	 4.3760
 5.2540	 4.4170
 5.2590	 4.4650
 5.2640	 4.4490
 5.2700	 4.4350
 5.2750	 4.3960
 5.2800	 4.4130
 5.2860	 4.4880
 5.2910	 4.5870
 5.2970	 4.5420
 5.3020	 4.4740
 5.3070	 4.4670
 5.3130	 4.5300
 5.3180	 4.4180
 5.3240	 4.3920
 5.3290	 4.4030
 5.3350	 4.3610
 5.3400	 4.3240
 5.3460	 4.4240
 5.3510	 4.4510
 5.3570	 4.4290
 5.3620	 4.3910
 5.3680	 4.2950
 5.3730	 4.3560
 5.3790	 4.4660
 5.3850	 4.3460
 5.3900	 4.3050
 5.3960	 4.3690
 5.4010	 4.3890
 5.4070	 4.3710
 5.4130	 4.4010
 5.4180	 4.3240
 5.4240	 4.2480
 5.4300	 4.2230
 5.4350	 4.2930
 5.4410	 4.2520
 5.4470	 4.2010
 5.4530	 4.2080
 5.4580	 4.2780
 5.4640	 4.2720
 5.4700	 4.2040
 5.4760	 4.1390
 5.4810	 4.1850
 5.4870	 4.1730
 5.4930	 4.1410
 5.4990	 4.0920
 5.5050	 4.1530
 5.5110	 4.0790
 5.5160	 4.0770
 5.5220	 4.0800
 5.5280	 4.0260
 5.5340	 4.0650
 5.5400	 4.0350
 5.5460	 4.0100
 5.5520	 4.0960
 5.5580	 3.9600
 5.5640	 3.8150
 5.5700	 3.7580
 5.5760	 3.7880
 5.5820	 3.8120
 5.5880	 3.7810
 5.5940	 3.7010
 5.6000	 3.6860
 5.6060	 3.7640
 5.6120	 3.8140
 5.6180	 3.6760
 5.6240	 3.6210
 5.6300	 3.6010
 5.6360	 3.5610
 5.6420	 3.4320
 5.6490	 3.3910
 5.6550	 3.3690
 5.6610	 3.3170
 5.6670	 3.2060
 5.6730	 3.2000
 5.6800	 3.1800
 5.6860	 3.1960
 5.6920	 3.0640
 5.6980	 2.9920
 5.7040	 2.8960
 5.7110	 2.7960
 5.7170	 2.6740
 5.7230	 2.5360
 5.7300	 2.3600
 5.7360	 2.4050
 5.7420	 2.4830
 5.7490	 2.6520
 5.7550	 3.1100
 5.7620	 3.7840
 5.7680	 4.3520
 5.7740	 4.8250
 5.7810	 5.0560
 5.7870	 5.1140
 5.7940	 5.0070
 5.8000	 4.7950
 5.8070	 4.5380
 5.8130	 4.5010
 5.8200	 4.5170
 5.8260	 4.4770
 5.8330	 4.3700
 5.8390	 4.3600
 5.8460	 4.3230
 5.8530	 4.4020
 5.8590	 4.3960
 5.8660	 4.3400
 5.8720	 4.3150
 5.8790	 4.4440
 5.8860	 4.3780
 5.8920	 4.3360
 5.8990	 4.3840
 5.9060	 4.4290
 5.9130	 4.4250
 5.9190	 4.5250
 5.9260	 4.5030
 5.9330	 4.5950
 5.9400	 4.7040
 5.9470	 4.7350
 5.9530	 4.6560
 5.9600	 4.5870
 5.9670	 4.6170
 5.9740	 4.7480
 5.9810	 4.7180
 5.9880	 4.7090
 5.9950	 4.7290
 6.0020	 4.7770
 6.0090	 4.7580
 6.0160	 4.7280
 6.0230	 4.5470
 6.0300	 4.5240
 6.0370	 4.5540
 6.0440	 4.7760
 6.0510	 4.9750
 6.0580	 4.9070
 6.0650	 4.8580
 6.0720	 5.0240
 6.0790	 5.0090
 6.0860	 4.9730
 6.0930	 4.9480
 6.1000	 5.0610
 6.1080	 5.1390
 6.1150	 5.3160
 6.1220	 5.2800
 6.1290	 5.3420
 6.1370	 5.4680
 6.1440	 5.6390
 6.1510	 5.7470
 6.1580	 5.8510
 6.1660	 5.8700
 6.1730	 5.9200
 6.1800	 5.9480
 6.1880	 5.8560
 6.1950	 5.5910
 6.2030	 5.5160
 6.2100	 5.4310
 6.2170	 5.4520
 6.2250	 5.2240
 6.2320	 5.0960
 6.2400	 4.9980
 6.2470	 5.0590
 6.2550	 4.9460
 6.2630	 4.8460
 6.2700	 4.8010
 6.2780	 4.7710
 6.2850	 4.6220
 6.2930	 4.6890
 6.3010	 4.7480
 6.3080	 4.6890
 6.3160	 4.5420
 6.3240	 4.4840
 6.3310	 4.4450
 6.3390	 4.6040
 6.3470	 4.6190
 6.3550	 4.4600
 6.3620	 4.3440
 6.3700	 4.4630
 6.3780	 4.4330
 6.3860	 4.5600
 6.3940	 4.5160
 6.4020	 4.5530
 6.4100	 4.5280
 6.4180	 4.4950
 6.4260	 4.3840
 6.4330	 4.4250
 6.4410	 4.3980
 6.4490	 4.4500
 6.4580	 4.3670
 6.4660	 4.4070
 6.4740	 4.3190
 6.4820	 4.3640
 6.4900	 4.3950
 6.4980	 4.3520
 6.5060	 4.2200
 6.5140	 4.2090
 6.5230	 4.2210
 6.5310	 4.2350
 6.5390	 4.1390
 6.5470	 4.1880
 6.5550	 4.0570
 6.5640	 3.9750
 6.5720	 4.0100
 6.5800	 4.1290
 6.5890	 4.0710
 6.5970	 4.0140
 6.6060	 3.9060
 6.6140	 3.8940
 6.6220	 3.7810
 6.6310	 3.9260
 6.6390	 3.9820
 6.6480	 3.8800
 6.6560	 3.8210
 6.6650	 3.9710
 6.6740	 3.9000
 6.6820	 3.9850
 6.6910	 3.9480
 6.6990	 3.9630
 6.7080	 3.9250
 6.7170	 3.8410
 6.7260	 3.6710
 6.7340	 3.6210
 6.7430	 3.4800
 6.7520	 3.5750
 6.7610	 3.6100
 6.7690	 3.6540
 6.7780	 3.6790
 6.7870	 3.9480
 6.7960	 4.0560
 6.8050	 4.0440
 6.8140	 3.9240
 6.8230	 3.9460
 6.8320	 4.1270
 6.8410	 4.4000
 6.8500	 4.3950
 6.8590	 4.4490
 6.8680	 4.3000
 6.8770	 4.2470
 6.8860	 4.1480
 6.8950	 4.0720
 6.9050	 3.8820
 6.9140	 3.9140
 6.9230	 3.9620
 6.9320	 4.0990
 6.9420	 4.0010
 6.9510	 3.9670
 6.9600	 3.9010
 6.9700	 3.9600
 6.9790	 4.0350
 6.9880	 4.1130
 6.9980	 3.8880
 7.0070	 3.9070
 7.0170	 3.8150
 7.0260	 3.6680
 7.0360	 3.6930
 7.0450	 3.9010
 7.0550	 3.8520
 7.0650	 3.9640
 7.0740	 4.0170
 7.0840	 4.0760
 7.0940	 4.0350
 7.1030	 4.0970
 7.1130	 4.0940
 7.1230	 4.2160
 7.1330	 4.0130
 7.1420	 3.8800
 7.1520	 3.8090
 7.1620	 4.0320
 7.1720	 4.0250
 7.1820	 4.0620
 7.1920	 4.0970
 7.2020	 3.9890
 7.2120	 3.8930
 7.2220	 3.9990
 7.2320	 3.9150
 7.2420	 3.8670
 7.2520	 3.9580
 7.2620	 4.0700
 7.2730	 3.9650
 7.2830	 4.0030
 7.2930	 3.9450
 7.3030	 3.9520
 7.3140	 3.8640
 7.3240	 3.8740
 7.3340	 3.8470
 7.3450	 3.8630
 7.3550	 3.8050
 7.3660	 3.8540
 7.3760	 3.8950
 7.3870	 3.9390
 7.3970	 3.8370
 7.4080	 3.8570
 7.4180	 3.7760
 7.4290	 3.8310
 7.4400	 3.8150
 7.4500	 3.9820
 7.4610	 3.9990
 7.4720	 4.0160
 7.4830	 3.9410
 7.4930	 4.1860
 7.5040	 4.2640
 7.5150	 4.3150
 7.5260	 4.3250
 7.5370	 4.5100
 7.5480	 4.5310
 7.5590	 4.7130
 7.5700	 4.8350
 7.5810	 5.0110
 7.5920	 5.0010
 7.6030	 4.9970
 7.6140	 4.7430
 7.6260	 4.5820
 7.6370	 4.3510
 7.6480	 4.2760
 7.6590	 4.0230
 7.6710	 3.9700
 7.6820	 4.0010
 7.6930	 4.1360
 7.7050	 4.0730
 7.7160	 3.9890
 7.7280	 3.8000
 7.7390	 3.9250
 7.7510	 3.9880
 7.7630	 3.8800
 7.7740	 3.7590
 7.7860	 3.8910
 7.7980	 3.8600
 7.8090	 3.7610
 7.8210	 3.5870
 7.8330	 3.6130
 7.8450	 3.6160
 7.8570	 3.8010
 7.8690	 3.7840
 7.8810	 3.7700
 7.8930	 3.6990
 7.9050	 3.8540
 7.9170	 3.7670
 7.9290	 3.7900
 7.9410	 3.7830
 7.9530	 3.7810
 7.9650	 3.5690
 7.9780	 3.6820
 7.9900	 3.7410
 8.0020	 3.7230
 8.0150	 3.5980
 8.0270	 3.8330
 8.0390	 3.6900
 8.0520	 3.5980
 8.0640	 3.5100
 8.0770	 3.6730
 8.0900	 3.5580
 8.1020	 3.6520
 8.1150	 3.6230
 8.1280	 3.6350
 8.1400	 3.5900
 8.1530	 3.7460
 8.1660	 3.6330
 8.1790	 3.7280
 8.1920	 3.6610
 8.2050	 3.7990
 8.2180	 3.7450
 8.2310	 3.8890
 8.2440	 3.7980
 8.2570	 3.7300
 8.2700	 3.5590
 8.2830	 3.6860
 8.2970	 3.6500
 8.3100	 3.7160
 8.3230	 3.5900
 8.3370	 3.7290
 8.3500	 3.6190
 8.3640	 3.6360
 8.3770	 3.7330
 8.3910	 3.9570
 8.4040	 3.8780
 8.4180	 3.9350
 8.4320	 3.7090
 8.4450	 3.6240
 8.4590	 3.4270
 8.4730	 3.4960
 8.4870	 3.5170
 8.5010	 3.6350
 8.5150	 3.5750
 8.5290	 3.7860
 8.5430	 3.7030
 8.5570	 3.8270
 8.5710	 3.9290
 8.5850	 4.0540
 8.5990	 3.9060
 8.6140	 3.9500
 8.6280	 3.7500
 8.6420	 3.8760
 8.6570	 3.6950
 8.6710	 3.6810
 8.6860	 3.7480
 8.7000	 4.0120
 8.7150	 3.8920
 8.7300	 4.1360
 8.7440	 4.0800
 8.7590	 3.9580
 8.7740	 3.7650
 8.7890	 3.9110
 8.8040	 3.8560
 8.8190	 3.9540
 8.8340	 3.9190
 8.8490	 4.0570
 8.8640	 3.8340
 8.8790	 3.8470
 8.8940	 3.7890
 8.9100	 4.0320
 8.9250	 3.8220
 8.9400	 3.9470
 8.9560	 3.8730
 8.9710	 3.8230
 8.9870	 3.8010
 9.0020	 4.0480
 9.0180	 4.1350
 9.0340	 4.1530
 9.0500	 3.8110
 9.0650	 4.1390
 9.0810	 4.1960
 9.0970	 4.2710
 9.1130	 3.9140
 9.1290	 3.9010
 9.1450	 3.7940
 9.1610	 4.0070
 9.1780	 4.0700
 9.1940	 4.1910
 9.2100	 4.0010
 9.2270	 4.2110
 9.2430	 4.1720
 9.2600	 4.3720
 9.2760	 4.2200
 9.2930	 4.2520
 9.3090	 4.0450
 9.3260	 4.2160
 9.3430	 4.0250
 9.3600	 4.0000
 9.3770	 3.9920
 9.3940	 4.2780
 9.4110	 4.0960
 9.4280	 4.3790
 9.4450	 4.3180
 9.4620	 4.2880
 9.4800	 3.9080
 9.4970	 4.0550
 9.5140	 4.0740
 9.5320	 4.4390
 9.5500	 4.5050
 9.5670	 4.4990
 9.5850	 4.2450
 9.6030	 4.2700
 9.6200	 4.2080
 9.6380	 4.2950
 9.6560	 4.2350
 9.6740	 4.3740
 9.6920	 4.1430
 9.7100	 4.2650
 9.7290	 4.1960
 9.7470	 4.3990
 9.7650	 4.2150
 9.7840	 4.3830
 9.8020	 4.2290
 9.8210	 4.3240
 9.8390	 4.3140
 9.8580	 4.3310
 9.8770	 4.0330
 9.8960	 4.1700
 9.9150	 4.1620
 9.9340	 4.2780
 9.9530	 4.1940
 9.9720	 4.3270
 9.9910	 4.1110
10.0100	 4.2700
10.0300	 4.1370
10.0490	 4.3010
10.0690	 4.2020
10.0880	 4.1520
10.1080	 3.9150
10.1280	 4.0250
10.1480	 3.8910
10.1670	 4.1220
10.1870	 4.0890
10.2070	 4.1230
10.2280	 3.9930
10.2480	 4.0790
10.2680	 3.9130
10.2890	 3.9760
10.3090	 3.8250
10.3300	 3.9580
10.3500	 3.8410
10.3710	 3.8760
10.3920	 3.8740
10.4120	 4.1120
10.4330	 3.9270
10.4540	 4.1140
10.4760	 4.0480
10.4970	 4.1340
10.5180	 3.9030
10.5390	 3.8980
10.5610	 3.7710
10.5820	 3.8310
10.6040	 3.8590
10.6260	 4.2680
10.6480	 4.0190
10.6700	 3.8470
10.6920	 3.6570
10.7140	 3.7850
10.7360	 3.6120
10.7580	 3.9940
10.7800	 4.1240
10.8030	 4.1540
10.8250	 3.9840
10.8480	 4.0950
10.8710	 3.9650
10.8940	 4.1860
10.9170	 4.2380
10.9400	 4.4240
10.9630	 3.9020
10.9860	 3.8440
11.0090	 3.7970
11.0330	 3.8790
11.0560	 3.7230
11.0800	 3.9100
11.1040	 3.7380
11.1270	 3.8900
11.1510	 3.8520
11.1750	 3.9920
11.2000	 3.8440
11.2240	 4.1100
11.2480	 3.8770
11.2730	 3.9020
11.2970	 3.9090
11.3220	 4.1620
11.3470	 3.7500
11.3720	 4.0610
11.3970	 3.9000
11.4220	 3.9010
11.4470	 4.1610
11.4720	 4.6770
11.4980	 4.1480
11.5230	 3.9530
11.5490	 3.6680
11.5750	 3.8850
11.6000	 3.7350
11.6260	 3.9260
11.6530	 3.8040
11.6790	 3.9910
11.7050	 3.9030
11.7320	 3.9740
11.7580	 3.5900
11.7850	 3.7080
11.8120	 3.5380
11.8390	 3.6440
11.8660	 3.3080
11.8930	 3.5680
11.9200	 3.6350
11.9480	 3.9760
11.9760	 3.9430
12.0030	 3.9460
12.0310	 3.5980
12.0590	 3.7980
12.0870	 3.7260
12.1150	 4.1050
12.1440	 3.8520
12.1720	 4.0270
12.2010	 3.7130
12.2300	 3.8210
12.2590	 3.8580
12.2880	 4.0720
12.3170	 3.7040
12.3460	 3.9060
12.3760	 3.8130
12.4050	 4.1120
12.4350	 3.8420
12.4650	 3.9700
12.4950	 3.9040
12.5250	 3.9950
12.5550	 3.7580
12.5860	 4.1410
12.6170	 3.9210
12.6470	 4.2780
12.6780	 4.1430
12.7090	 4.3460
12.7410	 3.9460
12.7720	 3.9780
12.8030	 3.6860
12.8350	 3.6550
12.8670	 3.3470
12.8990	 3.6460
12.9310	 3.4100
12.9640	 3.5830
12.9960	 3.3500
13.0290	 3.6820
13.0610	 3.3720
13.0940	 3.3800
13.1280	 2.9540
13.1610	 3.3910
13.1940	 3.4960
13.2280	 3.9020
13.2620	 3.5270
13.2960	 3.7470
13.3300	 3.7470
13.3640	 3.8540
13.3990	 3.3190
13.4340	 3.4390
13.4690	 3.2970
13.5040	 3.7400
13.5390	 3.3580
13.5740	 3.5770
13.6100	 3.4490
13.6460	 3.9600
13.6820	 3.9310
13.7180	 4.1590
13.7540	 3.5870
13.7910	 3.9340
13.8280	 3.8410
13.8650	 3.9980
13.9020	 3.6590
13.9390	 4.1340
13.9770	 3.9940
14.0150	 4.2380
14.0530	 3.7380
14.0910	 3.9330
14.1290	 3.5980
14.1680	 4.0680
14.2070	 3.9100
14.2460	 4.1110
14.2850	 3.6940
14.3240	 4.0440
14.3640	 3.4130
14.4040	 3.6120
14.4440	 3.3370
14.4840	 4.1540
14.5250	 3.6360
14.5660	 4.2290
14.6070	 3.5570
14.6480	 3.7730
14.6900	 3.2970
14.7310	 3.9560
14.7730	 3.5750
14.8150	 4.4590
14.8580	 3.9090
14.9010	 3.9790
14.9440	 2.7400
14.9870	 3.9780
15.0300	 3.4830
15.0740	 3.6910
15.1180	 2.7790
15.1620	 3.3680
15.2060	 3.2340
15.2510	 3.7820
15.2960	 3.0400
15.3410	 3.5780
15.3870	 2.8940
