Name: Brachychiton rupestris
Type: vegetation
Class: Tree
Genus: Brachychiton
Species: rupestris
Sample No.: JPL084
Owner: JPL
Wavelength Range: VSWIR
Origin: 34.12478; - 118.11418; WGS84
Collection Date: 2/2/2016
Description: Samples were collected at the Huntington Garden in San Marino California as part of a JPL Subcontract studying HyTES imagery. Samples were taken to JPL and processed within 48 hours of collection. The same leaves were processed in the Nicolet and then measured using the ASD.
Measurement: Bidirectional reflectance
First Column: X
Second Column: Y
X Units: Wavelength (micrometer)
Y Units: Reflectance (percentage)
First X Value: 0.35
Last X Value: 2.5
Number of X Values: 2151
Additional Information: 

 0.3500	 8.3190
 0.3510	 7.9380
 0.3520	 8.0590
 0.3530	 7.8070
 0.3540	 6.7650
 0.3550	 6.7660
 0.3560	 6.7380
 0.3570	 6.9290
 0.3580	 8.0310
 0.3590	 8.7130
 0.3600	 8.0470
 0.3610	 6.6610
 0.3620	 7.5000
 0.3630	 7.6500
 0.3640	 7.5450
 0.3650	 7.8760
 0.3660	 7.1020
 0.3670	 6.7270
 0.3680	 7.0840
 0.3690	 7.5600
 0.3700	 7.9430
 0.3710	 7.6420
 0.3720	 6.8410
 0.3730	 7.3080
 0.3740	 7.0370
 0.3750	 6.8780
 0.3760	 7.9100
 0.3770	 7.9000
 0.3780	 7.5370
 0.3790	 7.3710
 0.3800	 7.6260
 0.3810	 7.0120
 0.3820	 6.8170
 0.3830	 7.6730
 0.3840	 7.9130
 0.3850	 7.7080
 0.3860	 7.3670
 0.3870	 7.2410
 0.3880	 7.2580
 0.3890	 7.2990
 0.3900	 7.2800
 0.3910	 7.1710
 0.3920	 7.4220
 0.3930	 7.5170
 0.3940	 7.2010
 0.3950	 7.4730
 0.3960	 7.3100
 0.3970	 7.0150
 0.3980	 7.3560
 0.3990	 7.5140
 0.4000	 7.7180
 0.4010	 7.8810
 0.4020	 7.3770
 0.4030	 7.4670
 0.4040	 7.8050
 0.4050	 7.7960
 0.4060	 7.3820
 0.4070	 7.2110
 0.4080	 7.3740
 0.4090	 7.5780
 0.4100	 7.7440
 0.4110	 7.7920
 0.4120	 7.7170
 0.4130	 7.6080
 0.4140	 7.6860
 0.4150	 7.7990
 0.4160	 7.7470
 0.4170	 7.7890
 0.4180	 7.7100
 0.4190	 7.6170
 0.4200	 7.8980
 0.4210	 7.9100
 0.4220	 7.8350
 0.4230	 7.8620
 0.4240	 7.7820
 0.4250	 7.8200
 0.4260	 7.8820
 0.4270	 7.7750
 0.4280	 7.7460
 0.4290	 7.8120
 0.4300	 7.9450
 0.4310	 8.1000
 0.4320	 8.0480
 0.4330	 7.9240
 0.4340	 7.9070
 0.4350	 7.9760
 0.4360	 7.9500
 0.4370	 7.8920
 0.4380	 8.0250
 0.4390	 8.0780
 0.4400	 8.0780
 0.4410	 8.0640
 0.4420	 7.9650
 0.4430	 8.0940
 0.4440	 8.2500
 0.4450	 8.1240
 0.4460	 8.0800
 0.4470	 8.0650
 0.4480	 8.0670
 0.4490	 8.1540
 0.4500	 8.1510
 0.4510	 8.1500
 0.4520	 8.2240
 0.4530	 8.1630
 0.4540	 8.1110
 0.4550	 8.1210
 0.4560	 8.1770
 0.4570	 8.2450
 0.4580	 8.2900
 0.4590	 8.2960
 0.4600	 8.2590
 0.4610	 8.2550
 0.4620	 8.2600
 0.4630	 8.2330
 0.4640	 8.2330
 0.4650	 8.2250
 0.4660	 8.2010
 0.4670	 8.1930
 0.4680	 8.2710
 0.4690	 8.3190
 0.4700	 8.2620
 0.4710	 8.2430
 0.4720	 8.2110
 0.4730	 8.2070
 0.4740	 8.2920
 0.4750	 8.2420
 0.4760	 8.2170
 0.4770	 8.2770
 0.4780	 8.2650
 0.4790	 8.2350
 0.4800	 8.2410
 0.4810	 8.3030
 0.4820	 8.2810
 0.4830	 8.2340
 0.4840	 8.2070
 0.4850	 8.2260
 0.4860	 8.2790
 0.4870	 8.3230
 0.4880	 8.3360
 0.4890	 8.3580
 0.4900	 8.3610
 0.4910	 8.3190
 0.4920	 8.2320
 0.4930	 8.2920
 0.4940	 8.3430
 0.4950	 8.3260
 0.4960	 8.3740
 0.4970	 8.4070
 0.4980	 8.4050
 0.4990	 8.3790
 0.5000	 8.4040
 0.5010	 8.4460
 0.5020	 8.4820
 0.5030	 8.5020
 0.5040	 8.5050
 0.5050	 8.4800
 0.5060	 8.4640
 0.5070	 8.6350
 0.5080	 8.6550
 0.5090	 8.5790
 0.5100	 8.6190
 0.5110	 8.7150
 0.5120	 8.7700
 0.5130	 8.7940
 0.5140	 8.9380
 0.5150	 8.9870
 0.5160	 9.0010
 0.5170	 9.0790
 0.5180	 9.1620
 0.5190	 9.2640
 0.5200	 9.3680
 0.5210	 9.4390
 0.5220	 9.5380
 0.5230	 9.6300
 0.5240	 9.6960
 0.5250	 9.7840
 0.5260	 9.9040
 0.5270	10.0200
 0.5280	10.0880
 0.5290	10.1920
 0.5300	10.2830
 0.5310	10.3430
 0.5320	10.4040
 0.5330	10.4930
 0.5340	10.5570
 0.5350	10.5650
 0.5360	10.6310
 0.5370	10.6810
 0.5380	10.6920
 0.5390	10.6840
 0.5400	10.7280
 0.5410	10.7710
 0.5420	10.7890
 0.5430	10.8630
 0.5440	10.8660
 0.5450	10.8320
 0.5460	10.8420
 0.5470	10.8790
 0.5480	10.9040
 0.5490	10.9130
 0.5500	10.9480
 0.5510	10.9410
 0.5520	10.9130
 0.5530	10.8990
 0.5540	10.9030
 0.5550	10.9140
 0.5560	10.8930
 0.5570	10.7970
 0.5580	10.7450
 0.5590	10.7290
 0.5600	10.7100
 0.5610	10.6250
 0.5620	10.5500
 0.5630	10.4940
 0.5640	10.4420
 0.5650	10.3840
 0.5660	10.3210
 0.5670	10.2560
 0.5680	10.1920
 0.5690	10.1260
 0.5700	10.0430
 0.5710	 9.9450
 0.5720	 9.8970
 0.5730	 9.8550
 0.5740	 9.8110
 0.5750	 9.7800
 0.5760	 9.7170
 0.5770	 9.6600
 0.5780	 9.6290
 0.5790	 9.6030
 0.5800	 9.5610
 0.5810	 9.5190
 0.5820	 9.4980
 0.5830	 9.4760
 0.5840	 9.4510
 0.5850	 9.4230
 0.5860	 9.4010
 0.5870	 9.3730
 0.5880	 9.3560
 0.5890	 9.3540
 0.5900	 9.3280
 0.5910	 9.2880
 0.5920	 9.2570
 0.5930	 9.2620
 0.5940	 9.2640
 0.5950	 9.2640
 0.5960	 9.2670
 0.5970	 9.2710
 0.5980	 9.2520
 0.5990	 9.2210
 0.6000	 9.2000
 0.6010	 9.2070
 0.6020	 9.2080
 0.6030	 9.1850
 0.6040	 9.1390
 0.6050	 9.1260
 0.6060	 9.1240
 0.6070	 9.1090
 0.6080	 9.0750
 0.6090	 9.0360
 0.6100	 9.0000
 0.6110	 8.9690
 0.6120	 8.9430
 0.6130	 8.9360
 0.6140	 8.9360
 0.6150	 8.8870
 0.6160	 8.8530
 0.6170	 8.8310
 0.6180	 8.8040
 0.6190	 8.7820
 0.6200	 8.7650
 0.6210	 8.7550
 0.6220	 8.7510
 0.6230	 8.7460
 0.6240	 8.7420
 0.6250	 8.7370
 0.6260	 8.7090
 0.6270	 8.6830
 0.6280	 8.6660
 0.6290	 8.6560
 0.6300	 8.6880
 0.6310	 8.6990
 0.6320	 8.6780
 0.6330	 8.6810
 0.6340	 8.6810
 0.6350	 8.6810
 0.6360	 8.6800
 0.6370	 8.6590
 0.6380	 8.6310
 0.6390	 8.6070
 0.6400	 8.5980
 0.6410	 8.6160
 0.6420	 8.6130
 0.6430	 8.5750
 0.6440	 8.5490
 0.6450	 8.5120
 0.6460	 8.4940
 0.6470	 8.5190
 0.6480	 8.5010
 0.6490	 8.5020
 0.6500	 8.5160
 0.6510	 8.4810
 0.6520	 8.4860
 0.6530	 8.4920
 0.6540	 8.4710
 0.6550	 8.4650
 0.6560	 8.4510
 0.6570	 8.4360
 0.6580	 8.4310
 0.6590	 8.4400
 0.6600	 8.4140
 0.6610	 8.3670
 0.6620	 8.3710
 0.6630	 8.3640
 0.6640	 8.3570
 0.6650	 8.3580
 0.6660	 8.3270
 0.6670	 8.3200
 0.6680	 8.3260
 0.6690	 8.3070
 0.6700	 8.3300
 0.6710	 8.3450
 0.6720	 8.3310
 0.6730	 8.3320
 0.6740	 8.3610
 0.6750	 8.3990
 0.6760	 8.4220
 0.6770	 8.4280
 0.6780	 8.4470
 0.6790	 8.4800
 0.6800	 8.5070
 0.6810	 8.5390
 0.6820	 8.5740
 0.6830	 8.6100
 0.6840	 8.6550
 0.6850	 8.7090
 0.6860	 8.7580
 0.6870	 8.7930
 0.6880	 8.8390
 0.6890	 8.9090
 0.6900	 8.9830
 0.6910	 9.0200
 0.6920	 9.1310
 0.6930	 9.2530
 0.6940	 9.3590
 0.6950	 9.5440
 0.6960	 9.7500
 0.6970	 9.9770
 0.6980	10.2440
 0.6990	10.5720
 0.7000	10.9540
 0.7010	11.3800
 0.7020	11.8340
 0.7030	12.3090
 0.7040	12.8320
 0.7050	13.4080
 0.7060	13.9900
 0.7070	14.6380
 0.7080	15.3240
 0.7090	16.0070
 0.7100	16.7040
 0.7110	17.4450
 0.7120	18.2320
 0.7130	19.0430
 0.7140	19.8730
 0.7150	20.7270
 0.7160	21.6080
 0.7170	22.5100
 0.7180	23.4340
 0.7190	24.3780
 0.7200	25.3370
 0.7210	26.2850
 0.7220	27.2420
 0.7230	28.2190
 0.7240	29.2060
 0.7250	30.1750
 0.7260	31.1180
 0.7270	32.0390
 0.7280	32.9720
 0.7290	33.8890
 0.7300	34.7790
 0.7310	35.6360
 0.7320	36.4640
 0.7330	37.2730
 0.7340	38.0500
 0.7350	38.7650
 0.7360	39.4940
 0.7370	40.1750
 0.7380	40.7770
 0.7390	41.4120
 0.7400	41.9920
 0.7410	42.5220
 0.7420	43.0300
 0.7430	43.4890
 0.7440	43.9160
 0.7450	44.3300
 0.7460	44.7420
 0.7470	45.0870
 0.7480	45.3930
 0.7490	45.6900
 0.7500	45.9720
 0.7510	46.2200
 0.7520	46.4360
 0.7530	46.6310
 0.7540	46.8280
 0.7550	47.0060
 0.7560	47.1540
 0.7570	47.2770
 0.7580	47.4130
 0.7590	47.5420
 0.7600	47.6480
 0.7610	47.7280
 0.7620	47.8140
 0.7630	47.8950
 0.7640	47.9560
 0.7650	48.0230
 0.7660	48.0700
 0.7670	48.0990
 0.7680	48.1300
 0.7690	48.1650
 0.7700	48.1970
 0.7710	48.2270
 0.7720	48.2600
 0.7730	48.3000
 0.7740	48.3150
 0.7750	48.2960
 0.7760	48.3380
 0.7770	48.3610
 0.7780	48.3520
 0.7790	48.3370
 0.7800	48.3340
 0.7810	48.3450
 0.7820	48.3640
 0.7830	48.3800
 0.7840	48.3740
 0.7850	48.3710
 0.7860	48.3840
 0.7870	48.3770
 0.7880	48.3790
 0.7890	48.3820
 0.7900	48.3710
 0.7910	48.3570
 0.7920	48.3450
 0.7930	48.3340
 0.7940	48.3210
 0.7950	48.3150
 0.7960	48.2990
 0.7970	48.2800
 0.7980	48.3050
 0.7990	48.3020
 0.8000	48.2790
 0.8010	48.2600
 0.8020	48.2480
 0.8030	48.2440
 0.8040	48.2360
 0.8050	48.2110
 0.8060	48.1880
 0.8070	48.1810
 0.8080	48.1730
 0.8090	48.1290
 0.8100	48.1090
 0.8110	48.1190
 0.8120	48.1360
 0.8130	48.0990
 0.8140	48.0540
 0.8150	48.0380
 0.8160	48.0590
 0.8170	48.0370
 0.8180	48.0030
 0.8190	47.9850
 0.8200	47.9960
 0.8210	47.9800
 0.8220	47.9510
 0.8230	47.9310
 0.8240	47.9380
 0.8250	47.9520
 0.8260	47.9390
 0.8270	47.9060
 0.8280	47.9260
 0.8290	47.9200
 0.8300	47.8910
 0.8310	47.8630
 0.8320	47.8710
 0.8330	47.8820
 0.8340	47.8900
 0.8350	47.8970
 0.8360	47.8860
 0.8370	47.8470
 0.8380	47.8080
 0.8390	47.8240
 0.8400	47.8400
 0.8410	47.8640
 0.8420	47.8850
 0.8430	47.8720
 0.8440	47.8860
 0.8450	47.9040
 0.8460	47.9010
 0.8470	47.8920
 0.8480	47.9020
 0.8490	47.9120
 0.8500	47.9080
 0.8510	47.9400
 0.8520	47.9480
 0.8530	47.9370
 0.8540	47.9480
 0.8550	47.9770
 0.8560	47.9880
 0.8570	47.9800
 0.8580	47.9930
 0.8590	48.0230
 0.8600	48.0420
 0.8610	48.0450
 0.8620	48.0750
 0.8630	48.0760
 0.8640	48.0750
 0.8650	48.1000
 0.8660	48.1210
 0.8670	48.1250
 0.8680	48.1220
 0.8690	48.1350
 0.8700	48.1760
 0.8710	48.1940
 0.8720	48.1720
 0.8730	48.1330
 0.8740	48.2180
 0.8750	48.2660
 0.8760	48.2490
 0.8770	48.2790
 0.8780	48.3100
 0.8790	48.3240
 0.8800	48.3210
 0.8810	48.3200
 0.8820	48.3280
 0.8830	48.3260
 0.8840	48.3260
 0.8850	48.4190
 0.8860	48.4030
 0.8870	48.3660
 0.8880	48.4190
 0.8890	48.4280
 0.8900	48.4300
 0.8910	48.4390
 0.8920	48.4520
 0.8930	48.4370
 0.8940	48.4340
 0.8950	48.4630
 0.8960	48.5170
 0.8970	48.5130
 0.8980	48.4980
 0.8990	48.4910
 0.9000	48.4830
 0.9010	48.5230
 0.9020	48.5250
 0.9030	48.4900
 0.9040	48.5530
 0.9050	48.5660
 0.9060	48.5560
 0.9070	48.5540
 0.9080	48.5340
 0.9090	48.5020
 0.9100	48.4890
 0.9110	48.5060
 0.9120	48.4970
 0.9130	48.5060
 0.9140	48.5300
 0.9150	48.5460
 0.9160	48.5170
 0.9170	48.5040
 0.9180	48.4960
 0.9190	48.4670
 0.9200	48.4910
 0.9210	48.4960
 0.9220	48.4780
 0.9230	48.4660
 0.9240	48.4190
 0.9250	48.4180
 0.9260	48.4440
 0.9270	48.4080
 0.9280	48.4010
 0.9290	48.3850
 0.9300	48.3440
 0.9310	48.2930
 0.9320	48.2760
 0.9330	48.2890
 0.9340	48.2990
 0.9350	48.2590
 0.9360	48.2520
 0.9370	48.2420
 0.9380	48.2160
 0.9390	48.2230
 0.9400	48.1790
 0.9410	48.1140
 0.9420	48.0700
 0.9430	48.0670
 0.9440	47.9780
 0.9450	47.8960
 0.9460	47.9000
 0.9470	47.9230
 0.9480	47.8680
 0.9490	47.8370
 0.9500	47.8800
 0.9510	47.7800
 0.9520	47.7080
 0.9530	47.6230
 0.9540	47.4910
 0.9550	47.4740
 0.9560	47.4490
 0.9570	47.3910
 0.9580	47.3270
 0.9590	47.3320
 0.9600	47.2830
 0.9610	47.2330
 0.9620	47.2470
 0.9630	47.1900
 0.9640	47.1210
 0.9650	47.0790
 0.9660	47.0840
 0.9670	47.1480
 0.9680	47.0920
 0.9690	46.9850
 0.9700	46.9730
 0.9710	47.0150
 0.9720	47.0550
 0.9730	47.0300
 0.9740	46.9350
 0.9750	47.0000
 0.9760	47.0050
 0.9770	46.9210
 0.9780	46.8450
 0.9790	46.9220
 0.9800	46.9600
 0.9810	46.9080
 0.9820	46.8280
 0.9830	46.8690
 0.9840	46.8770
 0.9850	46.8620
 0.9860	46.9030
 0.9870	46.9180
 0.9880	46.9880
 0.9890	47.0490
 0.9900	47.0030
 0.9910	46.9600
 0.9920	46.9530
 0.9930	46.9860
 0.9940	47.0350
 0.9950	47.0370
 0.9960	47.0160
 0.9970	47.0450
 0.9980	47.1310
 0.9990	46.9050
 1.0000	46.9260
 1.0010	47.2170
 1.0020	47.2420
 1.0030	47.2880
 1.0040	47.3190
 1.0050	47.3460
 1.0060	47.3510
 1.0070	47.3710
 1.0080	47.3820
 1.0090	47.3810
 1.0100	47.3890
 1.0110	47.4040
 1.0120	47.4020
 1.0130	47.3790
 1.0140	47.3920
 1.0150	47.4200
 1.0160	47.4360
 1.0170	47.4710
 1.0180	47.4940
 1.0190	47.4880
 1.0200	47.4930
 1.0210	47.5130
 1.0220	47.5440
 1.0230	47.5640
 1.0240	47.5890
 1.0250	47.6050
 1.0260	47.6130
 1.0270	47.6200
 1.0280	47.6230
 1.0290	47.6330
 1.0300	47.6450
 1.0310	47.6550
 1.0320	47.6770
 1.0330	47.6780
 1.0340	47.6830
 1.0350	47.6940
 1.0360	47.7050
 1.0370	47.7300
 1.0380	47.7430
 1.0390	47.7520
 1.0400	47.7640
 1.0410	47.7790
 1.0420	47.7870
 1.0430	47.7890
 1.0440	47.8020
 1.0450	47.8160
 1.0460	47.8230
 1.0470	47.8210
 1.0480	47.8440
 1.0490	47.8830
 1.0500	47.9050
 1.0510	47.9360
 1.0520	47.9710
 1.0530	47.9950
 1.0540	48.0020
 1.0550	48.0060
 1.0560	48.0060
 1.0570	48.0160
 1.0580	48.0220
 1.0590	48.0230
 1.0600	48.0370
 1.0610	48.0370
 1.0620	48.0060
 1.0630	47.9980
 1.0640	47.9990
 1.0650	48.0040
 1.0660	48.0270
 1.0670	48.0350
 1.0680	48.0400
 1.0690	48.0390
 1.0700	48.0500
 1.0710	48.0610
 1.0720	48.0640
 1.0730	48.0780
 1.0740	48.0780
 1.0750	48.0490
 1.0760	48.0550
 1.0770	48.0800
 1.0780	48.0970
 1.0790	48.1380
 1.0800	48.1510
 1.0810	48.1340
 1.0820	48.1360
 1.0830	48.1390
 1.0840	48.1370
 1.0850	48.1540
 1.0860	48.1520
 1.0870	48.1370
 1.0880	48.0960
 1.0890	48.0850
 1.0900	48.0660
 1.0910	48.0700
 1.0920	48.1060
 1.0930	48.1160
 1.0940	48.1310
 1.0950	48.1300
 1.0960	48.1060
 1.0970	48.0940
 1.0980	48.0790
 1.0990	48.0690
 1.1000	48.0700
 1.1010	48.0670
 1.1020	48.0800
 1.1030	48.0630
 1.1040	48.0310
 1.1050	48.0110
 1.1060	47.9960
 1.1070	47.9770
 1.1080	47.9620
 1.1090	47.9650
 1.1100	47.9490
 1.1110	47.9080
 1.1120	47.8950
 1.1130	47.8890
 1.1140	47.8880
 1.1150	47.9180
 1.1160	47.9140
 1.1170	47.8920
 1.1180	47.8730
 1.1190	47.8320
 1.1200	47.8070
 1.1210	47.7790
 1.1220	47.7490
 1.1230	47.7250
 1.1240	47.6760
 1.1250	47.6330
 1.1260	47.5900
 1.1270	47.5470
 1.1280	47.5070
 1.1290	47.4480
 1.1300	47.3840
 1.1310	47.3160
 1.1320	47.2340
 1.1330	47.1540
 1.1340	47.0810
 1.1350	46.9970
 1.1360	46.9020
 1.1370	46.8030
 1.1380	46.7070
 1.1390	46.5920
 1.1400	46.4790
 1.1410	46.3640
 1.1420	46.2430
 1.1430	46.1290
 1.1440	46.0120
 1.1450	45.8890
 1.1460	45.7760
 1.1470	45.6670
 1.1480	45.5590
 1.1490	45.4500
 1.1500	45.3520
 1.1510	45.2560
 1.1520	45.1710
 1.1530	45.0990
 1.1540	45.0250
 1.1550	44.9590
 1.1560	44.8880
 1.1570	44.8070
 1.1580	44.7430
 1.1590	44.6850
 1.1600	44.6290
 1.1610	44.5860
 1.1620	44.5480
 1.1630	44.5160
 1.1640	44.4920
 1.1650	44.4690
 1.1660	44.4560
 1.1670	44.4370
 1.1680	44.4180
 1.1690	44.3970
 1.1700	44.3750
 1.1710	44.3520
 1.1720	44.3150
 1.1730	44.2970
 1.1740	44.2900
 1.1750	44.2810
 1.1760	44.2620
 1.1770	44.2380
 1.1780	44.2000
 1.1790	44.1570
 1.1800	44.1260
 1.1810	44.1080
 1.1820	44.1000
 1.1830	44.1040
 1.1840	44.1040
 1.1850	44.0970
 1.1860	44.0830
 1.1870	44.0470
 1.1880	44.0230
 1.1890	44.0000
 1.1900	43.9900
 1.1910	43.9930
 1.1920	43.9880
 1.1930	43.9880
 1.1940	43.9730
 1.1950	43.9430
 1.1960	43.9230
 1.1970	43.9020
 1.1980	43.9040
 1.1990	43.9060
 1.2000	43.8930
 1.2010	43.8870
 1.2020	43.8790
 1.2030	43.8770
 1.2040	43.8950
 1.2050	43.9070
 1.2060	43.9130
 1.2070	43.9360
 1.2080	43.9500
 1.2090	43.9660
 1.2100	43.9960
 1.2110	44.0150
 1.2120	44.0280
 1.2130	44.0460
 1.2140	44.0530
 1.2150	44.0730
 1.2160	44.1010
 1.2170	44.1310
 1.2180	44.1640
 1.2190	44.2040
 1.2200	44.2370
 1.2210	44.2620
 1.2220	44.2970
 1.2230	44.3390
 1.2240	44.3850
 1.2250	44.4220
 1.2260	44.4420
 1.2270	44.4710
 1.2280	44.4870
 1.2290	44.4960
 1.2300	44.5170
 1.2310	44.5290
 1.2320	44.5430
 1.2330	44.5720
 1.2340	44.5990
 1.2350	44.6330
 1.2360	44.6550
 1.2370	44.6730
 1.2380	44.6950
 1.2390	44.7060
 1.2400	44.7200
 1.2410	44.7420
 1.2420	44.7460
 1.2430	44.7560
 1.2440	44.7750
 1.2450	44.7850
 1.2460	44.7940
 1.2470	44.8090
 1.2480	44.8230
 1.2490	44.8390
 1.2500	44.8630
 1.2510	44.8820
 1.2520	44.8940
 1.2530	44.8910
 1.2540	44.8840
 1.2550	44.8830
 1.2560	44.8790
 1.2570	44.8890
 1.2580	44.9010
 1.2590	44.9070
 1.2600	44.9140
 1.2610	44.9150
 1.2620	44.9060
 1.2630	44.9000
 1.2640	44.9070
 1.2650	44.9030
 1.2660	44.9050
 1.2670	44.9120
 1.2680	44.9110
 1.2690	44.9170
 1.2700	44.9250
 1.2710	44.9220
 1.2720	44.9190
 1.2730	44.9110
 1.2740	44.8940
 1.2750	44.8830
 1.2760	44.8720
 1.2770	44.8610
 1.2780	44.8560
 1.2790	44.8450
 1.2800	44.8290
 1.2810	44.8140
 1.2820	44.7890
 1.2830	44.7650
 1.2840	44.7380
 1.2850	44.7070
 1.2860	44.6900
 1.2870	44.6670
 1.2880	44.6430
 1.2890	44.6180
 1.2900	44.5970
 1.2910	44.5680
 1.2920	44.5420
 1.2930	44.5270
 1.2940	44.5070
 1.2950	44.4660
 1.2960	44.4300
 1.2970	44.3870
 1.2980	44.3320
 1.2990	44.2950
 1.3000	44.2520
 1.3010	44.1950
 1.3020	44.1550
 1.3030	44.1100
 1.3040	44.0620
 1.3050	44.0290
 1.3060	43.9870
 1.3070	43.9290
 1.3080	43.8670
 1.3090	43.8030
 1.3100	43.7280
 1.3110	43.6590
 1.3120	43.5960
 1.3130	43.5290
 1.3140	43.4600
 1.3150	43.3950
 1.3160	43.3190
 1.3170	43.2370
 1.3180	43.1490
 1.3190	43.0630
 1.3200	42.9770
 1.3210	42.8780
 1.3220	42.7820
 1.3230	42.6710
 1.3240	42.5550
 1.3250	42.4500
 1.3260	42.3390
 1.3270	42.2410
 1.3280	42.1370
 1.3290	42.0310
 1.3300	41.9300
 1.3310	41.8150
 1.3320	41.7030
 1.3330	41.5750
 1.3340	41.4400
 1.3350	41.3080
 1.3360	41.1780
 1.3370	41.0650
 1.3380	40.9540
 1.3390	40.8460
 1.3400	40.7240
 1.3410	40.5910
 1.3420	40.4730
 1.3430	40.3530
 1.3440	40.2360
 1.3450	40.1180
 1.3460	40.0060
 1.3470	39.8860
 1.3480	39.7600
 1.3490	39.6450
 1.3500	39.5320
 1.3510	39.4260
 1.3520	39.3300
 1.3530	39.2230
 1.3540	39.1180
 1.3550	39.0100
 1.3560	38.8920
 1.3570	38.7820
 1.3580	38.6710
 1.3590	38.5540
 1.3600	38.4370
 1.3610	38.3130
 1.3620	38.1800
 1.3630	38.0440
 1.3640	37.9110
 1.3650	37.7700
 1.3660	37.6230
 1.3670	37.4640
 1.3680	37.2900
 1.3690	37.1090
 1.3700	36.9150
 1.3710	36.7160
 1.3720	36.5010
 1.3730	36.2640
 1.3740	36.0090
 1.3750	35.7360
 1.3760	35.4520
 1.3770	35.1450
 1.3780	34.8160
 1.3790	34.4670
 1.3800	34.0900
 1.3810	33.6950
 1.3820	33.2780
 1.3830	32.8380
 1.3840	32.3820
 1.3850	31.9040
 1.3860	31.4100
 1.3870	30.8950
 1.3880	30.3760
 1.3890	29.8390
 1.3900	29.3030
 1.3910	28.7680
 1.3920	28.2230
 1.3930	27.6770
 1.3940	27.1290
 1.3950	26.5740
 1.3960	26.0290
 1.3970	25.4960
 1.3980	24.9750
 1.3990	24.4760
 1.4000	23.9950
 1.4010	23.5320
 1.4020	23.0810
 1.4030	22.6420
 1.4040	22.2240
 1.4050	21.8290
 1.4060	21.4540
 1.4070	21.1060
 1.4080	20.7760
 1.4090	20.4610
 1.4100	20.1670
 1.4110	19.8930
 1.4120	19.6320
 1.4130	19.3890
 1.4140	19.1620
 1.4150	18.9530
 1.4160	18.7620
 1.4170	18.5890
 1.4180	18.4260
 1.4190	18.2680
 1.4200	18.1220
 1.4210	17.9860
 1.4220	17.8670
 1.4230	17.7620
 1.4240	17.6630
 1.4250	17.5680
 1.4260	17.4750
 1.4270	17.3900
 1.4280	17.3110
 1.4290	17.2410
 1.4300	17.1810
 1.4310	17.1270
 1.4320	17.0830
 1.4330	17.0370
 1.4340	16.9950
 1.4350	16.9540
 1.4360	16.9110
 1.4370	16.8800
 1.4380	16.8560
 1.4390	16.8360
 1.4400	16.8270
 1.4410	16.8180
 1.4420	16.8080
 1.4430	16.8000
 1.4440	16.7860
 1.4450	16.7710
 1.4460	16.7640
 1.4470	16.7610
 1.4480	16.7710
 1.4490	16.7830
 1.4500	16.7910
 1.4510	16.8010
 1.4520	16.8070
 1.4530	16.8150
 1.4540	16.8320
 1.4550	16.8500
 1.4560	16.8680
 1.4570	16.8920
 1.4580	16.9150
 1.4590	16.9420
 1.4600	16.9760
 1.4610	17.0070
 1.4620	17.0440
 1.4630	17.0890
 1.4640	17.1330
 1.4650	17.1880
 1.4660	17.2480
 1.4670	17.3020
 1.4680	17.3610
 1.4690	17.4240
 1.4700	17.4880
 1.4710	17.5660
 1.4720	17.6510
 1.4730	17.7360
 1.4740	17.8250
 1.4750	17.9140
 1.4760	18.0080
 1.4770	18.1030
 1.4780	18.2040
 1.4790	18.3090
 1.4800	18.4140
 1.4810	18.5190
 1.4820	18.6240
 1.4830	18.7270
 1.4840	18.8290
 1.4850	18.9330
 1.4860	19.0400
 1.4870	19.1490
 1.4880	19.2610
 1.4890	19.3780
 1.4900	19.4940
 1.4910	19.6130
 1.4920	19.7300
 1.4930	19.8450
 1.4940	19.9600
 1.4950	20.0760
 1.4960	20.1920
 1.4970	20.3060
 1.4980	20.4250
 1.4990	20.5480
 1.5000	20.6700
 1.5010	20.7930
 1.5020	20.9170
 1.5030	21.0420
 1.5040	21.1670
 1.5050	21.2980
 1.5060	21.4220
 1.5070	21.5380
 1.5080	21.6580
 1.5090	21.7750
 1.5100	21.8940
 1.5110	22.0200
 1.5120	22.1450
 1.5130	22.2640
 1.5140	22.3860
 1.5150	22.5060
 1.5160	22.6230
 1.5170	22.7430
 1.5180	22.8610
 1.5190	22.9820
 1.5200	23.1070
 1.5210	23.2300
 1.5220	23.3530
 1.5230	23.4750
 1.5240	23.5920
 1.5250	23.7100
 1.5260	23.8280
 1.5270	23.9440
 1.5280	24.0640
 1.5290	24.1700
 1.5300	24.2730
 1.5310	24.3780
 1.5320	24.4760
 1.5330	24.5820
 1.5340	24.6940
 1.5350	24.8090
 1.5360	24.9240
 1.5370	25.0350
 1.5380	25.1470
 1.5390	25.2520
 1.5400	25.3530
 1.5410	25.4620
 1.5420	25.5690
 1.5430	25.6730
 1.5440	25.7800
 1.5450	25.8810
 1.5460	25.9850
 1.5470	26.0790
 1.5480	26.1660
 1.5490	26.2620
 1.5500	26.3500
 1.5510	26.4440
 1.5520	26.5570
 1.5530	26.6620
 1.5540	26.7640
 1.5550	26.8650
 1.5560	26.9510
 1.5570	27.0290
 1.5580	27.1150
 1.5590	27.2090
 1.5600	27.3000
 1.5610	27.3930
 1.5620	27.4790
 1.5630	27.5600
 1.5640	27.6430
 1.5650	27.7220
 1.5660	27.8080
 1.5670	27.8970
 1.5680	27.9840
 1.5690	28.0690
 1.5700	28.1480
 1.5710	28.2170
 1.5720	28.2810
 1.5730	28.3600
 1.5740	28.4430
 1.5750	28.5290
 1.5760	28.6160
 1.5770	28.6840
 1.5780	28.7550
 1.5790	28.8190
 1.5800	28.8740
 1.5810	28.9390
 1.5820	29.0020
 1.5830	29.0690
 1.5840	29.1400
 1.5850	29.2030
 1.5860	29.2770
 1.5870	29.3500
 1.5880	29.4220
 1.5890	29.5000
 1.5900	29.5620
 1.5910	29.6190
 1.5920	29.6850
 1.5930	29.7460
 1.5940	29.8120
 1.5950	29.8820
 1.5960	29.9480
 1.5970	30.0170
 1.5980	30.0870
 1.5990	30.1520
 1.6000	30.2150
 1.6010	30.2790
 1.6020	30.3350
 1.6030	30.3860
 1.6040	30.4400
 1.6050	30.4960
 1.6060	30.5540
 1.6070	30.6120
 1.6080	30.6680
 1.6090	30.7200
 1.6100	30.7740
 1.6110	30.8290
 1.6120	30.8840
 1.6130	30.9350
 1.6140	30.9790
 1.6150	31.0230
 1.6160	31.0680
 1.6170	31.1100
 1.6180	31.1540
 1.6190	31.2000
 1.6200	31.2440
 1.6210	31.2790
 1.6220	31.3190
 1.6230	31.3550
 1.6240	31.3880
 1.6250	31.4330
 1.6260	31.4750
 1.6270	31.5170
 1.6280	31.5680
 1.6290	31.6070
 1.6300	31.6420
 1.6310	31.6730
 1.6320	31.6920
 1.6330	31.7200
 1.6340	31.7530
 1.6350	31.7790
 1.6360	31.8040
 1.6370	31.8240
 1.6380	31.8310
 1.6390	31.8500
 1.6400	31.8710
 1.6410	31.8940
 1.6420	31.9240
 1.6430	31.9450
 1.6440	31.9680
 1.6450	31.9800
 1.6460	32.0000
 1.6470	32.0170
 1.6480	32.0290
 1.6490	32.0370
 1.6500	32.0370
 1.6510	32.0370
 1.6520	32.0430
 1.6530	32.0490
 1.6540	32.0570
 1.6550	32.0620
 1.6560	32.0540
 1.6570	32.0460
 1.6580	32.0310
 1.6590	32.0180
 1.6600	32.0100
 1.6610	32.0040
 1.6620	32.0140
 1.6630	32.0130
 1.6640	32.0070
 1.6650	32.0080
 1.6660	31.9930
 1.6670	31.9850
 1.6680	31.9870
 1.6690	31.9610
 1.6700	31.9390
 1.6710	31.9230
 1.6720	31.8950
 1.6730	31.8790
 1.6740	31.8630
 1.6750	31.8320
 1.6760	31.7970
 1.6770	31.7630
 1.6780	31.7240
 1.6790	31.6810
 1.6800	31.6540
 1.6810	31.6270
 1.6820	31.5910
 1.6830	31.5580
 1.6840	31.5130
 1.6850	31.4620
 1.6860	31.4190
 1.6870	31.3680
 1.6880	31.3190
 1.6890	31.2670
 1.6900	31.2200
 1.6910	31.1840
 1.6920	31.1380
 1.6930	31.0890
 1.6940	31.0370
 1.6950	30.9780
 1.6960	30.9190
 1.6970	30.8560
 1.6980	30.7950
 1.6990	30.7270
 1.7000	30.6700
 1.7010	30.6220
 1.7020	30.5640
 1.7030	30.5120
 1.7040	30.4510
 1.7050	30.3800
 1.7060	30.3150
 1.7070	30.2500
 1.7080	30.1830
 1.7090	30.1210
 1.7100	30.0510
 1.7110	29.9700
 1.7120	29.9160
 1.7130	29.8580
 1.7140	29.8000
 1.7150	29.7480
 1.7160	29.6870
 1.7170	29.6220
 1.7180	29.5700
 1.7190	29.5220
 1.7200	29.4750
 1.7210	29.4270
 1.7220	29.3780
 1.7230	29.3340
 1.7240	29.2780
 1.7250	29.2270
 1.7260	29.1880
 1.7270	29.1480
 1.7280	29.1200
 1.7290	29.0900
 1.7300	29.0450
 1.7310	29.0150
 1.7320	28.9920
 1.7330	28.9720
 1.7340	28.9660
 1.7350	28.9530
 1.7360	28.9420
 1.7370	28.9240
 1.7380	28.9020
 1.7390	28.8760
 1.7400	28.8400
 1.7410	28.8130
 1.7420	28.7980
 1.7430	28.7670
 1.7440	28.7380
 1.7450	28.6920
 1.7460	28.6230
 1.7470	28.5670
 1.7480	28.5090
 1.7490	28.4550
 1.7500	28.4070
 1.7510	28.3560
 1.7520	28.3090
 1.7530	28.2500
 1.7540	28.1850
 1.7550	28.1220
 1.7560	28.0480
 1.7570	27.9980
 1.7580	27.9550
 1.7590	27.9120
 1.7600	27.8730
 1.7610	27.8200
 1.7620	27.7750
 1.7630	27.7340
 1.7640	27.6930
 1.7650	27.6530
 1.7660	27.6200
 1.7670	27.5940
 1.7680	27.5650
 1.7690	27.5440
 1.7700	27.5180
 1.7710	27.4880
 1.7720	27.4600
 1.7730	27.4310
 1.7740	27.4040
 1.7750	27.3770
 1.7760	27.3520
 1.7770	27.3270
 1.7780	27.3080
 1.7790	27.2900
 1.7800	27.2770
 1.7810	27.2730
 1.7820	27.2560
 1.7830	27.2320
 1.7840	27.2160
 1.7850	27.1950
 1.7860	27.1860
 1.7870	27.1900
 1.7880	27.1810
 1.7890	27.1770
 1.7900	27.1800
 1.7910	27.1750
 1.7920	27.1650
 1.7930	27.1660
 1.7940	27.1720
 1.7950	27.1710
 1.7960	27.1790
 1.7970	27.1790
 1.7980	27.1550
 1.7990	27.1550
 1.8000	27.1710
 1.8010	27.1810
 1.8020	27.2020
 1.8030	27.2140
 1.8040	27.2160
 1.8050	27.2280
 1.8060	27.2450
 1.8070	27.2620
 1.8080	27.2940
 1.8090	27.2920
 1.8100	27.2690
 1.8110	27.2530
 1.8120	27.2470
 1.8130	27.2610
 1.8140	27.2880
 1.8150	27.3050
 1.8160	27.3040
 1.8170	27.2910
 1.8180	27.2850
 1.8190	27.2870
 1.8200	27.2950
 1.8210	27.3310
 1.8220	27.3430
 1.8230	27.3480
 1.8240	27.3480
 1.8250	27.3300
 1.8260	27.3160
 1.8270	27.2930
 1.8280	27.2810
 1.8290	27.2810
 1.8300	27.2700
 1.8310	26.9530
 1.8320	26.9080
 1.8330	26.8750
 1.8340	26.8540
 1.8350	26.8570
 1.8360	26.8420
 1.8370	26.8150
 1.8380	26.7890
 1.8390	26.7360
 1.8400	26.6550
 1.8410	26.5840
 1.8420	26.4980
 1.8430	26.4100
 1.8440	26.3500
 1.8450	26.2940
 1.8460	26.2060
 1.8470	26.1080
 1.8480	25.9860
 1.8490	25.8550
 1.8500	25.7210
 1.8510	25.6040
 1.8520	25.4340
 1.8530	25.2350
 1.8540	25.0380
 1.8550	24.8290
 1.8560	24.6440
 1.8570	24.4560
 1.8580	24.2520
 1.8590	24.0310
 1.8600	23.7880
 1.8610	23.5270
 1.8620	23.2830
 1.8630	22.9980
 1.8640	22.6740
 1.8650	22.3510
 1.8660	21.9780
 1.8670	21.5980
 1.8680	21.2380
 1.8690	20.8440
 1.8700	20.4350
 1.8710	20.0110
 1.8720	19.5930
 1.8730	19.1620
 1.8740	18.7140
 1.8750	18.2710
 1.8760	17.8160
 1.8770	17.3320
 1.8780	16.8460
 1.8790	16.3720
 1.8800	15.9090
 1.8810	15.4470
 1.8820	14.9950
 1.8830	14.5600
 1.8840	14.1170
 1.8850	13.6800
 1.8860	13.2760
 1.8870	12.8760
 1.8880	12.5130
 1.8890	12.1710
 1.8900	11.8200
 1.8910	11.5000
 1.8920	11.2030
 1.8930	10.9180
 1.8940	10.6690
 1.8950	10.4450
 1.8960	10.2120
 1.8970	 9.9980
 1.8980	 9.7970
 1.8990	 9.6220
 1.9000	 9.4720
 1.9010	 9.3660
 1.9020	 9.2540
 1.9030	 9.1610
 1.9040	 9.0670
 1.9050	 8.9750
 1.9060	 8.8980
 1.9070	 8.8360
 1.9080	 8.7690
 1.9090	 8.7060
 1.9100	 8.6540
 1.9110	 8.6040
 1.9120	 8.5530
 1.9130	 8.5100
 1.9140	 8.4700
 1.9150	 8.4410
 1.9160	 8.4340
 1.9170	 8.4480
 1.9180	 8.4620
 1.9190	 8.4730
 1.9200	 8.4700
 1.9210	 8.4470
 1.9220	 8.4360
 1.9230	 8.4330
 1.9240	 8.4270
 1.9250	 8.4210
 1.9260	 8.4130
 1.9270	 8.3940
 1.9280	 8.3840
 1.9290	 8.3820
 1.9300	 8.3760
 1.9310	 8.3980
 1.9320	 8.4240
 1.9330	 8.4350
 1.9340	 8.4460
 1.9350	 8.4520
 1.9360	 8.4420
 1.9370	 8.4410
 1.9380	 8.4450
 1.9390	 8.4450
 1.9400	 8.4540
 1.9410	 8.4760
 1.9420	 8.4940
 1.9430	 8.5240
 1.9440	 8.5360
 1.9450	 8.5340
 1.9460	 8.5380
 1.9470	 8.5320
 1.9480	 8.5390
 1.9490	 8.5510
 1.9500	 8.5780
 1.9510	 8.6020
 1.9520	 8.6200
 1.9530	 8.6440
 1.9540	 8.6640
 1.9550	 8.6940
 1.9560	 8.7370
 1.9570	 8.7680
 1.9580	 8.8010
 1.9590	 8.8270
 1.9600	 8.8420
 1.9610	 8.8630
 1.9620	 8.8780
 1.9630	 8.9030
 1.9640	 8.9430
 1.9650	 8.9650
 1.9660	 8.9930
 1.9670	 9.0250
 1.9680	 9.0610
 1.9690	 9.1040
 1.9700	 9.1430
 1.9710	 9.1900
 1.9720	 9.2230
 1.9730	 9.2510
 1.9740	 9.2640
 1.9750	 9.2710
 1.9760	 9.3050
 1.9770	 9.3510
 1.9780	 9.3970
 1.9790	 9.4520
 1.9800	 9.5300
 1.9810	 9.5780
 1.9820	 9.6150
 1.9830	 9.6560
 1.9840	 9.6810
 1.9850	 9.7160
 1.9860	 9.7620
 1.9870	 9.7980
 1.9880	 9.8300
 1.9890	 9.8710
 1.9900	 9.9070
 1.9910	 9.9650
 1.9920	10.0120
 1.9930	10.0560
 1.9940	10.1050
 1.9950	10.1480
 1.9960	10.2030
 1.9970	10.2820
 1.9980	10.3380
 1.9990	10.3830
 2.0000	10.4370
 2.0010	10.4810
 2.0020	10.5380
 2.0030	10.5950
 2.0040	10.6460
 2.0050	10.7020
 2.0060	10.7550
 2.0070	10.7980
 2.0080	10.8460
 2.0090	10.8840
 2.0100	10.8890
 2.0110	10.9250
 2.0120	10.9650
 2.0130	11.0230
 2.0140	11.0970
 2.0150	11.1690
 2.0160	11.2400
 2.0170	11.2990
 2.0180	11.3630
 2.0190	11.4250
 2.0200	11.4830
 2.0210	11.5470
 2.0220	11.6000
 2.0230	11.6340
 2.0240	11.6790
 2.0250	11.7150
 2.0260	11.7700
 2.0270	11.8460
 2.0280	11.9240
 2.0290	11.9750
 2.0300	12.0190
 2.0310	12.0620
 2.0320	12.0790
 2.0330	12.1110
 2.0340	12.1590
 2.0350	12.1990
 2.0360	12.2260
 2.0370	12.2650
 2.0380	12.3150
 2.0390	12.3620
 2.0400	12.4200
 2.0410	12.4680
 2.0420	12.5110
 2.0430	12.5560
 2.0440	12.6020
 2.0450	12.6440
 2.0460	12.6860
 2.0470	12.7310
 2.0480	12.7770
 2.0490	12.8170
 2.0500	12.8630
 2.0510	12.9190
 2.0520	12.9670
 2.0530	13.0100
 2.0540	13.0590
 2.0550	13.1120
 2.0560	13.1590
 2.0570	13.2110
 2.0580	13.2450
 2.0590	13.2930
 2.0600	13.3370
 2.0610	13.3910
 2.0620	13.4660
 2.0630	13.5150
 2.0640	13.5490
 2.0650	13.5950
 2.0660	13.6340
 2.0670	13.6760
 2.0680	13.7320
 2.0690	13.7790
 2.0700	13.8030
 2.0710	13.8500
 2.0720	13.8990
 2.0730	13.9760
 2.0740	14.0330
 2.0750	14.1010
 2.0760	14.1570
 2.0770	14.1950
 2.0780	14.2440
 2.0790	14.2990
 2.0800	14.3520
 2.0810	14.4090
 2.0820	14.4610
 2.0830	14.5220
 2.0840	14.5640
 2.0850	14.5810
 2.0860	14.6140
 2.0870	14.6460
 2.0880	14.6770
 2.0890	14.7220
 2.0900	14.7830
 2.0910	14.8420
 2.0920	14.9050
 2.0930	14.9690
 2.0940	15.0560
 2.0950	15.1070
 2.0960	15.1370
 2.0970	15.1780
 2.0980	15.1930
 2.0990	15.2310
 2.1000	15.3020
 2.1010	15.3450
 2.1020	15.3670
 2.1030	15.4050
 2.1040	15.4380
 2.1050	15.4760
 2.1060	15.5160
 2.1070	15.5700
 2.1080	15.6240
 2.1090	15.6810
 2.1100	15.7240
 2.1110	15.7670
 2.1120	15.8120
 2.1130	15.8380
 2.1140	15.8820
 2.1150	15.9540
 2.1160	16.0080
 2.1170	16.0600
 2.1180	16.1000
 2.1190	16.1240
 2.1200	16.1540
 2.1210	16.1620
 2.1220	16.2050
 2.1230	16.2460
 2.1240	16.3010
 2.1250	16.3450
 2.1260	16.3970
 2.1270	16.4310
 2.1280	16.4550
 2.1290	16.4710
 2.1300	16.4650
 2.1310	16.4830
 2.1320	16.5040
 2.1330	16.5300
 2.1340	16.5740
 2.1350	16.6150
 2.1360	16.6630
 2.1370	16.7000
 2.1380	16.7410
 2.1390	16.7720
 2.1400	16.7810
 2.1410	16.7960
 2.1420	16.8190
 2.1430	16.8400
 2.1440	16.8730
 2.1450	16.9300
 2.1460	16.9480
 2.1470	16.9480
 2.1480	16.9650
 2.1490	16.9660
 2.1500	16.9770
 2.1510	17.0090
 2.1520	17.0310
 2.1530	17.0450
 2.1540	17.0600
 2.1550	17.0710
 2.1560	17.0920
 2.1570	17.1150
 2.1580	17.1390
 2.1590	17.1680
 2.1600	17.2090
 2.1610	17.2270
 2.1620	17.2160
 2.1630	17.2270
 2.1640	17.2280
 2.1650	17.2430
 2.1660	17.2740
 2.1670	17.2970
 2.1680	17.3220
 2.1690	17.3380
 2.1700	17.3550
 2.1710	17.3630
 2.1720	17.3430
 2.1730	17.3600
 2.1740	17.3950
 2.1750	17.4230
 2.1760	17.4710
 2.1770	17.5120
 2.1780	17.5490
 2.1790	17.5770
 2.1800	17.6000
 2.1810	17.6250
 2.1820	17.6500
 2.1830	17.6530
 2.1840	17.6740
 2.1850	17.7170
 2.1860	17.7240
 2.1870	17.7160
 2.1880	17.7130
 2.1890	17.6830
 2.1900	17.6800
 2.1910	17.6850
 2.1920	17.7030
 2.1930	17.7360
 2.1940	17.7640
 2.1950	17.8030
 2.1960	17.8350
 2.1970	17.8600
 2.1980	17.8900
 2.1990	17.9390
 2.2000	17.9600
 2.2010	17.9660
 2.2020	17.9730
 2.2030	17.9600
 2.2040	17.9520
 2.2050	17.9440
 2.2060	17.9480
 2.2070	17.9390
 2.2080	17.9210
 2.2090	17.9180
 2.2100	17.9140
 2.2110	17.9190
 2.2120	17.9330
 2.2130	17.9480
 2.2140	17.9780
 2.2150	17.9860
 2.2160	17.9870
 2.2170	17.9890
 2.2180	17.9820
 2.2190	17.9620
 2.2200	17.9360
 2.2210	17.9080
 2.2220	17.8570
 2.2230	17.8260
 2.2240	17.8230
 2.2250	17.7940
 2.2260	17.7340
 2.2270	17.7090
 2.2280	17.7060
 2.2290	17.6790
 2.2300	17.6580
 2.2310	17.6570
 2.2320	17.5890
 2.2330	17.5180
 2.2340	17.4560
 2.2350	17.3940
 2.2360	17.3270
 2.2370	17.2570
 2.2380	17.1920
 2.2390	17.1170
 2.2400	17.0730
 2.2410	17.0580
 2.2420	17.0140
 2.2430	16.9760
 2.2440	16.9290
 2.2450	16.8620
 2.2460	16.8020
 2.2470	16.7410
 2.2480	16.6960
 2.2490	16.6560
 2.2500	16.6160
 2.2510	16.6040
 2.2520	16.5640
 2.2530	16.5060
 2.2540	16.4510
 2.2550	16.3650
 2.2560	16.3190
 2.2570	16.2930
 2.2580	16.2690
 2.2590	16.3010
 2.2600	16.2880
 2.2610	16.2310
 2.2620	16.2050
 2.2630	16.1720
 2.2640	16.1130
 2.2650	16.0960
 2.2660	16.0820
 2.2670	16.0290
 2.2680	15.9530
 2.2690	15.8880
 2.2700	15.7840
 2.2710	15.7460
 2.2720	15.7540
 2.2730	15.7280
 2.2740	15.7200
 2.2750	15.6910
 2.2760	15.6380
 2.2770	15.5780
 2.2780	15.5060
 2.2790	15.4470
 2.2800	15.3800
 2.2810	15.3120
 2.2820	15.2410
 2.2830	15.1980
 2.2840	15.1590
 2.2850	15.1270
 2.2860	15.1480
 2.2870	15.1180
 2.2880	15.0560
 2.2890	14.9950
 2.2900	14.9120
 2.2910	14.8380
 2.2920	14.7550
 2.2930	14.6880
 2.2940	14.6380
 2.2950	14.5730
 2.2960	14.5010
 2.2970	14.4460
 2.2980	14.3660
 2.2990	14.3470
 2.3000	14.3270
 2.3010	14.3170
 2.3020	14.3250
 2.3030	14.2770
 2.3040	14.2310
 2.3050	14.2310
 2.3060	14.1760
 2.3070	14.0980
 2.3080	14.0460
 2.3090	13.9060
 2.3100	13.8260
 2.3110	13.8520
 2.3120	13.8640
 2.3130	13.9410
 2.3140	13.9710
 2.3150	13.9920
 2.3160	14.0000
 2.3170	13.9980
 2.3180	13.9710
 2.3190	13.9240
 2.3200	13.8950
 2.3210	13.8380
 2.3220	13.8230
 2.3230	13.8590
 2.3240	13.8430
 2.3250	13.8140
 2.3260	13.7900
 2.3270	13.7410
 2.3280	13.7110
 2.3290	13.6770
 2.3300	13.6920
 2.3310	13.7560
 2.3320	13.7780
 2.3330	13.8480
 2.3340	13.8390
 2.3350	13.7490
 2.3360	13.6720
 2.3370	13.5640
 2.3380	13.4780
 2.3390	13.3640
 2.3400	13.3180
 2.3410	13.3250
 2.3420	13.3070
 2.3430	13.3560
 2.3440	13.3260
 2.3450	13.2070
 2.3460	13.1490
 2.3470	13.0920
 2.3480	13.0370
 2.3490	13.0240
 2.3500	12.9830
 2.3510	12.8800
 2.3520	12.8490
 2.3530	12.8450
 2.3540	12.8760
 2.3550	12.9750
 2.3560	13.0500
 2.3570	13.0690
 2.3580	13.0940
 2.3590	13.0100
 2.3600	12.8860
 2.3610	12.7260
 2.3620	12.5950
 2.3630	12.5750
 2.3640	12.6120
 2.3650	12.7280
 2.3660	12.8020
 2.3670	12.8230
 2.3680	12.7790
 2.3690	12.7360
 2.3700	12.7240
 2.3710	12.6530
 2.3720	12.6110
 2.3730	12.5440
 2.3740	12.4660
 2.3750	12.4360
 2.3760	12.4130
 2.3770	12.4100
 2.3780	12.3970
 2.3790	12.3510
 2.3800	12.3020
 2.3810	12.2820
 2.3820	12.2440
 2.3830	12.1910
 2.3840	12.1730
 2.3850	12.1030
 2.3860	12.0390
 2.3870	12.0680
 2.3880	12.0750
 2.3890	12.0450
 2.3900	11.9750
 2.3910	11.8800
 2.3920	11.8130
 2.3930	11.7890
 2.3940	11.8190
 2.3950	11.8400
 2.3960	11.7890
 2.3970	11.6860
 2.3980	11.6290
 2.3990	11.6370
 2.4000	11.6350
 2.4010	11.6280
 2.4020	11.6090
 2.4030	11.5610
 2.4040	11.4790
 2.4050	11.4700
 2.4060	11.5420
 2.4070	11.4900
 2.4080	11.4530
 2.4090	11.5050
 2.4100	11.4600
 2.4110	11.4520
 2.4120	11.5210
 2.4130	11.4480
 2.4140	11.4020
 2.4150	11.4360
 2.4160	11.3780
 2.4170	11.3700
 2.4180	11.2990
 2.4190	11.1470
 2.4200	11.0790
 2.4210	11.0500
 2.4220	11.0350
 2.4230	10.9570
 2.4240	10.9020
 2.4250	10.8800
 2.4260	10.7600
 2.4270	10.7720
 2.4280	10.8430
 2.4290	10.7540
 2.4300	10.7660
 2.4310	10.8540
 2.4320	10.8690
 2.4330	10.8920
 2.4340	10.8510
 2.4350	10.6810
 2.4360	10.5050
 2.4370	10.4570
 2.4380	10.5280
 2.4390	10.6590
 2.4400	10.8050
 2.4410	10.8320
 2.4420	10.7810
 2.4430	10.7480
 2.4440	10.6440
 2.4450	10.4860
 2.4460	10.3040
 2.4470	10.1090
 2.4480	 9.9820
 2.4490	 9.9560
 2.4500	10.0110
 2.4510	10.1750
 2.4520	10.3130
 2.4530	10.2540
 2.4540	10.2180
 2.4550	10.1470
 2.4560	10.0520
 2.4570	10.1310
 2.4580	10.1190
 2.4590	10.1320
 2.4600	10.2470
 2.4610	10.2290
 2.4620	10.3120
 2.4630	10.4290
 2.4640	10.2600
 2.4650	10.0010
 2.4660	 9.8860
 2.4670	 9.8080
 2.4680	 9.6550
 2.4690	 9.8240
 2.4700	 9.9310
 2.4710	10.0930
 2.4720	10.1570
 2.4730	10.1790
 2.4740	10.1400
 2.4750	 9.9070
 2.4760	 9.8500
 2.4770	 9.8890
 2.4780	 9.8490
 2.4790	 9.8420
 2.4800	 9.8520
 2.4810	 9.8140
 2.4820	10.0120
 2.4830	10.0620
 2.4840	10.0450
 2.4850	 9.9900
 2.4860	 9.8410
 2.4870	 9.5980
 2.4880	 9.6230
 2.4890	 9.8770
 2.4900	 9.8670
 2.4910	10.0610
 2.4920	10.1610
 2.4930	 9.8530
 2.4940	 9.7530
 2.4950	 9.5910
 2.4960	 9.4430
 2.4970	 9.5900
 2.4980	 9.5520
 2.4990	 9.7780
 2.5000	 9.9760
