Name: Ceanothus spinosus 1
Type: vegetation
Class: Shrub
Genus: Ceanothus
Species: spinosus
Sample No.: VH127
Owner: UCSB
Wavelength Range: VSWIR
Origin: 34.4906; -119.7908; WGS84
Collection Date: 6/3/2013
Description: Samples were collected as part of the HyspIRI Airborne Campaign. 48 individual plants were sampled in three times in 2013 - spring  summer  and fall. The name of the sample includes a 1  2  or 3 which references a different individual of the species. Samples were taken to JPL and processed within 48 hours of collection. The same leaves were processed in the Nicolet and then measured using the ASD.
Measurement: Bidirectional reflectance
First Column: X
Second Column: Y
X Units: Wavelength (micrometers)
Y Units: Reflectance (percentage)
First X Value: 0.35
Last X Value: 2.5
Number of X Values: 2151
Additional Information: vegetation.shrub.ceanothus.spinosus.vswir.vh127.ucsb.asd.ancillary.txt

 0.3500	 7.9370
 0.3510	 7.9280
 0.3520	 7.8200
 0.3530	 7.6690
 0.3540	 7.5590
 0.3550	 7.6440
 0.3560	 7.6530
 0.3570	 7.6030
 0.3580	 7.6450
 0.3590	 7.6670
 0.3600	 7.6930
 0.3610	 7.6840
 0.3620	 7.4910
 0.3630	 7.4650
 0.3640	 7.5630
 0.3650	 7.6480
 0.3660	 7.6560
 0.3670	 7.5940
 0.3680	 7.5130
 0.3690	 7.4890
 0.3700	 7.5110
 0.3710	 7.5150
 0.3720	 7.4830
 0.3730	 7.4740
 0.3740	 7.5280
 0.3750	 7.5860
 0.3760	 7.5690
 0.3770	 7.4790
 0.3780	 7.4560
 0.3790	 7.4570
 0.3800	 7.2980
 0.3810	 7.2690
 0.3820	 7.2500
 0.3830	 7.1860
 0.3840	 7.3230
 0.3850	 7.3730
 0.3860	 7.3210
 0.3870	 7.2620
 0.3880	 7.3030
 0.3890	 7.3490
 0.3900	 7.3530
 0.3910	 7.3360
 0.3920	 7.3570
 0.3930	 7.3580
 0.3940	 7.3120
 0.3950	 7.3470
 0.3960	 7.3390
 0.3970	 7.3020
 0.3980	 7.3010
 0.3990	 7.2840
 0.4000	 7.2720
 0.4010	 7.2790
 0.4020	 7.3040
 0.4030	 7.3120
 0.4040	 7.2950
 0.4050	 7.2670
 0.4060	 7.2790
 0.4070	 7.3040
 0.4080	 7.3220
 0.4090	 7.3170
 0.4100	 7.3230
 0.4110	 7.3370
 0.4120	 7.3560
 0.4130	 7.3840
 0.4140	 7.4100
 0.4150	 7.4270
 0.4160	 7.4360
 0.4170	 7.4640
 0.4180	 7.4820
 0.4190	 7.4880
 0.4200	 7.5000
 0.4210	 7.5330
 0.4220	 7.5600
 0.4230	 7.5680
 0.4240	 7.5910
 0.4250	 7.6180
 0.4260	 7.6380
 0.4270	 7.6440
 0.4280	 7.6550
 0.4290	 7.6700
 0.4300	 7.6860
 0.4310	 7.6920
 0.4320	 7.6990
 0.4330	 7.7010
 0.4340	 7.6970
 0.4350	 7.7020
 0.4360	 7.7170
 0.4370	 7.7350
 0.4380	 7.7440
 0.4390	 7.7660
 0.4400	 7.7760
 0.4410	 7.7660
 0.4420	 7.7880
 0.4430	 7.7990
 0.4440	 7.8000
 0.4450	 7.8090
 0.4460	 7.8260
 0.4470	 7.8270
 0.4480	 7.8160
 0.4490	 7.8330
 0.4500	 7.8490
 0.4510	 7.8640
 0.4520	 7.8800
 0.4530	 7.8860
 0.4540	 7.8840
 0.4550	 7.8850
 0.4560	 7.9000
 0.4570	 7.9110
 0.4580	 7.9120
 0.4590	 7.9090
 0.4600	 7.9170
 0.4610	 7.9150
 0.4620	 7.9080
 0.4630	 7.9090
 0.4640	 7.9220
 0.4650	 7.9150
 0.4660	 7.8940
 0.4670	 7.9040
 0.4680	 7.9060
 0.4690	 7.9100
 0.4700	 7.9230
 0.4710	 7.9190
 0.4720	 7.9080
 0.4730	 7.9010
 0.4740	 7.9040
 0.4750	 7.9000
 0.4760	 7.9010
 0.4770	 7.9090
 0.4780	 7.9040
 0.4790	 7.9000
 0.4800	 7.8980
 0.4810	 7.8960
 0.4820	 7.9060
 0.4830	 7.9180
 0.4840	 7.9220
 0.4850	 7.9180
 0.4860	 7.9150
 0.4870	 7.9240
 0.4880	 7.9430
 0.4890	 7.9550
 0.4900	 7.9620
 0.4910	 7.9690
 0.4920	 7.9820
 0.4930	 8.0090
 0.4940	 8.0360
 0.4950	 8.0590
 0.4960	 8.0870
 0.4970	 8.1160
 0.4980	 8.1440
 0.4990	 8.1760
 0.5000	 8.2150
 0.5010	 8.2570
 0.5020	 8.3020
 0.5030	 8.3460
 0.5040	 8.4000
 0.5050	 8.4650
 0.5060	 8.5370
 0.5070	 8.6090
 0.5080	 8.6830
 0.5090	 8.7670
 0.5100	 8.8640
 0.5110	 8.9720
 0.5120	 9.0870
 0.5130	 9.2080
 0.5140	 9.3450
 0.5150	 9.4890
 0.5160	 9.6460
 0.5170	 9.8210
 0.5180	10.0010
 0.5190	10.1850
 0.5200	10.3750
 0.5210	10.5760
 0.5220	10.7740
 0.5230	10.9730
 0.5240	11.1740
 0.5250	11.3690
 0.5260	11.5600
 0.5270	11.7450
 0.5280	11.9230
 0.5290	12.0830
 0.5300	12.2320
 0.5310	12.3740
 0.5320	12.5090
 0.5330	12.6280
 0.5340	12.7350
 0.5350	12.8300
 0.5360	12.9120
 0.5370	12.9870
 0.5380	13.0550
 0.5390	13.1170
 0.5400	13.1720
 0.5410	13.2190
 0.5420	13.2630
 0.5430	13.3110
 0.5440	13.3520
 0.5450	13.3870
 0.5460	13.4240
 0.5470	13.4610
 0.5480	13.4950
 0.5490	13.5230
 0.5500	13.5430
 0.5510	13.5540
 0.5520	13.5550
 0.5530	13.5430
 0.5540	13.5210
 0.5550	13.4850
 0.5560	13.4400
 0.5570	13.3900
 0.5580	13.3210
 0.5590	13.2400
 0.5600	13.1540
 0.5610	13.0580
 0.5620	12.9570
 0.5630	12.8520
 0.5640	12.7390
 0.5650	12.6220
 0.5660	12.4920
 0.5670	12.3510
 0.5680	12.2040
 0.5690	12.0550
 0.5700	11.9060
 0.5710	11.7560
 0.5720	11.6140
 0.5730	11.4830
 0.5740	11.3690
 0.5750	11.2770
 0.5760	11.1920
 0.5770	11.1150
 0.5780	11.0450
 0.5790	10.9770
 0.5800	10.9050
 0.5810	10.8320
 0.5820	10.7650
 0.5830	10.7020
 0.5840	10.6390
 0.5850	10.5710
 0.5860	10.5000
 0.5870	10.4330
 0.5880	10.3750
 0.5890	10.3310
 0.5900	10.3080
 0.5910	10.2920
 0.5920	10.2770
 0.5930	10.2570
 0.5940	10.2350
 0.5950	10.2130
 0.5960	10.1870
 0.5970	10.1560
 0.5980	10.1260
 0.5990	10.1000
 0.6000	10.0740
 0.6010	10.0490
 0.6020	10.0230
 0.6030	 9.9950
 0.6040	 9.9610
 0.6050	 9.9250
 0.6060	 9.8830
 0.6070	 9.8360
 0.6080	 9.7880
 0.6090	 9.7340
 0.6100	 9.6730
 0.6110	 9.6130
 0.6120	 9.5580
 0.6130	 9.5080
 0.6140	 9.4600
 0.6150	 9.4110
 0.6160	 9.3600
 0.6170	 9.3130
 0.6180	 9.2740
 0.6190	 9.2390
 0.6200	 9.2060
 0.6210	 9.1750
 0.6220	 9.1480
 0.6230	 9.1260
 0.6240	 9.1060
 0.6250	 9.0900
 0.6260	 9.0790
 0.6270	 9.0660
 0.6280	 9.0530
 0.6290	 9.0440
 0.6300	 9.0380
 0.6310	 9.0310
 0.6320	 9.0200
 0.6330	 9.0050
 0.6340	 8.9870
 0.6350	 8.9640
 0.6360	 8.9350
 0.6370	 8.8990
 0.6380	 8.8600
 0.6390	 8.8160
 0.6400	 8.7660
 0.6410	 8.7130
 0.6420	 8.6590
 0.6430	 8.6060
 0.6440	 8.5510
 0.6450	 8.4990
 0.6460	 8.4490
 0.6470	 8.4020
 0.6480	 8.3610
 0.6490	 8.3240
 0.6500	 8.2920
 0.6510	 8.2680
 0.6520	 8.2470
 0.6530	 8.2250
 0.6540	 8.2020
 0.6550	 8.1800
 0.6560	 8.1540
 0.6570	 8.1260
 0.6580	 8.0990
 0.6590	 8.0700
 0.6600	 8.0400
 0.6610	 8.0100
 0.6620	 7.9830
 0.6630	 7.9540
 0.6640	 7.9280
 0.6650	 7.9090
 0.6660	 7.8920
 0.6670	 7.8790
 0.6680	 7.8710
 0.6690	 7.8650
 0.6700	 7.8640
 0.6710	 7.8680
 0.6720	 7.8760
 0.6730	 7.8850
 0.6740	 7.9000
 0.6750	 7.9200
 0.6760	 7.9430
 0.6770	 7.9640
 0.6780	 7.9890
 0.6790	 8.0200
 0.6800	 8.0540
 0.6810	 8.0940
 0.6820	 8.1390
 0.6830	 8.1880
 0.6840	 8.2410
 0.6850	 8.3060
 0.6860	 8.3840
 0.6870	 8.4730
 0.6880	 8.5820
 0.6890	 8.7150
 0.6900	 8.8770
 0.6910	 9.0780
 0.6920	 9.3280
 0.6930	 9.6270
 0.6940	 9.9820
 0.6950	10.4050
 0.6960	10.8930
 0.6970	11.4490
 0.6980	12.0750
 0.6990	12.7660
 0.7000	13.5200
 0.7010	14.3320
 0.7020	15.1930
 0.7030	16.0960
 0.7040	17.0390
 0.7050	18.0130
 0.7060	19.0020
 0.7070	20.0150
 0.7080	21.0480
 0.7090	22.0920
 0.7100	23.1450
 0.7110	24.2070
 0.7120	25.2750
 0.7130	26.3460
 0.7140	27.4170
 0.7150	28.4880
 0.7160	29.5570
 0.7170	30.6240
 0.7180	31.6780
 0.7190	32.7230
 0.7200	33.7640
 0.7210	34.7850
 0.7220	35.7890
 0.7230	36.7780
 0.7240	37.7410
 0.7250	38.6760
 0.7260	39.5830
 0.7270	40.4630
 0.7280	41.3160
 0.7290	42.1390
 0.7300	42.9300
 0.7310	43.6900
 0.7320	44.4100
 0.7330	45.1000
 0.7340	45.7600
 0.7350	46.3840
 0.7360	46.9810
 0.7370	47.5440
 0.7380	48.0710
 0.7390	48.5740
 0.7400	49.0500
 0.7410	49.4930
 0.7420	49.9020
 0.7430	50.2910
 0.7440	50.6550
 0.7450	50.9960
 0.7460	51.3180
 0.7470	51.6070
 0.7480	51.8730
 0.7490	52.1220
 0.7500	52.3550
 0.7510	52.5620
 0.7520	52.7510
 0.7530	52.9310
 0.7540	53.0930
 0.7550	53.2400
 0.7560	53.3740
 0.7570	53.4970
 0.7580	53.6080
 0.7590	53.7110
 0.7600	53.8070
 0.7610	53.8870
 0.7620	53.9680
 0.7630	54.0420
 0.7640	54.0990
 0.7650	54.1630
 0.7660	54.2190
 0.7670	54.2650
 0.7680	54.3080
 0.7690	54.3470
 0.7700	54.3830
 0.7710	54.4190
 0.7720	54.4560
 0.7730	54.4830
 0.7740	54.5080
 0.7750	54.5390
 0.7760	54.5650
 0.7770	54.5930
 0.7780	54.6180
 0.7790	54.6360
 0.7800	54.6600
 0.7810	54.6830
 0.7820	54.7040
 0.7830	54.7250
 0.7840	54.7430
 0.7850	54.7640
 0.7860	54.7890
 0.7870	54.7980
 0.7880	54.8160
 0.7890	54.8380
 0.7900	54.8540
 0.7910	54.8660
 0.7920	54.8790
 0.7930	54.8940
 0.7940	54.9090
 0.7950	54.9200
 0.7960	54.9300
 0.7970	54.9420
 0.7980	54.9470
 0.7990	54.9600
 0.8000	54.9680
 0.8010	54.9660
 0.8020	54.9830
 0.8030	54.9930
 0.8040	54.9950
 0.8050	54.9990
 0.8060	55.0070
 0.8070	55.0130
 0.8080	55.0150
 0.8090	55.0090
 0.8100	55.0050
 0.8110	55.0090
 0.8120	55.0180
 0.8130	55.0140
 0.8140	55.0110
 0.8150	55.0120
 0.8160	55.0130
 0.8170	55.0060
 0.8180	54.9980
 0.8190	54.9900
 0.8200	54.9860
 0.8210	54.9850
 0.8220	54.9870
 0.8230	54.9870
 0.8240	54.9850
 0.8250	54.9750
 0.8260	54.9640
 0.8270	54.9550
 0.8280	54.9480
 0.8290	54.9430
 0.8300	54.9390
 0.8310	54.9320
 0.8320	54.9200
 0.8330	54.9100
 0.8340	54.9080
 0.8350	54.9110
 0.8360	54.9020
 0.8370	54.8950
 0.8380	54.8940
 0.8390	54.8950
 0.8400	54.8950
 0.8410	54.8930
 0.8420	54.8900
 0.8430	54.8900
 0.8440	54.8890
 0.8450	54.8900
 0.8460	54.8970
 0.8470	54.8970
 0.8480	54.9000
 0.8490	54.9070
 0.8500	54.9130
 0.8510	54.9040
 0.8520	54.8990
 0.8530	54.9030
 0.8540	54.9130
 0.8550	54.9190
 0.8560	54.9200
 0.8570	54.9210
 0.8580	54.9300
 0.8590	54.9320
 0.8600	54.9330
 0.8610	54.9370
 0.8620	54.9430
 0.8630	54.9510
 0.8640	54.9590
 0.8650	54.9660
 0.8660	54.9760
 0.8670	54.9770
 0.8680	54.9770
 0.8690	54.9870
 0.8700	54.9980
 0.8710	55.0080
 0.8720	55.0140
 0.8730	55.0130
 0.8740	55.0180
 0.8750	55.0270
 0.8760	55.0340
 0.8770	55.0380
 0.8780	55.0510
 0.8790	55.0680
 0.8800	55.0800
 0.8810	55.0740
 0.8820	55.0790
 0.8830	55.0900
 0.8840	55.1000
 0.8850	55.1090
 0.8860	55.1110
 0.8870	55.1150
 0.8880	55.1270
 0.8890	55.1300
 0.8900	55.1380
 0.8910	55.1480
 0.8920	55.1540
 0.8930	55.1580
 0.8940	55.1660
 0.8950	55.1780
 0.8960	55.1880
 0.8970	55.1870
 0.8980	55.1850
 0.8990	55.1870
 0.9000	55.1920
 0.9010	55.2000
 0.9020	55.2120
 0.9030	55.2220
 0.9040	55.2160
 0.9050	55.2220
 0.9060	55.2280
 0.9070	55.2280
 0.9080	55.2400
 0.9090	55.2390
 0.9100	55.2370
 0.9110	55.2450
 0.9120	55.2480
 0.9130	55.2540
 0.9140	55.2610
 0.9150	55.2640
 0.9160	55.2650
 0.9170	55.2680
 0.9180	55.2700
 0.9190	55.2690
 0.9200	55.2720
 0.9210	55.2700
 0.9220	55.2640
 0.9230	55.2600
 0.9240	55.2620
 0.9250	55.2600
 0.9260	55.2510
 0.9270	55.2430
 0.9280	55.2220
 0.9290	55.2090
 0.9300	55.2010
 0.9310	55.1740
 0.9320	55.1550
 0.9330	55.1380
 0.9340	55.1200
 0.9350	55.1040
 0.9360	55.0700
 0.9370	55.0370
 0.9380	55.0120
 0.9390	54.9830
 0.9400	54.9480
 0.9410	54.9190
 0.9420	54.8990
 0.9430	54.8700
 0.9440	54.8240
 0.9450	54.7900
 0.9460	54.7710
 0.9470	54.7090
 0.9480	54.6470
 0.9490	54.5890
 0.9500	54.5310
 0.9510	54.4870
 0.9520	54.4180
 0.9530	54.3360
 0.9540	54.2600
 0.9550	54.1830
 0.9560	54.1120
 0.9570	54.0450
 0.9580	53.9780
 0.9590	53.9080
 0.9600	53.8380
 0.9610	53.7790
 0.9620	53.7340
 0.9630	53.6830
 0.9640	53.6380
 0.9650	53.5970
 0.9660	53.5560
 0.9670	53.5410
 0.9680	53.5170
 0.9690	53.4880
 0.9700	53.4670
 0.9710	53.4430
 0.9720	53.4190
 0.9730	53.3990
 0.9740	53.3800
 0.9750	53.3620
 0.9760	53.3550
 0.9770	53.3550
 0.9780	53.3500
 0.9790	53.3400
 0.9800	53.3350
 0.9810	53.3380
 0.9820	53.3420
 0.9830	53.3350
 0.9840	53.3420
 0.9850	53.3630
 0.9860	53.3820
 0.9870	53.3930
 0.9880	53.3940
 0.9890	53.4000
 0.9900	53.4230
 0.9910	53.4380
 0.9920	53.4870
 0.9930	53.5350
 0.9940	53.5830
 0.9950	53.6310
 0.9960	53.6800
 0.9970	53.7280
 0.9980	53.7760
 0.9990	53.8240
 1.0000	53.8720
 1.0010	53.9210
 1.0020	53.9690
 1.0030	54.0170
 1.0040	54.0650
 1.0050	54.1130
 1.0060	54.1620
 1.0070	54.2100
 1.0080	54.2580
 1.0090	54.3060
 1.0100	54.3060
 1.0110	54.3290
 1.0120	54.3560
 1.0130	54.3870
 1.0140	54.4130
 1.0150	54.4350
 1.0160	54.4580
 1.0170	54.4820
 1.0180	54.5040
 1.0190	54.5260
 1.0200	54.5510
 1.0210	54.5690
 1.0220	54.5900
 1.0230	54.6150
 1.0240	54.6460
 1.0250	54.6710
 1.0260	54.6960
 1.0270	54.7180
 1.0280	54.7360
 1.0290	54.7550
 1.0300	54.7750
 1.0310	54.7940
 1.0320	54.8100
 1.0330	54.8280
 1.0340	54.8510
 1.0350	54.8700
 1.0360	54.8940
 1.0370	54.9180
 1.0380	54.9350
 1.0390	54.9490
 1.0400	54.9640
 1.0410	54.9740
 1.0420	54.9880
 1.0430	55.0070
 1.0440	55.0220
 1.0450	55.0340
 1.0460	55.0480
 1.0470	55.0600
 1.0480	55.0730
 1.0490	55.0880
 1.0500	55.1010
 1.0510	55.1100
 1.0520	55.1210
 1.0530	55.1320
 1.0540	55.1410
 1.0550	55.1520
 1.0560	55.1670
 1.0570	55.1770
 1.0580	55.1840
 1.0590	55.1920
 1.0600	55.1990
 1.0610	55.2070
 1.0620	55.2140
 1.0630	55.2220
 1.0640	55.2300
 1.0650	55.2370
 1.0660	55.2450
 1.0670	55.2520
 1.0680	55.2570
 1.0690	55.2610
 1.0700	55.2650
 1.0710	55.2700
 1.0720	55.2730
 1.0730	55.2760
 1.0740	55.2770
 1.0750	55.2740
 1.0760	55.2750
 1.0770	55.2770
 1.0780	55.2750
 1.0790	55.2730
 1.0800	55.2720
 1.0810	55.2690
 1.0820	55.2670
 1.0830	55.2690
 1.0840	55.2670
 1.0850	55.2640
 1.0860	55.2590
 1.0870	55.2530
 1.0880	55.2460
 1.0890	55.2380
 1.0900	55.2280
 1.0910	55.2180
 1.0920	55.2070
 1.0930	55.1970
 1.0940	55.1860
 1.0950	55.1770
 1.0960	55.1680
 1.0970	55.1590
 1.0980	55.1510
 1.0990	55.1410
 1.1000	55.1320
 1.1010	55.1200
 1.1020	55.1030
 1.1030	55.0870
 1.1040	55.0720
 1.1050	55.0550
 1.1060	55.0380
 1.1070	55.0220
 1.1080	55.0040
 1.1090	54.9840
 1.1100	54.9620
 1.1110	54.9390
 1.1120	54.9160
 1.1130	54.8910
 1.1140	54.8650
 1.1150	54.8390
 1.1160	54.8100
 1.1170	54.7830
 1.1180	54.7490
 1.1190	54.7120
 1.1200	54.6690
 1.1210	54.6280
 1.1220	54.5800
 1.1230	54.5320
 1.1240	54.4830
 1.1250	54.4250
 1.1260	54.3600
 1.1270	54.2910
 1.1280	54.2170
 1.1290	54.1380
 1.1300	54.0560
 1.1310	53.9650
 1.1320	53.8670
 1.1330	53.7640
 1.1340	53.6550
 1.1350	53.5370
 1.1360	53.4130
 1.1370	53.2820
 1.1380	53.1430
 1.1390	52.9980
 1.1400	52.8480
 1.1410	52.6970
 1.1420	52.5430
 1.1430	52.3860
 1.1440	52.2290
 1.1450	52.0720
 1.1460	51.9120
 1.1470	51.7470
 1.1480	51.5920
 1.1490	51.4340
 1.1500	51.2900
 1.1510	51.1560
 1.1520	51.0270
 1.1530	50.9020
 1.1540	50.7880
 1.1550	50.6790
 1.1560	50.5830
 1.1570	50.4950
 1.1580	50.4180
 1.1590	50.3490
 1.1600	50.2850
 1.1610	50.2320
 1.1620	50.1860
 1.1630	50.1460
 1.1640	50.1140
 1.1650	50.0860
 1.1660	50.0650
 1.1670	50.0440
 1.1680	50.0300
 1.1690	50.0150
 1.1700	50.0030
 1.1710	49.9910
 1.1720	49.9820
 1.1730	49.9720
 1.1740	49.9630
 1.1750	49.9540
 1.1760	49.9470
 1.1770	49.9360
 1.1780	49.9250
 1.1790	49.9140
 1.1800	49.9010
 1.1810	49.8880
 1.1820	49.8740
 1.1830	49.8620
 1.1840	49.8530
 1.1850	49.8460
 1.1860	49.8390
 1.1870	49.8320
 1.1880	49.8250
 1.1890	49.8140
 1.1900	49.8070
 1.1910	49.8010
 1.1920	49.7980
 1.1930	49.7960
 1.1940	49.7960
 1.1950	49.7980
 1.1960	49.8020
 1.1970	49.8060
 1.1980	49.8120
 1.1990	49.8190
 1.2000	49.8260
 1.2010	49.8370
 1.2020	49.8510
 1.2030	49.8670
 1.2040	49.8840
 1.2050	49.8990
 1.2060	49.9150
 1.2070	49.9300
 1.2080	49.9480
 1.2090	49.9700
 1.2100	49.9920
 1.2110	50.0160
 1.2120	50.0430
 1.2130	50.0690
 1.2140	50.0950
 1.2150	50.1220
 1.2160	50.1500
 1.2170	50.1780
 1.2180	50.2070
 1.2190	50.2350
 1.2200	50.2620
 1.2210	50.2890
 1.2220	50.3150
 1.2230	50.3430
 1.2240	50.3700
 1.2250	50.3950
 1.2260	50.4220
 1.2270	50.4480
 1.2280	50.4720
 1.2290	50.4960
 1.2300	50.5210
 1.2310	50.5430
 1.2320	50.5660
 1.2330	50.5880
 1.2340	50.6100
 1.2350	50.6320
 1.2360	50.6530
 1.2370	50.6720
 1.2380	50.6910
 1.2390	50.7080
 1.2400	50.7230
 1.2410	50.7400
 1.2420	50.7570
 1.2430	50.7750
 1.2440	50.7920
 1.2450	50.8070
 1.2460	50.8230
 1.2470	50.8360
 1.2480	50.8470
 1.2490	50.8640
 1.2500	50.8760
 1.2510	50.8850
 1.2520	50.8970
 1.2530	50.9040
 1.2540	50.9110
 1.2550	50.9220
 1.2560	50.9320
 1.2570	50.9360
 1.2580	50.9410
 1.2590	50.9440
 1.2600	50.9430
 1.2610	50.9430
 1.2620	50.9430
 1.2630	50.9420
 1.2640	50.9390
 1.2650	50.9390
 1.2660	50.9390
 1.2670	50.9330
 1.2680	50.9280
 1.2690	50.9220
 1.2700	50.9120
 1.2710	50.9020
 1.2720	50.8930
 1.2730	50.8800
 1.2740	50.8680
 1.2750	50.8560
 1.2760	50.8410
 1.2770	50.8250
 1.2780	50.8090
 1.2790	50.7950
 1.2800	50.7770
 1.2810	50.7590
 1.2820	50.7390
 1.2830	50.7160
 1.2840	50.6920
 1.2850	50.6680
 1.2860	50.6420
 1.2870	50.6130
 1.2880	50.5820
 1.2890	50.5480
 1.2900	50.5120
 1.2910	50.4740
 1.2920	50.4350
 1.2930	50.3970
 1.2940	50.3570
 1.2950	50.3140
 1.2960	50.2710
 1.2970	50.2240
 1.2980	50.1730
 1.2990	50.1200
 1.3000	50.0620
 1.3010	50.0020
 1.3020	49.9390
 1.3030	49.8740
 1.3040	49.8090
 1.3050	49.7370
 1.3060	49.6620
 1.3070	49.5840
 1.3080	49.5040
 1.3090	49.4220
 1.3100	49.3370
 1.3110	49.2470
 1.3120	49.1510
 1.3130	49.0540
 1.3140	48.9510
 1.3150	48.8450
 1.3160	48.7360
 1.3170	48.6240
 1.3180	48.5070
 1.3190	48.3860
 1.3200	48.2620
 1.3210	48.1320
 1.3220	48.0000
 1.3230	47.8630
 1.3240	47.7210
 1.3250	47.5790
 1.3260	47.4310
 1.3270	47.2810
 1.3280	47.1300
 1.3290	46.9730
 1.3300	46.8130
 1.3310	46.6540
 1.3320	46.4950
 1.3330	46.3330
 1.3340	46.1700
 1.3350	46.0040
 1.3360	45.8360
 1.3370	45.6660
 1.3380	45.4980
 1.3390	45.3270
 1.3400	45.1550
 1.3410	44.9880
 1.3420	44.8210
 1.3430	44.6540
 1.3440	44.4920
 1.3450	44.3290
 1.3460	44.1650
 1.3470	44.0050
 1.3480	43.8470
 1.3490	43.6910
 1.3500	43.5360
 1.3510	43.3830
 1.3520	43.2300
 1.3530	43.0770
 1.3540	42.9220
 1.3550	42.7700
 1.3560	42.6190
 1.3570	42.4660
 1.3580	42.3160
 1.3590	42.1630
 1.3600	42.0060
 1.3610	41.8470
 1.3620	41.6810
 1.3630	41.5100
 1.3640	41.3370
 1.3650	41.1560
 1.3660	40.9700
 1.3670	40.7760
 1.3680	40.5700
 1.3690	40.3520
 1.3700	40.1210
 1.3710	39.8780
 1.3720	39.6210
 1.3730	39.3460
 1.3740	39.0570
 1.3750	38.7500
 1.3760	38.4210
 1.3770	38.0720
 1.3780	37.6970
 1.3790	37.3010
 1.3800	36.8800
 1.3810	36.4340
 1.3820	35.9690
 1.3830	35.4840
 1.3840	34.9800
 1.3850	34.4580
 1.3860	33.9190
 1.3870	33.3570
 1.3880	32.7910
 1.3890	32.2110
 1.3900	31.6210
 1.3910	31.0310
 1.3920	30.4330
 1.3930	29.8300
 1.3940	29.2290
 1.3950	28.6250
 1.3960	28.0270
 1.3970	27.4390
 1.3980	26.8610
 1.3990	26.3020
 1.4000	25.7560
 1.4010	25.2230
 1.4020	24.7080
 1.4030	24.2080
 1.4040	23.7290
 1.4050	23.2740
 1.4060	22.8380
 1.4070	22.4290
 1.4080	22.0420
 1.4090	21.6740
 1.4100	21.3310
 1.4110	21.0080
 1.4120	20.7070
 1.4130	20.4270
 1.4140	20.1660
 1.4150	19.9270
 1.4160	19.7070
 1.4170	19.5030
 1.4180	19.3180
 1.4190	19.1470
 1.4200	18.9890
 1.4210	18.8460
 1.4220	18.7150
 1.4230	18.5970
 1.4240	18.4910
 1.4250	18.3950
 1.4260	18.3110
 1.4270	18.2340
 1.4280	18.1660
 1.4290	18.1060
 1.4300	18.0560
 1.4310	18.0100
 1.4320	17.9740
 1.4330	17.9420
 1.4340	17.9160
 1.4350	17.8950
 1.4360	17.8800
 1.4370	17.8700
 1.4380	17.8630
 1.4390	17.8610
 1.4400	17.8610
 1.4410	17.8650
 1.4420	17.8720
 1.4430	17.8830
 1.4440	17.8960
 1.4450	17.9120
 1.4460	17.9280
 1.4470	17.9470
 1.4480	17.9660
 1.4490	17.9870
 1.4500	18.0100
 1.4510	18.0340
 1.4520	18.0600
 1.4530	18.0870
 1.4540	18.1140
 1.4550	18.1430
 1.4560	18.1730
 1.4570	18.2060
 1.4580	18.2410
 1.4590	18.2790
 1.4600	18.3210
 1.4610	18.3650
 1.4620	18.4130
 1.4630	18.4650
 1.4640	18.5210
 1.4650	18.5810
 1.4660	18.6460
 1.4670	18.7160
 1.4680	18.7920
 1.4690	18.8710
 1.4700	18.9560
 1.4710	19.0440
 1.4720	19.1350
 1.4730	19.2310
 1.4740	19.3310
 1.4750	19.4350
 1.4760	19.5420
 1.4770	19.6510
 1.4780	19.7620
 1.4790	19.8740
 1.4800	19.9890
 1.4810	20.1040
 1.4820	20.2210
 1.4830	20.3400
 1.4840	20.4600
 1.4850	20.5800
 1.4860	20.7020
 1.4870	20.8250
 1.4880	20.9470
 1.4890	21.0680
 1.4900	21.1910
 1.4910	21.3130
 1.4920	21.4360
 1.4930	21.5620
 1.4940	21.6850
 1.4950	21.8090
 1.4960	21.9320
 1.4970	22.0530
 1.4980	22.1750
 1.4990	22.2960
 1.5000	22.4180
 1.5010	22.5400
 1.5020	22.6610
 1.5030	22.7830
 1.5040	22.9050
 1.5050	23.0250
 1.5060	23.1440
 1.5070	23.2630
 1.5080	23.3810
 1.5090	23.4990
 1.5100	23.6170
 1.5110	23.7340
 1.5120	23.8510
 1.5130	23.9660
 1.5140	24.0790
 1.5150	24.1940
 1.5160	24.3060
 1.5170	24.4170
 1.5180	24.5290
 1.5190	24.6390
 1.5200	24.7470
 1.5210	24.8540
 1.5220	24.9610
 1.5230	25.0680
 1.5240	25.1730
 1.5250	25.2780
 1.5260	25.3820
 1.5270	25.4830
 1.5280	25.5850
 1.5290	25.6850
 1.5300	25.7830
 1.5310	25.8830
 1.5320	25.9810
 1.5330	26.0760
 1.5340	26.1710
 1.5350	26.2640
 1.5360	26.3580
 1.5370	26.4510
 1.5380	26.5450
 1.5390	26.6370
 1.5400	26.7270
 1.5410	26.8160
 1.5420	26.9040
 1.5430	26.9910
 1.5440	27.0790
 1.5450	27.1660
 1.5460	27.2530
 1.5470	27.3410
 1.5480	27.4250
 1.5490	27.5090
 1.5500	27.5920
 1.5510	27.6720
 1.5520	27.7540
 1.5530	27.8330
 1.5540	27.9110
 1.5550	27.9900
 1.5560	28.0670
 1.5570	28.1430
 1.5580	28.2170
 1.5590	28.2900
 1.5600	28.3620
 1.5610	28.4330
 1.5620	28.5030
 1.5630	28.5730
 1.5640	28.6410
 1.5650	28.7080
 1.5660	28.7770
 1.5670	28.8450
 1.5680	28.9120
 1.5690	28.9780
 1.5700	29.0430
 1.5710	29.1070
 1.5720	29.1730
 1.5730	29.2400
 1.5740	29.3050
 1.5750	29.3700
 1.5760	29.4340
 1.5770	29.4970
 1.5780	29.5610
 1.5790	29.6240
 1.5800	29.6860
 1.5810	29.7480
 1.5820	29.8100
 1.5830	29.8700
 1.5840	29.9320
 1.5850	29.9930
 1.5860	30.0510
 1.5870	30.1100
 1.5880	30.1680
 1.5890	30.2260
 1.5900	30.2850
 1.5910	30.3440
 1.5920	30.4020
 1.5930	30.4600
 1.5940	30.5160
 1.5950	30.5740
 1.5960	30.6280
 1.5970	30.6810
 1.5980	30.7350
 1.5990	30.7880
 1.6000	30.8430
 1.6010	30.8980
 1.6020	30.9500
 1.6030	31.0020
 1.6040	31.0520
 1.6050	31.1010
 1.6060	31.1520
 1.6070	31.2000
 1.6080	31.2480
 1.6090	31.2950
 1.6100	31.3420
 1.6110	31.3880
 1.6120	31.4330
 1.6130	31.4790
 1.6140	31.5250
 1.6150	31.5690
 1.6160	31.6150
 1.6170	31.6580
 1.6180	31.6980
 1.6190	31.7390
 1.6200	31.7790
 1.6210	31.8190
 1.6220	31.8600
 1.6230	31.8980
 1.6240	31.9340
 1.6250	31.9710
 1.6260	32.0070
 1.6270	32.0430
 1.6280	32.0780
 1.6290	32.1100
 1.6300	32.1390
 1.6310	32.1690
 1.6320	32.1970
 1.6330	32.2250
 1.6340	32.2540
 1.6350	32.2790
 1.6360	32.3040
 1.6370	32.3260
 1.6380	32.3450
 1.6390	32.3610
 1.6400	32.3730
 1.6410	32.3830
 1.6420	32.3890
 1.6430	32.3940
 1.6440	32.3970
 1.6450	32.3980
 1.6460	32.3930
 1.6470	32.3850
 1.6480	32.3750
 1.6490	32.3620
 1.6500	32.3470
 1.6510	32.3300
 1.6520	32.3100
 1.6530	32.2880
 1.6540	32.2660
 1.6550	32.2410
 1.6560	32.2160
 1.6570	32.1920
 1.6580	32.1680
 1.6590	32.1480
 1.6600	32.1290
 1.6610	32.1100
 1.6620	32.0960
 1.6630	32.0820
 1.6640	32.0720
 1.6650	32.0640
 1.6660	32.0560
 1.6670	32.0500
 1.6680	32.0480
 1.6690	32.0470
 1.6700	32.0470
 1.6710	32.0480
 1.6720	32.0470
 1.6730	32.0470
 1.6740	32.0480
 1.6750	32.0520
 1.6760	32.0520
 1.6770	32.0510
 1.6780	32.0500
 1.6790	32.0450
 1.6800	32.0400
 1.6810	32.0340
 1.6820	32.0250
 1.6830	32.0130
 1.6840	31.9990
 1.6850	31.9820
 1.6860	31.9620
 1.6870	31.9400
 1.6880	31.9180
 1.6890	31.8940
 1.6900	31.8690
 1.6910	31.8420
 1.6920	31.8140
 1.6930	31.7840
 1.6940	31.7540
 1.6950	31.7210
 1.6960	31.6880
 1.6970	31.6560
 1.6980	31.6220
 1.6990	31.5870
 1.7000	31.5510
 1.7010	31.5120
 1.7020	31.4730
 1.7030	31.4340
 1.7040	31.3930
 1.7050	31.3510
 1.7060	31.3090
 1.7070	31.2680
 1.7080	31.2240
 1.7090	31.1800
 1.7100	31.1350
 1.7110	31.0880
 1.7120	31.0430
 1.7130	30.9970
 1.7140	30.9510
 1.7150	30.9030
 1.7160	30.8530
 1.7170	30.8010
 1.7180	30.7510
 1.7190	30.6980
 1.7200	30.6450
 1.7210	30.5910
 1.7220	30.5330
 1.7230	30.4760
 1.7240	30.4220
 1.7250	30.3660
 1.7260	30.3100
 1.7270	30.2560
 1.7280	30.2010
 1.7290	30.1480
 1.7300	30.0980
 1.7310	30.0490
 1.7320	30.0010
 1.7330	29.9530
 1.7340	29.9070
 1.7350	29.8590
 1.7360	29.8120
 1.7370	29.7630
 1.7380	29.7130
 1.7390	29.6640
 1.7400	29.6150
 1.7410	29.5670
 1.7420	29.5190
 1.7430	29.4710
 1.7440	29.4230
 1.7450	29.3770
 1.7460	29.3320
 1.7470	29.2860
 1.7480	29.2400
 1.7490	29.1950
 1.7500	29.1500
 1.7510	29.1040
 1.7520	29.0580
 1.7530	29.0130
 1.7540	28.9670
 1.7550	28.9190
 1.7560	28.8710
 1.7570	28.8240
 1.7580	28.7800
 1.7590	28.7360
 1.7600	28.6930
 1.7610	28.6480
 1.7620	28.6050
 1.7630	28.5630
 1.7640	28.5210
 1.7650	28.4760
 1.7660	28.4330
 1.7670	28.3890
 1.7680	28.3480
 1.7690	28.3120
 1.7700	28.2730
 1.7710	28.2370
 1.7720	28.2000
 1.7730	28.1610
 1.7740	28.1250
 1.7750	28.0910
 1.7760	28.0560
 1.7770	28.0230
 1.7780	27.9910
 1.7790	27.9590
 1.7800	27.9290
 1.7810	27.9020
 1.7820	27.8760
 1.7830	27.8510
 1.7840	27.8270
 1.7850	27.8040
 1.7860	27.7830
 1.7870	27.7640
 1.7880	27.7470
 1.7890	27.7310
 1.7900	27.7150
 1.7910	27.7010
 1.7920	27.6880
 1.7930	27.6770
 1.7940	27.6670
 1.7950	27.6600
 1.7960	27.6570
 1.7970	27.6530
 1.7980	27.6500
 1.7990	27.6480
 1.8000	27.6460
 1.8010	27.6450
 1.8020	27.6440
 1.8030	27.6450
 1.8040	27.6470
 1.8050	27.6480
 1.8060	27.6500
 1.8070	27.6520
 1.8080	27.6520
 1.8090	27.6530
 1.8100	27.6550
 1.8110	27.6540
 1.8120	27.6530
 1.8130	27.6510
 1.8140	27.6480
 1.8150	27.6520
 1.8160	27.6550
 1.8170	27.6570
 1.8180	27.6590
 1.8190	27.6550
 1.8200	27.6510
 1.8210	27.6450
 1.8220	27.6400
 1.8230	27.6340
 1.8240	27.6280
 1.8250	27.6270
 1.8260	27.6200
 1.8270	27.5840
 1.8280	27.5490
 1.8290	27.5130
 1.8300	27.4780
 1.8310	27.4420
 1.8320	27.4070
 1.8330	27.3710
 1.8340	27.3360
 1.8350	27.3360
 1.8360	27.3010
 1.8370	27.2640
 1.8380	27.2220
 1.8390	27.1740
 1.8400	27.1200
 1.8410	27.0620
 1.8420	26.9980
 1.8430	26.9290
 1.8440	26.8540
 1.8450	26.7710
 1.8460	26.6840
 1.8470	26.5940
 1.8480	26.4980
 1.8490	26.3910
 1.8500	26.2730
 1.8510	26.1470
 1.8520	26.0050
 1.8530	25.8500
 1.8540	25.6880
 1.8550	25.5140
 1.8560	25.3300
 1.8570	25.1330
 1.8580	24.9210
 1.8590	24.6970
 1.8600	24.4590
 1.8610	24.2070
 1.8620	23.9380
 1.8630	23.6570
 1.8640	23.3610
 1.8650	23.0440
 1.8660	22.7120
 1.8670	22.3600
 1.8680	21.9860
 1.8690	21.5950
 1.8700	21.1850
 1.8710	20.7580
 1.8720	20.3190
 1.8730	19.8680
 1.8740	19.4010
 1.8750	18.9250
 1.8760	18.4370
 1.8770	17.9430
 1.8780	17.4470
 1.8790	16.9450
 1.8800	16.4460
 1.8810	15.9470
 1.8820	15.4470
 1.8830	14.9470
 1.8840	14.4550
 1.8850	13.9640
 1.8860	13.4770
 1.8870	13.0050
 1.8880	12.5430
 1.8890	12.0990
 1.8900	11.6740
 1.8910	11.2680
 1.8920	10.8770
 1.8930	10.5070
 1.8940	10.1570
 1.8950	 9.8310
 1.8960	 9.5250
 1.8970	 9.2380
 1.8980	 8.9750
 1.8990	 8.7310
 1.9000	 8.5070
 1.9010	 8.3060
 1.9020	 8.1190
 1.9030	 7.9520
 1.9040	 7.7990
 1.9050	 7.6640
 1.9060	 7.5410
 1.9070	 7.4340
 1.9080	 7.3410
 1.9090	 7.2590
 1.9100	 7.1880
 1.9110	 7.1240
 1.9120	 7.0710
 1.9130	 7.0220
 1.9140	 6.9780
 1.9150	 6.9400
 1.9160	 6.9080
 1.9170	 6.8780
 1.9180	 6.8540
 1.9190	 6.8360
 1.9200	 6.8210
 1.9210	 6.8130
 1.9220	 6.8070
 1.9230	 6.8040
 1.9240	 6.8020
 1.9250	 6.8030
 1.9260	 6.8040
 1.9270	 6.8080
 1.9280	 6.8140
 1.9290	 6.8240
 1.9300	 6.8370
 1.9310	 6.8510
 1.9320	 6.8660
 1.9330	 6.8820
 1.9340	 6.8960
 1.9350	 6.9150
 1.9360	 6.9390
 1.9370	 6.9610
 1.9380	 6.9850
 1.9390	 7.0100
 1.9400	 7.0370
 1.9410	 7.0630
 1.9420	 7.0920
 1.9430	 7.1230
 1.9440	 7.1540
 1.9450	 7.1830
 1.9460	 7.2170
 1.9470	 7.2550
 1.9480	 7.2900
 1.9490	 7.3260
 1.9500	 7.3650
 1.9510	 7.4030
 1.9520	 7.4390
 1.9530	 7.4800
 1.9540	 7.5230
 1.9550	 7.5660
 1.9560	 7.6120
 1.9570	 7.6560
 1.9580	 7.7000
 1.9590	 7.7460
 1.9600	 7.7910
 1.9610	 7.8380
 1.9620	 7.8860
 1.9630	 7.9350
 1.9640	 7.9860
 1.9650	 8.0380
 1.9660	 8.0920
 1.9670	 8.1470
 1.9680	 8.2000
 1.9690	 8.2540
 1.9700	 8.3090
 1.9710	 8.3630
 1.9720	 8.4200
 1.9730	 8.4790
 1.9740	 8.5390
 1.9750	 8.6000
 1.9760	 8.6630
 1.9770	 8.7240
 1.9780	 8.7840
 1.9790	 8.8460
 1.9800	 8.9050
 1.9810	 8.9680
 1.9820	 9.0350
 1.9830	 9.1010
 1.9840	 9.1680
 1.9850	 9.2370
 1.9860	 9.3050
 1.9870	 9.3740
 1.9880	 9.4460
 1.9890	 9.5160
 1.9900	 9.5830
 1.9910	 9.6500
 1.9920	 9.7190
 1.9930	 9.7870
 1.9940	 9.8570
 1.9950	 9.9320
 1.9960	10.0030
 1.9970	10.0720
 1.9980	10.1430
 1.9990	10.2140
 2.0000	10.2840
 2.0010	10.3540
 2.0020	10.4270
 2.0030	10.4990
 2.0040	10.5710
 2.0050	10.6420
 2.0060	10.7140
 2.0070	10.7830
 2.0080	10.8490
 2.0090	10.9150
 2.0100	10.9790
 2.0110	11.0450
 2.0120	11.1110
 2.0130	11.1760
 2.0140	11.2390
 2.0150	11.3040
 2.0160	11.3660
 2.0170	11.4270
 2.0180	11.4890
 2.0190	11.5510
 2.0200	11.6110
 2.0210	11.6680
 2.0220	11.7250
 2.0230	11.7800
 2.0240	11.8340
 2.0250	11.8870
 2.0260	11.9370
 2.0270	11.9850
 2.0280	12.0350
 2.0290	12.0800
 2.0300	12.1270
 2.0310	12.1720
 2.0320	12.2160
 2.0330	12.2580
 2.0340	12.2990
 2.0350	12.3390
 2.0360	12.3780
 2.0370	12.4170
 2.0380	12.4570
 2.0390	12.4940
 2.0400	12.5270
 2.0410	12.5600
 2.0420	12.5940
 2.0430	12.6230
 2.0440	12.6520
 2.0450	12.6820
 2.0460	12.7090
 2.0470	12.7340
 2.0480	12.7610
 2.0490	12.7880
 2.0500	12.8160
 2.0510	12.8440
 2.0520	12.8720
 2.0530	12.9010
 2.0540	12.9290
 2.0550	12.9570
 2.0560	12.9830
 2.0570	13.0110
 2.0580	13.0400
 2.0590	13.0680
 2.0600	13.0970
 2.0610	13.1250
 2.0620	13.1510
 2.0630	13.1790
 2.0640	13.2080
 2.0650	13.2360
 2.0660	13.2660
 2.0670	13.2930
 2.0680	13.3210
 2.0690	13.3480
 2.0700	13.3720
 2.0710	13.3980
 2.0720	13.4250
 2.0730	13.4520
 2.0740	13.4770
 2.0750	13.5020
 2.0760	13.5270
 2.0770	13.5500
 2.0780	13.5740
 2.0790	13.5990
 2.0800	13.6220
 2.0810	13.6430
 2.0820	13.6640
 2.0830	13.6840
 2.0840	13.7050
 2.0850	13.7270
 2.0860	13.7490
 2.0870	13.7720
 2.0880	13.7950
 2.0890	13.8140
 2.0900	13.8300
 2.0910	13.8490
 2.0920	13.8650
 2.0930	13.8840
 2.0940	13.9080
 2.0950	13.9270
 2.0960	13.9460
 2.0970	13.9640
 2.0980	13.9770
 2.0990	13.9940
 2.1000	14.0120
 2.1010	14.0300
 2.1020	14.0510
 2.1030	14.0690
 2.1040	14.0840
 2.1050	14.0990
 2.1060	14.1140
 2.1070	14.1290
 2.1080	14.1450
 2.1090	14.1640
 2.1100	14.1810
 2.1110	14.1990
 2.1120	14.2150
 2.1130	14.2310
 2.1140	14.2460
 2.1150	14.2600
 2.1160	14.2740
 2.1170	14.2870
 2.1180	14.3010
 2.1190	14.3130
 2.1200	14.3270
 2.1210	14.3400
 2.1220	14.3530
 2.1230	14.3640
 2.1240	14.3730
 2.1250	14.3850
 2.1260	14.3950
 2.1270	14.4060
 2.1280	14.4200
 2.1290	14.4320
 2.1300	14.4420
 2.1310	14.4530
 2.1320	14.4650
 2.1330	14.4770
 2.1340	14.4900
 2.1350	14.5020
 2.1360	14.5150
 2.1370	14.5290
 2.1380	14.5420
 2.1390	14.5550
 2.1400	14.5680
 2.1410	14.5840
 2.1420	14.6000
 2.1430	14.6150
 2.1440	14.6350
 2.1450	14.6600
 2.1460	14.6820
 2.1470	14.7060
 2.1480	14.7280
 2.1490	14.7480
 2.1500	14.7720
 2.1510	14.7990
 2.1520	14.8250
 2.1530	14.8510
 2.1540	14.8770
 2.1550	14.9040
 2.1560	14.9280
 2.1570	14.9530
 2.1580	14.9770
 2.1590	14.9990
 2.1600	15.0170
 2.1610	15.0420
 2.1620	15.0660
 2.1630	15.0880
 2.1640	15.1120
 2.1650	15.1340
 2.1660	15.1510
 2.1670	15.1740
 2.1680	15.2010
 2.1690	15.2240
 2.1700	15.2470
 2.1710	15.2690
 2.1720	15.2870
 2.1730	15.3080
 2.1740	15.3300
 2.1750	15.3530
 2.1760	15.3770
 2.1770	15.4020
 2.1780	15.4300
 2.1790	15.4570
 2.1800	15.4860
 2.1810	15.5130
 2.1820	15.5380
 2.1830	15.5630
 2.1840	15.5880
 2.1850	15.6120
 2.1860	15.6400
 2.1870	15.6720
 2.1880	15.7020
 2.1890	15.7340
 2.1900	15.7630
 2.1910	15.7900
 2.1920	15.8180
 2.1930	15.8440
 2.1940	15.8700
 2.1950	15.8950
 2.1960	15.9220
 2.1970	15.9490
 2.1980	15.9760
 2.1990	16.0040
 2.2000	16.0310
 2.2010	16.0580
 2.2020	16.0850
 2.2030	16.1150
 2.2040	16.1420
 2.2050	16.1680
 2.2060	16.1920
 2.2070	16.2140
 2.2080	16.2330
 2.2090	16.2540
 2.2100	16.2750
 2.2110	16.2960
 2.2120	16.3190
 2.2130	16.3380
 2.2140	16.3560
 2.2150	16.3730
 2.2160	16.3870
 2.2170	16.4000
 2.2180	16.4130
 2.2190	16.4220
 2.2200	16.4280
 2.2210	16.4320
 2.2220	16.4340
 2.2230	16.4340
 2.2240	16.4320
 2.2250	16.4290
 2.2260	16.4260
 2.2270	16.4190
 2.2280	16.4110
 2.2290	16.4000
 2.2300	16.3850
 2.2310	16.3660
 2.2320	16.3490
 2.2330	16.3290
 2.2340	16.3050
 2.2350	16.2770
 2.2360	16.2490
 2.2370	16.2170
 2.2380	16.1840
 2.2390	16.1510
 2.2400	16.1150
 2.2410	16.0730
 2.2420	16.0330
 2.2430	15.9920
 2.2440	15.9500
 2.2450	15.9060
 2.2460	15.8630
 2.2470	15.8200
 2.2480	15.7760
 2.2490	15.7340
 2.2500	15.6880
 2.2510	15.6390
 2.2520	15.5920
 2.2530	15.5420
 2.2540	15.4930
 2.2550	15.4440
 2.2560	15.3970
 2.2570	15.3530
 2.2580	15.3060
 2.2590	15.2640
 2.2600	15.2160
 2.2610	15.1650
 2.2620	15.1110
 2.2630	15.0540
 2.2640	14.9970
 2.2650	14.9470
 2.2660	14.9030
 2.2670	14.8620
 2.2680	14.8290
 2.2690	14.7880
 2.2700	14.7460
 2.2710	14.7060
 2.2720	14.6630
 2.2730	14.6250
 2.2740	14.5900
 2.2750	14.5550
 2.2760	14.5210
 2.2770	14.4860
 2.2780	14.4490
 2.2790	14.4140
 2.2800	14.3810
 2.2810	14.3450
 2.2820	14.3070
 2.2830	14.2730
 2.2840	14.2370
 2.2850	14.2050
 2.2860	14.1820
 2.2870	14.1500
 2.2880	14.1140
 2.2890	14.0780
 2.2900	14.0390
 2.2910	14.0010
 2.2920	13.9620
 2.2930	13.9250
 2.2940	13.8890
 2.2950	13.8520
 2.2960	13.8200
 2.2970	13.7850
 2.2980	13.7470
 2.2990	13.7070
 2.3000	13.6680
 2.3010	13.6300
 2.3020	13.5940
 2.3030	13.5570
 2.3040	13.5230
 2.3050	13.4870
 2.3060	13.4550
 2.3070	13.4270
 2.3080	13.3930
 2.3090	13.3580
 2.3100	13.3270
 2.3110	13.2950
 2.3120	13.2630
 2.3130	13.2340
 2.3140	13.2020
 2.3150	13.1640
 2.3160	13.1340
 2.3170	13.1090
 2.3180	13.0810
 2.3190	13.0560
 2.3200	13.0270
 2.3210	12.9950
 2.3220	12.9640
 2.3230	12.9360
 2.3240	12.9050
 2.3250	12.8730
 2.3260	12.8380
 2.3270	12.7990
 2.3280	12.7630
 2.3290	12.7270
 2.3300	12.6900
 2.3310	12.6540
 2.3320	12.6170
 2.3330	12.5770
 2.3340	12.5390
 2.3350	12.5040
 2.3360	12.4650
 2.3370	12.4250
 2.3380	12.3840
 2.3390	12.3380
 2.3400	12.2970
 2.3410	12.2590
 2.3420	12.2200
 2.3430	12.1790
 2.3440	12.1440
 2.3450	12.1120
 2.3460	12.0780
 2.3470	12.0450
 2.3480	12.0140
 2.3490	11.9800
 2.3500	11.9490
 2.3510	11.9240
 2.3520	11.8950
 2.3530	11.8580
 2.3540	11.8320
 2.3550	11.8090
 2.3560	11.7900
 2.3570	11.7730
 2.3580	11.7450
 2.3590	11.7090
 2.3600	11.6670
 2.3610	11.6330
 2.3620	11.6040
 2.3630	11.5730
 2.3640	11.5510
 2.3650	11.5210
 2.3660	11.4840
 2.3670	11.4520
 2.3680	11.4150
 2.3690	11.3760
 2.3700	11.3400
 2.3710	11.2970
 2.3720	11.2550
 2.3730	11.2180
 2.3740	11.1840
 2.3750	11.1490
 2.3760	11.1200
 2.3770	11.0880
 2.3780	11.0420
 2.3790	10.9990
 2.3800	10.9660
 2.3810	10.9310
 2.3820	10.9050
 2.3830	10.8850
 2.3840	10.8500
 2.3850	10.8130
 2.3860	10.7740
 2.3870	10.7270
 2.3880	10.6860
 2.3890	10.6460
 2.3900	10.6040
 2.3910	10.5650
 2.3920	10.5240
 2.3930	10.4780
 2.3940	10.4390
 2.3950	10.3920
 2.3960	10.3440
 2.3970	10.3050
 2.3980	10.2610
 2.3990	10.2280
 2.4000	10.2030
 2.4010	10.1650
 2.4020	10.1250
 2.4030	10.0770
 2.4040	10.0250
 2.4050	 9.9770
 2.4060	 9.9380
 2.4070	 9.9000
 2.4080	 9.8590
 2.4090	 9.8260
 2.4100	 9.7780
 2.4110	 9.7200
 2.4120	 9.6670
 2.4130	 9.5970
 2.4140	 9.5340
 2.4150	 9.4980
 2.4160	 9.4580
 2.4170	 9.4190
 2.4180	 9.3860
 2.4190	 9.3350
 2.4200	 9.2800
 2.4210	 9.2370
 2.4220	 9.1930
 2.4230	 9.1520
 2.4240	 9.1140
 2.4250	 9.0700
 2.4260	 9.0330
 2.4270	 8.9980
 2.4280	 8.9550
 2.4290	 8.9080
 2.4300	 8.8570
 2.4310	 8.8120
 2.4320	 8.7670
 2.4330	 8.7140
 2.4340	 8.6700
 2.4350	 8.6190
 2.4360	 8.5760
 2.4370	 8.5520
 2.4380	 8.5220
 2.4390	 8.4830
 2.4400	 8.4390
 2.4410	 8.3920
 2.4420	 8.3420
 2.4430	 8.3010
 2.4440	 8.2580
 2.4450	 8.2080
 2.4460	 8.1610
 2.4470	 8.1040
 2.4480	 8.0500
 2.4490	 8.0000
 2.4500	 7.9530
 2.4510	 7.9200
 2.4520	 7.8880
 2.4530	 7.8630
 2.4540	 7.8510
 2.4550	 7.8330
 2.4560	 7.8020
 2.4570	 7.7510
 2.4580	 7.6800
 2.4590	 7.6110
 2.4600	 7.5550
 2.4610	 7.5340
 2.4620	 7.5340
 2.4630	 7.5230
 2.4640	 7.5080
 2.4650	 7.4690
 2.4660	 7.4110
 2.4670	 7.3640
 2.4680	 7.3410
 2.4690	 7.3290
 2.4700	 7.3060
 2.4710	 7.2670
 2.4720	 7.2460
 2.4730	 7.2390
 2.4740	 7.2210
 2.4750	 7.2170
 2.4760	 7.2030
 2.4770	 7.1680
 2.4780	 7.1390
 2.4790	 7.1160
 2.4800	 7.0870
 2.4810	 7.0400
 2.4820	 7.0380
 2.4830	 7.0390
 2.4840	 7.0650
 2.4850	 7.0810
 2.4860	 7.0540
 2.4870	 7.0150
 2.4880	 6.9550
 2.4890	 6.8960
 2.4900	 6.8770
 2.4910	 6.8940
 2.4920	 6.9150
 2.4930	 6.9380
 2.4940	 6.9650
 2.4950	 6.9810
 2.4960	 6.9650
 2.4970	 6.9490
 2.4980	 6.9470
 2.4990	 6.8940
 2.5000	 6.8390
