Name: Baccharis pilularis 1
Type: vegetation
Class: Shrub
Genus: Baccharis
Species: pilularis
Sample No.: VH002
Owner: UCSB
Wavelength Range: TIR
Origin: 34.418; -119.8455; WGS84
Collection Date: 4/1/2013
Description: Samples were collected as part of the HyspIRI Airborne Campaign. 48 individual plants were sampled in three times in 2013 - spring  summer  and fall. The name of the sample includes a 1  2  or 3 which references a different individual of the species. Samples were taken to JPL and processed within 48 hours of collection. The same leaves were processed in the Nicolet and then measured using the ASD.
Measurement: Hemispherical reflectance
First Column: X
Second Column: Y
X Units: Wavelength (micrometers)
Y Units: Reflectance (percentage)
First X Value: 2.501
Last X Value: 15.387
Number of X Values: 1737
Additional Information: vegetation.shrub.baccharis.pilularis.tir.vh002.ucsb.nicolet.ancillary.txt

 2.5010	12.2570
 2.5030	12.2000
 2.5040	12.0250
 2.5050	11.9360
 2.5060	11.9830
 2.5070	11.9650
 2.5090	12.0240
 2.5100	12.0100
 2.5110	12.0350
 2.5120	12.0350
 2.5140	12.0480
 2.5150	11.9990
 2.5160	11.9540
 2.5170	11.8300
 2.5180	11.8830
 2.5200	11.8070
 2.5210	11.8690
 2.5220	11.9190
 2.5230	11.9680
 2.5250	11.9860
 2.5260	12.0210
 2.5270	12.0060
 2.5280	11.9220
 2.5290	11.8470
 2.5310	11.8980
 2.5320	11.7850
 2.5330	11.7250
 2.5340	11.8690
 2.5360	11.9890
 2.5370	12.0360
 2.5380	12.0450
 2.5390	11.9620
 2.5410	12.0230
 2.5420	11.8720
 2.5430	11.9560
 2.5440	12.0710
 2.5460	12.0560
 2.5470	11.8960
 2.5480	11.9680
 2.5490	12.0670
 2.5510	12.0260
 2.5520	11.9400
 2.5530	12.1010
 2.5540	12.0930
 2.5560	11.9830
 2.5570	11.8610
 2.5580	11.7930
 2.5590	11.7820
 2.5610	11.9100
 2.5620	12.0630
 2.5630	12.1080
 2.5640	12.0190
 2.5660	12.0330
 2.5670	11.8460
 2.5680	11.8500
 2.5700	11.9730
 2.5710	11.9800
 2.5720	11.9150
 2.5730	12.1120
 2.5750	12.1270
 2.5760	12.0270
 2.5770	12.0800
 2.5790	12.1990
 2.5800	12.0940
 2.5810	11.9370
 2.5820	11.8980
 2.5840	12.0250
 2.5850	12.0360
 2.5860	11.9770
 2.5880	11.8870
 2.5890	11.8530
 2.5900	11.7840
 2.5910	11.7790
 2.5930	11.9280
 2.5940	12.0430
 2.5950	11.9980
 2.5970	11.8660
 2.5980	11.8720
 2.5990	11.9770
 2.6000	11.8650
 2.6020	11.7310
 2.6030	11.6320
 2.6040	11.7980
 2.6060	11.9310
 2.6070	11.7820
 2.6080	11.7170
 2.6100	11.7810
 2.6110	11.7900
 2.6120	11.8540
 2.6140	11.7470
 2.6150	11.7230
 2.6160	11.6010
 2.6180	11.5590
 2.6190	11.6200
 2.6200	11.7070
 2.6220	11.6590
 2.6230	11.6410
 2.6240	11.6670
 2.6260	11.7230
 2.6270	11.6000
 2.6280	11.5890
 2.6300	11.6110
 2.6310	11.4890
 2.6320	11.3370
 2.6340	11.4970
 2.6350	11.5500
 2.6360	11.5240
 2.6380	11.4380
 2.6390	11.3260
 2.6400	11.1820
 2.6420	11.2420
 2.6430	11.3160
 2.6440	11.3700
 2.6460	11.4140
 2.6470	11.3110
 2.6480	11.1910
 2.6500	11.2180
 2.6510	11.1840
 2.6520	11.2590
 2.6540	11.2370
 2.6550	11.2660
 2.6560	11.1890
 2.6580	11.0420
 2.6590	10.9970
 2.6610	11.0180
 2.6620	10.9950
 2.6630	11.0590
 2.6650	11.0980
 2.6660	11.0810
 2.6670	11.0600
 2.6690	11.1330
 2.6700	11.1290
 2.6720	11.0660
 2.6730	11.0460
 2.6740	11.1010
 2.6760	11.0300
 2.6770	10.8620
 2.6780	10.8400
 2.6800	11.0740
 2.6810	11.0610
 2.6830	10.9870
 2.6840	10.8490
 2.6850	10.7660
 2.6870	10.7490
 2.6880	10.7950
 2.6900	10.6480
 2.6910	10.5480
 2.6920	10.5340
 2.6940	10.5660
 2.6950	10.5170
 2.6970	10.5000
 2.6980	10.4170
 2.6990	10.5050
 2.7010	10.5100
 2.7020	10.5300
 2.7040	10.4730
 2.7050	10.4970
 2.7060	10.4630
 2.7080	10.4620
 2.7090	10.4470
 2.7110	10.4060
 2.7120	10.2740
 2.7130	10.2000
 2.7150	10.1750
 2.7160	10.2170
 2.7180	10.1620
 2.7190	10.0640
 2.7210	10.0150
 2.7220	10.0980
 2.7230	10.1460
 2.7250	10.1000
 2.7260	 9.9900
 2.7280	10.0880
 2.7290	10.1290
 2.7310	10.0330
 2.7320	 9.8840
 2.7330	 9.8230
 2.7350	 9.8720
 2.7360	 9.8720
 2.7380	 9.6470
 2.7390	 9.7540
 2.7410	 9.9370
 2.7420	 9.9760
 2.7440	 9.8120
 2.7450	 9.5810
 2.7470	 9.6030
 2.7480	 9.6200
 2.7490	 9.5420
 2.7510	 9.5420
 2.7520	 9.6690
 2.7540	 9.8860
 2.7550	10.0450
 2.7570	10.0270
 2.7580	 9.9690
 2.7600	 9.7400
 2.7610	 9.6910
 2.7630	 9.8080
 2.7640	 9.6460
 2.7660	 9.6470
 2.7670	 9.6300
 2.7680	 9.5400
 2.7700	 9.4910
 2.7710	 9.6530
 2.7730	 9.7250
 2.7740	 9.7690
 2.7760	 9.6960
 2.7770	 9.7380
 2.7790	 9.6450
 2.7800	 9.5170
 2.7820	 9.5400
 2.7830	 9.4880
 2.7850	 9.3570
 2.7860	 9.3420
 2.7880	 9.4180
 2.7890	 9.7060
 2.7910	 9.5720
 2.7920	 9.5030
 2.7940	 9.4820
 2.7950	 9.5080
 2.7970	 9.3800
 2.7980	 9.5130
 2.8000	 9.6010
 2.8010	 9.6000
 2.8030	 9.4560
 2.8040	 9.4070
 2.8060	 9.4410
 2.8070	 9.5720
 2.8090	 9.3550
 2.8110	 9.1730
 2.8120	 9.2100
 2.8140	 9.3940
 2.8150	 9.2610
 2.8170	 9.3130
 2.8180	 9.4780
 2.8200	 9.5470
 2.8210	 9.4580
 2.8230	 9.3370
 2.8240	 9.2500
 2.8260	 9.4310
 2.8270	 9.4950
 2.8290	 9.4340
 2.8300	 9.3170
 2.8320	 9.3850
 2.8340	 9.4510
 2.8350	 9.4640
 2.8370	 9.3920
 2.8380	 9.4410
 2.8400	 9.4110
 2.8410	 9.4440
 2.8430	 9.3080
 2.8440	 9.4130
 2.8460	 9.6100
 2.8480	 9.7240
 2.8490	 9.5730
 2.8510	 9.5270
 2.8520	 9.4870
 2.8540	 9.4190
 2.8550	 9.3730
 2.8570	 9.4030
 2.8590	 9.3310
 2.8600	 9.4830
 2.8620	 9.5020
 2.8630	 9.4070
 2.8650	 9.2860
 2.8660	 9.2080
 2.8680	 9.2130
 2.8700	 9.4050
 2.8710	 9.2890
 2.8730	 9.2000
 2.8740	 9.1050
 2.8760	 9.2310
 2.8780	 9.3770
 2.8790	 9.2990
 2.8810	 9.2810
 2.8820	 9.4240
 2.8840	 9.3180
 2.8860	 9.2990
 2.8870	 9.3040
 2.8890	 9.3770
 2.8900	 9.3260
 2.8920	 9.2750
 2.8940	 9.2120
 2.8950	 9.2300
 2.8970	 9.1330
 2.8980	 9.1130
 2.9000	 9.1220
 2.9020	 9.3570
 2.9030	 9.4920
 2.9050	 9.6400
 2.9070	 9.5670
 2.9080	 9.3410
 2.9100	 9.2730
 2.9120	 9.2870
 2.9130	 9.2810
 2.9150	 9.4720
 2.9160	 9.4000
 2.9180	 9.3590
 2.9200	 9.3680
 2.9210	 9.4070
 2.9230	 9.4390
 2.9250	 9.5930
 2.9260	 9.4830
 2.9280	 9.3730
 2.9300	 9.3880
 2.9310	 9.5600
 2.9330	 9.5090
 2.9350	 9.5370
 2.9360	 9.5490
 2.9380	 9.4840
 2.9400	 9.4220
 2.9410	 9.2770
 2.9430	 9.2670
 2.9450	 9.2190
 2.9460	 9.2400
 2.9480	 9.6620
 2.9500	 9.8690
 2.9510	 9.6870
 2.9530	 9.5010
 2.9550	 9.6120
 2.9560	 9.4260
 2.9580	 9.2600
 2.9600	 9.6440
 2.9610	 9.8320
 2.9630	 9.7570
 2.9650	 9.4570
 2.9660	 9.4900
 2.9680	 9.9890
 2.9700	 9.9120
 2.9720	 9.3930
 2.9730	 9.2880
 2.9750	 9.7140
 2.9770	 9.4350
 2.9780	 9.3000
 2.9800	 9.5350
 2.9820	 9.1750
 2.9840	 8.9400
 2.9850	 9.6150
 2.9870	 9.8010
 2.9890	 9.4600
 2.9900	 9.1170
 2.9920	 9.1130
 2.9940	 9.5670
 2.9960	10.3000
 2.9970	10.9210
 2.9990	10.9070
 3.0010	10.5720
 3.0030	10.0670
 3.0040	 9.3680
 3.0060	 9.5840
 3.0080	 9.6870
 3.0100	 9.7930
 3.0110	 9.5270
 3.0130	 9.6340
 3.0150	 9.4180
 3.0170	 9.3500
 3.0180	 9.3020
 3.0200	 9.0710
 3.0220	 9.0060
 3.0240	 9.0780
 3.0250	 9.2110
 3.0270	 9.6660
 3.0290	 9.6940
 3.0310	 9.5210
 3.0320	 9.4430
 3.0340	 9.2640
 3.0360	 8.4120
 3.0380	 8.5440
 3.0400	 9.4270
 3.0410	10.0230
 3.0430	 9.9710
 3.0450	 9.7370
 3.0470	 9.8760
 3.0480	10.1070
 3.0500	10.3680
 3.0520	 9.8580
 3.0540	 9.6040
 3.0560	10.3280
 3.0570	10.6530
 3.0590	10.4280
 3.0610	 9.7970
 3.0630	 9.2640
 3.0650	 9.2160
 3.0660	 9.2270
 3.0680	 9.4530
 3.0700	 9.6790
 3.0720	 9.6400
 3.0740	 9.4780
 3.0760	 9.3480
 3.0770	 9.2820
 3.0790	 9.2830
 3.0810	 9.3450
 3.0830	 9.5210
 3.0850	 9.6780
 3.0870	 9.4860
 3.0880	 9.2770
 3.0900	 9.4020
 3.0920	 9.5540
 3.0940	 9.6370
 3.0960	 9.3930
 3.0980	 9.3160
 3.0990	 9.4860
 3.1010	 9.3580
 3.1030	 9.3530
 3.1050	 9.3540
 3.1070	 9.5220
 3.1090	 9.5540
 3.1110	 9.3500
 3.1120	 9.1290
 3.1140	 9.2360
 3.1160	 9.3260
 3.1180	 9.4490
 3.1200	 9.5930
 3.1220	 9.7210
 3.1240	 9.8150
 3.1260	 9.7340
 3.1270	 9.4990
 3.1290	 9.3580
 3.1310	 9.6110
 3.1330	 9.8160
 3.1350	 9.4680
 3.1370	 9.2770
 3.1390	 9.4380
 3.1410	 9.5100
 3.1430	 9.3850
 3.1450	 8.9950
 3.1460	 8.9850
 3.1480	 9.2900
 3.1500	 9.2910
 3.1520	 9.1590
 3.1540	 9.2650
 3.1560	 9.5600
 3.1580	 9.5580
 3.1600	 9.6200
 3.1620	 9.5050
 3.1640	 9.6910
 3.1660	 9.9510
 3.1680	 9.5450
 3.1700	 9.4020
 3.1710	 9.9050
 3.1730	10.1230
 3.1750	 9.7990
 3.1770	 9.3110
 3.1790	 9.6130
 3.1810	 9.7740
 3.1830	 9.1470
 3.1850	 9.0320
 3.1870	 9.3220
 3.1890	 9.3240
 3.1910	 9.3260
 3.1930	 9.1980
 3.1950	 9.2360
 3.1970	 9.2050
 3.1990	 9.2970
 3.2010	 9.1590
 3.2030	 9.2830
 3.2050	 9.4210
 3.2070	 9.2870
 3.2090	 9.1750
 3.2110	 9.3320
 3.2130	 9.4270
 3.2150	 9.4270
 3.2170	 9.2550
 3.2190	 9.2060
 3.2210	 9.2200
 3.2230	 9.3490
 3.2250	 9.4070
 3.2270	 9.4520
 3.2290	 9.3960
 3.2310	 9.4470
 3.2330	 9.3780
 3.2350	 9.3540
 3.2370	 9.2600
 3.2390	 9.4220
 3.2410	 9.5250
 3.2430	 9.5270
 3.2450	 9.5170
 3.2470	 9.7640
 3.2490	 9.8100
 3.2510	 9.5920
 3.2530	 9.3440
 3.2550	 9.2290
 3.2570	 9.3220
 3.2590	 9.2790
 3.2610	 9.2340
 3.2630	 9.3260
 3.2650	 9.3560
 3.2670	 9.3520
 3.2690	 9.2750
 3.2720	 9.2690
 3.2740	 9.2630
 3.2760	 9.2390
 3.2780	 9.2240
 3.2800	 9.2280
 3.2820	 9.2050
 3.2840	 9.1800
 3.2860	 9.2100
 3.2880	 9.2080
 3.2900	 9.1570
 3.2920	 9.2170
 3.2940	 9.2680
 3.2960	 9.2100
 3.2990	 9.0990
 3.3010	 9.2290
 3.3030	 9.3030
 3.3050	 9.2720
 3.3070	 9.0950
 3.3090	 9.0270
 3.3110	 9.0810
 3.3130	 9.1520
 3.3150	 9.0720
 3.3180	 9.0630
 3.3200	 9.1490
 3.3220	 9.2170
 3.3240	 9.1130
 3.3260	 9.0050
 3.3280	 9.0330
 3.3300	 9.0620
 3.3330	 8.9040
 3.3350	 8.8240
 3.3370	 8.8940
 3.3390	 9.0660
 3.3410	 9.1700
 3.3430	 9.0630
 3.3450	 9.0080
 3.3480	 9.0090
 3.3500	 9.0060
 3.3520	 8.9950
 3.3540	 8.7820
 3.3560	 8.7990
 3.3580	 8.8870
 3.3610	 8.8720
 3.3630	 8.7490
 3.3650	 8.9060
 3.3670	 8.8760
 3.3690	 8.8770
 3.3720	 8.9740
 3.3740	 8.9640
 3.3760	 8.8560
 3.3780	 8.9850
 3.3800	 9.0950
 3.3830	 9.1820
 3.3850	 9.0590
 3.3870	 9.0060
 3.3890	 9.0560
 3.3910	 9.1110
 3.3940	 9.1230
 3.3960	 9.1580
 3.3980	 9.2200
 3.4000	 9.1690
 3.4020	 9.1100
 3.4050	 9.1810
 3.4070	 9.2270
 3.4090	 9.3490
 3.4110	 9.4220
 3.4140	 9.4500
 3.4160	 9.4380
 3.4180	 9.5580
 3.4200	 9.7350
 3.4230	 9.8480
 3.4250	 9.7780
 3.4270	 9.9320
 3.4290	10.0010
 3.4320	10.0270
 3.4340	 9.9380
 3.4360	 9.9830
 3.4390	 9.8430
 3.4410	 9.7260
 3.4430	 9.6490
 3.4450	 9.4630
 3.4480	 9.4320
 3.4500	 9.6000
 3.4520	 9.7500
 3.4550	 9.9770
 3.4570	 9.7930
 3.4590	 9.6650
 3.4620	 9.6520
 3.4640	 9.7010
 3.4660	 9.7060
 3.4680	 9.6940
 3.4710	 9.5570
 3.4730	 9.4730
 3.4750	 9.5520
 3.4780	 9.5550
 3.4800	 9.5110
 3.4820	 9.5160
 3.4850	 9.4890
 3.4870	 9.5850
 3.4890	 9.4970
 3.4920	 9.5520
 3.4940	 9.6920
 3.4970	 9.5670
 3.4990	 9.5460
 3.5010	 9.7760
 3.5040	 9.8450
 3.5060	 9.9010
 3.5080	10.0340
 3.5110	10.0530
 3.5130	10.1440
 3.5160	10.1160
 3.5180	 9.8630
 3.5200	 9.8840
 3.5230	 9.8780
 3.5250	 9.8810
 3.5270	 9.8070
 3.5300	 9.7670
 3.5320	 9.8030
 3.5350	 9.7810
 3.5370	 9.7480
 3.5400	 9.8530
 3.5420	 9.8670
 3.5440	 9.9040
 3.5470	 9.8480
 3.5490	 9.8460
 3.5520	 9.8570
 3.5540	 9.8220
 3.5570	 9.7770
 3.5590	 9.8240
 3.5610	 9.7810
 3.5640	 9.8230
 3.5660	 9.8020
 3.5690	 9.6970
 3.5710	 9.7230
 3.5740	 9.8570
 3.5760	 9.8090
 3.5790	 9.8680
 3.5810	 9.7770
 3.5840	 9.7540
 3.5860	 9.8150
 3.5890	 9.8610
 3.5910	 9.9490
 3.5930	10.0240
 3.5960	 9.9770
 3.5980	 9.8670
 3.6010	 9.6410
 3.6030	 9.7260
 3.6060	 9.8540
 3.6080	 9.8240
 3.6110	 9.8300
 3.6140	 9.8950
 3.6160	 9.8950
 3.6190	 9.8940
 3.6210	 9.8460
 3.6240	 9.7780
 3.6260	 9.7070
 3.6290	 9.7810
 3.6310	 9.8020
 3.6340	 9.7360
 3.6360	 9.7380
 3.6390	 9.8250
 3.6410	 9.7710
 3.6440	 9.7760
 3.6470	 9.8080
 3.6490	 9.8170
 3.6520	 9.7720
 3.6540	 9.8380
 3.6570	 9.7940
 3.6590	 9.7990
 3.6620	 9.8280
 3.6650	 9.8930
 3.6670	 9.9250
 3.6700	 9.9100
 3.6720	 9.8290
 3.6750	 9.8370
 3.6780	 9.8600
 3.6800	 9.8510
 3.6830	 9.8120
 3.6850	 9.8590
 3.6880	 9.8620
 3.6910	 9.8140
 3.6930	 9.8040
 3.6960	 9.8550
 3.6990	 9.8650
 3.7010	 9.8560
 3.7040	 9.8610
 3.7060	 9.8810
 3.7090	 9.8380
 3.7120	 9.8920
 3.7140	 9.9650
 3.7170	 9.9140
 3.7200	 9.7730
 3.7220	 9.7630
 3.7250	 9.8550
 3.7280	 9.9030
 3.7300	 9.8410
 3.7330	 9.8180
 3.7360	 9.8850
 3.7390	 9.9180
 3.7410	 9.9270
 3.7440	 9.9770
 3.7470	 9.9380
 3.7490	 9.9330
 3.7520	 9.9340
 3.7550	10.0110
 3.7580	 9.9440
 3.7600	 9.9160
 3.7630	 9.9390
 3.7660	 9.9360
 3.7680	 9.9210
 3.7710	 9.8980
 3.7740	 9.8860
 3.7770	 9.9660
 3.7790	10.0140
 3.7820	 9.9750
 3.7850	 9.9280
 3.7880	 9.9470
 3.7900	 9.8970
 3.7930	 9.8510
 3.7960	 9.8680
 3.7990	 9.9250
 3.8020	 9.9370
 3.8040	 9.9870
 3.8070	 9.9980
 3.8100	 9.9450
 3.8130	 9.8550
 3.8160	 9.9250
 3.8180	 9.9680
 3.8210	 9.9690
 3.8240	 9.9120
 3.8270	 9.8710
 3.8300	 9.9070
 3.8330	 9.9690
 3.8350	 9.9210
 3.8380	 9.9280
 3.8410	 9.9870
 3.8440	10.0000
 3.8470	 9.9610
 3.8500	10.0160
 3.8520	 9.9920
 3.8550	 9.9460
 3.8580	10.0170
 3.8610	10.0120
 3.8640	 9.9070
 3.8670	 9.8690
 3.8700	 9.9230
 3.8730	10.0710
 3.8750	10.0710
 3.8780	10.0070
 3.8810	 9.9750
 3.8840	 9.9680
 3.8870	 9.9760
 3.8900	10.0710
 3.8930	10.0500
 3.8960	10.0260
 3.8990	10.0200
 3.9020	 9.9880
 3.9050	 9.9970
 3.9080	10.1170
 3.9110	10.1140
 3.9140	10.0430
 3.9160	10.0780
 3.9190	10.0720
 3.9220	10.0210
 3.9250	10.0950
 3.9280	10.1090
 3.9310	10.0730
 3.9340	10.0790
 3.9370	10.0700
 3.9400	10.0160
 3.9430	10.0020
 3.9460	 9.9710
 3.9490	 9.9980
 3.9520	 9.9840
 3.9550	10.0430
 3.9580	10.0520
 3.9610	10.0520
 3.9640	10.0450
 3.9670	10.0480
 3.9700	10.0110
 3.9730	 9.9890
 3.9770	10.0000
 3.9800	10.0510
 3.9830	 9.9900
 3.9860	 9.9630
 3.9890	 9.9670
 3.9920	10.0040
 3.9950	10.0460
 3.9980	10.0660
 4.0010	10.0230
 4.0040	10.0540
 4.0070	10.0800
 4.0100	10.0480
 4.0130	10.0980
 4.0170	10.0520
 4.0200	 9.9050
 4.0230	 9.9580
 4.0260	 9.9960
 4.0290	10.0280
 4.0320	10.0140
 4.0350	 9.8920
 4.0380	 9.8650
 4.0420	 9.9330
 4.0450	 9.9550
 4.0480	10.0090
 4.0510	 9.9700
 4.0540	 9.8930
 4.0570	 9.8780
 4.0610	 9.9150
 4.0640	 9.8730
 4.0670	 9.9250
 4.0700	10.0660
 4.0730	10.0930
 4.0770	 9.9960
 4.0800	 9.9260
 4.0830	 9.8560
 4.0860	 9.9070
 4.0890	 9.9050
 4.0930	 9.8910
 4.0960	10.0240
 4.0990	10.1270
 4.1020	10.0330
 4.1060	 9.8400
 4.1090	 9.7870
 4.1120	 9.9100
 4.1150	10.0000
 4.1190	10.0040
 4.1220	 9.9490
 4.1250	 9.9130
 4.1280	 9.8760
 4.1320	 9.8990
 4.1350	 9.8910
 4.1380	 9.9240
 4.1420	10.0060
 4.1450	10.0110
 4.1480	 9.9760
 4.1520	 9.9990
 4.1550	 9.9130
 4.1580	 9.8220
 4.1620	 9.8870
 4.1650	 9.9730
 4.1680	 9.9410
 4.1720	 9.9140
 4.1750	 9.8930
 4.1780	 9.9570
 4.1820	10.0090
 4.1850	 9.9770
 4.1890	 9.8790
 4.1920	 9.8810
 4.1950	 9.9860
 4.1990	10.1150
 4.2020	10.2620
 4.2060	10.4590
 4.2090	10.5410
 4.2120	10.5550
 4.2160	10.6210
 4.2190	10.8870
 4.2230	10.9000
 4.2260	11.0570
 4.2300	11.3850
 4.2330	11.3420
 4.2360	11.0560
 4.2400	10.9160
 4.2430	11.1850
 4.2470	11.2090
 4.2500	10.9350
 4.2540	10.6000
 4.2570	10.4360
 4.2610	10.5380
 4.2640	10.7780
 4.2680	11.0270
 4.2710	10.9040
 4.2750	10.8670
 4.2780	10.7030
 4.2820	10.6070
 4.2850	10.7220
 4.2890	10.6990
 4.2930	10.3840
 4.2960	10.3770
 4.3000	10.5910
 4.3030	10.6900
 4.3070	10.5130
 4.3100	10.3750
 4.3140	10.2880
 4.3180	10.2480
 4.3210	10.0600
 4.3250	 9.9680
 4.3280	10.0830
 4.3320	10.1250
 4.3360	10.0380
 4.3390	 9.9320
 4.3430	 9.8420
 4.3470	 9.8760
 4.3500	 9.8960
 4.3540	 9.8290
 4.3570	 9.8000
 4.3610	 9.8140
 4.3650	 9.7610
 4.3680	 9.7980
 4.3720	 9.8240
 4.3760	 9.7700
 4.3800	 9.6620
 4.3830	 9.5580
 4.3870	 9.5290
 4.3910	 9.6130
 4.3940	 9.7000
 4.3980	 9.7020
 4.4020	 9.6180
 4.4060	 9.6290
 4.4090	 9.6040
 4.4130	 9.5620
 4.4170	 9.6070
 4.4210	 9.6230
 4.4240	 9.5940
 4.4280	 9.6180
 4.4320	 9.5990
 4.4360	 9.5950
 4.4400	 9.5550
 4.4430	 9.5020
 4.4470	 9.5130
 4.4510	 9.5600
 4.4550	 9.5410
 4.4590	 9.4910
 4.4620	 9.5260
 4.4660	 9.5700
 4.4700	 9.5150
 4.4740	 9.4870
 4.4780	 9.5200
 4.4820	 9.4950
 4.4860	 9.4360
 4.4900	 9.4850
 4.4930	 9.4940
 4.4970	 9.4000
 4.5010	 9.3520
 4.5050	 9.3330
 4.5090	 9.3420
 4.5130	 9.4160
 4.5170	 9.4690
 4.5210	 9.5130
 4.5250	 9.5390
 4.5290	 9.4390
 4.5330	 9.4030
 4.5370	 9.4390
 4.5410	 9.4330
 4.5450	 9.4490
 4.5490	 9.4320
 4.5530	 9.4430
 4.5570	 9.4410
 4.5610	 9.3680
 4.5650	 9.4300
 4.5690	 9.5320
 4.5730	 9.5160
 4.5770	 9.4530
 4.5810	 9.4590
 4.5850	 9.4470
 4.5890	 9.4180
 4.5930	 9.4030
 4.5970	 9.4150
 4.6010	 9.4630
 4.6050	 9.5220
 4.6090	 9.5480
 4.6130	 9.5450
 4.6170	 9.4790
 4.6220	 9.3840
 4.6260	 9.3020
 4.6300	 9.3350
 4.6340	 9.3860
 4.6380	 9.3950
 4.6420	 9.3650
 4.6460	 9.4160
 4.6510	 9.4570
 4.6550	 9.4220
 4.6590	 9.4230
 4.6630	 9.4090
 4.6670	 9.4230
 4.6720	 9.3930
 4.6760	 9.3090
 4.6800	 9.2630
 4.6840	 9.3290
 4.6880	 9.3830
 4.6930	 9.3720
 4.6970	 9.3120
 4.7010	 9.3700
 4.7050	 9.3090
 4.7100	 9.2340
 4.7140	 9.2330
 4.7180	 9.2560
 4.7230	 9.2890
 4.7270	 9.2400
 4.7310	 9.2570
 4.7360	 9.3350
 4.7400	 9.3320
 4.7440	 9.3600
 4.7490	 9.3860
 4.7530	 9.2810
 4.7570	 9.2100
 4.7620	 9.2190
 4.7660	 9.2480
 4.7700	 9.2230
 4.7750	 9.2450
 4.7790	 9.3160
 4.7840	 9.2880
 4.7880	 9.2580
 4.7920	 9.2800
 4.7970	 9.2080
 4.8010	 9.1470
 4.8060	 9.1650
 4.8100	 9.2360
 4.8150	 9.2830
 4.8190	 9.3240
 4.8240	 9.2730
 4.8280	 9.2090
 4.8330	 9.2150
 4.8370	 9.2060
 4.8420	 9.1840
 4.8460	 9.2410
 4.8510	 9.2560
 4.8550	 9.2390
 4.8600	 9.1840
 4.8640	 9.2090
 4.8690	 9.2440
 4.8730	 9.1890
 4.8780	 9.1400
 4.8830	 9.1190
 4.8870	 9.0750
 4.8920	 9.1200
 4.8960	 9.1280
 4.9010	 9.1230
 4.9060	 9.1350
 4.9100	 9.1510
 4.9150	 9.1460
 4.9200	 9.1650
 4.9240	 9.1580
 4.9290	 9.1730
 4.9340	 9.1280
 4.9380	 9.1760
 4.9430	 9.2240
 4.9480	 9.1450
 4.9530	 9.1350
 4.9570	 9.2260
 4.9620	 9.1880
 4.9670	 9.1330
 4.9720	 9.1020
 4.9760	 9.1220
 4.9810	 9.1560
 4.9860	 9.1640
 4.9910	 9.1170
 4.9960	 9.1410
 5.0000	 9.1590
 5.0050	 9.1540
 5.0100	 9.1160
 5.0150	 9.1290
 5.0200	 9.1460
 5.0250	 9.1130
 5.0290	 9.1140
 5.0340	 9.1740
 5.0390	 9.1670
 5.0440	 9.1440
 5.0490	 9.1770
 5.0540	 9.1930
 5.0590	 9.1160
 5.0640	 9.1140
 5.0690	 9.1270
 5.0740	 9.1530
 5.0790	 9.1580
 5.0840	 9.1180
 5.0890	 9.1530
 5.0940	 9.1450
 5.0990	 9.0720
 5.1040	 9.1280
 5.1090	 9.0780
 5.1140	 9.0560
 5.1190	 9.1260
 5.1240	 9.1640
 5.1290	 9.1070
 5.1340	 9.0930
 5.1390	 9.1070
 5.1440	 9.1650
 5.1490	 9.2010
 5.1540	 9.2630
 5.1600	 9.2470
 5.1650	 9.1920
 5.1700	 9.1570
 5.1750	 9.1420
 5.1800	 9.1700
 5.1850	 9.2420
 5.1910	 9.1490
 5.1960	 9.0690
 5.2010	 9.0470
 5.2060	 9.1280
 5.2110	 9.2070
 5.2170	 9.2040
 5.2220	 9.1370
 5.2270	 9.1600
 5.2320	 9.1480
 5.2380	 9.1600
 5.2430	 9.1990
 5.2480	 9.1940
 5.2540	 9.1400
 5.2590	 9.1390
 5.2640	 9.0990
 5.2700	 8.9830
 5.2750	 8.9390
 5.2800	 9.0370
 5.2860	 9.1030
 5.2910	 9.1470
 5.2970	 9.0330
 5.3020	 8.9660
 5.3070	 8.9790
 5.3130	 9.0720
 5.3180	 9.1460
 5.3240	 9.1980
 5.3290	 9.1510
 5.3350	 9.0940
 5.3400	 9.0380
 5.3460	 9.0570
 5.3510	 9.0100
 5.3570	 9.0120
 5.3620	 9.0380
 5.3680	 9.0780
 5.3730	 9.0480
 5.3790	 9.0680
 5.3850	 9.1080
 5.3900	 9.0480
 5.3960	 9.0340
 5.4010	 9.0550
 5.4070	 9.0330
 5.4130	 9.0530
 5.4180	 9.0600
 5.4240	 9.0890
 5.4300	 9.0450
 5.4350	 9.0140
 5.4410	 8.9520
 5.4470	 8.8870
 5.4530	 8.8740
 5.4580	 8.9640
 5.4640	 8.9810
 5.4700	 8.9480
 5.4760	 8.9150
 5.4810	 8.8840
 5.4870	 8.8540
 5.4930	 8.9230
 5.4990	 8.9160
 5.5050	 8.8500
 5.5110	 8.8160
 5.5160	 8.8260
 5.5220	 8.7280
 5.5280	 8.6590
 5.5340	 8.6800
 5.5400	 8.7610
 5.5460	 8.8070
 5.5520	 8.8510
 5.5580	 8.8350
 5.5640	 8.8440
 5.5700	 8.8290
 5.5760	 8.7800
 5.5820	 8.6450
 5.5880	 8.6470
 5.5940	 8.6300
 5.6000	 8.5990
 5.6060	 8.5420
 5.6120	 8.5220
 5.6180	 8.4130
 5.6240	 8.3710
 5.6300	 8.3980
 5.6360	 8.3880
 5.6420	 8.2940
 5.6490	 8.2100
 5.6550	 8.1750
 5.6610	 8.1410
 5.6670	 8.0680
 5.6730	 8.0750
 5.6800	 8.0590
 5.6860	 8.0110
 5.6920	 7.9030
 5.6980	 7.8480
 5.7040	 7.9430
 5.7110	 7.9960
 5.7170	 7.8390
 5.7230	 7.8110
 5.7300	 7.9130
 5.7360	 8.0270
 5.7420	 8.0200
 5.7490	 7.9660
 5.7550	 7.9120
 5.7620	 8.0900
 5.7680	 8.2520
 5.7740	 8.3430
 5.7810	 8.3340
 5.7870	 8.4020
 5.7940	 8.5050
 5.8000	 8.6180
 5.8070	 8.6870
 5.8130	 8.8320
 5.8200	 8.8870
 5.8260	 8.8270
 5.8330	 8.7240
 5.8390	 8.7660
 5.8460	 8.8180
 5.8530	 8.8550
 5.8590	 8.8330
 5.8660	 8.8440
 5.8720	 8.8350
 5.8790	 8.9900
 5.8860	 8.9850
 5.8920	 8.9740
 5.8990	 8.9550
 5.9060	 8.9840
 5.9130	 9.0540
 5.9190	 9.0790
 5.9260	 9.0540
 5.9330	 9.0680
 5.9400	 9.0430
 5.9470	 9.1010
 5.9530	 9.1260
 5.9600	 9.1320
 5.9670	 9.1480
 5.9740	 9.2030
 5.9810	 9.2130
 5.9880	 9.2340
 5.9950	 9.1530
 6.0020	 9.1250
 6.0090	 9.0990
 6.0160	 9.1660
 6.0230	 9.1620
 6.0300	 9.2540
 6.0370	 9.2830
 6.0440	 9.3100
 6.0510	 9.3450
 6.0580	 9.3310
 6.0650	 9.3340
 6.0720	 9.4910
 6.0790	 9.3950
 6.0860	 9.1560
 6.0930	 9.1140
 6.1000	 9.2280
 6.1080	 9.3240
 6.1150	 9.4260
 6.1220	 9.2880
 6.1290	 9.3100
 6.1370	 9.2700
 6.1440	 9.2710
 6.1510	 9.1600
 6.1580	 9.0830
 6.1660	 9.0580
 6.1730	 9.1830
 6.1800	 9.1420
 6.1880	 9.1540
 6.1950	 9.0640
 6.2030	 9.0310
 6.2100	 8.9640
 6.2170	 9.0080
 6.2250	 9.0350
 6.2320	 9.1900
 6.2400	 9.3610
 6.2470	 9.3840
 6.2550	 9.2520
 6.2630	 9.2290
 6.2700	 9.1220
 6.2780	 9.0670
 6.2850	 9.1300
 6.2930	 9.2090
 6.3010	 9.0950
 6.3080	 9.2210
 6.3160	 9.2550
 6.3240	 9.3320
 6.3310	 9.3050
 6.3390	 9.3140
 6.3470	 9.3030
 6.3550	 9.3200
 6.3620	 9.1900
 6.3700	 9.1680
 6.3780	 9.2100
 6.3860	 9.3000
 6.3940	 9.2470
 6.4020	 9.2700
 6.4100	 9.2950
 6.4180	 9.3290
 6.4260	 9.2890
 6.4330	 9.3060
 6.4410	 9.2340
 6.4490	 9.2080
 6.4580	 9.0600
 6.4660	 9.0860
 6.4740	 9.1260
 6.4820	 9.1960
 6.4900	 9.2070
 6.4980	 9.1310
 6.5060	 9.0160
 6.5140	 9.1080
 6.5230	 9.1010
 6.5310	 9.0610
 6.5390	 8.9950
 6.5470	 8.9790
 6.5550	 8.9260
 6.5640	 8.9740
 6.5720	 8.9240
 6.5800	 8.9180
 6.5890	 8.9050
 6.5970	 8.8600
 6.6060	 8.7640
 6.6140	 8.7980
 6.6220	 8.8300
 6.6310	 8.9530
 6.6390	 8.8840
 6.6480	 8.7390
 6.6560	 8.6550
 6.6650	 8.8100
 6.6740	 8.8740
 6.6820	 8.8800
 6.6910	 8.7650
 6.6990	 8.8430
 6.7080	 8.8240
 6.7170	 8.8560
 6.7260	 8.8140
 6.7340	 8.8050
 6.7430	 8.6980
 6.7520	 8.6210
 6.7610	 8.5220
 6.7690	 8.5960
 6.7780	 8.6220
 6.7870	 8.7440
 6.7960	 8.7030
 6.8050	 8.6150
 6.8140	 8.6530
 6.8230	 8.7500
 6.8320	 8.7400
 6.8410	 8.7610
 6.8500	 8.8070
 6.8590	 8.9860
 6.8680	 8.9820
 6.8770	 8.9730
 6.8860	 8.9510
 6.8950	 9.0400
 6.9050	 9.0890
 6.9140	 9.2190
 6.9230	 9.1910
 6.9320	 9.1450
 6.9420	 9.0480
 6.9510	 9.0790
 6.9600	 9.1250
 6.9700	 9.2150
 6.9790	 9.1450
 6.9880	 9.1850
 6.9980	 9.1760
 7.0070	 9.1560
 7.0170	 9.0850
 7.0260	 9.0930
 7.0360	 9.0080
 7.0450	 9.1000
 7.0550	 9.1260
 7.0650	 9.2170
 7.0740	 9.1500
 7.0840	 9.1010
 7.0940	 9.0090
 7.1030	 9.1620
 7.1130	 9.2130
 7.1230	 9.1880
 7.1330	 8.9500
 7.1420	 8.8930
 7.1520	 8.8670
 7.1620	 8.8910
 7.1720	 8.9410
 7.1820	 8.9800
 7.1920	 8.9450
 7.2020	 8.9790
 7.2120	 8.9840
 7.2220	 9.1050
 7.2320	 9.0820
 7.2420	 9.1480
 7.2520	 9.0790
 7.2620	 9.1050
 7.2730	 9.0380
 7.2830	 9.0050
 7.2930	 8.9360
 7.3030	 8.9350
 7.3140	 8.8290
 7.3240	 8.8960
 7.3340	 8.9100
 7.3450	 8.9540
 7.3550	 8.9450
 7.3660	 9.0230
 7.3760	 9.0860
 7.3870	 9.1430
 7.3970	 9.0560
 7.4080	 9.1930
 7.4180	 9.1390
 7.4290	 9.1640
 7.4400	 9.2030
 7.4500	 9.1720
 7.4610	 9.0300
 7.4720	 9.0830
 7.4830	 9.0050
 7.4930	 9.1410
 7.5040	 9.1610
 7.5150	 9.1100
 7.5260	 8.9150
 7.5370	 8.8240
 7.5480	 8.8180
 7.5590	 8.8440
 7.5700	 8.7090
 7.5810	 8.8020
 7.5920	 8.7490
 7.6030	 8.7500
 7.6140	 8.8020
 7.6260	 8.9110
 7.6370	 8.7640
 7.6480	 8.7490
 7.6590	 8.7620
 7.6710	 8.8770
 7.6820	 8.8990
 7.6930	 8.9290
 7.7050	 8.7890
 7.7160	 8.8470
 7.7280	 8.8510
 7.7390	 8.8710
 7.7510	 8.7470
 7.7630	 8.8360
 7.7740	 8.8580
 7.7860	 8.9190
 7.7980	 8.8200
 7.8090	 8.9060
 7.8210	 8.9050
 7.8330	 8.9660
 7.8450	 8.9050
 7.8570	 8.9320
 7.8690	 8.8870
 7.8810	 8.9140
 7.8930	 8.8950
 7.9050	 8.9780
 7.9170	 8.9410
 7.9290	 8.9860
 7.9410	 8.8800
 7.9530	 8.8500
 7.9650	 8.8590
 7.9780	 8.9110
 7.9900	 8.8690
 8.0020	 8.9860
 8.0150	 9.0340
 8.0270	 9.1020
 8.0390	 8.9660
 8.0520	 9.0290
 8.0640	 9.0840
 8.0770	 9.2180
 8.0900	 9.1790
 8.1020	 9.2220
 8.1150	 9.1730
 8.1280	 9.3000
 8.1400	 9.2760
 8.1530	 9.3080
 8.1660	 9.1990
 8.1790	 9.3000
 8.1920	 9.3180
 8.2050	 9.4040
 8.2180	 9.1740
 8.2310	 9.3030
 8.2440	 9.3410
 8.2570	 9.4040
 8.2700	 9.2750
 8.2830	 9.2450
 8.2970	 9.1390
 8.3100	 9.2580
 8.3230	 9.2910
 8.3370	 9.3410
 8.3500	 9.1340
 8.3640	 9.2600
 8.3770	 9.2820
 8.3910	 9.2700
 8.4040	 9.1760
 8.4180	 9.5040
 8.4320	 9.4770
 8.4450	 9.3230
 8.4590	 9.2590
 8.4730	 9.4050
 8.4870	 9.3480
 8.5010	 9.6970
 8.5150	 9.6340
 8.5290	 9.7020
 8.5430	 9.7350
 8.5570	 9.9600
 8.5710	 9.8800
 8.5850	 9.9800
 8.5990	 9.9320
 8.6140	10.1000
 8.6280	10.1370
 8.6420	10.2930
 8.6570	10.1850
 8.6710	10.2860
 8.6860	10.2830
 8.7000	10.4420
 8.7150	10.4000
 8.7300	10.4190
 8.7440	10.3630
 8.7590	10.3360
 8.7740	10.2850
 8.7890	10.4150
 8.8040	10.1780
 8.8190	10.2860
 8.8340	10.2550
 8.8490	10.2460
 8.8640	10.2270
 8.8790	10.2870
 8.8940	 9.9780
 8.9100	10.0990
 8.9250	10.1480
 8.9400	10.2720
 8.9560	10.1170
 8.9710	10.1170
 8.9870	10.0170
 9.0020	10.3020
 9.0180	10.4000
 9.0340	10.4610
 9.0500	10.1770
 9.0650	10.2390
 9.0810	10.1560
 9.0970	10.0270
 9.1130	 9.9210
 9.1290	10.3050
 9.1450	10.3420
 9.1610	10.2770
 9.1780	10.0400
 9.1940	10.2410
 9.2100	10.1930
 9.2270	10.2760
 9.2430	10.1910
 9.2600	10.1020
 9.2760	10.0260
 9.2930	10.1550
 9.3090	 9.9790
 9.3260	10.1310
 9.3430	10.0030
 9.3600	10.0630
 9.3770	 9.9630
 9.3940	 9.9720
 9.4110	 9.7130
 9.4280	 9.7240
 9.4450	 9.7640
 9.4620	 9.9520
 9.4800	 9.8210
 9.4970	 9.8490
 9.5140	 9.7530
 9.5320	10.0410
 9.5500	10.1340
 9.5670	10.1970
 9.5850	 9.9840
 9.6030	10.0820
 9.6200	 9.9970
 9.6380	 9.9340
 9.6560	 9.7130
 9.6740	 9.8980
 9.6920	 9.8720
 9.7100	 9.9100
 9.7290	 9.8440
 9.7470	10.1470
 9.7650	10.1880
 9.7840	10.2490
 9.8020	10.0680
 9.8210	 9.8020
 9.8390	 9.4780
 9.8580	 9.9570
 9.8770	 9.9990
 9.8960	10.2000
 9.9150	10.0420
 9.9340	10.0200
 9.9530	 9.8330
 9.9720	10.0140
 9.9910	 9.9970
10.0100	10.0000
10.0300	 9.9110
10.0490	 9.9910
10.0690	 9.8990
10.0880	10.0620
10.1080	 9.9830
10.1280	10.0630
10.1480	10.0020
10.1670	10.0510
10.1870	 9.9790
10.2070	10.2060
10.2280	10.0950
10.2480	10.0930
10.2680	 9.9970
10.2890	10.1700
10.3090	10.0690
10.3300	10.1710
10.3500	 9.9590
10.3710	 9.9500
10.3920	 9.8660
10.4120	10.0090
10.4330	 9.9420
10.4540	10.1240
10.4760	 9.8990
10.4970	 9.8740
10.5180	 9.8710
10.5390	10.0760
10.5610	 9.8730
10.5820	 9.9330
10.6040	 9.8790
10.6260	 9.9080
10.6480	 9.7830
10.6700	 9.8900
10.6920	 9.8280
10.7140	10.0330
10.7360	 9.7310
10.7580	 9.7700
10.7800	 9.8390
10.8030	10.0730
10.8250	 9.9440
10.8480	 9.9390
10.8710	 9.6940
10.8940	 9.7810
10.9170	 9.6920
10.9400	 9.9740
10.9630	 9.8900
10.9860	 9.8210
11.0090	 9.6970
11.0330	 9.8560
11.0560	 9.6920
11.0800	 9.9480
11.1040	 9.8140
11.1270	 9.8690
11.1510	 9.8000
11.1750	 9.8760
11.2000	 9.7320
11.2240	 9.9250
11.2480	 9.6890
11.2730	 9.7190
11.2970	 9.7940
11.3220	 9.8240
11.3470	 9.6460
11.3720	 9.8100
11.3970	 9.6860
11.4220	 9.7440
11.4470	 9.8020
11.4720	10.1780
11.4980	10.0780
11.5230	10.0520
11.5490	 9.8490
11.5750	 9.9930
11.6000	 9.7350
11.6260	 9.7230
11.6530	 9.6550
11.6790	 9.9170
11.7050	 9.7150
11.7320	 9.7610
11.7580	 9.5760
11.7850	 9.8230
11.8120	 9.7150
11.8390	 9.7860
11.8660	 9.6220
11.8930	 9.8330
11.9200	 9.8400
11.9480	10.2260
11.9760	 9.9320
12.0030	 9.8160
12.0310	 9.6600
12.0590	 9.8680
12.0870	 9.5990
12.1150	 9.6620
12.1440	 9.4420
12.1720	 9.6730
12.2010	 9.5830
12.2300	 9.9660
12.2590	 9.8210
12.2880	 9.9250
12.3170	 9.5970
12.3460	 9.6640
12.3760	 9.5340
12.4050	 9.6320
12.4350	 9.5040
12.4650	10.0940
12.4950	10.0760
12.5250	10.0410
12.5550	 9.6960
12.5860	 9.9520
12.6170	 9.8000
12.6470	 9.9590
12.6780	 9.7950
12.7090	 9.8220
12.7410	 9.5850
12.7720	 9.7650
12.8030	 9.6410
12.8350	 9.9030
12.8670	 9.6400
12.8990	 9.8600
12.9310	 9.8240
12.9640	10.0390
12.9960	 9.8190
13.0290	10.0180
13.0610	 9.6190
13.0940	 9.5270
13.1280	 9.3930
13.1610	 9.8650
13.1940	 9.6660
13.2280	 9.7110
13.2620	 9.4870
13.2960	 9.7490
13.3300	 9.5870
13.3640	 9.8510
13.3990	 9.7130
13.4340	 9.9930
13.4690	 9.7000
13.5040	 9.8870
13.5390	 9.8550
13.5740	 9.9290
13.6100	 9.3760
13.6460	 9.5140
13.6820	 9.3710
13.7180	 9.8160
13.7540	 9.7990
13.7910	 9.8750
13.8280	 9.5450
13.8650	 9.8420
13.9020	 9.6290
13.9390	 9.8770
13.9770	 9.5180
14.0150	 9.7150
14.0530	 9.5310
14.0910	10.0340
14.1290	 9.9510
14.1680	10.0970
14.2070	 9.4910
14.2460	 9.8340
14.2850	 9.7450
14.3240	10.2070
14.3640	 9.8350
14.4040	10.0590
14.4440	 9.7510
14.4840	 9.9790
14.5250	10.0660
14.5660	10.3440
14.6070	 9.4900
14.6480	 9.8470
14.6900	 9.3580
14.7310	 9.5290
14.7730	 9.3650
14.8150	10.1060
14.8580	 9.7730
14.9010	10.1360
14.9440	 8.8650
14.9870	 9.0800
15.0300	 8.7940
15.0740	 9.6870
15.1180	 9.3530
15.1620	 9.5750
15.2060	 8.8470
15.2510	 9.1690
15.2960	 8.7620
15.3410	 9.5620
15.3870	 8.7800
