Name: Umbellularia californica 3
Type: vegetation
Class: Shrub
Genus: Umbellularia
Species: californica
Sample No.: VH029
Owner: UCSB
Wavelength Range: TIR
Origin: 34.5075; -119.763; WGS84
Collection Date: 4/1/2013
Description: Samples were collected as part of the HyspIRI Airborne Campaign. 48 individual plants were sampled in three times in 2013 - spring  summer  and fall. The name of the sample includes a 1  2  or 3 which references a different individual of the species. Samples were taken to JPL and processed within 48 hours of collection. The same leaves were processed in the Nicolet and then measured using the ASD.
Measurement: Hemispherical reflectance
First Column: X
Second Column: Y
X Units: Wavelength (micrometers)
Y Units: Reflectance (percentage)
First X Value: 2.501
Last X Value: 15.387
Number of X Values: 1737
Additional Information: vegetation.shrub.umbellularia.californica.tir.vh029.ucsb.nicolet.ancillary.txt

 2.5010	 6.7180
 2.5030	 6.7120
 2.5040	 6.6820
 2.5050	 6.5860
 2.5060	 6.5850
 2.5070	 6.5780
 2.5090	 6.5250
 2.5100	 6.5000
 2.5110	 6.6500
 2.5120	 6.6480
 2.5140	 6.6160
 2.5150	 6.6160
 2.5160	 6.5960
 2.5170	 6.6240
 2.5180	 6.6470
 2.5200	 6.5690
 2.5210	 6.6010
 2.5220	 6.6230
 2.5230	 6.6500
 2.5250	 6.6660
 2.5260	 6.6150
 2.5270	 6.5060
 2.5280	 6.5990
 2.5290	 6.6330
 2.5310	 6.5130
 2.5320	 6.5530
 2.5330	 6.6510
 2.5340	 6.5860
 2.5360	 6.6420
 2.5370	 6.6790
 2.5380	 6.5190
 2.5390	 6.4940
 2.5410	 6.6000
 2.5420	 6.6130
 2.5430	 6.6610
 2.5440	 6.6110
 2.5460	 6.6050
 2.5470	 6.6160
 2.5480	 6.6210
 2.5490	 6.5340
 2.5510	 6.5980
 2.5520	 6.5700
 2.5530	 6.5170
 2.5540	 6.6020
 2.5560	 6.7070
 2.5570	 6.7340
 2.5580	 6.6520
 2.5590	 6.5790
 2.5610	 6.6430
 2.5620	 6.7670
 2.5630	 6.8720
 2.5640	 6.8000
 2.5660	 6.7290
 2.5670	 6.7730
 2.5680	 6.7980
 2.5700	 6.8030
 2.5710	 6.7490
 2.5720	 6.7260
 2.5730	 6.7810
 2.5750	 6.7050
 2.5760	 6.6540
 2.5770	 6.6620
 2.5790	 6.8020
 2.5800	 6.8050
 2.5810	 6.7780
 2.5820	 6.7420
 2.5840	 6.7950
 2.5850	 6.7600
 2.5860	 6.6310
 2.5880	 6.6570
 2.5890	 6.7830
 2.5900	 6.7500
 2.5910	 6.6550
 2.5930	 6.5810
 2.5940	 6.6910
 2.5950	 6.6770
 2.5970	 6.6750
 2.5980	 6.6160
 2.5990	 6.5500
 2.6000	 6.4800
 2.6020	 6.4830
 2.6030	 6.5680
 2.6040	 6.7450
 2.6060	 6.6790
 2.6070	 6.5090
 2.6080	 6.3680
 2.6100	 6.2740
 2.6110	 6.2070
 2.6120	 6.2990
 2.6140	 6.3350
 2.6150	 6.4220
 2.6160	 6.3840
 2.6180	 6.3330
 2.6190	 6.2260
 2.6200	 6.1220
 2.6220	 6.0600
 2.6230	 6.1330
 2.6240	 6.1270
 2.6260	 6.1520
 2.6270	 6.1680
 2.6280	 6.0880
 2.6300	 6.0380
 2.6310	 5.9520
 2.6320	 5.8270
 2.6340	 5.8720
 2.6350	 5.8850
 2.6360	 5.9050
 2.6380	 5.7490
 2.6390	 5.6030
 2.6400	 5.6610
 2.6420	 5.7250
 2.6430	 5.7010
 2.6440	 5.6390
 2.6460	 5.5760
 2.6470	 5.6030
 2.6480	 5.5440
 2.6500	 5.5160
 2.6510	 5.5480
 2.6520	 5.5600
 2.6540	 5.4490
 2.6550	 5.3520
 2.6560	 5.3930
 2.6580	 5.4750
 2.6590	 5.3660
 2.6610	 5.2200
 2.6620	 5.2210
 2.6630	 5.2610
 2.6650	 5.2310
 2.6660	 5.2760
 2.6670	 5.2540
 2.6690	 5.1570
 2.6700	 5.0700
 2.6720	 5.0040
 2.6730	 4.9950
 2.6740	 5.0500
 2.6760	 5.0120
 2.6770	 5.0140
 2.6780	 4.9300
 2.6800	 4.8580
 2.6810	 4.7070
 2.6830	 4.6560
 2.6840	 4.6990
 2.6850	 4.6110
 2.6870	 4.5520
 2.6880	 4.7320
 2.6900	 4.7210
 2.6910	 4.6680
 2.6920	 4.5630
 2.6940	 4.5950
 2.6950	 4.6380
 2.6970	 4.5070
 2.6980	 4.4190
 2.6990	 4.5040
 2.7010	 4.4730
 2.7020	 4.4300
 2.7040	 4.3180
 2.7050	 4.3860
 2.7060	 4.3880
 2.7080	 4.3160
 2.7090	 4.2120
 2.7110	 4.2390
 2.7120	 4.2040
 2.7130	 4.2230
 2.7150	 4.2050
 2.7160	 4.1600
 2.7180	 4.1270
 2.7190	 4.1660
 2.7210	 4.2120
 2.7220	 4.2290
 2.7230	 4.0850
 2.7250	 4.0080
 2.7260	 4.0290
 2.7280	 4.0740
 2.7290	 4.0810
 2.7310	 4.0370
 2.7320	 3.9270
 2.7330	 3.9330
 2.7350	 4.0060
 2.7360	 4.0890
 2.7380	 4.0840
 2.7390	 4.1290
 2.7410	 4.1880
 2.7420	 4.1890
 2.7440	 4.1710
 2.7450	 4.1520
 2.7470	 3.9510
 2.7480	 3.8330
 2.7490	 3.7880
 2.7510	 3.9460
 2.7520	 4.1400
 2.7540	 4.1120
 2.7550	 4.0480
 2.7570	 4.1500
 2.7580	 4.1640
 2.7600	 4.0420
 2.7610	 3.9260
 2.7630	 4.0140
 2.7640	 4.0130
 2.7660	 3.9330
 2.7670	 3.9310
 2.7680	 4.0660
 2.7700	 4.0770
 2.7710	 4.0530
 2.7730	 3.9690
 2.7740	 3.9160
 2.7760	 3.9670
 2.7770	 3.9760
 2.7790	 3.9260
 2.7800	 3.9360
 2.7820	 3.8350
 2.7830	 3.8740
 2.7850	 4.0020
 2.7860	 3.9640
 2.7880	 3.8650
 2.7890	 3.9510
 2.7910	 3.9160
 2.7920	 3.9090
 2.7940	 3.8860
 2.7950	 3.9990
 2.7970	 3.9100
 2.7980	 3.9430
 2.8000	 4.0100
 2.8010	 3.9020
 2.8030	 3.8350
 2.8040	 3.9040
 2.8060	 3.8750
 2.8070	 3.9140
 2.8090	 3.9990
 2.8110	 4.0710
 2.8120	 3.9860
 2.8140	 3.9600
 2.8150	 3.8860
 2.8170	 3.8130
 2.8180	 3.8020
 2.8200	 3.9060
 2.8210	 3.9190
 2.8230	 3.8500
 2.8240	 3.7810
 2.8260	 3.8320
 2.8270	 3.8410
 2.8290	 3.9270
 2.8300	 3.8700
 2.8320	 3.8250
 2.8340	 3.8430
 2.8350	 3.8990
 2.8370	 3.7770
 2.8380	 3.8780
 2.8400	 3.9030
 2.8410	 3.8680
 2.8430	 3.8370
 2.8440	 3.8870
 2.8460	 3.8960
 2.8480	 3.8880
 2.8490	 3.8000
 2.8510	 3.9120
 2.8520	 3.8560
 2.8540	 3.7930
 2.8550	 3.8160
 2.8570	 3.8900
 2.8590	 3.8060
 2.8600	 3.8210
 2.8620	 3.8520
 2.8630	 3.8150
 2.8650	 3.7770
 2.8660	 3.7820
 2.8680	 3.8720
 2.8700	 3.9490
 2.8710	 3.9270
 2.8730	 3.9690
 2.8740	 3.8730
 2.8760	 3.8510
 2.8780	 3.8420
 2.8790	 3.9380
 2.8810	 3.8330
 2.8820	 3.7640
 2.8840	 3.7430
 2.8860	 3.7870
 2.8870	 3.8510
 2.8890	 3.9250
 2.8900	 3.9060
 2.8920	 3.8190
 2.8940	 3.8070
 2.8950	 3.9380
 2.8970	 3.9350
 2.8980	 3.9000
 2.9000	 3.8470
 2.9020	 3.8770
 2.9030	 3.8710
 2.9050	 3.9470
 2.9070	 3.9390
 2.9080	 3.9330
 2.9100	 3.9670
 2.9120	 3.8810
 2.9130	 3.9140
 2.9150	 4.0400
 2.9160	 3.9160
 2.9180	 3.8650
 2.9200	 3.8630
 2.9210	 3.9490
 2.9230	 3.9560
 2.9250	 3.9150
 2.9260	 3.9060
 2.9280	 3.9220
 2.9300	 3.9150
 2.9310	 3.9960
 2.9330	 3.9550
 2.9350	 3.9210
 2.9360	 3.8460
 2.9380	 3.8670
 2.9400	 3.8250
 2.9410	 3.8850
 2.9430	 3.9720
 2.9450	 3.9460
 2.9460	 3.8550
 2.9480	 3.8070
 2.9500	 3.7810
 2.9510	 3.9330
 2.9530	 3.9450
 2.9550	 3.8500
 2.9560	 3.9510
 2.9580	 4.0030
 2.9600	 3.9000
 2.9610	 3.6560
 2.9630	 3.6110
 2.9650	 4.0930
 2.9660	 4.3180
 2.9680	 3.7180
 2.9700	 3.4570
 2.9720	 4.3830
 2.9730	 4.2940
 2.9750	 3.5980
 2.9770	 3.4750
 2.9780	 3.8440
 2.9800	 4.4140
 2.9820	 4.8110
 2.9840	 4.5800
 2.9850	 4.2130
 2.9870	 4.1130
 2.9890	 3.9830
 2.9900	 4.1900
 2.9920	 4.2830
 2.9940	 4.0760
 2.9960	 4.4540
 2.9970	 4.6590
 2.9990	 4.7760
 3.0010	 4.6730
 3.0030	 4.2460
 3.0040	 3.9270
 3.0060	 3.9750
 3.0080	 4.0190
 3.0100	 4.0750
 3.0110	 3.9730
 3.0130	 3.8770
 3.0150	 3.4020
 3.0170	 3.2260
 3.0180	 3.8650
 3.0200	 3.8990
 3.0220	 3.6200
 3.0240	 3.9090
 3.0250	 4.4280
 3.0270	 4.2380
 3.0290	 3.9980
 3.0310	 4.0830
 3.0320	 4.7010
 3.0340	 5.0490
 3.0360	 4.3110
 3.0380	 4.3080
 3.0400	 4.3490
 3.0410	 4.0870
 3.0430	 4.1340
 3.0450	 4.2820
 3.0470	 3.8410
 3.0480	 3.3410
 3.0500	 3.3080
 3.0520	 3.8230
 3.0540	 3.8820
 3.0560	 3.9170
 3.0570	 3.9590
 3.0590	 3.8350
 3.0610	 3.8650
 3.0630	 3.6200
 3.0650	 3.7290
 3.0660	 4.0320
 3.0680	 3.9160
 3.0700	 3.9430
 3.0720	 4.0990
 3.0740	 4.0620
 3.0760	 3.8840
 3.0770	 4.0060
 3.0790	 3.9580
 3.0810	 3.8820
 3.0830	 3.9400
 3.0850	 3.9910
 3.0870	 3.9700
 3.0880	 3.8650
 3.0900	 3.8070
 3.0920	 3.9480
 3.0940	 3.8940
 3.0960	 3.9330
 3.0980	 3.9010
 3.0990	 4.0040
 3.1010	 4.2860
 3.1030	 4.2870
 3.1050	 4.0510
 3.1070	 3.9080
 3.1090	 3.7360
 3.1110	 3.6980
 3.1120	 3.8180
 3.1140	 4.0320
 3.1160	 4.0810
 3.1180	 4.0560
 3.1200	 4.0000
 3.1220	 4.0480
 3.1240	 4.1100
 3.1260	 4.0850
 3.1270	 4.1560
 3.1290	 4.2600
 3.1310	 4.3080
 3.1330	 4.1420
 3.1350	 3.9400
 3.1370	 4.2340
 3.1390	 4.1850
 3.1410	 3.8290
 3.1430	 3.6030
 3.1450	 3.8090
 3.1460	 4.0950
 3.1480	 4.1710
 3.1500	 3.9480
 3.1520	 3.7500
 3.1540	 3.8320
 3.1560	 3.9990
 3.1580	 3.9840
 3.1600	 4.0150
 3.1620	 3.7520
 3.1640	 3.4000
 3.1660	 3.5750
 3.1680	 3.7510
 3.1700	 4.0750
 3.1710	 4.2270
 3.1730	 3.8380
 3.1750	 3.9340
 3.1770	 3.9970
 3.1790	 4.1700
 3.1810	 4.3390
 3.1830	 4.0720
 3.1850	 3.9250
 3.1870	 4.0150
 3.1890	 3.9470
 3.1910	 3.8580
 3.1930	 3.7020
 3.1950	 3.6500
 3.1970	 3.7590
 3.1990	 3.7760
 3.2010	 3.7710
 3.2030	 3.8240
 3.2050	 3.7920
 3.2070	 3.7670
 3.2090	 3.7740
 3.2110	 3.8160
 3.2130	 3.7770
 3.2150	 3.8690
 3.2170	 3.8280
 3.2190	 3.7630
 3.2210	 3.7760
 3.2230	 3.8390
 3.2250	 3.8070
 3.2270	 3.8150
 3.2290	 3.9290
 3.2310	 3.9080
 3.2330	 3.7520
 3.2350	 3.7380
 3.2370	 3.7570
 3.2390	 3.8500
 3.2410	 3.8480
 3.2430	 3.8700
 3.2450	 3.7870
 3.2470	 3.6960
 3.2490	 3.6950
 3.2510	 3.7840
 3.2530	 3.8100
 3.2550	 3.8300
 3.2570	 3.9220
 3.2590	 3.9260
 3.2610	 3.8390
 3.2630	 3.8420
 3.2650	 3.8050
 3.2670	 3.8270
 3.2690	 3.8390
 3.2720	 3.8720
 3.2740	 3.8060
 3.2760	 3.7370
 3.2780	 3.7220
 3.2800	 3.7290
 3.2820	 3.7870
 3.2840	 3.8670
 3.2860	 3.7860
 3.2880	 3.7340
 3.2900	 3.7200
 3.2920	 3.7680
 3.2940	 3.7600
 3.2960	 3.8140
 3.2990	 3.7860
 3.3010	 3.6620
 3.3030	 3.5870
 3.3050	 3.7130
 3.3070	 3.7650
 3.3090	 3.7490
 3.3110	 3.6790
 3.3130	 3.6430
 3.3150	 3.7120
 3.3180	 3.7610
 3.3200	 3.6780
 3.3220	 3.6650
 3.3240	 3.6740
 3.3260	 3.6840
 3.3280	 3.6600
 3.3300	 3.6730
 3.3330	 3.6200
 3.3350	 3.5710
 3.3370	 3.5780
 3.3390	 3.6270
 3.3410	 3.5330
 3.3430	 3.4540
 3.3450	 3.3890
 3.3480	 3.4020
 3.3500	 3.4560
 3.3520	 3.5710
 3.3540	 3.5010
 3.3560	 3.3920
 3.3580	 3.2870
 3.3610	 3.3360
 3.3630	 3.3760
 3.3650	 3.3670
 3.3670	 3.2600
 3.3690	 3.2520
 3.3720	 3.2840
 3.3740	 3.2690
 3.3760	 3.2430
 3.3780	 3.3180
 3.3800	 3.3430
 3.3830	 3.4720
 3.3850	 3.5120
 3.3870	 3.4990
 3.3890	 3.3770
 3.3910	 3.2890
 3.3940	 3.2580
 3.3960	 3.2670
 3.3980	 3.2100
 3.4000	 3.2270
 3.4020	 3.2810
 3.4050	 3.3250
 3.4070	 3.3910
 3.4090	 3.6050
 3.4110	 3.7860
 3.4140	 3.9810
 3.4160	 4.2630
 3.4180	 4.7450
 3.4200	 5.3540
 3.4230	 6.3040
 3.4250	 7.5580
 3.4270	 8.7950
 3.4290	 9.5600
 3.4320	 9.3780
 3.4340	 8.5000
 3.4360	 7.6730
 3.4390	 6.9810
 3.4410	 6.4940
 3.4430	 6.2240
 3.4450	 6.0900
 3.4480	 5.9200
 3.4500	 5.7700
 3.4520	 5.6260
 3.4550	 5.5030
 3.4570	 5.3720
 3.4590	 5.3200
 3.4620	 5.3140
 3.4640	 5.3220
 3.4660	 5.2140
 3.4680	 5.1110
 3.4710	 5.0170
 3.4730	 4.9570
 3.4750	 4.9230
 3.4780	 4.8430
 3.4800	 4.5970
 3.4820	 4.4550
 3.4850	 4.4240
 3.4870	 4.4550
 3.4890	 4.3720
 3.4920	 4.3170
 3.4940	 4.2390
 3.4970	 4.2880
 3.4990	 4.2870
 3.5010	 4.3550
 3.5040	 4.6350
 3.5060	 5.4070
 3.5080	 6.9360
 3.5110	 8.5280
 3.5130	 8.8410
 3.5160	 8.1540
 3.5180	 7.3020
 3.5200	 6.6930
 3.5230	 6.2480
 3.5250	 5.9560
 3.5270	 5.7370
 3.5300	 5.7030
 3.5320	 5.6290
 3.5350	 5.4540
 3.5370	 5.2800
 3.5400	 5.3290
 3.5420	 5.2490
 3.5440	 5.2150
 3.5470	 5.2420
 3.5490	 5.2220
 3.5520	 5.1580
 3.5540	 5.1050
 3.5570	 5.0450
 3.5590	 5.0380
 3.5610	 5.0460
 3.5640	 4.9960
 3.5660	 4.8720
 3.5690	 4.8460
 3.5710	 4.9130
 3.5740	 5.0170
 3.5760	 5.0300
 3.5790	 4.9670
 3.5810	 4.9150
 3.5840	 5.0290
 3.5860	 4.9760
 3.5890	 4.8070
 3.5910	 4.8050
 3.5930	 4.8240
 3.5960	 4.7650
 3.5980	 4.8460
 3.6010	 4.7920
 3.6030	 4.7050
 3.6060	 4.7600
 3.6080	 4.7900
 3.6110	 4.8270
 3.6140	 4.8370
 3.6160	 4.7220
 3.6190	 4.6940
 3.6210	 4.7230
 3.6240	 4.7420
 3.6260	 4.7390
 3.6290	 4.7050
 3.6310	 4.7080
 3.6340	 4.7220
 3.6360	 4.7230
 3.6390	 4.6860
 3.6410	 4.7140
 3.6440	 4.7310
 3.6470	 4.6870
 3.6490	 4.7020
 3.6520	 4.6910
 3.6540	 4.6870
 3.6570	 4.6860
 3.6590	 4.7290
 3.6620	 4.6930
 3.6650	 4.6770
 3.6670	 4.6610
 3.6700	 4.6270
 3.6720	 4.6250
 3.6750	 4.6510
 3.6780	 4.6270
 3.6800	 4.6170
 3.6830	 4.5840
 3.6850	 4.6230
 3.6880	 4.7200
 3.6910	 4.7330
 3.6930	 4.6770
 3.6960	 4.6620
 3.6990	 4.6000
 3.7010	 4.5890
 3.7040	 4.6280
 3.7060	 4.6390
 3.7090	 4.6390
 3.7120	 4.6220
 3.7140	 4.6050
 3.7170	 4.6630
 3.7200	 4.6370
 3.7220	 4.6650
 3.7250	 4.6630
 3.7280	 4.6460
 3.7300	 4.6240
 3.7330	 4.6730
 3.7360	 4.7110
 3.7390	 4.7020
 3.7410	 4.6030
 3.7440	 4.6140
 3.7470	 4.6550
 3.7490	 4.6370
 3.7520	 4.6090
 3.7550	 4.6660
 3.7580	 4.6410
 3.7600	 4.6080
 3.7630	 4.5780
 3.7660	 4.5600
 3.7680	 4.6270
 3.7710	 4.6810
 3.7740	 4.6790
 3.7770	 4.6500
 3.7790	 4.6440
 3.7820	 4.7130
 3.7850	 4.6660
 3.7880	 4.6390
 3.7900	 4.6720
 3.7930	 4.7080
 3.7960	 4.6920
 3.7990	 4.7060
 3.8020	 4.6760
 3.8040	 4.6840
 3.8070	 4.7130
 3.8100	 4.7170
 3.8130	 4.6510
 3.8160	 4.6840
 3.8180	 4.7560
 3.8210	 4.7710
 3.8240	 4.7770
 3.8270	 4.6830
 3.8300	 4.6860
 3.8330	 4.7160
 3.8350	 4.6320
 3.8380	 4.6010
 3.8410	 4.6300
 3.8440	 4.6720
 3.8470	 4.7060
 3.8500	 4.7730
 3.8520	 4.7470
 3.8550	 4.6470
 3.8580	 4.5610
 3.8610	 4.6220
 3.8640	 4.6830
 3.8670	 4.6970
 3.8700	 4.6920
 3.8730	 4.7680
 3.8750	 4.7600
 3.8780	 4.7290
 3.8810	 4.7180
 3.8840	 4.7440
 3.8870	 4.7600
 3.8900	 4.7260
 3.8930	 4.7020
 3.8960	 4.7580
 3.8990	 4.7380
 3.9020	 4.7010
 3.9050	 4.7330
 3.9080	 4.7800
 3.9110	 4.7500
 3.9140	 4.7310
 3.9160	 4.7040
 3.9190	 4.7280
 3.9220	 4.7660
 3.9250	 4.7990
 3.9280	 4.7550
 3.9310	 4.7150
 3.9340	 4.7050
 3.9370	 4.7360
 3.9400	 4.7440
 3.9430	 4.7070
 3.9460	 4.6670
 3.9490	 4.6640
 3.9520	 4.6760
 3.9550	 4.7020
 3.9580	 4.7250
 3.9610	 4.7880
 3.9640	 4.7980
 3.9670	 4.8000
 3.9700	 4.7920
 3.9730	 4.7780
 3.9770	 4.7530
 3.9800	 4.7560
 3.9830	 4.7820
 3.9860	 4.7450
 3.9890	 4.7520
 3.9920	 4.7770
 3.9950	 4.7150
 3.9980	 4.7060
 4.0010	 4.7790
 4.0040	 4.7890
 4.0070	 4.7270
 4.0100	 4.7140
 4.0130	 4.7300
 4.0170	 4.7620
 4.0200	 4.7620
 4.0230	 4.7710
 4.0260	 4.7600
 4.0290	 4.7540
 4.0320	 4.7040
 4.0350	 4.6840
 4.0380	 4.6800
 4.0420	 4.6720
 4.0450	 4.6860
 4.0480	 4.7020
 4.0510	 4.7390
 4.0540	 4.7780
 4.0570	 4.6900
 4.0610	 4.6550
 4.0640	 4.6810
 4.0670	 4.6690
 4.0700	 4.6980
 4.0730	 4.7290
 4.0770	 4.7330
 4.0800	 4.7310
 4.0830	 4.7510
 4.0860	 4.6980
 4.0890	 4.6410
 4.0930	 4.6370
 4.0960	 4.6510
 4.0990	 4.6400
 4.1020	 4.6750
 4.1060	 4.7040
 4.1090	 4.6470
 4.1120	 4.6430
 4.1150	 4.6570
 4.1190	 4.7020
 4.1220	 4.6940
 4.1250	 4.7000
 4.1280	 4.7040
 4.1320	 4.7270
 4.1350	 4.7410
 4.1380	 4.6660
 4.1420	 4.6220
 4.1450	 4.6270
 4.1480	 4.6430
 4.1520	 4.6460
 4.1550	 4.6160
 4.1580	 4.6700
 4.1620	 4.7430
 4.1650	 4.6950
 4.1680	 4.5910
 4.1720	 4.5940
 4.1750	 4.6440
 4.1780	 4.6710
 4.1820	 4.7260
 4.1850	 4.7740
 4.1890	 4.7050
 4.1920	 4.6460
 4.1950	 4.6310
 4.1990	 4.6380
 4.2020	 4.6740
 4.2060	 4.6770
 4.2090	 4.7030
 4.2120	 4.7770
 4.2160	 4.7050
 4.2190	 4.7310
 4.2230	 4.8630
 4.2260	 4.9200
 4.2300	 5.0670
 4.2330	 4.9690
 4.2360	 4.8360
 4.2400	 4.8030
 4.2430	 4.7940
 4.2470	 4.6790
 4.2500	 4.5840
 4.2540	 4.6520
 4.2570	 4.6490
 4.2610	 4.6570
 4.2640	 4.7360
 4.2680	 4.8120
 4.2710	 4.4250
 4.2750	 4.1880
 4.2780	 4.4950
 4.2820	 4.6540
 4.2850	 4.7460
 4.2890	 4.7830
 4.2930	 4.9230
 4.2960	 4.9910
 4.3000	 4.7890
 4.3030	 4.5880
 4.3070	 4.5530
 4.3100	 4.6420
 4.3140	 4.6870
 4.3180	 4.6800
 4.3210	 4.7130
 4.3250	 4.6340
 4.3280	 4.5790
 4.3320	 4.5600
 4.3360	 4.5450
 4.3390	 4.5200
 4.3430	 4.4900
 4.3470	 4.4450
 4.3500	 4.4580
 4.3540	 4.5030
 4.3570	 4.5200
 4.3610	 4.5210
 4.3650	 4.4970
 4.3680	 4.4780
 4.3720	 4.5150
 4.3760	 4.4750
 4.3800	 4.4480
 4.3830	 4.4480
 4.3870	 4.4390
 4.3910	 4.4000
 4.3940	 4.4360
 4.3980	 4.4690
 4.4020	 4.4800
 4.4060	 4.4010
 4.4090	 4.3690
 4.4130	 4.3980
 4.4170	 4.4970
 4.4210	 4.5230
 4.4240	 4.4470
 4.4280	 4.3850
 4.4320	 4.4310
 4.4360	 4.4730
 4.4400	 4.4740
 4.4430	 4.4250
 4.4470	 4.3890
 4.4510	 4.3500
 4.4550	 4.3270
 4.4590	 4.3070
 4.4620	 4.3030
 4.4660	 4.3280
 4.4700	 4.3720
 4.4740	 4.3540
 4.4780	 4.3770
 4.4820	 4.4390
 4.4860	 4.4160
 4.4900	 4.3360
 4.4930	 4.2810
 4.4970	 4.3100
 4.5010	 4.3500
 4.5050	 4.3500
 4.5090	 4.3680
 4.5130	 4.3680
 4.5170	 4.3450
 4.5210	 4.2630
 4.5250	 4.2520
 4.5290	 4.2930
 4.5330	 4.3320
 4.5370	 4.2960
 4.5410	 4.2580
 4.5450	 4.2910
 4.5490	 4.3340
 4.5530	 4.3040
 4.5570	 4.2760
 4.5610	 4.2900
 4.5650	 4.2610
 4.5690	 4.2350
 4.5730	 4.2960
 4.5770	 4.3260
 4.5810	 4.3220
 4.5850	 4.2600
 4.5890	 4.2470
 4.5930	 4.2540
 4.5970	 4.3070
 4.6010	 4.2950
 4.6050	 4.2090
 4.6090	 4.2280
 4.6130	 4.2490
 4.6170	 4.2500
 4.6220	 4.2270
 4.6260	 4.2010
 4.6300	 4.2710
 4.6340	 4.2850
 4.6380	 4.2350
 4.6420	 4.2290
 4.6460	 4.2620
 4.6510	 4.2440
 4.6550	 4.3180
 4.6590	 4.3800
 4.6630	 4.3320
 4.6670	 4.2790
 4.6720	 4.3080
 4.6760	 4.2810
 4.6800	 4.2350
 4.6840	 4.2150
 4.6880	 4.2100
 4.6930	 4.1800
 4.6970	 4.2160
 4.7010	 4.2130
 4.7050	 4.1960
 4.7100	 4.1410
 4.7140	 4.1410
 4.7180	 4.1650
 4.7230	 4.2540
 4.7270	 4.2530
 4.7310	 4.2310
 4.7360	 4.1820
 4.7400	 4.1450
 4.7440	 4.1730
 4.7490	 4.1910
 4.7530	 4.2050
 4.7570	 4.2250
 4.7620	 4.2420
 4.7660	 4.2600
 4.7700	 4.2260
 4.7750	 4.2050
 4.7790	 4.1690
 4.7840	 4.1320
 4.7880	 4.1380
 4.7920	 4.1880
 4.7970	 4.2200
 4.8010	 4.2230
 4.8060	 4.2210
 4.8100	 4.2200
 4.8150	 4.1960
 4.8190	 4.2260
 4.8240	 4.2040
 4.8280	 4.2160
 4.8330	 4.2520
 4.8370	 4.3070
 4.8420	 4.2530
 4.8460	 4.2330
 4.8510	 4.2000
 4.8550	 4.2340
 4.8600	 4.2270
 4.8640	 4.1790
 4.8690	 4.1660
 4.8730	 4.2440
 4.8780	 4.2490
 4.8830	 4.2520
 4.8870	 4.2440
 4.8920	 4.2490
 4.8960	 4.1610
 4.9010	 4.1810
 4.9060	 4.2600
 4.9100	 4.2750
 4.9150	 4.2040
 4.9200	 4.1920
 4.9240	 4.2520
 4.9290	 4.3080
 4.9340	 4.2400
 4.9380	 4.1960
 4.9430	 4.1930
 4.9480	 4.2600
 4.9530	 4.2200
 4.9570	 4.2040
 4.9620	 4.1900
 4.9670	 4.2580
 4.9720	 4.3150
 4.9760	 4.2730
 4.9810	 4.1600
 4.9860	 4.1800
 4.9910	 4.2060
 4.9960	 4.2430
 5.0000	 4.2950
 5.0050	 4.3380
 5.0100	 4.2910
 5.0150	 4.2610
 5.0200	 4.2230
 5.0250	 4.1890
 5.0290	 4.1850
 5.0340	 4.2650
 5.0390	 4.2840
 5.0440	 4.2610
 5.0490	 4.2470
 5.0540	 4.2980
 5.0590	 4.3170
 5.0640	 4.2710
 5.0690	 4.2090
 5.0740	 4.2720
 5.0790	 4.2650
 5.0840	 4.2640
 5.0890	 4.2290
 5.0940	 4.2400
 5.0990	 4.2640
 5.1040	 4.2940
 5.1090	 4.2920
 5.1140	 4.2940
 5.1190	 4.2380
 5.1240	 4.2390
 5.1290	 4.2050
 5.1340	 4.2430
 5.1390	 4.2740
 5.1440	 4.3200
 5.1490	 4.2910
 5.1540	 4.3060
 5.1600	 4.2710
 5.1650	 4.2870
 5.1700	 4.3150
 5.1750	 4.3270
 5.1800	 4.2970
 5.1850	 4.3000
 5.1910	 4.3040
 5.1960	 4.3030
 5.2010	 4.2840
 5.2060	 4.2940
 5.2110	 4.2910
 5.2170	 4.2990
 5.2220	 4.2770
 5.2270	 4.2620
 5.2320	 4.2760
 5.2380	 4.2670
 5.2430	 4.2220
 5.2480	 4.2880
 5.2540	 4.2830
 5.2590	 4.2820
 5.2640	 4.2480
 5.2700	 4.2680
 5.2750	 4.2660
 5.2800	 4.2700
 5.2860	 4.1940
 5.2910	 4.2490
 5.2970	 4.2540
 5.3020	 4.2830
 5.3070	 4.2800
 5.3130	 4.2480
 5.3180	 4.2060
 5.3240	 4.2100
 5.3290	 4.2000
 5.3350	 4.2210
 5.3400	 4.1720
 5.3460	 4.2110
 5.3510	 4.2710
 5.3570	 4.2770
 5.3620	 4.1770
 5.3680	 4.2030
 5.3730	 4.2090
 5.3790	 4.2640
 5.3850	 4.2450
 5.3900	 4.1950
 5.3960	 4.1660
 5.4010	 4.2340
 5.4070	 4.1720
 5.4130	 4.1000
 5.4180	 4.0580
 5.4240	 4.0960
 5.4300	 4.0740
 5.4350	 4.0850
 5.4410	 4.0600
 5.4470	 4.0780
 5.4530	 4.0860
 5.4580	 4.1350
 5.4640	 4.0930
 5.4700	 4.1260
 5.4760	 4.0980
 5.4810	 4.0740
 5.4870	 4.0220
 5.4930	 4.0110
 5.4990	 3.9980
 5.5050	 3.9640
 5.5110	 3.8760
 5.5160	 3.9260
 5.5220	 3.9290
 5.5280	 3.9040
 5.5340	 3.8520
 5.5400	 3.8660
 5.5460	 3.8190
 5.5520	 3.8350
 5.5580	 3.8090
 5.5640	 3.7970
 5.5700	 3.7610
 5.5760	 3.7560
 5.5820	 3.7550
 5.5880	 3.7550
 5.5940	 3.6890
 5.6000	 3.7030
 5.6060	 3.6740
 5.6120	 3.6850
 5.6180	 3.6460
 5.6240	 3.6640
 5.6300	 3.6030
 5.6360	 3.5920
 5.6420	 3.5940
 5.6490	 3.5680
 5.6550	 3.4820
 5.6610	 3.4710
 5.6670	 3.3850
 5.6730	 3.3570
 5.6800	 3.3090
 5.6860	 3.3540
 5.6920	 3.3200
 5.6980	 3.2370
 5.7040	 3.1310
 5.7110	 3.1530
 5.7170	 3.1020
 5.7230	 3.0840
 5.7300	 3.0160
 5.7360	 3.0170
 5.7420	 2.9870
 5.7490	 3.0560
 5.7550	 3.1700
 5.7620	 3.2940
 5.7680	 3.3190
 5.7740	 3.3880
 5.7810	 3.4040
 5.7870	 3.4970
 5.7940	 3.5280
 5.8000	 3.5500
 5.8070	 3.5460
 5.8130	 3.6780
 5.8200	 3.7030
 5.8260	 3.7470
 5.8330	 3.7240
 5.8390	 3.8010
 5.8460	 3.8270
 5.8530	 3.9200
 5.8590	 3.9570
 5.8660	 4.0940
 5.8720	 4.1430
 5.8790	 4.2040
 5.8860	 4.1690
 5.8920	 4.1950
 5.8990	 4.1790
 5.9060	 4.1620
 5.9130	 4.1420
 5.9190	 4.2310
 5.9260	 4.1830
 5.9330	 4.1480
 5.9400	 4.1360
 5.9470	 4.2360
 5.9530	 4.2130
 5.9600	 4.2470
 5.9670	 4.2260
 5.9740	 4.2330
 5.9810	 4.1960
 5.9880	 4.1880
 5.9950	 4.0480
 6.0020	 4.0110
 6.0090	 3.9270
 6.0160	 3.8620
 6.0230	 3.8350
 6.0300	 3.9230
 6.0370	 3.8560
 6.0440	 3.9040
 6.0510	 3.8850
 6.0580	 3.8880
 6.0650	 3.8710
 6.0720	 3.9810
 6.0790	 4.0060
 6.0860	 4.0560
 6.0930	 4.0290
 6.1000	 4.1030
 6.1080	 4.1170
 6.1150	 4.1840
 6.1220	 4.0690
 6.1290	 4.0690
 6.1370	 4.1130
 6.1440	 4.1990
 6.1510	 4.0860
 6.1580	 4.0360
 6.1660	 3.9750
 6.1730	 4.0400
 6.1800	 4.0240
 6.1880	 4.0360
 6.1950	 3.9280
 6.2030	 3.9250
 6.2100	 3.9070
 6.2170	 4.0120
 6.2250	 3.9330
 6.2320	 3.9830
 6.2400	 4.0140
 6.2470	 4.0260
 6.2550	 4.0200
 6.2630	 4.0880
 6.2700	 4.0110
 6.2780	 4.0510
 6.2850	 4.0260
 6.2930	 4.0910
 6.3010	 4.0700
 6.3080	 4.0770
 6.3160	 4.0300
 6.3240	 4.1070
 6.3310	 4.0870
 6.3390	 4.0940
 6.3470	 4.0750
 6.3550	 4.0990
 6.3620	 4.0440
 6.3700	 4.1010
 6.3780	 4.0540
 6.3860	 4.0870
 6.3940	 4.0960
 6.4020	 4.0870
 6.4100	 4.0570
 6.4180	 4.1580
 6.4260	 4.1260
 6.4330	 4.1400
 6.4410	 4.0470
 6.4490	 4.0860
 6.4580	 4.0810
 6.4660	 4.0760
 6.4740	 3.9930
 6.4820	 4.0730
 6.4900	 4.1010
 6.4980	 4.1620
 6.5060	 4.0430
 6.5140	 3.9880
 6.5230	 3.9410
 6.5310	 4.0190
 6.5390	 3.9860
 6.5470	 3.9540
 6.5550	 3.8200
 6.5640	 3.7780
 6.5720	 3.7110
 6.5800	 3.7020
 6.5890	 3.6180
 6.5970	 3.6120
 6.6060	 3.5560
 6.6140	 3.6090
 6.6220	 3.6220
 6.6310	 3.6610
 6.6390	 3.6200
 6.6480	 3.7050
 6.6560	 3.6840
 6.6650	 3.7110
 6.6740	 3.7040
 6.6820	 3.7370
 6.6910	 3.6530
 6.6990	 3.6650
 6.7080	 3.6850
 6.7170	 3.7360
 6.7260	 3.6820
 6.7340	 3.6810
 6.7430	 3.5990
 6.7520	 3.6180
 6.7610	 3.6170
 6.7690	 3.6500
 6.7780	 3.6740
 6.7870	 4.0910
 6.7960	 4.0780
 6.8050	 3.8430
 6.8140	 3.7050
 6.8230	 3.8430
 6.8320	 4.0630
 6.8410	 4.3280
 6.8500	 4.1610
 6.8590	 3.9960
 6.8680	 3.8450
 6.8770	 3.8620
 6.8860	 3.8750
 6.8950	 3.8690
 6.9050	 3.7690
 6.9140	 3.8810
 6.9230	 3.8190
 6.9320	 3.7890
 6.9420	 3.7130
 6.9510	 3.7590
 6.9600	 3.7470
 6.9700	 3.8540
 6.9790	 3.8190
 6.9880	 3.8960
 6.9980	 3.8250
 7.0070	 3.9160
 7.0170	 3.9520
 7.0260	 3.9830
 7.0360	 3.8590
 7.0450	 3.9010
 7.0550	 3.8590
 7.0650	 3.8200
 7.0740	 3.7110
 7.0840	 3.8900
 7.0940	 3.9130
 7.1030	 3.8940
 7.1130	 3.8080
 7.1230	 3.8850
 7.1330	 3.9130
 7.1420	 3.9690
 7.1520	 3.7410
 7.1620	 3.7440
 7.1720	 3.7390
 7.1820	 3.8260
 7.1920	 3.7420
 7.2020	 3.7130
 7.2120	 3.6480
 7.2220	 3.7440
 7.2320	 3.7320
 7.2420	 3.7420
 7.2520	 3.6560
 7.2620	 3.6840
 7.2730	 3.6720
 7.2830	 3.6910
 7.2930	 3.5910
 7.3030	 3.5540
 7.3140	 3.4970
 7.3240	 3.5850
 7.3340	 3.5390
 7.3450	 3.5910
 7.3550	 3.5070
 7.3660	 3.6250
 7.3760	 3.6690
 7.3870	 3.7610
 7.3970	 3.7070
 7.4080	 3.6960
 7.4180	 3.6440
 7.4290	 3.7600
 7.4400	 3.7510
 7.4500	 3.8210
 7.4610	 3.7280
 7.4720	 3.7850
 7.4830	 3.7380
 7.4930	 3.7670
 7.5040	 3.6470
 7.5150	 3.6490
 7.5260	 3.5960
 7.5370	 3.6580
 7.5480	 3.5730
 7.5590	 3.5900
 7.5700	 3.5080
 7.5810	 3.5550
 7.5920	 3.5710
 7.6030	 3.6620
 7.6140	 3.5640
 7.6260	 3.5860
 7.6370	 3.3020
 7.6480	 3.0790
 7.6590	 3.2590
 7.6710	 3.5920
 7.6820	 3.5300
 7.6930	 3.4790
 7.7050	 3.4230
 7.7160	 3.5280
 7.7280	 3.5030
 7.7390	 3.5950
 7.7510	 3.4870
 7.7630	 3.4770
 7.7740	 3.4320
 7.7860	 3.4670
 7.7980	 3.3820
 7.8090	 3.4500
 7.8210	 3.4320
 7.8330	 3.4820
 7.8450	 3.4290
 7.8570	 3.5070
 7.8690	 3.3790
 7.8810	 3.4280
 7.8930	 3.3830
 7.9050	 3.5040
 7.9170	 3.4300
 7.9290	 3.4950
 7.9410	 3.4800
 7.9530	 3.5460
 7.9650	 3.5220
 7.9780	 3.6390
 7.9900	 3.5050
 8.0020	 3.4770
 8.0150	 3.4400
 8.0270	 3.5830
 8.0390	 3.5650
 8.0520	 3.7350
 8.0640	 3.6660
 8.0770	 3.8240
 8.0900	 3.7710
 8.1020	 3.8750
 8.1150	 3.8150
 8.1280	 3.8690
 8.1400	 3.7300
 8.1530	 3.8640
 8.1660	 3.8130
 8.1790	 3.9100
 8.1920	 3.7680
 8.2050	 3.7050
 8.2180	 3.5960
 8.2310	 3.7270
 8.2440	 3.6460
 8.2570	 3.7490
 8.2700	 3.5940
 8.2830	 3.6430
 8.2970	 3.6510
 8.3100	 3.8450
 8.3230	 3.7500
 8.3370	 3.7810
 8.3500	 3.6870
 8.3640	 3.8180
 8.3770	 3.7220
 8.3910	 3.8170
 8.4040	 3.7260
 8.4180	 3.8410
 8.4320	 3.7420
 8.4450	 3.7310
 8.4590	 3.5840
 8.4730	 3.7970
 8.4870	 3.8360
 8.5010	 3.9340
 8.5150	 3.7520
 8.5290	 3.8800
 8.5430	 3.9890
 8.5570	 4.2570
 8.5710	 4.2780
 8.5850	 4.4780
 8.5990	 4.4590
 8.6140	 4.5460
 8.6280	 4.4450
 8.6420	 4.4750
 8.6570	 4.3600
 8.6710	 4.5140
 8.6860	 4.4520
 8.7000	 4.5500
 8.7150	 4.4360
 8.7300	 4.5340
 8.7440	 4.4830
 8.7590	 4.5770
 8.7740	 4.4010
 8.7890	 4.5390
 8.8040	 4.4500
 8.8190	 4.4990
 8.8340	 4.3680
 8.8490	 4.4970
 8.8640	 4.4750
 8.8790	 4.6390
 8.8940	 4.5060
 8.9100	 4.5580
 8.9250	 4.4510
 8.9400	 4.5350
 8.9560	 4.3210
 8.9710	 4.4800
 8.9870	 4.3820
 9.0020	 4.5240
 9.0180	 4.4340
 9.0340	 4.4710
 9.0500	 4.3500
 9.0650	 4.5210
 9.0810	 4.4550
 9.0970	 4.5620
 9.1130	 4.4660
 9.1290	 4.5430
 9.1450	 4.3930
 9.1610	 4.5790
 9.1780	 4.5090
 9.1940	 4.6090
 9.2100	 4.4680
 9.2270	 4.5960
 9.2430	 4.5350
 9.2600	 4.6470
 9.2760	 4.5000
 9.2930	 4.4660
 9.3090	 4.3580
 9.3260	 4.6730
 9.3430	 4.6260
 9.3600	 4.7350
 9.3770	 4.5660
 9.3940	 4.7710
 9.4110	 4.5920
 9.4280	 4.6210
 9.4450	 4.5970
 9.4620	 4.8670
 9.4800	 4.8220
 9.4970	 4.9970
 9.5140	 4.7440
 9.5320	 4.7730
 9.5500	 4.6880
 9.5670	 4.9060
 9.5850	 4.8180
 9.6030	 4.8750
 9.6200	 4.7340
 9.6380	 4.8220
 9.6560	 4.7700
 9.6740	 4.9900
 9.6920	 4.8670
 9.7100	 4.9140
 9.7290	 4.7610
 9.7470	 4.9050
 9.7650	 4.8100
 9.7840	 4.9840
 9.8020	 4.7880
 9.8210	 4.7690
 9.8390	 4.7370
 9.8580	 4.9370
 9.8770	 4.7670
 9.8960	 4.7490
 9.9150	 4.5500
 9.9340	 4.7060
 9.9530	 4.5960
 9.9720	 4.6970
 9.9910	 4.5500
10.0100	 4.6500
10.0300	 4.6100
10.0490	 4.7190
10.0690	 4.5070
10.0880	 4.5730
10.1080	 4.5060
10.1280	 4.6530
10.1480	 4.5570
10.1670	 4.6650
10.1870	 4.3860
10.2070	 4.4020
10.2280	 4.3440
10.2480	 4.3510
10.2680	 4.0630
10.2890	 4.2100
10.3090	 4.1670
10.3300	 4.4160
10.3500	 4.2580
10.3710	 4.3130
10.3920	 4.2440
10.4120	 4.3460
10.4330	 4.2770
10.4540	 4.3980
10.4760	 4.2760
10.4970	 4.3570
10.5180	 4.2370
10.5390	 4.3120
10.5610	 4.0510
10.5820	 4.2310
10.6040	 4.2040
10.6260	 4.3050
10.6480	 4.1800
10.6700	 4.3200
10.6920	 4.1670
10.7140	 4.1940
10.7360	 4.0990
10.7580	 4.3080
10.7800	 4.2020
10.8030	 4.3750
10.8250	 4.2930
10.8480	 4.4550
10.8710	 4.3190
10.8940	 4.4030
10.9170	 4.2770
10.9400	 4.3740
10.9630	 4.1930
10.9860	 4.3390
11.0090	 4.2260
11.0330	 4.3820
11.0560	 4.2360
11.0800	 4.2940
11.1040	 4.4770
11.1270	 4.8800
11.1510	 4.2720
11.1750	 4.3610
11.2000	 4.3480
11.2240	 4.5190
11.2480	 4.4070
11.2730	 4.6940
11.2970	 4.2480
11.3220	 4.2040
11.3470	 4.3850
11.3720	 4.6960
11.3970	 4.5210
11.4220	 4.5130
11.4470	 4.3150
11.4720	 4.5090
11.4980	 4.3950
11.5230	 4.6700
11.5490	 4.5310
11.5750	 4.5890
11.6000	 4.4330
11.6260	 4.5980
11.6530	 4.4570
11.6790	 4.6690
11.7050	 4.4950
11.7320	 4.6170
11.7580	 4.3320
11.7850	 4.4300
11.8120	 4.1800
11.8390	 4.4310
11.8660	 4.3380
11.8930	 4.5500
11.9200	 4.4080
11.9480	 4.6650
11.9760	 4.5640
12.0030	 4.5830
12.0310	 4.3670
12.0590	 4.7050
12.0870	 4.5130
12.1150	 4.7590
12.1440	 4.5540
12.1720	 4.6690
12.2010	 4.5090
12.2300	 4.7560
12.2590	 4.5680
12.2880	 4.9590
12.3170	 4.9400
12.3460	 5.1760
12.3760	 4.8650
12.4050	 4.9890
12.4350	 4.8180
12.4650	 5.0990
12.4950	 4.8930
12.5250	 5.0260
12.5550	 4.8100
12.5860	 5.0910
12.6170	 5.0190
12.6470	 5.1730
12.6780	 4.8080
12.7090	 4.9910
12.7410	 4.9820
12.7720	 5.1230
12.8030	 4.7640
12.8350	 4.8930
12.8670	 4.6840
12.8990	 4.8570
12.9310	 4.6810
12.9640	 4.9130
12.9960	 4.6530
13.0290	 4.7500
13.0610	 4.5570
13.0940	 4.8970
13.1280	 4.7870
13.1610	 4.8120
13.1940	 4.4490
13.2280	 4.8910
13.2620	 4.6200
13.2960	 4.6270
13.3300	 4.4030
13.3640	 4.7750
13.3990	 4.7230
13.4340	 4.8130
13.4690	 4.1150
13.5040	 4.2310
13.5390	 4.2270
13.5740	 4.4990
13.6100	 4.1730
13.6460	 4.4950
13.6820	 4.3910
13.7180	 4.8660
13.7540	 4.5590
13.7910	 4.6800
13.8280	 4.4010
13.8650	 4.6730
13.9020	 4.5960
13.9390	 4.8100
13.9770	 4.3680
14.0150	 4.6960
14.0530	 4.4640
14.0910	 4.7210
14.1290	 4.2660
14.1680	 4.4440
14.2070	 4.0950
14.2460	 4.2890
14.2850	 3.9350
14.3240	 4.2900
14.3640	 3.8690
14.4040	 4.2730
14.4440	 4.1870
14.4840	 4.5120
14.5250	 3.9560
14.5660	 4.2100
14.6070	 3.6890
14.6480	 4.1090
14.6900	 3.6980
14.7310	 3.9980
14.7730	 3.5930
14.8150	 4.0470
14.8580	 3.4820
14.9010	 4.1600
14.9440	 3.8370
14.9870	 4.2940
15.0300	 3.4970
15.0740	 3.8610
15.1180	 3.3180
15.1620	 3.8470
15.2060	 2.9940
15.2510	 3.4600
15.2960	 3.0380
15.3410	 4.0510
15.3870	 3.8080
