Name: Peltophorum africanum
Type: vegetation
Class: Tree
Genus: Peltophorum
Species: africanum
Sample No.: JPL260
Owner: JPL
Wavelength Range: TIR
Origin: 34.13114; -118.11242; WGS84
Collection Date: 10/6/2016
Description: Samples were collected at the Huntington Garden in San Marino California as part of a JPL Subcontract studying HyTES imagery. Samples were taken to JPL and processed within 48 hours of collection. The same leaves were processed in the Nicolet and then measured using the ASD.
Measurement: Hemispherical reflectance
First Column: X
Second Column: Y
X Units: Wavelength (micrometer)
Y Units: Reflectance (percentage)
First X Value: 2.501
Last X Value: 15.387
Number of X Values: 1737
Additional Information: vegetation.tree.peltophorum.africanum.tir.jpl260.jpl.nicolet.ancillary.txt

 2.5010	 7.4070
 2.5030	 7.4090
 2.5040	 7.3520
 2.5050	 7.2390
 2.5060	 7.2370
 2.5070	 7.2920
 2.5090	 7.3170
 2.5100	 7.2740
 2.5110	 7.3090
 2.5120	 7.2740
 2.5140	 7.2680
 2.5150	 7.2330
 2.5160	 7.2000
 2.5170	 7.1400
 2.5180	 7.1420
 2.5200	 7.1380
 2.5210	 7.1600
 2.5220	 7.1850
 2.5230	 7.1840
 2.5250	 7.1480
 2.5260	 7.2040
 2.5270	 7.2590
 2.5280	 7.2680
 2.5300	 7.1830
 2.5310	 7.1490
 2.5320	 7.1130
 2.5330	 7.1020
 2.5340	 7.0990
 2.5360	 7.1550
 2.5370	 7.1020
 2.5380	 7.1460
 2.5390	 7.1700
 2.5410	 7.1860
 2.5420	 7.1050
 2.5430	 7.0540
 2.5440	 7.0260
 2.5460	 7.0510
 2.5470	 7.0880
 2.5480	 7.0960
 2.5490	 7.0950
 2.5510	 7.1070
 2.5520	 6.9490
 2.5530	 6.9280
 2.5540	 7.0930
 2.5560	 7.2680
 2.5570	 7.2680
 2.5580	 7.2360
 2.5590	 7.1480
 2.5610	 7.0760
 2.5620	 6.9920
 2.5630	 6.9910
 2.5650	 6.9650
 2.5660	 7.1270
 2.5670	 7.2390
 2.5680	 7.2370
 2.5700	 7.1120
 2.5710	 7.1030
 2.5720	 7.1420
 2.5730	 7.0470
 2.5750	 7.0000
 2.5760	 7.0570
 2.5770	 7.0080
 2.5790	 7.1650
 2.5800	 7.1940
 2.5810	 7.0600
 2.5820	 6.9730
 2.5840	 6.9070
 2.5850	 6.8810
 2.5860	 6.9820
 2.5880	 6.8670
 2.5890	 6.8480
 2.5900	 6.9140
 2.5910	 7.0420
 2.5930	 6.9640
 2.5940	 6.8010
 2.5950	 6.5730
 2.5970	 6.6610
 2.5980	 6.8630
 2.5990	 7.0370
 2.6010	 6.9740
 2.6020	 6.9000
 2.6030	 6.8480
 2.6040	 6.8280
 2.6060	 6.7080
 2.6070	 6.6990
 2.6080	 6.7490
 2.6100	 6.7830
 2.6110	 6.8810
 2.6120	 6.9200
 2.6140	 6.7900
 2.6150	 6.8030
 2.6160	 6.7260
 2.6180	 6.6270
 2.6190	 6.6590
 2.6200	 6.6060
 2.6220	 6.5750
 2.6230	 6.7390
 2.6240	 6.7090
 2.6260	 6.6760
 2.6270	 6.4890
 2.6280	 6.5170
 2.6300	 6.5260
 2.6310	 6.4380
 2.6320	 6.4860
 2.6340	 6.5640
 2.6350	 6.5100
 2.6360	 6.5520
 2.6380	 6.5000
 2.6390	 6.5390
 2.6400	 6.5440
 2.6420	 6.4940
 2.6430	 6.3990
 2.6440	 6.4250
 2.6460	 6.3880
 2.6470	 6.3410
 2.6480	 6.3420
 2.6500	 6.3810
 2.6510	 6.3310
 2.6520	 6.2410
 2.6540	 6.1940
 2.6550	 6.2440
 2.6570	 6.2240
 2.6580	 6.2640
 2.6590	 6.2180
 2.6610	 6.1650
 2.6620	 6.1070
 2.6630	 6.1260
 2.6650	 5.9900
 2.6660	 5.8010
 2.6670	 5.7700
 2.6690	 5.9100
 2.6700	 5.7670
 2.6720	 5.7370
 2.6730	 5.9210
 2.6740	 5.9510
 2.6760	 5.8180
 2.6770	 5.7280
 2.6780	 5.7430
 2.6800	 5.7840
 2.6810	 5.8800
 2.6830	 5.9020
 2.6840	 5.7830
 2.6850	 5.7970
 2.6870	 5.8690
 2.6880	 5.8530
 2.6900	 5.8070
 2.6910	 5.8470
 2.6920	 5.7780
 2.6940	 5.6070
 2.6950	 5.4700
 2.6970	 5.5040
 2.6980	 5.6040
 2.6990	 5.6270
 2.7010	 5.4940
 2.7020	 5.5230
 2.7040	 5.5840
 2.7050	 5.6030
 2.7060	 5.5140
 2.7080	 5.4660
 2.7090	 5.3400
 2.7110	 5.2500
 2.7120	 5.1830
 2.7130	 5.3390
 2.7150	 5.4040
 2.7160	 5.4140
 2.7180	 5.3740
 2.7190	 5.3070
 2.7210	 5.1110
 2.7220	 5.1520
 2.7230	 5.1720
 2.7250	 5.0810
 2.7260	 5.1690
 2.7280	 5.3340
 2.7290	 5.2780
 2.7310	 5.2930
 2.7320	 5.2980
 2.7340	 5.2600
 2.7350	 5.2030
 2.7360	 5.1850
 2.7380	 5.1100
 2.7390	 5.0080
 2.7410	 4.9470
 2.7420	 5.0130
 2.7440	 5.0920
 2.7450	 5.1750
 2.7470	 5.1740
 2.7480	 5.1460
 2.7490	 5.0600
 2.7510	 5.0300
 2.7520	 4.9590
 2.7540	 4.9750
 2.7550	 4.9470
 2.7570	 4.9970
 2.7580	 5.0510
 2.7600	 5.0310
 2.7610	 4.9840
 2.7630	 4.9390
 2.7640	 4.9220
 2.7660	 4.9630
 2.7670	 4.8930
 2.7690	 4.9240
 2.7700	 4.9470
 2.7720	 4.9350
 2.7730	 4.9300
 2.7740	 4.9470
 2.7760	 4.9360
 2.7770	 4.9880
 2.7790	 4.9760
 2.7800	 4.9640
 2.7820	 4.9600
 2.7830	 4.9830
 2.7850	 4.9840
 2.7860	 4.9270
 2.7880	 4.8200
 2.7890	 4.9000
 2.7910	 4.9650
 2.7920	 4.9740
 2.7940	 4.8840
 2.7950	 4.8710
 2.7970	 4.8640
 2.7980	 4.9420
 2.8000	 4.9150
 2.8010	 4.8700
 2.8030	 4.8390
 2.8040	 4.8800
 2.8060	 4.8990
 2.8080	 4.9440
 2.8090	 4.9570
 2.8110	 5.0110
 2.8120	 4.9490
 2.8140	 4.9370
 2.8150	 5.0180
 2.8170	 5.0380
 2.8180	 4.9410
 2.8200	 4.8990
 2.8210	 4.8960
 2.8230	 4.9500
 2.8240	 4.9420
 2.8260	 4.9670
 2.8270	 4.9200
 2.8290	 4.8980
 2.8310	 4.8160
 2.8320	 4.8190
 2.8340	 4.8660
 2.8350	 4.9140
 2.8370	 4.9060
 2.8380	 4.9090
 2.8400	 4.8690
 2.8410	 4.9270
 2.8430	 4.8630
 2.8440	 4.8920
 2.8460	 4.9090
 2.8480	 4.9420
 2.8490	 4.9590
 2.8510	 5.0200
 2.8520	 4.9930
 2.8540	 4.9550
 2.8550	 4.9470
 2.8570	 4.9830
 2.8590	 4.9380
 2.8600	 4.9500
 2.8620	 4.9100
 2.8630	 4.9780
 2.8650	 4.9960
 2.8660	 4.9900
 2.8680	 4.9470
 2.8700	 4.9050
 2.8710	 4.8680
 2.8730	 4.8740
 2.8740	 4.8160
 2.8760	 4.9100
 2.8780	 5.0140
 2.8790	 5.0260
 2.8810	 4.9670
 2.8820	 5.0000
 2.8840	 4.9130
 2.8860	 4.9230
 2.8870	 4.9420
 2.8890	 4.9260
 2.8900	 4.8920
 2.8920	 4.9230
 2.8940	 4.8890
 2.8950	 4.8490
 2.8970	 4.8440
 2.8990	 4.8850
 2.9000	 4.8310
 2.9020	 4.8170
 2.9030	 4.8360
 2.9050	 4.9730
 2.9070	 4.9740
 2.9080	 4.9300
 2.9100	 4.9950
 2.9120	 5.0780
 2.9130	 4.9980
 2.9150	 5.0000
 2.9160	 4.8920
 2.9180	 4.8860
 2.9200	 4.9260
 2.9210	 4.9740
 2.9230	 4.9550
 2.9250	 4.9440
 2.9260	 4.8970
 2.9280	 4.9900
 2.9300	 5.0020
 2.9310	 5.0280
 2.9330	 5.0420
 2.9350	 5.0380
 2.9360	 4.9950
 2.9380	 4.9780
 2.9400	 4.9190
 2.9410	 4.8860
 2.9430	 4.9130
 2.9450	 4.9970
 2.9460	 5.0330
 2.9480	 5.0580
 2.9500	 4.9990
 2.9510	 5.0040
 2.9530	 4.9870
 2.9550	 4.9620
 2.9560	 4.9540
 2.9580	 4.9530
 2.9600	 4.8940
 2.9610	 4.9030
 2.9630	 4.8930
 2.9650	 4.9250
 2.9670	 4.9620
 2.9680	 4.9720
 2.9700	 4.9170
 2.9720	 4.8810
 2.9730	 4.8780
 2.9750	 4.9340
 2.9770	 4.8850
 2.9780	 4.9160
 2.9800	 4.8980
 2.9820	 4.9780
 2.9840	 5.0370
 2.9850	 5.0060
 2.9870	 4.9550
 2.9890	 4.9930
 2.9900	 4.9770
 2.9920	 4.9820
 2.9940	 4.9430
 2.9960	 4.9710
 2.9970	 4.9780
 2.9990	 5.0020
 3.0010	 4.9910
 3.0030	 4.9470
 3.0040	 4.9270
 3.0060	 4.9740
 3.0080	 4.9200
 3.0100	 4.9440
 3.0110	 4.9860
 3.0130	 5.0340
 3.0150	 5.0030
 3.0170	 4.9930
 3.0180	 4.9580
 3.0200	 4.9860
 3.0220	 4.9940
 3.0240	 5.0230
 3.0250	 5.0050
 3.0270	 5.0390
 3.0290	 5.0520
 3.0310	 5.0280
 3.0320	 4.9450
 3.0340	 4.9840
 3.0360	 5.0230
 3.0380	 5.0280
 3.0400	 5.0060
 3.0410	 4.9830
 3.0430	 4.9520
 3.0450	 5.0130
 3.0470	 5.0120
 3.0480	 5.0280
 3.0500	 5.0440
 3.0520	 5.0540
 3.0540	 5.0210
 3.0560	 5.0170
 3.0570	 4.9690
 3.0590	 4.9850
 3.0610	 4.9980
 3.0630	 4.9810
 3.0650	 4.9340
 3.0670	 5.0160
 3.0680	 5.0540
 3.0700	 5.0710
 3.0720	 5.0340
 3.0740	 5.0480
 3.0760	 5.0560
 3.0770	 5.0450
 3.0790	 4.9640
 3.0810	 4.9650
 3.0830	 4.9260
 3.0850	 4.9810
 3.0870	 5.0120
 3.0880	 5.0510
 3.0900	 5.0550
 3.0920	 5.0940
 3.0940	 5.1110
 3.0960	 5.1550
 3.0980	 5.1360
 3.1000	 5.1110
 3.1010	 5.0600
 3.1030	 5.0690
 3.1050	 5.0240
 3.1070	 5.0260
 3.1090	 4.9950
 3.1110	 4.9870
 3.1130	 5.0170
 3.1140	 5.0990
 3.1160	 5.0790
 3.1180	 5.1090
 3.1200	 5.1060
 3.1220	 5.1070
 3.1240	 5.1140
 3.1260	 5.1040
 3.1280	 5.0400
 3.1290	 5.0410
 3.1310	 5.0520
 3.1330	 5.0520
 3.1350	 5.0550
 3.1370	 5.0930
 3.1390	 5.0540
 3.1410	 5.0670
 3.1430	 5.0740
 3.1450	 5.0560
 3.1470	 5.0340
 3.1480	 5.1180
 3.1500	 5.1990
 3.1520	 5.1910
 3.1540	 5.1700
 3.1560	 5.1700
 3.1580	 5.1180
 3.1600	 5.1040
 3.1620	 5.0730
 3.1640	 5.0640
 3.1660	 5.0750
 3.1680	 5.1330
 3.1700	 5.1330
 3.1720	 5.1450
 3.1730	 5.1250
 3.1750	 5.1410
 3.1770	 5.1350
 3.1790	 5.1610
 3.1810	 5.1860
 3.1830	 5.1690
 3.1850	 5.1380
 3.1870	 5.1710
 3.1890	 5.1240
 3.1910	 5.1390
 3.1930	 5.1600
 3.1950	 5.1900
 3.1970	 5.1600
 3.1990	 5.1630
 3.2010	 5.1530
 3.2030	 5.1730
 3.2050	 5.1470
 3.2070	 5.1610
 3.2090	 5.1850
 3.2110	 5.1680
 3.2130	 5.1460
 3.2150	 5.1550
 3.2170	 5.1110
 3.2190	 5.1400
 3.2210	 5.1490
 3.2230	 5.1410
 3.2250	 5.1290
 3.2270	 5.2030
 3.2290	 5.2320
 3.2310	 5.2240
 3.2330	 5.2010
 3.2350	 5.2170
 3.2370	 5.1880
 3.2390	 5.1820
 3.2410	 5.1760
 3.2430	 5.1810
 3.2450	 5.1440
 3.2470	 5.1790
 3.2490	 5.2240
 3.2510	 5.1960
 3.2530	 5.1550
 3.2550	 5.1750
 3.2570	 5.1730
 3.2590	 5.2010
 3.2610	 5.1870
 3.2630	 5.2150
 3.2650	 5.1960
 3.2670	 5.2160
 3.2700	 5.2400
 3.2720	 5.2470
 3.2740	 5.2060
 3.2760	 5.1730
 3.2780	 5.1740
 3.2800	 5.2200
 3.2820	 5.2200
 3.2840	 5.2110
 3.2860	 5.1870
 3.2880	 5.1940
 3.2900	 5.2320
 3.2920	 5.2710
 3.2940	 5.2640
 3.2970	 5.3010
 3.2990	 5.2550
 3.3010	 5.2330
 3.3030	 5.2190
 3.3050	 5.2250
 3.3070	 5.2520
 3.3090	 5.2780
 3.3110	 5.2590
 3.3130	 5.2720
 3.3160	 5.2160
 3.3180	 5.2120
 3.3200	 5.2180
 3.3220	 5.2280
 3.3240	 5.2540
 3.3260	 5.2870
 3.3280	 5.2670
 3.3300	 5.2780
 3.3330	 5.2470
 3.3350	 5.2840
 3.3370	 5.2660
 3.3390	 5.2350
 3.3410	 5.1950
 3.3430	 5.2050
 3.3450	 5.1830
 3.3480	 5.1970
 3.3500	 5.2060
 3.3520	 5.1970
 3.3540	 5.1450
 3.3560	 5.1420
 3.3580	 5.1240
 3.3610	 5.1190
 3.3630	 5.1570
 3.3650	 5.1850
 3.3670	 5.1260
 3.3690	 5.1100
 3.3720	 5.1220
 3.3740	 5.1480
 3.3760	 5.1520
 3.3780	 5.1340
 3.3800	 5.0890
 3.3830	 5.1180
 3.3850	 5.1380
 3.3870	 5.1310
 3.3890	 5.0640
 3.3910	 5.0140
 3.3940	 5.0290
 3.3960	 5.0580
 3.3980	 5.0300
 3.4000	 5.0590
 3.4030	 5.0350
 3.4050	 5.0550
 3.4070	 5.0280
 3.4090	 5.0240
 3.4110	 5.0590
 3.4140	 5.1650
 3.4160	 5.2520
 3.4180	 5.3520
 3.4200	 5.4470
 3.4230	 5.6440
 3.4250	 5.8910
 3.4270	 6.1420
 3.4300	 6.2490
 3.4320	 6.1600
 3.4340	 5.9730
 3.4360	 5.8440
 3.4390	 5.7650
 3.4410	 5.6770
 3.4430	 5.5930
 3.4450	 5.6000
 3.4480	 5.5540
 3.4500	 5.4880
 3.4520	 5.4510
 3.4550	 5.4850
 3.4570	 5.5090
 3.4590	 5.5200
 3.4620	 5.4690
 3.4640	 5.5020
 3.4660	 5.5050
 3.4690	 5.4940
 3.4710	 5.4680
 3.4730	 5.4960
 3.4760	 5.4660
 3.4780	 5.3790
 3.4800	 5.3440
 3.4830	 5.3760
 3.4850	 5.3530
 3.4870	 5.3540
 3.4900	 5.3120
 3.4920	 5.2790
 3.4940	 5.2900
 3.4970	 5.3510
 3.4990	 5.3090
 3.5010	 5.2800
 3.5040	 5.3160
 3.5060	 5.5100
 3.5080	 5.8040
 3.5110	 6.0880
 3.5130	 6.1490
 3.5160	 6.0820
 3.5180	 5.9440
 3.5200	 5.8440
 3.5230	 5.7790
 3.5250	 5.7540
 3.5280	 5.6960
 3.5300	 5.6450
 3.5320	 5.6610
 3.5350	 5.7020
 3.5370	 5.6690
 3.5400	 5.6460
 3.5420	 5.6440
 3.5440	 5.6690
 3.5470	 5.6520
 3.5490	 5.6300
 3.5520	 5.6150
 3.5540	 5.6300
 3.5570	 5.6210
 3.5590	 5.6330
 3.5610	 5.6330
 3.5640	 5.6280
 3.5660	 5.5900
 3.5690	 5.6070
 3.5710	 5.6310
 3.5740	 5.6560
 3.5760	 5.6530
 3.5790	 5.6440
 3.5810	 5.5870
 3.5840	 5.5810
 3.5860	 5.6140
 3.5890	 5.6590
 3.5910	 5.6230
 3.5940	 5.6090
 3.5960	 5.6190
 3.5990	 5.6350
 3.6010	 5.6010
 3.6040	 5.6070
 3.6060	 5.5910
 3.6090	 5.6040
 3.6110	 5.5910
 3.6140	 5.5940
 3.6160	 5.6180
 3.6190	 5.6360
 3.6210	 5.6110
 3.6240	 5.6010
 3.6260	 5.5920
 3.6290	 5.6250
 3.6310	 5.6100
 3.6340	 5.5880
 3.6360	 5.6200
 3.6390	 5.6270
 3.6410	 5.5680
 3.6440	 5.5790
 3.6470	 5.6390
 3.6490	 5.6630
 3.6520	 5.6490
 3.6540	 5.6280
 3.6570	 5.6170
 3.6590	 5.5970
 3.6620	 5.5800
 3.6650	 5.5980
 3.6670	 5.5790
 3.6700	 5.6010
 3.6720	 5.5920
 3.6750	 5.5760
 3.6780	 5.5780
 3.6800	 5.5960
 3.6830	 5.5980
 3.6850	 5.6010
 3.6880	 5.5790
 3.6910	 5.6010
 3.6930	 5.5920
 3.6960	 5.5770
 3.6990	 5.5860
 3.7010	 5.6100
 3.7040	 5.6140
 3.7070	 5.6470
 3.7090	 5.6640
 3.7120	 5.6680
 3.7150	 5.6540
 3.7170	 5.6580
 3.7200	 5.6440
 3.7230	 5.6410
 3.7250	 5.6190
 3.7280	 5.6370
 3.7310	 5.6500
 3.7330	 5.6460
 3.7360	 5.6470
 3.7390	 5.6470
 3.7410	 5.6120
 3.7440	 5.6270
 3.7470	 5.6490
 3.7490	 5.6750
 3.7520	 5.6890
 3.7550	 5.6950
 3.7580	 5.6760
 3.7600	 5.6640
 3.7630	 5.6680
 3.7660	 5.6990
 3.7690	 5.6430
 3.7710	 5.6100
 3.7740	 5.6050
 3.7770	 5.6540
 3.7790	 5.6880
 3.7820	 5.6900
 3.7850	 5.6780
 3.7880	 5.6960
 3.7910	 5.6820
 3.7930	 5.6650
 3.7960	 5.6710
 3.7990	 5.7080
 3.8020	 5.6850
 3.8040	 5.6640
 3.8070	 5.6770
 3.8100	 5.7030
 3.8130	 5.6840
 3.8160	 5.6490
 3.8180	 5.6630
 3.8210	 5.7130
 3.8240	 5.7270
 3.8270	 5.7190
 3.8300	 5.7250
 3.8330	 5.7140
 3.8350	 5.6840
 3.8380	 5.6780
 3.8410	 5.6880
 3.8440	 5.7080
 3.8470	 5.7010
 3.8500	 5.6870
 3.8520	 5.6730
 3.8550	 5.6570
 3.8580	 5.6950
 3.8610	 5.7500
 3.8640	 5.7360
 3.8670	 5.7310
 3.8700	 5.7030
 3.8730	 5.7150
 3.8760	 5.7170
 3.8780	 5.7300
 3.8810	 5.7330
 3.8840	 5.7660
 3.8870	 5.7590
 3.8900	 5.7370
 3.8930	 5.7250
 3.8960	 5.7390
 3.8990	 5.7550
 3.9020	 5.7620
 3.9050	 5.7600
 3.9080	 5.7750
 3.9110	 5.7420
 3.9140	 5.7130
 3.9170	 5.7180
 3.9190	 5.7180
 3.9220	 5.7160
 3.9250	 5.7290
 3.9280	 5.7350
 3.9310	 5.7570
 3.9340	 5.7550
 3.9370	 5.7570
 3.9400	 5.7500
 3.9430	 5.7280
 3.9460	 5.7170
 3.9490	 5.7710
 3.9520	 5.7790
 3.9550	 5.7320
 3.9580	 5.7390
 3.9610	 5.7930
 3.9640	 5.7830
 3.9670	 5.7680
 3.9700	 5.7870
 3.9740	 5.7770
 3.9770	 5.7490
 3.9800	 5.7900
 3.9830	 5.7880
 3.9860	 5.7690
 3.9890	 5.7920
 3.9920	 5.7820
 3.9950	 5.7800
 3.9980	 5.8090
 4.0010	 5.8240
 4.0040	 5.8050
 4.0070	 5.7690
 4.0100	 5.7540
 4.0140	 5.7620
 4.0170	 5.7730
 4.0200	 5.7410
 4.0230	 5.7540
 4.0260	 5.7960
 4.0290	 5.8060
 4.0320	 5.7970
 4.0350	 5.7790
 4.0390	 5.7580
 4.0420	 5.7730
 4.0450	 5.8010
 4.0480	 5.8220
 4.0510	 5.8000
 4.0540	 5.7890
 4.0570	 5.7780
 4.0610	 5.7810
 4.0640	 5.7840
 4.0670	 5.8140
 4.0700	 5.7950
 4.0730	 5.7550
 4.0770	 5.7750
 4.0800	 5.7990
 4.0830	 5.7730
 4.0860	 5.7820
 4.0890	 5.7850
 4.0930	 5.7810
 4.0960	 5.7880
 4.0990	 5.7860
 4.1020	 5.7980
 4.1060	 5.8150
 4.1090	 5.8020
 4.1120	 5.7590
 4.1150	 5.7470
 4.1190	 5.7800
 4.1220	 5.7650
 4.1250	 5.7690
 4.1290	 5.7710
 4.1320	 5.7610
 4.1350	 5.7610
 4.1380	 5.7560
 4.1420	 5.7370
 4.1450	 5.7540
 4.1480	 5.7690
 4.1520	 5.7560
 4.1550	 5.7400
 4.1580	 5.7550
 4.1620	 5.7800
 4.1650	 5.7760
 4.1680	 5.7630
 4.1720	 5.7490
 4.1750	 5.7280
 4.1780	 5.7470
 4.1820	 5.7570
 4.1850	 5.7410
 4.1890	 5.7360
 4.1920	 5.7720
 4.1950	 5.8580
 4.1990	 5.9000
 4.2020	 5.8750
 4.2060	 5.9110
 4.2090	 5.9660
 4.2120	 6.0070
 4.2160	 6.0170
 4.2190	 6.0340
 4.2230	 6.1650
 4.2260	 6.2140
 4.2300	 6.1420
 4.2330	 6.1400
 4.2360	 6.2350
 4.2400	 6.3250
 4.2430	 6.2480
 4.2470	 6.0970
 4.2500	 5.9550
 4.2540	 5.8980
 4.2570	 5.9020
 4.2610	 6.0110
 4.2640	 6.1470
 4.2680	 6.1670
 4.2710	 6.1320
 4.2750	 6.0790
 4.2780	 6.0480
 4.2820	 5.9950
 4.2850	 5.9820
 4.2890	 6.0160
 4.2930	 6.0010
 4.2960	 5.9540
 4.3000	 5.9230
 4.3030	 5.9440
 4.3070	 5.9540
 4.3100	 5.8760
 4.3140	 5.8380
 4.3180	 5.8380
 4.3210	 5.8580
 4.3250	 5.8760
 4.3280	 5.8310
 4.3320	 5.7580
 4.3360	 5.7210
 4.3390	 5.7360
 4.3430	 5.7500
 4.3470	 5.7040
 4.3500	 5.6660
 4.3540	 5.6680
 4.3580	 5.6610
 4.3610	 5.6360
 4.3650	 5.6350
 4.3690	 5.6390
 4.3720	 5.6090
 4.3760	 5.5920
 4.3800	 5.5940
 4.3830	 5.5700
 4.3870	 5.5580
 4.3910	 5.5850
 4.3940	 5.6080
 4.3980	 5.5880
 4.4020	 5.5860
 4.4060	 5.5990
 4.4090	 5.5970
 4.4130	 5.5660
 4.4170	 5.5660
 4.4210	 5.5540
 4.4240	 5.5700
 4.4280	 5.5770
 4.4320	 5.5750
 4.4360	 5.5990
 4.4400	 5.5720
 4.4430	 5.5260
 4.4470	 5.5160
 4.4510	 5.5160
 4.4550	 5.4920
 4.4590	 5.5130
 4.4630	 5.5540
 4.4660	 5.5550
 4.4700	 5.5280
 4.4740	 5.5350
 4.4780	 5.5440
 4.4820	 5.5370
 4.4860	 5.5040
 4.4900	 5.4900
 4.4930	 5.4950
 4.4970	 5.5010
 4.5010	 5.5180
 4.5050	 5.5310
 4.5090	 5.5400
 4.5130	 5.5230
 4.5170	 5.5220
 4.5210	 5.5100
 4.5250	 5.4960
 4.5290	 5.4850
 4.5330	 5.4670
 4.5370	 5.4900
 4.5410	 5.5110
 4.5450	 5.4940
 4.5490	 5.5080
 4.5530	 5.5220
 4.5570	 5.5220
 4.5610	 5.5120
 4.5650	 5.4810
 4.5690	 5.4710
 4.5730	 5.4620
 4.5770	 5.4430
 4.5810	 5.4720
 4.5850	 5.4960
 4.5890	 5.5180
 4.5930	 5.5130
 4.5970	 5.5040
 4.6010	 5.5160
 4.6050	 5.5010
 4.6090	 5.4630
 4.6130	 5.4470
 4.6170	 5.4580
 4.6220	 5.4610
 4.6260	 5.4440
 4.6300	 5.4440
 4.6340	 5.4580
 4.6380	 5.4780
 4.6420	 5.4790
 4.6460	 5.4780
 4.6510	 5.4430
 4.6550	 5.4350
 4.6590	 5.4700
 4.6630	 5.4850
 4.6670	 5.4690
 4.6720	 5.4540
 4.6760	 5.4330
 4.6800	 5.4280
 4.6840	 5.4320
 4.6880	 5.4550
 4.6930	 5.4460
 4.6970	 5.4480
 4.7010	 5.4290
 4.7050	 5.3980
 4.7100	 5.3710
 4.7140	 5.4110
 4.7180	 5.4750
 4.7230	 5.4780
 4.7270	 5.4250
 4.7310	 5.4140
 4.7360	 5.4160
 4.7400	 5.4110
 4.7440	 5.3790
 4.7490	 5.3860
 4.7530	 5.3800
 4.7570	 5.3970
 4.7620	 5.3900
 4.7660	 5.3900
 4.7700	 5.4250
 4.7750	 5.4480
 4.7790	 5.4060
 4.7840	 5.4160
 4.7880	 5.4260
 4.7920	 5.4160
 4.7970	 5.3870
 4.8010	 5.3900
 4.8060	 5.3970
 4.8100	 5.4110
 4.8150	 5.4000
 4.8190	 5.4000
 4.8240	 5.4090
 4.8280	 5.4200
 4.8330	 5.3770
 4.8370	 5.4000
 4.8420	 5.4130
 4.8460	 5.3960
 4.8510	 5.3900
 4.8550	 5.4360
 4.8600	 5.4070
 4.8640	 5.3990
 4.8690	 5.4180
 4.8740	 5.4090
 4.8780	 5.3580
 4.8830	 5.3500
 4.8870	 5.3890
 4.8920	 5.4010
 4.8970	 5.3500
 4.9010	 5.3650
 4.9060	 5.3990
 4.9100	 5.3990
 4.9150	 5.3840
 4.9200	 5.4140
 4.9240	 5.3830
 4.9290	 5.3560
 4.9340	 5.3310
 4.9390	 5.3390
 4.9430	 5.3210
 4.9480	 5.3400
 4.9530	 5.3880
 4.9570	 5.4000
 4.9620	 5.3830
 4.9670	 5.4010
 4.9720	 5.3790
 4.9760	 5.3930
 4.9810	 5.3780
 4.9860	 5.3860
 4.9910	 5.3570
 4.9960	 5.3710
 5.0000	 5.3770
 5.0050	 5.3680
 5.0100	 5.3450
 5.0150	 5.3500
 5.0200	 5.3400
 5.0250	 5.3290
 5.0300	 5.3120
 5.0340	 5.3830
 5.0390	 5.3940
 5.0440	 5.3500
 5.0490	 5.3440
 5.0540	 5.3850
 5.0590	 5.3850
 5.0640	 5.4090
 5.0690	 5.3820
 5.0740	 5.3710
 5.0790	 5.3500
 5.0840	 5.3560
 5.0890	 5.3670
 5.0940	 5.3890
 5.0990	 5.3800
 5.1040	 5.3930
 5.1090	 5.4150
 5.1140	 5.4130
 5.1190	 5.3490
 5.1240	 5.3660
 5.1290	 5.3880
 5.1340	 5.3930
 5.1390	 5.3870
 5.1440	 5.3490
 5.1490	 5.3130
 5.1550	 5.3440
 5.1600	 5.3710
 5.1650	 5.3800
 5.1700	 5.3650
 5.1750	 5.3860
 5.1800	 5.3660
 5.1850	 5.3960
 5.1910	 5.3960
 5.1960	 5.3670
 5.2010	 5.3460
 5.2060	 5.3860
 5.2110	 5.3590
 5.2170	 5.3210
 5.2220	 5.3520
 5.2270	 5.3950
 5.2330	 5.3850
 5.2380	 5.3670
 5.2430	 5.3590
 5.2480	 5.3700
 5.2540	 5.3460
 5.2590	 5.3590
 5.2640	 5.3820
 5.2700	 5.4150
 5.2750	 5.3830
 5.2800	 5.3750
 5.2860	 5.3600
 5.2910	 5.3270
 5.2970	 5.3240
 5.3020	 5.3800
 5.3080	 5.3750
 5.3130	 5.3610
 5.3180	 5.3100
 5.3240	 5.3210
 5.3290	 5.3160
 5.3350	 5.3120
 5.3400	 5.2970
 5.3460	 5.2840
 5.3510	 5.2270
 5.3570	 5.2370
 5.3620	 5.2690
 5.3680	 5.3310
 5.3740	 5.3200
 5.3790	 5.3500
 5.3850	 5.3380
 5.3900	 5.3150
 5.3960	 5.2860
 5.4010	 5.3110
 5.4070	 5.2630
 5.4130	 5.2660
 5.4180	 5.2200
 5.4240	 5.1620
 5.4300	 5.2350
 5.4350	 5.2840
 5.4410	 5.2380
 5.4470	 5.2290
 5.4530	 5.2380
 5.4580	 5.2340
 5.4640	 5.1720
 5.4700	 5.1900
 5.4760	 5.1760
 5.4810	 5.1790
 5.4870	 5.2290
 5.4930	 5.2320
 5.4990	 5.2120
 5.5050	 5.2250
 5.5110	 5.1840
 5.5160	 5.1750
 5.5220	 5.1310
 5.5280	 5.1040
 5.5340	 5.0930
 5.5400	 5.1070
 5.5460	 5.0790
 5.5520	 5.0660
 5.5580	 5.0570
 5.5640	 5.0780
 5.5700	 5.0720
 5.5760	 5.0160
 5.5820	 4.9200
 5.5880	 5.0030
 5.5940	 5.0440
 5.6000	 5.0150
 5.6060	 4.9440
 5.6120	 4.9600
 5.6180	 4.9590
 5.6240	 4.9720
 5.6300	 4.9290
 5.6360	 4.8670
 5.6420	 4.7170
 5.6490	 4.7910
 5.6550	 4.8290
 5.6610	 4.8690
 5.6670	 4.8880
 5.6730	 4.8440
 5.6800	 4.8030
 5.6860	 4.8130
 5.6920	 4.7330
 5.6980	 4.7470
 5.7050	 4.7340
 5.7110	 4.6310
 5.7170	 4.6100
 5.7230	 4.6480
 5.7300	 4.6040
 5.7360	 4.5680
 5.7420	 4.5080
 5.7490	 4.4880
 5.7550	 4.4860
 5.7620	 4.3720
 5.7680	 4.2220
 5.7740	 4.4240
 5.7810	 4.5820
 5.7870	 4.6200
 5.7940	 4.6200
 5.8000	 4.6580
 5.8070	 4.6850
 5.8130	 4.7050
 5.8200	 4.5130
 5.8260	 4.4990
 5.8330	 4.6380
 5.8390	 4.7670
 5.8460	 4.8140
 5.8530	 4.8260
 5.8590	 4.7780
 5.8660	 4.7510
 5.8730	 4.7200
 5.8790	 4.5410
 5.8860	 4.5370
 5.8930	 4.6860
 5.8990	 4.6160
 5.9060	 4.7890
 5.9130	 4.8660
 5.9190	 4.8800
 5.9260	 4.8270
 5.9330	 4.7030
 5.9400	 4.5720
 5.9470	 4.7580
 5.9530	 4.8160
 5.9600	 4.8680
 5.9670	 4.7630
 5.9740	 4.7390
 5.9810	 4.7540
 5.9880	 4.7220
 5.9950	 4.7170
 6.0020	 4.8510
 6.0090	 4.8220
 6.0160	 4.7580
 6.0230	 4.8100
 6.0300	 4.9510
 6.0370	 4.8770
 6.0440	 4.5900
 6.0510	 4.3540
 6.0580	 4.6600
 6.0650	 4.7830
 6.0720	 4.6830
 6.0790	 4.6750
 6.0860	 4.8430
 6.0930	 4.8830
 6.1010	 4.9040
 6.1080	 4.7470
 6.1150	 4.6330
 6.1220	 4.7360
 6.1290	 4.8830
 6.1370	 4.8250
 6.1440	 4.8140
 6.1510	 4.8340
 6.1580	 4.8670
 6.1660	 4.8560
 6.1730	 4.9150
 6.1800	 4.7830
 6.1880	 4.6910
 6.1950	 4.7720
 6.2030	 4.8720
 6.2100	 4.8620
 6.2180	 4.9320
 6.2250	 4.9160
 6.2320	 4.9020
 6.2400	 4.8740
 6.2480	 4.9320
 6.2550	 4.9530
 6.2630	 4.9520
 6.2700	 4.9030
 6.2780	 4.9640
 6.2850	 4.9500
 6.2930	 4.9800
 6.3010	 4.9590
 6.3080	 4.9730
 6.3160	 4.9500
 6.3240	 4.9740
 6.3310	 4.9540
 6.3390	 4.8470
 6.3470	 4.7320
 6.3550	 4.9410
 6.3620	 4.9410
 6.3700	 4.8220
 6.3780	 4.8560
 6.3860	 4.9650
 6.3940	 4.9680
 6.4020	 4.9060
 6.4100	 4.5330
 6.4180	 4.4390
 6.4260	 4.6610
 6.4340	 4.7970
 6.4420	 4.8930
 6.4500	 4.9540
 6.4580	 4.8860
 6.4660	 4.8750
 6.4740	 4.7270
 6.4820	 4.6380
 6.4900	 4.4810
 6.4980	 4.5500
 6.5060	 4.7590
 6.5140	 4.8430
 6.5230	 4.7280
 6.5310	 4.8050
 6.5390	 4.8020
 6.5470	 4.7670
 6.5560	 4.7300
 6.5640	 4.7370
 6.5720	 4.5640
 6.5800	 4.6340
 6.5890	 4.6850
 6.5970	 4.7430
 6.6060	 4.7700
 6.6140	 4.7780
 6.6230	 4.7110
 6.6310	 4.5760
 6.6390	 4.4190
 6.6480	 4.6440
 6.6570	 4.7900
 6.6650	 4.7980
 6.6740	 4.7170
 6.6820	 4.6850
 6.6910	 4.7400
 6.7000	 4.8270
 6.7080	 4.6720
 6.7170	 4.6580
 6.7260	 4.6870
 6.7340	 4.7580
 6.7430	 4.7320
 6.7520	 4.7260
 6.7610	 4.7090
 6.7690	 4.6790
 6.7780	 4.5930
 6.7870	 4.6410
 6.7960	 4.6680
 6.8050	 4.7220
 6.8140	 4.6800
 6.8230	 4.7110
 6.8320	 4.7920
 6.8410	 4.9390
 6.8500	 4.8190
 6.8590	 4.6240
 6.8680	 4.5020
 6.8770	 4.7540
 6.8860	 4.7870
 6.8960	 4.7910
 6.9050	 4.7340
 6.9140	 4.8000
 6.9230	 4.7960
 6.9320	 4.8070
 6.9420	 4.7680
 6.9510	 4.7180
 6.9600	 4.5930
 6.9700	 4.7070
 6.9790	 4.7660
 6.9880	 4.8170
 6.9980	 4.7900
 7.0070	 4.8350
 7.0170	 4.7830
 7.0260	 4.8060
 7.0360	 4.7320
 7.0450	 4.6630
 7.0550	 4.6680
 7.0650	 4.7990
 7.0740	 4.8190
 7.0840	 4.8720
 7.0940	 4.8460
 7.1030	 4.8540
 7.1130	 4.7880
 7.1230	 4.8400
 7.1330	 4.8550
 7.1420	 4.8250
 7.1520	 4.7390
 7.1620	 4.7260
 7.1720	 4.6450
 7.1820	 4.7440
 7.1920	 4.7150
 7.2020	 4.7130
 7.2120	 4.6610
 7.2220	 4.7710
 7.2320	 4.7530
 7.2420	 4.7470
 7.2520	 4.6980
 7.2620	 4.7500
 7.2730	 4.7050
 7.2830	 4.7380
 7.2930	 4.7270
 7.3030	 4.7450
 7.3140	 4.6850
 7.3240	 4.7510
 7.3340	 4.6430
 7.3450	 4.6490
 7.3550	 4.6890
 7.3660	 4.7930
 7.3760	 4.7490
 7.3870	 4.7720
 7.3970	 4.7320
 7.4080	 4.7670
 7.4180	 4.7290
 7.4290	 4.7790
 7.4400	 4.7230
 7.4500	 4.7340
 7.4610	 4.6760
 7.4720	 4.6820
 7.4830	 4.6480
 7.4930	 4.7260
 7.5040	 4.7010
 7.5150	 4.7590
 7.5260	 4.7210
 7.5370	 4.7400
 7.5480	 4.6840
 7.5590	 4.7170
 7.5700	 4.6550
 7.5810	 4.6720
 7.5920	 4.6420
 7.6030	 4.6920
 7.6140	 4.6750
 7.6260	 4.7240
 7.6370	 4.7020
 7.6480	 4.7530
 7.6590	 4.6830
 7.6710	 4.6980
 7.6820	 4.6770
 7.6940	 4.7370
 7.7050	 4.7040
 7.7160	 4.6990
 7.7280	 4.6380
 7.7390	 4.6860
 7.7510	 4.6660
 7.7630	 4.6960
 7.7740	 4.6660
 7.7860	 4.6760
 7.7980	 4.6230
 7.8090	 4.6740
 7.8210	 4.6320
 7.8330	 4.6870
 7.8450	 4.6400
 7.8570	 4.6590
 7.8690	 4.6170
 7.8810	 4.6440
 7.8930	 4.6110
 7.9050	 4.7280
 7.9170	 4.6640
 7.9290	 4.6850
 7.9410	 4.6400
 7.9530	 4.6670
 7.9650	 4.6180
 7.9780	 4.6950
 7.9900	 4.6590
 8.0020	 4.6900
 8.0150	 4.6060
 8.0270	 4.6250
 8.0390	 4.6560
 8.0520	 4.6940
 8.0640	 4.5750
 8.0770	 4.6770
 8.0900	 4.6830
 8.1020	 4.7830
 8.1150	 4.7510
 8.1280	 4.8380
 8.1400	 4.8180
 8.1530	 4.8500
 8.1660	 4.7750
 8.1790	 4.7860
 8.1920	 4.7470
 8.2050	 4.8730
 8.2180	 4.8660
 8.2310	 4.9050
 8.2440	 4.7880
 8.2570	 4.8510
 8.2700	 4.7970
 8.2830	 4.8690
 8.2970	 4.7730
 8.3100	 4.8740
 8.3230	 4.9100
 8.3370	 4.9870
 8.3500	 4.9110
 8.3640	 4.9860
 8.3770	 4.8720
 8.3910	 4.9430
 8.4040	 4.8900
 8.4180	 4.9120
 8.4320	 4.8380
 8.4450	 4.9360
 8.4590	 4.9330
 8.4730	 5.0000
 8.4870	 4.9580
 8.5010	 5.0480
 8.5150	 4.9220
 8.5290	 4.9650
 8.5430	 4.9130
 8.5570	 4.9990
 8.5710	 4.9490
 8.5850	 5.0510
 8.5990	 5.0450
 8.6140	 5.1050
 8.6280	 5.0200
 8.6420	 5.0950
 8.6570	 5.0370
 8.6710	 5.1110
 8.6860	 5.0290
 8.7000	 5.2020
 8.7150	 5.1930
 8.7300	 5.2370
 8.7440	 5.1340
 8.7590	 5.2170
 8.7740	 5.2040
 8.7890	 5.3010
 8.8040	 5.2070
 8.8190	 5.2690
 8.8340	 5.1830
 8.8490	 5.2400
 8.8640	 5.1780
 8.8790	 5.2680
 8.8940	 5.2050
 8.9100	 5.2830
 8.9250	 5.1650
 8.9400	 5.2760
 8.9560	 5.2080
 8.9710	 5.2430
 8.9870	 5.1300
 9.0020	 5.1690
 9.0180	 5.0990
 9.0340	 5.2140
 9.0500	 5.1870
 9.0650	 5.3130
 9.0810	 5.2210
 9.0970	 5.3070
 9.1130	 5.2940
 9.1290	 5.3650
 9.1450	 5.2680
 9.1620	 5.3960
 9.1780	 5.3100
 9.1940	 5.3090
 9.2100	 5.1880
 9.2270	 5.2560
 9.2430	 5.2100
 9.2600	 5.3510
 9.2760	 5.2750
 9.2930	 5.3300
 9.3100	 5.2500
 9.3260	 5.3810
 9.3430	 5.3230
 9.3600	 5.3640
 9.3770	 5.2680
 9.3940	 5.3120
 9.4110	 5.1430
 9.4280	 5.2660
 9.4450	 5.2430
 9.4620	 5.2860
 9.4800	 5.2320
 9.4970	 5.3950
 9.5150	 5.3030
 9.5320	 5.3680
 9.5500	 5.2550
 9.5670	 5.3460
 9.5850	 5.2910
 9.6030	 5.3550
 9.6200	 5.2680
 9.6380	 5.3770
 9.6560	 5.2980
 9.6740	 5.3760
 9.6920	 5.2410
 9.7110	 5.2940
 9.7290	 5.2450
 9.7470	 5.3450
 9.7650	 5.2720
 9.7840	 5.3700
 9.8020	 5.2400
 9.8210	 5.2520
 9.8390	 5.1620
 9.8580	 5.2730
 9.8770	 5.2020
 9.8960	 5.3610
 9.9150	 5.3010
 9.9340	 5.3190
 9.9530	 5.2100
 9.9720	 5.2670
 9.9910	 5.1990
10.0100	 5.2870
10.0300	 5.1500
10.0490	 5.2130
10.0690	 5.1660
10.0880	 5.1790
10.1080	 5.0620
10.1280	 5.1690
10.1480	 5.1650
10.1670	 5.3170
10.1870	 5.2170
10.2070	 5.2170
10.2280	 5.0990
10.2480	 5.2170
10.2680	 5.1780
10.2890	 5.2820
10.3090	 5.2020
10.3300	 5.2900
10.3500	 5.1390
10.3710	 5.1700
10.3920	 5.1300
10.4120	 5.2470
10.4330	 5.1500
10.4540	 5.2620
10.4760	 5.2150
10.4970	 5.2950
10.5180	 5.2200
10.5390	 5.2800
10.5610	 5.1530
10.5820	 5.2570
10.6040	 5.2010
10.6260	 5.2670
10.6480	 5.1630
10.6700	 5.2260
10.6920	 5.1290
10.7140	 5.1980
10.7360	 5.1050
10.7580	 5.2450
10.7800	 5.1210
10.8030	 5.1550
10.8250	 5.1390
10.8480	 5.2890
10.8710	 5.1270
10.8940	 5.2330
10.9170	 5.1990
10.9400	 5.2920
10.9630	 5.1360
10.9860	 5.1600
11.0090	 5.0550
11.0330	 5.1690
11.0560	 5.0480
11.0800	 5.1740
11.1040	 5.1420
11.1270	 5.2510
11.1510	 5.1060
11.1750	 5.2000
11.2000	 5.1490
11.2240	 5.2660
11.2480	 5.1680
11.2730	 5.2430
11.2970	 5.1870
11.3220	 5.2950
11.3470	 5.1890
11.3720	 5.2810
11.3970	 5.1530
11.4220	 5.3090
11.4470	 5.2630
11.4720	 5.3920
11.4980	 5.2090
11.5230	 5.2500
11.5490	 5.1420
11.5750	 5.3040
11.6000	 5.1720
11.6260	 5.2120
11.6530	 5.0980
11.6790	 5.2150
11.7050	 5.1380
11.7320	 5.2400
11.7580	 5.0170
11.7850	 5.1750
11.8120	 5.1280
11.8390	 5.1820
11.8660	 5.0840
11.8930	 5.1870
11.9200	 4.9940
11.9480	 5.1890
11.9760	 5.0820
12.0030	 5.1840
12.0310	 5.1510
12.0590	 5.2610
12.0870	 5.0700
12.1150	 5.2010
12.1440	 5.0580
12.1720	 5.1140
12.2010	 4.9560
12.2300	 5.1650
12.2590	 5.0970
12.2880	 5.2400
12.3170	 5.1330
12.3460	 5.2350
12.3760	 5.0250
12.4050	 5.1060
12.4350	 5.0030
12.4650	 5.2400
12.4950	 5.0390
12.5250	 5.1000
12.5550	 4.9770
12.5860	 5.1240
12.6170	 5.0130
12.6470	 5.1330
12.6780	 4.9600
12.7090	 5.1230
12.7410	 5.0300
12.7720	 5.1230
12.8030	 4.9500
12.8350	 5.1590
12.8670	 4.9820
12.8990	 5.0460
12.9310	 4.9760
12.9640	 5.1910
12.9960	 5.0380
13.0290	 5.1400
13.0610	 4.9430
13.0940	 5.0170
13.1280	 4.7770
13.1610	 4.9470
13.1940	 4.8290
13.2280	 4.8840
13.2620	 4.7670
13.2960	 5.0310
13.3300	 4.8520
13.3640	 5.0040
13.3990	 4.8290
13.4340	 4.9560
13.4690	 4.7330
13.5040	 4.9340
13.5390	 4.8400
13.5740	 5.0370
13.6100	 4.7310
13.6460	 4.9450
13.6820	 4.9270
13.7180	 5.0310
13.7540	 4.7400
13.7910	 4.8580
13.8280	 4.6520
13.8650	 4.9650
13.9020	 4.8930
13.9390	 5.0510
13.9770	 4.8330
14.0150	 4.9970
14.0530	 4.8050
14.0910	 4.9930
14.1290	 4.8310
14.1680	 5.0100
14.2070	 4.7040
14.2460	 4.9320
14.2850	 4.6650
14.3240	 4.8860
14.3640	 4.7110
14.4040	 5.0330
14.4440	 4.8410
14.4840	 5.1160
14.5250	 4.8040
14.5660	 4.8930
14.6070	 4.5790
14.6480	 4.8840
14.6900	 4.7160
14.7310	 4.9690
14.7730	 4.6190
14.8150	 4.9880
14.8580	 4.8310
14.9010	 5.1630
14.9440	 4.8220
14.9870	 5.0260
15.0300	 4.5500
15.0740	 4.9580
15.1180	 4.6820
15.1620	 5.0460
15.2060	 4.6270
15.2510	 4.9680
15.2960	 4.6800
15.3410	 5.1290
15.3870	 4.6790
