Name: Lagerstroemia indica
Type: vegetation
Class: Tree
Genus: Lagerstroemia
Species: indica
Sample No.: JPL219
Owner: JPL
Wavelength Range: VSWIR
Origin: 34.1242; -118.1134; WGS84
Collection Date: 10/3/2016
Description: Samples were collected at the Huntington Garden in San Marino California as part of a JPL Subcontract studying HyTES imagery. Samples were taken to JPL and processed within 48 hours of collection. The same leaves were processed in the Nicolet and then measured using the ASD.
Measurement: Bidirectional reflectance
First Column: X
Second Column: Y
X Units: Wavelength (micrometer)
Y Units: Reflectance (percentage)
First X Value: 0.35
Last X Value: 2.5
Number of X Values: 2151
Additional Information: vegetation.tree.lagerstroemia.indica.vswir.jpl219.jpl.asd.ancillary.txt

 0.3500	 4.3600
 0.3510	 4.4210
 0.3520	 4.4370
 0.3530	 4.4360
 0.3540	 4.4490
 0.3550	 4.2970
 0.3560	 4.2800
 0.3570	 4.3550
 0.3580	 4.3260
 0.3590	 4.3180
 0.3600	 4.2860
 0.3610	 4.2290
 0.3620	 4.2410
 0.3630	 4.1990
 0.3640	 4.1970
 0.3650	 4.2950
 0.3660	 4.2360
 0.3670	 4.1800
 0.3680	 4.1880
 0.3690	 4.2310
 0.3700	 4.1830
 0.3710	 4.1230
 0.3720	 4.1260
 0.3730	 4.2130
 0.3740	 4.2100
 0.3750	 4.1770
 0.3760	 4.2090
 0.3770	 4.2170
 0.3780	 4.1700
 0.3790	 4.1040
 0.3800	 4.1010
 0.3810	 4.0620
 0.3820	 4.0420
 0.3830	 4.0750
 0.3840	 4.1070
 0.3850	 4.1010
 0.3860	 4.0750
 0.3870	 4.0650
 0.3880	 4.0630
 0.3890	 4.0780
 0.3900	 4.0960
 0.3910	 4.0830
 0.3920	 4.0850
 0.3930	 4.0780
 0.3940	 4.0480
 0.3950	 4.0450
 0.3960	 4.0740
 0.3970	 4.1050
 0.3980	 4.1000
 0.3990	 4.0760
 0.4000	 4.0500
 0.4010	 4.0390
 0.4020	 4.0690
 0.4030	 4.0690
 0.4040	 4.0650
 0.4050	 4.0860
 0.4060	 4.0910
 0.4070	 4.0920
 0.4080	 4.0900
 0.4090	 4.0810
 0.4100	 4.0880
 0.4110	 4.1200
 0.4120	 4.1580
 0.4130	 4.1400
 0.4140	 4.1440
 0.4150	 4.1640
 0.4160	 4.1740
 0.4170	 4.2040
 0.4180	 4.2170
 0.4190	 4.2130
 0.4200	 4.2310
 0.4210	 4.2510
 0.4220	 4.2710
 0.4230	 4.2900
 0.4240	 4.3080
 0.4250	 4.3260
 0.4260	 4.3450
 0.4270	 4.3710
 0.4280	 4.3960
 0.4290	 4.4130
 0.4300	 4.4210
 0.4310	 4.4290
 0.4320	 4.4390
 0.4330	 4.4520
 0.4340	 4.4640
 0.4350	 4.4750
 0.4360	 4.4970
 0.4370	 4.5240
 0.4380	 4.5380
 0.4390	 4.5490
 0.4400	 4.5650
 0.4410	 4.5930
 0.4420	 4.6210
 0.4430	 4.6470
 0.4440	 4.6710
 0.4450	 4.6970
 0.4460	 4.7250
 0.4470	 4.7550
 0.4480	 4.7850
 0.4490	 4.8160
 0.4500	 4.8410
 0.4510	 4.8710
 0.4520	 4.9120
 0.4530	 4.9450
 0.4540	 4.9760
 0.4550	 5.0030
 0.4560	 5.0230
 0.4570	 5.0510
 0.4580	 5.0740
 0.4590	 5.0880
 0.4600	 5.1160
 0.4610	 5.1400
 0.4620	 5.1550
 0.4630	 5.1620
 0.4640	 5.1720
 0.4650	 5.1760
 0.4660	 5.1780
 0.4670	 5.1900
 0.4680	 5.2050
 0.4690	 5.2130
 0.4700	 5.2120
 0.4710	 5.2240
 0.4720	 5.2320
 0.4730	 5.2380
 0.4740	 5.2480
 0.4750	 5.2600
 0.4760	 5.2670
 0.4770	 5.2710
 0.4780	 5.2870
 0.4790	 5.3020
 0.4800	 5.3180
 0.4810	 5.3370
 0.4820	 5.3460
 0.4830	 5.3650
 0.4840	 5.3950
 0.4850	 5.4160
 0.4860	 5.4370
 0.4870	 5.4680
 0.4880	 5.5130
 0.4890	 5.5580
 0.4900	 5.6080
 0.4910	 5.6620
 0.4920	 5.7150
 0.4930	 5.7850
 0.4940	 5.8590
 0.4950	 5.9310
 0.4960	 6.0160
 0.4970	 6.1130
 0.4980	 6.2180
 0.4990	 6.3280
 0.5000	 6.4500
 0.5010	 6.5780
 0.5020	 6.7130
 0.5030	 6.8640
 0.5040	 7.0360
 0.5050	 7.2160
 0.5060	 7.3990
 0.5070	 7.6040
 0.5080	 7.8220
 0.5090	 8.0500
 0.5100	 8.2870
 0.5110	 8.5430
 0.5120	 8.8140
 0.5130	 9.0960
 0.5140	 9.3880
 0.5150	 9.6920
 0.5160	10.0040
 0.5170	10.3200
 0.5180	10.6550
 0.5190	10.9900
 0.5200	11.3220
 0.5210	11.6590
 0.5220	11.9890
 0.5230	12.3140
 0.5240	12.6310
 0.5250	12.9360
 0.5260	13.2300
 0.5270	13.5100
 0.5280	13.7700
 0.5290	14.0160
 0.5300	14.2460
 0.5310	14.4600
 0.5320	14.6570
 0.5330	14.8380
 0.5340	15.0050
 0.5350	15.1600
 0.5360	15.3030
 0.5370	15.4340
 0.5380	15.5540
 0.5390	15.6690
 0.5400	15.7830
 0.5410	15.8960
 0.5420	16.0070
 0.5430	16.1070
 0.5440	16.1930
 0.5450	16.2680
 0.5460	16.3340
 0.5470	16.3880
 0.5480	16.4380
 0.5490	16.4900
 0.5500	16.5400
 0.5510	16.5790
 0.5520	16.6050
 0.5530	16.6190
 0.5540	16.6210
 0.5550	16.6090
 0.5560	16.5820
 0.5570	16.5390
 0.5580	16.4820
 0.5590	16.4170
 0.5600	16.3440
 0.5610	16.2610
 0.5620	16.1690
 0.5630	16.0680
 0.5640	15.9580
 0.5650	15.8430
 0.5660	15.7210
 0.5670	15.5890
 0.5680	15.4510
 0.5690	15.3010
 0.5700	15.1450
 0.5710	14.9870
 0.5720	14.8320
 0.5730	14.6830
 0.5740	14.5420
 0.5750	14.4070
 0.5760	14.2800
 0.5770	14.1580
 0.5780	14.0430
 0.5790	13.9400
 0.5800	13.8400
 0.5810	13.7420
 0.5820	13.6480
 0.5830	13.5640
 0.5840	13.4870
 0.5850	13.4160
 0.5860	13.3460
 0.5870	13.2800
 0.5880	13.2190
 0.5890	13.1620
 0.5900	13.1110
 0.5910	13.0680
 0.5920	13.0340
 0.5930	13.0080
 0.5940	12.9840
 0.5950	12.9650
 0.5960	12.9500
 0.5970	12.9340
 0.5980	12.9160
 0.5990	12.8950
 0.6000	12.8690
 0.6010	12.8330
 0.6020	12.7900
 0.6030	12.7390
 0.6040	12.6770
 0.6050	12.6120
 0.6060	12.5390
 0.6070	12.4530
 0.6080	12.3590
 0.6090	12.2630
 0.6100	12.1690
 0.6110	12.0820
 0.6120	11.9720
 0.6130	11.8470
 0.6140	11.7180
 0.6150	11.6010
 0.6160	11.4920
 0.6170	11.3890
 0.6180	11.2910
 0.6190	11.2080
 0.6200	11.1360
 0.6210	11.0720
 0.6220	11.0120
 0.6230	10.9630
 0.6240	10.9260
 0.6250	10.8990
 0.6260	10.8770
 0.6270	10.8620
 0.6280	10.8560
 0.6290	10.8550
 0.6300	10.8560
 0.6310	10.8510
 0.6320	10.8390
 0.6330	10.8220
 0.6340	10.7930
 0.6350	10.7480
 0.6360	10.6880
 0.6370	10.6080
 0.6380	10.5120
 0.6390	10.4000
 0.6400	10.2750
 0.6410	10.1390
 0.6420	 9.9940
 0.6430	 9.8410
 0.6440	 9.6830
 0.6450	 9.5260
 0.6460	 9.3710
 0.6470	 9.2200
 0.6480	 9.0790
 0.6490	 8.9550
 0.6500	 8.8480
 0.6510	 8.7520
 0.6520	 8.6670
 0.6530	 8.5840
 0.6540	 8.4960
 0.6550	 8.4050
 0.6560	 8.3030
 0.6570	 8.1850
 0.6580	 8.0530
 0.6590	 7.9070
 0.6600	 7.7500
 0.6610	 7.5850
 0.6620	 7.4230
 0.6630	 7.2650
 0.6640	 7.1140
 0.6650	 6.9750
 0.6660	 6.8530
 0.6670	 6.7460
 0.6680	 6.6530
 0.6690	 6.5780
 0.6700	 6.5210
 0.6710	 6.4810
 0.6720	 6.4580
 0.6730	 6.4470
 0.6740	 6.4490
 0.6750	 6.4620
 0.6760	 6.4860
 0.6770	 6.5210
 0.6780	 6.5720
 0.6790	 6.6380
 0.6800	 6.7180
 0.6810	 6.8220
 0.6820	 6.9530
 0.6830	 7.1130
 0.6840	 7.3110
 0.6850	 7.5530
 0.6860	 7.8490
 0.6870	 8.2120
 0.6880	 8.6430
 0.6890	 9.1530
 0.6900	 9.7460
 0.6910	10.4220
 0.6920	11.1880
 0.6930	12.0310
 0.6940	12.9410
 0.6950	13.9170
 0.6960	14.9440
 0.6970	16.0120
 0.6980	17.1110
 0.6990	18.2230
 0.7000	19.3390
 0.7010	20.4450
 0.7020	21.5320
 0.7030	22.5940
 0.7040	23.6260
 0.7050	24.6250
 0.7060	25.5920
 0.7070	26.5290
 0.7080	27.4380
 0.7090	28.3180
 0.7100	29.1740
 0.7110	30.0110
 0.7120	30.8300
 0.7130	31.6300
 0.7140	32.4110
 0.7150	33.1760
 0.7160	33.9220
 0.7170	34.6500
 0.7180	35.3620
 0.7190	36.0560
 0.7200	36.7250
 0.7210	37.3750
 0.7220	38.0040
 0.7230	38.6090
 0.7240	39.1890
 0.7250	39.7460
 0.7260	40.2770
 0.7270	40.7840
 0.7280	41.2690
 0.7290	41.7260
 0.7300	42.1570
 0.7310	42.5670
 0.7320	42.9540
 0.7330	43.3180
 0.7340	43.6600
 0.7350	43.9780
 0.7360	44.2750
 0.7370	44.5540
 0.7380	44.8160
 0.7390	45.0630
 0.7400	45.2910
 0.7410	45.5010
 0.7420	45.6980
 0.7430	45.8790
 0.7440	46.0440
 0.7450	46.1940
 0.7460	46.3300
 0.7470	46.4530
 0.7480	46.5650
 0.7490	46.6660
 0.7500	46.7610
 0.7510	46.8490
 0.7520	46.9300
 0.7530	47.0000
 0.7540	47.0660
 0.7550	47.1270
 0.7560	47.1840
 0.7570	47.2370
 0.7580	47.2860
 0.7590	47.3300
 0.7600	47.3700
 0.7610	47.4130
 0.7620	47.4500
 0.7630	47.4830
 0.7640	47.5150
 0.7650	47.5430
 0.7660	47.5700
 0.7670	47.5960
 0.7680	47.6170
 0.7690	47.6430
 0.7700	47.6680
 0.7710	47.6900
 0.7720	47.7120
 0.7730	47.7340
 0.7740	47.7540
 0.7750	47.7720
 0.7760	47.7940
 0.7770	47.8140
 0.7780	47.8330
 0.7790	47.8540
 0.7800	47.8740
 0.7810	47.8960
 0.7820	47.9170
 0.7830	47.9390
 0.7840	47.9550
 0.7850	47.9720
 0.7860	47.9930
 0.7870	48.0110
 0.7880	48.0280
 0.7890	48.0440
 0.7900	48.0590
 0.7910	48.0740
 0.7920	48.0890
 0.7930	48.1020
 0.7940	48.1150
 0.7950	48.1300
 0.7960	48.1420
 0.7970	48.1520
 0.7980	48.1590
 0.7990	48.1670
 0.8000	48.1760
 0.8010	48.1820
 0.8020	48.1870
 0.8030	48.1940
 0.8040	48.2010
 0.8050	48.2050
 0.8060	48.2120
 0.8070	48.2140
 0.8080	48.2120
 0.8090	48.2120
 0.8100	48.2170
 0.8110	48.2200
 0.8120	48.2190
 0.8130	48.2210
 0.8140	48.2190
 0.8150	48.2160
 0.8160	48.2150
 0.8170	48.2140
 0.8180	48.2130
 0.8190	48.2110
 0.8200	48.2090
 0.8210	48.2020
 0.8220	48.1960
 0.8230	48.1940
 0.8240	48.1910
 0.8250	48.1860
 0.8260	48.1840
 0.8270	48.1830
 0.8280	48.1760
 0.8290	48.1690
 0.8300	48.1620
 0.8310	48.1550
 0.8320	48.1460
 0.8330	48.1410
 0.8340	48.1400
 0.8350	48.1410
 0.8360	48.1390
 0.8370	48.1370
 0.8380	48.1370
 0.8390	48.1400
 0.8400	48.1400
 0.8410	48.1420
 0.8420	48.1470
 0.8430	48.1520
 0.8440	48.1530
 0.8450	48.1540
 0.8460	48.1600
 0.8470	48.1680
 0.8480	48.1710
 0.8490	48.1730
 0.8500	48.1780
 0.8510	48.1850
 0.8520	48.1930
 0.8530	48.2030
 0.8540	48.2130
 0.8550	48.2180
 0.8560	48.2270
 0.8570	48.2390
 0.8580	48.2430
 0.8590	48.2520
 0.8600	48.2610
 0.8610	48.2690
 0.8620	48.2780
 0.8630	48.2900
 0.8640	48.3000
 0.8650	48.3080
 0.8660	48.3180
 0.8670	48.3290
 0.8680	48.3400
 0.8690	48.3540
 0.8700	48.3670
 0.8710	48.3800
 0.8720	48.3920
 0.8730	48.4030
 0.8740	48.4180
 0.8750	48.4280
 0.8760	48.4360
 0.8770	48.4500
 0.8780	48.4670
 0.8790	48.4800
 0.8800	48.4880
 0.8810	48.5020
 0.8820	48.5100
 0.8830	48.5190
 0.8840	48.5330
 0.8850	48.5450
 0.8860	48.5540
 0.8870	48.5620
 0.8880	48.5730
 0.8890	48.5810
 0.8900	48.5920
 0.8910	48.6060
 0.8920	48.6170
 0.8930	48.6250
 0.8940	48.6350
 0.8950	48.6460
 0.8960	48.6570
 0.8970	48.6670
 0.8980	48.6790
 0.8990	48.6910
 0.9000	48.7000
 0.9010	48.7100
 0.9020	48.7170
 0.9030	48.7210
 0.9040	48.7370
 0.9050	48.7450
 0.9060	48.7500
 0.9070	48.7560
 0.9080	48.7610
 0.9090	48.7700
 0.9100	48.7760
 0.9110	48.7780
 0.9120	48.7800
 0.9130	48.7880
 0.9140	48.7970
 0.9150	48.7970
 0.9160	48.7940
 0.9170	48.8040
 0.9180	48.8120
 0.9190	48.8020
 0.9200	48.7940
 0.9210	48.7940
 0.9220	48.7950
 0.9230	48.7850
 0.9240	48.7690
 0.9250	48.7640
 0.9260	48.7630
 0.9270	48.7490
 0.9280	48.7290
 0.9290	48.7110
 0.9300	48.6930
 0.9310	48.6670
 0.9320	48.6440
 0.9330	48.6220
 0.9340	48.6010
 0.9350	48.5770
 0.9360	48.5460
 0.9370	48.5160
 0.9380	48.4900
 0.9390	48.4560
 0.9400	48.4230
 0.9410	48.3910
 0.9420	48.3570
 0.9430	48.3120
 0.9440	48.2670
 0.9450	48.2210
 0.9460	48.1730
 0.9470	48.1240
 0.9480	48.0610
 0.9490	47.9930
 0.9500	47.9270
 0.9510	47.8620
 0.9520	47.7950
 0.9530	47.7220
 0.9540	47.6410
 0.9550	47.5640
 0.9560	47.4890
 0.9570	47.4170
 0.9580	47.3510
 0.9590	47.2860
 0.9600	47.2240
 0.9610	47.1720
 0.9620	47.1360
 0.9630	47.0990
 0.9640	47.0620
 0.9650	47.0250
 0.9660	46.9900
 0.9670	46.9630
 0.9680	46.9450
 0.9690	46.9320
 0.9700	46.9190
 0.9710	46.8990
 0.9720	46.8800
 0.9730	46.8700
 0.9740	46.8680
 0.9750	46.8590
 0.9760	46.8550
 0.9770	46.8510
 0.9780	46.8420
 0.9790	46.8400
 0.9800	46.8400
 0.9810	46.8490
 0.9820	46.8720
 0.9830	46.8700
 0.9840	46.8650
 0.9850	46.8710
 0.9860	46.8910
 0.9870	46.9020
 0.9880	46.9150
 0.9890	46.9340
 0.9900	46.9570
 0.9910	46.9680
 0.9920	46.9850
 0.9930	47.0050
 0.9940	47.0190
 0.9950	47.0310
 0.9960	47.0560
 0.9970	47.0910
 0.9980	47.1240
 0.9990	47.1410
 1.0000	47.1600
 1.0010	48.5250
 1.0020	48.5480
 1.0030	48.5740
 1.0040	48.5990
 1.0050	48.6290
 1.0060	48.6570
 1.0070	48.6830
 1.0080	48.7110
 1.0090	48.7430
 1.0100	48.7720
 1.0110	48.7990
 1.0120	48.8240
 1.0130	48.8430
 1.0140	48.8680
 1.0150	48.8950
 1.0160	48.9210
 1.0170	48.9480
 1.0180	48.9750
 1.0190	48.9960
 1.0200	49.0190
 1.0210	49.0460
 1.0220	49.0770
 1.0230	49.1050
 1.0240	49.1350
 1.0250	49.1630
 1.0260	49.1890
 1.0270	49.2150
 1.0280	49.2410
 1.0290	49.2660
 1.0300	49.2880
 1.0310	49.3120
 1.0320	49.3410
 1.0330	49.3640
 1.0340	49.3840
 1.0350	49.4050
 1.0360	49.4230
 1.0370	49.4430
 1.0380	49.4640
 1.0390	49.4900
 1.0400	49.5110
 1.0410	49.5300
 1.0420	49.5480
 1.0430	49.5640
 1.0440	49.5810
 1.0450	49.5950
 1.0460	49.6110
 1.0470	49.6270
 1.0480	49.6430
 1.0490	49.6620
 1.0500	49.6780
 1.0510	49.6950
 1.0520	49.7100
 1.0530	49.7220
 1.0540	49.7310
 1.0550	49.7400
 1.0560	49.7470
 1.0570	49.7560
 1.0580	49.7650
 1.0590	49.7750
 1.0600	49.7890
 1.0610	49.7950
 1.0620	49.7990
 1.0630	49.8030
 1.0640	49.8010
 1.0650	49.8040
 1.0660	49.8130
 1.0670	49.8170
 1.0680	49.8200
 1.0690	49.8220
 1.0700	49.8240
 1.0710	49.8250
 1.0720	49.8230
 1.0730	49.8190
 1.0740	49.8160
 1.0750	49.8090
 1.0760	49.8040
 1.0770	49.8020
 1.0780	49.7980
 1.0790	49.7900
 1.0800	49.7840
 1.0810	49.7770
 1.0820	49.7720
 1.0830	49.7690
 1.0840	49.7630
 1.0850	49.7560
 1.0860	49.7490
 1.0870	49.7400
 1.0880	49.7300
 1.0890	49.7200
 1.0900	49.7090
 1.0910	49.6980
 1.0920	49.6860
 1.0930	49.6740
 1.0940	49.6630
 1.0950	49.6510
 1.0960	49.6380
 1.0970	49.6260
 1.0980	49.6140
 1.0990	49.6000
 1.1000	49.5830
 1.1010	49.5670
 1.1020	49.5480
 1.1030	49.5300
 1.1040	49.5150
 1.1050	49.4990
 1.1060	49.4840
 1.1070	49.4690
 1.1080	49.4530
 1.1090	49.4370
 1.1100	49.4200
 1.1110	49.4040
 1.1120	49.3860
 1.1130	49.3670
 1.1140	49.3470
 1.1150	49.3270
 1.1160	49.3040
 1.1170	49.2800
 1.1180	49.2520
 1.1190	49.2220
 1.1200	49.1880
 1.1210	49.1530
 1.1220	49.1130
 1.1230	49.0720
 1.1240	49.0280
 1.1250	48.9770
 1.1260	48.9220
 1.1270	48.8580
 1.1280	48.7880
 1.1290	48.7100
 1.1300	48.6260
 1.1310	48.5320
 1.1320	48.4290
 1.1330	48.3190
 1.1340	48.1990
 1.1350	48.0720
 1.1360	47.9380
 1.1370	47.7940
 1.1380	47.6420
 1.1390	47.4830
 1.1400	47.3140
 1.1410	47.1430
 1.1420	46.9690
 1.1430	46.7890
 1.1440	46.6130
 1.1450	46.4340
 1.1460	46.2600
 1.1470	46.0850
 1.1480	45.9190
 1.1490	45.7530
 1.1500	45.6000
 1.1510	45.4540
 1.1520	45.3180
 1.1530	45.1910
 1.1540	45.0740
 1.1550	44.9660
 1.1560	44.8670
 1.1570	44.7800
 1.1580	44.7010
 1.1590	44.6340
 1.1600	44.5730
 1.1610	44.5170
 1.1620	44.4700
 1.1630	44.4280
 1.1640	44.3880
 1.1650	44.3530
 1.1660	44.3240
 1.1670	44.2970
 1.1680	44.2730
 1.1690	44.2520
 1.1700	44.2350
 1.1710	44.2180
 1.1720	44.2030
 1.1730	44.1870
 1.1740	44.1730
 1.1750	44.1590
 1.1760	44.1460
 1.1770	44.1310
 1.1780	44.1170
 1.1790	44.1020
 1.1800	44.0850
 1.1810	44.0680
 1.1820	44.0520
 1.1830	44.0330
 1.1840	44.0170
 1.1850	44.0000
 1.1860	43.9810
 1.1870	43.9640
 1.1880	43.9490
 1.1890	43.9360
 1.1900	43.9250
 1.1910	43.9180
 1.1920	43.9100
 1.1930	43.9020
 1.1940	43.8950
 1.1950	43.8860
 1.1960	43.8820
 1.1970	43.8790
 1.1980	43.8780
 1.1990	43.8820
 1.2000	43.8860
 1.2010	43.8930
 1.2020	43.9020
 1.2030	43.9130
 1.2040	43.9260
 1.2050	43.9400
 1.2060	43.9550
 1.2070	43.9720
 1.2080	43.9920
 1.2090	44.0150
 1.2100	44.0400
 1.2110	44.0650
 1.2120	44.0910
 1.2130	44.1180
 1.2140	44.1440
 1.2150	44.1720
 1.2160	44.2010
 1.2170	44.2310
 1.2180	44.2590
 1.2190	44.2840
 1.2200	44.3090
 1.2210	44.3370
 1.2220	44.3660
 1.2230	44.3960
 1.2240	44.4280
 1.2250	44.4560
 1.2260	44.4830
 1.2270	44.5100
 1.2280	44.5370
 1.2290	44.5610
 1.2300	44.5860
 1.2310	44.6100
 1.2320	44.6340
 1.2330	44.6570
 1.2340	44.6800
 1.2350	44.7010
 1.2360	44.7230
 1.2370	44.7430
 1.2380	44.7640
 1.2390	44.7860
 1.2400	44.8050
 1.2410	44.8240
 1.2420	44.8410
 1.2430	44.8590
 1.2440	44.8780
 1.2450	44.8970
 1.2460	44.9150
 1.2470	44.9310
 1.2480	44.9420
 1.2490	44.9530
 1.2500	44.9650
 1.2510	44.9780
 1.2520	44.9910
 1.2530	45.0040
 1.2540	45.0150
 1.2550	45.0250
 1.2560	45.0330
 1.2570	45.0420
 1.2580	45.0490
 1.2590	45.0550
 1.2600	45.0590
 1.2610	45.0610
 1.2620	45.0620
 1.2630	45.0610
 1.2640	45.0590
 1.2650	45.0570
 1.2660	45.0550
 1.2670	45.0510
 1.2680	45.0460
 1.2690	45.0400
 1.2700	45.0310
 1.2710	45.0240
 1.2720	45.0160
 1.2730	45.0070
 1.2740	44.9960
 1.2750	44.9840
 1.2760	44.9680
 1.2770	44.9530
 1.2780	44.9330
 1.2790	44.9120
 1.2800	44.8910
 1.2810	44.8650
 1.2820	44.8390
 1.2830	44.8130
 1.2840	44.7820
 1.2850	44.7500
 1.2860	44.7170
 1.2870	44.6790
 1.2880	44.6370
 1.2890	44.5940
 1.2900	44.5470
 1.2910	44.4970
 1.2920	44.4480
 1.2930	44.3980
 1.2940	44.3420
 1.2950	44.2840
 1.2960	44.2200
 1.2970	44.1520
 1.2980	44.0830
 1.2990	44.0110
 1.3000	43.9390
 1.3010	43.8630
 1.3020	43.7830
 1.3030	43.6990
 1.3040	43.6110
 1.3050	43.5190
 1.3060	43.4280
 1.3070	43.3340
 1.3080	43.2370
 1.3090	43.1380
 1.3100	43.0340
 1.3110	42.9250
 1.3120	42.8120
 1.3130	42.6950
 1.3140	42.5760
 1.3150	42.4510
 1.3160	42.3250
 1.3170	42.1970
 1.3180	42.0660
 1.3190	41.9320
 1.3200	41.7970
 1.3210	41.6580
 1.3220	41.5150
 1.3230	41.3700
 1.3240	41.2200
 1.3250	41.0700
 1.3260	40.9180
 1.3270	40.7610
 1.3280	40.6040
 1.3290	40.4420
 1.3300	40.2780
 1.3310	40.1110
 1.3320	39.9420
 1.3330	39.7740
 1.3340	39.6050
 1.3350	39.4340
 1.3360	39.2650
 1.3370	39.0930
 1.3380	38.9230
 1.3390	38.7550
 1.3400	38.5860
 1.3410	38.4190
 1.3420	38.2540
 1.3430	38.0910
 1.3440	37.9300
 1.3450	37.7700
 1.3460	37.6110
 1.3470	37.4550
 1.3480	37.2990
 1.3490	37.1470
 1.3500	36.9970
 1.3510	36.8470
 1.3520	36.6980
 1.3530	36.5490
 1.3540	36.4000
 1.3550	36.2520
 1.3560	36.1020
 1.3570	35.9500
 1.3580	35.7980
 1.3590	35.6410
 1.3600	35.4820
 1.3610	35.3180
 1.3620	35.1470
 1.3630	34.9730
 1.3640	34.7900
 1.3650	34.5980
 1.3660	34.3990
 1.3670	34.1870
 1.3680	33.9620
 1.3690	33.7240
 1.3700	33.4670
 1.3710	33.1970
 1.3720	32.9110
 1.3730	32.6020
 1.3740	32.2760
 1.3750	31.9280
 1.3760	31.5540
 1.3770	31.1550
 1.3780	30.7270
 1.3790	30.2720
 1.3800	29.7930
 1.3810	29.2830
 1.3820	28.7550
 1.3830	28.2060
 1.3840	27.6360
 1.3850	27.0420
 1.3860	26.4360
 1.3870	25.8070
 1.3880	25.1770
 1.3890	24.5370
 1.3900	23.8890
 1.3910	23.2440
 1.3920	22.5960
 1.3930	21.9490
 1.3940	21.3110
 1.3950	20.6760
 1.3960	20.0550
 1.3970	19.4520
 1.3980	18.8630
 1.3990	18.3020
 1.4000	17.7610
 1.4010	17.2380
 1.4020	16.7430
 1.4030	16.2690
 1.4040	15.8180
 1.4050	15.3950
 1.4060	14.9950
 1.4070	14.6240
 1.4080	14.2760
 1.4090	13.9490
 1.4100	13.6470
 1.4110	13.3650
 1.4120	13.1030
 1.4130	12.8620
 1.4140	12.6390
 1.4150	12.4340
 1.4160	12.2460
 1.4170	12.0730
 1.4180	11.9150
 1.4190	11.7680
 1.4200	11.6340
 1.4210	11.5110
 1.4220	11.3970
 1.4230	11.2940
 1.4240	11.2010
 1.4250	11.1140
 1.4260	11.0370
 1.4270	10.9650
 1.4280	10.9010
 1.4290	10.8420
 1.4300	10.7880
 1.4310	10.7400
 1.4320	10.6990
 1.4330	10.6610
 1.4340	10.6300
 1.4350	10.6010
 1.4360	10.5750
 1.4370	10.5540
 1.4380	10.5360
 1.4390	10.5220
 1.4400	10.5110
 1.4410	10.5040
 1.4420	10.4980
 1.4430	10.4950
 1.4440	10.4930
 1.4450	10.4940
 1.4460	10.4960
 1.4470	10.5010
 1.4480	10.5070
 1.4490	10.5160
 1.4500	10.5260
 1.4510	10.5370
 1.4520	10.5490
 1.4530	10.5630
 1.4540	10.5780
 1.4550	10.5960
 1.4560	10.6160
 1.4570	10.6390
 1.4580	10.6650
 1.4590	10.6950
 1.4600	10.7280
 1.4610	10.7640
 1.4620	10.8040
 1.4630	10.8480
 1.4640	10.8960
 1.4650	10.9470
 1.4660	11.0030
 1.4670	11.0640
 1.4680	11.1310
 1.4690	11.2020
 1.4700	11.2760
 1.4710	11.3540
 1.4720	11.4370
 1.4730	11.5220
 1.4740	11.6120
 1.4750	11.7050
 1.4760	11.8000
 1.4770	11.9000
 1.4780	12.0020
 1.4790	12.1060
 1.4800	12.2120
 1.4810	12.3200
 1.4820	12.4300
 1.4830	12.5410
 1.4840	12.6550
 1.4850	12.7700
 1.4860	12.8860
 1.4870	13.0060
 1.4880	13.1270
 1.4890	13.2480
 1.4900	13.3700
 1.4910	13.4930
 1.4920	13.6170
 1.4930	13.7430
 1.4940	13.8690
 1.4950	13.9980
 1.4960	14.1270
 1.4970	14.2550
 1.4980	14.3840
 1.4990	14.5150
 1.5000	14.6450
 1.5010	14.7760
 1.5020	14.9080
 1.5030	15.0410
 1.5040	15.1730
 1.5050	15.3060
 1.5060	15.4380
 1.5070	15.5700
 1.5080	15.7030
 1.5090	15.8350
 1.5100	15.9700
 1.5110	16.1040
 1.5120	16.2380
 1.5130	16.3720
 1.5140	16.5040
 1.5150	16.6370
 1.5160	16.7680
 1.5170	16.9000
 1.5180	17.0330
 1.5190	17.1650
 1.5200	17.2970
 1.5210	17.4270
 1.5220	17.5570
 1.5230	17.6860
 1.5240	17.8140
 1.5250	17.9440
 1.5260	18.0730
 1.5270	18.2020
 1.5280	18.3310
 1.5290	18.4580
 1.5300	18.5840
 1.5310	18.7080
 1.5320	18.8310
 1.5330	18.9550
 1.5340	19.0770
 1.5350	19.1990
 1.5360	19.3210
 1.5370	19.4400
 1.5380	19.5590
 1.5390	19.6770
 1.5400	19.7930
 1.5410	19.9080
 1.5420	20.0240
 1.5430	20.1400
 1.5440	20.2560
 1.5450	20.3710
 1.5460	20.4820
 1.5470	20.5940
 1.5480	20.7050
 1.5490	20.8160
 1.5500	20.9270
 1.5510	21.0350
 1.5520	21.1420
 1.5530	21.2470
 1.5540	21.3510
 1.5550	21.4550
 1.5560	21.5580
 1.5570	21.6610
 1.5580	21.7630
 1.5590	21.8630
 1.5600	21.9640
 1.5610	22.0610
 1.5620	22.1590
 1.5630	22.2560
 1.5640	22.3520
 1.5650	22.4480
 1.5660	22.5400
 1.5670	22.6320
 1.5680	22.7240
 1.5690	22.8130
 1.5700	22.9040
 1.5710	22.9950
 1.5720	23.0820
 1.5730	23.1690
 1.5740	23.2550
 1.5750	23.3410
 1.5760	23.4280
 1.5770	23.5120
 1.5780	23.5970
 1.5790	23.6800
 1.5800	23.7610
 1.5810	23.8430
 1.5820	23.9250
 1.5830	24.0060
 1.5840	24.0860
 1.5850	24.1630
 1.5860	24.2400
 1.5870	24.3160
 1.5880	24.3910
 1.5890	24.4670
 1.5900	24.5420
 1.5910	24.6170
 1.5920	24.6910
 1.5930	24.7640
 1.5940	24.8360
 1.5950	24.9070
 1.5960	24.9770
 1.5970	25.0470
 1.5980	25.1150
 1.5990	25.1820
 1.6000	25.2490
 1.6010	25.3140
 1.6020	25.3790
 1.6030	25.4450
 1.6040	25.5080
 1.6050	25.5720
 1.6060	25.6340
 1.6070	25.6950
 1.6080	25.7560
 1.6090	25.8160
 1.6100	25.8750
 1.6110	25.9330
 1.6120	25.9900
 1.6130	26.0470
 1.6140	26.1030
 1.6150	26.1600
 1.6160	26.2150
 1.6170	26.2680
 1.6180	26.3220
 1.6190	26.3740
 1.6200	26.4250
 1.6210	26.4750
 1.6220	26.5240
 1.6230	26.5720
 1.6240	26.6200
 1.6250	26.6670
 1.6260	26.7140
 1.6270	26.7590
 1.6280	26.8030
 1.6290	26.8470
 1.6300	26.8910
 1.6310	26.9340
 1.6320	26.9750
 1.6330	27.0150
 1.6340	27.0540
 1.6350	27.0920
 1.6360	27.1280
 1.6370	27.1640
 1.6380	27.1980
 1.6390	27.2310
 1.6400	27.2620
 1.6410	27.2920
 1.6420	27.3210
 1.6430	27.3480
 1.6440	27.3730
 1.6450	27.3970
 1.6460	27.4190
 1.6470	27.4390
 1.6480	27.4580
 1.6490	27.4740
 1.6500	27.4890
 1.6510	27.5030
 1.6520	27.5160
 1.6530	27.5260
 1.6540	27.5360
 1.6550	27.5460
 1.6560	27.5530
 1.6570	27.5580
 1.6580	27.5620
 1.6590	27.5670
 1.6600	27.5740
 1.6610	27.5800
 1.6620	27.5860
 1.6630	27.5910
 1.6640	27.5930
 1.6650	27.5970
 1.6660	27.6000
 1.6670	27.6040
 1.6680	27.6070
 1.6690	27.6090
 1.6700	27.6100
 1.6710	27.6070
 1.6720	27.6040
 1.6730	27.6000
 1.6740	27.5930
 1.6750	27.5850
 1.6760	27.5750
 1.6770	27.5610
 1.6780	27.5460
 1.6790	27.5270
 1.6800	27.5060
 1.6810	27.4830
 1.6820	27.4580
 1.6830	27.4280
 1.6840	27.3970
 1.6850	27.3640
 1.6860	27.3280
 1.6870	27.2930
 1.6880	27.2550
 1.6890	27.2130
 1.6900	27.1700
 1.6910	27.1260
 1.6920	27.0800
 1.6930	27.0350
 1.6940	26.9870
 1.6950	26.9380
 1.6960	26.8880
 1.6970	26.8360
 1.6980	26.7840
 1.6990	26.7320
 1.7000	26.6790
 1.7010	26.6250
 1.7020	26.5710
 1.7030	26.5160
 1.7040	26.4580
 1.7050	26.3990
 1.7060	26.3380
 1.7070	26.2730
 1.7080	26.2100
 1.7090	26.1460
 1.7100	26.0850
 1.7110	26.0250
 1.7120	25.9650
 1.7130	25.9070
 1.7140	25.8500
 1.7150	25.7950
 1.7160	25.7440
 1.7170	25.6960
 1.7180	25.6510
 1.7190	25.6070
 1.7200	25.5650
 1.7210	25.5230
 1.7220	25.4820
 1.7230	25.4430
 1.7240	25.4020
 1.7250	25.3620
 1.7260	25.3220
 1.7270	25.2810
 1.7280	25.2420
 1.7290	25.2020
 1.7300	25.1610
 1.7310	25.1200
 1.7320	25.0760
 1.7330	25.0330
 1.7340	24.9920
 1.7350	24.9470
 1.7360	24.9010
 1.7370	24.8520
 1.7380	24.7990
 1.7390	24.7450
 1.7400	24.6890
 1.7410	24.6300
 1.7420	24.5680
 1.7430	24.5040
 1.7440	24.4370
 1.7450	24.3670
 1.7460	24.2940
 1.7470	24.2220
 1.7480	24.1490
 1.7490	24.0730
 1.7500	23.9980
 1.7510	23.9220
 1.7520	23.8440
 1.7530	23.7680
 1.7540	23.6930
 1.7550	23.6200
 1.7560	23.5470
 1.7570	23.4740
 1.7580	23.4020
 1.7590	23.3310
 1.7600	23.2610
 1.7610	23.1940
 1.7620	23.1280
 1.7630	23.0620
 1.7640	22.9980
 1.7650	22.9350
 1.7660	22.8740
 1.7670	22.8160
 1.7680	22.7580
 1.7690	22.7040
 1.7700	22.6500
 1.7710	22.5960
 1.7720	22.5440
 1.7730	22.4930
 1.7740	22.4440
 1.7750	22.3970
 1.7760	22.3530
 1.7770	22.3110
 1.7780	22.2710
 1.7790	22.2330
 1.7800	22.2010
 1.7810	22.1730
 1.7820	22.1450
 1.7830	22.1210
 1.7840	22.1000
 1.7850	22.0790
 1.7860	22.0610
 1.7870	22.0470
 1.7880	22.0320
 1.7890	22.0210
 1.7900	22.0150
 1.7910	22.0090
 1.7920	22.0060
 1.7930	22.0030
 1.7940	22.0010
 1.7950	22.0000
 1.7960	22.0010
 1.7970	22.0030
 1.7980	22.0050
 1.7990	22.0070
 1.8000	22.0090
 1.8010	22.0130
 1.8020	22.0170
 1.8030	22.0230
 1.8040	22.0300
 1.8050	22.0370
 1.8060	22.0450
 1.8070	22.0520
 1.8080	22.0610
 1.8090	22.0680
 1.8100	22.0750
 1.8110	22.0820
 1.8120	22.0860
 1.8130	22.0910
 1.8140	22.0960
 1.8150	22.0990
 1.8160	22.1020
 1.8170	22.1020
 1.8180	22.1000
 1.8190	22.0960
 1.8200	22.0920
 1.8210	22.0890
 1.8220	22.0830
 1.8230	22.0740
 1.8240	22.0670
 1.8250	22.0600
 1.8260	22.0510
 1.8270	22.0400
 1.8280	22.0270
 1.8290	22.0080
 1.8300	21.9890
 1.8310	21.5750
 1.8320	21.5460
 1.8330	21.5100
 1.8340	21.4680
 1.8350	21.4220
 1.8360	21.3720
 1.8370	21.3190
 1.8380	21.2600
 1.8390	21.1960
 1.8400	21.1290
 1.8410	21.0540
 1.8420	20.9740
 1.8430	20.8860
 1.8440	20.7910
 1.8450	20.6900
 1.8460	20.5780
 1.8470	20.4600
 1.8480	20.3340
 1.8490	20.1940
 1.8500	20.0430
 1.8510	19.8850
 1.8520	19.7120
 1.8530	19.5230
 1.8540	19.3260
 1.8550	19.1170
 1.8560	18.8970
 1.8570	18.6630
 1.8580	18.4110
 1.8590	18.1490
 1.8600	17.8720
 1.8610	17.5810
 1.8620	17.2770
 1.8630	16.9630
 1.8640	16.6300
 1.8650	16.2810
 1.8660	15.9200
 1.8670	15.5370
 1.8680	15.1430
 1.8690	14.7360
 1.8700	14.3150
 1.8710	13.8780
 1.8720	13.4400
 1.8730	12.9940
 1.8740	12.5420
 1.8750	12.0930
 1.8760	11.6380
 1.8770	11.1830
 1.8780	10.7330
 1.8790	10.2870
 1.8800	 9.8550
 1.8810	 9.4330
 1.8820	 9.0190
 1.8830	 8.6150
 1.8840	 8.2280
 1.8850	 7.8520
 1.8860	 7.4950
 1.8870	 7.1560
 1.8880	 6.8300
 1.8890	 6.5250
 1.8900	 6.2410
 1.8910	 5.9770
 1.8920	 5.7300
 1.8930	 5.5080
 1.8940	 5.3060
 1.8950	 5.1200
 1.8960	 4.9540
 1.8970	 4.8040
 1.8980	 4.6690
 1.8990	 4.5490
 1.9000	 4.4380
 1.9010	 4.3420
 1.9020	 4.2550
 1.9030	 4.1790
 1.9040	 4.1130
 1.9050	 4.0580
 1.9060	 4.0070
 1.9070	 3.9620
 1.9080	 3.9250
 1.9090	 3.8940
 1.9100	 3.8660
 1.9110	 3.8410
 1.9120	 3.8220
 1.9130	 3.8030
 1.9140	 3.7860
 1.9150	 3.7720
 1.9160	 3.7600
 1.9170	 3.7510
 1.9180	 3.7440
 1.9190	 3.7370
 1.9200	 3.7300
 1.9210	 3.7220
 1.9220	 3.7170
 1.9230	 3.7140
 1.9240	 3.7120
 1.9250	 3.7120
 1.9260	 3.7130
 1.9270	 3.7100
 1.9280	 3.7080
 1.9290	 3.7060
 1.9300	 3.7060
 1.9310	 3.7100
 1.9320	 3.7120
 1.9330	 3.7160
 1.9340	 3.7220
 1.9350	 3.7270
 1.9360	 3.7330
 1.9370	 3.7390
 1.9380	 3.7480
 1.9390	 3.7550
 1.9400	 3.7630
 1.9410	 3.7700
 1.9420	 3.7770
 1.9430	 3.7800
 1.9440	 3.7860
 1.9450	 3.7900
 1.9460	 3.7970
 1.9470	 3.8070
 1.9480	 3.8160
 1.9490	 3.8270
 1.9500	 3.8380
 1.9510	 3.8520
 1.9520	 3.8670
 1.9530	 3.8800
 1.9540	 3.8940
 1.9550	 3.9090
 1.9560	 3.9220
 1.9570	 3.9360
 1.9580	 3.9530
 1.9590	 3.9690
 1.9600	 3.9820
 1.9610	 3.9970
 1.9620	 4.0140
 1.9630	 4.0320
 1.9640	 4.0490
 1.9650	 4.0670
 1.9660	 4.0870
 1.9670	 4.1070
 1.9680	 4.1280
 1.9690	 4.1520
 1.9700	 4.1750
 1.9710	 4.1960
 1.9720	 4.2180
 1.9730	 4.2410
 1.9740	 4.2650
 1.9750	 4.2890
 1.9760	 4.3160
 1.9770	 4.3420
 1.9780	 4.3690
 1.9790	 4.3960
 1.9800	 4.4230
 1.9810	 4.4500
 1.9820	 4.4770
 1.9830	 4.5050
 1.9840	 4.5330
 1.9850	 4.5630
 1.9860	 4.5960
 1.9870	 4.6300
 1.9880	 4.6640
 1.9890	 4.6990
 1.9900	 4.7350
 1.9910	 4.7650
 1.9920	 4.7980
 1.9930	 4.8310
 1.9940	 4.8660
 1.9950	 4.9010
 1.9960	 4.9370
 1.9970	 4.9750
 1.9980	 5.0120
 1.9990	 5.0490
 2.0000	 5.0890
 2.0010	 5.1290
 2.0020	 5.1670
 2.0030	 5.2070
 2.0040	 5.2460
 2.0050	 5.2860
 2.0060	 5.3270
 2.0070	 5.3700
 2.0080	 5.4140
 2.0090	 5.4570
 2.0100	 5.4980
 2.0110	 5.5410
 2.0120	 5.5830
 2.0130	 5.6260
 2.0140	 5.6670
 2.0150	 5.7100
 2.0160	 5.7550
 2.0170	 5.7930
 2.0180	 5.8360
 2.0190	 5.8810
 2.0200	 5.9250
 2.0210	 5.9690
 2.0220	 6.0140
 2.0230	 6.0590
 2.0240	 6.1040
 2.0250	 6.1500
 2.0260	 6.1940
 2.0270	 6.2340
 2.0280	 6.2780
 2.0290	 6.3210
 2.0300	 6.3650
 2.0310	 6.4070
 2.0320	 6.4500
 2.0330	 6.4900
 2.0340	 6.5270
 2.0350	 6.5670
 2.0360	 6.6090
 2.0370	 6.6500
 2.0380	 6.6940
 2.0390	 6.7360
 2.0400	 6.7790
 2.0410	 6.8200
 2.0420	 6.8580
 2.0430	 6.8950
 2.0440	 6.9350
 2.0450	 6.9750
 2.0460	 7.0150
 2.0470	 7.0580
 2.0480	 7.0980
 2.0490	 7.1360
 2.0500	 7.1750
 2.0510	 7.2150
 2.0520	 7.2540
 2.0530	 7.2930
 2.0540	 7.3320
 2.0550	 7.3720
 2.0560	 7.4090
 2.0570	 7.4470
 2.0580	 7.4860
 2.0590	 7.5270
 2.0600	 7.5670
 2.0610	 7.6100
 2.0620	 7.6540
 2.0630	 7.6970
 2.0640	 7.7410
 2.0650	 7.7840
 2.0660	 7.8240
 2.0670	 7.8640
 2.0680	 7.9020
 2.0690	 7.9410
 2.0700	 7.9830
 2.0710	 8.0230
 2.0720	 8.0630
 2.0730	 8.1060
 2.0740	 8.1460
 2.0750	 8.1840
 2.0760	 8.2240
 2.0770	 8.2640
 2.0780	 8.3050
 2.0790	 8.3490
 2.0800	 8.3910
 2.0810	 8.4350
 2.0820	 8.4770
 2.0830	 8.5160
 2.0840	 8.5560
 2.0850	 8.5970
 2.0860	 8.6360
 2.0870	 8.6760
 2.0880	 8.7140
 2.0890	 8.7530
 2.0900	 8.7910
 2.0910	 8.8290
 2.0920	 8.8670
 2.0930	 8.9050
 2.0940	 8.9410
 2.0950	 8.9790
 2.0960	 9.0170
 2.0970	 9.0560
 2.0980	 9.1010
 2.0990	 9.1400
 2.1000	 9.1770
 2.1010	 9.2160
 2.1020	 9.2540
 2.1030	 9.2920
 2.1040	 9.3320
 2.1050	 9.3730
 2.1060	 9.4120
 2.1070	 9.4480
 2.1080	 9.4840
 2.1090	 9.5190
 2.1100	 9.5550
 2.1110	 9.5900
 2.1120	 9.6260
 2.1130	 9.6640
 2.1140	 9.7000
 2.1150	 9.7370
 2.1160	 9.7720
 2.1170	 9.8030
 2.1180	 9.8380
 2.1190	 9.8760
 2.1200	 9.9110
 2.1210	 9.9470
 2.1220	 9.9830
 2.1230	10.0140
 2.1240	10.0400
 2.1250	10.0710
 2.1260	10.1040
 2.1270	10.1350
 2.1280	10.1670
 2.1290	10.1970
 2.1300	10.2220
 2.1310	10.2510
 2.1320	10.2820
 2.1330	10.3120
 2.1340	10.3440
 2.1350	10.3750
 2.1360	10.4040
 2.1370	10.4330
 2.1380	10.4600
 2.1390	10.4880
 2.1400	10.5170
 2.1410	10.5450
 2.1420	10.5720
 2.1430	10.6000
 2.1440	10.6260
 2.1450	10.6500
 2.1460	10.6750
 2.1470	10.7000
 2.1480	10.7260
 2.1490	10.7550
 2.1500	10.7800
 2.1510	10.8070
 2.1520	10.8310
 2.1530	10.8490
 2.1540	10.8720
 2.1550	10.8980
 2.1560	10.9210
 2.1570	10.9470
 2.1580	10.9690
 2.1590	10.9890
 2.1600	11.0070
 2.1610	11.0200
 2.1620	11.0340
 2.1630	11.0530
 2.1640	11.0710
 2.1650	11.0910
 2.1660	11.1180
 2.1670	11.1390
 2.1680	11.1550
 2.1690	11.1750
 2.1700	11.1940
 2.1710	11.2130
 2.1720	11.2320
 2.1730	11.2520
 2.1740	11.2700
 2.1750	11.2880
 2.1760	11.3060
 2.1770	11.3230
 2.1780	11.3360
 2.1790	11.3530
 2.1800	11.3740
 2.1810	11.3930
 2.1820	11.4150
 2.1830	11.4370
 2.1840	11.4570
 2.1850	11.4740
 2.1860	11.4940
 2.1870	11.5150
 2.1880	11.5350
 2.1890	11.5550
 2.1900	11.5750
 2.1910	11.5990
 2.1920	11.6160
 2.1930	11.6290
 2.1940	11.6440
 2.1950	11.6540
 2.1960	11.6680
 2.1970	11.6860
 2.1980	11.7040
 2.1990	11.7250
 2.2000	11.7420
 2.2010	11.7570
 2.2020	11.7740
 2.2030	11.7880
 2.2040	11.8020
 2.2050	11.8190
 2.2060	11.8350
 2.2070	11.8500
 2.2080	11.8640
 2.2090	11.8770
 2.2100	11.8890
 2.2110	11.9000
 2.2120	11.9090
 2.2130	11.9190
 2.2140	11.9300
 2.2150	11.9370
 2.2160	11.9430
 2.2170	11.9470
 2.2180	11.9420
 2.2190	11.9450
 2.2200	11.9500
 2.2210	11.9540
 2.2220	11.9690
 2.2230	11.9710
 2.2240	11.9650
 2.2250	11.9600
 2.2260	11.9510
 2.2270	11.9410
 2.2280	11.9340
 2.2290	11.9210
 2.2300	11.9030
 2.2310	11.8840
 2.2320	11.8670
 2.2330	11.8450
 2.2340	11.8220
 2.2350	11.7990
 2.2360	11.7730
 2.2370	11.7450
 2.2380	11.7140
 2.2390	11.6790
 2.2400	11.6460
 2.2410	11.6100
 2.2420	11.5750
 2.2430	11.5430
 2.2440	11.5040
 2.2450	11.4600
 2.2460	11.4160
 2.2470	11.3670
 2.2480	11.3210
 2.2490	11.2720
 2.2500	11.2260
 2.2510	11.1850
 2.2520	11.1400
 2.2530	11.0930
 2.2540	11.0460
 2.2550	10.9950
 2.2560	10.9460
 2.2570	10.8960
 2.2580	10.8500
 2.2590	10.8070
 2.2600	10.7610
 2.2610	10.7160
 2.2620	10.6680
 2.2630	10.6200
 2.2640	10.5730
 2.2650	10.5310
 2.2660	10.4920
 2.2670	10.4500
 2.2680	10.4080
 2.2690	10.3630
 2.2700	10.3160
 2.2710	10.2700
 2.2720	10.2220
 2.2730	10.1770
 2.2740	10.1310
 2.2750	10.0900
 2.2760	10.0530
 2.2770	10.0110
 2.2780	 9.9690
 2.2790	 9.9280
 2.2800	 9.8840
 2.2810	 9.8420
 2.2820	 9.8040
 2.2830	 9.7640
 2.2840	 9.7200
 2.2850	 9.6770
 2.2860	 9.6330
 2.2870	 9.5910
 2.2880	 9.5520
 2.2890	 9.5100
 2.2900	 9.4700
 2.2910	 9.4290
 2.2920	 9.3860
 2.2930	 9.3430
 2.2940	 9.2980
 2.2950	 9.2520
 2.2960	 9.2010
 2.2970	 9.1540
 2.2980	 9.1070
 2.2990	 9.0650
 2.3000	 9.0240
 2.3010	 8.9820
 2.3020	 8.9330
 2.3030	 8.8860
 2.3040	 8.8450
 2.3050	 8.8060
 2.3060	 8.7750
 2.3070	 8.7450
 2.3080	 8.7070
 2.3090	 8.6710
 2.3100	 8.6350
 2.3110	 8.6000
 2.3120	 8.5680
 2.3130	 8.5410
 2.3140	 8.5130
 2.3150	 8.4850
 2.3160	 8.4600
 2.3170	 8.4350
 2.3180	 8.4110
 2.3190	 8.3920
 2.3200	 8.3670
 2.3210	 8.3420
 2.3220	 8.3150
 2.3230	 8.2860
 2.3240	 8.2550
 2.3250	 8.2200
 2.3260	 8.1910
 2.3270	 8.1640
 2.3280	 8.1300
 2.3290	 8.0970
 2.3300	 8.0610
 2.3310	 8.0130
 2.3320	 7.9750
 2.3330	 7.9440
 2.3340	 7.9130
 2.3350	 7.8880
 2.3360	 7.8600
 2.3370	 7.8330
 2.3380	 7.8030
 2.3390	 7.7710
 2.3400	 7.7390
 2.3410	 7.7060
 2.3420	 7.6740
 2.3430	 7.6420
 2.3440	 7.6080
 2.3450	 7.5750
 2.3460	 7.5390
 2.3470	 7.4960
 2.3480	 7.4590
 2.3490	 7.4220
 2.3500	 7.3880
 2.3510	 7.3600
 2.3520	 7.3310
 2.3530	 7.3010
 2.3540	 7.2750
 2.3550	 7.2520
 2.3560	 7.2280
 2.3570	 7.2100
 2.3580	 7.1910
 2.3590	 7.1640
 2.3600	 7.1300
 2.3610	 7.0940
 2.3620	 7.0590
 2.3630	 7.0310
 2.3640	 7.0090
 2.3650	 6.9830
 2.3660	 6.9570
 2.3670	 6.9320
 2.3680	 6.9010
 2.3690	 6.8710
 2.3700	 6.8430
 2.3710	 6.7990
 2.3720	 6.7570
 2.3730	 6.7280
 2.3740	 6.6920
 2.3750	 6.6660
 2.3760	 6.6450
 2.3770	 6.6150
 2.3780	 6.5920
 2.3790	 6.5690
 2.3800	 6.5500
 2.3810	 6.5330
 2.3820	 6.5060
 2.3830	 6.4740
 2.3840	 6.4400
 2.3850	 6.3980
 2.3860	 6.3620
 2.3870	 6.3430
 2.3880	 6.3210
 2.3890	 6.3010
 2.3900	 6.2720
 2.3910	 6.2210
 2.3920	 6.1750
 2.3930	 6.1280
 2.3940	 6.0920
 2.3950	 6.0820
 2.3960	 6.0630
 2.3970	 6.0410
 2.3980	 6.0220
 2.3990	 5.9860
 2.4000	 5.9550
 2.4010	 5.9290
 2.4020	 5.8960
 2.4030	 5.8610
 2.4040	 5.8090
 2.4050	 5.7550
 2.4060	 5.7190
 2.4070	 5.6940
 2.4080	 5.6810
 2.4090	 5.6570
 2.4100	 5.6270
 2.4110	 5.6020
 2.4120	 5.5640
 2.4130	 5.5330
 2.4140	 5.5100
 2.4150	 5.4780
 2.4160	 5.4520
 2.4170	 5.4430
 2.4180	 5.4410
 2.4190	 5.4300
 2.4200	 5.4140
 2.4210	 5.3810
 2.4220	 5.3320
 2.4230	 5.2940
 2.4240	 5.2640
 2.4250	 5.2320
 2.4260	 5.2010
 2.4270	 5.1630
 2.4280	 5.1200
 2.4290	 5.0880
 2.4300	 5.0630
 2.4310	 5.0420
 2.4320	 5.0320
 2.4330	 5.0220
 2.4340	 4.9930
 2.4350	 4.9620
 2.4360	 4.9350
 2.4370	 4.9110
 2.4380	 4.9060
 2.4390	 4.9030
 2.4400	 4.8820
 2.4410	 4.8450
 2.4420	 4.8040
 2.4430	 4.7750
 2.4440	 4.7410
 2.4450	 4.7060
 2.4460	 4.6890
 2.4470	 4.6630
 2.4480	 4.6450
 2.4490	 4.6430
 2.4500	 4.6130
 2.4510	 4.5810
 2.4520	 4.5650
 2.4530	 4.5520
 2.4540	 4.5430
 2.4550	 4.5360
 2.4560	 4.5070
 2.4570	 4.4580
 2.4580	 4.4400
 2.4590	 4.4240
 2.4600	 4.3960
 2.4610	 4.3830
 2.4620	 4.3530
 2.4630	 4.3230
 2.4640	 4.3210
 2.4650	 4.3240
 2.4660	 4.3290
 2.4670	 4.3320
 2.4680	 4.3340
 2.4690	 4.3210
 2.4700	 4.3030
 2.4710	 4.2850
 2.4720	 4.2510
 2.4730	 4.2040
 2.4740	 4.1740
 2.4750	 4.1150
 2.4760	 4.0940
 2.4770	 4.1100
 2.4780	 4.0980
 2.4790	 4.0980
 2.4800	 4.1020
 2.4810	 4.0880
 2.4820	 4.1010
 2.4830	 4.1350
 2.4840	 4.1340
 2.4850	 4.1190
 2.4860	 4.1180
 2.4870	 4.0480
 2.4880	 4.0080
 2.4890	 4.0300
 2.4900	 4.0200
 2.4910	 4.0390
 2.4920	 4.0840
 2.4930	 4.0750
 2.4940	 4.0700
 2.4950	 4.0950
 2.4960	 4.0800
 2.4970	 4.0500
 2.4980	 4.0480
 2.4990	 4.0410
 2.5000	 4.0460
