Name: Jacaranda mimosifolia
Type: vegetation
Class: Tree
Genus: Jacaranda
Species: mimosifolia
Sample No.: JPL201
Owner: JPL
Wavelength Range: TIR
Origin: 34.12558; -118.11333; WGS84
Collection Date: 10/3/2016
Description: Samples were collected at the Huntington Garden in San Marino California as part of a JPL Subcontract studying HyTES imagery. Samples were taken to JPL and processed within 48 hours of collection. The same leaves were processed in the Nicolet and then measured using the ASD.
Measurement: Hemispherical reflectance
First Column: X
Second Column: Y
X Units: Wavelength (micrometer)
Y Units: Reflectance (percentage)
First X Value: 2.501
Last X Value: 15.387
Number of X Values: 1737
Additional Information: vegetation.tree.jacaranda.mimosifolia.tir.jpl201.jpl.nicolet.ancillary.txt

 2.5010	17.3280
 2.5030	17.2730
 2.5040	17.2610
 2.5050	17.2390
 2.5060	17.1610
 2.5070	17.1260
 2.5090	17.1770
 2.5100	17.1660
 2.5110	17.1010
 2.5120	17.0580
 2.5140	17.1360
 2.5150	17.1200
 2.5160	17.0520
 2.5170	16.9690
 2.5180	16.9690
 2.5200	16.9920
 2.5210	17.0790
 2.5220	17.0140
 2.5230	16.8920
 2.5250	16.8020
 2.5260	16.9170
 2.5270	16.9330
 2.5280	16.9880
 2.5300	17.0070
 2.5310	16.8250
 2.5320	16.4770
 2.5330	16.4610
 2.5340	16.7340
 2.5360	16.5190
 2.5370	16.3430
 2.5380	16.7950
 2.5390	16.9360
 2.5410	16.9870
 2.5420	16.6040
 2.5430	16.0190
 2.5440	16.2190
 2.5460	16.7480
 2.5470	16.6320
 2.5480	16.1750
 2.5490	16.4600
 2.5510	16.4410
 2.5520	16.0080
 2.5530	15.8320
 2.5540	16.5030
 2.5560	17.1750
 2.5570	17.2120
 2.5580	17.1710
 2.5590	16.5790
 2.5610	15.2090
 2.5620	14.2080
 2.5630	14.2900
 2.5650	14.5660
 2.5660	15.7790
 2.5670	16.8120
 2.5680	16.3540
 2.5700	15.1850
 2.5710	15.6140
 2.5720	16.2300
 2.5730	14.8150
 2.5750	15.1740
 2.5760	15.6250
 2.5770	14.9120
 2.5790	15.9570
 2.5800	16.5260
 2.5810	15.4190
 2.5820	15.1710
 2.5840	14.0770
 2.5850	14.1710
 2.5860	15.3650
 2.5880	14.5990
 2.5890	14.8880
 2.5900	15.6750
 2.5910	16.2370
 2.5930	15.3730
 2.5940	12.7530
 2.5950	10.6590
 2.5970	12.8900
 2.5980	15.4450
 2.5990	16.4240
 2.6010	16.0540
 2.6020	15.1270
 2.6030	14.4900
 2.6040	13.5850
 2.6060	12.7910
 2.6070	13.5200
 2.6080	14.4140
 2.6100	14.6450
 2.6110	15.1190
 2.6120	15.4200
 2.6140	15.0560
 2.6150	15.1530
 2.6160	13.4500
 2.6180	12.4510
 2.6190	13.7170
 2.6200	13.2300
 2.6220	13.7000
 2.6230	15.5030
 2.6240	15.7280
 2.6260	14.8740
 2.6270	13.3300
 2.6280	13.9820
 2.6300	13.4680
 2.6310	12.2060
 2.6320	13.5060
 2.6340	13.9550
 2.6350	14.0780
 2.6360	15.0350
 2.6380	15.2560
 2.6390	15.2500
 2.6400	14.9860
 2.6420	14.6020
 2.6430	14.3900
 2.6440	14.4390
 2.6460	13.6250
 2.6470	13.7940
 2.6480	14.4610
 2.6500	14.6500
 2.6510	14.2060
 2.6520	13.1720
 2.6540	13.1750
 2.6550	13.3670
 2.6570	13.3180
 2.6580	13.8490
 2.6590	12.9600
 2.6610	12.4500
 2.6620	12.7280
 2.6630	12.7910
 2.6650	11.1120
 2.6660	 9.7630
 2.6670	10.0220
 2.6690	11.0380
 2.6700	 9.6950
 2.6720	 9.8070
 2.6730	11.8600
 2.6740	12.1380
 2.6760	11.0750
 2.6770	 9.8610
 2.6780	10.1280
 2.6800	10.8960
 2.6810	12.1410
 2.6830	12.2270
 2.6840	11.6770
 2.6850	11.7590
 2.6870	11.6530
 2.6880	11.9350
 2.6900	12.2220
 2.6910	12.4020
 2.6920	11.7050
 2.6940	10.3040
 2.6950	10.0430
 2.6970	11.0320
 2.6980	12.0140
 2.6990	12.2710
 2.7010	11.5830
 2.7020	11.3920
 2.7040	12.0650
 2.7050	12.2150
 2.7060	12.0720
 2.7080	11.5750
 2.7090	10.4240
 2.7110	 9.5660
 2.7120	10.0430
 2.7130	11.5410
 2.7150	11.9670
 2.7160	11.8540
 2.7180	11.2260
 2.7190	10.3580
 2.7210	 8.7580
 2.7220	 9.4740
 2.7230	10.1630
 2.7250	 9.4500
 2.7260	10.3700
 2.7280	11.7270
 2.7290	12.0490
 2.7310	11.9960
 2.7320	11.9390
 2.7340	11.5020
 2.7350	10.5570
 2.7360	10.9610
 2.7380	10.9130
 2.7390	 9.2480
 2.7410	 8.5940
 2.7420	 9.5330
 2.7440	11.0530
 2.7450	11.6140
 2.7470	11.6080
 2.7480	11.6810
 2.7490	11.6330
 2.7510	11.4750
 2.7520	11.1600
 2.7540	10.6680
 2.7550	 9.0580
 2.7570	 9.4430
 2.7580	11.1500
 2.7600	11.7340
 2.7610	11.2180
 2.7630	10.1910
 2.7640	10.1430
 2.7660	10.7930
 2.7670	10.6280
 2.7690	10.5400
 2.7700	10.5810
 2.7720	10.3050
 2.7730	10.8250
 2.7740	11.5050
 2.7760	11.4940
 2.7770	11.3130
 2.7790	11.3180
 2.7800	11.2450
 2.7820	11.0480
 2.7830	11.2880
 2.7850	11.4080
 2.7860	10.5960
 2.7880	10.1110
 2.7890	10.9560
 2.7910	11.5800
 2.7920	11.6360
 2.7940	11.5810
 2.7950	11.6640
 2.7970	11.6510
 2.7980	11.6780
 2.8000	11.6770
 2.8010	11.1930
 2.8030	10.1770
 2.8040	10.2760
 2.8060	11.1290
 2.8080	11.4960
 2.8090	11.4960
 2.8110	11.6380
 2.8120	11.7540
 2.8140	11.7180
 2.8150	11.4910
 2.8170	11.5750
 2.8180	11.5080
 2.8200	11.2190
 2.8210	11.2360
 2.8230	11.6020
 2.8240	11.8710
 2.8260	11.8660
 2.8270	11.6750
 2.8290	11.7180
 2.8310	11.8240
 2.8320	11.7210
 2.8340	11.4750
 2.8350	11.4140
 2.8370	11.5150
 2.8380	11.5820
 2.8400	11.7040
 2.8410	11.8550
 2.8430	11.8480
 2.8440	11.8890
 2.8460	11.8770
 2.8480	11.7900
 2.8490	11.6030
 2.8510	11.7080
 2.8520	11.8220
 2.8540	11.6950
 2.8550	11.6160
 2.8570	11.8450
 2.8590	11.9550
 2.8600	11.8990
 2.8620	11.8680
 2.8630	11.9430
 2.8650	11.9130
 2.8660	11.8390
 2.8680	11.8150
 2.8700	11.9130
 2.8710	11.8440
 2.8730	11.8460
 2.8740	11.8970
 2.8760	11.9280
 2.8780	11.9020
 2.8790	11.9180
 2.8810	11.8930
 2.8820	11.9060
 2.8840	11.8750
 2.8860	11.9690
 2.8870	11.9550
 2.8890	11.8950
 2.8900	11.8630
 2.8920	11.9570
 2.8940	12.0150
 2.8950	11.9740
 2.8970	11.9870
 2.8990	12.0030
 2.9000	11.8310
 2.9020	11.7990
 2.9030	11.8380
 2.9050	11.8850
 2.9070	11.9660
 2.9080	12.0680
 2.9100	12.0480
 2.9120	12.0890
 2.9130	11.9970
 2.9150	11.9550
 2.9160	11.9820
 2.9180	12.0400
 2.9200	11.9380
 2.9210	11.9090
 2.9230	11.8500
 2.9250	11.9420
 2.9260	12.0440
 2.9280	11.9980
 2.9300	12.0210
 2.9310	12.1260
 2.9330	12.0690
 2.9350	12.0710
 2.9360	12.0180
 2.9380	11.9920
 2.9400	12.0160
 2.9410	12.0940
 2.9430	12.0150
 2.9450	12.0010
 2.9460	11.9900
 2.9480	12.0050
 2.9500	12.0430
 2.9510	12.0740
 2.9530	12.0330
 2.9550	12.0580
 2.9560	12.0340
 2.9580	12.0870
 2.9600	12.0630
 2.9610	12.0960
 2.9630	12.0840
 2.9650	12.1220
 2.9670	12.1220
 2.9680	12.0870
 2.9700	11.9390
 2.9720	11.8770
 2.9730	11.9310
 2.9750	12.0550
 2.9770	12.0340
 2.9780	12.0550
 2.9800	12.0650
 2.9820	12.0870
 2.9840	12.0650
 2.9850	12.0780
 2.9870	12.0410
 2.9890	12.0430
 2.9900	11.9880
 2.9920	12.0030
 2.9940	12.0480
 2.9960	12.0720
 2.9970	11.9700
 2.9990	12.0170
 3.0010	12.0700
 3.0030	12.0670
 3.0040	12.0340
 3.0060	12.1010
 3.0080	12.0660
 3.0100	12.0570
 3.0110	12.0170
 3.0130	12.0210
 3.0150	12.0230
 3.0170	12.0450
 3.0180	11.9920
 3.0200	11.9660
 3.0220	11.9510
 3.0240	12.0050
 3.0250	12.0190
 3.0270	12.0350
 3.0290	12.0390
 3.0310	12.0760
 3.0320	12.0140
 3.0340	12.0490
 3.0360	12.0310
 3.0380	11.9890
 3.0400	11.9590
 3.0410	12.0120
 3.0430	11.9950
 3.0450	11.9700
 3.0470	11.9160
 3.0480	12.0060
 3.0500	12.0360
 3.0520	12.0180
 3.0540	11.9980
 3.0560	12.0620
 3.0570	12.0840
 3.0590	12.0880
 3.0610	12.0760
 3.0630	12.0700
 3.0650	12.0160
 3.0670	12.0450
 3.0680	12.0040
 3.0700	11.9840
 3.0720	11.9450
 3.0740	11.9700
 3.0760	12.0210
 3.0770	12.0810
 3.0790	12.0310
 3.0810	11.9650
 3.0830	11.9370
 3.0850	11.9640
 3.0870	11.9570
 3.0880	12.0300
 3.0900	12.0030
 3.0920	11.9890
 3.0940	11.9670
 3.0960	11.9970
 3.0980	11.9910
 3.1000	12.0320
 3.1010	11.9970
 3.1030	11.9820
 3.1050	11.9330
 3.1070	11.9970
 3.1090	12.0200
 3.1110	11.9950
 3.1130	11.9720
 3.1140	11.9750
 3.1160	11.8940
 3.1180	11.9180
 3.1200	11.9400
 3.1220	11.9740
 3.1240	11.9970
 3.1260	11.9570
 3.1280	11.8830
 3.1290	11.9350
 3.1310	11.9960
 3.1330	11.9980
 3.1350	11.9340
 3.1370	12.0070
 3.1390	11.9900
 3.1410	11.9670
 3.1430	11.9240
 3.1450	11.9420
 3.1470	11.8850
 3.1480	11.9320
 3.1500	11.9900
 3.1520	12.0240
 3.1540	11.9780
 3.1560	11.9760
 3.1580	11.9380
 3.1600	11.9380
 3.1620	11.9720
 3.1640	12.0190
 3.1660	11.9640
 3.1680	11.9490
 3.1700	11.9490
 3.1720	12.0010
 3.1730	11.9730
 3.1750	11.9590
 3.1770	11.9300
 3.1790	11.9280
 3.1810	11.9160
 3.1830	11.9500
 3.1850	11.9450
 3.1870	11.9680
 3.1890	11.9370
 3.1910	11.8720
 3.1930	11.8330
 3.1950	11.9240
 3.1970	11.8890
 3.1990	11.8650
 3.2010	11.8650
 3.2030	11.8730
 3.2050	11.8430
 3.2070	11.8720
 3.2090	11.8390
 3.2110	11.8710
 3.2130	11.8820
 3.2150	11.8830
 3.2170	11.8390
 3.2190	11.8690
 3.2210	11.8690
 3.2230	11.8150
 3.2250	11.7380
 3.2270	11.7910
 3.2290	11.8710
 3.2310	11.8920
 3.2330	11.8650
 3.2350	11.9070
 3.2370	11.9220
 3.2390	11.9230
 3.2410	11.8980
 3.2430	11.8970
 3.2450	11.8480
 3.2470	11.8270
 3.2490	11.8010
 3.2510	11.8440
 3.2530	11.8490
 3.2550	11.8950
 3.2570	11.9070
 3.2590	11.9020
 3.2610	11.8520
 3.2630	11.8270
 3.2650	11.8550
 3.2670	11.9240
 3.2700	11.8890
 3.2720	11.8930
 3.2740	11.8770
 3.2760	11.8610
 3.2780	11.8090
 3.2800	11.8340
 3.2820	11.8170
 3.2840	11.8040
 3.2860	11.7860
 3.2880	11.8310
 3.2900	11.8370
 3.2920	11.8470
 3.2940	11.8180
 3.2970	11.8070
 3.2990	11.7580
 3.3010	11.7960
 3.3030	11.8270
 3.3050	11.8410
 3.3070	11.7800
 3.3090	11.8220
 3.3110	11.8200
 3.3130	11.8340
 3.3160	11.8170
 3.3180	11.7460
 3.3200	11.6830
 3.3220	11.7510
 3.3240	11.7480
 3.3260	11.7280
 3.3280	11.7530
 3.3300	11.7840
 3.3330	11.7600
 3.3350	11.7760
 3.3370	11.7600
 3.3390	11.7810
 3.3410	11.7680
 3.3430	11.7640
 3.3450	11.7240
 3.3480	11.7490
 3.3500	11.7170
 3.3520	11.7370
 3.3540	11.7650
 3.3560	11.7660
 3.3580	11.6870
 3.3610	11.7020
 3.3630	11.7060
 3.3650	11.7270
 3.3670	11.7210
 3.3690	11.7200
 3.3720	11.6980
 3.3740	11.7340
 3.3760	11.7360
 3.3780	11.7770
 3.3800	11.7600
 3.3830	11.7490
 3.3850	11.7450
 3.3870	11.7270
 3.3890	11.6740
 3.3910	11.6870
 3.3940	11.6660
 3.3960	11.7280
 3.3980	11.7750
 3.4000	11.8210
 3.4030	11.8090
 3.4050	11.8360
 3.4070	11.8800
 3.4090	11.9660
 3.4110	12.0110
 3.4140	12.0760
 3.4160	12.1540
 3.4180	12.3190
 3.4200	12.4280
 3.4230	12.5580
 3.4250	12.7290
 3.4270	12.9230
 3.4300	12.9900
 3.4320	12.8970
 3.4340	12.6600
 3.4360	12.4900
 3.4390	12.3560
 3.4410	12.3220
 3.4430	12.3220
 3.4450	12.3360
 3.4480	12.2840
 3.4500	12.2730
 3.4520	12.2420
 3.4550	12.2260
 3.4570	12.1750
 3.4590	12.1560
 3.4620	12.1270
 3.4640	12.1330
 3.4660	12.1160
 3.4690	12.1390
 3.4710	12.1000
 3.4730	12.0650
 3.4760	12.0530
 3.4780	12.0570
 3.4800	12.0090
 3.4830	12.0300
 3.4850	12.0220
 3.4870	11.9930
 3.4900	11.9640
 3.4920	11.9810
 3.4940	11.9770
 3.4970	11.9930
 3.4990	12.0710
 3.5010	12.1710
 3.5040	12.2220
 3.5060	12.3760
 3.5080	12.6210
 3.5110	12.8330
 3.5130	12.7850
 3.5160	12.5930
 3.5180	12.4210
 3.5200	12.3240
 3.5230	12.2880
 3.5250	12.3090
 3.5280	12.2530
 3.5300	12.2080
 3.5320	12.1870
 3.5350	12.1860
 3.5370	12.1630
 3.5400	12.1710
 3.5420	12.1720
 3.5440	12.2160
 3.5470	12.2120
 3.5490	12.1980
 3.5520	12.1520
 3.5540	12.1620
 3.5570	12.1300
 3.5590	12.1410
 3.5610	12.1320
 3.5640	12.1260
 3.5660	12.0920
 3.5690	12.1180
 3.5710	12.1430
 3.5740	12.1580
 3.5760	12.1710
 3.5790	12.1930
 3.5810	12.1830
 3.5840	12.2230
 3.5860	12.2270
 3.5890	12.2230
 3.5910	12.1980
 3.5940	12.2350
 3.5960	12.2460
 3.5990	12.2500
 3.6010	12.2300
 3.6040	12.2160
 3.6060	12.2150
 3.6090	12.2180
 3.6110	12.1930
 3.6140	12.1830
 3.6160	12.1600
 3.6190	12.2260
 3.6210	12.2280
 3.6240	12.2130
 3.6260	12.2330
 3.6290	12.2790
 3.6310	12.2350
 3.6340	12.2230
 3.6360	12.2570
 3.6390	12.3020
 3.6410	12.2860
 3.6440	12.2880
 3.6470	12.2660
 3.6490	12.2770
 3.6520	12.2790
 3.6540	12.2960
 3.6570	12.3040
 3.6590	12.3240
 3.6620	12.3100
 3.6650	12.3300
 3.6670	12.3400
 3.6700	12.3570
 3.6720	12.3770
 3.6750	12.3980
 3.6780	12.4130
 3.6800	12.4200
 3.6830	12.3620
 3.6850	12.3620
 3.6880	12.3810
 3.6910	12.4440
 3.6930	12.4690
 3.6960	12.4730
 3.6990	12.4420
 3.7010	12.4290
 3.7040	12.4500
 3.7070	12.4750
 3.7090	12.4810
 3.7120	12.5020
 3.7150	12.4990
 3.7170	12.5320
 3.7200	12.5360
 3.7230	12.5820
 3.7250	12.6030
 3.7280	12.6040
 3.7310	12.5650
 3.7330	12.6020
 3.7360	12.6150
 3.7390	12.6260
 3.7410	12.6340
 3.7440	12.6770
 3.7470	12.6880
 3.7490	12.6870
 3.7520	12.6750
 3.7550	12.7290
 3.7580	12.7600
 3.7600	12.7650
 3.7630	12.7490
 3.7660	12.7680
 3.7690	12.7700
 3.7710	12.8150
 3.7740	12.8300
 3.7770	12.8650
 3.7790	12.8860
 3.7820	12.8950
 3.7850	12.8780
 3.7880	12.8870
 3.7910	12.9060
 3.7930	12.9580
 3.7960	12.9700
 3.7990	12.9860
 3.8020	12.9730
 3.8040	12.9790
 3.8070	12.9960
 3.8100	13.0300
 3.8130	13.0160
 3.8160	13.0220
 3.8180	13.0090
 3.8210	13.0150
 3.8240	13.0220
 3.8270	13.0670
 3.8300	13.0940
 3.8330	13.1130
 3.8350	13.1360
 3.8380	13.1680
 3.8410	13.1210
 3.8440	13.1090
 3.8470	13.1380
 3.8500	13.1960
 3.8520	13.2040
 3.8550	13.2130
 3.8580	13.1930
 3.8610	13.2050
 3.8640	13.2160
 3.8670	13.2510
 3.8700	13.2530
 3.8730	13.2460
 3.8760	13.2550
 3.8780	13.2870
 3.8810	13.2600
 3.8840	13.2730
 3.8870	13.3010
 3.8900	13.3280
 3.8930	13.3440
 3.8960	13.3490
 3.8990	13.3190
 3.9020	13.3200
 3.9050	13.3600
 3.9080	13.3690
 3.9110	13.3450
 3.9140	13.3470
 3.9170	13.3880
 3.9190	13.4570
 3.9220	13.4300
 3.9250	13.3980
 3.9280	13.3830
 3.9310	13.3860
 3.9340	13.3550
 3.9370	13.3600
 3.9400	13.3910
 3.9430	13.4040
 3.9460	13.3860
 3.9490	13.3890
 3.9520	13.3550
 3.9550	13.3710
 3.9580	13.3660
 3.9610	13.3680
 3.9640	13.3630
 3.9670	13.3690
 3.9700	13.3340
 3.9740	13.3540
 3.9770	13.3950
 3.9800	13.3870
 3.9830	13.3650
 3.9860	13.4090
 3.9890	13.3810
 3.9920	13.3580
 3.9950	13.3470
 3.9980	13.3760
 4.0010	13.3750
 4.0040	13.3830
 4.0070	13.3710
 4.0100	13.3940
 4.0140	13.4060
 4.0170	13.4100
 4.0200	13.4020
 4.0230	13.4130
 4.0260	13.4000
 4.0290	13.3850
 4.0320	13.3760
 4.0350	13.4260
 4.0390	13.4310
 4.0420	13.4190
 4.0450	13.4160
 4.0480	13.4200
 4.0510	13.3790
 4.0540	13.3620
 4.0570	13.3460
 4.0610	13.3350
 4.0640	13.3190
 4.0670	13.3660
 4.0700	13.3960
 4.0730	13.4070
 4.0770	13.3870
 4.0800	13.3930
 4.0830	13.3870
 4.0860	13.3990
 4.0890	13.3930
 4.0930	13.3870
 4.0960	13.3970
 4.0990	13.4020
 4.1020	13.3970
 4.1060	13.3880
 4.1090	13.3340
 4.1120	13.3330
 4.1150	13.3460
 4.1190	13.3450
 4.1220	13.3020
 4.1250	13.3060
 4.1290	13.2950
 4.1320	13.2980
 4.1350	13.2790
 4.1380	13.2720
 4.1420	13.2620
 4.1450	13.2730
 4.1480	13.2850
 4.1520	13.2860
 4.1550	13.2740
 4.1580	13.2360
 4.1620	13.1990
 4.1650	13.2330
 4.1680	13.2430
 4.1720	13.2350
 4.1750	13.1960
 4.1780	13.1670
 4.1820	13.1580
 4.1850	13.1750
 4.1890	13.1650
 4.1920	13.1320
 4.1950	13.0590
 4.1990	13.0350
 4.2020	13.0120
 4.2060	12.9490
 4.2090	12.8450
 4.2120	12.8080
 4.2160	12.7520
 4.2190	12.6460
 4.2230	12.5730
 4.2260	12.4980
 4.2300	12.3450
 4.2330	12.3290
 4.2360	12.2920
 4.2400	12.3500
 4.2430	12.4480
 4.2470	12.5140
 4.2500	12.5700
 4.2540	12.6420
 4.2570	12.6220
 4.2610	12.5230
 4.2640	12.4250
 4.2680	12.4180
 4.2710	12.4220
 4.2750	12.4040
 4.2780	12.4240
 4.2820	12.4940
 4.2850	12.4400
 4.2890	12.4240
 4.2930	12.4390
 4.2960	12.4300
 4.3000	12.3910
 4.3030	12.4050
 4.3070	12.4140
 4.3100	12.4480
 4.3140	12.4440
 4.3180	12.4750
 4.3210	12.5100
 4.3250	12.5000
 4.3280	12.4940
 4.3320	12.5140
 4.3360	12.5320
 4.3390	12.5430
 4.3430	12.5320
 4.3470	12.5330
 4.3500	12.5330
 4.3540	12.5570
 4.3580	12.5470
 4.3610	12.5220
 4.3650	12.5430
 4.3690	12.5520
 4.3720	12.5490
 4.3760	12.5290
 4.3800	12.4950
 4.3830	12.4690
 4.3870	12.4390
 4.3910	12.4520
 4.3940	12.4620
 4.3980	12.4800
 4.4020	12.4410
 4.4060	12.4150
 4.4090	12.4120
 4.4130	12.4130
 4.4170	12.3690
 4.4210	12.3450
 4.4240	12.3560
 4.4280	12.3560
 4.4320	12.3200
 4.4360	12.3250
 4.4400	12.3420
 4.4430	12.3420
 4.4470	12.3150
 4.4510	12.2970
 4.4550	12.2790
 4.4590	12.2890
 4.4630	12.3130
 4.4660	12.3220
 4.4700	12.2960
 4.4740	12.2910
 4.4780	12.2580
 4.4820	12.2400
 4.4860	12.2600
 4.4900	12.2700
 4.4930	12.2150
 4.4970	12.1880
 4.5010	12.1860
 4.5050	12.1760
 4.5090	12.1690
 4.5130	12.1710
 4.5170	12.1850
 4.5210	12.1600
 4.5250	12.1000
 4.5290	12.1230
 4.5330	12.1510
 4.5370	12.1200
 4.5410	12.0970
 4.5450	12.1050
 4.5490	12.1310
 4.5530	12.1350
 4.5570	12.1030
 4.5610	12.0520
 4.5650	12.0450
 4.5690	12.0880
 4.5730	12.0740
 4.5770	12.0560
 4.5810	12.0600
 4.5850	12.1190
 4.5890	12.1250
 4.5930	12.0750
 4.5970	12.0230
 4.6010	12.0250
 4.6050	12.0500
 4.6090	12.0200
 4.6130	12.0150
 4.6170	12.0280
 4.6220	11.9950
 4.6260	12.0050
 4.6300	12.0390
 4.6340	12.0350
 4.6380	12.0060
 4.6420	12.0230
 4.6460	12.0320
 4.6510	12.0580
 4.6550	12.0310
 4.6590	11.9890
 4.6630	12.0020
 4.6670	12.0130
 4.6720	11.9810
 4.6760	11.9610
 4.6800	11.9760
 4.6840	11.9690
 4.6880	11.9650
 4.6930	11.9890
 4.6970	11.9950
 4.7010	11.9990
 4.7050	11.9940
 4.7100	11.9910
 4.7140	12.0060
 4.7180	11.9910
 4.7230	11.9870
 4.7270	11.9780
 4.7310	11.9790
 4.7360	12.0150
 4.7400	12.0340
 4.7440	12.0300
 4.7490	12.0010
 4.7530	12.0080
 4.7570	12.0200
 4.7620	12.0260
 4.7660	12.0340
 4.7700	12.0320
 4.7750	12.0050
 4.7790	11.9870
 4.7840	11.9480
 4.7880	11.9730
 4.7920	12.0060
 4.7970	11.9890
 4.8010	12.0100
 4.8060	12.0350
 4.8100	12.0270
 4.8150	12.0230
 4.8190	12.0450
 4.8240	12.0370
 4.8280	12.0320
 4.8330	12.0420
 4.8370	12.0110
 4.8420	11.9720
 4.8460	12.0120
 4.8510	12.0430
 4.8550	12.0160
 4.8600	12.0320
 4.8640	12.0680
 4.8690	12.0740
 4.8740	12.0660
 4.8780	12.0700
 4.8830	12.0650
 4.8870	12.0720
 4.8920	12.0790
 4.8970	12.0490
 4.9010	12.0700
 4.9060	12.1640
 4.9100	12.1910
 4.9150	12.1650
 4.9200	12.1440
 4.9240	12.1590
 4.9290	12.1860
 4.9340	12.1680
 4.9390	12.1680
 4.9430	12.2210
 4.9480	12.2210
 4.9530	12.1110
 4.9570	12.0200
 4.9620	12.1210
 4.9670	12.2420
 4.9720	12.2550
 4.9760	12.2440
 4.9810	12.2420
 4.9860	12.2930
 4.9910	12.3140
 4.9960	12.3180
 5.0000	12.3060
 5.0050	12.3230
 5.0100	12.3680
 5.0150	12.2540
 5.0200	12.0070
 5.0250	12.1410
 5.0300	12.2720
 5.0340	12.3240
 5.0390	12.4180
 5.0440	12.4570
 5.0490	12.4390
 5.0540	12.4380
 5.0590	12.4630
 5.0640	12.5080
 5.0690	12.4940
 5.0740	12.4710
 5.0790	12.3800
 5.0840	12.2230
 5.0890	12.3630
 5.0940	12.5080
 5.0990	12.5240
 5.1040	12.5570
 5.1090	12.6020
 5.1140	12.5740
 5.1190	12.5580
 5.1240	12.5910
 5.1290	12.6200
 5.1340	12.5930
 5.1390	12.4970
 5.1440	12.2540
 5.1490	12.1010
 5.1550	12.5280
 5.1600	12.7090
 5.1650	12.7160
 5.1700	12.7160
 5.1750	12.7700
 5.1800	12.7500
 5.1850	12.7340
 5.1910	12.7240
 5.1960	12.5610
 5.2010	12.2850
 5.2060	12.4390
 5.2110	12.1280
 5.2170	12.1140
 5.2220	12.6110
 5.2270	12.7320
 5.2330	12.5960
 5.2380	12.4520
 5.2430	12.5840
 5.2480	12.7010
 5.2540	12.7490
 5.2590	12.7970
 5.2640	12.8420
 5.2700	12.7660
 5.2750	12.5790
 5.2800	12.6490
 5.2860	12.6750
 5.2910	12.2280
 5.2970	12.3430
 5.3020	12.6620
 5.3080	12.7030
 5.3130	12.7630
 5.3180	12.7370
 5.3240	12.7380
 5.3290	12.7730
 5.3350	12.7750
 5.3400	12.6240
 5.3460	11.9680
 5.3510	11.2840
 5.3570	11.7540
 5.3620	12.4220
 5.3680	12.6420
 5.3740	12.5810
 5.3790	12.5700
 5.3850	12.5900
 5.3900	12.6480
 5.3960	12.6130
 5.4010	12.6150
 5.4070	12.4370
 5.4130	12.1420
 5.4180	11.3220
 5.4240	10.8580
 5.4300	11.9200
 5.4350	12.4890
 5.4410	12.3600
 5.4470	12.3320
 5.4530	12.4050
 5.4580	11.9880
 5.4640	11.0780
 5.4700	11.4100
 5.4760	11.6350
 5.4810	11.5160
 5.4870	12.0880
 5.4930	12.2820
 5.4990	12.2510
 5.5050	12.1690
 5.5110	12.2620
 5.5160	11.9980
 5.5220	11.6770
 5.5280	11.8050
 5.5340	12.0260
 5.5400	12.0200
 5.5460	11.6980
 5.5520	11.1490
 5.5580	11.1750
 5.5640	11.4900
 5.5700	11.3940
 5.5760	10.4710
 5.5820	10.0750
 5.5880	11.1210
 5.5940	11.7130
 5.6000	11.3660
 5.6060	11.2270
 5.6120	11.1930
 5.6180	11.0100
 5.6240	11.2860
 5.6300	11.0910
 5.6360	10.1910
 5.6420	 9.1020
 5.6490	 9.7640
 5.6550	10.3520
 5.6610	10.8430
 5.6670	11.1890
 5.6730	10.3910
 5.6800	10.3200
 5.6860	10.7500
 5.6920	10.4350
 5.6980	10.8100
 5.7050	10.4880
 5.7110	 9.3700
 5.7170	 9.3450
 5.7230	 9.8780
 5.7300	10.3460
 5.7360	10.2620
 5.7420	10.0330
 5.7490	 9.7100
 5.7550	10.3350
 5.7620	 9.3290
 5.7680	 8.0990
 5.7740	 9.5500
 5.7810	10.5350
 5.7870	11.1580
 5.7940	11.4840
 5.8000	11.3100
 5.8070	11.3080
 5.8130	10.6130
 5.8200	 8.7620
 5.8260	 8.6090
 5.8330	 9.7640
 5.8390	10.8660
 5.8460	11.2870
 5.8530	11.0830
 5.8590	10.3350
 5.8660	 9.9730
 5.8730	 9.9990
 5.8790	 8.0060
 5.8860	 8.1270
 5.8930	 8.8280
 5.8990	 8.8940
 5.9060	10.8120
 5.9130	11.2080
 5.9190	10.8620
 5.9260	10.6340
 5.9330	 8.8740
 5.9400	 7.9420
 5.9470	 9.9860
 5.9530	11.0440
 5.9600	11.2840
 5.9670	10.1190
 5.9740	10.2870
 5.9810	10.6120
 5.9880	 9.6890
 5.9950	10.1710
 6.0020	11.5760
 6.0090	11.2600
 6.0160	10.6240
 6.0230	11.3860
 6.0300	11.8460
 6.0370	11.2270
 6.0440	 8.5960
 6.0510	 6.9990
 6.0580	 9.5390
 6.0650	10.2070
 6.0720	 8.9990
 6.0790	 9.8900
 6.0860	11.4740
 6.0930	11.7800
 6.1010	11.4300
 6.1080	 9.8750
 6.1150	 8.8130
 6.1220	10.5010
 6.1290	11.8620
 6.1370	11.5620
 6.1440	11.1360
 6.1510	11.1260
 6.1580	10.5050
 6.1660	10.8580
 6.1730	11.6080
 6.1800	10.3630
 6.1880	 9.7350
 6.1950	11.2500
 6.2030	11.8860
 6.2100	11.7040
 6.2180	11.6320
 6.2250	11.7930
 6.2320	11.8340
 6.2400	11.7610
 6.2480	11.8970
 6.2550	12.0040
 6.2630	11.8760
 6.2700	11.7310
 6.2780	11.8420
 6.2850	11.9280
 6.2930	11.9230
 6.3010	12.0020
 6.3080	11.9930
 6.3160	11.9460
 6.3240	11.8790
 6.3310	11.6320
 6.3390	10.1290
 6.3470	 9.3940
 6.3550	11.0230
 6.3620	11.1420
 6.3700	 9.9370
 6.3780	10.5090
 6.3860	11.0880
 6.3940	11.0040
 6.4020	10.3680
 6.4100	 7.4040
 6.4180	 6.5450
 6.4260	 8.7290
 6.4340	 9.7690
 6.4420	10.5340
 6.4500	10.6490
 6.4580	10.7870
 6.4660	10.7160
 6.4740	 9.5060
 6.4820	 8.4640
 6.4900	 7.1350
 6.4980	 7.5350
 6.5060	 9.8740
 6.5140	10.1850
 6.5230	 9.3580
 6.5310	10.4600
 6.5390	10.6910
 6.5470	 9.9970
 6.5560	 9.5070
 6.5640	 9.0880
 6.5720	 7.9730
 6.5800	 8.7210
 6.5890	 9.1970
 6.5970	 9.5510
 6.6060	10.4000
 6.6140	10.3240
 6.6230	 9.6790
 6.6310	 7.8720
 6.6390	 7.1340
 6.6480	 9.5380
 6.6570	11.1550
 6.6650	10.7530
 6.6740	 9.8440
 6.6820	 9.5400
 6.6910	10.5750
 6.7000	11.0650
 6.7080	 9.8310
 6.7170	 9.5520
 6.7260	10.2920
 6.7340	11.2400
 6.7430	11.4900
 6.7520	11.3180
 6.7610	11.4060
 6.7690	10.7690
 6.7780	 9.9300
 6.7870	 9.0480
 6.7960	 9.4020
 6.8050	11.0750
 6.8140	11.3400
 6.8230	10.5350
 6.8320	10.6480
 6.8410	11.5080
 6.8500	10.4530
 6.8590	 8.4310
 6.8680	 8.4780
 6.8770	10.6520
 6.8860	11.4310
 6.8960	11.4920
 6.9050	10.9610
 6.9140	11.2740
 6.9230	11.7500
 6.9320	11.9030
 6.9420	11.8610
 6.9510	11.0450
 6.9600	 9.7110
 6.9700	10.6840
 6.9790	11.5550
 6.9880	11.3170
 6.9980	11.2530
 7.0070	11.6990
 7.0170	11.4070
 7.0260	11.2660
 7.0360	10.9250
 7.0450	 9.7360
 7.0550	10.2460
 7.0650	11.4500
 7.0740	11.7910
 7.0840	11.7950
 7.0940	11.7510
 7.1030	11.7660
 7.1130	11.3690
 7.1230	11.3740
 7.1330	11.6400
 7.1420	11.0630
 7.1520	10.6520
 7.1620	10.6270
 7.1720	10.4910
 7.1820	11.3330
 7.1920	11.6480
 7.2020	11.1500
 7.2120	10.8850
 7.2220	11.5820
 7.2320	11.7560
 7.2420	11.7320
 7.2520	11.5850
 7.2620	11.5000
 7.2730	10.9740
 7.2830	11.0660
 7.2930	11.5370
 7.3030	11.5830
 7.3140	11.5590
 7.3240	11.5470
 7.3340	10.9020
 7.3450	10.9270
 7.3550	11.4340
 7.3660	11.7130
 7.3760	11.6040
 7.3870	11.6540
 7.3970	11.7050
 7.4080	11.7190
 7.4180	11.6730
 7.4290	11.7220
 7.4400	11.6710
 7.4500	11.5450
 7.4610	11.0490
 7.4720	10.9850
 7.4830	11.2550
 7.4930	11.5910
 7.5040	11.6790
 7.5150	11.7310
 7.5260	11.7000
 7.5370	11.7380
 7.5480	11.6970
 7.5590	11.6940
 7.5700	11.5760
 7.5810	11.4940
 7.5920	11.4850
 7.6030	11.5590
 7.6140	11.5270
 7.6260	11.6000
 7.6370	11.5950
 7.6480	11.6590
 7.6590	11.6240
 7.6710	11.6660
 7.6820	11.6290
 7.6940	11.6350
 7.7050	11.5810
 7.7160	11.6300
 7.7280	11.6170
 7.7390	11.6340
 7.7510	11.5560
 7.7630	11.5500
 7.7740	11.5400
 7.7860	11.6140
 7.7980	11.5700
 7.8090	11.6230
 7.8210	11.6040
 7.8330	11.6360
 7.8450	11.6010
 7.8570	11.6230
 7.8690	11.6040
 7.8810	11.6980
 7.8930	11.6660
 7.9050	11.6720
 7.9170	11.6350
 7.9290	11.6490
 7.9410	11.5690
 7.9530	11.6410
 7.9650	11.5830
 7.9780	11.6190
 7.9900	11.6380
 8.0020	11.7210
 8.0150	11.6370
 8.0270	11.6490
 8.0390	11.5990
 8.0520	11.7140
 8.0640	11.7220
 8.0770	11.7730
 8.0900	11.7150
 8.1020	11.7720
 8.1150	11.7170
 8.1280	11.7830
 8.1400	11.7530
 8.1530	11.7650
 8.1660	11.7180
 8.1790	11.8250
 8.1920	11.7610
 8.2050	11.8120
 8.2180	11.7710
 8.2310	11.8300
 8.2440	11.7230
 8.2570	11.7690
 8.2700	11.7420
 8.2830	11.8400
 8.2970	11.8060
 8.3100	11.8850
 8.3230	11.8550
 8.3370	11.9150
 8.3500	11.8360
 8.3640	11.8880
 8.3770	11.8780
 8.3910	11.9410
 8.4040	11.8650
 8.4180	11.9320
 8.4320	11.8710
 8.4450	11.9540
 8.4590	11.8880
 8.4730	11.9800
 8.4870	12.0490
 8.5010	12.1530
 8.5150	12.0360
 8.5290	12.1090
 8.5430	12.0810
 8.5570	12.2180
 8.5710	12.1990
 8.5850	12.2580
 8.5990	12.2420
 8.6140	12.3860
 8.6280	12.3280
 8.6420	12.4000
 8.6570	12.3660
 8.6710	12.4550
 8.6860	12.3510
 8.7000	12.3770
 8.7150	12.3380
 8.7300	12.4770
 8.7440	12.4230
 8.7590	12.4140
 8.7740	12.3490
 8.7890	12.4710
 8.8040	12.4200
 8.8190	12.5150
 8.8340	12.4700
 8.8490	12.5180
 8.8640	12.5250
 8.8790	12.5910
 8.8940	12.4280
 8.9100	12.5060
 8.9250	12.5250
 8.9400	12.6700
 8.9560	12.5720
 8.9710	12.6120
 8.9870	12.5220
 9.0020	12.6170
 9.0180	12.5740
 9.0340	12.5940
 9.0500	12.4250
 9.0650	12.4910
 9.0810	12.4910
 9.0970	12.5990
 9.1130	12.5130
 9.1290	12.6300
 9.1450	12.5290
 9.1620	12.5470
 9.1780	12.4690
 9.1940	12.5900
 9.2100	12.5670
 9.2270	12.6560
 9.2430	12.5670
 9.2600	12.6170
 9.2760	12.5090
 9.2930	12.5760
 9.3100	12.5360
 9.3260	12.6740
 9.3430	12.5640
 9.3600	12.6350
 9.3770	12.5880
 9.3940	12.6810
 9.4110	12.6120
 9.4280	12.6620
 9.4450	12.5360
 9.4620	12.5530
 9.4800	12.4990
 9.4970	12.6430
 9.5150	12.5700
 9.5320	12.6180
 9.5500	12.4990
 9.5670	12.5960
 9.5850	12.5690
 9.6030	12.6240
 9.6200	12.5560
 9.6380	12.6020
 9.6560	12.5320
 9.6740	12.5970
 9.6920	12.4530
 9.7110	12.5610
 9.7290	12.5270
 9.7470	12.5950
 9.7650	12.5530
 9.7840	12.6360
 9.8020	12.5060
 9.8210	12.5140
 9.8390	12.3930
 9.8580	12.4830
 9.8770	12.4090
 9.8960	12.4090
 9.9150	12.2180
 9.9340	12.2400
 9.9530	12.2340
 9.9720	12.3230
 9.9910	12.1880
10.0100	12.2290
10.0300	12.1780
10.0490	12.2460
10.0690	12.1670
10.0880	12.2720
10.1080	12.1930
10.1280	12.2590
10.1480	12.2190
10.1670	12.2320
10.1870	12.0480
10.2070	12.1050
10.2280	12.0470
10.2480	12.1190
10.2680	12.0860
10.2890	12.1690
10.3090	12.0750
10.3300	12.1320
10.3500	12.0330
10.3710	12.0810
10.3920	12.0220
10.4120	12.1490
10.4330	12.0470
10.4540	12.0930
10.4760	12.0430
10.4970	12.0930
10.5180	12.0320
10.5390	12.1140
10.5610	12.0180
10.5820	12.1230
10.6040	12.1200
10.6260	12.1520
10.6480	12.0020
10.6700	12.0800
10.6920	12.0490
10.7140	12.1460
10.7360	12.0490
10.7580	12.1030
10.7800	12.0280
10.8030	12.1520
10.8250	12.0570
10.8480	12.0980
10.8710	12.0660
10.8940	12.1560
10.9170	12.0150
10.9400	12.0660
10.9630	11.9670
10.9860	12.0970
11.0090	12.0870
11.0330	12.1530
11.0560	11.9870
11.0800	12.0640
11.1040	11.9760
11.1270	12.0610
11.1510	11.9690
11.1750	12.0940
11.2000	12.0120
11.2240	12.1280
11.2480	12.0620
11.2730	12.1580
11.2970	12.0070
11.3220	12.1210
11.3470	12.0600
11.3720	12.1510
11.3970	12.0860
11.4220	12.1770
11.4470	12.1340
11.4720	12.3140
11.4980	12.1160
11.5230	12.1530
11.5490	12.0410
11.5750	12.1150
11.6000	11.9630
11.6260	12.0450
11.6530	11.9690
11.6790	12.0800
11.7050	11.9860
11.7320	12.1250
11.7580	11.9690
11.7850	11.9880
11.8120	11.9420
11.8390	12.1170
11.8660	12.0230
11.8930	12.1110
11.9200	12.0100
11.9480	12.1070
11.9760	11.9070
12.0030	12.0370
12.0310	11.9440
12.0590	12.0240
12.0870	11.9520
12.1150	12.1520
12.1440	12.0170
12.1720	12.1280
12.2010	11.9620
12.2300	12.1030
12.2590	12.1020
12.2880	12.1810
12.3170	11.9290
12.3460	12.0880
12.3760	12.0320
12.4050	12.1850
12.4350	12.0050
12.4650	12.1300
12.4950	12.0310
12.5250	12.1190
12.5550	12.0170
12.5860	12.2060
12.6170	12.0720
12.6470	12.1400
12.6780	12.0030
12.7090	12.1000
12.7410	11.9560
12.7720	12.1230
12.8030	12.0380
12.8350	12.1490
12.8670	11.9650
12.8990	12.0850
12.9310	12.0160
12.9640	12.1340
12.9960	11.9140
13.0290	12.0430
13.0610	11.8800
13.0940	11.9990
13.1280	11.9070
13.1610	12.1150
13.1940	11.9280
13.2280	12.0730
13.2620	11.9000
13.2960	12.0220
13.3300	11.8050
13.3640	11.9020
13.3990	11.8040
13.4340	11.9300
13.4690	11.7660
13.5040	11.9380
13.5390	11.7630
13.5740	11.9370
13.6100	11.7700
13.6460	11.8720
13.6820	11.7440
13.7180	11.9460
13.7540	11.9000
13.7910	12.0030
13.8280	11.7470
13.8650	11.9920
13.9020	11.7640
13.9390	11.9370
13.9770	11.7640
14.0150	11.9810
14.0530	11.8160
14.0910	11.8660
14.1290	11.5470
14.1680	11.7690
14.2070	11.6310
14.2460	11.8760
14.2850	11.6700
14.3240	11.7990
14.3640	11.5880
14.4040	11.8040
14.4440	11.5470
14.4840	11.7890
14.5250	11.6660
14.5660	12.0200
14.6070	11.6940
14.6480	11.8450
14.6900	11.6160
14.7310	11.9210
14.7730	11.5590
14.8150	11.8220
14.8580	11.5750
14.9010	11.7480
14.9440	11.5450
14.9870	12.1210
15.0300	11.5730
15.0740	11.7550
15.1180	11.2300
15.1620	11.5630
15.2060	11.3220
15.2510	11.7850
15.2960	11.3720
15.3410	11.5650
15.3870	11.1430
