Name: Puya venusta
Type: vegetation
Class: Shrub
Genus: Puya
Species: venusta
Sample No.: JPL079
Owner: JPL
Wavelength Range: TIR
Origin: 34.12562; - 118.1098; WGS84
Collection Date: 2/2/2016
Description: Samples were collected at the Huntington Garden in San Marino California as part of a JPL Subcontract studying HyTES imagery. Samples were taken to JPL and processed within 48 hours of collection. The same leaves were processed in the Nicolet and then measured using the ASD.
Measurement: Hemispherical reflectance
First Column: X
Second Column: Y
X Units: Wavelength (micrometer)
Y Units: Reflectance (percentage)
First X Value: 2.501
Last X Value: 15.387
Number of X Values: 1737
Additional Information: 

 2.5010	11.8600
 2.5030	11.8770
 2.5040	11.7640
 2.5050	11.6730
 2.5060	11.7320
 2.5070	11.7630
 2.5090	11.7900
 2.5100	11.7700
 2.5110	11.7020
 2.5120	11.6660
 2.5140	11.6740
 2.5150	11.6630
 2.5160	11.7120
 2.5170	11.7090
 2.5180	11.7120
 2.5200	11.6540
 2.5210	11.6480
 2.5220	11.7070
 2.5230	11.7790
 2.5250	11.7530
 2.5260	11.7810
 2.5270	11.7740
 2.5280	11.7660
 2.5300	11.7530
 2.5310	11.7580
 2.5320	11.7160
 2.5330	11.7010
 2.5340	11.6860
 2.5360	11.7740
 2.5370	11.7470
 2.5380	11.7090
 2.5390	11.6790
 2.5410	11.7100
 2.5420	11.7750
 2.5430	11.8410
 2.5440	11.7440
 2.5460	11.7960
 2.5470	11.9010
 2.5480	11.8880
 2.5490	11.7950
 2.5510	11.8180
 2.5520	11.8600
 2.5530	11.9180
 2.5540	11.9340
 2.5560	11.8670
 2.5570	11.8010
 2.5580	11.8780
 2.5590	11.9110
 2.5610	11.9550
 2.5620	11.9070
 2.5630	11.9120
 2.5650	11.8960
 2.5660	11.8690
 2.5670	11.7900
 2.5680	11.8200
 2.5700	11.8270
 2.5710	11.8820
 2.5720	11.8680
 2.5730	11.8560
 2.5750	11.8670
 2.5760	11.8900
 2.5770	11.9360
 2.5790	11.9150
 2.5800	11.7890
 2.5810	11.8280
 2.5820	11.8360
 2.5840	11.9130
 2.5850	11.9840
 2.5860	11.9940
 2.5880	11.9160
 2.5890	11.8890
 2.5900	11.8360
 2.5910	11.8360
 2.5930	11.8340
 2.5940	11.9560
 2.5950	12.0430
 2.5970	11.9410
 2.5980	11.9040
 2.5990	11.9550
 2.6010	11.9430
 2.6020	11.9200
 2.6030	11.8680
 2.6040	11.9120
 2.6060	11.9290
 2.6070	11.9260
 2.6080	11.8790
 2.6100	11.9120
 2.6110	11.9460
 2.6120	11.9280
 2.6140	11.9070
 2.6150	11.8740
 2.6160	11.8870
 2.6180	12.0140
 2.6190	11.9330
 2.6200	11.8830
 2.6220	11.8970
 2.6230	11.8850
 2.6240	11.8690
 2.6260	11.8600
 2.6270	11.8390
 2.6280	11.7700
 2.6300	11.7470
 2.6310	11.8700
 2.6320	11.8770
 2.6340	11.8490
 2.6350	11.8520
 2.6360	11.8550
 2.6380	11.7810
 2.6390	11.7390
 2.6400	11.7280
 2.6420	11.8110
 2.6430	11.8200
 2.6440	11.8050
 2.6460	11.7750
 2.6470	11.7410
 2.6480	11.7130
 2.6500	11.7500
 2.6510	11.7560
 2.6520	11.7890
 2.6540	11.7150
 2.6550	11.7280
 2.6570	11.7290
 2.6580	11.7520
 2.6590	11.7640
 2.6610	11.7480
 2.6620	11.6920
 2.6630	11.6600
 2.6650	11.6720
 2.6660	11.7090
 2.6670	11.7110
 2.6690	11.7430
 2.6700	11.7590
 2.6720	11.7340
 2.6730	11.6550
 2.6740	11.6910
 2.6760	11.7010
 2.6770	11.7490
 2.6780	11.7160
 2.6800	11.6840
 2.6810	11.6110
 2.6830	11.6300
 2.6840	11.5490
 2.6850	11.5180
 2.6870	11.5860
 2.6880	11.5620
 2.6900	11.4680
 2.6910	11.4470
 2.6920	11.4240
 2.6940	11.4830
 2.6950	11.4980
 2.6970	11.4200
 2.6980	11.2990
 2.6990	11.2980
 2.7010	11.3120
 2.7020	11.3650
 2.7040	11.3020
 2.7050	11.2310
 2.7060	11.2170
 2.7080	11.2110
 2.7090	11.1990
 2.7110	11.2080
 2.7120	11.0960
 2.7130	10.9940
 2.7150	10.9050
 2.7160	10.9540
 2.7180	10.9340
 2.7190	10.9070
 2.7210	10.8130
 2.7220	10.7050
 2.7230	10.6300
 2.7250	10.6880
 2.7260	10.6290
 2.7280	10.5970
 2.7290	10.5640
 2.7310	10.5060
 2.7320	10.4230
 2.7340	10.4140
 2.7350	10.3660
 2.7360	10.3010
 2.7380	10.2180
 2.7390	10.2910
 2.7410	10.3020
 2.7420	10.1950
 2.7440	10.0490
 2.7450	10.0380
 2.7470	 9.9580
 2.7480	 9.9750
 2.7490	 9.9770
 2.7510	 9.9100
 2.7520	 9.8300
 2.7540	 9.8950
 2.7550	 9.9060
 2.7570	 9.8390
 2.7580	 9.7210
 2.7600	 9.6980
 2.7610	 9.6710
 2.7630	 9.7200
 2.7640	 9.6750
 2.7660	 9.6270
 2.7670	 9.5250
 2.7690	 9.4830
 2.7700	 9.4230
 2.7720	 9.4390
 2.7730	 9.3620
 2.7740	 9.2910
 2.7760	 9.1810
 2.7770	 9.1710
 2.7790	 9.2070
 2.7800	 9.2610
 2.7820	 9.1990
 2.7830	 9.1360
 2.7850	 9.0540
 2.7860	 9.0470
 2.7880	 8.9300
 2.7890	 8.8830
 2.7910	 8.8580
 2.7920	 8.8790
 2.7940	 8.8590
 2.7950	 8.8600
 2.7970	 8.7640
 2.7980	 8.6850
 2.8000	 8.6250
 2.8010	 8.6680
 2.8030	 8.6890
 2.8040	 8.6980
 2.8060	 8.6540
 2.8080	 8.4960
 2.8090	 8.4240
 2.8110	 8.5590
 2.8120	 8.5270
 2.8140	 8.4620
 2.8150	 8.4300
 2.8170	 8.4410
 2.8180	 8.3580
 2.8200	 8.3530
 2.8210	 8.2870
 2.8230	 8.2450
 2.8240	 8.2030
 2.8260	 8.2880
 2.8270	 8.2690
 2.8290	 8.1980
 2.8310	 8.1740
 2.8320	 8.1980
 2.8340	 8.1020
 2.8350	 8.0320
 2.8370	 7.9970
 2.8380	 8.0290
 2.8400	 8.0180
 2.8410	 8.0460
 2.8430	 8.0190
 2.8440	 8.0800
 2.8460	 8.0150
 2.8480	 8.0040
 2.8490	 7.9520
 2.8510	 7.9740
 2.8520	 7.9430
 2.8540	 7.9380
 2.8550	 7.9550
 2.8570	 7.9770
 2.8590	 7.9430
 2.8600	 7.9320
 2.8620	 7.8430
 2.8630	 7.8720
 2.8650	 7.8000
 2.8660	 7.6930
 2.8680	 7.7170
 2.8700	 7.8340
 2.8710	 7.8180
 2.8730	 7.8030
 2.8740	 7.7770
 2.8760	 7.7650
 2.8780	 7.7050
 2.8790	 7.7090
 2.8810	 7.7340
 2.8820	 7.7910
 2.8840	 7.7480
 2.8860	 7.7430
 2.8870	 7.7440
 2.8890	 7.8060
 2.8900	 7.7750
 2.8920	 7.8280
 2.8940	 7.7130
 2.8950	 7.6390
 2.8970	 7.6090
 2.8990	 7.6240
 2.9000	 7.5850
 2.9020	 7.6020
 2.9030	 7.6160
 2.9050	 7.6750
 2.9070	 7.6630
 2.9080	 7.6570
 2.9100	 7.6130
 2.9120	 7.6120
 2.9130	 7.5990
 2.9150	 7.6200
 2.9160	 7.5870
 2.9180	 7.6140
 2.9200	 7.6370
 2.9210	 7.6680
 2.9230	 7.6200
 2.9250	 7.6040
 2.9260	 7.5880
 2.9280	 7.6310
 2.9300	 7.6310
 2.9310	 7.6840
 2.9330	 7.6550
 2.9350	 7.6810
 2.9360	 7.6720
 2.9380	 7.6820
 2.9400	 7.6710
 2.9410	 7.6650
 2.9430	 7.6570
 2.9450	 7.6490
 2.9460	 7.6470
 2.9480	 7.7410
 2.9500	 7.7450
 2.9510	 7.7240
 2.9530	 7.7200
 2.9550	 7.7720
 2.9560	 7.7120
 2.9580	 7.7400
 2.9600	 7.7870
 2.9610	 7.8180
 2.9630	 7.7540
 2.9650	 7.7650
 2.9670	 7.7790
 2.9680	 7.8360
 2.9700	 7.8360
 2.9720	 7.8050
 2.9730	 7.7930
 2.9750	 7.8780
 2.9770	 7.8320
 2.9780	 7.8600
 2.9800	 7.9170
 2.9820	 7.9200
 2.9840	 7.8950
 2.9850	 7.8960
 2.9870	 7.8790
 2.9890	 7.9130
 2.9900	 7.8750
 2.9920	 7.8840
 2.9940	 7.9230
 2.9960	 7.9870
 2.9970	 7.9990
 2.9990	 8.0180
 3.0010	 8.0770
 3.0030	 8.1560
 3.0040	 8.1340
 3.0060	 8.1060
 3.0080	 8.1120
 3.0100	 8.2070
 3.0110	 8.1840
 3.0130	 8.2220
 3.0150	 8.2630
 3.0170	 8.2560
 3.0180	 8.2540
 3.0200	 8.2570
 3.0220	 8.2450
 3.0240	 8.3140
 3.0250	 8.3470
 3.0270	 8.3840
 3.0290	 8.3640
 3.0310	 8.3520
 3.0320	 8.3420
 3.0340	 8.4170
 3.0360	 8.3800
 3.0380	 8.3510
 3.0400	 8.3440
 3.0410	 8.3750
 3.0430	 8.4030
 3.0450	 8.5010
 3.0470	 8.4680
 3.0480	 8.4810
 3.0500	 8.5000
 3.0520	 8.5460
 3.0540	 8.5220
 3.0560	 8.5510
 3.0570	 8.6380
 3.0590	 8.7280
 3.0610	 8.6850
 3.0630	 8.7020
 3.0650	 8.6970
 3.0670	 8.7300
 3.0680	 8.7850
 3.0700	 8.7960
 3.0720	 8.7490
 3.0740	 8.7820
 3.0760	 8.7330
 3.0770	 8.7790
 3.0790	 8.8180
 3.0810	 8.8810
 3.0830	 8.8940
 3.0850	 8.9100
 3.0870	 8.9180
 3.0880	 8.9210
 3.0900	 8.9250
 3.0920	 8.9680
 3.0940	 8.9770
 3.0960	 9.0190
 3.0980	 9.0030
 3.1000	 8.9630
 3.1010	 8.9900
 3.1030	 9.0330
 3.1050	 8.9820
 3.1070	 9.0680
 3.1090	 9.1350
 3.1110	 9.1130
 3.1130	 9.0800
 3.1140	 9.1260
 3.1160	 9.1400
 3.1180	 9.1990
 3.1200	 9.2080
 3.1220	 9.1580
 3.1240	 9.1370
 3.1260	 9.1740
 3.1280	 9.1940
 3.1290	 9.2290
 3.1310	 9.2190
 3.1330	 9.2670
 3.1350	 9.2570
 3.1370	 9.2450
 3.1390	 9.2620
 3.1410	 9.2800
 3.1430	 9.2850
 3.1450	 9.3540
 3.1470	 9.3500
 3.1480	 9.3260
 3.1500	 9.3310
 3.1520	 9.3870
 3.1540	 9.3370
 3.1560	 9.3220
 3.1580	 9.3270
 3.1600	 9.3880
 3.1620	 9.4590
 3.1640	 9.4790
 3.1660	 9.4590
 3.1680	 9.4690
 3.1700	 9.4070
 3.1720	 9.4490
 3.1730	 9.4860
 3.1750	 9.5410
 3.1770	 9.5540
 3.1790	 9.5430
 3.1810	 9.5290
 3.1830	 9.5140
 3.1850	 9.4910
 3.1870	 9.5460
 3.1890	 9.5710
 3.1910	 9.5760
 3.1930	 9.5230
 3.1950	 9.5820
 3.1970	 9.5880
 3.1990	 9.5780
 3.2010	 9.5690
 3.2030	 9.5970
 3.2050	 9.5990
 3.2070	 9.6150
 3.2090	 9.6190
 3.2110	 9.6240
 3.2130	 9.5520
 3.2150	 9.6210
 3.2170	 9.6550
 3.2190	 9.6470
 3.2210	 9.6170
 3.2230	 9.6670
 3.2250	 9.6600
 3.2270	 9.6970
 3.2290	 9.7180
 3.2310	 9.7270
 3.2330	 9.7110
 3.2350	 9.7060
 3.2370	 9.7060
 3.2390	 9.7180
 3.2410	 9.6860
 3.2430	 9.7300
 3.2450	 9.7190
 3.2470	 9.7500
 3.2490	 9.7550
 3.2510	 9.7210
 3.2530	 9.7160
 3.2550	 9.7290
 3.2570	 9.7020
 3.2590	 9.7730
 3.2610	 9.7670
 3.2630	 9.7560
 3.2650	 9.7620
 3.2670	 9.7870
 3.2700	 9.7560
 3.2720	 9.7810
 3.2740	 9.7330
 3.2760	 9.7230
 3.2780	 9.7280
 3.2800	 9.7520
 3.2820	 9.7160
 3.2840	 9.7800
 3.2860	 9.8090
 3.2880	 9.7870
 3.2900	 9.7410
 3.2920	 9.7140
 3.2940	 9.7190
 3.2970	 9.7180
 3.2990	 9.6950
 3.3010	 9.7170
 3.3030	 9.6960
 3.3050	 9.7350
 3.3070	 9.7290
 3.3090	 9.7160
 3.3110	 9.6900
 3.3130	 9.7000
 3.3160	 9.6970
 3.3180	 9.6940
 3.3200	 9.6820
 3.3220	 9.6710
 3.3240	 9.6390
 3.3260	 9.6200
 3.3280	 9.5880
 3.3300	 9.6080
 3.3330	 9.6080
 3.3350	 9.5430
 3.3370	 9.4870
 3.3390	 9.4840
 3.3410	 9.4620
 3.3430	 9.4410
 3.3450	 9.3210
 3.3480	 9.2540
 3.3500	 9.2040
 3.3520	 9.1810
 3.3540	 9.1660
 3.3560	 9.1050
 3.3580	 9.0010
 3.3610	 8.9270
 3.3630	 8.8650
 3.3650	 8.8560
 3.3670	 8.8170
 3.3690	 8.7760
 3.3720	 8.6860
 3.3740	 8.5800
 3.3760	 8.4340
 3.3780	 8.3390
 3.3800	 8.2850
 3.3830	 8.2960
 3.3850	 8.1920
 3.3870	 8.1570
 3.3890	 8.1810
 3.3910	 8.1270
 3.3940	 7.9890
 3.3960	 7.9900
 3.3980	 7.9900
 3.4000	 7.9370
 3.4030	 7.8800
 3.4050	 7.8310
 3.4070	 7.8170
 3.4090	 7.8740
 3.4110	 7.8680
 3.4140	 7.9150
 3.4160	 7.9700
 3.4180	 8.0410
 3.4200	 8.0730
 3.4230	 8.2240
 3.4250	 8.3770
 3.4270	 8.5850
 3.4300	 8.7210
 3.4320	 8.7700
 3.4340	 8.7510
 3.4360	 8.7340
 3.4390	 8.7310
 3.4410	 8.7620
 3.4430	 8.7710
 3.4450	 8.8360
 3.4480	 8.8510
 3.4500	 8.8660
 3.4520	 8.8720
 3.4550	 8.9040
 3.4570	 8.9370
 3.4590	 8.9920
 3.4620	 9.0340
 3.4640	 9.0900
 3.4660	 9.1280
 3.4690	 9.1510
 3.4710	 9.1470
 3.4730	 9.1860
 3.4760	 9.1850
 3.4780	 9.1670
 3.4800	 9.1100
 3.4830	 9.0640
 3.4850	 8.9730
 3.4870	 8.9200
 3.4900	 8.8150
 3.4920	 8.7110
 3.4940	 8.6360
 3.4970	 8.5610
 3.4990	 8.4640
 3.5010	 8.3940
 3.5040	 8.3270
 3.5060	 8.3440
 3.5080	 8.5240
 3.5110	 8.8440
 3.5130	 9.2190
 3.5160	 9.6440
 3.5180	 9.9610
 3.5200	10.1970
 3.5230	10.3320
 3.5250	10.4100
 3.5280	10.4410
 3.5300	10.5060
 3.5320	10.5300
 3.5350	10.5110
 3.5370	10.5430
 3.5400	10.5840
 3.5420	10.5780
 3.5440	10.5520
 3.5470	10.5650
 3.5490	10.6030
 3.5520	10.5790
 3.5540	10.5780
 3.5570	10.6010
 3.5590	10.6220
 3.5610	10.6320
 3.5640	10.6410
 3.5660	10.5940
 3.5690	10.6220
 3.5710	10.6670
 3.5740	10.6490
 3.5760	10.6010
 3.5790	10.5950
 3.5810	10.5600
 3.5840	10.5940
 3.5860	10.6170
 3.5890	10.6010
 3.5910	10.5980
 3.5940	10.6710
 3.5960	10.6790
 3.5990	10.6600
 3.6010	10.6210
 3.6040	10.6180
 3.6060	10.5860
 3.6090	10.5820
 3.6110	10.6140
 3.6140	10.6430
 3.6160	10.6590
 3.6190	10.6780
 3.6210	10.6290
 3.6240	10.6210
 3.6260	10.6600
 3.6290	10.6680
 3.6310	10.6360
 3.6340	10.6510
 3.6360	10.6350
 3.6390	10.6460
 3.6410	10.6520
 3.6440	10.6340
 3.6470	10.6260
 3.6490	10.6400
 3.6520	10.6030
 3.6540	10.6130
 3.6570	10.6320
 3.6590	10.6090
 3.6620	10.5670
 3.6650	10.5690
 3.6670	10.5990
 3.6700	10.6370
 3.6720	10.6460
 3.6750	10.6680
 3.6780	10.6440
 3.6800	10.6130
 3.6830	10.5920
 3.6850	10.6030
 3.6880	10.5970
 3.6910	10.6390
 3.6930	10.6400
 3.6960	10.6390
 3.6990	10.6610
 3.7010	10.6970
 3.7040	10.6490
 3.7070	10.6110
 3.7090	10.6200
 3.7120	10.6800
 3.7150	10.6990
 3.7170	10.6730
 3.7200	10.6470
 3.7230	10.7090
 3.7250	10.7190
 3.7280	10.6760
 3.7310	10.6590
 3.7330	10.6810
 3.7360	10.6960
 3.7390	10.7120
 3.7410	10.7100
 3.7440	10.7330
 3.7470	10.7140
 3.7490	10.7270
 3.7520	10.7090
 3.7550	10.7170
 3.7580	10.7180
 3.7600	10.7460
 3.7630	10.7270
 3.7660	10.7060
 3.7690	10.7220
 3.7710	10.7430
 3.7740	10.7220
 3.7770	10.6710
 3.7790	10.6640
 3.7820	10.7230
 3.7850	10.7550
 3.7880	10.7550
 3.7910	10.7710
 3.7930	10.7920
 3.7960	10.7650
 3.7990	10.7790
 3.8020	10.8030
 3.8040	10.8040
 3.8070	10.7750
 3.8100	10.7740
 3.8130	10.7810
 3.8160	10.7850
 3.8180	10.7920
 3.8210	10.8140
 3.8240	10.8270
 3.8270	10.8360
 3.8300	10.8210
 3.8330	10.8200
 3.8350	10.8050
 3.8380	10.8260
 3.8410	10.8540
 3.8440	10.8690
 3.8470	10.8450
 3.8500	10.8130
 3.8520	10.8170
 3.8550	10.8450
 3.8580	10.8470
 3.8610	10.8410
 3.8640	10.8620
 3.8670	10.8700
 3.8700	10.8380
 3.8730	10.8560
 3.8760	10.8560
 3.8780	10.8630
 3.8810	10.8910
 3.8840	10.9200
 3.8870	10.8960
 3.8900	10.8940
 3.8930	10.8610
 3.8960	10.8390
 3.8990	10.8450
 3.9020	10.8620
 3.9050	10.8770
 3.9080	10.8880
 3.9110	10.8640
 3.9140	10.8690
 3.9170	10.8950
 3.9190	10.8940
 3.9220	10.8720
 3.9250	10.8880
 3.9280	10.9200
 3.9310	10.9120
 3.9340	10.8900
 3.9370	10.9300
 3.9400	10.9430
 3.9430	10.9310
 3.9460	10.9270
 3.9490	10.9440
 3.9520	10.9420
 3.9550	10.9180
 3.9580	10.8850
 3.9610	10.9280
 3.9640	10.9870
 3.9670	10.9840
 3.9700	10.9630
 3.9740	10.9870
 3.9770	10.9650
 3.9800	10.9250
 3.9830	10.9230
 3.9860	10.9490
 3.9890	10.9590
 3.9920	10.9600
 3.9950	10.9740
 3.9980	10.9860
 4.0010	11.0180
 4.0040	11.0330
 4.0070	10.9600
 4.0100	10.9340
 4.0140	10.9490
 4.0170	10.9800
 4.0200	10.9660
 4.0230	10.9590
 4.0260	10.9850
 4.0290	11.0050
 4.0320	11.0130
 4.0350	11.0250
 4.0390	11.0100
 4.0420	10.9980
 4.0450	11.0020
 4.0480	10.9980
 4.0510	11.0050
 4.0540	11.0440
 4.0570	11.0210
 4.0610	11.0040
 4.0640	10.9860
 4.0670	11.0100
 4.0700	11.0440
 4.0730	11.0210
 4.0770	10.9740
 4.0800	10.9880
 4.0830	10.9920
 4.0860	11.0440
 4.0890	11.0710
 4.0930	11.0660
 4.0960	11.0590
 4.0990	11.0520
 4.1020	11.0100
 4.1060	11.0220
 4.1090	11.0300
 4.1120	11.0320
 4.1150	11.0740
 4.1190	11.0870
 4.1220	11.0580
 4.1250	11.0670
 4.1290	11.0500
 4.1320	11.0140
 4.1350	11.0060
 4.1380	11.0210
 4.1420	11.0370
 4.1450	11.0400
 4.1480	11.0670
 4.1520	11.0550
 4.1550	11.0250
 4.1580	11.0530
 4.1620	11.0350
 4.1650	11.0190
 4.1680	11.0150
 4.1720	11.0200
 4.1750	11.0260
 4.1780	11.0280
 4.1820	11.0210
 4.1850	11.0210
 4.1890	11.0390
 4.1920	11.0570
 4.1950	11.0900
 4.1990	11.2190
 4.2020	11.3690
 4.2060	11.5350
 4.2090	11.7350
 4.2120	11.8920
 4.2160	12.0090
 4.2190	12.1400
 4.2230	12.2650
 4.2260	12.4600
 4.2300	12.6110
 4.2330	12.7410
 4.2360	12.8460
 4.2400	12.7940
 4.2430	12.6620
 4.2470	12.5440
 4.2500	12.3330
 4.2540	12.0310
 4.2570	11.8000
 4.2610	11.9080
 4.2640	12.1550
 4.2680	12.2530
 4.2710	12.2640
 4.2750	12.2600
 4.2780	12.1950
 4.2820	12.1360
 4.2850	12.2050
 4.2890	12.1980
 4.2930	12.1080
 4.2960	12.0420
 4.3000	11.9740
 4.3030	11.9160
 4.3070	11.9220
 4.3100	11.8580
 4.3140	11.7300
 4.3180	11.5870
 4.3210	11.5440
 4.3250	11.5280
 4.3280	11.4280
 4.3320	11.3330
 4.3360	11.2850
 4.3390	11.2560
 4.3430	11.1800
 4.3470	11.1360
 4.3500	11.1390
 4.3540	11.1030
 4.3580	11.0570
 4.3610	11.0450
 4.3650	11.0110
 4.3690	11.0060
 4.3720	10.9840
 4.3760	10.9690
 4.3800	10.9650
 4.3830	10.9550
 4.3870	10.9380
 4.3910	10.9330
 4.3940	10.9370
 4.3980	10.9300
 4.4020	10.9500
 4.4060	10.9850
 4.4090	10.9550
 4.4130	10.9130
 4.4170	10.9010
 4.4210	10.8920
 4.4240	10.8770
 4.4280	10.8940
 4.4320	10.9200
 4.4360	10.8830
 4.4400	10.8510
 4.4430	10.8500
 4.4470	10.8760
 4.4510	10.8770
 4.4550	10.8540
 4.4590	10.8350
 4.4630	10.8370
 4.4660	10.8180
 4.4700	10.8160
 4.4740	10.8020
 4.4780	10.7800
 4.4820	10.8030
 4.4860	10.8160
 4.4900	10.8230
 4.4930	10.8330
 4.4970	10.8180
 4.5010	10.7970
 4.5050	10.7930
 4.5090	10.8070
 4.5130	10.7980
 4.5170	10.7980
 4.5210	10.7800
 4.5250	10.7760
 4.5290	10.7500
 4.5330	10.7480
 4.5370	10.7310
 4.5410	10.7260
 4.5450	10.7150
 4.5490	10.7280
 4.5530	10.7490
 4.5570	10.7520
 4.5610	10.7140
 4.5650	10.7210
 4.5690	10.7510
 4.5730	10.7450
 4.5770	10.7210
 4.5810	10.6850
 4.5850	10.6590
 4.5890	10.6370
 4.5930	10.6380
 4.5970	10.6460
 4.6010	10.6330
 4.6050	10.6420
 4.6090	10.6540
 4.6130	10.6660
 4.6170	10.6450
 4.6220	10.6110
 4.6260	10.5720
 4.6300	10.5840
 4.6340	10.5930
 4.6380	10.5950
 4.6420	10.5980
 4.6460	10.6340
 4.6510	10.6350
 4.6550	10.6010
 4.6590	10.6170
 4.6630	10.6600
 4.6670	10.6130
 4.6720	10.5490
 4.6760	10.5570
 4.6800	10.5860
 4.6840	10.5660
 4.6880	10.5490
 4.6930	10.5520
 4.6970	10.5340
 4.7010	10.5420
 4.7050	10.5820
 4.7100	10.5730
 4.7140	10.5860
 4.7180	10.6000
 4.7230	10.5780
 4.7270	10.5690
 4.7310	10.5800
 4.7360	10.5790
 4.7400	10.5990
 4.7440	10.5810
 4.7490	10.5280
 4.7530	10.5470
 4.7570	10.5670
 4.7620	10.5740
 4.7660	10.5570
 4.7700	10.5450
 4.7750	10.5690
 4.7790	10.5560
 4.7840	10.5470
 4.7880	10.5450
 4.7920	10.5360
 4.7970	10.5450
 4.8010	10.5650
 4.8060	10.5700
 4.8100	10.5790
 4.8150	10.5800
 4.8190	10.5680
 4.8240	10.5490
 4.8280	10.5290
 4.8330	10.4870
 4.8370	10.4990
 4.8420	10.5440
 4.8460	10.5440
 4.8510	10.5440
 4.8550	10.5370
 4.8600	10.5230
 4.8640	10.5570
 4.8690	10.5690
 4.8740	10.5620
 4.8780	10.5250
 4.8830	10.5410
 4.8870	10.5370
 4.8920	10.5380
 4.8970	10.5120
 4.9010	10.5070
 4.9060	10.4900
 4.9100	10.4910
 4.9150	10.4750
 4.9200	10.4950
 4.9240	10.5270
 4.9290	10.5260
 4.9340	10.5170
 4.9390	10.5300
 4.9430	10.5540
 4.9480	10.5650
 4.9530	10.5660
 4.9570	10.6080
 4.9620	10.5850
 4.9670	10.5370
 4.9720	10.5140
 4.9760	10.5270
 4.9810	10.5450
 4.9860	10.5690
 4.9910	10.5580
 4.9960	10.5510
 5.0000	10.5370
 5.0050	10.5360
 5.0100	10.5210
 5.0150	10.5750
 5.0200	10.5970
 5.0250	10.5740
 5.0300	10.5770
 5.0340	10.5640
 5.0390	10.5320
 5.0440	10.5600
 5.0490	10.5560
 5.0540	10.5500
 5.0590	10.5430
 5.0640	10.5650
 5.0690	10.5730
 5.0740	10.6030
 5.0790	10.5790
 5.0840	10.5690
 5.0890	10.5290
 5.0940	10.5530
 5.0990	10.5940
 5.1040	10.6170
 5.1090	10.5910
 5.1140	10.5640
 5.1190	10.5190
 5.1240	10.5560
 5.1290	10.5630
 5.1340	10.5600
 5.1390	10.5210
 5.1440	10.5540
 5.1490	10.5660
 5.1550	10.5440
 5.1600	10.5590
 5.1650	10.5800
 5.1700	10.5620
 5.1750	10.5690
 5.1800	10.5230
 5.1850	10.5360
 5.1910	10.5200
 5.1960	10.5100
 5.2010	10.5090
 5.2060	10.5370
 5.2110	10.5380
 5.2170	10.5320
 5.2220	10.5150
 5.2270	10.5260
 5.2330	10.5170
 5.2380	10.5450
 5.2430	10.5310
 5.2480	10.5030
 5.2540	10.4870
 5.2590	10.5130
 5.2640	10.4970
 5.2700	10.5050
 5.2750	10.5040
 5.2800	10.5200
 5.2860	10.5130
 5.2910	10.5030
 5.2970	10.4440
 5.3020	10.4260
 5.3080	10.4650
 5.3130	10.5170
 5.3180	10.5100
 5.3240	10.4780
 5.3290	10.4410
 5.3350	10.4860
 5.3400	10.5010
 5.3460	10.4890
 5.3510	10.4520
 5.3570	10.4530
 5.3620	10.4180
 5.3680	10.4020
 5.3740	10.4050
 5.3790	10.4280
 5.3850	10.4000
 5.3900	10.3850
 5.3960	10.3420
 5.4010	10.3540
 5.4070	10.3500
 5.4130	10.3440
 5.4180	10.3520
 5.4240	10.3980
 5.4300	10.3510
 5.4350	10.3100
 5.4410	10.2580
 5.4470	10.2470
 5.4530	10.2060
 5.4580	10.2180
 5.4640	10.2420
 5.4700	10.2040
 5.4760	10.1160
 5.4810	10.1360
 5.4870	10.1470
 5.4930	10.1520
 5.4990	10.1290
 5.5050	10.1040
 5.5110	10.0340
 5.5160	10.0170
 5.5220	 9.9790
 5.5280	10.0030
 5.5340	 9.9890
 5.5400	 9.9840
 5.5460	 9.9390
 5.5520	 9.9160
 5.5580	 9.8550
 5.5640	 9.8200
 5.5700	 9.8220
 5.5760	 9.8680
 5.5820	 9.7930
 5.5880	 9.7310
 5.5940	 9.6800
 5.6000	 9.6700
 5.6060	 9.6400
 5.6120	 9.5850
 5.6180	 9.4840
 5.6240	 9.4470
 5.6300	 9.3680
 5.6360	 9.3370
 5.6420	 9.2890
 5.6490	 9.2450
 5.6550	 9.1980
 5.6610	 9.0880
 5.6670	 8.9380
 5.6730	 8.8410
 5.6800	 8.7310
 5.6860	 8.6550
 5.6920	 8.5310
 5.6980	 8.4170
 5.7050	 8.3150
 5.7110	 8.2380
 5.7170	 8.0990
 5.7230	 8.0130
 5.7300	 7.8580
 5.7360	 7.6890
 5.7420	 7.5870
 5.7490	 7.6580
 5.7550	 7.7200
 5.7620	 7.9160
 5.7680	 8.0610
 5.7740	 8.1280
 5.7810	 8.2310
 5.7870	 8.3620
 5.7940	 8.3950
 5.8000	 8.4610
 5.8070	 8.4720
 5.8130	 8.5330
 5.8200	 8.6310
 5.8260	 8.7370
 5.8330	 8.7920
 5.8390	 8.9220
 5.8460	 9.0320
 5.8530	 9.1740
 5.8590	 9.3000
 5.8660	 9.4210
 5.8730	 9.4560
 5.8790	 9.5900
 5.8860	 9.6580
 5.8930	 9.7000
 5.8990	 9.7190
 5.9060	 9.7070
 5.9130	 9.7250
 5.9190	 9.8420
 5.9260	 9.8610
 5.9330	 9.9230
 5.9400	 9.9290
 5.9470	 9.9050
 5.9530	 9.8390
 5.9600	 9.8610
 5.9670	 9.8720
 5.9740	 9.8300
 5.9810	 9.7660
 5.9880	 9.8040
 5.9950	 9.7350
 6.0020	 9.7290
 6.0090	 9.7280
 6.0160	 9.7190
 6.0230	 9.6500
 6.0300	 9.6640
 6.0370	 9.6390
 6.0440	 9.7140
 6.0510	 9.7530
 6.0580	 9.6920
 6.0650	 9.6390
 6.0720	 9.7030
 6.0790	 9.6730
 6.0860	 9.6390
 6.0930	 9.6640
 6.1010	 9.7060
 6.1080	 9.6630
 6.1150	 9.7550
 6.1220	 9.7240
 6.1290	 9.7100
 6.1370	 9.6810
 6.1440	 9.7300
 6.1510	 9.7110
 6.1580	 9.7480
 6.1660	 9.7320
 6.1730	 9.7460
 6.1800	 9.7550
 6.1880	 9.8630
 6.1950	 9.8360
 6.2030	 9.8310
 6.2100	 9.7940
 6.2180	 9.8380
 6.2250	 9.8670
 6.2320	 9.8900
 6.2400	 9.8580
 6.2480	 9.8840
 6.2550	 9.8570
 6.2630	 9.8980
 6.2700	 9.9000
 6.2780	 9.9730
 6.2850	10.0260
 6.2930	10.1100
 6.3010	10.0790
 6.3080	10.1050
 6.3160	10.0810
 6.3240	10.1060
 6.3310	10.0970
 6.3390	10.1380
 6.3470	10.1270
 6.3550	10.1410
 6.3620	10.1200
 6.3700	10.1670
 6.3780	10.1470
 6.3860	10.1820
 6.3940	10.1590
 6.4020	10.1970
 6.4100	10.2320
 6.4180	10.2220
 6.4260	10.1060
 6.4340	10.1510
 6.4420	10.0780
 6.4500	10.0530
 6.4580	10.0370
 6.4660	10.0520
 6.4740	10.0420
 6.4820	10.1200
 6.4900	10.1650
 6.4980	10.1190
 6.5060	 9.9610
 6.5140	 9.9660
 6.5230	 9.9510
 6.5310	 9.9430
 6.5390	 9.9100
 6.5470	 9.9700
 6.5560	 9.9110
 6.5640	 9.8760
 6.5720	 9.8520
 6.5800	 9.8270
 6.5890	 9.7820
 6.5970	 9.8020
 6.6060	 9.7450
 6.6140	 9.7840
 6.6230	 9.7450
 6.6310	 9.7830
 6.6390	 9.7770
 6.6480	 9.7480
 6.6570	 9.6160
 6.6650	 9.5680
 6.6740	 9.5280
 6.6820	 9.5730
 6.6910	 9.4970
 6.7000	 9.4630
 6.7080	 9.4410
 6.7170	 9.4390
 6.7260	 9.2880
 6.7340	 9.2020
 6.7430	 9.0430
 6.7520	 8.9070
 6.7610	 8.6930
 6.7690	 8.5680
 6.7780	 8.5060
 6.7870	 8.6820
 6.7960	 8.9260
 6.8050	 9.0270
 6.8140	 8.8690
 6.8230	 8.7390
 6.8320	 8.6680
 6.8410	 8.9410
 6.8500	 9.1760
 6.8590	 9.2670
 6.8680	 9.2020
 6.8770	 9.1800
 6.8860	 9.1210
 6.8960	 9.1630
 6.9050	 9.1260
 6.9140	 9.1370
 6.9230	 9.0440
 6.9320	 9.0050
 6.9420	 8.9090
 6.9510	 8.9500
 6.9600	 8.9830
 6.9700	 9.0050
 6.9790	 8.9420
 6.9880	 8.9830
 6.9980	 8.9590
 7.0070	 8.9850
 7.0170	 9.0030
 7.0260	 9.0390
 7.0360	 9.0090
 7.0450	 9.1080
 7.0550	 9.0580
 7.0650	 9.0910
 7.0740	 9.1090
 7.0840	 9.1970
 7.0940	 9.1610
 7.1030	 9.2290
 7.1130	 9.2910
 7.1230	 9.3390
 7.1330	 9.2900
 7.1420	 9.3260
 7.1520	 9.2260
 7.1620	 9.2160
 7.1720	 9.2010
 7.1820	 9.1940
 7.1920	 9.1070
 7.2020	 9.1450
 7.2120	 9.0600
 7.2220	 9.0170
 7.2320	 8.9280
 7.2420	 8.9480
 7.2520	 8.8750
 7.2620	 8.8840
 7.2730	 8.9070
 7.2830	 8.9690
 7.2930	 8.9270
 7.3030	 9.0060
 7.3140	 8.9890
 7.3240	 9.0120
 7.3340	 8.9740
 7.3450	 9.0200
 7.3550	 8.9960
 7.3660	 9.0330
 7.3760	 8.9890
 7.3870	 9.0390
 7.3970	 9.0120
 7.4080	 9.0270
 7.4180	 9.0130
 7.4290	 9.0010
 7.4400	 8.9070
 7.4500	 8.9600
 7.4610	 8.8980
 7.4720	 8.8920
 7.4830	 8.8510
 7.4930	 8.8770
 7.5040	 8.8280
 7.5150	 8.8660
 7.5260	 8.7940
 7.5370	 8.8200
 7.5480	 8.7510
 7.5590	 8.7410
 7.5700	 8.7270
 7.5810	 8.8170
 7.5920	 8.7610
 7.6030	 8.8100
 7.6140	 8.8200
 7.6260	 8.8450
 7.6370	 8.7940
 7.6480	 8.8320
 7.6590	 8.7730
 7.6710	 8.8350
 7.6820	 8.8230
 7.6940	 8.8780
 7.7050	 8.8380
 7.7160	 8.8680
 7.7280	 8.8100
 7.7390	 8.8250
 7.7510	 8.7400
 7.7630	 8.7080
 7.7740	 8.6320
 7.7860	 8.6760
 7.7980	 8.6130
 7.8090	 8.6130
 7.8210	 8.5370
 7.8330	 8.5770
 7.8450	 8.4930
 7.8570	 8.5100
 7.8690	 8.4350
 7.8810	 8.4360
 7.8930	 8.3720
 7.9050	 8.4120
 7.9170	 8.3950
 7.9290	 8.3950
 7.9410	 8.2230
 7.9530	 8.2660
 7.9650	 8.2670
 7.9780	 8.2580
 7.9900	 8.1630
 8.0020	 8.2260
 8.0150	 8.2180
 8.0270	 8.3050
 8.0390	 8.3030
 8.0520	 8.3710
 8.0640	 8.3280
 8.0770	 8.4370
 8.0900	 8.4070
 8.1020	 8.4810
 8.1150	 8.4690
 8.1280	 8.5450
 8.1400	 8.4960
 8.1530	 8.5950
 8.1660	 8.5970
 8.1790	 8.6330
 8.1920	 8.5460
 8.2050	 8.6390
 8.2180	 8.5880
 8.2310	 8.6390
 8.2440	 8.5600
 8.2570	 8.5860
 8.2700	 8.5010
 8.2830	 8.5290
 8.2970	 8.4010
 8.3100	 8.4150
 8.3230	 8.4040
 8.3370	 8.4760
 8.3500	 8.3900
 8.3640	 8.4130
 8.3770	 8.2750
 8.3910	 8.2770
 8.4040	 8.1420
 8.4180	 8.2290
 8.4320	 8.1530
 8.4450	 8.1350
 8.4590	 7.9500
 8.4730	 7.8890
 8.4870	 7.7600
 8.5010	 7.7310
 8.5150	 7.5780
 8.5290	 7.5610
 8.5430	 7.4490
 8.5570	 7.5440
 8.5710	 7.5370
 8.5850	 7.6850
 8.5990	 7.7230
 8.6140	 7.8430
 8.6280	 7.7770
 8.6420	 7.9320
 8.6570	 7.8870
 8.6710	 7.9490
 8.6860	 7.9040
 8.7000	 8.0220
 8.7150	 7.9590
 8.7300	 7.9850
 8.7440	 7.8360
 8.7590	 7.8900
 8.7740	 7.8080
 8.7890	 7.8390
 8.8040	 7.7000
 8.8190	 7.6730
 8.8340	 7.5930
 8.8490	 7.7160
 8.8640	 7.5890
 8.8790	 7.6170
 8.8940	 7.5280
 8.9100	 7.6060
 8.9250	 7.5020
 8.9400	 7.5310
 8.9560	 7.4450
 8.9710	 7.5560
 8.9870	 7.4210
 9.0020	 7.5880
 9.0180	 7.6960
 9.0340	 7.8120
 9.0500	 7.6930
 9.0650	 7.7000
 9.0810	 7.6080
 9.0970	 7.7170
 9.1130	 7.6980
 9.1290	 7.8500
 9.1450	 7.7820
 9.1620	 7.8090
 9.1780	 7.7120
 9.1940	 7.7710
 9.2100	 7.6480
 9.2270	 7.7030
 9.2430	 7.6720
 9.2600	 7.8290
 9.2760	 7.7730
 9.2930	 7.9630
 9.3100	 7.9670
 9.3260	 8.1480
 9.3430	 8.2020
 9.3600	 8.3870
 9.3770	 8.4410
 9.3940	 8.6560
 9.4110	 8.6910
 9.4280	 8.9360
 9.4450	 9.0210
 9.4620	 9.2250
 9.4800	 9.2280
 9.4970	 9.3890
 9.5150	 9.3760
 9.5320	 9.4980
 9.5500	 9.4410
 9.5670	 9.5660
 9.5850	 9.5090
 9.6030	 9.6760
 9.6200	 9.8150
 9.6380	10.0730
 9.6560	10.0630
 9.6740	10.2740
 9.6920	10.3670
 9.7110	10.5760
 9.7290	10.5430
 9.7470	10.5820
 9.7650	10.5340
 9.7840	10.6730
 9.8020	10.5860
 9.8210	10.6240
 9.8390	10.5160
 9.8580	10.6640
 9.8770	10.6680
 9.8960	10.7780
 9.9150	10.6680
 9.9340	10.7560
 9.9530	10.7610
 9.9720	10.8800
 9.9910	10.7560
10.0100	10.8270
10.0300	10.7640
10.0490	10.8270
10.0690	10.8130
10.0880	10.9400
10.1080	10.8490
10.1280	10.9590
10.1480	10.9480
10.1670	11.0870
10.1870	10.9850
10.2070	11.0200
10.2280	10.9020
10.2480	10.9660
10.2680	10.8610
10.2890	10.8800
10.3090	10.8190
10.3300	10.9070
10.3500	10.7870
10.3710	10.8400
10.3920	10.7520
10.4120	10.7800
10.4330	10.7000
10.4540	10.8400
10.4760	10.8180
10.4970	10.9070
10.5180	10.8050
10.5390	10.9250
10.5610	10.8280
10.5820	10.8490
10.6040	10.7380
10.6260	10.8420
10.6480	10.8060
10.6700	10.8470
10.6920	10.6600
10.7140	10.7370
10.7360	10.6380
10.7580	10.7040
10.7800	10.6010
10.8030	10.6500
10.8250	10.4960
10.8480	10.5370
10.8710	10.3420
10.8940	10.4290
10.9170	10.3470
10.9400	10.3480
10.9630	10.1270
10.9860	10.1910
11.0090	10.0710
11.0330	10.1180
11.0560	 9.9660
11.0800	10.0210
11.1040	 9.9050
11.1270	10.0050
11.1510	 9.8840
11.1750	10.0020
11.2000	 9.9560
11.2240	10.0350
11.2480	 9.9020
11.2730	 9.9860
11.2970	 9.8530
11.3220	 9.9500
11.3470	 9.8350
11.3720	 9.9530
11.3970	 9.8340
11.4220	 9.9020
11.4470	 9.7550
11.4720	 9.8620
11.4980	 9.7420
11.5230	 9.8360
11.5490	 9.6670
11.5750	 9.7500
11.6000	 9.6060
11.6260	 9.6550
11.6530	 9.4870
11.6790	 9.5790
11.7050	 9.4710
11.7320	 9.5150
11.7580	 9.3540
11.7850	 9.4410
11.8120	 9.2770
11.8390	 9.3850
11.8660	 9.1840
11.8930	 9.2560
11.9200	 9.1850
11.9480	 9.3050
11.9760	 9.1300
12.0030	 9.2260
12.0310	 9.0140
12.0590	 9.0230
12.0870	 8.9740
12.1150	 9.1450
12.1440	 8.9480
12.1720	 9.0420
12.2010	 8.9170
12.2300	 9.1220
12.2590	 8.9540
12.2880	 9.0450
12.3170	 8.8390
12.3460	 8.9640
12.3760	 8.8480
12.4050	 9.0420
12.4350	 8.9730
12.4650	 9.1490
12.4950	 8.9620
12.5250	 9.0030
12.5550	 8.8810
12.5860	 9.0650
12.6170	 8.9130
12.6470	 9.0400
12.6780	 8.8870
12.7090	 9.1030
12.7410	 8.9730
12.7720	 9.0490
12.8030	 8.8170
12.8350	 8.9440
12.8670	 8.8620
12.8990	 9.0340
12.9310	 8.8990
12.9640	 9.0170
12.9960	 8.8720
13.0290	 8.9730
13.0610	 8.7890
13.0940	 8.9870
13.1280	 8.8480
13.1610	 9.0760
13.1940	 8.8620
13.2280	 9.0030
13.2620	 8.9440
13.2960	 9.0690
13.3300	 8.8850
13.3640	 9.0690
13.3990	 8.8920
13.4340	 9.0350
13.4690	 8.9960
13.5040	 9.2230
13.5390	 8.9430
13.5740	 9.0820
13.6100	 8.9830
13.6460	 9.1740
13.6820	 9.0980
13.7180	 9.5060
13.7540	 9.5310
13.7910	 9.6770
13.8280	 9.4530
13.8650	 9.7000
13.9020	 9.4010
13.9390	 9.4330
13.9770	 9.2460
14.0150	 9.5110
14.0530	 9.3200
14.0910	 9.5640
14.1290	 9.3950
14.1680	 9.7230
14.2070	 9.5640
14.2460	 9.7190
14.2850	 9.5690
14.3240	 9.8600
14.3640	 9.5650
14.4040	 9.8940
14.4440	 9.7010
14.4840	 9.8990
14.5250	 9.6950
14.5660	10.0200
14.6070	 9.7500
14.6480	10.0430
14.6900	 9.7380
14.7310	10.0250
14.7730	 9.8830
14.8150	10.2270
14.8580	 9.9540
14.9010	10.2440
14.9440	10.0210
14.9870	10.3430
15.0300	 9.7270
15.0740	10.3510
15.1180	10.1490
15.1620	10.3850
15.2060	 9.9790
15.2510	10.2410
15.2960	 9.9340
15.3410	10.4040
15.3870	 0.0000
