Name: Bambusa beecheyana
Type: vegetation
Class: Tree
Genus: Bambusa
Species: beecheyana
Sample No.: JPL236
Owner: JPL
Wavelength Range: TIR
Origin: 34.12719; -118.11127; WGS84
Collection Date: 10/6/2016
Description: Samples were collected at the Huntington Garden in San Marino California as part of a JPL Subcontract studying HyTES imagery. Samples were taken to JPL and processed within 48 hours of collection. The same leaves were processed in the Nicolet and then measured using the ASD.
Measurement: Hemispherical reflectance
First Column: X
Second Column: Y
X Units: Wavelength (micrometer)
Y Units: Reflectance (percentage)
First X Value: 2.501
Last X Value: 15.387
Number of X Values: 1737
Additional Information: vegetation.tree.bambusa.beecheyana.tir.jpl236.jpl.nicolet.ancillary.txt

 2.5010	 7.9140
 2.5030	 7.8830
 2.5040	 7.8640
 2.5050	 7.7840
 2.5060	 7.7940
 2.5070	 7.7770
 2.5090	 7.7200
 2.5100	 7.7020
 2.5110	 7.7590
 2.5120	 7.7350
 2.5140	 7.7470
 2.5150	 7.6790
 2.5160	 7.6050
 2.5170	 7.5900
 2.5180	 7.6470
 2.5200	 7.5960
 2.5210	 7.6050
 2.5220	 7.6090
 2.5230	 7.5780
 2.5250	 7.5360
 2.5260	 7.5010
 2.5270	 7.5130
 2.5280	 7.6130
 2.5300	 7.6230
 2.5310	 7.6410
 2.5320	 7.6110
 2.5330	 7.6180
 2.5340	 7.6110
 2.5360	 7.6420
 2.5370	 7.6400
 2.5380	 7.6550
 2.5390	 7.6750
 2.5410	 7.6780
 2.5420	 7.6030
 2.5430	 7.5720
 2.5440	 7.5450
 2.5460	 7.6430
 2.5470	 7.6120
 2.5480	 7.6410
 2.5490	 7.7240
 2.5510	 7.7460
 2.5520	 7.6560
 2.5530	 7.6810
 2.5540	 7.7470
 2.5560	 7.7290
 2.5570	 7.7180
 2.5580	 7.7600
 2.5590	 7.7510
 2.5610	 7.8100
 2.5620	 7.7590
 2.5630	 7.7580
 2.5650	 7.7570
 2.5660	 7.8070
 2.5670	 7.8100
 2.5680	 7.8370
 2.5700	 7.7910
 2.5710	 7.8220
 2.5720	 7.8080
 2.5730	 7.7780
 2.5750	 7.7680
 2.5760	 7.8030
 2.5770	 7.8000
 2.5790	 7.8250
 2.5800	 7.7880
 2.5810	 7.7970
 2.5820	 7.7870
 2.5840	 7.7290
 2.5850	 7.6840
 2.5860	 7.7380
 2.5880	 7.6360
 2.5890	 7.6560
 2.5900	 7.6490
 2.5910	 7.6380
 2.5930	 7.5780
 2.5940	 7.5000
 2.5950	 7.3220
 2.5970	 7.3200
 2.5980	 7.3850
 2.5990	 7.4330
 2.6010	 7.3680
 2.6020	 7.3520
 2.6030	 7.2610
 2.6040	 7.1190
 2.6060	 6.9870
 2.6070	 6.9800
 2.6080	 6.9730
 2.6100	 6.9750
 2.6110	 6.9310
 2.6120	 6.8810
 2.6140	 6.7480
 2.6150	 6.7080
 2.6160	 6.5740
 2.6180	 6.4380
 2.6190	 6.4130
 2.6200	 6.3780
 2.6220	 6.3190
 2.6230	 6.3750
 2.6240	 6.2350
 2.6260	 6.1540
 2.6270	 6.0150
 2.6280	 5.9410
 2.6300	 5.8470
 2.6310	 5.7270
 2.6320	 5.6680
 2.6340	 5.6650
 2.6350	 5.5590
 2.6360	 5.5490
 2.6380	 5.4900
 2.6390	 5.4180
 2.6400	 5.2660
 2.6420	 5.1770
 2.6430	 5.0900
 2.6440	 5.0660
 2.6460	 4.9540
 2.6470	 4.8970
 2.6480	 4.8400
 2.6500	 4.7420
 2.6510	 4.6010
 2.6520	 4.5320
 2.6540	 4.4290
 2.6550	 4.4100
 2.6570	 4.3380
 2.6580	 4.2940
 2.6590	 4.1430
 2.6610	 4.0750
 2.6620	 4.0410
 2.6630	 4.0570
 2.6650	 3.8990
 2.6660	 3.7730
 2.6670	 3.6800
 2.6690	 3.6870
 2.6700	 3.5440
 2.6720	 3.4600
 2.6730	 3.4130
 2.6740	 3.3540
 2.6760	 3.2740
 2.6770	 3.2570
 2.6780	 3.1740
 2.6800	 3.1170
 2.6810	 3.0610
 2.6830	 3.0600
 2.6840	 2.9660
 2.6850	 2.9410
 2.6870	 2.8620
 2.6880	 2.7980
 2.6900	 2.6790
 2.6910	 2.6350
 2.6920	 2.5680
 2.6940	 2.5240
 2.6950	 2.4810
 2.6970	 2.5390
 2.6980	 2.5030
 2.6990	 2.4370
 2.7010	 2.3890
 2.7020	 2.4080
 2.7040	 2.3450
 2.7050	 2.3620
 2.7060	 2.3510
 2.7080	 2.3820
 2.7090	 2.3050
 2.7110	 2.3020
 2.7120	 2.3210
 2.7130	 2.3480
 2.7150	 2.3000
 2.7160	 2.3130
 2.7180	 2.2530
 2.7190	 2.2780
 2.7210	 2.2590
 2.7220	 2.2680
 2.7230	 2.1960
 2.7250	 2.2290
 2.7260	 2.2440
 2.7280	 2.2780
 2.7290	 2.2560
 2.7310	 2.2920
 2.7320	 2.2800
 2.7340	 2.2950
 2.7350	 2.2360
 2.7360	 2.2310
 2.7380	 2.1770
 2.7390	 2.1880
 2.7410	 2.1460
 2.7420	 2.1740
 2.7440	 2.2120
 2.7450	 2.2880
 2.7470	 2.2990
 2.7480	 2.2650
 2.7490	 2.2190
 2.7510	 2.3050
 2.7520	 2.2490
 2.7540	 2.2370
 2.7550	 2.2410
 2.7570	 2.2640
 2.7580	 2.2550
 2.7600	 2.2810
 2.7610	 2.2240
 2.7630	 2.1820
 2.7640	 2.1570
 2.7660	 2.2120
 2.7670	 2.1980
 2.7690	 2.2280
 2.7700	 2.1680
 2.7720	 2.1560
 2.7730	 2.1330
 2.7740	 2.1360
 2.7760	 2.0910
 2.7770	 2.2080
 2.7790	 2.2070
 2.7800	 2.1970
 2.7820	 2.2660
 2.7830	 2.3670
 2.7850	 2.2910
 2.7860	 2.2210
 2.7880	 2.1460
 2.7890	 2.2130
 2.7910	 2.2380
 2.7920	 2.2920
 2.7940	 2.2210
 2.7950	 2.2660
 2.7970	 2.2930
 2.7980	 2.3320
 2.8000	 2.3000
 2.8010	 2.3170
 2.8030	 2.2560
 2.8040	 2.2720
 2.8060	 2.2460
 2.8080	 2.2030
 2.8090	 2.1270
 2.8110	 2.1770
 2.8120	 2.1730
 2.8140	 2.2430
 2.8150	 2.2280
 2.8170	 2.2200
 2.8180	 2.1370
 2.8200	 2.1510
 2.8210	 2.1600
 2.8230	 2.1880
 2.8240	 2.1350
 2.8260	 2.2080
 2.8270	 2.1930
 2.8290	 2.1380
 2.8310	 2.1090
 2.8320	 2.1660
 2.8340	 2.1560
 2.8350	 2.1990
 2.8370	 2.1780
 2.8380	 2.2200
 2.8400	 2.1890
 2.8410	 2.2710
 2.8430	 2.2540
 2.8440	 2.2270
 2.8460	 2.1630
 2.8480	 2.1680
 2.8490	 2.1240
 2.8510	 2.1020
 2.8520	 2.1760
 2.8540	 2.2940
 2.8550	 2.2180
 2.8570	 2.2110
 2.8590	 2.1710
 2.8600	 2.2600
 2.8620	 2.2210
 2.8630	 2.1580
 2.8650	 2.1410
 2.8660	 2.1880
 2.8680	 2.1640
 2.8700	 2.1590
 2.8710	 2.1360
 2.8730	 2.2080
 2.8740	 2.1940
 2.8760	 2.1910
 2.8780	 2.1140
 2.8790	 2.1640
 2.8810	 2.1980
 2.8820	 2.2780
 2.8840	 2.1830
 2.8860	 2.1340
 2.8870	 2.1350
 2.8890	 2.1760
 2.8900	 2.1430
 2.8920	 2.1550
 2.8940	 2.1350
 2.8950	 2.2030
 2.8970	 2.1450
 2.8990	 2.1500
 2.9000	 2.1610
 2.9020	 2.1980
 2.9030	 2.1100
 2.9050	 2.1230
 2.9070	 2.2070
 2.9080	 2.2130
 2.9100	 2.0920
 2.9120	 2.0860
 2.9130	 2.1130
 2.9150	 2.1470
 2.9160	 2.1370
 2.9180	 2.1550
 2.9200	 2.1080
 2.9210	 2.1410
 2.9230	 2.1050
 2.9250	 2.1350
 2.9260	 2.0900
 2.9280	 2.1250
 2.9300	 2.1320
 2.9310	 2.1470
 2.9330	 2.1190
 2.9350	 2.1380
 2.9360	 2.1230
 2.9380	 2.1900
 2.9400	 2.1340
 2.9410	 2.0640
 2.9430	 2.0700
 2.9450	 2.1190
 2.9460	 2.0130
 2.9480	 2.0940
 2.9500	 2.1630
 2.9510	 2.2330
 2.9530	 2.1440
 2.9550	 2.0960
 2.9560	 2.0570
 2.9580	 2.1300
 2.9600	 2.1210
 2.9610	 2.0600
 2.9630	 1.9730
 2.9650	 2.0330
 2.9670	 1.9990
 2.9680	 2.0420
 2.9700	 2.0260
 2.9720	 2.0850
 2.9730	 2.0670
 2.9750	 2.0510
 2.9770	 1.9880
 2.9780	 2.0490
 2.9800	 2.0490
 2.9820	 2.0710
 2.9840	 2.0840
 2.9850	 2.1710
 2.9870	 2.1330
 2.9890	 2.0950
 2.9900	 2.1280
 2.9920	 2.1940
 2.9940	 2.1350
 2.9960	 2.0940
 2.9970	 2.0230
 2.9990	 2.0770
 3.0010	 2.0840
 3.0030	 2.1210
 3.0040	 2.0920
 3.0060	 2.0820
 3.0080	 2.0700
 3.0100	 2.0830
 3.0110	 2.0130
 3.0130	 2.0070
 3.0150	 1.9890
 3.0170	 2.0380
 3.0180	 2.0520
 3.0200	 2.0510
 3.0220	 2.0370
 3.0240	 2.0600
 3.0250	 2.0510
 3.0270	 2.1040
 3.0290	 2.0710
 3.0310	 2.0710
 3.0320	 2.0400
 3.0340	 2.0600
 3.0360	 2.0250
 3.0380	 2.0810
 3.0400	 2.0410
 3.0410	 2.0500
 3.0430	 2.0010
 3.0450	 2.0330
 3.0470	 2.0860
 3.0480	 2.1470
 3.0500	 2.0980
 3.0520	 2.0920
 3.0540	 2.0140
 3.0560	 2.0280
 3.0570	 2.0780
 3.0590	 2.1350
 3.0610	 2.0780
 3.0630	 2.0170
 3.0650	 1.9370
 3.0670	 1.9920
 3.0680	 2.0640
 3.0700	 2.0510
 3.0720	 2.0440
 3.0740	 2.0950
 3.0760	 2.0270
 3.0770	 2.0370
 3.0790	 2.0020
 3.0810	 1.9750
 3.0830	 1.9580
 3.0850	 2.0030
 3.0870	 1.9980
 3.0880	 2.0300
 3.0900	 2.0020
 3.0920	 2.0620
 3.0940	 2.0310
 3.0960	 2.0160
 3.0980	 2.0230
 3.1000	 2.0830
 3.1010	 2.0200
 3.1030	 1.9760
 3.1050	 1.9820
 3.1070	 2.0040
 3.1090	 2.0140
 3.1110	 2.0790
 3.1130	 2.0230
 3.1140	 2.0270
 3.1160	 2.0470
 3.1180	 2.0830
 3.1200	 2.0370
 3.1220	 2.0330
 3.1240	 1.9650
 3.1260	 1.9960
 3.1280	 1.9660
 3.1290	 1.9870
 3.1310	 2.0300
 3.1330	 2.0220
 3.1350	 1.9570
 3.1370	 2.0220
 3.1390	 2.0380
 3.1410	 2.0240
 3.1430	 1.9740
 3.1450	 1.9790
 3.1470	 1.9450
 3.1480	 1.9570
 3.1500	 1.9420
 3.1520	 2.0120
 3.1540	 2.0050
 3.1560	 1.9740
 3.1580	 1.9600
 3.1600	 1.9680
 3.1620	 1.9500
 3.1640	 2.0030
 3.1660	 1.9680
 3.1680	 1.9620
 3.1700	 1.9350
 3.1720	 1.9970
 3.1730	 1.9700
 3.1750	 1.9630
 3.1770	 1.9730
 3.1790	 1.9950
 3.1810	 1.9620
 3.1830	 1.9900
 3.1850	 1.9700
 3.1870	 1.9980
 3.1890	 1.9950
 3.1910	 2.0490
 3.1930	 2.0300
 3.1950	 2.0340
 3.1970	 2.0070
 3.1990	 1.9690
 3.2010	 1.9380
 3.2030	 1.9960
 3.2050	 1.9650
 3.2070	 1.9350
 3.2090	 1.9310
 3.2110	 2.0160
 3.2130	 2.0280
 3.2150	 2.0400
 3.2170	 1.9630
 3.2190	 1.9800
 3.2210	 1.9550
 3.2230	 1.9590
 3.2250	 1.9570
 3.2270	 1.9270
 3.2290	 1.9240
 3.2310	 2.0190
 3.2330	 1.9790
 3.2350	 1.9710
 3.2370	 1.9420
 3.2390	 1.9500
 3.2410	 1.9720
 3.2430	 2.0400
 3.2450	 2.0370
 3.2470	 2.0210
 3.2490	 1.9680
 3.2510	 1.9630
 3.2530	 1.9480
 3.2550	 1.9690
 3.2570	 1.9430
 3.2590	 1.9590
 3.2610	 1.9560
 3.2630	 1.9700
 3.2650	 1.9460
 3.2670	 1.9870
 3.2700	 1.9500
 3.2720	 1.9790
 3.2740	 1.9890
 3.2760	 1.9740
 3.2780	 1.9170
 3.2800	 1.9630
 3.2820	 1.9200
 3.2840	 1.9390
 3.2860	 1.9160
 3.2880	 1.9230
 3.2900	 1.9130
 3.2920	 1.9110
 3.2940	 1.8790
 3.2970	 1.9230
 3.2990	 1.9370
 3.3010	 1.9440
 3.3030	 1.8940
 3.3050	 1.9350
 3.3070	 1.9200
 3.3090	 1.9290
 3.3110	 1.9070
 3.3130	 1.9320
 3.3160	 1.9070
 3.3180	 1.8960
 3.3200	 1.8790
 3.3220	 1.9160
 3.3240	 1.8740
 3.3260	 1.8730
 3.3280	 1.8400
 3.3300	 1.8530
 3.3330	 1.8500
 3.3350	 1.8610
 3.3370	 1.8180
 3.3390	 1.8230
 3.3410	 1.8350
 3.3430	 1.8560
 3.3450	 1.8140
 3.3480	 1.7900
 3.3500	 1.7890
 3.3520	 1.8200
 3.3540	 1.8150
 3.3560	 1.8360
 3.3580	 1.7870
 3.3610	 1.7880
 3.3630	 1.7820
 3.3650	 1.7830
 3.3670	 1.7460
 3.3690	 1.7420
 3.3720	 1.7550
 3.3740	 1.8120
 3.3760	 1.8010
 3.3780	 1.8140
 3.3800	 1.7850
 3.3830	 1.8010
 3.3850	 1.8240
 3.3870	 1.8720
 3.3890	 1.8350
 3.3910	 1.8150
 3.3940	 1.7780
 3.3960	 1.8320
 3.3980	 1.8180
 3.4000	 1.8250
 3.4030	 1.8010
 3.4050	 1.8170
 3.4070	 1.8460
 3.4090	 1.9330
 3.4110	 2.0170
 3.4140	 2.1180
 3.4160	 2.2570
 3.4180	 2.5360
 3.4200	 2.8370
 3.4230	 3.2170
 3.4250	 3.6260
 3.4270	 4.0990
 3.4300	 4.3610
 3.4320	 4.2180
 3.4340	 3.8380
 3.4360	 3.5440
 3.4390	 3.2510
 3.4410	 3.0580
 3.4430	 2.9700
 3.4450	 2.9320
 3.4480	 2.8580
 3.4500	 2.8390
 3.4520	 2.7790
 3.4550	 2.7780
 3.4570	 2.7220
 3.4590	 2.6990
 3.4620	 2.6570
 3.4640	 2.6440
 3.4660	 2.5930
 3.4690	 2.5700
 3.4710	 2.5030
 3.4730	 2.5050
 3.4760	 2.4770
 3.4780	 2.4350
 3.4800	 2.3710
 3.4830	 2.3760
 3.4850	 2.3230
 3.4870	 2.2810
 3.4900	 2.2170
 3.4920	 2.2110
 3.4940	 2.1840
 3.4970	 2.2010
 3.4990	 2.2180
 3.5010	 2.2800
 3.5040	 2.3960
 3.5060	 2.7990
 3.5080	 3.4820
 3.5110	 4.0730
 3.5130	 4.1300
 3.5160	 3.8330
 3.5180	 3.5130
 3.5200	 3.3180
 3.5230	 3.1340
 3.5250	 3.0250
 3.5280	 2.9460
 3.5300	 2.9350
 3.5320	 2.8700
 3.5350	 2.8460
 3.5370	 2.7820
 3.5400	 2.7350
 3.5420	 2.6800
 3.5440	 2.6590
 3.5470	 2.6230
 3.5490	 2.6460
 3.5520	 2.6460
 3.5540	 2.6830
 3.5570	 2.6550
 3.5590	 2.6070
 3.5610	 2.5670
 3.5640	 2.5940
 3.5660	 2.5840
 3.5690	 2.6040
 3.5710	 2.5200
 3.5740	 2.5010
 3.5760	 2.5670
 3.5790	 2.6500
 3.5810	 2.6210
 3.5840	 2.6120
 3.5860	 2.6110
 3.5890	 2.6110
 3.5910	 2.5710
 3.5940	 2.6080
 3.5960	 2.6510
 3.5990	 2.6470
 3.6010	 2.5990
 3.6040	 2.6070
 3.6060	 2.5810
 3.6090	 2.5740
 3.6110	 2.5640
 3.6140	 2.5980
 3.6160	 2.6100
 3.6190	 2.6380
 3.6210	 2.6080
 3.6240	 2.6370
 3.6260	 2.6430
 3.6290	 2.6030
 3.6310	 2.5600
 3.6340	 2.6160
 3.6360	 2.6170
 3.6390	 2.6150
 3.6410	 2.6350
 3.6440	 2.6690
 3.6470	 2.6280
 3.6490	 2.6180
 3.6520	 2.6310
 3.6540	 2.6630
 3.6570	 2.6270
 3.6590	 2.6400
 3.6620	 2.6460
 3.6650	 2.6880
 3.6670	 2.7030
 3.6700	 2.7070
 3.6720	 2.6760
 3.6750	 2.6770
 3.6780	 2.6830
 3.6800	 2.6990
 3.6830	 2.7010
 3.6850	 2.7540
 3.6880	 2.7420
 3.6910	 2.7480
 3.6930	 2.7690
 3.6960	 2.8050
 3.6990	 2.8050
 3.7010	 2.8140
 3.7040	 2.8210
 3.7070	 2.8590
 3.7090	 2.8360
 3.7120	 2.7990
 3.7150	 2.7970
 3.7170	 2.8610
 3.7200	 2.8820
 3.7230	 2.8940
 3.7250	 2.8810
 3.7280	 2.9050
 3.7310	 2.9030
 3.7330	 2.9300
 3.7360	 2.9590
 3.7390	 3.0100
 3.7410	 3.0040
 3.7440	 3.0370
 3.7470	 3.0290
 3.7490	 3.0100
 3.7520	 3.0160
 3.7550	 3.0870
 3.7580	 3.0870
 3.7600	 3.1010
 3.7630	 3.1000
 3.7660	 3.1280
 3.7690	 3.1340
 3.7710	 3.1650
 3.7740	 3.1650
 3.7770	 3.2070
 3.7790	 3.2170
 3.7820	 3.2460
 3.7850	 3.2890
 3.7880	 3.3310
 3.7910	 3.2930
 3.7930	 3.2780
 3.7960	 3.2920
 3.7990	 3.3380
 3.8020	 3.3470
 3.8040	 3.3580
 3.8070	 3.3660
 3.8100	 3.4010
 3.8130	 3.4000
 3.8160	 3.4320
 3.8180	 3.4460
 3.8210	 3.4690
 3.8240	 3.4780
 3.8270	 3.5060
 3.8300	 3.4930
 3.8330	 3.5300
 3.8350	 3.5190
 3.8380	 3.5070
 3.8410	 3.4930
 3.8440	 3.5050
 3.8470	 3.5320
 3.8500	 3.5710
 3.8520	 3.5680
 3.8550	 3.5880
 3.8580	 3.6010
 3.8610	 3.6420
 3.8640	 3.6560
 3.8670	 3.6460
 3.8700	 3.6340
 3.8730	 3.6670
 3.8760	 3.6880
 3.8780	 3.6850
 3.8810	 3.6720
 3.8840	 3.6880
 3.8870	 3.6740
 3.8900	 3.6920
 3.8930	 3.6960
 3.8960	 3.6790
 3.8990	 3.6600
 3.9020	 3.7200
 3.9050	 3.7320
 3.9080	 3.7050
 3.9110	 3.6760
 3.9140	 3.7110
 3.9170	 3.7010
 3.9190	 3.6910
 3.9220	 3.6660
 3.9250	 3.6620
 3.9280	 3.6590
 3.9310	 3.6850
 3.9340	 3.6770
 3.9370	 3.6840
 3.9400	 3.6620
 3.9430	 3.6870
 3.9460	 3.7210
 3.9490	 3.7170
 3.9520	 3.6850
 3.9550	 3.6830
 3.9580	 3.6830
 3.9610	 3.6840
 3.9640	 3.6690
 3.9670	 3.6560
 3.9700	 3.6470
 3.9740	 3.6830
 3.9770	 3.7000
 3.9800	 3.7060
 3.9830	 3.6970
 3.9860	 3.7270
 3.9890	 3.7300
 3.9920	 3.7310
 3.9950	 3.7210
 3.9980	 3.7250
 4.0010	 3.7080
 4.0040	 3.6790
 4.0070	 3.6550
 4.0100	 3.6740
 4.0140	 3.6950
 4.0170	 3.7080
 4.0200	 3.6980
 4.0230	 3.7260
 4.0260	 3.6930
 4.0290	 3.6870
 4.0320	 3.7020
 4.0350	 3.7150
 4.0390	 3.6830
 4.0420	 3.6860
 4.0450	 3.6820
 4.0480	 3.6900
 4.0510	 3.6680
 4.0540	 3.6680
 4.0570	 3.6700
 4.0610	 3.6750
 4.0640	 3.6430
 4.0670	 3.6380
 4.0700	 3.6570
 4.0730	 3.6600
 4.0770	 3.6360
 4.0800	 3.6260
 4.0830	 3.6020
 4.0860	 3.5940
 4.0890	 3.5790
 4.0930	 3.6020
 4.0960	 3.5960
 4.0990	 3.5950
 4.1020	 3.5800
 4.1060	 3.5640
 4.1090	 3.5530
 4.1120	 3.5620
 4.1150	 3.5610
 4.1190	 3.5550
 4.1220	 3.5460
 4.1250	 3.5490
 4.1290	 3.5300
 4.1320	 3.5430
 4.1350	 3.5200
 4.1380	 3.4980
 4.1420	 3.4930
 4.1450	 3.4830
 4.1480	 3.4790
 4.1520	 3.4760
 4.1550	 3.4610
 4.1580	 3.4940
 4.1620	 3.4670
 4.1650	 3.4220
 4.1680	 3.3900
 4.1720	 3.4040
 4.1750	 3.4230
 4.1780	 3.4190
 4.1820	 3.3870
 4.1850	 3.3900
 4.1890	 3.3700
 4.1920	 3.3760
 4.1950	 3.3660
 4.1990	 3.3610
 4.2020	 3.3460
 4.2060	 3.3340
 4.2090	 3.3290
 4.2120	 3.3270
 4.2160	 3.2960
 4.2190	 3.2590
 4.2230	 3.2950
 4.2260	 3.3560
 4.2300	 3.3020
 4.2330	 3.2290
 4.2360	 3.1690
 4.2400	 3.2230
 4.2430	 3.2540
 4.2470	 3.2140
 4.2500	 3.1780
 4.2540	 3.1650
 4.2570	 3.1180
 4.2610	 3.1120
 4.2640	 3.1180
 4.2680	 3.1260
 4.2710	 3.1130
 4.2750	 3.1580
 4.2780	 3.1400
 4.2820	 3.0850
 4.2850	 3.0460
 4.2890	 3.0770
 4.2930	 3.0630
 4.2960	 3.0610
 4.3000	 3.0150
 4.3030	 2.9880
 4.3070	 3.0180
 4.3100	 3.0420
 4.3140	 2.9990
 4.3180	 2.9490
 4.3210	 2.9070
 4.3250	 2.8940
 4.3280	 2.8520
 4.3320	 2.8680
 4.3360	 2.8810
 4.3390	 2.8580
 4.3430	 2.8380
 4.3470	 2.8150
 4.3500	 2.8130
 4.3540	 2.8240
 4.3580	 2.8070
 4.3610	 2.7920
 4.3650	 2.7590
 4.3690	 2.7680
 4.3720	 2.7570
 4.3760	 2.7540
 4.3800	 2.7500
 4.3830	 2.7240
 4.3870	 2.7210
 4.3910	 2.7370
 4.3940	 2.7160
 4.3980	 2.7070
 4.4020	 2.7030
 4.4060	 2.7350
 4.4090	 2.6990
 4.4130	 2.6800
 4.4170	 2.6750
 4.4210	 2.6740
 4.4240	 2.6510
 4.4280	 2.6260
 4.4320	 2.6140
 4.4360	 2.5990
 4.4400	 2.5990
 4.4430	 2.6200
 4.4470	 2.6180
 4.4510	 2.6110
 4.4550	 2.5960
 4.4590	 2.5760
 4.4630	 2.5640
 4.4660	 2.5440
 4.4700	 2.5520
 4.4740	 2.5600
 4.4780	 2.5450
 4.4820	 2.5480
 4.4860	 2.5330
 4.4900	 2.5250
 4.4930	 2.5450
 4.4970	 2.5620
 4.5010	 2.5520
 4.5050	 2.5380
 4.5090	 2.5200
 4.5130	 2.5130
 4.5170	 2.4870
 4.5210	 2.4780
 4.5250	 2.4880
 4.5290	 2.4780
 4.5330	 2.4580
 4.5370	 2.4580
 4.5410	 2.4630
 4.5450	 2.4720
 4.5490	 2.4560
 4.5530	 2.4540
 4.5570	 2.4320
 4.5610	 2.4380
 4.5650	 2.4440
 4.5690	 2.4490
 4.5730	 2.4290
 4.5770	 2.4160
 4.5810	 2.4530
 4.5850	 2.4740
 4.5890	 2.4440
 4.5930	 2.4280
 4.5970	 2.4370
 4.6010	 2.4170
 4.6050	 2.4190
 4.6090	 2.4070
 4.6130	 2.3720
 4.6170	 2.3750
 4.6220	 2.4090
 4.6260	 2.4440
 4.6300	 2.4490
 4.6340	 2.4330
 4.6380	 2.4080
 4.6420	 2.3980
 4.6460	 2.3880
 4.6510	 2.3880
 4.6550	 2.4060
 4.6590	 2.4210
 4.6630	 2.4280
 4.6670	 2.4210
 4.6720	 2.3840
 4.6760	 2.3870
 4.6800	 2.4040
 4.6840	 2.4130
 4.6880	 2.4170
 4.6930	 2.4090
 4.6970	 2.4140
 4.7010	 2.4370
 4.7050	 2.4120
 4.7100	 2.3730
 4.7140	 2.3670
 4.7180	 2.3600
 4.7230	 2.3810
 4.7270	 2.4020
 4.7310	 2.4140
 4.7360	 2.4280
 4.7400	 2.4060
 4.7440	 2.3830
 4.7490	 2.4080
 4.7530	 2.4140
 4.7570	 2.3920
 4.7620	 2.3930
 4.7660	 2.4170
 4.7700	 2.4270
 4.7750	 2.4160
 4.7790	 2.4050
 4.7840	 2.4230
 4.7880	 2.4460
 4.7920	 2.4650
 4.7970	 2.4380
 4.8010	 2.4270
 4.8060	 2.4390
 4.8100	 2.4390
 4.8150	 2.4290
 4.8190	 2.4560
 4.8240	 2.4740
 4.8280	 2.4780
 4.8330	 2.4820
 4.8370	 2.4660
 4.8420	 2.4580
 4.8460	 2.4690
 4.8510	 2.4710
 4.8550	 2.4870
 4.8600	 2.4870
 4.8640	 2.4820
 4.8690	 2.4960
 4.8740	 2.5270
 4.8780	 2.4960
 4.8830	 2.4770
 4.8870	 2.5050
 4.8920	 2.5200
 4.8970	 2.5170
 4.9010	 2.5270
 4.9060	 2.5260
 4.9100	 2.5360
 4.9150	 2.5450
 4.9200	 2.5560
 4.9240	 2.5850
 4.9290	 2.6040
 4.9340	 2.5870
 4.9390	 2.5850
 4.9430	 2.6320
 4.9480	 2.6600
 4.9530	 2.6470
 4.9570	 2.6350
 4.9620	 2.6000
 4.9670	 2.6240
 4.9720	 2.6740
 4.9760	 2.6630
 4.9810	 2.6570
 4.9860	 2.6880
 4.9910	 2.7000
 4.9960	 2.7010
 5.0000	 2.6820
 5.0050	 2.7170
 5.0100	 2.7540
 5.0150	 2.7650
 5.0200	 2.7560
 5.0250	 2.7510
 5.0300	 2.7660
 5.0340	 2.8110
 5.0390	 2.8090
 5.0440	 2.8140
 5.0490	 2.8360
 5.0540	 2.8160
 5.0590	 2.7910
 5.0640	 2.8330
 5.0690	 2.8610
 5.0740	 2.8630
 5.0790	 2.8820
 5.0840	 2.9270
 5.0890	 2.9160
 5.0940	 2.9010
 5.0990	 2.9320
 5.1040	 2.9700
 5.1090	 2.9640
 5.1140	 2.9750
 5.1190	 2.9760
 5.1240	 2.9770
 5.1290	 2.9850
 5.1340	 3.0130
 5.1390	 3.0080
 5.1440	 3.0240
 5.1490	 3.0540
 5.1550	 3.0780
 5.1600	 3.0870
 5.1650	 3.0720
 5.1700	 3.0910
 5.1750	 3.1520
 5.1800	 3.1510
 5.1850	 3.1440
 5.1910	 3.1660
 5.1960	 3.2050
 5.2010	 3.2020
 5.2060	 3.1900
 5.2110	 3.1930
 5.2170	 3.1830
 5.2220	 3.1690
 5.2270	 3.1680
 5.2330	 3.1690
 5.2380	 3.1970
 5.2430	 3.2100
 5.2480	 3.2190
 5.2540	 3.2280
 5.2590	 3.2140
 5.2640	 3.1870
 5.2700	 3.1910
 5.2750	 3.1960
 5.2800	 3.2250
 5.2860	 3.2050
 5.2910	 3.1780
 5.2970	 3.1770
 5.3020	 3.2080
 5.3080	 3.2050
 5.3130	 3.2020
 5.3180	 3.2110
 5.3240	 3.2340
 5.3290	 3.2260
 5.3350	 3.2060
 5.3400	 3.1800
 5.3460	 3.1860
 5.3510	 3.1840
 5.3570	 3.1750
 5.3620	 3.1710
 5.3680	 3.2070
 5.3740	 3.1740
 5.3790	 3.1490
 5.3850	 3.1370
 5.3900	 3.1730
 5.3960	 3.1800
 5.4010	 3.1860
 5.4070	 3.1800
 5.4130	 3.1970
 5.4180	 3.1360
 5.4240	 3.0790
 5.4300	 3.0860
 5.4350	 3.0700
 5.4410	 3.0410
 5.4470	 3.0590
 5.4530	 3.0280
 5.4580	 3.0280
 5.4640	 2.9860
 5.4700	 2.9610
 5.4760	 2.9350
 5.4810	 2.9490
 5.4870	 2.9400
 5.4930	 2.9080
 5.4990	 2.8790
 5.5050	 2.8640
 5.5110	 2.8400
 5.5160	 2.8310
 5.5220	 2.8110
 5.5280	 2.7940
 5.5340	 2.7790
 5.5400	 2.7800
 5.5460	 2.7210
 5.5520	 2.6990
 5.5580	 2.6750
 5.5640	 2.6440
 5.5700	 2.6160
 5.5760	 2.6120
 5.5820	 2.5820
 5.5880	 2.5860
 5.5940	 2.5670
 5.6000	 2.5430
 5.6060	 2.5110
 5.6120	 2.4970
 5.6180	 2.4440
 5.6240	 2.4170
 5.6300	 2.3980
 5.6360	 2.3580
 5.6420	 2.3100
 5.6490	 2.3280
 5.6550	 2.3150
 5.6610	 2.3140
 5.6670	 2.2790
 5.6730	 2.2410
 5.6800	 2.1730
 5.6860	 2.1810
 5.6920	 2.1670
 5.6980	 2.1550
 5.7050	 2.0910
 5.7110	 2.0450
 5.7170	 2.0380
 5.7230	 2.0440
 5.7300	 1.9980
 5.7360	 2.0100
 5.7420	 2.0180
 5.7490	 2.0280
 5.7550	 2.0590
 5.7620	 2.1100
 5.7680	 2.1260
 5.7740	 2.1980
 5.7810	 2.2260
 5.7870	 2.2960
 5.7940	 2.3010
 5.8000	 2.3020
 5.8070	 2.2750
 5.8130	 2.2730
 5.8200	 2.2390
 5.8260	 2.2710
 5.8330	 2.2890
 5.8390	 2.3340
 5.8460	 2.3550
 5.8530	 2.3800
 5.8590	 2.3910
 5.8660	 2.4200
 5.8730	 2.3830
 5.8790	 2.3560
 5.8860	 2.3310
 5.8930	 2.3530
 5.8990	 2.2930
 5.9060	 2.2820
 5.9130	 2.2550
 5.9190	 2.2600
 5.9260	 2.2270
 5.9330	 2.2250
 5.9400	 2.1990
 5.9470	 2.2140
 5.9530	 2.1910
 5.9600	 2.1800
 5.9670	 2.1510
 5.9740	 2.1510
 5.9810	 2.1100
 5.9880	 2.1070
 5.9950	 2.0860
 6.0020	 2.0840
 6.0090	 2.0490
 6.0160	 2.0630
 6.0230	 2.0510
 6.0300	 2.0550
 6.0370	 2.0350
 6.0440	 2.0070
 6.0510	 1.9360
 6.0580	 1.9780
 6.0650	 2.0150
 6.0720	 2.0190
 6.0790	 1.9530
 6.0860	 1.9920
 6.0930	 1.9840
 6.1010	 2.0090
 6.1080	 1.9810
 6.1150	 1.9970
 6.1220	 1.9960
 6.1290	 2.0150
 6.1370	 2.0040
 6.1440	 2.0190
 6.1510	 2.0180
 6.1580	 2.0360
 6.1660	 2.0460
 6.1730	 2.0960
 6.1800	 2.0620
 6.1880	 2.1090
 6.1950	 2.0950
 6.2030	 2.1160
 6.2100	 2.0910
 6.2180	 2.1100
 6.2250	 2.0940
 6.2320	 2.1050
 6.2400	 2.1080
 6.2480	 2.1300
 6.2550	 2.0910
 6.2630	 2.1240
 6.2700	 2.1220
 6.2780	 2.1670
 6.2850	 2.1230
 6.2930	 2.1100
 6.3010	 2.1080
 6.3080	 2.1610
 6.3160	 2.1940
 6.3240	 2.2220
 6.3310	 2.1700
 6.3390	 2.1760
 6.3470	 2.1150
 6.3550	 2.1680
 6.3620	 2.1810
 6.3700	 2.2150
 6.3780	 2.2150
 6.3860	 2.1960
 6.3940	 2.1570
 6.4020	 2.1870
 6.4100	 2.1430
 6.4180	 2.1880
 6.4260	 2.1720
 6.4340	 2.2070
 6.4420	 2.2200
 6.4500	 2.2310
 6.4580	 2.2090
 6.4660	 2.2390
 6.4740	 2.1720
 6.4820	 2.1460
 6.4900	 2.1320
 6.4980	 2.1960
 6.5060	 2.2080
 6.5140	 2.2310
 6.5230	 2.2040
 6.5310	 2.2220
 6.5390	 2.1910
 6.5470	 2.2540
 6.5560	 2.2160
 6.5640	 2.1890
 6.5720	 2.1440
 6.5800	 2.1440
 6.5890	 2.1070
 6.5970	 2.1170
 6.6060	 2.1220
 6.6140	 2.1780
 6.6230	 2.1500
 6.6310	 2.1530
 6.6390	 2.1030
 6.6480	 2.1740
 6.6570	 2.1810
 6.6650	 2.1960
 6.6740	 2.1600
 6.6820	 2.1410
 6.6910	 2.1490
 6.7000	 2.2070
 6.7080	 2.1370
 6.7170	 2.1400
 6.7260	 2.1420
 6.7340	 2.2120
 6.7430	 2.1590
 6.7520	 2.1330
 6.7610	 2.1050
 6.7690	 2.0990
 6.7780	 2.1000
 6.7870	 2.3150
 6.7960	 2.3900
 6.8050	 2.3400
 6.8140	 2.2960
 6.8230	 2.3240
 6.8320	 2.4540
 6.8410	 2.6790
 6.8500	 2.5920
 6.8590	 2.4330
 6.8680	 2.3530
 6.8770	 2.3980
 6.8860	 2.3430
 6.8960	 2.3300
 6.9050	 2.3100
 6.9140	 2.3350
 6.9230	 2.2820
 6.9320	 2.2960
 6.9420	 2.2910
 6.9510	 2.3460
 6.9600	 2.2890
 6.9700	 2.2920
 6.9790	 2.2280
 6.9880	 2.2630
 6.9980	 2.2550
 7.0070	 2.2700
 7.0170	 2.2240
 7.0260	 2.2530
 7.0360	 2.2360
 7.0450	 2.2850
 7.0550	 2.2960
 7.0650	 2.3410
 7.0740	 2.3020
 7.0840	 2.3020
 7.0940	 2.2370
 7.1030	 2.2390
 7.1130	 2.2050
 7.1230	 2.2620
 7.1330	 2.1950
 7.1420	 2.1900
 7.1520	 2.1750
 7.1620	 2.2150
 7.1720	 2.1330
 7.1820	 2.1670
 7.1920	 2.1290
 7.2020	 2.1330
 7.2120	 2.0680
 7.2220	 2.0990
 7.2320	 2.0940
 7.2420	 2.1190
 7.2520	 2.0340
 7.2620	 2.1140
 7.2730	 2.1290
 7.2830	 2.1390
 7.2930	 2.0910
 7.3030	 2.1390
 7.3140	 2.0760
 7.3240	 2.0890
 7.3340	 2.0320
 7.3450	 2.0970
 7.3550	 2.0890
 7.3660	 2.1070
 7.3760	 2.0480
 7.3870	 2.0650
 7.3970	 2.0200
 7.4080	 2.0550
 7.4180	 2.0300
 7.4290	 2.0860
 7.4400	 2.0380
 7.4500	 2.0750
 7.4610	 2.0130
 7.4720	 2.0040
 7.4830	 1.9570
 7.4930	 2.0100
 7.5040	 1.9460
 7.5150	 1.9760
 7.5260	 1.9670
 7.5370	 1.9690
 7.5480	 1.9230
 7.5590	 1.9640
 7.5700	 1.9380
 7.5810	 1.9830
 7.5920	 1.9060
 7.6030	 1.9510
 7.6140	 1.9440
 7.6260	 1.9720
 7.6370	 1.8940
 7.6480	 1.9470
 7.6590	 1.9400
 7.6710	 1.9570
 7.6820	 1.8680
 7.6940	 1.9000
 7.7050	 1.9030
 7.7160	 1.9630
 7.7280	 1.9250
 7.7390	 1.9750
 7.7510	 1.9320
 7.7630	 1.9140
 7.7740	 1.8720
 7.7860	 1.9190
 7.7980	 1.8430
 7.8090	 1.8360
 7.8210	 1.8040
 7.8330	 1.8800
 7.8450	 1.8610
 7.8570	 1.8860
 7.8690	 1.8510
 7.8810	 1.8890
 7.8930	 1.8030
 7.9050	 1.8580
 7.9170	 1.8110
 7.9290	 1.8150
 7.9410	 1.7710
 7.9530	 1.8580
 7.9650	 1.8520
 7.9780	 1.8350
 7.9900	 1.6920
 8.0020	 1.7050
 8.0150	 1.6730
 8.0270	 1.7450
 8.0390	 1.6920
 8.0520	 1.7290
 8.0640	 1.7130
 8.0770	 1.7680
 8.0900	 1.6930
 8.1020	 1.7030
 8.1150	 1.5880
 8.1280	 1.6790
 8.1400	 1.6560
 8.1530	 1.7270
 8.1660	 1.6760
 8.1790	 1.7550
 8.1920	 1.7110
 8.2050	 1.7560
 8.2180	 1.6850
 8.2310	 1.7370
 8.2440	 1.6650
 8.2570	 1.7390
 8.2700	 1.6810
 8.2830	 1.7560
 8.2970	 1.6630
 8.3100	 1.7140
 8.3230	 1.6440
 8.3370	 1.7760
 8.3500	 1.7460
 8.3640	 1.7980
 8.3770	 1.7250
 8.3910	 1.8490
 8.4040	 1.8520
 8.4180	 1.8670
 8.4320	 1.8100
 8.4450	 1.9140
 8.4590	 1.8310
 8.4730	 1.8820
 8.4870	 1.8200
 8.5010	 1.8790
 8.5150	 1.8670
 8.5290	 1.9210
 8.5430	 1.8410
 8.5570	 1.9360
 8.5710	 1.9220
 8.5850	 2.0160
 8.5990	 1.9420
 8.6140	 2.0710
 8.6280	 2.0520
 8.6420	 2.1720
 8.6570	 2.1060
 8.6710	 2.1740
 8.6860	 2.0540
 8.7000	 2.1480
 8.7150	 2.1620
 8.7300	 2.2580
 8.7440	 2.2380
 8.7590	 2.3600
 8.7740	 2.3070
 8.7890	 2.3720
 8.8040	 2.3220
 8.8190	 2.4520
 8.8340	 2.4710
 8.8490	 2.6390
 8.8640	 2.6240
 8.8790	 2.7840
 8.8940	 2.7910
 8.9100	 3.0060
 8.9250	 3.0480
 8.9400	 3.2520
 8.9560	 3.3070
 8.9710	 3.5400
 8.9870	 3.6040
 9.0020	 3.8440
 9.0180	 3.9410
 9.0340	 4.2030
 9.0500	 4.3240
 9.0650	 4.5510
 9.0810	 4.5580
 9.0970	 4.7420
 9.1130	 4.7900
 9.1290	 4.9370
 9.1450	 4.9280
 9.1620	 5.1310
 9.1780	 5.0990
 9.1940	 5.2480
 9.2100	 5.2470
 9.2270	 5.3840
 9.2430	 5.3710
 9.2600	 5.5170
 9.2760	 5.5120
 9.2930	 5.6490
 9.3100	 5.5720
 9.3260	 5.6000
 9.3430	 5.4460
 9.3600	 5.4750
 9.3770	 5.4090
 9.3940	 5.4980
 9.4110	 5.3700
 9.4280	 5.4180
 9.4450	 5.2330
 9.4620	 5.2010
 9.4800	 5.1470
 9.4970	 5.3340
 9.5150	 5.2280
 9.5320	 5.2530
 9.5500	 5.2540
 9.5670	 5.4350
 9.5850	 5.4210
 9.6030	 5.5320
 9.6200	 5.4710
 9.6380	 5.6220
 9.6560	 5.5610
 9.6740	 5.5940
 9.6920	 5.4630
 9.7110	 5.5210
 9.7290	 5.4300
 9.7470	 5.5280
 9.7650	 5.3270
 9.7840	 5.3410
 9.8020	 5.1920
 9.8210	 5.1490
 9.8390	 5.0310
 9.8580	 5.1640
 9.8770	 5.0260
 9.8960	 4.9790
 9.9150	 4.7960
 9.9340	 4.7890
 9.9530	 4.6040
 9.9720	 4.6370
 9.9910	 4.4500
10.0100	 4.4540
10.0300	 4.3380
10.0490	 4.3300
10.0690	 4.1870
10.0880	 4.2280
10.1080	 4.0840
10.1280	 4.1470
10.1480	 4.0810
10.1670	 4.1680
10.1870	 4.0920
10.2070	 4.1850
10.2280	 4.1550
10.2480	 4.2770
10.2680	 4.2430
10.2890	 4.3870
10.3090	 4.3400
10.3300	 4.3850
10.3500	 4.3570
10.3710	 4.5120
10.3920	 4.4770
10.4120	 4.6380
10.4330	 4.6100
10.4540	 4.7250
10.4760	 4.6320
10.4970	 4.6990
10.5180	 4.6540
10.5390	 4.7940
10.5610	 4.6740
10.5820	 4.7310
10.6040	 4.6860
10.6260	 4.7940
10.6480	 4.7130
10.6700	 4.7240
10.6920	 4.5330
10.7140	 4.5980
10.7360	 4.4920
10.7580	 4.5290
10.7800	 4.4080
10.8030	 4.4900
10.8250	 4.3660
10.8480	 4.3610
10.8710	 4.1600
10.8940	 4.1680
10.9170	 4.0630
10.9400	 4.1430
10.9630	 3.9330
10.9860	 3.9230
11.0090	 3.7860
11.0330	 3.8360
11.0560	 3.6370
11.0800	 3.6650
11.1040	 3.5180
11.1270	 3.5750
11.1510	 3.4810
11.1750	 3.5920
11.2000	 3.4130
11.2240	 3.4910
11.2480	 3.4220
11.2730	 3.4180
11.2970	 3.2410
11.3220	 3.3650
11.3470	 3.2610
11.3720	 3.3560
11.3970	 3.1560
11.4220	 3.1750
11.4470	 3.0880
11.4720	 3.2350
11.4980	 3.0000
11.5230	 2.9800
11.5490	 2.8180
11.5750	 2.8730
11.6000	 2.6980
11.6260	 2.7290
11.6530	 2.5320
11.6790	 2.6150
11.7050	 2.5150
11.7320	 2.5990
11.7580	 2.4130
11.7850	 2.4260
11.8120	 2.2140
11.8390	 2.2500
11.8660	 2.0830
11.8930	 2.2060
11.9200	 2.0540
11.9480	 2.1560
11.9760	 2.0610
12.0030	 2.1480
12.0310	 1.9630
12.0590	 2.0640
12.0870	 2.0170
12.1150	 2.1610
12.1440	 1.9450
12.1720	 2.0080
12.2010	 1.8150
12.2300	 1.9840
12.2590	 1.9120
12.2880	 2.0100
12.3170	 1.8340
12.3460	 2.0570
12.3760	 1.9870
12.4050	 2.1440
12.4350	 2.0210
12.4650	 2.1130
12.4950	 1.9670
12.5250	 2.1920
12.5550	 2.0910
12.5860	 2.2150
12.6170	 2.1000
12.6470	 2.2340
12.6780	 2.0640
12.7090	 2.1990
12.7410	 2.0130
12.7720	 2.1200
12.8030	 1.9510
12.8350	 2.2300
12.8670	 2.1800
12.8990	 2.3380
12.9310	 2.1180
12.9640	 2.2190
12.9960	 1.9660
13.0290	 2.1420
13.0610	 2.0430
13.0940	 2.1760
13.1280	 1.9060
13.1610	 2.0440
13.1940	 2.0320
13.2280	 2.6050
13.2620	 2.2550
13.2960	 2.0330
13.3300	 1.9110
13.3640	 2.1620
13.3990	 1.9840
13.4340	 2.0990
13.4690	 1.9500
13.5040	 2.1630
13.5390	 1.9830
13.5740	 2.1670
13.6100	 1.9890
13.6460	 2.1660
13.6820	 2.0850
13.7180	 2.3420
13.7540	 1.9190
13.7910	 2.0800
13.8280	 1.9840
13.8650	 2.3250
13.9020	 2.2160
13.9390	 2.2760
13.9770	 1.9050
14.0150	 2.1610
14.0530	 2.0380
14.0910	 2.2680
14.1290	 2.0190
14.1680	 2.1580
14.2070	 1.9690
14.2460	 2.2340
14.2850	 1.9780
14.3240	 2.3190
14.3640	 2.1120
14.4040	 2.2900
14.4440	 2.0130
14.4840	 2.2550
14.5250	 1.9340
14.5660	 2.1940
14.6070	 1.9320
14.6480	 2.2760
14.6900	 1.9710
14.7310	 2.2670
14.7730	 1.9850
14.8150	 2.2470
14.8580	 1.8600
14.9010	 2.2240
14.9440	 1.8960
14.9870	 2.4280
15.0300	 1.9240
15.0740	 2.2480
15.1180	 1.9440
15.1620	 2.3240
15.2060	 1.9300
15.2510	 2.3950
15.2960	 2.1580
15.3410	 2.5390
15.3870	 2.0590
