Name: Quercus rubra
Type: Vegetation
Class: Tree
Genus: Quercus
Species: rubra
Sample No.: QURU-3-11
Owner: UCSB
Wavelength Range: VSWIR
Origin: USA; Massachusetts; Harvard Forest
Collection Date: 7/8/2013
Description: Samples were collected as part of NSF Macrosystem Biology proposal titled: Collaborative Research: Thermal controls on ecosystem metabolism and function: scaling from leaves to canopies to regions. Samples were collected and overnighted to JPL facilities for processing. The same leaves were processed in the Nicolet and then measured using the ASD.
Measurement: Bidirectional reflectance
First Column: X
Second Column: Y
X Units: Wavelength (micrometers)
Y Units: Reflectance (percentage)
First X Value: 0.35
Last X Value: 2.5
Number of X Values: 2151
Additional Information: vegetation.tree.quercus.rubra.vswir.quru-3-11.ucsb.asd.ancillary.txt

 0.3500	 6.5690
 0.3510	 6.3350
 0.3520	 6.1220
 0.3530	 6.2100
 0.3540	 6.6010
 0.3550	 6.5790
 0.3560	 6.3890
 0.3570	 6.2180
 0.3580	 6.1840
 0.3590	 6.1080
 0.3600	 6.0270
 0.3610	 5.9990
 0.3620	 6.0940
 0.3630	 6.1090
 0.3640	 6.1330
 0.3650	 6.2430
 0.3660	 6.1880
 0.3670	 6.1070
 0.3680	 6.0840
 0.3690	 6.1410
 0.3700	 6.1340
 0.3710	 6.0570
 0.3720	 5.9830
 0.3730	 6.1040
 0.3740	 6.1210
 0.3750	 6.0350
 0.3760	 5.9700
 0.3770	 6.1310
 0.3780	 6.2460
 0.3790	 6.1810
 0.3800	 5.9650
 0.3810	 5.9970
 0.3820	 6.1090
 0.3830	 6.1420
 0.3840	 6.1900
 0.3850	 6.1480
 0.3860	 6.0960
 0.3870	 6.1380
 0.3880	 6.1180
 0.3890	 6.1310
 0.3900	 6.1770
 0.3910	 6.1470
 0.3920	 6.0950
 0.3930	 6.0650
 0.3940	 6.0850
 0.3950	 6.1680
 0.3960	 6.1420
 0.3970	 6.0840
 0.3980	 6.1510
 0.3990	 6.1570
 0.4000	 6.1830
 0.4010	 6.2300
 0.4020	 6.1670
 0.4030	 6.1420
 0.4040	 6.1700
 0.4050	 6.2140
 0.4060	 6.1860
 0.4070	 6.1870
 0.4080	 6.2090
 0.4090	 6.1850
 0.4100	 6.2070
 0.4110	 6.2200
 0.4120	 6.2060
 0.4130	 6.2420
 0.4140	 6.2620
 0.4150	 6.2900
 0.4160	 6.3500
 0.4170	 6.3290
 0.4180	 6.2950
 0.4190	 6.2980
 0.4200	 6.3580
 0.4210	 6.3590
 0.4220	 6.3470
 0.4230	 6.3730
 0.4240	 6.4070
 0.4250	 6.4340
 0.4260	 6.4500
 0.4270	 6.4600
 0.4280	 6.4890
 0.4290	 6.5140
 0.4300	 6.5280
 0.4310	 6.5450
 0.4320	 6.5490
 0.4330	 6.5490
 0.4340	 6.5570
 0.4350	 6.5740
 0.4360	 6.6010
 0.4370	 6.6340
 0.4380	 6.6660
 0.4390	 6.6620
 0.4400	 6.6730
 0.4410	 6.7210
 0.4420	 6.7350
 0.4430	 6.7440
 0.4440	 6.7540
 0.4450	 6.7650
 0.4460	 6.7890
 0.4470	 6.8250
 0.4480	 6.8610
 0.4490	 6.8710
 0.4500	 6.8750
 0.4510	 6.8820
 0.4520	 6.8970
 0.4530	 6.9240
 0.4540	 6.9390
 0.4550	 6.9480
 0.4560	 6.9750
 0.4570	 6.9720
 0.4580	 6.9660
 0.4590	 6.9760
 0.4600	 6.9910
 0.4610	 7.0060
 0.4620	 7.0130
 0.4630	 7.0070
 0.4640	 7.0090
 0.4650	 7.0230
 0.4660	 7.0340
 0.4670	 7.0150
 0.4680	 7.0150
 0.4690	 7.0220
 0.4700	 7.0220
 0.4710	 7.0420
 0.4720	 7.0400
 0.4730	 7.0300
 0.4740	 7.0430
 0.4750	 7.0320
 0.4760	 7.0290
 0.4770	 7.0480
 0.4780	 7.0560
 0.4790	 7.0420
 0.4800	 7.0310
 0.4810	 7.0470
 0.4820	 7.0570
 0.4830	 7.0610
 0.4840	 7.0640
 0.4850	 7.0790
 0.4860	 7.0830
 0.4870	 7.0960
 0.4880	 7.1270
 0.4890	 7.1300
 0.4900	 7.1430
 0.4910	 7.1670
 0.4920	 7.1900
 0.4930	 7.2120
 0.4940	 7.2410
 0.4950	 7.2760
 0.4960	 7.3040
 0.4970	 7.3420
 0.4980	 7.3810
 0.4990	 7.4130
 0.5000	 7.4550
 0.5010	 7.5040
 0.5020	 7.5590
 0.5030	 7.6180
 0.5040	 7.6780
 0.5050	 7.7440
 0.5060	 7.8160
 0.5070	 7.8870
 0.5080	 7.9740
 0.5090	 8.0710
 0.5100	 8.1640
 0.5110	 8.2770
 0.5120	 8.3990
 0.5130	 8.5250
 0.5140	 8.6480
 0.5150	 8.7940
 0.5160	 8.9560
 0.5170	 9.1200
 0.5180	 9.2860
 0.5190	 9.4610
 0.5200	 9.6470
 0.5210	 9.8440
 0.5220	10.0280
 0.5230	10.2130
 0.5240	10.4050
 0.5250	10.5860
 0.5260	10.7630
 0.5270	10.9310
 0.5280	11.0860
 0.5290	11.2350
 0.5300	11.3770
 0.5310	11.5090
 0.5320	11.6190
 0.5330	11.7230
 0.5340	11.8210
 0.5350	11.9120
 0.5360	11.9840
 0.5370	12.0530
 0.5380	12.1200
 0.5390	12.1700
 0.5400	12.2140
 0.5410	12.2530
 0.5420	12.2910
 0.5430	12.3410
 0.5440	12.3860
 0.5450	12.4280
 0.5460	12.4770
 0.5470	12.5160
 0.5480	12.5530
 0.5490	12.5910
 0.5500	12.6170
 0.5510	12.6360
 0.5520	12.6480
 0.5530	12.6510
 0.5540	12.6420
 0.5550	12.6180
 0.5560	12.5790
 0.5570	12.5260
 0.5580	12.4550
 0.5590	12.3740
 0.5600	12.2890
 0.5610	12.1970
 0.5620	12.0980
 0.5630	11.9930
 0.5640	11.8830
 0.5650	11.7690
 0.5660	11.6510
 0.5670	11.5290
 0.5680	11.4090
 0.5690	11.2810
 0.5700	11.1460
 0.5710	11.0110
 0.5720	10.8930
 0.5730	10.7810
 0.5740	10.6740
 0.5750	10.5780
 0.5760	10.4870
 0.5770	10.4080
 0.5780	10.3410
 0.5790	10.2680
 0.5800	10.2010
 0.5810	10.1390
 0.5820	10.0760
 0.5830	10.0180
 0.5840	 9.9570
 0.5850	 9.8960
 0.5860	 9.8500
 0.5870	 9.8100
 0.5880	 9.7700
 0.5890	 9.7330
 0.5900	 9.7060
 0.5910	 9.6820
 0.5920	 9.6620
 0.5930	 9.6460
 0.5940	 9.6330
 0.5950	 9.6190
 0.5960	 9.6030
 0.5970	 9.5830
 0.5980	 9.5640
 0.5990	 9.5460
 0.6000	 9.5310
 0.6010	 9.5090
 0.6020	 9.4800
 0.6030	 9.4480
 0.6040	 9.4160
 0.6050	 9.3820
 0.6060	 9.3410
 0.6070	 9.2910
 0.6080	 9.2400
 0.6090	 9.1800
 0.6100	 9.1160
 0.6110	 9.0540
 0.6120	 9.0030
 0.6130	 8.9550
 0.6140	 8.9060
 0.6150	 8.8610
 0.6160	 8.8190
 0.6170	 8.7760
 0.6180	 8.7320
 0.6190	 8.6970
 0.6200	 8.6690
 0.6210	 8.6430
 0.6220	 8.6160
 0.6230	 8.5950
 0.6240	 8.5800
 0.6250	 8.5680
 0.6260	 8.5560
 0.6270	 8.5460
 0.6280	 8.5380
 0.6290	 8.5320
 0.6300	 8.5250
 0.6310	 8.5210
 0.6320	 8.5190
 0.6330	 8.5100
 0.6340	 8.5010
 0.6350	 8.4860
 0.6360	 8.4600
 0.6370	 8.4310
 0.6380	 8.4000
 0.6390	 8.3640
 0.6400	 8.3200
 0.6410	 8.2720
 0.6420	 8.2240
 0.6430	 8.1790
 0.6440	 8.1360
 0.6450	 8.0890
 0.6460	 8.0390
 0.6470	 7.9900
 0.6480	 7.9440
 0.6490	 7.9030
 0.6500	 7.8710
 0.6510	 7.8420
 0.6520	 7.8140
 0.6530	 7.7860
 0.6540	 7.7540
 0.6550	 7.7260
 0.6560	 7.6940
 0.6570	 7.6580
 0.6580	 7.6230
 0.6590	 7.5860
 0.6600	 7.5420
 0.6610	 7.4920
 0.6620	 7.4490
 0.6630	 7.4110
 0.6640	 7.3760
 0.6650	 7.3450
 0.6660	 7.3150
 0.6670	 7.2890
 0.6680	 7.2700
 0.6690	 7.2610
 0.6700	 7.2520
 0.6710	 7.2460
 0.6720	 7.2470
 0.6730	 7.2540
 0.6740	 7.2620
 0.6750	 7.2740
 0.6760	 7.2940
 0.6770	 7.3140
 0.6780	 7.3400
 0.6790	 7.3720
 0.6800	 7.4080
 0.6810	 7.4510
 0.6820	 7.5010
 0.6830	 7.5610
 0.6840	 7.6380
 0.6850	 7.7180
 0.6860	 7.8080
 0.6870	 7.9180
 0.6880	 8.0460
 0.6890	 8.1960
 0.6900	 8.3690
 0.6910	 8.5680
 0.6920	 8.8080
 0.6930	 9.0920
 0.6940	 9.4240
 0.6950	 9.8090
 0.6960	10.2510
 0.6970	10.7520
 0.6980	11.3100
 0.6990	11.9220
 0.7000	12.5900
 0.7010	13.3060
 0.7020	14.0570
 0.7030	14.8510
 0.7040	15.6740
 0.7050	16.5150
 0.7060	17.3760
 0.7070	18.2420
 0.7080	19.1190
 0.7090	20.0210
 0.7100	20.9230
 0.7110	21.8310
 0.7120	22.7450
 0.7130	23.6630
 0.7140	24.5800
 0.7150	25.4970
 0.7160	26.4130
 0.7170	27.3300
 0.7180	28.2320
 0.7190	29.1290
 0.7200	30.0320
 0.7210	30.9140
 0.7220	31.7810
 0.7230	32.6350
 0.7240	33.4640
 0.7250	34.2740
 0.7260	35.0610
 0.7270	35.8210
 0.7280	36.5500
 0.7290	37.2540
 0.7300	37.9280
 0.7310	38.5630
 0.7320	39.1750
 0.7330	39.7670
 0.7340	40.3320
 0.7350	40.8590
 0.7360	41.3520
 0.7370	41.8290
 0.7380	42.2900
 0.7390	42.6930
 0.7400	43.0760
 0.7410	43.4450
 0.7420	43.7930
 0.7430	44.1030
 0.7440	44.3950
 0.7450	44.6700
 0.7460	44.9070
 0.7470	45.1340
 0.7480	45.3500
 0.7490	45.5470
 0.7500	45.7250
 0.7510	45.8830
 0.7520	46.0230
 0.7530	46.1520
 0.7540	46.2780
 0.7550	46.3960
 0.7560	46.4990
 0.7570	46.5890
 0.7580	46.6660
 0.7590	46.7340
 0.7600	46.7960
 0.7610	46.8470
 0.7620	46.9000
 0.7630	46.9450
 0.7640	46.9790
 0.7650	47.0300
 0.7660	47.0670
 0.7670	47.0870
 0.7680	47.1040
 0.7690	47.1230
 0.7700	47.1490
 0.7710	47.1760
 0.7720	47.1760
 0.7730	47.1970
 0.7740	47.2230
 0.7750	47.2330
 0.7760	47.2370
 0.7770	47.2560
 0.7780	47.2720
 0.7790	47.2610
 0.7800	47.2770
 0.7810	47.2880
 0.7820	47.2870
 0.7830	47.2930
 0.7840	47.3120
 0.7850	47.3260
 0.7860	47.3240
 0.7870	47.3140
 0.7880	47.3270
 0.7890	47.3430
 0.7900	47.3370
 0.7910	47.3470
 0.7920	47.3510
 0.7930	47.3500
 0.7940	47.3560
 0.7950	47.3590
 0.7960	47.3580
 0.7970	47.3550
 0.7980	47.3490
 0.7990	47.3630
 0.8000	47.3700
 0.8010	47.3530
 0.8020	47.3490
 0.8030	47.3610
 0.8040	47.3710
 0.8050	47.3620
 0.8060	47.3420
 0.8070	47.3450
 0.8080	47.3600
 0.8090	47.3440
 0.8100	47.3320
 0.8110	47.3260
 0.8120	47.3270
 0.8130	47.3370
 0.8140	47.3320
 0.8150	47.3150
 0.8160	47.2960
 0.8170	47.3000
 0.8180	47.3050
 0.8190	47.3030
 0.8200	47.2970
 0.8210	47.2980
 0.8220	47.2980
 0.8230	47.2920
 0.8240	47.2760
 0.8250	47.2680
 0.8260	47.2690
 0.8270	47.2710
 0.8280	47.2640
 0.8290	47.2510
 0.8300	47.2410
 0.8310	47.2390
 0.8320	47.2370
 0.8330	47.2300
 0.8340	47.2280
 0.8350	47.2390
 0.8360	47.2420
 0.8370	47.2230
 0.8380	47.2050
 0.8390	47.2250
 0.8400	47.2330
 0.8410	47.2250
 0.8420	47.2120
 0.8430	47.2200
 0.8440	47.2300
 0.8450	47.2270
 0.8460	47.2110
 0.8470	47.2180
 0.8480	47.2270
 0.8490	47.2320
 0.8500	47.2300
 0.8510	47.2210
 0.8520	47.2240
 0.8530	47.2330
 0.8540	47.2320
 0.8550	47.2290
 0.8560	47.2430
 0.8570	47.2610
 0.8580	47.2430
 0.8590	47.2390
 0.8600	47.2360
 0.8610	47.2320
 0.8620	47.2540
 0.8630	47.2580
 0.8640	47.2600
 0.8650	47.2740
 0.8660	47.2740
 0.8670	47.2630
 0.8680	47.2550
 0.8690	47.2660
 0.8700	47.2790
 0.8710	47.2790
 0.8720	47.2710
 0.8730	47.2690
 0.8740	47.2790
 0.8750	47.2800
 0.8760	47.2780
 0.8770	47.3030
 0.8780	47.3160
 0.8790	47.3100
 0.8800	47.2970
 0.8810	47.3050
 0.8820	47.2940
 0.8830	47.2860
 0.8840	47.2970
 0.8850	47.2980
 0.8860	47.3120
 0.8870	47.3270
 0.8880	47.3230
 0.8890	47.3170
 0.8900	47.3060
 0.8910	47.3030
 0.8920	47.3190
 0.8930	47.3140
 0.8940	47.3010
 0.8950	47.2950
 0.8960	47.3070
 0.8970	47.3230
 0.8980	47.3380
 0.8990	47.3390
 0.9000	47.3100
 0.9010	47.2960
 0.9020	47.2970
 0.9030	47.3090
 0.9040	47.3300
 0.9050	47.3500
 0.9060	47.3420
 0.9070	47.3070
 0.9080	47.3040
 0.9090	47.3160
 0.9100	47.3150
 0.9110	47.2950
 0.9120	47.3070
 0.9130	47.3290
 0.9140	47.3380
 0.9150	47.3260
 0.9160	47.3250
 0.9170	47.3160
 0.9180	47.3090
 0.9190	47.3230
 0.9200	47.3300
 0.9210	47.3170
 0.9220	47.3000
 0.9230	47.3030
 0.9240	47.3070
 0.9250	47.2890
 0.9260	47.2560
 0.9270	47.2350
 0.9280	47.2280
 0.9290	47.2260
 0.9300	47.2170
 0.9310	47.1890
 0.9320	47.1950
 0.9330	47.1950
 0.9340	47.1760
 0.9350	47.1690
 0.9360	47.1430
 0.9370	47.1110
 0.9380	47.0920
 0.9390	47.0940
 0.9400	47.0780
 0.9410	47.0550
 0.9420	47.0380
 0.9430	47.0260
 0.9440	47.0030
 0.9450	46.9720
 0.9460	46.9430
 0.9470	46.9220
 0.9480	46.8750
 0.9490	46.8340
 0.9500	46.8120
 0.9510	46.7280
 0.9520	46.6880
 0.9530	46.6670
 0.9540	46.6220
 0.9550	46.5830
 0.9560	46.5390
 0.9570	46.4870
 0.9580	46.4320
 0.9590	46.3940
 0.9600	46.3640
 0.9610	46.3470
 0.9620	46.3430
 0.9630	46.3180
 0.9640	46.2760
 0.9650	46.2510
 0.9660	46.2610
 0.9670	46.2130
 0.9680	46.1750
 0.9690	46.1690
 0.9700	46.1790
 0.9710	46.1400
 0.9720	46.1240
 0.9730	46.1380
 0.9740	46.1530
 0.9750	46.1420
 0.9760	46.1190
 0.9770	46.1050
 0.9780	46.1150
 0.9790	46.1110
 0.9800	46.0910
 0.9810	46.0670
 0.9820	46.0610
 0.9830	46.0760
 0.9840	46.0980
 0.9850	46.0990
 0.9860	46.0700
 0.9870	46.0980
 0.9880	46.1390
 0.9890	46.1660
 0.9900	46.1660
 0.9910	46.1220
 0.9920	46.1470
 0.9930	46.1720
 0.9940	46.1970
 0.9950	46.2220
 0.9960	46.2460
 0.9970	46.2710
 0.9980	46.2960
 0.9990	46.3210
 1.0000	46.3460
 1.0010	46.3710
 1.0020	46.3960
 1.0030	46.4210
 1.0040	46.4460
 1.0050	46.4710
 1.0060	46.4960
 1.0070	46.5210
 1.0080	46.5460
 1.0090	46.5710
 1.0100	46.5710
 1.0110	46.5820
 1.0120	46.5980
 1.0130	46.6270
 1.0140	46.6420
 1.0150	46.6580
 1.0160	46.6580
 1.0170	46.6620
 1.0180	46.6700
 1.0190	46.6880
 1.0200	46.7050
 1.0210	46.7170
 1.0220	46.7300
 1.0230	46.7420
 1.0240	46.7540
 1.0250	46.7640
 1.0260	46.7710
 1.0270	46.7780
 1.0280	46.7810
 1.0290	46.7870
 1.0300	46.7930
 1.0310	46.8010
 1.0320	46.8140
 1.0330	46.8220
 1.0340	46.8360
 1.0350	46.8560
 1.0360	46.8690
 1.0370	46.8760
 1.0380	46.8810
 1.0390	46.8750
 1.0400	46.8820
 1.0410	46.8970
 1.0420	46.9050
 1.0430	46.9130
 1.0440	46.9220
 1.0450	46.9260
 1.0460	46.9310
 1.0470	46.9360
 1.0480	46.9430
 1.0490	46.9500
 1.0500	46.9560
 1.0510	46.9580
 1.0520	46.9740
 1.0530	46.9790
 1.0540	46.9800
 1.0550	46.9830
 1.0560	46.9880
 1.0570	46.9870
 1.0580	46.9800
 1.0590	46.9810
 1.0600	46.9790
 1.0610	46.9850
 1.0620	47.0060
 1.0630	47.0150
 1.0640	47.0210
 1.0650	47.0260
 1.0660	47.0220
 1.0670	47.0200
 1.0680	47.0170
 1.0690	47.0120
 1.0700	47.0140
 1.0710	47.0150
 1.0720	47.0210
 1.0730	47.0350
 1.0740	47.0410
 1.0750	47.0460
 1.0760	47.0480
 1.0770	47.0480
 1.0780	47.0470
 1.0790	47.0450
 1.0800	47.0400
 1.0810	47.0280
 1.0820	47.0220
 1.0830	47.0170
 1.0840	47.0120
 1.0850	47.0100
 1.0860	47.0130
 1.0870	47.0100
 1.0880	47.0050
 1.0890	47.0010
 1.0900	46.9940
 1.0910	46.9900
 1.0920	46.9870
 1.0930	46.9820
 1.0940	46.9810
 1.0950	46.9710
 1.0960	46.9510
 1.0970	46.9390
 1.0980	46.9290
 1.0990	46.9170
 1.1000	46.9120
 1.1010	46.9010
 1.1020	46.8830
 1.1030	46.8630
 1.1040	46.8490
 1.1050	46.8370
 1.1060	46.8260
 1.1070	46.8230
 1.1080	46.8100
 1.1090	46.7950
 1.1100	46.7750
 1.1110	46.7450
 1.1120	46.7260
 1.1130	46.7120
 1.1140	46.6930
 1.1150	46.6770
 1.1160	46.6580
 1.1170	46.6350
 1.1180	46.6120
 1.1190	46.5900
 1.1200	46.5630
 1.1210	46.5350
 1.1220	46.5070
 1.1230	46.4740
 1.1240	46.4410
 1.1250	46.4040
 1.1260	46.3630
 1.1270	46.3180
 1.1280	46.2690
 1.1290	46.2190
 1.1300	46.1660
 1.1310	46.1080
 1.1320	46.0490
 1.1330	45.9820
 1.1340	45.9040
 1.1350	45.8270
 1.1360	45.7460
 1.1370	45.6670
 1.1380	45.5770
 1.1390	45.4840
 1.1400	45.3880
 1.1410	45.2840
 1.1420	45.1860
 1.1430	45.0910
 1.1440	44.9920
 1.1450	44.8890
 1.1460	44.7920
 1.1470	44.6920
 1.1480	44.5980
 1.1490	44.5080
 1.1500	44.4190
 1.1510	44.3280
 1.1520	44.2460
 1.1530	44.1660
 1.1540	44.0940
 1.1550	44.0270
 1.1560	43.9670
 1.1570	43.9140
 1.1580	43.8660
 1.1590	43.8240
 1.1600	43.7890
 1.1610	43.7580
 1.1620	43.7300
 1.1630	43.7060
 1.1640	43.6810
 1.1650	43.6580
 1.1660	43.6350
 1.1670	43.6140
 1.1680	43.5970
 1.1690	43.5800
 1.1700	43.5620
 1.1710	43.5460
 1.1720	43.5320
 1.1730	43.5170
 1.1740	43.5030
 1.1750	43.4910
 1.1760	43.4780
 1.1770	43.4630
 1.1780	43.4480
 1.1790	43.4360
 1.1800	43.4250
 1.1810	43.4130
 1.1820	43.4020
 1.1830	43.3860
 1.1840	43.3670
 1.1850	43.3540
 1.1860	43.3400
 1.1870	43.3270
 1.1880	43.3150
 1.1890	43.3050
 1.1900	43.2950
 1.1910	43.2840
 1.1920	43.2770
 1.1930	43.2750
 1.1940	43.2700
 1.1950	43.2650
 1.1960	43.2600
 1.1970	43.2560
 1.1980	43.2510
 1.1990	43.2510
 1.2000	43.2540
 1.2010	43.2530
 1.2020	43.2590
 1.2030	43.2620
 1.2040	43.2670
 1.2050	43.2770
 1.2060	43.2810
 1.2070	43.2830
 1.2080	43.2880
 1.2090	43.2950
 1.2100	43.3080
 1.2110	43.3200
 1.2120	43.3380
 1.2130	43.3530
 1.2140	43.3650
 1.2150	43.3800
 1.2160	43.3980
 1.2170	43.4160
 1.2180	43.4340
 1.2190	43.4550
 1.2200	43.4730
 1.2210	43.4910
 1.2220	43.5110
 1.2230	43.5290
 1.2240	43.5490
 1.2250	43.5720
 1.2260	43.5910
 1.2270	43.6100
 1.2280	43.6290
 1.2290	43.6460
 1.2300	43.6670
 1.2310	43.6870
 1.2320	43.7030
 1.2330	43.7200
 1.2340	43.7340
 1.2350	43.7450
 1.2360	43.7580
 1.2370	43.7720
 1.2380	43.7830
 1.2390	43.7950
 1.2400	43.8070
 1.2410	43.8180
 1.2420	43.8340
 1.2430	43.8560
 1.2440	43.8730
 1.2450	43.8870
 1.2460	43.9010
 1.2470	43.9050
 1.2480	43.9100
 1.2490	43.9200
 1.2500	43.9260
 1.2510	43.9300
 1.2520	43.9370
 1.2530	43.9430
 1.2540	43.9460
 1.2550	43.9540
 1.2560	43.9590
 1.2570	43.9660
 1.2580	43.9730
 1.2590	43.9780
 1.2600	43.9840
 1.2610	43.9850
 1.2620	43.9830
 1.2630	43.9790
 1.2640	43.9760
 1.2650	43.9680
 1.2660	43.9620
 1.2670	43.9610
 1.2680	43.9560
 1.2690	43.9510
 1.2700	43.9460
 1.2710	43.9370
 1.2720	43.9360
 1.2730	43.9320
 1.2740	43.9240
 1.2750	43.9150
 1.2760	43.8960
 1.2770	43.8790
 1.2780	43.8670
 1.2790	43.8560
 1.2800	43.8400
 1.2810	43.8230
 1.2820	43.8090
 1.2830	43.7980
 1.2840	43.7890
 1.2850	43.7810
 1.2860	43.7710
 1.2870	43.7570
 1.2880	43.7360
 1.2890	43.7190
 1.2900	43.7020
 1.2910	43.6800
 1.2920	43.6600
 1.2930	43.6360
 1.2940	43.6060
 1.2950	43.5800
 1.2960	43.5510
 1.2970	43.5160
 1.2980	43.4830
 1.2990	43.4480
 1.3000	43.4090
 1.3010	43.3730
 1.3020	43.3340
 1.3030	43.2960
 1.3040	43.2560
 1.3050	43.2150
 1.3060	43.1700
 1.3070	43.1160
 1.3080	43.0640
 1.3090	43.0100
 1.3100	42.9500
 1.3110	42.8920
 1.3120	42.8290
 1.3130	42.7610
 1.3140	42.6900
 1.3150	42.6190
 1.3160	42.5430
 1.3170	42.4620
 1.3180	42.3800
 1.3190	42.2970
 1.3200	42.2100
 1.3210	42.1210
 1.3220	42.0310
 1.3230	41.9360
 1.3240	41.8420
 1.3250	41.7500
 1.3260	41.6530
 1.3270	41.5540
 1.3280	41.4510
 1.3290	41.3430
 1.3300	41.2320
 1.3310	41.1220
 1.3320	41.0110
 1.3330	40.9000
 1.3340	40.7890
 1.3350	40.6750
 1.3360	40.5600
 1.3370	40.4440
 1.3380	40.3260
 1.3390	40.2060
 1.3400	40.0900
 1.3410	39.9760
 1.3420	39.8650
 1.3430	39.7560
 1.3440	39.6460
 1.3450	39.5340
 1.3460	39.4200
 1.3470	39.3090
 1.3480	39.1970
 1.3490	39.0890
 1.3500	38.9820
 1.3510	38.8760
 1.3520	38.7720
 1.3530	38.6670
 1.3540	38.5620
 1.3550	38.4610
 1.3560	38.3600
 1.3570	38.2570
 1.3580	38.1540
 1.3590	38.0470
 1.3600	37.9360
 1.3610	37.8230
 1.3620	37.7050
 1.3630	37.5790
 1.3640	37.4470
 1.3650	37.3070
 1.3660	37.1610
 1.3670	37.0080
 1.3680	36.8440
 1.3690	36.6690
 1.3700	36.4830
 1.3710	36.2880
 1.3720	36.0820
 1.3730	35.8650
 1.3740	35.6360
 1.3750	35.3920
 1.3760	35.1330
 1.3770	34.8520
 1.3780	34.5440
 1.3790	34.2190
 1.3800	33.8720
 1.3810	33.5020
 1.3820	33.1140
 1.3830	32.7080
 1.3840	32.2790
 1.3850	31.8280
 1.3860	31.3650
 1.3870	30.8810
 1.3880	30.3910
 1.3890	29.8900
 1.3900	29.3750
 1.3910	28.8610
 1.3920	28.3390
 1.3930	27.8090
 1.3940	27.2780
 1.3950	26.7420
 1.3960	26.2090
 1.3970	25.6860
 1.3980	25.1730
 1.3990	24.6750
 1.4000	24.1870
 1.4010	23.7100
 1.4020	23.2510
 1.4030	22.8060
 1.4040	22.3800
 1.4050	21.9750
 1.4060	21.5870
 1.4070	21.2210
 1.4080	20.8750
 1.4090	20.5490
 1.4100	20.2450
 1.4110	19.9580
 1.4120	19.6910
 1.4130	19.4430
 1.4140	19.2100
 1.4150	18.9980
 1.4160	18.8010
 1.4170	18.6180
 1.4180	18.4520
 1.4190	18.2950
 1.4200	18.1520
 1.4210	18.0220
 1.4220	17.9020
 1.4230	17.7950
 1.4240	17.6970
 1.4250	17.6080
 1.4260	17.5280
 1.4270	17.4560
 1.4280	17.3930
 1.4290	17.3370
 1.4300	17.2880
 1.4310	17.2430
 1.4320	17.2040
 1.4330	17.1690
 1.4340	17.1400
 1.4350	17.1150
 1.4360	17.0960
 1.4370	17.0820
 1.4380	17.0710
 1.4390	17.0620
 1.4400	17.0590
 1.4410	17.0580
 1.4420	17.0590
 1.4430	17.0650
 1.4440	17.0710
 1.4450	17.0780
 1.4460	17.0890
 1.4470	17.1000
 1.4480	17.1100
 1.4490	17.1240
 1.4500	17.1410
 1.4510	17.1590
 1.4520	17.1780
 1.4530	17.1970
 1.4540	17.2170
 1.4550	17.2420
 1.4560	17.2710
 1.4570	17.3010
 1.4580	17.3340
 1.4590	17.3670
 1.4600	17.4020
 1.4610	17.4430
 1.4620	17.4880
 1.4630	17.5370
 1.4640	17.5920
 1.4650	17.6530
 1.4660	17.7170
 1.4670	17.7860
 1.4680	17.8610
 1.4690	17.9380
 1.4700	18.0210
 1.4710	18.1100
 1.4720	18.2030
 1.4730	18.2980
 1.4740	18.3960
 1.4750	18.4960
 1.4760	18.5980
 1.4770	18.7050
 1.4780	18.8140
 1.4790	18.9220
 1.4800	19.0310
 1.4810	19.1400
 1.4820	19.2510
 1.4830	19.3640
 1.4840	19.4780
 1.4850	19.5950
 1.4860	19.7090
 1.4870	19.8250
 1.4880	19.9430
 1.4890	20.0600
 1.4900	20.1800
 1.4910	20.3030
 1.4920	20.4240
 1.4930	20.5470
 1.4940	20.6670
 1.4950	20.7870
 1.4960	20.9070
 1.4970	21.0230
 1.4980	21.1420
 1.4990	21.2590
 1.5000	21.3780
 1.5010	21.4990
 1.5020	21.6190
 1.5030	21.7420
 1.5040	21.8640
 1.5050	21.9850
 1.5060	22.1060
 1.5070	22.2260
 1.5080	22.3450
 1.5090	22.4630
 1.5100	22.5810
 1.5110	22.6980
 1.5120	22.8130
 1.5130	22.9270
 1.5140	23.0410
 1.5150	23.1550
 1.5160	23.2680
 1.5170	23.3800
 1.5180	23.4900
 1.5190	23.5990
 1.5200	23.7070
 1.5210	23.8150
 1.5220	23.9220
 1.5230	24.0280
 1.5240	24.1340
 1.5250	24.2400
 1.5260	24.3420
 1.5270	24.4440
 1.5280	24.5470
 1.5290	24.6470
 1.5300	24.7490
 1.5310	24.8510
 1.5320	24.9480
 1.5330	25.0470
 1.5340	25.1450
 1.5350	25.2430
 1.5360	25.3410
 1.5370	25.4360
 1.5380	25.5290
 1.5390	25.6220
 1.5400	25.7140
 1.5410	25.8060
 1.5420	25.8980
 1.5430	25.9860
 1.5440	26.0740
 1.5450	26.1620
 1.5460	26.2490
 1.5470	26.3390
 1.5480	26.4260
 1.5490	26.5090
 1.5500	26.5910
 1.5510	26.6700
 1.5520	26.7520
 1.5530	26.8320
 1.5540	26.9110
 1.5550	26.9930
 1.5560	27.0730
 1.5570	27.1490
 1.5580	27.2230
 1.5590	27.2950
 1.5600	27.3640
 1.5610	27.4340
 1.5620	27.5070
 1.5630	27.5770
 1.5640	27.6460
 1.5650	27.7160
 1.5660	27.7820
 1.5670	27.8480
 1.5680	27.9180
 1.5690	27.9860
 1.5700	28.0560
 1.5710	28.1250
 1.5720	28.1880
 1.5730	28.2480
 1.5740	28.3070
 1.5750	28.3670
 1.5760	28.4270
 1.5770	28.4880
 1.5780	28.5510
 1.5790	28.6120
 1.5800	28.6720
 1.5810	28.7330
 1.5820	28.7910
 1.5830	28.8490
 1.5840	28.9080
 1.5850	28.9630
 1.5860	29.0180
 1.5870	29.0740
 1.5880	29.1280
 1.5890	29.1840
 1.5900	29.2430
 1.5910	29.3010
 1.5920	29.3610
 1.5930	29.4170
 1.5940	29.4700
 1.5950	29.5230
 1.5960	29.5740
 1.5970	29.6270
 1.5980	29.6820
 1.5990	29.7350
 1.6000	29.7860
 1.6010	29.8340
 1.6020	29.8810
 1.6030	29.9270
 1.6040	29.9750
 1.6050	30.0260
 1.6060	30.0760
 1.6070	30.1270
 1.6080	30.1750
 1.6090	30.2240
 1.6100	30.2710
 1.6110	30.3160
 1.6120	30.3640
 1.6130	30.4080
 1.6140	30.4480
 1.6150	30.4880
 1.6160	30.5250
 1.6170	30.5610
 1.6180	30.5950
 1.6190	30.6310
 1.6200	30.6640
 1.6210	30.6980
 1.6220	30.7360
 1.6230	30.7720
 1.6240	30.8050
 1.6250	30.8380
 1.6260	30.8690
 1.6270	30.8980
 1.6280	30.9300
 1.6290	30.9600
 1.6300	30.9880
 1.6310	31.0160
 1.6320	31.0430
 1.6330	31.0700
 1.6340	31.0980
 1.6350	31.1230
 1.6360	31.1470
 1.6370	31.1680
 1.6380	31.1840
 1.6390	31.2020
 1.6400	31.2210
 1.6410	31.2380
 1.6420	31.2560
 1.6430	31.2690
 1.6440	31.2780
 1.6450	31.2850
 1.6460	31.2870
 1.6470	31.2860
 1.6480	31.2870
 1.6490	31.2890
 1.6500	31.2890
 1.6510	31.2870
 1.6520	31.2820
 1.6530	31.2680
 1.6540	31.2540
 1.6550	31.2410
 1.6560	31.2240
 1.6570	31.2110
 1.6580	31.1990
 1.6590	31.1820
 1.6600	31.1700
 1.6610	31.1560
 1.6620	31.1400
 1.6630	31.1300
 1.6640	31.1200
 1.6650	31.1140
 1.6660	31.1090
 1.6670	31.0990
 1.6680	31.0870
 1.6690	31.0740
 1.6700	31.0620
 1.6710	31.0510
 1.6720	31.0420
 1.6730	31.0320
 1.6740	31.0200
 1.6750	31.0090
 1.6760	30.9990
 1.6770	30.9880
 1.6780	30.9740
 1.6790	30.9580
 1.6800	30.9400
 1.6810	30.9220
 1.6820	30.9000
 1.6830	30.8730
 1.6840	30.8450
 1.6850	30.8120
 1.6860	30.7780
 1.6870	30.7450
 1.6880	30.7130
 1.6890	30.6800
 1.6900	30.6460
 1.6910	30.6150
 1.6920	30.5780
 1.6930	30.5360
 1.6940	30.4970
 1.6950	30.4550
 1.6960	30.4150
 1.6970	30.3800
 1.6980	30.3410
 1.6990	30.3010
 1.7000	30.2610
 1.7010	30.2230
 1.7020	30.1830
 1.7030	30.1410
 1.7040	30.0990
 1.7050	30.0560
 1.7060	30.0110
 1.7070	29.9670
 1.7080	29.9180
 1.7090	29.8660
 1.7100	29.8140
 1.7110	29.7570
 1.7120	29.7050
 1.7130	29.6540
 1.7140	29.6010
 1.7150	29.5500
 1.7160	29.4990
 1.7170	29.4460
 1.7180	29.3950
 1.7190	29.3460
 1.7200	29.2960
 1.7210	29.2450
 1.7220	29.1900
 1.7230	29.1360
 1.7240	29.0800
 1.7250	29.0260
 1.7260	28.9810
 1.7270	28.9370
 1.7280	28.8950
 1.7290	28.8580
 1.7300	28.8160
 1.7310	28.7840
 1.7320	28.7620
 1.7330	28.7370
 1.7340	28.7180
 1.7350	28.6940
 1.7360	28.6680
 1.7370	28.6400
 1.7380	28.6110
 1.7390	28.5780
 1.7400	28.5420
 1.7410	28.5060
 1.7420	28.4700
 1.7430	28.4300
 1.7440	28.3890
 1.7450	28.3450
 1.7460	28.2970
 1.7470	28.2490
 1.7480	28.2020
 1.7490	28.1520
 1.7500	28.0970
 1.7510	28.0450
 1.7520	27.9940
 1.7530	27.9410
 1.7540	27.8890
 1.7550	27.8370
 1.7560	27.7810
 1.7570	27.7270
 1.7580	27.6740
 1.7590	27.6220
 1.7600	27.5710
 1.7610	27.5260
 1.7620	27.4820
 1.7630	27.4420
 1.7640	27.4030
 1.7650	27.3610
 1.7660	27.3240
 1.7670	27.2910
 1.7680	27.2560
 1.7690	27.2230
 1.7700	27.1910
 1.7710	27.1570
 1.7720	27.1270
 1.7730	27.1010
 1.7740	27.0740
 1.7750	27.0500
 1.7760	27.0220
 1.7770	26.9910
 1.7780	26.9640
 1.7790	26.9370
 1.7800	26.9110
 1.7810	26.8880
 1.7820	26.8640
 1.7830	26.8370
 1.7840	26.8170
 1.7850	26.8000
 1.7860	26.7850
 1.7870	26.7740
 1.7880	26.7600
 1.7890	26.7500
 1.7900	26.7350
 1.7910	26.7260
 1.7920	26.7200
 1.7930	26.7130
 1.7940	26.7080
 1.7950	26.7070
 1.7960	26.7100
 1.7970	26.7100
 1.7980	26.7170
 1.7990	26.7180
 1.8000	26.7130
 1.8010	26.7120
 1.8020	26.7130
 1.8030	26.7120
 1.8040	26.7130
 1.8050	26.7130
 1.8060	26.7110
 1.8070	26.7130
 1.8080	26.7170
 1.8090	26.7210
 1.8100	26.7280
 1.8110	26.7370
 1.8120	26.7430
 1.8130	26.7500
 1.8140	26.7560
 1.8150	26.7570
 1.8160	26.7580
 1.8170	26.7670
 1.8180	26.7740
 1.8190	26.7720
 1.8200	26.7730
 1.8210	26.7680
 1.8220	26.7660
 1.8230	26.7740
 1.8240	26.7760
 1.8250	26.7760
 1.8260	26.7720
 1.8270	26.7300
 1.8280	26.6870
 1.8290	26.6450
 1.8300	26.6030
 1.8310	26.5600
 1.8320	26.5180
 1.8330	26.4760
 1.8340	26.4330
 1.8350	26.4330
 1.8360	26.3920
 1.8370	26.3480
 1.8380	26.3110
 1.8390	26.2650
 1.8400	26.2170
 1.8410	26.1620
 1.8420	26.1070
 1.8430	26.0330
 1.8440	25.9590
 1.8450	25.8780
 1.8460	25.7910
 1.8470	25.6990
 1.8480	25.5930
 1.8490	25.4800
 1.8500	25.3570
 1.8510	25.2290
 1.8520	25.0850
 1.8530	24.9210
 1.8540	24.7460
 1.8550	24.5600
 1.8560	24.3710
 1.8570	24.1790
 1.8580	23.9690
 1.8590	23.7450
 1.8600	23.5040
 1.8610	23.2470
 1.8620	22.9800
 1.8630	22.7080
 1.8640	22.4190
 1.8650	22.1100
 1.8660	21.7820
 1.8670	21.4280
 1.8680	21.0520
 1.8690	20.6580
 1.8700	20.2470
 1.8710	19.8160
 1.8720	19.3780
 1.8730	18.9300
 1.8740	18.4720
 1.8750	18.0030
 1.8760	17.5190
 1.8770	17.0350
 1.8780	16.5450
 1.8790	16.0510
 1.8800	15.5700
 1.8810	15.0930
 1.8820	14.6170
 1.8830	14.1460
 1.8840	13.6840
 1.8850	13.2230
 1.8860	12.7720
 1.8870	12.3360
 1.8880	11.9150
 1.8890	11.5150
 1.8900	11.1360
 1.8910	10.7760
 1.8920	10.4320
 1.8930	10.1120
 1.8940	 9.8170
 1.8950	 9.5390
 1.8960	 9.2820
 1.8970	 9.0480
 1.8980	 8.8290
 1.8990	 8.6370
 1.9000	 8.4610
 1.9010	 8.3090
 1.9020	 8.1650
 1.9030	 8.0390
 1.9040	 7.9200
 1.9050	 7.8160
 1.9060	 7.7280
 1.9070	 7.6540
 1.9080	 7.5910
 1.9090	 7.5300
 1.9100	 7.4760
 1.9110	 7.4270
 1.9120	 7.3840
 1.9130	 7.3450
 1.9140	 7.3100
 1.9150	 7.2850
 1.9160	 7.2600
 1.9170	 7.2390
 1.9180	 7.2240
 1.9190	 7.2070
 1.9200	 7.1900
 1.9210	 7.1780
 1.9220	 7.1710
 1.9230	 7.1670
 1.9240	 7.1650
 1.9250	 7.1680
 1.9260	 7.1760
 1.9270	 7.1780
 1.9280	 7.1810
 1.9290	 7.1850
 1.9300	 7.1860
 1.9310	 7.1930
 1.9320	 7.2030
 1.9330	 7.2140
 1.9340	 7.2300
 1.9350	 7.2450
 1.9360	 7.2560
 1.9370	 7.2710
 1.9380	 7.2880
 1.9390	 7.3040
 1.9400	 7.3200
 1.9410	 7.3450
 1.9420	 7.3670
 1.9430	 7.3880
 1.9440	 7.4090
 1.9450	 7.4290
 1.9460	 7.4540
 1.9470	 7.4810
 1.9480	 7.5090
 1.9490	 7.5400
 1.9500	 7.5680
 1.9510	 7.5990
 1.9520	 7.6310
 1.9530	 7.6600
 1.9540	 7.6960
 1.9550	 7.7310
 1.9560	 7.7650
 1.9570	 7.8000
 1.9580	 7.8370
 1.9590	 7.8740
 1.9600	 7.9090
 1.9610	 7.9470
 1.9620	 7.9880
 1.9630	 8.0260
 1.9640	 8.0670
 1.9650	 8.1100
 1.9660	 8.1470
 1.9670	 8.1920
 1.9680	 8.2350
 1.9690	 8.2780
 1.9700	 8.3220
 1.9710	 8.3670
 1.9720	 8.4130
 1.9730	 8.4580
 1.9740	 8.5110
 1.9750	 8.5620
 1.9760	 8.6100
 1.9770	 8.6590
 1.9780	 8.7060
 1.9790	 8.7560
 1.9800	 8.8110
 1.9810	 8.8650
 1.9820	 8.9210
 1.9830	 8.9780
 1.9840	 9.0350
 1.9850	 9.0930
 1.9860	 9.1480
 1.9870	 9.2090
 1.9880	 9.2760
 1.9890	 9.3400
 1.9900	 9.4070
 1.9910	 9.4790
 1.9920	 9.5430
 1.9930	 9.6020
 1.9940	 9.6620
 1.9950	 9.7180
 1.9960	 9.7790
 1.9970	 9.8410
 1.9980	 9.9040
 1.9990	 9.9700
 2.0000	10.0320
 2.0010	10.0930
 2.0020	10.1550
 2.0030	10.2140
 2.0040	10.2710
 2.0050	10.3330
 2.0060	10.3970
 2.0070	10.4620
 2.0080	10.5330
 2.0090	10.5990
 2.0100	10.6630
 2.0110	10.7260
 2.0120	10.7870
 2.0130	10.8430
 2.0140	10.9010
 2.0150	10.9610
 2.0160	11.0200
 2.0170	11.0780
 2.0180	11.1370
 2.0190	11.1950
 2.0200	11.2520
 2.0210	11.3060
 2.0220	11.3620
 2.0230	11.4170
 2.0240	11.4720
 2.0250	11.5290
 2.0260	11.5830
 2.0270	11.6350
 2.0280	11.6820
 2.0290	11.7230
 2.0300	11.7690
 2.0310	11.8150
 2.0320	11.8580
 2.0330	11.9050
 2.0340	11.9550
 2.0350	12.0020
 2.0360	12.0500
 2.0370	12.0960
 2.0380	12.1420
 2.0390	12.1850
 2.0400	12.2240
 2.0410	12.2620
 2.0420	12.2980
 2.0430	12.3320
 2.0440	12.3650
 2.0450	12.3950
 2.0460	12.4310
 2.0470	12.4690
 2.0480	12.5070
 2.0490	12.5520
 2.0500	12.5870
 2.0510	12.6140
 2.0520	12.6470
 2.0530	12.6740
 2.0540	12.7100
 2.0550	12.7530
 2.0560	12.7970
 2.0570	12.8410
 2.0580	12.8860
 2.0590	12.9250
 2.0600	12.9590
 2.0610	12.9950
 2.0620	13.0260
 2.0630	13.0620
 2.0640	13.1000
 2.0650	13.1410
 2.0660	13.1860
 2.0670	13.2310
 2.0680	13.2810
 2.0690	13.3270
 2.0700	13.3720
 2.0710	13.4150
 2.0720	13.4540
 2.0730	13.4910
 2.0740	13.5270
 2.0750	13.5600
 2.0760	13.5960
 2.0770	13.6330
 2.0780	13.6680
 2.0790	13.7010
 2.0800	13.7380
 2.0810	13.7760
 2.0820	13.8100
 2.0830	13.8470
 2.0840	13.8820
 2.0850	13.9130
 2.0860	13.9450
 2.0870	13.9760
 2.0880	14.0100
 2.0890	14.0410
 2.0900	14.0690
 2.0910	14.1020
 2.0920	14.1370
 2.0930	14.1730
 2.0940	14.2150
 2.0950	14.2510
 2.0960	14.2860
 2.0970	14.3210
 2.0980	14.3540
 2.0990	14.3890
 2.1000	14.4310
 2.1010	14.4660
 2.1020	14.5010
 2.1030	14.5330
 2.1040	14.5590
 2.1050	14.5830
 2.1060	14.6130
 2.1070	14.6440
 2.1080	14.6730
 2.1090	14.7060
 2.1100	14.7360
 2.1110	14.7610
 2.1120	14.7890
 2.1130	14.8170
 2.1140	14.8460
 2.1150	14.8750
 2.1160	14.9040
 2.1170	14.9360
 2.1180	14.9630
 2.1190	14.9880
 2.1200	15.0110
 2.1210	15.0290
 2.1220	15.0500
 2.1230	15.0740
 2.1240	15.1000
 2.1250	15.1240
 2.1260	15.1540
 2.1270	15.1760
 2.1280	15.1940
 2.1290	15.2120
 2.1300	15.2300
 2.1310	15.2460
 2.1320	15.2610
 2.1330	15.2770
 2.1340	15.2910
 2.1350	15.3070
 2.1360	15.3220
 2.1370	15.3410
 2.1380	15.3640
 2.1390	15.3850
 2.1400	15.4070
 2.1410	15.4310
 2.1420	15.4510
 2.1430	15.4670
 2.1440	15.4840
 2.1450	15.4980
 2.1460	15.5170
 2.1470	15.5360
 2.1480	15.5590
 2.1490	15.5900
 2.1500	15.6160
 2.1510	15.6460
 2.1520	15.6690
 2.1530	15.6880
 2.1540	15.7070
 2.1550	15.7230
 2.1560	15.7390
 2.1570	15.7550
 2.1580	15.7700
 2.1590	15.7840
 2.1600	15.7940
 2.1610	15.8120
 2.1620	15.8290
 2.1630	15.8470
 2.1640	15.8680
 2.1650	15.8890
 2.1660	15.9120
 2.1670	15.9330
 2.1680	15.9570
 2.1690	15.9750
 2.1700	15.9890
 2.1710	16.0030
 2.1720	16.0140
 2.1730	16.0290
 2.1740	16.0470
 2.1750	16.0630
 2.1760	16.0750
 2.1770	16.0950
 2.1780	16.1190
 2.1790	16.1420
 2.1800	16.1720
 2.1810	16.1990
 2.1820	16.2230
 2.1830	16.2490
 2.1840	16.2730
 2.1850	16.2990
 2.1860	16.3220
 2.1870	16.3400
 2.1880	16.3640
 2.1890	16.3890
 2.1900	16.4150
 2.1910	16.4450
 2.1920	16.4720
 2.1930	16.5000
 2.1940	16.5230
 2.1950	16.5430
 2.1960	16.5640
 2.1970	16.5800
 2.1980	16.6020
 2.1990	16.6310
 2.2000	16.6520
 2.2010	16.6690
 2.2020	16.6870
 2.2030	16.7000
 2.2040	16.7150
 2.2050	16.7340
 2.2060	16.7520
 2.2070	16.7630
 2.2080	16.7690
 2.2090	16.7810
 2.2100	16.7890
 2.2110	16.8000
 2.2120	16.8170
 2.2130	16.8280
 2.2140	16.8340
 2.2150	16.8430
 2.2160	16.8570
 2.2170	16.8590
 2.2180	16.8520
 2.2190	16.8510
 2.2200	16.8430
 2.2210	16.8390
 2.2220	16.8430
 2.2230	16.8450
 2.2240	16.8530
 2.2250	16.8500
 2.2260	16.8420
 2.2270	16.8360
 2.2280	16.8220
 2.2290	16.8070
 2.2300	16.7960
 2.2310	16.7830
 2.2320	16.7500
 2.2330	16.7130
 2.2340	16.6770
 2.2350	16.6330
 2.2360	16.5940
 2.2370	16.5600
 2.2380	16.5170
 2.2390	16.4690
 2.2400	16.4210
 2.2410	16.3670
 2.2420	16.3200
 2.2430	16.2760
 2.2440	16.2310
 2.2450	16.1860
 2.2460	16.1440
 2.2470	16.1060
 2.2480	16.0590
 2.2490	16.0090
 2.2500	15.9590
 2.2510	15.9050
 2.2520	15.8470
 2.2530	15.7870
 2.2540	15.7260
 2.2550	15.6480
 2.2560	15.5880
 2.2570	15.5470
 2.2580	15.4920
 2.2590	15.4390
 2.2600	15.3840
 2.2610	15.3180
 2.2620	15.2530
 2.2630	15.2070
 2.2640	15.1610
 2.2650	15.1190
 2.2660	15.0730
 2.2670	15.0170
 2.2680	14.9480
 2.2690	14.8940
 2.2700	14.8340
 2.2710	14.7870
 2.2720	14.7570
 2.2730	14.7120
 2.2740	14.6630
 2.2750	14.6170
 2.2760	14.5660
 2.2770	14.5200
 2.2780	14.4820
 2.2790	14.4360
 2.2800	14.3870
 2.2810	14.3390
 2.2820	14.2830
 2.2830	14.2390
 2.2840	14.2010
 2.2850	14.1630
 2.2860	14.1360
 2.2870	14.1000
 2.2880	14.0660
 2.2890	14.0220
 2.2900	13.9640
 2.2910	13.9160
 2.2920	13.8610
 2.2930	13.8170
 2.2940	13.7950
 2.2950	13.7550
 2.2960	13.7060
 2.2970	13.6620
 2.2980	13.6110
 2.2990	13.5600
 2.3000	13.5220
 2.3010	13.4790
 2.3020	13.4270
 2.3030	13.3800
 2.3040	13.3360
 2.3050	13.2940
 2.3060	13.2500
 2.3070	13.2080
 2.3080	13.1660
 2.3090	13.1250
 2.3100	13.1080
 2.3110	13.0820
 2.3120	13.0600
 2.3130	13.0440
 2.3140	13.0300
 2.3150	13.0150
 2.3160	13.0090
 2.3170	13.0180
 2.3180	13.0070
 2.3190	12.9930
 2.3200	12.9760
 2.3210	12.9450
 2.3220	12.9230
 2.3230	12.9070
 2.3240	12.8820
 2.3250	12.8540
 2.3260	12.8270
 2.3270	12.7970
 2.3280	12.7630
 2.3290	12.7330
 2.3300	12.6910
 2.3310	12.6290
 2.3320	12.5870
 2.3330	12.5440
 2.3340	12.5120
 2.3350	12.5110
 2.3360	12.4800
 2.3370	12.4370
 2.3380	12.3930
 2.3390	12.3240
 2.3400	12.2770
 2.3410	12.2470
 2.3420	12.2050
 2.3430	12.1670
 2.3440	12.1280
 2.3450	12.0690
 2.3460	12.0340
 2.3470	12.0230
 2.3480	11.9990
 2.3490	11.9790
 2.3500	11.9650
 2.3510	11.9490
 2.3520	11.9270
 2.3530	11.9090
 2.3540	11.8880
 2.3550	11.8440
 2.3560	11.8110
 2.3570	11.7800
 2.3580	11.7470
 2.3590	11.7240
 2.3600	11.6990
 2.3610	11.6780
 2.3620	11.6590
 2.3630	11.6310
 2.3640	11.6010
 2.3650	11.5770
 2.3660	11.5440
 2.3670	11.5010
 2.3680	11.4630
 2.3690	11.4220
 2.3700	11.3760
 2.3710	11.3490
 2.3720	11.3390
 2.3730	11.3130
 2.3740	11.2720
 2.3750	11.2370
 2.3760	11.1880
 2.3770	11.1330
 2.3780	11.1070
 2.3790	11.0820
 2.3800	11.0480
 2.3810	11.0340
 2.3820	11.0180
 2.3830	10.9810
 2.3840	10.9390
 2.3850	10.8950
 2.3860	10.8480
 2.3870	10.8030
 2.3880	10.7760
 2.3890	10.7620
 2.3900	10.7330
 2.3910	10.7080
 2.3920	10.6810
 2.3930	10.6190
 2.3940	10.5800
 2.3950	10.5410
 2.3960	10.4980
 2.3970	10.4900
 2.3980	10.4620
 2.3990	10.4280
 2.4000	10.4000
 2.4010	10.3590
 2.4020	10.3070
 2.4030	10.2650
 2.4040	10.2370
 2.4050	10.1890
 2.4060	10.1610
 2.4070	10.1290
 2.4080	10.0760
 2.4090	10.0590
 2.4100	10.0280
 2.4110	 9.9800
 2.4120	 9.9470
 2.4130	 9.8950
 2.4140	 9.8350
 2.4150	 9.7800
 2.4160	 9.7120
 2.4170	 9.6650
 2.4180	 9.6470
 2.4190	 9.6160
 2.4200	 9.6040
 2.4210	 9.5810
 2.4220	 9.5180
 2.4230	 9.4850
 2.4240	 9.4620
 2.4250	 9.4430
 2.4260	 9.4220
 2.4270	 9.3730
 2.4280	 9.3370
 2.4290	 9.2940
 2.4300	 9.2460
 2.4310	 9.1980
 2.4320	 9.1410
 2.4330	 9.0710
 2.4340	 9.0020
 2.4350	 8.9700
 2.4360	 8.9580
 2.4370	 8.9530
 2.4380	 8.9400
 2.4390	 8.8980
 2.4400	 8.8180
 2.4410	 8.7570
 2.4420	 8.7240
 2.4430	 8.7050
 2.4440	 8.7310
 2.4450	 8.7160
 2.4460	 8.6690
 2.4470	 8.6510
 2.4480	 8.6080
 2.4490	 8.5560
 2.4500	 8.5340
 2.4510	 8.4810
 2.4520	 8.4130
 2.4530	 8.3770
 2.4540	 8.3380
 2.4550	 8.3130
 2.4560	 8.3040
 2.4570	 8.2640
 2.4580	 8.1990
 2.4590	 8.1290
 2.4600	 8.0550
 2.4610	 8.0160
 2.4620	 8.0210
 2.4630	 8.0100
 2.4640	 7.9740
 2.4650	 7.9430
 2.4660	 7.9120
 2.4670	 7.8570
 2.4680	 7.8300
 2.4690	 7.7990
 2.4700	 7.7880
 2.4710	 7.8260
 2.4720	 7.8210
 2.4730	 7.7860
 2.4740	 7.7840
 2.4750	 7.7820
 2.4760	 7.7830
 2.4770	 7.8460
 2.4780	 7.8300
 2.4790	 7.7310
 2.4800	 7.6610
 2.4810	 7.5520
 2.4820	 7.4730
 2.4830	 7.4870
 2.4840	 7.5540
 2.4850	 7.6170
 2.4860	 7.7230
 2.4870	 7.7550
 2.4880	 7.7110
 2.4890	 7.6920
 2.4900	 7.6370
 2.4910	 7.6410
 2.4920	 7.6300
 2.4930	 7.5510
 2.4940	 7.5090
 2.4950	 7.4110
 2.4960	 7.3820
 2.4970	 7.4240
 2.4980	 7.3850
 2.4990	 7.4440
 2.5000	 7.4990
