Name: Ficus socotrana
Type: vegetation
Class: Tree
Genus: Ficus
Species: socotrana
Sample No.: JPL093
Owner: JPL
Wavelength Range: VSWIR
Origin: 34.12577; - 118.1128; WGS84
Collection Date: 2/2/2016
Description: Samples were collected at the Huntington Garden in San Marino California as part of a JPL Subcontract studying HyTES imagery. Samples were taken to JPL and processed within 48 hours of collection. The same leaves were processed in the Nicolet and then measured using the ASD.
Measurement: Bidirectional reflectance
First Column: X
Second Column: Y
X Units: Wavelength (micrometer)
Y Units: Reflectance (percentage)
First X Value: 0.35
Last X Value: 2.5
Number of X Values: 2151
Additional Information: 

 0.3500	 7.2720
 0.3510	 6.0940
 0.3520	 5.7580
 0.3530	 6.4120
 0.3540	 7.2670
 0.3550	 6.6220
 0.3560	 6.2660
 0.3570	 6.1980
 0.3580	 5.5740
 0.3590	 5.3650
 0.3600	 5.6750
 0.3610	 6.1410
 0.3620	 5.9320
 0.3630	 6.0050
 0.3640	 6.1830
 0.3650	 6.1310
 0.3660	 6.0650
 0.3670	 5.6480
 0.3680	 5.1760
 0.3690	 5.3500
 0.3700	 5.8070
 0.3710	 6.3560
 0.3720	 6.6520
 0.3730	 5.8430
 0.3740	 5.7530
 0.3750	 6.1110
 0.3760	 6.1540
 0.3770	 6.3010
 0.3780	 6.4100
 0.3790	 6.4910
 0.3800	 6.6540
 0.3810	 6.1800
 0.3820	 5.6150
 0.3830	 5.4520
 0.3840	 5.5760
 0.3850	 5.5770
 0.3860	 5.6340
 0.3870	 5.9860
 0.3880	 5.8240
 0.3890	 5.7580
 0.3900	 5.9000
 0.3910	 5.7770
 0.3920	 5.5330
 0.3930	 5.5470
 0.3940	 5.9440
 0.3950	 6.1240
 0.3960	 6.1710
 0.3970	 6.0280
 0.3980	 5.6670
 0.3990	 5.6570
 0.4000	 5.8450
 0.4010	 6.0000
 0.4020	 5.8830
 0.4030	 6.0390
 0.4040	 6.1580
 0.4050	 5.9360
 0.4060	 5.8190
 0.4070	 5.8420
 0.4080	 5.8840
 0.4090	 5.7700
 0.4100	 5.8870
 0.4110	 6.0160
 0.4120	 6.0190
 0.4130	 6.0290
 0.4140	 6.1070
 0.4150	 6.0800
 0.4160	 5.8420
 0.4170	 5.9860
 0.4180	 6.1520
 0.4190	 6.1290
 0.4200	 5.9020
 0.4210	 5.8820
 0.4220	 6.0240
 0.4230	 6.1880
 0.4240	 6.2810
 0.4250	 6.1980
 0.4260	 6.0800
 0.4270	 6.1390
 0.4280	 6.1790
 0.4290	 6.1580
 0.4300	 6.0960
 0.4310	 6.0680
 0.4320	 6.0650
 0.4330	 6.1360
 0.4340	 6.2600
 0.4350	 6.1200
 0.4360	 6.0250
 0.4370	 6.0710
 0.4380	 6.1690
 0.4390	 6.1650
 0.4400	 6.1470
 0.4410	 6.1680
 0.4420	 6.0970
 0.4430	 6.0720
 0.4440	 6.1080
 0.4450	 6.1690
 0.4460	 6.2250
 0.4470	 6.2330
 0.4480	 6.2070
 0.4490	 6.2240
 0.4500	 6.1990
 0.4510	 6.1660
 0.4520	 6.1800
 0.4530	 6.2840
 0.4540	 6.3130
 0.4550	 6.2630
 0.4560	 6.2300
 0.4570	 6.1810
 0.4580	 6.1940
 0.4590	 6.2730
 0.4600	 6.2500
 0.4610	 6.2850
 0.4620	 6.3260
 0.4630	 6.2840
 0.4640	 6.2680
 0.4650	 6.2580
 0.4660	 6.2510
 0.4670	 6.2690
 0.4680	 6.2580
 0.4690	 6.2490
 0.4700	 6.2510
 0.4710	 6.1360
 0.4720	 6.2180
 0.4730	 6.3710
 0.4740	 6.2780
 0.4750	 6.2350
 0.4760	 6.2580
 0.4770	 6.3050
 0.4780	 6.2800
 0.4790	 6.2810
 0.4800	 6.2840
 0.4810	 6.2520
 0.4820	 6.2890
 0.4830	 6.2560
 0.4840	 6.1840
 0.4850	 6.2410
 0.4860	 6.2450
 0.4870	 6.2300
 0.4880	 6.2370
 0.4890	 6.2100
 0.4900	 6.2530
 0.4910	 6.3170
 0.4920	 6.3000
 0.4930	 6.2610
 0.4940	 6.2990
 0.4950	 6.3900
 0.4960	 6.3240
 0.4970	 6.3460
 0.4980	 6.4180
 0.4990	 6.4430
 0.5000	 6.4430
 0.5010	 6.4820
 0.5020	 6.5470
 0.5030	 6.5600
 0.5040	 6.5610
 0.5050	 6.5990
 0.5060	 6.6890
 0.5070	 6.7600
 0.5080	 6.8500
 0.5090	 6.9350
 0.5100	 6.9790
 0.5110	 7.0700
 0.5120	 7.1760
 0.5130	 7.2820
 0.5140	 7.4180
 0.5150	 7.5480
 0.5160	 7.7290
 0.5170	 7.9870
 0.5180	 8.1380
 0.5190	 8.2700
 0.5200	 8.4390
 0.5210	 8.6680
 0.5220	 8.9140
 0.5230	 9.1400
 0.5240	 9.3380
 0.5250	 9.5580
 0.5260	 9.7510
 0.5270	 9.9300
 0.5280	10.1230
 0.5290	10.3230
 0.5300	10.5090
 0.5310	10.6770
 0.5320	10.8410
 0.5330	10.9790
 0.5340	11.0960
 0.5350	11.1990
 0.5360	11.2560
 0.5370	11.3330
 0.5380	11.4340
 0.5390	11.5160
 0.5400	11.5780
 0.5410	11.6380
 0.5420	11.7000
 0.5430	11.7430
 0.5440	11.7740
 0.5450	11.8080
 0.5460	11.8530
 0.5470	11.8500
 0.5480	11.8610
 0.5490	11.9010
 0.5500	11.9150
 0.5510	11.9250
 0.5520	11.9230
 0.5530	11.9030
 0.5540	11.8950
 0.5550	11.8620
 0.5560	11.8060
 0.5570	11.7540
 0.5580	11.6520
 0.5590	11.5490
 0.5600	11.4690
 0.5610	11.3570
 0.5620	11.2580
 0.5630	11.1420
 0.5640	10.9700
 0.5650	10.8410
 0.5660	10.7310
 0.5670	10.6100
 0.5680	10.4480
 0.5690	10.2860
 0.5700	10.1380
 0.5710	10.0020
 0.5720	 9.8460
 0.5730	 9.7040
 0.5740	 9.5790
 0.5750	 9.4580
 0.5760	 9.3500
 0.5770	 9.2590
 0.5780	 9.1780
 0.5790	 9.0900
 0.5800	 8.9980
 0.5810	 8.9080
 0.5820	 8.8270
 0.5830	 8.7750
 0.5840	 8.7330
 0.5850	 8.6800
 0.5860	 8.6070
 0.5870	 8.5260
 0.5880	 8.4740
 0.5890	 8.4610
 0.5900	 8.4060
 0.5910	 8.3670
 0.5920	 8.3510
 0.5930	 8.3360
 0.5940	 8.3080
 0.5950	 8.2590
 0.5960	 8.2070
 0.5970	 8.2070
 0.5980	 8.2100
 0.5990	 8.2000
 0.6000	 8.1730
 0.6010	 8.1230
 0.6020	 8.0830
 0.6030	 8.0570
 0.6040	 8.0150
 0.6050	 7.9880
 0.6060	 7.9600
 0.6070	 7.9150
 0.6080	 7.8580
 0.6090	 7.7760
 0.6100	 7.6940
 0.6110	 7.6520
 0.6120	 7.6020
 0.6130	 7.5650
 0.6140	 7.5360
 0.6150	 7.4690
 0.6160	 7.4320
 0.6170	 7.4100
 0.6180	 7.3710
 0.6190	 7.3370
 0.6200	 7.3080
 0.6210	 7.2730
 0.6220	 7.2150
 0.6230	 7.1930
 0.6240	 7.1890
 0.6250	 7.1820
 0.6260	 7.1760
 0.6270	 7.1700
 0.6280	 7.1630
 0.6290	 7.1540
 0.6300	 7.1670
 0.6310	 7.1630
 0.6320	 7.1380
 0.6330	 7.1300
 0.6340	 7.1100
 0.6350	 7.0760
 0.6360	 7.0370
 0.6370	 7.0150
 0.6380	 6.9970
 0.6390	 6.9630
 0.6400	 6.9000
 0.6410	 6.8760
 0.6420	 6.8520
 0.6430	 6.8040
 0.6440	 6.7550
 0.6450	 6.7140
 0.6460	 6.6850
 0.6470	 6.6660
 0.6480	 6.6450
 0.6490	 6.6240
 0.6500	 6.6020
 0.6510	 6.5790
 0.6520	 6.5560
 0.6530	 6.5490
 0.6540	 6.5590
 0.6550	 6.5560
 0.6560	 6.5380
 0.6570	 6.5260
 0.6580	 6.5410
 0.6590	 6.5150
 0.6600	 6.4840
 0.6610	 6.4710
 0.6620	 6.4700
 0.6630	 6.4650
 0.6640	 6.4530
 0.6650	 6.4410
 0.6660	 6.4540
 0.6670	 6.4420
 0.6680	 6.4260
 0.6690	 6.4540
 0.6700	 6.4790
 0.6710	 6.4910
 0.6720	 6.4960
 0.6730	 6.5230
 0.6740	 6.5530
 0.6750	 6.5950
 0.6760	 6.6460
 0.6770	 6.6430
 0.6780	 6.6590
 0.6790	 6.7160
 0.6800	 6.7960
 0.6810	 6.8490
 0.6820	 6.8910
 0.6830	 6.9380
 0.6840	 6.9950
 0.6850	 7.0430
 0.6860	 7.1020
 0.6870	 7.1960
 0.6880	 7.2930
 0.6890	 7.3880
 0.6900	 7.5070
 0.6910	 7.6920
 0.6920	 7.9050
 0.6930	 8.1840
 0.6940	 8.5540
 0.6950	 8.9860
 0.6960	 9.4850
 0.6970	10.0610
 0.6980	10.7150
 0.6990	11.4050
 0.7000	12.1580
 0.7010	12.9780
 0.7020	13.8490
 0.7030	14.7180
 0.7040	15.5990
 0.7050	16.5060
 0.7060	17.4360
 0.7070	18.3850
 0.7080	19.3420
 0.7090	20.3010
 0.7100	21.2570
 0.7110	22.2220
 0.7120	23.2060
 0.7130	24.2210
 0.7140	25.2010
 0.7150	26.1660
 0.7160	27.1470
 0.7170	28.1540
 0.7180	29.1480
 0.7190	30.1260
 0.7200	31.1000
 0.7210	32.0500
 0.7220	32.9820
 0.7230	33.9040
 0.7240	34.8190
 0.7250	35.7060
 0.7260	36.5650
 0.7270	37.3930
 0.7280	38.1600
 0.7290	38.9130
 0.7300	39.6460
 0.7310	40.3370
 0.7320	40.9800
 0.7330	41.6060
 0.7340	42.2130
 0.7350	42.7620
 0.7360	43.2620
 0.7370	43.7440
 0.7380	44.2180
 0.7390	44.6240
 0.7400	45.0130
 0.7410	45.3860
 0.7420	45.7310
 0.7430	46.0300
 0.7440	46.3010
 0.7450	46.5580
 0.7460	46.8000
 0.7470	46.9940
 0.7480	47.1690
 0.7490	47.3400
 0.7500	47.4770
 0.7510	47.6280
 0.7520	47.7750
 0.7530	47.8790
 0.7540	47.9450
 0.7550	48.0180
 0.7560	48.1020
 0.7570	48.1680
 0.7580	48.2390
 0.7590	48.3030
 0.7600	48.3500
 0.7610	48.3830
 0.7620	48.3870
 0.7630	48.4050
 0.7640	48.4680
 0.7650	48.4880
 0.7660	48.4850
 0.7670	48.4970
 0.7680	48.5560
 0.7690	48.5500
 0.7700	48.5260
 0.7710	48.5190
 0.7720	48.5210
 0.7730	48.5140
 0.7740	48.5230
 0.7750	48.5530
 0.7760	48.5150
 0.7770	48.5090
 0.7780	48.5240
 0.7790	48.5120
 0.7800	48.5110
 0.7810	48.5110
 0.7820	48.5030
 0.7830	48.4830
 0.7840	48.4820
 0.7850	48.4720
 0.7860	48.4460
 0.7870	48.4590
 0.7880	48.4710
 0.7890	48.4620
 0.7900	48.4300
 0.7910	48.4260
 0.7920	48.4120
 0.7930	48.3960
 0.7940	48.4090
 0.7950	48.3830
 0.7960	48.3450
 0.7970	48.3190
 0.7980	48.3150
 0.7990	48.3240
 0.8000	48.3170
 0.8010	48.2830
 0.8020	48.2710
 0.8030	48.2660
 0.8040	48.2490
 0.8050	48.2080
 0.8060	48.1680
 0.8070	48.1590
 0.8080	48.1640
 0.8090	48.1380
 0.8100	48.1340
 0.8110	48.1150
 0.8120	48.0680
 0.8130	48.0380
 0.8140	48.0210
 0.8150	48.0110
 0.8160	48.0020
 0.8170	47.9840
 0.8180	47.9550
 0.8190	47.9300
 0.8200	47.9230
 0.8210	47.9220
 0.8220	47.9070
 0.8230	47.8750
 0.8240	47.8420
 0.8250	47.8200
 0.8260	47.8000
 0.8270	47.7770
 0.8280	47.7600
 0.8290	47.7580
 0.8300	47.7640
 0.8310	47.7660
 0.8320	47.7500
 0.8330	47.7130
 0.8340	47.6810
 0.8350	47.6810
 0.8360	47.6830
 0.8370	47.6810
 0.8380	47.6770
 0.8390	47.6760
 0.8400	47.6690
 0.8410	47.6720
 0.8420	47.6860
 0.8430	47.6830
 0.8440	47.6710
 0.8450	47.6500
 0.8460	47.6310
 0.8470	47.6400
 0.8480	47.6800
 0.8490	47.7140
 0.8500	47.7060
 0.8510	47.6910
 0.8520	47.6850
 0.8530	47.6950
 0.8540	47.7170
 0.8550	47.7240
 0.8560	47.7360
 0.8570	47.7490
 0.8580	47.7380
 0.8590	47.7610
 0.8600	47.7720
 0.8610	47.7590
 0.8620	47.7800
 0.8630	47.7720
 0.8640	47.7770
 0.8650	47.8300
 0.8660	47.8770
 0.8670	47.8830
 0.8680	47.8620
 0.8690	47.8480
 0.8700	47.8560
 0.8710	47.8790
 0.8720	47.9000
 0.8730	47.9060
 0.8740	47.9280
 0.8750	47.9620
 0.8760	47.9960
 0.8770	48.0150
 0.8780	48.0350
 0.8790	48.0300
 0.8800	48.0250
 0.8810	48.1300
 0.8820	48.1220
 0.8830	48.0870
 0.8840	48.1070
 0.8850	48.1070
 0.8860	48.1450
 0.8870	48.1790
 0.8880	48.1720
 0.8890	48.1860
 0.8900	48.2140
 0.8910	48.2220
 0.8920	48.1930
 0.8930	48.2030
 0.8940	48.2440
 0.8950	48.2780
 0.8960	48.2660
 0.8970	48.2810
 0.8980	48.2780
 0.8990	48.2630
 0.9000	48.2930
 0.9010	48.2980
 0.9020	48.3140
 0.9030	48.3390
 0.9040	48.3090
 0.9050	48.2870
 0.9060	48.2850
 0.9070	48.2960
 0.9080	48.2990
 0.9090	48.3300
 0.9100	48.3520
 0.9110	48.3350
 0.9120	48.3150
 0.9130	48.2940
 0.9140	48.3070
 0.9150	48.3690
 0.9160	48.3730
 0.9170	48.3910
 0.9180	48.4100
 0.9190	48.3890
 0.9200	48.3400
 0.9210	48.3500
 0.9220	48.3820
 0.9230	48.3470
 0.9240	48.3240
 0.9250	48.3050
 0.9260	48.3000
 0.9270	48.3210
 0.9280	48.3120
 0.9290	48.2800
 0.9300	48.2430
 0.9310	48.2240
 0.9320	48.2250
 0.9330	48.1850
 0.9340	48.1260
 0.9350	48.1600
 0.9360	48.1490
 0.9370	48.1020
 0.9380	48.0540
 0.9390	48.0300
 0.9400	48.0090
 0.9410	48.0150
 0.9420	48.0340
 0.9430	47.9760
 0.9440	47.9360
 0.9450	47.8900
 0.9460	47.8300
 0.9470	47.8360
 0.9480	47.7540
 0.9490	47.6990
 0.9500	47.7370
 0.9510	47.6200
 0.9520	47.4850
 0.9530	47.4490
 0.9540	47.5140
 0.9550	47.3930
 0.9560	47.3440
 0.9570	47.3550
 0.9580	47.3340
 0.9590	47.2630
 0.9600	47.1620
 0.9610	47.1040
 0.9620	47.1220
 0.9630	47.0420
 0.9640	47.0020
 0.9650	47.0070
 0.9660	47.0100
 0.9670	47.0010
 0.9680	46.9440
 0.9690	46.8630
 0.9700	46.8150
 0.9710	46.8470
 0.9720	46.9240
 0.9730	46.9270
 0.9740	46.7860
 0.9750	46.8040
 0.9760	46.8220
 0.9770	46.8370
 0.9780	46.9010
 0.9790	46.8860
 0.9800	46.8620
 0.9810	46.8550
 0.9820	46.8600
 0.9830	46.8800
 0.9840	46.8300
 0.9850	46.7760
 0.9860	46.8310
 0.9870	46.9630
 0.9880	46.9550
 0.9890	46.8540
 0.9900	46.8200
 0.9910	46.7930
 0.9920	46.8360
 0.9930	46.9090
 0.9940	46.9370
 0.9950	46.9220
 0.9960	46.8760
 0.9970	46.8620
 0.9980	46.9300
 0.9990	46.9890
 1.0000	47.0060
 1.0010	47.0840
 1.0020	47.1010
 1.0030	47.1010
 1.0040	47.1180
 1.0050	47.1230
 1.0060	47.1440
 1.0070	47.1820
 1.0080	47.1980
 1.0090	47.1950
 1.0100	47.2050
 1.0110	47.2160
 1.0120	47.2220
 1.0130	47.2230
 1.0140	47.2360
 1.0150	47.2410
 1.0160	47.2620
 1.0170	47.3090
 1.0180	47.3640
 1.0190	47.4020
 1.0200	47.4340
 1.0210	47.4600
 1.0220	47.4710
 1.0230	47.4860
 1.0240	47.5050
 1.0250	47.5170
 1.0260	47.5230
 1.0270	47.5320
 1.0280	47.5430
 1.0290	47.5510
 1.0300	47.5370
 1.0310	47.5550
 1.0320	47.6020
 1.0330	47.6340
 1.0340	47.6360
 1.0350	47.6810
 1.0360	47.7030
 1.0370	47.7240
 1.0380	47.7360
 1.0390	47.7590
 1.0400	47.7740
 1.0410	47.7670
 1.0420	47.7660
 1.0430	47.7750
 1.0440	47.7860
 1.0450	47.7730
 1.0460	47.7930
 1.0470	47.8680
 1.0480	47.8960
 1.0490	47.9000
 1.0500	47.9200
 1.0510	47.9190
 1.0520	47.9270
 1.0530	47.9420
 1.0540	47.9870
 1.0550	47.9960
 1.0560	47.9720
 1.0570	47.9840
 1.0580	48.0110
 1.0590	48.0200
 1.0600	48.0440
 1.0610	48.0520
 1.0620	48.0260
 1.0630	48.0210
 1.0640	48.0220
 1.0650	48.0280
 1.0660	48.0510
 1.0670	48.0600
 1.0680	48.0640
 1.0690	48.0640
 1.0700	48.0780
 1.0710	48.0960
 1.0720	48.0940
 1.0730	48.0990
 1.0740	48.0900
 1.0750	48.0480
 1.0760	48.0320
 1.0770	48.0170
 1.0780	48.0240
 1.0790	48.0540
 1.0800	48.0690
 1.0810	48.1040
 1.0820	48.1160
 1.0830	48.0990
 1.0840	48.0940
 1.0850	48.0890
 1.0860	48.0820
 1.0870	48.0770
 1.0880	48.0700
 1.0890	48.0790
 1.0900	48.0970
 1.0910	48.1070
 1.0920	48.1360
 1.0930	48.1370
 1.0940	48.1210
 1.0950	48.1030
 1.0960	48.0470
 1.0970	48.0420
 1.0980	48.0730
 1.0990	48.0770
 1.1000	48.1020
 1.1010	48.1160
 1.1020	48.1090
 1.1030	48.0980
 1.1040	48.0990
 1.1050	48.0940
 1.1060	48.0850
 1.1070	48.0690
 1.1080	48.0520
 1.1090	48.0310
 1.1100	48.0210
 1.1110	48.0060
 1.1120	47.9990
 1.1130	48.0090
 1.1140	48.0080
 1.1150	48.0090
 1.1160	48.0020
 1.1170	47.9890
 1.1180	47.9730
 1.1190	47.9550
 1.1200	47.9240
 1.1210	47.8930
 1.1220	47.8780
 1.1230	47.8700
 1.1240	47.8480
 1.1250	47.8120
 1.1260	47.7730
 1.1270	47.7110
 1.1280	47.6150
 1.1290	47.5510
 1.1300	47.4900
 1.1310	47.4290
 1.1320	47.3930
 1.1330	47.3230
 1.1340	47.2310
 1.1350	47.1480
 1.1360	47.0510
 1.1370	46.9610
 1.1380	46.8900
 1.1390	46.8030
 1.1400	46.7190
 1.1410	46.6200
 1.1420	46.4920
 1.1430	46.3650
 1.1440	46.2530
 1.1450	46.1350
 1.1460	46.0350
 1.1470	45.9620
 1.1480	45.8660
 1.1490	45.7610
 1.1500	45.6620
 1.1510	45.5540
 1.1520	45.4590
 1.1530	45.3660
 1.1540	45.2890
 1.1550	45.2240
 1.1560	45.1680
 1.1570	45.1300
 1.1580	45.0900
 1.1590	45.0580
 1.1600	45.0230
 1.1610	44.9750
 1.1620	44.9440
 1.1630	44.9000
 1.1640	44.8610
 1.1650	44.8330
 1.1660	44.8130
 1.1670	44.7900
 1.1680	44.7740
 1.1690	44.7600
 1.1700	44.7480
 1.1710	44.7370
 1.1720	44.7300
 1.1730	44.7210
 1.1740	44.7080
 1.1750	44.7000
 1.1760	44.6980
 1.1770	44.6910
 1.1780	44.6760
 1.1790	44.6650
 1.1800	44.6470
 1.1810	44.6190
 1.1820	44.5960
 1.1830	44.5740
 1.1840	44.5460
 1.1850	44.5320
 1.1860	44.5250
 1.1870	44.4990
 1.1880	44.4840
 1.1890	44.4730
 1.1900	44.4680
 1.1910	44.4720
 1.1920	44.4760
 1.1930	44.4910
 1.1940	44.4850
 1.1950	44.4660
 1.1960	44.4540
 1.1970	44.4420
 1.1980	44.4400
 1.1990	44.4540
 1.2000	44.4650
 1.2010	44.4740
 1.2020	44.4740
 1.2030	44.4670
 1.2040	44.4640
 1.2050	44.4610
 1.2060	44.4670
 1.2070	44.4830
 1.2080	44.4940
 1.2090	44.4990
 1.2100	44.5030
 1.2110	44.5160
 1.2120	44.5310
 1.2130	44.5500
 1.2140	44.5830
 1.2150	44.6050
 1.2160	44.6270
 1.2170	44.6390
 1.2180	44.6420
 1.2190	44.6470
 1.2200	44.6470
 1.2210	44.6550
 1.2220	44.6810
 1.2230	44.7090
 1.2240	44.7470
 1.2250	44.7850
 1.2260	44.8140
 1.2270	44.8440
 1.2280	44.8640
 1.2290	44.8830
 1.2300	44.9000
 1.2310	44.9080
 1.2320	44.9160
 1.2330	44.9240
 1.2340	44.9370
 1.2350	44.9550
 1.2360	44.9720
 1.2370	44.9900
 1.2380	45.0030
 1.2390	45.0250
 1.2400	45.0380
 1.2410	45.0480
 1.2420	45.0680
 1.2430	45.0800
 1.2440	45.0820
 1.2450	45.1030
 1.2460	45.1270
 1.2470	45.1300
 1.2480	45.1400
 1.2490	45.1590
 1.2500	45.1690
 1.2510	45.1850
 1.2520	45.2030
 1.2530	45.1950
 1.2540	45.1920
 1.2550	45.1900
 1.2560	45.1900
 1.2570	45.2110
 1.2580	45.2250
 1.2590	45.2340
 1.2600	45.2470
 1.2610	45.2500
 1.2620	45.2430
 1.2630	45.2380
 1.2640	45.2350
 1.2650	45.2370
 1.2660	45.2440
 1.2670	45.2440
 1.2680	45.2440
 1.2690	45.2560
 1.2700	45.2550
 1.2710	45.2400
 1.2720	45.2390
 1.2730	45.2260
 1.2740	45.2020
 1.2750	45.1990
 1.2760	45.1860
 1.2770	45.1590
 1.2780	45.1410
 1.2790	45.1200
 1.2800	45.0940
 1.2810	45.0690
 1.2820	45.0530
 1.2830	45.0370
 1.2840	45.0270
 1.2850	45.0130
 1.2860	44.9840
 1.2870	44.9530
 1.2880	44.9150
 1.2890	44.8680
 1.2900	44.8280
 1.2910	44.8040
 1.2920	44.7850
 1.2930	44.7610
 1.2940	44.7350
 1.2950	44.7040
 1.2960	44.6600
 1.2970	44.6210
 1.2980	44.5900
 1.2990	44.5560
 1.3000	44.5260
 1.3010	44.4940
 1.3020	44.4550
 1.3030	44.3980
 1.3040	44.3310
 1.3050	44.2710
 1.3060	44.2120
 1.3070	44.1610
 1.3080	44.1140
 1.3090	44.0580
 1.3100	43.9970
 1.3110	43.9350
 1.3120	43.8650
 1.3130	43.7860
 1.3140	43.7130
 1.3150	43.6420
 1.3160	43.5690
 1.3170	43.4990
 1.3180	43.4310
 1.3190	43.3580
 1.3200	43.2510
 1.3210	43.1380
 1.3220	43.0330
 1.3230	42.9180
 1.3240	42.8120
 1.3250	42.7180
 1.3260	42.6310
 1.3270	42.5490
 1.3280	42.4580
 1.3290	42.3630
 1.3300	42.2580
 1.3310	42.1370
 1.3320	42.0210
 1.3330	41.9160
 1.3340	41.8150
 1.3350	41.7130
 1.3360	41.6010
 1.3370	41.4830
 1.3380	41.3620
 1.3390	41.2490
 1.3400	41.1430
 1.3410	41.0360
 1.3420	40.9330
 1.3430	40.8210
 1.3440	40.7200
 1.3450	40.6220
 1.3460	40.5300
 1.3470	40.4280
 1.3480	40.3250
 1.3490	40.2230
 1.3500	40.1140
 1.3510	40.0170
 1.3520	39.9270
 1.3530	39.8300
 1.3540	39.7320
 1.3550	39.6350
 1.3560	39.5320
 1.3570	39.4310
 1.3580	39.3340
 1.3590	39.2310
 1.3600	39.1230
 1.3610	39.0090
 1.3620	38.8880
 1.3630	38.7610
 1.3640	38.6330
 1.3650	38.5060
 1.3660	38.3730
 1.3670	38.2360
 1.3680	38.0830
 1.3690	37.9100
 1.3700	37.7320
 1.3710	37.5390
 1.3720	37.3270
 1.3730	37.1010
 1.3740	36.8510
 1.3750	36.5810
 1.3760	36.2960
 1.3770	35.9960
 1.3780	35.6800
 1.3790	35.3410
 1.3800	34.9750
 1.3810	34.5870
 1.3820	34.1810
 1.3830	33.7510
 1.3840	33.3050
 1.3850	32.8450
 1.3860	32.3630
 1.3870	31.8530
 1.3880	31.3400
 1.3890	30.8120
 1.3900	30.2780
 1.3910	29.7410
 1.3920	29.2010
 1.3930	28.6600
 1.3940	28.1170
 1.3950	27.5720
 1.3960	27.0370
 1.3970	26.5140
 1.3980	25.9980
 1.3990	25.5040
 1.4000	25.0270
 1.4010	24.5610
 1.4020	24.1100
 1.4030	23.6740
 1.4040	23.2510
 1.4050	22.8500
 1.4060	22.4730
 1.4070	22.1200
 1.4080	21.7900
 1.4090	21.4730
 1.4100	21.1720
 1.4110	20.8910
 1.4120	20.6230
 1.4130	20.3730
 1.4140	20.1420
 1.4150	19.9270
 1.4160	19.7260
 1.4170	19.5410
 1.4180	19.3660
 1.4190	19.1980
 1.4200	19.0450
 1.4210	18.9040
 1.4220	18.7700
 1.4230	18.6490
 1.4240	18.5340
 1.4250	18.4300
 1.4260	18.3390
 1.4270	18.2510
 1.4280	18.1730
 1.4290	18.0970
 1.4300	18.0220
 1.4310	17.9570
 1.4320	17.9020
 1.4330	17.8490
 1.4340	17.8050
 1.4350	17.7600
 1.4360	17.7170
 1.4370	17.6790
 1.4380	17.6500
 1.4390	17.6290
 1.4400	17.6110
 1.4410	17.5970
 1.4420	17.5820
 1.4430	17.5610
 1.4440	17.5480
 1.4450	17.5370
 1.4460	17.5280
 1.4470	17.5310
 1.4480	17.5360
 1.4490	17.5420
 1.4500	17.5520
 1.4510	17.5560
 1.4520	17.5610
 1.4530	17.5690
 1.4540	17.5820
 1.4550	17.6040
 1.4560	17.6260
 1.4570	17.6490
 1.4580	17.6750
 1.4590	17.6960
 1.4600	17.7220
 1.4610	17.7570
 1.4620	17.7960
 1.4630	17.8450
 1.4640	17.8980
 1.4650	17.9580
 1.4660	18.0230
 1.4670	18.0830
 1.4680	18.1530
 1.4690	18.2300
 1.4700	18.3090
 1.4710	18.3930
 1.4720	18.4780
 1.4730	18.5610
 1.4740	18.6490
 1.4750	18.7420
 1.4760	18.8390
 1.4770	18.9420
 1.4780	19.0470
 1.4790	19.1530
 1.4800	19.2660
 1.4810	19.3820
 1.4820	19.5020
 1.4830	19.6170
 1.4840	19.7310
 1.4850	19.8440
 1.4860	19.9510
 1.4870	20.0690
 1.4880	20.1930
 1.4890	20.3130
 1.4900	20.4360
 1.4910	20.5620
 1.4920	20.6850
 1.4930	20.8050
 1.4940	20.9290
 1.4950	21.0550
 1.4960	21.1840
 1.4970	21.3150
 1.4980	21.4430
 1.4990	21.5690
 1.5000	21.6960
 1.5010	21.8180
 1.5020	21.9460
 1.5030	22.0800
 1.5040	22.2080
 1.5050	22.3350
 1.5060	22.4620
 1.5070	22.5850
 1.5080	22.7110
 1.5090	22.8420
 1.5100	22.9660
 1.5110	23.0830
 1.5120	23.2100
 1.5130	23.3360
 1.5140	23.4640
 1.5150	23.6000
 1.5160	23.7270
 1.5170	23.8480
 1.5180	23.9750
 1.5190	24.1010
 1.5200	24.2280
 1.5210	24.3570
 1.5220	24.4850
 1.5230	24.6070
 1.5240	24.7270
 1.5250	24.8490
 1.5260	24.9700
 1.5270	25.0940
 1.5280	25.2200
 1.5290	25.3440
 1.5300	25.4620
 1.5310	25.5730
 1.5320	25.6820
 1.5330	25.7920
 1.5340	25.9030
 1.5350	26.0210
 1.5360	26.1380
 1.5370	26.2540
 1.5380	26.3640
 1.5390	26.4740
 1.5400	26.5810
 1.5410	26.6860
 1.5420	26.7950
 1.5430	26.8960
 1.5440	26.9970
 1.5450	27.1050
 1.5460	27.2070
 1.5470	27.3120
 1.5480	27.4220
 1.5490	27.5240
 1.5500	27.6200
 1.5510	27.7170
 1.5520	27.8060
 1.5530	27.8960
 1.5540	27.9950
 1.5550	28.0900
 1.5560	28.1880
 1.5570	28.2880
 1.5580	28.3760
 1.5590	28.4710
 1.5600	28.5640
 1.5610	28.6480
 1.5620	28.7360
 1.5630	28.8210
 1.5640	28.9040
 1.5650	28.9890
 1.5660	29.0740
 1.5670	29.1570
 1.5680	29.2430
 1.5690	29.3300
 1.5700	29.4160
 1.5710	29.4990
 1.5720	29.5780
 1.5730	29.6550
 1.5740	29.7320
 1.5750	29.8170
 1.5760	29.9040
 1.5770	29.9830
 1.5780	30.0640
 1.5790	30.1390
 1.5800	30.2040
 1.5810	30.2780
 1.5820	30.3470
 1.5830	30.4150
 1.5840	30.4840
 1.5850	30.5480
 1.5860	30.6100
 1.5870	30.6750
 1.5880	30.7410
 1.5890	30.8060
 1.5900	30.8740
 1.5910	30.9360
 1.5920	31.0020
 1.5930	31.0760
 1.5940	31.1480
 1.5950	31.2210
 1.5960	31.2860
 1.5970	31.3450
 1.5980	31.4070
 1.5990	31.4620
 1.6000	31.5290
 1.6010	31.5960
 1.6020	31.6490
 1.6030	31.7150
 1.6040	31.7740
 1.6050	31.8280
 1.6060	31.8810
 1.6070	31.9260
 1.6080	31.9800
 1.6090	32.0320
 1.6100	32.0910
 1.6110	32.1580
 1.6120	32.2080
 1.6130	32.2550
 1.6140	32.3000
 1.6150	32.3450
 1.6160	32.3990
 1.6170	32.4470
 1.6180	32.5000
 1.6190	32.5510
 1.6200	32.5900
 1.6210	32.6330
 1.6220	32.6680
 1.6230	32.6990
 1.6240	32.7440
 1.6250	32.7820
 1.6260	32.8310
 1.6270	32.8860
 1.6280	32.9210
 1.6290	32.9610
 1.6300	32.9870
 1.6310	33.0260
 1.6320	33.0770
 1.6330	33.1180
 1.6340	33.1620
 1.6350	33.2040
 1.6360	33.2400
 1.6370	33.2770
 1.6380	33.3170
 1.6390	33.3520
 1.6400	33.3820
 1.6410	33.4100
 1.6420	33.4380
 1.6430	33.4660
 1.6440	33.4940
 1.6450	33.5180
 1.6460	33.5370
 1.6470	33.5630
 1.6480	33.5730
 1.6490	33.5900
 1.6500	33.6140
 1.6510	33.6140
 1.6520	33.6170
 1.6530	33.6180
 1.6540	33.6090
 1.6550	33.6120
 1.6560	33.6230
 1.6570	33.6310
 1.6580	33.6420
 1.6590	33.6480
 1.6600	33.6450
 1.6610	33.6470
 1.6620	33.6480
 1.6630	33.6510
 1.6640	33.6660
 1.6650	33.6720
 1.6660	33.6770
 1.6670	33.6780
 1.6680	33.6680
 1.6690	33.6650
 1.6700	33.6650
 1.6710	33.6630
 1.6720	33.6750
 1.6730	33.6840
 1.6740	33.6800
 1.6750	33.6770
 1.6760	33.6660
 1.6770	33.6440
 1.6780	33.6330
 1.6790	33.6290
 1.6800	33.6250
 1.6810	33.6310
 1.6820	33.6230
 1.6830	33.6050
 1.6840	33.5940
 1.6850	33.5750
 1.6860	33.5590
 1.6870	33.5510
 1.6880	33.5230
 1.6890	33.4870
 1.6900	33.4660
 1.6910	33.4530
 1.6920	33.4340
 1.6930	33.4190
 1.6940	33.4020
 1.6950	33.3750
 1.6960	33.3520
 1.6970	33.3430
 1.6980	33.3190
 1.6990	33.2920
 1.7000	33.2550
 1.7010	33.1970
 1.7020	33.1540
 1.7030	33.1020
 1.7040	33.0660
 1.7050	33.0530
 1.7060	33.0200
 1.7070	32.9880
 1.7080	32.9500
 1.7090	32.8970
 1.7100	32.8600
 1.7110	32.8250
 1.7120	32.8090
 1.7130	32.7810
 1.7140	32.7300
 1.7150	32.6820
 1.7160	32.6320
 1.7170	32.5800
 1.7180	32.5380
 1.7190	32.5030
 1.7200	32.4650
 1.7210	32.4230
 1.7220	32.3870
 1.7230	32.3460
 1.7240	32.2910
 1.7250	32.2260
 1.7260	32.1600
 1.7270	32.1110
 1.7280	32.0640
 1.7290	32.0260
 1.7300	31.9860
 1.7310	31.9420
 1.7320	31.8880
 1.7330	31.8460
 1.7340	31.8130
 1.7350	31.7800
 1.7360	31.7620
 1.7370	31.7260
 1.7380	31.6800
 1.7390	31.6320
 1.7400	31.5630
 1.7410	31.5120
 1.7420	31.4770
 1.7430	31.4230
 1.7440	31.3670
 1.7450	31.3080
 1.7460	31.2270
 1.7470	31.1700
 1.7480	31.1280
 1.7490	31.0790
 1.7500	31.0350
 1.7510	30.9910
 1.7520	30.9530
 1.7530	30.8950
 1.7540	30.8330
 1.7550	30.7640
 1.7560	30.6760
 1.7570	30.6230
 1.7580	30.5740
 1.7590	30.5210
 1.7600	30.4850
 1.7610	30.4110
 1.7620	30.3490
 1.7630	30.2760
 1.7640	30.2200
 1.7650	30.1850
 1.7660	30.1450
 1.7670	30.1130
 1.7680	30.0760
 1.7690	30.0390
 1.7700	29.9950
 1.7710	29.9410
 1.7720	29.8980
 1.7730	29.8500
 1.7740	29.8190
 1.7750	29.8120
 1.7760	29.7880
 1.7770	29.7660
 1.7780	29.7370
 1.7790	29.6910
 1.7800	29.6640
 1.7810	29.6460
 1.7820	29.6240
 1.7830	29.6060
 1.7840	29.5900
 1.7850	29.5690
 1.7860	29.5650
 1.7870	29.5770
 1.7880	29.5590
 1.7890	29.5620
 1.7900	29.5520
 1.7910	29.5440
 1.7920	29.5500
 1.7930	29.5470
 1.7940	29.5330
 1.7950	29.5280
 1.7960	29.5280
 1.7970	29.5310
 1.7980	29.5420
 1.7990	29.5510
 1.8000	29.5650
 1.8010	29.5670
 1.8020	29.5580
 1.8030	29.5600
 1.8040	29.5570
 1.8050	29.5640
 1.8060	29.5870
 1.8070	29.5980
 1.8080	29.6040
 1.8090	29.6110
 1.8100	29.6130
 1.8110	29.6120
 1.8120	29.6340
 1.8130	29.6620
 1.8140	29.6830
 1.8150	29.6890
 1.8160	29.6860
 1.8170	29.6800
 1.8180	29.6650
 1.8190	29.6620
 1.8200	29.6680
 1.8210	29.6860
 1.8220	29.6850
 1.8230	29.6820
 1.8240	29.6760
 1.8250	29.6520
 1.8260	29.6350
 1.8270	29.6290
 1.8280	29.6140
 1.8290	29.5790
 1.8300	29.5640
 1.8310	29.9310
 1.8320	29.9050
 1.8330	29.8600
 1.8340	29.8330
 1.8350	29.7890
 1.8360	29.7590
 1.8370	29.7220
 1.8380	29.6750
 1.8390	29.6460
 1.8400	29.6510
 1.8410	29.6040
 1.8420	29.5470
 1.8430	29.4880
 1.8440	29.3750
 1.8450	29.2790
 1.8460	29.1770
 1.8470	29.0640
 1.8480	28.9570
 1.8490	28.8120
 1.8500	28.6720
 1.8510	28.5300
 1.8520	28.3880
 1.8530	28.1970
 1.8540	28.0190
 1.8550	27.8370
 1.8560	27.6020
 1.8570	27.3790
 1.8580	27.1570
 1.8590	26.9170
 1.8600	26.6590
 1.8610	26.4010
 1.8620	26.0950
 1.8630	25.7770
 1.8640	25.4560
 1.8650	25.0910
 1.8660	24.7330
 1.8670	24.3620
 1.8680	23.9590
 1.8690	23.5430
 1.8700	23.1250
 1.8710	22.7050
 1.8720	22.2830
 1.8730	21.8310
 1.8740	21.3570
 1.8750	20.8690
 1.8760	20.3610
 1.8770	19.8300
 1.8780	19.3040
 1.8790	18.7870
 1.8800	18.2750
 1.8810	17.7560
 1.8820	17.2570
 1.8830	16.7690
 1.8840	16.2710
 1.8850	15.7690
 1.8860	15.2850
 1.8870	14.8190
 1.8880	14.3610
 1.8890	13.9410
 1.8900	13.5360
 1.8910	13.1490
 1.8920	12.7740
 1.8930	12.4400
 1.8940	12.1280
 1.8950	11.8320
 1.8960	11.5540
 1.8970	11.3040
 1.8980	11.0810
 1.8990	10.8850
 1.9000	10.7030
 1.9010	10.5660
 1.9020	10.4080
 1.9030	10.2510
 1.9040	10.0920
 1.9050	 9.9520
 1.9060	 9.8410
 1.9070	 9.7690
 1.9080	 9.7240
 1.9090	 9.6790
 1.9100	 9.6360
 1.9110	 9.5930
 1.9120	 9.5410
 1.9130	 9.4980
 1.9140	 9.4670
 1.9150	 9.4240
 1.9160	 9.3870
 1.9170	 9.3660
 1.9180	 9.3370
 1.9190	 9.3230
 1.9200	 9.2950
 1.9210	 9.2670
 1.9220	 9.2590
 1.9230	 9.2680
 1.9240	 9.2720
 1.9250	 9.2920
 1.9260	 9.3080
 1.9270	 9.3050
 1.9280	 9.2810
 1.9290	 9.2750
 1.9300	 9.2660
 1.9310	 9.2480
 1.9320	 9.2470
 1.9330	 9.2550
 1.9340	 9.2670
 1.9350	 9.2840
 1.9360	 9.3200
 1.9370	 9.3500
 1.9380	 9.3800
 1.9390	 9.4020
 1.9400	 9.4360
 1.9410	 9.4570
 1.9420	 9.4650
 1.9430	 9.4770
 1.9440	 9.4880
 1.9450	 9.4850
 1.9460	 9.5030
 1.9470	 9.5280
 1.9480	 9.5590
 1.9490	 9.6050
 1.9500	 9.6520
 1.9510	 9.6910
 1.9520	 9.7330
 1.9530	 9.7670
 1.9540	 9.7830
 1.9550	 9.8030
 1.9560	 9.8170
 1.9570	 9.8410
 1.9580	 9.8630
 1.9590	 9.8910
 1.9600	 9.9310
 1.9610	 9.9620
 1.9620	 9.9890
 1.9630	10.0240
 1.9640	10.0450
 1.9650	10.0880
 1.9660	10.1540
 1.9670	10.2150
 1.9680	10.2640
 1.9690	10.3180
 1.9700	10.3600
 1.9710	10.3710
 1.9720	10.4120
 1.9730	10.4640
 1.9740	10.5270
 1.9750	10.5940
 1.9760	10.6640
 1.9770	10.7350
 1.9780	10.7990
 1.9790	10.8560
 1.9800	10.9130
 1.9810	10.9550
 1.9820	10.9760
 1.9830	11.0140
 1.9840	11.0380
 1.9850	11.0910
 1.9860	11.1640
 1.9870	11.2410
 1.9880	11.3430
 1.9890	11.4190
 1.9900	11.4660
 1.9910	11.5220
 1.9920	11.5800
 1.9930	11.6190
 1.9940	11.6850
 1.9950	11.7750
 1.9960	11.8470
 1.9970	11.9280
 1.9980	11.9930
 1.9990	12.0420
 2.0000	12.0950
 2.0010	12.1440
 2.0020	12.1940
 2.0030	12.2580
 2.0040	12.3330
 2.0050	12.4060
 2.0060	12.4860
 2.0070	12.5600
 2.0080	12.6350
 2.0090	12.7020
 2.0100	12.7610
 2.0110	12.8260
 2.0120	12.8890
 2.0130	12.9550
 2.0140	13.0160
 2.0150	13.0760
 2.0160	13.1320
 2.0170	13.1830
 2.0180	13.2470
 2.0190	13.3320
 2.0200	13.3930
 2.0210	13.4410
 2.0220	13.5080
 2.0230	13.5660
 2.0240	13.6380
 2.0250	13.7530
 2.0260	13.8300
 2.0270	13.8910
 2.0280	13.9500
 2.0290	13.9800
 2.0300	14.0060
 2.0310	14.0620
 2.0320	14.1350
 2.0330	14.1940
 2.0340	14.2650
 2.0350	14.3340
 2.0360	14.3940
 2.0370	14.4560
 2.0380	14.5200
 2.0390	14.5910
 2.0400	14.6640
 2.0410	14.7270
 2.0420	14.8010
 2.0430	14.8660
 2.0440	14.9120
 2.0450	14.9360
 2.0460	14.9730
 2.0470	14.9940
 2.0480	15.0420
 2.0490	15.1030
 2.0500	15.1640
 2.0510	15.2450
 2.0520	15.3130
 2.0530	15.3790
 2.0540	15.4390
 2.0550	15.4750
 2.0560	15.5420
 2.0570	15.6400
 2.0580	15.6850
 2.0590	15.7450
 2.0600	15.8170
 2.0610	15.8730
 2.0620	15.9030
 2.0630	15.9610
 2.0640	16.0350
 2.0650	16.0970
 2.0660	16.1640
 2.0670	16.2220
 2.0680	16.2660
 2.0690	16.3160
 2.0700	16.3580
 2.0710	16.4120
 2.0720	16.4750
 2.0730	16.5340
 2.0740	16.5950
 2.0750	16.6630
 2.0760	16.7280
 2.0770	16.7960
 2.0780	16.8510
 2.0790	16.9070
 2.0800	16.9520
 2.0810	16.9770
 2.0820	17.0140
 2.0830	17.0480
 2.0840	17.0920
 2.0850	17.1550
 2.0860	17.2010
 2.0870	17.2350
 2.0880	17.2830
 2.0890	17.3370
 2.0900	17.3790
 2.0910	17.4550
 2.0920	17.5710
 2.0930	17.6540
 2.0940	17.7470
 2.0950	17.8140
 2.0960	17.8550
 2.0970	17.9030
 2.0980	17.9450
 2.0990	17.9830
 2.1000	18.0050
 2.1010	18.0460
 2.1020	18.0890
 2.1030	18.1380
 2.1040	18.1990
 2.1050	18.2720
 2.1060	18.3400
 2.1070	18.4120
 2.1080	18.4710
 2.1090	18.5340
 2.1100	18.5810
 2.1110	18.6060
 2.1120	18.6480
 2.1130	18.6890
 2.1140	18.7360
 2.1150	18.7930
 2.1160	18.8480
 2.1170	18.9150
 2.1180	18.9660
 2.1190	18.9990
 2.1200	19.0510
 2.1210	19.1110
 2.1220	19.1590
 2.1230	19.2040
 2.1240	19.2700
 2.1250	19.2970
 2.1260	19.2840
 2.1270	19.3050
 2.1280	19.3130
 2.1290	19.3560
 2.1300	19.4400
 2.1310	19.4950
 2.1320	19.5610
 2.1330	19.6120
 2.1340	19.6400
 2.1350	19.6750
 2.1360	19.7060
 2.1370	19.7450
 2.1380	19.7780
 2.1390	19.8220
 2.1400	19.8780
 2.1410	19.9500
 2.1420	19.9890
 2.1430	20.0240
 2.1440	20.0570
 2.1450	20.0620
 2.1460	20.0930
 2.1470	20.1450
 2.1480	20.1790
 2.1490	20.2070
 2.1500	20.2400
 2.1510	20.2630
 2.1520	20.2990
 2.1530	20.3580
 2.1540	20.3910
 2.1550	20.4140
 2.1560	20.4390
 2.1570	20.4420
 2.1580	20.4560
 2.1590	20.4890
 2.1600	20.5000
 2.1610	20.4870
 2.1620	20.5140
 2.1630	20.5500
 2.1640	20.6110
 2.1650	20.6270
 2.1660	20.6490
 2.1670	20.6520
 2.1680	20.5920
 2.1690	20.5970
 2.1700	20.6340
 2.1710	20.6630
 2.1720	20.7230
 2.1730	20.7530
 2.1740	20.7640
 2.1750	20.7850
 2.1760	20.7900
 2.1770	20.8120
 2.1780	20.8650
 2.1790	20.8910
 2.1800	20.8960
 2.1810	20.9170
 2.1820	20.9190
 2.1830	20.9400
 2.1840	20.9780
 2.1850	21.0520
 2.1860	21.0860
 2.1870	21.1250
 2.1880	21.1330
 2.1890	21.0940
 2.1900	21.1060
 2.1910	21.1240
 2.1920	21.1480
 2.1930	21.2110
 2.1940	21.2410
 2.1950	21.2410
 2.1960	21.2670
 2.1970	21.3060
 2.1980	21.3320
 2.1990	21.3570
 2.2000	21.3880
 2.2010	21.4080
 2.2020	21.4310
 2.2030	21.4800
 2.2040	21.5090
 2.2050	21.5050
 2.2060	21.5320
 2.2070	21.5500
 2.2080	21.5690
 2.2090	21.5630
 2.2100	21.5430
 2.2110	21.5440
 2.2120	21.5240
 2.2130	21.5360
 2.2140	21.5910
 2.2150	21.6140
 2.2160	21.6390
 2.2170	21.6470
 2.2180	21.6380
 2.2190	21.6400
 2.2200	21.6300
 2.2210	21.6330
 2.2220	21.6620
 2.2230	21.6620
 2.2240	21.6490
 2.2250	21.6370
 2.2260	21.5960
 2.2270	21.5820
 2.2280	21.6010
 2.2290	21.5940
 2.2300	21.5730
 2.2310	21.5580
 2.2320	21.5750
 2.2330	21.5840
 2.2340	21.5900
 2.2350	21.6330
 2.2360	21.6290
 2.2370	21.5860
 2.2380	21.5550
 2.2390	21.5270
 2.2400	21.4870
 2.2410	21.4260
 2.2420	21.3770
 2.2430	21.3320
 2.2440	21.2750
 2.2450	21.2030
 2.2460	21.1560
 2.2470	21.1210
 2.2480	21.0630
 2.2490	21.0170
 2.2500	20.9570
 2.2510	20.8590
 2.2520	20.7920
 2.2530	20.7300
 2.2540	20.6790
 2.2550	20.6460
 2.2560	20.6130
 2.2570	20.5950
 2.2580	20.5780
 2.2590	20.5710
 2.2600	20.5470
 2.2610	20.5320
 2.2620	20.4940
 2.2630	20.4370
 2.2640	20.3570
 2.2650	20.2490
 2.2660	20.1630
 2.2670	20.0760
 2.2680	19.9870
 2.2690	19.9040
 2.2700	19.8210
 2.2710	19.7580
 2.2720	19.6950
 2.2730	19.6530
 2.2740	19.6520
 2.2750	19.6110
 2.2760	19.5590
 2.2770	19.5150
 2.2780	19.4520
 2.2790	19.4090
 2.2800	19.3790
 2.2810	19.3530
 2.2820	19.3370
 2.2830	19.3100
 2.2840	19.2880
 2.2850	19.2580
 2.2860	19.2120
 2.2870	19.1800
 2.2880	19.1740
 2.2890	19.1310
 2.2900	19.0730
 2.2910	19.0110
 2.2920	18.9170
 2.2930	18.8330
 2.2940	18.7450
 2.2950	18.6690
 2.2960	18.5900
 2.2970	18.5290
 2.2980	18.4810
 2.2990	18.4580
 2.3000	18.4600
 2.3010	18.4210
 2.3020	18.3340
 2.3030	18.2830
 2.3040	18.2150
 2.3050	18.1500
 2.3060	18.1560
 2.3070	18.1270
 2.3080	18.0500
 2.3090	17.9960
 2.3100	17.9220
 2.3110	17.8690
 2.3120	17.8330
 2.3130	17.8320
 2.3140	17.8020
 2.3150	17.7670
 2.3160	17.7410
 2.3170	17.7100
 2.3180	17.6850
 2.3190	17.6790
 2.3200	17.6560
 2.3210	17.6230
 2.3220	17.5780
 2.3230	17.5250
 2.3240	17.4700
 2.3250	17.4110
 2.3260	17.3500
 2.3270	17.2620
 2.3280	17.2160
 2.3290	17.1870
 2.3300	17.1450
 2.3310	17.1310
 2.3320	17.1160
 2.3330	17.0970
 2.3340	17.0630
 2.3350	17.0450
 2.3360	17.0020
 2.3370	16.8900
 2.3380	16.8380
 2.3390	16.8200
 2.3400	16.7910
 2.3410	16.8120
 2.3420	16.7940
 2.3430	16.7410
 2.3440	16.7030
 2.3450	16.6410
 2.3460	16.5870
 2.3470	16.5540
 2.3480	16.4980
 2.3490	16.4400
 2.3500	16.3820
 2.3510	16.3090
 2.3520	16.2480
 2.3530	16.2010
 2.3540	16.1200
 2.3550	16.0620
 2.3560	16.0230
 2.3570	15.9830
 2.3580	15.9890
 2.3590	16.0190
 2.3600	16.0070
 2.3610	16.0050
 2.3620	16.0180
 2.3630	15.9360
 2.3640	15.8880
 2.3650	15.8590
 2.3660	15.7520
 2.3670	15.6990
 2.3680	15.6390
 2.3690	15.5390
 2.3700	15.4600
 2.3710	15.4360
 2.3720	15.4300
 2.3730	15.4300
 2.3740	15.4830
 2.3750	15.4590
 2.3760	15.3770
 2.3770	15.3630
 2.3780	15.2840
 2.3790	15.2190
 2.3800	15.2380
 2.3810	15.1400
 2.3820	15.0490
 2.3830	15.0530
 2.3840	15.0350
 2.3850	15.0340
 2.3860	15.0500
 2.3870	14.9860
 2.3880	14.8550
 2.3890	14.7770
 2.3900	14.7070
 2.3910	14.5890
 2.3920	14.5090
 2.3930	14.4830
 2.3940	14.4580
 2.3950	14.4440
 2.3960	14.4610
 2.3970	14.4410
 2.3980	14.4240
 2.3990	14.4970
 2.4000	14.5690
 2.4010	14.5160
 2.4020	14.4200
 2.4030	14.3110
 2.4040	14.1360
 2.4050	14.0740
 2.4060	14.0900
 2.4070	14.0540
 2.4080	14.0530
 2.4090	13.9510
 2.4100	13.7710
 2.4110	13.6680
 2.4120	13.5460
 2.4130	13.4840
 2.4140	13.5230
 2.4150	13.4430
 2.4160	13.3160
 2.4170	13.3330
 2.4180	13.3290
 2.4190	13.3770
 2.4200	13.5700
 2.4210	13.6130
 2.4220	13.5650
 2.4230	13.5330
 2.4240	13.4110
 2.4250	13.2680
 2.4260	13.1980
 2.4270	13.0830
 2.4280	12.9210
 2.4290	12.8790
 2.4300	12.7930
 2.4310	12.7540
 2.4320	12.8410
 2.4330	12.7300
 2.4340	12.6650
 2.4350	12.5700
 2.4360	12.3930
 2.4370	12.5040
 2.4380	12.5440
 2.4390	12.5750
 2.4400	12.6630
 2.4410	12.4930
 2.4420	12.3280
 2.4430	12.2580
 2.4440	12.2060
 2.4450	12.1900
 2.4460	12.2530
 2.4470	12.2670
 2.4480	12.1000
 2.4490	12.0140
 2.4500	11.9220
 2.4510	11.8370
 2.4520	12.0270
 2.4530	12.0510
 2.4540	11.9910
 2.4550	12.0610
 2.4560	11.9170
 2.4570	11.9300
 2.4580	12.1290
 2.4590	12.1690
 2.4600	12.2300
 2.4610	12.2190
 2.4620	12.0600
 2.4630	11.9560
 2.4640	11.7710
 2.4650	11.5810
 2.4660	11.5570
 2.4670	11.4780
 2.4680	11.5190
 2.4690	11.4860
 2.4700	11.4410
 2.4710	11.4340
 2.4720	11.3580
 2.4730	11.3140
 2.4740	11.3190
 2.4750	11.1520
 2.4760	11.1520
 2.4770	11.4210
 2.4780	11.3570
 2.4790	11.2470
 2.4800	11.1110
 2.4810	10.5170
 2.4820	10.5690
 2.4830	10.8720
 2.4840	11.2010
 2.4850	11.5760
 2.4860	11.4800
 2.4870	11.2440
 2.4880	11.0690
 2.4890	11.0950
 2.4900	11.5070
 2.4910	11.7540
 2.4920	12.0080
 2.4930	12.0690
 2.4940	11.5990
 2.4950	11.3950
 2.4960	11.5360
 2.4970	11.9250
 2.4980	12.5160
 2.4990	12.3870
 2.5000	11.8950
