Name: Prunus serotina
Type: Vegetation
Class: Tree
Genus: Prunus
Species: serotina
Sample No.: PRSE-1-63
Owner: UCSB
Wavelength Range: VSWIR
Origin: USA; Massachusetts; Harvard Forest
Collection Date: 7/8/2013
Description: Samples were collected as part of NSF Macrosystem Biology proposal titled: Collaborative Research: Thermal controls on ecosystem metabolism and function: scaling from leaves to canopies to regions. Samples were collected and overnighted to JPL facilities for processing. The same leaves were processed in the Nicolet and then measured using the ASD.
Measurement: Bidirectional reflectance
First Column: X
Second Column: Y
X Units: Wavelength (micrometers)
Y Units: Reflectance (percentage)
First X Value: 0.35
Last X Value: 2.5
Number of X Values: 2151
Additional Information: vegetation.tree.prunus.serotina.vswir.prse-1-63.ucsb.asd.ancillary.txt

 0.3500	 6.0120
 0.3510	 5.4620
 0.3520	 5.1980
 0.3530	 5.0890
 0.3540	 4.9340
 0.3550	 5.2860
 0.3560	 5.5080
 0.3570	 5.3570
 0.3580	 4.9060
 0.3590	 4.8820
 0.3600	 4.9460
 0.3610	 4.9580
 0.3620	 5.2340
 0.3630	 5.2050
 0.3640	 4.9840
 0.3650	 4.8460
 0.3660	 4.9730
 0.3670	 5.0740
 0.3680	 5.0950
 0.3690	 5.1430
 0.3700	 5.0880
 0.3710	 5.0370
 0.3720	 5.0500
 0.3730	 5.0600
 0.3740	 5.0280
 0.3750	 4.9770
 0.3760	 4.9450
 0.3770	 4.9480
 0.3780	 4.8880
 0.3790	 4.8240
 0.3800	 4.9270
 0.3810	 4.9470
 0.3820	 4.9420
 0.3830	 4.9570
 0.3840	 4.8920
 0.3850	 4.8380
 0.3860	 4.8410
 0.3870	 4.9020
 0.3880	 4.9140
 0.3890	 4.9610
 0.3900	 5.0040
 0.3910	 4.8740
 0.3920	 4.8780
 0.3930	 4.9180
 0.3940	 4.8790
 0.3950	 4.8180
 0.3960	 4.8620
 0.3970	 4.9260
 0.3980	 4.8590
 0.3990	 4.8680
 0.4000	 4.8940
 0.4010	 4.9050
 0.4020	 4.9260
 0.4030	 4.8840
 0.4040	 4.8650
 0.4050	 4.9310
 0.4060	 4.9560
 0.4070	 4.9320
 0.4080	 4.8850
 0.4090	 4.8610
 0.4100	 4.9170
 0.4110	 4.9590
 0.4120	 4.9420
 0.4130	 4.9290
 0.4140	 4.9350
 0.4150	 4.9540
 0.4160	 4.9710
 0.4170	 4.9840
 0.4180	 4.9800
 0.4190	 4.9730
 0.4200	 4.9990
 0.4210	 4.9960
 0.4220	 4.9920
 0.4230	 5.0110
 0.4240	 5.0120
 0.4250	 4.9980
 0.4260	 4.9890
 0.4270	 5.0110
 0.4280	 5.0410
 0.4290	 5.0520
 0.4300	 5.0370
 0.4310	 5.0250
 0.4320	 5.0620
 0.4330	 5.0830
 0.4340	 5.0450
 0.4350	 5.0870
 0.4360	 5.1230
 0.4370	 5.1200
 0.4380	 5.0960
 0.4390	 5.0770
 0.4400	 5.0630
 0.4410	 5.0500
 0.4420	 5.0490
 0.4430	 5.0400
 0.4440	 5.0370
 0.4450	 5.0570
 0.4460	 5.0800
 0.4470	 5.0970
 0.4480	 5.1090
 0.4490	 5.1190
 0.4500	 5.1070
 0.4510	 5.1080
 0.4520	 5.1460
 0.4530	 5.1590
 0.4540	 5.1650
 0.4550	 5.1700
 0.4560	 5.1740
 0.4570	 5.1750
 0.4580	 5.1770
 0.4590	 5.1830
 0.4600	 5.1910
 0.4610	 5.1940
 0.4620	 5.1900
 0.4630	 5.1820
 0.4640	 5.1820
 0.4650	 5.1890
 0.4660	 5.1990
 0.4670	 5.2030
 0.4680	 5.2020
 0.4690	 5.2100
 0.4700	 5.2250
 0.4710	 5.2060
 0.4720	 5.1960
 0.4730	 5.2070
 0.4740	 5.2260
 0.4750	 5.2200
 0.4760	 5.2190
 0.4770	 5.2330
 0.4780	 5.2250
 0.4790	 5.2250
 0.4800	 5.2350
 0.4810	 5.2460
 0.4820	 5.2640
 0.4830	 5.2740
 0.4840	 5.2760
 0.4850	 5.2780
 0.4860	 5.2910
 0.4870	 5.3040
 0.4880	 5.3130
 0.4890	 5.3530
 0.4900	 5.3810
 0.4910	 5.4010
 0.4920	 5.4370
 0.4930	 5.4630
 0.4940	 5.4860
 0.4950	 5.5190
 0.4960	 5.5750
 0.4970	 5.6300
 0.4980	 5.6840
 0.4990	 5.7490
 0.5000	 5.8330
 0.5010	 5.9160
 0.5020	 6.0020
 0.5030	 6.1110
 0.5040	 6.2380
 0.5050	 6.3750
 0.5060	 6.5220
 0.5070	 6.6970
 0.5080	 6.8880
 0.5090	 7.0980
 0.5100	 7.3340
 0.5110	 7.5850
 0.5120	 7.8470
 0.5130	 8.1270
 0.5140	 8.4370
 0.5150	 8.7630
 0.5160	 9.1050
 0.5170	 9.4660
 0.5180	 9.8440
 0.5190	10.2300
 0.5200	10.6170
 0.5210	11.0010
 0.5220	11.3850
 0.5230	11.7650
 0.5240	12.1330
 0.5250	12.4750
 0.5260	12.8020
 0.5270	13.1150
 0.5280	13.4070
 0.5290	13.6630
 0.5300	13.8990
 0.5310	14.1180
 0.5320	14.3090
 0.5330	14.4790
 0.5340	14.6340
 0.5350	14.7740
 0.5360	14.8810
 0.5370	14.9800
 0.5380	15.0760
 0.5390	15.1600
 0.5400	15.2340
 0.5410	15.3080
 0.5420	15.3860
 0.5430	15.4640
 0.5440	15.5400
 0.5450	15.6040
 0.5460	15.6470
 0.5470	15.6640
 0.5480	15.6640
 0.5490	15.6610
 0.5500	15.6740
 0.5510	15.6860
 0.5520	15.6870
 0.5530	15.6700
 0.5540	15.6330
 0.5550	15.5800
 0.5560	15.5090
 0.5570	15.4160
 0.5580	15.3170
 0.5590	15.2040
 0.5600	15.0710
 0.5610	14.9270
 0.5620	14.7680
 0.5630	14.5930
 0.5640	14.4020
 0.5650	14.2030
 0.5660	13.9940
 0.5670	13.7780
 0.5680	13.5580
 0.5690	13.3280
 0.5700	13.0940
 0.5710	12.8640
 0.5720	12.6460
 0.5730	12.4380
 0.5740	12.2360
 0.5750	12.0400
 0.5760	11.8580
 0.5770	11.6910
 0.5780	11.5370
 0.5790	11.3900
 0.5800	11.2480
 0.5810	11.1110
 0.5820	10.9820
 0.5830	10.8620
 0.5840	10.7520
 0.5850	10.6520
 0.5860	10.5600
 0.5870	10.4750
 0.5880	10.3950
 0.5890	10.3160
 0.5900	10.2360
 0.5910	10.1640
 0.5920	10.1000
 0.5930	10.0370
 0.5940	 9.9850
 0.5950	 9.9360
 0.5960	 9.8890
 0.5970	 9.8530
 0.5980	 9.8140
 0.5990	 9.7710
 0.6000	 9.7220
 0.6010	 9.6720
 0.6020	 9.6140
 0.6030	 9.5470
 0.6040	 9.4710
 0.6050	 9.3920
 0.6060	 9.3080
 0.6070	 9.2190
 0.6080	 9.1270
 0.6090	 9.0330
 0.6100	 8.9450
 0.6110	 8.8690
 0.6120	 8.7620
 0.6130	 8.6450
 0.6140	 8.5330
 0.6150	 8.4180
 0.6160	 8.3180
 0.6170	 8.2300
 0.6180	 8.1460
 0.6190	 8.0800
 0.6200	 8.0130
 0.6210	 7.9470
 0.6220	 7.8990
 0.6230	 7.8520
 0.6240	 7.8150
 0.6250	 7.7870
 0.6260	 7.7580
 0.6270	 7.7400
 0.6280	 7.7270
 0.6290	 7.7120
 0.6300	 7.6990
 0.6310	 7.6820
 0.6320	 7.6600
 0.6330	 7.6360
 0.6340	 7.6010
 0.6350	 7.5550
 0.6360	 7.4960
 0.6370	 7.4210
 0.6380	 7.3360
 0.6390	 7.2430
 0.6400	 7.1420
 0.6410	 7.0400
 0.6420	 6.9330
 0.6430	 6.8230
 0.6440	 6.7140
 0.6450	 6.6040
 0.6460	 6.5000
 0.6470	 6.4100
 0.6480	 6.3290
 0.6490	 6.2530
 0.6500	 6.1850
 0.6510	 6.1370
 0.6520	 6.0900
 0.6530	 6.0430
 0.6540	 5.9990
 0.6550	 5.9540
 0.6560	 5.9090
 0.6570	 5.8610
 0.6580	 5.8060
 0.6590	 5.7480
 0.6600	 5.6920
 0.6610	 5.6390
 0.6620	 5.5870
 0.6630	 5.5390
 0.6640	 5.4980
 0.6650	 5.4680
 0.6660	 5.4460
 0.6670	 5.4270
 0.6680	 5.4140
 0.6690	 5.4100
 0.6700	 5.4120
 0.6710	 5.4190
 0.6720	 5.4300
 0.6730	 5.4490
 0.6740	 5.4730
 0.6750	 5.5020
 0.6760	 5.5390
 0.6770	 5.5730
 0.6780	 5.6120
 0.6790	 5.6560
 0.6800	 5.7040
 0.6810	 5.7640
 0.6820	 5.8290
 0.6830	 5.8980
 0.6840	 5.9880
 0.6850	 6.0910
 0.6860	 6.2120
 0.6870	 6.3610
 0.6880	 6.5580
 0.6890	 6.8080
 0.6900	 7.1200
 0.6910	 7.5050
 0.6920	 7.9820
 0.6930	 8.5520
 0.6940	 9.2130
 0.6950	 9.9570
 0.6960	10.7800
 0.6970	11.6750
 0.6980	12.6310
 0.6990	13.6300
 0.7000	14.6570
 0.7010	15.6990
 0.7020	16.7480
 0.7030	17.7830
 0.7040	18.7990
 0.7050	19.7940
 0.7060	20.7600
 0.7070	21.6990
 0.7080	22.6060
 0.7090	23.4790
 0.7100	24.3190
 0.7110	25.1380
 0.7120	25.9340
 0.7130	26.6920
 0.7140	27.4320
 0.7150	28.1460
 0.7160	28.8270
 0.7170	29.4860
 0.7180	30.1210
 0.7190	30.7320
 0.7200	31.3110
 0.7210	31.8630
 0.7220	32.3930
 0.7230	32.9040
 0.7240	33.3900
 0.7250	33.8480
 0.7260	34.2790
 0.7270	34.6860
 0.7280	35.0650
 0.7290	35.4340
 0.7300	35.7840
 0.7310	36.0990
 0.7320	36.3920
 0.7330	36.6690
 0.7340	36.9350
 0.7350	37.1910
 0.7360	37.4090
 0.7370	37.6090
 0.7380	37.8060
 0.7390	37.9800
 0.7400	38.1500
 0.7410	38.3120
 0.7420	38.4510
 0.7430	38.5780
 0.7440	38.6930
 0.7450	38.7960
 0.7460	38.8830
 0.7470	38.9700
 0.7480	39.0420
 0.7490	39.0960
 0.7500	39.1610
 0.7510	39.2120
 0.7520	39.2490
 0.7530	39.2850
 0.7540	39.3230
 0.7550	39.3470
 0.7560	39.3650
 0.7570	39.3980
 0.7580	39.3970
 0.7590	39.4020
 0.7600	39.4310
 0.7610	39.4380
 0.7620	39.4460
 0.7630	39.4490
 0.7640	39.4410
 0.7650	39.4500
 0.7660	39.4570
 0.7670	39.4520
 0.7680	39.4390
 0.7690	39.4440
 0.7700	39.4470
 0.7710	39.4350
 0.7720	39.4250
 0.7730	39.4270
 0.7740	39.4290
 0.7750	39.4210
 0.7760	39.4170
 0.7770	39.4120
 0.7780	39.4050
 0.7790	39.4010
 0.7800	39.3980
 0.7810	39.3960
 0.7820	39.3960
 0.7830	39.3950
 0.7840	39.3880
 0.7850	39.3880
 0.7860	39.3960
 0.7870	39.3850
 0.7880	39.3840
 0.7890	39.3900
 0.7900	39.3890
 0.7910	39.3670
 0.7920	39.3620
 0.7930	39.3740
 0.7940	39.3750
 0.7950	39.3840
 0.7960	39.3760
 0.7970	39.3560
 0.7980	39.3630
 0.7990	39.3620
 0.8000	39.3540
 0.8010	39.3490
 0.8020	39.3320
 0.8030	39.3200
 0.8040	39.3180
 0.8050	39.3220
 0.8060	39.3110
 0.8070	39.3050
 0.8080	39.3060
 0.8090	39.3020
 0.8100	39.2920
 0.8110	39.2830
 0.8120	39.2770
 0.8130	39.2620
 0.8140	39.2590
 0.8150	39.2590
 0.8160	39.2500
 0.8170	39.2280
 0.8180	39.2260
 0.8190	39.2300
 0.8200	39.2110
 0.8210	39.1910
 0.8220	39.1820
 0.8230	39.1770
 0.8240	39.1560
 0.8250	39.1560
 0.8260	39.1580
 0.8270	39.1490
 0.8280	39.1360
 0.8290	39.1240
 0.8300	39.1150
 0.8310	39.1100
 0.8320	39.1140
 0.8330	39.1040
 0.8340	39.0860
 0.8350	39.0770
 0.8360	39.0750
 0.8370	39.0660
 0.8380	39.0510
 0.8390	39.0410
 0.8400	39.0320
 0.8410	39.0390
 0.8420	39.0550
 0.8430	39.0410
 0.8440	39.0160
 0.8450	39.0010
 0.8460	39.0080
 0.8470	39.0230
 0.8480	39.0210
 0.8490	39.0050
 0.8500	38.9890
 0.8510	38.9910
 0.8520	38.9930
 0.8530	38.9840
 0.8540	38.9670
 0.8550	38.9850
 0.8560	38.9950
 0.8570	38.9890
 0.8580	38.9910
 0.8590	38.9820
 0.8600	38.9740
 0.8610	38.9730
 0.8620	38.9720
 0.8630	38.9790
 0.8640	38.9780
 0.8650	38.9630
 0.8660	38.9680
 0.8670	38.9610
 0.8680	38.9530
 0.8690	38.9620
 0.8700	38.9690
 0.8710	38.9640
 0.8720	38.9530
 0.8730	38.9530
 0.8740	38.9630
 0.8750	38.9750
 0.8760	38.9830
 0.8770	38.9780
 0.8780	38.9660
 0.8790	38.9650
 0.8800	38.9740
 0.8810	38.9590
 0.8820	38.9490
 0.8830	38.9520
 0.8840	38.9630
 0.8850	38.9650
 0.8860	38.9640
 0.8870	38.9610
 0.8880	38.9600
 0.8890	38.9750
 0.8900	38.9760
 0.8910	38.9670
 0.8920	38.9630
 0.8930	38.9610
 0.8940	38.9720
 0.8950	38.9840
 0.8960	38.9740
 0.8970	38.9720
 0.8980	38.9730
 0.8990	38.9720
 0.9000	38.9720
 0.9010	38.9720
 0.9020	38.9700
 0.9030	38.9680
 0.9040	38.9650
 0.9050	38.9780
 0.9060	38.9840
 0.9070	38.9710
 0.9080	38.9550
 0.9090	38.9790
 0.9100	39.0090
 0.9110	39.0020
 0.9120	38.9620
 0.9130	38.9570
 0.9140	38.9770
 0.9150	38.9870
 0.9160	38.9670
 0.9170	38.9530
 0.9180	38.9560
 0.9190	38.9670
 0.9200	38.9530
 0.9210	38.9530
 0.9220	38.9670
 0.9230	38.9710
 0.9240	38.9600
 0.9250	38.9520
 0.9260	38.9520
 0.9270	38.9440
 0.9280	38.9180
 0.9290	38.9070
 0.9300	38.9150
 0.9310	38.9090
 0.9320	38.8860
 0.9330	38.8790
 0.9340	38.8850
 0.9350	38.8610
 0.9360	38.8420
 0.9370	38.8310
 0.9380	38.8210
 0.9390	38.8000
 0.9400	38.7950
 0.9410	38.7800
 0.9420	38.7550
 0.9430	38.7850
 0.9440	38.7460
 0.9450	38.7010
 0.9460	38.7000
 0.9470	38.6770
 0.9480	38.6650
 0.9490	38.6550
 0.9500	38.6290
 0.9510	38.5800
 0.9520	38.5310
 0.9530	38.4950
 0.9540	38.4810
 0.9550	38.4900
 0.9560	38.4590
 0.9570	38.4110
 0.9580	38.3850
 0.9590	38.3580
 0.9600	38.3340
 0.9610	38.3070
 0.9620	38.2760
 0.9630	38.2810
 0.9640	38.2760
 0.9650	38.2500
 0.9660	38.2190
 0.9670	38.2200
 0.9680	38.2090
 0.9690	38.1990
 0.9700	38.2110
 0.9710	38.2030
 0.9720	38.1880
 0.9730	38.1790
 0.9740	38.1820
 0.9750	38.1520
 0.9760	38.1520
 0.9770	38.1700
 0.9780	38.1660
 0.9790	38.1750
 0.9800	38.1480
 0.9810	38.1280
 0.9820	38.1730
 0.9830	38.1610
 0.9840	38.1490
 0.9850	38.1570
 0.9860	38.1760
 0.9870	38.1750
 0.9880	38.1580
 0.9890	38.1510
 0.9900	38.1790
 0.9910	38.1990
 0.9920	38.2300
 0.9930	38.2600
 0.9940	38.2910
 0.9950	38.3220
 0.9960	38.3520
 0.9970	38.3830
 0.9980	38.4140
 0.9990	38.4440
 1.0000	38.4750
 1.0010	38.5060
 1.0020	38.5360
 1.0030	38.5670
 1.0040	38.5980
 1.0050	38.6280
 1.0060	38.6590
 1.0070	38.6900
 1.0080	38.7200
 1.0090	38.7510
 1.0100	38.7510
 1.0110	38.7440
 1.0120	38.7460
 1.0130	38.7570
 1.0140	38.7640
 1.0150	38.7750
 1.0160	38.7830
 1.0170	38.7960
 1.0180	38.7990
 1.0190	38.7880
 1.0200	38.7920
 1.0210	38.7930
 1.0220	38.7930
 1.0230	38.7970
 1.0240	38.8100
 1.0250	38.8150
 1.0260	38.8180
 1.0270	38.8190
 1.0280	38.8190
 1.0290	38.8230
 1.0300	38.8260
 1.0310	38.8300
 1.0320	38.8420
 1.0330	38.8470
 1.0340	38.8530
 1.0350	38.8540
 1.0360	38.8560
 1.0370	38.8600
 1.0380	38.8640
 1.0390	38.8680
 1.0400	38.8740
 1.0410	38.8840
 1.0420	38.8840
 1.0430	38.8750
 1.0440	38.8730
 1.0450	38.8680
 1.0460	38.8670
 1.0470	38.8760
 1.0480	38.8810
 1.0490	38.8830
 1.0500	38.8850
 1.0510	38.8880
 1.0520	38.8880
 1.0530	38.8890
 1.0540	38.8870
 1.0550	38.8880
 1.0560	38.8900
 1.0570	38.8910
 1.0580	38.8940
 1.0590	38.8940
 1.0600	38.8950
 1.0610	38.8920
 1.0620	38.8830
 1.0630	38.8790
 1.0640	38.8740
 1.0650	38.8700
 1.0660	38.8660
 1.0670	38.8630
 1.0680	38.8610
 1.0690	38.8550
 1.0700	38.8560
 1.0710	38.8630
 1.0720	38.8620
 1.0730	38.8580
 1.0740	38.8570
 1.0750	38.8550
 1.0760	38.8510
 1.0770	38.8520
 1.0780	38.8470
 1.0790	38.8330
 1.0800	38.8250
 1.0810	38.8200
 1.0820	38.8130
 1.0830	38.8030
 1.0840	38.7970
 1.0850	38.7920
 1.0860	38.7840
 1.0870	38.7740
 1.0880	38.7650
 1.0890	38.7590
 1.0900	38.7520
 1.0910	38.7450
 1.0920	38.7450
 1.0930	38.7380
 1.0940	38.7220
 1.0950	38.7130
 1.0960	38.7040
 1.0970	38.6970
 1.0980	38.6970
 1.0990	38.6910
 1.1000	38.6860
 1.1010	38.6780
 1.1020	38.6680
 1.1030	38.6510
 1.1040	38.6360
 1.1050	38.6260
 1.1060	38.6170
 1.1070	38.6090
 1.1080	38.6000
 1.1090	38.5920
 1.1100	38.5820
 1.1110	38.5730
 1.1120	38.5620
 1.1130	38.5530
 1.1140	38.5420
 1.1150	38.5300
 1.1160	38.5150
 1.1170	38.4970
 1.1180	38.4830
 1.1190	38.4690
 1.1200	38.4560
 1.1210	38.4430
 1.1220	38.4320
 1.1230	38.4140
 1.1240	38.3850
 1.1250	38.3580
 1.1260	38.3250
 1.1270	38.2960
 1.1280	38.2700
 1.1290	38.2360
 1.1300	38.2030
 1.1310	38.1640
 1.1320	38.1170
 1.1330	38.0680
 1.1340	38.0140
 1.1350	37.9620
 1.1360	37.9100
 1.1370	37.8550
 1.1380	37.7980
 1.1390	37.7400
 1.1400	37.6720
 1.1410	37.6020
 1.1420	37.5320
 1.1430	37.4640
 1.1440	37.3980
 1.1450	37.3330
 1.1460	37.2690
 1.1470	37.2040
 1.1480	37.1430
 1.1490	37.0840
 1.1500	37.0290
 1.1510	36.9780
 1.1520	36.9290
 1.1530	36.8810
 1.1540	36.8380
 1.1550	36.8000
 1.1560	36.7650
 1.1570	36.7370
 1.1580	36.7150
 1.1590	36.6940
 1.1600	36.6800
 1.1610	36.6650
 1.1620	36.6460
 1.1630	36.6320
 1.1640	36.6190
 1.1650	36.6060
 1.1660	36.5950
 1.1670	36.5880
 1.1680	36.5820
 1.1690	36.5770
 1.1700	36.5780
 1.1710	36.5750
 1.1720	36.5680
 1.1730	36.5640
 1.1740	36.5610
 1.1750	36.5570
 1.1760	36.5520
 1.1770	36.5490
 1.1780	36.5430
 1.1790	36.5340
 1.1800	36.5250
 1.1810	36.5170
 1.1820	36.5100
 1.1830	36.5010
 1.1840	36.4960
 1.1850	36.4910
 1.1860	36.4850
 1.1870	36.4790
 1.1880	36.4730
 1.1890	36.4680
 1.1900	36.4630
 1.1910	36.4590
 1.1920	36.4550
 1.1930	36.4500
 1.1940	36.4470
 1.1950	36.4430
 1.1960	36.4420
 1.1970	36.4410
 1.1980	36.4430
 1.1990	36.4500
 1.2000	36.4510
 1.2010	36.4480
 1.2020	36.4480
 1.2030	36.4440
 1.2040	36.4450
 1.2050	36.4530
 1.2060	36.4600
 1.2070	36.4640
 1.2080	36.4670
 1.2090	36.4700
 1.2100	36.4730
 1.2110	36.4750
 1.2120	36.4780
 1.2130	36.4830
 1.2140	36.4870
 1.2150	36.4930
 1.2160	36.5040
 1.2170	36.5110
 1.2180	36.5150
 1.2190	36.5230
 1.2200	36.5310
 1.2210	36.5360
 1.2220	36.5400
 1.2230	36.5470
 1.2240	36.5540
 1.2250	36.5600
 1.2260	36.5700
 1.2270	36.5800
 1.2280	36.5830
 1.2290	36.5880
 1.2300	36.5950
 1.2310	36.5990
 1.2320	36.6060
 1.2330	36.6110
 1.2340	36.6150
 1.2350	36.6200
 1.2360	36.6240
 1.2370	36.6260
 1.2380	36.6320
 1.2390	36.6420
 1.2400	36.6470
 1.2410	36.6540
 1.2420	36.6620
 1.2430	36.6650
 1.2440	36.6670
 1.2450	36.6690
 1.2460	36.6720
 1.2470	36.6750
 1.2480	36.6780
 1.2490	36.6810
 1.2500	36.6810
 1.2510	36.6830
 1.2520	36.6890
 1.2530	36.6910
 1.2540	36.6920
 1.2550	36.6910
 1.2560	36.6850
 1.2570	36.6830
 1.2580	36.6830
 1.2590	36.6810
 1.2600	36.6770
 1.2610	36.6740
 1.2620	36.6690
 1.2630	36.6620
 1.2640	36.6580
 1.2650	36.6540
 1.2660	36.6430
 1.2670	36.6360
 1.2680	36.6340
 1.2690	36.6300
 1.2700	36.6270
 1.2710	36.6230
 1.2720	36.6130
 1.2730	36.6000
 1.2740	36.5900
 1.2750	36.5830
 1.2760	36.5780
 1.2770	36.5740
 1.2780	36.5670
 1.2790	36.5580
 1.2800	36.5460
 1.2810	36.5330
 1.2820	36.5250
 1.2830	36.5190
 1.2840	36.5110
 1.2850	36.4990
 1.2860	36.4820
 1.2870	36.4650
 1.2880	36.4440
 1.2890	36.4250
 1.2900	36.4120
 1.2910	36.3980
 1.2920	36.3800
 1.2930	36.3590
 1.2940	36.3370
 1.2950	36.3120
 1.2960	36.2910
 1.2970	36.2670
 1.2980	36.2390
 1.2990	36.2130
 1.3000	36.1830
 1.3010	36.1530
 1.3020	36.1230
 1.3030	36.0870
 1.3040	36.0540
 1.3050	36.0210
 1.3060	35.9820
 1.3070	35.9430
 1.3080	35.9040
 1.3090	35.8620
 1.3100	35.8190
 1.3110	35.7790
 1.3120	35.7340
 1.3130	35.6870
 1.3140	35.6410
 1.3150	35.5960
 1.3160	35.5470
 1.3170	35.4960
 1.3180	35.4450
 1.3190	35.3870
 1.3200	35.3270
 1.3210	35.2640
 1.3220	35.1980
 1.3230	35.1350
 1.3240	35.0710
 1.3250	35.0050
 1.3260	34.9410
 1.3270	34.8720
 1.3280	34.8010
 1.3290	34.7320
 1.3300	34.6620
 1.3310	34.5900
 1.3320	34.5160
 1.3330	34.4440
 1.3340	34.3680
 1.3350	34.2890
 1.3360	34.2140
 1.3370	34.1360
 1.3380	34.0580
 1.3390	33.9830
 1.3400	33.9110
 1.3410	33.8360
 1.3420	33.7600
 1.3430	33.6880
 1.3440	33.6130
 1.3450	33.5360
 1.3460	33.4590
 1.3470	33.3840
 1.3480	33.3080
 1.3490	33.2350
 1.3500	33.1660
 1.3510	33.0980
 1.3520	33.0270
 1.3530	32.9520
 1.3540	32.8780
 1.3550	32.8020
 1.3560	32.7240
 1.3570	32.6490
 1.3580	32.5730
 1.3590	32.4920
 1.3600	32.4120
 1.3610	32.3260
 1.3620	32.2340
 1.3630	32.1410
 1.3640	32.0440
 1.3650	31.9450
 1.3660	31.8450
 1.3670	31.7360
 1.3680	31.6190
 1.3690	31.4930
 1.3700	31.3580
 1.3710	31.2170
 1.3720	31.0640
 1.3730	30.8990
 1.3740	30.7230
 1.3750	30.5320
 1.3760	30.3260
 1.3770	30.1070
 1.3780	29.8690
 1.3790	29.6130
 1.3800	29.3420
 1.3810	29.0550
 1.3820	28.7540
 1.3830	28.4390
 1.3840	28.1090
 1.3850	27.7640
 1.3860	27.4050
 1.3870	27.0290
 1.3880	26.6470
 1.3890	26.2540
 1.3900	25.8500
 1.3910	25.4440
 1.3920	25.0300
 1.3930	24.6090
 1.3940	24.1890
 1.3950	23.7630
 1.3960	23.3420
 1.3970	22.9270
 1.3980	22.5170
 1.3990	22.1220
 1.4000	21.7350
 1.4010	21.3560
 1.4020	20.9920
 1.4030	20.6400
 1.4040	20.3030
 1.4050	19.9840
 1.4060	19.6800
 1.4070	19.3950
 1.4080	19.1260
 1.4090	18.8710
 1.4100	18.6360
 1.4110	18.4160
 1.4120	18.2130
 1.4130	18.0260
 1.4140	17.8520
 1.4150	17.6940
 1.4160	17.5470
 1.4170	17.4140
 1.4180	17.2970
 1.4190	17.1890
 1.4200	17.0920
 1.4210	17.0030
 1.4220	16.9240
 1.4230	16.8520
 1.4240	16.7880
 1.4250	16.7310
 1.4260	16.6820
 1.4270	16.6370
 1.4280	16.6010
 1.4290	16.5690
 1.4300	16.5420
 1.4310	16.5200
 1.4320	16.5030
 1.4330	16.4910
 1.4340	16.4840
 1.4350	16.4800
 1.4360	16.4800
 1.4370	16.4850
 1.4380	16.4930
 1.4390	16.5030
 1.4400	16.5130
 1.4410	16.5250
 1.4420	16.5380
 1.4430	16.5540
 1.4440	16.5720
 1.4450	16.5920
 1.4460	16.6140
 1.4470	16.6370
 1.4480	16.6600
 1.4490	16.6870
 1.4500	16.7130
 1.4510	16.7410
 1.4520	16.7710
 1.4530	16.8000
 1.4540	16.8310
 1.4550	16.8610
 1.4560	16.8920
 1.4570	16.9280
 1.4580	16.9670
 1.4590	17.0080
 1.4600	17.0530
 1.4610	17.1010
 1.4620	17.1550
 1.4630	17.2150
 1.4640	17.2780
 1.4650	17.3460
 1.4660	17.4160
 1.4670	17.4880
 1.4680	17.5650
 1.4690	17.6470
 1.4700	17.7340
 1.4710	17.8240
 1.4720	17.9160
 1.4730	18.0100
 1.4740	18.1070
 1.4750	18.2050
 1.4760	18.3090
 1.4770	18.4170
 1.4780	18.5250
 1.4790	18.6370
 1.4800	18.7490
 1.4810	18.8610
 1.4820	18.9740
 1.4830	19.0880
 1.4840	19.2020
 1.4850	19.3140
 1.4860	19.4260
 1.4870	19.5380
 1.4880	19.6490
 1.4890	19.7620
 1.4900	19.8760
 1.4910	19.9920
 1.4920	20.1060
 1.4930	20.2210
 1.4940	20.3350
 1.4950	20.4490
 1.4960	20.5640
 1.4970	20.6790
 1.4980	20.7920
 1.4990	20.9040
 1.5000	21.0170
 1.5010	21.1310
 1.5020	21.2430
 1.5030	21.3560
 1.5040	21.4670
 1.5050	21.5770
 1.5060	21.6880
 1.5070	21.8000
 1.5080	21.9110
 1.5090	22.0200
 1.5100	22.1280
 1.5110	22.2340
 1.5120	22.3390
 1.5130	22.4420
 1.5140	22.5430
 1.5150	22.6440
 1.5160	22.7440
 1.5170	22.8440
 1.5180	22.9460
 1.5190	23.0440
 1.5200	23.1390
 1.5210	23.2350
 1.5220	23.3310
 1.5230	23.4280
 1.5240	23.5220
 1.5250	23.6170
 1.5260	23.7080
 1.5270	23.7940
 1.5280	23.8860
 1.5290	23.9730
 1.5300	24.0580
 1.5310	24.1470
 1.5320	24.2320
 1.5330	24.3170
 1.5340	24.4020
 1.5350	24.4850
 1.5360	24.5700
 1.5370	24.6540
 1.5380	24.7350
 1.5390	24.8160
 1.5400	24.8930
 1.5410	24.9690
 1.5420	25.0460
 1.5430	25.1220
 1.5440	25.2000
 1.5450	25.2760
 1.5460	25.3520
 1.5470	25.4270
 1.5480	25.4960
 1.5490	25.5640
 1.5500	25.6340
 1.5510	25.7010
 1.5520	25.7690
 1.5530	25.8370
 1.5540	25.9030
 1.5550	25.9680
 1.5560	26.0300
 1.5570	26.0930
 1.5580	26.1550
 1.5590	26.2150
 1.5600	26.2760
 1.5610	26.3360
 1.5620	26.3910
 1.5630	26.4470
 1.5640	26.5070
 1.5650	26.5630
 1.5660	26.6200
 1.5670	26.6790
 1.5680	26.7300
 1.5690	26.7830
 1.5700	26.8400
 1.5710	26.8930
 1.5720	26.9480
 1.5730	27.0020
 1.5740	27.0510
 1.5750	27.1030
 1.5760	27.1540
 1.5770	27.2040
 1.5780	27.2590
 1.5790	27.3110
 1.5800	27.3620
 1.5810	27.4110
 1.5820	27.4550
 1.5830	27.5000
 1.5840	27.5440
 1.5850	27.5870
 1.5860	27.6330
 1.5870	27.6780
 1.5880	27.7190
 1.5890	27.7640
 1.5900	27.8070
 1.5910	27.8470
 1.5920	27.8860
 1.5930	27.9250
 1.5940	27.9670
 1.5950	28.0070
 1.5960	28.0450
 1.5970	28.0850
 1.5980	28.1240
 1.5990	28.1660
 1.6000	28.2090
 1.6010	28.2490
 1.6020	28.2860
 1.6030	28.3200
 1.6040	28.3520
 1.6050	28.3850
 1.6060	28.4160
 1.6070	28.4480
 1.6080	28.4830
 1.6090	28.5160
 1.6100	28.5470
 1.6110	28.5800
 1.6120	28.6110
 1.6130	28.6400
 1.6140	28.6710
 1.6150	28.7030
 1.6160	28.7350
 1.6170	28.7670
 1.6180	28.7990
 1.6190	28.8280
 1.6200	28.8520
 1.6210	28.8740
 1.6220	28.8970
 1.6230	28.9200
 1.6240	28.9410
 1.6250	28.9640
 1.6260	28.9870
 1.6270	29.0100
 1.6280	29.0350
 1.6290	29.0590
 1.6300	29.0830
 1.6310	29.1050
 1.6320	29.1260
 1.6330	29.1470
 1.6340	29.1660
 1.6350	29.1870
 1.6360	29.2080
 1.6370	29.2250
 1.6380	29.2410
 1.6390	29.2560
 1.6400	29.2650
 1.6410	29.2790
 1.6420	29.2960
 1.6430	29.3080
 1.6440	29.3200
 1.6450	29.3300
 1.6460	29.3360
 1.6470	29.3410
 1.6480	29.3490
 1.6490	29.3560
 1.6500	29.3580
 1.6510	29.3600
 1.6520	29.3630
 1.6530	29.3620
 1.6540	29.3590
 1.6550	29.3600
 1.6560	29.3590
 1.6570	29.3580
 1.6580	29.3580
 1.6590	29.3560
 1.6600	29.3510
 1.6610	29.3450
 1.6620	29.3370
 1.6630	29.3300
 1.6640	29.3210
 1.6650	29.3120
 1.6660	29.3080
 1.6670	29.3030
 1.6680	29.2970
 1.6690	29.2930
 1.6700	29.2850
 1.6710	29.2800
 1.6720	29.2780
 1.6730	29.2780
 1.6740	29.2780
 1.6750	29.2740
 1.6760	29.2700
 1.6770	29.2600
 1.6780	29.2450
 1.6790	29.2300
 1.6800	29.2140
 1.6810	29.2000
 1.6820	29.1890
 1.6830	29.1750
 1.6840	29.1600
 1.6850	29.1430
 1.6860	29.1220
 1.6870	29.1030
 1.6880	29.0820
 1.6890	29.0590
 1.6900	29.0380
 1.6910	29.0210
 1.6920	29.0000
 1.6930	28.9770
 1.6940	28.9560
 1.6950	28.9340
 1.6960	28.9110
 1.6970	28.8920
 1.6980	28.8680
 1.6990	28.8370
 1.7000	28.8100
 1.7010	28.7850
 1.7020	28.7560
 1.7030	28.7280
 1.7040	28.7000
 1.7050	28.6710
 1.7060	28.6410
 1.7070	28.6130
 1.7080	28.5850
 1.7090	28.5550
 1.7100	28.5260
 1.7110	28.5010
 1.7120	28.4720
 1.7130	28.4390
 1.7140	28.4060
 1.7150	28.3730
 1.7160	28.3360
 1.7170	28.3000
 1.7180	28.2640
 1.7190	28.2250
 1.7200	28.1910
 1.7210	28.1590
 1.7220	28.1200
 1.7230	28.0800
 1.7240	28.0350
 1.7250	27.9890
 1.7260	27.9480
 1.7270	27.9120
 1.7280	27.8790
 1.7290	27.8430
 1.7300	27.8090
 1.7310	27.7740
 1.7320	27.7370
 1.7330	27.7040
 1.7340	27.6700
 1.7350	27.6390
 1.7360	27.6150
 1.7370	27.5830
 1.7380	27.5510
 1.7390	27.5140
 1.7400	27.4660
 1.7410	27.4220
 1.7420	27.3780
 1.7430	27.3320
 1.7440	27.2860
 1.7450	27.2410
 1.7460	27.1950
 1.7470	27.1460
 1.7480	27.0950
 1.7490	27.0470
 1.7500	26.9980
 1.7510	26.9500
 1.7520	26.9070
 1.7530	26.8570
 1.7540	26.8010
 1.7550	26.7450
 1.7560	26.6940
 1.7570	26.6450
 1.7580	26.5960
 1.7590	26.5450
 1.7600	26.4930
 1.7610	26.4420
 1.7620	26.3930
 1.7630	26.3480
 1.7640	26.3010
 1.7650	26.2530
 1.7660	26.2080
 1.7670	26.1650
 1.7680	26.1240
 1.7690	26.0860
 1.7700	26.0490
 1.7710	26.0140
 1.7720	25.9800
 1.7730	25.9480
 1.7740	25.9190
 1.7750	25.8930
 1.7760	25.8650
 1.7770	25.8370
 1.7780	25.8110
 1.7790	25.7860
 1.7800	25.7590
 1.7810	25.7310
 1.7820	25.7050
 1.7830	25.6750
 1.7840	25.6520
 1.7850	25.6340
 1.7860	25.6170
 1.7870	25.6020
 1.7880	25.5860
 1.7890	25.5730
 1.7900	25.5600
 1.7910	25.5460
 1.7920	25.5310
 1.7930	25.5190
 1.7940	25.5080
 1.7950	25.4960
 1.7960	25.4830
 1.7970	25.4750
 1.7980	25.4690
 1.7990	25.4630
 1.8000	25.4620
 1.8010	25.4600
 1.8020	25.4560
 1.8030	25.4520
 1.8040	25.4480
 1.8050	25.4460
 1.8060	25.4440
 1.8070	25.4400
 1.8080	25.4360
 1.8090	25.4320
 1.8100	25.4270
 1.8110	25.4190
 1.8120	25.4140
 1.8130	25.4060
 1.8140	25.3990
 1.8150	25.3990
 1.8160	25.3980
 1.8170	25.3910
 1.8180	25.3800
 1.8190	25.3690
 1.8200	25.3580
 1.8210	25.3490
 1.8220	25.3370
 1.8230	25.3230
 1.8240	25.3090
 1.8250	25.2920
 1.8260	25.2780
 1.8270	25.2570
 1.8280	25.2360
 1.8290	25.2150
 1.8300	25.1940
 1.8310	25.1730
 1.8320	25.1520
 1.8330	25.1310
 1.8340	25.1100
 1.8350	25.1100
 1.8360	25.0630
 1.8370	25.0120
 1.8380	24.9670
 1.8390	24.9160
 1.8400	24.8610
 1.8410	24.8010
 1.8420	24.7420
 1.8430	24.6730
 1.8440	24.5980
 1.8450	24.5150
 1.8460	24.4220
 1.8470	24.3290
 1.8480	24.2290
 1.8490	24.1160
 1.8500	23.9960
 1.8510	23.8720
 1.8520	23.7370
 1.8530	23.5870
 1.8540	23.4300
 1.8550	23.2620
 1.8560	23.0820
 1.8570	22.8910
 1.8580	22.6890
 1.8590	22.4740
 1.8600	22.2440
 1.8610	22.0040
 1.8620	21.7560
 1.8630	21.4930
 1.8640	21.2150
 1.8650	20.9170
 1.8660	20.5990
 1.8670	20.2570
 1.8680	19.8940
 1.8690	19.5190
 1.8700	19.1260
 1.8710	18.7130
 1.8720	18.2910
 1.8730	17.8640
 1.8740	17.4220
 1.8750	16.9720
 1.8760	16.5090
 1.8770	16.0410
 1.8780	15.5660
 1.8790	15.0840
 1.8800	14.6120
 1.8810	14.1450
 1.8820	13.6710
 1.8830	13.1970
 1.8840	12.7340
 1.8850	12.2690
 1.8860	11.8190
 1.8870	11.3860
 1.8880	10.9650
 1.8890	10.5630
 1.8900	10.1740
 1.8910	 9.8060
 1.8920	 9.4530
 1.8930	 9.1270
 1.8940	 8.8170
 1.8950	 8.5290
 1.8960	 8.2580
 1.8970	 8.0020
 1.8980	 7.7700
 1.8990	 7.5550
 1.9000	 7.3570
 1.9010	 7.1830
 1.9020	 7.0200
 1.9030	 6.8740
 1.9040	 6.7400
 1.9050	 6.6200
 1.9060	 6.5140
 1.9070	 6.4200
 1.9080	 6.3400
 1.9090	 6.2730
 1.9100	 6.2130
 1.9110	 6.1600
 1.9120	 6.1170
 1.9130	 6.0760
 1.9140	 6.0410
 1.9150	 6.0110
 1.9160	 5.9790
 1.9170	 5.9520
 1.9180	 5.9320
 1.9190	 5.9130
 1.9200	 5.9000
 1.9210	 5.8910
 1.9220	 5.8840
 1.9230	 5.8800
 1.9240	 5.8810
 1.9250	 5.8850
 1.9260	 5.8930
 1.9270	 5.9020
 1.9280	 5.9110
 1.9290	 5.9270
 1.9300	 5.9430
 1.9310	 5.9590
 1.9320	 5.9820
 1.9330	 6.0040
 1.9340	 6.0290
 1.9350	 6.0530
 1.9360	 6.0790
 1.9370	 6.1050
 1.9380	 6.1290
 1.9390	 6.1560
 1.9400	 6.1860
 1.9410	 6.2140
 1.9420	 6.2460
 1.9430	 6.2810
 1.9440	 6.3160
 1.9450	 6.3520
 1.9460	 6.3920
 1.9470	 6.4340
 1.9480	 6.4750
 1.9490	 6.5140
 1.9500	 6.5580
 1.9510	 6.6030
 1.9520	 6.6490
 1.9530	 6.6980
 1.9540	 6.7470
 1.9550	 6.7960
 1.9560	 6.8400
 1.9570	 6.8900
 1.9580	 6.9470
 1.9590	 6.9980
 1.9600	 7.0460
 1.9610	 7.1000
 1.9620	 7.1550
 1.9630	 7.2070
 1.9640	 7.2680
 1.9650	 7.3340
 1.9660	 7.3920
 1.9670	 7.4500
 1.9680	 7.5090
 1.9690	 7.5660
 1.9700	 7.6240
 1.9710	 7.6810
 1.9720	 7.7430
 1.9730	 7.8080
 1.9740	 7.8740
 1.9750	 7.9400
 1.9760	 8.0110
 1.9770	 8.0810
 1.9780	 8.1480
 1.9790	 8.2190
 1.9800	 8.2940
 1.9810	 8.3680
 1.9820	 8.4430
 1.9830	 8.5150
 1.9840	 8.5860
 1.9850	 8.6570
 1.9860	 8.7230
 1.9870	 8.7940
 1.9880	 8.8690
 1.9890	 8.9440
 1.9900	 9.0200
 1.9910	 9.0950
 1.9920	 9.1670
 1.9930	 9.2370
 1.9940	 9.3090
 1.9950	 9.3770
 1.9960	 9.4510
 1.9970	 9.5300
 1.9980	 9.6060
 1.9990	 9.6850
 2.0000	 9.7610
 2.0010	 9.8340
 2.0020	 9.9090
 2.0030	 9.9830
 2.0040	10.0570
 2.0050	10.1320
 2.0060	10.2080
 2.0070	10.2840
 2.0080	10.3650
 2.0090	10.4400
 2.0100	10.5090
 2.0110	10.5820
 2.0120	10.6540
 2.0130	10.7240
 2.0140	10.7990
 2.0150	10.8760
 2.0160	10.9490
 2.0170	11.0190
 2.0180	11.0880
 2.0190	11.1530
 2.0200	11.2200
 2.0210	11.2880
 2.0220	11.3540
 2.0230	11.4230
 2.0240	11.4860
 2.0250	11.5400
 2.0260	11.6010
 2.0270	11.6660
 2.0280	11.7260
 2.0290	11.7860
 2.0300	11.8530
 2.0310	11.9140
 2.0320	11.9720
 2.0330	12.0310
 2.0340	12.0920
 2.0350	12.1480
 2.0360	12.1980
 2.0370	12.2500
 2.0380	12.2980
 2.0390	12.3480
 2.0400	12.4010
 2.0410	12.4510
 2.0420	12.5000
 2.0430	12.5500
 2.0440	12.5990
 2.0450	12.6440
 2.0460	12.6940
 2.0470	12.7450
 2.0480	12.7980
 2.0490	12.8560
 2.0500	12.9110
 2.0510	12.9660
 2.0520	13.0170
 2.0530	13.0630
 2.0540	13.1110
 2.0550	13.1560
 2.0560	13.2050
 2.0570	13.2610
 2.0580	13.3150
 2.0590	13.3670
 2.0600	13.4230
 2.0610	13.4710
 2.0620	13.5120
 2.0630	13.5580
 2.0640	13.6030
 2.0650	13.6470
 2.0660	13.6900
 2.0670	13.7360
 2.0680	13.7820
 2.0690	13.8310
 2.0700	13.8860
 2.0710	13.9390
 2.0720	13.9910
 2.0730	14.0440
 2.0740	14.0970
 2.0750	14.1520
 2.0760	14.2030
 2.0770	14.2540
 2.0780	14.3040
 2.0790	14.3530
 2.0800	14.4010
 2.0810	14.4500
 2.0820	14.4930
 2.0830	14.5290
 2.0840	14.5690
 2.0850	14.6060
 2.0860	14.6460
 2.0870	14.6890
 2.0880	14.7320
 2.0890	14.7750
 2.0900	14.8160
 2.0910	14.8630
 2.0920	14.9140
 2.0930	14.9610
 2.0940	15.0120
 2.0950	15.0560
 2.0960	15.0930
 2.0970	15.1370
 2.0980	15.1820
 2.0990	15.2250
 2.1000	15.2690
 2.1010	15.3120
 2.1020	15.3510
 2.1030	15.3920
 2.1040	15.4320
 2.1050	15.4780
 2.1060	15.5170
 2.1070	15.5530
 2.1080	15.5950
 2.1090	15.6360
 2.1100	15.6800
 2.1110	15.7330
 2.1120	15.7760
 2.1130	15.8140
 2.1140	15.8550
 2.1150	15.8940
 2.1160	15.9310
 2.1170	15.9670
 2.1180	16.0060
 2.1190	16.0470
 2.1200	16.0850
 2.1210	16.1230
 2.1220	16.1620
 2.1230	16.1960
 2.1240	16.2240
 2.1250	16.2530
 2.1260	16.2800
 2.1270	16.3120
 2.1280	16.3460
 2.1290	16.3740
 2.1300	16.4030
 2.1310	16.4290
 2.1320	16.4450
 2.1330	16.4720
 2.1340	16.5080
 2.1350	16.5380
 2.1360	16.5690
 2.1370	16.6000
 2.1380	16.6310
 2.1390	16.6570
 2.1400	16.6840
 2.1410	16.7070
 2.1420	16.7280
 2.1430	16.7400
 2.1440	16.7630
 2.1450	16.7890
 2.1460	16.8150
 2.1470	16.8480
 2.1480	16.8730
 2.1490	16.8960
 2.1500	16.9170
 2.1510	16.9360
 2.1520	16.9530
 2.1530	16.9680
 2.1540	16.9860
 2.1550	17.0030
 2.1560	17.0210
 2.1570	17.0390
 2.1580	17.0590
 2.1590	17.0850
 2.1600	17.1030
 2.1610	17.1110
 2.1620	17.1260
 2.1630	17.1390
 2.1640	17.1410
 2.1650	17.1570
 2.1660	17.1850
 2.1670	17.2030
 2.1680	17.2210
 2.1690	17.2350
 2.1700	17.2390
 2.1710	17.2490
 2.1720	17.2590
 2.1730	17.2720
 2.1740	17.2900
 2.1750	17.3070
 2.1760	17.3250
 2.1770	17.3440
 2.1780	17.3700
 2.1790	17.3880
 2.1800	17.4000
 2.1810	17.4160
 2.1820	17.4310
 2.1830	17.4460
 2.1840	17.4600
 2.1850	17.4770
 2.1860	17.4940
 2.1870	17.5080
 2.1880	17.5240
 2.1890	17.5470
 2.1900	17.5620
 2.1910	17.5710
 2.1920	17.5840
 2.1930	17.5980
 2.1940	17.6120
 2.1950	17.6290
 2.1960	17.6380
 2.1970	17.6420
 2.1980	17.6460
 2.1990	17.6450
 2.2000	17.6470
 2.2010	17.6480
 2.2020	17.6520
 2.2030	17.6580
 2.2040	17.6640
 2.2050	17.6790
 2.2060	17.6870
 2.2070	17.6900
 2.2080	17.6880
 2.2090	17.6910
 2.2100	17.6930
 2.2110	17.6910
 2.2120	17.6900
 2.2130	17.6890
 2.2140	17.6830
 2.2150	17.6810
 2.2160	17.6900
 2.2170	17.6860
 2.2180	17.6720
 2.2190	17.6630
 2.2200	17.6500
 2.2210	17.6390
 2.2220	17.6290
 2.2230	17.6230
 2.2240	17.6210
 2.2250	17.6150
 2.2260	17.6150
 2.2270	17.6030
 2.2280	17.5740
 2.2290	17.5540
 2.2300	17.5330
 2.2310	17.5110
 2.2320	17.4950
 2.2330	17.4750
 2.2340	17.4470
 2.2350	17.4090
 2.2360	17.3760
 2.2370	17.3420
 2.2380	17.3070
 2.2390	17.2770
 2.2400	17.2380
 2.2410	17.1910
 2.2420	17.1500
 2.2430	17.1030
 2.2440	17.0680
 2.2450	17.0480
 2.2460	17.0120
 2.2470	16.9770
 2.2480	16.9310
 2.2490	16.8670
 2.2500	16.8120
 2.2510	16.7560
 2.2520	16.7010
 2.2530	16.6470
 2.2540	16.5950
 2.2550	16.5440
 2.2560	16.4920
 2.2570	16.4390
 2.2580	16.3860
 2.2590	16.3320
 2.2600	16.2800
 2.2610	16.2350
 2.2620	16.1820
 2.2630	16.1270
 2.2640	16.0730
 2.2650	16.0150
 2.2660	15.9640
 2.2670	15.9150
 2.2680	15.8720
 2.2690	15.8220
 2.2700	15.7730
 2.2710	15.7230
 2.2720	15.6710
 2.2730	15.6220
 2.2740	15.5740
 2.2750	15.5270
 2.2760	15.4820
 2.2770	15.4330
 2.2780	15.3790
 2.2790	15.3360
 2.2800	15.2950
 2.2810	15.2570
 2.2820	15.2330
 2.2830	15.1970
 2.2840	15.1490
 2.2850	15.1110
 2.2860	15.0780
 2.2870	15.0390
 2.2880	15.0090
 2.2890	14.9660
 2.2900	14.9110
 2.2910	14.8600
 2.2920	14.8050
 2.2930	14.7530
 2.2940	14.7010
 2.2950	14.6510
 2.2960	14.6050
 2.2970	14.5580
 2.2980	14.5090
 2.2990	14.4690
 2.3000	14.4250
 2.3010	14.3790
 2.3020	14.3280
 2.3030	14.2710
 2.3040	14.2150
 2.3050	14.1630
 2.3060	14.1250
 2.3070	14.0860
 2.3080	14.0450
 2.3090	13.9960
 2.3100	13.9410
 2.3110	13.9000
 2.3120	13.8660
 2.3130	13.8410
 2.3140	13.8190
 2.3150	13.8130
 2.3160	13.7830
 2.3170	13.7510
 2.3180	13.7130
 2.3190	13.6570
 2.3200	13.6140
 2.3210	13.5710
 2.3220	13.5340
 2.3230	13.5040
 2.3240	13.4740
 2.3250	13.4500
 2.3260	13.4230
 2.3270	13.4010
 2.3280	13.3680
 2.3290	13.3390
 2.3300	13.2940
 2.3310	13.2320
 2.3320	13.1760
 2.3330	13.1060
 2.3340	13.0520
 2.3350	13.0150
 2.3360	12.9620
 2.3370	12.9100
 2.3380	12.8570
 2.3390	12.7870
 2.3400	12.7380
 2.3410	12.7090
 2.3420	12.6660
 2.3430	12.6280
 2.3440	12.5820
 2.3450	12.5150
 2.3460	12.4680
 2.3470	12.4290
 2.3480	12.3870
 2.3490	12.3610
 2.3500	12.3170
 2.3510	12.2560
 2.3520	12.2070
 2.3530	12.1480
 2.3540	12.1080
 2.3550	12.0810
 2.3560	12.0490
 2.3570	12.0280
 2.3580	11.9930
 2.3590	11.9390
 2.3600	11.9010
 2.3610	11.8690
 2.3620	11.8250
 2.3630	11.7970
 2.3640	11.7690
 2.3650	11.7240
 2.3660	11.6780
 2.3670	11.6390
 2.3680	11.5980
 2.3690	11.5390
 2.3700	11.4870
 2.3710	11.4220
 2.3720	11.3500
 2.3730	11.3160
 2.3740	11.2720
 2.3750	11.2290
 2.3760	11.1940
 2.3770	11.1330
 2.3780	11.0900
 2.3790	11.0490
 2.3800	10.9970
 2.3810	10.9610
 2.3820	10.9000
 2.3830	10.8400
 2.3840	10.7890
 2.3850	10.7330
 2.3860	10.6880
 2.3870	10.6330
 2.3880	10.5900
 2.3890	10.5410
 2.3900	10.4750
 2.3910	10.4140
 2.3920	10.3720
 2.3930	10.3510
 2.3940	10.3080
 2.3950	10.2660
 2.3960	10.2040
 2.3970	10.1270
 2.3980	10.0820
 2.3990	10.0500
 2.4000	10.0130
 2.4010	 9.9770
 2.4020	 9.9450
 2.4030	 9.9110
 2.4040	 9.8830
 2.4050	 9.8500
 2.4060	 9.7940
 2.4070	 9.7240
 2.4080	 9.6430
 2.4090	 9.5750
 2.4100	 9.5220
 2.4110	 9.4610
 2.4120	 9.4340
 2.4130	 9.4110
 2.4140	 9.3680
 2.4150	 9.3460
 2.4160	 9.3070
 2.4170	 9.2440
 2.4180	 9.1750
 2.4190	 9.0970
 2.4200	 9.0270
 2.4210	 8.9660
 2.4220	 8.9050
 2.4230	 8.8590
 2.4240	 8.8240
 2.4250	 8.7730
 2.4260	 8.7100
 2.4270	 8.6600
 2.4280	 8.6070
 2.4290	 8.5540
 2.4300	 8.5350
 2.4310	 8.4860
 2.4320	 8.4410
 2.4330	 8.4230
 2.4340	 8.3570
 2.4350	 8.3080
 2.4360	 8.2420
 2.4370	 8.1270
 2.4380	 8.0730
 2.4390	 8.0380
 2.4400	 7.9790
 2.4410	 7.9600
 2.4420	 7.9130
 2.4430	 7.8300
 2.4440	 7.7790
 2.4450	 7.7200
 2.4460	 7.6500
 2.4470	 7.5830
 2.4480	 7.5480
 2.4490	 7.5160
 2.4500	 7.4620
 2.4510	 7.4520
 2.4520	 7.4150
 2.4530	 7.3550
 2.4540	 7.3360
 2.4550	 7.3060
 2.4560	 7.2640
 2.4570	 7.2210
 2.4580	 7.1920
 2.4590	 7.1760
 2.4600	 7.1320
 2.4610	 7.0860
 2.4620	 7.0770
 2.4630	 7.0480
 2.4640	 6.9890
 2.4650	 6.9590
 2.4660	 6.9150
 2.4670	 6.8230
 2.4680	 6.7780
 2.4690	 6.6840
 2.4700	 6.6250
 2.4710	 6.5900
 2.4720	 6.5700
 2.4730	 6.6150
 2.4740	 6.6060
 2.4750	 6.5950
 2.4760	 6.5680
 2.4770	 6.4670
 2.4780	 6.4300
 2.4790	 6.4110
 2.4800	 6.3850
 2.4810	 6.4070
 2.4820	 6.3800
 2.4830	 6.3410
 2.4840	 6.3350
 2.4850	 6.3130
 2.4860	 6.3220
 2.4870	 6.3920
 2.4880	 6.3870
 2.4890	 6.3480
 2.4900	 6.2730
 2.4910	 6.1010
 2.4920	 6.0240
 2.4930	 5.9810
 2.4940	 5.9330
 2.4950	 6.0450
 2.4960	 6.1510
 2.4970	 6.1590
 2.4980	 6.1660
 2.4990	 6.1980
 2.5000	 6.1360
