Name: Betula papyrifera
Type: Vegetation
Class: Tree
Genus: Betula
Species: papyrifera
Sample No.: BEPA-2-35
Owner: UCSB
Wavelength Range: VSWIR
Origin: USA; Massachusetts; Harvard Forest
Collection Date: 7/8/2013
Description: Samples were collected as part of NSF Macrosystem Biology proposal titled: Collaborative Research: Thermal controls on ecosystem metabolism and function: scaling from leaves to canopies to regions. Samples were collected and overnighted to JPL facilities for processing. The same leaves were processed in the Nicolet and then measured using the ASD.
Measurement: Bidirectional reflectance
First Column: X
Second Column: Y
X Units: Wavelength (micrometers)
Y Units: Reflectance (percentage)
First X Value: 0.35
Last X Value: 2.5
Number of X Values: 2151
Additional Information: vegetation.tree.betula.papyrifera.vswir.bepa-2-35.ucsb.asd.ancillary.txt

 0.3500	 8.0850
 0.3510	 8.0610
 0.3520	 8.2730
 0.3530	 8.3590
 0.3540	 8.1280
 0.3550	 8.2520
 0.3560	 8.0840
 0.3570	 7.8480
 0.3580	 8.1030
 0.3590	 8.1220
 0.3600	 8.0790
 0.3610	 8.0740
 0.3620	 7.9540
 0.3630	 7.9750
 0.3640	 8.1190
 0.3650	 8.2600
 0.3660	 8.1520
 0.3670	 8.1000
 0.3680	 8.1400
 0.3690	 8.1130
 0.3700	 8.0110
 0.3710	 7.9640
 0.3720	 8.0260
 0.3730	 8.0930
 0.3740	 8.0980
 0.3750	 8.0510
 0.3760	 8.0030
 0.3770	 8.0350
 0.3780	 8.0850
 0.3790	 8.1110
 0.3800	 8.0930
 0.3810	 8.0570
 0.3820	 8.0030
 0.3830	 7.9390
 0.3840	 7.8690
 0.3850	 7.9450
 0.3860	 8.0620
 0.3870	 8.0570
 0.3880	 8.0390
 0.3890	 8.0240
 0.3900	 8.0270
 0.3910	 8.0730
 0.3920	 8.1040
 0.3930	 8.0840
 0.3940	 8.0150
 0.3950	 7.9940
 0.3960	 8.0100
 0.3970	 8.0260
 0.3980	 8.0010
 0.3990	 7.9890
 0.4000	 7.9930
 0.4010	 7.9970
 0.4020	 7.9600
 0.4030	 7.9690
 0.4040	 7.9900
 0.4050	 7.9910
 0.4060	 8.0310
 0.4070	 8.0420
 0.4080	 8.0350
 0.4090	 8.0660
 0.4100	 8.0620
 0.4110	 8.0360
 0.4120	 8.0070
 0.4130	 7.9740
 0.4140	 8.0200
 0.4150	 8.0740
 0.4160	 8.0490
 0.4170	 8.0700
 0.4180	 8.1200
 0.4190	 8.1520
 0.4200	 8.1020
 0.4210	 8.1400
 0.4220	 8.1720
 0.4230	 8.1360
 0.4240	 8.1810
 0.4250	 8.2120
 0.4260	 8.2250
 0.4270	 8.2520
 0.4280	 8.2590
 0.4290	 8.2660
 0.4300	 8.2780
 0.4310	 8.2760
 0.4320	 8.2780
 0.4330	 8.2730
 0.4340	 8.2590
 0.4350	 8.2770
 0.4360	 8.2920
 0.4370	 8.2940
 0.4380	 8.2940
 0.4390	 8.3170
 0.4400	 8.3450
 0.4410	 8.3590
 0.4420	 8.3550
 0.4430	 8.3630
 0.4440	 8.3730
 0.4450	 8.3630
 0.4460	 8.3580
 0.4470	 8.3700
 0.4480	 8.3940
 0.4490	 8.4130
 0.4500	 8.4030
 0.4510	 8.4010
 0.4520	 8.4340
 0.4530	 8.4490
 0.4540	 8.4470
 0.4550	 8.4420
 0.4560	 8.4550
 0.4570	 8.4560
 0.4580	 8.4670
 0.4590	 8.4900
 0.4600	 8.4800
 0.4610	 8.4800
 0.4620	 8.4910
 0.4630	 8.4970
 0.4640	 8.4890
 0.4650	 8.4780
 0.4660	 8.4740
 0.4670	 8.4750
 0.4680	 8.4720
 0.4690	 8.4650
 0.4700	 8.4590
 0.4710	 8.4780
 0.4720	 8.4870
 0.4730	 8.4800
 0.4740	 8.4660
 0.4750	 8.4740
 0.4760	 8.4820
 0.4770	 8.4770
 0.4780	 8.4630
 0.4790	 8.4690
 0.4800	 8.4800
 0.4810	 8.4760
 0.4820	 8.4710
 0.4830	 8.4740
 0.4840	 8.4830
 0.4850	 8.4850
 0.4860	 8.4770
 0.4870	 8.4730
 0.4880	 8.4800
 0.4890	 8.4900
 0.4900	 8.4970
 0.4910	 8.4990
 0.4920	 8.5020
 0.4930	 8.5240
 0.4940	 8.5520
 0.4950	 8.5710
 0.4960	 8.5680
 0.4970	 8.5760
 0.4980	 8.5890
 0.4990	 8.5960
 0.5000	 8.6260
 0.5010	 8.6540
 0.5020	 8.6720
 0.5030	 8.6880
 0.5040	 8.7170
 0.5050	 8.7450
 0.5060	 8.7670
 0.5070	 8.7980
 0.5080	 8.8360
 0.5090	 8.8790
 0.5100	 8.9250
 0.5110	 8.9770
 0.5120	 9.0390
 0.5130	 9.1110
 0.5140	 9.1820
 0.5150	 9.2650
 0.5160	 9.3630
 0.5170	 9.4740
 0.5180	 9.5860
 0.5190	 9.7090
 0.5200	 9.8420
 0.5210	 9.9820
 0.5220	10.1320
 0.5230	10.2870
 0.5240	10.4420
 0.5250	10.5980
 0.5260	10.7470
 0.5270	10.8900
 0.5280	11.0300
 0.5290	11.1600
 0.5300	11.2820
 0.5310	11.3950
 0.5320	11.5010
 0.5330	11.5980
 0.5340	11.6860
 0.5350	11.7650
 0.5360	11.8300
 0.5370	11.8860
 0.5380	11.9350
 0.5390	11.9790
 0.5400	12.0150
 0.5410	12.0390
 0.5420	12.0570
 0.5430	12.0910
 0.5440	12.1240
 0.5450	12.1570
 0.5460	12.1940
 0.5470	12.2490
 0.5480	12.2990
 0.5490	12.3310
 0.5500	12.3490
 0.5510	12.3610
 0.5520	12.3700
 0.5530	12.3710
 0.5540	12.3600
 0.5550	12.3380
 0.5560	12.3020
 0.5570	12.2510
 0.5580	12.1920
 0.5590	12.1230
 0.5600	12.0450
 0.5610	11.9660
 0.5620	11.8670
 0.5630	11.7570
 0.5640	11.6560
 0.5650	11.5490
 0.5660	11.4320
 0.5670	11.3080
 0.5680	11.1870
 0.5690	11.0670
 0.5700	10.9510
 0.5710	10.8420
 0.5720	10.7370
 0.5730	10.6340
 0.5740	10.5360
 0.5750	10.4470
 0.5760	10.3720
 0.5770	10.3030
 0.5780	10.2350
 0.5790	10.1700
 0.5800	10.1110
 0.5810	10.0570
 0.5820	10.0070
 0.5830	 9.9530
 0.5840	 9.9100
 0.5850	 9.8780
 0.5860	 9.8410
 0.5870	 9.8050
 0.5880	 9.7750
 0.5890	 9.7490
 0.5900	 9.7190
 0.5910	 9.6940
 0.5920	 9.6770
 0.5930	 9.6670
 0.5940	 9.6560
 0.5950	 9.6450
 0.5960	 9.6330
 0.5970	 9.6190
 0.5980	 9.6120
 0.5990	 9.6040
 0.6000	 9.5880
 0.6010	 9.5760
 0.6020	 9.5600
 0.6030	 9.5390
 0.6040	 9.5140
 0.6050	 9.4890
 0.6060	 9.4600
 0.6070	 9.4260
 0.6080	 9.3980
 0.6090	 9.3580
 0.6100	 9.3010
 0.6110	 9.2360
 0.6120	 9.2130
 0.6130	 9.2010
 0.6140	 9.1810
 0.6150	 9.1620
 0.6160	 9.1390
 0.6170	 9.1180
 0.6180	 9.1000
 0.6190	 9.0810
 0.6200	 9.0630
 0.6210	 9.0470
 0.6220	 9.0290
 0.6230	 9.0170
 0.6240	 9.0090
 0.6250	 9.0030
 0.6260	 8.9980
 0.6270	 8.9920
 0.6280	 8.9850
 0.6290	 8.9780
 0.6300	 8.9710
 0.6310	 8.9690
 0.6320	 8.9700
 0.6330	 8.9650
 0.6340	 8.9550
 0.6350	 8.9420
 0.6360	 8.9290
 0.6370	 8.9180
 0.6380	 8.9030
 0.6390	 8.8840
 0.6400	 8.8600
 0.6410	 8.8370
 0.6420	 8.8150
 0.6430	 8.7960
 0.6440	 8.7770
 0.6450	 8.7550
 0.6460	 8.7380
 0.6470	 8.7270
 0.6480	 8.7130
 0.6490	 8.6960
 0.6500	 8.6800
 0.6510	 8.6720
 0.6520	 8.6650
 0.6530	 8.6590
 0.6540	 8.6510
 0.6550	 8.6380
 0.6560	 8.6290
 0.6570	 8.6220
 0.6580	 8.6140
 0.6590	 8.6060
 0.6600	 8.5960
 0.6610	 8.5850
 0.6620	 8.5790
 0.6630	 8.5690
 0.6640	 8.5640
 0.6650	 8.5700
 0.6660	 8.5630
 0.6670	 8.5620
 0.6680	 8.5660
 0.6690	 8.5700
 0.6700	 8.5770
 0.6710	 8.5910
 0.6720	 8.6100
 0.6730	 8.6180
 0.6740	 8.6340
 0.6750	 8.6550
 0.6760	 8.6770
 0.6770	 8.7050
 0.6780	 8.7290
 0.6790	 8.7510
 0.6800	 8.7830
 0.6810	 8.8190
 0.6820	 8.8540
 0.6830	 8.8860
 0.6840	 8.9160
 0.6850	 8.9540
 0.6860	 8.9950
 0.6870	 9.0340
 0.6880	 9.0810
 0.6890	 9.1370
 0.6900	 9.2060
 0.6910	 9.2920
 0.6920	 9.4000
 0.6930	 9.5360
 0.6940	 9.7100
 0.6950	 9.9400
 0.6960	10.2220
 0.6970	10.5660
 0.6980	10.9840
 0.6990	11.4830
 0.7000	12.0610
 0.7010	12.7110
 0.7020	13.4310
 0.7030	14.2190
 0.7040	15.0660
 0.7050	15.9640
 0.7060	16.9070
 0.7070	17.8920
 0.7080	18.9100
 0.7090	19.9560
 0.7100	21.0260
 0.7110	22.1170
 0.7120	23.2250
 0.7130	24.3350
 0.7140	25.4590
 0.7150	26.5920
 0.7160	27.7220
 0.7170	28.8380
 0.7180	29.9510
 0.7190	31.0550
 0.7200	32.1350
 0.7210	33.1980
 0.7220	34.2400
 0.7230	35.2600
 0.7240	36.2570
 0.7250	37.2030
 0.7260	38.1160
 0.7270	39.0090
 0.7280	39.8630
 0.7290	40.6610
 0.7300	41.4230
 0.7310	42.1750
 0.7320	42.8670
 0.7330	43.5190
 0.7340	44.1410
 0.7350	44.7260
 0.7360	45.2690
 0.7370	45.7860
 0.7380	46.2830
 0.7390	46.7310
 0.7400	47.1560
 0.7410	47.5540
 0.7420	47.9200
 0.7430	48.2760
 0.7440	48.5810
 0.7450	48.8480
 0.7460	49.1330
 0.7470	49.3930
 0.7480	49.6210
 0.7490	49.8190
 0.7500	50.0060
 0.7510	50.1790
 0.7520	50.3340
 0.7530	50.4750
 0.7540	50.6260
 0.7550	50.7490
 0.7560	50.8430
 0.7570	50.9360
 0.7580	51.0200
 0.7590	51.0980
 0.7600	51.1710
 0.7610	51.2420
 0.7620	51.3030
 0.7630	51.3540
 0.7640	51.3970
 0.7650	51.4450
 0.7660	51.4810
 0.7670	51.5120
 0.7680	51.5540
 0.7690	51.5820
 0.7700	51.6140
 0.7710	51.6520
 0.7720	51.6670
 0.7730	51.6820
 0.7740	51.7030
 0.7750	51.7260
 0.7760	51.7540
 0.7770	51.7610
 0.7780	51.7640
 0.7790	51.7890
 0.7800	51.8170
 0.7810	51.8330
 0.7820	51.8450
 0.7830	51.8730
 0.7840	51.8930
 0.7850	51.9110
 0.7860	51.9300
 0.7870	51.9410
 0.7880	51.9570
 0.7890	51.9750
 0.7900	51.9870
 0.7910	52.0060
 0.7920	52.0140
 0.7930	52.0140
 0.7940	52.0240
 0.7950	52.0440
 0.7960	52.0590
 0.7970	52.0640
 0.7980	52.0680
 0.7990	52.0710
 0.8000	52.0840
 0.8010	52.1110
 0.8020	52.1310
 0.8030	52.1240
 0.8040	52.1100
 0.8050	52.1190
 0.8060	52.1200
 0.8070	52.1100
 0.8080	52.1040
 0.8090	52.1230
 0.8100	52.1440
 0.8110	52.1450
 0.8120	52.1230
 0.8130	52.1070
 0.8140	52.1220
 0.8150	52.1320
 0.8160	52.1110
 0.8170	52.1100
 0.8180	52.1070
 0.8190	52.1020
 0.8200	52.0990
 0.8210	52.0910
 0.8220	52.0860
 0.8230	52.0890
 0.8240	52.0940
 0.8250	52.0810
 0.8260	52.0620
 0.8270	52.0530
 0.8280	52.0550
 0.8290	52.0490
 0.8300	52.0410
 0.8310	52.0350
 0.8320	52.0120
 0.8330	51.9970
 0.8340	51.9910
 0.8350	51.9840
 0.8360	51.9850
 0.8370	51.9840
 0.8380	51.9760
 0.8390	51.9630
 0.8400	51.9680
 0.8410	51.9610
 0.8420	51.9450
 0.8430	51.9740
 0.8440	51.9590
 0.8450	51.9310
 0.8460	51.9270
 0.8470	51.9310
 0.8480	51.9230
 0.8490	51.9140
 0.8500	51.9200
 0.8510	51.9250
 0.8520	51.9160
 0.8530	51.8980
 0.8540	51.8890
 0.8550	51.9100
 0.8560	51.9260
 0.8570	51.9190
 0.8580	51.8980
 0.8590	51.8990
 0.8600	51.9110
 0.8610	51.9160
 0.8620	51.9030
 0.8630	51.8960
 0.8640	51.8900
 0.8650	51.8770
 0.8660	51.8840
 0.8670	51.8980
 0.8680	51.9030
 0.8690	51.8910
 0.8700	51.8890
 0.8710	51.8800
 0.8720	51.8740
 0.8730	51.8910
 0.8740	51.8990
 0.8750	51.8970
 0.8760	51.8920
 0.8770	51.8960
 0.8780	51.9000
 0.8790	51.8940
 0.8800	51.8870
 0.8810	51.9060
 0.8820	51.9170
 0.8830	51.9170
 0.8840	51.9140
 0.8850	51.9260
 0.8860	51.9280
 0.8870	51.9170
 0.8880	51.9040
 0.8890	51.9100
 0.8900	51.9190
 0.8910	51.9210
 0.8920	51.9150
 0.8930	51.9290
 0.8940	51.9250
 0.8950	51.9090
 0.8960	51.9150
 0.8970	51.9300
 0.8980	51.9420
 0.8990	51.9480
 0.9000	51.9560
 0.9010	51.9430
 0.9020	51.9400
 0.9030	51.9600
 0.9040	51.9830
 0.9050	51.9770
 0.9060	51.9590
 0.9070	51.9510
 0.9080	51.9700
 0.9090	51.9690
 0.9100	51.9710
 0.9110	51.9920
 0.9120	51.9920
 0.9130	52.0020
 0.9140	52.0020
 0.9150	51.9780
 0.9160	51.9740
 0.9170	51.9980
 0.9180	52.0240
 0.9190	52.0240
 0.9200	51.9990
 0.9210	51.9990
 0.9220	52.0180
 0.9230	52.0160
 0.9240	52.0080
 0.9250	52.0030
 0.9260	51.9960
 0.9270	51.9800
 0.9280	51.9720
 0.9290	51.9770
 0.9300	51.9870
 0.9310	51.9810
 0.9320	51.9610
 0.9330	51.9420
 0.9340	51.9320
 0.9350	51.9290
 0.9360	51.9180
 0.9370	51.9000
 0.9380	51.8820
 0.9390	51.8750
 0.9400	51.8960
 0.9410	51.8850
 0.9420	51.8310
 0.9430	51.8230
 0.9440	51.8050
 0.9450	51.7830
 0.9460	51.7630
 0.9470	51.7210
 0.9480	51.6680
 0.9490	51.6360
 0.9500	51.6350
 0.9510	51.5980
 0.9520	51.5460
 0.9530	51.5040
 0.9540	51.4790
 0.9550	51.3960
 0.9560	51.3550
 0.9570	51.3470
 0.9580	51.3270
 0.9590	51.2750
 0.9600	51.2240
 0.9610	51.1790
 0.9620	51.1400
 0.9630	51.1210
 0.9640	51.0900
 0.9650	51.0760
 0.9660	51.1020
 0.9670	51.0910
 0.9680	51.0820
 0.9690	51.0730
 0.9700	51.0550
 0.9710	51.0620
 0.9720	51.0530
 0.9730	51.0300
 0.9740	51.0140
 0.9750	51.0060
 0.9760	51.0020
 0.9770	51.0040
 0.9780	51.0190
 0.9790	51.0490
 0.9800	51.0580
 0.9810	51.0360
 0.9820	51.0020
 0.9830	51.0360
 0.9840	51.0500
 0.9850	51.0470
 0.9860	51.0640
 0.9870	51.0530
 0.9880	51.0630
 0.9890	51.0900
 0.9900	51.1090
 0.9910	51.1230
 0.9920	51.2320
 0.9930	51.3410
 0.9940	51.4510
 0.9950	51.5600
 0.9960	51.6700
 0.9970	51.7790
 0.9980	51.8880
 0.9990	51.9980
 1.0000	52.1070
 1.0010	52.2170
 1.0020	52.3260
 1.0030	52.4360
 1.0040	52.5450
 1.0050	52.6540
 1.0060	52.7640
 1.0070	52.8730
 1.0080	52.9830
 1.0090	53.0920
 1.0100	53.0920
 1.0110	53.1070
 1.0120	53.1160
 1.0130	53.1120
 1.0140	53.1210
 1.0150	53.1350
 1.0160	53.1450
 1.0170	53.1670
 1.0180	53.1860
 1.0190	53.1940
 1.0200	53.2060
 1.0210	53.2150
 1.0220	53.2260
 1.0230	53.2410
 1.0240	53.2600
 1.0250	53.2730
 1.0260	53.2900
 1.0270	53.3010
 1.0280	53.3050
 1.0290	53.3150
 1.0300	53.3270
 1.0310	53.3360
 1.0320	53.3470
 1.0330	53.3540
 1.0340	53.3590
 1.0350	53.3640
 1.0360	53.3690
 1.0370	53.3800
 1.0380	53.3910
 1.0390	53.4020
 1.0400	53.4190
 1.0410	53.4470
 1.0420	53.4600
 1.0430	53.4700
 1.0440	53.4800
 1.0450	53.4820
 1.0460	53.4860
 1.0470	53.4940
 1.0480	53.5020
 1.0490	53.5090
 1.0500	53.5170
 1.0510	53.5310
 1.0520	53.5410
 1.0530	53.5470
 1.0540	53.5490
 1.0550	53.5520
 1.0560	53.5510
 1.0570	53.5550
 1.0580	53.5620
 1.0590	53.5670
 1.0600	53.5750
 1.0610	53.5820
 1.0620	53.5900
 1.0630	53.5940
 1.0640	53.5990
 1.0650	53.5990
 1.0660	53.5880
 1.0670	53.5850
 1.0680	53.5820
 1.0690	53.5780
 1.0700	53.5800
 1.0710	53.5890
 1.0720	53.5900
 1.0730	53.5880
 1.0740	53.5890
 1.0750	53.5880
 1.0760	53.5870
 1.0770	53.5910
 1.0780	53.5860
 1.0790	53.5720
 1.0800	53.5640
 1.0810	53.5570
 1.0820	53.5490
 1.0830	53.5430
 1.0840	53.5370
 1.0850	53.5320
 1.0860	53.5190
 1.0870	53.5120
 1.0880	53.5070
 1.0890	53.5020
 1.0900	53.4990
 1.0910	53.4930
 1.0920	53.4890
 1.0930	53.4800
 1.0940	53.4690
 1.0950	53.4560
 1.0960	53.4380
 1.0970	53.4250
 1.0980	53.4140
 1.0990	53.4040
 1.1000	53.4000
 1.1010	53.3930
 1.1020	53.3830
 1.1030	53.3740
 1.1040	53.3650
 1.1050	53.3510
 1.1060	53.3380
 1.1070	53.3240
 1.1080	53.3100
 1.1090	53.2960
 1.1100	53.2810
 1.1110	53.2640
 1.1120	53.2490
 1.1130	53.2340
 1.1140	53.2190
 1.1150	53.2070
 1.1160	53.1920
 1.1170	53.1760
 1.1180	53.1570
 1.1190	53.1370
 1.1200	53.1110
 1.1210	53.0830
 1.1220	53.0560
 1.1230	53.0280
 1.1240	52.9990
 1.1250	52.9660
 1.1260	52.9310
 1.1270	52.8900
 1.1280	52.8440
 1.1290	52.7940
 1.1300	52.7400
 1.1310	52.6810
 1.1320	52.6160
 1.1330	52.5460
 1.1340	52.4720
 1.1350	52.3890
 1.1360	52.2970
 1.1370	52.2020
 1.1380	52.1050
 1.1390	52.0020
 1.1400	51.8950
 1.1410	51.7870
 1.1420	51.6770
 1.1430	51.5660
 1.1440	51.4580
 1.1450	51.3530
 1.1460	51.2480
 1.1470	51.1400
 1.1480	51.0360
 1.1490	50.9280
 1.1500	50.8330
 1.1510	50.7380
 1.1520	50.6550
 1.1530	50.5840
 1.1540	50.5140
 1.1550	50.4470
 1.1560	50.3880
 1.1570	50.3380
 1.1580	50.2940
 1.1590	50.2580
 1.1600	50.2290
 1.1610	50.2010
 1.1620	50.1730
 1.1630	50.1470
 1.1640	50.1270
 1.1650	50.1130
 1.1660	50.1040
 1.1670	50.0950
 1.1680	50.0950
 1.1690	50.0910
 1.1700	50.0870
 1.1710	50.0810
 1.1720	50.0730
 1.1730	50.0650
 1.1740	50.0560
 1.1750	50.0450
 1.1760	50.0400
 1.1770	50.0320
 1.1780	50.0200
 1.1790	50.0090
 1.1800	49.9950
 1.1810	49.9830
 1.1820	49.9760
 1.1830	49.9710
 1.1840	49.9620
 1.1850	49.9470
 1.1860	49.9320
 1.1870	49.9210
 1.1880	49.9120
 1.1890	49.9070
 1.1900	49.9010
 1.1910	49.8970
 1.1920	49.8920
 1.1930	49.8890
 1.1940	49.8860
 1.1950	49.8870
 1.1960	49.8820
 1.1970	49.8780
 1.1980	49.8800
 1.1990	49.8830
 1.2000	49.8880
 1.2010	49.8930
 1.2020	49.8960
 1.2030	49.8990
 1.2040	49.9060
 1.2050	49.9130
 1.2060	49.9240
 1.2070	49.9390
 1.2080	49.9530
 1.2090	49.9670
 1.2100	49.9850
 1.2110	50.0000
 1.2120	50.0120
 1.2130	50.0280
 1.2140	50.0450
 1.2150	50.0640
 1.2160	50.0840
 1.2170	50.1070
 1.2180	50.1330
 1.2190	50.1580
 1.2200	50.1840
 1.2210	50.2120
 1.2220	50.2350
 1.2230	50.2550
 1.2240	50.2800
 1.2250	50.3030
 1.2260	50.3230
 1.2270	50.3480
 1.2280	50.3670
 1.2290	50.3840
 1.2300	50.4020
 1.2310	50.4170
 1.2320	50.4350
 1.2330	50.4520
 1.2340	50.4700
 1.2350	50.4940
 1.2360	50.5090
 1.2370	50.5180
 1.2380	50.5310
 1.2390	50.5430
 1.2400	50.5540
 1.2410	50.5700
 1.2420	50.5840
 1.2430	50.5950
 1.2440	50.6040
 1.2450	50.6150
 1.2460	50.6270
 1.2470	50.6340
 1.2480	50.6400
 1.2490	50.6510
 1.2500	50.6570
 1.2510	50.6610
 1.2520	50.6730
 1.2530	50.6780
 1.2540	50.6880
 1.2550	50.7000
 1.2560	50.7050
 1.2570	50.7120
 1.2580	50.7170
 1.2590	50.7210
 1.2600	50.7260
 1.2610	50.7280
 1.2620	50.7290
 1.2630	50.7280
 1.2640	50.7230
 1.2650	50.7160
 1.2660	50.7110
 1.2670	50.7040
 1.2680	50.7000
 1.2690	50.6970
 1.2700	50.6910
 1.2710	50.6870
 1.2720	50.6820
 1.2730	50.6780
 1.2740	50.6750
 1.2750	50.6690
 1.2760	50.6640
 1.2770	50.6540
 1.2780	50.6440
 1.2790	50.6330
 1.2800	50.6180
 1.2810	50.6020
 1.2820	50.5840
 1.2830	50.5640
 1.2840	50.5440
 1.2850	50.5250
 1.2860	50.5040
 1.2870	50.4820
 1.2880	50.4570
 1.2890	50.4330
 1.2900	50.4060
 1.2910	50.3830
 1.2920	50.3560
 1.2930	50.3200
 1.2940	50.2850
 1.2950	50.2490
 1.2960	50.2080
 1.2970	50.1700
 1.2980	50.1310
 1.2990	50.0830
 1.3000	50.0350
 1.3010	49.9900
 1.3020	49.9410
 1.3030	49.8870
 1.3040	49.8300
 1.3050	49.7720
 1.3060	49.7100
 1.3070	49.6510
 1.3080	49.5870
 1.3090	49.5180
 1.3100	49.4530
 1.3110	49.3830
 1.3120	49.3100
 1.3130	49.2380
 1.3140	49.1590
 1.3150	49.0730
 1.3160	48.9890
 1.3170	48.9040
 1.3180	48.8150
 1.3190	48.7190
 1.3200	48.6200
 1.3210	48.5160
 1.3220	48.4100
 1.3230	48.3040
 1.3240	48.1970
 1.3250	48.0890
 1.3260	47.9820
 1.3270	47.8740
 1.3280	47.7660
 1.3290	47.6530
 1.3300	47.5350
 1.3310	47.4180
 1.3320	47.3000
 1.3330	47.1810
 1.3340	47.0600
 1.3350	46.9380
 1.3360	46.8120
 1.3370	46.6820
 1.3380	46.5550
 1.3390	46.4270
 1.3400	46.3000
 1.3410	46.1740
 1.3420	46.0510
 1.3430	45.9310
 1.3440	45.8110
 1.3450	45.6930
 1.3460	45.5780
 1.3470	45.4610
 1.3480	45.3420
 1.3490	45.2240
 1.3500	45.1060
 1.3510	44.9900
 1.3520	44.8780
 1.3530	44.7630
 1.3540	44.6480
 1.3550	44.5320
 1.3560	44.4110
 1.3570	44.2920
 1.3580	44.1750
 1.3590	44.0530
 1.3600	43.9300
 1.3610	43.8020
 1.3620	43.6690
 1.3630	43.5320
 1.3640	43.3820
 1.3650	43.2220
 1.3660	43.0550
 1.3670	42.8760
 1.3680	42.6930
 1.3690	42.4970
 1.3700	42.2840
 1.3710	42.0620
 1.3720	41.8220
 1.3730	41.5690
 1.3740	41.3020
 1.3750	41.0090
 1.3760	40.6980
 1.3770	40.3630
 1.3780	40.0030
 1.3790	39.6240
 1.3800	39.2180
 1.3810	38.7850
 1.3820	38.3320
 1.3830	37.8580
 1.3840	37.3610
 1.3850	36.8440
 1.3860	36.3090
 1.3870	35.7510
 1.3880	35.1870
 1.3890	34.6080
 1.3900	34.0170
 1.3910	33.4240
 1.3920	32.8210
 1.3930	32.2120
 1.3940	31.6050
 1.3950	30.9930
 1.3960	30.3880
 1.3970	29.7920
 1.3980	29.2030
 1.3990	28.6340
 1.4000	28.0810
 1.4010	27.5410
 1.4020	27.0250
 1.4030	26.5280
 1.4040	26.0510
 1.4050	25.6000
 1.4060	25.1700
 1.4070	24.7690
 1.4080	24.3900
 1.4090	24.0320
 1.4100	23.7010
 1.4110	23.3910
 1.4120	23.1020
 1.4130	22.8360
 1.4140	22.5870
 1.4150	22.3630
 1.4160	22.1590
 1.4170	21.9700
 1.4180	21.8010
 1.4190	21.6440
 1.4200	21.5020
 1.4210	21.3770
 1.4220	21.2640
 1.4230	21.1640
 1.4240	21.0750
 1.4250	20.9940
 1.4260	20.9240
 1.4270	20.8620
 1.4280	20.8090
 1.4290	20.7640
 1.4300	20.7280
 1.4310	20.6980
 1.4320	20.6740
 1.4330	20.6560
 1.4340	20.6450
 1.4350	20.6360
 1.4360	20.6330
 1.4370	20.6330
 1.4380	20.6360
 1.4390	20.6450
 1.4400	20.6570
 1.4410	20.6720
 1.4420	20.6920
 1.4430	20.7120
 1.4440	20.7350
 1.4450	20.7600
 1.4460	20.7870
 1.4470	20.8170
 1.4480	20.8470
 1.4490	20.8760
 1.4500	20.9070
 1.4510	20.9400
 1.4520	20.9750
 1.4530	21.0120
 1.4540	21.0500
 1.4550	21.0890
 1.4560	21.1290
 1.4570	21.1730
 1.4580	21.2230
 1.4590	21.2760
 1.4600	21.3320
 1.4610	21.3930
 1.4620	21.4570
 1.4630	21.5280
 1.4640	21.6040
 1.4650	21.6880
 1.4660	21.7790
 1.4670	21.8750
 1.4680	21.9780
 1.4690	22.0850
 1.4700	22.1960
 1.4710	22.3150
 1.4720	22.4360
 1.4730	22.5620
 1.4740	22.6910
 1.4750	22.8200
 1.4760	22.9520
 1.4770	23.0860
 1.4780	23.2220
 1.4790	23.3630
 1.4800	23.5050
 1.4810	23.6500
 1.4820	23.7970
 1.4830	23.9440
 1.4840	24.0920
 1.4850	24.2410
 1.4860	24.3900
 1.4870	24.5400
 1.4880	24.6910
 1.4890	24.8400
 1.4900	24.9900
 1.4910	25.1400
 1.4920	25.2920
 1.4930	25.4430
 1.4940	25.5940
 1.4950	25.7480
 1.4960	25.8980
 1.4970	26.0460
 1.4980	26.1960
 1.4990	26.3440
 1.5000	26.4950
 1.5010	26.6470
 1.5020	26.7990
 1.5030	26.9520
 1.5040	27.1030
 1.5050	27.2510
 1.5060	27.4020
 1.5070	27.5520
 1.5080	27.7000
 1.5090	27.8470
 1.5100	27.9930
 1.5110	28.1390
 1.5120	28.2850
 1.5130	28.4310
 1.5140	28.5760
 1.5150	28.7180
 1.5160	28.8560
 1.5170	28.9950
 1.5180	29.1320
 1.5190	29.2690
 1.5200	29.4040
 1.5210	29.5370
 1.5220	29.6710
 1.5230	29.8030
 1.5240	29.9320
 1.5250	30.0620
 1.5260	30.1870
 1.5270	30.3140
 1.5280	30.4410
 1.5290	30.5630
 1.5300	30.6840
 1.5310	30.8050
 1.5320	30.9240
 1.5330	31.0450
 1.5340	31.1680
 1.5350	31.2890
 1.5360	31.4060
 1.5370	31.5220
 1.5380	31.6350
 1.5390	31.7450
 1.5400	31.8550
 1.5410	31.9660
 1.5420	32.0760
 1.5430	32.1860
 1.5440	32.2980
 1.5450	32.4040
 1.5460	32.5110
 1.5470	32.6190
 1.5480	32.7250
 1.5490	32.8320
 1.5500	32.9380
 1.5510	33.0410
 1.5520	33.1420
 1.5530	33.2370
 1.5540	33.3300
 1.5550	33.4250
 1.5560	33.5190
 1.5570	33.6140
 1.5580	33.7080
 1.5590	33.7990
 1.5600	33.8910
 1.5610	33.9810
 1.5620	34.0690
 1.5630	34.1560
 1.5640	34.2400
 1.5650	34.3230
 1.5660	34.4050
 1.5670	34.4850
 1.5680	34.5660
 1.5690	34.6470
 1.5700	34.7290
 1.5710	34.8110
 1.5720	34.8900
 1.5730	34.9670
 1.5740	35.0440
 1.5750	35.1200
 1.5760	35.1950
 1.5770	35.2680
 1.5780	35.3400
 1.5790	35.4110
 1.5800	35.4840
 1.5810	35.5600
 1.5820	35.6330
 1.5830	35.7050
 1.5840	35.7760
 1.5850	35.8460
 1.5860	35.9160
 1.5870	35.9870
 1.5880	36.0560
 1.5890	36.1250
 1.5900	36.1920
 1.5910	36.2590
 1.5920	36.3270
 1.5930	36.3900
 1.5940	36.4550
 1.5950	36.5190
 1.5960	36.5790
 1.5970	36.6410
 1.5980	36.6990
 1.5990	36.7580
 1.6000	36.8200
 1.6010	36.8770
 1.6020	36.9330
 1.6030	36.9890
 1.6040	37.0400
 1.6050	37.0960
 1.6060	37.1520
 1.6070	37.2050
 1.6080	37.2590
 1.6090	37.3120
 1.6100	37.3640
 1.6110	37.4170
 1.6120	37.4670
 1.6130	37.5140
 1.6140	37.5600
 1.6150	37.6030
 1.6160	37.6460
 1.6170	37.6890
 1.6180	37.7330
 1.6190	37.7760
 1.6200	37.8180
 1.6210	37.8600
 1.6220	37.9010
 1.6230	37.9400
 1.6240	37.9800
 1.6250	38.0200
 1.6260	38.0630
 1.6270	38.1050
 1.6280	38.1480
 1.6290	38.1870
 1.6300	38.2220
 1.6310	38.2580
 1.6320	38.2910
 1.6330	38.3230
 1.6340	38.3590
 1.6350	38.3900
 1.6360	38.4190
 1.6370	38.4480
 1.6380	38.4730
 1.6390	38.4970
 1.6400	38.5190
 1.6410	38.5420
 1.6420	38.5670
 1.6430	38.5880
 1.6440	38.6100
 1.6450	38.6260
 1.6460	38.6400
 1.6470	38.6520
 1.6480	38.6660
 1.6490	38.6790
 1.6500	38.6860
 1.6510	38.6880
 1.6520	38.6860
 1.6530	38.6840
 1.6540	38.6810
 1.6550	38.6790
 1.6560	38.6790
 1.6570	38.6750
 1.6580	38.6660
 1.6590	38.6560
 1.6600	38.6430
 1.6610	38.6310
 1.6620	38.6240
 1.6630	38.6210
 1.6640	38.6180
 1.6650	38.6140
 1.6660	38.6080
 1.6670	38.5990
 1.6680	38.5890
 1.6690	38.5750
 1.6700	38.5590
 1.6710	38.5460
 1.6720	38.5300
 1.6730	38.5160
 1.6740	38.5030
 1.6750	38.4830
 1.6760	38.4600
 1.6770	38.4410
 1.6780	38.4150
 1.6790	38.3850
 1.6800	38.3560
 1.6810	38.3200
 1.6820	38.2840
 1.6830	38.2510
 1.6840	38.2160
 1.6850	38.1780
 1.6860	38.1360
 1.6870	38.0920
 1.6880	38.0470
 1.6890	38.0010
 1.6900	37.9540
 1.6910	37.9080
 1.6920	37.8620
 1.6930	37.8150
 1.6940	37.7670
 1.6950	37.7210
 1.6960	37.6700
 1.6970	37.6170
 1.6980	37.5630
 1.6990	37.5070
 1.7000	37.4530
 1.7010	37.3990
 1.7020	37.3450
 1.7030	37.2910
 1.7040	37.2350
 1.7050	37.1780
 1.7060	37.1230
 1.7070	37.0700
 1.7080	37.0150
 1.7090	36.9620
 1.7100	36.9060
 1.7110	36.8470
 1.7120	36.7910
 1.7130	36.7350
 1.7140	36.6750
 1.7150	36.6160
 1.7160	36.5570
 1.7170	36.4950
 1.7180	36.4360
 1.7190	36.3790
 1.7200	36.3240
 1.7210	36.2690
 1.7220	36.2140
 1.7230	36.1600
 1.7240	36.1060
 1.7250	36.0540
 1.7260	36.0030
 1.7270	35.9540
 1.7280	35.9040
 1.7290	35.8560
 1.7300	35.8120
 1.7310	35.7690
 1.7320	35.7300
 1.7330	35.6910
 1.7340	35.6560
 1.7350	35.6200
 1.7360	35.5820
 1.7370	35.5450
 1.7380	35.5110
 1.7390	35.4690
 1.7400	35.4260
 1.7410	35.3790
 1.7420	35.3220
 1.7430	35.2730
 1.7440	35.2290
 1.7450	35.1770
 1.7460	35.1270
 1.7470	35.0690
 1.7480	35.0020
 1.7490	34.9400
 1.7500	34.8810
 1.7510	34.8180
 1.7520	34.7540
 1.7530	34.6890
 1.7540	34.6190
 1.7550	34.5500
 1.7560	34.4830
 1.7570	34.4170
 1.7580	34.3530
 1.7590	34.2870
 1.7600	34.2230
 1.7610	34.1700
 1.7620	34.1140
 1.7630	34.0620
 1.7640	34.0110
 1.7650	33.9550
 1.7660	33.9050
 1.7670	33.8610
 1.7680	33.8170
 1.7690	33.7760
 1.7700	33.7330
 1.7710	33.6870
 1.7720	33.6470
 1.7730	33.6100
 1.7740	33.5720
 1.7750	33.5380
 1.7760	33.5040
 1.7770	33.4670
 1.7780	33.4340
 1.7790	33.4040
 1.7800	33.3750
 1.7810	33.3470
 1.7820	33.3210
 1.7830	33.3000
 1.7840	33.2760
 1.7850	33.2520
 1.7860	33.2300
 1.7870	33.2080
 1.7880	33.1810
 1.7890	33.1610
 1.7900	33.1470
 1.7910	33.1340
 1.7920	33.1300
 1.7930	33.1240
 1.7940	33.1150
 1.7950	33.1100
 1.7960	33.1060
 1.7970	33.1050
 1.7980	33.1080
 1.7990	33.1100
 1.8000	33.1150
 1.8010	33.1160
 1.8020	33.1150
 1.8030	33.1120
 1.8040	33.1040
 1.8050	33.1020
 1.8060	33.1010
 1.8070	33.1020
 1.8080	33.1090
 1.8090	33.1100
 1.8100	33.1090
 1.8110	33.1090
 1.8120	33.1080
 1.8130	33.1080
 1.8140	33.1090
 1.8150	33.1080
 1.8160	33.1020
 1.8170	33.0940
 1.8180	33.0910
 1.8190	33.0930
 1.8200	33.0940
 1.8210	33.0990
 1.8220	33.0950
 1.8230	33.0820
 1.8240	33.0720
 1.8250	33.0580
 1.8260	33.0410
 1.8270	33.0170
 1.8280	32.9940
 1.8290	32.9700
 1.8300	32.9460
 1.8310	32.9220
 1.8320	32.8990
 1.8330	32.8750
 1.8340	32.8510
 1.8350	32.8510
 1.8360	32.8080
 1.8370	32.7530
 1.8380	32.6940
 1.8390	32.6280
 1.8400	32.5550
 1.8410	32.4780
 1.8420	32.3980
 1.8430	32.3090
 1.8440	32.2130
 1.8450	32.1050
 1.8460	31.9830
 1.8470	31.8500
 1.8480	31.7080
 1.8490	31.5600
 1.8500	31.3970
 1.8510	31.2190
 1.8520	31.0340
 1.8530	30.8390
 1.8540	30.6230
 1.8550	30.3980
 1.8560	30.1600
 1.8570	29.9020
 1.8580	29.6360
 1.8590	29.3490
 1.8600	29.0460
 1.8610	28.7230
 1.8620	28.3810
 1.8630	28.0200
 1.8640	27.6400
 1.8650	27.2460
 1.8660	26.8320
 1.8670	26.3890
 1.8680	25.9260
 1.8690	25.4380
 1.8700	24.9250
 1.8710	24.3870
 1.8720	23.8380
 1.8730	23.2680
 1.8740	22.6880
 1.8750	22.1030
 1.8760	21.5030
 1.8770	20.8990
 1.8780	20.2950
 1.8790	19.6880
 1.8800	19.0920
 1.8810	18.5010
 1.8820	17.9150
 1.8830	17.3360
 1.8840	16.7700
 1.8850	16.2140
 1.8860	15.6720
 1.8870	15.1480
 1.8880	14.6400
 1.8890	14.1600
 1.8900	13.7090
 1.8910	13.2820
 1.8920	12.8780
 1.8930	12.5030
 1.8940	12.1540
 1.8950	11.8360
 1.8960	11.5480
 1.8970	11.2870
 1.8980	11.0520
 1.8990	10.8360
 1.9000	10.6360
 1.9010	10.4550
 1.9020	10.2910
 1.9030	10.1480
 1.9040	10.0200
 1.9050	 9.9100
 1.9060	 9.8150
 1.9070	 9.7280
 1.9080	 9.6520
 1.9090	 9.5860
 1.9100	 9.5300
 1.9110	 9.4790
 1.9120	 9.4410
 1.9130	 9.4030
 1.9140	 9.3700
 1.9150	 9.3400
 1.9160	 9.3210
 1.9170	 9.3080
 1.9180	 9.2950
 1.9190	 9.2870
 1.9200	 9.2770
 1.9210	 9.2680
 1.9220	 9.2640
 1.9230	 9.2650
 1.9240	 9.2670
 1.9250	 9.2740
 1.9260	 9.2770
 1.9270	 9.2820
 1.9280	 9.2890
 1.9290	 9.2950
 1.9300	 9.3090
 1.9310	 9.3240
 1.9320	 9.3410
 1.9330	 9.3560
 1.9340	 9.3680
 1.9350	 9.3850
 1.9360	 9.4060
 1.9370	 9.4250
 1.9380	 9.4440
 1.9390	 9.4700
 1.9400	 9.4920
 1.9410	 9.5140
 1.9420	 9.5420
 1.9430	 9.5700
 1.9440	 9.6010
 1.9450	 9.6350
 1.9460	 9.6690
 1.9470	 9.7070
 1.9480	 9.7420
 1.9490	 9.7760
 1.9500	 9.8090
 1.9510	 9.8410
 1.9520	 9.8770
 1.9530	 9.9160
 1.9540	 9.9590
 1.9550	10.0050
 1.9560	10.0550
 1.9570	10.1030
 1.9580	10.1550
 1.9590	10.2040
 1.9600	10.2530
 1.9610	10.3040
 1.9620	10.3540
 1.9630	10.4050
 1.9640	10.4590
 1.9650	10.5090
 1.9660	10.5650
 1.9670	10.6200
 1.9680	10.6780
 1.9690	10.7420
 1.9700	10.8020
 1.9710	10.8610
 1.9720	10.9210
 1.9730	10.9790
 1.9740	11.0400
 1.9750	11.1030
 1.9760	11.1720
 1.9770	11.2450
 1.9780	11.3170
 1.9790	11.3900
 1.9800	11.4640
 1.9810	11.5390
 1.9820	11.6130
 1.9830	11.6890
 1.9840	11.7660
 1.9850	11.8440
 1.9860	11.9260
 1.9870	12.0050
 1.9880	12.0800
 1.9890	12.1620
 1.9900	12.2410
 1.9910	12.3160
 1.9920	12.3970
 1.9930	12.4830
 1.9940	12.5650
 1.9950	12.6460
 1.9960	12.7300
 1.9970	12.8130
 1.9980	12.8960
 1.9990	12.9810
 2.0000	13.0710
 2.0010	13.1570
 2.0020	13.2420
 2.0030	13.3290
 2.0040	13.4110
 2.0050	13.4930
 2.0060	13.5710
 2.0070	13.6550
 2.0080	13.7440
 2.0090	13.8270
 2.0100	13.9100
 2.0110	13.9920
 2.0120	14.0670
 2.0130	14.1450
 2.0140	14.2240
 2.0150	14.3020
 2.0160	14.3790
 2.0170	14.4510
 2.0180	14.5280
 2.0190	14.6050
 2.0200	14.6830
 2.0210	14.7630
 2.0220	14.8400
 2.0230	14.9170
 2.0240	14.9920
 2.0250	15.0640
 2.0260	15.1370
 2.0270	15.2060
 2.0280	15.2820
 2.0290	15.3600
 2.0300	15.4300
 2.0310	15.5000
 2.0320	15.5690
 2.0330	15.6340
 2.0340	15.6930
 2.0350	15.7560
 2.0360	15.8210
 2.0370	15.8810
 2.0380	15.9420
 2.0390	15.9990
 2.0400	16.0480
 2.0410	16.0990
 2.0420	16.1490
 2.0430	16.1980
 2.0440	16.2500
 2.0450	16.3040
 2.0460	16.3580
 2.0470	16.4110
 2.0480	16.4690
 2.0490	16.5310
 2.0500	16.5890
 2.0510	16.6520
 2.0520	16.7080
 2.0530	16.7510
 2.0540	16.8040
 2.0550	16.8590
 2.0560	16.9120
 2.0570	16.9700
 2.0580	17.0260
 2.0590	17.0820
 2.0600	17.1360
 2.0610	17.1900
 2.0620	17.2440
 2.0630	17.3010
 2.0640	17.3590
 2.0650	17.4180
 2.0660	17.4820
 2.0670	17.5440
 2.0680	17.6070
 2.0690	17.6690
 2.0700	17.7330
 2.0710	17.7940
 2.0720	17.8520
 2.0730	17.9120
 2.0740	17.9710
 2.0750	18.0300
 2.0760	18.0900
 2.0770	18.1510
 2.0780	18.2090
 2.0790	18.2640
 2.0800	18.3220
 2.0810	18.3800
 2.0820	18.4370
 2.0830	18.4950
 2.0840	18.5510
 2.0850	18.6040
 2.0860	18.6570
 2.0870	18.7100
 2.0880	18.7630
 2.0890	18.8170
 2.0900	18.8710
 2.0910	18.9230
 2.0920	18.9770
 2.0930	19.0270
 2.0940	19.0720
 2.0950	19.1220
 2.0960	19.1760
 2.0970	19.2270
 2.0980	19.2810
 2.0990	19.3320
 2.1000	19.3780
 2.1010	19.4250
 2.1020	19.4720
 2.1030	19.5180
 2.1040	19.5640
 2.1050	19.6080
 2.1060	19.6540
 2.1070	19.6990
 2.1080	19.7440
 2.1090	19.7910
 2.1100	19.8370
 2.1110	19.8830
 2.1120	19.9300
 2.1130	19.9800
 2.1140	20.0250
 2.1150	20.0690
 2.1160	20.1130
 2.1170	20.1510
 2.1180	20.1930
 2.1190	20.2370
 2.1200	20.2790
 2.1210	20.3260
 2.1220	20.3640
 2.1230	20.4060
 2.1240	20.4490
 2.1250	20.4870
 2.1260	20.5200
 2.1270	20.5570
 2.1280	20.5910
 2.1290	20.6250
 2.1300	20.6630
 2.1310	20.6960
 2.1320	20.7260
 2.1330	20.7550
 2.1340	20.7840
 2.1350	20.8100
 2.1360	20.8290
 2.1370	20.8510
 2.1380	20.8720
 2.1390	20.8940
 2.1400	20.9180
 2.1410	20.9400
 2.1420	20.9670
 2.1430	20.9970
 2.1440	21.0240
 2.1450	21.0550
 2.1460	21.0810
 2.1470	21.1030
 2.1480	21.1300
 2.1490	21.1600
 2.1500	21.1860
 2.1510	21.2160
 2.1520	21.2360
 2.1530	21.2450
 2.1540	21.2610
 2.1550	21.2700
 2.1560	21.2880
 2.1570	21.3220
 2.1580	21.3440
 2.1590	21.3610
 2.1600	21.3810
 2.1610	21.3890
 2.1620	21.3940
 2.1630	21.4080
 2.1640	21.4250
 2.1650	21.4390
 2.1660	21.4550
 2.1670	21.4740
 2.1680	21.4930
 2.1690	21.5120
 2.1700	21.5360
 2.1710	21.5550
 2.1720	21.5690
 2.1730	21.5870
 2.1740	21.6080
 2.1750	21.6290
 2.1760	21.6510
 2.1770	21.6740
 2.1780	21.6990
 2.1790	21.7220
 2.1800	21.7430
 2.1810	21.7680
 2.1820	21.7950
 2.1830	21.8200
 2.1840	21.8460
 2.1850	21.8750
 2.1860	21.9010
 2.1870	21.9250
 2.1880	21.9490
 2.1890	21.9740
 2.1900	22.0000
 2.1910	22.0270
 2.1920	22.0520
 2.1930	22.0770
 2.1940	22.1020
 2.1950	22.1270
 2.1960	22.1510
 2.1970	22.1750
 2.1980	22.1990
 2.1990	22.2250
 2.2000	22.2470
 2.2010	22.2660
 2.2020	22.2860
 2.2030	22.3020
 2.2040	22.3210
 2.2050	22.3480
 2.2060	22.3660
 2.2070	22.3840
 2.2080	22.4020
 2.2090	22.4160
 2.2100	22.4270
 2.2110	22.4380
 2.2120	22.4480
 2.2130	22.4560
 2.2140	22.4570
 2.2150	22.4700
 2.2160	22.4910
 2.2170	22.5020
 2.2180	22.5200
 2.2190	22.5240
 2.2200	22.5090
 2.2210	22.5040
 2.2220	22.4960
 2.2230	22.4950
 2.2240	22.5050
 2.2250	22.5050
 2.2260	22.5140
 2.2270	22.5020
 2.2280	22.4620
 2.2290	22.4350
 2.2300	22.4100
 2.2310	22.3760
 2.2320	22.3460
 2.2330	22.3190
 2.2340	22.2790
 2.2350	22.2230
 2.2360	22.1810
 2.2370	22.1420
 2.2380	22.0990
 2.2390	22.0590
 2.2400	22.0110
 2.2410	21.9600
 2.2420	21.9050
 2.2430	21.8440
 2.2440	21.7870
 2.2450	21.7250
 2.2460	21.6700
 2.2470	21.6250
 2.2480	21.5670
 2.2490	21.5100
 2.2500	21.4450
 2.2510	21.3690
 2.2520	21.2930
 2.2530	21.2040
 2.2540	21.1300
 2.2550	21.0660
 2.2560	20.9960
 2.2570	20.9360
 2.2580	20.8680
 2.2590	20.7900
 2.2600	20.7120
 2.2610	20.6350
 2.2620	20.5480
 2.2630	20.4620
 2.2640	20.3800
 2.2650	20.3050
 2.2660	20.2380
 2.2670	20.1690
 2.2680	20.1050
 2.2690	20.0380
 2.2700	19.9690
 2.2710	19.9040
 2.2720	19.8410
 2.2730	19.7810
 2.2740	19.7240
 2.2750	19.6660
 2.2760	19.6070
 2.2770	19.5510
 2.2780	19.4980
 2.2790	19.4420
 2.2800	19.3830
 2.2810	19.3290
 2.2820	19.2720
 2.2830	19.2200
 2.2840	19.1840
 2.2850	19.1310
 2.2860	19.0650
 2.2870	19.0090
 2.2880	18.9490
 2.2890	18.8900
 2.2900	18.8390
 2.2910	18.7860
 2.2920	18.7310
 2.2930	18.6740
 2.2940	18.6250
 2.2950	18.5630
 2.2960	18.4820
 2.2970	18.4080
 2.2980	18.3260
 2.2990	18.2520
 2.3000	18.1940
 2.3010	18.1450
 2.3020	18.0930
 2.3030	18.0360
 2.3040	17.9690
 2.3050	17.9040
 2.3060	17.8370
 2.3070	17.7780
 2.3080	17.7280
 2.3090	17.6770
 2.3100	17.6430
 2.3110	17.6110
 2.3120	17.5850
 2.3130	17.5620
 2.3140	17.5480
 2.3150	17.5470
 2.3160	17.5310
 2.3170	17.5110
 2.3180	17.4960
 2.3190	17.4720
 2.3200	17.4570
 2.3210	17.4570
 2.3220	17.4410
 2.3230	17.4220
 2.3240	17.3940
 2.3250	17.3510
 2.3260	17.3160
 2.3270	17.2770
 2.3280	17.2340
 2.3290	17.1940
 2.3300	17.1500
 2.3310	17.0930
 2.3320	17.0470
 2.3330	17.0150
 2.3340	16.9640
 2.3350	16.9040
 2.3360	16.8500
 2.3370	16.7820
 2.3380	16.7240
 2.3390	16.6830
 2.3400	16.6290
 2.3410	16.5640
 2.3420	16.5100
 2.3430	16.4560
 2.3440	16.4000
 2.3450	16.3440
 2.3460	16.2990
 2.3470	16.2590
 2.3480	16.2190
 2.3490	16.1940
 2.3500	16.1570
 2.3510	16.1090
 2.3520	16.0650
 2.3530	16.0190
 2.3540	15.9860
 2.3550	15.9590
 2.3560	15.9270
 2.3570	15.8930
 2.3580	15.8550
 2.3590	15.7970
 2.3600	15.7460
 2.3610	15.7040
 2.3620	15.6670
 2.3630	15.6420
 2.3640	15.6100
 2.3650	15.5680
 2.3660	15.5270
 2.3670	15.4800
 2.3680	15.4360
 2.3690	15.3980
 2.3700	15.3500
 2.3710	15.3150
 2.3720	15.2810
 2.3730	15.2310
 2.3740	15.1910
 2.3750	15.1480
 2.3760	15.1010
 2.3770	15.0780
 2.3780	15.0500
 2.3790	14.9980
 2.3800	14.9420
 2.3810	14.8890
 2.3820	14.8350
 2.3830	14.7750
 2.3840	14.7310
 2.3850	14.6810
 2.3860	14.6180
 2.3870	14.5710
 2.3880	14.5320
 2.3890	14.5030
 2.3900	14.4600
 2.3910	14.3910
 2.3920	14.3270
 2.3930	14.2480
 2.3940	14.1670
 2.3950	14.1200
 2.3960	14.0820
 2.3970	14.0370
 2.3980	13.9920
 2.3990	13.9460
 2.4000	13.9080
 2.4010	13.8760
 2.4020	13.8450
 2.4030	13.8110
 2.4040	13.7550
 2.4050	13.6770
 2.4060	13.6140
 2.4070	13.5520
 2.4080	13.4760
 2.4090	13.4180
 2.4100	13.3590
 2.4110	13.2950
 2.4120	13.2570
 2.4130	13.2200
 2.4140	13.1840
 2.4150	13.1580
 2.4160	13.1230
 2.4170	13.0770
 2.4180	13.0250
 2.4190	12.9790
 2.4200	12.9150
 2.4210	12.8780
 2.4220	12.8560
 2.4230	12.7870
 2.4240	12.7340
 2.4250	12.6920
 2.4260	12.6230
 2.4270	12.5770
 2.4280	12.5410
 2.4290	12.4800
 2.4300	12.4250
 2.4310	12.3780
 2.4320	12.3140
 2.4330	12.2470
 2.4340	12.1750
 2.4350	12.1020
 2.4360	12.0640
 2.4370	12.0550
 2.4380	12.0490
 2.4390	12.0450
 2.4400	12.0270
 2.4410	11.9730
 2.4420	11.9060
 2.4430	11.8250
 2.4440	11.7540
 2.4450	11.6910
 2.4460	11.6040
 2.4470	11.5290
 2.4480	11.4520
 2.4490	11.4060
 2.4500	11.3830
 2.4510	11.3440
 2.4520	11.3300
 2.4530	11.2970
 2.4540	11.2720
 2.4550	11.2540
 2.4560	11.2010
 2.4570	11.1530
 2.4580	11.1010
 2.4590	11.0680
 2.4600	11.0460
 2.4610	11.0050
 2.4620	10.9710
 2.4630	10.9300
 2.4640	10.9040
 2.4650	10.8850
 2.4660	10.8160
 2.4670	10.7680
 2.4680	10.7420
 2.4690	10.7460
 2.4700	10.7440
 2.4710	10.7570
 2.4720	10.7340
 2.4730	10.6760
 2.4740	10.6380
 2.4750	10.5860
 2.4760	10.5490
 2.4770	10.5360
 2.4780	10.5160
 2.4790	10.4860
 2.4800	10.4670
 2.4810	10.4530
 2.4820	10.4240
 2.4830	10.4390
 2.4840	10.4450
 2.4850	10.4370
 2.4860	10.4430
 2.4870	10.4200
 2.4880	10.3590
 2.4890	10.2930
 2.4900	10.2170
 2.4910	10.1210
 2.4920	10.0130
 2.4930	 9.9780
 2.4940	10.0050
 2.4950	10.0230
 2.4960	10.0690
 2.4970	10.0540
 2.4980	 9.9690
 2.4990	 9.9730
 2.5000	10.0590
