Name: Salix babylonica
Type: vegetation
Class: Tree
Genus: Salix
Species: babylonica
Sample No.: JPL184
Owner: JPL
Wavelength Range: VSWIR
Origin: 34.12804; -118.11607; WGS84
Collection Date: 10/3/2016
Description: Samples were collected at the Huntington Garden in San Marino California as part of a JPL Subcontract studying HyTES imagery. Samples were taken to JPL and processed within 48 hours of collection. The same leaves were processed in the Nicolet and then measured using the ASD.
Measurement: Bidirectional reflectance
First Column: X
Second Column: Y
X Units: Wavelength (micrometer)
Y Units: Reflectance (percentage)
First X Value: 0.35
Last X Value: 2.5
Number of X Values: 2151
Additional Information: vegetation.tree.salix.babylonica.vswir.jpl184.jpl.asd.ancillary.txt

 0.3500	 6.0510
 0.3510	 6.1810
 0.3520	 6.1730
 0.3530	 6.0930
 0.3540	 6.0790
 0.3550	 6.1690
 0.3560	 6.2340
 0.3570	 6.1910
 0.3580	 6.0250
 0.3590	 6.0750
 0.3600	 6.0850
 0.3610	 6.0030
 0.3620	 6.1540
 0.3630	 6.1650
 0.3640	 6.0750
 0.3650	 6.0190
 0.3660	 6.0440
 0.3670	 6.1010
 0.3680	 6.1250
 0.3690	 6.0590
 0.3700	 6.0020
 0.3710	 5.9830
 0.3720	 6.0100
 0.3730	 6.0840
 0.3740	 6.0810
 0.3750	 6.0360
 0.3760	 6.0190
 0.3770	 5.9930
 0.3780	 6.0020
 0.3790	 6.0260
 0.3800	 6.0060
 0.3810	 5.9910
 0.3820	 5.9860
 0.3830	 5.9890
 0.3840	 6.0000
 0.3850	 5.9730
 0.3860	 5.9610
 0.3870	 6.0220
 0.3880	 5.9980
 0.3890	 5.9930
 0.3900	 6.0370
 0.3910	 6.0720
 0.3920	 6.0600
 0.3930	 6.0210
 0.3940	 5.9880
 0.3950	 5.9710
 0.3960	 5.9930
 0.3970	 6.0240
 0.3980	 6.0190
 0.3990	 6.0220
 0.4000	 6.0130
 0.4010	 5.9990
 0.4020	 6.0330
 0.4030	 6.0410
 0.4040	 6.0400
 0.4050	 6.0590
 0.4060	 6.0800
 0.4070	 6.0710
 0.4080	 6.0600
 0.4090	 6.1050
 0.4100	 6.1450
 0.4110	 6.1450
 0.4120	 6.1170
 0.4130	 6.1330
 0.4140	 6.1570
 0.4150	 6.1740
 0.4160	 6.1770
 0.4170	 6.1710
 0.4180	 6.1720
 0.4190	 6.1830
 0.4200	 6.1890
 0.4210	 6.1920
 0.4220	 6.1990
 0.4230	 6.2120
 0.4240	 6.2180
 0.4250	 6.2220
 0.4260	 6.2240
 0.4270	 6.2230
 0.4280	 6.2220
 0.4290	 6.2210
 0.4300	 6.2180
 0.4310	 6.2090
 0.4320	 6.2030
 0.4330	 6.1960
 0.4340	 6.1870
 0.4350	 6.1810
 0.4360	 6.1820
 0.4370	 6.1900
 0.4380	 6.1990
 0.4390	 6.2100
 0.4400	 6.2270
 0.4410	 6.2470
 0.4420	 6.2610
 0.4430	 6.2660
 0.4440	 6.2680
 0.4450	 6.2750
 0.4460	 6.2880
 0.4470	 6.2940
 0.4480	 6.2940
 0.4490	 6.3070
 0.4500	 6.3090
 0.4510	 6.3100
 0.4520	 6.3180
 0.4530	 6.3280
 0.4540	 6.3310
 0.4550	 6.3340
 0.4560	 6.3460
 0.4570	 6.3440
 0.4580	 6.3430
 0.4590	 6.3520
 0.4600	 6.3520
 0.4610	 6.3510
 0.4620	 6.3520
 0.4630	 6.3540
 0.4640	 6.3470
 0.4650	 6.3480
 0.4660	 6.3580
 0.4670	 6.3600
 0.4680	 6.3620
 0.4690	 6.3600
 0.4700	 6.3520
 0.4710	 6.3420
 0.4720	 6.3480
 0.4730	 6.3620
 0.4740	 6.3590
 0.4750	 6.3580
 0.4760	 6.3580
 0.4770	 6.3580
 0.4780	 6.3570
 0.4790	 6.3620
 0.4800	 6.3650
 0.4810	 6.3570
 0.4820	 6.3590
 0.4830	 6.3650
 0.4840	 6.3660
 0.4850	 6.3540
 0.4860	 6.3550
 0.4870	 6.3600
 0.4880	 6.3620
 0.4890	 6.3660
 0.4900	 6.3770
 0.4910	 6.3920
 0.4920	 6.4060
 0.4930	 6.4220
 0.4940	 6.4400
 0.4950	 6.4580
 0.4960	 6.4680
 0.4970	 6.4840
 0.4980	 6.5090
 0.4990	 6.5400
 0.5000	 6.5710
 0.5010	 6.6020
 0.5020	 6.6330
 0.5030	 6.6680
 0.5040	 6.7200
 0.5050	 6.7780
 0.5060	 6.8310
 0.5070	 6.8900
 0.5080	 6.9600
 0.5090	 7.0430
 0.5100	 7.1330
 0.5110	 7.2340
 0.5120	 7.3430
 0.5130	 7.4620
 0.5140	 7.5950
 0.5150	 7.7430
 0.5160	 7.9040
 0.5170	 8.0760
 0.5180	 8.2580
 0.5190	 8.4530
 0.5200	 8.6570
 0.5210	 8.8630
 0.5220	 9.0780
 0.5230	 9.2940
 0.5240	 9.5060
 0.5250	 9.7180
 0.5260	 9.9210
 0.5270	10.1120
 0.5280	10.2930
 0.5290	10.4620
 0.5300	10.6210
 0.5310	10.7680
 0.5320	10.8960
 0.5330	11.0110
 0.5340	11.1130
 0.5350	11.2000
 0.5360	11.2710
 0.5370	11.3310
 0.5380	11.3820
 0.5390	11.4180
 0.5400	11.4430
 0.5410	11.4580
 0.5420	11.4670
 0.5430	11.4780
 0.5440	11.4980
 0.5450	11.5270
 0.5460	11.5630
 0.5470	11.5990
 0.5480	11.6320
 0.5490	11.6600
 0.5500	11.6780
 0.5510	11.6870
 0.5520	11.6890
 0.5530	11.6820
 0.5540	11.6620
 0.5550	11.6290
 0.5560	11.5830
 0.5570	11.5220
 0.5580	11.4480
 0.5590	11.3610
 0.5600	11.2630
 0.5610	11.1520
 0.5620	11.0310
 0.5630	10.9040
 0.5640	10.7720
 0.5650	10.6350
 0.5660	10.5000
 0.5670	10.3650
 0.5680	10.2240
 0.5690	10.0850
 0.5700	 9.9480
 0.5710	 9.8130
 0.5720	 9.6850
 0.5730	 9.5630
 0.5740	 9.4450
 0.5750	 9.3340
 0.5760	 9.2280
 0.5770	 9.1290
 0.5780	 9.0380
 0.5790	 8.9570
 0.5800	 8.8800
 0.5810	 8.8050
 0.5820	 8.7350
 0.5830	 8.6740
 0.5840	 8.6180
 0.5850	 8.5660
 0.5860	 8.5230
 0.5870	 8.4770
 0.5880	 8.4320
 0.5890	 8.3940
 0.5900	 8.3530
 0.5910	 8.3120
 0.5920	 8.2730
 0.5930	 8.2390
 0.5940	 8.2130
 0.5950	 8.1980
 0.5960	 8.1890
 0.5970	 8.1760
 0.5980	 8.1610
 0.5990	 8.1440
 0.6000	 8.1290
 0.6010	 8.1110
 0.6020	 8.0860
 0.6030	 8.0540
 0.6040	 8.0220
 0.6050	 7.9820
 0.6060	 7.9360
 0.6070	 7.8880
 0.6080	 7.8360
 0.6090	 7.7710
 0.6100	 7.6930
 0.6110	 7.6100
 0.6120	 7.5580
 0.6130	 7.5270
 0.6140	 7.5020
 0.6150	 7.4640
 0.6160	 7.4260
 0.6170	 7.3890
 0.6180	 7.3530
 0.6190	 7.3180
 0.6200	 7.2850
 0.6210	 7.2580
 0.6220	 7.2360
 0.6230	 7.2140
 0.6240	 7.1960
 0.6250	 7.1840
 0.6260	 7.1740
 0.6270	 7.1650
 0.6280	 7.1550
 0.6290	 7.1450
 0.6300	 7.1340
 0.6310	 7.1260
 0.6320	 7.1190
 0.6330	 7.1120
 0.6340	 7.0990
 0.6350	 7.0810
 0.6360	 7.0550
 0.6370	 7.0230
 0.6380	 6.9890
 0.6390	 6.9520
 0.6400	 6.9120
 0.6410	 6.8720
 0.6420	 6.8330
 0.6430	 6.7950
 0.6440	 6.7570
 0.6450	 6.7220
 0.6460	 6.6910
 0.6470	 6.6600
 0.6480	 6.6350
 0.6490	 6.6160
 0.6500	 6.6000
 0.6510	 6.5860
 0.6520	 6.5740
 0.6530	 6.5670
 0.6540	 6.5640
 0.6550	 6.5580
 0.6560	 6.5500
 0.6570	 6.5400
 0.6580	 6.5270
 0.6590	 6.5140
 0.6600	 6.5020
 0.6610	 6.4920
 0.6620	 6.4840
 0.6630	 6.4760
 0.6640	 6.4710
 0.6650	 6.4720
 0.6660	 6.4750
 0.6670	 6.4820
 0.6680	 6.4930
 0.6690	 6.5060
 0.6700	 6.5230
 0.6710	 6.5450
 0.6720	 6.5720
 0.6730	 6.6020
 0.6740	 6.6350
 0.6750	 6.6710
 0.6760	 6.7100
 0.6770	 6.7520
 0.6780	 6.7980
 0.6790	 6.8490
 0.6800	 6.9000
 0.6810	 6.9570
 0.6820	 7.0150
 0.6830	 7.0700
 0.6840	 7.1260
 0.6850	 7.1810
 0.6860	 7.2390
 0.6870	 7.3060
 0.6880	 7.3780
 0.6890	 7.4650
 0.6900	 7.5770
 0.6910	 7.7210
 0.6920	 7.9090
 0.6930	 8.1480
 0.6940	 8.4440
 0.6950	 8.8020
 0.6960	 9.2220
 0.6970	 9.7040
 0.6980	10.2480
 0.6990	10.8500
 0.7000	11.5010
 0.7010	12.1970
 0.7020	12.9330
 0.7030	13.6990
 0.7040	14.4920
 0.7050	15.3080
 0.7060	16.1370
 0.7070	16.9820
 0.7080	17.8410
 0.7090	18.7120
 0.7100	19.5950
 0.7110	20.4870
 0.7120	21.3880
 0.7130	22.2930
 0.7140	23.2030
 0.7150	24.1180
 0.7160	25.0310
 0.7170	25.9430
 0.7180	26.8470
 0.7190	27.7440
 0.7200	28.6320
 0.7210	29.5060
 0.7220	30.3620
 0.7230	31.1970
 0.7240	32.0110
 0.7250	32.8020
 0.7260	33.5660
 0.7270	34.3020
 0.7280	35.0070
 0.7290	35.6790
 0.7300	36.3200
 0.7310	36.9310
 0.7320	37.5090
 0.7330	38.0560
 0.7340	38.5710
 0.7350	39.0540
 0.7360	39.5070
 0.7370	39.9300
 0.7380	40.3250
 0.7390	40.6900
 0.7400	41.0300
 0.7410	41.3450
 0.7420	41.6320
 0.7430	41.8960
 0.7440	42.1360
 0.7450	42.3520
 0.7460	42.5470
 0.7470	42.7220
 0.7480	42.8780
 0.7490	43.0180
 0.7500	43.1430
 0.7510	43.2550
 0.7520	43.3560
 0.7530	43.4430
 0.7540	43.5210
 0.7550	43.5900
 0.7560	43.6510
 0.7570	43.7050
 0.7580	43.7530
 0.7590	43.7950
 0.7600	43.8310
 0.7610	43.8630
 0.7620	43.8910
 0.7630	43.9130
 0.7640	43.9300
 0.7650	43.9440
 0.7660	43.9560
 0.7670	43.9660
 0.7680	43.9740
 0.7690	43.9780
 0.7700	43.9810
 0.7710	43.9830
 0.7720	43.9830
 0.7730	43.9840
 0.7740	43.9850
 0.7750	43.9850
 0.7760	43.9850
 0.7770	43.9840
 0.7780	43.9830
 0.7790	43.9840
 0.7800	43.9840
 0.7810	43.9830
 0.7820	43.9820
 0.7830	43.9820
 0.7840	43.9810
 0.7850	43.9800
 0.7860	43.9770
 0.7870	43.9720
 0.7880	43.9680
 0.7890	43.9640
 0.7900	43.9590
 0.7910	43.9530
 0.7920	43.9480
 0.7930	43.9420
 0.7940	43.9360
 0.7950	43.9310
 0.7960	43.9220
 0.7970	43.9090
 0.7980	43.9000
 0.7990	43.8890
 0.8000	43.8770
 0.8010	43.8630
 0.8020	43.8520
 0.8030	43.8390
 0.8040	43.8260
 0.8050	43.8140
 0.8060	43.8020
 0.8070	43.7870
 0.8080	43.7690
 0.8090	43.7520
 0.8100	43.7360
 0.8110	43.7200
 0.8120	43.7010
 0.8130	43.6830
 0.8140	43.6620
 0.8150	43.6430
 0.8160	43.6270
 0.8170	43.6110
 0.8180	43.5920
 0.8190	43.5720
 0.8200	43.5530
 0.8210	43.5340
 0.8220	43.5150
 0.8230	43.4960
 0.8240	43.4760
 0.8250	43.4580
 0.8260	43.4400
 0.8270	43.4200
 0.8280	43.4020
 0.8290	43.3820
 0.8300	43.3630
 0.8310	43.3470
 0.8320	43.3250
 0.8330	43.3070
 0.8340	43.2920
 0.8350	43.2750
 0.8360	43.2600
 0.8370	43.2470
 0.8380	43.2370
 0.8390	43.2230
 0.8400	43.2060
 0.8410	43.1920
 0.8420	43.1840
 0.8430	43.1710
 0.8440	43.1620
 0.8450	43.1560
 0.8460	43.1510
 0.8470	43.1410
 0.8480	43.1340
 0.8490	43.1310
 0.8500	43.1270
 0.8510	43.1200
 0.8520	43.1150
 0.8530	43.1120
 0.8540	43.1070
 0.8550	43.1000
 0.8560	43.0970
 0.8570	43.0980
 0.8580	43.0950
 0.8590	43.0980
 0.8600	43.1010
 0.8610	43.1030
 0.8620	43.1060
 0.8630	43.1080
 0.8640	43.1100
 0.8650	43.1120
 0.8660	43.1150
 0.8670	43.1200
 0.8680	43.1260
 0.8690	43.1320
 0.8700	43.1340
 0.8710	43.1390
 0.8720	43.1450
 0.8730	43.1480
 0.8740	43.1550
 0.8750	43.1640
 0.8760	43.1740
 0.8770	43.1830
 0.8780	43.1940
 0.8790	43.2040
 0.8800	43.2120
 0.8810	43.2150
 0.8820	43.2230
 0.8830	43.2340
 0.8840	43.2420
 0.8850	43.2490
 0.8860	43.2550
 0.8870	43.2610
 0.8880	43.2680
 0.8890	43.2760
 0.8900	43.2880
 0.8910	43.2990
 0.8920	43.3040
 0.8930	43.3180
 0.8940	43.3310
 0.8950	43.3410
 0.8960	43.3470
 0.8970	43.3560
 0.8980	43.3610
 0.8990	43.3620
 0.9000	43.3690
 0.9010	43.3830
 0.9020	43.3920
 0.9030	43.3930
 0.9040	43.4000
 0.9050	43.4050
 0.9060	43.4140
 0.9070	43.4240
 0.9080	43.4240
 0.9090	43.4210
 0.9100	43.4260
 0.9110	43.4400
 0.9120	43.4450
 0.9130	43.4430
 0.9140	43.4410
 0.9150	43.4430
 0.9160	43.4450
 0.9170	43.4440
 0.9180	43.4430
 0.9190	43.4470
 0.9200	43.4440
 0.9210	43.4380
 0.9220	43.4310
 0.9230	43.4230
 0.9240	43.4220
 0.9250	43.4130
 0.9260	43.3980
 0.9270	43.3910
 0.9280	43.3890
 0.9290	43.3750
 0.9300	43.3510
 0.9310	43.3360
 0.9320	43.3160
 0.9330	43.3010
 0.9340	43.2920
 0.9350	43.2700
 0.9360	43.2500
 0.9370	43.2330
 0.9380	43.2170
 0.9390	43.1950
 0.9400	43.1710
 0.9410	43.1480
 0.9420	43.1260
 0.9430	43.0960
 0.9440	43.0710
 0.9450	43.0460
 0.9460	43.0140
 0.9470	42.9750
 0.9480	42.9450
 0.9490	42.9140
 0.9500	42.8730
 0.9510	42.8310
 0.9520	42.7930
 0.9530	42.7520
 0.9540	42.7050
 0.9550	42.6700
 0.9560	42.6290
 0.9570	42.5830
 0.9580	42.5420
 0.9590	42.5030
 0.9600	42.4750
 0.9610	42.4490
 0.9620	42.4170
 0.9630	42.3990
 0.9640	42.3770
 0.9650	42.3480
 0.9660	42.3200
 0.9670	42.3100
 0.9680	42.2970
 0.9690	42.2820
 0.9700	42.2700
 0.9710	42.2520
 0.9720	42.2430
 0.9730	42.2420
 0.9740	42.2400
 0.9750	42.2260
 0.9760	42.2170
 0.9770	42.2140
 0.9780	42.2060
 0.9790	42.1970
 0.9800	42.1920
 0.9810	42.1940
 0.9820	42.2010
 0.9830	42.1830
 0.9840	42.1810
 0.9850	42.1910
 0.9860	42.1890
 0.9870	42.1840
 0.9880	42.1960
 0.9890	42.2070
 0.9900	42.1950
 0.9910	42.2030
 0.9920	42.2040
 0.9930	42.2010
 0.9940	42.2090
 0.9950	42.2300
 0.9960	42.2370
 0.9970	42.2290
 0.9980	42.2210
 0.9990	42.2290
 1.0000	42.2670
 1.0010	43.1340
 1.0020	43.1380
 1.0030	43.1460
 1.0040	43.1510
 1.0050	43.1550
 1.0060	43.1590
 1.0070	43.1600
 1.0080	43.1650
 1.0090	43.1710
 1.0100	43.1790
 1.0110	43.1920
 1.0120	43.2000
 1.0130	43.2070
 1.0140	43.2140
 1.0150	43.2190
 1.0160	43.2230
 1.0170	43.2320
 1.0180	43.2390
 1.0190	43.2450
 1.0200	43.2520
 1.0210	43.2570
 1.0220	43.2640
 1.0230	43.2700
 1.0240	43.2750
 1.0250	43.2810
 1.0260	43.2850
 1.0270	43.2920
 1.0280	43.3010
 1.0290	43.3090
 1.0300	43.3180
 1.0310	43.3270
 1.0320	43.3360
 1.0330	43.3390
 1.0340	43.3440
 1.0350	43.3470
 1.0360	43.3500
 1.0370	43.3570
 1.0380	43.3630
 1.0390	43.3740
 1.0400	43.3790
 1.0410	43.3820
 1.0420	43.3860
 1.0430	43.3850
 1.0440	43.3890
 1.0450	43.3970
 1.0460	43.4020
 1.0470	43.4080
 1.0480	43.4120
 1.0490	43.4090
 1.0500	43.4100
 1.0510	43.4110
 1.0520	43.4160
 1.0530	43.4180
 1.0540	43.4230
 1.0550	43.4240
 1.0560	43.4200
 1.0570	43.4200
 1.0580	43.4230
 1.0590	43.4230
 1.0600	43.4240
 1.0610	43.4230
 1.0620	43.4180
 1.0630	43.4140
 1.0640	43.4090
 1.0650	43.4060
 1.0660	43.4040
 1.0670	43.4010
 1.0680	43.3980
 1.0690	43.3960
 1.0700	43.3920
 1.0710	43.3880
 1.0720	43.3830
 1.0730	43.3780
 1.0740	43.3740
 1.0750	43.3710
 1.0760	43.3670
 1.0770	43.3630
 1.0780	43.3590
 1.0790	43.3570
 1.0800	43.3530
 1.0810	43.3510
 1.0820	43.3470
 1.0830	43.3410
 1.0840	43.3350
 1.0850	43.3280
 1.0860	43.3200
 1.0870	43.3150
 1.0880	43.3110
 1.0890	43.3050
 1.0900	43.3000
 1.0910	43.2940
 1.0920	43.2850
 1.0930	43.2790
 1.0940	43.2760
 1.0950	43.2720
 1.0960	43.2690
 1.0970	43.2640
 1.0980	43.2570
 1.0990	43.2510
 1.1000	43.2440
 1.1010	43.2370
 1.1020	43.2290
 1.1030	43.2230
 1.1040	43.2160
 1.1050	43.2070
 1.1060	43.2000
 1.1070	43.1940
 1.1080	43.1880
 1.1090	43.1850
 1.1100	43.1780
 1.1110	43.1700
 1.1120	43.1630
 1.1130	43.1550
 1.1140	43.1460
 1.1150	43.1420
 1.1160	43.1330
 1.1170	43.1200
 1.1180	43.1060
 1.1190	43.0900
 1.1200	43.0750
 1.1210	43.0590
 1.1220	43.0440
 1.1230	43.0250
 1.1240	43.0020
 1.1250	42.9780
 1.1260	42.9510
 1.1270	42.9190
 1.1280	42.8850
 1.1290	42.8470
 1.1300	42.8040
 1.1310	42.7580
 1.1320	42.7130
 1.1330	42.6600
 1.1340	42.6000
 1.1350	42.5360
 1.1360	42.4670
 1.1370	42.3950
 1.1380	42.3210
 1.1390	42.2450
 1.1400	42.1630
 1.1410	42.0790
 1.1420	41.9930
 1.1430	41.9050
 1.1440	41.8200
 1.1450	41.7350
 1.1460	41.6520
 1.1470	41.5700
 1.1480	41.4920
 1.1490	41.4160
 1.1500	41.3450
 1.1510	41.2760
 1.1520	41.2140
 1.1530	41.1560
 1.1540	41.1030
 1.1550	41.0540
 1.1560	41.0110
 1.1570	40.9700
 1.1580	40.9350
 1.1590	40.9050
 1.1600	40.8750
 1.1610	40.8500
 1.1620	40.8270
 1.1630	40.8070
 1.1640	40.7880
 1.1650	40.7730
 1.1660	40.7610
 1.1670	40.7480
 1.1680	40.7380
 1.1690	40.7280
 1.1700	40.7190
 1.1710	40.7110
 1.1720	40.7040
 1.1730	40.6960
 1.1740	40.6870
 1.1750	40.6780
 1.1760	40.6680
 1.1770	40.6590
 1.1780	40.6470
 1.1790	40.6350
 1.1800	40.6240
 1.1810	40.6120
 1.1820	40.6020
 1.1830	40.5940
 1.1840	40.5850
 1.1850	40.5740
 1.1860	40.5620
 1.1870	40.5500
 1.1880	40.5390
 1.1890	40.5290
 1.1900	40.5200
 1.1910	40.5120
 1.1920	40.5050
 1.1930	40.4970
 1.1940	40.4920
 1.1950	40.4880
 1.1960	40.4840
 1.1970	40.4810
 1.1980	40.4790
 1.1990	40.4780
 1.2000	40.4750
 1.2010	40.4730
 1.2020	40.4740
 1.2030	40.4750
 1.2040	40.4770
 1.2050	40.4800
 1.2060	40.4830
 1.2070	40.4870
 1.2080	40.4920
 1.2090	40.4980
 1.2100	40.5030
 1.2110	40.5090
 1.2120	40.5130
 1.2130	40.5180
 1.2140	40.5240
 1.2150	40.5310
 1.2160	40.5390
 1.2170	40.5470
 1.2180	40.5550
 1.2190	40.5630
 1.2200	40.5700
 1.2210	40.5770
 1.2220	40.5850
 1.2230	40.5950
 1.2240	40.6020
 1.2250	40.6100
 1.2260	40.6190
 1.2270	40.6250
 1.2280	40.6310
 1.2290	40.6380
 1.2300	40.6450
 1.2310	40.6520
 1.2320	40.6590
 1.2330	40.6640
 1.2340	40.6690
 1.2350	40.6730
 1.2360	40.6770
 1.2370	40.6810
 1.2380	40.6850
 1.2390	40.6920
 1.2400	40.6960
 1.2410	40.7000
 1.2420	40.7050
 1.2430	40.7040
 1.2440	40.7060
 1.2450	40.7090
 1.2460	40.7110
 1.2470	40.7120
 1.2480	40.7130
 1.2490	40.7140
 1.2500	40.7150
 1.2510	40.7170
 1.2520	40.7190
 1.2530	40.7200
 1.2540	40.7200
 1.2550	40.7200
 1.2560	40.7190
 1.2570	40.7170
 1.2580	40.7140
 1.2590	40.7100
 1.2600	40.7050
 1.2610	40.6990
 1.2620	40.6920
 1.2630	40.6850
 1.2640	40.6780
 1.2650	40.6720
 1.2660	40.6670
 1.2670	40.6600
 1.2680	40.6530
 1.2690	40.6440
 1.2700	40.6330
 1.2710	40.6210
 1.2720	40.6090
 1.2730	40.5980
 1.2740	40.5860
 1.2750	40.5770
 1.2760	40.5660
 1.2770	40.5520
 1.2780	40.5380
 1.2790	40.5190
 1.2800	40.4990
 1.2810	40.4790
 1.2820	40.4590
 1.2830	40.4390
 1.2840	40.4170
 1.2850	40.3950
 1.2860	40.3700
 1.2870	40.3430
 1.2880	40.3130
 1.2890	40.2840
 1.2900	40.2530
 1.2910	40.2210
 1.2920	40.1880
 1.2930	40.1530
 1.2940	40.1160
 1.2950	40.0780
 1.2960	40.0370
 1.2970	39.9930
 1.2980	39.9480
 1.2990	39.9040
 1.3000	39.8570
 1.3010	39.8100
 1.3020	39.7640
 1.3030	39.7160
 1.3040	39.6650
 1.3050	39.6140
 1.3060	39.5620
 1.3070	39.5060
 1.3080	39.4510
 1.3090	39.3970
 1.3100	39.3390
 1.3110	39.2800
 1.3120	39.2200
 1.3130	39.1570
 1.3140	39.0920
 1.3150	39.0260
 1.3160	38.9610
 1.3170	38.8950
 1.3180	38.8270
 1.3190	38.7580
 1.3200	38.6870
 1.3210	38.6130
 1.3220	38.5400
 1.3230	38.4660
 1.3240	38.3910
 1.3250	38.3160
 1.3260	38.2380
 1.3270	38.1580
 1.3280	38.0760
 1.3290	37.9900
 1.3300	37.9050
 1.3310	37.8210
 1.3320	37.7360
 1.3330	37.6510
 1.3340	37.5650
 1.3350	37.4760
 1.3360	37.3880
 1.3370	37.3000
 1.3380	37.2110
 1.3390	37.1240
 1.3400	37.0370
 1.3410	36.9510
 1.3420	36.8650
 1.3430	36.7800
 1.3440	36.6960
 1.3450	36.6120
 1.3460	36.5280
 1.3470	36.4450
 1.3480	36.3620
 1.3490	36.2800
 1.3500	36.1990
 1.3510	36.1180
 1.3520	36.0370
 1.3530	35.9560
 1.3540	35.8740
 1.3550	35.7920
 1.3560	35.7080
 1.3570	35.6230
 1.3580	35.5360
 1.3590	35.4450
 1.3600	35.3520
 1.3610	35.2570
 1.3620	35.1580
 1.3630	35.0560
 1.3640	34.9490
 1.3650	34.8360
 1.3660	34.7180
 1.3670	34.5920
 1.3680	34.4570
 1.3690	34.3110
 1.3700	34.1530
 1.3710	33.9850
 1.3720	33.8040
 1.3730	33.6090
 1.3740	33.4020
 1.3750	33.1790
 1.3760	32.9370
 1.3770	32.6760
 1.3780	32.3920
 1.3790	32.0880
 1.3800	31.7650
 1.3810	31.4200
 1.3820	31.0580
 1.3830	30.6790
 1.3840	30.2800
 1.3850	29.8610
 1.3860	29.4290
 1.3870	28.9770
 1.3880	28.5190
 1.3890	28.0490
 1.3900	27.5670
 1.3910	27.0820
 1.3920	26.5910
 1.3930	26.0940
 1.3940	25.5990
 1.3950	25.1010
 1.3960	24.6090
 1.3970	24.1260
 1.3980	23.6500
 1.3990	23.1920
 1.4000	22.7470
 1.4010	22.3140
 1.4020	21.9010
 1.4030	21.5000
 1.4040	21.1190
 1.4050	20.7580
 1.4060	20.4140
 1.4070	20.0940
 1.4080	19.7910
 1.4090	19.5050
 1.4100	19.2380
 1.4110	18.9870
 1.4120	18.7530
 1.4130	18.5360
 1.4140	18.3340
 1.4150	18.1490
 1.4160	17.9780
 1.4170	17.8200
 1.4180	17.6750
 1.4190	17.5400
 1.4200	17.4160
 1.4210	17.3010
 1.4220	17.1960
 1.4230	17.1000
 1.4240	17.0120
 1.4250	16.9310
 1.4260	16.8590
 1.4270	16.7920
 1.4280	16.7310
 1.4290	16.6760
 1.4300	16.6270
 1.4310	16.5820
 1.4320	16.5450
 1.4330	16.5110
 1.4340	16.4820
 1.4350	16.4560
 1.4360	16.4350
 1.4370	16.4160
 1.4380	16.4010
 1.4390	16.3910
 1.4400	16.3830
 1.4410	16.3780
 1.4420	16.3740
 1.4430	16.3730
 1.4440	16.3750
 1.4450	16.3790
 1.4460	16.3850
 1.4470	16.3920
 1.4480	16.4000
 1.4490	16.4090
 1.4500	16.4200
 1.4510	16.4330
 1.4520	16.4490
 1.4530	16.4650
 1.4540	16.4850
 1.4550	16.5070
 1.4560	16.5310
 1.4570	16.5580
 1.4580	16.5890
 1.4590	16.6220
 1.4600	16.6590
 1.4610	16.7010
 1.4620	16.7450
 1.4630	16.7950
 1.4640	16.8480
 1.4650	16.9060
 1.4660	16.9700
 1.4670	17.0380
 1.4680	17.1110
 1.4690	17.1890
 1.4700	17.2690
 1.4710	17.3550
 1.4720	17.4430
 1.4730	17.5350
 1.4740	17.6290
 1.4750	17.7270
 1.4760	17.8280
 1.4770	17.9310
 1.4780	18.0350
 1.4790	18.1420
 1.4800	18.2500
 1.4810	18.3590
 1.4820	18.4700
 1.4830	18.5830
 1.4840	18.6980
 1.4850	18.8130
 1.4860	18.9300
 1.4870	19.0480
 1.4880	19.1660
 1.4890	19.2840
 1.4900	19.4030
 1.4910	19.5230
 1.4920	19.6440
 1.4930	19.7670
 1.4940	19.8890
 1.4950	20.0100
 1.4960	20.1320
 1.4970	20.2540
 1.4980	20.3770
 1.4990	20.5000
 1.5000	20.6230
 1.5010	20.7480
 1.5020	20.8710
 1.5030	20.9950
 1.5040	21.1180
 1.5050	21.2380
 1.5060	21.3600
 1.5070	21.4830
 1.5080	21.6060
 1.5090	21.7280
 1.5100	21.8500
 1.5110	21.9720
 1.5120	22.0920
 1.5130	22.2120
 1.5140	22.3310
 1.5150	22.4480
 1.5160	22.5650
 1.5170	22.6830
 1.5180	22.8010
 1.5190	22.9190
 1.5200	23.0360
 1.5210	23.1500
 1.5220	23.2650
 1.5230	23.3790
 1.5240	23.4920
 1.5250	23.6050
 1.5260	23.7170
 1.5270	23.8280
 1.5280	23.9380
 1.5290	24.0440
 1.5300	24.1530
 1.5310	24.2590
 1.5320	24.3650
 1.5330	24.4710
 1.5340	24.5760
 1.5350	24.6800
 1.5360	24.7820
 1.5370	24.8830
 1.5380	24.9830
 1.5390	25.0830
 1.5400	25.1840
 1.5410	25.2830
 1.5420	25.3810
 1.5430	25.4780
 1.5440	25.5730
 1.5450	25.6660
 1.5460	25.7600
 1.5470	25.8530
 1.5480	25.9450
 1.5490	26.0370
 1.5500	26.1280
 1.5510	26.2160
 1.5520	26.3020
 1.5530	26.3870
 1.5540	26.4720
 1.5550	26.5550
 1.5560	26.6380
 1.5570	26.7200
 1.5580	26.8000
 1.5590	26.8800
 1.5600	26.9590
 1.5610	27.0370
 1.5620	27.1150
 1.5630	27.1910
 1.5640	27.2650
 1.5650	27.3390
 1.5660	27.4110
 1.5670	27.4830
 1.5680	27.5540
 1.5690	27.6240
 1.5700	27.6940
 1.5710	27.7630
 1.5720	27.8310
 1.5730	27.8980
 1.5740	27.9650
 1.5750	28.0320
 1.5760	28.0960
 1.5770	28.1600
 1.5780	28.2230
 1.5790	28.2850
 1.5800	28.3470
 1.5810	28.4090
 1.5820	28.4690
 1.5830	28.5280
 1.5840	28.5870
 1.5850	28.6440
 1.5860	28.7030
 1.5870	28.7590
 1.5880	28.8150
 1.5890	28.8700
 1.5900	28.9240
 1.5910	28.9770
 1.5920	29.0310
 1.5930	29.0830
 1.5940	29.1360
 1.5950	29.1880
 1.5960	29.2390
 1.5970	29.2890
 1.5980	29.3380
 1.5990	29.3860
 1.6000	29.4350
 1.6010	29.4810
 1.6020	29.5270
 1.6030	29.5730
 1.6040	29.6190
 1.6050	29.6640
 1.6060	29.7070
 1.6070	29.7500
 1.6080	29.7930
 1.6090	29.8340
 1.6100	29.8770
 1.6110	29.9180
 1.6120	29.9590
 1.6130	29.9990
 1.6140	30.0370
 1.6150	30.0740
 1.6160	30.1110
 1.6170	30.1470
 1.6180	30.1830
 1.6190	30.2190
 1.6200	30.2520
 1.6210	30.2850
 1.6220	30.3170
 1.6230	30.3500
 1.6240	30.3840
 1.6250	30.4150
 1.6260	30.4470
 1.6270	30.4790
 1.6280	30.5080
 1.6290	30.5380
 1.6300	30.5650
 1.6310	30.5930
 1.6320	30.6230
 1.6330	30.6500
 1.6340	30.6760
 1.6350	30.7020
 1.6360	30.7270
 1.6370	30.7510
 1.6380	30.7760
 1.6390	30.7980
 1.6400	30.8180
 1.6410	30.8380
 1.6420	30.8570
 1.6430	30.8760
 1.6440	30.8950
 1.6450	30.9120
 1.6460	30.9260
 1.6470	30.9420
 1.6480	30.9550
 1.6490	30.9680
 1.6500	30.9810
 1.6510	30.9910
 1.6520	30.9990
 1.6530	31.0050
 1.6540	31.0110
 1.6550	31.0160
 1.6560	31.0220
 1.6570	31.0280
 1.6580	31.0320
 1.6590	31.0330
 1.6600	31.0360
 1.6610	31.0370
 1.6620	31.0360
 1.6630	31.0360
 1.6640	31.0340
 1.6650	31.0310
 1.6660	31.0280
 1.6670	31.0260
 1.6680	31.0240
 1.6690	31.0210
 1.6700	31.0170
 1.6710	31.0130
 1.6720	31.0080
 1.6730	31.0010
 1.6740	30.9930
 1.6750	30.9840
 1.6760	30.9740
 1.6770	30.9660
 1.6780	30.9580
 1.6790	30.9460
 1.6800	30.9320
 1.6810	30.9170
 1.6820	30.9000
 1.6830	30.8830
 1.6840	30.8660
 1.6850	30.8460
 1.6860	30.8250
 1.6870	30.8050
 1.6880	30.7860
 1.6890	30.7670
 1.6900	30.7460
 1.6910	30.7250
 1.6920	30.7030
 1.6930	30.6770
 1.6940	30.6540
 1.6950	30.6320
 1.6960	30.6070
 1.6970	30.5840
 1.6980	30.5590
 1.6990	30.5300
 1.7000	30.5030
 1.7010	30.4770
 1.7020	30.4500
 1.7030	30.4240
 1.7040	30.3950
 1.7050	30.3630
 1.7060	30.3320
 1.7070	30.2990
 1.7080	30.2670
 1.7090	30.2360
 1.7100	30.2040
 1.7110	30.1740
 1.7120	30.1410
 1.7130	30.1060
 1.7140	30.0720
 1.7150	30.0370
 1.7160	30.0020
 1.7170	29.9660
 1.7180	29.9260
 1.7190	29.8870
 1.7200	29.8490
 1.7210	29.8080
 1.7220	29.7680
 1.7230	29.7280
 1.7240	29.6860
 1.7250	29.6450
 1.7260	29.6050
 1.7270	29.5620
 1.7280	29.5210
 1.7290	29.4790
 1.7300	29.4370
 1.7310	29.3970
 1.7320	29.3580
 1.7330	29.3190
 1.7340	29.2810
 1.7350	29.2410
 1.7360	29.1990
 1.7370	29.1570
 1.7380	29.1150
 1.7390	29.0710
 1.7400	29.0270
 1.7410	28.9800
 1.7420	28.9300
 1.7430	28.8800
 1.7440	28.8290
 1.7450	28.7770
 1.7460	28.7240
 1.7470	28.6710
 1.7480	28.6160
 1.7490	28.5610
 1.7500	28.5080
 1.7510	28.4520
 1.7520	28.3950
 1.7530	28.3400
 1.7540	28.2840
 1.7550	28.2270
 1.7560	28.1720
 1.7570	28.1160
 1.7580	28.0590
 1.7590	28.0050
 1.7600	27.9510
 1.7610	27.8930
 1.7620	27.8400
 1.7630	27.7880
 1.7640	27.7390
 1.7650	27.6940
 1.7660	27.6490
 1.7670	27.6030
 1.7680	27.5600
 1.7690	27.5190
 1.7700	27.4790
 1.7710	27.4430
 1.7720	27.4040
 1.7730	27.3660
 1.7740	27.3300
 1.7750	27.2930
 1.7760	27.2590
 1.7770	27.2300
 1.7780	27.1990
 1.7790	27.1700
 1.7800	27.1410
 1.7810	27.1140
 1.7820	27.0880
 1.7830	27.0640
 1.7840	27.0440
 1.7850	27.0280
 1.7860	27.0120
 1.7870	26.9990
 1.7880	26.9830
 1.7890	26.9680
 1.7900	26.9560
 1.7910	26.9470
 1.7920	26.9410
 1.7930	26.9340
 1.7940	26.9270
 1.7950	26.9220
 1.7960	26.9190
 1.7970	26.9160
 1.7980	26.9170
 1.7990	26.9170
 1.8000	26.9190
 1.8010	26.9210
 1.8020	26.9240
 1.8030	26.9260
 1.8040	26.9290
 1.8050	26.9310
 1.8060	26.9330
 1.8070	26.9350
 1.8080	26.9370
 1.8090	26.9370
 1.8100	26.9340
 1.8110	26.9330
 1.8120	26.9330
 1.8130	26.9330
 1.8140	26.9350
 1.8150	26.9360
 1.8160	26.9310
 1.8170	26.9270
 1.8180	26.9240
 1.8190	26.9220
 1.8200	26.9170
 1.8210	26.9130
 1.8220	26.9060
 1.8230	26.8940
 1.8240	26.8820
 1.8250	26.8680
 1.8260	26.8550
 1.8270	26.8430
 1.8280	26.8290
 1.8290	26.8140
 1.8300	26.7950
 1.8310	26.8520
 1.8320	26.8230
 1.8330	26.7910
 1.8340	26.7560
 1.8350	26.7210
 1.8360	26.6780
 1.8370	26.6250
 1.8380	26.5720
 1.8390	26.5170
 1.8400	26.4600
 1.8410	26.3970
 1.8420	26.3330
 1.8430	26.2610
 1.8440	26.1770
 1.8450	26.0870
 1.8460	25.9900
 1.8470	25.8880
 1.8480	25.7770
 1.8490	25.6590
 1.8500	25.5300
 1.8510	25.3920
 1.8520	25.2400
 1.8530	25.0820
 1.8540	24.9190
 1.8550	24.7430
 1.8560	24.5540
 1.8570	24.3520
 1.8580	24.1280
 1.8590	23.8940
 1.8600	23.6460
 1.8610	23.3890
 1.8620	23.1130
 1.8630	22.8250
 1.8640	22.5200
 1.8650	22.1960
 1.8660	21.8610
 1.8670	21.5070
 1.8680	21.1380
 1.8690	20.7510
 1.8700	20.3460
 1.8710	19.9210
 1.8720	19.4870
 1.8730	19.0420
 1.8740	18.5870
 1.8750	18.1280
 1.8760	17.6600
 1.8770	17.1910
 1.8780	16.7200
 1.8790	16.2480
 1.8800	15.7840
 1.8810	15.3240
 1.8820	14.8660
 1.8830	14.4140
 1.8840	13.9720
 1.8850	13.5350
 1.8860	13.1080
 1.8870	12.7000
 1.8880	12.3050
 1.8890	11.9270
 1.8900	11.5740
 1.8910	11.2380
 1.8920	10.9160
 1.8930	10.6180
 1.8940	10.3440
 1.8950	10.0920
 1.8960	 9.8600
 1.8970	 9.6510
 1.8980	 9.4630
 1.8990	 9.2920
 1.9000	 9.1350
 1.9010	 8.9970
 1.9020	 8.8680
 1.9030	 8.7520
 1.9040	 8.6490
 1.9050	 8.5580
 1.9060	 8.4790
 1.9070	 8.4130
 1.9080	 8.3520
 1.9090	 8.2960
 1.9100	 8.2480
 1.9110	 8.2050
 1.9120	 8.1690
 1.9130	 8.1360
 1.9140	 8.1090
 1.9150	 8.0870
 1.9160	 8.0660
 1.9170	 8.0470
 1.9180	 8.0340
 1.9190	 8.0180
 1.9200	 8.0040
 1.9210	 7.9950
 1.9220	 7.9860
 1.9230	 7.9800
 1.9240	 7.9760
 1.9250	 7.9730
 1.9260	 7.9700
 1.9270	 7.9700
 1.9280	 7.9720
 1.9290	 7.9770
 1.9300	 7.9830
 1.9310	 7.9900
 1.9320	 7.9990
 1.9330	 8.0060
 1.9340	 8.0110
 1.9350	 8.0190
 1.9360	 8.0260
 1.9370	 8.0370
 1.9380	 8.0480
 1.9390	 8.0640
 1.9400	 8.0800
 1.9410	 8.0930
 1.9420	 8.1120
 1.9430	 8.1290
 1.9440	 8.1460
 1.9450	 8.1640
 1.9460	 8.1840
 1.9470	 8.2030
 1.9480	 8.2260
 1.9490	 8.2520
 1.9500	 8.2790
 1.9510	 8.3050
 1.9520	 8.3300
 1.9530	 8.3550
 1.9540	 8.3820
 1.9550	 8.4090
 1.9560	 8.4360
 1.9570	 8.4660
 1.9580	 8.5000
 1.9590	 8.5320
 1.9600	 8.5670
 1.9610	 8.6020
 1.9620	 8.6350
 1.9630	 8.6680
 1.9640	 8.7090
 1.9650	 8.7480
 1.9660	 8.7860
 1.9670	 8.8250
 1.9680	 8.8630
 1.9690	 8.8980
 1.9700	 8.9350
 1.9710	 8.9740
 1.9720	 9.0140
 1.9730	 9.0530
 1.9740	 9.0950
 1.9750	 9.1430
 1.9760	 9.1890
 1.9770	 9.2370
 1.9780	 9.2870
 1.9790	 9.3350
 1.9800	 9.3820
 1.9810	 9.4310
 1.9820	 9.4810
 1.9830	 9.5310
 1.9840	 9.5840
 1.9850	 9.6360
 1.9860	 9.6880
 1.9870	 9.7420
 1.9880	 9.7940
 1.9890	 9.8470
 1.9900	 9.9010
 1.9910	 9.9550
 1.9920	10.0100
 1.9930	10.0680
 1.9940	10.1250
 1.9950	10.1810
 1.9960	10.2390
 1.9970	10.2970
 1.9980	10.3550
 1.9990	10.4110
 2.0000	10.4720
 2.0010	10.5340
 2.0020	10.5970
 2.0030	10.6600
 2.0040	10.7220
 2.0050	10.7840
 2.0060	10.8430
 2.0070	10.9040
 2.0080	10.9680
 2.0090	11.0280
 2.0100	11.0880
 2.0110	11.1490
 2.0120	11.2070
 2.0130	11.2660
 2.0140	11.3290
 2.0150	11.3920
 2.0160	11.4530
 2.0170	11.5150
 2.0180	11.5770
 2.0190	11.6380
 2.0200	11.7000
 2.0210	11.7640
 2.0220	11.8270
 2.0230	11.8860
 2.0240	11.9470
 2.0250	12.0100
 2.0260	12.0710
 2.0270	12.1320
 2.0280	12.1930
 2.0290	12.2510
 2.0300	12.3070
 2.0310	12.3650
 2.0320	12.4210
 2.0330	12.4770
 2.0340	12.5350
 2.0350	12.5910
 2.0360	12.6460
 2.0370	12.7000
 2.0380	12.7520
 2.0390	12.8050
 2.0400	12.8570
 2.0410	12.9100
 2.0420	12.9630
 2.0430	13.0200
 2.0440	13.0740
 2.0450	13.1290
 2.0460	13.1830
 2.0470	13.2360
 2.0480	13.2880
 2.0490	13.3350
 2.0500	13.3870
 2.0510	13.4380
 2.0520	13.4900
 2.0530	13.5470
 2.0540	13.6010
 2.0550	13.6520
 2.0560	13.7060
 2.0570	13.7580
 2.0580	13.8120
 2.0590	13.8660
 2.0600	13.9210
 2.0610	13.9770
 2.0620	14.0300
 2.0630	14.0860
 2.0640	14.1450
 2.0650	14.2030
 2.0660	14.2610
 2.0670	14.3190
 2.0680	14.3780
 2.0690	14.4350
 2.0700	14.4910
 2.0710	14.5490
 2.0720	14.6070
 2.0730	14.6650
 2.0740	14.7220
 2.0750	14.7800
 2.0760	14.8360
 2.0770	14.8890
 2.0780	14.9450
 2.0790	15.0010
 2.0800	15.0570
 2.0810	15.1140
 2.0820	15.1700
 2.0830	15.2250
 2.0840	15.2800
 2.0850	15.3360
 2.0860	15.3890
 2.0870	15.4410
 2.0880	15.4920
 2.0890	15.5430
 2.0900	15.5920
 2.0910	15.6430
 2.0920	15.6940
 2.0930	15.7440
 2.0940	15.7930
 2.0950	15.8430
 2.0960	15.8950
 2.0970	15.9480
 2.0980	16.0050
 2.0990	16.0570
 2.1000	16.1080
 2.1010	16.1580
 2.1020	16.2020
 2.1030	16.2490
 2.1040	16.2960
 2.1050	16.3430
 2.1060	16.3900
 2.1070	16.4370
 2.1080	16.4860
 2.1090	16.5350
 2.1100	16.5840
 2.1110	16.6340
 2.1120	16.6820
 2.1130	16.7280
 2.1140	16.7730
 2.1150	16.8160
 2.1160	16.8610
 2.1170	16.9090
 2.1180	16.9530
 2.1190	16.9970
 2.1200	17.0390
 2.1210	17.0750
 2.1220	17.1130
 2.1230	17.1550
 2.1240	17.1990
 2.1250	17.2410
 2.1260	17.2860
 2.1270	17.3260
 2.1280	17.3640
 2.1290	17.4000
 2.1300	17.4320
 2.1310	17.4650
 2.1320	17.4930
 2.1330	17.5250
 2.1340	17.5610
 2.1350	17.5920
 2.1360	17.6230
 2.1370	17.6530
 2.1380	17.6790
 2.1390	17.7040
 2.1400	17.7260
 2.1410	17.7490
 2.1420	17.7740
 2.1430	17.7980
 2.1440	17.8250
 2.1450	17.8590
 2.1460	17.8860
 2.1470	17.9100
 2.1480	17.9350
 2.1490	17.9570
 2.1500	17.9800
 2.1510	18.0040
 2.1520	18.0260
 2.1530	18.0450
 2.1540	18.0640
 2.1550	18.0840
 2.1560	18.1020
 2.1570	18.1180
 2.1580	18.1350
 2.1590	18.1530
 2.1600	18.1670
 2.1610	18.1850
 2.1620	18.2030
 2.1630	18.2180
 2.1640	18.2310
 2.1650	18.2450
 2.1660	18.2580
 2.1670	18.2710
 2.1680	18.2850
 2.1690	18.2980
 2.1700	18.3070
 2.1710	18.3200
 2.1720	18.3340
 2.1730	18.3480
 2.1740	18.3640
 2.1750	18.3770
 2.1760	18.3860
 2.1770	18.3990
 2.1780	18.4130
 2.1790	18.4280
 2.1800	18.4470
 2.1810	18.4640
 2.1820	18.4780
 2.1830	18.4940
 2.1840	18.5100
 2.1850	18.5250
 2.1860	18.5390
 2.1870	18.5540
 2.1880	18.5690
 2.1890	18.5830
 2.1900	18.5980
 2.1910	18.6160
 2.1920	18.6320
 2.1930	18.6460
 2.1940	18.6600
 2.1950	18.6730
 2.1960	18.6870
 2.1970	18.7050
 2.1980	18.7190
 2.1990	18.7330
 2.2000	18.7450
 2.2010	18.7490
 2.2020	18.7570
 2.2030	18.7630
 2.2040	18.7720
 2.2050	18.7810
 2.2060	18.7940
 2.2070	18.8040
 2.2080	18.8170
 2.2090	18.8220
 2.2100	18.8220
 2.2110	18.8250
 2.2120	18.8240
 2.2130	18.8280
 2.2140	18.8360
 2.2150	18.8400
 2.2160	18.8420
 2.2170	18.8440
 2.2180	18.8420
 2.2190	18.8410
 2.2200	18.8410
 2.2210	18.8380
 2.2220	18.8320
 2.2230	18.8260
 2.2240	18.8160
 2.2250	18.8080
 2.2260	18.8010
 2.2270	18.7900
 2.2280	18.7760
 2.2290	18.7620
 2.2300	18.7450
 2.2310	18.7270
 2.2320	18.7080
 2.2330	18.6860
 2.2340	18.6650
 2.2350	18.6400
 2.2360	18.6160
 2.2370	18.5950
 2.2380	18.5680
 2.2390	18.5390
 2.2400	18.5080
 2.2410	18.4730
 2.2420	18.4370
 2.2430	18.3990
 2.2440	18.3600
 2.2450	18.3200
 2.2460	18.2780
 2.2470	18.2340
 2.2480	18.1940
 2.2490	18.1540
 2.2500	18.1140
 2.2510	18.0790
 2.2520	18.0370
 2.2530	17.9880
 2.2540	17.9420
 2.2550	17.8910
 2.2560	17.8410
 2.2570	17.7890
 2.2580	17.7420
 2.2590	17.7000
 2.2600	17.6530
 2.2610	17.6050
 2.2620	17.5560
 2.2630	17.5020
 2.2640	17.4470
 2.2650	17.3970
 2.2660	17.3530
 2.2670	17.3010
 2.2680	17.2440
 2.2690	17.1940
 2.2700	17.1420
 2.2710	17.0960
 2.2720	17.0590
 2.2730	17.0180
 2.2740	16.9770
 2.2750	16.9360
 2.2760	16.8950
 2.2770	16.8520
 2.2780	16.8040
 2.2790	16.7630
 2.2800	16.7260
 2.2810	16.6830
 2.2820	16.6410
 2.2830	16.5990
 2.2840	16.5520
 2.2850	16.5070
 2.2860	16.4650
 2.2870	16.4210
 2.2880	16.3730
 2.2890	16.3280
 2.2900	16.2850
 2.2910	16.2420
 2.2920	16.2050
 2.2930	16.1590
 2.2940	16.1070
 2.2950	16.0580
 2.2960	16.0100
 2.2970	15.9590
 2.2980	15.9080
 2.2990	15.8590
 2.3000	15.8060
 2.3010	15.7510
 2.3020	15.7050
 2.3030	15.6570
 2.3040	15.6080
 2.3050	15.5630
 2.3060	15.5210
 2.3070	15.4810
 2.3080	15.4430
 2.3090	15.4040
 2.3100	15.3600
 2.3110	15.3140
 2.3120	15.2770
 2.3130	15.2420
 2.3140	15.2100
 2.3150	15.1860
 2.3160	15.1590
 2.3170	15.1320
 2.3180	15.1050
 2.3190	15.0830
 2.3200	15.0510
 2.3210	15.0140
 2.3220	14.9770
 2.3230	14.9330
 2.3240	14.8950
 2.3250	14.8600
 2.3260	14.8260
 2.3270	14.7980
 2.3280	14.7630
 2.3290	14.7270
 2.3300	14.6860
 2.3310	14.6360
 2.3320	14.5900
 2.3330	14.5430
 2.3340	14.4960
 2.3350	14.4490
 2.3360	14.3990
 2.3370	14.3460
 2.3380	14.2950
 2.3390	14.2470
 2.3400	14.1980
 2.3410	14.1510
 2.3420	14.1040
 2.3430	14.0520
 2.3440	14.0050
 2.3450	13.9640
 2.3460	13.9190
 2.3470	13.8710
 2.3480	13.8280
 2.3490	13.7880
 2.3500	13.7450
 2.3510	13.6980
 2.3520	13.6610
 2.3530	13.6250
 2.3540	13.5910
 2.3550	13.5690
 2.3560	13.5450
 2.3570	13.5050
 2.3580	13.4580
 2.3590	13.4090
 2.3600	13.3590
 2.3610	13.3120
 2.3620	13.2760
 2.3630	13.2390
 2.3640	13.1950
 2.3650	13.1590
 2.3660	13.1100
 2.3670	13.0640
 2.3680	13.0320
 2.3690	12.9880
 2.3700	12.9420
 2.3710	12.9010
 2.3720	12.8550
 2.3730	12.8110
 2.3740	12.7770
 2.3750	12.7330
 2.3760	12.6850
 2.3770	12.6460
 2.3780	12.6110
 2.3790	12.5820
 2.3800	12.5400
 2.3810	12.4940
 2.3820	12.4490
 2.3830	12.4040
 2.3840	12.3740
 2.3850	12.3370
 2.3860	12.2860
 2.3870	12.2330
 2.3880	12.1760
 2.3890	12.1280
 2.3900	12.0930
 2.3910	12.0510
 2.3920	12.0060
 2.3930	11.9640
 2.3940	11.9190
 2.3950	11.8750
 2.3960	11.8370
 2.3970	11.7990
 2.3980	11.7510
 2.3990	11.7170
 2.4000	11.6860
 2.4010	11.6420
 2.4020	11.6080
 2.4030	11.5660
 2.4040	11.5170
 2.4050	11.4740
 2.4060	11.4170
 2.4070	11.3610
 2.4080	11.3110
 2.4090	11.2720
 2.4100	11.2430
 2.4110	11.2070
 2.4120	11.1740
 2.4130	11.1230
 2.4140	11.0700
 2.4150	11.0350
 2.4160	10.9870
 2.4170	10.9590
 2.4180	10.9370
 2.4190	10.8920
 2.4200	10.8650
 2.4210	10.8240
 2.4220	10.7790
 2.4230	10.7460
 2.4240	10.6970
 2.4250	10.6580
 2.4260	10.6190
 2.4270	10.5720
 2.4280	10.5370
 2.4290	10.4980
 2.4300	10.4620
 2.4310	10.4400
 2.4320	10.3990
 2.4330	10.3450
 2.4340	10.3020
 2.4350	10.2630
 2.4360	10.2310
 2.4370	10.2010
 2.4380	10.1580
 2.4390	10.0970
 2.4400	10.0390
 2.4410	10.0050
 2.4420	 9.9700
 2.4430	 9.9320
 2.4440	 9.9040
 2.4450	 9.8640
 2.4460	 9.8160
 2.4470	 9.7840
 2.4480	 9.7440
 2.4490	 9.6970
 2.4500	 9.6650
 2.4510	 9.6390
 2.4520	 9.6160
 2.4530	 9.5950
 2.4540	 9.5940
 2.4550	 9.5830
 2.4560	 9.5460
 2.4570	 9.5080
 2.4580	 9.4540
 2.4590	 9.3960
 2.4600	 9.3520
 2.4610	 9.3330
 2.4620	 9.3230
 2.4630	 9.2990
 2.4640	 9.2880
 2.4650	 9.2600
 2.4660	 9.2140
 2.4670	 9.1740
 2.4680	 9.1310
 2.4690	 9.1000
 2.4700	 9.0780
 2.4710	 9.0580
 2.4720	 9.0450
 2.4730	 9.0620
 2.4740	 9.0440
 2.4750	 9.0130
 2.4760	 8.9810
 2.4770	 8.8980
 2.4780	 8.8550
 2.4790	 8.8520
 2.4800	 8.8240
 2.4810	 8.8030
 2.4820	 8.7820
 2.4830	 8.7540
 2.4840	 8.7700
 2.4850	 8.7850
 2.4860	 8.7840
 2.4870	 8.7650
 2.4880	 8.7580
 2.4890	 8.7470
 2.4900	 8.6900
 2.4910	 8.6660
 2.4920	 8.6490
 2.4930	 8.6300
 2.4940	 8.6480
 2.4950	 8.6760
 2.4960	 8.6950
 2.4970	 8.6700
 2.4980	 8.6350
 2.4990	 8.5770
 2.5000	 8.4960
