Name: Quercus lobata 3
Type: vegetation
Class: Tree
Genus: Quercus
Species: lobata
Sample No.: VH089
Owner: UCSB
Wavelength Range: TIR
Origin: 34.7151; -120.0588; WGS84
Collection Date: 4/21/2013
Description: Samples were collected as part of the HyspIRI Airborne Campaign. 48 individual plants were sampled in three times in 2013 - spring  summer  and fall. The name of the sample includes a 1  2  or 3 which references a different individual of the species. Samples were taken to JPL and processed within 48 hours of collection. The same leaves were processed in the Nicolet and then measured using the ASD.
Measurement: Hemispherical reflectance
First Column: X
Second Column: Y
X Units: Wavelength (micrometers)
Y Units: Reflectance (percentage)
First X Value: 2.501
Last X Value: 15.387
Number of X Values: 1737
Additional Information: vegetation.tree.quercus.lobata.tir.vh089.ucsb.nicolet.ancillary.txt

 2.5010	10.4630
 2.5030	10.2930
 2.5040	10.2390
 2.5050	10.3300
 2.5060	10.4990
 2.5070	10.3380
 2.5090	10.3580
 2.5100	10.3660
 2.5110	10.2250
 2.5120	10.2280
 2.5140	10.3340
 2.5150	10.3340
 2.5160	10.2750
 2.5170	10.2440
 2.5180	10.3000
 2.5200	10.3190
 2.5210	10.2460
 2.5220	10.1900
 2.5230	10.3330
 2.5250	10.2300
 2.5260	10.1470
 2.5270	10.1680
 2.5280	10.2350
 2.5290	10.2660
 2.5310	10.3300
 2.5320	10.3600
 2.5330	10.4600
 2.5340	10.4700
 2.5360	10.3520
 2.5370	10.2670
 2.5380	10.2820
 2.5390	10.1640
 2.5410	10.1950
 2.5420	10.2960
 2.5430	10.4020
 2.5440	10.2980
 2.5460	10.2340
 2.5470	10.2840
 2.5480	10.3170
 2.5490	10.2900
 2.5510	10.4210
 2.5520	10.4310
 2.5530	10.4750
 2.5540	10.4090
 2.5560	10.3380
 2.5570	10.2750
 2.5580	10.3140
 2.5590	10.3480
 2.5610	10.4140
 2.5620	10.4340
 2.5630	10.4360
 2.5640	10.3270
 2.5660	10.3720
 2.5670	10.3270
 2.5680	10.3630
 2.5700	10.2910
 2.5710	10.2850
 2.5720	10.3070
 2.5730	10.3560
 2.5750	10.2520
 2.5760	10.2920
 2.5770	10.3590
 2.5790	10.3110
 2.5800	10.2930
 2.5810	10.3400
 2.5820	10.2670
 2.5840	10.2130
 2.5850	10.2390
 2.5860	10.4810
 2.5880	10.5360
 2.5890	10.3960
 2.5900	10.2820
 2.5910	10.2830
 2.5930	10.2340
 2.5940	10.2290
 2.5950	10.1010
 2.5970	10.1100
 2.5980	10.1450
 2.5990	10.2160
 2.6000	10.1990
 2.6020	10.1790
 2.6030	10.1170
 2.6040	10.1900
 2.6060	10.1400
 2.6070	10.1360
 2.6080	10.0650
 2.6100	 9.9520
 2.6110	 9.8670
 2.6120	 9.9600
 2.6140	10.0320
 2.6150	10.1160
 2.6160	10.0580
 2.6180	 9.9990
 2.6190	 9.8820
 2.6200	 9.9790
 2.6220	 9.9130
 2.6230	 9.7640
 2.6240	 9.7100
 2.6260	 9.8430
 2.6270	 9.8660
 2.6280	 9.8300
 2.6300	 9.6940
 2.6310	 9.6870
 2.6320	 9.6570
 2.6340	 9.7000
 2.6350	 9.6380
 2.6360	 9.6070
 2.6380	 9.4810
 2.6390	 9.4580
 2.6400	 9.5190
 2.6420	 9.6270
 2.6430	 9.5710
 2.6440	 9.5540
 2.6460	 9.5820
 2.6470	 9.6140
 2.6480	 9.5500
 2.6500	 9.4660
 2.6510	 9.3490
 2.6520	 9.3550
 2.6540	 9.3450
 2.6550	 9.3150
 2.6560	 9.2490
 2.6580	 9.2740
 2.6590	 9.2420
 2.6610	 9.1650
 2.6620	 9.0500
 2.6630	 9.2130
 2.6650	 9.2410
 2.6660	 9.2200
 2.6670	 9.1600
 2.6690	 9.0540
 2.6700	 9.0080
 2.6720	 9.0980
 2.6730	 9.0340
 2.6740	 9.0500
 2.6760	 9.0240
 2.6770	 8.9690
 2.6780	 8.8790
 2.6800	 8.8940
 2.6810	 8.7540
 2.6830	 8.8130
 2.6840	 8.8480
 2.6850	 8.8280
 2.6870	 8.7700
 2.6880	 8.8440
 2.6900	 8.8040
 2.6910	 8.7820
 2.6920	 8.6990
 2.6940	 8.6120
 2.6950	 8.4810
 2.6970	 8.5030
 2.6980	 8.5100
 2.6990	 8.5020
 2.7010	 8.4020
 2.7020	 8.4290
 2.7040	 8.4180
 2.7050	 8.3660
 2.7060	 8.2530
 2.7080	 8.2020
 2.7090	 8.0460
 2.7110	 7.9890
 2.7120	 7.9730
 2.7130	 7.9480
 2.7150	 7.8940
 2.7160	 7.8620
 2.7180	 7.7360
 2.7190	 7.7210
 2.7210	 7.6230
 2.7220	 7.5250
 2.7230	 7.4930
 2.7250	 7.4680
 2.7260	 7.3520
 2.7280	 7.2720
 2.7290	 7.0950
 2.7310	 7.1100
 2.7320	 7.0730
 2.7330	 6.9530
 2.7350	 6.7460
 2.7360	 6.6480
 2.7380	 6.6130
 2.7390	 6.6870
 2.7410	 6.5850
 2.7420	 6.4840
 2.7440	 6.4450
 2.7450	 6.4110
 2.7470	 6.2580
 2.7480	 6.3450
 2.7490	 6.2980
 2.7510	 6.2400
 2.7520	 6.0800
 2.7540	 6.0130
 2.7550	 6.0500
 2.7570	 6.1310
 2.7580	 5.9930
 2.7600	 5.8750
 2.7610	 5.6800
 2.7630	 5.6810
 2.7640	 5.7730
 2.7660	 5.8190
 2.7670	 5.7610
 2.7680	 5.8090
 2.7700	 5.7230
 2.7710	 5.7070
 2.7730	 5.6820
 2.7740	 5.5510
 2.7760	 5.4530
 2.7770	 5.5810
 2.7790	 5.5530
 2.7800	 5.5360
 2.7820	 5.4990
 2.7830	 5.5720
 2.7850	 5.3710
 2.7860	 5.3860
 2.7880	 5.4440
 2.7890	 5.3790
 2.7910	 5.3090
 2.7920	 5.3350
 2.7940	 5.2750
 2.7950	 5.3030
 2.7970	 5.2770
 2.7980	 5.2550
 2.8000	 5.1290
 2.8010	 5.1630
 2.8030	 5.2090
 2.8040	 5.2860
 2.8060	 5.1790
 2.8070	 5.1770
 2.8090	 5.1390
 2.8110	 5.2100
 2.8120	 5.1700
 2.8140	 5.1260
 2.8150	 5.0400
 2.8170	 5.0800
 2.8180	 5.0630
 2.8200	 5.0940
 2.8210	 5.0820
 2.8230	 5.0840
 2.8240	 4.9370
 2.8260	 4.9030
 2.8270	 4.7260
 2.8290	 4.8020
 2.8300	 4.9340
 2.8320	 5.0120
 2.8340	 4.9670
 2.8350	 4.9550
 2.8370	 4.8080
 2.8380	 4.8120
 2.8400	 4.9420
 2.8410	 5.0150
 2.8430	 4.9480
 2.8440	 4.9250
 2.8460	 4.8330
 2.8480	 4.9260
 2.8490	 4.8370
 2.8510	 4.8810
 2.8520	 4.9230
 2.8540	 5.0370
 2.8550	 5.0090
 2.8570	 4.9130
 2.8590	 4.7860
 2.8600	 4.8980
 2.8620	 4.8430
 2.8630	 4.8570
 2.8650	 4.7870
 2.8660	 4.7660
 2.8680	 4.7500
 2.8700	 4.7890
 2.8710	 4.7440
 2.8730	 4.7070
 2.8740	 4.6460
 2.8760	 4.7520
 2.8780	 4.7150
 2.8790	 4.7280
 2.8810	 4.8190
 2.8820	 4.7510
 2.8840	 4.6190
 2.8860	 4.7250
 2.8870	 4.7430
 2.8890	 4.8460
 2.8900	 4.8430
 2.8920	 4.8990
 2.8940	 4.8610
 2.8950	 4.8230
 2.8970	 4.6500
 2.8980	 4.7040
 2.9000	 4.7640
 2.9020	 4.9070
 2.9030	 4.8830
 2.9050	 4.8590
 2.9070	 4.7530
 2.9080	 4.7260
 2.9100	 4.6210
 2.9120	 4.5600
 2.9130	 4.6110
 2.9150	 4.8050
 2.9160	 4.8120
 2.9180	 4.8440
 2.9200	 4.7960
 2.9210	 4.7350
 2.9230	 4.6470
 2.9250	 4.7020
 2.9260	 4.6820
 2.9280	 4.7000
 2.9300	 4.6750
 2.9310	 4.7890
 2.9330	 4.7750
 2.9350	 4.7920
 2.9360	 4.7960
 2.9380	 4.8440
 2.9400	 4.8470
 2.9410	 4.9050
 2.9430	 4.7170
 2.9450	 4.6280
 2.9460	 4.6370
 2.9480	 4.7480
 2.9500	 4.8260
 2.9510	 4.8070
 2.9530	 4.6570
 2.9550	 4.6670
 2.9560	 4.6620
 2.9580	 4.5670
 2.9600	 4.5570
 2.9610	 4.8180
 2.9630	 4.6310
 2.9650	 4.4950
 2.9660	 4.4610
 2.9680	 4.5340
 2.9700	 4.5950
 2.9720	 4.7320
 2.9730	 4.5390
 2.9750	 3.7480
 2.9770	 3.6710
 2.9780	 4.1490
 2.9800	 4.1130
 2.9820	 4.3500
 2.9840	 4.7250
 2.9850	 4.7030
 2.9870	 4.5290
 2.9890	 4.6600
 2.9900	 4.8590
 2.9920	 5.0420
 2.9940	 4.7540
 2.9960	 4.5020
 2.9970	 4.7460
 2.9990	 4.9320
 3.0010	 5.1010
 3.0030	 5.2190
 3.0040	 4.9810
 3.0060	 4.6990
 3.0080	 4.5720
 3.0100	 4.6620
 3.0110	 4.6590
 3.0130	 4.6060
 3.0150	 4.7750
 3.0170	 4.8180
 3.0180	 4.7820
 3.0200	 5.0420
 3.0220	 5.0830
 3.0240	 5.0340
 3.0250	 4.8320
 3.0270	 4.8150
 3.0290	 4.9300
 3.0310	 4.8630
 3.0320	 4.6330
 3.0340	 4.5830
 3.0360	 4.6660
 3.0380	 4.6900
 3.0400	 4.7410
 3.0410	 5.0370
 3.0430	 4.7650
 3.0450	 4.3980
 3.0470	 4.6920
 3.0480	 5.0780
 3.0500	 4.4720
 3.0520	 3.8300
 3.0540	 4.2090
 3.0560	 4.7090
 3.0570	 4.6290
 3.0590	 4.8230
 3.0610	 5.1360
 3.0630	 4.9190
 3.0650	 4.7560
 3.0660	 4.8290
 3.0680	 4.9380
 3.0700	 5.0540
 3.0720	 4.8980
 3.0740	 4.9620
 3.0760	 5.0340
 3.0770	 4.9840
 3.0790	 4.8570
 3.0810	 4.9080
 3.0830	 4.9260
 3.0850	 5.0890
 3.0870	 5.0640
 3.0880	 4.8800
 3.0900	 4.8030
 3.0920	 4.8740
 3.0940	 4.9340
 3.0960	 5.0270
 3.0980	 5.0740
 3.0990	 5.1930
 3.1010	 5.1390
 3.1030	 5.0850
 3.1050	 5.0990
 3.1070	 5.1860
 3.1090	 5.2400
 3.1110	 5.2460
 3.1120	 5.1070
 3.1140	 5.1230
 3.1160	 5.0970
 3.1180	 5.1340
 3.1200	 5.1660
 3.1220	 5.1170
 3.1240	 4.9980
 3.1260	 5.0840
 3.1270	 5.1730
 3.1290	 5.2580
 3.1310	 5.2200
 3.1330	 5.1970
 3.1350	 5.2560
 3.1370	 5.3830
 3.1390	 5.3940
 3.1410	 5.2720
 3.1430	 5.1500
 3.1450	 5.2360
 3.1460	 5.1170
 3.1480	 5.2180
 3.1500	 5.3040
 3.1520	 5.3410
 3.1540	 5.2590
 3.1560	 5.1430
 3.1580	 5.1120
 3.1600	 5.3580
 3.1620	 5.4260
 3.1640	 5.2390
 3.1660	 5.4090
 3.1680	 5.8600
 3.1700	 5.6680
 3.1710	 5.6370
 3.1730	 5.2220
 3.1750	 5.0990
 3.1770	 5.2380
 3.1790	 5.3150
 3.1810	 4.9300
 3.1830	 5.4930
 3.1850	 6.1280
 3.1870	 5.9160
 3.1890	 5.7290
 3.1910	 5.5870
 3.1930	 5.4800
 3.1950	 5.6320
 3.1970	 5.7060
 3.1990	 5.7980
 3.2010	 5.7930
 3.2030	 5.7230
 3.2050	 5.6160
 3.2070	 5.5440
 3.2090	 5.6030
 3.2110	 5.7740
 3.2130	 5.8650
 3.2150	 5.8090
 3.2170	 5.7130
 3.2190	 5.7400
 3.2210	 5.7500
 3.2230	 5.7850
 3.2250	 5.7850
 3.2270	 5.8530
 3.2290	 5.8010
 3.2310	 5.8280
 3.2330	 5.8600
 3.2350	 5.9090
 3.2370	 5.8530
 3.2390	 5.8820
 3.2410	 5.9080
 3.2430	 5.9590
 3.2450	 6.0350
 3.2470	 6.0940
 3.2490	 6.0350
 3.2510	 6.0650
 3.2530	 6.0090
 3.2550	 5.9970
 3.2570	 5.8620
 3.2590	 5.9410
 3.2610	 6.0780
 3.2630	 6.0640
 3.2650	 6.0820
 3.2670	 6.1040
 3.2690	 6.1630
 3.2720	 6.2960
 3.2740	 6.2310
 3.2760	 6.1790
 3.2780	 6.1800
 3.2800	 6.2270
 3.2820	 6.2110
 3.2840	 6.2400
 3.2860	 6.2760
 3.2880	 6.2870
 3.2900	 6.2900
 3.2920	 6.3680
 3.2940	 6.3810
 3.2960	 6.4050
 3.2990	 6.3440
 3.3010	 6.3560
 3.3030	 6.3180
 3.3050	 6.2940
 3.3070	 6.2820
 3.3090	 6.3940
 3.3110	 6.4250
 3.3130	 6.3880
 3.3150	 6.3550
 3.3180	 6.4920
 3.3200	 6.5060
 3.3220	 6.4920
 3.3240	 6.4370
 3.3260	 6.4230
 3.3280	 6.4070
 3.3300	 6.5080
 3.3330	 6.4150
 3.3350	 6.3640
 3.3370	 6.4620
 3.3390	 6.6170
 3.3410	 6.6040
 3.3430	 6.5340
 3.3450	 6.4490
 3.3480	 6.4250
 3.3500	 6.4430
 3.3520	 6.4250
 3.3540	 6.4020
 3.3560	 6.4200
 3.3580	 6.3120
 3.3610	 6.3450
 3.3630	 6.4360
 3.3650	 6.4160
 3.3670	 6.2770
 3.3690	 6.1560
 3.3720	 6.1030
 3.3740	 6.1570
 3.3760	 6.1110
 3.3780	 5.9980
 3.3800	 5.9720
 3.3830	 6.0420
 3.3850	 5.9940
 3.3870	 5.9310
 3.3890	 5.7600
 3.3910	 5.7320
 3.3940	 5.8260
 3.3960	 5.9580
 3.3980	 5.9370
 3.4000	 5.9570
 3.4020	 5.9750
 3.4050	 5.9400
 3.4070	 5.8570
 3.4090	 5.9990
 3.4110	 6.0420
 3.4140	 6.1000
 3.4160	 6.2210
 3.4180	 6.4100
 3.4200	 6.5070
 3.4230	 6.7020
 3.4250	 6.9700
 3.4270	 7.2590
 3.4290	 7.3100
 3.4320	 7.1480
 3.4340	 6.9450
 3.4360	 6.8240
 3.4390	 6.7270
 3.4410	 6.7950
 3.4430	 6.7860
 3.4450	 6.7700
 3.4480	 6.7270
 3.4500	 6.7320
 3.4520	 6.7430
 3.4550	 6.7680
 3.4570	 6.7940
 3.4590	 6.8010
 3.4620	 6.7260
 3.4640	 6.7290
 3.4660	 6.7630
 3.4680	 6.7440
 3.4710	 6.6900
 3.4730	 6.7580
 3.4750	 6.8170
 3.4780	 6.7890
 3.4800	 6.6760
 3.4820	 6.6070
 3.4850	 6.6230
 3.4870	 6.6890
 3.4890	 6.5820
 3.4920	 6.5520
 3.4940	 6.5760
 3.4970	 6.6000
 3.4990	 6.5860
 3.5010	 6.7080
 3.5040	 6.8110
 3.5060	 7.0140
 3.5080	 7.3000
 3.5110	 7.6170
 3.5130	 7.6750
 3.5160	 7.6110
 3.5180	 7.5510
 3.5200	 7.5440
 3.5230	 7.4960
 3.5250	 7.4950
 3.5270	 7.5640
 3.5300	 7.5440
 3.5320	 7.5030
 3.5350	 7.6010
 3.5370	 7.6690
 3.5400	 7.7450
 3.5420	 7.6770
 3.5440	 7.6630
 3.5470	 7.7010
 3.5490	 7.6770
 3.5520	 7.6410
 3.5540	 7.7520
 3.5570	 7.8060
 3.5590	 7.8370
 3.5610	 7.7630
 3.5640	 7.7120
 3.5660	 7.6780
 3.5690	 7.8160
 3.5710	 7.8890
 3.5740	 7.8690
 3.5760	 7.8560
 3.5790	 7.9110
 3.5810	 7.9190
 3.5840	 7.8830
 3.5860	 7.8120
 3.5890	 7.8800
 3.5910	 7.8740
 3.5930	 7.7900
 3.5960	 7.8000
 3.5980	 7.8500
 3.6010	 7.8850
 3.6030	 7.9430
 3.6060	 7.9300
 3.6080	 7.9400
 3.6110	 7.9640
 3.6140	 7.9990
 3.6160	 7.9760
 3.6190	 8.0300
 3.6210	 7.9760
 3.6240	 7.9440
 3.6260	 7.9060
 3.6290	 7.9170
 3.6310	 7.9300
 3.6340	 7.9090
 3.6360	 7.9130
 3.6390	 7.9730
 3.6410	 7.9550
 3.6440	 7.9310
 3.6470	 7.8850
 3.6490	 7.9440
 3.6520	 7.9810
 3.6540	 7.9690
 3.6570	 7.9350
 3.6590	 7.9580
 3.6620	 7.9830
 3.6650	 7.9820
 3.6670	 7.8670
 3.6700	 7.8680
 3.6720	 7.9340
 3.6750	 8.0300
 3.6780	 8.0020
 3.6800	 7.9780
 3.6830	 8.0170
 3.6850	 8.0660
 3.6880	 8.0290
 3.6910	 7.9820
 3.6930	 7.9850
 3.6960	 7.9730
 3.6990	 7.9710
 3.7010	 8.0770
 3.7040	 8.1000
 3.7060	 8.0540
 3.7090	 8.0470
 3.7120	 8.0550
 3.7140	 8.0400
 3.7170	 8.1060
 3.7200	 8.1220
 3.7220	 8.1230
 3.7250	 8.0770
 3.7280	 8.1280
 3.7300	 8.1480
 3.7330	 8.1590
 3.7360	 8.1340
 3.7390	 8.2320
 3.7410	 8.2320
 3.7440	 8.2000
 3.7470	 8.2110
 3.7490	 8.2360
 3.7520	 8.2230
 3.7550	 8.2600
 3.7580	 8.1460
 3.7600	 8.1490
 3.7630	 8.2200
 3.7660	 8.2810
 3.7680	 8.2500
 3.7710	 8.1940
 3.7740	 8.2360
 3.7770	 8.2680
 3.7790	 8.1920
 3.7820	 8.2040
 3.7850	 8.2740
 3.7880	 8.2610
 3.7900	 8.2210
 3.7930	 8.2650
 3.7960	 8.3090
 3.7990	 8.3410
 3.8020	 8.2900
 3.8040	 8.3040
 3.8070	 8.3230
 3.8100	 8.3170
 3.8130	 8.2510
 3.8160	 8.2590
 3.8180	 8.3110
 3.8210	 8.3510
 3.8240	 8.3340
 3.8270	 8.3760
 3.8300	 8.3070
 3.8330	 8.3040
 3.8350	 8.4300
 3.8380	 8.4740
 3.8410	 8.4420
 3.8440	 8.4490
 3.8470	 8.4610
 3.8500	 8.4250
 3.8520	 8.3500
 3.8550	 8.3670
 3.8580	 8.4160
 3.8610	 8.4440
 3.8640	 8.4500
 3.8670	 8.4460
 3.8700	 8.4370
 3.8730	 8.5430
 3.8750	 8.5830
 3.8780	 8.4610
 3.8810	 8.4140
 3.8840	 8.4680
 3.8870	 8.4430
 3.8900	 8.4800
 3.8930	 8.5390
 3.8960	 8.4970
 3.8990	 8.4950
 3.9020	 8.5690
 3.9050	 8.5650
 3.9080	 8.5640
 3.9110	 8.5240
 3.9140	 8.4930
 3.9160	 8.4610
 3.9190	 8.4900
 3.9220	 8.4930
 3.9250	 8.5180
 3.9280	 8.5150
 3.9310	 8.5560
 3.9340	 8.5370
 3.9370	 8.5090
 3.9400	 8.4850
 3.9430	 8.4880
 3.9460	 8.5360
 3.9490	 8.5830
 3.9520	 8.5260
 3.9550	 8.5330
 3.9580	 8.5440
 3.9610	 8.5410
 3.9640	 8.5820
 3.9670	 8.5830
 3.9700	 8.5810
 3.9730	 8.5950
 3.9770	 8.6010
 3.9800	 8.6080
 3.9830	 8.5910
 3.9860	 8.6290
 3.9890	 8.6480
 3.9920	 8.6110
 3.9950	 8.5650
 3.9980	 8.5630
 4.0010	 8.5340
 4.0040	 8.5560
 4.0070	 8.5450
 4.0100	 8.5480
 4.0130	 8.5550
 4.0170	 8.6040
 4.0200	 8.5930
 4.0230	 8.5510
 4.0260	 8.5610
 4.0290	 8.6010
 4.0320	 8.5920
 4.0350	 8.6340
 4.0380	 8.6210
 4.0420	 8.6180
 4.0450	 8.6170
 4.0480	 8.6830
 4.0510	 8.6830
 4.0540	 8.6540
 4.0570	 8.6290
 4.0610	 8.6230
 4.0640	 8.6490
 4.0670	 8.7100
 4.0700	 8.7120
 4.0730	 8.6870
 4.0770	 8.6550
 4.0800	 8.6780
 4.0830	 8.6570
 4.0860	 8.7170
 4.0890	 8.7260
 4.0930	 8.6560
 4.0960	 8.6380
 4.0990	 8.6940
 4.1020	 8.7190
 4.1060	 8.7270
 4.1090	 8.7510
 4.1120	 8.7520
 4.1150	 8.6930
 4.1190	 8.6540
 4.1220	 8.6310
 4.1250	 8.7000
 4.1280	 8.7250
 4.1320	 8.7000
 4.1350	 8.6800
 4.1380	 8.6760
 4.1420	 8.6950
 4.1450	 8.7350
 4.1480	 8.7260
 4.1520	 8.7290
 4.1550	 8.7420
 4.1580	 8.7850
 4.1620	 8.7190
 4.1650	 8.6960
 4.1680	 8.7220
 4.1720	 8.6910
 4.1750	 8.6680
 4.1780	 8.7390
 4.1820	 8.7770
 4.1850	 8.7680
 4.1890	 8.7490
 4.1920	 8.7190
 4.1950	 8.7230
 4.1990	 8.7670
 4.2020	 8.7710
 4.2060	 8.7710
 4.2090	 8.8060
 4.2120	 8.9310
 4.2160	 8.8660
 4.2190	 8.8400
 4.2230	 8.8680
 4.2260	 8.9140
 4.2300	 8.9600
 4.2330	 8.8430
 4.2360	 8.5700
 4.2400	 8.7290
 4.2430	 8.7880
 4.2470	 8.7140
 4.2500	 8.7450
 4.2540	 8.6730
 4.2570	 8.6380
 4.2610	 8.8140
 4.2640	 8.8980
 4.2680	 8.9580
 4.2710	 8.8910
 4.2750	 8.8150
 4.2780	 8.8190
 4.2820	 8.8210
 4.2850	 8.8510
 4.2890	 8.8750
 4.2930	 8.7810
 4.2960	 8.8290
 4.3000	 8.9180
 4.3030	 8.8080
 4.3070	 8.6940
 4.3100	 8.7160
 4.3140	 8.7700
 4.3180	 8.7460
 4.3210	 8.7330
 4.3250	 8.7710
 4.3280	 8.7270
 4.3320	 8.6750
 4.3360	 8.5960
 4.3390	 8.5650
 4.3430	 8.5900
 4.3470	 8.6090
 4.3500	 8.5790
 4.3540	 8.5760
 4.3570	 8.5710
 4.3610	 8.5540
 4.3650	 8.5820
 4.3680	 8.5650
 4.3720	 8.5100
 4.3760	 8.5290
 4.3800	 8.5560
 4.3830	 8.5160
 4.3870	 8.4800
 4.3910	 8.5130
 4.3940	 8.4850
 4.3980	 8.4700
 4.4020	 8.5210
 4.4060	 8.5480
 4.4090	 8.4880
 4.4130	 8.4590
 4.4170	 8.4770
 4.4210	 8.4670
 4.4240	 8.3990
 4.4280	 8.3640
 4.4320	 8.3710
 4.4360	 8.3760
 4.4400	 8.3730
 4.4430	 8.3690
 4.4470	 8.4210
 4.4510	 8.4520
 4.4550	 8.3740
 4.4590	 8.3260
 4.4620	 8.3750
 4.4660	 8.3750
 4.4700	 8.3070
 4.4740	 8.3130
 4.4780	 8.3360
 4.4820	 8.3630
 4.4860	 8.3460
 4.4900	 8.3430
 4.4930	 8.3580
 4.4970	 8.3440
 4.5010	 8.3150
 4.5050	 8.3490
 4.5090	 8.3920
 4.5130	 8.3540
 4.5170	 8.3250
 4.5210	 8.3330
 4.5250	 8.3190
 4.5290	 8.3150
 4.5330	 8.3140
 4.5370	 8.3450
 4.5410	 8.3400
 4.5450	 8.3140
 4.5490	 8.3530
 4.5530	 8.3600
 4.5570	 8.2510
 4.5610	 8.2570
 4.5650	 8.2720
 4.5690	 8.2670
 4.5730	 8.3030
 4.5770	 8.2770
 4.5810	 8.2390
 4.5850	 8.2360
 4.5890	 8.2540
 4.5930	 8.2350
 4.5970	 8.1470
 4.6010	 8.1120
 4.6050	 8.1750
 4.6090	 8.1860
 4.6130	 8.1410
 4.6170	 8.1040
 4.6220	 8.1700
 4.6260	 8.2120
 4.6300	 8.2260
 4.6340	 8.2170
 4.6380	 8.1760
 4.6420	 8.1830
 4.6460	 8.1590
 4.6510	 8.1570
 4.6550	 8.1780
 4.6590	 8.1780
 4.6630	 8.1490
 4.6670	 8.1350
 4.6720	 8.1710
 4.6760	 8.1540
 4.6800	 8.1180
 4.6840	 8.1060
 4.6880	 8.1650
 4.6930	 8.1860
 4.6970	 8.1130
 4.7010	 8.0710
 4.7050	 8.0500
 4.7100	 8.1140
 4.7140	 8.1570
 4.7180	 8.1130
 4.7230	 8.1190
 4.7270	 8.1550
 4.7310	 8.1340
 4.7360	 8.0960
 4.7400	 8.1100
 4.7440	 8.1070
 4.7490	 8.1150
 4.7530	 8.1220
 4.7570	 8.0980
 4.7620	 8.0710
 4.7660	 8.0800
 4.7700	 8.1260
 4.7750	 8.1040
 4.7790	 8.1210
 4.7840	 8.1270
 4.7880	 8.1070
 4.7920	 8.0370
 4.7970	 8.0750
 4.8010	 8.0800
 4.8060	 8.0110
 4.8100	 8.0490
 4.8150	 8.1180
 4.8190	 8.1350
 4.8240	 8.0730
 4.8280	 8.1160
 4.8330	 8.1890
 4.8370	 8.1710
 4.8420	 8.1130
 4.8460	 8.1220
 4.8510	 8.1140
 4.8550	 8.0670
 4.8600	 8.0760
 4.8640	 8.1090
 4.8690	 8.1230
 4.8730	 8.1680
 4.8780	 8.1360
 4.8830	 8.1100
 4.8870	 8.1400
 4.8920	 8.1660
 4.8960	 8.1250
 4.9010	 8.1590
 4.9060	 8.1740
 4.9100	 8.1080
 4.9150	 8.0160
 4.9200	 8.0300
 4.9240	 8.0950
 4.9290	 8.1550
 4.9340	 8.1740
 4.9380	 8.1250
 4.9430	 8.0860
 4.9480	 8.0790
 4.9530	 8.0970
 4.9570	 8.1060
 4.9620	 8.1230
 4.9670	 8.1820
 4.9720	 8.1710
 4.9760	 8.1540
 4.9810	 8.1800
 4.9860	 8.2250
 4.9910	 8.1730
 4.9960	 8.1770
 5.0000	 8.2010
 5.0050	 8.1900
 5.0100	 8.1510
 5.0150	 8.1850
 5.0200	 8.2150
 5.0250	 8.1960
 5.0290	 8.1760
 5.0340	 8.2080
 5.0390	 8.2340
 5.0440	 8.2650
 5.0490	 8.2720
 5.0540	 8.2380
 5.0590	 8.2290
 5.0640	 8.2480
 5.0690	 8.1940
 5.0740	 8.2210
 5.0790	 8.2820
 5.0840	 8.2900
 5.0890	 8.2690
 5.0940	 8.2830
 5.0990	 8.2140
 5.1040	 8.1860
 5.1090	 8.1890
 5.1140	 8.2320
 5.1190	 8.2800
 5.1240	 8.3270
 5.1290	 8.2710
 5.1340	 8.2390
 5.1390	 8.1980
 5.1440	 8.2120
 5.1490	 8.1980
 5.1540	 8.1920
 5.1600	 8.1810
 5.1650	 8.1990
 5.1700	 8.1980
 5.1750	 8.1850
 5.1800	 8.2200
 5.1850	 8.2400
 5.1910	 8.2460
 5.1960	 8.2460
 5.2010	 8.2050
 5.2060	 8.1780
 5.2110	 8.1790
 5.2170	 8.1910
 5.2220	 8.1890
 5.2270	 8.1990
 5.2320	 8.1360
 5.2380	 8.1000
 5.2430	 8.1110
 5.2480	 8.1660
 5.2540	 8.1400
 5.2590	 8.1560
 5.2640	 8.1730
 5.2700	 8.2270
 5.2750	 8.2030
 5.2800	 8.1750
 5.2860	 8.1570
 5.2910	 8.1740
 5.2970	 8.1510
 5.3020	 8.1180
 5.3070	 8.0920
 5.3130	 8.1010
 5.3180	 8.1090
 5.3240	 8.1230
 5.3290	 8.1240
 5.3350	 8.1180
 5.3400	 8.1130
 5.3460	 8.0910
 5.3510	 8.0690
 5.3570	 8.0890
 5.3620	 8.0480
 5.3680	 8.0600
 5.3730	 7.9910
 5.3790	 7.9420
 5.3850	 7.9360
 5.3900	 7.9520
 5.3960	 7.9560
 5.4010	 8.0000
 5.4070	 7.9910
 5.4130	 7.9660
 5.4180	 7.9250
 5.4240	 7.9270
 5.4300	 7.8740
 5.4350	 7.8490
 5.4410	 7.7770
 5.4470	 7.7850
 5.4530	 7.8000
 5.4580	 7.7880
 5.4640	 7.7380
 5.4700	 7.7200
 5.4760	 7.6920
 5.4810	 7.6730
 5.4870	 7.6470
 5.4930	 7.6320
 5.4990	 7.5950
 5.5050	 7.6180
 5.5110	 7.5910
 5.5160	 7.5280
 5.5220	 7.4430
 5.5280	 7.4240
 5.5340	 7.3730
 5.5400	 7.3250
 5.5460	 7.2850
 5.5520	 7.2970
 5.5580	 7.2810
 5.5640	 7.2500
 5.5700	 7.2010
 5.5760	 7.1730
 5.5820	 7.1280
 5.5880	 7.1150
 5.5940	 6.9870
 5.6000	 6.9000
 5.6060	 6.8270
 5.6120	 6.7800
 5.6180	 6.6920
 5.6240	 6.5830
 5.6300	 6.5100
 5.6360	 6.5320
 5.6420	 6.4440
 5.6490	 6.2630
 5.6550	 6.0580
 5.6610	 5.8990
 5.6670	 5.7690
 5.6730	 5.6770
 5.6800	 5.4910
 5.6860	 5.3890
 5.6920	 5.2670
 5.6980	 5.1440
 5.7040	 5.0320
 5.7110	 4.9150
 5.7170	 4.7950
 5.7230	 4.6720
 5.7300	 4.5380
 5.7360	 4.4580
 5.7420	 4.3960
 5.7490	 4.3770
 5.7550	 4.3690
 5.7620	 4.4800
 5.7680	 4.5620
 5.7740	 4.6830
 5.7810	 4.7680
 5.7870	 4.9150
 5.7940	 5.0050
 5.8000	 5.1160
 5.8070	 5.2200
 5.8130	 5.3610
 5.8200	 5.3940
 5.8260	 5.5450
 5.8330	 5.6750
 5.8390	 5.7970
 5.8460	 5.9170
 5.8530	 6.0490
 5.8590	 6.0810
 5.8660	 6.1020
 5.8720	 6.1610
 5.8790	 6.3320
 5.8860	 6.3450
 5.8920	 6.3790
 5.8990	 6.3790
 5.9060	 6.4330
 5.9130	 6.3810
 5.9190	 6.3600
 5.9260	 6.3290
 5.9330	 6.3540
 5.9400	 6.1890
 5.9470	 6.0430
 5.9530	 5.9390
 5.9600	 5.8740
 5.9670	 5.7680
 5.9740	 5.7440
 5.9810	 5.7100
 5.9880	 5.6260
 5.9950	 5.4690
 6.0020	 5.4020
 6.0090	 5.2900
 6.0160	 5.2350
 6.0230	 5.1850
 6.0300	 5.1230
 6.0370	 5.0820
 6.0440	 5.2040
 6.0510	 5.2490
 6.0580	 5.2860
 6.0650	 5.2590
 6.0720	 5.3730
 6.0790	 5.3840
 6.0860	 5.4010
 6.0930	 5.3450
 6.1000	 5.3440
 6.1080	 5.3670
 6.1150	 5.3790
 6.1220	 5.2600
 6.1290	 5.2130
 6.1370	 5.1910
 6.1440	 5.2750
 6.1510	 5.2730
 6.1580	 5.2560
 6.1660	 5.1090
 6.1730	 5.1310
 6.1800	 5.1820
 6.1880	 5.1880
 6.1950	 5.0490
 6.2030	 5.0520
 6.2100	 5.1290
 6.2170	 5.3110
 6.2250	 5.3010
 6.2320	 5.3230
 6.2400	 5.3410
 6.2470	 5.4950
 6.2550	 5.5660
 6.2630	 5.6890
 6.2700	 5.7120
 6.2780	 5.6940
 6.2850	 5.6930
 6.2930	 5.7770
 6.3010	 5.8270
 6.3080	 5.9790
 6.3160	 5.9560
 6.3240	 5.9360
 6.3310	 6.0170
 6.3390	 6.1250
 6.3470	 6.0830
 6.3550	 6.1190
 6.3620	 6.1160
 6.3700	 6.1530
 6.3780	 6.0960
 6.3860	 6.1670
 6.3940	 6.1730
 6.4020	 6.2260
 6.4100	 6.2920
 6.4180	 6.3270
 6.4260	 6.2330
 6.4330	 6.2710
 6.4410	 6.3130
 6.4490	 6.3610
 6.4580	 6.3040
 6.4660	 6.3190
 6.4740	 6.2820
 6.4820	 6.3280
 6.4900	 6.3140
 6.4980	 6.2930
 6.5060	 6.1780
 6.5140	 6.2160
 6.5230	 6.1120
 6.5310	 6.0710
 6.5390	 5.9300
 6.5470	 5.8380
 6.5550	 5.6950
 6.5640	 5.5400
 6.5720	 5.3430
 6.5800	 5.2930
 6.5890	 5.2070
 6.5970	 5.3600
 6.6060	 5.4140
 6.6140	 5.4450
 6.6220	 5.5080
 6.6310	 5.5980
 6.6390	 5.6990
 6.6480	 5.7770
 6.6560	 5.6950
 6.6650	 5.6980
 6.6740	 5.7140
 6.6820	 5.8400
 6.6910	 5.7910
 6.6990	 5.8090
 6.7080	 5.7810
 6.7170	 5.8250
 6.7260	 5.8350
 6.7340	 5.8650
 6.7430	 5.7810
 6.7520	 5.7550
 6.7610	 5.5810
 6.7690	 5.5640
 6.7780	 5.4850
 6.7870	 5.4240
 6.7960	 5.2370
 6.8050	 5.1400
 6.8140	 5.0650
 6.8230	 5.1550
 6.8320	 5.1730
 6.8410	 5.2510
 6.8500	 5.1950
 6.8590	 5.2610
 6.8680	 5.2970
 6.8770	 5.3610
 6.8860	 5.2800
 6.8950	 5.3100
 6.9050	 5.3420
 6.9140	 5.3770
 6.9230	 5.3040
 6.9320	 5.3130
 6.9420	 5.2210
 6.9510	 5.2830
 6.9600	 5.2910
 6.9700	 5.3090
 6.9790	 5.2630
 6.9880	 5.3160
 6.9980	 5.3550
 7.0070	 5.4090
 7.0170	 5.2900
 7.0260	 5.3030
 7.0360	 5.2950
 7.0450	 5.3590
 7.0550	 5.3770
 7.0650	 5.4770
 7.0740	 5.4530
 7.0840	 5.4670
 7.0940	 5.4020
 7.1030	 5.4260
 7.1130	 5.3000
 7.1230	 5.2830
 7.1330	 5.2570
 7.1420	 5.2540
 7.1520	 5.0960
 7.1620	 5.1120
 7.1720	 5.0860
 7.1820	 5.1000
 7.1920	 5.0050
 7.2020	 4.9820
 7.2120	 4.8460
 7.2220	 4.7420
 7.2320	 4.6070
 7.2420	 4.7070
 7.2520	 4.6710
 7.2620	 4.6590
 7.2730	 4.6210
 7.2830	 4.6940
 7.2930	 4.6490
 7.3030	 4.7930
 7.3140	 4.7610
 7.3240	 4.8210
 7.3340	 4.7910
 7.3450	 4.8800
 7.3550	 4.9500
 7.3660	 5.1410
 7.3760	 5.1770
 7.3870	 5.2410
 7.3970	 5.2060
 7.4080	 5.3080
 7.4180	 5.2850
 7.4290	 5.3240
 7.4400	 5.2560
 7.4500	 5.2220
 7.4610	 5.1570
 7.4720	 5.1870
 7.4830	 5.0730
 7.4930	 5.0690
 7.5040	 4.9750
 7.5150	 5.0100
 7.5260	 4.8920
 7.5370	 4.8960
 7.5480	 4.8870
 7.5590	 4.9300
 7.5700	 4.8360
 7.5810	 4.8660
 7.5920	 4.8060
 7.6030	 4.7740
 7.6140	 4.6440
 7.6260	 4.7050
 7.6370	 4.7200
 7.6480	 4.9110
 7.6590	 4.8880
 7.6710	 4.8800
 7.6820	 4.8050
 7.6930	 4.8440
 7.7050	 4.7950
 7.7160	 4.8930
 7.7280	 4.8550
 7.7390	 4.8710
 7.7510	 4.7900
 7.7630	 4.7910
 7.7740	 4.6730
 7.7860	 4.7560
 7.7980	 4.7090
 7.8090	 4.6810
 7.8210	 4.5620
 7.8330	 4.6790
 7.8450	 4.6360
 7.8570	 4.6750
 7.8690	 4.6220
 7.8810	 4.6610
 7.8930	 4.6010
 7.9050	 4.6260
 7.9170	 4.5600
 7.9290	 4.5940
 7.9410	 4.4980
 7.9530	 4.5810
 7.9650	 4.5830
 7.9780	 4.6710
 7.9900	 4.5890
 8.0020	 4.6550
 8.0150	 4.6380
 8.0270	 4.7530
 8.0390	 4.6730
 8.0520	 4.7810
 8.0640	 4.7830
 8.0770	 4.8570
 8.0900	 4.7900
 8.1020	 5.0340
 8.1150	 5.0730
 8.1280	 5.0070
 8.1400	 4.9560
 8.1530	 5.1370
 8.1660	 5.1320
 8.1790	 5.1850
 8.1920	 5.0530
 8.2050	 5.1350
 8.2180	 5.1400
 8.2310	 5.4250
 8.2440	 5.3830
 8.2570	 5.4160
 8.2700	 5.4040
 8.2830	 5.6340
 8.2970	 5.5880
 8.3100	 5.6650
 8.3230	 5.6280
 8.3370	 5.7650
 8.3500	 5.6790
 8.3640	 5.7930
 8.3770	 5.6390
 8.3910	 5.6450
 8.4040	 5.5820
 8.4180	 5.6340
 8.4320	 5.4770
 8.4450	 5.4870
 8.4590	 5.4600
 8.4730	 5.7570
 8.4870	 5.7820
 8.5010	 5.8700
 8.5150	 5.8100
 8.5290	 6.0050
 8.5430	 5.9640
 8.5570	 6.0930
 8.5710	 6.1220
 8.5850	 6.2330
 8.5990	 6.1930
 8.6140	 6.2060
 8.6280	 5.9690
 8.6420	 6.0920
 8.6570	 6.0560
 8.6710	 6.2110
 8.6860	 6.0860
 8.7000	 6.0640
 8.7150	 5.9120
 8.7300	 6.0760
 8.7440	 6.0410
 8.7590	 6.1670
 8.7740	 6.0730
 8.7890	 6.1450
 8.8040	 5.9200
 8.8190	 5.9480
 8.8340	 5.8110
 8.8490	 5.7930
 8.8640	 5.5700
 8.8790	 5.6150
 8.8940	 5.5270
 8.9100	 5.6980
 8.9250	 5.5640
 8.9400	 5.5950
 8.9560	 5.4460
 8.9710	 5.5660
 8.9870	 5.4680
 9.0020	 5.5710
 9.0180	 5.4710
 9.0340	 5.5620
 9.0500	 5.5480
 9.0650	 5.8380
 9.0810	 5.7220
 9.0970	 5.8430
 9.1130	 5.7440
 9.1290	 5.7090
 9.1450	 5.5540
 9.1610	 5.6480
 9.1780	 5.4830
 9.1940	 5.6620
 9.2100	 5.6030
 9.2270	 5.6640
 9.2430	 5.5080
 9.2600	 5.6290
 9.2760	 5.4290
 9.2930	 5.5290
 9.3090	 5.4820
 9.3260	 5.7170
 9.3430	 5.6250
 9.3600	 5.7060
 9.3770	 5.4890
 9.3940	 5.4580
 9.4110	 5.3790
 9.4280	 5.5970
 9.4450	 5.5120
 9.4620	 5.6110
 9.4800	 5.5540
 9.4970	 5.6930
 9.5140	 5.4970
 9.5320	 5.5340
 9.5500	 5.4330
 9.5670	 5.6480
 9.5850	 5.5360
 9.6030	 5.6110
 9.6200	 5.4930
 9.6380	 5.6460
 9.6560	 5.5780
 9.6740	 5.6210
 9.6920	 5.4590
 9.7100	 5.6300
 9.7290	 5.5590
 9.7470	 5.6570
 9.7650	 5.5900
 9.7840	 5.8720
 9.8020	 5.8610
 9.8210	 5.9530
 9.8390	 5.8800
 9.8580	 6.0190
 9.8770	 5.8830
 9.8960	 6.0940
 9.9150	 6.0560
 9.9340	 6.1230
 9.9530	 5.9370
 9.9720	 6.0430
 9.9910	 6.0020
10.0100	 6.0960
10.0300	 5.9760
10.0490	 6.0570
10.0690	 5.8410
10.0880	 5.9920
10.1080	 5.9300
10.1280	 6.1030
10.1480	 6.1680
10.1670	 6.4270
10.1870	 6.4220
10.2070	 6.5730
10.2280	 6.4830
10.2480	 6.6970
10.2680	 6.6160
10.2890	 6.6560
10.3090	 6.5250
10.3300	 6.7130
10.3500	 6.6910
10.3710	 6.9960
10.3920	 7.1150
10.4120	 7.1990
10.4330	 7.0820
10.4540	 7.3170
10.4760	 7.3070
10.4970	 7.4970
10.5180	 7.3740
10.5390	 7.5270
10.5610	 7.3990
10.5820	 7.4760
10.6040	 7.2940
10.6260	 7.4030
10.6480	 7.3590
10.6700	 7.4870
10.6920	 7.3650
10.7140	 7.5060
10.7360	 7.3110
10.7580	 7.3190
10.7800	 7.2570
10.8030	 7.4930
10.8250	 7.4110
10.8480	 7.4920
10.8710	 7.3540
10.8940	 7.4370
10.9170	 7.2830
10.9400	 7.5000
10.9630	 7.3750
10.9860	 7.3710
11.0090	 7.1570
11.0330	 7.3050
11.0560	 7.1310
11.0800	 7.2180
11.1040	 6.8660
11.1270	 6.8840
11.1510	 6.9690
11.1750	 7.2730
11.2000	 7.1110
11.2240	 7.1400
11.2480	 7.1210
11.2730	 7.4560
11.2970	 7.3040
11.3220	 7.5270
11.3470	 7.5760
11.3720	 7.5080
11.3970	 7.1780
11.4220	 7.3340
11.4470	 7.1730
11.4720	 7.2630
11.4980	 7.2280
11.5230	 7.4210
11.5490	 7.2900
11.5750	 7.3820
11.6000	 7.1100
11.6260	 7.1460
11.6530	 7.0100
11.6790	 7.2010
11.7050	 6.9820
11.7320	 7.1260
11.7580	 6.9230
11.7850	 7.0980
11.8120	 7.0380
11.8390	 7.1070
11.8660	 6.8980
11.8930	 7.1920
11.9200	 7.1870
11.9480	 7.3740
11.9760	 7.2480
12.0030	 7.4510
12.0310	 7.2320
12.0590	 7.4080
12.0870	 7.2040
12.1150	 7.3610
12.1440	 7.3290
12.1720	 7.5740
12.2010	 7.4070
12.2300	 7.5750
12.2590	 7.3770
12.2880	 7.6730
12.3170	 7.5080
12.3460	 7.5450
12.3760	 7.4240
12.4050	 7.7160
12.4350	 7.5010
12.4650	 7.6180
12.4950	 7.3380
12.5250	 7.4440
12.5550	 7.1740
12.5860	 7.4810
12.6170	 7.2780
12.6470	 7.3020
12.6780	 7.1790
12.7090	 7.4380
12.7410	 7.2140
12.7720	 7.3920
12.8030	 7.2950
12.8350	 7.5070
12.8670	 7.1900
12.8990	 7.2300
12.9310	 6.9240
12.9640	 7.2350
12.9960	 7.1480
13.0290	 7.2860
13.0610	 7.0140
13.0940	 7.1500
13.1280	 6.9010
13.1610	 7.0880
13.1940	 6.7380
13.2280	 6.9090
13.2620	 6.5810
13.2960	 6.8600
13.3300	 6.6800
13.3640	 6.9460
13.3990	 6.6350
13.4340	 6.7480
13.4690	 6.4840
13.5040	 6.8130
13.5390	 6.7390
13.5740	 6.9130
13.6100	 6.4640
13.6460	 6.5080
13.6820	 6.2170
13.7180	 6.5450
13.7540	 6.2850
13.7910	 6.6280
13.8280	 6.4290
13.8650	 6.6500
13.9020	 6.4090
13.9390	 6.7330
13.9770	 6.6370
14.0150	 6.9000
14.0530	 6.4730
14.0910	 6.6810
14.1290	 6.3700
14.1680	 6.6270
14.2070	 6.3400
14.2460	 6.6060
14.2850	 6.1460
14.3240	 6.5050
14.3640	 6.4200
14.4040	 6.8650
14.4440	 6.6280
14.4840	 6.8100
14.5250	 6.1440
14.5660	 6.4000
14.6070	 6.0520
14.6480	 6.5060
14.6900	 5.9480
14.7310	 6.2540
14.7730	 5.8590
14.8150	 6.2340
14.8580	 5.7250
14.9010	 6.0890
14.9440	 5.8560
14.9870	 6.8840
15.0300	 6.1480
15.0740	 6.3850
15.1180	 5.6390
15.1620	 6.0640
15.2060	 5.6630
15.2510	 6.2780
15.2960	 5.6540
15.3410	 5.9630
15.3870	 5.1230
