Name: Pinus lambertiana 3
Type: vegetation
Class: Tree
Genus: Pinus
Species: lambertiana
Sample No.: VH069
Owner: UCSB
Wavelength Range: VSWIR
Origin: 37.0433; -119.3048; WGS84
Collection Date: 4/20/2013
Description: Samples were collected as part of the HyspIRI Airborne Campaign. 48 individual plants were sampled in three times in 2013 - spring  summer  and fall. The name of the sample includes a 1  2  or 3 which references a different individual of the species. Samples were taken to JPL and processed within 48 hours of collection. The same leaves were processed in the Nicolet and then measured using the ASD.
Measurement: Bidirectional reflectance
First Column: X
Second Column: Y
X Units: Wavelength (micrometers)
Y Units: Reflectance (percentage)
First X Value: 0.35
Last X Value: 2.5
Number of X Values: 2151
Additional Information: vegetation.tree.pinus.lambertiana.vswir.vh069.ucsb.asd.ancillary.txt

 0.3500	 5.1910
 0.3510	 5.1690
 0.3520	 5.1490
 0.3530	 5.0760
 0.3540	 4.9870
 0.3550	 5.0390
 0.3560	 5.0420
 0.3570	 4.9620
 0.3580	 4.8570
 0.3590	 4.7910
 0.3600	 4.8520
 0.3610	 4.9770
 0.3620	 4.9040
 0.3630	 4.9290
 0.3640	 4.9930
 0.3650	 4.9730
 0.3660	 4.8590
 0.3670	 4.8540
 0.3680	 4.9350
 0.3690	 4.9360
 0.3700	 4.9890
 0.3710	 4.9620
 0.3720	 4.8360
 0.3730	 4.8410
 0.3740	 4.8660
 0.3750	 4.8860
 0.3760	 4.8970
 0.3770	 4.8630
 0.3780	 4.8360
 0.3790	 4.8010
 0.3800	 4.6990
 0.3810	 4.8030
 0.3820	 4.8700
 0.3830	 4.7640
 0.3840	 4.7410
 0.3850	 4.7960
 0.3860	 4.8480
 0.3870	 4.8050
 0.3880	 4.7520
 0.3890	 4.7530
 0.3900	 4.8110
 0.3910	 4.8680
 0.3920	 4.8150
 0.3930	 4.7470
 0.3940	 4.7530
 0.3950	 4.8060
 0.3960	 4.8080
 0.3970	 4.7880
 0.3980	 4.8270
 0.3990	 4.8760
 0.4000	 4.8850
 0.4010	 4.8510
 0.4020	 4.8350
 0.4030	 4.8380
 0.4040	 4.8700
 0.4050	 4.9230
 0.4060	 4.9420
 0.4070	 4.9590
 0.4080	 4.9940
 0.4090	 5.0520
 0.4100	 5.1210
 0.4110	 5.1900
 0.4120	 5.2510
 0.4130	 5.3040
 0.4140	 5.3560
 0.4150	 5.4000
 0.4160	 5.4320
 0.4170	 5.5040
 0.4180	 5.5740
 0.4190	 5.6370
 0.4200	 5.7170
 0.4210	 5.7630
 0.4220	 5.8100
 0.4230	 5.8830
 0.4240	 5.9580
 0.4250	 6.0220
 0.4260	 6.0750
 0.4270	 6.1290
 0.4280	 6.1850
 0.4290	 6.2430
 0.4300	 6.2910
 0.4310	 6.3030
 0.4320	 6.3280
 0.4330	 6.3580
 0.4340	 6.3800
 0.4350	 6.4270
 0.4360	 6.4570
 0.4370	 6.4750
 0.4380	 6.5160
 0.4390	 6.5570
 0.4400	 6.5890
 0.4410	 6.6100
 0.4420	 6.6360
 0.4430	 6.6630
 0.4440	 6.6870
 0.4450	 6.7020
 0.4460	 6.7200
 0.4470	 6.7440
 0.4480	 6.7720
 0.4490	 6.7950
 0.4500	 6.8130
 0.4510	 6.8350
 0.4520	 6.8630
 0.4530	 6.8820
 0.4540	 6.8870
 0.4550	 6.8890
 0.4560	 6.9100
 0.4570	 6.9220
 0.4580	 6.9320
 0.4590	 6.9470
 0.4600	 6.9490
 0.4610	 6.9590
 0.4620	 6.9700
 0.4630	 6.9710
 0.4640	 6.9850
 0.4650	 6.9930
 0.4660	 6.9940
 0.4670	 7.0030
 0.4680	 7.0130
 0.4690	 7.0150
 0.4700	 7.0080
 0.4710	 7.0100
 0.4720	 7.0230
 0.4730	 7.0310
 0.4740	 7.0230
 0.4750	 7.0330
 0.4760	 7.0390
 0.4770	 7.0320
 0.4780	 7.0420
 0.4790	 7.0470
 0.4800	 7.0480
 0.4810	 7.0520
 0.4820	 7.0690
 0.4830	 7.0820
 0.4840	 7.0840
 0.4850	 7.0850
 0.4860	 7.0910
 0.4870	 7.1050
 0.4880	 7.1260
 0.4890	 7.1370
 0.4900	 7.1540
 0.4910	 7.1750
 0.4920	 7.1960
 0.4930	 7.2180
 0.4940	 7.2410
 0.4950	 7.2690
 0.4960	 7.3040
 0.4970	 7.3430
 0.4980	 7.3910
 0.4990	 7.4500
 0.5000	 7.4970
 0.5010	 7.5520
 0.5020	 7.6200
 0.5030	 7.6940
 0.5040	 7.7760
 0.5050	 7.8650
 0.5060	 7.9570
 0.5070	 8.0620
 0.5080	 8.1800
 0.5090	 8.3080
 0.5100	 8.4420
 0.5110	 8.5910
 0.5120	 8.7530
 0.5130	 8.9260
 0.5140	 9.1160
 0.5150	 9.3150
 0.5160	 9.5190
 0.5170	 9.7300
 0.5180	 9.9600
 0.5190	10.2000
 0.5200	10.4400
 0.5210	10.6780
 0.5220	10.9200
 0.5230	11.1610
 0.5240	11.3930
 0.5250	11.6160
 0.5260	11.8320
 0.5270	12.0410
 0.5280	12.2400
 0.5290	12.4190
 0.5300	12.5850
 0.5310	12.7390
 0.5320	12.8820
 0.5330	13.0140
 0.5340	13.1380
 0.5350	13.2510
 0.5360	13.3500
 0.5370	13.4320
 0.5380	13.5040
 0.5390	13.5760
 0.5400	13.6330
 0.5410	13.6750
 0.5420	13.7100
 0.5430	13.7570
 0.5440	13.8100
 0.5450	13.8660
 0.5460	13.9240
 0.5470	14.0010
 0.5480	14.0730
 0.5490	14.1270
 0.5500	14.1720
 0.5510	14.2080
 0.5520	14.2320
 0.5530	14.2450
 0.5540	14.2410
 0.5550	14.2250
 0.5560	14.1960
 0.5570	14.1470
 0.5580	14.0900
 0.5590	14.0210
 0.5600	13.9360
 0.5610	13.8430
 0.5620	13.7410
 0.5630	13.6340
 0.5640	13.5250
 0.5650	13.4040
 0.5660	13.2760
 0.5670	13.1430
 0.5680	13.0060
 0.5690	12.8590
 0.5700	12.7100
 0.5710	12.5680
 0.5720	12.4280
 0.5730	12.2940
 0.5740	12.1680
 0.5750	12.0510
 0.5760	11.9380
 0.5770	11.8300
 0.5780	11.7280
 0.5790	11.6320
 0.5800	11.5460
 0.5810	11.4700
 0.5820	11.3980
 0.5830	11.3260
 0.5840	11.2590
 0.5850	11.1970
 0.5860	11.1350
 0.5870	11.0700
 0.5880	11.0050
 0.5890	10.9460
 0.5900	10.8940
 0.5910	10.8550
 0.5920	10.8240
 0.5930	10.7910
 0.5940	10.7700
 0.5950	10.7500
 0.5960	10.7250
 0.5970	10.7020
 0.5980	10.6780
 0.5990	10.6510
 0.6000	10.6210
 0.6010	10.5920
 0.6020	10.5610
 0.6030	10.5260
 0.6040	10.4840
 0.6050	10.4380
 0.6060	10.3880
 0.6070	10.3330
 0.6080	10.2700
 0.6090	10.1970
 0.6100	10.1120
 0.6110	10.0180
 0.6120	 9.9490
 0.6130	 9.8970
 0.6140	 9.8490
 0.6150	 9.7920
 0.6160	 9.7320
 0.6170	 9.6760
 0.6180	 9.6250
 0.6190	 9.5730
 0.6200	 9.5270
 0.6210	 9.4910
 0.6220	 9.4600
 0.6230	 9.4310
 0.6240	 9.4090
 0.6250	 9.3950
 0.6260	 9.3780
 0.6270	 9.3660
 0.6280	 9.3600
 0.6290	 9.3560
 0.6300	 9.3530
 0.6310	 9.3470
 0.6320	 9.3350
 0.6330	 9.3180
 0.6340	 9.2890
 0.6350	 9.2510
 0.6360	 9.2020
 0.6370	 9.1380
 0.6380	 9.0660
 0.6390	 8.9890
 0.6400	 8.9010
 0.6410	 8.8060
 0.6420	 8.7090
 0.6430	 8.6150
 0.6440	 8.5250
 0.6450	 8.4340
 0.6460	 8.3470
 0.6470	 8.2690
 0.6480	 8.2030
 0.6490	 8.1450
 0.6500	 8.0950
 0.6510	 8.0570
 0.6520	 8.0280
 0.6530	 8.0020
 0.6540	 7.9750
 0.6550	 7.9480
 0.6560	 7.9200
 0.6570	 7.8880
 0.6580	 7.8490
 0.6590	 7.8020
 0.6600	 7.7540
 0.6610	 7.7060
 0.6620	 7.6580
 0.6630	 7.6150
 0.6640	 7.5740
 0.6650	 7.5350
 0.6660	 7.5020
 0.6670	 7.4770
 0.6680	 7.4590
 0.6690	 7.4450
 0.6700	 7.4380
 0.6710	 7.4370
 0.6720	 7.4410
 0.6730	 7.4480
 0.6740	 7.4620
 0.6750	 7.4810
 0.6760	 7.5030
 0.6770	 7.5310
 0.6780	 7.5620
 0.6790	 7.5960
 0.6800	 7.6390
 0.6810	 7.6910
 0.6820	 7.7510
 0.6830	 7.8220
 0.6840	 7.9090
 0.6850	 8.0140
 0.6860	 8.1440
 0.6870	 8.3100
 0.6880	 8.5180
 0.6890	 8.7850
 0.6900	 9.1190
 0.6910	 9.5250
 0.6920	10.0100
 0.6930	10.5740
 0.6940	11.2120
 0.6950	11.9210
 0.6960	12.6920
 0.6970	13.5190
 0.6980	14.3940
 0.6990	15.3060
 0.7000	16.2460
 0.7010	17.2080
 0.7020	18.1890
 0.7030	19.1780
 0.7040	20.1690
 0.7050	21.1580
 0.7060	22.1470
 0.7070	23.1350
 0.7080	24.1180
 0.7090	25.1020
 0.7100	26.0910
 0.7110	27.0840
 0.7120	28.0790
 0.7130	29.0790
 0.7140	30.0830
 0.7150	31.0890
 0.7160	32.0960
 0.7170	33.1010
 0.7180	34.1080
 0.7190	35.1140
 0.7200	36.1140
 0.7210	37.1100
 0.7220	38.0960
 0.7230	39.0690
 0.7240	40.0300
 0.7250	40.9780
 0.7260	41.9050
 0.7270	42.8050
 0.7280	43.6790
 0.7290	44.5280
 0.7300	45.3530
 0.7310	46.1490
 0.7320	46.9120
 0.7330	47.6410
 0.7340	48.3400
 0.7350	49.0180
 0.7360	49.6570
 0.7370	50.2610
 0.7380	50.8350
 0.7390	51.3790
 0.7400	51.8970
 0.7410	52.3840
 0.7420	52.8370
 0.7430	53.2600
 0.7440	53.6590
 0.7450	54.0320
 0.7460	54.3670
 0.7470	54.6820
 0.7480	54.9770
 0.7490	55.2510
 0.7500	55.5030
 0.7510	55.7330
 0.7520	55.9420
 0.7530	56.1340
 0.7540	56.3090
 0.7550	56.4750
 0.7560	56.6300
 0.7570	56.7650
 0.7580	56.8920
 0.7590	57.0140
 0.7600	57.1260
 0.7610	57.2260
 0.7620	57.3200
 0.7630	57.4080
 0.7640	57.4870
 0.7650	57.5650
 0.7660	57.6380
 0.7670	57.7020
 0.7680	57.7590
 0.7690	57.8140
 0.7700	57.8680
 0.7710	57.9210
 0.7720	57.9730
 0.7730	58.0200
 0.7740	58.0650
 0.7750	58.1110
 0.7760	58.1600
 0.7770	58.2050
 0.7780	58.2480
 0.7790	58.2920
 0.7800	58.3290
 0.7810	58.3670
 0.7820	58.4080
 0.7830	58.4460
 0.7840	58.4860
 0.7850	58.5270
 0.7860	58.5680
 0.7870	58.6010
 0.7880	58.6390
 0.7890	58.6810
 0.7900	58.7200
 0.7910	58.7570
 0.7920	58.7880
 0.7930	58.8180
 0.7940	58.8540
 0.7950	58.8860
 0.7960	58.9120
 0.7970	58.9360
 0.7980	58.9660
 0.7990	59.0020
 0.8000	59.0340
 0.8010	59.0580
 0.8020	59.0880
 0.8030	59.1150
 0.8040	59.1400
 0.8050	59.1650
 0.8060	59.1870
 0.8070	59.2110
 0.8080	59.2380
 0.8090	59.2640
 0.8100	59.2790
 0.8110	59.2980
 0.8120	59.3260
 0.8130	59.3480
 0.8140	59.3710
 0.8150	59.3910
 0.8160	59.4060
 0.8170	59.4290
 0.8180	59.4470
 0.8190	59.4620
 0.8200	59.4830
 0.8210	59.5070
 0.8220	59.5310
 0.8230	59.5520
 0.8240	59.5700
 0.8250	59.5800
 0.8260	59.5910
 0.8270	59.6040
 0.8280	59.6130
 0.8290	59.6280
 0.8300	59.6460
 0.8310	59.6610
 0.8320	59.6770
 0.8330	59.6870
 0.8340	59.6980
 0.8350	59.7210
 0.8360	59.7330
 0.8370	59.7450
 0.8380	59.7620
 0.8390	59.7820
 0.8400	59.8050
 0.8410	59.8330
 0.8420	59.8600
 0.8430	59.8740
 0.8440	59.8950
 0.8450	59.9170
 0.8460	59.9370
 0.8470	59.9620
 0.8480	59.9930
 0.8490	60.0210
 0.8500	60.0400
 0.8510	60.0610
 0.8520	60.0770
 0.8530	60.0930
 0.8540	60.1160
 0.8550	60.1450
 0.8560	60.1700
 0.8570	60.1900
 0.8580	60.2110
 0.8590	60.2200
 0.8600	60.2320
 0.8610	60.2520
 0.8620	60.2700
 0.8630	60.2910
 0.8640	60.3120
 0.8650	60.3300
 0.8660	60.3450
 0.8670	60.3630
 0.8680	60.3840
 0.8690	60.4040
 0.8700	60.4250
 0.8710	60.4410
 0.8720	60.4500
 0.8730	60.4600
 0.8740	60.4830
 0.8750	60.5040
 0.8760	60.5200
 0.8770	60.5400
 0.8780	60.5500
 0.8790	60.5590
 0.8800	60.5720
 0.8810	60.5910
 0.8820	60.5970
 0.8830	60.6080
 0.8840	60.6310
 0.8850	60.6320
 0.8860	60.6400
 0.8870	60.6520
 0.8880	60.6580
 0.8890	60.6650
 0.8900	60.6620
 0.8910	60.6580
 0.8920	60.6660
 0.8930	60.6740
 0.8940	60.6850
 0.8950	60.6910
 0.8960	60.6880
 0.8970	60.6960
 0.8980	60.7030
 0.8990	60.7050
 0.9000	60.7100
 0.9010	60.7110
 0.9020	60.7130
 0.9030	60.7150
 0.9040	60.7070
 0.9050	60.7090
 0.9060	60.7150
 0.9070	60.7170
 0.9080	60.7170
 0.9090	60.7160
 0.9100	60.7170
 0.9110	60.7170
 0.9120	60.7140
 0.9130	60.7100
 0.9140	60.7090
 0.9150	60.7130
 0.9160	60.7100
 0.9170	60.7070
 0.9180	60.7060
 0.9190	60.7050
 0.9200	60.6830
 0.9210	60.6750
 0.9220	60.6760
 0.9230	60.6640
 0.9240	60.6390
 0.9250	60.6110
 0.9260	60.5810
 0.9270	60.5490
 0.9280	60.5380
 0.9290	60.5220
 0.9300	60.4870
 0.9310	60.4320
 0.9320	60.3940
 0.9330	60.3520
 0.9340	60.3020
 0.9350	60.2610
 0.9360	60.1990
 0.9370	60.1410
 0.9380	60.1000
 0.9390	60.0490
 0.9400	59.9870
 0.9410	59.9110
 0.9420	59.8270
 0.9430	59.7540
 0.9440	59.6840
 0.9450	59.5990
 0.9460	59.4910
 0.9470	59.3740
 0.9480	59.2620
 0.9490	59.1360
 0.9500	58.9870
 0.9510	58.8560
 0.9520	58.7130
 0.9530	58.5650
 0.9540	58.4190
 0.9550	58.2530
 0.9560	58.1010
 0.9570	57.9540
 0.9580	57.8000
 0.9590	57.6600
 0.9600	57.5270
 0.9610	57.4140
 0.9620	57.3270
 0.9630	57.2300
 0.9640	57.1360
 0.9650	57.0520
 0.9660	56.9800
 0.9670	56.9110
 0.9680	56.8630
 0.9690	56.8250
 0.9700	56.7810
 0.9710	56.7430
 0.9720	56.6960
 0.9730	56.6520
 0.9740	56.6260
 0.9750	56.5970
 0.9760	56.5880
 0.9770	56.5780
 0.9780	56.5390
 0.9790	56.5390
 0.9800	56.5410
 0.9810	56.5390
 0.9820	56.5430
 0.9830	56.5670
 0.9840	56.5980
 0.9850	56.6190
 0.9860	56.6210
 0.9870	56.6420
 0.9880	56.6960
 0.9890	56.7530
 0.9900	56.7790
 0.9910	56.8090
 0.9920	56.9010
 0.9930	56.9940
 0.9940	57.0860
 0.9950	57.1780
 0.9960	57.2710
 0.9970	57.3630
 0.9980	57.4550
 0.9990	57.5480
 1.0000	57.6400
 1.0010	57.7320
 1.0020	57.8250
 1.0030	57.9170
 1.0040	58.0090
 1.0050	58.1020
 1.0060	58.1940
 1.0070	58.2860
 1.0080	58.3780
 1.0090	58.4710
 1.0100	58.4710
 1.0110	58.5410
 1.0120	58.6150
 1.0130	58.6920
 1.0140	58.7670
 1.0150	58.8450
 1.0160	58.9170
 1.0170	58.9920
 1.0180	59.0710
 1.0190	59.1510
 1.0200	59.2260
 1.0210	59.2990
 1.0220	59.3800
 1.0230	59.4560
 1.0240	59.5320
 1.0250	59.6070
 1.0260	59.6800
 1.0270	59.7500
 1.0280	59.8200
 1.0290	59.8890
 1.0300	59.9500
 1.0310	60.0170
 1.0320	60.0890
 1.0330	60.1580
 1.0340	60.2280
 1.0350	60.2970
 1.0360	60.3630
 1.0370	60.4210
 1.0380	60.4820
 1.0390	60.5390
 1.0400	60.5990
 1.0410	60.6600
 1.0420	60.7180
 1.0430	60.7780
 1.0440	60.8320
 1.0450	60.8800
 1.0460	60.9310
 1.0470	60.9800
 1.0480	61.0300
 1.0490	61.0820
 1.0500	61.1320
 1.0510	61.1820
 1.0520	61.2330
 1.0530	61.2750
 1.0540	61.3130
 1.0550	61.3530
 1.0560	61.3900
 1.0570	61.4240
 1.0580	61.4610
 1.0590	61.4940
 1.0600	61.5150
 1.0610	61.5470
 1.0620	61.5920
 1.0630	61.6260
 1.0640	61.6610
 1.0650	61.6920
 1.0660	61.7120
 1.0670	61.7350
 1.0680	61.7590
 1.0690	61.7850
 1.0700	61.8070
 1.0710	61.8270
 1.0720	61.8450
 1.0730	61.8590
 1.0740	61.8720
 1.0750	61.8830
 1.0760	61.8920
 1.0770	61.9000
 1.0780	61.9070
 1.0790	61.9150
 1.0800	61.9200
 1.0810	61.9220
 1.0820	61.9240
 1.0830	61.9260
 1.0840	61.9240
 1.0850	61.9200
 1.0860	61.9140
 1.0870	61.9070
 1.0880	61.8970
 1.0890	61.8870
 1.0900	61.8810
 1.0910	61.8660
 1.0920	61.8440
 1.0930	61.8260
 1.0940	61.8050
 1.0950	61.7820
 1.0960	61.7610
 1.0970	61.7370
 1.0980	61.7080
 1.0990	61.6800
 1.1000	61.6540
 1.1010	61.6250
 1.1020	61.5940
 1.1030	61.5630
 1.1040	61.5280
 1.1050	61.4930
 1.1060	61.4570
 1.1070	61.4180
 1.1080	61.3800
 1.1090	61.3460
 1.1100	61.3050
 1.1110	61.2630
 1.1120	61.2150
 1.1130	61.1600
 1.1140	61.1050
 1.1150	61.0520
 1.1160	60.9900
 1.1170	60.9260
 1.1180	60.8530
 1.1190	60.7730
 1.1200	60.6860
 1.1210	60.5900
 1.1220	60.4880
 1.1230	60.3730
 1.1240	60.2470
 1.1250	60.1090
 1.1260	59.9610
 1.1270	59.8000
 1.1280	59.6310
 1.1290	59.4420
 1.1300	59.2410
 1.1310	59.0180
 1.1320	58.7720
 1.1330	58.5170
 1.1340	58.2470
 1.1350	57.9640
 1.1360	57.6690
 1.1370	57.3600
 1.1380	57.0380
 1.1390	56.7040
 1.1400	56.3600
 1.1410	56.0150
 1.1420	55.6660
 1.1430	55.3110
 1.1440	54.9600
 1.1450	54.6040
 1.1460	54.2640
 1.1470	53.9250
 1.1480	53.6040
 1.1490	53.2960
 1.1500	53.0030
 1.1510	52.7190
 1.1520	52.4530
 1.1530	52.2010
 1.1540	51.9650
 1.1550	51.7430
 1.1560	51.5400
 1.1570	51.3530
 1.1580	51.1840
 1.1590	51.0300
 1.1600	50.8850
 1.1610	50.7550
 1.1620	50.6370
 1.1630	50.5290
 1.1640	50.4320
 1.1650	50.3410
 1.1660	50.2600
 1.1670	50.1830
 1.1680	50.1150
 1.1690	50.0470
 1.1700	49.9840
 1.1710	49.9240
 1.1720	49.8700
 1.1730	49.8140
 1.1740	49.7610
 1.1750	49.7090
 1.1760	49.6520
 1.1770	49.5960
 1.1780	49.5410
 1.1790	49.4830
 1.1800	49.4260
 1.1810	49.3680
 1.1820	49.3100
 1.1830	49.2530
 1.1840	49.1950
 1.1850	49.1360
 1.1860	49.0780
 1.1870	49.0230
 1.1880	48.9730
 1.1890	48.9270
 1.1900	48.8840
 1.1910	48.8450
 1.1920	48.8120
 1.1930	48.7820
 1.1940	48.7560
 1.1950	48.7340
 1.1960	48.7150
 1.1970	48.6980
 1.1980	48.6880
 1.1990	48.6840
 1.2000	48.6850
 1.2010	48.6910
 1.2020	48.7000
 1.2030	48.7130
 1.2040	48.7310
 1.2050	48.7510
 1.2060	48.7750
 1.2070	48.8050
 1.2080	48.8390
 1.2090	48.8790
 1.2100	48.9220
 1.2110	48.9680
 1.2120	49.0160
 1.2130	49.0690
 1.2140	49.1270
 1.2150	49.1880
 1.2160	49.2560
 1.2170	49.3240
 1.2180	49.3930
 1.2190	49.4650
 1.2200	49.5400
 1.2210	49.6170
 1.2220	49.6960
 1.2230	49.7750
 1.2240	49.8540
 1.2250	49.9330
 1.2260	50.0130
 1.2270	50.0890
 1.2280	50.1620
 1.2290	50.2370
 1.2300	50.3090
 1.2310	50.3800
 1.2320	50.4540
 1.2330	50.5240
 1.2340	50.5920
 1.2350	50.6590
 1.2360	50.7250
 1.2370	50.7880
 1.2380	50.8480
 1.2390	50.9070
 1.2400	50.9660
 1.2410	51.0230
 1.2420	51.0780
 1.2430	51.1350
 1.2440	51.1870
 1.2450	51.2330
 1.2460	51.2800
 1.2470	51.3250
 1.2480	51.3680
 1.2490	51.4120
 1.2500	51.4550
 1.2510	51.4970
 1.2520	51.5370
 1.2530	51.5740
 1.2540	51.6130
 1.2550	51.6480
 1.2560	51.6820
 1.2570	51.7150
 1.2580	51.7440
 1.2590	51.7710
 1.2600	51.7940
 1.2610	51.8160
 1.2620	51.8360
 1.2630	51.8550
 1.2640	51.8740
 1.2650	51.8930
 1.2660	51.9070
 1.2670	51.9180
 1.2680	51.9270
 1.2690	51.9310
 1.2700	51.9340
 1.2710	51.9380
 1.2720	51.9400
 1.2730	51.9370
 1.2740	51.9340
 1.2750	51.9250
 1.2760	51.9110
 1.2770	51.8990
 1.2780	51.8820
 1.2790	51.8620
 1.2800	51.8410
 1.2810	51.8160
 1.2820	51.7860
 1.2830	51.7560
 1.2840	51.7210
 1.2850	51.6850
 1.2860	51.6450
 1.2870	51.6000
 1.2880	51.5510
 1.2890	51.4980
 1.2900	51.4390
 1.2910	51.3760
 1.2920	51.3110
 1.2930	51.2430
 1.2940	51.1700
 1.2950	51.0920
 1.2960	51.0060
 1.2970	50.9150
 1.2980	50.8210
 1.2990	50.7230
 1.3000	50.6210
 1.3010	50.5140
 1.3020	50.3990
 1.3030	50.2790
 1.3040	50.1510
 1.3050	50.0190
 1.3060	49.8810
 1.3070	49.7340
 1.3080	49.5830
 1.3090	49.4280
 1.3100	49.2650
 1.3110	49.0980
 1.3120	48.9240
 1.3130	48.7430
 1.3140	48.5580
 1.3150	48.3670
 1.3160	48.1700
 1.3170	47.9690
 1.3180	47.7620
 1.3190	47.5450
 1.3200	47.3230
 1.3210	47.0950
 1.3220	46.8640
 1.3230	46.6290
 1.3240	46.3890
 1.3250	46.1480
 1.3260	45.9000
 1.3270	45.6500
 1.3280	45.3990
 1.3290	45.1450
 1.3300	44.8890
 1.3310	44.6310
 1.3320	44.3710
 1.3330	44.1100
 1.3340	43.8500
 1.3350	43.5910
 1.3360	43.3330
 1.3370	43.0750
 1.3380	42.8200
 1.3390	42.5670
 1.3400	42.3160
 1.3410	42.0710
 1.3420	41.8300
 1.3430	41.5900
 1.3440	41.3560
 1.3450	41.1250
 1.3460	40.8960
 1.3470	40.6730
 1.3480	40.4540
 1.3490	40.2400
 1.3500	40.0310
 1.3510	39.8270
 1.3520	39.6250
 1.3530	39.4270
 1.3540	39.2290
 1.3550	39.0320
 1.3560	38.8350
 1.3570	38.6380
 1.3580	38.4420
 1.3590	38.2440
 1.3600	38.0440
 1.3610	37.8420
 1.3620	37.6330
 1.3630	37.4180
 1.3640	37.1960
 1.3650	36.9650
 1.3660	36.7300
 1.3670	36.4860
 1.3680	36.2300
 1.3690	35.9620
 1.3700	35.6780
 1.3710	35.3810
 1.3720	35.0670
 1.3730	34.7360
 1.3740	34.3910
 1.3750	34.0260
 1.3760	33.6390
 1.3770	33.2310
 1.3780	32.7950
 1.3790	32.3370
 1.3800	31.8580
 1.3810	31.3520
 1.3820	30.8330
 1.3830	30.2940
 1.3840	29.7410
 1.3850	29.1690
 1.3860	28.5900
 1.3870	27.9920
 1.3880	27.3970
 1.3890	26.7940
 1.3900	26.1890
 1.3910	25.5910
 1.3920	24.9960
 1.3930	24.4040
 1.3940	23.8230
 1.3950	23.2460
 1.3960	22.6830
 1.3970	22.1370
 1.3980	21.6050
 1.3990	21.0980
 1.4000	20.6100
 1.4010	20.1390
 1.4020	19.6910
 1.4030	19.2600
 1.4040	18.8510
 1.4050	18.4640
 1.4060	18.0960
 1.4070	17.7530
 1.4080	17.4290
 1.4090	17.1220
 1.4100	16.8350
 1.4110	16.5630
 1.4120	16.3100
 1.4130	16.0730
 1.4140	15.8510
 1.4150	15.6470
 1.4160	15.4550
 1.4170	15.2760
 1.4180	15.1100
 1.4190	14.9540
 1.4200	14.8080
 1.4210	14.6730
 1.4220	14.5470
 1.4230	14.4320
 1.4240	14.3260
 1.4250	14.2270
 1.4260	14.1350
 1.4270	14.0500
 1.4280	13.9710
 1.4290	13.8980
 1.4300	13.8310
 1.4310	13.7700
 1.4320	13.7150
 1.4330	13.6640
 1.4340	13.6200
 1.4350	13.5780
 1.4360	13.5400
 1.4370	13.5070
 1.4380	13.4770
 1.4390	13.4500
 1.4400	13.4280
 1.4410	13.4090
 1.4420	13.3930
 1.4430	13.3800
 1.4440	13.3690
 1.4450	13.3590
 1.4460	13.3520
 1.4470	13.3470
 1.4480	13.3440
 1.4490	13.3440
 1.4500	13.3450
 1.4510	13.3470
 1.4520	13.3500
 1.4530	13.3560
 1.4540	13.3640
 1.4550	13.3720
 1.4560	13.3830
 1.4570	13.3950
 1.4580	13.4100
 1.4590	13.4270
 1.4600	13.4470
 1.4610	13.4710
 1.4620	13.4960
 1.4630	13.5250
 1.4640	13.5570
 1.4650	13.5920
 1.4660	13.6300
 1.4670	13.6720
 1.4680	13.7180
 1.4690	13.7660
 1.4700	13.8160
 1.4710	13.8710
 1.4720	13.9280
 1.4730	13.9890
 1.4740	14.0520
 1.4750	14.1180
 1.4760	14.1880
 1.4770	14.2590
 1.4780	14.3320
 1.4790	14.4070
 1.4800	14.4820
 1.4810	14.5610
 1.4820	14.6410
 1.4830	14.7230
 1.4840	14.8080
 1.4850	14.8930
 1.4860	14.9780
 1.4870	15.0650
 1.4880	15.1520
 1.4890	15.2400
 1.4900	15.3290
 1.4910	15.4210
 1.4920	15.5130
 1.4930	15.6070
 1.4940	15.7000
 1.4950	15.7930
 1.4960	15.8870
 1.4970	15.9810
 1.4980	16.0760
 1.4990	16.1730
 1.5000	16.2690
 1.5010	16.3670
 1.5020	16.4640
 1.5030	16.5620
 1.5040	16.6580
 1.5050	16.7540
 1.5060	16.8510
 1.5070	16.9470
 1.5080	17.0450
 1.5090	17.1440
 1.5100	17.2420
 1.5110	17.3410
 1.5120	17.4390
 1.5130	17.5350
 1.5140	17.6320
 1.5150	17.7290
 1.5160	17.8260
 1.5170	17.9220
 1.5180	18.0160
 1.5190	18.1100
 1.5200	18.2040
 1.5210	18.2960
 1.5220	18.3890
 1.5230	18.4820
 1.5240	18.5750
 1.5250	18.6680
 1.5260	18.7600
 1.5270	18.8510
 1.5280	18.9410
 1.5290	19.0300
 1.5300	19.1190
 1.5310	19.2080
 1.5320	19.2960
 1.5330	19.3840
 1.5340	19.4700
 1.5350	19.5550
 1.5360	19.6410
 1.5370	19.7250
 1.5380	19.8090
 1.5390	19.8940
 1.5400	19.9780
 1.5410	20.0610
 1.5420	20.1440
 1.5430	20.2270
 1.5440	20.3080
 1.5450	20.3900
 1.5460	20.4720
 1.5470	20.5530
 1.5480	20.6340
 1.5490	20.7140
 1.5500	20.7940
 1.5510	20.8730
 1.5520	20.9520
 1.5530	21.0300
 1.5540	21.1080
 1.5550	21.1860
 1.5560	21.2640
 1.5570	21.3410
 1.5580	21.4160
 1.5590	21.4900
 1.5600	21.5640
 1.5610	21.6370
 1.5620	21.7100
 1.5630	21.7840
 1.5640	21.8570
 1.5650	21.9300
 1.5660	22.0020
 1.5670	22.0730
 1.5680	22.1440
 1.5690	22.2130
 1.5700	22.2830
 1.5710	22.3520
 1.5720	22.4200
 1.5730	22.4890
 1.5740	22.5580
 1.5750	22.6270
 1.5760	22.6970
 1.5770	22.7660
 1.5780	22.8330
 1.5790	22.9020
 1.5800	22.9690
 1.5810	23.0370
 1.5820	23.1060
 1.5830	23.1730
 1.5840	23.2410
 1.5850	23.3080
 1.5860	23.3750
 1.5870	23.4410
 1.5880	23.5070
 1.5890	23.5740
 1.5900	23.6410
 1.5910	23.7090
 1.5920	23.7770
 1.5930	23.8450
 1.5940	23.9150
 1.5950	23.9840
 1.5960	24.0530
 1.5970	24.1230
 1.5980	24.1910
 1.5990	24.2580
 1.6000	24.3270
 1.6010	24.3940
 1.6020	24.4610
 1.6030	24.5280
 1.6040	24.5930
 1.6050	24.6590
 1.6060	24.7250
 1.6070	24.7880
 1.6080	24.8520
 1.6090	24.9150
 1.6100	24.9770
 1.6110	25.0410
 1.6120	25.1040
 1.6130	25.1660
 1.6140	25.2270
 1.6150	25.2850
 1.6160	25.3420
 1.6170	25.3980
 1.6180	25.4530
 1.6190	25.5080
 1.6200	25.5640
 1.6210	25.6190
 1.6220	25.6730
 1.6230	25.7250
 1.6240	25.7750
 1.6250	25.8230
 1.6260	25.8730
 1.6270	25.9210
 1.6280	25.9690
 1.6290	26.0150
 1.6300	26.0570
 1.6310	26.1010
 1.6320	26.1430
 1.6330	26.1860
 1.6340	26.2300
 1.6350	26.2730
 1.6360	26.3180
 1.6370	26.3590
 1.6380	26.3980
 1.6390	26.4370
 1.6400	26.4740
 1.6410	26.5090
 1.6420	26.5430
 1.6430	26.5730
 1.6440	26.5980
 1.6450	26.6220
 1.6460	26.6420
 1.6470	26.6590
 1.6480	26.6750
 1.6490	26.6880
 1.6500	26.6980
 1.6510	26.7050
 1.6520	26.7090
 1.6530	26.7100
 1.6540	26.7100
 1.6550	26.7090
 1.6560	26.7060
 1.6570	26.7030
 1.6580	26.6970
 1.6590	26.6910
 1.6600	26.6870
 1.6610	26.6810
 1.6620	26.6780
 1.6630	26.6710
 1.6640	26.6640
 1.6650	26.6590
 1.6660	26.6540
 1.6670	26.6520
 1.6680	26.6530
 1.6690	26.6520
 1.6700	26.6490
 1.6710	26.6460
 1.6720	26.6430
 1.6730	26.6410
 1.6740	26.6390
 1.6750	26.6360
 1.6760	26.6320
 1.6770	26.6240
 1.6780	26.6160
 1.6790	26.6070
 1.6800	26.5940
 1.6810	26.5800
 1.6820	26.5650
 1.6830	26.5460
 1.6840	26.5250
 1.6850	26.4980
 1.6860	26.4650
 1.6870	26.4320
 1.6880	26.3990
 1.6890	26.3620
 1.6900	26.3240
 1.6910	26.2800
 1.6920	26.2380
 1.6930	26.1940
 1.6940	26.1500
 1.6950	26.1070
 1.6960	26.0620
 1.6970	26.0150
 1.6980	25.9680
 1.6990	25.9200
 1.7000	25.8730
 1.7010	25.8260
 1.7020	25.7790
 1.7030	25.7330
 1.7040	25.6860
 1.7050	25.6390
 1.7060	25.5920
 1.7070	25.5440
 1.7080	25.4970
 1.7090	25.4510
 1.7100	25.4040
 1.7110	25.3580
 1.7120	25.3110
 1.7130	25.2640
 1.7140	25.2170
 1.7150	25.1700
 1.7160	25.1240
 1.7170	25.0780
 1.7180	25.0320
 1.7190	24.9850
 1.7200	24.9350
 1.7210	24.8850
 1.7220	24.8340
 1.7230	24.7830
 1.7240	24.7320
 1.7250	24.6810
 1.7260	24.6290
 1.7270	24.5810
 1.7280	24.5350
 1.7290	24.4880
 1.7300	24.4420
 1.7310	24.3990
 1.7320	24.3570
 1.7330	24.3170
 1.7340	24.2810
 1.7350	24.2420
 1.7360	24.2020
 1.7370	24.1600
 1.7380	24.1150
 1.7390	24.0700
 1.7400	24.0240
 1.7410	23.9770
 1.7420	23.9300
 1.7430	23.8790
 1.7440	23.8260
 1.7450	23.7730
 1.7460	23.7170
 1.7470	23.6620
 1.7480	23.6080
 1.7490	23.5540
 1.7500	23.4990
 1.7510	23.4450
 1.7520	23.3900
 1.7530	23.3360
 1.7540	23.2820
 1.7550	23.2280
 1.7560	23.1770
 1.7570	23.1270
 1.7580	23.0780
 1.7590	23.0260
 1.7600	22.9760
 1.7610	22.9280
 1.7620	22.8810
 1.7630	22.8380
 1.7640	22.7970
 1.7650	22.7590
 1.7660	22.7220
 1.7670	22.6890
 1.7680	22.6550
 1.7690	22.6190
 1.7700	22.5860
 1.7710	22.5540
 1.7720	22.5240
 1.7730	22.4990
 1.7740	22.4720
 1.7750	22.4460
 1.7760	22.4210
 1.7770	22.3960
 1.7780	22.3740
 1.7790	22.3570
 1.7800	22.3410
 1.7810	22.3270
 1.7820	22.3140
 1.7830	22.3010
 1.7840	22.2920
 1.7850	22.2860
 1.7860	22.2790
 1.7870	22.2750
 1.7880	22.2720
 1.7890	22.2710
 1.7900	22.2750
 1.7910	22.2800
 1.7920	22.2850
 1.7930	22.2920
 1.7940	22.3000
 1.7950	22.3090
 1.7960	22.3200
 1.7970	22.3320
 1.7980	22.3460
 1.7990	22.3590
 1.8000	22.3720
 1.8010	22.3840
 1.8020	22.3950
 1.8030	22.4070
 1.8040	22.4210
 1.8050	22.4340
 1.8060	22.4490
 1.8070	22.4610
 1.8080	22.4690
 1.8090	22.4800
 1.8100	22.4900
 1.8110	22.5000
 1.8120	22.5120
 1.8130	22.5230
 1.8140	22.5320
 1.8150	22.5410
 1.8160	22.5500
 1.8170	22.5560
 1.8180	22.5630
 1.8190	22.5680
 1.8200	22.5730
 1.8210	22.5780
 1.8220	22.5830
 1.8230	22.5900
 1.8240	22.5940
 1.8250	22.5970
 1.8260	22.5970
 1.8270	22.5680
 1.8280	22.5390
 1.8290	22.5090
 1.8300	22.4800
 1.8310	22.4510
 1.8320	22.4220
 1.8330	22.3920
 1.8340	22.3630
 1.8350	22.3630
 1.8360	22.3390
 1.8370	22.3140
 1.8380	22.2790
 1.8390	22.2400
 1.8400	22.1960
 1.8410	22.1480
 1.8420	22.0930
 1.8430	22.0350
 1.8440	21.9720
 1.8450	21.9040
 1.8460	21.8280
 1.8470	21.7440
 1.8480	21.6540
 1.8490	21.5510
 1.8500	21.4410
 1.8510	21.3230
 1.8520	21.1990
 1.8530	21.0600
 1.8540	20.9130
 1.8550	20.7550
 1.8560	20.5830
 1.8570	20.4020
 1.8580	20.2130
 1.8590	20.0130
 1.8600	19.8030
 1.8610	19.5800
 1.8620	19.3410
 1.8630	19.0960
 1.8640	18.8360
 1.8650	18.5610
 1.8660	18.2780
 1.8670	17.9770
 1.8680	17.6640
 1.8690	17.3390
 1.8700	17.0010
 1.8710	16.6500
 1.8720	16.2920
 1.8730	15.9250
 1.8740	15.5550
 1.8750	15.1820
 1.8760	14.8000
 1.8770	14.4190
 1.8780	14.0380
 1.8790	13.6580
 1.8800	13.2850
 1.8810	12.9180
 1.8820	12.5530
 1.8830	12.1890
 1.8840	11.8350
 1.8850	11.4860
 1.8860	11.1420
 1.8870	10.8100
 1.8880	10.4890
 1.8890	10.1800
 1.8900	 9.8870
 1.8910	 9.6090
 1.8920	 9.3430
 1.8930	 9.0930
 1.8940	 8.8600
 1.8950	 8.6430
 1.8960	 8.4410
 1.8970	 8.2540
 1.8980	 8.0800
 1.8990	 7.9180
 1.9000	 7.7690
 1.9010	 7.6340
 1.9020	 7.5090
 1.9030	 7.3960
 1.9040	 7.2930
 1.9050	 7.2000
 1.9060	 7.1150
 1.9070	 7.0390
 1.9080	 6.9720
 1.9090	 6.9110
 1.9100	 6.8570
 1.9110	 6.8060
 1.9120	 6.7610
 1.9130	 6.7190
 1.9140	 6.6810
 1.9150	 6.6470
 1.9160	 6.6160
 1.9170	 6.5940
 1.9180	 6.5720
 1.9190	 6.5520
 1.9200	 6.5360
 1.9210	 6.5180
 1.9220	 6.5040
 1.9230	 6.4930
 1.9240	 6.4840
 1.9250	 6.4760
 1.9260	 6.4710
 1.9270	 6.4670
 1.9280	 6.4640
 1.9290	 6.4630
 1.9300	 6.4610
 1.9310	 6.4620
 1.9320	 6.4660
 1.9330	 6.4720
 1.9340	 6.4820
 1.9350	 6.4890
 1.9360	 6.4960
 1.9370	 6.5040
 1.9380	 6.5140
 1.9390	 6.5250
 1.9400	 6.5370
 1.9410	 6.5510
 1.9420	 6.5640
 1.9430	 6.5800
 1.9440	 6.5960
 1.9450	 6.6140
 1.9460	 6.6320
 1.9470	 6.6510
 1.9480	 6.6700
 1.9490	 6.6880
 1.9500	 6.7090
 1.9510	 6.7290
 1.9520	 6.7530
 1.9530	 6.7770
 1.9540	 6.7990
 1.9550	 6.8220
 1.9560	 6.8440
 1.9570	 6.8680
 1.9580	 6.8950
 1.9590	 6.9200
 1.9600	 6.9440
 1.9610	 6.9710
 1.9620	 6.9990
 1.9630	 7.0270
 1.9640	 7.0580
 1.9650	 7.0900
 1.9660	 7.1200
 1.9670	 7.1510
 1.9680	 7.1830
 1.9690	 7.2150
 1.9700	 7.2480
 1.9710	 7.2820
 1.9720	 7.3160
 1.9730	 7.3500
 1.9740	 7.3840
 1.9750	 7.4180
 1.9760	 7.4510
 1.9770	 7.4860
 1.9780	 7.5220
 1.9790	 7.5580
 1.9800	 7.5940
 1.9810	 7.6330
 1.9820	 7.6730
 1.9830	 7.7120
 1.9840	 7.7540
 1.9850	 7.7930
 1.9860	 7.8300
 1.9870	 7.8670
 1.9880	 7.9070
 1.9890	 7.9460
 1.9900	 7.9840
 1.9910	 8.0260
 1.9920	 8.0670
 1.9930	 8.1050
 1.9940	 8.1470
 1.9950	 8.1920
 1.9960	 8.2350
 1.9970	 8.2810
 1.9980	 8.3240
 1.9990	 8.3650
 2.0000	 8.4070
 2.0010	 8.4470
 2.0020	 8.4870
 2.0030	 8.5280
 2.0040	 8.5680
 2.0050	 8.6110
 2.0060	 8.6560
 2.0070	 8.7000
 2.0080	 8.7470
 2.0090	 8.7910
 2.0100	 8.8320
 2.0110	 8.8750
 2.0120	 8.9170
 2.0130	 8.9590
 2.0140	 8.9970
 2.0150	 9.0360
 2.0160	 9.0760
 2.0170	 9.1120
 2.0180	 9.1500
 2.0190	 9.1920
 2.0200	 9.2310
 2.0210	 9.2680
 2.0220	 9.3050
 2.0230	 9.3430
 2.0240	 9.3790
 2.0250	 9.4130
 2.0260	 9.4460
 2.0270	 9.4790
 2.0280	 9.5110
 2.0290	 9.5440
 2.0300	 9.5760
 2.0310	 9.6080
 2.0320	 9.6380
 2.0330	 9.6700
 2.0340	 9.7030
 2.0350	 9.7340
 2.0360	 9.7670
 2.0370	 9.7950
 2.0380	 9.8170
 2.0390	 9.8430
 2.0400	 9.8670
 2.0410	 9.8910
 2.0420	 9.9180
 2.0430	 9.9450
 2.0440	 9.9690
 2.0450	 9.9900
 2.0460	10.0150
 2.0470	10.0400
 2.0480	10.0640
 2.0490	10.0890
 2.0500	10.1140
 2.0510	10.1400
 2.0520	10.1630
 2.0530	10.1880
 2.0540	10.2090
 2.0550	10.2270
 2.0560	10.2450
 2.0570	10.2620
 2.0580	10.2810
 2.0590	10.3010
 2.0600	10.3220
 2.0610	10.3430
 2.0620	10.3660
 2.0630	10.3870
 2.0640	10.4060
 2.0650	10.4260
 2.0660	10.4430
 2.0670	10.4630
 2.0680	10.4870
 2.0690	10.5070
 2.0700	10.5250
 2.0710	10.5440
 2.0720	10.5630
 2.0730	10.5800
 2.0740	10.5980
 2.0750	10.6190
 2.0760	10.6390
 2.0770	10.6610
 2.0780	10.6810
 2.0790	10.7040
 2.0800	10.7240
 2.0810	10.7430
 2.0820	10.7620
 2.0830	10.7800
 2.0840	10.7990
 2.0850	10.8190
 2.0860	10.8400
 2.0870	10.8630
 2.0880	10.8900
 2.0890	10.9120
 2.0900	10.9350
 2.0910	10.9560
 2.0920	10.9740
 2.0930	10.9940
 2.0940	11.0140
 2.0950	11.0340
 2.0960	11.0530
 2.0970	11.0740
 2.0980	11.0960
 2.0990	11.1180
 2.1000	11.1430
 2.1010	11.1650
 2.1020	11.1860
 2.1030	11.2070
 2.1040	11.2260
 2.1050	11.2450
 2.1060	11.2660
 2.1070	11.2900
 2.1080	11.3110
 2.1090	11.3320
 2.1100	11.3540
 2.1110	11.3750
 2.1120	11.3960
 2.1130	11.4180
 2.1140	11.4400
 2.1150	11.4590
 2.1160	11.4810
 2.1170	11.5070
 2.1180	11.5310
 2.1190	11.5540
 2.1200	11.5770
 2.1210	11.6000
 2.1220	11.6230
 2.1230	11.6460
 2.1240	11.6690
 2.1250	11.6930
 2.1260	11.7190
 2.1270	11.7430
 2.1280	11.7670
 2.1290	11.7910
 2.1300	11.8140
 2.1310	11.8370
 2.1320	11.8600
 2.1330	11.8840
 2.1340	11.9060
 2.1350	11.9290
 2.1360	11.9520
 2.1370	11.9760
 2.1380	12.0000
 2.1390	12.0230
 2.1400	12.0440
 2.1410	12.0700
 2.1420	12.0940
 2.1430	12.1170
 2.1440	12.1400
 2.1450	12.1630
 2.1460	12.1880
 2.1470	12.2120
 2.1480	12.2390
 2.1490	12.2700
 2.1500	12.2970
 2.1510	12.3220
 2.1520	12.3470
 2.1530	12.3730
 2.1540	12.3970
 2.1550	12.4200
 2.1560	12.4440
 2.1570	12.4680
 2.1580	12.4910
 2.1590	12.5160
 2.1600	12.5390
 2.1610	12.5640
 2.1620	12.5880
 2.1630	12.6130
 2.1640	12.6390
 2.1650	12.6640
 2.1660	12.6880
 2.1670	12.7110
 2.1680	12.7330
 2.1690	12.7550
 2.1700	12.7770
 2.1710	12.7970
 2.1720	12.8140
 2.1730	12.8350
 2.1740	12.8560
 2.1750	12.8780
 2.1760	12.9060
 2.1770	12.9290
 2.1780	12.9490
 2.1790	12.9700
 2.1800	12.9890
 2.1810	13.0110
 2.1820	13.0350
 2.1830	13.0590
 2.1840	13.0840
 2.1850	13.1100
 2.1860	13.1330
 2.1870	13.1540
 2.1880	13.1760
 2.1890	13.1960
 2.1900	13.2170
 2.1910	13.2390
 2.1920	13.2600
 2.1930	13.2800
 2.1940	13.3010
 2.1950	13.3230
 2.1960	13.3420
 2.1970	13.3560
 2.1980	13.3740
 2.1990	13.3900
 2.2000	13.4060
 2.2010	13.4220
 2.2020	13.4400
 2.2030	13.4580
 2.2040	13.4760
 2.2050	13.5000
 2.2060	13.5210
 2.2070	13.5390
 2.2080	13.5550
 2.2090	13.5710
 2.2100	13.5850
 2.2110	13.5960
 2.2120	13.6080
 2.2130	13.6150
 2.2140	13.6160
 2.2150	13.6190
 2.2160	13.6180
 2.2170	13.6220
 2.2180	13.6300
 2.2190	13.6330
 2.2200	13.6370
 2.2210	13.6380
 2.2220	13.6360
 2.2230	13.6330
 2.2240	13.6300
 2.2250	13.6230
 2.2260	13.6120
 2.2270	13.5990
 2.2280	13.5870
 2.2290	13.5700
 2.2300	13.5490
 2.2310	13.5270
 2.2320	13.5040
 2.2330	13.4810
 2.2340	13.4570
 2.2350	13.4370
 2.2360	13.4090
 2.2370	13.3790
 2.2380	13.3440
 2.2390	13.3050
 2.2400	13.2660
 2.2410	13.2270
 2.2420	13.1830
 2.2430	13.1370
 2.2440	13.0920
 2.2450	13.0410
 2.2460	12.9950
 2.2470	12.9560
 2.2480	12.9100
 2.2490	12.8660
 2.2500	12.8150
 2.2510	12.7550
 2.2520	12.6980
 2.2530	12.6370
 2.2540	12.5770
 2.2550	12.5140
 2.2560	12.4570
 2.2570	12.4010
 2.2580	12.3440
 2.2590	12.2900
 2.2600	12.2340
 2.2610	12.1740
 2.2620	12.1130
 2.2630	12.0550
 2.2640	11.9970
 2.2650	11.9430
 2.2660	11.8960
 2.2670	11.8470
 2.2680	11.8000
 2.2690	11.7530
 2.2700	11.7020
 2.2710	11.6620
 2.2720	11.6280
 2.2730	11.5940
 2.2740	11.5660
 2.2750	11.5360
 2.2760	11.5050
 2.2770	11.4780
 2.2780	11.4550
 2.2790	11.4290
 2.2800	11.4020
 2.2810	11.3790
 2.2820	11.3510
 2.2830	11.3330
 2.2840	11.3260
 2.2850	11.3100
 2.2860	11.2970
 2.2870	11.2770
 2.2880	11.2460
 2.2890	11.2200
 2.2900	11.1930
 2.2910	11.1680
 2.2920	11.1490
 2.2930	11.1230
 2.2940	11.0930
 2.2950	11.0630
 2.2960	11.0290
 2.2970	10.9940
 2.2980	10.9590
 2.2990	10.9240
 2.3000	10.8820
 2.3010	10.8470
 2.3020	10.8090
 2.3030	10.7670
 2.3040	10.7290
 2.3050	10.6880
 2.3060	10.6560
 2.3070	10.6310
 2.3080	10.6080
 2.3090	10.5880
 2.3100	10.5640
 2.3110	10.5420
 2.3120	10.5240
 2.3130	10.5070
 2.3140	10.4930
 2.3150	10.4820
 2.3160	10.4700
 2.3170	10.4570
 2.3180	10.4460
 2.3190	10.4350
 2.3200	10.4230
 2.3210	10.4130
 2.3220	10.4010
 2.3230	10.3860
 2.3240	10.3710
 2.3250	10.3540
 2.3260	10.3370
 2.3270	10.3200
 2.3280	10.3010
 2.3290	10.2820
 2.3300	10.2580
 2.3310	10.2260
 2.3320	10.2010
 2.3330	10.1790
 2.3340	10.1550
 2.3350	10.1310
 2.3360	10.1080
 2.3370	10.0840
 2.3380	10.0570
 2.3390	10.0300
 2.3400	10.0050
 2.3410	 9.9780
 2.3420	 9.9520
 2.3430	 9.9310
 2.3440	 9.9050
 2.3450	 9.8760
 2.3460	 9.8500
 2.3470	 9.8280
 2.3480	 9.8050
 2.3490	 9.7820
 2.3500	 9.7620
 2.3510	 9.7440
 2.3520	 9.7230
 2.3530	 9.7050
 2.3540	 9.6830
 2.3550	 9.6640
 2.3560	 9.6500
 2.3570	 9.6450
 2.3580	 9.6370
 2.3590	 9.6170
 2.3600	 9.5970
 2.3610	 9.5740
 2.3620	 9.5490
 2.3630	 9.5290
 2.3640	 9.5100
 2.3650	 9.4910
 2.3660	 9.4700
 2.3670	 9.4500
 2.3680	 9.4280
 2.3690	 9.4030
 2.3700	 9.3780
 2.3710	 9.3530
 2.3720	 9.3310
 2.3730	 9.3020
 2.3740	 9.2730
 2.3750	 9.2520
 2.3760	 9.2300
 2.3770	 9.2120
 2.3780	 9.1930
 2.3790	 9.1740
 2.3800	 9.1480
 2.3810	 9.1230
 2.3820	 9.1070
 2.3830	 9.0840
 2.3840	 9.0610
 2.3850	 9.0350
 2.3860	 9.0030
 2.3870	 8.9790
 2.3880	 8.9550
 2.3890	 8.9310
 2.3900	 8.9090
 2.3910	 8.8830
 2.3920	 8.8540
 2.3930	 8.8390
 2.3940	 8.8220
 2.3950	 8.7910
 2.3960	 8.7710
 2.3970	 8.7410
 2.3980	 8.7110
 2.3990	 8.6970
 2.4000	 8.6700
 2.4010	 8.6480
 2.4020	 8.6320
 2.4030	 8.6040
 2.4040	 8.5710
 2.4050	 8.5310
 2.4060	 8.4880
 2.4070	 8.4680
 2.4080	 8.4550
 2.4090	 8.4330
 2.4100	 8.4110
 2.4110	 8.3660
 2.4120	 8.3250
 2.4130	 8.3190
 2.4140	 8.3050
 2.4150	 8.2970
 2.4160	 8.2940
 2.4170	 8.2730
 2.4180	 8.2450
 2.4190	 8.2130
 2.4200	 8.1790
 2.4210	 8.1470
 2.4220	 8.1170
 2.4230	 8.0950
 2.4240	 8.0620
 2.4250	 8.0190
 2.4260	 7.9860
 2.4270	 7.9570
 2.4280	 7.9270
 2.4290	 7.8990
 2.4300	 7.8560
 2.4310	 7.8220
 2.4320	 7.8020
 2.4330	 7.7650
 2.4340	 7.7470
 2.4350	 7.7330
 2.4360	 7.7020
 2.4370	 7.6930
 2.4380	 7.6780
 2.4390	 7.6340
 2.4400	 7.5910
 2.4410	 7.5580
 2.4420	 7.5290
 2.4430	 7.5260
 2.4440	 7.5320
 2.4450	 7.5170
 2.4460	 7.4900
 2.4470	 7.4530
 2.4480	 7.4140
 2.4490	 7.3900
 2.4500	 7.3750
 2.4510	 7.3510
 2.4520	 7.3170
 2.4530	 7.2880
 2.4540	 7.2720
 2.4550	 7.2550
 2.4560	 7.2310
 2.4570	 7.1990
 2.4580	 7.1630
 2.4590	 7.1400
 2.4600	 7.1250
 2.4610	 7.1240
 2.4620	 7.1110
 2.4630	 7.0790
 2.4640	 7.0630
 2.4650	 7.0230
 2.4660	 6.9830
 2.4670	 6.9550
 2.4680	 6.9170
 2.4690	 6.9190
 2.4700	 6.9010
 2.4710	 6.8950
 2.4720	 6.8810
 2.4730	 6.8350
 2.4740	 6.8180
 2.4750	 6.8080
 2.4760	 6.8060
 2.4770	 6.8370
 2.4780	 6.8320
 2.4790	 6.8170
 2.4800	 6.8050
 2.4810	 6.7680
 2.4820	 6.7730
 2.4830	 6.7670
 2.4840	 6.7580
 2.4850	 6.7220
 2.4860	 6.7030
 2.4870	 6.6960
 2.4880	 6.6590
 2.4890	 6.6670
 2.4900	 6.6240
 2.4910	 6.5570
 2.4920	 6.5900
 2.4930	 6.6140
 2.4940	 6.6580
 2.4950	 6.7360
 2.4960	 6.7470
 2.4970	 6.6890
 2.4980	 6.6400
 2.4990	 6.6440
 2.5000	 6.6040
