Name: Ceanothus megacarpus 2
Type: vegetation
Class: Shrub
Genus: Ceanothus
Species: megacarpus
Sample No.: VH141
Owner: UCSB
Wavelength Range: TIR
Origin: 34.4909; -119.7914; WGS84
Collection Date: 6/3/2013
Description: Samples were collected as part of the HyspIRI Airborne Campaign. 48 individual plants were sampled in three times in 2013 - spring  summer  and fall. The name of the sample includes a 1  2  or 3 which references a different individual of the species. Samples were taken to JPL and processed within 48 hours of collection. The same leaves were processed in the Nicolet and then measured using the ASD.
Measurement: Hemispherical reflectance
First Column: X
Second Column: Y
X Units: Wavelength (micrometers)
Y Units: Reflectance (percentage)
First X Value: 2.501
Last X Value: 15.387
Number of X Values: 1737
Additional Information: vegetation.shrub.ceanothus.megacarpus.tir.vh141.ucsb.nicolet.ancillary.txt

 2.5010	 7.3820
 2.5030	 7.2240
 2.5040	 7.1980
 2.5050	 7.2530
 2.5060	 7.3260
 2.5070	 7.2550
 2.5090	 7.2220
 2.5100	 7.2310
 2.5110	 7.3160
 2.5120	 7.3770
 2.5140	 7.4080
 2.5150	 7.1850
 2.5160	 7.0880
 2.5170	 7.1450
 2.5180	 7.2570
 2.5200	 7.1630
 2.5210	 7.1490
 2.5220	 7.1470
 2.5230	 7.1340
 2.5250	 7.1530
 2.5260	 7.2170
 2.5270	 7.1930
 2.5280	 7.2550
 2.5290	 7.2200
 2.5310	 7.2790
 2.5320	 7.2470
 2.5330	 7.1670
 2.5340	 7.1480
 2.5360	 7.2290
 2.5370	 7.2370
 2.5380	 7.2200
 2.5390	 7.1370
 2.5410	 7.1890
 2.5420	 7.1360
 2.5430	 7.1180
 2.5440	 7.0850
 2.5460	 7.0870
 2.5470	 7.1260
 2.5480	 7.2900
 2.5490	 7.2500
 2.5510	 7.2200
 2.5520	 7.2480
 2.5530	 7.2650
 2.5540	 7.2190
 2.5560	 7.2590
 2.5570	 7.2050
 2.5580	 7.2380
 2.5590	 7.2740
 2.5610	 7.3630
 2.5620	 7.2650
 2.5630	 7.3220
 2.5640	 7.3420
 2.5660	 7.3200
 2.5670	 7.2600
 2.5680	 7.3150
 2.5700	 7.3260
 2.5710	 7.3260
 2.5720	 7.3760
 2.5730	 7.3910
 2.5750	 7.2570
 2.5760	 7.2380
 2.5770	 7.1660
 2.5790	 7.2440
 2.5800	 7.2930
 2.5810	 7.3310
 2.5820	 7.3470
 2.5840	 7.3560
 2.5850	 7.2640
 2.5860	 7.3190
 2.5880	 7.3050
 2.5890	 7.1990
 2.5900	 7.2060
 2.5910	 7.2820
 2.5930	 7.2190
 2.5940	 7.2840
 2.5950	 7.2970
 2.5970	 7.2920
 2.5980	 7.2250
 2.5990	 7.2870
 2.6000	 7.3150
 2.6020	 7.3730
 2.6030	 7.3090
 2.6040	 7.3020
 2.6060	 7.2450
 2.6070	 7.3220
 2.6080	 7.3230
 2.6100	 7.2920
 2.6110	 7.1890
 2.6120	 7.2150
 2.6140	 7.2230
 2.6150	 7.2550
 2.6160	 7.2360
 2.6180	 7.1950
 2.6190	 7.0880
 2.6200	 7.1380
 2.6220	 7.1670
 2.6230	 7.1570
 2.6240	 7.1290
 2.6260	 7.2140
 2.6270	 7.2460
 2.6280	 7.2330
 2.6300	 7.1520
 2.6310	 7.1510
 2.6320	 7.1770
 2.6340	 7.2500
 2.6350	 7.1470
 2.6360	 7.1470
 2.6380	 7.1700
 2.6390	 7.2210
 2.6400	 7.1460
 2.6420	 7.0790
 2.6430	 7.1050
 2.6440	 7.1490
 2.6460	 7.0950
 2.6470	 7.0050
 2.6480	 6.9580
 2.6500	 6.9830
 2.6510	 7.0360
 2.6520	 7.2170
 2.6540	 7.1380
 2.6550	 7.1190
 2.6560	 7.1020
 2.6580	 7.1040
 2.6590	 6.9890
 2.6610	 6.9910
 2.6620	 6.9390
 2.6630	 6.9870
 2.6650	 6.9780
 2.6660	 7.0160
 2.6670	 7.0280
 2.6690	 7.0560
 2.6700	 7.0360
 2.6720	 7.0940
 2.6730	 7.0160
 2.6740	 7.0650
 2.6760	 6.9950
 2.6770	 6.9900
 2.6780	 6.9680
 2.6800	 7.0150
 2.6810	 7.0530
 2.6830	 7.0690
 2.6840	 6.9510
 2.6850	 6.8790
 2.6870	 6.9180
 2.6880	 7.0580
 2.6900	 7.0590
 2.6910	 7.0250
 2.6920	 6.9600
 2.6940	 6.9920
 2.6950	 7.0170
 2.6970	 7.1060
 2.6980	 6.9850
 2.6990	 6.8620
 2.7010	 6.8450
 2.7020	 6.9050
 2.7040	 6.9210
 2.7050	 6.9900
 2.7060	 6.9540
 2.7080	 7.0370
 2.7090	 7.0080
 2.7110	 6.9470
 2.7120	 6.8390
 2.7130	 6.8440
 2.7150	 6.7800
 2.7160	 6.8100
 2.7180	 6.8000
 2.7190	 6.8530
 2.7210	 6.8270
 2.7220	 6.9040
 2.7230	 6.8570
 2.7250	 6.8690
 2.7260	 6.8930
 2.7280	 6.9280
 2.7290	 6.8590
 2.7310	 6.9400
 2.7320	 6.9590
 2.7330	 6.9440
 2.7350	 6.8590
 2.7360	 6.8780
 2.7380	 6.8850
 2.7390	 6.9720
 2.7410	 6.9600
 2.7420	 6.8360
 2.7440	 6.7000
 2.7450	 6.7710
 2.7470	 6.7450
 2.7480	 6.7810
 2.7490	 6.7390
 2.7510	 6.7020
 2.7520	 6.6880
 2.7540	 6.8160
 2.7550	 6.8830
 2.7570	 6.8600
 2.7580	 6.7640
 2.7600	 6.8230
 2.7610	 6.7890
 2.7630	 6.7720
 2.7640	 6.7080
 2.7660	 6.8430
 2.7670	 6.8470
 2.7680	 6.7790
 2.7700	 6.7080
 2.7710	 6.8360
 2.7730	 6.9130
 2.7740	 6.9790
 2.7760	 6.8730
 2.7770	 6.8550
 2.7790	 6.7510
 2.7800	 6.7820
 2.7820	 6.8110
 2.7830	 6.8230
 2.7850	 6.7800
 2.7860	 6.8540
 2.7880	 6.8340
 2.7890	 6.8200
 2.7910	 6.7440
 2.7920	 6.7010
 2.7940	 6.6320
 2.7950	 6.7340
 2.7970	 6.7550
 2.7980	 6.7150
 2.8000	 6.6580
 2.8010	 6.7670
 2.8030	 6.7310
 2.8040	 6.7950
 2.8060	 6.8440
 2.8070	 6.8510
 2.8090	 6.8470
 2.8110	 6.8520
 2.8120	 6.7290
 2.8140	 6.6920
 2.8150	 6.7180
 2.8170	 6.8560
 2.8180	 6.8340
 2.8200	 6.7440
 2.8210	 6.6940
 2.8230	 6.8100
 2.8240	 6.8420
 2.8260	 6.8530
 2.8270	 6.8190
 2.8290	 6.7330
 2.8300	 6.5060
 2.8320	 6.5970
 2.8340	 6.6570
 2.8350	 6.7530
 2.8370	 6.7090
 2.8380	 6.8080
 2.8400	 6.8360
 2.8410	 6.8270
 2.8430	 6.7830
 2.8440	 6.7900
 2.8460	 6.6670
 2.8480	 6.6410
 2.8490	 6.6800
 2.8510	 6.7590
 2.8520	 6.7580
 2.8540	 6.8040
 2.8550	 6.6990
 2.8570	 6.7070
 2.8590	 6.7390
 2.8600	 6.7180
 2.8620	 6.6420
 2.8630	 6.8110
 2.8650	 6.8540
 2.8660	 6.8650
 2.8680	 6.8660
 2.8700	 6.8340
 2.8710	 6.6950
 2.8730	 6.8150
 2.8740	 6.8140
 2.8760	 6.7910
 2.8780	 6.7220
 2.8790	 6.7560
 2.8810	 6.7230
 2.8820	 6.8420
 2.8840	 6.8980
 2.8860	 6.9810
 2.8870	 6.8970
 2.8890	 6.9120
 2.8900	 6.8870
 2.8920	 6.8110
 2.8940	 6.7220
 2.8950	 6.7780
 2.8970	 6.7310
 2.8980	 6.7170
 2.9000	 6.6980
 2.9020	 6.7380
 2.9030	 6.6690
 2.9050	 6.7460
 2.9070	 6.7660
 2.9080	 6.7530
 2.9100	 6.7100
 2.9120	 6.6780
 2.9130	 6.6840
 2.9150	 6.8190
 2.9160	 6.8150
 2.9180	 6.7330
 2.9200	 6.5850
 2.9210	 6.6200
 2.9230	 6.6590
 2.9250	 6.7320
 2.9260	 6.7650
 2.9280	 6.8320
 2.9300	 6.8270
 2.9310	 6.9010
 2.9330	 6.8290
 2.9350	 6.8080
 2.9360	 6.8220
 2.9380	 6.8630
 2.9400	 6.7570
 2.9410	 6.8410
 2.9430	 6.8320
 2.9450	 6.7740
 2.9460	 6.7380
 2.9480	 6.8780
 2.9500	 6.8640
 2.9510	 6.8590
 2.9530	 6.8500
 2.9550	 6.8690
 2.9560	 6.8490
 2.9580	 6.9120
 2.9600	 6.8510
 2.9610	 6.8300
 2.9630	 6.8160
 2.9650	 6.8500
 2.9660	 6.8730
 2.9680	 6.8360
 2.9700	 6.8100
 2.9720	 6.8580
 2.9730	 6.7340
 2.9750	 6.8110
 2.9770	 6.8060
 2.9780	 6.9010
 2.9800	 6.8200
 2.9820	 6.8610
 2.9840	 6.9580
 2.9850	 7.0790
 2.9870	 6.9760
 2.9890	 6.9130
 2.9900	 6.9080
 2.9920	 6.9130
 2.9940	 6.8550
 2.9960	 6.9110
 2.9970	 6.9310
 2.9990	 6.9940
 3.0010	 6.9050
 3.0030	 6.8420
 3.0040	 6.8590
 3.0060	 6.9580
 3.0080	 6.9810
 3.0100	 6.9740
 3.0110	 6.8530
 3.0130	 6.8900
 3.0150	 6.7880
 3.0170	 6.8140
 3.0180	 6.8520
 3.0200	 6.9000
 3.0220	 6.9230
 3.0240	 6.9620
 3.0250	 6.8150
 3.0270	 6.9010
 3.0290	 6.9090
 3.0310	 6.9110
 3.0320	 6.9030
 3.0340	 6.8650
 3.0360	 6.8320
 3.0380	 6.9210
 3.0400	 6.9430
 3.0410	 7.0230
 3.0430	 6.9230
 3.0450	 6.8700
 3.0470	 6.8220
 3.0480	 6.8500
 3.0500	 6.8590
 3.0520	 6.9100
 3.0540	 6.9250
 3.0560	 6.9090
 3.0570	 6.8600
 3.0590	 6.9020
 3.0610	 6.8730
 3.0630	 6.9120
 3.0650	 6.9110
 3.0660	 6.9040
 3.0680	 6.8960
 3.0700	 6.9000
 3.0720	 6.8280
 3.0740	 6.8960
 3.0760	 6.8340
 3.0770	 6.8480
 3.0790	 6.8340
 3.0810	 6.8450
 3.0830	 6.7720
 3.0850	 6.8330
 3.0870	 6.8540
 3.0880	 6.8490
 3.0900	 6.8390
 3.0920	 6.9140
 3.0940	 6.8420
 3.0960	 6.8380
 3.0980	 6.7750
 3.0990	 6.8270
 3.1010	 6.8510
 3.1030	 6.9010
 3.1050	 6.9070
 3.1070	 6.9690
 3.1090	 6.9060
 3.1110	 6.8770
 3.1120	 6.8130
 3.1140	 6.8420
 3.1160	 6.8330
 3.1180	 6.8280
 3.1200	 6.8490
 3.1220	 6.9090
 3.1240	 6.8670
 3.1260	 6.8930
 3.1270	 6.9100
 3.1290	 6.9010
 3.1310	 6.9200
 3.1330	 6.9680
 3.1350	 6.9210
 3.1370	 6.9100
 3.1390	 6.8950
 3.1410	 6.9470
 3.1430	 6.8730
 3.1450	 6.9180
 3.1460	 6.9280
 3.1480	 6.9250
 3.1500	 6.8760
 3.1520	 6.8620
 3.1540	 6.7900
 3.1560	 6.8030
 3.1580	 6.7740
 3.1600	 6.7910
 3.1620	 6.8290
 3.1640	 6.8620
 3.1660	 6.7260
 3.1680	 6.7270
 3.1700	 6.7940
 3.1710	 6.8790
 3.1730	 6.7930
 3.1750	 6.7860
 3.1770	 6.8380
 3.1790	 6.8220
 3.1810	 6.7840
 3.1830	 6.8500
 3.1850	 6.8440
 3.1870	 6.8090
 3.1890	 6.6980
 3.1910	 6.7000
 3.1930	 6.7080
 3.1950	 6.8050
 3.1970	 6.7980
 3.1990	 6.7930
 3.2010	 6.7840
 3.2030	 6.8340
 3.2050	 6.7980
 3.2070	 6.8190
 3.2090	 6.8690
 3.2110	 6.8510
 3.2130	 6.7730
 3.2150	 6.8100
 3.2170	 6.8250
 3.2190	 6.8620
 3.2210	 6.7980
 3.2230	 6.7380
 3.2250	 6.7450
 3.2270	 6.7430
 3.2290	 6.6740
 3.2310	 6.7460
 3.2330	 6.7500
 3.2350	 6.8340
 3.2370	 6.8680
 3.2390	 6.8620
 3.2410	 6.7650
 3.2430	 6.7560
 3.2450	 6.7470
 3.2470	 6.7850
 3.2490	 6.7620
 3.2510	 6.7580
 3.2530	 6.7090
 3.2550	 6.6880
 3.2570	 6.7120
 3.2590	 6.7290
 3.2610	 6.6230
 3.2630	 6.7080
 3.2650	 6.6760
 3.2670	 6.5950
 3.2690	 6.5770
 3.2720	 6.6660
 3.2740	 6.6600
 3.2760	 6.6570
 3.2780	 6.6860
 3.2800	 6.6970
 3.2820	 6.6440
 3.2840	 6.6430
 3.2860	 6.5950
 3.2880	 6.6150
 3.2900	 6.5470
 3.2920	 6.5890
 3.2940	 6.6130
 3.2960	 6.5950
 3.2990	 6.5200
 3.3010	 6.5310
 3.3030	 6.5160
 3.3050	 6.5150
 3.3070	 6.4910
 3.3090	 6.5500
 3.3110	 6.5220
 3.3130	 6.5400
 3.3150	 6.5660
 3.3180	 6.5880
 3.3200	 6.5330
 3.3220	 6.5450
 3.3240	 6.5000
 3.3260	 6.4590
 3.3280	 6.3890
 3.3300	 6.3990
 3.3330	 6.3610
 3.3350	 6.3950
 3.3370	 6.3430
 3.3390	 6.3420
 3.3410	 6.4050
 3.3430	 6.4220
 3.3450	 6.3120
 3.3480	 6.3180
 3.3500	 6.3100
 3.3520	 6.2400
 3.3540	 6.1930
 3.3560	 6.2360
 3.3580	 6.1860
 3.3610	 6.2030
 3.3630	 6.2150
 3.3650	 6.2050
 3.3670	 6.1340
 3.3690	 6.1460
 3.3720	 6.1280
 3.3740	 6.1960
 3.3760	 6.2210
 3.3780	 6.2920
 3.3800	 6.3040
 3.3830	 6.3820
 3.3850	 6.4330
 3.3870	 6.4320
 3.3890	 6.2800
 3.3910	 6.1860
 3.3940	 6.1290
 3.3960	 6.1650
 3.3980	 6.1780
 3.4000	 6.2170
 3.4020	 6.2630
 3.4050	 6.3710
 3.4070	 6.5270
 3.4090	 6.8010
 3.4110	 7.0430
 3.4140	 7.4080
 3.4160	 7.8310
 3.4180	 8.4010
 3.4200	 9.1870
 3.4230	10.1870
 3.4250	11.3530
 3.4270	12.5120
 3.4290	13.0640
 3.4320	12.6660
 3.4340	11.4350
 3.4360	10.3250
 3.4390	 9.6000
 3.4410	 9.1960
 3.4430	 8.8660
 3.4450	 8.6010
 3.4480	 8.4280
 3.4500	 8.4680
 3.4520	 8.3860
 3.4550	 8.2830
 3.4570	 8.1240
 3.4590	 8.0270
 3.4620	 7.9650
 3.4640	 7.9390
 3.4660	 7.8420
 3.4680	 7.8040
 3.4710	 7.6670
 3.4730	 7.4870
 3.4750	 7.3640
 3.4780	 7.3690
 3.4800	 7.3000
 3.4820	 7.2430
 3.4850	 7.1740
 3.4870	 7.1290
 3.4890	 7.0600
 3.4920	 7.0790
 3.4940	 7.0630
 3.4970	 7.0900
 3.4990	 7.1360
 3.5010	 7.3220
 3.5040	 7.8310
 3.5060	 8.8960
 3.5080	10.5360
 3.5110	11.9650
 3.5130	11.8020
 3.5160	10.6670
 3.5180	 9.7040
 3.5200	 9.1480
 3.5230	 8.7470
 3.5250	 8.5140
 3.5270	 8.2700
 3.5300	 8.1860
 3.5320	 8.1060
 3.5350	 8.0290
 3.5370	 7.9150
 3.5400	 7.9000
 3.5420	 7.8930
 3.5440	 7.8410
 3.5470	 7.7450
 3.5490	 7.7180
 3.5520	 7.6990
 3.5540	 7.7260
 3.5570	 7.6700
 3.5590	 7.7020
 3.5610	 7.6790
 3.5640	 7.6630
 3.5660	 7.5570
 3.5690	 7.5330
 3.5710	 7.5230
 3.5740	 7.5230
 3.5760	 7.4900
 3.5790	 7.5010
 3.5810	 7.4570
 3.5840	 7.4450
 3.5860	 7.4700
 3.5890	 7.5080
 3.5910	 7.4230
 3.5930	 7.3850
 3.5960	 7.3810
 3.5980	 7.4070
 3.6010	 7.4060
 3.6030	 7.4630
 3.6060	 7.4470
 3.6080	 7.4270
 3.6110	 7.3760
 3.6140	 7.3650
 3.6160	 7.3220
 3.6190	 7.3380
 3.6210	 7.2930
 3.6240	 7.3300
 3.6260	 7.3710
 3.6290	 7.3610
 3.6310	 7.2980
 3.6340	 7.3200
 3.6360	 7.3330
 3.6390	 7.3240
 3.6410	 7.2620
 3.6440	 7.2920
 3.6470	 7.2670
 3.6490	 7.2490
 3.6520	 7.2370
 3.6540	 7.2670
 3.6570	 7.2700
 3.6590	 7.3130
 3.6620	 7.2810
 3.6650	 7.3190
 3.6670	 7.3170
 3.6700	 7.2480
 3.6720	 7.1680
 3.6750	 7.1560
 3.6780	 7.1490
 3.6800	 7.2040
 3.6830	 7.2210
 3.6850	 7.2430
 3.6880	 7.2430
 3.6910	 7.2370
 3.6930	 7.2600
 3.6960	 7.2590
 3.6990	 7.1690
 3.7010	 7.1450
 3.7040	 7.1860
 3.7060	 7.2480
 3.7090	 7.2520
 3.7120	 7.2400
 3.7140	 7.2150
 3.7170	 7.2030
 3.7200	 7.1520
 3.7220	 7.1800
 3.7250	 7.1740
 3.7280	 7.1870
 3.7300	 7.1920
 3.7330	 7.2050
 3.7360	 7.1850
 3.7390	 7.2070
 3.7410	 7.2280
 3.7440	 7.2370
 3.7470	 7.1650
 3.7490	 7.1810
 3.7520	 7.1650
 3.7550	 7.1660
 3.7580	 7.1650
 3.7600	 7.1520
 3.7630	 7.1220
 3.7660	 7.1510
 3.7680	 7.1830
 3.7710	 7.1960
 3.7740	 7.1220
 3.7770	 7.1270
 3.7790	 7.1610
 3.7820	 7.1780
 3.7850	 7.0880
 3.7880	 7.0250
 3.7900	 7.0570
 3.7930	 7.1250
 3.7960	 7.1230
 3.7990	 7.1610
 3.8020	 7.1840
 3.8040	 7.1880
 3.8070	 7.0990
 3.8100	 7.1110
 3.8130	 7.1030
 3.8160	 7.1520
 3.8180	 7.1770
 3.8210	 7.1490
 3.8240	 7.1240
 3.8270	 7.1320
 3.8300	 7.1320
 3.8330	 7.1690
 3.8350	 7.1460
 3.8380	 7.1570
 3.8410	 7.1430
 3.8440	 7.1590
 3.8470	 7.1540
 3.8500	 7.1350
 3.8520	 7.1050
 3.8550	 7.1380
 3.8580	 7.1510
 3.8610	 7.1730
 3.8640	 7.1290
 3.8670	 7.1330
 3.8700	 7.1500
 3.8730	 7.1880
 3.8750	 7.1740
 3.8780	 7.1760
 3.8810	 7.1360
 3.8840	 7.1260
 3.8870	 7.1360
 3.8900	 7.1050
 3.8930	 7.0800
 3.8960	 7.1270
 3.8990	 7.1310
 3.9020	 7.1360
 3.9050	 7.1140
 3.9080	 7.0990
 3.9110	 7.1000
 3.9140	 7.1580
 3.9160	 7.1530
 3.9190	 7.1230
 3.9220	 7.0900
 3.9250	 7.1380
 3.9280	 7.1570
 3.9310	 7.1540
 3.9340	 7.1100
 3.9370	 7.1200
 3.9400	 7.1360
 3.9430	 7.1320
 3.9460	 7.0950
 3.9490	 7.1120
 3.9520	 7.1270
 3.9550	 7.1510
 3.9580	 7.1510
 3.9610	 7.1420
 3.9640	 7.1700
 3.9670	 7.2200
 3.9700	 7.1980
 3.9730	 7.1810
 3.9770	 7.1540
 3.9800	 7.1790
 3.9830	 7.1490
 3.9860	 7.0950
 3.9890	 7.0750
 3.9920	 7.0940
 3.9950	 7.0880
 3.9980	 7.1260
 4.0010	 7.1360
 4.0040	 7.0950
 4.0070	 7.0800
 4.0100	 7.1330
 4.0130	 7.1390
 4.0170	 7.1540
 4.0200	 7.1310
 4.0230	 7.1880
 4.0260	 7.1580
 4.0290	 7.1350
 4.0320	 7.1470
 4.0350	 7.2280
 4.0380	 7.1890
 4.0420	 7.1210
 4.0450	 7.1220
 4.0480	 7.1370
 4.0510	 7.1140
 4.0540	 7.1180
 4.0570	 7.1170
 4.0610	 7.1410
 4.0640	 7.1790
 4.0670	 7.1480
 4.0700	 7.0760
 4.0730	 7.1130
 4.0770	 7.1460
 4.0800	 7.1140
 4.0830	 7.1180
 4.0860	 7.1130
 4.0890	 7.0690
 4.0930	 7.1610
 4.0960	 7.1600
 4.0990	 7.0960
 4.1020	 7.0240
 4.1060	 7.0750
 4.1090	 7.1600
 4.1120	 7.1950
 4.1150	 7.1630
 4.1190	 7.1370
 4.1220	 7.1000
 4.1250	 7.1360
 4.1280	 7.2180
 4.1320	 7.2100
 4.1350	 7.1530
 4.1380	 7.1800
 4.1420	 7.1640
 4.1450	 7.1330
 4.1480	 7.1070
 4.1520	 7.1600
 4.1550	 7.1470
 4.1580	 7.1460
 4.1620	 7.1670
 4.1650	 7.1920
 4.1680	 7.1680
 4.1720	 7.1540
 4.1750	 7.1600
 4.1780	 7.1590
 4.1820	 7.1310
 4.1850	 7.1440
 4.1890	 7.1880
 4.1920	 7.1660
 4.1950	 7.1560
 4.1990	 7.2270
 4.2020	 7.2870
 4.2060	 7.3060
 4.2090	 7.2930
 4.2120	 7.2620
 4.2160	 7.2420
 4.2190	 7.2670
 4.2230	 7.3120
 4.2260	 7.2730
 4.2300	 7.2770
 4.2330	 7.2210
 4.2360	 7.1320
 4.2400	 7.2240
 4.2430	 7.2390
 4.2470	 7.1470
 4.2500	 7.1280
 4.2540	 7.1700
 4.2570	 7.1970
 4.2610	 7.2690
 4.2640	 7.3370
 4.2680	 7.2520
 4.2710	 7.1100
 4.2750	 7.1950
 4.2780	 7.3360
 4.2820	 7.3450
 4.2850	 7.2230
 4.2890	 7.2330
 4.2930	 7.2490
 4.2960	 7.2180
 4.3000	 7.1630
 4.3030	 7.1290
 4.3070	 7.2090
 4.3100	 7.2700
 4.3140	 7.2750
 4.3180	 7.2290
 4.3210	 7.1590
 4.3250	 7.1240
 4.3280	 7.1390
 4.3320	 7.1560
 4.3360	 7.1200
 4.3390	 7.1350
 4.3430	 7.1320
 4.3470	 7.1070
 4.3500	 7.0680
 4.3540	 7.0940
 4.3570	 7.0940
 4.3610	 7.1110
 4.3650	 7.0990
 4.3680	 7.0780
 4.3720	 7.1130
 4.3760	 7.1200
 4.3800	 7.0910
 4.3830	 7.1590
 4.3870	 7.1750
 4.3910	 7.1730
 4.3940	 7.1800
 4.3980	 7.1700
 4.4020	 7.1400
 4.4060	 7.1550
 4.4090	 7.1620
 4.4130	 7.1170
 4.4170	 7.1270
 4.4210	 7.1370
 4.4240	 7.0920
 4.4280	 7.1130
 4.4320	 7.1330
 4.4360	 7.1580
 4.4400	 7.1520
 4.4430	 7.0970
 4.4470	 7.0660
 4.4510	 7.1060
 4.4550	 7.1530
 4.4590	 7.1270
 4.4620	 7.1000
 4.4660	 7.1310
 4.4700	 7.1050
 4.4740	 7.0780
 4.4780	 7.0860
 4.4820	 7.1200
 4.4860	 7.1100
 4.4900	 7.0800
 4.4930	 7.0700
 4.4970	 7.1150
 4.5010	 7.0950
 4.5050	 7.1050
 4.5090	 7.1060
 4.5130	 7.0620
 4.5170	 7.0790
 4.5210	 7.0840
 4.5250	 7.1010
 4.5290	 7.1610
 4.5330	 7.1430
 4.5370	 7.1120
 4.5410	 7.1250
 4.5450	 7.1520
 4.5490	 7.1220
 4.5530	 7.0810
 4.5570	 7.0660
 4.5610	 7.1190
 4.5650	 7.1680
 4.5690	 7.1120
 4.5730	 7.0570
 4.5770	 7.0450
 4.5810	 7.0640
 4.5850	 7.0570
 4.5890	 7.0200
 4.5930	 7.0140
 4.5970	 7.0710
 4.6010	 7.0810
 4.6050	 7.0610
 4.6090	 7.1010
 4.6130	 7.1110
 4.6170	 7.1220
 4.6220	 7.1110
 4.6260	 7.0320
 4.6300	 7.0010
 4.6340	 7.0550
 4.6380	 7.1110
 4.6420	 7.0800
 4.6460	 7.0410
 4.6510	 7.0380
 4.6550	 7.0340
 4.6590	 7.0060
 4.6630	 7.0620
 4.6670	 7.0760
 4.6720	 7.0450
 4.6760	 7.0800
 4.6800	 7.1280
 4.6840	 7.1480
 4.6880	 7.0840
 4.6930	 7.0210
 4.6970	 7.0400
 4.7010	 7.0970
 4.7050	 7.1020
 4.7100	 7.0440
 4.7140	 7.0430
 4.7180	 7.0820
 4.7230	 7.0920
 4.7270	 7.0710
 4.7310	 7.1020
 4.7360	 7.1410
 4.7400	 7.1000
 4.7440	 7.0470
 4.7490	 7.0550
 4.7530	 7.0430
 4.7570	 7.0210
 4.7620	 7.0530
 4.7660	 7.0800
 4.7700	 7.0640
 4.7750	 7.1060
 4.7790	 7.0920
 4.7840	 7.0350
 4.7880	 7.0220
 4.7920	 7.0460
 4.7970	 7.0360
 4.8010	 7.0620
 4.8060	 7.0390
 4.8100	 6.9870
 4.8150	 6.9960
 4.8190	 7.0720
 4.8240	 7.0830
 4.8280	 7.0300
 4.8330	 7.0070
 4.8370	 7.0260
 4.8420	 7.0160
 4.8460	 7.0080
 4.8510	 7.0460
 4.8550	 7.0700
 4.8600	 7.0530
 4.8640	 7.0870
 4.8690	 7.0660
 4.8730	 7.0520
 4.8780	 6.9870
 4.8830	 6.9640
 4.8870	 6.9690
 4.8920	 6.9870
 4.8960	 7.0150
 4.9010	 7.0360
 4.9060	 7.0240
 4.9100	 7.0210
 4.9150	 7.0170
 4.9200	 7.0330
 4.9240	 7.0590
 4.9290	 7.0170
 4.9340	 6.9800
 4.9380	 7.0460
 4.9430	 7.0200
 4.9480	 6.9760
 4.9530	 6.9760
 4.9570	 7.0220
 4.9620	 7.0350
 4.9670	 7.0260
 4.9720	 7.0360
 4.9760	 7.0820
 4.9810	 7.0370
 4.9860	 7.0360
 4.9910	 7.0560
 4.9960	 7.0360
 5.0000	 7.0100
 5.0050	 7.0360
 5.0100	 7.0320
 5.0150	 7.0170
 5.0200	 6.9810
 5.0250	 6.9840
 5.0290	 6.9770
 5.0340	 6.9870
 5.0390	 6.9840
 5.0440	 7.0190
 5.0490	 6.9520
 5.0540	 6.9650
 5.0590	 6.9810
 5.0640	 7.0230
 5.0690	 7.0510
 5.0740	 7.0440
 5.0790	 6.9570
 5.0840	 6.9730
 5.0890	 7.0130
 5.0940	 7.0550
 5.0990	 7.0320
 5.1040	 7.0040
 5.1090	 6.9820
 5.1140	 6.9670
 5.1190	 6.9480
 5.1240	 6.9510
 5.1290	 6.9500
 5.1340	 6.9870
 5.1390	 6.9760
 5.1440	 6.9800
 5.1490	 6.9730
 5.1540	 7.0010
 5.1600	 6.9750
 5.1650	 7.0000
 5.1700	 6.9890
 5.1750	 7.0000
 5.1800	 7.0470
 5.1850	 7.0400
 5.1910	 7.0160
 5.1960	 7.0530
 5.2010	 7.0380
 5.2060	 7.0370
 5.2110	 6.9840
 5.2170	 7.0170
 5.2220	 7.0110
 5.2270	 6.9450
 5.2320	 6.9070
 5.2380	 6.9640
 5.2430	 6.9960
 5.2480	 6.9890
 5.2540	 6.9240
 5.2590	 6.9380
 5.2640	 6.9630
 5.2700	 6.9880
 5.2750	 6.9470
 5.2800	 6.9770
 5.2860	 6.9980
 5.2910	 7.0010
 5.2970	 6.9590
 5.3020	 6.9270
 5.3070	 6.8960
 5.3130	 6.9410
 5.3180	 6.9570
 5.3240	 6.9690
 5.3290	 6.9490
 5.3350	 6.9470
 5.3400	 6.9100
 5.3460	 6.9400
 5.3510	 6.9510
 5.3570	 6.9520
 5.3620	 6.9100
 5.3680	 6.9050
 5.3730	 6.8950
 5.3790	 6.9490
 5.3850	 6.9330
 5.3900	 6.9050
 5.3960	 6.8630
 5.4010	 6.9080
 5.4070	 6.9440
 5.4130	 6.9530
 5.4180	 6.8850
 5.4240	 6.8580
 5.4300	 6.8490
 5.4350	 6.8550
 5.4410	 6.8200
 5.4470	 6.8650
 5.4530	 6.8620
 5.4580	 6.8790
 5.4640	 6.8290
 5.4700	 6.8420
 5.4760	 6.8320
 5.4810	 6.8290
 5.4870	 6.8580
 5.4930	 6.8620
 5.4990	 6.7400
 5.5050	 6.7100
 5.5110	 6.7690
 5.5160	 6.8680
 5.5220	 6.7910
 5.5280	 6.7450
 5.5340	 6.7460
 5.5400	 6.8050
 5.5460	 6.7940
 5.5520	 6.7730
 5.5580	 6.7240
 5.5640	 6.6780
 5.5700	 6.6690
 5.5760	 6.6920
 5.5820	 6.6460
 5.5880	 6.6840
 5.5940	 6.6350
 5.6000	 6.5800
 5.6060	 6.5640
 5.6120	 6.6010
 5.6180	 6.6100
 5.6240	 6.6330
 5.6300	 6.5920
 5.6360	 6.5500
 5.6420	 6.4850
 5.6490	 6.4780
 5.6550	 6.4720
 5.6610	 6.5340
 5.6670	 6.4870
 5.6730	 6.3900
 5.6800	 6.3270
 5.6860	 6.2970
 5.6920	 6.2260
 5.6980	 6.2470
 5.7040	 6.2310
 5.7110	 6.2030
 5.7170	 6.1520
 5.7230	 6.1740
 5.7300	 6.1490
 5.7360	 6.1020
 5.7420	 6.0020
 5.7490	 6.0100
 5.7550	 6.0470
 5.7620	 6.2240
 5.7680	 6.2830
 5.7740	 6.3210
 5.7810	 6.4210
 5.7870	 6.5490
 5.7940	 6.5900
 5.8000	 6.6550
 5.8070	 6.6230
 5.8130	 6.6570
 5.8200	 6.6370
 5.8260	 6.6830
 5.8330	 6.7000
 5.8390	 6.7940
 5.8460	 6.8610
 5.8530	 6.8910
 5.8590	 6.8390
 5.8660	 6.8050
 5.8720	 6.7450
 5.8790	 6.6980
 5.8860	 6.6730
 5.8920	 6.8200
 5.8990	 6.8260
 5.9060	 6.8870
 5.9130	 6.9410
 5.9190	 7.0390
 5.9260	 7.1500
 5.9330	 7.3450
 5.9400	 7.4770
 5.9470	 7.6100
 5.9530	 7.6440
 5.9600	 7.6610
 5.9670	 7.6380
 5.9740	 7.6760
 5.9810	 7.5860
 5.9880	 7.6040
 5.9950	 7.6010
 6.0020	 7.6450
 6.0090	 7.6650
 6.0160	 7.6430
 6.0230	 7.5300
 6.0300	 7.5290
 6.0370	 7.5290
 6.0440	 7.5990
 6.0510	 7.6140
 6.0580	 7.5960
 6.0650	 7.5340
 6.0720	 7.5700
 6.0790	 7.5610
 6.0860	 7.6610
 6.0930	 7.5870
 6.1000	 7.5800
 6.1080	 7.5680
 6.1150	 7.6370
 6.1220	 7.6310
 6.1290	 7.6270
 6.1370	 7.5690
 6.1440	 7.6140
 6.1510	 7.5320
 6.1580	 7.5380
 6.1660	 7.5480
 6.1730	 7.6630
 6.1800	 7.5550
 6.1880	 7.5540
 6.1950	 7.5920
 6.2030	 7.6850
 6.2100	 7.6390
 6.2170	 7.6640
 6.2250	 7.5830
 6.2320	 7.6200
 6.2400	 7.6160
 6.2470	 7.6260
 6.2550	 7.6110
 6.2630	 7.6590
 6.2700	 7.5550
 6.2780	 7.4930
 6.2850	 7.4370
 6.2930	 7.5480
 6.3010	 7.5940
 6.3080	 7.6900
 6.3160	 7.6060
 6.3240	 7.5610
 6.3310	 7.4790
 6.3390	 7.4810
 6.3470	 7.4420
 6.3550	 7.4700
 6.3620	 7.4260
 6.3700	 7.4420
 6.3780	 7.4330
 6.3860	 7.4520
 6.3940	 7.3850
 6.4020	 7.4300
 6.4100	 7.3910
 6.4180	 7.4270
 6.4260	 7.3770
 6.4330	 7.3810
 6.4410	 7.2970
 6.4490	 7.3240
 6.4580	 7.2810
 6.4660	 7.3070
 6.4740	 7.2140
 6.4820	 7.2330
 6.4900	 7.2050
 6.4980	 7.2100
 6.5060	 7.0960
 6.5140	 7.1190
 6.5230	 7.0950
 6.5310	 7.1650
 6.5390	 7.1050
 6.5470	 7.0990
 6.5550	 7.0780
 6.5640	 7.1160
 6.5720	 7.0490
 6.5800	 7.1020
 6.5890	 7.0530
 6.5970	 7.0770
 6.6060	 7.0370
 6.6140	 7.0550
 6.6220	 7.0320
 6.6310	 7.0770
 6.6390	 7.0540
 6.6480	 7.1290
 6.6560	 7.1050
 6.6650	 7.0580
 6.6740	 6.9900
 6.6820	 7.0120
 6.6910	 6.9820
 6.6990	 6.9890
 6.7080	 6.8320
 6.7170	 6.8520
 6.7260	 6.8400
 6.7340	 6.8470
 6.7430	 6.7870
 6.7520	 6.8380
 6.7610	 6.8270
 6.7690	 6.8860
 6.7780	 7.0160
 6.7870	 7.3940
 6.7960	 7.3450
 6.8050	 7.0580
 6.8140	 6.9270
 6.8230	 7.1020
 6.8320	 7.3190
 6.8410	 7.5370
 6.8500	 7.3490
 6.8590	 7.2240
 6.8680	 7.0930
 6.8770	 7.1370
 6.8860	 7.1080
 6.8950	 7.1710
 6.9050	 7.1730
 6.9140	 7.2150
 6.9230	 7.1390
 6.9320	 7.2190
 6.9420	 7.2000
 6.9510	 7.2030
 6.9600	 7.1080
 6.9700	 7.2080
 6.9790	 7.2060
 6.9880	 7.2820
 6.9980	 7.2290
 7.0070	 7.2390
 7.0170	 7.1290
 7.0260	 7.1960
 7.0360	 7.2130
 7.0450	 7.2690
 7.0550	 7.1540
 7.0650	 7.2150
 7.0740	 7.2010
 7.0840	 7.2050
 7.0940	 7.1430
 7.1030	 7.2280
 7.1130	 7.1630
 7.1230	 7.1910
 7.1330	 7.1490
 7.1420	 7.2000
 7.1520	 7.1210
 7.1620	 7.0810
 7.1720	 6.9540
 7.1820	 6.9950
 7.1920	 6.9320
 7.2020	 6.9740
 7.2120	 6.9460
 7.2220	 7.0040
 7.2320	 6.9470
 7.2420	 6.9860
 7.2520	 6.9590
 7.2620	 7.1070
 7.2730	 7.0920
 7.2830	 7.1370
 7.2930	 7.0770
 7.3030	 7.0430
 7.3140	 7.0010
 7.3240	 7.1060
 7.3340	 7.0440
 7.3450	 7.1080
 7.3550	 7.0860
 7.3660	 7.1090
 7.3760	 7.0440
 7.3870	 7.0730
 7.3970	 7.0250
 7.4080	 7.1650
 7.4180	 7.1080
 7.4290	 7.0860
 7.4400	 7.0690
 7.4500	 7.1480
 7.4610	 7.0310
 7.4720	 7.0510
 7.4830	 6.9210
 7.4930	 6.9850
 7.5040	 6.9460
 7.5150	 6.9380
 7.5260	 6.8700
 7.5370	 6.9230
 7.5480	 6.8860
 7.5590	 6.9400
 7.5700	 6.8620
 7.5810	 6.9380
 7.5920	 6.8700
 7.6030	 6.8790
 7.6140	 6.8600
 7.6260	 6.9120
 7.6370	 6.8240
 7.6480	 6.8880
 7.6590	 6.7850
 7.6710	 6.8470
 7.6820	 6.8250
 7.6930	 6.9150
 7.7050	 6.8160
 7.7160	 6.8390
 7.7280	 6.7860
 7.7390	 6.8120
 7.7510	 6.7220
 7.7630	 6.7810
 7.7740	 6.6940
 7.7860	 6.7200
 7.7980	 6.6590
 7.8090	 6.8040
 7.8210	 6.7850
 7.8330	 6.8140
 7.8450	 6.7410
 7.8570	 6.8040
 7.8690	 6.7310
 7.8810	 6.8600
 7.8930	 6.8680
 7.9050	 6.9050
 7.9170	 6.7770
 7.9290	 6.8340
 7.9410	 6.8590
 7.9530	 6.9130
 7.9650	 6.7430
 7.9780	 6.8380
 7.9900	 6.8380
 8.0020	 6.8910
 8.0150	 6.8050
 8.0270	 6.9040
 8.0390	 6.7830
 8.0520	 6.8070
 8.0640	 6.8420
 8.0770	 7.0810
 8.0900	 7.0260
 8.1020	 7.0380
 8.1150	 6.9030
 8.1280	 7.0000
 8.1400	 6.9690
 8.1530	 7.0360
 8.1660	 6.9280
 8.1790	 6.9860
 8.1920	 6.8670
 8.2050	 6.9890
 8.2180	 6.9270
 8.2310	 7.0360
 8.2440	 6.9970
 8.2570	 7.0840
 8.2700	 6.9250
 8.2830	 7.0210
 8.2970	 6.9990
 8.3100	 7.0970
 8.3230	 7.0330
 8.3370	 7.1000
 8.3500	 6.9920
 8.3640	 7.0470
 8.3770	 6.9260
 8.3910	 7.0490
 8.4040	 7.0420
 8.4180	 7.2220
 8.4320	 7.2130
 8.4450	 7.3960
 8.4590	 7.1590
 8.4730	 7.1680
 8.4870	 7.1910
 8.5010	 7.3320
 8.5150	 7.2920
 8.5290	 7.4640
 8.5430	 7.3730
 8.5570	 7.4160
 8.5710	 7.4220
 8.5850	 7.5800
 8.5990	 7.4330
 8.6140	 7.6180
 8.6280	 7.5390
 8.6420	 7.6750
 8.6570	 7.5560
 8.6710	 7.6580
 8.6860	 7.5550
 8.7000	 7.6620
 8.7150	 7.5810
 8.7300	 7.6750
 8.7440	 7.5690
 8.7590	 7.6080
 8.7740	 7.4830
 8.7890	 7.6280
 8.8040	 7.5050
 8.8190	 7.5580
 8.8340	 7.5080
 8.8490	 7.7030
 8.8640	 7.5840
 8.8790	 7.6970
 8.8940	 7.6070
 8.9100	 7.6920
 8.9250	 7.4330
 8.9400	 7.5350
 8.9560	 7.3850
 8.9710	 7.4880
 8.9870	 7.4140
 9.0020	 7.4500
 9.0180	 7.3610
 9.0340	 7.5490
 9.0500	 7.3690
 9.0650	 7.5170
 9.0810	 7.4200
 9.0970	 7.6120
 9.1130	 7.6180
 9.1290	 7.6650
 9.1450	 7.4850
 9.1610	 7.5830
 9.1780	 7.4800
 9.1940	 7.5960
 9.2100	 7.4550
 9.2270	 7.5950
 9.2430	 7.5540
 9.2600	 7.7280
 9.2760	 7.5530
 9.2930	 7.6800
 9.3090	 7.6560
 9.3260	 7.7820
 9.3430	 7.4820
 9.3600	 7.5330
 9.3770	 7.4220
 9.3940	 7.6300
 9.4110	 7.5880
 9.4280	 7.6960
 9.4450	 7.4920
 9.4620	 7.5770
 9.4800	 7.4310
 9.4970	 7.7340
 9.5140	 7.8010
 9.5320	 7.8670
 9.5500	 7.6750
 9.5670	 7.8910
 9.5850	 7.8280
 9.6030	 8.0510
 9.6200	 7.8490
 9.6380	 7.9790
 9.6560	 7.8880
 9.6740	 7.9680
 9.6920	 7.8730
 9.7100	 8.0120
 9.7290	 7.8860
 9.7470	 8.0040
 9.7650	 7.8290
 9.7840	 8.0120
 9.8020	 7.9250
 9.8210	 7.9500
 9.8390	 7.7760
 9.8580	 7.9680
 9.8770	 7.8590
 9.8960	 8.0000
 9.9150	 7.8770
 9.9340	 7.9910
 9.9530	 7.9010
 9.9720	 7.9900
 9.9910	 7.7680
10.0100	 7.8300
10.0300	 7.6130
10.0490	 7.7910
10.0690	 7.7790
10.0880	 7.8950
10.1080	 7.6150
10.1280	 7.7490
10.1480	 7.6560
10.1670	 7.6700
10.1870	 7.5050
10.2070	 7.7050
10.2280	 7.5950
10.2480	 7.6820
10.2680	 7.5320
10.2890	 7.5610
10.3090	 7.4430
10.3300	 7.5830
10.3500	 7.4130
10.3710	 7.5220
10.3920	 7.4380
10.4120	 7.5630
10.4330	 7.5010
10.4540	 7.6890
10.4760	 7.5920
10.4970	 7.6930
10.5180	 7.4880
10.5390	 7.5630
10.5610	 7.4570
10.5820	 7.6800
10.6040	 7.5290
10.6260	 7.5360
10.6480	 7.3430
10.6700	 7.4640
10.6920	 7.4270
10.7140	 7.6100
10.7360	 7.4080
10.7580	 7.5160
10.7800	 7.3190
10.8030	 7.5560
10.8250	 7.4230
10.8480	 7.5310
10.8710	 7.4240
10.8940	 7.4760
10.9170	 7.2710
10.9400	 7.4490
10.9630	 7.3840
10.9860	 7.6090
11.0090	 7.4160
11.0330	 7.5610
11.0560	 7.4550
11.0800	 7.4920
11.1040	 7.2740
11.1270	 7.4830
11.1510	 7.3350
11.1750	 7.5050
11.2000	 7.4400
11.2240	 7.6310
11.2480	 7.4060
11.2730	 7.5210
11.2970	 7.3190
11.3220	 7.5390
11.3470	 7.3510
11.3720	 7.5150
11.3970	 7.3680
11.4220	 7.5680
11.4470	 7.4790
11.4720	 7.6930
11.4980	 7.4800
11.5230	 7.6510
11.5490	 7.3930
11.5750	 7.4480
11.6000	 7.3030
11.6260	 7.5390
11.6530	 7.3180
11.6790	 7.5360
11.7050	 7.3470
11.7320	 7.4990
11.7580	 7.4420
11.7850	 7.6860
11.8120	 7.4680
11.8390	 7.6060
11.8660	 7.2990
11.8930	 7.5110
11.9200	 7.4040
11.9480	 7.6400
11.9760	 7.4800
12.0030	 7.5400
12.0310	 7.2200
12.0590	 7.4610
12.0870	 7.4720
12.1150	 7.6320
12.1440	 7.4580
12.1720	 7.6650
12.2010	 7.4070
12.2300	 7.6460
12.2590	 7.5100
12.2880	 7.6470
12.3170	 7.2790
12.3460	 7.5470
12.3760	 7.5360
12.4050	 7.7790
12.4350	 7.4490
12.4650	 7.6470
12.4950	 7.5120
12.5250	 7.7470
12.5550	 7.5400
12.5860	 7.7200
12.6170	 7.4850
12.6470	 7.7420
12.6780	 7.4210
12.7090	 7.5400
12.7410	 7.5390
12.7720	 7.8190
12.8030	 7.4670
12.8350	 7.5710
12.8670	 7.3520
12.8990	 7.5810
12.9310	 7.2200
12.9640	 7.4020
12.9960	 7.3660
13.0290	 7.6990
13.0610	 7.4100
13.0940	 7.5730
13.1280	 7.2590
13.1610	 7.4560
13.1940	 7.3030
13.2280	 7.7750
13.2620	 7.5120
13.2960	 7.5390
13.3300	 7.1410
13.3640	 7.3460
13.3990	 7.1850
13.4340	 7.5280
13.4690	 7.2640
13.5040	 7.4970
13.5390	 7.2230
13.5740	 7.3550
13.6100	 7.0320
13.6460	 7.5290
13.6820	 7.3810
13.7180	 7.5360
13.7540	 7.1460
13.7910	 7.4110
13.8280	 7.2220
13.8650	 7.6340
13.9020	 7.5450
13.9390	 7.7840
13.9770	 7.1450
14.0150	 7.3570
14.0530	 7.2430
14.0910	 7.4970
14.1290	 7.1400
14.1680	 7.5320
14.2070	 7.0840
14.2460	 7.4780
14.2850	 7.2240
14.3240	 7.4040
14.3640	 6.8550
14.4040	 7.1830
14.4440	 6.8800
14.4840	 7.1320
14.5250	 6.6880
14.5660	 7.0770
14.6070	 6.6510
14.6480	 7.2710
14.6900	 6.8790
14.7310	 7.0730
14.7730	 6.6260
14.8150	 7.0880
14.8580	 6.5130
14.9010	 7.1590
14.9440	 6.5180
14.9870	 6.9390
15.0300	 6.4070
15.0740	 7.1500
15.1180	 6.8150
15.1620	 7.4510
15.2060	 6.8320
15.2510	 7.1970
15.2960	 6.4640
15.3410	 6.9920
15.3870	 6.3120
