Name: Calocedrus decrruens 2
Type: vegetation
Class: Tree
Genus: Calocedrus
Species: decurrens
Sample No.: VH152
Owner: UCSB
Wavelength Range: VSWIR
Origin: 37.0441; -119.3033; WGS84
Collection Date: 6/8/2013
Description: Samples were collected as part of the HyspIRI Airborne Campaign. 48 individual plants were sampled in three times in 2013 - spring  summer  and fall. The name of the sample includes a 1  2  or 3 which references a different individual of the species. Samples were taken to JPL and processed within 48 hours of collection. The same leaves were processed in the Nicolet and then measured using the ASD.
Measurement: Bidirectional reflectance
First Column: X
Second Column: Y
X Units: Wavelength (micrometers)
Y Units: Reflectance (percentage)
First X Value: 0.35
Last X Value: 2.5
Number of X Values: 2151
Additional Information: vegetation.tree.calocedrus.decurrens.vswir.vh152.ucsb.asd.ancillary.txt

 0.3500	 3.6280
 0.3510	 3.6800
 0.3520	 3.6910
 0.3530	 3.5870
 0.3540	 3.4010
 0.3550	 3.3650
 0.3560	 3.4110
 0.3570	 3.4970
 0.3580	 3.5770
 0.3590	 3.5070
 0.3600	 3.4690
 0.3610	 3.5190
 0.3620	 3.5000
 0.3630	 3.4940
 0.3640	 3.4590
 0.3650	 3.3690
 0.3660	 3.3750
 0.3670	 3.4120
 0.3680	 3.4600
 0.3690	 3.5200
 0.3700	 3.4620
 0.3710	 3.3810
 0.3720	 3.3700
 0.3730	 3.4710
 0.3740	 3.5050
 0.3750	 3.4610
 0.3760	 3.4140
 0.3770	 3.4660
 0.3780	 3.4800
 0.3790	 3.4160
 0.3800	 3.3390
 0.3810	 3.3710
 0.3820	 3.4110
 0.3830	 3.4090
 0.3840	 3.5350
 0.3850	 3.5470
 0.3860	 3.4700
 0.3870	 3.4280
 0.3880	 3.5180
 0.3890	 3.5740
 0.3900	 3.5680
 0.3910	 3.6100
 0.3920	 3.6040
 0.3930	 3.6030
 0.3940	 3.6510
 0.3950	 3.6760
 0.3960	 3.6960
 0.3970	 3.7140
 0.3980	 3.7350
 0.3990	 3.7570
 0.4000	 3.8070
 0.4010	 3.8810
 0.4020	 3.9600
 0.4030	 4.0380
 0.4040	 4.0900
 0.4050	 4.1050
 0.4060	 4.1650
 0.4070	 4.1910
 0.4080	 4.1970
 0.4090	 4.2540
 0.4100	 4.3360
 0.4110	 4.3930
 0.4120	 4.4150
 0.4130	 4.4700
 0.4140	 4.5070
 0.4150	 4.5480
 0.4160	 4.6240
 0.4170	 4.6520
 0.4180	 4.6800
 0.4190	 4.7350
 0.4200	 4.7840
 0.4210	 4.8140
 0.4220	 4.8360
 0.4230	 4.8610
 0.4240	 4.8980
 0.4250	 4.9320
 0.4260	 4.9610
 0.4270	 4.9850
 0.4280	 4.9990
 0.4290	 5.0140
 0.4300	 5.0290
 0.4310	 5.0300
 0.4320	 5.0560
 0.4330	 5.0900
 0.4340	 5.1090
 0.4350	 5.1190
 0.4360	 5.1230
 0.4370	 5.1320
 0.4380	 5.1460
 0.4390	 5.1500
 0.4400	 5.1600
 0.4410	 5.1780
 0.4420	 5.1920
 0.4430	 5.2200
 0.4440	 5.2520
 0.4450	 5.2740
 0.4460	 5.2990
 0.4470	 5.3280
 0.4480	 5.3600
 0.4490	 5.3970
 0.4500	 5.4290
 0.4510	 5.4550
 0.4520	 5.4810
 0.4530	 5.5020
 0.4540	 5.5270
 0.4550	 5.5510
 0.4560	 5.5700
 0.4570	 5.5940
 0.4580	 5.6160
 0.4590	 5.6230
 0.4600	 5.6240
 0.4610	 5.6320
 0.4620	 5.6410
 0.4630	 5.6460
 0.4640	 5.6510
 0.4650	 5.6570
 0.4660	 5.6640
 0.4670	 5.6730
 0.4680	 5.6800
 0.4690	 5.6830
 0.4700	 5.6850
 0.4710	 5.6930
 0.4720	 5.6880
 0.4730	 5.6790
 0.4740	 5.6950
 0.4750	 5.7100
 0.4760	 5.7190
 0.4770	 5.7240
 0.4780	 5.7230
 0.4790	 5.7280
 0.4800	 5.7400
 0.4810	 5.7540
 0.4820	 5.7600
 0.4830	 5.7720
 0.4840	 5.7880
 0.4850	 5.8060
 0.4860	 5.8250
 0.4870	 5.8360
 0.4880	 5.8490
 0.4890	 5.8830
 0.4900	 5.9190
 0.4910	 5.9630
 0.4920	 6.0090
 0.4930	 6.0670
 0.4940	 6.1240
 0.4950	 6.1860
 0.4960	 6.2690
 0.4970	 6.3630
 0.4980	 6.4660
 0.4990	 6.5780
 0.5000	 6.7040
 0.5010	 6.8430
 0.5020	 6.9970
 0.5030	 7.1710
 0.5040	 7.3620
 0.5050	 7.5660
 0.5060	 7.7840
 0.5070	 8.0260
 0.5080	 8.2910
 0.5090	 8.5760
 0.5100	 8.8710
 0.5110	 9.1830
 0.5120	 9.5150
 0.5130	 9.8640
 0.5140	10.2240
 0.5150	10.6040
 0.5160	10.9930
 0.5170	11.3830
 0.5180	11.7780
 0.5190	12.1750
 0.5200	12.5710
 0.5210	12.9600
 0.5220	13.3340
 0.5230	13.6930
 0.5240	14.0380
 0.5250	14.3630
 0.5260	14.6680
 0.5270	14.9460
 0.5280	15.1910
 0.5290	15.4210
 0.5300	15.6300
 0.5310	15.8150
 0.5320	15.9840
 0.5330	16.1330
 0.5340	16.2620
 0.5350	16.3760
 0.5360	16.4760
 0.5370	16.5630
 0.5380	16.6390
 0.5390	16.7090
 0.5400	16.7720
 0.5410	16.8370
 0.5420	16.9070
 0.5430	16.9660
 0.5440	17.0230
 0.5450	17.0810
 0.5460	17.1340
 0.5470	17.1650
 0.5480	17.1900
 0.5490	17.2200
 0.5500	17.2520
 0.5510	17.2740
 0.5520	17.2820
 0.5530	17.2760
 0.5540	17.2490
 0.5550	17.1970
 0.5560	17.1240
 0.5570	17.0330
 0.5580	16.9230
 0.5590	16.7980
 0.5600	16.6600
 0.5610	16.5060
 0.5620	16.3440
 0.5630	16.1720
 0.5640	15.9840
 0.5650	15.7880
 0.5660	15.5820
 0.5670	15.3680
 0.5680	15.1440
 0.5690	14.9120
 0.5700	14.6780
 0.5710	14.4480
 0.5720	14.2220
 0.5730	14.0020
 0.5740	13.7960
 0.5750	13.6070
 0.5760	13.4310
 0.5770	13.2660
 0.5780	13.1070
 0.5790	12.9550
 0.5800	12.8120
 0.5810	12.6780
 0.5820	12.5490
 0.5830	12.4300
 0.5840	12.3110
 0.5850	12.1950
 0.5860	12.0870
 0.5870	11.9910
 0.5880	11.9030
 0.5890	11.8210
 0.5900	11.7380
 0.5910	11.6670
 0.5920	11.6050
 0.5930	11.5490
 0.5940	11.4950
 0.5950	11.4490
 0.5960	11.4090
 0.5970	11.3640
 0.5980	11.3220
 0.5990	11.2760
 0.6000	11.2270
 0.6010	11.1760
 0.6020	11.1210
 0.6030	11.0520
 0.6040	10.9740
 0.6050	10.8920
 0.6060	10.8060
 0.6070	10.7060
 0.6080	10.5980
 0.6090	10.4900
 0.6100	10.3850
 0.6110	10.2790
 0.6120	10.1580
 0.6130	10.0270
 0.6140	 9.9020
 0.6150	 9.7860
 0.6160	 9.6730
 0.6170	 9.5640
 0.6180	 9.4680
 0.6190	 9.3840
 0.6200	 9.3060
 0.6210	 9.2370
 0.6220	 9.1800
 0.6230	 9.1250
 0.6240	 9.0800
 0.6250	 9.0450
 0.6260	 9.0230
 0.6270	 8.9990
 0.6280	 8.9790
 0.6290	 8.9660
 0.6300	 8.9540
 0.6310	 8.9360
 0.6320	 8.9150
 0.6330	 8.8870
 0.6340	 8.8450
 0.6350	 8.7890
 0.6360	 8.7170
 0.6370	 8.6340
 0.6380	 8.5340
 0.6390	 8.4180
 0.6400	 8.2950
 0.6410	 8.1620
 0.6420	 8.0280
 0.6430	 7.8930
 0.6440	 7.7510
 0.6450	 7.6080
 0.6460	 7.4690
 0.6470	 7.3390
 0.6480	 7.2190
 0.6490	 7.1140
 0.6500	 7.0260
 0.6510	 6.9540
 0.6520	 6.8880
 0.6530	 6.8250
 0.6540	 6.7630
 0.6550	 6.7020
 0.6560	 6.6330
 0.6570	 6.5530
 0.6580	 6.4630
 0.6590	 6.3660
 0.6600	 6.2610
 0.6610	 6.1560
 0.6620	 6.0530
 0.6630	 5.9550
 0.6640	 5.8610
 0.6650	 5.7780
 0.6660	 5.7020
 0.6670	 5.6390
 0.6680	 5.5860
 0.6690	 5.5460
 0.6700	 5.5170
 0.6710	 5.4970
 0.6720	 5.4850
 0.6730	 5.4860
 0.6740	 5.4950
 0.6750	 5.5070
 0.6760	 5.5280
 0.6770	 5.5590
 0.6780	 5.5950
 0.6790	 5.6410
 0.6800	 5.7020
 0.6810	 5.7720
 0.6820	 5.8590
 0.6830	 5.9640
 0.6840	 6.0970
 0.6850	 6.2630
 0.6860	 6.4710
 0.6870	 6.7290
 0.6880	 7.0450
 0.6890	 7.4380
 0.6900	 7.9140
 0.6910	 8.4820
 0.6920	 9.1400
 0.6930	 9.8890
 0.6940	10.7250
 0.6950	11.6360
 0.6960	12.6170
 0.6970	13.6590
 0.6980	14.7520
 0.6990	15.8900
 0.7000	17.0610
 0.7010	18.2530
 0.7020	19.4540
 0.7030	20.6640
 0.7040	21.8790
 0.7050	23.0910
 0.7060	24.2950
 0.7070	25.4990
 0.7080	26.7020
 0.7090	27.9020
 0.7100	29.0960
 0.7110	30.2970
 0.7120	31.5040
 0.7130	32.6980
 0.7140	33.8970
 0.7150	35.1000
 0.7160	36.3010
 0.7170	37.5020
 0.7180	38.6990
 0.7190	39.8930
 0.7200	41.0840
 0.7210	42.2650
 0.7220	43.4400
 0.7230	44.6040
 0.7240	45.7420
 0.7250	46.8630
 0.7260	47.9660
 0.7270	49.0450
 0.7280	50.0950
 0.7290	51.1190
 0.7300	52.1150
 0.7310	53.0770
 0.7320	54.0080
 0.7330	54.9020
 0.7340	55.7590
 0.7350	56.5890
 0.7360	57.3850
 0.7370	58.1430
 0.7380	58.8640
 0.7390	59.5520
 0.7400	60.2040
 0.7410	60.8200
 0.7420	61.4000
 0.7430	61.9480
 0.7440	62.4610
 0.7450	62.9420
 0.7460	63.3900
 0.7470	63.8060
 0.7480	64.1860
 0.7490	64.5330
 0.7500	64.8630
 0.7510	65.1650
 0.7520	65.4380
 0.7530	65.6860
 0.7540	65.9160
 0.7550	66.1270
 0.7560	66.3210
 0.7570	66.4990
 0.7580	66.6580
 0.7590	66.8030
 0.7600	66.9390
 0.7610	67.0590
 0.7620	67.1680
 0.7630	67.2670
 0.7640	67.3560
 0.7650	67.4340
 0.7660	67.5040
 0.7670	67.5720
 0.7680	67.6390
 0.7690	67.6930
 0.7700	67.7430
 0.7710	67.7910
 0.7720	67.8290
 0.7730	67.8680
 0.7740	67.9050
 0.7750	67.9390
 0.7760	67.9780
 0.7770	68.0150
 0.7780	68.0440
 0.7790	68.0640
 0.7800	68.0920
 0.7810	68.1250
 0.7820	68.1560
 0.7830	68.1770
 0.7840	68.2000
 0.7850	68.2260
 0.7860	68.2540
 0.7870	68.2780
 0.7880	68.2970
 0.7890	68.3130
 0.7900	68.3330
 0.7910	68.3560
 0.7920	68.3740
 0.7930	68.3900
 0.7940	68.4090
 0.7950	68.4220
 0.7960	68.4380
 0.7970	68.4560
 0.7980	68.4670
 0.7990	68.4790
 0.8000	68.4890
 0.8010	68.4960
 0.8020	68.5180
 0.8030	68.5250
 0.8040	68.5260
 0.8050	68.5380
 0.8060	68.5390
 0.8070	68.5490
 0.8080	68.5630
 0.8090	68.5610
 0.8100	68.5670
 0.8110	68.5740
 0.8120	68.5750
 0.8130	68.5830
 0.8140	68.5860
 0.8150	68.5880
 0.8160	68.5900
 0.8170	68.5960
 0.8180	68.6020
 0.8190	68.6090
 0.8200	68.6190
 0.8210	68.6200
 0.8220	68.6210
 0.8230	68.6250
 0.8240	68.6300
 0.8250	68.6410
 0.8260	68.6400
 0.8270	68.6260
 0.8280	68.6250
 0.8290	68.6240
 0.8300	68.6230
 0.8310	68.6230
 0.8320	68.6200
 0.8330	68.6200
 0.8340	68.6230
 0.8350	68.6300
 0.8360	68.6370
 0.8370	68.6430
 0.8380	68.6490
 0.8390	68.6670
 0.8400	68.6820
 0.8410	68.6940
 0.8420	68.7050
 0.8430	68.7200
 0.8440	68.7290
 0.8450	68.7400
 0.8460	68.7540
 0.8470	68.7640
 0.8480	68.7820
 0.8490	68.7990
 0.8500	68.8090
 0.8510	68.8310
 0.8520	68.8480
 0.8530	68.8590
 0.8540	68.8720
 0.8550	68.8830
 0.8560	68.8970
 0.8570	68.9140
 0.8580	68.9270
 0.8590	68.9340
 0.8600	68.9440
 0.8610	68.9580
 0.8620	68.9660
 0.8630	68.9770
 0.8640	68.9890
 0.8650	68.9980
 0.8660	69.0080
 0.8670	69.0180
 0.8680	69.0260
 0.8690	69.0310
 0.8700	69.0400
 0.8710	69.0500
 0.8720	69.0570
 0.8730	69.0570
 0.8740	69.0630
 0.8750	69.0750
 0.8760	69.0840
 0.8770	69.0830
 0.8780	69.0830
 0.8790	69.0830
 0.8800	69.0830
 0.8810	69.0840
 0.8820	69.0900
 0.8830	69.0950
 0.8840	69.0940
 0.8850	69.0840
 0.8860	69.0790
 0.8870	69.0790
 0.8880	69.0750
 0.8890	69.0640
 0.8900	69.0560
 0.8910	69.0540
 0.8920	69.0550
 0.8930	69.0510
 0.8940	69.0370
 0.8950	69.0210
 0.8960	69.0220
 0.8970	69.0090
 0.8980	69.0000
 0.8990	68.9960
 0.9000	68.9800
 0.9010	68.9760
 0.9020	68.9720
 0.9030	68.9620
 0.9040	68.9490
 0.9050	68.9330
 0.9060	68.9230
 0.9070	68.9200
 0.9080	68.8950
 0.9090	68.8720
 0.9100	68.8540
 0.9110	68.8360
 0.9120	68.8140
 0.9130	68.7970
 0.9140	68.7840
 0.9150	68.7690
 0.9160	68.7510
 0.9170	68.7360
 0.9180	68.7190
 0.9190	68.6960
 0.9200	68.6760
 0.9210	68.6480
 0.9220	68.6160
 0.9230	68.5880
 0.9240	68.5670
 0.9250	68.5280
 0.9260	68.4750
 0.9270	68.4330
 0.9280	68.3930
 0.9290	68.3530
 0.9300	68.3060
 0.9310	68.2490
 0.9320	68.1820
 0.9330	68.1250
 0.9340	68.0740
 0.9350	68.0010
 0.9360	67.9340
 0.9370	67.8730
 0.9380	67.8090
 0.9390	67.7250
 0.9400	67.6450
 0.9410	67.5610
 0.9420	67.4690
 0.9430	67.3770
 0.9440	67.2710
 0.9450	67.1540
 0.9460	67.0330
 0.9470	66.9050
 0.9480	66.7740
 0.9490	66.6310
 0.9500	66.4690
 0.9510	66.2850
 0.9520	66.0960
 0.9530	65.9120
 0.9540	65.7350
 0.9550	65.5480
 0.9560	65.3780
 0.9570	65.2130
 0.9580	65.0390
 0.9590	64.8830
 0.9600	64.7420
 0.9610	64.6090
 0.9620	64.4840
 0.9630	64.3880
 0.9640	64.3110
 0.9650	64.2410
 0.9660	64.1680
 0.9670	64.1070
 0.9680	64.0430
 0.9690	63.9800
 0.9700	63.9290
 0.9710	63.8820
 0.9720	63.8460
 0.9730	63.8200
 0.9740	63.7970
 0.9750	63.7540
 0.9760	63.7190
 0.9770	63.7010
 0.9780	63.6920
 0.9790	63.6780
 0.9800	63.6960
 0.9810	63.7210
 0.9820	63.7140
 0.9830	63.7000
 0.9840	63.7130
 0.9850	63.7430
 0.9860	63.7620
 0.9870	63.7850
 0.9880	63.8230
 0.9890	63.8670
 0.9900	63.9030
 0.9910	63.9500
 0.9920	63.9910
 0.9930	64.0380
 0.9940	64.1080
 0.9950	64.1560
 0.9960	64.2240
 0.9970	64.2970
 0.9980	64.3460
 0.9990	64.4120
 1.0000	64.6140
 1.0010	64.9380
 1.0020	65.1670
 1.0030	65.2310
 1.0040	65.2900
 1.0050	65.3610
 1.0060	65.4320
 1.0070	65.5070
 1.0080	65.5830
 1.0090	65.6600
 1.0100	65.7350
 1.0110	65.8090
 1.0120	65.8840
 1.0130	65.9610
 1.0140	66.0350
 1.0150	66.1080
 1.0160	66.1780
 1.0170	66.2470
 1.0180	66.3210
 1.0190	66.3990
 1.0200	66.4790
 1.0210	66.5520
 1.0220	66.6200
 1.0230	66.6900
 1.0240	66.7530
 1.0250	66.8230
 1.0260	66.9000
 1.0270	66.9710
 1.0280	67.0430
 1.0290	67.1120
 1.0300	67.1790
 1.0310	67.2440
 1.0320	67.3060
 1.0330	67.3720
 1.0340	67.4390
 1.0350	67.4990
 1.0360	67.5590
 1.0370	67.6190
 1.0380	67.6810
 1.0390	67.7430
 1.0400	67.8040
 1.0410	67.8700
 1.0420	67.9290
 1.0430	67.9870
 1.0440	68.0420
 1.0450	68.0960
 1.0460	68.1460
 1.0470	68.1910
 1.0480	68.2350
 1.0490	68.2750
 1.0500	68.3150
 1.0510	68.3570
 1.0520	68.3960
 1.0530	68.4340
 1.0540	68.4720
 1.0550	68.5070
 1.0560	68.5400
 1.0570	68.5730
 1.0580	68.6070
 1.0590	68.6360
 1.0600	68.6590
 1.0610	68.6850
 1.0620	68.7110
 1.0630	68.7330
 1.0640	68.7540
 1.0650	68.7740
 1.0660	68.7880
 1.0670	68.8030
 1.0680	68.8180
 1.0690	68.8370
 1.0700	68.8470
 1.0710	68.8550
 1.0720	68.8600
 1.0730	68.8600
 1.0740	68.8610
 1.0750	68.8600
 1.0760	68.8600
 1.0770	68.8610
 1.0780	68.8600
 1.0790	68.8590
 1.0800	68.8560
 1.0810	68.8510
 1.0820	68.8430
 1.0830	68.8350
 1.0840	68.8240
 1.0850	68.8090
 1.0860	68.7930
 1.0870	68.7760
 1.0880	68.7570
 1.0890	68.7380
 1.0900	68.7200
 1.0910	68.6960
 1.0920	68.6700
 1.0930	68.6440
 1.0940	68.6140
 1.0950	68.5840
 1.0960	68.5540
 1.0970	68.5210
 1.0980	68.4860
 1.0990	68.4490
 1.1000	68.4110
 1.1010	68.3720
 1.1020	68.3320
 1.1030	68.2890
 1.1040	68.2440
 1.1050	68.2030
 1.1060	68.1600
 1.1070	68.1170
 1.1080	68.0720
 1.1090	68.0270
 1.1100	67.9790
 1.1110	67.9290
 1.1120	67.8760
 1.1130	67.8200
 1.1140	67.7610
 1.1150	67.7000
 1.1160	67.6320
 1.1170	67.5620
 1.1180	67.4840
 1.1190	67.4020
 1.1200	67.3090
 1.1210	67.2100
 1.1220	67.1040
 1.1230	66.9840
 1.1240	66.8560
 1.1250	66.7100
 1.1260	66.5540
 1.1270	66.3760
 1.1280	66.1820
 1.1290	65.9700
 1.1300	65.7420
 1.1310	65.4940
 1.1320	65.2300
 1.1330	64.9480
 1.1340	64.6470
 1.1350	64.3300
 1.1360	63.9990
 1.1370	63.6500
 1.1380	63.2890
 1.1390	62.9170
 1.1400	62.5310
 1.1410	62.1500
 1.1420	61.7700
 1.1430	61.3890
 1.1440	61.0160
 1.1450	60.6450
 1.1460	60.2860
 1.1470	59.9280
 1.1480	59.5900
 1.1490	59.2630
 1.1500	58.9550
 1.1510	58.6600
 1.1520	58.3830
 1.1530	58.1230
 1.1540	57.8820
 1.1550	57.6590
 1.1560	57.4550
 1.1570	57.2690
 1.1580	57.1000
 1.1590	56.9450
 1.1600	56.8000
 1.1610	56.6700
 1.1620	56.5490
 1.1630	56.4380
 1.1640	56.3400
 1.1650	56.2470
 1.1660	56.1630
 1.1670	56.0820
 1.1680	56.0080
 1.1690	55.9370
 1.1700	55.8740
 1.1710	55.8090
 1.1720	55.7500
 1.1730	55.6880
 1.1740	55.6240
 1.1750	55.5600
 1.1760	55.4970
 1.1770	55.4320
 1.1780	55.3630
 1.1790	55.2910
 1.1800	55.2190
 1.1810	55.1440
 1.1820	55.0710
 1.1830	55.0040
 1.1840	54.9370
 1.1850	54.8660
 1.1860	54.7940
 1.1870	54.7230
 1.1880	54.6570
 1.1890	54.5930
 1.1900	54.5320
 1.1910	54.4740
 1.1920	54.4190
 1.1930	54.3640
 1.1940	54.3160
 1.1950	54.2710
 1.1960	54.2340
 1.1970	54.2020
 1.1980	54.1760
 1.1990	54.1580
 1.2000	54.1490
 1.2010	54.1430
 1.2020	54.1450
 1.2030	54.1530
 1.2040	54.1690
 1.2050	54.1950
 1.2060	54.2270
 1.2070	54.2660
 1.2080	54.3110
 1.2090	54.3590
 1.2100	54.4140
 1.2110	54.4740
 1.2120	54.5400
 1.2130	54.6120
 1.2140	54.6910
 1.2150	54.7740
 1.2160	54.8630
 1.2170	54.9530
 1.2180	55.0470
 1.2190	55.1450
 1.2200	55.2450
 1.2210	55.3470
 1.2220	55.4490
 1.2230	55.5490
 1.2240	55.6530
 1.2250	55.7530
 1.2260	55.8510
 1.2270	55.9510
 1.2280	56.0470
 1.2290	56.1420
 1.2300	56.2340
 1.2310	56.3200
 1.2320	56.4050
 1.2330	56.4840
 1.2340	56.5630
 1.2350	56.6390
 1.2360	56.7140
 1.2370	56.7860
 1.2380	56.8600
 1.2390	56.9290
 1.2400	56.9950
 1.2410	57.0610
 1.2420	57.1210
 1.2430	57.1820
 1.2440	57.2410
 1.2450	57.2950
 1.2460	57.3480
 1.2470	57.3980
 1.2480	57.4460
 1.2490	57.4960
 1.2500	57.5400
 1.2510	57.5790
 1.2520	57.6170
 1.2530	57.6540
 1.2540	57.6900
 1.2550	57.7250
 1.2560	57.7600
 1.2570	57.7930
 1.2580	57.8230
 1.2590	57.8500
 1.2600	57.8770
 1.2610	57.8970
 1.2620	57.9130
 1.2630	57.9260
 1.2640	57.9400
 1.2650	57.9510
 1.2660	57.9600
 1.2670	57.9670
 1.2680	57.9710
 1.2690	57.9720
 1.2700	57.9710
 1.2710	57.9690
 1.2720	57.9660
 1.2730	57.9600
 1.2740	57.9520
 1.2750	57.9410
 1.2760	57.9270
 1.2770	57.9130
 1.2780	57.8940
 1.2790	57.8740
 1.2800	57.8520
 1.2810	57.8240
 1.2820	57.7940
 1.2830	57.7620
 1.2840	57.7250
 1.2850	57.6840
 1.2860	57.6410
 1.2870	57.5920
 1.2880	57.5370
 1.2890	57.4780
 1.2900	57.4160
 1.2910	57.3470
 1.2920	57.2770
 1.2930	57.2020
 1.2940	57.1210
 1.2950	57.0370
 1.2960	56.9460
 1.2970	56.8510
 1.2980	56.7500
 1.2990	56.6430
 1.3000	56.5340
 1.3010	56.4200
 1.3020	56.2990
 1.3030	56.1740
 1.3040	56.0440
 1.3050	55.9070
 1.3060	55.7660
 1.3070	55.6200
 1.3080	55.4680
 1.3090	55.3100
 1.3100	55.1470
 1.3110	54.9790
 1.3120	54.8040
 1.3130	54.6270
 1.3140	54.4420
 1.3150	54.2520
 1.3160	54.0570
 1.3170	53.8600
 1.3180	53.6550
 1.3190	53.4440
 1.3200	53.2320
 1.3210	53.0120
 1.3220	52.7890
 1.3230	52.5630
 1.3240	52.3320
 1.3250	52.0980
 1.3260	51.8620
 1.3270	51.6210
 1.3280	51.3800
 1.3290	51.1350
 1.3300	50.8900
 1.3310	50.6470
 1.3320	50.4020
 1.3330	50.1560
 1.3340	49.9130
 1.3350	49.6670
 1.3360	49.4200
 1.3370	49.1760
 1.3380	48.9320
 1.3390	48.6900
 1.3400	48.4520
 1.3410	48.2190
 1.3420	47.9890
 1.3430	47.7620
 1.3440	47.5380
 1.3450	47.3180
 1.3460	47.0990
 1.3470	46.8860
 1.3480	46.6770
 1.3490	46.4720
 1.3500	46.2720
 1.3510	46.0740
 1.3520	45.8760
 1.3530	45.6800
 1.3540	45.4850
 1.3550	45.2910
 1.3560	45.0980
 1.3570	44.9040
 1.3580	44.7080
 1.3590	44.5090
 1.3600	44.3040
 1.3610	44.0970
 1.3620	43.8850
 1.3630	43.6660
 1.3640	43.4410
 1.3650	43.2070
 1.3660	42.9640
 1.3670	42.7130
 1.3680	42.4500
 1.3690	42.1750
 1.3700	41.8840
 1.3710	41.5790
 1.3720	41.2580
 1.3730	40.9200
 1.3740	40.5660
 1.3750	40.1910
 1.3760	39.7930
 1.3770	39.3740
 1.3780	38.9260
 1.3790	38.4550
 1.3800	37.9630
 1.3810	37.4440
 1.3820	36.9090
 1.3830	36.3540
 1.3840	35.7840
 1.3850	35.1950
 1.3860	34.5960
 1.3870	33.9780
 1.3880	33.3610
 1.3890	32.7340
 1.3900	32.1000
 1.3910	31.4740
 1.3920	30.8450
 1.3930	30.2150
 1.3940	29.5950
 1.3950	28.9740
 1.3960	28.3640
 1.3970	27.7700
 1.3980	27.1880
 1.3990	26.6280
 1.4000	26.0840
 1.4010	25.5550
 1.4020	25.0480
 1.4030	24.5560
 1.4040	24.0850
 1.4050	23.6370
 1.4060	23.2080
 1.4070	22.8050
 1.4080	22.4220
 1.4090	22.0570
 1.4100	21.7140
 1.4110	21.3880
 1.4120	21.0810
 1.4130	20.7940
 1.4140	20.5220
 1.4150	20.2720
 1.4160	20.0380
 1.4170	19.8170
 1.4180	19.6130
 1.4190	19.4190
 1.4200	19.2380
 1.4210	19.0700
 1.4220	18.9120
 1.4230	18.7680
 1.4240	18.6340
 1.4250	18.5080
 1.4260	18.3940
 1.4270	18.2870
 1.4280	18.1890
 1.4290	18.0970
 1.4300	18.0140
 1.4310	17.9370
 1.4320	17.8690
 1.4330	17.8060
 1.4340	17.7500
 1.4350	17.6990
 1.4360	17.6540
 1.4370	17.6150
 1.4380	17.5820
 1.4390	17.5530
 1.4400	17.5290
 1.4410	17.5090
 1.4420	17.4930
 1.4430	17.4810
 1.4440	17.4720
 1.4450	17.4670
 1.4460	17.4640
 1.4470	17.4640
 1.4480	17.4670
 1.4490	17.4720
 1.4500	17.4780
 1.4510	17.4860
 1.4520	17.4970
 1.4530	17.5090
 1.4540	17.5250
 1.4550	17.5420
 1.4560	17.5610
 1.4570	17.5830
 1.4580	17.6080
 1.4590	17.6360
 1.4600	17.6700
 1.4610	17.7070
 1.4620	17.7470
 1.4630	17.7930
 1.4640	17.8410
 1.4650	17.8950
 1.4660	17.9530
 1.4670	18.0150
 1.4680	18.0830
 1.4690	18.1550
 1.4700	18.2320
 1.4710	18.3130
 1.4720	18.3980
 1.4730	18.4860
 1.4740	18.5780
 1.4750	18.6720
 1.4760	18.7700
 1.4770	18.8720
 1.4780	18.9750
 1.4790	19.0810
 1.4800	19.1890
 1.4810	19.2970
 1.4820	19.4080
 1.4830	19.5210
 1.4840	19.6360
 1.4850	19.7520
 1.4860	19.8700
 1.4870	19.9890
 1.4880	20.1090
 1.4890	20.2300
 1.4900	20.3510
 1.4910	20.4740
 1.4920	20.5980
 1.4930	20.7230
 1.4940	20.8490
 1.4950	20.9750
 1.4960	21.1010
 1.4970	21.2260
 1.4980	21.3520
 1.4990	21.4790
 1.5000	21.6060
 1.5010	21.7340
 1.5020	21.8610
 1.5030	21.9860
 1.5040	22.1120
 1.5050	22.2380
 1.5060	22.3640
 1.5070	22.4920
 1.5080	22.6180
 1.5090	22.7450
 1.5100	22.8700
 1.5110	22.9940
 1.5120	23.1180
 1.5130	23.2400
 1.5140	23.3610
 1.5150	23.4840
 1.5160	23.6040
 1.5170	23.7270
 1.5180	23.8470
 1.5190	23.9660
 1.5200	24.0860
 1.5210	24.2020
 1.5220	24.3170
 1.5230	24.4330
 1.5240	24.5470
 1.5250	24.6590
 1.5260	24.7710
 1.5270	24.8810
 1.5280	24.9920
 1.5290	25.1010
 1.5300	25.2100
 1.5310	25.3160
 1.5320	25.4200
 1.5330	25.5230
 1.5340	25.6250
 1.5350	25.7260
 1.5360	25.8280
 1.5370	25.9290
 1.5380	26.0290
 1.5390	26.1290
 1.5400	26.2290
 1.5410	26.3290
 1.5420	26.4280
 1.5430	26.5260
 1.5440	26.6260
 1.5450	26.7210
 1.5460	26.8160
 1.5470	26.9120
 1.5480	27.0060
 1.5490	27.1010
 1.5500	27.1970
 1.5510	27.2900
 1.5520	27.3820
 1.5530	27.4720
 1.5540	27.5610
 1.5550	27.6500
 1.5560	27.7390
 1.5570	27.8280
 1.5580	27.9160
 1.5590	28.0030
 1.5600	28.0900
 1.5610	28.1770
 1.5620	28.2620
 1.5630	28.3460
 1.5640	28.4300
 1.5650	28.5140
 1.5660	28.5960
 1.5670	28.6800
 1.5680	28.7640
 1.5690	28.8440
 1.5700	28.9250
 1.5710	29.0060
 1.5720	29.0840
 1.5730	29.1660
 1.5740	29.2450
 1.5750	29.3230
 1.5760	29.4030
 1.5770	29.4810
 1.5780	29.5610
 1.5790	29.6420
 1.5800	29.7210
 1.5810	29.8000
 1.5820	29.8790
 1.5830	29.9560
 1.5840	30.0350
 1.5850	30.1150
 1.5860	30.1930
 1.5870	30.2710
 1.5880	30.3490
 1.5890	30.4270
 1.5900	30.5080
 1.5910	30.5890
 1.5920	30.6710
 1.5930	30.7520
 1.5940	30.8310
 1.5950	30.9120
 1.5960	30.9920
 1.5970	31.0720
 1.5980	31.1530
 1.5990	31.2350
 1.6000	31.3150
 1.6010	31.3960
 1.6020	31.4760
 1.6030	31.5550
 1.6040	31.6340
 1.6050	31.7140
 1.6060	31.7930
 1.6070	31.8720
 1.6080	31.9500
 1.6090	32.0260
 1.6100	32.1020
 1.6110	32.1780
 1.6120	32.2530
 1.6130	32.3280
 1.6140	32.3990
 1.6150	32.4690
 1.6160	32.5390
 1.6170	32.6040
 1.6180	32.6700
 1.6190	32.7370
 1.6200	32.8000
 1.6210	32.8620
 1.6220	32.9230
 1.6230	32.9840
 1.6240	33.0430
 1.6250	33.1010
 1.6260	33.1600
 1.6270	33.2170
 1.6280	33.2710
 1.6290	33.3270
 1.6300	33.3820
 1.6310	33.4380
 1.6320	33.4930
 1.6330	33.5480
 1.6340	33.6030
 1.6350	33.6560
 1.6360	33.7090
 1.6370	33.7610
 1.6380	33.8110
 1.6390	33.8590
 1.6400	33.9060
 1.6410	33.9500
 1.6420	33.9910
 1.6430	34.0310
 1.6440	34.0700
 1.6450	34.1070
 1.6460	34.1400
 1.6470	34.1690
 1.6480	34.1950
 1.6490	34.2200
 1.6500	34.2420
 1.6510	34.2600
 1.6520	34.2750
 1.6530	34.2850
 1.6540	34.2940
 1.6550	34.3020
 1.6560	34.3070
 1.6570	34.3110
 1.6580	34.3120
 1.6590	34.3110
 1.6600	34.3080
 1.6610	34.3040
 1.6620	34.2960
 1.6630	34.2880
 1.6640	34.2800
 1.6650	34.2700
 1.6660	34.2600
 1.6670	34.2510
 1.6680	34.2380
 1.6690	34.2240
 1.6700	34.2110
 1.6710	34.1960
 1.6720	34.1790
 1.6730	34.1630
 1.6740	34.1440
 1.6750	34.1220
 1.6760	34.0960
 1.6770	34.0650
 1.6780	34.0320
 1.6790	33.9950
 1.6800	33.9540
 1.6810	33.9110
 1.6820	33.8610
 1.6830	33.8060
 1.6840	33.7470
 1.6850	33.6810
 1.6860	33.6110
 1.6870	33.5380
 1.6880	33.4620
 1.6890	33.3850
 1.6900	33.3040
 1.6910	33.2180
 1.6920	33.1310
 1.6930	33.0380
 1.6940	32.9470
 1.6950	32.8570
 1.6960	32.7650
 1.6970	32.6740
 1.6980	32.5810
 1.6990	32.4880
 1.7000	32.3950
 1.7010	32.3010
 1.7020	32.2080
 1.7030	32.1180
 1.7040	32.0280
 1.7050	31.9390
 1.7060	31.8520
 1.7070	31.7670
 1.7080	31.6830
 1.7090	31.6020
 1.7100	31.5240
 1.7110	31.4470
 1.7120	31.3750
 1.7130	31.3060
 1.7140	31.2410
 1.7150	31.1790
 1.7160	31.1200
 1.7170	31.0610
 1.7180	31.0060
 1.7190	30.9550
 1.7200	30.9030
 1.7210	30.8550
 1.7220	30.8070
 1.7230	30.7590
 1.7240	30.7140
 1.7250	30.6710
 1.7260	30.6300
 1.7270	30.5910
 1.7280	30.5590
 1.7290	30.5300
 1.7300	30.5070
 1.7310	30.4860
 1.7320	30.4700
 1.7330	30.4530
 1.7340	30.4420
 1.7350	30.4230
 1.7360	30.4030
 1.7370	30.3760
 1.7380	30.3440
 1.7390	30.3080
 1.7400	30.2670
 1.7410	30.2200
 1.7420	30.1670
 1.7430	30.1100
 1.7440	30.0460
 1.7450	29.9810
 1.7460	29.9100
 1.7470	29.8410
 1.7480	29.7670
 1.7490	29.6970
 1.7500	29.6280
 1.7510	29.5580
 1.7520	29.4900
 1.7530	29.4240
 1.7540	29.3580
 1.7550	29.2970
 1.7560	29.2380
 1.7570	29.1770
 1.7580	29.1210
 1.7590	29.0700
 1.7600	29.0200
 1.7610	28.9760
 1.7620	28.9330
 1.7630	28.8910
 1.7640	28.8530
 1.7650	28.8190
 1.7660	28.7850
 1.7670	28.7540
 1.7680	28.7230
 1.7690	28.6940
 1.7700	28.6660
 1.7710	28.6390
 1.7720	28.6130
 1.7730	28.5870
 1.7740	28.5630
 1.7750	28.5390
 1.7760	28.5180
 1.7770	28.4960
 1.7780	28.4780
 1.7790	28.4620
 1.7800	28.4490
 1.7810	28.4390
 1.7820	28.4310
 1.7830	28.4250
 1.7840	28.4220
 1.7850	28.4200
 1.7860	28.4220
 1.7870	28.4270
 1.7880	28.4350
 1.7890	28.4460
 1.7900	28.4590
 1.7910	28.4730
 1.7920	28.4890
 1.7930	28.5060
 1.7940	28.5230
 1.7950	28.5400
 1.7960	28.5600
 1.7970	28.5790
 1.7980	28.5980
 1.7990	28.6180
 1.8000	28.6390
 1.8010	28.6590
 1.8020	28.6790
 1.8030	28.6990
 1.8040	28.7190
 1.8050	28.7400
 1.8060	28.7610
 1.8070	28.7830
 1.8080	28.8060
 1.8090	28.8280
 1.8100	28.8500
 1.8110	28.8690
 1.8120	28.8880
 1.8130	28.9030
 1.8140	28.9170
 1.8150	28.9310
 1.8160	28.9440
 1.8170	28.9580
 1.8180	28.9720
 1.8190	28.9810
 1.8200	28.9920
 1.8210	29.0050
 1.8220	29.0150
 1.8230	29.0240
 1.8240	29.0320
 1.8250	29.0380
 1.8260	29.0410
 1.8270	29.0430
 1.8280	29.0440
 1.8290	29.0410
 1.8300	29.0200
 1.8310	28.9850
 1.8320	28.9520
 1.8330	28.9370
 1.8340	28.9190
 1.8350	28.8970
 1.8360	28.8740
 1.8370	28.8420
 1.8380	28.8050
 1.8390	28.7620
 1.8400	28.7130
 1.8410	28.6580
 1.8420	28.5990
 1.8430	28.5320
 1.8440	28.4580
 1.8450	28.3740
 1.8460	28.2800
 1.8470	28.1780
 1.8480	28.0650
 1.8490	27.9440
 1.8500	27.8110
 1.8510	27.6700
 1.8520	27.5170
 1.8530	27.3520
 1.8540	27.1730
 1.8550	26.9850
 1.8560	26.7810
 1.8570	26.5600
 1.8580	26.3260
 1.8590	26.0780
 1.8600	25.8140
 1.8610	25.5350
 1.8620	25.2420
 1.8630	24.9330
 1.8640	24.6060
 1.8650	24.2570
 1.8660	23.8900
 1.8670	23.4990
 1.8680	23.0880
 1.8690	22.6620
 1.8700	22.2180
 1.8710	21.7540
 1.8720	21.2820
 1.8730	20.7960
 1.8740	20.2960
 1.8750	19.7850
 1.8760	19.2570
 1.8770	18.7230
 1.8780	18.1850
 1.8790	17.6390
 1.8800	17.0980
 1.8810	16.5580
 1.8820	16.0140
 1.8830	15.4660
 1.8840	14.9230
 1.8850	14.3820
 1.8860	13.8480
 1.8870	13.3270
 1.8880	12.8170
 1.8890	12.3200
 1.8900	11.8400
 1.8910	11.3770
 1.8920	10.9300
 1.8930	10.5030
 1.8940	10.0980
 1.8950	 9.7170
 1.8960	 9.3590
 1.8970	 9.0210
 1.8980	 8.7040
 1.8990	 8.4080
 1.9000	 8.1330
 1.9010	 7.8800
 1.9020	 7.6460
 1.9030	 7.4320
 1.9040	 7.2320
 1.9050	 7.0530
 1.9060	 6.8930
 1.9070	 6.7460
 1.9080	 6.6160
 1.9090	 6.4960
 1.9100	 6.3880
 1.9110	 6.2880
 1.9120	 6.1990
 1.9130	 6.1190
 1.9140	 6.0470
 1.9150	 5.9810
 1.9160	 5.9250
 1.9170	 5.8740
 1.9180	 5.8290
 1.9190	 5.7860
 1.9200	 5.7510
 1.9210	 5.7220
 1.9220	 5.6960
 1.9230	 5.6750
 1.9240	 5.6560
 1.9250	 5.6430
 1.9260	 5.6300
 1.9270	 5.6230
 1.9280	 5.6190
 1.9290	 5.6220
 1.9300	 5.6250
 1.9310	 5.6300
 1.9320	 5.6360
 1.9330	 5.6470
 1.9340	 5.6560
 1.9350	 5.6690
 1.9360	 5.6920
 1.9370	 5.7130
 1.9380	 5.7410
 1.9390	 5.7710
 1.9400	 5.8020
 1.9410	 5.8330
 1.9420	 5.8630
 1.9430	 5.8980
 1.9440	 5.9340
 1.9450	 5.9690
 1.9460	 6.0070
 1.9470	 6.0540
 1.9480	 6.0960
 1.9490	 6.1410
 1.9500	 6.1870
 1.9510	 6.2330
 1.9520	 6.2800
 1.9530	 6.3280
 1.9540	 6.3800
 1.9550	 6.4330
 1.9560	 6.4910
 1.9570	 6.5490
 1.9580	 6.6080
 1.9590	 6.6650
 1.9600	 6.7280
 1.9610	 6.7880
 1.9620	 6.8480
 1.9630	 6.9100
 1.9640	 6.9750
 1.9650	 7.0380
 1.9660	 7.1060
 1.9670	 7.1750
 1.9680	 7.2440
 1.9690	 7.3090
 1.9700	 7.3760
 1.9710	 7.4450
 1.9720	 7.5150
 1.9730	 7.5900
 1.9740	 7.6630
 1.9750	 7.7410
 1.9760	 7.8180
 1.9770	 7.8880
 1.9780	 7.9650
 1.9790	 8.0400
 1.9800	 8.1150
 1.9810	 8.1930
 1.9820	 8.2710
 1.9830	 8.3490
 1.9840	 8.4210
 1.9850	 8.4990
 1.9860	 8.5790
 1.9870	 8.6580
 1.9880	 8.7380
 1.9890	 8.8210
 1.9900	 8.9030
 1.9910	 8.9850
 1.9920	 9.0680
 1.9930	 9.1510
 1.9940	 9.2330
 1.9950	 9.3110
 1.9960	 9.3910
 1.9970	 9.4700
 1.9980	 9.5500
 1.9990	 9.6310
 2.0000	 9.7130
 2.0010	 9.7900
 2.0020	 9.8690
 2.0030	 9.9470
 2.0040	10.0260
 2.0050	10.1030
 2.0060	10.1790
 2.0070	10.2560
 2.0080	10.3300
 2.0090	10.4040
 2.0100	10.4840
 2.0110	10.5590
 2.0120	10.6350
 2.0130	10.7070
 2.0140	10.7770
 2.0150	10.8470
 2.0160	10.9150
 2.0170	10.9840
 2.0180	11.0520
 2.0190	11.1220
 2.0200	11.1900
 2.0210	11.2590
 2.0220	11.3230
 2.0230	11.3850
 2.0240	11.4490
 2.0250	11.5120
 2.0260	11.5690
 2.0270	11.6280
 2.0280	11.6840
 2.0290	11.7410
 2.0300	11.7950
 2.0310	11.8460
 2.0320	11.8990
 2.0330	11.9500
 2.0340	11.9990
 2.0350	12.0480
 2.0360	12.0970
 2.0370	12.1450
 2.0380	12.1910
 2.0390	12.2350
 2.0400	12.2790
 2.0410	12.3230
 2.0420	12.3670
 2.0430	12.4100
 2.0440	12.4510
 2.0450	12.4940
 2.0460	12.5320
 2.0470	12.5670
 2.0480	12.6040
 2.0490	12.6400
 2.0500	12.6770
 2.0510	12.7160
 2.0520	12.7520
 2.0530	12.7840
 2.0540	12.8180
 2.0550	12.8510
 2.0560	12.8840
 2.0570	12.9200
 2.0580	12.9560
 2.0590	12.9900
 2.0600	13.0250
 2.0610	13.0580
 2.0620	13.0900
 2.0630	13.1230
 2.0640	13.1580
 2.0650	13.1910
 2.0660	13.2230
 2.0670	13.2560
 2.0680	13.2880
 2.0690	13.3210
 2.0700	13.3540
 2.0710	13.3870
 2.0720	13.4190
 2.0730	13.4490
 2.0740	13.4800
 2.0750	13.5110
 2.0760	13.5440
 2.0770	13.5790
 2.0780	13.6130
 2.0790	13.6460
 2.0800	13.6800
 2.0810	13.7140
 2.0820	13.7480
 2.0830	13.7840
 2.0840	13.8190
 2.0850	13.8520
 2.0860	13.8860
 2.0870	13.9230
 2.0880	13.9580
 2.0890	13.9940
 2.0900	14.0320
 2.0910	14.0690
 2.0920	14.1050
 2.0930	14.1430
 2.0940	14.1810
 2.0950	14.2180
 2.0960	14.2530
 2.0970	14.2900
 2.0980	14.3250
 2.0990	14.3620
 2.1000	14.4030
 2.1010	14.4410
 2.1020	14.4760
 2.1030	14.5150
 2.1040	14.5530
 2.1050	14.5940
 2.1060	14.6380
 2.1070	14.6870
 2.1080	14.7310
 2.1090	14.7750
 2.1100	14.8180
 2.1110	14.8600
 2.1120	14.9030
 2.1130	14.9480
 2.1140	14.9910
 2.1150	15.0320
 2.1160	15.0740
 2.1170	15.1160
 2.1180	15.1610
 2.1190	15.2090
 2.1200	15.2550
 2.1210	15.3020
 2.1220	15.3450
 2.1230	15.3880
 2.1240	15.4270
 2.1250	15.4700
 2.1260	15.5140
 2.1270	15.5550
 2.1280	15.5940
 2.1290	15.6330
 2.1300	15.6690
 2.1310	15.7090
 2.1320	15.7530
 2.1330	15.7950
 2.1340	15.8380
 2.1350	15.8790
 2.1360	15.9180
 2.1370	15.9580
 2.1380	15.9950
 2.1390	16.0340
 2.1400	16.0750
 2.1410	16.1160
 2.1420	16.1580
 2.1430	16.2020
 2.1440	16.2430
 2.1450	16.2830
 2.1460	16.3230
 2.1470	16.3600
 2.1480	16.4000
 2.1490	16.4390
 2.1500	16.4780
 2.1510	16.5180
 2.1520	16.5580
 2.1530	16.5990
 2.1540	16.6380
 2.1550	16.6790
 2.1560	16.7180
 2.1570	16.7550
 2.1580	16.7920
 2.1590	16.8270
 2.1600	16.8610
 2.1610	16.8960
 2.1620	16.9360
 2.1630	16.9740
 2.1640	17.0150
 2.1650	17.0510
 2.1660	17.0850
 2.1670	17.1210
 2.1680	17.1560
 2.1690	17.1920
 2.1700	17.2310
 2.1710	17.2660
 2.1720	17.3010
 2.1730	17.3360
 2.1740	17.3700
 2.1750	17.4060
 2.1760	17.4430
 2.1770	17.4790
 2.1780	17.5140
 2.1790	17.5480
 2.1800	17.5820
 2.1810	17.6160
 2.1820	17.6510
 2.1830	17.6820
 2.1840	17.7150
 2.1850	17.7480
 2.1860	17.7810
 2.1870	17.8150
 2.1880	17.8470
 2.1890	17.8780
 2.1900	17.9090
 2.1910	17.9380
 2.1920	17.9670
 2.1930	17.9990
 2.1940	18.0270
 2.1950	18.0520
 2.1960	18.0790
 2.1970	18.1060
 2.1980	18.1320
 2.1990	18.1610
 2.2000	18.1850
 2.2010	18.2030
 2.2020	18.2240
 2.2030	18.2430
 2.2040	18.2610
 2.2050	18.2780
 2.2060	18.2970
 2.2070	18.3130
 2.2080	18.3250
 2.2090	18.3380
 2.2100	18.3500
 2.2110	18.3600
 2.2120	18.3680
 2.2130	18.3760
 2.2140	18.3840
 2.2150	18.3880
 2.2160	18.3910
 2.2170	18.3930
 2.2180	18.3920
 2.2190	18.3880
 2.2200	18.3870
 2.2210	18.3790
 2.2220	18.3650
 2.2230	18.3490
 2.2240	18.3300
 2.2250	18.3080
 2.2260	18.2850
 2.2270	18.2570
 2.2280	18.2260
 2.2290	18.1920
 2.2300	18.1540
 2.2310	18.1110
 2.2320	18.0670
 2.2330	18.0220
 2.2340	17.9750
 2.2350	17.9280
 2.2360	17.8770
 2.2370	17.8250
 2.2380	17.7670
 2.2390	17.7010
 2.2400	17.6360
 2.2410	17.5670
 2.2420	17.4970
 2.2430	17.4260
 2.2440	17.3490
 2.2450	17.2680
 2.2460	17.1860
 2.2470	17.0990
 2.2480	17.0150
 2.2490	16.9320
 2.2500	16.8470
 2.2510	16.7670
 2.2520	16.6790
 2.2530	16.5860
 2.2540	16.4910
 2.2550	16.3920
 2.2560	16.2930
 2.2570	16.1920
 2.2580	16.0910
 2.2590	15.9870
 2.2600	15.8830
 2.2610	15.7770
 2.2620	15.6740
 2.2630	15.5660
 2.2640	15.4610
 2.2650	15.3580
 2.2660	15.2560
 2.2670	15.1600
 2.2680	15.0650
 2.2690	14.9760
 2.2700	14.8920
 2.2710	14.8110
 2.2720	14.7370
 2.2730	14.6620
 2.2740	14.5900
 2.2750	14.5170
 2.2760	14.4420
 2.2770	14.3750
 2.2780	14.3120
 2.2790	14.2500
 2.2800	14.1960
 2.2810	14.1400
 2.2820	14.0850
 2.2830	14.0300
 2.2840	13.9790
 2.2850	13.9250
 2.2860	13.8700
 2.2870	13.8140
 2.2880	13.7590
 2.2890	13.7020
 2.2900	13.6450
 2.2910	13.5850
 2.2920	13.5210
 2.2930	13.4590
 2.2940	13.3990
 2.2950	13.3330
 2.2960	13.2600
 2.2970	13.1910
 2.2980	13.1210
 2.2990	13.0520
 2.3000	12.9890
 2.3010	12.9320
 2.3020	12.8720
 2.3030	12.8160
 2.3040	12.7650
 2.3050	12.7130
 2.3060	12.6680
 2.3070	12.6270
 2.3080	12.5860
 2.3090	12.5570
 2.3100	12.5380
 2.3110	12.5160
 2.3120	12.5040
 2.3130	12.5040
 2.3140	12.5010
 2.3150	12.5010
 2.3160	12.5000
 2.3170	12.5030
 2.3180	12.5000
 2.3190	12.4940
 2.3200	12.4880
 2.3210	12.4810
 2.3220	12.4710
 2.3230	12.4640
 2.3240	12.4430
 2.3250	12.4090
 2.3260	12.3790
 2.3270	12.3400
 2.3280	12.3070
 2.3290	12.2820
 2.3300	12.2470
 2.3310	12.2080
 2.3320	12.1660
 2.3330	12.1160
 2.3340	12.0720
 2.3350	12.0250
 2.3360	11.9830
 2.3370	11.9430
 2.3380	11.9000
 2.3390	11.8530
 2.3400	11.8100
 2.3410	11.7690
 2.3420	11.7290
 2.3430	11.6920
 2.3440	11.6550
 2.3450	11.6150
 2.3460	11.5730
 2.3470	11.5270
 2.3480	11.4900
 2.3490	11.4560
 2.3500	11.4250
 2.3510	11.4060
 2.3520	11.3830
 2.3530	11.3560
 2.3540	11.3310
 2.3550	11.3170
 2.3560	11.2960
 2.3570	11.2710
 2.3580	11.2540
 2.3590	11.2350
 2.3600	11.2080
 2.3610	11.1870
 2.3620	11.1640
 2.3630	11.1290
 2.3640	11.0960
 2.3650	11.0600
 2.3660	11.0240
 2.3670	10.9920
 2.3680	10.9590
 2.3690	10.9290
 2.3700	10.8970
 2.3710	10.8520
 2.3720	10.8050
 2.3730	10.7620
 2.3740	10.7180
 2.3750	10.6890
 2.3760	10.6670
 2.3770	10.6380
 2.3780	10.6160
 2.3790	10.5800
 2.3800	10.5350
 2.3810	10.4910
 2.3820	10.4380
 2.3830	10.3990
 2.3840	10.3710
 2.3850	10.3380
 2.3860	10.3080
 2.3870	10.2760
 2.3880	10.2320
 2.3890	10.1990
 2.3900	10.1710
 2.3910	10.1340
 2.3920	10.1060
 2.3930	10.0680
 2.3940	10.0200
 2.3950	 9.9800
 2.3960	 9.9400
 2.3970	 9.8950
 2.3980	 9.8530
 2.3990	 9.8120
 2.4000	 9.7700
 2.4010	 9.7320
 2.4020	 9.7010
 2.4030	 9.6680
 2.4040	 9.6270
 2.4050	 9.5830
 2.4060	 9.5390
 2.4070	 9.4950
 2.4080	 9.4590
 2.4090	 9.4210
 2.4100	 9.3740
 2.4110	 9.3300
 2.4120	 9.2730
 2.4130	 9.2160
 2.4140	 9.1690
 2.4150	 9.1230
 2.4160	 9.0790
 2.4170	 9.0280
 2.4180	 8.9790
 2.4190	 8.9310
 2.4200	 8.8760
 2.4210	 8.8200
 2.4220	 8.7690
 2.4230	 8.7230
 2.4240	 8.6790
 2.4250	 8.6360
 2.4260	 8.5890
 2.4270	 8.5210
 2.4280	 8.4550
 2.4290	 8.3970
 2.4300	 8.3400
 2.4310	 8.3020
 2.4320	 8.2560
 2.4330	 8.2050
 2.4340	 8.1570
 2.4350	 8.1100
 2.4360	 8.0640
 2.4370	 8.0210
 2.4380	 7.9830
 2.4390	 7.9190
 2.4400	 7.8460
 2.4410	 7.7780
 2.4420	 7.7110
 2.4430	 7.6650
 2.4440	 7.6310
 2.4450	 7.5970
 2.4460	 7.5530
 2.4470	 7.4970
 2.4480	 7.4530
 2.4490	 7.4050
 2.4500	 7.3670
 2.4510	 7.3310
 2.4520	 7.2720
 2.4530	 7.2100
 2.4540	 7.1530
 2.4550	 7.0850
 2.4560	 7.0390
 2.4570	 6.9960
 2.4580	 6.9430
 2.4590	 6.9030
 2.4600	 6.8550
 2.4610	 6.8000
 2.4620	 6.7460
 2.4630	 6.6980
 2.4640	 6.6730
 2.4650	 6.6510
 2.4660	 6.6440
 2.4670	 6.6290
 2.4680	 6.5950
 2.4690	 6.5460
 2.4700	 6.4990
 2.4710	 6.4390
 2.4720	 6.3800
 2.4730	 6.3190
 2.4740	 6.2790
 2.4750	 6.2340
 2.4760	 6.2140
 2.4770	 6.2190
 2.4780	 6.2180
 2.4790	 6.2390
 2.4800	 6.2210
 2.4810	 6.1880
 2.4820	 6.1300
 2.4830	 6.0590
 2.4840	 6.0370
 2.4850	 6.0180
 2.4860	 5.9760
 2.4870	 5.9640
 2.4880	 5.9390
 2.4890	 5.9200
 2.4900	 5.9330
 2.4910	 5.9220
 2.4920	 5.9340
 2.4930	 5.9240
 2.4940	 5.8850
 2.4950	 5.8580
 2.4960	 5.8130
 2.4970	 5.8170
 2.4980	 5.8380
 2.4990	 5.8510
 2.5000	 5.8430
