Name: Pinus lambertiana 3
Type: vegetation
Class: Tree
Genus: Pinus
Species: lambertiana
Sample No.: VH263
Owner: UCSB
Wavelength Range: TIR
Origin: 37.0433; -119.3048; WGS84
Collection Date: 11/2/2013
Description: Samples were collected as part of the HyspIRI Airborne Campaign. 48 individual plants were sampled in three times in 2013 - spring  summer  and fall. The name of the sample includes a 1  2  or 3 which references a different individual of the species. Samples were taken to JPL and processed within 48 hours of collection. The same leaves were processed in the Nicolet and then measured using the ASD.
Measurement: Hemispherical reflectance
First Column: X
Second Column: Y
X Units: Wavelength (micrometers)
Y Units: Reflectance (percentage)
First X Value: 2.501
Last X Value: 15.387
Number of X Values: 1737
Additional Information: vegetation.tree.pinus.lambertiana.tir.vh263.ucsb.nicolet.ancillary.txt

 2.5010	 7.5730
 2.5030	 7.6300
 2.5040	 7.6880
 2.5050	 7.5830
 2.5060	 7.7030
 2.5070	 7.8180
 2.5090	 7.9160
 2.5100	 7.7210
 2.5110	 7.5560
 2.5120	 7.5660
 2.5140	 7.6130
 2.5150	 7.5070
 2.5160	 7.4450
 2.5170	 7.3940
 2.5180	 7.3790
 2.5200	 7.2280
 2.5210	 7.3710
 2.5220	 7.3360
 2.5230	 7.5740
 2.5250	 7.6230
 2.5260	 7.6070
 2.5270	 7.5090
 2.5280	 7.5500
 2.5290	 7.5950
 2.5310	 7.5850
 2.5320	 7.4930
 2.5330	 7.6210
 2.5340	 7.7300
 2.5360	 7.7190
 2.5370	 7.7320
 2.5380	 7.6730
 2.5390	 7.5800
 2.5410	 7.6740
 2.5420	 7.5880
 2.5430	 7.4580
 2.5440	 7.3430
 2.5460	 7.5000
 2.5470	 7.6610
 2.5480	 7.5970
 2.5490	 7.5710
 2.5510	 7.6500
 2.5520	 7.5620
 2.5530	 7.6410
 2.5540	 7.7320
 2.5560	 7.8010
 2.5570	 7.8180
 2.5580	 7.8580
 2.5590	 7.6770
 2.5610	 7.5390
 2.5620	 7.4330
 2.5630	 7.4390
 2.5640	 7.4760
 2.5660	 7.6710
 2.5670	 7.7230
 2.5680	 7.6140
 2.5700	 7.4530
 2.5710	 7.6580
 2.5720	 7.7550
 2.5730	 7.6750
 2.5750	 7.6510
 2.5760	 7.7350
 2.5770	 7.6190
 2.5790	 7.5780
 2.5800	 7.5120
 2.5810	 7.4750
 2.5820	 7.5040
 2.5840	 7.6850
 2.5850	 7.6880
 2.5860	 7.6600
 2.5880	 7.7560
 2.5890	 7.8160
 2.5900	 7.7980
 2.5910	 7.9790
 2.5930	 7.8950
 2.5940	 7.7050
 2.5950	 7.9230
 2.5970	 7.9540
 2.5980	 7.6590
 2.5990	 7.5850
 2.6000	 7.5690
 2.6020	 7.6040
 2.6030	 7.5890
 2.6040	 7.6130
 2.6060	 7.5530
 2.6070	 7.5740
 2.6080	 7.5330
 2.6100	 7.5350
 2.6110	 7.4470
 2.6120	 7.5290
 2.6140	 7.6000
 2.6150	 7.6550
 2.6160	 7.5770
 2.6180	 7.5140
 2.6190	 7.3640
 2.6200	 7.4380
 2.6220	 7.3330
 2.6230	 7.2750
 2.6240	 7.3250
 2.6260	 7.4590
 2.6270	 7.4400
 2.6280	 7.4590
 2.6300	 7.3110
 2.6310	 7.2130
 2.6320	 7.2050
 2.6340	 7.2400
 2.6350	 7.2790
 2.6360	 7.3650
 2.6380	 7.2680
 2.6390	 7.2820
 2.6400	 7.1870
 2.6420	 7.1040
 2.6430	 7.0990
 2.6440	 7.2290
 2.6460	 7.1950
 2.6470	 7.2010
 2.6480	 6.9860
 2.6500	 6.9840
 2.6510	 7.1740
 2.6520	 7.2800
 2.6540	 7.2590
 2.6550	 7.0690
 2.6560	 6.8860
 2.6580	 7.1040
 2.6590	 7.0500
 2.6610	 7.1300
 2.6620	 7.0910
 2.6630	 7.1100
 2.6650	 7.0960
 2.6660	 7.0140
 2.6670	 6.9070
 2.6690	 6.9420
 2.6700	 6.8410
 2.6720	 6.6810
 2.6730	 6.7120
 2.6740	 6.8090
 2.6760	 6.7160
 2.6770	 6.9080
 2.6780	 6.9650
 2.6800	 7.0490
 2.6810	 6.7920
 2.6830	 6.6870
 2.6840	 6.7180
 2.6850	 6.8660
 2.6870	 6.8600
 2.6880	 6.8680
 2.6900	 6.7710
 2.6910	 6.7050
 2.6920	 6.6840
 2.6940	 6.7660
 2.6950	 6.8330
 2.6970	 6.8800
 2.6980	 6.7370
 2.6990	 6.6360
 2.7010	 6.5530
 2.7020	 6.5010
 2.7040	 6.4250
 2.7050	 6.3600
 2.7060	 6.4350
 2.7080	 6.4330
 2.7090	 6.3190
 2.7110	 6.4300
 2.7120	 6.4440
 2.7130	 6.4300
 2.7150	 6.3520
 2.7160	 6.4090
 2.7180	 6.3000
 2.7190	 6.0920
 2.7210	 6.0160
 2.7220	 6.1960
 2.7230	 6.2730
 2.7250	 6.4180
 2.7260	 6.2840
 2.7280	 6.2980
 2.7290	 6.3130
 2.7310	 6.2920
 2.7320	 6.2390
 2.7330	 6.2370
 2.7350	 6.3020
 2.7360	 6.4840
 2.7380	 6.3870
 2.7390	 6.3490
 2.7410	 6.4050
 2.7420	 6.3220
 2.7440	 6.1190
 2.7450	 6.1680
 2.7470	 6.1180
 2.7480	 6.2210
 2.7490	 6.1910
 2.7510	 6.1620
 2.7520	 5.9360
 2.7540	 5.9130
 2.7550	 5.8390
 2.7570	 6.0040
 2.7580	 6.0750
 2.7600	 6.0820
 2.7610	 5.9670
 2.7630	 6.0100
 2.7640	 5.9400
 2.7660	 5.9770
 2.7670	 5.9440
 2.7680	 6.0380
 2.7700	 5.9740
 2.7710	 5.9390
 2.7730	 5.9170
 2.7740	 6.0670
 2.7760	 6.1850
 2.7770	 6.2790
 2.7790	 6.3670
 2.7800	 6.5160
 2.7820	 6.3810
 2.7830	 6.3180
 2.7850	 6.2180
 2.7860	 6.2580
 2.7880	 6.3040
 2.7890	 6.3240
 2.7910	 6.0760
 2.7920	 6.0720
 2.7940	 6.1530
 2.7950	 6.2630
 2.7970	 6.2250
 2.7980	 6.1840
 2.8000	 6.1220
 2.8010	 6.0140
 2.8030	 5.9160
 2.8040	 6.1340
 2.8060	 6.2160
 2.8070	 6.2770
 2.8090	 6.0950
 2.8110	 5.9190
 2.8120	 6.0540
 2.8140	 6.0820
 2.8150	 5.9970
 2.8170	 6.0720
 2.8180	 6.1300
 2.8200	 6.2310
 2.8210	 6.1420
 2.8230	 6.0950
 2.8240	 5.9260
 2.8260	 5.8780
 2.8270	 5.9910
 2.8290	 6.1260
 2.8300	 6.1200
 2.8320	 6.2490
 2.8340	 6.1900
 2.8350	 6.1740
 2.8370	 6.2530
 2.8380	 6.3100
 2.8400	 6.1280
 2.8410	 6.1020
 2.8430	 6.1890
 2.8440	 6.2160
 2.8460	 6.1100
 2.8480	 6.2140
 2.8490	 6.2250
 2.8510	 6.2410
 2.8520	 6.0180
 2.8540	 6.0000
 2.8550	 6.0270
 2.8570	 6.1940
 2.8590	 6.0910
 2.8600	 5.9650
 2.8620	 5.9860
 2.8630	 6.0550
 2.8650	 5.9790
 2.8660	 6.0140
 2.8680	 6.0190
 2.8700	 6.1280
 2.8710	 6.1210
 2.8730	 6.2780
 2.8740	 6.1160
 2.8760	 6.0850
 2.8780	 5.9820
 2.8790	 5.9440
 2.8810	 5.7970
 2.8820	 6.0580
 2.8840	 6.1990
 2.8860	 5.9360
 2.8870	 5.9930
 2.8890	 6.1030
 2.8900	 6.1220
 2.8920	 6.1680
 2.8940	 6.2190
 2.8950	 6.2880
 2.8970	 6.5300
 2.8980	 6.3430
 2.9000	 6.0790
 2.9020	 6.0900
 2.9030	 5.8950
 2.9050	 5.7890
 2.9070	 5.9130
 2.9080	 6.2130
 2.9100	 6.3720
 2.9120	 6.3020
 2.9130	 5.9840
 2.9150	 6.1670
 2.9160	 6.3340
 2.9180	 6.3880
 2.9200	 6.2360
 2.9210	 6.3080
 2.9230	 6.1780
 2.9250	 6.1360
 2.9260	 6.2590
 2.9280	 6.1860
 2.9300	 6.2850
 2.9310	 6.3860
 2.9330	 6.0180
 2.9350	 6.0590
 2.9360	 6.1750
 2.9380	 6.2420
 2.9400	 6.3180
 2.9410	 6.3420
 2.9430	 6.1650
 2.9450	 6.0640
 2.9460	 5.8310
 2.9480	 5.8260
 2.9500	 5.7990
 2.9510	 5.7550
 2.9530	 6.0590
 2.9550	 6.3020
 2.9560	 6.1900
 2.9580	 6.2120
 2.9600	 6.2930
 2.9610	 5.8150
 2.9630	 5.6970
 2.9650	 5.8260
 2.9660	 5.5870
 2.9680	 6.3270
 2.9700	 6.5450
 2.9720	 6.1850
 2.9730	 6.1380
 2.9750	 7.5660
 2.9770	 7.9900
 2.9780	 7.7640
 2.9800	 7.6740
 2.9820	 6.7210
 2.9840	 5.6370
 2.9850	 5.3240
 2.9870	 6.1290
 2.9890	 6.9110
 2.9900	 6.9140
 2.9920	 7.5410
 2.9940	 7.7090
 2.9960	 7.1160
 2.9970	 4.3600
 2.9990	 4.4600
 3.0010	 5.8620
 3.0030	 5.7370
 3.0040	 6.0050
 3.0060	 6.3440
 3.0080	 6.4270
 3.0100	 6.4260
 3.0110	 6.4790
 3.0130	 6.6410
 3.0150	 6.6050
 3.0170	 6.5100
 3.0180	 6.3700
 3.0200	 5.9900
 3.0220	 6.0770
 3.0240	 6.2030
 3.0250	 6.4060
 3.0270	 6.3660
 3.0290	 6.2010
 3.0310	 6.1480
 3.0320	 6.1280
 3.0340	 6.3770
 3.0360	 6.3490
 3.0380	 6.5350
 3.0400	 7.5920
 3.0410	 7.5270
 3.0430	 6.2800
 3.0450	 4.7670
 3.0470	 4.6160
 3.0480	 5.1670
 3.0500	 5.2590
 3.0520	 5.9930
 3.0540	 6.3330
 3.0560	 6.7260
 3.0570	 6.3380
 3.0590	 5.1930
 3.0610	 5.1890
 3.0630	 5.8980
 3.0650	 5.8180
 3.0660	 6.0400
 3.0680	 6.3020
 3.0700	 5.7260
 3.0720	 5.7560
 3.0740	 6.2580
 3.0760	 6.7510
 3.0770	 6.9110
 3.0790	 6.3130
 3.0810	 6.1900
 3.0830	 6.3510
 3.0850	 6.3910
 3.0870	 6.0870
 3.0880	 6.0350
 3.0900	 6.1660
 3.0920	 6.1410
 3.0940	 5.8590
 3.0960	 5.8900
 3.0980	 6.0290
 3.0990	 6.1240
 3.1010	 6.0000
 3.1030	 5.8950
 3.1050	 6.0740
 3.1070	 6.4120
 3.1090	 6.4710
 3.1110	 6.3540
 3.1120	 6.0030
 3.1140	 6.0760
 3.1160	 6.1970
 3.1180	 6.2120
 3.1200	 6.1860
 3.1220	 6.2380
 3.1240	 6.1980
 3.1260	 6.2840
 3.1270	 6.1630
 3.1290	 6.1650
 3.1310	 5.9050
 3.1330	 5.7280
 3.1350	 6.0480
 3.1370	 6.3340
 3.1390	 6.2130
 3.1410	 6.7490
 3.1430	 5.4040
 3.1450	 4.6890
 3.1460	 6.3340
 3.1480	 5.9870
 3.1500	 5.0930
 3.1520	 6.5800
 3.1540	 7.5280
 3.1560	 7.0260
 3.1580	 6.7290
 3.1600	 6.7310
 3.1620	 6.7580
 3.1640	 6.6810
 3.1660	 6.6160
 3.1680	 5.7760
 3.1700	 4.8900
 3.1710	 5.7680
 3.1730	 7.9100
 3.1750	 7.9260
 3.1770	 6.5540
 3.1790	 5.6710
 3.1810	 5.9470
 3.1830	 5.8410
 3.1850	 5.9000
 3.1870	 6.3180
 3.1890	 6.2090
 3.1910	 6.0510
 3.1930	 6.1840
 3.1950	 6.2750
 3.1970	 5.9760
 3.1990	 5.9900
 3.2010	 6.2640
 3.2030	 6.3080
 3.2050	 6.2460
 3.2070	 6.1230
 3.2090	 6.0160
 3.2110	 6.2030
 3.2130	 6.1280
 3.2150	 6.1530
 3.2170	 6.3760
 3.2190	 6.4770
 3.2210	 6.3090
 3.2230	 6.1980
 3.2250	 6.1440
 3.2270	 5.9590
 3.2290	 5.9030
 3.2310	 6.0090
 3.2330	 5.9300
 3.2350	 5.7720
 3.2370	 5.6740
 3.2390	 6.0510
 3.2410	 6.2440
 3.2430	 6.4610
 3.2450	 6.3400
 3.2470	 5.9190
 3.2490	 5.8150
 3.2510	 6.1710
 3.2530	 6.1910
 3.2550	 6.0720
 3.2570	 6.0500
 3.2590	 6.2110
 3.2610	 6.0440
 3.2630	 5.9620
 3.2650	 5.8770
 3.2670	 5.9160
 3.2690	 6.0300
 3.2720	 6.1320
 3.2740	 6.1050
 3.2760	 6.1260
 3.2780	 6.1220
 3.2800	 6.1870
 3.2820	 6.2400
 3.2840	 6.1990
 3.2860	 6.0220
 3.2880	 6.0780
 3.2900	 6.1640
 3.2920	 6.1080
 3.2940	 5.8960
 3.2960	 5.8070
 3.2990	 5.9860
 3.3010	 6.2050
 3.3030	 5.9480
 3.3050	 5.9200
 3.3070	 6.1880
 3.3090	 6.1120
 3.3110	 5.9650
 3.3130	 6.1760
 3.3150	 6.1410
 3.3180	 6.0070
 3.3200	 6.0530
 3.3220	 5.9900
 3.3240	 5.8830
 3.3260	 5.9990
 3.3280	 5.9700
 3.3300	 6.0260
 3.3330	 6.0900
 3.3350	 6.1060
 3.3370	 6.0230
 3.3390	 5.9650
 3.3410	 5.9150
 3.3430	 5.9580
 3.3450	 5.9240
 3.3480	 5.9530
 3.3500	 5.8940
 3.3520	 5.8140
 3.3540	 5.7020
 3.3560	 5.7330
 3.3580	 5.8400
 3.3610	 5.7750
 3.3630	 5.7050
 3.3650	 5.7520
 3.3670	 5.7280
 3.3690	 5.7610
 3.3720	 5.6470
 3.3740	 5.6750
 3.3760	 5.6530
 3.3780	 5.6520
 3.3800	 5.6640
 3.3830	 5.6720
 3.3850	 5.5810
 3.3870	 5.6280
 3.3890	 5.7050
 3.3910	 5.6440
 3.3940	 5.6030
 3.3960	 5.7850
 3.3980	 5.8430
 3.4000	 5.7310
 3.4020	 5.7570
 3.4050	 5.7110
 3.4070	 5.5850
 3.4090	 5.7150
 3.4110	 5.8690
 3.4140	 6.0100
 3.4160	 6.1640
 3.4180	 6.5190
 3.4200	 6.9650
 3.4230	 7.3320
 3.4250	 7.6010
 3.4270	 8.0280
 3.4290	 8.3070
 3.4320	 8.4280
 3.4340	 8.1390
 3.4360	 7.8300
 3.4390	 7.3540
 3.4410	 7.1850
 3.4430	 7.2960
 3.4450	 7.1910
 3.4480	 6.9070
 3.4500	 6.7330
 3.4520	 6.7620
 3.4550	 6.6640
 3.4570	 6.6020
 3.4590	 6.5300
 3.4620	 6.6900
 3.4640	 6.9090
 3.4660	 6.7900
 3.4680	 6.6230
 3.4710	 6.5370
 3.4730	 6.4890
 3.4750	 6.4890
 3.4780	 6.5490
 3.4800	 6.4470
 3.4820	 6.2870
 3.4850	 6.2080
 3.4870	 6.1650
 3.4890	 6.2020
 3.4920	 6.2430
 3.4940	 6.1630
 3.4970	 6.1400
 3.4990	 6.1620
 3.5010	 6.2060
 3.5040	 6.3510
 3.5060	 6.9310
 3.5080	 7.7450
 3.5110	 8.2870
 3.5130	 8.2200
 3.5160	 7.8310
 3.5180	 7.5030
 3.5200	 7.3590
 3.5230	 7.1990
 3.5250	 7.1090
 3.5270	 6.9650
 3.5300	 6.9550
 3.5320	 7.0290
 3.5350	 6.9550
 3.5370	 6.8790
 3.5400	 6.8700
 3.5420	 6.7410
 3.5440	 6.7580
 3.5470	 6.7850
 3.5490	 6.8590
 3.5520	 6.7860
 3.5540	 6.6470
 3.5570	 6.6380
 3.5590	 6.7650
 3.5610	 6.7430
 3.5640	 6.7700
 3.5660	 6.6970
 3.5690	 6.6260
 3.5710	 6.6030
 3.5740	 6.6910
 3.5760	 6.6670
 3.5790	 6.6770
 3.5810	 6.6850
 3.5840	 6.6210
 3.5860	 6.5850
 3.5890	 6.6830
 3.5910	 6.6950
 3.5930	 6.6710
 3.5960	 6.6940
 3.5980	 6.7020
 3.6010	 6.5240
 3.6030	 6.4630
 3.6060	 6.4460
 3.6080	 6.5590
 3.6110	 6.6990
 3.6140	 6.6480
 3.6160	 6.6090
 3.6190	 6.6460
 3.6210	 6.6380
 3.6240	 6.6890
 3.6260	 6.6730
 3.6290	 6.5850
 3.6310	 6.5190
 3.6340	 6.5560
 3.6360	 6.5760
 3.6390	 6.7030
 3.6410	 6.6670
 3.6440	 6.5610
 3.6470	 6.5330
 3.6490	 6.5620
 3.6520	 6.5730
 3.6540	 6.5700
 3.6570	 6.6180
 3.6590	 6.6300
 3.6620	 6.5100
 3.6650	 6.5170
 3.6670	 6.5240
 3.6700	 6.4890
 3.6720	 6.4720
 3.6750	 6.5170
 3.6780	 6.4370
 3.6800	 6.4820
 3.6830	 6.4590
 3.6850	 6.3540
 3.6880	 6.2660
 3.6910	 6.3770
 3.6930	 6.4180
 3.6960	 6.4220
 3.6990	 6.4120
 3.7010	 6.5490
 3.7040	 6.6130
 3.7060	 6.5680
 3.7090	 6.5060
 3.7120	 6.4800
 3.7140	 6.4470
 3.7170	 6.4090
 3.7200	 6.4290
 3.7220	 6.5190
 3.7250	 6.5510
 3.7280	 6.4240
 3.7300	 6.3230
 3.7330	 6.3840
 3.7360	 6.4210
 3.7390	 6.4630
 3.7410	 6.4990
 3.7440	 6.5920
 3.7470	 6.5550
 3.7490	 6.4830
 3.7520	 6.4990
 3.7550	 6.5890
 3.7580	 6.6040
 3.7600	 6.5530
 3.7630	 6.6180
 3.7660	 6.6130
 3.7680	 6.5120
 3.7710	 6.4810
 3.7740	 6.5390
 3.7770	 6.7140
 3.7790	 6.5990
 3.7820	 6.4490
 3.7850	 6.5000
 3.7880	 6.5900
 3.7900	 6.5450
 3.7930	 6.5080
 3.7960	 6.6010
 3.7990	 6.6970
 3.8020	 6.6290
 3.8040	 6.5800
 3.8070	 6.5300
 3.8100	 6.5300
 3.8130	 6.4550
 3.8160	 6.4910
 3.8180	 6.5020
 3.8210	 6.5210
 3.8240	 6.5580
 3.8270	 6.6310
 3.8300	 6.6520
 3.8330	 6.5990
 3.8350	 6.6650
 3.8380	 6.7170
 3.8410	 6.5000
 3.8440	 6.3680
 3.8470	 6.4090
 3.8500	 6.5710
 3.8520	 6.5310
 3.8550	 6.4970
 3.8580	 6.5040
 3.8610	 6.5450
 3.8640	 6.5320
 3.8670	 6.5030
 3.8700	 6.5170
 3.8730	 6.5780
 3.8750	 6.4810
 3.8780	 6.5390
 3.8810	 6.6100
 3.8840	 6.6400
 3.8870	 6.5720
 3.8900	 6.5160
 3.8930	 6.4520
 3.8960	 6.5060
 3.8990	 6.5380
 3.9020	 6.5670
 3.9050	 6.5410
 3.9080	 6.5910
 3.9110	 6.5910
 3.9140	 6.5120
 3.9160	 6.4990
 3.9190	 6.6180
 3.9220	 6.5810
 3.9250	 6.5440
 3.9280	 6.5410
 3.9310	 6.5470
 3.9340	 6.5580
 3.9370	 6.5770
 3.9400	 6.5800
 3.9430	 6.6090
 3.9460	 6.5690
 3.9490	 6.6110
 3.9520	 6.5610
 3.9550	 6.5360
 3.9580	 6.5640
 3.9610	 6.6160
 3.9640	 6.5910
 3.9670	 6.5800
 3.9700	 6.6240
 3.9730	 6.6270
 3.9770	 6.5820
 3.9800	 6.5040
 3.9830	 6.4470
 3.9860	 6.4580
 3.9890	 6.5280
 3.9920	 6.5730
 3.9950	 6.6030
 3.9980	 6.6720
 4.0010	 6.6120
 4.0040	 6.5800
 4.0070	 6.5880
 4.0100	 6.5510
 4.0130	 6.5400
 4.0170	 6.5610
 4.0200	 6.5200
 4.0230	 6.5150
 4.0260	 6.5380
 4.0290	 6.5840
 4.0320	 6.5410
 4.0350	 6.4760
 4.0380	 6.4960
 4.0420	 6.5640
 4.0450	 6.4970
 4.0480	 6.4610
 4.0510	 6.5470
 4.0540	 6.6470
 4.0570	 6.7000
 4.0610	 6.6560
 4.0640	 6.5910
 4.0670	 6.5700
 4.0700	 6.6070
 4.0730	 6.5920
 4.0770	 6.4740
 4.0800	 6.5380
 4.0830	 6.6260
 4.0860	 6.5990
 4.0890	 6.5230
 4.0930	 6.5290
 4.0960	 6.5970
 4.0990	 6.6470
 4.1020	 6.5720
 4.1060	 6.6010
 4.1090	 6.6770
 4.1120	 6.6430
 4.1150	 6.4820
 4.1190	 6.4310
 4.1220	 6.5050
 4.1250	 6.5360
 4.1280	 6.5350
 4.1320	 6.5820
 4.1350	 6.5560
 4.1380	 6.5530
 4.1420	 6.5400
 4.1450	 6.6050
 4.1480	 6.6200
 4.1520	 6.6000
 4.1550	 6.6550
 4.1580	 6.6600
 4.1620	 6.6040
 4.1650	 6.5860
 4.1680	 6.5680
 4.1720	 6.4860
 4.1750	 6.4750
 4.1780	 6.5190
 4.1820	 6.5450
 4.1850	 6.5740
 4.1890	 6.4800
 4.1920	 6.4360
 4.1950	 6.5210
 4.1990	 6.6710
 4.2020	 6.7320
 4.2060	 6.6300
 4.2090	 6.4400
 4.2120	 6.2770
 4.2160	 6.2420
 4.2190	 6.4160
 4.2230	 6.4320
 4.2260	 6.3570
 4.2300	 6.2410
 4.2330	 6.1420
 4.2360	 6.2120
 4.2400	 6.2520
 4.2430	 6.3880
 4.2470	 6.6700
 4.2500	 6.5000
 4.2540	 6.5350
 4.2570	 6.6210
 4.2610	 6.5620
 4.2640	 6.5010
 4.2680	 6.5270
 4.2710	 6.4430
 4.2750	 6.3740
 4.2780	 6.3960
 4.2820	 6.3160
 4.2850	 6.2140
 4.2890	 6.2680
 4.2930	 6.3460
 4.2960	 6.4590
 4.3000	 6.4860
 4.3030	 6.4660
 4.3070	 6.4730
 4.3100	 6.5830
 4.3140	 6.5710
 4.3180	 6.5320
 4.3210	 6.5450
 4.3250	 6.5330
 4.3280	 6.3930
 4.3320	 6.3170
 4.3360	 6.3280
 4.3390	 6.4100
 4.3430	 6.4640
 4.3470	 6.4610
 4.3500	 6.4410
 4.3540	 6.4670
 4.3570	 6.4540
 4.3610	 6.3810
 4.3650	 6.3800
 4.3680	 6.4740
 4.3720	 6.5270
 4.3760	 6.4610
 4.3800	 6.4100
 4.3830	 6.3630
 4.3870	 6.3170
 4.3910	 6.3720
 4.3940	 6.3460
 4.3980	 6.3470
 4.4020	 6.4150
 4.4060	 6.4300
 4.4090	 6.4100
 4.4130	 6.2790
 4.4170	 6.2990
 4.4210	 6.4620
 4.4240	 6.4540
 4.4280	 6.4550
 4.4320	 6.4500
 4.4360	 6.4220
 4.4400	 6.4430
 4.4430	 6.4390
 4.4470	 6.3810
 4.4510	 6.3650
 4.4550	 6.3660
 4.4590	 6.4050
 4.4620	 6.4750
 4.4660	 6.4620
 4.4700	 6.3660
 4.4740	 6.3440
 4.4780	 6.2700
 4.4820	 6.2890
 4.4860	 6.3970
 4.4900	 6.4420
 4.4930	 6.3830
 4.4970	 6.3030
 4.5010	 6.3330
 4.5050	 6.3600
 4.5090	 6.4070
 4.5130	 6.4010
 4.5170	 6.3650
 4.5210	 6.2540
 4.5250	 6.1600
 4.5290	 6.2660
 4.5330	 6.3220
 4.5370	 6.2700
 4.5410	 6.3100
 4.5450	 6.3360
 4.5490	 6.3300
 4.5530	 6.3390
 4.5570	 6.3480
 4.5610	 6.2960
 4.5650	 6.2230
 4.5690	 6.2350
 4.5730	 6.2430
 4.5770	 6.2620
 4.5810	 6.3270
 4.5850	 6.3130
 4.5890	 6.2810
 4.5930	 6.3430
 4.5970	 6.3860
 4.6010	 6.4020
 4.6050	 6.3080
 4.6090	 6.3050
 4.6130	 6.3770
 4.6170	 6.3420
 4.6220	 6.2940
 4.6260	 6.2540
 4.6300	 6.2820
 4.6340	 6.3130
 4.6380	 6.3190
 4.6420	 6.2500
 4.6460	 6.2130
 4.6510	 6.2320
 4.6550	 6.1600
 4.6590	 6.1930
 4.6630	 6.2790
 4.6670	 6.2920
 4.6720	 6.2800
 4.6760	 6.2350
 4.6800	 6.2210
 4.6840	 6.2720
 4.6880	 6.2890
 4.6930	 6.2580
 4.6970	 6.1820
 4.7010	 6.2230
 4.7050	 6.2940
 4.7100	 6.1850
 4.7140	 6.1320
 4.7180	 6.1820
 4.7230	 6.1910
 4.7270	 6.1900
 4.7310	 6.2470
 4.7360	 6.2700
 4.7400	 6.2410
 4.7440	 6.1560
 4.7490	 6.1420
 4.7530	 6.2240
 4.7570	 6.3450
 4.7620	 6.3260
 4.7660	 6.2280
 4.7700	 6.2200
 4.7750	 6.2730
 4.7790	 6.2080
 4.7840	 6.3020
 4.7880	 6.2510
 4.7920	 6.1660
 4.7970	 6.1900
 4.8010	 6.3060
 4.8060	 6.2490
 4.8100	 6.2220
 4.8150	 6.2550
 4.8190	 6.2260
 4.8240	 6.1600
 4.8280	 6.2060
 4.8330	 6.2510
 4.8370	 6.2730
 4.8420	 6.2110
 4.8460	 6.1790
 4.8510	 6.1970
 4.8550	 6.1780
 4.8600	 6.2230
 4.8640	 6.2880
 4.8690	 6.3400
 4.8730	 6.2950
 4.8780	 6.1600
 4.8830	 6.1460
 4.8870	 6.1940
 4.8920	 6.1520
 4.8960	 6.1520
 4.9010	 6.1670
 4.9060	 6.1670
 4.9100	 6.1270
 4.9150	 6.1530
 4.9200	 6.1850
 4.9240	 6.2200
 4.9290	 6.2430
 4.9340	 6.2900
 4.9380	 6.2870
 4.9430	 6.2830
 4.9480	 6.2710
 4.9530	 6.2190
 4.9570	 6.2760
 4.9620	 6.3060
 4.9670	 6.2650
 4.9720	 6.1990
 4.9760	 6.1800
 4.9810	 6.1620
 4.9860	 6.2250
 4.9910	 6.2810
 4.9960	 6.2910
 5.0000	 6.2400
 5.0050	 6.1910
 5.0100	 6.1720
 5.0150	 6.1810
 5.0200	 6.1740
 5.0250	 6.1880
 5.0290	 6.2710
 5.0340	 6.2810
 5.0390	 6.2450
 5.0440	 6.2420
 5.0490	 6.2440
 5.0540	 6.2550
 5.0590	 6.2670
 5.0640	 6.2420
 5.0690	 6.2480
 5.0740	 6.2890
 5.0790	 6.2910
 5.0840	 6.2430
 5.0890	 6.2510
 5.0940	 6.3030
 5.0990	 6.2740
 5.1040	 6.2390
 5.1090	 6.2330
 5.1140	 6.2550
 5.1190	 6.2620
 5.1240	 6.2870
 5.1290	 6.3360
 5.1340	 6.3970
 5.1390	 6.2770
 5.1440	 6.1960
 5.1490	 6.2930
 5.1540	 6.3120
 5.1600	 6.2200
 5.1650	 6.1610
 5.1700	 6.1910
 5.1750	 6.1860
 5.1800	 6.1600
 5.1850	 6.1750
 5.1910	 6.2040
 5.1960	 6.2920
 5.2010	 6.3630
 5.2060	 6.3150
 5.2110	 6.3000
 5.2170	 6.3450
 5.2220	 6.2910
 5.2270	 6.2390
 5.2320	 6.2410
 5.2380	 6.1840
 5.2430	 6.1890
 5.2480	 6.2430
 5.2540	 6.2830
 5.2590	 6.2750
 5.2640	 6.2240
 5.2700	 6.3140
 5.2750	 6.3200
 5.2800	 6.3150
 5.2860	 6.2520
 5.2910	 6.1950
 5.2970	 6.1170
 5.3020	 6.1610
 5.3070	 6.2180
 5.3130	 6.2900
 5.3180	 6.2520
 5.3240	 6.1920
 5.3290	 6.1280
 5.3350	 6.1690
 5.3400	 6.2640
 5.3460	 6.2860
 5.3510	 6.2980
 5.3570	 6.3400
 5.3620	 6.2760
 5.3680	 6.2050
 5.3730	 6.1420
 5.3790	 6.1410
 5.3850	 6.1400
 5.3900	 6.1710
 5.3960	 6.1600
 5.4010	 6.1270
 5.4070	 6.1220
 5.4130	 6.1460
 5.4180	 6.1420
 5.4240	 6.1070
 5.4300	 6.1030
 5.4350	 6.1500
 5.4410	 6.1080
 5.4470	 6.1510
 5.4530	 6.2120
 5.4580	 6.2990
 5.4640	 6.2770
 5.4700	 6.1750
 5.4760	 6.1220
 5.4810	 6.0900
 5.4870	 6.0080
 5.4930	 6.0480
 5.4990	 6.1020
 5.5050	 6.1760
 5.5110	 6.2080
 5.5160	 6.1790
 5.5220	 6.0960
 5.5280	 6.0600
 5.5340	 5.9900
 5.5400	 6.0800
 5.5460	 6.0120
 5.5520	 5.8820
 5.5580	 5.9630
 5.5640	 6.0730
 5.5700	 6.0200
 5.5760	 6.0230
 5.5820	 6.0140
 5.5880	 5.9910
 5.5940	 6.0030
 5.6000	 6.0330
 5.6060	 6.0190
 5.6120	 5.8960
 5.6180	 5.7420
 5.6240	 5.7640
 5.6300	 5.7710
 5.6360	 5.8950
 5.6420	 5.9830
 5.6490	 5.9400
 5.6550	 5.8790
 5.6610	 5.8430
 5.6670	 5.7080
 5.6730	 5.6950
 5.6800	 5.6820
 5.6860	 5.5910
 5.6920	 5.5020
 5.6980	 5.4920
 5.7040	 5.4540
 5.7110	 5.3820
 5.7170	 5.2860
 5.7230	 5.2500
 5.7300	 5.1600
 5.7360	 5.2550
 5.7420	 5.3640
 5.7490	 5.5570
 5.7550	 5.7720
 5.7620	 6.1300
 5.7680	 6.4350
 5.7740	 6.5840
 5.7810	 6.6550
 5.7870	 6.6470
 5.7940	 6.5790
 5.8000	 6.5500
 5.8070	 6.5230
 5.8130	 6.5620
 5.8200	 6.4870
 5.8260	 6.4870
 5.8330	 6.4620
 5.8390	 6.4370
 5.8460	 6.4170
 5.8530	 6.4250
 5.8590	 6.4040
 5.8660	 6.4200
 5.8720	 6.4040
 5.8790	 6.4460
 5.8860	 6.5030
 5.8920	 6.6060
 5.8990	 6.6250
 5.9060	 6.6990
 5.9130	 6.6670
 5.9190	 6.6220
 5.9260	 6.5770
 5.9330	 6.7430
 5.9400	 6.7460
 5.9470	 6.6960
 5.9530	 6.6300
 5.9600	 6.6790
 5.9670	 6.7190
 5.9740	 6.6640
 5.9810	 6.5890
 5.9880	 6.6010
 5.9950	 6.5440
 6.0020	 6.5980
 6.0090	 6.6260
 6.0160	 6.6000
 6.0230	 6.5740
 6.0300	 6.6170
 6.0370	 6.6630
 6.0440	 6.7600
 6.0510	 6.5870
 6.0580	 6.5160
 6.0650	 6.5340
 6.0720	 6.7360
 6.0790	 6.7370
 6.0860	 6.6730
 6.0930	 6.7470
 6.1000	 6.8040
 6.1080	 6.7670
 6.1150	 6.9270
 6.1220	 6.8490
 6.1290	 6.8020
 6.1370	 6.7510
 6.1440	 6.6960
 6.1510	 6.7520
 6.1580	 6.9580
 6.1660	 7.0110
 6.1730	 7.1050
 6.1800	 7.1910
 6.1880	 7.4410
 6.1950	 7.4300
 6.2030	 7.3070
 6.2100	 7.1830
 6.2170	 7.1960
 6.2250	 7.1840
 6.2320	 7.1040
 6.2400	 6.9720
 6.2470	 6.9540
 6.2550	 6.7970
 6.2630	 6.6910
 6.2700	 6.6100
 6.2780	 6.6320
 6.2850	 6.6480
 6.2930	 6.6910
 6.3010	 6.5790
 6.3080	 6.5870
 6.3160	 6.5370
 6.3240	 6.5000
 6.3310	 6.4570
 6.3390	 6.5560
 6.3470	 6.4740
 6.3550	 6.4840
 6.3620	 6.4740
 6.3700	 6.5420
 6.3780	 6.5190
 6.3860	 6.4600
 6.3940	 6.3590
 6.4020	 6.3970
 6.4100	 6.4190
 6.4180	 6.4210
 6.4260	 6.3250
 6.4330	 6.4300
 6.4410	 6.4400
 6.4490	 6.4070
 6.4580	 6.4110
 6.4660	 6.5030
 6.4740	 6.4480
 6.4820	 6.4210
 6.4900	 6.2760
 6.4980	 6.3130
 6.5060	 6.3940
 6.5140	 6.4910
 6.5230	 6.3980
 6.5310	 6.2830
 6.5390	 6.2050
 6.5470	 6.2890
 6.5550	 6.2560
 6.5640	 6.2490
 6.5720	 6.2320
 6.5800	 6.2130
 6.5890	 6.1300
 6.5970	 6.1640
 6.6060	 6.0690
 6.6140	 6.1450
 6.6220	 6.1010
 6.6310	 6.0870
 6.6390	 6.0650
 6.6480	 6.0200
 6.6560	 5.9950
 6.6650	 6.1200
 6.6740	 6.1500
 6.6820	 6.1320
 6.6910	 6.1340
 6.6990	 6.2250
 6.7080	 6.1130
 6.7170	 6.0410
 6.7260	 5.9730
 6.7340	 5.9780
 6.7430	 5.9450
 6.7520	 5.9480
 6.7610	 5.9460
 6.7690	 5.9950
 6.7780	 6.0100
 6.7870	 6.1960
 6.7960	 6.1120
 6.8050	 6.0450
 6.8140	 6.0310
 6.8230	 6.1690
 6.8320	 6.2610
 6.8410	 6.3750
 6.8500	 6.3540
 6.8590	 6.3130
 6.8680	 6.1780
 6.8770	 6.3280
 6.8860	 6.3420
 6.8950	 6.2940
 6.9050	 6.2420
 6.9140	 6.2850
 6.9230	 6.1690
 6.9320	 6.2410
 6.9420	 6.2780
 6.9510	 6.2990
 6.9600	 6.2650
 6.9700	 6.2280
 6.9790	 6.2090
 6.9880	 6.3200
 6.9980	 6.3600
 7.0070	 6.4210
 7.0170	 6.2480
 7.0260	 6.2620
 7.0360	 6.2210
 7.0450	 6.2190
 7.0550	 6.1480
 7.0650	 6.3120
 7.0740	 6.3120
 7.0840	 6.2750
 7.0940	 6.2940
 7.1030	 6.4040
 7.1130	 6.2460
 7.1230	 6.3430
 7.1330	 6.3110
 7.1420	 6.2570
 7.1520	 6.3020
 7.1620	 6.4200
 7.1720	 6.3210
 7.1820	 6.4270
 7.1920	 6.4200
 7.2020	 6.2890
 7.2120	 6.1690
 7.2220	 6.1750
 7.2320	 5.9930
 7.2420	 6.0060
 7.2520	 6.0810
 7.2620	 6.2600
 7.2730	 6.1510
 7.2830	 6.1600
 7.2930	 6.1430
 7.3030	 6.2180
 7.3140	 6.1700
 7.3240	 6.1680
 7.3340	 6.0520
 7.3450	 6.1130
 7.3550	 6.0900
 7.3660	 6.1220
 7.3760	 6.0970
 7.3870	 6.3000
 7.3970	 6.2350
 7.4080	 6.1570
 7.4180	 6.2380
 7.4290	 6.3510
 7.4400	 6.2040
 7.4500	 6.2880
 7.4610	 6.1820
 7.4720	 6.1680
 7.4830	 6.2350
 7.4930	 6.4580
 7.5040	 6.3650
 7.5150	 6.3760
 7.5260	 6.3320
 7.5370	 6.3420
 7.5480	 6.2860
 7.5590	 6.3240
 7.5700	 6.2880
 7.5810	 6.3830
 7.5920	 6.2830
 7.6030	 6.2070
 7.6140	 6.0690
 7.6260	 6.0360
 7.6370	 5.8700
 7.6480	 5.9640
 7.6590	 5.9210
 7.6710	 5.8350
 7.6820	 5.8280
 7.6930	 5.9710
 7.7050	 5.8950
 7.7160	 5.8990
 7.7280	 5.9340
 7.7390	 6.0410
 7.7510	 5.9780
 7.7630	 5.9970
 7.7740	 5.9080
 7.7860	 5.9810
 7.7980	 5.9470
 7.8090	 6.0060
 7.8210	 5.9280
 7.8330	 6.0130
 7.8450	 6.0630
 7.8570	 5.9440
 7.8690	 5.8440
 7.8810	 6.0430
 7.8930	 5.8250
 7.9050	 5.8530
 7.9170	 5.8260
 7.9290	 5.8470
 7.9410	 5.8100
 7.9530	 5.9760
 7.9650	 5.9270
 7.9780	 6.0050
 7.9900	 5.8960
 8.0020	 5.9230
 8.0150	 5.8780
 8.0270	 5.9190
 8.0390	 5.9640
 8.0520	 6.2110
 8.0640	 6.1250
 8.0770	 6.1830
 8.0900	 6.0700
 8.1020	 6.0680
 8.1150	 6.0130
 8.1280	 6.1540
 8.1400	 5.8650
 8.1530	 5.8990
 8.1660	 5.8480
 8.1790	 6.0840
 8.1920	 6.1420
 8.2050	 6.0910
 8.2180	 5.8990
 8.2310	 6.0980
 8.2440	 6.0790
 8.2570	 6.0510
 8.2700	 5.8970
 8.2830	 5.8960
 8.2970	 5.8080
 8.3100	 5.9980
 8.3230	 6.0580
 8.3370	 6.1370
 8.3500	 6.0230
 8.3640	 6.2300
 8.3770	 6.2140
 8.3910	 6.2380
 8.4040	 6.1480
 8.4180	 6.2640
 8.4320	 5.9940
 8.4450	 5.8700
 8.4590	 5.8850
 8.4730	 6.2000
 8.4870	 6.3490
 8.5010	 6.4930
 8.5150	 6.4170
 8.5290	 6.6900
 8.5430	 6.7180
 8.5570	 6.8000
 8.5710	 6.6600
 8.5850	 6.7010
 8.5990	 6.7790
 8.6140	 6.9850
 8.6280	 6.8300
 8.6420	 6.8410
 8.6570	 6.6640
 8.6710	 6.7320
 8.6860	 6.6680
 8.7000	 6.8830
 8.7150	 6.8970
 8.7300	 7.1060
 8.7440	 6.8650
 8.7590	 6.8610
 8.7740	 6.7190
 8.7890	 6.6730
 8.8040	 6.5920
 8.8190	 6.7660
 8.8340	 6.7340
 8.8490	 7.0000
 8.8640	 6.8480
 8.8790	 6.7690
 8.8940	 6.6420
 8.9100	 6.7400
 8.9250	 6.6890
 8.9400	 6.7670
 8.9560	 6.6990
 8.9710	 6.8100
 8.9870	 6.7030
 9.0020	 6.8900
 9.0180	 6.7580
 9.0340	 6.7740
 9.0500	 6.7820
 9.0650	 6.9060
 9.0810	 6.8610
 9.0970	 6.9600
 9.1130	 6.8010
 9.1290	 6.8680
 9.1450	 6.7960
 9.1610	 6.8940
 9.1780	 6.8550
 9.1940	 6.9700
 9.2100	 6.7790
 9.2270	 6.8330
 9.2430	 6.7600
 9.2600	 6.9710
 9.2760	 6.7740
 9.2930	 6.6530
 9.3090	 6.4970
 9.3260	 6.6380
 9.3430	 6.4400
 9.3600	 6.5720
 9.3770	 6.6720
 9.3940	 6.8960
 9.4110	 6.6270
 9.4280	 6.6140
 9.4450	 6.5670
 9.4620	 6.7750
 9.4800	 6.5870
 9.4970	 6.6590
 9.5140	 6.6200
 9.5320	 6.7710
 9.5500	 6.6860
 9.5670	 6.7590
 9.5850	 6.5730
 9.6030	 6.5640
 9.6200	 6.4070
 9.6380	 6.5730
 9.6560	 6.5080
 9.6740	 6.5900
 9.6920	 6.5450
 9.7100	 6.7350
 9.7290	 6.5460
 9.7470	 6.5220
 9.7650	 6.2660
 9.7840	 6.3620
 9.8020	 6.3390
 9.8210	 6.4940
 9.8390	 6.3120
 9.8580	 6.4700
 9.8770	 6.5730
 9.8960	 6.7730
 9.9150	 6.4830
 9.9340	 6.5450
 9.9530	 6.4280
 9.9720	 6.5530
 9.9910	 6.4870
10.0100	 6.5930
10.0300	 6.4730
10.0490	 6.5280
10.0690	 6.3870
10.0880	 6.6330
10.1080	 6.6060
10.1280	 6.6080
10.1480	 6.4500
10.1670	 6.7610
10.1870	 6.6890
10.2070	 6.7510
10.2280	 6.6300
10.2480	 6.7210
10.2680	 6.5940
10.2890	 6.7530
10.3090	 6.7330
10.3300	 6.7650
10.3500	 6.5050
10.3710	 6.5580
10.3920	 6.4130
10.4120	 6.4040
10.4330	 6.1690
10.4540	 6.5590
10.4760	 6.5940
10.4970	 6.7620
10.5180	 6.5510
10.5390	 6.5750
10.5610	 6.3500
10.5820	 6.4930
10.6040	 6.4110
10.6260	 6.5470
10.6480	 6.3670
10.6700	 6.7010
10.6920	 6.6870
10.7140	 6.7120
10.7360	 6.6300
10.7580	 6.7300
10.7800	 6.4510
10.8030	 6.4070
10.8250	 6.2950
10.8480	 6.5520
10.8710	 6.5740
10.8940	 6.7150
10.9170	 6.5600
10.9400	 6.7600
10.9630	 6.6620
10.9860	 6.7970
11.0090	 6.5690
11.0330	 6.5660
11.0560	 6.4240
11.0800	 6.5150
11.1040	 6.4140
11.1270	 6.5520
11.1510	 6.2540
11.1750	 6.3880
11.2000	 6.4070
11.2240	 6.7360
11.2480	 6.5800
11.2730	 6.6130
11.2970	 6.3790
11.3220	 6.5150
11.3470	 6.4890
11.3720	 6.5720
11.3970	 6.3090
11.4220	 6.4630
11.4470	 6.1480
11.4720	 5.9070
11.4980	 6.2370
11.5230	 6.7030
11.5490	 6.4060
11.5750	 6.5930
11.6000	 6.5570
11.6260	 6.7150
11.6530	 6.4310
11.6790	 6.4290
11.7050	 6.1250
11.7320	 6.3540
11.7580	 6.2870
11.7850	 6.5420
11.8120	 6.3320
11.8390	 6.3090
11.8660	 6.1170
11.8930	 6.4250
11.9200	 6.2000
11.9480	 6.2040
11.9760	 5.9020
12.0030	 6.1670
12.0310	 6.0640
12.0590	 6.1790
12.0870	 6.0740
12.1150	 6.3330
12.1440	 5.9530
12.1720	 6.2910
12.2010	 6.1600
12.2300	 6.2410
12.2590	 5.8910
12.2880	 5.9710
12.3170	 6.0450
12.3460	 6.4030
12.3760	 6.0180
12.4050	 6.1090
12.4350	 6.0270
12.4650	 6.2640
12.4950	 6.1540
12.5250	 6.2420
12.5550	 5.9240
12.5860	 6.1730
12.6170	 6.0640
12.6470	 6.3920
12.6780	 6.1170
12.7090	 6.1460
12.7410	 5.7360
12.7720	 5.9410
12.8030	 5.7740
12.8350	 5.9490
12.8670	 5.5500
12.8990	 5.6400
12.9310	 5.4740
12.9640	 5.7860
12.9960	 5.6240
13.0290	 5.9010
13.0610	 5.6920
13.0940	 5.8930
13.1280	 5.5990
13.1610	 5.6630
13.1940	 5.3660
13.2280	 5.7270
13.2620	 5.4340
13.2960	 5.5710
13.3300	 5.3490
13.3640	 5.9300
13.3990	 5.7450
13.4340	 5.5960
13.4690	 5.1560
13.5040	 5.3600
13.5390	 5.1760
13.5740	 5.7610
13.6100	 5.6000
13.6460	 5.9240
13.6820	 5.7840
13.7180	 6.0090
13.7540	 5.3970
13.7910	 5.6030
13.8280	 5.6180
13.8650	 6.2620
13.9020	 5.9420
13.9390	 6.0260
13.9770	 5.9000
14.0150	 6.2360
14.0530	 5.9070
14.0910	 6.2230
14.1290	 5.9170
14.1680	 6.2500
14.2070	 5.7070
14.2460	 6.0520
14.2850	 5.6710
14.3240	 6.1220
14.3640	 5.6780
14.4040	 5.7570
14.4440	 5.2840
14.4840	 5.6570
14.5250	 5.2690
14.5660	 5.5870
14.6070	 5.1490
14.6480	 5.7850
14.6900	 5.0610
14.7310	 5.2460
14.7730	 4.8370
14.8150	 5.5660
14.8580	 5.3760
14.9010	 5.6940
14.9440	 4.3620
14.9870	 5.4910
15.0300	 5.4300
15.0740	 6.0230
15.1180	 5.5170
15.1620	 6.2300
15.2060	 5.3700
15.2510	 5.5670
15.2960	 5.3170
15.3410	 5.9150
15.3870	 4.8260
