Name: Pinus lambertiana 2
Type: vegetation
Class: Tree
Genus: Pinus
Species: lambertiana
Sample No.: VH258
Owner: UCSB
Wavelength Range: VSWIR
Origin: 37.0422; -119.3028; WGS84
Collection Date: 11/2/2013
Description: Samples were collected as part of the HyspIRI Airborne Campaign. 48 individual plants were sampled in three times in 2013 - spring  summer  and fall. The name of the sample includes a 1  2  or 3 which references a different individual of the species. Samples were taken to JPL and processed within 48 hours of collection. The same leaves were processed in the Nicolet and then measured using the ASD.
Measurement: Bidirectional reflectance
First Column: X
Second Column: Y
X Units: Wavelength (micrometers)
Y Units: Reflectance (percentage)
First X Value: 0.35
Last X Value: 2.5
Number of X Values: 2151
Additional Information: vegetation.tree.pinus.lambertiana.vswir.vh258.ucsb.asd.ancillary.txt

 0.3500	 5.7930
 0.3510	 5.5230
 0.3520	 5.3300
 0.3530	 5.2910
 0.3540	 5.3230
 0.3550	 5.3830
 0.3560	 5.3250
 0.3570	 5.2330
 0.3580	 5.2820
 0.3590	 5.3680
 0.3600	 5.4000
 0.3610	 5.3560
 0.3620	 5.3040
 0.3630	 5.2580
 0.3640	 5.2180
 0.3650	 5.1920
 0.3660	 5.2550
 0.3670	 5.2770
 0.3680	 5.2300
 0.3690	 5.1690
 0.3700	 5.2030
 0.3710	 5.2120
 0.3720	 5.1640
 0.3730	 5.2570
 0.3740	 5.2190
 0.3750	 5.1330
 0.3760	 5.1520
 0.3770	 5.1960
 0.3780	 5.2230
 0.3790	 5.2030
 0.3800	 5.1270
 0.3810	 5.1030
 0.3820	 5.0990
 0.3830	 5.1050
 0.3840	 5.2390
 0.3850	 5.2490
 0.3860	 5.1670
 0.3870	 5.1260
 0.3880	 5.1600
 0.3890	 5.1650
 0.3900	 5.1320
 0.3910	 5.1550
 0.3920	 5.1720
 0.3930	 5.1470
 0.3940	 5.0910
 0.3950	 5.1240
 0.3960	 5.1500
 0.3970	 5.1540
 0.3980	 5.1570
 0.3990	 5.1510
 0.4000	 5.1360
 0.4010	 5.1240
 0.4020	 5.1380
 0.4030	 5.1340
 0.4040	 5.1530
 0.4050	 5.2160
 0.4060	 5.2130
 0.4070	 5.2220
 0.4080	 5.2610
 0.4090	 5.2970
 0.4100	 5.3190
 0.4110	 5.3560
 0.4120	 5.4150
 0.4130	 5.4340
 0.4140	 5.4730
 0.4150	 5.5130
 0.4160	 5.5270
 0.4170	 5.5780
 0.4180	 5.6390
 0.4190	 5.6910
 0.4200	 5.7320
 0.4210	 5.7690
 0.4220	 5.8190
 0.4230	 5.8850
 0.4240	 5.9190
 0.4250	 5.9640
 0.4260	 6.0080
 0.4270	 6.0230
 0.4280	 6.0730
 0.4290	 6.1190
 0.4300	 6.1450
 0.4310	 6.1740
 0.4320	 6.2120
 0.4330	 6.2410
 0.4340	 6.2450
 0.4350	 6.2530
 0.4360	 6.2720
 0.4370	 6.3050
 0.4380	 6.3490
 0.4390	 6.3740
 0.4400	 6.4010
 0.4410	 6.4410
 0.4420	 6.4570
 0.4430	 6.4740
 0.4440	 6.4960
 0.4450	 6.5190
 0.4460	 6.5330
 0.4470	 6.5490
 0.4480	 6.5720
 0.4490	 6.5990
 0.4500	 6.6150
 0.4510	 6.6230
 0.4520	 6.6340
 0.4530	 6.6600
 0.4540	 6.6770
 0.4550	 6.6810
 0.4560	 6.6850
 0.4570	 6.7030
 0.4580	 6.7180
 0.4590	 6.7220
 0.4600	 6.7340
 0.4610	 6.7430
 0.4620	 6.7450
 0.4630	 6.7420
 0.4640	 6.7580
 0.4650	 6.7770
 0.4660	 6.7890
 0.4670	 6.7890
 0.4680	 6.7890
 0.4690	 6.7920
 0.4700	 6.7970
 0.4710	 6.7970
 0.4720	 6.7970
 0.4730	 6.8010
 0.4740	 6.8110
 0.4750	 6.8140
 0.4760	 6.8180
 0.4770	 6.8260
 0.4780	 6.8300
 0.4790	 6.8400
 0.4800	 6.8500
 0.4810	 6.8530
 0.4820	 6.8650
 0.4830	 6.8700
 0.4840	 6.8680
 0.4850	 6.8710
 0.4860	 6.8770
 0.4870	 6.8850
 0.4880	 6.8970
 0.4890	 6.9160
 0.4900	 6.9380
 0.4910	 6.9600
 0.4920	 6.9770
 0.4930	 7.0010
 0.4940	 7.0320
 0.4950	 7.0670
 0.4960	 7.0990
 0.4970	 7.1380
 0.4980	 7.1820
 0.4990	 7.2250
 0.5000	 7.2760
 0.5010	 7.3360
 0.5020	 7.4040
 0.5030	 7.4750
 0.5040	 7.5550
 0.5050	 7.6460
 0.5060	 7.7440
 0.5070	 7.8440
 0.5080	 7.9520
 0.5090	 8.0740
 0.5100	 8.2120
 0.5110	 8.3600
 0.5120	 8.5150
 0.5130	 8.6770
 0.5140	 8.8600
 0.5150	 9.0490
 0.5160	 9.2430
 0.5170	 9.4430
 0.5180	 9.6540
 0.5190	 9.8710
 0.5200	10.0920
 0.5210	10.3150
 0.5220	10.5320
 0.5230	10.7400
 0.5240	10.9420
 0.5250	11.1420
 0.5260	11.3370
 0.5270	11.5190
 0.5280	11.6830
 0.5290	11.8390
 0.5300	11.9840
 0.5310	12.1160
 0.5320	12.2410
 0.5330	12.3480
 0.5340	12.4450
 0.5350	12.5400
 0.5360	12.6210
 0.5370	12.6930
 0.5380	12.7580
 0.5390	12.8140
 0.5400	12.8600
 0.5410	12.8960
 0.5420	12.9260
 0.5430	12.9610
 0.5440	13.0040
 0.5450	13.0490
 0.5460	13.0930
 0.5470	13.1590
 0.5480	13.2280
 0.5490	13.2830
 0.5500	13.3200
 0.5510	13.3500
 0.5520	13.3770
 0.5530	13.3960
 0.5540	13.3960
 0.5550	13.3860
 0.5560	13.3660
 0.5570	13.3260
 0.5580	13.2750
 0.5590	13.2170
 0.5600	13.1550
 0.5610	13.0790
 0.5620	12.9950
 0.5630	12.9030
 0.5640	12.8020
 0.5650	12.6940
 0.5660	12.5810
 0.5670	12.4630
 0.5680	12.3410
 0.5690	12.2130
 0.5700	12.0850
 0.5710	11.9620
 0.5720	11.8410
 0.5730	11.7290
 0.5740	11.6250
 0.5750	11.5250
 0.5760	11.4260
 0.5770	11.3330
 0.5780	11.2460
 0.5790	11.1570
 0.5800	11.0840
 0.5810	11.0190
 0.5820	10.9540
 0.5830	10.8910
 0.5840	10.8270
 0.5850	10.7620
 0.5860	10.7050
 0.5870	10.6520
 0.5880	10.6000
 0.5890	10.5500
 0.5900	10.5010
 0.5910	10.4620
 0.5920	10.4330
 0.5930	10.4070
 0.5940	10.3840
 0.5950	10.3590
 0.5960	10.3320
 0.5970	10.3080
 0.5980	10.2820
 0.5990	10.2520
 0.6000	10.2200
 0.6010	10.1910
 0.6020	10.1620
 0.6030	10.1310
 0.6040	10.0950
 0.6050	10.0500
 0.6060	10.0020
 0.6070	 9.9560
 0.6080	 9.9020
 0.6090	 9.8380
 0.6100	 9.7630
 0.6110	 9.6800
 0.6120	 9.6270
 0.6130	 9.5820
 0.6140	 9.5330
 0.6150	 9.4820
 0.6160	 9.4310
 0.6170	 9.3820
 0.6180	 9.3340
 0.6190	 9.2910
 0.6200	 9.2500
 0.6210	 9.2150
 0.6220	 9.1890
 0.6230	 9.1670
 0.6240	 9.1480
 0.6250	 9.1320
 0.6260	 9.1230
 0.6270	 9.1180
 0.6280	 9.1140
 0.6290	 9.1070
 0.6300	 9.1020
 0.6310	 9.0960
 0.6320	 9.0860
 0.6330	 9.0720
 0.6340	 9.0530
 0.6350	 9.0210
 0.6360	 8.9720
 0.6370	 8.9160
 0.6380	 8.8520
 0.6390	 8.7800
 0.6400	 8.6980
 0.6410	 8.6130
 0.6420	 8.5270
 0.6430	 8.4390
 0.6440	 8.3560
 0.6450	 8.2760
 0.6460	 8.1970
 0.6470	 8.1220
 0.6480	 8.0600
 0.6490	 8.0050
 0.6500	 7.9580
 0.6510	 7.9190
 0.6520	 7.8880
 0.6530	 7.8600
 0.6540	 7.8320
 0.6550	 7.8030
 0.6560	 7.7760
 0.6570	 7.7430
 0.6580	 7.6980
 0.6590	 7.6560
 0.6600	 7.6110
 0.6610	 7.5620
 0.6620	 7.5070
 0.6630	 7.4570
 0.6640	 7.4110
 0.6650	 7.3680
 0.6660	 7.3350
 0.6670	 7.3060
 0.6680	 7.2820
 0.6690	 7.2640
 0.6700	 7.2500
 0.6710	 7.2390
 0.6720	 7.2340
 0.6730	 7.2380
 0.6740	 7.2480
 0.6750	 7.2600
 0.6760	 7.2740
 0.6770	 7.2940
 0.6780	 7.3180
 0.6790	 7.3480
 0.6800	 7.3870
 0.6810	 7.4320
 0.6820	 7.4850
 0.6830	 7.5480
 0.6840	 7.6280
 0.6850	 7.7290
 0.6860	 7.8520
 0.6870	 8.0010
 0.6880	 8.1980
 0.6890	 8.4400
 0.6900	 8.7350
 0.6910	 9.0920
 0.6920	 9.5160
 0.6930	10.0050
 0.6940	10.5590
 0.6950	11.1830
 0.6960	11.8640
 0.6970	12.5940
 0.6980	13.3670
 0.6990	14.1830
 0.7000	15.0330
 0.7010	15.9080
 0.7020	16.8000
 0.7030	17.7050
 0.7040	18.6190
 0.7050	19.5390
 0.7060	20.4520
 0.7070	21.3720
 0.7080	22.2920
 0.7090	23.2030
 0.7100	24.1190
 0.7110	25.0310
 0.7120	25.9390
 0.7130	26.8520
 0.7140	27.7580
 0.7150	28.6550
 0.7160	29.5430
 0.7170	30.4200
 0.7180	31.2950
 0.7190	32.1620
 0.7200	33.0100
 0.7210	33.8480
 0.7220	34.6670
 0.7230	35.4640
 0.7240	36.2530
 0.7250	37.0130
 0.7260	37.7470
 0.7270	38.4570
 0.7280	39.1370
 0.7290	39.7900
 0.7300	40.4120
 0.7310	40.9950
 0.7320	41.5620
 0.7330	42.0980
 0.7340	42.6010
 0.7350	43.0920
 0.7360	43.5470
 0.7370	43.9780
 0.7380	44.3920
 0.7390	44.7610
 0.7400	45.1100
 0.7410	45.4430
 0.7420	45.7560
 0.7430	46.0520
 0.7440	46.3220
 0.7450	46.5670
 0.7460	46.7930
 0.7470	47.0090
 0.7480	47.2050
 0.7490	47.3740
 0.7500	47.5410
 0.7510	47.6900
 0.7520	47.8170
 0.7530	47.9310
 0.7540	48.0620
 0.7550	48.1730
 0.7560	48.2540
 0.7570	48.3240
 0.7580	48.4000
 0.7590	48.4750
 0.7600	48.5410
 0.7610	48.5970
 0.7620	48.6530
 0.7630	48.7070
 0.7640	48.7510
 0.7650	48.7830
 0.7660	48.8060
 0.7670	48.8310
 0.7680	48.8700
 0.7690	48.9020
 0.7700	48.9240
 0.7710	48.9400
 0.7720	48.9650
 0.7730	48.9810
 0.7740	49.0000
 0.7750	49.0280
 0.7760	49.0380
 0.7770	49.0510
 0.7780	49.0680
 0.7790	49.0850
 0.7800	49.1010
 0.7810	49.1130
 0.7820	49.1250
 0.7830	49.1470
 0.7840	49.1620
 0.7850	49.1790
 0.7860	49.1990
 0.7870	49.2030
 0.7880	49.2210
 0.7890	49.2480
 0.7900	49.2700
 0.7910	49.2810
 0.7920	49.2920
 0.7930	49.3060
 0.7940	49.3230
 0.7950	49.3480
 0.7960	49.3640
 0.7970	49.3690
 0.7980	49.3890
 0.7990	49.4090
 0.8000	49.4270
 0.8010	49.4420
 0.8020	49.4560
 0.8030	49.4770
 0.8040	49.4980
 0.8050	49.5080
 0.8060	49.5360
 0.8070	49.5510
 0.8080	49.5540
 0.8090	49.5730
 0.8100	49.5930
 0.8110	49.6090
 0.8120	49.6260
 0.8130	49.6550
 0.8140	49.6630
 0.8150	49.6730
 0.8160	49.7050
 0.8170	49.7260
 0.8180	49.7540
 0.8190	49.7790
 0.8200	49.7890
 0.8210	49.8020
 0.8220	49.8080
 0.8230	49.8150
 0.8240	49.8450
 0.8250	49.8650
 0.8260	49.8700
 0.8270	49.8720
 0.8280	49.9000
 0.8290	49.9280
 0.8300	49.9440
 0.8310	49.9480
 0.8320	49.9560
 0.8330	49.9790
 0.8340	50.0010
 0.8350	50.0040
 0.8360	50.0170
 0.8370	50.0390
 0.8380	50.0660
 0.8390	50.0830
 0.8400	50.0940
 0.8410	50.1040
 0.8420	50.1230
 0.8430	50.1620
 0.8440	50.1810
 0.8450	50.1970
 0.8460	50.2280
 0.8470	50.2590
 0.8480	50.2650
 0.8490	50.2730
 0.8500	50.3070
 0.8510	50.3170
 0.8520	50.3250
 0.8530	50.3420
 0.8540	50.3670
 0.8550	50.3730
 0.8560	50.3860
 0.8570	50.4090
 0.8580	50.4200
 0.8590	50.4280
 0.8600	50.4410
 0.8610	50.4620
 0.8620	50.4840
 0.8630	50.4950
 0.8640	50.5000
 0.8650	50.5110
 0.8660	50.5330
 0.8670	50.5410
 0.8680	50.5380
 0.8690	50.5400
 0.8700	50.5490
 0.8710	50.5590
 0.8720	50.5680
 0.8730	50.5760
 0.8740	50.5860
 0.8750	50.6040
 0.8760	50.6200
 0.8770	50.6120
 0.8780	50.6190
 0.8790	50.6320
 0.8800	50.6350
 0.8810	50.6130
 0.8820	50.6190
 0.8830	50.6290
 0.8840	50.6220
 0.8850	50.6200
 0.8860	50.6260
 0.8870	50.6290
 0.8880	50.6220
 0.8890	50.6270
 0.8900	50.6290
 0.8910	50.6260
 0.8920	50.6190
 0.8930	50.6040
 0.8940	50.6090
 0.8950	50.6230
 0.8960	50.6160
 0.8970	50.6150
 0.8980	50.6140
 0.8990	50.6090
 0.9000	50.5960
 0.9010	50.5810
 0.9020	50.5760
 0.9030	50.5800
 0.9040	50.5750
 0.9050	50.5610
 0.9060	50.5500
 0.9070	50.5480
 0.9080	50.5490
 0.9090	50.5410
 0.9100	50.5290
 0.9110	50.5210
 0.9120	50.5120
 0.9130	50.4940
 0.9140	50.4860
 0.9150	50.5000
 0.9160	50.4840
 0.9170	50.4700
 0.9180	50.4550
 0.9190	50.4330
 0.9200	50.4250
 0.9210	50.4220
 0.9220	50.4110
 0.9230	50.3860
 0.9240	50.3650
 0.9250	50.3380
 0.9260	50.3130
 0.9270	50.3010
 0.9280	50.2660
 0.9290	50.2230
 0.9300	50.1830
 0.9310	50.1440
 0.9320	50.1220
 0.9330	50.0980
 0.9340	50.0570
 0.9350	49.9990
 0.9360	49.9560
 0.9370	49.9160
 0.9380	49.8710
 0.9390	49.8300
 0.9400	49.7750
 0.9410	49.7160
 0.9420	49.6630
 0.9430	49.6090
 0.9440	49.5470
 0.9450	49.4840
 0.9460	49.4180
 0.9470	49.3240
 0.9480	49.2320
 0.9490	49.1480
 0.9500	49.0660
 0.9510	48.9560
 0.9520	48.8500
 0.9530	48.7360
 0.9540	48.6080
 0.9550	48.5000
 0.9560	48.3900
 0.9570	48.2840
 0.9580	48.1960
 0.9590	48.1040
 0.9600	48.0060
 0.9610	47.9260
 0.9620	47.8810
 0.9630	47.8260
 0.9640	47.7670
 0.9650	47.7190
 0.9660	47.6910
 0.9670	47.6750
 0.9680	47.6400
 0.9690	47.6040
 0.9700	47.5950
 0.9710	47.5760
 0.9720	47.5580
 0.9730	47.5440
 0.9740	47.5370
 0.9750	47.5370
 0.9760	47.5350
 0.9770	47.5390
 0.9780	47.5560
 0.9790	47.5570
 0.9800	47.5590
 0.9810	47.5790
 0.9820	47.6180
 0.9830	47.6350
 0.9840	47.6540
 0.9850	47.6830
 0.9860	47.7210
 0.9870	47.7450
 0.9880	47.7780
 0.9890	47.8210
 0.9900	47.8650
 0.9910	47.9150
 0.9920	47.9650
 0.9930	48.0020
 0.9940	48.0260
 0.9950	48.0850
 0.9960	48.1530
 0.9970	48.2090
 0.9980	48.2470
 0.9990	48.2760
 1.0000	48.4800
 1.0010	48.7750
 1.0020	48.9810
 1.0030	49.0470
 1.0040	49.1080
 1.0050	49.1650
 1.0060	49.2210
 1.0070	49.2770
 1.0080	49.3310
 1.0090	49.3810
 1.0100	49.4330
 1.0110	49.4860
 1.0120	49.5390
 1.0130	49.5910
 1.0140	49.6440
 1.0150	49.7000
 1.0160	49.7500
 1.0170	49.8010
 1.0180	49.8570
 1.0190	49.9120
 1.0200	49.9660
 1.0210	50.0220
 1.0220	50.0800
 1.0230	50.1350
 1.0240	50.1900
 1.0250	50.2390
 1.0260	50.2860
 1.0270	50.3300
 1.0280	50.3660
 1.0290	50.4110
 1.0300	50.4590
 1.0310	50.5040
 1.0320	50.5540
 1.0330	50.5980
 1.0340	50.6390
 1.0350	50.6790
 1.0360	50.7170
 1.0370	50.7610
 1.0380	50.8000
 1.0390	50.8360
 1.0400	50.8720
 1.0410	50.9070
 1.0420	50.9400
 1.0430	50.9720
 1.0440	51.0030
 1.0450	51.0320
 1.0460	51.0620
 1.0470	51.0890
 1.0480	51.1200
 1.0490	51.1550
 1.0500	51.1850
 1.0510	51.2140
 1.0520	51.2440
 1.0530	51.2680
 1.0540	51.2870
 1.0550	51.3070
 1.0560	51.3230
 1.0570	51.3430
 1.0580	51.3670
 1.0590	51.3830
 1.0600	51.3960
 1.0610	51.4110
 1.0620	51.4210
 1.0630	51.4340
 1.0640	51.4540
 1.0650	51.4690
 1.0660	51.4830
 1.0670	51.4940
 1.0680	51.5030
 1.0690	51.5110
 1.0700	51.5160
 1.0710	51.5150
 1.0720	51.5180
 1.0730	51.5250
 1.0740	51.5260
 1.0750	51.5240
 1.0760	51.5230
 1.0770	51.5190
 1.0780	51.5170
 1.0790	51.5180
 1.0800	51.5160
 1.0810	51.5130
 1.0820	51.5070
 1.0830	51.5020
 1.0840	51.4930
 1.0850	51.4770
 1.0860	51.4670
 1.0870	51.4560
 1.0880	51.4460
 1.0890	51.4340
 1.0900	51.4230
 1.0910	51.4090
 1.0920	51.3880
 1.0930	51.3710
 1.0940	51.3600
 1.0950	51.3410
 1.0960	51.3200
 1.0970	51.2980
 1.0980	51.2720
 1.0990	51.2470
 1.1000	51.2220
 1.1010	51.1970
 1.1020	51.1700
 1.1030	51.1450
 1.1040	51.1190
 1.1050	51.0920
 1.1060	51.0660
 1.1070	51.0390
 1.1080	51.0100
 1.1090	50.9790
 1.1100	50.9480
 1.1110	50.9150
 1.1120	50.8810
 1.1130	50.8510
 1.1140	50.8130
 1.1150	50.7690
 1.1160	50.7240
 1.1170	50.6770
 1.1180	50.6250
 1.1190	50.5740
 1.1200	50.5140
 1.1210	50.4450
 1.1220	50.3740
 1.1230	50.2940
 1.1240	50.2060
 1.1250	50.1100
 1.1260	50.0090
 1.1270	49.8960
 1.1280	49.7750
 1.1290	49.6430
 1.1300	49.5050
 1.1310	49.3470
 1.1320	49.1760
 1.1330	48.9920
 1.1340	48.7910
 1.1350	48.5830
 1.1360	48.3630
 1.1370	48.1340
 1.1380	47.8990
 1.1390	47.6540
 1.1400	47.3990
 1.1410	47.1430
 1.1420	46.8830
 1.1430	46.6190
 1.1440	46.3610
 1.1450	46.1040
 1.1460	45.8520
 1.1470	45.5970
 1.1480	45.3610
 1.1490	45.1290
 1.1500	44.9160
 1.1510	44.7170
 1.1520	44.5290
 1.1530	44.3520
 1.1540	44.1910
 1.1550	44.0430
 1.1560	43.9100
 1.1570	43.7920
 1.1580	43.6880
 1.1590	43.5970
 1.1600	43.5140
 1.1610	43.4410
 1.1620	43.3760
 1.1630	43.3150
 1.1640	43.2620
 1.1650	43.2170
 1.1660	43.1790
 1.1670	43.1460
 1.1680	43.1240
 1.1690	43.1000
 1.1700	43.0810
 1.1710	43.0600
 1.1720	43.0430
 1.1730	43.0240
 1.1740	43.0040
 1.1750	42.9840
 1.1760	42.9640
 1.1770	42.9410
 1.1780	42.9160
 1.1790	42.8930
 1.1800	42.8700
 1.1810	42.8450
 1.1820	42.8210
 1.1830	42.7970
 1.1840	42.7710
 1.1850	42.7450
 1.1860	42.7200
 1.1870	42.6950
 1.1880	42.6730
 1.1890	42.6510
 1.1900	42.6330
 1.1910	42.6170
 1.1920	42.6050
 1.1930	42.5990
 1.1940	42.5920
 1.1950	42.5870
 1.1960	42.5830
 1.1970	42.5810
 1.1980	42.5840
 1.1990	42.5940
 1.2000	42.6080
 1.2010	42.6250
 1.2020	42.6430
 1.2030	42.6600
 1.2040	42.6790
 1.2050	42.7020
 1.2060	42.7270
 1.2070	42.7570
 1.2080	42.7880
 1.2090	42.8220
 1.2100	42.8580
 1.2110	42.8940
 1.2120	42.9330
 1.2130	42.9730
 1.2140	43.0110
 1.2150	43.0560
 1.2160	43.1050
 1.2170	43.1560
 1.2180	43.2080
 1.2190	43.2620
 1.2200	43.3110
 1.2210	43.3620
 1.2220	43.4160
 1.2230	43.4700
 1.2240	43.5270
 1.2250	43.5820
 1.2260	43.6370
 1.2270	43.6920
 1.2280	43.7460
 1.2290	43.8000
 1.2300	43.8510
 1.2310	43.9020
 1.2320	43.9520
 1.2330	43.9990
 1.2340	44.0460
 1.2350	44.0930
 1.2360	44.1380
 1.2370	44.1810
 1.2380	44.2260
 1.2390	44.2670
 1.2400	44.3080
 1.2410	44.3500
 1.2420	44.3890
 1.2430	44.4300
 1.2440	44.4690
 1.2450	44.5020
 1.2460	44.5360
 1.2470	44.5690
 1.2480	44.6010
 1.2490	44.6340
 1.2500	44.6630
 1.2510	44.6920
 1.2520	44.7200
 1.2530	44.7460
 1.2540	44.7720
 1.2550	44.7960
 1.2560	44.8160
 1.2570	44.8340
 1.2580	44.8510
 1.2590	44.8660
 1.2600	44.8770
 1.2610	44.8900
 1.2620	44.9030
 1.2630	44.9140
 1.2640	44.9240
 1.2650	44.9330
 1.2660	44.9380
 1.2670	44.9410
 1.2680	44.9450
 1.2690	44.9460
 1.2700	44.9450
 1.2710	44.9410
 1.2720	44.9340
 1.2730	44.9260
 1.2740	44.9180
 1.2750	44.9090
 1.2760	44.8950
 1.2770	44.8800
 1.2780	44.8630
 1.2790	44.8410
 1.2800	44.8180
 1.2810	44.7930
 1.2820	44.7660
 1.2830	44.7370
 1.2840	44.7080
 1.2850	44.6750
 1.2860	44.6380
 1.2870	44.5970
 1.2880	44.5530
 1.2890	44.5040
 1.2900	44.4510
 1.2910	44.3960
 1.2920	44.3380
 1.2930	44.2780
 1.2940	44.2150
 1.2950	44.1460
 1.2960	44.0720
 1.2970	43.9940
 1.2980	43.9120
 1.2990	43.8250
 1.3000	43.7390
 1.3010	43.6480
 1.3020	43.5500
 1.3030	43.4490
 1.3040	43.3410
 1.3050	43.2300
 1.3060	43.1160
 1.3070	42.9970
 1.3080	42.8740
 1.3090	42.7460
 1.3100	42.6110
 1.3110	42.4690
 1.3120	42.3220
 1.3130	42.1730
 1.3140	42.0170
 1.3150	41.8570
 1.3160	41.6930
 1.3170	41.5260
 1.3180	41.3520
 1.3190	41.1740
 1.3200	40.9920
 1.3210	40.8040
 1.3220	40.6120
 1.3230	40.4180
 1.3240	40.2200
 1.3250	40.0210
 1.3260	39.8180
 1.3270	39.6100
 1.3280	39.4000
 1.3290	39.1850
 1.3300	38.9680
 1.3310	38.7500
 1.3320	38.5320
 1.3330	38.3150
 1.3340	38.1000
 1.3350	37.8830
 1.3360	37.6670
 1.3370	37.4490
 1.3380	37.2310
 1.3390	37.0160
 1.3400	36.8030
 1.3410	36.5950
 1.3420	36.3910
 1.3430	36.1890
 1.3440	35.9890
 1.3450	35.7920
 1.3460	35.5950
 1.3470	35.4040
 1.3480	35.2190
 1.3490	35.0360
 1.3500	34.8570
 1.3510	34.6810
 1.3520	34.5040
 1.3530	34.3300
 1.3540	34.1580
 1.3550	33.9870
 1.3560	33.8180
 1.3570	33.6450
 1.3580	33.4720
 1.3590	33.2960
 1.3600	33.1150
 1.3610	32.9300
 1.3620	32.7370
 1.3630	32.5370
 1.3640	32.3330
 1.3650	32.1180
 1.3660	31.8990
 1.3670	31.6700
 1.3680	31.4270
 1.3690	31.1720
 1.3700	30.9010
 1.3710	30.6180
 1.3720	30.3220
 1.3730	30.0080
 1.3740	29.6820
 1.3750	29.3370
 1.3760	28.9720
 1.3770	28.5900
 1.3780	28.1840
 1.3790	27.7590
 1.3800	27.3140
 1.3810	26.8450
 1.3820	26.3650
 1.3830	25.8690
 1.3840	25.3600
 1.3850	24.8370
 1.3860	24.3080
 1.3870	23.7630
 1.3880	23.2240
 1.3890	22.6800
 1.3900	22.1350
 1.3910	21.6000
 1.3920	21.0680
 1.3930	20.5420
 1.3940	20.0270
 1.3950	19.5180
 1.3960	19.0250
 1.3970	18.5490
 1.3980	18.0900
 1.3990	17.6540
 1.4000	17.2370
 1.4010	16.8360
 1.4020	16.4560
 1.4030	16.0940
 1.4040	15.7520
 1.4050	15.4330
 1.4060	15.1310
 1.4070	14.8520
 1.4080	14.5900
 1.4090	14.3430
 1.4100	14.1150
 1.4110	13.9020
 1.4120	13.7040
 1.4130	13.5200
 1.4140	13.3510
 1.4150	13.1960
 1.4160	13.0530
 1.4170	12.9200
 1.4180	12.7990
 1.4190	12.6870
 1.4200	12.5840
 1.4210	12.4890
 1.4220	12.4020
 1.4230	12.3230
 1.4240	12.2510
 1.4250	12.1840
 1.4260	12.1250
 1.4270	12.0700
 1.4280	12.0200
 1.4290	11.9750
 1.4300	11.9350
 1.4310	11.8990
 1.4320	11.8680
 1.4330	11.8410
 1.4340	11.8180
 1.4350	11.7980
 1.4360	11.7820
 1.4370	11.7680
 1.4380	11.7570
 1.4390	11.7490
 1.4400	11.7420
 1.4410	11.7380
 1.4420	11.7360
 1.4430	11.7360
 1.4440	11.7380
 1.4450	11.7410
 1.4460	11.7460
 1.4470	11.7520
 1.4480	11.7580
 1.4490	11.7660
 1.4500	11.7730
 1.4510	11.7820
 1.4520	11.7940
 1.4530	11.8060
 1.4540	11.8200
 1.4550	11.8350
 1.4560	11.8500
 1.4570	11.8670
 1.4580	11.8870
 1.4590	11.9080
 1.4600	11.9340
 1.4610	11.9620
 1.4620	11.9910
 1.4630	12.0240
 1.4640	12.0590
 1.4650	12.0960
 1.4660	12.1380
 1.4670	12.1810
 1.4680	12.2290
 1.4690	12.2800
 1.4700	12.3330
 1.4710	12.3900
 1.4720	12.4500
 1.4730	12.5110
 1.4740	12.5770
 1.4750	12.6440
 1.4760	12.7130
 1.4770	12.7840
 1.4780	12.8540
 1.4790	12.9280
 1.4800	13.0030
 1.4810	13.0800
 1.4820	13.1610
 1.4830	13.2420
 1.4840	13.3240
 1.4850	13.4060
 1.4860	13.4880
 1.4870	13.5730
 1.4880	13.6590
 1.4890	13.7450
 1.4900	13.8320
 1.4910	13.9190
 1.4920	14.0080
 1.4930	14.0990
 1.4940	14.1900
 1.4950	14.2830
 1.4960	14.3750
 1.4970	14.4650
 1.4980	14.5570
 1.4990	14.6490
 1.5000	14.7430
 1.5010	14.8390
 1.5020	14.9340
 1.5030	15.0280
 1.5040	15.1230
 1.5050	15.2160
 1.5060	15.3110
 1.5070	15.4070
 1.5080	15.5030
 1.5090	15.5990
 1.5100	15.6940
 1.5110	15.7880
 1.5120	15.8830
 1.5130	15.9780
 1.5140	16.0730
 1.5150	16.1690
 1.5160	16.2630
 1.5170	16.3570
 1.5180	16.4490
 1.5190	16.5420
 1.5200	16.6340
 1.5210	16.7240
 1.5220	16.8160
 1.5230	16.9070
 1.5240	16.9980
 1.5250	17.0910
 1.5260	17.1820
 1.5270	17.2730
 1.5280	17.3650
 1.5290	17.4540
 1.5300	17.5450
 1.5310	17.6360
 1.5320	17.7240
 1.5330	17.8130
 1.5340	17.9000
 1.5350	17.9860
 1.5360	18.0730
 1.5370	18.1590
 1.5380	18.2450
 1.5390	18.3330
 1.5400	18.4190
 1.5410	18.5040
 1.5420	18.5880
 1.5430	18.6710
 1.5440	18.7550
 1.5450	18.8380
 1.5460	18.9210
 1.5470	19.0030
 1.5480	19.0840
 1.5490	19.1660
 1.5500	19.2480
 1.5510	19.3300
 1.5520	19.4120
 1.5530	19.4920
 1.5540	19.5720
 1.5550	19.6520
 1.5560	19.7300
 1.5570	19.8060
 1.5580	19.8820
 1.5590	19.9560
 1.5600	20.0330
 1.5610	20.1090
 1.5620	20.1840
 1.5630	20.2610
 1.5640	20.3340
 1.5650	20.4090
 1.5660	20.4830
 1.5670	20.5550
 1.5680	20.6270
 1.5690	20.6980
 1.5700	20.7690
 1.5710	20.8400
 1.5720	20.9100
 1.5730	20.9830
 1.5740	21.0530
 1.5750	21.1220
 1.5760	21.1920
 1.5770	21.2600
 1.5780	21.3270
 1.5790	21.3970
 1.5800	21.4650
 1.5810	21.5330
 1.5820	21.6020
 1.5830	21.6690
 1.5840	21.7350
 1.5850	21.8010
 1.5860	21.8670
 1.5870	21.9320
 1.5880	21.9980
 1.5890	22.0650
 1.5900	22.1300
 1.5910	22.1960
 1.5920	22.2610
 1.5930	22.3260
 1.5940	22.3910
 1.5950	22.4580
 1.5960	22.5240
 1.5970	22.5890
 1.5980	22.6540
 1.5990	22.7180
 1.6000	22.7800
 1.6010	22.8410
 1.6020	22.9040
 1.6030	22.9670
 1.6040	23.0290
 1.6050	23.0910
 1.6060	23.1520
 1.6070	23.2110
 1.6080	23.2720
 1.6090	23.3300
 1.6100	23.3840
 1.6110	23.4410
 1.6120	23.4940
 1.6130	23.5500
 1.6140	23.6070
 1.6150	23.6600
 1.6160	23.7110
 1.6170	23.7610
 1.6180	23.8120
 1.6190	23.8620
 1.6200	23.9130
 1.6210	23.9610
 1.6220	24.0080
 1.6230	24.0540
 1.6240	24.0990
 1.6250	24.1420
 1.6260	24.1850
 1.6270	24.2290
 1.6280	24.2680
 1.6290	24.3080
 1.6300	24.3460
 1.6310	24.3860
 1.6320	24.4270
 1.6330	24.4670
 1.6340	24.5070
 1.6350	24.5440
 1.6360	24.5790
 1.6370	24.6140
 1.6380	24.6490
 1.6390	24.6820
 1.6400	24.7140
 1.6410	24.7450
 1.6420	24.7740
 1.6430	24.8000
 1.6440	24.8240
 1.6450	24.8460
 1.6460	24.8650
 1.6470	24.8830
 1.6480	24.8980
 1.6490	24.9090
 1.6500	24.9180
 1.6510	24.9220
 1.6520	24.9260
 1.6530	24.9280
 1.6540	24.9280
 1.6550	24.9260
 1.6560	24.9210
 1.6570	24.9150
 1.6580	24.9090
 1.6590	24.9020
 1.6600	24.8970
 1.6610	24.8860
 1.6620	24.8750
 1.6630	24.8670
 1.6640	24.8580
 1.6650	24.8520
 1.6660	24.8470
 1.6670	24.8400
 1.6680	24.8350
 1.6690	24.8310
 1.6700	24.8260
 1.6710	24.8240
 1.6720	24.8200
 1.6730	24.8140
 1.6740	24.8080
 1.6750	24.8000
 1.6760	24.7900
 1.6770	24.7810
 1.6780	24.7710
 1.6790	24.7590
 1.6800	24.7460
 1.6810	24.7300
 1.6820	24.7100
 1.6830	24.6880
 1.6840	24.6650
 1.6850	24.6360
 1.6860	24.6070
 1.6870	24.5760
 1.6880	24.5400
 1.6890	24.5050
 1.6900	24.4680
 1.6910	24.4270
 1.6920	24.3880
 1.6930	24.3480
 1.6940	24.3100
 1.6950	24.2730
 1.6960	24.2330
 1.6970	24.1920
 1.6980	24.1520
 1.6990	24.1090
 1.7000	24.0680
 1.7010	24.0280
 1.7020	23.9840
 1.7030	23.9390
 1.7040	23.8930
 1.7050	23.8450
 1.7060	23.7980
 1.7070	23.7500
 1.7080	23.7000
 1.7090	23.6470
 1.7100	23.5940
 1.7110	23.5410
 1.7120	23.4890
 1.7130	23.4380
 1.7140	23.3870
 1.7150	23.3350
 1.7160	23.2840
 1.7170	23.2360
 1.7180	23.1860
 1.7190	23.1380
 1.7200	23.0880
 1.7210	23.0350
 1.7220	22.9850
 1.7230	22.9340
 1.7240	22.8830
 1.7250	22.8330
 1.7260	22.7820
 1.7270	22.7320
 1.7280	22.6840
 1.7290	22.6360
 1.7300	22.5920
 1.7310	22.5480
 1.7320	22.5060
 1.7330	22.4630
 1.7340	22.4200
 1.7350	22.3770
 1.7360	22.3360
 1.7370	22.2920
 1.7380	22.2510
 1.7390	22.2060
 1.7400	22.1540
 1.7410	22.1060
 1.7420	22.0560
 1.7430	22.0060
 1.7440	21.9580
 1.7450	21.9040
 1.7460	21.8440
 1.7470	21.7890
 1.7480	21.7330
 1.7490	21.6770
 1.7500	21.6240
 1.7510	21.5670
 1.7520	21.5060
 1.7530	21.4470
 1.7540	21.3870
 1.7550	21.3280
 1.7560	21.2710
 1.7570	21.2150
 1.7580	21.1590
 1.7590	21.1030
 1.7600	21.0490
 1.7610	20.9940
 1.7620	20.9430
 1.7630	20.8950
 1.7640	20.8490
 1.7650	20.8050
 1.7660	20.7610
 1.7670	20.7150
 1.7680	20.6750
 1.7690	20.6400
 1.7700	20.6030
 1.7710	20.5690
 1.7720	20.5330
 1.7730	20.4950
 1.7740	20.4600
 1.7750	20.4280
 1.7760	20.3980
 1.7770	20.3710
 1.7780	20.3430
 1.7790	20.3170
 1.7800	20.2930
 1.7810	20.2680
 1.7820	20.2490
 1.7830	20.2340
 1.7840	20.2170
 1.7850	20.2010
 1.7860	20.1870
 1.7870	20.1740
 1.7880	20.1620
 1.7890	20.1550
 1.7900	20.1480
 1.7910	20.1430
 1.7920	20.1430
 1.7930	20.1420
 1.7940	20.1420
 1.7950	20.1420
 1.7960	20.1430
 1.7970	20.1450
 1.7980	20.1500
 1.7990	20.1530
 1.8000	20.1560
 1.8010	20.1600
 1.8020	20.1640
 1.8030	20.1700
 1.8040	20.1780
 1.8050	20.1850
 1.8060	20.1900
 1.8070	20.1960
 1.8080	20.2020
 1.8090	20.2080
 1.8100	20.2150
 1.8110	20.2210
 1.8120	20.2280
 1.8130	20.2350
 1.8140	20.2360
 1.8150	20.2380
 1.8160	20.2380
 1.8170	20.2370
 1.8180	20.2360
 1.8190	20.2360
 1.8200	20.2330
 1.8210	20.2280
 1.8220	20.2240
 1.8230	20.2180
 1.8240	20.2120
 1.8250	20.2090
 1.8260	20.2030
 1.8270	20.1960
 1.8280	20.1880
 1.8290	20.1780
 1.8300	20.1830
 1.8310	20.2210
 1.8320	20.2180
 1.8330	20.1930
 1.8340	20.1650
 1.8350	20.1310
 1.8360	20.0940
 1.8370	20.0540
 1.8380	20.0110
 1.8390	19.9630
 1.8400	19.9150
 1.8410	19.8580
 1.8420	19.7960
 1.8430	19.7300
 1.8440	19.6550
 1.8450	19.5760
 1.8460	19.4920
 1.8470	19.3990
 1.8480	19.2970
 1.8490	19.1900
 1.8500	19.0730
 1.8510	18.9480
 1.8520	18.8140
 1.8530	18.6760
 1.8540	18.5250
 1.8550	18.3640
 1.8560	18.1940
 1.8570	18.0090
 1.8580	17.8120
 1.8590	17.6100
 1.8600	17.4000
 1.8610	17.1790
 1.8620	16.9480
 1.8630	16.7140
 1.8640	16.4640
 1.8650	16.2000
 1.8660	15.9290
 1.8670	15.6410
 1.8680	15.3450
 1.8690	15.0410
 1.8700	14.7270
 1.8710	14.4050
 1.8720	14.0800
 1.8730	13.7490
 1.8740	13.4130
 1.8750	13.0730
 1.8760	12.7330
 1.8770	12.3940
 1.8780	12.0570
 1.8790	11.7240
 1.8800	11.3990
 1.8810	11.0790
 1.8820	10.7610
 1.8830	10.4520
 1.8840	10.1520
 1.8850	 9.8580
 1.8860	 9.5760
 1.8870	 9.3040
 1.8880	 9.0400
 1.8890	 8.7880
 1.8900	 8.5490
 1.8910	 8.3230
 1.8920	 8.1090
 1.8930	 7.9130
 1.8940	 7.7310
 1.8950	 7.5600
 1.8960	 7.4020
 1.8970	 7.2560
 1.8980	 7.1230
 1.8990	 7.0000
 1.9000	 6.8860
 1.9010	 6.7860
 1.9020	 6.6920
 1.9030	 6.6070
 1.9040	 6.5290
 1.9050	 6.4630
 1.9060	 6.4030
 1.9070	 6.3480
 1.9080	 6.3030
 1.9090	 6.2560
 1.9100	 6.2130
 1.9110	 6.1760
 1.9120	 6.1450
 1.9130	 6.1150
 1.9140	 6.0930
 1.9150	 6.0720
 1.9160	 6.0500
 1.9170	 6.0280
 1.9180	 6.0090
 1.9190	 5.9950
 1.9200	 5.9820
 1.9210	 5.9740
 1.9220	 5.9670
 1.9230	 5.9630
 1.9240	 5.9600
 1.9250	 5.9590
 1.9260	 5.9590
 1.9270	 5.9590
 1.9280	 5.9570
 1.9290	 5.9550
 1.9300	 5.9560
 1.9310	 5.9600
 1.9320	 5.9680
 1.9330	 5.9760
 1.9340	 5.9860
 1.9350	 5.9960
 1.9360	 6.0030
 1.9370	 6.0120
 1.9380	 6.0220
 1.9390	 6.0340
 1.9400	 6.0490
 1.9410	 6.0640
 1.9420	 6.0800
 1.9430	 6.0970
 1.9440	 6.1140
 1.9450	 6.1320
 1.9460	 6.1490
 1.9470	 6.1630
 1.9480	 6.1810
 1.9490	 6.1970
 1.9500	 6.2160
 1.9510	 6.2390
 1.9520	 6.2610
 1.9530	 6.2830
 1.9540	 6.3070
 1.9550	 6.3290
 1.9560	 6.3500
 1.9570	 6.3740
 1.9580	 6.3990
 1.9590	 6.4240
 1.9600	 6.4550
 1.9610	 6.4810
 1.9620	 6.5050
 1.9630	 6.5280
 1.9640	 6.5530
 1.9650	 6.5760
 1.9660	 6.6010
 1.9670	 6.6280
 1.9680	 6.6560
 1.9690	 6.6810
 1.9700	 6.7120
 1.9710	 6.7450
 1.9720	 6.7780
 1.9730	 6.8130
 1.9740	 6.8470
 1.9750	 6.8790
 1.9760	 6.9130
 1.9770	 6.9430
 1.9780	 6.9740
 1.9790	 7.0050
 1.9800	 7.0350
 1.9810	 7.0680
 1.9820	 7.1020
 1.9830	 7.1360
 1.9840	 7.1720
 1.9850	 7.2060
 1.9860	 7.2380
 1.9870	 7.2740
 1.9880	 7.3110
 1.9890	 7.3460
 1.9900	 7.3840
 1.9910	 7.4210
 1.9920	 7.4560
 1.9930	 7.4880
 1.9940	 7.5240
 1.9950	 7.5590
 1.9960	 7.5960
 1.9970	 7.6350
 1.9980	 7.6740
 1.9990	 7.7140
 2.0000	 7.7530
 2.0010	 7.7910
 2.0020	 7.8310
 2.0030	 7.8690
 2.0040	 7.9090
 2.0050	 7.9480
 2.0060	 7.9870
 2.0070	 8.0250
 2.0080	 8.0600
 2.0090	 8.0970
 2.0100	 8.1370
 2.0110	 8.1760
 2.0120	 8.2140
 2.0130	 8.2530
 2.0140	 8.2910
 2.0150	 8.3280
 2.0160	 8.3630
 2.0170	 8.3960
 2.0180	 8.4320
 2.0190	 8.4650
 2.0200	 8.5000
 2.0210	 8.5410
 2.0220	 8.5770
 2.0230	 8.6100
 2.0240	 8.6440
 2.0250	 8.6770
 2.0260	 8.7100
 2.0270	 8.7440
 2.0280	 8.7790
 2.0290	 8.8120
 2.0300	 8.8450
 2.0310	 8.8770
 2.0320	 8.9070
 2.0330	 8.9380
 2.0340	 8.9700
 2.0350	 8.9990
 2.0360	 9.0270
 2.0370	 9.0550
 2.0380	 9.0800
 2.0390	 9.1070
 2.0400	 9.1370
 2.0410	 9.1640
 2.0420	 9.1890
 2.0430	 9.2160
 2.0440	 9.2410
 2.0450	 9.2640
 2.0460	 9.2870
 2.0470	 9.3090
 2.0480	 9.3330
 2.0490	 9.3570
 2.0500	 9.3810
 2.0510	 9.4080
 2.0520	 9.4330
 2.0530	 9.4560
 2.0540	 9.4790
 2.0550	 9.5010
 2.0560	 9.5230
 2.0570	 9.5450
 2.0580	 9.5680
 2.0590	 9.5910
 2.0600	 9.6160
 2.0610	 9.6390
 2.0620	 9.6600
 2.0630	 9.6820
 2.0640	 9.7050
 2.0650	 9.7280
 2.0660	 9.7540
 2.0670	 9.7780
 2.0680	 9.8020
 2.0690	 9.8240
 2.0700	 9.8450
 2.0710	 9.8660
 2.0720	 9.8860
 2.0730	 9.9050
 2.0740	 9.9280
 2.0750	 9.9530
 2.0760	 9.9770
 2.0770	10.0040
 2.0780	10.0280
 2.0790	10.0490
 2.0800	10.0710
 2.0810	10.0910
 2.0820	10.1130
 2.0830	10.1330
 2.0840	10.1550
 2.0850	10.1790
 2.0860	10.2020
 2.0870	10.2270
 2.0880	10.2520
 2.0890	10.2760
 2.0900	10.2980
 2.0910	10.3220
 2.0920	10.3460
 2.0930	10.3720
 2.0940	10.3990
 2.0950	10.4240
 2.0960	10.4470
 2.0970	10.4710
 2.0980	10.4940
 2.0990	10.5170
 2.1000	10.5430
 2.1010	10.5670
 2.1020	10.5910
 2.1030	10.6150
 2.1040	10.6380
 2.1050	10.6610
 2.1060	10.6840
 2.1070	10.7060
 2.1080	10.7280
 2.1090	10.7470
 2.1100	10.7680
 2.1110	10.7890
 2.1120	10.8110
 2.1130	10.8340
 2.1140	10.8570
 2.1150	10.8800
 2.1160	10.9020
 2.1170	10.9210
 2.1180	10.9420
 2.1190	10.9630
 2.1200	10.9860
 2.1210	11.0110
 2.1220	11.0370
 2.1230	11.0630
 2.1240	11.0900
 2.1250	11.1130
 2.1260	11.1330
 2.1270	11.1550
 2.1280	11.1720
 2.1290	11.1940
 2.1300	11.2200
 2.1310	11.2440
 2.1320	11.2690
 2.1330	11.2910
 2.1340	11.3120
 2.1350	11.3330
 2.1360	11.3530
 2.1370	11.3730
 2.1380	11.3940
 2.1390	11.4150
 2.1400	11.4370
 2.1410	11.4600
 2.1420	11.4810
 2.1430	11.5030
 2.1440	11.5240
 2.1450	11.5440
 2.1460	11.5640
 2.1470	11.5870
 2.1480	11.6060
 2.1490	11.6220
 2.1500	11.6420
 2.1510	11.6630
 2.1520	11.6830
 2.1530	11.7090
 2.1540	11.7300
 2.1550	11.7470
 2.1560	11.7660
 2.1570	11.7830
 2.1580	11.8030
 2.1590	11.8280
 2.1600	11.8510
 2.1610	11.8710
 2.1620	11.8920
 2.1630	11.9100
 2.1640	11.9240
 2.1650	11.9430
 2.1660	11.9640
 2.1670	11.9850
 2.1680	12.0080
 2.1690	12.0270
 2.1700	12.0430
 2.1710	12.0610
 2.1720	12.0770
 2.1730	12.0960
 2.1740	12.1180
 2.1750	12.1360
 2.1760	12.1510
 2.1770	12.1680
 2.1780	12.1830
 2.1790	12.1990
 2.1800	12.2190
 2.1810	12.2360
 2.1820	12.2500
 2.1830	12.2650
 2.1840	12.2810
 2.1850	12.2970
 2.1860	12.3130
 2.1870	12.3310
 2.1880	12.3480
 2.1890	12.3620
 2.1900	12.3780
 2.1910	12.3940
 2.1920	12.4100
 2.1930	12.4260
 2.1940	12.4410
 2.1950	12.4570
 2.1960	12.4710
 2.1970	12.4800
 2.1980	12.4930
 2.1990	12.5060
 2.2000	12.5200
 2.2010	12.5350
 2.2020	12.5490
 2.2030	12.5610
 2.2040	12.5730
 2.2050	12.5840
 2.2060	12.5970
 2.2070	12.6090
 2.2080	12.6210
 2.2090	12.6290
 2.2100	12.6350
 2.2110	12.6400
 2.2120	12.6390
 2.2130	12.6430
 2.2140	12.6510
 2.2150	12.6520
 2.2160	12.6540
 2.2170	12.6540
 2.2180	12.6490
 2.2190	12.6460
 2.2200	12.6450
 2.2210	12.6410
 2.2220	12.6310
 2.2230	12.6260
 2.2240	12.6240
 2.2250	12.6180
 2.2260	12.6130
 2.2270	12.6040
 2.2280	12.5900
 2.2290	12.5750
 2.2300	12.5570
 2.2310	12.5390
 2.2320	12.5200
 2.2330	12.4990
 2.2340	12.4750
 2.2350	12.4500
 2.2360	12.4220
 2.2370	12.3880
 2.2380	12.3550
 2.2390	12.3210
 2.2400	12.2870
 2.2410	12.2510
 2.2420	12.2150
 2.2430	12.1780
 2.2440	12.1420
 2.2450	12.1080
 2.2460	12.0700
 2.2470	12.0310
 2.2480	11.9910
 2.2490	11.9450
 2.2500	11.9020
 2.2510	11.8620
 2.2520	11.8190
 2.2530	11.7770
 2.2540	11.7320
 2.2550	11.6840
 2.2560	11.6380
 2.2570	11.5950
 2.2580	11.5480
 2.2590	11.5000
 2.2600	11.4520
 2.2610	11.4000
 2.2620	11.3470
 2.2630	11.3000
 2.2640	11.2530
 2.2650	11.2100
 2.2660	11.1700
 2.2670	11.1310
 2.2680	11.0930
 2.2690	11.0590
 2.2700	11.0280
 2.2710	10.9960
 2.2720	10.9660
 2.2730	10.9360
 2.2740	10.9060
 2.2750	10.8790
 2.2760	10.8530
 2.2770	10.8300
 2.2780	10.8120
 2.2790	10.7900
 2.2800	10.7710
 2.2810	10.7530
 2.2820	10.7360
 2.2830	10.7170
 2.2840	10.7050
 2.2850	10.6840
 2.2860	10.6520
 2.2870	10.6290
 2.2880	10.6060
 2.2890	10.5840
 2.2900	10.5750
 2.2910	10.5540
 2.2920	10.5290
 2.2930	10.5020
 2.2940	10.4670
 2.2950	10.4360
 2.2960	10.4080
 2.2970	10.3750
 2.2980	10.3400
 2.2990	10.3080
 2.3000	10.2730
 2.3010	10.2360
 2.3020	10.2050
 2.3030	10.1720
 2.3040	10.1400
 2.3050	10.1110
 2.3060	10.0800
 2.3070	10.0490
 2.3080	10.0130
 2.3090	 9.9830
 2.3100	 9.9610
 2.3110	 9.9420
 2.3120	 9.9300
 2.3130	 9.9280
 2.3140	 9.9210
 2.3150	 9.9180
 2.3160	 9.9110
 2.3170	 9.9050
 2.3180	 9.8950
 2.3190	 9.8820
 2.3200	 9.8670
 2.3210	 9.8480
 2.3220	 9.8340
 2.3230	 9.8220
 2.3240	 9.8070
 2.3250	 9.7960
 2.3260	 9.7770
 2.3270	 9.7460
 2.3280	 9.7250
 2.3290	 9.7070
 2.3300	 9.6840
 2.3310	 9.6630
 2.3320	 9.6370
 2.3330	 9.5990
 2.3340	 9.5740
 2.3350	 9.5560
 2.3360	 9.5320
 2.3370	 9.5150
 2.3380	 9.4930
 2.3390	 9.4650
 2.3400	 9.4390
 2.3410	 9.4120
 2.3420	 9.3860
 2.3430	 9.3640
 2.3440	 9.3380
 2.3450	 9.3120
 2.3460	 9.2870
 2.3470	 9.2550
 2.3480	 9.2340
 2.3490	 9.2290
 2.3500	 9.2160
 2.3510	 9.2050
 2.3520	 9.1910
 2.3530	 9.1720
 2.3540	 9.1480
 2.3550	 9.1180
 2.3560	 9.1000
 2.3570	 9.0820
 2.3580	 9.0590
 2.3590	 9.0410
 2.3600	 9.0260
 2.3610	 9.0060
 2.3620	 8.9840
 2.3630	 8.9690
 2.3640	 8.9570
 2.3650	 8.9420
 2.3660	 8.9240
 2.3670	 8.8970
 2.3680	 8.8630
 2.3690	 8.8390
 2.3700	 8.8210
 2.3710	 8.8060
 2.3720	 8.7940
 2.3730	 8.7800
 2.3740	 8.7620
 2.3750	 8.7390
 2.3760	 8.7250
 2.3770	 8.7050
 2.3780	 8.6720
 2.3790	 8.6480
 2.3800	 8.6230
 2.3810	 8.5870
 2.3820	 8.5660
 2.3830	 8.5490
 2.3840	 8.5230
 2.3850	 8.5050
 2.3860	 8.4840
 2.3870	 8.4570
 2.3880	 8.4400
 2.3890	 8.4210
 2.3900	 8.4020
 2.3910	 8.3900
 2.3920	 8.3770
 2.3930	 8.3540
 2.3940	 8.3290
 2.3950	 8.3040
 2.3960	 8.2730
 2.3970	 8.2530
 2.3980	 8.2410
 2.3990	 8.2260
 2.4000	 8.2070
 2.4010	 8.1810
 2.4020	 8.1540
 2.4030	 8.1410
 2.4040	 8.1320
 2.4050	 8.1150
 2.4060	 8.1010
 2.4070	 8.0780
 2.4080	 8.0470
 2.4090	 8.0270
 2.4100	 8.0040
 2.4110	 7.9710
 2.4120	 7.9520
 2.4130	 7.9300
 2.4140	 7.9030
 2.4150	 7.8850
 2.4160	 7.8540
 2.4170	 7.8250
 2.4180	 7.8040
 2.4190	 7.7780
 2.4200	 7.7550
 2.4210	 7.7400
 2.4220	 7.7230
 2.4230	 7.7010
 2.4240	 7.6690
 2.4250	 7.6370
 2.4260	 7.6060
 2.4270	 7.5870
 2.4280	 7.5800
 2.4290	 7.5520
 2.4300	 7.5160
 2.4310	 7.4800
 2.4320	 7.4510
 2.4330	 7.4220
 2.4340	 7.3910
 2.4350	 7.3680
 2.4360	 7.3380
 2.4370	 7.3340
 2.4380	 7.3270
 2.4390	 7.2970
 2.4400	 7.2830
 2.4410	 7.2570
 2.4420	 7.2220
 2.4430	 7.1890
 2.4440	 7.1450
 2.4450	 7.0980
 2.4460	 7.0610
 2.4470	 7.0680
 2.4480	 7.0820
 2.4490	 7.0760
 2.4500	 7.0670
 2.4510	 7.0300
 2.4520	 6.9870
 2.4530	 6.9490
 2.4540	 6.9130
 2.4550	 6.9030
 2.4560	 6.9000
 2.4570	 6.8910
 2.4580	 6.8890
 2.4590	 6.8710
 2.4600	 6.8250
 2.4610	 6.8150
 2.4620	 6.8230
 2.4630	 6.8030
 2.4640	 6.7910
 2.4650	 6.7480
 2.4660	 6.6880
 2.4670	 6.6650
 2.4680	 6.6450
 2.4690	 6.6040
 2.4700	 6.5930
 2.4710	 6.5990
 2.4720	 6.5930
 2.4730	 6.6210
 2.4740	 6.6180
 2.4750	 6.5700
 2.4760	 6.5500
 2.4770	 6.5410
 2.4780	 6.5310
 2.4790	 6.5300
 2.4800	 6.5320
 2.4810	 6.5450
 2.4820	 6.5360
 2.4830	 6.5140
 2.4840	 6.4830
 2.4850	 6.4470
 2.4860	 6.4590
 2.4870	 6.4770
 2.4880	 6.4400
 2.4890	 6.4330
 2.4900	 6.4060
 2.4910	 6.3700
 2.4920	 6.3730
 2.4930	 6.3760
 2.4940	 6.4150
 2.4950	 6.4110
 2.4960	 6.3960
 2.4970	 6.3810
 2.4980	 6.3710
 2.4990	 6.3870
 2.5000	 6.3560
