Name: Pinus lambertiana 1
Type: vegetation
Class: Tree
Genus: Pinus
Species: lambertiana
Sample No.: VH244
Owner: UCSB
Wavelength Range: VSWIR
Origin: 37.043; -119.3043; WGS84
Collection Date: 11/2/2013
Description: Samples were collected as part of the HyspIRI Airborne Campaign. 48 individual plants were sampled in three times in 2013 - spring  summer  and fall. The name of the sample includes a 1  2  or 3 which references a different individual of the species. Samples were taken to JPL and processed within 48 hours of collection. The same leaves were processed in the Nicolet and then measured using the ASD.
Measurement: Bidirectional reflectance
First Column: X
Second Column: Y
X Units: Wavelength (micrometers)
Y Units: Reflectance (percentage)
First X Value: 0.35
Last X Value: 2.5
Number of X Values: 2151
Additional Information: vegetation.tree.pinus.lambertiana.vswir.vh244.ucsb.asd.ancillary.txt

 0.3500	 5.8210
 0.3510	 5.6750
 0.3520	 5.6740
 0.3530	 5.5860
 0.3540	 5.3150
 0.3550	 5.4350
 0.3560	 5.5030
 0.3570	 5.4420
 0.3580	 5.3770
 0.3590	 5.3540
 0.3600	 5.3450
 0.3610	 5.3320
 0.3620	 5.3290
 0.3630	 5.3690
 0.3640	 5.3700
 0.3650	 5.2840
 0.3660	 5.2780
 0.3670	 5.2910
 0.3680	 5.2930
 0.3690	 5.2750
 0.3700	 5.2560
 0.3710	 5.2690
 0.3720	 5.3130
 0.3730	 5.3080
 0.3740	 5.3000
 0.3750	 5.2650
 0.3760	 5.1850
 0.3770	 5.1840
 0.3780	 5.2130
 0.3790	 5.2200
 0.3800	 5.1690
 0.3810	 5.1690
 0.3820	 5.1740
 0.3830	 5.1590
 0.3840	 5.2170
 0.3850	 5.2230
 0.3860	 5.1850
 0.3870	 5.1590
 0.3880	 5.1520
 0.3890	 5.1250
 0.3900	 5.0950
 0.3910	 5.1360
 0.3920	 5.1300
 0.3930	 5.1150
 0.3940	 5.1280
 0.3950	 5.1120
 0.3960	 5.1210
 0.3970	 5.1380
 0.3980	 5.1150
 0.3990	 5.0810
 0.4000	 5.0580
 0.4010	 5.0590
 0.4020	 5.0870
 0.4030	 5.0930
 0.4040	 5.0870
 0.4050	 5.0930
 0.4060	 5.1180
 0.4070	 5.1430
 0.4080	 5.1610
 0.4090	 5.1700
 0.4100	 5.1840
 0.4110	 5.2030
 0.4120	 5.2300
 0.4130	 5.2700
 0.4140	 5.2940
 0.4150	 5.3230
 0.4160	 5.3810
 0.4170	 5.4170
 0.4180	 5.4480
 0.4190	 5.4840
 0.4200	 5.5230
 0.4210	 5.5630
 0.4220	 5.6110
 0.4230	 5.6650
 0.4240	 5.7060
 0.4250	 5.7440
 0.4260	 5.7800
 0.4270	 5.8130
 0.4280	 5.8650
 0.4290	 5.9040
 0.4300	 5.9250
 0.4310	 5.9670
 0.4320	 5.9980
 0.4330	 6.0150
 0.4340	 6.0250
 0.4350	 6.0450
 0.4360	 6.0800
 0.4370	 6.1190
 0.4380	 6.1440
 0.4390	 6.1650
 0.4400	 6.1870
 0.4410	 6.2100
 0.4420	 6.2320
 0.4430	 6.2440
 0.4440	 6.2550
 0.4450	 6.2740
 0.4460	 6.2890
 0.4470	 6.3120
 0.4480	 6.3410
 0.4490	 6.3510
 0.4500	 6.3570
 0.4510	 6.3700
 0.4520	 6.3890
 0.4530	 6.3980
 0.4540	 6.4050
 0.4550	 6.4090
 0.4560	 6.4110
 0.4570	 6.4390
 0.4580	 6.4570
 0.4590	 6.4500
 0.4600	 6.4570
 0.4610	 6.4650
 0.4620	 6.4660
 0.4630	 6.4590
 0.4640	 6.4730
 0.4650	 6.4790
 0.4660	 6.4700
 0.4670	 6.4680
 0.4680	 6.4780
 0.4690	 6.4850
 0.4700	 6.4780
 0.4710	 6.4790
 0.4720	 6.4830
 0.4730	 6.4850
 0.4740	 6.4810
 0.4750	 6.4840
 0.4760	 6.4850
 0.4770	 6.4820
 0.4780	 6.4850
 0.4790	 6.4800
 0.4800	 6.4720
 0.4810	 6.4700
 0.4820	 6.4780
 0.4830	 6.4860
 0.4840	 6.4910
 0.4850	 6.4970
 0.4860	 6.4960
 0.4870	 6.4990
 0.4880	 6.5120
 0.4890	 6.5230
 0.4900	 6.5370
 0.4910	 6.5530
 0.4920	 6.5640
 0.4930	 6.5880
 0.4940	 6.6200
 0.4950	 6.6510
 0.4960	 6.6830
 0.4970	 6.7150
 0.4980	 6.7540
 0.4990	 6.8050
 0.5000	 6.8610
 0.5010	 6.9180
 0.5020	 6.9800
 0.5030	 7.0580
 0.5040	 7.1410
 0.5050	 7.2280
 0.5060	 7.3240
 0.5070	 7.4360
 0.5080	 7.5550
 0.5090	 7.6860
 0.5100	 7.8390
 0.5110	 8.0000
 0.5120	 8.1660
 0.5130	 8.3420
 0.5140	 8.5510
 0.5150	 8.7650
 0.5160	 8.9840
 0.5170	 9.2150
 0.5180	 9.4540
 0.5190	 9.7030
 0.5200	 9.9600
 0.5210	10.2220
 0.5220	10.4790
 0.5230	10.7370
 0.5240	10.9980
 0.5250	11.2440
 0.5260	11.4850
 0.5270	11.7170
 0.5280	11.9350
 0.5290	12.1460
 0.5300	12.3430
 0.5310	12.5240
 0.5320	12.6940
 0.5330	12.8490
 0.5340	12.9900
 0.5350	13.1220
 0.5360	13.2420
 0.5370	13.3500
 0.5380	13.4460
 0.5390	13.5310
 0.5400	13.6110
 0.5410	13.6830
 0.5420	13.7480
 0.5430	13.8120
 0.5440	13.8780
 0.5450	13.9440
 0.5460	14.0070
 0.5470	14.0740
 0.5480	14.1380
 0.5490	14.1930
 0.5500	14.2350
 0.5510	14.2670
 0.5520	14.2910
 0.5530	14.3080
 0.5540	14.3100
 0.5550	14.2930
 0.5560	14.2580
 0.5570	14.2100
 0.5580	14.1460
 0.5590	14.0710
 0.5600	13.9880
 0.5610	13.8920
 0.5620	13.7900
 0.5630	13.6810
 0.5640	13.5660
 0.5650	13.4350
 0.5660	13.2980
 0.5670	13.1610
 0.5680	13.0240
 0.5690	12.8810
 0.5700	12.7300
 0.5710	12.5760
 0.5720	12.4330
 0.5730	12.2970
 0.5740	12.1660
 0.5750	12.0350
 0.5760	11.9040
 0.5770	11.7770
 0.5780	11.6610
 0.5790	11.5520
 0.5800	11.4520
 0.5810	11.3610
 0.5820	11.2820
 0.5830	11.2020
 0.5840	11.1220
 0.5850	11.0450
 0.5860	10.9750
 0.5870	10.9180
 0.5880	10.8650
 0.5890	10.8060
 0.5900	10.7420
 0.5910	10.6860
 0.5920	10.6420
 0.5930	10.6050
 0.5940	10.5680
 0.5950	10.5410
 0.5960	10.5240
 0.5970	10.4950
 0.5980	10.4630
 0.5990	10.4270
 0.6000	10.3830
 0.6010	10.3410
 0.6020	10.2950
 0.6030	10.2420
 0.6040	10.1800
 0.6050	10.1210
 0.6060	10.0570
 0.6070	 9.9840
 0.6080	 9.9090
 0.6090	 9.8240
 0.6100	 9.7300
 0.6110	 9.6340
 0.6120	 9.5510
 0.6130	 9.4740
 0.6140	 9.3980
 0.6150	 9.3180
 0.6160	 9.2430
 0.6170	 9.1740
 0.6180	 9.1090
 0.6190	 9.0450
 0.6200	 8.9890
 0.6210	 8.9430
 0.6220	 8.9030
 0.6230	 8.8690
 0.6240	 8.8390
 0.6250	 8.8150
 0.6260	 8.8010
 0.6270	 8.7850
 0.6280	 8.7700
 0.6290	 8.7630
 0.6300	 8.7590
 0.6310	 8.7510
 0.6320	 8.7360
 0.6330	 8.7150
 0.6340	 8.6900
 0.6350	 8.6550
 0.6360	 8.6040
 0.6370	 8.5410
 0.6380	 8.4700
 0.6390	 8.3890
 0.6400	 8.2940
 0.6410	 8.1970
 0.6420	 8.0960
 0.6430	 7.9900
 0.6440	 7.8810
 0.6450	 7.7740
 0.6460	 7.6720
 0.6470	 7.5740
 0.6480	 7.4860
 0.6490	 7.4060
 0.6500	 7.3370
 0.6510	 7.2830
 0.6520	 7.2290
 0.6530	 7.1810
 0.6540	 7.1390
 0.6550	 7.0870
 0.6560	 7.0340
 0.6570	 6.9760
 0.6580	 6.9050
 0.6590	 6.8360
 0.6600	 6.7610
 0.6610	 6.6820
 0.6620	 6.6060
 0.6630	 6.5320
 0.6640	 6.4610
 0.6650	 6.3970
 0.6660	 6.3400
 0.6670	 6.2920
 0.6680	 6.2520
 0.6690	 6.2190
 0.6700	 6.1950
 0.6710	 6.1780
 0.6720	 6.1670
 0.6730	 6.1630
 0.6740	 6.1670
 0.6750	 6.1740
 0.6760	 6.1800
 0.6770	 6.1970
 0.6780	 6.2180
 0.6790	 6.2460
 0.6800	 6.2850
 0.6810	 6.3290
 0.6820	 6.3860
 0.6830	 6.4610
 0.6840	 6.5570
 0.6850	 6.6790
 0.6860	 6.8320
 0.6870	 7.0250
 0.6880	 7.2650
 0.6890	 7.5690
 0.6900	 7.9390
 0.6910	 8.3700
 0.6920	 8.8780
 0.6930	 9.4580
 0.6940	10.1060
 0.6950	10.8190
 0.6960	11.5900
 0.6970	12.4120
 0.6980	13.2760
 0.6990	14.1770
 0.7000	15.1100
 0.7010	16.0670
 0.7020	17.0430
 0.7030	18.0250
 0.7040	19.0120
 0.7050	20.0020
 0.7060	20.9880
 0.7070	21.9660
 0.7080	22.9400
 0.7090	23.9150
 0.7100	24.8730
 0.7110	25.8300
 0.7120	26.7890
 0.7130	27.7280
 0.7140	28.6520
 0.7150	29.5730
 0.7160	30.4910
 0.7170	31.3830
 0.7180	32.2600
 0.7190	33.1260
 0.7200	33.9780
 0.7210	34.8100
 0.7220	35.6290
 0.7230	36.4270
 0.7240	37.1880
 0.7250	37.9330
 0.7260	38.6520
 0.7270	39.3360
 0.7280	39.9900
 0.7290	40.6110
 0.7300	41.2030
 0.7310	41.7680
 0.7320	42.3180
 0.7330	42.8300
 0.7340	43.3030
 0.7350	43.7610
 0.7360	44.1830
 0.7370	44.5810
 0.7380	44.9640
 0.7390	45.3200
 0.7400	45.6550
 0.7410	45.9690
 0.7420	46.2600
 0.7430	46.5270
 0.7440	46.7770
 0.7450	47.0110
 0.7460	47.2260
 0.7470	47.4200
 0.7480	47.5940
 0.7490	47.7500
 0.7500	47.9010
 0.7510	48.0410
 0.7520	48.1690
 0.7530	48.2830
 0.7540	48.3810
 0.7550	48.4740
 0.7560	48.5600
 0.7570	48.6320
 0.7580	48.6980
 0.7590	48.7610
 0.7600	48.8200
 0.7610	48.8700
 0.7620	48.9190
 0.7630	48.9630
 0.7640	48.9970
 0.7650	49.0230
 0.7660	49.0450
 0.7670	49.0690
 0.7680	49.1020
 0.7690	49.1340
 0.7700	49.1540
 0.7710	49.1640
 0.7720	49.1870
 0.7730	49.1910
 0.7740	49.1990
 0.7750	49.2270
 0.7760	49.2360
 0.7770	49.2510
 0.7780	49.2670
 0.7790	49.2710
 0.7800	49.2860
 0.7810	49.2950
 0.7820	49.2960
 0.7830	49.3070
 0.7840	49.3280
 0.7850	49.3520
 0.7860	49.3710
 0.7870	49.3760
 0.7880	49.3880
 0.7890	49.3980
 0.7900	49.3940
 0.7910	49.4190
 0.7920	49.4480
 0.7930	49.4600
 0.7940	49.4490
 0.7950	49.4640
 0.7960	49.4820
 0.7970	49.4920
 0.7980	49.5090
 0.7990	49.5170
 0.8000	49.5240
 0.8010	49.5370
 0.8020	49.5520
 0.8030	49.5700
 0.8040	49.5860
 0.8050	49.5970
 0.8060	49.6020
 0.8070	49.6200
 0.8080	49.6440
 0.8090	49.6550
 0.8100	49.6690
 0.8110	49.6770
 0.8120	49.6780
 0.8130	49.6930
 0.8140	49.7030
 0.8150	49.7080
 0.8160	49.7150
 0.8170	49.7460
 0.8180	49.7700
 0.8190	49.7840
 0.8200	49.7940
 0.8210	49.7910
 0.8220	49.8030
 0.8230	49.8280
 0.8240	49.8370
 0.8250	49.8410
 0.8260	49.8530
 0.8270	49.8700
 0.8280	49.8710
 0.8290	49.8800
 0.8300	49.8890
 0.8310	49.8880
 0.8320	49.8810
 0.8330	49.8820
 0.8340	49.8920
 0.8350	49.9020
 0.8360	49.9140
 0.8370	49.9260
 0.8380	49.9380
 0.8390	49.9490
 0.8400	49.9720
 0.8410	49.9910
 0.8420	50.0000
 0.8430	50.0090
 0.8440	50.0160
 0.8450	50.0310
 0.8460	50.0540
 0.8470	50.0600
 0.8480	50.0730
 0.8490	50.0960
 0.8500	50.1200
 0.8510	50.1230
 0.8520	50.1360
 0.8530	50.1510
 0.8540	50.1470
 0.8550	50.1690
 0.8560	50.1920
 0.8570	50.2000
 0.8580	50.1940
 0.8590	50.2000
 0.8600	50.2100
 0.8610	50.2190
 0.8620	50.2320
 0.8630	50.2370
 0.8640	50.2360
 0.8650	50.2360
 0.8660	50.2440
 0.8670	50.2660
 0.8680	50.2800
 0.8690	50.2690
 0.8700	50.2790
 0.8710	50.2950
 0.8720	50.3030
 0.8730	50.2930
 0.8740	50.3130
 0.8750	50.3230
 0.8760	50.3150
 0.8770	50.3130
 0.8780	50.3090
 0.8790	50.3090
 0.8800	50.3150
 0.8810	50.3200
 0.8820	50.3110
 0.8830	50.3080
 0.8840	50.3180
 0.8850	50.3180
 0.8860	50.3110
 0.8870	50.3000
 0.8880	50.2880
 0.8890	50.3010
 0.8900	50.3160
 0.8910	50.3180
 0.8920	50.3010
 0.8930	50.2810
 0.8940	50.2650
 0.8950	50.2610
 0.8960	50.2730
 0.8970	50.2580
 0.8980	50.2370
 0.8990	50.2280
 0.9000	50.2420
 0.9010	50.2360
 0.9020	50.2310
 0.9030	50.2310
 0.9040	50.2100
 0.9050	50.1970
 0.9060	50.1880
 0.9070	50.1780
 0.9080	50.1710
 0.9090	50.1580
 0.9100	50.1450
 0.9110	50.1350
 0.9120	50.1350
 0.9130	50.1250
 0.9140	50.1070
 0.9150	50.0910
 0.9160	50.0950
 0.9170	50.0810
 0.9180	50.0570
 0.9190	50.0430
 0.9200	50.0300
 0.9210	50.0250
 0.9220	50.0110
 0.9230	49.9690
 0.9240	49.9250
 0.9250	49.9010
 0.9260	49.8950
 0.9270	49.8850
 0.9280	49.8420
 0.9290	49.7960
 0.9300	49.7600
 0.9310	49.7220
 0.9320	49.6770
 0.9330	49.6400
 0.9340	49.6050
 0.9350	49.5450
 0.9360	49.4940
 0.9370	49.4450
 0.9380	49.3920
 0.9390	49.3330
 0.9400	49.2810
 0.9410	49.2300
 0.9420	49.1710
 0.9430	49.1030
 0.9440	49.0260
 0.9450	48.9430
 0.9460	48.8570
 0.9470	48.7780
 0.9480	48.6780
 0.9490	48.5760
 0.9500	48.4840
 0.9510	48.3690
 0.9520	48.2420
 0.9530	48.1160
 0.9540	47.9960
 0.9550	47.8610
 0.9560	47.7400
 0.9570	47.6260
 0.9580	47.5110
 0.9590	47.4160
 0.9600	47.3150
 0.9610	47.2130
 0.9620	47.1270
 0.9630	47.0590
 0.9640	46.9990
 0.9650	46.9510
 0.9660	46.9210
 0.9670	46.8910
 0.9680	46.8570
 0.9690	46.8230
 0.9700	46.7970
 0.9710	46.7960
 0.9720	46.7930
 0.9730	46.7830
 0.9740	46.7770
 0.9750	46.7730
 0.9760	46.7580
 0.9770	46.7400
 0.9780	46.7370
 0.9790	46.7680
 0.9800	46.7900
 0.9810	46.8060
 0.9820	46.8360
 0.9830	46.8580
 0.9840	46.8680
 0.9850	46.8900
 0.9860	46.9450
 0.9870	47.0070
 0.9880	47.0380
 0.9890	47.0550
 0.9900	47.1010
 0.9910	47.1730
 0.9920	47.2280
 0.9930	47.2660
 0.9940	47.3130
 0.9950	47.3860
 0.9960	47.4450
 0.9970	47.5010
 0.9980	47.5700
 0.9990	47.5940
 1.0000	47.8140
 1.0010	48.1440
 1.0020	48.3610
 1.0030	48.4170
 1.0040	48.4690
 1.0050	48.5260
 1.0060	48.5890
 1.0070	48.6470
 1.0080	48.7070
 1.0090	48.7700
 1.0100	48.8260
 1.0110	48.8740
 1.0120	48.9310
 1.0130	48.9860
 1.0140	49.0440
 1.0150	49.1080
 1.0160	49.1680
 1.0170	49.2260
 1.0180	49.2820
 1.0190	49.3330
 1.0200	49.3850
 1.0210	49.4360
 1.0220	49.4880
 1.0230	49.5410
 1.0240	49.5990
 1.0250	49.6500
 1.0260	49.6960
 1.0270	49.7460
 1.0280	49.7970
 1.0290	49.8460
 1.0300	49.8990
 1.0310	49.9470
 1.0320	49.9900
 1.0330	50.0330
 1.0340	50.0750
 1.0350	50.1170
 1.0360	50.1600
 1.0370	50.2060
 1.0380	50.2510
 1.0390	50.2980
 1.0400	50.3400
 1.0410	50.3810
 1.0420	50.4190
 1.0430	50.4540
 1.0440	50.4890
 1.0450	50.5240
 1.0460	50.5560
 1.0470	50.5870
 1.0480	50.6170
 1.0490	50.6450
 1.0500	50.6720
 1.0510	50.6950
 1.0520	50.7220
 1.0530	50.7460
 1.0540	50.7660
 1.0550	50.7880
 1.0560	50.8110
 1.0570	50.8300
 1.0580	50.8460
 1.0590	50.8630
 1.0600	50.8790
 1.0610	50.8920
 1.0620	50.9040
 1.0630	50.9140
 1.0640	50.9180
 1.0650	50.9230
 1.0660	50.9250
 1.0670	50.9290
 1.0680	50.9330
 1.0690	50.9370
 1.0700	50.9380
 1.0710	50.9400
 1.0720	50.9410
 1.0730	50.9390
 1.0740	50.9360
 1.0750	50.9330
 1.0760	50.9290
 1.0770	50.9230
 1.0780	50.9170
 1.0790	50.9110
 1.0800	50.9010
 1.0810	50.8880
 1.0820	50.8760
 1.0830	50.8640
 1.0840	50.8480
 1.0850	50.8310
 1.0860	50.8110
 1.0870	50.7930
 1.0880	50.7720
 1.0890	50.7510
 1.0900	50.7320
 1.0910	50.7080
 1.0920	50.6810
 1.0930	50.6530
 1.0940	50.6220
 1.0950	50.5940
 1.0960	50.5670
 1.0970	50.5400
 1.0980	50.5160
 1.0990	50.4890
 1.1000	50.4610
 1.1010	50.4310
 1.1020	50.3990
 1.1030	50.3660
 1.1040	50.3290
 1.1050	50.2930
 1.1060	50.2580
 1.1070	50.2230
 1.1080	50.1870
 1.1090	50.1530
 1.1100	50.1160
 1.1110	50.0790
 1.1120	50.0380
 1.1130	49.9960
 1.1140	49.9510
 1.1150	49.9050
 1.1160	49.8550
 1.1170	49.8030
 1.1180	49.7450
 1.1190	49.6840
 1.1200	49.6170
 1.1210	49.5470
 1.1220	49.4690
 1.1230	49.3810
 1.1240	49.2850
 1.1250	49.1770
 1.1260	49.0590
 1.1270	48.9290
 1.1280	48.7900
 1.1290	48.6380
 1.1300	48.4760
 1.1310	48.3000
 1.1320	48.1130
 1.1330	47.9110
 1.1340	47.6950
 1.1350	47.4670
 1.1360	47.2250
 1.1370	46.9710
 1.1380	46.7070
 1.1390	46.4350
 1.1400	46.1530
 1.1410	45.8680
 1.1420	45.5820
 1.1430	45.2930
 1.1440	45.0080
 1.1450	44.7220
 1.1460	44.4460
 1.1470	44.1680
 1.1480	43.9070
 1.1490	43.6510
 1.1500	43.4140
 1.1510	43.1870
 1.1520	42.9790
 1.1530	42.7870
 1.1540	42.6090
 1.1550	42.4450
 1.1560	42.2960
 1.1570	42.1610
 1.1580	42.0420
 1.1590	41.9340
 1.1600	41.8380
 1.1610	41.7570
 1.1620	41.6850
 1.1630	41.6220
 1.1640	41.5650
 1.1650	41.5120
 1.1660	41.4630
 1.1670	41.4210
 1.1680	41.3870
 1.1690	41.3540
 1.1700	41.3290
 1.1710	41.3010
 1.1720	41.2750
 1.1730	41.2480
 1.1740	41.2220
 1.1750	41.1950
 1.1760	41.1680
 1.1770	41.1420
 1.1780	41.1140
 1.1790	41.0850
 1.1800	41.0540
 1.1810	41.0230
 1.1820	40.9900
 1.1830	40.9580
 1.1840	40.9270
 1.1850	40.8940
 1.1860	40.8630
 1.1870	40.8320
 1.1880	40.8040
 1.1890	40.7780
 1.1900	40.7530
 1.1910	40.7290
 1.1920	40.7100
 1.1930	40.6910
 1.1940	40.6770
 1.1950	40.6680
 1.1960	40.6620
 1.1970	40.6580
 1.1980	40.6590
 1.1990	40.6640
 1.2000	40.6720
 1.2010	40.6810
 1.2020	40.6930
 1.2030	40.7100
 1.2040	40.7290
 1.2050	40.7500
 1.2060	40.7760
 1.2070	40.8030
 1.2080	40.8310
 1.2090	40.8620
 1.2100	40.8960
 1.2110	40.9340
 1.2120	40.9750
 1.2130	41.0180
 1.2140	41.0640
 1.2150	41.1140
 1.2160	41.1660
 1.2170	41.2190
 1.2180	41.2760
 1.2190	41.3350
 1.2200	41.3930
 1.2210	41.4530
 1.2220	41.5150
 1.2230	41.5750
 1.2240	41.6360
 1.2250	41.6930
 1.2260	41.7490
 1.2270	41.8070
 1.2280	41.8620
 1.2290	41.9180
 1.2300	41.9730
 1.2310	42.0240
 1.2320	42.0760
 1.2330	42.1260
 1.2340	42.1750
 1.2350	42.2230
 1.2360	42.2700
 1.2370	42.3140
 1.2380	42.3610
 1.2390	42.4040
 1.2400	42.4480
 1.2410	42.4920
 1.2420	42.5320
 1.2430	42.5710
 1.2440	42.6090
 1.2450	42.6460
 1.2460	42.6800
 1.2470	42.7150
 1.2480	42.7480
 1.2490	42.7810
 1.2500	42.8120
 1.2510	42.8410
 1.2520	42.8700
 1.2530	42.8950
 1.2540	42.9200
 1.2550	42.9440
 1.2560	42.9650
 1.2570	42.9870
 1.2580	43.0050
 1.2590	43.0210
 1.2600	43.0370
 1.2610	43.0490
 1.2620	43.0580
 1.2630	43.0660
 1.2640	43.0740
 1.2650	43.0780
 1.2660	43.0830
 1.2670	43.0870
 1.2680	43.0880
 1.2690	43.0880
 1.2700	43.0890
 1.2710	43.0860
 1.2720	43.0810
 1.2730	43.0720
 1.2740	43.0600
 1.2750	43.0480
 1.2760	43.0320
 1.2770	43.0140
 1.2780	42.9940
 1.2790	42.9710
 1.2800	42.9460
 1.2810	42.9200
 1.2820	42.8900
 1.2830	42.8560
 1.2840	42.8210
 1.2850	42.7840
 1.2860	42.7420
 1.2870	42.6960
 1.2880	42.6470
 1.2890	42.5930
 1.2900	42.5370
 1.2910	42.4800
 1.2920	42.4190
 1.2930	42.3540
 1.2940	42.2820
 1.2950	42.2050
 1.2960	42.1250
 1.2970	42.0410
 1.2980	41.9530
 1.2990	41.8600
 1.3000	41.7590
 1.3010	41.6530
 1.3020	41.5430
 1.3030	41.4280
 1.3040	41.3060
 1.3050	41.1830
 1.3060	41.0560
 1.3070	40.9220
 1.3080	40.7890
 1.3090	40.6520
 1.3100	40.5070
 1.3110	40.3590
 1.3120	40.2040
 1.3130	40.0430
 1.3140	39.8790
 1.3150	39.7110
 1.3160	39.5390
 1.3170	39.3660
 1.3180	39.1870
 1.3190	39.0030
 1.3200	38.8130
 1.3210	38.6160
 1.3220	38.4170
 1.3230	38.2150
 1.3240	38.0100
 1.3250	37.8090
 1.3260	37.6020
 1.3270	37.3910
 1.3280	37.1790
 1.3290	36.9590
 1.3300	36.7380
 1.3310	36.5190
 1.3320	36.2950
 1.3330	36.0730
 1.3340	35.8520
 1.3350	35.6290
 1.3360	35.4080
 1.3370	35.1890
 1.3380	34.9720
 1.3390	34.7560
 1.3400	34.5400
 1.3410	34.3300
 1.3420	34.1220
 1.3430	33.9160
 1.3440	33.7160
 1.3450	33.5180
 1.3460	33.3200
 1.3470	33.1280
 1.3480	32.9400
 1.3490	32.7550
 1.3500	32.5730
 1.3510	32.3940
 1.3520	32.2170
 1.3530	32.0430
 1.3540	31.8700
 1.3550	31.6980
 1.3560	31.5240
 1.3570	31.3500
 1.3580	31.1770
 1.3590	31.0000
 1.3600	30.8200
 1.3610	30.6380
 1.3620	30.4470
 1.3630	30.2510
 1.3640	30.0470
 1.3650	29.8360
 1.3660	29.6180
 1.3670	29.3910
 1.3680	29.1530
 1.3690	28.9040
 1.3700	28.6380
 1.3710	28.3600
 1.3720	28.0690
 1.3730	27.7610
 1.3740	27.4410
 1.3750	27.1040
 1.3760	26.7480
 1.3770	26.3740
 1.3780	25.9760
 1.3790	25.5630
 1.3800	25.1310
 1.3810	24.6760
 1.3820	24.2100
 1.3830	23.7280
 1.3840	23.2360
 1.3850	22.7300
 1.3860	22.2190
 1.3870	21.6950
 1.3880	21.1760
 1.3890	20.6510
 1.3900	20.1250
 1.3910	19.6090
 1.3920	19.0980
 1.3930	18.5900
 1.3940	18.0950
 1.3950	17.6060
 1.3960	17.1290
 1.3970	16.6690
 1.3980	16.2240
 1.3990	15.8010
 1.4000	15.3950
 1.4010	15.0040
 1.4020	14.6360
 1.4030	14.2840
 1.4040	13.9520
 1.4050	13.6410
 1.4060	13.3460
 1.4070	13.0720
 1.4080	12.8160
 1.4090	12.5760
 1.4100	12.3530
 1.4110	12.1440
 1.4120	11.9510
 1.4130	11.7740
 1.4140	11.6090
 1.4150	11.4590
 1.4160	11.3200
 1.4170	11.1890
 1.4180	11.0700
 1.4190	10.9610
 1.4200	10.8620
 1.4210	10.7710
 1.4220	10.6870
 1.4230	10.6100
 1.4240	10.5400
 1.4250	10.4760
 1.4260	10.4180
 1.4270	10.3650
 1.4280	10.3170
 1.4290	10.2730
 1.4300	10.2370
 1.4310	10.2030
 1.4320	10.1740
 1.4330	10.1480
 1.4340	10.1260
 1.4350	10.1070
 1.4360	10.0910
 1.4370	10.0790
 1.4380	10.0700
 1.4390	10.0630
 1.4400	10.0580
 1.4410	10.0540
 1.4420	10.0520
 1.4430	10.0510
 1.4440	10.0530
 1.4450	10.0570
 1.4460	10.0620
 1.4470	10.0680
 1.4480	10.0760
 1.4490	10.0840
 1.4500	10.0940
 1.4510	10.1030
 1.4520	10.1140
 1.4530	10.1270
 1.4540	10.1390
 1.4550	10.1540
 1.4560	10.1710
 1.4570	10.1880
 1.4580	10.2070
 1.4590	10.2290
 1.4600	10.2520
 1.4610	10.2780
 1.4620	10.3070
 1.4630	10.3380
 1.4640	10.3710
 1.4650	10.4060
 1.4660	10.4460
 1.4670	10.4870
 1.4680	10.5320
 1.4690	10.5800
 1.4700	10.6310
 1.4710	10.6850
 1.4720	10.7420
 1.4730	10.8010
 1.4740	10.8630
 1.4750	10.9260
 1.4760	10.9920
 1.4770	11.0600
 1.4780	11.1300
 1.4790	11.2020
 1.4800	11.2750
 1.4810	11.3500
 1.4820	11.4260
 1.4830	11.5020
 1.4840	11.5800
 1.4850	11.6600
 1.4860	11.7390
 1.4870	11.8200
 1.4880	11.9020
 1.4890	11.9840
 1.4900	12.0670
 1.4910	12.1520
 1.4920	12.2370
 1.4930	12.3250
 1.4940	12.4110
 1.4950	12.4980
 1.4960	12.5850
 1.4970	12.6720
 1.4980	12.7590
 1.4990	12.8470
 1.5000	12.9350
 1.5010	13.0250
 1.5020	13.1140
 1.5030	13.2040
 1.5040	13.2940
 1.5050	13.3830
 1.5060	13.4730
 1.5070	13.5640
 1.5080	13.6540
 1.5090	13.7440
 1.5100	13.8340
 1.5110	13.9240
 1.5120	14.0130
 1.5130	14.1020
 1.5140	14.1910
 1.5150	14.2800
 1.5160	14.3690
 1.5170	14.4590
 1.5180	14.5470
 1.5190	14.6350
 1.5200	14.7240
 1.5210	14.8120
 1.5220	14.8990
 1.5230	14.9870
 1.5240	15.0730
 1.5250	15.1580
 1.5260	15.2430
 1.5270	15.3280
 1.5280	15.4120
 1.5290	15.4950
 1.5300	15.5790
 1.5310	15.6620
 1.5320	15.7430
 1.5330	15.8250
 1.5340	15.9060
 1.5350	15.9880
 1.5360	16.0690
 1.5370	16.1480
 1.5380	16.2280
 1.5390	16.3070
 1.5400	16.3850
 1.5410	16.4660
 1.5420	16.5450
 1.5430	16.6230
 1.5440	16.7020
 1.5450	16.7790
 1.5460	16.8550
 1.5470	16.9320
 1.5480	17.0080
 1.5490	17.0840
 1.5500	17.1590
 1.5510	17.2330
 1.5520	17.3070
 1.5530	17.3800
 1.5540	17.4530
 1.5550	17.5260
 1.5560	17.5990
 1.5570	17.6720
 1.5580	17.7440
 1.5590	17.8150
 1.5600	17.8870
 1.5610	17.9570
 1.5620	18.0260
 1.5630	18.0950
 1.5640	18.1630
 1.5650	18.2310
 1.5660	18.2990
 1.5670	18.3680
 1.5680	18.4350
 1.5690	18.5010
 1.5700	18.5650
 1.5710	18.6290
 1.5720	18.6940
 1.5730	18.7600
 1.5740	18.8250
 1.5750	18.8890
 1.5760	18.9530
 1.5770	19.0150
 1.5780	19.0790
 1.5790	19.1430
 1.5800	19.2060
 1.5810	19.2690
 1.5820	19.3320
 1.5830	19.3960
 1.5840	19.4590
 1.5850	19.5200
 1.5860	19.5830
 1.5870	19.6450
 1.5880	19.7070
 1.5890	19.7700
 1.5900	19.8340
 1.5910	19.8980
 1.5920	19.9610
 1.5930	20.0240
 1.5940	20.0860
 1.5950	20.1480
 1.5960	20.2100
 1.5970	20.2730
 1.5980	20.3360
 1.5990	20.3980
 1.6000	20.4590
 1.6010	20.5190
 1.6020	20.5790
 1.6030	20.6370
 1.6040	20.6950
 1.6050	20.7540
 1.6060	20.8120
 1.6070	20.8700
 1.6080	20.9270
 1.6090	20.9830
 1.6100	21.0370
 1.6110	21.0900
 1.6120	21.1420
 1.6130	21.1940
 1.6140	21.2460
 1.6150	21.2990
 1.6160	21.3500
 1.6170	21.3970
 1.6180	21.4460
 1.6190	21.4930
 1.6200	21.5380
 1.6210	21.5850
 1.6220	21.6290
 1.6230	21.6710
 1.6240	21.7130
 1.6250	21.7550
 1.6260	21.7950
 1.6270	21.8350
 1.6280	21.8760
 1.6290	21.9140
 1.6300	21.9510
 1.6310	21.9880
 1.6320	22.0240
 1.6330	22.0620
 1.6340	22.1000
 1.6350	22.1370
 1.6360	22.1740
 1.6370	22.2090
 1.6380	22.2430
 1.6390	22.2750
 1.6400	22.3060
 1.6410	22.3330
 1.6420	22.3590
 1.6430	22.3820
 1.6440	22.4020
 1.6450	22.4190
 1.6460	22.4350
 1.6470	22.4470
 1.6480	22.4580
 1.6490	22.4670
 1.6500	22.4730
 1.6510	22.4760
 1.6520	22.4770
 1.6530	22.4750
 1.6540	22.4710
 1.6550	22.4670
 1.6560	22.4620
 1.6570	22.4560
 1.6580	22.4500
 1.6590	22.4420
 1.6600	22.4340
 1.6610	22.4250
 1.6620	22.4150
 1.6630	22.4060
 1.6640	22.3970
 1.6650	22.3900
 1.6660	22.3850
 1.6670	22.3790
 1.6680	22.3730
 1.6690	22.3650
 1.6700	22.3580
 1.6710	22.3510
 1.6720	22.3430
 1.6730	22.3360
 1.6740	22.3280
 1.6750	22.3190
 1.6760	22.3100
 1.6770	22.3010
 1.6780	22.2910
 1.6790	22.2780
 1.6800	22.2640
 1.6810	22.2480
 1.6820	22.2310
 1.6830	22.2120
 1.6840	22.1920
 1.6850	22.1680
 1.6860	22.1400
 1.6870	22.1090
 1.6880	22.0760
 1.6890	22.0390
 1.6900	22.0020
 1.6910	21.9630
 1.6920	21.9230
 1.6930	21.8820
 1.6940	21.8390
 1.6950	21.7940
 1.6960	21.7490
 1.6970	21.7020
 1.6980	21.6550
 1.6990	21.6100
 1.7000	21.5640
 1.7010	21.5170
 1.7020	21.4680
 1.7030	21.4180
 1.7040	21.3660
 1.7050	21.3130
 1.7060	21.2600
 1.7070	21.2060
 1.7080	21.1540
 1.7090	21.1020
 1.7100	21.0490
 1.7110	20.9980
 1.7120	20.9470
 1.7130	20.8960
 1.7140	20.8480
 1.7150	20.7980
 1.7160	20.7490
 1.7170	20.7000
 1.7180	20.6500
 1.7190	20.6020
 1.7200	20.5530
 1.7210	20.5040
 1.7220	20.4560
 1.7230	20.4080
 1.7240	20.3610
 1.7250	20.3150
 1.7260	20.2720
 1.7270	20.2300
 1.7280	20.1900
 1.7290	20.1490
 1.7300	20.1090
 1.7310	20.0690
 1.7320	20.0290
 1.7330	19.9910
 1.7340	19.9550
 1.7350	19.9170
 1.7360	19.8790
 1.7370	19.8390
 1.7380	19.7950
 1.7390	19.7510
 1.7400	19.7060
 1.7410	19.6600
 1.7420	19.6110
 1.7430	19.5610
 1.7440	19.5100
 1.7450	19.4570
 1.7460	19.4010
 1.7470	19.3460
 1.7480	19.2900
 1.7490	19.2370
 1.7500	19.1850
 1.7510	19.1310
 1.7520	19.0770
 1.7530	19.0230
 1.7540	18.9670
 1.7550	18.9130
 1.7560	18.8600
 1.7570	18.8090
 1.7580	18.7570
 1.7590	18.7080
 1.7600	18.6580
 1.7610	18.6100
 1.7620	18.5650
 1.7630	18.5210
 1.7640	18.4800
 1.7650	18.4430
 1.7660	18.4050
 1.7670	18.3680
 1.7680	18.3310
 1.7690	18.2950
 1.7700	18.2610
 1.7710	18.2290
 1.7720	18.1980
 1.7730	18.1670
 1.7740	18.1390
 1.7750	18.1110
 1.7760	18.0830
 1.7770	18.0580
 1.7780	18.0330
 1.7790	18.0080
 1.7800	17.9850
 1.7810	17.9630
 1.7820	17.9450
 1.7830	17.9300
 1.7840	17.9150
 1.7850	17.9020
 1.7860	17.8910
 1.7870	17.8800
 1.7880	17.8710
 1.7890	17.8650
 1.7900	17.8600
 1.7910	17.8560
 1.7920	17.8550
 1.7930	17.8530
 1.7940	17.8520
 1.7950	17.8530
 1.7960	17.8560
 1.7970	17.8590
 1.7980	17.8640
 1.7990	17.8680
 1.8000	17.8720
 1.8010	17.8760
 1.8020	17.8800
 1.8030	17.8850
 1.8040	17.8920
 1.8050	17.8970
 1.8060	17.9030
 1.8070	17.9070
 1.8080	17.9080
 1.8090	17.9110
 1.8100	17.9150
 1.8110	17.9210
 1.8120	17.9280
 1.8130	17.9340
 1.8140	17.9390
 1.8150	17.9400
 1.8160	17.9400
 1.8170	17.9380
 1.8180	17.9370
 1.8190	17.9340
 1.8200	17.9320
 1.8210	17.9290
 1.8220	17.9250
 1.8230	17.9190
 1.8240	17.9140
 1.8250	17.9080
 1.8260	17.9010
 1.8270	17.8940
 1.8280	17.8840
 1.8290	17.8730
 1.8300	17.8750
 1.8310	17.9050
 1.8320	17.9030
 1.8330	17.8840
 1.8340	17.8590
 1.8350	17.8290
 1.8360	17.7970
 1.8370	17.7620
 1.8380	17.7270
 1.8390	17.6850
 1.8400	17.6410
 1.8410	17.5920
 1.8420	17.5380
 1.8430	17.4790
 1.8440	17.4170
 1.8450	17.3470
 1.8460	17.2720
 1.8470	17.1900
 1.8480	17.0970
 1.8490	16.9970
 1.8500	16.8920
 1.8510	16.7800
 1.8520	16.6570
 1.8530	16.5280
 1.8540	16.3920
 1.8550	16.2410
 1.8560	16.0850
 1.8570	15.9190
 1.8580	15.7410
 1.8590	15.5560
 1.8600	15.3610
 1.8610	15.1540
 1.8620	14.9380
 1.8630	14.7150
 1.8640	14.4810
 1.8650	14.2370
 1.8660	13.9840
 1.8670	13.7160
 1.8680	13.4370
 1.8690	13.1470
 1.8700	12.8490
 1.8710	12.5400
 1.8720	12.2310
 1.8730	11.9130
 1.8740	11.5920
 1.8750	11.2710
 1.8760	10.9430
 1.8770	10.6210
 1.8780	10.3010
 1.8790	 9.9810
 1.8800	 9.6700
 1.8810	 9.3640
 1.8820	 9.0590
 1.8830	 8.7600
 1.8840	 8.4710
 1.8850	 8.1850
 1.8860	 7.9080
 1.8870	 7.6440
 1.8880	 7.3900
 1.8890	 7.1480
 1.8900	 6.9180
 1.8910	 6.7000
 1.8920	 6.4920
 1.8930	 6.2960
 1.8940	 6.1140
 1.8950	 5.9480
 1.8960	 5.7950
 1.8970	 5.6520
 1.8980	 5.5220
 1.8990	 5.4020
 1.9000	 5.2910
 1.9010	 5.1910
 1.9020	 5.0980
 1.9030	 5.0150
 1.9040	 4.9400
 1.9050	 4.8720
 1.9060	 4.8120
 1.9070	 4.7580
 1.9080	 4.7100
 1.9090	 4.6650
 1.9100	 4.6250
 1.9110	 4.5890
 1.9120	 4.5600
 1.9130	 4.5320
 1.9140	 4.5100
 1.9150	 4.4910
 1.9160	 4.4720
 1.9170	 4.4570
 1.9180	 4.4460
 1.9190	 4.4350
 1.9200	 4.4260
 1.9210	 4.4160
 1.9220	 4.4090
 1.9230	 4.4020
 1.9240	 4.3970
 1.9250	 4.3940
 1.9260	 4.3930
 1.9270	 4.3920
 1.9280	 4.3930
 1.9290	 4.3930
 1.9300	 4.3960
 1.9310	 4.4020
 1.9320	 4.4070
 1.9330	 4.4140
 1.9340	 4.4250
 1.9350	 4.4330
 1.9360	 4.4380
 1.9370	 4.4460
 1.9380	 4.4560
 1.9390	 4.4670
 1.9400	 4.4800
 1.9410	 4.4960
 1.9420	 4.5100
 1.9430	 4.5230
 1.9440	 4.5380
 1.9450	 4.5530
 1.9460	 4.5690
 1.9470	 4.5870
 1.9480	 4.6050
 1.9490	 4.6220
 1.9500	 4.6400
 1.9510	 4.6600
 1.9520	 4.6800
 1.9530	 4.7010
 1.9540	 4.7210
 1.9550	 4.7430
 1.9560	 4.7660
 1.9570	 4.7880
 1.9580	 4.8120
 1.9590	 4.8350
 1.9600	 4.8550
 1.9610	 4.8780
 1.9620	 4.9030
 1.9630	 4.9270
 1.9640	 4.9550
 1.9650	 4.9830
 1.9660	 5.0110
 1.9670	 5.0390
 1.9680	 5.0680
 1.9690	 5.0950
 1.9700	 5.1250
 1.9710	 5.1560
 1.9720	 5.1860
 1.9730	 5.2190
 1.9740	 5.2510
 1.9750	 5.2810
 1.9760	 5.3110
 1.9770	 5.3400
 1.9780	 5.3700
 1.9790	 5.4020
 1.9800	 5.4360
 1.9810	 5.4700
 1.9820	 5.5060
 1.9830	 5.5390
 1.9840	 5.5690
 1.9850	 5.6010
 1.9860	 5.6350
 1.9870	 5.6660
 1.9880	 5.7010
 1.9890	 5.7400
 1.9900	 5.7780
 1.9910	 5.8160
 1.9920	 5.8530
 1.9930	 5.8880
 1.9940	 5.9240
 1.9950	 5.9590
 1.9960	 5.9940
 1.9970	 6.0280
 1.9980	 6.0640
 1.9990	 6.1000
 2.0000	 6.1380
 2.0010	 6.1730
 2.0020	 6.2090
 2.0030	 6.2480
 2.0040	 6.2840
 2.0050	 6.3200
 2.0060	 6.3580
 2.0070	 6.3950
 2.0080	 6.4300
 2.0090	 6.4670
 2.0100	 6.5070
 2.0110	 6.5430
 2.0120	 6.5770
 2.0130	 6.6110
 2.0140	 6.6430
 2.0150	 6.6780
 2.0160	 6.7140
 2.0170	 6.7480
 2.0180	 6.7830
 2.0190	 6.8170
 2.0200	 6.8510
 2.0210	 6.8850
 2.0220	 6.9180
 2.0230	 6.9520
 2.0240	 6.9850
 2.0250	 7.0180
 2.0260	 7.0490
 2.0270	 7.0780
 2.0280	 7.1090
 2.0290	 7.1420
 2.0300	 7.1720
 2.0310	 7.2010
 2.0320	 7.2300
 2.0330	 7.2570
 2.0340	 7.2820
 2.0350	 7.3080
 2.0360	 7.3360
 2.0370	 7.3610
 2.0380	 7.3860
 2.0390	 7.4100
 2.0400	 7.4320
 2.0410	 7.4560
 2.0420	 7.4800
 2.0430	 7.5030
 2.0440	 7.5260
 2.0450	 7.5500
 2.0460	 7.5720
 2.0470	 7.5910
 2.0480	 7.6130
 2.0490	 7.6350
 2.0500	 7.6560
 2.0510	 7.6780
 2.0520	 7.6980
 2.0530	 7.7140
 2.0540	 7.7320
 2.0550	 7.7500
 2.0560	 7.7680
 2.0570	 7.7870
 2.0580	 7.8050
 2.0590	 7.8250
 2.0600	 7.8480
 2.0610	 7.8680
 2.0620	 7.8890
 2.0630	 7.9080
 2.0640	 7.9260
 2.0650	 7.9450
 2.0660	 7.9650
 2.0670	 7.9850
 2.0680	 8.0050
 2.0690	 8.0260
 2.0700	 8.0470
 2.0710	 8.0670
 2.0720	 8.0860
 2.0730	 8.1050
 2.0740	 8.1240
 2.0750	 8.1430
 2.0760	 8.1640
 2.0770	 8.1860
 2.0780	 8.2070
 2.0790	 8.2300
 2.0800	 8.2490
 2.0810	 8.2650
 2.0820	 8.2830
 2.0830	 8.2980
 2.0840	 8.3150
 2.0850	 8.3330
 2.0860	 8.3530
 2.0870	 8.3760
 2.0880	 8.3960
 2.0890	 8.4180
 2.0900	 8.4410
 2.0910	 8.4620
 2.0920	 8.4810
 2.0930	 8.5020
 2.0940	 8.5250
 2.0950	 8.5440
 2.0960	 8.5610
 2.0970	 8.5810
 2.0980	 8.5990
 2.0990	 8.6200
 2.1000	 8.6440
 2.1010	 8.6640
 2.1020	 8.6810
 2.1030	 8.7010
 2.1040	 8.7210
 2.1050	 8.7420
 2.1060	 8.7630
 2.1070	 8.7880
 2.1080	 8.8090
 2.1090	 8.8280
 2.1100	 8.8480
 2.1110	 8.8650
 2.1120	 8.8860
 2.1130	 8.9080
 2.1140	 8.9290
 2.1150	 8.9540
 2.1160	 8.9750
 2.1170	 8.9940
 2.1180	 9.0120
 2.1190	 9.0290
 2.1200	 9.0470
 2.1210	 9.0650
 2.1220	 9.0840
 2.1230	 9.1060
 2.1240	 9.1290
 2.1250	 9.1500
 2.1260	 9.1750
 2.1270	 9.1960
 2.1280	 9.2160
 2.1290	 9.2360
 2.1300	 9.2540
 2.1310	 9.2740
 2.1320	 9.2950
 2.1330	 9.3160
 2.1340	 9.3390
 2.1350	 9.3580
 2.1360	 9.3750
 2.1370	 9.3940
 2.1380	 9.4090
 2.1390	 9.4270
 2.1400	 9.4460
 2.1410	 9.4670
 2.1420	 9.4890
 2.1430	 9.5140
 2.1440	 9.5340
 2.1450	 9.5530
 2.1460	 9.5720
 2.1470	 9.5870
 2.1480	 9.6070
 2.1490	 9.6310
 2.1500	 9.6510
 2.1510	 9.6720
 2.1520	 9.6920
 2.1530	 9.7120
 2.1540	 9.7320
 2.1550	 9.7560
 2.1560	 9.7750
 2.1570	 9.7910
 2.1580	 9.8090
 2.1590	 9.8270
 2.1600	 9.8440
 2.1610	 9.8660
 2.1620	 9.8860
 2.1630	 9.9060
 2.1640	 9.9250
 2.1650	 9.9440
 2.1660	 9.9620
 2.1670	 9.9810
 2.1680	10.0010
 2.1690	10.0190
 2.1700	10.0370
 2.1710	10.0540
 2.1720	10.0670
 2.1730	10.0830
 2.1740	10.0980
 2.1750	10.1150
 2.1760	10.1360
 2.1770	10.1530
 2.1780	10.1670
 2.1790	10.1840
 2.1800	10.2020
 2.1810	10.2190
 2.1820	10.2380
 2.1830	10.2560
 2.1840	10.2720
 2.1850	10.2850
 2.1860	10.3000
 2.1870	10.3140
 2.1880	10.3290
 2.1890	10.3430
 2.1900	10.3580
 2.1910	10.3730
 2.1920	10.3890
 2.1930	10.4080
 2.1940	10.4230
 2.1950	10.4400
 2.1960	10.4540
 2.1970	10.4630
 2.1980	10.4760
 2.1990	10.4900
 2.2000	10.5040
 2.2010	10.5210
 2.2020	10.5350
 2.2030	10.5480
 2.2040	10.5610
 2.2050	10.5690
 2.2060	10.5800
 2.2070	10.5900
 2.2080	10.5980
 2.2090	10.6060
 2.2100	10.6120
 2.2110	10.6190
 2.2120	10.6260
 2.2130	10.6320
 2.2140	10.6380
 2.2150	10.6420
 2.2160	10.6460
 2.2170	10.6470
 2.2180	10.6480
 2.2190	10.6470
 2.2200	10.6430
 2.2210	10.6400
 2.2220	10.6380
 2.2230	10.6320
 2.2240	10.6250
 2.2250	10.6160
 2.2260	10.6010
 2.2270	10.5890
 2.2280	10.5780
 2.2290	10.5640
 2.2300	10.5500
 2.2310	10.5350
 2.2320	10.5180
 2.2330	10.4950
 2.2340	10.4730
 2.2350	10.4490
 2.2360	10.4260
 2.2370	10.4040
 2.2380	10.3750
 2.2390	10.3420
 2.2400	10.3100
 2.2410	10.2720
 2.2420	10.2390
 2.2430	10.2110
 2.2440	10.1750
 2.2450	10.1370
 2.2460	10.0970
 2.2470	10.0520
 2.2480	10.0090
 2.2490	 9.9630
 2.2500	 9.9200
 2.2510	 9.8780
 2.2520	 9.8350
 2.2530	 9.7920
 2.2540	 9.7480
 2.2550	 9.7060
 2.2560	 9.6610
 2.2570	 9.6140
 2.2580	 9.5670
 2.2590	 9.5140
 2.2600	 9.4660
 2.2610	 9.4170
 2.2620	 9.3720
 2.2630	 9.3290
 2.2640	 9.2880
 2.2650	 9.2450
 2.2660	 9.2020
 2.2670	 9.1590
 2.2680	 9.1130
 2.2690	 9.0750
 2.2700	 9.0390
 2.2710	 9.0050
 2.2720	 8.9750
 2.2730	 8.9450
 2.2740	 8.9150
 2.2750	 8.8870
 2.2760	 8.8590
 2.2770	 8.8340
 2.2780	 8.8120
 2.2790	 8.7880
 2.2800	 8.7650
 2.2810	 8.7430
 2.2820	 8.7190
 2.2830	 8.6970
 2.2840	 8.6760
 2.2850	 8.6540
 2.2860	 8.6350
 2.2870	 8.6110
 2.2880	 8.5850
 2.2890	 8.5590
 2.2900	 8.5270
 2.2910	 8.5000
 2.2920	 8.4770
 2.2930	 8.4520
 2.2940	 8.4300
 2.2950	 8.4040
 2.2960	 8.3770
 2.2970	 8.3460
 2.2980	 8.3120
 2.2990	 8.2730
 2.3000	 8.2370
 2.3010	 8.2020
 2.3020	 8.1690
 2.3030	 8.1430
 2.3040	 8.1160
 2.3050	 8.0920
 2.3060	 8.0700
 2.3070	 8.0450
 2.3080	 8.0230
 2.3090	 8.0050
 2.3100	 7.9840
 2.3110	 7.9660
 2.3120	 7.9510
 2.3130	 7.9380
 2.3140	 7.9260
 2.3150	 7.9180
 2.3160	 7.9090
 2.3170	 7.8970
 2.3180	 7.8870
 2.3190	 7.8800
 2.3200	 7.8690
 2.3210	 7.8570
 2.3220	 7.8430
 2.3230	 7.8280
 2.3240	 7.8110
 2.3250	 7.7910
 2.3260	 7.7700
 2.3270	 7.7460
 2.3280	 7.7240
 2.3290	 7.7020
 2.3300	 7.6820
 2.3310	 7.6630
 2.3320	 7.6440
 2.3330	 7.6270
 2.3340	 7.6070
 2.3350	 7.5840
 2.3360	 7.5610
 2.3370	 7.5340
 2.3380	 7.5100
 2.3390	 7.4890
 2.3400	 7.4680
 2.3410	 7.4520
 2.3420	 7.4290
 2.3430	 7.4010
 2.3440	 7.3770
 2.3450	 7.3530
 2.3460	 7.3290
 2.3470	 7.3090
 2.3480	 7.2890
 2.3490	 7.2660
 2.3500	 7.2460
 2.3510	 7.2260
 2.3520	 7.2100
 2.3530	 7.1970
 2.3540	 7.1860
 2.3550	 7.1770
 2.3560	 7.1700
 2.3570	 7.1500
 2.3580	 7.1290
 2.3590	 7.1180
 2.3600	 7.1020
 2.3610	 7.0920
 2.3620	 7.0840
 2.3630	 7.0540
 2.3640	 7.0260
 2.3650	 7.0100
 2.3660	 6.9840
 2.3670	 6.9690
 2.3680	 6.9570
 2.3690	 6.9300
 2.3700	 6.9150
 2.3710	 6.9040
 2.3720	 6.8850
 2.3730	 6.8740
 2.3740	 6.8590
 2.3750	 6.8380
 2.3760	 6.8200
 2.3770	 6.8000
 2.3780	 6.7790
 2.3790	 6.7580
 2.3800	 6.7360
 2.3810	 6.7150
 2.3820	 6.6870
 2.3830	 6.6570
 2.3840	 6.6360
 2.3850	 6.6140
 2.3860	 6.5900
 2.3870	 6.5680
 2.3880	 6.5440
 2.3890	 6.5300
 2.3900	 6.5190
 2.3910	 6.5080
 2.3920	 6.4980
 2.3930	 6.4860
 2.3940	 6.4690
 2.3950	 6.4480
 2.3960	 6.4310
 2.3970	 6.4080
 2.3980	 6.3790
 2.3990	 6.3590
 2.4000	 6.3390
 2.4010	 6.3130
 2.4020	 6.2910
 2.4030	 6.2770
 2.4040	 6.2560
 2.4050	 6.2340
 2.4060	 6.2120
 2.4070	 6.1840
 2.4080	 6.1610
 2.4090	 6.1350
 2.4100	 6.1150
 2.4110	 6.1000
 2.4120	 6.0880
 2.4130	 6.0730
 2.4140	 6.0400
 2.4150	 6.0040
 2.4160	 5.9630
 2.4170	 5.9310
 2.4180	 5.9240
 2.4190	 5.9200
 2.4200	 5.9210
 2.4210	 5.9140
 2.4220	 5.8850
 2.4230	 5.8620
 2.4240	 5.8360
 2.4250	 5.8020
 2.4260	 5.7870
 2.4270	 5.7720
 2.4280	 5.7370
 2.4290	 5.7090
 2.4300	 5.6830
 2.4310	 5.6580
 2.4320	 5.6390
 2.4330	 5.6110
 2.4340	 5.5870
 2.4350	 5.5700
 2.4360	 5.5410
 2.4370	 5.5320
 2.4380	 5.5270
 2.4390	 5.4990
 2.4400	 5.4770
 2.4410	 5.4590
 2.4420	 5.4330
 2.4430	 5.4070
 2.4440	 5.3900
 2.4450	 5.3710
 2.4460	 5.3430
 2.4470	 5.3200
 2.4480	 5.2970
 2.4490	 5.2650
 2.4500	 5.2400
 2.4510	 5.2170
 2.4520	 5.2020
 2.4530	 5.1990
 2.4540	 5.1790
 2.4550	 5.1590
 2.4560	 5.1450
 2.4570	 5.1190
 2.4580	 5.0920
 2.4590	 5.0750
 2.4600	 5.0420
 2.4610	 5.0120
 2.4620	 5.0090
 2.4630	 5.0050
 2.4640	 5.0020
 2.4650	 4.9960
 2.4660	 4.9740
 2.4670	 4.9400
 2.4680	 4.9100
 2.4690	 4.8690
 2.4700	 4.8390
 2.4710	 4.8290
 2.4720	 4.7990
 2.4730	 4.7440
 2.4740	 4.7230
 2.4750	 4.7220
 2.4760	 4.7160
 2.4770	 4.7330
 2.4780	 4.7430
 2.4790	 4.7430
 2.4800	 4.7240
 2.4810	 4.7000
 2.4820	 4.6820
 2.4830	 4.6600
 2.4840	 4.6750
 2.4850	 4.6650
 2.4860	 4.6280
 2.4870	 4.6240
 2.4880	 4.6120
 2.4890	 4.6080
 2.4900	 4.6070
 2.4910	 4.5850
 2.4920	 4.6040
 2.4930	 4.6140
 2.4940	 4.6120
 2.4950	 4.6100
 2.4960	 4.5530
 2.4970	 4.5550
 2.4980	 4.6030
 2.4990	 4.6110
 2.5000	 4.6460
