Name: Baccharis pilularis 2
Type: vegetation
Class: Shrub
Genus: Baccharis
Species: pilularis
Sample No.: VH100
Owner: UCSB
Wavelength Range: VSWIR
Origin: 34.418; -119.8455; WGS84
Collection Date: 6/3/2013
Description: Samples were collected as part of the HyspIRI Airborne Campaign. 48 individual plants were sampled in three times in 2013 - spring  summer  and fall. The name of the sample includes a 1  2  or 3 which references a different individual of the species. Samples were taken to JPL and processed within 48 hours of collection. The same leaves were processed in the Nicolet and then measured using the ASD.
Measurement: Bidirectional reflectance
First Column: X
Second Column: Y
X Units: Wavelength (micrometers)
Y Units: Reflectance (percentage)
First X Value: 0.35
Last X Value: 2.5
Number of X Values: 2151
Additional Information: vegetation.shrub.baccharis.pilularis.vswir.vh100.ucsb.asd.ancillary.txt

 0.3500	 2.5730
 0.3510	 2.5590
 0.3520	 2.5810
 0.3530	 2.5680
 0.3540	 2.5080
 0.3550	 2.5420
 0.3560	 2.5530
 0.3570	 2.5640
 0.3580	 2.6500
 0.3590	 2.6490
 0.3600	 2.6360
 0.3610	 2.6580
 0.3620	 2.6910
 0.3630	 2.7140
 0.3640	 2.6970
 0.3650	 2.6290
 0.3660	 2.5750
 0.3670	 2.5790
 0.3680	 2.6110
 0.3690	 2.5980
 0.3700	 2.5490
 0.3710	 2.5570
 0.3720	 2.6420
 0.3730	 2.6670
 0.3740	 2.6400
 0.3750	 2.6430
 0.3760	 2.7260
 0.3770	 2.6540
 0.3780	 2.6600
 0.3790	 2.7600
 0.3800	 2.7720
 0.3810	 2.7780
 0.3820	 2.7590
 0.3830	 2.7270
 0.3840	 2.8020
 0.3850	 2.8200
 0.3860	 2.8110
 0.3870	 2.8550
 0.3880	 2.8520
 0.3890	 2.8640
 0.3900	 2.8980
 0.3910	 2.9000
 0.3920	 2.8920
 0.3930	 2.9090
 0.3940	 2.9600
 0.3950	 2.9820
 0.3960	 3.0090
 0.3970	 3.0310
 0.3980	 3.0260
 0.3990	 3.0170
 0.4000	 3.0630
 0.4010	 3.1550
 0.4020	 3.2000
 0.4030	 3.1920
 0.4040	 3.2110
 0.4050	 3.2960
 0.4060	 3.2910
 0.4070	 3.3070
 0.4080	 3.3480
 0.4090	 3.3480
 0.4100	 3.3840
 0.4110	 3.4440
 0.4120	 3.5020
 0.4130	 3.5290
 0.4140	 3.5710
 0.4150	 3.6120
 0.4160	 3.6320
 0.4170	 3.6910
 0.4180	 3.7440
 0.4190	 3.7790
 0.4200	 3.8200
 0.4210	 3.8700
 0.4220	 3.9140
 0.4230	 3.9440
 0.4240	 3.9720
 0.4250	 4.0160
 0.4260	 4.0650
 0.4270	 4.0930
 0.4280	 4.1200
 0.4290	 4.1500
 0.4300	 4.1850
 0.4310	 4.2220
 0.4320	 4.2690
 0.4330	 4.3110
 0.4340	 4.3370
 0.4350	 4.3710
 0.4360	 4.4040
 0.4370	 4.4290
 0.4380	 4.4390
 0.4390	 4.4670
 0.4400	 4.4970
 0.4410	 4.5150
 0.4420	 4.5380
 0.4430	 4.5590
 0.4440	 4.5800
 0.4450	 4.6050
 0.4460	 4.6220
 0.4470	 4.6510
 0.4480	 4.6910
 0.4490	 4.7120
 0.4500	 4.7320
 0.4510	 4.7560
 0.4520	 4.7800
 0.4530	 4.7900
 0.4540	 4.8110
 0.4550	 4.8430
 0.4560	 4.8650
 0.4570	 4.8860
 0.4580	 4.9020
 0.4590	 4.9140
 0.4600	 4.9300
 0.4610	 4.9410
 0.4620	 4.9500
 0.4630	 4.9650
 0.4640	 4.9720
 0.4650	 4.9780
 0.4660	 4.9860
 0.4670	 4.9980
 0.4680	 5.0090
 0.4690	 5.0190
 0.4700	 5.0300
 0.4710	 5.0370
 0.4720	 5.0450
 0.4730	 5.0540
 0.4740	 5.0620
 0.4750	 5.0630
 0.4760	 5.0690
 0.4770	 5.0830
 0.4780	 5.0780
 0.4790	 5.0910
 0.4800	 5.1120
 0.4810	 5.1180
 0.4820	 5.1200
 0.4830	 5.1300
 0.4840	 5.1480
 0.4850	 5.1620
 0.4860	 5.1830
 0.4870	 5.2050
 0.4880	 5.2230
 0.4890	 5.2380
 0.4900	 5.2560
 0.4910	 5.2780
 0.4920	 5.3030
 0.4930	 5.3380
 0.4940	 5.3690
 0.4950	 5.3940
 0.4960	 5.4290
 0.4970	 5.4690
 0.4980	 5.5170
 0.4990	 5.5780
 0.5000	 5.6250
 0.5010	 5.6780
 0.5020	 5.7410
 0.5030	 5.8080
 0.5040	 5.8820
 0.5050	 5.9630
 0.5060	 6.0510
 0.5070	 6.1440
 0.5080	 6.2460
 0.5090	 6.3600
 0.5100	 6.4860
 0.5110	 6.6180
 0.5120	 6.7580
 0.5130	 6.9070
 0.5140	 7.0630
 0.5150	 7.2330
 0.5160	 7.4110
 0.5170	 7.5930
 0.5180	 7.7820
 0.5190	 7.9760
 0.5200	 8.1740
 0.5210	 8.3800
 0.5220	 8.5890
 0.5230	 8.7990
 0.5240	 9.0050
 0.5250	 9.1990
 0.5260	 9.3870
 0.5270	 9.5700
 0.5280	 9.7410
 0.5290	 9.9070
 0.5300	10.0610
 0.5310	10.2020
 0.5320	10.3320
 0.5330	10.4520
 0.5340	10.5650
 0.5350	10.6710
 0.5360	10.7660
 0.5370	10.8520
 0.5380	10.9320
 0.5390	11.0060
 0.5400	11.0790
 0.5410	11.1570
 0.5420	11.2390
 0.5430	11.3080
 0.5440	11.3700
 0.5450	11.4250
 0.5460	11.4700
 0.5470	11.4980
 0.5480	11.5200
 0.5490	11.5420
 0.5500	11.5710
 0.5510	11.5940
 0.5520	11.6060
 0.5530	11.6060
 0.5540	11.5940
 0.5550	11.5730
 0.5560	11.5400
 0.5570	11.4920
 0.5580	11.4370
 0.5590	11.3750
 0.5600	11.3070
 0.5610	11.2340
 0.5620	11.1550
 0.5630	11.0700
 0.5640	10.9850
 0.5650	10.8910
 0.5660	10.7910
 0.5670	10.6850
 0.5680	10.5720
 0.5690	10.4520
 0.5700	10.3290
 0.5710	10.2050
 0.5720	10.0830
 0.5730	 9.9690
 0.5740	 9.8620
 0.5750	 9.7600
 0.5760	 9.6620
 0.5770	 9.5700
 0.5780	 9.4870
 0.5790	 9.4050
 0.5800	 9.3300
 0.5810	 9.2610
 0.5820	 9.1950
 0.5830	 9.1290
 0.5840	 9.0670
 0.5850	 9.0100
 0.5860	 8.9550
 0.5870	 8.9070
 0.5880	 8.8630
 0.5890	 8.8180
 0.5900	 8.7810
 0.5910	 8.7520
 0.5920	 8.7300
 0.5930	 8.7100
 0.5940	 8.6890
 0.5950	 8.6640
 0.5960	 8.6370
 0.5970	 8.6170
 0.5980	 8.5960
 0.5990	 8.5740
 0.6000	 8.5510
 0.6010	 8.5230
 0.6020	 8.4920
 0.6030	 8.4560
 0.6040	 8.4140
 0.6050	 8.3680
 0.6060	 8.3200
 0.6070	 8.2680
 0.6080	 8.2110
 0.6090	 8.1550
 0.6100	 8.1060
 0.6110	 8.0600
 0.6120	 7.9910
 0.6130	 7.9130
 0.6140	 7.8360
 0.6150	 7.7640
 0.6160	 7.7000
 0.6170	 7.6410
 0.6180	 7.5870
 0.6190	 7.5410
 0.6200	 7.5020
 0.6210	 7.4660
 0.6220	 7.4290
 0.6230	 7.4050
 0.6240	 7.3840
 0.6250	 7.3610
 0.6260	 7.3480
 0.6270	 7.3350
 0.6280	 7.3240
 0.6290	 7.3160
 0.6300	 7.3080
 0.6310	 7.3000
 0.6320	 7.2900
 0.6330	 7.2700
 0.6340	 7.2470
 0.6350	 7.2190
 0.6360	 7.1830
 0.6370	 7.1440
 0.6380	 7.1000
 0.6390	 7.0500
 0.6400	 6.9930
 0.6410	 6.9300
 0.6420	 6.8670
 0.6430	 6.8040
 0.6440	 6.7370
 0.6450	 6.6720
 0.6460	 6.6090
 0.6470	 6.5460
 0.6480	 6.4860
 0.6490	 6.4320
 0.6500	 6.3860
 0.6510	 6.3500
 0.6520	 6.3120
 0.6530	 6.2720
 0.6540	 6.2320
 0.6550	 6.1900
 0.6560	 6.1490
 0.6570	 6.1040
 0.6580	 6.0520
 0.6590	 5.9970
 0.6600	 5.9390
 0.6610	 5.8800
 0.6620	 5.8270
 0.6630	 5.7730
 0.6640	 5.7220
 0.6650	 5.6800
 0.6660	 5.6430
 0.6670	 5.6120
 0.6680	 5.5890
 0.6690	 5.5720
 0.6700	 5.5590
 0.6710	 5.5500
 0.6720	 5.5470
 0.6730	 5.5500
 0.6740	 5.5600
 0.6750	 5.5750
 0.6760	 5.5890
 0.6770	 5.6110
 0.6780	 5.6360
 0.6790	 5.6650
 0.6800	 5.7030
 0.6810	 5.7480
 0.6820	 5.8030
 0.6830	 5.8660
 0.6840	 5.9400
 0.6850	 6.0280
 0.6860	 6.1340
 0.6870	 6.2640
 0.6880	 6.4270
 0.6890	 6.6270
 0.6900	 6.8690
 0.6910	 7.1510
 0.6920	 7.4840
 0.6930	 7.8690
 0.6940	 8.3070
 0.6950	 8.8010
 0.6960	 9.3450
 0.6970	 9.9360
 0.6980	10.5670
 0.6990	11.2370
 0.7000	11.9410
 0.7010	12.6740
 0.7020	13.4290
 0.7030	14.2030
 0.7040	14.9890
 0.7050	15.7820
 0.7060	16.5830
 0.7070	17.3860
 0.7080	18.1900
 0.7090	18.9970
 0.7100	19.7980
 0.7110	20.6000
 0.7120	21.4030
 0.7130	22.1990
 0.7140	22.9900
 0.7150	23.7750
 0.7160	24.5510
 0.7170	25.3220
 0.7180	26.0800
 0.7190	26.8240
 0.7200	27.5580
 0.7210	28.2730
 0.7220	28.9720
 0.7230	29.6530
 0.7240	30.3120
 0.7250	30.9440
 0.7260	31.5550
 0.7270	32.1460
 0.7280	32.7040
 0.7290	33.2390
 0.7300	33.7520
 0.7310	34.2400
 0.7320	34.6920
 0.7330	35.1210
 0.7340	35.5330
 0.7350	35.9210
 0.7360	36.2820
 0.7370	36.6220
 0.7380	36.9430
 0.7390	37.2420
 0.7400	37.5240
 0.7410	37.7890
 0.7420	38.0340
 0.7430	38.2620
 0.7440	38.4700
 0.7450	38.6600
 0.7460	38.8370
 0.7470	39.0050
 0.7480	39.1590
 0.7490	39.2980
 0.7500	39.4280
 0.7510	39.5460
 0.7520	39.6540
 0.7530	39.7590
 0.7540	39.8490
 0.7550	39.9310
 0.7560	40.0100
 0.7570	40.0870
 0.7580	40.1570
 0.7590	40.2200
 0.7600	40.2800
 0.7610	40.3330
 0.7620	40.3810
 0.7630	40.4260
 0.7640	40.4690
 0.7650	40.5100
 0.7660	40.5510
 0.7670	40.5910
 0.7680	40.6230
 0.7690	40.6540
 0.7700	40.6850
 0.7710	40.7160
 0.7720	40.7440
 0.7730	40.7710
 0.7740	40.8010
 0.7750	40.8330
 0.7760	40.8600
 0.7770	40.8870
 0.7780	40.9150
 0.7790	40.9420
 0.7800	40.9650
 0.7810	40.9890
 0.7820	41.0140
 0.7830	41.0380
 0.7840	41.0640
 0.7850	41.0900
 0.7860	41.1140
 0.7870	41.1410
 0.7880	41.1640
 0.7890	41.1840
 0.7900	41.2090
 0.7910	41.2350
 0.7920	41.2560
 0.7930	41.2730
 0.7940	41.2920
 0.7950	41.3170
 0.7960	41.3400
 0.7970	41.3570
 0.7980	41.3730
 0.7990	41.3940
 0.8000	41.4120
 0.8010	41.4240
 0.8020	41.4400
 0.8030	41.4590
 0.8040	41.4740
 0.8050	41.4840
 0.8060	41.5010
 0.8070	41.5160
 0.8080	41.5250
 0.8090	41.5320
 0.8100	41.5440
 0.8110	41.5600
 0.8120	41.5740
 0.8130	41.5810
 0.8140	41.5870
 0.8150	41.5930
 0.8160	41.6010
 0.8170	41.6150
 0.8180	41.6230
 0.8190	41.6290
 0.8200	41.6360
 0.8210	41.6380
 0.8220	41.6440
 0.8230	41.6530
 0.8240	41.6540
 0.8250	41.6600
 0.8260	41.6640
 0.8270	41.6630
 0.8280	41.6600
 0.8290	41.6620
 0.8300	41.6660
 0.8310	41.6700
 0.8320	41.6690
 0.8330	41.6680
 0.8340	41.6700
 0.8350	41.6760
 0.8360	41.6810
 0.8370	41.6850
 0.8380	41.6900
 0.8390	41.7000
 0.8400	41.7080
 0.8410	41.7160
 0.8420	41.7250
 0.8430	41.7330
 0.8440	41.7400
 0.8450	41.7490
 0.8460	41.7590
 0.8470	41.7670
 0.8480	41.7720
 0.8490	41.7780
 0.8500	41.7900
 0.8510	41.8050
 0.8520	41.8160
 0.8530	41.8240
 0.8540	41.8330
 0.8550	41.8460
 0.8560	41.8610
 0.8570	41.8720
 0.8580	41.8770
 0.8590	41.8850
 0.8600	41.9010
 0.8610	41.9200
 0.8620	41.9250
 0.8630	41.9330
 0.8640	41.9460
 0.8650	41.9620
 0.8660	41.9790
 0.8670	41.9920
 0.8680	42.0030
 0.8690	42.0200
 0.8700	42.0340
 0.8710	42.0480
 0.8720	42.0600
 0.8730	42.0690
 0.8740	42.0800
 0.8750	42.0970
 0.8760	42.1150
 0.8770	42.1270
 0.8780	42.1430
 0.8790	42.1590
 0.8800	42.1750
 0.8810	42.1930
 0.8820	42.2060
 0.8830	42.2210
 0.8840	42.2410
 0.8850	42.2590
 0.8860	42.2720
 0.8870	42.2850
 0.8880	42.3000
 0.8890	42.3150
 0.8900	42.3280
 0.8910	42.3410
 0.8920	42.3580
 0.8930	42.3770
 0.8940	42.3910
 0.8950	42.4010
 0.8960	42.4130
 0.8970	42.4300
 0.8980	42.4440
 0.8990	42.4590
 0.9000	42.4890
 0.9010	42.5000
 0.9020	42.5090
 0.9030	42.5230
 0.9040	42.5330
 0.9050	42.5510
 0.9060	42.5670
 0.9070	42.5770
 0.9080	42.5860
 0.9090	42.6000
 0.9100	42.6140
 0.9110	42.6260
 0.9120	42.6430
 0.9130	42.6500
 0.9140	42.6550
 0.9150	42.6700
 0.9160	42.6790
 0.9170	42.6900
 0.9180	42.7020
 0.9190	42.7120
 0.9200	42.7120
 0.9210	42.7130
 0.9220	42.7180
 0.9230	42.7230
 0.9240	42.7210
 0.9250	42.7060
 0.9260	42.6910
 0.9270	42.6940
 0.9280	42.6870
 0.9290	42.6800
 0.9300	42.6700
 0.9310	42.6480
 0.9320	42.6360
 0.9330	42.6230
 0.9340	42.6040
 0.9350	42.5810
 0.9360	42.5650
 0.9370	42.5420
 0.9380	42.5120
 0.9390	42.5030
 0.9400	42.4730
 0.9410	42.4350
 0.9420	42.4010
 0.9430	42.3660
 0.9440	42.3280
 0.9450	42.2890
 0.9460	42.2480
 0.9470	42.1980
 0.9480	42.1460
 0.9490	42.0840
 0.9500	42.0100
 0.9510	41.9400
 0.9520	41.8660
 0.9530	41.7910
 0.9540	41.7170
 0.9550	41.6420
 0.9560	41.5590
 0.9570	41.4870
 0.9580	41.4370
 0.9590	41.3760
 0.9600	41.3270
 0.9610	41.2850
 0.9620	41.2410
 0.9630	41.2200
 0.9640	41.1960
 0.9650	41.1640
 0.9660	41.1360
 0.9670	41.1340
 0.9680	41.1290
 0.9690	41.1130
 0.9700	41.0930
 0.9710	41.0800
 0.9720	41.0820
 0.9730	41.0920
 0.9740	41.1000
 0.9750	41.1140
 0.9760	41.1120
 0.9770	41.1040
 0.9780	41.1060
 0.9790	41.1190
 0.9800	41.1350
 0.9810	41.1550
 0.9820	41.1800
 0.9830	41.1990
 0.9840	41.2020
 0.9850	41.2050
 0.9860	41.2250
 0.9870	41.2580
 0.9880	41.2760
 0.9890	41.2930
 0.9900	41.3340
 0.9910	41.3700
 0.9920	41.4040
 0.9930	41.4390
 0.9940	41.4730
 0.9950	41.5080
 0.9960	41.5420
 0.9970	41.5760
 0.9980	41.6110
 0.9990	41.6450
 1.0000	41.6800
 1.0010	41.7140
 1.0020	41.7480
 1.0030	41.7830
 1.0040	41.8170
 1.0050	41.8520
 1.0060	41.8860
 1.0070	41.9200
 1.0080	41.9550
 1.0090	41.9890
 1.0100	41.9890
 1.0110	42.0230
 1.0120	42.0570
 1.0130	42.0930
 1.0140	42.1280
 1.0150	42.1610
 1.0160	42.1930
 1.0170	42.2250
 1.0180	42.2610
 1.0190	42.2980
 1.0200	42.3320
 1.0210	42.3640
 1.0220	42.3950
 1.0230	42.4260
 1.0240	42.4530
 1.0250	42.4830
 1.0260	42.5130
 1.0270	42.5460
 1.0280	42.5810
 1.0290	42.6140
 1.0300	42.6480
 1.0310	42.6780
 1.0320	42.7060
 1.0330	42.7310
 1.0340	42.7590
 1.0350	42.7850
 1.0360	42.8070
 1.0370	42.8300
 1.0380	42.8530
 1.0390	42.8730
 1.0400	42.8960
 1.0410	42.9250
 1.0420	42.9490
 1.0430	42.9720
 1.0440	42.9930
 1.0450	43.0110
 1.0460	43.0300
 1.0470	43.0490
 1.0480	43.0680
 1.0490	43.0890
 1.0500	43.1080
 1.0510	43.1250
 1.0520	43.1390
 1.0530	43.1540
 1.0540	43.1670
 1.0550	43.1820
 1.0560	43.1990
 1.0570	43.2140
 1.0580	43.2300
 1.0590	43.2420
 1.0600	43.2470
 1.0610	43.2580
 1.0620	43.2730
 1.0630	43.2860
 1.0640	43.3010
 1.0650	43.3140
 1.0660	43.3260
 1.0670	43.3340
 1.0680	43.3410
 1.0690	43.3480
 1.0700	43.3540
 1.0710	43.3570
 1.0720	43.3640
 1.0730	43.3780
 1.0740	43.3850
 1.0750	43.3910
 1.0760	43.3950
 1.0770	43.3940
 1.0780	43.3940
 1.0790	43.3930
 1.0800	43.3940
 1.0810	43.3970
 1.0820	43.3980
 1.0830	43.4000
 1.0840	43.3990
 1.0850	43.3950
 1.0860	43.3900
 1.0870	43.3870
 1.0880	43.3830
 1.0890	43.3770
 1.0900	43.3690
 1.0910	43.3630
 1.0920	43.3540
 1.0930	43.3460
 1.0940	43.3420
 1.0950	43.3330
 1.0960	43.3220
 1.0970	43.3120
 1.0980	43.3010
 1.0990	43.2900
 1.1000	43.2770
 1.1010	43.2650
 1.1020	43.2500
 1.1030	43.2370
 1.1040	43.2230
 1.1050	43.2090
 1.1060	43.1930
 1.1070	43.1760
 1.1080	43.1590
 1.1090	43.1440
 1.1100	43.1270
 1.1110	43.1120
 1.1120	43.0940
 1.1130	43.0760
 1.1140	43.0550
 1.1150	43.0330
 1.1160	43.0080
 1.1170	42.9790
 1.1180	42.9490
 1.1190	42.9170
 1.1200	42.8820
 1.1210	42.8450
 1.1220	42.8020
 1.1230	42.7540
 1.1240	42.7010
 1.1250	42.6390
 1.1260	42.5710
 1.1270	42.4940
 1.1280	42.4090
 1.1290	42.3160
 1.1300	42.2180
 1.1310	42.1070
 1.1320	41.9870
 1.1330	41.8570
 1.1340	41.7130
 1.1350	41.5630
 1.1360	41.4020
 1.1370	41.2350
 1.1380	41.0610
 1.1390	40.8850
 1.1400	40.7010
 1.1410	40.5150
 1.1420	40.3270
 1.1430	40.1360
 1.1440	39.9500
 1.1450	39.7610
 1.1460	39.5820
 1.1470	39.4040
 1.1480	39.2370
 1.1490	39.0750
 1.1500	38.9270
 1.1510	38.7850
 1.1520	38.6560
 1.1530	38.5390
 1.1540	38.4330
 1.1550	38.3390
 1.1560	38.2540
 1.1570	38.1790
 1.1580	38.1130
 1.1590	38.0520
 1.1600	37.9990
 1.1610	37.9540
 1.1620	37.9150
 1.1630	37.8810
 1.1640	37.8520
 1.1650	37.8260
 1.1660	37.8050
 1.1670	37.7860
 1.1680	37.7760
 1.1690	37.7600
 1.1700	37.7450
 1.1710	37.7310
 1.1720	37.7150
 1.1730	37.7010
 1.1740	37.6890
 1.1750	37.6790
 1.1760	37.6650
 1.1770	37.6530
 1.1780	37.6390
 1.1790	37.6230
 1.1800	37.6060
 1.1810	37.5890
 1.1820	37.5710
 1.1830	37.5550
 1.1840	37.5400
 1.1850	37.5260
 1.1860	37.5130
 1.1870	37.4990
 1.1880	37.4870
 1.1890	37.4760
 1.1900	37.4690
 1.1910	37.4630
 1.1920	37.4590
 1.1930	37.4600
 1.1940	37.4610
 1.1950	37.4630
 1.1960	37.4700
 1.1970	37.4780
 1.1980	37.4890
 1.1990	37.5050
 1.2000	37.5220
 1.2010	37.5410
 1.2020	37.5620
 1.2030	37.5810
 1.2040	37.6050
 1.2050	37.6320
 1.2060	37.6590
 1.2070	37.6890
 1.2080	37.7190
 1.2090	37.7490
 1.2100	37.7790
 1.2110	37.8110
 1.2120	37.8440
 1.2130	37.8800
 1.2140	37.9170
 1.2150	37.9540
 1.2160	37.9920
 1.2170	38.0310
 1.2180	38.0690
 1.2190	38.1090
 1.2200	38.1510
 1.2210	38.1920
 1.2220	38.2320
 1.2230	38.2720
 1.2240	38.3110
 1.2250	38.3500
 1.2260	38.3880
 1.2270	38.4270
 1.2280	38.4630
 1.2290	38.5000
 1.2300	38.5370
 1.2310	38.5720
 1.2320	38.6080
 1.2330	38.6420
 1.2340	38.6750
 1.2350	38.7050
 1.2360	38.7350
 1.2370	38.7630
 1.2380	38.7930
 1.2390	38.8230
 1.2400	38.8520
 1.2410	38.8820
 1.2420	38.9110
 1.2430	38.9390
 1.2440	38.9650
 1.2450	38.9900
 1.2460	39.0150
 1.2470	39.0380
 1.2480	39.0600
 1.2490	39.0820
 1.2500	39.1010
 1.2510	39.1190
 1.2520	39.1380
 1.2530	39.1560
 1.2540	39.1720
 1.2550	39.1880
 1.2560	39.2020
 1.2570	39.2160
 1.2580	39.2280
 1.2590	39.2380
 1.2600	39.2490
 1.2610	39.2570
 1.2620	39.2640
 1.2630	39.2680
 1.2640	39.2710
 1.2650	39.2700
 1.2660	39.2690
 1.2670	39.2680
 1.2680	39.2660
 1.2690	39.2640
 1.2700	39.2590
 1.2710	39.2500
 1.2720	39.2390
 1.2730	39.2280
 1.2740	39.2150
 1.2750	39.2010
 1.2760	39.1880
 1.2770	39.1690
 1.2780	39.1490
 1.2790	39.1300
 1.2800	39.1090
 1.2810	39.0870
 1.2820	39.0630
 1.2830	39.0360
 1.2840	39.0070
 1.2850	38.9770
 1.2860	38.9460
 1.2870	38.9120
 1.2880	38.8760
 1.2890	38.8380
 1.2900	38.7950
 1.2910	38.7520
 1.2920	38.7060
 1.2930	38.6590
 1.2940	38.6110
 1.2950	38.5590
 1.2960	38.5030
 1.2970	38.4470
 1.2980	38.3850
 1.2990	38.3220
 1.3000	38.2580
 1.3010	38.1890
 1.3020	38.1170
 1.3030	38.0390
 1.3040	37.9580
 1.3050	37.8720
 1.3060	37.7830
 1.3070	37.6940
 1.3080	37.6020
 1.3090	37.5090
 1.3100	37.4110
 1.3110	37.3070
 1.3120	37.1970
 1.3130	37.0820
 1.3140	36.9650
 1.3150	36.8450
 1.3160	36.7200
 1.3170	36.5930
 1.3180	36.4600
 1.3190	36.3230
 1.3200	36.1830
 1.3210	36.0380
 1.3220	35.8910
 1.3230	35.7410
 1.3240	35.5870
 1.3250	35.4330
 1.3260	35.2770
 1.3270	35.1170
 1.3280	34.9550
 1.3290	34.7880
 1.3300	34.6180
 1.3310	34.4470
 1.3320	34.2760
 1.3330	34.1050
 1.3340	33.9350
 1.3350	33.7630
 1.3360	33.5900
 1.3370	33.4170
 1.3380	33.2450
 1.3390	33.0750
 1.3400	32.9050
 1.3410	32.7380
 1.3420	32.5730
 1.3430	32.4070
 1.3440	32.2440
 1.3450	32.0820
 1.3460	31.9210
 1.3470	31.7640
 1.3480	31.6090
 1.3490	31.4570
 1.3500	31.3070
 1.3510	31.1570
 1.3520	31.0080
 1.3530	30.8590
 1.3540	30.7100
 1.3550	30.5620
 1.3560	30.4130
 1.3570	30.2620
 1.3580	30.1100
 1.3590	29.9550
 1.3600	29.7960
 1.3610	29.6330
 1.3620	29.4630
 1.3630	29.2880
 1.3640	29.1060
 1.3650	28.9160
 1.3660	28.7170
 1.3670	28.5090
 1.3680	28.2870
 1.3690	28.0530
 1.3700	27.8050
 1.3710	27.5420
 1.3720	27.2650
 1.3730	26.9680
 1.3740	26.6570
 1.3750	26.3290
 1.3760	25.9780
 1.3770	25.6090
 1.3780	25.2120
 1.3790	24.7960
 1.3800	24.3610
 1.3810	23.9010
 1.3820	23.4300
 1.3830	22.9430
 1.3840	22.4440
 1.3850	21.9290
 1.3860	21.4090
 1.3870	20.8740
 1.3880	20.3440
 1.3890	19.8110
 1.3900	19.2760
 1.3910	18.7520
 1.3920	18.2310
 1.3930	17.7150
 1.3940	17.2110
 1.3950	16.7150
 1.3960	16.2330
 1.3970	15.7710
 1.3980	15.3250
 1.3990	14.9030
 1.4000	14.5010
 1.4010	14.1160
 1.4020	13.7530
 1.4030	13.4090
 1.4040	13.0860
 1.4050	12.7840
 1.4060	12.5020
 1.4070	12.2430
 1.4080	12.0010
 1.4090	11.7760
 1.4100	11.5700
 1.4110	11.3800
 1.4120	11.2040
 1.4130	11.0420
 1.4140	10.8930
 1.4150	10.7580
 1.4160	10.6350
 1.4170	10.5220
 1.4180	10.4190
 1.4190	10.3240
 1.4200	10.2360
 1.4210	10.1580
 1.4220	10.0860
 1.4230	10.0200
 1.4240	 9.9610
 1.4250	 9.9070
 1.4260	 9.8590
 1.4270	 9.8150
 1.4280	 9.7780
 1.4290	 9.7430
 1.4300	 9.7120
 1.4310	 9.6840
 1.4320	 9.6610
 1.4330	 9.6400
 1.4340	 9.6230
 1.4350	 9.6090
 1.4360	 9.5960
 1.4370	 9.5870
 1.4380	 9.5800
 1.4390	 9.5760
 1.4400	 9.5740
 1.4410	 9.5740
 1.4420	 9.5750
 1.4430	 9.5780
 1.4440	 9.5820
 1.4450	 9.5880
 1.4460	 9.5940
 1.4470	 9.6020
 1.4480	 9.6110
 1.4490	 9.6200
 1.4500	 9.6310
 1.4510	 9.6420
 1.4520	 9.6550
 1.4530	 9.6700
 1.4540	 9.6860
 1.4550	 9.7050
 1.4560	 9.7240
 1.4570	 9.7450
 1.4580	 9.7680
 1.4590	 9.7940
 1.4600	 9.8230
 1.4610	 9.8550
 1.4620	 9.8900
 1.4630	 9.9300
 1.4640	 9.9710
 1.4650	10.0170
 1.4660	10.0670
 1.4670	10.1190
 1.4680	10.1750
 1.4690	10.2340
 1.4700	10.2950
 1.4710	10.3620
 1.4720	10.4290
 1.4730	10.5000
 1.4740	10.5730
 1.4750	10.6480
 1.4760	10.7260
 1.4770	10.8060
 1.4780	10.8880
 1.4790	10.9720
 1.4800	11.0570
 1.4810	11.1430
 1.4820	11.2310
 1.4830	11.3210
 1.4840	11.4120
 1.4850	11.5050
 1.4860	11.6000
 1.4870	11.6940
 1.4880	11.7890
 1.4890	11.8860
 1.4900	11.9840
 1.4910	12.0810
 1.4920	12.1810
 1.4930	12.2840
 1.4940	12.3850
 1.4950	12.4890
 1.4960	12.5920
 1.4970	12.6940
 1.4980	12.7980
 1.4990	12.9020
 1.5000	13.0070
 1.5010	13.1140
 1.5020	13.2200
 1.5030	13.3280
 1.5040	13.4350
 1.5050	13.5420
 1.5060	13.6500
 1.5070	13.7590
 1.5080	13.8680
 1.5090	13.9770
 1.5100	14.0870
 1.5110	14.1950
 1.5120	14.3040
 1.5130	14.4130
 1.5140	14.5220
 1.5150	14.6330
 1.5160	14.7410
 1.5170	14.8500
 1.5180	14.9580
 1.5190	15.0650
 1.5200	15.1740
 1.5210	15.2810
 1.5220	15.3900
 1.5230	15.4990
 1.5240	15.6050
 1.5250	15.7120
 1.5260	15.8180
 1.5270	15.9240
 1.5280	16.0290
 1.5290	16.1350
 1.5300	16.2410
 1.5310	16.3470
 1.5320	16.4510
 1.5330	16.5540
 1.5340	16.6570
 1.5350	16.7600
 1.5360	16.8630
 1.5370	16.9640
 1.5380	17.0650
 1.5390	17.1660
 1.5400	17.2640
 1.5410	17.3640
 1.5420	17.4630
 1.5430	17.5610
 1.5440	17.6610
 1.5450	17.7590
 1.5460	17.8550
 1.5470	17.9520
 1.5480	18.0480
 1.5490	18.1440
 1.5500	18.2390
 1.5510	18.3330
 1.5520	18.4270
 1.5530	18.5200
 1.5540	18.6120
 1.5550	18.7040
 1.5560	18.7950
 1.5570	18.8850
 1.5580	18.9740
 1.5590	19.0630
 1.5600	19.1500
 1.5610	19.2370
 1.5620	19.3240
 1.5630	19.4090
 1.5640	19.4940
 1.5650	19.5770
 1.5660	19.6590
 1.5670	19.7400
 1.5680	19.8230
 1.5690	19.9040
 1.5700	19.9840
 1.5710	20.0650
 1.5720	20.1440
 1.5730	20.2220
 1.5740	20.3010
 1.5750	20.3790
 1.5760	20.4560
 1.5770	20.5310
 1.5780	20.6060
 1.5790	20.6800
 1.5800	20.7520
 1.5810	20.8250
 1.5820	20.8970
 1.5830	20.9680
 1.5840	21.0400
 1.5850	21.1110
 1.5860	21.1820
 1.5870	21.2530
 1.5880	21.3230
 1.5890	21.3910
 1.5900	21.4580
 1.5910	21.5260
 1.5920	21.5940
 1.5930	21.6600
 1.5940	21.7250
 1.5950	21.7880
 1.5960	21.8500
 1.5970	21.9120
 1.5980	21.9750
 1.5990	22.0360
 1.6000	22.0980
 1.6010	22.1580
 1.6020	22.2180
 1.6030	22.2760
 1.6040	22.3330
 1.6050	22.3880
 1.6060	22.4430
 1.6070	22.4960
 1.6080	22.5500
 1.6090	22.6010
 1.6100	22.6510
 1.6110	22.7000
 1.6120	22.7490
 1.6130	22.7970
 1.6140	22.8440
 1.6150	22.8900
 1.6160	22.9370
 1.6170	22.9820
 1.6180	23.0270
 1.6190	23.0700
 1.6200	23.1110
 1.6210	23.1500
 1.6220	23.1880
 1.6230	23.2280
 1.6240	23.2670
 1.6250	23.3050
 1.6260	23.3440
 1.6270	23.3800
 1.6280	23.4130
 1.6290	23.4470
 1.6300	23.4800
 1.6310	23.5130
 1.6320	23.5470
 1.6330	23.5800
 1.6340	23.6130
 1.6350	23.6460
 1.6360	23.6790
 1.6370	23.7130
 1.6380	23.7480
 1.6390	23.7800
 1.6400	23.8120
 1.6410	23.8420
 1.6420	23.8700
 1.6430	23.8970
 1.6440	23.9240
 1.6450	23.9480
 1.6460	23.9690
 1.6470	23.9900
 1.6480	24.0090
 1.6490	24.0240
 1.6500	24.0380
 1.6510	24.0460
 1.6520	24.0520
 1.6530	24.0580
 1.6540	24.0620
 1.6550	24.0620
 1.6560	24.0610
 1.6570	24.0570
 1.6580	24.0520
 1.6590	24.0470
 1.6600	24.0400
 1.6610	24.0310
 1.6620	24.0210
 1.6630	24.0110
 1.6640	23.9990
 1.6650	23.9880
 1.6660	23.9750
 1.6670	23.9600
 1.6680	23.9440
 1.6690	23.9270
 1.6700	23.9070
 1.6710	23.8880
 1.6720	23.8670
 1.6730	23.8420
 1.6740	23.8150
 1.6750	23.7860
 1.6760	23.7530
 1.6770	23.7190
 1.6780	23.6830
 1.6790	23.6430
 1.6800	23.6010
 1.6810	23.5560
 1.6820	23.5100
 1.6830	23.4640
 1.6840	23.4140
 1.6850	23.3630
 1.6860	23.3110
 1.6870	23.2580
 1.6880	23.2060
 1.6890	23.1520
 1.6900	23.0990
 1.6910	23.0440
 1.6920	22.9920
 1.6930	22.9420
 1.6940	22.8920
 1.6950	22.8430
 1.6960	22.7940
 1.6970	22.7450
 1.6980	22.6960
 1.6990	22.6470
 1.7000	22.5980
 1.7010	22.5490
 1.7020	22.5000
 1.7030	22.4500
 1.7040	22.4010
 1.7050	22.3530
 1.7060	22.3030
 1.7070	22.2530
 1.7080	22.2020
 1.7090	22.1510
 1.7100	22.1000
 1.7110	22.0510
 1.7120	22.0020
 1.7130	21.9560
 1.7140	21.9090
 1.7150	21.8640
 1.7160	21.8200
 1.7170	21.7760
 1.7180	21.7340
 1.7190	21.6910
 1.7200	21.6490
 1.7210	21.6080
 1.7220	21.5660
 1.7230	21.5250
 1.7240	21.4850
 1.7250	21.4440
 1.7260	21.4060
 1.7270	21.3710
 1.7280	21.3360
 1.7290	21.3000
 1.7300	21.2620
 1.7310	21.2250
 1.7320	21.1890
 1.7330	21.1520
 1.7340	21.1170
 1.7350	21.0800
 1.7360	21.0410
 1.7370	21.0000
 1.7380	20.9570
 1.7390	20.9130
 1.7400	20.8680
 1.7410	20.8190
 1.7420	20.7690
 1.7430	20.7160
 1.7440	20.6600
 1.7450	20.6020
 1.7460	20.5410
 1.7470	20.4800
 1.7480	20.4180
 1.7490	20.3550
 1.7500	20.2920
 1.7510	20.2270
 1.7520	20.1610
 1.7530	20.0950
 1.7540	20.0290
 1.7550	19.9640
 1.7560	19.9000
 1.7570	19.8370
 1.7580	19.7750
 1.7590	19.7140
 1.7600	19.6540
 1.7610	19.5940
 1.7620	19.5370
 1.7630	19.4800
 1.7640	19.4270
 1.7650	19.3760
 1.7660	19.3270
 1.7670	19.2810
 1.7680	19.2370
 1.7690	19.1940
 1.7700	19.1520
 1.7710	19.1120
 1.7720	19.0730
 1.7730	19.0370
 1.7740	19.0020
 1.7750	18.9680
 1.7760	18.9370
 1.7770	18.9070
 1.7780	18.8770
 1.7790	18.8470
 1.7800	18.8210
 1.7810	18.7960
 1.7820	18.7720
 1.7830	18.7520
 1.7840	18.7330
 1.7850	18.7140
 1.7860	18.6980
 1.7870	18.6830
 1.7880	18.6700
 1.7890	18.6560
 1.7900	18.6470
 1.7910	18.6380
 1.7920	18.6310
 1.7930	18.6250
 1.7940	18.6200
 1.7950	18.6170
 1.7960	18.6170
 1.7970	18.6160
 1.7980	18.6160
 1.7990	18.6170
 1.8000	18.6190
 1.8010	18.6190
 1.8020	18.6200
 1.8030	18.6220
 1.8040	18.6220
 1.8050	18.6240
 1.8060	18.6310
 1.8070	18.6330
 1.8080	18.6330
 1.8090	18.6350
 1.8100	18.6340
 1.8110	18.6360
 1.8120	18.6390
 1.8130	18.6420
 1.8140	18.6450
 1.8150	18.6470
 1.8160	18.6460
 1.8170	18.6410
 1.8180	18.6360
 1.8190	18.6350
 1.8200	18.6310
 1.8210	18.6310
 1.8220	18.6250
 1.8230	18.6130
 1.8240	18.6020
 1.8250	18.5890
 1.8260	18.5750
 1.8270	18.5520
 1.8280	18.5300
 1.8290	18.5070
 1.8300	18.4840
 1.8310	18.4610
 1.8320	18.4380
 1.8330	18.4160
 1.8340	18.3930
 1.8350	18.3930
 1.8360	18.3480
 1.8370	18.2940
 1.8380	18.2360
 1.8390	18.1720
 1.8400	18.0990
 1.8410	18.0250
 1.8420	17.9530
 1.8430	17.8700
 1.8440	17.7780
 1.8450	17.6820
 1.8460	17.5750
 1.8470	17.4560
 1.8480	17.3340
 1.8490	17.2030
 1.8500	17.0620
 1.8510	16.9130
 1.8520	16.7570
 1.8530	16.5910
 1.8540	16.4150
 1.8550	16.2260
 1.8560	16.0280
 1.8570	15.8160
 1.8580	15.5930
 1.8590	15.3610
 1.8600	15.1170
 1.8610	14.8630
 1.8620	14.5990
 1.8630	14.3260
 1.8640	14.0420
 1.8650	13.7430
 1.8660	13.4340
 1.8670	13.1130
 1.8680	12.7830
 1.8690	12.4460
 1.8700	12.0990
 1.8710	11.7420
 1.8720	11.3820
 1.8730	11.0200
 1.8740	10.6560
 1.8750	10.2940
 1.8760	 9.9330
 1.8770	 9.5780
 1.8780	 9.2300
 1.8790	 8.8910
 1.8800	 8.5640
 1.8810	 8.2490
 1.8820	 7.9410
 1.8830	 7.6390
 1.8840	 7.3480
 1.8850	 7.0680
 1.8860	 6.8010
 1.8870	 6.5480
 1.8880	 6.3080
 1.8890	 6.0840
 1.8900	 5.8750
 1.8910	 5.6810
 1.8920	 5.5000
 1.8930	 5.3360
 1.8940	 5.1850
 1.8950	 5.0470
 1.8960	 4.9220
 1.8970	 4.8080
 1.8980	 4.7040
 1.8990	 4.6100
 1.9000	 4.5240
 1.9010	 4.4490
 1.9020	 4.3800
 1.9030	 4.3220
 1.9040	 4.2680
 1.9050	 4.2200
 1.9060	 4.1780
 1.9070	 4.1390
 1.9080	 4.1040
 1.9090	 4.0750
 1.9100	 4.0480
 1.9110	 4.0240
 1.9120	 4.0020
 1.9130	 3.9830
 1.9140	 3.9670
 1.9150	 3.9540
 1.9160	 3.9420
 1.9170	 3.9320
 1.9180	 3.9220
 1.9190	 3.9120
 1.9200	 3.9060
 1.9210	 3.9020
 1.9220	 3.8980
 1.9230	 3.8940
 1.9240	 3.8920
 1.9250	 3.8900
 1.9260	 3.8870
 1.9270	 3.8880
 1.9280	 3.8910
 1.9290	 3.8940
 1.9300	 3.8980
 1.9310	 3.9020
 1.9320	 3.9050
 1.9330	 3.9090
 1.9340	 3.9120
 1.9350	 3.9170
 1.9360	 3.9250
 1.9370	 3.9320
 1.9380	 3.9410
 1.9390	 3.9480
 1.9400	 3.9570
 1.9410	 3.9640
 1.9420	 3.9710
 1.9430	 3.9810
 1.9440	 3.9910
 1.9450	 4.0010
 1.9460	 4.0130
 1.9470	 4.0260
 1.9480	 4.0390
 1.9490	 4.0530
 1.9500	 4.0670
 1.9510	 4.0820
 1.9520	 4.0970
 1.9530	 4.1120
 1.9540	 4.1290
 1.9550	 4.1460
 1.9560	 4.1630
 1.9570	 4.1790
 1.9580	 4.1950
 1.9590	 4.2110
 1.9600	 4.2290
 1.9610	 4.2470
 1.9620	 4.2670
 1.9630	 4.2860
 1.9640	 4.3060
 1.9650	 4.3280
 1.9660	 4.3480
 1.9670	 4.3710
 1.9680	 4.3940
 1.9690	 4.4170
 1.9700	 4.4400
 1.9710	 4.4640
 1.9720	 4.4870
 1.9730	 4.5080
 1.9740	 4.5330
 1.9750	 4.5570
 1.9760	 4.5810
 1.9770	 4.6070
 1.9780	 4.6310
 1.9790	 4.6570
 1.9800	 4.6830
 1.9810	 4.7090
 1.9820	 4.7360
 1.9830	 4.7650
 1.9840	 4.7960
 1.9850	 4.8260
 1.9860	 4.8580
 1.9870	 4.8880
 1.9880	 4.9170
 1.9890	 4.9460
 1.9900	 4.9750
 1.9910	 5.0050
 1.9920	 5.0370
 1.9930	 5.0690
 1.9940	 5.1020
 1.9950	 5.1360
 1.9960	 5.1680
 1.9970	 5.2000
 1.9980	 5.2330
 1.9990	 5.2670
 2.0000	 5.2990
 2.0010	 5.3320
 2.0020	 5.3670
 2.0030	 5.4010
 2.0040	 5.4350
 2.0050	 5.4690
 2.0060	 5.5050
 2.0070	 5.5390
 2.0080	 5.5730
 2.0090	 5.6070
 2.0100	 5.6390
 2.0110	 5.6730
 2.0120	 5.7110
 2.0130	 5.7450
 2.0140	 5.7790
 2.0150	 5.8150
 2.0160	 5.8480
 2.0170	 5.8810
 2.0180	 5.9140
 2.0190	 5.9490
 2.0200	 5.9830
 2.0210	 6.0180
 2.0220	 6.0520
 2.0230	 6.0840
 2.0240	 6.1190
 2.0250	 6.1540
 2.0260	 6.1890
 2.0270	 6.2270
 2.0280	 6.2640
 2.0290	 6.2970
 2.0300	 6.3290
 2.0310	 6.3630
 2.0320	 6.3950
 2.0330	 6.4290
 2.0340	 6.4670
 2.0350	 6.5010
 2.0360	 6.5340
 2.0370	 6.5660
 2.0380	 6.5950
 2.0390	 6.6270
 2.0400	 6.6570
 2.0410	 6.6880
 2.0420	 6.7210
 2.0430	 6.7540
 2.0440	 6.7860
 2.0450	 6.8180
 2.0460	 6.8490
 2.0470	 6.8790
 2.0480	 6.9090
 2.0490	 6.9380
 2.0500	 6.9690
 2.0510	 7.0010
 2.0520	 7.0320
 2.0530	 7.0620
 2.0540	 7.0950
 2.0550	 7.1300
 2.0560	 7.1630
 2.0570	 7.1980
 2.0580	 7.2340
 2.0590	 7.2680
 2.0600	 7.2990
 2.0610	 7.3320
 2.0620	 7.3670
 2.0630	 7.4010
 2.0640	 7.4360
 2.0650	 7.4710
 2.0660	 7.5040
 2.0670	 7.5400
 2.0680	 7.5790
 2.0690	 7.6150
 2.0700	 7.6530
 2.0710	 7.6890
 2.0720	 7.7220
 2.0730	 7.7550
 2.0740	 7.7890
 2.0750	 7.8220
 2.0760	 7.8580
 2.0770	 7.8970
 2.0780	 7.9330
 2.0790	 7.9700
 2.0800	 8.0040
 2.0810	 8.0350
 2.0820	 8.0680
 2.0830	 8.1010
 2.0840	 8.1350
 2.0850	 8.1720
 2.0860	 8.2080
 2.0870	 8.2440
 2.0880	 8.2810
 2.0890	 8.3160
 2.0900	 8.3510
 2.0910	 8.3850
 2.0920	 8.4160
 2.0930	 8.4490
 2.0940	 8.4820
 2.0950	 8.5160
 2.0960	 8.5490
 2.0970	 8.5850
 2.0980	 8.6210
 2.0990	 8.6570
 2.1000	 8.6950
 2.1010	 8.7310
 2.1020	 8.7640
 2.1030	 8.7970
 2.1040	 8.8310
 2.1050	 8.8630
 2.1060	 8.8950
 2.1070	 8.9270
 2.1080	 8.9590
 2.1090	 8.9910
 2.1100	 9.0230
 2.1110	 9.0560
 2.1120	 9.0880
 2.1130	 9.1190
 2.1140	 9.1490
 2.1150	 9.1770
 2.1160	 9.2070
 2.1170	 9.2350
 2.1180	 9.2660
 2.1190	 9.3030
 2.1200	 9.3360
 2.1210	 9.3660
 2.1220	 9.3990
 2.1230	 9.4270
 2.1240	 9.4500
 2.1250	 9.4770
 2.1260	 9.5030
 2.1270	 9.5310
 2.1280	 9.5620
 2.1290	 9.5880
 2.1300	 9.6150
 2.1310	 9.6390
 2.1320	 9.6580
 2.1330	 9.6810
 2.1340	 9.7050
 2.1350	 9.7290
 2.1360	 9.7530
 2.1370	 9.7760
 2.1380	 9.7960
 2.1390	 9.8180
 2.1400	 9.8420
 2.1410	 9.8650
 2.1420	 9.8880
 2.1430	 9.9120
 2.1440	 9.9330
 2.1450	 9.9520
 2.1460	 9.9710
 2.1470	 9.9870
 2.1480	10.0060
 2.1490	10.0290
 2.1500	10.0470
 2.1510	10.0640
 2.1520	10.0810
 2.1530	10.0940
 2.1540	10.1080
 2.1550	10.1220
 2.1560	10.1390
 2.1570	10.1570
 2.1580	10.1740
 2.1590	10.1940
 2.1600	10.2160
 2.1610	10.2300
 2.1620	10.2420
 2.1630	10.2570
 2.1640	10.2720
 2.1650	10.2860
 2.1660	10.3030
 2.1670	10.3170
 2.1680	10.3270
 2.1690	10.3400
 2.1700	10.3540
 2.1710	10.3670
 2.1720	10.3830
 2.1730	10.3970
 2.1740	10.4090
 2.1750	10.4230
 2.1760	10.4360
 2.1770	10.4500
 2.1780	10.4660
 2.1790	10.4810
 2.1800	10.4960
 2.1810	10.5110
 2.1820	10.5240
 2.1830	10.5370
 2.1840	10.5500
 2.1850	10.5650
 2.1860	10.5780
 2.1870	10.5910
 2.1880	10.6030
 2.1890	10.6140
 2.1900	10.6240
 2.1910	10.6330
 2.1920	10.6430
 2.1930	10.6540
 2.1940	10.6630
 2.1950	10.6710
 2.1960	10.6780
 2.1970	10.6800
 2.1980	10.6860
 2.1990	10.6940
 2.2000	10.7000
 2.2010	10.7070
 2.2020	10.7110
 2.2030	10.7120
 2.2040	10.7150
 2.2050	10.7210
 2.2060	10.7220
 2.2070	10.7230
 2.2080	10.7250
 2.2090	10.7250
 2.2100	10.7230
 2.2110	10.7210
 2.2120	10.7170
 2.2130	10.7130
 2.2140	10.7090
 2.2150	10.7040
 2.2160	10.6990
 2.2170	10.6930
 2.2180	10.6870
 2.2190	10.6760
 2.2200	10.6620
 2.2210	10.6480
 2.2220	10.6300
 2.2230	10.6160
 2.2240	10.6090
 2.2250	10.5960
 2.2260	10.5840
 2.2270	10.5670
 2.2280	10.5430
 2.2290	10.5200
 2.2300	10.4980
 2.2310	10.4720
 2.2320	10.4440
 2.2330	10.4140
 2.2340	10.3800
 2.2350	10.3410
 2.2360	10.3020
 2.2370	10.2590
 2.2380	10.2180
 2.2390	10.1730
 2.2400	10.1350
 2.2410	10.1030
 2.2420	10.0660
 2.2430	10.0340
 2.2440	 9.9960
 2.2450	 9.9530
 2.2460	 9.9130
 2.2470	 9.8720
 2.2480	 9.8310
 2.2490	 9.7910
 2.2500	 9.7500
 2.2510	 9.7090
 2.2520	 9.6690
 2.2530	 9.6300
 2.2540	 9.5890
 2.2550	 9.5500
 2.2560	 9.5070
 2.2570	 9.4610
 2.2580	 9.4150
 2.2590	 9.3640
 2.2600	 9.3170
 2.2610	 9.2700
 2.2620	 9.2250
 2.2630	 9.1810
 2.2640	 9.1390
 2.2650	 9.0980
 2.2660	 9.0570
 2.2670	 9.0150
 2.2680	 8.9730
 2.2690	 8.9300
 2.2700	 8.8850
 2.2710	 8.8420
 2.2720	 8.7980
 2.2730	 8.7570
 2.2740	 8.7180
 2.2750	 8.6800
 2.2760	 8.6420
 2.2770	 8.6070
 2.2780	 8.5760
 2.2790	 8.5430
 2.2800	 8.5130
 2.2810	 8.4820
 2.2820	 8.4480
 2.2830	 8.4150
 2.2840	 8.3860
 2.2850	 8.3530
 2.2860	 8.3170
 2.2870	 8.2830
 2.2880	 8.2460
 2.2890	 8.2120
 2.2900	 8.1820
 2.2910	 8.1500
 2.2920	 8.1200
 2.2930	 8.0850
 2.2940	 8.0460
 2.2950	 8.0090
 2.2960	 7.9670
 2.2970	 7.9320
 2.2980	 7.9030
 2.2990	 7.8770
 2.3000	 7.8540
 2.3010	 7.8290
 2.3020	 7.8010
 2.3030	 7.7710
 2.3040	 7.7370
 2.3050	 7.7000
 2.3060	 7.6660
 2.3070	 7.6370
 2.3080	 7.6160
 2.3090	 7.6000
 2.3100	 7.5820
 2.3110	 7.5670
 2.3120	 7.5500
 2.3130	 7.5310
 2.3140	 7.5150
 2.3150	 7.5020
 2.3160	 7.4870
 2.3170	 7.4720
 2.3180	 7.4590
 2.3190	 7.4450
 2.3200	 7.4320
 2.3210	 7.4220
 2.3220	 7.4070
 2.3230	 7.3870
 2.3240	 7.3680
 2.3250	 7.3460
 2.3260	 7.3240
 2.3270	 7.3010
 2.3280	 7.2780
 2.3290	 7.2560
 2.3300	 7.2320
 2.3310	 7.2120
 2.3320	 7.1860
 2.3330	 7.1550
 2.3340	 7.1290
 2.3350	 7.1040
 2.3360	 7.0760
 2.3370	 7.0510
 2.3380	 7.0230
 2.3390	 6.9910
 2.3400	 6.9600
 2.3410	 6.9260
 2.3420	 6.8980
 2.3430	 6.8730
 2.3440	 6.8480
 2.3450	 6.8300
 2.3460	 6.8070
 2.3470	 6.7810
 2.3480	 6.7580
 2.3490	 6.7360
 2.3500	 6.7160
 2.3510	 6.7040
 2.3520	 6.6830
 2.3530	 6.6600
 2.3540	 6.6370
 2.3550	 6.6160
 2.3560	 6.5950
 2.3570	 6.5790
 2.3580	 6.5610
 2.3590	 6.5380
 2.3600	 6.5130
 2.3610	 6.4890
 2.3620	 6.4700
 2.3630	 6.4520
 2.3640	 6.4360
 2.3650	 6.4210
 2.3660	 6.4030
 2.3670	 6.3840
 2.3680	 6.3560
 2.3690	 6.3310
 2.3700	 6.3130
 2.3710	 6.2850
 2.3720	 6.2630
 2.3730	 6.2490
 2.3740	 6.2270
 2.3750	 6.2070
 2.3760	 6.1960
 2.3770	 6.1730
 2.3780	 6.1500
 2.3790	 6.1230
 2.3800	 6.0940
 2.3810	 6.0670
 2.3820	 6.0360
 2.3830	 6.0090
 2.3840	 5.9880
 2.3850	 5.9590
 2.3860	 5.9260
 2.3870	 5.9040
 2.3880	 5.8750
 2.3890	 5.8440
 2.3900	 5.8270
 2.3910	 5.8020
 2.3920	 5.7780
 2.3930	 5.7610
 2.3940	 5.7420
 2.3950	 5.7240
 2.3960	 5.7030
 2.3970	 5.6750
 2.3980	 5.6460
 2.3990	 5.6200
 2.4000	 5.5930
 2.4010	 5.5720
 2.4020	 5.5490
 2.4030	 5.5200
 2.4040	 5.5040
 2.4050	 5.4960
 2.4060	 5.4920
 2.4070	 5.4730
 2.4080	 5.4440
 2.4090	 5.4070
 2.4100	 5.3640
 2.4110	 5.3380
 2.4120	 5.3240
 2.4130	 5.3100
 2.4140	 5.2940
 2.4150	 5.2720
 2.4160	 5.2470
 2.4170	 5.2200
 2.4180	 5.1970
 2.4190	 5.1810
 2.4200	 5.1600
 2.4210	 5.1450
 2.4220	 5.1270
 2.4230	 5.0960
 2.4240	 5.0800
 2.4250	 5.0590
 2.4260	 5.0340
 2.4270	 5.0100
 2.4280	 4.9710
 2.4290	 4.9370
 2.4300	 4.9050
 2.4310	 4.8770
 2.4320	 4.8670
 2.4330	 4.8470
 2.4340	 4.8230
 2.4350	 4.8010
 2.4360	 4.7690
 2.4370	 4.7470
 2.4380	 4.7320
 2.4390	 4.7240
 2.4400	 4.7300
 2.4410	 4.7230
 2.4420	 4.7080
 2.4430	 4.6830
 2.4440	 4.6520
 2.4450	 4.6290
 2.4460	 4.6000
 2.4470	 4.5810
 2.4480	 4.5610
 2.4490	 4.5320
 2.4500	 4.5060
 2.4510	 4.4740
 2.4520	 4.4520
 2.4530	 4.4420
 2.4540	 4.4450
 2.4550	 4.4400
 2.4560	 4.4180
 2.4570	 4.3950
 2.4580	 4.3670
 2.4590	 4.3480
 2.4600	 4.3400
 2.4610	 4.3160
 2.4620	 4.2790
 2.4630	 4.2540
 2.4640	 4.2430
 2.4650	 4.2300
 2.4660	 4.2390
 2.4670	 4.2530
 2.4680	 4.2280
 2.4690	 4.1930
 2.4700	 4.1740
 2.4710	 4.1300
 2.4720	 4.1230
 2.4730	 4.1670
 2.4740	 4.1780
 2.4750	 4.1880
 2.4760	 4.1860
 2.4770	 4.1560
 2.4780	 4.1410
 2.4790	 4.1340
 2.4800	 4.1290
 2.4810	 4.1290
 2.4820	 4.1210
 2.4830	 4.1110
 2.4840	 4.0980
 2.4850	 4.0900
 2.4860	 4.0800
 2.4870	 4.0700
 2.4880	 4.0480
 2.4890	 4.0390
 2.4900	 4.0520
 2.4910	 4.0290
 2.4920	 4.0270
 2.4930	 4.0250
 2.4940	 3.9860
 2.4950	 3.9420
 2.4960	 3.8710
 2.4970	 3.8380
 2.4980	 3.8420
 2.4990	 3.8550
 2.5000	 3.8980
