Name: Olea africana
Type: vegetation
Class: Tree
Genus: Olea
Species: africana
Sample No.: JPL121
Owner: JPL
Wavelength Range: VSWIR
Origin: 34.12663; -118.11491;; WGS84
Collection Date: 9/7/2016
Description: Samples were collected at the Huntington Garden in San Marino California as part of a JPL Subcontract studying HyTES imagery. Samples were taken to JPL and processed within 48 hours of collection. The same leaves were processed in the Nicolet and then measured using the ASD.
Measurement: Bidirectional reflectance
First Column: X
Second Column: Y
X Units: Wavelength (micrometer)
Y Units: Reflectance (percentage)
First X Value: 0.35
Last X Value: 2.5
Number of X Values: 2151
Additional Information: vegetation.tree.olea.africana.vswir.jpl121.jpl.asd.ancillary.txt

 0.3500	 6.9830
 0.3510	 6.8490
 0.3520	 6.8060
 0.3530	 6.7870
 0.3540	 6.7340
 0.3550	 6.7540
 0.3560	 6.7970
 0.3570	 6.7750
 0.3580	 6.6260
 0.3590	 6.6330
 0.3600	 6.6640
 0.3610	 6.6290
 0.3620	 6.5460
 0.3630	 6.5470
 0.3640	 6.5660
 0.3650	 6.5290
 0.3660	 6.5300
 0.3670	 6.5690
 0.3680	 6.5800
 0.3690	 6.4720
 0.3700	 6.4590
 0.3710	 6.4710
 0.3720	 6.4650
 0.3730	 6.5240
 0.3740	 6.5170
 0.3750	 6.4780
 0.3760	 6.4760
 0.3770	 6.4620
 0.3780	 6.4680
 0.3790	 6.4830
 0.3800	 6.4600
 0.3810	 6.4300
 0.3820	 6.4190
 0.3830	 6.4370
 0.3840	 6.4520
 0.3850	 6.4670
 0.3860	 6.4710
 0.3870	 6.4570
 0.3880	 6.4540
 0.3890	 6.4330
 0.3900	 6.4040
 0.3910	 6.4190
 0.3920	 6.4100
 0.3930	 6.4190
 0.3940	 6.4620
 0.3950	 6.4330
 0.3960	 6.4200
 0.3970	 6.4290
 0.3980	 6.4320
 0.3990	 6.4370
 0.4000	 6.4410
 0.4010	 6.4370
 0.4020	 6.4220
 0.4030	 6.4230
 0.4040	 6.4310
 0.4050	 6.4330
 0.4060	 6.4330
 0.4070	 6.4390
 0.4080	 6.4480
 0.4090	 6.4590
 0.4100	 6.4810
 0.4110	 6.4930
 0.4120	 6.4900
 0.4130	 6.5010
 0.4140	 6.5070
 0.4150	 6.5050
 0.4160	 6.5010
 0.4170	 6.5150
 0.4180	 6.5320
 0.4190	 6.5460
 0.4200	 6.5580
 0.4210	 6.5620
 0.4220	 6.5630
 0.4230	 6.5660
 0.4240	 6.5560
 0.4250	 6.5610
 0.4260	 6.5740
 0.4270	 6.5740
 0.4280	 6.5750
 0.4290	 6.5770
 0.4300	 6.5750
 0.4310	 6.5640
 0.4320	 6.5560
 0.4330	 6.5440
 0.4340	 6.5270
 0.4350	 6.5240
 0.4360	 6.5290
 0.4370	 6.5400
 0.4380	 6.5540
 0.4390	 6.5720
 0.4400	 6.5950
 0.4410	 6.6170
 0.4420	 6.6160
 0.4430	 6.6200
 0.4440	 6.6300
 0.4450	 6.6360
 0.4460	 6.6380
 0.4470	 6.6450
 0.4480	 6.6580
 0.4490	 6.6690
 0.4500	 6.6750
 0.4510	 6.6830
 0.4520	 6.6990
 0.4530	 6.7070
 0.4540	 6.7100
 0.4550	 6.7100
 0.4560	 6.7080
 0.4570	 6.7250
 0.4580	 6.7370
 0.4590	 6.7350
 0.4600	 6.7390
 0.4610	 6.7430
 0.4620	 6.7430
 0.4630	 6.7410
 0.4640	 6.7410
 0.4650	 6.7450
 0.4660	 6.7520
 0.4670	 6.7550
 0.4680	 6.7580
 0.4690	 6.7620
 0.4700	 6.7680
 0.4710	 6.7700
 0.4720	 6.7710
 0.4730	 6.7710
 0.4740	 6.7730
 0.4750	 6.7740
 0.4760	 6.7790
 0.4770	 6.7890
 0.4780	 6.7940
 0.4790	 6.7910
 0.4800	 6.7910
 0.4810	 6.8040
 0.4820	 6.8040
 0.4830	 6.7990
 0.4840	 6.7960
 0.4850	 6.7960
 0.4860	 6.7980
 0.4870	 6.8060
 0.4880	 6.8180
 0.4890	 6.8260
 0.4900	 6.8340
 0.4910	 6.8450
 0.4920	 6.8580
 0.4930	 6.8800
 0.4940	 6.9010
 0.4950	 6.9180
 0.4960	 6.9440
 0.4970	 6.9710
 0.4980	 7.0000
 0.4990	 7.0360
 0.5000	 7.0700
 0.5010	 7.1130
 0.5020	 7.1630
 0.5030	 7.2120
 0.5040	 7.2710
 0.5050	 7.3380
 0.5060	 7.4110
 0.5070	 7.4960
 0.5080	 7.5920
 0.5090	 7.7020
 0.5100	 7.8240
 0.5110	 7.9550
 0.5120	 8.0960
 0.5130	 8.2520
 0.5140	 8.4320
 0.5150	 8.6250
 0.5160	 8.8290
 0.5170	 9.0440
 0.5180	 9.2730
 0.5190	 9.5150
 0.5200	 9.7660
 0.5210	10.0190
 0.5220	10.2770
 0.5230	10.5390
 0.5240	10.8010
 0.5250	11.0450
 0.5260	11.2850
 0.5270	11.5160
 0.5280	11.7290
 0.5290	11.9310
 0.5300	12.1190
 0.5310	12.2920
 0.5320	12.4490
 0.5330	12.5880
 0.5340	12.7170
 0.5350	12.8370
 0.5360	12.9380
 0.5370	13.0220
 0.5380	13.0960
 0.5390	13.1650
 0.5400	13.2140
 0.5410	13.2540
 0.5420	13.2920
 0.5430	13.3300
 0.5440	13.3760
 0.5450	13.4300
 0.5460	13.4870
 0.5470	13.5460
 0.5480	13.5980
 0.5490	13.6360
 0.5500	13.6650
 0.5510	13.6830
 0.5520	13.6900
 0.5530	13.6830
 0.5540	13.6640
 0.5550	13.6280
 0.5560	13.5710
 0.5570	13.4960
 0.5580	13.4080
 0.5590	13.3070
 0.5600	13.1940
 0.5610	13.0730
 0.5620	12.9440
 0.5630	12.8090
 0.5640	12.6700
 0.5650	12.5240
 0.5660	12.3720
 0.5670	12.2160
 0.5680	12.0520
 0.5690	11.8860
 0.5700	11.7180
 0.5710	11.5510
 0.5720	11.3820
 0.5730	11.2210
 0.5740	11.0740
 0.5750	10.9420
 0.5760	10.8220
 0.5770	10.7050
 0.5780	10.5860
 0.5790	10.4700
 0.5800	10.3680
 0.5810	10.2790
 0.5820	10.1970
 0.5830	10.1190
 0.5840	10.0420
 0.5850	 9.9660
 0.5860	 9.8900
 0.5870	 9.8220
 0.5880	 9.7630
 0.5890	 9.7130
 0.5900	 9.6680
 0.5910	 9.6300
 0.5920	 9.5950
 0.5930	 9.5580
 0.5940	 9.5290
 0.5950	 9.5070
 0.5960	 9.4880
 0.5970	 9.4610
 0.5980	 9.4300
 0.5990	 9.3960
 0.6000	 9.3600
 0.6010	 9.3270
 0.6020	 9.2910
 0.6030	 9.2510
 0.6040	 9.2090
 0.6050	 9.1600
 0.6060	 9.1060
 0.6070	 9.0500
 0.6080	 8.9880
 0.6090	 8.9140
 0.6100	 8.8260
 0.6110	 8.7280
 0.6120	 8.6680
 0.6130	 8.6240
 0.6140	 8.5770
 0.6150	 8.5210
 0.6160	 8.4640
 0.6170	 8.4110
 0.6180	 8.3620
 0.6190	 8.3120
 0.6200	 8.2660
 0.6210	 8.2290
 0.6220	 8.1970
 0.6230	 8.1710
 0.6240	 8.1490
 0.6250	 8.1310
 0.6260	 8.1180
 0.6270	 8.1060
 0.6280	 8.0960
 0.6290	 8.0860
 0.6300	 8.0750
 0.6310	 8.0650
 0.6320	 8.0540
 0.6330	 8.0410
 0.6340	 8.0210
 0.6350	 7.9940
 0.6360	 7.9610
 0.6370	 7.9170
 0.6380	 7.8710
 0.6390	 7.8200
 0.6400	 7.7630
 0.6410	 7.7060
 0.6420	 7.6470
 0.6430	 7.5860
 0.6440	 7.5300
 0.6450	 7.4740
 0.6460	 7.4210
 0.6470	 7.3730
 0.6480	 7.3300
 0.6490	 7.2920
 0.6500	 7.2590
 0.6510	 7.2380
 0.6520	 7.2200
 0.6530	 7.2040
 0.6540	 7.1890
 0.6550	 7.1750
 0.6560	 7.1550
 0.6570	 7.1340
 0.6580	 7.1170
 0.6590	 7.0950
 0.6600	 7.0720
 0.6610	 7.0500
 0.6620	 7.0300
 0.6630	 7.0150
 0.6640	 7.0020
 0.6650	 6.9910
 0.6660	 6.9860
 0.6670	 6.9840
 0.6680	 6.9850
 0.6690	 6.9920
 0.6700	 7.0000
 0.6710	 7.0120
 0.6720	 7.0280
 0.6730	 7.0440
 0.6740	 7.0670
 0.6750	 7.0920
 0.6760	 7.1170
 0.6770	 7.1440
 0.6780	 7.1780
 0.6790	 7.2170
 0.6800	 7.2580
 0.6810	 7.2980
 0.6820	 7.3410
 0.6830	 7.3910
 0.6840	 7.4430
 0.6850	 7.5000
 0.6860	 7.5660
 0.6870	 7.6450
 0.6880	 7.7450
 0.6890	 7.8760
 0.6900	 8.0470
 0.6910	 8.2730
 0.6920	 8.5600
 0.6930	 8.9200
 0.6940	 9.3610
 0.6950	 9.8920
 0.6960	10.5070
 0.6970	11.2040
 0.6980	11.9800
 0.6990	12.8280
 0.7000	13.7350
 0.7010	14.6920
 0.7020	15.6870
 0.7030	16.7080
 0.7040	17.7480
 0.7050	18.7970
 0.7060	19.8490
 0.7070	20.9020
 0.7080	21.9520
 0.7090	23.0000
 0.7100	24.0410
 0.7110	25.0800
 0.7120	26.1140
 0.7130	27.1400
 0.7140	28.1600
 0.7150	29.1730
 0.7160	30.1760
 0.7170	31.1660
 0.7180	32.1430
 0.7190	33.1080
 0.7200	34.0610
 0.7210	34.9950
 0.7220	35.9100
 0.7230	36.8030
 0.7240	37.6730
 0.7250	38.5160
 0.7260	39.3330
 0.7270	40.1250
 0.7280	40.8850
 0.7290	41.6120
 0.7300	42.3080
 0.7310	42.9760
 0.7320	43.6120
 0.7330	44.2160
 0.7340	44.7890
 0.7350	45.3330
 0.7360	45.8480
 0.7370	46.3320
 0.7380	46.7840
 0.7390	47.2110
 0.7400	47.6120
 0.7410	47.9870
 0.7420	48.3340
 0.7430	48.6560
 0.7440	48.9560
 0.7450	49.2330
 0.7460	49.4880
 0.7470	49.7230
 0.7480	49.9380
 0.7490	50.1320
 0.7500	50.3110
 0.7510	50.4790
 0.7520	50.6310
 0.7530	50.7640
 0.7540	50.8860
 0.7550	50.9990
 0.7560	51.1040
 0.7570	51.1960
 0.7580	51.2790
 0.7590	51.3560
 0.7600	51.4270
 0.7610	51.4930
 0.7620	51.5530
 0.7630	51.6040
 0.7640	51.6490
 0.7650	51.6920
 0.7660	51.7310
 0.7670	51.7670
 0.7680	51.8000
 0.7690	51.8310
 0.7700	51.8570
 0.7710	51.8780
 0.7720	51.9050
 0.7730	51.9270
 0.7740	51.9460
 0.7750	51.9660
 0.7760	51.9860
 0.7770	52.0040
 0.7780	52.0190
 0.7790	52.0350
 0.7800	52.0530
 0.7810	52.0690
 0.7820	52.0820
 0.7830	52.0930
 0.7840	52.1060
 0.7850	52.1190
 0.7860	52.1320
 0.7870	52.1410
 0.7880	52.1500
 0.7890	52.1600
 0.7900	52.1710
 0.7910	52.1780
 0.7920	52.1850
 0.7930	52.1910
 0.7940	52.1970
 0.7950	52.2030
 0.7960	52.2070
 0.7970	52.2080
 0.7980	52.2100
 0.7990	52.2110
 0.8000	52.2100
 0.8010	52.2080
 0.8020	52.2090
 0.8030	52.2100
 0.8040	52.2070
 0.8050	52.1990
 0.8060	52.1980
 0.8070	52.1960
 0.8080	52.1900
 0.8090	52.1850
 0.8100	52.1800
 0.8110	52.1730
 0.8120	52.1630
 0.8130	52.1590
 0.8140	52.1490
 0.8150	52.1390
 0.8160	52.1330
 0.8170	52.1310
 0.8180	52.1240
 0.8190	52.1160
 0.8200	52.1110
 0.8210	52.1010
 0.8220	52.0900
 0.8230	52.0810
 0.8240	52.0710
 0.8250	52.0610
 0.8260	52.0510
 0.8270	52.0420
 0.8280	52.0330
 0.8290	52.0260
 0.8300	52.0180
 0.8310	52.0070
 0.8320	52.0010
 0.8330	51.9940
 0.8340	51.9840
 0.8350	51.9740
 0.8360	51.9670
 0.8370	51.9630
 0.8380	51.9600
 0.8390	51.9550
 0.8400	51.9490
 0.8410	51.9460
 0.8420	51.9460
 0.8430	51.9430
 0.8440	51.9430
 0.8450	51.9430
 0.8460	51.9400
 0.8470	51.9410
 0.8480	51.9420
 0.8490	51.9420
 0.8500	51.9440
 0.8510	51.9420
 0.8520	51.9390
 0.8530	51.9380
 0.8540	51.9460
 0.8550	51.9450
 0.8560	51.9460
 0.8570	51.9510
 0.8580	51.9560
 0.8590	51.9630
 0.8600	51.9690
 0.8610	51.9740
 0.8620	51.9800
 0.8630	51.9840
 0.8640	51.9880
 0.8650	51.9910
 0.8660	51.9980
 0.8670	52.0010
 0.8680	52.0070
 0.8690	52.0180
 0.8700	52.0230
 0.8710	52.0280
 0.8720	52.0370
 0.8730	52.0460
 0.8740	52.0540
 0.8750	52.0640
 0.8760	52.0730
 0.8770	52.0810
 0.8780	52.0910
 0.8790	52.1000
 0.8800	52.1080
 0.8810	52.1160
 0.8820	52.1250
 0.8830	52.1340
 0.8840	52.1430
 0.8850	52.1530
 0.8860	52.1610
 0.8870	52.1680
 0.8880	52.1760
 0.8890	52.1850
 0.8900	52.1950
 0.8910	52.2050
 0.8920	52.2110
 0.8930	52.2160
 0.8940	52.2230
 0.8950	52.2330
 0.8960	52.2420
 0.8970	52.2480
 0.8980	52.2590
 0.8990	52.2720
 0.9000	52.2750
 0.9010	52.2830
 0.9020	52.2910
 0.9030	52.2960
 0.9040	52.3060
 0.9050	52.3150
 0.9060	52.3220
 0.9070	52.3250
 0.9080	52.3350
 0.9090	52.3400
 0.9100	52.3440
 0.9110	52.3530
 0.9120	52.3600
 0.9130	52.3620
 0.9140	52.3600
 0.9150	52.3590
 0.9160	52.3620
 0.9170	52.3640
 0.9180	52.3680
 0.9190	52.3750
 0.9200	52.3780
 0.9210	52.3750
 0.9220	52.3690
 0.9230	52.3650
 0.9240	52.3610
 0.9250	52.3500
 0.9260	52.3380
 0.9270	52.3340
 0.9280	52.3230
 0.9290	52.3120
 0.9300	52.3050
 0.9310	52.2910
 0.9320	52.2710
 0.9330	52.2510
 0.9340	52.2340
 0.9350	52.2200
 0.9360	52.2000
 0.9370	52.1810
 0.9380	52.1620
 0.9390	52.1260
 0.9400	52.1120
 0.9410	52.0940
 0.9420	52.0560
 0.9430	52.0220
 0.9440	51.9880
 0.9450	51.9560
 0.9460	51.9240
 0.9470	51.8810
 0.9480	51.8320
 0.9490	51.7870
 0.9500	51.7490
 0.9510	51.6910
 0.9520	51.6350
 0.9530	51.5780
 0.9540	51.5150
 0.9550	51.4610
 0.9560	51.4050
 0.9570	51.3460
 0.9580	51.2890
 0.9590	51.2370
 0.9600	51.1870
 0.9610	51.1370
 0.9620	51.0890
 0.9630	51.0580
 0.9640	51.0420
 0.9650	51.0200
 0.9660	50.9800
 0.9670	50.9590
 0.9680	50.9400
 0.9690	50.9210
 0.9700	50.9050
 0.9710	50.8870
 0.9720	50.8730
 0.9730	50.8630
 0.9740	50.8540
 0.9750	50.8410
 0.9760	50.8250
 0.9770	50.8120
 0.9780	50.8070
 0.9790	50.8170
 0.9800	50.8170
 0.9810	50.8100
 0.9820	50.8120
 0.9830	50.8090
 0.9840	50.8110
 0.9850	50.8170
 0.9860	50.8200
 0.9870	50.8260
 0.9880	50.8350
 0.9890	50.8420
 0.9900	50.8480
 0.9910	50.8550
 0.9920	50.8790
 0.9930	50.9050
 0.9940	50.9100
 0.9950	50.9100
 0.9960	50.9130
 0.9970	50.9210
 0.9980	50.9400
 0.9990	50.9700
 1.0000	50.9880
 1.0010	51.3380
 1.0020	51.3560
 1.0030	51.3750
 1.0040	51.3930
 1.0050	51.4120
 1.0060	51.4340
 1.0070	51.4540
 1.0080	51.4730
 1.0090	51.4910
 1.0100	51.5080
 1.0110	51.5200
 1.0120	51.5380
 1.0130	51.5600
 1.0140	51.5790
 1.0150	51.5980
 1.0160	51.6210
 1.0170	51.6370
 1.0180	51.6510
 1.0190	51.6670
 1.0200	51.6820
 1.0210	51.7010
 1.0220	51.7210
 1.0230	51.7390
 1.0240	51.7600
 1.0250	51.7780
 1.0260	51.7940
 1.0270	51.8100
 1.0280	51.8240
 1.0290	51.8400
 1.0300	51.8550
 1.0310	51.8700
 1.0320	51.8850
 1.0330	51.9000
 1.0340	51.9180
 1.0350	51.9340
 1.0360	51.9470
 1.0370	51.9610
 1.0380	51.9730
 1.0390	51.9820
 1.0400	51.9930
 1.0410	52.0060
 1.0420	52.0180
 1.0430	52.0290
 1.0440	52.0390
 1.0450	52.0470
 1.0460	52.0570
 1.0470	52.0670
 1.0480	52.0750
 1.0490	52.0850
 1.0500	52.0940
 1.0510	52.1020
 1.0520	52.1090
 1.0530	52.1170
 1.0540	52.1260
 1.0550	52.1320
 1.0560	52.1370
 1.0570	52.1430
 1.0580	52.1470
 1.0590	52.1540
 1.0600	52.1650
 1.0610	52.1710
 1.0620	52.1750
 1.0630	52.1810
 1.0640	52.1830
 1.0650	52.1890
 1.0660	52.2030
 1.0670	52.2110
 1.0680	52.2170
 1.0690	52.2220
 1.0700	52.2270
 1.0710	52.2300
 1.0720	52.2340
 1.0730	52.2410
 1.0740	52.2450
 1.0750	52.2460
 1.0760	52.2490
 1.0770	52.2490
 1.0780	52.2510
 1.0790	52.2550
 1.0800	52.2570
 1.0810	52.2580
 1.0820	52.2600
 1.0830	52.2630
 1.0840	52.2640
 1.0850	52.2630
 1.0860	52.2660
 1.0870	52.2670
 1.0880	52.2670
 1.0890	52.2670
 1.0900	52.2710
 1.0910	52.2690
 1.0920	52.2650
 1.0930	52.2620
 1.0940	52.2570
 1.0950	52.2540
 1.0960	52.2520
 1.0970	52.2480
 1.0980	52.2430
 1.0990	52.2380
 1.1000	52.2310
 1.1010	52.2250
 1.1020	52.2190
 1.1030	52.2100
 1.1040	52.2020
 1.1050	52.1940
 1.1060	52.1850
 1.1070	52.1780
 1.1080	52.1690
 1.1090	52.1600
 1.1100	52.1480
 1.1110	52.1330
 1.1120	52.1190
 1.1130	52.1040
 1.1140	52.0880
 1.1150	52.0700
 1.1160	52.0530
 1.1170	52.0360
 1.1180	52.0150
 1.1190	51.9930
 1.1200	51.9690
 1.1210	51.9430
 1.1220	51.9110
 1.1230	51.8780
 1.1240	51.8430
 1.1250	51.8020
 1.1260	51.7590
 1.1270	51.7080
 1.1280	51.6500
 1.1290	51.5880
 1.1300	51.5190
 1.1310	51.4440
 1.1320	51.3660
 1.1330	51.2790
 1.1340	51.1860
 1.1350	51.0850
 1.1360	50.9780
 1.1370	50.8630
 1.1380	50.7420
 1.1390	50.6190
 1.1400	50.4910
 1.1410	50.3600
 1.1420	50.2280
 1.1430	50.0930
 1.1440	49.9590
 1.1450	49.8230
 1.1460	49.6910
 1.1470	49.5570
 1.1480	49.4300
 1.1490	49.3030
 1.1500	49.1870
 1.1510	49.0780
 1.1520	48.9740
 1.1530	48.8790
 1.1540	48.7890
 1.1550	48.7030
 1.1560	48.6250
 1.1570	48.5550
 1.1580	48.4900
 1.1590	48.4330
 1.1600	48.3810
 1.1610	48.3330
 1.1620	48.2910
 1.1630	48.2520
 1.1640	48.2160
 1.1650	48.1840
 1.1660	48.1540
 1.1670	48.1270
 1.1680	48.1040
 1.1690	48.0810
 1.1700	48.0610
 1.1710	48.0410
 1.1720	48.0210
 1.1730	48.0010
 1.1740	47.9820
 1.1750	47.9620
 1.1760	47.9420
 1.1770	47.9220
 1.1780	47.9020
 1.1790	47.8800
 1.1800	47.8570
 1.1810	47.8350
 1.1820	47.8130
 1.1830	47.7920
 1.1840	47.7710
 1.1850	47.7510
 1.1860	47.7330
 1.1870	47.7130
 1.1880	47.6950
 1.1890	47.6770
 1.1900	47.6630
 1.1910	47.6490
 1.1920	47.6370
 1.1930	47.6270
 1.1940	47.6200
 1.1950	47.6130
 1.1960	47.6070
 1.1970	47.6060
 1.1980	47.6070
 1.1990	47.6090
 1.2000	47.6140
 1.2010	47.6210
 1.2020	47.6300
 1.2030	47.6430
 1.2040	47.6570
 1.2050	47.6700
 1.2060	47.6850
 1.2070	47.7030
 1.2080	47.7200
 1.2090	47.7400
 1.2100	47.7630
 1.2110	47.7870
 1.2120	47.8110
 1.2130	47.8360
 1.2140	47.8640
 1.2150	47.8920
 1.2160	47.9210
 1.2170	47.9530
 1.2180	47.9860
 1.2190	48.0190
 1.2200	48.0520
 1.2210	48.0870
 1.2220	48.1210
 1.2230	48.1570
 1.2240	48.1940
 1.2250	48.2270
 1.2260	48.2590
 1.2270	48.2910
 1.2280	48.3190
 1.2290	48.3470
 1.2300	48.3760
 1.2310	48.4040
 1.2320	48.4330
 1.2330	48.4600
 1.2340	48.4860
 1.2350	48.5110
 1.2360	48.5350
 1.2370	48.5580
 1.2380	48.5810
 1.2390	48.6020
 1.2400	48.6230
 1.2410	48.6460
 1.2420	48.6670
 1.2430	48.6880
 1.2440	48.7070
 1.2450	48.7250
 1.2460	48.7410
 1.2470	48.7570
 1.2480	48.7720
 1.2490	48.7850
 1.2500	48.7990
 1.2510	48.8130
 1.2520	48.8250
 1.2530	48.8380
 1.2540	48.8480
 1.2550	48.8590
 1.2560	48.8720
 1.2570	48.8830
 1.2580	48.8920
 1.2590	48.9000
 1.2600	48.9030
 1.2610	48.9080
 1.2620	48.9120
 1.2630	48.9160
 1.2640	48.9190
 1.2650	48.9230
 1.2660	48.9230
 1.2670	48.9220
 1.2680	48.9210
 1.2690	48.9190
 1.2700	48.9190
 1.2710	48.9160
 1.2720	48.9100
 1.2730	48.9030
 1.2740	48.8940
 1.2750	48.8830
 1.2760	48.8740
 1.2770	48.8630
 1.2780	48.8500
 1.2790	48.8370
 1.2800	48.8230
 1.2810	48.8050
 1.2820	48.7850
 1.2830	48.7650
 1.2840	48.7420
 1.2850	48.7190
 1.2860	48.6990
 1.2870	48.6760
 1.2880	48.6500
 1.2890	48.6230
 1.2900	48.5960
 1.2910	48.5640
 1.2920	48.5320
 1.2930	48.4990
 1.2940	48.4620
 1.2950	48.4240
 1.2960	48.3830
 1.2970	48.3420
 1.2980	48.2980
 1.2990	48.2530
 1.3000	48.2060
 1.3010	48.1560
 1.3020	48.1050
 1.3030	48.0520
 1.3040	47.9980
 1.3050	47.9430
 1.3060	47.8840
 1.3070	47.8200
 1.3080	47.7530
 1.3090	47.6840
 1.3100	47.6130
 1.3110	47.5390
 1.3120	47.4620
 1.3130	47.3820
 1.3140	47.2980
 1.3150	47.2110
 1.3160	47.1210
 1.3170	47.0290
 1.3180	46.9340
 1.3190	46.8340
 1.3200	46.7320
 1.3210	46.6240
 1.3220	46.5150
 1.3230	46.4020
 1.3240	46.2860
 1.3250	46.1690
 1.3260	46.0500
 1.3270	45.9270
 1.3280	45.7980
 1.3290	45.6670
 1.3300	45.5330
 1.3310	45.3950
 1.3320	45.2570
 1.3330	45.1180
 1.3340	44.9770
 1.3350	44.8350
 1.3360	44.6910
 1.3370	44.5470
 1.3380	44.4020
 1.3390	44.2580
 1.3400	44.1130
 1.3410	43.9680
 1.3420	43.8240
 1.3430	43.6790
 1.3440	43.5350
 1.3450	43.3940
 1.3460	43.2520
 1.3470	43.1130
 1.3480	42.9760
 1.3490	42.8400
 1.3500	42.7060
 1.3510	42.5730
 1.3520	42.4400
 1.3530	42.3070
 1.3540	42.1750
 1.3550	42.0420
 1.3560	41.9080
 1.3570	41.7740
 1.3580	41.6380
 1.3590	41.5010
 1.3600	41.3620
 1.3610	41.2180
 1.3620	41.0700
 1.3630	40.9170
 1.3640	40.7590
 1.3650	40.5930
 1.3660	40.4220
 1.3670	40.2420
 1.3680	40.0520
 1.3690	39.8530
 1.3700	39.6420
 1.3710	39.4170
 1.3720	39.1770
 1.3730	38.9200
 1.3740	38.6470
 1.3750	38.3570
 1.3760	38.0470
 1.3770	37.7130
 1.3780	37.3500
 1.3790	36.9640
 1.3800	36.5530
 1.3810	36.1160
 1.3820	35.6590
 1.3830	35.1830
 1.3840	34.6840
 1.3850	34.1620
 1.3860	33.6250
 1.3870	33.0630
 1.3880	32.4970
 1.3890	31.9170
 1.3900	31.3250
 1.3910	30.7320
 1.3920	30.1320
 1.3930	29.5250
 1.3940	28.9220
 1.3950	28.3130
 1.3960	27.7120
 1.3970	27.1240
 1.3980	26.5440
 1.3990	25.9850
 1.4000	25.4400
 1.4010	24.9090
 1.4020	24.4000
 1.4030	23.9070
 1.4040	23.4360
 1.4050	22.9890
 1.4060	22.5620
 1.4070	22.1630
 1.4080	21.7850
 1.4090	21.4270
 1.4100	21.0950
 1.4110	20.7820
 1.4120	20.4890
 1.4130	20.2190
 1.4140	19.9660
 1.4150	19.7340
 1.4160	19.5190
 1.4170	19.3200
 1.4180	19.1370
 1.4190	18.9670
 1.4200	18.8100
 1.4210	18.6670
 1.4220	18.5350
 1.4230	18.4160
 1.4240	18.3070
 1.4250	18.2070
 1.4260	18.1180
 1.4270	18.0360
 1.4280	17.9620
 1.4290	17.8960
 1.4300	17.8380
 1.4310	17.7860
 1.4320	17.7420
 1.4330	17.7030
 1.4340	17.6710
 1.4350	17.6430
 1.4360	17.6210
 1.4370	17.6030
 1.4380	17.5890
 1.4390	17.5790
 1.4400	17.5730
 1.4410	17.5710
 1.4420	17.5730
 1.4430	17.5780
 1.4440	17.5860
 1.4450	17.5960
 1.4460	17.6090
 1.4470	17.6230
 1.4480	17.6390
 1.4490	17.6570
 1.4500	17.6750
 1.4510	17.6960
 1.4520	17.7190
 1.4530	17.7440
 1.4540	17.7690
 1.4550	17.7960
 1.4560	17.8250
 1.4570	17.8570
 1.4580	17.8930
 1.4590	17.9330
 1.4600	17.9760
 1.4610	18.0220
 1.4620	18.0730
 1.4630	18.1280
 1.4640	18.1880
 1.4650	18.2520
 1.4660	18.3210
 1.4670	18.3950
 1.4680	18.4740
 1.4690	18.5580
 1.4700	18.6460
 1.4710	18.7400
 1.4720	18.8370
 1.4730	18.9380
 1.4740	19.0430
 1.4750	19.1500
 1.4760	19.2610
 1.4770	19.3750
 1.4780	19.4900
 1.4790	19.6090
 1.4800	19.7290
 1.4810	19.8500
 1.4820	19.9740
 1.4830	20.0970
 1.4840	20.2240
 1.4850	20.3530
 1.4860	20.4810
 1.4870	20.6120
 1.4880	20.7420
 1.4890	20.8720
 1.4900	21.0040
 1.4910	21.1360
 1.4920	21.2700
 1.4930	21.4050
 1.4940	21.5390
 1.4950	21.6750
 1.4960	21.8100
 1.4970	21.9440
 1.4980	22.0790
 1.4990	22.2150
 1.5000	22.3510
 1.5010	22.4880
 1.5020	22.6240
 1.5030	22.7600
 1.5040	22.8960
 1.5050	23.0320
 1.5060	23.1680
 1.5070	23.3040
 1.5080	23.4400
 1.5090	23.5750
 1.5100	23.7090
 1.5110	23.8420
 1.5120	23.9750
 1.5130	24.1060
 1.5140	24.2380
 1.5150	24.3690
 1.5160	24.5000
 1.5170	24.6310
 1.5180	24.7590
 1.5190	24.8880
 1.5200	25.0150
 1.5210	25.1380
 1.5220	25.2620
 1.5230	25.3860
 1.5240	25.5080
 1.5250	25.6310
 1.5260	25.7540
 1.5270	25.8760
 1.5280	25.9960
 1.5290	26.1130
 1.5300	26.2300
 1.5310	26.3450
 1.5320	26.4610
 1.5330	26.5750
 1.5340	26.6870
 1.5350	26.7980
 1.5360	26.9090
 1.5370	27.0170
 1.5380	27.1260
 1.5390	27.2340
 1.5400	27.3400
 1.5410	27.4460
 1.5420	27.5500
 1.5430	27.6530
 1.5440	27.7550
 1.5450	27.8570
 1.5460	27.9570
 1.5470	28.0580
 1.5480	28.1560
 1.5490	28.2550
 1.5500	28.3520
 1.5510	28.4480
 1.5520	28.5440
 1.5530	28.6380
 1.5540	28.7310
 1.5550	28.8230
 1.5560	28.9140
 1.5570	29.0040
 1.5580	29.0940
 1.5590	29.1820
 1.5600	29.2680
 1.5610	29.3530
 1.5620	29.4370
 1.5630	29.5210
 1.5640	29.6050
 1.5650	29.6880
 1.5660	29.7710
 1.5670	29.8530
 1.5680	29.9340
 1.5690	30.0130
 1.5700	30.0930
 1.5710	30.1730
 1.5720	30.2520
 1.5730	30.3320
 1.5740	30.4110
 1.5750	30.4870
 1.5760	30.5640
 1.5770	30.6390
 1.5780	30.7140
 1.5790	30.7900
 1.5800	30.8660
 1.5810	30.9420
 1.5820	31.0180
 1.5830	31.0930
 1.5840	31.1670
 1.5850	31.2410
 1.5860	31.3160
 1.5870	31.3900
 1.5880	31.4630
 1.5890	31.5360
 1.5900	31.6100
 1.5910	31.6830
 1.5920	31.7550
 1.5930	31.8260
 1.5940	31.8970
 1.5950	31.9690
 1.5960	32.0400
 1.5970	32.1120
 1.5980	32.1830
 1.5990	32.2530
 1.6000	32.3240
 1.6010	32.3930
 1.6020	32.4610
 1.6030	32.5290
 1.6040	32.5960
 1.6050	32.6630
 1.6060	32.7270
 1.6070	32.7920
 1.6080	32.8560
 1.6090	32.9190
 1.6100	32.9830
 1.6110	33.0450
 1.6120	33.1040
 1.6130	33.1630
 1.6140	33.2200
 1.6150	33.2750
 1.6160	33.3300
 1.6170	33.3830
 1.6180	33.4370
 1.6190	33.4910
 1.6200	33.5420
 1.6210	33.5930
 1.6220	33.6440
 1.6230	33.6940
 1.6240	33.7430
 1.6250	33.7900
 1.6260	33.8340
 1.6270	33.8790
 1.6280	33.9220
 1.6290	33.9650
 1.6300	34.0070
 1.6310	34.0490
 1.6320	34.0890
 1.6330	34.1290
 1.6340	34.1680
 1.6350	34.2070
 1.6360	34.2440
 1.6370	34.2800
 1.6380	34.3170
 1.6390	34.3510
 1.6400	34.3830
 1.6410	34.4130
 1.6420	34.4400
 1.6430	34.4670
 1.6440	34.4950
 1.6450	34.5200
 1.6460	34.5430
 1.6470	34.5640
 1.6480	34.5830
 1.6490	34.5990
 1.6500	34.6150
 1.6510	34.6280
 1.6520	34.6380
 1.6530	34.6460
 1.6540	34.6500
 1.6550	34.6520
 1.6560	34.6530
 1.6570	34.6530
 1.6580	34.6490
 1.6590	34.6420
 1.6600	34.6330
 1.6610	34.6190
 1.6620	34.6040
 1.6630	34.5890
 1.6640	34.5700
 1.6650	34.5500
 1.6660	34.5290
 1.6670	34.5050
 1.6680	34.4770
 1.6690	34.4500
 1.6700	34.4220
 1.6710	34.3920
 1.6720	34.3640
 1.6730	34.3330
 1.6740	34.3000
 1.6750	34.2670
 1.6760	34.2330
 1.6770	34.1990
 1.6780	34.1630
 1.6790	34.1260
 1.6800	34.0870
 1.6810	34.0450
 1.6820	34.0000
 1.6830	33.9530
 1.6840	33.9030
 1.6850	33.8500
 1.6860	33.7970
 1.6870	33.7410
 1.6880	33.6870
 1.6890	33.6350
 1.6900	33.5820
 1.6910	33.5280
 1.6920	33.4740
 1.6930	33.4180
 1.6940	33.3630
 1.6950	33.3090
 1.6960	33.2560
 1.6970	33.2040
 1.6980	33.1520
 1.6990	33.1000
 1.7000	33.0480
 1.7010	32.9950
 1.7020	32.9430
 1.7030	32.8930
 1.7040	32.8420
 1.7050	32.7910
 1.7060	32.7390
 1.7070	32.6850
 1.7080	32.6310
 1.7090	32.5770
 1.7100	32.5240
 1.7110	32.4710
 1.7120	32.4160
 1.7130	32.3610
 1.7140	32.3050
 1.7150	32.2470
 1.7160	32.1890
 1.7170	32.1330
 1.7180	32.0740
 1.7190	32.0180
 1.7200	31.9640
 1.7210	31.9100
 1.7220	31.8570
 1.7230	31.8050
 1.7240	31.7530
 1.7250	31.7040
 1.7260	31.6570
 1.7270	31.6160
 1.7280	31.5780
 1.7290	31.5410
 1.7300	31.5060
 1.7310	31.4730
 1.7320	31.4410
 1.7330	31.4090
 1.7340	31.3790
 1.7350	31.3460
 1.7360	31.3140
 1.7370	31.2780
 1.7380	31.2410
 1.7390	31.1990
 1.7400	31.1550
 1.7410	31.1080
 1.7420	31.0580
 1.7430	31.0060
 1.7440	30.9520
 1.7450	30.8940
 1.7460	30.8310
 1.7470	30.7700
 1.7480	30.7060
 1.7490	30.6450
 1.7500	30.5860
 1.7510	30.5240
 1.7520	30.4610
 1.7530	30.3980
 1.7540	30.3330
 1.7550	30.2740
 1.7560	30.2160
 1.7570	30.1580
 1.7580	30.1010
 1.7590	30.0440
 1.7600	29.9870
 1.7610	29.9350
 1.7620	29.8830
 1.7630	29.8310
 1.7640	29.7810
 1.7650	29.7330
 1.7660	29.6860
 1.7670	29.6410
 1.7680	29.5980
 1.7690	29.5570
 1.7700	29.5180
 1.7710	29.4820
 1.7720	29.4470
 1.7730	29.4130
 1.7740	29.3820
 1.7750	29.3540
 1.7760	29.3260
 1.7770	29.3000
 1.7780	29.2750
 1.7790	29.2520
 1.7800	29.2310
 1.7810	29.2110
 1.7820	29.1940
 1.7830	29.1790
 1.7840	29.1660
 1.7850	29.1580
 1.7860	29.1460
 1.7870	29.1340
 1.7880	29.1260
 1.7890	29.1190
 1.7900	29.1160
 1.7910	29.1140
 1.7920	29.1100
 1.7930	29.1090
 1.7940	29.1110
 1.7950	29.1150
 1.7960	29.1230
 1.7970	29.1300
 1.7980	29.1370
 1.7990	29.1450
 1.8000	29.1510
 1.8010	29.1600
 1.8020	29.1730
 1.8030	29.1830
 1.8040	29.1950
 1.8050	29.2050
 1.8060	29.2140
 1.8070	29.2240
 1.8080	29.2330
 1.8090	29.2430
 1.8100	29.2550
 1.8110	29.2630
 1.8120	29.2720
 1.8130	29.2790
 1.8140	29.2840
 1.8150	29.2910
 1.8160	29.2970
 1.8170	29.3000
 1.8180	29.3030
 1.8190	29.3060
 1.8200	29.3080
 1.8210	29.3110
 1.8220	29.3110
 1.8230	29.3080
 1.8240	29.3040
 1.8250	29.2980
 1.8260	29.2920
 1.8270	29.2870
 1.8280	29.2780
 1.8290	29.2670
 1.8300	29.2540
 1.8310	28.7440
 1.8320	28.7200
 1.8330	28.6920
 1.8340	28.6610
 1.8350	28.6260
 1.8360	28.5930
 1.8370	28.5540
 1.8380	28.5090
 1.8390	28.4590
 1.8400	28.4050
 1.8410	28.3430
 1.8420	28.2770
 1.8430	28.2070
 1.8440	28.1270
 1.8450	28.0420
 1.8460	27.9510
 1.8470	27.8480
 1.8480	27.7350
 1.8490	27.6110
 1.8500	27.4770
 1.8510	27.3340
 1.8520	27.1790
 1.8530	27.0120
 1.8540	26.8360
 1.8550	26.6400
 1.8560	26.4310
 1.8570	26.2080
 1.8580	25.9670
 1.8590	25.7140
 1.8600	25.4490
 1.8610	25.1670
 1.8620	24.8670
 1.8630	24.5550
 1.8640	24.2250
 1.8650	23.8740
 1.8660	23.5090
 1.8670	23.1200
 1.8680	22.7100
 1.8690	22.2820
 1.8700	21.8350
 1.8710	21.3680
 1.8720	20.8920
 1.8730	20.4030
 1.8740	19.9000
 1.8750	19.3930
 1.8760	18.8740
 1.8770	18.3540
 1.8780	17.8360
 1.8790	17.3120
 1.8800	16.7990
 1.8810	16.2920
 1.8820	15.7880
 1.8830	15.2850
 1.8840	14.7930
 1.8850	14.3050
 1.8860	13.8280
 1.8870	13.3690
 1.8880	12.9230
 1.8890	12.4970
 1.8900	12.0910
 1.8910	11.7070
 1.8920	11.3400
 1.8930	10.9990
 1.8940	10.6800
 1.8950	10.3830
 1.8960	10.1080
 1.8970	 9.8570
 1.8980	 9.6280
 1.8990	 9.4200
 1.9000	 9.2290
 1.9010	 9.0600
 1.9020	 8.9030
 1.9030	 8.7630
 1.9040	 8.6380
 1.9050	 8.5270
 1.9060	 8.4280
 1.9070	 8.3440
 1.9080	 8.2690
 1.9090	 8.2030
 1.9100	 8.1450
 1.9110	 8.0930
 1.9120	 8.0500
 1.9130	 8.0090
 1.9140	 7.9750
 1.9150	 7.9450
 1.9160	 7.9190
 1.9170	 7.8970
 1.9180	 7.8770
 1.9190	 7.8610
 1.9200	 7.8490
 1.9210	 7.8370
 1.9220	 7.8280
 1.9230	 7.8230
 1.9240	 7.8190
 1.9250	 7.8170
 1.9260	 7.8170
 1.9270	 7.8200
 1.9280	 7.8240
 1.9290	 7.8290
 1.9300	 7.8360
 1.9310	 7.8430
 1.9320	 7.8520
 1.9330	 7.8610
 1.9340	 7.8720
 1.9350	 7.8840
 1.9360	 7.8960
 1.9370	 7.9110
 1.9380	 7.9300
 1.9390	 7.9500
 1.9400	 7.9710
 1.9410	 7.9920
 1.9420	 8.0120
 1.9430	 8.0330
 1.9440	 8.0560
 1.9450	 8.0810
 1.9460	 8.1070
 1.9470	 8.1330
 1.9480	 8.1610
 1.9490	 8.1910
 1.9500	 8.2220
 1.9510	 8.2540
 1.9520	 8.2880
 1.9530	 8.3220
 1.9540	 8.3570
 1.9550	 8.3940
 1.9560	 8.4330
 1.9570	 8.4700
 1.9580	 8.5060
 1.9590	 8.5440
 1.9600	 8.5800
 1.9610	 8.6190
 1.9620	 8.6610
 1.9630	 8.7030
 1.9640	 8.7470
 1.9650	 8.7930
 1.9660	 8.8390
 1.9670	 8.8840
 1.9680	 8.9300
 1.9690	 8.9760
 1.9700	 9.0240
 1.9710	 9.0720
 1.9720	 9.1230
 1.9730	 9.1780
 1.9740	 9.2320
 1.9750	 9.2880
 1.9760	 9.3470
 1.9770	 9.4020
 1.9780	 9.4580
 1.9790	 9.5150
 1.9800	 9.5720
 1.9810	 9.6280
 1.9820	 9.6860
 1.9830	 9.7450
 1.9840	 9.8030
 1.9850	 9.8640
 1.9860	 9.9260
 1.9870	 9.9900
 1.9880	10.0550
 1.9890	10.1190
 1.9900	10.1830
 1.9910	10.2460
 1.9920	10.3090
 1.9930	10.3710
 1.9940	10.4360
 1.9950	10.5020
 1.9960	10.5690
 1.9970	10.6370
 1.9980	10.7050
 1.9990	10.7720
 2.0000	10.8380
 2.0010	10.9040
 2.0020	10.9710
 2.0030	11.0360
 2.0040	11.1030
 2.0050	11.1690
 2.0060	11.2350
 2.0070	11.3010
 2.0080	11.3660
 2.0090	11.4310
 2.0100	11.4980
 2.0110	11.5630
 2.0120	11.6280
 2.0130	11.6930
 2.0140	11.7590
 2.0150	11.8230
 2.0160	11.8870
 2.0170	11.9510
 2.0180	12.0140
 2.0190	12.0750
 2.0200	12.1370
 2.0210	12.2000
 2.0220	12.2600
 2.0230	12.3170
 2.0240	12.3750
 2.0250	12.4330
 2.0260	12.4880
 2.0270	12.5440
 2.0280	12.5990
 2.0290	12.6490
 2.0300	12.6980
 2.0310	12.7470
 2.0320	12.7950
 2.0330	12.8440
 2.0340	12.8920
 2.0350	12.9390
 2.0360	12.9870
 2.0370	13.0320
 2.0380	13.0760
 2.0390	13.1190
 2.0400	13.1610
 2.0410	13.2040
 2.0420	13.2460
 2.0430	13.2890
 2.0440	13.3300
 2.0450	13.3690
 2.0460	13.4100
 2.0470	13.4500
 2.0480	13.4890
 2.0490	13.5290
 2.0500	13.5680
 2.0510	13.6050
 2.0520	13.6410
 2.0530	13.6770
 2.0540	13.7140
 2.0550	13.7500
 2.0560	13.7880
 2.0570	13.8230
 2.0580	13.8610
 2.0590	13.9010
 2.0600	13.9410
 2.0610	13.9800
 2.0620	14.0210
 2.0630	14.0600
 2.0640	14.0970
 2.0650	14.1370
 2.0660	14.1800
 2.0670	14.2200
 2.0680	14.2600
 2.0690	14.3000
 2.0700	14.3390
 2.0710	14.3780
 2.0720	14.4170
 2.0730	14.4560
 2.0740	14.4950
 2.0750	14.5330
 2.0760	14.5720
 2.0770	14.6110
 2.0780	14.6500
 2.0790	14.6880
 2.0800	14.7290
 2.0810	14.7700
 2.0820	14.8110
 2.0830	14.8540
 2.0840	14.8950
 2.0850	14.9350
 2.0860	14.9750
 2.0870	15.0120
 2.0880	15.0520
 2.0890	15.0900
 2.0900	15.1260
 2.0910	15.1660
 2.0920	15.2060
 2.0930	15.2460
 2.0940	15.2890
 2.0950	15.3300
 2.0960	15.3710
 2.0970	15.4100
 2.0980	15.4470
 2.0990	15.4850
 2.1000	15.5230
 2.1010	15.5630
 2.1020	15.6050
 2.1030	15.6470
 2.1040	15.6900
 2.1050	15.7310
 2.1060	15.7730
 2.1070	15.8140
 2.1080	15.8550
 2.1090	15.8960
 2.1100	15.9370
 2.1110	15.9790
 2.1120	16.0200
 2.1130	16.0600
 2.1140	16.1020
 2.1150	16.1450
 2.1160	16.1870
 2.1170	16.2310
 2.1180	16.2740
 2.1190	16.3150
 2.1200	16.3560
 2.1210	16.3950
 2.1220	16.4350
 2.1230	16.4750
 2.1240	16.5140
 2.1250	16.5540
 2.1260	16.5950
 2.1270	16.6340
 2.1280	16.6730
 2.1290	16.7120
 2.1300	16.7490
 2.1310	16.7860
 2.1320	16.8220
 2.1330	16.8580
 2.1340	16.8950
 2.1350	16.9300
 2.1360	16.9640
 2.1370	16.9970
 2.1380	17.0260
 2.1390	17.0550
 2.1400	17.0840
 2.1410	17.1110
 2.1420	17.1400
 2.1430	17.1700
 2.1440	17.2000
 2.1450	17.2330
 2.1460	17.2620
 2.1470	17.2910
 2.1480	17.3200
 2.1490	17.3480
 2.1500	17.3760
 2.1510	17.4050
 2.1520	17.4330
 2.1530	17.4610
 2.1540	17.4890
 2.1550	17.5170
 2.1560	17.5450
 2.1570	17.5740
 2.1580	17.6000
 2.1590	17.6260
 2.1600	17.6500
 2.1610	17.6740
 2.1620	17.6980
 2.1630	17.7230
 2.1640	17.7480
 2.1650	17.7750
 2.1660	17.8020
 2.1670	17.8280
 2.1680	17.8560
 2.1690	17.8830
 2.1700	17.9100
 2.1710	17.9350
 2.1720	17.9570
 2.1730	17.9820
 2.1740	18.0050
 2.1750	18.0280
 2.1760	18.0530
 2.1770	18.0780
 2.1780	18.1000
 2.1790	18.1250
 2.1800	18.1520
 2.1810	18.1770
 2.1820	18.2010
 2.1830	18.2290
 2.1840	18.2540
 2.1850	18.2790
 2.1860	18.3060
 2.1870	18.3350
 2.1880	18.3610
 2.1890	18.3880
 2.1900	18.4130
 2.1910	18.4370
 2.1920	18.4600
 2.1930	18.4840
 2.1940	18.5070
 2.1950	18.5300
 2.1960	18.5530
 2.1970	18.5780
 2.1980	18.5990
 2.1990	18.6190
 2.2000	18.6390
 2.2010	18.6580
 2.2020	18.6760
 2.2030	18.6950
 2.2040	18.7110
 2.2050	18.7230
 2.2060	18.7370
 2.2070	18.7500
 2.2080	18.7610
 2.2090	18.7710
 2.2100	18.7810
 2.2110	18.7890
 2.2120	18.7940
 2.2130	18.7990
 2.2140	18.8060
 2.2150	18.8070
 2.2160	18.8040
 2.2170	18.8010
 2.2180	18.7940
 2.2190	18.7870
 2.2200	18.7810
 2.2210	18.7720
 2.2220	18.7590
 2.2230	18.7450
 2.2240	18.7290
 2.2250	18.7090
 2.2260	18.6880
 2.2270	18.6640
 2.2280	18.6360
 2.2290	18.6050
 2.2300	18.5700
 2.2310	18.5320
 2.2320	18.4890
 2.2330	18.4420
 2.2340	18.3920
 2.2350	18.3390
 2.2360	18.2820
 2.2370	18.2220
 2.2380	18.1590
 2.2390	18.0920
 2.2400	18.0270
 2.2410	17.9640
 2.2420	17.8970
 2.2430	17.8300
 2.2440	17.7580
 2.2450	17.6810
 2.2460	17.6070
 2.2470	17.5300
 2.2480	17.4530
 2.2490	17.3770
 2.2500	17.3020
 2.2510	17.2250
 2.2520	17.1500
 2.2530	17.0760
 2.2540	17.0020
 2.2550	16.9280
 2.2560	16.8560
 2.2570	16.7840
 2.2580	16.7140
 2.2590	16.6510
 2.2600	16.5830
 2.2610	16.5120
 2.2620	16.4430
 2.2630	16.3760
 2.2640	16.3090
 2.2650	16.2480
 2.2660	16.1910
 2.2670	16.1330
 2.2680	16.0740
 2.2690	16.0190
 2.2700	15.9670
 2.2710	15.9160
 2.2720	15.8680
 2.2730	15.8190
 2.2740	15.7700
 2.2750	15.7230
 2.2760	15.6770
 2.2770	15.6340
 2.2780	15.5950
 2.2790	15.5560
 2.2800	15.5210
 2.2810	15.4830
 2.2820	15.4450
 2.2830	15.4090
 2.2840	15.3740
 2.2850	15.3370
 2.2860	15.3000
 2.2870	15.2630
 2.2880	15.2220
 2.2890	15.1830
 2.2900	15.1440
 2.2910	15.1050
 2.2920	15.0680
 2.2930	15.0280
 2.2940	14.9860
 2.2950	14.9430
 2.2960	14.8980
 2.2970	14.8520
 2.2980	14.8050
 2.2990	14.7590
 2.3000	14.7110
 2.3010	14.6640
 2.3020	14.6170
 2.3030	14.5740
 2.3040	14.5330
 2.3050	14.4930
 2.3060	14.4580
 2.3070	14.4210
 2.3080	14.3850
 2.3090	14.3540
 2.3100	14.3230
 2.3110	14.2950
 2.3120	14.2670
 2.3130	14.2420
 2.3140	14.2170
 2.3150	14.1920
 2.3160	14.1690
 2.3170	14.1500
 2.3180	14.1280
 2.3190	14.1060
 2.3200	14.0830
 2.3210	14.0590
 2.3220	14.0350
 2.3230	14.0120
 2.3240	13.9860
 2.3250	13.9560
 2.3260	13.9280
 2.3270	13.9000
 2.3280	13.8730
 2.3290	13.8490
 2.3300	13.8210
 2.3310	13.7930
 2.3320	13.7600
 2.3330	13.7230
 2.3340	13.6870
 2.3350	13.6460
 2.3360	13.6090
 2.3370	13.5740
 2.3380	13.5400
 2.3390	13.5080
 2.3400	13.4740
 2.3410	13.4420
 2.3420	13.4070
 2.3430	13.3680
 2.3440	13.3340
 2.3450	13.3020
 2.3460	13.2720
 2.3470	13.2470
 2.3480	13.2200
 2.3490	13.1900
 2.3500	13.1600
 2.3510	13.1290
 2.3520	13.1000
 2.3530	13.0700
 2.3540	13.0460
 2.3550	13.0240
 2.3560	13.0010
 2.3570	12.9750
 2.3580	12.9500
 2.3590	12.9190
 2.3600	12.8890
 2.3610	12.8640
 2.3620	12.8350
 2.3630	12.8090
 2.3640	12.7880
 2.3650	12.7620
 2.3660	12.7340
 2.3670	12.7030
 2.3680	12.6690
 2.3690	12.6370
 2.3700	12.6080
 2.3710	12.5820
 2.3720	12.5540
 2.3730	12.5250
 2.3740	12.5000
 2.3750	12.4710
 2.3760	12.4400
 2.3770	12.4090
 2.3780	12.3760
 2.3790	12.3420
 2.3800	12.3070
 2.3810	12.2710
 2.3820	12.2320
 2.3830	12.2030
 2.3840	12.1790
 2.3850	12.1520
 2.3860	12.1300
 2.3870	12.0960
 2.3880	12.0510
 2.3890	12.0120
 2.3900	11.9700
 2.3910	11.9280
 2.3920	11.8950
 2.3930	11.8520
 2.3940	11.8060
 2.3950	11.7720
 2.3960	11.7320
 2.3970	11.7050
 2.3980	11.6820
 2.3990	11.6570
 2.4000	11.6300
 2.4010	11.5950
 2.4020	11.5580
 2.4030	11.5110
 2.4040	11.4690
 2.4050	11.4290
 2.4060	11.3830
 2.4070	11.3510
 2.4080	11.3150
 2.4090	11.2740
 2.4100	11.2380
 2.4110	11.1940
 2.4120	11.1420
 2.4130	11.1010
 2.4140	11.0610
 2.4150	11.0130
 2.4160	10.9710
 2.4170	10.9370
 2.4180	10.8960
 2.4190	10.8610
 2.4200	10.8360
 2.4210	10.8080
 2.4220	10.7680
 2.4230	10.7350
 2.4240	10.6930
 2.4250	10.6370
 2.4260	10.5960
 2.4270	10.5520
 2.4280	10.5030
 2.4290	10.4610
 2.4300	10.4190
 2.4310	10.3820
 2.4320	10.3550
 2.4330	10.3280
 2.4340	10.2900
 2.4350	10.2530
 2.4360	10.2190
 2.4370	10.1900
 2.4380	10.1590
 2.4390	10.1160
 2.4400	10.0770
 2.4410	10.0180
 2.4420	 9.9700
 2.4430	 9.9430
 2.4440	 9.8930
 2.4450	 9.8590
 2.4460	 9.8370
 2.4470	 9.7970
 2.4480	 9.7650
 2.4490	 9.7370
 2.4500	 9.6990
 2.4510	 9.6610
 2.4520	 9.6260
 2.4530	 9.5860
 2.4540	 9.5480
 2.4550	 9.5140
 2.4560	 9.4760
 2.4570	 9.4500
 2.4580	 9.4310
 2.4590	 9.4010
 2.4600	 9.3790
 2.4610	 9.3490
 2.4620	 9.3040
 2.4630	 9.2690
 2.4640	 9.2390
 2.4650	 9.2070
 2.4660	 9.1830
 2.4670	 9.1590
 2.4680	 9.1270
 2.4690	 9.0670
 2.4700	 9.0380
 2.4710	 9.0180
 2.4720	 9.0000
 2.4730	 9.0170
 2.4740	 9.0070
 2.4750	 8.9670
 2.4760	 8.9430
 2.4770	 8.9240
 2.4780	 8.9080
 2.4790	 8.8970
 2.4800	 8.8930
 2.4810	 8.8970
 2.4820	 8.8970
 2.4830	 8.8880
 2.4840	 8.8750
 2.4850	 8.8650
 2.4860	 8.8480
 2.4870	 8.8290
 2.4880	 8.8000
 2.4890	 8.7570
 2.4900	 8.7250
 2.4910	 8.7130
 2.4920	 8.7120
 2.4930	 8.7370
 2.4940	 8.7490
 2.4950	 8.7250
 2.4960	 8.6970
 2.4970	 8.6500
 2.4980	 8.5990
 2.4990	 8.6030
 2.5000	 8.6050
