Name: Eucalyptus saligna
Type: vegetation
Class: Tree
Genus: Eucalyptus
Species: saligna
Sample No.: JPL224
Owner: JPL
Wavelength Range: TIR
Origin: 34.12476; -118.11474; WGS84
Collection Date: 10/3/2016
Description: Samples were collected at the Huntington Garden in San Marino California as part of a JPL Subcontract studying HyTES imagery. Samples were taken to JPL and processed within 48 hours of collection. The same leaves were processed in the Nicolet and then measured using the ASD.
Measurement: Hemispherical reflectance
First Column: X
Second Column: Y
X Units: Wavelength (micrometer)
Y Units: Reflectance (percentage)
First X Value: 2.501
Last X Value: 15.387
Number of X Values: 1737
Additional Information: vegetation.tree.eucalyptus.saligna.tir.jpl224.jpl.nicolet.ancillary.txt

 2.5010	 3.7630
 2.5030	 3.6790
 2.5040	 3.6240
 2.5050	 3.5960
 2.5060	 3.6250
 2.5070	 3.5830
 2.5090	 3.6460
 2.5100	 3.7020
 2.5110	 3.7150
 2.5120	 3.6890
 2.5140	 3.6470
 2.5150	 3.6100
 2.5160	 3.6480
 2.5170	 3.6250
 2.5180	 3.6490
 2.5200	 3.5970
 2.5210	 3.5860
 2.5220	 3.5830
 2.5230	 3.5790
 2.5250	 3.5680
 2.5260	 3.5470
 2.5270	 3.4880
 2.5280	 3.5090
 2.5300	 3.5340
 2.5310	 3.6460
 2.5320	 3.6390
 2.5330	 3.5560
 2.5340	 3.5260
 2.5360	 3.5910
 2.5370	 3.5710
 2.5380	 3.5580
 2.5390	 3.5310
 2.5410	 3.5360
 2.5420	 3.5120
 2.5430	 3.5260
 2.5440	 3.5530
 2.5460	 3.6030
 2.5470	 3.6340
 2.5480	 3.6720
 2.5490	 3.5820
 2.5510	 3.5770
 2.5520	 3.6080
 2.5530	 3.6430
 2.5540	 3.6400
 2.5560	 3.6820
 2.5570	 3.6310
 2.5580	 3.5750
 2.5590	 3.5300
 2.5610	 3.5910
 2.5620	 3.6730
 2.5630	 3.7070
 2.5650	 3.6420
 2.5660	 3.6480
 2.5670	 3.6470
 2.5680	 3.6770
 2.5700	 3.6390
 2.5710	 3.6690
 2.5720	 3.6460
 2.5730	 3.6360
 2.5750	 3.5630
 2.5760	 3.5600
 2.5770	 3.5750
 2.5790	 3.6030
 2.5800	 3.5930
 2.5810	 3.6310
 2.5820	 3.5880
 2.5840	 3.6230
 2.5850	 3.6370
 2.5860	 3.6110
 2.5880	 3.5700
 2.5890	 3.5710
 2.5900	 3.5210
 2.5910	 3.6090
 2.5930	 3.5790
 2.5940	 3.5590
 2.5950	 3.5100
 2.5970	 3.4610
 2.5980	 3.4120
 2.5990	 3.4530
 2.6010	 3.4990
 2.6020	 3.5450
 2.6030	 3.5040
 2.6040	 3.5030
 2.6060	 3.4740
 2.6070	 3.4200
 2.6080	 3.4060
 2.6100	 3.4880
 2.6110	 3.4820
 2.6120	 3.4560
 2.6140	 3.3990
 2.6150	 3.3890
 2.6160	 3.3430
 2.6180	 3.4020
 2.6190	 3.3700
 2.6200	 3.3400
 2.6220	 3.3190
 2.6230	 3.3450
 2.6240	 3.2470
 2.6260	 3.2300
 2.6270	 3.2260
 2.6280	 3.2200
 2.6300	 3.1850
 2.6310	 3.2130
 2.6320	 3.2330
 2.6340	 3.2900
 2.6350	 3.2540
 2.6360	 3.2210
 2.6380	 3.1320
 2.6390	 3.1610
 2.6400	 3.1590
 2.6420	 3.1550
 2.6430	 3.1100
 2.6440	 3.1060
 2.6460	 3.0580
 2.6470	 3.0590
 2.6480	 3.0530
 2.6500	 3.0460
 2.6510	 3.0180
 2.6520	 3.0400
 2.6540	 3.0560
 2.6550	 3.0660
 2.6570	 3.0470
 2.6580	 3.0560
 2.6590	 3.0410
 2.6610	 3.0570
 2.6620	 2.9640
 2.6630	 2.9720
 2.6650	 3.0160
 2.6660	 3.0070
 2.6670	 2.9120
 2.6690	 2.9530
 2.6700	 2.9450
 2.6720	 2.8850
 2.6730	 2.8770
 2.6740	 2.9200
 2.6760	 2.8970
 2.6770	 2.8710
 2.6780	 2.8060
 2.6800	 2.8050
 2.6810	 2.8260
 2.6830	 2.8510
 2.6840	 2.7880
 2.6850	 2.8010
 2.6870	 2.7870
 2.6880	 2.7910
 2.6900	 2.7520
 2.6910	 2.7610
 2.6920	 2.7220
 2.6940	 2.7080
 2.6950	 2.6830
 2.6970	 2.7460
 2.6980	 2.7310
 2.6990	 2.6690
 2.7010	 2.6020
 2.7020	 2.6230
 2.7040	 2.6340
 2.7050	 2.6510
 2.7060	 2.6000
 2.7080	 2.6220
 2.7090	 2.6100
 2.7110	 2.5940
 2.7120	 2.5400
 2.7130	 2.5770
 2.7150	 2.5710
 2.7160	 2.5490
 2.7180	 2.5250
 2.7190	 2.5380
 2.7210	 2.4650
 2.7220	 2.4710
 2.7230	 2.4980
 2.7250	 2.5160
 2.7260	 2.5430
 2.7280	 2.6160
 2.7290	 2.4870
 2.7310	 2.4520
 2.7320	 2.4580
 2.7340	 2.5020
 2.7350	 2.4660
 2.7360	 2.4540
 2.7380	 2.4030
 2.7390	 2.3630
 2.7410	 2.3590
 2.7420	 2.4170
 2.7440	 2.4160
 2.7450	 2.4020
 2.7470	 2.3810
 2.7480	 2.4350
 2.7490	 2.4210
 2.7510	 2.4060
 2.7520	 2.3430
 2.7540	 2.3900
 2.7550	 2.3650
 2.7570	 2.3170
 2.7580	 2.3130
 2.7600	 2.3770
 2.7610	 2.3230
 2.7630	 2.3460
 2.7640	 2.2960
 2.7660	 2.2790
 2.7670	 2.3200
 2.7690	 2.3400
 2.7700	 2.3460
 2.7720	 2.3990
 2.7730	 2.3320
 2.7740	 2.3680
 2.7760	 2.3660
 2.7770	 2.3110
 2.7790	 2.2490
 2.7800	 2.2910
 2.7820	 2.2630
 2.7830	 2.3230
 2.7850	 2.2750
 2.7860	 2.2720
 2.7880	 2.2700
 2.7890	 2.2740
 2.7910	 2.2210
 2.7920	 2.2540
 2.7940	 2.2560
 2.7950	 2.2560
 2.7970	 2.2110
 2.7980	 2.2480
 2.8000	 2.1910
 2.8010	 2.2110
 2.8030	 2.2080
 2.8040	 2.2610
 2.8060	 2.2590
 2.8080	 2.2240
 2.8090	 2.1650
 2.8110	 2.1770
 2.8120	 2.2330
 2.8140	 2.3190
 2.8150	 2.2430
 2.8170	 2.2850
 2.8180	 2.3010
 2.8200	 2.2670
 2.8210	 2.2240
 2.8230	 2.2490
 2.8240	 2.2290
 2.8260	 2.3250
 2.8270	 2.2340
 2.8290	 2.2050
 2.8310	 2.2090
 2.8320	 2.1950
 2.8340	 2.1740
 2.8350	 2.2050
 2.8370	 2.1900
 2.8380	 2.2300
 2.8400	 2.2460
 2.8410	 2.2370
 2.8430	 2.2210
 2.8440	 2.2580
 2.8460	 2.2540
 2.8480	 2.2540
 2.8490	 2.2040
 2.8510	 2.2620
 2.8520	 2.2150
 2.8540	 2.2030
 2.8550	 2.2250
 2.8570	 2.3030
 2.8590	 2.2280
 2.8600	 2.1640
 2.8620	 2.1530
 2.8630	 2.1860
 2.8650	 2.1080
 2.8660	 2.1670
 2.8680	 2.2080
 2.8700	 2.2260
 2.8710	 2.2010
 2.8730	 2.2500
 2.8740	 2.2420
 2.8760	 2.2220
 2.8780	 2.1860
 2.8790	 2.2120
 2.8810	 2.2260
 2.8820	 2.2020
 2.8840	 2.1550
 2.8860	 2.2130
 2.8870	 2.1930
 2.8890	 2.2230
 2.8900	 2.1930
 2.8920	 2.2430
 2.8940	 2.2510
 2.8950	 2.2750
 2.8970	 2.2280
 2.8990	 2.2300
 2.9000	 2.2030
 2.9020	 2.1920
 2.9030	 2.2240
 2.9050	 2.3240
 2.9070	 2.2810
 2.9080	 2.2920
 2.9100	 2.2890
 2.9120	 2.2840
 2.9130	 2.2290
 2.9150	 2.2820
 2.9160	 2.3520
 2.9180	 2.3220
 2.9200	 2.2010
 2.9210	 2.2740
 2.9230	 2.2630
 2.9250	 2.2890
 2.9260	 2.2620
 2.9280	 2.2810
 2.9300	 2.2410
 2.9310	 2.2700
 2.9330	 2.2950
 2.9350	 2.2910
 2.9360	 2.2650
 2.9380	 2.3040
 2.9400	 2.3250
 2.9410	 2.3630
 2.9430	 2.2550
 2.9450	 2.2180
 2.9460	 2.1880
 2.9480	 2.2230
 2.9500	 2.2180
 2.9510	 2.2100
 2.9530	 2.1770
 2.9550	 2.2570
 2.9560	 2.2980
 2.9580	 2.3240
 2.9600	 2.2990
 2.9610	 2.3160
 2.9630	 2.2840
 2.9650	 2.3140
 2.9670	 2.2430
 2.9680	 2.2700
 2.9700	 2.3160
 2.9720	 2.2870
 2.9730	 2.2210
 2.9750	 2.2340
 2.9770	 2.2330
 2.9780	 2.2700
 2.9800	 2.2150
 2.9820	 2.2470
 2.9840	 2.2520
 2.9850	 2.2520
 2.9870	 2.1960
 2.9890	 2.2390
 2.9900	 2.2810
 2.9920	 2.3150
 2.9940	 2.3230
 2.9960	 2.3140
 2.9970	 2.2490
 2.9990	 2.2950
 3.0010	 2.3200
 3.0030	 2.2930
 3.0040	 2.2130
 3.0060	 2.2510
 3.0080	 2.2120
 3.0100	 2.2120
 3.0110	 2.2110
 3.0130	 2.2340
 3.0150	 2.2040
 3.0170	 2.2650
 3.0180	 2.2730
 3.0200	 2.3080
 3.0220	 2.3270
 3.0240	 2.3810
 3.0250	 2.3320
 3.0270	 2.2830
 3.0290	 2.2430
 3.0310	 2.2690
 3.0320	 2.2390
 3.0340	 2.2810
 3.0360	 2.2710
 3.0380	 2.3390
 3.0400	 2.3260
 3.0410	 2.3220
 3.0430	 2.2920
 3.0450	 2.3530
 3.0470	 2.3630
 3.0480	 2.3740
 3.0500	 2.2900
 3.0520	 2.2520
 3.0540	 2.1840
 3.0560	 2.2110
 3.0570	 2.2510
 3.0590	 2.2510
 3.0610	 2.2120
 3.0630	 2.2520
 3.0650	 2.2420
 3.0670	 2.3210
 3.0680	 2.3290
 3.0700	 2.3170
 3.0720	 2.2920
 3.0740	 2.3070
 3.0760	 2.2750
 3.0770	 2.2750
 3.0790	 2.2620
 3.0810	 2.2780
 3.0830	 2.2870
 3.0850	 2.3310
 3.0870	 2.2700
 3.0880	 2.3070
 3.0900	 2.3520
 3.0920	 2.3490
 3.0940	 2.3000
 3.0960	 2.2900
 3.0980	 2.2200
 3.1000	 2.2390
 3.1010	 2.2850
 3.1030	 2.3280
 3.1050	 2.2610
 3.1070	 2.2460
 3.1090	 2.2810
 3.1110	 2.3790
 3.1130	 2.3480
 3.1140	 2.2770
 3.1160	 2.2100
 3.1180	 2.2350
 3.1200	 2.2350
 3.1220	 2.2280
 3.1240	 2.2370
 3.1260	 2.3230
 3.1280	 2.3260
 3.1290	 2.3240
 3.1310	 2.3310
 3.1330	 2.3490
 3.1350	 2.3140
 3.1370	 2.2750
 3.1390	 2.2520
 3.1410	 2.3210
 3.1430	 2.2970
 3.1450	 2.3000
 3.1470	 2.2820
 3.1480	 2.3030
 3.1500	 2.2250
 3.1520	 2.2040
 3.1540	 2.2310
 3.1560	 2.2640
 3.1580	 2.2380
 3.1600	 2.2450
 3.1620	 2.2400
 3.1640	 2.2630
 3.1660	 2.2730
 3.1680	 2.3570
 3.1700	 2.3070
 3.1720	 2.2740
 3.1730	 2.2510
 3.1750	 2.2790
 3.1770	 2.2390
 3.1790	 2.2520
 3.1810	 2.2790
 3.1830	 2.3130
 3.1850	 2.2650
 3.1870	 2.2720
 3.1890	 2.2540
 3.1910	 2.2420
 3.1930	 2.2380
 3.1950	 2.2960
 3.1970	 2.3080
 3.1990	 2.3130
 3.2010	 2.2790
 3.2030	 2.2370
 3.2050	 2.2290
 3.2070	 2.3180
 3.2090	 2.3360
 3.2110	 2.3200
 3.2130	 2.2530
 3.2150	 2.2220
 3.2170	 2.2050
 3.2190	 2.2770
 3.2210	 2.2450
 3.2230	 2.2020
 3.2250	 2.1600
 3.2270	 2.1790
 3.2290	 2.2330
 3.2310	 2.2630
 3.2330	 2.2680
 3.2350	 2.3020
 3.2370	 2.2690
 3.2390	 2.2470
 3.2410	 2.2310
 3.2430	 2.2330
 3.2450	 2.1660
 3.2470	 2.1740
 3.2490	 2.2020
 3.2510	 2.2460
 3.2530	 2.2160
 3.2550	 2.2260
 3.2570	 2.2210
 3.2590	 2.2240
 3.2610	 2.1820
 3.2630	 2.2220
 3.2650	 2.2500
 3.2670	 2.2180
 3.2700	 2.1980
 3.2720	 2.2040
 3.2740	 2.2120
 3.2760	 2.2590
 3.2780	 2.2440
 3.2800	 2.2520
 3.2820	 2.2000
 3.2840	 2.1940
 3.2860	 2.1470
 3.2880	 2.1340
 3.2900	 2.1590
 3.2920	 2.2260
 3.2940	 2.2100
 3.2970	 2.1910
 3.2990	 2.1550
 3.3010	 2.1740
 3.3030	 2.1940
 3.3050	 2.2460
 3.3070	 2.1760
 3.3090	 2.1420
 3.3110	 2.1380
 3.3130	 2.1760
 3.3160	 2.1750
 3.3180	 2.1660
 3.3200	 2.1350
 3.3220	 2.1250
 3.3240	 2.1240
 3.3260	 2.1400
 3.3280	 2.0900
 3.3300	 2.0880
 3.3330	 2.1360
 3.3350	 2.1900
 3.3370	 2.1420
 3.3390	 2.1100
 3.3410	 2.0700
 3.3430	 2.0820
 3.3450	 2.0530
 3.3480	 2.0500
 3.3500	 2.0230
 3.3520	 2.0330
 3.3540	 2.0020
 3.3560	 2.0020
 3.3580	 1.9990
 3.3610	 2.0230
 3.3630	 1.9830
 3.3650	 1.9600
 3.3670	 1.9320
 3.3690	 1.9550
 3.3720	 1.9640
 3.3740	 1.9570
 3.3760	 1.8780
 3.3780	 1.9160
 3.3800	 1.9590
 3.3830	 1.9420
 3.3850	 1.9440
 3.3870	 1.9800
 3.3890	 1.8910
 3.3910	 1.8580
 3.3940	 1.8160
 3.3960	 1.8100
 3.3980	 1.7750
 3.4000	 1.8090
 3.4030	 1.8230
 3.4050	 1.8170
 3.4070	 1.8380
 3.4090	 1.8640
 3.4110	 1.8160
 3.4140	 1.8960
 3.4160	 2.0540
 3.4180	 2.2780
 3.4200	 2.5390
 3.4230	 2.9410
 3.4250	 3.4310
 3.4270	 4.0120
 3.4300	 4.3790
 3.4320	 4.2830
 3.4340	 3.9490
 3.4360	 3.7140
 3.4390	 3.4700
 3.4410	 3.2930
 3.4430	 3.1560
 3.4450	 3.1120
 3.4480	 3.0670
 3.4500	 3.0440
 3.4520	 2.9600
 3.4550	 2.9290
 3.4570	 2.9240
 3.4590	 2.9420
 3.4620	 2.9100
 3.4640	 2.8660
 3.4660	 2.8240
 3.4690	 2.8280
 3.4710	 2.7730
 3.4730	 2.7070
 3.4760	 2.6800
 3.4780	 2.6960
 3.4800	 2.6460
 3.4830	 2.5750
 3.4850	 2.4720
 3.4870	 2.4770
 3.4900	 2.4730
 3.4920	 2.4210
 3.4940	 2.3670
 3.4970	 2.4080
 3.4990	 2.3870
 3.5010	 2.3510
 3.5040	 2.3750
 3.5060	 2.7230
 3.5080	 3.4000
 3.5110	 4.0720
 3.5130	 4.1550
 3.5160	 3.8400
 3.5180	 3.5440
 3.5200	 3.3770
 3.5230	 3.2450
 3.5250	 3.1880
 3.5280	 3.1150
 3.5300	 3.0810
 3.5320	 3.0680
 3.5350	 3.0540
 3.5370	 2.9700
 3.5400	 2.9290
 3.5420	 2.8870
 3.5440	 2.8710
 3.5470	 2.8400
 3.5490	 2.8550
 3.5520	 2.8570
 3.5540	 2.8320
 3.5570	 2.8070
 3.5590	 2.8440
 3.5610	 2.8730
 3.5640	 2.8920
 3.5660	 2.8570
 3.5690	 2.8220
 3.5710	 2.7900
 3.5740	 2.8040
 3.5760	 2.8040
 3.5790	 2.7680
 3.5810	 2.7190
 3.5840	 2.7550
 3.5860	 2.8030
 3.5890	 2.8090
 3.5910	 2.7800
 3.5940	 2.8120
 3.5960	 2.7810
 3.5990	 2.7530
 3.6010	 2.7090
 3.6040	 2.7230
 3.6060	 2.6900
 3.6090	 2.6540
 3.6110	 2.6720
 3.6140	 2.6850
 3.6160	 2.6490
 3.6190	 2.6900
 3.6210	 2.7030
 3.6240	 2.7120
 3.6260	 2.7080
 3.6290	 2.7010
 3.6310	 2.6750
 3.6340	 2.6770
 3.6360	 2.6750
 3.6390	 2.6860
 3.6410	 2.6850
 3.6440	 2.7000
 3.6470	 2.6570
 3.6490	 2.6500
 3.6520	 2.6720
 3.6540	 2.6900
 3.6570	 2.7020
 3.6590	 2.7150
 3.6620	 2.6800
 3.6650	 2.6760
 3.6670	 2.6700
 3.6700	 2.6810
 3.6720	 2.6720
 3.6750	 2.6470
 3.6780	 2.6060
 3.6800	 2.6410
 3.6830	 2.6560
 3.6850	 2.6800
 3.6880	 2.6530
 3.6910	 2.6310
 3.6930	 2.6170
 3.6960	 2.6280
 3.6990	 2.6110
 3.7010	 2.6150
 3.7040	 2.6170
 3.7070	 2.6440
 3.7090	 2.6770
 3.7120	 2.6590
 3.7150	 2.6380
 3.7170	 2.6360
 3.7200	 2.6070
 3.7230	 2.6430
 3.7250	 2.6450
 3.7280	 2.6340
 3.7310	 2.6250
 3.7330	 2.6440
 3.7360	 2.6540
 3.7390	 2.6550
 3.7410	 2.6390
 3.7440	 2.6420
 3.7470	 2.6240
 3.7490	 2.6190
 3.7520	 2.6330
 3.7550	 2.6500
 3.7580	 2.6400
 3.7600	 2.6650
 3.7630	 2.6580
 3.7660	 2.6390
 3.7690	 2.5880
 3.7710	 2.5940
 3.7740	 2.6320
 3.7770	 2.6900
 3.7790	 2.6920
 3.7820	 2.6790
 3.7850	 2.6520
 3.7880	 2.6600
 3.7910	 2.6630
 3.7930	 2.6560
 3.7960	 2.6300
 3.7990	 2.6200
 3.8020	 2.6420
 3.8040	 2.6430
 3.8070	 2.6530
 3.8100	 2.6890
 3.8130	 2.6700
 3.8160	 2.6690
 3.8180	 2.6790
 3.8210	 2.7110
 3.8240	 2.6900
 3.8270	 2.6840
 3.8300	 2.6990
 3.8330	 2.7180
 3.8350	 2.6940
 3.8380	 2.6900
 3.8410	 2.6770
 3.8440	 2.6860
 3.8470	 2.6740
 3.8500	 2.6870
 3.8520	 2.6740
 3.8550	 2.6490
 3.8580	 2.6480
 3.8610	 2.6720
 3.8640	 2.6490
 3.8670	 2.6560
 3.8700	 2.6740
 3.8730	 2.6680
 3.8760	 2.6490
 3.8780	 2.6670
 3.8810	 2.6380
 3.8840	 2.6340
 3.8870	 2.6800
 3.8900	 2.7280
 3.8930	 2.7020
 3.8960	 2.6830
 3.8990	 2.6680
 3.9020	 2.6930
 3.9050	 2.7230
 3.9080	 2.7050
 3.9110	 2.6980
 3.9140	 2.7040
 3.9170	 2.6880
 3.9190	 2.7110
 3.9220	 2.7190
 3.9250	 2.6970
 3.9280	 2.6900
 3.9310	 2.6820
 3.9340	 2.6660
 3.9370	 2.7010
 3.9400	 2.6920
 3.9430	 2.6820
 3.9460	 2.6990
 3.9490	 2.7030
 3.9520	 2.7040
 3.9550	 2.7160
 3.9580	 2.7050
 3.9610	 2.7120
 3.9640	 2.6990
 3.9670	 2.6800
 3.9700	 2.6990
 3.9740	 2.7180
 3.9770	 2.6880
 3.9800	 2.7050
 3.9830	 2.7160
 3.9860	 2.7080
 3.9890	 2.6920
 3.9920	 2.6670
 3.9950	 2.6480
 3.9980	 2.6600
 4.0010	 2.6820
 4.0040	 2.6980
 4.0070	 2.6710
 4.0100	 2.6620
 4.0140	 2.6800
 4.0170	 2.6980
 4.0200	 2.7090
 4.0230	 2.7150
 4.0260	 2.7290
 4.0290	 2.7390
 4.0320	 2.7220
 4.0350	 2.7070
 4.0390	 2.7090
 4.0420	 2.7400
 4.0450	 2.7370
 4.0480	 2.7190
 4.0510	 2.7200
 4.0540	 2.7210
 4.0570	 2.6960
 4.0610	 2.6910
 4.0640	 2.7140
 4.0670	 2.7450
 4.0700	 2.7370
 4.0730	 2.7030
 4.0770	 2.6870
 4.0800	 2.6910
 4.0830	 2.6630
 4.0860	 2.6700
 4.0890	 2.7090
 4.0930	 2.7190
 4.0960	 2.6850
 4.0990	 2.7090
 4.1020	 2.7250
 4.1060	 2.7070
 4.1090	 2.6760
 4.1120	 2.6800
 4.1150	 2.6640
 4.1190	 2.6800
 4.1220	 2.7090
 4.1250	 2.7050
 4.1290	 2.6850
 4.1320	 2.7040
 4.1350	 2.6880
 4.1380	 2.6810
 4.1420	 2.6960
 4.1450	 2.7240
 4.1480	 2.7380
 4.1520	 2.7530
 4.1550	 2.7530
 4.1580	 2.7460
 4.1620	 2.7260
 4.1650	 2.7120
 4.1680	 2.6920
 4.1720	 2.6670
 4.1750	 2.6880
 4.1780	 2.6810
 4.1820	 2.6820
 4.1850	 2.6870
 4.1890	 2.7050
 4.1920	 2.7340
 4.1950	 2.7270
 4.1990	 2.6980
 4.2020	 2.6670
 4.2060	 2.7280
 4.2090	 2.7860
 4.2120	 2.7890
 4.2160	 2.8400
 4.2190	 2.8780
 4.2230	 2.8670
 4.2260	 2.8390
 4.2300	 2.8400
 4.2330	 2.9510
 4.2360	 2.8640
 4.2400	 2.8160
 4.2430	 2.8080
 4.2470	 2.8370
 4.2500	 2.8600
 4.2540	 2.8530
 4.2570	 2.8120
 4.2610	 2.8380
 4.2640	 2.8520
 4.2680	 2.8490
 4.2710	 2.9090
 4.2750	 2.9830
 4.2780	 2.9750
 4.2820	 2.8860
 4.2850	 2.8340
 4.2890	 2.8420
 4.2930	 2.8550
 4.2960	 2.8180
 4.3000	 2.7810
 4.3030	 2.8170
 4.3070	 2.8210
 4.3100	 2.8170
 4.3140	 2.7570
 4.3180	 2.6770
 4.3210	 2.7110
 4.3250	 2.7870
 4.3280	 2.7910
 4.3320	 2.7710
 4.3360	 2.7280
 4.3390	 2.6830
 4.3430	 2.6690
 4.3470	 2.6730
 4.3500	 2.6690
 4.3540	 2.6440
 4.3580	 2.6250
 4.3610	 2.6480
 4.3650	 2.6650
 4.3690	 2.6420
 4.3720	 2.6660
 4.3760	 2.6670
 4.3800	 2.6520
 4.3830	 2.6790
 4.3870	 2.6770
 4.3910	 2.6630
 4.3940	 2.6580
 4.3980	 2.6490
 4.4020	 2.6510
 4.4060	 2.6450
 4.4090	 2.6230
 4.4130	 2.6290
 4.4170	 2.6720
 4.4210	 2.6610
 4.4240	 2.6330
 4.4280	 2.6200
 4.4320	 2.6040
 4.4360	 2.5850
 4.4400	 2.6300
 4.4430	 2.6750
 4.4470	 2.6560
 4.4510	 2.6290
 4.4550	 2.6200
 4.4590	 2.6290
 4.4630	 2.6530
 4.4660	 2.6720
 4.4700	 2.6480
 4.4740	 2.6340
 4.4780	 2.6400
 4.4820	 2.6580
 4.4860	 2.6680
 4.4900	 2.6570
 4.4930	 2.6250
 4.4970	 2.5950
 4.5010	 2.6020
 4.5050	 2.6410
 4.5090	 2.6360
 4.5130	 2.6040
 4.5170	 2.6320
 4.5210	 2.6260
 4.5250	 2.6070
 4.5290	 2.6400
 4.5330	 2.6460
 4.5370	 2.6350
 4.5410	 2.6270
 4.5450	 2.6190
 4.5490	 2.6240
 4.5530	 2.6050
 4.5570	 2.5830
 4.5610	 2.5930
 4.5650	 2.6160
 4.5690	 2.6310
 4.5730	 2.6740
 4.5770	 2.6850
 4.5810	 2.6640
 4.5850	 2.6270
 4.5890	 2.6020
 4.5930	 2.5970
 4.5970	 2.6140
 4.6010	 2.6150
 4.6050	 2.5990
 4.6090	 2.5860
 4.6130	 2.6180
 4.6170	 2.6100
 4.6220	 2.6030
 4.6260	 2.6270
 4.6300	 2.6440
 4.6340	 2.6150
 4.6380	 2.6210
 4.6420	 2.6320
 4.6460	 2.6290
 4.6510	 2.6490
 4.6550	 2.6700
 4.6590	 2.6330
 4.6630	 2.6130
 4.6670	 2.6220
 4.6720	 2.6240
 4.6760	 2.6050
 4.6800	 2.6100
 4.6840	 2.6410
 4.6880	 2.6700
 4.6930	 2.6470
 4.6970	 2.6230
 4.7010	 2.6000
 4.7050	 2.6110
 4.7100	 2.6260
 4.7140	 2.6480
 4.7180	 2.6550
 4.7230	 2.6450
 4.7270	 2.5970
 4.7310	 2.5790
 4.7360	 2.5700
 4.7400	 2.5550
 4.7440	 2.5710
 4.7490	 2.5810
 4.7530	 2.5710
 4.7570	 2.6050
 4.7620	 2.6010
 4.7660	 2.6080
 4.7700	 2.6230
 4.7750	 2.6040
 4.7790	 2.6060
 4.7840	 2.6380
 4.7880	 2.6090
 4.7920	 2.6030
 4.7970	 2.6130
 4.8010	 2.6270
 4.8060	 2.6540
 4.8100	 2.6570
 4.8150	 2.6150
 4.8190	 2.6230
 4.8240	 2.6280
 4.8280	 2.6130
 4.8330	 2.5840
 4.8370	 2.5760
 4.8420	 2.5830
 4.8460	 2.5990
 4.8510	 2.5840
 4.8550	 2.5920
 4.8600	 2.6020
 4.8640	 2.6240
 4.8690	 2.6320
 4.8740	 2.6100
 4.8780	 2.5950
 4.8830	 2.6110
 4.8870	 2.5980
 4.8920	 2.5870
 4.8970	 2.5920
 4.9010	 2.5930
 4.9060	 2.5500
 4.9100	 2.5680
 4.9150	 2.6000
 4.9200	 2.6110
 4.9240	 2.6010
 4.9290	 2.6290
 4.9340	 2.6090
 4.9390	 2.5940
 4.9430	 2.5770
 4.9480	 2.5870
 4.9530	 2.6110
 4.9570	 2.6240
 4.9620	 2.5870
 4.9670	 2.5870
 4.9720	 2.5920
 4.9760	 2.6150
 4.9810	 2.5990
 4.9860	 2.5910
 4.9910	 2.5970
 4.9960	 2.6480
 5.0000	 2.6600
 5.0050	 2.6510
 5.0100	 2.6280
 5.0150	 2.6290
 5.0200	 2.5910
 5.0250	 2.6100
 5.0300	 2.5850
 5.0340	 2.5820
 5.0390	 2.5840
 5.0440	 2.6130
 5.0490	 2.6180
 5.0540	 2.6240
 5.0590	 2.6220
 5.0640	 2.6370
 5.0690	 2.6050
 5.0740	 2.5820
 5.0790	 2.5750
 5.0840	 2.6040
 5.0890	 2.6110
 5.0940	 2.6180
 5.0990	 2.6390
 5.1040	 2.6780
 5.1090	 2.6350
 5.1140	 2.6160
 5.1190	 2.6040
 5.1240	 2.6420
 5.1290	 2.6680
 5.1340	 2.6800
 5.1390	 2.6630
 5.1440	 2.6650
 5.1490	 2.6400
 5.1550	 2.6380
 5.1600	 2.6550
 5.1650	 2.6600
 5.1700	 2.6280
 5.1750	 2.6370
 5.1800	 2.6260
 5.1850	 2.6470
 5.1910	 2.6480
 5.1960	 2.6470
 5.2010	 2.6050
 5.2060	 2.6050
 5.2110	 2.5800
 5.2170	 2.5910
 5.2220	 2.6170
 5.2270	 2.6290
 5.2330	 2.6310
 5.2380	 2.6330
 5.2430	 2.6090
 5.2480	 2.6380
 5.2540	 2.6530
 5.2590	 2.6830
 5.2640	 2.6480
 5.2700	 2.6300
 5.2750	 2.6380
 5.2800	 2.6500
 5.2860	 2.6350
 5.2910	 2.6410
 5.2970	 2.6150
 5.3020	 2.5990
 5.3080	 2.6050
 5.3130	 2.6090
 5.3180	 2.5830
 5.3240	 2.6040
 5.3290	 2.6180
 5.3350	 2.6500
 5.3400	 2.6290
 5.3460	 2.6140
 5.3510	 2.5910
 5.3570	 2.6140
 5.3620	 2.5980
 5.3680	 2.6270
 5.3740	 2.6240
 5.3790	 2.6090
 5.3850	 2.5970
 5.3900	 2.5920
 5.3960	 2.5510
 5.4010	 2.5740
 5.4070	 2.5810
 5.4130	 2.5900
 5.4180	 2.5810
 5.4240	 2.6090
 5.4300	 2.5970
 5.4350	 2.6130
 5.4410	 2.5660
 5.4470	 2.5580
 5.4530	 2.5710
 5.4580	 2.5700
 5.4640	 2.5370
 5.4700	 2.5730
 5.4760	 2.5720
 5.4810	 2.5720
 5.4870	 2.5370
 5.4930	 2.5690
 5.4990	 2.5770
 5.5050	 2.5830
 5.5110	 2.5580
 5.5160	 2.5580
 5.5220	 2.5150
 5.5280	 2.5180
 5.5340	 2.5350
 5.5400	 2.5630
 5.5460	 2.5080
 5.5520	 2.5030
 5.5580	 2.4750
 5.5640	 2.4760
 5.5700	 2.4550
 5.5760	 2.4590
 5.5820	 2.4360
 5.5880	 2.4630
 5.5940	 2.4690
 5.6000	 2.4440
 5.6060	 2.3980
 5.6120	 2.4350
 5.6180	 2.4470
 5.6240	 2.4390
 5.6300	 2.3870
 5.6360	 2.3710
 5.6420	 2.3490
 5.6490	 2.3610
 5.6550	 2.3490
 5.6610	 2.3520
 5.6670	 2.2950
 5.6730	 2.2680
 5.6800	 2.2380
 5.6860	 2.2710
 5.6920	 2.2830
 5.6980	 2.2740
 5.7050	 2.2260
 5.7110	 2.2060
 5.7170	 2.1610
 5.7230	 2.1680
 5.7300	 2.1670
 5.7360	 2.1760
 5.7420	 2.1760
 5.7490	 2.2390
 5.7550	 2.2920
 5.7620	 2.3240
 5.7680	 2.2710
 5.7740	 2.3090
 5.7810	 2.2910
 5.7870	 2.3130
 5.7940	 2.3320
 5.8000	 2.3820
 5.8070	 2.3860
 5.8130	 2.4100
 5.8200	 2.4120
 5.8260	 2.4710
 5.8330	 2.4870
 5.8390	 2.5180
 5.8460	 2.4830
 5.8530	 2.5140
 5.8590	 2.5120
 5.8660	 2.5710
 5.8730	 2.5930
 5.8790	 2.5830
 5.8860	 2.5650
 5.8930	 2.6490
 5.8990	 2.6410
 5.9060	 2.6480
 5.9130	 2.6450
 5.9190	 2.7240
 5.9260	 2.7710
 5.9330	 2.8240
 5.9400	 2.8190
 5.9470	 2.8330
 5.9530	 2.8230
 5.9600	 2.8610
 5.9670	 2.8430
 5.9740	 2.9080
 5.9810	 2.8990
 5.9880	 2.9210
 5.9950	 2.8820
 6.0020	 2.8670
 6.0090	 2.8550
 6.0160	 2.8610
 6.0230	 2.8270
 6.0300	 2.8460
 6.0370	 2.8140
 6.0440	 2.8250
 6.0510	 2.8200
 6.0580	 2.8720
 6.0650	 2.8440
 6.0720	 2.8720
 6.0790	 2.8260
 6.0860	 2.8290
 6.0930	 2.8110
 6.1010	 2.8390
 6.1080	 2.8240
 6.1150	 2.8520
 6.1220	 2.8340
 6.1290	 2.8700
 6.1370	 2.8150
 6.1440	 2.8280
 6.1510	 2.8270
 6.1580	 2.8080
 6.1660	 2.7710
 6.1730	 2.8090
 6.1800	 2.7670
 6.1880	 2.8190
 6.1950	 2.8160
 6.2030	 2.8360
 6.2100	 2.7960
 6.2180	 2.8060
 6.2250	 2.7920
 6.2320	 2.7710
 6.2400	 2.7210
 6.2480	 2.7910
 6.2550	 2.7800
 6.2630	 2.8290
 6.2700	 2.8390
 6.2780	 2.8510
 6.2850	 2.8000
 6.2930	 2.8380
 6.3010	 2.8470
 6.3080	 2.8650
 6.3160	 2.8250
 6.3240	 2.8730
 6.3310	 2.8550
 6.3390	 2.8430
 6.3470	 2.7830
 6.3550	 2.8530
 6.3620	 2.8710
 6.3700	 2.8750
 6.3780	 2.8200
 6.3860	 2.8470
 6.3940	 2.8140
 6.4020	 2.8250
 6.4100	 2.7780
 6.4180	 2.8250
 6.4260	 2.7870
 6.4340	 2.7840
 6.4420	 2.7880
 6.4500	 2.8540
 6.4580	 2.7940
 6.4660	 2.7880
 6.4740	 2.7380
 6.4820	 2.7630
 6.4900	 2.7350
 6.4980	 2.8020
 6.5060	 2.7570
 6.5140	 2.7320
 6.5230	 2.6810
 6.5310	 2.6840
 6.5390	 2.6390
 6.5470	 2.6710
 6.5560	 2.6700
 6.5640	 2.6470
 6.5720	 2.5320
 6.5800	 2.5490
 6.5890	 2.5500
 6.5970	 2.6180
 6.6060	 2.6110
 6.6140	 2.6430
 6.6230	 2.5670
 6.6310	 2.6010
 6.6390	 2.5910
 6.6480	 2.6320
 6.6570	 2.5870
 6.6650	 2.5950
 6.6740	 2.5780
 6.6820	 2.6170
 6.6910	 2.5610
 6.7000	 2.5920
 6.7080	 2.5630
 6.7170	 2.5460
 6.7260	 2.4730
 6.7340	 2.4890
 6.7430	 2.4390
 6.7520	 2.4720
 6.7610	 2.3790
 6.7690	 2.3220
 6.7780	 2.3320
 6.7870	 2.7080
 6.7960	 2.9390
 6.8050	 2.8440
 6.8140	 2.6840
 6.8230	 2.7470
 6.8320	 3.0060
 6.8410	 3.3070
 6.8500	 3.1870
 6.8590	 3.0290
 6.8680	 2.8550
 6.8770	 2.8480
 6.8860	 2.8310
 6.8960	 2.8580
 6.9050	 2.7870
 6.9140	 2.8190
 6.9230	 2.8260
 6.9320	 2.8560
 6.9420	 2.7990
 6.9510	 2.8590
 6.9600	 2.8260
 6.9700	 2.8750
 6.9790	 2.8370
 6.9880	 2.8480
 6.9980	 2.8050
 7.0070	 2.8360
 7.0170	 2.8150
 7.0260	 2.8360
 7.0360	 2.8020
 7.0450	 2.8540
 7.0550	 2.8310
 7.0650	 2.8390
 7.0740	 2.8080
 7.0840	 2.8870
 7.0940	 2.8640
 7.1030	 2.8790
 7.1130	 2.8530
 7.1230	 2.8990
 7.1330	 2.8640
 7.1420	 2.8860
 7.1520	 2.7940
 7.1620	 2.8110
 7.1720	 2.7980
 7.1820	 2.8200
 7.1920	 2.7700
 7.2020	 2.8290
 7.2120	 2.7620
 7.2220	 2.7790
 7.2320	 2.7820
 7.2420	 2.8630
 7.2520	 2.8120
 7.2620	 2.8410
 7.2730	 2.7900
 7.2830	 2.7890
 7.2930	 2.7070
 7.3030	 2.7650
 7.3140	 2.7890
 7.3240	 2.8280
 7.3340	 2.7480
 7.3450	 2.7570
 7.3550	 2.7280
 7.3660	 2.7760
 7.3760	 2.7380
 7.3870	 2.7750
 7.3970	 2.7590
 7.4080	 2.8060
 7.4180	 2.7890
 7.4290	 2.8160
 7.4400	 2.7730
 7.4500	 2.8100
 7.4610	 2.7250
 7.4720	 2.7380
 7.4830	 2.6940
 7.4930	 2.7380
 7.5040	 2.7210
 7.5150	 2.7970
 7.5260	 2.7190
 7.5370	 2.7110
 7.5480	 2.7050
 7.5590	 2.7780
 7.5700	 2.7290
 7.5810	 2.7420
 7.5920	 2.7010
 7.6030	 2.7340
 7.6140	 2.6630
 7.6260	 2.7150
 7.6370	 2.6850
 7.6480	 2.7050
 7.6590	 2.6290
 7.6710	 2.6470
 7.6820	 2.5880
 7.6940	 2.6410
 7.7050	 2.6390
 7.7160	 2.6830
 7.7280	 2.6160
 7.7390	 2.6310
 7.7510	 2.5300
 7.7630	 2.5660
 7.7740	 2.5460
 7.7860	 2.5960
 7.7980	 2.5340
 7.8090	 2.5930
 7.8210	 2.5840
 7.8330	 2.5930
 7.8450	 2.5350
 7.8570	 2.5790
 7.8690	 2.5120
 7.8810	 2.5920
 7.8930	 2.5680
 7.9050	 2.6170
 7.9170	 2.5780
 7.9290	 2.6010
 7.9410	 2.5480
 7.9530	 2.6100
 7.9650	 2.5480
 7.9780	 2.6280
 7.9900	 2.6080
 8.0020	 2.6620
 8.0150	 2.5850
 8.0270	 2.6250
 8.0390	 2.6110
 8.0520	 2.6820
 8.0640	 2.6460
 8.0770	 2.6790
 8.0900	 2.5940
 8.1020	 2.6870
 8.1150	 2.6970
 8.1280	 2.8190
 8.1400	 2.7620
 8.1530	 2.7850
 8.1660	 2.7450
 8.1790	 2.7980
 8.1920	 2.7490
 8.2050	 2.8880
 8.2180	 2.7900
 8.2310	 2.7810
 8.2440	 2.7420
 8.2570	 2.8660
 8.2700	 2.7970
 8.2830	 2.8200
 8.2970	 2.7140
 8.3100	 2.8520
 8.3230	 2.8640
 8.3370	 2.8760
 8.3500	 2.7720
 8.3640	 2.9140
 8.3770	 2.8500
 8.3910	 2.8820
 8.4040	 2.8220
 8.4180	 2.9190
 8.4320	 2.8430
 8.4450	 2.9430
 8.4590	 2.8860
 8.4730	 2.9840
 8.4870	 2.8910
 8.5010	 2.9370
 8.5150	 2.9330
 8.5290	 3.0400
 8.5430	 2.9910
 8.5570	 3.1830
 8.5710	 3.1370
 8.5850	 3.1830
 8.5990	 3.1830
 8.6140	 3.2770
 8.6280	 3.1780
 8.6420	 3.2800
 8.6570	 3.1740
 8.6710	 3.2570
 8.6860	 3.2030
 8.7000	 3.2930
 8.7150	 3.2640
 8.7300	 3.3500
 8.7440	 3.2720
 8.7590	 3.3350
 8.7740	 3.2490
 8.7890	 3.3900
 8.8040	 3.3540
 8.8190	 3.4740
 8.8340	 3.3960
 8.8490	 3.4570
 8.8640	 3.3750
 8.8790	 3.4240
 8.8940	 3.4290
 8.9100	 3.6020
 8.9250	 3.4600
 8.9400	 3.4770
 8.9560	 3.3960
 8.9710	 3.5210
 8.9870	 3.4120
 9.0020	 3.5690
 9.0180	 3.5770
 9.0340	 3.6410
 9.0500	 3.4970
 9.0650	 3.5990
 9.0810	 3.5160
 9.0970	 3.5590
 9.1130	 3.4850
 9.1290	 3.6030
 9.1450	 3.5450
 9.1620	 3.6240
 9.1780	 3.5410
 9.1940	 3.6550
 9.2100	 3.5390
 9.2270	 3.6050
 9.2430	 3.5350
 9.2600	 3.6200
 9.2760	 3.5270
 9.2930	 3.6280
 9.3100	 3.4460
 9.3260	 3.5370
 9.3430	 3.5320
 9.3600	 3.6550
 9.3770	 3.5150
 9.3940	 3.5770
 9.4110	 3.4270
 9.4280	 3.5490
 9.4450	 3.4760
 9.4620	 3.5660
 9.4800	 3.4680
 9.4970	 3.5450
 9.5150	 3.4710
 9.5320	 3.6120
 9.5500	 3.4990
 9.5670	 3.5830
 9.5850	 3.5760
 9.6030	 3.6810
 9.6200	 3.5020
 9.6380	 3.5930
 9.6560	 3.5670
 9.6740	 3.6700
 9.6920	 3.5550
 9.7110	 3.5930
 9.7290	 3.4870
 9.7470	 3.5610
 9.7650	 3.4550
 9.7840	 3.5540
 9.8020	 3.4730
 9.8210	 3.4340
 9.8390	 3.2490
 9.8580	 3.5080
 9.8770	 3.4400
 9.8960	 3.4670
 9.9150	 3.3840
 9.9340	 3.5100
 9.9530	 3.4390
 9.9720	 3.5030
 9.9910	 3.3540
10.0100	 3.4440
10.0300	 3.3650
10.0490	 3.4200
10.0690	 3.3720
10.0880	 3.4500
10.1080	 3.3060
10.1280	 3.4230
10.1480	 3.3300
10.1670	 3.3820
10.1870	 3.2730
10.2070	 3.3430
10.2280	 3.2580
10.2480	 3.3350
10.2680	 3.2260
10.2890	 3.3790
10.3090	 3.2920
10.3300	 3.3410
10.3500	 3.2550
10.3710	 3.3970
10.3920	 3.2790
10.4120	 3.3410
10.4330	 3.2690
10.4540	 3.4130
10.4760	 3.3770
10.4970	 3.4750
10.5180	 3.4110
10.5390	 3.5260
10.5610	 3.3530
10.5820	 3.4120
10.6040	 3.2920
10.6260	 3.3980
10.6480	 3.2430
10.6700	 3.3810
10.6920	 3.3450
10.7140	 3.4520
10.7360	 3.3640
10.7580	 3.4660
10.7800	 3.3660
10.8030	 3.4730
10.8250	 3.3910
10.8480	 3.4870
10.8710	 3.3100
10.8940	 3.3760
10.9170	 3.2810
10.9400	 3.4060
10.9630	 3.3200
10.9860	 3.3840
11.0090	 3.2600
11.0330	 3.4040
11.0560	 3.3270
11.0800	 3.4200
11.1040	 3.3340
11.1270	 3.4470
11.1510	 3.3390
11.1750	 3.4060
11.2000	 3.2840
11.2240	 3.4210
11.2480	 3.3560
11.2730	 3.4530
11.2970	 3.3540
11.3220	 3.4700
11.3470	 3.3340
11.3720	 3.4440
11.3970	 3.2290
11.4220	 3.3070
11.4470	 3.2380
11.4720	 3.3400
11.4980	 3.1500
11.5230	 3.2270
11.5490	 3.1630
11.5750	 3.3960
11.6000	 3.2570
11.6260	 3.3010
11.6530	 3.1550
11.6790	 3.3390
11.7050	 3.1870
11.7320	 3.1460
11.7580	 2.9460
11.7850	 3.0850
11.8120	 3.0050
11.8390	 3.1530
11.8660	 3.0810
11.8930	 3.1730
11.9200	 3.0450
11.9480	 3.2170
11.9760	 3.0740
12.0030	 3.1740
12.0310	 3.0170
12.0590	 3.1820
12.0870	 3.0060
12.1150	 3.1230
12.1440	 2.9370
12.1720	 3.0800
12.2010	 2.9480
12.2300	 3.0240
12.2590	 2.8870
12.2880	 3.0790
12.3170	 2.9250
12.3460	 3.0520
12.3760	 2.9080
12.4050	 3.0440
12.4350	 2.9140
12.4650	 3.0670
12.4950	 2.8980
12.5250	 3.1330
12.5550	 3.0600
12.5860	 3.0840
12.6170	 2.7960
12.6470	 2.9550
12.6780	 2.7810
12.7090	 2.9660
12.7410	 2.8560
12.7720	 2.9680
12.8030	 2.7450
12.8350	 2.9510
12.8670	 2.8150
12.8990	 2.9730
12.9310	 2.7950
12.9640	 2.9010
12.9960	 2.6920
13.0290	 2.8300
13.0610	 2.7040
13.0940	 2.8520
13.1280	 2.6270
13.1610	 2.8320
13.1940	 2.7320
13.2280	 3.0530
13.2620	 2.8620
13.2960	 2.7910
13.3300	 2.4670
13.3640	 2.7170
13.3990	 2.5980
13.4340	 2.7300
13.4690	 2.5110
13.5040	 2.7210
13.5390	 2.5580
13.5740	 2.7050
13.6100	 2.5080
13.6460	 2.7410
13.6820	 2.6860
13.7180	 3.0140
13.7540	 2.9290
13.7910	 3.0130
13.8280	 2.6580
13.8650	 2.9900
13.9020	 2.9990
13.9390	 3.2070
13.9770	 2.8370
14.0150	 2.9810
14.0530	 2.6900
14.0910	 2.8860
14.1290	 2.6210
14.1680	 2.9460
14.2070	 2.8110
14.2460	 2.9310
14.2850	 2.5820
14.3240	 2.7920
14.3640	 2.5710
14.4040	 2.8550
14.4440	 2.6150
14.4840	 2.8620
14.5250	 2.5110
14.5660	 2.8540
14.6070	 2.6000
14.6480	 2.9700
14.6900	 2.5670
14.7310	 2.9050
14.7730	 2.6870
14.8150	 2.9100
14.8580	 2.5310
14.9010	 2.9610
14.9440	 2.8070
14.9870	 3.3190
15.0300	 2.7010
15.0740	 2.9640
15.1180	 2.5450
15.1620	 3.0830
15.2060	 2.8210
15.2510	 3.3620
15.2960	 2.8870
15.3410	 3.2610
15.3870	 2.8400
