Name: Ceanothus megacarpus 1
Type: vegetation
Class: Shrub
Genus: Ceanothus
Species: megacarpus
Sample No.: VH211
Owner: UCSB
Wavelength Range: VSWIR
Origin: 34.4908; -119.7914; WGS84
Collection Date: 10/13/2013
Description: Samples were collected as part of the HyspIRI Airborne Campaign. 48 individual plants were sampled in three times in 2013 - spring  summer  and fall. The name of the sample includes a 1  2  or 3 which references a different individual of the species. Samples were taken to JPL and processed within 48 hours of collection. The same leaves were processed in the Nicolet and then measured using the ASD.
Measurement: Bidirectional reflectance
First Column: X
Second Column: Y
X Units: Wavelength (micrometers)
Y Units: Reflectance (percentage)
First X Value: 0.35
Last X Value: 2.5
Number of X Values: 2151
Additional Information: vegetation.shrub.ceanothus.megacarpus.vswir.vh211.ucsb.asd.ancillary.txt

 0.3500	 6.5200
 0.3510	 6.3430
 0.3520	 6.2670
 0.3530	 6.1790
 0.3540	 6.0240
 0.3550	 6.0260
 0.3560	 5.9950
 0.3570	 5.9630
 0.3580	 6.0500
 0.3590	 6.0660
 0.3600	 5.9850
 0.3610	 5.8690
 0.3620	 5.8680
 0.3630	 5.8730
 0.3640	 5.8910
 0.3650	 5.9340
 0.3660	 5.9160
 0.3670	 5.8560
 0.3680	 5.7760
 0.3690	 5.7120
 0.3700	 5.7770
 0.3710	 5.7860
 0.3720	 5.7110
 0.3730	 5.8880
 0.3740	 5.9350
 0.3750	 5.8220
 0.3760	 5.6730
 0.3770	 5.7540
 0.3780	 5.8820
 0.3790	 5.9480
 0.3800	 5.9390
 0.3810	 5.8740
 0.3820	 5.8290
 0.3830	 5.8170
 0.3840	 5.6910
 0.3850	 5.6360
 0.3860	 5.6740
 0.3870	 5.7490
 0.3880	 5.7900
 0.3890	 5.7560
 0.3900	 5.6970
 0.3910	 5.7380
 0.3920	 5.6910
 0.3930	 5.6800
 0.3940	 5.7720
 0.3950	 5.7220
 0.3960	 5.6980
 0.3970	 5.6810
 0.3980	 5.5970
 0.3990	 5.6410
 0.4000	 5.7090
 0.4010	 5.7210
 0.4020	 5.6660
 0.4030	 5.6530
 0.4040	 5.6730
 0.4050	 5.6880
 0.4060	 5.6930
 0.4070	 5.6590
 0.4080	 5.6330
 0.4090	 5.6900
 0.4100	 5.6990
 0.4110	 5.6890
 0.4120	 5.6840
 0.4130	 5.6550
 0.4140	 5.6270
 0.4150	 5.6380
 0.4160	 5.7000
 0.4170	 5.6890
 0.4180	 5.6820
 0.4190	 5.7030
 0.4200	 5.7130
 0.4210	 5.7300
 0.4220	 5.7370
 0.4230	 5.7290
 0.4240	 5.7420
 0.4250	 5.7660
 0.4260	 5.7900
 0.4270	 5.8030
 0.4280	 5.8410
 0.4290	 5.8600
 0.4300	 5.8580
 0.4310	 5.9030
 0.4320	 5.9310
 0.4330	 5.9560
 0.4340	 5.9980
 0.4350	 6.0110
 0.4360	 6.0310
 0.4370	 6.0580
 0.4380	 6.0700
 0.4390	 6.0620
 0.4400	 6.0670
 0.4410	 6.1010
 0.4420	 6.1310
 0.4430	 6.1460
 0.4440	 6.1540
 0.4450	 6.1690
 0.4460	 6.1980
 0.4470	 6.2190
 0.4480	 6.2240
 0.4490	 6.2260
 0.4500	 6.2270
 0.4510	 6.2340
 0.4520	 6.2510
 0.4530	 6.2750
 0.4540	 6.2950
 0.4550	 6.3060
 0.4560	 6.3160
 0.4570	 6.3290
 0.4580	 6.3260
 0.4590	 6.3090
 0.4600	 6.3250
 0.4610	 6.3510
 0.4620	 6.3640
 0.4630	 6.3530
 0.4640	 6.3670
 0.4650	 6.3810
 0.4660	 6.3830
 0.4670	 6.3780
 0.4680	 6.3840
 0.4690	 6.3910
 0.4700	 6.3950
 0.4710	 6.4160
 0.4720	 6.4340
 0.4730	 6.4400
 0.4740	 6.4340
 0.4750	 6.4240
 0.4760	 6.4240
 0.4770	 6.4350
 0.4780	 6.4450
 0.4790	 6.4420
 0.4800	 6.4350
 0.4810	 6.4380
 0.4820	 6.4510
 0.4830	 6.4630
 0.4840	 6.4650
 0.4850	 6.4550
 0.4860	 6.4480
 0.4870	 6.4550
 0.4880	 6.4730
 0.4890	 6.4690
 0.4900	 6.4830
 0.4910	 6.5050
 0.4920	 6.5090
 0.4930	 6.5360
 0.4940	 6.5570
 0.4950	 6.5630
 0.4960	 6.5890
 0.4970	 6.6180
 0.4980	 6.6450
 0.4990	 6.6690
 0.5000	 6.6870
 0.5010	 6.7130
 0.5020	 6.7490
 0.5030	 6.7880
 0.5040	 6.8290
 0.5050	 6.8750
 0.5060	 6.9260
 0.5070	 6.9840
 0.5080	 7.0420
 0.5090	 7.1040
 0.5100	 7.1770
 0.5110	 7.2510
 0.5120	 7.3390
 0.5130	 7.4410
 0.5140	 7.5360
 0.5150	 7.6510
 0.5160	 7.7760
 0.5170	 7.8980
 0.5180	 8.0340
 0.5190	 8.1790
 0.5200	 8.3330
 0.5210	 8.4940
 0.5220	 8.6540
 0.5230	 8.8280
 0.5240	 9.0190
 0.5250	 9.1960
 0.5260	 9.3710
 0.5270	 9.5490
 0.5280	 9.7300
 0.5290	 9.9120
 0.5300	10.0900
 0.5310	10.2600
 0.5320	10.4190
 0.5330	10.5720
 0.5340	10.7230
 0.5350	10.8720
 0.5360	11.0120
 0.5370	11.1470
 0.5380	11.2760
 0.5390	11.3950
 0.5400	11.5060
 0.5410	11.6140
 0.5420	11.7190
 0.5430	11.8090
 0.5440	11.9100
 0.5450	12.0150
 0.5460	12.1080
 0.5470	12.1990
 0.5480	12.2830
 0.5490	12.3580
 0.5500	12.4300
 0.5510	12.4860
 0.5520	12.5350
 0.5530	12.5840
 0.5540	12.6110
 0.5550	12.6230
 0.5560	12.6270
 0.5570	12.6230
 0.5580	12.6080
 0.5590	12.5830
 0.5600	12.5440
 0.5610	12.4910
 0.5620	12.4270
 0.5630	12.3540
 0.5640	12.2740
 0.5650	12.1870
 0.5660	12.0990
 0.5670	12.0120
 0.5680	11.9180
 0.5690	11.8280
 0.5700	11.7370
 0.5710	11.6360
 0.5720	11.5280
 0.5730	11.4290
 0.5740	11.3390
 0.5750	11.2530
 0.5760	11.1650
 0.5770	11.0860
 0.5780	11.0180
 0.5790	10.9430
 0.5800	10.8780
 0.5810	10.8200
 0.5820	10.7570
 0.5830	10.7010
 0.5840	10.6500
 0.5850	10.5990
 0.5860	10.5480
 0.5870	10.5030
 0.5880	10.4640
 0.5890	10.4260
 0.5900	10.3850
 0.5910	10.3460
 0.5920	10.3120
 0.5930	10.2800
 0.5940	10.2520
 0.5950	10.2290
 0.5960	10.2090
 0.5970	10.1820
 0.5980	10.1590
 0.5990	10.1330
 0.6000	10.0990
 0.6010	10.0670
 0.6020	10.0380
 0.6030	10.0070
 0.6040	 9.9670
 0.6050	 9.9250
 0.6060	 9.8840
 0.6070	 9.8410
 0.6080	 9.7920
 0.6090	 9.7360
 0.6100	 9.6740
 0.6110	 9.6120
 0.6120	 9.5620
 0.6130	 9.5190
 0.6140	 9.4750
 0.6150	 9.4200
 0.6160	 9.3700
 0.6170	 9.3240
 0.6180	 9.2800
 0.6190	 9.2440
 0.6200	 9.2050
 0.6210	 9.1670
 0.6220	 9.1450
 0.6230	 9.1280
 0.6240	 9.1140
 0.6250	 9.1020
 0.6260	 9.0900
 0.6270	 9.0820
 0.6280	 9.0790
 0.6290	 9.0770
 0.6300	 9.0700
 0.6310	 9.0650
 0.6320	 9.0600
 0.6330	 9.0470
 0.6340	 9.0200
 0.6350	 8.9800
 0.6360	 8.9290
 0.6370	 8.8690
 0.6380	 8.8000
 0.6390	 8.7200
 0.6400	 8.6230
 0.6410	 8.5260
 0.6420	 8.4270
 0.6430	 8.3280
 0.6440	 8.2300
 0.6450	 8.1360
 0.6460	 8.0500
 0.6470	 7.9710
 0.6480	 7.8970
 0.6490	 7.8400
 0.6500	 7.7950
 0.6510	 7.7490
 0.6520	 7.7200
 0.6530	 7.6980
 0.6540	 7.6720
 0.6550	 7.6410
 0.6560	 7.6070
 0.6570	 7.5720
 0.6580	 7.5380
 0.6590	 7.4940
 0.6600	 7.4460
 0.6610	 7.3970
 0.6620	 7.3430
 0.6630	 7.2890
 0.6640	 7.2420
 0.6650	 7.2030
 0.6660	 7.1560
 0.6670	 7.1180
 0.6680	 7.0930
 0.6690	 7.0710
 0.6700	 7.0510
 0.6710	 7.0400
 0.6720	 7.0380
 0.6730	 7.0310
 0.6740	 7.0310
 0.6750	 7.0390
 0.6760	 7.0510
 0.6770	 7.0590
 0.6780	 7.0800
 0.6790	 7.1130
 0.6800	 7.1440
 0.6810	 7.1840
 0.6820	 7.2360
 0.6830	 7.3040
 0.6840	 7.3900
 0.6850	 7.5040
 0.6860	 7.6470
 0.6870	 7.8230
 0.6880	 8.0440
 0.6890	 8.3210
 0.6900	 8.6610
 0.6910	 9.0730
 0.6920	 9.5590
 0.6930	10.1280
 0.6940	10.7890
 0.6950	11.5390
 0.6960	12.3760
 0.6970	13.2910
 0.6980	14.2790
 0.6990	15.3450
 0.7000	16.4710
 0.7010	17.6400
 0.7020	18.8410
 0.7030	20.0840
 0.7040	21.3390
 0.7050	22.5840
 0.7060	23.8330
 0.7070	25.0780
 0.7080	26.3080
 0.7090	27.5180
 0.7100	28.7150
 0.7110	29.8830
 0.7120	31.0180
 0.7130	32.1280
 0.7140	33.2230
 0.7150	34.2870
 0.7160	35.3090
 0.7170	36.2920
 0.7180	37.2550
 0.7190	38.1900
 0.7200	39.0840
 0.7210	39.9460
 0.7220	40.7800
 0.7230	41.5830
 0.7240	42.3520
 0.7250	43.0800
 0.7260	43.7640
 0.7270	44.4130
 0.7280	45.0460
 0.7290	45.6380
 0.7300	46.1880
 0.7310	46.7080
 0.7320	47.2070
 0.7330	47.6670
 0.7340	48.0990
 0.7350	48.5370
 0.7360	48.9180
 0.7370	49.2680
 0.7380	49.6100
 0.7390	49.9240
 0.7400	50.2310
 0.7410	50.5220
 0.7420	50.7810
 0.7430	51.0220
 0.7440	51.2420
 0.7450	51.4510
 0.7460	51.6660
 0.7470	51.8420
 0.7480	52.0030
 0.7490	52.1640
 0.7500	52.3010
 0.7510	52.4310
 0.7520	52.5530
 0.7530	52.6660
 0.7540	52.7750
 0.7550	52.8560
 0.7560	52.9260
 0.7570	53.0240
 0.7580	53.0860
 0.7590	53.1450
 0.7600	53.2160
 0.7610	53.2680
 0.7620	53.3050
 0.7630	53.3420
 0.7640	53.3920
 0.7650	53.4350
 0.7660	53.4740
 0.7670	53.5080
 0.7680	53.5380
 0.7690	53.5570
 0.7700	53.5760
 0.7710	53.6020
 0.7720	53.6360
 0.7730	53.6640
 0.7740	53.6820
 0.7750	53.6920
 0.7760	53.7030
 0.7770	53.7140
 0.7780	53.7350
 0.7790	53.7750
 0.7800	53.7890
 0.7810	53.8000
 0.7820	53.8170
 0.7830	53.8300
 0.7840	53.8370
 0.7850	53.8580
 0.7860	53.8950
 0.7870	53.9150
 0.7880	53.9250
 0.7890	53.9270
 0.7900	53.9270
 0.7910	53.9490
 0.7920	53.9870
 0.7930	54.0210
 0.7940	54.0230
 0.7950	54.0170
 0.7960	54.0290
 0.7970	54.0560
 0.7980	54.0570
 0.7990	54.0810
 0.8000	54.1160
 0.8010	54.1380
 0.8020	54.1430
 0.8030	54.1510
 0.8040	54.1620
 0.8050	54.1720
 0.8060	54.2030
 0.8070	54.2170
 0.8080	54.2180
 0.8090	54.2420
 0.8100	54.2620
 0.8110	54.2750
 0.8120	54.2820
 0.8130	54.2930
 0.8140	54.3150
 0.8150	54.3340
 0.8160	54.3350
 0.8170	54.3360
 0.8180	54.3660
 0.8190	54.4100
 0.8200	54.4320
 0.8210	54.4260
 0.8220	54.4330
 0.8230	54.4560
 0.8240	54.4600
 0.8250	54.4850
 0.8260	54.5010
 0.8270	54.5000
 0.8280	54.5280
 0.8290	54.5390
 0.8300	54.5420
 0.8310	54.5490
 0.8320	54.5430
 0.8330	54.5450
 0.8340	54.5590
 0.8350	54.5780
 0.8360	54.5930
 0.8370	54.6030
 0.8380	54.6110
 0.8390	54.6280
 0.8400	54.6540
 0.8410	54.6660
 0.8420	54.6600
 0.8430	54.6560
 0.8440	54.6620
 0.8450	54.6830
 0.8460	54.7150
 0.8470	54.7350
 0.8480	54.7530
 0.8490	54.7600
 0.8500	54.7520
 0.8510	54.7760
 0.8520	54.8020
 0.8530	54.8120
 0.8540	54.8070
 0.8550	54.8170
 0.8560	54.8380
 0.8570	54.8550
 0.8580	54.8520
 0.8590	54.8400
 0.8600	54.8490
 0.8610	54.8800
 0.8620	54.8830
 0.8630	54.8760
 0.8640	54.8750
 0.8650	54.8890
 0.8660	54.9150
 0.8670	54.9160
 0.8680	54.9110
 0.8690	54.9280
 0.8700	54.9150
 0.8710	54.9180
 0.8720	54.9360
 0.8730	54.9410
 0.8740	54.9460
 0.8750	54.9470
 0.8760	54.9440
 0.8770	54.9440
 0.8780	54.9790
 0.8790	54.9980
 0.8800	54.9820
 0.8810	54.9710
 0.8820	54.9650
 0.8830	54.9650
 0.8840	54.9690
 0.8850	54.9690
 0.8860	54.9660
 0.8870	54.9630
 0.8880	54.9630
 0.8890	54.9790
 0.8900	54.9880
 0.8910	54.9800
 0.8920	54.9540
 0.8930	54.9390
 0.8940	54.9350
 0.8950	54.9300
 0.8960	54.9100
 0.8970	54.9090
 0.8980	54.9120
 0.8990	54.9090
 0.9000	54.9020
 0.9010	54.8890
 0.9020	54.8730
 0.9030	54.8660
 0.9040	54.8800
 0.9050	54.8670
 0.9060	54.8500
 0.9070	54.8430
 0.9080	54.8280
 0.9090	54.8330
 0.9100	54.8400
 0.9110	54.8270
 0.9120	54.8030
 0.9130	54.7930
 0.9140	54.7870
 0.9150	54.7740
 0.9160	54.7730
 0.9170	54.7580
 0.9180	54.7430
 0.9190	54.7490
 0.9200	54.7500
 0.9210	54.7360
 0.9220	54.7110
 0.9230	54.6860
 0.9240	54.6720
 0.9250	54.6650
 0.9260	54.6610
 0.9270	54.6560
 0.9280	54.6040
 0.9290	54.5490
 0.9300	54.5110
 0.9310	54.4760
 0.9320	54.4530
 0.9330	54.4330
 0.9340	54.4140
 0.9350	54.4000
 0.9360	54.3610
 0.9370	54.3120
 0.9380	54.2660
 0.9390	54.2220
 0.9400	54.1710
 0.9410	54.1370
 0.9420	54.1160
 0.9430	54.0510
 0.9440	53.9870
 0.9450	53.9240
 0.9460	53.8620
 0.9470	53.8420
 0.9480	53.7870
 0.9490	53.6930
 0.9500	53.5850
 0.9510	53.5070
 0.9520	53.4060
 0.9530	53.3010
 0.9540	53.2150
 0.9550	53.1220
 0.9560	53.0160
 0.9570	52.9080
 0.9580	52.8140
 0.9590	52.7440
 0.9600	52.6610
 0.9610	52.5660
 0.9620	52.4760
 0.9630	52.4110
 0.9640	52.3430
 0.9650	52.2820
 0.9660	52.2430
 0.9670	52.1770
 0.9680	52.1310
 0.9690	52.1120
 0.9700	52.1020
 0.9710	52.0710
 0.9720	52.0480
 0.9730	52.0150
 0.9740	51.9560
 0.9750	51.9630
 0.9760	51.9450
 0.9770	51.9180
 0.9780	51.9350
 0.9790	51.9560
 0.9800	51.9570
 0.9810	51.9380
 0.9820	51.9220
 0.9830	51.9610
 0.9840	51.9660
 0.9850	51.9650
 0.9860	52.0220
 0.9870	52.0630
 0.9880	52.0900
 0.9890	52.1020
 0.9900	52.1080
 0.9910	52.1760
 0.9920	52.2360
 0.9930	52.2960
 0.9940	52.3550
 0.9950	52.4150
 0.9960	52.4750
 0.9970	52.5340
 0.9980	52.5940
 0.9990	52.6540
 1.0000	52.7130
 1.0010	52.7730
 1.0020	52.8330
 1.0030	52.8930
 1.0040	52.9520
 1.0050	53.0120
 1.0060	53.0720
 1.0070	53.1310
 1.0080	53.1910
 1.0090	53.2510
 1.0100	53.2510
 1.0110	53.2900
 1.0120	53.3340
 1.0130	53.3820
 1.0140	53.4270
 1.0150	53.4740
 1.0160	53.5200
 1.0170	53.5610
 1.0180	53.6030
 1.0190	53.6600
 1.0200	53.7160
 1.0210	53.7670
 1.0220	53.8120
 1.0230	53.8570
 1.0240	53.8960
 1.0250	53.9390
 1.0260	53.9850
 1.0270	54.0270
 1.0280	54.0710
 1.0290	54.1030
 1.0300	54.1190
 1.0310	54.1490
 1.0320	54.1820
 1.0330	54.2070
 1.0340	54.2500
 1.0350	54.3010
 1.0360	54.3370
 1.0370	54.3730
 1.0380	54.4080
 1.0390	54.4420
 1.0400	54.4720
 1.0410	54.4990
 1.0420	54.5300
 1.0430	54.5590
 1.0440	54.5840
 1.0450	54.6110
 1.0460	54.6340
 1.0470	54.6450
 1.0480	54.6630
 1.0490	54.6810
 1.0500	54.7010
 1.0510	54.7150
 1.0520	54.7470
 1.0530	54.7680
 1.0540	54.7900
 1.0550	54.8110
 1.0560	54.8340
 1.0570	54.8490
 1.0580	54.8630
 1.0590	54.8760
 1.0600	54.8820
 1.0610	54.8910
 1.0620	54.9010
 1.0630	54.9110
 1.0640	54.9200
 1.0650	54.9260
 1.0660	54.9310
 1.0670	54.9370
 1.0680	54.9420
 1.0690	54.9460
 1.0700	54.9500
 1.0710	54.9570
 1.0720	54.9550
 1.0730	54.9450
 1.0740	54.9410
 1.0750	54.9340
 1.0760	54.9320
 1.0770	54.9360
 1.0780	54.9360
 1.0790	54.9400
 1.0800	54.9370
 1.0810	54.9320
 1.0820	54.9240
 1.0830	54.9030
 1.0840	54.8940
 1.0850	54.8880
 1.0860	54.8840
 1.0870	54.8800
 1.0880	54.8850
 1.0890	54.8770
 1.0900	54.8580
 1.0910	54.8520
 1.0920	54.8560
 1.0930	54.8420
 1.0940	54.8240
 1.0950	54.8070
 1.0960	54.7730
 1.0970	54.7510
 1.0980	54.7480
 1.0990	54.7280
 1.1000	54.6960
 1.1010	54.6700
 1.1020	54.6390
 1.1030	54.6070
 1.1040	54.5840
 1.1050	54.5600
 1.1060	54.5370
 1.1070	54.5160
 1.1080	54.4900
 1.1090	54.4620
 1.1100	54.4330
 1.1110	54.4000
 1.1120	54.3640
 1.1130	54.3310
 1.1140	54.2910
 1.1150	54.2480
 1.1160	54.1980
 1.1170	54.1430
 1.1180	54.0820
 1.1190	54.0130
 1.1200	53.9420
 1.1210	53.8660
 1.1220	53.7900
 1.1230	53.7070
 1.1240	53.6150
 1.1250	53.5200
 1.1260	53.4180
 1.1270	53.3140
 1.1280	53.2110
 1.1290	53.0930
 1.1300	52.9690
 1.1310	52.8350
 1.1320	52.6890
 1.1330	52.5380
 1.1340	52.3810
 1.1350	52.2170
 1.1360	52.0450
 1.1370	51.8650
 1.1380	51.6740
 1.1390	51.4800
 1.1400	51.2780
 1.1410	51.0680
 1.1420	50.8520
 1.1430	50.6330
 1.1440	50.4100
 1.1450	50.1760
 1.1460	49.9480
 1.1470	49.7170
 1.1480	49.4930
 1.1490	49.2670
 1.1500	49.0540
 1.1510	48.8440
 1.1520	48.6500
 1.1530	48.4640
 1.1540	48.2920
 1.1550	48.1320
 1.1560	47.9830
 1.1570	47.8370
 1.1580	47.7100
 1.1590	47.5990
 1.1600	47.4960
 1.1610	47.4110
 1.1620	47.3360
 1.1630	47.2610
 1.1640	47.2000
 1.1650	47.1480
 1.1660	47.1050
 1.1670	47.0660
 1.1680	47.0400
 1.1690	47.0110
 1.1700	46.9860
 1.1710	46.9610
 1.1720	46.9330
 1.1730	46.9130
 1.1740	46.8960
 1.1750	46.8790
 1.1760	46.8700
 1.1770	46.8600
 1.1780	46.8390
 1.1790	46.8200
 1.1800	46.7950
 1.1810	46.7620
 1.1820	46.7340
 1.1830	46.7060
 1.1840	46.6780
 1.1850	46.6510
 1.1860	46.6270
 1.1870	46.6060
 1.1880	46.5850
 1.1890	46.5640
 1.1900	46.5490
 1.1910	46.5370
 1.1920	46.5260
 1.1930	46.5210
 1.1940	46.5140
 1.1950	46.5060
 1.1960	46.4990
 1.1970	46.4940
 1.1980	46.4910
 1.1990	46.4950
 1.2000	46.5010
 1.2010	46.5120
 1.2020	46.5250
 1.2030	46.5410
 1.2040	46.5650
 1.2050	46.5880
 1.2060	46.6170
 1.2070	46.6460
 1.2080	46.6720
 1.2090	46.7050
 1.2100	46.7390
 1.2110	46.7770
 1.2120	46.8200
 1.2130	46.8660
 1.2140	46.9190
 1.2150	46.9700
 1.2160	47.0210
 1.2170	47.0730
 1.2180	47.1280
 1.2190	47.1770
 1.2200	47.2290
 1.2210	47.2890
 1.2220	47.3450
 1.2230	47.3990
 1.2240	47.4560
 1.2250	47.5150
 1.2260	47.5680
 1.2270	47.6210
 1.2280	47.6770
 1.2290	47.7250
 1.2300	47.7750
 1.2310	47.8280
 1.2320	47.8690
 1.2330	47.9110
 1.2340	47.9570
 1.2350	48.0060
 1.2360	48.0490
 1.2370	48.0930
 1.2380	48.1370
 1.2390	48.1740
 1.2400	48.2020
 1.2410	48.2390
 1.2420	48.2760
 1.2430	48.3050
 1.2440	48.3420
 1.2450	48.3770
 1.2460	48.4070
 1.2470	48.4370
 1.2480	48.4580
 1.2490	48.4820
 1.2500	48.5120
 1.2510	48.5410
 1.2520	48.5770
 1.2530	48.6040
 1.2540	48.6210
 1.2550	48.6360
 1.2560	48.6470
 1.2570	48.6560
 1.2580	48.6690
 1.2590	48.6840
 1.2600	48.7010
 1.2610	48.7150
 1.2620	48.7320
 1.2630	48.7450
 1.2640	48.7460
 1.2650	48.7550
 1.2660	48.7630
 1.2670	48.7570
 1.2680	48.7570
 1.2690	48.7510
 1.2700	48.7430
 1.2710	48.7460
 1.2720	48.7430
 1.2730	48.7340
 1.2740	48.7190
 1.2750	48.7010
 1.2760	48.6880
 1.2770	48.6790
 1.2780	48.6690
 1.2790	48.6520
 1.2800	48.6370
 1.2810	48.6170
 1.2820	48.5910
 1.2830	48.5690
 1.2840	48.5410
 1.2850	48.5090
 1.2860	48.4810
 1.2870	48.4460
 1.2880	48.4050
 1.2890	48.3640
 1.2900	48.3200
 1.2910	48.2650
 1.2920	48.2180
 1.2930	48.1640
 1.2940	48.1040
 1.2950	48.0540
 1.2960	47.9960
 1.2970	47.9350
 1.2980	47.8760
 1.2990	47.8020
 1.3000	47.7150
 1.3010	47.6260
 1.3020	47.5350
 1.3030	47.4440
 1.3040	47.3520
 1.3050	47.2570
 1.3060	47.1570
 1.3070	47.0470
 1.3080	46.9290
 1.3090	46.8110
 1.3100	46.6880
 1.3110	46.5610
 1.3120	46.4340
 1.3130	46.3040
 1.3140	46.1660
 1.3150	46.0220
 1.3160	45.8730
 1.3170	45.7200
 1.3180	45.5560
 1.3190	45.3880
 1.3200	45.2150
 1.3210	45.0330
 1.3220	44.8500
 1.3230	44.6650
 1.3240	44.4780
 1.3250	44.2900
 1.3260	44.0950
 1.3270	43.8880
 1.3280	43.6780
 1.3290	43.4670
 1.3300	43.2540
 1.3310	43.0410
 1.3320	42.8210
 1.3330	42.5950
 1.3340	42.3650
 1.3350	42.1350
 1.3360	41.9050
 1.3370	41.6730
 1.3380	41.4430
 1.3390	41.2130
 1.3400	40.9800
 1.3410	40.7520
 1.3420	40.5240
 1.3430	40.2970
 1.3440	40.0750
 1.3450	39.8530
 1.3460	39.6340
 1.3470	39.4190
 1.3480	39.2040
 1.3490	38.9930
 1.3500	38.7890
 1.3510	38.5800
 1.3520	38.3730
 1.3530	38.1700
 1.3540	37.9670
 1.3550	37.7670
 1.3560	37.5690
 1.3570	37.3730
 1.3580	37.1760
 1.3590	36.9770
 1.3600	36.7730
 1.3610	36.5660
 1.3620	36.3550
 1.3630	36.1420
 1.3640	35.9210
 1.3650	35.6920
 1.3660	35.4550
 1.3670	35.2040
 1.3680	34.9360
 1.3690	34.6610
 1.3700	34.3720
 1.3710	34.0710
 1.3720	33.7630
 1.3730	33.4310
 1.3740	33.0780
 1.3750	32.7070
 1.3760	32.3110
 1.3770	31.8940
 1.3780	31.4530
 1.3790	30.9910
 1.3800	30.5060
 1.3810	29.9950
 1.3820	29.4650
 1.3830	28.9130
 1.3840	28.3420
 1.3850	27.7500
 1.3860	27.1450
 1.3870	26.5190
 1.3880	25.8910
 1.3890	25.2510
 1.3900	24.6040
 1.3910	23.9640
 1.3920	23.3230
 1.3930	22.6840
 1.3940	22.0500
 1.3950	21.4130
 1.3960	20.7900
 1.3970	20.1840
 1.3980	19.5910
 1.3990	19.0260
 1.4000	18.4770
 1.4010	17.9430
 1.4020	17.4360
 1.4030	16.9500
 1.4040	16.4890
 1.4050	16.0540
 1.4060	15.6390
 1.4070	15.2510
 1.4080	14.8880
 1.4090	14.5450
 1.4100	14.2270
 1.4110	13.9300
 1.4120	13.6550
 1.4130	13.4000
 1.4140	13.1630
 1.4150	12.9480
 1.4160	12.7500
 1.4170	12.5670
 1.4180	12.4030
 1.4190	12.2520
 1.4200	12.1100
 1.4210	11.9840
 1.4220	11.8700
 1.4230	11.7670
 1.4240	11.6760
 1.4250	11.5920
 1.4260	11.5170
 1.4270	11.4480
 1.4280	11.3870
 1.4290	11.3320
 1.4300	11.2850
 1.4310	11.2420
 1.4320	11.2060
 1.4330	11.1750
 1.4340	11.1500
 1.4350	11.1270
 1.4360	11.1100
 1.4370	11.0950
 1.4380	11.0820
 1.4390	11.0730
 1.4400	11.0680
 1.4410	11.0670
 1.4420	11.0700
 1.4430	11.0740
 1.4440	11.0820
 1.4450	11.0900
 1.4460	11.1000
 1.4470	11.1160
 1.4480	11.1300
 1.4490	11.1450
 1.4500	11.1610
 1.4510	11.1740
 1.4520	11.1900
 1.4530	11.2060
 1.4540	11.2200
 1.4550	11.2400
 1.4560	11.2600
 1.4570	11.2820
 1.4580	11.3090
 1.4590	11.3350
 1.4600	11.3620
 1.4610	11.3930
 1.4620	11.4240
 1.4630	11.4580
 1.4640	11.4970
 1.4650	11.5380
 1.4660	11.5840
 1.4670	11.6340
 1.4680	11.6870
 1.4690	11.7450
 1.4700	11.8050
 1.4710	11.8680
 1.4720	11.9340
 1.4730	12.0040
 1.4740	12.0780
 1.4750	12.1560
 1.4760	12.2370
 1.4770	12.3160
 1.4780	12.3960
 1.4790	12.4810
 1.4800	12.5670
 1.4810	12.6570
 1.4820	12.7510
 1.4830	12.8420
 1.4840	12.9360
 1.4850	13.0300
 1.4860	13.1240
 1.4870	13.2220
 1.4880	13.3200
 1.4890	13.4180
 1.4900	13.5170
 1.4910	13.6150
 1.4920	13.7130
 1.4930	13.8110
 1.4940	13.9100
 1.4950	14.0100
 1.4960	14.1120
 1.4970	14.2160
 1.4980	14.3180
 1.4990	14.4200
 1.5000	14.5220
 1.5010	14.6250
 1.5020	14.7270
 1.5030	14.8290
 1.5040	14.9300
 1.5050	15.0290
 1.5060	15.1300
 1.5070	15.2320
 1.5080	15.3320
 1.5090	15.4310
 1.5100	15.5330
 1.5110	15.6350
 1.5120	15.7340
 1.5130	15.8340
 1.5140	15.9330
 1.5150	16.0290
 1.5160	16.1280
 1.5170	16.2290
 1.5180	16.3290
 1.5190	16.4260
 1.5200	16.5230
 1.5210	16.6190
 1.5220	16.7140
 1.5230	16.8080
 1.5240	16.9000
 1.5250	16.9920
 1.5260	17.0830
 1.5270	17.1760
 1.5280	17.2720
 1.5290	17.3620
 1.5300	17.4510
 1.5310	17.5380
 1.5320	17.6230
 1.5330	17.7110
 1.5340	17.7990
 1.5350	17.8850
 1.5360	17.9730
 1.5370	18.0590
 1.5380	18.1460
 1.5390	18.2320
 1.5400	18.3120
 1.5410	18.3900
 1.5420	18.4680
 1.5430	18.5460
 1.5440	18.6280
 1.5450	18.7090
 1.5460	18.7910
 1.5470	18.8720
 1.5480	18.9500
 1.5490	19.0330
 1.5500	19.1100
 1.5510	19.1870
 1.5520	19.2660
 1.5530	19.3360
 1.5540	19.4080
 1.5550	19.4800
 1.5560	19.5470
 1.5570	19.6180
 1.5580	19.6880
 1.5590	19.7540
 1.5600	19.8240
 1.5610	19.8920
 1.5620	19.9610
 1.5630	20.0320
 1.5640	20.1020
 1.5650	20.1720
 1.5660	20.2420
 1.5670	20.3100
 1.5680	20.3770
 1.5690	20.4450
 1.5700	20.5120
 1.5710	20.5780
 1.5720	20.6440
 1.5730	20.7060
 1.5740	20.7680
 1.5750	20.8340
 1.5760	20.9000
 1.5770	20.9670
 1.5780	21.0340
 1.5790	21.0990
 1.5800	21.1640
 1.5810	21.2290
 1.5820	21.2940
 1.5830	21.3580
 1.5840	21.4220
 1.5850	21.4850
 1.5860	21.5480
 1.5870	21.6060
 1.5880	21.6640
 1.5890	21.7240
 1.5900	21.7850
 1.5910	21.8470
 1.5920	21.9130
 1.5930	21.9750
 1.5940	22.0350
 1.5950	22.0950
 1.5960	22.1520
 1.5970	22.2080
 1.5980	22.2690
 1.5990	22.3280
 1.6000	22.3890
 1.6010	22.4490
 1.6020	22.5030
 1.6030	22.5610
 1.6040	22.6190
 1.6050	22.6720
 1.6060	22.7260
 1.6070	22.7810
 1.6080	22.8340
 1.6090	22.8890
 1.6100	22.9450
 1.6110	22.9990
 1.6120	23.0530
 1.6130	23.1050
 1.6140	23.1530
 1.6150	23.2030
 1.6160	23.2520
 1.6170	23.3000
 1.6180	23.3480
 1.6190	23.3900
 1.6200	23.4340
 1.6210	23.4790
 1.6220	23.5240
 1.6230	23.5710
 1.6240	23.6160
 1.6250	23.6580
 1.6260	23.6980
 1.6270	23.7350
 1.6280	23.7660
 1.6290	23.7980
 1.6300	23.8320
 1.6310	23.8650
 1.6320	23.8990
 1.6330	23.9280
 1.6340	23.9530
 1.6350	23.9770
 1.6360	23.9980
 1.6370	24.0190
 1.6380	24.0400
 1.6390	24.0560
 1.6400	24.0680
 1.6410	24.0770
 1.6420	24.0860
 1.6430	24.0870
 1.6440	24.0880
 1.6450	24.0780
 1.6460	24.0640
 1.6470	24.0460
 1.6480	24.0210
 1.6490	23.9960
 1.6500	23.9680
 1.6510	23.9360
 1.6520	23.9050
 1.6530	23.8670
 1.6540	23.8240
 1.6550	23.7830
 1.6560	23.7400
 1.6570	23.7000
 1.6580	23.6680
 1.6590	23.6340
 1.6600	23.5990
 1.6610	23.5670
 1.6620	23.5340
 1.6630	23.5090
 1.6640	23.4920
 1.6650	23.4790
 1.6660	23.4740
 1.6670	23.4760
 1.6680	23.4820
 1.6690	23.4900
 1.6700	23.5020
 1.6710	23.5170
 1.6720	23.5360
 1.6730	23.5620
 1.6740	23.5870
 1.6750	23.6070
 1.6760	23.6270
 1.6770	23.6420
 1.6780	23.6520
 1.6790	23.6640
 1.6800	23.6710
 1.6810	23.6750
 1.6820	23.6790
 1.6830	23.6760
 1.6840	23.6670
 1.6850	23.6600
 1.6860	23.6460
 1.6870	23.6300
 1.6880	23.6120
 1.6890	23.5870
 1.6900	23.5590
 1.6910	23.5270
 1.6920	23.4960
 1.6930	23.4610
 1.6940	23.4260
 1.6950	23.3940
 1.6960	23.3580
 1.6970	23.3190
 1.6980	23.2800
 1.6990	23.2380
 1.7000	23.1980
 1.7010	23.1600
 1.7020	23.1150
 1.7030	23.0650
 1.7040	23.0160
 1.7050	22.9610
 1.7060	22.9070
 1.7070	22.8540
 1.7080	22.7990
 1.7090	22.7430
 1.7100	22.6870
 1.7110	22.6320
 1.7120	22.5730
 1.7130	22.5120
 1.7140	22.4470
 1.7150	22.3860
 1.7160	22.3280
 1.7170	22.2720
 1.7180	22.2250
 1.7190	22.1730
 1.7200	22.1250
 1.7210	22.0780
 1.7220	22.0250
 1.7230	21.9790
 1.7240	21.9280
 1.7250	21.8760
 1.7260	21.8330
 1.7270	21.7920
 1.7280	21.7530
 1.7290	21.7150
 1.7300	21.6680
 1.7310	21.6280
 1.7320	21.5940
 1.7330	21.5580
 1.7340	21.5240
 1.7350	21.4910
 1.7360	21.4560
 1.7370	21.4220
 1.7380	21.3920
 1.7390	21.3560
 1.7400	21.3130
 1.7410	21.2730
 1.7420	21.2320
 1.7430	21.1880
 1.7440	21.1460
 1.7450	21.1020
 1.7460	21.0510
 1.7470	21.0040
 1.7480	20.9560
 1.7490	20.9080
 1.7500	20.8580
 1.7510	20.8130
 1.7520	20.7700
 1.7530	20.7250
 1.7540	20.6820
 1.7550	20.6320
 1.7560	20.5850
 1.7570	20.5400
 1.7580	20.4990
 1.7590	20.4670
 1.7600	20.4310
 1.7610	20.3990
 1.7620	20.3610
 1.7630	20.3120
 1.7640	20.2720
 1.7650	20.2310
 1.7660	20.1970
 1.7670	20.1750
 1.7680	20.1470
 1.7690	20.1210
 1.7700	20.0920
 1.7710	20.0580
 1.7720	20.0300
 1.7730	20.0040
 1.7740	19.9780
 1.7750	19.9550
 1.7760	19.9290
 1.7770	19.9000
 1.7780	19.8730
 1.7790	19.8440
 1.7800	19.8210
 1.7810	19.8010
 1.7820	19.7820
 1.7830	19.7670
 1.7840	19.7530
 1.7850	19.7390
 1.7860	19.7270
 1.7870	19.7150
 1.7880	19.7130
 1.7890	19.7110
 1.7900	19.7160
 1.7910	19.7130
 1.7920	19.7010
 1.7930	19.6920
 1.7940	19.6810
 1.7950	19.6750
 1.7960	19.6740
 1.7970	19.6760
 1.7980	19.6850
 1.7990	19.6900
 1.8000	19.6920
 1.8010	19.6980
 1.8020	19.7050
 1.8030	19.7120
 1.8040	19.7220
 1.8050	19.7330
 1.8060	19.7470
 1.8070	19.7550
 1.8080	19.7640
 1.8090	19.7710
 1.8100	19.7710
 1.8110	19.7760
 1.8120	19.7820
 1.8130	19.7780
 1.8140	19.7770
 1.8150	19.7810
 1.8160	19.7840
 1.8170	19.7880
 1.8180	19.7980
 1.8190	19.8020
 1.8200	19.8040
 1.8210	19.8080
 1.8220	19.8100
 1.8230	19.8080
 1.8240	19.8110
 1.8250	19.8190
 1.8260	19.8210
 1.8270	19.8020
 1.8280	19.7830
 1.8290	19.7640
 1.8300	19.7450
 1.8310	19.7260
 1.8320	19.7070
 1.8330	19.6880
 1.8340	19.6690
 1.8350	19.6690
 1.8360	19.6460
 1.8370	19.6230
 1.8380	19.6010
 1.8390	19.5730
 1.8400	19.5460
 1.8410	19.5050
 1.8420	19.4580
 1.8430	19.4030
 1.8440	19.3400
 1.8450	19.2720
 1.8460	19.1960
 1.8470	19.1120
 1.8480	19.0220
 1.8490	18.9210
 1.8500	18.8110
 1.8510	18.6920
 1.8520	18.5660
 1.8530	18.4340
 1.8540	18.2950
 1.8550	18.1450
 1.8560	17.9900
 1.8570	17.8220
 1.8580	17.6360
 1.8590	17.4400
 1.8600	17.2330
 1.8610	17.0110
 1.8620	16.7690
 1.8630	16.5210
 1.8640	16.2720
 1.8650	16.0150
 1.8660	15.7440
 1.8670	15.4520
 1.8680	15.1370
 1.8690	14.8050
 1.8700	14.4680
 1.8710	14.1170
 1.8720	13.7730
 1.8730	13.4240
 1.8740	13.0570
 1.8750	12.6900
 1.8760	12.3090
 1.8770	11.9260
 1.8780	11.5560
 1.8790	11.1870
 1.8800	10.8320
 1.8810	10.4900
 1.8820	10.1520
 1.8830	 9.8160
 1.8840	 9.4910
 1.8850	 9.1620
 1.8860	 8.8460
 1.8870	 8.5560
 1.8880	 8.2770
 1.8890	 8.0200
 1.8900	 7.7830
 1.8910	 7.5580
 1.8920	 7.3440
 1.8930	 7.1490
 1.8940	 6.9660
 1.8950	 6.7940
 1.8960	 6.6390
 1.8970	 6.4920
 1.8980	 6.3610
 1.8990	 6.2500
 1.9000	 6.1470
 1.9010	 6.0550
 1.9020	 5.9750
 1.9030	 5.9130
 1.9040	 5.8550
 1.9050	 5.8030
 1.9060	 5.7590
 1.9070	 5.7250
 1.9080	 5.6860
 1.9090	 5.6550
 1.9100	 5.6330
 1.9110	 5.6100
 1.9120	 5.5880
 1.9130	 5.5700
 1.9140	 5.5560
 1.9150	 5.5430
 1.9160	 5.5290
 1.9170	 5.5170
 1.9180	 5.5110
 1.9190	 5.5020
 1.9200	 5.5040
 1.9210	 5.5050
 1.9220	 5.5020
 1.9230	 5.4940
 1.9240	 5.4930
 1.9250	 5.4890
 1.9260	 5.4890
 1.9270	 5.5020
 1.9280	 5.5100
 1.9290	 5.5170
 1.9300	 5.5230
 1.9310	 5.5160
 1.9320	 5.5120
 1.9330	 5.5140
 1.9340	 5.5150
 1.9350	 5.5190
 1.9360	 5.5300
 1.9370	 5.5380
 1.9380	 5.5420
 1.9390	 5.5540
 1.9400	 5.5620
 1.9410	 5.5730
 1.9420	 5.5890
 1.9430	 5.5990
 1.9440	 5.6140
 1.9450	 5.6340
 1.9460	 5.6490
 1.9470	 5.6620
 1.9480	 5.6760
 1.9490	 5.6890
 1.9500	 5.6990
 1.9510	 5.7120
 1.9520	 5.7240
 1.9530	 5.7300
 1.9540	 5.7400
 1.9550	 5.7560
 1.9560	 5.7760
 1.9570	 5.7920
 1.9580	 5.8140
 1.9590	 5.8330
 1.9600	 5.8460
 1.9610	 5.8650
 1.9620	 5.8880
 1.9630	 5.9140
 1.9640	 5.9380
 1.9650	 5.9570
 1.9660	 5.9710
 1.9670	 5.9830
 1.9680	 6.0010
 1.9690	 6.0170
 1.9700	 6.0390
 1.9710	 6.0670
 1.9720	 6.0940
 1.9730	 6.1160
 1.9740	 6.1470
 1.9750	 6.1840
 1.9760	 6.2160
 1.9770	 6.2500
 1.9780	 6.2810
 1.9790	 6.3100
 1.9800	 6.3320
 1.9810	 6.3600
 1.9820	 6.3900
 1.9830	 6.4160
 1.9840	 6.4430
 1.9850	 6.4700
 1.9860	 6.4930
 1.9870	 6.5210
 1.9880	 6.5550
 1.9890	 6.5810
 1.9900	 6.6060
 1.9910	 6.6310
 1.9920	 6.6600
 1.9930	 6.6880
 1.9940	 6.7210
 1.9950	 6.7640
 1.9960	 6.8000
 1.9970	 6.8350
 1.9980	 6.8680
 1.9990	 6.8950
 2.0000	 6.9270
 2.0010	 6.9620
 2.0020	 7.0010
 2.0030	 7.0400
 2.0040	 7.0750
 2.0050	 7.1090
 2.0060	 7.1400
 2.0070	 7.1710
 2.0080	 7.2020
 2.0090	 7.2340
 2.0100	 7.2640
 2.0110	 7.2960
 2.0120	 7.3320
 2.0130	 7.3650
 2.0140	 7.3980
 2.0150	 7.4300
 2.0160	 7.4550
 2.0170	 7.4890
 2.0180	 7.5210
 2.0190	 7.5520
 2.0200	 7.5830
 2.0210	 7.6200
 2.0220	 7.6480
 2.0230	 7.6670
 2.0240	 7.6920
 2.0250	 7.7180
 2.0260	 7.7440
 2.0270	 7.7740
 2.0280	 7.8030
 2.0290	 7.8280
 2.0300	 7.8510
 2.0310	 7.8720
 2.0320	 7.8880
 2.0330	 7.9120
 2.0340	 7.9380
 2.0350	 7.9630
 2.0360	 7.9920
 2.0370	 8.0160
 2.0380	 8.0350
 2.0390	 8.0550
 2.0400	 8.0770
 2.0410	 8.0960
 2.0420	 8.1120
 2.0430	 8.1300
 2.0440	 8.1450
 2.0450	 8.1590
 2.0460	 8.1710
 2.0470	 8.1790
 2.0480	 8.1890
 2.0490	 8.1960
 2.0500	 8.2070
 2.0510	 8.2190
 2.0520	 8.2330
 2.0530	 8.2490
 2.0540	 8.2650
 2.0550	 8.2860
 2.0560	 8.3010
 2.0570	 8.3110
 2.0580	 8.3220
 2.0590	 8.3320
 2.0600	 8.3360
 2.0610	 8.3490
 2.0620	 8.3660
 2.0630	 8.3800
 2.0640	 8.3990
 2.0650	 8.4120
 2.0660	 8.4200
 2.0670	 8.4310
 2.0680	 8.4420
 2.0690	 8.4530
 2.0700	 8.4660
 2.0710	 8.4790
 2.0720	 8.4940
 2.0730	 8.5120
 2.0740	 8.5220
 2.0750	 8.5310
 2.0760	 8.5400
 2.0770	 8.5440
 2.0780	 8.5500
 2.0790	 8.5540
 2.0800	 8.5650
 2.0810	 8.5850
 2.0820	 8.5930
 2.0830	 8.6010
 2.0840	 8.6090
 2.0850	 8.6030
 2.0860	 8.6100
 2.0870	 8.6300
 2.0880	 8.6500
 2.0890	 8.6640
 2.0900	 8.6810
 2.0910	 8.6940
 2.0920	 8.6990
 2.0930	 8.7100
 2.0940	 8.7240
 2.0950	 8.7360
 2.0960	 8.7480
 2.0970	 8.7600
 2.0980	 8.7750
 2.0990	 8.7820
 2.1000	 8.7800
 2.1010	 8.7870
 2.1020	 8.7920
 2.1030	 8.8010
 2.1040	 8.8200
 2.1050	 8.8400
 2.1060	 8.8520
 2.1070	 8.8620
 2.1080	 8.8690
 2.1090	 8.8700
 2.1100	 8.8760
 2.1110	 8.8780
 2.1120	 8.8880
 2.1130	 8.9080
 2.1140	 8.9170
 2.1150	 8.9260
 2.1160	 8.9330
 2.1170	 8.9230
 2.1180	 8.9300
 2.1190	 8.9510
 2.1200	 8.9630
 2.1210	 8.9740
 2.1220	 8.9910
 2.1230	 8.9970
 2.1240	 8.9890
 2.1250	 8.9970
 2.1260	 9.0090
 2.1270	 9.0190
 2.1280	 9.0360
 2.1290	 9.0460
 2.1300	 9.0470
 2.1310	 9.0550
 2.1320	 9.0640
 2.1330	 9.0760
 2.1340	 9.0940
 2.1350	 9.1080
 2.1360	 9.1230
 2.1370	 9.1370
 2.1380	 9.1520
 2.1390	 9.1640
 2.1400	 9.1700
 2.1410	 9.1810
 2.1420	 9.1960
 2.1430	 9.2100
 2.1440	 9.2320
 2.1450	 9.2670
 2.1460	 9.2880
 2.1470	 9.3080
 2.1480	 9.3210
 2.1490	 9.3210
 2.1500	 9.3330
 2.1510	 9.3450
 2.1520	 9.3620
 2.1530	 9.3860
 2.1540	 9.4090
 2.1550	 9.4300
 2.1560	 9.4570
 2.1570	 9.4970
 2.1580	 9.5240
 2.1590	 9.5460
 2.1600	 9.5650
 2.1610	 9.5880
 2.1620	 9.5950
 2.1630	 9.6190
 2.1640	 9.6560
 2.1650	 9.6840
 2.1660	 9.7160
 2.1670	 9.7350
 2.1680	 9.7420
 2.1690	 9.7600
 2.1700	 9.7740
 2.1710	 9.7920
 2.1720	 9.8230
 2.1730	 9.8420
 2.1740	 9.8480
 2.1750	 9.8670
 2.1760	 9.8910
 2.1770	 9.9100
 2.1780	 9.9410
 2.1790	 9.9580
 2.1800	 9.9500
 2.1810	 9.9600
 2.1820	 9.9770
 2.1830	 9.9910
 2.1840	10.0120
 2.1850	10.0500
 2.1860	10.0750
 2.1870	10.0950
 2.1880	10.1160
 2.1890	10.1310
 2.1900	10.1540
 2.1910	10.1800
 2.1920	10.2030
 2.1930	10.2300
 2.1940	10.2510
 2.1950	10.2590
 2.1960	10.2770
 2.1970	10.2970
 2.1980	10.3180
 2.1990	10.3440
 2.2000	10.3680
 2.2010	10.3950
 2.2020	10.4130
 2.2030	10.4230
 2.2040	10.4340
 2.2050	10.4360
 2.2060	10.4360
 2.2070	10.4530
 2.2080	10.4780
 2.2090	10.5030
 2.2100	10.5390
 2.2110	10.5710
 2.2120	10.6060
 2.2130	10.6360
 2.2140	10.6730
 2.2150	10.6930
 2.2160	10.7020
 2.2170	10.7100
 2.2180	10.7040
 2.2190	10.7070
 2.2200	10.7150
 2.2210	10.7170
 2.2220	10.7130
 2.2230	10.7190
 2.2240	10.7330
 2.2250	10.7340
 2.2260	10.7390
 2.2270	10.7330
 2.2280	10.7040
 2.2290	10.6840
 2.2300	10.6600
 2.2310	10.6480
 2.2320	10.6410
 2.2330	10.6370
 2.2340	10.6220
 2.2350	10.6060
 2.2360	10.5900
 2.2370	10.5650
 2.2380	10.5450
 2.2390	10.5350
 2.2400	10.5120
 2.2410	10.4820
 2.2420	10.4490
 2.2430	10.4080
 2.2440	10.3710
 2.2450	10.3330
 2.2460	10.2930
 2.2470	10.2490
 2.2480	10.2140
 2.2490	10.1850
 2.2500	10.1510
 2.2510	10.1260
 2.2520	10.0910
 2.2530	10.0370
 2.2540	 9.9990
 2.2550	 9.9680
 2.2560	 9.9340
 2.2570	 9.9120
 2.2580	 9.8770
 2.2590	 9.8260
 2.2600	 9.7850
 2.2610	 9.7450
 2.2620	 9.7020
 2.2630	 9.6650
 2.2640	 9.6280
 2.2650	 9.5950
 2.2660	 9.5590
 2.2670	 9.5270
 2.2680	 9.5010
 2.2690	 9.4720
 2.2700	 9.4460
 2.2710	 9.4140
 2.2720	 9.3780
 2.2730	 9.3460
 2.2740	 9.3010
 2.2750	 9.2750
 2.2760	 9.2660
 2.2770	 9.2420
 2.2780	 9.2150
 2.2790	 9.1950
 2.2800	 9.1710
 2.2810	 9.1470
 2.2820	 9.1390
 2.2830	 9.1170
 2.2840	 9.0800
 2.2850	 9.0560
 2.2860	 9.0420
 2.2870	 9.0190
 2.2880	 8.9940
 2.2890	 8.9670
 2.2900	 8.9290
 2.2910	 8.9000
 2.2920	 8.8770
 2.2930	 8.8560
 2.2940	 8.8460
 2.2950	 8.8220
 2.2960	 8.7870
 2.2970	 8.7610
 2.2980	 8.7340
 2.2990	 8.6970
 2.3000	 8.6860
 2.3010	 8.6820
 2.3020	 8.6600
 2.3030	 8.6290
 2.3040	 8.5970
 2.3050	 8.5610
 2.3060	 8.5420
 2.3070	 8.5400
 2.3080	 8.5310
 2.3090	 8.5210
 2.3100	 8.5110
 2.3110	 8.4920
 2.3120	 8.4670
 2.3130	 8.4330
 2.3140	 8.4130
 2.3150	 8.3900
 2.3160	 8.3800
 2.3170	 8.3910
 2.3180	 8.3830
 2.3190	 8.3700
 2.3200	 8.3600
 2.3210	 8.3520
 2.3220	 8.3350
 2.3230	 8.3150
 2.3240	 8.2950
 2.3250	 8.2650
 2.3260	 8.2390
 2.3270	 8.2200
 2.3280	 8.1930
 2.3290	 8.1580
 2.3300	 8.1320
 2.3310	 8.0970
 2.3320	 8.0830
 2.3330	 8.0940
 2.3340	 8.0870
 2.3350	 8.0960
 2.3360	 8.0780
 2.3370	 8.0160
 2.3380	 7.9920
 2.3390	 7.9720
 2.3400	 7.9570
 2.3410	 7.9750
 2.3420	 7.9700
 2.3430	 7.9580
 2.3440	 7.9370
 2.3450	 7.8950
 2.3460	 7.8740
 2.3470	 7.8490
 2.3480	 7.8320
 2.3490	 7.8400
 2.3500	 7.8310
 2.3510	 7.8100
 2.3520	 7.7970
 2.3530	 7.7910
 2.3540	 7.7760
 2.3550	 7.7580
 2.3560	 7.7580
 2.3570	 7.7500
 2.3580	 7.7600
 2.3590	 7.7720
 2.3600	 7.7560
 2.3610	 7.7480
 2.3620	 7.7230
 2.3630	 7.6800
 2.3640	 7.6660
 2.3650	 7.6550
 2.3660	 7.6470
 2.3670	 7.6590
 2.3680	 7.6620
 2.3690	 7.6440
 2.3700	 7.5950
 2.3710	 7.5570
 2.3720	 7.5470
 2.3730	 7.5330
 2.3740	 7.5410
 2.3750	 7.5420
 2.3760	 7.5200
 2.3770	 7.5200
 2.3780	 7.5070
 2.3790	 7.4710
 2.3800	 7.4470
 2.3810	 7.4170
 2.3820	 7.3790
 2.3830	 7.3740
 2.3840	 7.3680
 2.3850	 7.3550
 2.3860	 7.3620
 2.3870	 7.3680
 2.3880	 7.3590
 2.3890	 7.3350
 2.3900	 7.3050
 2.3910	 7.2640
 2.3920	 7.2150
 2.3930	 7.1880
 2.3940	 7.1770
 2.3950	 7.1630
 2.3960	 7.1670
 2.3970	 7.1660
 2.3980	 7.1400
 2.3990	 7.1340
 2.4000	 7.1150
 2.4010	 7.0850
 2.4020	 7.0780
 2.4030	 7.0350
 2.4040	 6.9800
 2.4050	 6.9540
 2.4060	 6.9340
 2.4070	 6.9350
 2.4080	 6.9560
 2.4090	 6.9570
 2.4100	 6.9430
 2.4110	 6.9500
 2.4120	 6.9400
 2.4130	 6.9140
 2.4140	 6.8960
 2.4150	 6.8550
 2.4160	 6.8150
 2.4170	 6.8000
 2.4180	 6.7810
 2.4190	 6.7730
 2.4200	 6.7950
 2.4210	 6.8070
 2.4220	 6.8040
 2.4230	 6.7500
 2.4240	 6.6560
 2.4250	 6.6050
 2.4260	 6.5670
 2.4270	 6.5330
 2.4280	 6.5520
 2.4290	 6.5670
 2.4300	 6.5580
 2.4310	 6.5710
 2.4320	 6.5700
 2.4330	 6.5210
 2.4340	 6.4970
 2.4350	 6.5160
 2.4360	 6.4990
 2.4370	 6.4630
 2.4380	 6.4280
 2.4390	 6.3410
 2.4400	 6.2880
 2.4410	 6.3000
 2.4420	 6.2780
 2.4430	 6.2780
 2.4440	 6.2720
 2.4450	 6.2610
 2.4460	 6.2910
 2.4470	 6.3090
 2.4480	 6.3240
 2.4490	 6.3120
 2.4500	 6.3000
 2.4510	 6.2900
 2.4520	 6.2920
 2.4530	 6.2970
 2.4540	 6.2490
 2.4550	 6.2330
 2.4560	 6.2400
 2.4570	 6.2830
 2.4580	 6.3370
 2.4590	 6.3010
 2.4600	 6.2230
 2.4610	 6.1100
 2.4620	 6.0380
 2.4630	 6.0570
 2.4640	 6.0920
 2.4650	 6.1420
 2.4660	 6.1490
 2.4670	 6.1050
 2.4680	 6.1060
 2.4690	 6.0740
 2.4700	 6.0490
 2.4710	 6.0310
 2.4720	 6.0020
 2.4730	 5.9870
 2.4740	 5.9710
 2.4750	 5.9410
 2.4760	 5.9150
 2.4770	 5.8490
 2.4780	 5.8430
 2.4790	 5.8950
 2.4800	 5.9260
 2.4810	 6.0160
 2.4820	 6.0470
 2.4830	 6.1010
 2.4840	 6.1780
 2.4850	 6.1040
 2.4860	 5.9930
 2.4870	 5.9200
 2.4880	 5.8490
 2.4890	 5.8730
 2.4900	 6.0000
 2.4910	 6.0750
 2.4920	 6.0760
 2.4930	 6.0710
 2.4940	 6.0030
 2.4950	 5.9090
 2.4960	 5.9420
 2.4970	 6.0800
 2.4980	 6.1900
 2.4990	 6.2910
 2.5000	 6.3800
