Name: Abies concolor 1
Type: vegetation
Class: Tree
Genus: Abies
Species: concolor
Sample No.: VH053
Owner: UCSB
Wavelength Range: TIR
Origin: 37.044; -119.3035; WGS84
Collection Date: 4/20/2013
Description: Samples were collected as part of the HyspIRI Airborne Campaign. 48 individual plants were sampled in three times in 2013 - spring  summer  and fall. The name of the sample includes a 1  2  or 3 which references a different individual of the species. Samples were taken to JPL and processed within 48 hours of collection. The same leaves were processed in the Nicolet and then measured using the ASD.
Measurement: Hemispherical reflectance
First Column: X
Second Column: Y
X Units: Wavelength (micrometers)
Y Units: Reflectance (percentage)
First X Value: 2.501
Last X Value: 15.387
Number of X Values: 1737
Additional Information: vegetation.tree.abies.concolor.tir.vh053.ucsb.nicolet.ancillary.txt

 2.5010	 5.4980
 2.5030	 5.5380
 2.5040	 5.4150
 2.5050	 5.4800
 2.5060	 5.4480
 2.5070	 5.3460
 2.5090	 5.4190
 2.5100	 5.4820
 2.5110	 5.5720
 2.5120	 5.6520
 2.5140	 5.5540
 2.5150	 5.5250
 2.5160	 5.4780
 2.5170	 5.4000
 2.5180	 5.4480
 2.5200	 5.3850
 2.5210	 5.3950
 2.5220	 5.4470
 2.5230	 5.5430
 2.5250	 5.5050
 2.5260	 5.5010
 2.5270	 5.6160
 2.5280	 5.6570
 2.5290	 5.5900
 2.5310	 5.4480
 2.5320	 5.4400
 2.5330	 5.6160
 2.5340	 5.6970
 2.5360	 5.5970
 2.5370	 5.4880
 2.5380	 5.4880
 2.5390	 5.4850
 2.5410	 5.4200
 2.5420	 5.4690
 2.5430	 5.5880
 2.5440	 5.5850
 2.5460	 5.5450
 2.5470	 5.5190
 2.5480	 5.5790
 2.5490	 5.5620
 2.5510	 5.5980
 2.5520	 5.5570
 2.5530	 5.6000
 2.5540	 5.6000
 2.5560	 5.5560
 2.5570	 5.5890
 2.5580	 5.5930
 2.5590	 5.5450
 2.5610	 5.5860
 2.5620	 5.5890
 2.5630	 5.5770
 2.5640	 5.6060
 2.5660	 5.6380
 2.5670	 5.6540
 2.5680	 5.6040
 2.5700	 5.5030
 2.5710	 5.5070
 2.5720	 5.6250
 2.5730	 5.6700
 2.5750	 5.7240
 2.5760	 5.6450
 2.5770	 5.6690
 2.5790	 5.8460
 2.5800	 5.8250
 2.5810	 5.6970
 2.5820	 5.5880
 2.5840	 5.5700
 2.5850	 5.5190
 2.5860	 5.4460
 2.5880	 5.4450
 2.5890	 5.5260
 2.5900	 5.6190
 2.5910	 5.6160
 2.5930	 5.6020
 2.5940	 5.5770
 2.5950	 5.5450
 2.5970	 5.5880
 2.5980	 5.5480
 2.5990	 5.4330
 2.6000	 5.4320
 2.6020	 5.5670
 2.6030	 5.5390
 2.6040	 5.4790
 2.6060	 5.4870
 2.6070	 5.4430
 2.6080	 5.3960
 2.6100	 5.4720
 2.6110	 5.4560
 2.6120	 5.4320
 2.6140	 5.4380
 2.6150	 5.5300
 2.6160	 5.3890
 2.6180	 5.2940
 2.6190	 5.3380
 2.6200	 5.4090
 2.6220	 5.3760
 2.6230	 5.3050
 2.6240	 5.2230
 2.6260	 5.2580
 2.6270	 5.2700
 2.6280	 5.2160
 2.6300	 5.1440
 2.6310	 5.0660
 2.6320	 5.0610
 2.6340	 5.1210
 2.6350	 5.0360
 2.6360	 5.0250
 2.6380	 4.9760
 2.6390	 4.9250
 2.6400	 4.9920
 2.6420	 5.0050
 2.6430	 4.9020
 2.6440	 4.7990
 2.6460	 4.7000
 2.6470	 4.6840
 2.6480	 4.7260
 2.6500	 4.8400
 2.6510	 4.8940
 2.6520	 4.8470
 2.6540	 4.7430
 2.6550	 4.6950
 2.6560	 4.7260
 2.6580	 4.7290
 2.6590	 4.6390
 2.6610	 4.5490
 2.6620	 4.5200
 2.6630	 4.5910
 2.6650	 4.6080
 2.6660	 4.5870
 2.6670	 4.5050
 2.6690	 4.4640
 2.6700	 4.4380
 2.6720	 4.3910
 2.6730	 4.2870
 2.6740	 4.3910
 2.6760	 4.4940
 2.6770	 4.4460
 2.6780	 4.3830
 2.6800	 4.3520
 2.6810	 4.1830
 2.6830	 4.0640
 2.6840	 4.0120
 2.6850	 4.0110
 2.6870	 3.9550
 2.6880	 3.9630
 2.6900	 4.0060
 2.6910	 3.9130
 2.6920	 3.8110
 2.6940	 3.7780
 2.6950	 3.7920
 2.6970	 3.8770
 2.6980	 3.8030
 2.6990	 3.7310
 2.7010	 3.6830
 2.7020	 3.6170
 2.7040	 3.5500
 2.7050	 3.5110
 2.7060	 3.3570
 2.7080	 3.3670
 2.7090	 3.4750
 2.7110	 3.4440
 2.7120	 3.3460
 2.7130	 3.4420
 2.7150	 3.4200
 2.7160	 3.2980
 2.7180	 3.2080
 2.7190	 3.2450
 2.7210	 3.2970
 2.7220	 3.3410
 2.7230	 3.3420
 2.7250	 3.2260
 2.7260	 3.0470
 2.7280	 3.0460
 2.7290	 3.0830
 2.7310	 3.0950
 2.7320	 3.0990
 2.7330	 3.0530
 2.7350	 2.9360
 2.7360	 2.9770
 2.7380	 2.9870
 2.7390	 2.9390
 2.7410	 2.9420
 2.7420	 3.0040
 2.7440	 2.9860
 2.7450	 3.0600
 2.7470	 3.0630
 2.7480	 3.0330
 2.7490	 3.0220
 2.7510	 3.0200
 2.7520	 2.9680
 2.7540	 2.9710
 2.7550	 2.9080
 2.7570	 2.8730
 2.7580	 2.8550
 2.7600	 2.9150
 2.7610	 2.9760
 2.7630	 2.9570
 2.7640	 2.9100
 2.7660	 2.8640
 2.7670	 2.8670
 2.7680	 2.9550
 2.7700	 2.9500
 2.7710	 2.9130
 2.7730	 2.9570
 2.7740	 3.0290
 2.7760	 2.9930
 2.7770	 2.9670
 2.7790	 2.9890
 2.7800	 2.9360
 2.7820	 2.8380
 2.7830	 2.8700
 2.7850	 2.8860
 2.7860	 2.9560
 2.7880	 2.9510
 2.7890	 2.9360
 2.7910	 2.9420
 2.7920	 2.9810
 2.7940	 2.9550
 2.7950	 2.9660
 2.7970	 2.9080
 2.7980	 2.8370
 2.8000	 2.8900
 2.8010	 2.9750
 2.8030	 2.9610
 2.8040	 2.8650
 2.8060	 2.8220
 2.8070	 2.9660
 2.8090	 3.0170
 2.8110	 2.9280
 2.8120	 2.8950
 2.8140	 2.9950
 2.8150	 2.9350
 2.8170	 2.9190
 2.8180	 2.9420
 2.8200	 2.9300
 2.8210	 2.9430
 2.8230	 2.9250
 2.8240	 2.9020
 2.8260	 2.9270
 2.8270	 2.9510
 2.8290	 2.9290
 2.8300	 2.8720
 2.8320	 2.8590
 2.8340	 2.8130
 2.8350	 2.7650
 2.8370	 2.7310
 2.8380	 2.7580
 2.8400	 2.8140
 2.8410	 2.8890
 2.8430	 2.9150
 2.8440	 2.8020
 2.8460	 2.6870
 2.8480	 2.7400
 2.8490	 2.7860
 2.8510	 2.8510
 2.8520	 2.9260
 2.8540	 2.9610
 2.8550	 2.9210
 2.8570	 2.8750
 2.8590	 2.9100
 2.8600	 2.9530
 2.8620	 2.8130
 2.8630	 2.7050
 2.8650	 2.7670
 2.8660	 2.8900
 2.8680	 2.9340
 2.8700	 2.9080
 2.8710	 2.8630
 2.8730	 2.8800
 2.8740	 2.8440
 2.8760	 2.7830
 2.8780	 2.7920
 2.8790	 2.8240
 2.8810	 2.6830
 2.8820	 2.6790
 2.8840	 2.6720
 2.8860	 2.5650
 2.8870	 2.6280
 2.8890	 2.8420
 2.8900	 2.8070
 2.8920	 2.8080
 2.8940	 2.8390
 2.8950	 2.7410
 2.8970	 2.6550
 2.8980	 2.7700
 2.9000	 2.8250
 2.9020	 2.7620
 2.9030	 2.7400
 2.9050	 2.8090
 2.9070	 2.8110
 2.9080	 2.8530
 2.9100	 2.8990
 2.9120	 2.9340
 2.9130	 2.9040
 2.9150	 2.8840
 2.9160	 2.7970
 2.9180	 2.9050
 2.9200	 3.0700
 2.9210	 2.9380
 2.9230	 2.6260
 2.9250	 2.6850
 2.9260	 2.8520
 2.9280	 2.8900
 2.9300	 2.8720
 2.9310	 2.8790
 2.9330	 2.8480
 2.9350	 2.8010
 2.9360	 2.7640
 2.9380	 2.8250
 2.9400	 2.8100
 2.9410	 2.7740
 2.9430	 2.6480
 2.9450	 2.5770
 2.9460	 2.6050
 2.9480	 2.6840
 2.9500	 2.7120
 2.9510	 2.7220
 2.9530	 2.7600
 2.9550	 2.9130
 2.9560	 2.9150
 2.9580	 2.9300
 2.9600	 2.9470
 2.9610	 2.9340
 2.9630	 2.8380
 2.9650	 2.8780
 2.9660	 2.8620
 2.9680	 2.4600
 2.9700	 2.1510
 2.9720	 2.5570
 2.9730	 3.0230
 2.9750	 3.0800
 2.9770	 2.8120
 2.9780	 2.5590
 2.9800	 2.8350
 2.9820	 2.8470
 2.9840	 2.5600
 2.9850	 2.4070
 2.9870	 2.6290
 2.9890	 2.7030
 2.9900	 2.9580
 2.9920	 3.0090
 2.9940	 3.0450
 2.9960	 3.3820
 2.9970	 3.1260
 2.9990	 2.8890
 3.0010	 2.7260
 3.0030	 2.6110
 3.0040	 2.8310
 3.0060	 3.0840
 3.0080	 2.7690
 3.0100	 2.4420
 3.0110	 2.5420
 3.0130	 2.8570
 3.0150	 2.9340
 3.0170	 2.8680
 3.0180	 2.9030
 3.0200	 2.9380
 3.0220	 2.9020
 3.0240	 2.7650
 3.0250	 2.7710
 3.0270	 2.8380
 3.0290	 2.7510
 3.0310	 2.6570
 3.0320	 2.7610
 3.0340	 2.7920
 3.0360	 2.5250
 3.0380	 2.5100
 3.0400	 3.1140
 3.0410	 3.7880
 3.0430	 4.0990
 3.0450	 3.6670
 3.0470	 3.1400
 3.0480	 3.0280
 3.0500	 3.1300
 3.0520	 3.1920
 3.0540	 2.8390
 3.0560	 2.6840
 3.0570	 2.8550
 3.0590	 2.6970
 3.0610	 2.3930
 3.0630	 2.3620
 3.0650	 2.4970
 3.0660	 2.7540
 3.0680	 2.7800
 3.0700	 2.8990
 3.0720	 2.9290
 3.0740	 2.8730
 3.0760	 2.7870
 3.0770	 2.7930
 3.0790	 2.8440
 3.0810	 2.8970
 3.0830	 2.8630
 3.0850	 2.8390
 3.0870	 2.8110
 3.0880	 2.8470
 3.0900	 2.9350
 3.0920	 2.9560
 3.0940	 2.9350
 3.0960	 2.9300
 3.0980	 2.8070
 3.0990	 2.7540
 3.1010	 2.7850
 3.1030	 2.7440
 3.1050	 2.7780
 3.1070	 2.9120
 3.1090	 2.7630
 3.1110	 2.6330
 3.1120	 2.6190
 3.1140	 2.7330
 3.1160	 2.9550
 3.1180	 2.9600
 3.1200	 2.8580
 3.1220	 2.9310
 3.1240	 2.9880
 3.1260	 2.8910
 3.1270	 2.7970
 3.1290	 2.7640
 3.1310	 2.8370
 3.1330	 2.9180
 3.1350	 2.8320
 3.1370	 2.7240
 3.1390	 2.6540
 3.1410	 2.6060
 3.1430	 2.7520
 3.1450	 2.8180
 3.1460	 2.7600
 3.1480	 2.7710
 3.1500	 2.8620
 3.1520	 2.7980
 3.1540	 2.7040
 3.1560	 2.8470
 3.1580	 2.9200
 3.1600	 2.7950
 3.1620	 2.7530
 3.1640	 2.9450
 3.1660	 3.1220
 3.1680	 3.1320
 3.1700	 3.1150
 3.1710	 3.0250
 3.1730	 3.2400
 3.1750	 3.0950
 3.1770	 2.7740
 3.1790	 3.1820
 3.1810	 3.1620
 3.1830	 2.8870
 3.1850	 2.7360
 3.1870	 2.7070
 3.1890	 2.8380
 3.1910	 2.8380
 3.1930	 2.8180
 3.1950	 2.8640
 3.1970	 2.8130
 3.1990	 2.8110
 3.2010	 2.8300
 3.2030	 2.7920
 3.2050	 2.7770
 3.2070	 2.8020
 3.2090	 2.8330
 3.2110	 2.8190
 3.2130	 2.7700
 3.2150	 2.7510
 3.2170	 2.7090
 3.2190	 2.6770
 3.2210	 2.6790
 3.2230	 2.8140
 3.2250	 2.8020
 3.2270	 2.7120
 3.2290	 2.6630
 3.2310	 2.6530
 3.2330	 2.6540
 3.2350	 2.7290
 3.2370	 2.7640
 3.2390	 2.8240
 3.2410	 2.7950
 3.2430	 2.7030
 3.2450	 2.7340
 3.2470	 2.7880
 3.2490	 2.7730
 3.2510	 2.7870
 3.2530	 2.8540
 3.2550	 2.8340
 3.2570	 2.8230
 3.2590	 2.8710
 3.2610	 2.8060
 3.2630	 2.7830
 3.2650	 2.8140
 3.2670	 2.8310
 3.2690	 2.7470
 3.2720	 2.7650
 3.2740	 2.7190
 3.2760	 2.6540
 3.2780	 2.6930
 3.2800	 2.7790
 3.2820	 2.7260
 3.2840	 2.6430
 3.2860	 2.7510
 3.2880	 2.8100
 3.2900	 2.6830
 3.2920	 2.6980
 3.2940	 2.7020
 3.2960	 2.6710
 3.2990	 2.6430
 3.3010	 2.6900
 3.3030	 2.7420
 3.3050	 2.7990
 3.3070	 2.7640
 3.3090	 2.7000
 3.3110	 2.6860
 3.3130	 2.7330
 3.3150	 2.7760
 3.3180	 2.7460
 3.3200	 2.7650
 3.3220	 2.7940
 3.3240	 2.7260
 3.3260	 2.6600
 3.3280	 2.5780
 3.3300	 2.6120
 3.3330	 2.7070
 3.3350	 2.7210
 3.3370	 2.6280
 3.3390	 2.6690
 3.3410	 2.7190
 3.3430	 2.6770
 3.3450	 2.6980
 3.3480	 2.6570
 3.3500	 2.5580
 3.3520	 2.5190
 3.3540	 2.4850
 3.3560	 2.4630
 3.3580	 2.4360
 3.3610	 2.4070
 3.3630	 2.3740
 3.3650	 2.3640
 3.3670	 2.3990
 3.3690	 2.4040
 3.3720	 2.3760
 3.3740	 2.3690
 3.3760	 2.3530
 3.3780	 2.3440
 3.3800	 2.3420
 3.3830	 2.3350
 3.3850	 2.2500
 3.3870	 2.2440
 3.3890	 2.1920
 3.3910	 2.1850
 3.3940	 2.1790
 3.3960	 2.2290
 3.3980	 2.2840
 3.4000	 2.3600
 3.4020	 2.3320
 3.4050	 2.2400
 3.4070	 2.2300
 3.4090	 2.2680
 3.4110	 2.2670
 3.4140	 2.3430
 3.4160	 2.5270
 3.4180	 2.7200
 3.4200	 2.8780
 3.4230	 3.1670
 3.4250	 3.5720
 3.4270	 4.0230
 3.4290	 4.3250
 3.4320	 4.3390
 3.4340	 4.1740
 3.4360	 3.9730
 3.4390	 3.7660
 3.4410	 3.6110
 3.4430	 3.5570
 3.4450	 3.4860
 3.4480	 3.3550
 3.4500	 3.3190
 3.4520	 3.3070
 3.4550	 3.3220
 3.4570	 3.3340
 3.4590	 3.2880
 3.4620	 3.3130
 3.4640	 3.3390
 3.4660	 3.2560
 3.4680	 3.1200
 3.4710	 3.0890
 3.4730	 3.1080
 3.4750	 3.1440
 3.4780	 3.1310
 3.4800	 3.0590
 3.4820	 2.9560
 3.4850	 2.9380
 3.4870	 2.9060
 3.4890	 2.8330
 3.4920	 2.8550
 3.4940	 2.8560
 3.4970	 2.8000
 3.4990	 2.6590
 3.5010	 2.6710
 3.5040	 2.9320
 3.5060	 3.2680
 3.5080	 3.7130
 3.5110	 4.1020
 3.5130	 4.2490
 3.5160	 4.1840
 3.5180	 4.0080
 3.5200	 3.8430
 3.5230	 3.7250
 3.5250	 3.6950
 3.5270	 3.6260
 3.5300	 3.5980
 3.5320	 3.5620
 3.5350	 3.5370
 3.5370	 3.5510
 3.5400	 3.5790
 3.5420	 3.5150
 3.5440	 3.4720
 3.5470	 3.4340
 3.5490	 3.4180
 3.5520	 3.4650
 3.5540	 3.4950
 3.5570	 3.4370
 3.5590	 3.3870
 3.5610	 3.3660
 3.5640	 3.3830
 3.5660	 3.4610
 3.5690	 3.4200
 3.5710	 3.3820
 3.5740	 3.3970
 3.5760	 3.4220
 3.5790	 3.3890
 3.5810	 3.3800
 3.5840	 3.4330
 3.5860	 3.4490
 3.5890	 3.4270
 3.5910	 3.3360
 3.5930	 3.2750
 3.5960	 3.3220
 3.5980	 3.4130
 3.6010	 3.4720
 3.6030	 3.5320
 3.6060	 3.5280
 3.6080	 3.4940
 3.6110	 3.3770
 3.6140	 3.2570
 3.6160	 3.2900
 3.6190	 3.2950
 3.6210	 3.3110
 3.6240	 3.3440
 3.6260	 3.3500
 3.6290	 3.3840
 3.6310	 3.4030
 3.6340	 3.3860
 3.6360	 3.3700
 3.6390	 3.2850
 3.6410	 3.3060
 3.6440	 3.3340
 3.6470	 3.3210
 3.6490	 3.3200
 3.6520	 3.3430
 3.6540	 3.3690
 3.6570	 3.3560
 3.6590	 3.3040
 3.6620	 3.3000
 3.6650	 3.3120
 3.6670	 3.3720
 3.6700	 3.3860
 3.6720	 3.3040
 3.6750	 3.3230
 3.6780	 3.3890
 3.6800	 3.4620
 3.6830	 3.4630
 3.6850	 3.3990
 3.6880	 3.3800
 3.6910	 3.4370
 3.6930	 3.4070
 3.6960	 3.3890
 3.6990	 3.3980
 3.7010	 3.3300
 3.7040	 3.3480
 3.7060	 3.3760
 3.7090	 3.3240
 3.7120	 3.3350
 3.7140	 3.3630
 3.7170	 3.3620
 3.7200	 3.3310
 3.7220	 3.3130
 3.7250	 3.4020
 3.7280	 3.5150
 3.7300	 3.5240
 3.7330	 3.4150
 3.7360	 3.3410
 3.7390	 3.3670
 3.7410	 3.3610
 3.7440	 3.3770
 3.7470	 3.4860
 3.7490	 3.5370
 3.7520	 3.4310
 3.7550	 3.3640
 3.7580	 3.4790
 3.7600	 3.4960
 3.7630	 3.4240
 3.7660	 3.4740
 3.7680	 3.6010
 3.7710	 3.5560
 3.7740	 3.4710
 3.7770	 3.4760
 3.7790	 3.4790
 3.7820	 3.4820
 3.7850	 3.4770
 3.7880	 3.4930
 3.7900	 3.4670
 3.7930	 3.5200
 3.7960	 3.5680
 3.7990	 3.5450
 3.8020	 3.5420
 3.8040	 3.5320
 3.8070	 3.5220
 3.8100	 3.5160
 3.8130	 3.5030
 3.8160	 3.5060
 3.8180	 3.5730
 3.8210	 3.5950
 3.8240	 3.5950
 3.8270	 3.5890
 3.8300	 3.5800
 3.8330	 3.6300
 3.8350	 3.6460
 3.8380	 3.5550
 3.8410	 3.5360
 3.8440	 3.5770
 3.8470	 3.5980
 3.8500	 3.5570
 3.8520	 3.5810
 3.8550	 3.6060
 3.8580	 3.5340
 3.8610	 3.5160
 3.8640	 3.5990
 3.8670	 3.6010
 3.8700	 3.5660
 3.8730	 3.5820
 3.8750	 3.6210
 3.8780	 3.6160
 3.8810	 3.5890
 3.8840	 3.5610
 3.8870	 3.5680
 3.8900	 3.5730
 3.8930	 3.5830
 3.8960	 3.6240
 3.8990	 3.6320
 3.9020	 3.6180
 3.9050	 3.6430
 3.9080	 3.6750
 3.9110	 3.6800
 3.9140	 3.6840
 3.9160	 3.6680
 3.9190	 3.6510
 3.9220	 3.6520
 3.9250	 3.6410
 3.9280	 3.7060
 3.9310	 3.7110
 3.9340	 3.6890
 3.9370	 3.7090
 3.9400	 3.6950
 3.9430	 3.6930
 3.9460	 3.6940
 3.9490	 3.6950
 3.9520	 3.7270
 3.9550	 3.7180
 3.9580	 3.6670
 3.9610	 3.6340
 3.9640	 3.6440
 3.9670	 3.6300
 3.9700	 3.6810
 3.9730	 3.7270
 3.9770	 3.7460
 3.9800	 3.7360
 3.9830	 3.7060
 3.9860	 3.6530
 3.9890	 3.6700
 3.9920	 3.6910
 3.9950	 3.7090
 3.9980	 3.7060
 4.0010	 3.6860
 4.0040	 3.6590
 4.0070	 3.6640
 4.0100	 3.6990
 4.0130	 3.6820
 4.0170	 3.6580
 4.0200	 3.6730
 4.0230	 3.7060
 4.0260	 3.7170
 4.0290	 3.7110
 4.0320	 3.7420
 4.0350	 3.7480
 4.0380	 3.7040
 4.0420	 3.7170
 4.0450	 3.7680
 4.0480	 3.7620
 4.0510	 3.7060
 4.0540	 3.6970
 4.0570	 3.7370
 4.0610	 3.6980
 4.0640	 3.6910
 4.0670	 3.7030
 4.0700	 3.7200
 4.0730	 3.7390
 4.0770	 3.7480
 4.0800	 3.7520
 4.0830	 3.7320
 4.0860	 3.7720
 4.0890	 3.8340
 4.0930	 3.7770
 4.0960	 3.7800
 4.0990	 3.7730
 4.1020	 3.7750
 4.1060	 3.7650
 4.1090	 3.7870
 4.1120	 3.8410
 4.1150	 3.8530
 4.1190	 3.8580
 4.1220	 3.8920
 4.1250	 3.8780
 4.1280	 3.9180
 4.1320	 3.8950
 4.1350	 3.8170
 4.1380	 3.7790
 4.1420	 3.8430
 4.1450	 3.8310
 4.1480	 3.8060
 4.1520	 3.7750
 4.1550	 3.7540
 4.1580	 3.7840
 4.1620	 3.8190
 4.1650	 3.7850
 4.1680	 3.7800
 4.1720	 3.7440
 4.1750	 3.7730
 4.1780	 3.7830
 4.1820	 3.7630
 4.1850	 3.7700
 4.1890	 3.8150
 4.1920	 3.7880
 4.1950	 3.8140
 4.1990	 3.8020
 4.2020	 3.8230
 4.2060	 3.8580
 4.2090	 3.8260
 4.2120	 3.7370
 4.2160	 3.7390
 4.2190	 3.7330
 4.2230	 3.7600
 4.2260	 3.7420
 4.2300	 3.7010
 4.2330	 3.5850
 4.2360	 3.6430
 4.2400	 3.6050
 4.2430	 3.6560
 4.2470	 3.6920
 4.2500	 3.7510
 4.2540	 3.7490
 4.2570	 3.7020
 4.2610	 3.7150
 4.2640	 3.8080
 4.2680	 3.8470
 4.2710	 3.8300
 4.2750	 3.6560
 4.2780	 3.5500
 4.2820	 3.6280
 4.2850	 3.7420
 4.2890	 3.6630
 4.2930	 3.6830
 4.2960	 3.7050
 4.3000	 3.7160
 4.3030	 3.6730
 4.3070	 3.6930
 4.3100	 3.7910
 4.3140	 3.7960
 4.3180	 3.7160
 4.3210	 3.7410
 4.3250	 3.7260
 4.3280	 3.6950
 4.3320	 3.6380
 4.3360	 3.6660
 4.3390	 3.6660
 4.3430	 3.6160
 4.3470	 3.6140
 4.3500	 3.6560
 4.3540	 3.6540
 4.3570	 3.6700
 4.3610	 3.5980
 4.3650	 3.5950
 4.3680	 3.6050
 4.3720	 3.6380
 4.3760	 3.5900
 4.3800	 3.6100
 4.3830	 3.5910
 4.3870	 3.6080
 4.3910	 3.6070
 4.3940	 3.5660
 4.3980	 3.5140
 4.4020	 3.5470
 4.4060	 3.5880
 4.4090	 3.5470
 4.4130	 3.5120
 4.4170	 3.5570
 4.4210	 3.5640
 4.4240	 3.5460
 4.4280	 3.5290
 4.4320	 3.5270
 4.4360	 3.5110
 4.4400	 3.5520
 4.4430	 3.5490
 4.4470	 3.4930
 4.4510	 3.4620
 4.4550	 3.4890
 4.4590	 3.4920
 4.4620	 3.4810
 4.4660	 3.4620
 4.4700	 3.4550
 4.4740	 3.4200
 4.4780	 3.4350
 4.4820	 3.4600
 4.4860	 3.4800
 4.4900	 3.4890
 4.4930	 3.4900
 4.4970	 3.4470
 4.5010	 3.4350
 4.5050	 3.4390
 4.5090	 3.3930
 4.5130	 3.3430
 4.5170	 3.3610
 4.5210	 3.3770
 4.5250	 3.3720
 4.5290	 3.3820
 4.5330	 3.4680
 4.5370	 3.4340
 4.5410	 3.4030
 4.5450	 3.3980
 4.5490	 3.3790
 4.5530	 3.3520
 4.5570	 3.3800
 4.5610	 3.3370
 4.5650	 3.2960
 4.5690	 3.3280
 4.5730	 3.3880
 4.5770	 3.3460
 4.5810	 3.3190
 4.5850	 3.2790
 4.5890	 3.3210
 4.5930	 3.3080
 4.5970	 3.3020
 4.6010	 3.3300
 4.6050	 3.3650
 4.6090	 3.3540
 4.6130	 3.3020
 4.6170	 3.1980
 4.6220	 3.2570
 4.6260	 3.3400
 4.6300	 3.2940
 4.6340	 3.2820
 4.6380	 3.3510
 4.6420	 3.3430
 4.6460	 3.3460
 4.6510	 3.2780
 4.6550	 3.2960
 4.6590	 3.3370
 4.6630	 3.3710
 4.6670	 3.3070
 4.6720	 3.2760
 4.6760	 3.2660
 4.6800	 3.2890
 4.6840	 3.2670
 4.6880	 3.3010
 4.6930	 3.3110
 4.6970	 3.2830
 4.7010	 3.2580
 4.7050	 3.2910
 4.7100	 3.2240
 4.7140	 3.2100
 4.7180	 3.2300
 4.7230	 3.3180
 4.7270	 3.2980
 4.7310	 3.2620
 4.7360	 3.2500
 4.7400	 3.3250
 4.7440	 3.3340
 4.7490	 3.3260
 4.7530	 3.3460
 4.7570	 3.3810
 4.7620	 3.2790
 4.7660	 3.2390
 4.7700	 3.2210
 4.7750	 3.2550
 4.7790	 3.2220
 4.7840	 3.2790
 4.7880	 3.4040
 4.7920	 3.3920
 4.7970	 3.2500
 4.8010	 3.2240
 4.8060	 3.2270
 4.8100	 3.2620
 4.8150	 3.2740
 4.8190	 3.2730
 4.8240	 3.2520
 4.8280	 3.3110
 4.8330	 3.3130
 4.8370	 3.2880
 4.8420	 3.2470
 4.8460	 3.2790
 4.8510	 3.2760
 4.8550	 3.2810
 4.8600	 3.2500
 4.8640	 3.2770
 4.8690	 3.2790
 4.8730	 3.2920
 4.8780	 3.3110
 4.8830	 3.3730
 4.8870	 3.3820
 4.8920	 3.3460
 4.8960	 3.3450
 4.9010	 3.3370
 4.9060	 3.3010
 4.9100	 3.3670
 4.9150	 3.3730
 4.9200	 3.3850
 4.9240	 3.3540
 4.9290	 3.3700
 4.9340	 3.3000
 4.9380	 3.2640
 4.9430	 3.2970
 4.9480	 3.3710
 4.9530	 3.3970
 4.9570	 3.3770
 4.9620	 3.3260
 4.9670	 3.3870
 4.9720	 3.4250
 4.9760	 3.4320
 4.9810	 3.3580
 4.9860	 3.3960
 4.9910	 3.3940
 4.9960	 3.3810
 5.0000	 3.4110
 5.0050	 3.4310
 5.0100	 3.3550
 5.0150	 3.4060
 5.0200	 3.4990
 5.0250	 3.5250
 5.0290	 3.4270
 5.0340	 3.4240
 5.0390	 3.4140
 5.0440	 3.4010
 5.0490	 3.4440
 5.0540	 3.5190
 5.0590	 3.4410
 5.0640	 3.4730
 5.0690	 3.4990
 5.0740	 3.4700
 5.0790	 3.4460
 5.0840	 3.4660
 5.0890	 3.4510
 5.0940	 3.4910
 5.0990	 3.5150
 5.1040	 3.5670
 5.1090	 3.5150
 5.1140	 3.5250
 5.1190	 3.4980
 5.1240	 3.5160
 5.1290	 3.5030
 5.1340	 3.5160
 5.1390	 3.4810
 5.1440	 3.5200
 5.1490	 3.5370
 5.1540	 3.5450
 5.1600	 3.4980
 5.1650	 3.4860
 5.1700	 3.4290
 5.1750	 3.4630
 5.1800	 3.4550
 5.1850	 3.5060
 5.1910	 3.4660
 5.1960	 3.4250
 5.2010	 3.4670
 5.2060	 3.5550
 5.2110	 3.5030
 5.2170	 3.5000
 5.2220	 3.4830
 5.2270	 3.4540
 5.2320	 3.4420
 5.2380	 3.4720
 5.2430	 3.4080
 5.2480	 3.4370
 5.2540	 3.4950
 5.2590	 3.5360
 5.2640	 3.5020
 5.2700	 3.5590
 5.2750	 3.5070
 5.2800	 3.4690
 5.2860	 3.4410
 5.2910	 3.4910
 5.2970	 3.4610
 5.3020	 3.4660
 5.3070	 3.4260
 5.3130	 3.4480
 5.3180	 3.4370
 5.3240	 3.4810
 5.3290	 3.4550
 5.3350	 3.5140
 5.3400	 3.5070
 5.3460	 3.4780
 5.3510	 3.4310
 5.3570	 3.4130
 5.3620	 3.3360
 5.3680	 3.3280
 5.3730	 3.3440
 5.3790	 3.4080
 5.3850	 3.3710
 5.3900	 3.3690
 5.3960	 3.3430
 5.4010	 3.3310
 5.4070	 3.3420
 5.4130	 3.3610
 5.4180	 3.3080
 5.4240	 3.3310
 5.4300	 3.2880
 5.4350	 3.2910
 5.4410	 3.2900
 5.4470	 3.3270
 5.4530	 3.2980
 5.4580	 3.3450
 5.4640	 3.3280
 5.4700	 3.3070
 5.4760	 3.2250
 5.4810	 3.2440
 5.4870	 3.2320
 5.4930	 3.2720
 5.4990	 3.2030
 5.5050	 3.1680
 5.5110	 3.1040
 5.5160	 3.0990
 5.5220	 3.0880
 5.5280	 3.1450
 5.5340	 3.1050
 5.5400	 3.0850
 5.5460	 3.0200
 5.5520	 3.0270
 5.5580	 2.9400
 5.5640	 2.9650
 5.5700	 2.9370
 5.5760	 2.9590
 5.5820	 2.9110
 5.5880	 2.8770
 5.5940	 2.8000
 5.6000	 2.8380
 5.6060	 2.8540
 5.6120	 2.8570
 5.6180	 2.7290
 5.6240	 2.7250
 5.6300	 2.6690
 5.6360	 2.6390
 5.6420	 2.6160
 5.6490	 2.6390
 5.6550	 2.5810
 5.6610	 2.5330
 5.6670	 2.4270
 5.6730	 2.4540
 5.6800	 2.3400
 5.6860	 2.2550
 5.6920	 2.1530
 5.6980	 2.1360
 5.7040	 2.0840
 5.7110	 2.1270
 5.7170	 2.0850
 5.7230	 2.0250
 5.7300	 1.9190
 5.7360	 1.9620
 5.7420	 2.0170
 5.7490	 2.1930
 5.7550	 2.3650
 5.7620	 2.7270
 5.7680	 2.9790
 5.7740	 3.1150
 5.7810	 3.1100
 5.7870	 3.1400
 5.7940	 3.1540
 5.8000	 3.1470
 5.8070	 3.0200
 5.8130	 3.0070
 5.8200	 2.9960
 5.8260	 3.0400
 5.8330	 2.9480
 5.8390	 2.9570
 5.8460	 2.9760
 5.8530	 3.0960
 5.8590	 3.0750
 5.8660	 3.0870
 5.8720	 3.0540
 5.8790	 3.0990
 5.8860	 3.0640
 5.8920	 3.1410
 5.8990	 3.1830
 5.9060	 3.2140
 5.9130	 3.1150
 5.9190	 3.1150
 5.9260	 3.1290
 5.9330	 3.1600
 5.9400	 3.1710
 5.9470	 3.2800
 5.9530	 3.2080
 5.9600	 3.2560
 5.9670	 3.2750
 5.9740	 3.3430
 5.9810	 3.2130
 5.9880	 3.2180
 5.9950	 3.2490
 6.0020	 3.2980
 6.0090	 3.1860
 6.0160	 3.1770
 6.0230	 3.1510
 6.0300	 3.1730
 6.0370	 3.1330
 6.0440	 3.1630
 6.0510	 3.1320
 6.0580	 3.2140
 6.0650	 3.1610
 6.0720	 3.1880
 6.0790	 3.1500
 6.0860	 3.2510
 6.0930	 3.2920
 6.1000	 3.3410
 6.1080	 3.3660
 6.1150	 3.4620
 6.1220	 3.4440
 6.1290	 3.5270
 6.1370	 3.5180
 6.1440	 3.5440
 6.1510	 3.5400
 6.1580	 3.6710
 6.1660	 3.6400
 6.1730	 3.6930
 6.1800	 3.6790
 6.1880	 3.7290
 6.1950	 3.5870
 6.2030	 3.5480
 6.2100	 3.4880
 6.2170	 3.4920
 6.2250	 3.4770
 6.2320	 3.5780
 6.2400	 3.5790
 6.2470	 3.6070
 6.2550	 3.4740
 6.2630	 3.4990
 6.2700	 3.4280
 6.2780	 3.4510
 6.2850	 3.3130
 6.2930	 3.2820
 6.3010	 3.1720
 6.3080	 3.2510
 6.3160	 3.2450
 6.3240	 3.2620
 6.3310	 3.2030
 6.3390	 3.2630
 6.3470	 3.1770
 6.3550	 3.2090
 6.3620	 3.1630
 6.3700	 3.1970
 6.3780	 3.0820
 6.3860	 3.0360
 6.3940	 3.0380
 6.4020	 3.1360
 6.4100	 3.1180
 6.4180	 3.1300
 6.4260	 3.0340
 6.4330	 3.0540
 6.4410	 3.0000
 6.4490	 3.0500
 6.4580	 3.0160
 6.4660	 3.0620
 6.4740	 3.0100
 6.4820	 3.0770
 6.4900	 2.9950
 6.4980	 3.0400
 6.5060	 2.9920
 6.5140	 2.9760
 6.5230	 2.9120
 6.5310	 2.9480
 6.5390	 2.8770
 6.5470	 2.8650
 6.5550	 2.7590
 6.5640	 2.8150
 6.5720	 2.7980
 6.5800	 2.8390
 6.5890	 2.8050
 6.5970	 2.8300
 6.6060	 2.7630
 6.6140	 2.8290
 6.6220	 2.7970
 6.6310	 2.8150
 6.6390	 2.7310
 6.6480	 2.7580
 6.6560	 2.7510
 6.6650	 2.8990
 6.6740	 2.8850
 6.6820	 2.8740
 6.6910	 2.8220
 6.6990	 2.8190
 6.7080	 2.7340
 6.7170	 2.7540
 6.7260	 2.7120
 6.7340	 2.6780
 6.7430	 2.5630
 6.7520	 2.5890
 6.7610	 2.5830
 6.7690	 2.7120
 6.7780	 2.6980
 6.7870	 2.8320
 6.7960	 2.9120
 6.8050	 2.9230
 6.8140	 2.7960
 6.8230	 2.9010
 6.8320	 2.9670
 6.8410	 3.1090
 6.8500	 3.0670
 6.8590	 3.1070
 6.8680	 3.0070
 6.8770	 2.9520
 6.8860	 2.8650
 6.8950	 2.9830
 6.9050	 2.9340
 6.9140	 2.9520
 6.9230	 2.9000
 6.9320	 2.9500
 6.9420	 2.8170
 6.9510	 2.8260
 6.9600	 2.7980
 6.9700	 2.8240
 6.9790	 2.7860
 6.9880	 2.9000
 6.9980	 2.8500
 7.0070	 2.8980
 7.0170	 2.8500
 7.0260	 2.8400
 7.0360	 2.7460
 7.0450	 2.8130
 7.0550	 2.7790
 7.0650	 2.8560
 7.0740	 2.7930
 7.0840	 2.8600
 7.0940	 2.8540
 7.1030	 2.9350
 7.1130	 2.8720
 7.1230	 2.8870
 7.1330	 2.8390
 7.1420	 2.8920
 7.1520	 2.8090
 7.1620	 2.9120
 7.1720	 2.8710
 7.1820	 2.9130
 7.1920	 2.7960
 7.2020	 2.7810
 7.2120	 2.7130
 7.2220	 2.8260
 7.2320	 2.7540
 7.2420	 2.7650
 7.2520	 2.7330
 7.2620	 2.7830
 7.2730	 2.7610
 7.2830	 2.8770
 7.2930	 2.8190
 7.3030	 2.7810
 7.3140	 2.6540
 7.3240	 2.6780
 7.3340	 2.5830
 7.3450	 2.5990
 7.3550	 2.5840
 7.3660	 2.7390
 7.3760	 2.7160
 7.3870	 2.7820
 7.3970	 2.7130
 7.4080	 2.7470
 7.4180	 2.6390
 7.4290	 2.7310
 7.4400	 2.7440
 7.4500	 2.8000
 7.4610	 2.7390
 7.4720	 2.7940
 7.4830	 2.6520
 7.4930	 2.7080
 7.5040	 2.7220
 7.5150	 2.8230
 7.5260	 2.6860
 7.5370	 2.7430
 7.5480	 2.7710
 7.5590	 2.8450
 7.5700	 2.7530
 7.5810	 2.8690
 7.5920	 2.8920
 7.6030	 2.9810
 7.6140	 2.9280
 7.6260	 3.0190
 7.6370	 2.8360
 7.6480	 2.8230
 7.6590	 2.7520
 7.6710	 2.7750
 7.6820	 2.6790
 7.6930	 2.7050
 7.7050	 2.6340
 7.7160	 2.7280
 7.7280	 2.6580
 7.7390	 2.6380
 7.7510	 2.5390
 7.7630	 2.5570
 7.7740	 2.5030
 7.7860	 2.7050
 7.7980	 2.6220
 7.8090	 2.5750
 7.8210	 2.5420
 7.8330	 2.6260
 7.8450	 2.5190
 7.8570	 2.6310
 7.8690	 2.6070
 7.8810	 2.6280
 7.8930	 2.5710
 7.9050	 2.6200
 7.9170	 2.5210
 7.9290	 2.6680
 7.9410	 2.6630
 7.9530	 2.7210
 7.9650	 2.5470
 7.9780	 2.5980
 7.9900	 2.5640
 8.0020	 2.6670
 8.0150	 2.5430
 8.0270	 2.6290
 8.0390	 2.6340
 8.0520	 2.7880
 8.0640	 2.6310
 8.0770	 2.6290
 8.0900	 2.5950
 8.1020	 2.7760
 8.1150	 2.7620
 8.1280	 2.8330
 8.1400	 2.6230
 8.1530	 2.7050
 8.1660	 2.5490
 8.1790	 2.6200
 8.1920	 2.6400
 8.2050	 2.7310
 8.2180	 2.5650
 8.2310	 2.6940
 8.2440	 2.6100
 8.2570	 2.6780
 8.2700	 2.5590
 8.2830	 2.6310
 8.2970	 2.5590
 8.3100	 2.6330
 8.3230	 2.4610
 8.3370	 2.5760
 8.3500	 2.5170
 8.3640	 2.6730
 8.3770	 2.6740
 8.3910	 2.9090
 8.4040	 2.7890
 8.4180	 2.7020
 8.4320	 2.5460
 8.4450	 2.6690
 8.4590	 2.6410
 8.4730	 2.7810
 8.4870	 2.6950
 8.5010	 2.7970
 8.5150	 2.7120
 8.5290	 2.7510
 8.5430	 2.7030
 8.5570	 2.8900
 8.5710	 2.8060
 8.5850	 2.9650
 8.5990	 2.9710
 8.6140	 2.9850
 8.6280	 2.8120
 8.6420	 3.0440
 8.6570	 2.9540
 8.6710	 2.9860
 8.6860	 2.8780
 8.7000	 3.0190
 8.7150	 2.8870
 8.7300	 3.0120
 8.7440	 2.9700
 8.7590	 3.0590
 8.7740	 2.8650
 8.7890	 2.9260
 8.8040	 2.7940
 8.8190	 3.0220
 8.8340	 2.9650
 8.8490	 3.0800
 8.8640	 2.8970
 8.8790	 2.9080
 8.8940	 2.8330
 8.9100	 2.9710
 8.9250	 2.8710
 8.9400	 3.0080
 8.9560	 2.9610
 8.9710	 3.1070
 8.9870	 2.9880
 9.0020	 3.1040
 9.0180	 2.9970
 9.0340	 3.0830
 9.0500	 2.9750
 9.0650	 3.1500
 9.0810	 2.9560
 9.0970	 2.9170
 9.1130	 2.9050
 9.1290	 3.1080
 9.1450	 2.9220
 9.1610	 2.9040
 9.1780	 2.8320
 9.1940	 3.1120
 9.2100	 3.0190
 9.2270	 3.1070
 9.2430	 2.8810
 9.2600	 3.0010
 9.2760	 3.0030
 9.2930	 3.2400
 9.3090	 2.9960
 9.3260	 3.0020
 9.3430	 2.9230
 9.3600	 3.1010
 9.3770	 2.9860
 9.3940	 3.1670
 9.4110	 3.0270
 9.4280	 3.1270
 9.4450	 3.0410
 9.4620	 3.1310
 9.4800	 2.8820
 9.4970	 3.1780
 9.5140	 3.1570
 9.5320	 3.2430
 9.5500	 3.0370
 9.5670	 3.2040
 9.5850	 3.0870
 9.6030	 3.1510
 9.6200	 3.0270
 9.6380	 3.2250
 9.6560	 3.1240
 9.6740	 3.2240
 9.6920	 3.1690
 9.7100	 3.3360
 9.7290	 3.2180
 9.7470	 3.3340
 9.7650	 3.0970
 9.7840	 3.1490
 9.8020	 3.1380
 9.8210	 3.2440
 9.8390	 3.0130
 9.8580	 3.0910
 9.8770	 2.9900
 9.8960	 3.2330
 9.9150	 3.0970
 9.9340	 3.1780
 9.9530	 3.1250
 9.9720	 3.2160
 9.9910	 3.0340
10.0100	 3.1510
10.0300	 3.0860
10.0490	 3.1740
10.0690	 2.9880
10.0880	 3.1040
10.1080	 2.9630
10.1280	 3.0740
10.1480	 2.8940
10.1670	 3.0500
10.1870	 2.9970
10.2070	 3.1180
10.2280	 3.0200
10.2480	 3.0650
10.2680	 2.9540
10.2890	 2.9680
10.3090	 2.7790
10.3300	 2.9800
10.3500	 2.9180
10.3710	 3.0340
10.3920	 2.8090
10.4120	 2.8340
10.4330	 2.7040
10.4540	 3.0040
10.4760	 3.0190
10.4970	 3.1430
10.5180	 2.8850
10.5390	 3.0260
10.5610	 2.9210
10.5820	 3.0070
10.6040	 2.8740
10.6260	 3.1110
10.6480	 3.0400
10.6700	 3.0850
10.6920	 2.8260
10.7140	 2.9570
10.7360	 2.8470
10.7580	 2.9270
10.7800	 2.8060
10.8030	 3.0060
10.8250	 2.9420
10.8480	 3.0650
10.8710	 2.8830
10.8940	 3.0960
10.9170	 2.9110
10.9400	 3.0220
10.9630	 2.8490
10.9860	 2.8940
11.0090	 2.7290
11.0330	 2.9820
11.0560	 2.8830
11.0800	 3.0820
11.1040	 2.8730
11.1270	 3.0580
11.1510	 2.9560
11.1750	 3.0320
11.2000	 2.8690
11.2240	 2.9960
11.2480	 2.9110
11.2730	 3.1280
11.2970	 3.3130
11.3220	 3.3900
11.3470	 2.9340
11.3720	 3.0210
11.3970	 2.8090
11.4220	 2.8840
11.4470	 2.8060
11.4720	 3.2090
11.4980	 2.9660
11.5230	 2.8950
11.5490	 2.6250
11.5750	 2.9690
11.6000	 2.9290
11.6260	 3.0090
11.6530	 2.7520
11.6790	 2.9670
11.7050	 2.7520
11.7320	 2.9480
11.7580	 2.8660
11.7850	 3.0050
11.8120	 2.8290
11.8390	 2.9950
11.8660	 2.7970
11.8930	 2.9430
11.9200	 2.6220
11.9480	 2.7580
11.9760	 2.6480
12.0030	 2.8380
12.0310	 2.6080
12.0590	 2.7400
12.0870	 2.7310
12.1150	 3.0030
12.1440	 2.6480
12.1720	 2.7270
12.2010	 2.5870
12.2300	 2.8440
12.2590	 2.6900
12.2880	 2.7910
12.3170	 2.5250
12.3460	 2.8350
12.3760	 2.7030
12.4050	 2.8430
12.4350	 2.5980
12.4650	 2.8860
12.4950	 2.7350
12.5250	 2.9420
12.5550	 2.6360
12.5860	 2.8080
12.6170	 2.5160
12.6470	 2.7880
12.6780	 2.7390
12.7090	 2.9440
12.7410	 2.7400
12.7720	 3.0010
12.8030	 2.9210
12.8350	 3.1010
12.8670	 2.7960
12.8990	 2.8820
12.9310	 2.5840
12.9640	 2.7450
12.9960	 2.4880
13.0290	 2.6890
13.0610	 2.4450
13.0940	 2.6830
13.1280	 2.5490
13.1610	 2.9230
13.1940	 2.6580
13.2280	 2.8100
13.2620	 2.6270
13.2960	 2.7340
13.3300	 2.3810
13.3640	 2.5950
13.3990	 2.4560
13.4340	 2.9430
13.4690	 2.7080
13.5040	 2.8040
13.5390	 2.5880
13.5740	 2.9240
13.6100	 2.6470
13.6460	 2.9380
13.6820	 2.6920
13.7180	 3.0370
13.7540	 2.7840
13.7910	 3.0180
13.8280	 2.7370
13.8650	 3.2650
13.9020	 3.2050
13.9390	 3.2280
13.9770	 2.7120
14.0150	 3.0800
14.0530	 2.7520
14.0910	 2.8530
14.1290	 2.4730
14.1680	 3.0090
14.2070	 2.6460
14.2460	 2.7370
14.2850	 2.4760
14.3240	 3.1080
14.3640	 2.6450
14.4040	 2.7220
14.4440	 2.5420
14.4840	 3.0740
14.5250	 2.4900
14.5660	 2.8790
14.6070	 2.5590
14.6480	 2.9770
14.6900	 2.5210
14.7310	 3.1640
14.7730	 2.7730
14.8150	 3.2190
14.8580	 2.8340
14.9010	 3.2170
14.9440	 1.4490
14.9870	 2.3510
15.0300	 2.7730
15.0740	 2.9790
15.1180	 2.3720
15.1620	 3.2550
15.2060	 2.4720
15.2510	 2.9250
15.2960	 2.4040
15.3410	 3.0260
15.3870	 2.6530
