Name: Aloe arborescens flower
Type: vegetation
Class: Shrub
Genus: Aloe
Species: arborescens_flower
Sample No.: JPL074
Owner: JPL
Wavelength Range: VSWIR
Origin: 34.12593; - 118.10983; WGS84
Collection Date: 2/2/2016
Description: Samples were collected at the Huntington Garden in San Marino California as part of a JPL Subcontract studying HyTES imagery. Samples were taken to JPL and processed within 48 hours of collection. The same leaves were processed in the Nicolet and then measured using the ASD.
Measurement: Bidirectional reflectance
First Column: X
Second Column: Y
X Units: Wavelength (micrometer)
Y Units: Reflectance (percentage)
First X Value: 0.35
Last X Value: 2.5
Number of X Values: 2151
Additional Information: 

 0.3500	 5.8910
 0.3510	 5.1510
 0.3520	 5.2800
 0.3530	 5.7150
 0.3540	 5.3700
 0.3550	 3.2650
 0.3560	 3.0530
 0.3570	 4.4660
 0.3580	 5.1050
 0.3590	 4.7050
 0.3600	 4.5890
 0.3610	 5.0940
 0.3620	 5.0020
 0.3630	 4.3020
 0.3640	 3.6810
 0.3650	 3.7710
 0.3660	 4.3920
 0.3670	 4.1650
 0.3680	 3.4620
 0.3690	 3.7710
 0.3700	 4.4980
 0.3710	 4.4800
 0.3720	 3.5560
 0.3730	 3.4990
 0.3740	 4.3640
 0.3750	 4.7390
 0.3760	 3.6080
 0.3770	 4.0660
 0.3780	 4.5650
 0.3790	 4.4130
 0.3800	 3.9050
 0.3810	 3.9400
 0.3820	 4.5460
 0.3830	 5.2520
 0.3840	 4.9670
 0.3850	 4.7040
 0.3860	 4.6850
 0.3870	 4.7900
 0.3880	 4.8390
 0.3890	 5.0270
 0.3900	 5.1340
 0.3910	 4.5520
 0.3920	 3.9090
 0.3930	 3.7500
 0.3940	 4.2420
 0.3950	 4.7970
 0.3960	 4.9450
 0.3970	 4.6800
 0.3980	 4.3060
 0.3990	 4.1870
 0.4000	 4.4950
 0.4010	 4.9680
 0.4020	 4.8550
 0.4030	 4.6360
 0.4040	 4.6590
 0.4050	 4.9670
 0.4060	 4.6950
 0.4070	 4.5900
 0.4080	 4.8130
 0.4090	 5.0930
 0.4100	 5.0400
 0.4110	 4.9060
 0.4120	 4.8750
 0.4130	 4.8370
 0.4140	 4.9650
 0.4150	 5.1040
 0.4160	 5.0580
 0.4170	 4.9520
 0.4180	 4.8960
 0.4190	 4.8850
 0.4200	 4.8200
 0.4210	 4.8860
 0.4220	 4.9240
 0.4230	 4.8440
 0.4240	 4.8860
 0.4250	 5.0270
 0.4260	 5.1280
 0.4270	 5.0390
 0.4280	 4.9330
 0.4290	 4.8990
 0.4300	 4.9420
 0.4310	 4.9630
 0.4320	 4.9500
 0.4330	 4.9270
 0.4340	 4.9160
 0.4350	 4.8900
 0.4360	 4.9470
 0.4370	 5.0170
 0.4380	 4.9170
 0.4390	 4.8870
 0.4400	 4.9270
 0.4410	 4.9750
 0.4420	 4.9020
 0.4430	 4.9050
 0.4440	 4.9580
 0.4450	 4.9640
 0.4460	 4.9890
 0.4470	 4.9800
 0.4480	 4.9290
 0.4490	 4.8870
 0.4500	 4.9310
 0.4510	 4.9880
 0.4520	 4.9770
 0.4530	 4.9060
 0.4540	 4.8820
 0.4550	 4.9060
 0.4560	 4.9100
 0.4570	 4.8960
 0.4580	 4.9350
 0.4590	 5.0130
 0.4600	 4.9400
 0.4610	 4.9140
 0.4620	 4.9570
 0.4630	 5.0090
 0.4640	 4.9410
 0.4650	 4.8500
 0.4660	 4.8250
 0.4670	 4.9220
 0.4680	 4.9160
 0.4690	 4.8570
 0.4700	 4.8320
 0.4710	 4.8520
 0.4720	 4.8980
 0.4730	 4.9340
 0.4740	 4.9160
 0.4750	 4.8060
 0.4760	 4.6870
 0.4770	 4.6660
 0.4780	 4.8890
 0.4790	 4.9000
 0.4800	 4.8080
 0.4810	 4.8250
 0.4820	 4.7910
 0.4830	 4.7720
 0.4840	 4.7950
 0.4850	 4.8420
 0.4860	 4.9140
 0.4870	 4.8890
 0.4880	 4.7490
 0.4890	 4.7780
 0.4900	 4.8830
 0.4910	 4.9480
 0.4920	 4.8770
 0.4930	 4.9120
 0.4940	 4.9370
 0.4950	 4.9060
 0.4960	 4.9240
 0.4970	 4.9870
 0.4980	 5.0480
 0.4990	 5.0650
 0.5000	 5.0560
 0.5010	 5.0610
 0.5020	 5.0760
 0.5030	 5.0680
 0.5040	 5.1200
 0.5050	 5.1850
 0.5060	 5.2230
 0.5070	 5.2620
 0.5080	 5.2670
 0.5090	 5.2730
 0.5100	 5.3280
 0.5110	 5.3790
 0.5120	 5.4120
 0.5130	 5.4260
 0.5140	 5.4360
 0.5150	 5.4760
 0.5160	 5.5170
 0.5170	 5.5310
 0.5180	 5.5780
 0.5190	 5.6470
 0.5200	 5.7120
 0.5210	 5.7360
 0.5220	 5.7400
 0.5230	 5.7800
 0.5240	 5.8660
 0.5250	 5.8950
 0.5260	 5.9450
 0.5270	 5.9910
 0.5280	 5.9900
 0.5290	 6.0250
 0.5300	 6.0710
 0.5310	 6.1120
 0.5320	 6.1490
 0.5330	 6.1680
 0.5340	 6.1970
 0.5350	 6.2530
 0.5360	 6.2940
 0.5370	 6.3340
 0.5380	 6.3760
 0.5390	 6.4100
 0.5400	 6.4150
 0.5410	 6.4230
 0.5420	 6.4630
 0.5430	 6.5490
 0.5440	 6.6200
 0.5450	 6.6700
 0.5460	 6.7220
 0.5470	 6.8220
 0.5480	 6.9130
 0.5490	 6.9810
 0.5500	 7.0790
 0.5510	 7.1690
 0.5520	 7.2670
 0.5530	 7.3870
 0.5540	 7.4950
 0.5550	 7.6140
 0.5560	 7.7460
 0.5570	 7.8830
 0.5580	 8.0440
 0.5590	 8.2050
 0.5600	 8.3660
 0.5610	 8.5840
 0.5620	 8.7820
 0.5630	 8.9740
 0.5640	 9.2040
 0.5650	 9.4650
 0.5660	 9.7240
 0.5670	 9.9770
 0.5680	10.2580
 0.5690	10.5340
 0.5700	10.8340
 0.5710	11.1780
 0.5720	11.5010
 0.5730	11.8440
 0.5740	12.2170
 0.5750	12.6110
 0.5760	13.0320
 0.5770	13.4670
 0.5780	13.9090
 0.5790	14.3600
 0.5800	14.8300
 0.5810	15.3100
 0.5820	15.7880
 0.5830	16.2780
 0.5840	16.7940
 0.5850	17.3290
 0.5860	17.8460
 0.5870	18.3960
 0.5880	18.9650
 0.5890	19.5440
 0.5900	20.1530
 0.5910	20.7610
 0.5920	21.3470
 0.5930	21.9080
 0.5940	22.5230
 0.5950	23.1360
 0.5960	23.7040
 0.5970	24.2440
 0.5980	24.7610
 0.5990	25.2760
 0.6000	25.8000
 0.6010	26.2740
 0.6020	26.7470
 0.6030	27.2130
 0.6040	27.6140
 0.6050	28.0080
 0.6060	28.3710
 0.6070	28.6790
 0.6080	28.9630
 0.6090	29.2020
 0.6100	29.3790
 0.6110	29.4930
 0.6120	29.6740
 0.6130	29.8650
 0.6140	30.0210
 0.6150	30.1400
 0.6160	30.2600
 0.6170	30.3540
 0.6180	30.4040
 0.6190	30.4690
 0.6200	30.5630
 0.6210	30.6710
 0.6220	30.7610
 0.6230	30.8520
 0.6240	30.9450
 0.6250	31.0440
 0.6260	31.1790
 0.6270	31.2950
 0.6280	31.3890
 0.6290	31.4830
 0.6300	31.6220
 0.6310	31.7570
 0.6320	31.8680
 0.6330	31.9720
 0.6340	32.0300
 0.6350	32.0690
 0.6360	32.1080
 0.6370	32.0980
 0.6380	32.0310
 0.6390	31.9320
 0.6400	31.8390
 0.6410	31.7090
 0.6420	31.5320
 0.6430	31.3150
 0.6440	31.0780
 0.6450	30.8240
 0.6460	30.5590
 0.6470	30.2880
 0.6480	30.0200
 0.6490	29.7430
 0.6500	29.4710
 0.6510	29.2330
 0.6520	28.9770
 0.6530	28.7170
 0.6540	28.4500
 0.6550	28.1110
 0.6560	27.7400
 0.6570	27.3270
 0.6580	26.8460
 0.6590	26.2730
 0.6600	25.6650
 0.6610	25.0470
 0.6620	24.3990
 0.6630	23.7090
 0.6640	23.0120
 0.6650	22.3470
 0.6660	21.7250
 0.6670	21.1620
 0.6680	20.6540
 0.6690	20.1840
 0.6700	19.7510
 0.6710	19.4160
 0.6720	19.1820
 0.6730	18.9720
 0.6740	18.7930
 0.6750	18.6540
 0.6760	18.5630
 0.6770	18.5210
 0.6780	18.5110
 0.6790	18.5690
 0.6800	18.7600
 0.6810	19.0650
 0.6820	19.4890
 0.6830	20.0610
 0.6840	20.8500
 0.6850	21.8530
 0.6860	23.0420
 0.6870	24.3880
 0.6880	25.9000
 0.6890	27.5380
 0.6900	29.2720
 0.6910	31.0790
 0.6920	32.9110
 0.6930	34.7550
 0.6940	36.6010
 0.6950	38.4140
 0.6960	40.2280
 0.6970	42.0070
 0.6980	43.7060
 0.6990	45.3580
 0.7000	46.9490
 0.7010	48.4820
 0.7020	49.9660
 0.7030	51.3370
 0.7040	52.6100
 0.7050	53.8200
 0.7060	55.0090
 0.7070	56.1670
 0.7080	57.2670
 0.7090	58.2850
 0.7100	59.2460
 0.7110	60.2040
 0.7120	61.1480
 0.7130	62.0050
 0.7140	62.8700
 0.7150	63.7050
 0.7160	64.4790
 0.7170	65.2530
 0.7180	66.0380
 0.7190	66.7740
 0.7200	67.4020
 0.7210	68.0580
 0.7220	68.7000
 0.7230	69.3060
 0.7240	69.8870
 0.7250	70.4080
 0.7260	70.8890
 0.7270	71.3600
 0.7280	71.8310
 0.7290	72.2420
 0.7300	72.5870
 0.7310	72.8940
 0.7320	73.2070
 0.7330	73.5070
 0.7340	73.7760
 0.7350	74.0010
 0.7360	74.2150
 0.7370	74.4320
 0.7380	74.6500
 0.7390	74.8290
 0.7400	75.0080
 0.7410	75.1900
 0.7420	75.3560
 0.7430	75.4750
 0.7440	75.5810
 0.7450	75.7040
 0.7460	75.8560
 0.7470	75.9240
 0.7480	75.9850
 0.7490	76.0860
 0.7500	76.1440
 0.7510	76.1900
 0.7520	76.2260
 0.7530	76.2510
 0.7540	76.3070
 0.7550	76.3810
 0.7560	76.4420
 0.7570	76.4500
 0.7580	76.4630
 0.7590	76.4890
 0.7600	76.5290
 0.7610	76.5920
 0.7620	76.5520
 0.7630	76.4950
 0.7640	76.5300
 0.7650	76.5880
 0.7660	76.6060
 0.7670	76.6060
 0.7680	76.6500
 0.7690	76.6650
 0.7700	76.6380
 0.7710	76.5950
 0.7720	76.6030
 0.7730	76.6660
 0.7740	76.7080
 0.7750	76.6900
 0.7760	76.7510
 0.7770	76.7460
 0.7780	76.7330
 0.7790	76.8210
 0.7800	76.8040
 0.7810	76.8110
 0.7820	76.8750
 0.7830	76.9170
 0.7840	76.9330
 0.7850	76.9570
 0.7860	76.9940
 0.7870	76.9640
 0.7880	77.0030
 0.7890	77.0720
 0.7900	77.1000
 0.7910	77.1330
 0.7920	77.1430
 0.7930	77.1500
 0.7940	77.2070
 0.7950	77.2890
 0.7960	77.3230
 0.7970	77.3190
 0.7980	77.3990
 0.7990	77.4140
 0.8000	77.4180
 0.8010	77.4680
 0.8020	77.5210
 0.8030	77.5480
 0.8040	77.5660
 0.8050	77.5990
 0.8060	77.5750
 0.8070	77.5920
 0.8080	77.6520
 0.8090	77.6730
 0.8100	77.7260
 0.8110	77.7610
 0.8120	77.7490
 0.8130	77.7270
 0.8140	77.7540
 0.8150	77.8210
 0.8160	77.8850
 0.8170	77.8640
 0.8180	77.8270
 0.8190	77.8070
 0.8200	77.8130
 0.8210	77.8010
 0.8220	77.7900
 0.8230	77.7730
 0.8240	77.7230
 0.8250	77.7130
 0.8260	77.7020
 0.8270	77.6540
 0.8280	77.5670
 0.8290	77.4570
 0.8300	77.3900
 0.8310	77.3900
 0.8320	77.3220
 0.8330	77.2590
 0.8340	77.2110
 0.8350	77.1680
 0.8360	77.1370
 0.8370	77.1170
 0.8380	77.1020
 0.8390	77.0930
 0.8400	77.0970
 0.8410	77.0890
 0.8420	77.0640
 0.8430	77.0440
 0.8440	77.0110
 0.8450	77.0220
 0.8460	77.0890
 0.8470	77.0690
 0.8480	77.0630
 0.8490	77.0700
 0.8500	77.0570
 0.8510	76.9960
 0.8520	76.9620
 0.8530	76.9580
 0.8540	76.9460
 0.8550	76.9190
 0.8560	76.8880
 0.8570	76.8710
 0.8580	76.8870
 0.8590	76.9330
 0.8600	76.9480
 0.8610	76.8980
 0.8620	76.8080
 0.8630	76.7680
 0.8640	76.7770
 0.8650	76.7910
 0.8660	76.7220
 0.8670	76.6770
 0.8680	76.6420
 0.8690	76.5860
 0.8700	76.6300
 0.8710	76.5850
 0.8720	76.4750
 0.8730	76.4400
 0.8740	76.4370
 0.8750	76.4580
 0.8760	76.4570
 0.8770	76.3660
 0.8780	76.3100
 0.8790	76.2610
 0.8800	76.1930
 0.8810	76.1160
 0.8820	76.0560
 0.8830	76.0240
 0.8840	76.0070
 0.8850	75.9430
 0.8860	75.8870
 0.8870	75.8520
 0.8880	75.8180
 0.8890	75.6910
 0.8900	75.6530
 0.8910	75.6330
 0.8920	75.5040
 0.8930	75.4650
 0.8940	75.4230
 0.8950	75.3860
 0.8960	75.3980
 0.8970	75.2810
 0.8980	75.1770
 0.8990	75.1340
 0.9000	75.0870
 0.9010	75.0920
 0.9020	75.0460
 0.9030	74.9400
 0.9040	74.9060
 0.9050	74.8120
 0.9060	74.7710
 0.9070	74.8050
 0.9080	74.6940
 0.9090	74.5230
 0.9100	74.4040
 0.9110	74.3860
 0.9120	74.3400
 0.9130	74.2700
 0.9140	74.1740
 0.9150	74.0570
 0.9160	73.9140
 0.9170	73.8640
 0.9180	73.8000
 0.9190	73.5900
 0.9200	73.4690
 0.9210	73.3940
 0.9220	73.2640
 0.9230	73.0060
 0.9240	72.8790
 0.9250	72.6710
 0.9260	72.3780
 0.9270	72.1660
 0.9280	71.9940
 0.9290	71.7520
 0.9300	71.4430
 0.9310	71.1680
 0.9320	70.8640
 0.9330	70.5710
 0.9340	70.2940
 0.9350	69.9840
 0.9360	69.6960
 0.9370	69.3850
 0.9380	69.0360
 0.9390	68.6970
 0.9400	68.2640
 0.9410	67.8760
 0.9420	67.5910
 0.9430	67.2520
 0.9440	66.7950
 0.9450	66.3680
 0.9460	66.0380
 0.9470	65.6030
 0.9480	65.0330
 0.9490	64.4400
 0.9500	63.9240
 0.9510	63.4540
 0.9520	62.9620
 0.9530	62.4110
 0.9540	61.8270
 0.9550	61.3390
 0.9560	60.8800
 0.9570	60.4710
 0.9580	60.1290
 0.9590	59.7740
 0.9600	59.3870
 0.9610	59.0710
 0.9620	58.8990
 0.9630	58.6570
 0.9640	58.4770
 0.9650	58.4130
 0.9660	58.4250
 0.9670	58.2520
 0.9680	58.1210
 0.9690	58.0440
 0.9700	57.9410
 0.9710	57.7950
 0.9720	57.8010
 0.9730	57.8630
 0.9740	57.8150
 0.9750	57.8720
 0.9760	57.7440
 0.9770	57.6040
 0.9780	57.7470
 0.9790	57.9130
 0.9800	57.9490
 0.9810	57.8920
 0.9820	57.8960
 0.9830	58.1270
 0.9840	58.1910
 0.9850	58.1260
 0.9860	58.1690
 0.9870	58.2770
 0.9880	58.4260
 0.9890	58.5550
 0.9900	58.6160
 0.9910	58.6880
 0.9920	58.7120
 0.9930	58.8130
 0.9940	59.0910
 0.9950	59.1300
 0.9960	59.3430
 0.9970	59.6140
 0.9980	59.6590
 0.9990	59.6490
 1.0000	59.7950
 1.0010	60.2400
 1.0020	60.4270
 1.0030	60.6100
 1.0040	60.8610
 1.0050	61.1430
 1.0060	61.3540
 1.0070	61.5290
 1.0080	61.7340
 1.0090	61.9330
 1.0100	62.1310
 1.0110	62.3420
 1.0120	62.5520
 1.0130	62.7520
 1.0140	62.9640
 1.0150	63.1820
 1.0160	63.4230
 1.0170	63.6500
 1.0180	63.8520
 1.0190	64.0230
 1.0200	64.1970
 1.0210	64.4230
 1.0220	64.6290
 1.0230	64.8470
 1.0240	65.1150
 1.0250	65.3370
 1.0260	65.5220
 1.0270	65.7220
 1.0280	65.9310
 1.0290	66.1220
 1.0300	66.2790
 1.0310	66.4740
 1.0320	66.7050
 1.0330	66.8840
 1.0340	67.0650
 1.0350	67.2740
 1.0360	67.4340
 1.0370	67.6120
 1.0380	67.8030
 1.0390	68.0470
 1.0400	68.2080
 1.0410	68.3320
 1.0420	68.4670
 1.0430	68.5480
 1.0440	68.6710
 1.0450	68.8200
 1.0460	68.9730
 1.0470	69.1580
 1.0480	69.3090
 1.0490	69.4560
 1.0500	69.5930
 1.0510	69.7000
 1.0520	69.8090
 1.0530	69.9110
 1.0540	70.0180
 1.0550	70.1060
 1.0560	70.1750
 1.0570	70.2490
 1.0580	70.3130
 1.0590	70.3860
 1.0600	70.4790
 1.0610	70.5350
 1.0620	70.5630
 1.0630	70.6130
 1.0640	70.6600
 1.0650	70.6930
 1.0660	70.7570
 1.0670	70.7810
 1.0680	70.7790
 1.0690	70.7240
 1.0700	70.7200
 1.0710	70.7110
 1.0720	70.7150
 1.0730	70.7550
 1.0740	70.7550
 1.0750	70.7420
 1.0760	70.7200
 1.0770	70.6770
 1.0780	70.6440
 1.0790	70.6170
 1.0800	70.5730
 1.0810	70.5340
 1.0820	70.4730
 1.0830	70.3910
 1.0840	70.3070
 1.0850	70.2110
 1.0860	70.1210
 1.0870	70.0040
 1.0880	69.8630
 1.0890	69.7550
 1.0900	69.6400
 1.0910	69.5400
 1.0920	69.4920
 1.0930	69.3780
 1.0940	69.2280
 1.0950	69.0920
 1.0960	68.9300
 1.0970	68.7840
 1.0980	68.6540
 1.0990	68.5200
 1.1000	68.3850
 1.1010	68.2440
 1.1020	68.0990
 1.1030	67.9630
 1.1040	67.8110
 1.1050	67.6700
 1.1060	67.5160
 1.1070	67.3540
 1.1080	67.2010
 1.1090	67.0400
 1.1100	66.9000
 1.1110	66.8010
 1.1120	66.6480
 1.1130	66.4790
 1.1140	66.3040
 1.1150	66.0850
 1.1160	65.8930
 1.1170	65.7430
 1.1180	65.5410
 1.1190	65.3290
 1.1200	65.0870
 1.1210	64.8290
 1.1220	64.5200
 1.1230	64.2070
 1.1240	63.8900
 1.1250	63.5090
 1.1260	63.1000
 1.1270	62.6380
 1.1280	62.1150
 1.1290	61.5770
 1.1300	61.0030
 1.1310	60.4020
 1.1320	59.7810
 1.1330	59.1220
 1.1340	58.4350
 1.1350	57.7080
 1.1360	56.9340
 1.1370	56.1390
 1.1380	55.3390
 1.1390	54.5280
 1.1400	53.7530
 1.1410	53.0100
 1.1420	52.2710
 1.1430	51.5420
 1.1440	50.8410
 1.1450	50.1470
 1.1460	49.4940
 1.1470	48.8580
 1.1480	48.2890
 1.1490	47.7490
 1.1500	47.2710
 1.1510	46.8610
 1.1520	46.4680
 1.1530	46.1150
 1.1540	45.7900
 1.1550	45.4970
 1.1560	45.2320
 1.1570	45.0060
 1.1580	44.8010
 1.1590	44.6080
 1.1600	44.4490
 1.1610	44.2980
 1.1620	44.1720
 1.1630	44.0700
 1.1640	43.9880
 1.1650	43.9150
 1.1660	43.8630
 1.1670	43.8030
 1.1680	43.7510
 1.1690	43.6950
 1.1700	43.6390
 1.1710	43.5880
 1.1720	43.5390
 1.1730	43.4950
 1.1740	43.4550
 1.1750	43.4150
 1.1760	43.3930
 1.1770	43.3680
 1.1780	43.3390
 1.1790	43.2950
 1.1800	43.2370
 1.1810	43.1790
 1.1820	43.1330
 1.1830	43.0900
 1.1840	43.0540
 1.1850	43.0290
 1.1860	42.9900
 1.1870	42.9590
 1.1880	42.9280
 1.1890	42.8910
 1.1900	42.8640
 1.1910	42.8390
 1.1920	42.8200
 1.1930	42.8140
 1.1940	42.8040
 1.1950	42.7930
 1.1960	42.7930
 1.1970	42.7780
 1.1980	42.7760
 1.1990	42.7830
 1.2000	42.7910
 1.2010	42.8260
 1.2020	42.8540
 1.2030	42.8850
 1.2040	42.9210
 1.2050	42.9440
 1.2060	42.9700
 1.2070	43.0120
 1.2080	43.0560
 1.2090	43.1040
 1.2100	43.1680
 1.2110	43.2190
 1.2120	43.2570
 1.2130	43.3030
 1.2140	43.3450
 1.2150	43.3940
 1.2160	43.4470
 1.2170	43.5090
 1.2180	43.5630
 1.2190	43.6260
 1.2200	43.6910
 1.2210	43.7430
 1.2220	43.8090
 1.2230	43.8780
 1.2240	43.9340
 1.2250	43.9860
 1.2260	44.0310
 1.2270	44.0780
 1.2280	44.1330
 1.2290	44.2040
 1.2300	44.2750
 1.2310	44.3270
 1.2320	44.3770
 1.2330	44.4240
 1.2340	44.4830
 1.2350	44.5540
 1.2360	44.6210
 1.2370	44.6950
 1.2380	44.7640
 1.2390	44.8110
 1.2400	44.8690
 1.2410	44.9250
 1.2420	44.9690
 1.2430	45.0350
 1.2440	45.1000
 1.2450	45.1460
 1.2460	45.1990
 1.2470	45.2430
 1.2480	45.2740
 1.2490	45.3230
 1.2500	45.3670
 1.2510	45.4070
 1.2520	45.4640
 1.2530	45.5020
 1.2540	45.5390
 1.2550	45.5840
 1.2560	45.6130
 1.2570	45.6430
 1.2580	45.6790
 1.2590	45.7090
 1.2600	45.7420
 1.2610	45.7630
 1.2620	45.7750
 1.2630	45.7830
 1.2640	45.8000
 1.2650	45.8060
 1.2660	45.8120
 1.2670	45.8200
 1.2680	45.8040
 1.2690	45.7940
 1.2700	45.7790
 1.2710	45.7390
 1.2720	45.7050
 1.2730	45.6580
 1.2740	45.6140
 1.2750	45.5980
 1.2760	45.5640
 1.2770	45.5150
 1.2780	45.4530
 1.2790	45.3650
 1.2800	45.2780
 1.2810	45.1900
 1.2820	45.0930
 1.2830	44.9990
 1.2840	44.9030
 1.2850	44.7960
 1.2860	44.6960
 1.2870	44.5880
 1.2880	44.4770
 1.2890	44.3520
 1.2900	44.2350
 1.2910	44.1080
 1.2920	43.9780
 1.2930	43.8510
 1.2940	43.7100
 1.2950	43.5480
 1.2960	43.3770
 1.2970	43.2010
 1.2980	43.0140
 1.2990	42.8400
 1.3000	42.6660
 1.3010	42.4790
 1.3020	42.2970
 1.3030	42.0980
 1.3040	41.8760
 1.3050	41.6440
 1.3060	41.4030
 1.3070	41.1540
 1.3080	40.9110
 1.3090	40.6620
 1.3100	40.4020
 1.3110	40.1450
 1.3120	39.8780
 1.3130	39.5990
 1.3140	39.3230
 1.3150	39.0470
 1.3160	38.7630
 1.3170	38.4710
 1.3180	38.1920
 1.3190	37.9040
 1.3200	37.5980
 1.3210	37.2920
 1.3220	36.9800
 1.3230	36.6610
 1.3240	36.3480
 1.3250	36.0450
 1.3260	35.7390
 1.3270	35.4270
 1.3280	35.1110
 1.3290	34.7770
 1.3300	34.4510
 1.3310	34.1290
 1.3320	33.8140
 1.3330	33.5180
 1.3340	33.2170
 1.3350	32.9210
 1.3360	32.6370
 1.3370	32.3350
 1.3380	32.0390
 1.3390	31.7630
 1.3400	31.4780
 1.3410	31.2110
 1.3420	30.9580
 1.3430	30.7000
 1.3440	30.4560
 1.3450	30.2150
 1.3460	29.9770
 1.3470	29.7490
 1.3480	29.5290
 1.3490	29.3130
 1.3500	29.1050
 1.3510	28.8970
 1.3520	28.6960
 1.3530	28.4920
 1.3540	28.2870
 1.3550	28.0920
 1.3560	27.8950
 1.3570	27.7000
 1.3580	27.5060
 1.3590	27.3030
 1.3600	27.0960
 1.3610	26.8750
 1.3620	26.6440
 1.3630	26.4130
 1.3640	26.1700
 1.3650	25.9190
 1.3660	25.6630
 1.3670	25.3920
 1.3680	25.1040
 1.3690	24.8000
 1.3700	24.4780
 1.3710	24.1390
 1.3720	23.7870
 1.3730	23.4170
 1.3740	23.0270
 1.3750	22.6220
 1.3760	22.2020
 1.3770	21.7620
 1.3780	21.2980
 1.3790	20.8190
 1.3800	20.3180
 1.3810	19.8000
 1.3820	19.2810
 1.3830	18.7530
 1.3840	18.2200
 1.3850	17.6790
 1.3860	17.1400
 1.3870	16.5890
 1.3880	16.0540
 1.3890	15.5200
 1.3900	14.9950
 1.3910	14.4910
 1.3920	14.0020
 1.3930	13.5220
 1.3940	13.0630
 1.3950	12.6190
 1.3960	12.1870
 1.3970	11.7840
 1.3980	11.4030
 1.3990	11.0450
 1.4000	10.7100
 1.4010	10.3950
 1.4020	10.1010
 1.4030	 9.8260
 1.4040	 9.5700
 1.4050	 9.3330
 1.4060	 9.1060
 1.4070	 8.9030
 1.4080	 8.7150
 1.4090	 8.5400
 1.4100	 8.3830
 1.4110	 8.2310
 1.4120	 8.0870
 1.4130	 7.9550
 1.4140	 7.8330
 1.4150	 7.7270
 1.4160	 7.6310
 1.4170	 7.5390
 1.4180	 7.4530
 1.4190	 7.3750
 1.4200	 7.3020
 1.4210	 7.2330
 1.4220	 7.1730
 1.4230	 7.1150
 1.4240	 7.0620
 1.4250	 7.0140
 1.4260	 6.9750
 1.4270	 6.9320
 1.4280	 6.8900
 1.4290	 6.8480
 1.4300	 6.8070
 1.4310	 6.7700
 1.4320	 6.7360
 1.4330	 6.7090
 1.4340	 6.6890
 1.4350	 6.6670
 1.4360	 6.6500
 1.4370	 6.6310
 1.4380	 6.6120
 1.4390	 6.5990
 1.4400	 6.5880
 1.4410	 6.5790
 1.4420	 6.5730
 1.4430	 6.5640
 1.4440	 6.5550
 1.4450	 6.5480
 1.4460	 6.5430
 1.4470	 6.5430
 1.4480	 6.5410
 1.4490	 6.5390
 1.4500	 6.5360
 1.4510	 6.5300
 1.4520	 6.5300
 1.4530	 6.5270
 1.4540	 6.5290
 1.4550	 6.5350
 1.4560	 6.5410
 1.4570	 6.5560
 1.4580	 6.5740
 1.4590	 6.5870
 1.4600	 6.6000
 1.4610	 6.6160
 1.4620	 6.6300
 1.4630	 6.6490
 1.4640	 6.6760
 1.4650	 6.7030
 1.4660	 6.7370
 1.4670	 6.7730
 1.4680	 6.8040
 1.4690	 6.8330
 1.4700	 6.8610
 1.4710	 6.8950
 1.4720	 6.9330
 1.4730	 6.9810
 1.4740	 7.0340
 1.4750	 7.0850
 1.4760	 7.1380
 1.4770	 7.1860
 1.4780	 7.2360
 1.4790	 7.2880
 1.4800	 7.3400
 1.4810	 7.3980
 1.4820	 7.4540
 1.4830	 7.5110
 1.4840	 7.5680
 1.4850	 7.6290
 1.4860	 7.6940
 1.4870	 7.7610
 1.4880	 7.8340
 1.4890	 7.9060
 1.4900	 7.9730
 1.4910	 8.0360
 1.4920	 8.1010
 1.4930	 8.1620
 1.4940	 8.2290
 1.4950	 8.2990
 1.4960	 8.3770
 1.4970	 8.4590
 1.4980	 8.5380
 1.4990	 8.6210
 1.5000	 8.6970
 1.5010	 8.7650
 1.5020	 8.8400
 1.5030	 8.9180
 1.5040	 8.9980
 1.5050	 9.0810
 1.5060	 9.1650
 1.5070	 9.2470
 1.5080	 9.3290
 1.5090	 9.4120
 1.5100	 9.4940
 1.5110	 9.5730
 1.5120	 9.6610
 1.5130	 9.7470
 1.5140	 9.8370
 1.5150	 9.9300
 1.5160	10.0170
 1.5170	10.1060
 1.5180	10.1920
 1.5190	10.2800
 1.5200	10.3730
 1.5210	10.4600
 1.5220	10.5550
 1.5230	10.6480
 1.5240	10.7310
 1.5250	10.8200
 1.5260	10.9090
 1.5270	10.9990
 1.5280	11.1030
 1.5290	11.2060
 1.5300	11.3030
 1.5310	11.3950
 1.5320	11.4780
 1.5330	11.5650
 1.5340	11.6570
 1.5350	11.7510
 1.5360	11.8480
 1.5370	11.9360
 1.5380	12.0290
 1.5390	12.1220
 1.5400	12.2120
 1.5410	12.3110
 1.5420	12.4040
 1.5430	12.4940
 1.5440	12.5860
 1.5450	12.6750
 1.5460	12.7660
 1.5470	12.8600
 1.5480	12.9540
 1.5490	13.0480
 1.5500	13.1400
 1.5510	13.2310
 1.5520	13.3280
 1.5530	13.4270
 1.5540	13.5220
 1.5550	13.6150
 1.5560	13.6990
 1.5570	13.7820
 1.5580	13.8700
 1.5590	13.9550
 1.5600	14.0460
 1.5610	14.1390
 1.5620	14.2290
 1.5630	14.3180
 1.5640	14.4040
 1.5650	14.4890
 1.5660	14.5750
 1.5670	14.6600
 1.5680	14.7460
 1.5690	14.8290
 1.5700	14.9110
 1.5710	14.9990
 1.5720	15.0830
 1.5730	15.1700
 1.5740	15.2610
 1.5750	15.3400
 1.5760	15.4250
 1.5770	15.5120
 1.5780	15.5920
 1.5790	15.6770
 1.5800	15.7600
 1.5810	15.8370
 1.5820	15.9100
 1.5830	15.9800
 1.5840	16.0520
 1.5850	16.1220
 1.5860	16.1950
 1.5870	16.2730
 1.5880	16.3450
 1.5890	16.4200
 1.5900	16.4900
 1.5910	16.5600
 1.5920	16.6370
 1.5930	16.7120
 1.5940	16.7930
 1.5950	16.8680
 1.5960	16.9310
 1.5970	16.9960
 1.5980	17.0620
 1.5990	17.1300
 1.6000	17.1990
 1.6010	17.2670
 1.6020	17.3300
 1.6030	17.3970
 1.6040	17.4670
 1.6050	17.5310
 1.6060	17.5920
 1.6070	17.6480
 1.6080	17.6990
 1.6090	17.7520
 1.6100	17.8090
 1.6110	17.8720
 1.6120	17.9350
 1.6130	18.0000
 1.6140	18.0690
 1.6150	18.1270
 1.6160	18.1850
 1.6170	18.2360
 1.6180	18.2870
 1.6190	18.3410
 1.6200	18.3880
 1.6210	18.4350
 1.6220	18.4790
 1.6230	18.5240
 1.6240	18.5730
 1.6250	18.6260
 1.6260	18.6780
 1.6270	18.7250
 1.6280	18.7730
 1.6290	18.8200
 1.6300	18.8670
 1.6310	18.9140
 1.6320	18.9600
 1.6330	19.0070
 1.6340	19.0550
 1.6350	19.0980
 1.6360	19.1390
 1.6370	19.1780
 1.6380	19.2120
 1.6390	19.2560
 1.6400	19.3050
 1.6410	19.3470
 1.6420	19.3920
 1.6430	19.4260
 1.6440	19.4450
 1.6450	19.4770
 1.6460	19.5160
 1.6470	19.5530
 1.6480	19.5900
 1.6490	19.6190
 1.6500	19.6340
 1.6510	19.6520
 1.6520	19.6760
 1.6530	19.7000
 1.6540	19.7280
 1.6550	19.7620
 1.6560	19.7930
 1.6570	19.8180
 1.6580	19.8460
 1.6590	19.8620
 1.6600	19.8710
 1.6610	19.8830
 1.6620	19.8920
 1.6630	19.9150
 1.6640	19.9380
 1.6650	19.9550
 1.6660	19.9810
 1.6670	19.9850
 1.6680	19.9810
 1.6690	19.9930
 1.6700	19.9970
 1.6710	20.0040
 1.6720	20.0260
 1.6730	20.0380
 1.6740	20.0360
 1.6750	20.0250
 1.6760	20.0120
 1.6770	19.9980
 1.6780	19.9900
 1.6790	20.0040
 1.6800	20.0150
 1.6810	20.0170
 1.6820	20.0250
 1.6830	20.0200
 1.6840	20.0070
 1.6850	19.9960
 1.6860	19.9730
 1.6870	19.9490
 1.6880	19.9280
 1.6890	19.9140
 1.6900	19.8990
 1.6910	19.8900
 1.6920	19.8710
 1.6930	19.8400
 1.6940	19.8180
 1.6950	19.8030
 1.6960	19.7800
 1.6970	19.7630
 1.6980	19.7350
 1.6990	19.6930
 1.7000	19.6520
 1.7010	19.6040
 1.7020	19.5630
 1.7030	19.5200
 1.7040	19.4850
 1.7050	19.4630
 1.7060	19.4280
 1.7070	19.3900
 1.7080	19.3510
 1.7090	19.3030
 1.7100	19.2600
 1.7110	19.2230
 1.7120	19.1780
 1.7130	19.1310
 1.7140	19.0730
 1.7150	19.0090
 1.7160	18.9540
 1.7170	18.9070
 1.7180	18.8760
 1.7190	18.8460
 1.7200	18.7990
 1.7210	18.7490
 1.7220	18.6900
 1.7230	18.6310
 1.7240	18.5680
 1.7250	18.4970
 1.7260	18.4380
 1.7270	18.3760
 1.7280	18.3120
 1.7290	18.2690
 1.7300	18.2130
 1.7310	18.1560
 1.7320	18.1080
 1.7330	18.0520
 1.7340	17.9900
 1.7350	17.9260
 1.7360	17.8540
 1.7370	17.7910
 1.7380	17.7340
 1.7390	17.6700
 1.7400	17.6140
 1.7410	17.5470
 1.7420	17.4620
 1.7430	17.3890
 1.7440	17.3230
 1.7450	17.2420
 1.7460	17.1570
 1.7470	17.0710
 1.7480	16.9740
 1.7490	16.8820
 1.7500	16.7930
 1.7510	16.7120
 1.7520	16.6350
 1.7530	16.5560
 1.7540	16.4890
 1.7550	16.4070
 1.7560	16.3170
 1.7570	16.2500
 1.7580	16.1800
 1.7590	16.1100
 1.7600	16.0480
 1.7610	15.9530
 1.7620	15.8740
 1.7630	15.7960
 1.7640	15.7250
 1.7650	15.6740
 1.7660	15.6130
 1.7670	15.5520
 1.7680	15.4860
 1.7690	15.4040
 1.7700	15.3400
 1.7710	15.2750
 1.7720	15.2260
 1.7730	15.2050
 1.7740	15.1690
 1.7750	15.1370
 1.7760	15.0960
 1.7770	15.0420
 1.7780	15.0010
 1.7790	14.9620
 1.7800	14.9310
 1.7810	14.9100
 1.7820	14.8830
 1.7830	14.8610
 1.7840	14.8310
 1.7850	14.7920
 1.7860	14.7680
 1.7870	14.7440
 1.7880	14.7320
 1.7890	14.7280
 1.7900	14.7220
 1.7910	14.7070
 1.7920	14.6730
 1.7930	14.6570
 1.7940	14.6400
 1.7950	14.6390
 1.7960	14.6740
 1.7970	14.6830
 1.7980	14.6810
 1.7990	14.6860
 1.8000	14.6850
 1.8010	14.6850
 1.8020	14.6940
 1.8030	14.6980
 1.8040	14.6880
 1.8050	14.6930
 1.8060	14.7110
 1.8070	14.7200
 1.8080	14.7400
 1.8090	14.7320
 1.8100	14.7000
 1.8110	14.6980
 1.8120	14.6950
 1.8130	14.7200
 1.8140	14.7440
 1.8150	14.7480
 1.8160	14.7440
 1.8170	14.7200
 1.8180	14.6990
 1.8190	14.6790
 1.8200	14.6610
 1.8210	14.6570
 1.8220	14.6450
 1.8230	14.6230
 1.8240	14.6060
 1.8250	14.5870
 1.8260	14.5770
 1.8270	14.5840
 1.8280	14.5660
 1.8290	14.5410
 1.8300	14.5140
 1.8310	13.9920
 1.8320	13.9280
 1.8330	13.8940
 1.8340	13.8390
 1.8350	13.7920
 1.8360	13.7710
 1.8370	13.7330
 1.8380	13.7040
 1.8390	13.6510
 1.8400	13.5790
 1.8410	13.5010
 1.8420	13.4160
 1.8430	13.3090
 1.8440	13.2040
 1.8450	13.1150
 1.8460	13.0200
 1.8470	12.9080
 1.8480	12.7750
 1.8490	12.6490
 1.8500	12.5110
 1.8510	12.3590
 1.8520	12.2030
 1.8530	12.0590
 1.8540	11.8930
 1.8550	11.6970
 1.8560	11.5000
 1.8570	11.3150
 1.8580	11.1000
 1.8590	10.8960
 1.8600	10.6970
 1.8610	10.5150
 1.8620	10.2920
 1.8630	10.0890
 1.8640	 9.8890
 1.8650	 9.6540
 1.8660	 9.4150
 1.8670	 9.1540
 1.8680	 8.8760
 1.8690	 8.5990
 1.8700	 8.3390
 1.8710	 8.0960
 1.8720	 7.8490
 1.8730	 7.5910
 1.8740	 7.3420
 1.8750	 7.0640
 1.8760	 6.7930
 1.8770	 6.5580
 1.8780	 6.3190
 1.8790	 6.0880
 1.8800	 5.8580
 1.8810	 5.6320
 1.8820	 5.3990
 1.8830	 5.1890
 1.8840	 4.9790
 1.8850	 4.7780
 1.8860	 4.6060
 1.8870	 4.4370
 1.8880	 4.2810
 1.8890	 4.1390
 1.8900	 4.0050
 1.8910	 3.8820
 1.8920	 3.7620
 1.8930	 3.6520
 1.8940	 3.5770
 1.8950	 3.5090
 1.8960	 3.4410
 1.8970	 3.3800
 1.8980	 3.3040
 1.8990	 3.2290
 1.9000	 3.1650
 1.9010	 3.0970
 1.9020	 3.0500
 1.9030	 3.0170
 1.9040	 2.9950
 1.9050	 2.9770
 1.9060	 2.9630
 1.9070	 2.9430
 1.9080	 2.9190
 1.9090	 2.9000
 1.9100	 2.8650
 1.9110	 2.8380
 1.9120	 2.8100
 1.9130	 2.7900
 1.9140	 2.7610
 1.9150	 2.7640
 1.9160	 2.7890
 1.9170	 2.7900
 1.9180	 2.7790
 1.9190	 2.7550
 1.9200	 2.7240
 1.9210	 2.7060
 1.9220	 2.6980
 1.9230	 2.7230
 1.9240	 2.7270
 1.9250	 2.7330
 1.9260	 2.7200
 1.9270	 2.6980
 1.9280	 2.6610
 1.9290	 2.6370
 1.9300	 2.6220
 1.9310	 2.6280
 1.9320	 2.6540
 1.9330	 2.6620
 1.9340	 2.6680
 1.9350	 2.6770
 1.9360	 2.6770
 1.9370	 2.6820
 1.9380	 2.6960
 1.9390	 2.7080
 1.9400	 2.7100
 1.9410	 2.7150
 1.9420	 2.7260
 1.9430	 2.7260
 1.9440	 2.7210
 1.9450	 2.7120
 1.9460	 2.7080
 1.9470	 2.6890
 1.9480	 2.6890
 1.9490	 2.7040
 1.9500	 2.7160
 1.9510	 2.7280
 1.9520	 2.7550
 1.9530	 2.7920
 1.9540	 2.8160
 1.9550	 2.8260
 1.9560	 2.8340
 1.9570	 2.8320
 1.9580	 2.7950
 1.9590	 2.7930
 1.9600	 2.8080
 1.9610	 2.8180
 1.9620	 2.8450
 1.9630	 2.8630
 1.9640	 2.8580
 1.9650	 2.8630
 1.9660	 2.8660
 1.9670	 2.8790
 1.9680	 2.8900
 1.9690	 2.9090
 1.9700	 2.9190
 1.9710	 2.9190
 1.9720	 2.9250
 1.9730	 2.9220
 1.9740	 2.9430
 1.9750	 2.9660
 1.9760	 2.9960
 1.9770	 3.0370
 1.9780	 3.0700
 1.9790	 3.0930
 1.9800	 3.1090
 1.9810	 3.1170
 1.9820	 3.1120
 1.9830	 3.1080
 1.9840	 3.0830
 1.9850	 3.0870
 1.9860	 3.1040
 1.9870	 3.1180
 1.9880	 3.1640
 1.9890	 3.1980
 1.9900	 3.2000
 1.9910	 3.2140
 1.9920	 3.2240
 1.9930	 3.2090
 1.9940	 3.2290
 1.9950	 3.2840
 1.9960	 3.3090
 1.9970	 3.3380
 1.9980	 3.3600
 1.9990	 3.3690
 2.0000	 3.3600
 2.0010	 3.3700
 2.0020	 3.3870
 2.0030	 3.4330
 2.0040	 3.4700
 2.0050	 3.4980
 2.0060	 3.5360
 2.0070	 3.5560
 2.0080	 3.5460
 2.0090	 3.5610
 2.0100	 3.5860
 2.0110	 3.6060
 2.0120	 3.6320
 2.0130	 3.6560
 2.0140	 3.6650
 2.0150	 3.6640
 2.0160	 3.6720
 2.0170	 3.6840
 2.0180	 3.7040
 2.0190	 3.7450
 2.0200	 3.7620
 2.0210	 3.7660
 2.0220	 3.7890
 2.0230	 3.8110
 2.0240	 3.8350
 2.0250	 3.8760
 2.0260	 3.9050
 2.0270	 3.9220
 2.0280	 3.9470
 2.0290	 3.9630
 2.0300	 3.9890
 2.0310	 4.0130
 2.0320	 4.0380
 2.0330	 4.0570
 2.0340	 4.0750
 2.0350	 4.0930
 2.0360	 4.0920
 2.0370	 4.1190
 2.0380	 4.1730
 2.0390	 4.2130
 2.0400	 4.2670
 2.0410	 4.3110
 2.0420	 4.3480
 2.0430	 4.3720
 2.0440	 4.3910
 2.0450	 4.4030
 2.0460	 4.4200
 2.0470	 4.4280
 2.0480	 4.4380
 2.0490	 4.4540
 2.0500	 4.4650
 2.0510	 4.4660
 2.0520	 4.4750
 2.0530	 4.4760
 2.0540	 4.5020
 2.0550	 4.5440
 2.0560	 4.5900
 2.0570	 4.6430
 2.0580	 4.6960
 2.0590	 4.7330
 2.0600	 4.7530
 2.0610	 4.7780
 2.0620	 4.7940
 2.0630	 4.8210
 2.0640	 4.8570
 2.0650	 4.8820
 2.0660	 4.9050
 2.0670	 4.9320
 2.0680	 4.9490
 2.0690	 4.9730
 2.0700	 5.0040
 2.0710	 5.0370
 2.0720	 5.0770
 2.0730	 5.1080
 2.0740	 5.1300
 2.0750	 5.1480
 2.0760	 5.1690
 2.0770	 5.1730
 2.0780	 5.1980
 2.0790	 5.2400
 2.0800	 5.2750
 2.0810	 5.3160
 2.0820	 5.3520
 2.0830	 5.3930
 2.0840	 5.4230
 2.0850	 5.4490
 2.0860	 5.4690
 2.0870	 5.4670
 2.0880	 5.4790
 2.0890	 5.5070
 2.0900	 5.5480
 2.0910	 5.5770
 2.0920	 5.6210
 2.0930	 5.6480
 2.0940	 5.6440
 2.0950	 5.6730
 2.0960	 5.7190
 2.0970	 5.7590
 2.0980	 5.8160
 2.0990	 5.8600
 2.1000	 5.9030
 2.1010	 5.9340
 2.1020	 5.9450
 2.1030	 5.9660
 2.1040	 5.9870
 2.1050	 5.9950
 2.1060	 6.0190
 2.1070	 6.0540
 2.1080	 6.0890
 2.1090	 6.1300
 2.1100	 6.1640
 2.1110	 6.1990
 2.1120	 6.2290
 2.1130	 6.2490
 2.1140	 6.2750
 2.1150	 6.2990
 2.1160	 6.3290
 2.1170	 6.3610
 2.1180	 6.3940
 2.1190	 6.4410
 2.1200	 6.4740
 2.1210	 6.4920
 2.1220	 6.5210
 2.1230	 6.5610
 2.1240	 6.6100
 2.1250	 6.6370
 2.1260	 6.6680
 2.1270	 6.6920
 2.1280	 6.6850
 2.1290	 6.7050
 2.1300	 6.7520
 2.1310	 6.7780
 2.1320	 6.8010
 2.1330	 6.8180
 2.1340	 6.8150
 2.1350	 6.8320
 2.1360	 6.8470
 2.1370	 6.8760
 2.1380	 6.9400
 2.1390	 6.9770
 2.1400	 6.9970
 2.1410	 7.0260
 2.1420	 7.0610
 2.1430	 7.0810
 2.1440	 7.1200
 2.1450	 7.1930
 2.1460	 7.2230
 2.1470	 7.2280
 2.1480	 7.2510
 2.1490	 7.2660
 2.1500	 7.2830
 2.1510	 7.3130
 2.1520	 7.3280
 2.1530	 7.3260
 2.1540	 7.3340
 2.1550	 7.3340
 2.1560	 7.3520
 2.1570	 7.3840
 2.1580	 7.4080
 2.1590	 7.4440
 2.1600	 7.4770
 2.1610	 7.4860
 2.1620	 7.4950
 2.1630	 7.4980
 2.1640	 7.4800
 2.1650	 7.4980
 2.1660	 7.5320
 2.1670	 7.5540
 2.1680	 7.5970
 2.1690	 7.6170
 2.1700	 7.6090
 2.1710	 7.6260
 2.1720	 7.6590
 2.1730	 7.6790
 2.1740	 7.7160
 2.1750	 7.7220
 2.1760	 7.6910
 2.1770	 7.6810
 2.1780	 7.6630
 2.1790	 7.6540
 2.1800	 7.6640
 2.1810	 7.6720
 2.1820	 7.6890
 2.1830	 7.6860
 2.1840	 7.6890
 2.1850	 7.6910
 2.1860	 7.6970
 2.1870	 7.6930
 2.1880	 7.7110
 2.1890	 7.7490
 2.1900	 7.7720
 2.1910	 7.8060
 2.1920	 7.8200
 2.1930	 7.8100
 2.1940	 7.8150
 2.1950	 7.8170
 2.1960	 7.8220
 2.1970	 7.8410
 2.1980	 7.8500
 2.1990	 7.8610
 2.2000	 7.8600
 2.2010	 7.8380
 2.2020	 7.8310
 2.2030	 7.8180
 2.2040	 7.8140
 2.2050	 7.8100
 2.2060	 7.8420
 2.2070	 7.8560
 2.2080	 7.8740
 2.2090	 7.8810
 2.2100	 7.8810
 2.2110	 7.8870
 2.2120	 7.8940
 2.2130	 7.8920
 2.2140	 7.8960
 2.2150	 7.8900
 2.2160	 7.8720
 2.2170	 7.8510
 2.2180	 7.8110
 2.2190	 7.8000
 2.2200	 7.7990
 2.2210	 7.7960
 2.2220	 7.8150
 2.2230	 7.8280
 2.2240	 7.8430
 2.2250	 7.8410
 2.2260	 7.8230
 2.2270	 7.8210
 2.2280	 7.8160
 2.2290	 7.8070
 2.2300	 7.8120
 2.2310	 7.8220
 2.2320	 7.7970
 2.2330	 7.7680
 2.2340	 7.7380
 2.2350	 7.6940
 2.2360	 7.6740
 2.2370	 7.6580
 2.2380	 7.6480
 2.2390	 7.6640
 2.2400	 7.6510
 2.2410	 7.6270
 2.2420	 7.6010
 2.2430	 7.5500
 2.2440	 7.5300
 2.2450	 7.5180
 2.2460	 7.5170
 2.2470	 7.5440
 2.2480	 7.5480
 2.2490	 7.5670
 2.2500	 7.5430
 2.2510	 7.4620
 2.2520	 7.4250
 2.2530	 7.3790
 2.2540	 7.3500
 2.2550	 7.3780
 2.2560	 7.3700
 2.2570	 7.3320
 2.2580	 7.3110
 2.2590	 7.2800
 2.2600	 7.2630
 2.2610	 7.2660
 2.2620	 7.2670
 2.2630	 7.2820
 2.2640	 7.2750
 2.2650	 7.2290
 2.2660	 7.1690
 2.2670	 7.1050
 2.2680	 6.9900
 2.2690	 6.9620
 2.2700	 6.9720
 2.2710	 6.9790
 2.2720	 7.0440
 2.2730	 7.0470
 2.2740	 7.0450
 2.2750	 6.9880
 2.2760	 6.8750
 2.2770	 6.7830
 2.2780	 6.6190
 2.2790	 6.5630
 2.2800	 6.5600
 2.2810	 6.5750
 2.2820	 6.7030
 2.2830	 6.7180
 2.2840	 6.6920
 2.2850	 6.6660
 2.2860	 6.5500
 2.2870	 6.5100
 2.2880	 6.5270
 2.2890	 6.5210
 2.2900	 6.5360
 2.2910	 6.5370
 2.2920	 6.5200
 2.2930	 6.5020
 2.2940	 6.4790
 2.2950	 6.4570
 2.2960	 6.4420
 2.2970	 6.4120
 2.2980	 6.3650
 2.2990	 6.3290
 2.3000	 6.3120
 2.3010	 6.2330
 2.3020	 6.1850
 2.3030	 6.1580
 2.3040	 6.1000
 2.3050	 6.0470
 2.3060	 6.0140
 2.3070	 5.9960
 2.3080	 5.9950
 2.3090	 6.0100
 2.3100	 6.0130
 2.3110	 5.9870
 2.3120	 5.9550
 2.3130	 5.8820
 2.3140	 5.8670
 2.3150	 5.8760
 2.3160	 5.8710
 2.3170	 5.8970
 2.3180	 5.8810
 2.3190	 5.8190
 2.3200	 5.7970
 2.3210	 5.7870
 2.3220	 5.7810
 2.3230	 5.8050
 2.3240	 5.7910
 2.3250	 5.7490
 2.3260	 5.7060
 2.3270	 5.6370
 2.3280	 5.5860
 2.3290	 5.5410
 2.3300	 5.5130
 2.3310	 5.5200
 2.3320	 5.4900
 2.3330	 5.4320
 2.3340	 5.3970
 2.3350	 5.3360
 2.3360	 5.3080
 2.3370	 5.3390
 2.3380	 5.3300
 2.3390	 5.3140
 2.3400	 5.2920
 2.3410	 5.2340
 2.3420	 5.2130
 2.3430	 5.2240
 2.3440	 5.1980
 2.3450	 5.1500
 2.3460	 5.1370
 2.3470	 5.1100
 2.3480	 5.1050
 2.3490	 5.1600
 2.3500	 5.1800
 2.3510	 5.1910
 2.3520	 5.2020
 2.3530	 5.1890
 2.3540	 5.2140
 2.3550	 5.2300
 2.3560	 5.1430
 2.3570	 5.1030
 2.3580	 4.9870
 2.3590	 4.8700
 2.3600	 4.8290
 2.3610	 4.8120
 2.3620	 4.8300
 2.3630	 4.7970
 2.3640	 4.7880
 2.3650	 4.7650
 2.3660	 4.7050
 2.3670	 4.7140
 2.3680	 4.7390
 2.3690	 4.7270
 2.3700	 4.7000
 2.3710	 4.6860
 2.3720	 4.6580
 2.3730	 4.6360
 2.3740	 4.6590
 2.3750	 4.6700
 2.3760	 4.6670
 2.3770	 4.6430
 2.3780	 4.5910
 2.3790	 4.5590
 2.3800	 4.5080
 2.3810	 4.4700
 2.3820	 4.4210
 2.3830	 4.3350
 2.3840	 4.3710
 2.3850	 4.3970
 2.3860	 4.4050
 2.3870	 4.5030
 2.3880	 4.4800
 2.3890	 4.4720
 2.3900	 4.5080
 2.3910	 4.4700
 2.3920	 4.3780
 2.3930	 4.2650
 2.3940	 4.2160
 2.3950	 4.1400
 2.3960	 4.1760
 2.3970	 4.2940
 2.3980	 4.3020
 2.3990	 4.2560
 2.4000	 4.1670
 2.4010	 4.1280
 2.4020	 4.0170
 2.4030	 3.9320
 2.4040	 3.9430
 2.4050	 3.8620
 2.4060	 3.9140
 2.4070	 4.0850
 2.4080	 4.2230
 2.4090	 4.2950
 2.4100	 4.3170
 2.4110	 4.2600
 2.4120	 4.1250
 2.4130	 4.0070
 2.4140	 3.9100
 2.4150	 3.9100
 2.4160	 3.9430
 2.4170	 3.9890
 2.4180	 3.9940
 2.4190	 3.9810
 2.4200	 4.0010
 2.4210	 3.9160
 2.4220	 3.8230
 2.4230	 3.7780
 2.4240	 3.6800
 2.4250	 3.6470
 2.4260	 3.7730
 2.4270	 3.8690
 2.4280	 3.8650
 2.4290	 3.9060
 2.4300	 3.9280
 2.4310	 3.8680
 2.4320	 3.8530
 2.4330	 3.8790
 2.4340	 3.8190
 2.4350	 3.7250
 2.4360	 3.6810
 2.4370	 3.5990
 2.4380	 3.5540
 2.4390	 3.6100
 2.4400	 3.6170
 2.4410	 3.6090
 2.4420	 3.6230
 2.4430	 3.5660
 2.4440	 3.6240
 2.4450	 3.7500
 2.4460	 3.7580
 2.4470	 3.8140
 2.4480	 3.7000
 2.4490	 3.4920
 2.4500	 3.5330
 2.4510	 3.4420
 2.4520	 3.4440
 2.4530	 3.6290
 2.4540	 3.4670
 2.4550	 3.4180
 2.4560	 3.5210
 2.4570	 3.4380
 2.4580	 3.5010
 2.4590	 3.6760
 2.4600	 3.7140
 2.4610	 3.6260
 2.4620	 3.5960
 2.4630	 3.7030
 2.4640	 3.6480
 2.4650	 3.5470
 2.4660	 3.5070
 2.4670	 3.2200
 2.4680	 3.0720
 2.4690	 3.1920
 2.4700	 3.2190
 2.4710	 3.2650
 2.4720	 3.2860
 2.4730	 3.3110
 2.4740	 3.3860
 2.4750	 3.5260
 2.4760	 3.6550
 2.4770	 3.7700
 2.4780	 3.7810
 2.4790	 3.8310
 2.4800	 3.8060
 2.4810	 3.5660
 2.4820	 3.7450
 2.4830	 3.6030
 2.4840	 3.4590
 2.4850	 3.4870
 2.4860	 3.2160
 2.4870	 3.1360
 2.4880	 3.1380
 2.4890	 3.1100
 2.4900	 3.1120
 2.4910	 3.0590
 2.4920	 3.3760
 2.4930	 3.4320
 2.4940	 3.3290
 2.4950	 3.3910
 2.4960	 3.1590
 2.4970	 3.2200
 2.4980	 3.6570
 2.4990	 3.8780
 2.5000	 3.7220
