Name: Podocarpus gracilior
Type: vegetation
Class: Tree
Genus: Podocarpus
Species: gracilior
Sample No.: JPL173
Owner: JPL
Wavelength Range: VSWIR
Origin: 34.13033; -118.1123; WGS84
Collection Date: 9/14/2016
Description: Samples were collected at the Huntington Garden in San Marino California as part of a JPL Subcontract studying HyTES imagery. Samples were taken to JPL and processed within 48 hours of collection. The same leaves were processed in the Nicolet and then measured using the ASD.
Measurement: Bidirectional reflectance
First Column: X
Second Column: Y
X Units: Wavelength (micrometer)
Y Units: Reflectance (percentage)
First X Value: 0.35
Last X Value: 2.5
Number of X Values: 2151
Additional Information: vegetation.tree.podocarpus.gracilior.vswir.jpl173.jpl.asd.ancillary.txt

 0.3500	 7.7520
 0.3510	 7.5940
 0.3520	 7.5700
 0.3530	 7.5850
 0.3540	 7.5320
 0.3550	 7.4630
 0.3560	 7.4590
 0.3570	 7.5250
 0.3580	 7.6080
 0.3590	 7.5040
 0.3600	 7.4490
 0.3610	 7.5000
 0.3620	 7.3970
 0.3630	 7.3200
 0.3640	 7.3550
 0.3650	 7.4850
 0.3660	 7.4210
 0.3670	 7.4180
 0.3680	 7.4820
 0.3690	 7.4560
 0.3700	 7.4200
 0.3710	 7.3800
 0.3720	 7.3620
 0.3730	 7.4560
 0.3740	 7.4280
 0.3750	 7.3520
 0.3760	 7.3680
 0.3770	 7.4030
 0.3780	 7.4020
 0.3790	 7.3670
 0.3800	 7.3480
 0.3810	 7.3710
 0.3820	 7.3990
 0.3830	 7.3990
 0.3840	 7.3700
 0.3850	 7.3660
 0.3860	 7.3780
 0.3870	 7.3810
 0.3880	 7.4040
 0.3890	 7.4140
 0.3900	 7.4260
 0.3910	 7.4960
 0.3920	 7.4970
 0.3930	 7.4900
 0.3940	 7.5270
 0.3950	 7.5200
 0.3960	 7.5170
 0.3970	 7.5240
 0.3980	 7.5330
 0.3990	 7.5700
 0.4000	 7.5670
 0.4010	 7.5200
 0.4020	 7.5170
 0.4030	 7.5230
 0.4040	 7.5330
 0.4050	 7.5460
 0.4060	 7.5550
 0.4070	 7.5740
 0.4080	 7.5930
 0.4090	 7.5900
 0.4100	 7.6070
 0.4110	 7.6380
 0.4120	 7.6660
 0.4130	 7.6560
 0.4140	 7.6510
 0.4150	 7.6600
 0.4160	 7.6740
 0.4170	 7.6780
 0.4180	 7.6840
 0.4190	 7.6880
 0.4200	 7.6730
 0.4210	 7.6800
 0.4220	 7.6850
 0.4230	 7.6690
 0.4240	 7.6740
 0.4250	 7.6800
 0.4260	 7.6770
 0.4270	 7.6680
 0.4280	 7.6670
 0.4290	 7.6630
 0.4300	 7.6500
 0.4310	 7.6320
 0.4320	 7.6100
 0.4330	 7.5930
 0.4340	 7.5880
 0.4350	 7.5760
 0.4360	 7.5630
 0.4370	 7.5610
 0.4380	 7.5830
 0.4390	 7.6090
 0.4400	 7.6270
 0.4410	 7.6360
 0.4420	 7.6440
 0.4430	 7.6490
 0.4440	 7.6550
 0.4450	 7.6670
 0.4460	 7.6770
 0.4470	 7.6810
 0.4480	 7.6850
 0.4490	 7.6940
 0.4500	 7.7010
 0.4510	 7.7060
 0.4520	 7.7100
 0.4530	 7.7210
 0.4540	 7.7260
 0.4550	 7.7290
 0.4560	 7.7380
 0.4570	 7.7450
 0.4580	 7.7470
 0.4590	 7.7450
 0.4600	 7.7400
 0.4610	 7.7390
 0.4620	 7.7430
 0.4630	 7.7500
 0.4640	 7.7490
 0.4650	 7.7460
 0.4660	 7.7450
 0.4670	 7.7490
 0.4680	 7.7520
 0.4690	 7.7550
 0.4700	 7.7590
 0.4710	 7.7570
 0.4720	 7.7510
 0.4730	 7.7500
 0.4740	 7.7600
 0.4750	 7.7680
 0.4760	 7.7720
 0.4770	 7.7740
 0.4780	 7.7730
 0.4790	 7.7730
 0.4800	 7.7720
 0.4810	 7.7670
 0.4820	 7.7650
 0.4830	 7.7610
 0.4840	 7.7570
 0.4850	 7.7560
 0.4860	 7.7530
 0.4870	 7.7520
 0.4880	 7.7580
 0.4890	 7.7680
 0.4900	 7.7890
 0.4910	 7.8110
 0.4920	 7.8200
 0.4930	 7.8370
 0.4940	 7.8660
 0.4950	 7.9050
 0.4960	 7.9390
 0.4970	 7.9730
 0.4980	 8.0120
 0.4990	 8.0600
 0.5000	 8.1180
 0.5010	 8.1770
 0.5020	 8.2400
 0.5030	 8.3170
 0.5040	 8.4060
 0.5050	 8.5030
 0.5060	 8.6090
 0.5070	 8.7240
 0.5080	 8.8520
 0.5090	 8.9970
 0.5100	 9.1590
 0.5110	 9.3270
 0.5120	 9.5090
 0.5130	 9.7060
 0.5140	 9.9100
 0.5150	10.1240
 0.5160	10.3480
 0.5170	10.5840
 0.5180	10.8190
 0.5190	11.0570
 0.5200	11.2960
 0.5210	11.5320
 0.5220	11.7590
 0.5230	11.9770
 0.5240	12.1870
 0.5250	12.3830
 0.5260	12.5640
 0.5270	12.7280
 0.5280	12.8770
 0.5290	13.0090
 0.5300	13.1250
 0.5310	13.2270
 0.5320	13.3140
 0.5330	13.3910
 0.5340	13.4570
 0.5350	13.5110
 0.5360	13.5590
 0.5370	13.5950
 0.5380	13.6160
 0.5390	13.6220
 0.5400	13.6160
 0.5410	13.6020
 0.5420	13.5880
 0.5430	13.5850
 0.5440	13.5910
 0.5450	13.6120
 0.5460	13.6480
 0.5470	13.6880
 0.5480	13.7240
 0.5490	13.7530
 0.5500	13.7670
 0.5510	13.7760
 0.5520	13.7770
 0.5530	13.7660
 0.5540	13.7500
 0.5550	13.7200
 0.5560	13.6700
 0.5570	13.6030
 0.5580	13.5250
 0.5590	13.4340
 0.5600	13.3300
 0.5610	13.2200
 0.5620	13.1010
 0.5630	12.9740
 0.5640	12.8430
 0.5650	12.7100
 0.5660	12.5750
 0.5670	12.4370
 0.5680	12.2970
 0.5690	12.1590
 0.5700	12.0190
 0.5710	11.8780
 0.5720	11.7410
 0.5730	11.6140
 0.5740	11.4960
 0.5750	11.3880
 0.5760	11.2830
 0.5770	11.1850
 0.5780	11.0940
 0.5790	11.0100
 0.5800	10.9330
 0.5810	10.8590
 0.5820	10.7890
 0.5830	10.7160
 0.5840	10.6450
 0.5850	10.5760
 0.5860	10.5100
 0.5870	10.4480
 0.5880	10.3950
 0.5890	10.3520
 0.5900	10.3190
 0.5910	10.2820
 0.5920	10.2420
 0.5930	10.2040
 0.5940	10.1790
 0.5950	10.1610
 0.5960	10.1460
 0.5970	10.1290
 0.5980	10.1120
 0.5990	10.0910
 0.6000	10.0660
 0.6010	10.0410
 0.6020	10.0120
 0.6030	 9.9790
 0.6040	 9.9420
 0.6050	 9.9000
 0.6060	 9.8510
 0.6070	 9.7970
 0.6080	 9.7400
 0.6090	 9.6670
 0.6100	 9.5700
 0.6110	 9.4610
 0.6120	 9.4050
 0.6130	 9.3780
 0.6140	 9.3560
 0.6150	 9.3170
 0.6160	 9.2750
 0.6170	 9.2330
 0.6180	 9.1890
 0.6190	 9.1430
 0.6200	 9.1040
 0.6210	 9.0720
 0.6220	 9.0440
 0.6230	 9.0200
 0.6240	 9.0010
 0.6250	 8.9850
 0.6260	 8.9720
 0.6270	 8.9600
 0.6280	 8.9490
 0.6290	 8.9390
 0.6300	 8.9260
 0.6310	 8.9160
 0.6320	 8.9090
 0.6330	 8.8980
 0.6340	 8.8820
 0.6350	 8.8580
 0.6360	 8.8270
 0.6370	 8.7890
 0.6380	 8.7440
 0.6390	 8.6960
 0.6400	 8.6440
 0.6410	 8.5890
 0.6420	 8.5320
 0.6430	 8.4750
 0.6440	 8.4200
 0.6450	 8.3680
 0.6460	 8.3160
 0.6470	 8.2660
 0.6480	 8.2220
 0.6490	 8.1830
 0.6500	 8.1500
 0.6510	 8.1220
 0.6520	 8.1030
 0.6530	 8.0880
 0.6540	 8.0720
 0.6550	 8.0570
 0.6560	 8.0420
 0.6570	 8.0270
 0.6580	 8.0110
 0.6590	 7.9960
 0.6600	 7.9810
 0.6610	 7.9660
 0.6620	 7.9500
 0.6630	 7.9370
 0.6640	 7.9270
 0.6650	 7.9190
 0.6660	 7.9120
 0.6670	 7.9090
 0.6680	 7.9100
 0.6690	 7.9160
 0.6700	 7.9260
 0.6710	 7.9400
 0.6720	 7.9560
 0.6730	 7.9780
 0.6740	 8.0000
 0.6750	 8.0250
 0.6760	 8.0530
 0.6770	 8.0870
 0.6780	 8.1260
 0.6790	 8.1680
 0.6800	 8.2110
 0.6810	 8.2550
 0.6820	 8.3050
 0.6830	 8.3620
 0.6840	 8.4230
 0.6850	 8.4900
 0.6860	 8.5660
 0.6870	 8.6540
 0.6880	 8.7660
 0.6890	 8.9050
 0.6900	 9.0810
 0.6910	 9.3050
 0.6920	 9.5840
 0.6930	 9.9240
 0.6940	10.3290
 0.6950	10.8000
 0.6960	11.3360
 0.6970	11.9340
 0.6980	12.5890
 0.6990	13.2930
 0.7000	14.0400
 0.7010	14.8230
 0.7020	15.6340
 0.7030	16.4660
 0.7040	17.3150
 0.7050	18.1730
 0.7060	19.0360
 0.7070	19.9030
 0.7080	20.7740
 0.7090	21.6480
 0.7100	22.5290
 0.7110	23.4070
 0.7120	24.2820
 0.7130	25.1580
 0.7140	26.0310
 0.7150	26.9000
 0.7160	27.7650
 0.7170	28.6230
 0.7180	29.4720
 0.7190	30.3130
 0.7200	31.1430
 0.7210	31.9600
 0.7220	32.7620
 0.7230	33.5460
 0.7240	34.3080
 0.7250	35.0500
 0.7260	35.7690
 0.7270	36.4630
 0.7280	37.1320
 0.7290	37.7720
 0.7300	38.3850
 0.7310	38.9740
 0.7320	39.5340
 0.7330	40.0670
 0.7340	40.5720
 0.7350	41.0470
 0.7360	41.4990
 0.7370	41.9250
 0.7380	42.3250
 0.7390	42.7020
 0.7400	43.0550
 0.7410	43.3850
 0.7420	43.6940
 0.7430	43.9810
 0.7440	44.2440
 0.7450	44.4860
 0.7460	44.7090
 0.7470	44.9140
 0.7480	45.1030
 0.7490	45.2760
 0.7500	45.4290
 0.7510	45.5700
 0.7520	45.7000
 0.7530	45.8150
 0.7540	45.9220
 0.7550	46.0180
 0.7560	46.1030
 0.7570	46.1800
 0.7580	46.2500
 0.7590	46.3150
 0.7600	46.3770
 0.7610	46.4320
 0.7620	46.4770
 0.7630	46.5170
 0.7640	46.5570
 0.7650	46.5890
 0.7660	46.6150
 0.7670	46.6390
 0.7680	46.6630
 0.7690	46.6840
 0.7700	46.7030
 0.7710	46.7220
 0.7720	46.7390
 0.7730	46.7520
 0.7740	46.7650
 0.7750	46.7800
 0.7760	46.7900
 0.7770	46.7970
 0.7780	46.8050
 0.7790	46.8170
 0.7800	46.8260
 0.7810	46.8340
 0.7820	46.8440
 0.7830	46.8560
 0.7840	46.8630
 0.7850	46.8680
 0.7860	46.8710
 0.7870	46.8730
 0.7880	46.8770
 0.7890	46.8820
 0.7900	46.8850
 0.7910	46.8870
 0.7920	46.8890
 0.7930	46.8890
 0.7940	46.8910
 0.7950	46.8890
 0.7960	46.8870
 0.7970	46.8840
 0.7980	46.8820
 0.7990	46.8740
 0.8000	46.8680
 0.8010	46.8680
 0.8020	46.8610
 0.8030	46.8530
 0.8040	46.8470
 0.8050	46.8390
 0.8060	46.8290
 0.8070	46.8180
 0.8080	46.8050
 0.8090	46.7920
 0.8100	46.7830
 0.8110	46.7720
 0.8120	46.7590
 0.8130	46.7510
 0.8140	46.7370
 0.8150	46.7220
 0.8160	46.7090
 0.8170	46.6970
 0.8180	46.6850
 0.8190	46.6740
 0.8200	46.6650
 0.8210	46.6540
 0.8220	46.6420
 0.8230	46.6280
 0.8240	46.6140
 0.8250	46.6010
 0.8260	46.5890
 0.8270	46.5770
 0.8280	46.5650
 0.8290	46.5540
 0.8300	46.5410
 0.8310	46.5260
 0.8320	46.5140
 0.8330	46.5030
 0.8340	46.4960
 0.8350	46.4910
 0.8360	46.4850
 0.8370	46.4790
 0.8380	46.4740
 0.8390	46.4680
 0.8400	46.4650
 0.8410	46.4650
 0.8420	46.4660
 0.8430	46.4610
 0.8440	46.4590
 0.8450	46.4600
 0.8460	46.4590
 0.8470	46.4580
 0.8480	46.4590
 0.8490	46.4610
 0.8500	46.4620
 0.8510	46.4640
 0.8520	46.4720
 0.8530	46.4800
 0.8540	46.4790
 0.8550	46.4830
 0.8560	46.4880
 0.8570	46.4930
 0.8580	46.5020
 0.8590	46.5140
 0.8600	46.5240
 0.8610	46.5280
 0.8620	46.5340
 0.8630	46.5440
 0.8640	46.5540
 0.8650	46.5630
 0.8660	46.5760
 0.8670	46.5860
 0.8680	46.5950
 0.8690	46.6080
 0.8700	46.6240
 0.8710	46.6370
 0.8720	46.6490
 0.8730	46.6590
 0.8740	46.6710
 0.8750	46.6880
 0.8760	46.7060
 0.8770	46.7140
 0.8780	46.7240
 0.8790	46.7360
 0.8800	46.7480
 0.8810	46.7630
 0.8820	46.7760
 0.8830	46.7890
 0.8840	46.8020
 0.8850	46.8140
 0.8860	46.8350
 0.8870	46.8550
 0.8880	46.8660
 0.8890	46.8790
 0.8900	46.8890
 0.8910	46.8980
 0.8920	46.9100
 0.8930	46.9250
 0.8940	46.9390
 0.8950	46.9520
 0.8960	46.9640
 0.8970	46.9780
 0.8980	46.9920
 0.8990	47.0040
 0.9000	47.0120
 0.9010	47.0230
 0.9020	47.0360
 0.9030	47.0490
 0.9040	47.0590
 0.9050	47.0680
 0.9060	47.0790
 0.9070	47.0910
 0.9080	47.1010
 0.9090	47.1070
 0.9100	47.1150
 0.9110	47.1250
 0.9120	47.1330
 0.9130	47.1390
 0.9140	47.1410
 0.9150	47.1400
 0.9160	47.1450
 0.9170	47.1550
 0.9180	47.1610
 0.9190	47.1580
 0.9200	47.1590
 0.9210	47.1630
 0.9220	47.1630
 0.9230	47.1500
 0.9240	47.1510
 0.9250	47.1520
 0.9260	47.1470
 0.9270	47.1390
 0.9280	47.1260
 0.9290	47.1140
 0.9300	47.1000
 0.9310	47.0830
 0.9320	47.0690
 0.9330	47.0560
 0.9340	47.0410
 0.9350	47.0230
 0.9360	47.0060
 0.9370	46.9830
 0.9380	46.9520
 0.9390	46.9290
 0.9400	46.9140
 0.9410	46.9000
 0.9420	46.8810
 0.9430	46.8560
 0.9440	46.8220
 0.9450	46.7870
 0.9460	46.7540
 0.9470	46.7170
 0.9480	46.6730
 0.9490	46.6280
 0.9500	46.5860
 0.9510	46.5330
 0.9520	46.4820
 0.9530	46.4290
 0.9540	46.3740
 0.9550	46.3360
 0.9560	46.2850
 0.9570	46.2300
 0.9580	46.1860
 0.9590	46.1490
 0.9600	46.1080
 0.9610	46.0740
 0.9620	46.0540
 0.9630	46.0180
 0.9640	45.9840
 0.9650	45.9610
 0.9660	45.9450
 0.9670	45.9210
 0.9680	45.9060
 0.9690	45.9000
 0.9700	45.8920
 0.9710	45.8990
 0.9720	45.8920
 0.9730	45.8690
 0.9740	45.8490
 0.9750	45.8570
 0.9760	45.8570
 0.9770	45.8460
 0.9780	45.8410
 0.9790	45.8470
 0.9800	45.8490
 0.9810	45.8440
 0.9820	45.8400
 0.9830	45.8520
 0.9840	45.8640
 0.9850	45.8740
 0.9860	45.8840
 0.9870	45.8900
 0.9880	45.8930
 0.9890	45.8990
 0.9900	45.9130
 0.9910	45.9310
 0.9920	45.9430
 0.9930	45.9520
 0.9940	45.9670
 0.9950	45.9790
 0.9960	45.9950
 0.9970	46.0110
 0.9980	46.0230
 0.9990	46.0530
 1.0000	46.0720
 1.0010	48.2820
 1.0020	48.2950
 1.0030	48.3100
 1.0040	48.3290
 1.0050	48.3490
 1.0060	48.3690
 1.0070	48.3880
 1.0080	48.4030
 1.0090	48.4130
 1.0100	48.4260
 1.0110	48.4370
 1.0120	48.4510
 1.0130	48.4670
 1.0140	48.4830
 1.0150	48.5010
 1.0160	48.5160
 1.0170	48.5300
 1.0180	48.5450
 1.0190	48.5570
 1.0200	48.5740
 1.0210	48.5900
 1.0220	48.6060
 1.0230	48.6220
 1.0240	48.6360
 1.0250	48.6520
 1.0260	48.6720
 1.0270	48.6860
 1.0280	48.6960
 1.0290	48.7090
 1.0300	48.7220
 1.0310	48.7360
 1.0320	48.7540
 1.0330	48.7740
 1.0340	48.7930
 1.0350	48.8060
 1.0360	48.8210
 1.0370	48.8370
 1.0380	48.8490
 1.0390	48.8590
 1.0400	48.8700
 1.0410	48.8790
 1.0420	48.8910
 1.0430	48.9060
 1.0440	48.9180
 1.0450	48.9330
 1.0460	48.9440
 1.0470	48.9530
 1.0480	48.9620
 1.0490	48.9690
 1.0500	48.9770
 1.0510	48.9880
 1.0520	48.9960
 1.0530	49.0050
 1.0540	49.0130
 1.0550	49.0230
 1.0560	49.0350
 1.0570	49.0430
 1.0580	49.0540
 1.0590	49.0590
 1.0600	49.0580
 1.0610	49.0590
 1.0620	49.0560
 1.0630	49.0570
 1.0640	49.0610
 1.0650	49.0630
 1.0660	49.0670
 1.0670	49.0680
 1.0680	49.0670
 1.0690	49.0630
 1.0700	49.0610
 1.0710	49.0570
 1.0720	49.0530
 1.0730	49.0480
 1.0740	49.0460
 1.0750	49.0480
 1.0760	49.0450
 1.0770	49.0440
 1.0780	49.0400
 1.0790	49.0280
 1.0800	49.0240
 1.0810	49.0250
 1.0820	49.0220
 1.0830	49.0200
 1.0840	49.0160
 1.0850	49.0080
 1.0860	48.9980
 1.0870	48.9910
 1.0880	48.9850
 1.0890	48.9800
 1.0900	48.9740
 1.0910	48.9690
 1.0920	48.9650
 1.0930	48.9590
 1.0940	48.9540
 1.0950	48.9470
 1.0960	48.9380
 1.0970	48.9300
 1.0980	48.9210
 1.0990	48.9120
 1.1000	48.9030
 1.1010	48.8950
 1.1020	48.8850
 1.1030	48.8760
 1.1040	48.8710
 1.1050	48.8640
 1.1060	48.8560
 1.1070	48.8470
 1.1080	48.8380
 1.1090	48.8250
 1.1100	48.8150
 1.1110	48.8070
 1.1120	48.7970
 1.1130	48.7890
 1.1140	48.7770
 1.1150	48.7620
 1.1160	48.7490
 1.1170	48.7360
 1.1180	48.7210
 1.1190	48.7080
 1.1200	48.6910
 1.1210	48.6690
 1.1220	48.6450
 1.1230	48.6160
 1.1240	48.5860
 1.1250	48.5520
 1.1260	48.5160
 1.1270	48.4730
 1.1280	48.4260
 1.1290	48.3720
 1.1300	48.3120
 1.1310	48.2480
 1.1320	48.1810
 1.1330	48.1070
 1.1340	48.0280
 1.1350	47.9420
 1.1360	47.8520
 1.1370	47.7540
 1.1380	47.6510
 1.1390	47.5440
 1.1400	47.4320
 1.1410	47.3170
 1.1420	47.2010
 1.1430	47.0820
 1.1440	46.9660
 1.1450	46.8460
 1.1460	46.7310
 1.1470	46.6160
 1.1480	46.5090
 1.1490	46.4030
 1.1500	46.3070
 1.1510	46.2200
 1.1520	46.1370
 1.1530	46.0580
 1.1540	45.9860
 1.1550	45.9180
 1.1560	45.8560
 1.1570	45.8030
 1.1580	45.7580
 1.1590	45.7200
 1.1600	45.6850
 1.1610	45.6530
 1.1620	45.6260
 1.1630	45.6010
 1.1640	45.5780
 1.1650	45.5580
 1.1660	45.5410
 1.1670	45.5260
 1.1680	45.5140
 1.1690	45.5020
 1.1700	45.4920
 1.1710	45.4830
 1.1720	45.4740
 1.1730	45.4650
 1.1740	45.4580
 1.1750	45.4470
 1.1760	45.4350
 1.1770	45.4230
 1.1780	45.4100
 1.1790	45.3980
 1.1800	45.3850
 1.1810	45.3700
 1.1820	45.3550
 1.1830	45.3410
 1.1840	45.3260
 1.1850	45.3120
 1.1860	45.2970
 1.1870	45.2820
 1.1880	45.2680
 1.1890	45.2540
 1.1900	45.2420
 1.1910	45.2320
 1.1920	45.2230
 1.1930	45.2160
 1.1940	45.2080
 1.1950	45.2000
 1.1960	45.1950
 1.1970	45.1900
 1.1980	45.1880
 1.1990	45.1900
 1.2000	45.1920
 1.2010	45.1980
 1.2020	45.2040
 1.2030	45.2080
 1.2040	45.2140
 1.2050	45.2230
 1.2060	45.2320
 1.2070	45.2450
 1.2080	45.2580
 1.2090	45.2700
 1.2100	45.2840
 1.2110	45.3000
 1.2120	45.3170
 1.2130	45.3350
 1.2140	45.3520
 1.2150	45.3710
 1.2160	45.3890
 1.2170	45.4110
 1.2180	45.4330
 1.2190	45.4560
 1.2200	45.4790
 1.2210	45.5010
 1.2220	45.5240
 1.2230	45.5490
 1.2240	45.5740
 1.2250	45.5980
 1.2260	45.6210
 1.2270	45.6440
 1.2280	45.6670
 1.2290	45.6890
 1.2300	45.7090
 1.2310	45.7270
 1.2320	45.7450
 1.2330	45.7620
 1.2340	45.7790
 1.2350	45.7970
 1.2360	45.8140
 1.2370	45.8310
 1.2380	45.8460
 1.2390	45.8620
 1.2400	45.8750
 1.2410	45.8870
 1.2420	45.9000
 1.2430	45.9100
 1.2440	45.9210
 1.2450	45.9320
 1.2460	45.9420
 1.2470	45.9530
 1.2480	45.9640
 1.2490	45.9720
 1.2500	45.9810
 1.2510	45.9890
 1.2520	45.9950
 1.2530	46.0020
 1.2540	46.0070
 1.2550	46.0110
 1.2560	46.0160
 1.2570	46.0200
 1.2580	46.0220
 1.2590	46.0240
 1.2600	46.0270
 1.2610	46.0280
 1.2620	46.0270
 1.2630	46.0250
 1.2640	46.0250
 1.2650	46.0230
 1.2660	46.0200
 1.2670	46.0170
 1.2680	46.0120
 1.2690	46.0070
 1.2700	46.0030
 1.2710	45.9990
 1.2720	45.9930
 1.2730	45.9860
 1.2740	45.9780
 1.2750	45.9690
 1.2760	45.9610
 1.2770	45.9510
 1.2780	45.9370
 1.2790	45.9210
 1.2800	45.9060
 1.2810	45.8900
 1.2820	45.8710
 1.2830	45.8530
 1.2840	45.8320
 1.2850	45.8080
 1.2860	45.7820
 1.2870	45.7540
 1.2880	45.7240
 1.2890	45.6910
 1.2900	45.6560
 1.2910	45.6180
 1.2920	45.5760
 1.2930	45.5330
 1.2940	45.4880
 1.2950	45.4430
 1.2960	45.3960
 1.2970	45.3440
 1.2980	45.2890
 1.2990	45.2330
 1.3000	45.1760
 1.3010	45.1180
 1.3020	45.0570
 1.3030	44.9930
 1.3040	44.9250
 1.3050	44.8590
 1.3060	44.7890
 1.3070	44.7190
 1.3080	44.6500
 1.3090	44.5780
 1.3100	44.5050
 1.3110	44.4320
 1.3120	44.3550
 1.3130	44.2760
 1.3140	44.1940
 1.3150	44.1080
 1.3160	44.0210
 1.3170	43.9320
 1.3180	43.8430
 1.3190	43.7520
 1.3200	43.6620
 1.3210	43.5690
 1.3220	43.4750
 1.3230	43.3790
 1.3240	43.2820
 1.3250	43.1840
 1.3260	43.0830
 1.3270	42.9810
 1.3280	42.8770
 1.3290	42.7720
 1.3300	42.6660
 1.3310	42.5580
 1.3320	42.4510
 1.3330	42.3420
 1.3340	42.2330
 1.3350	42.1230
 1.3360	42.0130
 1.3370	41.9040
 1.3380	41.7950
 1.3390	41.6870
 1.3400	41.5800
 1.3410	41.4740
 1.3420	41.3670
 1.3430	41.2630
 1.3440	41.1590
 1.3450	41.0550
 1.3460	40.9520
 1.3470	40.8500
 1.3480	40.7470
 1.3490	40.6480
 1.3500	40.5510
 1.3510	40.4530
 1.3520	40.3550
 1.3530	40.2570
 1.3540	40.1580
 1.3550	40.0570
 1.3560	39.9570
 1.3570	39.8550
 1.3580	39.7520
 1.3590	39.6460
 1.3600	39.5400
 1.3610	39.4310
 1.3620	39.3160
 1.3630	39.1990
 1.3640	39.0750
 1.3650	38.9440
 1.3660	38.8090
 1.3670	38.6660
 1.3680	38.5140
 1.3690	38.3530
 1.3700	38.1780
 1.3710	37.9920
 1.3720	37.7930
 1.3730	37.5770
 1.3740	37.3500
 1.3750	37.1050
 1.3760	36.8420
 1.3770	36.5610
 1.3780	36.2580
 1.3790	35.9370
 1.3800	35.5970
 1.3810	35.2360
 1.3820	34.8610
 1.3830	34.4700
 1.3840	34.0630
 1.3850	33.6390
 1.3860	33.2060
 1.3870	32.7560
 1.3880	32.3040
 1.3890	31.8420
 1.3900	31.3730
 1.3910	30.9030
 1.3920	30.4290
 1.3930	29.9540
 1.3940	29.4830
 1.3950	29.0120
 1.3960	28.5510
 1.3970	28.0990
 1.3980	27.6570
 1.3990	27.2320
 1.4000	26.8210
 1.4010	26.4220
 1.4020	26.0420
 1.4030	25.6760
 1.4040	25.3270
 1.4050	24.9970
 1.4060	24.6830
 1.4070	24.3900
 1.4080	24.1140
 1.4090	23.8550
 1.4100	23.6140
 1.4110	23.3870
 1.4120	23.1750
 1.4130	22.9800
 1.4140	22.7990
 1.4150	22.6340
 1.4160	22.4820
 1.4170	22.3400
 1.4180	22.2090
 1.4190	22.0880
 1.4200	21.9770
 1.4210	21.8760
 1.4220	21.7840
 1.4230	21.7000
 1.4240	21.6240
 1.4250	21.5550
 1.4260	21.4930
 1.4270	21.4360
 1.4280	21.3870
 1.4290	21.3420
 1.4300	21.3030
 1.4310	21.2690
 1.4320	21.2410
 1.4330	21.2150
 1.4340	21.1950
 1.4350	21.1780
 1.4360	21.1640
 1.4370	21.1540
 1.4380	21.1470
 1.4390	21.1420
 1.4400	21.1400
 1.4410	21.1400
 1.4420	21.1440
 1.4430	21.1500
 1.4440	21.1580
 1.4450	21.1680
 1.4460	21.1800
 1.4470	21.1930
 1.4480	21.2060
 1.4490	21.2210
 1.4500	21.2380
 1.4510	21.2570
 1.4520	21.2770
 1.4530	21.2980
 1.4540	21.3200
 1.4550	21.3430
 1.4560	21.3680
 1.4570	21.3950
 1.4580	21.4240
 1.4590	21.4560
 1.4600	21.4920
 1.4610	21.5310
 1.4620	21.5750
 1.4630	21.6220
 1.4640	21.6720
 1.4650	21.7280
 1.4660	21.7880
 1.4670	21.8500
 1.4680	21.9170
 1.4690	21.9880
 1.4700	22.0620
 1.4710	22.1410
 1.4720	22.2220
 1.4730	22.3060
 1.4740	22.3940
 1.4750	22.4830
 1.4760	22.5750
 1.4770	22.6700
 1.4780	22.7660
 1.4790	22.8640
 1.4800	22.9620
 1.4810	23.0610
 1.4820	23.1620
 1.4830	23.2640
 1.4840	23.3690
 1.4850	23.4750
 1.4860	23.5820
 1.4870	23.6900
 1.4880	23.7980
 1.4890	23.9070
 1.4900	24.0150
 1.4910	24.1240
 1.4920	24.2340
 1.4930	24.3450
 1.4940	24.4560
 1.4950	24.5680
 1.4960	24.6790
 1.4970	24.7900
 1.4980	24.9010
 1.4990	25.0110
 1.5000	25.1220
 1.5010	25.2350
 1.5020	25.3460
 1.5030	25.4590
 1.5040	25.5720
 1.5050	25.6820
 1.5060	25.7930
 1.5070	25.9040
 1.5080	26.0150
 1.5090	26.1270
 1.5100	26.2380
 1.5110	26.3480
 1.5120	26.4580
 1.5130	26.5650
 1.5140	26.6720
 1.5150	26.7820
 1.5160	26.8880
 1.5170	26.9950
 1.5180	27.1010
 1.5190	27.2070
 1.5200	27.3120
 1.5210	27.4160
 1.5220	27.5200
 1.5230	27.6230
 1.5240	27.7240
 1.5250	27.8270
 1.5260	27.9300
 1.5270	28.0310
 1.5280	28.1310
 1.5290	28.2290
 1.5300	28.3270
 1.5310	28.4240
 1.5320	28.5210
 1.5330	28.6190
 1.5340	28.7160
 1.5350	28.8110
 1.5360	28.9050
 1.5370	28.9970
 1.5380	29.0890
 1.5390	29.1810
 1.5400	29.2740
 1.5410	29.3670
 1.5420	29.4580
 1.5430	29.5480
 1.5440	29.6370
 1.5450	29.7240
 1.5460	29.8100
 1.5470	29.8970
 1.5480	29.9810
 1.5490	30.0670
 1.5500	30.1530
 1.5510	30.2360
 1.5520	30.3210
 1.5530	30.4020
 1.5540	30.4820
 1.5550	30.5640
 1.5560	30.6440
 1.5570	30.7230
 1.5580	30.8000
 1.5590	30.8760
 1.5600	30.9520
 1.5610	31.0270
 1.5620	31.1010
 1.5630	31.1750
 1.5640	31.2460
 1.5650	31.3180
 1.5660	31.3900
 1.5670	31.4610
 1.5680	31.5300
 1.5690	31.5970
 1.5700	31.6640
 1.5710	31.7310
 1.5720	31.7980
 1.5730	31.8670
 1.5740	31.9340
 1.5750	32.0000
 1.5760	32.0660
 1.5770	32.1290
 1.5780	32.1940
 1.5790	32.2570
 1.5800	32.3210
 1.5810	32.3860
 1.5820	32.4480
 1.5830	32.5120
 1.5840	32.5750
 1.5850	32.6350
 1.5860	32.6980
 1.5870	32.7610
 1.5880	32.8220
 1.5890	32.8830
 1.5900	32.9420
 1.5910	32.9990
 1.5920	33.0560
 1.5930	33.1130
 1.5940	33.1710
 1.5950	33.2280
 1.5960	33.2840
 1.5970	33.3410
 1.5980	33.3960
 1.5990	33.4520
 1.6000	33.5090
 1.6010	33.5620
 1.6020	33.6170
 1.6030	33.6710
 1.6040	33.7240
 1.6050	33.7760
 1.6060	33.8260
 1.6070	33.8760
 1.6080	33.9260
 1.6090	33.9750
 1.6100	34.0250
 1.6110	34.0740
 1.6120	34.1210
 1.6130	34.1680
 1.6140	34.2140
 1.6150	34.2580
 1.6160	34.3040
 1.6170	34.3480
 1.6180	34.3920
 1.6190	34.4350
 1.6200	34.4770
 1.6210	34.5200
 1.6220	34.5620
 1.6230	34.6040
 1.6240	34.6450
 1.6250	34.6840
 1.6260	34.7210
 1.6270	34.7610
 1.6280	34.8000
 1.6290	34.8370
 1.6300	34.8740
 1.6310	34.9090
 1.6320	34.9420
 1.6330	34.9760
 1.6340	35.0110
 1.6350	35.0430
 1.6360	35.0750
 1.6370	35.1060
 1.6380	35.1370
 1.6390	35.1660
 1.6400	35.1950
 1.6410	35.2210
 1.6420	35.2470
 1.6430	35.2710
 1.6440	35.2930
 1.6450	35.3130
 1.6460	35.3320
 1.6470	35.3510
 1.6480	35.3690
 1.6490	35.3880
 1.6500	35.4050
 1.6510	35.4190
 1.6520	35.4320
 1.6530	35.4420
 1.6540	35.4520
 1.6550	35.4610
 1.6560	35.4680
 1.6570	35.4740
 1.6580	35.4780
 1.6590	35.4820
 1.6600	35.4840
 1.6610	35.4850
 1.6620	35.4860
 1.6630	35.4850
 1.6640	35.4840
 1.6650	35.4830
 1.6660	35.4800
 1.6670	35.4770
 1.6680	35.4730
 1.6690	35.4670
 1.6700	35.4600
 1.6710	35.4520
 1.6720	35.4410
 1.6730	35.4300
 1.6740	35.4200
 1.6750	35.4100
 1.6760	35.3970
 1.6770	35.3840
 1.6780	35.3680
 1.6790	35.3480
 1.6800	35.3310
 1.6810	35.3120
 1.6820	35.2900
 1.6830	35.2680
 1.6840	35.2420
 1.6850	35.2130
 1.6860	35.1830
 1.6870	35.1530
 1.6880	35.1230
 1.6890	35.0930
 1.6900	35.0590
 1.6910	35.0210
 1.6920	34.9830
 1.6930	34.9440
 1.6940	34.9040
 1.6950	34.8650
 1.6960	34.8260
 1.6970	34.7850
 1.6980	34.7430
 1.6990	34.6990
 1.7000	34.6560
 1.7010	34.6100
 1.7020	34.5650
 1.7030	34.5200
 1.7040	34.4740
 1.7050	34.4270
 1.7060	34.3820
 1.7070	34.3370
 1.7080	34.2910
 1.7090	34.2430
 1.7100	34.1970
 1.7110	34.1500
 1.7120	34.1050
 1.7130	34.0610
 1.7140	34.0180
 1.7150	33.9720
 1.7160	33.9270
 1.7170	33.8810
 1.7180	33.8330
 1.7190	33.7880
 1.7200	33.7430
 1.7210	33.6960
 1.7220	33.6520
 1.7230	33.6070
 1.7240	33.5620
 1.7250	33.5190
 1.7260	33.4760
 1.7270	33.4360
 1.7280	33.3990
 1.7290	33.3610
 1.7300	33.3240
 1.7310	33.2880
 1.7320	33.2540
 1.7330	33.2190
 1.7340	33.1880
 1.7350	33.1540
 1.7360	33.1200
 1.7370	33.0810
 1.7380	33.0390
 1.7390	32.9960
 1.7400	32.9520
 1.7410	32.9050
 1.7420	32.8570
 1.7430	32.8060
 1.7440	32.7510
 1.7450	32.6950
 1.7460	32.6380
 1.7470	32.5800
 1.7480	32.5200
 1.7490	32.4610
 1.7500	32.4010
 1.7510	32.3420
 1.7520	32.2820
 1.7530	32.2240
 1.7540	32.1660
 1.7550	32.1110
 1.7560	32.0530
 1.7570	31.9960
 1.7580	31.9430
 1.7590	31.8890
 1.7600	31.8370
 1.7610	31.7870
 1.7620	31.7390
 1.7630	31.6920
 1.7640	31.6470
 1.7650	31.6040
 1.7660	31.5620
 1.7670	31.5220
 1.7680	31.4830
 1.7690	31.4480
 1.7700	31.4120
 1.7710	31.3770
 1.7720	31.3430
 1.7730	31.3110
 1.7740	31.2800
 1.7750	31.2510
 1.7760	31.2210
 1.7770	31.1890
 1.7780	31.1600
 1.7790	31.1310
 1.7800	31.1060
 1.7810	31.0840
 1.7820	31.0620
 1.7830	31.0410
 1.7840	31.0210
 1.7850	31.0010
 1.7860	30.9840
 1.7870	30.9680
 1.7880	30.9550
 1.7890	30.9430
 1.7900	30.9370
 1.7910	30.9300
 1.7920	30.9270
 1.7930	30.9230
 1.7940	30.9160
 1.7950	30.9120
 1.7960	30.9100
 1.7970	30.9080
 1.7980	30.9110
 1.7990	30.9100
 1.8000	30.9080
 1.8010	30.9080
 1.8020	30.9070
 1.8030	30.9090
 1.8040	30.9130
 1.8050	30.9170
 1.8060	30.9210
 1.8070	30.9250
 1.8080	30.9290
 1.8090	30.9330
 1.8100	30.9390
 1.8110	30.9420
 1.8120	30.9450
 1.8130	30.9470
 1.8140	30.9460
 1.8150	30.9440
 1.8160	30.9410
 1.8170	30.9370
 1.8180	30.9330
 1.8190	30.9340
 1.8200	30.9320
 1.8210	30.9300
 1.8220	30.9250
 1.8230	30.9180
 1.8240	30.9120
 1.8250	30.9050
 1.8260	30.8940
 1.8270	30.8820
 1.8280	30.8680
 1.8290	30.8470
 1.8300	30.8290
 1.8310	30.5650
 1.8320	30.5420
 1.8330	30.5130
 1.8340	30.4810
 1.8350	30.4440
 1.8360	30.4030
 1.8370	30.3640
 1.8380	30.3190
 1.8390	30.2690
 1.8400	30.2190
 1.8410	30.1620
 1.8420	30.1000
 1.8430	30.0280
 1.8440	29.9500
 1.8450	29.8690
 1.8460	29.7770
 1.8470	29.6830
 1.8480	29.5880
 1.8490	29.4800
 1.8500	29.3610
 1.8510	29.2330
 1.8520	29.0960
 1.8530	28.9440
 1.8540	28.7860
 1.8550	28.6200
 1.8560	28.4440
 1.8570	28.2570
 1.8580	28.0550
 1.8590	27.8410
 1.8600	27.6140
 1.8610	27.3710
 1.8620	27.1170
 1.8630	26.8550
 1.8640	26.5770
 1.8650	26.2880
 1.8660	25.9860
 1.8670	25.6610
 1.8680	25.3250
 1.8690	24.9750
 1.8700	24.6080
 1.8710	24.2250
 1.8720	23.8360
 1.8730	23.4360
 1.8740	23.0250
 1.8750	22.6110
 1.8760	22.1910
 1.8770	21.7700
 1.8780	21.3450
 1.8790	20.9180
 1.8800	20.4930
 1.8810	20.0700
 1.8820	19.6430
 1.8830	19.2180
 1.8840	18.8000
 1.8850	18.3800
 1.8860	17.9700
 1.8870	17.5730
 1.8880	17.1790
 1.8890	16.7980
 1.8900	16.4330
 1.8910	16.0830
 1.8920	15.7410
 1.8930	15.4200
 1.8940	15.1180
 1.8950	14.8320
 1.8960	14.5640
 1.8970	14.3130
 1.8980	14.0790
 1.8990	13.8590
 1.9000	13.6540
 1.9010	13.4650
 1.9020	13.2900
 1.9030	13.1310
 1.9040	12.9870
 1.9050	12.8570
 1.9060	12.7410
 1.9070	12.6380
 1.9080	12.5430
 1.9090	12.4600
 1.9100	12.3840
 1.9110	12.3170
 1.9120	12.2600
 1.9130	12.2070
 1.9140	12.1600
 1.9150	12.1210
 1.9160	12.0880
 1.9170	12.0560
 1.9180	12.0290
 1.9190	12.0070
 1.9200	11.9860
 1.9210	11.9700
 1.9220	11.9580
 1.9230	11.9500
 1.9240	11.9440
 1.9250	11.9400
 1.9260	11.9390
 1.9270	11.9430
 1.9280	11.9500
 1.9290	11.9580
 1.9300	11.9680
 1.9310	11.9790
 1.9320	11.9900
 1.9330	12.0070
 1.9340	12.0300
 1.9350	12.0520
 1.9360	12.0780
 1.9370	12.1040
 1.9380	12.1300
 1.9390	12.1550
 1.9400	12.1860
 1.9410	12.2180
 1.9420	12.2490
 1.9430	12.2880
 1.9440	12.3240
 1.9450	12.3580
 1.9460	12.3950
 1.9470	12.4320
 1.9480	12.4710
 1.9490	12.5130
 1.9500	12.5590
 1.9510	12.6040
 1.9520	12.6520
 1.9530	12.6970
 1.9540	12.7420
 1.9550	12.7900
 1.9560	12.8400
 1.9570	12.8920
 1.9580	12.9510
 1.9590	13.0040
 1.9600	13.0550
 1.9610	13.1070
 1.9620	13.1570
 1.9630	13.2070
 1.9640	13.2620
 1.9650	13.3190
 1.9660	13.3770
 1.9670	13.4360
 1.9680	13.4950
 1.9690	13.5560
 1.9700	13.6150
 1.9710	13.6730
 1.9720	13.7330
 1.9730	13.7950
 1.9740	13.8560
 1.9750	13.9200
 1.9760	13.9860
 1.9770	14.0480
 1.9780	14.1120
 1.9790	14.1760
 1.9800	14.2380
 1.9810	14.3040
 1.9820	14.3730
 1.9830	14.4420
 1.9840	14.5150
 1.9850	14.5850
 1.9860	14.6540
 1.9870	14.7220
 1.9880	14.7880
 1.9890	14.8560
 1.9900	14.9280
 1.9910	14.9990
 1.9920	15.0690
 1.9930	15.1400
 1.9940	15.2110
 1.9950	15.2790
 1.9960	15.3480
 1.9970	15.4180
 1.9980	15.4870
 1.9990	15.5570
 2.0000	15.6270
 2.0010	15.6980
 2.0020	15.7680
 2.0030	15.8350
 2.0040	15.9020
 2.0050	15.9700
 2.0060	16.0380
 2.0070	16.1050
 2.0080	16.1740
 2.0090	16.2420
 2.0100	16.3100
 2.0110	16.3760
 2.0120	16.4410
 2.0130	16.5050
 2.0140	16.5670
 2.0150	16.6290
 2.0160	16.6940
 2.0170	16.7580
 2.0180	16.8220
 2.0190	16.8840
 2.0200	16.9470
 2.0210	17.0100
 2.0220	17.0710
 2.0230	17.1300
 2.0240	17.1890
 2.0250	17.2450
 2.0260	17.3020
 2.0270	17.3600
 2.0280	17.4170
 2.0290	17.4740
 2.0300	17.5300
 2.0310	17.5860
 2.0320	17.6420
 2.0330	17.6960
 2.0340	17.7490
 2.0350	17.8010
 2.0360	17.8530
 2.0370	17.9020
 2.0380	17.9480
 2.0390	17.9950
 2.0400	18.0410
 2.0410	18.0860
 2.0420	18.1340
 2.0430	18.1790
 2.0440	18.2230
 2.0450	18.2660
 2.0460	18.3100
 2.0470	18.3520
 2.0480	18.3940
 2.0490	18.4350
 2.0500	18.4770
 2.0510	18.5190
 2.0520	18.5620
 2.0530	18.6060
 2.0540	18.6490
 2.0550	18.6920
 2.0560	18.7350
 2.0570	18.7770
 2.0580	18.8210
 2.0590	18.8670
 2.0600	18.9150
 2.0610	18.9630
 2.0620	19.0120
 2.0630	19.0590
 2.0640	19.1040
 2.0650	19.1480
 2.0660	19.1860
 2.0670	19.2290
 2.0680	19.2730
 2.0690	19.3180
 2.0700	19.3670
 2.0710	19.4140
 2.0720	19.4600
 2.0730	19.5050
 2.0740	19.5500
 2.0750	19.5930
 2.0760	19.6380
 2.0770	19.6840
 2.0780	19.7280
 2.0790	19.7700
 2.0800	19.8130
 2.0810	19.8510
 2.0820	19.8940
 2.0830	19.9410
 2.0840	19.9860
 2.0850	20.0320
 2.0860	20.0760
 2.0870	20.1170
 2.0880	20.1580
 2.0890	20.1970
 2.0900	20.2340
 2.0910	20.2740
 2.0920	20.3140
 2.0930	20.3560
 2.0940	20.4010
 2.0950	20.4440
 2.0960	20.4880
 2.0970	20.5280
 2.0980	20.5630
 2.0990	20.6030
 2.1000	20.6410
 2.1010	20.6810
 2.1020	20.7260
 2.1030	20.7690
 2.1040	20.8120
 2.1050	20.8550
 2.1060	20.8960
 2.1070	20.9360
 2.1080	20.9780
 2.1090	21.0180
 2.1100	21.0590
 2.1110	21.1000
 2.1120	21.1410
 2.1130	21.1830
 2.1140	21.2230
 2.1150	21.2630
 2.1160	21.3020
 2.1170	21.3380
 2.1180	21.3760
 2.1190	21.4150
 2.1200	21.4540
 2.1210	21.4920
 2.1220	21.5330
 2.1230	21.5720
 2.1240	21.6100
 2.1250	21.6470
 2.1260	21.6810
 2.1270	21.7170
 2.1280	21.7520
 2.1290	21.7860
 2.1300	21.8210
 2.1310	21.8530
 2.1320	21.8820
 2.1330	21.9120
 2.1340	21.9450
 2.1350	21.9740
 2.1360	22.0010
 2.1370	22.0290
 2.1380	22.0570
 2.1390	22.0830
 2.1400	22.1080
 2.1410	22.1340
 2.1420	22.1590
 2.1430	22.1810
 2.1440	22.2050
 2.1450	22.2310
 2.1460	22.2550
 2.1470	22.2770
 2.1480	22.2980
 2.1490	22.3170
 2.1500	22.3370
 2.1510	22.3550
 2.1520	22.3750
 2.1530	22.3950
 2.1540	22.4150
 2.1550	22.4370
 2.1560	22.4570
 2.1570	22.4750
 2.1580	22.4920
 2.1590	22.5070
 2.1600	22.5200
 2.1610	22.5350
 2.1620	22.5500
 2.1630	22.5630
 2.1640	22.5790
 2.1650	22.5890
 2.1660	22.5940
 2.1670	22.6040
 2.1680	22.6110
 2.1690	22.6240
 2.1700	22.6440
 2.1710	22.6590
 2.1720	22.6750
 2.1730	22.6910
 2.1740	22.7070
 2.1750	22.7190
 2.1760	22.7260
 2.1770	22.7380
 2.1780	22.7480
 2.1790	22.7610
 2.1800	22.7830
 2.1810	22.7990
 2.1820	22.8110
 2.1830	22.8270
 2.1840	22.8400
 2.1850	22.8500
 2.1860	22.8640
 2.1870	22.8800
 2.1880	22.8960
 2.1890	22.9140
 2.1900	22.9290
 2.1910	22.9430
 2.1920	22.9570
 2.1930	22.9700
 2.1940	22.9830
 2.1950	23.0000
 2.1960	23.0130
 2.1970	23.0260
 2.1980	23.0370
 2.1990	23.0430
 2.2000	23.0530
 2.2010	23.0650
 2.2020	23.0750
 2.2030	23.0860
 2.2040	23.0970
 2.2050	23.1100
 2.2060	23.1190
 2.2070	23.1280
 2.2080	23.1360
 2.2090	23.1450
 2.2100	23.1510
 2.2110	23.1580
 2.2120	23.1670
 2.2130	23.1710
 2.2140	23.1710
 2.2150	23.1720
 2.2160	23.1710
 2.2170	23.1730
 2.2180	23.1760
 2.2190	23.1770
 2.2200	23.1780
 2.2210	23.1770
 2.2220	23.1740
 2.2230	23.1670
 2.2240	23.1580
 2.2250	23.1460
 2.2260	23.1290
 2.2270	23.1120
 2.2280	23.0950
 2.2290	23.0760
 2.2300	23.0580
 2.2310	23.0340
 2.2320	23.0070
 2.2330	22.9860
 2.2340	22.9620
 2.2350	22.9390
 2.2360	22.9120
 2.2370	22.8850
 2.2380	22.8520
 2.2390	22.8130
 2.2400	22.7760
 2.2410	22.7350
 2.2420	22.6950
 2.2430	22.6560
 2.2440	22.6160
 2.2450	22.5760
 2.2460	22.5310
 2.2470	22.4830
 2.2480	22.4340
 2.2490	22.3830
 2.2500	22.3290
 2.2510	22.2710
 2.2520	22.2170
 2.2530	22.1620
 2.2540	22.1060
 2.2550	22.0540
 2.2560	21.9990
 2.2570	21.9410
 2.2580	21.8830
 2.2590	21.8260
 2.2600	21.7680
 2.2610	21.7060
 2.2620	21.6460
 2.2630	21.5890
 2.2640	21.5310
 2.2650	21.4790
 2.2660	21.4270
 2.2670	21.3750
 2.2680	21.3250
 2.2690	21.2760
 2.2700	21.2290
 2.2710	21.1790
 2.2720	21.1270
 2.2730	21.0790
 2.2740	21.0280
 2.2750	20.9840
 2.2760	20.9450
 2.2770	20.9070
 2.2780	20.8700
 2.2790	20.8320
 2.2800	20.7960
 2.2810	20.7600
 2.2820	20.7230
 2.2830	20.6870
 2.2840	20.6510
 2.2850	20.6150
 2.2860	20.5770
 2.2870	20.5380
 2.2880	20.4980
 2.2890	20.4580
 2.2900	20.4170
 2.2910	20.3740
 2.2920	20.3330
 2.2930	20.2850
 2.2940	20.2270
 2.2950	20.1750
 2.2960	20.1210
 2.2970	20.0710
 2.2980	20.0230
 2.2990	19.9860
 2.3000	19.9460
 2.3010	19.9080
 2.3020	19.8670
 2.3030	19.8260
 2.3040	19.7830
 2.3050	19.7410
 2.3060	19.7110
 2.3070	19.6790
 2.3080	19.6510
 2.3090	19.6300
 2.3100	19.6080
 2.3110	19.5920
 2.3120	19.5720
 2.3130	19.5540
 2.3140	19.5340
 2.3150	19.5090
 2.3160	19.4920
 2.3170	19.4790
 2.3180	19.4600
 2.3190	19.4410
 2.3200	19.4210
 2.3210	19.3950
 2.3220	19.3710
 2.3230	19.3480
 2.3240	19.3250
 2.3250	19.3020
 2.3260	19.2720
 2.3270	19.2380
 2.3280	19.2060
 2.3290	19.1700
 2.3300	19.1350
 2.3310	19.1050
 2.3320	19.0690
 2.3330	19.0260
 2.3340	18.9850
 2.3350	18.9450
 2.3360	18.9050
 2.3370	18.8680
 2.3380	18.8240
 2.3390	18.7740
 2.3400	18.7310
 2.3410	18.6900
 2.3420	18.6480
 2.3430	18.6120
 2.3440	18.5730
 2.3450	18.5270
 2.3460	18.4870
 2.3470	18.4520
 2.3480	18.4170
 2.3490	18.3870
 2.3500	18.3570
 2.3510	18.3310
 2.3520	18.3050
 2.3530	18.2840
 2.3540	18.2580
 2.3550	18.2280
 2.3560	18.2000
 2.3570	18.1660
 2.3580	18.1330
 2.3590	18.1130
 2.3600	18.0880
 2.3610	18.0600
 2.3620	18.0330
 2.3630	18.0030
 2.3640	17.9730
 2.3650	17.9400
 2.3660	17.9070
 2.3670	17.8660
 2.3680	17.8240
 2.3690	17.7920
 2.3700	17.7590
 2.3710	17.7260
 2.3720	17.6910
 2.3730	17.6510
 2.3740	17.6140
 2.3750	17.5840
 2.3760	17.5450
 2.3770	17.5090
 2.3780	17.4740
 2.3790	17.4200
 2.3800	17.3750
 2.3810	17.3390
 2.3820	17.2980
 2.3830	17.2700
 2.3840	17.2480
 2.3850	17.2230
 2.3860	17.1950
 2.3870	17.1570
 2.3880	17.1120
 2.3890	17.0650
 2.3900	17.0190
 2.3910	16.9830
 2.3920	16.9570
 2.3930	16.9240
 2.3940	16.8900
 2.3950	16.8610
 2.3960	16.8210
 2.3970	16.7770
 2.3980	16.7460
 2.3990	16.7130
 2.4000	16.6680
 2.4010	16.6300
 2.4020	16.5940
 2.4030	16.5540
 2.4040	16.5190
 2.4050	16.4720
 2.4060	16.4170
 2.4070	16.3650
 2.4080	16.3210
 2.4090	16.2860
 2.4100	16.2540
 2.4110	16.2240
 2.4120	16.1940
 2.4130	16.1680
 2.4140	16.1370
 2.4150	16.0890
 2.4160	16.0380
 2.4170	15.9930
 2.4180	15.9520
 2.4190	15.9190
 2.4200	15.8870
 2.4210	15.8450
 2.4220	15.8010
 2.4230	15.7600
 2.4240	15.7110
 2.4250	15.6790
 2.4260	15.6450
 2.4270	15.5960
 2.4280	15.5700
 2.4290	15.5310
 2.4300	15.4880
 2.4310	15.4610
 2.4320	15.4110
 2.4330	15.3400
 2.4340	15.2770
 2.4350	15.2330
 2.4360	15.1960
 2.4370	15.1770
 2.4380	15.1610
 2.4390	15.1330
 2.4400	15.0940
 2.4410	15.0330
 2.4420	14.9760
 2.4430	14.9090
 2.4440	14.8440
 2.4450	14.8110
 2.4460	14.7690
 2.4470	14.7260
 2.4480	14.6900
 2.4490	14.6600
 2.4500	14.6410
 2.4510	14.5990
 2.4520	14.5480
 2.4530	14.5080
 2.4540	14.4580
 2.4550	14.4210
 2.4560	14.4000
 2.4570	14.3510
 2.4580	14.2890
 2.4590	14.2400
 2.4600	14.2000
 2.4610	14.1730
 2.4620	14.1590
 2.4630	14.1290
 2.4640	14.0940
 2.4650	14.0570
 2.4660	13.9960
 2.4670	13.9630
 2.4680	13.9420
 2.4690	13.9050
 2.4700	13.8790
 2.4710	13.8650
 2.4720	13.8410
 2.4730	13.8160
 2.4740	13.7870
 2.4750	13.7460
 2.4760	13.7190
 2.4770	13.7100
 2.4780	13.6870
 2.4790	13.6550
 2.4800	13.6340
 2.4810	13.6070
 2.4820	13.5860
 2.4830	13.5860
 2.4840	13.5810
 2.4850	13.5360
 2.4860	13.5000
 2.4870	13.4680
 2.4880	13.4000
 2.4890	13.3700
 2.4900	13.3700
 2.4910	13.3300
 2.4920	13.3120
 2.4930	13.3280
 2.4940	13.2960
 2.4950	13.2470
 2.4960	13.2450
 2.4970	13.2130
 2.4980	13.1720
 2.4990	13.1990
 2.5000	13.1850
