Name: Heteromeles arbutifolia 3
Type: vegetation
Class: Shrub
Genus: Heteromeles
Species: arbutifolia
Sample No.: VH210
Owner: UCSB
Wavelength Range: VSWIR
Origin: 34.4908; -119.7912; WGS84
Collection Date: 10/13/2013
Description: Samples were collected as part of the HyspIRI Airborne Campaign. 48 individual plants were sampled in three times in 2013 - spring  summer  and fall. The name of the sample includes a 1  2  or 3 which references a different individual of the species. Samples were taken to JPL and processed within 48 hours of collection. The same leaves were processed in the Nicolet and then measured using the ASD.
Measurement: Bidirectional reflectance
First Column: X
Second Column: Y
X Units: Wavelength (micrometers)
Y Units: Reflectance (percentage)
First X Value: 0.35
Last X Value: 2.5
Number of X Values: 2151
Additional Information: vegetation.shrub.heteromeles.arbutifolia.vswir.vh210.ucsb.asd.ancillary.txt

 0.3500	 9.5520
 0.3510	 9.2290
 0.3520	 9.2820
 0.3530	 9.3640
 0.3540	 9.1990
 0.3550	 9.3310
 0.3560	 9.2990
 0.3570	 9.1880
 0.3580	 9.3110
 0.3590	 9.3350
 0.3600	 9.2560
 0.3610	 9.1460
 0.3620	 9.1320
 0.3630	 9.1350
 0.3640	 9.1050
 0.3650	 9.0390
 0.3660	 9.0750
 0.3670	 9.1230
 0.3680	 9.1120
 0.3690	 9.0150
 0.3700	 9.0280
 0.3710	 8.9860
 0.3720	 8.8660
 0.3730	 8.9850
 0.3740	 9.0150
 0.3750	 8.9910
 0.3760	 9.0150
 0.3770	 8.9220
 0.3780	 8.8890
 0.3790	 8.9470
 0.3800	 8.9830
 0.3810	 8.8010
 0.3820	 8.7060
 0.3830	 8.8660
 0.3840	 9.0020
 0.3850	 8.9040
 0.3860	 8.7710
 0.3870	 8.8740
 0.3880	 8.9420
 0.3890	 8.9010
 0.3900	 8.8190
 0.3910	 8.8770
 0.3920	 8.9150
 0.3930	 8.9040
 0.3940	 8.8610
 0.3950	 8.8420
 0.3960	 8.7800
 0.3970	 8.7360
 0.3980	 8.8030
 0.3990	 8.8510
 0.4000	 8.8420
 0.4010	 8.8150
 0.4020	 8.8960
 0.4030	 8.8550
 0.4040	 8.7850
 0.4050	 8.8050
 0.4060	 8.8520
 0.4070	 8.8730
 0.4080	 8.8670
 0.4090	 8.8680
 0.4100	 8.9140
 0.4110	 8.9480
 0.4120	 8.9340
 0.4130	 8.8830
 0.4140	 8.9260
 0.4150	 9.0020
 0.4160	 9.0120
 0.4170	 8.9800
 0.4180	 8.9910
 0.4190	 9.0370
 0.4200	 9.0260
 0.4210	 9.0420
 0.4220	 9.0670
 0.4230	 9.0770
 0.4240	 9.0900
 0.4250	 9.0880
 0.4260	 9.0940
 0.4270	 9.1390
 0.4280	 9.1620
 0.4290	 9.1670
 0.4300	 9.1630
 0.4310	 9.1570
 0.4320	 9.1500
 0.4330	 9.1440
 0.4340	 9.1420
 0.4350	 9.1320
 0.4360	 9.1510
 0.4370	 9.1780
 0.4380	 9.1580
 0.4390	 9.1660
 0.4400	 9.1900
 0.4410	 9.2100
 0.4420	 9.2340
 0.4430	 9.2390
 0.4440	 9.2410
 0.4450	 9.2620
 0.4460	 9.2680
 0.4470	 9.2650
 0.4480	 9.2660
 0.4490	 9.2900
 0.4500	 9.2810
 0.4510	 9.2680
 0.4520	 9.2830
 0.4530	 9.3030
 0.4540	 9.3080
 0.4550	 9.3030
 0.4560	 9.3090
 0.4570	 9.3240
 0.4580	 9.3260
 0.4590	 9.3070
 0.4600	 9.2890
 0.4610	 9.3000
 0.4620	 9.3200
 0.4630	 9.3190
 0.4640	 9.3290
 0.4650	 9.3260
 0.4660	 9.3130
 0.4670	 9.3200
 0.4680	 9.3100
 0.4690	 9.3070
 0.4700	 9.3210
 0.4710	 9.2920
 0.4720	 9.2870
 0.4730	 9.3070
 0.4740	 9.3130
 0.4750	 9.3050
 0.4760	 9.3000
 0.4770	 9.3050
 0.4780	 9.3050
 0.4790	 9.2910
 0.4800	 9.2810
 0.4810	 9.2900
 0.4820	 9.3060
 0.4830	 9.3000
 0.4840	 9.2820
 0.4850	 9.2910
 0.4860	 9.2990
 0.4870	 9.2980
 0.4880	 9.2920
 0.4890	 9.3130
 0.4900	 9.3250
 0.4910	 9.3280
 0.4920	 9.3380
 0.4930	 9.3520
 0.4940	 9.3670
 0.4950	 9.3850
 0.4960	 9.4060
 0.4970	 9.4280
 0.4980	 9.4500
 0.4990	 9.4730
 0.5000	 9.4940
 0.5010	 9.5290
 0.5020	 9.5690
 0.5030	 9.5900
 0.5040	 9.6400
 0.5050	 9.6970
 0.5060	 9.7440
 0.5070	 9.7980
 0.5080	 9.8580
 0.5090	 9.9280
 0.5100	10.0090
 0.5110	10.0910
 0.5120	10.1840
 0.5130	10.2910
 0.5140	10.3950
 0.5150	10.5190
 0.5160	10.6560
 0.5170	10.7920
 0.5180	10.9500
 0.5190	11.1140
 0.5200	11.2780
 0.5210	11.4480
 0.5220	11.6230
 0.5230	11.8060
 0.5240	11.9920
 0.5250	12.1610
 0.5260	12.3340
 0.5270	12.5070
 0.5280	12.6650
 0.5290	12.8100
 0.5300	12.9500
 0.5310	13.0850
 0.5320	13.2060
 0.5330	13.3100
 0.5340	13.4040
 0.5350	13.4920
 0.5360	13.5690
 0.5370	13.6320
 0.5380	13.6850
 0.5390	13.7420
 0.5400	13.7850
 0.5410	13.8150
 0.5420	13.8390
 0.5430	13.8650
 0.5440	13.8990
 0.5450	13.9360
 0.5460	13.9730
 0.5470	14.0310
 0.5480	14.0910
 0.5490	14.1380
 0.5500	14.1700
 0.5510	14.1960
 0.5520	14.2120
 0.5530	14.2150
 0.5540	14.2110
 0.5550	14.1930
 0.5560	14.1560
 0.5570	14.1020
 0.5580	14.0350
 0.5590	13.9610
 0.5600	13.8760
 0.5610	13.7750
 0.5620	13.6720
 0.5630	13.5650
 0.5640	13.4450
 0.5650	13.3140
 0.5660	13.1850
 0.5670	13.0620
 0.5680	12.9400
 0.5690	12.8150
 0.5700	12.6900
 0.5710	12.5680
 0.5720	12.4410
 0.5730	12.3300
 0.5740	12.2370
 0.5750	12.1480
 0.5760	12.0560
 0.5770	11.9700
 0.5780	11.8920
 0.5790	11.8120
 0.5800	11.7470
 0.5810	11.6910
 0.5820	11.6300
 0.5830	11.5630
 0.5840	11.4950
 0.5850	11.4300
 0.5860	11.3700
 0.5870	11.3240
 0.5880	11.2920
 0.5890	11.2680
 0.5900	11.2500
 0.5910	11.2280
 0.5920	11.2010
 0.5930	11.1720
 0.5940	11.1430
 0.5950	11.1300
 0.5960	11.1270
 0.5970	11.1030
 0.5980	11.0790
 0.5990	11.0580
 0.6000	11.0380
 0.6010	11.0110
 0.6020	10.9810
 0.6030	10.9490
 0.6040	10.9140
 0.6050	10.8800
 0.6060	10.8460
 0.6070	10.8080
 0.6080	10.7590
 0.6090	10.7040
 0.6100	10.6420
 0.6110	10.5690
 0.6120	10.5230
 0.6130	10.4980
 0.6140	10.4780
 0.6150	10.4360
 0.6160	10.3970
 0.6170	10.3670
 0.6180	10.3420
 0.6190	10.3080
 0.6200	10.2740
 0.6210	10.2470
 0.6220	10.2310
 0.6230	10.2180
 0.6240	10.2040
 0.6250	10.1900
 0.6260	10.1830
 0.6270	10.1740
 0.6280	10.1650
 0.6290	10.1650
 0.6300	10.1550
 0.6310	10.1460
 0.6320	10.1430
 0.6330	10.1410
 0.6340	10.1280
 0.6350	10.1090
 0.6360	10.0880
 0.6370	10.0670
 0.6380	10.0340
 0.6390	 9.9950
 0.6400	 9.9620
 0.6410	 9.9280
 0.6420	 9.8920
 0.6430	 9.8550
 0.6440	 9.8150
 0.6450	 9.7760
 0.6460	 9.7410
 0.6470	 9.7080
 0.6480	 9.6790
 0.6490	 9.6510
 0.6500	 9.6260
 0.6510	 9.6080
 0.6520	 9.5940
 0.6530	 9.5810
 0.6540	 9.5670
 0.6550	 9.5500
 0.6560	 9.5330
 0.6570	 9.5170
 0.6580	 9.4980
 0.6590	 9.4780
 0.6600	 9.4570
 0.6610	 9.4360
 0.6620	 9.4190
 0.6630	 9.4080
 0.6640	 9.4000
 0.6650	 9.3910
 0.6660	 9.3790
 0.6670	 9.3730
 0.6680	 9.3720
 0.6690	 9.3690
 0.6700	 9.3830
 0.6710	 9.3960
 0.6720	 9.4030
 0.6730	 9.4220
 0.6740	 9.4410
 0.6750	 9.4610
 0.6760	 9.4860
 0.6770	 9.5130
 0.6780	 9.5430
 0.6790	 9.5760
 0.6800	 9.6130
 0.6810	 9.6550
 0.6820	 9.6980
 0.6830	 9.7420
 0.6840	 9.7930
 0.6850	 9.8470
 0.6860	 9.9040
 0.6870	 9.9710
 0.6880	10.0540
 0.6890	10.1470
 0.6900	10.2600
 0.6910	10.4100
 0.6920	10.5940
 0.6930	10.8190
 0.6940	11.0960
 0.6950	11.4390
 0.6960	11.8480
 0.6970	12.3220
 0.6980	12.8640
 0.6990	13.4860
 0.7000	14.1790
 0.7010	14.9380
 0.7020	15.7590
 0.7030	16.6350
 0.7040	17.5550
 0.7050	18.5120
 0.7060	19.5150
 0.7070	20.5520
 0.7080	21.6160
 0.7090	22.7070
 0.7100	23.8290
 0.7110	24.9720
 0.7120	26.1310
 0.7130	27.3080
 0.7140	28.5020
 0.7150	29.7100
 0.7160	30.9270
 0.7170	32.1360
 0.7180	33.3620
 0.7190	34.5930
 0.7200	35.8030
 0.7210	37.0040
 0.7220	38.1950
 0.7230	39.3750
 0.7240	40.5400
 0.7250	41.6650
 0.7260	42.7640
 0.7270	43.8460
 0.7280	44.8730
 0.7290	45.8760
 0.7300	46.8470
 0.7310	47.7650
 0.7320	48.6490
 0.7330	49.4930
 0.7340	50.2990
 0.7350	51.0740
 0.7360	51.7930
 0.7370	52.4760
 0.7380	53.1390
 0.7390	53.7430
 0.7400	54.3160
 0.7410	54.8610
 0.7420	55.3680
 0.7430	55.8300
 0.7440	56.2650
 0.7450	56.6790
 0.7460	57.0620
 0.7470	57.4050
 0.7480	57.7140
 0.7490	57.9990
 0.7500	58.2770
 0.7510	58.5330
 0.7520	58.7560
 0.7530	58.9450
 0.7540	59.1390
 0.7550	59.3140
 0.7560	59.4650
 0.7570	59.6050
 0.7580	59.7290
 0.7590	59.8390
 0.7600	59.9410
 0.7610	60.0440
 0.7620	60.1330
 0.7630	60.2080
 0.7640	60.2740
 0.7650	60.3270
 0.7660	60.3780
 0.7670	60.4310
 0.7680	60.4830
 0.7690	60.5210
 0.7700	60.5510
 0.7710	60.5830
 0.7720	60.6180
 0.7730	60.6430
 0.7740	60.6600
 0.7750	60.6760
 0.7760	60.6980
 0.7770	60.7250
 0.7780	60.7580
 0.7790	60.7900
 0.7800	60.8040
 0.7810	60.8100
 0.7820	60.8220
 0.7830	60.8490
 0.7840	60.8630
 0.7850	60.8820
 0.7860	60.9140
 0.7870	60.9340
 0.7880	60.9330
 0.7890	60.9340
 0.7900	60.9600
 0.7910	60.9720
 0.7920	60.9990
 0.7930	61.0280
 0.7940	61.0300
 0.7950	61.0430
 0.7960	61.0580
 0.7970	61.0720
 0.7980	61.0930
 0.7990	61.1050
 0.8000	61.1180
 0.8010	61.1380
 0.8020	61.1470
 0.8030	61.1750
 0.8040	61.2080
 0.8050	61.2220
 0.8060	61.2220
 0.8070	61.2310
 0.8080	61.2520
 0.8090	61.2680
 0.8100	61.2840
 0.8110	61.2980
 0.8120	61.3160
 0.8130	61.3510
 0.8140	61.3710
 0.8150	61.3770
 0.8160	61.3860
 0.8170	61.4150
 0.8180	61.4380
 0.8190	61.4440
 0.8200	61.4430
 0.8210	61.4800
 0.8220	61.5080
 0.8230	61.5230
 0.8240	61.5630
 0.8250	61.5800
 0.8260	61.5870
 0.8270	61.6000
 0.8280	61.6090
 0.8290	61.6360
 0.8300	61.6710
 0.8310	61.6980
 0.8320	61.6990
 0.8330	61.7070
 0.8340	61.7250
 0.8350	61.7420
 0.8360	61.7570
 0.8370	61.7810
 0.8380	61.8120
 0.8390	61.8410
 0.8400	61.8510
 0.8410	61.8640
 0.8420	61.8910
 0.8430	61.9250
 0.8440	61.9430
 0.8450	61.9550
 0.8460	61.9730
 0.8470	61.9980
 0.8480	62.0390
 0.8490	62.0700
 0.8500	62.0690
 0.8510	62.0730
 0.8520	62.0910
 0.8530	62.1130
 0.8540	62.1240
 0.8550	62.1490
 0.8560	62.1720
 0.8570	62.1820
 0.8580	62.1820
 0.8590	62.2020
 0.8600	62.2230
 0.8610	62.2350
 0.8620	62.2620
 0.8630	62.2880
 0.8640	62.3000
 0.8650	62.2980
 0.8660	62.3140
 0.8670	62.3220
 0.8680	62.3270
 0.8690	62.3380
 0.8700	62.3650
 0.8710	62.3710
 0.8720	62.3680
 0.8730	62.3880
 0.8740	62.3920
 0.8750	62.3940
 0.8760	62.4040
 0.8770	62.4210
 0.8780	62.4300
 0.8790	62.4300
 0.8800	62.4360
 0.8810	62.4770
 0.8820	62.4850
 0.8830	62.4800
 0.8840	62.4860
 0.8850	62.4920
 0.8860	62.4770
 0.8870	62.4640
 0.8880	62.4770
 0.8890	62.4850
 0.8900	62.4870
 0.8910	62.4900
 0.8920	62.4990
 0.8930	62.5070
 0.8940	62.5060
 0.8950	62.5040
 0.8960	62.5210
 0.8970	62.5190
 0.8980	62.5080
 0.8990	62.5060
 0.9000	62.5230
 0.9010	62.5200
 0.9020	62.5100
 0.9030	62.5090
 0.9040	62.5160
 0.9050	62.5200
 0.9060	62.5180
 0.9070	62.5150
 0.9080	62.5120
 0.9090	62.5160
 0.9100	62.5240
 0.9110	62.5250
 0.9120	62.4890
 0.9130	62.4940
 0.9140	62.5190
 0.9150	62.5230
 0.9160	62.5440
 0.9170	62.5510
 0.9180	62.5340
 0.9190	62.5020
 0.9200	62.4990
 0.9210	62.4800
 0.9220	62.4540
 0.9230	62.4610
 0.9240	62.4820
 0.9250	62.4910
 0.9260	62.4790
 0.9270	62.4570
 0.9280	62.4700
 0.9290	62.4860
 0.9300	62.4750
 0.9310	62.4260
 0.9320	62.4080
 0.9330	62.4050
 0.9340	62.3950
 0.9350	62.3580
 0.9360	62.3530
 0.9370	62.3370
 0.9380	62.2950
 0.9390	62.2670
 0.9400	62.2770
 0.9410	62.2720
 0.9420	62.2260
 0.9430	62.1970
 0.9440	62.1790
 0.9450	62.1590
 0.9460	62.1230
 0.9470	62.0770
 0.9480	62.0330
 0.9490	61.9890
 0.9500	61.9430
 0.9510	61.9050
 0.9520	61.8530
 0.9530	61.7950
 0.9540	61.7450
 0.9550	61.7030
 0.9560	61.6350
 0.9570	61.5620
 0.9580	61.5090
 0.9590	61.4440
 0.9600	61.4170
 0.9610	61.3830
 0.9620	61.3070
 0.9630	61.3230
 0.9640	61.3000
 0.9650	61.2550
 0.9660	61.2460
 0.9670	61.2240
 0.9680	61.1790
 0.9690	61.1530
 0.9700	61.1790
 0.9710	61.1610
 0.9720	61.1720
 0.9730	61.1740
 0.9740	61.1130
 0.9750	61.1230
 0.9760	61.1440
 0.9770	61.1630
 0.9780	61.1880
 0.9790	61.1970
 0.9800	61.1890
 0.9810	61.1720
 0.9820	61.1660
 0.9830	61.2080
 0.9840	61.2160
 0.9850	61.2150
 0.9860	61.2590
 0.9870	61.2590
 0.9880	61.2730
 0.9890	61.2980
 0.9900	61.3130
 0.9910	61.3430
 0.9920	61.3400
 0.9930	61.3380
 0.9940	61.3360
 0.9950	61.3330
 0.9960	61.3310
 0.9970	61.3280
 0.9980	61.3260
 0.9990	61.3240
 1.0000	61.3210
 1.0010	61.3190
 1.0020	61.3160
 1.0030	61.3140
 1.0040	61.3120
 1.0050	61.3090
 1.0060	61.3070
 1.0070	61.3050
 1.0080	61.3020
 1.0090	61.3000
 1.0100	61.3000
 1.0110	61.3300
 1.0120	61.3620
 1.0130	61.3830
 1.0140	61.4130
 1.0150	61.4410
 1.0160	61.4910
 1.0170	61.5340
 1.0180	61.5720
 1.0190	61.6220
 1.0200	61.6520
 1.0210	61.6620
 1.0220	61.6800
 1.0230	61.6980
 1.0240	61.7070
 1.0250	61.7210
 1.0260	61.7420
 1.0270	61.7580
 1.0280	61.7590
 1.0290	61.7780
 1.0300	61.8100
 1.0310	61.8390
 1.0320	61.8740
 1.0330	61.9160
 1.0340	61.9540
 1.0350	61.9790
 1.0360	61.9980
 1.0370	62.0070
 1.0380	62.0220
 1.0390	62.0290
 1.0400	62.0410
 1.0410	62.0660
 1.0420	62.0750
 1.0430	62.0680
 1.0440	62.0760
 1.0450	62.0830
 1.0460	62.0930
 1.0470	62.1210
 1.0480	62.1320
 1.0490	62.1240
 1.0500	62.1280
 1.0510	62.1300
 1.0520	62.1360
 1.0530	62.1460
 1.0540	62.1670
 1.0550	62.1810
 1.0560	62.1900
 1.0570	62.2070
 1.0580	62.2370
 1.0590	62.2510
 1.0600	62.2600
 1.0610	62.2700
 1.0620	62.2690
 1.0630	62.2730
 1.0640	62.2760
 1.0650	62.2860
 1.0660	62.2980
 1.0670	62.3100
 1.0680	62.3250
 1.0690	62.3510
 1.0700	62.3640
 1.0710	62.3750
 1.0720	62.3760
 1.0730	62.3670
 1.0740	62.3680
 1.0750	62.3660
 1.0760	62.3680
 1.0770	62.3820
 1.0780	62.3850
 1.0790	62.3810
 1.0800	62.3800
 1.0810	62.3720
 1.0820	62.3710
 1.0830	62.3760
 1.0840	62.3780
 1.0850	62.3810
 1.0860	62.3860
 1.0870	62.3850
 1.0880	62.3810
 1.0890	62.3780
 1.0900	62.3720
 1.0910	62.3720
 1.0920	62.3750
 1.0930	62.3770
 1.0940	62.3860
 1.0950	62.3850
 1.0960	62.3780
 1.0970	62.3730
 1.0980	62.3720
 1.0990	62.3610
 1.1000	62.3410
 1.1010	62.3260
 1.1020	62.3110
 1.1030	62.2840
 1.1040	62.2580
 1.1050	62.2490
 1.1060	62.2360
 1.1070	62.2210
 1.1080	62.2110
 1.1090	62.2140
 1.1100	62.2030
 1.1110	62.1900
 1.1120	62.1670
 1.1130	62.1330
 1.1140	62.1070
 1.1150	62.0790
 1.1160	62.0500
 1.1170	62.0250
 1.1180	61.9960
 1.1190	61.9590
 1.1200	61.9280
 1.1210	61.8900
 1.1220	61.8490
 1.1230	61.8090
 1.1240	61.7530
 1.1250	61.6940
 1.1260	61.6310
 1.1270	61.5580
 1.1280	61.4700
 1.1290	61.3890
 1.1300	61.3080
 1.1310	61.2200
 1.1320	61.1320
 1.1330	61.0340
 1.1340	60.9300
 1.1350	60.8140
 1.1360	60.6880
 1.1370	60.5570
 1.1380	60.4150
 1.1390	60.2690
 1.1400	60.1300
 1.1410	59.9870
 1.1420	59.8380
 1.1430	59.6900
 1.1440	59.5370
 1.1450	59.3700
 1.1460	59.2210
 1.1470	59.0790
 1.1480	58.9320
 1.1490	58.7860
 1.1500	58.6490
 1.1510	58.5040
 1.1520	58.3770
 1.1530	58.2670
 1.1540	58.1610
 1.1550	58.0620
 1.1560	57.9730
 1.1570	57.8950
 1.1580	57.8230
 1.1590	57.7610
 1.1600	57.7030
 1.1610	57.6410
 1.1620	57.5860
 1.1630	57.5370
 1.1640	57.4940
 1.1650	57.4530
 1.1660	57.4170
 1.1670	57.3880
 1.1680	57.3660
 1.1690	57.3440
 1.1700	57.3340
 1.1710	57.3150
 1.1720	57.2940
 1.1730	57.2710
 1.1740	57.2450
 1.1750	57.2200
 1.1760	57.2010
 1.1770	57.1770
 1.1780	57.1550
 1.1790	57.1320
 1.1800	57.1050
 1.1810	57.0860
 1.1820	57.0660
 1.1830	57.0420
 1.1840	57.0190
 1.1850	56.9940
 1.1860	56.9650
 1.1870	56.9430
 1.1880	56.9240
 1.1890	56.9060
 1.1900	56.8880
 1.1910	56.8740
 1.1920	56.8620
 1.1930	56.8460
 1.1940	56.8390
 1.1950	56.8390
 1.1960	56.8380
 1.1970	56.8420
 1.1980	56.8460
 1.1990	56.8530
 1.2000	56.8630
 1.2010	56.8680
 1.2020	56.8780
 1.2030	56.8920
 1.2040	56.9060
 1.2050	56.9260
 1.2060	56.9510
 1.2070	56.9790
 1.2080	57.0090
 1.2090	57.0400
 1.2100	57.0710
 1.2110	57.1060
 1.2120	57.1420
 1.2130	57.1810
 1.2140	57.2240
 1.2150	57.2670
 1.2160	57.3110
 1.2170	57.3570
 1.2180	57.4060
 1.2190	57.4590
 1.2200	57.5120
 1.2210	57.5620
 1.2220	57.6100
 1.2230	57.6580
 1.2240	57.7060
 1.2250	57.7510
 1.2260	57.7960
 1.2270	57.8420
 1.2280	57.8920
 1.2290	57.9380
 1.2300	57.9770
 1.2310	58.0150
 1.2320	58.0460
 1.2330	58.0820
 1.2340	58.1200
 1.2350	58.1640
 1.2360	58.2020
 1.2370	58.2420
 1.2380	58.2730
 1.2390	58.3010
 1.2400	58.3320
 1.2410	58.3590
 1.2420	58.3910
 1.2430	58.4230
 1.2440	58.4530
 1.2450	58.4830
 1.2460	58.5120
 1.2470	58.5380
 1.2480	58.5570
 1.2490	58.5760
 1.2500	58.5930
 1.2510	58.6040
 1.2520	58.6150
 1.2530	58.6260
 1.2540	58.6390
 1.2550	58.6550
 1.2560	58.6750
 1.2570	58.6930
 1.2580	58.7070
 1.2590	58.7210
 1.2600	58.7310
 1.2610	58.7420
 1.2620	58.7520
 1.2630	58.7660
 1.2640	58.7750
 1.2650	58.7830
 1.2660	58.7900
 1.2670	58.7930
 1.2680	58.7900
 1.2690	58.7870
 1.2700	58.7830
 1.2710	58.7730
 1.2720	58.7660
 1.2730	58.7600
 1.2740	58.7500
 1.2750	58.7420
 1.2760	58.7350
 1.2770	58.7210
 1.2780	58.7080
 1.2790	58.6920
 1.2800	58.6640
 1.2810	58.6370
 1.2820	58.6130
 1.2830	58.5910
 1.2840	58.5730
 1.2850	58.5600
 1.2860	58.5480
 1.2870	58.5300
 1.2880	58.5100
 1.2890	58.4860
 1.2900	58.4570
 1.2910	58.4230
 1.2920	58.3880
 1.2930	58.3550
 1.2940	58.3230
 1.2950	58.2910
 1.2960	58.2530
 1.2970	58.2130
 1.2980	58.1740
 1.2990	58.1330
 1.3000	58.0930
 1.3010	58.0480
 1.3020	57.9980
 1.3030	57.9480
 1.3040	57.8920
 1.3050	57.8390
 1.3060	57.7880
 1.3070	57.7260
 1.3080	57.6580
 1.3090	57.5870
 1.3100	57.5140
 1.3110	57.4370
 1.3120	57.3560
 1.3130	57.2720
 1.3140	57.1780
 1.3150	57.0690
 1.3160	56.9650
 1.3170	56.8580
 1.3180	56.7470
 1.3190	56.6350
 1.3200	56.5190
 1.3210	56.3980
 1.3220	56.2710
 1.3230	56.1440
 1.3240	56.0150
 1.3250	55.8790
 1.3260	55.7410
 1.3270	55.5960
 1.3280	55.4450
 1.3290	55.2920
 1.3300	55.1330
 1.3310	54.9710
 1.3320	54.8110
 1.3330	54.6510
 1.3340	54.4880
 1.3350	54.3240
 1.3360	54.1470
 1.3370	53.9670
 1.3380	53.7960
 1.3390	53.6220
 1.3400	53.4490
 1.3410	53.2800
 1.3420	53.1080
 1.3430	52.9370
 1.3440	52.7690
 1.3450	52.6020
 1.3460	52.4360
 1.3470	52.2720
 1.3480	52.1100
 1.3490	51.9480
 1.3500	51.7890
 1.3510	51.6270
 1.3520	51.4640
 1.3530	51.3090
 1.3540	51.1560
 1.3550	51.0010
 1.3560	50.8450
 1.3570	50.6850
 1.3580	50.5240
 1.3590	50.3570
 1.3600	50.1850
 1.3610	50.0120
 1.3620	49.8320
 1.3630	49.6450
 1.3640	49.4540
 1.3650	49.2530
 1.3660	49.0450
 1.3670	48.8310
 1.3680	48.6060
 1.3690	48.3680
 1.3700	48.1160
 1.3710	47.8480
 1.3720	47.5670
 1.3730	47.2690
 1.3740	46.9530
 1.3750	46.6190
 1.3760	46.2620
 1.3770	45.8780
 1.3780	45.4670
 1.3790	45.0290
 1.3800	44.5640
 1.3810	44.0690
 1.3820	43.5530
 1.3830	43.0140
 1.3840	42.4500
 1.3850	41.8600
 1.3860	41.2540
 1.3870	40.6200
 1.3880	39.9820
 1.3890	39.3310
 1.3900	38.6660
 1.3910	37.9960
 1.3920	37.3170
 1.3930	36.6330
 1.3940	35.9510
 1.3950	35.2660
 1.3960	34.5900
 1.3970	33.9200
 1.3980	33.2580
 1.3990	32.6210
 1.4000	31.9960
 1.4010	31.3860
 1.4020	30.8020
 1.4030	30.2310
 1.4040	29.6840
 1.4050	29.1660
 1.4060	28.6690
 1.4070	28.2030
 1.4080	27.7620
 1.4090	27.3440
 1.4100	26.9540
 1.4110	26.5850
 1.4120	26.2420
 1.4130	25.9230
 1.4140	25.6250
 1.4150	25.3540
 1.4160	25.1030
 1.4170	24.8670
 1.4180	24.6510
 1.4190	24.4480
 1.4200	24.2630
 1.4210	24.0990
 1.4220	23.9480
 1.4230	23.8140
 1.4240	23.6910
 1.4250	23.5770
 1.4260	23.4740
 1.4270	23.3800
 1.4280	23.2960
 1.4290	23.2220
 1.4300	23.1590
 1.4310	23.1020
 1.4320	23.0540
 1.4330	23.0140
 1.4340	22.9800
 1.4350	22.9530
 1.4360	22.9340
 1.4370	22.9200
 1.4380	22.9100
 1.4390	22.9040
 1.4400	22.9020
 1.4410	22.9040
 1.4420	22.9120
 1.4430	22.9240
 1.4440	22.9390
 1.4450	22.9550
 1.4460	22.9750
 1.4470	22.9980
 1.4480	23.0230
 1.4490	23.0490
 1.4500	23.0760
 1.4510	23.1020
 1.4520	23.1290
 1.4530	23.1590
 1.4540	23.1890
 1.4550	23.2230
 1.4560	23.2580
 1.4570	23.2960
 1.4580	23.3400
 1.4590	23.3880
 1.4600	23.4390
 1.4610	23.4970
 1.4620	23.5570
 1.4630	23.6210
 1.4640	23.6910
 1.4650	23.7650
 1.4660	23.8450
 1.4670	23.9280
 1.4680	24.0180
 1.4690	24.1130
 1.4700	24.2120
 1.4710	24.3210
 1.4720	24.4320
 1.4730	24.5470
 1.4740	24.6680
 1.4750	24.7910
 1.4760	24.9200
 1.4770	25.0520
 1.4780	25.1870
 1.4790	25.3250
 1.4800	25.4630
 1.4810	25.6040
 1.4820	25.7460
 1.4830	25.8860
 1.4840	26.0330
 1.4850	26.1800
 1.4860	26.3250
 1.4870	26.4760
 1.4880	26.6230
 1.4890	26.7680
 1.4900	26.9150
 1.4910	27.0630
 1.4920	27.2110
 1.4930	27.3630
 1.4940	27.5140
 1.4950	27.6630
 1.4960	27.8150
 1.4970	27.9660
 1.4980	28.1170
 1.4990	28.2710
 1.5000	28.4220
 1.5010	28.5730
 1.5020	28.7210
 1.5030	28.8690
 1.5040	29.0160
 1.5050	29.1580
 1.5060	29.3040
 1.5070	29.4530
 1.5080	29.6000
 1.5090	29.7460
 1.5100	29.8930
 1.5110	30.0360
 1.5120	30.1780
 1.5130	30.3180
 1.5140	30.4630
 1.5150	30.6070
 1.5160	30.7490
 1.5170	30.8880
 1.5180	31.0280
 1.5190	31.1650
 1.5200	31.2990
 1.5210	31.4380
 1.5220	31.5720
 1.5230	31.7050
 1.5240	31.8400
 1.5250	31.9740
 1.5260	32.1060
 1.5270	32.2350
 1.5280	32.3630
 1.5290	32.4850
 1.5300	32.6090
 1.5310	32.7330
 1.5320	32.8560
 1.5330	32.9820
 1.5340	33.1040
 1.5350	33.2240
 1.5360	33.3480
 1.5370	33.4650
 1.5380	33.5800
 1.5390	33.6960
 1.5400	33.8080
 1.5410	33.9190
 1.5420	34.0320
 1.5430	34.1390
 1.5440	34.2480
 1.5450	34.3530
 1.5460	34.4530
 1.5470	34.5580
 1.5480	34.6630
 1.5490	34.7690
 1.5500	34.8770
 1.5510	34.9820
 1.5520	35.0850
 1.5530	35.1830
 1.5540	35.2820
 1.5550	35.3820
 1.5560	35.4820
 1.5570	35.5830
 1.5580	35.6830
 1.5590	35.7760
 1.5600	35.8620
 1.5610	35.9450
 1.5620	36.0300
 1.5630	36.1140
 1.5640	36.2030
 1.5650	36.2920
 1.5660	36.3770
 1.5670	36.4630
 1.5680	36.5480
 1.5690	36.6330
 1.5700	36.7220
 1.5710	36.8140
 1.5720	36.9060
 1.5730	36.9930
 1.5740	37.0750
 1.5750	37.1580
 1.5760	37.2360
 1.5770	37.3120
 1.5780	37.3940
 1.5790	37.4680
 1.5800	37.5440
 1.5810	37.6260
 1.5820	37.7020
 1.5830	37.7820
 1.5840	37.8640
 1.5850	37.9420
 1.5860	38.0240
 1.5870	38.1000
 1.5880	38.1750
 1.5890	38.2500
 1.5900	38.3190
 1.5910	38.3920
 1.5920	38.4710
 1.5930	38.5460
 1.5940	38.6240
 1.5950	38.7040
 1.5960	38.7800
 1.5970	38.8570
 1.5980	38.9350
 1.5990	39.0090
 1.6000	39.0830
 1.6010	39.1560
 1.6020	39.2270
 1.6030	39.3010
 1.6040	39.3750
 1.6050	39.4470
 1.6060	39.5120
 1.6070	39.5730
 1.6080	39.6330
 1.6090	39.6920
 1.6100	39.7550
 1.6110	39.8220
 1.6120	39.8810
 1.6130	39.9370
 1.6140	39.9940
 1.6150	40.0480
 1.6160	40.1040
 1.6170	40.1650
 1.6180	40.2230
 1.6190	40.2810
 1.6200	40.3350
 1.6210	40.3870
 1.6220	40.4360
 1.6230	40.4860
 1.6240	40.5410
 1.6250	40.5890
 1.6260	40.6350
 1.6270	40.6790
 1.6280	40.7130
 1.6290	40.7560
 1.6300	40.8050
 1.6310	40.8490
 1.6320	40.8970
 1.6330	40.9390
 1.6340	40.9750
 1.6350	41.0130
 1.6360	41.0480
 1.6370	41.0840
 1.6380	41.1210
 1.6390	41.1540
 1.6400	41.1840
 1.6410	41.2090
 1.6420	41.2300
 1.6430	41.2520
 1.6440	41.2740
 1.6450	41.2920
 1.6460	41.3020
 1.6470	41.3090
 1.6480	41.3150
 1.6490	41.3210
 1.6500	41.3270
 1.6510	41.3240
 1.6520	41.3170
 1.6530	41.3060
 1.6540	41.2890
 1.6550	41.2740
 1.6560	41.2520
 1.6570	41.2240
 1.6580	41.1980
 1.6590	41.1680
 1.6600	41.1370
 1.6610	41.1110
 1.6620	41.0780
 1.6630	41.0440
 1.6640	41.0170
 1.6650	40.9850
 1.6660	40.9580
 1.6670	40.9350
 1.6680	40.9030
 1.6690	40.8780
 1.6700	40.8520
 1.6710	40.8150
 1.6720	40.7850
 1.6730	40.7510
 1.6740	40.7160
 1.6750	40.6880
 1.6760	40.6550
 1.6770	40.6150
 1.6780	40.5710
 1.6790	40.5260
 1.6800	40.4860
 1.6810	40.4460
 1.6820	40.4050
 1.6830	40.3560
 1.6840	40.2970
 1.6850	40.2360
 1.6860	40.1750
 1.6870	40.1090
 1.6880	40.0410
 1.6890	39.9660
 1.6900	39.8930
 1.6910	39.8220
 1.6920	39.7460
 1.6930	39.6700
 1.6940	39.5920
 1.6950	39.5070
 1.6960	39.4290
 1.6970	39.3560
 1.6980	39.2790
 1.6990	39.2010
 1.7000	39.1260
 1.7010	39.0530
 1.7020	38.9740
 1.7030	38.8980
 1.7040	38.8150
 1.7050	38.7200
 1.7060	38.6340
 1.7070	38.5510
 1.7080	38.4670
 1.7090	38.3860
 1.7100	38.3050
 1.7110	38.2210
 1.7120	38.1410
 1.7130	38.0690
 1.7140	38.0020
 1.7150	37.9370
 1.7160	37.8770
 1.7170	37.8200
 1.7180	37.7630
 1.7190	37.7120
 1.7200	37.6650
 1.7210	37.6140
 1.7220	37.5710
 1.7230	37.5310
 1.7240	37.4860
 1.7250	37.4440
 1.7260	37.4050
 1.7270	37.3670
 1.7280	37.3360
 1.7290	37.3080
 1.7300	37.2820
 1.7310	37.2550
 1.7320	37.2320
 1.7330	37.2070
 1.7340	37.1820
 1.7350	37.1540
 1.7360	37.1270
 1.7370	37.0920
 1.7380	37.0500
 1.7390	37.0050
 1.7400	36.9510
 1.7410	36.8980
 1.7420	36.8460
 1.7430	36.7880
 1.7440	36.7260
 1.7450	36.6670
 1.7460	36.6050
 1.7470	36.5470
 1.7480	36.4950
 1.7490	36.4410
 1.7500	36.3870
 1.7510	36.3310
 1.7520	36.2740
 1.7530	36.2170
 1.7540	36.1580
 1.7550	36.1040
 1.7560	36.0500
 1.7570	35.9980
 1.7580	35.9480
 1.7590	35.9000
 1.7600	35.8550
 1.7610	35.8170
 1.7620	35.7780
 1.7630	35.7370
 1.7640	35.7030
 1.7650	35.6710
 1.7660	35.6420
 1.7670	35.6250
 1.7680	35.6010
 1.7690	35.5770
 1.7700	35.5500
 1.7710	35.5180
 1.7720	35.4880
 1.7730	35.4540
 1.7740	35.4290
 1.7750	35.4110
 1.7760	35.3860
 1.7770	35.3610
 1.7780	35.3380
 1.7790	35.3080
 1.7800	35.2870
 1.7810	35.2750
 1.7820	35.2580
 1.7830	35.2410
 1.7840	35.2270
 1.7850	35.2140
 1.7860	35.2080
 1.7870	35.2070
 1.7880	35.2120
 1.7890	35.2180
 1.7900	35.2350
 1.7910	35.2460
 1.7920	35.2550
 1.7930	35.2650
 1.7940	35.2690
 1.7950	35.2760
 1.7960	35.2910
 1.7970	35.3000
 1.7980	35.3030
 1.7990	35.3100
 1.8000	35.3130
 1.8010	35.3240
 1.8020	35.3420
 1.8030	35.3580
 1.8040	35.3790
 1.8050	35.3940
 1.8060	35.4060
 1.8070	35.4190
 1.8080	35.4300
 1.8090	35.4430
 1.8100	35.4580
 1.8110	35.4680
 1.8120	35.4790
 1.8130	35.4870
 1.8140	35.4890
 1.8150	35.4980
 1.8160	35.5040
 1.8170	35.5090
 1.8180	35.5230
 1.8190	35.5260
 1.8200	35.5320
 1.8210	35.5400
 1.8220	35.5420
 1.8230	35.5440
 1.8240	35.5430
 1.8250	35.5350
 1.8260	35.5250
 1.8270	35.4210
 1.8280	35.3160
 1.8290	35.2120
 1.8300	35.1080
 1.8310	35.0040
 1.8320	34.8990
 1.8330	34.7950
 1.8340	34.6910
 1.8350	34.6910
 1.8360	34.6520
 1.8370	34.6100
 1.8380	34.5710
 1.8390	34.5260
 1.8400	34.4820
 1.8410	34.4230
 1.8420	34.3660
 1.8430	34.2810
 1.8440	34.1780
 1.8450	34.0860
 1.8460	33.9870
 1.8470	33.8810
 1.8480	33.7690
 1.8490	33.6440
 1.8500	33.5030
 1.8510	33.3450
 1.8520	33.1710
 1.8530	32.9920
 1.8540	32.8020
 1.8550	32.5950
 1.8560	32.3700
 1.8570	32.1280
 1.8580	31.8680
 1.8590	31.5900
 1.8600	31.2910
 1.8610	30.9850
 1.8620	30.6640
 1.8630	30.3130
 1.8640	29.9440
 1.8650	29.5530
 1.8660	29.1390
 1.8670	28.7120
 1.8680	28.2630
 1.8690	27.7930
 1.8700	27.3040
 1.8710	26.7940
 1.8720	26.2630
 1.8730	25.7180
 1.8740	25.1580
 1.8750	24.5790
 1.8760	23.9880
 1.8770	23.4090
 1.8780	22.8280
 1.8790	22.2360
 1.8800	21.6540
 1.8810	21.0780
 1.8820	20.4920
 1.8830	19.9060
 1.8840	19.3380
 1.8850	18.7730
 1.8860	18.2130
 1.8870	17.6760
 1.8880	17.1610
 1.8890	16.6650
 1.8900	16.1870
 1.8910	15.7280
 1.8920	15.2860
 1.8930	14.8620
 1.8940	14.4640
 1.8950	14.1040
 1.8960	13.7700
 1.8970	13.4570
 1.8980	13.1730
 1.8990	12.9100
 1.9000	12.6690
 1.9010	12.4530
 1.9020	12.2550
 1.9030	12.0810
 1.9040	11.9180
 1.9050	11.7690
 1.9060	11.6400
 1.9070	11.5220
 1.9080	11.4090
 1.9090	11.3130
 1.9100	11.2320
 1.9110	11.1580
 1.9120	11.0990
 1.9130	11.0400
 1.9140	10.9870
 1.9150	10.9330
 1.9160	10.8900
 1.9170	10.8610
 1.9180	10.8510
 1.9190	10.8430
 1.9200	10.8310
 1.9210	10.8210
 1.9220	10.8100
 1.9230	10.7910
 1.9240	10.7830
 1.9250	10.7830
 1.9260	10.7820
 1.9270	10.7870
 1.9280	10.7940
 1.9290	10.7960
 1.9300	10.8050
 1.9310	10.8190
 1.9320	10.8330
 1.9330	10.8500
 1.9340	10.8720
 1.9350	10.8930
 1.9360	10.9120
 1.9370	10.9360
 1.9380	10.9680
 1.9390	10.9960
 1.9400	11.0200
 1.9410	11.0550
 1.9420	11.0880
 1.9430	11.1250
 1.9440	11.1650
 1.9450	11.2100
 1.9460	11.2520
 1.9470	11.2940
 1.9480	11.3370
 1.9490	11.3790
 1.9500	11.4230
 1.9510	11.4690
 1.9520	11.5120
 1.9530	11.5570
 1.9540	11.6070
 1.9550	11.6580
 1.9560	11.7120
 1.9570	11.7640
 1.9580	11.8150
 1.9590	11.8690
 1.9600	11.9250
 1.9610	11.9820
 1.9620	12.0380
 1.9630	12.1030
 1.9640	12.1670
 1.9650	12.2290
 1.9660	12.3000
 1.9670	12.3690
 1.9680	12.4360
 1.9690	12.5050
 1.9700	12.5710
 1.9710	12.6310
 1.9720	12.6960
 1.9730	12.7640
 1.9740	12.8280
 1.9750	12.8980
 1.9760	12.9780
 1.9770	13.0550
 1.9780	13.1310
 1.9790	13.2030
 1.9800	13.2690
 1.9810	13.3430
 1.9820	13.4200
 1.9830	13.4960
 1.9840	13.5750
 1.9850	13.6560
 1.9860	13.7450
 1.9870	13.8200
 1.9880	13.9000
 1.9890	13.9820
 1.9900	14.0540
 1.9910	14.1350
 1.9920	14.2160
 1.9930	14.3020
 1.9940	14.3860
 1.9950	14.4670
 1.9960	14.5530
 1.9970	14.6420
 1.9980	14.7270
 1.9990	14.8130
 2.0000	14.8950
 2.0010	14.9690
 2.0020	15.0450
 2.0030	15.1170
 2.0040	15.1920
 2.0050	15.2680
 2.0060	15.3430
 2.0070	15.4200
 2.0080	15.5000
 2.0090	15.5770
 2.0100	15.6590
 2.0110	15.7370
 2.0120	15.8080
 2.0130	15.8870
 2.0140	15.9700
 2.0150	16.0390
 2.0160	16.1140
 2.0170	16.1860
 2.0180	16.2590
 2.0190	16.3330
 2.0200	16.4050
 2.0210	16.4800
 2.0220	16.5480
 2.0230	16.6040
 2.0240	16.6690
 2.0250	16.7430
 2.0260	16.8040
 2.0270	16.8590
 2.0280	16.9170
 2.0290	16.9650
 2.0300	17.0090
 2.0310	17.0630
 2.0320	17.1260
 2.0330	17.1810
 2.0340	17.2360
 2.0350	17.2900
 2.0360	17.3420
 2.0370	17.3910
 2.0380	17.4370
 2.0390	17.4840
 2.0400	17.5260
 2.0410	17.5700
 2.0420	17.6160
 2.0430	17.6660
 2.0440	17.7050
 2.0450	17.7380
 2.0460	17.7730
 2.0470	17.8000
 2.0480	17.8360
 2.0490	17.8810
 2.0500	17.9190
 2.0510	17.9600
 2.0520	17.9930
 2.0530	18.0140
 2.0540	18.0430
 2.0550	18.0720
 2.0560	18.0980
 2.0570	18.1350
 2.0580	18.1790
 2.0590	18.2200
 2.0600	18.2630
 2.0610	18.3050
 2.0620	18.3470
 2.0630	18.3880
 2.0640	18.4320
 2.0650	18.4740
 2.0660	18.5150
 2.0670	18.5560
 2.0680	18.5970
 2.0690	18.6380
 2.0700	18.6790
 2.0710	18.7210
 2.0720	18.7630
 2.0730	18.8030
 2.0740	18.8440
 2.0750	18.8870
 2.0760	18.9210
 2.0770	18.9510
 2.0780	18.9840
 2.0790	19.0090
 2.0800	19.0440
 2.0810	19.0850
 2.0820	19.1260
 2.0830	19.1730
 2.0840	19.2160
 2.0850	19.2570
 2.0860	19.2990
 2.0870	19.3390
 2.0880	19.3790
 2.0890	19.4230
 2.0900	19.4730
 2.0910	19.5160
 2.0920	19.5590
 2.0930	19.5990
 2.0940	19.6340
 2.0950	19.6740
 2.0960	19.7180
 2.0970	19.7570
 2.0980	19.7970
 2.0990	19.8320
 2.1000	19.8570
 2.1010	19.8870
 2.1020	19.9200
 2.1030	19.9510
 2.1040	19.9790
 2.1050	20.0120
 2.1060	20.0480
 2.1070	20.0840
 2.1080	20.1190
 2.1090	20.1570
 2.1100	20.1970
 2.1110	20.2350
 2.1120	20.2770
 2.1130	20.3300
 2.1140	20.3750
 2.1150	20.4160
 2.1160	20.4570
 2.1170	20.4990
 2.1180	20.5350
 2.1190	20.5710
 2.1200	20.6010
 2.1210	20.6180
 2.1220	20.6400
 2.1230	20.6730
 2.1240	20.7070
 2.1250	20.7450
 2.1260	20.7990
 2.1270	20.8360
 2.1280	20.8670
 2.1290	20.8960
 2.1300	20.9170
 2.1310	20.9440
 2.1320	20.9670
 2.1330	20.9990
 2.1340	21.0460
 2.1350	21.0780
 2.1360	21.1120
 2.1370	21.1390
 2.1380	21.1430
 2.1390	21.1640
 2.1400	21.1960
 2.1410	21.2250
 2.1420	21.2550
 2.1430	21.2950
 2.1440	21.3260
 2.1450	21.3450
 2.1460	21.3770
 2.1470	21.4180
 2.1480	21.4460
 2.1490	21.4670
 2.1500	21.4990
 2.1510	21.5270
 2.1520	21.5610
 2.1530	21.6140
 2.1540	21.6520
 2.1550	21.6810
 2.1560	21.7090
 2.1570	21.7290
 2.1580	21.7510
 2.1590	21.7700
 2.1600	21.7950
 2.1610	21.8180
 2.1620	21.8410
 2.1630	21.8750
 2.1640	21.9170
 2.1650	21.9560
 2.1660	22.0050
 2.1670	22.0420
 2.1680	22.0710
 2.1690	22.1050
 2.1700	22.1390
 2.1710	22.1700
 2.1720	22.1960
 2.1730	22.2310
 2.1740	22.2720
 2.1750	22.3050
 2.1760	22.3390
 2.1770	22.3720
 2.1780	22.3920
 2.1790	22.4200
 2.1800	22.4600
 2.1810	22.4920
 2.1820	22.5180
 2.1830	22.5530
 2.1840	22.5840
 2.1850	22.6080
 2.1860	22.6470
 2.1870	22.6930
 2.1880	22.7400
 2.1890	22.8020
 2.1900	22.8440
 2.1910	22.8820
 2.1920	22.9150
 2.1930	22.9310
 2.1940	22.9620
 2.1950	23.0040
 2.1960	23.0330
 2.1970	23.0630
 2.1980	23.0870
 2.1990	23.0850
 2.2000	23.1110
 2.2010	23.1580
 2.2020	23.1940
 2.2030	23.2490
 2.2040	23.2860
 2.2050	23.2990
 2.2060	23.3200
 2.2070	23.3400
 2.2080	23.3550
 2.2090	23.3710
 2.2100	23.3850
 2.2110	23.4050
 2.2120	23.4240
 2.2130	23.4470
 2.2140	23.4840
 2.2150	23.5010
 2.2160	23.5120
 2.2170	23.5150
 2.2180	23.4970
 2.2190	23.4980
 2.2200	23.5070
 2.2210	23.5050
 2.2220	23.5040
 2.2230	23.5020
 2.2240	23.4910
 2.2250	23.4800
 2.2260	23.4750
 2.2270	23.4610
 2.2280	23.4270
 2.2290	23.4060
 2.2300	23.3960
 2.2310	23.3810
 2.2320	23.3580
 2.2330	23.3380
 2.2340	23.3040
 2.2350	23.2510
 2.2360	23.2090
 2.2370	23.1690
 2.2380	23.1190
 2.2390	23.0650
 2.2400	23.0080
 2.2410	22.9460
 2.2420	22.8770
 2.2430	22.8030
 2.2440	22.7270
 2.2450	22.6410
 2.2460	22.5600
 2.2470	22.4800
 2.2480	22.3990
 2.2490	22.3230
 2.2500	22.2330
 2.2510	22.1340
 2.2520	22.0390
 2.2530	21.9280
 2.2540	21.8350
 2.2550	21.7630
 2.2560	21.6750
 2.2570	21.5930
 2.2580	21.5000
 2.2590	21.3900
 2.2600	21.2850
 2.2610	21.1730
 2.2620	21.0730
 2.2630	20.9730
 2.2640	20.8650
 2.2650	20.7660
 2.2660	20.6710
 2.2670	20.5790
 2.2680	20.4900
 2.2690	20.4080
 2.2700	20.3270
 2.2710	20.2500
 2.2720	20.1860
 2.2730	20.1080
 2.2740	20.0240
 2.2750	19.9500
 2.2760	19.8720
 2.2770	19.8010
 2.2780	19.7420
 2.2790	19.6800
 2.2800	19.6160
 2.2810	19.5620
 2.2820	19.5180
 2.2830	19.4670
 2.2840	19.4190
 2.2850	19.3660
 2.2860	19.3110
 2.2870	19.2490
 2.2880	19.1710
 2.2890	19.1110
 2.2900	19.0620
 2.2910	19.0000
 2.2920	18.9420
 2.2930	18.8850
 2.2940	18.8110
 2.2950	18.7480
 2.2960	18.6990
 2.2970	18.6510
 2.2980	18.6120
 2.2990	18.5600
 2.3000	18.5100
 2.3010	18.4620
 2.3020	18.4100
 2.3030	18.3810
 2.3040	18.3550
 2.3050	18.3020
 2.3060	18.2630
 2.3070	18.2210
 2.3080	18.1810
 2.3090	18.1790
 2.3100	18.1670
 2.3110	18.1510
 2.3120	18.1370
 2.3130	18.1270
 2.3140	18.1120
 2.3150	18.0880
 2.3160	18.0880
 2.3170	18.1110
 2.3180	18.1020
 2.3190	18.0990
 2.3200	18.0780
 2.3210	18.0180
 2.3220	17.9880
 2.3230	17.9690
 2.3240	17.9470
 2.3250	17.9310
 2.3260	17.9100
 2.3270	17.8950
 2.3280	17.8620
 2.3290	17.8130
 2.3300	17.7760
 2.3310	17.7330
 2.3320	17.6960
 2.3330	17.6740
 2.3340	17.6420
 2.3350	17.5970
 2.3360	17.5660
 2.3370	17.5430
 2.3380	17.5120
 2.3390	17.4860
 2.3400	17.4520
 2.3410	17.4060
 2.3420	17.3650
 2.3430	17.3280
 2.3440	17.2840
 2.3450	17.2360
 2.3460	17.1900
 2.3470	17.1340
 2.3480	17.0910
 2.3490	17.0570
 2.3500	17.0260
 2.3510	17.0120
 2.3520	16.9890
 2.3530	16.9630
 2.3540	16.9420
 2.3550	16.9030
 2.3560	16.8900
 2.3570	16.8930
 2.3580	16.8800
 2.3590	16.8740
 2.3600	16.8550
 2.3610	16.8020
 2.3620	16.7670
 2.3630	16.7350
 2.3640	16.6870
 2.3650	16.6410
 2.3660	16.5940
 2.3670	16.5560
 2.3680	16.5250
 2.3690	16.5120
 2.3700	16.5100
 2.3710	16.4730
 2.3720	16.4310
 2.3730	16.4070
 2.3740	16.3570
 2.3750	16.3240
 2.3760	16.3170
 2.3770	16.2780
 2.3780	16.2480
 2.3790	16.2290
 2.3800	16.1850
 2.3810	16.1560
 2.3820	16.1390
 2.3830	16.1340
 2.3840	16.1440
 2.3850	16.1390
 2.3860	16.1000
 2.3870	16.0310
 2.3880	15.9670
 2.3890	15.9200
 2.3900	15.8950
 2.3910	15.8740
 2.3920	15.8220
 2.3930	15.7650
 2.3940	15.7090
 2.3950	15.6610
 2.3960	15.6240
 2.3970	15.5590
 2.3980	15.4940
 2.3990	15.4440
 2.4000	15.3850
 2.4010	15.3480
 2.4020	15.3280
 2.4030	15.3000
 2.4040	15.2770
 2.4050	15.2510
 2.4060	15.2250
 2.4070	15.1810
 2.4080	15.1030
 2.4090	15.0480
 2.4100	15.0080
 2.4110	14.9580
 2.4120	14.9250
 2.4130	14.8770
 2.4140	14.8010
 2.4150	14.7340
 2.4160	14.6850
 2.4170	14.6620
 2.4180	14.6400
 2.4190	14.6060
 2.4200	14.5780
 2.4210	14.5370
 2.4220	14.4750
 2.4230	14.4430
 2.4240	14.4140
 2.4250	14.3540
 2.4260	14.2910
 2.4270	14.2440
 2.4280	14.2080
 2.4290	14.1740
 2.4300	14.1810
 2.4310	14.1680
 2.4320	14.1290
 2.4330	14.0810
 2.4340	14.0420
 2.4350	14.0400
 2.4360	14.0120
 2.4370	14.0000
 2.4380	13.9690
 2.4390	13.8700
 2.4400	13.7710
 2.4410	13.6900
 2.4420	13.6270
 2.4430	13.5860
 2.4440	13.5520
 2.4450	13.5070
 2.4460	13.4290
 2.4470	13.3230
 2.4480	13.2650
 2.4490	13.2470
 2.4500	13.2120
 2.4510	13.2030
 2.4520	13.1560
 2.4530	13.0450
 2.4540	13.0200
 2.4550	13.0530
 2.4560	13.0610
 2.4570	13.0040
 2.4580	12.9060
 2.4590	12.8050
 2.4600	12.7130
 2.4610	12.7300
 2.4620	12.8100
 2.4630	12.8430
 2.4640	12.7820
 2.4650	12.7370
 2.4660	12.6740
 2.4670	12.5570
 2.4680	12.5580
 2.4690	12.5240
 2.4700	12.4780
 2.4710	12.4420
 2.4720	12.3830
 2.4730	12.2920
 2.4740	12.2440
 2.4750	12.2320
 2.4760	12.2290
 2.4770	12.2630
 2.4780	12.2480
 2.4790	12.2030
 2.4800	12.1830
 2.4810	12.1530
 2.4820	12.1780
 2.4830	12.1630
 2.4840	12.1760
 2.4850	12.1740
 2.4860	12.1660
 2.4870	12.1680
 2.4880	12.0740
 2.4890	11.9980
 2.4900	11.9910
 2.4910	11.9120
 2.4920	11.8620
 2.4930	11.9390
 2.4940	11.9780
 2.4950	12.0060
 2.4960	12.1060
 2.4970	12.0650
 2.4980	12.0290
 2.4990	12.1410
 2.5000	12.0800
