Name: Ginkgo biloba
Type: vegetation
Class: Tree
Genus: Ginkgo
Species: biloba
Sample No.: JPL208
Owner: JPL
Wavelength Range: VSWIR
Origin: 34.12598; -118.11143; WGS84
Collection Date: 10/3/2016
Description: Samples were collected at the Huntington Garden in San Marino California as part of a JPL Subcontract studying HyTES imagery. Samples were taken to JPL and processed within 48 hours of collection. The same leaves were processed in the Nicolet and then measured using the ASD.
Measurement: Bidirectional reflectance
First Column: X
Second Column: Y
X Units: Wavelength (micrometer)
Y Units: Reflectance (percentage)
First X Value: 0.35
Last X Value: 2.5
Number of X Values: 2151
Additional Information: vegetation.tree.ginkgo.biloba.vswir.jpl208.jpl.asd.ancillary.txt

 0.3500	 4.5580
 0.3510	 4.5220
 0.3520	 4.2980
 0.3530	 4.1680
 0.3540	 4.3100
 0.3550	 4.3620
 0.3560	 4.2140
 0.3570	 4.0790
 0.3580	 4.2520
 0.3590	 4.2260
 0.3600	 4.1350
 0.3610	 4.1040
 0.3620	 4.1540
 0.3630	 4.1220
 0.3640	 4.0800
 0.3650	 4.1120
 0.3660	 4.1080
 0.3670	 4.1190
 0.3680	 4.1220
 0.3690	 4.0600
 0.3700	 4.0910
 0.3710	 4.1280
 0.3720	 4.1100
 0.3730	 4.0850
 0.3740	 4.0880
 0.3750	 4.1010
 0.3760	 4.1010
 0.3770	 4.1280
 0.3780	 4.1660
 0.3790	 4.1920
 0.3800	 4.1880
 0.3810	 4.2530
 0.3820	 4.2710
 0.3830	 4.2010
 0.3840	 4.2370
 0.3850	 4.2870
 0.3860	 4.3470
 0.3870	 4.4290
 0.3880	 4.4630
 0.3890	 4.4600
 0.3900	 4.4590
 0.3910	 4.5170
 0.3920	 4.5540
 0.3930	 4.6040
 0.3940	 4.6900
 0.3950	 4.7550
 0.3960	 4.8150
 0.3970	 4.8740
 0.3980	 4.9340
 0.3990	 4.9900
 0.4000	 5.0550
 0.4010	 5.1360
 0.4020	 5.2240
 0.4030	 5.3180
 0.4040	 5.4030
 0.4050	 5.4690
 0.4060	 5.5300
 0.4070	 5.5940
 0.4080	 5.6760
 0.4090	 5.7850
 0.4100	 5.8740
 0.4110	 5.9520
 0.4120	 6.0300
 0.4130	 6.1150
 0.4140	 6.1970
 0.4150	 6.2740
 0.4160	 6.3490
 0.4170	 6.4170
 0.4180	 6.4880
 0.4190	 6.5650
 0.4200	 6.6440
 0.4210	 6.7100
 0.4220	 6.7650
 0.4230	 6.8170
 0.4240	 6.8750
 0.4250	 6.9320
 0.4260	 6.9800
 0.4270	 7.0200
 0.4280	 7.0630
 0.4290	 7.1030
 0.4300	 7.1400
 0.4310	 7.1760
 0.4320	 7.2100
 0.4330	 7.2390
 0.4340	 7.2630
 0.4350	 7.2900
 0.4360	 7.3200
 0.4370	 7.3500
 0.4380	 7.3770
 0.4390	 7.4050
 0.4400	 7.4380
 0.4410	 7.4740
 0.4420	 7.5000
 0.4430	 7.5330
 0.4440	 7.5640
 0.4450	 7.5790
 0.4460	 7.5950
 0.4470	 7.6230
 0.4480	 7.6580
 0.4490	 7.6800
 0.4500	 7.6970
 0.4510	 7.7210
 0.4520	 7.7530
 0.4530	 7.7720
 0.4540	 7.7900
 0.4550	 7.8100
 0.4560	 7.8290
 0.4570	 7.8510
 0.4580	 7.8730
 0.4590	 7.8920
 0.4600	 7.9090
 0.4610	 7.9360
 0.4620	 7.9660
 0.4630	 7.9900
 0.4640	 8.0110
 0.4650	 8.0320
 0.4660	 8.0530
 0.4670	 8.0700
 0.4680	 8.0860
 0.4690	 8.1010
 0.4700	 8.1160
 0.4710	 8.1330
 0.4720	 8.1510
 0.4730	 8.1640
 0.4740	 8.1690
 0.4750	 8.1730
 0.4760	 8.1810
 0.4770	 8.1940
 0.4780	 8.2030
 0.4790	 8.2170
 0.4800	 8.2280
 0.4810	 8.2320
 0.4820	 8.2470
 0.4830	 8.2680
 0.4840	 8.2880
 0.4850	 8.3090
 0.4860	 8.3350
 0.4870	 8.3730
 0.4880	 8.4200
 0.4890	 8.4640
 0.4900	 8.5200
 0.4910	 8.5860
 0.4920	 8.6520
 0.4930	 8.7270
 0.4940	 8.8120
 0.4950	 8.9080
 0.4960	 9.0130
 0.4970	 9.1290
 0.4980	 9.2530
 0.4990	 9.3850
 0.5000	 9.5270
 0.5010	 9.6810
 0.5020	 9.8480
 0.5030	10.0250
 0.5040	10.2210
 0.5050	10.4290
 0.5060	10.6440
 0.5070	10.8760
 0.5080	11.1240
 0.5090	11.3890
 0.5100	11.6700
 0.5110	11.9610
 0.5120	12.2670
 0.5130	12.5870
 0.5140	12.9180
 0.5150	13.2640
 0.5160	13.6200
 0.5170	13.9840
 0.5180	14.3570
 0.5190	14.7370
 0.5200	15.1160
 0.5210	15.4920
 0.5220	15.8690
 0.5230	16.2440
 0.5240	16.6110
 0.5250	16.9660
 0.5260	17.3100
 0.5270	17.6420
 0.5280	17.9620
 0.5290	18.2630
 0.5300	18.5490
 0.5310	18.8210
 0.5320	19.0720
 0.5330	19.3110
 0.5340	19.5360
 0.5350	19.7450
 0.5360	19.9390
 0.5370	20.1200
 0.5380	20.2910
 0.5390	20.4600
 0.5400	20.6190
 0.5410	20.7710
 0.5420	20.9140
 0.5430	21.0500
 0.5440	21.1830
 0.5450	21.3110
 0.5460	21.4320
 0.5470	21.5470
 0.5480	21.6570
 0.5490	21.7620
 0.5500	21.8610
 0.5510	21.9500
 0.5520	22.0290
 0.5530	22.0990
 0.5540	22.1510
 0.5550	22.1900
 0.5560	22.2180
 0.5570	22.2340
 0.5580	22.2370
 0.5590	22.2280
 0.5600	22.2060
 0.5610	22.1690
 0.5620	22.1210
 0.5630	22.0650
 0.5640	22.0010
 0.5650	21.9300
 0.5660	21.8550
 0.5670	21.7740
 0.5680	21.6840
 0.5690	21.5860
 0.5700	21.4860
 0.5710	21.3870
 0.5720	21.2910
 0.5730	21.1950
 0.5740	21.1030
 0.5750	21.0170
 0.5760	20.9280
 0.5770	20.8360
 0.5780	20.7480
 0.5790	20.6700
 0.5800	20.5980
 0.5810	20.5340
 0.5820	20.4800
 0.5830	20.4370
 0.5840	20.3920
 0.5850	20.3460
 0.5860	20.3030
 0.5870	20.2680
 0.5880	20.2320
 0.5890	20.1890
 0.5900	20.1520
 0.5910	20.1190
 0.5920	20.0910
 0.5930	20.0710
 0.5940	20.0540
 0.5950	20.0410
 0.5960	20.0310
 0.5970	20.0190
 0.5980	20.0070
 0.5990	19.9940
 0.6000	19.9760
 0.6010	19.9520
 0.6020	19.9240
 0.6030	19.8920
 0.6040	19.8510
 0.6050	19.8070
 0.6060	19.7570
 0.6070	19.7020
 0.6080	19.6400
 0.6090	19.5780
 0.6100	19.5170
 0.6110	19.4530
 0.6120	19.3880
 0.6130	19.3170
 0.6140	19.2400
 0.6150	19.1670
 0.6160	19.0970
 0.6170	19.0330
 0.6180	18.9760
 0.6190	18.9240
 0.6200	18.8770
 0.6210	18.8390
 0.6220	18.8120
 0.6230	18.7950
 0.6240	18.7870
 0.6250	18.7880
 0.6260	18.7990
 0.6270	18.8140
 0.6280	18.8320
 0.6290	18.8540
 0.6300	18.8730
 0.6310	18.8840
 0.6320	18.8830
 0.6330	18.8660
 0.6340	18.8250
 0.6350	18.7580
 0.6360	18.6630
 0.6370	18.5380
 0.6380	18.3830
 0.6390	18.1990
 0.6400	17.9910
 0.6410	17.7680
 0.6420	17.5330
 0.6430	17.2860
 0.6440	17.0350
 0.6450	16.7830
 0.6460	16.5370
 0.6470	16.3040
 0.6480	16.0900
 0.6490	15.9060
 0.6500	15.7540
 0.6510	15.6320
 0.6520	15.5420
 0.6530	15.4680
 0.6540	15.4000
 0.6550	15.3370
 0.6560	15.2650
 0.6570	15.1750
 0.6580	15.0630
 0.6590	14.9310
 0.6600	14.7780
 0.6610	14.6080
 0.6620	14.4240
 0.6630	14.2340
 0.6640	14.0490
 0.6650	13.8750
 0.6660	13.7110
 0.6670	13.5630
 0.6680	13.4340
 0.6690	13.3300
 0.6700	13.2520
 0.6710	13.1970
 0.6720	13.1660
 0.6730	13.1570
 0.6740	13.1710
 0.6750	13.2070
 0.6760	13.2660
 0.6770	13.3460
 0.6780	13.4500
 0.6790	13.5830
 0.6800	13.7540
 0.6810	13.9730
 0.6820	14.2520
 0.6830	14.6000
 0.6840	15.0210
 0.6850	15.5290
 0.6860	16.1260
 0.6870	16.8100
 0.6880	17.5890
 0.6890	18.4570
 0.6900	19.4050
 0.6910	20.4200
 0.6920	21.4930
 0.6930	22.6110
 0.6940	23.7610
 0.6950	24.9290
 0.6960	26.1060
 0.6970	27.2810
 0.6980	28.4430
 0.6990	29.5890
 0.7000	30.7100
 0.7010	31.7980
 0.7020	32.8430
 0.7030	33.8450
 0.7040	34.8040
 0.7050	35.7180
 0.7060	36.5900
 0.7070	37.4220
 0.7080	38.2170
 0.7090	38.9810
 0.7100	39.7200
 0.7110	40.4330
 0.7120	41.1210
 0.7130	41.7900
 0.7140	42.4350
 0.7150	43.0590
 0.7160	43.6630
 0.7170	44.2500
 0.7180	44.8180
 0.7190	45.3660
 0.7200	45.8950
 0.7210	46.4070
 0.7220	46.9000
 0.7230	47.3730
 0.7240	47.8230
 0.7250	48.2570
 0.7260	48.6720
 0.7270	49.0670
 0.7280	49.4410
 0.7290	49.7980
 0.7300	50.1370
 0.7310	50.4610
 0.7320	50.7650
 0.7330	51.0540
 0.7340	51.3280
 0.7350	51.5850
 0.7360	51.8250
 0.7370	52.0530
 0.7380	52.2700
 0.7390	52.4740
 0.7400	52.6660
 0.7410	52.8440
 0.7420	53.0090
 0.7430	53.1640
 0.7440	53.3090
 0.7450	53.4440
 0.7460	53.5680
 0.7470	53.6820
 0.7480	53.7880
 0.7490	53.8880
 0.7500	53.9820
 0.7510	54.0710
 0.7520	54.1520
 0.7530	54.2270
 0.7540	54.2990
 0.7550	54.3680
 0.7560	54.4350
 0.7570	54.4950
 0.7580	54.5560
 0.7590	54.6160
 0.7600	54.6730
 0.7610	54.7270
 0.7620	54.7790
 0.7630	54.8270
 0.7640	54.8730
 0.7650	54.9180
 0.7660	54.9650
 0.7670	55.0090
 0.7680	55.0490
 0.7690	55.0910
 0.7700	55.1340
 0.7710	55.1750
 0.7720	55.2110
 0.7730	55.2510
 0.7740	55.2920
 0.7750	55.3290
 0.7760	55.3670
 0.7770	55.4070
 0.7780	55.4470
 0.7790	55.4850
 0.7800	55.5220
 0.7810	55.5590
 0.7820	55.5950
 0.7830	55.6310
 0.7840	55.6690
 0.7850	55.7050
 0.7860	55.7380
 0.7870	55.7720
 0.7880	55.8060
 0.7890	55.8390
 0.7900	55.8700
 0.7910	55.9010
 0.7920	55.9320
 0.7930	55.9620
 0.7940	55.9920
 0.7950	56.0180
 0.7960	56.0430
 0.7970	56.0690
 0.7980	56.0920
 0.7990	56.1130
 0.8000	56.1350
 0.8010	56.1580
 0.8020	56.1780
 0.8030	56.1990
 0.8040	56.2190
 0.8050	56.2350
 0.8060	56.2520
 0.8070	56.2680
 0.8080	56.2840
 0.8090	56.3010
 0.8100	56.3150
 0.8110	56.3250
 0.8120	56.3370
 0.8130	56.3500
 0.8140	56.3580
 0.8150	56.3650
 0.8160	56.3770
 0.8170	56.3870
 0.8180	56.3960
 0.8190	56.4060
 0.8200	56.4180
 0.8210	56.4270
 0.8220	56.4350
 0.8230	56.4420
 0.8240	56.4470
 0.8250	56.4520
 0.8260	56.4600
 0.8270	56.4680
 0.8280	56.4690
 0.8290	56.4710
 0.8300	56.4740
 0.8310	56.4760
 0.8320	56.4810
 0.8330	56.4880
 0.8340	56.4960
 0.8350	56.5040
 0.8360	56.5110
 0.8370	56.5200
 0.8380	56.5300
 0.8390	56.5420
 0.8400	56.5530
 0.8410	56.5640
 0.8420	56.5740
 0.8430	56.5820
 0.8440	56.5950
 0.8450	56.6080
 0.8460	56.6160
 0.8470	56.6300
 0.8480	56.6440
 0.8490	56.6580
 0.8500	56.6720
 0.8510	56.6830
 0.8520	56.6950
 0.8530	56.7080
 0.8540	56.7230
 0.8550	56.7360
 0.8560	56.7520
 0.8570	56.7690
 0.8580	56.7780
 0.8590	56.7910
 0.8600	56.8080
 0.8610	56.8250
 0.8620	56.8400
 0.8630	56.8560
 0.8640	56.8730
 0.8650	56.8900
 0.8660	56.9050
 0.8670	56.9200
 0.8680	56.9370
 0.8690	56.9590
 0.8700	56.9740
 0.8710	56.9880
 0.8720	57.0050
 0.8730	57.0240
 0.8740	57.0390
 0.8750	57.0550
 0.8760	57.0750
 0.8770	57.0930
 0.8780	57.1010
 0.8790	57.1140
 0.8800	57.1370
 0.8810	57.1560
 0.8820	57.1710
 0.8830	57.1830
 0.8840	57.1960
 0.8850	57.2130
 0.8860	57.2280
 0.8870	57.2440
 0.8880	57.2600
 0.8890	57.2770
 0.8900	57.2880
 0.8910	57.2990
 0.8920	57.3160
 0.8930	57.3320
 0.8940	57.3460
 0.8950	57.3570
 0.8960	57.3710
 0.8970	57.3820
 0.8980	57.3960
 0.8990	57.4130
 0.9000	57.4280
 0.9010	57.4380
 0.9020	57.4480
 0.9030	57.4590
 0.9040	57.4720
 0.9050	57.4780
 0.9060	57.4860
 0.9070	57.5000
 0.9080	57.5140
 0.9090	57.5210
 0.9100	57.5250
 0.9110	57.5320
 0.9120	57.5430
 0.9130	57.5520
 0.9140	57.5590
 0.9150	57.5660
 0.9160	57.5670
 0.9170	57.5670
 0.9180	57.5670
 0.9190	57.5640
 0.9200	57.5630
 0.9210	57.5600
 0.9220	57.5550
 0.9230	57.5500
 0.9240	57.5390
 0.9250	57.5250
 0.9260	57.5140
 0.9270	57.5080
 0.9280	57.5060
 0.9290	57.4910
 0.9300	57.4640
 0.9310	57.4440
 0.9320	57.4320
 0.9330	57.4110
 0.9340	57.3780
 0.9350	57.3460
 0.9360	57.3220
 0.9370	57.3040
 0.9380	57.2860
 0.9390	57.2550
 0.9400	57.2230
 0.9410	57.1860
 0.9420	57.1460
 0.9430	57.1070
 0.9440	57.0640
 0.9450	57.0190
 0.9460	56.9740
 0.9470	56.9250
 0.9480	56.8640
 0.9490	56.7970
 0.9500	56.7280
 0.9510	56.6440
 0.9520	56.5740
 0.9530	56.5110
 0.9540	56.4450
 0.9550	56.3800
 0.9560	56.3000
 0.9570	56.2150
 0.9580	56.1420
 0.9590	56.0870
 0.9600	56.0390
 0.9610	55.9890
 0.9620	55.9360
 0.9630	55.9030
 0.9640	55.8700
 0.9650	55.8370
 0.9660	55.8100
 0.9670	55.7790
 0.9680	55.7590
 0.9690	55.7480
 0.9700	55.7350
 0.9710	55.7100
 0.9720	55.6960
 0.9730	55.6910
 0.9740	55.6880
 0.9750	55.6810
 0.9760	55.6720
 0.9770	55.6670
 0.9780	55.6690
 0.9790	55.6600
 0.9800	55.6620
 0.9810	55.6730
 0.9820	55.6810
 0.9830	55.6780
 0.9840	55.6760
 0.9850	55.6820
 0.9860	55.6980
 0.9870	55.7120
 0.9880	55.7410
 0.9890	55.7630
 0.9900	55.7530
 0.9910	55.7590
 0.9920	55.7840
 0.9930	55.8110
 0.9940	55.8270
 0.9950	55.8630
 0.9960	55.8820
 0.9970	55.8870
 0.9980	55.9020
 0.9990	55.9340
 1.0000	55.9630
 1.0010	56.6980
 1.0020	56.7200
 1.0030	56.7450
 1.0040	56.7720
 1.0050	56.8000
 1.0060	56.8260
 1.0070	56.8480
 1.0080	56.8730
 1.0090	56.8980
 1.0100	56.9230
 1.0110	56.9470
 1.0120	56.9750
 1.0130	57.0040
 1.0140	57.0310
 1.0150	57.0590
 1.0160	57.0910
 1.0170	57.1150
 1.0180	57.1380
 1.0190	57.1630
 1.0200	57.1850
 1.0210	57.2090
 1.0220	57.2400
 1.0230	57.2690
 1.0240	57.3020
 1.0250	57.3290
 1.0260	57.3530
 1.0270	57.3770
 1.0280	57.3950
 1.0290	57.4170
 1.0300	57.4400
 1.0310	57.4640
 1.0320	57.4890
 1.0330	57.5100
 1.0340	57.5330
 1.0350	57.5540
 1.0360	57.5710
 1.0370	57.5900
 1.0380	57.6080
 1.0390	57.6230
 1.0400	57.6410
 1.0410	57.6610
 1.0420	57.6780
 1.0430	57.6960
 1.0440	57.7110
 1.0450	57.7230
 1.0460	57.7380
 1.0470	57.7550
 1.0480	57.7700
 1.0490	57.7860
 1.0500	57.7990
 1.0510	57.8100
 1.0520	57.8180
 1.0530	57.8290
 1.0540	57.8420
 1.0550	57.8520
 1.0560	57.8620
 1.0570	57.8730
 1.0580	57.8830
 1.0590	57.8920
 1.0600	57.9020
 1.0610	57.9100
 1.0620	57.9150
 1.0630	57.9210
 1.0640	57.9240
 1.0650	57.9300
 1.0660	57.9380
 1.0670	57.9440
 1.0680	57.9500
 1.0690	57.9580
 1.0700	57.9610
 1.0710	57.9590
 1.0720	57.9610
 1.0730	57.9650
 1.0740	57.9650
 1.0750	57.9640
 1.0760	57.9640
 1.0770	57.9620
 1.0780	57.9600
 1.0790	57.9570
 1.0800	57.9550
 1.0810	57.9540
 1.0820	57.9510
 1.0830	57.9510
 1.0840	57.9480
 1.0850	57.9430
 1.0860	57.9370
 1.0870	57.9320
 1.0880	57.9260
 1.0890	57.9180
 1.0900	57.9100
 1.0910	57.9020
 1.0920	57.8940
 1.0930	57.8840
 1.0940	57.8740
 1.0950	57.8650
 1.0960	57.8570
 1.0970	57.8460
 1.0980	57.8350
 1.0990	57.8230
 1.1000	57.8050
 1.1010	57.7900
 1.1020	57.7770
 1.1030	57.7610
 1.1040	57.7480
 1.1050	57.7370
 1.1060	57.7240
 1.1070	57.7110
 1.1080	57.6950
 1.1090	57.6760
 1.1100	57.6590
 1.1110	57.6420
 1.1120	57.6240
 1.1130	57.6080
 1.1140	57.5870
 1.1150	57.5620
 1.1160	57.5370
 1.1170	57.5120
 1.1180	57.4840
 1.1190	57.4540
 1.1200	57.4220
 1.1210	57.3880
 1.1220	57.3490
 1.1230	57.3040
 1.1240	57.2570
 1.1250	57.2030
 1.1260	57.1440
 1.1270	57.0790
 1.1280	57.0110
 1.1290	56.9310
 1.1300	56.8440
 1.1310	56.7480
 1.1320	56.6410
 1.1330	56.5270
 1.1340	56.4040
 1.1350	56.2730
 1.1360	56.1330
 1.1370	55.9870
 1.1380	55.8330
 1.1390	55.6750
 1.1400	55.5110
 1.1410	55.3410
 1.1420	55.1700
 1.1430	54.9970
 1.1440	54.8260
 1.1450	54.6510
 1.1460	54.4850
 1.1470	54.3200
 1.1480	54.1630
 1.1490	54.0110
 1.1500	53.8680
 1.1510	53.7300
 1.1520	53.6000
 1.1530	53.4780
 1.1540	53.3660
 1.1550	53.2620
 1.1560	53.1670
 1.1570	53.0840
 1.1580	53.0060
 1.1590	52.9330
 1.1600	52.8690
 1.1610	52.8100
 1.1620	52.7580
 1.1630	52.7150
 1.1640	52.6760
 1.1650	52.6380
 1.1660	52.6060
 1.1670	52.5750
 1.1680	52.5450
 1.1690	52.5180
 1.1700	52.4960
 1.1710	52.4730
 1.1720	52.4510
 1.1730	52.4300
 1.1740	52.4080
 1.1750	52.3880
 1.1760	52.3680
 1.1770	52.3490
 1.1780	52.3310
 1.1790	52.3080
 1.1800	52.2830
 1.1810	52.2580
 1.1820	52.2340
 1.1830	52.2090
 1.1840	52.1860
 1.1850	52.1630
 1.1860	52.1400
 1.1870	52.1170
 1.1880	52.0950
 1.1890	52.0730
 1.1900	52.0530
 1.1910	52.0330
 1.1920	52.0160
 1.1930	52.0010
 1.1940	51.9870
 1.1950	51.9740
 1.1960	51.9630
 1.1970	51.9520
 1.1980	51.9440
 1.1990	51.9400
 1.2000	51.9380
 1.2010	51.9390
 1.2020	51.9410
 1.2030	51.9450
 1.2040	51.9520
 1.2050	51.9610
 1.2060	51.9730
 1.2070	51.9890
 1.2080	52.0060
 1.2090	52.0260
 1.2100	52.0480
 1.2110	52.0720
 1.2120	52.0970
 1.2130	52.1250
 1.2140	52.1550
 1.2150	52.1860
 1.2160	52.2190
 1.2170	52.2520
 1.2180	52.2860
 1.2190	52.3210
 1.2200	52.3560
 1.2210	52.3940
 1.2220	52.4320
 1.2230	52.4710
 1.2240	52.5090
 1.2250	52.5460
 1.2260	52.5820
 1.2270	52.6170
 1.2280	52.6510
 1.2290	52.6850
 1.2300	52.7170
 1.2310	52.7480
 1.2320	52.7780
 1.2330	52.8070
 1.2340	52.8360
 1.2350	52.8650
 1.2360	52.8920
 1.2370	52.9180
 1.2380	52.9440
 1.2390	52.9680
 1.2400	52.9910
 1.2410	53.0150
 1.2420	53.0350
 1.2430	53.0540
 1.2440	53.0760
 1.2450	53.0950
 1.2460	53.1140
 1.2470	53.1330
 1.2480	53.1480
 1.2490	53.1640
 1.2500	53.1790
 1.2510	53.1930
 1.2520	53.2060
 1.2530	53.2180
 1.2540	53.2300
 1.2550	53.2420
 1.2560	53.2530
 1.2570	53.2650
 1.2580	53.2750
 1.2590	53.2820
 1.2600	53.2870
 1.2610	53.2920
 1.2620	53.2950
 1.2630	53.2960
 1.2640	53.3010
 1.2650	53.3010
 1.2660	53.3000
 1.2670	53.3000
 1.2680	53.2970
 1.2690	53.2930
 1.2700	53.2870
 1.2710	53.2770
 1.2720	53.2660
 1.2730	53.2550
 1.2740	53.2450
 1.2750	53.2310
 1.2760	53.2150
 1.2770	53.1980
 1.2780	53.1790
 1.2790	53.1590
 1.2800	53.1380
 1.2810	53.1130
 1.2820	53.0850
 1.2830	53.0530
 1.2840	53.0190
 1.2850	52.9850
 1.2860	52.9480
 1.2870	52.9090
 1.2880	52.8680
 1.2890	52.8270
 1.2900	52.7830
 1.2910	52.7360
 1.2920	52.6900
 1.2930	52.6370
 1.2940	52.5840
 1.2950	52.5290
 1.2960	52.4690
 1.2970	52.4090
 1.2980	52.3480
 1.2990	52.2800
 1.3000	52.2120
 1.3010	52.1400
 1.3020	52.0660
 1.3030	51.9890
 1.3040	51.9100
 1.3050	51.8290
 1.3060	51.7430
 1.3070	51.6550
 1.3080	51.5670
 1.3090	51.4720
 1.3100	51.3740
 1.3110	51.2720
 1.3120	51.1670
 1.3130	51.0580
 1.3140	50.9460
 1.3150	50.8320
 1.3160	50.7130
 1.3170	50.5910
 1.3180	50.4660
 1.3190	50.3380
 1.3200	50.2090
 1.3210	50.0770
 1.3220	49.9400
 1.3230	49.8000
 1.3240	49.6540
 1.3250	49.5060
 1.3260	49.3560
 1.3270	49.2050
 1.3280	49.0530
 1.3290	48.8950
 1.3300	48.7360
 1.3310	48.5740
 1.3320	48.4080
 1.3330	48.2460
 1.3340	48.0830
 1.3350	47.9180
 1.3360	47.7550
 1.3370	47.5900
 1.3380	47.4240
 1.3390	47.2620
 1.3400	47.1000
 1.3410	46.9400
 1.3420	46.7810
 1.3430	46.6230
 1.3440	46.4660
 1.3450	46.3100
 1.3460	46.1540
 1.3470	46.0030
 1.3480	45.8560
 1.3490	45.7100
 1.3500	45.5670
 1.3510	45.4240
 1.3520	45.2800
 1.3530	45.1360
 1.3540	44.9920
 1.3550	44.8480
 1.3560	44.7030
 1.3570	44.5580
 1.3580	44.4120
 1.3590	44.2620
 1.3600	44.1090
 1.3610	43.9500
 1.3620	43.7850
 1.3630	43.6140
 1.3640	43.4350
 1.3650	43.2470
 1.3660	43.0510
 1.3670	42.8430
 1.3680	42.6210
 1.3690	42.3870
 1.3700	42.1350
 1.3710	41.8670
 1.3720	41.5840
 1.3730	41.2800
 1.3740	40.9590
 1.3750	40.6160
 1.3760	40.2470
 1.3770	39.8530
 1.3780	39.4280
 1.3790	38.9800
 1.3800	38.5080
 1.3810	38.0080
 1.3820	37.4870
 1.3830	36.9440
 1.3840	36.3800
 1.3850	35.7900
 1.3860	35.1900
 1.3870	34.5660
 1.3880	33.9410
 1.3890	33.3040
 1.3900	32.6600
 1.3910	32.0200
 1.3920	31.3790
 1.3930	30.7360
 1.3940	30.1030
 1.3950	29.4700
 1.3960	28.8500
 1.3970	28.2470
 1.3980	27.6590
 1.3990	27.0970
 1.4000	26.5520
 1.4010	26.0240
 1.4020	25.5220
 1.4030	25.0370
 1.4040	24.5760
 1.4050	24.1400
 1.4060	23.7260
 1.4070	23.3390
 1.4080	22.9750
 1.4090	22.6300
 1.4100	22.3090
 1.4110	22.0060
 1.4120	21.7220
 1.4130	21.4590
 1.4140	21.2130
 1.4150	20.9880
 1.4160	20.7780
 1.4170	20.5820
 1.4180	20.4000
 1.4190	20.2290
 1.4200	20.0700
 1.4210	19.9240
 1.4220	19.7880
 1.4230	19.6640
 1.4240	19.5500
 1.4250	19.4410
 1.4260	19.3420
 1.4270	19.2490
 1.4280	19.1630
 1.4290	19.0840
 1.4300	19.0140
 1.4310	18.9480
 1.4320	18.8910
 1.4330	18.8370
 1.4340	18.7880
 1.4350	18.7440
 1.4360	18.7050
 1.4370	18.6700
 1.4380	18.6400
 1.4390	18.6150
 1.4400	18.5940
 1.4410	18.5750
 1.4420	18.5610
 1.4430	18.5480
 1.4440	18.5400
 1.4450	18.5340
 1.4460	18.5310
 1.4470	18.5320
 1.4480	18.5340
 1.4490	18.5380
 1.4500	18.5450
 1.4510	18.5530
 1.4520	18.5640
 1.4530	18.5780
 1.4540	18.5930
 1.4550	18.6100
 1.4560	18.6310
 1.4570	18.6550
 1.4580	18.6820
 1.4590	18.7140
 1.4600	18.7490
 1.4610	18.7870
 1.4620	18.8300
 1.4630	18.8790
 1.4640	18.9310
 1.4650	18.9890
 1.4660	19.0510
 1.4670	19.1170
 1.4680	19.1900
 1.4690	19.2660
 1.4700	19.3480
 1.4710	19.4360
 1.4720	19.5260
 1.4730	19.6210
 1.4740	19.7180
 1.4750	19.8190
 1.4760	19.9240
 1.4770	20.0310
 1.4780	20.1420
 1.4790	20.2560
 1.4800	20.3710
 1.4810	20.4880
 1.4820	20.6080
 1.4830	20.7280
 1.4840	20.8520
 1.4850	20.9770
 1.4860	21.1020
 1.4870	21.2310
 1.4880	21.3590
 1.4890	21.4890
 1.4900	21.6200
 1.4910	21.7510
 1.4920	21.8850
 1.4930	22.0210
 1.4940	22.1560
 1.4950	22.2940
 1.4960	22.4300
 1.4970	22.5660
 1.4980	22.7040
 1.4990	22.8440
 1.5000	22.9840
 1.5010	23.1260
 1.5020	23.2670
 1.5030	23.4080
 1.5040	23.5500
 1.5050	23.6910
 1.5060	23.8330
 1.5070	23.9760
 1.5080	24.1190
 1.5090	24.2610
 1.5100	24.4050
 1.5110	24.5480
 1.5120	24.6900
 1.5130	24.8310
 1.5140	24.9730
 1.5150	25.1150
 1.5160	25.2560
 1.5170	25.3990
 1.5180	25.5410
 1.5190	25.6820
 1.5200	25.8250
 1.5210	25.9640
 1.5220	26.1030
 1.5230	26.2430
 1.5240	26.3800
 1.5250	26.5190
 1.5260	26.6580
 1.5270	26.7950
 1.5280	26.9330
 1.5290	27.0700
 1.5300	27.2060
 1.5310	27.3430
 1.5320	27.4780
 1.5330	27.6130
 1.5340	27.7460
 1.5350	27.8780
 1.5360	28.0080
 1.5370	28.1380
 1.5380	28.2680
 1.5390	28.3980
 1.5400	28.5260
 1.5410	28.6550
 1.5420	28.7810
 1.5430	28.9060
 1.5440	29.0320
 1.5450	29.1530
 1.5460	29.2770
 1.5470	29.3990
 1.5480	29.5190
 1.5490	29.6390
 1.5500	29.7580
 1.5510	29.8760
 1.5520	29.9940
 1.5530	30.1090
 1.5540	30.2240
 1.5550	30.3380
 1.5560	30.4500
 1.5570	30.5630
 1.5580	30.6740
 1.5590	30.7840
 1.5600	30.8940
 1.5610	31.0010
 1.5620	31.1080
 1.5630	31.2120
 1.5640	31.3140
 1.5650	31.4170
 1.5660	31.5190
 1.5670	31.6210
 1.5680	31.7220
 1.5690	31.8210
 1.5700	31.9180
 1.5710	32.0140
 1.5720	32.1090
 1.5730	32.2030
 1.5740	32.2980
 1.5750	32.3900
 1.5760	32.4840
 1.5770	32.5770
 1.5780	32.6670
 1.5790	32.7570
 1.5800	32.8440
 1.5810	32.9310
 1.5820	33.0160
 1.5830	33.1010
 1.5840	33.1850
 1.5850	33.2680
 1.5860	33.3510
 1.5870	33.4330
 1.5880	33.5140
 1.5890	33.5960
 1.5900	33.6760
 1.5910	33.7540
 1.5920	33.8330
 1.5930	33.9090
 1.5940	33.9860
 1.5950	34.0610
 1.5960	34.1340
 1.5970	34.2080
 1.5980	34.2810
 1.5990	34.3540
 1.6000	34.4270
 1.6010	34.4990
 1.6020	34.5670
 1.6030	34.6360
 1.6040	34.7020
 1.6050	34.7690
 1.6060	34.8350
 1.6070	34.9000
 1.6080	34.9650
 1.6090	35.0280
 1.6100	35.0880
 1.6110	35.1490
 1.6120	35.2100
 1.6130	35.2690
 1.6140	35.3280
 1.6150	35.3870
 1.6160	35.4450
 1.6170	35.5010
 1.6180	35.5570
 1.6190	35.6130
 1.6200	35.6650
 1.6210	35.7180
 1.6220	35.7710
 1.6230	35.8210
 1.6240	35.8710
 1.6250	35.9190
 1.6260	35.9650
 1.6270	36.0100
 1.6280	36.0560
 1.6290	36.1000
 1.6300	36.1420
 1.6310	36.1850
 1.6320	36.2290
 1.6330	36.2700
 1.6340	36.3140
 1.6350	36.3540
 1.6360	36.3910
 1.6370	36.4280
 1.6380	36.4610
 1.6390	36.4940
 1.6400	36.5270
 1.6410	36.5570
 1.6420	36.5860
 1.6430	36.6130
 1.6440	36.6380
 1.6450	36.6620
 1.6460	36.6850
 1.6470	36.7060
 1.6480	36.7230
 1.6490	36.7380
 1.6500	36.7530
 1.6510	36.7650
 1.6520	36.7770
 1.6530	36.7880
 1.6540	36.7950
 1.6550	36.8020
 1.6560	36.8070
 1.6570	36.8090
 1.6580	36.8100
 1.6590	36.8120
 1.6600	36.8130
 1.6610	36.8120
 1.6620	36.8120
 1.6630	36.8110
 1.6640	36.8090
 1.6650	36.8070
 1.6660	36.8050
 1.6670	36.8020
 1.6680	36.7970
 1.6690	36.7920
 1.6700	36.7860
 1.6710	36.7780
 1.6720	36.7680
 1.6730	36.7580
 1.6740	36.7460
 1.6750	36.7330
 1.6760	36.7190
 1.6770	36.7030
 1.6780	36.6850
 1.6790	36.6670
 1.6800	36.6460
 1.6810	36.6220
 1.6820	36.5970
 1.6830	36.5690
 1.6840	36.5380
 1.6850	36.5080
 1.6860	36.4740
 1.6870	36.4360
 1.6880	36.4000
 1.6890	36.3590
 1.6900	36.3160
 1.6910	36.2720
 1.6920	36.2240
 1.6930	36.1710
 1.6940	36.1200
 1.6950	36.0690
 1.6960	36.0160
 1.6970	35.9630
 1.6980	35.9050
 1.6990	35.8420
 1.7000	35.7800
 1.7010	35.7150
 1.7020	35.6500
 1.7030	35.5850
 1.7040	35.5170
 1.7050	35.4450
 1.7060	35.3730
 1.7070	35.2970
 1.7080	35.2240
 1.7090	35.1500
 1.7100	35.0770
 1.7110	35.0030
 1.7120	34.9330
 1.7130	34.8620
 1.7140	34.7960
 1.7150	34.7320
 1.7160	34.6680
 1.7170	34.6080
 1.7180	34.5480
 1.7190	34.4880
 1.7200	34.4310
 1.7210	34.3770
 1.7220	34.3260
 1.7230	34.2780
 1.7240	34.2290
 1.7250	34.1830
 1.7260	34.1390
 1.7270	34.0980
 1.7280	34.0620
 1.7290	34.0250
 1.7300	33.9940
 1.7310	33.9630
 1.7320	33.9340
 1.7330	33.9040
 1.7340	33.8750
 1.7350	33.8420
 1.7360	33.8070
 1.7370	33.7700
 1.7380	33.7300
 1.7390	33.6860
 1.7400	33.6380
 1.7410	33.5850
 1.7420	33.5270
 1.7430	33.4650
 1.7440	33.3980
 1.7450	33.3280
 1.7460	33.2530
 1.7470	33.1770
 1.7480	33.0990
 1.7490	33.0200
 1.7500	32.9400
 1.7510	32.8600
 1.7520	32.7780
 1.7530	32.6990
 1.7540	32.6230
 1.7550	32.5480
 1.7560	32.4740
 1.7570	32.3980
 1.7580	32.3240
 1.7590	32.2520
 1.7600	32.1820
 1.7610	32.1180
 1.7620	32.0550
 1.7630	31.9940
 1.7640	31.9370
 1.7650	31.8820
 1.7660	31.8290
 1.7670	31.7800
 1.7680	31.7310
 1.7690	31.6840
 1.7700	31.6370
 1.7710	31.5890
 1.7720	31.5430
 1.7730	31.4980
 1.7740	31.4560
 1.7750	31.4160
 1.7760	31.3770
 1.7770	31.3410
 1.7780	31.3070
 1.7790	31.2730
 1.7800	31.2460
 1.7810	31.2210
 1.7820	31.2000
 1.7830	31.1850
 1.7840	31.1670
 1.7850	31.1490
 1.7860	31.1350
 1.7870	31.1250
 1.7880	31.1150
 1.7890	31.1080
 1.7900	31.1020
 1.7910	31.0980
 1.7920	31.0970
 1.7930	31.0970
 1.7940	31.1000
 1.7950	31.1010
 1.7960	31.1020
 1.7970	31.1050
 1.7980	31.1080
 1.7990	31.1130
 1.8000	31.1210
 1.8010	31.1280
 1.8020	31.1350
 1.8030	31.1440
 1.8040	31.1550
 1.8050	31.1650
 1.8060	31.1760
 1.8070	31.1860
 1.8080	31.1950
 1.8090	31.2030
 1.8100	31.2100
 1.8110	31.2170
 1.8120	31.2240
 1.8130	31.2340
 1.8140	31.2420
 1.8150	31.2460
 1.8160	31.2500
 1.8170	31.2500
 1.8180	31.2490
 1.8190	31.2540
 1.8200	31.2540
 1.8210	31.2520
 1.8220	31.2500
 1.8230	31.2440
 1.8240	31.2370
 1.8250	31.2280
 1.8260	31.2190
 1.8270	31.2070
 1.8280	31.1930
 1.8290	31.1790
 1.8300	31.1600
 1.8310	30.7660
 1.8320	30.7300
 1.8330	30.6910
 1.8340	30.6540
 1.8350	30.6130
 1.8360	30.5650
 1.8370	30.5100
 1.8380	30.4500
 1.8390	30.3840
 1.8400	30.3120
 1.8410	30.2320
 1.8420	30.1490
 1.8430	30.0580
 1.8440	29.9570
 1.8450	29.8520
 1.8460	29.7380
 1.8470	29.6130
 1.8480	29.4770
 1.8490	29.3300
 1.8500	29.1700
 1.8510	28.9990
 1.8520	28.8200
 1.8530	28.6260
 1.8540	28.4160
 1.8550	28.1930
 1.8560	27.9550
 1.8570	27.7030
 1.8580	27.4370
 1.8590	27.1570
 1.8600	26.8650
 1.8610	26.5540
 1.8620	26.2260
 1.8630	25.8850
 1.8640	25.5280
 1.8650	25.1520
 1.8660	24.7590
 1.8670	24.3480
 1.8680	23.9180
 1.8690	23.4710
 1.8700	23.0060
 1.8710	22.5240
 1.8720	22.0280
 1.8730	21.5210
 1.8740	21.0030
 1.8750	20.4830
 1.8760	19.9550
 1.8770	19.4240
 1.8780	18.8950
 1.8790	18.3650
 1.8800	17.8430
 1.8810	17.3260
 1.8820	16.8070
 1.8830	16.2950
 1.8840	15.7910
 1.8850	15.2870
 1.8860	14.7960
 1.8870	14.3170
 1.8880	13.8470
 1.8890	13.3980
 1.8900	12.9670
 1.8910	12.5550
 1.8920	12.1590
 1.8930	11.7830
 1.8940	11.4270
 1.8950	11.0920
 1.8960	10.7790
 1.8970	10.4860
 1.8980	10.2130
 1.8990	 9.9600
 1.9000	 9.7210
 1.9010	 9.4990
 1.9020	 9.2950
 1.9030	 9.1100
 1.9040	 8.9400
 1.9050	 8.7870
 1.9060	 8.6470
 1.9070	 8.5210
 1.9080	 8.4040
 1.9090	 8.2960
 1.9100	 8.2000
 1.9110	 8.1130
 1.9120	 8.0380
 1.9130	 7.9680
 1.9140	 7.9070
 1.9150	 7.8530
 1.9160	 7.8010
 1.9170	 7.7540
 1.9180	 7.7120
 1.9190	 7.6750
 1.9200	 7.6440
 1.9210	 7.6160
 1.9220	 7.5920
 1.9230	 7.5740
 1.9240	 7.5560
 1.9250	 7.5400
 1.9260	 7.5290
 1.9270	 7.5190
 1.9280	 7.5150
 1.9290	 7.5160
 1.9300	 7.5180
 1.9310	 7.5240
 1.9320	 7.5310
 1.9330	 7.5420
 1.9340	 7.5570
 1.9350	 7.5710
 1.9360	 7.5870
 1.9370	 7.6060
 1.9380	 7.6270
 1.9390	 7.6500
 1.9400	 7.6760
 1.9410	 7.7020
 1.9420	 7.7290
 1.9430	 7.7570
 1.9440	 7.7870
 1.9450	 7.8210
 1.9460	 7.8550
 1.9470	 7.8890
 1.9480	 7.9250
 1.9490	 7.9620
 1.9500	 8.0020
 1.9510	 8.0410
 1.9520	 8.0830
 1.9530	 8.1260
 1.9540	 8.1690
 1.9550	 8.2150
 1.9560	 8.2640
 1.9570	 8.3110
 1.9580	 8.3580
 1.9590	 8.4070
 1.9600	 8.4550
 1.9610	 8.5050
 1.9620	 8.5570
 1.9630	 8.6100
 1.9640	 8.6630
 1.9650	 8.7200
 1.9660	 8.7770
 1.9670	 8.8340
 1.9680	 8.8910
 1.9690	 8.9450
 1.9700	 9.0040
 1.9710	 9.0630
 1.9720	 9.1240
 1.9730	 9.1870
 1.9740	 9.2510
 1.9750	 9.3150
 1.9760	 9.3810
 1.9770	 9.4450
 1.9780	 9.5110
 1.9790	 9.5780
 1.9800	 9.6450
 1.9810	 9.7130
 1.9820	 9.7860
 1.9830	 9.8540
 1.9840	 9.9220
 1.9850	 9.9890
 1.9860	10.0530
 1.9870	10.1190
 1.9880	10.1880
 1.9890	10.2570
 1.9900	10.3280
 1.9910	10.4000
 1.9920	10.4720
 1.9930	10.5420
 1.9940	10.6160
 1.9950	10.6910
 1.9960	10.7650
 1.9970	10.8400
 1.9980	10.9140
 1.9990	10.9880
 2.0000	11.0610
 2.0010	11.1350
 2.0020	11.2090
 2.0030	11.2810
 2.0040	11.3540
 2.0050	11.4270
 2.0060	11.4990
 2.0070	11.5730
 2.0080	11.6480
 2.0090	11.7220
 2.0100	11.7990
 2.0110	11.8740
 2.0120	11.9480
 2.0130	12.0190
 2.0140	12.0900
 2.0150	12.1620
 2.0160	12.2340
 2.0170	12.3080
 2.0180	12.3820
 2.0190	12.4600
 2.0200	12.5340
 2.0210	12.6090
 2.0220	12.6820
 2.0230	12.7510
 2.0240	12.8230
 2.0250	12.8960
 2.0260	12.9680
 2.0270	13.0400
 2.0280	13.1110
 2.0290	13.1800
 2.0300	13.2470
 2.0310	13.3150
 2.0320	13.3830
 2.0330	13.4510
 2.0340	13.5200
 2.0350	13.5890
 2.0360	13.6590
 2.0370	13.7270
 2.0380	13.7930
 2.0390	13.8590
 2.0400	13.9250
 2.0410	13.9890
 2.0420	14.0520
 2.0430	14.1120
 2.0440	14.1730
 2.0450	14.2330
 2.0460	14.2940
 2.0470	14.3540
 2.0480	14.4160
 2.0490	14.4760
 2.0500	14.5390
 2.0510	14.6040
 2.0520	14.6670
 2.0530	14.7320
 2.0540	14.7940
 2.0550	14.8520
 2.0560	14.9120
 2.0570	14.9760
 2.0580	15.0380
 2.0590	15.1000
 2.0600	15.1650
 2.0610	15.2270
 2.0620	15.2860
 2.0630	15.3490
 2.0640	15.4120
 2.0650	15.4750
 2.0660	15.5410
 2.0670	15.6060
 2.0680	15.6710
 2.0690	15.7360
 2.0700	15.8000
 2.0710	15.8640
 2.0720	15.9270
 2.0730	15.9880
 2.0740	16.0490
 2.0750	16.1110
 2.0760	16.1720
 2.0770	16.2330
 2.0780	16.2950
 2.0790	16.3570
 2.0800	16.4190
 2.0810	16.4800
 2.0820	16.5420
 2.0830	16.6040
 2.0840	16.6660
 2.0850	16.7270
 2.0860	16.7880
 2.0870	16.8520
 2.0880	16.9140
 2.0890	16.9740
 2.0900	17.0330
 2.0910	17.0930
 2.0920	17.1500
 2.0930	17.2100
 2.0940	17.2740
 2.0950	17.3340
 2.0960	17.3940
 2.0970	17.4530
 2.0980	17.5100
 2.0990	17.5680
 2.1000	17.6250
 2.1010	17.6830
 2.1020	17.7420
 2.1030	17.8010
 2.1040	17.8590
 2.1050	17.9200
 2.1060	17.9790
 2.1070	18.0410
 2.1080	18.0980
 2.1090	18.1520
 2.1100	18.2080
 2.1110	18.2610
 2.1120	18.3170
 2.1130	18.3780
 2.1140	18.4330
 2.1150	18.4870
 2.1160	18.5390
 2.1170	18.5880
 2.1180	18.6370
 2.1190	18.6860
 2.1200	18.7360
 2.1210	18.7860
 2.1220	18.8390
 2.1230	18.8880
 2.1240	18.9370
 2.1250	18.9840
 2.1260	19.0260
 2.1270	19.0720
 2.1280	19.1200
 2.1290	19.1660
 2.1300	19.2130
 2.1310	19.2590
 2.1320	19.3030
 2.1330	19.3460
 2.1340	19.3890
 2.1350	19.4300
 2.1360	19.4670
 2.1370	19.5050
 2.1380	19.5400
 2.1390	19.5760
 2.1400	19.6140
 2.1410	19.6470
 2.1420	19.6800
 2.1430	19.7120
 2.1440	19.7470
 2.1450	19.7820
 2.1460	19.8160
 2.1470	19.8520
 2.1480	19.8870
 2.1490	19.9210
 2.1500	19.9530
 2.1510	19.9870
 2.1520	20.0170
 2.1530	20.0430
 2.1540	20.0710
 2.1550	20.1010
 2.1560	20.1290
 2.1570	20.1560
 2.1580	20.1820
 2.1590	20.2060
 2.1600	20.2300
 2.1610	20.2540
 2.1620	20.2780
 2.1630	20.3030
 2.1640	20.3270
 2.1650	20.3540
 2.1660	20.3840
 2.1670	20.4100
 2.1680	20.4360
 2.1690	20.4620
 2.1700	20.4880
 2.1710	20.5110
 2.1720	20.5360
 2.1730	20.5560
 2.1740	20.5680
 2.1750	20.5860
 2.1760	20.6040
 2.1770	20.6260
 2.1780	20.6570
 2.1790	20.6800
 2.1800	20.7020
 2.1810	20.7230
 2.1820	20.7380
 2.1830	20.7550
 2.1840	20.7750
 2.1850	20.7980
 2.1860	20.8200
 2.1870	20.8440
 2.1880	20.8650
 2.1890	20.8860
 2.1900	20.9030
 2.1910	20.9140
 2.1920	20.9310
 2.1930	20.9490
 2.1940	20.9660
 2.1950	20.9880
 2.1960	21.0060
 2.1970	21.0200
 2.1980	21.0350
 2.1990	21.0480
 2.2000	21.0620
 2.2010	21.0760
 2.2020	21.0900
 2.2030	21.1040
 2.2040	21.1190
 2.2050	21.1360
 2.2060	21.1500
 2.2070	21.1620
 2.2080	21.1750
 2.2090	21.1830
 2.2100	21.1860
 2.2110	21.1910
 2.2120	21.1960
 2.2130	21.1980
 2.2140	21.1980
 2.2150	21.2010
 2.2160	21.2050
 2.2170	21.2070
 2.2180	21.2140
 2.2190	21.2130
 2.2200	21.2050
 2.2210	21.2000
 2.2220	21.1920
 2.2230	21.1840
 2.2240	21.1790
 2.2250	21.1680
 2.2260	21.1530
 2.2270	21.1370
 2.2280	21.1180
 2.2290	21.0980
 2.2300	21.0770
 2.2310	21.0530
 2.2320	21.0270
 2.2330	20.9990
 2.2340	20.9680
 2.2350	20.9340
 2.2360	20.9010
 2.2370	20.8660
 2.2380	20.8290
 2.2390	20.7900
 2.2400	20.7510
 2.2410	20.7110
 2.2420	20.6680
 2.2430	20.6260
 2.2440	20.5770
 2.2450	20.5220
 2.2460	20.4690
 2.2470	20.4150
 2.2480	20.3600
 2.2490	20.3110
 2.2500	20.2530
 2.2510	20.1870
 2.2520	20.1260
 2.2530	20.0640
 2.2540	20.0030
 2.2550	19.9480
 2.2560	19.8870
 2.2570	19.8190
 2.2580	19.7550
 2.2590	19.6890
 2.2600	19.6230
 2.2610	19.5580
 2.2620	19.4950
 2.2630	19.4310
 2.2640	19.3690
 2.2650	19.2990
 2.2660	19.2320
 2.2670	19.1680
 2.2680	19.1000
 2.2690	19.0380
 2.2700	18.9830
 2.2710	18.9240
 2.2720	18.8630
 2.2730	18.8060
 2.2740	18.7520
 2.2750	18.6980
 2.2760	18.6430
 2.2770	18.5910
 2.2780	18.5400
 2.2790	18.4900
 2.2800	18.4470
 2.2810	18.3930
 2.2820	18.3330
 2.2830	18.2740
 2.2840	18.2080
 2.2850	18.1460
 2.2860	18.0860
 2.2870	18.0240
 2.2880	17.9640
 2.2890	17.8990
 2.2900	17.8340
 2.2910	17.7650
 2.2920	17.6910
 2.2930	17.6190
 2.2940	17.5440
 2.2950	17.4730
 2.2960	17.4050
 2.2970	17.3360
 2.2980	17.2690
 2.2990	17.2020
 2.3000	17.1310
 2.3010	17.0680
 2.3020	17.0010
 2.3030	16.9420
 2.3040	16.8930
 2.3050	16.8390
 2.3060	16.7900
 2.3070	16.7430
 2.3080	16.6980
 2.3090	16.6610
 2.3100	16.6360
 2.3110	16.6190
 2.3120	16.5980
 2.3130	16.5830
 2.3140	16.5650
 2.3150	16.5480
 2.3160	16.5270
 2.3170	16.5060
 2.3180	16.4860
 2.3190	16.4630
 2.3200	16.4410
 2.3210	16.4230
 2.3220	16.3960
 2.3230	16.3650
 2.3240	16.3310
 2.3250	16.2890
 2.3260	16.2500
 2.3270	16.2100
 2.3280	16.1670
 2.3290	16.1240
 2.3300	16.0760
 2.3310	16.0270
 2.3320	15.9710
 2.3330	15.9040
 2.3340	15.8450
 2.3350	15.7820
 2.3360	15.7240
 2.3370	15.6750
 2.3380	15.6220
 2.3390	15.5750
 2.3400	15.5190
 2.3410	15.4570
 2.3420	15.4010
 2.3430	15.3420
 2.3440	15.2880
 2.3450	15.2410
 2.3460	15.1900
 2.3470	15.1370
 2.3480	15.0870
 2.3490	15.0380
 2.3500	14.9940
 2.3510	14.9560
 2.3520	14.9160
 2.3530	14.8790
 2.3540	14.8400
 2.3550	14.8010
 2.3560	14.7690
 2.3570	14.7410
 2.3580	14.7090
 2.3590	14.6810
 2.3600	14.6470
 2.3610	14.6010
 2.3620	14.5570
 2.3630	14.5080
 2.3640	14.4590
 2.3650	14.4220
 2.3660	14.3870
 2.3670	14.3520
 2.3680	14.3130
 2.3690	14.2700
 2.3700	14.2200
 2.3710	14.1640
 2.3720	14.1110
 2.3730	14.0580
 2.3740	14.0090
 2.3750	13.9630
 2.3760	13.9170
 2.3770	13.8770
 2.3780	13.8340
 2.3790	13.7980
 2.3800	13.7600
 2.3810	13.7240
 2.3820	13.6850
 2.3830	13.6410
 2.3840	13.6030
 2.3850	13.5550
 2.3860	13.5040
 2.3870	13.4520
 2.3880	13.3940
 2.3890	13.3510
 2.3900	13.3120
 2.3910	13.2730
 2.3920	13.2300
 2.3930	13.1780
 2.3940	13.1240
 2.3950	13.0720
 2.3960	13.0240
 2.3970	12.9770
 2.3980	12.9320
 2.3990	12.8910
 2.4000	12.8570
 2.4010	12.8170
 2.4020	12.7800
 2.4030	12.7500
 2.4040	12.7140
 2.4050	12.6750
 2.4060	12.6310
 2.4070	12.5870
 2.4080	12.5320
 2.4090	12.4830
 2.4100	12.4490
 2.4110	12.4000
 2.4120	12.3560
 2.4130	12.3180
 2.4140	12.2600
 2.4150	12.2080
 2.4160	12.1460
 2.4170	12.0780
 2.4180	12.0320
 2.4190	11.9890
 2.4200	11.9560
 2.4210	11.9290
 2.4220	11.8820
 2.4230	11.8280
 2.4240	11.7730
 2.4250	11.7190
 2.4260	11.6650
 2.4270	11.6090
 2.4280	11.5640
 2.4290	11.5080
 2.4300	11.4480
 2.4310	11.4100
 2.4320	11.3630
 2.4330	11.3060
 2.4340	11.2690
 2.4350	11.2180
 2.4360	11.1630
 2.4370	11.1380
 2.4380	11.1030
 2.4390	11.0680
 2.4400	11.0130
 2.4410	10.9400
 2.4420	10.8870
 2.4430	10.8080
 2.4440	10.7530
 2.4450	10.7120
 2.4460	10.6560
 2.4470	10.6250
 2.4480	10.5840
 2.4490	10.5400
 2.4500	10.5040
 2.4510	10.4700
 2.4520	10.4480
 2.4530	10.4120
 2.4540	10.3700
 2.4550	10.3330
 2.4560	10.2680
 2.4570	10.2000
 2.4580	10.1410
 2.4590	10.0680
 2.4600	10.0180
 2.4610	 9.9800
 2.4620	 9.9400
 2.4630	 9.8860
 2.4640	 9.8340
 2.4650	 9.8140
 2.4660	 9.7690
 2.4670	 9.7340
 2.4680	 9.7140
 2.4690	 9.6720
 2.4700	 9.6390
 2.4710	 9.6190
 2.4720	 9.5810
 2.4730	 9.5300
 2.4740	 9.4920
 2.4750	 9.4440
 2.4760	 9.4030
 2.4770	 9.3760
 2.4780	 9.3490
 2.4790	 9.3200
 2.4800	 9.3000
 2.4810	 9.2970
 2.4820	 9.2620
 2.4830	 9.2430
 2.4840	 9.2120
 2.4850	 9.1750
 2.4860	 9.1560
 2.4870	 9.1430
 2.4880	 9.0840
 2.4890	 8.9970
 2.4900	 8.9480
 2.4910	 8.9160
 2.4920	 8.9290
 2.4930	 8.9630
 2.4940	 8.9180
 2.4950	 8.8210
 2.4960	 8.8000
 2.4970	 8.8360
 2.4980	 8.8660
 2.4990	 8.9080
 2.5000	 8.8720
