Name: Ceanothus megacarpus 2
Type: vegetation
Class: Shrub
Genus: Ceanothus
Species: megacarpus
Sample No.: VH141
Owner: UCSB
Wavelength Range: VSWIR
Origin: 34.4909; -119.7914; WGS84
Collection Date: 6/3/2013
Description: Samples were collected as part of the HyspIRI Airborne Campaign. 48 individual plants were sampled in three times in 2013 - spring  summer  and fall. The name of the sample includes a 1  2  or 3 which references a different individual of the species. Samples were taken to JPL and processed within 48 hours of collection. The same leaves were processed in the Nicolet and then measured using the ASD.
Measurement: Bidirectional reflectance
First Column: X
Second Column: Y
X Units: Wavelength (micrometers)
Y Units: Reflectance (percentage)
First X Value: 0.35
Last X Value: 2.5
Number of X Values: 2151
Additional Information: vegetation.shrub.ceanothus.megacarpus.vswir.vh141.ucsb.asd.ancillary.txt

 0.3500	 4.2330
 0.3510	 4.0430
 0.3520	 4.0720
 0.3530	 4.1670
 0.3540	 4.1420
 0.3550	 4.0540
 0.3560	 4.0270
 0.3570	 4.1390
 0.3580	 4.3700
 0.3590	 4.1450
 0.3600	 3.9160
 0.3610	 3.9430
 0.3620	 4.0870
 0.3630	 4.1340
 0.3640	 4.0610
 0.3650	 3.9550
 0.3660	 4.0710
 0.3670	 4.1610
 0.3680	 4.1400
 0.3690	 4.0530
 0.3700	 3.9770
 0.3710	 3.9900
 0.3720	 4.0760
 0.3730	 4.0650
 0.3740	 4.0730
 0.3750	 4.0480
 0.3760	 3.9330
 0.3770	 3.8960
 0.3780	 3.9800
 0.3790	 4.0900
 0.3800	 4.0330
 0.3810	 3.9680
 0.3820	 3.9380
 0.3830	 3.9500
 0.3840	 4.0010
 0.3850	 4.0120
 0.3860	 4.0000
 0.3870	 4.0030
 0.3880	 3.9610
 0.3890	 3.9540
 0.3900	 3.9880
 0.3910	 3.9800
 0.3920	 3.9440
 0.3930	 3.9250
 0.3940	 3.9480
 0.3950	 3.9690
 0.3960	 3.9800
 0.3970	 3.9810
 0.3980	 3.9830
 0.3990	 3.9960
 0.4000	 4.0000
 0.4010	 3.9860
 0.4020	 3.9540
 0.4030	 3.9370
 0.4040	 3.9490
 0.4050	 3.9810
 0.4060	 3.9670
 0.4070	 3.9700
 0.4080	 3.9910
 0.4090	 3.9900
 0.4100	 3.9680
 0.4110	 3.9870
 0.4120	 4.0480
 0.4130	 4.0380
 0.4140	 4.0500
 0.4150	 4.0710
 0.4160	 4.0660
 0.4170	 4.0680
 0.4180	 4.0800
 0.4190	 4.1010
 0.4200	 4.1260
 0.4210	 4.1440
 0.4220	 4.1620
 0.4230	 4.1880
 0.4240	 4.2110
 0.4250	 4.2440
 0.4260	 4.2800
 0.4270	 4.3100
 0.4280	 4.3350
 0.4290	 4.3540
 0.4300	 4.3700
 0.4310	 4.3910
 0.4320	 4.4330
 0.4330	 4.4780
 0.4340	 4.5000
 0.4350	 4.4950
 0.4360	 4.5160
 0.4370	 4.5540
 0.4380	 4.5530
 0.4390	 4.5630
 0.4400	 4.5790
 0.4410	 4.5930
 0.4420	 4.6080
 0.4430	 4.6310
 0.4440	 4.6510
 0.4450	 4.6510
 0.4460	 4.6700
 0.4470	 4.6930
 0.4480	 4.7090
 0.4490	 4.7110
 0.4500	 4.7220
 0.4510	 4.7430
 0.4520	 4.7660
 0.4530	 4.7660
 0.4540	 4.7800
 0.4550	 4.8010
 0.4560	 4.8030
 0.4570	 4.8180
 0.4580	 4.8390
 0.4590	 4.8530
 0.4600	 4.8450
 0.4610	 4.8440
 0.4620	 4.8570
 0.4630	 4.8780
 0.4640	 4.8820
 0.4650	 4.8820
 0.4660	 4.8860
 0.4670	 4.8940
 0.4680	 4.9100
 0.4690	 4.9160
 0.4700	 4.9050
 0.4710	 4.9180
 0.4720	 4.9220
 0.4730	 4.9190
 0.4740	 4.9220
 0.4750	 4.9170
 0.4760	 4.9160
 0.4770	 4.9240
 0.4780	 4.9350
 0.4790	 4.9380
 0.4800	 4.9340
 0.4810	 4.9300
 0.4820	 4.9430
 0.4830	 4.9520
 0.4840	 4.9550
 0.4850	 4.9730
 0.4860	 4.9860
 0.4870	 4.9960
 0.4880	 5.0080
 0.4890	 5.0280
 0.4900	 5.0450
 0.4910	 5.0590
 0.4920	 5.0760
 0.4930	 5.0920
 0.4940	 5.1130
 0.4950	 5.1430
 0.4960	 5.1790
 0.4970	 5.2070
 0.4980	 5.2340
 0.4990	 5.2690
 0.5000	 5.3120
 0.5010	 5.3540
 0.5020	 5.3970
 0.5030	 5.4450
 0.5040	 5.4980
 0.5050	 5.5590
 0.5060	 5.6260
 0.5070	 5.6940
 0.5080	 5.7670
 0.5090	 5.8470
 0.5100	 5.9350
 0.5110	 6.0340
 0.5120	 6.1400
 0.5130	 6.2520
 0.5140	 6.3750
 0.5150	 6.5030
 0.5160	 6.6370
 0.5170	 6.7780
 0.5180	 6.9290
 0.5190	 7.0830
 0.5200	 7.2380
 0.5210	 7.3960
 0.5220	 7.5660
 0.5230	 7.7340
 0.5240	 7.8940
 0.5250	 8.0550
 0.5260	 8.2130
 0.5270	 8.3630
 0.5280	 8.5040
 0.5290	 8.6350
 0.5300	 8.7640
 0.5310	 8.8880
 0.5320	 8.9980
 0.5330	 9.1050
 0.5340	 9.2010
 0.5350	 9.2820
 0.5360	 9.3630
 0.5370	 9.4360
 0.5380	 9.5020
 0.5390	 9.5680
 0.5400	 9.6290
 0.5410	 9.6920
 0.5420	 9.7580
 0.5430	 9.8150
 0.5440	 9.8700
 0.5450	 9.9190
 0.5460	 9.9530
 0.5470	 9.9700
 0.5480	 9.9850
 0.5490	10.0070
 0.5500	10.0300
 0.5510	10.0490
 0.5520	10.0610
 0.5530	10.0650
 0.5540	10.0550
 0.5550	10.0380
 0.5560	10.0140
 0.5570	 9.9760
 0.5580	 9.9280
 0.5590	 9.8730
 0.5600	 9.8120
 0.5610	 9.7400
 0.5620	 9.6600
 0.5630	 9.5760
 0.5640	 9.4920
 0.5650	 9.4050
 0.5660	 9.3220
 0.5670	 9.2400
 0.5680	 9.1490
 0.5690	 9.0520
 0.5700	 8.9520
 0.5710	 8.8550
 0.5720	 8.7670
 0.5730	 8.6820
 0.5740	 8.5950
 0.5750	 8.5030
 0.5760	 8.4180
 0.5770	 8.3400
 0.5780	 8.2680
 0.5790	 8.1900
 0.5800	 8.1160
 0.5810	 8.0520
 0.5820	 8.0000
 0.5830	 7.9600
 0.5840	 7.9260
 0.5850	 7.8930
 0.5860	 7.8550
 0.5870	 7.8190
 0.5880	 7.7820
 0.5890	 7.7450
 0.5900	 7.7090
 0.5910	 7.6820
 0.5920	 7.6660
 0.5930	 7.6570
 0.5940	 7.6380
 0.5950	 7.6180
 0.5960	 7.5990
 0.5970	 7.5760
 0.5980	 7.5610
 0.5990	 7.5490
 0.6000	 7.5320
 0.6010	 7.5140
 0.6020	 7.4910
 0.6030	 7.4600
 0.6040	 7.4210
 0.6050	 7.3810
 0.6060	 7.3400
 0.6070	 7.2940
 0.6080	 7.2450
 0.6090	 7.1980
 0.6100	 7.1590
 0.6110	 7.1280
 0.6120	 7.0780
 0.6130	 7.0150
 0.6140	 6.9490
 0.6150	 6.8920
 0.6160	 6.8390
 0.6170	 6.7950
 0.6180	 6.7600
 0.6190	 6.7250
 0.6200	 6.6930
 0.6210	 6.6650
 0.6220	 6.6380
 0.6230	 6.6160
 0.6240	 6.5960
 0.6250	 6.5770
 0.6260	 6.5700
 0.6270	 6.5630
 0.6280	 6.5540
 0.6290	 6.5480
 0.6300	 6.5430
 0.6310	 6.5410
 0.6320	 6.5370
 0.6330	 6.5240
 0.6340	 6.5090
 0.6350	 6.4890
 0.6360	 6.4620
 0.6370	 6.4340
 0.6380	 6.4000
 0.6390	 6.3600
 0.6400	 6.3140
 0.6410	 6.2660
 0.6420	 6.2140
 0.6430	 6.1580
 0.6440	 6.1050
 0.6450	 6.0490
 0.6460	 5.9940
 0.6470	 5.9440
 0.6480	 5.8970
 0.6490	 5.8520
 0.6500	 5.8120
 0.6510	 5.7780
 0.6520	 5.7480
 0.6530	 5.7190
 0.6540	 5.6870
 0.6550	 5.6520
 0.6560	 5.6180
 0.6570	 5.5810
 0.6580	 5.5390
 0.6590	 5.4960
 0.6600	 5.4530
 0.6610	 5.4080
 0.6620	 5.3650
 0.6630	 5.3260
 0.6640	 5.2910
 0.6650	 5.2560
 0.6660	 5.2280
 0.6670	 5.2040
 0.6680	 5.1850
 0.6690	 5.1700
 0.6700	 5.1580
 0.6710	 5.1510
 0.6720	 5.1500
 0.6730	 5.1530
 0.6740	 5.1570
 0.6750	 5.1640
 0.6760	 5.1760
 0.6770	 5.1900
 0.6780	 5.2070
 0.6790	 5.2280
 0.6800	 5.2550
 0.6810	 5.2870
 0.6820	 5.3250
 0.6830	 5.3710
 0.6840	 5.4260
 0.6850	 5.4930
 0.6860	 5.5750
 0.6870	 5.6740
 0.6880	 5.7990
 0.6890	 5.9510
 0.6900	 6.1340
 0.6910	 6.3550
 0.6920	 6.6210
 0.6930	 6.9350
 0.6940	 7.2980
 0.6950	 7.7100
 0.6960	 8.1730
 0.6970	 8.6860
 0.6980	 9.2460
 0.6990	 9.8510
 0.7000	10.4960
 0.7010	11.1760
 0.7020	11.8880
 0.7030	12.6290
 0.7040	13.3910
 0.7050	14.1690
 0.7060	14.9610
 0.7070	15.7630
 0.7080	16.5740
 0.7090	17.3940
 0.7100	18.2180
 0.7110	19.0450
 0.7120	19.8750
 0.7130	20.7080
 0.7140	21.5370
 0.7150	22.3670
 0.7160	23.1960
 0.7170	24.0170
 0.7180	24.8310
 0.7190	25.6360
 0.7200	26.4320
 0.7210	27.2130
 0.7220	27.9800
 0.7230	28.7350
 0.7240	29.4680
 0.7250	30.1760
 0.7260	30.8600
 0.7270	31.5210
 0.7280	32.1560
 0.7290	32.7680
 0.7300	33.3560
 0.7310	33.9140
 0.7320	34.4450
 0.7330	34.9510
 0.7340	35.4330
 0.7350	35.8880
 0.7360	36.3160
 0.7370	36.7210
 0.7380	37.1040
 0.7390	37.4670
 0.7400	37.8030
 0.7410	38.1170
 0.7420	38.4140
 0.7430	38.6900
 0.7440	38.9490
 0.7450	39.1890
 0.7460	39.4070
 0.7470	39.6090
 0.7480	39.7970
 0.7490	39.9720
 0.7500	40.1300
 0.7510	40.2760
 0.7520	40.4110
 0.7530	40.5350
 0.7540	40.6460
 0.7550	40.7470
 0.7560	40.8400
 0.7570	40.9300
 0.7580	41.0100
 0.7590	41.0830
 0.7600	41.1520
 0.7610	41.2130
 0.7620	41.2680
 0.7630	41.3210
 0.7640	41.3730
 0.7650	41.4130
 0.7660	41.4510
 0.7670	41.4890
 0.7680	41.5230
 0.7690	41.5540
 0.7700	41.5830
 0.7710	41.6130
 0.7720	41.6420
 0.7730	41.6690
 0.7740	41.6920
 0.7750	41.7130
 0.7760	41.7410
 0.7770	41.7630
 0.7780	41.7810
 0.7790	41.7990
 0.7800	41.8230
 0.7810	41.8460
 0.7820	41.8650
 0.7830	41.8800
 0.7840	41.9030
 0.7850	41.9260
 0.7860	41.9440
 0.7870	41.9620
 0.7880	41.9800
 0.7890	41.9960
 0.7900	42.0080
 0.7910	42.0250
 0.7920	42.0430
 0.7930	42.0600
 0.7940	42.0730
 0.7950	42.0820
 0.7960	42.0930
 0.7970	42.1050
 0.7980	42.1150
 0.7990	42.1220
 0.8000	42.1290
 0.8010	42.1390
 0.8020	42.1500
 0.8030	42.1580
 0.8040	42.1640
 0.8050	42.1720
 0.8060	42.1730
 0.8070	42.1740
 0.8080	42.1790
 0.8090	42.1850
 0.8100	42.1890
 0.8110	42.1880
 0.8120	42.1820
 0.8130	42.1820
 0.8140	42.1860
 0.8150	42.1860
 0.8160	42.1810
 0.8170	42.1820
 0.8180	42.1780
 0.8190	42.1720
 0.8200	42.1680
 0.8210	42.1630
 0.8220	42.1600
 0.8230	42.1550
 0.8240	42.1460
 0.8250	42.1430
 0.8260	42.1390
 0.8270	42.1260
 0.8280	42.1170
 0.8290	42.1100
 0.8300	42.1010
 0.8310	42.0880
 0.8320	42.0800
 0.8330	42.0720
 0.8340	42.0620
 0.8350	42.0550
 0.8360	42.0460
 0.8370	42.0420
 0.8380	42.0390
 0.8390	42.0280
 0.8400	42.0270
 0.8410	42.0280
 0.8420	42.0280
 0.8430	42.0260
 0.8440	42.0200
 0.8450	42.0170
 0.8460	42.0210
 0.8470	42.0240
 0.8480	42.0230
 0.8490	42.0190
 0.8500	42.0200
 0.8510	42.0200
 0.8520	42.0190
 0.8530	42.0190
 0.8540	42.0230
 0.8550	42.0250
 0.8560	42.0260
 0.8570	42.0270
 0.8580	42.0280
 0.8590	42.0300
 0.8600	42.0310
 0.8610	42.0320
 0.8620	42.0360
 0.8630	42.0370
 0.8640	42.0370
 0.8650	42.0400
 0.8660	42.0470
 0.8670	42.0500
 0.8680	42.0530
 0.8690	42.0620
 0.8700	42.0670
 0.8710	42.0700
 0.8720	42.0740
 0.8730	42.0860
 0.8740	42.0930
 0.8750	42.1000
 0.8760	42.1080
 0.8770	42.1120
 0.8780	42.1210
 0.8790	42.1290
 0.8800	42.1310
 0.8810	42.1350
 0.8820	42.1370
 0.8830	42.1420
 0.8840	42.1510
 0.8850	42.1560
 0.8860	42.1610
 0.8870	42.1660
 0.8880	42.1710
 0.8890	42.1690
 0.8900	42.1700
 0.8910	42.1730
 0.8920	42.1730
 0.8930	42.1730
 0.8940	42.1790
 0.8950	42.1880
 0.8960	42.1900
 0.8970	42.1940
 0.8980	42.1960
 0.8990	42.1960
 0.9000	42.1950
 0.9010	42.2040
 0.9020	42.2120
 0.9030	42.2110
 0.9040	42.2060
 0.9050	42.2020
 0.9060	42.2050
 0.9070	42.2140
 0.9080	42.2140
 0.9090	42.2110
 0.9100	42.2160
 0.9110	42.2270
 0.9120	42.2170
 0.9130	42.2110
 0.9140	42.2100
 0.9150	42.2100
 0.9160	42.2140
 0.9170	42.2090
 0.9180	42.2020
 0.9190	42.2080
 0.9200	42.2140
 0.9210	42.2070
 0.9220	42.1920
 0.9230	42.1840
 0.9240	42.1660
 0.9250	42.1480
 0.9260	42.1330
 0.9270	42.1220
 0.9280	42.1050
 0.9290	42.0840
 0.9300	42.0580
 0.9310	42.0240
 0.9320	42.0050
 0.9330	41.9890
 0.9340	41.9620
 0.9350	41.9240
 0.9360	41.8830
 0.9370	41.8500
 0.9380	41.8250
 0.9390	41.7900
 0.9400	41.7550
 0.9410	41.7160
 0.9420	41.6710
 0.9430	41.6250
 0.9440	41.5770
 0.9450	41.5260
 0.9460	41.4690
 0.9470	41.4110
 0.9480	41.3400
 0.9490	41.2630
 0.9500	41.1880
 0.9510	41.1100
 0.9520	41.0150
 0.9530	40.9200
 0.9540	40.8370
 0.9550	40.7410
 0.9560	40.6490
 0.9570	40.5530
 0.9580	40.4440
 0.9590	40.3460
 0.9600	40.2740
 0.9610	40.2190
 0.9620	40.1610
 0.9630	40.0990
 0.9640	40.0390
 0.9650	39.9770
 0.9660	39.9160
 0.9670	39.8970
 0.9680	39.8730
 0.9690	39.8400
 0.9700	39.8120
 0.9710	39.7730
 0.9720	39.7530
 0.9730	39.7440
 0.9740	39.7260
 0.9750	39.7020
 0.9760	39.6830
 0.9770	39.6750
 0.9780	39.6780
 0.9790	39.6800
 0.9800	39.6730
 0.9810	39.6730
 0.9820	39.6920
 0.9830	39.6960
 0.9840	39.7010
 0.9850	39.7200
 0.9860	39.7510
 0.9870	39.7630
 0.9880	39.7820
 0.9890	39.8130
 0.9900	39.8450
 0.9910	39.8750
 0.9920	39.9460
 0.9930	40.0170
 0.9940	40.0870
 0.9950	40.1580
 0.9960	40.2290
 0.9970	40.3000
 0.9980	40.3700
 0.9990	40.4410
 1.0000	40.5120
 1.0010	40.5830
 1.0020	40.6540
 1.0030	40.7240
 1.0040	40.7950
 1.0050	40.8660
 1.0060	40.9370
 1.0070	41.0080
 1.0080	41.0780
 1.0090	41.1490
 1.0100	41.1490
 1.0110	41.1820
 1.0120	41.2180
 1.0130	41.2550
 1.0140	41.2920
 1.0150	41.3320
 1.0160	41.3710
 1.0170	41.4060
 1.0180	41.4370
 1.0190	41.4670
 1.0200	41.4960
 1.0210	41.5260
 1.0220	41.5590
 1.0230	41.5930
 1.0240	41.6300
 1.0250	41.6640
 1.0260	41.7020
 1.0270	41.7350
 1.0280	41.7640
 1.0290	41.7950
 1.0300	41.8250
 1.0310	41.8550
 1.0320	41.8860
 1.0330	41.9120
 1.0340	41.9390
 1.0350	41.9660
 1.0360	41.9900
 1.0370	42.0200
 1.0380	42.0490
 1.0390	42.0820
 1.0400	42.1090
 1.0410	42.1390
 1.0420	42.1620
 1.0430	42.1760
 1.0440	42.1960
 1.0450	42.2160
 1.0460	42.2360
 1.0470	42.2560
 1.0480	42.2760
 1.0490	42.2950
 1.0500	42.3130
 1.0510	42.3320
 1.0520	42.3470
 1.0530	42.3630
 1.0540	42.3780
 1.0550	42.3930
 1.0560	42.4090
 1.0570	42.4220
 1.0580	42.4300
 1.0590	42.4410
 1.0600	42.4490
 1.0610	42.4600
 1.0620	42.4750
 1.0630	42.4850
 1.0640	42.4960
 1.0650	42.5030
 1.0660	42.5050
 1.0670	42.5090
 1.0680	42.5130
 1.0690	42.5180
 1.0700	42.5190
 1.0710	42.5200
 1.0720	42.5190
 1.0730	42.5130
 1.0740	42.5110
 1.0750	42.5120
 1.0760	42.5100
 1.0770	42.5070
 1.0780	42.5040
 1.0790	42.5000
 1.0800	42.4950
 1.0810	42.4910
 1.0820	42.4860
 1.0830	42.4790
 1.0840	42.4730
 1.0850	42.4670
 1.0860	42.4600
 1.0870	42.4520
 1.0880	42.4430
 1.0890	42.4340
 1.0900	42.4260
 1.0910	42.4150
 1.0920	42.4030
 1.0930	42.3910
 1.0940	42.3770
 1.0950	42.3650
 1.0960	42.3550
 1.0970	42.3420
 1.0980	42.3270
 1.0990	42.3110
 1.1000	42.2930
 1.1010	42.2760
 1.1020	42.2610
 1.1030	42.2430
 1.1040	42.2240
 1.1050	42.2060
 1.1060	42.1870
 1.1070	42.1670
 1.1080	42.1450
 1.1090	42.1240
 1.1100	42.0990
 1.1110	42.0700
 1.1120	42.0410
 1.1130	42.0100
 1.1140	41.9760
 1.1150	41.9410
 1.1160	41.9030
 1.1170	41.8650
 1.1180	41.8210
 1.1190	41.7730
 1.1200	41.7230
 1.1210	41.6700
 1.1220	41.6110
 1.1230	41.5490
 1.1240	41.4800
 1.1250	41.4050
 1.1260	41.3230
 1.1270	41.2360
 1.1280	41.1450
 1.1290	41.0460
 1.1300	40.9410
 1.1310	40.8260
 1.1320	40.7030
 1.1330	40.5740
 1.1340	40.4380
 1.1350	40.2950
 1.1360	40.1460
 1.1370	39.9880
 1.1380	39.8190
 1.1390	39.6430
 1.1400	39.4570
 1.1410	39.2690
 1.1420	39.0800
 1.1430	38.8850
 1.1440	38.6900
 1.1450	38.4920
 1.1460	38.2970
 1.1470	38.0980
 1.1480	37.9090
 1.1490	37.7200
 1.1500	37.5440
 1.1510	37.3710
 1.1520	37.2110
 1.1530	37.0580
 1.1540	36.9170
 1.1550	36.7850
 1.1560	36.6670
 1.1570	36.5610
 1.1580	36.4650
 1.1590	36.3820
 1.1600	36.3060
 1.1610	36.2380
 1.1620	36.1830
 1.1630	36.1330
 1.1640	36.0900
 1.1650	36.0540
 1.1660	36.0260
 1.1670	36.0000
 1.1680	35.9820
 1.1690	35.9620
 1.1700	35.9460
 1.1710	35.9310
 1.1720	35.9160
 1.1730	35.9020
 1.1740	35.8900
 1.1750	35.8790
 1.1760	35.8670
 1.1770	35.8520
 1.1780	35.8370
 1.1790	35.8200
 1.1800	35.8030
 1.1810	35.7850
 1.1820	35.7660
 1.1830	35.7450
 1.1840	35.7240
 1.1850	35.7060
 1.1860	35.6890
 1.1870	35.6720
 1.1880	35.6560
 1.1890	35.6410
 1.1900	35.6270
 1.1910	35.6130
 1.1920	35.6030
 1.1930	35.5980
 1.1940	35.5920
 1.1950	35.5880
 1.1960	35.5840
 1.1970	35.5810
 1.1980	35.5800
 1.1990	35.5850
 1.2000	35.5930
 1.2010	35.6030
 1.2020	35.6160
 1.2030	35.6310
 1.2040	35.6480
 1.2050	35.6670
 1.2060	35.6850
 1.2070	35.7060
 1.2080	35.7290
 1.2090	35.7570
 1.2100	35.7880
 1.2110	35.8200
 1.2120	35.8540
 1.2130	35.8900
 1.2140	35.9290
 1.2150	35.9680
 1.2160	36.0090
 1.2170	36.0500
 1.2180	36.0920
 1.2190	36.1340
 1.2200	36.1790
 1.2210	36.2240
 1.2220	36.2670
 1.2230	36.3110
 1.2240	36.3530
 1.2250	36.3940
 1.2260	36.4370
 1.2270	36.4790
 1.2280	36.5190
 1.2290	36.5620
 1.2300	36.6010
 1.2310	36.6380
 1.2320	36.6750
 1.2330	36.7100
 1.2340	36.7440
 1.2350	36.7780
 1.2360	36.8110
 1.2370	36.8420
 1.2380	36.8730
 1.2390	36.9030
 1.2400	36.9320
 1.2410	36.9600
 1.2420	36.9840
 1.2430	37.0100
 1.2440	37.0340
 1.2450	37.0590
 1.2460	37.0850
 1.2470	37.1080
 1.2480	37.1290
 1.2490	37.1490
 1.2500	37.1670
 1.2510	37.1860
 1.2520	37.2020
 1.2530	37.2140
 1.2540	37.2290
 1.2550	37.2430
 1.2560	37.2530
 1.2570	37.2650
 1.2580	37.2740
 1.2590	37.2820
 1.2600	37.2880
 1.2610	37.2940
 1.2620	37.2990
 1.2630	37.3030
 1.2640	37.3040
 1.2650	37.3020
 1.2660	37.3010
 1.2670	37.3000
 1.2680	37.3010
 1.2690	37.3040
 1.2700	37.3010
 1.2710	37.2970
 1.2720	37.2900
 1.2730	37.2800
 1.2740	37.2730
 1.2750	37.2640
 1.2760	37.2520
 1.2770	37.2400
 1.2780	37.2260
 1.2790	37.2110
 1.2800	37.1960
 1.2810	37.1770
 1.2820	37.1560
 1.2830	37.1310
 1.2840	37.1030
 1.2850	37.0750
 1.2860	37.0440
 1.2870	37.0090
 1.2880	36.9710
 1.2890	36.9290
 1.2900	36.8840
 1.2910	36.8350
 1.2920	36.7850
 1.2930	36.7320
 1.2940	36.6730
 1.2950	36.6120
 1.2960	36.5490
 1.2970	36.4800
 1.2980	36.4110
 1.2990	36.3400
 1.3000	36.2630
 1.3010	36.1820
 1.3020	36.0980
 1.3030	36.0090
 1.3040	35.9180
 1.3050	35.8240
 1.3060	35.7260
 1.3070	35.6240
 1.3080	35.5190
 1.3090	35.4120
 1.3100	35.3000
 1.3110	35.1850
 1.3120	35.0640
 1.3130	34.9390
 1.3140	34.8130
 1.3150	34.6840
 1.3160	34.5500
 1.3170	34.4140
 1.3180	34.2740
 1.3190	34.1290
 1.3200	33.9800
 1.3210	33.8290
 1.3220	33.6730
 1.3230	33.5130
 1.3240	33.3510
 1.3250	33.1850
 1.3260	33.0160
 1.3270	32.8460
 1.3280	32.6720
 1.3290	32.4930
 1.3300	32.3140
 1.3310	32.1330
 1.3320	31.9470
 1.3330	31.7650
 1.3340	31.5820
 1.3350	31.3970
 1.3360	31.2120
 1.3370	31.0250
 1.3380	30.8370
 1.3390	30.6510
 1.3400	30.4660
 1.3410	30.2850
 1.3420	30.1050
 1.3430	29.9250
 1.3440	29.7470
 1.3450	29.5710
 1.3460	29.3940
 1.3470	29.2220
 1.3480	29.0510
 1.3490	28.8840
 1.3500	28.7210
 1.3510	28.5580
 1.3520	28.3980
 1.3530	28.2370
 1.3540	28.0760
 1.3550	27.9160
 1.3560	27.7560
 1.3570	27.5970
 1.3580	27.4380
 1.3590	27.2780
 1.3600	27.1140
 1.3610	26.9480
 1.3620	26.7760
 1.3630	26.6010
 1.3640	26.4200
 1.3650	26.2310
 1.3660	26.0390
 1.3670	25.8370
 1.3680	25.6240
 1.3690	25.4020
 1.3700	25.1670
 1.3710	24.9190
 1.3720	24.6600
 1.3730	24.3850
 1.3740	24.0960
 1.3750	23.7910
 1.3760	23.4670
 1.3770	23.1250
 1.3780	22.7590
 1.3790	22.3760
 1.3800	21.9740
 1.3810	21.5510
 1.3820	21.1170
 1.3830	20.6690
 1.3840	20.2080
 1.3850	19.7330
 1.3860	19.2510
 1.3870	18.7520
 1.3880	18.2580
 1.3890	17.7580
 1.3900	17.2550
 1.3910	16.7610
 1.3920	16.2680
 1.3930	15.7770
 1.3940	15.2960
 1.3950	14.8190
 1.3960	14.3550
 1.3970	13.9060
 1.3980	13.4710
 1.3990	13.0580
 1.4000	12.6600
 1.4010	12.2780
 1.4020	11.9170
 1.4030	11.5720
 1.4040	11.2450
 1.4050	10.9400
 1.4060	10.6540
 1.4070	10.3880
 1.4080	10.1400
 1.4090	 9.9080
 1.4100	 9.6940
 1.4110	 9.4950
 1.4120	 9.3120
 1.4130	 9.1440
 1.4140	 8.9900
 1.4150	 8.8500
 1.4160	 8.7220
 1.4170	 8.6040
 1.4180	 8.4980
 1.4190	 8.4010
 1.4200	 8.3130
 1.4210	 8.2330
 1.4220	 8.1610
 1.4230	 8.0960
 1.4240	 8.0370
 1.4250	 7.9840
 1.4260	 7.9380
 1.4270	 7.8960
 1.4280	 7.8600
 1.4290	 7.8280
 1.4300	 7.8010
 1.4310	 7.7770
 1.4320	 7.7570
 1.4330	 7.7400
 1.4340	 7.7270
 1.4350	 7.7160
 1.4360	 7.7070
 1.4370	 7.7010
 1.4380	 7.6970
 1.4390	 7.6950
 1.4400	 7.6950
 1.4410	 7.6970
 1.4420	 7.7010
 1.4430	 7.7070
 1.4440	 7.7140
 1.4450	 7.7230
 1.4460	 7.7320
 1.4470	 7.7420
 1.4480	 7.7520
 1.4490	 7.7630
 1.4500	 7.7750
 1.4510	 7.7880
 1.4520	 7.8000
 1.4530	 7.8140
 1.4540	 7.8290
 1.4550	 7.8440
 1.4560	 7.8610
 1.4570	 7.8790
 1.4580	 7.8990
 1.4590	 7.9200
 1.4600	 7.9420
 1.4610	 7.9660
 1.4620	 7.9920
 1.4630	 8.0210
 1.4640	 8.0510
 1.4650	 8.0830
 1.4660	 8.1180
 1.4670	 8.1560
 1.4680	 8.1960
 1.4690	 8.2390
 1.4700	 8.2830
 1.4710	 8.3310
 1.4720	 8.3820
 1.4730	 8.4360
 1.4740	 8.4930
 1.4750	 8.5510
 1.4760	 8.6120
 1.4770	 8.6740
 1.4780	 8.7360
 1.4790	 8.8010
 1.4800	 8.8660
 1.4810	 8.9330
 1.4820	 9.0030
 1.4830	 9.0720
 1.4840	 9.1430
 1.4850	 9.2140
 1.4860	 9.2860
 1.4870	 9.3600
 1.4880	 9.4340
 1.4890	 9.5080
 1.4900	 9.5830
 1.4910	 9.6590
 1.4920	 9.7350
 1.4930	 9.8120
 1.4940	 9.8890
 1.4950	 9.9660
 1.4960	10.0430
 1.4970	10.1200
 1.4980	10.1990
 1.4990	10.2770
 1.5000	10.3560
 1.5010	10.4360
 1.5020	10.5150
 1.5030	10.5940
 1.5040	10.6730
 1.5050	10.7520
 1.5060	10.8320
 1.5070	10.9120
 1.5080	10.9910
 1.5090	11.0710
 1.5100	11.1500
 1.5110	11.2280
 1.5120	11.3070
 1.5130	11.3850
 1.5140	11.4640
 1.5150	11.5430
 1.5160	11.6210
 1.5170	11.6990
 1.5180	11.7760
 1.5190	11.8520
 1.5200	11.9290
 1.5210	12.0050
 1.5220	12.0820
 1.5230	12.1590
 1.5240	12.2340
 1.5250	12.3090
 1.5260	12.3840
 1.5270	12.4580
 1.5280	12.5320
 1.5290	12.6050
 1.5300	12.6770
 1.5310	12.7500
 1.5320	12.8220
 1.5330	12.8940
 1.5340	12.9650
 1.5350	13.0350
 1.5360	13.1060
 1.5370	13.1740
 1.5380	13.2430
 1.5390	13.3140
 1.5400	13.3820
 1.5410	13.4490
 1.5420	13.5170
 1.5430	13.5840
 1.5440	13.6510
 1.5450	13.7170
 1.5460	13.7830
 1.5470	13.8470
 1.5480	13.9110
 1.5490	13.9760
 1.5500	14.0400
 1.5510	14.1040
 1.5520	14.1690
 1.5530	14.2310
 1.5540	14.2940
 1.5550	14.3560
 1.5560	14.4160
 1.5570	14.4770
 1.5580	14.5370
 1.5590	14.5970
 1.5600	14.6570
 1.5610	14.7160
 1.5620	14.7730
 1.5630	14.8310
 1.5640	14.8870
 1.5650	14.9440
 1.5660	15.0000
 1.5670	15.0550
 1.5680	15.1110
 1.5690	15.1660
 1.5700	15.2200
 1.5710	15.2740
 1.5720	15.3290
 1.5730	15.3840
 1.5740	15.4390
 1.5750	15.4930
 1.5760	15.5480
 1.5770	15.6020
 1.5780	15.6560
 1.5790	15.7090
 1.5800	15.7620
 1.5810	15.8150
 1.5820	15.8680
 1.5830	15.9190
 1.5840	15.9720
 1.5850	16.0230
 1.5860	16.0750
 1.5870	16.1270
 1.5880	16.1790
 1.5890	16.2310
 1.5900	16.2820
 1.5910	16.3330
 1.5920	16.3840
 1.5930	16.4330
 1.5940	16.4830
 1.5950	16.5340
 1.5960	16.5840
 1.5970	16.6350
 1.5980	16.6860
 1.5990	16.7340
 1.6000	16.7820
 1.6010	16.8300
 1.6020	16.8770
 1.6030	16.9250
 1.6040	16.9720
 1.6050	17.0190
 1.6060	17.0650
 1.6070	17.1110
 1.6080	17.1570
 1.6090	17.2010
 1.6100	17.2450
 1.6110	17.2900
 1.6120	17.3330
 1.6130	17.3760
 1.6140	17.4180
 1.6150	17.4600
 1.6160	17.4990
 1.6170	17.5370
 1.6180	17.5770
 1.6190	17.6150
 1.6200	17.6520
 1.6210	17.6910
 1.6220	17.7290
 1.6230	17.7650
 1.6240	17.8000
 1.6250	17.8330
 1.6260	17.8650
 1.6270	17.8970
 1.6280	17.9280
 1.6290	17.9580
 1.6300	17.9880
 1.6310	18.0160
 1.6320	18.0430
 1.6330	18.0680
 1.6340	18.0930
 1.6350	18.1160
 1.6360	18.1370
 1.6370	18.1550
 1.6380	18.1700
 1.6390	18.1850
 1.6400	18.1980
 1.6410	18.2080
 1.6420	18.2170
 1.6430	18.2220
 1.6440	18.2220
 1.6450	18.2190
 1.6460	18.2140
 1.6470	18.2060
 1.6480	18.1960
 1.6490	18.1830
 1.6500	18.1670
 1.6510	18.1480
 1.6520	18.1280
 1.6530	18.1050
 1.6540	18.0810
 1.6550	18.0560
 1.6560	18.0310
 1.6570	18.0050
 1.6580	17.9810
 1.6590	17.9580
 1.6600	17.9360
 1.6610	17.9180
 1.6620	17.9030
 1.6630	17.8920
 1.6640	17.8860
 1.6650	17.8830
 1.6660	17.8820
 1.6670	17.8850
 1.6680	17.8930
 1.6690	17.9030
 1.6700	17.9160
 1.6710	17.9300
 1.6720	17.9440
 1.6730	17.9580
 1.6740	17.9730
 1.6750	17.9860
 1.6760	17.9980
 1.6770	18.0090
 1.6780	18.0170
 1.6790	18.0210
 1.6800	18.0240
 1.6810	18.0230
 1.6820	18.0200
 1.6830	18.0140
 1.6840	18.0030
 1.6850	17.9910
 1.6860	17.9760
 1.6870	17.9570
 1.6880	17.9390
 1.6890	17.9180
 1.6900	17.8950
 1.6910	17.8700
 1.6920	17.8430
 1.6930	17.8140
 1.6940	17.7850
 1.6950	17.7550
 1.6960	17.7250
 1.6970	17.6960
 1.6980	17.6640
 1.6990	17.6290
 1.7000	17.5940
 1.7010	17.5560
 1.7020	17.5180
 1.7030	17.4800
 1.7040	17.4390
 1.7050	17.3950
 1.7060	17.3520
 1.7070	17.3070
 1.7080	17.2620
 1.7090	17.2180
 1.7100	17.1740
 1.7110	17.1280
 1.7120	17.0840
 1.7130	17.0390
 1.7140	16.9940
 1.7150	16.9510
 1.7160	16.9090
 1.7170	16.8660
 1.7180	16.8250
 1.7190	16.7840
 1.7200	16.7410
 1.7210	16.6970
 1.7220	16.6540
 1.7230	16.6130
 1.7240	16.5700
 1.7250	16.5300
 1.7260	16.4920
 1.7270	16.4530
 1.7280	16.4170
 1.7290	16.3830
 1.7300	16.3500
 1.7310	16.3180
 1.7320	16.2870
 1.7330	16.2560
 1.7340	16.2280
 1.7350	16.1980
 1.7360	16.1680
 1.7370	16.1370
 1.7380	16.1050
 1.7390	16.0710
 1.7400	16.0360
 1.7410	16.0000
 1.7420	15.9630
 1.7430	15.9240
 1.7440	15.8830
 1.7450	15.8430
 1.7460	15.8010
 1.7470	15.7590
 1.7480	15.7160
 1.7490	15.6740
 1.7500	15.6300
 1.7510	15.5890
 1.7520	15.5480
 1.7530	15.5070
 1.7540	15.4660
 1.7550	15.4240
 1.7560	15.3830
 1.7570	15.3440
 1.7580	15.3040
 1.7590	15.2680
 1.7600	15.2310
 1.7610	15.1940
 1.7620	15.1580
 1.7630	15.1220
 1.7640	15.0890
 1.7650	15.0600
 1.7660	15.0290
 1.7670	15.0000
 1.7680	14.9700
 1.7690	14.9390
 1.7700	14.9100
 1.7710	14.8830
 1.7720	14.8550
 1.7730	14.8260
 1.7740	14.8000
 1.7750	14.7740
 1.7760	14.7500
 1.7770	14.7260
 1.7780	14.7050
 1.7790	14.6850
 1.7800	14.6650
 1.7810	14.6460
 1.7820	14.6300
 1.7830	14.6140
 1.7840	14.6010
 1.7850	14.5920
 1.7860	14.5820
 1.7870	14.5740
 1.7880	14.5660
 1.7890	14.5580
 1.7900	14.5500
 1.7910	14.5440
 1.7920	14.5380
 1.7930	14.5340
 1.7940	14.5330
 1.7950	14.5330
 1.7960	14.5350
 1.7970	14.5370
 1.7980	14.5380
 1.7990	14.5400
 1.8000	14.5420
 1.8010	14.5450
 1.8020	14.5470
 1.8030	14.5500
 1.8040	14.5560
 1.8050	14.5600
 1.8060	14.5660
 1.8070	14.5710
 1.8080	14.5760
 1.8090	14.5800
 1.8100	14.5840
 1.8110	14.5840
 1.8120	14.5860
 1.8130	14.5910
 1.8140	14.5930
 1.8150	14.5960
 1.8160	14.5990
 1.8170	14.6000
 1.8180	14.5990
 1.8190	14.6000
 1.8200	14.5990
 1.8210	14.5970
 1.8220	14.5950
 1.8230	14.5920
 1.8240	14.5870
 1.8250	14.5820
 1.8260	14.5760
 1.8270	14.5840
 1.8280	14.5930
 1.8290	14.6020
 1.8300	14.6100
 1.8310	14.6190
 1.8320	14.6270
 1.8330	14.6360
 1.8340	14.6450
 1.8350	14.6450
 1.8360	14.6220
 1.8370	14.5940
 1.8380	14.5620
 1.8390	14.5270
 1.8400	14.4910
 1.8410	14.4480
 1.8420	14.4000
 1.8430	14.3510
 1.8440	14.2970
 1.8450	14.2340
 1.8460	14.1690
 1.8470	14.1000
 1.8480	14.0220
 1.8490	13.9390
 1.8500	13.8490
 1.8510	13.7520
 1.8520	13.6440
 1.8530	13.5320
 1.8540	13.4100
 1.8550	13.2800
 1.8560	13.1440
 1.8570	13.0000
 1.8580	12.8480
 1.8590	12.6870
 1.8600	12.5160
 1.8610	12.3360
 1.8620	12.1440
 1.8630	11.9460
 1.8640	11.7370
 1.8650	11.5160
 1.8660	11.2900
 1.8670	11.0510
 1.8680	10.8050
 1.8690	10.5510
 1.8700	10.2910
 1.8710	10.0230
 1.8720	 9.7510
 1.8730	 9.4740
 1.8740	 9.1970
 1.8750	 8.9180
 1.8760	 8.6380
 1.8770	 8.3640
 1.8780	 8.0940
 1.8790	 7.8270
 1.8800	 7.5690
 1.8810	 7.3180
 1.8820	 7.0720
 1.8830	 6.8290
 1.8840	 6.5980
 1.8850	 6.3730
 1.8860	 6.1570
 1.8870	 5.9570
 1.8880	 5.7660
 1.8890	 5.5890
 1.8900	 5.4250
 1.8910	 5.2710
 1.8920	 5.1260
 1.8930	 4.9940
 1.8940	 4.8740
 1.8950	 4.7640
 1.8960	 4.6630
 1.8970	 4.5740
 1.8980	 4.4940
 1.8990	 4.4210
 1.9000	 4.3570
 1.9010	 4.3020
 1.9020	 4.2520
 1.9030	 4.2090
 1.9040	 4.1720
 1.9050	 4.1380
 1.9060	 4.1090
 1.9070	 4.0840
 1.9080	 4.0610
 1.9090	 4.0410
 1.9100	 4.0240
 1.9110	 4.0080
 1.9120	 3.9960
 1.9130	 3.9850
 1.9140	 3.9760
 1.9150	 3.9680
 1.9160	 3.9630
 1.9170	 3.9570
 1.9180	 3.9530
 1.9190	 3.9500
 1.9200	 3.9460
 1.9210	 3.9440
 1.9220	 3.9400
 1.9230	 3.9330
 1.9240	 3.9310
 1.9250	 3.9300
 1.9260	 3.9290
 1.9270	 3.9330
 1.9280	 3.9380
 1.9290	 3.9390
 1.9300	 3.9400
 1.9310	 3.9420
 1.9320	 3.9440
 1.9330	 3.9470
 1.9340	 3.9520
 1.9350	 3.9570
 1.9360	 3.9600
 1.9370	 3.9640
 1.9380	 3.9690
 1.9390	 3.9730
 1.9400	 3.9770
 1.9410	 3.9830
 1.9420	 3.9860
 1.9430	 3.9900
 1.9440	 3.9960
 1.9450	 4.0020
 1.9460	 4.0100
 1.9470	 4.0200
 1.9480	 4.0280
 1.9490	 4.0350
 1.9500	 4.0430
 1.9510	 4.0510
 1.9520	 4.0590
 1.9530	 4.0700
 1.9540	 4.0800
 1.9550	 4.0890
 1.9560	 4.0960
 1.9570	 4.1060
 1.9580	 4.1170
 1.9590	 4.1280
 1.9600	 4.1410
 1.9610	 4.1520
 1.9620	 4.1640
 1.9630	 4.1750
 1.9640	 4.1870
 1.9650	 4.2020
 1.9660	 4.2150
 1.9670	 4.2280
 1.9680	 4.2410
 1.9690	 4.2540
 1.9700	 4.2680
 1.9710	 4.2840
 1.9720	 4.2990
 1.9730	 4.3140
 1.9740	 4.3310
 1.9750	 4.3490
 1.9760	 4.3670
 1.9770	 4.3840
 1.9780	 4.4020
 1.9790	 4.4200
 1.9800	 4.4380
 1.9810	 4.4560
 1.9820	 4.4760
 1.9830	 4.4940
 1.9840	 4.5100
 1.9850	 4.5290
 1.9860	 4.5480
 1.9870	 4.5720
 1.9880	 4.5950
 1.9890	 4.6160
 1.9900	 4.6370
 1.9910	 4.6560
 1.9920	 4.6770
 1.9930	 4.6970
 1.9940	 4.7190
 1.9950	 4.7430
 1.9960	 4.7660
 1.9970	 4.7890
 1.9980	 4.8120
 1.9990	 4.8350
 2.0000	 4.8580
 2.0010	 4.8810
 2.0020	 4.9040
 2.0030	 4.9260
 2.0040	 4.9510
 2.0050	 4.9750
 2.0060	 4.9990
 2.0070	 5.0230
 2.0080	 5.0480
 2.0090	 5.0710
 2.0100	 5.0940
 2.0110	 5.1170
 2.0120	 5.1420
 2.0130	 5.1650
 2.0140	 5.1860
 2.0150	 5.2080
 2.0160	 5.2300
 2.0170	 5.2510
 2.0180	 5.2730
 2.0190	 5.2960
 2.0200	 5.3170
 2.0210	 5.3370
 2.0220	 5.3570
 2.0230	 5.3770
 2.0240	 5.3970
 2.0250	 5.4160
 2.0260	 5.4350
 2.0270	 5.4530
 2.0280	 5.4730
 2.0290	 5.4910
 2.0300	 5.5070
 2.0310	 5.5250
 2.0320	 5.5420
 2.0330	 5.5590
 2.0340	 5.5770
 2.0350	 5.5940
 2.0360	 5.6100
 2.0370	 5.6260
 2.0380	 5.6410
 2.0390	 5.6560
 2.0400	 5.6680
 2.0410	 5.6820
 2.0420	 5.6950
 2.0430	 5.7100
 2.0440	 5.7230
 2.0450	 5.7350
 2.0460	 5.7480
 2.0470	 5.7610
 2.0480	 5.7730
 2.0490	 5.7850
 2.0500	 5.7980
 2.0510	 5.8070
 2.0520	 5.8190
 2.0530	 5.8330
 2.0540	 5.8460
 2.0550	 5.8600
 2.0560	 5.8710
 2.0570	 5.8800
 2.0580	 5.8910
 2.0590	 5.9010
 2.0600	 5.9100
 2.0610	 5.9220
 2.0620	 5.9370
 2.0630	 5.9490
 2.0640	 5.9620
 2.0650	 5.9740
 2.0660	 5.9840
 2.0670	 5.9950
 2.0680	 6.0050
 2.0690	 6.0160
 2.0700	 6.0280
 2.0710	 6.0400
 2.0720	 6.0530
 2.0730	 6.0660
 2.0740	 6.0760
 2.0750	 6.0860
 2.0760	 6.0950
 2.0770	 6.1010
 2.0780	 6.1110
 2.0790	 6.1230
 2.0800	 6.1340
 2.0810	 6.1470
 2.0820	 6.1590
 2.0830	 6.1700
 2.0840	 6.1810
 2.0850	 6.1920
 2.0860	 6.2030
 2.0870	 6.2140
 2.0880	 6.2270
 2.0890	 6.2390
 2.0900	 6.2500
 2.0910	 6.2590
 2.0920	 6.2640
 2.0930	 6.2730
 2.0940	 6.2810
 2.0950	 6.2910
 2.0960	 6.3050
 2.0970	 6.3150
 2.0980	 6.3200
 2.0990	 6.3280
 2.1000	 6.3360
 2.1010	 6.3450
 2.1020	 6.3600
 2.1030	 6.3710
 2.1040	 6.3840
 2.1050	 6.3920
 2.1060	 6.4020
 2.1070	 6.4110
 2.1080	 6.4190
 2.1090	 6.4250
 2.1100	 6.4330
 2.1110	 6.4420
 2.1120	 6.4500
 2.1130	 6.4570
 2.1140	 6.4660
 2.1150	 6.4730
 2.1160	 6.4820
 2.1170	 6.4940
 2.1180	 6.5030
 2.1190	 6.5090
 2.1200	 6.5170
 2.1210	 6.5240
 2.1220	 6.5320
 2.1230	 6.5390
 2.1240	 6.5460
 2.1250	 6.5530
 2.1260	 6.5580
 2.1270	 6.5640
 2.1280	 6.5710
 2.1290	 6.5790
 2.1300	 6.5850
 2.1310	 6.5960
 2.1320	 6.6120
 2.1330	 6.6220
 2.1340	 6.6310
 2.1350	 6.6420
 2.1360	 6.6500
 2.1370	 6.6610
 2.1380	 6.6770
 2.1390	 6.6900
 2.1400	 6.7010
 2.1410	 6.7130
 2.1420	 6.7240
 2.1430	 6.7330
 2.1440	 6.7440
 2.1450	 6.7560
 2.1460	 6.7670
 2.1470	 6.7780
 2.1480	 6.7910
 2.1490	 6.8040
 2.1500	 6.8180
 2.1510	 6.8340
 2.1520	 6.8470
 2.1530	 6.8590
 2.1540	 6.8710
 2.1550	 6.8830
 2.1560	 6.8960
 2.1570	 6.9130
 2.1580	 6.9290
 2.1590	 6.9460
 2.1600	 6.9640
 2.1610	 6.9780
 2.1620	 6.9900
 2.1630	 7.0050
 2.1640	 7.0180
 2.1650	 7.0330
 2.1660	 7.0510
 2.1670	 7.0680
 2.1680	 7.0850
 2.1690	 7.1000
 2.1700	 7.1160
 2.1710	 7.1300
 2.1720	 7.1420
 2.1730	 7.1530
 2.1740	 7.1620
 2.1750	 7.1730
 2.1760	 7.1880
 2.1770	 7.1990
 2.1780	 7.2110
 2.1790	 7.2230
 2.1800	 7.2300
 2.1810	 7.2410
 2.1820	 7.2550
 2.1830	 7.2700
 2.1840	 7.2850
 2.1850	 7.3010
 2.1860	 7.3170
 2.1870	 7.3330
 2.1880	 7.3500
 2.1890	 7.3670
 2.1900	 7.3840
 2.1910	 7.4010
 2.1920	 7.4170
 2.1930	 7.4350
 2.1940	 7.4520
 2.1950	 7.4670
 2.1960	 7.4830
 2.1970	 7.4980
 2.1980	 7.5110
 2.1990	 7.5230
 2.2000	 7.5360
 2.2010	 7.5450
 2.2020	 7.5590
 2.2030	 7.5770
 2.2040	 7.5920
 2.2050	 7.6090
 2.2060	 7.6270
 2.2070	 7.6410
 2.2080	 7.6510
 2.2090	 7.6600
 2.2100	 7.6640
 2.2110	 7.6720
 2.2120	 7.6810
 2.2130	 7.6880
 2.2140	 7.6950
 2.2150	 7.7030
 2.2160	 7.7080
 2.2170	 7.7150
 2.2180	 7.7270
 2.2190	 7.7330
 2.2200	 7.7380
 2.2210	 7.7410
 2.2220	 7.7430
 2.2230	 7.7430
 2.2240	 7.7370
 2.2250	 7.7350
 2.2260	 7.7320
 2.2270	 7.7280
 2.2280	 7.7250
 2.2290	 7.7190
 2.2300	 7.7090
 2.2310	 7.6970
 2.2320	 7.6860
 2.2330	 7.6750
 2.2340	 7.6620
 2.2350	 7.6470
 2.2360	 7.6310
 2.2370	 7.6110
 2.2380	 7.5950
 2.2390	 7.5810
 2.2400	 7.5630
 2.2410	 7.5480
 2.2420	 7.5240
 2.2430	 7.4930
 2.2440	 7.4650
 2.2450	 7.4310
 2.2460	 7.4020
 2.2470	 7.3770
 2.2480	 7.3460
 2.2490	 7.3110
 2.2500	 7.2790
 2.2510	 7.2450
 2.2520	 7.2120
 2.2530	 7.1850
 2.2540	 7.1540
 2.2550	 7.1170
 2.2560	 7.0860
 2.2570	 7.0620
 2.2580	 7.0340
 2.2590	 7.0090
 2.2600	 6.9810
 2.2610	 6.9470
 2.2620	 6.9140
 2.2630	 6.8840
 2.2640	 6.8550
 2.2650	 6.8250
 2.2660	 6.7960
 2.2670	 6.7710
 2.2680	 6.7460
 2.2690	 6.7210
 2.2700	 6.6990
 2.2710	 6.6770
 2.2720	 6.6520
 2.2730	 6.6280
 2.2740	 6.6050
 2.2750	 6.5820
 2.2760	 6.5560
 2.2770	 6.5370
 2.2780	 6.5250
 2.2790	 6.5070
 2.2800	 6.4900
 2.2810	 6.4710
 2.2820	 6.4470
 2.2830	 6.4270
 2.2840	 6.4080
 2.2850	 6.3890
 2.2860	 6.3740
 2.2870	 6.3530
 2.2880	 6.3320
 2.2890	 6.3100
 2.2900	 6.2850
 2.2910	 6.2620
 2.2920	 6.2410
 2.2930	 6.2180
 2.2940	 6.1920
 2.2950	 6.1710
 2.2960	 6.1570
 2.2970	 6.1370
 2.2980	 6.1170
 2.2990	 6.0960
 2.3000	 6.0700
 2.3010	 6.0430
 2.3020	 6.0240
 2.3030	 6.0120
 2.3040	 5.9940
 2.3050	 5.9780
 2.3060	 5.9590
 2.3070	 5.9340
 2.3080	 5.9130
 2.3090	 5.8930
 2.3100	 5.8780
 2.3110	 5.8640
 2.3120	 5.8530
 2.3130	 5.8500
 2.3140	 5.8430
 2.3150	 5.8370
 2.3160	 5.8310
 2.3170	 5.8260
 2.3180	 5.8180
 2.3190	 5.8060
 2.3200	 5.7940
 2.3210	 5.7790
 2.3220	 5.7650
 2.3230	 5.7520
 2.3240	 5.7370
 2.3250	 5.7220
 2.3260	 5.7070
 2.3270	 5.6900
 2.3280	 5.6750
 2.3290	 5.6610
 2.3300	 5.6480
 2.3310	 5.6390
 2.3320	 5.6280
 2.3330	 5.6180
 2.3340	 5.6030
 2.3350	 5.5800
 2.3360	 5.5650
 2.3370	 5.5540
 2.3380	 5.5410
 2.3390	 5.5340
 2.3400	 5.5230
 2.3410	 5.5080
 2.3420	 5.4950
 2.3430	 5.4810
 2.3440	 5.4670
 2.3450	 5.4540
 2.3460	 5.4410
 2.3470	 5.4280
 2.3480	 5.4170
 2.3490	 5.4040
 2.3500	 5.3960
 2.3510	 5.3950
 2.3520	 5.3890
 2.3530	 5.3830
 2.3540	 5.3780
 2.3550	 5.3650
 2.3560	 5.3530
 2.3570	 5.3460
 2.3580	 5.3360
 2.3590	 5.3230
 2.3600	 5.3110
 2.3610	 5.2970
 2.3620	 5.2810
 2.3630	 5.2710
 2.3640	 5.2620
 2.3650	 5.2520
 2.3660	 5.2370
 2.3670	 5.2220
 2.3680	 5.2110
 2.3690	 5.2010
 2.3700	 5.1950
 2.3710	 5.1870
 2.3720	 5.1700
 2.3730	 5.1540
 2.3740	 5.1390
 2.3750	 5.1260
 2.3760	 5.1240
 2.3770	 5.1200
 2.3780	 5.1080
 2.3790	 5.0960
 2.3800	 5.0800
 2.3810	 5.0630
 2.3820	 5.0480
 2.3830	 5.0370
 2.3840	 5.0320
 2.3850	 5.0190
 2.3860	 5.0050
 2.3870	 4.9940
 2.3880	 4.9680
 2.3890	 4.9470
 2.3900	 4.9320
 2.3910	 4.9070
 2.3920	 4.8970
 2.3930	 4.9000
 2.3940	 4.9030
 2.3950	 4.9070
 2.3960	 4.9000
 2.3970	 4.8740
 2.3980	 4.8560
 2.3990	 4.8400
 2.4000	 4.8170
 2.4010	 4.8030
 2.4020	 4.7880
 2.4030	 4.7730
 2.4040	 4.7670
 2.4050	 4.7580
 2.4060	 4.7350
 2.4070	 4.7130
 2.4080	 4.6960
 2.4090	 4.6840
 2.4100	 4.6780
 2.4110	 4.6690
 2.4120	 4.6620
 2.4130	 4.6520
 2.4140	 4.6390
 2.4150	 4.6300
 2.4160	 4.6190
 2.4170	 4.6080
 2.4180	 4.5920
 2.4190	 4.5740
 2.4200	 4.5520
 2.4210	 4.5220
 2.4220	 4.5000
 2.4230	 4.4860
 2.4240	 4.4690
 2.4250	 4.4570
 2.4260	 4.4540
 2.4270	 4.4500
 2.4280	 4.4450
 2.4290	 4.4360
 2.4300	 4.4240
 2.4310	 4.4070
 2.4320	 4.3860
 2.4330	 4.3680
 2.4340	 4.3560
 2.4350	 4.3340
 2.4360	 4.3290
 2.4370	 4.3450
 2.4380	 4.3330
 2.4390	 4.3260
 2.4400	 4.3240
 2.4410	 4.2980
 2.4420	 4.2760
 2.4430	 4.2690
 2.4440	 4.2510
 2.4450	 4.2250
 2.4460	 4.2150
 2.4470	 4.1970
 2.4480	 4.1830
 2.4490	 4.1970
 2.4500	 4.2000
 2.4510	 4.1930
 2.4520	 4.1850
 2.4530	 4.1610
 2.4540	 4.1500
 2.4550	 4.1470
 2.4560	 4.1310
 2.4570	 4.1210
 2.4580	 4.1070
 2.4590	 4.0990
 2.4600	 4.0940
 2.4610	 4.0810
 2.4620	 4.0670
 2.4630	 4.0510
 2.4640	 4.0540
 2.4650	 4.0520
 2.4660	 4.0390
 2.4670	 4.0410
 2.4680	 4.0390
 2.4690	 4.0480
 2.4700	 4.0460
 2.4710	 4.0200
 2.4720	 4.0120
 2.4730	 4.0100
 2.4740	 4.0100
 2.4750	 4.0240
 2.4760	 4.0290
 2.4770	 4.0220
 2.4780	 4.0110
 2.4790	 4.0050
 2.4800	 3.9900
 2.4810	 3.9660
 2.4820	 3.9380
 2.4830	 3.9040
 2.4840	 3.9240
 2.4850	 3.9220
 2.4860	 3.9500
 2.4870	 3.9970
 2.4880	 3.9730
 2.4890	 3.9940
 2.4900	 3.9940
 2.4910	 3.9410
 2.4920	 3.9450
 2.4930	 3.9290
 2.4940	 3.8940
 2.4950	 3.8830
 2.4960	 3.8720
 2.4970	 3.8780
 2.4980	 3.9160
 2.4990	 3.9540
 2.5000	 3.9380
