Name: Umbellularia californica 2
Type: vegetation
Class: Shrub
Genus: Umbellularia
Species: californica
Sample No.: VH237
Owner: UCSB
Wavelength Range: TIR
Origin: 34.5074; -119.7632; WGS84
Collection Date: 10/13/2013
Description: Samples were collected as part of the HyspIRI Airborne Campaign. 48 individual plants were sampled in three times in 2013 - spring  summer  and fall. The name of the sample includes a 1  2  or 3 which references a different individual of the species. Samples were taken to JPL and processed within 48 hours of collection. The same leaves were processed in the Nicolet and then measured using the ASD.
Measurement: Hemispherical reflectance
First Column: X
Second Column: Y
X Units: Wavelength (micrometers)
Y Units: Reflectance (percentage)
First X Value: 2.501
Last X Value: 15.387
Number of X Values: 1737
Additional Information: vegetation.shrub.umbellularia.californica.tir.vh237.ucsb.nicolet.ancillary.txt

 2.5010	 8.4730
 2.5030	 8.4380
 2.5040	 8.3430
 2.5050	 8.1670
 2.5060	 8.3510
 2.5070	 8.2520
 2.5090	 8.1460
 2.5100	 8.2720
 2.5110	 8.4550
 2.5120	 8.3920
 2.5140	 8.2540
 2.5150	 8.1010
 2.5160	 8.0010
 2.5170	 8.0260
 2.5180	 8.2100
 2.5200	 8.2770
 2.5210	 8.3590
 2.5220	 8.2790
 2.5230	 8.2340
 2.5250	 8.3200
 2.5260	 8.3470
 2.5270	 8.0740
 2.5280	 7.9940
 2.5290	 8.0200
 2.5310	 8.0730
 2.5320	 8.1770
 2.5330	 8.1870
 2.5340	 8.2350
 2.5360	 8.2420
 2.5370	 8.1670
 2.5380	 8.0360
 2.5390	 8.0050
 2.5410	 8.2930
 2.5420	 8.3390
 2.5430	 8.2310
 2.5440	 8.2470
 2.5460	 8.2220
 2.5470	 8.2300
 2.5480	 8.4250
 2.5490	 8.4010
 2.5510	 8.2880
 2.5520	 8.1820
 2.5530	 8.1280
 2.5540	 8.0850
 2.5560	 8.2760
 2.5570	 8.3070
 2.5580	 8.3560
 2.5590	 8.3190
 2.5610	 8.3560
 2.5620	 8.3970
 2.5630	 8.3960
 2.5640	 8.2630
 2.5660	 8.3320
 2.5670	 8.3510
 2.5680	 8.4040
 2.5700	 8.3880
 2.5710	 8.4910
 2.5720	 8.6100
 2.5730	 8.6780
 2.5750	 8.5300
 2.5760	 8.6180
 2.5770	 8.5310
 2.5790	 8.3380
 2.5800	 8.3000
 2.5810	 8.3970
 2.5820	 8.5800
 2.5840	 8.7290
 2.5850	 8.7030
 2.5860	 8.5700
 2.5880	 8.2090
 2.5890	 8.3270
 2.5900	 8.5860
 2.5910	 8.5200
 2.5930	 8.2800
 2.5940	 8.3820
 2.5950	 8.5300
 2.5970	 8.4850
 2.5980	 8.2790
 2.5990	 8.2290
 2.6000	 8.1940
 2.6020	 8.3120
 2.6030	 8.3570
 2.6040	 8.2800
 2.6060	 8.1350
 2.6070	 8.0990
 2.6080	 8.1530
 2.6100	 8.2400
 2.6110	 8.1660
 2.6120	 8.0970
 2.6140	 7.9620
 2.6150	 7.7630
 2.6160	 7.6530
 2.6180	 7.6810
 2.6190	 7.6210
 2.6200	 7.6240
 2.6220	 7.7860
 2.6230	 7.9150
 2.6240	 7.7820
 2.6260	 7.6120
 2.6270	 7.4560
 2.6280	 7.4840
 2.6300	 7.4260
 2.6310	 7.4730
 2.6320	 7.5310
 2.6340	 7.4470
 2.6350	 7.3580
 2.6360	 7.4100
 2.6380	 7.4280
 2.6390	 7.3790
 2.6400	 7.1800
 2.6420	 7.1440
 2.6430	 7.2290
 2.6440	 7.2450
 2.6460	 7.1550
 2.6470	 7.1410
 2.6480	 7.0060
 2.6500	 7.1190
 2.6510	 7.1450
 2.6520	 6.9220
 2.6540	 6.6870
 2.6550	 6.6750
 2.6560	 6.4390
 2.6580	 6.6650
 2.6590	 6.8070
 2.6610	 6.7280
 2.6620	 6.6230
 2.6630	 6.5940
 2.6650	 6.4200
 2.6660	 6.4210
 2.6670	 6.5190
 2.6690	 6.4230
 2.6700	 6.2960
 2.6720	 6.3800
 2.6730	 6.3660
 2.6740	 6.1840
 2.6760	 5.8850
 2.6770	 5.7880
 2.6780	 5.7590
 2.6800	 5.9810
 2.6810	 6.0070
 2.6830	 6.0120
 2.6840	 6.1610
 2.6850	 6.3160
 2.6870	 5.8830
 2.6880	 5.5850
 2.6900	 5.6520
 2.6910	 5.5910
 2.6920	 5.2480
 2.6940	 5.1650
 2.6950	 5.3940
 2.6970	 5.2710
 2.6980	 5.1200
 2.6990	 5.1520
 2.7010	 5.0640
 2.7020	 5.0110
 2.7040	 5.0300
 2.7050	 5.1670
 2.7060	 5.1610
 2.7080	 4.9840
 2.7090	 4.8890
 2.7110	 4.9810
 2.7120	 4.8900
 2.7130	 4.9200
 2.7150	 5.0480
 2.7160	 5.1330
 2.7180	 4.9930
 2.7190	 4.7210
 2.7210	 4.6570
 2.7220	 4.8780
 2.7230	 5.1770
 2.7250	 5.3260
 2.7260	 5.0120
 2.7280	 4.8060
 2.7290	 4.7880
 2.7310	 4.8360
 2.7320	 4.6890
 2.7330	 4.7600
 2.7350	 4.7830
 2.7360	 4.7070
 2.7380	 4.5850
 2.7390	 4.4150
 2.7410	 4.5820
 2.7420	 5.0550
 2.7440	 4.8830
 2.7450	 4.6970
 2.7470	 5.1500
 2.7480	 5.1700
 2.7490	 4.4470
 2.7510	 3.6570
 2.7520	 4.2180
 2.7540	 5.3530
 2.7550	 4.8980
 2.7570	 4.0440
 2.7580	 4.1280
 2.7600	 4.7740
 2.7610	 4.6310
 2.7630	 4.6160
 2.7640	 4.7560
 2.7660	 4.6960
 2.7670	 5.0440
 2.7680	 4.7580
 2.7700	 4.3820
 2.7710	 4.5160
 2.7730	 4.7100
 2.7740	 4.7840
 2.7760	 4.1170
 2.7770	 4.0110
 2.7790	 4.3070
 2.7800	 4.3100
 2.7820	 4.1860
 2.7830	 4.4320
 2.7850	 4.4560
 2.7860	 4.3330
 2.7880	 4.3170
 2.7890	 4.5000
 2.7910	 4.5660
 2.7920	 4.3130
 2.7940	 4.2700
 2.7950	 4.6090
 2.7970	 4.6020
 2.7980	 4.5510
 2.8000	 4.3270
 2.8010	 4.0280
 2.8030	 3.9080
 2.8040	 4.2430
 2.8060	 4.3370
 2.8070	 4.1800
 2.8090	 4.1560
 2.8110	 4.3270
 2.8120	 4.3720
 2.8140	 4.2870
 2.8150	 4.0700
 2.8170	 4.1680
 2.8180	 4.1340
 2.8200	 4.2540
 2.8210	 4.3850
 2.8230	 4.4230
 2.8240	 4.2380
 2.8260	 3.8580
 2.8270	 3.7530
 2.8290	 4.1260
 2.8300	 4.2480
 2.8320	 4.3060
 2.8340	 4.4030
 2.8350	 4.2800
 2.8370	 3.9750
 2.8380	 3.8420
 2.8400	 4.0510
 2.8410	 4.0440
 2.8430	 4.0340
 2.8440	 4.1200
 2.8460	 4.2210
 2.8480	 4.3530
 2.8490	 4.2530
 2.8510	 4.2120
 2.8520	 4.2100
 2.8540	 4.0430
 2.8550	 3.9930
 2.8570	 4.1570
 2.8590	 4.1660
 2.8600	 4.1050
 2.8620	 4.0030
 2.8630	 4.1910
 2.8650	 4.2650
 2.8660	 4.3830
 2.8680	 4.3640
 2.8700	 4.4430
 2.8710	 4.4590
 2.8730	 4.1030
 2.8740	 3.8520
 2.8760	 3.8740
 2.8780	 4.1580
 2.8790	 3.7860
 2.8810	 3.6270
 2.8820	 4.5340
 2.8840	 4.5430
 2.8860	 4.3410
 2.8870	 4.7020
 2.8890	 4.5640
 2.8900	 4.2450
 2.8920	 4.5400
 2.8940	 4.1910
 2.8950	 3.7410
 2.8970	 3.5500
 2.8980	 3.5500
 2.9000	 3.9500
 2.9020	 4.6880
 2.9030	 4.9350
 2.9050	 4.2830
 2.9070	 3.2200
 2.9080	 3.1730
 2.9100	 3.5490
 2.9120	 3.5530
 2.9130	 3.6580
 2.9150	 3.7870
 2.9160	 4.0080
 2.9180	 4.2600
 2.9200	 4.2490
 2.9210	 4.2440
 2.9230	 4.0130
 2.9250	 4.0660
 2.9260	 4.1140
 2.9280	 4.0820
 2.9300	 4.2450
 2.9310	 4.2640
 2.9330	 4.1600
 2.9350	 4.2120
 2.9360	 4.3220
 2.9380	 4.0810
 2.9400	 3.7890
 2.9410	 3.9780
 2.9430	 4.2080
 2.9450	 4.3070
 2.9460	 4.2710
 2.9480	 4.4670
 2.9500	 4.2880
 2.9510	 4.5550
 2.9530	 4.5720
 2.9550	 4.2700
 2.9560	 4.2980
 2.9580	 3.4930
 2.9600	 4.1960
 2.9610	 6.1200
 2.9630	 5.7560
 2.9650	 4.7500
 2.9660	 4.3080
 2.9680	 3.4950
 2.9700	 3.2710
 2.9720	 2.5140
 2.9730	 0.7700
 2.9750	 1.9080
 2.9770	 3.1990
 2.9780	 2.9430
 2.9800	 2.9250
 2.9820	 4.5190
 2.9840	 7.2640
 2.9850	 7.5380
 2.9870	 6.3660
 2.9890	 5.7130
 2.9900	 6.0640
 2.9920	 5.9190
 2.9940	 5.9110
 2.9960	 6.1780
 2.9970	 4.6090
 2.9990	 4.9650
 3.0010	 3.4510
 3.0030	 1.7560
 3.0040	 3.0450
 3.0060	 4.0990
 3.0080	 4.3650
 3.0100	 5.0100
 3.0110	 5.5640
 3.0130	 5.3450
 3.0150	 4.9830
 3.0170	 3.8050
 3.0180	 3.8710
 3.0200	 4.4520
 3.0220	 3.7430
 3.0240	 3.2720
 3.0250	 4.2560
 3.0270	 4.3680
 3.0290	 4.2170
 3.0310	 5.0530
 3.0320	 5.0930
 3.0340	 4.0300
 3.0360	 4.0420
 3.0380	 2.3940
 3.0400	 1.3690
 3.0410	 1.3060
 3.0430	 0.9950
 3.0450	 4.3970
 3.0470	 3.2050
 3.0480	 0.0110
 3.0500	 -0.263
 3.0520	 1.4580
 3.0540	 2.6980
 3.0560	 4.4290
 3.0570	 5.6260
 3.0590	 6.1130
 3.0610	 4.8840
 3.0630	 4.1510
 3.0650	 1.7290
 3.0660	 1.6310
 3.0680	 3.4800
 3.0700	 3.5860
 3.0720	 3.8880
 3.0740	 3.6130
 3.0760	 3.6180
 3.0770	 4.2720
 3.0790	 4.5790
 3.0810	 3.9340
 3.0830	 3.5830
 3.0850	 3.9440
 3.0870	 4.1860
 3.0880	 4.5660
 3.0900	 4.6070
 3.0920	 4.4310
 3.0940	 4.2620
 3.0960	 4.2180
 3.0980	 4.1980
 3.0990	 4.2880
 3.1010	 4.2380
 3.1030	 4.3590
 3.1050	 4.3890
 3.1070	 4.2860
 3.1090	 3.9980
 3.1110	 4.1650
 3.1120	 4.2890
 3.1140	 4.3430
 3.1160	 4.5470
 3.1180	 4.6150
 3.1200	 4.2610
 3.1220	 4.2250
 3.1240	 4.0890
 3.1260	 3.8110
 3.1270	 4.1800
 3.1290	 4.8450
 3.1310	 4.3240
 3.1330	 4.2440
 3.1350	 3.5870
 3.1370	 3.0290
 3.1390	 3.5360
 3.1410	 4.3280
 3.1430	 5.2430
 3.1450	 5.8090
 3.1460	 5.0250
 3.1480	 4.5500
 3.1500	 4.4710
 3.1520	 3.3350
 3.1540	 2.0530
 3.1560	 2.3440
 3.1580	 1.4970
 3.1600	 1.1150
 3.1620	 3.4850
 3.1640	 5.4470
 3.1660	 6.3110
 3.1680	 8.2330
 3.1700	 7.4480
 3.1710	 4.7430
 3.1730	 5.3620
 3.1750	 5.7850
 3.1770	 5.3500
 3.1790	 5.2320
 3.1810	 5.7340
 3.1830	 5.0950
 3.1850	 3.9500
 3.1870	 3.3050
 3.1890	 3.9940
 3.1910	 4.2590
 3.1930	 3.6350
 3.1950	 3.8450
 3.1970	 3.6560
 3.1990	 4.1060
 3.2010	 4.4500
 3.2030	 4.1430
 3.2050	 3.8620
 3.2070	 4.1340
 3.2090	 4.2390
 3.2110	 3.9970
 3.2130	 3.6840
 3.2150	 4.0390
 3.2170	 4.1340
 3.2190	 3.9860
 3.2210	 4.2070
 3.2230	 4.3510
 3.2250	 4.1840
 3.2270	 4.0530
 3.2290	 3.7760
 3.2310	 3.7340
 3.2330	 3.9790
 3.2350	 4.2580
 3.2370	 4.1690
 3.2390	 4.3540
 3.2410	 4.3750
 3.2430	 4.2460
 3.2450	 4.1150
 3.2470	 3.7590
 3.2490	 3.4310
 3.2510	 3.6380
 3.2530	 4.1520
 3.2550	 4.0430
 3.2570	 3.6090
 3.2590	 4.4580
 3.2610	 5.1680
 3.2630	 4.8130
 3.2650	 3.9210
 3.2670	 3.8640
 3.2690	 4.0840
 3.2720	 3.8960
 3.2740	 4.0090
 3.2760	 4.1090
 3.2780	 3.9130
 3.2800	 4.2990
 3.2820	 4.5070
 3.2840	 4.3300
 3.2860	 4.1300
 3.2880	 4.3860
 3.2900	 4.0650
 3.2920	 3.8460
 3.2940	 4.4760
 3.2960	 4.4550
 3.2990	 4.0630
 3.3010	 4.1340
 3.3030	 4.0570
 3.3050	 3.6810
 3.3070	 3.5130
 3.3090	 3.7740
 3.3110	 3.8980
 3.3130	 3.8110
 3.3150	 3.8410
 3.3180	 3.9500
 3.3200	 4.2970
 3.3220	 4.1530
 3.3240	 3.9390
 3.3260	 4.0670
 3.3280	 4.0030
 3.3300	 3.8570
 3.3330	 3.8800
 3.3350	 4.0610
 3.3370	 3.9890
 3.3390	 3.8800
 3.3410	 3.9890
 3.3430	 3.9990
 3.3450	 3.9420
 3.3480	 3.8680
 3.3500	 3.6470
 3.3520	 3.6570
 3.3540	 3.8160
 3.3560	 3.7580
 3.3580	 3.6570
 3.3610	 3.5140
 3.3630	 3.4270
 3.3650	 3.4550
 3.3670	 3.5670
 3.3690	 3.5850
 3.3720	 3.5390
 3.3740	 3.4980
 3.3760	 3.4520
 3.3780	 3.5660
 3.3800	 3.5820
 3.3830	 3.5270
 3.3850	 3.4680
 3.3870	 3.4870
 3.3890	 3.5700
 3.3910	 3.4920
 3.3940	 3.3060
 3.3960	 3.4340
 3.3980	 3.4310
 3.4000	 3.3870
 3.4020	 3.4810
 3.4050	 3.6770
 3.4070	 3.6640
 3.4090	 3.7200
 3.4110	 3.9290
 3.4140	 4.3030
 3.4160	 4.7960
 3.4180	 5.7080
 3.4200	 6.7600
 3.4230	 8.0880
 3.4250	 9.7080
 3.4270	11.2830
 3.4290	12.1100
 3.4320	11.8850
 3.4340	10.7350
 3.4360	 9.6280
 3.4390	 8.6020
 3.4410	 7.6020
 3.4430	 7.2080
 3.4450	 7.2050
 3.4480	 6.9710
 3.4500	 6.7530
 3.4520	 6.3650
 3.4550	 6.7100
 3.4570	 7.0560
 3.4590	 6.7550
 3.4620	 6.2000
 3.4640	 6.0980
 3.4660	 6.0680
 3.4680	 5.8200
 3.4710	 5.6620
 3.4730	 5.5360
 3.4750	 5.3670
 3.4780	 5.2990
 3.4800	 5.1960
 3.4820	 5.1510
 3.4850	 4.9940
 3.4870	 4.8570
 3.4890	 4.9070
 3.4920	 4.9900
 3.4940	 4.8230
 3.4970	 4.6510
 3.4990	 4.6450
 3.5010	 4.9000
 3.5040	 5.4610
 3.5060	 6.8270
 3.5080	 8.9810
 3.5110	10.9030
 3.5130	11.2180
 3.5160	10.0980
 3.5180	 8.7410
 3.5200	 7.9280
 3.5230	 7.5180
 3.5250	 7.2530
 3.5270	 6.9670
 3.5300	 6.7450
 3.5320	 6.6340
 3.5350	 6.6260
 3.5370	 6.4630
 3.5400	 6.1720
 3.5420	 6.0620
 3.5440	 6.1920
 3.5470	 6.3030
 3.5490	 6.1480
 3.5520	 5.9690
 3.5540	 5.8220
 3.5570	 5.7020
 3.5590	 5.7910
 3.5610	 5.7390
 3.5640	 5.7430
 3.5660	 5.5350
 3.5690	 5.3440
 3.5710	 5.3270
 3.5740	 5.4160
 3.5760	 5.5100
 3.5790	 5.5500
 3.5810	 5.6060
 3.5840	 5.6370
 3.5860	 5.5690
 3.5890	 5.4370
 3.5910	 5.5360
 3.5930	 5.7370
 3.5960	 5.3860
 3.5980	 5.5750
 3.6010	 5.6920
 3.6030	 5.1900
 3.6060	 4.8160
 3.6080	 5.2800
 3.6110	 5.5840
 3.6140	 5.5250
 3.6160	 5.4160
 3.6190	 5.2460
 3.6210	 5.4300
 3.6240	 5.4560
 3.6260	 5.2560
 3.6290	 5.1770
 3.6310	 5.2820
 3.6340	 5.4320
 3.6360	 5.3580
 3.6390	 5.3210
 3.6410	 5.2280
 3.6440	 5.1540
 3.6470	 5.2360
 3.6490	 5.2790
 3.6520	 5.2600
 3.6540	 5.3310
 3.6570	 5.4110
 3.6590	 5.2730
 3.6620	 5.1550
 3.6650	 5.1780
 3.6670	 5.0330
 3.6700	 5.0630
 3.6720	 5.1650
 3.6750	 5.2110
 3.6780	 5.2950
 3.6800	 5.3700
 3.6830	 5.3360
 3.6850	 5.2990
 3.6880	 5.2170
 3.6910	 5.1720
 3.6930	 5.1870
 3.6960	 5.1680
 3.6990	 5.1720
 3.7010	 5.2200
 3.7040	 5.1670
 3.7060	 5.1720
 3.7090	 5.1870
 3.7120	 5.2590
 3.7140	 5.2640
 3.7170	 5.3330
 3.7200	 5.3520
 3.7220	 5.4090
 3.7250	 5.4300
 3.7280	 5.3270
 3.7300	 5.1550
 3.7330	 5.0570
 3.7360	 5.0370
 3.7390	 5.0450
 3.7410	 5.1160
 3.7440	 5.1530
 3.7470	 5.2000
 3.7490	 5.4350
 3.7520	 5.3480
 3.7550	 5.1480
 3.7580	 5.2520
 3.7600	 5.3240
 3.7630	 5.2060
 3.7660	 5.2170
 3.7680	 5.2370
 3.7710	 5.2160
 3.7740	 5.1700
 3.7770	 5.1390
 3.7790	 5.1610
 3.7820	 5.2100
 3.7850	 5.2090
 3.7880	 5.1650
 3.7900	 5.2270
 3.7930	 5.1590
 3.7960	 5.0520
 3.7990	 5.1810
 3.8020	 5.2850
 3.8040	 5.1680
 3.8070	 5.0320
 3.8100	 5.0570
 3.8130	 5.1960
 3.8160	 5.1630
 3.8180	 5.0680
 3.8210	 5.0030
 3.8240	 5.1040
 3.8270	 5.3030
 3.8300	 5.3630
 3.8330	 5.3580
 3.8350	 5.2100
 3.8380	 5.0670
 3.8410	 5.3300
 3.8440	 5.5520
 3.8470	 5.4440
 3.8500	 5.5590
 3.8520	 5.5250
 3.8550	 5.3150
 3.8580	 5.2510
 3.8610	 5.3000
 3.8640	 5.2420
 3.8670	 5.2870
 3.8700	 5.1560
 3.8730	 5.0900
 3.8750	 5.1660
 3.8780	 5.3620
 3.8810	 5.4520
 3.8840	 5.4110
 3.8870	 5.2140
 3.8900	 5.2890
 3.8930	 5.4710
 3.8960	 5.3740
 3.8990	 5.2990
 3.9020	 5.4590
 3.9050	 5.4990
 3.9080	 5.4480
 3.9110	 5.4410
 3.9140	 5.3430
 3.9160	 5.2480
 3.9190	 5.3650
 3.9220	 5.4620
 3.9250	 5.4270
 3.9280	 5.3470
 3.9310	 5.3020
 3.9340	 5.3620
 3.9370	 5.4420
 3.9400	 5.3510
 3.9430	 5.2790
 3.9460	 5.3960
 3.9490	 5.4290
 3.9520	 5.3870
 3.9550	 5.3970
 3.9580	 5.4710
 3.9610	 5.4810
 3.9640	 5.4340
 3.9670	 5.3740
 3.9700	 5.2490
 3.9730	 5.3170
 3.9770	 5.3890
 3.9800	 5.3520
 3.9830	 5.2940
 3.9860	 5.3470
 3.9890	 5.3410
 3.9920	 5.3220
 3.9950	 5.3760
 3.9980	 5.3860
 4.0010	 5.3170
 4.0040	 5.2850
 4.0070	 5.3040
 4.0100	 5.2940
 4.0130	 5.1890
 4.0170	 5.2890
 4.0200	 5.4030
 4.0230	 5.3360
 4.0260	 5.2980
 4.0290	 5.3430
 4.0320	 5.3860
 4.0350	 5.4850
 4.0380	 5.5230
 4.0420	 5.4690
 4.0450	 5.4610
 4.0480	 5.4590
 4.0510	 5.4200
 4.0540	 5.3930
 4.0570	 5.3170
 4.0610	 5.2220
 4.0640	 5.2980
 4.0670	 5.3310
 4.0700	 5.3680
 4.0730	 5.3650
 4.0770	 5.3230
 4.0800	 5.3390
 4.0830	 5.3290
 4.0860	 5.2960
 4.0890	 5.2780
 4.0930	 5.2990
 4.0960	 5.3800
 4.0990	 5.3680
 4.1020	 5.2980
 4.1060	 5.3820
 4.1090	 5.4860
 4.1120	 5.2830
 4.1150	 4.9710
 4.1190	 5.2640
 4.1220	 5.4860
 4.1250	 5.4430
 4.1280	 5.3720
 4.1320	 5.2700
 4.1350	 5.2270
 4.1380	 5.2560
 4.1420	 5.2860
 4.1450	 5.3920
 4.1480	 5.4500
 4.1520	 5.3910
 4.1550	 5.3230
 4.1580	 5.3170
 4.1620	 5.3030
 4.1650	 5.2310
 4.1680	 5.2780
 4.1720	 5.3630
 4.1750	 5.3380
 4.1780	 5.2520
 4.1820	 5.2460
 4.1850	 5.3430
 4.1890	 5.3240
 4.1920	 5.2810
 4.1950	 5.2570
 4.1990	 5.3620
 4.2020	 5.4320
 4.2060	 5.5300
 4.2090	 5.5360
 4.2120	 5.6880
 4.2160	 5.9920
 4.2190	 5.9670
 4.2230	 5.7940
 4.2260	 5.4140
 4.2300	 5.2420
 4.2330	 5.6230
 4.2360	 5.7320
 4.2400	 5.5520
 4.2430	 5.4810
 4.2470	 5.5430
 4.2500	 5.6320
 4.2540	 5.5950
 4.2570	 5.7180
 4.2610	 5.6460
 4.2640	 5.4260
 4.2680	 5.5040
 4.2710	 5.6520
 4.2750	 5.5880
 4.2780	 5.5380
 4.2820	 5.4750
 4.2850	 5.4800
 4.2890	 5.6040
 4.2930	 5.7230
 4.2960	 5.7920
 4.3000	 5.7530
 4.3030	 5.5990
 4.3070	 5.4090
 4.3100	 5.1740
 4.3140	 5.2220
 4.3180	 5.2590
 4.3210	 5.1670
 4.3250	 5.1120
 4.3280	 5.1810
 4.3320	 5.2690
 4.3360	 5.2380
 4.3390	 5.2170
 4.3430	 5.2060
 4.3470	 5.1750
 4.3500	 5.1510
 4.3540	 5.1210
 4.3570	 5.1140
 4.3610	 5.1530
 4.3650	 5.1070
 4.3680	 5.0570
 4.3720	 5.0650
 4.3760	 5.0140
 4.3800	 5.0520
 4.3830	 5.0510
 4.3870	 5.0200
 4.3910	 5.0030
 4.3940	 5.0000
 4.3980	 5.1000
 4.4020	 5.1360
 4.4060	 5.0470
 4.4090	 4.9890
 4.4130	 4.9810
 4.4170	 4.9510
 4.4210	 4.8530
 4.4240	 4.8740
 4.4280	 4.9220
 4.4320	 4.9320
 4.4360	 4.8880
 4.4400	 4.9010
 4.4430	 4.8800
 4.4470	 4.8700
 4.4510	 5.0260
 4.4550	 5.1000
 4.4590	 4.9570
 4.4620	 4.8950
 4.4660	 4.9630
 4.4700	 4.9550
 4.4740	 4.9210
 4.4780	 4.8830
 4.4820	 4.8740
 4.4860	 4.9570
 4.4900	 4.9580
 4.4930	 4.9880
 4.4970	 5.0410
 4.5010	 4.9920
 4.5050	 4.8600
 4.5090	 4.7460
 4.5130	 4.8030
 4.5170	 4.8680
 4.5210	 4.8870
 4.5250	 4.8290
 4.5290	 4.8560
 4.5330	 4.9230
 4.5370	 4.9200
 4.5410	 4.8840
 4.5450	 4.8070
 4.5490	 4.9580
 4.5530	 4.9550
 4.5570	 4.8170
 4.5610	 4.7500
 4.5650	 4.7770
 4.5690	 4.7860
 4.5730	 4.8110
 4.5770	 4.7660
 4.5810	 4.7410
 4.5850	 4.8390
 4.5890	 4.8550
 4.5930	 4.7520
 4.5970	 4.7350
 4.6010	 4.7110
 4.6050	 4.6730
 4.6090	 4.7460
 4.6130	 4.8700
 4.6170	 4.8520
 4.6220	 4.6890
 4.6260	 4.5940
 4.6300	 4.8060
 4.6340	 5.0350
 4.6380	 4.9410
 4.6420	 4.7350
 4.6460	 4.7120
 4.6510	 4.7910
 4.6550	 4.8040
 4.6590	 4.8080
 4.6630	 4.8140
 4.6670	 4.8240
 4.6720	 4.7990
 4.6760	 4.7890
 4.6800	 4.8890
 4.6840	 4.8170
 4.6880	 4.6910
 4.6930	 4.7120
 4.6970	 4.7370
 4.7010	 4.7760
 4.7050	 4.7490
 4.7100	 4.7000
 4.7140	 4.6900
 4.7180	 4.6470
 4.7230	 4.6790
 4.7270	 4.7310
 4.7310	 4.8230
 4.7360	 4.8420
 4.7400	 4.7500
 4.7440	 4.6870
 4.7490	 4.7400
 4.7530	 4.7490
 4.7570	 4.8320
 4.7620	 4.7380
 4.7660	 4.6980
 4.7700	 4.7650
 4.7750	 4.8010
 4.7790	 4.7780
 4.7840	 4.5590
 4.7880	 4.2470
 4.7920	 4.1170
 4.7970	 4.5050
 4.8010	 4.8030
 4.8060	 4.8680
 4.8100	 4.8350
 4.8150	 4.7470
 4.8190	 4.8140
 4.8240	 4.7870
 4.8280	 4.7690
 4.8330	 4.6810
 4.8370	 4.6250
 4.8420	 4.6360
 4.8460	 4.6370
 4.8510	 4.6680
 4.8550	 4.6750
 4.8600	 4.7150
 4.8640	 4.7110
 4.8690	 4.7160
 4.8730	 4.7370
 4.8780	 4.7240
 4.8830	 4.7380
 4.8870	 4.7250
 4.8920	 4.7290
 4.8960	 4.6880
 4.9010	 4.6260
 4.9060	 4.5830
 4.9100	 4.6440
 4.9150	 4.5770
 4.9200	 4.6100
 4.9240	 4.6720
 4.9290	 4.6970
 4.9340	 4.6440
 4.9380	 4.5880
 4.9430	 4.6220
 4.9480	 4.6980
 4.9530	 4.7490
 4.9570	 4.8180
 4.9620	 4.7860
 4.9670	 4.7750
 4.9720	 4.7640
 4.9760	 4.7570
 4.9810	 4.7080
 4.9860	 4.7030
 4.9910	 4.7380
 4.9960	 4.8160
 5.0000	 4.7870
 5.0050	 4.8110
 5.0100	 4.8310
 5.0150	 4.8310
 5.0200	 4.7970
 5.0250	 4.7750
 5.0290	 4.7980
 5.0340	 4.8570
 5.0390	 4.7780
 5.0440	 4.7770
 5.0490	 4.7970
 5.0540	 4.7870
 5.0590	 4.8050
 5.0640	 4.7710
 5.0690	 4.7440
 5.0740	 4.8290
 5.0790	 4.8600
 5.0840	 4.9090
 5.0890	 4.8330
 5.0940	 4.7030
 5.0990	 4.6370
 5.1040	 4.6780
 5.1090	 4.7280
 5.1140	 4.7690
 5.1190	 4.7390
 5.1240	 4.7730
 5.1290	 4.8170
 5.1340	 4.8650
 5.1390	 4.7680
 5.1440	 4.7480
 5.1490	 4.7630
 5.1540	 4.8420
 5.1600	 4.8930
 5.1650	 4.8870
 5.1700	 4.7790
 5.1750	 4.7990
 5.1800	 4.7720
 5.1850	 4.8560
 5.1910	 4.9330
 5.1960	 4.9410
 5.2010	 4.8190
 5.2060	 4.8370
 5.2110	 4.8540
 5.2170	 4.8320
 5.2220	 4.8560
 5.2270	 4.8920
 5.2320	 4.8080
 5.2380	 4.8440
 5.2430	 4.8580
 5.2480	 4.8530
 5.2540	 4.8270
 5.2590	 4.8200
 5.2640	 4.7770
 5.2700	 4.7850
 5.2750	 4.7560
 5.2800	 4.7380
 5.2860	 4.7220
 5.2910	 4.8320
 5.2970	 4.8110
 5.3020	 4.7950
 5.3070	 4.7260
 5.3130	 4.7560
 5.3180	 4.7720
 5.3240	 4.8080
 5.3290	 4.8450
 5.3350	 4.8560
 5.3400	 4.7220
 5.3460	 4.7040
 5.3510	 4.8080
 5.3570	 4.8550
 5.3620	 4.7450
 5.3680	 4.6900
 5.3730	 4.6560
 5.3790	 4.6720
 5.3850	 4.6750
 5.3900	 4.7220
 5.3960	 4.6650
 5.4010	 4.6880
 5.4070	 4.6420
 5.4130	 4.5940
 5.4180	 4.6660
 5.4240	 4.8110
 5.4300	 4.7380
 5.4350	 4.6510
 5.4410	 4.5010
 5.4470	 4.5100
 5.4530	 4.5750
 5.4580	 4.5130
 5.4640	 4.5150
 5.4700	 4.6170
 5.4760	 4.6100
 5.4810	 4.6100
 5.4870	 4.4820
 5.4930	 4.4260
 5.4990	 4.3950
 5.5050	 4.4080
 5.5110	 4.3430
 5.5160	 4.3290
 5.5220	 4.3320
 5.5280	 4.3330
 5.5340	 4.3280
 5.5400	 4.4110
 5.5460	 4.3890
 5.5520	 4.2810
 5.5580	 4.2140
 5.5640	 4.2780
 5.5700	 4.2110
 5.5760	 4.1460
 5.5820	 4.0570
 5.5880	 4.0480
 5.5940	 4.0010
 5.6000	 4.0720
 5.6060	 4.0450
 5.6120	 3.9590
 5.6180	 3.8640
 5.6240	 3.8720
 5.6300	 3.8620
 5.6360	 3.8320
 5.6420	 3.7770
 5.6490	 3.8680
 5.6550	 3.8570
 5.6610	 3.8430
 5.6670	 3.7830
 5.6730	 3.7460
 5.6800	 3.6430
 5.6860	 3.5700
 5.6920	 3.5090
 5.6980	 3.5720
 5.7040	 3.5210
 5.7110	 3.5150
 5.7170	 3.4130
 5.7230	 3.3240
 5.7300	 3.2480
 5.7360	 3.2470
 5.7420	 3.2670
 5.7490	 3.3810
 5.7550	 3.3630
 5.7620	 3.3610
 5.7680	 3.3440
 5.7740	 3.4170
 5.7810	 3.3750
 5.7870	 3.4850
 5.7940	 3.5570
 5.8000	 3.6010
 5.8070	 3.6710
 5.8130	 3.7430
 5.8200	 3.7360
 5.8260	 3.8360
 5.8330	 3.9770
 5.8390	 4.1780
 5.8460	 4.1300
 5.8530	 4.0620
 5.8590	 4.0540
 5.8660	 4.1740
 5.8720	 4.1600
 5.8790	 4.2770
 5.8860	 4.3700
 5.8920	 4.3850
 5.8990	 4.2990
 5.9060	 4.4840
 5.9130	 4.5450
 5.9190	 4.4720
 5.9260	 4.3970
 5.9330	 4.4150
 5.9400	 4.3980
 5.9470	 4.4750
 5.9530	 4.4130
 5.9600	 4.4170
 5.9670	 4.3600
 5.9740	 4.3500
 5.9810	 4.3780
 5.9880	 4.4600
 5.9950	 4.4220
 6.0020	 4.4140
 6.0090	 4.2730
 6.0160	 4.2640
 6.0230	 4.1170
 6.0300	 4.1430
 6.0370	 4.1930
 6.0440	 4.1740
 6.0510	 4.0750
 6.0580	 4.2290
 6.0650	 4.2750
 6.0720	 4.4010
 6.0790	 4.4050
 6.0860	 4.3180
 6.0930	 4.2010
 6.1000	 4.2990
 6.1080	 4.2560
 6.1150	 4.4220
 6.1220	 4.4330
 6.1290	 4.4920
 6.1370	 4.5840
 6.1440	 4.6000
 6.1510	 4.5280
 6.1580	 4.6870
 6.1660	 4.7230
 6.1730	 4.6810
 6.1800	 4.5890
 6.1880	 4.5650
 6.1950	 4.5200
 6.2030	 4.6180
 6.2100	 4.5680
 6.2170	 4.5950
 6.2250	 4.6340
 6.2320	 4.6030
 6.2400	 4.3920
 6.2470	 4.6030
 6.2550	 4.7660
 6.2630	 4.7020
 6.2700	 4.5280
 6.2780	 4.5270
 6.2850	 4.4650
 6.2930	 4.5980
 6.3010	 4.6610
 6.3080	 4.7960
 6.3160	 4.6960
 6.3240	 4.6250
 6.3310	 4.6270
 6.3390	 4.7310
 6.3470	 4.6480
 6.3550	 4.6740
 6.3620	 4.6870
 6.3700	 4.6480
 6.3780	 4.4960
 6.3860	 4.6240
 6.3940	 4.6850
 6.4020	 4.7160
 6.4100	 4.6340
 6.4180	 4.7010
 6.4260	 4.6820
 6.4330	 4.6280
 6.4410	 4.4500
 6.4490	 4.5780
 6.4580	 4.6140
 6.4660	 4.6810
 6.4740	 4.5900
 6.4820	 4.5940
 6.4900	 4.5490
 6.4980	 4.6650
 6.5060	 4.5500
 6.5140	 4.5110
 6.5230	 4.4580
 6.5310	 4.4710
 6.5390	 4.4860
 6.5470	 4.5580
 6.5550	 4.4620
 6.5640	 4.4840
 6.5720	 4.3080
 6.5800	 4.2080
 6.5890	 4.2140
 6.5970	 4.2610
 6.6060	 4.1740
 6.6140	 4.1680
 6.6220	 4.0660
 6.6310	 4.1180
 6.6390	 4.1670
 6.6480	 4.3010
 6.6560	 4.1520
 6.6650	 4.1450
 6.6740	 4.1440
 6.6820	 4.2640
 6.6910	 4.2270
 6.6990	 4.0780
 6.7080	 3.9350
 6.7170	 4.0270
 6.7260	 4.0190
 6.7340	 4.1190
 6.7430	 4.0390
 6.7520	 4.0200
 6.7610	 3.8870
 6.7690	 3.9750
 6.7780	 4.1820
 6.7870	 4.7130
 6.7960	 4.7560
 6.8050	 4.3150
 6.8140	 4.0370
 6.8230	 4.2680
 6.8320	 4.7210
 6.8410	 5.0070
 6.8500	 4.6540
 6.8590	 4.4480
 6.8680	 4.3260
 6.8770	 4.3170
 6.8860	 4.2090
 6.8950	 4.2570
 6.9050	 4.1310
 6.9140	 4.2070
 6.9230	 4.1630
 6.9320	 4.2820
 6.9420	 4.2530
 6.9510	 4.1690
 6.9600	 4.1100
 6.9700	 4.1700
 6.9790	 4.0310
 6.9880	 4.0370
 6.9980	 4.0210
 7.0070	 4.1250
 7.0170	 4.0460
 7.0260	 4.1280
 7.0360	 4.0780
 7.0450	 4.0110
 7.0550	 4.0510
 7.0650	 4.1820
 7.0740	 4.1850
 7.0840	 4.2000
 7.0940	 4.0910
 7.1030	 4.1650
 7.1130	 4.0830
 7.1230	 4.1060
 7.1330	 3.9740
 7.1420	 3.9660
 7.1520	 4.0000
 7.1620	 4.0210
 7.1720	 3.8280
 7.1820	 3.9630
 7.1920	 3.9730
 7.2020	 3.9740
 7.2120	 3.8740
 7.2220	 3.9750
 7.2320	 3.9670
 7.2420	 4.0580
 7.2520	 4.0040
 7.2620	 4.0570
 7.2730	 4.0460
 7.2830	 4.0780
 7.2930	 3.9280
 7.3030	 3.9570
 7.3140	 3.8540
 7.3240	 3.9380
 7.3340	 3.9020
 7.3450	 3.9870
 7.3550	 3.9230
 7.3660	 4.0170
 7.3760	 3.9840
 7.3870	 4.0200
 7.3970	 3.8620
 7.4080	 3.9200
 7.4180	 3.9210
 7.4290	 3.9510
 7.4400	 3.9410
 7.4500	 4.1220
 7.4610	 4.0260
 7.4720	 3.9760
 7.4830	 3.8750
 7.4930	 3.9640
 7.5040	 3.9130
 7.5150	 3.8740
 7.5260	 3.8370
 7.5370	 3.9740
 7.5480	 3.8600
 7.5590	 3.9130
 7.5700	 3.9380
 7.5810	 3.9440
 7.5920	 3.8970
 7.6030	 4.0860
 7.6140	 4.0790
 7.6260	 4.1530
 7.6370	 4.0380
 7.6480	 4.0920
 7.6590	 4.0510
 7.6710	 3.9880
 7.6820	 3.8340
 7.6930	 3.9720
 7.7050	 3.9890
 7.7160	 4.0960
 7.7280	 3.9060
 7.7390	 3.8270
 7.7510	 3.6360
 7.7630	 3.6750
 7.7740	 3.7160
 7.7860	 3.7880
 7.7980	 3.7190
 7.8090	 3.7920
 7.8210	 3.7190
 7.8330	 3.7950
 7.8450	 3.7330
 7.8570	 3.7140
 7.8690	 3.6290
 7.8810	 3.8150
 7.8930	 3.7720
 7.9050	 3.7760
 7.9170	 3.7050
 7.9290	 3.8760
 7.9410	 3.8010
 7.9530	 3.8360
 7.9650	 3.7720
 7.9780	 3.8870
 7.9900	 3.9120
 8.0020	 3.9240
 8.0150	 3.9390
 8.0270	 4.0470
 8.0390	 3.9280
 8.0520	 4.0340
 8.0640	 3.9370
 8.0770	 4.0100
 8.0900	 3.8730
 8.1020	 3.9470
 8.1150	 3.9460
 8.1280	 4.0770
 8.1400	 4.0380
 8.1530	 4.1770
 8.1660	 4.1640
 8.1790	 4.1470
 8.1920	 4.0490
 8.2050	 4.1860
 8.2180	 4.0860
 8.2310	 4.0840
 8.2440	 3.8550
 8.2570	 4.0080
 8.2700	 4.0520
 8.2830	 4.1290
 8.2970	 3.9210
 8.3100	 4.1280
 8.3230	 4.1120
 8.3370	 4.2040
 8.3500	 4.2030
 8.3640	 4.2770
 8.3770	 4.1760
 8.3910	 4.2420
 8.4040	 4.1900
 8.4180	 4.4650
 8.4320	 4.3500
 8.4450	 4.3880
 8.4590	 4.2610
 8.4730	 4.2180
 8.4870	 4.0910
 8.5010	 4.3670
 8.5150	 4.4100
 8.5290	 4.5000
 8.5430	 4.3970
 8.5570	 4.6090
 8.5710	 4.4810
 8.5850	 4.6220
 8.5990	 4.6350
 8.6140	 4.8500
 8.6280	 4.8240
 8.6420	 4.9050
 8.6570	 4.6590
 8.6710	 4.8700
 8.6860	 4.9560
 8.7000	 4.9800
 8.7150	 4.7700
 8.7300	 4.9430
 8.7440	 4.9020
 8.7590	 5.1060
 8.7740	 5.1290
 8.7890	 5.3100
 8.8040	 5.1020
 8.8190	 5.0700
 8.8340	 4.7890
 8.8490	 4.9680
 8.8640	 4.8960
 8.8790	 5.0120
 8.8940	 5.0030
 8.9100	 5.3070
 8.9250	 5.2570
 8.9400	 5.1450
 8.9560	 4.8780
 8.9710	 5.0780
 8.9870	 5.0620
 9.0020	 5.1210
 9.0180	 4.9840
 9.0340	 5.1740
 9.0500	 5.0380
 9.0650	 5.1210
 9.0810	 4.9940
 9.0970	 5.0320
 9.1130	 4.9440
 9.1290	 5.1430
 9.1450	 4.9480
 9.1610	 5.0160
 9.1780	 4.9660
 9.1940	 5.1230
 9.2100	 5.1320
 9.2270	 5.2710
 9.2430	 4.9660
 9.2600	 4.9210
 9.2760	 4.8520
 9.2930	 4.9610
 9.3090	 4.8950
 9.3260	 5.2490
 9.3430	 5.0150
 9.3600	 4.9420
 9.3770	 4.9440
 9.3940	 5.1380
 9.4110	 4.9430
 9.4280	 5.2470
 9.4450	 5.2330
 9.4620	 5.2630
 9.4800	 5.0510
 9.4970	 5.2580
 9.5140	 4.9920
 9.5320	 5.2100
 9.5500	 5.1890
 9.5670	 5.2570
 9.5850	 5.0180
 9.6030	 5.1810
 9.6200	 5.1040
 9.6380	 5.3920
 9.6560	 5.2660
 9.6740	 5.4040
 9.6920	 5.3080
 9.7100	 5.3960
 9.7290	 5.3310
 9.7470	 5.4970
 9.7650	 5.2830
 9.7840	 5.2860
 9.8020	 5.1790
 9.8210	 5.4420
 9.8390	 5.3110
 9.8580	 5.2720
 9.8770	 5.0250
 9.8960	 5.0950
 9.9150	 4.8680
 9.9340	 5.0590
 9.9530	 5.0930
 9.9720	 5.2900
 9.9910	 5.1320
10.0100	 5.1700
10.0300	 5.1510
10.0490	 5.3020
10.0690	 5.1700
10.0880	 5.2430
10.1080	 4.9630
10.1280	 5.0680
10.1480	 4.9690
10.1670	 5.0630
10.1870	 4.9220
10.2070	 5.0620
10.2280	 4.8170
10.2480	 4.7840
10.2680	 4.5660
10.2890	 4.8050
10.3090	 4.8080
10.3300	 4.8770
10.3500	 4.6730
10.3710	 4.7850
10.3920	 4.6710
10.4120	 4.8870
10.4330	 4.8190
10.4540	 4.8590
10.4760	 4.6890
10.4970	 4.9020
10.5180	 4.6740
10.5390	 4.8810
10.5610	 5.0560
10.5820	 5.1410
10.6040	 4.8020
10.6260	 4.9320
10.6480	 4.7440
10.6700	 4.9220
10.6920	 4.7340
10.7140	 4.8030
10.7360	 4.6880
10.7580	 4.7730
10.7800	 4.4990
10.8030	 4.6730
10.8250	 4.6380
10.8480	 4.8450
10.8710	 4.8880
10.8940	 5.0330
10.9170	 4.6890
10.9400	 4.8120
10.9630	 4.8020
10.9860	 4.9100
11.0090	 4.8220
11.0330	 4.9910
11.0560	 4.5560
11.0800	 4.6100
11.1040	 4.5510
11.1270	 4.5410
11.1510	 4.4660
11.1750	 4.6310
11.2000	 4.4960
11.2240	 4.7490
11.2480	 4.4630
11.2730	 4.1630
11.2970	 3.8350
11.3220	 4.6660
11.3470	 4.7190
11.3720	 4.8720
11.3970	 4.6760
11.4220	 4.7780
11.4470	 4.6670
11.4720	 4.9740
11.4980	 4.7850
11.5230	 5.0300
11.5490	 4.7870
11.5750	 4.8260
11.6000	 4.5910
11.6260	 4.5860
11.6530	 4.2970
11.6790	 4.5380
11.7050	 4.4160
11.7320	 4.5470
11.7580	 4.4880
11.7850	 4.6930
11.8120	 4.3170
11.8390	 4.5130
11.8660	 4.1140
11.8930	 4.2240
11.9200	 4.2610
11.9480	 4.6240
11.9760	 4.3440
12.0030	 4.3680
12.0310	 4.3880
12.0590	 4.7770
12.0870	 4.2960
12.1150	 4.3670
12.1440	 4.3850
12.1720	 4.8470
12.2010	 4.6890
12.2300	 5.0470
12.2590	 4.8710
12.2880	 4.9370
12.3170	 4.7040
12.3460	 4.9390
12.3760	 4.6890
12.4050	 4.9930
12.4350	 4.9120
12.4650	 5.0890
12.4950	 4.6150
12.5250	 4.5910
12.5550	 4.7790
12.5860	 5.2920
12.6170	 5.0540
12.6470	 5.0950
12.6780	 4.7980
12.7090	 5.0290
12.7410	 4.7950
12.7720	 5.0750
12.8030	 4.9360
12.8350	 5.3310
12.8670	 5.1040
12.8990	 5.0440
12.9310	 4.7090
12.9640	 5.1040
12.9960	 4.8890
13.0290	 4.9650
13.0610	 4.8050
13.0940	 5.2910
13.1280	 5.0920
13.1610	 5.4050
13.1940	 5.2650
13.2280	 5.3610
13.2620	 4.8480
13.2960	 5.0230
13.3300	 4.8820
13.3640	 5.1930
13.3990	 4.6570
13.4340	 4.9310
13.4690	 5.0390
13.5040	 5.4700
13.5390	 4.9100
13.5740	 4.9640
13.6100	 4.7620
13.6460	 5.0010
13.6820	 4.8230
13.7180	 5.3970
13.7540	 5.0780
13.7910	 5.0970
13.8280	 4.5540
13.8650	 5.2410
13.9020	 5.0900
13.9390	 4.9570
13.9770	 4.4570
14.0150	 4.7570
14.0530	 4.6140
14.0910	 5.4530
14.1290	 5.2150
14.1680	 5.2930
14.2070	 4.9350
14.2460	 5.3300
14.2850	 4.8200
14.3240	 4.8350
14.3640	 4.2640
14.4040	 4.7650
14.4440	 4.7340
14.4840	 5.1580
14.5250	 4.5900
14.5660	 5.0530
14.6070	 4.5480
14.6480	 5.0790
14.6900	 4.5280
14.7310	 4.7550
14.7730	 4.3840
14.8150	 4.9230
14.8580	 4.2670
14.9010	 4.8400
14.9440	 3.9440
14.9870	 5.0690
15.0300	 4.4300
15.0740	 4.7620
15.1180	 4.0630
15.1620	 4.6160
15.2060	 4.0730
15.2510	 5.1890
15.2960	 4.9330
15.3410	 5.2960
15.3870	 4.1520
