Name: Quercus douglasii 1
Type: vegetation
Class: Tree
Genus: Quercus
Species: douglasii
Sample No.: VH074
Owner: UCSB
Wavelength Range: TIR
Origin: 34.7153; -120.0598; WGS84
Collection Date: 4/21/2013
Description: Samples were collected as part of the HyspIRI Airborne Campaign. 48 individual plants were sampled in three times in 2013 - spring  summer  and fall. The name of the sample includes a 1  2  or 3 which references a different individual of the species. Samples were taken to JPL and processed within 48 hours of collection. The same leaves were processed in the Nicolet and then measured using the ASD.
Measurement: Hemispherical reflectance
First Column: X
Second Column: Y
X Units: Wavelength (micrometers)
Y Units: Reflectance (percentage)
First X Value: 2.501
Last X Value: 15.387
Number of X Values: 1737
Additional Information: vegetation.tree.quercus.douglasii.tir.vh074.ucsb.nicolet.ancillary.txt

 2.5010	 6.6100
 2.5030	 6.5150
 2.5040	 6.6460
 2.5050	 6.6180
 2.5060	 6.6150
 2.5070	 6.5060
 2.5090	 6.5190
 2.5100	 6.6850
 2.5110	 6.7530
 2.5120	 6.5140
 2.5140	 6.4290
 2.5150	 6.3940
 2.5160	 6.4900
 2.5170	 6.5320
 2.5180	 6.5840
 2.5200	 6.6450
 2.5210	 6.7190
 2.5220	 6.6700
 2.5230	 6.5850
 2.5250	 6.6010
 2.5260	 6.6330
 2.5270	 6.6060
 2.5280	 6.6620
 2.5290	 6.5700
 2.5310	 6.5690
 2.5320	 6.5250
 2.5330	 6.4740
 2.5340	 6.4220
 2.5360	 6.5740
 2.5370	 6.6420
 2.5380	 6.6600
 2.5390	 6.5860
 2.5410	 6.7130
 2.5420	 6.6170
 2.5430	 6.4800
 2.5440	 6.4370
 2.5460	 6.5930
 2.5470	 6.6120
 2.5480	 6.6070
 2.5490	 6.5640
 2.5510	 6.6410
 2.5520	 6.6160
 2.5530	 6.6270
 2.5540	 6.6580
 2.5560	 6.6790
 2.5570	 6.6270
 2.5580	 6.6660
 2.5590	 6.5990
 2.5610	 6.6440
 2.5620	 6.6940
 2.5630	 6.7550
 2.5640	 6.6080
 2.5660	 6.5760
 2.5670	 6.6320
 2.5680	 6.6970
 2.5700	 6.6890
 2.5710	 6.6720
 2.5720	 6.5280
 2.5730	 6.5360
 2.5750	 6.5970
 2.5760	 6.7120
 2.5770	 6.6790
 2.5790	 6.7270
 2.5800	 6.6090
 2.5810	 6.5660
 2.5820	 6.5860
 2.5840	 6.6750
 2.5850	 6.6270
 2.5860	 6.7040
 2.5880	 6.6590
 2.5890	 6.5920
 2.5900	 6.5870
 2.5910	 6.5910
 2.5930	 6.5180
 2.5940	 6.6310
 2.5950	 6.5950
 2.5970	 6.4900
 2.5980	 6.4290
 2.5990	 6.5050
 2.6000	 6.4780
 2.6020	 6.4640
 2.6030	 6.3860
 2.6040	 6.3850
 2.6060	 6.4040
 2.6070	 6.4160
 2.6080	 6.3500
 2.6100	 6.4270
 2.6110	 6.3470
 2.6120	 6.2190
 2.6140	 6.1180
 2.6150	 6.2510
 2.6160	 6.3110
 2.6180	 6.2570
 2.6190	 6.1090
 2.6200	 6.1390
 2.6220	 6.0700
 2.6230	 6.0800
 2.6240	 6.1160
 2.6260	 6.1510
 2.6270	 6.1190
 2.6280	 6.1270
 2.6300	 6.1030
 2.6310	 6.0490
 2.6320	 5.8810
 2.6340	 5.9370
 2.6350	 5.9370
 2.6360	 5.8470
 2.6380	 5.8310
 2.6390	 5.9390
 2.6400	 5.9280
 2.6420	 5.9920
 2.6430	 5.8930
 2.6440	 5.8650
 2.6460	 5.8880
 2.6470	 5.9410
 2.6480	 5.8230
 2.6500	 5.7920
 2.6510	 5.7630
 2.6520	 5.8050
 2.6540	 5.6980
 2.6550	 5.6420
 2.6560	 5.5110
 2.6580	 5.5250
 2.6590	 5.5790
 2.6610	 5.6070
 2.6620	 5.5460
 2.6630	 5.6130
 2.6650	 5.6670
 2.6660	 5.5990
 2.6670	 5.4540
 2.6690	 5.4810
 2.6700	 5.5870
 2.6720	 5.6290
 2.6730	 5.5200
 2.6740	 5.4730
 2.6760	 5.4130
 2.6770	 5.4820
 2.6780	 5.4220
 2.6800	 5.3690
 2.6810	 5.2740
 2.6830	 5.2910
 2.6840	 5.1780
 2.6850	 5.2520
 2.6870	 5.2730
 2.6880	 5.3020
 2.6900	 5.2580
 2.6910	 5.2800
 2.6920	 5.1640
 2.6940	 5.2330
 2.6950	 5.2230
 2.6970	 5.1780
 2.6980	 5.0340
 2.6990	 5.0300
 2.7010	 5.1050
 2.7020	 5.0700
 2.7040	 4.9470
 2.7050	 4.9170
 2.7060	 4.8380
 2.7080	 4.9220
 2.7090	 4.8630
 2.7110	 4.7310
 2.7120	 4.7570
 2.7130	 4.8100
 2.7150	 4.6510
 2.7160	 4.5830
 2.7180	 4.6200
 2.7190	 4.6620
 2.7210	 4.5680
 2.7220	 4.6000
 2.7230	 4.5750
 2.7250	 4.6010
 2.7260	 4.3990
 2.7280	 4.2860
 2.7290	 4.2180
 2.7310	 4.2240
 2.7320	 4.1390
 2.7330	 4.1770
 2.7350	 4.0650
 2.7360	 4.0820
 2.7380	 4.1310
 2.7390	 4.1120
 2.7410	 3.9060
 2.7420	 3.9310
 2.7440	 3.9690
 2.7450	 4.0700
 2.7470	 3.8930
 2.7480	 3.8380
 2.7490	 3.8170
 2.7510	 3.7820
 2.7520	 3.7150
 2.7540	 3.7050
 2.7550	 3.6660
 2.7570	 3.7620
 2.7580	 3.6650
 2.7600	 3.6840
 2.7610	 3.6240
 2.7630	 3.6280
 2.7640	 3.5370
 2.7660	 3.6460
 2.7670	 3.6420
 2.7680	 3.5590
 2.7700	 3.4920
 2.7710	 3.5160
 2.7730	 3.6390
 2.7740	 3.6300
 2.7760	 3.3540
 2.7770	 3.2870
 2.7790	 3.3320
 2.7800	 3.5110
 2.7820	 3.4620
 2.7830	 3.4470
 2.7850	 3.2960
 2.7860	 3.1840
 2.7880	 3.1180
 2.7890	 3.2430
 2.7910	 3.3060
 2.7920	 3.3050
 2.7940	 3.2430
 2.7950	 3.2130
 2.7970	 3.1440
 2.7980	 3.2540
 2.8000	 3.3030
 2.8010	 3.3760
 2.8030	 3.2570
 2.8040	 3.1360
 2.8060	 3.0620
 2.8070	 3.1030
 2.8090	 3.1100
 2.8110	 3.0990
 2.8120	 3.0110
 2.8140	 3.0770
 2.8150	 2.9990
 2.8170	 3.0240
 2.8180	 3.0480
 2.8200	 3.0740
 2.8210	 2.9730
 2.8230	 3.0620
 2.8240	 3.0180
 2.8260	 3.0200
 2.8270	 2.9360
 2.8290	 2.9720
 2.8300	 2.9910
 2.8320	 3.0440
 2.8340	 2.9840
 2.8350	 2.9370
 2.8370	 2.8810
 2.8380	 2.9010
 2.8400	 2.8100
 2.8410	 2.8860
 2.8430	 2.9330
 2.8440	 2.9970
 2.8460	 2.9020
 2.8480	 2.8830
 2.8490	 2.8660
 2.8510	 3.0230
 2.8520	 2.9730
 2.8540	 2.9030
 2.8550	 2.8150
 2.8570	 2.9050
 2.8590	 2.9420
 2.8600	 2.9610
 2.8620	 2.8480
 2.8630	 2.9110
 2.8650	 2.8590
 2.8660	 2.9310
 2.8680	 2.8980
 2.8700	 2.8830
 2.8710	 2.8610
 2.8730	 2.9230
 2.8740	 2.8820
 2.8760	 2.9080
 2.8780	 2.7810
 2.8790	 2.7580
 2.8810	 2.7790
 2.8820	 2.9960
 2.8840	 2.7480
 2.8860	 2.6390
 2.8870	 2.7520
 2.8890	 2.8520
 2.8900	 2.7790
 2.8920	 2.8730
 2.8940	 2.9200
 2.8950	 2.9170
 2.8970	 2.7890
 2.8980	 2.8150
 2.9000	 2.7610
 2.9020	 2.8100
 2.9030	 2.6580
 2.9050	 2.5980
 2.9070	 2.7340
 2.9080	 3.0270
 2.9100	 2.9410
 2.9120	 2.8800
 2.9130	 2.7780
 2.9150	 2.7660
 2.9160	 2.7200
 2.9180	 2.8120
 2.9200	 2.8160
 2.9210	 2.7830
 2.9230	 2.7150
 2.9250	 2.7790
 2.9260	 2.7850
 2.9280	 2.8330
 2.9300	 2.8040
 2.9310	 2.7310
 2.9330	 2.6510
 2.9350	 2.8630
 2.9360	 2.8550
 2.9380	 2.7820
 2.9400	 2.7840
 2.9410	 2.9580
 2.9430	 2.9480
 2.9450	 2.8120
 2.9460	 2.7340
 2.9480	 2.7980
 2.9500	 2.7510
 2.9510	 2.7900
 2.9530	 2.7690
 2.9550	 2.8650
 2.9560	 2.8330
 2.9580	 2.9030
 2.9600	 2.9850
 2.9610	 2.9000
 2.9630	 2.9600
 2.9650	 3.0390
 2.9660	 2.7880
 2.9680	 2.7910
 2.9700	 2.5590
 2.9720	 2.3190
 2.9730	 2.6490
 2.9750	 2.9170
 2.9770	 3.0480
 2.9780	 3.2240
 2.9800	 2.9440
 2.9820	 2.7540
 2.9840	 2.7130
 2.9850	 3.0850
 2.9870	 2.8620
 2.9890	 2.3040
 2.9900	 2.3940
 2.9920	 2.8540
 2.9940	 2.6230
 2.9960	 2.7650
 2.9970	 2.9040
 2.9990	 2.9430
 3.0010	 2.8960
 3.0030	 2.9310
 3.0040	 2.8860
 3.0060	 2.9460
 3.0080	 2.7850
 3.0100	 2.6650
 3.0110	 2.6110
 3.0130	 2.8910
 3.0150	 2.7890
 3.0170	 2.8710
 3.0180	 2.9690
 3.0200	 3.0260
 3.0220	 3.0960
 3.0240	 3.0450
 3.0250	 2.9300
 3.0270	 2.9200
 3.0290	 2.9220
 3.0310	 3.0450
 3.0320	 3.0190
 3.0340	 2.5660
 3.0360	 2.1260
 3.0380	 2.3320
 3.0400	 3.2170
 3.0410	 3.6960
 3.0430	 3.6110
 3.0450	 3.3960
 3.0470	 3.4850
 3.0480	 3.5050
 3.0500	 3.1360
 3.0520	 2.5890
 3.0540	 1.9590
 3.0560	 2.4180
 3.0570	 3.1480
 3.0590	 3.3610
 3.0610	 3.0390
 3.0630	 2.8480
 3.0650	 2.7130
 3.0660	 2.7540
 3.0680	 2.7650
 3.0700	 2.9830
 3.0720	 3.0580
 3.0740	 3.0500
 3.0760	 3.0230
 3.0770	 3.0260
 3.0790	 3.0070
 3.0810	 3.1670
 3.0830	 3.2120
 3.0850	 3.1380
 3.0870	 3.0150
 3.0880	 2.9110
 3.0900	 2.8920
 3.0920	 3.0650
 3.0940	 3.1040
 3.0960	 3.1040
 3.0980	 3.1050
 3.0990	 3.1520
 3.1010	 3.1530
 3.1030	 3.0620
 3.1050	 3.0230
 3.1070	 3.0670
 3.1090	 2.9120
 3.1110	 3.1560
 3.1120	 3.2860
 3.1140	 3.3320
 3.1160	 3.2230
 3.1180	 3.1390
 3.1200	 3.0700
 3.1220	 3.0810
 3.1240	 3.0440
 3.1260	 3.1210
 3.1270	 3.0660
 3.1290	 3.0490
 3.1310	 3.1250
 3.1330	 3.2740
 3.1350	 3.1790
 3.1370	 3.2560
 3.1390	 3.4180
 3.1410	 3.3360
 3.1430	 3.2770
 3.1450	 3.4070
 3.1460	 3.2340
 3.1480	 3.2050
 3.1500	 3.1540
 3.1520	 3.2220
 3.1540	 3.2780
 3.1560	 3.3320
 3.1580	 3.1820
 3.1600	 3.3200
 3.1620	 3.3590
 3.1640	 3.1530
 3.1660	 2.9100
 3.1680	 3.4730
 3.1700	 3.8190
 3.1710	 3.4790
 3.1730	 3.1150
 3.1750	 3.3260
 3.1770	 3.5030
 3.1790	 3.3590
 3.1810	 3.2260
 3.1830	 3.3930
 3.1850	 3.6990
 3.1870	 3.7470
 3.1890	 3.5760
 3.1910	 3.3070
 3.1930	 3.3030
 3.1950	 3.3800
 3.1970	 3.4110
 3.1990	 3.3620
 3.2010	 3.3050
 3.2030	 3.4190
 3.2050	 3.4040
 3.2070	 3.4810
 3.2090	 3.4730
 3.2110	 3.5010
 3.2130	 3.4950
 3.2150	 3.5030
 3.2170	 3.5310
 3.2190	 3.5820
 3.2210	 3.5030
 3.2230	 3.4910
 3.2250	 3.5490
 3.2270	 3.6150
 3.2290	 3.5420
 3.2310	 3.4930
 3.2330	 3.4610
 3.2350	 3.5400
 3.2370	 3.5930
 3.2390	 3.6390
 3.2410	 3.6140
 3.2430	 3.5900
 3.2450	 3.5850
 3.2470	 3.6280
 3.2490	 3.6140
 3.2510	 3.5780
 3.2530	 3.4810
 3.2550	 3.5800
 3.2570	 3.6480
 3.2590	 3.5780
 3.2610	 3.5310
 3.2630	 3.5770
 3.2650	 3.5510
 3.2670	 3.5970
 3.2690	 3.5450
 3.2720	 3.6140
 3.2740	 3.7010
 3.2760	 3.7330
 3.2780	 3.6480
 3.2800	 3.7090
 3.2820	 3.7320
 3.2840	 3.6490
 3.2860	 3.5240
 3.2880	 3.5690
 3.2900	 3.5470
 3.2920	 3.5180
 3.2940	 3.4760
 3.2960	 3.4680
 3.2990	 3.4950
 3.3010	 3.6560
 3.3030	 3.6870
 3.3050	 3.6820
 3.3070	 3.6220
 3.3090	 3.6350
 3.3110	 3.6210
 3.3130	 3.6970
 3.3150	 3.7310
 3.3180	 3.7440
 3.3200	 3.6920
 3.3220	 3.6800
 3.3240	 3.6890
 3.3260	 3.6560
 3.3280	 3.6060
 3.3300	 3.6660
 3.3330	 3.6470
 3.3350	 3.7050
 3.3370	 3.7070
 3.3390	 3.6420
 3.3410	 3.6010
 3.3430	 3.6430
 3.3450	 3.5680
 3.3480	 3.5360
 3.3500	 3.4740
 3.3520	 3.4350
 3.3540	 3.4500
 3.3560	 3.5030
 3.3580	 3.4510
 3.3610	 3.4930
 3.3630	 3.4790
 3.3650	 3.4810
 3.3670	 3.4090
 3.3690	 3.4590
 3.3720	 3.4090
 3.3740	 3.3930
 3.3760	 3.2890
 3.3780	 3.2150
 3.3800	 3.2460
 3.3830	 3.2810
 3.3850	 3.2020
 3.3870	 3.2390
 3.3890	 3.2570
 3.3910	 3.2820
 3.3940	 3.1620
 3.3960	 3.1010
 3.3980	 3.1580
 3.4000	 3.1930
 3.4020	 3.0770
 3.4050	 3.1140
 3.4070	 3.0760
 3.4090	 3.2190
 3.4110	 3.3670
 3.4140	 3.5360
 3.4160	 3.6490
 3.4180	 3.8710
 3.4200	 4.1250
 3.4230	 4.4940
 3.4250	 4.9210
 3.4270	 5.2670
 3.4290	 5.3070
 3.4320	 5.1410
 3.4340	 4.8250
 3.4360	 4.5490
 3.4390	 4.2140
 3.4410	 4.1030
 3.4430	 4.0620
 3.4450	 4.0150
 3.4480	 3.8980
 3.4500	 3.9220
 3.4520	 3.9070
 3.4550	 4.0100
 3.4570	 4.1060
 3.4590	 4.0870
 3.4620	 3.9760
 3.4640	 3.9010
 3.4660	 3.8950
 3.4680	 3.8880
 3.4710	 3.8400
 3.4730	 3.8390
 3.4750	 3.7700
 3.4780	 3.7740
 3.4800	 3.8210
 3.4820	 3.8760
 3.4850	 3.7560
 3.4870	 3.6810
 3.4890	 3.6230
 3.4920	 3.6200
 3.4940	 3.5580
 3.4970	 3.5340
 3.4990	 3.6550
 3.5010	 3.8260
 3.5040	 4.0010
 3.5060	 4.3920
 3.5080	 4.8800
 3.5110	 5.3140
 3.5130	 5.4150
 3.5160	 5.2670
 3.5180	 4.9620
 3.5200	 4.7450
 3.5230	 4.6440
 3.5250	 4.5950
 3.5270	 4.5320
 3.5300	 4.5640
 3.5320	 4.6140
 3.5350	 4.6880
 3.5370	 4.6220
 3.5400	 4.5820
 3.5420	 4.5350
 3.5440	 4.5460
 3.5470	 4.5290
 3.5490	 4.5810
 3.5520	 4.5630
 3.5540	 4.5210
 3.5570	 4.4420
 3.5590	 4.4980
 3.5610	 4.4890
 3.5640	 4.5220
 3.5660	 4.5650
 3.5690	 4.6240
 3.5710	 4.6150
 3.5740	 4.6670
 3.5760	 4.6370
 3.5790	 4.6070
 3.5810	 4.5170
 3.5840	 4.4820
 3.5860	 4.5770
 3.5890	 4.6810
 3.5910	 4.5930
 3.5930	 4.6100
 3.5960	 4.6660
 3.5980	 4.6850
 3.6010	 4.6680
 3.6030	 4.6100
 3.6060	 4.5900
 3.6080	 4.6670
 3.6110	 4.6070
 3.6140	 4.6050
 3.6160	 4.6460
 3.6190	 4.7010
 3.6210	 4.6750
 3.6240	 4.6310
 3.6260	 4.5530
 3.6290	 4.5050
 3.6310	 4.5000
 3.6340	 4.6090
 3.6360	 4.6280
 3.6390	 4.5890
 3.6410	 4.5820
 3.6440	 4.6860
 3.6470	 4.6420
 3.6490	 4.6040
 3.6520	 4.6520
 3.6540	 4.7280
 3.6570	 4.7190
 3.6590	 4.7320
 3.6620	 4.7200
 3.6650	 4.7850
 3.6670	 4.7470
 3.6700	 4.7380
 3.6720	 4.6870
 3.6750	 4.6830
 3.6780	 4.6750
 3.6800	 4.7490
 3.6830	 4.7780
 3.6850	 4.8200
 3.6880	 4.8230
 3.6910	 4.8240
 3.6930	 4.7300
 3.6960	 4.7080
 3.6990	 4.6850
 3.7010	 4.6910
 3.7040	 4.7050
 3.7060	 4.7930
 3.7090	 4.8150
 3.7120	 4.8090
 3.7140	 4.7080
 3.7170	 4.6750
 3.7200	 4.6920
 3.7220	 4.8240
 3.7250	 4.8660
 3.7280	 4.9390
 3.7300	 4.8540
 3.7330	 4.7920
 3.7360	 4.7710
 3.7390	 4.8780
 3.7410	 4.9050
 3.7440	 4.8510
 3.7470	 4.8130
 3.7490	 4.8770
 3.7520	 4.8540
 3.7550	 4.8730
 3.7580	 4.7860
 3.7600	 4.7950
 3.7630	 4.8590
 3.7660	 4.9140
 3.7680	 4.9330
 3.7710	 4.9080
 3.7740	 4.8660
 3.7770	 4.8930
 3.7790	 4.8840
 3.7820	 4.9320
 3.7850	 4.8600
 3.7880	 4.8360
 3.7900	 4.9080
 3.7930	 4.9610
 3.7960	 4.9510
 3.7990	 4.9320
 3.8020	 4.8790
 3.8040	 4.9020
 3.8070	 4.9010
 3.8100	 4.9520
 3.8130	 4.9790
 3.8160	 4.9960
 3.8180	 4.9500
 3.8210	 4.9360
 3.8240	 4.9350
 3.8270	 4.9640
 3.8300	 4.9970
 3.8330	 5.1180
 3.8350	 5.1210
 3.8380	 5.0530
 3.8410	 5.0120
 3.8440	 4.9950
 3.8470	 4.9880
 3.8500	 5.0620
 3.8520	 5.0380
 3.8550	 5.0190
 3.8580	 5.0170
 3.8610	 5.1110
 3.8640	 5.1510
 3.8670	 5.1350
 3.8700	 5.0900
 3.8730	 5.0790
 3.8750	 5.0880
 3.8780	 5.1030
 3.8810	 5.0580
 3.8840	 5.0920
 3.8870	 5.0690
 3.8900	 5.1440
 3.8930	 5.1530
 3.8960	 5.1510
 3.8990	 5.1750
 3.9020	 5.1680
 3.9050	 5.1120
 3.9080	 5.1260
 3.9110	 5.1610
 3.9140	 5.2070
 3.9160	 5.1880
 3.9190	 5.2160
 3.9220	 5.1780
 3.9250	 5.1760
 3.9280	 5.1620
 3.9310	 5.1730
 3.9340	 5.1530
 3.9370	 5.1870
 3.9400	 5.1800
 3.9430	 5.1810
 3.9460	 5.1860
 3.9490	 5.2140
 3.9520	 5.2300
 3.9550	 5.2430
 3.9580	 5.2220
 3.9610	 5.2720
 3.9640	 5.2420
 3.9670	 5.2120
 3.9700	 5.1760
 3.9730	 5.1730
 3.9770	 5.1240
 3.9800	 5.1480
 3.9830	 5.2180
 3.9860	 5.2380
 3.9890	 5.2070
 3.9920	 5.2310
 3.9950	 5.2680
 3.9980	 5.2760
 4.0010	 5.2380
 4.0040	 5.2840
 4.0070	 5.2870
 4.0100	 5.2410
 4.0130	 5.2350
 4.0170	 5.2540
 4.0200	 5.2360
 4.0230	 5.2870
 4.0260	 5.2490
 4.0290	 5.2280
 4.0320	 5.2680
 4.0350	 5.3250
 4.0380	 5.3390
 4.0420	 5.3690
 4.0450	 5.3410
 4.0480	 5.3490
 4.0510	 5.4000
 4.0540	 5.4410
 4.0570	 5.3570
 4.0610	 5.3290
 4.0640	 5.3240
 4.0670	 5.3580
 4.0700	 5.3630
 4.0730	 5.4300
 4.0770	 5.4240
 4.0800	 5.3840
 4.0830	 5.3190
 4.0860	 5.3300
 4.0890	 5.3670
 4.0930	 5.4290
 4.0960	 5.4050
 4.0990	 5.3570
 4.1020	 5.3810
 4.1060	 5.3830
 4.1090	 5.3510
 4.1120	 5.3850
 4.1150	 5.3260
 4.1190	 5.3770
 4.1220	 5.4900
 4.1250	 5.4830
 4.1280	 5.4130
 4.1320	 5.3710
 4.1350	 5.3580
 4.1380	 5.3850
 4.1420	 5.3790
 4.1450	 5.3850
 4.1480	 5.4240
 4.1520	 5.4570
 4.1550	 5.4470
 4.1580	 5.4590
 4.1620	 5.3970
 4.1650	 5.4060
 4.1680	 5.4390
 4.1720	 5.4150
 4.1750	 5.3910
 4.1780	 5.4110
 4.1820	 5.3950
 4.1850	 5.4330
 4.1890	 5.4500
 4.1920	 5.5350
 4.1950	 5.5560
 4.1990	 5.6220
 4.2020	 5.7460
 4.2060	 5.8540
 4.2090	 5.9260
 4.2120	 6.0470
 4.2160	 6.1220
 4.2190	 6.1710
 4.2230	 6.1480
 4.2260	 6.1560
 4.2300	 6.4860
 4.2330	 6.6880
 4.2360	 6.5630
 4.2400	 6.5910
 4.2430	 6.4670
 4.2470	 6.5510
 4.2500	 6.4220
 4.2540	 6.1020
 4.2570	 5.9990
 4.2610	 6.1450
 4.2640	 6.3430
 4.2680	 6.4770
 4.2710	 6.4690
 4.2750	 6.4980
 4.2780	 6.4140
 4.2820	 6.2730
 4.2850	 6.3030
 4.2890	 6.4350
 4.2930	 6.2040
 4.2960	 6.0110
 4.3000	 6.1570
 4.3030	 6.2450
 4.3070	 6.1700
 4.3100	 6.1110
 4.3140	 5.9980
 4.3180	 5.8590
 4.3210	 5.7590
 4.3250	 5.7560
 4.3280	 5.6850
 4.3320	 5.6320
 4.3360	 5.5880
 4.3390	 5.5350
 4.3430	 5.4840
 4.3470	 5.5540
 4.3500	 5.5540
 4.3540	 5.5460
 4.3570	 5.4590
 4.3610	 5.4140
 4.3650	 5.4550
 4.3680	 5.5100
 4.3720	 5.5110
 4.3760	 5.4840
 4.3800	 5.4850
 4.3830	 5.5030
 4.3870	 5.4800
 4.3910	 5.4640
 4.3940	 5.4200
 4.3980	 5.4180
 4.4020	 5.4220
 4.4060	 5.4260
 4.4090	 5.3940
 4.4130	 5.3710
 4.4170	 5.3430
 4.4210	 5.4370
 4.4240	 5.4130
 4.4280	 5.3700
 4.4320	 5.3060
 4.4360	 5.2860
 4.4400	 5.3100
 4.4430	 5.3430
 4.4470	 5.3750
 4.4510	 5.3740
 4.4550	 5.3670
 4.4590	 5.3870
 4.4620	 5.3640
 4.4660	 5.4020
 4.4700	 5.4290
 4.4740	 5.3990
 4.4780	 5.3360
 4.4820	 5.3440
 4.4860	 5.3760
 4.4900	 5.3550
 4.4930	 5.2820
 4.4970	 5.3030
 4.5010	 5.3400
 4.5050	 5.3330
 4.5090	 5.3210
 4.5130	 5.2930
 4.5170	 5.2570
 4.5210	 5.2970
 4.5250	 5.3160
 4.5290	 5.2550
 4.5330	 5.2440
 4.5370	 5.2920
 4.5410	 5.3300
 4.5450	 5.2880
 4.5490	 5.2750
 4.5530	 5.3290
 4.5570	 5.3080
 4.5610	 5.2620
 4.5650	 5.1970
 4.5690	 5.2120
 4.5730	 5.2430
 4.5770	 5.2490
 4.5810	 5.2270
 4.5850	 5.2310
 4.5890	 5.2710
 4.5930	 5.2660
 4.5970	 5.2570
 4.6010	 5.2080
 4.6050	 5.2020
 4.6090	 5.1940
 4.6130	 5.2490
 4.6170	 5.3200
 4.6220	 5.2990
 4.6260	 5.2360
 4.6300	 5.1850
 4.6340	 5.1720
 4.6380	 5.2150
 4.6420	 5.2070
 4.6460	 5.2050
 4.6510	 5.2000
 4.6550	 5.1700
 4.6590	 5.1530
 4.6630	 5.1470
 4.6670	 5.1700
 4.6720	 5.2050
 4.6760	 5.1780
 4.6800	 5.1300
 4.6840	 5.1150
 4.6880	 5.1880
 4.6930	 5.2240
 4.6970	 5.1820
 4.7010	 5.1540
 4.7050	 5.1100
 4.7100	 5.1350
 4.7140	 5.1970
 4.7180	 5.2100
 4.7230	 5.2100
 4.7270	 5.2530
 4.7310	 5.2240
 4.7360	 5.1470
 4.7400	 5.1060
 4.7440	 5.1430
 4.7490	 5.2240
 4.7530	 5.2310
 4.7570	 5.2080
 4.7620	 5.2040
 4.7660	 5.2330
 4.7700	 5.1730
 4.7750	 5.0750
 4.7790	 5.1380
 4.7840	 5.1970
 4.7880	 5.2520
 4.7920	 5.2540
 4.7970	 5.1740
 4.8010	 5.1550
 4.8060	 5.1840
 4.8100	 5.1750
 4.8150	 5.1240
 4.8190	 5.1290
 4.8240	 5.1950
 4.8280	 5.1870
 4.8330	 5.1420
 4.8370	 5.1370
 4.8420	 5.0980
 4.8460	 5.1210
 4.8510	 5.1100
 4.8550	 5.0850
 4.8600	 5.1140
 4.8640	 5.1990
 4.8690	 5.2310
 4.8730	 5.2100
 4.8780	 5.2030
 4.8830	 5.1880
 4.8870	 5.1830
 4.8920	 5.1920
 4.8960	 5.1740
 4.9010	 5.2330
 4.9060	 5.2490
 4.9100	 5.2550
 4.9150	 5.2260
 4.9200	 5.2430
 4.9240	 5.2740
 4.9290	 5.2800
 4.9340	 5.2590
 4.9380	 5.2600
 4.9430	 5.2640
 4.9480	 5.2210
 4.9530	 5.2270
 4.9570	 5.2810
 4.9620	 5.2940
 4.9670	 5.3320
 4.9720	 5.3330
 4.9760	 5.2890
 4.9810	 5.2720
 4.9860	 5.3280
 4.9910	 5.3330
 4.9960	 5.3330
 5.0000	 5.3550
 5.0050	 5.3700
 5.0100	 5.2880
 5.0150	 5.2820
 5.0200	 5.2890
 5.0250	 5.3120
 5.0290	 5.3080
 5.0340	 5.3070
 5.0390	 5.3210
 5.0440	 5.2920
 5.0490	 5.2940
 5.0540	 5.2940
 5.0590	 5.2780
 5.0640	 5.3400
 5.0690	 5.3420
 5.0740	 5.2950
 5.0790	 5.3140
 5.0840	 5.3450
 5.0890	 5.2960
 5.0940	 5.3130
 5.0990	 5.3250
 5.1040	 5.3230
 5.1090	 5.2900
 5.1140	 5.3650
 5.1190	 5.3990
 5.1240	 5.3460
 5.1290	 5.3010
 5.1340	 5.2810
 5.1390	 5.2800
 5.1440	 5.3390
 5.1490	 5.3870
 5.1540	 5.3660
 5.1600	 5.3140
 5.1650	 5.3310
 5.1700	 5.3560
 5.1750	 5.3670
 5.1800	 5.3400
 5.1850	 5.3750
 5.1910	 5.4150
 5.1960	 5.3630
 5.2010	 5.3020
 5.2060	 5.3070
 5.2110	 5.2990
 5.2170	 5.2930
 5.2220	 5.3360
 5.2270	 5.3870
 5.2320	 5.3750
 5.2380	 5.3950
 5.2430	 5.3740
 5.2480	 5.3520
 5.2540	 5.3230
 5.2590	 5.3350
 5.2640	 5.3460
 5.2700	 5.3260
 5.2750	 5.3120
 5.2800	 5.3550
 5.2860	 5.3790
 5.2910	 5.3540
 5.2970	 5.3030
 5.3020	 5.3110
 5.3070	 5.2990
 5.3130	 5.2830
 5.3180	 5.2480
 5.3240	 5.2990
 5.3290	 5.2900
 5.3350	 5.2630
 5.3400	 5.2320
 5.3460	 5.2590
 5.3510	 5.2970
 5.3570	 5.3160
 5.3620	 5.2610
 5.3680	 5.2330
 5.3730	 5.2090
 5.3790	 5.1960
 5.3850	 5.1810
 5.3900	 5.2030
 5.3960	 5.2510
 5.4010	 5.2840
 5.4070	 5.2630
 5.4130	 5.2720
 5.4180	 5.2270
 5.4240	 5.2240
 5.4300	 5.1880
 5.4350	 5.1610
 5.4410	 5.0890
 5.4470	 5.0220
 5.4530	 5.0540
 5.4580	 5.1310
 5.4640	 5.1370
 5.4700	 5.1520
 5.4760	 5.1370
 5.4810	 5.0940
 5.4870	 5.0600
 5.4930	 5.0390
 5.4990	 4.9600
 5.5050	 4.9680
 5.5110	 4.9380
 5.5160	 4.9190
 5.5220	 4.9290
 5.5280	 4.9220
 5.5340	 4.9110
 5.5400	 4.9640
 5.5460	 4.8780
 5.5520	 4.8580
 5.5580	 4.8350
 5.5640	 4.7850
 5.5700	 4.7420
 5.5760	 4.7500
 5.5820	 4.6830
 5.5880	 4.6360
 5.5940	 4.5650
 5.6000	 4.5260
 5.6060	 4.4680
 5.6120	 4.4430
 5.6180	 4.4160
 5.6240	 4.3810
 5.6300	 4.2580
 5.6360	 4.1990
 5.6420	 4.0960
 5.6490	 4.0100
 5.6550	 3.9520
 5.6610	 3.8510
 5.6670	 3.7290
 5.6730	 3.6470
 5.6800	 3.4640
 5.6860	 3.3620
 5.6920	 3.2530
 5.6980	 3.2250
 5.7040	 3.1190
 5.7110	 2.9620
 5.7170	 2.8270
 5.7230	 2.8070
 5.7300	 2.7410
 5.7360	 2.7070
 5.7420	 2.5770
 5.7490	 2.4590
 5.7550	 2.4350
 5.7620	 2.5420
 5.7680	 2.5890
 5.7740	 2.7460
 5.7810	 2.8510
 5.7870	 2.9410
 5.7940	 2.9650
 5.8000	 3.0880
 5.8070	 3.2180
 5.8130	 3.3900
 5.8200	 3.4360
 5.8260	 3.4820
 5.8330	 3.5690
 5.8390	 3.7070
 5.8460	 3.8190
 5.8530	 3.9280
 5.8590	 4.0000
 5.8660	 4.1030
 5.8720	 4.1270
 5.8790	 4.2530
 5.8860	 4.3170
 5.8920	 4.3660
 5.8990	 4.3950
 5.9060	 4.4110
 5.9130	 4.3970
 5.9190	 4.3990
 5.9260	 4.4140
 5.9330	 4.4870
 5.9400	 4.4530
 5.9470	 4.3550
 5.9530	 4.2100
 5.9600	 4.2360
 5.9670	 4.2940
 5.9740	 4.3230
 5.9810	 4.2640
 5.9880	 4.1880
 5.9950	 4.0290
 6.0020	 3.9640
 6.0090	 3.8800
 6.0160	 3.8770
 6.0230	 3.7400
 6.0300	 3.6430
 6.0370	 3.6360
 6.0440	 3.7960
 6.0510	 3.8750
 6.0580	 3.9170
 6.0650	 3.8600
 6.0720	 3.9500
 6.0790	 3.9470
 6.0860	 3.9460
 6.0930	 3.9620
 6.1000	 3.9740
 6.1080	 3.8870
 6.1150	 3.9230
 6.1220	 3.8060
 6.1290	 3.7960
 6.1370	 3.8690
 6.1440	 3.9430
 6.1510	 3.8210
 6.1580	 3.7910
 6.1660	 3.8430
 6.1730	 3.8890
 6.1800	 3.7290
 6.1880	 3.6940
 6.1950	 3.6780
 6.2030	 3.6950
 6.2100	 3.6650
 6.2170	 3.6940
 6.2250	 3.7000
 6.2320	 3.8170
 6.2400	 3.8370
 6.2470	 3.9190
 6.2550	 3.9310
 6.2630	 4.0090
 6.2700	 4.0800
 6.2780	 4.1600
 6.2850	 4.1090
 6.2930	 4.1260
 6.3010	 4.1090
 6.3080	 4.1890
 6.3160	 4.2370
 6.3240	 4.2750
 6.3310	 4.3590
 6.3390	 4.4880
 6.3470	 4.4370
 6.3550	 4.4770
 6.3620	 4.4890
 6.3700	 4.5300
 6.3780	 4.4700
 6.3860	 4.4560
 6.3940	 4.4010
 6.4020	 4.5190
 6.4100	 4.6710
 6.4180	 4.6960
 6.4260	 4.5960
 6.4330	 4.6250
 6.4410	 4.5910
 6.4490	 4.6030
 6.4580	 4.5610
 6.4660	 4.6030
 6.4740	 4.5460
 6.4820	 4.6470
 6.4900	 4.6220
 6.4980	 4.5660
 6.5060	 4.4650
 6.5140	 4.4990
 6.5230	 4.4320
 6.5310	 4.3770
 6.5390	 4.2670
 6.5470	 4.2000
 6.5550	 4.0600
 6.5640	 4.0250
 6.5720	 3.9080
 6.5800	 3.8860
 6.5890	 3.8450
 6.5970	 3.8820
 6.6060	 3.8930
 6.6140	 3.9550
 6.6220	 3.9660
 6.6310	 4.1190
 6.6390	 4.1090
 6.6480	 4.2070
 6.6560	 4.1850
 6.6650	 4.1670
 6.6740	 4.1340
 6.6820	 4.2230
 6.6910	 4.2100
 6.6990	 4.2990
 6.7080	 4.2950
 6.7170	 4.3590
 6.7260	 4.2720
 6.7340	 4.2590
 6.7430	 4.2240
 6.7520	 4.1270
 6.7610	 3.9180
 6.7690	 3.9270
 6.7780	 4.0050
 6.7870	 4.2320
 6.7960	 4.0790
 6.8050	 3.8160
 6.8140	 3.6520
 6.8230	 3.7380
 6.8320	 3.8680
 6.8410	 4.0430
 6.8500	 3.9150
 6.8590	 3.8220
 6.8680	 3.7580
 6.8770	 3.7450
 6.8860	 3.6410
 6.8950	 3.7420
 6.9050	 3.7570
 6.9140	 3.8140
 6.9230	 3.8100
 6.9320	 3.8680
 6.9420	 3.8210
 6.9510	 3.8760
 6.9600	 3.8740
 6.9700	 3.9280
 6.9790	 3.8870
 6.9880	 3.8950
 6.9980	 3.8250
 7.0070	 3.8320
 7.0170	 3.7720
 7.0260	 3.8810
 7.0360	 3.8860
 7.0450	 3.9840
 7.0550	 3.9290
 7.0650	 3.9920
 7.0740	 3.9620
 7.0840	 4.0220
 7.0940	 4.0430
 7.1030	 4.0480
 7.1130	 3.9150
 7.1230	 3.9430
 7.1330	 3.8480
 7.1420	 3.8580
 7.1520	 3.7540
 7.1620	 3.7660
 7.1720	 3.6880
 7.1820	 3.6640
 7.1920	 3.6050
 7.2020	 3.6430
 7.2120	 3.6050
 7.2220	 3.6140
 7.2320	 3.5040
 7.2420	 3.4850
 7.2520	 3.4530
 7.2620	 3.4850
 7.2730	 3.3940
 7.2830	 3.4450
 7.2930	 3.4310
 7.3030	 3.5390
 7.3140	 3.5750
 7.3240	 3.6520
 7.3340	 3.5560
 7.3450	 3.6840
 7.3550	 3.7160
 7.3660	 3.8260
 7.3760	 3.8560
 7.3870	 3.8980
 7.3970	 3.7690
 7.4080	 3.8030
 7.4180	 3.8300
 7.4290	 3.9430
 7.4400	 3.9210
 7.4500	 3.9540
 7.4610	 3.8740
 7.4720	 3.8690
 7.4830	 3.7340
 7.4930	 3.8000
 7.5040	 3.7260
 7.5150	 3.7730
 7.5260	 3.7240
 7.5370	 3.7480
 7.5480	 3.5950
 7.5590	 3.6270
 7.5700	 3.6440
 7.5810	 3.7160
 7.5920	 3.6360
 7.6030	 3.6610
 7.6140	 3.6190
 7.6260	 3.6760
 7.6370	 3.6650
 7.6480	 3.7870
 7.6590	 3.6250
 7.6710	 3.6270
 7.6820	 3.6690
 7.6930	 3.7700
 7.7050	 3.6490
 7.7160	 3.6420
 7.7280	 3.5640
 7.7390	 3.5800
 7.7510	 3.4540
 7.7630	 3.4740
 7.7740	 3.4390
 7.7860	 3.4230
 7.7980	 3.2180
 7.8090	 3.3410
 7.8210	 3.3380
 7.8330	 3.3690
 7.8450	 3.3660
 7.8570	 3.4730
 7.8690	 3.4060
 7.8810	 3.4140
 7.8930	 3.3450
 7.9050	 3.4730
 7.9170	 3.3760
 7.9290	 3.4020
 7.9410	 3.3780
 7.9530	 3.4730
 7.9650	 3.4100
 7.9780	 3.4710
 7.9900	 3.3890
 8.0020	 3.4850
 8.0150	 3.4610
 8.0270	 3.5460
 8.0390	 3.4330
 8.0520	 3.5450
 8.0640	 3.5770
 8.0770	 3.6990
 8.0900	 3.5560
 8.1020	 3.6180
 8.1150	 3.5560
 8.1280	 3.6460
 8.1400	 3.6460
 8.1530	 3.8140
 8.1660	 3.7430
 8.1790	 3.7160
 8.1920	 3.4280
 8.2050	 3.6340
 8.2180	 3.6890
 8.2310	 3.6860
 8.2440	 3.6230
 8.2570	 3.7500
 8.2700	 3.7030
 8.2830	 3.8980
 8.2970	 3.8350
 8.3100	 3.8900
 8.3230	 3.8050
 8.3370	 3.9100
 8.3500	 3.8320
 8.3640	 3.8740
 8.3770	 3.6700
 8.3910	 3.7380
 8.4040	 3.6760
 8.4180	 3.7670
 8.4320	 3.5960
 8.4450	 3.7100
 8.4590	 3.6680
 8.4730	 3.8150
 8.4870	 3.8660
 8.5010	 4.1210
 8.5150	 4.0610
 8.5290	 4.2000
 8.5430	 4.1680
 8.5570	 4.4020
 8.5710	 4.3810
 8.5850	 4.4920
 8.5990	 4.4010
 8.6140	 4.5020
 8.6280	 4.4780
 8.6420	 4.6380
 8.6570	 4.5900
 8.6710	 4.6170
 8.6860	 4.3530
 8.7000	 4.3890
 8.7150	 4.3160
 8.7300	 4.5190
 8.7440	 4.5310
 8.7590	 4.6550
 8.7740	 4.5580
 8.7890	 4.6650
 8.8040	 4.4060
 8.8190	 4.4350
 8.8340	 4.2910
 8.8490	 4.3070
 8.8640	 4.2380
 8.8790	 4.3590
 8.8940	 4.1460
 8.9100	 4.1640
 8.9250	 4.0290
 8.9400	 4.1630
 8.9560	 3.9580
 8.9710	 3.9960
 8.9870	 3.8750
 9.0020	 3.9440
 9.0180	 3.8290
 9.0340	 4.0360
 9.0500	 3.9470
 9.0650	 3.9630
 9.0810	 3.8220
 9.0970	 3.8660
 9.1130	 3.7900
 9.1290	 3.9930
 9.1450	 3.8530
 9.1610	 3.9580
 9.1780	 3.8420
 9.1940	 4.0250
 9.2100	 4.0220
 9.2270	 4.1240
 9.2430	 3.9050
 9.2600	 3.9240
 9.2760	 3.8840
 9.2930	 4.0010
 9.3090	 3.9490
 9.3260	 4.2170
 9.3430	 4.0040
 9.3600	 3.9730
 9.3770	 3.8320
 9.3940	 4.0490
 9.4110	 4.0000
 9.4280	 4.1620
 9.4450	 4.1320
 9.4620	 4.3030
 9.4800	 4.1260
 9.4970	 4.1780
 9.5140	 4.0830
 9.5320	 4.2020
 9.5500	 4.0840
 9.5670	 4.3670
 9.5850	 4.3230
 9.6030	 4.4550
 9.6200	 4.2440
 9.6380	 4.2930
 9.6560	 4.0720
 9.6740	 4.2660
 9.6920	 4.3270
 9.7100	 4.5830
 9.7290	 4.5080
 9.7470	 4.6220
 9.7650	 4.5340
 9.7840	 4.6380
 9.8020	 4.4670
 9.8210	 4.2350
 9.8390	 3.9780
 9.8580	 4.3860
 9.8770	 4.3880
 9.8960	 4.5740
 9.9150	 4.4990
 9.9340	 4.7040
 9.9530	 4.5500
 9.9720	 4.5830
 9.9910	 4.3940
10.0100	 4.5110
10.0300	 4.4160
10.0490	 4.5510
10.0690	 4.4350
10.0880	 4.4710
10.1080	 4.3340
10.1280	 4.5940
10.1480	 4.6190
10.1670	 4.7760
10.1870	 4.6420
10.2070	 4.8170
10.2280	 4.7750
10.2480	 4.9480
10.2680	 4.8090
10.2890	 4.7700
10.3090	 4.6120
10.3300	 4.8090
10.3500	 4.6380
10.3710	 4.8560
10.3920	 4.9720
10.4120	 5.1860
10.4330	 5.0720
10.4540	 5.2100
10.4760	 5.0480
10.4970	 5.2760
10.5180	 5.3180
10.5390	 5.3990
10.5610	 5.1900
10.5820	 5.3740
10.6040	 5.2690
10.6260	 5.2360
10.6480	 5.1250
10.6700	 5.3080
10.6920	 5.2130
10.7140	 5.3160
10.7360	 5.1770
10.7580	 5.2600
10.7800	 5.0110
10.8030	 5.2010
10.8250	 5.1420
10.8480	 5.2110
10.8710	 5.0670
10.8940	 5.1700
10.9170	 4.9830
10.9400	 5.1000
10.9630	 4.9550
10.9860	 5.0790
11.0090	 4.9650
11.0330	 5.1190
11.0560	 4.8420
11.0800	 4.9620
11.1040	 5.0420
11.1270	 5.2430
11.1510	 4.8150
11.1750	 4.8400
11.2000	 4.8410
11.2240	 5.1510
11.2480	 4.9420
11.2730	 5.1480
11.2970	 5.1460
11.3220	 5.1500
11.3470	 4.9960
11.3720	 5.1750
11.3970	 4.9670
11.4220	 5.0290
11.4470	 4.6320
11.4720	 4.5550
11.4980	 4.6330
11.5230	 4.9760
11.5490	 4.8350
11.5750	 5.0350
11.6000	 4.9140
11.6260	 5.0530
11.6530	 4.8680
11.6790	 4.9610
11.7050	 4.7250
11.7320	 4.9140
11.7580	 4.9270
11.7850	 5.1080
11.8120	 4.7320
11.8390	 4.7100
11.8660	 4.5560
11.8930	 4.9110
11.9200	 4.7320
11.9480	 4.8700
11.9760	 5.0210
12.0030	 5.2380
12.0310	 4.9320
12.0590	 5.1720
12.0870	 5.0050
12.1150	 5.1070
12.1440	 4.9160
12.1720	 5.0770
12.2010	 4.8270
12.2300	 5.0020
12.2590	 4.8440
12.2880	 5.0520
12.3170	 4.9390
12.3460	 5.1410
12.3760	 4.9260
12.4050	 5.2020
12.4350	 4.9020
12.4650	 5.0350
12.4950	 4.9270
12.5250	 5.2020
12.5550	 5.0390
12.5860	 5.2490
12.6170	 5.1180
12.6470	 5.2530
12.6780	 4.8840
12.7090	 5.0330
12.7410	 4.7750
12.7720	 4.9020
12.8030	 4.7500
12.8350	 4.9720
12.8670	 4.7900
12.8990	 4.9870
12.9310	 4.6370
12.9640	 4.8160
12.9960	 4.7530
13.0290	 5.0970
13.0610	 4.8310
13.0940	 4.8520
13.1280	 4.6840
13.1610	 4.9250
13.1940	 4.4950
13.2280	 4.3740
13.2620	 4.3140
13.2960	 4.7440
13.3300	 4.4730
13.3640	 4.6960
13.3990	 4.2610
13.4340	 4.5470
13.4690	 4.3230
13.5040	 4.5010
13.5390	 4.2530
13.5740	 4.3410
13.6100	 4.0550
13.6460	 4.4830
13.6820	 4.2410
13.7180	 4.3910
13.7540	 4.3680
13.7910	 4.7480
13.8280	 4.3180
13.8650	 4.7230
13.9020	 4.4730
13.9390	 4.4950
13.9770	 4.0880
14.0150	 4.4120
14.0530	 4.0280
14.0910	 4.4580
14.1290	 4.1740
14.1680	 4.4050
14.2070	 4.1260
14.2460	 4.5100
14.2850	 4.1210
14.3240	 4.5650
14.3640	 4.2210
14.4040	 4.5490
14.4440	 3.8410
14.4840	 4.2460
14.5250	 4.0400
14.5660	 4.2640
14.6070	 3.6810
14.6480	 4.0050
14.6900	 3.6610
14.7310	 4.2960
14.7730	 3.7940
14.8150	 4.4310
14.8580	 4.0000
14.9010	 4.4530
14.9440	 3.8780
14.9870	 3.9420
15.0300	 3.2360
15.0740	 4.1580
15.1180	 3.5760
15.1620	 3.9190
15.2060	 3.3650
15.2510	 4.1820
15.2960	 3.3840
15.3410	 3.9980
15.3870	 3.2390
