Name: Calodendrum capense
Type: vegetation
Class: Tree
Genus: Calodendrum
Species: capense
Sample No.: JPL123
Owner: JPL
Wavelength Range: VSWIR
Origin: 34.12568; -118.11443;; WGS84
Collection Date: 9/7/2016
Description: Samples were collected at the Huntington Garden in San Marino California as part of a JPL Subcontract studying HyTES imagery. Samples were taken to JPL and processed within 48 hours of collection. The same leaves were processed in the Nicolet and then measured using the ASD.
Measurement: Bidirectional reflectance
First Column: X
Second Column: Y
X Units: Wavelength (micrometer)
Y Units: Reflectance (percentage)
First X Value: 0.35
Last X Value: 2.5
Number of X Values: 2151
Additional Information: vegetation.tree.calodendrum.capense.vswir.jpl123.jpl.asd.ancillary.txt

 0.3500	 6.8070
 0.3510	 6.7960
 0.3520	 6.7800
 0.3530	 6.8120
 0.3540	 6.8780
 0.3550	 6.7660
 0.3560	 6.6690
 0.3570	 6.6420
 0.3580	 6.6590
 0.3590	 6.7040
 0.3600	 6.7000
 0.3610	 6.6650
 0.3620	 6.7500
 0.3630	 6.7210
 0.3640	 6.6470
 0.3650	 6.6320
 0.3660	 6.5930
 0.3670	 6.5890
 0.3680	 6.6000
 0.3690	 6.5630
 0.3700	 6.5350
 0.3710	 6.5590
 0.3720	 6.6220
 0.3730	 6.6020
 0.3740	 6.5900
 0.3750	 6.5760
 0.3760	 6.5360
 0.3770	 6.5070
 0.3780	 6.5030
 0.3790	 6.5180
 0.3800	 6.5250
 0.3810	 6.5280
 0.3820	 6.5190
 0.3830	 6.5070
 0.3840	 6.5580
 0.3850	 6.5450
 0.3860	 6.5170
 0.3870	 6.5590
 0.3880	 6.5430
 0.3890	 6.5290
 0.3900	 6.5290
 0.3910	 6.4930
 0.3920	 6.4880
 0.3930	 6.5000
 0.3940	 6.5060
 0.3950	 6.4910
 0.3960	 6.5020
 0.3970	 6.5160
 0.3980	 6.4840
 0.3990	 6.4680
 0.4000	 6.4760
 0.4010	 6.4960
 0.4020	 6.4980
 0.4030	 6.5050
 0.4040	 6.5070
 0.4050	 6.4970
 0.4060	 6.5030
 0.4070	 6.5070
 0.4080	 6.5190
 0.4090	 6.5610
 0.4100	 6.5600
 0.4110	 6.5520
 0.4120	 6.5610
 0.4130	 6.5670
 0.4140	 6.5680
 0.4150	 6.5700
 0.4160	 6.5790
 0.4170	 6.5970
 0.4180	 6.6150
 0.4190	 6.6280
 0.4200	 6.6410
 0.4210	 6.6380
 0.4220	 6.6380
 0.4230	 6.6540
 0.4240	 6.6640
 0.4250	 6.6780
 0.4260	 6.6890
 0.4270	 6.6870
 0.4280	 6.6930
 0.4290	 6.6940
 0.4300	 6.6890
 0.4310	 6.6900
 0.4320	 6.6870
 0.4330	 6.6760
 0.4340	 6.6600
 0.4350	 6.6570
 0.4360	 6.6620
 0.4370	 6.6750
 0.4380	 6.7000
 0.4390	 6.7330
 0.4400	 6.7630
 0.4410	 6.7820
 0.4420	 6.8000
 0.4430	 6.8130
 0.4440	 6.8230
 0.4450	 6.8290
 0.4460	 6.8400
 0.4470	 6.8500
 0.4480	 6.8580
 0.4490	 6.8700
 0.4500	 6.8760
 0.4510	 6.8830
 0.4520	 6.8960
 0.4530	 6.9010
 0.4540	 6.9050
 0.4550	 6.9120
 0.4560	 6.9200
 0.4570	 6.9280
 0.4580	 6.9330
 0.4590	 6.9350
 0.4600	 6.9400
 0.4610	 6.9420
 0.4620	 6.9410
 0.4630	 6.9440
 0.4640	 6.9490
 0.4650	 6.9530
 0.4660	 6.9570
 0.4670	 6.9610
 0.4680	 6.9620
 0.4690	 6.9650
 0.4700	 6.9730
 0.4710	 6.9800
 0.4720	 6.9840
 0.4730	 6.9850
 0.4740	 6.9820
 0.4750	 6.9830
 0.4760	 6.9870
 0.4770	 6.9910
 0.4780	 6.9940
 0.4790	 7.0000
 0.4800	 7.0030
 0.4810	 6.9980
 0.4820	 6.9930
 0.4830	 6.9880
 0.4840	 6.9840
 0.4850	 6.9750
 0.4860	 6.9750
 0.4870	 6.9790
 0.4880	 6.9820
 0.4890	 6.9890
 0.4900	 7.0030
 0.4910	 7.0190
 0.4920	 7.0330
 0.4930	 7.0480
 0.4940	 7.0640
 0.4950	 7.0840
 0.4960	 7.1100
 0.4970	 7.1330
 0.4980	 7.1520
 0.4990	 7.1730
 0.5000	 7.2030
 0.5010	 7.2320
 0.5020	 7.2600
 0.5030	 7.2930
 0.5040	 7.3290
 0.5050	 7.3670
 0.5060	 7.4050
 0.5070	 7.4480
 0.5080	 7.4980
 0.5090	 7.5520
 0.5100	 7.6090
 0.5110	 7.6760
 0.5120	 7.7490
 0.5130	 7.8260
 0.5140	 7.9140
 0.5150	 8.0090
 0.5160	 8.1130
 0.5170	 8.2260
 0.5180	 8.3480
 0.5190	 8.4780
 0.5200	 8.6130
 0.5210	 8.7510
 0.5220	 8.8980
 0.5230	 9.0500
 0.5240	 9.2040
 0.5250	 9.3530
 0.5260	 9.5000
 0.5270	 9.6440
 0.5280	 9.7820
 0.5290	 9.9120
 0.5300	10.0390
 0.5310	10.1590
 0.5320	10.2570
 0.5330	10.3510
 0.5340	10.4410
 0.5350	10.5210
 0.5360	10.5890
 0.5370	10.6460
 0.5380	10.6910
 0.5390	10.7260
 0.5400	10.7410
 0.5410	10.7380
 0.5420	10.7300
 0.5430	10.7320
 0.5440	10.7540
 0.5450	10.7970
 0.5460	10.8560
 0.5470	10.9250
 0.5480	10.9890
 0.5490	11.0360
 0.5500	11.0610
 0.5510	11.0830
 0.5520	11.0990
 0.5530	11.1030
 0.5540	11.1030
 0.5550	11.0880
 0.5560	11.0590
 0.5570	11.0210
 0.5580	10.9670
 0.5590	10.9020
 0.5600	10.8290
 0.5610	10.7480
 0.5620	10.6620
 0.5630	10.5700
 0.5640	10.4730
 0.5650	10.3690
 0.5660	10.2600
 0.5670	10.1500
 0.5680	10.0440
 0.5690	 9.9390
 0.5700	 9.8330
 0.5710	 9.7300
 0.5720	 9.6330
 0.5730	 9.5440
 0.5740	 9.4660
 0.5750	 9.4000
 0.5760	 9.3340
 0.5770	 9.2680
 0.5780	 9.2030
 0.5790	 9.1410
 0.5800	 9.0900
 0.5810	 9.0460
 0.5820	 9.0040
 0.5830	 8.9570
 0.5840	 8.9090
 0.5850	 8.8610
 0.5860	 8.8070
 0.5870	 8.7580
 0.5880	 8.7210
 0.5890	 8.7000
 0.5900	 8.6900
 0.5910	 8.6810
 0.5920	 8.6670
 0.5930	 8.6490
 0.5940	 8.6410
 0.5950	 8.6360
 0.5960	 8.6310
 0.5970	 8.6270
 0.5980	 8.6200
 0.5990	 8.6080
 0.6000	 8.5930
 0.6010	 8.5800
 0.6020	 8.5620
 0.6030	 8.5390
 0.6040	 8.5170
 0.6050	 8.4860
 0.6060	 8.4540
 0.6070	 8.4230
 0.6080	 8.3830
 0.6090	 8.3200
 0.6100	 8.2340
 0.6110	 8.1360
 0.6120	 8.1020
 0.6130	 8.1030
 0.6140	 8.1060
 0.6150	 8.0910
 0.6160	 8.0690
 0.6170	 8.0450
 0.6180	 8.0190
 0.6190	 7.9920
 0.6200	 7.9680
 0.6210	 7.9470
 0.6220	 7.9320
 0.6230	 7.9200
 0.6240	 7.9100
 0.6250	 7.9020
 0.6260	 7.8950
 0.6270	 7.8890
 0.6280	 7.8830
 0.6290	 7.8750
 0.6300	 7.8650
 0.6310	 7.8590
 0.6320	 7.8580
 0.6330	 7.8550
 0.6340	 7.8470
 0.6350	 7.8330
 0.6360	 7.8130
 0.6370	 7.7930
 0.6380	 7.7680
 0.6390	 7.7380
 0.6400	 7.7090
 0.6410	 7.6790
 0.6420	 7.6480
 0.6430	 7.6170
 0.6440	 7.5880
 0.6450	 7.5590
 0.6460	 7.5330
 0.6470	 7.5090
 0.6480	 7.4880
 0.6490	 7.4690
 0.6500	 7.4540
 0.6510	 7.4440
 0.6520	 7.4370
 0.6530	 7.4290
 0.6540	 7.4200
 0.6550	 7.4110
 0.6560	 7.4040
 0.6570	 7.3960
 0.6580	 7.3810
 0.6590	 7.3660
 0.6600	 7.3520
 0.6610	 7.3390
 0.6620	 7.3230
 0.6630	 7.3080
 0.6640	 7.2970
 0.6650	 7.2890
 0.6660	 7.2820
 0.6670	 7.2770
 0.6680	 7.2740
 0.6690	 7.2750
 0.6700	 7.2770
 0.6710	 7.2830
 0.6720	 7.2920
 0.6730	 7.3040
 0.6740	 7.3170
 0.6750	 7.3330
 0.6760	 7.3490
 0.6770	 7.3680
 0.6780	 7.3880
 0.6790	 7.4110
 0.6800	 7.4390
 0.6810	 7.4680
 0.6820	 7.5020
 0.6830	 7.5420
 0.6840	 7.5860
 0.6850	 7.6340
 0.6860	 7.6850
 0.6870	 7.7440
 0.6880	 7.8140
 0.6890	 7.9000
 0.6900	 8.0050
 0.6910	 8.1320
 0.6920	 8.2900
 0.6930	 8.4820
 0.6940	 8.7150
 0.6950	 9.0010
 0.6960	 9.3420
 0.6970	 9.7410
 0.6980	10.1990
 0.6990	10.7210
 0.7000	11.3030
 0.7010	11.9390
 0.7020	12.6240
 0.7030	13.3510
 0.7040	14.1150
 0.7050	14.9110
 0.7060	15.7340
 0.7070	16.5780
 0.7080	17.4430
 0.7090	18.3300
 0.7100	19.2340
 0.7110	20.1530
 0.7120	21.0840
 0.7130	22.0270
 0.7140	22.9810
 0.7150	23.9410
 0.7160	24.9030
 0.7170	25.8700
 0.7180	26.8340
 0.7190	27.7950
 0.7200	28.7510
 0.7210	29.7000
 0.7220	30.6370
 0.7230	31.5580
 0.7240	32.4600
 0.7250	33.3390
 0.7260	34.1950
 0.7270	35.0270
 0.7280	35.8260
 0.7290	36.5960
 0.7300	37.3350
 0.7310	38.0410
 0.7320	38.7150
 0.7330	39.3570
 0.7340	39.9680
 0.7350	40.5450
 0.7360	41.0920
 0.7370	41.6090
 0.7380	42.0940
 0.7390	42.5490
 0.7400	42.9770
 0.7410	43.3780
 0.7420	43.7520
 0.7430	44.0990
 0.7440	44.4230
 0.7450	44.7240
 0.7460	45.0000
 0.7470	45.2520
 0.7480	45.4860
 0.7490	45.7040
 0.7500	45.9040
 0.7510	46.0860
 0.7520	46.2530
 0.7530	46.4100
 0.7540	46.5490
 0.7550	46.6760
 0.7560	46.7930
 0.7570	46.8990
 0.7580	46.9940
 0.7590	47.0820
 0.7600	47.1650
 0.7610	47.2380
 0.7620	47.3040
 0.7630	47.3660
 0.7640	47.4240
 0.7650	47.4770
 0.7660	47.5270
 0.7670	47.5720
 0.7680	47.6080
 0.7690	47.6440
 0.7700	47.6770
 0.7710	47.7070
 0.7720	47.7330
 0.7730	47.7580
 0.7740	47.7820
 0.7750	47.8040
 0.7760	47.8260
 0.7770	47.8460
 0.7780	47.8640
 0.7790	47.8830
 0.7800	47.8990
 0.7810	47.9140
 0.7820	47.9260
 0.7830	47.9390
 0.7840	47.9510
 0.7850	47.9630
 0.7860	47.9710
 0.7870	47.9760
 0.7880	47.9830
 0.7890	47.9890
 0.7900	47.9910
 0.7910	47.9970
 0.7920	48.0020
 0.7930	48.0060
 0.7940	48.0080
 0.7950	48.0050
 0.7960	48.0000
 0.7970	47.9960
 0.7980	47.9940
 0.7990	47.9880
 0.8000	47.9810
 0.8010	47.9770
 0.8020	47.9740
 0.8030	47.9680
 0.8040	47.9590
 0.8050	47.9520
 0.8060	47.9450
 0.8070	47.9340
 0.8080	47.9200
 0.8090	47.9070
 0.8100	47.8930
 0.8110	47.8790
 0.8120	47.8670
 0.8130	47.8530
 0.8140	47.8430
 0.8150	47.8310
 0.8160	47.8130
 0.8170	47.8010
 0.8180	47.7880
 0.8190	47.7750
 0.8200	47.7620
 0.8210	47.7500
 0.8220	47.7360
 0.8230	47.7210
 0.8240	47.7040
 0.8250	47.6850
 0.8260	47.6680
 0.8270	47.6520
 0.8280	47.6370
 0.8290	47.6230
 0.8300	47.6110
 0.8310	47.6010
 0.8320	47.5900
 0.8330	47.5780
 0.8340	47.5650
 0.8350	47.5510
 0.8360	47.5430
 0.8370	47.5350
 0.8380	47.5260
 0.8390	47.5150
 0.8400	47.5070
 0.8410	47.5020
 0.8420	47.4980
 0.8430	47.4920
 0.8440	47.4880
 0.8450	47.4840
 0.8460	47.4790
 0.8470	47.4770
 0.8480	47.4770
 0.8490	47.4760
 0.8500	47.4710
 0.8510	47.4730
 0.8520	47.4760
 0.8530	47.4770
 0.8540	47.4800
 0.8550	47.4800
 0.8560	47.4800
 0.8570	47.4810
 0.8580	47.4820
 0.8590	47.4880
 0.8600	47.4960
 0.8610	47.5050
 0.8620	47.5130
 0.8630	47.5170
 0.8640	47.5210
 0.8650	47.5300
 0.8660	47.5420
 0.8670	47.5490
 0.8680	47.5550
 0.8690	47.5620
 0.8700	47.5730
 0.8710	47.5830
 0.8720	47.5920
 0.8730	47.6030
 0.8740	47.6160
 0.8750	47.6270
 0.8760	47.6350
 0.8770	47.6450
 0.8780	47.6610
 0.8790	47.6780
 0.8800	47.6930
 0.8810	47.7070
 0.8820	47.7200
 0.8830	47.7330
 0.8840	47.7470
 0.8850	47.7560
 0.8860	47.7670
 0.8870	47.7810
 0.8880	47.7950
 0.8890	47.8060
 0.8900	47.8180
 0.8910	47.8310
 0.8920	47.8450
 0.8930	47.8590
 0.8940	47.8740
 0.8950	47.8900
 0.8960	47.9060
 0.8970	47.9160
 0.8980	47.9260
 0.8990	47.9380
 0.9000	47.9540
 0.9010	47.9650
 0.9020	47.9770
 0.9030	47.9910
 0.9040	48.0060
 0.9050	48.0160
 0.9060	48.0250
 0.9070	48.0370
 0.9080	48.0460
 0.9090	48.0590
 0.9100	48.0700
 0.9110	48.0750
 0.9120	48.0820
 0.9130	48.0890
 0.9140	48.0970
 0.9150	48.1050
 0.9160	48.1110
 0.9170	48.1160
 0.9180	48.1160
 0.9190	48.1090
 0.9200	48.1130
 0.9210	48.1160
 0.9220	48.1150
 0.9230	48.1120
 0.9240	48.1090
 0.9250	48.1050
 0.9260	48.0980
 0.9270	48.0860
 0.9280	48.0790
 0.9290	48.0710
 0.9300	48.0600
 0.9310	48.0430
 0.9320	48.0280
 0.9330	48.0110
 0.9340	47.9920
 0.9350	47.9800
 0.9360	47.9620
 0.9370	47.9410
 0.9380	47.9190
 0.9390	47.8970
 0.9400	47.8710
 0.9410	47.8430
 0.9420	47.8160
 0.9430	47.7900
 0.9440	47.7600
 0.9450	47.7250
 0.9460	47.6870
 0.9470	47.6500
 0.9480	47.6120
 0.9490	47.5710
 0.9500	47.5280
 0.9510	47.4760
 0.9520	47.4250
 0.9530	47.3760
 0.9540	47.3250
 0.9550	47.2620
 0.9560	47.2110
 0.9570	47.1660
 0.9580	47.1180
 0.9590	47.0800
 0.9600	47.0400
 0.9610	47.0010
 0.9620	46.9720
 0.9630	46.9460
 0.9640	46.9130
 0.9650	46.8800
 0.9660	46.8610
 0.9670	46.8410
 0.9680	46.8270
 0.9690	46.8180
 0.9700	46.8100
 0.9710	46.8060
 0.9720	46.7920
 0.9730	46.7730
 0.9740	46.7640
 0.9750	46.7620
 0.9760	46.7620
 0.9770	46.7600
 0.9780	46.7550
 0.9790	46.7510
 0.9800	46.7500
 0.9810	46.7520
 0.9820	46.7550
 0.9830	46.7520
 0.9840	46.7560
 0.9850	46.7710
 0.9860	46.7930
 0.9870	46.7940
 0.9880	46.7960
 0.9890	46.8040
 0.9900	46.8110
 0.9910	46.8110
 0.9920	46.8270
 0.9930	46.8510
 0.9940	46.8630
 0.9950	46.8660
 0.9960	46.8750
 0.9970	46.8880
 0.9980	46.8940
 0.9990	46.8950
 1.0000	46.9120
 1.0010	48.6200
 1.0020	48.6300
 1.0030	48.6410
 1.0040	48.6530
 1.0050	48.6660
 1.0060	48.6800
 1.0070	48.6920
 1.0080	48.7030
 1.0090	48.7160
 1.0100	48.7280
 1.0110	48.7370
 1.0120	48.7500
 1.0130	48.7680
 1.0140	48.7810
 1.0150	48.7910
 1.0160	48.8030
 1.0170	48.8140
 1.0180	48.8270
 1.0190	48.8390
 1.0200	48.8540
 1.0210	48.8730
 1.0220	48.8880
 1.0230	48.9040
 1.0240	48.9230
 1.0250	48.9370
 1.0260	48.9470
 1.0270	48.9580
 1.0280	48.9670
 1.0290	48.9790
 1.0300	48.9920
 1.0310	49.0060
 1.0320	49.0200
 1.0330	49.0360
 1.0340	49.0520
 1.0350	49.0650
 1.0360	49.0780
 1.0370	49.0900
 1.0380	49.1020
 1.0390	49.1120
 1.0400	49.1240
 1.0410	49.1370
 1.0420	49.1490
 1.0430	49.1600
 1.0440	49.1720
 1.0450	49.1850
 1.0460	49.1950
 1.0470	49.2040
 1.0480	49.2120
 1.0490	49.2140
 1.0500	49.2210
 1.0510	49.2310
 1.0520	49.2420
 1.0530	49.2490
 1.0540	49.2570
 1.0550	49.2630
 1.0560	49.2630
 1.0570	49.2660
 1.0580	49.2700
 1.0590	49.2730
 1.0600	49.2740
 1.0610	49.2770
 1.0620	49.2810
 1.0630	49.2830
 1.0640	49.2840
 1.0650	49.2830
 1.0660	49.2750
 1.0670	49.2710
 1.0680	49.2670
 1.0690	49.2620
 1.0700	49.2590
 1.0710	49.2590
 1.0720	49.2580
 1.0730	49.2580
 1.0740	49.2550
 1.0750	49.2500
 1.0760	49.2450
 1.0770	49.2360
 1.0780	49.2290
 1.0790	49.2240
 1.0800	49.2170
 1.0810	49.2090
 1.0820	49.2020
 1.0830	49.1930
 1.0840	49.1860
 1.0850	49.1800
 1.0860	49.1750
 1.0870	49.1690
 1.0880	49.1660
 1.0890	49.1580
 1.0900	49.1460
 1.0910	49.1380
 1.0920	49.1280
 1.0930	49.1200
 1.0940	49.1160
 1.0950	49.1090
 1.0960	49.1010
 1.0970	49.0940
 1.0980	49.0870
 1.0990	49.0790
 1.1000	49.0670
 1.1010	49.0580
 1.1020	49.0480
 1.1030	49.0400
 1.1040	49.0350
 1.1050	49.0300
 1.1060	49.0220
 1.1070	49.0110
 1.1080	49.0020
 1.1090	48.9900
 1.1100	48.9820
 1.1110	48.9780
 1.1120	48.9710
 1.1130	48.9630
 1.1140	48.9530
 1.1150	48.9380
 1.1160	48.9260
 1.1170	48.9150
 1.1180	48.8990
 1.1190	48.8840
 1.1200	48.8670
 1.1210	48.8440
 1.1220	48.8190
 1.1230	48.7950
 1.1240	48.7690
 1.1250	48.7380
 1.1260	48.7090
 1.1270	48.6690
 1.1280	48.6240
 1.1290	48.5730
 1.1300	48.5160
 1.1310	48.4530
 1.1320	48.3850
 1.1330	48.3110
 1.1340	48.2310
 1.1350	48.1440
 1.1360	48.0500
 1.1370	47.9520
 1.1380	47.8480
 1.1390	47.7380
 1.1400	47.6240
 1.1410	47.5110
 1.1420	47.3930
 1.1430	47.2750
 1.1440	47.1580
 1.1450	47.0400
 1.1460	46.9250
 1.1470	46.8090
 1.1480	46.6990
 1.1490	46.5900
 1.1500	46.4890
 1.1510	46.3940
 1.1520	46.3050
 1.1530	46.2240
 1.1540	46.1480
 1.1550	46.0770
 1.1560	46.0120
 1.1570	45.9510
 1.1580	45.8970
 1.1590	45.8510
 1.1600	45.8090
 1.1610	45.7720
 1.1620	45.7390
 1.1630	45.7090
 1.1640	45.6830
 1.1650	45.6580
 1.1660	45.6360
 1.1670	45.6160
 1.1680	45.5990
 1.1690	45.5830
 1.1700	45.5680
 1.1710	45.5550
 1.1720	45.5440
 1.1730	45.5310
 1.1740	45.5180
 1.1750	45.5050
 1.1760	45.4900
 1.1770	45.4760
 1.1780	45.4600
 1.1790	45.4440
 1.1800	45.4290
 1.1810	45.4130
 1.1820	45.3980
 1.1830	45.3820
 1.1840	45.3670
 1.1850	45.3500
 1.1860	45.3350
 1.1870	45.3220
 1.1880	45.3100
 1.1890	45.3000
 1.1900	45.2900
 1.1910	45.2790
 1.1920	45.2690
 1.1930	45.2590
 1.1940	45.2510
 1.1950	45.2450
 1.1960	45.2400
 1.1970	45.2360
 1.1980	45.2320
 1.1990	45.2300
 1.2000	45.2300
 1.2010	45.2330
 1.2020	45.2380
 1.2030	45.2430
 1.2040	45.2510
 1.2050	45.2610
 1.2060	45.2730
 1.2070	45.2860
 1.2080	45.3000
 1.2090	45.3130
 1.2100	45.3270
 1.2110	45.3420
 1.2120	45.3580
 1.2130	45.3750
 1.2140	45.3940
 1.2150	45.4120
 1.2160	45.4320
 1.2170	45.4510
 1.2180	45.4710
 1.2190	45.4910
 1.2200	45.5100
 1.2210	45.5310
 1.2220	45.5510
 1.2230	45.5710
 1.2240	45.5920
 1.2250	45.6110
 1.2260	45.6300
 1.2270	45.6490
 1.2280	45.6670
 1.2290	45.6840
 1.2300	45.7010
 1.2310	45.7170
 1.2320	45.7330
 1.2330	45.7490
 1.2340	45.7640
 1.2350	45.7760
 1.2360	45.7890
 1.2370	45.8020
 1.2380	45.8130
 1.2390	45.8250
 1.2400	45.8370
 1.2410	45.8470
 1.2420	45.8600
 1.2430	45.8710
 1.2440	45.8820
 1.2450	45.8920
 1.2460	45.9010
 1.2470	45.9090
 1.2480	45.9160
 1.2490	45.9230
 1.2500	45.9290
 1.2510	45.9330
 1.2520	45.9380
 1.2530	45.9420
 1.2540	45.9450
 1.2550	45.9510
 1.2560	45.9550
 1.2570	45.9580
 1.2580	45.9600
 1.2590	45.9600
 1.2600	45.9590
 1.2610	45.9570
 1.2620	45.9550
 1.2630	45.9530
 1.2640	45.9490
 1.2650	45.9450
 1.2660	45.9410
 1.2670	45.9370
 1.2680	45.9320
 1.2690	45.9280
 1.2700	45.9250
 1.2710	45.9190
 1.2720	45.9120
 1.2730	45.9020
 1.2740	45.8900
 1.2750	45.8790
 1.2760	45.8670
 1.2770	45.8560
 1.2780	45.8420
 1.2790	45.8260
 1.2800	45.8080
 1.2810	45.7900
 1.2820	45.7700
 1.2830	45.7480
 1.2840	45.7250
 1.2850	45.6990
 1.2860	45.6710
 1.2870	45.6400
 1.2880	45.6090
 1.2890	45.5720
 1.2900	45.5340
 1.2910	45.4940
 1.2920	45.4510
 1.2930	45.4060
 1.2940	45.3590
 1.2950	45.3110
 1.2960	45.2620
 1.2970	45.2110
 1.2980	45.1580
 1.2990	45.1010
 1.3000	45.0390
 1.3010	44.9790
 1.3020	44.9160
 1.3030	44.8510
 1.3040	44.7860
 1.3050	44.7180
 1.3060	44.6500
 1.3070	44.5780
 1.3080	44.5040
 1.3090	44.4300
 1.3100	44.3530
 1.3110	44.2750
 1.3120	44.1970
 1.3130	44.1160
 1.3140	44.0320
 1.3150	43.9450
 1.3160	43.8580
 1.3170	43.7710
 1.3180	43.6800
 1.3190	43.5880
 1.3200	43.4960
 1.3210	43.4000
 1.3220	43.3020
 1.3230	43.2050
 1.3240	43.1070
 1.3250	43.0050
 1.3260	42.9030
 1.3270	42.7990
 1.3280	42.6930
 1.3290	42.5860
 1.3300	42.4780
 1.3310	42.3680
 1.3320	42.2570
 1.3330	42.1480
 1.3340	42.0370
 1.3350	41.9240
 1.3360	41.8120
 1.3370	41.6990
 1.3380	41.5850
 1.3390	41.4740
 1.3400	41.3610
 1.3410	41.2500
 1.3420	41.1410
 1.3430	41.0330
 1.3440	40.9270
 1.3450	40.8200
 1.3460	40.7120
 1.3470	40.6070
 1.3480	40.5020
 1.3490	40.3990
 1.3500	40.2970
 1.3510	40.1950
 1.3520	40.0910
 1.3530	39.9880
 1.3540	39.8840
 1.3550	39.7820
 1.3560	39.6770
 1.3570	39.5720
 1.3580	39.4660
 1.3590	39.3570
 1.3600	39.2450
 1.3610	39.1300
 1.3620	39.0090
 1.3630	38.8840
 1.3640	38.7550
 1.3650	38.6180
 1.3660	38.4760
 1.3670	38.3250
 1.3680	38.1640
 1.3690	37.9920
 1.3700	37.8070
 1.3710	37.6100
 1.3720	37.4000
 1.3730	37.1720
 1.3740	36.9310
 1.3750	36.6720
 1.3760	36.3930
 1.3770	36.0950
 1.3780	35.7720
 1.3790	35.4290
 1.3800	35.0630
 1.3810	34.6720
 1.3820	34.2650
 1.3830	33.8380
 1.3840	33.3930
 1.3850	32.9280
 1.3860	32.4500
 1.3870	31.9510
 1.3880	31.4480
 1.3890	30.9340
 1.3900	30.4100
 1.3910	29.8840
 1.3920	29.3520
 1.3930	28.8150
 1.3940	28.2810
 1.3950	27.7440
 1.3960	27.2160
 1.3970	26.6990
 1.3980	26.1900
 1.3990	25.7010
 1.4000	25.2270
 1.4010	24.7640
 1.4020	24.3230
 1.4030	23.8960
 1.4040	23.4890
 1.4050	23.1040
 1.4060	22.7370
 1.4070	22.3950
 1.4080	22.0720
 1.4090	21.7670
 1.4100	21.4840
 1.4110	21.2170
 1.4120	20.9680
 1.4130	20.7390
 1.4140	20.5260
 1.4150	20.3300
 1.4160	20.1490
 1.4170	19.9800
 1.4180	19.8250
 1.4190	19.6820
 1.4200	19.5500
 1.4210	19.4280
 1.4220	19.3160
 1.4230	19.2150
 1.4240	19.1220
 1.4250	19.0370
 1.4260	18.9610
 1.4270	18.8910
 1.4280	18.8270
 1.4290	18.7700
 1.4300	18.7200
 1.4310	18.6750
 1.4320	18.6370
 1.4330	18.6020
 1.4340	18.5720
 1.4350	18.5460
 1.4360	18.5240
 1.4370	18.5070
 1.4380	18.4930
 1.4390	18.4830
 1.4400	18.4760
 1.4410	18.4720
 1.4420	18.4710
 1.4430	18.4730
 1.4440	18.4770
 1.4450	18.4840
 1.4460	18.4920
 1.4470	18.5020
 1.4480	18.5140
 1.4490	18.5270
 1.4500	18.5430
 1.4510	18.5600
 1.4520	18.5790
 1.4530	18.5990
 1.4540	18.6200
 1.4550	18.6440
 1.4560	18.6710
 1.4570	18.7000
 1.4580	18.7320
 1.4590	18.7670
 1.4600	18.8060
 1.4610	18.8490
 1.4620	18.8950
 1.4630	18.9470
 1.4640	19.0020
 1.4650	19.0620
 1.4660	19.1280
 1.4670	19.1970
 1.4680	19.2720
 1.4690	19.3510
 1.4700	19.4320
 1.4710	19.5180
 1.4720	19.6070
 1.4730	19.7000
 1.4740	19.7970
 1.4750	19.8960
 1.4760	19.9970
 1.4770	20.1030
 1.4780	20.2080
 1.4790	20.3180
 1.4800	20.4290
 1.4810	20.5400
 1.4820	20.6530
 1.4830	20.7680
 1.4840	20.8840
 1.4850	21.0020
 1.4860	21.1210
 1.4870	21.2420
 1.4880	21.3620
 1.4890	21.4830
 1.4900	21.6050
 1.4910	21.7290
 1.4920	21.8530
 1.4930	21.9780
 1.4940	22.1030
 1.4950	22.2270
 1.4960	22.3530
 1.4970	22.4780
 1.4980	22.6040
 1.4990	22.7310
 1.5000	22.8580
 1.5010	22.9860
 1.5020	23.1130
 1.5030	23.2420
 1.5040	23.3690
 1.5050	23.4960
 1.5060	23.6230
 1.5070	23.7490
 1.5080	23.8750
 1.5090	24.0020
 1.5100	24.1280
 1.5110	24.2540
 1.5120	24.3800
 1.5130	24.5030
 1.5140	24.6270
 1.5150	24.7510
 1.5160	24.8740
 1.5170	24.9970
 1.5180	25.1180
 1.5190	25.2380
 1.5200	25.3580
 1.5210	25.4770
 1.5220	25.5970
 1.5230	25.7150
 1.5240	25.8310
 1.5250	25.9470
 1.5260	26.0620
 1.5270	26.1760
 1.5280	26.2910
 1.5290	26.4040
 1.5300	26.5150
 1.5310	26.6280
 1.5320	26.7390
 1.5330	26.8490
 1.5340	26.9580
 1.5350	27.0640
 1.5360	27.1710
 1.5370	27.2770
 1.5380	27.3820
 1.5390	27.4870
 1.5400	27.5890
 1.5410	27.6910
 1.5420	27.7920
 1.5430	27.8930
 1.5440	27.9930
 1.5450	28.0910
 1.5460	28.1880
 1.5470	28.2840
 1.5480	28.3780
 1.5490	28.4740
 1.5500	28.5700
 1.5510	28.6650
 1.5520	28.7600
 1.5530	28.8520
 1.5540	28.9420
 1.5550	29.0310
 1.5560	29.1180
 1.5570	29.2060
 1.5580	29.2910
 1.5590	29.3770
 1.5600	29.4640
 1.5610	29.5460
 1.5620	29.6290
 1.5630	29.7110
 1.5640	29.7910
 1.5650	29.8710
 1.5660	29.9490
 1.5670	30.0250
 1.5680	30.1020
 1.5690	30.1780
 1.5700	30.2540
 1.5710	30.3300
 1.5720	30.4030
 1.5730	30.4750
 1.5740	30.5490
 1.5750	30.6240
 1.5760	30.6980
 1.5770	30.7710
 1.5780	30.8440
 1.5790	30.9160
 1.5800	30.9870
 1.5810	31.0580
 1.5820	31.1290
 1.5830	31.1980
 1.5840	31.2670
 1.5850	31.3360
 1.5860	31.4040
 1.5870	31.4710
 1.5880	31.5360
 1.5890	31.6000
 1.5900	31.6650
 1.5910	31.7290
 1.5920	31.7930
 1.5930	31.8560
 1.5940	31.9180
 1.5950	31.9800
 1.5960	32.0410
 1.5970	32.1020
 1.5980	32.1620
 1.5990	32.2190
 1.6000	32.2760
 1.6010	32.3320
 1.6020	32.3870
 1.6030	32.4430
 1.6040	32.4990
 1.6050	32.5550
 1.6060	32.6080
 1.6070	32.6600
 1.6080	32.7130
 1.6090	32.7640
 1.6100	32.8150
 1.6110	32.8670
 1.6120	32.9160
 1.6130	32.9650
 1.6140	33.0150
 1.6150	33.0630
 1.6160	33.1100
 1.6170	33.1560
 1.6180	33.2020
 1.6190	33.2460
 1.6200	33.2910
 1.6210	33.3340
 1.6220	33.3770
 1.6230	33.4190
 1.6240	33.4600
 1.6250	33.5000
 1.6260	33.5400
 1.6270	33.5800
 1.6280	33.6200
 1.6290	33.6590
 1.6300	33.6980
 1.6310	33.7350
 1.6320	33.7710
 1.6330	33.8070
 1.6340	33.8430
 1.6350	33.8770
 1.6360	33.9110
 1.6370	33.9440
 1.6380	33.9760
 1.6390	34.0070
 1.6400	34.0360
 1.6410	34.0650
 1.6420	34.0910
 1.6430	34.1180
 1.6440	34.1460
 1.6450	34.1700
 1.6460	34.1940
 1.6470	34.2160
 1.6480	34.2350
 1.6490	34.2550
 1.6500	34.2760
 1.6510	34.2930
 1.6520	34.3100
 1.6530	34.3250
 1.6540	34.3380
 1.6550	34.3500
 1.6560	34.3600
 1.6570	34.3670
 1.6580	34.3740
 1.6590	34.3790
 1.6600	34.3850
 1.6610	34.3890
 1.6620	34.3920
 1.6630	34.3940
 1.6640	34.3930
 1.6650	34.3910
 1.6660	34.3880
 1.6670	34.3810
 1.6680	34.3730
 1.6690	34.3640
 1.6700	34.3520
 1.6710	34.3400
 1.6720	34.3270
 1.6730	34.3110
 1.6740	34.2920
 1.6750	34.2720
 1.6760	34.2490
 1.6770	34.2250
 1.6780	34.1990
 1.6790	34.1720
 1.6800	34.1440
 1.6810	34.1140
 1.6820	34.0810
 1.6830	34.0450
 1.6840	34.0060
 1.6850	33.9670
 1.6860	33.9270
 1.6870	33.8880
 1.6880	33.8480
 1.6890	33.8070
 1.6900	33.7650
 1.6910	33.7210
 1.6920	33.6780
 1.6930	33.6350
 1.6940	33.5930
 1.6950	33.5510
 1.6960	33.5090
 1.6970	33.4670
 1.6980	33.4230
 1.6990	33.3780
 1.7000	33.3320
 1.7010	33.2850
 1.7020	33.2380
 1.7030	33.1900
 1.7040	33.1420
 1.7050	33.0930
 1.7060	33.0440
 1.7070	32.9950
 1.7080	32.9470
 1.7090	32.8980
 1.7100	32.8490
 1.7110	32.8000
 1.7120	32.7550
 1.7130	32.7090
 1.7140	32.6650
 1.7150	32.6230
 1.7160	32.5800
 1.7170	32.5370
 1.7180	32.4950
 1.7190	32.4530
 1.7200	32.4100
 1.7210	32.3670
 1.7220	32.3260
 1.7230	32.2840
 1.7240	32.2450
 1.7250	32.2070
 1.7260	32.1670
 1.7270	32.1270
 1.7280	32.0880
 1.7290	32.0490
 1.7300	32.0130
 1.7310	31.9760
 1.7320	31.9400
 1.7330	31.9020
 1.7340	31.8640
 1.7350	31.8250
 1.7360	31.7860
 1.7370	31.7450
 1.7380	31.7040
 1.7390	31.6590
 1.7400	31.6110
 1.7410	31.5600
 1.7420	31.5070
 1.7430	31.4530
 1.7440	31.3970
 1.7450	31.3400
 1.7460	31.2800
 1.7470	31.2210
 1.7480	31.1610
 1.7490	31.1010
 1.7500	31.0420
 1.7510	30.9810
 1.7520	30.9190
 1.7530	30.8590
 1.7540	30.7990
 1.7550	30.7420
 1.7560	30.6860
 1.7570	30.6300
 1.7580	30.5760
 1.7590	30.5230
 1.7600	30.4700
 1.7610	30.4170
 1.7620	30.3670
 1.7630	30.3210
 1.7640	30.2750
 1.7650	30.2310
 1.7660	30.1870
 1.7670	30.1410
 1.7680	30.0990
 1.7690	30.0600
 1.7700	30.0210
 1.7710	29.9830
 1.7720	29.9450
 1.7730	29.9070
 1.7740	29.8710
 1.7750	29.8360
 1.7760	29.8030
 1.7770	29.7720
 1.7780	29.7430
 1.7790	29.7170
 1.7800	29.6920
 1.7810	29.6690
 1.7820	29.6490
 1.7830	29.6310
 1.7840	29.6150
 1.7850	29.6010
 1.7860	29.5890
 1.7870	29.5780
 1.7880	29.5690
 1.7890	29.5630
 1.7900	29.5600
 1.7910	29.5570
 1.7920	29.5570
 1.7930	29.5570
 1.7940	29.5570
 1.7950	29.5590
 1.7960	29.5630
 1.7970	29.5670
 1.7980	29.5710
 1.7990	29.5750
 1.8000	29.5790
 1.8010	29.5840
 1.8020	29.5900
 1.8030	29.5970
 1.8040	29.6060
 1.8050	29.6130
 1.8060	29.6220
 1.8070	29.6280
 1.8080	29.6320
 1.8090	29.6390
 1.8100	29.6470
 1.8110	29.6530
 1.8120	29.6600
 1.8130	29.6660
 1.8140	29.6710
 1.8150	29.6770
 1.8160	29.6820
 1.8170	29.6830
 1.8180	29.6840
 1.8190	29.6840
 1.8200	29.6820
 1.8210	29.6800
 1.8220	29.6770
 1.8230	29.6720
 1.8240	29.6660
 1.8250	29.6590
 1.8260	29.6500
 1.8270	29.6370
 1.8280	29.6230
 1.8290	29.6090
 1.8300	29.5920
 1.8310	30.6590
 1.8320	30.6320
 1.8330	30.6000
 1.8340	30.5640
 1.8350	30.5240
 1.8360	30.4800
 1.8370	30.4320
 1.8380	30.3790
 1.8390	30.3220
 1.8400	30.2630
 1.8410	30.1980
 1.8420	30.1300
 1.8430	30.0530
 1.8440	29.9670
 1.8450	29.8750
 1.8460	29.7740
 1.8470	29.6640
 1.8480	29.5460
 1.8490	29.4180
 1.8500	29.2790
 1.8510	29.1290
 1.8520	28.9690
 1.8530	28.7980
 1.8540	28.6160
 1.8550	28.4230
 1.8560	28.2170
 1.8570	27.9960
 1.8580	27.7600
 1.8590	27.5110
 1.8600	27.2460
 1.8610	26.9670
 1.8620	26.6710
 1.8630	26.3640
 1.8640	26.0390
 1.8650	25.6960
 1.8660	25.3380
 1.8670	24.9560
 1.8680	24.5580
 1.8690	24.1460
 1.8700	23.7170
 1.8710	23.2710
 1.8720	22.8190
 1.8730	22.3530
 1.8740	21.8740
 1.8750	21.3930
 1.8760	20.9040
 1.8770	20.4120
 1.8780	19.9240
 1.8790	19.4310
 1.8800	18.9460
 1.8810	18.4650
 1.8820	17.9900
 1.8830	17.5150
 1.8840	17.0510
 1.8850	16.5940
 1.8860	16.1460
 1.8870	15.7140
 1.8880	15.2940
 1.8890	14.8960
 1.8900	14.5190
 1.8910	14.1610
 1.8920	13.8210
 1.8930	13.5060
 1.8940	13.2090
 1.8950	12.9340
 1.8960	12.6790
 1.8970	12.4440
 1.8980	12.2290
 1.8990	12.0330
 1.9000	11.8540
 1.9010	11.6980
 1.9020	11.5520
 1.9030	11.4220
 1.9040	11.3050
 1.9050	11.2040
 1.9060	11.1110
 1.9070	11.0300
 1.9080	10.9610
 1.9090	10.8960
 1.9100	10.8400
 1.9110	10.7880
 1.9120	10.7440
 1.9130	10.7050
 1.9140	10.6710
 1.9150	10.6420
 1.9160	10.6160
 1.9170	10.5940
 1.9180	10.5750
 1.9190	10.5580
 1.9200	10.5440
 1.9210	10.5330
 1.9220	10.5240
 1.9230	10.5190
 1.9240	10.5140
 1.9250	10.5120
 1.9260	10.5120
 1.9270	10.5110
 1.9280	10.5110
 1.9290	10.5130
 1.9300	10.5160
 1.9310	10.5200
 1.9320	10.5290
 1.9330	10.5390
 1.9340	10.5520
 1.9350	10.5640
 1.9360	10.5790
 1.9370	10.5930
 1.9380	10.6050
 1.9390	10.6200
 1.9400	10.6350
 1.9410	10.6530
 1.9420	10.6750
 1.9430	10.6980
 1.9440	10.7220
 1.9450	10.7480
 1.9460	10.7740
 1.9470	10.8010
 1.9480	10.8280
 1.9490	10.8550
 1.9500	10.8820
 1.9510	10.9100
 1.9520	10.9400
 1.9530	10.9710
 1.9540	11.0020
 1.9550	11.0350
 1.9560	11.0700
 1.9570	11.1060
 1.9580	11.1440
 1.9590	11.1830
 1.9600	11.2230
 1.9610	11.2640
 1.9620	11.3050
 1.9630	11.3480
 1.9640	11.3900
 1.9650	11.4320
 1.9660	11.4760
 1.9670	11.5200
 1.9680	11.5650
 1.9690	11.6100
 1.9700	11.6560
 1.9710	11.7020
 1.9720	11.7500
 1.9730	11.8010
 1.9740	11.8520
 1.9750	11.9040
 1.9760	11.9570
 1.9770	12.0100
 1.9780	12.0640
 1.9790	12.1180
 1.9800	12.1720
 1.9810	12.2290
 1.9820	12.2850
 1.9830	12.3430
 1.9840	12.4050
 1.9850	12.4640
 1.9860	12.5220
 1.9870	12.5810
 1.9880	12.6430
 1.9890	12.7040
 1.9900	12.7670
 1.9910	12.8310
 1.9920	12.8940
 1.9930	12.9560
 1.9940	13.0190
 1.9950	13.0820
 1.9960	13.1460
 1.9970	13.2090
 1.9980	13.2730
 1.9990	13.3390
 2.0000	13.4040
 2.0010	13.4680
 2.0020	13.5350
 2.0030	13.6000
 2.0040	13.6640
 2.0050	13.7300
 2.0060	13.7960
 2.0070	13.8620
 2.0080	13.9290
 2.0090	13.9950
 2.0100	14.0610
 2.0110	14.1270
 2.0120	14.1920
 2.0130	14.2590
 2.0140	14.3250
 2.0150	14.3910
 2.0160	14.4580
 2.0170	14.5220
 2.0180	14.5850
 2.0190	14.6470
 2.0200	14.7080
 2.0210	14.7670
 2.0220	14.8280
 2.0230	14.8910
 2.0240	14.9530
 2.0250	15.0170
 2.0260	15.0780
 2.0270	15.1350
 2.0280	15.1920
 2.0290	15.2480
 2.0300	15.3050
 2.0310	15.3620
 2.0320	15.4210
 2.0330	15.4770
 2.0340	15.5320
 2.0350	15.5860
 2.0360	15.6390
 2.0370	15.6920
 2.0380	15.7430
 2.0390	15.7930
 2.0400	15.8400
 2.0410	15.8900
 2.0420	15.9400
 2.0430	15.9890
 2.0440	16.0380
 2.0450	16.0880
 2.0460	16.1370
 2.0470	16.1830
 2.0480	16.2310
 2.0490	16.2780
 2.0500	16.3270
 2.0510	16.3760
 2.0520	16.4240
 2.0530	16.4730
 2.0540	16.5230
 2.0550	16.5710
 2.0560	16.6210
 2.0570	16.6720
 2.0580	16.7230
 2.0590	16.7740
 2.0600	16.8230
 2.0610	16.8760
 2.0620	16.9310
 2.0630	16.9850
 2.0640	17.0400
 2.0650	17.0940
 2.0660	17.1440
 2.0670	17.1980
 2.0680	17.2570
 2.0690	17.3130
 2.0700	17.3680
 2.0710	17.4220
 2.0720	17.4760
 2.0730	17.5300
 2.0740	17.5830
 2.0750	17.6370
 2.0760	17.6900
 2.0770	17.7410
 2.0780	17.7940
 2.0790	17.8480
 2.0800	17.9010
 2.0810	17.9560
 2.0820	18.0090
 2.0830	18.0620
 2.0840	18.1140
 2.0850	18.1660
 2.0860	18.2170
 2.0870	18.2650
 2.0880	18.3170
 2.0890	18.3670
 2.0900	18.4160
 2.0910	18.4660
 2.0920	18.5150
 2.0930	18.5650
 2.0940	18.6130
 2.0950	18.6630
 2.0960	18.7130
 2.0970	18.7630
 2.0980	18.8140
 2.0990	18.8640
 2.1000	18.9130
 2.1010	18.9620
 2.1020	19.0090
 2.1030	19.0580
 2.1040	19.1080
 2.1050	19.1590
 2.1060	19.2080
 2.1070	19.2590
 2.1080	19.3090
 2.1090	19.3570
 2.1100	19.4060
 2.1110	19.4550
 2.1120	19.5040
 2.1130	19.5520
 2.1140	19.5990
 2.1150	19.6440
 2.1160	19.6910
 2.1170	19.7370
 2.1180	19.7830
 2.1190	19.8320
 2.1200	19.8780
 2.1210	19.9230
 2.1220	19.9700
 2.1230	20.0150
 2.1240	20.0620
 2.1250	20.1040
 2.1260	20.1450
 2.1270	20.1850
 2.1280	20.2200
 2.1290	20.2590
 2.1300	20.2990
 2.1310	20.3400
 2.1320	20.3840
 2.1330	20.4230
 2.1340	20.4590
 2.1350	20.4940
 2.1360	20.5230
 2.1370	20.5530
 2.1380	20.5840
 2.1390	20.6140
 2.1400	20.6430
 2.1410	20.6720
 2.1420	20.7000
 2.1430	20.7270
 2.1440	20.7530
 2.1450	20.7770
 2.1460	20.8020
 2.1470	20.8270
 2.1480	20.8520
 2.1490	20.8790
 2.1500	20.9010
 2.1510	20.9200
 2.1520	20.9400
 2.1530	20.9600
 2.1540	20.9780
 2.1550	20.9950
 2.1560	21.0130
 2.1570	21.0270
 2.1580	21.0430
 2.1590	21.0600
 2.1600	21.0770
 2.1610	21.0920
 2.1620	21.1090
 2.1630	21.1240
 2.1640	21.1370
 2.1650	21.1510
 2.1660	21.1640
 2.1670	21.1780
 2.1680	21.1940
 2.1690	21.2080
 2.1700	21.2230
 2.1710	21.2380
 2.1720	21.2540
 2.1730	21.2700
 2.1740	21.2880
 2.1750	21.3040
 2.1760	21.3200
 2.1770	21.3360
 2.1780	21.3490
 2.1790	21.3660
 2.1800	21.3850
 2.1810	21.4030
 2.1820	21.4250
 2.1830	21.4470
 2.1840	21.4670
 2.1850	21.4860
 2.1860	21.5060
 2.1870	21.5260
 2.1880	21.5460
 2.1890	21.5660
 2.1900	21.5860
 2.1910	21.6070
 2.1920	21.6280
 2.1930	21.6520
 2.1940	21.6710
 2.1950	21.6890
 2.1960	21.7080
 2.1970	21.7260
 2.1980	21.7440
 2.1990	21.7640
 2.2000	21.7820
 2.2010	21.7980
 2.2020	21.8130
 2.2030	21.8250
 2.2040	21.8390
 2.2050	21.8530
 2.2060	21.8670
 2.2070	21.8770
 2.2080	21.8860
 2.2090	21.8940
 2.2100	21.8950
 2.2110	21.9010
 2.2120	21.9100
 2.2130	21.9160
 2.2140	21.9240
 2.2150	21.9290
 2.2160	21.9340
 2.2170	21.9360
 2.2180	21.9370
 2.2190	21.9370
 2.2200	21.9360
 2.2210	21.9320
 2.2220	21.9250
 2.2230	21.9180
 2.2240	21.9050
 2.2250	21.8950
 2.2260	21.8890
 2.2270	21.8760
 2.2280	21.8620
 2.2290	21.8450
 2.2300	21.8260
 2.2310	21.8020
 2.2320	21.7780
 2.2330	21.7490
 2.2340	21.7200
 2.2350	21.6850
 2.2360	21.6540
 2.2370	21.6240
 2.2380	21.5890
 2.2390	21.5540
 2.2400	21.5140
 2.2410	21.4670
 2.2420	21.4230
 2.2430	21.3750
 2.2440	21.3290
 2.2450	21.2840
 2.2460	21.2340
 2.2470	21.1810
 2.2480	21.1270
 2.2490	21.0690
 2.2500	21.0120
 2.2510	20.9570
 2.2520	20.8980
 2.2530	20.8340
 2.2540	20.7730
 2.2550	20.7110
 2.2560	20.6470
 2.2570	20.5840
 2.2580	20.5200
 2.2590	20.4510
 2.2600	20.3840
 2.2610	20.3160
 2.2620	20.2520
 2.2630	20.1830
 2.2640	20.1180
 2.2650	20.0570
 2.2660	19.9930
 2.2670	19.9320
 2.2680	19.8730
 2.2690	19.8150
 2.2700	19.7560
 2.2710	19.7000
 2.2720	19.6480
 2.2730	19.5960
 2.2740	19.5460
 2.2750	19.4960
 2.2760	19.4470
 2.2770	19.4000
 2.2780	19.3570
 2.2790	19.3090
 2.2800	19.2590
 2.2810	19.2130
 2.2820	19.1640
 2.2830	19.1160
 2.2840	19.0740
 2.2850	19.0260
 2.2860	18.9710
 2.2870	18.9210
 2.2880	18.8720
 2.2890	18.8240
 2.2900	18.7760
 2.2910	18.7310
 2.2920	18.6890
 2.2930	18.6440
 2.2940	18.6030
 2.2950	18.5560
 2.2960	18.5020
 2.2970	18.4520
 2.2980	18.4010
 2.2990	18.3530
 2.3000	18.3070
 2.3010	18.2650
 2.3020	18.2240
 2.3030	18.1790
 2.3040	18.1370
 2.3050	18.1000
 2.3060	18.0630
 2.3070	18.0310
 2.3080	18.0000
 2.3090	17.9720
 2.3100	17.9470
 2.3110	17.9250
 2.3120	17.9010
 2.3130	17.8790
 2.3140	17.8570
 2.3150	17.8340
 2.3160	17.8130
 2.3170	17.7940
 2.3180	17.7720
 2.3190	17.7490
 2.3200	17.7240
 2.3210	17.6970
 2.3220	17.6660
 2.3230	17.6300
 2.3240	17.5960
 2.3250	17.5600
 2.3260	17.5240
 2.3270	17.4900
 2.3280	17.4550
 2.3290	17.4170
 2.3300	17.3790
 2.3310	17.3420
 2.3320	17.3040
 2.3330	17.2650
 2.3340	17.2250
 2.3350	17.1850
 2.3360	17.1440
 2.3370	17.1000
 2.3380	17.0590
 2.3390	17.0190
 2.3400	16.9800
 2.3410	16.9440
 2.3420	16.9050
 2.3430	16.8640
 2.3440	16.8250
 2.3450	16.7830
 2.3460	16.7430
 2.3470	16.7010
 2.3480	16.6640
 2.3490	16.6290
 2.3500	16.5940
 2.3510	16.5670
 2.3520	16.5340
 2.3530	16.4970
 2.3540	16.4640
 2.3550	16.4320
 2.3560	16.4000
 2.3570	16.3780
 2.3580	16.3500
 2.3590	16.3130
 2.3600	16.2790
 2.3610	16.2430
 2.3620	16.2050
 2.3630	16.1740
 2.3640	16.1420
 2.3650	16.1060
 2.3660	16.0730
 2.3670	16.0350
 2.3680	15.9960
 2.3690	15.9600
 2.3700	15.9230
 2.3710	15.8980
 2.3720	15.8700
 2.3730	15.8360
 2.3740	15.8010
 2.3750	15.7560
 2.3760	15.7140
 2.3770	15.6800
 2.3780	15.6480
 2.3790	15.6120
 2.3800	15.5750
 2.3810	15.5400
 2.3820	15.5010
 2.3830	15.4640
 2.3840	15.4280
 2.3850	15.3890
 2.3860	15.3470
 2.3870	15.3080
 2.3880	15.2730
 2.3890	15.2350
 2.3900	15.1990
 2.3910	15.1640
 2.3920	15.1250
 2.3930	15.0870
 2.3940	15.0440
 2.3950	15.0020
 2.3960	14.9640
 2.3970	14.9180
 2.3980	14.8840
 2.3990	14.8500
 2.4000	14.8080
 2.4010	14.7760
 2.4020	14.7370
 2.4030	14.7010
 2.4040	14.6650
 2.4050	14.6190
 2.4060	14.5770
 2.4070	14.5330
 2.4080	14.4930
 2.4090	14.4620
 2.4100	14.4320
 2.4110	14.4000
 2.4120	14.3670
 2.4130	14.3300
 2.4140	14.2890
 2.4150	14.2420
 2.4160	14.2010
 2.4170	14.1650
 2.4180	14.1260
 2.4190	14.0840
 2.4200	14.0420
 2.4210	13.9960
 2.4220	13.9590
 2.4230	13.9350
 2.4240	13.9030
 2.4250	13.8700
 2.4260	13.8290
 2.4270	13.7830
 2.4280	13.7480
 2.4290	13.7060
 2.4300	13.6670
 2.4310	13.6320
 2.4320	13.5830
 2.4330	13.5420
 2.4340	13.5070
 2.4350	13.4620
 2.4360	13.4260
 2.4370	13.3950
 2.4380	13.3540
 2.4390	13.3180
 2.4400	13.2790
 2.4410	13.2290
 2.4420	13.1910
 2.4430	13.1570
 2.4440	13.1200
 2.4450	13.0790
 2.4460	13.0420
 2.4470	13.0070
 2.4480	12.9660
 2.4490	12.9380
 2.4500	12.9010
 2.4510	12.8600
 2.4520	12.8280
 2.4530	12.7960
 2.4540	12.7600
 2.4550	12.7200
 2.4560	12.6960
 2.4570	12.6660
 2.4580	12.6260
 2.4590	12.5910
 2.4600	12.5610
 2.4610	12.5430
 2.4620	12.5430
 2.4630	12.5320
 2.4640	12.4970
 2.4650	12.4580
 2.4660	12.4190
 2.4670	12.4000
 2.4680	12.3970
 2.4690	12.3720
 2.4700	12.3490
 2.4710	12.3190
 2.4720	12.2890
 2.4730	12.2640
 2.4740	12.2370
 2.4750	12.1950
 2.4760	12.1710
 2.4770	12.1560
 2.4780	12.1450
 2.4790	12.1610
 2.4800	12.1500
 2.4810	12.1190
 2.4820	12.0990
 2.4830	12.0820
 2.4840	12.0760
 2.4850	12.0790
 2.4860	12.0840
 2.4870	12.0700
 2.4880	12.0610
 2.4890	12.0480
 2.4900	12.0310
 2.4910	12.0250
 2.4920	12.0060
 2.4930	12.0160
 2.4940	12.0260
 2.4950	12.0000
 2.4960	11.9860
 2.4970	11.9650
 2.4980	11.9450
 2.4990	11.9190
 2.5000	11.9110
