Name: Jacaranda mimosifolia
Type: vegetation
Class: Tree
Genus: Jacaranda
Species: mimosifolia
Sample No.: JPL203
Owner: JPL
Wavelength Range: VSWIR
Origin: 34.12557; -118.11283; WGS84
Collection Date: 10/3/2016
Description: Samples were collected at the Huntington Garden in San Marino California as part of a JPL Subcontract studying HyTES imagery. Samples were taken to JPL and processed within 48 hours of collection. The same leaves were processed in the Nicolet and then measured using the ASD.
Measurement: Bidirectional reflectance
First Column: X
Second Column: Y
X Units: Wavelength (micrometer)
Y Units: Reflectance (percentage)
First X Value: 0.35
Last X Value: 2.5
Number of X Values: 2151
Additional Information: vegetation.tree.jacaranda.mimosifolia.vswir.jpl203.jpl.asd.ancillary.txt

 0.3500	 3.1990
 0.3510	 3.0050
 0.3520	 2.9300
 0.3530	 2.9100
 0.3540	 2.8580
 0.3550	 2.9120
 0.3560	 2.8830
 0.3570	 2.8250
 0.3580	 2.8840
 0.3590	 2.8670
 0.3600	 2.8510
 0.3610	 2.8850
 0.3620	 2.9470
 0.3630	 2.9510
 0.3640	 2.8920
 0.3650	 2.8140
 0.3660	 2.8290
 0.3670	 2.8450
 0.3680	 2.8330
 0.3690	 2.8160
 0.3700	 2.7950
 0.3710	 2.7860
 0.3720	 2.7920
 0.3730	 2.8020
 0.3740	 2.8380
 0.3750	 2.8720
 0.3760	 2.8710
 0.3770	 2.8490
 0.3780	 2.8560
 0.3790	 2.8730
 0.3800	 2.8300
 0.3810	 2.8120
 0.3820	 2.8030
 0.3830	 2.7840
 0.3840	 2.7600
 0.3850	 2.7620
 0.3860	 2.7670
 0.3870	 2.7430
 0.3880	 2.7560
 0.3890	 2.7810
 0.3900	 2.7920
 0.3910	 2.7740
 0.3920	 2.7840
 0.3930	 2.8030
 0.3940	 2.8080
 0.3950	 2.8060
 0.3960	 2.7810
 0.3970	 2.7580
 0.3980	 2.7740
 0.3990	 2.7750
 0.4000	 2.7700
 0.4010	 2.7710
 0.4020	 2.7830
 0.4030	 2.7860
 0.4040	 2.7940
 0.4050	 2.8160
 0.4060	 2.7980
 0.4070	 2.8000
 0.4080	 2.8220
 0.4090	 2.8230
 0.4100	 2.8250
 0.4110	 2.8340
 0.4120	 2.8470
 0.4130	 2.8550
 0.4140	 2.8660
 0.4150	 2.8730
 0.4160	 2.8740
 0.4170	 2.9100
 0.4180	 2.9400
 0.4190	 2.9500
 0.4200	 2.9570
 0.4210	 2.9800
 0.4220	 3.0020
 0.4230	 3.0090
 0.4240	 3.0270
 0.4250	 3.0410
 0.4260	 3.0550
 0.4270	 3.0780
 0.4280	 3.1040
 0.4290	 3.1210
 0.4300	 3.1270
 0.4310	 3.1340
 0.4320	 3.1590
 0.4330	 3.1790
 0.4340	 3.1740
 0.4350	 3.1840
 0.4360	 3.1950
 0.4370	 3.2030
 0.4380	 3.2170
 0.4390	 3.2270
 0.4400	 3.2340
 0.4410	 3.2400
 0.4420	 3.2530
 0.4430	 3.2630
 0.4440	 3.2720
 0.4450	 3.2820
 0.4460	 3.2930
 0.4470	 3.3070
 0.4480	 3.3180
 0.4490	 3.3210
 0.4500	 3.3300
 0.4510	 3.3420
 0.4520	 3.3520
 0.4530	 3.3590
 0.4540	 3.3670
 0.4550	 3.3750
 0.4560	 3.3760
 0.4570	 3.3760
 0.4580	 3.3820
 0.4590	 3.3910
 0.4600	 3.3860
 0.4610	 3.3900
 0.4620	 3.4020
 0.4630	 3.4150
 0.4640	 3.4150
 0.4650	 3.4050
 0.4660	 3.3940
 0.4670	 3.3970
 0.4680	 3.4040
 0.4690	 3.4140
 0.4700	 3.4230
 0.4710	 3.4210
 0.4720	 3.4190
 0.4730	 3.4160
 0.4740	 3.4090
 0.4750	 3.4130
 0.4760	 3.4220
 0.4770	 3.4280
 0.4780	 3.4240
 0.4790	 3.4230
 0.4800	 3.4260
 0.4810	 3.4310
 0.4820	 3.4360
 0.4830	 3.4440
 0.4840	 3.4530
 0.4850	 3.4550
 0.4860	 3.4600
 0.4870	 3.4630
 0.4880	 3.4650
 0.4890	 3.4730
 0.4900	 3.4850
 0.4910	 3.4950
 0.4920	 3.4980
 0.4930	 3.5100
 0.4940	 3.5250
 0.4950	 3.5390
 0.4960	 3.5530
 0.4970	 3.5670
 0.4980	 3.5840
 0.4990	 3.6090
 0.5000	 3.6300
 0.5010	 3.6560
 0.5020	 3.6880
 0.5030	 3.7220
 0.5040	 3.7560
 0.5050	 3.7940
 0.5060	 3.8380
 0.5070	 3.8870
 0.5080	 3.9440
 0.5090	 4.0070
 0.5100	 4.0720
 0.5110	 4.1460
 0.5120	 4.2310
 0.5130	 4.3240
 0.5140	 4.4230
 0.5150	 4.5300
 0.5160	 4.6460
 0.5170	 4.7700
 0.5180	 4.9010
 0.5190	 5.0370
 0.5200	 5.1800
 0.5210	 5.3360
 0.5220	 5.4890
 0.5230	 5.6440
 0.5240	 5.8020
 0.5250	 5.9520
 0.5260	 6.0990
 0.5270	 6.2400
 0.5280	 6.3760
 0.5290	 6.5020
 0.5300	 6.6190
 0.5310	 6.7270
 0.5320	 6.8250
 0.5330	 6.9180
 0.5340	 7.0020
 0.5350	 7.0740
 0.5360	 7.1370
 0.5370	 7.1920
 0.5380	 7.2420
 0.5390	 7.2910
 0.5400	 7.3400
 0.5410	 7.3890
 0.5420	 7.4360
 0.5430	 7.4760
 0.5440	 7.5070
 0.5450	 7.5290
 0.5460	 7.5400
 0.5470	 7.5480
 0.5480	 7.5580
 0.5490	 7.5690
 0.5500	 7.5760
 0.5510	 7.5820
 0.5520	 7.5830
 0.5530	 7.5750
 0.5540	 7.5550
 0.5550	 7.5250
 0.5560	 7.4870
 0.5570	 7.4430
 0.5580	 7.3900
 0.5590	 7.3270
 0.5600	 7.2560
 0.5610	 7.1770
 0.5620	 7.0970
 0.5630	 7.0160
 0.5640	 6.9290
 0.5650	 6.8360
 0.5660	 6.7400
 0.5670	 6.6410
 0.5680	 6.5390
 0.5690	 6.4380
 0.5700	 6.3400
 0.5710	 6.2430
 0.5720	 6.1440
 0.5730	 6.0480
 0.5740	 5.9580
 0.5750	 5.8800
 0.5760	 5.8070
 0.5770	 5.7370
 0.5780	 5.6700
 0.5790	 5.6090
 0.5800	 5.5500
 0.5810	 5.4950
 0.5820	 5.4440
 0.5830	 5.3990
 0.5840	 5.3570
 0.5850	 5.3170
 0.5860	 5.2810
 0.5870	 5.2440
 0.5880	 5.2060
 0.5890	 5.1680
 0.5900	 5.1400
 0.5910	 5.1180
 0.5920	 5.0970
 0.5930	 5.0770
 0.5940	 5.0560
 0.5950	 5.0380
 0.5960	 5.0270
 0.5970	 5.0140
 0.5980	 4.9990
 0.5990	 4.9830
 0.6000	 4.9680
 0.6010	 4.9510
 0.6020	 4.9320
 0.6030	 4.9090
 0.6040	 4.8830
 0.6050	 4.8540
 0.6060	 4.8240
 0.6070	 4.7930
 0.6080	 4.7580
 0.6090	 4.7250
 0.6100	 4.6940
 0.6110	 4.6630
 0.6120	 4.6250
 0.6130	 4.5820
 0.6140	 4.5400
 0.6150	 4.5030
 0.6160	 4.4650
 0.6170	 4.4300
 0.6180	 4.4010
 0.6190	 4.3740
 0.6200	 4.3480
 0.6210	 4.3270
 0.6220	 4.3090
 0.6230	 4.2920
 0.6240	 4.2780
 0.6250	 4.2680
 0.6260	 4.2580
 0.6270	 4.2500
 0.6280	 4.2430
 0.6290	 4.2360
 0.6300	 4.2320
 0.6310	 4.2280
 0.6320	 4.2220
 0.6330	 4.2050
 0.6340	 4.1930
 0.6350	 4.1810
 0.6360	 4.1630
 0.6370	 4.1360
 0.6380	 4.1090
 0.6390	 4.0820
 0.6400	 4.0520
 0.6410	 4.0180
 0.6420	 3.9860
 0.6430	 3.9560
 0.6440	 3.9280
 0.6450	 3.8980
 0.6460	 3.8690
 0.6470	 3.8440
 0.6480	 3.8210
 0.6490	 3.8010
 0.6500	 3.7860
 0.6510	 3.7730
 0.6520	 3.7630
 0.6530	 3.7520
 0.6540	 3.7380
 0.6550	 3.7310
 0.6560	 3.7210
 0.6570	 3.7080
 0.6580	 3.6950
 0.6590	 3.6800
 0.6600	 3.6640
 0.6610	 3.6490
 0.6620	 3.6380
 0.6630	 3.6260
 0.6640	 3.6150
 0.6650	 3.6050
 0.6660	 3.6000
 0.6670	 3.5970
 0.6680	 3.5970
 0.6690	 3.5990
 0.6700	 3.6050
 0.6710	 3.6140
 0.6720	 3.6250
 0.6730	 3.6380
 0.6740	 3.6550
 0.6750	 3.6760
 0.6760	 3.6970
 0.6770	 3.7180
 0.6780	 3.7430
 0.6790	 3.7730
 0.6800	 3.8030
 0.6810	 3.8340
 0.6820	 3.8690
 0.6830	 3.9070
 0.6840	 3.9450
 0.6850	 3.9870
 0.6860	 4.0340
 0.6870	 4.0870
 0.6880	 4.1500
 0.6890	 4.2250
 0.6900	 4.3200
 0.6910	 4.4460
 0.6920	 4.6030
 0.6930	 4.7960
 0.6940	 5.0310
 0.6950	 5.3180
 0.6960	 5.6540
 0.6970	 6.0410
 0.6980	 6.4760
 0.6990	 6.9550
 0.7000	 7.4730
 0.7010	 8.0260
 0.7020	 8.6100
 0.7030	 9.2150
 0.7040	 9.8380
 0.7050	10.4760
 0.7060	11.1200
 0.7070	11.7710
 0.7080	12.4280
 0.7090	13.0910
 0.7100	13.7550
 0.7110	14.4220
 0.7120	15.0920
 0.7130	15.7630
 0.7140	16.4290
 0.7150	17.0940
 0.7160	17.7590
 0.7170	18.4210
 0.7180	19.0740
 0.7190	19.7180
 0.7200	20.3520
 0.7210	20.9730
 0.7220	21.5830
 0.7230	22.1790
 0.7240	22.7560
 0.7250	23.3130
 0.7260	23.8500
 0.7270	24.3680
 0.7280	24.8650
 0.7290	25.3400
 0.7300	25.7920
 0.7310	26.2210
 0.7320	26.6260
 0.7330	27.0110
 0.7340	27.3750
 0.7350	27.7160
 0.7360	28.0370
 0.7370	28.3380
 0.7380	28.6200
 0.7390	28.8830
 0.7400	29.1250
 0.7410	29.3500
 0.7420	29.5600
 0.7430	29.7540
 0.7440	29.9290
 0.7450	30.0890
 0.7460	30.2370
 0.7470	30.3700
 0.7480	30.4910
 0.7490	30.6020
 0.7500	30.6990
 0.7510	30.7910
 0.7520	30.8740
 0.7530	30.9450
 0.7540	31.0120
 0.7550	31.0730
 0.7560	31.1270
 0.7570	31.1750
 0.7580	31.2200
 0.7590	31.2600
 0.7600	31.2960
 0.7610	31.3270
 0.7620	31.3520
 0.7630	31.3750
 0.7640	31.3980
 0.7650	31.4210
 0.7660	31.4410
 0.7670	31.4560
 0.7680	31.4680
 0.7690	31.4780
 0.7700	31.4890
 0.7710	31.5010
 0.7720	31.5110
 0.7730	31.5180
 0.7740	31.5240
 0.7750	31.5320
 0.7760	31.5390
 0.7770	31.5460
 0.7780	31.5530
 0.7790	31.5590
 0.7800	31.5650
 0.7810	31.5720
 0.7820	31.5770
 0.7830	31.5830
 0.7840	31.5870
 0.7850	31.5910
 0.7860	31.5950
 0.7870	31.5980
 0.7880	31.6000
 0.7890	31.6030
 0.7900	31.6070
 0.7910	31.6060
 0.7920	31.6050
 0.7930	31.6070
 0.7940	31.6090
 0.7950	31.6060
 0.7960	31.6020
 0.7970	31.5990
 0.7980	31.5950
 0.7990	31.5920
 0.8000	31.5900
 0.8010	31.5880
 0.8020	31.5810
 0.8030	31.5770
 0.8040	31.5750
 0.8050	31.5670
 0.8060	31.5580
 0.8070	31.5490
 0.8080	31.5410
 0.8090	31.5380
 0.8100	31.5320
 0.8110	31.5220
 0.8120	31.5120
 0.8130	31.5010
 0.8140	31.4890
 0.8150	31.4800
 0.8160	31.4730
 0.8170	31.4640
 0.8180	31.4540
 0.8190	31.4440
 0.8200	31.4340
 0.8210	31.4230
 0.8220	31.4130
 0.8230	31.4060
 0.8240	31.3960
 0.8250	31.3870
 0.8260	31.3780
 0.8270	31.3680
 0.8280	31.3580
 0.8290	31.3510
 0.8300	31.3440
 0.8310	31.3320
 0.8320	31.3240
 0.8330	31.3140
 0.8340	31.3050
 0.8350	31.3030
 0.8360	31.2990
 0.8370	31.2900
 0.8380	31.2820
 0.8390	31.2780
 0.8400	31.2780
 0.8410	31.2740
 0.8420	31.2660
 0.8430	31.2630
 0.8440	31.2610
 0.8450	31.2590
 0.8460	31.2570
 0.8470	31.2560
 0.8480	31.2540
 0.8490	31.2520
 0.8500	31.2490
 0.8510	31.2460
 0.8520	31.2470
 0.8530	31.2510
 0.8540	31.2530
 0.8550	31.2520
 0.8560	31.2540
 0.8570	31.2580
 0.8580	31.2560
 0.8590	31.2590
 0.8600	31.2640
 0.8610	31.2680
 0.8620	31.2690
 0.8630	31.2690
 0.8640	31.2710
 0.8650	31.2770
 0.8660	31.2840
 0.8670	31.2900
 0.8680	31.2950
 0.8690	31.2950
 0.8700	31.2990
 0.8710	31.3060
 0.8720	31.3130
 0.8730	31.3180
 0.8740	31.3240
 0.8750	31.3310
 0.8760	31.3360
 0.8770	31.3400
 0.8780	31.3520
 0.8790	31.3630
 0.8800	31.3670
 0.8810	31.3720
 0.8820	31.3780
 0.8830	31.3840
 0.8840	31.3900
 0.8850	31.4010
 0.8860	31.4080
 0.8870	31.4110
 0.8880	31.4180
 0.8890	31.4240
 0.8900	31.4300
 0.8910	31.4370
 0.8920	31.4460
 0.8930	31.4550
 0.8940	31.4620
 0.8950	31.4680
 0.8960	31.4770
 0.8970	31.4810
 0.8980	31.4870
 0.8990	31.4940
 0.9000	31.4990
 0.9010	31.5040
 0.9020	31.5120
 0.9030	31.5200
 0.9040	31.5250
 0.9050	31.5260
 0.9060	31.5280
 0.9070	31.5350
 0.9080	31.5470
 0.9090	31.5490
 0.9100	31.5470
 0.9110	31.5500
 0.9120	31.5590
 0.9130	31.5640
 0.9140	31.5640
 0.9150	31.5620
 0.9160	31.5750
 0.9170	31.5790
 0.9180	31.5760
 0.9190	31.5780
 0.9200	31.5800
 0.9210	31.5840
 0.9220	31.5860
 0.9230	31.5820
 0.9240	31.5840
 0.9250	31.5820
 0.9260	31.5770
 0.9270	31.5800
 0.9280	31.5730
 0.9290	31.5650
 0.9300	31.5620
 0.9310	31.5590
 0.9320	31.5510
 0.9330	31.5390
 0.9340	31.5290
 0.9350	31.5270
 0.9360	31.5250
 0.9370	31.5170
 0.9380	31.5040
 0.9390	31.4930
 0.9400	31.4860
 0.9410	31.4770
 0.9420	31.4620
 0.9430	31.4530
 0.9440	31.4390
 0.9450	31.4220
 0.9460	31.4060
 0.9470	31.3930
 0.9480	31.3800
 0.9490	31.3610
 0.9500	31.3350
 0.9510	31.3190
 0.9520	31.2960
 0.9530	31.2680
 0.9540	31.2420
 0.9550	31.2110
 0.9560	31.1960
 0.9570	31.1860
 0.9580	31.1620
 0.9590	31.1340
 0.9600	31.1140
 0.9610	31.0990
 0.9620	31.0840
 0.9630	31.0650
 0.9640	31.0430
 0.9650	31.0280
 0.9660	31.0250
 0.9670	31.0150
 0.9680	31.0000
 0.9690	30.9920
 0.9700	30.9950
 0.9710	30.9710
 0.9720	30.9660
 0.9730	30.9710
 0.9740	30.9560
 0.9750	30.9390
 0.9760	30.9290
 0.9770	30.9210
 0.9780	30.9110
 0.9790	30.9120
 0.9800	30.9130
 0.9810	30.9160
 0.9820	30.9240
 0.9830	30.9140
 0.9840	30.9070
 0.9850	30.9050
 0.9860	30.8970
 0.9870	30.9010
 0.9880	30.9120
 0.9890	30.9190
 0.9900	30.9180
 0.9910	30.9170
 0.9920	30.9200
 0.9930	30.9260
 0.9940	30.9300
 0.9950	30.9380
 0.9960	30.9380
 0.9970	30.9370
 0.9980	30.9430
 0.9990	30.9550
 1.0000	30.9410
 1.0010	31.2810
 1.0020	31.2870
 1.0030	31.2910
 1.0040	31.2930
 1.0050	31.2980
 1.0060	31.3040
 1.0070	31.3040
 1.0080	31.3070
 1.0090	31.3110
 1.0100	31.3140
 1.0110	31.3180
 1.0120	31.3210
 1.0130	31.3240
 1.0140	31.3280
 1.0150	31.3340
 1.0160	31.3400
 1.0170	31.3480
 1.0180	31.3560
 1.0190	31.3620
 1.0200	31.3660
 1.0210	31.3690
 1.0220	31.3720
 1.0230	31.3770
 1.0240	31.3830
 1.0250	31.3890
 1.0260	31.3970
 1.0270	31.4040
 1.0280	31.4090
 1.0290	31.4150
 1.0300	31.4200
 1.0310	31.4260
 1.0320	31.4320
 1.0330	31.4370
 1.0340	31.4410
 1.0350	31.4450
 1.0360	31.4490
 1.0370	31.4520
 1.0380	31.4570
 1.0390	31.4670
 1.0400	31.4710
 1.0410	31.4720
 1.0420	31.4770
 1.0430	31.4800
 1.0440	31.4840
 1.0450	31.4910
 1.0460	31.4960
 1.0470	31.4980
 1.0480	31.5020
 1.0490	31.5090
 1.0500	31.5140
 1.0510	31.5200
 1.0520	31.5220
 1.0530	31.5260
 1.0540	31.5280
 1.0550	31.5310
 1.0560	31.5350
 1.0570	31.5380
 1.0580	31.5410
 1.0590	31.5420
 1.0600	31.5390
 1.0610	31.5400
 1.0620	31.5400
 1.0630	31.5420
 1.0640	31.5480
 1.0650	31.5510
 1.0660	31.5530
 1.0670	31.5540
 1.0680	31.5550
 1.0690	31.5540
 1.0700	31.5550
 1.0710	31.5540
 1.0720	31.5540
 1.0730	31.5540
 1.0740	31.5550
 1.0750	31.5570
 1.0760	31.5570
 1.0770	31.5570
 1.0780	31.5570
 1.0790	31.5560
 1.0800	31.5550
 1.0810	31.5550
 1.0820	31.5540
 1.0830	31.5530
 1.0840	31.5530
 1.0850	31.5530
 1.0860	31.5530
 1.0870	31.5520
 1.0880	31.5510
 1.0890	31.5500
 1.0900	31.5500
 1.0910	31.5490
 1.0920	31.5470
 1.0930	31.5440
 1.0940	31.5390
 1.0950	31.5360
 1.0960	31.5340
 1.0970	31.5320
 1.0980	31.5330
 1.0990	31.5300
 1.1000	31.5240
 1.1010	31.5200
 1.1020	31.5170
 1.1030	31.5150
 1.1040	31.5120
 1.1050	31.5090
 1.1060	31.5070
 1.1070	31.5030
 1.1080	31.5010
 1.1090	31.5000
 1.1100	31.4970
 1.1110	31.4930
 1.1120	31.4890
 1.1130	31.4850
 1.1140	31.4800
 1.1150	31.4740
 1.1160	31.4670
 1.1170	31.4590
 1.1180	31.4510
 1.1190	31.4430
 1.1200	31.4360
 1.1210	31.4260
 1.1220	31.4150
 1.1230	31.4020
 1.1240	31.3870
 1.1250	31.3710
 1.1260	31.3560
 1.1270	31.3360
 1.1280	31.3140
 1.1290	31.2890
 1.1300	31.2610
 1.1310	31.2310
 1.1320	31.1990
 1.1330	31.1650
 1.1340	31.1280
 1.1350	31.0890
 1.1360	31.0470
 1.1370	31.0030
 1.1380	30.9580
 1.1390	30.9110
 1.1400	30.8620
 1.1410	30.8120
 1.1420	30.7600
 1.1430	30.7070
 1.1440	30.6560
 1.1450	30.6040
 1.1460	30.5530
 1.1470	30.5030
 1.1480	30.4560
 1.1490	30.4080
 1.1500	30.3650
 1.1510	30.3230
 1.1520	30.2830
 1.1530	30.2450
 1.1540	30.2100
 1.1550	30.1750
 1.1560	30.1440
 1.1570	30.1160
 1.1580	30.0890
 1.1590	30.0640
 1.1600	30.0410
 1.1610	30.0200
 1.1620	30.0010
 1.1630	29.9870
 1.1640	29.9720
 1.1650	29.9580
 1.1660	29.9450
 1.1670	29.9320
 1.1680	29.9190
 1.1690	29.9070
 1.1700	29.8950
 1.1710	29.8840
 1.1720	29.8740
 1.1730	29.8640
 1.1740	29.8550
 1.1750	29.8460
 1.1760	29.8370
 1.1770	29.8280
 1.1780	29.8180
 1.1790	29.8080
 1.1800	29.7980
 1.1810	29.7880
 1.1820	29.7790
 1.1830	29.7700
 1.1840	29.7610
 1.1850	29.7520
 1.1860	29.7420
 1.1870	29.7320
 1.1880	29.7230
 1.1890	29.7120
 1.1900	29.7040
 1.1910	29.6970
 1.1920	29.6910
 1.1930	29.6860
 1.1940	29.6810
 1.1950	29.6770
 1.1960	29.6720
 1.1970	29.6680
 1.1980	29.6650
 1.1990	29.6630
 1.2000	29.6630
 1.2010	29.6640
 1.2020	29.6650
 1.2030	29.6660
 1.2040	29.6690
 1.2050	29.6730
 1.2060	29.6790
 1.2070	29.6860
 1.2080	29.6920
 1.2090	29.6990
 1.2100	29.7080
 1.2110	29.7170
 1.2120	29.7270
 1.2130	29.7380
 1.2140	29.7500
 1.2150	29.7620
 1.2160	29.7750
 1.2170	29.7880
 1.2180	29.7990
 1.2190	29.8130
 1.2200	29.8260
 1.2210	29.8400
 1.2220	29.8540
 1.2230	29.8670
 1.2240	29.8800
 1.2250	29.8920
 1.2260	29.9030
 1.2270	29.9150
 1.2280	29.9270
 1.2290	29.9390
 1.2300	29.9490
 1.2310	29.9610
 1.2320	29.9710
 1.2330	29.9820
 1.2340	29.9910
 1.2350	29.9990
 1.2360	30.0080
 1.2370	30.0150
 1.2380	30.0230
 1.2390	30.0300
 1.2400	30.0380
 1.2410	30.0450
 1.2420	30.0510
 1.2430	30.0560
 1.2440	30.0620
 1.2450	30.0680
 1.2460	30.0750
 1.2470	30.0800
 1.2480	30.0850
 1.2490	30.0870
 1.2500	30.0900
 1.2510	30.0920
 1.2520	30.0950
 1.2530	30.1000
 1.2540	30.1050
 1.2550	30.1080
 1.2560	30.1100
 1.2570	30.1100
 1.2580	30.1100
 1.2590	30.1100
 1.2600	30.1110
 1.2610	30.1120
 1.2620	30.1110
 1.2630	30.1110
 1.2640	30.1100
 1.2650	30.1080
 1.2660	30.1070
 1.2670	30.1050
 1.2680	30.1050
 1.2690	30.1040
 1.2700	30.1020
 1.2710	30.0980
 1.2720	30.0930
 1.2730	30.0890
 1.2740	30.0860
 1.2750	30.0830
 1.2760	30.0800
 1.2770	30.0750
 1.2780	30.0690
 1.2790	30.0620
 1.2800	30.0560
 1.2810	30.0480
 1.2820	30.0390
 1.2830	30.0310
 1.2840	30.0220
 1.2850	30.0100
 1.2860	30.0000
 1.2870	29.9890
 1.2880	29.9780
 1.2890	29.9650
 1.2900	29.9520
 1.2910	29.9380
 1.2920	29.9200
 1.2930	29.9020
 1.2940	29.8850
 1.2950	29.8670
 1.2960	29.8480
 1.2970	29.8300
 1.2980	29.8120
 1.2990	29.7900
 1.3000	29.7670
 1.3010	29.7430
 1.3020	29.7170
 1.3030	29.6900
 1.3040	29.6630
 1.3050	29.6350
 1.3060	29.6060
 1.3070	29.5770
 1.3080	29.5460
 1.3090	29.5130
 1.3100	29.4810
 1.3110	29.4470
 1.3120	29.4120
 1.3130	29.3770
 1.3140	29.3400
 1.3150	29.3030
 1.3160	29.2640
 1.3170	29.2230
 1.3180	29.1820
 1.3190	29.1390
 1.3200	29.0950
 1.3210	29.0500
 1.3220	29.0040
 1.3230	28.9560
 1.3240	28.9070
 1.3250	28.8580
 1.3260	28.8070
 1.3270	28.7550
 1.3280	28.7020
 1.3290	28.6460
 1.3300	28.5910
 1.3310	28.5370
 1.3320	28.4800
 1.3330	28.4210
 1.3340	28.3610
 1.3350	28.3010
 1.3360	28.2420
 1.3370	28.1840
 1.3380	28.1260
 1.3390	28.0670
 1.3400	28.0070
 1.3410	27.9480
 1.3420	27.8890
 1.3430	27.8300
 1.3440	27.7720
 1.3450	27.7140
 1.3460	27.6550
 1.3470	27.5970
 1.3480	27.5380
 1.3490	27.4800
 1.3500	27.4220
 1.3510	27.3660
 1.3520	27.3080
 1.3530	27.2500
 1.3540	27.1910
 1.3550	27.1320
 1.3560	27.0720
 1.3570	27.0130
 1.3580	26.9530
 1.3590	26.8910
 1.3600	26.8280
 1.3610	26.7630
 1.3620	26.6970
 1.3630	26.6300
 1.3640	26.5600
 1.3650	26.4870
 1.3660	26.4100
 1.3670	26.3280
 1.3680	26.2410
 1.3690	26.1480
 1.3700	26.0470
 1.3710	25.9400
 1.3720	25.8250
 1.3730	25.7000
 1.3740	25.5680
 1.3750	25.4260
 1.3760	25.2720
 1.3770	25.1050
 1.3780	24.9230
 1.3790	24.7290
 1.3800	24.5200
 1.3810	24.2970
 1.3820	24.0620
 1.3830	23.8150
 1.3840	23.5530
 1.3850	23.2800
 1.3860	22.9940
 1.3870	22.6930
 1.3880	22.3840
 1.3890	22.0650
 1.3900	21.7350
 1.3910	21.4000
 1.3920	21.0570
 1.3930	20.7070
 1.3940	20.3570
 1.3950	20.0000
 1.3960	19.6450
 1.3970	19.2920
 1.3980	18.9400
 1.3990	18.5980
 1.4000	18.2620
 1.4010	17.9310
 1.4020	17.6120
 1.4030	17.2990
 1.4040	16.9980
 1.4050	16.7090
 1.4060	16.4300
 1.4070	16.1670
 1.4080	15.9160
 1.4090	15.6770
 1.4100	15.4520
 1.4110	15.2380
 1.4120	15.0370
 1.4130	14.8500
 1.4140	14.6750
 1.4150	14.5130
 1.4160	14.3620
 1.4170	14.2210
 1.4180	14.0910
 1.4190	13.9690
 1.4200	13.8560
 1.4210	13.7520
 1.4220	13.6550
 1.4230	13.5670
 1.4240	13.4860
 1.4250	13.4110
 1.4260	13.3440
 1.4270	13.2810
 1.4280	13.2250
 1.4290	13.1730
 1.4300	13.1270
 1.4310	13.0860
 1.4320	13.0510
 1.4330	13.0190
 1.4340	12.9920
 1.4350	12.9680
 1.4360	12.9470
 1.4370	12.9310
 1.4380	12.9190
 1.4390	12.9100
 1.4400	12.9040
 1.4410	12.9010
 1.4420	12.9000
 1.4430	12.9010
 1.4440	12.9040
 1.4450	12.9080
 1.4460	12.9140
 1.4470	12.9220
 1.4480	12.9310
 1.4490	12.9420
 1.4500	12.9530
 1.4510	12.9660
 1.4520	12.9800
 1.4530	12.9950
 1.4540	13.0110
 1.4550	13.0300
 1.4560	13.0500
 1.4570	13.0720
 1.4580	13.0960
 1.4590	13.1230
 1.4600	13.1520
 1.4610	13.1840
 1.4620	13.2180
 1.4630	13.2570
 1.4640	13.2990
 1.4650	13.3450
 1.4660	13.3950
 1.4670	13.4470
 1.4680	13.5030
 1.4690	13.5620
 1.4700	13.6230
 1.4710	13.6890
 1.4720	13.7580
 1.4730	13.8300
 1.4740	13.9040
 1.4750	13.9810
 1.4760	14.0600
 1.4770	14.1410
 1.4780	14.2220
 1.4790	14.3060
 1.4800	14.3880
 1.4810	14.4720
 1.4820	14.5580
 1.4830	14.6440
 1.4840	14.7330
 1.4850	14.8220
 1.4860	14.9110
 1.4870	15.0020
 1.4880	15.0920
 1.4890	15.1810
 1.4900	15.2710
 1.4910	15.3600
 1.4920	15.4510
 1.4930	15.5420
 1.4940	15.6330
 1.4950	15.7250
 1.4960	15.8160
 1.4970	15.9070
 1.4980	15.9980
 1.4990	16.0880
 1.5000	16.1790
 1.5010	16.2690
 1.5020	16.3590
 1.5030	16.4500
 1.5040	16.5400
 1.5050	16.6280
 1.5060	16.7180
 1.5070	16.8070
 1.5080	16.8950
 1.5090	16.9830
 1.5100	17.0700
 1.5110	17.1580
 1.5120	17.2450
 1.5130	17.3310
 1.5140	17.4160
 1.5150	17.5000
 1.5160	17.5820
 1.5170	17.6650
 1.5180	17.7480
 1.5190	17.8310
 1.5200	17.9120
 1.5210	17.9920
 1.5220	18.0720
 1.5230	18.1520
 1.5240	18.2310
 1.5250	18.3090
 1.5260	18.3860
 1.5270	18.4610
 1.5280	18.5360
 1.5290	18.6080
 1.5300	18.6810
 1.5310	18.7530
 1.5320	18.8240
 1.5330	18.8950
 1.5340	18.9650
 1.5350	19.0340
 1.5360	19.1030
 1.5370	19.1700
 1.5380	19.2350
 1.5390	19.3000
 1.5400	19.3630
 1.5410	19.4280
 1.5420	19.4920
 1.5430	19.5560
 1.5440	19.6220
 1.5450	19.6850
 1.5460	19.7470
 1.5470	19.8080
 1.5480	19.8660
 1.5490	19.9250
 1.5500	19.9850
 1.5510	20.0430
 1.5520	20.1020
 1.5530	20.1580
 1.5540	20.2130
 1.5550	20.2690
 1.5560	20.3240
 1.5570	20.3780
 1.5580	20.4320
 1.5590	20.4840
 1.5600	20.5360
 1.5610	20.5880
 1.5620	20.6390
 1.5630	20.6890
 1.5640	20.7390
 1.5650	20.7880
 1.5660	20.8360
 1.5670	20.8830
 1.5680	20.9300
 1.5690	20.9770
 1.5700	21.0240
 1.5710	21.0690
 1.5720	21.1140
 1.5730	21.1600
 1.5740	21.2060
 1.5750	21.2520
 1.5760	21.2970
 1.5770	21.3400
 1.5780	21.3820
 1.5790	21.4250
 1.5800	21.4660
 1.5810	21.5070
 1.5820	21.5490
 1.5830	21.5910
 1.5840	21.6340
 1.5850	21.6760
 1.5860	21.7190
 1.5870	21.7600
 1.5880	21.7990
 1.5890	21.8410
 1.5900	21.8810
 1.5910	21.9200
 1.5920	21.9600
 1.5930	21.9980
 1.5940	22.0360
 1.5950	22.0750
 1.5960	22.1120
 1.5970	22.1500
 1.5980	22.1860
 1.5990	22.2220
 1.6000	22.2590
 1.6010	22.2950
 1.6020	22.3310
 1.6030	22.3680
 1.6040	22.4010
 1.6050	22.4350
 1.6060	22.4680
 1.6070	22.5010
 1.6080	22.5340
 1.6090	22.5670
 1.6100	22.5980
 1.6110	22.6300
 1.6120	22.6600
 1.6130	22.6890
 1.6140	22.7170
 1.6150	22.7440
 1.6160	22.7710
 1.6170	22.7980
 1.6180	22.8240
 1.6190	22.8500
 1.6200	22.8750
 1.6210	22.9000
 1.6220	22.9250
 1.6230	22.9490
 1.6240	22.9730
 1.6250	22.9960
 1.6260	23.0190
 1.6270	23.0410
 1.6280	23.0600
 1.6290	23.0800
 1.6300	23.1000
 1.6310	23.1200
 1.6320	23.1400
 1.6330	23.1590
 1.6340	23.1790
 1.6350	23.1970
 1.6360	23.2150
 1.6370	23.2310
 1.6380	23.2440
 1.6390	23.2580
 1.6400	23.2720
 1.6410	23.2860
 1.6420	23.2990
 1.6430	23.3100
 1.6440	23.3200
 1.6450	23.3310
 1.6460	23.3390
 1.6470	23.3460
 1.6480	23.3520
 1.6490	23.3560
 1.6500	23.3570
 1.6510	23.3580
 1.6520	23.3560
 1.6530	23.3520
 1.6540	23.3460
 1.6550	23.3390
 1.6560	23.3290
 1.6570	23.3190
 1.6580	23.3090
 1.6590	23.2950
 1.6600	23.2790
 1.6610	23.2590
 1.6620	23.2380
 1.6630	23.2180
 1.6640	23.1950
 1.6650	23.1720
 1.6660	23.1490
 1.6670	23.1240
 1.6680	23.1000
 1.6690	23.0760
 1.6700	23.0530
 1.6710	23.0290
 1.6720	23.0060
 1.6730	22.9860
 1.6740	22.9670
 1.6750	22.9490
 1.6760	22.9300
 1.6770	22.9120
 1.6780	22.8950
 1.6790	22.8770
 1.6800	22.8610
 1.6810	22.8450
 1.6820	22.8260
 1.6830	22.8080
 1.6840	22.7870
 1.6850	22.7660
 1.6860	22.7440
 1.6870	22.7210
 1.6880	22.6980
 1.6890	22.6740
 1.6900	22.6480
 1.6910	22.6220
 1.6920	22.5950
 1.6930	22.5660
 1.6940	22.5380
 1.6950	22.5110
 1.6960	22.4840
 1.6970	22.4590
 1.6980	22.4300
 1.6990	22.4000
 1.7000	22.3700
 1.7010	22.3380
 1.7020	22.3070
 1.7030	22.2760
 1.7040	22.2440
 1.7050	22.2110
 1.7060	22.1770
 1.7070	22.1400
 1.7080	22.1030
 1.7090	22.0630
 1.7100	22.0260
 1.7110	21.9880
 1.7120	21.9500
 1.7130	21.9140
 1.7140	21.8780
 1.7150	21.8420
 1.7160	21.8100
 1.7170	21.7780
 1.7180	21.7490
 1.7190	21.7200
 1.7200	21.6910
 1.7210	21.6650
 1.7220	21.6380
 1.7230	21.6140
 1.7240	21.5940
 1.7250	21.5740
 1.7260	21.5540
 1.7270	21.5360
 1.7280	21.5190
 1.7290	21.5030
 1.7300	21.4920
 1.7310	21.4790
 1.7320	21.4650
 1.7330	21.4510
 1.7340	21.4380
 1.7350	21.4230
 1.7360	21.4090
 1.7370	21.3910
 1.7380	21.3730
 1.7390	21.3520
 1.7400	21.3280
 1.7410	21.3020
 1.7420	21.2750
 1.7430	21.2470
 1.7440	21.2160
 1.7450	21.1850
 1.7460	21.1520
 1.7470	21.1190
 1.7480	21.0860
 1.7490	21.0520
 1.7500	21.0170
 1.7510	20.9830
 1.7520	20.9500
 1.7530	20.9170
 1.7540	20.8830
 1.7550	20.8500
 1.7560	20.8180
 1.7570	20.7860
 1.7580	20.7570
 1.7590	20.7280
 1.7600	20.6990
 1.7610	20.6730
 1.7620	20.6470
 1.7630	20.6210
 1.7640	20.5980
 1.7650	20.5750
 1.7660	20.5540
 1.7670	20.5370
 1.7680	20.5190
 1.7690	20.5010
 1.7700	20.4840
 1.7710	20.4660
 1.7720	20.4490
 1.7730	20.4310
 1.7740	20.4150
 1.7750	20.3980
 1.7760	20.3820
 1.7770	20.3680
 1.7780	20.3530
 1.7790	20.3390
 1.7800	20.3280
 1.7810	20.3180
 1.7820	20.3100
 1.7830	20.3060
 1.7840	20.3000
 1.7850	20.2940
 1.7860	20.2890
 1.7870	20.2840
 1.7880	20.2830
 1.7890	20.2830
 1.7900	20.2850
 1.7910	20.2860
 1.7920	20.2870
 1.7930	20.2890
 1.7940	20.2930
 1.7950	20.2950
 1.7960	20.2960
 1.7970	20.2980
 1.7980	20.2990
 1.7990	20.3040
 1.8000	20.3130
 1.8010	20.3200
 1.8020	20.3270
 1.8030	20.3340
 1.8040	20.3390
 1.8050	20.3450
 1.8060	20.3500
 1.8070	20.3570
 1.8080	20.3620
 1.8090	20.3680
 1.8100	20.3750
 1.8110	20.3820
 1.8120	20.3880
 1.8130	20.3920
 1.8140	20.3980
 1.8150	20.3990
 1.8160	20.3990
 1.8170	20.4030
 1.8180	20.4060
 1.8190	20.4100
 1.8200	20.4130
 1.8210	20.4130
 1.8220	20.4140
 1.8230	20.4130
 1.8240	20.4130
 1.8250	20.4130
 1.8260	20.4120
 1.8270	20.4110
 1.8280	20.4080
 1.8290	20.4010
 1.8300	20.3940
 1.8310	20.1710
 1.8320	20.1590
 1.8330	20.1460
 1.8340	20.1280
 1.8350	20.1110
 1.8360	20.0890
 1.8370	20.0640
 1.8380	20.0400
 1.8390	20.0100
 1.8400	19.9760
 1.8410	19.9390
 1.8420	19.8980
 1.8430	19.8520
 1.8440	19.8010
 1.8450	19.7480
 1.8460	19.6930
 1.8470	19.6310
 1.8480	19.5620
 1.8490	19.4860
 1.8500	19.4040
 1.8510	19.3140
 1.8520	19.2210
 1.8530	19.1220
 1.8540	19.0160
 1.8550	18.9020
 1.8560	18.7720
 1.8570	18.6330
 1.8580	18.4840
 1.8590	18.3240
 1.8600	18.1540
 1.8610	17.9760
 1.8620	17.7850
 1.8630	17.5820
 1.8640	17.3650
 1.8650	17.1350
 1.8660	16.8920
 1.8670	16.6320
 1.8680	16.3620
 1.8690	16.0770
 1.8700	15.7750
 1.8710	15.4570
 1.8720	15.1290
 1.8730	14.7870
 1.8740	14.4320
 1.8750	14.0700
 1.8760	13.6950
 1.8770	13.3150
 1.8780	12.9280
 1.8790	12.5340
 1.8800	12.1430
 1.8810	11.7520
 1.8820	11.3570
 1.8830	10.9590
 1.8840	10.5640
 1.8850	10.1660
 1.8860	 9.7760
 1.8870	 9.3900
 1.8880	 9.0120
 1.8890	 8.6470
 1.8900	 8.2910
 1.8910	 7.9530
 1.8920	 7.6290
 1.8930	 7.3240
 1.8940	 7.0330
 1.8950	 6.7620
 1.8960	 6.5060
 1.8970	 6.2650
 1.8980	 6.0430
 1.8990	 5.8380
 1.9000	 5.6480
 1.9010	 5.4760
 1.9020	 5.3180
 1.9030	 5.1770
 1.9040	 5.0500
 1.9050	 4.9340
 1.9060	 4.8320
 1.9070	 4.7410
 1.9080	 4.6570
 1.9090	 4.5840
 1.9100	 4.5200
 1.9110	 4.4610
 1.9120	 4.4110
 1.9130	 4.3640
 1.9140	 4.3250
 1.9150	 4.2890
 1.9160	 4.2570
 1.9170	 4.2320
 1.9180	 4.2070
 1.9190	 4.1880
 1.9200	 4.1710
 1.9210	 4.1560
 1.9220	 4.1440
 1.9230	 4.1370
 1.9240	 4.1290
 1.9250	 4.1210
 1.9260	 4.1170
 1.9270	 4.1160
 1.9280	 4.1190
 1.9290	 4.1260
 1.9300	 4.1310
 1.9310	 4.1370
 1.9320	 4.1460
 1.9330	 4.1550
 1.9340	 4.1670
 1.9350	 4.1800
 1.9360	 4.1950
 1.9370	 4.2110
 1.9380	 4.2300
 1.9390	 4.2470
 1.9400	 4.2650
 1.9410	 4.2890
 1.9420	 4.3110
 1.9430	 4.3360
 1.9440	 4.3620
 1.9450	 4.3900
 1.9460	 4.4180
 1.9470	 4.4470
 1.9480	 4.4760
 1.9490	 4.5060
 1.9500	 4.5370
 1.9510	 4.5680
 1.9520	 4.6000
 1.9530	 4.6330
 1.9540	 4.6660
 1.9550	 4.7010
 1.9560	 4.7370
 1.9570	 4.7740
 1.9580	 4.8120
 1.9590	 4.8510
 1.9600	 4.8930
 1.9610	 4.9340
 1.9620	 4.9770
 1.9630	 5.0220
 1.9640	 5.0650
 1.9650	 5.1080
 1.9660	 5.1530
 1.9670	 5.1980
 1.9680	 5.2430
 1.9690	 5.2890
 1.9700	 5.3350
 1.9710	 5.3830
 1.9720	 5.4310
 1.9730	 5.4800
 1.9740	 5.5310
 1.9750	 5.5800
 1.9760	 5.6320
 1.9770	 5.6870
 1.9780	 5.7390
 1.9790	 5.7930
 1.9800	 5.8480
 1.9810	 5.9040
 1.9820	 5.9590
 1.9830	 6.0160
 1.9840	 6.0730
 1.9850	 6.1290
 1.9860	 6.1850
 1.9870	 6.2430
 1.9880	 6.3010
 1.9890	 6.3600
 1.9900	 6.4210
 1.9910	 6.4830
 1.9920	 6.5450
 1.9930	 6.6090
 1.9940	 6.6680
 1.9950	 6.7250
 1.9960	 6.7830
 1.9970	 6.8380
 1.9980	 6.8960
 1.9990	 6.9550
 2.0000	 7.0150
 2.0010	 7.0750
 2.0020	 7.1370
 2.0030	 7.1970
 2.0040	 7.2550
 2.0050	 7.3150
 2.0060	 7.3720
 2.0070	 7.4330
 2.0080	 7.4990
 2.0090	 7.5600
 2.0100	 7.6220
 2.0110	 7.6800
 2.0120	 7.7340
 2.0130	 7.7850
 2.0140	 7.8360
 2.0150	 7.8900
 2.0160	 7.9460
 2.0170	 8.0030
 2.0180	 8.0580
 2.0190	 8.1150
 2.0200	 8.1680
 2.0210	 8.2200
 2.0220	 8.2700
 2.0230	 8.3180
 2.0240	 8.3660
 2.0250	 8.4160
 2.0260	 8.4640
 2.0270	 8.5110
 2.0280	 8.5600
 2.0290	 8.6070
 2.0300	 8.6530
 2.0310	 8.6980
 2.0320	 8.7410
 2.0330	 8.7840
 2.0340	 8.8260
 2.0350	 8.8670
 2.0360	 8.9080
 2.0370	 8.9470
 2.0380	 8.9830
 2.0390	 9.0200
 2.0400	 9.0560
 2.0410	 9.0920
 2.0420	 9.1280
 2.0430	 9.1630
 2.0440	 9.1990
 2.0450	 9.2330
 2.0460	 9.2690
 2.0470	 9.3050
 2.0480	 9.3400
 2.0490	 9.3740
 2.0500	 9.4070
 2.0510	 9.4370
 2.0520	 9.4700
 2.0530	 9.5040
 2.0540	 9.5370
 2.0550	 9.5710
 2.0560	 9.6070
 2.0570	 9.6400
 2.0580	 9.6760
 2.0590	 9.7120
 2.0600	 9.7480
 2.0610	 9.7840
 2.0620	 9.8230
 2.0630	 9.8590
 2.0640	 9.8930
 2.0650	 9.9300
 2.0660	 9.9680
 2.0670	10.0060
 2.0680	10.0450
 2.0690	10.0830
 2.0700	10.1190
 2.0710	10.1550
 2.0720	10.1890
 2.0730	10.2270
 2.0740	10.2650
 2.0750	10.3040
 2.0760	10.3400
 2.0770	10.3750
 2.0780	10.4100
 2.0790	10.4400
 2.0800	10.4750
 2.0810	10.5140
 2.0820	10.5500
 2.0830	10.5870
 2.0840	10.6230
 2.0850	10.6540
 2.0860	10.6870
 2.0870	10.7200
 2.0880	10.7520
 2.0890	10.7850
 2.0900	10.8180
 2.0910	10.8500
 2.0920	10.8840
 2.0930	10.9150
 2.0940	10.9460
 2.0950	10.9750
 2.0960	10.9990
 2.0970	11.0280
 2.0980	11.0570
 2.0990	11.0880
 2.1000	11.1210
 2.1010	11.1530
 2.1020	11.1870
 2.1030	11.2180
 2.1040	11.2480
 2.1050	11.2750
 2.1060	11.3030
 2.1070	11.3280
 2.1080	11.3560
 2.1090	11.3850
 2.1100	11.4150
 2.1110	11.4470
 2.1120	11.4750
 2.1130	11.5000
 2.1140	11.5280
 2.1150	11.5550
 2.1160	11.5810
 2.1170	11.6070
 2.1180	11.6370
 2.1190	11.6690
 2.1200	11.6980
 2.1210	11.7290
 2.1220	11.7620
 2.1230	11.7920
 2.1240	11.8170
 2.1250	11.8440
 2.1260	11.8710
 2.1270	11.8970
 2.1280	11.9200
 2.1290	11.9470
 2.1300	11.9770
 2.1310	12.0040
 2.1320	12.0340
 2.1330	12.0580
 2.1340	12.0780
 2.1350	12.0990
 2.1360	12.1160
 2.1370	12.1340
 2.1380	12.1520
 2.1390	12.1710
 2.1400	12.1890
 2.1410	12.2080
 2.1420	12.2280
 2.1430	12.2490
 2.1440	12.2710
 2.1450	12.2940
 2.1460	12.3150
 2.1470	12.3340
 2.1480	12.3550
 2.1490	12.3770
 2.1500	12.3980
 2.1510	12.4210
 2.1520	12.4420
 2.1530	12.4580
 2.1540	12.4770
 2.1550	12.4970
 2.1560	12.5150
 2.1570	12.5330
 2.1580	12.5520
 2.1590	12.5690
 2.1600	12.5860
 2.1610	12.6030
 2.1620	12.6200
 2.1630	12.6380
 2.1640	12.6550
 2.1650	12.6740
 2.1660	12.6960
 2.1670	12.7170
 2.1680	12.7370
 2.1690	12.7570
 2.1700	12.7760
 2.1710	12.7960
 2.1720	12.8170
 2.1730	12.8390
 2.1740	12.8620
 2.1750	12.8830
 2.1760	12.9010
 2.1770	12.9200
 2.1780	12.9380
 2.1790	12.9580
 2.1800	12.9800
 2.1810	13.0000
 2.1820	13.0190
 2.1830	13.0410
 2.1840	13.0610
 2.1850	13.0820
 2.1860	13.1040
 2.1870	13.1270
 2.1880	13.1470
 2.1890	13.1670
 2.1900	13.1870
 2.1910	13.2080
 2.1920	13.2270
 2.1930	13.2450
 2.1940	13.2640
 2.1950	13.2810
 2.1960	13.2980
 2.1970	13.3170
 2.1980	13.3340
 2.1990	13.3480
 2.2000	13.3640
 2.2010	13.3800
 2.2020	13.3940
 2.2030	13.4070
 2.2040	13.4200
 2.2050	13.4320
 2.2060	13.4420
 2.2070	13.4520
 2.2080	13.4610
 2.2090	13.4680
 2.2100	13.4730
 2.2110	13.4790
 2.2120	13.4870
 2.2130	13.4920
 2.2140	13.4980
 2.2150	13.5000
 2.2160	13.4980
 2.2170	13.5000
 2.2180	13.5030
 2.2190	13.5030
 2.2200	13.5040
 2.2210	13.5000
 2.2220	13.4930
 2.2230	13.4840
 2.2240	13.4740
 2.2250	13.4610
 2.2260	13.4460
 2.2270	13.4290
 2.2280	13.4130
 2.2290	13.3920
 2.2300	13.3680
 2.2310	13.3410
 2.2320	13.3080
 2.2330	13.2760
 2.2340	13.2430
 2.2350	13.2100
 2.2360	13.1730
 2.2370	13.1350
 2.2380	13.0950
 2.2390	13.0490
 2.2400	13.0080
 2.2410	12.9690
 2.2420	12.9280
 2.2430	12.8880
 2.2440	12.8460
 2.2450	12.8050
 2.2460	12.7600
 2.2470	12.7170
 2.2480	12.6690
 2.2490	12.6170
 2.2500	12.5640
 2.2510	12.5070
 2.2520	12.4530
 2.2530	12.4010
 2.2540	12.3470
 2.2550	12.2940
 2.2560	12.2410
 2.2570	12.1870
 2.2580	12.1330
 2.2590	12.0820
 2.2600	12.0260
 2.2610	11.9670
 2.2620	11.9030
 2.2630	11.8420
 2.2640	11.7800
 2.2650	11.7210
 2.2660	11.6670
 2.2670	11.6130
 2.2680	11.5610
 2.2690	11.5080
 2.2700	11.4560
 2.2710	11.4060
 2.2720	11.3530
 2.2730	11.3060
 2.2740	11.2660
 2.2750	11.2220
 2.2760	11.1800
 2.2770	11.1360
 2.2780	11.0870
 2.2790	11.0440
 2.2800	11.0090
 2.2810	10.9660
 2.2820	10.9230
 2.2830	10.8770
 2.2840	10.8240
 2.2850	10.7750
 2.2860	10.7280
 2.2870	10.6810
 2.2880	10.6360
 2.2890	10.5890
 2.2900	10.5410
 2.2910	10.4920
 2.2920	10.4420
 2.2930	10.3930
 2.2940	10.3430
 2.2950	10.2930
 2.2960	10.2430
 2.2970	10.1930
 2.2980	10.1380
 2.2990	10.0950
 2.3000	10.0570
 2.3010	10.0130
 2.3020	 9.9770
 2.3030	 9.9390
 2.3040	 9.8970
 2.3050	 9.8610
 2.3060	 9.8300
 2.3070	 9.8030
 2.3080	 9.7810
 2.3090	 9.7580
 2.3100	 9.7390
 2.3110	 9.7220
 2.3120	 9.7080
 2.3130	 9.7000
 2.3140	 9.6900
 2.3150	 9.6840
 2.3160	 9.6720
 2.3170	 9.6580
 2.3180	 9.6490
 2.3190	 9.6440
 2.3200	 9.6330
 2.3210	 9.6220
 2.3220	 9.6080
 2.3230	 9.5880
 2.3240	 9.5690
 2.3250	 9.5560
 2.3260	 9.5320
 2.3270	 9.4980
 2.3280	 9.4710
 2.3290	 9.4400
 2.3300	 9.4110
 2.3310	 9.3880
 2.3320	 9.3580
 2.3330	 9.3230
 2.3340	 9.2910
 2.3350	 9.2550
 2.3360	 9.2210
 2.3370	 9.1890
 2.3380	 9.1560
 2.3390	 9.1240
 2.3400	 9.0920
 2.3410	 9.0620
 2.3420	 9.0290
 2.3430	 8.9940
 2.3440	 8.9610
 2.3450	 8.9270
 2.3460	 8.8920
 2.3470	 8.8580
 2.3480	 8.8280
 2.3490	 8.7970
 2.3500	 8.7690
 2.3510	 8.7440
 2.3520	 8.7200
 2.3530	 8.6960
 2.3540	 8.6760
 2.3550	 8.6600
 2.3560	 8.6470
 2.3570	 8.6300
 2.3580	 8.6140
 2.3590	 8.5880
 2.3600	 8.5610
 2.3610	 8.5380
 2.3620	 8.5130
 2.3630	 8.4880
 2.3640	 8.4640
 2.3650	 8.4380
 2.3660	 8.4120
 2.3670	 8.3900
 2.3680	 8.3720
 2.3690	 8.3530
 2.3700	 8.3350
 2.3710	 8.3200
 2.3720	 8.2950
 2.3730	 8.2640
 2.3740	 8.2370
 2.3750	 8.2100
 2.3760	 8.1960
 2.3770	 8.1820
 2.3780	 8.1630
 2.3790	 8.1400
 2.3800	 8.1050
 2.3810	 8.0730
 2.3820	 8.0460
 2.3830	 8.0130
 2.3840	 7.9760
 2.3850	 7.9420
 2.3860	 7.9020
 2.3870	 7.8710
 2.3880	 7.8490
 2.3890	 7.8210
 2.3900	 7.7930
 2.3910	 7.7730
 2.3920	 7.7410
 2.3930	 7.7050
 2.3940	 7.6800
 2.3950	 7.6480
 2.3960	 7.6120
 2.3970	 7.5790
 2.3980	 7.5460
 2.3990	 7.5090
 2.4000	 7.4690
 2.4010	 7.4340
 2.4020	 7.3900
 2.4030	 7.3500
 2.4040	 7.3190
 2.4050	 7.2850
 2.4060	 7.2630
 2.4070	 7.2460
 2.4080	 7.2110
 2.4090	 7.1700
 2.4100	 7.1260
 2.4110	 7.0760
 2.4120	 7.0340
 2.4130	 7.0060
 2.4140	 6.9840
 2.4150	 6.9580
 2.4160	 6.9270
 2.4170	 6.8930
 2.4180	 6.8590
 2.4190	 6.8260
 2.4200	 6.7950
 2.4210	 6.7620
 2.4220	 6.7220
 2.4230	 6.6840
 2.4240	 6.6520
 2.4250	 6.6170
 2.4260	 6.5770
 2.4270	 6.5370
 2.4280	 6.4800
 2.4290	 6.4200
 2.4300	 6.3870
 2.4310	 6.3480
 2.4320	 6.3190
 2.4330	 6.3050
 2.4340	 6.2530
 2.4350	 6.2140
 2.4360	 6.1810
 2.4370	 6.1350
 2.4380	 6.1110
 2.4390	 6.0780
 2.4400	 6.0370
 2.4410	 6.0000
 2.4420	 5.9690
 2.4430	 5.9550
 2.4440	 5.9310
 2.4450	 5.8920
 2.4460	 5.8460
 2.4470	 5.8030
 2.4480	 5.7650
 2.4490	 5.7240
 2.4500	 5.6930
 2.4510	 5.6650
 2.4520	 5.6130
 2.4530	 5.5820
 2.4540	 5.5560
 2.4550	 5.4990
 2.4560	 5.4630
 2.4570	 5.4290
 2.4580	 5.3860
 2.4590	 5.3430
 2.4600	 5.2900
 2.4610	 5.2650
 2.4620	 5.2470
 2.4630	 5.2310
 2.4640	 5.2210
 2.4650	 5.1770
 2.4660	 5.1340
 2.4670	 5.1030
 2.4680	 5.0760
 2.4690	 5.0590
 2.4700	 5.0320
 2.4710	 5.0090
 2.4720	 4.9800
 2.4730	 4.9320
 2.4740	 4.9070
 2.4750	 4.8950
 2.4760	 4.8840
 2.4770	 4.8810
 2.4780	 4.8830
 2.4790	 4.8960
 2.4800	 4.8910
 2.4810	 4.8970
 2.4820	 4.8720
 2.4830	 4.8290
 2.4840	 4.7880
 2.4850	 4.7520
 2.4860	 4.7390
 2.4870	 4.7050
 2.4880	 4.6790
 2.4890	 4.6920
 2.4900	 4.7030
 2.4910	 4.7080
 2.4920	 4.6750
 2.4930	 4.5960
 2.4940	 4.5220
 2.4950	 4.4900
 2.4960	 4.5110
 2.4970	 4.5790
 2.4980	 4.6030
 2.4990	 4.5980
 2.5000	 4.6400
