Name: Quercus agrifolia
Type: vegetation
Class: Tree
Genus: Quercus
Species: agrifolia
Sample No.: JPL112
Owner: JPL
Wavelength Range: VSWIR
Origin: 34.12859; -118.11386;; WGS84
Collection Date: 9/7/2016
Description: Samples were collected at the Huntington Garden in San Marino California as part of a JPL Subcontract studying HyTES imagery. Samples were taken to JPL and processed within 48 hours of collection. The same leaves were processed in the Nicolet and then measured using the ASD.
Measurement: Bidirectional reflectance
First Column: X
Second Column: Y
X Units: Wavelength (micrometer)
Y Units: Reflectance (percentage)
First X Value: 0.35
Last X Value: 2.5
Number of X Values: 2151
Additional Information: vegetation.tree.quercus.agrifolia.vswir.jpl112.jpl.asd.ancillary.txt

 0.3500	 4.5530
 0.3510	 4.7700
 0.3520	 4.7230
 0.3530	 4.6280
 0.3540	 4.7050
 0.3550	 4.6950
 0.3560	 4.6680
 0.3570	 4.6580
 0.3580	 4.6700
 0.3590	 4.5990
 0.3600	 4.5670
 0.3610	 4.6070
 0.3620	 4.6110
 0.3630	 4.5880
 0.3640	 4.5630
 0.3650	 4.5530
 0.3660	 4.5240
 0.3670	 4.5640
 0.3680	 4.6000
 0.3690	 4.4810
 0.3700	 4.4340
 0.3710	 4.4430
 0.3720	 4.4690
 0.3730	 4.5050
 0.3740	 4.4790
 0.3750	 4.4490
 0.3760	 4.4770
 0.3770	 4.4330
 0.3780	 4.4270
 0.3790	 4.4730
 0.3800	 4.4970
 0.3810	 4.4530
 0.3820	 4.4300
 0.3830	 4.4660
 0.3840	 4.4360
 0.3850	 4.4350
 0.3860	 4.4490
 0.3870	 4.4290
 0.3880	 4.4210
 0.3890	 4.4260
 0.3900	 4.4340
 0.3910	 4.4270
 0.3920	 4.4290
 0.3930	 4.4270
 0.3940	 4.4170
 0.3950	 4.4640
 0.3960	 4.4420
 0.3970	 4.4000
 0.3980	 4.4460
 0.3990	 4.4400
 0.4000	 4.4270
 0.4010	 4.4400
 0.4020	 4.4650
 0.4030	 4.4650
 0.4040	 4.4580
 0.4050	 4.4680
 0.4060	 4.4720
 0.4070	 4.4830
 0.4080	 4.5000
 0.4090	 4.5130
 0.4100	 4.5120
 0.4110	 4.5260
 0.4120	 4.5590
 0.4130	 4.5600
 0.4140	 4.5780
 0.4150	 4.6010
 0.4160	 4.6060
 0.4170	 4.6200
 0.4180	 4.6350
 0.4190	 4.6420
 0.4200	 4.6380
 0.4210	 4.6530
 0.4220	 4.6730
 0.4230	 4.6850
 0.4240	 4.6990
 0.4250	 4.7170
 0.4260	 4.7350
 0.4270	 4.7500
 0.4280	 4.7680
 0.4290	 4.7790
 0.4300	 4.7820
 0.4310	 4.7860
 0.4320	 4.7970
 0.4330	 4.8040
 0.4340	 4.8000
 0.4350	 4.8080
 0.4360	 4.8160
 0.4370	 4.8260
 0.4380	 4.8450
 0.4390	 4.8530
 0.4400	 4.8700
 0.4410	 4.9000
 0.4420	 4.9100
 0.4430	 4.9180
 0.4440	 4.9240
 0.4450	 4.9250
 0.4460	 4.9330
 0.4470	 4.9440
 0.4480	 4.9530
 0.4490	 4.9630
 0.4500	 4.9680
 0.4510	 4.9720
 0.4520	 4.9800
 0.4530	 4.9910
 0.4540	 4.9960
 0.4550	 4.9950
 0.4560	 4.9930
 0.4570	 5.0060
 0.4580	 5.0190
 0.4590	 5.0210
 0.4600	 5.0150
 0.4610	 5.0220
 0.4620	 5.0330
 0.4630	 5.0330
 0.4640	 5.0360
 0.4650	 5.0400
 0.4660	 5.0450
 0.4670	 5.0540
 0.4680	 5.0500
 0.4690	 5.0440
 0.4700	 5.0460
 0.4710	 5.0440
 0.4720	 5.0440
 0.4730	 5.0460
 0.4740	 5.0460
 0.4750	 5.0490
 0.4760	 5.0510
 0.4770	 5.0490
 0.4780	 5.0510
 0.4790	 5.0560
 0.4800	 5.0600
 0.4810	 5.0590
 0.4820	 5.0610
 0.4830	 5.0620
 0.4840	 5.0610
 0.4850	 5.0620
 0.4860	 5.0600
 0.4870	 5.0620
 0.4880	 5.0680
 0.4890	 5.0670
 0.4900	 5.0740
 0.4910	 5.0890
 0.4920	 5.1010
 0.4930	 5.1110
 0.4940	 5.1230
 0.4950	 5.1370
 0.4960	 5.1480
 0.4970	 5.1670
 0.4980	 5.1880
 0.4990	 5.2060
 0.5000	 5.2250
 0.5010	 5.2500
 0.5020	 5.2790
 0.5030	 5.3040
 0.5040	 5.3390
 0.5050	 5.3740
 0.5060	 5.4040
 0.5070	 5.4480
 0.5080	 5.4940
 0.5090	 5.5430
 0.5100	 5.5980
 0.5110	 5.6530
 0.5120	 5.7160
 0.5130	 5.7880
 0.5140	 5.8680
 0.5150	 5.9500
 0.5160	 6.0360
 0.5170	 6.1300
 0.5180	 6.2330
 0.5190	 6.3410
 0.5200	 6.4520
 0.5210	 6.5670
 0.5220	 6.6850
 0.5230	 6.8040
 0.5240	 6.9200
 0.5250	 7.0340
 0.5260	 7.1450
 0.5270	 7.2530
 0.5280	 7.3580
 0.5290	 7.4550
 0.5300	 7.5440
 0.5310	 7.6240
 0.5320	 7.7020
 0.5330	 7.7760
 0.5340	 7.8410
 0.5350	 7.8970
 0.5360	 7.9490
 0.5370	 7.9950
 0.5380	 8.0360
 0.5390	 8.0700
 0.5400	 8.0950
 0.5410	 8.1130
 0.5420	 8.1290
 0.5430	 8.1460
 0.5440	 8.1700
 0.5450	 8.2000
 0.5460	 8.2330
 0.5470	 8.2640
 0.5480	 8.2910
 0.5490	 8.3130
 0.5500	 8.3270
 0.5510	 8.3360
 0.5520	 8.3400
 0.5530	 8.3400
 0.5540	 8.3350
 0.5550	 8.3220
 0.5560	 8.2990
 0.5570	 8.2690
 0.5580	 8.2320
 0.5590	 8.1870
 0.5600	 8.1370
 0.5610	 8.0860
 0.5620	 8.0290
 0.5630	 7.9670
 0.5640	 7.9020
 0.5650	 7.8310
 0.5660	 7.7520
 0.5670	 7.6650
 0.5680	 7.5770
 0.5690	 7.4840
 0.5700	 7.3940
 0.5710	 7.3110
 0.5720	 7.2310
 0.5730	 7.1560
 0.5740	 7.0920
 0.5750	 7.0410
 0.5760	 6.9960
 0.5770	 6.9500
 0.5780	 6.8970
 0.5790	 6.8420
 0.5800	 6.7920
 0.5810	 6.7480
 0.5820	 6.7090
 0.5830	 6.6690
 0.5840	 6.6330
 0.5850	 6.6020
 0.5860	 6.5720
 0.5870	 6.5350
 0.5880	 6.4940
 0.5890	 6.4570
 0.5900	 6.4340
 0.5910	 6.4230
 0.5920	 6.4180
 0.5930	 6.4140
 0.5940	 6.4050
 0.5950	 6.3930
 0.5960	 6.3800
 0.5970	 6.3650
 0.5980	 6.3490
 0.5990	 6.3340
 0.6000	 6.3200
 0.6010	 6.3070
 0.6020	 6.2920
 0.6030	 6.2730
 0.6040	 6.2490
 0.6050	 6.2260
 0.6060	 6.2020
 0.6070	 6.1740
 0.6080	 6.1400
 0.6090	 6.1030
 0.6100	 6.0600
 0.6110	 6.0080
 0.6120	 5.9760
 0.6130	 5.9530
 0.6140	 5.9320
 0.6150	 5.9050
 0.6160	 5.8790
 0.6170	 5.8530
 0.6180	 5.8270
 0.6190	 5.8010
 0.6200	 5.7790
 0.6210	 5.7620
 0.6220	 5.7480
 0.6230	 5.7330
 0.6240	 5.7210
 0.6250	 5.7110
 0.6260	 5.7010
 0.6270	 5.6960
 0.6280	 5.6930
 0.6290	 5.6890
 0.6300	 5.6820
 0.6310	 5.6760
 0.6320	 5.6720
 0.6330	 5.6680
 0.6340	 5.6610
 0.6350	 5.6500
 0.6360	 5.6350
 0.6370	 5.6160
 0.6380	 5.5970
 0.6390	 5.5750
 0.6400	 5.5490
 0.6410	 5.5240
 0.6420	 5.4980
 0.6430	 5.4710
 0.6440	 5.4410
 0.6450	 5.4160
 0.6460	 5.3920
 0.6470	 5.3670
 0.6480	 5.3450
 0.6490	 5.3270
 0.6500	 5.3120
 0.6510	 5.2970
 0.6520	 5.2810
 0.6530	 5.2690
 0.6540	 5.2590
 0.6550	 5.2480
 0.6560	 5.2340
 0.6570	 5.2180
 0.6580	 5.2010
 0.6590	 5.1850
 0.6600	 5.1680
 0.6610	 5.1500
 0.6620	 5.1320
 0.6630	 5.1140
 0.6640	 5.0990
 0.6650	 5.0870
 0.6660	 5.0780
 0.6670	 5.0730
 0.6680	 5.0690
 0.6690	 5.0640
 0.6700	 5.0620
 0.6710	 5.0640
 0.6720	 5.0670
 0.6730	 5.0750
 0.6740	 5.0830
 0.6750	 5.0930
 0.6760	 5.1050
 0.6770	 5.1190
 0.6780	 5.1340
 0.6790	 5.1520
 0.6800	 5.1710
 0.6810	 5.1940
 0.6820	 5.2190
 0.6830	 5.2460
 0.6840	 5.2810
 0.6850	 5.3200
 0.6860	 5.3620
 0.6870	 5.4100
 0.6880	 5.4690
 0.6890	 5.5430
 0.6900	 5.6330
 0.6910	 5.7430
 0.6920	 5.8800
 0.6930	 6.0440
 0.6940	 6.2400
 0.6950	 6.4800
 0.6960	 6.7620
 0.6970	 7.0850
 0.6980	 7.4490
 0.6990	 7.8580
 0.7000	 8.3090
 0.7010	 8.7970
 0.7020	 9.3190
 0.7030	 9.8710
 0.7040	10.4480
 0.7050	11.0470
 0.7060	11.6620
 0.7070	12.2950
 0.7080	12.9430
 0.7090	13.6040
 0.7100	14.2760
 0.7110	14.9580
 0.7120	15.6520
 0.7130	16.3570
 0.7140	17.0710
 0.7150	17.7900
 0.7160	18.5130
 0.7170	19.2400
 0.7180	19.9730
 0.7190	20.7080
 0.7200	21.4410
 0.7210	22.1700
 0.7220	22.8950
 0.7230	23.6170
 0.7240	24.3320
 0.7250	25.0300
 0.7260	25.7130
 0.7270	26.3830
 0.7280	27.0310
 0.7290	27.6630
 0.7300	28.2760
 0.7310	28.8640
 0.7320	29.4320
 0.7330	29.9780
 0.7340	30.5010
 0.7350	31.0020
 0.7360	31.4800
 0.7370	31.9340
 0.7380	32.3670
 0.7390	32.7760
 0.7400	33.1630
 0.7410	33.5280
 0.7420	33.8700
 0.7430	34.1940
 0.7440	34.4970
 0.7450	34.7780
 0.7460	35.0390
 0.7470	35.2870
 0.7480	35.5160
 0.7490	35.7230
 0.7500	35.9140
 0.7510	36.0940
 0.7520	36.2610
 0.7530	36.4140
 0.7540	36.5560
 0.7550	36.6860
 0.7560	36.8020
 0.7570	36.9060
 0.7580	37.0030
 0.7590	37.0950
 0.7600	37.1800
 0.7610	37.2540
 0.7620	37.3230
 0.7630	37.3860
 0.7640	37.4440
 0.7650	37.4990
 0.7660	37.5500
 0.7670	37.5950
 0.7680	37.6350
 0.7690	37.6750
 0.7700	37.7120
 0.7710	37.7430
 0.7720	37.7710
 0.7730	37.7980
 0.7740	37.8250
 0.7750	37.8510
 0.7760	37.8740
 0.7770	37.8940
 0.7780	37.9140
 0.7790	37.9350
 0.7800	37.9590
 0.7810	37.9770
 0.7820	37.9910
 0.7830	38.0070
 0.7840	38.0230
 0.7850	38.0370
 0.7860	38.0490
 0.7870	38.0630
 0.7880	38.0740
 0.7890	38.0840
 0.7900	38.0940
 0.7910	38.1070
 0.7920	38.1180
 0.7930	38.1260
 0.7940	38.1370
 0.7950	38.1430
 0.7960	38.1500
 0.7970	38.1580
 0.7980	38.1620
 0.7990	38.1680
 0.8000	38.1740
 0.8010	38.1790
 0.8020	38.1850
 0.8030	38.1870
 0.8040	38.1870
 0.8050	38.1920
 0.8060	38.1960
 0.8070	38.1980
 0.8080	38.1980
 0.8090	38.1980
 0.8100	38.1990
 0.8110	38.2020
 0.8120	38.2060
 0.8130	38.2040
 0.8140	38.2020
 0.8150	38.2010
 0.8160	38.1990
 0.8170	38.2010
 0.8180	38.2020
 0.8190	38.2030
 0.8200	38.2060
 0.8210	38.2040
 0.8220	38.2040
 0.8230	38.2050
 0.8240	38.2040
 0.8250	38.2020
 0.8260	38.1990
 0.8270	38.1940
 0.8280	38.1970
 0.8290	38.1980
 0.8300	38.1960
 0.8310	38.1950
 0.8320	38.2000
 0.8330	38.2020
 0.8340	38.2010
 0.8350	38.2030
 0.8360	38.2030
 0.8370	38.2030
 0.8380	38.2040
 0.8390	38.2040
 0.8400	38.2100
 0.8410	38.2170
 0.8420	38.2220
 0.8430	38.2260
 0.8440	38.2310
 0.8450	38.2360
 0.8460	38.2410
 0.8470	38.2470
 0.8480	38.2520
 0.8490	38.2560
 0.8500	38.2620
 0.8510	38.2680
 0.8520	38.2750
 0.8530	38.2810
 0.8540	38.2880
 0.8550	38.2950
 0.8560	38.3020
 0.8570	38.3080
 0.8580	38.3130
 0.8590	38.3210
 0.8600	38.3330
 0.8610	38.3460
 0.8620	38.3510
 0.8630	38.3590
 0.8640	38.3680
 0.8650	38.3740
 0.8660	38.3800
 0.8670	38.3890
 0.8680	38.3990
 0.8690	38.4070
 0.8700	38.4140
 0.8710	38.4270
 0.8720	38.4420
 0.8730	38.4490
 0.8740	38.4530
 0.8750	38.4610
 0.8760	38.4720
 0.8770	38.4840
 0.8780	38.4930
 0.8790	38.5030
 0.8800	38.5150
 0.8810	38.5240
 0.8820	38.5310
 0.8830	38.5410
 0.8840	38.5530
 0.8850	38.5620
 0.8860	38.5710
 0.8870	38.5790
 0.8880	38.5870
 0.8890	38.5930
 0.8900	38.6000
 0.8910	38.6090
 0.8920	38.6160
 0.8930	38.6290
 0.8940	38.6390
 0.8950	38.6470
 0.8960	38.6560
 0.8970	38.6640
 0.8980	38.6710
 0.8990	38.6780
 0.9000	38.6860
 0.9010	38.6890
 0.9020	38.6960
 0.9030	38.7070
 0.9040	38.7160
 0.9050	38.7260
 0.9060	38.7360
 0.9070	38.7430
 0.9080	38.7470
 0.9090	38.7530
 0.9100	38.7610
 0.9110	38.7680
 0.9120	38.7740
 0.9130	38.7800
 0.9140	38.7840
 0.9150	38.7820
 0.9160	38.7890
 0.9170	38.7910
 0.9180	38.7900
 0.9190	38.7960
 0.9200	38.7980
 0.9210	38.7980
 0.9220	38.8010
 0.9230	38.8070
 0.9240	38.8030
 0.9250	38.7930
 0.9260	38.7870
 0.9270	38.7930
 0.9280	38.7910
 0.9290	38.7860
 0.9300	38.7800
 0.9310	38.7710
 0.9320	38.7610
 0.9330	38.7570
 0.9340	38.7530
 0.9350	38.7340
 0.9360	38.7200
 0.9370	38.7120
 0.9380	38.7030
 0.9390	38.6820
 0.9400	38.6730
 0.9410	38.6670
 0.9420	38.6570
 0.9430	38.6410
 0.9440	38.6170
 0.9450	38.5970
 0.9460	38.5840
 0.9470	38.5620
 0.9480	38.5320
 0.9490	38.4970
 0.9500	38.4630
 0.9510	38.4320
 0.9520	38.3910
 0.9530	38.3490
 0.9540	38.3160
 0.9550	38.2880
 0.9560	38.2580
 0.9570	38.2200
 0.9580	38.1750
 0.9590	38.1400
 0.9600	38.1100
 0.9610	38.0820
 0.9620	38.0580
 0.9630	38.0350
 0.9640	38.0120
 0.9650	37.9890
 0.9660	37.9680
 0.9670	37.9570
 0.9680	37.9400
 0.9690	37.9250
 0.9700	37.9260
 0.9710	37.9170
 0.9720	37.9070
 0.9730	37.9010
 0.9740	37.8970
 0.9750	37.8900
 0.9760	37.8850
 0.9770	37.8780
 0.9780	37.8640
 0.9790	37.8660
 0.9800	37.8730
 0.9810	37.8790
 0.9820	37.8790
 0.9830	37.8850
 0.9840	37.8890
 0.9850	37.8950
 0.9860	37.9070
 0.9870	37.9180
 0.9880	37.9270
 0.9890	37.9310
 0.9900	37.9340
 0.9910	37.9520
 0.9920	37.9650
 0.9930	37.9740
 0.9940	37.9890
 0.9950	38.0090
 0.9960	38.0250
 0.9970	38.0300
 0.9980	38.0280
 0.9990	38.0420
 1.0000	38.0540
 1.0010	38.4650
 1.0020	38.4760
 1.0030	38.4900
 1.0040	38.5060
 1.0050	38.5260
 1.0060	38.5430
 1.0070	38.5530
 1.0080	38.5670
 1.0090	38.5810
 1.0100	38.5960
 1.0110	38.6120
 1.0120	38.6260
 1.0130	38.6380
 1.0140	38.6530
 1.0150	38.6670
 1.0160	38.6820
 1.0170	38.6960
 1.0180	38.7120
 1.0190	38.7280
 1.0200	38.7410
 1.0210	38.7580
 1.0220	38.7750
 1.0230	38.7890
 1.0240	38.8040
 1.0250	38.8170
 1.0260	38.8260
 1.0270	38.8370
 1.0280	38.8480
 1.0290	38.8600
 1.0300	38.8760
 1.0310	38.8890
 1.0320	38.9020
 1.0330	38.9140
 1.0340	38.9240
 1.0350	38.9330
 1.0360	38.9450
 1.0370	38.9570
 1.0380	38.9670
 1.0390	38.9770
 1.0400	38.9870
 1.0410	38.9940
 1.0420	39.0020
 1.0430	39.0120
 1.0440	39.0200
 1.0450	39.0270
 1.0460	39.0360
 1.0470	39.0440
 1.0480	39.0530
 1.0490	39.0610
 1.0500	39.0700
 1.0510	39.0810
 1.0520	39.0880
 1.0530	39.0950
 1.0540	39.1000
 1.0550	39.1070
 1.0560	39.1110
 1.0570	39.1180
 1.0580	39.1290
 1.0590	39.1360
 1.0600	39.1400
 1.0610	39.1460
 1.0620	39.1510
 1.0630	39.1550
 1.0640	39.1610
 1.0650	39.1660
 1.0660	39.1710
 1.0670	39.1750
 1.0680	39.1790
 1.0690	39.1840
 1.0700	39.1880
 1.0710	39.1910
 1.0720	39.1950
 1.0730	39.2010
 1.0740	39.2040
 1.0750	39.2070
 1.0760	39.2110
 1.0770	39.2150
 1.0780	39.2170
 1.0790	39.2200
 1.0800	39.2220
 1.0810	39.2230
 1.0820	39.2250
 1.0830	39.2300
 1.0840	39.2320
 1.0850	39.2340
 1.0860	39.2350
 1.0870	39.2350
 1.0880	39.2320
 1.0890	39.2320
 1.0900	39.2320
 1.0910	39.2300
 1.0920	39.2280
 1.0930	39.2250
 1.0940	39.2200
 1.0950	39.2160
 1.0960	39.2150
 1.0970	39.2120
 1.0980	39.2100
 1.0990	39.2060
 1.1000	39.2020
 1.1010	39.1960
 1.1020	39.1870
 1.1030	39.1790
 1.1040	39.1730
 1.1050	39.1660
 1.1060	39.1590
 1.1070	39.1530
 1.1080	39.1450
 1.1090	39.1360
 1.1100	39.1270
 1.1110	39.1190
 1.1120	39.1080
 1.1130	39.0960
 1.1140	39.0830
 1.1150	39.0700
 1.1160	39.0540
 1.1170	39.0360
 1.1180	39.0190
 1.1190	39.0010
 1.1200	38.9820
 1.1210	38.9610
 1.1220	38.9370
 1.1230	38.9100
 1.1240	38.8810
 1.1250	38.8480
 1.1260	38.8140
 1.1270	38.7760
 1.1280	38.7350
 1.1290	38.6910
 1.1300	38.6440
 1.1310	38.5910
 1.1320	38.5330
 1.1330	38.4710
 1.1340	38.4050
 1.1350	38.3330
 1.1360	38.2570
 1.1370	38.1750
 1.1380	38.0880
 1.1390	37.9970
 1.1400	37.9020
 1.1410	37.8070
 1.1420	37.7090
 1.1430	37.6090
 1.1440	37.5080
 1.1450	37.4030
 1.1460	37.3000
 1.1470	37.1930
 1.1480	37.0920
 1.1490	36.9930
 1.1500	36.9000
 1.1510	36.8100
 1.1520	36.7250
 1.1530	36.6430
 1.1540	36.5670
 1.1550	36.4940
 1.1560	36.4280
 1.1570	36.3670
 1.1580	36.3110
 1.1590	36.2620
 1.1600	36.2170
 1.1610	36.1750
 1.1620	36.1370
 1.1630	36.1030
 1.1640	36.0710
 1.1650	36.0440
 1.1660	36.0230
 1.1670	36.0020
 1.1680	35.9840
 1.1690	35.9670
 1.1700	35.9530
 1.1710	35.9390
 1.1720	35.9270
 1.1730	35.9130
 1.1740	35.8980
 1.1750	35.8840
 1.1760	35.8700
 1.1770	35.8560
 1.1780	35.8410
 1.1790	35.8250
 1.1800	35.8080
 1.1810	35.7900
 1.1820	35.7730
 1.1830	35.7560
 1.1840	35.7400
 1.1850	35.7250
 1.1860	35.7090
 1.1870	35.6940
 1.1880	35.6780
 1.1890	35.6610
 1.1900	35.6470
 1.1910	35.6340
 1.1920	35.6220
 1.1930	35.6130
 1.1940	35.6040
 1.1950	35.5950
 1.1960	35.5870
 1.1970	35.5810
 1.1980	35.5740
 1.1990	35.5700
 1.2000	35.5680
 1.2010	35.5660
 1.2020	35.5670
 1.2030	35.5660
 1.2040	35.5650
 1.2050	35.5670
 1.2060	35.5700
 1.2070	35.5760
 1.2080	35.5840
 1.2090	35.5910
 1.2100	35.6000
 1.2110	35.6120
 1.2120	35.6230
 1.2130	35.6390
 1.2140	35.6590
 1.2150	35.6810
 1.2160	35.7040
 1.2170	35.7300
 1.2180	35.7570
 1.2190	35.7860
 1.2200	35.8160
 1.2210	35.8490
 1.2220	35.8830
 1.2230	35.9160
 1.2240	35.9480
 1.2250	35.9820
 1.2260	36.0150
 1.2270	36.0470
 1.2280	36.0790
 1.2290	36.1090
 1.2300	36.1360
 1.2310	36.1650
 1.2320	36.1930
 1.2330	36.2190
 1.2340	36.2430
 1.2350	36.2660
 1.2360	36.2880
 1.2370	36.3070
 1.2380	36.3290
 1.2390	36.3490
 1.2400	36.3690
 1.2410	36.3890
 1.2420	36.4060
 1.2430	36.4220
 1.2440	36.4390
 1.2450	36.4550
 1.2460	36.4700
 1.2470	36.4860
 1.2480	36.5010
 1.2490	36.5150
 1.2500	36.5290
 1.2510	36.5400
 1.2520	36.5500
 1.2530	36.5600
 1.2540	36.5690
 1.2550	36.5790
 1.2560	36.5880
 1.2570	36.5970
 1.2580	36.6040
 1.2590	36.6100
 1.2600	36.6140
 1.2610	36.6180
 1.2620	36.6220
 1.2630	36.6250
 1.2640	36.6270
 1.2650	36.6280
 1.2660	36.6270
 1.2670	36.6260
 1.2680	36.6240
 1.2690	36.6220
 1.2700	36.6190
 1.2710	36.6160
 1.2720	36.6110
 1.2730	36.6050
 1.2740	36.5980
 1.2750	36.5910
 1.2760	36.5830
 1.2770	36.5740
 1.2780	36.5650
 1.2790	36.5550
 1.2800	36.5430
 1.2810	36.5320
 1.2820	36.5200
 1.2830	36.5060
 1.2840	36.4910
 1.2850	36.4740
 1.2860	36.4570
 1.2870	36.4390
 1.2880	36.4210
 1.2890	36.4020
 1.2900	36.3820
 1.2910	36.3610
 1.2920	36.3360
 1.2930	36.3100
 1.2940	36.2840
 1.2950	36.2560
 1.2960	36.2280
 1.2970	36.1980
 1.2980	36.1670
 1.2990	36.1360
 1.3000	36.1020
 1.3010	36.0670
 1.3020	36.0310
 1.3030	35.9920
 1.3040	35.9510
 1.3050	35.9090
 1.3060	35.8640
 1.3070	35.8170
 1.3080	35.7690
 1.3090	35.7180
 1.3100	35.6650
 1.3110	35.6080
 1.3120	35.5490
 1.3130	35.4880
 1.3140	35.4250
 1.3150	35.3610
 1.3160	35.2920
 1.3170	35.2220
 1.3180	35.1480
 1.3190	35.0710
 1.3200	34.9900
 1.3210	34.9070
 1.3220	34.8220
 1.3230	34.7350
 1.3240	34.6470
 1.3250	34.5560
 1.3260	34.4620
 1.3270	34.3640
 1.3280	34.2630
 1.3290	34.1590
 1.3300	34.0540
 1.3310	33.9490
 1.3320	33.8410
 1.3330	33.7320
 1.3340	33.6200
 1.3350	33.5080
 1.3360	33.3960
 1.3370	33.2840
 1.3380	33.1710
 1.3390	33.0570
 1.3400	32.9410
 1.3410	32.8250
 1.3420	32.7090
 1.3430	32.5950
 1.3440	32.4820
 1.3450	32.3700
 1.3460	32.2580
 1.3470	32.1480
 1.3480	32.0370
 1.3490	31.9290
 1.3500	31.8220
 1.3510	31.7170
 1.3520	31.6110
 1.3530	31.5070
 1.3540	31.4030
 1.3550	31.2970
 1.3560	31.1920
 1.3570	31.0850
 1.3580	30.9790
 1.3590	30.8700
 1.3600	30.7600
 1.3610	30.6490
 1.3620	30.5330
 1.3630	30.4160
 1.3640	30.2940
 1.3650	30.1660
 1.3660	30.0340
 1.3670	29.8960
 1.3680	29.7510
 1.3690	29.6000
 1.3700	29.4390
 1.3710	29.2680
 1.3720	29.0870
 1.3730	28.8930
 1.3740	28.6880
 1.3750	28.4700
 1.3760	28.2350
 1.3770	27.9820
 1.3780	27.7100
 1.3790	27.4190
 1.3800	27.1100
 1.3810	26.7790
 1.3820	26.4330
 1.3830	26.0700
 1.3840	25.6900
 1.3850	25.2930
 1.3860	24.8830
 1.3870	24.4530
 1.3880	24.0190
 1.3890	23.5740
 1.3900	23.1180
 1.3910	22.6620
 1.3920	22.2000
 1.3930	21.7300
 1.3940	21.2630
 1.3950	20.7930
 1.3960	20.3270
 1.3970	19.8690
 1.3980	19.4170
 1.3990	18.9800
 1.4000	18.5540
 1.4010	18.1380
 1.4020	17.7380
 1.4030	17.3500
 1.4040	16.9770
 1.4050	16.6240
 1.4060	16.2850
 1.4070	15.9680
 1.4080	15.6680
 1.4090	15.3820
 1.4100	15.1160
 1.4110	14.8650
 1.4120	14.6310
 1.4130	14.4150
 1.4140	14.2130
 1.4150	14.0290
 1.4160	13.8590
 1.4170	13.7020
 1.4180	13.5570
 1.4190	13.4230
 1.4200	13.3000
 1.4210	13.1880
 1.4220	13.0850
 1.4230	12.9930
 1.4240	12.9100
 1.4250	12.8330
 1.4260	12.7660
 1.4270	12.7030
 1.4280	12.6470
 1.4290	12.5960
 1.4300	12.5510
 1.4310	12.5120
 1.4320	12.4780
 1.4330	12.4480
 1.4340	12.4230
 1.4350	12.4010
 1.4360	12.3840
 1.4370	12.3690
 1.4380	12.3580
 1.4390	12.3500
 1.4400	12.3440
 1.4410	12.3420
 1.4420	12.3410
 1.4430	12.3420
 1.4440	12.3450
 1.4450	12.3490
 1.4460	12.3540
 1.4470	12.3630
 1.4480	12.3720
 1.4490	12.3820
 1.4500	12.3930
 1.4510	12.4050
 1.4520	12.4170
 1.4530	12.4320
 1.4540	12.4480
 1.4550	12.4660
 1.4560	12.4850
 1.4570	12.5060
 1.4580	12.5280
 1.4590	12.5530
 1.4600	12.5800
 1.4610	12.6110
 1.4620	12.6440
 1.4630	12.6810
 1.4640	12.7220
 1.4650	12.7650
 1.4660	12.8120
 1.4670	12.8620
 1.4680	12.9170
 1.4690	12.9750
 1.4700	13.0360
 1.4710	13.1020
 1.4720	13.1710
 1.4730	13.2430
 1.4740	13.3170
 1.4750	13.3940
 1.4760	13.4730
 1.4770	13.5550
 1.4780	13.6390
 1.4790	13.7240
 1.4800	13.8110
 1.4810	13.8990
 1.4820	13.9890
 1.4830	14.0790
 1.4840	14.1710
 1.4850	14.2630
 1.4860	14.3560
 1.4870	14.4510
 1.4880	14.5440
 1.4890	14.6370
 1.4900	14.7320
 1.4910	14.8260
 1.4920	14.9220
 1.4930	15.0190
 1.4940	15.1150
 1.4950	15.2130
 1.4960	15.3100
 1.4970	15.4060
 1.4980	15.5040
 1.4990	15.6020
 1.5000	15.6990
 1.5010	15.7970
 1.5020	15.8950
 1.5030	15.9910
 1.5040	16.0880
 1.5050	16.1850
 1.5060	16.2820
 1.5070	16.3800
 1.5080	16.4760
 1.5090	16.5730
 1.5100	16.6690
 1.5110	16.7630
 1.5120	16.8580
 1.5130	16.9510
 1.5140	17.0440
 1.5150	17.1390
 1.5160	17.2310
 1.5170	17.3230
 1.5180	17.4160
 1.5190	17.5070
 1.5200	17.5970
 1.5210	17.6860
 1.5220	17.7750
 1.5230	17.8630
 1.5240	17.9500
 1.5250	18.0370
 1.5260	18.1230
 1.5270	18.2090
 1.5280	18.2940
 1.5290	18.3770
 1.5300	18.4600
 1.5310	18.5420
 1.5320	18.6220
 1.5330	18.7030
 1.5340	18.7820
 1.5350	18.8610
 1.5360	18.9400
 1.5370	19.0180
 1.5380	19.0950
 1.5390	19.1730
 1.5400	19.2490
 1.5410	19.3260
 1.5420	19.4010
 1.5430	19.4750
 1.5440	19.5480
 1.5450	19.6200
 1.5460	19.6910
 1.5470	19.7620
 1.5480	19.8340
 1.5490	19.9030
 1.5500	19.9720
 1.5510	20.0410
 1.5520	20.1090
 1.5530	20.1760
 1.5540	20.2440
 1.5550	20.3110
 1.5560	20.3770
 1.5570	20.4420
 1.5580	20.5070
 1.5590	20.5700
 1.5600	20.6330
 1.5610	20.6940
 1.5620	20.7550
 1.5630	20.8160
 1.5640	20.8760
 1.5650	20.9340
 1.5660	20.9930
 1.5670	21.0500
 1.5680	21.1080
 1.5690	21.1650
 1.5700	21.2200
 1.5710	21.2750
 1.5720	21.3300
 1.5730	21.3850
 1.5740	21.4390
 1.5750	21.4940
 1.5760	21.5490
 1.5770	21.6030
 1.5780	21.6570
 1.5790	21.7110
 1.5800	21.7630
 1.5810	21.8160
 1.5820	21.8680
 1.5830	21.9190
 1.5840	21.9710
 1.5850	22.0230
 1.5860	22.0750
 1.5870	22.1270
 1.5880	22.1780
 1.5890	22.2300
 1.5900	22.2820
 1.5910	22.3330
 1.5920	22.3840
 1.5930	22.4350
 1.5940	22.4870
 1.5950	22.5380
 1.5960	22.5870
 1.5970	22.6370
 1.5980	22.6860
 1.5990	22.7350
 1.6000	22.7840
 1.6010	22.8320
 1.6020	22.8790
 1.6030	22.9250
 1.6040	22.9720
 1.6050	23.0200
 1.6060	23.0680
 1.6070	23.1140
 1.6080	23.1600
 1.6090	23.2040
 1.6100	23.2460
 1.6110	23.2880
 1.6120	23.3300
 1.6130	23.3720
 1.6140	23.4130
 1.6150	23.4540
 1.6160	23.4940
 1.6170	23.5310
 1.6180	23.5690
 1.6190	23.6060
 1.6200	23.6420
 1.6210	23.6780
 1.6220	23.7130
 1.6230	23.7470
 1.6240	23.7790
 1.6250	23.8110
 1.6260	23.8410
 1.6270	23.8710
 1.6280	23.8990
 1.6290	23.9270
 1.6300	23.9540
 1.6310	23.9800
 1.6320	24.0040
 1.6330	24.0280
 1.6340	24.0500
 1.6350	24.0700
 1.6360	24.0890
 1.6370	24.1060
 1.6380	24.1220
 1.6390	24.1360
 1.6400	24.1490
 1.6410	24.1590
 1.6420	24.1670
 1.6430	24.1720
 1.6440	24.1750
 1.6450	24.1750
 1.6460	24.1730
 1.6470	24.1700
 1.6480	24.1650
 1.6490	24.1580
 1.6500	24.1500
 1.6510	24.1400
 1.6520	24.1300
 1.6530	24.1180
 1.6540	24.1060
 1.6550	24.0940
 1.6560	24.0810
 1.6570	24.0700
 1.6580	24.0580
 1.6590	24.0480
 1.6600	24.0390
 1.6610	24.0300
 1.6620	24.0210
 1.6630	24.0140
 1.6640	24.0090
 1.6650	24.0050
 1.6660	24.0010
 1.6670	23.9970
 1.6680	23.9920
 1.6690	23.9870
 1.6700	23.9820
 1.6710	23.9760
 1.6720	23.9690
 1.6730	23.9580
 1.6740	23.9450
 1.6750	23.9300
 1.6760	23.9110
 1.6770	23.8920
 1.6780	23.8710
 1.6790	23.8480
 1.6800	23.8230
 1.6810	23.7930
 1.6820	23.7620
 1.6830	23.7260
 1.6840	23.6880
 1.6850	23.6510
 1.6860	23.6110
 1.6870	23.5690
 1.6880	23.5260
 1.6890	23.4800
 1.6900	23.4340
 1.6910	23.3860
 1.6920	23.3400
 1.6930	23.2950
 1.6940	23.2500
 1.6950	23.2050
 1.6960	23.1600
 1.6970	23.1150
 1.6980	23.0680
 1.6990	23.0210
 1.7000	22.9730
 1.7010	22.9230
 1.7020	22.8730
 1.7030	22.8230
 1.7040	22.7720
 1.7050	22.7210
 1.7060	22.6670
 1.7070	22.6130
 1.7080	22.5580
 1.7090	22.5020
 1.7100	22.4470
 1.7110	22.3920
 1.7120	22.3360
 1.7130	22.2810
 1.7140	22.2240
 1.7150	22.1680
 1.7160	22.1150
 1.7170	22.0620
 1.7180	22.0100
 1.7190	21.9590
 1.7200	21.9080
 1.7210	21.8580
 1.7220	21.8080
 1.7230	21.7600
 1.7240	21.7110
 1.7250	21.6650
 1.7260	21.6220
 1.7270	21.5830
 1.7280	21.5490
 1.7290	21.5200
 1.7300	21.4970
 1.7310	21.4800
 1.7320	21.4700
 1.7330	21.4630
 1.7340	21.4640
 1.7350	21.4640
 1.7360	21.4670
 1.7370	21.4670
 1.7380	21.4660
 1.7390	21.4620
 1.7400	21.4560
 1.7410	21.4450
 1.7420	21.4290
 1.7430	21.4090
 1.7440	21.3840
 1.7450	21.3570
 1.7460	21.3260
 1.7470	21.2920
 1.7480	21.2540
 1.7490	21.2160
 1.7500	21.1740
 1.7510	21.1330
 1.7520	21.0900
 1.7530	21.0450
 1.7540	20.9970
 1.7550	20.9490
 1.7560	20.9020
 1.7570	20.8560
 1.7580	20.8100
 1.7590	20.7660
 1.7600	20.7220
 1.7610	20.6790
 1.7620	20.6400
 1.7630	20.6040
 1.7640	20.5710
 1.7650	20.5430
 1.7660	20.5170
 1.7670	20.4940
 1.7680	20.4730
 1.7690	20.4540
 1.7700	20.4350
 1.7710	20.4180
 1.7720	20.4020
 1.7730	20.3880
 1.7740	20.3740
 1.7750	20.3610
 1.7760	20.3470
 1.7770	20.3330
 1.7780	20.3190
 1.7790	20.3050
 1.7800	20.2900
 1.7810	20.2750
 1.7820	20.2620
 1.7830	20.2490
 1.7840	20.2380
 1.7850	20.2280
 1.7860	20.2210
 1.7870	20.2150
 1.7880	20.2100
 1.7890	20.2060
 1.7900	20.1990
 1.7910	20.1950
 1.7920	20.1920
 1.7930	20.1890
 1.7940	20.1880
 1.7950	20.1880
 1.7960	20.1900
 1.7970	20.1920
 1.7980	20.1960
 1.7990	20.2000
 1.8000	20.2030
 1.8010	20.2080
 1.8020	20.2140
 1.8030	20.2200
 1.8040	20.2280
 1.8050	20.2350
 1.8060	20.2400
 1.8070	20.2470
 1.8080	20.2550
 1.8090	20.2620
 1.8100	20.2710
 1.8110	20.2760
 1.8120	20.2810
 1.8130	20.2890
 1.8140	20.2950
 1.8150	20.3010
 1.8160	20.3080
 1.8170	20.3130
 1.8180	20.3150
 1.8190	20.3200
 1.8200	20.3240
 1.8210	20.3270
 1.8220	20.3290
 1.8230	20.3300
 1.8240	20.3300
 1.8250	20.3290
 1.8260	20.3280
 1.8270	20.3270
 1.8280	20.3240
 1.8290	20.3190
 1.8300	20.3150
 1.8310	20.4990
 1.8320	20.4890
 1.8330	20.4780
 1.8340	20.4590
 1.8350	20.4390
 1.8360	20.4160
 1.8370	20.3870
 1.8380	20.3600
 1.8390	20.3280
 1.8400	20.2970
 1.8410	20.2570
 1.8420	20.2140
 1.8430	20.1640
 1.8440	20.1080
 1.8450	20.0490
 1.8460	19.9850
 1.8470	19.9160
 1.8480	19.8410
 1.8490	19.7570
 1.8500	19.6640
 1.8510	19.5620
 1.8520	19.4510
 1.8530	19.3290
 1.8540	19.2000
 1.8550	19.0650
 1.8560	18.9200
 1.8570	18.7650
 1.8580	18.5960
 1.8590	18.4170
 1.8600	18.2260
 1.8610	18.0270
 1.8620	17.8140
 1.8630	17.5940
 1.8640	17.3620
 1.8650	17.1130
 1.8660	16.8530
 1.8670	16.5780
 1.8680	16.2890
 1.8690	15.9880
 1.8700	15.6710
 1.8710	15.3400
 1.8720	15.0010
 1.8730	14.6500
 1.8740	14.2890
 1.8750	13.9260
 1.8760	13.5540
 1.8770	13.1810
 1.8780	12.8090
 1.8790	12.4330
 1.8800	12.0650
 1.8810	11.7010
 1.8820	11.3390
 1.8830	10.9760
 1.8840	10.6210
 1.8850	10.2700
 1.8860	 9.9260
 1.8870	 9.5950
 1.8880	 9.2730
 1.8890	 8.9670
 1.8900	 8.6760
 1.8910	 8.4010
 1.8920	 8.1380
 1.8930	 7.8960
 1.8940	 7.6670
 1.8950	 7.4540
 1.8960	 7.2590
 1.8970	 7.0790
 1.8980	 6.9150
 1.8990	 6.7660
 1.9000	 6.6290
 1.9010	 6.5050
 1.9020	 6.3920
 1.9030	 6.2930
 1.9040	 6.2040
 1.9050	 6.1260
 1.9060	 6.0580
 1.9070	 5.9990
 1.9080	 5.9460
 1.9090	 5.8990
 1.9100	 5.8570
 1.9110	 5.8200
 1.9120	 5.7890
 1.9130	 5.7600
 1.9140	 5.7360
 1.9150	 5.7140
 1.9160	 5.6950
 1.9170	 5.6780
 1.9180	 5.6650
 1.9190	 5.6560
 1.9200	 5.6480
 1.9210	 5.6420
 1.9220	 5.6370
 1.9230	 5.6330
 1.9240	 5.6310
 1.9250	 5.6290
 1.9260	 5.6300
 1.9270	 5.6310
 1.9280	 5.6340
 1.9290	 5.6370
 1.9300	 5.6410
 1.9310	 5.6470
 1.9320	 5.6540
 1.9330	 5.6620
 1.9340	 5.6740
 1.9350	 5.6840
 1.9360	 5.6960
 1.9370	 5.7070
 1.9380	 5.7190
 1.9390	 5.7330
 1.9400	 5.7460
 1.9410	 5.7590
 1.9420	 5.7740
 1.9430	 5.7880
 1.9440	 5.8040
 1.9450	 5.8230
 1.9460	 5.8420
 1.9470	 5.8620
 1.9480	 5.8820
 1.9490	 5.9020
 1.9500	 5.9230
 1.9510	 5.9440
 1.9520	 5.9660
 1.9530	 5.9880
 1.9540	 6.0110
 1.9550	 6.0350
 1.9560	 6.0590
 1.9570	 6.0840
 1.9580	 6.1110
 1.9590	 6.1380
 1.9600	 6.1670
 1.9610	 6.1960
 1.9620	 6.2250
 1.9630	 6.2560
 1.9640	 6.2870
 1.9650	 6.3170
 1.9660	 6.3470
 1.9670	 6.3790
 1.9680	 6.4100
 1.9690	 6.4420
 1.9700	 6.4750
 1.9710	 6.5090
 1.9720	 6.5430
 1.9730	 6.5780
 1.9740	 6.6120
 1.9750	 6.6460
 1.9760	 6.6820
 1.9770	 6.7190
 1.9780	 6.7560
 1.9790	 6.7940
 1.9800	 6.8350
 1.9810	 6.8750
 1.9820	 6.9160
 1.9830	 6.9570
 1.9840	 6.9970
 1.9850	 7.0380
 1.9860	 7.0790
 1.9870	 7.1200
 1.9880	 7.1640
 1.9890	 7.2090
 1.9900	 7.2530
 1.9910	 7.2960
 1.9920	 7.3410
 1.9930	 7.3850
 1.9940	 7.4300
 1.9950	 7.4740
 1.9960	 7.5190
 1.9970	 7.5640
 1.9980	 7.6090
 1.9990	 7.6550
 2.0000	 7.7000
 2.0010	 7.7450
 2.0020	 7.7910
 2.0030	 7.8360
 2.0040	 7.8820
 2.0050	 7.9260
 2.0060	 7.9680
 2.0070	 8.0130
 2.0080	 8.0590
 2.0090	 8.1030
 2.0100	 8.1460
 2.0110	 8.1890
 2.0120	 8.2320
 2.0130	 8.2710
 2.0140	 8.3120
 2.0150	 8.3540
 2.0160	 8.3970
 2.0170	 8.4390
 2.0180	 8.4800
 2.0190	 8.5210
 2.0200	 8.5610
 2.0210	 8.5990
 2.0220	 8.6370
 2.0230	 8.6740
 2.0240	 8.7120
 2.0250	 8.7500
 2.0260	 8.7870
 2.0270	 8.8230
 2.0280	 8.8590
 2.0290	 8.8930
 2.0300	 8.9240
 2.0310	 8.9550
 2.0320	 8.9850
 2.0330	 9.0150
 2.0340	 9.0430
 2.0350	 9.0710
 2.0360	 9.1010
 2.0370	 9.1290
 2.0380	 9.1560
 2.0390	 9.1810
 2.0400	 9.2050
 2.0410	 9.2280
 2.0420	 9.2510
 2.0430	 9.2720
 2.0440	 9.2930
 2.0450	 9.3120
 2.0460	 9.3330
 2.0470	 9.3530
 2.0480	 9.3740
 2.0490	 9.3950
 2.0500	 9.4150
 2.0510	 9.4340
 2.0520	 9.4530
 2.0530	 9.4720
 2.0540	 9.4910
 2.0550	 9.5100
 2.0560	 9.5310
 2.0570	 9.5530
 2.0580	 9.5730
 2.0590	 9.5940
 2.0600	 9.6160
 2.0610	 9.6370
 2.0620	 9.6580
 2.0630	 9.6800
 2.0640	 9.7040
 2.0650	 9.7270
 2.0660	 9.7500
 2.0670	 9.7730
 2.0680	 9.7940
 2.0690	 9.8150
 2.0700	 9.8360
 2.0710	 9.8570
 2.0720	 9.8780
 2.0730	 9.8990
 2.0740	 9.9200
 2.0750	 9.9430
 2.0760	 9.9650
 2.0770	 9.9870
 2.0780	10.0100
 2.0790	10.0320
 2.0800	10.0540
 2.0810	10.0760
 2.0820	10.0970
 2.0830	10.1160
 2.0840	10.1360
 2.0850	10.1560
 2.0860	10.1760
 2.0870	10.1970
 2.0880	10.2180
 2.0890	10.2380
 2.0900	10.2560
 2.0910	10.2770
 2.0920	10.2990
 2.0930	10.3210
 2.0940	10.3430
 2.0950	10.3640
 2.0960	10.3830
 2.0970	10.4030
 2.0980	10.4240
 2.0990	10.4430
 2.1000	10.4630
 2.1010	10.4820
 2.1020	10.4970
 2.1030	10.5150
 2.1040	10.5330
 2.1050	10.5510
 2.1060	10.5710
 2.1070	10.5930
 2.1080	10.6110
 2.1090	10.6290
 2.1100	10.6470
 2.1110	10.6620
 2.1120	10.6790
 2.1130	10.6990
 2.1140	10.7160
 2.1150	10.7330
 2.1160	10.7490
 2.1170	10.7630
 2.1180	10.7780
 2.1190	10.7910
 2.1200	10.8060
 2.1210	10.8220
 2.1220	10.8380
 2.1230	10.8530
 2.1240	10.8690
 2.1250	10.8830
 2.1260	10.8960
 2.1270	10.9100
 2.1280	10.9260
 2.1290	10.9410
 2.1300	10.9560
 2.1310	10.9710
 2.1320	10.9850
 2.1330	10.9990
 2.1340	11.0140
 2.1350	11.0290
 2.1360	11.0430
 2.1370	11.0590
 2.1380	11.0750
 2.1390	11.0910
 2.1400	11.1070
 2.1410	11.1260
 2.1420	11.1440
 2.1430	11.1610
 2.1440	11.1800
 2.1450	11.2020
 2.1460	11.2210
 2.1470	11.2400
 2.1480	11.2580
 2.1490	11.2750
 2.1500	11.2920
 2.1510	11.3110
 2.1520	11.3260
 2.1530	11.3400
 2.1540	11.3540
 2.1550	11.3660
 2.1560	11.3810
 2.1570	11.3980
 2.1580	11.4140
 2.1590	11.4300
 2.1600	11.4460
 2.1610	11.4590
 2.1620	11.4730
 2.1630	11.4860
 2.1640	11.5000
 2.1650	11.5120
 2.1660	11.5230
 2.1670	11.5370
 2.1680	11.5510
 2.1690	11.5660
 2.1700	11.5840
 2.1710	11.6000
 2.1720	11.6140
 2.1730	11.6290
 2.1740	11.6420
 2.1750	11.6560
 2.1760	11.6690
 2.1770	11.6840
 2.1780	11.7010
 2.1790	11.7180
 2.1800	11.7370
 2.1810	11.7540
 2.1820	11.7700
 2.1830	11.7870
 2.1840	11.8030
 2.1850	11.8190
 2.1860	11.8360
 2.1870	11.8550
 2.1880	11.8740
 2.1890	11.8930
 2.1900	11.9120
 2.1910	11.9300
 2.1920	11.9480
 2.1930	11.9650
 2.1940	11.9820
 2.1950	11.9980
 2.1960	12.0140
 2.1970	12.0300
 2.1980	12.0460
 2.1990	12.0650
 2.2000	12.0810
 2.2010	12.0970
 2.2020	12.1130
 2.2030	12.1270
 2.2040	12.1420
 2.2050	12.1560
 2.2060	12.1700
 2.2070	12.1820
 2.2080	12.1940
 2.2090	12.2070
 2.2100	12.2200
 2.2110	12.2320
 2.2120	12.2460
 2.2130	12.2550
 2.2140	12.2630
 2.2150	12.2700
 2.2160	12.2750
 2.2170	12.2780
 2.2180	12.2800
 2.2190	12.2800
 2.2200	12.2780
 2.2210	12.2750
 2.2220	12.2730
 2.2230	12.2670
 2.2240	12.2570
 2.2250	12.2460
 2.2260	12.2310
 2.2270	12.2150
 2.2280	12.1970
 2.2290	12.1770
 2.2300	12.1550
 2.2310	12.1290
 2.2320	12.1010
 2.2330	12.0740
 2.2340	12.0410
 2.2350	12.0070
 2.2360	11.9690
 2.2370	11.9270
 2.2380	11.8850
 2.2390	11.8410
 2.2400	11.7960
 2.2410	11.7510
 2.2420	11.7060
 2.2430	11.6620
 2.2440	11.6150
 2.2450	11.5640
 2.2460	11.5140
 2.2470	11.4620
 2.2480	11.4100
 2.2490	11.3560
 2.2500	11.3060
 2.2510	11.2560
 2.2520	11.2060
 2.2530	11.1590
 2.2540	11.1100
 2.2550	11.0590
 2.2560	11.0110
 2.2570	10.9650
 2.2580	10.9190
 2.2590	10.8760
 2.2600	10.8320
 2.2610	10.7890
 2.2620	10.7450
 2.2630	10.7050
 2.2640	10.6650
 2.2650	10.6230
 2.2660	10.5870
 2.2670	10.5480
 2.2680	10.5060
 2.2690	10.4680
 2.2700	10.4310
 2.2710	10.3960
 2.2720	10.3630
 2.2730	10.3320
 2.2740	10.3030
 2.2750	10.2730
 2.2760	10.2440
 2.2770	10.2160
 2.2780	10.1880
 2.2790	10.1620
 2.2800	10.1370
 2.2810	10.1110
 2.2820	10.0860
 2.2830	10.0600
 2.2840	10.0350
 2.2850	10.0090
 2.2860	 9.9830
 2.2870	 9.9550
 2.2880	 9.9270
 2.2890	 9.8980
 2.2900	 9.8700
 2.2910	 9.8380
 2.2920	 9.8030
 2.2930	 9.7700
 2.2940	 9.7340
 2.2950	 9.6990
 2.2960	 9.6690
 2.2970	 9.6320
 2.2980	 9.5890
 2.2990	 9.5480
 2.3000	 9.5040
 2.3010	 9.4600
 2.3020	 9.4190
 2.3030	 9.3780
 2.3040	 9.3390
 2.3050	 9.3010
 2.3060	 9.2620
 2.3070	 9.2260
 2.3080	 9.1940
 2.3090	 9.1630
 2.3100	 9.1370
 2.3110	 9.1170
 2.3120	 9.1030
 2.3130	 9.0930
 2.3140	 9.0890
 2.3150	 9.0930
 2.3160	 9.0970
 2.3170	 9.1040
 2.3180	 9.1100
 2.3190	 9.1160
 2.3200	 9.1220
 2.3210	 9.1290
 2.3220	 9.1330
 2.3230	 9.1420
 2.3240	 9.1430
 2.3250	 9.1380
 2.3260	 9.1310
 2.3270	 9.1200
 2.3280	 9.1050
 2.3290	 9.0840
 2.3300	 9.0640
 2.3310	 9.0410
 2.3320	 9.0210
 2.3330	 9.0020
 2.3340	 8.9830
 2.3350	 8.9640
 2.3360	 8.9430
 2.3370	 8.9210
 2.3380	 8.9010
 2.3390	 8.8820
 2.3400	 8.8590
 2.3410	 8.8330
 2.3420	 8.8070
 2.3430	 8.7740
 2.3440	 8.7470
 2.3450	 8.7250
 2.3460	 8.7000
 2.3470	 8.6750
 2.3480	 8.6520
 2.3490	 8.6270
 2.3500	 8.6090
 2.3510	 8.6000
 2.3520	 8.5870
 2.3530	 8.5720
 2.3540	 8.5650
 2.3550	 8.5590
 2.3560	 8.5510
 2.3570	 8.5520
 2.3580	 8.5480
 2.3590	 8.5430
 2.3600	 8.5380
 2.3610	 8.5280
 2.3620	 8.5180
 2.3630	 8.5030
 2.3640	 8.4870
 2.3650	 8.4750
 2.3660	 8.4640
 2.3670	 8.4570
 2.3680	 8.4440
 2.3690	 8.4230
 2.3700	 8.4020
 2.3710	 8.3800
 2.3720	 8.3620
 2.3730	 8.3450
 2.3740	 8.3230
 2.3750	 8.3000
 2.3760	 8.2720
 2.3770	 8.2470
 2.3780	 8.2250
 2.3790	 8.2000
 2.3800	 8.1770
 2.3810	 8.1560
 2.3820	 8.1310
 2.3830	 8.1120
 2.3840	 8.0950
 2.3850	 8.0790
 2.3860	 8.0640
 2.3870	 8.0420
 2.3880	 8.0210
 2.3890	 8.0030
 2.3900	 7.9820
 2.3910	 7.9640
 2.3920	 7.9440
 2.3930	 7.9140
 2.3940	 7.8880
 2.3950	 7.8700
 2.3960	 7.8480
 2.3970	 7.8300
 2.3980	 7.8100
 2.3990	 7.7870
 2.4000	 7.7710
 2.4010	 7.7510
 2.4020	 7.7330
 2.4030	 7.7200
 2.4040	 7.6980
 2.4050	 7.6800
 2.4060	 7.6620
 2.4070	 7.6290
 2.4080	 7.6000
 2.4090	 7.5770
 2.4100	 7.5520
 2.4110	 7.5350
 2.4120	 7.5170
 2.4130	 7.4880
 2.4140	 7.4560
 2.4150	 7.4240
 2.4160	 7.3940
 2.4170	 7.3750
 2.4180	 7.3600
 2.4190	 7.3410
 2.4200	 7.3260
 2.4210	 7.3050
 2.4220	 7.2780
 2.4230	 7.2530
 2.4240	 7.2190
 2.4250	 7.1900
 2.4260	 7.1730
 2.4270	 7.1510
 2.4280	 7.1340
 2.4290	 7.1190
 2.4300	 7.0900
 2.4310	 7.0640
 2.4320	 7.0380
 2.4330	 7.0110
 2.4340	 6.9840
 2.4350	 6.9580
 2.4360	 6.9410
 2.4370	 6.9210
 2.4380	 6.9070
 2.4390	 6.8940
 2.4400	 6.8760
 2.4410	 6.8490
 2.4420	 6.8200
 2.4430	 6.8000
 2.4440	 6.7810
 2.4450	 6.7760
 2.4460	 6.7690
 2.4470	 6.7480
 2.4480	 6.7310
 2.4490	 6.7010
 2.4500	 6.6670
 2.4510	 6.6320
 2.4520	 6.5940
 2.4530	 6.5640
 2.4540	 6.5460
 2.4550	 6.5440
 2.4560	 6.5340
 2.4570	 6.5190
 2.4580	 6.5090
 2.4590	 6.4780
 2.4600	 6.4610
 2.4610	 6.4700
 2.4620	 6.4500
 2.4630	 6.4360
 2.4640	 6.4350
 2.4650	 6.4110
 2.4660	 6.3890
 2.4670	 6.3790
 2.4680	 6.3770
 2.4690	 6.3630
 2.4700	 6.3410
 2.4710	 6.3010
 2.4720	 6.2790
 2.4730	 6.2670
 2.4740	 6.2540
 2.4750	 6.2600
 2.4760	 6.2570
 2.4770	 6.2400
 2.4780	 6.2320
 2.4790	 6.2340
 2.4800	 6.2210
 2.4810	 6.1940
 2.4820	 6.1760
 2.4830	 6.1640
 2.4840	 6.1670
 2.4850	 6.1610
 2.4860	 6.1510
 2.4870	 6.1500
 2.4880	 6.1220
 2.4890	 6.0920
 2.4900	 6.0980
 2.4910	 6.0880
 2.4920	 6.0950
 2.4930	 6.1170
 2.4940	 6.0920
 2.4950	 6.0740
 2.4960	 6.0760
 2.4970	 6.0800
 2.4980	 6.0850
 2.4990	 6.0700
 2.5000	 6.0510
