Name: Aloe arborescens flower
Type: vegetation
Class: Shrub
Genus: Aloe
Species: arborescens_flower
Sample No.: JPL072
Owner: JPL
Wavelength Range: TIR
Origin: 34.12593; - 118.10983; WGS84
Collection Date: 2/2/2016
Description: Samples were collected at the Huntington Garden in San Marino California as part of a JPL Subcontract studying HyTES imagery. Samples were taken to JPL and processed within 48 hours of collection. The same leaves were processed in the Nicolet and then measured using the ASD.
Measurement: Hemispherical reflectance
First Column: X
Second Column: Y
X Units: Wavelength (micrometer)
Y Units: Reflectance (percentage)
First X Value: 2.501
Last X Value: 15.387
Number of X Values: 1737
Additional Information: 

 2.5010	 2.1340
 2.5030	 2.0490
 2.5040	 2.0930
 2.5050	 2.0250
 2.5060	 1.9920
 2.5070	 2.0310
 2.5090	 2.0860
 2.5100	 2.0430
 2.5110	 2.0560
 2.5120	 2.1100
 2.5140	 2.1300
 2.5150	 2.0820
 2.5160	 2.0900
 2.5170	 2.1470
 2.5180	 2.1800
 2.5200	 2.1060
 2.5210	 2.0810
 2.5220	 2.0540
 2.5230	 2.0590
 2.5250	 2.0170
 2.5260	 2.0090
 2.5270	 2.0440
 2.5280	 2.1520
 2.5300	 2.1230
 2.5310	 2.1050
 2.5320	 2.0750
 2.5330	 2.0950
 2.5340	 2.1450
 2.5360	 2.1560
 2.5370	 2.0470
 2.5380	 2.0860
 2.5390	 2.1630
 2.5410	 2.1680
 2.5420	 2.0960
 2.5430	 2.1560
 2.5440	 2.1870
 2.5460	 2.1800
 2.5470	 2.1000
 2.5480	 2.1870
 2.5490	 2.1370
 2.5510	 2.0970
 2.5520	 2.1220
 2.5530	 2.1810
 2.5540	 2.1360
 2.5560	 2.1270
 2.5570	 2.1410
 2.5580	 2.1400
 2.5590	 2.0610
 2.5610	 2.0940
 2.5620	 2.1250
 2.5630	 2.1490
 2.5650	 2.1370
 2.5660	 2.1650
 2.5670	 2.0850
 2.5680	 2.1200
 2.5700	 2.1320
 2.5710	 2.1490
 2.5720	 2.1610
 2.5730	 2.1640
 2.5750	 2.0450
 2.5760	 2.0380
 2.5770	 2.1370
 2.5790	 2.1720
 2.5800	 2.1190
 2.5810	 2.1270
 2.5820	 2.1510
 2.5840	 2.1960
 2.5850	 2.1630
 2.5860	 2.2320
 2.5880	 2.2240
 2.5890	 2.1690
 2.5900	 2.1190
 2.5910	 2.1360
 2.5930	 2.1300
 2.5940	 2.1720
 2.5950	 2.1800
 2.5970	 2.1870
 2.5980	 2.1600
 2.5990	 2.1480
 2.6010	 2.1430
 2.6020	 2.1950
 2.6030	 2.2240
 2.6040	 2.2450
 2.6060	 2.2430
 2.6070	 2.2570
 2.6080	 2.2220
 2.6100	 2.1990
 2.6110	 2.1800
 2.6120	 2.1850
 2.6140	 2.1440
 2.6150	 2.1620
 2.6160	 2.1780
 2.6180	 2.2450
 2.6190	 2.1600
 2.6200	 2.1440
 2.6220	 2.1770
 2.6230	 2.2050
 2.6240	 2.1480
 2.6260	 2.1250
 2.6270	 2.1200
 2.6280	 2.1790
 2.6300	 2.1790
 2.6310	 2.1930
 2.6320	 2.1320
 2.6340	 2.1220
 2.6350	 2.0950
 2.6360	 2.1160
 2.6380	 2.0830
 2.6390	 2.1160
 2.6400	 2.1350
 2.6420	 2.1490
 2.6430	 2.1030
 2.6440	 2.1580
 2.6460	 2.1600
 2.6470	 2.1300
 2.6480	 2.1360
 2.6500	 2.1410
 2.6510	 2.1120
 2.6520	 2.1500
 2.6540	 2.1610
 2.6550	 2.2050
 2.6570	 2.2210
 2.6580	 2.1790
 2.6590	 2.1120
 2.6610	 2.1680
 2.6620	 2.1220
 2.6630	 2.1050
 2.6650	 2.1330
 2.6660	 2.1820
 2.6670	 2.2230
 2.6690	 2.2510
 2.6700	 2.2290
 2.6720	 2.1760
 2.6730	 2.1140
 2.6740	 2.1790
 2.6760	 2.2040
 2.6770	 2.2030
 2.6780	 2.1700
 2.6800	 2.1900
 2.6810	 2.2040
 2.6830	 2.2610
 2.6840	 2.2250
 2.6850	 2.2100
 2.6870	 2.1560
 2.6880	 2.1840
 2.6900	 2.1540
 2.6910	 2.1410
 2.6920	 2.1400
 2.6940	 2.1570
 2.6950	 2.1310
 2.6970	 2.1800
 2.6980	 2.2400
 2.6990	 2.2490
 2.7010	 2.1920
 2.7020	 2.2100
 2.7040	 2.1940
 2.7050	 2.1620
 2.7060	 2.1440
 2.7080	 2.2090
 2.7090	 2.2310
 2.7110	 2.2640
 2.7120	 2.2200
 2.7130	 2.1950
 2.7150	 2.1480
 2.7160	 2.2010
 2.7180	 2.2590
 2.7190	 2.2960
 2.7210	 2.2490
 2.7220	 2.2280
 2.7230	 2.2470
 2.7250	 2.3370
 2.7260	 2.3110
 2.7280	 2.2590
 2.7290	 2.2240
 2.7310	 2.2580
 2.7320	 2.1980
 2.7340	 2.2470
 2.7350	 2.3010
 2.7360	 2.3370
 2.7380	 2.3030
 2.7390	 2.3210
 2.7410	 2.3130
 2.7420	 2.4000
 2.7440	 2.3540
 2.7450	 2.3360
 2.7470	 2.3190
 2.7480	 2.2930
 2.7490	 2.2850
 2.7510	 2.3670
 2.7520	 2.3970
 2.7540	 2.3690
 2.7550	 2.3280
 2.7570	 2.3360
 2.7580	 2.2950
 2.7600	 2.3360
 2.7610	 2.3750
 2.7630	 2.4460
 2.7640	 2.4210
 2.7660	 2.4180
 2.7670	 2.4000
 2.7690	 2.4380
 2.7700	 2.4400
 2.7720	 2.4630
 2.7730	 2.4260
 2.7740	 2.4220
 2.7760	 2.4160
 2.7770	 2.5020
 2.7790	 2.5250
 2.7800	 2.5110
 2.7820	 2.4680
 2.7830	 2.4090
 2.7850	 2.4170
 2.7860	 2.5320
 2.7880	 2.4970
 2.7890	 2.4710
 2.7910	 2.4400
 2.7920	 2.4510
 2.7940	 2.4140
 2.7950	 2.4650
 2.7970	 2.4680
 2.7980	 2.5220
 2.8000	 2.5340
 2.8010	 2.5690
 2.8030	 2.5870
 2.8040	 2.5910
 2.8060	 2.5690
 2.8080	 2.5840
 2.8090	 2.5700
 2.8110	 2.6080
 2.8120	 2.5880
 2.8140	 2.6060
 2.8150	 2.5960
 2.8170	 2.6250
 2.8180	 2.6090
 2.8200	 2.5860
 2.8210	 2.5670
 2.8230	 2.6210
 2.8240	 2.6210
 2.8260	 2.6050
 2.8270	 2.5550
 2.8290	 2.5910
 2.8310	 2.5880
 2.8320	 2.6600
 2.8340	 2.6710
 2.8350	 2.6510
 2.8370	 2.5970
 2.8380	 2.6090
 2.8400	 2.6120
 2.8410	 2.6120
 2.8430	 2.5740
 2.8440	 2.6740
 2.8460	 2.7060
 2.8480	 2.6810
 2.8490	 2.6580
 2.8510	 2.6740
 2.8520	 2.6910
 2.8540	 2.7820
 2.8550	 2.7660
 2.8570	 2.7660
 2.8590	 2.7460
 2.8600	 2.7600
 2.8620	 2.7350
 2.8630	 2.7350
 2.8650	 2.7330
 2.8660	 2.7950
 2.8680	 2.7430
 2.8700	 2.7890
 2.8710	 2.7960
 2.8730	 2.7700
 2.8740	 2.7600
 2.8760	 2.8280
 2.8780	 2.7920
 2.8790	 2.7640
 2.8810	 2.7680
 2.8820	 2.7540
 2.8840	 2.7230
 2.8860	 2.7720
 2.8870	 2.7720
 2.8890	 2.7730
 2.8900	 2.7470
 2.8920	 2.7790
 2.8940	 2.7960
 2.8950	 2.8210
 2.8970	 2.7770
 2.8990	 2.8040
 2.9000	 2.7860
 2.9020	 2.7760
 2.9030	 2.7120
 2.9050	 2.7060
 2.9070	 2.7360
 2.9080	 2.7940
 2.9100	 2.7690
 2.9120	 2.7910
 2.9130	 2.7330
 2.9150	 2.7650
 2.9160	 2.7970
 2.9180	 2.8170
 2.9200	 2.8000
 2.9210	 2.8360
 2.9230	 2.8410
 2.9250	 2.8500
 2.9260	 2.7870
 2.9280	 2.7820
 2.9300	 2.7470
 2.9310	 2.7600
 2.9330	 2.7160
 2.9350	 2.7490
 2.9360	 2.7330
 2.9380	 2.7410
 2.9400	 2.7360
 2.9410	 2.7690
 2.9430	 2.7220
 2.9450	 2.7380
 2.9460	 2.7180
 2.9480	 2.7480
 2.9500	 2.7100
 2.9510	 2.7000
 2.9530	 2.7290
 2.9550	 2.7570
 2.9560	 2.6990
 2.9580	 2.6820
 2.9600	 2.6230
 2.9610	 2.6660
 2.9630	 2.6710
 2.9650	 2.6510
 2.9670	 2.6020
 2.9680	 2.5990
 2.9700	 2.5810
 2.9720	 2.6400
 2.9730	 2.6890
 2.9750	 2.7060
 2.9770	 2.6310
 2.9780	 2.6250
 2.9800	 2.6000
 2.9820	 2.6040
 2.9840	 2.5700
 2.9850	 2.5890
 2.9870	 2.5600
 2.9890	 2.6120
 2.9900	 2.6100
 2.9920	 2.6030
 2.9940	 2.5670
 2.9960	 2.5520
 2.9970	 2.5640
 2.9990	 2.5540
 3.0010	 2.4640
 3.0030	 2.5110
 3.0040	 2.5240
 3.0060	 2.4950
 3.0080	 2.4370
 3.0100	 2.4420
 3.0110	 2.4450
 3.0130	 2.5320
 3.0150	 2.5320
 3.0170	 2.5320
 3.0180	 2.4750
 3.0200	 2.4790
 3.0220	 2.4570
 3.0240	 2.4270
 3.0250	 2.4470
 3.0270	 2.4930
 3.0290	 2.4430
 3.0310	 2.4290
 3.0320	 2.4310
 3.0340	 2.4630
 3.0360	 2.4430
 3.0380	 2.4560
 3.0400	 2.4240
 3.0410	 2.4280
 3.0430	 2.4040
 3.0450	 2.3820
 3.0470	 2.3250
 3.0480	 2.3550
 3.0500	 2.3320
 3.0520	 2.3430
 3.0540	 2.4060
 3.0560	 2.4450
 3.0570	 2.3340
 3.0590	 2.3240
 3.0610	 2.3060
 3.0630	 2.3250
 3.0650	 2.3380
 3.0670	 2.3200
 3.0680	 2.2670
 3.0700	 2.2670
 3.0720	 2.2740
 3.0740	 2.2930
 3.0760	 2.2920
 3.0770	 2.3000
 3.0790	 2.2950
 3.0810	 2.3070
 3.0830	 2.2830
 3.0850	 2.2830
 3.0870	 2.2600
 3.0880	 2.2450
 3.0900	 2.2150
 3.0920	 2.2860
 3.0940	 2.2810
 3.0960	 2.2610
 3.0980	 2.2320
 3.1000	 2.2590
 3.1010	 2.2570
 3.1030	 2.2510
 3.1050	 2.1730
 3.1070	 2.1600
 3.1090	 2.2260
 3.1110	 2.2510
 3.1130	 2.1720
 3.1140	 2.1510
 3.1160	 2.0750
 3.1180	 2.0770
 3.1200	 2.0980
 3.1220	 2.1410
 3.1240	 2.1230
 3.1260	 2.1320
 3.1280	 2.1100
 3.1290	 2.1290
 3.1310	 2.1110
 3.1330	 2.1440
 3.1350	 2.1510
 3.1370	 2.1620
 3.1390	 2.1010
 3.1410	 2.0660
 3.1430	 2.0670
 3.1450	 2.1270
 3.1470	 2.1170
 3.1480	 2.1320
 3.1500	 2.0830
 3.1520	 2.0460
 3.1540	 2.0450
 3.1560	 2.0520
 3.1580	 1.9980
 3.1600	 2.0100
 3.1620	 2.0010
 3.1640	 2.0190
 3.1660	 1.9740
 3.1680	 1.9570
 3.1700	 1.9350
 3.1720	 1.9740
 3.1730	 1.9770
 3.1750	 1.9830
 3.1770	 1.9540
 3.1790	 1.9700
 3.1810	 1.9500
 3.1830	 1.9750
 3.1850	 1.9120
 3.1870	 1.9410
 3.1890	 1.9770
 3.1910	 1.9830
 3.1930	 1.9610
 3.1950	 1.9830
 3.1970	 1.9550
 3.1990	 1.9020
 3.2010	 1.8420
 3.2030	 1.8900
 3.2050	 1.9270
 3.2070	 1.9550
 3.2090	 1.9350
 3.2110	 1.9430
 3.2130	 1.9020
 3.2150	 1.8820
 3.2170	 1.8700
 3.2190	 1.8850
 3.2210	 1.8840
 3.2230	 1.9260
 3.2250	 1.8680
 3.2270	 1.8600
 3.2290	 1.8830
 3.2310	 1.8770
 3.2330	 1.7940
 3.2350	 1.8060
 3.2370	 1.7910
 3.2390	 1.7750
 3.2410	 1.7530
 3.2430	 1.8100
 3.2450	 1.8270
 3.2470	 1.8360
 3.2490	 1.8300
 3.2510	 1.8350
 3.2530	 1.8220
 3.2550	 1.8510
 3.2570	 1.7980
 3.2590	 1.8030
 3.2610	 1.7790
 3.2630	 1.7830
 3.2650	 1.7730
 3.2670	 1.7870
 3.2700	 1.8060
 3.2720	 1.7850
 3.2740	 1.7490
 3.2760	 1.7740
 3.2780	 1.7550
 3.2800	 1.7810
 3.2820	 1.7980
 3.2840	 1.7980
 3.2860	 1.7590
 3.2880	 1.7990
 3.2900	 1.7940
 3.2920	 1.7550
 3.2940	 1.7360
 3.2970	 1.7610
 3.2990	 1.7490
 3.3010	 1.8010
 3.3030	 1.7940
 3.3050	 1.7640
 3.3070	 1.7160
 3.3090	 1.7240
 3.3110	 1.7120
 3.3130	 1.7040
 3.3160	 1.6840
 3.3180	 1.7160
 3.3200	 1.7260
 3.3220	 1.7460
 3.3240	 1.7100
 3.3260	 1.6890
 3.3280	 1.6820
 3.3300	 1.6800
 3.3330	 1.6740
 3.3350	 1.6940
 3.3370	 1.6820
 3.3390	 1.6920
 3.3410	 1.6460
 3.3430	 1.6330
 3.3450	 1.6090
 3.3480	 1.5920
 3.3500	 1.5920
 3.3520	 1.6170
 3.3540	 1.5630
 3.3560	 1.5560
 3.3580	 1.5670
 3.3610	 1.6040
 3.3630	 1.5710
 3.3650	 1.5600
 3.3670	 1.4860
 3.3690	 1.4750
 3.3720	 1.5330
 3.3740	 1.5840
 3.3760	 1.5630
 3.3780	 1.5820
 3.3800	 1.5750
 3.3830	 1.5670
 3.3850	 1.5520
 3.3870	 1.5460
 3.3890	 1.5220
 3.3910	 1.4830
 3.3940	 1.4240
 3.3960	 1.4020
 3.3980	 1.3770
 3.4000	 1.3980
 3.4030	 1.4090
 3.4050	 1.4770
 3.4070	 1.5400
 3.4090	 1.6510
 3.4110	 1.7970
 3.4140	 1.9620
 3.4160	 2.1480
 3.4180	 2.4520
 3.4200	 2.8460
 3.4230	 3.3460
 3.4250	 3.8180
 3.4270	 4.2480
 3.4300	 4.3610
 3.4320	 4.0660
 3.4340	 3.5780
 3.4360	 3.2740
 3.4390	 3.0290
 3.4410	 2.8250
 3.4430	 2.6630
 3.4450	 2.6160
 3.4480	 2.5980
 3.4500	 2.6170
 3.4520	 2.5660
 3.4550	 2.5040
 3.4570	 2.4610
 3.4590	 2.4690
 3.4620	 2.4190
 3.4640	 2.4040
 3.4660	 2.3570
 3.4690	 2.3360
 3.4710	 2.2860
 3.4730	 2.2550
 3.4760	 2.2060
 3.4780	 2.1930
 3.4800	 2.1520
 3.4830	 2.1020
 3.4850	 2.0130
 3.4870	 1.9870
 3.4900	 1.9770
 3.4920	 1.9100
 3.4940	 1.8530
 3.4970	 1.9470
 3.4990	 1.9970
 3.5010	 2.1010
 3.5040	 2.2860
 3.5060	 2.7620
 3.5080	 3.4870
 3.5110	 4.0360
 3.5130	 3.9540
 3.5160	 3.5250
 3.5180	 3.1050
 3.5200	 2.9010
 3.5230	 2.7670
 3.5250	 2.7050
 3.5280	 2.6740
 3.5300	 2.6480
 3.5320	 2.6040
 3.5350	 2.5790
 3.5370	 2.5110
 3.5400	 2.4990
 3.5420	 2.4460
 3.5440	 2.4050
 3.5470	 2.4200
 3.5490	 2.4440
 3.5520	 2.3940
 3.5540	 2.3760
 3.5570	 2.3350
 3.5590	 2.3310
 3.5610	 2.2960
 3.5640	 2.2970
 3.5660	 2.3460
 3.5690	 2.3720
 3.5710	 2.3690
 3.5740	 2.3440
 3.5760	 2.2970
 3.5790	 2.3210
 3.5810	 2.3030
 3.5840	 2.2860
 3.5860	 2.2810
 3.5890	 2.3260
 3.5910	 2.3360
 3.5940	 2.3370
 3.5960	 2.3050
 3.5990	 2.2800
 3.6010	 2.2620
 3.6040	 2.3020
 3.6060	 2.3300
 3.6090	 2.3370
 3.6110	 2.3190
 3.6140	 2.3030
 3.6160	 2.2700
 3.6190	 2.2520
 3.6210	 2.2310
 3.6240	 2.2570
 3.6260	 2.2410
 3.6290	 2.2740
 3.6310	 2.2820
 3.6340	 2.2520
 3.6360	 2.2090
 3.6390	 2.2400
 3.6410	 2.2660
 3.6440	 2.2540
 3.6470	 2.2100
 3.6490	 2.2250
 3.6520	 2.2370
 3.6540	 2.2090
 3.6570	 2.1590
 3.6590	 2.2030
 3.6620	 2.2520
 3.6650	 2.3080
 3.6670	 2.2890
 3.6700	 2.2670
 3.6720	 2.2210
 3.6750	 2.2370
 3.6780	 2.2700
 3.6800	 2.2510
 3.6830	 2.1870
 3.6850	 2.2090
 3.6880	 2.2250
 3.6910	 2.2530
 3.6930	 2.2560
 3.6960	 2.2850
 3.6990	 2.2810
 3.7010	 2.2740
 3.7040	 2.2750
 3.7070	 2.2780
 3.7090	 2.2400
 3.7120	 2.2440
 3.7150	 2.2730
 3.7170	 2.2970
 3.7200	 2.2610
 3.7230	 2.2800
 3.7250	 2.3120
 3.7280	 2.3000
 3.7310	 2.2500
 3.7330	 2.2370
 3.7360	 2.2570
 3.7390	 2.2930
 3.7410	 2.2760
 3.7440	 2.2710
 3.7470	 2.2480
 3.7490	 2.2470
 3.7520	 2.2460
 3.7550	 2.2610
 3.7580	 2.2680
 3.7600	 2.2870
 3.7630	 2.2740
 3.7660	 2.2840
 3.7690	 2.2700
 3.7710	 2.2470
 3.7740	 2.2520
 3.7770	 2.2810
 3.7790	 2.2560
 3.7820	 2.2880
 3.7850	 2.3110
 3.7880	 2.3030
 3.7910	 2.2770
 3.7930	 2.2930
 3.7960	 2.3020
 3.7990	 2.2970
 3.8020	 2.2770
 3.8040	 2.2720
 3.8070	 2.2800
 3.8100	 2.3030
 3.8130	 2.2950
 3.8160	 2.3470
 3.8180	 2.3560
 3.8210	 2.3160
 3.8240	 2.2740
 3.8270	 2.2840
 3.8300	 2.2650
 3.8330	 2.2690
 3.8350	 2.2910
 3.8380	 2.3080
 3.8410	 2.2930
 3.8440	 2.3190
 3.8470	 2.3330
 3.8500	 2.2960
 3.8520	 2.2470
 3.8550	 2.2880
 3.8580	 2.3020
 3.8610	 2.3060
 3.8640	 2.3040
 3.8670	 2.3180
 3.8700	 2.3290
 3.8730	 2.3310
 3.8760	 2.2930
 3.8780	 2.2430
 3.8810	 2.2550
 3.8840	 2.3070
 3.8870	 2.2810
 3.8900	 2.2590
 3.8930	 2.2560
 3.8960	 2.2890
 3.8990	 2.2950
 3.9020	 2.3090
 3.9050	 2.2900
 3.9080	 2.2540
 3.9110	 2.2470
 3.9140	 2.2810
 3.9170	 2.2740
 3.9190	 2.2740
 3.9220	 2.2900
 3.9250	 2.2990
 3.9280	 2.2780
 3.9310	 2.2900
 3.9340	 2.2920
 3.9370	 2.2620
 3.9400	 2.2180
 3.9430	 2.2350
 3.9460	 2.2650
 3.9490	 2.3030
 3.9520	 2.2730
 3.9550	 2.2710
 3.9580	 2.2710
 3.9610	 2.2700
 3.9640	 2.2250
 3.9670	 2.2490
 3.9700	 2.2660
 3.9740	 2.2600
 3.9770	 2.2670
 3.9800	 2.3040
 3.9830	 2.2840
 3.9860	 2.2960
 3.9890	 2.2930
 3.9920	 2.2750
 3.9950	 2.3020
 3.9980	 2.3040
 4.0010	 2.2320
 4.0040	 2.2280
 4.0070	 2.2240
 4.0100	 2.2780
 4.0140	 2.2990
 4.0170	 2.2460
 4.0200	 2.2410
 4.0230	 2.2560
 4.0260	 2.2650
 4.0290	 2.2890
 4.0320	 2.2730
 4.0350	 2.2290
 4.0390	 2.2120
 4.0420	 2.2330
 4.0450	 2.2360
 4.0480	 2.2450
 4.0510	 2.2280
 4.0540	 2.2450
 4.0570	 2.2570
 4.0610	 2.2870
 4.0640	 2.2810
 4.0670	 2.2590
 4.0700	 2.2580
 4.0730	 2.2490
 4.0770	 2.2310
 4.0800	 2.2720
 4.0830	 2.2700
 4.0860	 2.2580
 4.0890	 2.2580
 4.0930	 2.2680
 4.0960	 2.2880
 4.0990	 2.3020
 4.1020	 2.2550
 4.1060	 2.2250
 4.1090	 2.2430
 4.1120	 2.2370
 4.1150	 2.2270
 4.1190	 2.2640
 4.1220	 2.2610
 4.1250	 2.2570
 4.1290	 2.2470
 4.1320	 2.2510
 4.1350	 2.2110
 4.1380	 2.1940
 4.1420	 2.2030
 4.1450	 2.2460
 4.1480	 2.2740
 4.1520	 2.2550
 4.1550	 2.2480
 4.1580	 2.2560
 4.1620	 2.2340
 4.1650	 2.2190
 4.1680	 2.2520
 4.1720	 2.2530
 4.1750	 2.2100
 4.1780	 2.2090
 4.1820	 2.2200
 4.1850	 2.2440
 4.1890	 2.2450
 4.1920	 2.2460
 4.1950	 2.2550
 4.1990	 2.2860
 4.2020	 2.3190
 4.2060	 2.3320
 4.2090	 2.3400
 4.2120	 2.4120
 4.2160	 2.4520
 4.2190	 2.4220
 4.2230	 2.4280
 4.2260	 2.5030
 4.2300	 2.5780
 4.2330	 2.5750
 4.2360	 2.4810
 4.2400	 2.5250
 4.2430	 2.5420
 4.2470	 2.5520
 4.2500	 2.4850
 4.2540	 2.3810
 4.2570	 2.3250
 4.2610	 2.4330
 4.2640	 2.4920
 4.2680	 2.4660
 4.2710	 2.4030
 4.2750	 2.3750
 4.2780	 2.3990
 4.2820	 2.4060
 4.2850	 2.3970
 4.2890	 2.3820
 4.2930	 2.4130
 4.2960	 2.4210
 4.3000	 2.4040
 4.3030	 2.3810
 4.3070	 2.3470
 4.3100	 2.3510
 4.3140	 2.3810
 4.3180	 2.3830
 4.3210	 2.3420
 4.3250	 2.2990
 4.3280	 2.2720
 4.3320	 2.2790
 4.3360	 2.2670
 4.3390	 2.2630
 4.3430	 2.2590
 4.3470	 2.2570
 4.3500	 2.2380
 4.3540	 2.2520
 4.3580	 2.2780
 4.3610	 2.2440
 4.3650	 2.2380
 4.3690	 2.2740
 4.3720	 2.2540
 4.3760	 2.2230
 4.3800	 2.2360
 4.3830	 2.2460
 4.3870	 2.2230
 4.3910	 2.2360
 4.3940	 2.2430
 4.3980	 2.2170
 4.4020	 2.2220
 4.4060	 2.2250
 4.4090	 2.2140
 4.4130	 2.2130
 4.4170	 2.2210
 4.4210	 2.2000
 4.4240	 2.1870
 4.4280	 2.2470
 4.4320	 2.2510
 4.4360	 2.1970
 4.4400	 2.1860
 4.4430	 2.2020
 4.4470	 2.2390
 4.4510	 2.2520
 4.4550	 2.2300
 4.4590	 2.2340
 4.4630	 2.2030
 4.4660	 2.1980
 4.4700	 2.1970
 4.4740	 2.2010
 4.4780	 2.2120
 4.4820	 2.2250
 4.4860	 2.2280
 4.4900	 2.2160
 4.4930	 2.1920
 4.4970	 2.1780
 4.5010	 2.1820
 4.5050	 2.1850
 4.5090	 2.1850
 4.5130	 2.2240
 4.5170	 2.2120
 4.5210	 2.1900
 4.5250	 2.1840
 4.5290	 2.2110
 4.5330	 2.2310
 4.5370	 2.2390
 4.5410	 2.2640
 4.5450	 2.2610
 4.5490	 2.2250
 4.5530	 2.1870
 4.5570	 2.1620
 4.5610	 2.1800
 4.5650	 2.1980
 4.5690	 2.2030
 4.5730	 2.1830
 4.5770	 2.1780
 4.5810	 2.1900
 4.5850	 2.2050
 4.5890	 2.2070
 4.5930	 2.2070
 4.5970	 2.2150
 4.6010	 2.2250
 4.6050	 2.1980
 4.6090	 2.1860
 4.6130	 2.2040
 4.6170	 2.1870
 4.6220	 2.1710
 4.6260	 2.1680
 4.6300	 2.1660
 4.6340	 2.1560
 4.6380	 2.1640
 4.6420	 2.1780
 4.6460	 2.1680
 4.6510	 2.1660
 4.6550	 2.1760
 4.6590	 2.1860
 4.6630	 2.2080
 4.6670	 2.2170
 4.6720	 2.1850
 4.6760	 2.1560
 4.6800	 2.1510
 4.6840	 2.1500
 4.6880	 2.1340
 4.6930	 2.1320
 4.6970	 2.1360
 4.7010	 2.1510
 4.7050	 2.1760
 4.7100	 2.1790
 4.7140	 2.1440
 4.7180	 2.1210
 4.7230	 2.1470
 4.7270	 2.1920
 4.7310	 2.2120
 4.7360	 2.1740
 4.7400	 2.1570
 4.7440	 2.1730
 4.7490	 2.2100
 4.7530	 2.2010
 4.7570	 2.1990
 4.7620	 2.1720
 4.7660	 2.1370
 4.7700	 2.1370
 4.7750	 2.1560
 4.7790	 2.1640
 4.7840	 2.1610
 4.7880	 2.1610
 4.7920	 2.1840
 4.7970	 2.1870
 4.8010	 2.1740
 4.8060	 2.1580
 4.8100	 2.1540
 4.8150	 2.1360
 4.8190	 2.1540
 4.8240	 2.1580
 4.8280	 2.1540
 4.8330	 2.1360
 4.8370	 2.1390
 4.8420	 2.1550
 4.8460	 2.1830
 4.8510	 2.1690
 4.8550	 2.1370
 4.8600	 2.1430
 4.8640	 2.2070
 4.8690	 2.2010
 4.8740	 2.1570
 4.8780	 2.1430
 4.8830	 2.1420
 4.8870	 2.1410
 4.8920	 2.1480
 4.8970	 2.1640
 4.9010	 2.1800
 4.9060	 2.1760
 4.9100	 2.1550
 4.9150	 2.1580
 4.9200	 2.1690
 4.9240	 2.1710
 4.9290	 2.1920
 4.9340	 2.1890
 4.9390	 2.1660
 4.9430	 2.1310
 4.9480	 2.1530
 4.9530	 2.1940
 4.9570	 2.1990
 4.9620	 2.1780
 4.9670	 2.1430
 4.9720	 2.1530
 4.9760	 2.1950
 4.9810	 2.1940
 4.9860	 2.1740
 4.9910	 2.1410
 4.9960	 2.1300
 5.0000	 2.1320
 5.0050	 2.1610
 5.0100	 2.1460
 5.0150	 2.1570
 5.0200	 2.1550
 5.0250	 2.1640
 5.0300	 2.1690
 5.0340	 2.1770
 5.0390	 2.1590
 5.0440	 2.1700
 5.0490	 2.1720
 5.0540	 2.1860
 5.0590	 2.2070
 5.0640	 2.1910
 5.0690	 2.1760
 5.0740	 2.1750
 5.0790	 2.1560
 5.0840	 2.1770
 5.0890	 2.1860
 5.0940	 2.1530
 5.0990	 2.1480
 5.1040	 2.1660
 5.1090	 2.1720
 5.1140	 2.2130
 5.1190	 2.1870
 5.1240	 2.1830
 5.1290	 2.1990
 5.1340	 2.1770
 5.1390	 2.1470
 5.1440	 2.1510
 5.1490	 2.1540
 5.1550	 2.1980
 5.1600	 2.2200
 5.1650	 2.2150
 5.1700	 2.1700
 5.1750	 2.1480
 5.1800	 2.1570
 5.1850	 2.1730
 5.1910	 2.1630
 5.1960	 2.1810
 5.2010	 2.1700
 5.2060	 2.1620
 5.2110	 2.1650
 5.2170	 2.1910
 5.2220	 2.1660
 5.2270	 2.1410
 5.2330	 2.1600
 5.2380	 2.2050
 5.2430	 2.1640
 5.2480	 2.1360
 5.2540	 2.1920
 5.2590	 2.2220
 5.2640	 2.2090
 5.2700	 2.1850
 5.2750	 2.1530
 5.2800	 2.1800
 5.2860	 2.1770
 5.2910	 2.1890
 5.2970	 2.1820
 5.3020	 2.1820
 5.3080	 2.1600
 5.3130	 2.1960
 5.3180	 2.1810
 5.3240	 2.1760
 5.3290	 2.2110
 5.3350	 2.1900
 5.3400	 2.1360
 5.3460	 2.1540
 5.3510	 2.1830
 5.3570	 2.2230
 5.3620	 2.2100
 5.3680	 2.1880
 5.3740	 2.1540
 5.3790	 2.1520
 5.3850	 2.1640
 5.3900	 2.1860
 5.3960	 2.1320
 5.4010	 2.1390
 5.4070	 2.1700
 5.4130	 2.1920
 5.4180	 2.1680
 5.4240	 2.1620
 5.4300	 2.1580
 5.4350	 2.1700
 5.4410	 2.1570
 5.4470	 2.1400
 5.4530	 2.1370
 5.4580	 2.1650
 5.4640	 2.1540
 5.4700	 2.1540
 5.4760	 2.1450
 5.4810	 2.1530
 5.4870	 2.1350
 5.4930	 2.1200
 5.4990	 2.1170
 5.5050	 2.1450
 5.5110	 2.1230
 5.5160	 2.1210
 5.5220	 2.0880
 5.5280	 2.0950
 5.5340	 2.1290
 5.5400	 2.1630
 5.5460	 2.0980
 5.5520	 2.0630
 5.5580	 2.0520
 5.5640	 2.0650
 5.5700	 2.1010
 5.5760	 2.1230
 5.5820	 2.0860
 5.5880	 2.0720
 5.5940	 2.0450
 5.6000	 2.0660
 5.6060	 2.0410
 5.6120	 2.0350
 5.6180	 2.0350
 5.6240	 2.0360
 5.6300	 2.0150
 5.6360	 2.0540
 5.6420	 2.0410
 5.6490	 2.0110
 5.6550	 1.9700
 5.6610	 1.9520
 5.6670	 1.9520
 5.6730	 1.9710
 5.6800	 1.8890
 5.6860	 1.8990
 5.6920	 1.8960
 5.6980	 1.8630
 5.7050	 1.8100
 5.7110	 1.7780
 5.7170	 1.7090
 5.7230	 1.6560
 5.7300	 1.5870
 5.7360	 1.5410
 5.7420	 1.5340
 5.7490	 1.6610
 5.7550	 1.7530
 5.7620	 1.8880
 5.7680	 2.0660
 5.7740	 2.2000
 5.7810	 2.2830
 5.7870	 2.3850
 5.7940	 2.4270
 5.8000	 2.4680
 5.8070	 2.4760
 5.8130	 2.5220
 5.8200	 2.5540
 5.8260	 2.5620
 5.8330	 2.5130
 5.8390	 2.4930
 5.8460	 2.4830
 5.8530	 2.5380
 5.8590	 2.5690
 5.8660	 2.5660
 5.8730	 2.5410
 5.8790	 2.5810
 5.8860	 2.5310
 5.8930	 2.5380
 5.8990	 2.5240
 5.9060	 2.4960
 5.9130	 2.4420
 5.9190	 2.4230
 5.9260	 2.3990
 5.9330	 2.4650
 5.9400	 2.4220
 5.9470	 2.3450
 5.9530	 2.2690
 5.9600	 2.2690
 5.9670	 2.2830
 5.9740	 2.2700
 5.9810	 2.2110
 5.9880	 2.2350
 5.9950	 2.2170
 6.0020	 2.2510
 6.0090	 2.2360
 6.0160	 2.2230
 6.0230	 2.1440
 6.0300	 2.1080
 6.0370	 2.0910
 6.0440	 2.1510
 6.0510	 2.1400
 6.0580	 2.0830
 6.0650	 2.0090
 6.0720	 2.0530
 6.0790	 2.0300
 6.0860	 2.0200
 6.0930	 1.9850
 6.1010	 2.0050
 6.1080	 2.0180
 6.1150	 2.0310
 6.1220	 2.0390
 6.1290	 2.0860
 6.1370	 2.0390
 6.1440	 2.0150
 6.1510	 1.9720
 6.1580	 1.9760
 6.1660	 1.9190
 6.1730	 1.9510
 6.1800	 2.0140
 6.1880	 2.0670
 6.1950	 1.9970
 6.2030	 2.0020
 6.2100	 2.0030
 6.2180	 2.0450
 6.2250	 2.0090
 6.2320	 1.9820
 6.2400	 1.9600
 6.2480	 1.9910
 6.2550	 2.0040
 6.2630	 2.0570
 6.2700	 2.0490
 6.2780	 2.0760
 6.2850	 2.0230
 6.2930	 2.0160
 6.3010	 1.9630
 6.3080	 2.0280
 6.3160	 2.0410
 6.3240	 2.0320
 6.3310	 2.0370
 6.3390	 2.0850
 6.3470	 2.0460
 6.3550	 2.0430
 6.3620	 2.0120
 6.3700	 2.0410
 6.3780	 2.0240
 6.3860	 2.0830
 6.3940	 2.0590
 6.4020	 2.0640
 6.4100	 2.0520
 6.4180	 2.0720
 6.4260	 2.0360
 6.4340	 2.0380
 6.4420	 2.0190
 6.4500	 2.0230
 6.4580	 1.9840
 6.4660	 2.0240
 6.4740	 1.9820
 6.4820	 2.0030
 6.4900	 2.0680
 6.4980	 2.1140
 6.5060	 2.0210
 6.5140	 2.0150
 6.5230	 2.0100
 6.5310	 2.0170
 6.5390	 1.9850
 6.5470	 1.9990
 6.5560	 1.9670
 6.5640	 1.9920
 6.5720	 1.9980
 6.5800	 1.9980
 6.5890	 1.9360
 6.5970	 1.9320
 6.6060	 1.9240
 6.6140	 1.9630
 6.6230	 1.9380
 6.6310	 1.9840
 6.6390	 1.9600
 6.6480	 1.9530
 6.6570	 1.9120
 6.6650	 1.9280
 6.6740	 1.9170
 6.6820	 1.9810
 6.6910	 1.9450
 6.7000	 1.9100
 6.7080	 1.8880
 6.7170	 1.9310
 6.7260	 1.8970
 6.7340	 1.8750
 6.7430	 1.8040
 6.7520	 1.8440
 6.7610	 1.8430
 6.7690	 1.8570
 6.7780	 1.9170
 6.7870	 2.0730
 6.7960	 2.0310
 6.8050	 1.9560
 6.8140	 1.9260
 6.8230	 2.0410
 6.8320	 2.1510
 6.8410	 2.2640
 6.8500	 2.1940
 6.8590	 2.1470
 6.8680	 2.1040
 6.8770	 2.1570
 6.8860	 2.1560
 6.8960	 2.1570
 6.9050	 2.0880
 6.9140	 2.0980
 6.9230	 2.0750
 6.9320	 2.0840
 6.9420	 2.0670
 6.9510	 2.0870
 6.9600	 2.0430
 6.9700	 2.0610
 6.9790	 2.0730
 6.9880	 2.0990
 6.9980	 2.0450
 7.0070	 2.0720
 7.0170	 2.0690
 7.0260	 2.0850
 7.0360	 2.0090
 7.0450	 1.9960
 7.0550	 1.9690
 7.0650	 2.0180
 7.0740	 2.0080
 7.0840	 2.0310
 7.0940	 2.0350
 7.1030	 2.0630
 7.1130	 2.0160
 7.1230	 2.0490
 7.1330	 1.9910
 7.1420	 2.0290
 7.1520	 1.9930
 7.1620	 2.0230
 7.1720	 1.9900
 7.1820	 1.9920
 7.1920	 1.9810
 7.2020	 2.0310
 7.2120	 1.9730
 7.2220	 1.9950
 7.2320	 1.9690
 7.2420	 2.0110
 7.2520	 2.0200
 7.2620	 2.0400
 7.2730	 1.9780
 7.2830	 1.9840
 7.2930	 1.9390
 7.3030	 1.9680
 7.3140	 1.9260
 7.3240	 1.9460
 7.3340	 1.9430
 7.3450	 1.9800
 7.3550	 1.8840
 7.3660	 1.9090
 7.3760	 1.9170
 7.3870	 1.9200
 7.3970	 1.9110
 7.4080	 1.9910
 7.4180	 1.9640
 7.4290	 1.9620
 7.4400	 1.9460
 7.4500	 2.0180
 7.4610	 1.9900
 7.4720	 1.9830
 7.4830	 1.9480
 7.4930	 1.9460
 7.5040	 1.8470
 7.5150	 1.8900
 7.5260	 1.9030
 7.5370	 1.9290
 7.5480	 1.8710
 7.5590	 1.8930
 7.5700	 1.8520
 7.5810	 1.9090
 7.5920	 1.9080
 7.6030	 1.9480
 7.6140	 1.8940
 7.6260	 1.9340
 7.6370	 1.9160
 7.6480	 1.9620
 7.6590	 1.9040
 7.6710	 1.9280
 7.6820	 1.9040
 7.6940	 1.9220
 7.7050	 1.8590
 7.7160	 1.8730
 7.7280	 1.8460
 7.7390	 1.9210
 7.7510	 1.8870
 7.7630	 1.8860
 7.7740	 1.8530
 7.7860	 1.9010
 7.7980	 1.8650
 7.8090	 1.8750
 7.8210	 1.8230
 7.8330	 1.8590
 7.8450	 1.8350
 7.8570	 1.8670
 7.8690	 1.8430
 7.8810	 1.8870
 7.8930	 1.8290
 7.9050	 1.8390
 7.9170	 1.8120
 7.9290	 1.8910
 7.9410	 1.8750
 7.9530	 1.8900
 7.9650	 1.8370
 7.9780	 1.8850
 7.9900	 1.8820
 8.0020	 1.9320
 8.0150	 1.9120
 8.0270	 1.9940
 8.0390	 1.9640
 8.0520	 1.9960
 8.0640	 1.9080
 8.0770	 1.9500
 8.0900	 1.9140
 8.1020	 1.9330
 8.1150	 1.8550
 8.1280	 1.9420
 8.1400	 1.8910
 8.1530	 1.9040
 8.1660	 1.8610
 8.1790	 1.9240
 8.1920	 1.8890
 8.2050	 1.9980
 8.2180	 1.9710
 8.2310	 2.0120
 8.2440	 1.9510
 8.2570	 2.0140
 8.2700	 1.9480
 8.2830	 1.9710
 8.2970	 1.8610
 8.3100	 1.9400
 8.3230	 1.9110
 8.3370	 1.9480
 8.3500	 1.9060
 8.3640	 1.9840
 8.3770	 1.9120
 8.3910	 1.9450
 8.4040	 1.9330
 8.4180	 2.0130
 8.4320	 1.9570
 8.4450	 2.0120
 8.4590	 1.9670
 8.4730	 2.0970
 8.4870	 2.1110
 8.5010	 2.2350
 8.5150	 2.1680
 8.5290	 2.2460
 8.5430	 2.2060
 8.5570	 2.2880
 8.5710	 2.3410
 8.5850	 2.4220
 8.5990	 2.2910
 8.6140	 2.3070
 8.6280	 2.2780
 8.6420	 2.3920
 8.6570	 2.3500
 8.6710	 2.3870
 8.6860	 2.3140
 8.7000	 2.3300
 8.7150	 2.2620
 8.7300	 2.2920
 8.7440	 2.2120
 8.7590	 2.3050
 8.7740	 2.2480
 8.7890	 2.2960
 8.8040	 2.2480
 8.8190	 2.3230
 8.8340	 2.2270
 8.8490	 2.2900
 8.8640	 2.2190
 8.8790	 2.2700
 8.8940	 2.1800
 8.9100	 2.2090
 8.9250	 2.1190
 8.9400	 2.2040
 8.9560	 2.1050
 8.9710	 2.0630
 8.9870	 1.9710
 9.0020	 2.0580
 9.0180	 2.0060
 9.0340	 2.0100
 9.0500	 1.9030
 9.0650	 2.0120
 9.0810	 1.9160
 9.0970	 1.9140
 9.1130	 1.8380
 9.1290	 1.9950
 9.1450	 2.0080
 9.1620	 2.0810
 9.1780	 1.9550
 9.1940	 1.9780
 9.2100	 1.9100
 9.2270	 2.0460
 9.2430	 2.0270
 9.2600	 2.0470
 9.2760	 1.9240
 9.2930	 2.0220
 9.3100	 2.0100
 9.3260	 2.1650
 9.3430	 2.0960
 9.3600	 2.0990
 9.3770	 2.0150
 9.3940	 2.0790
 9.4110	 1.9850
 9.4280	 2.0270
 9.4450	 1.9450
 9.4620	 2.0290
 9.4800	 1.9160
 9.4970	 1.9520
 9.5150	 1.8760
 9.5320	 1.9250
 9.5500	 1.8550
 9.5670	 1.9900
 9.5850	 1.9050
 9.6030	 2.0080
 9.6200	 1.9890
 9.6380	 2.0000
 9.6560	 1.8580
 9.6740	 1.9480
 9.6920	 1.8160
 9.7110	 1.7790
 9.7290	 1.6880
 9.7470	 1.7830
 9.7650	 1.7250
 9.7840	 1.7730
 9.8020	 1.6440
 9.8210	 1.5980
 9.8390	 1.4580
 9.8580	 1.6010
 9.8770	 1.5800
 9.8960	 1.7050
 9.9150	 1.6350
 9.9340	 1.7130
 9.9530	 1.6880
 9.9720	 1.7820
 9.9910	 1.7200
10.0100	 1.7730
10.0300	 1.7100
10.0490	 1.8120
10.0690	 1.7600
10.0880	 1.8170
10.1080	 1.6750
10.1280	 1.7640
10.1480	 1.7390
10.1670	 1.7690
10.1870	 1.6850
10.2070	 1.8040
10.2280	 1.7170
10.2480	 1.7680
10.2680	 1.6640
10.2890	 1.6950
10.3090	 1.6410
10.3300	 1.7520
10.3500	 1.6350
10.3710	 1.7060
10.3920	 1.6090
10.4120	 1.6750
10.4330	 1.6700
10.4540	 1.7140
10.4760	 1.5740
10.4970	 1.6940
10.5180	 1.6630
10.5390	 1.7040
10.5610	 1.6160
10.5820	 1.7380
10.6040	 1.6790
10.6260	 1.7830
10.6480	 1.7270
10.6700	 1.8180
10.6920	 1.7180
10.7140	 1.7420
10.7360	 1.6440
10.7580	 1.6970
10.7800	 1.5980
10.8030	 1.6570
10.8250	 1.5940
10.8480	 1.6440
10.8710	 1.5220
10.8940	 1.6180
10.9170	 1.5480
10.9400	 1.6160
10.9630	 1.4680
10.9860	 1.5350
11.0090	 1.4950
11.0330	 1.6200
11.0560	 1.5180
11.0800	 1.5630
11.1040	 1.4880
11.1270	 1.5890
11.1510	 1.5070
11.1750	 1.5640
11.2000	 1.4510
11.2240	 1.5080
11.2480	 1.4230
11.2730	 1.5880
11.2970	 1.5710
11.3220	 1.6380
11.3470	 1.5030
11.3720	 1.5330
11.3970	 1.4300
11.4220	 1.5370
11.4470	 1.4330
11.4720	 1.5750
11.4980	 1.4460
11.5230	 1.4580
11.5490	 1.3350
11.5750	 1.3930
11.6000	 1.2540
11.6260	 1.3060
11.6530	 1.2020
11.6790	 1.3350
11.7050	 1.2650
11.7320	 1.4250
11.7580	 1.2830
11.7850	 1.3470
11.8120	 1.2050
11.8390	 1.3520
11.8660	 1.2380
11.8930	 1.3360
11.9200	 1.2720
11.9480	 1.3140
11.9760	 1.0720
12.0030	 1.1930
12.0310	 1.2510
12.0590	 1.4130
12.0870	 1.2740
12.1150	 1.3680
12.1440	 1.2150
12.1720	 1.3450
12.2010	 1.2350
12.2300	 1.4200
12.2590	 1.2560
12.2880	 1.3010
12.3170	 1.1000
12.3460	 1.1810
12.3760	 1.0360
12.4050	 1.2330
12.4350	 1.1940
12.4650	 1.2380
12.4950	 1.0490
12.5250	 1.2310
12.5550	 1.0250
12.5860	 1.0680
12.6170	 1.0380
12.6470	 1.1400
12.6780	 0.9460
12.7090	 1.1410
12.7410	 1.0460
12.7720	 1.1240
12.8030	 0.9910
12.8350	 1.0910
12.8670	 0.9360
12.8990	 1.0860
12.9310	 0.9670
12.9640	 1.0460
12.9960	 0.9030
13.0290	 1.1000
13.0610	 0.9890
13.0940	 1.1280
13.1280	 1.0320
13.1610	 1.1230
13.1940	 0.9460
13.2280	 1.0510
13.2620	 0.8940
13.2960	 1.0240
13.3300	 0.8610
13.3640	 1.0610
13.3990	 0.9500
13.4340	 1.0860
13.4690	 0.8550
13.5040	 0.9970
13.5390	 0.9180
13.5740	 1.0740
13.6100	 0.8910
13.6460	 1.0390
13.6820	 0.8860
13.7180	 1.0810
13.7540	 1.0700
13.7910	 1.2150
13.8280	 0.9490
13.8650	 1.1900
13.9020	 0.9590
13.9390	 1.0630
13.9770	 0.8410
14.0150	 0.9970
14.0530	 0.8500
14.0910	 1.0860
14.1290	 0.8750
14.1680	 1.0850
14.2070	 0.9160
14.2460	 1.0390
14.2850	 0.8850
14.3240	 1.0940
14.3640	 0.7800
14.4040	 0.9660
14.4440	 0.9110
14.4840	 1.2000
14.5250	 0.8480
14.5660	 1.0530
14.6070	 0.8570
14.6480	 1.0330
14.6900	 0.8860
14.7310	 1.1890
14.7730	 0.8480
14.8150	 1.0510
14.8580	 0.7600
14.9010	 1.1260
14.9440	 0.9260
14.9870	 1.2920
15.0300	 0.8620
15.0740	 1.2260
15.1180	 0.8750
15.1620	 1.1430
15.2060	 0.8330
15.2510	 1.0800
15.2960	 0.7520
15.3410	 1.3380
15.3870	 0.0000
