Name: Phyllostachys aurea
Type: vegetation
Class: Tree
Genus: Phyllostachys
Species: aurea
Sample No.: JPL090
Owner: JPL
Wavelength Range: TIR
Origin: 34.12507; - 118.11533; WGS84
Collection Date: 2/2/2016
Description: Samples were collected at the Huntington Garden in San Marino California as part of a JPL Subcontract studying HyTES imagery. Samples were taken to JPL and processed within 48 hours of collection. The same leaves were processed in the Nicolet and then measured using the ASD.
Measurement: Hemispherical reflectance
First Column: X
Second Column: Y
X Units: Wavelength (micrometer)
Y Units: Reflectance (percentage)
First X Value: 2.501
Last X Value: 15.387
Number of X Values: 1737
Additional Information: 

 2.5010	 8.3340
 2.5030	 8.3610
 2.5040	 8.2670
 2.5050	 8.1940
 2.5060	 8.2430
 2.5070	 8.2270
 2.5090	 8.2050
 2.5100	 8.1900
 2.5110	 8.2330
 2.5120	 8.2310
 2.5140	 8.2170
 2.5150	 8.1090
 2.5160	 8.0630
 2.5170	 8.0800
 2.5180	 8.0630
 2.5200	 8.0370
 2.5210	 8.0790
 2.5220	 8.0790
 2.5230	 8.0880
 2.5250	 8.0750
 2.5260	 8.0350
 2.5270	 8.0160
 2.5280	 8.0950
 2.5300	 8.1120
 2.5310	 8.0620
 2.5320	 7.9910
 2.5330	 8.0450
 2.5340	 8.0670
 2.5360	 8.0990
 2.5370	 8.0560
 2.5380	 8.0740
 2.5390	 8.1140
 2.5410	 8.1690
 2.5420	 8.1630
 2.5430	 8.2070
 2.5440	 8.1560
 2.5460	 8.1690
 2.5470	 8.1650
 2.5480	 8.2590
 2.5490	 8.2910
 2.5510	 8.3080
 2.5520	 8.2890
 2.5530	 8.2740
 2.5540	 8.2610
 2.5560	 8.3080
 2.5570	 8.3130
 2.5580	 8.4260
 2.5590	 8.4330
 2.5610	 8.4540
 2.5620	 8.4120
 2.5630	 8.3600
 2.5650	 8.3500
 2.5660	 8.4380
 2.5670	 8.4500
 2.5680	 8.4420
 2.5700	 8.4280
 2.5710	 8.5170
 2.5720	 8.4720
 2.5730	 8.3900
 2.5750	 8.3990
 2.5760	 8.4700
 2.5770	 8.3850
 2.5790	 8.3970
 2.5800	 8.4380
 2.5810	 8.4340
 2.5820	 8.3710
 2.5840	 8.3420
 2.5850	 8.3560
 2.5860	 8.4010
 2.5880	 8.3220
 2.5890	 8.3210
 2.5900	 8.3180
 2.5910	 8.2790
 2.5930	 8.2390
 2.5940	 8.2200
 2.5950	 8.1090
 2.5970	 8.1820
 2.5980	 8.1350
 2.5990	 8.0780
 2.6010	 8.0750
 2.6020	 8.0780
 2.6030	 7.9790
 2.6040	 7.9670
 2.6060	 7.8600
 2.6070	 7.8090
 2.6080	 7.7590
 2.6100	 7.7240
 2.6110	 7.6530
 2.6120	 7.6420
 2.6140	 7.5980
 2.6150	 7.5330
 2.6160	 7.3980
 2.6180	 7.3500
 2.6190	 7.3200
 2.6200	 7.2270
 2.6220	 7.1380
 2.6230	 7.1200
 2.6240	 7.0540
 2.6260	 6.9510
 2.6270	 6.8260
 2.6280	 6.7730
 2.6300	 6.7070
 2.6310	 6.6100
 2.6320	 6.5410
 2.6340	 6.5090
 2.6350	 6.4200
 2.6360	 6.3760
 2.6380	 6.2670
 2.6390	 6.2100
 2.6400	 6.1260
 2.6420	 6.0360
 2.6430	 5.9740
 2.6440	 5.9300
 2.6460	 5.8250
 2.6470	 5.7570
 2.6480	 5.6820
 2.6500	 5.6210
 2.6510	 5.4880
 2.6520	 5.3800
 2.6540	 5.2670
 2.6550	 5.1990
 2.6570	 5.1130
 2.6580	 5.0790
 2.6590	 4.9530
 2.6610	 4.8750
 2.6620	 4.8240
 2.6630	 4.7580
 2.6650	 4.5960
 2.6660	 4.4970
 2.6670	 4.4070
 2.6690	 4.4300
 2.6700	 4.3260
 2.6720	 4.2210
 2.6730	 4.1410
 2.6740	 4.1200
 2.6760	 4.0270
 2.6770	 4.0140
 2.6780	 3.9550
 2.6800	 3.8700
 2.6810	 3.8400
 2.6830	 3.8050
 2.6840	 3.7020
 2.6850	 3.6520
 2.6870	 3.5320
 2.6880	 3.4790
 2.6900	 3.3820
 2.6910	 3.3600
 2.6920	 3.3190
 2.6940	 3.3330
 2.6950	 3.2650
 2.6970	 3.2310
 2.6980	 3.2490
 2.6990	 3.2610
 2.7010	 3.1820
 2.7020	 3.0800
 2.7040	 2.9500
 2.7050	 2.9640
 2.7060	 2.9470
 2.7080	 2.9120
 2.7090	 2.8390
 2.7110	 2.8770
 2.7120	 2.8430
 2.7130	 2.8450
 2.7150	 2.8370
 2.7160	 2.8480
 2.7180	 2.8280
 2.7190	 2.8260
 2.7210	 2.7270
 2.7220	 2.8070
 2.7230	 2.8340
 2.7250	 2.8180
 2.7260	 2.8070
 2.7280	 2.7920
 2.7290	 2.7160
 2.7310	 2.7640
 2.7320	 2.8200
 2.7340	 2.8560
 2.7350	 2.7970
 2.7360	 2.7800
 2.7380	 2.7390
 2.7390	 2.7950
 2.7410	 2.7940
 2.7420	 2.7660
 2.7440	 2.7510
 2.7450	 2.8150
 2.7470	 2.7810
 2.7480	 2.7750
 2.7490	 2.7500
 2.7510	 2.7510
 2.7520	 2.7140
 2.7540	 2.6710
 2.7550	 2.6350
 2.7570	 2.7130
 2.7580	 2.6960
 2.7600	 2.7370
 2.7610	 2.7390
 2.7630	 2.7070
 2.7640	 2.6440
 2.7660	 2.7040
 2.7670	 2.7550
 2.7690	 2.7620
 2.7700	 2.7510
 2.7720	 2.8040
 2.7730	 2.7350
 2.7740	 2.7400
 2.7760	 2.7290
 2.7770	 2.7880
 2.7790	 2.7460
 2.7800	 2.7490
 2.7820	 2.7040
 2.7830	 2.6990
 2.7850	 2.7160
 2.7860	 2.7930
 2.7880	 2.8180
 2.7890	 2.8170
 2.7910	 2.7310
 2.7920	 2.7390
 2.7940	 2.7250
 2.7950	 2.7460
 2.7970	 2.7480
 2.7980	 2.7300
 2.8000	 2.6560
 2.8010	 2.7150
 2.8030	 2.7480
 2.8040	 2.8070
 2.8060	 2.8260
 2.8080	 2.8160
 2.8090	 2.7350
 2.8110	 2.7580
 2.8120	 2.8070
 2.8140	 2.7770
 2.8150	 2.6750
 2.8170	 2.7740
 2.8180	 2.7820
 2.8200	 2.7430
 2.8210	 2.6500
 2.8230	 2.6520
 2.8240	 2.6300
 2.8260	 2.6970
 2.8270	 2.7040
 2.8290	 2.7220
 2.8310	 2.7300
 2.8320	 2.8340
 2.8340	 2.7690
 2.8350	 2.6750
 2.8370	 2.6530
 2.8380	 2.7450
 2.8400	 2.7290
 2.8410	 2.7450
 2.8430	 2.7280
 2.8440	 2.7480
 2.8460	 2.6960
 2.8480	 2.7180
 2.8490	 2.6680
 2.8510	 2.6700
 2.8520	 2.6920
 2.8540	 2.7360
 2.8550	 2.6990
 2.8570	 2.7620
 2.8590	 2.7710
 2.8600	 2.8390
 2.8620	 2.7960
 2.8630	 2.7650
 2.8650	 2.6780
 2.8660	 2.6990
 2.8680	 2.7360
 2.8700	 2.8110
 2.8710	 2.7550
 2.8730	 2.7610
 2.8740	 2.7540
 2.8760	 2.7950
 2.8780	 2.8180
 2.8790	 2.8170
 2.8810	 2.7210
 2.8820	 2.7300
 2.8840	 2.7510
 2.8860	 2.7770
 2.8870	 2.7650
 2.8890	 2.7830
 2.8900	 2.6990
 2.8920	 2.7340
 2.8940	 2.7530
 2.8950	 2.7580
 2.8970	 2.7840
 2.8990	 2.8380
 2.9000	 2.7840
 2.9020	 2.7710
 2.9030	 2.6760
 2.9050	 2.6820
 2.9070	 2.7380
 2.9080	 2.7850
 2.9100	 2.7860
 2.9120	 2.7870
 2.9130	 2.7140
 2.9150	 2.7350
 2.9160	 2.7550
 2.9180	 2.7810
 2.9200	 2.7890
 2.9210	 2.8000
 2.9230	 2.7350
 2.9250	 2.8070
 2.9260	 2.8380
 2.9280	 2.8340
 2.9300	 2.7910
 2.9310	 2.8550
 2.9330	 2.8220
 2.9350	 2.7900
 2.9360	 2.7910
 2.9380	 2.8170
 2.9400	 2.7740
 2.9410	 2.7500
 2.9430	 2.7640
 2.9450	 2.8310
 2.9460	 2.7890
 2.9480	 2.8180
 2.9500	 2.8420
 2.9510	 2.8540
 2.9530	 2.8210
 2.9550	 2.8260
 2.9560	 2.8000
 2.9580	 2.8260
 2.9600	 2.7780
 2.9610	 2.8600
 2.9630	 2.8760
 2.9650	 2.8560
 2.9670	 2.8180
 2.9680	 2.8250
 2.9700	 2.7660
 2.9720	 2.8040
 2.9730	 2.8670
 2.9750	 2.8800
 2.9770	 2.7870
 2.9780	 2.7910
 2.9800	 2.8010
 2.9820	 2.8440
 2.9840	 2.7970
 2.9850	 2.8170
 2.9870	 2.7910
 2.9890	 2.8310
 2.9900	 2.8410
 2.9920	 2.8580
 2.9940	 2.8490
 2.9960	 2.8320
 2.9970	 2.8000
 2.9990	 2.8120
 3.0010	 2.8320
 3.0030	 2.8450
 3.0040	 2.8260
 3.0060	 2.8230
 3.0080	 2.7970
 3.0100	 2.8690
 3.0110	 2.8880
 3.0130	 2.9100
 3.0150	 2.8610
 3.0170	 2.8610
 3.0180	 2.8110
 3.0200	 2.8350
 3.0220	 2.8100
 3.0240	 2.7900
 3.0250	 2.7800
 3.0270	 2.7870
 3.0290	 2.7840
 3.0310	 2.8580
 3.0320	 2.8050
 3.0340	 2.7590
 3.0360	 2.7580
 3.0380	 2.8280
 3.0400	 2.8490
 3.0410	 2.8610
 3.0430	 2.8070
 3.0450	 2.8790
 3.0470	 2.8790
 3.0480	 2.8200
 3.0500	 2.8090
 3.0520	 2.8300
 3.0540	 2.7430
 3.0560	 2.7390
 3.0570	 2.7070
 3.0590	 2.7180
 3.0610	 2.7400
 3.0630	 2.7900
 3.0650	 2.8200
 3.0670	 2.8410
 3.0680	 2.7710
 3.0700	 2.7770
 3.0720	 2.7780
 3.0740	 2.7950
 3.0760	 2.7590
 3.0770	 2.7800
 3.0790	 2.7340
 3.0810	 2.7010
 3.0830	 2.7260
 3.0850	 2.8040
 3.0870	 2.7850
 3.0880	 2.7990
 3.0900	 2.8070
 3.0920	 2.8180
 3.0940	 2.8040
 3.0960	 2.8130
 3.0980	 2.8090
 3.1000	 2.7950
 3.1010	 2.7650
 3.1030	 2.7710
 3.1050	 2.7560
 3.1070	 2.7830
 3.1090	 2.7770
 3.1110	 2.7940
 3.1130	 2.8110
 3.1140	 2.8730
 3.1160	 2.8390
 3.1180	 2.7970
 3.1200	 2.7290
 3.1220	 2.8070
 3.1240	 2.8690
 3.1260	 2.8680
 3.1280	 2.7990
 3.1290	 2.7880
 3.1310	 2.7960
 3.1330	 2.8120
 3.1350	 2.7920
 3.1370	 2.8240
 3.1390	 2.7860
 3.1410	 2.8450
 3.1430	 2.8200
 3.1450	 2.7690
 3.1470	 2.7540
 3.1480	 2.8310
 3.1500	 2.8200
 3.1520	 2.7730
 3.1540	 2.7400
 3.1560	 2.7260
 3.1580	 2.7470
 3.1600	 2.8250
 3.1620	 2.7950
 3.1640	 2.8200
 3.1660	 2.8260
 3.1680	 2.8490
 3.1700	 2.8100
 3.1720	 2.7710
 3.1730	 2.7620
 3.1750	 2.8170
 3.1770	 2.7980
 3.1790	 2.7830
 3.1810	 2.7440
 3.1830	 2.7730
 3.1850	 2.7390
 3.1870	 2.7260
 3.1890	 2.7200
 3.1910	 2.7520
 3.1930	 2.7180
 3.1950	 2.7650
 3.1970	 2.7210
 3.1990	 2.6830
 3.2010	 2.6940
 3.2030	 2.7540
 3.2050	 2.7630
 3.2070	 2.7630
 3.2090	 2.7070
 3.2110	 2.7350
 3.2130	 2.7430
 3.2150	 2.7540
 3.2170	 2.7210
 3.2190	 2.7250
 3.2210	 2.7390
 3.2230	 2.7460
 3.2250	 2.7280
 3.2270	 2.7500
 3.2290	 2.7170
 3.2310	 2.7000
 3.2330	 2.6870
 3.2350	 2.7120
 3.2370	 2.7100
 3.2390	 2.7330
 3.2410	 2.7050
 3.2430	 2.6810
 3.2450	 2.6780
 3.2470	 2.7260
 3.2490	 2.7210
 3.2510	 2.6910
 3.2530	 2.6530
 3.2550	 2.6820
 3.2570	 2.6240
 3.2590	 2.6370
 3.2610	 2.6260
 3.2630	 2.6620
 3.2650	 2.6910
 3.2670	 2.7250
 3.2700	 2.6930
 3.2720	 2.6560
 3.2740	 2.6270
 3.2760	 2.6630
 3.2780	 2.6660
 3.2800	 2.6550
 3.2820	 2.6690
 3.2840	 2.6970
 3.2860	 2.6360
 3.2880	 2.6520
 3.2900	 2.6440
 3.2920	 2.6680
 3.2940	 2.6220
 3.2970	 2.6150
 3.2990	 2.6400
 3.3010	 2.6540
 3.3030	 2.6190
 3.3050	 2.6170
 3.3070	 2.5900
 3.3090	 2.6580
 3.3110	 2.6420
 3.3130	 2.6150
 3.3160	 2.6050
 3.3180	 2.6380
 3.3200	 2.5980
 3.3220	 2.5980
 3.3240	 2.6170
 3.3260	 2.6030
 3.3280	 2.5690
 3.3300	 2.5900
 3.3330	 2.5710
 3.3350	 2.5570
 3.3370	 2.5320
 3.3390	 2.5030
 3.3410	 2.4780
 3.3430	 2.5180
 3.3450	 2.4900
 3.3480	 2.4700
 3.3500	 2.4220
 3.3520	 2.4450
 3.3540	 2.4360
 3.3560	 2.4310
 3.3580	 2.4280
 3.3610	 2.4760
 3.3630	 2.4370
 3.3650	 2.4290
 3.3670	 2.4030
 3.3690	 2.3670
 3.3720	 2.3160
 3.3740	 2.3320
 3.3760	 2.3670
 3.3780	 2.3680
 3.3800	 2.3250
 3.3830	 2.3800
 3.3850	 2.3960
 3.3870	 2.3830
 3.3890	 2.3400
 3.3910	 2.3320
 3.3940	 2.2950
 3.3960	 2.2720
 3.3980	 2.2080
 3.4000	 2.1400
 3.4030	 2.1180
 3.4050	 2.1470
 3.4070	 2.1340
 3.4090	 2.1520
 3.4110	 2.1460
 3.4140	 2.1670
 3.4160	 2.2060
 3.4180	 2.3440
 3.4200	 2.5360
 3.4230	 2.8520
 3.4250	 3.3000
 3.4270	 3.8130
 3.4300	 4.1850
 3.4320	 4.3010
 3.4340	 4.1140
 3.4360	 3.8740
 3.4390	 3.6600
 3.4410	 3.5060
 3.4430	 3.3970
 3.4450	 3.3750
 3.4480	 3.3440
 3.4500	 3.3480
 3.4520	 3.3040
 3.4550	 3.2830
 3.4570	 3.2140
 3.4590	 3.2100
 3.4620	 3.1840
 3.4640	 3.2100
 3.4660	 3.2160
 3.4690	 3.1590
 3.4710	 3.0760
 3.4730	 3.0830
 3.4760	 3.0500
 3.4780	 3.0560
 3.4800	 3.0250
 3.4830	 2.9510
 3.4850	 2.8670
 3.4870	 2.8490
 3.4900	 2.8040
 3.4920	 2.7450
 3.4940	 2.7350
 3.4970	 2.7650
 3.4990	 2.7000
 3.5010	 2.6540
 3.5040	 2.6170
 3.5060	 2.8280
 3.5080	 3.3520
 3.5110	 4.0250
 3.5130	 4.3180
 3.5160	 4.1930
 3.5180	 3.9290
 3.5200	 3.7750
 3.5230	 3.7000
 3.5250	 3.6420
 3.5280	 3.5440
 3.5300	 3.5070
 3.5320	 3.4420
 3.5350	 3.3970
 3.5370	 3.3460
 3.5400	 3.3220
 3.5420	 3.3330
 3.5440	 3.3740
 3.5470	 3.2940
 3.5490	 3.2630
 3.5520	 3.2600
 3.5540	 3.2750
 3.5570	 3.2480
 3.5590	 3.2310
 3.5610	 3.2200
 3.5640	 3.2420
 3.5660	 3.1890
 3.5690	 3.1620
 3.5710	 3.1880
 3.5740	 3.1820
 3.5760	 3.1650
 3.5790	 3.1650
 3.5810	 3.2030
 3.5840	 3.2320
 3.5860	 3.1770
 3.5890	 3.1450
 3.5910	 3.1770
 3.5940	 3.1860
 3.5960	 3.1490
 3.5990	 3.1570
 3.6010	 3.1320
 3.6040	 3.1190
 3.6060	 3.1190
 3.6090	 3.1280
 3.6110	 3.0850
 3.6140	 3.0810
 3.6160	 3.1050
 3.6190	 3.1590
 3.6210	 3.1500
 3.6240	 3.1150
 3.6260	 3.0860
 3.6290	 3.1290
 3.6310	 3.1310
 3.6340	 3.1360
 3.6360	 3.1640
 3.6390	 3.1700
 3.6410	 3.1350
 3.6440	 3.1010
 3.6470	 3.1090
 3.6490	 3.1800
 3.6520	 3.1700
 3.6540	 3.1380
 3.6570	 3.1350
 3.6590	 3.1440
 3.6620	 3.1540
 3.6650	 3.2080
 3.6670	 3.2150
 3.6700	 3.1740
 3.6720	 3.1590
 3.6750	 3.2020
 3.6780	 3.1750
 3.6800	 3.2180
 3.6830	 3.2720
 3.6850	 3.2530
 3.6880	 3.1770
 3.6910	 3.1890
 3.6930	 3.2190
 3.6960	 3.2630
 3.6990	 3.2580
 3.7010	 3.2560
 3.7040	 3.2280
 3.7070	 3.2030
 3.7090	 3.2100
 3.7120	 3.2430
 3.7150	 3.2630
 3.7170	 3.2860
 3.7200	 3.2880
 3.7230	 3.3300
 3.7250	 3.3210
 3.7280	 3.3010
 3.7310	 3.2980
 3.7330	 3.3200
 3.7360	 3.3410
 3.7390	 3.3650
 3.7410	 3.3380
 3.7440	 3.3220
 3.7470	 3.3260
 3.7490	 3.3510
 3.7520	 3.3400
 3.7550	 3.3610
 3.7580	 3.3810
 3.7600	 3.4010
 3.7630	 3.4210
 3.7660	 3.4250
 3.7690	 3.4070
 3.7710	 3.4150
 3.7740	 3.4010
 3.7770	 3.4140
 3.7790	 3.4850
 3.7820	 3.5140
 3.7850	 3.5080
 3.7880	 3.5230
 3.7910	 3.5340
 3.7930	 3.5690
 3.7960	 3.5750
 3.7990	 3.5880
 3.8020	 3.5900
 3.8040	 3.5990
 3.8070	 3.5930
 3.8100	 3.6100
 3.8130	 3.6350
 3.8160	 3.6590
 3.8180	 3.6430
 3.8210	 3.6480
 3.8240	 3.6380
 3.8270	 3.6400
 3.8300	 3.6590
 3.8330	 3.7400
 3.8350	 3.7570
 3.8380	 3.7410
 3.8410	 3.7500
 3.8440	 3.7860
 3.8470	 3.7720
 3.8500	 3.7690
 3.8520	 3.7740
 3.8550	 3.8130
 3.8580	 3.8020
 3.8610	 3.7860
 3.8640	 3.7870
 3.8670	 3.8240
 3.8700	 3.8420
 3.8730	 3.8690
 3.8760	 3.8770
 3.8780	 3.8790
 3.8810	 3.8540
 3.8840	 3.8800
 3.8870	 3.8870
 3.8900	 3.8680
 3.8930	 3.8450
 3.8960	 3.8580
 3.8990	 3.8870
 3.9020	 3.9090
 3.9050	 3.9030
 3.9080	 3.9130
 3.9110	 3.9140
 3.9140	 3.9290
 3.9170	 3.9420
 3.9190	 3.9580
 3.9220	 3.9280
 3.9250	 3.9390
 3.9280	 3.9430
 3.9310	 3.9250
 3.9340	 3.9110
 3.9370	 3.9360
 3.9400	 3.9420
 3.9430	 3.9730
 3.9460	 3.9780
 3.9490	 3.9910
 3.9520	 3.9470
 3.9550	 3.9060
 3.9580	 3.9010
 3.9610	 3.9320
 3.9640	 3.9070
 3.9670	 3.9390
 3.9700	 3.9930
 3.9740	 4.0100
 3.9770	 3.9910
 3.9800	 3.9680
 3.9830	 3.9890
 3.9860	 4.0500
 3.9890	 4.0400
 3.9920	 4.0340
 3.9950	 4.0020
 3.9980	 4.0220
 4.0010	 4.0370
 4.0040	 4.0380
 4.0070	 4.0220
 4.0100	 4.0150
 4.0140	 4.0310
 4.0170	 4.0400
 4.0200	 4.0020
 4.0230	 4.0190
 4.0260	 4.0490
 4.0290	 4.0260
 4.0320	 4.0170
 4.0350	 4.0750
 4.0390	 4.0820
 4.0420	 4.0490
 4.0450	 4.0460
 4.0480	 4.0650
 4.0510	 4.0630
 4.0540	 4.0900
 4.0570	 4.0700
 4.0610	 4.0500
 4.0640	 4.0540
 4.0670	 4.0800
 4.0700	 4.0680
 4.0730	 4.0870
 4.0770	 4.0750
 4.0800	 4.0700
 4.0830	 4.0730
 4.0860	 4.0730
 4.0890	 4.0870
 4.0930	 4.0830
 4.0960	 4.0290
 4.0990	 4.0110
 4.1020	 4.0400
 4.1060	 4.0460
 4.1090	 4.0320
 4.1120	 4.0560
 4.1150	 4.0530
 4.1190	 4.0420
 4.1220	 4.0510
 4.1250	 4.0690
 4.1290	 4.0220
 4.1320	 3.9940
 4.1350	 4.0240
 4.1380	 4.0460
 4.1420	 4.0390
 4.1450	 4.0220
 4.1480	 4.0020
 4.1520	 4.0010
 4.1550	 4.0030
 4.1580	 4.0260
 4.1620	 4.0380
 4.1650	 4.0280
 4.1680	 3.9860
 4.1720	 3.9550
 4.1750	 3.9380
 4.1780	 3.9470
 4.1820	 3.9460
 4.1850	 3.9540
 4.1890	 3.9410
 4.1920	 3.9190
 4.1950	 3.9290
 4.1990	 3.9540
 4.2020	 3.9620
 4.2060	 3.9670
 4.2090	 3.9610
 4.2120	 3.9610
 4.2160	 3.9810
 4.2190	 3.9480
 4.2230	 3.9650
 4.2260	 3.9740
 4.2300	 3.9530
 4.2330	 3.9950
 4.2360	 4.0310
 4.2400	 4.0470
 4.2430	 3.9800
 4.2470	 3.8900
 4.2500	 3.8430
 4.2540	 3.7770
 4.2570	 3.7110
 4.2610	 3.7620
 4.2640	 3.8150
 4.2680	 3.8310
 4.2710	 3.8230
 4.2750	 3.7610
 4.2780	 3.8170
 4.2820	 3.8700
 4.2850	 3.8030
 4.2890	 3.7520
 4.2930	 3.7090
 4.2960	 3.7060
 4.3000	 3.7010
 4.3030	 3.6970
 4.3070	 3.6290
 4.3100	 3.6060
 4.3140	 3.6320
 4.3180	 3.6000
 4.3210	 3.5730
 4.3250	 3.5790
 4.3280	 3.5560
 4.3320	 3.5410
 4.3360	 3.5280
 4.3390	 3.4930
 4.3430	 3.5040
 4.3470	 3.5260
 4.3500	 3.5120
 4.3540	 3.4900
 4.3580	 3.4480
 4.3610	 3.4060
 4.3650	 3.3970
 4.3690	 3.3990
 4.3720	 3.3820
 4.3760	 3.3870
 4.3800	 3.3820
 4.3830	 3.3950
 4.3870	 3.3990
 4.3910	 3.4030
 4.3940	 3.3900
 4.3980	 3.3360
 4.4020	 3.3020
 4.4060	 3.3110
 4.4090	 3.3350
 4.4130	 3.3280
 4.4170	 3.2890
 4.4210	 3.2800
 4.4240	 3.2960
 4.4280	 3.3030
 4.4320	 3.2860
 4.4360	 3.2690
 4.4400	 3.2790
 4.4430	 3.2650
 4.4470	 3.2370
 4.4510	 3.2330
 4.4550	 3.2090
 4.4590	 3.1900
 4.4630	 3.2110
 4.4660	 3.2290
 4.4700	 3.2250
 4.4740	 3.2170
 4.4780	 3.1940
 4.4820	 3.1990
 4.4860	 3.2020
 4.4900	 3.1720
 4.4930	 3.1810
 4.4970	 3.1870
 4.5010	 3.1710
 4.5050	 3.1680
 4.5090	 3.1710
 4.5130	 3.1770
 4.5170	 3.1980
 4.5210	 3.1730
 4.5250	 3.1150
 4.5290	 3.1070
 4.5330	 3.1150
 4.5370	 3.1050
 4.5410	 3.1090
 4.5450	 3.1050
 4.5490	 3.0960
 4.5530	 3.0980
 4.5570	 3.0640
 4.5610	 3.0440
 4.5650	 3.0520
 4.5690	 3.0710
 4.5730	 3.0930
 4.5770	 3.1080
 4.5810	 3.1140
 4.5850	 3.0720
 4.5890	 3.0420
 4.5930	 3.0240
 4.5970	 3.0530
 4.6010	 3.0790
 4.6050	 3.0830
 4.6090	 3.0620
 4.6130	 3.0100
 4.6170	 3.0300
 4.6220	 3.1010
 4.6260	 3.1300
 4.6300	 3.0830
 4.6340	 3.0550
 4.6380	 3.0710
 4.6420	 3.0600
 4.6460	 3.0340
 4.6510	 3.0130
 4.6550	 3.0270
 4.6590	 3.0270
 4.6630	 3.0200
 4.6670	 3.0330
 4.6720	 3.0380
 4.6760	 3.0290
 4.6800	 3.0300
 4.6840	 3.0240
 4.6880	 3.0020
 4.6930	 3.0060
 4.6970	 3.0250
 4.7010	 3.0150
 4.7050	 3.0510
 4.7100	 3.0870
 4.7140	 3.0640
 4.7180	 3.0480
 4.7230	 3.0520
 4.7270	 3.0230
 4.7310	 3.0470
 4.7360	 3.0630
 4.7400	 3.0780
 4.7440	 3.0460
 4.7490	 3.0510
 4.7530	 3.0570
 4.7570	 3.0610
 4.7620	 3.0790
 4.7660	 3.0630
 4.7700	 3.0450
 4.7750	 3.0570
 4.7790	 3.0360
 4.7840	 3.0650
 4.7880	 3.0850
 4.7920	 3.0900
 4.7970	 3.0660
 4.8010	 3.0290
 4.8060	 3.0350
 4.8100	 3.0960
 4.8150	 3.0930
 4.8190	 3.0870
 4.8240	 3.0890
 4.8280	 3.1030
 4.8330	 3.0750
 4.8370	 3.0670
 4.8420	 3.0410
 4.8460	 3.0420
 4.8510	 3.0780
 4.8550	 3.1080
 4.8600	 3.1440
 4.8640	 3.1440
 4.8690	 3.1150
 4.8740	 3.1160
 4.8780	 3.0820
 4.8830	 3.1190
 4.8870	 3.1550
 4.8920	 3.1520
 4.8970	 3.1250
 4.9010	 3.1090
 4.9060	 3.1150
 4.9100	 3.1130
 4.9150	 3.1370
 4.9200	 3.1780
 4.9240	 3.1750
 4.9290	 3.1930
 4.9340	 3.1720
 4.9390	 3.1560
 4.9430	 3.1930
 4.9480	 3.2240
 4.9530	 3.2000
 4.9570	 3.2200
 4.9620	 3.2220
 4.9670	 3.2460
 4.9720	 3.2450
 4.9760	 3.2230
 4.9810	 3.2170
 4.9860	 3.2640
 4.9910	 3.3000
 4.9960	 3.3090
 5.0000	 3.2910
 5.0050	 3.3170
 5.0100	 3.3550
 5.0150	 3.3610
 5.0200	 3.3580
 5.0250	 3.3540
 5.0300	 3.3100
 5.0340	 3.3100
 5.0390	 3.3700
 5.0440	 3.4370
 5.0490	 3.4220
 5.0540	 3.4050
 5.0590	 3.4180
 5.0640	 3.4590
 5.0690	 3.4440
 5.0740	 3.4630
 5.0790	 3.4910
 5.0840	 3.5290
 5.0890	 3.5200
 5.0940	 3.5190
 5.0990	 3.5220
 5.1040	 3.5250
 5.1090	 3.5130
 5.1140	 3.5070
 5.1190	 3.5260
 5.1240	 3.5750
 5.1290	 3.5910
 5.1340	 3.5860
 5.1390	 3.5270
 5.1440	 3.5450
 5.1490	 3.5720
 5.1550	 3.6340
 5.1600	 3.6610
 5.1650	 3.6670
 5.1700	 3.6600
 5.1750	 3.6820
 5.1800	 3.6960
 5.1850	 3.7100
 5.1910	 3.6710
 5.1960	 3.6830
 5.2010	 3.7060
 5.2060	 3.7300
 5.2110	 3.7070
 5.2170	 3.6830
 5.2220	 3.6920
 5.2270	 3.7520
 5.2330	 3.7430
 5.2380	 3.7320
 5.2430	 3.7150
 5.2480	 3.7260
 5.2540	 3.7180
 5.2590	 3.7570
 5.2640	 3.7300
 5.2700	 3.7000
 5.2750	 3.6850
 5.2800	 3.7150
 5.2860	 3.7670
 5.2910	 3.7940
 5.2970	 3.7490
 5.3020	 3.7430
 5.3080	 3.7470
 5.3130	 3.7540
 5.3180	 3.7410
 5.3240	 3.7290
 5.3290	 3.6930
 5.3350	 3.7270
 5.3400	 3.7270
 5.3460	 3.7140
 5.3510	 3.6490
 5.3570	 3.6650
 5.3620	 3.6980
 5.3680	 3.7240
 5.3740	 3.6710
 5.3790	 3.6670
 5.3850	 3.6540
 5.3900	 3.6370
 5.3960	 3.6250
 5.4010	 3.6580
 5.4070	 3.6310
 5.4130	 3.5900
 5.4180	 3.5820
 5.4240	 3.5840
 5.4300	 3.5690
 5.4350	 3.5770
 5.4410	 3.5610
 5.4470	 3.5850
 5.4530	 3.5640
 5.4580	 3.5410
 5.4640	 3.4890
 5.4700	 3.4690
 5.4760	 3.4630
 5.4810	 3.4390
 5.4870	 3.4520
 5.4930	 3.4670
 5.4990	 3.3900
 5.5050	 3.3840
 5.5110	 3.3830
 5.5160	 3.3720
 5.5220	 3.3120
 5.5280	 3.2700
 5.5340	 3.2650
 5.5400	 3.2860
 5.5460	 3.2510
 5.5520	 3.2290
 5.5580	 3.2100
 5.5640	 3.2260
 5.5700	 3.1790
 5.5760	 3.1550
 5.5820	 3.1180
 5.5880	 3.0950
 5.5940	 3.0820
 5.6000	 3.0560
 5.6060	 3.0190
 5.6120	 3.0290
 5.6180	 2.9610
 5.6240	 2.9870
 5.6300	 2.9880
 5.6360	 2.9520
 5.6420	 2.8760
 5.6490	 2.8650
 5.6550	 2.8350
 5.6610	 2.8520
 5.6670	 2.8690
 5.6730	 2.8360
 5.6800	 2.7640
 5.6860	 2.7680
 5.6920	 2.7380
 5.6980	 2.7250
 5.7050	 2.6850
 5.7110	 2.6730
 5.7170	 2.6300
 5.7230	 2.5940
 5.7300	 2.5200
 5.7360	 2.4990
 5.7420	 2.4750
 5.7490	 2.4620
 5.7550	 2.4540
 5.7620	 2.5410
 5.7680	 2.5920
 5.7740	 2.7050
 5.7810	 2.7510
 5.7870	 2.8060
 5.7940	 2.8380
 5.8000	 2.8730
 5.8070	 2.8660
 5.8130	 2.9080
 5.8200	 2.8920
 5.8260	 2.9300
 5.8330	 2.9770
 5.8390	 3.0530
 5.8460	 3.0910
 5.8530	 3.1460
 5.8590	 3.1290
 5.8660	 3.1830
 5.8730	 3.2080
 5.8790	 3.1820
 5.8860	 3.1630
 5.8930	 3.2170
 5.8990	 3.2450
 5.9060	 3.3170
 5.9130	 3.2830
 5.9190	 3.2540
 5.9260	 3.1830
 5.9330	 3.1870
 5.9400	 3.1290
 5.9470	 3.1550
 5.9530	 3.1360
 5.9600	 3.1420
 5.9670	 3.0970
 5.9740	 3.1210
 5.9810	 3.1140
 5.9880	 3.0910
 5.9950	 3.0400
 6.0020	 3.0950
 6.0090	 3.0560
 6.0160	 3.0490
 6.0230	 3.0520
 6.0300	 3.0630
 6.0370	 3.0720
 6.0440	 3.0430
 6.0510	 2.9610
 6.0580	 3.0470
 6.0650	 3.0660
 6.0720	 3.0490
 6.0790	 3.0340
 6.0860	 3.1080
 6.0930	 3.0690
 6.1010	 3.0730
 6.1080	 3.0250
 6.1150	 3.0250
 6.1220	 2.9980
 6.1290	 3.0450
 6.1370	 3.0340
 6.1440	 3.0940
 6.1510	 3.0520
 6.1580	 3.0020
 6.1660	 3.0190
 6.1730	 3.0740
 6.1800	 2.9590
 6.1880	 2.9400
 6.1950	 2.9260
 6.2030	 2.9560
 6.2100	 2.9830
 6.2180	 3.0830
 6.2250	 3.1020
 6.2320	 3.0930
 6.2400	 3.0440
 6.2480	 3.1070
 6.2550	 3.0750
 6.2630	 3.0450
 6.2700	 3.0040
 6.2780	 3.0830
 6.2850	 3.0650
 6.2930	 3.0930
 6.3010	 3.0540
 6.3080	 3.0830
 6.3160	 3.0720
 6.3240	 3.1000
 6.3310	 3.0790
 6.3390	 3.0580
 6.3470	 3.0110
 6.3550	 3.0810
 6.3620	 3.0620
 6.3700	 3.0660
 6.3780	 3.0460
 6.3860	 3.0650
 6.3940	 3.0520
 6.4020	 3.0830
 6.4100	 2.9710
 6.4180	 2.9460
 6.4260	 2.9610
 6.4340	 2.9930
 6.4420	 3.0050
 6.4500	 3.0500
 6.4580	 3.0350
 6.4660	 3.0520
 6.4740	 2.9890
 6.4820	 2.9890
 6.4900	 2.9330
 6.4980	 2.9380
 6.5060	 2.9630
 6.5140	 3.0520
 6.5230	 3.0430
 6.5310	 3.0620
 6.5390	 2.9920
 6.5470	 2.9960
 6.5560	 2.9610
 6.5640	 2.9630
 6.5720	 2.8880
 6.5800	 2.9380
 6.5890	 2.9180
 6.5970	 2.9100
 6.6060	 2.8990
 6.6140	 2.9590
 6.6230	 2.9130
 6.6310	 2.8590
 6.6390	 2.8240
 6.6480	 2.9260
 6.6570	 2.9280
 6.6650	 2.9620
 6.6740	 2.9090
 6.6820	 2.9010
 6.6910	 2.8660
 6.7000	 2.9050
 6.7080	 2.8560
 6.7170	 2.8480
 6.7260	 2.8190
 6.7340	 2.8560
 6.7430	 2.7880
 6.7520	 2.7630
 6.7610	 2.6940
 6.7690	 2.6640
 6.7780	 2.6200
 6.7870	 2.8660
 6.7960	 3.0700
 6.8050	 3.0600
 6.8140	 2.9120
 6.8230	 2.8950
 6.8320	 3.0470
 6.8410	 3.3760
 6.8500	 3.4190
 6.8590	 3.3140
 6.8680	 3.2240
 6.8770	 3.3060
 6.8860	 3.2770
 6.8960	 3.2660
 6.9050	 3.2150
 6.9140	 3.2690
 6.9230	 3.2470
 6.9320	 3.2410
 6.9420	 3.1690
 6.9510	 3.2000
 6.9600	 3.1560
 6.9700	 3.2200
 6.9790	 3.1950
 6.9880	 3.2330
 6.9980	 3.2280
 7.0070	 3.2390
 7.0170	 3.1810
 7.0260	 3.2050
 7.0360	 3.1480
 7.0450	 3.1510
 7.0550	 3.1390
 7.0650	 3.1760
 7.0740	 3.1680
 7.0840	 3.2510
 7.0940	 3.2630
 7.1030	 3.2720
 7.1130	 3.2180
 7.1230	 3.2740
 7.1330	 3.2300
 7.1420	 3.2260
 7.1520	 3.1620
 7.1620	 3.1710
 7.1720	 3.1050
 7.1820	 3.1490
 7.1920	 3.1430
 7.2020	 3.1740
 7.2120	 3.1580
 7.2220	 3.1700
 7.2320	 3.1200
 7.2420	 3.1800
 7.2520	 3.1430
 7.2620	 3.1760
 7.2730	 3.1390
 7.2830	 3.1730
 7.2930	 3.1610
 7.3030	 3.2140
 7.3140	 3.1940
 7.3240	 3.2020
 7.3340	 3.1180
 7.3450	 3.1880
 7.3550	 3.1950
 7.3660	 3.2560
 7.3760	 3.2170
 7.3870	 3.2030
 7.3970	 3.1500
 7.4080	 3.2070
 7.4180	 3.1750
 7.4290	 3.2500
 7.4400	 3.2230
 7.4500	 3.2240
 7.4610	 3.1720
 7.4720	 3.2260
 7.4830	 3.2160
 7.4930	 3.2460
 7.5040	 3.1830
 7.5150	 3.2310
 7.5260	 3.2060
 7.5370	 3.2380
 7.5480	 3.2210
 7.5590	 3.2540
 7.5700	 3.2000
 7.5810	 3.2090
 7.5920	 3.1420
 7.6030	 3.1790
 7.6140	 3.1450
 7.6260	 3.2250
 7.6370	 3.1950
 7.6480	 3.2920
 7.6590	 3.2640
 7.6710	 3.2360
 7.6820	 3.1520
 7.6940	 3.2250
 7.7050	 3.2140
 7.7160	 3.2330
 7.7280	 3.1550
 7.7390	 3.1950
 7.7510	 3.2010
 7.7630	 3.2520
 7.7740	 3.2110
 7.7860	 3.2590
 7.7980	 3.2330
 7.8090	 3.2600
 7.8210	 3.2320
 7.8330	 3.2900
 7.8450	 3.2920
 7.8570	 3.3410
 7.8690	 3.2450
 7.8810	 3.2640
 7.8930	 3.2160
 7.9050	 3.2320
 7.9170	 3.2090
 7.9290	 3.2660
 7.9410	 3.1730
 7.9530	 3.1800
 7.9650	 3.1080
 7.9780	 3.1360
 7.9900	 3.0520
 8.0020	 3.0640
 8.0150	 3.0020
 8.0270	 3.0210
 8.0390	 2.9160
 8.0520	 2.9210
 8.0640	 2.9010
 8.0770	 2.9460
 8.0900	 2.7710
 8.1020	 2.8240
 8.1150	 2.8490
 8.1280	 2.8810
 8.1400	 2.7960
 8.1530	 2.8310
 8.1660	 2.7170
 8.1790	 2.7360
 8.1920	 2.6840
 8.2050	 2.7430
 8.2180	 2.7010
 8.2310	 2.7720
 8.2440	 2.6920
 8.2570	 2.7040
 8.2700	 2.5870
 8.2830	 2.6440
 8.2970	 2.6170
 8.3100	 2.6780
 8.3230	 2.6420
 8.3370	 2.6610
 8.3500	 2.5340
 8.3640	 2.5780
 8.3770	 2.5030
 8.3910	 2.5960
 8.4040	 2.5860
 8.4180	 2.6420
 8.4320	 2.5660
 8.4450	 2.6840
 8.4590	 2.6170
 8.4730	 2.6760
 8.4870	 2.6320
 8.5010	 2.6730
 8.5150	 2.6000
 8.5290	 2.6830
 8.5430	 2.6680
 8.5570	 2.7580
 8.5710	 2.6810
 8.5850	 2.7350
 8.5990	 2.7200
 8.6140	 2.7530
 8.6280	 2.6190
 8.6420	 2.6380
 8.6570	 2.5540
 8.6710	 2.6080
 8.6860	 2.5200
 8.7000	 2.5920
 8.7150	 2.5390
 8.7300	 2.6480
 8.7440	 2.5820
 8.7590	 2.7020
 8.7740	 2.6210
 8.7890	 2.6530
 8.8040	 2.6230
 8.8190	 2.7880
 8.8340	 2.7100
 8.8490	 2.7600
 8.8640	 2.6950
 8.8790	 2.7620
 8.8940	 2.7160
 8.9100	 2.7630
 8.9250	 2.6850
 8.9400	 2.7620
 8.9560	 2.6830
 8.9710	 2.7470
 8.9870	 2.6590
 9.0020	 2.7480
 9.0180	 2.6250
 9.0340	 2.6580
 9.0500	 2.6440
 9.0650	 2.7600
 9.0810	 2.6990
 9.0970	 2.7550
 9.1130	 2.6460
 9.1290	 2.7460
 9.1450	 2.6670
 9.1620	 2.8010
 9.1780	 2.7600
 9.1940	 2.8680
 9.2100	 2.8120
 9.2270	 2.8460
 9.2430	 2.7080
 9.2600	 2.8200
 9.2760	 2.7590
 9.2930	 2.8230
 9.3100	 2.8100
 9.3260	 2.9100
 9.3430	 2.8170
 9.3600	 2.9640
 9.3770	 2.9330
 9.3940	 3.0160
 9.4110	 2.8800
 9.4280	 2.9580
 9.4450	 2.9020
 9.4620	 2.9590
 9.4800	 2.8550
 9.4970	 3.0160
 9.5150	 2.9770
 9.5320	 3.1340
 9.5500	 3.0760
 9.5670	 3.1520
 9.5850	 3.1010
 9.6030	 3.1150
 9.6200	 3.0660
 9.6380	 3.2190
 9.6560	 3.1210
 9.6740	 3.3140
 9.6920	 3.3140
 9.7110	 3.4110
 9.7290	 3.3960
 9.7470	 3.5330
 9.7650	 3.4220
 9.7840	 3.5200
 9.8020	 3.4640
 9.8210	 3.5550
 9.8390	 3.4740
 9.8580	 3.6370
 9.8770	 3.5910
 9.8960	 3.6020
 9.9150	 3.4070
 9.9340	 3.4810
 9.9530	 3.4560
 9.9720	 3.5870
 9.9910	 3.4230
10.0100	 3.4480
10.0300	 3.3970
10.0490	 3.3820
10.0690	 3.2070
10.0880	 3.2890
10.1080	 3.2060
10.1280	 3.2900
10.1480	 3.1660
10.1670	 3.2070
10.1870	 3.1180
10.2070	 3.2280
10.2280	 3.1270
10.2480	 3.1600
10.2680	 3.0750
10.2890	 3.1620
10.3090	 3.1250
10.3300	 3.2730
10.3500	 3.1420
10.3710	 3.2170
10.3920	 3.2130
10.4120	 3.3520
10.4330	 3.2700
10.4540	 3.4060
10.4760	 3.3290
10.4970	 3.3690
10.5180	 3.3580
10.5390	 3.4930
10.5610	 3.4380
10.5820	 3.5900
10.6040	 3.5560
10.6260	 3.6120
10.6480	 3.4480
10.6700	 3.4920
10.6920	 3.4620
10.7140	 3.6160
10.7360	 3.5740
10.7580	 3.6740
10.7800	 3.5410
10.8030	 3.6270
10.8250	 3.4620
10.8480	 3.5750
10.8710	 3.5100
10.8940	 3.5320
10.9170	 3.4660
10.9400	 3.5520
10.9630	 3.4290
10.9860	 3.5040
11.0090	 3.3730
11.0330	 3.4940
11.0560	 3.3600
11.0800	 3.3760
11.1040	 3.2500
11.1270	 3.3890
11.1510	 3.2750
11.1750	 3.3070
11.2000	 3.2130
11.2240	 3.3060
11.2480	 3.2070
11.2730	 3.3650
11.2970	 3.2960
11.3220	 3.3880
11.3470	 3.2440
11.3720	 3.3160
11.3970	 3.2270
11.4220	 3.3480
11.4470	 3.2080
11.4720	 3.2460
11.4980	 3.0630
11.5230	 3.1880
11.5490	 3.0380
11.5750	 3.1680
11.6000	 3.0910
11.6260	 3.1630
11.6530	 3.0450
11.6790	 3.1400
11.7050	 2.9670
11.7320	 3.0580
11.7580	 2.9470
11.7850	 3.0200
11.8120	 2.8580
11.8390	 2.9210
11.8660	 2.8080
11.8930	 2.9130
11.9200	 2.7150
11.9480	 2.8150
11.9760	 2.6780
12.0030	 2.8790
12.0310	 2.8170
12.0590	 2.8920
12.0870	 2.6750
12.1150	 2.7550
12.1440	 2.6630
12.1720	 2.7200
12.2010	 2.5460
12.2300	 2.7460
12.2590	 2.6490
12.2880	 2.8050
12.3170	 2.6360
12.3460	 2.6690
12.3760	 2.5410
12.4050	 2.6970
12.4350	 2.5620
12.4650	 2.6490
12.4950	 2.4850
12.5250	 2.6290
12.5550	 2.5050
12.5860	 2.6150
12.6170	 2.5070
12.6470	 2.6480
12.6780	 2.5050
12.7090	 2.6790
12.7410	 2.5510
12.7720	 2.7190
12.8030	 2.5860
12.8350	 2.7620
12.8670	 2.6360
12.8990	 2.7800
12.9310	 2.5970
12.9640	 2.6600
12.9960	 2.4330
13.0290	 2.5550
13.0610	 2.3710
13.0940	 2.5650
13.1280	 2.4700
13.1610	 2.6110
13.1940	 2.4230
13.2280	 2.4300
13.2620	 2.1990
13.2960	 2.4730
13.3300	 2.4310
13.3640	 2.5600
13.3990	 2.3460
13.4340	 2.4910
13.4690	 2.2060
13.5040	 2.3360
13.5390	 2.2430
13.5740	 2.3700
13.6100	 2.1510
13.6460	 2.4060
13.6820	 2.3220
13.7180	 2.6340
13.7540	 2.4270
13.7910	 2.5280
13.8280	 2.3970
13.8650	 2.7470
13.9020	 2.5680
13.9390	 2.6630
13.9770	 2.4630
14.0150	 2.6100
14.0530	 2.3350
14.0910	 2.5230
14.1290	 2.3020
14.1680	 2.5400
14.2070	 2.2760
14.2460	 2.5210
14.2850	 2.2420
14.3240	 2.3190
14.3640	 2.0600
14.4040	 2.4390
14.4440	 2.2910
14.4840	 2.4390
14.5250	 2.0650
14.5660	 2.2620
14.6070	 1.9640
14.6480	 2.3750
14.6900	 2.0820
14.7310	 2.3740
14.7730	 1.9810
14.8150	 2.1870
14.8580	 1.8780
14.9010	 2.1340
14.9440	 1.7710
14.9870	 2.4930
15.0300	 1.9560
15.0740	 2.1950
15.1180	 2.0600
15.1620	 2.5680
15.2060	 1.9480
15.2510	 2.2720
15.2960	 1.8770
15.3410	 2.2090
15.3870	 1.9190
