Name: Aloe arborescens flower
Type: vegetation
Class: Shrub
Genus: Aloe
Species: arborescens_flower
Sample No.: JPL073
Owner: JPL
Wavelength Range: VSWIR
Origin: 34.12593; - 118.10983; WGS84
Collection Date: 2/2/2016
Description: Samples were collected at the Huntington Garden in San Marino California as part of a JPL Subcontract studying HyTES imagery. Samples were taken to JPL and processed within 48 hours of collection. The same leaves were processed in the Nicolet and then measured using the ASD.
Measurement: Bidirectional reflectance
First Column: X
Second Column: Y
X Units: Wavelength (micrometer)
Y Units: Reflectance (percentage)
First X Value: 0.35
Last X Value: 2.5
Number of X Values: 2151
Additional Information: 

 0.3500	 7.0790
 0.3510	 5.9180
 0.3520	 6.2480
 0.3530	 6.9980
 0.3540	 6.7900
 0.3550	 6.4460
 0.3560	 6.1000
 0.3570	 6.1180
 0.3580	 6.6970
 0.3590	 6.0070
 0.3600	 5.5840
 0.3610	 6.0910
 0.3620	 6.5020
 0.3630	 6.1280
 0.3640	 5.7100
 0.3650	 6.0000
 0.3660	 6.2160
 0.3670	 6.1770
 0.3680	 6.2080
 0.3690	 6.8210
 0.3700	 6.3680
 0.3710	 6.2140
 0.3720	 6.8850
 0.3730	 6.8120
 0.3740	 6.7960
 0.3750	 6.6940
 0.3760	 6.2990
 0.3770	 6.5550
 0.3780	 6.4520
 0.3790	 5.9650
 0.3800	 5.9290
 0.3810	 6.5180
 0.3820	 6.7030
 0.3830	 6.2130
 0.3840	 6.9240
 0.3850	 7.2620
 0.3860	 7.0970
 0.3870	 6.8230
 0.3880	 6.8320
 0.3890	 6.6650
 0.3900	 6.3270
 0.3910	 6.3400
 0.3920	 6.2850
 0.3930	 6.2200
 0.3940	 6.2790
 0.3950	 6.5810
 0.3960	 6.7440
 0.3970	 6.6310
 0.3980	 6.3190
 0.3990	 6.4630
 0.4000	 6.5720
 0.4010	 6.4590
 0.4020	 6.4500
 0.4030	 6.4490
 0.4040	 6.3810
 0.4050	 6.2490
 0.4060	 6.3290
 0.4070	 6.2410
 0.4080	 6.0670
 0.4090	 6.1690
 0.4100	 6.4060
 0.4110	 6.4490
 0.4120	 6.2280
 0.4130	 6.1610
 0.4140	 5.9750
 0.4150	 5.9370
 0.4160	 6.2790
 0.4170	 6.2810
 0.4180	 6.1830
 0.4190	 6.1470
 0.4200	 6.2060
 0.4210	 6.0970
 0.4220	 5.9580
 0.4230	 5.9400
 0.4240	 6.0410
 0.4250	 6.1110
 0.4260	 6.0980
 0.4270	 6.0080
 0.4280	 5.8800
 0.4290	 5.8910
 0.4300	 6.0100
 0.4310	 5.9130
 0.4320	 5.9070
 0.4330	 5.9310
 0.4340	 5.8800
 0.4350	 5.8230
 0.4360	 5.8160
 0.4370	 5.8320
 0.4380	 5.7900
 0.4390	 5.7440
 0.4400	 5.7310
 0.4410	 5.7670
 0.4420	 5.8540
 0.4430	 5.7760
 0.4440	 5.6180
 0.4450	 5.5620
 0.4460	 5.5640
 0.4470	 5.6240
 0.4480	 5.6750
 0.4490	 5.5770
 0.4500	 5.5770
 0.4510	 5.6520
 0.4520	 5.6970
 0.4530	 5.5570
 0.4540	 5.4620
 0.4550	 5.4910
 0.4560	 5.5890
 0.4570	 5.4990
 0.4580	 5.4670
 0.4590	 5.5800
 0.4600	 5.5170
 0.4610	 5.4410
 0.4620	 5.4620
 0.4630	 5.6100
 0.4640	 5.5900
 0.4650	 5.4780
 0.4660	 5.3860
 0.4670	 5.4270
 0.4680	 5.4270
 0.4690	 5.3780
 0.4700	 5.3260
 0.4710	 5.3620
 0.4720	 5.3900
 0.4730	 5.3820
 0.4740	 5.3480
 0.4750	 5.2940
 0.4760	 5.2770
 0.4770	 5.3140
 0.4780	 5.3500
 0.4790	 5.3240
 0.4800	 5.3000
 0.4810	 5.3340
 0.4820	 5.2510
 0.4830	 5.2160
 0.4840	 5.2410
 0.4850	 5.2000
 0.4860	 5.2410
 0.4870	 5.2590
 0.4880	 5.1910
 0.4890	 5.2010
 0.4900	 5.2590
 0.4910	 5.3020
 0.4920	 5.2670
 0.4930	 5.2650
 0.4940	 5.2910
 0.4950	 5.3070
 0.4960	 5.2310
 0.4970	 5.2430
 0.4980	 5.3020
 0.4990	 5.3230
 0.5000	 5.3350
 0.5010	 5.3270
 0.5020	 5.3210
 0.5030	 5.3590
 0.5040	 5.3640
 0.5050	 5.3570
 0.5060	 5.3640
 0.5070	 5.3620
 0.5080	 5.3470
 0.5090	 5.3420
 0.5100	 5.3760
 0.5110	 5.4470
 0.5120	 5.4650
 0.5130	 5.4190
 0.5140	 5.4150
 0.5150	 5.4160
 0.5160	 5.4410
 0.5170	 5.4990
 0.5180	 5.5240
 0.5190	 5.5350
 0.5200	 5.5320
 0.5210	 5.5100
 0.5220	 5.5640
 0.5230	 5.6350
 0.5240	 5.6670
 0.5250	 5.6560
 0.5260	 5.6550
 0.5270	 5.6690
 0.5280	 5.6800
 0.5290	 5.7240
 0.5300	 5.7430
 0.5310	 5.7310
 0.5320	 5.7470
 0.5330	 5.7980
 0.5340	 5.8510
 0.5350	 5.8770
 0.5360	 5.9070
 0.5370	 5.9390
 0.5380	 5.9710
 0.5390	 5.9960
 0.5400	 6.0330
 0.5410	 6.0680
 0.5420	 6.1040
 0.5430	 6.1920
 0.5440	 6.2660
 0.5450	 6.3060
 0.5460	 6.3260
 0.5470	 6.4320
 0.5480	 6.5480
 0.5490	 6.6310
 0.5500	 6.6980
 0.5510	 6.7930
 0.5520	 6.9140
 0.5530	 7.0460
 0.5540	 7.1650
 0.5550	 7.2940
 0.5560	 7.4460
 0.5570	 7.6170
 0.5580	 7.7770
 0.5590	 7.9600
 0.5600	 8.1830
 0.5610	 8.4190
 0.5620	 8.6620
 0.5630	 8.9230
 0.5640	 9.2120
 0.5650	 9.5180
 0.5660	 9.8280
 0.5670	10.1520
 0.5680	10.5280
 0.5690	10.9090
 0.5700	11.2970
 0.5710	11.7070
 0.5720	12.1470
 0.5730	12.6450
 0.5740	13.1780
 0.5750	13.6910
 0.5760	14.2360
 0.5770	14.8130
 0.5780	15.4200
 0.5790	16.0620
 0.5800	16.7220
 0.5810	17.3820
 0.5820	18.0260
 0.5830	18.6740
 0.5840	19.3400
 0.5850	20.0380
 0.5860	20.7700
 0.5870	21.5310
 0.5880	22.3040
 0.5890	23.0880
 0.5900	23.9210
 0.5910	24.7390
 0.5920	25.5270
 0.5930	26.3100
 0.5940	27.1000
 0.5950	27.8760
 0.5960	28.6330
 0.5970	29.4060
 0.5980	30.1510
 0.5990	30.8690
 0.6000	31.5720
 0.6010	32.2330
 0.6020	32.8990
 0.6030	33.5630
 0.6040	34.1680
 0.6050	34.7520
 0.6060	35.3000
 0.6070	35.8020
 0.6080	36.2920
 0.6090	36.7190
 0.6100	37.0800
 0.6110	37.4030
 0.6120	37.7340
 0.6130	38.0740
 0.6140	38.4010
 0.6150	38.6680
 0.6160	38.9100
 0.6170	39.1430
 0.6180	39.3740
 0.6190	39.5930
 0.6200	39.8070
 0.6210	40.0120
 0.6220	40.1940
 0.6230	40.3930
 0.6240	40.6050
 0.6250	40.8210
 0.6260	41.0350
 0.6270	41.2350
 0.6280	41.4250
 0.6290	41.6170
 0.6300	41.8090
 0.6310	42.0030
 0.6320	42.1920
 0.6330	42.3630
 0.6340	42.4970
 0.6350	42.6110
 0.6360	42.7150
 0.6370	42.7760
 0.6380	42.7970
 0.6390	42.7800
 0.6400	42.7280
 0.6410	42.6450
 0.6420	42.5300
 0.6430	42.3850
 0.6440	42.2180
 0.6450	42.0070
 0.6460	41.7710
 0.6470	41.5380
 0.6480	41.3120
 0.6490	41.0750
 0.6500	40.8380
 0.6510	40.6300
 0.6520	40.4040
 0.6530	40.1510
 0.6540	39.8650
 0.6550	39.5540
 0.6560	39.1910
 0.6570	38.7540
 0.6580	38.2280
 0.6590	37.6190
 0.6600	36.9640
 0.6610	36.2740
 0.6620	35.5320
 0.6630	34.7540
 0.6640	33.9640
 0.6650	33.1870
 0.6660	32.4430
 0.6670	31.7490
 0.6680	31.1130
 0.6690	30.5340
 0.6700	30.0260
 0.6710	29.5970
 0.6720	29.2500
 0.6730	28.9740
 0.6740	28.7440
 0.6750	28.5700
 0.6760	28.4580
 0.6770	28.3740
 0.6780	28.3540
 0.6790	28.4370
 0.6800	28.6580
 0.6810	29.0030
 0.6820	29.5200
 0.6830	30.2510
 0.6840	31.2080
 0.6850	32.4190
 0.6860	33.8380
 0.6870	35.4090
 0.6880	37.1530
 0.6890	39.0160
 0.6900	40.9510
 0.6910	42.9070
 0.6920	44.8410
 0.6930	46.7440
 0.6940	48.6080
 0.6950	50.4100
 0.6960	52.1400
 0.6970	53.7990
 0.6980	55.3900
 0.6990	56.8930
 0.7000	58.3190
 0.7010	59.6760
 0.7020	60.9530
 0.7030	62.0740
 0.7040	63.1250
 0.7050	64.1690
 0.7060	65.1470
 0.7070	66.0780
 0.7080	66.9370
 0.7090	67.7060
 0.7100	68.4620
 0.7110	69.1960
 0.7120	69.8970
 0.7130	70.5560
 0.7140	71.1790
 0.7150	71.7730
 0.7160	72.3420
 0.7170	72.8950
 0.7180	73.4250
 0.7190	73.9170
 0.7200	74.3640
 0.7210	74.8260
 0.7220	75.2700
 0.7230	75.6750
 0.7240	76.0440
 0.7250	76.3930
 0.7260	76.7170
 0.7270	77.0110
 0.7280	77.2700
 0.7290	77.5280
 0.7300	77.7700
 0.7310	77.9620
 0.7320	78.1320
 0.7330	78.2900
 0.7340	78.4400
 0.7350	78.5800
 0.7360	78.7240
 0.7370	78.8360
 0.7380	78.9100
 0.7390	79.0400
 0.7400	79.1770
 0.7410	79.2900
 0.7420	79.3690
 0.7430	79.4700
 0.7440	79.5470
 0.7450	79.6030
 0.7460	79.6890
 0.7470	79.7620
 0.7480	79.8140
 0.7490	79.8500
 0.7500	79.9030
 0.7510	79.9520
 0.7520	79.9830
 0.7530	79.9930
 0.7540	80.0410
 0.7550	80.0720
 0.7560	80.0840
 0.7570	80.1140
 0.7580	80.1190
 0.7590	80.1190
 0.7600	80.1330
 0.7610	80.1630
 0.7620	80.1910
 0.7630	80.2090
 0.7640	80.2150
 0.7650	80.2260
 0.7660	80.2280
 0.7670	80.2320
 0.7680	80.2620
 0.7690	80.2920
 0.7700	80.3240
 0.7710	80.3450
 0.7720	80.3160
 0.7730	80.3170
 0.7740	80.3540
 0.7750	80.3990
 0.7760	80.3710
 0.7770	80.3690
 0.7780	80.4050
 0.7790	80.4450
 0.7800	80.4700
 0.7810	80.5010
 0.7820	80.5380
 0.7830	80.5600
 0.7840	80.5850
 0.7850	80.6160
 0.7860	80.6460
 0.7870	80.6560
 0.7880	80.6860
 0.7890	80.7490
 0.7900	80.8300
 0.7910	80.8390
 0.7920	80.8480
 0.7930	80.8730
 0.7940	80.8930
 0.7950	80.9590
 0.7960	81.0310
 0.7970	81.0760
 0.7980	81.0850
 0.7990	81.1020
 0.8000	81.1570
 0.8010	81.2460
 0.8020	81.2680
 0.8030	81.2860
 0.8040	81.3160
 0.8050	81.3510
 0.8060	81.3690
 0.8070	81.3950
 0.8080	81.4290
 0.8090	81.4510
 0.8100	81.4770
 0.8110	81.5190
 0.8120	81.5660
 0.8130	81.5730
 0.8140	81.5680
 0.8150	81.5940
 0.8160	81.6600
 0.8170	81.6710
 0.8180	81.6620
 0.8190	81.6460
 0.8200	81.6330
 0.8210	81.6480
 0.8220	81.6500
 0.8230	81.6310
 0.8240	81.6160
 0.8250	81.5980
 0.8260	81.5810
 0.8270	81.5510
 0.8280	81.4650
 0.8290	81.3750
 0.8300	81.3100
 0.8310	81.2760
 0.8320	81.2300
 0.8330	81.1650
 0.8340	81.1020
 0.8350	81.0750
 0.8360	81.0630
 0.8370	81.0620
 0.8380	81.0680
 0.8390	81.0720
 0.8400	81.0150
 0.8410	80.9670
 0.8420	80.9690
 0.8430	80.9970
 0.8440	80.9920
 0.8450	80.9790
 0.8460	80.9830
 0.8470	80.9760
 0.8480	80.9580
 0.8490	80.9370
 0.8500	80.9200
 0.8510	80.9050
 0.8520	80.8860
 0.8530	80.8710
 0.8540	80.8690
 0.8550	80.8520
 0.8560	80.8360
 0.8570	80.8310
 0.8580	80.8310
 0.8590	80.8050
 0.8600	80.7870
 0.8610	80.7850
 0.8620	80.7450
 0.8630	80.7050
 0.8640	80.6650
 0.8650	80.6240
 0.8660	80.6190
 0.8670	80.5930
 0.8680	80.5460
 0.8690	80.5030
 0.8700	80.4780
 0.8710	80.4300
 0.8720	80.3950
 0.8730	80.4260
 0.8740	80.3750
 0.8750	80.2840
 0.8760	80.2100
 0.8770	80.1910
 0.8780	80.1500
 0.8790	80.0910
 0.8800	80.0280
 0.8810	79.9630
 0.8820	79.9220
 0.8830	79.8570
 0.8840	79.7650
 0.8850	79.7670
 0.8860	79.7140
 0.8870	79.6270
 0.8880	79.5600
 0.8890	79.5100
 0.8900	79.4720
 0.8910	79.4250
 0.8920	79.3490
 0.8930	79.2690
 0.8940	79.2170
 0.8950	79.1750
 0.8960	79.0990
 0.8970	79.0460
 0.8980	79.0100
 0.8990	78.9620
 0.9000	78.8650
 0.9010	78.7770
 0.9020	78.7300
 0.9030	78.7040
 0.9040	78.6270
 0.9050	78.6130
 0.9060	78.5600
 0.9070	78.4240
 0.9080	78.3460
 0.9090	78.2880
 0.9100	78.2420
 0.9110	78.1890
 0.9120	78.0700
 0.9130	77.9700
 0.9140	77.8830
 0.9150	77.7780
 0.9160	77.6450
 0.9170	77.5770
 0.9180	77.5120
 0.9190	77.3500
 0.9200	77.1730
 0.9210	77.0270
 0.9220	76.8690
 0.9230	76.6390
 0.9240	76.4950
 0.9250	76.3230
 0.9260	76.1170
 0.9270	75.9410
 0.9280	75.6730
 0.9290	75.4080
 0.9300	75.1560
 0.9310	74.8400
 0.9320	74.5130
 0.9330	74.2300
 0.9340	73.9870
 0.9350	73.7120
 0.9360	73.3600
 0.9370	73.0180
 0.9380	72.7030
 0.9390	72.3140
 0.9400	71.9110
 0.9410	71.5380
 0.9420	71.2150
 0.9430	70.9150
 0.9440	70.4970
 0.9450	70.0340
 0.9460	69.6130
 0.9470	69.2370
 0.9480	68.7130
 0.9490	68.1270
 0.9500	67.5880
 0.9510	67.0650
 0.9520	66.5230
 0.9530	65.9830
 0.9540	65.4620
 0.9550	64.9090
 0.9560	64.4320
 0.9570	64.0500
 0.9580	63.7190
 0.9590	63.3320
 0.9600	62.9510
 0.9610	62.6690
 0.9620	62.5230
 0.9630	62.3020
 0.9640	62.1610
 0.9650	62.0440
 0.9660	61.8620
 0.9670	61.7670
 0.9680	61.6770
 0.9690	61.6150
 0.9700	61.6100
 0.9710	61.5350
 0.9720	61.4070
 0.9730	61.3270
 0.9740	61.3860
 0.9750	61.4850
 0.9760	61.4930
 0.9770	61.4130
 0.9780	61.3410
 0.9790	61.4370
 0.9800	61.5000
 0.9810	61.5100
 0.9820	61.5440
 0.9830	61.6340
 0.9840	61.6640
 0.9850	61.7140
 0.9860	61.9060
 0.9870	62.0610
 0.9880	62.1890
 0.9890	62.2680
 0.9900	62.2850
 0.9910	62.3430
 0.9920	62.4730
 0.9930	62.6500
 0.9940	62.8190
 0.9950	62.9560
 0.9960	63.1070
 0.9970	63.2140
 0.9980	63.2400
 0.9990	63.4550
 1.0000	63.6610
 1.0010	63.0360
 1.0020	63.1980
 1.0030	63.4020
 1.0040	63.5790
 1.0050	63.7660
 1.0060	63.9740
 1.0070	64.1490
 1.0080	64.3380
 1.0090	64.5290
 1.0100	64.7320
 1.0110	64.9340
 1.0120	65.1450
 1.0130	65.3700
 1.0140	65.5990
 1.0150	65.8370
 1.0160	66.0870
 1.0170	66.3150
 1.0180	66.4940
 1.0190	66.6620
 1.0200	66.8290
 1.0210	67.0350
 1.0220	67.2890
 1.0230	67.5070
 1.0240	67.7430
 1.0250	67.9370
 1.0260	68.0790
 1.0270	68.2630
 1.0280	68.4510
 1.0290	68.6500
 1.0300	68.8790
 1.0310	69.0800
 1.0320	69.2770
 1.0330	69.4390
 1.0340	69.6340
 1.0350	69.8490
 1.0360	70.0110
 1.0370	70.1830
 1.0380	70.3490
 1.0390	70.4760
 1.0400	70.6300
 1.0410	70.8130
 1.0420	70.9780
 1.0430	71.1430
 1.0440	71.2860
 1.0450	71.4160
 1.0460	71.5470
 1.0470	71.6450
 1.0480	71.7740
 1.0490	71.9330
 1.0500	72.0720
 1.0510	72.2260
 1.0520	72.3590
 1.0530	72.4720
 1.0540	72.5550
 1.0550	72.6580
 1.0560	72.7600
 1.0570	72.8460
 1.0580	72.9450
 1.0590	73.0110
 1.0600	73.0410
 1.0610	73.0800
 1.0620	73.1020
 1.0630	73.1380
 1.0640	73.1860
 1.0650	73.2190
 1.0660	73.2550
 1.0670	73.2810
 1.0680	73.2980
 1.0690	73.3020
 1.0700	73.3000
 1.0710	73.2930
 1.0720	73.2730
 1.0730	73.2300
 1.0740	73.2080
 1.0750	73.1860
 1.0760	73.1700
 1.0770	73.1770
 1.0780	73.1570
 1.0790	73.1340
 1.0800	73.0920
 1.0810	73.0290
 1.0820	72.9640
 1.0830	72.8970
 1.0840	72.8130
 1.0850	72.7160
 1.0860	72.6110
 1.0870	72.5060
 1.0880	72.3800
 1.0890	72.2820
 1.0900	72.2080
 1.0910	72.1000
 1.0920	71.9910
 1.0930	71.8760
 1.0940	71.7430
 1.0950	71.6080
 1.0960	71.4610
 1.0970	71.3340
 1.0980	71.2080
 1.0990	71.0780
 1.1000	70.9830
 1.1010	70.8530
 1.1020	70.6960
 1.1030	70.5360
 1.1040	70.3880
 1.1050	70.2140
 1.1060	70.0490
 1.1070	69.8830
 1.1080	69.7270
 1.1090	69.5680
 1.1100	69.4180
 1.1110	69.2920
 1.1120	69.1340
 1.1130	68.9730
 1.1140	68.7930
 1.1150	68.5910
 1.1160	68.3880
 1.1170	68.1850
 1.1180	67.9540
 1.1190	67.7110
 1.1200	67.4500
 1.1210	67.1740
 1.1220	66.8870
 1.1230	66.5670
 1.1240	66.2190
 1.1250	65.8300
 1.1260	65.3960
 1.1270	64.9400
 1.1280	64.4650
 1.1290	63.9440
 1.1300	63.3950
 1.1310	62.8000
 1.1320	62.1560
 1.1330	61.4840
 1.1340	60.7750
 1.1350	60.0420
 1.1360	59.2630
 1.1370	58.4840
 1.1380	57.7060
 1.1390	56.9100
 1.1400	56.1270
 1.1410	55.3560
 1.1420	54.5840
 1.1430	53.8330
 1.1440	53.1250
 1.1450	52.4400
 1.1460	51.7930
 1.1470	51.1710
 1.1480	50.6010
 1.1490	50.0670
 1.1500	49.5790
 1.1510	49.1420
 1.1520	48.7350
 1.1530	48.3620
 1.1540	48.0280
 1.1550	47.7290
 1.1560	47.4740
 1.1570	47.2600
 1.1580	47.0620
 1.1590	46.8760
 1.1600	46.7160
 1.1610	46.5650
 1.1620	46.4380
 1.1630	46.3420
 1.1640	46.2580
 1.1650	46.1840
 1.1660	46.1330
 1.1670	46.0690
 1.1680	46.0020
 1.1690	45.9480
 1.1700	45.8970
 1.1710	45.8570
 1.1720	45.8410
 1.1730	45.8110
 1.1740	45.7840
 1.1750	45.7470
 1.1760	45.7070
 1.1770	45.6670
 1.1780	45.6300
 1.1790	45.5840
 1.1800	45.5350
 1.1810	45.4890
 1.1820	45.4390
 1.1830	45.3920
 1.1840	45.3550
 1.1850	45.3210
 1.1860	45.2870
 1.1870	45.2570
 1.1880	45.2240
 1.1890	45.1790
 1.1900	45.1570
 1.1910	45.1440
 1.1920	45.1350
 1.1930	45.1470
 1.1940	45.1460
 1.1950	45.1400
 1.1960	45.1340
 1.1970	45.1170
 1.1980	45.1070
 1.1990	45.1080
 1.2000	45.1150
 1.2010	45.1430
 1.2020	45.1750
 1.2030	45.2070
 1.2040	45.2480
 1.2050	45.2790
 1.2060	45.3100
 1.2070	45.3480
 1.2080	45.3840
 1.2090	45.4260
 1.2100	45.4770
 1.2110	45.5260
 1.2120	45.5720
 1.2130	45.6230
 1.2140	45.6740
 1.2150	45.7300
 1.2160	45.7900
 1.2170	45.8570
 1.2180	45.9160
 1.2190	45.9780
 1.2200	46.0310
 1.2210	46.0740
 1.2220	46.1320
 1.2230	46.1930
 1.2240	46.2460
 1.2250	46.3070
 1.2260	46.3600
 1.2270	46.4150
 1.2280	46.4840
 1.2290	46.5540
 1.2300	46.6240
 1.2310	46.6850
 1.2320	46.7440
 1.2330	46.8060
 1.2340	46.8660
 1.2350	46.9230
 1.2360	46.9810
 1.2370	47.0400
 1.2380	47.0970
 1.2390	47.1480
 1.2400	47.2000
 1.2410	47.2590
 1.2420	47.3130
 1.2430	47.3730
 1.2440	47.4340
 1.2450	47.4850
 1.2460	47.5310
 1.2470	47.5720
 1.2480	47.6250
 1.2490	47.6870
 1.2500	47.7390
 1.2510	47.7840
 1.2520	47.8180
 1.2530	47.8420
 1.2540	47.8710
 1.2550	47.9130
 1.2560	47.9570
 1.2570	48.0010
 1.2580	48.0370
 1.2590	48.0690
 1.2600	48.1030
 1.2610	48.1210
 1.2620	48.1260
 1.2630	48.1330
 1.2640	48.1410
 1.2650	48.1380
 1.2660	48.1450
 1.2670	48.1530
 1.2680	48.1430
 1.2690	48.1290
 1.2700	48.1000
 1.2710	48.0590
 1.2720	48.0180
 1.2730	47.9680
 1.2740	47.9260
 1.2750	47.8860
 1.2760	47.8350
 1.2770	47.7780
 1.2780	47.7100
 1.2790	47.6330
 1.2800	47.5570
 1.2810	47.4810
 1.2820	47.3930
 1.2830	47.3090
 1.2840	47.2140
 1.2850	47.1070
 1.2860	47.0100
 1.2870	46.9000
 1.2880	46.7780
 1.2890	46.6550
 1.2900	46.5350
 1.2910	46.4000
 1.2920	46.2720
 1.2930	46.1400
 1.2940	45.9920
 1.2950	45.8350
 1.2960	45.6690
 1.2970	45.4930
 1.2980	45.3140
 1.2990	45.1290
 1.3000	44.9480
 1.3010	44.7610
 1.3020	44.5540
 1.3030	44.3360
 1.3040	44.1110
 1.3050	43.8840
 1.3060	43.6610
 1.3070	43.4300
 1.3080	43.1850
 1.3090	42.9320
 1.3100	42.6680
 1.3110	42.4060
 1.3120	42.1480
 1.3130	41.8810
 1.3140	41.6020
 1.3150	41.3140
 1.3160	41.0220
 1.3170	40.7200
 1.3180	40.4160
 1.3190	40.1140
 1.3200	39.7970
 1.3210	39.4760
 1.3220	39.1570
 1.3230	38.8400
 1.3240	38.5240
 1.3250	38.2040
 1.3260	37.8810
 1.3270	37.5380
 1.3280	37.1990
 1.3290	36.8710
 1.3300	36.5430
 1.3310	36.2260
 1.3320	35.9150
 1.3330	35.6080
 1.3340	35.2990
 1.3350	34.9880
 1.3360	34.6830
 1.3370	34.3780
 1.3380	34.0730
 1.3390	33.7820
 1.3400	33.5010
 1.3410	33.2290
 1.3420	32.9640
 1.3430	32.7030
 1.3440	32.4420
 1.3450	32.1900
 1.3460	31.9410
 1.3470	31.7030
 1.3480	31.4740
 1.3490	31.2470
 1.3500	31.0260
 1.3510	30.8110
 1.3520	30.5990
 1.3530	30.3920
 1.3540	30.1860
 1.3550	29.9730
 1.3560	29.7670
 1.3570	29.5610
 1.3580	29.3500
 1.3590	29.1380
 1.3600	28.9140
 1.3610	28.6810
 1.3620	28.4450
 1.3630	28.2030
 1.3640	27.9550
 1.3650	27.6930
 1.3660	27.4250
 1.3670	27.1430
 1.3680	26.8450
 1.3690	26.5320
 1.3700	26.1970
 1.3710	25.8440
 1.3720	25.4720
 1.3730	25.0810
 1.3740	24.6760
 1.3750	24.2540
 1.3760	23.8130
 1.3770	23.3510
 1.3780	22.8660
 1.3790	22.3660
 1.3800	21.8470
 1.3810	21.3100
 1.3820	20.7690
 1.3830	20.2160
 1.3840	19.6560
 1.3850	19.0840
 1.3860	18.5180
 1.3870	17.9420
 1.3880	17.3800
 1.3890	16.8210
 1.3900	16.2720
 1.3910	15.7410
 1.3920	15.2190
 1.3930	14.7150
 1.3940	14.2300
 1.3950	13.7600
 1.3960	13.3120
 1.3970	12.8880
 1.3980	12.4850
 1.3990	12.1090
 1.4000	11.7500
 1.4010	11.4170
 1.4020	11.1070
 1.4030	10.8100
 1.4040	10.5300
 1.4050	10.2680
 1.4060	10.0230
 1.4070	 9.8030
 1.4080	 9.6030
 1.4090	 9.4180
 1.4100	 9.2450
 1.4110	 9.0830
 1.4120	 8.9360
 1.4130	 8.8010
 1.4140	 8.6800
 1.4150	 8.5740
 1.4160	 8.4690
 1.4170	 8.3660
 1.4180	 8.2700
 1.4190	 8.1780
 1.4200	 8.0920
 1.4210	 8.0190
 1.4220	 7.9590
 1.4230	 7.9000
 1.4240	 7.8450
 1.4250	 7.7930
 1.4260	 7.7400
 1.4270	 7.6920
 1.4280	 7.6490
 1.4290	 7.6100
 1.4300	 7.5720
 1.4310	 7.5400
 1.4320	 7.5140
 1.4330	 7.4870
 1.4340	 7.4660
 1.4350	 7.4440
 1.4360	 7.4230
 1.4370	 7.4010
 1.4380	 7.3800
 1.4390	 7.3620
 1.4400	 7.3490
 1.4410	 7.3390
 1.4420	 7.3340
 1.4430	 7.3260
 1.4440	 7.3160
 1.4450	 7.3080
 1.4460	 7.3010
 1.4470	 7.3000
 1.4480	 7.3030
 1.4490	 7.3070
 1.4500	 7.3090
 1.4510	 7.3120
 1.4520	 7.3120
 1.4530	 7.3120
 1.4540	 7.3140
 1.4550	 7.3200
 1.4560	 7.3310
 1.4570	 7.3430
 1.4580	 7.3620
 1.4590	 7.3780
 1.4600	 7.3940
 1.4610	 7.4130
 1.4620	 7.4290
 1.4630	 7.4520
 1.4640	 7.4810
 1.4650	 7.5130
 1.4660	 7.5500
 1.4670	 7.5840
 1.4680	 7.6210
 1.4690	 7.6590
 1.4700	 7.6990
 1.4710	 7.7460
 1.4720	 7.7910
 1.4730	 7.8370
 1.4740	 7.8880
 1.4750	 7.9360
 1.4760	 7.9900
 1.4770	 8.0470
 1.4780	 8.1040
 1.4790	 8.1690
 1.4800	 8.2330
 1.4810	 8.2990
 1.4820	 8.3690
 1.4830	 8.4370
 1.4840	 8.5010
 1.4850	 8.5650
 1.4860	 8.6320
 1.4870	 8.7010
 1.4880	 8.7750
 1.4890	 8.8520
 1.4900	 8.9280
 1.4910	 9.0040
 1.4920	 9.0800
 1.4930	 9.1580
 1.4940	 9.2380
 1.4950	 9.3150
 1.4960	 9.3980
 1.4970	 9.4880
 1.4980	 9.5700
 1.4990	 9.6530
 1.5000	 9.7340
 1.5010	 9.8070
 1.5020	 9.8900
 1.5030	 9.9770
 1.5040	10.0650
 1.5050	10.1620
 1.5060	10.2530
 1.5070	10.3430
 1.5080	10.4320
 1.5090	10.5190
 1.5100	10.6070
 1.5110	10.6980
 1.5120	10.7920
 1.5130	10.8880
 1.5140	10.9840
 1.5150	11.0770
 1.5160	11.1740
 1.5170	11.2680
 1.5180	11.3610
 1.5190	11.4540
 1.5200	11.5490
 1.5210	11.6480
 1.5220	11.7460
 1.5230	11.8450
 1.5240	11.9440
 1.5250	12.0380
 1.5260	12.1420
 1.5270	12.2460
 1.5280	12.3450
 1.5290	12.4490
 1.5300	12.5490
 1.5310	12.6460
 1.5320	12.7450
 1.5330	12.8390
 1.5340	12.9330
 1.5350	13.0290
 1.5360	13.1260
 1.5370	13.2270
 1.5380	13.3280
 1.5390	13.4290
 1.5400	13.5290
 1.5410	13.6280
 1.5420	13.7300
 1.5430	13.8280
 1.5440	13.9300
 1.5450	14.0330
 1.5460	14.1320
 1.5470	14.2310
 1.5480	14.3300
 1.5490	14.4290
 1.5500	14.5240
 1.5510	14.6230
 1.5520	14.7200
 1.5530	14.8100
 1.5540	14.9050
 1.5550	14.9960
 1.5560	15.0900
 1.5570	15.1910
 1.5580	15.2880
 1.5590	15.3930
 1.5600	15.4920
 1.5610	15.5820
 1.5620	15.6780
 1.5630	15.7690
 1.5640	15.8590
 1.5650	15.9570
 1.5660	16.0520
 1.5670	16.1420
 1.5680	16.2370
 1.5690	16.3320
 1.5700	16.4210
 1.5710	16.5090
 1.5720	16.5980
 1.5730	16.6840
 1.5740	16.7690
 1.5750	16.8550
 1.5760	16.9370
 1.5770	17.0170
 1.5780	17.0970
 1.5790	17.1770
 1.5800	17.2610
 1.5810	17.3450
 1.5820	17.4280
 1.5830	17.5120
 1.5840	17.5930
 1.5850	17.6740
 1.5860	17.7550
 1.5870	17.8370
 1.5880	17.9160
 1.5890	17.9940
 1.5900	18.0660
 1.5910	18.1320
 1.5920	18.2050
 1.5930	18.2770
 1.5940	18.3570
 1.5950	18.4400
 1.5960	18.5190
 1.5970	18.5960
 1.5980	18.6670
 1.5990	18.7430
 1.6000	18.8180
 1.6010	18.8860
 1.6020	18.9550
 1.6030	19.0180
 1.6040	19.0770
 1.6050	19.1400
 1.6060	19.2050
 1.6070	19.2660
 1.6080	19.3270
 1.6090	19.3870
 1.6100	19.4550
 1.6110	19.5170
 1.6120	19.5780
 1.6130	19.6450
 1.6140	19.7040
 1.6150	19.7640
 1.6160	19.8350
 1.6170	19.8940
 1.6180	19.9510
 1.6190	20.0090
 1.6200	20.0570
 1.6210	20.1110
 1.6220	20.1720
 1.6230	20.2290
 1.6240	20.2830
 1.6250	20.3380
 1.6260	20.3890
 1.6270	20.4360
 1.6280	20.4900
 1.6290	20.5360
 1.6300	20.5740
 1.6310	20.6180
 1.6320	20.6600
 1.6330	20.7070
 1.6340	20.7610
 1.6350	20.8070
 1.6360	20.8490
 1.6370	20.8940
 1.6380	20.9370
 1.6390	20.9800
 1.6400	21.0250
 1.6410	21.0660
 1.6420	21.0990
 1.6430	21.1380
 1.6440	21.1820
 1.6450	21.2150
 1.6460	21.2510
 1.6470	21.2800
 1.6480	21.3020
 1.6490	21.3360
 1.6500	21.3720
 1.6510	21.4080
 1.6520	21.4490
 1.6530	21.4710
 1.6540	21.4850
 1.6550	21.5040
 1.6560	21.5270
 1.6570	21.5600
 1.6580	21.5930
 1.6590	21.6140
 1.6600	21.6300
 1.6610	21.6370
 1.6620	21.6440
 1.6630	21.6620
 1.6640	21.6790
 1.6650	21.6990
 1.6660	21.7230
 1.6670	21.7350
 1.6680	21.7460
 1.6690	21.7530
 1.6700	21.7590
 1.6710	21.7720
 1.6720	21.7830
 1.6730	21.7950
 1.6740	21.8010
 1.6750	21.8010
 1.6760	21.7980
 1.6770	21.7880
 1.6780	21.7830
 1.6790	21.7820
 1.6800	21.7780
 1.6810	21.7730
 1.6820	21.7700
 1.6830	21.7630
 1.6840	21.7460
 1.6850	21.7270
 1.6860	21.7090
 1.6870	21.6840
 1.6880	21.6700
 1.6890	21.6630
 1.6900	21.6440
 1.6910	21.6190
 1.6920	21.5960
 1.6930	21.5650
 1.6940	21.5450
 1.6950	21.5400
 1.6960	21.5180
 1.6970	21.4920
 1.6980	21.4580
 1.6990	21.4100
 1.7000	21.3660
 1.7010	21.3180
 1.7020	21.2760
 1.7030	21.2320
 1.7040	21.1950
 1.7050	21.1690
 1.7060	21.1310
 1.7070	21.0910
 1.7080	21.0490
 1.7090	21.0000
 1.7100	20.9570
 1.7110	20.9200
 1.7120	20.8760
 1.7130	20.8230
 1.7140	20.7660
 1.7150	20.7090
 1.7160	20.6550
 1.7170	20.6020
 1.7180	20.5430
 1.7190	20.4740
 1.7200	20.4090
 1.7210	20.3510
 1.7220	20.2960
 1.7230	20.2500
 1.7240	20.1980
 1.7250	20.1330
 1.7260	20.0720
 1.7270	20.0150
 1.7280	19.9550
 1.7290	19.8980
 1.7300	19.8260
 1.7310	19.7620
 1.7320	19.6960
 1.7330	19.6370
 1.7340	19.5920
 1.7350	19.5370
 1.7360	19.4850
 1.7370	19.4220
 1.7380	19.3480
 1.7390	19.2770
 1.7400	19.1970
 1.7410	19.1220
 1.7420	19.0520
 1.7430	18.9800
 1.7440	18.9120
 1.7450	18.8310
 1.7460	18.7430
 1.7470	18.6570
 1.7480	18.5630
 1.7490	18.4750
 1.7500	18.3920
 1.7510	18.3080
 1.7520	18.2240
 1.7530	18.1350
 1.7540	18.0440
 1.7550	17.9560
 1.7560	17.8620
 1.7570	17.7900
 1.7580	17.7240
 1.7590	17.6470
 1.7600	17.5730
 1.7610	17.4900
 1.7620	17.4080
 1.7630	17.3230
 1.7640	17.2480
 1.7650	17.1760
 1.7660	17.1070
 1.7670	17.0490
 1.7680	16.9880
 1.7690	16.9220
 1.7700	16.8650
 1.7710	16.8190
 1.7720	16.7650
 1.7730	16.7080
 1.7740	16.6580
 1.7750	16.6070
 1.7760	16.5560
 1.7770	16.5090
 1.7780	16.4670
 1.7790	16.4220
 1.7800	16.3890
 1.7810	16.3710
 1.7820	16.3490
 1.7830	16.3340
 1.7840	16.3100
 1.7850	16.2870
 1.7860	16.2610
 1.7870	16.2270
 1.7880	16.2020
 1.7890	16.1800
 1.7900	16.1680
 1.7910	16.1590
 1.7920	16.1620
 1.7930	16.1610
 1.7940	16.1540
 1.7950	16.1550
 1.7960	16.1630
 1.7970	16.1660
 1.7980	16.1750
 1.7990	16.1790
 1.8000	16.1750
 1.8010	16.1740
 1.8020	16.1750
 1.8030	16.1740
 1.8040	16.1710
 1.8050	16.1700
 1.8060	16.1680
 1.8070	16.1680
 1.8080	16.1700
 1.8090	16.1700
 1.8100	16.1710
 1.8110	16.1720
 1.8120	16.1810
 1.8130	16.1810
 1.8140	16.1760
 1.8150	16.1770
 1.8160	16.1730
 1.8170	16.1760
 1.8180	16.1910
 1.8190	16.1950
 1.8200	16.1910
 1.8210	16.1780
 1.8220	16.1630
 1.8230	16.1380
 1.8240	16.1160
 1.8250	16.0890
 1.8260	16.0720
 1.8270	16.0640
 1.8280	16.0480
 1.8290	16.0390
 1.8300	16.0170
 1.8310	15.9270
 1.8320	15.8860
 1.8330	15.8290
 1.8340	15.7720
 1.8350	15.7190
 1.8360	15.6850
 1.8370	15.6380
 1.8380	15.5900
 1.8390	15.5250
 1.8400	15.4330
 1.8410	15.3490
 1.8420	15.2590
 1.8430	15.1700
 1.8440	15.0980
 1.8450	15.0270
 1.8460	14.9350
 1.8470	14.8200
 1.8480	14.6740
 1.8490	14.5200
 1.8500	14.3670
 1.8510	14.2070
 1.8520	14.0480
 1.8530	13.8870
 1.8540	13.7090
 1.8550	13.5180
 1.8560	13.3330
 1.8570	13.1360
 1.8580	12.9160
 1.8590	12.7030
 1.8600	12.4890
 1.8610	12.2640
 1.8620	12.0370
 1.8630	11.8160
 1.8640	11.5630
 1.8650	11.2920
 1.8660	11.0060
 1.8670	10.7200
 1.8680	10.4470
 1.8690	10.1630
 1.8700	 9.8740
 1.8710	 9.5880
 1.8720	 9.2900
 1.8730	 8.9790
 1.8740	 8.6710
 1.8750	 8.3610
 1.8760	 8.0670
 1.8770	 7.7880
 1.8780	 7.5090
 1.8790	 7.2430
 1.8800	 6.9780
 1.8810	 6.7090
 1.8820	 6.4480
 1.8830	 6.2090
 1.8840	 5.9800
 1.8850	 5.7760
 1.8860	 5.5810
 1.8870	 5.3940
 1.8880	 5.2290
 1.8890	 5.0660
 1.8900	 4.9160
 1.8910	 4.7720
 1.8920	 4.6350
 1.8930	 4.5050
 1.8940	 4.4070
 1.8950	 4.3020
 1.8960	 4.2100
 1.8970	 4.1330
 1.8980	 4.0250
 1.8990	 3.9360
 1.9000	 3.8650
 1.9010	 3.8020
 1.9020	 3.7420
 1.9030	 3.7040
 1.9040	 3.6660
 1.9050	 3.6010
 1.9060	 3.5660
 1.9070	 3.5410
 1.9080	 3.5110
 1.9090	 3.5060
 1.9100	 3.5040
 1.9110	 3.4860
 1.9120	 3.4560
 1.9130	 3.4340
 1.9140	 3.4100
 1.9150	 3.3750
 1.9160	 3.3520
 1.9170	 3.3480
 1.9180	 3.3400
 1.9190	 3.3300
 1.9200	 3.3340
 1.9210	 3.3280
 1.9220	 3.3240
 1.9230	 3.3230
 1.9240	 3.3240
 1.9250	 3.3290
 1.9260	 3.3240
 1.9270	 3.3080
 1.9280	 3.3000
 1.9290	 3.2850
 1.9300	 3.2740
 1.9310	 3.2780
 1.9320	 3.2820
 1.9330	 3.2900
 1.9340	 3.3070
 1.9350	 3.3110
 1.9360	 3.3060
 1.9370	 3.3120
 1.9380	 3.3140
 1.9390	 3.3270
 1.9400	 3.3270
 1.9410	 3.3430
 1.9420	 3.3590
 1.9430	 3.3540
 1.9440	 3.3550
 1.9450	 3.3670
 1.9460	 3.3710
 1.9470	 3.3560
 1.9480	 3.3590
 1.9490	 3.3660
 1.9500	 3.3920
 1.9510	 3.4040
 1.9520	 3.4150
 1.9530	 3.4390
 1.9540	 3.4390
 1.9550	 3.4420
 1.9560	 3.4450
 1.9570	 3.4500
 1.9580	 3.4410
 1.9590	 3.4510
 1.9600	 3.4820
 1.9610	 3.4970
 1.9620	 3.5160
 1.9630	 3.5270
 1.9640	 3.5280
 1.9650	 3.5390
 1.9660	 3.5540
 1.9670	 3.5800
 1.9680	 3.6030
 1.9690	 3.6320
 1.9700	 3.6500
 1.9710	 3.6590
 1.9720	 3.6720
 1.9730	 3.6750
 1.9740	 3.6970
 1.9750	 3.7240
 1.9760	 3.7540
 1.9770	 3.7810
 1.9780	 3.7960
 1.9790	 3.8060
 1.9800	 3.8010
 1.9810	 3.8120
 1.9820	 3.8180
 1.9830	 3.8390
 1.9840	 3.8800
 1.9850	 3.9040
 1.9860	 3.9290
 1.9870	 3.9600
 1.9880	 3.9740
 1.9890	 3.9820
 1.9900	 4.0040
 1.9910	 4.0210
 1.9920	 4.0380
 1.9930	 4.0560
 1.9940	 4.0720
 1.9950	 4.0760
 1.9960	 4.1010
 1.9970	 4.1370
 1.9980	 4.1680
 1.9990	 4.2200
 2.0000	 4.2510
 2.0010	 4.2620
 2.0020	 4.2680
 2.0030	 4.2780
 2.0040	 4.2990
 2.0050	 4.3300
 2.0060	 4.3860
 2.0070	 4.4240
 2.0080	 4.4650
 2.0090	 4.4970
 2.0100	 4.5170
 2.0110	 4.5420
 2.0120	 4.5670
 2.0130	 4.5920
 2.0140	 4.6150
 2.0150	 4.6430
 2.0160	 4.6540
 2.0170	 4.6570
 2.0180	 4.6810
 2.0190	 4.7040
 2.0200	 4.7370
 2.0210	 4.8000
 2.0220	 4.8360
 2.0230	 4.8590
 2.0240	 4.8830
 2.0250	 4.8940
 2.0260	 4.9130
 2.0270	 4.9320
 2.0280	 4.9570
 2.0290	 4.9940
 2.0300	 5.0240
 2.0310	 5.0550
 2.0320	 5.0920
 2.0330	 5.1230
 2.0340	 5.1460
 2.0350	 5.1750
 2.0360	 5.2100
 2.0370	 5.2360
 2.0380	 5.2590
 2.0390	 5.2790
 2.0400	 5.2880
 2.0410	 5.3010
 2.0420	 5.3100
 2.0430	 5.3300
 2.0440	 5.3490
 2.0450	 5.3690
 2.0460	 5.4000
 2.0470	 5.4450
 2.0480	 5.4740
 2.0490	 5.4990
 2.0500	 5.5340
 2.0510	 5.5740
 2.0520	 5.6070
 2.0530	 5.6520
 2.0540	 5.6870
 2.0550	 5.7150
 2.0560	 5.7290
 2.0570	 5.7530
 2.0580	 5.7830
 2.0590	 5.8140
 2.0600	 5.8420
 2.0610	 5.8780
 2.0620	 5.9250
 2.0630	 5.9630
 2.0640	 6.0030
 2.0650	 6.0400
 2.0660	 6.0800
 2.0670	 6.1080
 2.0680	 6.1290
 2.0690	 6.1510
 2.0700	 6.1510
 2.0710	 6.1730
 2.0720	 6.2190
 2.0730	 6.2530
 2.0740	 6.2880
 2.0750	 6.3330
 2.0760	 6.3700
 2.0770	 6.3910
 2.0780	 6.4270
 2.0790	 6.4810
 2.0800	 6.5110
 2.0810	 6.5350
 2.0820	 6.5550
 2.0830	 6.5480
 2.0840	 6.5600
 2.0850	 6.5680
 2.0860	 6.5990
 2.0870	 6.6480
 2.0880	 6.7080
 2.0890	 6.7510
 2.0900	 6.8060
 2.0910	 6.8410
 2.0920	 6.8490
 2.0930	 6.8820
 2.0940	 6.9290
 2.0950	 6.9570
 2.0960	 6.9800
 2.0970	 7.0090
 2.0980	 7.0210
 2.0990	 7.0540
 2.1000	 7.1080
 2.1010	 7.1540
 2.1020	 7.2070
 2.1030	 7.2550
 2.1040	 7.2990
 2.1050	 7.3390
 2.1060	 7.3820
 2.1070	 7.4240
 2.1080	 7.4620
 2.1090	 7.5030
 2.1100	 7.5370
 2.1110	 7.5710
 2.1120	 7.5900
 2.1130	 7.5900
 2.1140	 7.6050
 2.1150	 7.6060
 2.1160	 7.6300
 2.1170	 7.6780
 2.1180	 7.7210
 2.1190	 7.7700
 2.1200	 7.8210
 2.1210	 7.8850
 2.1220	 7.9350
 2.1230	 7.9730
 2.1240	 8.0020
 2.1250	 8.0380
 2.1260	 8.0630
 2.1270	 8.0860
 2.1280	 8.1190
 2.1290	 8.1400
 2.1300	 8.1390
 2.1310	 8.1530
 2.1320	 8.1660
 2.1330	 8.1890
 2.1340	 8.2130
 2.1350	 8.2480
 2.1360	 8.3070
 2.1370	 8.3470
 2.1380	 8.3940
 2.1390	 8.4230
 2.1400	 8.4200
 2.1410	 8.4310
 2.1420	 8.4470
 2.1430	 8.4610
 2.1440	 8.4780
 2.1450	 8.5030
 2.1460	 8.5290
 2.1470	 8.5530
 2.1480	 8.5780
 2.1490	 8.6100
 2.1500	 8.6420
 2.1510	 8.6770
 2.1520	 8.7020
 2.1530	 8.7400
 2.1540	 8.7540
 2.1550	 8.7310
 2.1560	 8.7380
 2.1570	 8.7430
 2.1580	 8.7600
 2.1590	 8.8100
 2.1600	 8.8430
 2.1610	 8.8680
 2.1620	 8.9010
 2.1630	 8.9200
 2.1640	 8.9270
 2.1650	 8.9470
 2.1660	 8.9650
 2.1670	 8.9870
 2.1680	 9.0250
 2.1690	 9.0380
 2.1700	 9.0390
 2.1710	 9.0430
 2.1720	 9.0250
 2.1730	 9.0310
 2.1740	 9.0530
 2.1750	 9.0690
 2.1760	 9.1000
 2.1770	 9.1190
 2.1780	 9.1350
 2.1790	 9.1410
 2.1800	 9.1160
 2.1810	 9.1220
 2.1820	 9.1490
 2.1830	 9.1570
 2.1840	 9.1740
 2.1850	 9.2160
 2.1860	 9.2310
 2.1870	 9.2260
 2.1880	 9.2260
 2.1890	 9.2240
 2.1900	 9.2200
 2.1910	 9.2020
 2.1920	 9.2040
 2.1930	 9.2120
 2.1940	 9.2220
 2.1950	 9.2470
 2.1960	 9.2630
 2.1970	 9.2720
 2.1980	 9.2910
 2.1990	 9.3260
 2.2000	 9.3390
 2.2010	 9.3470
 2.2020	 9.3550
 2.2030	 9.3260
 2.2040	 9.3300
 2.2050	 9.3660
 2.2060	 9.3940
 2.2070	 9.4080
 2.2080	 9.4400
 2.2090	 9.4270
 2.2100	 9.3680
 2.2110	 9.3490
 2.2120	 9.3180
 2.2130	 9.3140
 2.2140	 9.3430
 2.2150	 9.3460
 2.2160	 9.3510
 2.2170	 9.3490
 2.2180	 9.3340
 2.2190	 9.3210
 2.2200	 9.3040
 2.2210	 9.2900
 2.2220	 9.2790
 2.2230	 9.2570
 2.2240	 9.2240
 2.2250	 9.2040
 2.2260	 9.1810
 2.2270	 9.1630
 2.2280	 9.1520
 2.2290	 9.1500
 2.2300	 9.1540
 2.2310	 9.1540
 2.2320	 9.1820
 2.2330	 9.2070
 2.2340	 9.2190
 2.2350	 9.2320
 2.2360	 9.2240
 2.2370	 9.2050
 2.2380	 9.1700
 2.2390	 9.1090
 2.2400	 9.0660
 2.2410	 9.0050
 2.2420	 8.9780
 2.2430	 8.9760
 2.2440	 8.9690
 2.2450	 8.9780
 2.2460	 8.9760
 2.2470	 8.9720
 2.2480	 8.9660
 2.2490	 8.9600
 2.2500	 8.9530
 2.2510	 8.9650
 2.2520	 8.9350
 2.2530	 8.8630
 2.2540	 8.8230
 2.2550	 8.7580
 2.2560	 8.7210
 2.2570	 8.7500
 2.2580	 8.7310
 2.2590	 8.6780
 2.2600	 8.6430
 2.2610	 8.6050
 2.2620	 8.5450
 2.2630	 8.5170
 2.2640	 8.5110
 2.2650	 8.4770
 2.2660	 8.4250
 2.2670	 8.4060
 2.2680	 8.3970
 2.2690	 8.3760
 2.2700	 8.3820
 2.2710	 8.3500
 2.2720	 8.2790
 2.2730	 8.2380
 2.2740	 8.1980
 2.2750	 8.1690
 2.2760	 8.1500
 2.2770	 8.1320
 2.2780	 8.1150
 2.2790	 8.1090
 2.2800	 8.1330
 2.2810	 8.1240
 2.2820	 8.1190
 2.2830	 8.0910
 2.2840	 8.0360
 2.2850	 7.9750
 2.2860	 7.8930
 2.2870	 7.8220
 2.2880	 7.7200
 2.2890	 7.6670
 2.2900	 7.6590
 2.2910	 7.6330
 2.2920	 7.6330
 2.2930	 7.6210
 2.2940	 7.5850
 2.2950	 7.5610
 2.2960	 7.5650
 2.2970	 7.5400
 2.2980	 7.5060
 2.2990	 7.4630
 2.3000	 7.3890
 2.3010	 7.3070
 2.3020	 7.2650
 2.3030	 7.2530
 2.3040	 7.2450
 2.3050	 7.2240
 2.3060	 7.1910
 2.3070	 7.1750
 2.3080	 7.1530
 2.3090	 7.1330
 2.3100	 7.0910
 2.3110	 7.0320
 2.3120	 7.0040
 2.3130	 6.9840
 2.3140	 6.9840
 2.3150	 7.0140
 2.3160	 7.0130
 2.3170	 7.0220
 2.3180	 7.0050
 2.3190	 6.9640
 2.3200	 6.9300
 2.3210	 6.8700
 2.3220	 6.8430
 2.3230	 6.8260
 2.3240	 6.8170
 2.3250	 6.8430
 2.3260	 6.8440
 2.3270	 6.8490
 2.3280	 6.8240
 2.3290	 6.7810
 2.3300	 6.7260
 2.3310	 6.6110
 2.3320	 6.5700
 2.3330	 6.5650
 2.3340	 6.5430
 2.3350	 6.5790
 2.3360	 6.5530
 2.3370	 6.4530
 2.3380	 6.4110
 2.3390	 6.3760
 2.3400	 6.3480
 2.3410	 6.3670
 2.3420	 6.3430
 2.3430	 6.2770
 2.3440	 6.2400
 2.3450	 6.2160
 2.3460	 6.1830
 2.3470	 6.1500
 2.3480	 6.1300
 2.3490	 6.0990
 2.3500	 6.0730
 2.3510	 6.0740
 2.3520	 6.0680
 2.3530	 6.0470
 2.3540	 6.0500
 2.3550	 6.0730
 2.3560	 6.0420
 2.3570	 6.0200
 2.3580	 6.0000
 2.3590	 5.9690
 2.3600	 5.9680
 2.3610	 5.9480
 2.3620	 5.9300
 2.3630	 5.8820
 2.3640	 5.8550
 2.3650	 5.8530
 2.3660	 5.7880
 2.3670	 5.7590
 2.3680	 5.7180
 2.3690	 5.6630
 2.3700	 5.6500
 2.3710	 5.6190
 2.3720	 5.5990
 2.3730	 5.6000
 2.3740	 5.6150
 2.3750	 5.5740
 2.3760	 5.5150
 2.3770	 5.4860
 2.3780	 5.4040
 2.3790	 5.3330
 2.3800	 5.3300
 2.3810	 5.3340
 2.3820	 5.3130
 2.3830	 5.3620
 2.3840	 5.4050
 2.3850	 5.3660
 2.3860	 5.4050
 2.3870	 5.3980
 2.3880	 5.3420
 2.3890	 5.3360
 2.3900	 5.2340
 2.3910	 5.1630
 2.3920	 5.1720
 2.3930	 5.1110
 2.3940	 5.1030
 2.3950	 5.1240
 2.3960	 5.0880
 2.3970	 5.1080
 2.3980	 5.0940
 2.3990	 4.9710
 2.4000	 4.9140
 2.4010	 4.8690
 2.4020	 4.7640
 2.4030	 4.8500
 2.4040	 4.9420
 2.4050	 4.9090
 2.4060	 4.9370
 2.4070	 4.8960
 2.4080	 4.8310
 2.4090	 4.8660
 2.4100	 4.9180
 2.4110	 4.8930
 2.4120	 4.8580
 2.4130	 4.7990
 2.4140	 4.6830
 2.4150	 4.7400
 2.4160	 4.7930
 2.4170	 4.7360
 2.4180	 4.8260
 2.4190	 4.8920
 2.4200	 4.9150
 2.4210	 4.9940
 2.4220	 4.9340
 2.4230	 4.7140
 2.4240	 4.4990
 2.4250	 4.4460
 2.4260	 4.4520
 2.4270	 4.4550
 2.4280	 4.4670
 2.4290	 4.3880
 2.4300	 4.2990
 2.4310	 4.2640
 2.4320	 4.2750
 2.4330	 4.2970
 2.4340	 4.2510
 2.4350	 4.1750
 2.4360	 4.1170
 2.4370	 4.0920
 2.4380	 4.1170
 2.4390	 4.1400
 2.4400	 4.2550
 2.4410	 4.3280
 2.4420	 4.2750
 2.4430	 4.3840
 2.4440	 4.4050
 2.4450	 4.2090
 2.4460	 4.2140
 2.4470	 4.3080
 2.4480	 4.2980
 2.4490	 4.4280
 2.4500	 4.4350
 2.4510	 4.2280
 2.4520	 4.1130
 2.4530	 4.0230
 2.4540	 4.0080
 2.4550	 4.0570
 2.4560	 4.0960
 2.4570	 4.0920
 2.4580	 4.0000
 2.4590	 3.8750
 2.4600	 3.7390
 2.4610	 3.6850
 2.4620	 3.6980
 2.4630	 3.6920
 2.4640	 3.6910
 2.4650	 3.6900
 2.4660	 3.7440
 2.4670	 3.8840
 2.4680	 4.0010
 2.4690	 3.9620
 2.4700	 3.8460
 2.4710	 3.5170
 2.4720	 3.3760
 2.4730	 3.2620
 2.4740	 3.2680
 2.4750	 3.4200
 2.4760	 3.5380
 2.4770	 3.7780
 2.4780	 3.9190
 2.4790	 4.0870
 2.4800	 4.1150
 2.4810	 3.9140
 2.4820	 3.9560
 2.4830	 4.0110
 2.4840	 3.9280
 2.4850	 3.7570
 2.4860	 3.6920
 2.4870	 3.6250
 2.4880	 3.5790
 2.4890	 3.9240
 2.4900	 4.0570
 2.4910	 3.9960
 2.4920	 4.3120
 2.4930	 4.1450
 2.4940	 3.6660
 2.4950	 3.4300
 2.4960	 3.2740
 2.4970	 3.3680
 2.4980	 3.7770
 2.4990	 4.3560
 2.5000	 4.3510
