Name: Eucalyptus maculata
Type: vegetation
Class: Tree
Genus: Eucalyptus
Species: maculata
Sample No.: JPL087
Owner: JPL
Wavelength Range: VSWIR
Origin: 34.12493; - 118.11447; WGS84
Collection Date: 2/2/2016
Description: Samples were collected at the Huntington Garden in San Marino California as part of a JPL Subcontract studying HyTES imagery. Samples were taken to JPL and processed within 48 hours of collection. The same leaves were processed in the Nicolet and then measured using the ASD.
Measurement: Bidirectional reflectance
First Column: X
Second Column: Y
X Units: Wavelength (micrometer)
Y Units: Reflectance (percentage)
First X Value: 0.35
Last X Value: 2.5
Number of X Values: 2151
Additional Information: 

 0.3500	 3.8970
 0.3510	 4.3580
 0.3520	 5.0430
 0.3530	 5.1530
 0.3540	 4.4210
 0.3550	 4.6720
 0.3560	 5.0350
 0.3570	 4.9600
 0.3580	 4.2780
 0.3590	 4.3800
 0.3600	 4.6400
 0.3610	 4.7380
 0.3620	 5.0500
 0.3630	 4.7910
 0.3640	 4.7460
 0.3650	 5.4970
 0.3660	 5.4790
 0.3670	 4.8430
 0.3680	 4.4900
 0.3690	 5.5300
 0.3700	 5.3480
 0.3710	 4.8820
 0.3720	 4.8330
 0.3730	 4.6340
 0.3740	 4.1700
 0.3750	 3.9990
 0.3760	 4.5580
 0.3770	 4.5980
 0.3780	 4.7750
 0.3790	 5.0410
 0.3800	 4.7740
 0.3810	 4.9890
 0.3820	 5.2400
 0.3830	 5.1300
 0.3840	 4.8480
 0.3850	 4.7990
 0.3860	 5.0370
 0.3870	 5.3410
 0.3880	 4.9720
 0.3890	 4.5070
 0.3900	 4.3150
 0.3910	 4.4360
 0.3920	 4.8720
 0.3930	 5.0840
 0.3940	 4.8460
 0.3950	 4.9670
 0.3960	 5.0090
 0.3970	 4.9850
 0.3980	 5.0810
 0.3990	 5.1590
 0.4000	 5.0360
 0.4010	 4.7550
 0.4020	 4.6410
 0.4030	 4.7960
 0.4040	 4.9010
 0.4050	 4.7490
 0.4060	 4.9020
 0.4070	 4.9750
 0.4080	 4.9620
 0.4090	 5.0910
 0.4100	 5.2560
 0.4110	 5.1450
 0.4120	 4.8150
 0.4130	 5.0200
 0.4140	 5.1580
 0.4150	 5.0780
 0.4160	 4.8860
 0.4170	 5.1830
 0.4180	 5.3720
 0.4190	 5.2960
 0.4200	 5.2420
 0.4210	 5.2540
 0.4220	 5.2130
 0.4230	 5.0860
 0.4240	 5.1510
 0.4250	 5.2150
 0.4260	 5.2590
 0.4270	 5.3250
 0.4280	 5.2870
 0.4290	 5.2350
 0.4300	 5.2230
 0.4310	 5.2290
 0.4320	 5.2200
 0.4330	 5.2340
 0.4340	 5.2900
 0.4350	 5.2700
 0.4360	 5.2610
 0.4370	 5.3010
 0.4380	 5.3790
 0.4390	 5.3510
 0.4400	 5.2590
 0.4410	 5.1820
 0.4420	 5.2160
 0.4430	 5.3160
 0.4440	 5.4010
 0.4450	 5.4030
 0.4460	 5.4250
 0.4470	 5.4050
 0.4480	 5.3560
 0.4490	 5.3930
 0.4500	 5.5150
 0.4510	 5.5990
 0.4520	 5.5500
 0.4530	 5.4570
 0.4540	 5.5080
 0.4550	 5.6020
 0.4560	 5.4840
 0.4570	 5.4140
 0.4580	 5.4590
 0.4590	 5.5640
 0.4600	 5.5080
 0.4610	 5.4500
 0.4620	 5.4610
 0.4630	 5.5440
 0.4640	 5.5230
 0.4650	 5.4760
 0.4660	 5.4710
 0.4670	 5.5450
 0.4680	 5.5650
 0.4690	 5.5040
 0.4700	 5.4100
 0.4710	 5.4910
 0.4720	 5.4530
 0.4730	 5.3760
 0.4740	 5.5020
 0.4750	 5.5610
 0.4760	 5.5940
 0.4770	 5.6050
 0.4780	 5.4840
 0.4790	 5.4340
 0.4800	 5.4970
 0.4810	 5.6130
 0.4820	 5.5500
 0.4830	 5.4940
 0.4840	 5.5140
 0.4850	 5.5530
 0.4860	 5.5280
 0.4870	 5.4880
 0.4880	 5.4840
 0.4890	 5.5100
 0.4900	 5.5520
 0.4910	 5.5950
 0.4920	 5.6210
 0.4930	 5.5600
 0.4940	 5.5270
 0.4950	 5.5700
 0.4960	 5.6100
 0.4970	 5.6220
 0.4980	 5.6440
 0.4990	 5.7070
 0.5000	 5.7280
 0.5010	 5.7000
 0.5020	 5.6790
 0.5030	 5.7610
 0.5040	 5.8620
 0.5050	 5.9320
 0.5060	 5.9510
 0.5070	 5.9550
 0.5080	 5.9690
 0.5090	 6.0170
 0.5100	 6.1100
 0.5110	 6.1760
 0.5120	 6.2510
 0.5130	 6.3460
 0.5140	 6.4330
 0.5150	 6.5610
 0.5160	 6.6690
 0.5170	 6.7190
 0.5180	 6.8770
 0.5190	 7.0450
 0.5200	 7.1740
 0.5210	 7.2630
 0.5220	 7.3860
 0.5230	 7.5330
 0.5240	 7.6760
 0.5250	 7.7910
 0.5260	 7.8930
 0.5270	 8.0260
 0.5280	 8.2250
 0.5290	 8.3570
 0.5300	 8.4380
 0.5310	 8.5010
 0.5320	 8.5770
 0.5330	 8.6660
 0.5340	 8.7410
 0.5350	 8.7920
 0.5360	 8.8670
 0.5370	 8.9380
 0.5380	 9.0010
 0.5390	 9.0650
 0.5400	 9.1110
 0.5410	 9.1530
 0.5420	 9.2020
 0.5430	 9.2440
 0.5440	 9.2880
 0.5450	 9.3230
 0.5460	 9.3370
 0.5470	 9.3280
 0.5480	 9.3040
 0.5490	 9.2870
 0.5500	 9.3150
 0.5510	 9.3370
 0.5520	 9.3340
 0.5530	 9.3090
 0.5540	 9.3150
 0.5550	 9.2950
 0.5560	 9.2480
 0.5570	 9.2170
 0.5580	 9.1640
 0.5590	 9.1190
 0.5600	 9.0860
 0.5610	 8.9960
 0.5620	 8.9050
 0.5630	 8.8370
 0.5640	 8.7910
 0.5650	 8.7170
 0.5660	 8.6250
 0.5670	 8.5290
 0.5680	 8.4440
 0.5690	 8.3420
 0.5700	 8.2400
 0.5710	 8.1560
 0.5720	 8.0730
 0.5730	 8.0020
 0.5740	 7.9270
 0.5750	 7.8200
 0.5760	 7.7560
 0.5770	 7.7190
 0.5780	 7.6800
 0.5790	 7.6180
 0.5800	 7.5570
 0.5810	 7.5090
 0.5820	 7.4750
 0.5830	 7.4370
 0.5840	 7.4090
 0.5850	 7.3880
 0.5860	 7.3460
 0.5870	 7.3110
 0.5880	 7.2740
 0.5890	 7.2330
 0.5900	 7.2190
 0.5910	 7.2080
 0.5920	 7.1870
 0.5930	 7.1560
 0.5940	 7.1480
 0.5950	 7.1440
 0.5960	 7.1300
 0.5970	 7.1080
 0.5980	 7.0740
 0.5990	 7.0490
 0.6000	 7.0500
 0.6010	 7.0500
 0.6020	 7.0330
 0.6030	 6.9960
 0.6040	 6.9500
 0.6050	 6.9330
 0.6060	 6.9200
 0.6070	 6.8890
 0.6080	 6.8520
 0.6090	 6.8380
 0.6100	 6.8450
 0.6110	 6.8460
 0.6120	 6.7970
 0.6130	 6.7430
 0.6140	 6.7020
 0.6150	 6.6370
 0.6160	 6.5900
 0.6170	 6.5670
 0.6180	 6.5610
 0.6190	 6.5460
 0.6200	 6.5230
 0.6210	 6.4960
 0.6220	 6.4700
 0.6230	 6.4550
 0.6240	 6.4430
 0.6250	 6.4300
 0.6260	 6.4270
 0.6270	 6.4220
 0.6280	 6.4110
 0.6290	 6.3990
 0.6300	 6.4040
 0.6310	 6.4070
 0.6320	 6.3920
 0.6330	 6.3500
 0.6340	 6.3650
 0.6350	 6.3890
 0.6360	 6.3670
 0.6370	 6.3210
 0.6380	 6.2930
 0.6390	 6.2790
 0.6400	 6.2540
 0.6410	 6.2300
 0.6420	 6.1980
 0.6430	 6.1550
 0.6440	 6.1090
 0.6450	 6.0750
 0.6460	 6.0550
 0.6470	 6.0430
 0.6480	 6.0040
 0.6490	 5.9950
 0.6500	 6.0090
 0.6510	 5.9820
 0.6520	 5.9510
 0.6530	 5.9350
 0.6540	 5.9370
 0.6550	 5.9360
 0.6560	 5.9260
 0.6570	 5.9130
 0.6580	 5.9010
 0.6590	 5.8530
 0.6600	 5.8360
 0.6610	 5.8530
 0.6620	 5.8400
 0.6630	 5.8080
 0.6640	 5.7800
 0.6650	 5.7740
 0.6660	 5.7760
 0.6670	 5.7700
 0.6680	 5.7660
 0.6690	 5.7780
 0.6700	 5.7650
 0.6710	 5.7660
 0.6720	 5.7940
 0.6730	 5.8150
 0.6740	 5.8440
 0.6750	 5.8690
 0.6760	 5.8800
 0.6770	 5.8970
 0.6780	 5.9090
 0.6790	 5.9280
 0.6800	 5.9800
 0.6810	 6.0360
 0.6820	 6.0820
 0.6830	 6.1130
 0.6840	 6.1360
 0.6850	 6.1780
 0.6860	 6.2500
 0.6870	 6.3440
 0.6880	 6.4140
 0.6890	 6.4860
 0.6900	 6.5860
 0.6910	 6.7350
 0.6920	 6.8870
 0.6930	 7.0760
 0.6940	 7.3270
 0.6950	 7.6200
 0.6960	 7.9560
 0.6970	 8.3420
 0.6980	 8.7830
 0.6990	 9.2540
 0.7000	 9.7780
 0.7010	10.3660
 0.7020	11.0150
 0.7030	11.6810
 0.7040	12.3670
 0.7050	13.0830
 0.7060	13.8380
 0.7070	14.6100
 0.7080	15.3950
 0.7090	16.1980
 0.7100	17.0260
 0.7110	17.8600
 0.7120	18.6940
 0.7130	19.5420
 0.7140	20.3950
 0.7150	21.2590
 0.7160	22.1320
 0.7170	22.9870
 0.7180	23.8550
 0.7190	24.7350
 0.7200	25.6100
 0.7210	26.4500
 0.7220	27.2790
 0.7230	28.1060
 0.7240	28.9200
 0.7250	29.6900
 0.7260	30.4410
 0.7270	31.1890
 0.7280	31.9130
 0.7290	32.5960
 0.7300	33.2390
 0.7310	33.8510
 0.7320	34.4470
 0.7330	35.0120
 0.7340	35.5380
 0.7350	36.0270
 0.7360	36.5110
 0.7370	36.9670
 0.7380	37.3810
 0.7390	37.7830
 0.7400	38.1470
 0.7410	38.4820
 0.7420	38.8090
 0.7430	39.1230
 0.7440	39.4010
 0.7450	39.6450
 0.7460	39.8820
 0.7470	40.0800
 0.7480	40.2660
 0.7490	40.4600
 0.7500	40.6400
 0.7510	40.7860
 0.7520	40.9050
 0.7530	41.0200
 0.7540	41.1580
 0.7550	41.2640
 0.7560	41.3420
 0.7570	41.4380
 0.7580	41.5180
 0.7590	41.5980
 0.7600	41.6780
 0.7610	41.7200
 0.7620	41.7490
 0.7630	41.7930
 0.7640	41.8560
 0.7650	41.8730
 0.7660	41.8950
 0.7670	41.9340
 0.7680	41.9720
 0.7690	41.9930
 0.7700	42.0080
 0.7710	42.0240
 0.7720	42.0430
 0.7730	42.0690
 0.7740	42.0890
 0.7750	42.0980
 0.7760	42.1150
 0.7770	42.1490
 0.7780	42.1660
 0.7790	42.1320
 0.7800	42.1470
 0.7810	42.1590
 0.7820	42.1550
 0.7830	42.1750
 0.7840	42.1790
 0.7850	42.1800
 0.7860	42.1900
 0.7870	42.1990
 0.7880	42.1890
 0.7890	42.1880
 0.7900	42.2170
 0.7910	42.2000
 0.7920	42.1850
 0.7930	42.1820
 0.7940	42.1690
 0.7950	42.1710
 0.7960	42.1830
 0.7970	42.1880
 0.7980	42.1570
 0.7990	42.1520
 0.8000	42.1610
 0.8010	42.1610
 0.8020	42.1360
 0.8030	42.1380
 0.8040	42.1500
 0.8050	42.1380
 0.8060	42.1410
 0.8070	42.1390
 0.8080	42.1260
 0.8090	42.1150
 0.8100	42.0920
 0.8110	42.0820
 0.8120	42.0890
 0.8130	42.0830
 0.8140	42.0670
 0.8150	42.0520
 0.8160	42.0440
 0.8170	42.0400
 0.8180	42.0350
 0.8190	42.0230
 0.8200	41.9990
 0.8210	41.9870
 0.8220	41.9890
 0.8230	41.9950
 0.8240	41.9860
 0.8250	41.9850
 0.8260	41.9690
 0.8270	41.9420
 0.8280	41.9670
 0.8290	41.9590
 0.8300	41.9430
 0.8310	41.9500
 0.8320	41.9460
 0.8330	41.9380
 0.8340	41.9330
 0.8350	41.9350
 0.8360	41.9310
 0.8370	41.9420
 0.8380	41.9620
 0.8390	41.9650
 0.8400	41.9410
 0.8410	41.9320
 0.8420	41.9550
 0.8430	41.9840
 0.8440	41.9830
 0.8450	41.9660
 0.8460	41.9590
 0.8470	41.9840
 0.8480	41.9950
 0.8490	41.9960
 0.8500	42.0030
 0.8510	42.0140
 0.8520	42.0310
 0.8530	42.0440
 0.8540	42.0370
 0.8550	42.0210
 0.8560	42.0450
 0.8570	42.0990
 0.8580	42.1150
 0.8590	42.1230
 0.8600	42.1300
 0.8610	42.1330
 0.8620	42.1240
 0.8630	42.1390
 0.8640	42.1600
 0.8650	42.1680
 0.8660	42.1720
 0.8670	42.1780
 0.8680	42.1910
 0.8690	42.2100
 0.8700	42.2120
 0.8710	42.2060
 0.8720	42.2180
 0.8730	42.2670
 0.8740	42.2990
 0.8750	42.2930
 0.8760	42.2780
 0.8770	42.3160
 0.8780	42.3210
 0.8790	42.3100
 0.8800	42.3120
 0.8810	42.3480
 0.8820	42.3700
 0.8830	42.3930
 0.8840	42.4250
 0.8850	42.4400
 0.8860	42.4230
 0.8870	42.4220
 0.8880	42.4640
 0.8890	42.4490
 0.8900	42.4560
 0.8910	42.4670
 0.8920	42.4490
 0.8930	42.4790
 0.8940	42.4870
 0.8950	42.4740
 0.8960	42.4770
 0.8970	42.4320
 0.8980	42.4440
 0.8990	42.5080
 0.9000	42.5170
 0.9010	42.4890
 0.9020	42.4940
 0.9030	42.5290
 0.9040	42.4960
 0.9050	42.5110
 0.9060	42.5360
 0.9070	42.5210
 0.9080	42.4590
 0.9090	42.4480
 0.9100	42.4800
 0.9110	42.5180
 0.9120	42.5340
 0.9130	42.5100
 0.9140	42.4930
 0.9150	42.5250
 0.9160	42.5700
 0.9170	42.5680
 0.9180	42.5410
 0.9190	42.5290
 0.9200	42.4750
 0.9210	42.4670
 0.9220	42.5000
 0.9230	42.5090
 0.9240	42.4700
 0.9250	42.4910
 0.9260	42.5340
 0.9270	42.4720
 0.9280	42.4310
 0.9290	42.3930
 0.9300	42.3560
 0.9310	42.3420
 0.9320	42.3400
 0.9330	42.3820
 0.9340	42.4120
 0.9350	42.2930
 0.9360	42.2750
 0.9370	42.2750
 0.9380	42.2370
 0.9390	42.2260
 0.9400	42.1740
 0.9410	42.1360
 0.9420	42.1250
 0.9430	42.0460
 0.9440	42.0600
 0.9450	42.0750
 0.9460	42.0190
 0.9470	41.9940
 0.9480	41.9320
 0.9490	41.8930
 0.9500	41.8990
 0.9510	41.7930
 0.9520	41.7110
 0.9530	41.6580
 0.9540	41.6070
 0.9550	41.5420
 0.9560	41.5130
 0.9570	41.4800
 0.9580	41.4060
 0.9590	41.3680
 0.9600	41.2970
 0.9610	41.2440
 0.9620	41.2590
 0.9630	41.2570
 0.9640	41.1990
 0.9650	41.1470
 0.9660	41.1690
 0.9670	41.1850
 0.9680	41.0840
 0.9690	40.9690
 0.9700	40.9830
 0.9710	40.9890
 0.9720	40.9590
 0.9730	40.9490
 0.9740	41.0110
 0.9750	40.9930
 0.9760	40.9040
 0.9770	40.8510
 0.9780	40.9300
 0.9790	40.9870
 0.9800	40.9610
 0.9810	40.8730
 0.9820	40.8060
 0.9830	40.8920
 0.9840	41.0000
 0.9850	41.0080
 0.9860	40.8840
 0.9870	40.9110
 0.9880	40.9910
 0.9890	41.0240
 0.9900	40.9570
 0.9910	40.8460
 0.9920	40.9200
 0.9930	41.0650
 0.9940	41.0470
 0.9950	40.9140
 0.9960	40.9190
 0.9970	41.0470
 0.9980	41.1410
 0.9990	41.1010
 1.0000	41.0410
 1.0010	41.5300
 1.0020	41.5320
 1.0030	41.5410
 1.0040	41.5700
 1.0050	41.6200
 1.0060	41.6500
 1.0070	41.7150
 1.0080	41.7350
 1.0090	41.7080
 1.0100	41.7180
 1.0110	41.7250
 1.0120	41.7410
 1.0130	41.7900
 1.0140	41.8360
 1.0150	41.8990
 1.0160	41.9150
 1.0170	41.9260
 1.0180	41.9050
 1.0190	41.8820
 1.0200	41.9090
 1.0210	41.9460
 1.0220	41.9840
 1.0230	42.0170
 1.0240	42.0330
 1.0250	42.0610
 1.0260	42.1110
 1.0270	42.1350
 1.0280	42.1460
 1.0290	42.1630
 1.0300	42.1690
 1.0310	42.1790
 1.0320	42.2110
 1.0330	42.2060
 1.0340	42.2020
 1.0350	42.2150
 1.0360	42.2490
 1.0370	42.2800
 1.0380	42.3000
 1.0390	42.3290
 1.0400	42.3360
 1.0410	42.3100
 1.0420	42.3210
 1.0430	42.3380
 1.0440	42.3560
 1.0450	42.4000
 1.0460	42.4240
 1.0470	42.4260
 1.0480	42.4480
 1.0490	42.4980
 1.0500	42.5100
 1.0510	42.5070
 1.0520	42.4950
 1.0530	42.5130
 1.0540	42.5240
 1.0550	42.5380
 1.0560	42.5890
 1.0570	42.6130
 1.0580	42.6080
 1.0590	42.6120
 1.0600	42.6290
 1.0610	42.6340
 1.0620	42.6160
 1.0630	42.6170
 1.0640	42.6180
 1.0650	42.6340
 1.0660	42.6860
 1.0670	42.7060
 1.0680	42.7180
 1.0690	42.7300
 1.0700	42.7350
 1.0710	42.7160
 1.0720	42.7130
 1.0730	42.7260
 1.0740	42.7220
 1.0750	42.7080
 1.0760	42.6980
 1.0770	42.6700
 1.0780	42.6710
 1.0790	42.6880
 1.0800	42.6980
 1.0810	42.7290
 1.0820	42.7420
 1.0830	42.7430
 1.0840	42.7410
 1.0850	42.7370
 1.0860	42.7280
 1.0870	42.7030
 1.0880	42.6530
 1.0890	42.6430
 1.0900	42.6330
 1.0910	42.6400
 1.0920	42.6880
 1.0930	42.7040
 1.0940	42.7200
 1.0950	42.7160
 1.0960	42.6900
 1.0970	42.6770
 1.0980	42.6490
 1.0990	42.6350
 1.1000	42.6440
 1.1010	42.6380
 1.1020	42.6280
 1.1030	42.6190
 1.1040	42.6050
 1.1050	42.5850
 1.1060	42.5700
 1.1070	42.5550
 1.1080	42.5460
 1.1090	42.5470
 1.1100	42.5340
 1.1110	42.5220
 1.1120	42.5010
 1.1130	42.4510
 1.1140	42.4280
 1.1150	42.4170
 1.1160	42.4040
 1.1170	42.4170
 1.1180	42.4050
 1.1190	42.3830
 1.1200	42.3470
 1.1210	42.2900
 1.1220	42.2320
 1.1230	42.1960
 1.1240	42.1510
 1.1250	42.1160
 1.1260	42.1090
 1.1270	42.0670
 1.1280	42.0170
 1.1290	41.9510
 1.1300	41.8650
 1.1310	41.7780
 1.1320	41.6670
 1.1330	41.5790
 1.1340	41.5060
 1.1350	41.4120
 1.1360	41.3220
 1.1370	41.2200
 1.1380	41.0880
 1.1390	40.9600
 1.1400	40.8330
 1.1410	40.7150
 1.1420	40.6080
 1.1430	40.4810
 1.1440	40.3520
 1.1450	40.2140
 1.1460	40.0840
 1.1470	39.9440
 1.1480	39.8250
 1.1490	39.7170
 1.1500	39.6100
 1.1510	39.5160
 1.1520	39.4110
 1.1530	39.2940
 1.1540	39.1970
 1.1550	39.0990
 1.1560	39.0170
 1.1570	38.9570
 1.1580	38.9030
 1.1590	38.8370
 1.1600	38.7750
 1.1610	38.7200
 1.1620	38.6600
 1.1630	38.6210
 1.1640	38.5770
 1.1650	38.5380
 1.1660	38.5040
 1.1670	38.4730
 1.1680	38.4480
 1.1690	38.4200
 1.1700	38.3910
 1.1710	38.3660
 1.1720	38.3480
 1.1730	38.3220
 1.1740	38.3010
 1.1750	38.2630
 1.1760	38.2250
 1.1770	38.1930
 1.1780	38.1620
 1.1790	38.1410
 1.1800	38.1080
 1.1810	38.0770
 1.1820	38.0520
 1.1830	38.0190
 1.1840	37.9970
 1.1850	37.9770
 1.1860	37.9470
 1.1870	37.9200
 1.1880	37.8960
 1.1890	37.8660
 1.1900	37.8500
 1.1910	37.8470
 1.1920	37.8370
 1.1930	37.8340
 1.1940	37.8340
 1.1950	37.8290
 1.1960	37.8310
 1.1970	37.8460
 1.1980	37.8470
 1.1990	37.8440
 1.2000	37.8550
 1.2010	37.8760
 1.2020	37.9000
 1.2030	37.9300
 1.2040	37.9610
 1.2050	37.9800
 1.2060	37.9910
 1.2070	38.0100
 1.2080	38.0280
 1.2090	38.0460
 1.2100	38.0700
 1.2110	38.1010
 1.2120	38.1390
 1.2130	38.1730
 1.2140	38.2160
 1.2150	38.2550
 1.2160	38.2870
 1.2170	38.3240
 1.2180	38.3640
 1.2190	38.3960
 1.2200	38.4330
 1.2210	38.4580
 1.2220	38.4750
 1.2230	38.5080
 1.2240	38.5440
 1.2250	38.5840
 1.2260	38.6390
 1.2270	38.6860
 1.2280	38.7210
 1.2290	38.7510
 1.2300	38.7780
 1.2310	38.8040
 1.2320	38.8330
 1.2330	38.8750
 1.2340	38.9080
 1.2350	38.9370
 1.2360	38.9690
 1.2370	39.0040
 1.2380	39.0260
 1.2390	39.0530
 1.2400	39.0890
 1.2410	39.1110
 1.2420	39.1260
 1.2430	39.1520
 1.2440	39.1790
 1.2450	39.1970
 1.2460	39.2310
 1.2470	39.2580
 1.2480	39.2660
 1.2490	39.2800
 1.2500	39.2890
 1.2510	39.3010
 1.2520	39.3180
 1.2530	39.3380
 1.2540	39.3640
 1.2550	39.3810
 1.2560	39.3920
 1.2570	39.4010
 1.2580	39.4140
 1.2590	39.4210
 1.2600	39.4180
 1.2610	39.4270
 1.2620	39.4420
 1.2630	39.4450
 1.2640	39.4500
 1.2650	39.4590
 1.2660	39.4590
 1.2670	39.4540
 1.2680	39.4390
 1.2690	39.4370
 1.2700	39.4340
 1.2710	39.4250
 1.2720	39.4330
 1.2730	39.4430
 1.2740	39.4430
 1.2750	39.4460
 1.2760	39.4560
 1.2770	39.4520
 1.2780	39.4380
 1.2790	39.4290
 1.2800	39.4210
 1.2810	39.4170
 1.2820	39.4090
 1.2830	39.3980
 1.2840	39.3830
 1.2850	39.3570
 1.2860	39.3330
 1.2870	39.3090
 1.2880	39.2850
 1.2890	39.2560
 1.2900	39.2330
 1.2910	39.2220
 1.2920	39.2070
 1.2930	39.1840
 1.2940	39.1510
 1.2950	39.0980
 1.2960	39.0560
 1.2970	39.0200
 1.2980	38.9860
 1.2990	38.9550
 1.3000	38.9100
 1.3010	38.8540
 1.3020	38.7870
 1.3030	38.7130
 1.3040	38.6580
 1.3050	38.6090
 1.3060	38.5670
 1.3070	38.5290
 1.3080	38.4690
 1.3090	38.3990
 1.3100	38.3260
 1.3110	38.2560
 1.3120	38.1970
 1.3130	38.1230
 1.3140	38.0430
 1.3150	37.9600
 1.3160	37.8630
 1.3170	37.7500
 1.3180	37.6400
 1.3190	37.5300
 1.3200	37.4190
 1.3210	37.3170
 1.3220	37.2170
 1.3230	37.1130
 1.3240	37.0060
 1.3250	36.8920
 1.3260	36.7820
 1.3270	36.6640
 1.3280	36.5380
 1.3290	36.4220
 1.3300	36.2930
 1.3310	36.1620
 1.3320	36.0350
 1.3330	35.8960
 1.3340	35.7560
 1.3350	35.6130
 1.3360	35.4690
 1.3370	35.3330
 1.3380	35.1990
 1.3390	35.0710
 1.3400	34.9450
 1.3410	34.8020
 1.3420	34.6710
 1.3430	34.5470
 1.3440	34.4090
 1.3450	34.2750
 1.3460	34.1460
 1.3470	34.0120
 1.3480	33.8700
 1.3490	33.7400
 1.3500	33.6150
 1.3510	33.4870
 1.3520	33.3630
 1.3530	33.2380
 1.3540	33.1130
 1.3550	32.9770
 1.3560	32.8420
 1.3570	32.7090
 1.3580	32.5720
 1.3590	32.4390
 1.3600	32.3010
 1.3610	32.1590
 1.3620	32.0190
 1.3630	31.8790
 1.3640	31.7360
 1.3650	31.5850
 1.3660	31.4300
 1.3670	31.2640
 1.3680	31.0850
 1.3690	30.9000
 1.3700	30.7050
 1.3710	30.4910
 1.3720	30.2730
 1.3730	30.0470
 1.3740	29.7950
 1.3750	29.5340
 1.3760	29.2560
 1.3770	28.9480
 1.3780	28.6230
 1.3790	28.2800
 1.3800	27.9100
 1.3810	27.5260
 1.3820	27.1270
 1.3830	26.7130
 1.3840	26.2800
 1.3850	25.8320
 1.3860	25.3680
 1.3870	24.8820
 1.3880	24.3930
 1.3890	23.8910
 1.3900	23.3870
 1.3910	22.8830
 1.3920	22.3780
 1.3930	21.8710
 1.3940	21.3610
 1.3950	20.8560
 1.3960	20.3600
 1.3970	19.8740
 1.3980	19.4050
 1.3990	18.9470
 1.4000	18.4980
 1.4010	18.0630
 1.4020	17.6420
 1.4030	17.2420
 1.4040	16.8630
 1.4050	16.5020
 1.4060	16.1570
 1.4070	15.8360
 1.4080	15.5320
 1.4090	15.2480
 1.4100	14.9840
 1.4110	14.7300
 1.4120	14.4870
 1.4130	14.2600
 1.4140	14.0490
 1.4150	13.8610
 1.4160	13.6910
 1.4170	13.5380
 1.4180	13.3990
 1.4190	13.2670
 1.4200	13.1460
 1.4210	13.0320
 1.4220	12.9300
 1.4230	12.8390
 1.4240	12.7550
 1.4250	12.6790
 1.4260	12.6120
 1.4270	12.5490
 1.4280	12.4950
 1.4290	12.4430
 1.4300	12.3950
 1.4310	12.3530
 1.4320	12.3160
 1.4330	12.2840
 1.4340	12.2600
 1.4350	12.2350
 1.4360	12.2120
 1.4370	12.1920
 1.4380	12.1750
 1.4390	12.1630
 1.4400	12.1560
 1.4410	12.1540
 1.4420	12.1570
 1.4430	12.1570
 1.4440	12.1620
 1.4450	12.1700
 1.4460	12.1740
 1.4470	12.1830
 1.4480	12.1920
 1.4490	12.2020
 1.4500	12.2130
 1.4510	12.2270
 1.4520	12.2420
 1.4530	12.2560
 1.4540	12.2700
 1.4550	12.2890
 1.4560	12.3040
 1.4570	12.3220
 1.4580	12.3470
 1.4590	12.3680
 1.4600	12.3940
 1.4610	12.4230
 1.4620	12.4520
 1.4630	12.4910
 1.4640	12.5340
 1.4650	12.5790
 1.4660	12.6300
 1.4670	12.6820
 1.4680	12.7400
 1.4690	12.8010
 1.4700	12.8630
 1.4710	12.9310
 1.4720	12.9960
 1.4730	13.0640
 1.4740	13.1420
 1.4750	13.2150
 1.4760	13.2930
 1.4770	13.3750
 1.4780	13.4550
 1.4790	13.5480
 1.4800	13.6380
 1.4810	13.7260
 1.4820	13.8150
 1.4830	13.8950
 1.4840	13.9830
 1.4850	14.0760
 1.4860	14.1720
 1.4870	14.2720
 1.4880	14.3650
 1.4890	14.4580
 1.4900	14.5520
 1.4910	14.6440
 1.4920	14.7400
 1.4930	14.8380
 1.4940	14.9380
 1.4950	15.0410
 1.4960	15.1410
 1.4970	15.2400
 1.4980	15.3430
 1.4990	15.4480
 1.5000	15.5490
 1.5010	15.6560
 1.5020	15.7570
 1.5030	15.8490
 1.5040	15.9490
 1.5050	16.0520
 1.5060	16.1540
 1.5070	16.2590
 1.5080	16.3600
 1.5090	16.4580
 1.5100	16.5560
 1.5110	16.6520
 1.5120	16.7540
 1.5130	16.8600
 1.5140	16.9630
 1.5150	17.0660
 1.5160	17.1700
 1.5170	17.2660
 1.5180	17.3580
 1.5190	17.4540
 1.5200	17.5530
 1.5210	17.6510
 1.5220	17.7490
 1.5230	17.8460
 1.5240	17.9410
 1.5250	18.0370
 1.5260	18.1370
 1.5270	18.2380
 1.5280	18.3330
 1.5290	18.4230
 1.5300	18.5160
 1.5310	18.6090
 1.5320	18.6980
 1.5330	18.7850
 1.5340	18.8710
 1.5350	18.9580
 1.5360	19.0430
 1.5370	19.1340
 1.5380	19.2260
 1.5390	19.3130
 1.5400	19.3990
 1.5410	19.4770
 1.5420	19.5510
 1.5430	19.6220
 1.5440	19.6970
 1.5450	19.7760
 1.5460	19.8600
 1.5470	19.9480
 1.5480	20.0270
 1.5490	20.1050
 1.5500	20.1790
 1.5510	20.2500
 1.5520	20.3260
 1.5530	20.4080
 1.5540	20.4870
 1.5550	20.5630
 1.5560	20.6380
 1.5570	20.7140
 1.5580	20.7880
 1.5590	20.8620
 1.5600	20.9390
 1.5610	21.0070
 1.5620	21.0710
 1.5630	21.1400
 1.5640	21.2030
 1.5650	21.2680
 1.5660	21.3330
 1.5670	21.3990
 1.5680	21.4710
 1.5690	21.5420
 1.5700	21.6160
 1.5710	21.6880
 1.5720	21.7510
 1.5730	21.8090
 1.5740	21.8640
 1.5750	21.9210
 1.5760	21.9810
 1.5770	22.0400
 1.5780	22.1050
 1.5790	22.1730
 1.5800	22.2370
 1.5810	22.3020
 1.5820	22.3650
 1.5830	22.4210
 1.5840	22.4790
 1.5850	22.5350
 1.5860	22.5900
 1.5870	22.6570
 1.5880	22.7170
 1.5890	22.7780
 1.5900	22.8440
 1.5910	22.8980
 1.5920	22.9570
 1.5930	23.0160
 1.5940	23.0750
 1.5950	23.1380
 1.5960	23.1930
 1.5970	23.2550
 1.5980	23.3170
 1.5990	23.3780
 1.6000	23.4440
 1.6010	23.5000
 1.6020	23.5530
 1.6030	23.6050
 1.6040	23.6520
 1.6050	23.7040
 1.6060	23.7530
 1.6070	23.8060
 1.6080	23.8580
 1.6090	23.9050
 1.6100	23.9580
 1.6110	24.0020
 1.6120	24.0470
 1.6130	24.1010
 1.6140	24.1540
 1.6150	24.2110
 1.6160	24.2610
 1.6170	24.3050
 1.6180	24.3490
 1.6190	24.3900
 1.6200	24.4300
 1.6210	24.4720
 1.6220	24.5080
 1.6230	24.5420
 1.6240	24.5810
 1.6250	24.6160
 1.6260	24.6500
 1.6270	24.6870
 1.6280	24.6990
 1.6290	24.7240
 1.6300	24.7510
 1.6310	24.7790
 1.6320	24.8180
 1.6330	24.8440
 1.6340	24.8650
 1.6350	24.8880
 1.6360	24.9050
 1.6370	24.9310
 1.6380	24.9620
 1.6390	24.9860
 1.6400	25.0100
 1.6410	25.0270
 1.6420	25.0370
 1.6430	25.0510
 1.6440	25.0630
 1.6450	25.0790
 1.6460	25.0940
 1.6470	25.0950
 1.6480	25.0960
 1.6490	25.0980
 1.6500	25.0930
 1.6510	25.0860
 1.6520	25.0820
 1.6530	25.0650
 1.6540	25.0420
 1.6550	25.0320
 1.6560	25.0180
 1.6570	25.0050
 1.6580	24.9970
 1.6590	24.9750
 1.6600	24.9500
 1.6610	24.9270
 1.6620	24.9010
 1.6630	24.8760
 1.6640	24.8450
 1.6650	24.8120
 1.6660	24.7810
 1.6670	24.7510
 1.6680	24.7310
 1.6690	24.7130
 1.6700	24.6890
 1.6710	24.6710
 1.6720	24.6560
 1.6730	24.6330
 1.6740	24.6110
 1.6750	24.5750
 1.6760	24.5300
 1.6770	24.4930
 1.6780	24.4480
 1.6790	24.4000
 1.6800	24.3530
 1.6810	24.2950
 1.6820	24.2430
 1.6830	24.1920
 1.6840	24.1330
 1.6850	24.0760
 1.6860	24.0130
 1.6870	23.9470
 1.6880	23.8880
 1.6890	23.8200
 1.6900	23.7550
 1.6910	23.6920
 1.6920	23.6260
 1.6930	23.5560
 1.6940	23.4920
 1.6950	23.4270
 1.6960	23.3660
 1.6970	23.3110
 1.6980	23.2550
 1.6990	23.2040
 1.7000	23.1500
 1.7010	23.0950
 1.7020	23.0420
 1.7030	22.9880
 1.7040	22.9320
 1.7050	22.8760
 1.7060	22.8250
 1.7070	22.7740
 1.7080	22.7250
 1.7090	22.6770
 1.7100	22.6320
 1.7110	22.5870
 1.7120	22.5530
 1.7130	22.5230
 1.7140	22.4880
 1.7150	22.4500
 1.7160	22.4090
 1.7170	22.3660
 1.7180	22.3190
 1.7190	22.2720
 1.7200	22.2350
 1.7210	22.2000
 1.7220	22.1650
 1.7230	22.1380
 1.7240	22.1100
 1.7250	22.0840
 1.7260	22.0760
 1.7270	22.0690
 1.7280	22.0510
 1.7290	22.0320
 1.7300	22.0030
 1.7310	21.9770
 1.7320	21.9480
 1.7330	21.9250
 1.7340	21.9100
 1.7350	21.8910
 1.7360	21.8760
 1.7370	21.8570
 1.7380	21.8390
 1.7390	21.8110
 1.7400	21.7740
 1.7410	21.7390
 1.7420	21.6950
 1.7430	21.6560
 1.7440	21.6220
 1.7450	21.5820
 1.7460	21.5380
 1.7470	21.4930
 1.7480	21.4450
 1.7490	21.3990
 1.7500	21.3510
 1.7510	21.3080
 1.7520	21.2660
 1.7530	21.2250
 1.7540	21.1830
 1.7550	21.1580
 1.7560	21.1300
 1.7570	21.1020
 1.7580	21.0790
 1.7590	21.0440
 1.7600	21.0090
 1.7610	20.9730
 1.7620	20.9440
 1.7630	20.9170
 1.7640	20.8930
 1.7650	20.8810
 1.7660	20.8620
 1.7670	20.8370
 1.7680	20.8170
 1.7690	20.7970
 1.7700	20.7750
 1.7710	20.7560
 1.7720	20.7320
 1.7730	20.6960
 1.7740	20.6710
 1.7750	20.6480
 1.7760	20.6310
 1.7770	20.6240
 1.7780	20.6130
 1.7790	20.6020
 1.7800	20.5950
 1.7810	20.5880
 1.7820	20.5850
 1.7830	20.5890
 1.7840	20.5840
 1.7850	20.5730
 1.7860	20.5680
 1.7870	20.5600
 1.7880	20.5660
 1.7890	20.5680
 1.7900	20.5580
 1.7910	20.5530
 1.7920	20.5450
 1.7930	20.5400
 1.7940	20.5380
 1.7950	20.5440
 1.7960	20.5530
 1.7970	20.5660
 1.7980	20.5960
 1.7990	20.6170
 1.8000	20.6340
 1.8010	20.6510
 1.8020	20.6690
 1.8030	20.6790
 1.8040	20.6870
 1.8050	20.6870
 1.8060	20.6670
 1.8070	20.6680
 1.8080	20.6720
 1.8090	20.6780
 1.8100	20.6940
 1.8110	20.7110
 1.8120	20.7320
 1.8130	20.7510
 1.8140	20.7680
 1.8150	20.7710
 1.8160	20.7710
 1.8170	20.7770
 1.8180	20.7770
 1.8190	20.7840
 1.8200	20.7870
 1.8210	20.7920
 1.8220	20.7930
 1.8230	20.7850
 1.8240	20.7750
 1.8250	20.7580
 1.8260	20.7500
 1.8270	20.7540
 1.8280	20.7460
 1.8290	20.7310
 1.8300	20.7130
 1.8310	21.0200
 1.8320	21.0090
 1.8330	20.9880
 1.8340	20.9680
 1.8350	20.9670
 1.8360	20.9420
 1.8370	20.9210
 1.8380	20.8830
 1.8390	20.8380
 1.8400	20.7840
 1.8410	20.7350
 1.8420	20.6850
 1.8430	20.6270
 1.8440	20.5430
 1.8450	20.4620
 1.8460	20.3940
 1.8470	20.3040
 1.8480	20.2280
 1.8490	20.1600
 1.8500	20.0730
 1.8510	19.9710
 1.8520	19.8540
 1.8530	19.7280
 1.8540	19.5860
 1.8550	19.3940
 1.8560	19.2000
 1.8570	19.0300
 1.8580	18.8190
 1.8590	18.6160
 1.8600	18.4170
 1.8610	18.2230
 1.8620	17.9960
 1.8630	17.7890
 1.8640	17.5730
 1.8650	17.3330
 1.8660	17.0710
 1.8670	16.7540
 1.8680	16.4110
 1.8690	16.0630
 1.8700	15.7130
 1.8710	15.3430
 1.8720	15.0080
 1.8730	14.6850
 1.8740	14.3290
 1.8750	13.9800
 1.8760	13.6090
 1.8770	13.2220
 1.8780	12.8410
 1.8790	12.4660
 1.8800	12.0980
 1.8810	11.7390
 1.8820	11.3730
 1.8830	11.0170
 1.8840	10.6580
 1.8850	10.3000
 1.8860	 9.9690
 1.8870	 9.6610
 1.8880	 9.3790
 1.8890	 9.1140
 1.8900	 8.8670
 1.8910	 8.6310
 1.8920	 8.4070
 1.8930	 8.1840
 1.8940	 7.9770
 1.8950	 7.7850
 1.8960	 7.6030
 1.8970	 7.4410
 1.8980	 7.3030
 1.8990	 7.1770
 1.9000	 7.0640
 1.9010	 6.9750
 1.9020	 6.8810
 1.9030	 6.7930
 1.9040	 6.7110
 1.9050	 6.6420
 1.9060	 6.5750
 1.9070	 6.5340
 1.9080	 6.5010
 1.9090	 6.4460
 1.9100	 6.4080
 1.9110	 6.3760
 1.9120	 6.3430
 1.9130	 6.3160
 1.9140	 6.3050
 1.9150	 6.2850
 1.9160	 6.2610
 1.9170	 6.2360
 1.9180	 6.2340
 1.9190	 6.2330
 1.9200	 6.2330
 1.9210	 6.2400
 1.9220	 6.2410
 1.9230	 6.2390
 1.9240	 6.2340
 1.9250	 6.2260
 1.9260	 6.2140
 1.9270	 6.2000
 1.9280	 6.1910
 1.9290	 6.1900
 1.9300	 6.1780
 1.9310	 6.1820
 1.9320	 6.1860
 1.9330	 6.1970
 1.9340	 6.2260
 1.9350	 6.2430
 1.9360	 6.2570
 1.9370	 6.2730
 1.9380	 6.2860
 1.9390	 6.2970
 1.9400	 6.3040
 1.9410	 6.3140
 1.9420	 6.3150
 1.9430	 6.3100
 1.9440	 6.3180
 1.9450	 6.3350
 1.9460	 6.3500
 1.9470	 6.3780
 1.9480	 6.3900
 1.9490	 6.3930
 1.9500	 6.3980
 1.9510	 6.4150
 1.9520	 6.4520
 1.9530	 6.4770
 1.9540	 6.5090
 1.9550	 6.5440
 1.9560	 6.5720
 1.9570	 6.5940
 1.9580	 6.6300
 1.9590	 6.6570
 1.9600	 6.6700
 1.9610	 6.6850
 1.9620	 6.7080
 1.9630	 6.7120
 1.9640	 6.7280
 1.9650	 6.7390
 1.9660	 6.7620
 1.9670	 6.7970
 1.9680	 6.8290
 1.9690	 6.8640
 1.9700	 6.8970
 1.9710	 6.9350
 1.9720	 6.9690
 1.9730	 6.9950
 1.9740	 7.0250
 1.9750	 7.0720
 1.9760	 7.0970
 1.9770	 7.1470
 1.9780	 7.1950
 1.9790	 7.2260
 1.9800	 7.2480
 1.9810	 7.2770
 1.9820	 7.2910
 1.9830	 7.3190
 1.9840	 7.3620
 1.9850	 7.3960
 1.9860	 7.4270
 1.9870	 7.4630
 1.9880	 7.4990
 1.9890	 7.5220
 1.9900	 7.5490
 1.9910	 7.5780
 1.9920	 7.6180
 1.9930	 7.6660
 1.9940	 7.7100
 1.9950	 7.7760
 1.9960	 7.8150
 1.9970	 7.8260
 1.9980	 7.8540
 1.9990	 7.8780
 2.0000	 7.9010
 2.0010	 7.9480
 2.0020	 8.0010
 2.0030	 8.0550
 2.0040	 8.1020
 2.0050	 8.1450
 2.0060	 8.1840
 2.0070	 8.2260
 2.0080	 8.2670
 2.0090	 8.3060
 2.0100	 8.3450
 2.0110	 8.3820
 2.0120	 8.4140
 2.0130	 8.4450
 2.0140	 8.4770
 2.0150	 8.5160
 2.0160	 8.5420
 2.0170	 8.5800
 2.0180	 8.6210
 2.0190	 8.6630
 2.0200	 8.7070
 2.0210	 8.7680
 2.0220	 8.8080
 2.0230	 8.8350
 2.0240	 8.8670
 2.0250	 8.8850
 2.0260	 8.9140
 2.0270	 8.9520
 2.0280	 8.9930
 2.0290	 9.0120
 2.0300	 9.0440
 2.0310	 9.0680
 2.0320	 9.0780
 2.0330	 9.0970
 2.0340	 9.1230
 2.0350	 9.1440
 2.0360	 9.1670
 2.0370	 9.1870
 2.0380	 9.1950
 2.0390	 9.2190
 2.0400	 9.2410
 2.0410	 9.2710
 2.0420	 9.3120
 2.0430	 9.3710
 2.0440	 9.4100
 2.0450	 9.4560
 2.0460	 9.4760
 2.0470	 9.4720
 2.0480	 9.4800
 2.0490	 9.4610
 2.0500	 9.4810
 2.0510	 9.5300
 2.0520	 9.5660
 2.0530	 9.6250
 2.0540	 9.6640
 2.0550	 9.6880
 2.0560	 9.7050
 2.0570	 9.7330
 2.0580	 9.7700
 2.0590	 9.7910
 2.0600	 9.8130
 2.0610	 9.8280
 2.0620	 9.8210
 2.0630	 9.8350
 2.0640	 9.8660
 2.0650	 9.8890
 2.0660	 9.9040
 2.0670	 9.9340
 2.0680	 9.9810
 2.0690	10.0050
 2.0700	10.0340
 2.0710	10.0510
 2.0720	10.0340
 2.0730	10.0260
 2.0740	10.0400
 2.0750	10.0640
 2.0760	10.0920
 2.0770	10.1410
 2.0780	10.1740
 2.0790	10.2140
 2.0800	10.2340
 2.0810	10.2270
 2.0820	10.2500
 2.0830	10.2760
 2.0840	10.2980
 2.0850	10.3490
 2.0860	10.3750
 2.0870	10.3710
 2.0880	10.3750
 2.0890	10.3920
 2.0900	10.4020
 2.0910	10.4420
 2.0920	10.5220
 2.0930	10.5600
 2.0940	10.5990
 2.0950	10.6240
 2.0960	10.6170
 2.0970	10.6270
 2.0980	10.6460
 2.0990	10.6580
 2.1000	10.6580
 2.1010	10.6730
 2.1020	10.6960
 2.1030	10.7170
 2.1040	10.7390
 2.1050	10.7790
 2.1060	10.8080
 2.1070	10.8300
 2.1080	10.8580
 2.1090	10.8870
 2.1100	10.9190
 2.1110	10.9610
 2.1120	10.9830
 2.1130	10.9970
 2.1140	11.0110
 2.1150	11.0090
 2.1160	11.0150
 2.1170	11.0160
 2.1180	11.0320
 2.1190	11.0560
 2.1200	11.0800
 2.1210	11.1160
 2.1220	11.1600
 2.1230	11.1900
 2.1240	11.2160
 2.1250	11.2310
 2.1260	11.2330
 2.1270	11.2490
 2.1280	11.2650
 2.1290	11.2740
 2.1300	11.2920
 2.1310	11.2950
 2.1320	11.2680
 2.1330	11.2710
 2.1340	11.2810
 2.1350	11.3000
 2.1360	11.3460
 2.1370	11.3780
 2.1380	11.4160
 2.1390	11.4420
 2.1400	11.4630
 2.1410	11.4720
 2.1420	11.4850
 2.1430	11.4900
 2.1440	11.5050
 2.1450	11.5260
 2.1460	11.5440
 2.1470	11.5610
 2.1480	11.5830
 2.1490	11.6000
 2.1500	11.6330
 2.1510	11.6870
 2.1520	11.7210
 2.1530	11.7680
 2.1540	11.7880
 2.1550	11.7700
 2.1560	11.7730
 2.1570	11.7660
 2.1580	11.7740
 2.1590	11.8010
 2.1600	11.8320
 2.1610	11.8570
 2.1620	11.8680
 2.1630	11.8820
 2.1640	11.8840
 2.1650	11.9000
 2.1660	11.9270
 2.1670	11.9420
 2.1680	11.9550
 2.1690	11.9610
 2.1700	11.9510
 2.1710	11.9590
 2.1720	11.9660
 2.1730	11.9860
 2.1740	12.0250
 2.1750	12.0540
 2.1760	12.0910
 2.1770	12.1190
 2.1780	12.1370
 2.1790	12.1610
 2.1800	12.1910
 2.1810	12.2100
 2.1820	12.2300
 2.1830	12.2340
 2.1840	12.2500
 2.1850	12.2580
 2.1860	12.2760
 2.1870	12.3110
 2.1880	12.3230
 2.1890	12.3190
 2.1900	12.3290
 2.1910	12.3320
 2.1920	12.3490
 2.1930	12.3850
 2.1940	12.4080
 2.1950	12.4320
 2.1960	12.4540
 2.1970	12.4700
 2.1980	12.4920
 2.1990	12.5190
 2.2000	12.5420
 2.2010	12.5690
 2.2020	12.5910
 2.2030	12.6070
 2.2040	12.6260
 2.2050	12.6510
 2.2060	12.6640
 2.2070	12.6730
 2.2080	12.6800
 2.2090	12.6840
 2.2100	12.6750
 2.2110	12.6850
 2.2120	12.7100
 2.2130	12.7110
 2.2140	12.6960
 2.2150	12.7060
 2.2160	12.7080
 2.2170	12.7280
 2.2180	12.7980
 2.2190	12.8180
 2.2200	12.8250
 2.2210	12.8160
 2.2220	12.7640
 2.2230	12.7420
 2.2240	12.7260
 2.2250	12.7060
 2.2260	12.7130
 2.2270	12.6890
 2.2280	12.6310
 2.2290	12.5870
 2.2300	12.5410
 2.2310	12.4830
 2.2320	12.4370
 2.2330	12.3940
 2.2340	12.3490
 2.2350	12.2930
 2.2360	12.2560
 2.2370	12.2340
 2.2380	12.2030
 2.2390	12.1860
 2.2400	12.1430
 2.2410	12.0750
 2.2420	12.0310
 2.2430	11.9850
 2.2440	11.9410
 2.2450	11.9260
 2.2460	11.8740
 2.2470	11.7880
 2.2480	11.7250
 2.2490	11.6630
 2.2500	11.5960
 2.2510	11.5300
 2.2520	11.4720
 2.2530	11.4030
 2.2540	11.3440
 2.2550	11.3180
 2.2560	11.2630
 2.2570	11.1790
 2.2580	11.1170
 2.2590	11.0380
 2.2600	10.9840
 2.2610	10.9730
 2.2620	10.9490
 2.2630	10.8890
 2.2640	10.8430
 2.2650	10.7490
 2.2660	10.6490
 2.2670	10.5850
 2.2680	10.5270
 2.2690	10.4900
 2.2700	10.4840
 2.2710	10.4680
 2.2720	10.4700
 2.2730	10.4580
 2.2740	10.4400
 2.2750	10.4280
 2.2760	10.4190
 2.2770	10.3930
 2.2780	10.3720
 2.2790	10.3290
 2.2800	10.2550
 2.2810	10.1960
 2.2820	10.1130
 2.2830	10.0750
 2.2840	10.0700
 2.2850	10.0550
 2.2860	10.0570
 2.2870	10.0620
 2.2880	10.0780
 2.2890	10.0620
 2.2900	10.0370
 2.2910	10.0190
 2.2920	 9.9810
 2.2930	 9.9380
 2.2940	 9.9080
 2.2950	 9.8660
 2.2960	 9.7740
 2.2970	 9.7250
 2.2980	 9.7030
 2.2990	 9.6850
 2.3000	 9.6720
 2.3010	 9.7010
 2.3020	 9.7080
 2.3030	 9.7030
 2.3040	 9.7010
 2.3050	 9.6560
 2.3060	 9.5830
 2.3070	 9.5130
 2.3080	 9.4530
 2.3090	 9.4470
 2.3100	 9.4710
 2.3110	 9.5020
 2.3120	 9.5090
 2.3130	 9.5060
 2.3140	 9.4950
 2.3150	 9.4680
 2.3160	 9.4460
 2.3170	 9.4040
 2.3180	 9.3980
 2.3190	 9.4050
 2.3200	 9.4090
 2.3210	 9.4540
 2.3220	 9.4610
 2.3230	 9.4490
 2.3240	 9.4370
 2.3250	 9.3990
 2.3260	 9.3810
 2.3270	 9.3720
 2.3280	 9.3500
 2.3290	 9.3350
 2.3300	 9.3210
 2.3310	 9.3020
 2.3320	 9.2760
 2.3330	 9.2480
 2.3340	 9.2090
 2.3350	 9.1400
 2.3360	 9.1040
 2.3370	 9.0770
 2.3380	 9.0700
 2.3390	 9.1140
 2.3400	 9.1060
 2.3410	 9.0530
 2.3420	 9.0500
 2.3430	 9.0770
 2.3440	 9.0560
 2.3450	 9.0380
 2.3460	 9.0370
 2.3470	 8.9750
 2.3480	 8.9600
 2.3490	 9.0390
 2.3500	 9.0440
 2.3510	 8.9950
 2.3520	 8.9850
 2.3530	 8.9720
 2.3540	 8.9490
 2.3550	 8.9590
 2.3560	 8.9790
 2.3570	 8.9370
 2.3580	 8.9470
 2.3590	 8.9260
 2.3600	 8.9150
 2.3610	 8.9480
 2.3620	 8.9250
 2.3630	 8.9460
 2.3640	 8.9250
 2.3650	 8.8720
 2.3660	 8.8500
 2.3670	 8.7520
 2.3680	 8.6860
 2.3690	 8.6850
 2.3700	 8.6460
 2.3710	 8.6410
 2.3720	 8.7070
 2.3730	 8.7640
 2.3740	 8.7860
 2.3750	 8.8080
 2.3760	 8.8110
 2.3770	 8.7640
 2.3780	 8.7140
 2.3790	 8.7070
 2.3800	 8.6770
 2.3810	 8.6530
 2.3820	 8.6530
 2.3830	 8.6090
 2.3840	 8.5180
 2.3850	 8.3760
 2.3860	 8.2440
 2.3870	 8.1710
 2.3880	 8.2180
 2.3890	 8.2980
 2.3900	 8.3520
 2.3910	 8.3840
 2.3920	 8.3350
 2.3930	 8.3390
 2.3940	 8.3560
 2.3950	 8.3340
 2.3960	 8.3670
 2.3970	 8.3380
 2.3980	 8.2580
 2.3990	 8.2140
 2.4000	 8.1130
 2.4010	 8.0280
 2.4020	 8.0520
 2.4030	 8.0090
 2.4040	 7.9730
 2.4050	 8.0030
 2.4060	 7.9790
 2.4070	 7.9940
 2.4080	 8.0220
 2.4090	 8.0510
 2.4100	 8.0610
 2.4110	 8.1000
 2.4120	 8.2000
 2.4130	 8.2190
 2.4140	 8.2390
 2.4150	 8.1910
 2.4160	 8.1130
 2.4170	 8.0890
 2.4180	 7.9960
 2.4190	 7.9810
 2.4200	 7.9860
 2.4210	 7.8960
 2.4220	 7.8330
 2.4230	 7.7810
 2.4240	 7.7380
 2.4250	 7.7070
 2.4260	 7.7490
 2.4270	 7.7670
 2.4280	 7.7210
 2.4290	 7.6710
 2.4300	 7.5570
 2.4310	 7.4130
 2.4320	 7.2430
 2.4330	 7.2510
 2.4340	 7.3180
 2.4350	 7.3330
 2.4360	 7.4200
 2.4370	 7.4770
 2.4380	 7.4200
 2.4390	 7.3960
 2.4400	 7.4650
 2.4410	 7.4080
 2.4420	 7.3610
 2.4430	 7.3090
 2.4440	 7.3130
 2.4450	 7.3860
 2.4460	 7.4520
 2.4470	 7.6610
 2.4480	 7.6380
 2.4490	 7.5020
 2.4500	 7.4110
 2.4510	 7.1190
 2.4520	 7.0170
 2.4530	 7.0350
 2.4540	 6.9710
 2.4550	 7.0670
 2.4560	 7.1120
 2.4570	 7.1180
 2.4580	 7.1300
 2.4590	 7.0000
 2.4600	 6.9720
 2.4610	 6.9770
 2.4620	 7.0560
 2.4630	 7.3200
 2.4640	 7.4040
 2.4650	 7.3310
 2.4660	 7.1490
 2.4670	 6.9210
 2.4680	 6.8340
 2.4690	 6.9990
 2.4700	 7.0360
 2.4710	 7.0490
 2.4720	 7.0400
 2.4730	 6.9170
 2.4740	 6.8490
 2.4750	 6.8690
 2.4760	 6.9060
 2.4770	 6.9130
 2.4780	 6.9620
 2.4790	 7.1140
 2.4800	 7.1140
 2.4810	 7.0840
 2.4820	 7.0160
 2.4830	 6.9120
 2.4840	 6.9060
 2.4850	 6.7680
 2.4860	 6.6510
 2.4870	 6.7080
 2.4880	 6.5400
 2.4890	 6.3130
 2.4900	 6.2240
 2.4910	 6.0270
 2.4920	 6.0290
 2.4930	 6.0740
 2.4940	 6.1830
 2.4950	 6.3580
 2.4960	 6.3270
 2.4970	 6.5830
 2.4980	 6.7790
 2.4990	 6.5320
 2.5000	 6.6340
