Name: Quercus lobata 2
Type: vegetation
Class: Tree
Genus: Quercus
Species: lobata
Sample No.: VH183
Owner: UCSB
Wavelength Range: TIR
Origin: 34.7146; -120.0588; WGS84
Collection Date: 6/9/2013
Description: Samples were collected as part of the HyspIRI Airborne Campaign. 48 individual plants were sampled in three times in 2013 - spring  summer  and fall. The name of the sample includes a 1  2  or 3 which references a different individual of the species. Samples were taken to JPL and processed within 48 hours of collection. The same leaves were processed in the Nicolet and then measured using the ASD.
Measurement: Hemispherical reflectance
First Column: X
Second Column: Y
X Units: Wavelength (micrometers)
Y Units: Reflectance (percentage)
First X Value: 2.501
Last X Value: 15.387
Number of X Values: 1737
Additional Information: vegetation.tree.quercus.lobata.tir.vh183.ucsb.nicolet.ancillary.txt

 2.5010	 8.7750
 2.5030	 8.5240
 2.5040	 8.6860
 2.5050	 8.8370
 2.5060	 8.8790
 2.5070	 8.7500
 2.5090	 8.7130
 2.5100	 8.6840
 2.5110	 8.6340
 2.5120	 8.5570
 2.5140	 8.7880
 2.5150	 8.8180
 2.5160	 8.7410
 2.5170	 8.5330
 2.5180	 8.5480
 2.5200	 8.6190
 2.5210	 8.7570
 2.5220	 8.7260
 2.5230	 8.7060
 2.5250	 8.7930
 2.5260	 8.8510
 2.5270	 8.7270
 2.5280	 8.8180
 2.5290	 8.7840
 2.5310	 8.7290
 2.5320	 8.6250
 2.5330	 8.6350
 2.5340	 8.6660
 2.5360	 8.7110
 2.5370	 8.7150
 2.5380	 8.6860
 2.5390	 8.5370
 2.5410	 8.5450
 2.5420	 8.6070
 2.5430	 8.7610
 2.5440	 8.6880
 2.5460	 8.6220
 2.5470	 8.6880
 2.5480	 8.8240
 2.5490	 8.7640
 2.5510	 8.7350
 2.5520	 8.7760
 2.5530	 8.8500
 2.5540	 8.7020
 2.5560	 8.6300
 2.5570	 8.5710
 2.5580	 8.6370
 2.5590	 8.6180
 2.5610	 8.6750
 2.5620	 8.7060
 2.5630	 8.7280
 2.5640	 8.6880
 2.5660	 8.7880
 2.5670	 8.7680
 2.5680	 8.7750
 2.5700	 8.7230
 2.5710	 8.7570
 2.5720	 8.7910
 2.5730	 8.8140
 2.5750	 8.7040
 2.5760	 8.7310
 2.5770	 8.8670
 2.5790	 8.9890
 2.5800	 8.8860
 2.5810	 8.8230
 2.5820	 8.7840
 2.5840	 8.8020
 2.5850	 8.7300
 2.5860	 8.7960
 2.5880	 8.8660
 2.5890	 9.0550
 2.5900	 9.0080
 2.5910	 8.8840
 2.5930	 8.7120
 2.5940	 8.6860
 2.5950	 8.6930
 2.5970	 8.6720
 2.5980	 8.5640
 2.5990	 8.5690
 2.6000	 8.4550
 2.6020	 8.5700
 2.6030	 8.6930
 2.6040	 8.6690
 2.6060	 8.5740
 2.6070	 8.6620
 2.6080	 8.7310
 2.6100	 8.6640
 2.6110	 8.5410
 2.6120	 8.5470
 2.6140	 8.5200
 2.6150	 8.5500
 2.6160	 8.4730
 2.6180	 8.4460
 2.6190	 8.4080
 2.6200	 8.4030
 2.6220	 8.3900
 2.6230	 8.3780
 2.6240	 8.2220
 2.6260	 8.1700
 2.6270	 8.2740
 2.6280	 8.2960
 2.6300	 8.1880
 2.6310	 8.2630
 2.6320	 8.2290
 2.6340	 8.1720
 2.6350	 8.1000
 2.6360	 8.1460
 2.6380	 8.0330
 2.6390	 7.9910
 2.6400	 8.0140
 2.6420	 8.0970
 2.6430	 7.9860
 2.6440	 8.0400
 2.6460	 8.0320
 2.6470	 7.9860
 2.6480	 7.8700
 2.6500	 7.7090
 2.6510	 7.7280
 2.6520	 7.9500
 2.6540	 8.0090
 2.6550	 8.0490
 2.6560	 7.9120
 2.6580	 7.8370
 2.6590	 7.7820
 2.6610	 7.6650
 2.6620	 7.6340
 2.6630	 7.7530
 2.6650	 7.6750
 2.6660	 7.7310
 2.6670	 7.7120
 2.6690	 7.7200
 2.6700	 7.6740
 2.6720	 7.6550
 2.6730	 7.6020
 2.6740	 7.6610
 2.6760	 7.5370
 2.6770	 7.4500
 2.6780	 7.3710
 2.6800	 7.3660
 2.6810	 7.3910
 2.6830	 7.5220
 2.6840	 7.5010
 2.6850	 7.3000
 2.6870	 7.1640
 2.6880	 7.2570
 2.6900	 7.2550
 2.6910	 7.2270
 2.6920	 7.1390
 2.6940	 7.2710
 2.6950	 7.2760
 2.6970	 7.0660
 2.6980	 6.7990
 2.6990	 6.8800
 2.7010	 6.9310
 2.7020	 6.8020
 2.7040	 6.5480
 2.7050	 6.5960
 2.7060	 6.6640
 2.7080	 6.6390
 2.7090	 6.6450
 2.7110	 6.6850
 2.7120	 6.5640
 2.7130	 6.4760
 2.7150	 6.3030
 2.7160	 6.3160
 2.7180	 6.2480
 2.7190	 6.2310
 2.7210	 6.1460
 2.7220	 6.0650
 2.7230	 6.0530
 2.7250	 6.2170
 2.7260	 6.1640
 2.7280	 6.0160
 2.7290	 5.8640
 2.7310	 5.6650
 2.7320	 5.5370
 2.7330	 5.6970
 2.7350	 5.5990
 2.7360	 5.4400
 2.7380	 5.3930
 2.7390	 5.5170
 2.7410	 5.5490
 2.7420	 5.4020
 2.7440	 5.0540
 2.7450	 5.0850
 2.7470	 5.1060
 2.7480	 5.0660
 2.7490	 5.1870
 2.7510	 4.9690
 2.7520	 4.7170
 2.7540	 5.2120
 2.7550	 5.0540
 2.7570	 4.5320
 2.7580	 4.3980
 2.7600	 4.6890
 2.7610	 4.6800
 2.7630	 4.5730
 2.7640	 4.4850
 2.7660	 4.3940
 2.7670	 4.2260
 2.7680	 4.3860
 2.7700	 4.4390
 2.7710	 4.4370
 2.7730	 4.4230
 2.7740	 4.6980
 2.7760	 4.7060
 2.7770	 4.4430
 2.7790	 4.3700
 2.7800	 4.5610
 2.7820	 4.2960
 2.7830	 4.1820
 2.7850	 4.1770
 2.7860	 4.2290
 2.7880	 4.2080
 2.7890	 4.1420
 2.7910	 4.1700
 2.7920	 4.3950
 2.7940	 4.2240
 2.7950	 4.0950
 2.7970	 4.0500
 2.7980	 4.0790
 2.8000	 3.9250
 2.8010	 3.8930
 2.8030	 3.9560
 2.8040	 4.0320
 2.8060	 3.9500
 2.8070	 3.9490
 2.8090	 3.8540
 2.8110	 3.9930
 2.8120	 4.0680
 2.8140	 3.9810
 2.8150	 3.8700
 2.8170	 3.9280
 2.8180	 3.9980
 2.8200	 4.1560
 2.8210	 3.9610
 2.8230	 3.7480
 2.8240	 3.6490
 2.8260	 3.7740
 2.8270	 3.8480
 2.8290	 3.7720
 2.8300	 3.7060
 2.8320	 3.9400
 2.8340	 4.0470
 2.8350	 3.9550
 2.8370	 3.7970
 2.8380	 3.7870
 2.8400	 3.7280
 2.8410	 3.7380
 2.8430	 3.7790
 2.8440	 3.9050
 2.8460	 3.8360
 2.8480	 3.8740
 2.8490	 3.8480
 2.8510	 3.8700
 2.8520	 3.9080
 2.8540	 3.9290
 2.8550	 3.7890
 2.8570	 3.8290
 2.8590	 3.8380
 2.8600	 3.9090
 2.8620	 3.8680
 2.8630	 3.9800
 2.8650	 4.0930
 2.8660	 4.0530
 2.8680	 3.8140
 2.8700	 3.9900
 2.8710	 4.0540
 2.8730	 3.9410
 2.8740	 3.8870
 2.8760	 3.8100
 2.8780	 3.5860
 2.8790	 3.8020
 2.8810	 3.8770
 2.8820	 3.7240
 2.8840	 3.5450
 2.8860	 3.6470
 2.8870	 3.6470
 2.8890	 3.6340
 2.8900	 3.7150
 2.8920	 3.7610
 2.8940	 3.3630
 2.8950	 3.5340
 2.8970	 3.4880
 2.8980	 3.4970
 2.9000	 3.7230
 2.9020	 3.8570
 2.9030	 3.7160
 2.9050	 3.7130
 2.9070	 3.6200
 2.9080	 3.5740
 2.9100	 3.6210
 2.9120	 3.7720
 2.9130	 3.7010
 2.9150	 3.7920
 2.9160	 3.8380
 2.9180	 3.7960
 2.9200	 3.7540
 2.9210	 3.7640
 2.9230	 3.6570
 2.9250	 3.6350
 2.9260	 3.5530
 2.9280	 3.6690
 2.9300	 3.8070
 2.9310	 3.7370
 2.9330	 3.6270
 2.9350	 3.6450
 2.9360	 3.6830
 2.9380	 3.8170
 2.9400	 3.8840
 2.9410	 3.9660
 2.9430	 3.9360
 2.9450	 3.8240
 2.9460	 3.9440
 2.9480	 4.1680
 2.9500	 4.0750
 2.9510	 3.9640
 2.9530	 3.8470
 2.9550	 3.6700
 2.9560	 3.3140
 2.9580	 3.3060
 2.9600	 3.3680
 2.9610	 3.9700
 2.9630	 3.7160
 2.9650	 3.3690
 2.9660	 3.5280
 2.9680	 3.3660
 2.9700	 2.6300
 2.9720	 2.9950
 2.9730	 5.3410
 2.9750	 6.2480
 2.9770	 3.2140
 2.9780	 1.6740
 2.9800	 4.1550
 2.9820	 4.8390
 2.9840	 4.1580
 2.9850	 3.9070
 2.9870	 3.2980
 2.9890	 3.9030
 2.9900	 4.3350
 2.9920	 3.1140
 2.9940	 2.6970
 2.9960	 2.5090
 2.9970	 1.7320
 2.9990	 2.5820
 3.0010	 3.9040
 3.0030	 4.2110
 3.0040	 4.3500
 3.0060	 4.1330
 3.0080	 4.0320
 3.0100	 4.0720
 3.0110	 3.5830
 3.0130	 3.3790
 3.0150	 3.7840
 3.0170	 4.0240
 3.0180	 3.8090
 3.0200	 4.0510
 3.0220	 4.4630
 3.0240	 3.9440
 3.0250	 3.5540
 3.0270	 3.7170
 3.0290	 3.6650
 3.0310	 3.8090
 3.0320	 4.2080
 3.0340	 4.5970
 3.0360	 4.6030
 3.0380	 4.3700
 3.0400	 4.5150
 3.0410	 5.1010
 3.0430	 4.8760
 3.0450	 4.1800
 3.0470	 2.5750
 3.0480	 1.8770
 3.0500	 3.9880
 3.0520	 6.0880
 3.0540	 4.2630
 3.0560	 3.0020
 3.0570	 3.4380
 3.0590	 3.6140
 3.0610	 4.3690
 3.0630	 4.8190
 3.0650	 4.4950
 3.0660	 4.5110
 3.0680	 3.9510
 3.0700	 4.0180
 3.0720	 4.1260
 3.0740	 3.7120
 3.0760	 3.8670
 3.0770	 3.9590
 3.0790	 3.7850
 3.0810	 3.9240
 3.0830	 3.9430
 3.0850	 3.9440
 3.0870	 3.9620
 3.0880	 4.1050
 3.0900	 4.0290
 3.0920	 4.1530
 3.0940	 4.2430
 3.0960	 4.0820
 3.0980	 4.0020
 3.0990	 4.1270
 3.1010	 4.2270
 3.1030	 4.3170
 3.1050	 3.9170
 3.1070	 3.7140
 3.1090	 3.7340
 3.1110	 3.9040
 3.1120	 4.2950
 3.1140	 4.4970
 3.1160	 4.0410
 3.1180	 3.9060
 3.1200	 4.0120
 3.1220	 4.0420
 3.1240	 3.9880
 3.1260	 4.1160
 3.1270	 4.1120
 3.1290	 4.2210
 3.1310	 4.4310
 3.1330	 3.9800
 3.1350	 3.8450
 3.1370	 3.8980
 3.1390	 3.6990
 3.1410	 3.6730
 3.1430	 4.7820
 3.1450	 5.3940
 3.1460	 5.1160
 3.1480	 4.7800
 3.1500	 4.3490
 3.1520	 4.5610
 3.1540	 4.9180
 3.1560	 4.7950
 3.1580	 4.6600
 3.1600	 4.5530
 3.1620	 4.2880
 3.1640	 4.4020
 3.1660	 4.7410
 3.1680	 5.4690
 3.1700	 6.1270
 3.1710	 6.0470
 3.1730	 5.0310
 3.1750	 3.8110
 3.1770	 3.0140
 3.1790	 3.2880
 3.1810	 3.8720
 3.1830	 4.1450
 3.1850	 4.2670
 3.1870	 4.3020
 3.1890	 4.6020
 3.1910	 4.6590
 3.1930	 4.5580
 3.1950	 4.6050
 3.1970	 4.5750
 3.1990	 4.4560
 3.2010	 4.4320
 3.2030	 4.3430
 3.2050	 4.3860
 3.2070	 4.6450
 3.2090	 4.6590
 3.2110	 4.6340
 3.2130	 4.5270
 3.2150	 4.5900
 3.2170	 4.5360
 3.2190	 4.5530
 3.2210	 4.5650
 3.2230	 4.6790
 3.2250	 4.8120
 3.2270	 5.0340
 3.2290	 4.9100
 3.2310	 4.6420
 3.2330	 4.6370
 3.2350	 4.6160
 3.2370	 4.6820
 3.2390	 4.8860
 3.2410	 4.8380
 3.2430	 4.7920
 3.2450	 4.7720
 3.2470	 4.8500
 3.2490	 4.8380
 3.2510	 4.7100
 3.2530	 4.6290
 3.2550	 4.7170
 3.2570	 4.9990
 3.2590	 4.9900
 3.2610	 4.8890
 3.2630	 5.1900
 3.2650	 5.6790
 3.2670	 5.6780
 3.2690	 5.0670
 3.2720	 4.8360
 3.2740	 4.8020
 3.2760	 4.9910
 3.2780	 4.9810
 3.2800	 4.9340
 3.2820	 4.9660
 3.2840	 5.0960
 3.2860	 5.1190
 3.2880	 5.0110
 3.2900	 4.9690
 3.2920	 4.9780
 3.2940	 4.8530
 3.2960	 4.9840
 3.2990	 5.0560
 3.3010	 5.3110
 3.3030	 5.4030
 3.3050	 5.2300
 3.3070	 5.0540
 3.3090	 5.0210
 3.3110	 5.2550
 3.3130	 5.5670
 3.3150	 5.3850
 3.3180	 5.2100
 3.3200	 5.1510
 3.3220	 5.1040
 3.3240	 5.1250
 3.3260	 5.1610
 3.3280	 5.0030
 3.3300	 5.0320
 3.3330	 5.0680
 3.3350	 5.1040
 3.3370	 5.0360
 3.3390	 5.0510
 3.3410	 5.1080
 3.3430	 5.2260
 3.3450	 5.2290
 3.3480	 5.2200
 3.3500	 5.0480
 3.3520	 5.0630
 3.3540	 5.0650
 3.3560	 4.9840
 3.3580	 4.9900
 3.3610	 4.9990
 3.3630	 4.8790
 3.3650	 4.8640
 3.3670	 4.9060
 3.3690	 4.9950
 3.3720	 5.0290
 3.3740	 5.1320
 3.3760	 5.0720
 3.3780	 4.9260
 3.3800	 4.7110
 3.3830	 4.6830
 3.3850	 4.5700
 3.3870	 4.6750
 3.3890	 4.4960
 3.3910	 4.3520
 3.3940	 4.4570
 3.3960	 4.5520
 3.3980	 4.6160
 3.4000	 4.6650
 3.4020	 4.5960
 3.4050	 4.7980
 3.4070	 4.9920
 3.4090	 5.1350
 3.4110	 5.0950
 3.4140	 5.1420
 3.4160	 5.1950
 3.4180	 5.3750
 3.4200	 5.5960
 3.4230	 5.8600
 3.4250	 6.1010
 3.4270	 6.4240
 3.4290	 6.5910
 3.4320	 6.4320
 3.4340	 6.0160
 3.4360	 5.7750
 3.4390	 5.5930
 3.4410	 5.5870
 3.4430	 5.5860
 3.4450	 5.5940
 3.4480	 5.4760
 3.4500	 5.7130
 3.4520	 5.8460
 3.4550	 5.5630
 3.4570	 5.4050
 3.4590	 5.3590
 3.4620	 5.3890
 3.4640	 5.5560
 3.4660	 5.6610
 3.4680	 5.6310
 3.4710	 5.4880
 3.4730	 5.4250
 3.4750	 5.3590
 3.4780	 5.2900
 3.4800	 5.3320
 3.4820	 5.3040
 3.4850	 5.2560
 3.4870	 5.2380
 3.4890	 5.2360
 3.4920	 5.3160
 3.4940	 5.3790
 3.4970	 5.4480
 3.4990	 5.4430
 3.5010	 5.6250
 3.5040	 5.7280
 3.5060	 5.9630
 3.5080	 6.3960
 3.5110	 6.7340
 3.5130	 6.5120
 3.5160	 6.2460
 3.5180	 6.1700
 3.5200	 6.1730
 3.5230	 6.1170
 3.5250	 6.1350
 3.5270	 6.0510
 3.5300	 6.1690
 3.5320	 6.2380
 3.5350	 6.1930
 3.5370	 6.1250
 3.5400	 6.1930
 3.5420	 6.2460
 3.5440	 6.2300
 3.5470	 6.2730
 3.5490	 6.5480
 3.5520	 6.5710
 3.5540	 6.4280
 3.5570	 6.4120
 3.5590	 6.3560
 3.5610	 6.2970
 3.5640	 6.3100
 3.5660	 6.2850
 3.5690	 6.3580
 3.5710	 6.4100
 3.5740	 6.4580
 3.5760	 6.4800
 3.5790	 6.4240
 3.5810	 6.2630
 3.5840	 6.0520
 3.5860	 5.9760
 3.5890	 6.1870
 3.5910	 6.2170
 3.5930	 6.3360
 3.5960	 6.4770
 3.5980	 6.4930
 3.6010	 6.5060
 3.6030	 6.4210
 3.6060	 6.2590
 3.6080	 6.3350
 3.6110	 6.4390
 3.6140	 6.5230
 3.6160	 6.4920
 3.6190	 6.5240
 3.6210	 6.5220
 3.6240	 6.5550
 3.6260	 6.5750
 3.6290	 6.6350
 3.6310	 6.6410
 3.6340	 6.5820
 3.6360	 6.4230
 3.6390	 6.3830
 3.6410	 6.4930
 3.6440	 6.5030
 3.6470	 6.4320
 3.6490	 6.4160
 3.6520	 6.4420
 3.6540	 6.5810
 3.6570	 6.5940
 3.6590	 6.5660
 3.6620	 6.5200
 3.6650	 6.5630
 3.6670	 6.5270
 3.6700	 6.5160
 3.6720	 6.5040
 3.6750	 6.4940
 3.6780	 6.4970
 3.6800	 6.5750
 3.6830	 6.5860
 3.6850	 6.5350
 3.6880	 6.5170
 3.6910	 6.6000
 3.6930	 6.6320
 3.6960	 6.6730
 3.6990	 6.6410
 3.7010	 6.6500
 3.7040	 6.5510
 3.7060	 6.6100
 3.7090	 6.6540
 3.7120	 6.6190
 3.7140	 6.5440
 3.7170	 6.5990
 3.7200	 6.7070
 3.7220	 6.6600
 3.7250	 6.6440
 3.7280	 6.7420
 3.7300	 6.7430
 3.7330	 6.7000
 3.7360	 6.6970
 3.7390	 6.8160
 3.7410	 6.7620
 3.7440	 6.7380
 3.7470	 6.7550
 3.7490	 6.7390
 3.7520	 6.6110
 3.7550	 6.6640
 3.7580	 6.7180
 3.7600	 6.8080
 3.7630	 6.8860
 3.7660	 6.9010
 3.7680	 6.8340
 3.7710	 6.8320
 3.7740	 6.7000
 3.7770	 6.6620
 3.7790	 6.7100
 3.7820	 6.7760
 3.7850	 6.7890
 3.7880	 6.8220
 3.7900	 6.8150
 3.7930	 6.8570
 3.7960	 6.8030
 3.7990	 6.6730
 3.8020	 6.6810
 3.8040	 6.8070
 3.8070	 6.8600
 3.8100	 6.8800
 3.8130	 6.7740
 3.8160	 6.7180
 3.8180	 6.7440
 3.8210	 6.7590
 3.8240	 6.7910
 3.8270	 6.9960
 3.8300	 7.0170
 3.8330	 6.9050
 3.8350	 6.8830
 3.8380	 6.9650
 3.8410	 6.9090
 3.8440	 6.7900
 3.8470	 6.8400
 3.8500	 6.9690
 3.8520	 6.9400
 3.8550	 6.9140
 3.8580	 6.9340
 3.8610	 6.9770
 3.8640	 6.9400
 3.8670	 6.9870
 3.8700	 6.9630
 3.8730	 6.9620
 3.8750	 6.9320
 3.8780	 6.8980
 3.8810	 6.8700
 3.8840	 6.9000
 3.8870	 7.0020
 3.8900	 7.0300
 3.8930	 6.9680
 3.8960	 7.0040
 3.8990	 7.0180
 3.9020	 7.0710
 3.9050	 7.0530
 3.9080	 7.0320
 3.9110	 6.9600
 3.9140	 7.0140
 3.9160	 6.9930
 3.9190	 6.9750
 3.9220	 7.0160
 3.9250	 7.0600
 3.9280	 7.0760
 3.9310	 7.1610
 3.9340	 7.1310
 3.9370	 7.0930
 3.9400	 7.0530
 3.9430	 7.0760
 3.9460	 7.0250
 3.9490	 7.0140
 3.9520	 7.0830
 3.9550	 7.0860
 3.9580	 7.0060
 3.9610	 6.9830
 3.9640	 6.9710
 3.9670	 7.0100
 3.9700	 7.0140
 3.9730	 7.0370
 3.9770	 7.0900
 3.9800	 7.1400
 3.9830	 7.0610
 3.9860	 7.0150
 3.9890	 7.0190
 3.9920	 7.0430
 3.9950	 7.0650
 3.9980	 7.0990
 4.0010	 7.0660
 4.0040	 7.0870
 4.0070	 7.1160
 4.0100	 7.1380
 4.0130	 7.1200
 4.0170	 7.1580
 4.0200	 7.1720
 4.0230	 7.1250
 4.0260	 7.0220
 4.0290	 7.0540
 4.0320	 7.0660
 4.0350	 7.1060
 4.0380	 7.1110
 4.0420	 7.1800
 4.0450	 7.1700
 4.0480	 7.0660
 4.0510	 7.0000
 4.0540	 7.0590
 4.0570	 7.1180
 4.0610	 7.2070
 4.0640	 7.2070
 4.0670	 7.1300
 4.0700	 7.0910
 4.0730	 7.1980
 4.0770	 7.2040
 4.0800	 7.1640
 4.0830	 7.1160
 4.0860	 7.1310
 4.0890	 7.1140
 4.0930	 7.1780
 4.0960	 7.1880
 4.0990	 7.2660
 4.1020	 7.2310
 4.1060	 7.0770
 4.1090	 7.0190
 4.1120	 7.0250
 4.1150	 7.1080
 4.1190	 7.2040
 4.1220	 7.1920
 4.1250	 7.2030
 4.1280	 7.2240
 4.1320	 7.2300
 4.1350	 7.1580
 4.1380	 7.1690
 4.1420	 7.1780
 4.1450	 7.2220
 4.1480	 7.2620
 4.1520	 7.2420
 4.1550	 7.2100
 4.1580	 7.2650
 4.1620	 7.2580
 4.1650	 7.2130
 4.1680	 7.2040
 4.1720	 7.1900
 4.1750	 7.1000
 4.1780	 7.1190
 4.1820	 7.1930
 4.1850	 7.2230
 4.1890	 7.2230
 4.1920	 7.2410
 4.1950	 7.2310
 4.1990	 7.1830
 4.2020	 7.1710
 4.2060	 7.1800
 4.2090	 7.1880
 4.2120	 7.2050
 4.2160	 7.1180
 4.2190	 7.2170
 4.2230	 7.1770
 4.2260	 7.0590
 4.2300	 7.0300
 4.2330	 7.2290
 4.2360	 7.2760
 4.2400	 7.3980
 4.2430	 7.2290
 4.2470	 7.1600
 4.2500	 7.1880
 4.2540	 7.1870
 4.2570	 7.0450
 4.2610	 7.0160
 4.2640	 7.0010
 4.2680	 7.1840
 4.2710	 7.3870
 4.2750	 7.2810
 4.2780	 7.0190
 4.2820	 7.0290
 4.2850	 6.9820
 4.2890	 6.9760
 4.2930	 7.0440
 4.2960	 7.1940
 4.3000	 7.1490
 4.3030	 7.0160
 4.3070	 6.9610
 4.3100	 7.0000
 4.3140	 7.0270
 4.3180	 7.0460
 4.3210	 6.9480
 4.3250	 6.9560
 4.3280	 7.1180
 4.3320	 7.1510
 4.3360	 7.0830
 4.3390	 7.0260
 4.3430	 7.0050
 4.3470	 7.0780
 4.3500	 7.1220
 4.3540	 7.1220
 4.3570	 7.0700
 4.3610	 7.0740
 4.3650	 7.0680
 4.3680	 7.0960
 4.3720	 7.1190
 4.3760	 7.0810
 4.3800	 7.0180
 4.3830	 7.0500
 4.3870	 7.0680
 4.3910	 7.0420
 4.3940	 7.0200
 4.3980	 7.0090
 4.4020	 7.0540
 4.4060	 7.1190
 4.4090	 7.1100
 4.4130	 7.0530
 4.4170	 7.0460
 4.4210	 7.0730
 4.4240	 7.0770
 4.4280	 7.0630
 4.4320	 7.0290
 4.4360	 7.0120
 4.4400	 6.9810
 4.4430	 6.9760
 4.4470	 6.9490
 4.4510	 6.9390
 4.4550	 6.9430
 4.4590	 6.9480
 4.4620	 6.9120
 4.4660	 6.9120
 4.4700	 6.9220
 4.4740	 6.9030
 4.4780	 6.9240
 4.4820	 6.9320
 4.4860	 6.8670
 4.4900	 6.8710
 4.4930	 6.9140
 4.4970	 6.9150
 4.5010	 6.8750
 4.5050	 6.8760
 4.5090	 6.8970
 4.5130	 6.8600
 4.5170	 6.8370
 4.5210	 6.8960
 4.5250	 6.8970
 4.5290	 6.8490
 4.5330	 6.8560
 4.5370	 6.8770
 4.5410	 6.8760
 4.5450	 6.8690
 4.5490	 6.8590
 4.5530	 6.9050
 4.5570	 6.8540
 4.5610	 6.8310
 4.5650	 6.8130
 4.5690	 6.7830
 4.5730	 6.7690
 4.5770	 6.7730
 4.5810	 6.7940
 4.5850	 6.8310
 4.5890	 6.8060
 4.5930	 6.7610
 4.5970	 6.7690
 4.6010	 6.7720
 4.6050	 6.7010
 4.6090	 6.7480
 4.6130	 6.8040
 4.6170	 6.7790
 4.6220	 6.8630
 4.6260	 6.8870
 4.6300	 6.6690
 4.6340	 6.6620
 4.6380	 6.7830
 4.6420	 6.8050
 4.6460	 6.7680
 4.6510	 6.7110
 4.6550	 6.7120
 4.6590	 6.7220
 4.6630	 6.7910
 4.6670	 6.7810
 4.6720	 6.7250
 4.6760	 6.6560
 4.6800	 6.5960
 4.6840	 6.6070
 4.6880	 6.6730
 4.6930	 6.7070
 4.6970	 6.6970
 4.7010	 6.7740
 4.7050	 6.7810
 4.7100	 6.7020
 4.7140	 6.6820
 4.7180	 6.7650
 4.7230	 6.7550
 4.7270	 6.6660
 4.7310	 6.6460
 4.7360	 6.6820
 4.7400	 6.7120
 4.7440	 6.6840
 4.7490	 6.6630
 4.7530	 6.6740
 4.7570	 6.6640
 4.7620	 6.6800
 4.7660	 6.7060
 4.7700	 6.7360
 4.7750	 6.7450
 4.7790	 6.7230
 4.7840	 6.7060
 4.7880	 6.7180
 4.7920	 6.7200
 4.7970	 6.8020
 4.8010	 6.8820
 4.8060	 6.7010
 4.8100	 6.5760
 4.8150	 6.6640
 4.8190	 6.7710
 4.8240	 6.7650
 4.8280	 6.7370
 4.8330	 6.7180
 4.8370	 6.7400
 4.8420	 6.7350
 4.8460	 6.7570
 4.8510	 6.7730
 4.8550	 6.7770
 4.8600	 6.8200
 4.8640	 6.8460
 4.8690	 6.8040
 4.8730	 6.8160
 4.8780	 6.8250
 4.8830	 6.8110
 4.8870	 6.8280
 4.8920	 6.8420
 4.8960	 6.7830
 4.9010	 6.7610
 4.9060	 6.7790
 4.9100	 6.8000
 4.9150	 6.7820
 4.9200	 6.8150
 4.9240	 6.8270
 4.9290	 6.8120
 4.9340	 6.7370
 4.9380	 6.7360
 4.9430	 6.7670
 4.9480	 6.8230
 4.9530	 6.8370
 4.9570	 6.7910
 4.9620	 6.7650
 4.9670	 6.7890
 4.9720	 6.7920
 4.9760	 6.8460
 4.9810	 6.8470
 4.9860	 6.8080
 4.9910	 6.8260
 4.9960	 6.8530
 5.0000	 6.8060
 5.0050	 6.8260
 5.0100	 6.9140
 5.0150	 6.9470
 5.0200	 6.8440
 5.0250	 6.8460
 5.0290	 6.8880
 5.0340	 6.8520
 5.0390	 6.8430
 5.0440	 6.8860
 5.0490	 6.8370
 5.0540	 6.8590
 5.0590	 6.8580
 5.0640	 6.8620
 5.0690	 6.8800
 5.0740	 6.8820
 5.0790	 6.8470
 5.0840	 6.9090
 5.0890	 6.9410
 5.0940	 6.8970
 5.0990	 6.8680
 5.1040	 6.8850
 5.1090	 6.8670
 5.1140	 6.8790
 5.1190	 6.9240
 5.1240	 6.9260
 5.1290	 6.9490
 5.1340	 6.9890
 5.1390	 6.9100
 5.1440	 6.8710
 5.1490	 6.8760
 5.1540	 6.9720
 5.1600	 7.0220
 5.1650	 7.0200
 5.1700	 6.9540
 5.1750	 6.9290
 5.1800	 6.8890
 5.1850	 6.8620
 5.1910	 6.8170
 5.1960	 6.8390
 5.2010	 6.8480
 5.2060	 6.8600
 5.2110	 6.8810
 5.2170	 6.8880
 5.2220	 6.8180
 5.2270	 6.7780
 5.2320	 6.8260
 5.2380	 6.9320
 5.2430	 6.9270
 5.2480	 6.8840
 5.2540	 6.8300
 5.2590	 6.8260
 5.2640	 6.8420
 5.2700	 6.8780
 5.2750	 6.8670
 5.2800	 6.8410
 5.2860	 6.7800
 5.2910	 6.7630
 5.2970	 6.7710
 5.3020	 6.7720
 5.3070	 6.7520
 5.3130	 6.7940
 5.3180	 6.7710
 5.3240	 6.7360
 5.3290	 6.7020
 5.3350	 6.7180
 5.3400	 6.7190
 5.3460	 6.6930
 5.3510	 6.7040
 5.3570	 6.7750
 5.3620	 6.7380
 5.3680	 6.6950
 5.3730	 6.6410
 5.3790	 6.6070
 5.3850	 6.5720
 5.3900	 6.5850
 5.3960	 6.6480
 5.4010	 6.6980
 5.4070	 6.7100
 5.4130	 6.6870
 5.4180	 6.6240
 5.4240	 6.5870
 5.4300	 6.5470
 5.4350	 6.5000
 5.4410	 6.4370
 5.4470	 6.4640
 5.4530	 6.4190
 5.4580	 6.4610
 5.4640	 6.4980
 5.4700	 6.4990
 5.4760	 6.4280
 5.4810	 6.4150
 5.4870	 6.3970
 5.4930	 6.4330
 5.4990	 6.4200
 5.5050	 6.3300
 5.5110	 6.2790
 5.5160	 6.2960
 5.5220	 6.2040
 5.5280	 6.1550
 5.5340	 6.1410
 5.5400	 6.0990
 5.5460	 6.0230
 5.5520	 6.0240
 5.5580	 6.0540
 5.5640	 6.0190
 5.5700	 5.9210
 5.5760	 5.9450
 5.5820	 5.8890
 5.5880	 5.8460
 5.5940	 5.7860
 5.6000	 5.7180
 5.6060	 5.5990
 5.6120	 5.4560
 5.6180	 5.3390
 5.6240	 5.3490
 5.6300	 5.2980
 5.6360	 5.2350
 5.6420	 5.1300
 5.6490	 4.9950
 5.6550	 4.8130
 5.6610	 4.6960
 5.6670	 4.5720
 5.6730	 4.4880
 5.6800	 4.3750
 5.6860	 4.3290
 5.6920	 4.1880
 5.6980	 4.0530
 5.7040	 3.8950
 5.7110	 3.8080
 5.7170	 3.7250
 5.7230	 3.6820
 5.7300	 3.5560
 5.7360	 3.4130
 5.7420	 3.3050
 5.7490	 3.3940
 5.7550	 3.4620
 5.7620	 3.5980
 5.7680	 3.6820
 5.7740	 3.8460
 5.7810	 3.9310
 5.7870	 4.0740
 5.7940	 4.2310
 5.8000	 4.3780
 5.8070	 4.4290
 5.8130	 4.4840
 5.8200	 4.6350
 5.8260	 4.7570
 5.8330	 4.7820
 5.8390	 4.8640
 5.8460	 4.9560
 5.8530	 5.1300
 5.8590	 5.2370
 5.8660	 5.3210
 5.8720	 5.3690
 5.8790	 5.4720
 5.8860	 5.5340
 5.8920	 5.5630
 5.8990	 5.5670
 5.9060	 5.6220
 5.9130	 5.5520
 5.9190	 5.6130
 5.9260	 5.6370
 5.9330	 5.5830
 5.9400	 5.5000
 5.9470	 5.4370
 5.9530	 5.4070
 5.9600	 5.4670
 5.9670	 5.3210
 5.9740	 5.1060
 5.9810	 4.9420
 5.9880	 4.9550
 5.9950	 4.8590
 6.0020	 4.8120
 6.0090	 4.7750
 6.0160	 4.7380
 6.0230	 4.6160
 6.0300	 4.6130
 6.0370	 4.6610
 6.0440	 4.7860
 6.0510	 4.8590
 6.0580	 4.8890
 6.0650	 4.8570
 6.0720	 4.9280
 6.0790	 4.8590
 6.0860	 4.8770
 6.0930	 4.9070
 6.1000	 4.9550
 6.1080	 4.9530
 6.1150	 4.9880
 6.1220	 4.8840
 6.1290	 4.9020
 6.1370	 4.8590
 6.1440	 4.8600
 6.1510	 4.8690
 6.1580	 4.8400
 6.1660	 4.7340
 6.1730	 4.7430
 6.1800	 4.6720
 6.1880	 4.6610
 6.1950	 4.6320
 6.2030	 4.7290
 6.2100	 4.7530
 6.2170	 4.7790
 6.2250	 4.7710
 6.2320	 4.8700
 6.2400	 4.8740
 6.2470	 4.9760
 6.2550	 4.9630
 6.2630	 4.9700
 6.2700	 4.9770
 6.2780	 5.1150
 6.2850	 5.1620
 6.2930	 5.2380
 6.3010	 5.2460
 6.3080	 5.3140
 6.3160	 5.2920
 6.3240	 5.3230
 6.3310	 5.4020
 6.3390	 5.6010
 6.3470	 5.5760
 6.3550	 5.6190
 6.3620	 5.6450
 6.3700	 5.6510
 6.3780	 5.6050
 6.3860	 5.6940
 6.3940	 5.6760
 6.4020	 5.7280
 6.4100	 5.7570
 6.4180	 5.8310
 6.4260	 5.8510
 6.4330	 5.7870
 6.4410	 5.6990
 6.4490	 5.8170
 6.4580	 5.7910
 6.4660	 5.7770
 6.4740	 5.7250
 6.4820	 5.7220
 6.4900	 5.6170
 6.4980	 5.5890
 6.5060	 5.5750
 6.5140	 5.6360
 6.5230	 5.5720
 6.5310	 5.5000
 6.5390	 5.3040
 6.5470	 5.1540
 6.5550	 4.9300
 6.5640	 4.8180
 6.5720	 4.7450
 6.5800	 4.7000
 6.5890	 4.6060
 6.5970	 4.6710
 6.6060	 4.7940
 6.6140	 4.9770
 6.6220	 4.9800
 6.6310	 5.0790
 6.6390	 5.1740
 6.6480	 5.2110
 6.6560	 5.1820
 6.6650	 5.2030
 6.6740	 5.1500
 6.6820	 5.2180
 6.6910	 5.1550
 6.6990	 5.1740
 6.7080	 5.1780
 6.7170	 5.2160
 6.7260	 5.1270
 6.7340	 5.1110
 6.7430	 5.0750
 6.7520	 5.0490
 6.7610	 4.9010
 6.7690	 4.8810
 6.7780	 4.8830
 6.7870	 4.9300
 6.7960	 4.7200
 6.8050	 4.5750
 6.8140	 4.4720
 6.8230	 4.4970
 6.8320	 4.5550
 6.8410	 4.7120
 6.8500	 4.6580
 6.8590	 4.6420
 6.8680	 4.5870
 6.8770	 4.6430
 6.8860	 4.6770
 6.8950	 4.8150
 6.9050	 4.7680
 6.9140	 4.7400
 6.9230	 4.7650
 6.9320	 4.7850
 6.9420	 4.6910
 6.9510	 4.6840
 6.9600	 4.6980
 6.9700	 4.8040
 6.9790	 4.7980
 6.9880	 4.8100
 6.9980	 4.7000
 7.0070	 4.7180
 7.0170	 4.6910
 7.0260	 4.7770
 7.0360	 4.8080
 7.0450	 4.8470
 7.0550	 4.7480
 7.0650	 4.8160
 7.0740	 4.8380
 7.0840	 4.8730
 7.0940	 4.7840
 7.1030	 4.8070
 7.1130	 4.8040
 7.1230	 4.8370
 7.1330	 4.7390
 7.1420	 4.7050
 7.1520	 4.5860
 7.1620	 4.5760
 7.1720	 4.4300
 7.1820	 4.4560
 7.1920	 4.3720
 7.2020	 4.3350
 7.2120	 4.1800
 7.2220	 4.1510
 7.2320	 4.0790
 7.2420	 4.1400
 7.2520	 4.0350
 7.2620	 4.1070
 7.2730	 4.1270
 7.2830	 4.1990
 7.2930	 4.1970
 7.3030	 4.2730
 7.3140	 4.1660
 7.3240	 4.2330
 7.3340	 4.2840
 7.3450	 4.3830
 7.3550	 4.4200
 7.3660	 4.6570
 7.3760	 4.7150
 7.3870	 4.7360
 7.3970	 4.7570
 7.4080	 4.8490
 7.4180	 4.7650
 7.4290	 4.8000
 7.4400	 4.6970
 7.4500	 4.6640
 7.4610	 4.6230
 7.4720	 4.6550
 7.4830	 4.5840
 7.4930	 4.6390
 7.5040	 4.4850
 7.5150	 4.3650
 7.5260	 4.1800
 7.5370	 4.1900
 7.5480	 4.1770
 7.5590	 4.2270
 7.5700	 4.1020
 7.5810	 4.1530
 7.5920	 4.0540
 7.6030	 4.0660
 7.6140	 4.0400
 7.6260	 4.1680
 7.6370	 4.1190
 7.6480	 4.2150
 7.6590	 4.2460
 7.6710	 4.3100
 7.6820	 4.2240
 7.6930	 4.2580
 7.7050	 4.1820
 7.7160	 4.2150
 7.7280	 4.1040
 7.7390	 4.1530
 7.7510	 4.0340
 7.7630	 4.0040
 7.7740	 3.9010
 7.7860	 3.9490
 7.7980	 3.9840
 7.8090	 4.0370
 7.8210	 3.9770
 7.8330	 4.0400
 7.8450	 3.9690
 7.8570	 3.9640
 7.8690	 3.8720
 7.8810	 3.8890
 7.8930	 3.8640
 7.9050	 3.9550
 7.9170	 3.8890
 7.9290	 4.0010
 7.9410	 3.9520
 7.9530	 3.9410
 7.9650	 3.8870
 7.9780	 4.0240
 7.9900	 4.0580
 8.0020	 4.1030
 8.0150	 4.0510
 8.0270	 4.1370
 8.0390	 4.1390
 8.0520	 4.3030
 8.0640	 4.2240
 8.0770	 4.3040
 8.0900	 4.3410
 8.1020	 4.4300
 8.1150	 4.3390
 8.1280	 4.5000
 8.1400	 4.4170
 8.1530	 4.4380
 8.1660	 4.3030
 8.1790	 4.3520
 8.1920	 4.3130
 8.2050	 4.5210
 8.2180	 4.5390
 8.2310	 4.6140
 8.2440	 4.5030
 8.2570	 4.7070
 8.2700	 4.6050
 8.2830	 4.7400
 8.2970	 4.7820
 8.3100	 4.8850
 8.3230	 4.9080
 8.3370	 5.1700
 8.3500	 5.0130
 8.3640	 5.0110
 8.3770	 4.9020
 8.3910	 4.9390
 8.4040	 4.7740
 8.4180	 4.6630
 8.4320	 4.5600
 8.4450	 4.7090
 8.4590	 4.6580
 8.4730	 4.8930
 8.4870	 4.9240
 8.5010	 5.0280
 8.5150	 4.9670
 8.5290	 5.1680
 8.5430	 5.2070
 8.5570	 5.4040
 8.5710	 5.2760
 8.5850	 5.2970
 8.5990	 5.2220
 8.6140	 5.3090
 8.6280	 5.1610
 8.6420	 5.2670
 8.6570	 5.1670
 8.6710	 5.2530
 8.6860	 5.2780
 8.7000	 5.4400
 8.7150	 5.4180
 8.7300	 5.5180
 8.7440	 5.3970
 8.7590	 5.4440
 8.7740	 5.2290
 8.7890	 5.2690
 8.8040	 5.0770
 8.8190	 5.1940
 8.8340	 5.0390
 8.8490	 4.9300
 8.8640	 4.6650
 8.8790	 4.7430
 8.8940	 4.5850
 8.9100	 4.6700
 8.9250	 4.5340
 8.9400	 4.6310
 8.9560	 4.4560
 8.9710	 4.5470
 8.9870	 4.3990
 9.0020	 4.4710
 9.0180	 4.4100
 9.0340	 4.6510
 9.0500	 4.5460
 9.0650	 4.6220
 9.0810	 4.5550
 9.0970	 4.6250
 9.1130	 4.3450
 9.1290	 4.4330
 9.1450	 4.3470
 9.1610	 4.4100
 9.1780	 4.2590
 9.1940	 4.2760
 9.2100	 4.1780
 9.2270	 4.3580
 9.2430	 4.4080
 9.2600	 4.5780
 9.2760	 4.4240
 9.2930	 4.5900
 9.3090	 4.5720
 9.3260	 4.6780
 9.3430	 4.4650
 9.3600	 4.5040
 9.3770	 4.3820
 9.3940	 4.4880
 9.4110	 4.4790
 9.4280	 4.6800
 9.4450	 4.5410
 9.4620	 4.8070
 9.4800	 4.7670
 9.4970	 4.8850
 9.5140	 4.6760
 9.5320	 4.6930
 9.5500	 4.6280
 9.5670	 4.7710
 9.5850	 4.6700
 9.6030	 4.8110
 9.6200	 4.7250
 9.6380	 4.9350
 9.6560	 4.9600
 9.6740	 5.1520
 9.6920	 4.9600
 9.7100	 5.0060
 9.7290	 4.8670
 9.7470	 5.1440
 9.7650	 5.0820
 9.7840	 5.2050
 9.8020	 5.0370
 9.8210	 5.2690
 9.8390	 5.1930
 9.8580	 5.3260
 9.8770	 5.2270
 9.8960	 5.4480
 9.9150	 5.3920
 9.9340	 5.3900
 9.9530	 5.1700
 9.9720	 5.3400
 9.9910	 5.3610
10.0100	 5.5150
10.0300	 5.3240
10.0490	 5.4850
10.0690	 5.3570
10.0880	 5.3970
10.1080	 5.4190
10.1280	 5.6300
10.1480	 5.5130
10.1670	 5.7750
10.1870	 5.7210
10.2070	 5.8560
10.2280	 5.6780
10.2480	 5.7290
10.2680	 5.7350
10.2890	 5.8550
10.3090	 5.6840
10.3300	 5.8690
10.3500	 5.8300
10.3710	 6.0750
10.3920	 6.1070
10.4120	 6.2500
10.4330	 6.0470
10.4540	 6.2140
10.4760	 6.1660
10.4970	 6.2230
10.5180	 6.1630
10.5390	 6.3240
10.5610	 6.1240
10.5820	 6.1940
10.6040	 6.0620
10.6260	 6.1900
10.6480	 6.0350
10.6700	 6.2470
10.6920	 6.1830
10.7140	 6.2720
10.7360	 6.0890
10.7580	 6.1400
10.7800	 5.9770
10.8030	 6.2340
10.8250	 6.1080
10.8480	 6.1350
10.8710	 5.9570
10.8940	 6.0340
10.9170	 5.8110
10.9400	 5.9540
10.9630	 5.8320
10.9860	 5.8150
11.0090	 5.5950
11.0330	 5.7660
11.0560	 5.6760
11.0800	 5.8450
11.1040	 5.7570
11.1270	 5.8840
11.1510	 5.6390
11.1750	 5.7870
11.2000	 5.5800
11.2240	 5.6790
11.2480	 5.5650
11.2730	 5.7970
11.2970	 5.7650
11.3220	 5.9730
11.3470	 5.7340
11.3720	 5.8500
11.3970	 5.6770
11.4220	 5.7140
11.4470	 5.4920
11.4720	 5.5850
11.4980	 5.4770
11.5230	 5.5910
11.5490	 5.4240
11.5750	 5.6290
11.6000	 5.5120
11.6260	 5.6100
11.6530	 5.2010
11.6790	 5.2850
11.7050	 5.1390
11.7320	 5.2410
11.7580	 5.0590
11.7850	 5.2390
11.8120	 5.0840
11.8390	 5.3170
11.8660	 5.1870
11.8930	 5.3680
11.9200	 5.1910
11.9480	 5.4370
11.9760	 5.3150
12.0030	 5.4860
12.0310	 5.4510
12.0590	 5.5320
12.0870	 5.2390
12.1150	 5.4940
12.1440	 5.4050
12.1720	 5.5420
12.2010	 5.2940
12.2300	 5.5640
12.2590	 5.3540
12.2880	 5.4780
12.3170	 5.2080
12.3460	 5.5460
12.3760	 5.5200
12.4050	 5.5680
12.4350	 5.2620
12.4650	 5.5530
12.4950	 5.2640
12.5250	 5.4910
12.5550	 5.3070
12.5860	 5.5030
12.6170	 5.3510
12.6470	 5.5630
12.6780	 5.2340
12.7090	 5.2090
12.7410	 4.7750
12.7720	 5.0080
12.8030	 4.8530
12.8350	 5.1420
12.8670	 5.0080
12.8990	 5.0310
12.9310	 4.9170
12.9640	 5.3300
12.9960	 4.9820
13.0290	 5.2390
13.0610	 5.0710
13.0940	 5.2020
13.1280	 5.0190
13.1610	 5.2730
13.1940	 4.9000
13.2280	 5.0650
13.2620	 4.8350
13.2960	 5.1650
13.3300	 4.8370
13.3640	 5.0760
13.3990	 4.8140
13.4340	 4.9100
13.4690	 4.6550
13.5040	 5.0720
13.5390	 4.8610
13.5740	 5.0290
13.6100	 4.7040
13.6460	 5.1480
13.6820	 4.9610
13.7180	 5.2080
13.7540	 4.8000
13.7910	 5.0050
13.8280	 4.5590
13.8650	 4.7840
13.9020	 4.6050
13.9390	 4.9400
13.9770	 4.6930
14.0150	 5.1420
14.0530	 4.9830
14.0910	 5.2710
14.1290	 4.7500
14.1680	 4.9650
14.2070	 4.5890
14.2460	 4.7490
14.2850	 4.2430
14.3240	 4.4370
14.3640	 4.1910
14.4040	 4.7860
14.4440	 4.4840
14.4840	 4.7100
14.5250	 4.4130
14.5660	 5.1620
14.6070	 4.5550
14.6480	 4.4440
14.6900	 3.7940
14.7310	 4.5560
14.7730	 4.0150
14.8150	 4.2650
14.8580	 3.6490
14.9010	 4.3880
14.9440	 4.3250
14.9870	 5.6640
15.0300	 4.3870
15.0740	 4.5500
15.1180	 3.8390
15.1620	 4.4390
15.2060	 4.1300
15.2510	 5.0560
15.2960	 4.3150
15.3410	 4.6540
15.3870	 3.8080
