Name: Podocarpus gracilior
Type: vegetation
Class: Tree
Genus: Podocarpus
Species: gracilior
Sample No.: JPL233
Owner: JPL
Wavelength Range: VSWIR
Origin: 34.13033; -118.1123; WGS84
Collection Date: 10/3/2016
Description: Samples were collected at the Huntington Garden in San Marino California as part of a JPL Subcontract studying HyTES imagery. Samples were taken to JPL and processed within 48 hours of collection. The same leaves were processed in the Nicolet and then measured using the ASD.
Measurement: Bidirectional reflectance
First Column: X
Second Column: Y
X Units: Wavelength (micrometer)
Y Units: Reflectance (percentage)
First X Value: 0.35
Last X Value: 2.5
Number of X Values: 2151
Additional Information: vegetation.tree.podocarpus.gracilior.vswir.jpl233.jpl.asd.ancillary.txt

 0.3500	 8.7120
 0.3510	 8.7470
 0.3520	 8.8760
 0.3530	 8.9230
 0.3540	 8.7840
 0.3550	 8.6340
 0.3560	 8.6420
 0.3570	 8.7150
 0.3580	 8.6580
 0.3590	 8.6150
 0.3600	 8.5750
 0.3610	 8.5310
 0.3620	 8.5080
 0.3630	 8.5440
 0.3640	 8.5800
 0.3650	 8.5570
 0.3660	 8.5460
 0.3670	 8.5120
 0.3680	 8.4560
 0.3690	 8.4090
 0.3700	 8.4960
 0.3710	 8.5510
 0.3720	 8.5010
 0.3730	 8.5110
 0.3740	 8.4840
 0.3750	 8.4420
 0.3760	 8.4400
 0.3770	 8.4780
 0.3780	 8.4860
 0.3790	 8.4650
 0.3800	 8.4770
 0.3810	 8.4620
 0.3820	 8.4480
 0.3830	 8.4540
 0.3840	 8.4540
 0.3850	 8.4130
 0.3860	 8.3940
 0.3870	 8.4600
 0.3880	 8.4910
 0.3890	 8.5010
 0.3900	 8.5060
 0.3910	 8.5120
 0.3920	 8.5010
 0.3930	 8.4950
 0.3940	 8.5140
 0.3950	 8.5550
 0.3960	 8.5700
 0.3970	 8.5750
 0.3980	 8.6120
 0.3990	 8.6240
 0.4000	 8.6180
 0.4010	 8.6140
 0.4020	 8.6350
 0.4030	 8.6810
 0.4040	 8.7030
 0.4050	 8.6740
 0.4060	 8.6910
 0.4070	 8.7170
 0.4080	 8.7420
 0.4090	 8.7680
 0.4100	 8.8010
 0.4110	 8.8300
 0.4120	 8.8480
 0.4130	 8.8640
 0.4140	 8.8680
 0.4150	 8.8730
 0.4160	 8.8920
 0.4170	 8.9260
 0.4180	 8.9480
 0.4190	 8.9550
 0.4200	 8.9640
 0.4210	 8.9650
 0.4220	 8.9680
 0.4230	 8.9800
 0.4240	 8.9890
 0.4250	 8.9880
 0.4260	 8.9830
 0.4270	 8.9870
 0.4280	 8.9860
 0.4290	 8.9820
 0.4300	 8.9740
 0.4310	 8.9570
 0.4320	 8.9420
 0.4330	 8.9310
 0.4340	 8.9230
 0.4350	 8.9100
 0.4360	 8.9100
 0.4370	 8.9210
 0.4380	 8.9280
 0.4390	 8.9400
 0.4400	 8.9540
 0.4410	 8.9710
 0.4420	 8.9960
 0.4430	 9.0190
 0.4440	 9.0290
 0.4450	 9.0210
 0.4460	 9.0270
 0.4470	 9.0430
 0.4480	 9.0610
 0.4490	 9.0710
 0.4500	 9.0780
 0.4510	 9.0860
 0.4520	 9.0960
 0.4530	 9.0970
 0.4540	 9.1000
 0.4550	 9.1100
 0.4560	 9.1230
 0.4570	 9.1260
 0.4580	 9.1270
 0.4590	 9.1320
 0.4600	 9.1420
 0.4610	 9.1420
 0.4620	 9.1390
 0.4630	 9.1450
 0.4640	 9.1430
 0.4650	 9.1350
 0.4660	 9.1280
 0.4670	 9.1340
 0.4680	 9.1330
 0.4690	 9.1290
 0.4700	 9.1290
 0.4710	 9.1310
 0.4720	 9.1270
 0.4730	 9.1240
 0.4740	 9.1380
 0.4750	 9.1420
 0.4760	 9.1410
 0.4770	 9.1410
 0.4780	 9.1460
 0.4790	 9.1440
 0.4800	 9.1390
 0.4810	 9.1400
 0.4820	 9.1380
 0.4830	 9.1380
 0.4840	 9.1390
 0.4850	 9.1360
 0.4860	 9.1320
 0.4870	 9.1330
 0.4880	 9.1430
 0.4890	 9.1490
 0.4900	 9.1650
 0.4910	 9.1890
 0.4920	 9.2120
 0.4930	 9.2390
 0.4940	 9.2710
 0.4950	 9.3070
 0.4960	 9.3490
 0.4970	 9.3930
 0.4980	 9.4440
 0.4990	 9.5030
 0.5000	 9.5670
 0.5010	 9.6370
 0.5020	 9.7170
 0.5030	 9.8090
 0.5040	 9.9090
 0.5050	10.0180
 0.5060	10.1410
 0.5070	10.2750
 0.5080	10.4240
 0.5090	10.5850
 0.5100	10.7560
 0.5110	10.9510
 0.5120	11.1610
 0.5130	11.3800
 0.5140	11.6050
 0.5150	11.8460
 0.5160	12.1000
 0.5170	12.3620
 0.5180	12.6370
 0.5190	12.9130
 0.5200	13.1850
 0.5210	13.4540
 0.5220	13.7190
 0.5230	13.9770
 0.5240	14.2240
 0.5250	14.4560
 0.5260	14.6730
 0.5270	14.8710
 0.5280	15.0490
 0.5290	15.2140
 0.5300	15.3630
 0.5310	15.4930
 0.5320	15.6030
 0.5330	15.7000
 0.5340	15.7840
 0.5350	15.8560
 0.5360	15.9110
 0.5370	15.9520
 0.5380	15.9820
 0.5390	16.0010
 0.5400	16.0090
 0.5410	16.0050
 0.5420	15.9940
 0.5430	15.9890
 0.5440	15.9960
 0.5450	16.0170
 0.5460	16.0480
 0.5470	16.0850
 0.5480	16.1180
 0.5490	16.1420
 0.5500	16.1560
 0.5510	16.1620
 0.5520	16.1610
 0.5530	16.1500
 0.5540	16.1230
 0.5550	16.0830
 0.5560	16.0300
 0.5570	15.9610
 0.5580	15.8780
 0.5590	15.7820
 0.5600	15.6770
 0.5610	15.5620
 0.5620	15.4390
 0.5630	15.3060
 0.5640	15.1630
 0.5650	15.0140
 0.5660	14.8570
 0.5670	14.6900
 0.5680	14.5170
 0.5690	14.3470
 0.5700	14.1780
 0.5710	14.0110
 0.5720	13.8510
 0.5730	13.6980
 0.5740	13.5580
 0.5750	13.4350
 0.5760	13.3190
 0.5770	13.2080
 0.5780	13.1020
 0.5790	12.9930
 0.5800	12.8870
 0.5810	12.7870
 0.5820	12.6970
 0.5830	12.6130
 0.5840	12.5350
 0.5850	12.4640
 0.5860	12.3960
 0.5870	12.3240
 0.5880	12.2530
 0.5890	12.1880
 0.5900	12.1330
 0.5910	12.0920
 0.5920	12.0580
 0.5930	12.0200
 0.5940	11.9890
 0.5950	11.9620
 0.5960	11.9360
 0.5970	11.9090
 0.5980	11.8820
 0.5990	11.8550
 0.6000	11.8270
 0.6010	11.7990
 0.6020	11.7690
 0.6030	11.7330
 0.6040	11.6890
 0.6050	11.6410
 0.6060	11.5870
 0.6070	11.5230
 0.6080	11.4570
 0.6090	11.3790
 0.6100	11.2800
 0.6110	11.1670
 0.6120	11.0970
 0.6130	11.0530
 0.6140	11.0150
 0.6150	10.9620
 0.6160	10.9060
 0.6170	10.8510
 0.6180	10.7970
 0.6190	10.7410
 0.6200	10.6910
 0.6210	10.6500
 0.6220	10.6140
 0.6230	10.5840
 0.6240	10.5570
 0.6250	10.5320
 0.6260	10.5130
 0.6270	10.5000
 0.6280	10.4880
 0.6290	10.4730
 0.6300	10.4600
 0.6310	10.4470
 0.6320	10.4350
 0.6330	10.4200
 0.6340	10.3950
 0.6350	10.3610
 0.6360	10.3170
 0.6370	10.2680
 0.6380	10.2110
 0.6390	10.1470
 0.6400	10.0800
 0.6410	10.0130
 0.6420	 9.9440
 0.6430	 9.8740
 0.6440	 9.8040
 0.6450	 9.7360
 0.6460	 9.6700
 0.6470	 9.6070
 0.6480	 9.5510
 0.6490	 9.5020
 0.6500	 9.4590
 0.6510	 9.4240
 0.6520	 9.3960
 0.6530	 9.3720
 0.6540	 9.3520
 0.6550	 9.3360
 0.6560	 9.3190
 0.6570	 9.2990
 0.6580	 9.2800
 0.6590	 9.2560
 0.6600	 9.2350
 0.6610	 9.2150
 0.6620	 9.1930
 0.6630	 9.1730
 0.6640	 9.1580
 0.6650	 9.1490
 0.6660	 9.1430
 0.6670	 9.1410
 0.6680	 9.1430
 0.6690	 9.1500
 0.6700	 9.1640
 0.6710	 9.1870
 0.6720	 9.2160
 0.6730	 9.2480
 0.6740	 9.2850
 0.6750	 9.3290
 0.6760	 9.3830
 0.6770	 9.4420
 0.6780	 9.5040
 0.6790	 9.5710
 0.6800	 9.6470
 0.6810	 9.7290
 0.6820	 9.8130
 0.6830	 9.9000
 0.6840	 9.9990
 0.6850	10.1030
 0.6860	10.2150
 0.6870	10.3420
 0.6880	10.4910
 0.6890	10.6770
 0.6900	10.9100
 0.6910	11.1960
 0.6920	11.5450
 0.6930	11.9630
 0.6940	12.4520
 0.6950	13.0200
 0.6960	13.6610
 0.6970	14.3700
 0.6980	15.1360
 0.6990	15.9600
 0.7000	16.8260
 0.7010	17.7270
 0.7020	18.6570
 0.7030	19.6070
 0.7040	20.5720
 0.7050	21.5460
 0.7060	22.5260
 0.7070	23.5140
 0.7080	24.5090
 0.7090	25.5120
 0.7100	26.5270
 0.7110	27.5500
 0.7120	28.5800
 0.7130	29.6200
 0.7140	30.6660
 0.7150	31.7190
 0.7160	32.7740
 0.7170	33.8310
 0.7180	34.8860
 0.7190	35.9390
 0.7200	36.9890
 0.7210	38.0270
 0.7220	39.0530
 0.7230	40.0640
 0.7240	41.0550
 0.7250	42.0250
 0.7260	42.9710
 0.7270	43.8910
 0.7280	44.7790
 0.7290	45.6360
 0.7300	46.4620
 0.7310	47.2560
 0.7320	48.0150
 0.7330	48.7350
 0.7340	49.4160
 0.7350	50.0670
 0.7360	50.6820
 0.7370	51.2600
 0.7380	51.8050
 0.7390	52.3140
 0.7400	52.7880
 0.7410	53.2290
 0.7420	53.6370
 0.7430	54.0130
 0.7440	54.3580
 0.7450	54.6720
 0.7460	54.9570
 0.7470	55.2140
 0.7480	55.4480
 0.7490	55.6590
 0.7500	55.8460
 0.7510	56.0130
 0.7520	56.1620
 0.7530	56.2930
 0.7540	56.4140
 0.7550	56.5260
 0.7560	56.6250
 0.7570	56.7080
 0.7580	56.7850
 0.7590	56.8550
 0.7600	56.9160
 0.7610	56.9700
 0.7620	57.0150
 0.7630	57.0530
 0.7640	57.0860
 0.7650	57.1150
 0.7660	57.1450
 0.7670	57.1710
 0.7680	57.1860
 0.7690	57.2000
 0.7700	57.2130
 0.7710	57.2220
 0.7720	57.2260
 0.7730	57.2340
 0.7740	57.2430
 0.7750	57.2520
 0.7760	57.2610
 0.7770	57.2700
 0.7780	57.2770
 0.7790	57.2840
 0.7800	57.2910
 0.7810	57.2960
 0.7820	57.3010
 0.7830	57.3110
 0.7840	57.3190
 0.7850	57.3240
 0.7860	57.3280
 0.7870	57.3350
 0.7880	57.3390
 0.7890	57.3400
 0.7900	57.3420
 0.7910	57.3420
 0.7920	57.3430
 0.7930	57.3440
 0.7940	57.3390
 0.7950	57.3340
 0.7960	57.3310
 0.7970	57.3280
 0.7980	57.3210
 0.7990	57.3140
 0.8000	57.3060
 0.8010	57.2950
 0.8020	57.2870
 0.8030	57.2770
 0.8040	57.2650
 0.8050	57.2520
 0.8060	57.2410
 0.8070	57.2280
 0.8080	57.2110
 0.8090	57.1970
 0.8100	57.1860
 0.8110	57.1740
 0.8120	57.1590
 0.8130	57.1390
 0.8140	57.1180
 0.8150	57.1000
 0.8160	57.0850
 0.8170	57.0720
 0.8180	57.0580
 0.8190	57.0430
 0.8200	57.0300
 0.8210	57.0120
 0.8220	56.9970
 0.8230	56.9860
 0.8240	56.9720
 0.8250	56.9580
 0.8260	56.9430
 0.8270	56.9280
 0.8280	56.9160
 0.8290	56.9040
 0.8300	56.8920
 0.8310	56.8800
 0.8320	56.8710
 0.8330	56.8620
 0.8340	56.8520
 0.8350	56.8450
 0.8360	56.8400
 0.8370	56.8390
 0.8380	56.8370
 0.8390	56.8330
 0.8400	56.8310
 0.8410	56.8290
 0.8420	56.8280
 0.8430	56.8300
 0.8440	56.8350
 0.8450	56.8400
 0.8460	56.8410
 0.8470	56.8430
 0.8480	56.8470
 0.8490	56.8540
 0.8500	56.8630
 0.8510	56.8710
 0.8520	56.8830
 0.8530	56.8970
 0.8540	56.9030
 0.8550	56.9120
 0.8560	56.9220
 0.8570	56.9330
 0.8580	56.9430
 0.8590	56.9520
 0.8600	56.9620
 0.8610	56.9750
 0.8620	56.9890
 0.8630	57.0050
 0.8640	57.0200
 0.8650	57.0340
 0.8660	57.0470
 0.8670	57.0570
 0.8680	57.0710
 0.8690	57.0930
 0.8700	57.1080
 0.8710	57.1200
 0.8720	57.1340
 0.8730	57.1500
 0.8740	57.1670
 0.8750	57.1870
 0.8760	57.2070
 0.8770	57.2230
 0.8780	57.2410
 0.8790	57.2600
 0.8800	57.2780
 0.8810	57.2970
 0.8820	57.3110
 0.8830	57.3240
 0.8840	57.3420
 0.8850	57.3580
 0.8860	57.3700
 0.8870	57.3840
 0.8880	57.4060
 0.8890	57.4200
 0.8900	57.4330
 0.8910	57.4500
 0.8920	57.4680
 0.8930	57.4850
 0.8940	57.5020
 0.8950	57.5170
 0.8960	57.5310
 0.8970	57.5480
 0.8980	57.5610
 0.8990	57.5730
 0.9000	57.5900
 0.9010	57.6000
 0.9020	57.6080
 0.9030	57.6200
 0.9040	57.6360
 0.9050	57.6450
 0.9060	57.6550
 0.9070	57.6700
 0.9080	57.6790
 0.9090	57.6870
 0.9100	57.6970
 0.9110	57.7060
 0.9120	57.7140
 0.9130	57.7150
 0.9140	57.7200
 0.9150	57.7340
 0.9160	57.7320
 0.9170	57.7310
 0.9180	57.7340
 0.9190	57.7340
 0.9200	57.7310
 0.9210	57.7300
 0.9220	57.7320
 0.9230	57.7300
 0.9240	57.7120
 0.9250	57.7050
 0.9260	57.7040
 0.9270	57.6850
 0.9280	57.6690
 0.9290	57.6540
 0.9300	57.6370
 0.9310	57.6120
 0.9320	57.5960
 0.9330	57.5800
 0.9340	57.5550
 0.9350	57.5230
 0.9360	57.5000
 0.9370	57.4720
 0.9380	57.4340
 0.9390	57.4000
 0.9400	57.3770
 0.9410	57.3460
 0.9420	57.2990
 0.9430	57.2530
 0.9440	57.2100
 0.9450	57.1630
 0.9460	57.1070
 0.9470	57.0490
 0.9480	56.9960
 0.9490	56.9350
 0.9500	56.8590
 0.9510	56.7900
 0.9520	56.7170
 0.9530	56.6430
 0.9540	56.5700
 0.9550	56.4860
 0.9560	56.4130
 0.9570	56.3440
 0.9580	56.2700
 0.9590	56.2150
 0.9600	56.1560
 0.9610	56.1000
 0.9620	56.0550
 0.9630	56.0000
 0.9640	55.9590
 0.9650	55.9230
 0.9660	55.8760
 0.9670	55.8580
 0.9680	55.8420
 0.9690	55.8190
 0.9700	55.7900
 0.9710	55.7590
 0.9720	55.7460
 0.9730	55.7460
 0.9740	55.7390
 0.9750	55.7180
 0.9760	55.7080
 0.9770	55.7080
 0.9780	55.7040
 0.9790	55.7010
 0.9800	55.6900
 0.9810	55.6760
 0.9820	55.6720
 0.9830	55.6920
 0.9840	55.7030
 0.9850	55.7020
 0.9860	55.7010
 0.9870	55.7040
 0.9880	55.7180
 0.9890	55.7420
 0.9900	55.7690
 0.9910	55.7740
 0.9920	55.7770
 0.9930	55.7860
 0.9940	55.8030
 0.9950	55.8170
 0.9960	55.8310
 0.9970	55.8510
 0.9980	55.8810
 0.9990	55.9080
 1.0000	55.9210
 1.0010	57.1650
 1.0020	57.1900
 1.0030	57.2100
 1.0040	57.2340
 1.0050	57.2650
 1.0060	57.2870
 1.0070	57.3110
 1.0080	57.3370
 1.0090	57.3650
 1.0100	57.3890
 1.0110	57.4120
 1.0120	57.4370
 1.0130	57.4580
 1.0140	57.4840
 1.0150	57.5150
 1.0160	57.5440
 1.0170	57.5680
 1.0180	57.5950
 1.0190	57.6190
 1.0200	57.6390
 1.0210	57.6660
 1.0220	57.6940
 1.0230	57.7200
 1.0240	57.7470
 1.0250	57.7730
 1.0260	57.7980
 1.0270	57.8210
 1.0280	57.8410
 1.0290	57.8660
 1.0300	57.8930
 1.0310	57.9180
 1.0320	57.9440
 1.0330	57.9700
 1.0340	57.9990
 1.0350	58.0230
 1.0360	58.0460
 1.0370	58.0750
 1.0380	58.0980
 1.0390	58.1150
 1.0400	58.1350
 1.0410	58.1570
 1.0420	58.1770
 1.0430	58.1940
 1.0440	58.2150
 1.0450	58.2410
 1.0460	58.2630
 1.0470	58.2890
 1.0480	58.3080
 1.0490	58.3210
 1.0500	58.3340
 1.0510	58.3460
 1.0520	58.3560
 1.0530	58.3670
 1.0540	58.3800
 1.0550	58.3910
 1.0560	58.4030
 1.0570	58.4160
 1.0580	58.4290
 1.0590	58.4410
 1.0600	58.4540
 1.0610	58.4650
 1.0620	58.4750
 1.0630	58.4830
 1.0640	58.4910
 1.0650	58.4970
 1.0660	58.4980
 1.0670	58.5000
 1.0680	58.5010
 1.0690	58.4990
 1.0700	58.5000
 1.0710	58.5020
 1.0720	58.5020
 1.0730	58.5020
 1.0740	58.5020
 1.0750	58.5030
 1.0760	58.5020
 1.0770	58.5030
 1.0780	58.5000
 1.0790	58.4910
 1.0800	58.4860
 1.0810	58.4810
 1.0820	58.4760
 1.0830	58.4750
 1.0840	58.4710
 1.0850	58.4680
 1.0860	58.4610
 1.0870	58.4540
 1.0880	58.4440
 1.0890	58.4380
 1.0900	58.4330
 1.0910	58.4240
 1.0920	58.4170
 1.0930	58.4060
 1.0940	58.3880
 1.0950	58.3770
 1.0960	58.3670
 1.0970	58.3580
 1.0980	58.3540
 1.0990	58.3450
 1.1000	58.3320
 1.1010	58.3200
 1.1020	58.3040
 1.1030	58.2900
 1.1040	58.2780
 1.1050	58.2660
 1.1060	58.2540
 1.1070	58.2420
 1.1080	58.2300
 1.1090	58.2200
 1.1100	58.2050
 1.1110	58.1890
 1.1120	58.1730
 1.1130	58.1530
 1.1140	58.1340
 1.1150	58.1190
 1.1160	58.0980
 1.1170	58.0760
 1.1180	58.0510
 1.1190	58.0240
 1.1200	57.9930
 1.1210	57.9620
 1.1220	57.9270
 1.1230	57.8860
 1.1240	57.8410
 1.1250	57.7890
 1.1260	57.7310
 1.1270	57.6670
 1.1280	57.5980
 1.1290	57.5210
 1.1300	57.4390
 1.1310	57.3460
 1.1320	57.2470
 1.1330	57.1360
 1.1340	57.0130
 1.1350	56.8830
 1.1360	56.7440
 1.1370	56.5990
 1.1380	56.4500
 1.1390	56.2960
 1.1400	56.1380
 1.1410	55.9750
 1.1420	55.8050
 1.1430	55.6360
 1.1440	55.4680
 1.1450	55.2990
 1.1460	55.1350
 1.1470	54.9710
 1.1480	54.8140
 1.1490	54.6590
 1.1500	54.5140
 1.1510	54.3770
 1.1520	54.2480
 1.1530	54.1270
 1.1540	54.0140
 1.1550	53.9090
 1.1560	53.8110
 1.1570	53.7230
 1.1580	53.6450
 1.1590	53.5750
 1.1600	53.5100
 1.1610	53.4520
 1.1620	53.3980
 1.1630	53.3470
 1.1640	53.3020
 1.1650	53.2600
 1.1660	53.2230
 1.1670	53.1890
 1.1680	53.1600
 1.1690	53.1310
 1.1700	53.1050
 1.1710	53.0790
 1.1720	53.0540
 1.1730	53.0290
 1.1740	53.0050
 1.1750	52.9810
 1.1760	52.9580
 1.1770	52.9330
 1.1780	52.9060
 1.1790	52.8790
 1.1800	52.8510
 1.1810	52.8240
 1.1820	52.7960
 1.1830	52.7680
 1.1840	52.7400
 1.1850	52.7120
 1.1860	52.6850
 1.1870	52.6600
 1.1880	52.6350
 1.1890	52.6120
 1.1900	52.5900
 1.1910	52.5690
 1.1920	52.5500
 1.1930	52.5320
 1.1940	52.5170
 1.1950	52.5030
 1.1960	52.4900
 1.1970	52.4800
 1.1980	52.4690
 1.1990	52.4620
 1.2000	52.4580
 1.2010	52.4560
 1.2020	52.4570
 1.2030	52.4610
 1.2040	52.4670
 1.2050	52.4770
 1.2060	52.4890
 1.2070	52.5030
 1.2080	52.5190
 1.2090	52.5380
 1.2100	52.5580
 1.2110	52.5780
 1.2120	52.6000
 1.2130	52.6240
 1.2140	52.6510
 1.2150	52.6780
 1.2160	52.7070
 1.2170	52.7400
 1.2180	52.7710
 1.2190	52.8000
 1.2200	52.8320
 1.2210	52.8650
 1.2220	52.8980
 1.2230	52.9310
 1.2240	52.9650
 1.2250	52.9950
 1.2260	53.0280
 1.2270	53.0640
 1.2280	53.0960
 1.2290	53.1270
 1.2300	53.1570
 1.2310	53.1850
 1.2320	53.2150
 1.2330	53.2470
 1.2340	53.2750
 1.2350	53.3020
 1.2360	53.3270
 1.2370	53.3490
 1.2380	53.3690
 1.2390	53.3890
 1.2400	53.4110
 1.2410	53.4340
 1.2420	53.4560
 1.2430	53.4760
 1.2440	53.4950
 1.2450	53.5110
 1.2460	53.5280
 1.2470	53.5460
 1.2480	53.5630
 1.2490	53.5800
 1.2500	53.5940
 1.2510	53.6060
 1.2520	53.6180
 1.2530	53.6290
 1.2540	53.6410
 1.2550	53.6530
 1.2560	53.6630
 1.2570	53.6740
 1.2580	53.6790
 1.2590	53.6840
 1.2600	53.6880
 1.2610	53.6910
 1.2620	53.6920
 1.2630	53.6960
 1.2640	53.6980
 1.2650	53.6970
 1.2660	53.6960
 1.2670	53.6950
 1.2680	53.6920
 1.2690	53.6890
 1.2700	53.6830
 1.2710	53.6740
 1.2720	53.6650
 1.2730	53.6560
 1.2740	53.6450
 1.2750	53.6350
 1.2760	53.6230
 1.2770	53.6090
 1.2780	53.5910
 1.2790	53.5690
 1.2800	53.5470
 1.2810	53.5230
 1.2820	53.4990
 1.2830	53.4730
 1.2840	53.4450
 1.2850	53.4140
 1.2860	53.3800
 1.2870	53.3430
 1.2880	53.3040
 1.2890	53.2630
 1.2900	53.2170
 1.2910	53.1690
 1.2920	53.1190
 1.2930	53.0640
 1.2940	53.0080
 1.2950	52.9480
 1.2960	52.8840
 1.2970	52.8200
 1.2980	52.7520
 1.2990	52.6790
 1.3000	52.6070
 1.3010	52.5310
 1.3020	52.4520
 1.3030	52.3710
 1.3040	52.2860
 1.3050	52.1980
 1.3060	52.1080
 1.3070	52.0140
 1.3080	51.9200
 1.3090	51.8220
 1.3100	51.7210
 1.3110	51.6190
 1.3120	51.5120
 1.3130	51.4030
 1.3140	51.2910
 1.3150	51.1770
 1.3160	51.0580
 1.3170	50.9370
 1.3180	50.8140
 1.3190	50.6870
 1.3200	50.5590
 1.3210	50.4300
 1.3220	50.2980
 1.3230	50.1630
 1.3240	50.0240
 1.3250	49.8840
 1.3260	49.7390
 1.3270	49.5940
 1.3280	49.4490
 1.3290	49.3010
 1.3300	49.1530
 1.3310	49.0030
 1.3320	48.8480
 1.3330	48.6950
 1.3340	48.5430
 1.3350	48.3890
 1.3360	48.2370
 1.3370	48.0840
 1.3380	47.9300
 1.3390	47.7780
 1.3400	47.6260
 1.3410	47.4770
 1.3420	47.3310
 1.3430	47.1850
 1.3440	47.0420
 1.3450	46.9010
 1.3460	46.7590
 1.3470	46.6210
 1.3480	46.4850
 1.3490	46.3500
 1.3500	46.2180
 1.3510	46.0890
 1.3520	45.9580
 1.3530	45.8290
 1.3540	45.6990
 1.3550	45.5680
 1.3560	45.4390
 1.3570	45.3070
 1.3580	45.1750
 1.3590	45.0400
 1.3600	44.9010
 1.3610	44.7610
 1.3620	44.6130
 1.3630	44.4610
 1.3640	44.3040
 1.3650	44.1360
 1.3660	43.9620
 1.3670	43.7770
 1.3680	43.5820
 1.3690	43.3750
 1.3700	43.1540
 1.3710	42.9190
 1.3720	42.6710
 1.3730	42.4050
 1.3740	42.1230
 1.3750	41.8210
 1.3760	41.4960
 1.3770	41.1510
 1.3780	40.7810
 1.3790	40.3890
 1.3800	39.9750
 1.3810	39.5350
 1.3820	39.0770
 1.3830	38.5990
 1.3840	38.1040
 1.3850	37.5890
 1.3860	37.0620
 1.3870	36.5130
 1.3880	35.9640
 1.3890	35.4040
 1.3900	34.8350
 1.3910	34.2700
 1.3920	33.7010
 1.3930	33.1300
 1.3940	32.5660
 1.3950	32.0020
 1.3960	31.4480
 1.3970	30.9070
 1.3980	30.3780
 1.3990	29.8700
 1.4000	29.3750
 1.4010	28.8950
 1.4020	28.4370
 1.4030	27.9940
 1.4040	27.5710
 1.4050	27.1720
 1.4060	26.7900
 1.4070	26.4310
 1.4080	26.0910
 1.4090	25.7690
 1.4100	25.4670
 1.4110	25.1810
 1.4120	24.9150
 1.4130	24.6660
 1.4140	24.4320
 1.4150	24.2160
 1.4160	24.0130
 1.4170	23.8220
 1.4180	23.6460
 1.4190	23.4800
 1.4200	23.3260
 1.4210	23.1830
 1.4220	23.0480
 1.4230	22.9240
 1.4240	22.8090
 1.4250	22.7010
 1.4260	22.6030
 1.4270	22.5110
 1.4280	22.4250
 1.4290	22.3460
 1.4300	22.2750
 1.4310	22.2090
 1.4320	22.1490
 1.4330	22.0930
 1.4340	22.0430
 1.4350	21.9970
 1.4360	21.9560
 1.4370	21.9190
 1.4380	21.8880
 1.4390	21.8600
 1.4400	21.8360
 1.4410	21.8150
 1.4420	21.7980
 1.4430	21.7830
 1.4440	21.7720
 1.4450	21.7630
 1.4460	21.7560
 1.4470	21.7510
 1.4480	21.7490
 1.4490	21.7490
 1.4500	21.7530
 1.4510	21.7580
 1.4520	21.7660
 1.4530	21.7740
 1.4540	21.7850
 1.4550	21.7970
 1.4560	21.8130
 1.4570	21.8320
 1.4580	21.8540
 1.4590	21.8780
 1.4600	21.9050
 1.4610	21.9370
 1.4620	21.9730
 1.4630	22.0150
 1.4640	22.0610
 1.4650	22.1090
 1.4660	22.1610
 1.4670	22.2170
 1.4680	22.2790
 1.4690	22.3440
 1.4700	22.4140
 1.4710	22.4890
 1.4720	22.5660
 1.4730	22.6480
 1.4740	22.7330
 1.4750	22.8200
 1.4760	22.9110
 1.4770	23.0040
 1.4780	23.0990
 1.4790	23.1980
 1.4800	23.2990
 1.4810	23.4000
 1.4820	23.5040
 1.4830	23.6090
 1.4840	23.7160
 1.4850	23.8230
 1.4860	23.9330
 1.4870	24.0450
 1.4880	24.1550
 1.4890	24.2670
 1.4900	24.3810
 1.4910	24.4960
 1.4920	24.6120
 1.4930	24.7310
 1.4940	24.8480
 1.4950	24.9660
 1.4960	25.0840
 1.4970	25.2030
 1.4980	25.3220
 1.4990	25.4430
 1.5000	25.5630
 1.5010	25.6860
 1.5020	25.8070
 1.5030	25.9290
 1.5040	26.0510
 1.5050	26.1720
 1.5060	26.2930
 1.5070	26.4130
 1.5080	26.5340
 1.5090	26.6560
 1.5100	26.7770
 1.5110	26.8990
 1.5120	27.0220
 1.5130	27.1440
 1.5140	27.2650
 1.5150	27.3860
 1.5160	27.5070
 1.5170	27.6270
 1.5180	27.7460
 1.5190	27.8650
 1.5200	27.9850
 1.5210	28.1020
 1.5220	28.2200
 1.5230	28.3370
 1.5240	28.4520
 1.5250	28.5680
 1.5260	28.6840
 1.5270	28.8000
 1.5280	28.9180
 1.5290	29.0320
 1.5300	29.1460
 1.5310	29.2600
 1.5320	29.3720
 1.5330	29.4840
 1.5340	29.5960
 1.5350	29.7070
 1.5360	29.8160
 1.5370	29.9240
 1.5380	30.0310
 1.5390	30.1390
 1.5400	30.2470
 1.5410	30.3550
 1.5420	30.4620
 1.5430	30.5690
 1.5440	30.6750
 1.5450	30.7780
 1.5460	30.8810
 1.5470	30.9850
 1.5480	31.0850
 1.5490	31.1880
 1.5500	31.2920
 1.5510	31.3920
 1.5520	31.4920
 1.5530	31.5890
 1.5540	31.6840
 1.5550	31.7790
 1.5560	31.8740
 1.5570	31.9680
 1.5580	32.0620
 1.5590	32.1550
 1.5600	32.2470
 1.5610	32.3360
 1.5620	32.4250
 1.5630	32.5130
 1.5640	32.5990
 1.5650	32.6850
 1.5660	32.7700
 1.5670	32.8550
 1.5680	32.9410
 1.5690	33.0240
 1.5700	33.1050
 1.5710	33.1860
 1.5720	33.2660
 1.5730	33.3450
 1.5740	33.4250
 1.5750	33.5060
 1.5760	33.5860
 1.5770	33.6630
 1.5780	33.7410
 1.5790	33.8180
 1.5800	33.8930
 1.5810	33.9690
 1.5820	34.0440
 1.5830	34.1180
 1.5840	34.1930
 1.5850	34.2650
 1.5860	34.3370
 1.5870	34.4100
 1.5880	34.4810
 1.5890	34.5550
 1.5900	34.6270
 1.5910	34.6960
 1.5920	34.7650
 1.5930	34.8330
 1.5940	34.9010
 1.5950	34.9720
 1.5960	35.0410
 1.5970	35.1100
 1.5980	35.1770
 1.5990	35.2430
 1.6000	35.3080
 1.6010	35.3720
 1.6020	35.4370
 1.6030	35.5020
 1.6040	35.5660
 1.6050	35.6290
 1.6060	35.6910
 1.6070	35.7520
 1.6080	35.8130
 1.6090	35.8730
 1.6100	35.9310
 1.6110	35.9890
 1.6120	36.0450
 1.6130	36.1030
 1.6140	36.1590
 1.6150	36.2130
 1.6160	36.2680
 1.6170	36.3210
 1.6180	36.3740
 1.6190	36.4270
 1.6200	36.4760
 1.6210	36.5240
 1.6220	36.5730
 1.6230	36.6220
 1.6240	36.6700
 1.6250	36.7190
 1.6260	36.7660
 1.6270	36.8110
 1.6280	36.8550
 1.6290	36.8990
 1.6300	36.9410
 1.6310	36.9840
 1.6320	37.0270
 1.6330	37.0670
 1.6340	37.1040
 1.6350	37.1430
 1.6360	37.1800
 1.6370	37.2160
 1.6380	37.2510
 1.6390	37.2850
 1.6400	37.3150
 1.6410	37.3440
 1.6420	37.3720
 1.6430	37.3960
 1.6440	37.4170
 1.6450	37.4400
 1.6460	37.4590
 1.6470	37.4780
 1.6480	37.4950
 1.6490	37.5090
 1.6500	37.5250
 1.6510	37.5390
 1.6520	37.5530
 1.6530	37.5640
 1.6540	37.5720
 1.6550	37.5770
 1.6560	37.5790
 1.6570	37.5840
 1.6580	37.5910
 1.6590	37.5940
 1.6600	37.5970
 1.6610	37.5960
 1.6620	37.5930
 1.6630	37.5940
 1.6640	37.5950
 1.6650	37.5950
 1.6660	37.5950
 1.6670	37.5940
 1.6680	37.5910
 1.6690	37.5900
 1.6700	37.5900
 1.6710	37.5880
 1.6720	37.5850
 1.6730	37.5810
 1.6740	37.5760
 1.6750	37.5690
 1.6760	37.5610
 1.6770	37.5530
 1.6780	37.5430
 1.6790	37.5310
 1.6800	37.5160
 1.6810	37.4990
 1.6820	37.4790
 1.6830	37.4570
 1.6840	37.4330
 1.6850	37.4060
 1.6860	37.3770
 1.6870	37.3440
 1.6880	37.3070
 1.6890	37.2700
 1.6900	37.2310
 1.6910	37.1900
 1.6920	37.1480
 1.6930	37.1050
 1.6940	37.0600
 1.6950	37.0120
 1.6960	36.9640
 1.6970	36.9130
 1.6980	36.8640
 1.6990	36.8160
 1.7000	36.7650
 1.7010	36.7130
 1.7020	36.6580
 1.7030	36.6010
 1.7040	36.5440
 1.7050	36.4840
 1.7060	36.4250
 1.7070	36.3650
 1.7080	36.3040
 1.7090	36.2420
 1.7100	36.1830
 1.7110	36.1260
 1.7120	36.0700
 1.7130	36.0150
 1.7140	35.9610
 1.7150	35.9050
 1.7160	35.8510
 1.7170	35.7990
 1.7180	35.7480
 1.7190	35.6960
 1.7200	35.6460
 1.7210	35.5970
 1.7220	35.5480
 1.7230	35.5020
 1.7240	35.4570
 1.7250	35.4120
 1.7260	35.3680
 1.7270	35.3270
 1.7280	35.2880
 1.7290	35.2500
 1.7300	35.2160
 1.7310	35.1810
 1.7320	35.1450
 1.7330	35.1090
 1.7340	35.0750
 1.7350	35.0390
 1.7360	35.0040
 1.7370	34.9640
 1.7380	34.9220
 1.7390	34.8760
 1.7400	34.8250
 1.7410	34.7720
 1.7420	34.7150
 1.7430	34.6580
 1.7440	34.5990
 1.7450	34.5370
 1.7460	34.4750
 1.7470	34.4110
 1.7480	34.3430
 1.7490	34.2770
 1.7500	34.2110
 1.7510	34.1450
 1.7520	34.0790
 1.7530	34.0130
 1.7540	33.9460
 1.7550	33.8820
 1.7560	33.8180
 1.7570	33.7570
 1.7580	33.7000
 1.7590	33.6450
 1.7600	33.5910
 1.7610	33.5400
 1.7620	33.4890
 1.7630	33.4370
 1.7640	33.3890
 1.7650	33.3440
 1.7660	33.2990
 1.7670	33.2560
 1.7680	33.2160
 1.7690	33.1770
 1.7700	33.1390
 1.7710	33.1020
 1.7720	33.0670
 1.7730	33.0310
 1.7740	32.9970
 1.7750	32.9650
 1.7760	32.9340
 1.7770	32.9030
 1.7780	32.8740
 1.7790	32.8460
 1.7800	32.8220
 1.7810	32.7980
 1.7820	32.7780
 1.7830	32.7620
 1.7840	32.7480
 1.7850	32.7390
 1.7860	32.7300
 1.7870	32.7240
 1.7880	32.7170
 1.7890	32.7110
 1.7900	32.7090
 1.7910	32.7080
 1.7920	32.7100
 1.7930	32.7120
 1.7940	32.7140
 1.7950	32.7160
 1.7960	32.7180
 1.7970	32.7240
 1.7980	32.7320
 1.7990	32.7390
 1.8000	32.7470
 1.8010	32.7550
 1.8020	32.7600
 1.8030	32.7690
 1.8040	32.7800
 1.8050	32.7900
 1.8060	32.7990
 1.8070	32.8100
 1.8080	32.8210
 1.8090	32.8320
 1.8100	32.8430
 1.8110	32.8530
 1.8120	32.8620
 1.8130	32.8700
 1.8140	32.8730
 1.8150	32.8770
 1.8160	32.8830
 1.8170	32.8860
 1.8180	32.8920
 1.8190	32.8930
 1.8200	32.8940
 1.8210	32.8950
 1.8220	32.8950
 1.8230	32.8930
 1.8240	32.8910
 1.8250	32.8890
 1.8260	32.8820
 1.8270	32.8730
 1.8280	32.8630
 1.8290	32.8510
 1.8300	32.8360
 1.8310	32.9610
 1.8320	32.9380
 1.8330	32.9110
 1.8340	32.8820
 1.8350	32.8480
 1.8360	32.8100
 1.8370	32.7700
 1.8380	32.7270
 1.8390	32.6750
 1.8400	32.6170
 1.8410	32.5530
 1.8420	32.4840
 1.8430	32.4100
 1.8440	32.3280
 1.8450	32.2400
 1.8460	32.1460
 1.8470	32.0420
 1.8480	31.9270
 1.8490	31.8030
 1.8500	31.6690
 1.8510	31.5250
 1.8520	31.3700
 1.8530	31.2040
 1.8540	31.0290
 1.8550	30.8430
 1.8560	30.6440
 1.8570	30.4300
 1.8580	30.1990
 1.8590	29.9560
 1.8600	29.6970
 1.8610	29.4250
 1.8620	29.1390
 1.8630	28.8430
 1.8640	28.5300
 1.8650	28.2000
 1.8660	27.8560
 1.8670	27.4920
 1.8680	27.1120
 1.8690	26.7150
 1.8700	26.3010
 1.8710	25.8720
 1.8720	25.4320
 1.8730	24.9800
 1.8740	24.5160
 1.8750	24.0450
 1.8760	23.5640
 1.8770	23.0800
 1.8780	22.5980
 1.8790	22.1100
 1.8800	21.6270
 1.8810	21.1460
 1.8820	20.6640
 1.8830	20.1800
 1.8840	19.7030
 1.8850	19.2290
 1.8860	18.7580
 1.8870	18.2980
 1.8880	17.8440
 1.8890	17.4080
 1.8900	16.9870
 1.8910	16.5840
 1.8920	16.1940
 1.8930	15.8270
 1.8940	15.4740
 1.8950	15.1420
 1.8960	14.8320
 1.8970	14.5370
 1.8980	14.2640
 1.8990	14.0110
 1.9000	13.7730
 1.9010	13.5540
 1.9020	13.3510
 1.9030	13.1680
 1.9040	12.9960
 1.9050	12.8410
 1.9060	12.7000
 1.9070	12.5700
 1.9080	12.4550
 1.9090	12.3520
 1.9100	12.2600
 1.9110	12.1760
 1.9120	12.1050
 1.9130	12.0360
 1.9140	11.9740
 1.9150	11.9190
 1.9160	11.8700
 1.9170	11.8250
 1.9180	11.7840
 1.9190	11.7490
 1.9200	11.7170
 1.9210	11.6880
 1.9220	11.6650
 1.9230	11.6460
 1.9240	11.6310
 1.9250	11.6210
 1.9260	11.6130
 1.9270	11.6110
 1.9280	11.6090
 1.9290	11.6060
 1.9300	11.6080
 1.9310	11.6120
 1.9320	11.6170
 1.9330	11.6250
 1.9340	11.6380
 1.9350	11.6510
 1.9360	11.6660
 1.9370	11.6830
 1.9380	11.7040
 1.9390	11.7250
 1.9400	11.7470
 1.9410	11.7710
 1.9420	11.7940
 1.9430	11.8200
 1.9440	11.8490
 1.9450	11.8820
 1.9460	11.9140
 1.9470	11.9480
 1.9480	11.9840
 1.9490	12.0190
 1.9500	12.0560
 1.9510	12.0950
 1.9520	12.1360
 1.9530	12.1780
 1.9540	12.2220
 1.9550	12.2660
 1.9560	12.3130
 1.9570	12.3590
 1.9580	12.4070
 1.9590	12.4540
 1.9600	12.5000
 1.9610	12.5470
 1.9620	12.5950
 1.9630	12.6430
 1.9640	12.6950
 1.9650	12.7500
 1.9660	12.8080
 1.9670	12.8670
 1.9680	12.9250
 1.9690	12.9820
 1.9700	13.0400
 1.9710	13.0970
 1.9720	13.1560
 1.9730	13.2170
 1.9740	13.2790
 1.9750	13.3400
 1.9760	13.4010
 1.9770	13.4650
 1.9780	13.5290
 1.9790	13.5920
 1.9800	13.6560
 1.9810	13.7200
 1.9820	13.7810
 1.9830	13.8450
 1.9840	13.9080
 1.9850	13.9740
 1.9860	14.0410
 1.9870	14.1100
 1.9880	14.1800
 1.9890	14.2500
 1.9900	14.3190
 1.9910	14.3880
 1.9920	14.4570
 1.9930	14.5270
 1.9940	14.5960
 1.9950	14.6630
 1.9960	14.7310
 1.9970	14.7970
 1.9980	14.8670
 1.9990	14.9390
 2.0000	15.0120
 2.0010	15.0850
 2.0020	15.1590
 2.0030	15.2270
 2.0040	15.2950
 2.0050	15.3660
 2.0060	15.4380
 2.0070	15.5090
 2.0080	15.5810
 2.0090	15.6520
 2.0100	15.7210
 2.0110	15.7930
 2.0120	15.8690
 2.0130	15.9420
 2.0140	16.0090
 2.0150	16.0750
 2.0160	16.1420
 2.0170	16.2070
 2.0180	16.2740
 2.0190	16.3450
 2.0200	16.4140
 2.0210	16.4830
 2.0220	16.5490
 2.0230	16.6150
 2.0240	16.6800
 2.0250	16.7420
 2.0260	16.8050
 2.0270	16.8680
 2.0280	16.9330
 2.0290	16.9970
 2.0300	17.0610
 2.0310	17.1230
 2.0320	17.1870
 2.0330	17.2460
 2.0340	17.3000
 2.0350	17.3570
 2.0360	17.4130
 2.0370	17.4690
 2.0380	17.5250
 2.0390	17.5800
 2.0400	17.6330
 2.0410	17.6870
 2.0420	17.7420
 2.0430	17.7970
 2.0440	17.8490
 2.0450	17.8980
 2.0460	17.9490
 2.0470	17.9990
 2.0480	18.0500
 2.0490	18.1040
 2.0500	18.1550
 2.0510	18.2060
 2.0520	18.2560
 2.0530	18.3050
 2.0540	18.3540
 2.0550	18.4030
 2.0560	18.4500
 2.0570	18.4990
 2.0580	18.5480
 2.0590	18.5990
 2.0600	18.6520
 2.0610	18.7050
 2.0620	18.7610
 2.0630	18.8130
 2.0640	18.8640
 2.0650	18.9160
 2.0660	18.9650
 2.0670	19.0160
 2.0680	19.0680
 2.0690	19.1180
 2.0700	19.1680
 2.0710	19.2190
 2.0720	19.2680
 2.0730	19.3190
 2.0740	19.3700
 2.0750	19.4230
 2.0760	19.4740
 2.0770	19.5250
 2.0780	19.5760
 2.0790	19.6260
 2.0800	19.6760
 2.0810	19.7250
 2.0820	19.7730
 2.0830	19.8160
 2.0840	19.8630
 2.0850	19.9120
 2.0860	19.9610
 2.0870	20.0110
 2.0880	20.0620
 2.0890	20.1120
 2.0900	20.1600
 2.0910	20.2080
 2.0920	20.2550
 2.0930	20.3010
 2.0940	20.3430
 2.0950	20.3900
 2.0960	20.4380
 2.0970	20.4860
 2.0980	20.5350
 2.0990	20.5830
 2.1000	20.6280
 2.1010	20.6740
 2.1020	20.7210
 2.1030	20.7660
 2.1040	20.8080
 2.1050	20.8540
 2.1060	20.8980
 2.1070	20.9400
 2.1080	20.9840
 2.1090	21.0300
 2.1100	21.0750
 2.1110	21.1190
 2.1120	21.1650
 2.1130	21.2130
 2.1140	21.2580
 2.1150	21.3040
 2.1160	21.3460
 2.1170	21.3830
 2.1180	21.4230
 2.1190	21.4610
 2.1200	21.5000
 2.1210	21.5420
 2.1220	21.5850
 2.1230	21.6240
 2.1240	21.6610
 2.1250	21.6970
 2.1260	21.7300
 2.1270	21.7670
 2.1280	21.8060
 2.1290	21.8430
 2.1300	21.8820
 2.1310	21.9180
 2.1320	21.9510
 2.1330	21.9860
 2.1340	22.0200
 2.1350	22.0520
 2.1360	22.0840
 2.1370	22.1130
 2.1380	22.1350
 2.1390	22.1620
 2.1400	22.1890
 2.1410	22.2180
 2.1420	22.2490
 2.1430	22.2830
 2.1440	22.3120
 2.1450	22.3390
 2.1460	22.3670
 2.1470	22.3940
 2.1480	22.4210
 2.1490	22.4480
 2.1500	22.4750
 2.1510	22.4980
 2.1520	22.5230
 2.1530	22.5490
 2.1540	22.5760
 2.1550	22.6050
 2.1560	22.6310
 2.1570	22.6540
 2.1580	22.6790
 2.1590	22.7030
 2.1600	22.7260
 2.1610	22.7490
 2.1620	22.7730
 2.1630	22.7930
 2.1640	22.8080
 2.1650	22.8270
 2.1660	22.8430
 2.1670	22.8620
 2.1680	22.8820
 2.1690	22.9040
 2.1700	22.9290
 2.1710	22.9510
 2.1720	22.9740
 2.1730	22.9940
 2.1740	23.0110
 2.1750	23.0300
 2.1760	23.0480
 2.1770	23.0680
 2.1780	23.0890
 2.1790	23.1120
 2.1800	23.1370
 2.1810	23.1600
 2.1820	23.1820
 2.1830	23.2050
 2.1840	23.2270
 2.1850	23.2470
 2.1860	23.2690
 2.1870	23.2930
 2.1880	23.3150
 2.1890	23.3380
 2.1900	23.3600
 2.1910	23.3790
 2.1920	23.4000
 2.1930	23.4220
 2.1940	23.4440
 2.1950	23.4650
 2.1960	23.4860
 2.1970	23.5080
 2.1980	23.5260
 2.1990	23.5410
 2.2000	23.5560
 2.2010	23.5640
 2.2020	23.5770
 2.2030	23.5900
 2.2040	23.6060
 2.2050	23.6250
 2.2060	23.6480
 2.2070	23.6660
 2.2080	23.6880
 2.2090	23.6990
 2.2100	23.7030
 2.2110	23.7120
 2.2120	23.7190
 2.2130	23.7270
 2.2140	23.7390
 2.2150	23.7470
 2.2160	23.7510
 2.2170	23.7580
 2.2180	23.7650
 2.2190	23.7730
 2.2200	23.7850
 2.2210	23.7900
 2.2220	23.7940
 2.2230	23.7940
 2.2240	23.7890
 2.2250	23.7820
 2.2260	23.7700
 2.2270	23.7590
 2.2280	23.7480
 2.2290	23.7320
 2.2300	23.7130
 2.2310	23.6960
 2.2320	23.6760
 2.2330	23.6490
 2.2340	23.6250
 2.2350	23.6040
 2.2360	23.5750
 2.2370	23.5440
 2.2380	23.5100
 2.2390	23.4700
 2.2400	23.4330
 2.2410	23.3940
 2.2420	23.3530
 2.2430	23.3130
 2.2440	23.2660
 2.2450	23.2160
 2.2460	23.1640
 2.2470	23.1080
 2.2480	23.0530
 2.2490	22.9960
 2.2500	22.9410
 2.2510	22.8850
 2.2520	22.8280
 2.2530	22.7720
 2.2540	22.7130
 2.2550	22.6530
 2.2560	22.5900
 2.2570	22.5240
 2.2580	22.4580
 2.2590	22.3860
 2.2600	22.3180
 2.2610	22.2540
 2.2620	22.1860
 2.2630	22.1150
 2.2640	22.0470
 2.2650	21.9810
 2.2660	21.9180
 2.2670	21.8580
 2.2680	21.8050
 2.2690	21.7480
 2.2700	21.6900
 2.2710	21.6350
 2.2720	21.5830
 2.2730	21.5290
 2.2740	21.4760
 2.2750	21.4240
 2.2760	21.3720
 2.2770	21.3240
 2.2780	21.2800
 2.2790	21.2350
 2.2800	21.1930
 2.2810	21.1540
 2.2820	21.1170
 2.2830	21.0800
 2.2840	21.0510
 2.2850	21.0120
 2.2860	20.9700
 2.2870	20.9220
 2.2880	20.8640
 2.2890	20.8080
 2.2900	20.7460
 2.2910	20.6900
 2.2920	20.6400
 2.2930	20.5870
 2.2940	20.5350
 2.2950	20.4800
 2.2960	20.4170
 2.2970	20.3590
 2.2980	20.2990
 2.2990	20.2460
 2.3000	20.1910
 2.3010	20.1420
 2.3020	20.0970
 2.3030	20.0490
 2.3040	20.0020
 2.3050	19.9600
 2.3060	19.9210
 2.3070	19.8840
 2.3080	19.8590
 2.3090	19.8320
 2.3100	19.8090
 2.3110	19.7950
 2.3120	19.7730
 2.3130	19.7510
 2.3140	19.7310
 2.3150	19.7050
 2.3160	19.6860
 2.3170	19.6760
 2.3180	19.6590
 2.3190	19.6420
 2.3200	19.6220
 2.3210	19.5960
 2.3220	19.5720
 2.3230	19.5510
 2.3240	19.5230
 2.3250	19.4950
 2.3260	19.4580
 2.3270	19.4100
 2.3280	19.3670
 2.3290	19.3200
 2.3300	19.2770
 2.3310	19.2410
 2.3320	19.1980
 2.3330	19.1510
 2.3340	19.1030
 2.3350	19.0500
 2.3360	19.0000
 2.3370	18.9520
 2.3380	18.9090
 2.3390	18.8750
 2.3400	18.8290
 2.3410	18.7810
 2.3420	18.7300
 2.3430	18.6620
 2.3440	18.6110
 2.3450	18.5720
 2.3460	18.5320
 2.3470	18.5000
 2.3480	18.4660
 2.3490	18.4290
 2.3500	18.3950
 2.3510	18.3630
 2.3520	18.3310
 2.3530	18.3010
 2.3540	18.2690
 2.3550	18.2390
 2.3560	18.2160
 2.3570	18.1880
 2.3580	18.1580
 2.3590	18.1260
 2.3600	18.0990
 2.3610	18.0750
 2.3620	18.0430
 2.3630	18.0080
 2.3640	17.9700
 2.3650	17.9360
 2.3660	17.9030
 2.3670	17.8660
 2.3680	17.8280
 2.3690	17.7800
 2.3700	17.7370
 2.3710	17.7040
 2.3720	17.6620
 2.3730	17.6270
 2.3740	17.5980
 2.3750	17.5570
 2.3760	17.5200
 2.3770	17.4850
 2.3780	17.4390
 2.3790	17.3980
 2.3800	17.3610
 2.3810	17.3180
 2.3820	17.2820
 2.3830	17.2550
 2.3840	17.2230
 2.3850	17.1830
 2.3860	17.1410
 2.3870	17.1010
 2.3880	17.0580
 2.3890	17.0130
 2.3900	16.9740
 2.3910	16.9310
 2.3920	16.8820
 2.3930	16.8400
 2.3940	16.8120
 2.3950	16.7740
 2.3960	16.7290
 2.3970	16.6900
 2.3980	16.6350
 2.3990	16.5760
 2.4000	16.5340
 2.4010	16.4930
 2.4020	16.4470
 2.4030	16.4060
 2.4040	16.3690
 2.4050	16.3330
 2.4060	16.3090
 2.4070	16.2860
 2.4080	16.2400
 2.4090	16.1840
 2.4100	16.1390
 2.4110	16.0900
 2.4120	16.0460
 2.4130	16.0150
 2.4140	15.9720
 2.4150	15.9310
 2.4160	15.9030
 2.4170	15.8780
 2.4180	15.8530
 2.4190	15.8210
 2.4200	15.7760
 2.4210	15.7280
 2.4220	15.6840
 2.4230	15.6280
 2.4240	15.5770
 2.4250	15.5380
 2.4260	15.4770
 2.4270	15.4410
 2.4280	15.4280
 2.4290	15.3730
 2.4300	15.3170
 2.4310	15.2610
 2.4320	15.1930
 2.4330	15.1440
 2.4340	15.0960
 2.4350	15.0480
 2.4360	15.0090
 2.4370	14.9720
 2.4380	14.9420
 2.4390	14.9250
 2.4400	14.8870
 2.4410	14.8470
 2.4420	14.8080
 2.4430	14.7450
 2.4440	14.6840
 2.4450	14.6180
 2.4460	14.5580
 2.4470	14.5070
 2.4480	14.4710
 2.4490	14.4460
 2.4500	14.4300
 2.4510	14.4070
 2.4520	14.3590
 2.4530	14.3070
 2.4540	14.2380
 2.4550	14.1800
 2.4560	14.1470
 2.4570	14.1290
 2.4580	14.1060
 2.4590	14.0830
 2.4600	14.0530
 2.4610	13.9730
 2.4620	13.9230
 2.4630	13.8760
 2.4640	13.8130
 2.4650	13.7940
 2.4660	13.7570
 2.4670	13.7080
 2.4680	13.6970
 2.4690	13.7090
 2.4700	13.6850
 2.4710	13.6520
 2.4720	13.6190
 2.4730	13.5510
 2.4740	13.5110
 2.4750	13.4980
 2.4760	13.4840
 2.4770	13.4680
 2.4780	13.4440
 2.4790	13.4400
 2.4800	13.4040
 2.4810	13.3390
 2.4820	13.2970
 2.4830	13.2490
 2.4840	13.2240
 2.4850	13.2030
 2.4860	13.2070
 2.4870	13.1840
 2.4880	13.1250
 2.4890	13.1010
 2.4900	13.0600
 2.4910	13.0110
 2.4920	13.0240
 2.4930	13.0470
 2.4940	13.0560
 2.4950	13.0690
 2.4960	13.0580
 2.4970	13.0080
 2.4980	12.9460
 2.4990	12.9590
 2.5000	12.9890
