Name: Pinus strobus
Type: Vegetation
Class: Tree
Genus: Pinus
Species: strobus
Sample No.: PIST-3-29
Owner: UCSB
Wavelength Range: TIR
Origin: USA; Massachusetts; Harvard Forest
Collection Date: 7/8/2013
Description: Samples were collected as part of NSF Macrosystem Biology proposal titled: Collaborative Research: Thermal controls on ecosystem metabolism and function: scaling from leaves to canopies to regions. Samples were collected and overnighted to JPL facilities for processing. The same leaves were processed in the Nicolet and then measured using the ASD.
Measurement: Hemispherical reflectance
First Column: X
Second Column: Y
X Units: Wavelength (micrometers)
Y Units: Reflectance (percentage)
First X Value: 2.501
Last X Value: 15.387
Number of X Values: 1737
Additional Information: vegetation.tree.pinus.strobus.tir.pist-3-29.ucsb.nicolet.ancillary.txt

 2.5010	 4.0140
 2.5030	 4.3780
 2.5040	 4.8640
 2.5050	 4.5850
 2.5060	 4.1700
 2.5070	 3.9130
 2.5090	 4.1170
 2.5100	 4.4510
 2.5110	 4.2430
 2.5120	 3.7100
 2.5140	 4.0670
 2.5150	 4.4240
 2.5160	 4.2300
 2.5170	 3.9670
 2.5180	 4.1890
 2.5200	 4.4090
 2.5210	 4.5260
 2.5220	 4.3870
 2.5230	 4.4040
 2.5250	 4.3990
 2.5260	 4.1650
 2.5270	 4.0350
 2.5280	 4.2590
 2.5290	 4.2020
 2.5310	 4.2620
 2.5320	 4.3080
 2.5330	 4.3550
 2.5340	 4.3370
 2.5360	 4.3200
 2.5370	 4.2670
 2.5380	 4.4170
 2.5390	 4.2190
 2.5410	 4.1360
 2.5420	 4.0140
 2.5430	 4.2860
 2.5440	 4.4210
 2.5460	 4.4870
 2.5470	 4.4230
 2.5480	 4.4520
 2.5490	 4.4660
 2.5510	 4.4530
 2.5520	 4.3820
 2.5530	 4.2700
 2.5540	 4.2040
 2.5560	 4.5180
 2.5570	 4.5870
 2.5580	 4.4530
 2.5590	 4.2740
 2.5610	 4.4480
 2.5620	 4.3820
 2.5630	 4.2470
 2.5640	 4.2870
 2.5660	 4.3190
 2.5670	 4.3500
 2.5680	 4.6180
 2.5700	 4.5530
 2.5710	 4.5620
 2.5720	 4.3610
 2.5730	 4.3420
 2.5750	 4.2210
 2.5760	 4.4060
 2.5770	 4.5700
 2.5790	 4.2890
 2.5800	 3.9160
 2.5810	 4.0370
 2.5820	 4.2890
 2.5840	 4.6860
 2.5850	 4.5100
 2.5860	 4.3770
 2.5880	 4.4910
 2.5890	 4.3100
 2.5900	 4.2810
 2.5910	 4.5620
 2.5930	 4.3530
 2.5940	 4.0260
 2.5950	 3.9060
 2.5970	 4.1450
 2.5980	 4.1390
 2.5990	 4.1610
 2.6000	 4.2040
 2.6020	 4.3280
 2.6030	 4.1250
 2.6040	 4.0580
 2.6060	 4.1550
 2.6070	 4.1390
 2.6080	 3.9320
 2.6100	 4.0380
 2.6110	 4.1490
 2.6120	 4.1630
 2.6140	 4.0710
 2.6150	 3.9670
 2.6160	 3.6840
 2.6180	 3.8640
 2.6190	 3.9480
 2.6200	 3.9410
 2.6220	 3.6800
 2.6230	 3.9080
 2.6240	 4.1590
 2.6260	 3.8870
 2.6270	 3.3470
 2.6280	 3.5470
 2.6300	 3.8470
 2.6310	 4.0550
 2.6320	 4.0070
 2.6340	 3.8780
 2.6350	 3.8170
 2.6360	 3.8970
 2.6380	 3.8490
 2.6390	 3.8600
 2.6400	 3.7480
 2.6420	 3.6900
 2.6430	 3.6170
 2.6440	 3.8440
 2.6460	 3.7450
 2.6470	 3.5910
 2.6480	 3.6140
 2.6500	 3.6400
 2.6510	 3.5980
 2.6520	 3.7320
 2.6540	 3.7410
 2.6550	 3.7910
 2.6560	 3.6840
 2.6580	 3.8330
 2.6590	 3.6630
 2.6610	 3.5330
 2.6620	 3.3880
 2.6630	 3.3300
 2.6650	 3.4080
 2.6660	 3.4950
 2.6670	 3.3090
 2.6690	 3.2720
 2.6700	 3.1170
 2.6720	 3.1470
 2.6730	 3.1280
 2.6740	 3.3890
 2.6760	 3.1080
 2.6770	 2.7520
 2.6780	 2.6080
 2.6800	 2.9830
 2.6810	 3.0140
 2.6830	 2.8080
 2.6840	 2.6980
 2.6850	 2.8060
 2.6870	 2.7620
 2.6880	 2.8190
 2.6900	 2.8810
 2.6910	 3.1600
 2.6920	 2.8900
 2.6940	 2.6950
 2.6950	 2.6200
 2.6970	 2.5470
 2.6980	 2.7730
 2.6990	 3.0380
 2.7010	 2.7280
 2.7020	 2.8960
 2.7040	 2.8700
 2.7050	 2.4960
 2.7060	 2.4420
 2.7080	 2.7320
 2.7090	 2.4940
 2.7110	 2.2810
 2.7120	 2.1300
 2.7130	 2.2770
 2.7150	 2.3260
 2.7160	 2.8310
 2.7180	 2.9230
 2.7190	 2.6200
 2.7210	 2.4160
 2.7220	 2.1220
 2.7230	 1.9920
 2.7250	 2.2140
 2.7260	 2.2080
 2.7280	 2.0930
 2.7290	 2.1280
 2.7310	 2.5280
 2.7320	 2.5340
 2.7330	 2.1500
 2.7350	 2.1470
 2.7360	 2.4180
 2.7380	 2.6400
 2.7390	 2.8940
 2.7410	 2.7340
 2.7420	 2.1910
 2.7440	 1.7390
 2.7450	 1.9870
 2.7470	 1.9180
 2.7480	 1.9790
 2.7490	 1.6180
 2.7510	 1.7420
 2.7520	 1.6860
 2.7540	 1.8460
 2.7550	 2.6520
 2.7570	 2.6830
 2.7580	 2.5010
 2.7600	 2.2160
 2.7610	 1.9550
 2.7630	 2.2550
 2.7640	 2.1260
 2.7660	 2.5330
 2.7670	 2.6140
 2.7680	 2.8820
 2.7700	 3.1060
 2.7710	 2.6450
 2.7730	 1.9150
 2.7740	 1.7290
 2.7760	 1.7560
 2.7770	 1.8990
 2.7790	 2.3660
 2.7800	 2.9200
 2.7820	 2.6730
 2.7830	 2.4070
 2.7850	 2.6940
 2.7860	 2.3690
 2.7880	 1.9030
 2.7890	 2.5140
 2.7910	 2.8300
 2.7920	 2.6430
 2.7940	 2.0840
 2.7950	 2.0520
 2.7970	 2.3390
 2.7980	 2.2860
 2.8000	 2.0420
 2.8010	 2.1590
 2.8030	 2.2350
 2.8040	 2.4780
 2.8060	 2.4430
 2.8070	 2.5090
 2.8090	 2.3520
 2.8110	 2.3230
 2.8120	 2.3310
 2.8140	 2.5070
 2.8150	 2.4220
 2.8170	 2.7890
 2.8180	 2.7680
 2.8200	 2.3700
 2.8210	 2.1450
 2.8230	 2.1760
 2.8240	 2.0390
 2.8260	 2.0650
 2.8270	 2.1640
 2.8290	 2.2380
 2.8300	 1.7080
 2.8320	 1.6170
 2.8340	 1.7570
 2.8350	 2.0600
 2.8370	 2.2100
 2.8380	 2.4160
 2.8400	 2.3380
 2.8410	 2.5370
 2.8430	 2.5570
 2.8440	 2.6110
 2.8460	 2.5890
 2.8480	 2.6020
 2.8490	 2.6000
 2.8510	 2.5970
 2.8520	 2.4870
 2.8540	 2.5150
 2.8550	 2.4040
 2.8570	 2.3110
 2.8590	 2.1970
 2.8600	 2.0050
 2.8620	 1.8910
 2.8630	 2.0180
 2.8650	 2.1300
 2.8660	 2.1900
 2.8680	 2.0830
 2.8700	 2.2100
 2.8710	 2.1680
 2.8730	 2.3970
 2.8740	 2.4280
 2.8760	 2.4310
 2.8780	 2.4410
 2.8790	 2.7830
 2.8810	 2.4520
 2.8820	 2.2600
 2.8840	 2.5190
 2.8860	 3.0110
 2.8870	 2.7410
 2.8890	 2.6870
 2.8900	 2.8380
 2.8920	 3.0620
 2.8940	 2.8710
 2.8950	 2.5250
 2.8970	 2.3330
 2.8980	 2.5190
 2.9000	 2.4010
 2.9020	 2.6010
 2.9030	 2.7510
 2.9050	 3.0240
 2.9070	 2.7800
 2.9080	 2.8080
 2.9100	 2.8400
 2.9120	 2.9610
 2.9130	 2.5970
 2.9150	 2.1320
 2.9160	 1.9920
 2.9180	 2.4890
 2.9200	 2.4570
 2.9210	 2.2550
 2.9230	 2.0340
 2.9250	 2.2210
 2.9260	 2.4530
 2.9280	 2.6020
 2.9300	 2.2250
 2.9310	 2.4080
 2.9330	 2.9250
 2.9350	 2.8190
 2.9360	 2.4910
 2.9380	 2.6390
 2.9400	 2.6640
 2.9410	 2.7720
 2.9430	 2.5490
 2.9450	 2.7460
 2.9460	 2.8310
 2.9480	 2.8920
 2.9500	 2.1640
 2.9510	 2.0890
 2.9530	 2.5290
 2.9550	 1.9050
 2.9560	 1.0740
 2.9580	 1.9890
 2.9600	 2.8920
 2.9610	 3.4930
 2.9630	 3.2080
 2.9650	 1.0600
 2.9660	 -0.850
 2.9680	 -0.568
 2.9700	 0.0530
 2.9720	 4.3690
 2.9730	 6.8320
 2.9750	 4.6540
 2.9770	 1.3000
 2.9780	 -0.073
 2.9800	 0.8000
 2.9820	 2.4920
 2.9840	 1.3110
 2.9850	 0.1930
 2.9870	 1.3580
 2.9890	 4.2360
 2.9900	 5.7430
 2.9920	 5.3310
 2.9940	 1.8090
 2.9960	 1.9010
 2.9970	 2.2140
 2.9990	 2.3260
 3.0010	 4.1470
 3.0030	 4.0850
 3.0040	 2.8630
 3.0060	 2.4100
 3.0080	 2.0740
 3.0100	 1.8780
 3.0110	 1.5450
 3.0130	 0.3170
 3.0150	 0.3260
 3.0170	 2.3490
 3.0180	 3.7910
 3.0200	 2.7560
 3.0220	 1.6320
 3.0240	 1.4160
 3.0250	 1.8510
 3.0270	 2.2960
 3.0290	 2.7800
 3.0310	 3.8330
 3.0320	 4.0160
 3.0340	 2.7730
 3.0360	 2.2920
 3.0380	 2.5310
 3.0400	 4.1270
 3.0410	 3.7550
 3.0430	 2.8090
 3.0450	 3.1390
 3.0470	 2.9910
 3.0480	 3.0380
 3.0500	 -0.104
 3.0520	 -3.221
 3.0540	 1.2030
 3.0560	 5.1650
 3.0570	 1.7140
 3.0590	 0.9700
 3.0610	 4.1350
 3.0630	 4.3860
 3.0650	 3.6320
 3.0660	 1.5030
 3.0680	 1.0770
 3.0700	 1.6420
 3.0720	 0.5740
 3.0740	 0.6520
 3.0760	 1.5900
 3.0770	 2.0570
 3.0790	 2.5800
 3.0810	 3.0530
 3.0830	 3.0020
 3.0850	 2.7920
 3.0870	 2.5240
 3.0880	 2.1840
 3.0900	 1.6600
 3.0920	 1.7410
 3.0940	 2.5290
 3.0960	 2.2980
 3.0980	 1.6760
 3.0990	 1.9470
 3.1010	 2.0440
 3.1030	 2.2740
 3.1050	 2.6120
 3.1070	 2.2010
 3.1090	 1.7910
 3.1110	 2.6520
 3.1120	 3.1600
 3.1140	 3.2210
 3.1160	 2.8700
 3.1180	 2.3720
 3.1200	 1.9120
 3.1220	 2.0480
 3.1240	 2.1140
 3.1260	 2.4050
 3.1270	 2.4820
 3.1290	 2.5510
 3.1310	 2.3190
 3.1330	 2.0330
 3.1350	 1.7720
 3.1370	 2.2010
 3.1390	 2.2520
 3.1410	 2.1770
 3.1430	 1.7580
 3.1450	 1.9220
 3.1460	 2.8490
 3.1480	 4.0080
 3.1500	 3.7830
 3.1520	 2.7260
 3.1540	 2.0150
 3.1560	 1.6800
 3.1580	 2.0280
 3.1600	 3.5040
 3.1620	 2.6190
 3.1640	 0.5300
 3.1660	 1.9890
 3.1680	 2.6530
 3.1700	 0.8480
 3.1710	 -0.283
 3.1730	 0.4330
 3.1750	 2.7230
 3.1770	 4.7160
 3.1790	 4.2310
 3.1810	 3.4380
 3.1830	 3.7370
 3.1850	 4.0090
 3.1870	 2.0340
 3.1890	 1.3620
 3.1910	 1.9600
 3.1930	 2.2680
 3.1950	 2.1420
 3.1970	 2.2730
 3.1990	 2.4480
 3.2010	 2.3970
 3.2030	 2.4670
 3.2050	 2.5340
 3.2070	 2.5320
 3.2090	 2.7200
 3.2110	 2.4540
 3.2130	 2.1920
 3.2150	 2.2420
 3.2170	 2.1230
 3.2190	 2.0820
 3.2210	 2.2200
 3.2230	 2.3920
 3.2250	 2.4760
 3.2270	 2.3430
 3.2290	 2.5080
 3.2310	 2.8810
 3.2330	 2.6740
 3.2350	 2.1820
 3.2370	 2.2160
 3.2390	 2.0530
 3.2410	 2.1780
 3.2430	 2.6100
 3.2450	 2.6410
 3.2470	 2.1730
 3.2490	 1.9100
 3.2510	 2.1910
 3.2530	 2.2910
 3.2550	 2.1600
 3.2570	 2.0520
 3.2590	 2.1640
 3.2610	 2.1190
 3.2630	 2.3170
 3.2650	 2.1800
 3.2670	 2.6220
 3.2690	 2.7000
 3.2720	 2.0270
 3.2740	 2.0540
 3.2760	 2.1760
 3.2780	 2.1080
 3.2800	 2.5730
 3.2820	 2.9500
 3.2840	 2.8010
 3.2860	 2.4970
 3.2880	 2.3000
 3.2900	 1.8400
 3.2920	 1.9490
 3.2940	 2.6410
 3.2960	 2.9870
 3.2990	 2.9040
 3.3010	 2.5700
 3.3030	 2.2070
 3.3050	 2.1480
 3.3070	 2.0650
 3.3090	 2.0760
 3.3110	 2.2740
 3.3130	 2.5160
 3.3150	 2.6500
 3.3180	 2.5190
 3.3200	 2.2910
 3.3220	 2.2250
 3.3240	 2.6930
 3.3260	 3.0010
 3.3280	 2.6940
 3.3300	 2.4160
 3.3330	 2.3030
 3.3350	 1.9280
 3.3370	 1.9380
 3.3390	 2.4080
 3.3410	 2.2690
 3.3430	 2.0790
 3.3450	 2.1950
 3.3480	 2.2740
 3.3500	 1.9910
 3.3520	 1.9270
 3.3540	 2.1260
 3.3560	 2.3330
 3.3580	 2.1790
 3.3610	 2.2080
 3.3630	 2.2250
 3.3650	 2.3520
 3.3670	 2.1690
 3.3690	 2.1650
 3.3720	 2.3990
 3.3740	 2.3520
 3.3760	 1.8980
 3.3780	 1.9740
 3.3800	 2.0540
 3.3830	 1.8690
 3.3850	 1.8080
 3.3870	 2.1010
 3.3890	 2.2180
 3.3910	 2.1550
 3.3940	 1.7810
 3.3960	 1.7500
 3.3980	 2.2460
 3.4000	 2.3920
 3.4020	 2.2050
 3.4050	 2.2110
 3.4070	 2.1790
 3.4090	 1.9250
 3.4110	 1.8700
 3.4140	 2.0390
 3.4160	 2.0980
 3.4180	 2.1750
 3.4200	 2.1970
 3.4230	 2.4270
 3.4250	 2.7640
 3.4270	 3.4160
 3.4290	 3.8170
 3.4320	 3.8710
 3.4340	 3.7160
 3.4360	 3.7660
 3.4390	 3.6310
 3.4410	 3.3580
 3.4430	 3.0600
 3.4450	 2.9920
 3.4480	 2.8210
 3.4500	 2.9550
 3.4520	 2.7880
 3.4550	 3.0730
 3.4570	 3.4310
 3.4590	 3.0790
 3.4620	 2.5020
 3.4640	 2.4540
 3.4660	 2.6500
 3.4680	 2.7020
 3.4710	 2.8080
 3.4730	 2.6410
 3.4750	 2.3600
 3.4780	 2.5330
 3.4800	 2.8080
 3.4820	 2.9340
 3.4850	 2.7740
 3.4870	 2.4730
 3.4890	 2.3220
 3.4920	 2.4860
 3.4940	 2.4170
 3.4970	 2.3290
 3.4990	 2.3250
 3.5010	 2.4290
 3.5040	 2.5210
 3.5060	 2.7890
 3.5080	 3.3830
 3.5110	 3.6940
 3.5130	 3.7150
 3.5160	 3.7370
 3.5180	 3.5390
 3.5200	 3.4250
 3.5230	 3.3170
 3.5250	 3.2210
 3.5270	 3.1700
 3.5300	 3.1800
 3.5320	 2.9870
 3.5350	 2.8710
 3.5370	 2.7980
 3.5400	 2.8190
 3.5420	 2.7330
 3.5440	 2.6710
 3.5470	 2.7350
 3.5490	 2.6970
 3.5520	 2.6350
 3.5540	 2.8410
 3.5570	 2.9450
 3.5590	 2.9030
 3.5610	 2.8380
 3.5640	 2.8740
 3.5660	 2.6900
 3.5690	 2.7120
 3.5710	 2.7570
 3.5740	 2.7170
 3.5760	 2.8310
 3.5790	 2.9750
 3.5810	 2.7980
 3.5840	 2.4940
 3.5860	 2.5860
 3.5890	 2.7360
 3.5910	 2.6310
 3.5930	 2.0750
 3.5960	 1.7120
 3.5980	 2.3650
 3.6010	 3.1190
 3.6030	 3.5270
 3.6060	 2.9900
 3.6080	 2.6320
 3.6110	 2.6150
 3.6140	 2.7840
 3.6160	 2.7810
 3.6190	 2.7630
 3.6210	 2.6610
 3.6240	 2.5600
 3.6260	 2.6390
 3.6290	 2.8110
 3.6310	 2.7160
 3.6340	 2.5580
 3.6360	 2.4740
 3.6390	 2.5140
 3.6410	 2.5130
 3.6440	 2.6670
 3.6470	 2.7310
 3.6490	 2.6780
 3.6520	 2.7360
 3.6540	 2.8420
 3.6570	 2.7840
 3.6590	 2.7090
 3.6620	 2.5950
 3.6650	 2.6390
 3.6670	 2.7460
 3.6700	 2.9390
 3.6720	 2.8760
 3.6750	 2.6600
 3.6780	 2.5490
 3.6800	 2.6310
 3.6830	 2.6420
 3.6850	 2.8410
 3.6880	 2.9540
 3.6910	 2.8470
 3.6930	 2.7630
 3.6960	 2.7270
 3.6990	 2.6790
 3.7010	 2.7440
 3.7040	 2.7370
 3.7060	 2.7120
 3.7090	 2.7700
 3.7120	 2.9320
 3.7140	 2.9360
 3.7170	 2.9500
 3.7200	 2.7730
 3.7220	 2.6750
 3.7250	 2.7030
 3.7280	 2.6700
 3.7300	 2.3940
 3.7330	 2.5440
 3.7360	 2.7790
 3.7390	 2.5370
 3.7410	 2.6540
 3.7440	 3.0530
 3.7470	 2.8580
 3.7490	 2.6180
 3.7520	 2.4860
 3.7550	 2.5080
 3.7580	 2.5360
 3.7600	 2.5940
 3.7630	 2.6240
 3.7660	 2.8110
 3.7680	 2.8930
 3.7710	 3.0390
 3.7740	 3.1210
 3.7770	 2.6930
 3.7790	 2.5600
 3.7820	 2.7490
 3.7850	 2.7800
 3.7880	 2.8080
 3.7900	 2.6670
 3.7930	 2.6240
 3.7960	 2.7100
 3.7990	 2.6680
 3.8020	 2.6640
 3.8040	 2.8390
 3.8070	 2.8260
 3.8100	 2.8050
 3.8130	 2.8910
 3.8160	 2.7050
 3.8180	 2.6540
 3.8210	 2.7760
 3.8240	 2.6860
 3.8270	 2.7320
 3.8300	 2.6540
 3.8330	 2.9300
 3.8350	 2.9810
 3.8380	 2.8570
 3.8410	 3.0640
 3.8440	 3.2600
 3.8470	 3.1280
 3.8500	 3.0150
 3.8520	 2.8540
 3.8550	 2.8280
 3.8580	 2.9790
 3.8610	 3.0610
 3.8640	 2.9570
 3.8670	 2.7860
 3.8700	 2.6840
 3.8730	 2.6970
 3.8750	 2.8520
 3.8780	 2.8820
 3.8810	 2.7860
 3.8840	 2.8420
 3.8870	 2.8550
 3.8900	 2.9490
 3.8930	 2.9740
 3.8960	 2.8020
 3.8990	 2.6830
 3.9020	 2.5830
 3.9050	 2.6440
 3.9080	 2.8120
 3.9110	 2.8420
 3.9140	 2.8820
 3.9160	 2.7870
 3.9190	 2.7890
 3.9220	 2.7970
 3.9250	 2.8490
 3.9280	 2.8450
 3.9310	 2.8670
 3.9340	 2.9820
 3.9370	 3.0860
 3.9400	 3.0730
 3.9430	 2.9960
 3.9460	 2.8560
 3.9490	 2.8160
 3.9520	 2.7750
 3.9550	 2.7810
 3.9580	 2.9420
 3.9610	 3.0350
 3.9640	 2.9740
 3.9670	 3.0440
 3.9700	 2.9380
 3.9730	 2.8590
 3.9770	 2.8340
 3.9800	 2.8350
 3.9830	 2.8710
 3.9860	 2.9240
 3.9890	 2.9750
 3.9920	 2.9660
 3.9950	 2.7900
 3.9980	 2.7770
 4.0010	 2.8300
 4.0040	 2.9020
 4.0070	 2.9040
 4.0100	 2.9250
 4.0130	 2.8290
 4.0170	 2.7050
 4.0200	 2.8110
 4.0230	 2.9430
 4.0260	 2.9080
 4.0290	 3.0340
 4.0320	 3.0420
 4.0350	 2.8610
 4.0380	 2.7300
 4.0420	 2.7740
 4.0450	 2.8010
 4.0480	 2.8850
 4.0510	 2.8960
 4.0540	 2.8580
 4.0570	 2.7640
 4.0610	 2.6460
 4.0640	 2.8070
 4.0670	 3.0510
 4.0700	 2.7770
 4.0730	 2.6040
 4.0770	 2.7270
 4.0800	 2.8800
 4.0830	 2.7880
 4.0860	 2.7430
 4.0890	 2.7650
 4.0930	 2.7420
 4.0960	 2.7860
 4.0990	 2.8410
 4.1020	 2.9820
 4.1060	 3.0720
 4.1090	 2.9040
 4.1120	 2.9160
 4.1150	 3.0050
 4.1190	 2.8900
 4.1220	 2.8130
 4.1250	 2.9160
 4.1280	 2.8440
 4.1320	 2.8370
 4.1350	 2.8980
 4.1380	 2.9790
 4.1420	 2.9920
 4.1450	 2.9060
 4.1480	 2.8440
 4.1520	 2.8540
 4.1550	 2.8770
 4.1580	 2.9720
 4.1620	 3.0190
 4.1650	 2.9300
 4.1680	 2.8210
 4.1720	 2.8210
 4.1750	 2.8560
 4.1780	 2.9120
 4.1820	 2.8780
 4.1850	 2.7380
 4.1890	 2.7050
 4.1920	 2.7940
 4.1950	 2.8170
 4.1990	 2.8040
 4.2020	 2.7230
 4.2060	 2.5730
 4.2090	 2.5380
 4.2120	 2.5810
 4.2160	 2.3710
 4.2190	 2.3730
 4.2230	 2.5730
 4.2260	 2.6170
 4.2300	 2.8040
 4.2330	 3.3760
 4.2360	 3.5110
 4.2400	 2.9610
 4.2430	 2.9820
 4.2470	 2.9140
 4.2500	 2.8240
 4.2540	 2.6800
 4.2570	 2.5870
 4.2610	 2.6340
 4.2640	 2.9030
 4.2680	 3.2100
 4.2710	 3.8920
 4.2750	 3.4360
 4.2780	 2.6350
 4.2820	 2.6140
 4.2850	 2.5120
 4.2890	 2.7640
 4.2930	 2.8200
 4.2960	 2.9080
 4.3000	 2.9930
 4.3030	 2.8480
 4.3070	 2.6220
 4.3100	 2.7760
 4.3140	 3.0390
 4.3180	 3.0370
 4.3210	 2.6300
 4.3250	 2.4770
 4.3280	 2.6690
 4.3320	 2.8960
 4.3360	 2.8500
 4.3390	 2.7840
 4.3430	 2.8230
 4.3470	 2.9350
 4.3500	 2.8770
 4.3540	 2.8950
 4.3570	 2.8570
 4.3610	 2.6600
 4.3650	 2.6430
 4.3680	 2.6940
 4.3720	 2.5970
 4.3760	 2.6390
 4.3800	 2.7360
 4.3830	 2.7500
 4.3870	 2.6500
 4.3910	 2.6450
 4.3940	 2.7510
 4.3980	 2.8000
 4.4020	 2.7670
 4.4060	 2.7160
 4.4090	 2.6060
 4.4130	 2.6320
 4.4170	 2.6200
 4.4210	 2.6700
 4.4240	 2.7030
 4.4280	 2.7050
 4.4320	 2.6360
 4.4360	 2.6140
 4.4400	 2.6220
 4.4430	 2.6820
 4.4470	 2.7710
 4.4510	 2.8150
 4.4550	 2.6690
 4.4590	 2.6460
 4.4620	 2.6710
 4.4660	 2.6290
 4.4700	 2.6240
 4.4740	 2.7690
 4.4780	 2.7390
 4.4820	 2.7140
 4.4860	 2.8020
 4.4900	 2.8080
 4.4930	 2.6490
 4.4970	 2.5300
 4.5010	 2.5430
 4.5050	 2.6640
 4.5090	 2.7590
 4.5130	 2.6320
 4.5170	 2.4860
 4.5210	 2.4140
 4.5250	 2.4740
 4.5290	 2.5720
 4.5330	 2.4520
 4.5370	 2.4230
 4.5410	 2.4950
 4.5450	 2.5590
 4.5490	 2.6620
 4.5530	 2.5950
 4.5570	 2.5070
 4.5610	 2.6780
 4.5650	 2.7780
 4.5690	 2.6730
 4.5730	 2.6990
 4.5770	 2.7000
 4.5810	 2.6180
 4.5850	 2.5860
 4.5890	 2.6810
 4.5930	 2.6670
 4.5970	 2.5980
 4.6010	 2.6870
 4.6050	 2.6010
 4.6090	 2.7630
 4.6130	 2.5280
 4.6170	 2.4250
 4.6220	 2.7400
 4.6260	 2.5130
 4.6300	 2.4290
 4.6340	 2.7430
 4.6380	 2.9420
 4.6420	 2.8580
 4.6460	 2.6930
 4.6510	 2.6560
 4.6550	 2.4800
 4.6590	 2.5240
 4.6630	 2.5790
 4.6670	 2.5380
 4.6720	 2.5800
 4.6760	 2.6700
 4.6800	 2.6810
 4.6840	 2.6290
 4.6880	 2.6300
 4.6930	 2.5610
 4.6970	 2.4670
 4.7010	 2.4410
 4.7050	 2.5310
 4.7100	 2.7100
 4.7140	 2.8080
 4.7180	 2.6620
 4.7230	 2.4950
 4.7270	 2.5750
 4.7310	 2.6530
 4.7360	 2.5820
 4.7400	 2.5320
 4.7440	 2.5520
 4.7490	 2.6080
 4.7530	 2.5680
 4.7570	 2.4870
 4.7620	 2.5310
 4.7660	 2.5640
 4.7700	 2.4440
 4.7750	 2.5100
 4.7790	 2.6160
 4.7840	 2.3220
 4.7880	 2.2590
 4.7920	 2.3070
 4.7970	 2.2990
 4.8010	 2.5200
 4.8060	 2.7920
 4.8100	 2.6680
 4.8150	 2.6160
 4.8190	 2.6570
 4.8240	 2.7570
 4.8280	 2.7820
 4.8330	 2.7140
 4.8370	 2.7480
 4.8420	 2.7270
 4.8460	 2.5920
 4.8510	 2.5800
 4.8550	 2.6680
 4.8600	 2.7030
 4.8640	 2.7510
 4.8690	 2.7960
 4.8730	 2.6560
 4.8780	 2.5610
 4.8830	 2.6460
 4.8870	 2.7080
 4.8920	 2.7410
 4.8960	 2.7420
 4.9010	 2.6350
 4.9060	 2.5670
 4.9100	 2.5540
 4.9150	 2.5270
 4.9200	 2.6930
 4.9240	 2.7010
 4.9290	 2.4960
 4.9340	 2.5020
 4.9380	 2.6360
 4.9430	 2.6610
 4.9480	 2.6690
 4.9530	 2.6050
 4.9570	 2.5500
 4.9620	 2.5950
 4.9670	 2.6380
 4.9720	 2.5570
 4.9760	 2.5540
 4.9810	 2.6070
 4.9860	 2.5440
 4.9910	 2.4900
 4.9960	 2.5540
 5.0000	 2.5050
 5.0050	 2.6320
 5.0100	 2.7150
 5.0150	 2.6490
 5.0200	 2.6010
 5.0250	 2.5860
 5.0290	 2.6510
 5.0340	 2.7180
 5.0390	 2.6950
 5.0440	 2.5550
 5.0490	 2.5480
 5.0540	 2.6960
 5.0590	 2.7100
 5.0640	 2.6850
 5.0690	 2.5650
 5.0740	 2.6160
 5.0790	 2.7430
 5.0840	 2.7720
 5.0890	 2.7570
 5.0940	 2.7070
 5.0990	 2.7380
 5.1040	 2.7620
 5.1090	 2.7500
 5.1140	 2.7380
 5.1190	 2.7470
 5.1240	 2.8640
 5.1290	 2.7850
 5.1340	 2.6720
 5.1390	 2.6360
 5.1440	 2.6850
 5.1490	 2.8840
 5.1540	 2.9320
 5.1600	 2.7220
 5.1650	 2.7400
 5.1700	 2.8220
 5.1750	 2.8120
 5.1800	 2.7800
 5.1850	 2.8490
 5.1910	 2.7620
 5.1960	 2.7190
 5.2010	 2.8410
 5.2060	 2.8110
 5.2110	 2.7600
 5.2170	 2.7910
 5.2220	 2.6810
 5.2270	 2.6920
 5.2320	 2.8820
 5.2380	 3.0020
 5.2430	 2.8300
 5.2480	 2.6940
 5.2540	 2.7270
 5.2590	 2.7120
 5.2640	 2.6250
 5.2700	 2.7080
 5.2750	 2.8330
 5.2800	 2.7710
 5.2860	 2.5790
 5.2910	 2.6480
 5.2970	 2.7950
 5.3020	 2.8580
 5.3070	 2.7500
 5.3130	 2.7240
 5.3180	 2.8400
 5.3240	 2.9070
 5.3290	 2.7700
 5.3350	 2.7300
 5.3400	 2.6160
 5.3460	 2.6080
 5.3510	 2.6280
 5.3570	 2.6500
 5.3620	 2.6540
 5.3680	 2.7590
 5.3730	 2.8310
 5.3790	 2.8170
 5.3850	 2.7150
 5.3900	 2.6860
 5.3960	 2.6540
 5.4010	 2.7110
 5.4070	 2.6900
 5.4130	 2.6890
 5.4180	 2.6550
 5.4240	 2.6470
 5.4300	 2.5520
 5.4350	 2.5520
 5.4410	 2.5610
 5.4470	 2.6820
 5.4530	 2.8050
 5.4580	 2.8720
 5.4640	 2.7520
 5.4700	 2.6230
 5.4760	 2.5380
 5.4810	 2.5960
 5.4870	 2.6410
 5.4930	 2.5720
 5.4990	 2.4760
 5.5050	 2.4780
 5.5110	 2.5810
 5.5160	 2.6490
 5.5220	 2.6750
 5.5280	 2.6260
 5.5340	 2.5880
 5.5400	 2.7290
 5.5460	 2.5760
 5.5520	 2.4740
 5.5580	 2.4460
 5.5640	 2.4360
 5.5700	 2.4710
 5.5760	 2.5800
 5.5820	 2.5790
 5.5880	 2.5910
 5.5940	 2.5830
 5.6000	 2.5220
 5.6060	 2.3960
 5.6120	 2.5080
 5.6180	 2.4730
 5.6240	 2.4250
 5.6300	 2.4370
 5.6360	 2.4350
 5.6420	 2.4200
 5.6490	 2.5130
 5.6550	 2.4470
 5.6610	 2.3500
 5.6670	 2.4120
 5.6730	 2.3850
 5.6800	 2.1920
 5.6860	 2.0950
 5.6920	 1.8360
 5.6980	 1.8940
 5.7040	 1.9890
 5.7110	 2.0330
 5.7170	 1.9880
 5.7230	 1.8800
 5.7300	 1.7830
 5.7360	 1.9300
 5.7420	 1.9320
 5.7490	 2.0650
 5.7550	 2.2310
 5.7620	 2.3290
 5.7680	 2.4870
 5.7740	 2.7550
 5.7810	 2.8260
 5.7870	 2.6650
 5.7940	 2.6950
 5.8000	 2.8680
 5.8070	 2.8950
 5.8130	 3.0500
 5.8200	 3.0360
 5.8260	 3.0160
 5.8330	 2.9830
 5.8390	 3.0310
 5.8460	 3.0030
 5.8530	 2.9910
 5.8590	 2.8690
 5.8660	 2.8430
 5.8720	 2.8630
 5.8790	 2.9370
 5.8860	 2.8540
 5.8920	 2.7800
 5.8990	 2.7310
 5.9060	 2.8940
 5.9130	 2.9790
 5.9190	 3.0550
 5.9260	 2.8860
 5.9330	 2.8860
 5.9400	 2.9390
 5.9470	 3.0420
 5.9530	 2.9020
 5.9600	 2.8580
 5.9670	 2.8540
 5.9740	 2.8050
 5.9810	 2.7180
 5.9880	 2.7160
 5.9950	 2.7580
 6.0020	 3.0750
 6.0090	 3.0430
 6.0160	 2.8950
 6.0230	 2.9100
 6.0300	 2.8780
 6.0370	 2.7400
 6.0440	 2.8770
 6.0510	 2.8160
 6.0580	 2.8480
 6.0650	 2.8180
 6.0720	 2.8020
 6.0790	 2.8260
 6.0860	 3.0060
 6.0930	 3.0280
 6.1000	 2.9440
 6.1080	 2.9340
 6.1150	 2.8630
 6.1220	 2.7630
 6.1290	 2.9750
 6.1370	 3.0050
 6.1440	 3.1300
 6.1510	 3.0630
 6.1580	 2.9660
 6.1660	 2.8430
 6.1730	 2.9180
 6.1800	 2.8760
 6.1880	 3.1170
 6.1950	 3.2340
 6.2030	 3.1800
 6.2100	 2.7820
 6.2170	 2.7490
 6.2250	 2.8580
 6.2320	 2.9120
 6.2400	 2.8970
 6.2470	 2.9450
 6.2550	 2.8700
 6.2630	 2.7280
 6.2700	 2.7360
 6.2780	 2.8010
 6.2850	 2.7300
 6.2930	 2.8040
 6.3010	 2.8100
 6.3080	 2.8980
 6.3160	 2.8580
 6.3240	 2.7350
 6.3310	 2.4980
 6.3390	 2.5460
 6.3470	 2.5690
 6.3550	 2.6480
 6.3620	 2.4130
 6.3700	 2.3930
 6.3780	 2.5180
 6.3860	 2.7220
 6.3940	 2.6580
 6.4020	 2.4410
 6.4100	 2.3240
 6.4180	 2.4840
 6.4260	 2.5540
 6.4330	 2.5850
 6.4410	 2.5420
 6.4490	 2.7020
 6.4580	 2.7930
 6.4660	 2.8430
 6.4740	 2.6170
 6.4820	 2.5670
 6.4900	 2.4930
 6.4980	 2.5360
 6.5060	 2.6430
 6.5140	 2.7240
 6.5230	 2.5700
 6.5310	 2.5640
 6.5390	 2.5480
 6.5470	 2.5400
 6.5550	 2.4640
 6.5640	 2.5990
 6.5720	 2.5550
 6.5800	 2.5200
 6.5890	 2.5200
 6.5970	 2.5050
 6.6060	 2.5860
 6.6140	 2.6080
 6.6220	 2.4840
 6.6310	 2.5360
 6.6390	 2.4280
 6.6480	 2.4370
 6.6560	 2.5350
 6.6650	 2.5160
 6.6740	 2.2850
 6.6820	 2.4260
 6.6910	 2.4460
 6.6990	 2.4260
 6.7080	 2.3670
 6.7170	 2.3650
 6.7260	 2.3430
 6.7340	 2.4900
 6.7430	 2.3240
 6.7520	 2.3820
 6.7610	 2.3430
 6.7690	 2.4140
 6.7780	 2.4760
 6.7870	 2.5900
 6.7960	 2.5230
 6.8050	 2.7520
 6.8140	 2.6600
 6.8230	 2.5310
 6.8320	 2.5390
 6.8410	 2.7020
 6.8500	 2.7860
 6.8590	 2.8120
 6.8680	 2.6080
 6.8770	 2.7190
 6.8860	 2.6470
 6.8950	 2.6290
 6.9050	 2.5030
 6.9140	 2.6030
 6.9230	 2.5980
 6.9320	 2.5160
 6.9420	 2.4980
 6.9510	 2.6430
 6.9600	 2.5400
 6.9700	 2.6010
 6.9790	 2.4750
 6.9880	 2.3790
 6.9980	 2.4430
 7.0070	 2.5380
 7.0170	 2.5170
 7.0260	 2.6240
 7.0360	 2.4600
 7.0450	 2.5170
 7.0550	 2.5370
 7.0650	 2.6200
 7.0740	 2.5390
 7.0840	 2.5800
 7.0940	 2.6610
 7.1030	 2.8410
 7.1130	 2.7230
 7.1230	 2.5710
 7.1330	 2.3640
 7.1420	 2.4650
 7.1520	 2.3900
 7.1620	 2.5120
 7.1720	 2.4540
 7.1820	 2.5390
 7.1920	 2.5530
 7.2020	 2.7290
 7.2120	 2.6800
 7.2220	 2.6490
 7.2320	 2.6070
 7.2420	 2.8290
 7.2520	 2.6010
 7.2620	 2.5630
 7.2730	 2.6150
 7.2830	 2.6480
 7.2930	 2.5900
 7.3030	 2.7250
 7.3140	 2.6950
 7.3240	 2.6870
 7.3340	 2.3830
 7.3450	 2.4560
 7.3550	 2.4300
 7.3660	 2.4280
 7.3760	 2.4880
 7.3870	 2.6310
 7.3970	 2.6050
 7.4080	 2.7050
 7.4180	 2.5850
 7.4290	 2.5990
 7.4400	 2.5390
 7.4500	 2.5780
 7.4610	 2.3740
 7.4720	 2.5320
 7.4830	 2.6130
 7.4930	 2.8330
 7.5040	 2.7610
 7.5150	 2.6130
 7.5260	 2.5150
 7.5370	 2.7140
 7.5480	 2.7170
 7.5590	 2.7370
 7.5700	 2.4060
 7.5810	 2.3880
 7.5920	 2.4910
 7.6030	 2.6810
 7.6140	 2.4960
 7.6260	 2.4390
 7.6370	 2.3330
 7.6480	 2.3490
 7.6590	 2.1670
 7.6710	 2.3140
 7.6820	 2.3180
 7.6930	 2.3130
 7.7050	 2.1920
 7.7160	 2.3440
 7.7280	 2.3930
 7.7390	 2.5740
 7.7510	 2.4230
 7.7630	 2.4990
 7.7740	 2.4430
 7.7860	 2.4940
 7.7980	 2.5260
 7.8090	 2.6040
 7.8210	 2.4180
 7.8330	 2.4790
 7.8450	 2.4420
 7.8570	 2.4380
 7.8690	 2.3260
 7.8810	 2.4070
 7.8930	 2.2830
 7.9050	 2.3880
 7.9170	 2.1990
 7.9290	 2.2370
 7.9410	 2.1050
 7.9530	 2.1790
 7.9650	 2.3580
 7.9780	 2.4330
 7.9900	 2.1040
 8.0020	 2.2390
 8.0150	 2.2830
 8.0270	 2.3440
 8.0390	 2.3640
 8.0520	 2.4810
 8.0640	 2.2540
 8.0770	 2.3610
 8.0900	 2.2710
 8.1020	 2.2460
 8.1150	 2.2160
 8.1280	 2.4370
 8.1400	 2.3990
 8.1530	 2.3740
 8.1660	 2.2690
 8.1790	 2.2730
 8.1920	 2.1460
 8.2050	 2.4800
 8.2180	 2.4020
 8.2310	 2.6760
 8.2440	 2.6450
 8.2570	 2.5280
 8.2700	 2.3230
 8.2830	 2.6530
 8.2970	 2.5240
 8.3100	 2.4930
 8.3230	 2.4140
 8.3370	 2.4430
 8.3500	 2.2810
 8.3640	 2.4200
 8.3770	 2.3070
 8.3910	 2.5740
 8.4040	 2.3350
 8.4180	 2.3900
 8.4320	 2.2870
 8.4450	 2.3810
 8.4590	 2.3210
 8.4730	 2.5310
 8.4870	 2.4250
 8.5010	 2.6650
 8.5150	 2.6040
 8.5290	 2.7270
 8.5430	 2.6060
 8.5570	 2.8300
 8.5710	 2.8200
 8.5850	 2.8600
 8.5990	 2.6960
 8.6140	 2.8200
 8.6280	 2.7020
 8.6420	 2.8370
 8.6570	 2.8890
 8.6710	 3.1380
 8.6860	 2.8120
 8.7000	 2.8580
 8.7150	 2.7180
 8.7300	 2.8340
 8.7440	 2.7660
 8.7590	 2.9140
 8.7740	 2.7070
 8.7890	 2.7110
 8.8040	 2.5600
 8.8190	 2.9720
 8.8340	 2.9430
 8.8490	 2.7720
 8.8640	 2.6630
 8.8790	 3.0680
 8.8940	 2.7450
 8.9100	 2.7630
 8.9250	 2.5490
 8.9400	 2.7320
 8.9560	 2.8290
 8.9710	 2.9030
 8.9870	 2.5930
 9.0020	 2.7930
 9.0180	 2.6500
 9.0340	 2.7220
 9.0500	 2.4780
 9.0650	 2.5730
 9.0810	 2.6150
 9.0970	 2.8760
 9.1130	 2.7840
 9.1290	 3.2680
 9.1450	 2.8840
 9.1610	 2.7420
 9.1780	 2.4940
 9.1940	 2.5120
 9.2100	 2.4080
 9.2270	 2.8010
 9.2430	 2.4820
 9.2600	 2.6430
 9.2760	 2.5990
 9.2930	 2.8120
 9.3090	 2.6190
 9.3260	 2.8140
 9.3430	 2.6750
 9.3600	 2.8960
 9.3770	 2.6440
 9.3940	 2.7260
 9.4110	 2.5610
 9.4280	 2.8270
 9.4450	 2.5170
 9.4620	 2.5950
 9.4800	 2.8420
 9.4970	 3.0180
 9.5140	 2.6970
 9.5320	 2.7090
 9.5500	 2.3890
 9.5670	 2.4310
 9.5850	 2.1780
 9.6030	 2.2610
 9.6200	 2.0880
 9.6380	 2.5000
 9.6560	 2.5340
 9.6740	 2.5330
 9.6920	 2.3850
 9.7100	 2.8350
 9.7290	 2.7830
 9.7470	 2.7180
 9.7650	 2.0560
 9.7840	 2.1750
 9.8020	 2.1890
 9.8210	 2.5420
 9.8390	 2.5470
 9.8580	 2.7320
 9.8770	 2.6820
 9.8960	 2.9430
 9.9150	 2.6250
 9.9340	 2.5440
 9.9530	 2.3480
 9.9720	 2.7750
 9.9910	 2.7280
10.0100	 2.7120
10.0300	 2.3550
10.0490	 2.4650
10.0690	 2.6200
10.0880	 2.8010
10.1080	 2.4610
10.1280	 2.5980
10.1480	 2.7190
10.1670	 3.0130
10.1870	 2.7210
10.2070	 2.7730
10.2280	 2.7660
10.2480	 2.8890
10.2680	 2.4530
10.2890	 2.5440
10.3090	 2.4940
10.3300	 2.6890
10.3500	 2.5640
10.3710	 2.8850
10.3920	 2.8370
10.4120	 3.0660
10.4330	 2.5510
10.4540	 2.6320
10.4760	 2.7720
10.4970	 3.0260
10.5180	 2.7290
10.5390	 2.8340
10.5610	 2.6370
10.5820	 2.8470
10.6040	 2.9670
10.6260	 3.2860
10.6480	 3.0490
10.6700	 3.1980
10.6920	 2.9680
10.7140	 2.9680
10.7360	 2.6370
10.7580	 2.6500
10.7800	 2.4420
10.8030	 2.7170
10.8250	 2.6010
10.8480	 2.7770
10.8710	 2.8140
10.8940	 2.8270
10.9170	 2.4220
10.9400	 2.5500
10.9630	 2.4880
10.9860	 2.9490
11.0090	 2.7260
11.0330	 3.1080
11.0560	 3.2120
11.0800	 3.2290
11.1040	 3.3330
11.1270	 3.7840
11.1510	 2.9220
11.1750	 2.9340
11.2000	 2.7060
11.2240	 2.7050
11.2480	 2.2720
11.2730	 3.3000
11.2970	 3.7380
11.3220	 3.1540
11.3470	 2.6810
11.3720	 3.0330
11.3970	 2.6500
11.4220	 2.6380
11.4470	 2.4110
11.4720	 2.7980
11.4980	 2.6970
11.5230	 2.8540
11.5490	 2.2470
11.5750	 2.4060
11.6000	 2.2120
11.6260	 2.7450
11.6530	 2.8290
11.6790	 2.6190
11.7050	 2.1040
11.7320	 2.8210
11.7580	 2.5950
11.7850	 2.6180
11.8120	 2.2880
11.8390	 2.5050
11.8660	 2.5930
11.8930	 2.3900
11.9200	 1.8500
11.9480	 2.4370
11.9760	 2.2430
12.0030	 2.6050
12.0310	 2.3830
12.0590	 2.6690
12.0870	 2.3820
12.1150	 2.5630
12.1440	 2.3170
12.1720	 2.1460
12.2010	 1.6330
12.2300	 2.0630
12.2590	 1.9150
12.2880	 2.7160
12.3170	 2.9160
12.3460	 2.7560
12.3760	 2.0300
12.4050	 2.5000
12.4350	 2.1550
12.4650	 2.4810
12.4950	 2.3500
12.5250	 2.6690
12.5550	 2.5440
12.5860	 2.9030
12.6170	 2.0220
12.6470	 2.2630
12.6780	 2.1590
12.7090	 2.4300
12.7410	 1.9700
12.7720	 2.2420
12.8030	 1.7690
12.8350	 1.8860
12.8670	 1.8750
12.8990	 2.3480
12.9310	 1.8330
12.9640	 1.8580
12.9960	 1.5480
13.0290	 2.0210
13.0610	 1.9020
13.0940	 2.2420
13.1280	 2.0670
13.1610	 2.6180
13.1940	 2.2840
13.2280	 2.4850
13.2620	 1.6290
13.2960	 1.9240
13.3300	 1.7410
13.3640	 2.0190
13.3990	 1.5670
13.4340	 1.8790
13.4690	 1.7150
13.5040	 2.3600
13.5390	 2.1940
13.5740	 2.5190
13.6100	 2.2400
13.6460	 2.4780
13.6820	 2.1140
13.7180	 2.4260
13.7540	 2.1670
13.7910	 2.4150
13.8280	 1.5660
13.8650	 2.2060
13.9020	 2.3890
13.9390	 2.8300
13.9770	 1.8120
14.0150	 2.2000
14.0530	 1.9410
14.0910	 2.1630
14.1290	 1.3980
14.1680	 1.9640
14.2070	 2.0370
14.2460	 2.4380
14.2850	 1.9310
14.3240	 2.5400
14.3640	 1.6500
14.4040	 1.8370
14.4440	 1.0750
14.4840	 2.3020
14.5250	 2.2780
14.5660	 2.9510
14.6070	 2.0320
14.6480	 1.8870
14.6900	 1.0340
14.7310	 1.8890
14.7730	 1.4700
14.8150	 2.0580
14.8580	 0.7760
14.9010	 1.3020
14.9440	 0.4630
14.9870	 2.7060
15.0300	 2.1080
15.0740	 2.3520
15.1180	 1.2570
15.1620	 2.4220
15.2060	 2.5570
15.2510	 3.6870
15.2960	 1.9040
15.3410	 2.3110
15.3870	 1.8810
