Name: Acer pensylvanicum
Type: Vegetation
Class: Tree
Genus: Acer
Species: pensylvanicum
Sample No.: ACPE-2-69
Owner: UCSB
Wavelength Range: TIR
Origin: USA; Massachusetts; Harvard Forest
Collection Date: 7/8/2013
Description: Samples were collected as part of NSF Macrosystem Biology proposal titled: Collaborative Research: Thermal controls on ecosystem metabolism and function: scaling from leaves to canopies to regions. Samples were collected and overnighted to JPL facilities for processing. The same leaves were processed in the Nicolet and then measured using the ASD.
Measurement: Hemispherical reflectance
First Column: X
Second Column: Y
X Units: Wavelength (micrometers)
Y Units: Reflectance (percentage)
First X Value: 2.501
Last X Value: 15.387
Number of X Values: 1737
Additional Information: vegetation.tree.acer.pensylvanicum.tir.acpe-2-69.ucsb.nicolet.ancillary.txt

 2.5010	12.8300
 2.5030	12.8130
 2.5040	12.7700
 2.5050	12.7960
 2.5060	13.2490
 2.5070	13.3310
 2.5090	12.9710
 2.5100	12.6360
 2.5110	12.5820
 2.5120	12.4900
 2.5140	12.4660
 2.5150	12.4950
 2.5160	12.4900
 2.5170	12.4070
 2.5180	12.5170
 2.5200	12.4810
 2.5210	12.5460
 2.5220	12.3160
 2.5230	12.1810
 2.5250	12.1990
 2.5260	12.2960
 2.5270	12.1840
 2.5280	12.0850
 2.5290	12.0120
 2.5310	12.0850
 2.5320	12.0810
 2.5330	12.1740
 2.5340	12.3410
 2.5360	12.2810
 2.5370	12.0510
 2.5380	11.8910
 2.5390	11.8790
 2.5410	12.0500
 2.5420	12.0380
 2.5430	11.8020
 2.5440	11.8350
 2.5460	12.2600
 2.5470	12.2900
 2.5480	12.1130
 2.5490	11.8830
 2.5510	11.7820
 2.5520	11.8670
 2.5530	11.8350
 2.5540	11.9450
 2.5560	12.3170
 2.5570	12.4120
 2.5580	12.4710
 2.5590	12.3790
 2.5610	12.0320
 2.5620	11.7130
 2.5630	11.6130
 2.5640	11.5900
 2.5660	11.8760
 2.5670	12.1340
 2.5680	12.2260
 2.5700	11.7160
 2.5710	11.5570
 2.5720	11.6610
 2.5730	11.5930
 2.5750	11.7160
 2.5760	11.8350
 2.5770	11.6240
 2.5790	11.8300
 2.5800	11.9760
 2.5810	11.6490
 2.5820	11.5860
 2.5840	11.4570
 2.5850	11.4320
 2.5860	11.5500
 2.5880	11.2170
 2.5890	11.1750
 2.5900	11.2990
 2.5910	11.5590
 2.5930	11.4300
 2.5940	10.7560
 2.5950	 9.9640
 2.5970	10.4880
 2.5980	11.0480
 2.5990	11.1740
 2.6000	10.9660
 2.6020	10.9310
 2.6030	10.7750
 2.6040	10.5390
 2.6060	10.3820
 2.6070	10.5790
 2.6080	10.6340
 2.6100	10.5780
 2.6110	10.4720
 2.6120	10.1700
 2.6140	 9.9090
 2.6150	10.1520
 2.6160	 9.8910
 2.6180	 9.6220
 2.6190	 9.6380
 2.6200	 9.4490
 2.6220	 9.3150
 2.6230	 9.7000
 2.6240	 9.6780
 2.6260	 9.3450
 2.6270	 8.7930
 2.6280	 8.9640
 2.6300	 8.9190
 2.6310	 8.5120
 2.6320	 8.3850
 2.6340	 8.4840
 2.6350	 8.5990
 2.6360	 8.8280
 2.6380	 8.8510
 2.6390	 8.7240
 2.6400	 8.4160
 2.6420	 8.3970
 2.6430	 8.2750
 2.6440	 8.2660
 2.6460	 8.1670
 2.6470	 8.0470
 2.6480	 7.8190
 2.6500	 7.7670
 2.6510	 7.6570
 2.6520	 7.5240
 2.6540	 7.2850
 2.6550	 7.0970
 2.6560	 6.9590
 2.6580	 7.1620
 2.6590	 7.1950
 2.6610	 7.0110
 2.6620	 6.5890
 2.6630	 6.3620
 2.6650	 6.1490
 2.6660	 5.9370
 2.6670	 5.8610
 2.6690	 6.0720
 2.6700	 6.0330
 2.6720	 6.0130
 2.6730	 6.0850
 2.6740	 6.0880
 2.6760	 5.6750
 2.6770	 5.3910
 2.6780	 5.5590
 2.6800	 5.5730
 2.6810	 5.4650
 2.6830	 5.4730
 2.6840	 5.2880
 2.6850	 5.1580
 2.6870	 5.1380
 2.6880	 5.4340
 2.6900	 5.3870
 2.6910	 5.4180
 2.6920	 5.2400
 2.6940	 5.1390
 2.6950	 5.0670
 2.6970	 4.9410
 2.6980	 5.1150
 2.6990	 5.3890
 2.7010	 4.8590
 2.7020	 4.7150
 2.7040	 5.0340
 2.7050	 5.0150
 2.7060	 4.6660
 2.7080	 4.5790
 2.7090	 4.4550
 2.7110	 4.4300
 2.7120	 4.4750
 2.7130	 4.6270
 2.7150	 4.7070
 2.7160	 4.7990
 2.7180	 4.4580
 2.7190	 4.4130
 2.7210	 4.4110
 2.7220	 4.4300
 2.7230	 4.2700
 2.7250	 4.5080
 2.7260	 4.7560
 2.7280	 4.8250
 2.7290	 4.7510
 2.7310	 4.7300
 2.7320	 4.7020
 2.7330	 4.6600
 2.7350	 4.4670
 2.7360	 4.7230
 2.7380	 4.6820
 2.7390	 4.4560
 2.7410	 4.0580
 2.7420	 4.0800
 2.7440	 4.1090
 2.7450	 4.1880
 2.7470	 4.6420
 2.7480	 4.5590
 2.7490	 4.2640
 2.7510	 4.8660
 2.7520	 5.0430
 2.7540	 4.8100
 2.7550	 4.5770
 2.7570	 4.7650
 2.7580	 4.6020
 2.7600	 4.2730
 2.7610	 4.5500
 2.7630	 4.5250
 2.7640	 4.4290
 2.7660	 4.5710
 2.7670	 4.6670
 2.7680	 4.6550
 2.7700	 5.0350
 2.7710	 4.9220
 2.7730	 4.6380
 2.7740	 4.8640
 2.7760	 5.2570
 2.7770	 5.2410
 2.7790	 4.8180
 2.7800	 4.6410
 2.7820	 4.4180
 2.7830	 4.4500
 2.7850	 4.7490
 2.7860	 4.7840
 2.7880	 4.5250
 2.7890	 4.5870
 2.7910	 4.7700
 2.7920	 4.9170
 2.7940	 5.0180
 2.7950	 5.0420
 2.7970	 4.7850
 2.7980	 4.6830
 2.8000	 4.6370
 2.8010	 4.4350
 2.8030	 4.2810
 2.8040	 4.4730
 2.8060	 4.6220
 2.8070	 4.8160
 2.8090	 4.7190
 2.8110	 4.8420
 2.8120	 4.9760
 2.8140	 4.9000
 2.8150	 4.9930
 2.8170	 5.1520
 2.8180	 4.8820
 2.8200	 4.6650
 2.8210	 4.8300
 2.8230	 5.2850
 2.8240	 5.1380
 2.8260	 4.8380
 2.8270	 4.7920
 2.8290	 4.8910
 2.8300	 4.9810
 2.8320	 5.4220
 2.8340	 5.3800
 2.8350	 4.8180
 2.8370	 4.5460
 2.8380	 4.9080
 2.8400	 4.9280
 2.8410	 4.8730
 2.8430	 4.7860
 2.8440	 5.0840
 2.8460	 5.2110
 2.8480	 4.9380
 2.8490	 4.8270
 2.8510	 4.9640
 2.8520	 4.8820
 2.8540	 4.7720
 2.8550	 4.7830
 2.8570	 5.0650
 2.8590	 5.0960
 2.8600	 5.0450
 2.8620	 4.9630
 2.8630	 5.1010
 2.8650	 5.1180
 2.8660	 5.2030
 2.8680	 5.3240
 2.8700	 5.4690
 2.8710	 5.4910
 2.8730	 5.2000
 2.8740	 4.7270
 2.8760	 4.6160
 2.8780	 4.9180
 2.8790	 5.3660
 2.8810	 4.9850
 2.8820	 4.7650
 2.8840	 5.0210
 2.8860	 4.9030
 2.8870	 4.2720
 2.8890	 4.7740
 2.8900	 5.3460
 2.8920	 5.2870
 2.8940	 4.8680
 2.8950	 4.6770
 2.8970	 4.7530
 2.8980	 4.8580
 2.9000	 4.8530
 2.9020	 5.0530
 2.9030	 5.0760
 2.9050	 4.7980
 2.9070	 4.8160
 2.9080	 5.1340
 2.9100	 5.0050
 2.9120	 5.0760
 2.9130	 5.2070
 2.9150	 5.1470
 2.9160	 4.8200
 2.9180	 4.8650
 2.9200	 4.9570
 2.9210	 4.9890
 2.9230	 4.6660
 2.9250	 4.6450
 2.9260	 4.8340
 2.9280	 4.8040
 2.9300	 4.8950
 2.9310	 5.1490
 2.9330	 5.1370
 2.9350	 5.1590
 2.9360	 5.0270
 2.9380	 4.6000
 2.9400	 4.4620
 2.9410	 4.9520
 2.9430	 5.0720
 2.9450	 4.6570
 2.9460	 4.3050
 2.9480	 4.2480
 2.9500	 4.4850
 2.9510	 4.9910
 2.9530	 5.0850
 2.9550	 5.1610
 2.9560	 5.0560
 2.9580	 4.9050
 2.9600	 4.4300
 2.9610	 4.3850
 2.9630	 4.8590
 2.9650	 5.2380
 2.9660	 3.3110
 2.9680	 2.1060
 2.9700	 4.9340
 2.9720	 5.7830
 2.9730	 3.9860
 2.9750	 3.9660
 2.9770	 3.8400
 2.9780	 4.1280
 2.9800	 3.9780
 2.9820	 4.1770
 2.9840	 4.4500
 2.9850	 6.2400
 2.9870	 5.8660
 2.9890	 3.8950
 2.9900	 4.7380
 2.9920	 4.1980
 2.9940	 3.8720
 2.9960	 6.0530
 2.9970	 5.7420
 2.9990	 4.3640
 3.0010	 4.6850
 3.0030	 5.1540
 3.0040	 5.4420
 3.0060	 5.0950
 3.0080	 4.3040
 3.0100	 4.6140
 3.0110	 4.5610
 3.0130	 4.5300
 3.0150	 4.9620
 3.0170	 4.4040
 3.0180	 3.7860
 3.0200	 3.4530
 3.0220	 3.6520
 3.0240	 4.4160
 3.0250	 4.7710
 3.0270	 4.7550
 3.0290	 4.5470
 3.0310	 4.7990
 3.0320	 5.2310
 3.0340	 5.6640
 3.0360	 4.7970
 3.0380	 3.9800
 3.0400	 3.0520
 3.0410	 3.1060
 3.0430	 5.4620
 3.0450	 7.5660
 3.0470	 5.4430
 3.0480	 4.5790
 3.0500	 6.5130
 3.0520	 7.0200
 3.0540	 5.5380
 3.0560	 4.6140
 3.0570	 5.2170
 3.0590	 5.0270
 3.0610	 4.6350
 3.0630	 4.1930
 3.0650	 3.0790
 3.0660	 2.7740
 3.0680	 3.1890
 3.0700	 4.3440
 3.0720	 5.2720
 3.0740	 5.1080
 3.0760	 4.4940
 3.0770	 4.2900
 3.0790	 4.2950
 3.0810	 4.1660
 3.0830	 3.9840
 3.0850	 4.1570
 3.0870	 4.6260
 3.0880	 4.5720
 3.0900	 4.4290
 3.0920	 4.6830
 3.0940	 4.5250
 3.0960	 4.2900
 3.0980	 4.4150
 3.0990	 4.5240
 3.1010	 3.9960
 3.1030	 3.6260
 3.1050	 3.5590
 3.1070	 4.2120
 3.1090	 4.7550
 3.1110	 4.2620
 3.1120	 3.4110
 3.1140	 4.3910
 3.1160	 4.4700
 3.1180	 3.6810
 3.1200	 4.0760
 3.1220	 4.1280
 3.1240	 3.6780
 3.1260	 4.2960
 3.1270	 4.2510
 3.1290	 4.2880
 3.1310	 4.0100
 3.1330	 3.6140
 3.1350	 3.4080
 3.1370	 2.7310
 3.1390	 2.7900
 3.1410	 4.0240
 3.1430	 4.9910
 3.1450	 5.1490
 3.1460	 3.9690
 3.1480	 3.3310
 3.1500	 3.5150
 3.1520	 4.0090
 3.1540	 3.7080
 3.1560	 3.4340
 3.1580	 3.0850
 3.1600	 4.6460
 3.1620	 5.8430
 3.1640	 5.8170
 3.1660	 5.3630
 3.1680	 5.1470
 3.1700	 3.5890
 3.1710	 1.9200
 3.1730	 2.7360
 3.1750	 2.7010
 3.1770	 6.2090
 3.1790	 9.3790
 3.1810	 7.0930
 3.1830	 2.4960
 3.1850	 2.2420
 3.1870	 4.5220
 3.1890	 4.2000
 3.1910	 3.1360
 3.1930	 3.3160
 3.1950	 3.2540
 3.1970	 3.4520
 3.1990	 3.8220
 3.2010	 3.8410
 3.2030	 3.6430
 3.2050	 3.7570
 3.2070	 3.8320
 3.2090	 3.7300
 3.2110	 3.6930
 3.2130	 3.8760
 3.2150	 3.7540
 3.2170	 3.5510
 3.2190	 3.5790
 3.2210	 3.4840
 3.2230	 3.4490
 3.2250	 3.4630
 3.2270	 3.5620
 3.2290	 3.2820
 3.2310	 3.4550
 3.2330	 3.4820
 3.2350	 3.4360
 3.2370	 3.5590
 3.2390	 3.5010
 3.2410	 3.4770
 3.2430	 3.3170
 3.2450	 3.4920
 3.2470	 3.6560
 3.2490	 3.5830
 3.2510	 3.7840
 3.2530	 3.7640
 3.2550	 3.5630
 3.2570	 3.7100
 3.2590	 3.7450
 3.2610	 3.7790
 3.2630	 3.8580
 3.2650	 3.6070
 3.2670	 3.4790
 3.2690	 3.5350
 3.2720	 3.7570
 3.2740	 3.8070
 3.2760	 3.7550
 3.2780	 3.5800
 3.2800	 3.5350
 3.2820	 3.6490
 3.2840	 3.6780
 3.2860	 3.5640
 3.2880	 3.5960
 3.2900	 3.6040
 3.2920	 3.7070
 3.2940	 3.5660
 3.2960	 3.3260
 3.2990	 3.6140
 3.3010	 3.6540
 3.3030	 3.3010
 3.3050	 3.2250
 3.3070	 3.3200
 3.3090	 3.5550
 3.3110	 3.2810
 3.3130	 3.0420
 3.3150	 3.2670
 3.3180	 3.4170
 3.3200	 3.3580
 3.3220	 3.3220
 3.3240	 3.3270
 3.3260	 3.2810
 3.3280	 3.3650
 3.3300	 3.3360
 3.3330	 3.2720
 3.3350	 3.4950
 3.3370	 3.3440
 3.3390	 3.1720
 3.3410	 3.1240
 3.3430	 3.0850
 3.3450	 3.2570
 3.3480	 3.3660
 3.3500	 3.1370
 3.3520	 3.0630
 3.3540	 3.1610
 3.3560	 3.1000
 3.3580	 3.0480
 3.3610	 3.0870
 3.3630	 3.0560
 3.3650	 3.1450
 3.3670	 3.1290
 3.3690	 3.1070
 3.3720	 2.9470
 3.3740	 2.7790
 3.3760	 2.8410
 3.3780	 2.9440
 3.3800	 2.9430
 3.3830	 2.8780
 3.3850	 2.7090
 3.3870	 2.6370
 3.3890	 2.7080
 3.3910	 2.8060
 3.3940	 2.7400
 3.3960	 2.6790
 3.3980	 2.6400
 3.4000	 2.8610
 3.4020	 2.9980
 3.4050	 2.8250
 3.4070	 3.0410
 3.4090	 3.2690
 3.4110	 3.2520
 3.4140	 3.4540
 3.4160	 3.7450
 3.4180	 4.0650
 3.4200	 4.2900
 3.4230	 4.8690
 3.4250	 5.6550
 3.4270	 6.3570
 3.4290	 6.7870
 3.4320	 6.7690
 3.4340	 6.4430
 3.4360	 6.0560
 3.4390	 5.5990
 3.4410	 5.3110
 3.4430	 5.2110
 3.4450	 5.1200
 3.4480	 5.1130
 3.4500	 4.9350
 3.4520	 4.3470
 3.4550	 4.2900
 3.4570	 4.3580
 3.4590	 4.5800
 3.4620	 4.5180
 3.4640	 4.4070
 3.4660	 4.5210
 3.4680	 4.5580
 3.4710	 4.5720
 3.4730	 4.2390
 3.4750	 4.1340
 3.4780	 4.2340
 3.4800	 4.2490
 3.4820	 4.2060
 3.4850	 4.1210
 3.4870	 4.0890
 3.4890	 3.9770
 3.4920	 3.8420
 3.4940	 3.8080
 3.4970	 3.8800
 3.4990	 3.9850
 3.5010	 4.1590
 3.5040	 4.3230
 3.5060	 4.6590
 3.5080	 5.3680
 3.5110	 6.2780
 3.5130	 6.4930
 3.5160	 6.1500
 3.5180	 5.7190
 3.5200	 5.4710
 3.5230	 5.3190
 3.5250	 5.2870
 3.5270	 5.1130
 3.5300	 4.9820
 3.5320	 4.9580
 3.5350	 5.0370
 3.5370	 5.0760
 3.5400	 4.9230
 3.5420	 4.7520
 3.5440	 4.8750
 3.5470	 4.8020
 3.5490	 4.6570
 3.5520	 4.5780
 3.5540	 4.4770
 3.5570	 4.4710
 3.5590	 4.5170
 3.5610	 4.5740
 3.5640	 4.5990
 3.5660	 4.6090
 3.5690	 4.5990
 3.5710	 4.4510
 3.5740	 4.4970
 3.5760	 4.7130
 3.5790	 4.6880
 3.5810	 4.6440
 3.5840	 4.6410
 3.5860	 4.6370
 3.5890	 4.6440
 3.5910	 4.6210
 3.5930	 4.7840
 3.5960	 4.6830
 3.5980	 4.3940
 3.6010	 4.8320
 3.6030	 4.7720
 3.6060	 4.3220
 3.6080	 4.5580
 3.6110	 4.5770
 3.6140	 4.6710
 3.6160	 4.8730
 3.6190	 4.8550
 3.6210	 4.7560
 3.6240	 4.6770
 3.6260	 4.6790
 3.6290	 4.7610
 3.6310	 4.7120
 3.6340	 4.8480
 3.6360	 4.7710
 3.6390	 4.7120
 3.6410	 4.8140
 3.6440	 4.8650
 3.6470	 4.7480
 3.6490	 4.6850
 3.6520	 4.6870
 3.6540	 4.6880
 3.6570	 4.7470
 3.6590	 4.8300
 3.6620	 4.8280
 3.6650	 4.7520
 3.6670	 4.7440
 3.6700	 4.9020
 3.6720	 4.9170
 3.6750	 4.7720
 3.6780	 4.7650
 3.6800	 4.7840
 3.6830	 4.7280
 3.6850	 4.6670
 3.6880	 4.7760
 3.6910	 4.8530
 3.6930	 4.8800
 3.6960	 4.9730
 3.6990	 4.9280
 3.7010	 4.8420
 3.7040	 4.7960
 3.7060	 4.8940
 3.7090	 4.8420
 3.7120	 4.8320
 3.7140	 4.8690
 3.7170	 4.9290
 3.7200	 4.8920
 3.7220	 4.8300
 3.7250	 4.8930
 3.7280	 4.9170
 3.7300	 4.9900
 3.7330	 5.0420
 3.7360	 5.0500
 3.7390	 5.2410
 3.7410	 5.3560
 3.7440	 5.1320
 3.7470	 4.9540
 3.7490	 5.0690
 3.7520	 5.1880
 3.7550	 5.2710
 3.7580	 5.3160
 3.7600	 5.3170
 3.7630	 5.2530
 3.7660	 5.2920
 3.7680	 5.2530
 3.7710	 5.2510
 3.7740	 5.3470
 3.7770	 5.4230
 3.7790	 5.4990
 3.7820	 5.5700
 3.7850	 5.4900
 3.7880	 5.4600
 3.7900	 5.5510
 3.7930	 5.5740
 3.7960	 5.4860
 3.7990	 5.5170
 3.8020	 5.5390
 3.8040	 5.5420
 3.8070	 5.7020
 3.8100	 5.7860
 3.8130	 5.8580
 3.8160	 5.7910
 3.8180	 5.7560
 3.8210	 5.8680
 3.8240	 5.8620
 3.8270	 5.6710
 3.8300	 5.5770
 3.8330	 5.5590
 3.8350	 5.6350
 3.8380	 5.8040
 3.8410	 6.0500
 3.8440	 6.0810
 3.8470	 5.8930
 3.8500	 5.7110
 3.8520	 5.7490
 3.8550	 5.8060
 3.8580	 5.8340
 3.8610	 5.9840
 3.8640	 6.0110
 3.8670	 6.0920
 3.8700	 6.1320
 3.8730	 6.0350
 3.8750	 5.8870
 3.8780	 5.8540
 3.8810	 5.9900
 3.8840	 5.9990
 3.8870	 5.9470
 3.8900	 5.8630
 3.8930	 5.8540
 3.8960	 5.9650
 3.8990	 6.0390
 3.9020	 6.0110
 3.9050	 6.0840
 3.9080	 6.2140
 3.9110	 6.1610
 3.9140	 6.1640
 3.9160	 6.2090
 3.9190	 6.1780
 3.9220	 5.9940
 3.9250	 6.0200
 3.9280	 6.1710
 3.9310	 6.2850
 3.9340	 6.2700
 3.9370	 6.2830
 3.9400	 6.2470
 3.9430	 6.1660
 3.9460	 6.1530
 3.9490	 6.2680
 3.9520	 6.2810
 3.9550	 6.2050
 3.9580	 6.2520
 3.9610	 6.3140
 3.9640	 6.0650
 3.9670	 5.9500
 3.9700	 5.9910
 3.9730	 6.0500
 3.9770	 6.0610
 3.9800	 6.1550
 3.9830	 6.2700
 3.9860	 6.2930
 3.9890	 6.2580
 3.9920	 6.2020
 3.9950	 6.1420
 3.9980	 6.2650
 4.0010	 6.2940
 4.0040	 6.1430
 4.0070	 5.9870
 4.0100	 6.1000
 4.0130	 6.2030
 4.0170	 6.2040
 4.0200	 6.0760
 4.0230	 6.0500
 4.0260	 6.1080
 4.0290	 6.0790
 4.0320	 6.0420
 4.0350	 6.0560
 4.0380	 6.0770
 4.0420	 6.0980
 4.0450	 6.1040
 4.0480	 6.1060
 4.0510	 6.0860
 4.0540	 6.1450
 4.0570	 6.1190
 4.0610	 6.0980
 4.0640	 6.2020
 4.0670	 6.1610
 4.0700	 6.0860
 4.0730	 6.1300
 4.0770	 6.1720
 4.0800	 6.0880
 4.0830	 6.0510
 4.0860	 6.1540
 4.0890	 6.0550
 4.0930	 5.9270
 4.0960	 5.9070
 4.0990	 5.9300
 4.1020	 5.9880
 4.1060	 5.8590
 4.1090	 5.7000
 4.1120	 5.6610
 4.1150	 5.6210
 4.1190	 5.6840
 4.1220	 5.7580
 4.1250	 5.8320
 4.1280	 5.8760
 4.1320	 5.8790
 4.1350	 5.9230
 4.1380	 6.0150
 4.1420	 5.9530
 4.1450	 5.8640
 4.1480	 5.8790
 4.1520	 5.8860
 4.1550	 5.6840
 4.1580	 5.5690
 4.1620	 5.7020
 4.1650	 5.8090
 4.1680	 5.7160
 4.1720	 5.6360
 4.1750	 5.6680
 4.1780	 5.7010
 4.1820	 5.7900
 4.1850	 5.8240
 4.1890	 5.7780
 4.1920	 5.6800
 4.1950	 5.5820
 4.1990	 5.5920
 4.2020	 5.6620
 4.2060	 5.5850
 4.2090	 5.3610
 4.2120	 5.3710
 4.2160	 5.6010
 4.2190	 5.4830
 4.2230	 5.4440
 4.2260	 5.5650
 4.2300	 5.2620
 4.2330	 5.0230
 4.2360	 5.1720
 4.2400	 5.1990
 4.2430	 4.8260
 4.2470	 4.9810
 4.2500	 5.1530
 4.2540	 5.2180
 4.2570	 5.4550
 4.2610	 5.7300
 4.2640	 5.5610
 4.2680	 5.2240
 4.2710	 4.9930
 4.2750	 5.0180
 4.2780	 5.2530
 4.2820	 5.3750
 4.2850	 5.2710
 4.2890	 5.0680
 4.2930	 5.0630
 4.2960	 5.0350
 4.3000	 5.1760
 4.3030	 5.4040
 4.3070	 5.3260
 4.3100	 5.0200
 4.3140	 4.9800
 4.3180	 5.0440
 4.3210	 5.0460
 4.3250	 5.1250
 4.3280	 5.1210
 4.3320	 5.2050
 4.3360	 5.1850
 4.3390	 5.0840
 4.3430	 5.0660
 4.3470	 5.0620
 4.3500	 5.1150
 4.3540	 5.1010
 4.3570	 5.0860
 4.3610	 5.0800
 4.3650	 5.0770
 4.3680	 5.0390
 4.3720	 4.8980
 4.3760	 4.8100
 4.3800	 4.8240
 4.3830	 4.9280
 4.3870	 5.0420
 4.3910	 5.1060
 4.3940	 5.0640
 4.3980	 5.0310
 4.4020	 4.9890
 4.4060	 4.8160
 4.4090	 4.7970
 4.4130	 4.8430
 4.4170	 4.7520
 4.4210	 4.7210
 4.4240	 4.7540
 4.4280	 4.7910
 4.4320	 4.7950
 4.4360	 4.7570
 4.4400	 4.8620
 4.4430	 4.8770
 4.4470	 4.8330
 4.4510	 4.7620
 4.4550	 4.6910
 4.4590	 4.6650
 4.4620	 4.6420
 4.4660	 4.6910
 4.4700	 4.7420
 4.4740	 4.6260
 4.4780	 4.6900
 4.4820	 4.7760
 4.4860	 4.6720
 4.4900	 4.6250
 4.4930	 4.6950
 4.4970	 4.5680
 4.5010	 4.4820
 4.5050	 4.5260
 4.5090	 4.5850
 4.5130	 4.5930
 4.5170	 4.4830
 4.5210	 4.4230
 4.5250	 4.4850
 4.5290	 4.5410
 4.5330	 4.5990
 4.5370	 4.6250
 4.5410	 4.6240
 4.5450	 4.6240
 4.5490	 4.6570
 4.5530	 4.5590
 4.5570	 4.5560
 4.5610	 4.5590
 4.5650	 4.5380
 4.5690	 4.5200
 4.5730	 4.5580
 4.5770	 4.6790
 4.5810	 4.6860
 4.5850	 4.4840
 4.5890	 4.4660
 4.5930	 4.4530
 4.5970	 4.3250
 4.6010	 4.3020
 4.6050	 4.3420
 4.6090	 4.1520
 4.6130	 4.3590
 4.6170	 4.6240
 4.6220	 4.5250
 4.6260	 4.4220
 4.6300	 4.4900
 4.6340	 4.5940
 4.6380	 4.5060
 4.6420	 4.5200
 4.6460	 4.6070
 4.6510	 4.4440
 4.6550	 4.3690
 4.6590	 4.5160
 4.6630	 4.6140
 4.6670	 4.5970
 4.6720	 4.4550
 4.6760	 4.5010
 4.6800	 4.5430
 4.6840	 4.5160
 4.6880	 4.5220
 4.6930	 4.5150
 4.6970	 4.4720
 4.7010	 4.5090
 4.7050	 4.6430
 4.7100	 4.6280
 4.7140	 4.5660
 4.7180	 4.5450
 4.7230	 4.5300
 4.7270	 4.4890
 4.7310	 4.4830
 4.7360	 4.5660
 4.7400	 4.6200
 4.7440	 4.5940
 4.7490	 4.5390
 4.7530	 4.5740
 4.7570	 4.5240
 4.7620	 4.4930
 4.7660	 4.4460
 4.7700	 4.4660
 4.7750	 4.6240
 4.7790	 4.7570
 4.7840	 4.4790
 4.7880	 4.3800
 4.7920	 4.7070
 4.7970	 4.8210
 4.8010	 4.8120
 4.8060	 4.6380
 4.8100	 4.6040
 4.8150	 4.4690
 4.8190	 4.4620
 4.8240	 4.5960
 4.8280	 4.6110
 4.8330	 4.4700
 4.8370	 4.5560
 4.8420	 4.4930
 4.8460	 4.4190
 4.8510	 4.4460
 4.8550	 4.5780
 4.8600	 4.6110
 4.8640	 4.6000
 4.8690	 4.6310
 4.8730	 4.6470
 4.8780	 4.6050
 4.8830	 4.5790
 4.8870	 4.5420
 4.8920	 4.5620
 4.8960	 4.5490
 4.9010	 4.6720
 4.9060	 4.7270
 4.9100	 4.7040
 4.9150	 4.6900
 4.9200	 4.7500
 4.9240	 4.7070
 4.9290	 4.7360
 4.9340	 4.7310
 4.9380	 4.7050
 4.9430	 4.6290
 4.9480	 4.6590
 4.9530	 4.7130
 4.9570	 4.8960
 4.9620	 4.8850
 4.9670	 4.8670
 4.9720	 4.9650
 4.9760	 4.9750
 4.9810	 4.9340
 4.9860	 4.9660
 4.9910	 4.9220
 4.9960	 4.8710
 5.0000	 4.8200
 5.0050	 4.8040
 5.0100	 4.7660
 5.0150	 4.8200
 5.0200	 4.8930
 5.0250	 4.9910
 5.0290	 4.9070
 5.0340	 4.9360
 5.0390	 5.0280
 5.0440	 5.0500
 5.0490	 5.0680
 5.0540	 5.1310
 5.0590	 5.0400
 5.0640	 5.0170
 5.0690	 5.0110
 5.0740	 5.1320
 5.0790	 5.0890
 5.0840	 5.0600
 5.0890	 5.0780
 5.0940	 5.1850
 5.0990	 5.1950
 5.1040	 5.2200
 5.1090	 5.1090
 5.1140	 5.1120
 5.1190	 5.2100
 5.1240	 5.2130
 5.1290	 5.1300
 5.1340	 5.2270
 5.1390	 5.2790
 5.1440	 5.2120
 5.1490	 5.2140
 5.1540	 5.3680
 5.1600	 5.4510
 5.1650	 5.4270
 5.1700	 5.3190
 5.1750	 5.3750
 5.1800	 5.4070
 5.1850	 5.3560
 5.1910	 5.3220
 5.1960	 5.3700
 5.2010	 5.3880
 5.2060	 5.3810
 5.2110	 5.2920
 5.2170	 5.3080
 5.2220	 5.3320
 5.2270	 5.3750
 5.2320	 5.3960
 5.2380	 5.4270
 5.2430	 5.3710
 5.2480	 5.4320
 5.2540	 5.4930
 5.2590	 5.5410
 5.2640	 5.5840
 5.2700	 5.6380
 5.2750	 5.5730
 5.2800	 5.4540
 5.2860	 5.5090
 5.2910	 5.5280
 5.2970	 5.4460
 5.3020	 5.4940
 5.3070	 5.4810
 5.3130	 5.4550
 5.3180	 5.5080
 5.3240	 5.6030
 5.3290	 5.5060
 5.3350	 5.4600
 5.3400	 5.4710
 5.3460	 5.4800
 5.3510	 5.4280
 5.3570	 5.4210
 5.3620	 5.3800
 5.3680	 5.4410
 5.3730	 5.4690
 5.3790	 5.5290
 5.3850	 5.5450
 5.3900	 5.5200
 5.3960	 5.4570
 5.4010	 5.5200
 5.4070	 5.4350
 5.4130	 5.4050
 5.4180	 5.3300
 5.4240	 5.2090
 5.4300	 5.2640
 5.4350	 5.2990
 5.4410	 5.1790
 5.4470	 5.1370
 5.4530	 5.2320
 5.4580	 5.2880
 5.4640	 5.1740
 5.4700	 5.2050
 5.4760	 5.2710
 5.4810	 5.2800
 5.4870	 5.2720
 5.4930	 5.3040
 5.4990	 5.2510
 5.5050	 5.2020
 5.5110	 5.0910
 5.5160	 4.9990
 5.5220	 4.9330
 5.5280	 4.9920
 5.5340	 5.0050
 5.5400	 4.9640
 5.5460	 4.8090
 5.5520	 4.7720
 5.5580	 4.7870
 5.5640	 4.8270
 5.5700	 4.8010
 5.5760	 4.6550
 5.5820	 4.5450
 5.5880	 4.7360
 5.5940	 4.7440
 5.6000	 4.6500
 5.6060	 4.5620
 5.6120	 4.6470
 5.6180	 4.6760
 5.6240	 4.6730
 5.6300	 4.5700
 5.6360	 4.3210
 5.6420	 4.1240
 5.6490	 4.2660
 5.6550	 4.2370
 5.6610	 4.3150
 5.6670	 4.3680
 5.6730	 4.3170
 5.6800	 4.1380
 5.6860	 4.0040
 5.6920	 3.9230
 5.6980	 4.0220
 5.7040	 3.8180
 5.7110	 3.5340
 5.7170	 3.4980
 5.7230	 3.4480
 5.7300	 3.4070
 5.7360	 3.5510
 5.7420	 3.5960
 5.7490	 3.7340
 5.7550	 4.0100
 5.7620	 4.2280
 5.7680	 4.3870
 5.7740	 4.8220
 5.7810	 5.0030
 5.7870	 5.0620
 5.7940	 5.0620
 5.8000	 5.0480
 5.8070	 5.0860
 5.8130	 5.0650
 5.8200	 4.6680
 5.8260	 4.5490
 5.8330	 4.7300
 5.8390	 4.9760
 5.8460	 5.0770
 5.8530	 5.0290
 5.8590	 4.8820
 5.8660	 4.9430
 5.8720	 4.9650
 5.8790	 4.7130
 5.8860	 4.7570
 5.8920	 4.8310
 5.8990	 4.6670
 5.9060	 4.9480
 5.9130	 4.9410
 5.9190	 4.9720
 5.9260	 4.8760
 5.9330	 4.5300
 5.9400	 4.2690
 5.9470	 4.5580
 5.9530	 4.7530
 5.9600	 4.7670
 5.9670	 4.4950
 5.9740	 4.5720
 5.9810	 4.6420
 5.9880	 4.5450
 5.9950	 4.5490
 6.0020	 4.7040
 6.0090	 4.5350
 6.0160	 4.3630
 6.0230	 4.3730
 6.0300	 4.6330
 6.0370	 4.6020
 6.0440	 4.1780
 6.0510	 3.8760
 6.0580	 4.2490
 6.0650	 4.2270
 6.0720	 4.0370
 6.0790	 4.0130
 6.0860	 4.1090
 6.0930	 3.9800
 6.1000	 4.1030
 6.1080	 4.1210
 6.1150	 3.9370
 6.1220	 3.9640
 6.1290	 4.2160
 6.1370	 4.2900
 6.1440	 4.1640
 6.1510	 4.1330
 6.1580	 4.0780
 6.1660	 4.0200
 6.1730	 4.3410
 6.1800	 4.3100
 6.1880	 4.1920
 6.1950	 4.2350
 6.2030	 4.3190
 6.2100	 4.1570
 6.2170	 4.2330
 6.2250	 4.4020
 6.2320	 4.5290
 6.2400	 4.5070
 6.2470	 4.4030
 6.2550	 4.3020
 6.2630	 4.4240
 6.2700	 4.4270
 6.2780	 4.3760
 6.2850	 4.3080
 6.2930	 4.3790
 6.3010	 4.3170
 6.3080	 4.4620
 6.3160	 4.4380
 6.3240	 4.4560
 6.3310	 4.4260
 6.3390	 4.2410
 6.3470	 4.1350
 6.3550	 4.5040
 6.3620	 4.5740
 6.3700	 4.3000
 6.3780	 4.2080
 6.3860	 4.4590
 6.3940	 4.4820
 6.4020	 4.4830
 6.4100	 4.0790
 6.4180	 3.9400
 6.4260	 4.1710
 6.4330	 4.2370
 6.4410	 4.4020
 6.4490	 4.5660
 6.4580	 4.4870
 6.4660	 4.3620
 6.4740	 4.1410
 6.4820	 4.2080
 6.4900	 4.1610
 6.4980	 4.2070
 6.5060	 4.2930
 6.5140	 4.3510
 6.5230	 4.3180
 6.5310	 4.5770
 6.5390	 4.4820
 6.5470	 4.4340
 6.5550	 4.4320
 6.5640	 4.2630
 6.5720	 3.9660
 6.5800	 4.2890
 6.5890	 4.4420
 6.5970	 4.5200
 6.6060	 4.4780
 6.6140	 4.4370
 6.6220	 4.2840
 6.6310	 4.0470
 6.6390	 3.9550
 6.6480	 4.2810
 6.6560	 4.5140
 6.6650	 4.4020
 6.6740	 4.2060
 6.6820	 4.3320
 6.6910	 4.3580
 6.6990	 4.4180
 6.7080	 4.2560
 6.7170	 4.1710
 6.7260	 4.1270
 6.7340	 4.3370
 6.7430	 4.2500
 6.7520	 4.2770
 6.7610	 4.1830
 6.7690	 4.0880
 6.7780	 3.9900
 6.7870	 4.2550
 6.7960	 4.3630
 6.8050	 4.4640
 6.8140	 4.3780
 6.8230	 4.3810
 6.8320	 4.6610
 6.8410	 4.9070
 6.8500	 4.8400
 6.8590	 4.7050
 6.8680	 4.5850
 6.8770	 4.8500
 6.8860	 5.0050
 6.8950	 5.0080
 6.9050	 4.7290
 6.9140	 4.6680
 6.9230	 4.7070
 6.9320	 4.7230
 6.9420	 4.6200
 6.9510	 4.6020
 6.9600	 4.4380
 6.9700	 4.6570
 6.9790	 4.5920
 6.9880	 4.5400
 6.9980	 4.4370
 7.0070	 4.4350
 7.0170	 4.4500
 7.0260	 4.6060
 7.0360	 4.4690
 7.0450	 4.4410
 7.0550	 4.4200
 7.0650	 4.5750
 7.0740	 4.5310
 7.0840	 4.5510
 7.0940	 4.4770
 7.1030	 4.7330
 7.1130	 4.7730
 7.1230	 4.8210
 7.1330	 4.6420
 7.1420	 4.4740
 7.1520	 4.3870
 7.1620	 4.5200
 7.1720	 4.4410
 7.1820	 4.6110
 7.1920	 4.6710
 7.2020	 4.5680
 7.2120	 4.5210
 7.2220	 4.6970
 7.2320	 4.5780
 7.2420	 4.6650
 7.2520	 4.6590
 7.2620	 4.6660
 7.2730	 4.6060
 7.2830	 4.6890
 7.2930	 4.5400
 7.3030	 4.4870
 7.3140	 4.5270
 7.3240	 4.5910
 7.3340	 4.5110
 7.3450	 4.6660
 7.3550	 4.6700
 7.3660	 4.8080
 7.3760	 4.5870
 7.3870	 4.5850
 7.3970	 4.7330
 7.4080	 4.7690
 7.4180	 4.4910
 7.4290	 4.4680
 7.4400	 4.5510
 7.4500	 4.6480
 7.4610	 4.5240
 7.4720	 4.4790
 7.4830	 4.2770
 7.4930	 4.3590
 7.5040	 4.3200
 7.5150	 4.3970
 7.5260	 4.2630
 7.5370	 4.3610
 7.5480	 4.3010
 7.5590	 4.2450
 7.5700	 4.2350
 7.5810	 4.3710
 7.5920	 4.2960
 7.6030	 4.3800
 7.6140	 4.3930
 7.6260	 4.3820
 7.6370	 4.3190
 7.6480	 4.3430
 7.6590	 4.2470
 7.6710	 4.3660
 7.6820	 4.4010
 7.6930	 4.4850
 7.7050	 4.3530
 7.7160	 4.2910
 7.7280	 4.1620
 7.7390	 4.3960
 7.7510	 4.4450
 7.7630	 4.4870
 7.7740	 4.4560
 7.7860	 4.4980
 7.7980	 4.4320
 7.8090	 4.4700
 7.8210	 4.3270
 7.8330	 4.3720
 7.8450	 4.2000
 7.8570	 4.2440
 7.8690	 4.3190
 7.8810	 4.4300
 7.8930	 4.2220
 7.9050	 4.3900
 7.9170	 4.4260
 7.9290	 4.4060
 7.9410	 4.2850
 7.9530	 4.3960
 7.9650	 4.3660
 7.9780	 4.3710
 7.9900	 4.1780
 8.0020	 4.2760
 8.0150	 4.3460
 8.0270	 4.6080
 8.0390	 4.5540
 8.0520	 4.6700
 8.0640	 4.6760
 8.0770	 4.7310
 8.0900	 4.4730
 8.1020	 4.5500
 8.1150	 4.4610
 8.1280	 4.6970
 8.1400	 4.6990
 8.1530	 4.7350
 8.1660	 4.5960
 8.1790	 4.7940
 8.1920	 4.5850
 8.2050	 4.5780
 8.2180	 4.6180
 8.2310	 4.8550
 8.2440	 4.6390
 8.2570	 4.6380
 8.2700	 4.6140
 8.2830	 4.8310
 8.2970	 4.7890
 8.3100	 4.8290
 8.3230	 4.5830
 8.3370	 4.6010
 8.3500	 4.5140
 8.3640	 4.4950
 8.3770	 4.3440
 8.3910	 4.5430
 8.4040	 4.6170
 8.4180	 4.8420
 8.4320	 4.7590
 8.4450	 4.7240
 8.4590	 4.3900
 8.4730	 4.4820
 8.4870	 4.3490
 8.5010	 4.4370
 8.5150	 4.3910
 8.5290	 4.6600
 8.5430	 4.5650
 8.5570	 4.6100
 8.5710	 4.3790
 8.5850	 4.3670
 8.5990	 4.1040
 8.6140	 4.1700
 8.6280	 4.4140
 8.6420	 4.7350
 8.6570	 4.5180
 8.6710	 4.5080
 8.6860	 4.2700
 8.7000	 4.5010
 8.7150	 4.4930
 8.7300	 4.4770
 8.7440	 4.3700
 8.7590	 4.5970
 8.7740	 4.3140
 8.7890	 4.3790
 8.8040	 4.4280
 8.8190	 4.5400
 8.8340	 4.2250
 8.8490	 4.3510
 8.8640	 4.2420
 8.8790	 4.3700
 8.8940	 4.1470
 8.9100	 4.2080
 8.9250	 3.9900
 8.9400	 4.0740
 8.9560	 3.7220
 8.9710	 3.7960
 8.9870	 3.8170
 9.0020	 3.9120
 9.0180	 3.6500
 9.0340	 3.5560
 9.0500	 3.3000
 9.0650	 3.6180
 9.0810	 3.8000
 9.0970	 3.9070
 9.1130	 3.7660
 9.1290	 3.9530
 9.1450	 3.9270
 9.1610	 4.0770
 9.1780	 3.8830
 9.1940	 4.0470
 9.2100	 3.9870
 9.2270	 4.0030
 9.2430	 3.9060
 9.2600	 3.8770
 9.2760	 3.4350
 9.2930	 3.7130
 9.3090	 3.8210
 9.3260	 3.8730
 9.3430	 3.7370
 9.3600	 3.8850
 9.3770	 3.7580
 9.3940	 3.9000
 9.4110	 3.6670
 9.4280	 3.7090
 9.4450	 3.8020
 9.4620	 4.1420
 9.4800	 3.7660
 9.4970	 3.7720
 9.5140	 3.7290
 9.5320	 4.1340
 9.5500	 4.1310
 9.5670	 4.1840
 9.5850	 3.9820
 9.6030	 4.1880
 9.6200	 4.1160
 9.6380	 4.0440
 9.6560	 3.7070
 9.6740	 3.8590
 9.6920	 3.8760
 9.7100	 4.1690
 9.7290	 4.2830
 9.7470	 4.5840
 9.7650	 4.4220
 9.7840	 4.3890
 9.8020	 4.1660
 9.8210	 4.4640
 9.8390	 4.5000
 9.8580	 4.6550
 9.8770	 4.5660
 9.8960	 4.7290
 9.9150	 4.6350
 9.9340	 4.9090
 9.9530	 4.8380
 9.9720	 4.9060
 9.9910	 4.8470
10.0100	 4.9740
10.0300	 4.6920
10.0490	 4.9140
10.0690	 5.0280
10.0880	 5.2890
10.1080	 5.2540
10.1280	 5.2870
10.1480	 4.9690
10.1670	 5.1950
10.1870	 5.3510
10.2070	 5.5630
10.2280	 5.2010
10.2480	 5.2660
10.2680	 5.1080
10.2890	 5.1720
10.3090	 4.9430
10.3300	 5.0980
10.3500	 4.9220
10.3710	 4.8220
10.3920	 4.7880
10.4120	 4.9990
10.4330	 4.8500
10.4540	 4.9860
10.4760	 4.8130
10.4970	 5.0200
10.5180	 4.9810
10.5390	 5.1500
10.5610	 4.9970
10.5820	 5.1400
10.6040	 5.1920
10.6260	 5.4460
10.6480	 5.2170
10.6700	 5.3110
10.6920	 5.1720
10.7140	 5.2790
10.7360	 5.0950
10.7580	 5.1570
10.7800	 5.0910
10.8030	 5.2700
10.8250	 4.8600
10.8480	 4.9730
10.8710	 4.8480
10.8940	 4.9320
10.9170	 4.7080
10.9400	 4.6910
10.9630	 4.5380
10.9860	 4.6300
11.0090	 4.3990
11.0330	 4.6170
11.0560	 4.3590
11.0800	 4.5370
11.1040	 5.1470
11.1270	 5.4820
11.1510	 4.6080
11.1750	 4.5540
11.2000	 4.3040
11.2240	 4.3900
11.2480	 4.2970
11.2730	 4.3210
11.2970	 4.2750
11.3220	 4.4560
11.3470	 3.9720
11.3720	 4.1790
11.3970	 3.9780
11.4220	 4.1820
11.4470	 4.0420
11.4720	 4.3510
11.4980	 3.9700
11.5230	 4.1990
11.5490	 4.1550
11.5750	 4.1070
11.6000	 3.5830
11.6260	 3.6830
11.6530	 3.6010
11.6790	 3.8220
11.7050	 3.5810
11.7320	 3.6200
11.7580	 3.1600
11.7850	 3.3100
11.8120	 3.0520
11.8390	 3.1030
11.8660	 3.2860
11.8930	 3.6590
11.9200	 3.1700
11.9480	 3.1460
11.9760	 2.9440
12.0030	 3.3200
12.0310	 3.1830
12.0590	 3.4500
12.0870	 3.1610
12.1150	 3.3490
12.1440	 3.3350
12.1720	 3.5260
12.2010	 3.0130
12.2300	 2.7420
12.2590	 2.5950
12.2880	 3.0910
12.3170	 2.9820
12.3460	 3.0430
12.3760	 2.6020
12.4050	 2.8140
12.4350	 2.5380
12.4650	 2.6820
12.4950	 2.3880
12.5250	 2.6890
12.5550	 2.4420
12.5860	 2.8080
12.6170	 2.6820
12.6470	 2.7080
12.6780	 2.4620
12.7090	 2.5350
12.7410	 2.1490
12.7720	 2.7250
12.8030	 2.6930
12.8350	 2.6810
12.8670	 2.3400
12.8990	 2.1380
12.9310	 1.9290
12.9640	 2.5490
12.9960	 2.2230
13.0290	 2.3100
13.0610	 1.9050
13.0940	 2.2390
13.1280	 1.9910
13.1610	 2.0650
13.1940	 1.8710
13.2280	 1.9490
13.2620	 1.6270
13.2960	 2.3030
13.3300	 2.0640
13.3640	 2.2580
13.3990	 2.0170
13.4340	 2.0650
13.4690	 1.3910
13.5040	 1.8010
13.5390	 1.8140
13.5740	 2.0240
13.6100	 1.4440
13.6460	 1.9970
13.6820	 2.1440
13.7180	 2.5350
13.7540	 1.6200
13.7910	 1.9340
13.8280	 1.7880
13.8650	 2.0440
13.9020	 1.8500
13.9390	 2.3020
13.9770	 2.1060
14.0150	 2.4760
14.0530	 1.9200
14.0910	 2.1420
14.1290	 1.8750
14.1680	 2.2500
14.2070	 1.6660
14.2460	 2.0110
14.2850	 1.7790
14.3240	 2.2830
14.3640	 2.0130
14.4040	 2.2790
14.4440	 1.3800
14.4840	 1.5890
14.5250	 1.5710
14.5660	 2.5290
14.6070	 1.7150
14.6480	 1.8630
14.6900	 1.3800
14.7310	 2.3300
14.7730	 2.1200
14.8150	 2.2880
14.8580	 1.4740
14.9010	 2.0440
14.9440	 1.5330
14.9870	 2.0430
15.0300	 1.2040
15.0740	 1.6630
15.1180	 1.2470
15.1620	 2.1290
15.2060	 1.5240
15.2510	 2.0710
15.2960	 1.9310
15.3410	 3.0910
15.3870	 2.5950
