Name: Quercus agrifolia
Type: vegetation
Class: Tree
Genus: Quercus
Species: agrifolia
Sample No.: JPL179
Owner: JPL
Wavelength Range: VSWIR
Origin: 34.12881; -118.11349; WGS84
Collection Date: 10/3/2016
Description: Samples were collected at the Huntington Garden in San Marino California as part of a JPL Subcontract studying HyTES imagery. Samples were taken to JPL and processed within 48 hours of collection. The same leaves were processed in the Nicolet and then measured using the ASD.
Measurement: Bidirectional reflectance
First Column: X
Second Column: Y
X Units: Wavelength (micrometer)
Y Units: Reflectance (percentage)
First X Value: 0.35
Last X Value: 2.5
Number of X Values: 2151
Additional Information: vegetation.tree.quercus.agrifolia.vswir.jpl179.jpl.asd.ancillary.txt

 0.3500	 6.3980
 0.3510	 6.3870
 0.3520	 6.4050
 0.3530	 6.4060
 0.3540	 6.3910
 0.3550	 6.3890
 0.3560	 6.3610
 0.3570	 6.3290
 0.3580	 6.3360
 0.3590	 6.2880
 0.3600	 6.2670
 0.3610	 6.2950
 0.3620	 6.2880
 0.3630	 6.2520
 0.3640	 6.1980
 0.3650	 6.1550
 0.3660	 6.2170
 0.3670	 6.2080
 0.3680	 6.1470
 0.3690	 6.1780
 0.3700	 6.1850
 0.3710	 6.1690
 0.3720	 6.1450
 0.3730	 6.1160
 0.3740	 6.1340
 0.3750	 6.1580
 0.3760	 6.1370
 0.3770	 6.1070
 0.3780	 6.0770
 0.3790	 6.0600
 0.3800	 6.0630
 0.3810	 6.0280
 0.3820	 6.0360
 0.3830	 6.1080
 0.3840	 6.0850
 0.3850	 6.0600
 0.3860	 6.0540
 0.3870	 6.0580
 0.3880	 6.0680
 0.3890	 6.0590
 0.3900	 6.0470
 0.3910	 6.0820
 0.3920	 6.0730
 0.3930	 6.0460
 0.3940	 6.0370
 0.3950	 6.0500
 0.3960	 6.0480
 0.3970	 6.0490
 0.3980	 6.0900
 0.3990	 6.0820
 0.4000	 6.0730
 0.4010	 6.0900
 0.4020	 6.1210
 0.4030	 6.1140
 0.4040	 6.0980
 0.4050	 6.1080
 0.4060	 6.1280
 0.4070	 6.1480
 0.4080	 6.1720
 0.4090	 6.2080
 0.4100	 6.2360
 0.4110	 6.2480
 0.4120	 6.2510
 0.4130	 6.2860
 0.4140	 6.3120
 0.4150	 6.3300
 0.4160	 6.3500
 0.4170	 6.3720
 0.4180	 6.3960
 0.4190	 6.4230
 0.4200	 6.4490
 0.4210	 6.4700
 0.4220	 6.4870
 0.4230	 6.5040
 0.4240	 6.5310
 0.4250	 6.5520
 0.4260	 6.5660
 0.4270	 6.5800
 0.4280	 6.5870
 0.4290	 6.6030
 0.4300	 6.6250
 0.4310	 6.6260
 0.4320	 6.6260
 0.4330	 6.6300
 0.4340	 6.6370
 0.4350	 6.6440
 0.4360	 6.6490
 0.4370	 6.6560
 0.4380	 6.6770
 0.4390	 6.7050
 0.4400	 6.7300
 0.4410	 6.7460
 0.4420	 6.7560
 0.4430	 6.7710
 0.4440	 6.7860
 0.4450	 6.7900
 0.4460	 6.8000
 0.4470	 6.8090
 0.4480	 6.8160
 0.4490	 6.8260
 0.4500	 6.8350
 0.4510	 6.8440
 0.4520	 6.8510
 0.4530	 6.8540
 0.4540	 6.8630
 0.4550	 6.8750
 0.4560	 6.8820
 0.4570	 6.8930
 0.4580	 6.9020
 0.4590	 6.9050
 0.4600	 6.9040
 0.4610	 6.9050
 0.4620	 6.9110
 0.4630	 6.9240
 0.4640	 6.9290
 0.4650	 6.9270
 0.4660	 6.9250
 0.4670	 6.9330
 0.4680	 6.9380
 0.4690	 6.9400
 0.4700	 6.9400
 0.4710	 6.9370
 0.4720	 6.9350
 0.4730	 6.9390
 0.4740	 6.9480
 0.4750	 6.9500
 0.4760	 6.9440
 0.4770	 6.9390
 0.4780	 6.9520
 0.4790	 6.9560
 0.4800	 6.9520
 0.4810	 6.9480
 0.4820	 6.9480
 0.4830	 6.9500
 0.4840	 6.9530
 0.4850	 6.9500
 0.4860	 6.9480
 0.4870	 6.9500
 0.4880	 6.9560
 0.4890	 6.9700
 0.4900	 6.9850
 0.4910	 7.0000
 0.4920	 7.0110
 0.4930	 7.0260
 0.4940	 7.0380
 0.4950	 7.0500
 0.4960	 7.0710
 0.4970	 7.0890
 0.4980	 7.1090
 0.4990	 7.1370
 0.5000	 7.1610
 0.5010	 7.1870
 0.5020	 7.2170
 0.5030	 7.2500
 0.5040	 7.2860
 0.5050	 7.3250
 0.5060	 7.3710
 0.5070	 7.4190
 0.5080	 7.4720
 0.5090	 7.5300
 0.5100	 7.5910
 0.5110	 7.6560
 0.5120	 7.7280
 0.5130	 7.8090
 0.5140	 7.9030
 0.5150	 8.0000
 0.5160	 8.1010
 0.5170	 8.2100
 0.5180	 8.3300
 0.5190	 8.4580
 0.5200	 8.5890
 0.5210	 8.7240
 0.5220	 8.8650
 0.5230	 9.0080
 0.5240	 9.1520
 0.5250	 9.2950
 0.5260	 9.4300
 0.5270	 9.5620
 0.5280	 9.6940
 0.5290	 9.8130
 0.5300	 9.9260
 0.5310	10.0320
 0.5320	10.1260
 0.5330	10.2150
 0.5340	10.2960
 0.5350	10.3690
 0.5360	10.4340
 0.5370	10.4900
 0.5380	10.5380
 0.5390	10.5770
 0.5400	10.6060
 0.5410	10.6280
 0.5420	10.6460
 0.5430	10.6640
 0.5440	10.6890
 0.5450	10.7220
 0.5460	10.7590
 0.5470	10.8030
 0.5480	10.8440
 0.5490	10.8750
 0.5500	10.8980
 0.5510	10.9150
 0.5520	10.9260
 0.5530	10.9290
 0.5540	10.9230
 0.5550	10.9060
 0.5560	10.8780
 0.5570	10.8400
 0.5580	10.7950
 0.5590	10.7410
 0.5600	10.6780
 0.5610	10.6080
 0.5620	10.5300
 0.5630	10.4490
 0.5640	10.3700
 0.5650	10.2810
 0.5660	10.1900
 0.5670	10.0990
 0.5680	10.0070
 0.5690	 9.9120
 0.5700	 9.8150
 0.5710	 9.7180
 0.5720	 9.6240
 0.5730	 9.5330
 0.5740	 9.4450
 0.5750	 9.3600
 0.5760	 9.2780
 0.5770	 9.1990
 0.5780	 9.1260
 0.5790	 9.0600
 0.5800	 8.9960
 0.5810	 8.9380
 0.5820	 8.8890
 0.5830	 8.8380
 0.5840	 8.7920
 0.5850	 8.7550
 0.5860	 8.7280
 0.5870	 8.7020
 0.5880	 8.6810
 0.5890	 8.6620
 0.5900	 8.6380
 0.5910	 8.6100
 0.5920	 8.5850
 0.5930	 8.5640
 0.5940	 8.5510
 0.5950	 8.5430
 0.5960	 8.5350
 0.5970	 8.5270
 0.5980	 8.5140
 0.5990	 8.4950
 0.6000	 8.4710
 0.6010	 8.4530
 0.6020	 8.4320
 0.6030	 8.4060
 0.6040	 8.3790
 0.6050	 8.3520
 0.6060	 8.3230
 0.6070	 8.2880
 0.6080	 8.2530
 0.6090	 8.2070
 0.6100	 8.1490
 0.6110	 8.0860
 0.6120	 8.0500
 0.6130	 8.0260
 0.6140	 8.0020
 0.6150	 7.9740
 0.6160	 7.9450
 0.6170	 7.9160
 0.6180	 7.8870
 0.6190	 7.8580
 0.6200	 7.8310
 0.6210	 7.8100
 0.6220	 7.7930
 0.6230	 7.7800
 0.6240	 7.7690
 0.6250	 7.7570
 0.6260	 7.7520
 0.6270	 7.7450
 0.6280	 7.7380
 0.6290	 7.7350
 0.6300	 7.7320
 0.6310	 7.7270
 0.6320	 7.7210
 0.6330	 7.7180
 0.6340	 7.7110
 0.6350	 7.6980
 0.6360	 7.6790
 0.6370	 7.6580
 0.6380	 7.6350
 0.6390	 7.6070
 0.6400	 7.5740
 0.6410	 7.5430
 0.6420	 7.5110
 0.6430	 7.4780
 0.6440	 7.4450
 0.6450	 7.4120
 0.6460	 7.3810
 0.6470	 7.3540
 0.6480	 7.3290
 0.6490	 7.3070
 0.6500	 7.2870
 0.6510	 7.2710
 0.6520	 7.2610
 0.6530	 7.2510
 0.6540	 7.2390
 0.6550	 7.2280
 0.6560	 7.2150
 0.6570	 7.2000
 0.6580	 7.1820
 0.6590	 7.1640
 0.6600	 7.1460
 0.6610	 7.1290
 0.6620	 7.1100
 0.6630	 7.0940
 0.6640	 7.0810
 0.6650	 7.0700
 0.6660	 7.0610
 0.6670	 7.0550
 0.6680	 7.0520
 0.6690	 7.0520
 0.6700	 7.0570
 0.6710	 7.0660
 0.6720	 7.0760
 0.6730	 7.0850
 0.6740	 7.1020
 0.6750	 7.1240
 0.6760	 7.1460
 0.6770	 7.1700
 0.6780	 7.1940
 0.6790	 7.2220
 0.6800	 7.2570
 0.6810	 7.2940
 0.6820	 7.3320
 0.6830	 7.3730
 0.6840	 7.4220
 0.6850	 7.4710
 0.6860	 7.5210
 0.6870	 7.5780
 0.6880	 7.6480
 0.6890	 7.7320
 0.6900	 7.8340
 0.6910	 7.9630
 0.6920	 8.1240
 0.6930	 8.3240
 0.6940	 8.5680
 0.6950	 8.8640
 0.6960	 9.2150
 0.6970	 9.6230
 0.6980	10.0910
 0.6990	10.6170
 0.7000	11.1960
 0.7010	11.8220
 0.7020	12.4900
 0.7030	13.1950
 0.7040	13.9310
 0.7050	14.6920
 0.7060	15.4740
 0.7070	16.2710
 0.7080	17.0820
 0.7090	17.9080
 0.7100	18.7450
 0.7110	19.5940
 0.7120	20.4550
 0.7130	21.3190
 0.7140	22.1930
 0.7150	23.0750
 0.7160	23.9600
 0.7170	24.8480
 0.7180	25.7340
 0.7190	26.6200
 0.7200	27.5050
 0.7210	28.3810
 0.7220	29.2470
 0.7230	30.1020
 0.7240	30.9440
 0.7250	31.7670
 0.7260	32.5710
 0.7270	33.3540
 0.7280	34.1150
 0.7290	34.8480
 0.7300	35.5540
 0.7310	36.2330
 0.7320	36.8860
 0.7330	37.5130
 0.7340	38.1110
 0.7350	38.6780
 0.7360	39.2170
 0.7370	39.7300
 0.7380	40.2160
 0.7390	40.6740
 0.7400	41.1010
 0.7410	41.5000
 0.7420	41.8770
 0.7430	42.2280
 0.7440	42.5550
 0.7450	42.8580
 0.7460	43.1400
 0.7470	43.4000
 0.7480	43.6390
 0.7490	43.8580
 0.7500	44.0590
 0.7510	44.2430
 0.7520	44.4100
 0.7530	44.5630
 0.7540	44.7080
 0.7550	44.8370
 0.7560	44.9510
 0.7570	45.0580
 0.7580	45.1550
 0.7590	45.2420
 0.7600	45.3200
 0.7610	45.3960
 0.7620	45.4610
 0.7630	45.5200
 0.7640	45.5760
 0.7650	45.6220
 0.7660	45.6650
 0.7670	45.7070
 0.7680	45.7470
 0.7690	45.7790
 0.7700	45.8080
 0.7710	45.8350
 0.7720	45.8590
 0.7730	45.8820
 0.7740	45.9050
 0.7750	45.9250
 0.7760	45.9440
 0.7770	45.9630
 0.7780	45.9820
 0.7790	46.0000
 0.7800	46.0170
 0.7810	46.0300
 0.7820	46.0430
 0.7830	46.0580
 0.7840	46.0750
 0.7850	46.0890
 0.7860	46.0990
 0.7870	46.1110
 0.7880	46.1220
 0.7890	46.1310
 0.7900	46.1390
 0.7910	46.1520
 0.7920	46.1620
 0.7930	46.1680
 0.7940	46.1750
 0.7950	46.1830
 0.7960	46.1900
 0.7970	46.1950
 0.7980	46.2030
 0.7990	46.2100
 0.8000	46.2140
 0.8010	46.2140
 0.8020	46.2180
 0.8030	46.2240
 0.8040	46.2280
 0.8050	46.2300
 0.8060	46.2340
 0.8070	46.2390
 0.8080	46.2430
 0.8090	46.2420
 0.8100	46.2440
 0.8110	46.2430
 0.8120	46.2390
 0.8130	46.2430
 0.8140	46.2480
 0.8150	46.2490
 0.8160	46.2490
 0.8170	46.2490
 0.8180	46.2520
 0.8190	46.2560
 0.8200	46.2550
 0.8210	46.2540
 0.8220	46.2550
 0.8230	46.2570
 0.8240	46.2570
 0.8250	46.2590
 0.8260	46.2630
 0.8270	46.2670
 0.8280	46.2660
 0.8290	46.2630
 0.8300	46.2620
 0.8310	46.2630
 0.8320	46.2660
 0.8330	46.2700
 0.8340	46.2740
 0.8350	46.2740
 0.8360	46.2740
 0.8370	46.2780
 0.8380	46.2840
 0.8390	46.2920
 0.8400	46.2990
 0.8410	46.3020
 0.8420	46.3020
 0.8430	46.3090
 0.8440	46.3180
 0.8450	46.3260
 0.8460	46.3300
 0.8470	46.3380
 0.8480	46.3450
 0.8490	46.3510
 0.8500	46.3590
 0.8510	46.3650
 0.8520	46.3710
 0.8530	46.3790
 0.8540	46.3910
 0.8550	46.3960
 0.8560	46.4010
 0.8570	46.4090
 0.8580	46.4150
 0.8590	46.4200
 0.8600	46.4280
 0.8610	46.4380
 0.8620	46.4480
 0.8630	46.4540
 0.8640	46.4640
 0.8650	46.4790
 0.8660	46.4840
 0.8670	46.4930
 0.8680	46.5020
 0.8690	46.5070
 0.8700	46.5140
 0.8710	46.5190
 0.8720	46.5260
 0.8730	46.5370
 0.8740	46.5490
 0.8750	46.5560
 0.8760	46.5590
 0.8770	46.5670
 0.8780	46.5760
 0.8790	46.5850
 0.8800	46.5920
 0.8810	46.6020
 0.8820	46.6110
 0.8830	46.6180
 0.8840	46.6240
 0.8850	46.6310
 0.8860	46.6360
 0.8870	46.6390
 0.8880	46.6410
 0.8890	46.6490
 0.8900	46.6560
 0.8910	46.6620
 0.8920	46.6670
 0.8930	46.6710
 0.8940	46.6780
 0.8950	46.6850
 0.8960	46.6910
 0.8970	46.6950
 0.8980	46.7010
 0.8990	46.7080
 0.9000	46.7140
 0.9010	46.7210
 0.9020	46.7250
 0.9030	46.7260
 0.9040	46.7240
 0.9050	46.7270
 0.9060	46.7300
 0.9070	46.7320
 0.9080	46.7370
 0.9090	46.7430
 0.9100	46.7470
 0.9110	46.7490
 0.9120	46.7500
 0.9130	46.7530
 0.9140	46.7550
 0.9150	46.7540
 0.9160	46.7620
 0.9170	46.7640
 0.9180	46.7590
 0.9190	46.7540
 0.9200	46.7500
 0.9210	46.7560
 0.9220	46.7610
 0.9230	46.7530
 0.9240	46.7470
 0.9250	46.7430
 0.9260	46.7380
 0.9270	46.7310
 0.9280	46.7160
 0.9290	46.7070
 0.9300	46.7030
 0.9310	46.6910
 0.9320	46.6820
 0.9330	46.6730
 0.9340	46.6610
 0.9350	46.6450
 0.9360	46.6310
 0.9370	46.6210
 0.9380	46.6110
 0.9390	46.5960
 0.9400	46.5760
 0.9410	46.5560
 0.9420	46.5390
 0.9430	46.5220
 0.9440	46.5040
 0.9450	46.4830
 0.9460	46.4560
 0.9470	46.4280
 0.9480	46.4020
 0.9490	46.3720
 0.9500	46.3320
 0.9510	46.2920
 0.9520	46.2540
 0.9530	46.2190
 0.9540	46.1820
 0.9550	46.1440
 0.9560	46.1040
 0.9570	46.0570
 0.9580	46.0050
 0.9590	45.9800
 0.9600	45.9490
 0.9610	45.9110
 0.9620	45.8800
 0.9630	45.8620
 0.9640	45.8470
 0.9650	45.8260
 0.9660	45.7960
 0.9670	45.7810
 0.9680	45.7720
 0.9690	45.7630
 0.9700	45.7500
 0.9710	45.7210
 0.9720	45.7060
 0.9730	45.7060
 0.9740	45.7060
 0.9750	45.6940
 0.9760	45.6820
 0.9770	45.6770
 0.9780	45.6810
 0.9790	45.6850
 0.9800	45.6780
 0.9810	45.6730
 0.9820	45.6840
 0.9830	45.6820
 0.9840	45.6770
 0.9850	45.6780
 0.9860	45.6920
 0.9870	45.6960
 0.9880	45.7050
 0.9890	45.7100
 0.9900	45.7020
 0.9910	45.7240
 0.9920	45.7380
 0.9930	45.7390
 0.9940	45.7370
 0.9950	45.7480
 0.9960	45.7670
 0.9970	45.7870
 0.9980	45.8060
 0.9990	45.8130
 1.0000	45.8210
 1.0010	44.6430
 1.0020	44.6580
 1.0030	44.6750
 1.0040	44.6930
 1.0050	44.7090
 1.0060	44.7270
 1.0070	44.7450
 1.0080	44.7610
 1.0090	44.7750
 1.0100	44.7910
 1.0110	44.8090
 1.0120	44.8240
 1.0130	44.8390
 1.0140	44.8560
 1.0150	44.8740
 1.0160	44.8900
 1.0170	44.9090
 1.0180	44.9270
 1.0190	44.9400
 1.0200	44.9540
 1.0210	44.9670
 1.0220	44.9820
 1.0230	44.9950
 1.0240	45.0110
 1.0250	45.0230
 1.0260	45.0330
 1.0270	45.0450
 1.0280	45.0580
 1.0290	45.0680
 1.0300	45.0760
 1.0310	45.0850
 1.0320	45.0950
 1.0330	45.1010
 1.0340	45.1090
 1.0350	45.1210
 1.0360	45.1270
 1.0370	45.1350
 1.0380	45.1410
 1.0390	45.1460
 1.0400	45.1520
 1.0410	45.1560
 1.0420	45.1620
 1.0430	45.1700
 1.0440	45.1770
 1.0450	45.1870
 1.0460	45.1930
 1.0470	45.1980
 1.0480	45.2030
 1.0490	45.2070
 1.0500	45.2130
 1.0510	45.2190
 1.0520	45.2290
 1.0530	45.2330
 1.0540	45.2320
 1.0550	45.2400
 1.0560	45.2470
 1.0570	45.2560
 1.0580	45.2710
 1.0590	45.2810
 1.0600	45.2880
 1.0610	45.2950
 1.0620	45.3010
 1.0630	45.3090
 1.0640	45.3150
 1.0650	45.3230
 1.0660	45.3340
 1.0670	45.3440
 1.0680	45.3530
 1.0690	45.3620
 1.0700	45.3720
 1.0710	45.3830
 1.0720	45.3910
 1.0730	45.3970
 1.0740	45.4060
 1.0750	45.4130
 1.0760	45.4220
 1.0770	45.4370
 1.0780	45.4470
 1.0790	45.4540
 1.0800	45.4620
 1.0810	45.4710
 1.0820	45.4790
 1.0830	45.4900
 1.0840	45.4970
 1.0850	45.5010
 1.0860	45.5060
 1.0870	45.5120
 1.0880	45.5170
 1.0890	45.5240
 1.0900	45.5330
 1.0910	45.5390
 1.0920	45.5450
 1.0930	45.5470
 1.0940	45.5460
 1.0950	45.5470
 1.0960	45.5480
 1.0970	45.5490
 1.0980	45.5520
 1.0990	45.5510
 1.1000	45.5460
 1.1010	45.5420
 1.1020	45.5370
 1.1030	45.5290
 1.1040	45.5220
 1.1050	45.5170
 1.1060	45.5110
 1.1070	45.5070
 1.1080	45.4980
 1.1090	45.4880
 1.1100	45.4780
 1.1110	45.4660
 1.1120	45.4550
 1.1130	45.4450
 1.1140	45.4330
 1.1150	45.4220
 1.1160	45.4060
 1.1170	45.3870
 1.1180	45.3680
 1.1190	45.3480
 1.1200	45.3240
 1.1210	45.3010
 1.1220	45.2760
 1.1230	45.2470
 1.1240	45.2160
 1.1250	45.1830
 1.1260	45.1470
 1.1270	45.1070
 1.1280	45.0640
 1.1290	45.0170
 1.1300	44.9680
 1.1310	44.9130
 1.1320	44.8520
 1.1330	44.7870
 1.1340	44.7150
 1.1350	44.6390
 1.1360	44.5590
 1.1370	44.4750
 1.1380	44.3870
 1.1390	44.2940
 1.1400	44.1980
 1.1410	44.1000
 1.1420	43.9990
 1.1430	43.8970
 1.1440	43.7950
 1.1450	43.6900
 1.1460	43.5880
 1.1470	43.4840
 1.1480	43.3840
 1.1490	43.2850
 1.1500	43.1910
 1.1510	43.0990
 1.1520	43.0130
 1.1530	42.9320
 1.1540	42.8550
 1.1550	42.7830
 1.1560	42.7160
 1.1570	42.6530
 1.1580	42.5940
 1.1590	42.5420
 1.1600	42.4960
 1.1610	42.4550
 1.1620	42.4190
 1.1630	42.3850
 1.1640	42.3540
 1.1650	42.3250
 1.1660	42.2980
 1.1670	42.2740
 1.1680	42.2520
 1.1690	42.2330
 1.1700	42.2180
 1.1710	42.2010
 1.1720	42.1860
 1.1730	42.1700
 1.1740	42.1540
 1.1750	42.1370
 1.1760	42.1230
 1.1770	42.1100
 1.1780	42.0930
 1.1790	42.0750
 1.1800	42.0580
 1.1810	42.0400
 1.1820	42.0230
 1.1830	42.0060
 1.1840	41.9870
 1.1850	41.9670
 1.1860	41.9490
 1.1870	41.9320
 1.1880	41.9180
 1.1890	41.9060
 1.1900	41.8940
 1.1910	41.8830
 1.1920	41.8730
 1.1930	41.8620
 1.1940	41.8530
 1.1950	41.8440
 1.1960	41.8370
 1.1970	41.8320
 1.1980	41.8270
 1.1990	41.8230
 1.2000	41.8210
 1.2010	41.8200
 1.2020	41.8220
 1.2030	41.8250
 1.2040	41.8280
 1.2050	41.8330
 1.2060	41.8390
 1.2070	41.8440
 1.2080	41.8510
 1.2090	41.8590
 1.2100	41.8690
 1.2110	41.8820
 1.2120	41.8990
 1.2130	41.9180
 1.2140	41.9400
 1.2150	41.9610
 1.2160	41.9840
 1.2170	42.0080
 1.2180	42.0340
 1.2190	42.0620
 1.2200	42.0930
 1.2210	42.1260
 1.2220	42.1590
 1.2230	42.1930
 1.2240	42.2250
 1.2250	42.2550
 1.2260	42.2880
 1.2270	42.3190
 1.2280	42.3490
 1.2290	42.3790
 1.2300	42.4050
 1.2310	42.4310
 1.2320	42.4570
 1.2330	42.4830
 1.2340	42.5070
 1.2350	42.5320
 1.2360	42.5550
 1.2370	42.5770
 1.2380	42.5980
 1.2390	42.6170
 1.2400	42.6350
 1.2410	42.6530
 1.2420	42.6690
 1.2430	42.6840
 1.2440	42.7010
 1.2450	42.7150
 1.2460	42.7300
 1.2470	42.7450
 1.2480	42.7580
 1.2490	42.7690
 1.2500	42.7820
 1.2510	42.7940
 1.2520	42.8060
 1.2530	42.8190
 1.2540	42.8310
 1.2550	42.8410
 1.2560	42.8500
 1.2570	42.8590
 1.2580	42.8670
 1.2590	42.8740
 1.2600	42.8780
 1.2610	42.8830
 1.2620	42.8860
 1.2630	42.8900
 1.2640	42.8940
 1.2650	42.8960
 1.2660	42.8950
 1.2670	42.8930
 1.2680	42.8870
 1.2690	42.8800
 1.2700	42.8740
 1.2710	42.8680
 1.2720	42.8610
 1.2730	42.8520
 1.2740	42.8420
 1.2750	42.8300
 1.2760	42.8180
 1.2770	42.8070
 1.2780	42.7930
 1.2790	42.7790
 1.2800	42.7640
 1.2810	42.7470
 1.2820	42.7310
 1.2830	42.7140
 1.2840	42.6970
 1.2850	42.6800
 1.2860	42.6630
 1.2870	42.6450
 1.2880	42.6280
 1.2890	42.6100
 1.2900	42.5900
 1.2910	42.5720
 1.2920	42.5560
 1.2930	42.5380
 1.2940	42.5200
 1.2950	42.5000
 1.2960	42.4790
 1.2970	42.4570
 1.2980	42.4360
 1.2990	42.4150
 1.3000	42.3930
 1.3010	42.3690
 1.3020	42.3440
 1.3030	42.3160
 1.3040	42.2850
 1.3050	42.2520
 1.3060	42.2180
 1.3070	42.1820
 1.3080	42.1420
 1.3090	42.1000
 1.3100	42.0540
 1.3110	42.0060
 1.3120	41.9530
 1.3130	41.8970
 1.3140	41.8390
 1.3150	41.7770
 1.3160	41.7120
 1.3170	41.6450
 1.3180	41.5760
 1.3190	41.5020
 1.3200	41.4250
 1.3210	41.3450
 1.3220	41.2620
 1.3230	41.1750
 1.3240	41.0840
 1.3250	40.9890
 1.3260	40.8920
 1.3270	40.7920
 1.3280	40.6890
 1.3290	40.5820
 1.3300	40.4720
 1.3310	40.3600
 1.3320	40.2450
 1.3330	40.1290
 1.3340	40.0130
 1.3350	39.8930
 1.3360	39.7720
 1.3370	39.6500
 1.3380	39.5260
 1.3390	39.4030
 1.3400	39.2800
 1.3410	39.1580
 1.3420	39.0360
 1.3430	38.9140
 1.3440	38.7930
 1.3450	38.6730
 1.3460	38.5540
 1.3470	38.4350
 1.3480	38.3170
 1.3490	38.2010
 1.3500	38.0870
 1.3510	37.9720
 1.3520	37.8580
 1.3530	37.7460
 1.3540	37.6320
 1.3550	37.5200
 1.3560	37.4080
 1.3570	37.2940
 1.3580	37.1810
 1.3590	37.0640
 1.3600	36.9440
 1.3610	36.8240
 1.3620	36.7010
 1.3630	36.5730
 1.3640	36.4410
 1.3650	36.3030
 1.3660	36.1610
 1.3670	36.0120
 1.3680	35.8570
 1.3690	35.6940
 1.3700	35.5170
 1.3710	35.3320
 1.3720	35.1360
 1.3730	34.9270
 1.3740	34.7060
 1.3750	34.4700
 1.3760	34.2150
 1.3770	33.9430
 1.3780	33.6480
 1.3790	33.3340
 1.3800	33.0000
 1.3810	32.6410
 1.3820	32.2640
 1.3830	31.8690
 1.3840	31.4530
 1.3850	31.0180
 1.3860	30.5680
 1.3870	30.0940
 1.3880	29.6140
 1.3890	29.1200
 1.3900	28.6130
 1.3910	28.1030
 1.3920	27.5860
 1.3930	27.0610
 1.3940	26.5360
 1.3950	26.0070
 1.3960	25.4820
 1.3970	24.9640
 1.3980	24.4520
 1.3990	23.9570
 1.4000	23.4710
 1.4010	22.9940
 1.4020	22.5360
 1.4030	22.0900
 1.4040	21.6610
 1.4050	21.2540
 1.4060	20.8620
 1.4070	20.4930
 1.4080	20.1420
 1.4090	19.8080
 1.4100	19.4950
 1.4110	19.1990
 1.4120	18.9220
 1.4130	18.6630
 1.4140	18.4210
 1.4150	18.1980
 1.4160	17.9920
 1.4170	17.7990
 1.4180	17.6220
 1.4190	17.4560
 1.4200	17.3030
 1.4210	17.1620
 1.4220	17.0330
 1.4230	16.9150
 1.4240	16.8050
 1.4250	16.7030
 1.4260	16.6110
 1.4270	16.5260
 1.4280	16.4490
 1.4290	16.3780
 1.4300	16.3170
 1.4310	16.2600
 1.4320	16.2090
 1.4330	16.1630
 1.4340	16.1220
 1.4350	16.0860
 1.4360	16.0560
 1.4370	16.0300
 1.4380	16.0070
 1.4390	15.9880
 1.4400	15.9740
 1.4410	15.9620
 1.4420	15.9530
 1.4430	15.9470
 1.4440	15.9440
 1.4450	15.9440
 1.4460	15.9450
 1.4470	15.9480
 1.4480	15.9520
 1.4490	15.9570
 1.4500	15.9640
 1.4510	15.9730
 1.4520	15.9840
 1.4530	15.9960
 1.4540	16.0090
 1.4550	16.0250
 1.4560	16.0420
 1.4570	16.0620
 1.4580	16.0860
 1.4590	16.1120
 1.4600	16.1410
 1.4610	16.1740
 1.4620	16.2100
 1.4630	16.2490
 1.4640	16.2920
 1.4650	16.3400
 1.4660	16.3920
 1.4670	16.4490
 1.4680	16.5100
 1.4690	16.5760
 1.4700	16.6450
 1.4710	16.7190
 1.4720	16.7960
 1.4730	16.8760
 1.4740	16.9600
 1.4750	17.0460
 1.4760	17.1360
 1.4770	17.2290
 1.4780	17.3240
 1.4790	17.4220
 1.4800	17.5200
 1.4810	17.6190
 1.4820	17.7210
 1.4830	17.8230
 1.4840	17.9280
 1.4850	18.0330
 1.4860	18.1380
 1.4870	18.2430
 1.4880	18.3490
 1.4890	18.4560
 1.4900	18.5640
 1.4910	18.6720
 1.4920	18.7820
 1.4930	18.8940
 1.4940	19.0050
 1.4950	19.1160
 1.4960	19.2280
 1.4970	19.3380
 1.4980	19.4490
 1.4990	19.5610
 1.5000	19.6740
 1.5010	19.7860
 1.5020	19.8980
 1.5030	20.0100
 1.5040	20.1210
 1.5050	20.2300
 1.5060	20.3400
 1.5070	20.4490
 1.5080	20.5580
 1.5090	20.6680
 1.5100	20.7780
 1.5110	20.8870
 1.5120	20.9960
 1.5130	21.1030
 1.5140	21.2110
 1.5150	21.3190
 1.5160	21.4250
 1.5170	21.5310
 1.5180	21.6350
 1.5190	21.7400
 1.5200	21.8450
 1.5210	21.9480
 1.5220	22.0500
 1.5230	22.1530
 1.5240	22.2530
 1.5250	22.3540
 1.5260	22.4540
 1.5270	22.5520
 1.5280	22.6500
 1.5290	22.7470
 1.5300	22.8440
 1.5310	22.9400
 1.5320	23.0340
 1.5330	23.1290
 1.5340	23.2220
 1.5350	23.3140
 1.5360	23.4040
 1.5370	23.4930
 1.5380	23.5820
 1.5390	23.6710
 1.5400	23.7590
 1.5410	23.8470
 1.5420	23.9330
 1.5430	24.0180
 1.5440	24.1040
 1.5450	24.1870
 1.5460	24.2700
 1.5470	24.3550
 1.5480	24.4360
 1.5490	24.5180
 1.5500	24.6000
 1.5510	24.6790
 1.5520	24.7580
 1.5530	24.8360
 1.5540	24.9130
 1.5550	24.9890
 1.5560	25.0640
 1.5570	25.1380
 1.5580	25.2100
 1.5590	25.2820
 1.5600	25.3520
 1.5610	25.4200
 1.5620	25.4880
 1.5630	25.5570
 1.5640	25.6240
 1.5650	25.6930
 1.5660	25.7600
 1.5670	25.8260
 1.5680	25.8920
 1.5690	25.9570
 1.5700	26.0210
 1.5710	26.0860
 1.5720	26.1490
 1.5730	26.2120
 1.5740	26.2740
 1.5750	26.3370
 1.5760	26.3990
 1.5770	26.4590
 1.5780	26.5200
 1.5790	26.5810
 1.5800	26.6390
 1.5810	26.6990
 1.5820	26.7590
 1.5830	26.8170
 1.5840	26.8770
 1.5850	26.9360
 1.5860	26.9930
 1.5870	27.0500
 1.5880	27.1080
 1.5890	27.1640
 1.5900	27.2220
 1.5910	27.2790
 1.5920	27.3360
 1.5930	27.3920
 1.5940	27.4490
 1.5950	27.5060
 1.5960	27.5620
 1.5970	27.6180
 1.5980	27.6750
 1.5990	27.7290
 1.6000	27.7820
 1.6010	27.8350
 1.6020	27.8870
 1.6030	27.9400
 1.6040	27.9910
 1.6050	28.0430
 1.6060	28.0950
 1.6070	28.1440
 1.6080	28.1930
 1.6090	28.2430
 1.6100	28.2900
 1.6110	28.3370
 1.6120	28.3830
 1.6130	28.4290
 1.6140	28.4730
 1.6150	28.5160
 1.6160	28.5580
 1.6170	28.5980
 1.6180	28.6380
 1.6190	28.6780
 1.6200	28.7170
 1.6210	28.7560
 1.6220	28.7930
 1.6230	28.8300
 1.6240	28.8670
 1.6250	28.9010
 1.6260	28.9340
 1.6270	28.9680
 1.6280	29.0020
 1.6290	29.0350
 1.6300	29.0680
 1.6310	29.0970
 1.6320	29.1240
 1.6330	29.1490
 1.6340	29.1710
 1.6350	29.1940
 1.6360	29.2150
 1.6370	29.2350
 1.6380	29.2550
 1.6390	29.2710
 1.6400	29.2850
 1.6410	29.2970
 1.6420	29.3080
 1.6430	29.3170
 1.6440	29.3230
 1.6450	29.3280
 1.6460	29.3290
 1.6470	29.3280
 1.6480	29.3260
 1.6490	29.3220
 1.6500	29.3170
 1.6510	29.3110
 1.6520	29.3060
 1.6530	29.2980
 1.6540	29.2890
 1.6550	29.2790
 1.6560	29.2680
 1.6570	29.2550
 1.6580	29.2440
 1.6590	29.2320
 1.6600	29.2210
 1.6610	29.2130
 1.6620	29.2060
 1.6630	29.1990
 1.6640	29.1930
 1.6650	29.1870
 1.6660	29.1800
 1.6670	29.1730
 1.6680	29.1650
 1.6690	29.1570
 1.6700	29.1480
 1.6710	29.1390
 1.6720	29.1280
 1.6730	29.1140
 1.6740	29.0990
 1.6750	29.0790
 1.6760	29.0580
 1.6770	29.0340
 1.6780	29.0080
 1.6790	28.9820
 1.6800	28.9520
 1.6810	28.9190
 1.6820	28.8820
 1.6830	28.8420
 1.6840	28.8020
 1.6850	28.7600
 1.6860	28.7160
 1.6870	28.6700
 1.6880	28.6210
 1.6890	28.5740
 1.6900	28.5260
 1.6910	28.4770
 1.6920	28.4290
 1.6930	28.3810
 1.6940	28.3330
 1.6950	28.2890
 1.6960	28.2400
 1.6970	28.1870
 1.6980	28.1350
 1.6990	28.0810
 1.7000	28.0290
 1.7010	27.9810
 1.7020	27.9290
 1.7030	27.8750
 1.7040	27.8210
 1.7050	27.7630
 1.7060	27.7070
 1.7070	27.6500
 1.7080	27.5920
 1.7090	27.5340
 1.7100	27.4750
 1.7110	27.4150
 1.7120	27.3560
 1.7130	27.2970
 1.7140	27.2390
 1.7150	27.1820
 1.7160	27.1240
 1.7170	27.0670
 1.7180	27.0100
 1.7190	26.9550
 1.7200	26.9030
 1.7210	26.8510
 1.7220	26.7990
 1.7230	26.7490
 1.7240	26.6970
 1.7250	26.6510
 1.7260	26.6080
 1.7270	26.5680
 1.7280	26.5350
 1.7290	26.5040
 1.7300	26.4780
 1.7310	26.4570
 1.7320	26.4410
 1.7330	26.4280
 1.7340	26.4230
 1.7350	26.4160
 1.7360	26.4130
 1.7370	26.4060
 1.7380	26.3990
 1.7390	26.3870
 1.7400	26.3720
 1.7410	26.3530
 1.7420	26.3320
 1.7430	26.3050
 1.7440	26.2730
 1.7450	26.2390
 1.7460	26.1980
 1.7470	26.1580
 1.7480	26.1170
 1.7490	26.0740
 1.7500	26.0310
 1.7510	25.9850
 1.7520	25.9390
 1.7530	25.8910
 1.7540	25.8410
 1.7550	25.7910
 1.7560	25.7400
 1.7570	25.6890
 1.7580	25.6400
 1.7590	25.5930
 1.7600	25.5470
 1.7610	25.5010
 1.7620	25.4590
 1.7630	25.4200
 1.7640	25.3840
 1.7650	25.3540
 1.7660	25.3240
 1.7670	25.2960
 1.7680	25.2700
 1.7690	25.2460
 1.7700	25.2230
 1.7710	25.2020
 1.7720	25.1830
 1.7730	25.1640
 1.7740	25.1470
 1.7750	25.1330
 1.7760	25.1180
 1.7770	25.1020
 1.7780	25.0870
 1.7790	25.0710
 1.7800	25.0560
 1.7810	25.0410
 1.7820	25.0270
 1.7830	25.0150
 1.7840	25.0040
 1.7850	24.9940
 1.7860	24.9860
 1.7870	24.9780
 1.7880	24.9720
 1.7890	24.9690
 1.7900	24.9660
 1.7910	24.9640
 1.7920	24.9650
 1.7930	24.9660
 1.7940	24.9650
 1.7950	24.9670
 1.7960	24.9710
 1.7970	24.9750
 1.7980	24.9820
 1.7990	24.9880
 1.8000	24.9930
 1.8010	25.0000
 1.8020	25.0080
 1.8030	25.0160
 1.8040	25.0250
 1.8050	25.0330
 1.8060	25.0410
 1.8070	25.0480
 1.8080	25.0550
 1.8090	25.0640
 1.8100	25.0750
 1.8110	25.0840
 1.8120	25.0940
 1.8130	25.1000
 1.8140	25.1060
 1.8150	25.1100
 1.8160	25.1160
 1.8170	25.1210
 1.8180	25.1250
 1.8190	25.1320
 1.8200	25.1360
 1.8210	25.1390
 1.8220	25.1400
 1.8230	25.1410
 1.8240	25.1390
 1.8250	25.1340
 1.8260	25.1310
 1.8270	25.1280
 1.8280	25.1230
 1.8290	25.1190
 1.8300	25.1110
 1.8310	24.8060
 1.8320	24.7930
 1.8330	24.7750
 1.8340	24.7610
 1.8350	24.7430
 1.8360	24.7160
 1.8370	24.6910
 1.8380	24.6620
 1.8390	24.6290
 1.8400	24.5930
 1.8410	24.5510
 1.8420	24.5040
 1.8430	24.4490
 1.8440	24.3880
 1.8450	24.3240
 1.8460	24.2500
 1.8470	24.1700
 1.8480	24.0830
 1.8490	23.9860
 1.8500	23.8820
 1.8510	23.7700
 1.8520	23.6520
 1.8530	23.5210
 1.8540	23.3810
 1.8550	23.2320
 1.8560	23.0670
 1.8570	22.8920
 1.8580	22.7020
 1.8590	22.5020
 1.8600	22.2900
 1.8610	22.0680
 1.8620	21.8290
 1.8630	21.5800
 1.8640	21.3180
 1.8650	21.0350
 1.8660	20.7400
 1.8670	20.4290
 1.8680	20.1000
 1.8690	19.7530
 1.8700	19.3900
 1.8710	19.0110
 1.8720	18.6200
 1.8730	18.2150
 1.8740	17.7990
 1.8750	17.3780
 1.8760	16.9460
 1.8770	16.5070
 1.8780	16.0690
 1.8790	15.6280
 1.8800	15.1890
 1.8810	14.7490
 1.8820	14.3110
 1.8830	13.8720
 1.8840	13.4360
 1.8850	13.0030
 1.8860	12.5790
 1.8870	12.1680
 1.8880	11.7660
 1.8890	11.3830
 1.8900	11.0160
 1.8910	10.6680
 1.8920	10.3340
 1.8930	10.0220
 1.8940	 9.7270
 1.8950	 9.4490
 1.8960	 9.1910
 1.8970	 8.9520
 1.8980	 8.7320
 1.8990	 8.5330
 1.9000	 8.3480
 1.9010	 8.1800
 1.9020	 8.0260
 1.9030	 7.8900
 1.9040	 7.7650
 1.9050	 7.6530
 1.9060	 7.5550
 1.9070	 7.4680
 1.9080	 7.3900
 1.9090	 7.3180
 1.9100	 7.2560
 1.9110	 7.1980
 1.9120	 7.1450
 1.9130	 7.1000
 1.9140	 7.0620
 1.9150	 7.0300
 1.9160	 7.0030
 1.9170	 6.9820
 1.9180	 6.9620
 1.9190	 6.9390
 1.9200	 6.9200
 1.9210	 6.9050
 1.9220	 6.8940
 1.9230	 6.8880
 1.9240	 6.8830
 1.9250	 6.8800
 1.9260	 6.8770
 1.9270	 6.8760
 1.9280	 6.8790
 1.9290	 6.8840
 1.9300	 6.8880
 1.9310	 6.8950
 1.9320	 6.9030
 1.9330	 6.9110
 1.9340	 6.9200
 1.9350	 6.9310
 1.9360	 6.9420
 1.9370	 6.9550
 1.9380	 6.9710
 1.9390	 6.9890
 1.9400	 7.0090
 1.9410	 7.0280
 1.9420	 7.0470
 1.9430	 7.0680
 1.9440	 7.0890
 1.9450	 7.1110
 1.9460	 7.1340
 1.9470	 7.1600
 1.9480	 7.1850
 1.9490	 7.2100
 1.9500	 7.2370
 1.9510	 7.2640
 1.9520	 7.2900
 1.9530	 7.3180
 1.9540	 7.3450
 1.9550	 7.3760
 1.9560	 7.4090
 1.9570	 7.4430
 1.9580	 7.4810
 1.9590	 7.5160
 1.9600	 7.5480
 1.9610	 7.5830
 1.9620	 7.6180
 1.9630	 7.6530
 1.9640	 7.6910
 1.9650	 7.7330
 1.9660	 7.7730
 1.9670	 7.8160
 1.9680	 7.8580
 1.9690	 7.8990
 1.9700	 7.9410
 1.9710	 7.9810
 1.9720	 8.0250
 1.9730	 8.0700
 1.9740	 8.1170
 1.9750	 8.1670
 1.9760	 8.2170
 1.9770	 8.2650
 1.9780	 8.3160
 1.9790	 8.3650
 1.9800	 8.4120
 1.9810	 8.4600
 1.9820	 8.5090
 1.9830	 8.5580
 1.9840	 8.6080
 1.9850	 8.6590
 1.9860	 8.7120
 1.9870	 8.7630
 1.9880	 8.8150
 1.9890	 8.8700
 1.9900	 8.9250
 1.9910	 8.9800
 1.9920	 9.0340
 1.9930	 9.0860
 1.9940	 9.1390
 1.9950	 9.1890
 1.9960	 9.2430
 1.9970	 9.2990
 1.9980	 9.3540
 1.9990	 9.4090
 2.0000	 9.4660
 2.0010	 9.5220
 2.0020	 9.5770
 2.0030	 9.6320
 2.0040	 9.6860
 2.0050	 9.7410
 2.0060	 9.7940
 2.0070	 9.8490
 2.0080	 9.9070
 2.0090	 9.9630
 2.0100	10.0200
 2.0110	10.0760
 2.0120	10.1310
 2.0130	10.1870
 2.0140	10.2430
 2.0150	10.2960
 2.0160	10.3470
 2.0170	10.3960
 2.0180	10.4460
 2.0190	10.4930
 2.0200	10.5430
 2.0210	10.5970
 2.0220	10.6480
 2.0230	10.7000
 2.0240	10.7500
 2.0250	10.7960
 2.0260	10.8430
 2.0270	10.8870
 2.0280	10.9330
 2.0290	10.9730
 2.0300	11.0150
 2.0310	11.0560
 2.0320	11.0950
 2.0330	11.1340
 2.0340	11.1760
 2.0350	11.2150
 2.0360	11.2540
 2.0370	11.2910
 2.0380	11.3260
 2.0390	11.3610
 2.0400	11.3940
 2.0410	11.4270
 2.0420	11.4600
 2.0430	11.4910
 2.0440	11.5200
 2.0450	11.5470
 2.0460	11.5740
 2.0470	11.5990
 2.0480	11.6270
 2.0490	11.6570
 2.0500	11.6870
 2.0510	11.7180
 2.0520	11.7470
 2.0530	11.7750
 2.0540	11.8040
 2.0550	11.8350
 2.0560	11.8660
 2.0570	11.8950
 2.0580	11.9250
 2.0590	11.9540
 2.0600	11.9820
 2.0610	12.0110
 2.0620	12.0420
 2.0630	12.0730
 2.0640	12.1040
 2.0650	12.1360
 2.0660	12.1670
 2.0670	12.1980
 2.0680	12.2270
 2.0690	12.2580
 2.0700	12.2920
 2.0710	12.3250
 2.0720	12.3580
 2.0730	12.3930
 2.0740	12.4260
 2.0750	12.4590
 2.0760	12.4910
 2.0770	12.5220
 2.0780	12.5530
 2.0790	12.5830
 2.0800	12.6140
 2.0810	12.6450
 2.0820	12.6760
 2.0830	12.7070
 2.0840	12.7370
 2.0850	12.7680
 2.0860	12.7990
 2.0870	12.8320
 2.0880	12.8640
 2.0890	12.8960
 2.0900	12.9310
 2.0910	12.9620
 2.0920	12.9910
 2.0930	13.0190
 2.0940	13.0440
 2.0950	13.0700
 2.0960	13.0940
 2.0970	13.1210
 2.0980	13.1490
 2.0990	13.1770
 2.1000	13.2070
 2.1010	13.2350
 2.1020	13.2600
 2.1030	13.2870
 2.1040	13.3150
 2.1050	13.3440
 2.1060	13.3720
 2.1070	13.4010
 2.1080	13.4280
 2.1090	13.4530
 2.1100	13.4790
 2.1110	13.5030
 2.1120	13.5290
 2.1130	13.5550
 2.1140	13.5810
 2.1150	13.6120
 2.1160	13.6360
 2.1170	13.6580
 2.1180	13.6800
 2.1190	13.6990
 2.1200	13.7190
 2.1210	13.7420
 2.1220	13.7640
 2.1230	13.7870
 2.1240	13.8120
 2.1250	13.8330
 2.1260	13.8540
 2.1270	13.8740
 2.1280	13.8880
 2.1290	13.9070
 2.1300	13.9290
 2.1310	13.9490
 2.1320	13.9700
 2.1330	13.9900
 2.1340	14.0080
 2.1350	14.0270
 2.1360	14.0470
 2.1370	14.0670
 2.1380	14.0870
 2.1390	14.1080
 2.1400	14.1300
 2.1410	14.1530
 2.1420	14.1740
 2.1430	14.1970
 2.1440	14.2180
 2.1450	14.2370
 2.1460	14.2560
 2.1470	14.2760
 2.1480	14.2960
 2.1490	14.3170
 2.1500	14.3380
 2.1510	14.3610
 2.1520	14.3830
 2.1530	14.4040
 2.1540	14.4230
 2.1550	14.4410
 2.1560	14.4590
 2.1570	14.4760
 2.1580	14.4930
 2.1590	14.5110
 2.1600	14.5250
 2.1610	14.5400
 2.1620	14.5580
 2.1630	14.5750
 2.1640	14.5930
 2.1650	14.6100
 2.1660	14.6280
 2.1670	14.6430
 2.1680	14.6570
 2.1690	14.6720
 2.1700	14.6840
 2.1710	14.7000
 2.1720	14.7190
 2.1730	14.7360
 2.1740	14.7530
 2.1750	14.7700
 2.1760	14.7870
 2.1770	14.8050
 2.1780	14.8260
 2.1790	14.8440
 2.1800	14.8600
 2.1810	14.8790
 2.1820	14.9010
 2.1830	14.9220
 2.1840	14.9450
 2.1850	14.9720
 2.1860	14.9950
 2.1870	15.0160
 2.1880	15.0390
 2.1890	15.0620
 2.1900	15.0870
 2.1910	15.1130
 2.1920	15.1370
 2.1930	15.1600
 2.1940	15.1840
 2.1950	15.2080
 2.1960	15.2300
 2.1970	15.2490
 2.1980	15.2690
 2.1990	15.2890
 2.2000	15.3080
 2.2010	15.3330
 2.2020	15.3520
 2.2030	15.3640
 2.2040	15.3800
 2.2050	15.3930
 2.2060	15.4100
 2.2070	15.4260
 2.2080	15.4440
 2.2090	15.4620
 2.2100	15.4790
 2.2110	15.4940
 2.2120	15.5120
 2.2130	15.5240
 2.2140	15.5290
 2.2150	15.5360
 2.2160	15.5380
 2.2170	15.5440
 2.2180	15.5560
 2.2190	15.5590
 2.2200	15.5590
 2.2210	15.5580
 2.2220	15.5510
 2.2230	15.5420
 2.2240	15.5320
 2.2250	15.5220
 2.2260	15.5090
 2.2270	15.4930
 2.2280	15.4810
 2.2290	15.4620
 2.2300	15.4380
 2.2310	15.4080
 2.2320	15.3790
 2.2330	15.3450
 2.2340	15.3070
 2.2350	15.2640
 2.2360	15.2220
 2.2370	15.1780
 2.2380	15.1300
 2.2390	15.0800
 2.2400	15.0280
 2.2410	14.9650
 2.2420	14.9110
 2.2430	14.8630
 2.2440	14.8070
 2.2450	14.7500
 2.2460	14.6910
 2.2470	14.6270
 2.2480	14.5640
 2.2490	14.5030
 2.2500	14.4400
 2.2510	14.3750
 2.2520	14.3110
 2.2530	14.2490
 2.2540	14.1870
 2.2550	14.1220
 2.2560	14.0630
 2.2570	14.0090
 2.2580	13.9550
 2.2590	13.9060
 2.2600	13.8540
 2.2610	13.8040
 2.2620	13.7470
 2.2630	13.6920
 2.2640	13.6370
 2.2650	13.5830
 2.2660	13.5330
 2.2670	13.4860
 2.2680	13.4460
 2.2690	13.4010
 2.2700	13.3580
 2.2710	13.3140
 2.2720	13.2670
 2.2730	13.2270
 2.2740	13.1910
 2.2750	13.1530
 2.2760	13.1170
 2.2770	13.0820
 2.2780	13.0450
 2.2790	13.0120
 2.2800	12.9850
 2.2810	12.9560
 2.2820	12.9320
 2.2830	12.9020
 2.2840	12.8690
 2.2850	12.8390
 2.2860	12.8090
 2.2870	12.7760
 2.2880	12.7470
 2.2890	12.7110
 2.2900	12.6660
 2.2910	12.6220
 2.2920	12.5750
 2.2930	12.5290
 2.2940	12.4830
 2.2950	12.4370
 2.2960	12.3900
 2.2970	12.3440
 2.2980	12.3020
 2.2990	12.2540
 2.3000	12.2060
 2.3010	12.1700
 2.3020	12.1270
 2.3030	12.0790
 2.3040	12.0320
 2.3050	11.9810
 2.3060	11.9370
 2.3070	11.8990
 2.3080	11.8630
 2.3090	11.8290
 2.3100	11.8030
 2.3110	11.7810
 2.3120	11.7630
 2.3130	11.7550
 2.3140	11.7440
 2.3150	11.7310
 2.3160	11.7300
 2.3170	11.7370
 2.3180	11.7420
 2.3190	11.7560
 2.3200	11.7610
 2.3210	11.7650
 2.3220	11.7640
 2.3230	11.7600
 2.3240	11.7520
 2.3250	11.7390
 2.3260	11.7280
 2.3270	11.7180
 2.3280	11.7010
 2.3290	11.6790
 2.3300	11.6540
 2.3310	11.6170
 2.3320	11.5880
 2.3330	11.5610
 2.3340	11.5340
 2.3350	11.5100
 2.3360	11.4820
 2.3370	11.4500
 2.3380	11.4220
 2.3390	11.3960
 2.3400	11.3670
 2.3410	11.3420
 2.3420	11.3110
 2.3430	11.2720
 2.3440	11.2380
 2.3450	11.2030
 2.3460	11.1710
 2.3470	11.1400
 2.3480	11.1140
 2.3490	11.0900
 2.3500	11.0680
 2.3510	11.0520
 2.3520	11.0370
 2.3530	11.0240
 2.3540	11.0160
 2.3550	11.0010
 2.3560	10.9880
 2.3570	10.9740
 2.3580	10.9590
 2.3590	10.9580
 2.3600	10.9490
 2.3610	10.9310
 2.3620	10.9210
 2.3630	10.9040
 2.3640	10.8830
 2.3650	10.8670
 2.3660	10.8400
 2.3670	10.8080
 2.3680	10.7850
 2.3690	10.7660
 2.3700	10.7480
 2.3710	10.7250
 2.3720	10.6930
 2.3730	10.6640
 2.3740	10.6350
 2.3750	10.6050
 2.3760	10.5820
 2.3770	10.5570
 2.3780	10.5270
 2.3790	10.4990
 2.3800	10.4650
 2.3810	10.4330
 2.3820	10.4090
 2.3830	10.3870
 2.3840	10.3700
 2.3850	10.3430
 2.3860	10.3050
 2.3870	10.2700
 2.3880	10.2320
 2.3890	10.2060
 2.3900	10.1820
 2.3910	10.1520
 2.3920	10.1310
 2.3930	10.1070
 2.3940	10.0780
 2.3950	10.0440
 2.3960	10.0020
 2.3970	 9.9660
 2.3980	 9.9400
 2.3990	 9.9170
 2.4000	 9.8960
 2.4010	 9.8690
 2.4020	 9.8350
 2.4030	 9.8070
 2.4040	 9.7840
 2.4050	 9.7700
 2.4060	 9.7480
 2.4070	 9.7210
 2.4080	 9.6940
 2.4090	 9.6560
 2.4100	 9.6340
 2.4110	 9.6070
 2.4120	 9.5770
 2.4130	 9.5540
 2.4140	 9.5140
 2.4150	 9.4770
 2.4160	 9.4420
 2.4170	 9.3930
 2.4180	 9.3450
 2.4190	 9.2980
 2.4200	 9.2460
 2.4210	 9.2050
 2.4220	 9.1820
 2.4230	 9.1590
 2.4240	 9.1470
 2.4250	 9.1510
 2.4260	 9.1240
 2.4270	 9.0760
 2.4280	 9.0340
 2.4290	 8.9780
 2.4300	 8.9300
 2.4310	 8.9140
 2.4320	 8.9010
 2.4330	 8.8670
 2.4340	 8.8320
 2.4350	 8.7990
 2.4360	 8.7640
 2.4370	 8.7320
 2.4380	 8.6980
 2.4390	 8.6660
 2.4400	 8.6270
 2.4410	 8.5900
 2.4420	 8.5880
 2.4430	 8.5720
 2.4440	 8.5240
 2.4450	 8.4860
 2.4460	 8.4280
 2.4470	 8.3840
 2.4480	 8.3770
 2.4490	 8.3620
 2.4500	 8.3500
 2.4510	 8.3340
 2.4520	 8.2890
 2.4530	 8.2650
 2.4540	 8.2520
 2.4550	 8.2180
 2.4560	 8.1930
 2.4570	 8.1380
 2.4580	 8.0680
 2.4590	 8.0310
 2.4600	 7.9970
 2.4610	 7.9780
 2.4620	 7.9840
 2.4630	 7.9670
 2.4640	 7.9430
 2.4650	 7.9530
 2.4660	 7.9460
 2.4670	 7.9350
 2.4680	 7.9300
 2.4690	 7.8890
 2.4700	 7.8600
 2.4710	 7.8280
 2.4720	 7.7920
 2.4730	 7.7590
 2.4740	 7.7280
 2.4750	 7.6960
 2.4760	 7.6700
 2.4770	 7.6360
 2.4780	 7.6250
 2.4790	 7.6290
 2.4800	 7.6360
 2.4810	 7.6860
 2.4820	 7.6960
 2.4830	 7.6910
 2.4840	 7.6980
 2.4850	 7.6480
 2.4860	 7.5900
 2.4870	 7.5610
 2.4880	 7.5150
 2.4890	 7.5090
 2.4900	 7.5400
 2.4910	 7.5390
 2.4920	 7.5540
 2.4930	 7.5770
 2.4940	 7.5760
 2.4950	 7.5720
 2.4960	 7.5770
 2.4970	 7.5870
 2.4980	 7.5690
 2.4990	 7.5590
 2.5000	 7.5050
