Name: Ficus thonningii
Type: vegetation
Class: Tree
Genus: Ficus
Species: thonningii
Sample No.: JPL100
Owner: JPL
Wavelength Range: VSWIR
Origin: 34.12617; - 118.1119; WGS84
Collection Date: 2/2/2016
Description: Samples were collected at the Huntington Garden in San Marino California as part of a JPL Subcontract studying HyTES imagery. Samples were taken to JPL and processed within 48 hours of collection. The same leaves were processed in the Nicolet and then measured using the ASD.
Measurement: Bidirectional reflectance
First Column: X
Second Column: Y
X Units: Wavelength (micrometer)
Y Units: Reflectance (percentage)
First X Value: 0.35
Last X Value: 2.5
Number of X Values: 2151
Additional Information: 

 0.3500	 8.4570
 0.3510	 9.7760
 0.3520	10.1520
 0.3530	 9.7790
 0.3540	 9.2340
 0.3550	 8.6480
 0.3560	 9.0470
 0.3570	 9.5290
 0.3580	 8.6570
 0.3590	 9.0960
 0.3600	 9.5540
 0.3610	 9.5240
 0.3620	10.0220
 0.3630	 9.4530
 0.3640	 9.1710
 0.3650	10.2780
 0.3660	10.2400
 0.3670	 9.6950
 0.3680	 9.3630
 0.3690	 9.8080
 0.3700	 9.3220
 0.3710	 9.1690
 0.3720	 9.8890
 0.3730	10.0250
 0.3740	 9.3950
 0.3750	 8.7940
 0.3760	 9.0280
 0.3770	 9.1350
 0.3780	 9.4820
 0.3790	 9.7500
 0.3800	 9.1340
 0.3810	 8.7900
 0.3820	 8.9710
 0.3830	 9.4900
 0.3840	 9.6850
 0.3850	 9.8650
 0.3860	 9.7170
 0.3870	 8.9850
 0.3880	 8.8330
 0.3890	 9.1550
 0.3900	 9.5220
 0.3910	 9.3210
 0.3920	 9.3150
 0.3930	 9.2590
 0.3940	 8.9870
 0.3950	 9.0230
 0.3960	 9.2820
 0.3970	 9.4420
 0.3980	 9.1980
 0.3990	 9.2160
 0.4000	 9.1540
 0.4010	 9.0080
 0.4020	 9.3260
 0.4030	 9.5080
 0.4040	 9.4500
 0.4050	 9.1970
 0.4060	 8.7490
 0.4070	 8.8070
 0.4080	 9.1890
 0.4090	 9.1740
 0.4100	 9.0990
 0.4110	 8.8880
 0.4120	 8.6500
 0.4130	 8.9470
 0.4140	 9.0520
 0.4150	 9.0270
 0.4160	 9.1200
 0.4170	 9.1900
 0.4180	 9.1750
 0.4190	 9.1200
 0.4200	 9.1560
 0.4210	 9.1440
 0.4220	 9.0940
 0.4230	 9.0780
 0.4240	 9.2760
 0.4250	 9.3040
 0.4260	 9.1800
 0.4270	 9.1130
 0.4280	 9.1480
 0.4290	 9.2050
 0.4300	 9.1980
 0.4310	 9.0490
 0.4320	 9.0310
 0.4330	 9.0290
 0.4340	 8.9150
 0.4350	 8.9140
 0.4360	 8.9010
 0.4370	 8.8720
 0.4380	 8.9110
 0.4390	 8.9720
 0.4400	 9.0000
 0.4410	 8.9940
 0.4420	 9.0970
 0.4430	 9.0300
 0.4440	 8.9480
 0.4450	 9.0830
 0.4460	 9.0260
 0.4470	 8.9870
 0.4480	 9.0370
 0.4490	 9.0240
 0.4500	 9.0620
 0.4510	 9.0930
 0.4520	 9.0630
 0.4530	 9.0690
 0.4540	 9.0520
 0.4550	 9.0290
 0.4560	 9.0550
 0.4570	 9.1170
 0.4580	 9.1150
 0.4590	 9.0250
 0.4600	 8.9630
 0.4610	 9.0050
 0.4620	 9.0770
 0.4630	 9.0720
 0.4640	 9.0500
 0.4650	 9.0710
 0.4660	 9.1010
 0.4670	 9.0280
 0.4680	 8.9810
 0.4690	 8.9910
 0.4700	 9.0360
 0.4710	 9.0130
 0.4720	 9.0000
 0.4730	 9.0410
 0.4740	 9.1390
 0.4750	 9.1350
 0.4760	 9.0800
 0.4770	 9.0310
 0.4780	 9.0090
 0.4790	 9.0300
 0.4800	 9.0660
 0.4810	 9.0850
 0.4820	 9.1030
 0.4830	 9.0510
 0.4840	 8.9750
 0.4850	 9.0160
 0.4860	 9.0850
 0.4870	 9.0810
 0.4880	 8.9880
 0.4890	 9.0070
 0.4900	 9.0950
 0.4910	 9.1370
 0.4920	 9.0310
 0.4930	 9.0560
 0.4940	 9.0650
 0.4950	 9.0100
 0.4960	 9.0350
 0.4970	 9.0600
 0.4980	 9.0840
 0.4990	 9.1210
 0.5000	 9.1340
 0.5010	 9.1680
 0.5020	 9.2150
 0.5030	 9.2290
 0.5040	 9.2120
 0.5050	 9.2090
 0.5060	 9.2370
 0.5070	 9.2290
 0.5080	 9.2500
 0.5090	 9.3100
 0.5100	 9.3860
 0.5110	 9.3880
 0.5120	 9.3830
 0.5130	 9.4200
 0.5140	 9.5070
 0.5150	 9.5820
 0.5160	 9.6410
 0.5170	 9.6940
 0.5180	 9.7500
 0.5190	 9.8110
 0.5200	 9.8880
 0.5210	 9.9990
 0.5220	10.1350
 0.5230	10.2470
 0.5240	10.3210
 0.5250	10.4340
 0.5260	10.5470
 0.5270	10.6550
 0.5280	10.7630
 0.5290	10.8730
 0.5300	10.9730
 0.5310	11.0580
 0.5320	11.1370
 0.5330	11.1970
 0.5340	11.2700
 0.5350	11.3700
 0.5360	11.4050
 0.5370	11.4270
 0.5380	11.4520
 0.5390	11.4730
 0.5400	11.5120
 0.5410	11.5280
 0.5420	11.5000
 0.5430	11.4480
 0.5440	11.4720
 0.5450	11.5460
 0.5460	11.5990
 0.5470	11.6590
 0.5480	11.7050
 0.5490	11.7350
 0.5500	11.7780
 0.5510	11.7690
 0.5520	11.7510
 0.5530	11.7670
 0.5540	11.7590
 0.5550	11.7370
 0.5560	11.7100
 0.5570	11.6830
 0.5580	11.6110
 0.5590	11.5420
 0.5600	11.5020
 0.5610	11.4520
 0.5620	11.3740
 0.5630	11.2920
 0.5640	11.2350
 0.5650	11.1370
 0.5660	11.0610
 0.5670	11.0170
 0.5680	10.9420
 0.5690	10.8340
 0.5700	10.7320
 0.5710	10.6630
 0.5720	10.5810
 0.5730	10.5300
 0.5740	10.4910
 0.5750	10.4080
 0.5760	10.3540
 0.5770	10.3070
 0.5780	10.2500
 0.5790	10.2110
 0.5800	10.1620
 0.5810	10.1230
 0.5820	10.1160
 0.5830	10.0670
 0.5840	10.0260
 0.5850	10.0060
 0.5860	 9.9810
 0.5870	 9.9670
 0.5880	 9.9600
 0.5890	 9.9500
 0.5900	 9.9200
 0.5910	 9.9040
 0.5920	 9.8990
 0.5930	 9.8840
 0.5940	 9.8980
 0.5950	 9.9090
 0.5960	 9.8970
 0.5970	 9.8680
 0.5980	 9.8170
 0.5990	 9.7940
 0.6000	 9.8390
 0.6010	 9.8490
 0.6020	 9.8310
 0.6030	 9.8000
 0.6040	 9.7800
 0.6050	 9.7640
 0.6060	 9.7470
 0.6070	 9.7230
 0.6080	 9.7020
 0.6090	 9.6730
 0.6100	 9.6190
 0.6110	 9.5340
 0.6120	 9.5110
 0.6130	 9.5160
 0.6140	 9.5240
 0.6150	 9.5330
 0.6160	 9.5280
 0.6170	 9.5150
 0.6180	 9.5030
 0.6190	 9.4620
 0.6200	 9.4470
 0.6210	 9.4670
 0.6220	 9.4890
 0.6230	 9.4620
 0.6240	 9.4380
 0.6250	 9.4510
 0.6260	 9.4660
 0.6270	 9.4520
 0.6280	 9.4380
 0.6290	 9.4620
 0.6300	 9.4500
 0.6310	 9.4350
 0.6320	 9.4390
 0.6330	 9.4640
 0.6340	 9.4400
 0.6350	 9.4230
 0.6360	 9.4540
 0.6370	 9.4270
 0.6380	 9.4100
 0.6390	 9.4210
 0.6400	 9.4400
 0.6410	 9.4010
 0.6420	 9.3800
 0.6430	 9.4000
 0.6440	 9.3770
 0.6450	 9.3900
 0.6460	 9.4000
 0.6470	 9.3610
 0.6480	 9.3340
 0.6490	 9.3370
 0.6500	 9.3650
 0.6510	 9.3960
 0.6520	 9.3800
 0.6530	 9.3570
 0.6540	 9.3610
 0.6550	 9.3730
 0.6560	 9.3740
 0.6570	 9.3760
 0.6580	 9.3960
 0.6590	 9.3900
 0.6600	 9.3900
 0.6610	 9.4040
 0.6620	 9.4090
 0.6630	 9.4180
 0.6640	 9.4340
 0.6650	 9.4530
 0.6660	 9.4560
 0.6670	 9.4500
 0.6680	 9.4540
 0.6690	 9.4830
 0.6700	 9.4900
 0.6710	 9.5040
 0.6720	 9.5360
 0.6730	 9.5590
 0.6740	 9.5820
 0.6750	 9.6080
 0.6760	 9.6410
 0.6770	 9.6730
 0.6780	 9.7000
 0.6790	 9.7340
 0.6800	 9.7890
 0.6810	 9.8120
 0.6820	 9.8220
 0.6830	 9.8420
 0.6840	 9.8850
 0.6850	 9.9310
 0.6860	 9.9680
 0.6870	 9.9900
 0.6880	10.0140
 0.6890	10.0350
 0.6900	10.0640
 0.6910	10.1190
 0.6920	10.1810
 0.6930	10.2880
 0.6940	10.4510
 0.6950	10.6260
 0.6960	10.8510
 0.6970	11.1390
 0.6980	11.4880
 0.6990	11.9100
 0.7000	12.4060
 0.7010	12.9650
 0.7020	13.5730
 0.7030	14.2250
 0.7040	14.9340
 0.7050	15.6980
 0.7060	16.4870
 0.7070	17.2980
 0.7080	18.1380
 0.7090	19.0190
 0.7100	19.9350
 0.7110	20.8840
 0.7120	21.8540
 0.7130	22.8340
 0.7140	23.8460
 0.7150	24.8730
 0.7160	25.9030
 0.7170	26.9490
 0.7180	28.0030
 0.7190	29.0710
 0.7200	30.1580
 0.7210	31.2490
 0.7220	32.3250
 0.7230	33.3790
 0.7240	34.4180
 0.7250	35.4610
 0.7260	36.4800
 0.7270	37.4530
 0.7280	38.4050
 0.7290	39.3510
 0.7300	40.2690
 0.7310	41.1280
 0.7320	41.9490
 0.7330	42.7480
 0.7340	43.5180
 0.7350	44.2380
 0.7360	44.9390
 0.7370	45.5990
 0.7380	46.2040
 0.7390	46.7710
 0.7400	47.3220
 0.7410	47.8470
 0.7420	48.3240
 0.7430	48.7320
 0.7440	49.1470
 0.7450	49.5650
 0.7460	49.9080
 0.7470	50.2320
 0.7480	50.5240
 0.7490	50.7760
 0.7500	51.0150
 0.7510	51.2440
 0.7520	51.4480
 0.7530	51.6160
 0.7540	51.8270
 0.7550	51.9850
 0.7560	52.0910
 0.7570	52.2200
 0.7580	52.3300
 0.7590	52.4460
 0.7600	52.5630
 0.7610	52.6110
 0.7620	52.6620
 0.7630	52.7290
 0.7640	52.8030
 0.7650	52.8780
 0.7660	52.9140
 0.7670	52.9300
 0.7680	52.9720
 0.7690	53.0200
 0.7700	53.0660
 0.7710	53.1000
 0.7720	53.1060
 0.7730	53.1200
 0.7740	53.1470
 0.7750	53.1770
 0.7760	53.1760
 0.7770	53.1860
 0.7780	53.2050
 0.7790	53.2150
 0.7800	53.2450
 0.7810	53.2660
 0.7820	53.2720
 0.7830	53.2930
 0.7840	53.3060
 0.7850	53.3120
 0.7860	53.3190
 0.7870	53.3260
 0.7880	53.3240
 0.7890	53.3300
 0.7900	53.3560
 0.7910	53.3670
 0.7920	53.3690
 0.7930	53.3730
 0.7940	53.3880
 0.7950	53.3840
 0.7960	53.3720
 0.7970	53.3680
 0.7980	53.3860
 0.7990	53.3750
 0.8000	53.3620
 0.8010	53.3710
 0.8020	53.3620
 0.8030	53.3620
 0.8040	53.3600
 0.8050	53.3410
 0.8060	53.3490
 0.8070	53.3560
 0.8080	53.3570
 0.8090	53.3660
 0.8100	53.3570
 0.8110	53.3480
 0.8120	53.3440
 0.8130	53.3120
 0.8140	53.3160
 0.8150	53.3290
 0.8160	53.3180
 0.8170	53.3180
 0.8180	53.3180
 0.8190	53.3120
 0.8200	53.3020
 0.8210	53.2940
 0.8220	53.3100
 0.8230	53.3250
 0.8240	53.2900
 0.8250	53.3000
 0.8260	53.3050
 0.8270	53.2790
 0.8280	53.2710
 0.8290	53.2600
 0.8300	53.2570
 0.8310	53.2670
 0.8320	53.2390
 0.8330	53.2290
 0.8340	53.2410
 0.8350	53.2530
 0.8360	53.2650
 0.8370	53.2660
 0.8380	53.2540
 0.8390	53.2410
 0.8400	53.2590
 0.8410	53.2660
 0.8420	53.2550
 0.8430	53.2700
 0.8440	53.2880
 0.8450	53.3020
 0.8460	53.3110
 0.8470	53.3160
 0.8480	53.3090
 0.8490	53.3130
 0.8500	53.3440
 0.8510	53.3570
 0.8520	53.3690
 0.8530	53.3850
 0.8540	53.3970
 0.8550	53.3980
 0.8560	53.4180
 0.8570	53.4410
 0.8580	53.4150
 0.8590	53.4490
 0.8600	53.4910
 0.8610	53.5020
 0.8620	53.5130
 0.8630	53.5650
 0.8640	53.5930
 0.8650	53.5610
 0.8660	53.6060
 0.8670	53.6250
 0.8680	53.6170
 0.8690	53.6190
 0.8700	53.6820
 0.8710	53.7120
 0.8720	53.7060
 0.8730	53.7130
 0.8740	53.7100
 0.8750	53.7630
 0.8760	53.8450
 0.8770	53.8540
 0.8780	53.8420
 0.8790	53.8440
 0.8800	53.8760
 0.8810	53.9230
 0.8820	53.9310
 0.8830	53.9320
 0.8840	53.9610
 0.8850	54.0110
 0.8860	54.0590
 0.8870	54.0780
 0.8880	54.0620
 0.8890	54.0620
 0.8900	54.0960
 0.8910	54.1400
 0.8920	54.1590
 0.8930	54.1610
 0.8940	54.1600
 0.8950	54.1820
 0.8960	54.2450
 0.8970	54.2510
 0.8980	54.2480
 0.8990	54.2790
 0.9000	54.3500
 0.9010	54.3560
 0.9020	54.3700
 0.9030	54.4170
 0.9040	54.4230
 0.9050	54.4500
 0.9060	54.4790
 0.9070	54.4900
 0.9080	54.4930
 0.9090	54.5070
 0.9100	54.5160
 0.9110	54.5020
 0.9120	54.4660
 0.9130	54.4970
 0.9140	54.5470
 0.9150	54.5570
 0.9160	54.6020
 0.9170	54.6270
 0.9180	54.6260
 0.9190	54.6170
 0.9200	54.6330
 0.9210	54.6290
 0.9220	54.6180
 0.9230	54.6390
 0.9240	54.6470
 0.9250	54.6800
 0.9260	54.6780
 0.9270	54.5570
 0.9280	54.5660
 0.9290	54.6000
 0.9300	54.6110
 0.9310	54.6410
 0.9320	54.6240
 0.9330	54.6090
 0.9340	54.6120
 0.9350	54.5970
 0.9360	54.5430
 0.9370	54.5050
 0.9380	54.5060
 0.9390	54.5100
 0.9400	54.4800
 0.9410	54.4590
 0.9420	54.4480
 0.9430	54.3570
 0.9440	54.3250
 0.9450	54.3310
 0.9460	54.3330
 0.9470	54.3260
 0.9480	54.2960
 0.9490	54.2580
 0.9500	54.2240
 0.9510	54.1910
 0.9520	54.1070
 0.9530	54.0350
 0.9540	54.0240
 0.9550	53.9680
 0.9560	53.9230
 0.9570	53.8940
 0.9580	53.8580
 0.9590	53.7620
 0.9600	53.7000
 0.9610	53.6950
 0.9620	53.7180
 0.9630	53.7060
 0.9640	53.6440
 0.9650	53.6000
 0.9660	53.6340
 0.9670	53.6260
 0.9680	53.5820
 0.9690	53.5580
 0.9700	53.5990
 0.9710	53.6230
 0.9720	53.5850
 0.9730	53.5260
 0.9740	53.5130
 0.9750	53.5460
 0.9760	53.5490
 0.9770	53.5590
 0.9780	53.6210
 0.9790	53.5390
 0.9800	53.5600
 0.9810	53.6370
 0.9820	53.6190
 0.9830	53.6850
 0.9840	53.7200
 0.9850	53.6920
 0.9860	53.6240
 0.9870	53.5120
 0.9880	53.5920
 0.9890	53.7070
 0.9900	53.6140
 0.9910	53.7220
 0.9920	53.7030
 0.9930	53.6350
 0.9940	53.7120
 0.9950	53.6250
 0.9960	53.6680
 0.9970	53.7710
 0.9980	53.7300
 0.9990	53.5980
 1.0000	53.6610
 1.0010	53.7340
 1.0020	53.7390
 1.0030	53.7820
 1.0040	53.8580
 1.0050	53.8700
 1.0060	53.8750
 1.0070	53.9210
 1.0080	53.9380
 1.0090	53.9050
 1.0100	53.9190
 1.0110	53.9600
 1.0120	53.9930
 1.0130	54.0280
 1.0140	54.0660
 1.0150	54.1330
 1.0160	54.1650
 1.0170	54.1340
 1.0180	54.1190
 1.0190	54.0860
 1.0200	54.0920
 1.0210	54.1660
 1.0220	54.2380
 1.0230	54.2760
 1.0240	54.3070
 1.0250	54.3160
 1.0260	54.2690
 1.0270	54.2860
 1.0280	54.3410
 1.0290	54.3600
 1.0300	54.3850
 1.0310	54.4110
 1.0320	54.4290
 1.0330	54.4220
 1.0340	54.4160
 1.0350	54.4400
 1.0360	54.4250
 1.0370	54.4300
 1.0380	54.4520
 1.0390	54.5140
 1.0400	54.5240
 1.0410	54.5190
 1.0420	54.5210
 1.0430	54.4930
 1.0440	54.4940
 1.0450	54.5210
 1.0460	54.5340
 1.0470	54.5430
 1.0480	54.5610
 1.0490	54.5880
 1.0500	54.6060
 1.0510	54.6400
 1.0520	54.6380
 1.0530	54.6430
 1.0540	54.6220
 1.0550	54.6450
 1.0560	54.7000
 1.0570	54.7150
 1.0580	54.7440
 1.0590	54.7450
 1.0600	54.7010
 1.0610	54.6760
 1.0620	54.6280
 1.0630	54.6220
 1.0640	54.6360
 1.0650	54.6510
 1.0660	54.7220
 1.0670	54.7530
 1.0680	54.7660
 1.0690	54.7550
 1.0700	54.7580
 1.0710	54.7370
 1.0720	54.7530
 1.0730	54.8010
 1.0740	54.8150
 1.0750	54.8310
 1.0760	54.8360
 1.0770	54.8170
 1.0780	54.8060
 1.0790	54.7840
 1.0800	54.7850
 1.0810	54.8070
 1.0820	54.8060
 1.0830	54.8120
 1.0840	54.8130
 1.0850	54.7960
 1.0860	54.7720
 1.0870	54.7730
 1.0880	54.7920
 1.0890	54.8040
 1.0900	54.8310
 1.0910	54.8330
 1.0920	54.8170
 1.0930	54.8160
 1.0940	54.7980
 1.0950	54.8030
 1.0960	54.8420
 1.0970	54.8510
 1.0980	54.8600
 1.0990	54.8550
 1.1000	54.8150
 1.1010	54.7970
 1.1020	54.7900
 1.1030	54.7710
 1.1040	54.7700
 1.1050	54.7710
 1.1060	54.7510
 1.1070	54.7050
 1.1080	54.6990
 1.1090	54.6960
 1.1100	54.6990
 1.1110	54.7470
 1.1120	54.7500
 1.1130	54.7340
 1.1140	54.7150
 1.1150	54.6720
 1.1160	54.6420
 1.1170	54.6050
 1.1180	54.5810
 1.1190	54.5570
 1.1200	54.5660
 1.1210	54.5610
 1.1220	54.5380
 1.1230	54.5100
 1.1240	54.4690
 1.1250	54.4340
 1.1260	54.4070
 1.1270	54.3560
 1.1280	54.2960
 1.1290	54.2320
 1.1300	54.1370
 1.1310	54.0700
 1.1320	54.0280
 1.1330	53.9640
 1.1340	53.9090
 1.1350	53.8320
 1.1360	53.7340
 1.1370	53.6350
 1.1380	53.5260
 1.1390	53.4170
 1.1400	53.3080
 1.1410	53.1820
 1.1420	53.0670
 1.1430	52.9630
 1.1440	52.8620
 1.1450	52.7730
 1.1460	52.6760
 1.1470	52.5760
 1.1480	52.4780
 1.1490	52.3820
 1.1500	52.2870
 1.1510	52.1870
 1.1520	52.1030
 1.1530	52.0180
 1.1540	51.9490
 1.1550	51.9020
 1.1560	51.8480
 1.1570	51.7910
 1.1580	51.7470
 1.1590	51.6920
 1.1600	51.6470
 1.1610	51.6210
 1.1620	51.5970
 1.1630	51.5780
 1.1640	51.5700
 1.1650	51.5530
 1.1660	51.5270
 1.1670	51.5110
 1.1680	51.4970
 1.1690	51.4890
 1.1700	51.4980
 1.1710	51.4950
 1.1720	51.4910
 1.1730	51.4770
 1.1740	51.4490
 1.1750	51.4260
 1.1760	51.4090
 1.1770	51.3980
 1.1780	51.3950
 1.1790	51.3920
 1.1800	51.3780
 1.1810	51.3720
 1.1820	51.3640
 1.1830	51.3490
 1.1840	51.3440
 1.1850	51.3410
 1.1860	51.3310
 1.1870	51.3220
 1.1880	51.3150
 1.1890	51.3010
 1.1900	51.2910
 1.1910	51.2790
 1.1920	51.2820
 1.1930	51.3030
 1.1940	51.3070
 1.1950	51.3110
 1.1960	51.3090
 1.1970	51.3010
 1.1980	51.2860
 1.1990	51.2870
 1.2000	51.2990
 1.2010	51.3140
 1.2020	51.3370
 1.2030	51.3660
 1.2040	51.3900
 1.2050	51.3990
 1.2060	51.4070
 1.2070	51.4290
 1.2080	51.4500
 1.2090	51.4700
 1.2100	51.4800
 1.2110	51.4870
 1.2120	51.4760
 1.2130	51.4760
 1.2140	51.4760
 1.2150	51.4900
 1.2160	51.5130
 1.2170	51.5270
 1.2180	51.5550
 1.2190	51.5820
 1.2200	51.5980
 1.2210	51.6190
 1.2220	51.6330
 1.2230	51.6510
 1.2240	51.6640
 1.2250	51.6740
 1.2260	51.7040
 1.2270	51.7300
 1.2280	51.7560
 1.2290	51.7850
 1.2300	51.8000
 1.2310	51.8090
 1.2320	51.8160
 1.2330	51.8280
 1.2340	51.8450
 1.2350	51.8690
 1.2360	51.8890
 1.2370	51.9100
 1.2380	51.9350
 1.2390	51.9520
 1.2400	51.9570
 1.2410	51.9780
 1.2420	51.9870
 1.2430	51.9820
 1.2440	51.9840
 1.2450	51.9870
 1.2460	51.9900
 1.2470	52.0040
 1.2480	52.0310
 1.2490	52.0540
 1.2500	52.0610
 1.2510	52.0790
 1.2520	52.0990
 1.2530	52.1050
 1.2540	52.1200
 1.2550	52.1200
 1.2560	52.1230
 1.2570	52.1350
 1.2580	52.1310
 1.2590	52.1330
 1.2600	52.1400
 1.2610	52.1400
 1.2620	52.1360
 1.2630	52.1290
 1.2640	52.1230
 1.2650	52.1090
 1.2660	52.0840
 1.2670	52.0680
 1.2680	52.0620
 1.2690	52.0650
 1.2700	52.0710
 1.2710	52.0870
 1.2720	52.0860
 1.2730	52.0590
 1.2740	52.0240
 1.2750	51.9870
 1.2760	51.9630
 1.2770	51.9490
 1.2780	51.9380
 1.2790	51.9260
 1.2800	51.9170
 1.2810	51.9110
 1.2820	51.9010
 1.2830	51.8980
 1.2840	51.8890
 1.2850	51.8580
 1.2860	51.8320
 1.2870	51.8070
 1.2880	51.7760
 1.2890	51.7460
 1.2900	51.7350
 1.2910	51.7160
 1.2920	51.6930
 1.2930	51.6650
 1.2940	51.6290
 1.2950	51.5870
 1.2960	51.5540
 1.2970	51.5320
 1.2980	51.4970
 1.2990	51.4700
 1.3000	51.4490
 1.3010	51.4030
 1.3020	51.3590
 1.3030	51.3140
 1.3040	51.2530
 1.3050	51.1800
 1.3060	51.1200
 1.3070	51.0660
 1.3080	50.9920
 1.3090	50.9220
 1.3100	50.8450
 1.3110	50.7590
 1.3120	50.6820
 1.3130	50.6110
 1.3140	50.5370
 1.3150	50.4580
 1.3160	50.3880
 1.3170	50.3220
 1.3180	50.2630
 1.3190	50.1960
 1.3200	50.1190
 1.3210	50.0160
 1.3220	49.8980
 1.3230	49.7910
 1.3240	49.6830
 1.3250	49.5920
 1.3260	49.5010
 1.3270	49.3940
 1.3280	49.2870
 1.3290	49.1700
 1.3300	49.0450
 1.3310	48.9250
 1.3320	48.8140
 1.3330	48.6990
 1.3340	48.5820
 1.3350	48.4730
 1.3360	48.3520
 1.3370	48.2330
 1.3380	48.1220
 1.3390	48.0070
 1.3400	47.8880
 1.3410	47.7710
 1.3420	47.6580
 1.3430	47.5420
 1.3440	47.4260
 1.3450	47.3130
 1.3460	47.2010
 1.3470	47.0910
 1.3480	46.9850
 1.3490	46.8780
 1.3500	46.7760
 1.3510	46.6590
 1.3520	46.5470
 1.3530	46.4330
 1.3540	46.3260
 1.3550	46.2260
 1.3560	46.1280
 1.3570	46.0330
 1.3580	45.9230
 1.3590	45.8110
 1.3600	45.6880
 1.3610	45.5540
 1.3620	45.4220
 1.3630	45.2840
 1.3640	45.1400
 1.3650	44.9830
 1.3660	44.8180
 1.3670	44.6380
 1.3680	44.4500
 1.3690	44.2580
 1.3700	44.0490
 1.3710	43.8290
 1.3720	43.5880
 1.3730	43.3350
 1.3740	43.0590
 1.3750	42.7620
 1.3760	42.4550
 1.3770	42.1250
 1.3780	41.7660
 1.3790	41.3930
 1.3800	40.9960
 1.3810	40.5600
 1.3820	40.1090
 1.3830	39.6440
 1.3840	39.1450
 1.3850	38.6180
 1.3860	38.0780
 1.3870	37.5020
 1.3880	36.9340
 1.3890	36.3610
 1.3900	35.7730
 1.3910	35.1840
 1.3920	34.5890
 1.3930	33.9830
 1.3940	33.3760
 1.3950	32.7740
 1.3960	32.1880
 1.3970	31.6120
 1.3980	31.0500
 1.3990	30.5040
 1.4000	29.9610
 1.4010	29.4360
 1.4020	28.9330
 1.4030	28.4540
 1.4040	28.0000
 1.4050	27.5690
 1.4060	27.1610
 1.4070	26.7850
 1.4080	26.4320
 1.4090	26.1060
 1.4100	25.8020
 1.4110	25.5050
 1.4120	25.2230
 1.4130	24.9590
 1.4140	24.7130
 1.4150	24.4960
 1.4160	24.2960
 1.4170	24.1040
 1.4180	23.9260
 1.4190	23.7570
 1.4200	23.6010
 1.4210	23.4590
 1.4220	23.3280
 1.4230	23.2140
 1.4240	23.1090
 1.4250	23.0120
 1.4260	22.9290
 1.4270	22.8480
 1.4280	22.7690
 1.4290	22.6980
 1.4300	22.6310
 1.4310	22.5750
 1.4320	22.5300
 1.4330	22.4870
 1.4340	22.4550
 1.4350	22.4220
 1.4360	22.3900
 1.4370	22.3620
 1.4380	22.3390
 1.4390	22.3230
 1.4400	22.3110
 1.4410	22.3050
 1.4420	22.3020
 1.4430	22.2950
 1.4440	22.2900
 1.4450	22.2930
 1.4460	22.2990
 1.4470	22.3100
 1.4480	22.3300
 1.4490	22.3430
 1.4500	22.3590
 1.4510	22.3780
 1.4520	22.3890
 1.4530	22.4050
 1.4540	22.4220
 1.4550	22.4430
 1.4560	22.4740
 1.4570	22.5120
 1.4580	22.5520
 1.4590	22.5960
 1.4600	22.6430
 1.4610	22.6930
 1.4620	22.7450
 1.4630	22.8050
 1.4640	22.8720
 1.4650	22.9420
 1.4660	23.0190
 1.4670	23.0980
 1.4680	23.1800
 1.4690	23.2730
 1.4700	23.3680
 1.4710	23.4720
 1.4720	23.5810
 1.4730	23.6860
 1.4740	23.7930
 1.4750	23.9080
 1.4760	24.0300
 1.4770	24.1530
 1.4780	24.2830
 1.4790	24.4140
 1.4800	24.5400
 1.4810	24.6720
 1.4820	24.8050
 1.4830	24.9360
 1.4840	25.0710
 1.4850	25.2140
 1.4860	25.3560
 1.4870	25.5030
 1.4880	25.6540
 1.4890	25.7940
 1.4900	25.9360
 1.4910	26.0780
 1.4920	26.2180
 1.4930	26.3560
 1.4940	26.4990
 1.4950	26.6420
 1.4960	26.7920
 1.4970	26.9500
 1.4980	27.1010
 1.4990	27.2550
 1.5000	27.4040
 1.5010	27.5440
 1.5020	27.6910
 1.5030	27.8400
 1.5040	27.9910
 1.5050	28.1480
 1.5060	28.3000
 1.5070	28.4590
 1.5080	28.6070
 1.5090	28.7450
 1.5100	28.8840
 1.5110	29.0270
 1.5120	29.1680
 1.5130	29.3240
 1.5140	29.4820
 1.5150	29.6300
 1.5160	29.7790
 1.5170	29.9230
 1.5180	30.0600
 1.5190	30.2000
 1.5200	30.3470
 1.5210	30.5000
 1.5220	30.6460
 1.5230	30.7950
 1.5240	30.9390
 1.5250	31.0670
 1.5260	31.2050
 1.5270	31.3530
 1.5280	31.4940
 1.5290	31.6400
 1.5300	31.7840
 1.5310	31.9200
 1.5320	32.0500
 1.5330	32.1780
 1.5340	32.3070
 1.5350	32.4340
 1.5360	32.5610
 1.5370	32.6890
 1.5380	32.8180
 1.5390	32.9480
 1.5400	33.0750
 1.5410	33.1960
 1.5420	33.3200
 1.5430	33.4410
 1.5440	33.5590
 1.5450	33.6910
 1.5460	33.8100
 1.5470	33.9210
 1.5480	34.0390
 1.5490	34.1460
 1.5500	34.2580
 1.5510	34.3740
 1.5520	34.4890
 1.5530	34.6150
 1.5540	34.7340
 1.5550	34.8420
 1.5560	34.9490
 1.5570	35.0420
 1.5580	35.1330
 1.5590	35.2370
 1.5600	35.3390
 1.5610	35.4400
 1.5620	35.5380
 1.5630	35.6320
 1.5640	35.7320
 1.5650	35.8260
 1.5660	35.9200
 1.5670	36.0140
 1.5680	36.1030
 1.5690	36.2010
 1.5700	36.3070
 1.5710	36.4100
 1.5720	36.5130
 1.5730	36.6020
 1.5740	36.6850
 1.5750	36.7710
 1.5760	36.8530
 1.5770	36.9340
 1.5780	37.0160
 1.5790	37.0900
 1.5800	37.1640
 1.5810	37.2440
 1.5820	37.3210
 1.5830	37.3950
 1.5840	37.4700
 1.5850	37.5420
 1.5860	37.6210
 1.5870	37.7050
 1.5880	37.7880
 1.5890	37.8640
 1.5900	37.9280
 1.5910	37.9940
 1.5920	38.0590
 1.5930	38.1280
 1.5940	38.2060
 1.5950	38.2760
 1.5960	38.3440
 1.5970	38.4100
 1.5980	38.4710
 1.5990	38.5380
 1.6000	38.6060
 1.6010	38.6680
 1.6020	38.7260
 1.6030	38.7820
 1.6040	38.8440
 1.6050	38.9060
 1.6060	38.9670
 1.6070	39.0230
 1.6080	39.0690
 1.6090	39.1160
 1.6100	39.1790
 1.6110	39.2440
 1.6120	39.3080
 1.6130	39.3720
 1.6140	39.4290
 1.6150	39.4830
 1.6160	39.5310
 1.6170	39.5780
 1.6180	39.6150
 1.6190	39.6500
 1.6200	39.6990
 1.6210	39.7540
 1.6220	39.8060
 1.6230	39.8590
 1.6240	39.9090
 1.6250	39.9490
 1.6260	39.9930
 1.6270	40.0420
 1.6280	40.0810
 1.6290	40.1220
 1.6300	40.1640
 1.6310	40.2030
 1.6320	40.2370
 1.6330	40.2760
 1.6340	40.3140
 1.6350	40.3520
 1.6360	40.3890
 1.6370	40.4270
 1.6380	40.4720
 1.6390	40.5080
 1.6400	40.5410
 1.6410	40.5740
 1.6420	40.5960
 1.6430	40.6200
 1.6440	40.6470
 1.6450	40.6600
 1.6460	40.6780
 1.6470	40.6890
 1.6480	40.7080
 1.6490	40.7380
 1.6500	40.7590
 1.6510	40.7810
 1.6520	40.8110
 1.6530	40.8260
 1.6540	40.8330
 1.6550	40.8450
 1.6560	40.8450
 1.6570	40.8440
 1.6580	40.8560
 1.6590	40.8710
 1.6600	40.8820
 1.6610	40.8950
 1.6620	40.8990
 1.6630	40.8920
 1.6640	40.8880
 1.6650	40.8780
 1.6660	40.8710
 1.6670	40.8610
 1.6680	40.8490
 1.6690	40.8460
 1.6700	40.8490
 1.6710	40.8420
 1.6720	40.8350
 1.6730	40.8280
 1.6740	40.8050
 1.6750	40.7830
 1.6760	40.7590
 1.6770	40.7330
 1.6780	40.7000
 1.6790	40.6780
 1.6800	40.6720
 1.6810	40.6550
 1.6820	40.6470
 1.6830	40.6440
 1.6840	40.6130
 1.6850	40.5830
 1.6860	40.5490
 1.6870	40.5030
 1.6880	40.4730
 1.6890	40.4460
 1.6900	40.4110
 1.6910	40.3710
 1.6920	40.3340
 1.6930	40.2910
 1.6940	40.2550
 1.6950	40.2300
 1.6960	40.1970
 1.6970	40.1590
 1.6980	40.1260
 1.6990	40.0910
 1.7000	40.0590
 1.7010	40.0350
 1.7020	40.0030
 1.7030	39.9660
 1.7040	39.9240
 1.7050	39.8770
 1.7060	39.8370
 1.7070	39.7990
 1.7080	39.7590
 1.7090	39.7190
 1.7100	39.6800
 1.7110	39.6340
 1.7120	39.6050
 1.7130	39.5830
 1.7140	39.5260
 1.7150	39.4750
 1.7160	39.4260
 1.7170	39.3580
 1.7180	39.3110
 1.7190	39.2650
 1.7200	39.2180
 1.7210	39.1680
 1.7220	39.1240
 1.7230	39.0870
 1.7240	39.0380
 1.7250	38.9940
 1.7260	38.9470
 1.7270	38.8840
 1.7280	38.8220
 1.7290	38.7720
 1.7300	38.7360
 1.7310	38.6890
 1.7320	38.6390
 1.7330	38.5870
 1.7340	38.5170
 1.7350	38.4680
 1.7360	38.4420
 1.7370	38.3970
 1.7380	38.3540
 1.7390	38.3040
 1.7400	38.2340
 1.7410	38.1770
 1.7420	38.1280
 1.7430	38.0720
 1.7440	38.0150
 1.7450	37.9550
 1.7460	37.8910
 1.7470	37.8260
 1.7480	37.7580
 1.7490	37.6960
 1.7500	37.6390
 1.7510	37.5690
 1.7520	37.4980
 1.7530	37.4260
 1.7540	37.3390
 1.7550	37.2810
 1.7560	37.2120
 1.7570	37.1540
 1.7580	37.0980
 1.7590	37.0270
 1.7600	36.9610
 1.7610	36.8810
 1.7620	36.8100
 1.7630	36.7450
 1.7640	36.6800
 1.7650	36.6160
 1.7660	36.5550
 1.7670	36.4950
 1.7680	36.4400
 1.7690	36.3930
 1.7700	36.3420
 1.7710	36.2900
 1.7720	36.2440
 1.7730	36.1990
 1.7740	36.1610
 1.7750	36.1350
 1.7760	36.1010
 1.7770	36.0700
 1.7780	36.0290
 1.7790	35.9750
 1.7800	35.9380
 1.7810	35.9030
 1.7820	35.8680
 1.7830	35.8400
 1.7840	35.8180
 1.7850	35.7890
 1.7860	35.7810
 1.7870	35.7940
 1.7880	35.7880
 1.7890	35.7830
 1.7900	35.7440
 1.7910	35.7310
 1.7920	35.7390
 1.7930	35.7330
 1.7940	35.7300
 1.7950	35.7300
 1.7960	35.7180
 1.7970	35.7090
 1.7980	35.7080
 1.7990	35.7090
 1.8000	35.7050
 1.8010	35.7060
 1.8020	35.7230
 1.8030	35.7260
 1.8040	35.7190
 1.8050	35.7200
 1.8060	35.7160
 1.8070	35.7230
 1.8080	35.7370
 1.8090	35.7510
 1.8100	35.7700
 1.8110	35.7820
 1.8120	35.7970
 1.8130	35.8030
 1.8140	35.8020
 1.8150	35.7870
 1.8160	35.7700
 1.8170	35.7540
 1.8180	35.7420
 1.8190	35.7540
 1.8200	35.7490
 1.8210	35.7310
 1.8220	35.7230
 1.8230	35.7150
 1.8240	35.7050
 1.8250	35.7070
 1.8260	35.7020
 1.8270	35.6890
 1.8280	35.6710
 1.8290	35.6500
 1.8300	35.6270
 1.8310	35.3410
 1.8320	35.3460
 1.8330	35.2980
 1.8340	35.2500
 1.8350	35.2070
 1.8360	35.1590
 1.8370	35.1390
 1.8380	35.0970
 1.8390	35.0380
 1.8400	34.9600
 1.8410	34.8850
 1.8420	34.8030
 1.8430	34.7030
 1.8440	34.6060
 1.8450	34.4960
 1.8460	34.3630
 1.8470	34.2460
 1.8480	34.1160
 1.8490	33.9630
 1.8500	33.8150
 1.8510	33.6690
 1.8520	33.5050
 1.8530	33.3160
 1.8540	33.1160
 1.8550	32.9000
 1.8560	32.6530
 1.8570	32.3630
 1.8580	32.0710
 1.8590	31.7670
 1.8600	31.4370
 1.8610	31.0760
 1.8620	30.7470
 1.8630	30.4140
 1.8640	30.0360
 1.8650	29.6490
 1.8660	29.2550
 1.8670	28.8290
 1.8680	28.3690
 1.8690	27.8870
 1.8700	27.3950
 1.8710	26.8840
 1.8720	26.3480
 1.8730	25.7850
 1.8740	25.2320
 1.8750	24.6620
 1.8760	24.0570
 1.8770	23.4850
 1.8780	22.9010
 1.8790	22.2850
 1.8800	21.7070
 1.8810	21.1500
 1.8820	20.5880
 1.8830	20.0220
 1.8840	19.4770
 1.8850	18.9060
 1.8860	18.3530
 1.8870	17.8410
 1.8880	17.3510
 1.8890	16.8860
 1.8900	16.4200
 1.8910	15.9820
 1.8920	15.5500
 1.8930	15.1580
 1.8940	14.8150
 1.8950	14.5160
 1.8960	14.2370
 1.8970	13.9710
 1.8980	13.7060
 1.8990	13.4650
 1.9000	13.2440
 1.9010	13.0340
 1.9020	12.8600
 1.9030	12.7290
 1.9040	12.5870
 1.9050	12.4550
 1.9060	12.3590
 1.9070	12.2390
 1.9080	12.1470
 1.9090	12.0820
 1.9100	12.0180
 1.9110	11.9590
 1.9120	11.9070
 1.9130	11.8670
 1.9140	11.8360
 1.9150	11.8060
 1.9160	11.7910
 1.9170	11.7790
 1.9180	11.7550
 1.9190	11.7350
 1.9200	11.7100
 1.9210	11.6840
 1.9220	11.6730
 1.9230	11.6730
 1.9240	11.6690
 1.9250	11.6730
 1.9260	11.6830
 1.9270	11.6830
 1.9280	11.6790
 1.9290	11.6810
 1.9300	11.6860
 1.9310	11.6680
 1.9320	11.6640
 1.9330	11.6610
 1.9340	11.6470
 1.9350	11.6550
 1.9360	11.6840
 1.9370	11.7030
 1.9380	11.7360
 1.9390	11.7560
 1.9400	11.7710
 1.9410	11.7980
 1.9420	11.8060
 1.9430	11.8360
 1.9440	11.8670
 1.9450	11.8970
 1.9460	11.9280
 1.9470	11.9780
 1.9480	12.0060
 1.9490	12.0160
 1.9500	12.0440
 1.9510	12.0780
 1.9520	12.1060
 1.9530	12.1500
 1.9540	12.1950
 1.9550	12.2300
 1.9560	12.2540
 1.9570	12.2900
 1.9580	12.3240
 1.9590	12.3680
 1.9600	12.4290
 1.9610	12.4750
 1.9620	12.5280
 1.9630	12.5620
 1.9640	12.5780
 1.9650	12.6080
 1.9660	12.6490
 1.9670	12.6890
 1.9680	12.7410
 1.9690	12.8160
 1.9700	12.8720
 1.9710	12.9210
 1.9720	12.9770
 1.9730	13.0370
 1.9740	13.0810
 1.9750	13.1280
 1.9760	13.1830
 1.9770	13.2250
 1.9780	13.2810
 1.9790	13.3490
 1.9800	13.4360
 1.9810	13.5040
 1.9820	13.5760
 1.9830	13.6400
 1.9840	13.6850
 1.9850	13.7490
 1.9860	13.8150
 1.9870	13.9030
 1.9880	13.9940
 1.9890	14.0780
 1.9900	14.1560
 1.9910	14.2320
 1.9920	14.3070
 1.9930	14.3800
 1.9940	14.4490
 1.9950	14.5130
 1.9960	14.5790
 1.9970	14.6400
 1.9980	14.7090
 1.9990	14.7740
 2.0000	14.8640
 2.0010	14.9590
 2.0020	15.0370
 2.0030	15.1280
 2.0040	15.2040
 2.0050	15.2810
 2.0060	15.3480
 2.0070	15.4230
 2.0080	15.5020
 2.0090	15.5770
 2.0100	15.6460
 2.0110	15.7280
 2.0120	15.8200
 2.0130	15.9060
 2.0140	15.9990
 2.0150	16.0770
 2.0160	16.1490
 2.0170	16.2210
 2.0180	16.3000
 2.0190	16.3930
 2.0200	16.4700
 2.0210	16.5430
 2.0220	16.6110
 2.0230	16.6590
 2.0240	16.7240
 2.0250	16.7890
 2.0260	16.8610
 2.0270	16.9420
 2.0280	17.0330
 2.0290	17.1230
 2.0300	17.2160
 2.0310	17.2870
 2.0320	17.3410
 2.0330	17.4020
 2.0340	17.4420
 2.0350	17.5080
 2.0360	17.6000
 2.0370	17.6760
 2.0380	17.7440
 2.0390	17.8210
 2.0400	17.8990
 2.0410	17.9720
 2.0420	18.0450
 2.0430	18.1360
 2.0440	18.2070
 2.0450	18.2580
 2.0460	18.3310
 2.0470	18.4100
 2.0480	18.4880
 2.0490	18.5840
 2.0500	18.6580
 2.0510	18.7150
 2.0520	18.7830
 2.0530	18.8490
 2.0540	18.9120
 2.0550	18.9770
 2.0560	19.0500
 2.0570	19.1080
 2.0580	19.1600
 2.0590	19.2200
 2.0600	19.2740
 2.0610	19.3460
 2.0620	19.4270
 2.0630	19.5140
 2.0640	19.6250
 2.0650	19.7110
 2.0660	19.7890
 2.0670	19.8640
 2.0680	19.9250
 2.0690	19.9870
 2.0700	20.0390
 2.0710	20.1060
 2.0720	20.1810
 2.0730	20.2480
 2.0740	20.3240
 2.0750	20.4180
 2.0760	20.4990
 2.0770	20.5750
 2.0780	20.6510
 2.0790	20.7290
 2.0800	20.7970
 2.0810	20.8540
 2.0820	20.9150
 2.0830	20.9690
 2.0840	21.0330
 2.0850	21.0990
 2.0860	21.1710
 2.0870	21.2590
 2.0880	21.3330
 2.0890	21.4010
 2.0900	21.4650
 2.0910	21.5330
 2.0920	21.5890
 2.0930	21.6610
 2.0940	21.7510
 2.0950	21.8270
 2.0960	21.9080
 2.0970	21.9800
 2.0980	22.0490
 2.0990	22.1120
 2.1000	22.1660
 2.1010	22.2240
 2.1020	22.2750
 2.1030	22.3340
 2.1040	22.3910
 2.1050	22.4680
 2.1060	22.5340
 2.1070	22.6000
 2.1080	22.6710
 2.1090	22.7460
 2.1100	22.8120
 2.1110	22.8840
 2.1120	22.9410
 2.1130	22.9850
 2.1140	23.0260
 2.1150	23.0420
 2.1160	23.0900
 2.1170	23.1440
 2.1180	23.2100
 2.1190	23.3230
 2.1200	23.4010
 2.1210	23.4680
 2.1220	23.5280
 2.1230	23.5730
 2.1240	23.5860
 2.1250	23.6320
 2.1260	23.6800
 2.1270	23.7320
 2.1280	23.7980
 2.1290	23.8590
 2.1300	23.9290
 2.1310	23.9750
 2.1320	24.0110
 2.1330	24.0470
 2.1340	24.0490
 2.1350	24.0840
 2.1360	24.1510
 2.1370	24.1940
 2.1380	24.2440
 2.1390	24.2800
 2.1400	24.2840
 2.1410	24.3090
 2.1420	24.3150
 2.1430	24.3050
 2.1440	24.3190
 2.1450	24.3220
 2.1460	24.3610
 2.1470	24.4400
 2.1480	24.5010
 2.1490	24.5890
 2.1500	24.6420
 2.1510	24.6880
 2.1520	24.7080
 2.1530	24.6780
 2.1540	24.6820
 2.1550	24.6690
 2.1560	24.6840
 2.1570	24.7510
 2.1580	24.7860
 2.1590	24.8150
 2.1600	24.8430
 2.1610	24.8560
 2.1620	24.8900
 2.1630	24.9110
 2.1640	24.9440
 2.1650	24.9570
 2.1660	24.9450
 2.1670	24.9550
 2.1680	24.9720
 2.1690	24.9820
 2.1700	24.9960
 2.1710	25.0100
 2.1720	25.0080
 2.1730	25.0290
 2.1740	25.0810
 2.1750	25.1080
 2.1760	25.1320
 2.1770	25.1560
 2.1780	25.1710
 2.1790	25.1800
 2.1800	25.1920
 2.1810	25.2040
 2.1820	25.2150
 2.1830	25.2000
 2.1840	25.2180
 2.1850	25.2610
 2.1860	25.2660
 2.1870	25.2570
 2.1880	25.2720
 2.1890	25.2670
 2.1900	25.2900
 2.1910	25.3550
 2.1920	25.3970
 2.1930	25.4430
 2.1940	25.4700
 2.1950	25.4960
 2.1960	25.5070
 2.1970	25.4760
 2.1980	25.4800
 2.1990	25.5040
 2.2000	25.5120
 2.2010	25.5210
 2.2020	25.5400
 2.2030	25.5510
 2.2040	25.5690
 2.2050	25.6100
 2.2060	25.6420
 2.2070	25.6540
 2.2080	25.6450
 2.2090	25.6520
 2.2100	25.6510
 2.2110	25.6550
 2.2120	25.6690
 2.2130	25.6780
 2.2140	25.6800
 2.2150	25.6870
 2.2160	25.7000
 2.2170	25.7080
 2.2180	25.7190
 2.2190	25.7170
 2.2200	25.6980
 2.2210	25.7000
 2.2220	25.7030
 2.2230	25.7070
 2.2240	25.7380
 2.2250	25.7460
 2.2260	25.7350
 2.2270	25.7260
 2.2280	25.7100
 2.2290	25.6900
 2.2300	25.6600
 2.2310	25.6440
 2.2320	25.6200
 2.2330	25.5820
 2.2340	25.5420
 2.2350	25.4940
 2.2360	25.4580
 2.2370	25.4220
 2.2380	25.3840
 2.2390	25.3480
 2.2400	25.3150
 2.2410	25.2820
 2.2420	25.2380
 2.2430	25.1920
 2.2440	25.1490
 2.2450	25.0970
 2.2460	25.0450
 2.2470	25.0130
 2.2480	24.9460
 2.2490	24.8360
 2.2500	24.7660
 2.2510	24.7000
 2.2520	24.6410
 2.2530	24.6210
 2.2540	24.5740
 2.2550	24.5100
 2.2560	24.4480
 2.2570	24.3810
 2.2580	24.3070
 2.2590	24.2030
 2.2600	24.1380
 2.2610	24.0750
 2.2620	24.0620
 2.2630	24.0350
 2.2640	24.0020
 2.2650	23.9510
 2.2660	23.8390
 2.2670	23.7740
 2.2680	23.7210
 2.2690	23.6590
 2.2700	23.6100
 2.2710	23.5450
 2.2720	23.4660
 2.2730	23.4010
 2.2740	23.3340
 2.2750	23.2690
 2.2760	23.2010
 2.2770	23.1350
 2.2780	23.0620
 2.2790	23.0150
 2.2800	22.9950
 2.2810	22.9590
 2.2820	22.9310
 2.2830	22.8970
 2.2840	22.8580
 2.2850	22.7980
 2.2860	22.7240
 2.2870	22.6600
 2.2880	22.5850
 2.2890	22.5090
 2.2900	22.4310
 2.2910	22.3710
 2.2920	22.3100
 2.2930	22.2530
 2.2940	22.2250
 2.2950	22.1880
 2.2960	22.1480
 2.2970	22.1010
 2.2980	22.0660
 2.2990	22.0070
 2.3000	21.9350
 2.3010	21.8450
 2.3020	21.7190
 2.3030	21.6380
 2.3040	21.6050
 2.3050	21.5710
 2.3060	21.5790
 2.3070	21.5640
 2.3080	21.4420
 2.3090	21.3310
 2.3100	21.2410
 2.3110	21.1390
 2.3120	21.0890
 2.3130	21.1040
 2.3140	21.0810
 2.3150	21.0610
 2.3160	21.0370
 2.3170	21.0090
 2.3180	20.9840
 2.3190	20.9580
 2.3200	20.9450
 2.3210	20.9370
 2.3220	20.9190
 2.3230	20.9050
 2.3240	20.8910
 2.3250	20.8830
 2.3260	20.8580
 2.3270	20.8230
 2.3280	20.7950
 2.3290	20.7600
 2.3300	20.7140
 2.3310	20.6810
 2.3320	20.6180
 2.3330	20.5120
 2.3340	20.4290
 2.3350	20.3310
 2.3360	20.2650
 2.3370	20.2310
 2.3380	20.1800
 2.3390	20.1580
 2.3400	20.0900
 2.3410	19.9540
 2.3420	19.8760
 2.3430	19.7900
 2.3440	19.7410
 2.3450	19.8010
 2.3460	19.7650
 2.3470	19.6420
 2.3480	19.5940
 2.3490	19.5690
 2.3500	19.5160
 2.3510	19.5210
 2.3520	19.4950
 2.3530	19.4240
 2.3540	19.2910
 2.3550	19.2650
 2.3560	19.2510
 2.3570	19.2540
 2.3580	19.2550
 2.3590	19.2130
 2.3600	19.1440
 2.3610	19.0690
 2.3620	19.0550
 2.3630	19.0290
 2.3640	19.0160
 2.3650	19.0100
 2.3660	18.9330
 2.3670	18.8940
 2.3680	18.8780
 2.3690	18.8090
 2.3700	18.7420
 2.3710	18.6730
 2.3720	18.5620
 2.3730	18.4380
 2.3740	18.3190
 2.3750	18.2630
 2.3760	18.1810
 2.3770	18.1100
 2.3780	18.1200
 2.3790	17.9610
 2.3800	17.8350
 2.3810	17.8520
 2.3820	17.7530
 2.3830	17.7120
 2.3840	17.7460
 2.3850	17.7120
 2.3860	17.6640
 2.3870	17.6410
 2.3880	17.5890
 2.3890	17.5100
 2.3900	17.4980
 2.3910	17.4770
 2.3920	17.4190
 2.3930	17.3700
 2.3940	17.3470
 2.3950	17.2970
 2.3960	17.2480
 2.3970	17.2070
 2.3980	17.0890
 2.3990	17.0310
 2.4000	17.0240
 2.4010	17.0470
 2.4020	17.1090
 2.4030	17.0930
 2.4040	17.0360
 2.4050	16.9580
 2.4060	16.8100
 2.4070	16.6530
 2.4080	16.5700
 2.4090	16.5330
 2.4100	16.5180
 2.4110	16.5690
 2.4120	16.6180
 2.4130	16.5090
 2.4140	16.3460
 2.4150	16.1950
 2.4160	16.0630
 2.4170	16.0780
 2.4180	16.0630
 2.4190	16.0850
 2.4200	16.0670
 2.4210	15.8900
 2.4220	15.8270
 2.4230	15.7100
 2.4240	15.6240
 2.4250	15.6110
 2.4260	15.5700
 2.4270	15.5790
 2.4280	15.4400
 2.4290	15.3890
 2.4300	15.3970
 2.4310	15.3600
 2.4320	15.5030
 2.4330	15.5220
 2.4340	15.4990
 2.4350	15.5140
 2.4360	15.4230
 2.4370	15.3970
 2.4380	15.2780
 2.4390	15.0530
 2.4400	14.9310
 2.4410	14.8870
 2.4420	14.9220
 2.4430	15.0030
 2.4440	15.0430
 2.4450	14.9460
 2.4460	14.7530
 2.4470	14.6090
 2.4480	14.4870
 2.4490	14.4310
 2.4500	14.5220
 2.4510	14.5230
 2.4520	14.4410
 2.4530	14.3970
 2.4540	14.2440
 2.4550	14.1850
 2.4560	14.2270
 2.4570	14.2060
 2.4580	14.2140
 2.4590	14.1760
 2.4600	14.1440
 2.4610	14.1110
 2.4620	14.0290
 2.4630	13.9820
 2.4640	13.9220
 2.4650	13.8550
 2.4660	13.7110
 2.4670	13.5260
 2.4680	13.4750
 2.4690	13.4220
 2.4700	13.4990
 2.4710	13.7790
 2.4720	13.8680
 2.4730	14.0420
 2.4740	14.0820
 2.4750	13.8920
 2.4760	13.7990
 2.4770	13.6140
 2.4780	13.4890
 2.4790	13.4660
 2.4800	13.3930
 2.4810	13.3480
 2.4820	13.3700
 2.4830	13.3430
 2.4840	13.3460
 2.4850	13.2190
 2.4860	13.1180
 2.4870	12.9570
 2.4880	12.8990
 2.4890	12.9210
 2.4900	12.7270
 2.4910	12.7170
 2.4920	12.6130
 2.4930	12.4930
 2.4940	12.8860
 2.4950	13.0350
 2.4960	12.9930
 2.4970	13.0370
 2.4980	12.5730
 2.4990	12.2920
 2.5000	12.7380
