Name: Bambusa beecheyana
Type: vegetation
Class: Tree
Genus: Bambusa
Species: beecheyana
Sample No.: JPL246
Owner: JPL
Wavelength Range: VSWIR
Origin: 34.12536; -118.11136; WGS84
Collection Date: 10/6/2016
Description: Samples were collected at the Huntington Garden in San Marino California as part of a JPL Subcontract studying HyTES imagery. Samples were taken to JPL and processed within 48 hours of collection. The same leaves were processed in the Nicolet and then measured using the ASD.
Measurement: Bidirectional reflectance
First Column: X
Second Column: Y
X Units: Wavelength (micrometer)
Y Units: Reflectance (percentage)
First X Value: 0.35
Last X Value: 2.5
Number of X Values: 2151
Additional Information: vegetation.tree.bambusa.beecheyana.vswir.jpl246.jpl.asd.ancillary.txt

 0.3500	 6.6320
 0.3510	 6.5030
 0.3520	 6.3580
 0.3530	 6.3310
 0.3540	 6.4480
 0.3550	 6.4200
 0.3560	 6.3800
 0.3570	 6.3600
 0.3580	 6.3370
 0.3590	 6.3670
 0.3600	 6.3750
 0.3610	 6.3360
 0.3620	 6.3060
 0.3630	 6.3430
 0.3640	 6.3730
 0.3650	 6.3290
 0.3660	 6.3010
 0.3670	 6.2660
 0.3680	 6.2450
 0.3690	 6.2810
 0.3700	 6.2830
 0.3710	 6.2950
 0.3720	 6.3260
 0.3730	 6.2760
 0.3740	 6.2460
 0.3750	 6.2290
 0.3760	 6.2060
 0.3770	 6.2780
 0.3780	 6.3220
 0.3790	 6.3250
 0.3800	 6.3680
 0.3810	 6.3510
 0.3820	 6.3270
 0.3830	 6.3350
 0.3840	 6.3310
 0.3850	 6.2870
 0.3860	 6.2730
 0.3870	 6.3580
 0.3880	 6.3790
 0.3890	 6.3740
 0.3900	 6.3640
 0.3910	 6.3470
 0.3920	 6.3490
 0.3930	 6.3610
 0.3940	 6.3730
 0.3950	 6.4030
 0.3960	 6.4110
 0.3970	 6.4040
 0.3980	 6.4080
 0.3990	 6.4240
 0.4000	 6.4300
 0.4010	 6.4250
 0.4020	 6.4350
 0.4030	 6.4530
 0.4040	 6.4620
 0.4050	 6.4530
 0.4060	 6.4520
 0.4070	 6.4590
 0.4080	 6.4690
 0.4090	 6.4800
 0.4100	 6.4700
 0.4110	 6.4640
 0.4120	 6.4710
 0.4130	 6.4730
 0.4140	 6.4850
 0.4150	 6.4930
 0.4160	 6.4860
 0.4170	 6.4970
 0.4180	 6.5080
 0.4190	 6.5110
 0.4200	 6.5130
 0.4210	 6.5050
 0.4220	 6.5040
 0.4230	 6.5120
 0.4240	 6.4960
 0.4250	 6.4970
 0.4260	 6.5050
 0.4270	 6.4960
 0.4280	 6.4980
 0.4290	 6.5000
 0.4300	 6.4960
 0.4310	 6.4890
 0.4320	 6.4690
 0.4330	 6.4520
 0.4340	 6.4530
 0.4350	 6.4480
 0.4360	 6.4390
 0.4370	 6.4340
 0.4380	 6.4410
 0.4390	 6.4600
 0.4400	 6.4730
 0.4410	 6.4720
 0.4420	 6.4740
 0.4430	 6.4720
 0.4440	 6.4710
 0.4450	 6.4750
 0.4460	 6.4830
 0.4470	 6.4910
 0.4480	 6.4930
 0.4490	 6.4870
 0.4500	 6.4910
 0.4510	 6.5000
 0.4520	 6.5010
 0.4530	 6.5010
 0.4540	 6.5030
 0.4550	 6.5070
 0.4560	 6.5140
 0.4570	 6.5180
 0.4580	 6.5150
 0.4590	 6.5060
 0.4600	 6.5040
 0.4610	 6.5040
 0.4620	 6.5060
 0.4630	 6.5080
 0.4640	 6.5100
 0.4650	 6.5040
 0.4660	 6.4940
 0.4670	 6.4950
 0.4680	 6.4980
 0.4690	 6.4980
 0.4700	 6.4920
 0.4710	 6.4940
 0.4720	 6.5010
 0.4730	 6.5040
 0.4740	 6.4940
 0.4750	 6.4930
 0.4760	 6.4990
 0.4770	 6.5060
 0.4780	 6.4980
 0.4790	 6.4950
 0.4800	 6.4960
 0.4810	 6.4950
 0.4820	 6.4940
 0.4830	 6.4920
 0.4840	 6.4900
 0.4850	 6.4860
 0.4860	 6.4850
 0.4870	 6.4850
 0.4880	 6.4840
 0.4890	 6.4900
 0.4900	 6.4950
 0.4910	 6.5000
 0.4920	 6.5130
 0.4930	 6.5220
 0.4940	 6.5320
 0.4950	 6.5440
 0.4960	 6.5600
 0.4970	 6.5730
 0.4980	 6.5870
 0.4990	 6.6070
 0.5000	 6.6280
 0.5010	 6.6560
 0.5020	 6.6890
 0.5030	 6.7210
 0.5040	 6.7520
 0.5050	 6.7910
 0.5060	 6.8410
 0.5070	 6.8920
 0.5080	 6.9500
 0.5090	 7.0150
 0.5100	 7.0860
 0.5110	 7.1720
 0.5120	 7.2690
 0.5130	 7.3740
 0.5140	 7.4890
 0.5150	 7.6130
 0.5160	 7.7470
 0.5170	 7.8940
 0.5180	 8.0490
 0.5190	 8.2130
 0.5200	 8.3840
 0.5210	 8.5570
 0.5220	 8.7290
 0.5230	 8.9000
 0.5240	 9.0710
 0.5250	 9.2380
 0.5260	 9.3970
 0.5270	 9.5470
 0.5280	 9.6860
 0.5290	 9.8130
 0.5300	 9.9290
 0.5310	10.0340
 0.5320	10.1260
 0.5330	10.2060
 0.5340	10.2760
 0.5350	10.3370
 0.5360	10.3860
 0.5370	10.4240
 0.5380	10.4530
 0.5390	10.4740
 0.5400	10.4860
 0.5410	10.4930
 0.5420	10.4970
 0.5430	10.5020
 0.5440	10.5120
 0.5450	10.5260
 0.5460	10.5450
 0.5470	10.5640
 0.5480	10.5800
 0.5490	10.5930
 0.5500	10.6010
 0.5510	10.6020
 0.5520	10.5960
 0.5530	10.5820
 0.5540	10.5630
 0.5550	10.5310
 0.5560	10.4850
 0.5570	10.4310
 0.5580	10.3640
 0.5590	10.2870
 0.5600	10.2020
 0.5610	10.1090
 0.5620	10.0100
 0.5630	 9.9050
 0.5640	 9.7960
 0.5650	 9.6870
 0.5660	 9.5780
 0.5670	 9.4670
 0.5680	 9.3510
 0.5690	 9.2320
 0.5700	 9.1160
 0.5710	 9.0040
 0.5720	 8.8950
 0.5730	 8.7930
 0.5740	 8.6970
 0.5750	 8.6060
 0.5760	 8.5200
 0.5770	 8.4380
 0.5780	 8.3590
 0.5790	 8.2840
 0.5800	 8.2170
 0.5810	 8.1570
 0.5820	 8.1030
 0.5830	 8.0560
 0.5840	 8.0150
 0.5850	 7.9760
 0.5860	 7.9350
 0.5870	 7.8920
 0.5880	 7.8500
 0.5890	 7.8150
 0.5900	 7.7870
 0.5910	 7.7600
 0.5920	 7.7330
 0.5930	 7.7050
 0.5940	 7.6880
 0.5950	 7.6750
 0.5960	 7.6620
 0.5970	 7.6500
 0.5980	 7.6350
 0.5990	 7.6180
 0.6000	 7.6020
 0.6010	 7.5860
 0.6020	 7.5680
 0.6030	 7.5470
 0.6040	 7.5240
 0.6050	 7.4970
 0.6060	 7.4670
 0.6070	 7.4340
 0.6080	 7.3980
 0.6090	 7.3570
 0.6100	 7.3050
 0.6110	 7.2470
 0.6120	 7.2120
 0.6130	 7.1910
 0.6140	 7.1700
 0.6150	 7.1430
 0.6160	 7.1160
 0.6170	 7.0880
 0.6180	 7.0610
 0.6190	 7.0370
 0.6200	 7.0130
 0.6210	 6.9910
 0.6220	 6.9750
 0.6230	 6.9620
 0.6240	 6.9490
 0.6250	 6.9360
 0.6260	 6.9290
 0.6270	 6.9230
 0.6280	 6.9170
 0.6290	 6.9110
 0.6300	 6.9010
 0.6310	 6.8910
 0.6320	 6.8840
 0.6330	 6.8770
 0.6340	 6.8650
 0.6350	 6.8470
 0.6360	 6.8260
 0.6370	 6.8000
 0.6380	 6.7720
 0.6390	 6.7450
 0.6400	 6.7170
 0.6410	 6.6900
 0.6420	 6.6630
 0.6430	 6.6350
 0.6440	 6.6110
 0.6450	 6.5910
 0.6460	 6.5740
 0.6470	 6.5600
 0.6480	 6.5460
 0.6490	 6.5370
 0.6500	 6.5310
 0.6510	 6.5280
 0.6520	 6.5270
 0.6530	 6.5290
 0.6540	 6.5360
 0.6550	 6.5390
 0.6560	 6.5420
 0.6570	 6.5470
 0.6580	 6.5520
 0.6590	 6.5570
 0.6600	 6.5610
 0.6610	 6.5660
 0.6620	 6.5760
 0.6630	 6.5870
 0.6640	 6.6020
 0.6650	 6.6230
 0.6660	 6.6460
 0.6670	 6.6720
 0.6680	 6.7020
 0.6690	 6.7380
 0.6700	 6.7780
 0.6710	 6.8250
 0.6720	 6.8770
 0.6730	 6.9340
 0.6740	 6.9950
 0.6750	 7.0610
 0.6760	 7.1330
 0.6770	 7.2080
 0.6780	 7.2910
 0.6790	 7.3780
 0.6800	 7.4650
 0.6810	 7.5550
 0.6820	 7.6450
 0.6830	 7.7300
 0.6840	 7.8070
 0.6850	 7.8750
 0.6860	 7.9340
 0.6870	 7.9890
 0.6880	 8.0400
 0.6890	 8.0950
 0.6900	 8.1650
 0.6910	 8.2590
 0.6920	 8.3880
 0.6930	 8.5630
 0.6940	 8.7930
 0.6950	 9.0880
 0.6960	 9.4510
 0.6970	 9.8810
 0.6980	10.3770
 0.6990	10.9340
 0.7000	11.5430
 0.7010	12.1950
 0.7020	12.8820
 0.7030	13.5940
 0.7040	14.3250
 0.7050	15.0650
 0.7060	15.8110
 0.7070	16.5620
 0.7080	17.3160
 0.7090	18.0740
 0.7100	18.8380
 0.7110	19.6040
 0.7120	20.3730
 0.7130	21.1510
 0.7140	21.9340
 0.7150	22.7210
 0.7160	23.5140
 0.7170	24.3130
 0.7180	25.1150
 0.7190	25.9170
 0.7200	26.7170
 0.7210	27.5170
 0.7220	28.3150
 0.7230	29.1060
 0.7240	29.8910
 0.7250	30.6660
 0.7260	31.4310
 0.7270	32.1830
 0.7280	32.9180
 0.7290	33.6380
 0.7300	34.3410
 0.7310	35.0240
 0.7320	35.6840
 0.7330	36.3200
 0.7340	36.9310
 0.7350	37.5160
 0.7360	38.0730
 0.7370	38.6030
 0.7380	39.1050
 0.7390	39.5780
 0.7400	40.0210
 0.7410	40.4330
 0.7420	40.8160
 0.7430	41.1670
 0.7440	41.4880
 0.7450	41.7810
 0.7460	42.0460
 0.7470	42.2830
 0.7480	42.4930
 0.7490	42.6770
 0.7500	42.8450
 0.7510	42.9940
 0.7520	43.1230
 0.7530	43.2320
 0.7540	43.3310
 0.7550	43.4150
 0.7560	43.4870
 0.7570	43.5510
 0.7580	43.6040
 0.7590	43.6500
 0.7600	43.6890
 0.7610	43.7180
 0.7620	43.7400
 0.7630	43.7560
 0.7640	43.7670
 0.7650	43.7690
 0.7660	43.7680
 0.7670	43.7640
 0.7680	43.7540
 0.7690	43.7410
 0.7700	43.7260
 0.7710	43.7120
 0.7720	43.6980
 0.7730	43.6830
 0.7740	43.6670
 0.7750	43.6540
 0.7760	43.6370
 0.7770	43.6220
 0.7780	43.6090
 0.7790	43.5970
 0.7800	43.5870
 0.7810	43.5780
 0.7820	43.5680
 0.7830	43.5560
 0.7840	43.5470
 0.7850	43.5390
 0.7860	43.5280
 0.7870	43.5190
 0.7880	43.5100
 0.7890	43.5000
 0.7900	43.4880
 0.7910	43.4800
 0.7920	43.4700
 0.7930	43.4580
 0.7940	43.4480
 0.7950	43.4360
 0.7960	43.4240
 0.7970	43.4110
 0.7980	43.3980
 0.7990	43.3840
 0.8000	43.3710
 0.8010	43.3590
 0.8020	43.3460
 0.8030	43.3300
 0.8040	43.3130
 0.8050	43.2970
 0.8060	43.2810
 0.8070	43.2650
 0.8080	43.2500
 0.8090	43.2340
 0.8100	43.2150
 0.8110	43.1960
 0.8120	43.1790
 0.8130	43.1570
 0.8140	43.1370
 0.8150	43.1190
 0.8160	43.1010
 0.8170	43.0820
 0.8180	43.0640
 0.8190	43.0450
 0.8200	43.0250
 0.8210	43.0040
 0.8220	42.9840
 0.8230	42.9650
 0.8240	42.9440
 0.8250	42.9260
 0.8260	42.9060
 0.8270	42.8840
 0.8280	42.8670
 0.8290	42.8480
 0.8300	42.8280
 0.8310	42.8100
 0.8320	42.7910
 0.8330	42.7750
 0.8340	42.7580
 0.8350	42.7400
 0.8360	42.7240
 0.8370	42.7080
 0.8380	42.6920
 0.8390	42.6780
 0.8400	42.6630
 0.8410	42.6500
 0.8420	42.6380
 0.8430	42.6230
 0.8440	42.6120
 0.8450	42.6010
 0.8460	42.5880
 0.8470	42.5790
 0.8480	42.5690
 0.8490	42.5600
 0.8500	42.5530
 0.8510	42.5410
 0.8520	42.5310
 0.8530	42.5260
 0.8540	42.5220
 0.8550	42.5130
 0.8560	42.5050
 0.8570	42.5000
 0.8580	42.4960
 0.8590	42.4930
 0.8600	42.4910
 0.8610	42.4890
 0.8620	42.4850
 0.8630	42.4840
 0.8640	42.4860
 0.8650	42.4850
 0.8660	42.4820
 0.8670	42.4810
 0.8680	42.4800
 0.8690	42.4800
 0.8700	42.4820
 0.8710	42.4830
 0.8720	42.4840
 0.8730	42.4860
 0.8740	42.4910
 0.8750	42.4970
 0.8760	42.5020
 0.8770	42.5030
 0.8780	42.5010
 0.8790	42.5010
 0.8800	42.5050
 0.8810	42.5150
 0.8820	42.5240
 0.8830	42.5280
 0.8840	42.5290
 0.8850	42.5330
 0.8860	42.5400
 0.8870	42.5460
 0.8880	42.5500
 0.8890	42.5520
 0.8900	42.5580
 0.8910	42.5640
 0.8920	42.5690
 0.8930	42.5720
 0.8940	42.5750
 0.8950	42.5790
 0.8960	42.5860
 0.8970	42.5940
 0.8980	42.5980
 0.8990	42.6010
 0.9000	42.6090
 0.9010	42.6120
 0.9020	42.6130
 0.9030	42.6140
 0.9040	42.6190
 0.9050	42.6230
 0.9060	42.6270
 0.9070	42.6320
 0.9080	42.6320
 0.9090	42.6360
 0.9100	42.6410
 0.9110	42.6440
 0.9120	42.6440
 0.9130	42.6440
 0.9140	42.6450
 0.9150	42.6480
 0.9160	42.6510
 0.9170	42.6470
 0.9180	42.6440
 0.9190	42.6480
 0.9200	42.6510
 0.9210	42.6460
 0.9220	42.6370
 0.9230	42.6370
 0.9240	42.6380
 0.9250	42.6320
 0.9260	42.6210
 0.9270	42.6160
 0.9280	42.6130
 0.9290	42.6080
 0.9300	42.5990
 0.9310	42.5910
 0.9320	42.5840
 0.9330	42.5770
 0.9340	42.5690
 0.9350	42.5540
 0.9360	42.5410
 0.9370	42.5330
 0.9380	42.5290
 0.9390	42.5170
 0.9400	42.4970
 0.9410	42.4820
 0.9420	42.4770
 0.9430	42.4600
 0.9440	42.4480
 0.9450	42.4320
 0.9460	42.4070
 0.9470	42.3880
 0.9480	42.3850
 0.9490	42.3780
 0.9500	42.3550
 0.9510	42.3320
 0.9520	42.3060
 0.9530	42.2830
 0.9540	42.2650
 0.9550	42.2420
 0.9560	42.2220
 0.9570	42.2040
 0.9580	42.1830
 0.9590	42.1590
 0.9600	42.1390
 0.9610	42.1220
 0.9620	42.1060
 0.9630	42.0840
 0.9640	42.0730
 0.9650	42.0640
 0.9660	42.0490
 0.9670	42.0370
 0.9680	42.0280
 0.9690	42.0190
 0.9700	42.0060
 0.9710	41.9920
 0.9720	41.9800
 0.9730	41.9730
 0.9740	41.9680
 0.9750	41.9610
 0.9760	41.9550
 0.9770	41.9510
 0.9780	41.9480
 0.9790	41.9330
 0.9800	41.9210
 0.9810	41.9100
 0.9820	41.8950
 0.9830	41.8850
 0.9840	41.8880
 0.9850	41.8850
 0.9860	41.8590
 0.9870	41.8550
 0.9880	41.8600
 0.9890	41.8630
 0.9900	41.8570
 0.9910	41.8460
 0.9920	41.8390
 0.9930	41.8400
 0.9940	41.8480
 0.9950	41.8420
 0.9960	41.8390
 0.9970	41.8400
 0.9980	41.8350
 0.9990	41.8300
 1.0000	41.8270
 1.0010	42.3860
 1.0020	42.3830
 1.0030	42.3780
 1.0040	42.3760
 1.0050	42.3740
 1.0060	42.3730
 1.0070	42.3760
 1.0080	42.3780
 1.0090	42.3840
 1.0100	42.3840
 1.0110	42.3810
 1.0120	42.3800
 1.0130	42.3760
 1.0140	42.3740
 1.0150	42.3730
 1.0160	42.3730
 1.0170	42.3690
 1.0180	42.3680
 1.0190	42.3700
 1.0200	42.3680
 1.0210	42.3630
 1.0220	42.3620
 1.0230	42.3600
 1.0240	42.3580
 1.0250	42.3570
 1.0260	42.3590
 1.0270	42.3600
 1.0280	42.3640
 1.0290	42.3640
 1.0300	42.3610
 1.0310	42.3610
 1.0320	42.3610
 1.0330	42.3610
 1.0340	42.3640
 1.0350	42.3690
 1.0360	42.3680
 1.0370	42.3670
 1.0380	42.3660
 1.0390	42.3640
 1.0400	42.3630
 1.0410	42.3630
 1.0420	42.3620
 1.0430	42.3610
 1.0440	42.3610
 1.0450	42.3610
 1.0460	42.3600
 1.0470	42.3580
 1.0480	42.3560
 1.0490	42.3540
 1.0500	42.3520
 1.0510	42.3500
 1.0520	42.3490
 1.0530	42.3480
 1.0540	42.3480
 1.0550	42.3450
 1.0560	42.3410
 1.0570	42.3400
 1.0580	42.3370
 1.0590	42.3350
 1.0600	42.3340
 1.0610	42.3330
 1.0620	42.3320
 1.0630	42.3290
 1.0640	42.3270
 1.0650	42.3240
 1.0660	42.3160
 1.0670	42.3120
 1.0680	42.3090
 1.0690	42.3080
 1.0700	42.3060
 1.0710	42.3070
 1.0720	42.3070
 1.0730	42.3070
 1.0740	42.3050
 1.0750	42.3010
 1.0760	42.2990
 1.0770	42.2950
 1.0780	42.2930
 1.0790	42.2940
 1.0800	42.2940
 1.0810	42.2930
 1.0820	42.2910
 1.0830	42.2880
 1.0840	42.2850
 1.0850	42.2800
 1.0860	42.2780
 1.0870	42.2760
 1.0880	42.2730
 1.0890	42.2710
 1.0900	42.2710
 1.0910	42.2700
 1.0920	42.2700
 1.0930	42.2680
 1.0940	42.2640
 1.0950	42.2600
 1.0960	42.2550
 1.0970	42.2520
 1.0980	42.2510
 1.0990	42.2470
 1.1000	42.2400
 1.1010	42.2370
 1.1020	42.2330
 1.1030	42.2300
 1.1040	42.2290
 1.1050	42.2290
 1.1060	42.2270
 1.1070	42.2210
 1.1080	42.2160
 1.1090	42.2110
 1.1100	42.2070
 1.1110	42.2050
 1.1120	42.2010
 1.1130	42.1980
 1.1140	42.1950
 1.1150	42.1920
 1.1160	42.1880
 1.1170	42.1840
 1.1180	42.1790
 1.1190	42.1730
 1.1200	42.1660
 1.1210	42.1610
 1.1220	42.1540
 1.1230	42.1450
 1.1240	42.1350
 1.1250	42.1240
 1.1260	42.1100
 1.1270	42.0950
 1.1280	42.0800
 1.1290	42.0630
 1.1300	42.0460
 1.1310	42.0250
 1.1320	42.0030
 1.1330	41.9800
 1.1340	41.9550
 1.1350	41.9270
 1.1360	41.8990
 1.1370	41.8680
 1.1380	41.8330
 1.1390	41.7980
 1.1400	41.7610
 1.1410	41.7230
 1.1420	41.6840
 1.1430	41.6440
 1.1440	41.6050
 1.1450	41.5650
 1.1460	41.5280
 1.1470	41.4920
 1.1480	41.4570
 1.1490	41.4230
 1.1500	41.3890
 1.1510	41.3540
 1.1520	41.3220
 1.1530	41.2910
 1.1540	41.2640
 1.1550	41.2400
 1.1560	41.2160
 1.1570	41.1960
 1.1580	41.1770
 1.1590	41.1570
 1.1600	41.1390
 1.1610	41.1240
 1.1620	41.1080
 1.1630	41.0970
 1.1640	41.0850
 1.1650	41.0730
 1.1660	41.0600
 1.1670	41.0500
 1.1680	41.0410
 1.1690	41.0330
 1.1700	41.0280
 1.1710	41.0200
 1.1720	41.0120
 1.1730	41.0040
 1.1740	40.9960
 1.1750	40.9860
 1.1760	40.9780
 1.1770	40.9710
 1.1780	40.9610
 1.1790	40.9520
 1.1800	40.9430
 1.1810	40.9330
 1.1820	40.9250
 1.1830	40.9170
 1.1840	40.9060
 1.1850	40.8960
 1.1860	40.8870
 1.1870	40.8780
 1.1880	40.8700
 1.1890	40.8640
 1.1900	40.8580
 1.1910	40.8510
 1.1920	40.8450
 1.1930	40.8400
 1.1940	40.8340
 1.1950	40.8270
 1.1960	40.8200
 1.1970	40.8130
 1.1980	40.8070
 1.1990	40.8030
 1.2000	40.8000
 1.2010	40.7970
 1.2020	40.7960
 1.2030	40.7950
 1.2040	40.7940
 1.2050	40.7910
 1.2060	40.7890
 1.2070	40.7880
 1.2080	40.7840
 1.2090	40.7830
 1.2100	40.7810
 1.2110	40.7800
 1.2120	40.7790
 1.2130	40.7800
 1.2140	40.7830
 1.2150	40.7850
 1.2160	40.7890
 1.2170	40.7900
 1.2180	40.7920
 1.2190	40.7930
 1.2200	40.7920
 1.2210	40.7940
 1.2220	40.7960
 1.2230	40.7980
 1.2240	40.8040
 1.2250	40.8080
 1.2260	40.8110
 1.2270	40.8140
 1.2280	40.8150
 1.2290	40.8170
 1.2300	40.8180
 1.2310	40.8180
 1.2320	40.8190
 1.2330	40.8210
 1.2340	40.8220
 1.2350	40.8240
 1.2360	40.8250
 1.2370	40.8270
 1.2380	40.8290
 1.2390	40.8300
 1.2400	40.8320
 1.2410	40.8330
 1.2420	40.8320
 1.2430	40.8300
 1.2440	40.8290
 1.2450	40.8280
 1.2460	40.8260
 1.2470	40.8240
 1.2480	40.8240
 1.2490	40.8250
 1.2500	40.8250
 1.2510	40.8260
 1.2520	40.8250
 1.2530	40.8220
 1.2540	40.8200
 1.2550	40.8190
 1.2560	40.8160
 1.2570	40.8140
 1.2580	40.8110
 1.2590	40.8070
 1.2600	40.8030
 1.2610	40.7990
 1.2620	40.7940
 1.2630	40.7910
 1.2640	40.7850
 1.2650	40.7790
 1.2660	40.7730
 1.2670	40.7660
 1.2680	40.7620
 1.2690	40.7580
 1.2700	40.7540
 1.2710	40.7500
 1.2720	40.7440
 1.2730	40.7360
 1.2740	40.7290
 1.2750	40.7210
 1.2760	40.7140
 1.2770	40.7060
 1.2780	40.6980
 1.2790	40.6880
 1.2800	40.6770
 1.2810	40.6670
 1.2820	40.6560
 1.2830	40.6460
 1.2840	40.6340
 1.2850	40.6210
 1.2860	40.6080
 1.2870	40.5940
 1.2880	40.5810
 1.2890	40.5680
 1.2900	40.5520
 1.2910	40.5350
 1.2920	40.5190
 1.2930	40.5000
 1.2940	40.4810
 1.2950	40.4650
 1.2960	40.4450
 1.2970	40.4240
 1.2980	40.4050
 1.2990	40.3840
 1.3000	40.3630
 1.3010	40.3400
 1.3020	40.3170
 1.3030	40.2960
 1.3040	40.2740
 1.3050	40.2510
 1.3060	40.2270
 1.3070	40.2020
 1.3080	40.1770
 1.3090	40.1520
 1.3100	40.1280
 1.3110	40.1020
 1.3120	40.0740
 1.3130	40.0460
 1.3140	40.0180
 1.3150	39.9900
 1.3160	39.9610
 1.3170	39.9310
 1.3180	39.9000
 1.3190	39.8680
 1.3200	39.8340
 1.3210	39.8010
 1.3220	39.7690
 1.3230	39.7350
 1.3240	39.7000
 1.3250	39.6660
 1.3260	39.6300
 1.3270	39.5930
 1.3280	39.5540
 1.3290	39.5130
 1.3300	39.4720
 1.3310	39.4300
 1.3320	39.3890
 1.3330	39.3480
 1.3340	39.3070
 1.3350	39.2670
 1.3360	39.2250
 1.3370	39.1830
 1.3380	39.1400
 1.3390	39.0970
 1.3400	39.0530
 1.3410	39.0080
 1.3420	38.9640
 1.3430	38.9190
 1.3440	38.8750
 1.3450	38.8320
 1.3460	38.7910
 1.3470	38.7480
 1.3480	38.7070
 1.3490	38.6640
 1.3500	38.6210
 1.3510	38.5770
 1.3520	38.5340
 1.3530	38.4910
 1.3540	38.4470
 1.3550	38.4020
 1.3560	38.3580
 1.3570	38.3130
 1.3580	38.2690
 1.3590	38.2240
 1.3600	38.1780
 1.3610	38.1290
 1.3620	38.0790
 1.3630	38.0270
 1.3640	37.9730
 1.3650	37.9140
 1.3660	37.8530
 1.3670	37.7890
 1.3680	37.7200
 1.3690	37.6470
 1.3700	37.5680
 1.3710	37.4840
 1.3720	37.3920
 1.3730	37.2930
 1.3740	37.1860
 1.3750	37.0690
 1.3760	36.9420
 1.3770	36.8050
 1.3780	36.6570
 1.3790	36.4970
 1.3800	36.3240
 1.3810	36.1380
 1.3820	35.9380
 1.3830	35.7260
 1.3840	35.5000
 1.3850	35.2610
 1.3860	35.0090
 1.3870	34.7420
 1.3880	34.4650
 1.3890	34.1760
 1.3900	33.8750
 1.3910	33.5680
 1.3920	33.2510
 1.3930	32.9250
 1.3940	32.5960
 1.3950	32.2580
 1.3960	31.9190
 1.3970	31.5810
 1.3980	31.2400
 1.3990	30.9070
 1.4000	30.5770
 1.4010	30.2490
 1.4020	29.9300
 1.4030	29.6150
 1.4040	29.3090
 1.4050	29.0150
 1.4060	28.7310
 1.4070	28.4610
 1.4080	28.2000
 1.4090	27.9510
 1.4100	27.7140
 1.4110	27.4870
 1.4120	27.2750
 1.4130	27.0750
 1.4140	26.8860
 1.4150	26.7100
 1.4160	26.5460
 1.4170	26.3900
 1.4180	26.2460
 1.4190	26.1100
 1.4200	25.9810
 1.4210	25.8630
 1.4220	25.7520
 1.4230	25.6490
 1.4240	25.5550
 1.4250	25.4680
 1.4260	25.3870
 1.4270	25.3130
 1.4280	25.2450
 1.4290	25.1830
 1.4300	25.1260
 1.4310	25.0740
 1.4320	25.0280
 1.4330	24.9860
 1.4340	24.9500
 1.4350	24.9160
 1.4360	24.8870
 1.4370	24.8610
 1.4380	24.8390
 1.4390	24.8220
 1.4400	24.8090
 1.4410	24.7980
 1.4420	24.7900
 1.4430	24.7850
 1.4440	24.7810
 1.4450	24.7800
 1.4460	24.7800
 1.4470	24.7810
 1.4480	24.7860
 1.4490	24.7920
 1.4500	24.8010
 1.4510	24.8100
 1.4520	24.8210
 1.4530	24.8320
 1.4540	24.8440
 1.4550	24.8590
 1.4560	24.8760
 1.4570	24.8960
 1.4580	24.9200
 1.4590	24.9470
 1.4600	24.9770
 1.4610	25.0120
 1.4620	25.0490
 1.4630	25.0910
 1.4640	25.1360
 1.4650	25.1850
 1.4660	25.2380
 1.4670	25.2960
 1.4680	25.3580
 1.4690	25.4230
 1.4700	25.4930
 1.4710	25.5660
 1.4720	25.6400
 1.4730	25.7180
 1.4740	25.7980
 1.4750	25.8800
 1.4760	25.9670
 1.4770	26.0540
 1.4780	26.1430
 1.4790	26.2340
 1.4800	26.3240
 1.4810	26.4150
 1.4820	26.5080
 1.4830	26.6010
 1.4840	26.6970
 1.4850	26.7920
 1.4860	26.8880
 1.4870	26.9860
 1.4880	27.0810
 1.4890	27.1760
 1.4900	27.2720
 1.4910	27.3660
 1.4920	27.4610
 1.4930	27.5570
 1.4940	27.6530
 1.4950	27.7490
 1.4960	27.8450
 1.4970	27.9380
 1.4980	28.0330
 1.4990	28.1290
 1.5000	28.2240
 1.5010	28.3210
 1.5020	28.4170
 1.5030	28.5130
 1.5040	28.6070
 1.5050	28.6970
 1.5060	28.7900
 1.5070	28.8820
 1.5080	28.9730
 1.5090	29.0650
 1.5100	29.1570
 1.5110	29.2460
 1.5120	29.3350
 1.5130	29.4240
 1.5140	29.5120
 1.5150	29.6010
 1.5160	29.6880
 1.5170	29.7750
 1.5180	29.8610
 1.5190	29.9460
 1.5200	30.0300
 1.5210	30.1140
 1.5220	30.1960
 1.5230	30.2760
 1.5240	30.3560
 1.5250	30.4360
 1.5260	30.5140
 1.5270	30.5910
 1.5280	30.6670
 1.5290	30.7400
 1.5300	30.8130
 1.5310	30.8860
 1.5320	30.9570
 1.5330	31.0280
 1.5340	31.0990
 1.5350	31.1660
 1.5360	31.2350
 1.5370	31.3030
 1.5380	31.3680
 1.5390	31.4330
 1.5400	31.4980
 1.5410	31.5600
 1.5420	31.6230
 1.5430	31.6860
 1.5440	31.7460
 1.5450	31.8060
 1.5460	31.8660
 1.5470	31.9260
 1.5480	31.9850
 1.5490	32.0440
 1.5500	32.1000
 1.5510	32.1550
 1.5520	32.2110
 1.5530	32.2660
 1.5540	32.3190
 1.5550	32.3730
 1.5560	32.4240
 1.5570	32.4760
 1.5580	32.5270
 1.5590	32.5770
 1.5600	32.6260
 1.5610	32.6740
 1.5620	32.7200
 1.5630	32.7650
 1.5640	32.8090
 1.5650	32.8530
 1.5660	32.8960
 1.5670	32.9380
 1.5680	32.9800
 1.5690	33.0190
 1.5700	33.0590
 1.5710	33.0990
 1.5720	33.1400
 1.5730	33.1820
 1.5740	33.2210
 1.5750	33.2590
 1.5760	33.2970
 1.5770	33.3320
 1.5780	33.3680
 1.5790	33.4050
 1.5800	33.4420
 1.5810	33.4790
 1.5820	33.5140
 1.5830	33.5490
 1.5840	33.5850
 1.5850	33.6200
 1.5860	33.6540
 1.5870	33.6910
 1.5880	33.7270
 1.5890	33.7620
 1.5900	33.7970
 1.5910	33.8320
 1.5920	33.8640
 1.5930	33.8970
 1.5940	33.9330
 1.5950	33.9660
 1.5960	34.0000
 1.5970	34.0340
 1.5980	34.0660
 1.5990	34.0970
 1.6000	34.1280
 1.6010	34.1600
 1.6020	34.1900
 1.6030	34.2210
 1.6040	34.2520
 1.6050	34.2820
 1.6060	34.3100
 1.6070	34.3400
 1.6080	34.3670
 1.6090	34.3940
 1.6100	34.4220
 1.6110	34.4480
 1.6120	34.4730
 1.6130	34.4990
 1.6140	34.5250
 1.6150	34.5510
 1.6160	34.5770
 1.6170	34.6000
 1.6180	34.6220
 1.6190	34.6450
 1.6200	34.6660
 1.6210	34.6880
 1.6220	34.7090
 1.6230	34.7290
 1.6240	34.7500
 1.6250	34.7700
 1.6260	34.7880
 1.6270	34.8050
 1.6280	34.8210
 1.6290	34.8380
 1.6300	34.8580
 1.6310	34.8750
 1.6320	34.8920
 1.6330	34.9080
 1.6340	34.9230
 1.6350	34.9370
 1.6360	34.9520
 1.6370	34.9660
 1.6380	34.9810
 1.6390	34.9940
 1.6400	35.0080
 1.6410	35.0190
 1.6420	35.0260
 1.6430	35.0360
 1.6440	35.0440
 1.6450	35.0560
 1.6460	35.0670
 1.6470	35.0770
 1.6480	35.0850
 1.6490	35.0920
 1.6500	35.0990
 1.6510	35.1020
 1.6520	35.1050
 1.6530	35.1080
 1.6540	35.1090
 1.6550	35.1080
 1.6560	35.1080
 1.6570	35.1070
 1.6580	35.1040
 1.6590	35.1000
 1.6600	35.0960
 1.6610	35.0910
 1.6620	35.0870
 1.6630	35.0850
 1.6640	35.0810
 1.6650	35.0760
 1.6660	35.0690
 1.6670	35.0620
 1.6680	35.0560
 1.6690	35.0500
 1.6700	35.0420
 1.6710	35.0340
 1.6720	35.0230
 1.6730	35.0110
 1.6740	35.0000
 1.6750	34.9880
 1.6760	34.9740
 1.6770	34.9610
 1.6780	34.9460
 1.6790	34.9270
 1.6800	34.9080
 1.6810	34.8900
 1.6820	34.8690
 1.6830	34.8480
 1.6840	34.8270
 1.6850	34.8040
 1.6860	34.7810
 1.6870	34.7590
 1.6880	34.7370
 1.6890	34.7130
 1.6900	34.6890
 1.6910	34.6650
 1.6920	34.6400
 1.6930	34.6160
 1.6940	34.5920
 1.6950	34.5680
 1.6960	34.5440
 1.6970	34.5220
 1.6980	34.4990
 1.6990	34.4770
 1.7000	34.4540
 1.7010	34.4290
 1.7020	34.4060
 1.7030	34.3810
 1.7040	34.3580
 1.7050	34.3380
 1.7060	34.3160
 1.7070	34.2940
 1.7080	34.2710
 1.7090	34.2460
 1.7100	34.2230
 1.7110	34.2000
 1.7120	34.1760
 1.7130	34.1530
 1.7140	34.1310
 1.7150	34.1070
 1.7160	34.0820
 1.7170	34.0580
 1.7180	34.0330
 1.7190	34.0080
 1.7200	33.9830
 1.7210	33.9590
 1.7220	33.9340
 1.7230	33.9090
 1.7240	33.8830
 1.7250	33.8580
 1.7260	33.8340
 1.7270	33.8090
 1.7280	33.7870
 1.7290	33.7660
 1.7300	33.7440
 1.7310	33.7240
 1.7320	33.7060
 1.7330	33.6860
 1.7340	33.6660
 1.7350	33.6470
 1.7360	33.6260
 1.7370	33.6070
 1.7380	33.5920
 1.7390	33.5710
 1.7400	33.5480
 1.7410	33.5240
 1.7420	33.4950
 1.7430	33.4680
 1.7440	33.4420
 1.7450	33.4130
 1.7460	33.3840
 1.7470	33.3530
 1.7480	33.3190
 1.7490	33.2860
 1.7500	33.2530
 1.7510	33.2200
 1.7520	33.1880
 1.7530	33.1540
 1.7540	33.1200
 1.7550	33.0840
 1.7560	33.0490
 1.7570	33.0120
 1.7580	32.9760
 1.7590	32.9420
 1.7600	32.9080
 1.7610	32.8740
 1.7620	32.8410
 1.7630	32.8060
 1.7640	32.7750
 1.7650	32.7490
 1.7660	32.7220
 1.7670	32.6970
 1.7680	32.6720
 1.7690	32.6470
 1.7700	32.6240
 1.7710	32.6030
 1.7720	32.5810
 1.7730	32.5600
 1.7740	32.5400
 1.7750	32.5220
 1.7760	32.5030
 1.7770	32.4840
 1.7780	32.4670
 1.7790	32.4500
 1.7800	32.4350
 1.7810	32.4230
 1.7820	32.4110
 1.7830	32.4000
 1.7840	32.3890
 1.7850	32.3790
 1.7860	32.3700
 1.7870	32.3630
 1.7880	32.3550
 1.7890	32.3520
 1.7900	32.3470
 1.7910	32.3430
 1.7920	32.3380
 1.7930	32.3350
 1.7940	32.3330
 1.7950	32.3320
 1.7960	32.3330
 1.7970	32.3350
 1.7980	32.3350
 1.7990	32.3380
 1.8000	32.3420
 1.8010	32.3450
 1.8020	32.3490
 1.8030	32.3520
 1.8040	32.3510
 1.8050	32.3540
 1.8060	32.3580
 1.8070	32.3600
 1.8080	32.3630
 1.8090	32.3660
 1.8100	32.3660
 1.8110	32.3730
 1.8120	32.3770
 1.8130	32.3760
 1.8140	32.3740
 1.8150	32.3710
 1.8160	32.3670
 1.8170	32.3650
 1.8180	32.3650
 1.8190	32.3620
 1.8200	32.3590
 1.8210	32.3560
 1.8220	32.3510
 1.8230	32.3460
 1.8240	32.3410
 1.8250	32.3360
 1.8260	32.3300
 1.8270	32.3240
 1.8280	32.3160
 1.8290	32.3040
 1.8300	32.2930
 1.8310	32.8130
 1.8320	32.7990
 1.8330	32.7840
 1.8340	32.7660
 1.8350	32.7430
 1.8360	32.7170
 1.8370	32.6900
 1.8380	32.6610
 1.8390	32.6300
 1.8400	32.5990
 1.8410	32.5650
 1.8420	32.5270
 1.8430	32.4890
 1.8440	32.4460
 1.8450	32.3960
 1.8460	32.3390
 1.8470	32.2750
 1.8480	32.2030
 1.8490	32.1260
 1.8500	32.0450
 1.8510	31.9610
 1.8520	31.8710
 1.8530	31.7670
 1.8540	31.6600
 1.8550	31.5440
 1.8560	31.4150
 1.8570	31.2790
 1.8580	31.1310
 1.8590	30.9720
 1.8600	30.8010
 1.8610	30.6190
 1.8620	30.4220
 1.8630	30.2130
 1.8640	29.9910
 1.8650	29.7510
 1.8660	29.4960
 1.8670	29.2260
 1.8680	28.9340
 1.8690	28.6250
 1.8700	28.2960
 1.8710	27.9490
 1.8720	27.5880
 1.8730	27.2070
 1.8740	26.8100
 1.8750	26.4010
 1.8760	25.9700
 1.8770	25.5260
 1.8780	25.0720
 1.8790	24.6010
 1.8800	24.1200
 1.8810	23.6280
 1.8820	23.1240
 1.8830	22.6080
 1.8840	22.0870
 1.8850	21.5580
 1.8860	21.0300
 1.8870	20.5060
 1.8880	19.9810
 1.8890	19.4670
 1.8900	18.9640
 1.8910	18.4740
 1.8920	17.9920
 1.8930	17.5270
 1.8940	17.0760
 1.8950	16.6450
 1.8960	16.2350
 1.8970	15.8460
 1.8980	15.4860
 1.8990	15.1520
 1.9000	14.8350
 1.9010	14.5430
 1.9020	14.2700
 1.9030	14.0170
 1.9040	13.7870
 1.9050	13.5790
 1.9060	13.3900
 1.9070	13.2230
 1.9080	13.0700
 1.9090	12.9250
 1.9100	12.7970
 1.9110	12.6780
 1.9120	12.5700
 1.9130	12.4720
 1.9140	12.3880
 1.9150	12.3130
 1.9160	12.2460
 1.9170	12.1890
 1.9180	12.1360
 1.9190	12.0900
 1.9200	12.0520
 1.9210	12.0190
 1.9220	11.9920
 1.9230	11.9750
 1.9240	11.9580
 1.9250	11.9460
 1.9260	11.9350
 1.9270	11.9300
 1.9280	11.9300
 1.9290	11.9330
 1.9300	11.9400
 1.9310	11.9530
 1.9320	11.9670
 1.9330	11.9870
 1.9340	12.0130
 1.9350	12.0400
 1.9360	12.0710
 1.9370	12.1040
 1.9380	12.1400
 1.9390	12.1770
 1.9400	12.2180
 1.9410	12.2600
 1.9420	12.3050
 1.9430	12.3540
 1.9440	12.4030
 1.9450	12.4570
 1.9460	12.5120
 1.9470	12.5670
 1.9480	12.6260
 1.9490	12.6880
 1.9500	12.7510
 1.9510	12.8160
 1.9520	12.8840
 1.9530	12.9550
 1.9540	13.0270
 1.9550	13.0990
 1.9560	13.1740
 1.9570	13.2480
 1.9580	13.3220
 1.9590	13.3970
 1.9600	13.4720
 1.9610	13.5500
 1.9620	13.6300
 1.9630	13.7110
 1.9640	13.7950
 1.9650	13.8790
 1.9660	13.9630
 1.9670	14.0500
 1.9680	14.1360
 1.9690	14.2190
 1.9700	14.3060
 1.9710	14.3930
 1.9720	14.4830
 1.9730	14.5760
 1.9740	14.6710
 1.9750	14.7650
 1.9760	14.8590
 1.9770	14.9510
 1.9780	15.0430
 1.9790	15.1380
 1.9800	15.2360
 1.9810	15.3350
 1.9820	15.4400
 1.9830	15.5400
 1.9840	15.6380
 1.9850	15.7390
 1.9860	15.8390
 1.9870	15.9380
 1.9880	16.0380
 1.9890	16.1400
 1.9900	16.2390
 1.9910	16.3350
 1.9920	16.4330
 1.9930	16.5310
 1.9940	16.6290
 1.9950	16.7290
 1.9960	16.8290
 1.9970	16.9300
 1.9980	17.0310
 1.9990	17.1320
 2.0000	17.2320
 2.0010	17.3300
 2.0020	17.4290
 2.0030	17.5250
 2.0040	17.6240
 2.0050	17.7210
 2.0060	17.8200
 2.0070	17.9160
 2.0080	18.0120
 2.0090	18.1060
 2.0100	18.1980
 2.0110	18.2890
 2.0120	18.3780
 2.0130	18.4690
 2.0140	18.5590
 2.0150	18.6490
 2.0160	18.7400
 2.0170	18.8270
 2.0180	18.9140
 2.0190	18.9990
 2.0200	19.0830
 2.0210	19.1680
 2.0220	19.2500
 2.0230	19.3290
 2.0240	19.4080
 2.0250	19.4840
 2.0260	19.5600
 2.0270	19.6330
 2.0280	19.7060
 2.0290	19.7830
 2.0300	19.8560
 2.0310	19.9280
 2.0320	20.0010
 2.0330	20.0690
 2.0340	20.1330
 2.0350	20.1970
 2.0360	20.2590
 2.0370	20.3200
 2.0380	20.3810
 2.0390	20.4400
 2.0400	20.5000
 2.0410	20.5580
 2.0420	20.6150
 2.0430	20.6690
 2.0440	20.7250
 2.0450	20.7800
 2.0460	20.8330
 2.0470	20.8860
 2.0480	20.9400
 2.0490	20.9920
 2.0500	21.0440
 2.0510	21.0960
 2.0520	21.1490
 2.0530	21.2010
 2.0540	21.2530
 2.0550	21.3050
 2.0560	21.3560
 2.0570	21.4110
 2.0580	21.4610
 2.0590	21.5140
 2.0600	21.5690
 2.0610	21.6240
 2.0620	21.6790
 2.0630	21.7350
 2.0640	21.7940
 2.0650	21.8510
 2.0660	21.9060
 2.0670	21.9630
 2.0680	22.0190
 2.0690	22.0760
 2.0700	22.1350
 2.0710	22.1920
 2.0720	22.2460
 2.0730	22.3010
 2.0740	22.3580
 2.0750	22.4150
 2.0760	22.4710
 2.0770	22.5320
 2.0780	22.5870
 2.0790	22.6370
 2.0800	22.6920
 2.0810	22.7480
 2.0820	22.8040
 2.0830	22.8660
 2.0840	22.9230
 2.0850	22.9800
 2.0860	23.0350
 2.0870	23.0860
 2.0880	23.1410
 2.0890	23.1940
 2.0900	23.2460
 2.0910	23.2990
 2.0920	23.3540
 2.0930	23.4050
 2.0940	23.4550
 2.0950	23.5050
 2.0960	23.5520
 2.0970	23.6010
 2.0980	23.6500
 2.0990	23.7000
 2.1000	23.7510
 2.1010	23.8010
 2.1020	23.8530
 2.1030	23.9020
 2.1040	23.9500
 2.1050	23.9990
 2.1060	24.0460
 2.1070	24.0920
 2.1080	24.1370
 2.1090	24.1800
 2.1100	24.2250
 2.1110	24.2710
 2.1120	24.3160
 2.1130	24.3610
 2.1140	24.4060
 2.1150	24.4500
 2.1160	24.4950
 2.1170	24.5410
 2.1180	24.5860
 2.1190	24.6350
 2.1200	24.6790
 2.1210	24.7220
 2.1220	24.7650
 2.1230	24.8040
 2.1240	24.8370
 2.1250	24.8740
 2.1260	24.9100
 2.1270	24.9490
 2.1280	24.9950
 2.1290	25.0340
 2.1300	25.0720
 2.1310	25.1090
 2.1320	25.1430
 2.1330	25.1770
 2.1340	25.2120
 2.1350	25.2430
 2.1360	25.2660
 2.1370	25.2930
 2.1380	25.3210
 2.1390	25.3480
 2.1400	25.3760
 2.1410	25.4070
 2.1420	25.4330
 2.1430	25.4580
 2.1440	25.4820
 2.1450	25.5040
 2.1460	25.5250
 2.1470	25.5440
 2.1480	25.5630
 2.1490	25.5830
 2.1500	25.6000
 2.1510	25.6160
 2.1520	25.6310
 2.1530	25.6420
 2.1540	25.6530
 2.1550	25.6650
 2.1560	25.6750
 2.1570	25.6840
 2.1580	25.6930
 2.1590	25.7000
 2.1600	25.7070
 2.1610	25.7160
 2.1620	25.7240
 2.1630	25.7320
 2.1640	25.7440
 2.1650	25.7490
 2.1660	25.7500
 2.1670	25.7550
 2.1680	25.7550
 2.1690	25.7620
 2.1700	25.7750
 2.1710	25.7850
 2.1720	25.7970
 2.1730	25.8070
 2.1740	25.8150
 2.1750	25.8250
 2.1760	25.8370
 2.1770	25.8470
 2.1780	25.8550
 2.1790	25.8640
 2.1800	25.8710
 2.1810	25.8800
 2.1820	25.8890
 2.1830	25.9050
 2.1840	25.9160
 2.1850	25.9270
 2.1860	25.9380
 2.1870	25.9460
 2.1880	25.9590
 2.1890	25.9760
 2.1900	25.9880
 2.1910	26.0020
 2.1920	26.0130
 2.1930	26.0170
 2.1940	26.0260
 2.1950	26.0380
 2.1960	26.0480
 2.1970	26.0620
 2.1980	26.0710
 2.1990	26.0780
 2.2000	26.0820
 2.2010	26.0830
 2.2020	26.0830
 2.2030	26.0820
 2.2040	26.0800
 2.2050	26.0790
 2.2060	26.0710
 2.2070	26.0670
 2.2080	26.0610
 2.2090	26.0560
 2.2100	26.0520
 2.2110	26.0470
 2.2120	26.0440
 2.2130	26.0350
 2.2140	26.0250
 2.2150	26.0140
 2.2160	25.9990
 2.2170	25.9880
 2.2180	25.9800
 2.2190	25.9710
 2.2200	25.9640
 2.2210	25.9530
 2.2220	25.9420
 2.2230	25.9250
 2.2240	25.9040
 2.2250	25.8820
 2.2260	25.8590
 2.2270	25.8300
 2.2280	25.7960
 2.2290	25.7620
 2.2300	25.7220
 2.2310	25.6820
 2.2320	25.6440
 2.2330	25.5970
 2.2340	25.5460
 2.2350	25.4870
 2.2360	25.4310
 2.2370	25.3710
 2.2380	25.3120
 2.2390	25.2530
 2.2400	25.1960
 2.2410	25.1390
 2.2420	25.0830
 2.2430	25.0270
 2.2440	24.9750
 2.2450	24.9250
 2.2460	24.8790
 2.2470	24.8390
 2.2480	24.7990
 2.2490	24.7630
 2.2500	24.7240
 2.2510	24.6850
 2.2520	24.6490
 2.2530	24.6140
 2.2540	24.5790
 2.2550	24.5490
 2.2560	24.5160
 2.2570	24.4820
 2.2580	24.4450
 2.2590	24.4090
 2.2600	24.3680
 2.2610	24.3200
 2.2620	24.2720
 2.2630	24.2190
 2.2640	24.1670
 2.2650	24.1190
 2.2660	24.0690
 2.2670	24.0220
 2.2680	23.9770
 2.2690	23.9300
 2.2700	23.8840
 2.2710	23.8420
 2.2720	23.8030
 2.2730	23.7630
 2.2740	23.7250
 2.2750	23.6910
 2.2760	23.6570
 2.2770	23.6240
 2.2780	23.5970
 2.2790	23.5670
 2.2800	23.5330
 2.2810	23.5030
 2.2820	23.4760
 2.2830	23.4480
 2.2840	23.4220
 2.2850	23.3930
 2.2860	23.3640
 2.2870	23.3310
 2.2880	23.2920
 2.2890	23.2580
 2.2900	23.2250
 2.2910	23.1900
 2.2920	23.1590
 2.2930	23.1230
 2.2940	23.0850
 2.2950	23.0420
 2.2960	22.9930
 2.2970	22.9440
 2.2980	22.8930
 2.2990	22.8360
 2.3000	22.7830
 2.3010	22.7310
 2.3020	22.6730
 2.3030	22.6160
 2.3040	22.5560
 2.3050	22.4960
 2.3060	22.4420
 2.3070	22.3850
 2.3080	22.3270
 2.3090	22.2750
 2.3100	22.2280
 2.3110	22.1830
 2.3120	22.1420
 2.3130	22.1100
 2.3140	22.0780
 2.3150	22.0460
 2.3160	22.0160
 2.3170	21.9910
 2.3180	21.9670
 2.3190	21.9430
 2.3200	21.9210
 2.3210	21.9040
 2.3220	21.8820
 2.3230	21.8560
 2.3240	21.8320
 2.3250	21.8070
 2.3260	21.7810
 2.3270	21.7570
 2.3280	21.7300
 2.3290	21.7020
 2.3300	21.6730
 2.3310	21.6460
 2.3320	21.6120
 2.3330	21.5760
 2.3340	21.5370
 2.3350	21.4910
 2.3360	21.4490
 2.3370	21.4080
 2.3380	21.3650
 2.3390	21.3240
 2.3400	21.2820
 2.3410	21.2380
 2.3420	21.1940
 2.3430	21.1490
 2.3440	21.1060
 2.3450	21.0610
 2.3460	21.0190
 2.3470	20.9800
 2.3480	20.9390
 2.3490	20.8910
 2.3500	20.8540
 2.3510	20.8210
 2.3520	20.7910
 2.3530	20.7700
 2.3540	20.7500
 2.3550	20.7250
 2.3560	20.7020
 2.3570	20.6660
 2.3580	20.6350
 2.3590	20.6100
 2.3600	20.5750
 2.3610	20.5520
 2.3620	20.5320
 2.3630	20.5010
 2.3640	20.4730
 2.3650	20.4390
 2.3660	20.4000
 2.3670	20.3610
 2.3680	20.3220
 2.3690	20.2820
 2.3700	20.2420
 2.3710	20.1980
 2.3720	20.1530
 2.3730	20.1080
 2.3740	20.0640
 2.3750	20.0170
 2.3760	19.9680
 2.3770	19.9210
 2.3780	19.8720
 2.3790	19.8240
 2.3800	19.7810
 2.3810	19.7360
 2.3820	19.6830
 2.3830	19.6340
 2.3840	19.5830
 2.3850	19.5260
 2.3860	19.4790
 2.3870	19.4320
 2.3880	19.3910
 2.3890	19.3530
 2.3900	19.3110
 2.3910	19.2580
 2.3920	19.2020
 2.3930	19.1480
 2.3940	19.1020
 2.3950	19.0690
 2.3960	19.0330
 2.3970	18.9910
 2.3980	18.9470
 2.3990	18.8980
 2.4000	18.8440
 2.4010	18.7840
 2.4020	18.7310
 2.4030	18.6800
 2.4040	18.6290
 2.4050	18.5920
 2.4060	18.5480
 2.4070	18.4910
 2.4080	18.4370
 2.4090	18.3830
 2.4100	18.3200
 2.4110	18.2690
 2.4120	18.2310
 2.4130	18.1840
 2.4140	18.1450
 2.4150	18.1030
 2.4160	18.0380
 2.4170	17.9660
 2.4180	17.8990
 2.4190	17.8330
 2.4200	17.7710
 2.4210	17.7090
 2.4220	17.6420
 2.4230	17.5790
 2.4240	17.5110
 2.4250	17.4570
 2.4260	17.4100
 2.4270	17.3590
 2.4280	17.3130
 2.4290	17.2470
 2.4300	17.1840
 2.4310	17.1300
 2.4320	17.0680
 2.4330	17.0020
 2.4340	16.9380
 2.4350	16.8810
 2.4360	16.8070
 2.4370	16.7510
 2.4380	16.7060
 2.4390	16.6450
 2.4400	16.5820
 2.4410	16.5130
 2.4420	16.4510
 2.4430	16.3750
 2.4440	16.3170
 2.4450	16.2770
 2.4460	16.2090
 2.4470	16.1270
 2.4480	16.0440
 2.4490	15.9760
 2.4500	15.9190
 2.4510	15.8940
 2.4520	15.8640
 2.4530	15.7880
 2.4540	15.7080
 2.4550	15.6420
 2.4560	15.5710
 2.4570	15.5080
 2.4580	15.4640
 2.4590	15.4040
 2.4600	15.3330
 2.4610	15.2760
 2.4620	15.2310
 2.4630	15.1760
 2.4640	15.1220
 2.4650	15.0810
 2.4660	15.0150
 2.4670	14.9480
 2.4680	14.8930
 2.4690	14.8570
 2.4700	14.8160
 2.4710	14.7840
 2.4720	14.7500
 2.4730	14.7020
 2.4740	14.6570
 2.4750	14.6350
 2.4760	14.5990
 2.4770	14.5460
 2.4780	14.5040
 2.4790	14.4510
 2.4800	14.4050
 2.4810	14.3640
 2.4820	14.3040
 2.4830	14.2630
 2.4840	14.2030
 2.4850	14.1710
 2.4860	14.1800
 2.4870	14.1620
 2.4880	14.1250
 2.4890	14.0990
 2.4900	14.0350
 2.4910	13.9880
 2.4920	13.9780
 2.4930	13.9430
 2.4940	13.9170
 2.4950	13.8990
 2.4960	13.8520
 2.4970	13.8340
 2.4980	13.8050
 2.4990	13.7810
 2.5000	13.8200
