Name: Cercidium pennisulare
Type: vegetation
Class: Tree
Genus: Cercidium
Species: pennisulare
Sample No.: JPL141
Owner: JPL
Wavelength Range: VSWIR
Origin: 34.12561; -118.11017; WGS84
Collection Date: 9/14/2016
Description: Samples were collected at the Huntington Garden in San Marino California as part of a JPL Subcontract studying HyTES imagery. Samples were taken to JPL and processed within 48 hours of collection. The same leaves were processed in the Nicolet and then measured using the ASD.
Measurement: Bidirectional reflectance
First Column: X
Second Column: Y
X Units: Wavelength (micrometer)
Y Units: Reflectance (percentage)
First X Value: 0.35
Last X Value: 2.5
Number of X Values: 2151
Additional Information: vegetation.tree.cercidium.pennisulare.vswir.jpl141.jpl.asd.ancillary.txt

 0.3500	 2.2490
 0.3510	 2.2070
 0.3520	 2.2700
 0.3530	 2.3280
 0.3540	 2.3040
 0.3550	 2.3480
 0.3560	 2.3600
 0.3570	 2.3070
 0.3580	 2.2090
 0.3590	 2.1860
 0.3600	 2.2270
 0.3610	 2.2680
 0.3620	 2.1900
 0.3630	 2.2840
 0.3640	 2.3620
 0.3650	 2.2360
 0.3660	 2.1860
 0.3670	 2.2050
 0.3680	 2.2540
 0.3690	 2.2790
 0.3700	 2.2700
 0.3710	 2.2640
 0.3720	 2.2740
 0.3730	 2.2620
 0.3740	 2.3030
 0.3750	 2.3500
 0.3760	 2.3280
 0.3770	 2.2230
 0.3780	 2.2270
 0.3790	 2.3200
 0.3800	 2.3080
 0.3810	 2.3250
 0.3820	 2.3490
 0.3830	 2.3460
 0.3840	 2.3140
 0.3850	 2.2930
 0.3860	 2.2840
 0.3870	 2.2830
 0.3880	 2.3080
 0.3890	 2.3320
 0.3900	 2.3390
 0.3910	 2.3270
 0.3920	 2.3600
 0.3930	 2.3950
 0.3940	 2.3950
 0.3950	 2.3940
 0.3960	 2.3900
 0.3970	 2.4000
 0.3980	 2.4430
 0.3990	 2.4950
 0.4000	 2.5250
 0.4010	 2.5300
 0.4020	 2.5380
 0.4030	 2.5410
 0.4040	 2.5490
 0.4050	 2.5730
 0.4060	 2.6210
 0.4070	 2.6620
 0.4080	 2.6890
 0.4090	 2.7150
 0.4100	 2.7610
 0.4110	 2.8020
 0.4120	 2.8250
 0.4130	 2.8580
 0.4140	 2.8970
 0.4150	 2.9380
 0.4160	 2.9800
 0.4170	 3.0310
 0.4180	 3.0810
 0.4190	 3.1250
 0.4200	 3.1610
 0.4210	 3.2010
 0.4220	 3.2400
 0.4230	 3.2770
 0.4240	 3.3120
 0.4250	 3.3470
 0.4260	 3.3870
 0.4270	 3.4330
 0.4280	 3.4580
 0.4290	 3.4880
 0.4300	 3.5300
 0.4310	 3.5600
 0.4320	 3.5940
 0.4330	 3.6280
 0.4340	 3.6560
 0.4350	 3.6920
 0.4360	 3.7190
 0.4370	 3.7350
 0.4380	 3.7460
 0.4390	 3.7640
 0.4400	 3.7810
 0.4410	 3.7920
 0.4420	 3.8040
 0.4430	 3.8230
 0.4440	 3.8440
 0.4450	 3.8620
 0.4460	 3.8890
 0.4470	 3.9120
 0.4480	 3.9290
 0.4490	 3.9540
 0.4500	 3.9740
 0.4510	 3.9900
 0.4520	 4.0030
 0.4530	 4.0200
 0.4540	 4.0360
 0.4550	 4.0510
 0.4560	 4.0620
 0.4570	 4.0710
 0.4580	 4.0760
 0.4590	 4.0800
 0.4600	 4.0880
 0.4610	 4.0980
 0.4620	 4.1040
 0.4630	 4.1030
 0.4640	 4.1030
 0.4650	 4.0960
 0.4660	 4.0900
 0.4670	 4.1070
 0.4680	 4.1110
 0.4690	 4.1070
 0.4700	 4.1050
 0.4710	 4.1070
 0.4720	 4.1090
 0.4730	 4.1140
 0.4740	 4.1210
 0.4750	 4.1250
 0.4760	 4.1250
 0.4770	 4.1230
 0.4780	 4.1230
 0.4790	 4.1240
 0.4800	 4.1310
 0.4810	 4.1440
 0.4820	 4.1500
 0.4830	 4.1550
 0.4840	 4.1620
 0.4850	 4.1710
 0.4860	 4.1840
 0.4870	 4.1960
 0.4880	 4.2040
 0.4890	 4.2140
 0.4900	 4.2280
 0.4910	 4.2410
 0.4920	 4.2500
 0.4930	 4.2600
 0.4940	 4.2720
 0.4950	 4.2870
 0.4960	 4.3160
 0.4970	 4.3400
 0.4980	 4.3650
 0.4990	 4.3970
 0.5000	 4.4260
 0.5010	 4.4580
 0.5020	 4.4980
 0.5030	 4.5430
 0.5040	 4.5900
 0.5050	 4.6400
 0.5060	 4.6950
 0.5070	 4.7590
 0.5080	 4.8280
 0.5090	 4.9010
 0.5100	 4.9770
 0.5110	 5.0510
 0.5120	 5.1330
 0.5130	 5.2250
 0.5140	 5.3190
 0.5150	 5.4180
 0.5160	 5.5220
 0.5170	 5.6330
 0.5180	 5.7500
 0.5190	 5.8680
 0.5200	 5.9870
 0.5210	 6.1090
 0.5220	 6.2260
 0.5230	 6.3450
 0.5240	 6.4650
 0.5250	 6.5800
 0.5260	 6.6880
 0.5270	 6.7920
 0.5280	 6.8950
 0.5290	 6.9900
 0.5300	 7.0750
 0.5310	 7.1510
 0.5320	 7.2210
 0.5330	 7.2850
 0.5340	 7.3410
 0.5350	 7.3910
 0.5360	 7.4380
 0.5370	 7.4830
 0.5380	 7.5250
 0.5390	 7.5680
 0.5400	 7.6250
 0.5410	 7.6930
 0.5420	 7.7610
 0.5430	 7.8130
 0.5440	 7.8430
 0.5450	 7.8490
 0.5460	 7.8330
 0.5470	 7.8060
 0.5480	 7.7790
 0.5490	 7.7620
 0.5500	 7.7590
 0.5510	 7.7580
 0.5520	 7.7500
 0.5530	 7.7330
 0.5540	 7.7110
 0.5550	 7.6830
 0.5560	 7.6500
 0.5570	 7.6120
 0.5580	 7.5690
 0.5590	 7.5230
 0.5600	 7.4770
 0.5610	 7.4290
 0.5620	 7.3770
 0.5630	 7.3200
 0.5640	 7.2590
 0.5650	 7.1990
 0.5660	 7.1360
 0.5670	 7.0690
 0.5680	 6.9990
 0.5690	 6.9250
 0.5700	 6.8510
 0.5710	 6.7800
 0.5720	 6.7110
 0.5730	 6.6430
 0.5740	 6.5750
 0.5750	 6.5070
 0.5760	 6.4450
 0.5770	 6.3900
 0.5780	 6.3410
 0.5790	 6.2970
 0.5800	 6.2550
 0.5810	 6.2140
 0.5820	 6.1750
 0.5830	 6.1340
 0.5840	 6.0940
 0.5850	 6.0590
 0.5860	 6.0330
 0.5870	 6.0160
 0.5880	 5.9960
 0.5890	 5.9640
 0.5900	 5.9310
 0.5910	 5.9020
 0.5920	 5.8770
 0.5930	 5.8560
 0.5940	 5.8360
 0.5950	 5.8160
 0.5960	 5.7970
 0.5970	 5.7870
 0.5980	 5.7770
 0.5990	 5.7630
 0.6000	 5.7460
 0.6010	 5.7290
 0.6020	 5.7100
 0.6030	 5.6880
 0.6040	 5.6620
 0.6050	 5.6330
 0.6060	 5.6030
 0.6070	 5.5730
 0.6080	 5.5420
 0.6090	 5.5170
 0.6100	 5.5060
 0.6110	 5.5070
 0.6120	 5.4700
 0.6130	 5.4080
 0.6140	 5.3420
 0.6150	 5.2950
 0.6160	 5.2510
 0.6170	 5.2100
 0.6180	 5.1770
 0.6190	 5.1500
 0.6200	 5.1250
 0.6210	 5.1000
 0.6220	 5.0760
 0.6230	 5.0560
 0.6240	 5.0400
 0.6250	 5.0260
 0.6260	 5.0120
 0.6270	 5.0010
 0.6280	 4.9930
 0.6290	 4.9870
 0.6300	 4.9840
 0.6310	 4.9790
 0.6320	 4.9710
 0.6330	 4.9560
 0.6340	 4.9390
 0.6350	 4.9200
 0.6360	 4.8980
 0.6370	 4.8700
 0.6380	 4.8380
 0.6390	 4.8030
 0.6400	 4.7660
 0.6410	 4.7270
 0.6420	 4.6870
 0.6430	 4.6470
 0.6440	 4.6060
 0.6450	 4.5620
 0.6460	 4.5200
 0.6470	 4.4830
 0.6480	 4.4470
 0.6490	 4.4180
 0.6500	 4.3950
 0.6510	 4.3710
 0.6520	 4.3500
 0.6530	 4.3300
 0.6540	 4.3080
 0.6550	 4.2880
 0.6560	 4.2660
 0.6570	 4.2400
 0.6580	 4.2120
 0.6590	 4.1790
 0.6600	 4.1440
 0.6610	 4.1090
 0.6620	 4.0770
 0.6630	 4.0450
 0.6640	 4.0140
 0.6650	 3.9850
 0.6660	 3.9590
 0.6670	 3.9390
 0.6680	 3.9240
 0.6690	 3.9140
 0.6700	 3.9070
 0.6710	 3.9040
 0.6720	 3.9060
 0.6730	 3.9140
 0.6740	 3.9230
 0.6750	 3.9350
 0.6760	 3.9540
 0.6770	 3.9780
 0.6780	 4.0050
 0.6790	 4.0350
 0.6800	 4.0690
 0.6810	 4.1080
 0.6820	 4.1550
 0.6830	 4.2080
 0.6840	 4.2650
 0.6850	 4.3330
 0.6860	 4.4100
 0.6870	 4.4940
 0.6880	 4.5920
 0.6890	 4.7060
 0.6900	 4.8400
 0.6910	 4.9960
 0.6920	 5.1760
 0.6930	 5.3830
 0.6940	 5.6130
 0.6950	 5.8660
 0.6960	 6.1430
 0.6970	 6.4410
 0.6980	 6.7580
 0.6990	 7.0940
 0.7000	 7.4500
 0.7010	 7.8210
 0.7020	 8.2040
 0.7030	 8.6000
 0.7040	 9.0080
 0.7050	 9.4260
 0.7060	 9.8530
 0.7070	10.2900
 0.7080	10.7380
 0.7090	11.1970
 0.7100	11.6600
 0.7110	12.1360
 0.7120	12.6250
 0.7130	13.1220
 0.7140	13.6260
 0.7150	14.1420
 0.7160	14.6700
 0.7170	15.2050
 0.7180	15.7490
 0.7190	16.2970
 0.7200	16.8450
 0.7210	17.3980
 0.7220	17.9530
 0.7230	18.5060
 0.7240	19.0530
 0.7250	19.5900
 0.7260	20.1190
 0.7270	20.6400
 0.7280	21.1480
 0.7290	21.6430
 0.7300	22.1210
 0.7310	22.5790
 0.7320	23.0220
 0.7330	23.4480
 0.7340	23.8540
 0.7350	24.2400
 0.7360	24.6050
 0.7370	24.9500
 0.7380	25.2770
 0.7390	25.5860
 0.7400	25.8720
 0.7410	26.1370
 0.7420	26.3850
 0.7430	26.6160
 0.7440	26.8280
 0.7450	27.0220
 0.7460	27.2010
 0.7470	27.3630
 0.7480	27.5110
 0.7490	27.6470
 0.7500	27.7700
 0.7510	27.8820
 0.7520	27.9830
 0.7530	28.0740
 0.7540	28.1530
 0.7550	28.2270
 0.7560	28.2970
 0.7570	28.3590
 0.7580	28.4130
 0.7590	28.4650
 0.7600	28.5140
 0.7610	28.5550
 0.7620	28.5920
 0.7630	28.6250
 0.7640	28.6510
 0.7650	28.6760
 0.7660	28.7000
 0.7670	28.7230
 0.7680	28.7440
 0.7690	28.7600
 0.7700	28.7760
 0.7710	28.7920
 0.7720	28.8070
 0.7730	28.8210
 0.7740	28.8330
 0.7750	28.8440
 0.7760	28.8560
 0.7770	28.8680
 0.7780	28.8790
 0.7790	28.8920
 0.7800	28.9050
 0.7810	28.9170
 0.7820	28.9270
 0.7830	28.9370
 0.7840	28.9460
 0.7850	28.9560
 0.7860	28.9670
 0.7870	28.9730
 0.7880	28.9810
 0.7890	28.9910
 0.7900	29.0010
 0.7910	29.0080
 0.7920	29.0140
 0.7930	29.0210
 0.7940	29.0290
 0.7950	29.0340
 0.7960	29.0390
 0.7970	29.0470
 0.7980	29.0520
 0.7990	29.0550
 0.8000	29.0580
 0.8010	29.0640
 0.8020	29.0660
 0.8030	29.0700
 0.8040	29.0750
 0.8050	29.0770
 0.8060	29.0780
 0.8070	29.0790
 0.8080	29.0820
 0.8090	29.0850
 0.8100	29.0870
 0.8110	29.0870
 0.8120	29.0870
 0.8130	29.0900
 0.8140	29.0880
 0.8150	29.0850
 0.8160	29.0840
 0.8170	29.0840
 0.8180	29.0850
 0.8190	29.0850
 0.8200	29.0860
 0.8210	29.0840
 0.8220	29.0810
 0.8230	29.0800
 0.8240	29.0830
 0.8250	29.0820
 0.8260	29.0800
 0.8270	29.0760
 0.8280	29.0760
 0.8290	29.0720
 0.8300	29.0680
 0.8310	29.0660
 0.8320	29.0640
 0.8330	29.0610
 0.8340	29.0590
 0.8350	29.0580
 0.8360	29.0620
 0.8370	29.0620
 0.8380	29.0590
 0.8390	29.0620
 0.8400	29.0630
 0.8410	29.0660
 0.8420	29.0710
 0.8430	29.0700
 0.8440	29.0680
 0.8450	29.0720
 0.8460	29.0800
 0.8470	29.0840
 0.8480	29.0890
 0.8490	29.0940
 0.8500	29.0940
 0.8510	29.0980
 0.8520	29.1040
 0.8530	29.1100
 0.8540	29.1130
 0.8550	29.1190
 0.8560	29.1240
 0.8570	29.1260
 0.8580	29.1290
 0.8590	29.1370
 0.8600	29.1450
 0.8610	29.1500
 0.8620	29.1590
 0.8630	29.1670
 0.8640	29.1740
 0.8650	29.1810
 0.8660	29.1890
 0.8670	29.1970
 0.8680	29.2030
 0.8690	29.2070
 0.8700	29.2180
 0.8710	29.2310
 0.8720	29.2410
 0.8730	29.2490
 0.8740	29.2540
 0.8750	29.2640
 0.8760	29.2770
 0.8770	29.2860
 0.8780	29.2920
 0.8790	29.3010
 0.8800	29.3110
 0.8810	29.3170
 0.8820	29.3280
 0.8830	29.3390
 0.8840	29.3450
 0.8850	29.3520
 0.8860	29.3600
 0.8870	29.3670
 0.8880	29.3740
 0.8890	29.3860
 0.8900	29.3970
 0.8910	29.4050
 0.8920	29.4110
 0.8930	29.4270
 0.8940	29.4370
 0.8950	29.4420
 0.8960	29.4490
 0.8970	29.4550
 0.8980	29.4630
 0.8990	29.4730
 0.9000	29.4780
 0.9010	29.4840
 0.9020	29.4930
 0.9030	29.4990
 0.9040	29.5020
 0.9050	29.5120
 0.9060	29.5230
 0.9070	29.5290
 0.9080	29.5300
 0.9090	29.5360
 0.9100	29.5450
 0.9110	29.5520
 0.9120	29.5570
 0.9130	29.5620
 0.9140	29.5640
 0.9150	29.5610
 0.9160	29.5690
 0.9170	29.5720
 0.9180	29.5740
 0.9190	29.5800
 0.9200	29.5820
 0.9210	29.5770
 0.9220	29.5720
 0.9230	29.5740
 0.9240	29.5700
 0.9250	29.5680
 0.9260	29.5690
 0.9270	29.5650
 0.9280	29.5530
 0.9290	29.5410
 0.9300	29.5330
 0.9310	29.5210
 0.9320	29.5090
 0.9330	29.5000
 0.9340	29.4920
 0.9350	29.4790
 0.9360	29.4700
 0.9370	29.4570
 0.9380	29.4370
 0.9390	29.4230
 0.9400	29.4090
 0.9410	29.3900
 0.9420	29.3700
 0.9430	29.3550
 0.9440	29.3280
 0.9450	29.2990
 0.9460	29.2770
 0.9470	29.2460
 0.9480	29.2140
 0.9490	29.1830
 0.9500	29.1530
 0.9510	29.1230
 0.9520	29.0770
 0.9530	29.0260
 0.9540	28.9870
 0.9550	28.9460
 0.9560	28.9100
 0.9570	28.8740
 0.9580	28.8320
 0.9590	28.8040
 0.9600	28.7740
 0.9610	28.7440
 0.9620	28.7200
 0.9630	28.6960
 0.9640	28.6760
 0.9650	28.6560
 0.9660	28.6360
 0.9670	28.6310
 0.9680	28.6270
 0.9690	28.6170
 0.9700	28.5990
 0.9710	28.5930
 0.9720	28.5800
 0.9730	28.5690
 0.9740	28.5720
 0.9750	28.5700
 0.9760	28.5690
 0.9770	28.5710
 0.9780	28.5750
 0.9790	28.5690
 0.9800	28.5670
 0.9810	28.5730
 0.9820	28.5800
 0.9830	28.5940
 0.9840	28.6040
 0.9850	28.6060
 0.9860	28.6000
 0.9870	28.6050
 0.9880	28.6120
 0.9890	28.6240
 0.9900	28.6470
 0.9910	28.6610
 0.9920	28.6690
 0.9930	28.6790
 0.9940	28.6970
 0.9950	28.7080
 0.9960	28.7160
 0.9970	28.7340
 0.9980	28.7630
 0.9990	28.7640
 1.0000	28.7720
 1.0010	29.6870
 1.0020	29.7060
 1.0030	29.7270
 1.0040	29.7450
 1.0050	29.7610
 1.0060	29.7800
 1.0070	29.7970
 1.0080	29.8160
 1.0090	29.8360
 1.0100	29.8550
 1.0110	29.8760
 1.0120	29.8950
 1.0130	29.9110
 1.0140	29.9300
 1.0150	29.9500
 1.0160	29.9710
 1.0170	29.9910
 1.0180	30.0090
 1.0190	30.0250
 1.0200	30.0400
 1.0210	30.0560
 1.0220	30.0770
 1.0230	30.0960
 1.0240	30.1160
 1.0250	30.1340
 1.0260	30.1510
 1.0270	30.1690
 1.0280	30.1890
 1.0290	30.2080
 1.0300	30.2260
 1.0310	30.2450
 1.0320	30.2650
 1.0330	30.2810
 1.0340	30.2970
 1.0350	30.3160
 1.0360	30.3330
 1.0370	30.3530
 1.0380	30.3710
 1.0390	30.3910
 1.0400	30.4100
 1.0410	30.4280
 1.0420	30.4440
 1.0430	30.4570
 1.0440	30.4730
 1.0450	30.4890
 1.0460	30.5050
 1.0470	30.5260
 1.0480	30.5420
 1.0490	30.5520
 1.0500	30.5640
 1.0510	30.5750
 1.0520	30.5850
 1.0530	30.5980
 1.0540	30.6130
 1.0550	30.6260
 1.0560	30.6420
 1.0570	30.6520
 1.0580	30.6590
 1.0590	30.6670
 1.0600	30.6740
 1.0610	30.6800
 1.0620	30.6870
 1.0630	30.6940
 1.0640	30.6990
 1.0650	30.7050
 1.0660	30.7160
 1.0670	30.7210
 1.0680	30.7230
 1.0690	30.7220
 1.0700	30.7230
 1.0710	30.7210
 1.0720	30.7230
 1.0730	30.7290
 1.0740	30.7300
 1.0750	30.7290
 1.0760	30.7280
 1.0770	30.7260
 1.0780	30.7250
 1.0790	30.7260
 1.0800	30.7250
 1.0810	30.7240
 1.0820	30.7230
 1.0830	30.7200
 1.0840	30.7170
 1.0850	30.7150
 1.0860	30.7120
 1.0870	30.7080
 1.0880	30.7030
 1.0890	30.6990
 1.0900	30.6960
 1.0910	30.6910
 1.0920	30.6850
 1.0930	30.6790
 1.0940	30.6700
 1.0950	30.6630
 1.0960	30.6580
 1.0970	30.6520
 1.0980	30.6480
 1.0990	30.6420
 1.1000	30.6340
 1.1010	30.6270
 1.1020	30.6180
 1.1030	30.6100
 1.1040	30.6050
 1.1050	30.5980
 1.1060	30.5910
 1.1070	30.5840
 1.1080	30.5770
 1.1090	30.5700
 1.1100	30.5620
 1.1110	30.5540
 1.1120	30.5450
 1.1130	30.5320
 1.1140	30.5210
 1.1150	30.5110
 1.1160	30.4990
 1.1170	30.4850
 1.1180	30.4710
 1.1190	30.4560
 1.1200	30.4390
 1.1210	30.4200
 1.1220	30.4000
 1.1230	30.3780
 1.1240	30.3520
 1.1250	30.3230
 1.1260	30.2930
 1.1270	30.2560
 1.1280	30.2160
 1.1290	30.1700
 1.1300	30.1200
 1.1310	30.0640
 1.1320	30.0040
 1.1330	29.9380
 1.1340	29.8670
 1.1350	29.7910
 1.1360	29.7100
 1.1370	29.6250
 1.1380	29.5370
 1.1390	29.4450
 1.1400	29.3480
 1.1410	29.2490
 1.1420	29.1470
 1.1430	29.0460
 1.1440	28.9440
 1.1450	28.8420
 1.1460	28.7420
 1.1470	28.6410
 1.1480	28.5460
 1.1490	28.4550
 1.1500	28.3680
 1.1510	28.2870
 1.1520	28.2090
 1.1530	28.1350
 1.1540	28.0670
 1.1550	28.0030
 1.1560	27.9440
 1.1570	27.8890
 1.1580	27.8400
 1.1590	27.7960
 1.1600	27.7560
 1.1610	27.7210
 1.1620	27.6870
 1.1630	27.6580
 1.1640	27.6310
 1.1650	27.6070
 1.1660	27.5860
 1.1670	27.5660
 1.1680	27.5480
 1.1690	27.5320
 1.1700	27.5180
 1.1710	27.5050
 1.1720	27.4950
 1.1730	27.4830
 1.1740	27.4720
 1.1750	27.4610
 1.1760	27.4480
 1.1770	27.4350
 1.1780	27.4210
 1.1790	27.4090
 1.1800	27.3960
 1.1810	27.3840
 1.1820	27.3730
 1.1830	27.3610
 1.1840	27.3480
 1.1850	27.3350
 1.1860	27.3210
 1.1870	27.3090
 1.1880	27.2980
 1.1890	27.2870
 1.1900	27.2790
 1.1910	27.2720
 1.1920	27.2660
 1.1930	27.2600
 1.1940	27.2560
 1.1950	27.2520
 1.1960	27.2480
 1.1970	27.2470
 1.1980	27.2470
 1.1990	27.2470
 1.2000	27.2490
 1.2010	27.2510
 1.2020	27.2550
 1.2030	27.2620
 1.2040	27.2670
 1.2050	27.2750
 1.2060	27.2820
 1.2070	27.2910
 1.2080	27.3020
 1.2090	27.3140
 1.2100	27.3280
 1.2110	27.3430
 1.2120	27.3590
 1.2130	27.3760
 1.2140	27.3950
 1.2150	27.4150
 1.2160	27.4360
 1.2170	27.4580
 1.2180	27.4810
 1.2190	27.5060
 1.2200	27.5320
 1.2210	27.5570
 1.2220	27.5830
 1.2230	27.6080
 1.2240	27.6340
 1.2250	27.6590
 1.2260	27.6830
 1.2270	27.7070
 1.2280	27.7300
 1.2290	27.7540
 1.2300	27.7780
 1.2310	27.8000
 1.2320	27.8230
 1.2330	27.8440
 1.2340	27.8630
 1.2350	27.8800
 1.2360	27.8980
 1.2370	27.9160
 1.2380	27.9340
 1.2390	27.9510
 1.2400	27.9680
 1.2410	27.9840
 1.2420	27.9990
 1.2430	28.0150
 1.2440	28.0310
 1.2450	28.0450
 1.2460	28.0590
 1.2470	28.0740
 1.2480	28.0880
 1.2490	28.1020
 1.2500	28.1150
 1.2510	28.1250
 1.2520	28.1350
 1.2530	28.1450
 1.2540	28.1540
 1.2550	28.1630
 1.2560	28.1720
 1.2570	28.1810
 1.2580	28.1880
 1.2590	28.1950
 1.2600	28.2020
 1.2610	28.2070
 1.2620	28.2120
 1.2630	28.2170
 1.2640	28.2220
 1.2650	28.2250
 1.2660	28.2290
 1.2670	28.2300
 1.2680	28.2310
 1.2690	28.2310
 1.2700	28.2300
 1.2710	28.2300
 1.2720	28.2280
 1.2730	28.2260
 1.2740	28.2240
 1.2750	28.2210
 1.2760	28.2170
 1.2770	28.2110
 1.2780	28.2070
 1.2790	28.2010
 1.2800	28.1940
 1.2810	28.1870
 1.2820	28.1790
 1.2830	28.1680
 1.2840	28.1580
 1.2850	28.1460
 1.2860	28.1300
 1.2870	28.1120
 1.2880	28.0930
 1.2890	28.0710
 1.2900	28.0450
 1.2910	28.0180
 1.2920	27.9870
 1.2930	27.9550
 1.2940	27.9200
 1.2950	27.8820
 1.2960	27.8450
 1.2970	27.8050
 1.2980	27.7630
 1.2990	27.7200
 1.3000	27.6750
 1.3010	27.6280
 1.3020	27.5780
 1.3030	27.5260
 1.3040	27.4710
 1.3050	27.4150
 1.3060	27.3590
 1.3070	27.3010
 1.3080	27.2390
 1.3090	27.1770
 1.3100	27.1120
 1.3110	27.0430
 1.3120	26.9730
 1.3130	26.9010
 1.3140	26.8280
 1.3150	26.7510
 1.3160	26.6750
 1.3170	26.5980
 1.3180	26.5190
 1.3190	26.4390
 1.3200	26.3570
 1.3210	26.2720
 1.3220	26.1860
 1.3230	26.0970
 1.3240	26.0060
 1.3250	25.9150
 1.3260	25.8210
 1.3270	25.7270
 1.3280	25.6330
 1.3290	25.5370
 1.3300	25.4390
 1.3310	25.3410
 1.3320	25.2410
 1.3330	25.1420
 1.3340	25.0440
 1.3350	24.9450
 1.3360	24.8470
 1.3370	24.7480
 1.3380	24.6500
 1.3390	24.5540
 1.3400	24.4580
 1.3410	24.3650
 1.3420	24.2710
 1.3430	24.1780
 1.3440	24.0850
 1.3450	23.9940
 1.3460	23.9050
 1.3470	23.8170
 1.3480	23.7300
 1.3490	23.6440
 1.3500	23.5590
 1.3510	23.4740
 1.3520	23.3890
 1.3530	23.3060
 1.3540	23.2230
 1.3550	23.1400
 1.3560	23.0570
 1.3570	22.9730
 1.3580	22.8890
 1.3590	22.8040
 1.3600	22.7160
 1.3610	22.6260
 1.3620	22.5320
 1.3630	22.4350
 1.3640	22.3320
 1.3650	22.2250
 1.3660	22.1140
 1.3670	21.9950
 1.3680	21.8700
 1.3690	21.7370
 1.3700	21.5930
 1.3710	21.4400
 1.3720	21.2770
 1.3730	21.1020
 1.3740	20.9160
 1.3750	20.7180
 1.3760	20.5060
 1.3770	20.2800
 1.3780	20.0360
 1.3790	19.7770
 1.3800	19.5040
 1.3810	19.2140
 1.3820	18.9120
 1.3830	18.5990
 1.3840	18.2730
 1.3850	17.9350
 1.3860	17.5890
 1.3870	17.2290
 1.3880	16.8700
 1.3890	16.5030
 1.3900	16.1320
 1.3910	15.7650
 1.3920	15.3960
 1.3930	15.0280
 1.3940	14.6660
 1.3950	14.3050
 1.3960	13.9510
 1.3970	13.6080
 1.3980	13.2730
 1.3990	12.9530
 1.4000	12.6440
 1.4010	12.3450
 1.4020	12.0590
 1.4030	11.7860
 1.4040	11.5260
 1.4050	11.2790
 1.4060	11.0450
 1.4070	10.8270
 1.4080	10.6220
 1.4090	10.4290
 1.4100	10.2490
 1.4110	10.0790
 1.4120	 9.9200
 1.4130	 9.7710
 1.4140	 9.6330
 1.4150	 9.5050
 1.4160	 9.3860
 1.4170	 9.2750
 1.4180	 9.1730
 1.4190	 9.0770
 1.4200	 8.9880
 1.4210	 8.9050
 1.4220	 8.8260
 1.4230	 8.7540
 1.4240	 8.6880
 1.4250	 8.6250
 1.4260	 8.5690
 1.4270	 8.5150
 1.4280	 8.4660
 1.4290	 8.4200
 1.4300	 8.3780
 1.4310	 8.3390
 1.4320	 8.3040
 1.4330	 8.2710
 1.4340	 8.2430
 1.4350	 8.2170
 1.4360	 8.1930
 1.4370	 8.1700
 1.4380	 8.1500
 1.4390	 8.1320
 1.4400	 8.1160
 1.4410	 8.1040
 1.4420	 8.0930
 1.4430	 8.0830
 1.4440	 8.0750
 1.4450	 8.0690
 1.4460	 8.0630
 1.4470	 8.0600
 1.4480	 8.0570
 1.4490	 8.0550
 1.4500	 8.0560
 1.4510	 8.0560
 1.4520	 8.0580
 1.4530	 8.0610
 1.4540	 8.0650
 1.4550	 8.0710
 1.4560	 8.0790
 1.4570	 8.0880
 1.4580	 8.0980
 1.4590	 8.1090
 1.4600	 8.1230
 1.4610	 8.1390
 1.4620	 8.1570
 1.4630	 8.1780
 1.4640	 8.2010
 1.4650	 8.2260
 1.4660	 8.2540
 1.4670	 8.2860
 1.4680	 8.3190
 1.4690	 8.3550
 1.4700	 8.3930
 1.4710	 8.4330
 1.4720	 8.4750
 1.4730	 8.5200
 1.4740	 8.5650
 1.4750	 8.6140
 1.4760	 8.6640
 1.4770	 8.7150
 1.4780	 8.7680
 1.4790	 8.8220
 1.4800	 8.8770
 1.4810	 8.9330
 1.4820	 8.9910
 1.4830	 9.0500
 1.4840	 9.1100
 1.4850	 9.1710
 1.4860	 9.2320
 1.4870	 9.2950
 1.4880	 9.3580
 1.4890	 9.4210
 1.4900	 9.4850
 1.4910	 9.5500
 1.4920	 9.6150
 1.4930	 9.6810
 1.4940	 9.7480
 1.4950	 9.8150
 1.4960	 9.8830
 1.4970	 9.9500
 1.4980	10.0180
 1.4990	10.0870
 1.5000	10.1560
 1.5010	10.2270
 1.5020	10.2970
 1.5030	10.3670
 1.5040	10.4370
 1.5050	10.5080
 1.5060	10.5780
 1.5070	10.6490
 1.5080	10.7200
 1.5090	10.7910
 1.5100	10.8620
 1.5110	10.9320
 1.5120	11.0050
 1.5130	11.0770
 1.5140	11.1490
 1.5150	11.2200
 1.5160	11.2910
 1.5170	11.3610
 1.5180	11.4330
 1.5190	11.5060
 1.5200	11.5790
 1.5210	11.6500
 1.5220	11.7210
 1.5230	11.7910
 1.5240	11.8600
 1.5250	11.9300
 1.5260	12.0010
 1.5270	12.0710
 1.5280	12.1420
 1.5290	12.2110
 1.5300	12.2800
 1.5310	12.3490
 1.5320	12.4190
 1.5330	12.4880
 1.5340	12.5560
 1.5350	12.6240
 1.5360	12.6900
 1.5370	12.7560
 1.5380	12.8210
 1.5390	12.8870
 1.5400	12.9540
 1.5410	13.0200
 1.5420	13.0860
 1.5430	13.1520
 1.5440	13.2170
 1.5450	13.2810
 1.5460	13.3450
 1.5470	13.4080
 1.5480	13.4700
 1.5490	13.5340
 1.5500	13.5960
 1.5510	13.6580
 1.5520	13.7190
 1.5530	13.7790
 1.5540	13.8390
 1.5550	13.8980
 1.5560	13.9570
 1.5570	14.0160
 1.5580	14.0750
 1.5590	14.1330
 1.5600	14.1900
 1.5610	14.2460
 1.5620	14.3000
 1.5630	14.3540
 1.5640	14.4080
 1.5650	14.4630
 1.5660	14.5180
 1.5670	14.5720
 1.5680	14.6250
 1.5690	14.6770
 1.5700	14.7290
 1.5710	14.7820
 1.5720	14.8330
 1.5730	14.8830
 1.5740	14.9340
 1.5750	14.9830
 1.5760	15.0320
 1.5770	15.0810
 1.5780	15.1310
 1.5790	15.1800
 1.5800	15.2280
 1.5810	15.2770
 1.5820	15.3230
 1.5830	15.3700
 1.5840	15.4170
 1.5850	15.4630
 1.5860	15.5090
 1.5870	15.5540
 1.5880	15.5990
 1.5890	15.6430
 1.5900	15.6870
 1.5910	15.7300
 1.5920	15.7730
 1.5930	15.8150
 1.5940	15.8580
 1.5950	15.9020
 1.5960	15.9440
 1.5970	15.9840
 1.5980	16.0230
 1.5990	16.0620
 1.6000	16.1020
 1.6010	16.1420
 1.6020	16.1810
 1.6030	16.2210
 1.6040	16.2580
 1.6050	16.2960
 1.6060	16.3340
 1.6070	16.3710
 1.6080	16.4080
 1.6090	16.4430
 1.6100	16.4770
 1.6110	16.5100
 1.6120	16.5440
 1.6130	16.5790
 1.6140	16.6140
 1.6150	16.6480
 1.6160	16.6810
 1.6170	16.7120
 1.6180	16.7420
 1.6190	16.7720
 1.6200	16.8010
 1.6210	16.8310
 1.6220	16.8600
 1.6230	16.8880
 1.6240	16.9150
 1.6250	16.9420
 1.6260	16.9690
 1.6270	16.9970
 1.6280	17.0240
 1.6290	17.0490
 1.6300	17.0730
 1.6310	17.0980
 1.6320	17.1220
 1.6330	17.1450
 1.6340	17.1690
 1.6350	17.1900
 1.6360	17.2090
 1.6370	17.2280
 1.6380	17.2450
 1.6390	17.2630
 1.6400	17.2800
 1.6410	17.2960
 1.6420	17.3110
 1.6430	17.3250
 1.6440	17.3360
 1.6450	17.3480
 1.6460	17.3560
 1.6470	17.3640
 1.6480	17.3720
 1.6490	17.3770
 1.6500	17.3820
 1.6510	17.3850
 1.6520	17.3860
 1.6530	17.3850
 1.6540	17.3840
 1.6550	17.3830
 1.6560	17.3830
 1.6570	17.3810
 1.6580	17.3790
 1.6590	17.3740
 1.6600	17.3690
 1.6610	17.3670
 1.6620	17.3630
 1.6630	17.3610
 1.6640	17.3590
 1.6650	17.3550
 1.6660	17.3540
 1.6670	17.3520
 1.6680	17.3480
 1.6690	17.3460
 1.6700	17.3420
 1.6710	17.3370
 1.6720	17.3330
 1.6730	17.3280
 1.6740	17.3220
 1.6750	17.3150
 1.6760	17.3070
 1.6770	17.2980
 1.6780	17.2880
 1.6790	17.2800
 1.6800	17.2720
 1.6810	17.2610
 1.6820	17.2490
 1.6830	17.2350
 1.6840	17.2170
 1.6850	17.2010
 1.6860	17.1850
 1.6870	17.1680
 1.6880	17.1490
 1.6890	17.1270
 1.6900	17.1040
 1.6910	17.0780
 1.6920	17.0520
 1.6930	17.0240
 1.6940	16.9970
 1.6950	16.9700
 1.6960	16.9410
 1.6970	16.9110
 1.6980	16.8810
 1.6990	16.8500
 1.7000	16.8190
 1.7010	16.7890
 1.7020	16.7570
 1.7030	16.7240
 1.7040	16.6920
 1.7050	16.6600
 1.7060	16.6270
 1.7070	16.5940
 1.7080	16.5600
 1.7090	16.5260
 1.7100	16.4920
 1.7110	16.4580
 1.7120	16.4230
 1.7130	16.3890
 1.7140	16.3550
 1.7150	16.3220
 1.7160	16.2900
 1.7170	16.2550
 1.7180	16.2210
 1.7190	16.1860
 1.7200	16.1480
 1.7210	16.1100
 1.7220	16.0720
 1.7230	16.0350
 1.7240	15.9990
 1.7250	15.9640
 1.7260	15.9290
 1.7270	15.8940
 1.7280	15.8610
 1.7290	15.8290
 1.7300	15.8010
 1.7310	15.7770
 1.7320	15.7560
 1.7330	15.7370
 1.7340	15.7220
 1.7350	15.7080
 1.7360	15.6960
 1.7370	15.6820
 1.7380	15.6660
 1.7390	15.6500
 1.7400	15.6310
 1.7410	15.6100
 1.7420	15.5880
 1.7430	15.5640
 1.7440	15.5360
 1.7450	15.5070
 1.7460	15.4770
 1.7470	15.4450
 1.7480	15.4090
 1.7490	15.3740
 1.7500	15.3370
 1.7510	15.3000
 1.7520	15.2640
 1.7530	15.2270
 1.7540	15.1890
 1.7550	15.1520
 1.7560	15.1150
 1.7570	15.0800
 1.7580	15.0440
 1.7590	15.0080
 1.7600	14.9730
 1.7610	14.9380
 1.7620	14.9070
 1.7630	14.8790
 1.7640	14.8510
 1.7650	14.8250
 1.7660	14.8000
 1.7670	14.7780
 1.7680	14.7570
 1.7690	14.7360
 1.7700	14.7170
 1.7710	14.6970
 1.7720	14.6790
 1.7730	14.6620
 1.7740	14.6450
 1.7750	14.6270
 1.7760	14.6110
 1.7770	14.5950
 1.7780	14.5800
 1.7790	14.5670
 1.7800	14.5530
 1.7810	14.5380
 1.7820	14.5260
 1.7830	14.5150
 1.7840	14.5050
 1.7850	14.4980
 1.7860	14.4910
 1.7870	14.4830
 1.7880	14.4760
 1.7890	14.4710
 1.7900	14.4660
 1.7910	14.4640
 1.7920	14.4630
 1.7930	14.4640
 1.7940	14.4660
 1.7950	14.4670
 1.7960	14.4690
 1.7970	14.4710
 1.7980	14.4720
 1.7990	14.4750
 1.8000	14.4800
 1.8010	14.4850
 1.8020	14.4900
 1.8030	14.4970
 1.8040	14.5050
 1.8050	14.5120
 1.8060	14.5190
 1.8070	14.5250
 1.8080	14.5300
 1.8090	14.5360
 1.8100	14.5420
 1.8110	14.5480
 1.8120	14.5530
 1.8130	14.5600
 1.8140	14.5640
 1.8150	14.5680
 1.8160	14.5710
 1.8170	14.5710
 1.8180	14.5700
 1.8190	14.5690
 1.8200	14.5690
 1.8210	14.5730
 1.8220	14.5750
 1.8230	14.5760
 1.8240	14.5740
 1.8250	14.5670
 1.8260	14.5640
 1.8270	14.5630
 1.8280	14.5580
 1.8290	14.5540
 1.8300	14.5450
 1.8310	14.5820
 1.8320	14.5630
 1.8330	14.5420
 1.8340	14.5180
 1.8350	14.4920
 1.8360	14.4680
 1.8370	14.4390
 1.8380	14.4060
 1.8390	14.3740
 1.8400	14.3400
 1.8410	14.3020
 1.8420	14.2630
 1.8430	14.2200
 1.8440	14.1690
 1.8450	14.1120
 1.8460	14.0510
 1.8470	13.9830
 1.8480	13.9080
 1.8490	13.8290
 1.8500	13.7450
 1.8510	13.6550
 1.8520	13.5600
 1.8530	13.4570
 1.8540	13.3440
 1.8550	13.2230
 1.8560	13.0970
 1.8570	12.9640
 1.8580	12.8220
 1.8590	12.6720
 1.8600	12.5150
 1.8610	12.3470
 1.8620	12.1700
 1.8630	11.9920
 1.8640	11.8020
 1.8650	11.6000
 1.8660	11.3880
 1.8670	11.1620
 1.8680	10.9300
 1.8690	10.6920
 1.8700	10.4440
 1.8710	10.1890
 1.8720	 9.9300
 1.8730	 9.6650
 1.8740	 9.3950
 1.8750	 9.1220
 1.8760	 8.8460
 1.8770	 8.5700
 1.8780	 8.2950
 1.8790	 8.0220
 1.8800	 7.7520
 1.8810	 7.4860
 1.8820	 7.2180
 1.8830	 6.9530
 1.8840	 6.6940
 1.8850	 6.4400
 1.8860	 6.1940
 1.8870	 5.9560
 1.8880	 5.7220
 1.8890	 5.4990
 1.8900	 5.2860
 1.8910	 5.0830
 1.8920	 4.8890
 1.8930	 4.7060
 1.8940	 4.5340
 1.8950	 4.3730
 1.8960	 4.2200
 1.8970	 4.0810
 1.8980	 3.9510
 1.8990	 3.8320
 1.9000	 3.7220
 1.9010	 3.6230
 1.9020	 3.5300
 1.9030	 3.4480
 1.9040	 3.3720
 1.9050	 3.3000
 1.9060	 3.2350
 1.9070	 3.1750
 1.9080	 3.1230
 1.9090	 3.0770
 1.9100	 3.0350
 1.9110	 2.9970
 1.9120	 2.9640
 1.9130	 2.9320
 1.9140	 2.9030
 1.9150	 2.8780
 1.9160	 2.8560
 1.9170	 2.8360
 1.9180	 2.8190
 1.9190	 2.8030
 1.9200	 2.7890
 1.9210	 2.7770
 1.9220	 2.7640
 1.9230	 2.7520
 1.9240	 2.7430
 1.9250	 2.7370
 1.9260	 2.7300
 1.9270	 2.7260
 1.9280	 2.7260
 1.9290	 2.7240
 1.9300	 2.7240
 1.9310	 2.7240
 1.9320	 2.7240
 1.9330	 2.7250
 1.9340	 2.7260
 1.9350	 2.7300
 1.9360	 2.7350
 1.9370	 2.7390
 1.9380	 2.7460
 1.9390	 2.7500
 1.9400	 2.7560
 1.9410	 2.7640
 1.9420	 2.7720
 1.9430	 2.7830
 1.9440	 2.7960
 1.9450	 2.8120
 1.9460	 2.8250
 1.9470	 2.8380
 1.9480	 2.8520
 1.9490	 2.8640
 1.9500	 2.8770
 1.9510	 2.8960
 1.9520	 2.9170
 1.9530	 2.9330
 1.9540	 2.9500
 1.9550	 2.9680
 1.9560	 2.9820
 1.9570	 2.9990
 1.9580	 3.0210
 1.9590	 3.0400
 1.9600	 3.0570
 1.9610	 3.0770
 1.9620	 3.0990
 1.9630	 3.1200
 1.9640	 3.1420
 1.9650	 3.1650
 1.9660	 3.1860
 1.9670	 3.2100
 1.9680	 3.2330
 1.9690	 3.2590
 1.9700	 3.2820
 1.9710	 3.3030
 1.9720	 3.3270
 1.9730	 3.3520
 1.9740	 3.3740
 1.9750	 3.3990
 1.9760	 3.4260
 1.9770	 3.4520
 1.9780	 3.4780
 1.9790	 3.5050
 1.9800	 3.5360
 1.9810	 3.5620
 1.9820	 3.5870
 1.9830	 3.6140
 1.9840	 3.6410
 1.9850	 3.6670
 1.9860	 3.6950
 1.9870	 3.7230
 1.9880	 3.7480
 1.9890	 3.7750
 1.9900	 3.8050
 1.9910	 3.8330
 1.9920	 3.8620
 1.9930	 3.8940
 1.9940	 3.9230
 1.9950	 3.9500
 1.9960	 3.9790
 1.9970	 4.0060
 1.9980	 4.0350
 1.9990	 4.0670
 2.0000	 4.0970
 2.0010	 4.1270
 2.0020	 4.1600
 2.0030	 4.1900
 2.0040	 4.2230
 2.0050	 4.2550
 2.0060	 4.2870
 2.0070	 4.3190
 2.0080	 4.3500
 2.0090	 4.3810
 2.0100	 4.4110
 2.0110	 4.4430
 2.0120	 4.4740
 2.0130	 4.5050
 2.0140	 4.5370
 2.0150	 4.5660
 2.0160	 4.5960
 2.0170	 4.6280
 2.0180	 4.6590
 2.0190	 4.6930
 2.0200	 4.7230
 2.0210	 4.7510
 2.0220	 4.7800
 2.0230	 4.8090
 2.0240	 4.8370
 2.0250	 4.8670
 2.0260	 4.8960
 2.0270	 4.9240
 2.0280	 4.9500
 2.0290	 4.9770
 2.0300	 5.0050
 2.0310	 5.0340
 2.0320	 5.0630
 2.0330	 5.0910
 2.0340	 5.1200
 2.0350	 5.1490
 2.0360	 5.1780
 2.0370	 5.2070
 2.0380	 5.2350
 2.0390	 5.2620
 2.0400	 5.2890
 2.0410	 5.3140
 2.0420	 5.3370
 2.0430	 5.3610
 2.0440	 5.3840
 2.0450	 5.4040
 2.0460	 5.4290
 2.0470	 5.4560
 2.0480	 5.4820
 2.0490	 5.5130
 2.0500	 5.5390
 2.0510	 5.5620
 2.0520	 5.5870
 2.0530	 5.6090
 2.0540	 5.6340
 2.0550	 5.6600
 2.0560	 5.6850
 2.0570	 5.7140
 2.0580	 5.7400
 2.0590	 5.7670
 2.0600	 5.7950
 2.0610	 5.8220
 2.0620	 5.8480
 2.0630	 5.8740
 2.0640	 5.9010
 2.0650	 5.9280
 2.0660	 5.9550
 2.0670	 5.9820
 2.0680	 6.0090
 2.0690	 6.0350
 2.0700	 6.0580
 2.0710	 6.0840
 2.0720	 6.1110
 2.0730	 6.1380
 2.0740	 6.1650
 2.0750	 6.1930
 2.0760	 6.2210
 2.0770	 6.2500
 2.0780	 6.2790
 2.0790	 6.3110
 2.0800	 6.3380
 2.0810	 6.3610
 2.0820	 6.3870
 2.0830	 6.4140
 2.0840	 6.4400
 2.0850	 6.4660
 2.0860	 6.4930
 2.0870	 6.5170
 2.0880	 6.5420
 2.0890	 6.5680
 2.0900	 6.5960
 2.0910	 6.6210
 2.0920	 6.6430
 2.0930	 6.6670
 2.0940	 6.6900
 2.0950	 6.7150
 2.0960	 6.7410
 2.0970	 6.7660
 2.0980	 6.7910
 2.0990	 6.8160
 2.1000	 6.8410
 2.1010	 6.8660
 2.1020	 6.8930
 2.1030	 6.9170
 2.1040	 6.9410
 2.1050	 6.9620
 2.1060	 6.9840
 2.1070	 7.0020
 2.1080	 7.0250
 2.1090	 7.0510
 2.1100	 7.0750
 2.1110	 7.1020
 2.1120	 7.1250
 2.1130	 7.1430
 2.1140	 7.1640
 2.1150	 7.1830
 2.1160	 7.2050
 2.1170	 7.2330
 2.1180	 7.2550
 2.1190	 7.2770
 2.1200	 7.2960
 2.1210	 7.3100
 2.1220	 7.3240
 2.1230	 7.3420
 2.1240	 7.3610
 2.1250	 7.3800
 2.1260	 7.4010
 2.1270	 7.4200
 2.1280	 7.4370
 2.1290	 7.4550
 2.1300	 7.4720
 2.1310	 7.4890
 2.1320	 7.5060
 2.1330	 7.5230
 2.1340	 7.5400
 2.1350	 7.5560
 2.1360	 7.5700
 2.1370	 7.5860
 2.1380	 7.6030
 2.1390	 7.6180
 2.1400	 7.6320
 2.1410	 7.6450
 2.1420	 7.6580
 2.1430	 7.6650
 2.1440	 7.6790
 2.1450	 7.6980
 2.1460	 7.7130
 2.1470	 7.7310
 2.1480	 7.7470
 2.1490	 7.7610
 2.1500	 7.7760
 2.1510	 7.7930
 2.1520	 7.8100
 2.1530	 7.8290
 2.1540	 7.8440
 2.1550	 7.8600
 2.1560	 7.8750
 2.1570	 7.8840
 2.1580	 7.8970
 2.1590	 7.9110
 2.1600	 7.9260
 2.1610	 7.9380
 2.1620	 7.9540
 2.1630	 7.9640
 2.1640	 7.9710
 2.1650	 7.9820
 2.1660	 7.9940
 2.1670	 8.0080
 2.1680	 8.0250
 2.1690	 8.0400
 2.1700	 8.0530
 2.1710	 8.0670
 2.1720	 8.0820
 2.1730	 8.0960
 2.1740	 8.1080
 2.1750	 8.1200
 2.1760	 8.1280
 2.1770	 8.1400
 2.1780	 8.1530
 2.1790	 8.1660
 2.1800	 8.1840
 2.1810	 8.1980
 2.1820	 8.2100
 2.1830	 8.2230
 2.1840	 8.2330
 2.1850	 8.2400
 2.1860	 8.2510
 2.1870	 8.2620
 2.1880	 8.2760
 2.1890	 8.2940
 2.1900	 8.3090
 2.1910	 8.3230
 2.1920	 8.3380
 2.1930	 8.3540
 2.1940	 8.3690
 2.1950	 8.3840
 2.1960	 8.3970
 2.1970	 8.4070
 2.1980	 8.4190
 2.1990	 8.4310
 2.2000	 8.4420
 2.2010	 8.4520
 2.2020	 8.4610
 2.2030	 8.4720
 2.2040	 8.4800
 2.2050	 8.4880
 2.2060	 8.4910
 2.2070	 8.4950
 2.2080	 8.4980
 2.2090	 8.5030
 2.2100	 8.5080
 2.2110	 8.5140
 2.2120	 8.5220
 2.2130	 8.5290
 2.2140	 8.5400
 2.2150	 8.5430
 2.2160	 8.5450
 2.2170	 8.5430
 2.2180	 8.5310
 2.2190	 8.5260
 2.2200	 8.5270
 2.2210	 8.5200
 2.2220	 8.5100
 2.2230	 8.5020
 2.2240	 8.4870
 2.2250	 8.4770
 2.2260	 8.4750
 2.2270	 8.4680
 2.2280	 8.4610
 2.2290	 8.4500
 2.2300	 8.4360
 2.2310	 8.4210
 2.2320	 8.4080
 2.2330	 8.3950
 2.2340	 8.3830
 2.2350	 8.3750
 2.2360	 8.3590
 2.2370	 8.3400
 2.2380	 8.3220
 2.2390	 8.2990
 2.2400	 8.2810
 2.2410	 8.2660
 2.2420	 8.2480
 2.2430	 8.2310
 2.2440	 8.2110
 2.2450	 8.1920
 2.2460	 8.1690
 2.2470	 8.1410
 2.2480	 8.1150
 2.2490	 8.0850
 2.2500	 8.0570
 2.2510	 8.0320
 2.2520	 8.0050
 2.2530	 7.9760
 2.2540	 7.9490
 2.2550	 7.9260
 2.2560	 7.8990
 2.2570	 7.8690
 2.2580	 7.8410
 2.2590	 7.8110
 2.2600	 7.7800
 2.2610	 7.7530
 2.2620	 7.7240
 2.2630	 7.6920
 2.2640	 7.6610
 2.2650	 7.6300
 2.2660	 7.6000
 2.2670	 7.5710
 2.2680	 7.5420
 2.2690	 7.5110
 2.2700	 7.4790
 2.2710	 7.4480
 2.2720	 7.4160
 2.2730	 7.3850
 2.2740	 7.3530
 2.2750	 7.3230
 2.2760	 7.2930
 2.2770	 7.2650
 2.2780	 7.2400
 2.2790	 7.2140
 2.2800	 7.1860
 2.2810	 7.1600
 2.2820	 7.1360
 2.2830	 7.1090
 2.2840	 7.0820
 2.2850	 7.0520
 2.2860	 7.0170
 2.2870	 6.9830
 2.2880	 6.9460
 2.2890	 6.9110
 2.2900	 6.8710
 2.2910	 6.8360
 2.2920	 6.8040
 2.2930	 6.7710
 2.2940	 6.7420
 2.2950	 6.7100
 2.2960	 6.6750
 2.2970	 6.6410
 2.2980	 6.6040
 2.2990	 6.5670
 2.3000	 6.5360
 2.3010	 6.5060
 2.3020	 6.4820
 2.3030	 6.4550
 2.3040	 6.4230
 2.3050	 6.3900
 2.3060	 6.3540
 2.3070	 6.3220
 2.3080	 6.2940
 2.3090	 6.2730
 2.3100	 6.2520
 2.3110	 6.2290
 2.3120	 6.2120
 2.3130	 6.1960
 2.3140	 6.1890
 2.3150	 6.1920
 2.3160	 6.1900
 2.3170	 6.1900
 2.3180	 6.1890
 2.3190	 6.1850
 2.3200	 6.1810
 2.3210	 6.1800
 2.3220	 6.1760
 2.3230	 6.1700
 2.3240	 6.1620
 2.3250	 6.1530
 2.3260	 6.1420
 2.3270	 6.1290
 2.3280	 6.1140
 2.3290	 6.0970
 2.3300	 6.0770
 2.3310	 6.0520
 2.3320	 6.0280
 2.3330	 6.0040
 2.3340	 5.9780
 2.3350	 5.9500
 2.3360	 5.9210
 2.3370	 5.8900
 2.3380	 5.8580
 2.3390	 5.8220
 2.3400	 5.7910
 2.3410	 5.7620
 2.3420	 5.7330
 2.3430	 5.7060
 2.3440	 5.6810
 2.3450	 5.6580
 2.3460	 5.6340
 2.3470	 5.6140
 2.3480	 5.5910
 2.3490	 5.5640
 2.3500	 5.5390
 2.3510	 5.5130
 2.3520	 5.4900
 2.3530	 5.4670
 2.3540	 5.4440
 2.3550	 5.4380
 2.3560	 5.4210
 2.3570	 5.4080
 2.3580	 5.4050
 2.3590	 5.3900
 2.3600	 5.3790
 2.3610	 5.3650
 2.3620	 5.3410
 2.3630	 5.3210
 2.3640	 5.2950
 2.3650	 5.2750
 2.3660	 5.2630
 2.3670	 5.2440
 2.3680	 5.2270
 2.3690	 5.2000
 2.3700	 5.1750
 2.3710	 5.1600
 2.3720	 5.1390
 2.3730	 5.1280
 2.3740	 5.1120
 2.3750	 5.0760
 2.3760	 5.0410
 2.3770	 5.0180
 2.3780	 4.9930
 2.3790	 4.9760
 2.3800	 4.9680
 2.3810	 4.9460
 2.3820	 4.9210
 2.3830	 4.9050
 2.3840	 4.8890
 2.3850	 4.8810
 2.3860	 4.8690
 2.3870	 4.8380
 2.3880	 4.8090
 2.3890	 4.7790
 2.3900	 4.7410
 2.3910	 4.7090
 2.3920	 4.6890
 2.3930	 4.6710
 2.3940	 4.6550
 2.3950	 4.6330
 2.3960	 4.6140
 2.3970	 4.5880
 2.3980	 4.5570
 2.3990	 4.5520
 2.4000	 4.5380
 2.4010	 4.5140
 2.4020	 4.4930
 2.4030	 4.4520
 2.4040	 4.4190
 2.4050	 4.4030
 2.4060	 4.3820
 2.4070	 4.3730
 2.4080	 4.3670
 2.4090	 4.3580
 2.4100	 4.3400
 2.4110	 4.3040
 2.4120	 4.2760
 2.4130	 4.2460
 2.4140	 4.2110
 2.4150	 4.2020
 2.4160	 4.1920
 2.4170	 4.1680
 2.4180	 4.1620
 2.4190	 4.1560
 2.4200	 4.1310
 2.4210	 4.1040
 2.4220	 4.0750
 2.4230	 4.0420
 2.4240	 4.0050
 2.4250	 3.9760
 2.4260	 3.9590
 2.4270	 3.9560
 2.4280	 3.9580
 2.4290	 3.9570
 2.4300	 3.9390
 2.4310	 3.9000
 2.4320	 3.8640
 2.4330	 3.8360
 2.4340	 3.8250
 2.4350	 3.8120
 2.4360	 3.7960
 2.4370	 3.7840
 2.4380	 3.7590
 2.4390	 3.7510
 2.4400	 3.7300
 2.4410	 3.6930
 2.4420	 3.6700
 2.4430	 3.6410
 2.4440	 3.6110
 2.4450	 3.6110
 2.4460	 3.6080
 2.4470	 3.5900
 2.4480	 3.5790
 2.4490	 3.5550
 2.4500	 3.5190
 2.4510	 3.4820
 2.4520	 3.4580
 2.4530	 3.4320
 2.4540	 3.4170
 2.4550	 3.4260
 2.4560	 3.4200
 2.4570	 3.4160
 2.4580	 3.3940
 2.4590	 3.3440
 2.4600	 3.3120
 2.4610	 3.2890
 2.4620	 3.2760
 2.4630	 3.2760
 2.4640	 3.2470
 2.4650	 3.2120
 2.4660	 3.1930
 2.4670	 3.1700
 2.4680	 3.1720
 2.4690	 3.1780
 2.4700	 3.1630
 2.4710	 3.1320
 2.4720	 3.1120
 2.4730	 3.0910
 2.4740	 3.0720
 2.4750	 3.0620
 2.4760	 3.0580
 2.4770	 3.0600
 2.4780	 3.0460
 2.4790	 3.0220
 2.4800	 3.0200
 2.4810	 3.0220
 2.4820	 3.0560
 2.4830	 3.0870
 2.4840	 3.1090
 2.4850	 3.0900
 2.4860	 3.0430
 2.4870	 3.0190
 2.4880	 2.9840
 2.4890	 2.9660
 2.4900	 2.9590
 2.4910	 2.9120
 2.4920	 2.8760
 2.4930	 2.8960
 2.4940	 2.9480
 2.4950	 2.9890
 2.4960	 3.0170
 2.4970	 2.9330
 2.4980	 2.8620
 2.4990	 2.8920
 2.5000	 2.8540
