Name: Eucalyptus ficifolia
Type: vegetation
Class: Tree
Genus: Eucalyptus
Species: ficifolia
Sample No.: JPL202
Owner: JPL
Wavelength Range: TIR
Origin: 34.12509; -118.11349; WGS84
Collection Date: 10/3/2016
Description: Samples were collected at the Huntington Garden in San Marino California as part of a JPL Subcontract studying HyTES imagery. Samples were taken to JPL and processed within 48 hours of collection. The same leaves were processed in the Nicolet and then measured using the ASD.
Measurement: Hemispherical reflectance
First Column: X
Second Column: Y
X Units: Wavelength (micrometer)
Y Units: Reflectance (percentage)
First X Value: 2.501
Last X Value: 15.387
Number of X Values: 1737
Additional Information: vegetation.tree.eucalyptus.ficifolia.tir.jpl202.jpl.nicolet.ancillary.txt

 2.5010	 3.1200
 2.5030	 3.0300
 2.5040	 3.0590
 2.5050	 3.0520
 2.5060	 3.0500
 2.5070	 3.0180
 2.5090	 3.0720
 2.5100	 3.0860
 2.5110	 3.1160
 2.5120	 3.1330
 2.5140	 3.1170
 2.5150	 3.0910
 2.5160	 3.1370
 2.5170	 3.0810
 2.5180	 3.0700
 2.5200	 3.0920
 2.5210	 3.0740
 2.5220	 3.0210
 2.5230	 3.0610
 2.5250	 3.0660
 2.5260	 3.1120
 2.5270	 3.0770
 2.5280	 3.0950
 2.5300	 3.1090
 2.5310	 3.0870
 2.5320	 2.9890
 2.5330	 3.0280
 2.5340	 3.0600
 2.5360	 3.0750
 2.5370	 3.0660
 2.5380	 3.1190
 2.5390	 3.0590
 2.5410	 3.0150
 2.5420	 2.9770
 2.5430	 3.0280
 2.5440	 3.0770
 2.5460	 3.1180
 2.5470	 3.0920
 2.5480	 3.1460
 2.5490	 3.0980
 2.5510	 3.1040
 2.5520	 3.0540
 2.5530	 3.0330
 2.5540	 3.0040
 2.5560	 3.0290
 2.5570	 3.0440
 2.5580	 3.0830
 2.5590	 3.0250
 2.5610	 2.9970
 2.5620	 2.9440
 2.5630	 3.0280
 2.5650	 3.0680
 2.5660	 3.1490
 2.5670	 3.1850
 2.5680	 3.1850
 2.5700	 3.1490
 2.5710	 3.0970
 2.5720	 3.0240
 2.5730	 3.0200
 2.5750	 2.9760
 2.5760	 3.1170
 2.5770	 3.1260
 2.5790	 3.0490
 2.5800	 3.0440
 2.5810	 3.1130
 2.5820	 3.0260
 2.5840	 3.0200
 2.5850	 3.0150
 2.5860	 3.0330
 2.5880	 3.0570
 2.5890	 3.1040
 2.5900	 3.0940
 2.5910	 3.0900
 2.5930	 3.0490
 2.5940	 3.0350
 2.5950	 2.9900
 2.5970	 3.0450
 2.5980	 3.0610
 2.5990	 3.0670
 2.6010	 3.0140
 2.6020	 2.9920
 2.6030	 3.0110
 2.6040	 3.0440
 2.6060	 3.0280
 2.6070	 3.0820
 2.6080	 3.0750
 2.6100	 3.0900
 2.6110	 3.0150
 2.6120	 3.0070
 2.6140	 2.9830
 2.6150	 2.9850
 2.6160	 2.9480
 2.6180	 2.9370
 2.6190	 2.8770
 2.6200	 2.9390
 2.6220	 2.9840
 2.6230	 3.0000
 2.6240	 2.9620
 2.6260	 2.9830
 2.6270	 2.9710
 2.6280	 2.9430
 2.6300	 2.9250
 2.6310	 2.9250
 2.6320	 2.8900
 2.6340	 2.9530
 2.6350	 2.9580
 2.6360	 2.9790
 2.6380	 2.9280
 2.6390	 2.9470
 2.6400	 2.9940
 2.6420	 2.9390
 2.6430	 2.8380
 2.6440	 2.8640
 2.6460	 2.9090
 2.6470	 2.9370
 2.6480	 2.9050
 2.6500	 2.9370
 2.6510	 2.8970
 2.6520	 2.8650
 2.6540	 2.8650
 2.6550	 2.9450
 2.6570	 2.9540
 2.6580	 2.9470
 2.6590	 2.8860
 2.6610	 2.9050
 2.6620	 2.8650
 2.6630	 2.9200
 2.6650	 2.8930
 2.6660	 2.8630
 2.6670	 2.8230
 2.6690	 2.8520
 2.6700	 2.8310
 2.6720	 2.8760
 2.6730	 2.8850
 2.6740	 2.8790
 2.6760	 2.8050
 2.6770	 2.7970
 2.6780	 2.7860
 2.6800	 2.7500
 2.6810	 2.7640
 2.6830	 2.8600
 2.6840	 2.8060
 2.6850	 2.7840
 2.6870	 2.7910
 2.6880	 2.8350
 2.6900	 2.7600
 2.6910	 2.7640
 2.6920	 2.8050
 2.6940	 2.8210
 2.6950	 2.7590
 2.6970	 2.7870
 2.6980	 2.7780
 2.6990	 2.7940
 2.7010	 2.7910
 2.7020	 2.7250
 2.7040	 2.6870
 2.7050	 2.7570
 2.7060	 2.7070
 2.7080	 2.6790
 2.7090	 2.6360
 2.7110	 2.7140
 2.7120	 2.7520
 2.7130	 2.7680
 2.7150	 2.6870
 2.7160	 2.7130
 2.7180	 2.7150
 2.7190	 2.7150
 2.7210	 2.6720
 2.7220	 2.6780
 2.7230	 2.6570
 2.7250	 2.7070
 2.7260	 2.7340
 2.7280	 2.7370
 2.7290	 2.6680
 2.7310	 2.6840
 2.7320	 2.6890
 2.7340	 2.7430
 2.7350	 2.7050
 2.7360	 2.6820
 2.7380	 2.7270
 2.7390	 2.7720
 2.7410	 2.7230
 2.7420	 2.7030
 2.7440	 2.6530
 2.7450	 2.6760
 2.7470	 2.7010
 2.7480	 2.7510
 2.7490	 2.7180
 2.7510	 2.7190
 2.7520	 2.6760
 2.7540	 2.7010
 2.7550	 2.6400
 2.7570	 2.6490
 2.7580	 2.6560
 2.7600	 2.6930
 2.7610	 2.6620
 2.7630	 2.6930
 2.7640	 2.6870
 2.7660	 2.6810
 2.7670	 2.6330
 2.7690	 2.6530
 2.7700	 2.6630
 2.7720	 2.6990
 2.7730	 2.6710
 2.7740	 2.7430
 2.7760	 2.7330
 2.7770	 2.6990
 2.7790	 2.6220
 2.7800	 2.6820
 2.7820	 2.6780
 2.7830	 2.7030
 2.7850	 2.7230
 2.7860	 2.7310
 2.7880	 2.6740
 2.7890	 2.6680
 2.7910	 2.6130
 2.7920	 2.6290
 2.7940	 2.6410
 2.7950	 2.6620
 2.7970	 2.6450
 2.7980	 2.6430
 2.8000	 2.5910
 2.8010	 2.5950
 2.8030	 2.5860
 2.8040	 2.5980
 2.8060	 2.5760
 2.8080	 2.6080
 2.8090	 2.5580
 2.8110	 2.5940
 2.8120	 2.5310
 2.8140	 2.5650
 2.8150	 2.6410
 2.8170	 2.6670
 2.8180	 2.6230
 2.8200	 2.6200
 2.8210	 2.5670
 2.8230	 2.6390
 2.8240	 2.6420
 2.8260	 2.6490
 2.8270	 2.6070
 2.8290	 2.6230
 2.8310	 2.6270
 2.8320	 2.6460
 2.8340	 2.6230
 2.8350	 2.6600
 2.8370	 2.6370
 2.8380	 2.6680
 2.8400	 2.5970
 2.8410	 2.5760
 2.8430	 2.5780
 2.8440	 2.6310
 2.8460	 2.6130
 2.8480	 2.6020
 2.8490	 2.5400
 2.8510	 2.5800
 2.8520	 2.5940
 2.8540	 2.6030
 2.8550	 2.5430
 2.8570	 2.5940
 2.8590	 2.6360
 2.8600	 2.6620
 2.8620	 2.6480
 2.8630	 2.6840
 2.8650	 2.6400
 2.8660	 2.6790
 2.8680	 2.7140
 2.8700	 2.6860
 2.8710	 2.5710
 2.8730	 2.6090
 2.8740	 2.6150
 2.8760	 2.6120
 2.8780	 2.5450
 2.8790	 2.5770
 2.8810	 2.5810
 2.8820	 2.6450
 2.8840	 2.6270
 2.8860	 2.6690
 2.8870	 2.6810
 2.8890	 2.6630
 2.8900	 2.6300
 2.8920	 2.6710
 2.8940	 2.6460
 2.8950	 2.6580
 2.8970	 2.6290
 2.8990	 2.6880
 2.9000	 2.6610
 2.9020	 2.6830
 2.9030	 2.6670
 2.9050	 2.6630
 2.9070	 2.6530
 2.9080	 2.7510
 2.9100	 2.7390
 2.9120	 2.7290
 2.9130	 2.6970
 2.9150	 2.6990
 2.9160	 2.6880
 2.9180	 2.7570
 2.9200	 2.7700
 2.9210	 2.7720
 2.9230	 2.7130
 2.9250	 2.6740
 2.9260	 2.6400
 2.9280	 2.7360
 2.9300	 2.7840
 2.9310	 2.7830
 2.9330	 2.7190
 2.9350	 2.7330
 2.9360	 2.6900
 2.9380	 2.6800
 2.9400	 2.6700
 2.9410	 2.7000
 2.9430	 2.6160
 2.9450	 2.6640
 2.9460	 2.6930
 2.9480	 2.6850
 2.9500	 2.6870
 2.9510	 2.7410
 2.9530	 2.7260
 2.9550	 2.7320
 2.9560	 2.6890
 2.9580	 2.7090
 2.9600	 2.6890
 2.9610	 2.7820
 2.9630	 2.7800
 2.9650	 2.7490
 2.9670	 2.6760
 2.9680	 2.6630
 2.9700	 2.6380
 2.9720	 2.6940
 2.9730	 2.7380
 2.9750	 2.7680
 2.9770	 2.7430
 2.9780	 2.7340
 2.9800	 2.6610
 2.9820	 2.6930
 2.9840	 2.6620
 2.9850	 2.7160
 2.9870	 2.7520
 2.9890	 2.7750
 2.9900	 2.7560
 2.9920	 2.7650
 2.9940	 2.7420
 2.9960	 2.7240
 2.9970	 2.6590
 2.9990	 2.7170
 3.0010	 2.6950
 3.0030	 2.7100
 3.0040	 2.7060
 3.0060	 2.7730
 3.0080	 2.7710
 3.0100	 2.7540
 3.0110	 2.7260
 3.0130	 2.7290
 3.0150	 2.6990
 3.0170	 2.7430
 3.0180	 2.7080
 3.0200	 2.7070
 3.0220	 2.7060
 3.0240	 2.7660
 3.0250	 2.6960
 3.0270	 2.7400
 3.0290	 2.7790
 3.0310	 2.7350
 3.0320	 2.6610
 3.0340	 2.7050
 3.0360	 2.7380
 3.0380	 2.7570
 3.0400	 2.7000
 3.0410	 2.7360
 3.0430	 2.7270
 3.0450	 2.8050
 3.0470	 2.7970
 3.0480	 2.7470
 3.0500	 2.6980
 3.0520	 2.7720
 3.0540	 2.8170
 3.0560	 2.7840
 3.0570	 2.6730
 3.0590	 2.7070
 3.0610	 2.7270
 3.0630	 2.7630
 3.0650	 2.7690
 3.0670	 2.7880
 3.0680	 2.7520
 3.0700	 2.7800
 3.0720	 2.7580
 3.0740	 2.7850
 3.0760	 2.7270
 3.0770	 2.7400
 3.0790	 2.7400
 3.0810	 2.7200
 3.0830	 2.7120
 3.0850	 2.7580
 3.0870	 2.7630
 3.0880	 2.7680
 3.0900	 2.7170
 3.0920	 2.7470
 3.0940	 2.7540
 3.0960	 2.7690
 3.0980	 2.7150
 3.1000	 2.7340
 3.1010	 2.7360
 3.1030	 2.7600
 3.1050	 2.7390
 3.1070	 2.7700
 3.1090	 2.7490
 3.1110	 2.7560
 3.1130	 2.7430
 3.1140	 2.7550
 3.1160	 2.7550
 3.1180	 2.7500
 3.1200	 2.7390
 3.1220	 2.7860
 3.1240	 2.7460
 3.1260	 2.7560
 3.1280	 2.7120
 3.1290	 2.7490
 3.1310	 2.7650
 3.1330	 2.8020
 3.1350	 2.7620
 3.1370	 2.7620
 3.1390	 2.7510
 3.1410	 2.7290
 3.1430	 2.6870
 3.1450	 2.7080
 3.1470	 2.6780
 3.1480	 2.6800
 3.1500	 2.7230
 3.1520	 2.8100
 3.1540	 2.7600
 3.1560	 2.7230
 3.1580	 2.6980
 3.1600	 2.7380
 3.1620	 2.7370
 3.1640	 2.7050
 3.1660	 2.6710
 3.1680	 2.7060
 3.1700	 2.7090
 3.1720	 2.7410
 3.1730	 2.7170
 3.1750	 2.7200
 3.1770	 2.7170
 3.1790	 2.7210
 3.1810	 2.6880
 3.1830	 2.7240
 3.1850	 2.7670
 3.1870	 2.7740
 3.1890	 2.6940
 3.1910	 2.7000
 3.1930	 2.6980
 3.1950	 2.7090
 3.1970	 2.7050
 3.1990	 2.7170
 3.2010	 2.7160
 3.2030	 2.6900
 3.2050	 2.6540
 3.2070	 2.7120
 3.2090	 2.7540
 3.2110	 2.7310
 3.2130	 2.6780
 3.2150	 2.6910
 3.2170	 2.6760
 3.2190	 2.6780
 3.2210	 2.6820
 3.2230	 2.7390
 3.2250	 2.7010
 3.2270	 2.6770
 3.2290	 2.6940
 3.2310	 2.7470
 3.2330	 2.7140
 3.2350	 2.7140
 3.2370	 2.6900
 3.2390	 2.6740
 3.2410	 2.6540
 3.2430	 2.6500
 3.2450	 2.6650
 3.2470	 2.6840
 3.2490	 2.6330
 3.2510	 2.6570
 3.2530	 2.6440
 3.2550	 2.6670
 3.2570	 2.6540
 3.2590	 2.6560
 3.2610	 2.6390
 3.2630	 2.6530
 3.2650	 2.6210
 3.2670	 2.6480
 3.2700	 2.6790
 3.2720	 2.6970
 3.2740	 2.6400
 3.2760	 2.6350
 3.2780	 2.6190
 3.2800	 2.6330
 3.2820	 2.5900
 3.2840	 2.6290
 3.2860	 2.6510
 3.2880	 2.6860
 3.2900	 2.6570
 3.2920	 2.6300
 3.2940	 2.5990
 3.2970	 2.5950
 3.2990	 2.5830
 3.3010	 2.6440
 3.3030	 2.6400
 3.3050	 2.6630
 3.3070	 2.6040
 3.3090	 2.5590
 3.3110	 2.5030
 3.3130	 2.5310
 3.3160	 2.5540
 3.3180	 2.5740
 3.3200	 2.5510
 3.3220	 2.5550
 3.3240	 2.5190
 3.3260	 2.5090
 3.3280	 2.4940
 3.3300	 2.5170
 3.3330	 2.4700
 3.3350	 2.4720
 3.3370	 2.4900
 3.3390	 2.5260
 3.3410	 2.4760
 3.3430	 2.4450
 3.3450	 2.4180
 3.3480	 2.4490
 3.3500	 2.4350
 3.3520	 2.4460
 3.3540	 2.4340
 3.3560	 2.4330
 3.3580	 2.3990
 3.3610	 2.4340
 3.3630	 2.3870
 3.3650	 2.3670
 3.3670	 2.4070
 3.3690	 2.4530
 3.3720	 2.4300
 3.3740	 2.4600
 3.3760	 2.4330
 3.3780	 2.4640
 3.3800	 2.4790
 3.3830	 2.4750
 3.3850	 2.4600
 3.3870	 2.4600
 3.3890	 2.4080
 3.3910	 2.4550
 3.3940	 2.4510
 3.3960	 2.4270
 3.3980	 2.3840
 3.4000	 2.4360
 3.4030	 2.5020
 3.4050	 2.5420
 3.4070	 2.5610
 3.4090	 2.6520
 3.4110	 2.7180
 3.4140	 2.8300
 3.4160	 2.9520
 3.4180	 3.1480
 3.4200	 3.3750
 3.4230	 3.6580
 3.4250	 3.9890
 3.4270	 4.3810
 3.4300	 4.5890
 3.4320	 4.4870
 3.4340	 4.1430
 3.4360	 3.8120
 3.4390	 3.5800
 3.4410	 3.4830
 3.4430	 3.3910
 3.4450	 3.3690
 3.4480	 3.3500
 3.4500	 3.3300
 3.4520	 3.2690
 3.4550	 3.2500
 3.4570	 3.2000
 3.4590	 3.1960
 3.4620	 3.1260
 3.4640	 3.0800
 3.4660	 3.0420
 3.4690	 3.0650
 3.4710	 3.0740
 3.4730	 3.0990
 3.4760	 3.0590
 3.4780	 3.0460
 3.4800	 2.9590
 3.4830	 2.9130
 3.4850	 2.8750
 3.4870	 2.9130
 3.4900	 2.8990
 3.4920	 2.8760
 3.4940	 2.8580
 3.4970	 2.8970
 3.4990	 2.9520
 3.5010	 3.0100
 3.5040	 3.1210
 3.5060	 3.4330
 3.5080	 3.9080
 3.5110	 4.3330
 3.5130	 4.3090
 3.5160	 4.0070
 3.5180	 3.7210
 3.5200	 3.5810
 3.5230	 3.4410
 3.5250	 3.3690
 3.5280	 3.3050
 3.5300	 3.2540
 3.5320	 3.1850
 3.5350	 3.2050
 3.5370	 3.1950
 3.5400	 3.1750
 3.5420	 3.1700
 3.5440	 3.1670
 3.5470	 3.1000
 3.5490	 3.1120
 3.5520	 3.0980
 3.5540	 3.0870
 3.5570	 3.0610
 3.5590	 3.0800
 3.5610	 3.0640
 3.5640	 3.0540
 3.5660	 3.0290
 3.5690	 3.0170
 3.5710	 2.9760
 3.5740	 2.9640
 3.5760	 2.9780
 3.5790	 3.0090
 3.5810	 2.9880
 3.5840	 3.0070
 3.5860	 2.9720
 3.5890	 2.9720
 3.5910	 2.9810
 3.5940	 3.0110
 3.5960	 2.9900
 3.5990	 2.9760
 3.6010	 2.9870
 3.6040	 2.9960
 3.6060	 2.9560
 3.6090	 2.9660
 3.6110	 2.9460
 3.6140	 2.9530
 3.6160	 2.9490
 3.6190	 2.9630
 3.6210	 2.9760
 3.6240	 2.9870
 3.6260	 2.9450
 3.6290	 2.9530
 3.6310	 2.9470
 3.6340	 2.9530
 3.6360	 2.9250
 3.6390	 2.9280
 3.6410	 2.9100
 3.6440	 2.9280
 3.6470	 2.9320
 3.6490	 2.9200
 3.6520	 2.9120
 3.6540	 2.9450
 3.6570	 2.9440
 3.6590	 2.9510
 3.6620	 2.9260
 3.6650	 2.9180
 3.6670	 2.8950
 3.6700	 2.9400
 3.6720	 2.9300
 3.6750	 2.9240
 3.6780	 2.9330
 3.6800	 2.9310
 3.6830	 2.8930
 3.6850	 2.9180
 3.6880	 2.9000
 3.6910	 2.9200
 3.6930	 2.8920
 3.6960	 2.8930
 3.6990	 2.9320
 3.7010	 2.9150
 3.7040	 2.8580
 3.7070	 2.8610
 3.7090	 2.8820
 3.7120	 2.9260
 3.7150	 2.9070
 3.7170	 2.8870
 3.7200	 2.8810
 3.7230	 2.8720
 3.7250	 2.8650
 3.7280	 2.8480
 3.7310	 2.8400
 3.7330	 2.8670
 3.7360	 2.8470
 3.7390	 2.8650
 3.7410	 2.8540
 3.7440	 2.8870
 3.7470	 2.9120
 3.7490	 2.9230
 3.7520	 2.8960
 3.7550	 2.8750
 3.7580	 2.8540
 3.7600	 2.8670
 3.7630	 2.8930
 3.7660	 2.9360
 3.7690	 2.9170
 3.7710	 2.9010
 3.7740	 2.8680
 3.7770	 2.8990
 3.7790	 2.9350
 3.7820	 2.9080
 3.7850	 2.8570
 3.7880	 2.8600
 3.7910	 2.8550
 3.7930	 2.8670
 3.7960	 2.8470
 3.7990	 2.8570
 3.8020	 2.8720
 3.8040	 2.9200
 3.8070	 2.8800
 3.8100	 2.8730
 3.8130	 2.8670
 3.8160	 2.8680
 3.8180	 2.8540
 3.8210	 2.8740
 3.8240	 2.8840
 3.8270	 2.9320
 3.8300	 2.9380
 3.8330	 2.9220
 3.8350	 2.8740
 3.8380	 2.8850
 3.8410	 2.8810
 3.8440	 2.8900
 3.8470	 2.8840
 3.8500	 2.8920
 3.8520	 2.8680
 3.8550	 2.8460
 3.8580	 2.8280
 3.8610	 2.8400
 3.8640	 2.8530
 3.8670	 2.8680
 3.8700	 2.8590
 3.8730	 2.9010
 3.8760	 2.8960
 3.8780	 2.8580
 3.8810	 2.8090
 3.8840	 2.8410
 3.8870	 2.8840
 3.8900	 2.9140
 3.8930	 2.8930
 3.8960	 2.9010
 3.8990	 2.9080
 3.9020	 2.9110
 3.9050	 2.8770
 3.9080	 2.8900
 3.9110	 2.9030
 3.9140	 2.9380
 3.9170	 2.9170
 3.9190	 2.8750
 3.9220	 2.8510
 3.9250	 2.8690
 3.9280	 2.8620
 3.9310	 2.8930
 3.9340	 2.9210
 3.9370	 2.9180
 3.9400	 2.8880
 3.9430	 2.8650
 3.9460	 2.8530
 3.9490	 2.8770
 3.9520	 2.8820
 3.9550	 2.8740
 3.9580	 2.8780
 3.9610	 2.8750
 3.9640	 2.8590
 3.9670	 2.8860
 3.9700	 2.9060
 3.9740	 2.8990
 3.9770	 2.8400
 3.9800	 2.8530
 3.9830	 2.8970
 3.9860	 2.9130
 3.9890	 2.8820
 3.9920	 2.8820
 3.9950	 2.8720
 3.9980	 2.8830
 4.0010	 2.8900
 4.0040	 2.8980
 4.0070	 2.8950
 4.0100	 2.9060
 4.0140	 2.8750
 4.0170	 2.8870
 4.0200	 2.8790
 4.0230	 2.8770
 4.0260	 2.8800
 4.0290	 2.8780
 4.0320	 2.8630
 4.0350	 2.8890
 4.0390	 2.9050
 4.0420	 2.9130
 4.0450	 2.8900
 4.0480	 2.8910
 4.0510	 2.8790
 4.0540	 2.8590
 4.0570	 2.8560
 4.0610	 2.8990
 4.0640	 2.9120
 4.0670	 2.8950
 4.0700	 2.8670
 4.0730	 2.8750
 4.0770	 2.8700
 4.0800	 2.8850
 4.0830	 2.8740
 4.0860	 2.8760
 4.0890	 2.8750
 4.0930	 2.8870
 4.0960	 2.8750
 4.0990	 2.8720
 4.1020	 2.8470
 4.1060	 2.8470
 4.1090	 2.8550
 4.1120	 2.8950
 4.1150	 2.9030
 4.1190	 2.8940
 4.1220	 2.8890
 4.1250	 2.8970
 4.1290	 2.8770
 4.1320	 2.8970
 4.1350	 2.9090
 4.1380	 2.9110
 4.1420	 2.9040
 4.1450	 2.8790
 4.1480	 2.8630
 4.1520	 2.8830
 4.1550	 2.8850
 4.1580	 2.9300
 4.1620	 2.9040
 4.1650	 2.8630
 4.1680	 2.8580
 4.1720	 2.8830
 4.1750	 2.8840
 4.1780	 2.8810
 4.1820	 2.8810
 4.1850	 2.8650
 4.1890	 2.8620
 4.1920	 2.9050
 4.1950	 2.9080
 4.1990	 2.8880
 4.2020	 2.8600
 4.2060	 2.8610
 4.2090	 2.8780
 4.2120	 2.8730
 4.2160	 2.8170
 4.2190	 2.8150
 4.2230	 2.8690
 4.2260	 2.8820
 4.2300	 2.8750
 4.2330	 2.8560
 4.2360	 2.8560
 4.2400	 2.8860
 4.2430	 2.8680
 4.2470	 2.9090
 4.2500	 2.8780
 4.2540	 2.8760
 4.2570	 2.8860
 4.2610	 2.9400
 4.2640	 2.9630
 4.2680	 2.9290
 4.2710	 2.9050
 4.2750	 2.9180
 4.2780	 2.8510
 4.2820	 2.8810
 4.2850	 2.9310
 4.2890	 2.8700
 4.2930	 2.8860
 4.2960	 2.9530
 4.3000	 2.9370
 4.3030	 2.9740
 4.3070	 2.9880
 4.3100	 2.9490
 4.3140	 2.8920
 4.3180	 2.8850
 4.3210	 2.8830
 4.3250	 2.8580
 4.3280	 2.8360
 4.3320	 2.8510
 4.3360	 2.8390
 4.3390	 2.8430
 4.3430	 2.8690
 4.3470	 2.9040
 4.3500	 2.8910
 4.3540	 2.8800
 4.3580	 2.8830
 4.3610	 2.8780
 4.3650	 2.8470
 4.3690	 2.8700
 4.3720	 2.8920
 4.3760	 2.8890
 4.3800	 2.8910
 4.3830	 2.8660
 4.3870	 2.8250
 4.3910	 2.8210
 4.3940	 2.8580
 4.3980	 2.8480
 4.4020	 2.8220
 4.4060	 2.8250
 4.4090	 2.8290
 4.4130	 2.8210
 4.4170	 2.8460
 4.4210	 2.8590
 4.4240	 2.8600
 4.4280	 2.8370
 4.4320	 2.8210
 4.4360	 2.8100
 4.4400	 2.7980
 4.4430	 2.8130
 4.4470	 2.8180
 4.4510	 2.8410
 4.4550	 2.8460
 4.4590	 2.8230
 4.4630	 2.8370
 4.4660	 2.8320
 4.4700	 2.8170
 4.4740	 2.8240
 4.4780	 2.8000
 4.4820	 2.8180
 4.4860	 2.8130
 4.4900	 2.7960
 4.4930	 2.7910
 4.4970	 2.7960
 4.5010	 2.8400
 4.5050	 2.8700
 4.5090	 2.8500
 4.5130	 2.8090
 4.5170	 2.7950
 4.5210	 2.8240
 4.5250	 2.8100
 4.5290	 2.7910
 4.5330	 2.8090
 4.5370	 2.8080
 4.5410	 2.7830
 4.5450	 2.7870
 4.5490	 2.8160
 4.5530	 2.8050
 4.5570	 2.7860
 4.5610	 2.7960
 4.5650	 2.8000
 4.5690	 2.8070
 4.5730	 2.8030
 4.5770	 2.8220
 4.5810	 2.8170
 4.5850	 2.7800
 4.5890	 2.7590
 4.5930	 2.7670
 4.5970	 2.8000
 4.6010	 2.7960
 4.6050	 2.7930
 4.6090	 2.8040
 4.6130	 2.8060
 4.6170	 2.7980
 4.6220	 2.7920
 4.6260	 2.7630
 4.6300	 2.7610
 4.6340	 2.7970
 4.6380	 2.7920
 4.6420	 2.7870
 4.6460	 2.8170
 4.6510	 2.8440
 4.6550	 2.8320
 4.6590	 2.8020
 4.6630	 2.7800
 4.6670	 2.7710
 4.6720	 2.7710
 4.6760	 2.8080
 4.6800	 2.8230
 4.6840	 2.8050
 4.6880	 2.7880
 4.6930	 2.8050
 4.6970	 2.8110
 4.7010	 2.7910
 4.7050	 2.8040
 4.7100	 2.8430
 4.7140	 2.8260
 4.7180	 2.7750
 4.7230	 2.8010
 4.7270	 2.8130
 4.7310	 2.8000
 4.7360	 2.7900
 4.7400	 2.8050
 4.7440	 2.7840
 4.7490	 2.7650
 4.7530	 2.7650
 4.7570	 2.8050
 4.7620	 2.8120
 4.7660	 2.7820
 4.7700	 2.7680
 4.7750	 2.7870
 4.7790	 2.7900
 4.7840	 2.7710
 4.7880	 2.7850
 4.7920	 2.8060
 4.7970	 2.8030
 4.8010	 2.7960
 4.8060	 2.7740
 4.8100	 2.7750
 4.8150	 2.7700
 4.8190	 2.7700
 4.8240	 2.7720
 4.8280	 2.7960
 4.8330	 2.8040
 4.8370	 2.7960
 4.8420	 2.8300
 4.8460	 2.8300
 4.8510	 2.8030
 4.8550	 2.8020
 4.8600	 2.7710
 4.8640	 2.7850
 4.8690	 2.7910
 4.8740	 2.7740
 4.8780	 2.7630
 4.8830	 2.7530
 4.8870	 2.7590
 4.8920	 2.7980
 4.8970	 2.8210
 4.9010	 2.8120
 4.9060	 2.7680
 4.9100	 2.7730
 4.9150	 2.7960
 4.9200	 2.7940
 4.9240	 2.7710
 4.9290	 2.7720
 4.9340	 2.7680
 4.9390	 2.7690
 4.9430	 2.7580
 4.9480	 2.7580
 4.9530	 2.7760
 4.9570	 2.7810
 4.9620	 2.7760
 4.9670	 2.7870
 4.9720	 2.7720
 4.9760	 2.7610
 4.9810	 2.7510
 4.9860	 2.7580
 4.9910	 2.7550
 4.9960	 2.7800
 5.0000	 2.7740
 5.0050	 2.7740
 5.0100	 2.7580
 5.0150	 2.7870
 5.0200	 2.7900
 5.0250	 2.7700
 5.0300	 2.7550
 5.0340	 2.7540
 5.0390	 2.7360
 5.0440	 2.7390
 5.0490	 2.7460
 5.0540	 2.7760
 5.0590	 2.7620
 5.0640	 2.7620
 5.0690	 2.7700
 5.0740	 2.7730
 5.0790	 2.7500
 5.0840	 2.7400
 5.0890	 2.7420
 5.0940	 2.7380
 5.0990	 2.7380
 5.1040	 2.7610
 5.1090	 2.7580
 5.1140	 2.7470
 5.1190	 2.7290
 5.1240	 2.7400
 5.1290	 2.7370
 5.1340	 2.7280
 5.1390	 2.7410
 5.1440	 2.7700
 5.1490	 2.7570
 5.1550	 2.7310
 5.1600	 2.7040
 5.1650	 2.7590
 5.1700	 2.7690
 5.1750	 2.7380
 5.1800	 2.7290
 5.1850	 2.7550
 5.1910	 2.7260
 5.1960	 2.7220
 5.2010	 2.7140
 5.2060	 2.7500
 5.2110	 2.7430
 5.2170	 2.7060
 5.2220	 2.6930
 5.2270	 2.7120
 5.2330	 2.7350
 5.2380	 2.7410
 5.2430	 2.7230
 5.2480	 2.7110
 5.2540	 2.7100
 5.2590	 2.7520
 5.2640	 2.7250
 5.2700	 2.7160
 5.2750	 2.7180
 5.2800	 2.7220
 5.2860	 2.7520
 5.2910	 2.7440
 5.2970	 2.7220
 5.3020	 2.7550
 5.3080	 2.7420
 5.3130	 2.7450
 5.3180	 2.7520
 5.3240	 2.7360
 5.3290	 2.6870
 5.3350	 2.7300
 5.3400	 2.7250
 5.3460	 2.6980
 5.3510	 2.6700
 5.3570	 2.6690
 5.3620	 2.6960
 5.3680	 2.7120
 5.3740	 2.6790
 5.3790	 2.6830
 5.3850	 2.6840
 5.3900	 2.6880
 5.3960	 2.6710
 5.4010	 2.6700
 5.4070	 2.6510
 5.4130	 2.6550
 5.4180	 2.6650
 5.4240	 2.7120
 5.4300	 2.6720
 5.4350	 2.6480
 5.4410	 2.6420
 5.4470	 2.6640
 5.4530	 2.6610
 5.4580	 2.6460
 5.4640	 2.6280
 5.4700	 2.6540
 5.4760	 2.6830
 5.4810	 2.6990
 5.4870	 2.6420
 5.4930	 2.6350
 5.4990	 2.6220
 5.5050	 2.6490
 5.5110	 2.6320
 5.5160	 2.6200
 5.5220	 2.5960
 5.5280	 2.5860
 5.5340	 2.5730
 5.5400	 2.6030
 5.5460	 2.5820
 5.5520	 2.5870
 5.5580	 2.5610
 5.5640	 2.5550
 5.5700	 2.5290
 5.5760	 2.5450
 5.5820	 2.5320
 5.5880	 2.5470
 5.5940	 2.5260
 5.6000	 2.5160
 5.6060	 2.5040
 5.6120	 2.5210
 5.6180	 2.5000
 5.6240	 2.4990
 5.6300	 2.4600
 5.6360	 2.4670
 5.6420	 2.4900
 5.6490	 2.4970
 5.6550	 2.4650
 5.6610	 2.4510
 5.6670	 2.4150
 5.6730	 2.4080
 5.6800	 2.3840
 5.6860	 2.4020
 5.6920	 2.3720
 5.6980	 2.3490
 5.7050	 2.2980
 5.7110	 2.3040
 5.7170	 2.3220
 5.7230	 2.3130
 5.7300	 2.2390
 5.7360	 2.2710
 5.7420	 2.3290
 5.7490	 2.3940
 5.7550	 2.3920
 5.7620	 2.4700
 5.7680	 2.5380
 5.7740	 2.6140
 5.7810	 2.6260
 5.7870	 2.6410
 5.7940	 2.6570
 5.8000	 2.6990
 5.8070	 2.6900
 5.8130	 2.7560
 5.8200	 2.7980
 5.8260	 2.8590
 5.8330	 2.8490
 5.8390	 2.8550
 5.8460	 2.8610
 5.8530	 2.9020
 5.8590	 2.9180
 5.8660	 2.9570
 5.8730	 2.9370
 5.8790	 2.9470
 5.8860	 2.9270
 5.8930	 2.9420
 5.8990	 2.9340
 5.9060	 2.9840
 5.9130	 2.9820
 5.9190	 2.9980
 5.9260	 3.0260
 5.9330	 3.1620
 5.9400	 3.2200
 5.9470	 3.2960
 5.9530	 3.3080
 5.9600	 3.3020
 5.9670	 3.2500
 5.9740	 3.2360
 5.9810	 3.2040
 5.9880	 3.2240
 5.9950	 3.2060
 6.0020	 3.2260
 6.0090	 3.2050
 6.0160	 3.2200
 6.0230	 3.1990
 6.0300	 3.1650
 6.0370	 3.1460
 6.0440	 3.1660
 6.0510	 3.1090
 6.0580	 3.1320
 6.0650	 3.1180
 6.0720	 3.1750
 6.0790	 3.1590
 6.0860	 3.1550
 6.0930	 3.1610
 6.1010	 3.2000
 6.1080	 3.1690
 6.1150	 3.1980
 6.1220	 3.1860
 6.1290	 3.1980
 6.1370	 3.1670
 6.1440	 3.1550
 6.1510	 3.1020
 6.1580	 3.1010
 6.1660	 3.0850
 6.1730	 3.1290
 6.1800	 3.1120
 6.1880	 3.0970
 6.1950	 3.0850
 6.2030	 3.1100
 6.2100	 3.0620
 6.2180	 3.0680
 6.2250	 3.0360
 6.2320	 3.0930
 6.2400	 3.1390
 6.2480	 3.1770
 6.2550	 3.0930
 6.2630	 3.0890
 6.2700	 3.0580
 6.2780	 3.0860
 6.2850	 3.0550
 6.2930	 3.0680
 6.3010	 3.0530
 6.3080	 3.0780
 6.3160	 3.0710
 6.3240	 3.0700
 6.3310	 3.0250
 6.3390	 3.0830
 6.3470	 3.0690
 6.3550	 3.0970
 6.3620	 3.0300
 6.3700	 3.0500
 6.3780	 3.0670
 6.3860	 3.1070
 6.3940	 3.0720
 6.4020	 3.0800
 6.4100	 3.0270
 6.4180	 2.9810
 6.4260	 2.9540
 6.4340	 2.9900
 6.4420	 2.9530
 6.4500	 2.9610
 6.4580	 2.9610
 6.4660	 2.9720
 6.4740	 2.9330
 6.4820	 2.9520
 6.4900	 2.9140
 6.4980	 2.9230
 6.5060	 2.8930
 6.5140	 2.8830
 6.5230	 2.8430
 6.5310	 2.8790
 6.5390	 2.8830
 6.5470	 2.9020
 6.5560	 2.8220
 6.5640	 2.8040
 6.5720	 2.8130
 6.5800	 2.8310
 6.5890	 2.7200
 6.5970	 2.6810
 6.6060	 2.6950
 6.6140	 2.7700
 6.6230	 2.7260
 6.6310	 2.7670
 6.6390	 2.7900
 6.6480	 2.7860
 6.6570	 2.7070
 6.6650	 2.7320
 6.6740	 2.7120
 6.6820	 2.7060
 6.6910	 2.6700
 6.7000	 2.7110
 6.7080	 2.6930
 6.7170	 2.7260
 6.7260	 2.6840
 6.7340	 2.6770
 6.7430	 2.6320
 6.7520	 2.6460
 6.7610	 2.5900
 6.7690	 2.6020
 6.7780	 2.6190
 6.7870	 2.7710
 6.7960	 2.8030
 6.8050	 2.7950
 6.8140	 2.7620
 6.8230	 2.8010
 6.8320	 2.8650
 6.8410	 3.0260
 6.8500	 2.9980
 6.8590	 2.9750
 6.8680	 2.9180
 6.8770	 2.9670
 6.8860	 2.9850
 6.8960	 3.0190
 6.9050	 2.9590
 6.9140	 2.9860
 6.9230	 2.9910
 6.9320	 3.0180
 6.9420	 2.9860
 6.9510	 3.0580
 6.9600	 3.0210
 6.9700	 3.0450
 6.9790	 3.0230
 6.9880	 3.0250
 6.9980	 3.0080
 7.0070	 3.0810
 7.0170	 3.0100
 7.0260	 3.0090
 7.0360	 2.9990
 7.0450	 3.0400
 7.0550	 2.9710
 7.0650	 2.9770
 7.0740	 3.0040
 7.0840	 3.0750
 7.0940	 3.0140
 7.1030	 3.0160
 7.1130	 2.9840
 7.1230	 3.0300
 7.1330	 2.9750
 7.1420	 2.9990
 7.1520	 2.9730
 7.1620	 3.0240
 7.1720	 2.9630
 7.1820	 2.9880
 7.1920	 2.9380
 7.2020	 2.9920
 7.2120	 2.9830
 7.2220	 3.0180
 7.2320	 3.0030
 7.2420	 3.0330
 7.2520	 2.9740
 7.2620	 3.0050
 7.2730	 2.9870
 7.2830	 3.0050
 7.2930	 2.9740
 7.3030	 2.9930
 7.3140	 2.9440
 7.3240	 2.9950
 7.3340	 2.9860
 7.3450	 2.9850
 7.3550	 2.9440
 7.3660	 3.0310
 7.3760	 2.9740
 7.3870	 2.9600
 7.3970	 2.9610
 7.4080	 3.0010
 7.4180	 2.9660
 7.4290	 3.0220
 7.4400	 2.9870
 7.4500	 2.9810
 7.4610	 2.9170
 7.4720	 2.9420
 7.4830	 2.9550
 7.4930	 3.0490
 7.5040	 3.0200
 7.5150	 3.0200
 7.5260	 2.9810
 7.5370	 3.0180
 7.5480	 2.9680
 7.5590	 3.0050
 7.5700	 2.9650
 7.5810	 2.9960
 7.5920	 2.9560
 7.6030	 2.9660
 7.6140	 2.8930
 7.6260	 2.9080
 7.6370	 2.8200
 7.6480	 2.8300
 7.6590	 2.8120
 7.6710	 2.8670
 7.6820	 2.8380
 7.6940	 2.8710
 7.7050	 2.8250
 7.7160	 2.8760
 7.7280	 2.8440
 7.7390	 2.8530
 7.7510	 2.8120
 7.7630	 2.8530
 7.7740	 2.8170
 7.7860	 2.8310
 7.7980	 2.7590
 7.8090	 2.8050
 7.8210	 2.7940
 7.8330	 2.8320
 7.8450	 2.7780
 7.8570	 2.8500
 7.8690	 2.8370
 7.8810	 2.8640
 7.8930	 2.8190
 7.9050	 2.9110
 7.9170	 2.8630
 7.9290	 2.8600
 7.9410	 2.8120
 7.9530	 2.8760
 7.9650	 2.8220
 7.9780	 2.9000
 7.9900	 2.8580
 8.0020	 2.9040
 8.0150	 2.8980
 8.0270	 2.9510
 8.0390	 2.9150
 8.0520	 2.9970
 8.0640	 2.9870
 8.0770	 3.0380
 8.0900	 2.9580
 8.1020	 3.0230
 8.1150	 2.9700
 8.1280	 3.0580
 8.1400	 3.0300
 8.1530	 3.0650
 8.1660	 2.9610
 8.1790	 3.0150
 8.1920	 3.0430
 8.2050	 3.1170
 8.2180	 2.9980
 8.2310	 3.0640
 8.2440	 3.0350
 8.2570	 3.0530
 8.2700	 3.0250
 8.2830	 3.1590
 8.2970	 3.1450
 8.3100	 3.2110
 8.3230	 3.1300
 8.3370	 3.1560
 8.3500	 3.1000
 8.3640	 3.1620
 8.3770	 3.0840
 8.3910	 3.1530
 8.4040	 3.0980
 8.4180	 3.1630
 8.4320	 3.1740
 8.4450	 3.2780
 8.4590	 3.2330
 8.4730	 3.3200
 8.4870	 3.2830
 8.5010	 3.4060
 8.5150	 3.4430
 8.5290	 3.5470
 8.5430	 3.4860
 8.5570	 3.6010
 8.5710	 3.5370
 8.5850	 3.5970
 8.5990	 3.5510
 8.6140	 3.6300
 8.6280	 3.5870
 8.6420	 3.6490
 8.6570	 3.5990
 8.6710	 3.6690
 8.6860	 3.5680
 8.7000	 3.6340
 8.7150	 3.5730
 8.7300	 3.6060
 8.7440	 3.5200
 8.7590	 3.6150
 8.7740	 3.6150
 8.7890	 3.7230
 8.8040	 3.6240
 8.8190	 3.7180
 8.8340	 3.6600
 8.8490	 3.7290
 8.8640	 3.6530
 8.8790	 3.6810
 8.8940	 3.5840
 8.9100	 3.6330
 8.9250	 3.6100
 8.9400	 3.7200
 8.9560	 3.6470
 8.9710	 3.7920
 8.9870	 3.8150
 9.0020	 3.8580
 9.0180	 3.7240
 9.0340	 3.7780
 9.0500	 3.7000
 9.0650	 3.8360
 9.0810	 3.8360
 9.0970	 3.9120
 9.1130	 3.7990
 9.1290	 3.8370
 9.1450	 3.7950
 9.1620	 3.9070
 9.1780	 3.8370
 9.1940	 3.8780
 9.2100	 3.7590
 9.2270	 3.8150
 9.2430	 3.7530
 9.2600	 3.8720
 9.2760	 3.8160
 9.2930	 3.8640
 9.3100	 3.7850
 9.3260	 3.9420
 9.3430	 3.9190
 9.3600	 3.9830
 9.3770	 3.8840
 9.3940	 3.9300
 9.4110	 3.8470
 9.4280	 3.9760
 9.4450	 3.8850
 9.4620	 3.9990
 9.4800	 3.9610
 9.4970	 4.1350
 9.5150	 4.1220
 9.5320	 4.1910
 9.5500	 4.1230
 9.5670	 4.2300
 9.5850	 4.1960
 9.6030	 4.3600
 9.6200	 4.3490
 9.6380	 4.5060
 9.6560	 4.4380
 9.6740	 4.4330
 9.6920	 4.3540
 9.7110	 4.4410
 9.7290	 4.3770
 9.7470	 4.5220
 9.7650	 4.4570
 9.7840	 4.5610
 9.8020	 4.4360
 9.8210	 4.4610
 9.8390	 4.3360
 9.8580	 4.3810
 9.8770	 4.3260
 9.8960	 4.4530
 9.9150	 4.3760
 9.9340	 4.3760
 9.9530	 4.2350
 9.9720	 4.3100
 9.9910	 4.1520
10.0100	 4.2000
10.0300	 4.1150
10.0490	 4.1920
10.0690	 4.1190
10.0880	 4.1540
10.1080	 4.0310
10.1280	 4.0240
10.1480	 3.8850
10.1670	 3.9790
10.1870	 3.9330
10.2070	 3.9740
10.2280	 3.8370
10.2480	 3.8880
10.2680	 3.8080
10.2890	 3.8340
10.3090	 3.7100
10.3300	 3.8040
10.3500	 3.6980
10.3710	 3.7140
10.3920	 3.6140
10.4120	 3.6820
10.4330	 3.6030
10.4540	 3.7500
10.4760	 3.7040
10.4970	 3.7230
10.5180	 3.5840
10.5390	 3.6980
10.5610	 3.6300
10.5820	 3.6920
10.6040	 3.6010
10.6260	 3.6630
10.6480	 3.5430
10.6700	 3.6240
10.6920	 3.5180
10.7140	 3.5850
10.7360	 3.4880
10.7580	 3.6000
10.7800	 3.4900
10.8030	 3.5690
10.8250	 3.4790
10.8480	 3.5150
10.8710	 3.4370
10.8940	 3.5600
10.9170	 3.4960
10.9400	 3.6280
10.9630	 3.4680
10.9860	 3.5260
11.0090	 3.4560
11.0330	 3.5400
11.0560	 3.4070
11.0800	 3.5000
11.1040	 3.4110
11.1270	 3.4660
11.1510	 3.3050
11.1750	 3.4250
11.2000	 3.3720
11.2240	 3.4680
11.2480	 3.3590
11.2730	 3.4400
11.2970	 3.2780
11.3220	 3.4370
11.3470	 3.3410
11.3720	 3.3470
11.3970	 3.2360
11.4220	 3.3830
11.4470	 3.3310
11.4720	 3.4790
11.4980	 3.2990
11.5230	 3.3470
11.5490	 3.2390
11.5750	 3.3190
11.6000	 3.2570
11.6260	 3.4350
11.6530	 3.2790
11.6790	 3.3120
11.7050	 3.2170
11.7320	 3.3500
11.7580	 3.1940
11.7850	 3.2440
11.8120	 3.1500
11.8390	 3.2920
11.8660	 3.1450
11.8930	 3.2500
11.9200	 3.1780
11.9480	 3.3060
11.9760	 3.2900
12.0030	 3.4320
12.0310	 3.2400
12.0590	 3.3650
12.0870	 3.2700
12.1150	 3.3620
12.1440	 3.2340
12.1720	 3.3470
12.2010	 3.1670
12.2300	 3.2920
12.2590	 3.2130
12.2880	 3.3000
12.3170	 3.1100
12.3460	 3.3040
12.3760	 3.2380
12.4050	 3.3920
12.4350	 3.2930
12.4650	 3.4040
12.4950	 3.2370
12.5250	 3.4020
12.5550	 3.3170
12.5860	 3.4760
12.6170	 3.3230
12.6470	 3.4600
12.6780	 3.2950
12.7090	 3.4480
12.7410	 3.3500
12.7720	 3.4450
12.8030	 3.2120
12.8350	 3.3330
12.8670	 3.2070
12.8990	 3.3810
12.9310	 3.2390
12.9640	 3.3500
12.9960	 3.2540
13.0290	 3.4140
13.0610	 3.2610
13.0940	 3.4470
13.1280	 3.2630
13.1610	 3.3310
13.1940	 3.1540
13.2280	 3.3480
13.2620	 3.2000
13.2960	 3.3210
13.3300	 3.1840
13.3640	 3.3650
13.3990	 3.2150
13.4340	 3.3920
13.4690	 3.2200
13.5040	 3.3420
13.5390	 3.1740
13.5740	 3.4180
13.6100	 3.1980
13.6460	 3.2360
13.6820	 3.1490
13.7180	 3.4020
13.7540	 3.1130
13.7910	 3.3050
13.8280	 3.1630
13.8650	 3.4010
13.9020	 3.3670
13.9390	 3.6360
13.9770	 3.3910
14.0150	 3.5590
14.0530	 3.4310
14.0910	 3.6320
14.1290	 3.3550
14.1680	 3.5300
14.2070	 3.2550
14.2460	 3.4920
14.2850	 3.2340
14.3240	 3.3190
14.3640	 3.0790
14.4040	 3.3620
14.4440	 3.1470
14.4840	 3.3740
14.5250	 3.1060
14.5660	 3.4120
14.6070	 3.2560
14.6480	 3.5020
14.6900	 3.0800
14.7310	 3.2640
14.7730	 2.9970
14.8150	 3.4800
14.8580	 3.2930
14.9010	 3.4930
14.9440	 3.1440
14.9870	 3.5510
15.0300	 3.1150
15.0740	 3.5270
15.1180	 3.2450
15.1620	 3.4130
15.2060	 2.9260
15.2510	 3.2720
15.2960	 3.1060
15.3410	 3.5950
15.3870	 3.0880
