Name: Quercus agrifolia 1
Type: vegetation
Class: Tree
Genus: Quercus
Species: agrifolia
Sample No.: VH076
Owner: UCSB
Wavelength Range: VSWIR
Origin: 34.7153; -120.0601; WGS84
Collection Date: 4/21/2013
Description: Samples were collected as part of the HyspIRI Airborne Campaign. 48 individual plants were sampled in three times in 2013 - spring  summer  and fall. The name of the sample includes a 1  2  or 3 which references a different individual of the species. Samples were taken to JPL and processed within 48 hours of collection. The same leaves were processed in the Nicolet and then measured using the ASD.
Measurement: Bidirectional reflectance
First Column: X
Second Column: Y
X Units: Wavelength (micrometers)
Y Units: Reflectance (percentage)
First X Value: 0.35
Last X Value: 2.5
Number of X Values: 2151
Additional Information: vegetation.tree.quercus.agrifolia.vswir.vh076.ucsb.asd.ancillary.txt

 0.3500	 3.6760
 0.3510	 3.7070
 0.3520	 3.6040
 0.3530	 3.5560
 0.3540	 3.6740
 0.3550	 3.6190
 0.3560	 3.6320
 0.3570	 3.7170
 0.3580	 3.7400
 0.3590	 3.6120
 0.3600	 3.5620
 0.3610	 3.6240
 0.3620	 3.5130
 0.3630	 3.6290
 0.3640	 3.7380
 0.3650	 3.6110
 0.3660	 3.6850
 0.3670	 3.6530
 0.3680	 3.5560
 0.3690	 3.6520
 0.3700	 3.6640
 0.3710	 3.6400
 0.3720	 3.6430
 0.3730	 3.6920
 0.3740	 3.5340
 0.3750	 3.4350
 0.3760	 3.6630
 0.3770	 3.6310
 0.3780	 3.5700
 0.3790	 3.5810
 0.3800	 3.6160
 0.3810	 3.6460
 0.3820	 3.6280
 0.3830	 3.5790
 0.3840	 3.6580
 0.3850	 3.6140
 0.3860	 3.5600
 0.3870	 3.6690
 0.3880	 3.6270
 0.3890	 3.5810
 0.3900	 3.6040
 0.3910	 3.6560
 0.3920	 3.6340
 0.3930	 3.6000
 0.3940	 3.6140
 0.3950	 3.6310
 0.3960	 3.6070
 0.3970	 3.5870
 0.3980	 3.6380
 0.3990	 3.6500
 0.4000	 3.6530
 0.4010	 3.6560
 0.4020	 3.6180
 0.4030	 3.6280
 0.4040	 3.6450
 0.4050	 3.6310
 0.4060	 3.6820
 0.4070	 3.7110
 0.4080	 3.7020
 0.4090	 3.6900
 0.4100	 3.6960
 0.4110	 3.6990
 0.4120	 3.6910
 0.4130	 3.7100
 0.4140	 3.7200
 0.4150	 3.7260
 0.4160	 3.7460
 0.4170	 3.7930
 0.4180	 3.7940
 0.4190	 3.7560
 0.4200	 3.7590
 0.4210	 3.7770
 0.4220	 3.7850
 0.4230	 3.7770
 0.4240	 3.8050
 0.4250	 3.8080
 0.4260	 3.8000
 0.4270	 3.8240
 0.4280	 3.8360
 0.4290	 3.8450
 0.4300	 3.8550
 0.4310	 3.8490
 0.4320	 3.8470
 0.4330	 3.8620
 0.4340	 3.8960
 0.4350	 3.9030
 0.4360	 3.9100
 0.4370	 3.9130
 0.4380	 3.8880
 0.4390	 3.8930
 0.4400	 3.8960
 0.4410	 3.8810
 0.4420	 3.8860
 0.4430	 3.9010
 0.4440	 3.9090
 0.4450	 3.8970
 0.4460	 3.9100
 0.4470	 3.9240
 0.4480	 3.9320
 0.4490	 3.9520
 0.4500	 3.9490
 0.4510	 3.9450
 0.4520	 3.9590
 0.4530	 3.9630
 0.4540	 3.9670
 0.4550	 3.9760
 0.4560	 3.9850
 0.4570	 3.9880
 0.4580	 3.9950
 0.4590	 4.0080
 0.4600	 4.0050
 0.4610	 3.9940
 0.4620	 3.9930
 0.4630	 4.0120
 0.4640	 4.0120
 0.4650	 4.0050
 0.4660	 4.0010
 0.4670	 4.0070
 0.4680	 4.0080
 0.4690	 4.0090
 0.4700	 4.0120
 0.4710	 4.0040
 0.4720	 4.0040
 0.4730	 4.0100
 0.4740	 4.0140
 0.4750	 4.0140
 0.4760	 4.0130
 0.4770	 4.0160
 0.4780	 4.0300
 0.4790	 4.0270
 0.4800	 4.0160
 0.4810	 4.0160
 0.4820	 4.0330
 0.4830	 4.0480
 0.4840	 4.0520
 0.4850	 4.0460
 0.4860	 4.0560
 0.4870	 4.0760
 0.4880	 4.0920
 0.4890	 4.1040
 0.4900	 4.1020
 0.4910	 4.1060
 0.4920	 4.1400
 0.4930	 4.1610
 0.4940	 4.1720
 0.4950	 4.1850
 0.4960	 4.2210
 0.4970	 4.2560
 0.4980	 4.2870
 0.4990	 4.3210
 0.5000	 4.3670
 0.5010	 4.4160
 0.5020	 4.4640
 0.5030	 4.5160
 0.5040	 4.5870
 0.5050	 4.6640
 0.5060	 4.7400
 0.5070	 4.8270
 0.5080	 4.9310
 0.5090	 5.0420
 0.5100	 5.1520
 0.5110	 5.2950
 0.5120	 5.4480
 0.5130	 5.6020
 0.5140	 5.7730
 0.5150	 5.9660
 0.5160	 6.1720
 0.5170	 6.3830
 0.5180	 6.6090
 0.5190	 6.8490
 0.5200	 7.0940
 0.5210	 7.3310
 0.5220	 7.5850
 0.5230	 7.8440
 0.5240	 8.0940
 0.5250	 8.3220
 0.5260	 8.5530
 0.5270	 8.7780
 0.5280	 8.9830
 0.5290	 9.1840
 0.5300	 9.3660
 0.5310	 9.5250
 0.5320	 9.6750
 0.5330	 9.8210
 0.5340	 9.9550
 0.5350	10.0700
 0.5360	10.1730
 0.5370	10.2680
 0.5380	10.3580
 0.5390	10.4400
 0.5400	10.5230
 0.5410	10.6060
 0.5420	10.6880
 0.5430	10.7610
 0.5440	10.8280
 0.5450	10.8900
 0.5460	10.9440
 0.5470	10.9770
 0.5480	11.0040
 0.5490	11.0360
 0.5500	11.0750
 0.5510	11.1020
 0.5520	11.1130
 0.5530	11.1100
 0.5540	11.0940
 0.5550	11.0670
 0.5560	11.0230
 0.5570	10.9570
 0.5580	10.8820
 0.5590	10.7950
 0.5600	10.6960
 0.5610	10.5910
 0.5620	10.4850
 0.5630	10.3710
 0.5640	10.2380
 0.5650	10.0960
 0.5660	 9.9340
 0.5670	 9.7560
 0.5680	 9.5820
 0.5690	 9.4080
 0.5700	 9.2350
 0.5710	 9.0640
 0.5720	 8.8970
 0.5730	 8.7390
 0.5740	 8.6020
 0.5750	 8.5000
 0.5760	 8.4020
 0.5770	 8.3030
 0.5780	 8.2040
 0.5790	 8.1120
 0.5800	 8.0190
 0.5810	 7.9300
 0.5820	 7.8490
 0.5830	 7.7620
 0.5840	 7.6750
 0.5850	 7.5860
 0.5860	 7.4920
 0.5870	 7.4120
 0.5880	 7.3440
 0.5890	 7.2870
 0.5900	 7.2540
 0.5910	 7.2370
 0.5920	 7.2240
 0.5930	 7.1990
 0.5940	 7.1590
 0.5950	 7.1190
 0.5960	 7.0860
 0.5970	 7.0460
 0.5980	 7.0070
 0.5990	 6.9720
 0.6000	 6.9370
 0.6010	 6.8940
 0.6020	 6.8490
 0.6030	 6.8050
 0.6040	 6.7630
 0.6050	 6.7170
 0.6060	 6.6630
 0.6070	 6.6020
 0.6080	 6.5420
 0.6090	 6.4820
 0.6100	 6.4250
 0.6110	 6.3770
 0.6120	 6.3110
 0.6130	 6.2310
 0.6140	 6.1490
 0.6150	 6.0810
 0.6160	 6.0150
 0.6170	 5.9530
 0.6180	 5.8980
 0.6190	 5.8530
 0.6200	 5.8120
 0.6210	 5.7740
 0.6220	 5.7400
 0.6230	 5.7100
 0.6240	 5.6860
 0.6250	 5.6680
 0.6260	 5.6500
 0.6270	 5.6360
 0.6280	 5.6250
 0.6290	 5.6150
 0.6300	 5.6140
 0.6310	 5.6100
 0.6320	 5.6000
 0.6330	 5.5830
 0.6340	 5.5590
 0.6350	 5.5300
 0.6360	 5.4990
 0.6370	 5.4550
 0.6380	 5.3980
 0.6390	 5.3320
 0.6400	 5.2670
 0.6410	 5.1980
 0.6420	 5.1270
 0.6430	 5.0580
 0.6440	 4.9880
 0.6450	 4.9220
 0.6460	 4.8570
 0.6470	 4.7920
 0.6480	 4.7430
 0.6490	 4.6980
 0.6500	 4.6550
 0.6510	 4.6230
 0.6520	 4.5960
 0.6530	 4.5720
 0.6540	 4.5480
 0.6550	 4.5140
 0.6560	 4.4850
 0.6570	 4.4580
 0.6580	 4.4220
 0.6590	 4.3850
 0.6600	 4.3450
 0.6610	 4.3050
 0.6620	 4.2700
 0.6630	 4.2340
 0.6640	 4.2010
 0.6650	 4.1730
 0.6660	 4.1470
 0.6670	 4.1240
 0.6680	 4.1080
 0.6690	 4.0980
 0.6700	 4.0890
 0.6710	 4.0850
 0.6720	 4.0870
 0.6730	 4.0880
 0.6740	 4.0960
 0.6750	 4.1080
 0.6760	 4.1190
 0.6770	 4.1290
 0.6780	 4.1480
 0.6790	 4.1740
 0.6800	 4.1970
 0.6810	 4.2300
 0.6820	 4.2650
 0.6830	 4.3040
 0.6840	 4.3580
 0.6850	 4.4270
 0.6860	 4.5110
 0.6870	 4.6150
 0.6880	 4.7440
 0.6890	 4.9080
 0.6900	 5.1190
 0.6910	 5.3860
 0.6920	 5.7150
 0.6930	 6.1170
 0.6940	 6.5970
 0.6950	 7.1500
 0.6960	 7.7840
 0.6970	 8.4990
 0.6980	 9.2870
 0.6990	10.1340
 0.7000	11.0350
 0.7010	11.9820
 0.7020	12.9620
 0.7030	13.9590
 0.7040	14.9670
 0.7050	15.9790
 0.7060	16.9870
 0.7070	17.9890
 0.7080	18.9830
 0.7090	19.9690
 0.7100	20.9410
 0.7110	21.9020
 0.7120	22.8480
 0.7130	23.7740
 0.7140	24.6930
 0.7150	25.5990
 0.7160	26.4880
 0.7170	27.3640
 0.7180	28.2190
 0.7190	29.0530
 0.7200	29.8710
 0.7210	30.6680
 0.7220	31.4490
 0.7230	32.2090
 0.7240	32.9380
 0.7250	33.6370
 0.7260	34.3150
 0.7270	34.9710
 0.7280	35.5870
 0.7290	36.1810
 0.7300	36.7490
 0.7310	37.2810
 0.7320	37.7880
 0.7330	38.2710
 0.7340	38.7280
 0.7350	39.1550
 0.7360	39.5650
 0.7370	39.9510
 0.7380	40.3070
 0.7390	40.6420
 0.7400	40.9590
 0.7410	41.2630
 0.7420	41.5540
 0.7430	41.8030
 0.7440	42.0310
 0.7450	42.2520
 0.7460	42.4670
 0.7470	42.6550
 0.7480	42.8240
 0.7490	42.9820
 0.7500	43.1300
 0.7510	43.2650
 0.7520	43.3890
 0.7530	43.5000
 0.7540	43.6010
 0.7550	43.6940
 0.7560	43.7770
 0.7570	43.8530
 0.7580	43.9240
 0.7590	43.9900
 0.7600	44.0500
 0.7610	44.1020
 0.7620	44.1510
 0.7630	44.1950
 0.7640	44.2290
 0.7650	44.2700
 0.7660	44.2990
 0.7670	44.3210
 0.7680	44.3550
 0.7690	44.3780
 0.7700	44.3960
 0.7710	44.4150
 0.7720	44.4320
 0.7730	44.4490
 0.7740	44.4670
 0.7750	44.4840
 0.7760	44.4890
 0.7770	44.5100
 0.7780	44.5360
 0.7790	44.5410
 0.7800	44.5500
 0.7810	44.5650
 0.7820	44.5800
 0.7830	44.5840
 0.7840	44.5930
 0.7850	44.6040
 0.7860	44.6150
 0.7870	44.6320
 0.7880	44.6400
 0.7890	44.6480
 0.7900	44.6660
 0.7910	44.6730
 0.7920	44.6820
 0.7930	44.6960
 0.7940	44.7090
 0.7950	44.7170
 0.7960	44.7170
 0.7970	44.7180
 0.7980	44.7410
 0.7990	44.7490
 0.8000	44.7510
 0.8010	44.7590
 0.8020	44.7660
 0.8030	44.7710
 0.8040	44.7740
 0.8050	44.7730
 0.8060	44.7900
 0.8070	44.8000
 0.8080	44.8020
 0.8090	44.8150
 0.8100	44.8150
 0.8110	44.8170
 0.8120	44.8300
 0.8130	44.8460
 0.8140	44.8460
 0.8150	44.8400
 0.8160	44.8400
 0.8170	44.8490
 0.8180	44.8520
 0.8190	44.8520
 0.8200	44.8570
 0.8210	44.8630
 0.8220	44.8670
 0.8230	44.8700
 0.8240	44.8770
 0.8250	44.8760
 0.8260	44.8710
 0.8270	44.8660
 0.8280	44.8690
 0.8290	44.8740
 0.8300	44.8770
 0.8310	44.8730
 0.8320	44.8620
 0.8330	44.8550
 0.8340	44.8550
 0.8350	44.8580
 0.8360	44.8490
 0.8370	44.8450
 0.8380	44.8480
 0.8390	44.8530
 0.8400	44.8570
 0.8410	44.8660
 0.8420	44.8750
 0.8430	44.8700
 0.8440	44.8600
 0.8450	44.8580
 0.8460	44.8700
 0.8470	44.8740
 0.8480	44.8740
 0.8490	44.8730
 0.8500	44.8770
 0.8510	44.8830
 0.8520	44.8800
 0.8530	44.8720
 0.8540	44.8680
 0.8550	44.8650
 0.8560	44.8680
 0.8570	44.8770
 0.8580	44.8790
 0.8590	44.8820
 0.8600	44.8780
 0.8610	44.8710
 0.8620	44.8750
 0.8630	44.8780
 0.8640	44.8700
 0.8650	44.8550
 0.8660	44.8670
 0.8670	44.8730
 0.8680	44.8710
 0.8690	44.8660
 0.8700	44.8590
 0.8710	44.8570
 0.8720	44.8580
 0.8730	44.8570
 0.8740	44.8580
 0.8750	44.8490
 0.8760	44.8350
 0.8770	44.8370
 0.8780	44.8430
 0.8790	44.8440
 0.8800	44.8400
 0.8810	44.8400
 0.8820	44.8390
 0.8830	44.8320
 0.8840	44.8210
 0.8850	44.8180
 0.8860	44.8180
 0.8870	44.8130
 0.8880	44.8030
 0.8890	44.8050
 0.8900	44.7940
 0.8910	44.7800
 0.8920	44.7850
 0.8930	44.7910
 0.8940	44.7900
 0.8950	44.7850
 0.8960	44.7800
 0.8970	44.7740
 0.8980	44.7620
 0.8990	44.7480
 0.9000	44.7490
 0.9010	44.7540
 0.9020	44.7530
 0.9030	44.7470
 0.9040	44.7470
 0.9050	44.7430
 0.9060	44.7400
 0.9070	44.7390
 0.9080	44.7240
 0.9090	44.7130
 0.9100	44.7090
 0.9110	44.7070
 0.9120	44.6890
 0.9130	44.6890
 0.9140	44.6960
 0.9150	44.6890
 0.9160	44.6800
 0.9170	44.6750
 0.9180	44.6630
 0.9190	44.6380
 0.9200	44.6340
 0.9210	44.6320
 0.9220	44.6190
 0.9230	44.5940
 0.9240	44.5750
 0.9250	44.5670
 0.9260	44.5570
 0.9270	44.5250
 0.9280	44.5170
 0.9290	44.5000
 0.9300	44.4680
 0.9310	44.4440
 0.9320	44.4390
 0.9330	44.4210
 0.9340	44.3850
 0.9350	44.3540
 0.9360	44.3310
 0.9370	44.3020
 0.9380	44.2620
 0.9390	44.2230
 0.9400	44.2000
 0.9410	44.1750
 0.9420	44.1370
 0.9430	44.1050
 0.9440	44.0660
 0.9450	44.0290
 0.9460	43.9980
 0.9470	43.9560
 0.9480	43.8890
 0.9490	43.8110
 0.9500	43.7430
 0.9510	43.6910
 0.9520	43.6360
 0.9530	43.5730
 0.9540	43.5030
 0.9550	43.4260
 0.9560	43.3510
 0.9570	43.2870
 0.9580	43.2320
 0.9590	43.1770
 0.9600	43.1240
 0.9610	43.0740
 0.9620	43.0310
 0.9630	42.9980
 0.9640	42.9790
 0.9650	42.9620
 0.9660	42.9370
 0.9670	42.9120
 0.9680	42.8930
 0.9690	42.8900
 0.9700	42.9010
 0.9710	42.8930
 0.9720	42.8900
 0.9730	42.8910
 0.9740	42.8820
 0.9750	42.8600
 0.9760	42.8670
 0.9770	42.8850
 0.9780	42.8800
 0.9790	42.8820
 0.9800	42.8870
 0.9810	42.8970
 0.9820	42.9140
 0.9830	42.9220
 0.9840	42.9320
 0.9850	42.9480
 0.9860	42.9730
 0.9870	43.0090
 0.9880	43.0180
 0.9890	43.0250
 0.9900	43.0650
 0.9910	43.0820
 0.9920	43.0900
 0.9930	43.0970
 0.9940	43.1040
 0.9950	43.1110
 0.9960	43.1180
 0.9970	43.1250
 0.9980	43.1320
 0.9990	43.1390
 1.0000	43.1460
 1.0010	43.1530
 1.0020	43.1610
 1.0030	43.1680
 1.0040	43.1750
 1.0050	43.1820
 1.0060	43.1890
 1.0070	43.1960
 1.0080	43.2030
 1.0090	43.2100
 1.0100	43.2100
 1.0110	43.2430
 1.0120	43.2700
 1.0130	43.2900
 1.0140	43.3150
 1.0150	43.3440
 1.0160	43.3700
 1.0170	43.3950
 1.0180	43.4220
 1.0190	43.4430
 1.0200	43.4650
 1.0210	43.4900
 1.0220	43.5160
 1.0230	43.5380
 1.0240	43.5560
 1.0250	43.5760
 1.0260	43.5950
 1.0270	43.6140
 1.0280	43.6360
 1.0290	43.6570
 1.0300	43.6790
 1.0310	43.6990
 1.0320	43.7190
 1.0330	43.7370
 1.0340	43.7520
 1.0350	43.7690
 1.0360	43.7840
 1.0370	43.7970
 1.0380	43.8130
 1.0390	43.8310
 1.0400	43.8480
 1.0410	43.8680
 1.0420	43.8840
 1.0430	43.8980
 1.0440	43.9110
 1.0450	43.9250
 1.0460	43.9360
 1.0470	43.9460
 1.0480	43.9540
 1.0490	43.9570
 1.0500	43.9650
 1.0510	43.9770
 1.0520	43.9860
 1.0530	43.9950
 1.0540	44.0070
 1.0550	44.0150
 1.0560	44.0210
 1.0570	44.0280
 1.0580	44.0350
 1.0590	44.0420
 1.0600	44.0490
 1.0610	44.0550
 1.0620	44.0620
 1.0630	44.0680
 1.0640	44.0700
 1.0650	44.0740
 1.0660	44.0790
 1.0670	44.0830
 1.0680	44.0870
 1.0690	44.0930
 1.0700	44.0950
 1.0710	44.0950
 1.0720	44.0960
 1.0730	44.0960
 1.0740	44.0970
 1.0750	44.1000
 1.0760	44.0980
 1.0770	44.0950
 1.0780	44.0900
 1.0790	44.0800
 1.0800	44.0730
 1.0810	44.0650
 1.0820	44.0600
 1.0830	44.0610
 1.0840	44.0560
 1.0850	44.0510
 1.0860	44.0430
 1.0870	44.0340
 1.0880	44.0200
 1.0890	44.0100
 1.0900	44.0030
 1.0910	43.9940
 1.0920	43.9840
 1.0930	43.9730
 1.0940	43.9600
 1.0950	43.9490
 1.0960	43.9380
 1.0970	43.9270
 1.0980	43.9160
 1.0990	43.9050
 1.1000	43.8940
 1.1010	43.8810
 1.1020	43.8620
 1.1030	43.8480
 1.1040	43.8340
 1.1050	43.8160
 1.1060	43.8000
 1.1070	43.7860
 1.1080	43.7700
 1.1090	43.7520
 1.1100	43.7330
 1.1110	43.7160
 1.1120	43.6950
 1.1130	43.6700
 1.1140	43.6470
 1.1150	43.6250
 1.1160	43.5990
 1.1170	43.5730
 1.1180	43.5440
 1.1190	43.5110
 1.1200	43.4780
 1.1210	43.4450
 1.1220	43.4080
 1.1230	43.3680
 1.1240	43.3240
 1.1250	43.2710
 1.1260	43.2100
 1.1270	43.1470
 1.1280	43.0780
 1.1290	43.0010
 1.1300	42.9220
 1.1310	42.8320
 1.1320	42.7310
 1.1330	42.6230
 1.1340	42.5060
 1.1350	42.3830
 1.1360	42.2510
 1.1370	42.1160
 1.1380	41.9730
 1.1390	41.8250
 1.1400	41.6690
 1.1410	41.5090
 1.1420	41.3490
 1.1430	41.1880
 1.1440	41.0290
 1.1450	40.8690
 1.1460	40.7130
 1.1470	40.5540
 1.1480	40.4080
 1.1490	40.2670
 1.1500	40.1350
 1.1510	40.0080
 1.1520	39.8930
 1.1530	39.7850
 1.1540	39.6880
 1.1550	39.6020
 1.1560	39.5250
 1.1570	39.4550
 1.1580	39.3960
 1.1590	39.3450
 1.1600	39.2990
 1.1610	39.2590
 1.1620	39.2250
 1.1630	39.1960
 1.1640	39.1720
 1.1650	39.1520
 1.1660	39.1390
 1.1670	39.1260
 1.1680	39.1160
 1.1690	39.1050
 1.1700	39.0950
 1.1710	39.0860
 1.1720	39.0770
 1.1730	39.0700
 1.1740	39.0630
 1.1750	39.0570
 1.1760	39.0520
 1.1770	39.0480
 1.1780	39.0420
 1.1790	39.0330
 1.1800	39.0240
 1.1810	39.0120
 1.1820	38.9990
 1.1830	38.9880
 1.1840	38.9750
 1.1850	38.9630
 1.1860	38.9540
 1.1870	38.9430
 1.1880	38.9330
 1.1890	38.9230
 1.1900	38.9160
 1.1910	38.9110
 1.1920	38.9070
 1.1930	38.9040
 1.1940	38.9020
 1.1950	38.9000
 1.1960	38.8980
 1.1970	38.8980
 1.1980	38.9000
 1.1990	38.9030
 1.2000	38.9090
 1.2010	38.9170
 1.2020	38.9240
 1.2030	38.9360
 1.2040	38.9480
 1.2050	38.9580
 1.2060	38.9700
 1.2070	38.9840
 1.2080	38.9980
 1.2090	39.0160
 1.2100	39.0350
 1.2110	39.0550
 1.2120	39.0780
 1.2130	39.1000
 1.2140	39.1230
 1.2150	39.1480
 1.2160	39.1730
 1.2170	39.1980
 1.2180	39.2240
 1.2190	39.2540
 1.2200	39.2820
 1.2210	39.3110
 1.2220	39.3440
 1.2230	39.3740
 1.2240	39.4050
 1.2250	39.4340
 1.2260	39.4640
 1.2270	39.4950
 1.2280	39.5260
 1.2290	39.5550
 1.2300	39.5800
 1.2310	39.6050
 1.2320	39.6290
 1.2330	39.6540
 1.2340	39.6770
 1.2350	39.7010
 1.2360	39.7230
 1.2370	39.7420
 1.2380	39.7630
 1.2390	39.7850
 1.2400	39.8060
 1.2410	39.8280
 1.2420	39.8490
 1.2430	39.8680
 1.2440	39.8880
 1.2450	39.9080
 1.2460	39.9250
 1.2470	39.9400
 1.2480	39.9530
 1.2490	39.9660
 1.2500	39.9780
 1.2510	39.9910
 1.2520	40.0050
 1.2530	40.0180
 1.2540	40.0280
 1.2550	40.0380
 1.2560	40.0480
 1.2570	40.0590
 1.2580	40.0670
 1.2590	40.0760
 1.2600	40.0850
 1.2610	40.0900
 1.2620	40.0910
 1.2630	40.0950
 1.2640	40.0960
 1.2650	40.0950
 1.2660	40.0930
 1.2670	40.0880
 1.2680	40.0810
 1.2690	40.0720
 1.2700	40.0640
 1.2710	40.0540
 1.2720	40.0440
 1.2730	40.0310
 1.2740	40.0150
 1.2750	40.0000
 1.2760	39.9830
 1.2770	39.9650
 1.2780	39.9460
 1.2790	39.9260
 1.2800	39.9050
 1.2810	39.8830
 1.2820	39.8600
 1.2830	39.8360
 1.2840	39.8090
 1.2850	39.7800
 1.2860	39.7500
 1.2870	39.7200
 1.2880	39.6870
 1.2890	39.6540
 1.2900	39.6190
 1.2910	39.5820
 1.2920	39.5440
 1.2930	39.5040
 1.2940	39.4630
 1.2950	39.4210
 1.2960	39.3770
 1.2970	39.3300
 1.2980	39.2800
 1.2990	39.2270
 1.3000	39.1720
 1.3010	39.1100
 1.3020	39.0470
 1.3030	38.9820
 1.3040	38.9120
 1.3050	38.8430
 1.3060	38.7720
 1.3070	38.6970
 1.3080	38.6190
 1.3090	38.5390
 1.3100	38.4550
 1.3110	38.3680
 1.3120	38.2750
 1.3130	38.1790
 1.3140	38.0780
 1.3150	37.9700
 1.3160	37.8620
 1.3170	37.7530
 1.3180	37.6380
 1.3190	37.5200
 1.3200	37.3970
 1.3210	37.2680
 1.3220	37.1370
 1.3230	37.0040
 1.3240	36.8690
 1.3250	36.7300
 1.3260	36.5900
 1.3270	36.4470
 1.3280	36.3000
 1.3290	36.1520
 1.3300	36.0000
 1.3310	35.8460
 1.3320	35.6910
 1.3330	35.5350
 1.3340	35.3780
 1.3350	35.2220
 1.3360	35.0630
 1.3370	34.9040
 1.3380	34.7440
 1.3390	34.5840
 1.3400	34.4270
 1.3410	34.2710
 1.3420	34.1170
 1.3430	33.9650
 1.3440	33.8150
 1.3450	33.6660
 1.3460	33.5180
 1.3470	33.3720
 1.3480	33.2270
 1.3490	33.0850
 1.3500	32.9440
 1.3510	32.8050
 1.3520	32.6670
 1.3530	32.5300
 1.3540	32.3930
 1.3550	32.2550
 1.3560	32.1170
 1.3570	31.9770
 1.3580	31.8350
 1.3590	31.6900
 1.3600	31.5390
 1.3610	31.3840
 1.3620	31.2230
 1.3630	31.0560
 1.3640	30.8820
 1.3650	30.6990
 1.3660	30.5080
 1.3670	30.3060
 1.3680	30.0910
 1.3690	29.8660
 1.3700	29.6260
 1.3710	29.3710
 1.3720	29.1010
 1.3730	28.8110
 1.3740	28.5060
 1.3750	28.1810
 1.3760	27.8330
 1.3770	27.4650
 1.3780	27.0700
 1.3790	26.6540
 1.3800	26.2170
 1.3810	25.7530
 1.3820	25.2730
 1.3830	24.7730
 1.3840	24.2580
 1.3850	23.7250
 1.3860	23.1830
 1.3870	22.6210
 1.3880	22.0600
 1.3890	21.4910
 1.3900	20.9150
 1.3910	20.3460
 1.3920	19.7760
 1.3930	19.2080
 1.3940	18.6510
 1.3950	18.0970
 1.3960	17.5570
 1.3970	17.0340
 1.3980	16.5250
 1.3990	16.0410
 1.4000	15.5750
 1.4010	15.1270
 1.4020	14.7050
 1.4030	14.3000
 1.4040	13.9180
 1.4050	13.5620
 1.4060	13.2250
 1.4070	12.9140
 1.4080	12.6250
 1.4090	12.3540
 1.4100	12.1050
 1.4110	11.8740
 1.4120	11.6610
 1.4130	11.4640
 1.4140	11.2840
 1.4150	11.1210
 1.4160	10.9720
 1.4170	10.8360
 1.4180	10.7130
 1.4190	10.6000
 1.4200	10.4970
 1.4210	10.4030
 1.4220	10.3180
 1.4230	10.2440
 1.4240	10.1760
 1.4250	10.1140
 1.4260	10.0600
 1.4270	10.0110
 1.4280	 9.9680
 1.4290	 9.9290
 1.4300	 9.8970
 1.4310	 9.8680
 1.4320	 9.8450
 1.4330	 9.8250
 1.4340	 9.8080
 1.4350	 9.7950
 1.4360	 9.7860
 1.4370	 9.7780
 1.4380	 9.7730
 1.4390	 9.7710
 1.4400	 9.7710
 1.4410	 9.7740
 1.4420	 9.7800
 1.4430	 9.7870
 1.4440	 9.7950
 1.4450	 9.8050
 1.4460	 9.8150
 1.4470	 9.8270
 1.4480	 9.8400
 1.4490	 9.8540
 1.4500	 9.8700
 1.4510	 9.8860
 1.4520	 9.9040
 1.4530	 9.9220
 1.4540	 9.9420
 1.4550	 9.9650
 1.4560	 9.9880
 1.4570	10.0150
 1.4580	10.0440
 1.4590	10.0750
 1.4600	10.1090
 1.4610	10.1470
 1.4620	10.1900
 1.4630	10.2360
 1.4640	10.2870
 1.4650	10.3410
 1.4660	10.3980
 1.4670	10.4590
 1.4680	10.5250
 1.4690	10.5950
 1.4700	10.6680
 1.4710	10.7470
 1.4720	10.8250
 1.4730	10.9080
 1.4740	10.9950
 1.4750	11.0840
 1.4760	11.1770
 1.4770	11.2720
 1.4780	11.3680
 1.4790	11.4670
 1.4800	11.5670
 1.4810	11.6700
 1.4820	11.7740
 1.4830	11.8800
 1.4840	11.9870
 1.4850	12.0950
 1.4860	12.2030
 1.4870	12.3130
 1.4880	12.4240
 1.4890	12.5350
 1.4900	12.6470
 1.4910	12.7590
 1.4920	12.8740
 1.4930	12.9890
 1.4940	13.1050
 1.4950	13.2240
 1.4960	13.3400
 1.4970	13.4560
 1.4980	13.5740
 1.4990	13.6910
 1.5000	13.8090
 1.5010	13.9280
 1.5020	14.0470
 1.5030	14.1660
 1.5040	14.2860
 1.5050	14.4050
 1.5060	14.5250
 1.5070	14.6450
 1.5080	14.7650
 1.5090	14.8860
 1.5100	15.0070
 1.5110	15.1270
 1.5120	15.2460
 1.5130	15.3650
 1.5140	15.4830
 1.5150	15.6020
 1.5160	15.7210
 1.5170	15.8390
 1.5180	15.9580
 1.5190	16.0780
 1.5200	16.1960
 1.5210	16.3120
 1.5220	16.4280
 1.5230	16.5430
 1.5240	16.6570
 1.5250	16.7740
 1.5260	16.8880
 1.5270	17.0020
 1.5280	17.1150
 1.5290	17.2250
 1.5300	17.3350
 1.5310	17.4460
 1.5320	17.5550
 1.5330	17.6640
 1.5340	17.7720
 1.5350	17.8780
 1.5360	17.9850
 1.5370	18.0900
 1.5380	18.1950
 1.5390	18.3000
 1.5400	18.4020
 1.5410	18.5050
 1.5420	18.6070
 1.5430	18.7090
 1.5440	18.8090
 1.5450	18.9090
 1.5460	19.0080
 1.5470	19.1060
 1.5480	19.2040
 1.5490	19.3010
 1.5500	19.3980
 1.5510	19.4940
 1.5520	19.5890
 1.5530	19.6820
 1.5540	19.7750
 1.5550	19.8680
 1.5560	19.9600
 1.5570	20.0520
 1.5580	20.1430
 1.5590	20.2320
 1.5600	20.3190
 1.5610	20.4050
 1.5620	20.4910
 1.5630	20.5770
 1.5640	20.6600
 1.5650	20.7440
 1.5660	20.8250
 1.5670	20.9050
 1.5680	20.9870
 1.5690	21.0690
 1.5700	21.1490
 1.5710	21.2300
 1.5720	21.3080
 1.5730	21.3870
 1.5740	21.4650
 1.5750	21.5410
 1.5760	21.6180
 1.5770	21.6930
 1.5780	21.7660
 1.5790	21.8390
 1.5800	21.9120
 1.5810	21.9850
 1.5820	22.0570
 1.5830	22.1300
 1.5840	22.2020
 1.5850	22.2700
 1.5860	22.3380
 1.5870	22.4060
 1.5880	22.4740
 1.5890	22.5440
 1.5900	22.6130
 1.5910	22.6810
 1.5920	22.7470
 1.5930	22.8100
 1.5940	22.8720
 1.5950	22.9370
 1.5960	23.0000
 1.5970	23.0640
 1.5980	23.1280
 1.5990	23.1900
 1.6000	23.2520
 1.6010	23.3130
 1.6020	23.3730
 1.6030	23.4320
 1.6040	23.4910
 1.6050	23.5490
 1.6060	23.6080
 1.6070	23.6660
 1.6080	23.7220
 1.6090	23.7790
 1.6100	23.8350
 1.6110	23.8880
 1.6120	23.9390
 1.6130	23.9910
 1.6140	24.0410
 1.6150	24.0910
 1.6160	24.1410
 1.6170	24.1890
 1.6180	24.2350
 1.6190	24.2800
 1.6200	24.3250
 1.6210	24.3700
 1.6220	24.4150
 1.6230	24.4600
 1.6240	24.5030
 1.6250	24.5460
 1.6260	24.5880
 1.6270	24.6290
 1.6280	24.6690
 1.6290	24.7060
 1.6300	24.7420
 1.6310	24.7770
 1.6320	24.8110
 1.6330	24.8440
 1.6340	24.8780
 1.6350	24.9090
 1.6360	24.9370
 1.6370	24.9650
 1.6380	24.9890
 1.6390	25.0140
 1.6400	25.0380
 1.6410	25.0590
 1.6420	25.0790
 1.6430	25.0960
 1.6440	25.1110
 1.6450	25.1250
 1.6460	25.1360
 1.6470	25.1460
 1.6480	25.1550
 1.6490	25.1620
 1.6500	25.1690
 1.6510	25.1730
 1.6520	25.1770
 1.6530	25.1800
 1.6540	25.1840
 1.6550	25.1880
 1.6560	25.1900
 1.6570	25.1930
 1.6580	25.1940
 1.6590	25.1950
 1.6600	25.2000
 1.6610	25.2030
 1.6620	25.2070
 1.6630	25.2110
 1.6640	25.2150
 1.6650	25.2180
 1.6660	25.2210
 1.6670	25.2240
 1.6680	25.2260
 1.6690	25.2270
 1.6700	25.2260
 1.6710	25.2240
 1.6720	25.2190
 1.6730	25.2140
 1.6740	25.2060
 1.6750	25.1950
 1.6760	25.1830
 1.6770	25.1680
 1.6780	25.1500
 1.6790	25.1330
 1.6800	25.1130
 1.6810	25.0910
 1.6820	25.0700
 1.6830	25.0460
 1.6840	25.0220
 1.6850	24.9980
 1.6860	24.9720
 1.6870	24.9440
 1.6880	24.9140
 1.6890	24.8830
 1.6900	24.8510
 1.6910	24.8180
 1.6920	24.7830
 1.6930	24.7460
 1.6940	24.7070
 1.6950	24.6660
 1.6960	24.6230
 1.6970	24.5780
 1.6980	24.5330
 1.6990	24.4870
 1.7000	24.4420
 1.7010	24.3950
 1.7020	24.3470
 1.7030	24.2960
 1.7040	24.2470
 1.7050	24.1980
 1.7060	24.1470
 1.7070	24.0960
 1.7080	24.0450
 1.7090	23.9930
 1.7100	23.9400
 1.7110	23.8880
 1.7120	23.8350
 1.7130	23.7810
 1.7140	23.7260
 1.7150	23.6710
 1.7160	23.6170
 1.7170	23.5610
 1.7180	23.5070
 1.7190	23.4540
 1.7200	23.4000
 1.7210	23.3460
 1.7220	23.2900
 1.7230	23.2330
 1.7240	23.1770
 1.7250	23.1210
 1.7260	23.0680
 1.7270	23.0170
 1.7280	22.9690
 1.7290	22.9220
 1.7300	22.8760
 1.7310	22.8310
 1.7320	22.7870
 1.7330	22.7430
 1.7340	22.7010
 1.7350	22.6570
 1.7360	22.6080
 1.7370	22.5610
 1.7380	22.5150
 1.7390	22.4650
 1.7400	22.4150
 1.7410	22.3610
 1.7420	22.3040
 1.7430	22.2450
 1.7440	22.1850
 1.7450	22.1210
 1.7460	22.0540
 1.7470	21.9880
 1.7480	21.9190
 1.7490	21.8520
 1.7500	21.7880
 1.7510	21.7200
 1.7520	21.6520
 1.7530	21.5830
 1.7540	21.5110
 1.7550	21.4430
 1.7560	21.3750
 1.7570	21.3070
 1.7580	21.2400
 1.7590	21.1730
 1.7600	21.1050
 1.7610	21.0390
 1.7620	20.9770
 1.7630	20.9190
 1.7640	20.8620
 1.7650	20.8050
 1.7660	20.7520
 1.7670	20.6990
 1.7680	20.6500
 1.7690	20.6060
 1.7700	20.5610
 1.7710	20.5170
 1.7720	20.4740
 1.7730	20.4300
 1.7740	20.3900
 1.7750	20.3530
 1.7760	20.3150
 1.7770	20.2780
 1.7780	20.2430
 1.7790	20.2100
 1.7800	20.1770
 1.7810	20.1470
 1.7820	20.1170
 1.7830	20.0870
 1.7840	20.0600
 1.7850	20.0370
 1.7860	20.0150
 1.7870	19.9950
 1.7880	19.9740
 1.7890	19.9550
 1.7900	19.9370
 1.7910	19.9210
 1.7920	19.9070
 1.7930	19.8950
 1.7940	19.8870
 1.7950	19.8780
 1.7960	19.8730
 1.7970	19.8670
 1.7980	19.8600
 1.7990	19.8550
 1.8000	19.8510
 1.8010	19.8480
 1.8020	19.8460
 1.8030	19.8460
 1.8040	19.8480
 1.8050	19.8480
 1.8060	19.8470
 1.8070	19.8460
 1.8080	19.8420
 1.8090	19.8400
 1.8100	19.8400
 1.8110	19.8390
 1.8120	19.8390
 1.8130	19.8390
 1.8140	19.8370
 1.8150	19.8340
 1.8160	19.8300
 1.8170	19.8260
 1.8180	19.8220
 1.8190	19.8170
 1.8200	19.8120
 1.8210	19.8040
 1.8220	19.7960
 1.8230	19.7870
 1.8240	19.7760
 1.8250	19.7630
 1.8260	19.7490
 1.8270	19.7160
 1.8280	19.6830
 1.8290	19.6500
 1.8300	19.6170
 1.8310	19.5840
 1.8320	19.5520
 1.8330	19.5190
 1.8340	19.4860
 1.8350	19.4860
 1.8360	19.4390
 1.8370	19.3870
 1.8380	19.3300
 1.8390	19.2680
 1.8400	19.2050
 1.8410	19.1330
 1.8420	19.0550
 1.8430	18.9690
 1.8440	18.8760
 1.8450	18.7750
 1.8460	18.6670
 1.8470	18.5560
 1.8480	18.4320
 1.8490	18.3000
 1.8500	18.1570
 1.8510	18.0060
 1.8520	17.8400
 1.8530	17.6640
 1.8540	17.4790
 1.8550	17.2760
 1.8560	17.0640
 1.8570	16.8420
 1.8580	16.6040
 1.8590	16.3560
 1.8600	16.0980
 1.8610	15.8280
 1.8620	15.5400
 1.8630	15.2430
 1.8640	14.9340
 1.8650	14.6080
 1.8660	14.2700
 1.8670	13.9160
 1.8680	13.5470
 1.8690	13.1670
 1.8700	12.7780
 1.8710	12.3780
 1.8720	11.9750
 1.8730	11.5650
 1.8740	11.1480
 1.8750	10.7360
 1.8760	10.3190
 1.8770	 9.9070
 1.8780	 9.5050
 1.8790	 9.1070
 1.8800	 8.7220
 1.8810	 8.3480
 1.8820	 7.9810
 1.8830	 7.6220
 1.8840	 7.2780
 1.8850	 6.9430
 1.8860	 6.6260
 1.8870	 6.3280
 1.8880	 6.0430
 1.8890	 5.7790
 1.8900	 5.5360
 1.8910	 5.3090
 1.8920	 5.0970
 1.8930	 4.9080
 1.8940	 4.7340
 1.8950	 4.5760
 1.8960	 4.4340
 1.8970	 4.3060
 1.8980	 4.1930
 1.8990	 4.0920
 1.9000	 4.0000
 1.9010	 3.9190
 1.9020	 3.8470
 1.9030	 3.7840
 1.9040	 3.7280
 1.9050	 3.6830
 1.9060	 3.6440
 1.9070	 3.6110
 1.9080	 3.5840
 1.9090	 3.5580
 1.9100	 3.5350
 1.9110	 3.5140
 1.9120	 3.4950
 1.9130	 3.4800
 1.9140	 3.4680
 1.9150	 3.4600
 1.9160	 3.4520
 1.9170	 3.4440
 1.9180	 3.4370
 1.9190	 3.4290
 1.9200	 3.4250
 1.9210	 3.4240
 1.9220	 3.4220
 1.9230	 3.4210
 1.9240	 3.4200
 1.9250	 3.4190
 1.9260	 3.4160
 1.9270	 3.4170
 1.9280	 3.4190
 1.9290	 3.4200
 1.9300	 3.4250
 1.9310	 3.4300
 1.9320	 3.4350
 1.9330	 3.4400
 1.9340	 3.4460
 1.9350	 3.4520
 1.9360	 3.4570
 1.9370	 3.4630
 1.9380	 3.4690
 1.9390	 3.4760
 1.9400	 3.4850
 1.9410	 3.4920
 1.9420	 3.5000
 1.9430	 3.5100
 1.9440	 3.5200
 1.9450	 3.5320
 1.9460	 3.5430
 1.9470	 3.5530
 1.9480	 3.5650
 1.9490	 3.5780
 1.9500	 3.5920
 1.9510	 3.6070
 1.9520	 3.6210
 1.9530	 3.6360
 1.9540	 3.6510
 1.9550	 3.6670
 1.9560	 3.6840
 1.9570	 3.7020
 1.9580	 3.7230
 1.9590	 3.7420
 1.9600	 3.7620
 1.9610	 3.7810
 1.9620	 3.7990
 1.9630	 3.8170
 1.9640	 3.8400
 1.9650	 3.8650
 1.9660	 3.8890
 1.9670	 3.9110
 1.9680	 3.9340
 1.9690	 3.9520
 1.9700	 3.9750
 1.9710	 3.9990
 1.9720	 4.0240
 1.9730	 4.0490
 1.9740	 4.0760
 1.9750	 4.1030
 1.9760	 4.1320
 1.9770	 4.1600
 1.9780	 4.1870
 1.9790	 4.2160
 1.9800	 4.2440
 1.9810	 4.2740
 1.9820	 4.3060
 1.9830	 4.3380
 1.9840	 4.3700
 1.9850	 4.4020
 1.9860	 4.4340
 1.9870	 4.4690
 1.9880	 4.5060
 1.9890	 4.5390
 1.9900	 4.5750
 1.9910	 4.6140
 1.9920	 4.6500
 1.9930	 4.6850
 1.9940	 4.7220
 1.9950	 4.7590
 1.9960	 4.7960
 1.9970	 4.8350
 1.9980	 4.8730
 1.9990	 4.9110
 2.0000	 4.9490
 2.0010	 4.9870
 2.0020	 5.0270
 2.0030	 5.0660
 2.0040	 5.1070
 2.0050	 5.1480
 2.0060	 5.1900
 2.0070	 5.2310
 2.0080	 5.2740
 2.0090	 5.3160
 2.0100	 5.3590
 2.0110	 5.4010
 2.0120	 5.4410
 2.0130	 5.4810
 2.0140	 5.5210
 2.0150	 5.5620
 2.0160	 5.6050
 2.0170	 5.6480
 2.0180	 5.6900
 2.0190	 5.7330
 2.0200	 5.7740
 2.0210	 5.8150
 2.0220	 5.8550
 2.0230	 5.8940
 2.0240	 5.9350
 2.0250	 5.9760
 2.0260	 6.0170
 2.0270	 6.0580
 2.0280	 6.0990
 2.0290	 6.1370
 2.0300	 6.1750
 2.0310	 6.2120
 2.0320	 6.2460
 2.0330	 6.2830
 2.0340	 6.3200
 2.0350	 6.3590
 2.0360	 6.4020
 2.0370	 6.4410
 2.0380	 6.4780
 2.0390	 6.5150
 2.0400	 6.5490
 2.0410	 6.5830
 2.0420	 6.6190
 2.0430	 6.6540
 2.0440	 6.6880
 2.0450	 6.7220
 2.0460	 6.7560
 2.0470	 6.7880
 2.0480	 6.8210
 2.0490	 6.8540
 2.0500	 6.8870
 2.0510	 6.9200
 2.0520	 6.9540
 2.0530	 6.9890
 2.0540	 7.0230
 2.0550	 7.0550
 2.0560	 7.0890
 2.0570	 7.1220
 2.0580	 7.1550
 2.0590	 7.1910
 2.0600	 7.2290
 2.0610	 7.2650
 2.0620	 7.3040
 2.0630	 7.3380
 2.0640	 7.3660
 2.0650	 7.4010
 2.0660	 7.4350
 2.0670	 7.4720
 2.0680	 7.5150
 2.0690	 7.5540
 2.0700	 7.5890
 2.0710	 7.6250
 2.0720	 7.6610
 2.0730	 7.6950
 2.0740	 7.7310
 2.0750	 7.7700
 2.0760	 7.8060
 2.0770	 7.8410
 2.0780	 7.8780
 2.0790	 7.9130
 2.0800	 7.9490
 2.0810	 7.9840
 2.0820	 8.0200
 2.0830	 8.0540
 2.0840	 8.0890
 2.0850	 8.1240
 2.0860	 8.1580
 2.0870	 8.1890
 2.0880	 8.2240
 2.0890	 8.2580
 2.0900	 8.2920
 2.0910	 8.3260
 2.0920	 8.3590
 2.0930	 8.3930
 2.0940	 8.4250
 2.0950	 8.4600
 2.0960	 8.4960
 2.0970	 8.5310
 2.0980	 8.5640
 2.0990	 8.5980
 2.1000	 8.6290
 2.1010	 8.6620
 2.1020	 8.6970
 2.1030	 8.7310
 2.1040	 8.7660
 2.1050	 8.7990
 2.1060	 8.8310
 2.1070	 8.8600
 2.1080	 8.8910
 2.1090	 8.9190
 2.1100	 8.9520
 2.1110	 8.9900
 2.1120	 9.0220
 2.1130	 9.0540
 2.1140	 9.0840
 2.1150	 9.1070
 2.1160	 9.1360
 2.1170	 9.1670
 2.1180	 9.1980
 2.1190	 9.2310
 2.1200	 9.2630
 2.1210	 9.2930
 2.1220	 9.3250
 2.1230	 9.3560
 2.1240	 9.3880
 2.1250	 9.4180
 2.1260	 9.4470
 2.1270	 9.4760
 2.1280	 9.5070
 2.1290	 9.5360
 2.1300	 9.5640
 2.1310	 9.5900
 2.1320	 9.6110
 2.1330	 9.6360
 2.1340	 9.6640
 2.1350	 9.6890
 2.1360	 9.7160
 2.1370	 9.7400
 2.1380	 9.7610
 2.1390	 9.7830
 2.1400	 9.8050
 2.1410	 9.8280
 2.1420	 9.8540
 2.1430	 9.8830
 2.1440	 9.9080
 2.1450	 9.9320
 2.1460	 9.9560
 2.1470	 9.9760
 2.1480	 9.9980
 2.1490	10.0230
 2.1500	10.0460
 2.1510	10.0670
 2.1520	10.0880
 2.1530	10.1090
 2.1540	10.1290
 2.1550	10.1500
 2.1560	10.1700
 2.1570	10.1880
 2.1580	10.2060
 2.1590	10.2230
 2.1600	10.2410
 2.1610	10.2590
 2.1620	10.2760
 2.1630	10.2940
 2.1640	10.3120
 2.1650	10.3300
 2.1660	10.3490
 2.1670	10.3650
 2.1680	10.3770
 2.1690	10.3940
 2.1700	10.4110
 2.1710	10.4260
 2.1720	10.4430
 2.1730	10.4580
 2.1740	10.4700
 2.1750	10.4830
 2.1760	10.4950
 2.1770	10.5080
 2.1780	10.5190
 2.1790	10.5320
 2.1800	10.5460
 2.1810	10.5620
 2.1820	10.5800
 2.1830	10.5970
 2.1840	10.6150
 2.1850	10.6360
 2.1860	10.6540
 2.1870	10.6700
 2.1880	10.6870
 2.1890	10.7030
 2.1900	10.7200
 2.1910	10.7400
 2.1920	10.7540
 2.1930	10.7630
 2.1940	10.7740
 2.1950	10.7790
 2.1960	10.7900
 2.1970	10.8060
 2.1980	10.8200
 2.1990	10.8370
 2.2000	10.8510
 2.2010	10.8650
 2.2020	10.8780
 2.2030	10.8890
 2.2040	10.8990
 2.2050	10.9080
 2.2060	10.9180
 2.2070	10.9270
 2.2080	10.9360
 2.2090	10.9460
 2.2100	10.9570
 2.2110	10.9640
 2.2120	10.9690
 2.2130	10.9730
 2.2140	10.9740
 2.2150	10.9750
 2.2160	10.9780
 2.2170	10.9780
 2.2180	10.9770
 2.2190	10.9750
 2.2200	10.9690
 2.2210	10.9650
 2.2220	10.9640
 2.2230	10.9580
 2.2240	10.9530
 2.2250	10.9440
 2.2260	10.9320
 2.2270	10.9170
 2.2280	10.8970
 2.2290	10.8770
 2.2300	10.8510
 2.2310	10.8270
 2.2320	10.8060
 2.2330	10.7830
 2.2340	10.7600
 2.2350	10.7400
 2.2360	10.7100
 2.2370	10.6750
 2.2380	10.6420
 2.2390	10.6040
 2.2400	10.5710
 2.2410	10.5420
 2.2420	10.5080
 2.2430	10.4730
 2.2440	10.4370
 2.2450	10.3970
 2.2460	10.3600
 2.2470	10.3240
 2.2480	10.2880
 2.2490	10.2560
 2.2500	10.2200
 2.2510	10.1840
 2.2520	10.1460
 2.2530	10.1040
 2.2540	10.0640
 2.2550	10.0260
 2.2560	 9.9870
 2.2570	 9.9500
 2.2580	 9.9120
 2.2590	 9.8740
 2.2600	 9.8330
 2.2610	 9.7890
 2.2620	 9.7480
 2.2630	 9.7050
 2.2640	 9.6620
 2.2650	 9.6230
 2.2660	 9.5840
 2.2670	 9.5420
 2.2680	 9.4970
 2.2690	 9.4580
 2.2700	 9.4210
 2.2710	 9.3810
 2.2720	 9.3430
 2.2730	 9.3050
 2.2740	 9.2640
 2.2750	 9.2270
 2.2760	 9.1980
 2.2770	 9.1640
 2.2780	 9.1260
 2.2790	 9.0900
 2.2800	 9.0550
 2.2810	 9.0180
 2.2820	 8.9800
 2.2830	 8.9460
 2.2840	 8.9150
 2.2850	 8.8790
 2.2860	 8.8460
 2.2870	 8.8090
 2.2880	 8.7630
 2.2890	 8.7210
 2.2900	 8.6810
 2.2910	 8.6370
 2.2920	 8.5900
 2.2930	 8.5450
 2.2940	 8.5000
 2.2950	 8.4560
 2.2960	 8.4170
 2.2970	 8.3760
 2.2980	 8.3350
 2.2990	 8.2930
 2.3000	 8.2500
 2.3010	 8.2050
 2.3020	 8.1620
 2.3030	 8.1210
 2.3040	 8.0880
 2.3050	 8.0540
 2.3060	 8.0160
 2.3070	 7.9850
 2.3080	 7.9520
 2.3090	 7.9220
 2.3100	 7.8990
 2.3110	 7.8730
 2.3120	 7.8520
 2.3130	 7.8350
 2.3140	 7.8170
 2.3150	 7.8040
 2.3160	 7.7860
 2.3170	 7.7630
 2.3180	 7.7430
 2.3190	 7.7230
 2.3200	 7.7060
 2.3210	 7.6920
 2.3220	 7.6720
 2.3230	 7.6520
 2.3240	 7.6280
 2.3250	 7.5970
 2.3260	 7.5740
 2.3270	 7.5540
 2.3280	 7.5280
 2.3290	 7.5020
 2.3300	 7.4700
 2.3310	 7.4290
 2.3320	 7.3960
 2.3330	 7.3660
 2.3340	 7.3320
 2.3350	 7.2940
 2.3360	 7.2590
 2.3370	 7.2220
 2.3380	 7.1870
 2.3390	 7.1550
 2.3400	 7.1240
 2.3410	 7.0940
 2.3420	 7.0620
 2.3430	 7.0330
 2.3440	 7.0010
 2.3450	 6.9580
 2.3460	 6.9250
 2.3470	 6.8960
 2.3480	 6.8670
 2.3490	 6.8450
 2.3500	 6.8190
 2.3510	 6.7900
 2.3520	 6.7630
 2.3530	 6.7380
 2.3540	 6.7140
 2.3550	 6.6930
 2.3560	 6.6670
 2.3570	 6.6420
 2.3580	 6.6210
 2.3590	 6.5980
 2.3600	 6.5680
 2.3610	 6.5420
 2.3620	 6.5200
 2.3630	 6.4900
 2.3640	 6.4660
 2.3650	 6.4420
 2.3660	 6.4030
 2.3670	 6.3740
 2.3680	 6.3530
 2.3690	 6.3310
 2.3700	 6.3100
 2.3710	 6.2860
 2.3720	 6.2570
 2.3730	 6.2190
 2.3740	 6.1880
 2.3750	 6.1650
 2.3760	 6.1390
 2.3770	 6.1180
 2.3780	 6.0960
 2.3790	 6.0640
 2.3800	 6.0270
 2.3810	 5.9890
 2.3820	 5.9510
 2.3830	 5.9170
 2.3840	 5.8850
 2.3850	 5.8520
 2.3860	 5.8270
 2.3870	 5.8140
 2.3880	 5.8010
 2.3890	 5.7850
 2.3900	 5.7630
 2.3910	 5.7310
 2.3920	 5.6970
 2.3930	 5.6630
 2.3940	 5.6350
 2.3950	 5.6050
 2.3960	 5.5760
 2.3970	 5.5530
 2.3980	 5.5220
 2.3990	 5.4900
 2.4000	 5.4560
 2.4010	 5.4270
 2.4020	 5.4120
 2.4030	 5.3980
 2.4040	 5.3780
 2.4050	 5.3570
 2.4060	 5.3220
 2.4070	 5.2770
 2.4080	 5.2480
 2.4090	 5.2190
 2.4100	 5.1880
 2.4110	 5.1720
 2.4120	 5.1490
 2.4130	 5.1230
 2.4140	 5.1000
 2.4150	 5.0660
 2.4160	 5.0320
 2.4170	 5.0010
 2.4180	 4.9790
 2.4190	 4.9630
 2.4200	 4.9450
 2.4210	 4.9200
 2.4220	 4.8920
 2.4230	 4.8690
 2.4240	 4.8440
 2.4250	 4.8270
 2.4260	 4.8010
 2.4270	 4.7710
 2.4280	 4.7480
 2.4290	 4.7270
 2.4300	 4.7160
 2.4310	 4.7010
 2.4320	 4.6810
 2.4330	 4.6610
 2.4340	 4.6320
 2.4350	 4.6020
 2.4360	 4.5770
 2.4370	 4.5560
 2.4380	 4.5350
 2.4390	 4.5110
 2.4400	 4.4810
 2.4410	 4.4500
 2.4420	 4.4190
 2.4430	 4.3990
 2.4440	 4.4040
 2.4450	 4.3940
 2.4460	 4.3800
 2.4470	 4.3710
 2.4480	 4.3320
 2.4490	 4.3010
 2.4500	 4.2740
 2.4510	 4.2360
 2.4520	 4.2170
 2.4530	 4.2050
 2.4540	 4.1850
 2.4550	 4.1740
 2.4560	 4.1630
 2.4570	 4.1290
 2.4580	 4.1050
 2.4590	 4.0890
 2.4600	 4.0560
 2.4610	 4.0510
 2.4620	 4.0650
 2.4630	 4.0590
 2.4640	 4.0570
 2.4650	 4.0510
 2.4660	 4.0210
 2.4670	 3.9870
 2.4680	 3.9700
 2.4690	 3.9200
 2.4700	 3.9030
 2.4710	 3.9300
 2.4720	 3.9190
 2.4730	 3.9140
 2.4740	 3.8970
 2.4750	 3.8280
 2.4760	 3.8030
 2.4770	 3.7940
 2.4780	 3.7880
 2.4790	 3.8120
 2.4800	 3.8010
 2.4810	 3.7780
 2.4820	 3.7750
 2.4830	 3.7640
 2.4840	 3.7810
 2.4850	 3.7800
 2.4860	 3.7480
 2.4870	 3.7410
 2.4880	 3.7290
 2.4890	 3.7010
 2.4900	 3.7030
 2.4910	 3.7270
 2.4920	 3.7200
 2.4930	 3.7370
 2.4940	 3.7760
 2.4950	 3.7270
 2.4960	 3.7160
 2.4970	 3.7210
 2.4980	 3.6620
 2.4990	 3.6760
 2.5000	 3.6630
