Name: Ficus platypoda
Type: vegetation
Class: Tree
Genus: Ficus
Species: platypoda
Sample No.: JPL122
Owner: JPL
Wavelength Range: VSWIR
Origin: 34.12559; -118.11498;; WGS84
Collection Date: 9/7/2016
Description: Samples were collected at the Huntington Garden in San Marino California as part of a JPL Subcontract studying HyTES imagery. Samples were taken to JPL and processed within 48 hours of collection. The same leaves were processed in the Nicolet and then measured using the ASD.
Measurement: Bidirectional reflectance
First Column: X
Second Column: Y
X Units: Wavelength (micrometer)
Y Units: Reflectance (percentage)
First X Value: 0.35
Last X Value: 2.5
Number of X Values: 2151
Additional Information: vegetation.tree.ficus.platypoda.vswir.jpl122.jpl.asd.ancillary.txt

 0.3500	11.7990
 0.3510	11.8660
 0.3520	11.7760
 0.3530	11.6750
 0.3540	11.6890
 0.3550	11.6560
 0.3560	11.6230
 0.3570	11.5930
 0.3580	11.5530
 0.3590	11.5230
 0.3600	11.5090
 0.3610	11.4990
 0.3620	11.4630
 0.3630	11.4170
 0.3640	11.4020
 0.3650	11.4300
 0.3660	11.4030
 0.3670	11.3440
 0.3680	11.2960
 0.3690	11.3060
 0.3700	11.3250
 0.3710	11.3000
 0.3720	11.2470
 0.3730	11.3060
 0.3740	11.3660
 0.3750	11.3500
 0.3760	11.2390
 0.3770	11.2230
 0.3780	11.2330
 0.3790	11.2330
 0.3800	11.2250
 0.3810	11.2360
 0.3820	11.2320
 0.3830	11.2000
 0.3840	11.1980
 0.3850	11.1950
 0.3860	11.1790
 0.3870	11.1520
 0.3880	11.1490
 0.3890	11.1200
 0.3900	11.0760
 0.3910	11.0950
 0.3920	11.1230
 0.3930	11.1250
 0.3940	11.0950
 0.3950	11.0780
 0.3960	11.0660
 0.3970	11.0600
 0.3980	11.0600
 0.3990	11.0480
 0.4000	11.0320
 0.4010	11.0210
 0.4020	11.0170
 0.4030	11.0190
 0.4040	11.0200
 0.4050	11.0180
 0.4060	11.0110
 0.4070	11.0140
 0.4080	11.0210
 0.4090	11.0140
 0.4100	11.0280
 0.4110	11.0350
 0.4120	11.0260
 0.4130	11.0290
 0.4140	11.0350
 0.4150	11.0420
 0.4160	11.0530
 0.4170	11.0520
 0.4180	11.0620
 0.4190	11.0840
 0.4200	11.0950
 0.4210	11.0920
 0.4220	11.0900
 0.4230	11.0970
 0.4240	11.0990
 0.4250	11.0990
 0.4260	11.1010
 0.4270	11.1060
 0.4280	11.1110
 0.4290	11.1090
 0.4300	11.0940
 0.4310	11.0640
 0.4320	11.0270
 0.4330	10.9950
 0.4340	10.9760
 0.4350	10.9650
 0.4360	10.9630
 0.4370	10.9750
 0.4380	11.0050
 0.4390	11.0480
 0.4400	11.0940
 0.4410	11.1350
 0.4420	11.1570
 0.4430	11.1690
 0.4440	11.1810
 0.4450	11.1960
 0.4460	11.1890
 0.4470	11.1860
 0.4480	11.1960
 0.4490	11.2010
 0.4500	11.2050
 0.4510	11.2080
 0.4520	11.2090
 0.4530	11.2140
 0.4540	11.2210
 0.4550	11.2270
 0.4560	11.2310
 0.4570	11.2280
 0.4580	11.2270
 0.4590	11.2310
 0.4600	11.2310
 0.4610	11.2360
 0.4620	11.2390
 0.4630	11.2330
 0.4640	11.2340
 0.4650	11.2390
 0.4660	11.2430
 0.4670	11.2430
 0.4680	11.2470
 0.4690	11.2490
 0.4700	11.2460
 0.4710	11.2450
 0.4720	11.2480
 0.4730	11.2520
 0.4740	11.2570
 0.4750	11.2610
 0.4760	11.2650
 0.4770	11.2670
 0.4780	11.2650
 0.4790	11.2620
 0.4800	11.2570
 0.4810	11.2520
 0.4820	11.2450
 0.4830	11.2320
 0.4840	11.2140
 0.4850	11.1900
 0.4860	11.1740
 0.4870	11.1680
 0.4880	11.1690
 0.4890	11.1760
 0.4900	11.1840
 0.4910	11.1960
 0.4920	11.2150
 0.4930	11.2260
 0.4940	11.2390
 0.4950	11.2560
 0.4960	11.2650
 0.4970	11.2800
 0.4980	11.3050
 0.4990	11.3330
 0.5000	11.3510
 0.5010	11.3660
 0.5020	11.3870
 0.5030	11.4170
 0.5040	11.4460
 0.5050	11.4730
 0.5060	11.5020
 0.5070	11.5360
 0.5080	11.5710
 0.5090	11.6100
 0.5100	11.6570
 0.5110	11.7120
 0.5120	11.7720
 0.5130	11.8380
 0.5140	11.9110
 0.5150	11.9960
 0.5160	12.0890
 0.5170	12.1830
 0.5180	12.2940
 0.5190	12.4110
 0.5200	12.5310
 0.5210	12.6580
 0.5220	12.7900
 0.5230	12.9260
 0.5240	13.0630
 0.5250	13.1980
 0.5260	13.3260
 0.5270	13.4490
 0.5280	13.5690
 0.5290	13.6800
 0.5300	13.7800
 0.5310	13.8710
 0.5320	13.9590
 0.5330	14.0350
 0.5340	14.0980
 0.5350	14.1530
 0.5360	14.1980
 0.5370	14.2310
 0.5380	14.2480
 0.5390	14.2460
 0.5400	14.2080
 0.5410	14.1410
 0.5420	14.0640
 0.5430	14.0150
 0.5440	14.0110
 0.5450	14.0540
 0.5460	14.1320
 0.5470	14.2290
 0.5480	14.3130
 0.5490	14.3700
 0.5500	14.3970
 0.5510	14.4140
 0.5520	14.4240
 0.5530	14.4280
 0.5540	14.4310
 0.5550	14.4220
 0.5560	14.3970
 0.5570	14.3540
 0.5580	14.2980
 0.5590	14.2320
 0.5600	14.1590
 0.5610	14.0800
 0.5620	13.9940
 0.5630	13.9050
 0.5640	13.8160
 0.5650	13.7250
 0.5660	13.6350
 0.5670	13.5440
 0.5680	13.4510
 0.5690	13.3610
 0.5700	13.2720
 0.5710	13.1830
 0.5720	13.0960
 0.5730	13.0140
 0.5740	12.9370
 0.5750	12.8620
 0.5760	12.7910
 0.5770	12.7220
 0.5780	12.6550
 0.5790	12.5810
 0.5800	12.5160
 0.5810	12.4620
 0.5820	12.4180
 0.5830	12.3770
 0.5840	12.3480
 0.5850	12.3280
 0.5860	12.3040
 0.5870	12.2730
 0.5880	12.2460
 0.5890	12.2300
 0.5900	12.2170
 0.5910	12.2050
 0.5920	12.1920
 0.5930	12.1770
 0.5940	12.1700
 0.5950	12.1680
 0.5960	12.1680
 0.5970	12.1610
 0.5980	12.1490
 0.5990	12.1360
 0.6000	12.1230
 0.6010	12.1150
 0.6020	12.1060
 0.6030	12.0940
 0.6040	12.0700
 0.6050	12.0460
 0.6060	12.0200
 0.6070	11.9910
 0.6080	11.9550
 0.6090	11.8840
 0.6100	11.7670
 0.6110	11.6220
 0.6120	11.5980
 0.6130	11.6400
 0.6140	11.6890
 0.6150	11.6940
 0.6160	11.6910
 0.6170	11.6820
 0.6180	11.6620
 0.6190	11.6390
 0.6200	11.6140
 0.6210	11.5930
 0.6220	11.5850
 0.6230	11.5810
 0.6240	11.5770
 0.6250	11.5730
 0.6260	11.5710
 0.6270	11.5680
 0.6280	11.5640
 0.6290	11.5560
 0.6300	11.5390
 0.6310	11.5280
 0.6320	11.5310
 0.6330	11.5400
 0.6340	11.5400
 0.6350	11.5320
 0.6360	11.5190
 0.6370	11.5060
 0.6380	11.4900
 0.6390	11.4730
 0.6400	11.4550
 0.6410	11.4390
 0.6420	11.4210
 0.6430	11.4030
 0.6440	11.3850
 0.6450	11.3710
 0.6460	11.3590
 0.6470	11.3470
 0.6480	11.3380
 0.6490	11.3270
 0.6500	11.3160
 0.6510	11.3130
 0.6520	11.3140
 0.6530	11.3150
 0.6540	11.3130
 0.6550	11.3150
 0.6560	11.3160
 0.6570	11.3150
 0.6580	11.3100
 0.6590	11.3100
 0.6600	11.3110
 0.6610	11.3100
 0.6620	11.3050
 0.6630	11.3060
 0.6640	11.3110
 0.6650	11.3200
 0.6660	11.3280
 0.6670	11.3380
 0.6680	11.3500
 0.6690	11.3650
 0.6700	11.3840
 0.6710	11.4050
 0.6720	11.4280
 0.6730	11.4540
 0.6740	11.4810
 0.6750	11.5100
 0.6760	11.5400
 0.6770	11.5760
 0.6780	11.6130
 0.6790	11.6510
 0.6800	11.6920
 0.6810	11.7340
 0.6820	11.7780
 0.6830	11.8200
 0.6840	11.8610
 0.6850	11.8980
 0.6860	11.9340
 0.6870	11.9700
 0.6880	12.0090
 0.6890	12.0560
 0.6900	12.1130
 0.6910	12.1870
 0.6920	12.2810
 0.6930	12.4050
 0.6940	12.5670
 0.6950	12.7730
 0.6960	13.0300
 0.6970	13.3400
 0.6980	13.7080
 0.6990	14.1350
 0.7000	14.6210
 0.7010	15.1630
 0.7020	15.7570
 0.7030	16.3990
 0.7040	17.0850
 0.7050	17.8110
 0.7060	18.5740
 0.7070	19.3720
 0.7080	20.2050
 0.7090	21.0740
 0.7100	21.9820
 0.7110	22.9200
 0.7120	23.8840
 0.7130	24.8780
 0.7140	25.9020
 0.7150	26.9540
 0.7160	28.0270
 0.7170	29.1190
 0.7180	30.2290
 0.7190	31.3540
 0.7200	32.4900
 0.7210	33.6350
 0.7220	34.7810
 0.7230	35.9240
 0.7240	37.0630
 0.7250	38.1890
 0.7260	39.2980
 0.7270	40.3850
 0.7280	41.4500
 0.7290	42.4860
 0.7300	43.4910
 0.7310	44.4600
 0.7320	45.3970
 0.7330	46.2980
 0.7340	47.1600
 0.7350	47.9840
 0.7360	48.7680
 0.7370	49.5110
 0.7380	50.2140
 0.7390	50.8760
 0.7400	51.5000
 0.7410	52.0850
 0.7420	52.6300
 0.7430	53.1390
 0.7440	53.6110
 0.7450	54.0480
 0.7460	54.4480
 0.7470	54.8190
 0.7480	55.1590
 0.7490	55.4680
 0.7500	55.7510
 0.7510	56.0080
 0.7520	56.2410
 0.7530	56.4530
 0.7540	56.6440
 0.7550	56.8190
 0.7560	56.9770
 0.7570	57.1150
 0.7580	57.2420
 0.7590	57.3590
 0.7600	57.4640
 0.7610	57.5580
 0.7620	57.6400
 0.7630	57.7130
 0.7640	57.7800
 0.7650	57.8400
 0.7660	57.8930
 0.7670	57.9400
 0.7680	57.9780
 0.7690	58.0150
 0.7700	58.0480
 0.7710	58.0780
 0.7720	58.1040
 0.7730	58.1280
 0.7740	58.1490
 0.7750	58.1660
 0.7760	58.1860
 0.7770	58.2030
 0.7780	58.2180
 0.7790	58.2330
 0.7800	58.2490
 0.7810	58.2640
 0.7820	58.2770
 0.7830	58.2870
 0.7840	58.2970
 0.7850	58.3060
 0.7860	58.3140
 0.7870	58.3180
 0.7880	58.3240
 0.7890	58.3320
 0.7900	58.3370
 0.7910	58.3370
 0.7920	58.3390
 0.7930	58.3420
 0.7940	58.3410
 0.7950	58.3410
 0.7960	58.3410
 0.7970	58.3400
 0.7980	58.3370
 0.7990	58.3320
 0.8000	58.3260
 0.8010	58.3190
 0.8020	58.3150
 0.8030	58.3080
 0.8040	58.3000
 0.8050	58.2930
 0.8060	58.2830
 0.8070	58.2710
 0.8080	58.2590
 0.8090	58.2500
 0.8100	58.2400
 0.8110	58.2280
 0.8120	58.2150
 0.8130	58.2020
 0.8140	58.1890
 0.8150	58.1750
 0.8160	58.1610
 0.8170	58.1490
 0.8180	58.1350
 0.8190	58.1210
 0.8200	58.1080
 0.8210	58.0910
 0.8220	58.0770
 0.8230	58.0660
 0.8240	58.0480
 0.8250	58.0300
 0.8260	58.0140
 0.8270	58.0000
 0.8280	57.9830
 0.8290	57.9680
 0.8300	57.9510
 0.8310	57.9300
 0.8320	57.9140
 0.8330	57.9010
 0.8340	57.8900
 0.8350	57.8780
 0.8360	57.8650
 0.8370	57.8540
 0.8380	57.8460
 0.8390	57.8390
 0.8400	57.8300
 0.8410	57.8210
 0.8420	57.8140
 0.8430	57.8100
 0.8440	57.8060
 0.8450	57.8000
 0.8460	57.7930
 0.8470	57.7930
 0.8480	57.7930
 0.8490	57.7910
 0.8500	57.7870
 0.8510	57.7840
 0.8520	57.7830
 0.8530	57.7820
 0.8540	57.7780
 0.8550	57.7810
 0.8560	57.7830
 0.8570	57.7850
 0.8580	57.7910
 0.8590	57.7910
 0.8600	57.7900
 0.8610	57.7940
 0.8620	57.8010
 0.8630	57.8060
 0.8640	57.8110
 0.8650	57.8160
 0.8660	57.8180
 0.8670	57.8230
 0.8680	57.8300
 0.8690	57.8360
 0.8700	57.8430
 0.8710	57.8530
 0.8720	57.8610
 0.8730	57.8670
 0.8740	57.8760
 0.8750	57.8850
 0.8760	57.8940
 0.8770	57.9060
 0.8780	57.9160
 0.8790	57.9250
 0.8800	57.9330
 0.8810	57.9410
 0.8820	57.9530
 0.8830	57.9650
 0.8840	57.9730
 0.8850	57.9830
 0.8860	57.9900
 0.8870	57.9970
 0.8880	58.0070
 0.8890	58.0190
 0.8900	58.0300
 0.8910	58.0400
 0.8920	58.0480
 0.8930	58.0610
 0.8940	58.0710
 0.8950	58.0780
 0.8960	58.0880
 0.8970	58.0980
 0.8980	58.1090
 0.8990	58.1200
 0.9000	58.1260
 0.9010	58.1360
 0.9020	58.1440
 0.9030	58.1500
 0.9040	58.1560
 0.9050	58.1630
 0.9060	58.1710
 0.9070	58.1790
 0.9080	58.1860
 0.9090	58.1910
 0.9100	58.1930
 0.9110	58.1930
 0.9120	58.2010
 0.9130	58.2060
 0.9140	58.2080
 0.9150	58.2110
 0.9160	58.2060
 0.9170	58.1990
 0.9180	58.1970
 0.9190	58.1990
 0.9200	58.1880
 0.9210	58.1790
 0.9220	58.1750
 0.9230	58.1710
 0.9240	58.1570
 0.9250	58.1400
 0.9260	58.1240
 0.9270	58.1060
 0.9280	58.0910
 0.9290	58.0750
 0.9300	58.0520
 0.9310	58.0260
 0.9320	58.0010
 0.9330	57.9740
 0.9340	57.9410
 0.9350	57.9050
 0.9360	57.8810
 0.9370	57.8520
 0.9380	57.8130
 0.9390	57.7850
 0.9400	57.7490
 0.9410	57.7110
 0.9420	57.6730
 0.9430	57.6260
 0.9440	57.5740
 0.9450	57.5220
 0.9460	57.4730
 0.9470	57.4150
 0.9480	57.3520
 0.9490	57.2850
 0.9500	57.2100
 0.9510	57.1320
 0.9520	57.0480
 0.9530	56.9660
 0.9540	56.8940
 0.9550	56.8240
 0.9560	56.7490
 0.9570	56.6730
 0.9580	56.6010
 0.9590	56.5240
 0.9600	56.4700
 0.9610	56.4260
 0.9620	56.3700
 0.9630	56.3270
 0.9640	56.2920
 0.9650	56.2610
 0.9660	56.2330
 0.9670	56.2070
 0.9680	56.1840
 0.9690	56.1640
 0.9700	56.1440
 0.9710	56.1260
 0.9720	56.1070
 0.9730	56.0950
 0.9740	56.0970
 0.9750	56.0930
 0.9760	56.0780
 0.9770	56.0640
 0.9780	56.0660
 0.9790	56.0710
 0.9800	56.0760
 0.9810	56.0740
 0.9820	56.0690
 0.9830	56.0790
 0.9840	56.0930
 0.9850	56.1010
 0.9860	56.1030
 0.9870	56.1240
 0.9880	56.1430
 0.9890	56.1550
 0.9900	56.1660
 0.9910	56.1920
 0.9920	56.2100
 0.9930	56.2160
 0.9940	56.2240
 0.9950	56.2530
 0.9960	56.2780
 0.9970	56.3000
 0.9980	56.3290
 0.9990	56.3460
 1.0000	56.3680
 1.0010	56.2650
 1.0020	56.2930
 1.0030	56.3180
 1.0040	56.3440
 1.0050	56.3710
 1.0060	56.3970
 1.0070	56.4250
 1.0080	56.4520
 1.0090	56.4790
 1.0100	56.5040
 1.0110	56.5270
 1.0120	56.5510
 1.0130	56.5730
 1.0140	56.5980
 1.0150	56.6230
 1.0160	56.6500
 1.0170	56.6780
 1.0180	56.7060
 1.0190	56.7320
 1.0200	56.7560
 1.0210	56.7790
 1.0220	56.8020
 1.0230	56.8260
 1.0240	56.8500
 1.0250	56.8770
 1.0260	56.9100
 1.0270	56.9330
 1.0280	56.9500
 1.0290	56.9710
 1.0300	56.9850
 1.0310	57.0050
 1.0320	57.0310
 1.0330	57.0620
 1.0340	57.0840
 1.0350	57.1070
 1.0360	57.1300
 1.0370	57.1470
 1.0380	57.1650
 1.0390	57.1810
 1.0400	57.1970
 1.0410	57.2100
 1.0420	57.2250
 1.0430	57.2420
 1.0440	57.2570
 1.0450	57.2710
 1.0460	57.2860
 1.0470	57.3000
 1.0480	57.3130
 1.0490	57.3250
 1.0500	57.3390
 1.0510	57.3540
 1.0520	57.3640
 1.0530	57.3760
 1.0540	57.3880
 1.0550	57.3980
 1.0560	57.4060
 1.0570	57.4140
 1.0580	57.4220
 1.0590	57.4290
 1.0600	57.4350
 1.0610	57.4420
 1.0620	57.4470
 1.0630	57.4530
 1.0640	57.4570
 1.0650	57.4630
 1.0660	57.4690
 1.0670	57.4740
 1.0680	57.4790
 1.0690	57.4830
 1.0700	57.4870
 1.0710	57.4910
 1.0720	57.4940
 1.0730	57.4960
 1.0740	57.4970
 1.0750	57.4950
 1.0760	57.4960
 1.0770	57.4980
 1.0780	57.4980
 1.0790	57.4980
 1.0800	57.4980
 1.0810	57.4970
 1.0820	57.4960
 1.0830	57.4960
 1.0840	57.4930
 1.0850	57.4880
 1.0860	57.4830
 1.0870	57.4800
 1.0880	57.4790
 1.0890	57.4750
 1.0900	57.4740
 1.0910	57.4700
 1.0920	57.4630
 1.0930	57.4560
 1.0940	57.4470
 1.0950	57.4410
 1.0960	57.4360
 1.0970	57.4300
 1.0980	57.4270
 1.0990	57.4200
 1.1000	57.4110
 1.1010	57.4010
 1.1020	57.3890
 1.1030	57.3760
 1.1040	57.3660
 1.1050	57.3540
 1.1060	57.3430
 1.1070	57.3340
 1.1080	57.3230
 1.1090	57.3110
 1.1100	57.2980
 1.1110	57.2850
 1.1120	57.2700
 1.1130	57.2550
 1.1140	57.2370
 1.1150	57.2190
 1.1160	57.1980
 1.1170	57.1760
 1.1180	57.1510
 1.1190	57.1270
 1.1200	57.1000
 1.1210	57.0690
 1.1220	57.0330
 1.1230	56.9900
 1.1240	56.9430
 1.1250	56.8900
 1.1260	56.8320
 1.1270	56.7670
 1.1280	56.7000
 1.1290	56.6210
 1.1300	56.5360
 1.1310	56.4420
 1.1320	56.3400
 1.1330	56.2290
 1.1340	56.1110
 1.1350	55.9830
 1.1360	55.8450
 1.1370	55.6990
 1.1380	55.5480
 1.1390	55.3900
 1.1400	55.2270
 1.1410	55.0600
 1.1420	54.8890
 1.1430	54.7180
 1.1440	54.5490
 1.1450	54.3780
 1.1460	54.2130
 1.1470	54.0470
 1.1480	53.8900
 1.1490	53.7370
 1.1500	53.5930
 1.1510	53.4560
 1.1520	53.3290
 1.1530	53.2100
 1.1540	53.1020
 1.1550	53.0050
 1.1560	52.9180
 1.1570	52.8390
 1.1580	52.7690
 1.1590	52.7080
 1.1600	52.6520
 1.1610	52.6010
 1.1620	52.5590
 1.1630	52.5200
 1.1640	52.4850
 1.1650	52.4550
 1.1660	52.4330
 1.1670	52.4100
 1.1680	52.3910
 1.1690	52.3730
 1.1700	52.3570
 1.1710	52.3410
 1.1720	52.3250
 1.1730	52.3110
 1.1740	52.2980
 1.1750	52.2840
 1.1760	52.2710
 1.1770	52.2570
 1.1780	52.2390
 1.1790	52.2230
 1.1800	52.2070
 1.1810	52.1880
 1.1820	52.1710
 1.1830	52.1540
 1.1840	52.1360
 1.1850	52.1200
 1.1860	52.1030
 1.1870	52.0870
 1.1880	52.0720
 1.1890	52.0580
 1.1900	52.0460
 1.1910	52.0350
 1.1920	52.0240
 1.1930	52.0130
 1.1940	52.0050
 1.1950	51.9960
 1.1960	51.9920
 1.1970	51.9890
 1.1980	51.9880
 1.1990	51.9890
 1.2000	51.9900
 1.2010	51.9940
 1.2020	52.0010
 1.2030	52.0100
 1.2040	52.0210
 1.2050	52.0310
 1.2060	52.0410
 1.2070	52.0540
 1.2080	52.0690
 1.2090	52.0880
 1.2100	52.1090
 1.2110	52.1310
 1.2120	52.1550
 1.2130	52.1790
 1.2140	52.2040
 1.2150	52.2310
 1.2160	52.2580
 1.2170	52.2870
 1.2180	52.3190
 1.2190	52.3530
 1.2200	52.3870
 1.2210	52.4230
 1.2220	52.4570
 1.2230	52.4920
 1.2240	52.5280
 1.2250	52.5630
 1.2260	52.5980
 1.2270	52.6330
 1.2280	52.6650
 1.2290	52.6970
 1.2300	52.7300
 1.2310	52.7600
 1.2320	52.7890
 1.2330	52.8180
 1.2340	52.8460
 1.2350	52.8720
 1.2360	52.8960
 1.2370	52.9200
 1.2380	52.9440
 1.2390	52.9660
 1.2400	52.9870
 1.2410	53.0090
 1.2420	53.0280
 1.2430	53.0480
 1.2440	53.0690
 1.2450	53.0900
 1.2460	53.1090
 1.2470	53.1260
 1.2480	53.1420
 1.2490	53.1570
 1.2500	53.1710
 1.2510	53.1850
 1.2520	53.1980
 1.2530	53.2110
 1.2540	53.2220
 1.2550	53.2320
 1.2560	53.2400
 1.2570	53.2480
 1.2580	53.2540
 1.2590	53.2590
 1.2600	53.2630
 1.2610	53.2660
 1.2620	53.2680
 1.2630	53.2690
 1.2640	53.2700
 1.2650	53.2710
 1.2660	53.2690
 1.2670	53.2630
 1.2680	53.2570
 1.2690	53.2480
 1.2700	53.2380
 1.2710	53.2280
 1.2720	53.2160
 1.2730	53.2030
 1.2740	53.1880
 1.2750	53.1730
 1.2760	53.1570
 1.2770	53.1390
 1.2780	53.1170
 1.2790	53.0930
 1.2800	53.0680
 1.2810	53.0390
 1.2820	53.0110
 1.2830	52.9820
 1.2840	52.9500
 1.2850	52.9170
 1.2860	52.8830
 1.2870	52.8460
 1.2880	52.8040
 1.2890	52.7620
 1.2900	52.7180
 1.2910	52.6710
 1.2920	52.6220
 1.2930	52.5720
 1.2940	52.5190
 1.2950	52.4640
 1.2960	52.4070
 1.2970	52.3490
 1.2980	52.2870
 1.2990	52.2210
 1.3000	52.1530
 1.3010	52.0810
 1.3020	52.0060
 1.3030	51.9320
 1.3040	51.8540
 1.3050	51.7730
 1.3060	51.6880
 1.3070	51.5990
 1.3080	51.5080
 1.3090	51.4150
 1.3100	51.3180
 1.3110	51.2180
 1.3120	51.1160
 1.3130	51.0120
 1.3140	50.9020
 1.3150	50.7900
 1.3160	50.6740
 1.3170	50.5550
 1.3180	50.4310
 1.3190	50.3050
 1.3200	50.1770
 1.3210	50.0440
 1.3220	49.9090
 1.3230	49.7710
 1.3240	49.6280
 1.3250	49.4850
 1.3260	49.3390
 1.3270	49.1880
 1.3280	49.0350
 1.3290	48.8780
 1.3300	48.7190
 1.3310	48.5590
 1.3320	48.3950
 1.3330	48.2320
 1.3340	48.0670
 1.3350	47.9010
 1.3360	47.7360
 1.3370	47.5700
 1.3380	47.4050
 1.3390	47.2400
 1.3400	47.0750
 1.3410	46.9130
 1.3420	46.7520
 1.3430	46.5920
 1.3440	46.4360
 1.3450	46.2790
 1.3460	46.1230
 1.3470	45.9700
 1.3480	45.8170
 1.3490	45.6660
 1.3500	45.5190
 1.3510	45.3730
 1.3520	45.2260
 1.3530	45.0810
 1.3540	44.9340
 1.3550	44.7860
 1.3560	44.6380
 1.3570	44.4890
 1.3580	44.3380
 1.3590	44.1830
 1.3600	44.0250
 1.3610	43.8620
 1.3620	43.6910
 1.3630	43.5160
 1.3640	43.3320
 1.3650	43.1380
 1.3660	42.9370
 1.3670	42.7240
 1.3680	42.4970
 1.3690	42.2570
 1.3700	41.9990
 1.3710	41.7260
 1.3720	41.4350
 1.3730	41.1230
 1.3740	40.7940
 1.3750	40.4450
 1.3760	40.0690
 1.3770	39.6700
 1.3780	39.2400
 1.3790	38.7830
 1.3800	38.3000
 1.3810	37.7860
 1.3820	37.2530
 1.3830	36.6960
 1.3840	36.1180
 1.3850	35.5180
 1.3860	34.9050
 1.3870	34.2670
 1.3880	33.6300
 1.3890	32.9820
 1.3900	32.3260
 1.3910	31.6740
 1.3920	31.0200
 1.3930	30.3650
 1.3940	29.7200
 1.3950	29.0780
 1.3960	28.4490
 1.3970	27.8370
 1.3980	27.2410
 1.3990	26.6710
 1.4000	26.1210
 1.4010	25.5890
 1.4020	25.0850
 1.4030	24.6010
 1.4040	24.1430
 1.4050	23.7140
 1.4060	23.3070
 1.4070	22.9300
 1.4080	22.5750
 1.4090	22.2410
 1.4100	21.9330
 1.4110	21.6440
 1.4120	21.3760
 1.4130	21.1290
 1.4140	20.9000
 1.4150	20.6910
 1.4160	20.4990
 1.4170	20.3210
 1.4180	20.1580
 1.4190	20.0070
 1.4200	19.8670
 1.4210	19.7410
 1.4220	19.6250
 1.4230	19.5210
 1.4240	19.4260
 1.4250	19.3380
 1.4260	19.2570
 1.4270	19.1840
 1.4280	19.1170
 1.4290	19.0570
 1.4300	19.0030
 1.4310	18.9550
 1.4320	18.9140
 1.4330	18.8760
 1.4340	18.8440
 1.4350	18.8160
 1.4360	18.7920
 1.4370	18.7720
 1.4380	18.7560
 1.4390	18.7450
 1.4400	18.7360
 1.4410	18.7300
 1.4420	18.7270
 1.4430	18.7260
 1.4440	18.7280
 1.4450	18.7320
 1.4460	18.7380
 1.4470	18.7450
 1.4480	18.7550
 1.4490	18.7660
 1.4500	18.7800
 1.4510	18.7940
 1.4520	18.8100
 1.4530	18.8260
 1.4540	18.8450
 1.4550	18.8670
 1.4560	18.8910
 1.4570	18.9170
 1.4580	18.9480
 1.4590	18.9810
 1.4600	19.0180
 1.4610	19.0590
 1.4620	19.1030
 1.4630	19.1530
 1.4640	19.2060
 1.4650	19.2640
 1.4660	19.3280
 1.4670	19.3950
 1.4680	19.4670
 1.4690	19.5440
 1.4700	19.6260
 1.4710	19.7120
 1.4720	19.8020
 1.4730	19.8960
 1.4740	19.9940
 1.4750	20.0940
 1.4760	20.1970
 1.4770	20.3030
 1.4780	20.4120
 1.4790	20.5250
 1.4800	20.6380
 1.4810	20.7540
 1.4820	20.8730
 1.4830	20.9910
 1.4840	21.1110
 1.4850	21.2330
 1.4860	21.3570
 1.4870	21.4840
 1.4880	21.6110
 1.4890	21.7390
 1.4900	21.8680
 1.4910	21.9980
 1.4920	22.1300
 1.4930	22.2650
 1.4940	22.3990
 1.4950	22.5350
 1.4960	22.6700
 1.4970	22.8050
 1.4980	22.9410
 1.4990	23.0770
 1.5000	23.2150
 1.5010	23.3550
 1.5020	23.4940
 1.5030	23.6350
 1.5040	23.7750
 1.5050	23.9130
 1.5060	24.0540
 1.5070	24.1950
 1.5080	24.3360
 1.5090	24.4790
 1.5100	24.6200
 1.5110	24.7610
 1.5120	24.9030
 1.5130	25.0430
 1.5140	25.1840
 1.5150	25.3240
 1.5160	25.4640
 1.5170	25.6040
 1.5180	25.7440
 1.5190	25.8840
 1.5200	26.0230
 1.5210	26.1600
 1.5220	26.2980
 1.5230	26.4350
 1.5240	26.5710
 1.5250	26.7070
 1.5260	26.8430
 1.5270	26.9780
 1.5280	27.1140
 1.5290	27.2470
 1.5300	27.3800
 1.5310	27.5120
 1.5320	27.6430
 1.5330	27.7740
 1.5340	27.9050
 1.5350	28.0350
 1.5360	28.1640
 1.5370	28.2920
 1.5380	28.4180
 1.5390	28.5440
 1.5400	28.6690
 1.5410	28.7940
 1.5420	28.9180
 1.5430	29.0410
 1.5440	29.1640
 1.5450	29.2830
 1.5460	29.4030
 1.5470	29.5230
 1.5480	29.6410
 1.5490	29.7590
 1.5500	29.8750
 1.5510	29.9900
 1.5520	30.1060
 1.5530	30.2200
 1.5540	30.3320
 1.5550	30.4430
 1.5560	30.5530
 1.5570	30.6620
 1.5580	30.7690
 1.5590	30.8740
 1.5600	30.9790
 1.5610	31.0820
 1.5620	31.1840
 1.5630	31.2860
 1.5640	31.3860
 1.5650	31.4860
 1.5660	31.5860
 1.5670	31.6840
 1.5680	31.7820
 1.5690	31.8770
 1.5700	31.9720
 1.5710	32.0660
 1.5720	32.1590
 1.5730	32.2510
 1.5740	32.3430
 1.5750	32.4340
 1.5760	32.5250
 1.5770	32.6160
 1.5780	32.7040
 1.5790	32.7910
 1.5800	32.8760
 1.5810	32.9620
 1.5820	33.0470
 1.5830	33.1310
 1.5840	33.2160
 1.5850	33.2990
 1.5860	33.3820
 1.5870	33.4650
 1.5880	33.5480
 1.5890	33.6290
 1.5900	33.7100
 1.5910	33.7900
 1.5920	33.8680
 1.5930	33.9450
 1.5940	34.0220
 1.5950	34.0980
 1.5960	34.1740
 1.5970	34.2500
 1.5980	34.3240
 1.5990	34.3970
 1.6000	34.4690
 1.6010	34.5400
 1.6020	34.6100
 1.6030	34.6790
 1.6040	34.7460
 1.6050	34.8140
 1.6060	34.8810
 1.6070	34.9460
 1.6080	35.0120
 1.6090	35.0750
 1.6100	35.1390
 1.6110	35.2030
 1.6120	35.2650
 1.6130	35.3270
 1.6140	35.3860
 1.6150	35.4440
 1.6160	35.5020
 1.6170	35.5580
 1.6180	35.6150
 1.6190	35.6710
 1.6200	35.7220
 1.6210	35.7740
 1.6220	35.8260
 1.6230	35.8760
 1.6240	35.9280
 1.6250	35.9790
 1.6260	36.0280
 1.6270	36.0770
 1.6280	36.1270
 1.6290	36.1740
 1.6300	36.2210
 1.6310	36.2660
 1.6320	36.3090
 1.6330	36.3510
 1.6340	36.3920
 1.6350	36.4320
 1.6360	36.4700
 1.6370	36.5080
 1.6380	36.5460
 1.6390	36.5810
 1.6400	36.6160
 1.6410	36.6490
 1.6420	36.6790
 1.6430	36.7080
 1.6440	36.7350
 1.6450	36.7610
 1.6460	36.7850
 1.6470	36.8080
 1.6480	36.8280
 1.6490	36.8460
 1.6500	36.8600
 1.6510	36.8700
 1.6520	36.8800
 1.6530	36.8870
 1.6540	36.8920
 1.6550	36.8970
 1.6560	36.8990
 1.6570	36.9020
 1.6580	36.9030
 1.6590	36.9020
 1.6600	36.9010
 1.6610	36.8970
 1.6620	36.8920
 1.6630	36.8890
 1.6640	36.8860
 1.6650	36.8830
 1.6660	36.8800
 1.6670	36.8750
 1.6680	36.8700
 1.6690	36.8650
 1.6700	36.8600
 1.6710	36.8540
 1.6720	36.8490
 1.6730	36.8410
 1.6740	36.8340
 1.6750	36.8270
 1.6760	36.8180
 1.6770	36.8080
 1.6780	36.7950
 1.6790	36.7800
 1.6800	36.7610
 1.6810	36.7410
 1.6820	36.7200
 1.6830	36.6970
 1.6840	36.6720
 1.6850	36.6450
 1.6860	36.6160
 1.6870	36.5830
 1.6880	36.5490
 1.6890	36.5140
 1.6900	36.4790
 1.6910	36.4420
 1.6920	36.4060
 1.6930	36.3690
 1.6940	36.3300
 1.6950	36.2900
 1.6960	36.2490
 1.6970	36.2050
 1.6980	36.1590
 1.6990	36.1110
 1.7000	36.0600
 1.7010	36.0050
 1.7020	35.9500
 1.7030	35.8940
 1.7040	35.8360
 1.7050	35.7750
 1.7060	35.7150
 1.7070	35.6520
 1.7080	35.5910
 1.7090	35.5310
 1.7100	35.4690
 1.7110	35.4070
 1.7120	35.3460
 1.7130	35.2850
 1.7140	35.2230
 1.7150	35.1600
 1.7160	35.0950
 1.7170	35.0290
 1.7180	34.9630
 1.7190	34.8970
 1.7200	34.8330
 1.7210	34.7670
 1.7220	34.7010
 1.7230	34.6330
 1.7240	34.5630
 1.7250	34.4940
 1.7260	34.4270
 1.7270	34.3640
 1.7280	34.3040
 1.7290	34.2450
 1.7300	34.1900
 1.7310	34.1390
 1.7320	34.0930
 1.7330	34.0490
 1.7340	34.0090
 1.7350	33.9690
 1.7360	33.9330
 1.7370	33.8940
 1.7380	33.8570
 1.7390	33.8140
 1.7400	33.7690
 1.7410	33.7190
 1.7420	33.6650
 1.7430	33.6080
 1.7440	33.5480
 1.7450	33.4860
 1.7460	33.4210
 1.7470	33.3550
 1.7480	33.2860
 1.7490	33.2150
 1.7500	33.1420
 1.7510	33.0680
 1.7520	32.9910
 1.7530	32.9150
 1.7540	32.8380
 1.7550	32.7630
 1.7560	32.6880
 1.7570	32.6140
 1.7580	32.5390
 1.7590	32.4670
 1.7600	32.3960
 1.7610	32.3260
 1.7620	32.2600
 1.7630	32.1950
 1.7640	32.1340
 1.7650	32.0760
 1.7660	32.0210
 1.7670	31.9690
 1.7680	31.9190
 1.7690	31.8710
 1.7700	31.8240
 1.7710	31.7800
 1.7720	31.7350
 1.7730	31.6930
 1.7740	31.6510
 1.7750	31.6070
 1.7760	31.5680
 1.7770	31.5310
 1.7780	31.4960
 1.7790	31.4640
 1.7800	31.4330
 1.7810	31.4030
 1.7820	31.3760
 1.7830	31.3500
 1.7840	31.3270
 1.7850	31.3050
 1.7860	31.2860
 1.7870	31.2690
 1.7880	31.2530
 1.7890	31.2400
 1.7900	31.2310
 1.7910	31.2220
 1.7920	31.2150
 1.7930	31.2100
 1.7940	31.2050
 1.7950	31.2030
 1.7960	31.2020
 1.7970	31.2030
 1.7980	31.2060
 1.7990	31.2070
 1.8000	31.2090
 1.8010	31.2120
 1.8020	31.2150
 1.8030	31.2190
 1.8040	31.2260
 1.8050	31.2310
 1.8060	31.2360
 1.8070	31.2410
 1.8080	31.2470
 1.8090	31.2520
 1.8100	31.2580
 1.8110	31.2620
 1.8120	31.2670
 1.8130	31.2700
 1.8140	31.2710
 1.8150	31.2710
 1.8160	31.2700
 1.8170	31.2700
 1.8180	31.2700
 1.8190	31.2690
 1.8200	31.2660
 1.8210	31.2620
 1.8220	31.2550
 1.8230	31.2440
 1.8240	31.2330
 1.8250	31.2200
 1.8260	31.2060
 1.8270	31.1910
 1.8280	31.1720
 1.8290	31.1500
 1.8300	31.1270
 1.8310	31.0410
 1.8320	31.0120
 1.8330	30.9770
 1.8340	30.9360
 1.8350	30.8890
 1.8360	30.8400
 1.8370	30.7880
 1.8380	30.7310
 1.8390	30.6660
 1.8400	30.5950
 1.8410	30.5170
 1.8420	30.4310
 1.8430	30.3370
 1.8440	30.2380
 1.8450	30.1330
 1.8460	30.0170
 1.8470	29.8920
 1.8480	29.7580
 1.8490	29.6120
 1.8500	29.4540
 1.8510	29.2860
 1.8520	29.1090
 1.8530	28.9180
 1.8540	28.7120
 1.8550	28.4930
 1.8560	28.2580
 1.8570	28.0100
 1.8580	27.7490
 1.8590	27.4740
 1.8600	27.1860
 1.8610	26.8830
 1.8620	26.5640
 1.8630	26.2320
 1.8640	25.8810
 1.8650	25.5140
 1.8660	25.1320
 1.8670	24.7300
 1.8680	24.3140
 1.8690	23.8810
 1.8700	23.4320
 1.8710	22.9650
 1.8720	22.4940
 1.8730	22.0140
 1.8740	21.5280
 1.8750	21.0420
 1.8760	20.5500
 1.8770	20.0610
 1.8780	19.5790
 1.8790	19.1030
 1.8800	18.6440
 1.8810	18.1970
 1.8820	17.7580
 1.8830	17.3290
 1.8840	16.9150
 1.8850	16.5110
 1.8860	16.1250
 1.8870	15.7590
 1.8880	15.4120
 1.8890	15.0900
 1.8900	14.7900
 1.8910	14.5110
 1.8920	14.2530
 1.8930	14.0190
 1.8940	13.8040
 1.8950	13.6100
 1.8960	13.4370
 1.8970	13.2820
 1.8980	13.1470
 1.8990	13.0270
 1.9000	12.9180
 1.9010	12.8280
 1.9020	12.7450
 1.9030	12.6740
 1.9040	12.6130
 1.9050	12.5610
 1.9060	12.5140
 1.9070	12.4740
 1.9080	12.4420
 1.9090	12.4140
 1.9100	12.3910
 1.9110	12.3710
 1.9120	12.3580
 1.9130	12.3430
 1.9140	12.3290
 1.9150	12.3180
 1.9160	12.3090
 1.9170	12.3000
 1.9180	12.2950
 1.9190	12.2910
 1.9200	12.2870
 1.9210	12.2860
 1.9220	12.2840
 1.9230	12.2820
 1.9240	12.2810
 1.9250	12.2820
 1.9260	12.2820
 1.9270	12.2850
 1.9280	12.2880
 1.9290	12.2890
 1.9300	12.2920
 1.9310	12.2960
 1.9320	12.2990
 1.9330	12.3030
 1.9340	12.3090
 1.9350	12.3150
 1.9360	12.3200
 1.9370	12.3260
 1.9380	12.3340
 1.9390	12.3420
 1.9400	12.3510
 1.9410	12.3610
 1.9420	12.3700
 1.9430	12.3800
 1.9440	12.3900
 1.9450	12.4000
 1.9460	12.4110
 1.9470	12.4240
 1.9480	12.4360
 1.9490	12.4480
 1.9500	12.4610
 1.9510	12.4740
 1.9520	12.4880
 1.9530	12.5030
 1.9540	12.5180
 1.9550	12.5330
 1.9560	12.5490
 1.9570	12.5660
 1.9580	12.5830
 1.9590	12.6020
 1.9600	12.6210
 1.9610	12.6410
 1.9620	12.6620
 1.9630	12.6830
 1.9640	12.7030
 1.9650	12.7230
 1.9660	12.7460
 1.9670	12.7700
 1.9680	12.7940
 1.9690	12.8170
 1.9700	12.8430
 1.9710	12.8680
 1.9720	12.8940
 1.9730	12.9230
 1.9740	12.9540
 1.9750	12.9820
 1.9760	13.0120
 1.9770	13.0400
 1.9780	13.0690
 1.9790	13.0990
 1.9800	13.1300
 1.9810	13.1630
 1.9820	13.2000
 1.9830	13.2360
 1.9840	13.2730
 1.9850	13.3100
 1.9860	13.3480
 1.9870	13.3840
 1.9880	13.4220
 1.9890	13.4610
 1.9900	13.4990
 1.9910	13.5380
 1.9920	13.5790
 1.9930	13.6200
 1.9940	13.6620
 1.9950	13.7060
 1.9960	13.7490
 1.9970	13.7930
 1.9980	13.8380
 1.9990	13.8840
 2.0000	13.9300
 2.0010	13.9740
 2.0020	14.0210
 2.0030	14.0650
 2.0040	14.1110
 2.0050	14.1580
 2.0060	14.2050
 2.0070	14.2540
 2.0080	14.3050
 2.0090	14.3550
 2.0100	14.4070
 2.0110	14.4580
 2.0120	14.5070
 2.0130	14.5570
 2.0140	14.6090
 2.0150	14.6610
 2.0160	14.7130
 2.0170	14.7660
 2.0180	14.8160
 2.0190	14.8640
 2.0200	14.9130
 2.0210	14.9630
 2.0220	15.0140
 2.0230	15.0680
 2.0240	15.1200
 2.0250	15.1730
 2.0260	15.2240
 2.0270	15.2750
 2.0280	15.3240
 2.0290	15.3740
 2.0300	15.4230
 2.0310	15.4730
 2.0320	15.5240
 2.0330	15.5740
 2.0340	15.6250
 2.0350	15.6750
 2.0360	15.7230
 2.0370	15.7710
 2.0380	15.8180
 2.0390	15.8660
 2.0400	15.9160
 2.0410	15.9650
 2.0420	16.0130
 2.0430	16.0610
 2.0440	16.1080
 2.0450	16.1520
 2.0460	16.1980
 2.0470	16.2420
 2.0480	16.2880
 2.0490	16.3340
 2.0500	16.3800
 2.0510	16.4260
 2.0520	16.4730
 2.0530	16.5210
 2.0540	16.5680
 2.0550	16.6140
 2.0560	16.6610
 2.0570	16.7070
 2.0580	16.7530
 2.0590	16.8020
 2.0600	16.8540
 2.0610	16.9040
 2.0620	16.9550
 2.0630	17.0050
 2.0640	17.0530
 2.0650	17.1020
 2.0660	17.1520
 2.0670	17.2020
 2.0680	17.2530
 2.0690	17.3040
 2.0700	17.3560
 2.0710	17.4070
 2.0720	17.4580
 2.0730	17.5080
 2.0740	17.5580
 2.0750	17.6080
 2.0760	17.6580
 2.0770	17.7060
 2.0780	17.7570
 2.0790	17.8110
 2.0800	17.8620
 2.0810	17.9130
 2.0820	17.9630
 2.0830	18.0090
 2.0840	18.0580
 2.0850	18.1090
 2.0860	18.1580
 2.0870	18.2070
 2.0880	18.2560
 2.0890	18.3040
 2.0900	18.3490
 2.0910	18.3980
 2.0920	18.4510
 2.0930	18.5010
 2.0940	18.5520
 2.0950	18.6010
 2.0960	18.6470
 2.0970	18.6940
 2.0980	18.7410
 2.0990	18.7890
 2.1000	18.8360
 2.1010	18.8830
 2.1020	18.9310
 2.1030	18.9780
 2.1040	19.0250
 2.1050	19.0700
 2.1060	19.1160
 2.1070	19.1600
 2.1080	19.2050
 2.1090	19.2500
 2.1100	19.2950
 2.1110	19.3420
 2.1120	19.3880
 2.1130	19.4330
 2.1140	19.4780
 2.1150	19.5220
 2.1160	19.5650
 2.1170	19.6060
 2.1180	19.6500
 2.1190	19.6950
 2.1200	19.7390
 2.1210	19.7830
 2.1220	19.8290
 2.1230	19.8700
 2.1240	19.9080
 2.1250	19.9470
 2.1260	19.9840
 2.1270	20.0200
 2.1280	20.0570
 2.1290	20.0930
 2.1300	20.1270
 2.1310	20.1620
 2.1320	20.1980
 2.1330	20.2330
 2.1340	20.2650
 2.1350	20.2990
 2.1360	20.3340
 2.1370	20.3670
 2.1380	20.3990
 2.1390	20.4310
 2.1400	20.4600
 2.1410	20.4890
 2.1420	20.5190
 2.1430	20.5490
 2.1440	20.5790
 2.1450	20.6080
 2.1460	20.6380
 2.1470	20.6670
 2.1480	20.6950
 2.1490	20.7220
 2.1500	20.7490
 2.1510	20.7750
 2.1520	20.8030
 2.1530	20.8350
 2.1540	20.8620
 2.1550	20.8890
 2.1560	20.9140
 2.1570	20.9350
 2.1580	20.9570
 2.1590	20.9780
 2.1600	21.0000
 2.1610	21.0210
 2.1620	21.0440
 2.1630	21.0660
 2.1640	21.0880
 2.1650	21.1100
 2.1660	21.1310
 2.1670	21.1510
 2.1680	21.1700
 2.1690	21.1890
 2.1700	21.2060
 2.1710	21.2250
 2.1720	21.2450
 2.1730	21.2650
 2.1740	21.2870
 2.1750	21.3070
 2.1760	21.3250
 2.1770	21.3450
 2.1780	21.3630
 2.1790	21.3830
 2.1800	21.4040
 2.1810	21.4250
 2.1820	21.4460
 2.1830	21.4680
 2.1840	21.4910
 2.1850	21.5140
 2.1860	21.5360
 2.1870	21.5580
 2.1880	21.5800
 2.1890	21.6020
 2.1900	21.6220
 2.1910	21.6410
 2.1920	21.6610
 2.1930	21.6790
 2.1940	21.6980
 2.1950	21.7170
 2.1960	21.7360
 2.1970	21.7540
 2.1980	21.7730
 2.1990	21.7940
 2.2000	21.8130
 2.2010	21.8320
 2.2020	21.8500
 2.2030	21.8660
 2.2040	21.8810
 2.2050	21.8930
 2.2060	21.9100
 2.2070	21.9220
 2.2080	21.9320
 2.2090	21.9430
 2.2100	21.9520
 2.2110	21.9620
 2.2120	21.9740
 2.2130	21.9840
 2.2140	21.9960
 2.2150	22.0020
 2.2160	22.0040
 2.2170	22.0060
 2.2180	22.0050
 2.2190	22.0070
 2.2200	22.0100
 2.2210	22.0110
 2.2220	22.0150
 2.2230	22.0140
 2.2240	22.0120
 2.2250	22.0070
 2.2260	21.9990
 2.2270	21.9880
 2.2280	21.9740
 2.2290	21.9590
 2.2300	21.9430
 2.2310	21.9260
 2.2320	21.9090
 2.2330	21.8890
 2.2340	21.8680
 2.2350	21.8450
 2.2360	21.8200
 2.2370	21.7930
 2.2380	21.7630
 2.2390	21.7290
 2.2400	21.6950
 2.2410	21.6580
 2.2420	21.6180
 2.2430	21.5760
 2.2440	21.5330
 2.2450	21.4870
 2.2460	21.4410
 2.2470	21.3940
 2.2480	21.3460
 2.2490	21.2960
 2.2500	21.2460
 2.2510	21.1950
 2.2520	21.1440
 2.2530	21.0930
 2.2540	21.0420
 2.2550	20.9960
 2.2560	20.9440
 2.2570	20.8920
 2.2580	20.8370
 2.2590	20.7760
 2.2600	20.7190
 2.2610	20.6620
 2.2620	20.6070
 2.2630	20.5540
 2.2640	20.4990
 2.2650	20.4450
 2.2660	20.3920
 2.2670	20.3390
 2.2680	20.2870
 2.2690	20.2350
 2.2700	20.1820
 2.2710	20.1320
 2.2720	20.0840
 2.2730	20.0380
 2.2740	19.9970
 2.2750	19.9520
 2.2760	19.9090
 2.2770	19.8630
 2.2780	19.8120
 2.2790	19.7650
 2.2800	19.7170
 2.2810	19.6710
 2.2820	19.6280
 2.2830	19.5830
 2.2840	19.5340
 2.2850	19.4880
 2.2860	19.4430
 2.2870	19.3950
 2.2880	19.3460
 2.2890	19.2970
 2.2900	19.2480
 2.2910	19.1980
 2.2920	19.1500
 2.2930	19.1000
 2.2940	19.0440
 2.2950	18.9920
 2.2960	18.9400
 2.2970	18.8870
 2.2980	18.8370
 2.2990	18.7880
 2.3000	18.7320
 2.3010	18.6780
 2.3020	18.6240
 2.3030	18.5690
 2.3040	18.5170
 2.3050	18.4690
 2.3060	18.4240
 2.3070	18.3800
 2.3080	18.3370
 2.3090	18.2980
 2.3100	18.2610
 2.3110	18.2280
 2.3120	18.2010
 2.3130	18.1790
 2.3140	18.1630
 2.3150	18.1530
 2.3160	18.1440
 2.3170	18.1420
 2.3180	18.1350
 2.3190	18.1270
 2.3200	18.1140
 2.3210	18.0990
 2.3220	18.0790
 2.3230	18.0540
 2.3240	18.0310
 2.3250	18.0050
 2.3260	17.9790
 2.3270	17.9550
 2.3280	17.9250
 2.3290	17.8930
 2.3300	17.8560
 2.3310	17.8100
 2.3320	17.7700
 2.3330	17.7270
 2.3340	17.6870
 2.3350	17.6520
 2.3360	17.6130
 2.3370	17.5740
 2.3380	17.5330
 2.3390	17.4910
 2.3400	17.4490
 2.3410	17.4050
 2.3420	17.3620
 2.3430	17.3160
 2.3440	17.2750
 2.3450	17.2330
 2.3460	17.1940
 2.3470	17.1590
 2.3480	17.1230
 2.3490	17.0860
 2.3500	17.0510
 2.3510	17.0140
 2.3520	16.9810
 2.3530	16.9480
 2.3540	16.9190
 2.3550	16.8870
 2.3560	16.8620
 2.3570	16.8390
 2.3580	16.8140
 2.3590	16.7920
 2.3600	16.7690
 2.3610	16.7430
 2.3620	16.7130
 2.3630	16.6820
 2.3640	16.6520
 2.3650	16.6210
 2.3660	16.5900
 2.3670	16.5640
 2.3680	16.5370
 2.3690	16.5050
 2.3700	16.4730
 2.3710	16.4370
 2.3720	16.3980
 2.3730	16.3620
 2.3740	16.3290
 2.3750	16.2920
 2.3760	16.2610
 2.3770	16.2330
 2.3780	16.2020
 2.3790	16.1760
 2.3800	16.1470
 2.3810	16.1120
 2.3820	16.0750
 2.3830	16.0370
 2.3840	16.0010
 2.3850	15.9680
 2.3860	15.9370
 2.3870	15.9070
 2.3880	15.8760
 2.3890	15.8470
 2.3900	15.8160
 2.3910	15.7840
 2.3920	15.7550
 2.3930	15.7250
 2.3940	15.6950
 2.3950	15.6690
 2.3960	15.6440
 2.3970	15.6170
 2.3980	15.5870
 2.3990	15.5530
 2.4000	15.5220
 2.4010	15.4920
 2.4020	15.4610
 2.4030	15.4330
 2.4040	15.4070
 2.4050	15.3730
 2.4060	15.3420
 2.4070	15.3200
 2.4080	15.2900
 2.4090	15.2560
 2.4100	15.2270
 2.4110	15.1970
 2.4120	15.1690
 2.4130	15.1430
 2.4140	15.1200
 2.4150	15.0930
 2.4160	15.0690
 2.4170	15.0490
 2.4180	15.0280
 2.4190	15.0050
 2.4200	14.9770
 2.4210	14.9440
 2.4220	14.9150
 2.4230	14.8900
 2.4240	14.8620
 2.4250	14.8370
 2.4260	14.8080
 2.4270	14.7760
 2.4280	14.7460
 2.4290	14.7180
 2.4300	14.6900
 2.4310	14.6680
 2.4320	14.6480
 2.4330	14.6290
 2.4340	14.6100
 2.4350	14.5860
 2.4360	14.5670
 2.4370	14.5430
 2.4380	14.5250
 2.4390	14.5080
 2.4400	14.4770
 2.4410	14.4500
 2.4420	14.4240
 2.4430	14.3930
 2.4440	14.3670
 2.4450	14.3400
 2.4460	14.3140
 2.4470	14.3010
 2.4480	14.2880
 2.4490	14.2720
 2.4500	14.2580
 2.4510	14.2340
 2.4520	14.2050
 2.4530	14.1790
 2.4540	14.1500
 2.4550	14.1270
 2.4560	14.1090
 2.4570	14.1010
 2.4580	14.0890
 2.4590	14.0650
 2.4600	14.0500
 2.4610	14.0270
 2.4620	14.0130
 2.4630	14.0160
 2.4640	14.0030
 2.4650	13.9870
 2.4660	13.9650
 2.4670	13.9420
 2.4680	13.9230
 2.4690	13.8980
 2.4700	13.8830
 2.4710	13.8640
 2.4720	13.8550
 2.4730	13.8700
 2.4740	13.8660
 2.4750	13.8550
 2.4760	13.8410
 2.4770	13.8170
 2.4780	13.8080
 2.4790	13.7970
 2.4800	13.8020
 2.4810	13.8260
 2.4820	13.8450
 2.4830	13.8500
 2.4840	13.8410
 2.4850	13.8270
 2.4860	13.8000
 2.4870	13.7810
 2.4880	13.7750
 2.4890	13.7650
 2.4900	13.7510
 2.4910	13.7390
 2.4920	13.7180
 2.4930	13.7130
 2.4940	13.7280
 2.4950	13.7460
 2.4960	13.7750
 2.4970	13.7700
 2.4980	13.7580
 2.4990	13.7530
 2.5000	13.7420
