Name: Quercus lobata 3
Type: vegetation
Class: Tree
Genus: Quercus
Species: lobata
Sample No.: VH185
Owner: UCSB
Wavelength Range: TIR
Origin: 34.7151; -120.0588; WGS84
Collection Date: 6/9/2013
Description: Samples were collected as part of the HyspIRI Airborne Campaign. 48 individual plants were sampled in three times in 2013 - spring  summer  and fall. The name of the sample includes a 1  2  or 3 which references a different individual of the species. Samples were taken to JPL and processed within 48 hours of collection. The same leaves were processed in the Nicolet and then measured using the ASD.
Measurement: Hemispherical reflectance
First Column: X
Second Column: Y
X Units: Wavelength (micrometers)
Y Units: Reflectance (percentage)
First X Value: 2.501
Last X Value: 15.387
Number of X Values: 1737
Additional Information: vegetation.tree.quercus.lobata.tir.vh185.ucsb.nicolet.ancillary.txt

 2.5010	 8.9340
 2.5030	 8.6040
 2.5040	 8.6260
 2.5050	 8.5720
 2.5060	 8.5770
 2.5070	 8.6800
 2.5090	 8.7640
 2.5100	 8.6070
 2.5110	 8.5520
 2.5120	 8.5370
 2.5140	 8.4800
 2.5150	 8.3820
 2.5160	 8.4320
 2.5170	 8.4310
 2.5180	 8.4970
 2.5200	 8.4720
 2.5210	 8.5140
 2.5220	 8.5120
 2.5230	 8.4940
 2.5250	 8.4370
 2.5260	 8.6250
 2.5270	 8.6890
 2.5280	 8.6380
 2.5290	 8.5200
 2.5310	 8.4600
 2.5320	 8.4560
 2.5330	 8.4970
 2.5340	 8.5270
 2.5360	 8.6650
 2.5370	 8.4900
 2.5380	 8.3690
 2.5390	 8.3370
 2.5410	 8.5110
 2.5420	 8.6230
 2.5430	 8.6810
 2.5440	 8.5230
 2.5460	 8.6080
 2.5470	 8.5480
 2.5480	 8.4480
 2.5490	 8.6180
 2.5510	 8.7290
 2.5520	 8.5130
 2.5530	 8.4760
 2.5540	 8.5390
 2.5560	 8.6220
 2.5570	 8.5790
 2.5580	 8.5510
 2.5590	 8.6060
 2.5610	 8.6840
 2.5620	 8.6070
 2.5630	 8.6330
 2.5640	 8.6860
 2.5660	 8.6940
 2.5670	 8.6850
 2.5680	 8.6600
 2.5700	 8.6030
 2.5710	 8.5600
 2.5720	 8.6150
 2.5730	 8.6850
 2.5750	 8.4200
 2.5760	 8.4920
 2.5770	 8.5970
 2.5790	 8.6410
 2.5800	 8.6420
 2.5810	 8.7430
 2.5820	 8.5740
 2.5840	 8.4870
 2.5850	 8.5290
 2.5860	 8.6630
 2.5880	 8.5980
 2.5890	 8.4990
 2.5900	 8.3240
 2.5910	 8.4030
 2.5930	 8.5350
 2.5940	 8.5970
 2.5950	 8.4810
 2.5970	 8.4480
 2.5980	 8.6100
 2.5990	 8.6280
 2.6000	 8.4930
 2.6020	 8.4900
 2.6030	 8.3630
 2.6040	 8.3350
 2.6060	 8.4030
 2.6070	 8.4540
 2.6080	 8.3540
 2.6100	 8.3400
 2.6110	 8.4580
 2.6120	 8.5600
 2.6140	 8.3740
 2.6150	 8.2690
 2.6160	 8.2830
 2.6180	 8.4080
 2.6190	 8.3620
 2.6200	 8.3550
 2.6220	 8.2740
 2.6230	 8.3560
 2.6240	 8.3290
 2.6260	 8.3690
 2.6270	 8.3270
 2.6280	 8.2750
 2.6300	 8.2060
 2.6310	 8.1860
 2.6320	 7.9700
 2.6340	 8.0090
 2.6350	 8.0770
 2.6360	 8.1350
 2.6380	 8.0570
 2.6390	 8.0370
 2.6400	 7.8660
 2.6420	 7.8600
 2.6430	 7.9380
 2.6440	 7.9980
 2.6460	 7.9710
 2.6470	 7.9470
 2.6480	 7.7690
 2.6500	 7.8080
 2.6510	 7.9280
 2.6520	 8.0730
 2.6540	 8.0420
 2.6550	 7.9550
 2.6560	 7.7970
 2.6580	 7.6280
 2.6590	 7.6960
 2.6610	 7.7980
 2.6620	 7.6550
 2.6630	 7.5670
 2.6650	 7.5580
 2.6660	 7.7510
 2.6670	 7.7620
 2.6690	 7.6370
 2.6700	 7.5340
 2.6720	 7.5870
 2.6730	 7.6470
 2.6740	 7.6190
 2.6760	 7.5410
 2.6770	 7.6330
 2.6780	 7.5860
 2.6800	 7.6550
 2.6810	 7.6390
 2.6830	 7.3820
 2.6840	 7.2090
 2.6850	 7.4090
 2.6870	 7.3400
 2.6880	 7.2480
 2.6900	 7.2900
 2.6910	 7.2500
 2.6920	 7.1380
 2.6940	 7.2120
 2.6950	 7.1320
 2.6970	 7.0390
 2.6980	 6.9650
 2.6990	 7.0340
 2.7010	 6.9720
 2.7020	 6.8900
 2.7040	 6.9210
 2.7050	 6.9170
 2.7060	 6.7910
 2.7080	 6.7870
 2.7090	 6.7310
 2.7110	 6.7850
 2.7120	 6.6710
 2.7130	 6.5180
 2.7150	 6.3160
 2.7160	 6.1940
 2.7180	 6.1390
 2.7190	 6.2020
 2.7210	 6.1320
 2.7220	 6.0210
 2.7230	 6.1000
 2.7250	 6.2040
 2.7260	 6.0140
 2.7280	 5.8190
 2.7290	 5.7970
 2.7310	 5.7650
 2.7320	 5.5580
 2.7330	 5.5470
 2.7350	 5.6170
 2.7360	 5.6660
 2.7380	 5.4630
 2.7390	 5.4010
 2.7410	 5.3080
 2.7420	 5.1920
 2.7440	 5.1880
 2.7450	 5.1130
 2.7470	 4.8500
 2.7480	 4.6660
 2.7490	 4.6740
 2.7510	 4.8260
 2.7520	 4.6360
 2.7540	 4.6610
 2.7550	 4.8480
 2.7570	 4.8140
 2.7580	 4.5920
 2.7600	 4.7170
 2.7610	 4.8930
 2.7630	 4.7830
 2.7640	 4.6220
 2.7660	 4.6260
 2.7670	 4.5530
 2.7680	 4.4570
 2.7700	 4.2720
 2.7710	 4.3280
 2.7730	 4.5330
 2.7740	 4.6050
 2.7760	 4.4820
 2.7770	 4.3790
 2.7790	 4.2440
 2.7800	 4.2230
 2.7820	 4.1960
 2.7830	 4.2260
 2.7850	 4.1190
 2.7860	 4.0790
 2.7880	 4.0580
 2.7890	 4.1640
 2.7910	 4.2880
 2.7920	 4.2580
 2.7940	 4.0960
 2.7950	 4.1130
 2.7970	 4.1190
 2.7980	 4.0650
 2.8000	 3.8430
 2.8010	 3.9570
 2.8030	 4.0930
 2.8040	 4.0310
 2.8060	 3.8570
 2.8070	 3.9600
 2.8090	 4.0950
 2.8110	 4.1830
 2.8120	 4.0960
 2.8140	 4.0820
 2.8150	 3.9660
 2.8170	 3.9110
 2.8180	 3.9840
 2.8200	 4.0580
 2.8210	 3.9590
 2.8230	 3.8750
 2.8240	 3.7540
 2.8260	 4.0260
 2.8270	 4.0790
 2.8290	 3.8920
 2.8300	 3.6290
 2.8320	 3.8710
 2.8340	 3.8050
 2.8350	 3.8480
 2.8370	 3.9150
 2.8380	 3.9000
 2.8400	 3.9160
 2.8410	 3.9960
 2.8430	 3.8880
 2.8440	 3.9030
 2.8460	 3.8890
 2.8480	 3.8260
 2.8490	 3.7140
 2.8510	 3.8390
 2.8520	 3.7910
 2.8540	 3.8130
 2.8550	 3.8190
 2.8570	 3.8620
 2.8590	 3.7930
 2.8600	 3.8540
 2.8620	 3.8620
 2.8630	 3.8850
 2.8650	 3.8710
 2.8660	 3.9050
 2.8680	 3.7930
 2.8700	 3.7110
 2.8710	 3.6030
 2.8730	 3.6130
 2.8740	 3.5570
 2.8760	 3.7530
 2.8780	 3.7970
 2.8790	 3.7320
 2.8810	 3.4680
 2.8820	 3.5440
 2.8840	 3.7120
 2.8860	 3.5450
 2.8870	 3.3930
 2.8890	 3.7220
 2.8900	 3.8450
 2.8920	 3.6690
 2.8940	 3.8010
 2.8950	 3.9730
 2.8970	 3.9500
 2.8980	 3.9270
 2.9000	 3.7600
 2.9020	 3.7480
 2.9030	 3.6580
 2.9050	 3.7590
 2.9070	 3.8690
 2.9080	 3.8480
 2.9100	 3.7650
 2.9120	 3.8520
 2.9130	 3.7810
 2.9150	 3.7420
 2.9160	 3.7670
 2.9180	 3.8210
 2.9200	 3.7070
 2.9210	 3.6470
 2.9230	 3.7040
 2.9250	 3.7910
 2.9260	 3.7230
 2.9280	 3.6840
 2.9300	 3.6160
 2.9310	 3.7660
 2.9330	 3.7330
 2.9350	 3.7150
 2.9360	 3.6840
 2.9380	 3.7390
 2.9400	 3.6980
 2.9410	 3.6410
 2.9430	 3.7850
 2.9450	 3.8440
 2.9460	 3.6140
 2.9480	 3.5800
 2.9500	 3.6310
 2.9510	 3.4810
 2.9530	 3.0060
 2.9550	 3.0040
 2.9560	 3.5380
 2.9580	 3.8110
 2.9600	 3.6010
 2.9610	 3.5290
 2.9630	 3.7620
 2.9650	 4.1610
 2.9660	 4.4330
 2.9680	 3.4000
 2.9700	 2.3740
 2.9720	 2.3820
 2.9730	 2.7190
 2.9750	 2.2770
 2.9770	 1.7300
 2.9780	 2.4660
 2.9800	 4.2510
 2.9820	 5.5040
 2.9840	 4.8090
 2.9850	 4.7070
 2.9870	 5.0570
 2.9890	 4.8310
 2.9900	 5.0890
 2.9920	 5.4330
 2.9940	 4.2030
 2.9960	 2.3270
 2.9970	 2.6280
 2.9990	 3.7070
 3.0010	 3.7490
 3.0030	 4.2610
 3.0040	 4.0790
 3.0060	 3.7100
 3.0080	 3.3700
 3.0100	 3.4540
 3.0110	 3.5470
 3.0130	 3.7010
 3.0150	 3.4930
 3.0170	 3.9050
 3.0180	 4.0410
 3.0200	 3.8440
 3.0220	 3.4620
 3.0240	 3.5480
 3.0250	 3.6190
 3.0270	 3.7940
 3.0290	 3.6350
 3.0310	 3.5330
 3.0320	 3.3310
 3.0340	 3.9930
 3.0360	 3.8850
 3.0380	 4.0380
 3.0400	 3.8830
 3.0410	 4.2190
 3.0430	 4.0330
 3.0450	 3.9010
 3.0470	 3.3120
 3.0480	 2.1780
 3.0500	 3.2090
 3.0520	 5.2540
 3.0540	 3.5470
 3.0560	 2.8630
 3.0570	 4.3040
 3.0590	 4.4920
 3.0610	 3.9450
 3.0630	 4.6390
 3.0650	 5.9380
 3.0660	 3.9400
 3.0680	 2.8520
 3.0700	 3.9760
 3.0720	 3.8420
 3.0740	 3.4330
 3.0760	 3.7360
 3.0770	 3.9760
 3.0790	 4.0480
 3.0810	 4.0550
 3.0830	 3.7770
 3.0850	 3.7980
 3.0870	 3.7000
 3.0880	 3.7110
 3.0900	 4.0370
 3.0920	 4.1130
 3.0940	 3.8180
 3.0960	 3.9320
 3.0980	 3.9230
 3.0990	 3.9180
 3.1010	 3.9900
 3.1030	 4.2530
 3.1050	 4.1770
 3.1070	 4.2990
 3.1090	 4.3590
 3.1110	 4.5400
 3.1120	 4.3610
 3.1140	 4.1060
 3.1160	 4.2650
 3.1180	 4.7140
 3.1200	 4.3990
 3.1220	 4.0360
 3.1240	 3.9440
 3.1260	 3.8980
 3.1270	 3.6850
 3.1290	 4.0360
 3.1310	 4.1280
 3.1330	 3.3190
 3.1350	 2.9340
 3.1370	 3.9500
 3.1390	 4.7390
 3.1410	 3.9220
 3.1430	 3.3960
 3.1450	 4.7480
 3.1460	 5.2880
 3.1480	 4.5100
 3.1500	 3.8700
 3.1520	 4.1510
 3.1540	 4.3860
 3.1560	 4.1590
 3.1580	 3.8920
 3.1600	 3.5490
 3.1620	 3.6610
 3.1640	 3.9280
 3.1660	 2.9900
 3.1680	 3.8780
 3.1700	 4.3940
 3.1710	 4.4980
 3.1730	 4.5050
 3.1750	 4.6810
 3.1770	 5.1090
 3.1790	 6.0180
 3.1810	 6.0060
 3.1830	 5.4300
 3.1850	 4.5530
 3.1870	 3.7640
 3.1890	 4.3200
 3.1910	 4.5270
 3.1930	 4.4220
 3.1950	 4.4030
 3.1970	 4.2880
 3.1990	 4.4570
 3.2010	 4.5800
 3.2030	 4.5040
 3.2050	 4.4340
 3.2070	 4.4530
 3.2090	 4.2690
 3.2110	 4.2340
 3.2130	 4.2520
 3.2150	 4.4510
 3.2170	 4.4950
 3.2190	 4.4350
 3.2210	 4.4800
 3.2230	 4.5850
 3.2250	 4.4830
 3.2270	 4.4900
 3.2290	 4.5880
 3.2310	 4.7000
 3.2330	 4.7720
 3.2350	 4.7640
 3.2370	 4.7460
 3.2390	 4.9600
 3.2410	 5.1690
 3.2430	 5.0340
 3.2450	 4.8000
 3.2470	 4.7780
 3.2490	 4.8460
 3.2510	 4.7850
 3.2530	 4.6810
 3.2550	 4.8640
 3.2570	 5.1410
 3.2590	 5.1200
 3.2610	 4.8610
 3.2630	 5.0950
 3.2650	 5.0210
 3.2670	 4.9380
 3.2690	 5.1230
 3.2720	 5.0340
 3.2740	 5.1760
 3.2760	 5.3470
 3.2780	 5.0580
 3.2800	 4.9370
 3.2820	 4.9320
 3.2840	 5.0770
 3.2860	 5.1050
 3.2880	 4.9870
 3.2900	 5.0180
 3.2920	 5.0870
 3.2940	 5.1460
 3.2960	 5.2450
 3.2990	 5.2580
 3.3010	 5.3690
 3.3030	 5.3310
 3.3050	 5.2310
 3.3070	 4.9050
 3.3090	 4.8780
 3.3110	 5.1150
 3.3130	 5.2130
 3.3150	 5.1370
 3.3180	 4.9240
 3.3200	 4.8940
 3.3220	 5.1030
 3.3240	 5.1990
 3.3260	 5.2050
 3.3280	 5.1210
 3.3300	 5.2510
 3.3330	 5.2700
 3.3350	 5.2760
 3.3370	 5.3460
 3.3390	 5.3670
 3.3410	 5.2790
 3.3430	 5.3000
 3.3450	 5.0880
 3.3480	 4.9600
 3.3500	 5.0130
 3.3520	 5.1320
 3.3540	 5.0600
 3.3560	 5.0310
 3.3580	 4.9630
 3.3610	 5.0690
 3.3630	 5.0460
 3.3650	 4.9030
 3.3670	 4.7940
 3.3690	 4.8920
 3.3720	 4.8900
 3.3740	 4.8890
 3.3760	 5.0110
 3.3780	 5.0530
 3.3800	 4.8720
 3.3830	 4.7300
 3.3850	 4.6190
 3.3870	 4.6970
 3.3890	 4.7010
 3.3910	 4.7740
 3.3940	 4.8510
 3.3960	 4.8330
 3.3980	 4.7090
 3.4000	 4.7120
 3.4020	 4.7010
 3.4050	 4.7270
 3.4070	 4.7260
 3.4090	 4.8060
 3.4110	 4.8710
 3.4140	 5.0340
 3.4160	 5.1430
 3.4180	 5.2850
 3.4200	 5.3800
 3.4230	 5.5660
 3.4250	 5.8040
 3.4270	 6.0510
 3.4290	 6.1500
 3.4320	 6.1660
 3.4340	 5.9350
 3.4360	 5.8950
 3.4390	 5.8160
 3.4410	 5.6350
 3.4430	 5.5350
 3.4450	 5.5340
 3.4480	 5.4670
 3.4500	 5.5240
 3.4520	 5.7320
 3.4550	 5.8150
 3.4570	 5.6550
 3.4590	 5.4800
 3.4620	 5.3080
 3.4640	 5.4350
 3.4660	 5.5180
 3.4680	 5.5990
 3.4710	 5.5660
 3.4730	 5.5970
 3.4750	 5.5700
 3.4780	 5.5600
 3.4800	 5.4840
 3.4820	 5.5750
 3.4850	 5.6280
 3.4870	 5.6050
 3.4890	 5.3830
 3.4920	 5.3440
 3.4940	 5.3360
 3.4970	 5.3450
 3.4990	 5.2770
 3.5010	 5.3520
 3.5040	 5.5540
 3.5060	 5.8310
 3.5080	 6.1310
 3.5110	 6.5180
 3.5130	 6.5780
 3.5160	 6.5030
 3.5180	 6.3890
 3.5200	 6.5120
 3.5230	 6.4870
 3.5250	 6.3730
 3.5270	 6.4010
 3.5300	 6.5200
 3.5320	 6.4760
 3.5350	 6.4860
 3.5370	 6.5110
 3.5400	 6.4470
 3.5420	 6.3730
 3.5440	 6.3990
 3.5470	 6.4570
 3.5490	 6.5830
 3.5520	 6.6660
 3.5540	 6.6890
 3.5570	 6.5770
 3.5590	 6.5460
 3.5610	 6.5220
 3.5640	 6.5430
 3.5660	 6.6110
 3.5690	 6.6770
 3.5710	 6.5870
 3.5740	 6.5880
 3.5760	 6.5830
 3.5790	 6.6690
 3.5810	 6.7330
 3.5840	 6.8580
 3.5860	 6.8080
 3.5890	 6.7040
 3.5910	 6.6700
 3.5930	 6.9260
 3.5960	 6.8880
 3.5980	 6.6380
 3.6010	 6.4270
 3.6030	 6.6160
 3.6060	 6.7340
 3.6080	 6.6480
 3.6110	 6.7040
 3.6140	 6.7890
 3.6160	 6.7710
 3.6190	 6.7610
 3.6210	 6.7710
 3.6240	 6.8760
 3.6260	 6.8320
 3.6290	 6.7080
 3.6310	 6.5840
 3.6340	 6.5550
 3.6360	 6.5170
 3.6390	 6.6100
 3.6410	 6.6770
 3.6440	 6.6800
 3.6470	 6.6250
 3.6490	 6.7220
 3.6520	 6.7780
 3.6540	 6.8080
 3.6570	 6.7640
 3.6590	 6.7260
 3.6620	 6.7320
 3.6650	 6.7320
 3.6670	 6.6770
 3.6700	 6.7570
 3.6720	 6.8340
 3.6750	 6.8810
 3.6780	 6.8470
 3.6800	 6.8490
 3.6830	 6.8040
 3.6850	 6.7730
 3.6880	 6.7290
 3.6910	 6.7980
 3.6930	 6.8050
 3.6960	 6.7770
 3.6990	 6.7260
 3.7010	 6.7860
 3.7040	 6.8500
 3.7060	 6.8660
 3.7090	 6.8700
 3.7120	 6.8910
 3.7140	 6.8210
 3.7170	 6.8550
 3.7200	 6.9140
 3.7220	 6.8060
 3.7250	 6.6540
 3.7280	 6.7130
 3.7300	 6.8320
 3.7330	 6.8970
 3.7360	 6.9420
 3.7390	 6.9990
 3.7410	 6.9710
 3.7440	 6.9920
 3.7470	 6.9600
 3.7490	 6.9800
 3.7520	 7.0890
 3.7550	 7.1290
 3.7580	 7.0120
 3.7600	 6.8970
 3.7630	 6.8810
 3.7660	 7.1310
 3.7680	 7.1850
 3.7710	 7.1110
 3.7740	 7.0380
 3.7770	 7.1320
 3.7790	 7.1140
 3.7820	 7.1190
 3.7850	 7.1100
 3.7880	 7.1230
 3.7900	 7.1320
 3.7930	 7.0410
 3.7960	 6.9400
 3.7990	 7.0440
 3.8020	 7.1040
 3.8040	 7.1230
 3.8070	 7.0560
 3.8100	 7.0160
 3.8130	 6.9700
 3.8160	 6.9890
 3.8180	 7.0370
 3.8210	 7.0560
 3.8240	 7.1310
 3.8270	 7.1620
 3.8300	 7.0620
 3.8330	 7.1080
 3.8350	 7.0740
 3.8380	 7.0620
 3.8410	 7.1340
 3.8440	 7.3150
 3.8470	 7.2590
 3.8500	 7.1300
 3.8520	 7.1160
 3.8550	 7.2280
 3.8580	 7.2370
 3.8610	 7.2500
 3.8640	 7.1640
 3.8670	 7.1200
 3.8700	 7.1050
 3.8730	 7.2610
 3.8750	 7.2640
 3.8780	 7.2550
 3.8810	 7.2530
 3.8840	 7.2730
 3.8870	 7.2240
 3.8900	 7.2280
 3.8930	 7.2040
 3.8960	 7.2130
 3.8990	 7.2430
 3.9020	 7.2670
 3.9050	 7.2690
 3.9080	 7.3200
 3.9110	 7.3250
 3.9140	 7.2900
 3.9160	 7.2640
 3.9190	 7.1950
 3.9220	 7.1470
 3.9250	 7.2680
 3.9280	 7.3130
 3.9310	 7.3510
 3.9340	 7.3790
 3.9370	 7.4220
 3.9400	 7.3390
 3.9430	 7.3270
 3.9460	 7.2910
 3.9490	 7.2560
 3.9520	 7.2500
 3.9550	 7.2620
 3.9580	 7.2990
 3.9610	 7.3630
 3.9640	 7.3200
 3.9670	 7.3010
 3.9700	 7.2660
 3.9730	 7.2900
 3.9770	 7.2730
 3.9800	 7.3210
 3.9830	 7.3700
 3.9860	 7.3580
 3.9890	 7.3500
 3.9920	 7.3540
 3.9950	 7.2960
 3.9980	 7.3450
 4.0010	 7.3830
 4.0040	 7.3690
 4.0070	 7.3160
 4.0100	 7.3660
 4.0130	 7.3870
 4.0170	 7.4100
 4.0200	 7.3630
 4.0230	 7.3370
 4.0260	 7.3830
 4.0290	 7.3820
 4.0320	 7.3600
 4.0350	 7.4640
 4.0380	 7.4410
 4.0420	 7.4150
 4.0450	 7.4420
 4.0480	 7.4890
 4.0510	 7.5130
 4.0540	 7.5280
 4.0570	 7.4130
 4.0610	 7.3110
 4.0640	 7.3520
 4.0670	 7.4170
 4.0700	 7.3960
 4.0730	 7.4450
 4.0770	 7.4850
 4.0800	 7.4890
 4.0830	 7.4420
 4.0860	 7.4840
 4.0890	 7.4200
 4.0930	 7.4990
 4.0960	 7.5610
 4.0990	 7.4320
 4.1020	 7.3500
 4.1060	 7.4260
 4.1090	 7.3700
 4.1120	 7.3340
 4.1150	 7.4320
 4.1190	 7.4310
 4.1220	 7.3450
 4.1250	 7.3550
 4.1280	 7.4350
 4.1320	 7.4640
 4.1350	 7.4560
 4.1380	 7.4310
 4.1420	 7.3860
 4.1450	 7.4760
 4.1480	 7.5290
 4.1520	 7.5150
 4.1550	 7.5080
 4.1580	 7.5260
 4.1620	 7.4930
 4.1650	 7.4880
 4.1680	 7.5100
 4.1720	 7.4850
 4.1750	 7.4460
 4.1780	 7.4550
 4.1820	 7.4220
 4.1850	 7.4250
 4.1890	 7.4910
 4.1920	 7.6120
 4.1950	 7.5770
 4.1990	 7.6020
 4.2020	 7.5880
 4.2060	 7.5380
 4.2090	 7.4960
 4.2120	 7.4930
 4.2160	 7.5110
 4.2190	 7.6550
 4.2230	 7.7400
 4.2260	 8.1050
 4.2300	 8.0970
 4.2330	 8.0040
 4.2360	 7.9730
 4.2400	 7.8450
 4.2430	 7.6630
 4.2470	 7.8310
 4.2500	 7.7090
 4.2540	 7.6010
 4.2570	 7.6640
 4.2610	 7.8700
 4.2640	 7.7300
 4.2680	 7.4550
 4.2710	 7.3380
 4.2750	 7.4050
 4.2780	 7.5920
 4.2820	 7.6410
 4.2850	 7.5050
 4.2890	 7.6300
 4.2930	 7.7190
 4.2960	 7.5600
 4.3000	 7.4770
 4.3030	 7.6030
 4.3070	 7.6880
 4.3100	 7.6080
 4.3140	 7.5550
 4.3180	 7.5740
 4.3210	 7.5420
 4.3250	 7.4810
 4.3280	 7.4640
 4.3320	 7.4890
 4.3360	 7.4560
 4.3390	 7.4220
 4.3430	 7.3740
 4.3470	 7.3720
 4.3500	 7.3780
 4.3540	 7.3430
 4.3570	 7.2770
 4.3610	 7.2680
 4.3650	 7.3180
 4.3680	 7.3370
 4.3720	 7.3000
 4.3760	 7.3030
 4.3800	 7.3160
 4.3830	 7.3460
 4.3870	 7.3510
 4.3910	 7.3750
 4.3940	 7.3620
 4.3980	 7.3530
 4.4020	 7.3230
 4.4060	 7.3410
 4.4090	 7.3210
 4.4130	 7.2490
 4.4170	 7.2230
 4.4210	 7.2570
 4.4240	 7.2120
 4.4280	 7.1950
 4.4320	 7.2190
 4.4360	 7.2010
 4.4400	 7.2010
 4.4430	 7.2450
 4.4470	 7.2690
 4.4510	 7.2810
 4.4550	 7.2580
 4.4590	 7.2300
 4.4620	 7.1600
 4.4660	 7.1230
 4.4700	 7.1270
 4.4740	 7.1690
 4.4780	 7.2030
 4.4820	 7.2080
 4.4860	 7.2050
 4.4900	 7.2020
 4.4930	 7.2010
 4.4970	 7.2130
 4.5010	 7.2310
 4.5050	 7.2270
 4.5090	 7.2150
 4.5130	 7.1800
 4.5170	 7.1370
 4.5210	 7.1160
 4.5250	 7.0630
 4.5290	 7.0770
 4.5330	 7.0980
 4.5370	 7.0700
 4.5410	 7.0130
 4.5450	 7.0160
 4.5490	 7.0450
 4.5530	 7.0750
 4.5570	 7.0170
 4.5610	 7.0390
 4.5650	 7.1700
 4.5690	 7.1620
 4.5730	 7.0220
 4.5770	 7.0530
 4.5810	 7.0910
 4.5850	 7.0940
 4.5890	 7.1070
 4.5930	 7.0290
 4.5970	 6.9360
 4.6010	 6.9650
 4.6050	 6.9850
 4.6090	 7.0620
 4.6130	 7.0450
 4.6170	 6.8510
 4.6220	 6.8630
 4.6260	 7.0490
 4.6300	 7.0330
 4.6340	 7.0070
 4.6380	 6.9460
 4.6420	 6.9020
 4.6460	 6.8640
 4.6510	 6.8680
 4.6550	 6.9070
 4.6590	 6.9670
 4.6630	 7.0030
 4.6670	 6.9710
 4.6720	 6.9670
 4.6760	 6.9490
 4.6800	 6.9130
 4.6840	 6.9540
 4.6880	 6.9650
 4.6930	 6.9480
 4.6970	 6.9380
 4.7010	 6.8770
 4.7050	 6.8110
 4.7100	 6.8140
 4.7140	 6.7920
 4.7180	 6.8460
 4.7230	 6.8910
 4.7270	 6.8680
 4.7310	 6.9080
 4.7360	 6.9940
 4.7400	 6.9570
 4.7440	 6.8810
 4.7490	 6.8720
 4.7530	 6.9150
 4.7570	 6.9250
 4.7620	 6.9600
 4.7660	 6.9490
 4.7700	 6.9190
 4.7750	 6.8670
 4.7790	 6.8790
 4.7840	 6.8860
 4.7880	 6.7820
 4.7920	 6.8450
 4.7970	 6.8710
 4.8010	 6.8140
 4.8060	 6.8280
 4.8100	 6.8760
 4.8150	 6.9190
 4.8190	 6.9870
 4.8240	 6.9740
 4.8280	 6.9230
 4.8330	 6.9350
 4.8370	 6.9800
 4.8420	 6.9910
 4.8460	 6.9170
 4.8510	 6.8770
 4.8550	 6.9620
 4.8600	 6.9560
 4.8640	 6.8710
 4.8690	 6.8760
 4.8730	 6.8790
 4.8780	 6.9280
 4.8830	 7.0180
 4.8870	 7.0130
 4.8920	 7.0050
 4.8960	 7.0060
 4.9010	 7.0010
 4.9060	 6.9370
 4.9100	 6.9290
 4.9150	 6.9380
 4.9200	 6.9090
 4.9240	 6.9290
 4.9290	 7.0090
 4.9340	 7.0200
 4.9380	 7.0250
 4.9430	 7.0260
 4.9480	 7.0110
 4.9530	 7.0130
 4.9570	 7.0250
 4.9620	 7.0270
 4.9670	 6.9850
 4.9720	 6.9100
 4.9760	 6.9400
 4.9810	 6.9740
 4.9860	 7.0070
 4.9910	 7.0230
 4.9960	 7.0160
 5.0000	 7.0030
 5.0050	 7.0120
 5.0100	 6.9790
 5.0150	 7.0060
 5.0200	 7.0040
 5.0250	 6.9990
 5.0290	 6.9960
 5.0340	 6.9570
 5.0390	 6.9850
 5.0440	 7.0330
 5.0490	 7.0050
 5.0540	 7.0070
 5.0590	 7.0560
 5.0640	 7.0930
 5.0690	 7.0830
 5.0740	 7.0570
 5.0790	 7.0450
 5.0840	 7.0720
 5.0890	 7.0240
 5.0940	 7.0110
 5.0990	 7.0390
 5.1040	 7.0230
 5.1090	 6.9780
 5.1140	 6.9960
 5.1190	 7.0020
 5.1240	 7.0020
 5.1290	 7.0260
 5.1340	 6.9870
 5.1390	 6.9580
 5.1440	 7.0110
 5.1490	 7.0050
 5.1540	 6.9980
 5.1600	 6.9480
 5.1650	 6.9660
 5.1700	 6.9920
 5.1750	 6.9730
 5.1800	 6.8810
 5.1850	 6.8450
 5.1910	 6.8940
 5.1960	 6.9330
 5.2010	 6.9440
 5.2060	 6.9670
 5.2110	 6.9660
 5.2170	 6.9820
 5.2220	 6.9470
 5.2270	 6.9230
 5.2320	 6.9570
 5.2380	 7.0290
 5.2430	 6.9650
 5.2480	 6.9440
 5.2540	 6.9270
 5.2590	 6.9250
 5.2640	 6.9650
 5.2700	 6.9940
 5.2750	 6.9430
 5.2800	 6.8990
 5.2860	 6.8870
 5.2910	 6.9380
 5.2970	 6.9920
 5.3020	 6.9820
 5.3070	 6.8530
 5.3130	 6.8610
 5.3180	 6.8690
 5.3240	 6.7950
 5.3290	 6.7220
 5.3350	 6.7420
 5.3400	 6.7460
 5.3460	 6.8100
 5.3510	 6.8290
 5.3570	 6.7710
 5.3620	 6.7320
 5.3680	 6.7770
 5.3730	 6.8200
 5.3790	 6.8480
 5.3850	 6.7810
 5.3900	 6.7660
 5.3960	 6.7680
 5.4010	 6.7160
 5.4070	 6.6630
 5.4130	 6.6600
 5.4180	 6.6500
 5.4240	 6.6680
 5.4300	 6.6370
 5.4350	 6.6120
 5.4410	 6.6020
 5.4470	 6.5810
 5.4530	 6.5290
 5.4580	 6.5020
 5.4640	 6.4710
 5.4700	 6.4890
 5.4760	 6.4900
 5.4810	 6.5030
 5.4870	 6.4530
 5.4930	 6.4160
 5.4990	 6.3860
 5.5050	 6.3540
 5.5110	 6.2990
 5.5160	 6.3020
 5.5220	 6.2640
 5.5280	 6.2570
 5.5340	 6.2390
 5.5400	 6.2510
 5.5460	 6.2400
 5.5520	 6.2130
 5.5580	 6.1060
 5.5640	 6.0170
 5.5700	 5.9510
 5.5760	 5.9940
 5.5820	 5.9230
 5.5880	 5.8370
 5.5940	 5.7440
 5.6000	 5.6860
 5.6060	 5.6600
 5.6120	 5.6380
 5.6180	 5.5250
 5.6240	 5.4780
 5.6300	 5.3960
 5.6360	 5.3670
 5.6420	 5.2970
 5.6490	 5.1470
 5.6550	 5.0030
 5.6610	 4.9190
 5.6670	 4.7820
 5.6730	 4.6280
 5.6800	 4.4640
 5.6860	 4.3780
 5.6920	 4.3160
 5.6980	 4.2620
 5.7040	 4.1200
 5.7110	 4.0470
 5.7170	 3.9610
 5.7230	 3.8310
 5.7300	 3.6800
 5.7360	 3.5870
 5.7420	 3.5080
 5.7490	 3.5220
 5.7550	 3.5490
 5.7620	 3.5960
 5.7680	 3.6430
 5.7740	 3.7390
 5.7810	 3.7800
 5.7870	 3.9110
 5.7940	 4.0100
 5.8000	 4.0910
 5.8070	 4.1470
 5.8130	 4.2700
 5.8200	 4.3990
 5.8260	 4.5190
 5.8330	 4.5790
 5.8390	 4.6520
 5.8460	 4.7080
 5.8530	 4.7430
 5.8590	 4.8350
 5.8660	 5.0910
 5.8720	 5.1040
 5.8790	 5.1370
 5.8860	 5.1250
 5.8920	 5.1970
 5.8990	 5.2260
 5.9060	 5.2150
 5.9130	 5.1730
 5.9190	 5.0840
 5.9260	 5.0190
 5.9330	 5.1240
 5.9400	 5.0330
 5.9470	 4.9060
 5.9530	 4.8020
 5.9600	 4.7360
 5.9670	 4.6240
 5.9740	 4.6330
 5.9810	 4.5340
 5.9880	 4.4520
 5.9950	 4.3000
 6.0020	 4.3060
 6.0090	 4.2130
 6.0160	 4.2050
 6.0230	 4.1330
 6.0300	 4.1180
 6.0370	 4.1640
 6.0440	 4.3030
 6.0510	 4.3360
 6.0580	 4.3820
 6.0650	 4.3950
 6.0720	 4.4530
 6.0790	 4.3960
 6.0860	 4.4500
 6.0930	 4.4540
 6.1000	 4.4730
 6.1080	 4.4730
 6.1150	 4.4530
 6.1220	 4.4400
 6.1290	 4.5440
 6.1370	 4.4810
 6.1440	 4.4510
 6.1510	 4.3340
 6.1580	 4.3740
 6.1660	 4.3450
 6.1730	 4.2830
 6.1800	 4.2430
 6.1880	 4.3330
 6.1950	 4.3510
 6.2030	 4.3330
 6.2100	 4.2920
 6.2170	 4.3530
 6.2250	 4.3620
 6.2320	 4.4570
 6.2400	 4.4990
 6.2470	 4.5790
 6.2550	 4.5900
 6.2630	 4.7070
 6.2700	 4.7510
 6.2780	 4.7890
 6.2850	 4.8190
 6.2930	 4.9380
 6.3010	 4.8790
 6.3080	 4.9660
 6.3160	 5.0320
 6.3240	 5.1650
 6.3310	 5.1620
 6.3390	 5.1520
 6.3470	 5.1650
 6.3550	 5.2830
 6.3620	 5.2800
 6.3700	 5.2940
 6.3780	 5.2560
 6.3860	 5.2800
 6.3940	 5.2760
 6.4020	 5.4260
 6.4100	 5.4000
 6.4180	 5.4160
 6.4260	 5.3720
 6.4330	 5.3620
 6.4410	 5.2780
 6.4490	 5.3120
 6.4580	 5.3640
 6.4660	 5.4670
 6.4740	 5.4070
 6.4820	 5.3620
 6.4900	 5.3260
 6.4980	 5.3250
 6.5060	 5.2310
 6.5140	 5.2510
 6.5230	 5.1750
 6.5310	 5.1220
 6.5390	 5.0060
 6.5470	 4.9020
 6.5550	 4.7030
 6.5640	 4.6500
 6.5720	 4.5030
 6.5800	 4.3680
 6.5890	 4.2850
 6.5970	 4.3770
 6.6060	 4.4590
 6.6140	 4.6120
 6.6220	 4.6440
 6.6310	 4.7240
 6.6390	 4.7460
 6.6480	 4.8380
 6.6560	 4.7970
 6.6650	 4.8250
 6.6740	 4.7800
 6.6820	 4.8400
 6.6910	 4.8540
 6.6990	 4.8760
 6.7080	 4.8850
 6.7170	 5.0010
 6.7260	 4.9290
 6.7340	 4.8940
 6.7430	 4.7700
 6.7520	 4.7410
 6.7610	 4.6180
 6.7690	 4.5910
 6.7780	 4.5180
 6.7870	 4.5260
 6.7960	 4.3300
 6.8050	 4.2620
 6.8140	 4.2200
 6.8230	 4.2550
 6.8320	 4.2490
 6.8410	 4.3430
 6.8500	 4.2400
 6.8590	 4.2190
 6.8680	 4.1670
 6.8770	 4.2550
 6.8860	 4.2910
 6.8950	 4.3650
 6.9050	 4.3620
 6.9140	 4.3650
 6.9230	 4.3520
 6.9320	 4.4360
 6.9420	 4.4090
 6.9510	 4.4400
 6.9600	 4.4560
 6.9700	 4.4720
 6.9790	 4.3430
 6.9880	 4.3510
 6.9980	 4.2580
 7.0070	 4.3060
 7.0170	 4.3010
 7.0260	 4.3340
 7.0360	 4.3320
 7.0450	 4.4190
 7.0550	 4.3380
 7.0650	 4.3480
 7.0740	 4.3900
 7.0840	 4.5240
 7.0940	 4.4120
 7.1030	 4.4060
 7.1130	 4.3630
 7.1230	 4.4180
 7.1330	 4.3380
 7.1420	 4.3180
 7.1520	 4.2420
 7.1620	 4.2160
 7.1720	 4.0990
 7.1820	 4.1730
 7.1920	 4.0000
 7.2020	 3.9390
 7.2120	 3.8470
 7.2220	 3.7780
 7.2320	 3.6660
 7.2420	 3.8030
 7.2520	 3.7620
 7.2620	 3.8030
 7.2730	 3.7280
 7.2830	 3.7600
 7.2930	 3.7390
 7.3030	 3.7820
 7.3140	 3.7890
 7.3240	 3.9130
 7.3340	 3.9360
 7.3450	 3.9890
 7.3550	 4.0050
 7.3660	 4.2250
 7.3760	 4.2730
 7.3870	 4.3480
 7.3970	 4.3370
 7.4080	 4.4640
 7.4180	 4.4280
 7.4290	 4.4060
 7.4400	 4.2560
 7.4500	 4.2950
 7.4610	 4.2030
 7.4720	 4.1760
 7.4830	 4.0760
 7.4930	 4.0340
 7.5040	 3.9290
 7.5150	 4.0110
 7.5260	 3.9820
 7.5370	 4.0070
 7.5480	 3.8830
 7.5590	 3.9340
 7.5700	 3.7810
 7.5810	 3.7420
 7.5920	 3.6860
 7.6030	 3.8540
 7.6140	 3.8580
 7.6260	 3.8860
 7.6370	 3.8110
 7.6480	 3.8600
 7.6590	 3.7950
 7.6710	 3.8550
 7.6820	 3.8820
 7.6930	 3.9770
 7.7050	 3.8700
 7.7160	 3.9600
 7.7280	 3.8750
 7.7390	 3.7950
 7.7510	 3.7310
 7.7630	 3.8040
 7.7740	 3.6920
 7.7860	 3.7920
 7.7980	 3.7510
 7.8090	 3.8830
 7.8210	 3.7750
 7.8330	 3.7730
 7.8450	 3.6670
 7.8570	 3.7020
 7.8690	 3.6340
 7.8810	 3.6730
 7.8930	 3.6920
 7.9050	 3.7790
 7.9170	 3.6440
 7.9290	 3.7080
 7.9410	 3.7130
 7.9530	 3.7410
 7.9650	 3.6290
 7.9780	 3.7310
 7.9900	 3.6990
 8.0020	 3.7940
 8.0150	 3.7460
 8.0270	 3.8170
 8.0390	 3.7420
 8.0520	 3.8530
 8.0640	 3.8600
 8.0770	 3.9790
 8.0900	 3.9030
 8.1020	 4.1290
 8.1150	 4.1620
 8.1280	 4.2270
 8.1400	 4.1000
 8.1530	 4.2960
 8.1660	 4.2680
 8.1790	 4.3650
 8.1920	 4.1820
 8.2050	 4.2660
 8.2180	 4.2560
 8.2310	 4.3030
 8.2440	 4.3170
 8.2570	 4.6120
 8.2700	 4.6220
 8.2830	 4.7000
 8.2970	 4.6480
 8.3100	 4.7970
 8.3230	 4.6740
 8.3370	 4.7260
 8.3500	 4.6820
 8.3640	 4.7120
 8.3770	 4.5790
 8.3910	 4.7050
 8.4040	 4.6270
 8.4180	 4.6460
 8.4320	 4.4390
 8.4450	 4.4710
 8.4590	 4.3520
 8.4730	 4.5280
 8.4870	 4.6010
 8.5010	 4.9050
 8.5150	 4.9580
 8.5290	 5.0090
 8.5430	 4.8880
 8.5570	 5.0510
 8.5710	 4.9690
 8.5850	 5.1140
 8.5990	 5.1160
 8.6140	 5.1050
 8.6280	 4.9250
 8.6420	 5.1570
 8.6570	 5.0480
 8.6710	 5.1640
 8.6860	 5.0770
 8.7000	 5.0730
 8.7150	 4.8310
 8.7300	 5.0150
 8.7440	 5.0560
 8.7590	 5.1020
 8.7740	 4.9320
 8.7890	 5.0540
 8.8040	 4.8910
 8.8190	 4.9860
 8.8340	 4.7590
 8.8490	 4.7860
 8.8640	 4.6660
 8.8790	 4.7360
 8.8940	 4.6150
 8.9100	 4.7200
 8.9250	 4.5660
 8.9400	 4.7300
 8.9560	 4.6910
 8.9710	 4.7290
 8.9870	 4.5550
 9.0020	 4.6990
 9.0180	 4.5460
 9.0340	 4.7030
 9.0500	 4.5200
 9.0650	 4.5790
 9.0810	 4.4750
 9.0970	 4.6010
 9.1130	 4.5690
 9.1290	 4.6870
 9.1450	 4.5190
 9.1610	 4.6990
 9.1780	 4.6260
 9.1940	 4.7750
 9.2100	 4.5830
 9.2270	 4.7100
 9.2430	 4.6170
 9.2600	 4.7760
 9.2760	 4.5570
 9.2930	 4.6240
 9.3090	 4.5480
 9.3260	 4.6480
 9.3430	 4.4820
 9.3600	 4.5600
 9.3770	 4.5080
 9.3940	 4.7500
 9.4110	 4.6410
 9.4280	 4.8720
 9.4450	 4.7370
 9.4620	 4.7000
 9.4800	 4.5880
 9.4970	 4.8000
 9.5140	 4.7720
 9.5320	 5.0030
 9.5500	 4.8320
 9.5670	 4.9550
 9.5850	 4.7320
 9.6030	 4.8380
 9.6200	 4.8220
 9.6380	 4.9250
 9.6560	 4.7040
 9.6740	 4.9490
 9.6920	 4.8690
 9.7100	 4.9900
 9.7290	 4.8900
 9.7470	 5.0420
 9.7650	 4.9900
 9.7840	 5.1380
 9.8020	 4.8940
 9.8210	 5.0090
 9.8390	 4.9220
 9.8580	 5.1850
 9.8770	 5.1230
 9.8960	 5.2150
 9.9150	 5.1220
 9.9340	 5.3260
 9.9530	 5.3200
 9.9720	 5.4700
 9.9910	 5.1630
10.0100	 5.1160
10.0300	 4.9520
10.0490	 5.0050
10.0690	 4.9700
10.0880	 5.1260
10.1080	 4.9210
10.1280	 5.1530
10.1480	 5.1690
10.1670	 5.4330
10.1870	 5.5110
10.2070	 5.5770
10.2280	 5.3120
10.2480	 5.6740
10.2680	 5.6400
10.2890	 5.6840
10.3090	 5.5910
10.3300	 5.7260
10.3500	 5.6160
10.3710	 5.8870
10.3920	 5.8510
10.4120	 5.9960
10.4330	 5.9280
10.4540	 6.1090
10.4760	 6.0630
10.4970	 6.2800
10.5180	 6.1160
10.5390	 6.2430
10.5610	 6.1030
10.5820	 6.2170
10.6040	 6.0970
10.6260	 6.2170
10.6480	 6.0720
10.6700	 6.0760
10.6920	 5.8330
10.7140	 6.0140
10.7360	 5.9260
10.7580	 6.0620
10.7800	 5.9690
10.8030	 6.1540
10.8250	 5.9910
10.8480	 6.0150
10.8710	 5.8430
10.8940	 5.9690
10.9170	 5.7260
10.9400	 5.8300
10.9630	 5.6900
10.9860	 5.9760
11.0090	 5.8490
11.0330	 5.7900
11.0560	 5.4770
11.0800	 5.6190
11.1040	 5.0250
11.1270	 4.9240
11.1510	 5.2800
11.1750	 5.6410
11.2000	 5.5910
11.2240	 5.6810
11.2480	 5.5950
11.2730	 5.9510
11.2970	 6.0490
11.3220	 5.9630
11.3470	 5.5620
11.3720	 5.6690
11.3970	 5.5710
11.4220	 5.7860
11.4470	 5.6720
11.4720	 6.0650
11.4980	 5.7330
11.5230	 5.7190
11.5490	 5.5600
11.5750	 5.7590
11.6000	 5.6770
11.6260	 5.7750
11.6530	 5.4970
11.6790	 5.6730
11.7050	 5.4550
11.7320	 5.4650
11.7580	 5.3050
11.7850	 5.5240
11.8120	 5.3790
11.8390	 5.6330
11.8660	 5.4810
11.8930	 5.6180
11.9200	 5.3730
11.9480	 5.6450
11.9760	 5.5080
12.0030	 5.7070
12.0310	 5.6900
12.0590	 5.9090
12.0870	 5.6100
12.1150	 5.7900
12.1440	 5.7240
12.1720	 6.0580
12.2010	 5.9170
12.2300	 6.0980
12.2590	 5.8580
12.2880	 5.9890
12.3170	 5.8690
12.3460	 6.0930
12.3760	 5.8950
12.4050	 6.0250
12.4350	 5.7150
12.4650	 6.1240
12.4950	 5.8290
12.5250	 5.9350
12.5550	 5.8170
12.5860	 6.0340
12.6170	 5.7690
12.6470	 5.9570
12.6780	 5.6930
12.7090	 5.8070
12.7410	 5.5150
12.7720	 5.7920
12.8030	 5.5200
12.8350	 5.7740
12.8670	 5.5310
12.8990	 5.6300
12.9310	 5.3680
12.9640	 5.6080
12.9960	 5.4120
13.0290	 5.7370
13.0610	 5.7440
13.0940	 6.0340
13.1280	 5.5260
13.1610	 5.5450
13.1940	 5.1930
13.2280	 5.5710
13.2620	 5.4430
13.2960	 5.6670
13.3300	 5.3260
13.3640	 5.5110
13.3990	 5.2170
13.4340	 5.4490
13.4690	 5.1580
13.5040	 5.3260
13.5390	 4.9400
13.5740	 5.2360
13.6100	 5.1870
13.6460	 5.6240
13.6820	 5.2180
13.7180	 5.2800
13.7540	 4.8420
13.7910	 5.1640
13.8280	 4.8270
13.8650	 5.1900
13.9020	 4.9730
13.9390	 5.5150
13.9770	 5.0900
14.0150	 5.1550
14.0530	 5.1290
14.0910	 5.3550
14.1290	 4.7350
14.1680	 5.2760
14.2070	 5.0190
14.2460	 5.2530
14.2850	 4.7870
14.3240	 5.1180
14.3640	 4.8920
14.4040	 5.3010
14.4440	 4.8430
14.4840	 5.2110
14.5250	 4.7880
14.5660	 5.2180
14.6070	 4.8690
14.6480	 5.1990
14.6900	 4.7180
14.7310	 5.2760
14.7730	 4.8660
14.8150	 5.2850
14.8580	 4.6840
14.9010	 4.8690
14.9440	 3.4440
14.9870	 4.1570
15.0300	 4.2950
15.0740	 5.1680
15.1180	 4.5710
15.1620	 4.6620
15.2060	 4.0090
15.2510	 4.6360
15.2960	 4.1470
15.3410	 5.2490
15.3870	 4.7410
