Name: Quercus lobata 1
Type: vegetation
Class: Tree
Genus: Quercus
Species: lobata
Sample No.: VH281
Owner: UCSB
Wavelength Range: VSWIR
Origin: 34.7139; -120.0598; WGS84
Collection Date: 11/2/2013
Description: Samples were collected as part of the HyspIRI Airborne Campaign. 48 individual plants were sampled in three times in 2013 - spring  summer  and fall. The name of the sample includes a 1  2  or 3 which references a different individual of the species. Samples were taken to JPL and processed within 48 hours of collection. The same leaves were processed in the Nicolet and then measured using the ASD.
Measurement: Bidirectional reflectance
First Column: X
Second Column: Y
X Units: Wavelength (micrometers)
Y Units: Reflectance (percentage)
First X Value: 0.35
Last X Value: 2.5
Number of X Values: 2151
Additional Information: vegetation.tree.quercus.lobata.vswir.vh281.ucsb.asd.ancillary.txt

 0.3500	 4.6860
 0.3510	 4.6980
 0.3520	 4.7470
 0.3530	 4.8270
 0.3540	 4.8770
 0.3550	 4.7900
 0.3560	 4.6670
 0.3570	 4.6470
 0.3580	 4.8090
 0.3590	 4.5490
 0.3600	 4.4690
 0.3610	 4.6990
 0.3620	 4.5610
 0.3630	 4.5020
 0.3640	 4.5700
 0.3650	 4.6810
 0.3660	 4.6750
 0.3670	 4.6340
 0.3680	 4.5960
 0.3690	 4.5680
 0.3700	 4.6470
 0.3710	 4.6970
 0.3720	 4.6600
 0.3730	 4.6610
 0.3740	 4.7740
 0.3750	 4.8440
 0.3760	 4.7330
 0.3770	 4.7350
 0.3780	 4.7640
 0.3790	 4.7800
 0.3800	 4.7970
 0.3810	 4.8380
 0.3820	 4.8710
 0.3830	 4.8740
 0.3840	 4.8530
 0.3850	 4.8550
 0.3860	 4.9100
 0.3870	 5.0090
 0.3880	 4.9990
 0.3890	 5.0070
 0.3900	 5.0480
 0.3910	 5.0150
 0.3920	 5.0580
 0.3930	 5.1490
 0.3940	 5.2310
 0.3950	 5.2740
 0.3960	 5.2530
 0.3970	 5.2230
 0.3980	 5.2670
 0.3990	 5.3390
 0.4000	 5.4120
 0.4010	 5.4740
 0.4020	 5.5320
 0.4030	 5.6110
 0.4040	 5.6660
 0.4050	 5.6720
 0.4060	 5.7250
 0.4070	 5.7930
 0.4080	 5.8590
 0.4090	 5.9140
 0.4100	 5.9800
 0.4110	 6.0490
 0.4120	 6.1120
 0.4130	 6.1700
 0.4140	 6.2380
 0.4150	 6.3000
 0.4160	 6.3450
 0.4170	 6.4150
 0.4180	 6.4870
 0.4190	 6.5530
 0.4200	 6.6200
 0.4210	 6.6720
 0.4220	 6.7190
 0.4230	 6.7710
 0.4240	 6.8240
 0.4250	 6.8730
 0.4260	 6.9160
 0.4270	 6.9600
 0.4280	 7.0250
 0.4290	 7.0720
 0.4300	 7.0990
 0.4310	 7.1620
 0.4320	 7.1900
 0.4330	 7.2180
 0.4340	 7.2780
 0.4350	 7.3120
 0.4360	 7.3440
 0.4370	 7.3770
 0.4380	 7.4020
 0.4390	 7.4260
 0.4400	 7.4560
 0.4410	 7.4940
 0.4420	 7.5300
 0.4430	 7.5550
 0.4440	 7.5740
 0.4450	 7.5990
 0.4460	 7.6330
 0.4470	 7.6650
 0.4480	 7.6890
 0.4490	 7.7130
 0.4500	 7.7210
 0.4510	 7.7350
 0.4520	 7.7690
 0.4530	 7.7900
 0.4540	 7.8080
 0.4550	 7.8300
 0.4560	 7.8630
 0.4570	 7.8800
 0.4580	 7.8920
 0.4590	 7.9080
 0.4600	 7.9200
 0.4610	 7.9330
 0.4620	 7.9520
 0.4630	 7.9800
 0.4640	 7.9970
 0.4650	 8.0130
 0.4660	 8.0310
 0.4670	 8.0420
 0.4680	 8.0640
 0.4690	 8.0800
 0.4700	 8.0810
 0.4710	 8.1050
 0.4720	 8.1280
 0.4730	 8.1420
 0.4740	 8.1450
 0.4750	 8.1540
 0.4760	 8.1660
 0.4770	 8.1790
 0.4780	 8.2030
 0.4790	 8.2140
 0.4800	 8.2200
 0.4810	 8.2370
 0.4820	 8.2500
 0.4830	 8.2570
 0.4840	 8.2630
 0.4850	 8.2750
 0.4860	 8.2920
 0.4870	 8.3050
 0.4880	 8.3140
 0.4890	 8.3370
 0.4900	 8.3530
 0.4910	 8.3620
 0.4920	 8.3740
 0.4930	 8.3880
 0.4940	 8.4020
 0.4950	 8.4190
 0.4960	 8.4430
 0.4970	 8.4660
 0.4980	 8.4880
 0.4990	 8.5090
 0.5000	 8.5330
 0.5010	 8.5630
 0.5020	 8.5950
 0.5030	 8.6240
 0.5040	 8.6570
 0.5050	 8.6940
 0.5060	 8.7340
 0.5070	 8.7730
 0.5080	 8.8150
 0.5090	 8.8630
 0.5100	 8.9180
 0.5110	 8.9740
 0.5120	 9.0340
 0.5130	 9.0990
 0.5140	 9.1710
 0.5150	 9.2550
 0.5160	 9.3420
 0.5170	 9.4240
 0.5180	 9.5160
 0.5190	 9.6160
 0.5200	 9.7220
 0.5210	 9.8350
 0.5220	 9.9450
 0.5230	10.0540
 0.5240	10.1650
 0.5250	10.2780
 0.5260	10.3880
 0.5270	10.4930
 0.5280	10.5920
 0.5290	10.6870
 0.5300	10.7780
 0.5310	10.8650
 0.5320	10.9450
 0.5330	11.0180
 0.5340	11.0850
 0.5350	11.1470
 0.5360	11.2110
 0.5370	11.2690
 0.5380	11.3200
 0.5390	11.3680
 0.5400	11.4110
 0.5410	11.4540
 0.5420	11.5000
 0.5430	11.5390
 0.5440	11.5850
 0.5450	11.6350
 0.5460	11.6830
 0.5470	11.7250
 0.5480	11.7610
 0.5490	11.7910
 0.5500	11.8210
 0.5510	11.8520
 0.5520	11.8760
 0.5530	11.8860
 0.5540	11.8910
 0.5550	11.8850
 0.5560	11.8700
 0.5570	11.8490
 0.5580	11.8230
 0.5590	11.7920
 0.5600	11.7570
 0.5610	11.7210
 0.5620	11.6780
 0.5630	11.6310
 0.5640	11.5850
 0.5650	11.5350
 0.5660	11.4890
 0.5670	11.4440
 0.5680	11.3790
 0.5690	11.3090
 0.5700	11.2430
 0.5710	11.1840
 0.5720	11.1310
 0.5730	11.0720
 0.5740	11.0080
 0.5750	10.9480
 0.5760	10.8950
 0.5770	10.8520
 0.5780	10.8180
 0.5790	10.7900
 0.5800	10.7660
 0.5810	10.7450
 0.5820	10.7230
 0.5830	10.6990
 0.5840	10.6680
 0.5850	10.6310
 0.5860	10.6040
 0.5870	10.5870
 0.5880	10.5720
 0.5890	10.5540
 0.5900	10.5380
 0.5910	10.5200
 0.5920	10.5030
 0.5930	10.4970
 0.5940	10.4920
 0.5950	10.4830
 0.5960	10.4700
 0.5970	10.4570
 0.5980	10.4420
 0.5990	10.4290
 0.6000	10.4180
 0.6010	10.4110
 0.6020	10.4040
 0.6030	10.3920
 0.6040	10.3730
 0.6050	10.3520
 0.6060	10.3320
 0.6070	10.3130
 0.6080	10.2930
 0.6090	10.2680
 0.6100	10.2400
 0.6110	10.2140
 0.6120	10.1950
 0.6130	10.1750
 0.6140	10.1500
 0.6150	10.1270
 0.6160	10.1080
 0.6170	10.0890
 0.6180	10.0700
 0.6190	10.0560
 0.6200	10.0480
 0.6210	10.0410
 0.6220	10.0310
 0.6230	10.0250
 0.6240	10.0210
 0.6250	10.0180
 0.6260	10.0220
 0.6270	10.0260
 0.6280	10.0280
 0.6290	10.0310
 0.6300	10.0380
 0.6310	10.0450
 0.6320	10.0500
 0.6330	10.0550
 0.6340	10.0540
 0.6350	10.0480
 0.6360	10.0420
 0.6370	10.0350
 0.6380	10.0240
 0.6390	10.0080
 0.6400	 9.9870
 0.6410	 9.9680
 0.6420	 9.9460
 0.6430	 9.9210
 0.6440	 9.9050
 0.6450	 9.8840
 0.6460	 9.8610
 0.6470	 9.8420
 0.6480	 9.8180
 0.6490	 9.8010
 0.6500	 9.7920
 0.6510	 9.7790
 0.6520	 9.7650
 0.6530	 9.7540
 0.6540	 9.7460
 0.6550	 9.7350
 0.6560	 9.7200
 0.6570	 9.7020
 0.6580	 9.6830
 0.6590	 9.6650
 0.6600	 9.6470
 0.6610	 9.6280
 0.6620	 9.6070
 0.6630	 9.5850
 0.6640	 9.5660
 0.6650	 9.5520
 0.6660	 9.5430
 0.6670	 9.5330
 0.6680	 9.5230
 0.6690	 9.5130
 0.6700	 9.5090
 0.6710	 9.5120
 0.6720	 9.5170
 0.6730	 9.5190
 0.6740	 9.5250
 0.6750	 9.5310
 0.6760	 9.5370
 0.6770	 9.5560
 0.6780	 9.5790
 0.6790	 9.6000
 0.6800	 9.6170
 0.6810	 9.6470
 0.6820	 9.6780
 0.6830	 9.7060
 0.6840	 9.7470
 0.6850	 9.7930
 0.6860	 9.8450
 0.6870	 9.9080
 0.6880	 9.9760
 0.6890	10.0610
 0.6900	10.1650
 0.6910	10.2870
 0.6920	10.4360
 0.6930	10.6200
 0.6940	10.8460
 0.6950	11.1100
 0.6960	11.4250
 0.6970	11.7920
 0.6980	12.2130
 0.6990	12.6870
 0.7000	13.2140
 0.7010	13.7900
 0.7020	14.4130
 0.7030	15.0720
 0.7040	15.7680
 0.7050	16.4980
 0.7060	17.2580
 0.7070	18.0380
 0.7080	18.8350
 0.7090	19.6560
 0.7100	20.4920
 0.7110	21.3420
 0.7120	22.2080
 0.7130	23.0910
 0.7140	23.9820
 0.7150	24.8830
 0.7160	25.7930
 0.7170	26.7050
 0.7180	27.6160
 0.7190	28.5300
 0.7200	29.4500
 0.7210	30.3690
 0.7220	31.2760
 0.7230	32.1720
 0.7240	33.0630
 0.7250	33.9430
 0.7260	34.8040
 0.7270	35.6440
 0.7280	36.4650
 0.7290	37.2590
 0.7300	38.0310
 0.7310	38.7840
 0.7320	39.5080
 0.7330	40.2050
 0.7340	40.8750
 0.7350	41.5150
 0.7360	42.1380
 0.7370	42.7320
 0.7380	43.2920
 0.7390	43.8220
 0.7400	44.3350
 0.7410	44.8200
 0.7420	45.2670
 0.7430	45.6930
 0.7440	46.1010
 0.7450	46.4850
 0.7460	46.8390
 0.7470	47.1800
 0.7480	47.5010
 0.7490	47.7910
 0.7500	48.0530
 0.7510	48.3090
 0.7520	48.5530
 0.7530	48.7690
 0.7540	48.9720
 0.7550	49.1550
 0.7560	49.3190
 0.7570	49.4720
 0.7580	49.6150
 0.7590	49.7540
 0.7600	49.8850
 0.7610	49.9930
 0.7620	50.0980
 0.7630	50.1970
 0.7640	50.2860
 0.7650	50.3670
 0.7660	50.4400
 0.7670	50.5090
 0.7680	50.5790
 0.7690	50.6320
 0.7700	50.6840
 0.7710	50.7400
 0.7720	50.7830
 0.7730	50.8340
 0.7740	50.8820
 0.7750	50.9180
 0.7760	50.9510
 0.7770	50.9950
 0.7780	51.0400
 0.7790	51.0690
 0.7800	51.0880
 0.7810	51.1140
 0.7820	51.1510
 0.7830	51.1820
 0.7840	51.2190
 0.7850	51.2520
 0.7860	51.2790
 0.7870	51.3080
 0.7880	51.3440
 0.7890	51.3750
 0.7900	51.3900
 0.7910	51.4130
 0.7920	51.4390
 0.7930	51.4660
 0.7940	51.4950
 0.7950	51.5380
 0.7960	51.5720
 0.7970	51.5920
 0.7980	51.6250
 0.7990	51.6550
 0.8000	51.6820
 0.8010	51.7120
 0.8020	51.7580
 0.8030	51.7900
 0.8040	51.8090
 0.8050	51.8300
 0.8060	51.8650
 0.8070	51.9000
 0.8080	51.9300
 0.8090	51.9590
 0.8100	51.9930
 0.8110	52.0270
 0.8120	52.0630
 0.8130	52.1140
 0.8140	52.1450
 0.8150	52.1710
 0.8160	52.2110
 0.8170	52.2400
 0.8180	52.2840
 0.8190	52.3320
 0.8200	52.3670
 0.8210	52.4020
 0.8220	52.4370
 0.8230	52.4680
 0.8240	52.4880
 0.8250	52.5360
 0.8260	52.5880
 0.8270	52.6250
 0.8280	52.6560
 0.8290	52.6940
 0.8300	52.7280
 0.8310	52.7490
 0.8320	52.7900
 0.8330	52.8290
 0.8340	52.8600
 0.8350	52.8870
 0.8360	52.9250
 0.8370	52.9630
 0.8380	53.0010
 0.8390	53.0440
 0.8400	53.0830
 0.8410	53.1200
 0.8420	53.1580
 0.8430	53.1870
 0.8440	53.2340
 0.8450	53.2740
 0.8460	53.2940
 0.8470	53.3280
 0.8480	53.3720
 0.8490	53.4060
 0.8500	53.4150
 0.8510	53.4530
 0.8520	53.4930
 0.8530	53.5270
 0.8540	53.5580
 0.8550	53.5790
 0.8560	53.6090
 0.8570	53.6440
 0.8580	53.6610
 0.8590	53.6800
 0.8600	53.7030
 0.8610	53.7240
 0.8620	53.7450
 0.8630	53.7710
 0.8640	53.8000
 0.8650	53.8260
 0.8660	53.8440
 0.8670	53.8560
 0.8680	53.8740
 0.8690	53.9000
 0.8700	53.9030
 0.8710	53.9070
 0.8720	53.9220
 0.8730	53.9440
 0.8740	53.9620
 0.8750	53.9780
 0.8760	53.9910
 0.8770	53.9980
 0.8780	54.0130
 0.8790	54.0190
 0.8800	54.0200
 0.8810	54.0430
 0.8820	54.0520
 0.8830	54.0500
 0.8840	54.0500
 0.8850	54.0630
 0.8860	54.0640
 0.8870	54.0620
 0.8880	54.0680
 0.8890	54.0610
 0.8900	54.0560
 0.8910	54.0590
 0.8920	54.0660
 0.8930	54.0700
 0.8940	54.0730
 0.8950	54.0750
 0.8960	54.0730
 0.8970	54.0710
 0.8980	54.0690
 0.8990	54.0660
 0.9000	54.0610
 0.9010	54.0580
 0.9020	54.0580
 0.9030	54.0570
 0.9040	54.0480
 0.9050	54.0410
 0.9060	54.0320
 0.9070	54.0260
 0.9080	54.0390
 0.9090	54.0410
 0.9100	54.0290
 0.9110	54.0140
 0.9120	54.0080
 0.9130	54.0050
 0.9140	54.0010
 0.9150	53.9960
 0.9160	53.9870
 0.9170	53.9690
 0.9180	53.9580
 0.9190	53.9710
 0.9200	53.9730
 0.9210	53.9700
 0.9220	53.9590
 0.9230	53.9390
 0.9240	53.9350
 0.9250	53.9310
 0.9260	53.9200
 0.9270	53.9030
 0.9280	53.8790
 0.9290	53.8640
 0.9300	53.8540
 0.9310	53.8300
 0.9320	53.8110
 0.9330	53.7960
 0.9340	53.7790
 0.9350	53.7530
 0.9360	53.7360
 0.9370	53.7170
 0.9380	53.6900
 0.9390	53.6650
 0.9400	53.6360
 0.9410	53.6150
 0.9420	53.6030
 0.9430	53.5690
 0.9440	53.5440
 0.9450	53.5180
 0.9460	53.4830
 0.9470	53.4410
 0.9480	53.3930
 0.9490	53.3450
 0.9500	53.3010
 0.9510	53.2430
 0.9520	53.1880
 0.9530	53.1280
 0.9540	53.0570
 0.9550	53.0060
 0.9560	52.9540
 0.9570	52.9000
 0.9580	52.8430
 0.9590	52.7740
 0.9600	52.7160
 0.9610	52.6800
 0.9620	52.6610
 0.9630	52.6440
 0.9640	52.5940
 0.9650	52.5490
 0.9660	52.5530
 0.9670	52.5370
 0.9680	52.5310
 0.9690	52.5340
 0.9700	52.5360
 0.9710	52.5560
 0.9720	52.5380
 0.9730	52.5120
 0.9740	52.5250
 0.9750	52.5210
 0.9760	52.5300
 0.9770	52.5500
 0.9780	52.5630
 0.9790	52.5770
 0.9800	52.5880
 0.9810	52.6080
 0.9820	52.6470
 0.9830	52.6690
 0.9840	52.6990
 0.9850	52.7210
 0.9860	52.7140
 0.9870	52.7320
 0.9880	52.7710
 0.9890	52.8090
 0.9900	52.8230
 0.9910	52.8580
 0.9920	52.8980
 0.9930	52.9360
 0.9940	52.9730
 0.9950	53.0190
 0.9960	53.0400
 0.9970	53.0470
 0.9980	53.0670
 0.9990	53.0830
 1.0000	53.2100
 1.0010	53.3530
 1.0020	53.4570
 1.0030	53.4980
 1.0040	53.5460
 1.0050	53.5920
 1.0060	53.6340
 1.0070	53.6740
 1.0080	53.7130
 1.0090	53.7420
 1.0100	53.7780
 1.0110	53.8210
 1.0120	53.8610
 1.0130	53.9020
 1.0140	53.9380
 1.0150	53.9690
 1.0160	54.0010
 1.0170	54.0330
 1.0180	54.0640
 1.0190	54.0930
 1.0200	54.1270
 1.0210	54.1650
 1.0220	54.1950
 1.0230	54.2300
 1.0240	54.2750
 1.0250	54.3090
 1.0260	54.3340
 1.0270	54.3650
 1.0280	54.3940
 1.0290	54.4230
 1.0300	54.4550
 1.0310	54.4840
 1.0320	54.5080
 1.0330	54.5380
 1.0340	54.5650
 1.0350	54.5900
 1.0360	54.6190
 1.0370	54.6460
 1.0380	54.6750
 1.0390	54.7070
 1.0400	54.7330
 1.0410	54.7560
 1.0420	54.7790
 1.0430	54.7990
 1.0440	54.8200
 1.0450	54.8410
 1.0460	54.8630
 1.0470	54.8890
 1.0480	54.9100
 1.0490	54.9280
 1.0500	54.9470
 1.0510	54.9630
 1.0520	54.9780
 1.0530	54.9930
 1.0540	55.0080
 1.0550	55.0240
 1.0560	55.0380
 1.0570	55.0520
 1.0580	55.0680
 1.0590	55.0810
 1.0600	55.0910
 1.0610	55.1010
 1.0620	55.1110
 1.0630	55.1220
 1.0640	55.1360
 1.0650	55.1440
 1.0660	55.1500
 1.0670	55.1560
 1.0680	55.1600
 1.0690	55.1590
 1.0700	55.1610
 1.0710	55.1640
 1.0720	55.1670
 1.0730	55.1690
 1.0740	55.1690
 1.0750	55.1670
 1.0760	55.1650
 1.0770	55.1580
 1.0780	55.1530
 1.0790	55.1500
 1.0800	55.1460
 1.0810	55.1430
 1.0820	55.1390
 1.0830	55.1330
 1.0840	55.1270
 1.0850	55.1190
 1.0860	55.1100
 1.0870	55.1020
 1.0880	55.0940
 1.0890	55.0820
 1.0900	55.0670
 1.0910	55.0550
 1.0920	55.0410
 1.0930	55.0270
 1.0940	55.0180
 1.0950	55.0050
 1.0960	54.9930
 1.0970	54.9750
 1.0980	54.9530
 1.0990	54.9340
 1.1000	54.9080
 1.1010	54.8890
 1.1020	54.8750
 1.1030	54.8640
 1.1040	54.8520
 1.1050	54.8360
 1.1060	54.8180
 1.1070	54.7970
 1.1080	54.7780
 1.1090	54.7600
 1.1100	54.7400
 1.1110	54.7200
 1.1120	54.6980
 1.1130	54.6770
 1.1140	54.6510
 1.1150	54.6240
 1.1160	54.5950
 1.1170	54.5640
 1.1180	54.5310
 1.1190	54.4980
 1.1200	54.4620
 1.1210	54.4220
 1.1220	54.3810
 1.1230	54.3330
 1.1240	54.2820
 1.1250	54.2280
 1.1260	54.1710
 1.1270	54.1060
 1.1280	54.0390
 1.1290	53.9600
 1.1300	53.8730
 1.1310	53.7780
 1.1320	53.6740
 1.1330	53.5630
 1.1340	53.4440
 1.1350	53.3200
 1.1360	53.1900
 1.1370	53.0530
 1.1380	52.9080
 1.1390	52.7580
 1.1400	52.5990
 1.1410	52.4360
 1.1420	52.2700
 1.1430	52.0980
 1.1440	51.9280
 1.1450	51.7530
 1.1460	51.5840
 1.1470	51.4140
 1.1480	51.2530
 1.1490	51.0950
 1.1500	50.9460
 1.1510	50.8020
 1.1520	50.6670
 1.1530	50.5380
 1.1540	50.4230
 1.1550	50.3180
 1.1560	50.2230
 1.1570	50.1400
 1.1580	50.0630
 1.1590	49.9950
 1.1600	49.9350
 1.1610	49.8830
 1.1620	49.8430
 1.1630	49.8070
 1.1640	49.7730
 1.1650	49.7450
 1.1660	49.7230
 1.1670	49.7030
 1.1680	49.6860
 1.1690	49.6730
 1.1700	49.6640
 1.1710	49.6530
 1.1720	49.6470
 1.1730	49.6390
 1.1740	49.6300
 1.1750	49.6200
 1.1760	49.6090
 1.1770	49.5980
 1.1780	49.5850
 1.1790	49.5710
 1.1800	49.5580
 1.1810	49.5440
 1.1820	49.5280
 1.1830	49.5120
 1.1840	49.4970
 1.1850	49.4850
 1.1860	49.4730
 1.1870	49.4620
 1.1880	49.4520
 1.1890	49.4400
 1.1900	49.4330
 1.1910	49.4300
 1.1920	49.4290
 1.1930	49.4340
 1.1940	49.4350
 1.1950	49.4370
 1.1960	49.4410
 1.1970	49.4440
 1.1980	49.4510
 1.1990	49.4630
 1.2000	49.4750
 1.2010	49.4880
 1.2020	49.5060
 1.2030	49.5240
 1.2040	49.5430
 1.2050	49.5670
 1.2060	49.5920
 1.2070	49.6170
 1.2080	49.6460
 1.2090	49.6740
 1.2100	49.7030
 1.2110	49.7350
 1.2120	49.7680
 1.2130	49.8000
 1.2140	49.8340
 1.2150	49.8690
 1.2160	49.9050
 1.2170	49.9430
 1.2180	49.9830
 1.2190	50.0210
 1.2200	50.0610
 1.2210	50.1000
 1.2220	50.1380
 1.2230	50.1790
 1.2240	50.2190
 1.2250	50.2610
 1.2260	50.3000
 1.2270	50.3370
 1.2280	50.3770
 1.2290	50.4130
 1.2300	50.4450
 1.2310	50.4770
 1.2320	50.5070
 1.2330	50.5380
 1.2340	50.5700
 1.2350	50.6080
 1.2360	50.6420
 1.2370	50.6750
 1.2380	50.7070
 1.2390	50.7380
 1.2400	50.7690
 1.2410	50.7980
 1.2420	50.8230
 1.2430	50.8470
 1.2440	50.8740
 1.2450	50.8990
 1.2460	50.9240
 1.2470	50.9500
 1.2480	50.9720
 1.2490	50.9940
 1.2500	51.0160
 1.2510	51.0350
 1.2520	51.0530
 1.2530	51.0710
 1.2540	51.0890
 1.2550	51.1040
 1.2560	51.1200
 1.2570	51.1320
 1.2580	51.1400
 1.2590	51.1490
 1.2600	51.1570
 1.2610	51.1650
 1.2620	51.1720
 1.2630	51.1780
 1.2640	51.1850
 1.2650	51.1900
 1.2660	51.1930
 1.2670	51.1980
 1.2680	51.1960
 1.2690	51.1930
 1.2700	51.1940
 1.2710	51.1900
 1.2720	51.1870
 1.2730	51.1860
 1.2740	51.1790
 1.2750	51.1740
 1.2760	51.1690
 1.2770	51.1640
 1.2780	51.1530
 1.2790	51.1410
 1.2800	51.1300
 1.2810	51.1130
 1.2820	51.0990
 1.2830	51.0840
 1.2840	51.0650
 1.2850	51.0480
 1.2860	51.0290
 1.2870	51.0060
 1.2880	50.9800
 1.2890	50.9540
 1.2900	50.9210
 1.2910	50.8860
 1.2920	50.8500
 1.2930	50.8070
 1.2940	50.7640
 1.2950	50.7190
 1.2960	50.6690
 1.2970	50.6170
 1.2980	50.5600
 1.2990	50.5000
 1.3000	50.4370
 1.3010	50.3710
 1.3020	50.3000
 1.3030	50.2260
 1.3040	50.1490
 1.3050	50.0720
 1.3060	49.9890
 1.3070	49.8990
 1.3080	49.8100
 1.3090	49.7130
 1.3100	49.6160
 1.3110	49.5200
 1.3120	49.4150
 1.3130	49.3090
 1.3140	49.1970
 1.3150	49.0770
 1.3160	48.9570
 1.3170	48.8340
 1.3180	48.7060
 1.3190	48.5790
 1.3200	48.4500
 1.3210	48.3130
 1.3220	48.1730
 1.3230	48.0260
 1.3240	47.8730
 1.3250	47.7210
 1.3260	47.5660
 1.3270	47.4100
 1.3280	47.2520
 1.3290	47.0890
 1.3300	46.9260
 1.3310	46.7570
 1.3320	46.5870
 1.3330	46.4210
 1.3340	46.2510
 1.3350	46.0790
 1.3360	45.9070
 1.3370	45.7310
 1.3380	45.5540
 1.3390	45.3780
 1.3400	45.2030
 1.3410	45.0300
 1.3420	44.8590
 1.3430	44.6890
 1.3440	44.5210
 1.3450	44.3530
 1.3460	44.1830
 1.3470	44.0170
 1.3480	43.8530
 1.3490	43.6920
 1.3500	43.5320
 1.3510	43.3760
 1.3520	43.2210
 1.3530	43.0660
 1.3540	42.9100
 1.3550	42.7540
 1.3560	42.5980
 1.3570	42.4420
 1.3580	42.2860
 1.3590	42.1240
 1.3600	41.9580
 1.3610	41.7870
 1.3620	41.6060
 1.3630	41.4230
 1.3640	41.2310
 1.3650	41.0260
 1.3660	40.8150
 1.3670	40.5940
 1.3680	40.3610
 1.3690	40.1160
 1.3700	39.8540
 1.3710	39.5790
 1.3720	39.2890
 1.3730	38.9810
 1.3740	38.6590
 1.3750	38.3180
 1.3760	37.9520
 1.3770	37.5630
 1.3780	37.1470
 1.3790	36.7040
 1.3800	36.2390
 1.3810	35.7440
 1.3820	35.2300
 1.3830	34.6940
 1.3840	34.1380
 1.3850	33.5580
 1.3860	32.9660
 1.3870	32.3480
 1.3880	31.7300
 1.3890	31.1000
 1.3900	30.4620
 1.3910	29.8260
 1.3920	29.1870
 1.3930	28.5460
 1.3940	27.9120
 1.3950	27.2780
 1.3960	26.6550
 1.3970	26.0450
 1.3980	25.4490
 1.3990	24.8760
 1.4000	24.3210
 1.4010	23.7830
 1.4020	23.2710
 1.4030	22.7760
 1.4040	22.3080
 1.4050	21.8690
 1.4060	21.4500
 1.4070	21.0600
 1.4080	20.6940
 1.4090	20.3470
 1.4100	20.0280
 1.4110	19.7300
 1.4120	19.4550
 1.4130	19.2020
 1.4140	18.9690
 1.4150	18.7570
 1.4160	18.5630
 1.4170	18.3860
 1.4180	18.2270
 1.4190	18.0790
 1.4200	17.9440
 1.4210	17.8210
 1.4220	17.7100
 1.4230	17.6150
 1.4240	17.5300
 1.4250	17.4520
 1.4260	17.3850
 1.4270	17.3230
 1.4280	17.2690
 1.4290	17.2220
 1.4300	17.1830
 1.4310	17.1490
 1.4320	17.1220
 1.4330	17.0980
 1.4340	17.0780
 1.4350	17.0640
 1.4360	17.0550
 1.4370	17.0480
 1.4380	17.0460
 1.4390	17.0480
 1.4400	17.0520
 1.4410	17.0580
 1.4420	17.0650
 1.4430	17.0760
 1.4440	17.0880
 1.4450	17.1010
 1.4460	17.1180
 1.4470	17.1350
 1.4480	17.1510
 1.4490	17.1690
 1.4500	17.1880
 1.4510	17.2080
 1.4520	17.2290
 1.4530	17.2510
 1.4540	17.2760
 1.4550	17.3020
 1.4560	17.3310
 1.4570	17.3610
 1.4580	17.3930
 1.4590	17.4290
 1.4600	17.4690
 1.4610	17.5130
 1.4620	17.5590
 1.4630	17.6090
 1.4640	17.6630
 1.4650	17.7210
 1.4660	17.7860
 1.4670	17.8550
 1.4680	17.9300
 1.4690	18.0080
 1.4700	18.0900
 1.4710	18.1770
 1.4720	18.2650
 1.4730	18.3600
 1.4740	18.4590
 1.4750	18.5600
 1.4760	18.6670
 1.4770	18.7760
 1.4780	18.8850
 1.4790	18.9980
 1.4800	19.1100
 1.4810	19.2250
 1.4820	19.3430
 1.4830	19.4620
 1.4840	19.5830
 1.4850	19.7040
 1.4860	19.8240
 1.4870	19.9460
 1.4880	20.0660
 1.4890	20.1890
 1.4900	20.3130
 1.4910	20.4390
 1.4920	20.5650
 1.4930	20.6930
 1.4940	20.8200
 1.4950	20.9480
 1.4960	21.0760
 1.4970	21.2030
 1.4980	21.3320
 1.4990	21.4600
 1.5000	21.5880
 1.5010	21.7180
 1.5020	21.8460
 1.5030	21.9720
 1.5040	22.0990
 1.5050	22.2260
 1.5060	22.3530
 1.5070	22.4820
 1.5080	22.6110
 1.5090	22.7400
 1.5100	22.8690
 1.5110	22.9950
 1.5120	23.1190
 1.5130	23.2420
 1.5140	23.3650
 1.5150	23.4890
 1.5160	23.6140
 1.5170	23.7380
 1.5180	23.8600
 1.5190	23.9800
 1.5200	24.1000
 1.5210	24.2180
 1.5220	24.3340
 1.5230	24.4520
 1.5240	24.5670
 1.5250	24.6830
 1.5260	24.7990
 1.5270	24.9130
 1.5280	25.0260
 1.5290	25.1360
 1.5300	25.2480
 1.5310	25.3590
 1.5320	25.4680
 1.5330	25.5810
 1.5340	25.6900
 1.5350	25.7970
 1.5360	25.9040
 1.5370	26.0080
 1.5380	26.1120
 1.5390	26.2150
 1.5400	26.3180
 1.5410	26.4210
 1.5420	26.5200
 1.5430	26.6200
 1.5440	26.7230
 1.5450	26.8190
 1.5460	26.9150
 1.5470	27.0140
 1.5480	27.1080
 1.5490	27.2050
 1.5500	27.3010
 1.5510	27.3940
 1.5520	27.4860
 1.5530	27.5770
 1.5540	27.6670
 1.5550	27.7570
 1.5560	27.8460
 1.5570	27.9320
 1.5580	28.0190
 1.5590	28.1070
 1.5600	28.1930
 1.5610	28.2790
 1.5620	28.3630
 1.5630	28.4480
 1.5640	28.5300
 1.5650	28.6110
 1.5660	28.6940
 1.5670	28.7750
 1.5680	28.8550
 1.5690	28.9350
 1.5700	29.0130
 1.5710	29.0920
 1.5720	29.1680
 1.5730	29.2440
 1.5740	29.3200
 1.5750	29.3960
 1.5760	29.4730
 1.5770	29.5500
 1.5780	29.6250
 1.5790	29.6990
 1.5800	29.7700
 1.5810	29.8420
 1.5820	29.9150
 1.5830	29.9870
 1.5840	30.0610
 1.5850	30.1330
 1.5860	30.2020
 1.5870	30.2730
 1.5880	30.3410
 1.5890	30.4080
 1.5900	30.4760
 1.5910	30.5450
 1.5920	30.6140
 1.5930	30.6830
 1.5940	30.7500
 1.5950	30.8140
 1.5960	30.8790
 1.5970	30.9430
 1.5980	31.0070
 1.5990	31.0700
 1.6000	31.1360
 1.6010	31.2000
 1.6020	31.2640
 1.6030	31.3300
 1.6040	31.3930
 1.6050	31.4540
 1.6060	31.5160
 1.6070	31.5780
 1.6080	31.6380
 1.6090	31.6950
 1.6100	31.7510
 1.6110	31.8080
 1.6120	31.8620
 1.6130	31.9160
 1.6140	31.9680
 1.6150	32.0160
 1.6160	32.0640
 1.6170	32.1130
 1.6180	32.1640
 1.6190	32.2140
 1.6200	32.2610
 1.6210	32.3050
 1.6220	32.3510
 1.6230	32.3930
 1.6240	32.4370
 1.6250	32.4810
 1.6260	32.5210
 1.6270	32.5610
 1.6280	32.6020
 1.6290	32.6440
 1.6300	32.6890
 1.6310	32.7290
 1.6320	32.7650
 1.6330	32.8010
 1.6340	32.8350
 1.6350	32.8670
 1.6360	32.8970
 1.6370	32.9260
 1.6380	32.9520
 1.6390	32.9760
 1.6400	33.0000
 1.6410	33.0210
 1.6420	33.0410
 1.6430	33.0570
 1.6440	33.0720
 1.6450	33.0820
 1.6460	33.0880
 1.6470	33.0940
 1.6480	33.0990
 1.6490	33.1020
 1.6500	33.1020
 1.6510	33.0990
 1.6520	33.0930
 1.6530	33.0850
 1.6540	33.0760
 1.6550	33.0660
 1.6560	33.0510
 1.6570	33.0350
 1.6580	33.0180
 1.6590	32.9990
 1.6600	32.9850
 1.6610	32.9730
 1.6620	32.9590
 1.6630	32.9480
 1.6640	32.9330
 1.6650	32.9180
 1.6660	32.9050
 1.6670	32.8940
 1.6680	32.8850
 1.6690	32.8770
 1.6700	32.8660
 1.6710	32.8570
 1.6720	32.8480
 1.6730	32.8350
 1.6740	32.8220
 1.6750	32.8040
 1.6760	32.7830
 1.6770	32.7650
 1.6780	32.7410
 1.6790	32.7130
 1.6800	32.6830
 1.6810	32.6470
 1.6820	32.6080
 1.6830	32.5670
 1.6840	32.5220
 1.6850	32.4760
 1.6860	32.4260
 1.6870	32.3760
 1.6880	32.3260
 1.6890	32.2680
 1.6900	32.2120
 1.6910	32.1530
 1.6920	32.0950
 1.6930	32.0400
 1.6940	31.9830
 1.6950	31.9280
 1.6960	31.8710
 1.6970	31.8130
 1.6980	31.7540
 1.6990	31.6970
 1.7000	31.6370
 1.7010	31.5760
 1.7020	31.5160
 1.7030	31.4570
 1.7040	31.3960
 1.7050	31.3370
 1.7060	31.2740
 1.7070	31.2070
 1.7080	31.1420
 1.7090	31.0760
 1.7100	31.0130
 1.7110	30.9530
 1.7120	30.8930
 1.7130	30.8360
 1.7140	30.7780
 1.7150	30.7220
 1.7160	30.6700
 1.7170	30.6170
 1.7180	30.5690
 1.7190	30.5220
 1.7200	30.4720
 1.7210	30.4250
 1.7220	30.3810
 1.7230	30.3370
 1.7240	30.2950
 1.7250	30.2550
 1.7260	30.2160
 1.7270	30.1790
 1.7280	30.1440
 1.7290	30.1100
 1.7300	30.0770
 1.7310	30.0440
 1.7320	30.0140
 1.7330	29.9830
 1.7340	29.9510
 1.7350	29.9180
 1.7360	29.8850
 1.7370	29.8460
 1.7380	29.8040
 1.7390	29.7590
 1.7400	29.7090
 1.7410	29.6580
 1.7420	29.6040
 1.7430	29.5500
 1.7440	29.4960
 1.7450	29.4390
 1.7460	29.3790
 1.7470	29.3180
 1.7480	29.2520
 1.7490	29.1890
 1.7500	29.1260
 1.7510	29.0630
 1.7520	29.0000
 1.7530	28.9360
 1.7540	28.8710
 1.7550	28.8060
 1.7560	28.7470
 1.7570	28.6940
 1.7580	28.6420
 1.7590	28.5900
 1.7600	28.5410
 1.7610	28.4870
 1.7620	28.4370
 1.7630	28.3880
 1.7640	28.3390
 1.7650	28.2920
 1.7660	28.2460
 1.7670	28.2000
 1.7680	28.1570
 1.7690	28.1170
 1.7700	28.0770
 1.7710	28.0370
 1.7720	28.0000
 1.7730	27.9620
 1.7740	27.9260
 1.7750	27.8940
 1.7760	27.8600
 1.7770	27.8260
 1.7780	27.7940
 1.7790	27.7630
 1.7800	27.7350
 1.7810	27.7070
 1.7820	27.6850
 1.7830	27.6660
 1.7840	27.6470
 1.7850	27.6310
 1.7860	27.6160
 1.7870	27.6010
 1.7880	27.5920
 1.7890	27.5840
 1.7900	27.5720
 1.7910	27.5640
 1.7920	27.5590
 1.7930	27.5530
 1.7940	27.5500
 1.7950	27.5470
 1.7960	27.5410
 1.7970	27.5400
 1.7980	27.5460
 1.7990	27.5500
 1.8000	27.5550
 1.8010	27.5600
 1.8020	27.5630
 1.8030	27.5670
 1.8040	27.5700
 1.8050	27.5750
 1.8060	27.5790
 1.8070	27.5860
 1.8080	27.5950
 1.8090	27.6040
 1.8100	27.6120
 1.8110	27.6170
 1.8120	27.6230
 1.8130	27.6240
 1.8140	27.6240
 1.8150	27.6280
 1.8160	27.6290
 1.8170	27.6320
 1.8180	27.6400
 1.8190	27.6480
 1.8200	27.6520
 1.8210	27.6540
 1.8220	27.6510
 1.8230	27.6420
 1.8240	27.6350
 1.8250	27.6260
 1.8260	27.6160
 1.8270	27.6060
 1.8280	27.5970
 1.8290	27.5890
 1.8300	27.5160
 1.8310	27.3950
 1.8320	27.3080
 1.8330	27.2760
 1.8340	27.2380
 1.8350	27.1970
 1.8360	27.1530
 1.8370	27.1130
 1.8380	27.0700
 1.8390	27.0160
 1.8400	26.9570
 1.8410	26.8900
 1.8420	26.8140
 1.8430	26.7290
 1.8440	26.6440
 1.8450	26.5510
 1.8460	26.4480
 1.8470	26.3410
 1.8480	26.2250
 1.8490	26.0940
 1.8500	25.9520
 1.8510	25.8000
 1.8520	25.6320
 1.8530	25.4530
 1.8540	25.2690
 1.8550	25.0710
 1.8560	24.8610
 1.8570	24.6420
 1.8580	24.4000
 1.8590	24.1460
 1.8600	23.8770
 1.8610	23.5970
 1.8620	23.2970
 1.8630	22.9920
 1.8640	22.6730
 1.8650	22.3350
 1.8660	21.9850
 1.8670	21.6150
 1.8680	21.2270
 1.8690	20.8250
 1.8700	20.4100
 1.8710	19.9800
 1.8720	19.5390
 1.8730	19.0870
 1.8740	18.6280
 1.8750	18.1630
 1.8760	17.6950
 1.8770	17.2290
 1.8780	16.7630
 1.8790	16.3000
 1.8800	15.8470
 1.8810	15.4000
 1.8820	14.9600
 1.8830	14.5290
 1.8840	14.1080
 1.8850	13.6960
 1.8860	13.2990
 1.8870	12.9190
 1.8880	12.5530
 1.8890	12.2080
 1.8900	11.8810
 1.8910	11.5720
 1.8920	11.2780
 1.8930	11.0090
 1.8940	10.7600
 1.8950	10.5300
 1.8960	10.3200
 1.8970	10.1270
 1.8980	 9.9530
 1.8990	 9.7950
 1.9000	 9.6500
 1.9010	 9.5260
 1.9020	 9.4080
 1.9030	 9.3020
 1.9040	 9.2030
 1.9050	 9.1140
 1.9060	 9.0390
 1.9070	 8.9740
 1.9080	 8.9190
 1.9090	 8.8750
 1.9100	 8.8350
 1.9110	 8.7970
 1.9120	 8.7630
 1.9130	 8.7340
 1.9140	 8.7060
 1.9150	 8.6840
 1.9160	 8.6680
 1.9170	 8.6540
 1.9180	 8.6420
 1.9190	 8.6320
 1.9200	 8.6240
 1.9210	 8.6190
 1.9220	 8.6140
 1.9230	 8.6090
 1.9240	 8.6090
 1.9250	 8.6130
 1.9260	 8.6190
 1.9270	 8.6250
 1.9280	 8.6310
 1.9290	 8.6360
 1.9300	 8.6390
 1.9310	 8.6440
 1.9320	 8.6540
 1.9330	 8.6650
 1.9340	 8.6790
 1.9350	 8.6930
 1.9360	 8.7110
 1.9370	 8.7260
 1.9380	 8.7410
 1.9390	 8.7580
 1.9400	 8.7760
 1.9410	 8.7940
 1.9420	 8.8150
 1.9430	 8.8350
 1.9440	 8.8560
 1.9450	 8.8770
 1.9460	 8.8990
 1.9470	 8.9220
 1.9480	 8.9450
 1.9490	 8.9710
 1.9500	 8.9960
 1.9510	 9.0220
 1.9520	 9.0500
 1.9530	 9.0780
 1.9540	 9.1070
 1.9550	 9.1350
 1.9560	 9.1630
 1.9570	 9.1910
 1.9580	 9.2160
 1.9590	 9.2460
 1.9600	 9.2760
 1.9610	 9.3080
 1.9620	 9.3440
 1.9630	 9.3790
 1.9640	 9.4120
 1.9650	 9.4470
 1.9660	 9.4820
 1.9670	 9.5180
 1.9680	 9.5550
 1.9690	 9.5920
 1.9700	 9.6290
 1.9710	 9.6630
 1.9720	 9.7000
 1.9730	 9.7410
 1.9740	 9.7790
 1.9750	 9.8200
 1.9760	 9.8650
 1.9770	 9.9050
 1.9780	 9.9500
 1.9790	 9.9950
 1.9800	10.0430
 1.9810	10.0890
 1.9820	10.1360
 1.9830	10.1830
 1.9840	10.2280
 1.9850	10.2750
 1.9860	10.3240
 1.9870	10.3740
 1.9880	10.4230
 1.9890	10.4720
 1.9900	10.5230
 1.9910	10.5740
 1.9920	10.6240
 1.9930	10.6750
 1.9940	10.7250
 1.9950	10.7720
 1.9960	10.8230
 1.9970	10.8770
 1.9980	10.9320
 1.9990	10.9890
 2.0000	11.0470
 2.0010	11.1030
 2.0020	11.1550
 2.0030	11.2040
 2.0040	11.2560
 2.0050	11.3070
 2.0060	11.3560
 2.0070	11.4100
 2.0080	11.4710
 2.0090	11.5250
 2.0100	11.5790
 2.0110	11.6320
 2.0120	11.6820
 2.0130	11.7320
 2.0140	11.7830
 2.0150	11.8320
 2.0160	11.8820
 2.0170	11.9310
 2.0180	11.9820
 2.0190	12.0370
 2.0200	12.0870
 2.0210	12.1360
 2.0220	12.1820
 2.0230	12.2250
 2.0240	12.2700
 2.0250	12.3130
 2.0260	12.3580
 2.0270	12.4050
 2.0280	12.4490
 2.0290	12.4910
 2.0300	12.5350
 2.0310	12.5770
 2.0320	12.6180
 2.0330	12.6580
 2.0340	12.6990
 2.0350	12.7370
 2.0360	12.7740
 2.0370	12.8090
 2.0380	12.8400
 2.0390	12.8730
 2.0400	12.9070
 2.0410	12.9390
 2.0420	12.9710
 2.0430	13.0040
 2.0440	13.0340
 2.0450	13.0630
 2.0460	13.0940
 2.0470	13.1270
 2.0480	13.1580
 2.0490	13.1880
 2.0500	13.2180
 2.0510	13.2480
 2.0520	13.2750
 2.0530	13.2990
 2.0540	13.3270
 2.0550	13.3540
 2.0560	13.3830
 2.0570	13.4180
 2.0580	13.4520
 2.0590	13.4830
 2.0600	13.5140
 2.0610	13.5430
 2.0620	13.5690
 2.0630	13.5970
 2.0640	13.6240
 2.0650	13.6520
 2.0660	13.6810
 2.0670	13.7120
 2.0680	13.7470
 2.0690	13.7790
 2.0700	13.8100
 2.0710	13.8420
 2.0720	13.8750
 2.0730	13.9020
 2.0740	13.9330
 2.0750	13.9650
 2.0760	13.9970
 2.0770	14.0290
 2.0780	14.0600
 2.0790	14.0910
 2.0800	14.1220
 2.0810	14.1490
 2.0820	14.1780
 2.0830	14.2110
 2.0840	14.2410
 2.0850	14.2700
 2.0860	14.3000
 2.0870	14.3330
 2.0880	14.3580
 2.0890	14.3830
 2.0900	14.4060
 2.0910	14.4310
 2.0920	14.4510
 2.0930	14.4770
 2.0940	14.5070
 2.0950	14.5370
 2.0960	14.5690
 2.0970	14.5970
 2.0980	14.6230
 2.0990	14.6510
 2.1000	14.6770
 2.1010	14.7030
 2.1020	14.7300
 2.1030	14.7570
 2.1040	14.7840
 2.1050	14.8070
 2.1060	14.8310
 2.1070	14.8540
 2.1080	14.8770
 2.1090	14.8970
 2.1100	14.9210
 2.1110	14.9470
 2.1120	14.9710
 2.1130	14.9930
 2.1140	15.0180
 2.1150	15.0450
 2.1160	15.0710
 2.1170	15.1010
 2.1180	15.1280
 2.1190	15.1500
 2.1200	15.1720
 2.1210	15.1920
 2.1220	15.2120
 2.1230	15.2340
 2.1240	15.2570
 2.1250	15.2800
 2.1260	15.3070
 2.1270	15.3290
 2.1280	15.3480
 2.1290	15.3680
 2.1300	15.3860
 2.1310	15.4040
 2.1320	15.4250
 2.1330	15.4410
 2.1340	15.4530
 2.1350	15.4680
 2.1360	15.4810
 2.1370	15.4960
 2.1380	15.5110
 2.1390	15.5280
 2.1400	15.5440
 2.1410	15.5610
 2.1420	15.5810
 2.1430	15.6040
 2.1440	15.6240
 2.1450	15.6470
 2.1460	15.6680
 2.1470	15.6880
 2.1480	15.7040
 2.1490	15.7180
 2.1500	15.7320
 2.1510	15.7380
 2.1520	15.7510
 2.1530	15.7690
 2.1540	15.7850
 2.1550	15.8060
 2.1560	15.8230
 2.1570	15.8330
 2.1580	15.8470
 2.1590	15.8650
 2.1600	15.8790
 2.1610	15.8960
 2.1620	15.9140
 2.1630	15.9280
 2.1640	15.9390
 2.1650	15.9530
 2.1660	15.9670
 2.1670	15.9800
 2.1680	15.9920
 2.1690	16.0090
 2.1700	16.0260
 2.1710	16.0440
 2.1720	16.0710
 2.1730	16.0890
 2.1740	16.1010
 2.1750	16.1160
 2.1760	16.1270
 2.1770	16.1410
 2.1780	16.1600
 2.1790	16.1780
 2.1800	16.2000
 2.1810	16.2200
 2.1820	16.2380
 2.1830	16.2580
 2.1840	16.2760
 2.1850	16.2900
 2.1860	16.3110
 2.1870	16.3340
 2.1880	16.3580
 2.1890	16.3890
 2.1900	16.4100
 2.1910	16.4270
 2.1920	16.4440
 2.1930	16.4510
 2.1940	16.4670
 2.1950	16.4880
 2.1960	16.5070
 2.1970	16.5300
 2.1980	16.5500
 2.1990	16.5670
 2.2000	16.5870
 2.2010	16.6100
 2.2020	16.6290
 2.2030	16.6450
 2.2040	16.6620
 2.2050	16.6750
 2.2060	16.6910
 2.2070	16.7060
 2.2080	16.7240
 2.2090	16.7360
 2.2100	16.7450
 2.2110	16.7560
 2.2120	16.7640
 2.2130	16.7760
 2.2140	16.7920
 2.2150	16.8040
 2.2160	16.8200
 2.2170	16.8300
 2.2180	16.8370
 2.2190	16.8430
 2.2200	16.8480
 2.2210	16.8500
 2.2220	16.8500
 2.2230	16.8510
 2.2240	16.8520
 2.2250	16.8490
 2.2260	16.8470
 2.2270	16.8380
 2.2280	16.8210
 2.2290	16.8030
 2.2300	16.7790
 2.2310	16.7540
 2.2320	16.7270
 2.2330	16.6950
 2.2340	16.6660
 2.2350	16.6370
 2.2360	16.6020
 2.2370	16.5640
 2.2380	16.5280
 2.2390	16.4870
 2.2400	16.4460
 2.2410	16.4090
 2.2420	16.3630
 2.2430	16.3070
 2.2440	16.2560
 2.2450	16.2020
 2.2460	16.1470
 2.2470	16.0940
 2.2480	16.0380
 2.2490	15.9790
 2.2500	15.9230
 2.2510	15.8700
 2.2520	15.8160
 2.2530	15.7660
 2.2540	15.7110
 2.2550	15.6510
 2.2560	15.5950
 2.2570	15.5330
 2.2580	15.4790
 2.2590	15.4340
 2.2600	15.3840
 2.2610	15.3350
 2.2620	15.2840
 2.2630	15.2290
 2.2640	15.1690
 2.2650	15.1160
 2.2660	15.0680
 2.2670	15.0220
 2.2680	14.9840
 2.2690	14.9370
 2.2700	14.8870
 2.2710	14.8460
 2.2720	14.8040
 2.2730	14.7670
 2.2740	14.7410
 2.2750	14.7100
 2.2760	14.6790
 2.2770	14.6460
 2.2780	14.6100
 2.2790	14.5750
 2.2800	14.5390
 2.2810	14.5010
 2.2820	14.4620
 2.2830	14.4270
 2.2840	14.3920
 2.2850	14.3560
 2.2860	14.3250
 2.2870	14.2900
 2.2880	14.2520
 2.2890	14.2080
 2.2900	14.1540
 2.2910	14.1080
 2.2920	14.0560
 2.2930	14.0120
 2.2940	13.9820
 2.2950	13.9450
 2.2960	13.9090
 2.2970	13.8710
 2.2980	13.8320
 2.2990	13.7920
 2.3000	13.7550
 2.3010	13.7160
 2.3020	13.6790
 2.3030	13.6520
 2.3040	13.6230
 2.3050	13.5970
 2.3060	13.5760
 2.3070	13.5450
 2.3080	13.5110
 2.3090	13.4840
 2.3100	13.4630
 2.3110	13.4460
 2.3120	13.4280
 2.3130	13.4190
 2.3140	13.4020
 2.3150	13.3740
 2.3160	13.3600
 2.3170	13.3530
 2.3180	13.3400
 2.3190	13.3310
 2.3200	13.3140
 2.3210	13.2890
 2.3220	13.2680
 2.3230	13.2460
 2.3240	13.2260
 2.3250	13.2120
 2.3260	13.1900
 2.3270	13.1620
 2.3280	13.1350
 2.3290	13.0990
 2.3300	13.0680
 2.3310	13.0410
 2.3320	13.0130
 2.3330	12.9850
 2.3340	12.9560
 2.3350	12.9310
 2.3360	12.9000
 2.3370	12.8630
 2.3380	12.8300
 2.3390	12.7960
 2.3400	12.7630
 2.3410	12.7400
 2.3420	12.7080
 2.3430	12.6640
 2.3440	12.6350
 2.3450	12.6090
 2.3460	12.5850
 2.3470	12.5740
 2.3480	12.5570
 2.3490	12.5400
 2.3500	12.5170
 2.3510	12.4840
 2.3520	12.4580
 2.3530	12.4300
 2.3540	12.4000
 2.3550	12.3780
 2.3560	12.3620
 2.3570	12.3470
 2.3580	12.3340
 2.3590	12.3140
 2.3600	12.2950
 2.3610	12.2720
 2.3620	12.2450
 2.3630	12.2270
 2.3640	12.2140
 2.3650	12.1980
 2.3660	12.1760
 2.3670	12.1560
 2.3680	12.1400
 2.3690	12.1190
 2.3700	12.0940
 2.3710	12.0710
 2.3720	12.0340
 2.3730	11.9990
 2.3740	11.9720
 2.3750	11.9400
 2.3760	11.9260
 2.3770	11.9060
 2.3780	11.8800
 2.3790	11.8650
 2.3800	11.8280
 2.3810	11.7900
 2.3820	11.7580
 2.3830	11.7140
 2.3840	11.6860
 2.3850	11.6660
 2.3860	11.6430
 2.3870	11.6250
 2.3880	11.5890
 2.3890	11.5540
 2.3900	11.5280
 2.3910	11.5030
 2.3920	11.4900
 2.3930	11.4710
 2.3940	11.4490
 2.3950	11.4270
 2.3960	11.3960
 2.3970	11.3560
 2.3980	11.3200
 2.3990	11.2840
 2.4000	11.2430
 2.4010	11.2220
 2.4020	11.1890
 2.4030	11.1390
 2.4040	11.1110
 2.4050	11.0820
 2.4060	11.0510
 2.4070	11.0390
 2.4080	11.0160
 2.4090	10.9730
 2.4100	10.9370
 2.4110	10.9080
 2.4120	10.8730
 2.4130	10.8440
 2.4140	10.8130
 2.4150	10.7680
 2.4160	10.7270
 2.4170	10.6950
 2.4180	10.6800
 2.4190	10.6780
 2.4200	10.6670
 2.4210	10.6400
 2.4220	10.6000
 2.4230	10.5650
 2.4240	10.5240
 2.4250	10.4940
 2.4260	10.4800
 2.4270	10.4410
 2.4280	10.3990
 2.4290	10.3480
 2.4300	10.2990
 2.4310	10.2740
 2.4320	10.2430
 2.4330	10.2260
 2.4340	10.2080
 2.4350	10.1720
 2.4360	10.1330
 2.4370	10.0940
 2.4380	10.0600
 2.4390	10.0240
 2.4400	10.0020
 2.4410	 9.9930
 2.4420	 9.9750
 2.4430	 9.9460
 2.4440	 9.9120
 2.4450	 9.8760
 2.4460	 9.8320
 2.4470	 9.7900
 2.4480	 9.7600
 2.4490	 9.7320
 2.4500	 9.7030
 2.4510	 9.6760
 2.4520	 9.6700
 2.4530	 9.6670
 2.4540	 9.6470
 2.4550	 9.6350
 2.4560	 9.6070
 2.4570	 9.5450
 2.4580	 9.5220
 2.4590	 9.4970
 2.4600	 9.4760
 2.4610	 9.4730
 2.4620	 9.4320
 2.4630	 9.3910
 2.4640	 9.3460
 2.4650	 9.3270
 2.4660	 9.3290
 2.4670	 9.3100
 2.4680	 9.2950
 2.4690	 9.2550
 2.4700	 9.2250
 2.4710	 9.2000
 2.4720	 9.1980
 2.4730	 9.2150
 2.4740	 9.2170
 2.4750	 9.2540
 2.4760	 9.2490
 2.4770	 9.2030
 2.4780	 9.1470
 2.4790	 9.0460
 2.4800	 9.0090
 2.4810	 8.9890
 2.4820	 8.9850
 2.4830	 8.9890
 2.4840	 9.0010
 2.4850	 9.0070
 2.4860	 9.0260
 2.4870	 9.0530
 2.4880	 9.0470
 2.4890	 9.0270
 2.4900	 9.0120
 2.4910	 8.9920
 2.4920	 8.9170
 2.4930	 8.8240
 2.4940	 8.8070
 2.4950	 8.8320
 2.4960	 8.8970
 2.4970	 8.9990
 2.4980	 9.0190
 2.4990	 8.9740
 2.5000	 8.9310
