Name: Cedrus atlantica 'glauca'
Type: vegetation
Class: Tree
Genus: Cedrus
Species: atlantica_glauca
Sample No.: JPL177
Owner: JPL
Wavelength Range: VSWIR
Origin: 34.12899; -118.11297; WGS84
Collection Date: 10/3/2016
Description: Samples were collected at the Huntington Garden in San Marino California as part of a JPL Subcontract studying HyTES imagery. Samples were taken to JPL and processed within 48 hours of collection. The same leaves were processed in the Nicolet and then measured using the ASD.
Measurement: Bidirectional reflectance
First Column: X
Second Column: Y
X Units: Wavelength (micrometer)
Y Units: Reflectance (percentage)
First X Value: 0.35
Last X Value: 2.5
Number of X Values: 2151
Additional Information: vegetation.tree.cedrus.atlantica_glauca.vswir.jpl177.jpl.asd.ancillary.txt

 0.3500	 6.2770
 0.3510	 6.2090
 0.3520	 6.1070
 0.3530	 6.0610
 0.3540	 6.1070
 0.3550	 6.0990
 0.3560	 6.0900
 0.3570	 6.0420
 0.3580	 5.9000
 0.3590	 5.8840
 0.3600	 5.9180
 0.3610	 5.9390
 0.3620	 5.9460
 0.3630	 5.9080
 0.3640	 5.8820
 0.3650	 5.9110
 0.3660	 5.9090
 0.3670	 5.9020
 0.3680	 5.8880
 0.3690	 5.8540
 0.3700	 5.8220
 0.3710	 5.8370
 0.3720	 5.8970
 0.3730	 5.9050
 0.3740	 5.8570
 0.3750	 5.8230
 0.3760	 5.8620
 0.3770	 5.8550
 0.3780	 5.8230
 0.3790	 5.7980
 0.3800	 5.8100
 0.3810	 5.8320
 0.3820	 5.8120
 0.3830	 5.7520
 0.3840	 5.7890
 0.3850	 5.7910
 0.3860	 5.7710
 0.3870	 5.7820
 0.3880	 5.7970
 0.3890	 5.8020
 0.3900	 5.8000
 0.3910	 5.8010
 0.3920	 5.7510
 0.3930	 5.7200
 0.3940	 5.7520
 0.3950	 5.7650
 0.3960	 5.7920
 0.3970	 5.8030
 0.3980	 5.7540
 0.3990	 5.7540
 0.4000	 5.7680
 0.4010	 5.7770
 0.4020	 5.8060
 0.4030	 5.8220
 0.4040	 5.8330
 0.4050	 5.8530
 0.4060	 5.8860
 0.4070	 5.9030
 0.4080	 5.9030
 0.4090	 5.9040
 0.4100	 5.9260
 0.4110	 5.9620
 0.4120	 6.0050
 0.4130	 6.0590
 0.4140	 6.0770
 0.4150	 6.0910
 0.4160	 6.1450
 0.4170	 6.1950
 0.4180	 6.2350
 0.4190	 6.2720
 0.4200	 6.3210
 0.4210	 6.3710
 0.4220	 6.4200
 0.4230	 6.4670
 0.4240	 6.5110
 0.4250	 6.5520
 0.4260	 6.5960
 0.4270	 6.6440
 0.4280	 6.6780
 0.4290	 6.7070
 0.4300	 6.7430
 0.4310	 6.7990
 0.4320	 6.8400
 0.4330	 6.8720
 0.4340	 6.9120
 0.4350	 6.9530
 0.4360	 6.9750
 0.4370	 6.9800
 0.4380	 6.9890
 0.4390	 7.0010
 0.4400	 7.0080
 0.4410	 7.0100
 0.4420	 7.0240
 0.4430	 7.0360
 0.4440	 7.0430
 0.4450	 7.0510
 0.4460	 7.0630
 0.4470	 7.0730
 0.4480	 7.0820
 0.4490	 7.0970
 0.4500	 7.1080
 0.4510	 7.1120
 0.4520	 7.1110
 0.4530	 7.1230
 0.4540	 7.1300
 0.4550	 7.1320
 0.4560	 7.1420
 0.4570	 7.1390
 0.4580	 7.1370
 0.4590	 7.1440
 0.4600	 7.1390
 0.4610	 7.1420
 0.4620	 7.1450
 0.4630	 7.1360
 0.4640	 7.1400
 0.4650	 7.1400
 0.4660	 7.1340
 0.4670	 7.1370
 0.4680	 7.1310
 0.4690	 7.1260
 0.4700	 7.1300
 0.4710	 7.1320
 0.4720	 7.1260
 0.4730	 7.1160
 0.4740	 7.1120
 0.4750	 7.1060
 0.4760	 7.1020
 0.4770	 7.1010
 0.4780	 7.1060
 0.4790	 7.1040
 0.4800	 7.1020
 0.4810	 7.1050
 0.4820	 7.1090
 0.4830	 7.1130
 0.4840	 7.1170
 0.4850	 7.1230
 0.4860	 7.1350
 0.4870	 7.1450
 0.4880	 7.1470
 0.4890	 7.1490
 0.4900	 7.1520
 0.4910	 7.1590
 0.4920	 7.1680
 0.4930	 7.1720
 0.4940	 7.1780
 0.4950	 7.1880
 0.4960	 7.1980
 0.4970	 7.2180
 0.4980	 7.2380
 0.4990	 7.2490
 0.5000	 7.2650
 0.5010	 7.2900
 0.5020	 7.3230
 0.5030	 7.3600
 0.5040	 7.3900
 0.5050	 7.4230
 0.5060	 7.4660
 0.5070	 7.5100
 0.5080	 7.5630
 0.5090	 7.6190
 0.5100	 7.6700
 0.5110	 7.7300
 0.5120	 7.7980
 0.5130	 7.8700
 0.5140	 7.9430
 0.5150	 8.0220
 0.5160	 8.1060
 0.5170	 8.1900
 0.5180	 8.2820
 0.5190	 8.3740
 0.5200	 8.4660
 0.5210	 8.5570
 0.5220	 8.6490
 0.5230	 8.7410
 0.5240	 8.8340
 0.5250	 8.9240
 0.5260	 9.0100
 0.5270	 9.0900
 0.5280	 9.1640
 0.5290	 9.2360
 0.5300	 9.3030
 0.5310	 9.3640
 0.5320	 9.4200
 0.5330	 9.4740
 0.5340	 9.5210
 0.5350	 9.5600
 0.5360	 9.5980
 0.5370	 9.6380
 0.5380	 9.6780
 0.5390	 9.7190
 0.5400	 9.7730
 0.5410	 9.8410
 0.5420	 9.9130
 0.5430	 9.9670
 0.5440	 9.9950
 0.5450	 9.9970
 0.5460	 9.9800
 0.5470	 9.9460
 0.5480	 9.9170
 0.5490	 9.9040
 0.5500	 9.9040
 0.5510	 9.9030
 0.5520	 9.8960
 0.5530	 9.8800
 0.5540	 9.8610
 0.5550	 9.8360
 0.5560	 9.8050
 0.5570	 9.7720
 0.5580	 9.7350
 0.5590	 9.6930
 0.5600	 9.6470
 0.5610	 9.6020
 0.5620	 9.5560
 0.5630	 9.5080
 0.5640	 9.4560
 0.5650	 9.4020
 0.5660	 9.3460
 0.5670	 9.2890
 0.5680	 9.2320
 0.5690	 9.1750
 0.5700	 9.1160
 0.5710	 9.0540
 0.5720	 8.9920
 0.5730	 8.9330
 0.5740	 8.8770
 0.5750	 8.8250
 0.5760	 8.7740
 0.5770	 8.7280
 0.5780	 8.6870
 0.5790	 8.6490
 0.5800	 8.6150
 0.5810	 8.5820
 0.5820	 8.5510
 0.5830	 8.5260
 0.5840	 8.5010
 0.5850	 8.4730
 0.5860	 8.4470
 0.5870	 8.4270
 0.5880	 8.4040
 0.5890	 8.3760
 0.5900	 8.3500
 0.5910	 8.3270
 0.5920	 8.3080
 0.5930	 8.2930
 0.5940	 8.2740
 0.5950	 8.2560
 0.5960	 8.2400
 0.5970	 8.2300
 0.5980	 8.2210
 0.5990	 8.2100
 0.6000	 8.1960
 0.6010	 8.1780
 0.6020	 8.1600
 0.6030	 8.1420
 0.6040	 8.1180
 0.6050	 8.0910
 0.6060	 8.0640
 0.6070	 8.0380
 0.6080	 8.0100
 0.6090	 7.9900
 0.6100	 7.9890
 0.6110	 8.0060
 0.6120	 7.9730
 0.6130	 7.9080
 0.6140	 7.8380
 0.6150	 7.7890
 0.6160	 7.7450
 0.6170	 7.7060
 0.6180	 7.6770
 0.6190	 7.6520
 0.6200	 7.6300
 0.6210	 7.6090
 0.6220	 7.5870
 0.6230	 7.5670
 0.6240	 7.5510
 0.6250	 7.5380
 0.6260	 7.5240
 0.6270	 7.5120
 0.6280	 7.5010
 0.6290	 7.4950
 0.6300	 7.4920
 0.6310	 7.4890
 0.6320	 7.4810
 0.6330	 7.4690
 0.6340	 7.4530
 0.6350	 7.4370
 0.6360	 7.4210
 0.6370	 7.3990
 0.6380	 7.3750
 0.6390	 7.3500
 0.6400	 7.3230
 0.6410	 7.2920
 0.6420	 7.2610
 0.6430	 7.2290
 0.6440	 7.1920
 0.6450	 7.1590
 0.6460	 7.1250
 0.6470	 7.0880
 0.6480	 7.0560
 0.6490	 7.0280
 0.6500	 7.0030
 0.6510	 6.9790
 0.6520	 6.9560
 0.6530	 6.9340
 0.6540	 6.9140
 0.6550	 6.8930
 0.6560	 6.8660
 0.6570	 6.8350
 0.6580	 6.8040
 0.6590	 6.7720
 0.6600	 6.7410
 0.6610	 6.7090
 0.6620	 6.6750
 0.6630	 6.6410
 0.6640	 6.6080
 0.6650	 6.5790
 0.6660	 6.5520
 0.6670	 6.5310
 0.6680	 6.5140
 0.6690	 6.5010
 0.6700	 6.4910
 0.6710	 6.4850
 0.6720	 6.4820
 0.6730	 6.4800
 0.6740	 6.4830
 0.6750	 6.4910
 0.6760	 6.4990
 0.6770	 6.5100
 0.6780	 6.5250
 0.6790	 6.5440
 0.6800	 6.5650
 0.6810	 6.5930
 0.6820	 6.6250
 0.6830	 6.6590
 0.6840	 6.7040
 0.6850	 6.7570
 0.6860	 6.8170
 0.6870	 6.8880
 0.6880	 6.9730
 0.6890	 7.0740
 0.6900	 7.1940
 0.6910	 7.3340
 0.6920	 7.5020
 0.6930	 7.6940
 0.6940	 7.9100
 0.6950	 8.1530
 0.6960	 8.4210
 0.6970	 8.7130
 0.6980	 9.0300
 0.6990	 9.3720
 0.7000	 9.7320
 0.7010	10.1080
 0.7020	10.5000
 0.7030	10.9050
 0.7040	11.3240
 0.7050	11.7560
 0.7060	12.1990
 0.7070	12.6520
 0.7080	13.1150
 0.7090	13.5910
 0.7100	14.0800
 0.7110	14.5840
 0.7120	15.1020
 0.7130	15.6320
 0.7140	16.1770
 0.7150	16.7380
 0.7160	17.3150
 0.7170	17.9050
 0.7180	18.5110
 0.7190	19.1300
 0.7200	19.7590
 0.7210	20.4010
 0.7220	21.0520
 0.7230	21.7100
 0.7240	22.3700
 0.7250	23.0320
 0.7260	23.6940
 0.7270	24.3520
 0.7280	25.0030
 0.7290	25.6460
 0.7300	26.2790
 0.7310	26.8950
 0.7320	27.4990
 0.7330	28.0890
 0.7340	28.6620
 0.7350	29.2150
 0.7360	29.7480
 0.7370	30.2600
 0.7380	30.7510
 0.7390	31.2230
 0.7400	31.6690
 0.7410	32.0930
 0.7420	32.4980
 0.7430	32.8760
 0.7440	33.2320
 0.7450	33.5670
 0.7460	33.8820
 0.7470	34.1730
 0.7480	34.4460
 0.7490	34.7000
 0.7500	34.9330
 0.7510	35.1470
 0.7520	35.3450
 0.7530	35.5270
 0.7540	35.6960
 0.7550	35.8520
 0.7560	35.9940
 0.7570	36.1250
 0.7580	36.2440
 0.7590	36.3550
 0.7600	36.4590
 0.7610	36.5510
 0.7620	36.6360
 0.7630	36.7160
 0.7640	36.7880
 0.7650	36.8550
 0.7660	36.9170
 0.7670	36.9760
 0.7680	37.0310
 0.7690	37.0810
 0.7700	37.1260
 0.7710	37.1690
 0.7720	37.2110
 0.7730	37.2490
 0.7740	37.2850
 0.7750	37.3210
 0.7760	37.3560
 0.7770	37.3870
 0.7780	37.4160
 0.7790	37.4460
 0.7800	37.4740
 0.7810	37.5010
 0.7820	37.5280
 0.7830	37.5570
 0.7840	37.5780
 0.7850	37.6000
 0.7860	37.6250
 0.7870	37.6470
 0.7880	37.6670
 0.7890	37.6850
 0.7900	37.7030
 0.7910	37.7200
 0.7920	37.7390
 0.7930	37.7580
 0.7940	37.7700
 0.7950	37.7840
 0.7960	37.7980
 0.7970	37.8110
 0.7980	37.8250
 0.7990	37.8350
 0.8000	37.8440
 0.8010	37.8550
 0.8020	37.8630
 0.8030	37.8720
 0.8040	37.8820
 0.8050	37.8910
 0.8060	37.8980
 0.8070	37.9040
 0.8080	37.9100
 0.8090	37.9150
 0.8100	37.9210
 0.8110	37.9270
 0.8120	37.9310
 0.8130	37.9370
 0.8140	37.9420
 0.8150	37.9450
 0.8160	37.9480
 0.8170	37.9540
 0.8180	37.9580
 0.8190	37.9610
 0.8200	37.9640
 0.8210	37.9710
 0.8220	37.9760
 0.8230	37.9790
 0.8240	37.9830
 0.8250	37.9900
 0.8260	37.9960
 0.8270	38.0000
 0.8280	38.0020
 0.8290	38.0020
 0.8300	38.0030
 0.8310	38.0080
 0.8320	38.0140
 0.8330	38.0200
 0.8340	38.0260
 0.8350	38.0350
 0.8360	38.0440
 0.8370	38.0520
 0.8380	38.0610
 0.8390	38.0700
 0.8400	38.0770
 0.8410	38.0900
 0.8420	38.1090
 0.8430	38.1190
 0.8440	38.1320
 0.8450	38.1450
 0.8460	38.1570
 0.8470	38.1730
 0.8480	38.1890
 0.8490	38.2030
 0.8500	38.2140
 0.8510	38.2300
 0.8520	38.2450
 0.8530	38.2590
 0.8540	38.2730
 0.8550	38.2860
 0.8560	38.3010
 0.8570	38.3180
 0.8580	38.3310
 0.8590	38.3480
 0.8600	38.3650
 0.8610	38.3810
 0.8620	38.3970
 0.8630	38.4120
 0.8640	38.4250
 0.8650	38.4370
 0.8660	38.4550
 0.8670	38.4740
 0.8680	38.4900
 0.8690	38.5000
 0.8700	38.5160
 0.8710	38.5310
 0.8720	38.5450
 0.8730	38.5600
 0.8740	38.5740
 0.8750	38.5870
 0.8760	38.6000
 0.8770	38.6170
 0.8780	38.6300
 0.8790	38.6430
 0.8800	38.6570
 0.8810	38.6680
 0.8820	38.6790
 0.8830	38.6910
 0.8840	38.7030
 0.8850	38.7160
 0.8860	38.7270
 0.8870	38.7380
 0.8880	38.7470
 0.8890	38.7570
 0.8900	38.7640
 0.8910	38.7720
 0.8920	38.7830
 0.8930	38.7910
 0.8940	38.8000
 0.8950	38.8090
 0.8960	38.8160
 0.8970	38.8240
 0.8980	38.8320
 0.8990	38.8380
 0.9000	38.8490
 0.9010	38.8540
 0.9020	38.8580
 0.9030	38.8650
 0.9040	38.8700
 0.9050	38.8770
 0.9060	38.8810
 0.9070	38.8820
 0.9080	38.8860
 0.9090	38.8950
 0.9100	38.8990
 0.9110	38.8980
 0.9120	38.9050
 0.9130	38.9050
 0.9140	38.9050
 0.9150	38.9090
 0.9160	38.9060
 0.9170	38.9050
 0.9180	38.9050
 0.9190	38.9000
 0.9200	38.8930
 0.9210	38.8860
 0.9220	38.8800
 0.9230	38.8700
 0.9240	38.8540
 0.9250	38.8390
 0.9260	38.8260
 0.9270	38.8100
 0.9280	38.7880
 0.9290	38.7680
 0.9300	38.7520
 0.9310	38.7300
 0.9320	38.6990
 0.9330	38.6690
 0.9340	38.6410
 0.9350	38.6100
 0.9360	38.5760
 0.9370	38.5390
 0.9380	38.5010
 0.9390	38.4630
 0.9400	38.4300
 0.9410	38.3890
 0.9420	38.3390
 0.9430	38.2980
 0.9440	38.2430
 0.9450	38.1820
 0.9460	38.1200
 0.9470	38.0530
 0.9480	37.9770
 0.9490	37.8990
 0.9500	37.8210
 0.9510	37.7330
 0.9520	37.6420
 0.9530	37.5460
 0.9540	37.4440
 0.9550	37.3500
 0.9560	37.2500
 0.9570	37.1550
 0.9580	37.0750
 0.9590	36.9950
 0.9600	36.9220
 0.9610	36.8550
 0.9620	36.7920
 0.9630	36.7360
 0.9640	36.6910
 0.9650	36.6530
 0.9660	36.6140
 0.9670	36.5830
 0.9680	36.5550
 0.9690	36.5280
 0.9700	36.5020
 0.9710	36.4800
 0.9720	36.4590
 0.9730	36.4430
 0.9740	36.4320
 0.9750	36.4200
 0.9760	36.4100
 0.9770	36.4030
 0.9780	36.3970
 0.9790	36.3920
 0.9800	36.3950
 0.9810	36.4040
 0.9820	36.4100
 0.9830	36.4160
 0.9840	36.4280
 0.9850	36.4390
 0.9860	36.4450
 0.9870	36.4660
 0.9880	36.4850
 0.9890	36.5060
 0.9900	36.5350
 0.9910	36.5470
 0.9920	36.5730
 0.9930	36.6080
 0.9940	36.6350
 0.9950	36.6620
 0.9960	36.6900
 0.9970	36.7230
 0.9980	36.7640
 0.9990	36.8160
 1.0000	36.8640
 1.0010	37.8880
 1.0020	37.9270
 1.0030	37.9620
 1.0040	37.9970
 1.0050	38.0400
 1.0060	38.0820
 1.0070	38.1250
 1.0080	38.1690
 1.0090	38.2150
 1.0100	38.2580
 1.0110	38.2980
 1.0120	38.3400
 1.0130	38.3810
 1.0140	38.4250
 1.0150	38.4720
 1.0160	38.5180
 1.0170	38.5630
 1.0180	38.6080
 1.0190	38.6480
 1.0200	38.6870
 1.0210	38.7260
 1.0220	38.7650
 1.0230	38.8070
 1.0240	38.8510
 1.0250	38.8960
 1.0260	38.9460
 1.0270	38.9900
 1.0280	39.0310
 1.0290	39.0720
 1.0300	39.1110
 1.0310	39.1510
 1.0320	39.1910
 1.0330	39.2340
 1.0340	39.2740
 1.0350	39.3120
 1.0360	39.3480
 1.0370	39.3830
 1.0380	39.4190
 1.0390	39.4540
 1.0400	39.4890
 1.0410	39.5250
 1.0420	39.5600
 1.0430	39.5940
 1.0440	39.6270
 1.0450	39.6600
 1.0460	39.6920
 1.0470	39.7220
 1.0480	39.7510
 1.0490	39.7790
 1.0500	39.8060
 1.0510	39.8310
 1.0520	39.8580
 1.0530	39.8830
 1.0540	39.9090
 1.0550	39.9330
 1.0560	39.9560
 1.0570	39.9770
 1.0580	39.9980
 1.0590	40.0170
 1.0600	40.0340
 1.0610	40.0510
 1.0620	40.0670
 1.0630	40.0810
 1.0640	40.0940
 1.0650	40.1060
 1.0660	40.1150
 1.0670	40.1250
 1.0680	40.1340
 1.0690	40.1440
 1.0700	40.1510
 1.0710	40.1580
 1.0720	40.1630
 1.0730	40.1660
 1.0740	40.1710
 1.0750	40.1770
 1.0760	40.1790
 1.0770	40.1790
 1.0780	40.1790
 1.0790	40.1740
 1.0800	40.1720
 1.0810	40.1710
 1.0820	40.1690
 1.0830	40.1670
 1.0840	40.1630
 1.0850	40.1580
 1.0860	40.1490
 1.0870	40.1400
 1.0880	40.1300
 1.0890	40.1170
 1.0900	40.1020
 1.0910	40.0890
 1.0920	40.0740
 1.0930	40.0610
 1.0940	40.0520
 1.0950	40.0380
 1.0960	40.0210
 1.0970	40.0050
 1.0980	39.9900
 1.0990	39.9720
 1.1000	39.9510
 1.1010	39.9320
 1.1020	39.9110
 1.1030	39.8890
 1.1040	39.8690
 1.1050	39.8490
 1.1060	39.8270
 1.1070	39.8040
 1.1080	39.7800
 1.1090	39.7560
 1.1100	39.7290
 1.1110	39.7000
 1.1120	39.6710
 1.1130	39.6410
 1.1140	39.6090
 1.1150	39.5780
 1.1160	39.5410
 1.1170	39.5000
 1.1180	39.4570
 1.1190	39.4110
 1.1200	39.3610
 1.1210	39.3090
 1.1220	39.2520
 1.1230	39.1860
 1.1240	39.1140
 1.1250	39.0320
 1.1260	38.9430
 1.1270	38.8440
 1.1280	38.7380
 1.1290	38.6200
 1.1300	38.4930
 1.1310	38.3530
 1.1320	38.2020
 1.1330	38.0400
 1.1340	37.8640
 1.1350	37.6790
 1.1360	37.4830
 1.1370	37.2780
 1.1380	37.0640
 1.1390	36.8430
 1.1400	36.6140
 1.1410	36.3830
 1.1420	36.1490
 1.1430	35.9120
 1.1440	35.6800
 1.1450	35.4470
 1.1460	35.2200
 1.1470	34.9950
 1.1480	34.7790
 1.1490	34.5660
 1.1500	34.3680
 1.1510	34.1770
 1.1520	33.9980
 1.1530	33.8310
 1.1540	33.6740
 1.1550	33.5280
 1.1560	33.3940
 1.1570	33.2690
 1.1580	33.1550
 1.1590	33.0500
 1.1600	32.9520
 1.1610	32.8640
 1.1620	32.7840
 1.1630	32.7080
 1.1640	32.6400
 1.1650	32.5780
 1.1660	32.5220
 1.1670	32.4690
 1.1680	32.4220
 1.1690	32.3770
 1.1700	32.3340
 1.1710	32.2930
 1.1720	32.2550
 1.1730	32.2170
 1.1740	32.1790
 1.1750	32.1420
 1.1760	32.1050
 1.1770	32.0660
 1.1780	32.0270
 1.1790	31.9890
 1.1800	31.9490
 1.1810	31.9100
 1.1820	31.8710
 1.1830	31.8320
 1.1840	31.7950
 1.1850	31.7590
 1.1860	31.7220
 1.1870	31.6850
 1.1880	31.6500
 1.1890	31.6150
 1.1900	31.5830
 1.1910	31.5550
 1.1920	31.5280
 1.1930	31.5030
 1.1940	31.4800
 1.1950	31.4590
 1.1960	31.4400
 1.1970	31.4230
 1.1980	31.4080
 1.1990	31.3960
 1.2000	31.3890
 1.2010	31.3870
 1.2020	31.3880
 1.2030	31.3920
 1.2040	31.4010
 1.2050	31.4120
 1.2060	31.4270
 1.2070	31.4460
 1.2080	31.4700
 1.2090	31.4960
 1.2100	31.5270
 1.2110	31.5600
 1.2120	31.5950
 1.2130	31.6340
 1.2140	31.6780
 1.2150	31.7240
 1.2160	31.7730
 1.2170	31.8230
 1.2180	31.8760
 1.2190	31.9300
 1.2200	31.9860
 1.2210	32.0470
 1.2220	32.1080
 1.2230	32.1680
 1.2240	32.2290
 1.2250	32.2880
 1.2260	32.3460
 1.2270	32.4040
 1.2280	32.4600
 1.2290	32.5140
 1.2300	32.5680
 1.2310	32.6210
 1.2320	32.6740
 1.2330	32.7250
 1.2340	32.7730
 1.2350	32.8180
 1.2360	32.8610
 1.2370	32.9020
 1.2380	32.9430
 1.2390	32.9840
 1.2400	33.0230
 1.2410	33.0620
 1.2420	33.1000
 1.2430	33.1340
 1.2440	33.1700
 1.2450	33.2050
 1.2460	33.2370
 1.2470	33.2700
 1.2480	33.3020
 1.2490	33.3330
 1.2500	33.3630
 1.2510	33.3900
 1.2520	33.4170
 1.2530	33.4410
 1.2540	33.4640
 1.2550	33.4880
 1.2560	33.5080
 1.2570	33.5250
 1.2580	33.5420
 1.2590	33.5570
 1.2600	33.5690
 1.2610	33.5820
 1.2620	33.5950
 1.2630	33.6060
 1.2640	33.6160
 1.2650	33.6250
 1.2660	33.6310
 1.2670	33.6360
 1.2680	33.6390
 1.2690	33.6410
 1.2700	33.6420
 1.2710	33.6390
 1.2720	33.6350
 1.2730	33.6280
 1.2740	33.6180
 1.2750	33.6090
 1.2760	33.5990
 1.2770	33.5880
 1.2780	33.5760
 1.2790	33.5620
 1.2800	33.5440
 1.2810	33.5230
 1.2820	33.5010
 1.2830	33.4750
 1.2840	33.4480
 1.2850	33.4190
 1.2860	33.3850
 1.2870	33.3490
 1.2880	33.3090
 1.2890	33.2670
 1.2900	33.2200
 1.2910	33.1700
 1.2920	33.1200
 1.2930	33.0660
 1.2940	33.0080
 1.2950	32.9480
 1.2960	32.8820
 1.2970	32.8120
 1.2980	32.7400
 1.2990	32.6640
 1.3000	32.5860
 1.3010	32.5060
 1.3020	32.4210
 1.3030	32.3330
 1.3040	32.2410
 1.3050	32.1440
 1.3060	32.0440
 1.3070	31.9410
 1.3080	31.8350
 1.3090	31.7240
 1.3100	31.6100
 1.3110	31.4920
 1.3120	31.3700
 1.3130	31.2440
 1.3140	31.1150
 1.3150	30.9830
 1.3160	30.8480
 1.3170	30.7100
 1.3180	30.5690
 1.3190	30.4260
 1.3200	30.2780
 1.3210	30.1270
 1.3220	29.9730
 1.3230	29.8150
 1.3240	29.6540
 1.3250	29.4920
 1.3260	29.3280
 1.3270	29.1600
 1.3280	28.9920
 1.3290	28.8210
 1.3300	28.6480
 1.3310	28.4750
 1.3320	28.2990
 1.3330	28.1230
 1.3340	27.9480
 1.3350	27.7760
 1.3360	27.6050
 1.3370	27.4320
 1.3380	27.2620
 1.3390	27.0930
 1.3400	26.9250
 1.3410	26.7610
 1.3420	26.5990
 1.3430	26.4400
 1.3440	26.2830
 1.3450	26.1290
 1.3460	25.9760
 1.3470	25.8280
 1.3480	25.6830
 1.3490	25.5400
 1.3500	25.4010
 1.3510	25.2640
 1.3520	25.1280
 1.3530	24.9930
 1.3540	24.8590
 1.3550	24.7260
 1.3560	24.5940
 1.3570	24.4610
 1.3580	24.3280
 1.3590	24.1940
 1.3600	24.0570
 1.3610	23.9170
 1.3620	23.7720
 1.3630	23.6240
 1.3640	23.4680
 1.3650	23.3070
 1.3660	23.1420
 1.3670	22.9690
 1.3680	22.7880
 1.3690	22.5980
 1.3700	22.3970
 1.3710	22.1860
 1.3720	21.9640
 1.3730	21.7290
 1.3740	21.4830
 1.3750	21.2220
 1.3760	20.9440
 1.3770	20.6510
 1.3780	20.3400
 1.3790	20.0140
 1.3800	19.6730
 1.3810	19.3130
 1.3820	18.9450
 1.3830	18.5620
 1.3840	18.1710
 1.3850	17.7690
 1.3860	17.3630
 1.3870	16.9470
 1.3880	16.5350
 1.3890	16.1190
 1.3900	15.7040
 1.3910	15.2960
 1.3920	14.8890
 1.3930	14.4880
 1.3940	14.0950
 1.3950	13.7070
 1.3960	13.3310
 1.3970	12.9680
 1.3980	12.6160
 1.3990	12.2830
 1.4000	11.9620
 1.4010	11.6540
 1.4020	11.3620
 1.4030	11.0820
 1.4040	10.8180
 1.4050	10.5690
 1.4060	10.3330
 1.4070	10.1140
 1.4080	 9.9090
 1.4090	 9.7140
 1.4100	 9.5330
 1.4110	 9.3630
 1.4120	 9.2030
 1.4130	 9.0550
 1.4140	 8.9170
 1.4150	 8.7900
 1.4160	 8.6700
 1.4170	 8.5580
 1.4180	 8.4550
 1.4190	 8.3580
 1.4200	 8.2680
 1.4210	 8.1850
 1.4220	 8.1070
 1.4230	 8.0360
 1.4240	 7.9690
 1.4250	 7.9070
 1.4260	 7.8500
 1.4270	 7.7960
 1.4280	 7.7470
 1.4290	 7.7000
 1.4300	 7.6570
 1.4310	 7.6170
 1.4320	 7.5820
 1.4330	 7.5490
 1.4340	 7.5190
 1.4350	 7.4920
 1.4360	 7.4670
 1.4370	 7.4450
 1.4380	 7.4250
 1.4390	 7.4080
 1.4400	 7.3910
 1.4410	 7.3770
 1.4420	 7.3640
 1.4430	 7.3530
 1.4440	 7.3430
 1.4450	 7.3360
 1.4460	 7.3300
 1.4470	 7.3260
 1.4480	 7.3230
 1.4490	 7.3200
 1.4500	 7.3190
 1.4510	 7.3180
 1.4520	 7.3180
 1.4530	 7.3200
 1.4540	 7.3220
 1.4550	 7.3260
 1.4560	 7.3310
 1.4570	 7.3370
 1.4580	 7.3450
 1.4590	 7.3550
 1.4600	 7.3660
 1.4610	 7.3790
 1.4620	 7.3940
 1.4630	 7.4120
 1.4640	 7.4310
 1.4650	 7.4510
 1.4660	 7.4740
 1.4670	 7.4990
 1.4680	 7.5270
 1.4690	 7.5570
 1.4700	 7.5900
 1.4710	 7.6250
 1.4720	 7.6610
 1.4730	 7.6990
 1.4740	 7.7390
 1.4750	 7.7790
 1.4760	 7.8210
 1.4770	 7.8660
 1.4780	 7.9120
 1.4790	 7.9600
 1.4800	 8.0100
 1.4810	 8.0600
 1.4820	 8.1110
 1.4830	 8.1620
 1.4840	 8.2150
 1.4850	 8.2690
 1.4860	 8.3240
 1.4870	 8.3790
 1.4880	 8.4350
 1.4890	 8.4920
 1.4900	 8.5500
 1.4910	 8.6100
 1.4920	 8.6690
 1.4930	 8.7300
 1.4940	 8.7900
 1.4950	 8.8520
 1.4960	 8.9140
 1.4970	 8.9770
 1.4980	 9.0400
 1.4990	 9.1030
 1.5000	 9.1670
 1.5010	 9.2320
 1.5020	 9.2970
 1.5030	 9.3640
 1.5040	 9.4300
 1.5050	 9.4950
 1.5060	 9.5610
 1.5070	 9.6270
 1.5080	 9.6930
 1.5090	 9.7590
 1.5100	 9.8250
 1.5110	 9.8920
 1.5120	 9.9600
 1.5130	10.0270
 1.5140	10.0950
 1.5150	10.1630
 1.5160	10.2290
 1.5170	10.2960
 1.5180	10.3630
 1.5190	10.4300
 1.5200	10.4960
 1.5210	10.5630
 1.5220	10.6300
 1.5230	10.6960
 1.5240	10.7620
 1.5250	10.8290
 1.5260	10.8950
 1.5270	10.9600
 1.5280	11.0270
 1.5290	11.0920
 1.5300	11.1560
 1.5310	11.2200
 1.5320	11.2840
 1.5330	11.3480
 1.5340	11.4130
 1.5350	11.4770
 1.5360	11.5410
 1.5370	11.6040
 1.5380	11.6660
 1.5390	11.7280
 1.5400	11.7910
 1.5410	11.8540
 1.5420	11.9170
 1.5430	11.9820
 1.5440	12.0460
 1.5450	12.1080
 1.5460	12.1700
 1.5470	12.2310
 1.5480	12.2920
 1.5490	12.3530
 1.5500	12.4150
 1.5510	12.4760
 1.5520	12.5370
 1.5530	12.5980
 1.5540	12.6570
 1.5550	12.7160
 1.5560	12.7750
 1.5570	12.8330
 1.5580	12.8920
 1.5590	12.9490
 1.5600	13.0070
 1.5610	13.0640
 1.5620	13.1210
 1.5630	13.1780
 1.5640	13.2330
 1.5650	13.2880
 1.5660	13.3450
 1.5670	13.4010
 1.5680	13.4560
 1.5690	13.5110
 1.5700	13.5640
 1.5710	13.6170
 1.5720	13.6710
 1.5730	13.7270
 1.5740	13.7810
 1.5750	13.8330
 1.5760	13.8860
 1.5770	13.9370
 1.5780	13.9880
 1.5790	14.0410
 1.5800	14.0910
 1.5810	14.1420
 1.5820	14.1930
 1.5830	14.2440
 1.5840	14.2950
 1.5850	14.3460
 1.5860	14.3970
 1.5870	14.4470
 1.5880	14.4970
 1.5890	14.5470
 1.5900	14.5960
 1.5910	14.6450
 1.5920	14.6960
 1.5930	14.7460
 1.5940	14.7950
 1.5950	14.8460
 1.5960	14.8950
 1.5970	14.9440
 1.5980	14.9930
 1.5990	15.0420
 1.6000	15.0920
 1.6010	15.1410
 1.6020	15.1880
 1.6030	15.2370
 1.6040	15.2830
 1.6050	15.3310
 1.6060	15.3780
 1.6070	15.4240
 1.6080	15.4720
 1.6090	15.5180
 1.6100	15.5630
 1.6110	15.6070
 1.6120	15.6500
 1.6130	15.6930
 1.6140	15.7350
 1.6150	15.7760
 1.6160	15.8170
 1.6170	15.8570
 1.6180	15.8960
 1.6190	15.9370
 1.6200	15.9770
 1.6210	16.0150
 1.6220	16.0520
 1.6230	16.0890
 1.6240	16.1250
 1.6250	16.1590
 1.6260	16.1950
 1.6270	16.2290
 1.6280	16.2620
 1.6290	16.2960
 1.6300	16.3290
 1.6310	16.3610
 1.6320	16.3930
 1.6330	16.4230
 1.6340	16.4540
 1.6350	16.4840
 1.6360	16.5130
 1.6370	16.5400
 1.6380	16.5670
 1.6390	16.5920
 1.6400	16.6140
 1.6410	16.6370
 1.6420	16.6590
 1.6430	16.6790
 1.6440	16.6970
 1.6450	16.7110
 1.6460	16.7240
 1.6470	16.7370
 1.6480	16.7490
 1.6490	16.7600
 1.6500	16.7690
 1.6510	16.7740
 1.6520	16.7790
 1.6530	16.7830
 1.6540	16.7860
 1.6550	16.7870
 1.6560	16.7880
 1.6570	16.7860
 1.6580	16.7830
 1.6590	16.7800
 1.6600	16.7770
 1.6610	16.7730
 1.6620	16.7690
 1.6630	16.7630
 1.6640	16.7560
 1.6650	16.7500
 1.6660	16.7450
 1.6670	16.7390
 1.6680	16.7330
 1.6690	16.7260
 1.6700	16.7200
 1.6710	16.7130
 1.6720	16.7060
 1.6730	16.6970
 1.6740	16.6870
 1.6750	16.6760
 1.6760	16.6650
 1.6770	16.6520
 1.6780	16.6380
 1.6790	16.6230
 1.6800	16.6070
 1.6810	16.5910
 1.6820	16.5720
 1.6830	16.5490
 1.6840	16.5250
 1.6850	16.4980
 1.6860	16.4690
 1.6870	16.4390
 1.6880	16.4050
 1.6890	16.3690
 1.6900	16.3310
 1.6910	16.2930
 1.6920	16.2520
 1.6930	16.2080
 1.6940	16.1630
 1.6950	16.1180
 1.6960	16.0710
 1.6970	16.0230
 1.6980	15.9740
 1.6990	15.9240
 1.7000	15.8720
 1.7010	15.8190
 1.7020	15.7630
 1.7030	15.7040
 1.7040	15.6460
 1.7050	15.5880
 1.7060	15.5280
 1.7070	15.4670
 1.7080	15.4070
 1.7090	15.3440
 1.7100	15.2840
 1.7110	15.2230
 1.7120	15.1650
 1.7130	15.1070
 1.7140	15.0530
 1.7150	15.0010
 1.7160	14.9530
 1.7170	14.9080
 1.7180	14.8640
 1.7190	14.8230
 1.7200	14.7830
 1.7210	14.7450
 1.7220	14.7080
 1.7230	14.6720
 1.7240	14.6360
 1.7250	14.6030
 1.7260	14.5710
 1.7270	14.5430
 1.7280	14.5190
 1.7290	14.4980
 1.7300	14.4820
 1.7310	14.4670
 1.7320	14.4550
 1.7330	14.4440
 1.7340	14.4380
 1.7350	14.4300
 1.7360	14.4230
 1.7370	14.4120
 1.7380	14.4000
 1.7390	14.3850
 1.7400	14.3680
 1.7410	14.3470
 1.7420	14.3210
 1.7430	14.2930
 1.7440	14.2620
 1.7450	14.2290
 1.7460	14.1920
 1.7470	14.1530
 1.7480	14.1090
 1.7490	14.0680
 1.7500	14.0270
 1.7510	13.9860
 1.7520	13.9460
 1.7530	13.9060
 1.7540	13.8650
 1.7550	13.8260
 1.7560	13.7890
 1.7570	13.7510
 1.7580	13.7150
 1.7590	13.6800
 1.7600	13.6450
 1.7610	13.6150
 1.7620	13.5860
 1.7630	13.5590
 1.7640	13.5330
 1.7650	13.5050
 1.7660	13.4820
 1.7670	13.4640
 1.7680	13.4440
 1.7690	13.4250
 1.7700	13.4080
 1.7710	13.3910
 1.7720	13.3740
 1.7730	13.3590
 1.7740	13.3430
 1.7750	13.3260
 1.7760	13.3120
 1.7770	13.2990
 1.7780	13.2860
 1.7790	13.2750
 1.7800	13.2640
 1.7810	13.2550
 1.7820	13.2490
 1.7830	13.2440
 1.7840	13.2400
 1.7850	13.2390
 1.7860	13.2380
 1.7870	13.2370
 1.7880	13.2390
 1.7890	13.2410
 1.7900	13.2450
 1.7910	13.2490
 1.7920	13.2550
 1.7930	13.2600
 1.7940	13.2640
 1.7950	13.2690
 1.7960	13.2770
 1.7970	13.2840
 1.7980	13.2920
 1.7990	13.3000
 1.8000	13.3070
 1.8010	13.3150
 1.8020	13.3240
 1.8030	13.3330
 1.8040	13.3430
 1.8050	13.3530
 1.8060	13.3640
 1.8070	13.3730
 1.8080	13.3800
 1.8090	13.3880
 1.8100	13.3960
 1.8110	13.4030
 1.8120	13.4110
 1.8130	13.4190
 1.8140	13.4250
 1.8150	13.4300
 1.8160	13.4350
 1.8170	13.4390
 1.8180	13.4420
 1.8190	13.4490
 1.8200	13.4520
 1.8210	13.4500
 1.8220	13.4500
 1.8230	13.4480
 1.8240	13.4470
 1.8250	13.4470
 1.8260	13.4460
 1.8270	13.4450
 1.8280	13.4400
 1.8290	13.4330
 1.8300	13.4260
 1.8310	13.2320
 1.8320	13.2220
 1.8330	13.2070
 1.8340	13.1870
 1.8350	13.1670
 1.8360	13.1430
 1.8370	13.1180
 1.8380	13.0940
 1.8390	13.0630
 1.8400	13.0280
 1.8410	12.9900
 1.8420	12.9490
 1.8430	12.9040
 1.8440	12.8570
 1.8450	12.8050
 1.8460	12.7480
 1.8470	12.6820
 1.8480	12.6110
 1.8490	12.5350
 1.8500	12.4540
 1.8510	12.3670
 1.8520	12.2740
 1.8530	12.1760
 1.8540	12.0710
 1.8550	11.9600
 1.8560	11.8420
 1.8570	11.7140
 1.8580	11.5780
 1.8590	11.4360
 1.8600	11.2860
 1.8610	11.1280
 1.8620	10.9620
 1.8630	10.7900
 1.8640	10.6100
 1.8650	10.4220
 1.8660	10.2250
 1.8670	10.0180
 1.8680	 9.8050
 1.8690	 9.5830
 1.8700	 9.3550
 1.8710	 9.1200
 1.8720	 8.8800
 1.8730	 8.6330
 1.8740	 8.3880
 1.8750	 8.1410
 1.8760	 7.8930
 1.8770	 7.6520
 1.8780	 7.4080
 1.8790	 7.1640
 1.8800	 6.9280
 1.8810	 6.6980
 1.8820	 6.4660
 1.8830	 6.2390
 1.8840	 6.0200
 1.8850	 5.8010
 1.8860	 5.5880
 1.8870	 5.3820
 1.8880	 5.1820
 1.8890	 4.9930
 1.8900	 4.8140
 1.8910	 4.6460
 1.8920	 4.4880
 1.8930	 4.3410
 1.8940	 4.2010
 1.8950	 4.0690
 1.8960	 3.9440
 1.8970	 3.8270
 1.8980	 3.7210
 1.8990	 3.6270
 1.9000	 3.5390
 1.9010	 3.4630
 1.9020	 3.3890
 1.9030	 3.3220
 1.9040	 3.2580
 1.9050	 3.2000
 1.9060	 3.1500
 1.9070	 3.1050
 1.9080	 3.0650
 1.9090	 3.0300
 1.9100	 2.9960
 1.9110	 2.9650
 1.9120	 2.9350
 1.9130	 2.9090
 1.9140	 2.8870
 1.9150	 2.8660
 1.9160	 2.8500
 1.9170	 2.8360
 1.9180	 2.8230
 1.9190	 2.8100
 1.9200	 2.7980
 1.9210	 2.7860
 1.9220	 2.7760
 1.9230	 2.7660
 1.9240	 2.7600
 1.9250	 2.7550
 1.9260	 2.7520
 1.9270	 2.7500
 1.9280	 2.7470
 1.9290	 2.7460
 1.9300	 2.7460
 1.9310	 2.7480
 1.9320	 2.7500
 1.9330	 2.7510
 1.9340	 2.7540
 1.9350	 2.7570
 1.9360	 2.7580
 1.9370	 2.7630
 1.9380	 2.7700
 1.9390	 2.7760
 1.9400	 2.7810
 1.9410	 2.7890
 1.9420	 2.7950
 1.9430	 2.8030
 1.9440	 2.8110
 1.9450	 2.8210
 1.9460	 2.8310
 1.9470	 2.8410
 1.9480	 2.8520
 1.9490	 2.8620
 1.9500	 2.8740
 1.9510	 2.8870
 1.9520	 2.8990
 1.9530	 2.9130
 1.9540	 2.9270
 1.9550	 2.9410
 1.9560	 2.9550
 1.9570	 2.9690
 1.9580	 2.9840
 1.9590	 2.9970
 1.9600	 3.0060
 1.9610	 3.0200
 1.9620	 3.0360
 1.9630	 3.0530
 1.9640	 3.0730
 1.9650	 3.0920
 1.9660	 3.1060
 1.9670	 3.1210
 1.9680	 3.1390
 1.9690	 3.1570
 1.9700	 3.1760
 1.9710	 3.1960
 1.9720	 3.2150
 1.9730	 3.2340
 1.9740	 3.2510
 1.9750	 3.2700
 1.9760	 3.2900
 1.9770	 3.3080
 1.9780	 3.3270
 1.9790	 3.3460
 1.9800	 3.3680
 1.9810	 3.3890
 1.9820	 3.4120
 1.9830	 3.4340
 1.9840	 3.4580
 1.9850	 3.4800
 1.9860	 3.5000
 1.9870	 3.5220
 1.9880	 3.5440
 1.9890	 3.5660
 1.9900	 3.5920
 1.9910	 3.6140
 1.9920	 3.6380
 1.9930	 3.6630
 1.9940	 3.6870
 1.9950	 3.7120
 1.9960	 3.7360
 1.9970	 3.7570
 1.9980	 3.7820
 1.9990	 3.8100
 2.0000	 3.8360
 2.0010	 3.8610
 2.0020	 3.8890
 2.0030	 3.9120
 2.0040	 3.9350
 2.0050	 3.9600
 2.0060	 3.9870
 2.0070	 4.0120
 2.0080	 4.0360
 2.0090	 4.0600
 2.0100	 4.0810
 2.0110	 4.1050
 2.0120	 4.1290
 2.0130	 4.1530
 2.0140	 4.1810
 2.0150	 4.2080
 2.0160	 4.2350
 2.0170	 4.2610
 2.0180	 4.2860
 2.0190	 4.3100
 2.0200	 4.3330
 2.0210	 4.3520
 2.0220	 4.3720
 2.0230	 4.3910
 2.0240	 4.4120
 2.0250	 4.4370
 2.0260	 4.4600
 2.0270	 4.4830
 2.0280	 4.5050
 2.0290	 4.5290
 2.0300	 4.5500
 2.0310	 4.5700
 2.0320	 4.5920
 2.0330	 4.6120
 2.0340	 4.6280
 2.0350	 4.6460
 2.0360	 4.6630
 2.0370	 4.6810
 2.0380	 4.6980
 2.0390	 4.7160
 2.0400	 4.7370
 2.0410	 4.7570
 2.0420	 4.7770
 2.0430	 4.7970
 2.0440	 4.8150
 2.0450	 4.8320
 2.0460	 4.8490
 2.0470	 4.8670
 2.0480	 4.8830
 2.0490	 4.9000
 2.0500	 4.9160
 2.0510	 4.9260
 2.0520	 4.9420
 2.0530	 4.9620
 2.0540	 4.9810
 2.0550	 5.0030
 2.0560	 5.0240
 2.0570	 5.0370
 2.0580	 5.0510
 2.0590	 5.0670
 2.0600	 5.0820
 2.0610	 5.1000
 2.0620	 5.1200
 2.0630	 5.1400
 2.0640	 5.1600
 2.0650	 5.1780
 2.0660	 5.1970
 2.0670	 5.2140
 2.0680	 5.2280
 2.0690	 5.2450
 2.0700	 5.2650
 2.0710	 5.2830
 2.0720	 5.3010
 2.0730	 5.3200
 2.0740	 5.3380
 2.0750	 5.3540
 2.0760	 5.3720
 2.0770	 5.3900
 2.0780	 5.4090
 2.0790	 5.4270
 2.0800	 5.4450
 2.0810	 5.4620
 2.0820	 5.4790
 2.0830	 5.4930
 2.0840	 5.5110
 2.0850	 5.5310
 2.0860	 5.5490
 2.0870	 5.5670
 2.0880	 5.5860
 2.0890	 5.6030
 2.0900	 5.6150
 2.0910	 5.6330
 2.0920	 5.6540
 2.0930	 5.6720
 2.0940	 5.6930
 2.0950	 5.7110
 2.0960	 5.7230
 2.0970	 5.7400
 2.0980	 5.7570
 2.0990	 5.7750
 2.1000	 5.7970
 2.1010	 5.8160
 2.1020	 5.8330
 2.1030	 5.8510
 2.1040	 5.8680
 2.1050	 5.8850
 2.1060	 5.9030
 2.1070	 5.9240
 2.1080	 5.9420
 2.1090	 5.9590
 2.1100	 5.9760
 2.1110	 5.9900
 2.1120	 6.0070
 2.1130	 6.0260
 2.1140	 6.0440
 2.1150	 6.0650
 2.1160	 6.0830
 2.1170	 6.1020
 2.1180	 6.1200
 2.1190	 6.1340
 2.1200	 6.1510
 2.1210	 6.1670
 2.1220	 6.1850
 2.1230	 6.2020
 2.1240	 6.2200
 2.1250	 6.2360
 2.1260	 6.2510
 2.1270	 6.2660
 2.1280	 6.2810
 2.1290	 6.2950
 2.1300	 6.3080
 2.1310	 6.3220
 2.1320	 6.3360
 2.1330	 6.3510
 2.1340	 6.3670
 2.1350	 6.3830
 2.1360	 6.4010
 2.1370	 6.4180
 2.1380	 6.4320
 2.1390	 6.4470
 2.1400	 6.4610
 2.1410	 6.4770
 2.1420	 6.4940
 2.1430	 6.5130
 2.1440	 6.5290
 2.1450	 6.5450
 2.1460	 6.5620
 2.1470	 6.5770
 2.1480	 6.5920
 2.1490	 6.6110
 2.1500	 6.6250
 2.1510	 6.6370
 2.1520	 6.6500
 2.1530	 6.6620
 2.1540	 6.6740
 2.1550	 6.6880
 2.1560	 6.7020
 2.1570	 6.7160
 2.1580	 6.7300
 2.1590	 6.7450
 2.1600	 6.7610
 2.1610	 6.7760
 2.1620	 6.7890
 2.1630	 6.8060
 2.1640	 6.8230
 2.1650	 6.8400
 2.1660	 6.8610
 2.1670	 6.8760
 2.1680	 6.8850
 2.1690	 6.8980
 2.1700	 6.9070
 2.1710	 6.9190
 2.1720	 6.9360
 2.1730	 6.9480
 2.1740	 6.9590
 2.1750	 6.9710
 2.1760	 6.9800
 2.1770	 6.9930
 2.1780	 7.0080
 2.1790	 7.0230
 2.1800	 7.0410
 2.1810	 7.0570
 2.1820	 7.0710
 2.1830	 7.0840
 2.1840	 7.0970
 2.1850	 7.1090
 2.1860	 7.1220
 2.1870	 7.1330
 2.1880	 7.1460
 2.1890	 7.1580
 2.1900	 7.1730
 2.1910	 7.1890
 2.1920	 7.2040
 2.1930	 7.2170
 2.1940	 7.2320
 2.1950	 7.2500
 2.1960	 7.2630
 2.1970	 7.2780
 2.1980	 7.2900
 2.1990	 7.2970
 2.2000	 7.3050
 2.2010	 7.3140
 2.2020	 7.3230
 2.2030	 7.3340
 2.2040	 7.3420
 2.2050	 7.3490
 2.2060	 7.3560
 2.2070	 7.3620
 2.2080	 7.3640
 2.2090	 7.3710
 2.2100	 7.3820
 2.2110	 7.3880
 2.2120	 7.3920
 2.2130	 7.3950
 2.2140	 7.3930
 2.2150	 7.3950
 2.2160	 7.4000
 2.2170	 7.4010
 2.2180	 7.4010
 2.2190	 7.4020
 2.2200	 7.4010
 2.2210	 7.4010
 2.2220	 7.4020
 2.2230	 7.3990
 2.2240	 7.3910
 2.2250	 7.3850
 2.2260	 7.3790
 2.2270	 7.3700
 2.2280	 7.3610
 2.2290	 7.3500
 2.2300	 7.3350
 2.2310	 7.3170
 2.2320	 7.2980
 2.2330	 7.2840
 2.2340	 7.2650
 2.2350	 7.2470
 2.2360	 7.2230
 2.2370	 7.1940
 2.2380	 7.1690
 2.2390	 7.1460
 2.2400	 7.1180
 2.2410	 7.0910
 2.2420	 7.0610
 2.2430	 7.0230
 2.2440	 6.9910
 2.2450	 6.9630
 2.2460	 6.9310
 2.2470	 6.8970
 2.2480	 6.8640
 2.2490	 6.8300
 2.2500	 6.7960
 2.2510	 6.7670
 2.2520	 6.7310
 2.2530	 6.6910
 2.2540	 6.6530
 2.2550	 6.6150
 2.2560	 6.5770
 2.2570	 6.5440
 2.2580	 6.5080
 2.2590	 6.4700
 2.2600	 6.4310
 2.2610	 6.3910
 2.2620	 6.3520
 2.2630	 6.3110
 2.2640	 6.2700
 2.2650	 6.2320
 2.2660	 6.1950
 2.2670	 6.1600
 2.2680	 6.1280
 2.2690	 6.0950
 2.2700	 6.0620
 2.2710	 6.0310
 2.2720	 6.0000
 2.2730	 5.9730
 2.2740	 5.9510
 2.2750	 5.9270
 2.2760	 5.9070
 2.2770	 5.8850
 2.2780	 5.8650
 2.2790	 5.8390
 2.2800	 5.8050
 2.2810	 5.7810
 2.2820	 5.7570
 2.2830	 5.7360
 2.2840	 5.7290
 2.2850	 5.7120
 2.2860	 5.6920
 2.2870	 5.6700
 2.2880	 5.6440
 2.2890	 5.6160
 2.2900	 5.5860
 2.2910	 5.5560
 2.2920	 5.5230
 2.2930	 5.4930
 2.2940	 5.4690
 2.2950	 5.4400
 2.2960	 5.4130
 2.2970	 5.3830
 2.2980	 5.3530
 2.2990	 5.3170
 2.3000	 5.2770
 2.3010	 5.2370
 2.3020	 5.1980
 2.3030	 5.1680
 2.3040	 5.1440
 2.3050	 5.1230
 2.3060	 5.1030
 2.3070	 5.0790
 2.3080	 5.0570
 2.3090	 5.0430
 2.3100	 5.0350
 2.3110	 5.0290
 2.3120	 5.0230
 2.3130	 5.0200
 2.3140	 5.0200
 2.3150	 5.0190
 2.3160	 5.0210
 2.3170	 5.0330
 2.3180	 5.0370
 2.3190	 5.0370
 2.3200	 5.0380
 2.3210	 5.0420
 2.3220	 5.0380
 2.3230	 5.0270
 2.3240	 5.0220
 2.3250	 5.0130
 2.3260	 5.0050
 2.3270	 5.0060
 2.3280	 4.9950
 2.3290	 4.9770
 2.3300	 4.9610
 2.3310	 4.9430
 2.3320	 4.9250
 2.3330	 4.9050
 2.3340	 4.8890
 2.3350	 4.8770
 2.3360	 4.8600
 2.3370	 4.8470
 2.3380	 4.8250
 2.3390	 4.7930
 2.3400	 4.7650
 2.3410	 4.7340
 2.3420	 4.7100
 2.3430	 4.6910
 2.3440	 4.6710
 2.3450	 4.6530
 2.3460	 4.6340
 2.3470	 4.6150
 2.3480	 4.5970
 2.3490	 4.5770
 2.3500	 4.5610
 2.3510	 4.5460
 2.3520	 4.5340
 2.3530	 4.5260
 2.3540	 4.5190
 2.3550	 4.5100
 2.3560	 4.4980
 2.3570	 4.4840
 2.3580	 4.4750
 2.3590	 4.4720
 2.3600	 4.4650
 2.3610	 4.4560
 2.3620	 4.4420
 2.3630	 4.4270
 2.3640	 4.4110
 2.3650	 4.3950
 2.3660	 4.3880
 2.3670	 4.3740
 2.3680	 4.3620
 2.3690	 4.3590
 2.3700	 4.3510
 2.3710	 4.3380
 2.3720	 4.3260
 2.3730	 4.3150
 2.3740	 4.2970
 2.3750	 4.2850
 2.3760	 4.2730
 2.3770	 4.2520
 2.3780	 4.2370
 2.3790	 4.2300
 2.3800	 4.2140
 2.3810	 4.1990
 2.3820	 4.1900
 2.3830	 4.1680
 2.3840	 4.1500
 2.3850	 4.1390
 2.3860	 4.1190
 2.3870	 4.1000
 2.3880	 4.0900
 2.3890	 4.0840
 2.3900	 4.0740
 2.3910	 4.0760
 2.3920	 4.0750
 2.3930	 4.0570
 2.3940	 4.0380
 2.3950	 4.0340
 2.3960	 4.0230
 2.3970	 4.0010
 2.3980	 3.9860
 2.3990	 3.9580
 2.4000	 3.9270
 2.4010	 3.9200
 2.4020	 3.9190
 2.4030	 3.9170
 2.4040	 3.9040
 2.4050	 3.8820
 2.4060	 3.8640
 2.4070	 3.8410
 2.4080	 3.8310
 2.4090	 3.8290
 2.4100	 3.8020
 2.4110	 3.7840
 2.4120	 3.7790
 2.4130	 3.7520
 2.4140	 3.7450
 2.4150	 3.7340
 2.4160	 3.6940
 2.4170	 3.6730
 2.4180	 3.6560
 2.4190	 3.6400
 2.4200	 3.6310
 2.4210	 3.6170
 2.4220	 3.6040
 2.4230	 3.5870
 2.4240	 3.5670
 2.4250	 3.5490
 2.4260	 3.5330
 2.4270	 3.5410
 2.4280	 3.5470
 2.4290	 3.5260
 2.4300	 3.5100
 2.4310	 3.4800
 2.4320	 3.4400
 2.4330	 3.4340
 2.4340	 3.4260
 2.4350	 3.4120
 2.4360	 3.4200
 2.4370	 3.4230
 2.4380	 3.4060
 2.4390	 3.3870
 2.4400	 3.3650
 2.4410	 3.3160
 2.4420	 3.2890
 2.4430	 3.2810
 2.4440	 3.2500
 2.4450	 3.2550
 2.4460	 3.2620
 2.4470	 3.2590
 2.4480	 3.2510
 2.4490	 3.2190
 2.4500	 3.2220
 2.4510	 3.2210
 2.4520	 3.2180
 2.4530	 3.2230
 2.4540	 3.1870
 2.4550	 3.1620
 2.4560	 3.1610
 2.4570	 3.1760
 2.4580	 3.1790
 2.4590	 3.1560
 2.4600	 3.1320
 2.4610	 3.0770
 2.4620	 3.0440
 2.4630	 3.0490
 2.4640	 3.0230
 2.4650	 3.0190
 2.4660	 3.0230
 2.4670	 2.9960
 2.4680	 2.9910
 2.4690	 2.9620
 2.4700	 2.9540
 2.4710	 2.9590
 2.4720	 2.9540
 2.4730	 2.9640
 2.4740	 2.9600
 2.4750	 2.9380
 2.4760	 2.9220
 2.4770	 2.9070
 2.4780	 2.8860
 2.4790	 2.8560
 2.4800	 2.8460
 2.4810	 2.8560
 2.4820	 2.8420
 2.4830	 2.8310
 2.4840	 2.7940
 2.4850	 2.7370
 2.4860	 2.7200
 2.4870	 2.7420
 2.4880	 2.7660
 2.4890	 2.7980
 2.4900	 2.8490
 2.4910	 2.8390
 2.4920	 2.8310
 2.4930	 2.8900
 2.4940	 2.9000
 2.4950	 2.9000
 2.4960	 2.9000
 2.4970	 2.8480
 2.4980	 2.8050
 2.4990	 2.7840
 2.5000	 2.8020
