Name: Umbellularia californica 3
Type: vegetation
Class: Shrub
Genus: Umbellularia
Species: californica
Sample No.: VH030
Owner: UCSB
Wavelength Range: VSWIR
Origin: 34.5075; -119.763; WGS84
Collection Date: 4/1/2013
Description: Samples were collected as part of the HyspIRI Airborne Campaign. 48 individual plants were sampled in three times in 2013 - spring  summer  and fall. The name of the sample includes a 1  2  or 3 which references a different individual of the species. Samples were taken to JPL and processed within 48 hours of collection. The same leaves were processed in the Nicolet and then measured using the ASD.
Measurement: Bidirectional reflectance
First Column: X
Second Column: Y
X Units: Wavelength (micrometers)
Y Units: Reflectance (percentage)
First X Value: 0.35
Last X Value: 2.5
Number of X Values: 2151
Additional Information: vegetation.shrub.umbellularia.californica.vswir.vh030.ucsb.asd.ancillary.txt

 0.3500	 5.1930
 0.3510	 5.7780
 0.3520	 5.8580
 0.3530	 5.5830
 0.3540	 5.3620
 0.3550	 5.4550
 0.3560	 5.5220
 0.3570	 5.5010
 0.3580	 5.4900
 0.3590	 5.5710
 0.3600	 5.5500
 0.3610	 5.4270
 0.3620	 5.5130
 0.3630	 5.4830
 0.3640	 5.4430
 0.3650	 5.5210
 0.3660	 5.4850
 0.3670	 5.5320
 0.3680	 5.6060
 0.3690	 5.5050
 0.3700	 5.4850
 0.3710	 5.5360
 0.3720	 5.5820
 0.3730	 5.4950
 0.3740	 5.4590
 0.3750	 5.5090
 0.3760	 5.5860
 0.3770	 5.4730
 0.3780	 5.3840
 0.3790	 5.3810
 0.3800	 5.3780
 0.3810	 5.4240
 0.3820	 5.3970
 0.3830	 5.2840
 0.3840	 5.3800
 0.3850	 5.4100
 0.3860	 5.3540
 0.3870	 5.2930
 0.3880	 5.3380
 0.3890	 5.3910
 0.3900	 5.3840
 0.3910	 5.3080
 0.3920	 5.3510
 0.3930	 5.3760
 0.3940	 5.2960
 0.3950	 5.3400
 0.3960	 5.4350
 0.3970	 5.4860
 0.3980	 5.4110
 0.3990	 5.3370
 0.4000	 5.3110
 0.4010	 5.3270
 0.4020	 5.3280
 0.4030	 5.3020
 0.4040	 5.3120
 0.4050	 5.3870
 0.4060	 5.4100
 0.4070	 5.4060
 0.4080	 5.3850
 0.4090	 5.3470
 0.4100	 5.3580
 0.4110	 5.3810
 0.4120	 5.3880
 0.4130	 5.4010
 0.4140	 5.4220
 0.4150	 5.4250
 0.4160	 5.3990
 0.4170	 5.4370
 0.4180	 5.4840
 0.4190	 5.5030
 0.4200	 5.4860
 0.4210	 5.5050
 0.4220	 5.5420
 0.4230	 5.5730
 0.4240	 5.6100
 0.4250	 5.6360
 0.4260	 5.6600
 0.4270	 5.6950
 0.4280	 5.7090
 0.4290	 5.7240
 0.4300	 5.7570
 0.4310	 5.8050
 0.4320	 5.8340
 0.4330	 5.8490
 0.4340	 5.8670
 0.4350	 5.8980
 0.4360	 5.9110
 0.4370	 5.9170
 0.4380	 5.9520
 0.4390	 5.9790
 0.4400	 5.9950
 0.4410	 6.0030
 0.4420	 6.0120
 0.4430	 6.0300
 0.4440	 6.0510
 0.4450	 6.0660
 0.4460	 6.0840
 0.4470	 6.1000
 0.4480	 6.1120
 0.4490	 6.1250
 0.4500	 6.1290
 0.4510	 6.1350
 0.4520	 6.1550
 0.4530	 6.1740
 0.4540	 6.1850
 0.4550	 6.1910
 0.4560	 6.2020
 0.4570	 6.2150
 0.4580	 6.2220
 0.4590	 6.2220
 0.4600	 6.2300
 0.4610	 6.2400
 0.4620	 6.2480
 0.4630	 6.2510
 0.4640	 6.2450
 0.4650	 6.2530
 0.4660	 6.2700
 0.4670	 6.2640
 0.4680	 6.2740
 0.4690	 6.2780
 0.4700	 6.2630
 0.4710	 6.2740
 0.4720	 6.2770
 0.4730	 6.2680
 0.4740	 6.2590
 0.4750	 6.2610
 0.4760	 6.2610
 0.4770	 6.2550
 0.4780	 6.2580
 0.4790	 6.2690
 0.4800	 6.2790
 0.4810	 6.2800
 0.4820	 6.2760
 0.4830	 6.2770
 0.4840	 6.2820
 0.4850	 6.2800
 0.4860	 6.2890
 0.4870	 6.3050
 0.4880	 6.3210
 0.4890	 6.3400
 0.4900	 6.3480
 0.4910	 6.3530
 0.4920	 6.3670
 0.4930	 6.3850
 0.4940	 6.4110
 0.4950	 6.4410
 0.4960	 6.4650
 0.4970	 6.4830
 0.4980	 6.5070
 0.4990	 6.5410
 0.5000	 6.5760
 0.5010	 6.6110
 0.5020	 6.6480
 0.5030	 6.6930
 0.5040	 6.7440
 0.5050	 6.8020
 0.5060	 6.8650
 0.5070	 6.9260
 0.5080	 6.9920
 0.5090	 7.0670
 0.5100	 7.1520
 0.5110	 7.2600
 0.5120	 7.3720
 0.5130	 7.4790
 0.5140	 7.5940
 0.5150	 7.7280
 0.5160	 7.8730
 0.5170	 8.0200
 0.5180	 8.1910
 0.5190	 8.3660
 0.5200	 8.5450
 0.5210	 8.7440
 0.5220	 8.9430
 0.5230	 9.1420
 0.5240	 9.3430
 0.5250	 9.5510
 0.5260	 9.7560
 0.5270	 9.9560
 0.5280	10.1550
 0.5290	10.3560
 0.5300	10.5540
 0.5310	10.7450
 0.5320	10.9210
 0.5330	11.0900
 0.5340	11.2560
 0.5350	11.4210
 0.5360	11.5750
 0.5370	11.7180
 0.5380	11.8520
 0.5390	11.9810
 0.5400	12.1120
 0.5410	12.2370
 0.5420	12.3530
 0.5430	12.4630
 0.5440	12.5750
 0.5450	12.6790
 0.5460	12.7640
 0.5470	12.8380
 0.5480	12.9090
 0.5490	12.9780
 0.5500	13.0390
 0.5510	13.0820
 0.5520	13.1120
 0.5530	13.1350
 0.5540	13.1420
 0.5550	13.1310
 0.5560	13.1030
 0.5570	13.0610
 0.5580	13.0040
 0.5590	12.9350
 0.5600	12.8560
 0.5610	12.7620
 0.5620	12.6640
 0.5630	12.5610
 0.5640	12.4500
 0.5650	12.3230
 0.5660	12.1830
 0.5670	12.0390
 0.5680	11.9000
 0.5690	11.7480
 0.5700	11.5950
 0.5710	11.4480
 0.5720	11.2970
 0.5730	11.1560
 0.5740	11.0240
 0.5750	10.8970
 0.5760	10.7740
 0.5770	10.6570
 0.5780	10.5460
 0.5790	10.4480
 0.5800	10.3560
 0.5810	10.2700
 0.5820	10.1920
 0.5830	10.1240
 0.5840	10.0590
 0.5850	 9.9950
 0.5860	 9.9310
 0.5870	 9.8770
 0.5880	 9.8300
 0.5890	 9.7890
 0.5900	 9.7550
 0.5910	 9.7190
 0.5920	 9.6800
 0.5930	 9.6450
 0.5940	 9.6080
 0.5950	 9.5760
 0.5960	 9.5510
 0.5970	 9.5240
 0.5980	 9.4950
 0.5990	 9.4640
 0.6000	 9.4310
 0.6010	 9.3880
 0.6020	 9.3450
 0.6030	 9.3010
 0.6040	 9.2420
 0.6050	 9.1860
 0.6060	 9.1290
 0.6070	 9.0630
 0.6080	 8.9910
 0.6090	 8.9260
 0.6100	 8.8630
 0.6110	 8.7910
 0.6120	 8.7150
 0.6130	 8.6390
 0.6140	 8.5670
 0.6150	 8.5000
 0.6160	 8.4360
 0.6170	 8.3730
 0.6180	 8.3130
 0.6190	 8.2630
 0.6200	 8.2180
 0.6210	 8.1770
 0.6220	 8.1480
 0.6230	 8.1210
 0.6240	 8.0920
 0.6250	 8.0640
 0.6260	 8.0470
 0.6270	 8.0360
 0.6280	 8.0260
 0.6290	 8.0140
 0.6300	 8.0060
 0.6310	 7.9960
 0.6320	 7.9850
 0.6330	 7.9710
 0.6340	 7.9550
 0.6350	 7.9310
 0.6360	 7.8980
 0.6370	 7.8620
 0.6380	 7.8160
 0.6390	 7.7630
 0.6400	 7.7050
 0.6410	 7.6460
 0.6420	 7.5840
 0.6430	 7.5200
 0.6440	 7.4490
 0.6450	 7.3790
 0.6460	 7.3130
 0.6470	 7.2540
 0.6480	 7.1960
 0.6490	 7.1430
 0.6500	 7.0980
 0.6510	 7.0570
 0.6520	 7.0170
 0.6530	 6.9760
 0.6540	 6.9360
 0.6550	 6.9000
 0.6560	 6.8610
 0.6570	 6.8190
 0.6580	 6.7720
 0.6590	 6.7200
 0.6600	 6.6700
 0.6610	 6.6230
 0.6620	 6.5760
 0.6630	 6.5290
 0.6640	 6.4850
 0.6650	 6.4500
 0.6660	 6.4200
 0.6670	 6.3920
 0.6680	 6.3680
 0.6690	 6.3500
 0.6700	 6.3380
 0.6710	 6.3300
 0.6720	 6.3240
 0.6730	 6.3190
 0.6740	 6.3240
 0.6750	 6.3340
 0.6760	 6.3430
 0.6770	 6.3530
 0.6780	 6.3690
 0.6790	 6.3910
 0.6800	 6.4140
 0.6810	 6.4420
 0.6820	 6.4780
 0.6830	 6.5230
 0.6840	 6.5790
 0.6850	 6.6510
 0.6860	 6.7410
 0.6870	 6.8530
 0.6880	 6.9900
 0.6890	 7.1610
 0.6900	 7.3740
 0.6910	 7.6350
 0.6920	 7.9540
 0.6930	 8.3360
 0.6940	 8.7840
 0.6950	 9.2990
 0.6960	 9.8930
 0.6970	10.5630
 0.6980	11.3050
 0.6990	12.1140
 0.7000	12.9870
 0.7010	13.9170
 0.7020	14.8950
 0.7030	15.9110
 0.7040	16.9590
 0.7050	18.0280
 0.7060	19.1050
 0.7070	20.1970
 0.7080	21.2960
 0.7090	22.3950
 0.7100	23.4970
 0.7110	24.5930
 0.7120	25.6810
 0.7130	26.7630
 0.7140	27.8370
 0.7150	28.8990
 0.7160	29.9450
 0.7170	30.9730
 0.7180	31.9920
 0.7190	32.9940
 0.7200	33.9720
 0.7210	34.9370
 0.7220	35.8780
 0.7230	36.7920
 0.7240	37.6860
 0.7250	38.5530
 0.7260	39.3940
 0.7270	40.2100
 0.7280	40.9890
 0.7290	41.7360
 0.7300	42.4580
 0.7310	43.1570
 0.7320	43.8220
 0.7330	44.4530
 0.7340	45.0550
 0.7350	45.6380
 0.7360	46.1890
 0.7370	46.7110
 0.7380	47.2080
 0.7390	47.6760
 0.7400	48.1230
 0.7410	48.5450
 0.7420	48.9370
 0.7430	49.3150
 0.7440	49.6670
 0.7450	49.9920
 0.7460	50.3020
 0.7470	50.5840
 0.7480	50.8460
 0.7490	51.0980
 0.7500	51.3310
 0.7510	51.5440
 0.7520	51.7390
 0.7530	51.9190
 0.7540	52.0840
 0.7550	52.2350
 0.7560	52.3740
 0.7570	52.4990
 0.7580	52.6160
 0.7590	52.7240
 0.7600	52.8240
 0.7610	52.9150
 0.7620	52.9970
 0.7630	53.0740
 0.7640	53.1490
 0.7650	53.2100
 0.7660	53.2610
 0.7670	53.3080
 0.7680	53.3570
 0.7690	53.4020
 0.7700	53.4410
 0.7710	53.4740
 0.7720	53.5100
 0.7730	53.5410
 0.7740	53.5690
 0.7750	53.5970
 0.7760	53.6310
 0.7770	53.6580
 0.7780	53.6790
 0.7790	53.7000
 0.7800	53.7190
 0.7810	53.7390
 0.7820	53.7600
 0.7830	53.7770
 0.7840	53.7890
 0.7850	53.8020
 0.7860	53.8210
 0.7870	53.8420
 0.7880	53.8500
 0.7890	53.8550
 0.7900	53.8720
 0.7910	53.8790
 0.7920	53.8900
 0.7930	53.9040
 0.7940	53.9120
 0.7950	53.9130
 0.7960	53.9180
 0.7970	53.9270
 0.7980	53.9270
 0.7990	53.9360
 0.8000	53.9430
 0.8010	53.9400
 0.8020	53.9390
 0.8030	53.9400
 0.8040	53.9400
 0.8050	53.9370
 0.8060	53.9340
 0.8070	53.9310
 0.8080	53.9260
 0.8090	53.9160
 0.8100	53.9150
 0.8110	53.9120
 0.8120	53.9030
 0.8130	53.9030
 0.8140	53.8950
 0.8150	53.8810
 0.8160	53.8680
 0.8170	53.8610
 0.8180	53.8520
 0.8190	53.8430
 0.8200	53.8390
 0.8210	53.8180
 0.8220	53.8040
 0.8230	53.8010
 0.8240	53.7960
 0.8250	53.7860
 0.8260	53.7700
 0.8270	53.7510
 0.8280	53.7430
 0.8290	53.7330
 0.8300	53.7170
 0.8310	53.6990
 0.8320	53.6860
 0.8330	53.6780
 0.8340	53.6690
 0.8350	53.6560
 0.8360	53.6490
 0.8370	53.6420
 0.8380	53.6330
 0.8390	53.6240
 0.8400	53.6140
 0.8410	53.6040
 0.8420	53.5990
 0.8430	53.5990
 0.8440	53.5940
 0.8450	53.5890
 0.8460	53.5860
 0.8470	53.5770
 0.8480	53.5760
 0.8490	53.5810
 0.8500	53.5830
 0.8510	53.5780
 0.8520	53.5720
 0.8530	53.5690
 0.8540	53.5650
 0.8550	53.5570
 0.8560	53.5600
 0.8570	53.5690
 0.8580	53.5650
 0.8590	53.5610
 0.8600	53.5560
 0.8610	53.5520
 0.8620	53.5580
 0.8630	53.5580
 0.8640	53.5550
 0.8650	53.5540
 0.8660	53.5630
 0.8670	53.5680
 0.8680	53.5680
 0.8690	53.5690
 0.8700	53.5710
 0.8710	53.5650
 0.8720	53.5580
 0.8730	53.5630
 0.8740	53.5740
 0.8750	53.5800
 0.8760	53.5820
 0.8770	53.5850
 0.8780	53.5840
 0.8790	53.5800
 0.8800	53.5800
 0.8810	53.5890
 0.8820	53.6040
 0.8830	53.6130
 0.8840	53.6100
 0.8850	53.6060
 0.8860	53.6090
 0.8870	53.6190
 0.8880	53.6320
 0.8890	53.6320
 0.8900	53.6290
 0.8910	53.6300
 0.8920	53.6340
 0.8930	53.6330
 0.8940	53.6360
 0.8950	53.6410
 0.8960	53.6410
 0.8970	53.6430
 0.8980	53.6380
 0.8990	53.6310
 0.9000	53.6360
 0.9010	53.6370
 0.9020	53.6390
 0.9030	53.6450
 0.9040	53.6560
 0.9050	53.6500
 0.9060	53.6460
 0.9070	53.6520
 0.9080	53.6530
 0.9090	53.6560
 0.9100	53.6570
 0.9110	53.6560
 0.9120	53.6590
 0.9130	53.6560
 0.9140	53.6540
 0.9150	53.6570
 0.9160	53.6490
 0.9170	53.6470
 0.9180	53.6510
 0.9190	53.6540
 0.9200	53.6610
 0.9210	53.6600
 0.9220	53.6530
 0.9230	53.6480
 0.9240	53.6380
 0.9250	53.6290
 0.9260	53.6230
 0.9270	53.6160
 0.9280	53.6120
 0.9290	53.6000
 0.9300	53.5820
 0.9310	53.5710
 0.9320	53.5470
 0.9330	53.5280
 0.9340	53.5160
 0.9350	53.4900
 0.9360	53.4670
 0.9370	53.4440
 0.9380	53.4230
 0.9390	53.4120
 0.9400	53.4080
 0.9410	53.3890
 0.9420	53.3490
 0.9430	53.3230
 0.9440	53.2720
 0.9450	53.2250
 0.9460	53.1980
 0.9470	53.1570
 0.9480	53.1060
 0.9490	53.0520
 0.9500	53.0010
 0.9510	52.9530
 0.9520	52.8870
 0.9530	52.8130
 0.9540	52.7430
 0.9550	52.6810
 0.9560	52.6100
 0.9570	52.5510
 0.9580	52.5170
 0.9590	52.4600
 0.9600	52.4060
 0.9610	52.3580
 0.9620	52.3100
 0.9630	52.2580
 0.9640	52.2270
 0.9650	52.2050
 0.9660	52.1730
 0.9670	52.1340
 0.9680	52.1100
 0.9690	52.1030
 0.9700	52.1010
 0.9710	52.0850
 0.9720	52.0590
 0.9730	52.0390
 0.9740	52.0400
 0.9750	52.0310
 0.9760	52.0140
 0.9770	52.0050
 0.9780	52.0140
 0.9790	51.9850
 0.9800	51.9870
 0.9810	52.0020
 0.9820	51.9870
 0.9830	52.0080
 0.9840	52.0230
 0.9850	52.0250
 0.9860	52.0270
 0.9870	52.0210
 0.9880	52.0270
 0.9890	52.0530
 0.9900	52.0890
 0.9910	52.0880
 0.9920	52.1060
 0.9930	52.1240
 0.9940	52.1420
 0.9950	52.1600
 0.9960	52.1780
 0.9970	52.1960
 0.9980	52.2140
 0.9990	52.2320
 1.0000	52.2500
 1.0010	52.2680
 1.0020	52.2860
 1.0030	52.3040
 1.0040	52.3220
 1.0050	52.3400
 1.0060	52.3580
 1.0070	52.3760
 1.0080	52.3940
 1.0090	52.4120
 1.0100	52.4120
 1.0110	52.4230
 1.0120	52.4390
 1.0130	52.4540
 1.0140	52.4720
 1.0150	52.4980
 1.0160	52.5210
 1.0170	52.5390
 1.0180	52.5540
 1.0190	52.5610
 1.0200	52.5680
 1.0210	52.5750
 1.0220	52.5830
 1.0230	52.5960
 1.0240	52.6150
 1.0250	52.6300
 1.0260	52.6470
 1.0270	52.6600
 1.0280	52.6680
 1.0290	52.6790
 1.0300	52.6910
 1.0310	52.7040
 1.0320	52.7230
 1.0330	52.7320
 1.0340	52.7400
 1.0350	52.7450
 1.0360	52.7490
 1.0370	52.7530
 1.0380	52.7620
 1.0390	52.7750
 1.0400	52.7880
 1.0410	52.8070
 1.0420	52.8180
 1.0430	52.8280
 1.0440	52.8350
 1.0450	52.8360
 1.0460	52.8410
 1.0470	52.8480
 1.0480	52.8530
 1.0490	52.8590
 1.0500	52.8620
 1.0510	52.8630
 1.0520	52.8650
 1.0530	52.8670
 1.0540	52.8680
 1.0550	52.8700
 1.0560	52.8740
 1.0570	52.8790
 1.0580	52.8870
 1.0590	52.8920
 1.0600	52.8990
 1.0610	52.9030
 1.0620	52.9040
 1.0630	52.9030
 1.0640	52.8990
 1.0650	52.8960
 1.0660	52.8900
 1.0670	52.8880
 1.0680	52.8890
 1.0690	52.8940
 1.0700	52.8930
 1.0710	52.8920
 1.0720	52.8900
 1.0730	52.8830
 1.0740	52.8810
 1.0750	52.8830
 1.0760	52.8820
 1.0770	52.8830
 1.0780	52.8810
 1.0790	52.8780
 1.0800	52.8760
 1.0810	52.8740
 1.0820	52.8680
 1.0830	52.8580
 1.0840	52.8530
 1.0850	52.8480
 1.0860	52.8440
 1.0870	52.8390
 1.0880	52.8400
 1.0890	52.8330
 1.0900	52.8190
 1.0910	52.8110
 1.0920	52.8050
 1.0930	52.7970
 1.0940	52.7950
 1.0950	52.7860
 1.0960	52.7740
 1.0970	52.7630
 1.0980	52.7510
 1.0990	52.7390
 1.1000	52.7290
 1.1010	52.7190
 1.1020	52.7080
 1.1030	52.7000
 1.1040	52.6870
 1.1050	52.6730
 1.1060	52.6580
 1.1070	52.6410
 1.1080	52.6240
 1.1090	52.6100
 1.1100	52.5930
 1.1110	52.5740
 1.1120	52.5570
 1.1130	52.5420
 1.1140	52.5220
 1.1150	52.5020
 1.1160	52.4780
 1.1170	52.4510
 1.1180	52.4230
 1.1190	52.3940
 1.1200	52.3600
 1.1210	52.3280
 1.1220	52.2910
 1.1230	52.2490
 1.1240	52.2060
 1.1250	52.1550
 1.1260	52.0970
 1.1270	52.0350
 1.1280	51.9680
 1.1290	51.8940
 1.1300	51.8160
 1.1310	51.7290
 1.1320	51.6340
 1.1330	51.5310
 1.1340	51.4180
 1.1350	51.3000
 1.1360	51.1730
 1.1370	51.0430
 1.1380	50.9060
 1.1390	50.7620
 1.1400	50.6120
 1.1410	50.4610
 1.1420	50.3060
 1.1430	50.1520
 1.1440	49.9980
 1.1450	49.8420
 1.1460	49.6930
 1.1470	49.5440
 1.1480	49.4030
 1.1490	49.2650
 1.1500	49.1390
 1.1510	49.0200
 1.1520	48.9080
 1.1530	48.8020
 1.1540	48.7040
 1.1550	48.6120
 1.1560	48.5280
 1.1570	48.4530
 1.1580	48.3870
 1.1590	48.3270
 1.1600	48.2720
 1.1610	48.2250
 1.1620	48.1850
 1.1630	48.1440
 1.1640	48.1080
 1.1650	48.0740
 1.1660	48.0400
 1.1670	48.0080
 1.1680	47.9800
 1.1690	47.9520
 1.1700	47.9250
 1.1710	47.8970
 1.1720	47.8700
 1.1730	47.8430
 1.1740	47.8190
 1.1750	47.7900
 1.1760	47.7620
 1.1770	47.7330
 1.1780	47.6990
 1.1790	47.6620
 1.1800	47.6250
 1.1810	47.5880
 1.1820	47.5550
 1.1830	47.5230
 1.1840	47.4920
 1.1850	47.4590
 1.1860	47.4240
 1.1870	47.3930
 1.1880	47.3650
 1.1890	47.3390
 1.1900	47.3170
 1.1910	47.3010
 1.1920	47.2860
 1.1930	47.2750
 1.1940	47.2670
 1.1950	47.2620
 1.1960	47.2590
 1.1970	47.2620
 1.1980	47.2660
 1.1990	47.2700
 1.2000	47.2780
 1.2010	47.2910
 1.2020	47.3030
 1.2030	47.3200
 1.2040	47.3380
 1.2050	47.3560
 1.2060	47.3780
 1.2070	47.4050
 1.2080	47.4330
 1.2090	47.4660
 1.2100	47.4990
 1.2110	47.5340
 1.2120	47.5710
 1.2130	47.6100
 1.2140	47.6520
 1.2150	47.6950
 1.2160	47.7390
 1.2170	47.7840
 1.2180	47.8310
 1.2190	47.8780
 1.2200	47.9250
 1.2210	47.9770
 1.2220	48.0270
 1.2230	48.0750
 1.2240	48.1240
 1.2250	48.1710
 1.2260	48.2160
 1.2270	48.2600
 1.2280	48.3010
 1.2290	48.3430
 1.2300	48.3840
 1.2310	48.4220
 1.2320	48.4580
 1.2330	48.4910
 1.2340	48.5230
 1.2350	48.5530
 1.2360	48.5810
 1.2370	48.6070
 1.2380	48.6350
 1.2390	48.6590
 1.2400	48.6840
 1.2410	48.7130
 1.2420	48.7390
 1.2430	48.7610
 1.2440	48.7840
 1.2450	48.8030
 1.2460	48.8210
 1.2470	48.8370
 1.2480	48.8510
 1.2490	48.8640
 1.2500	48.8740
 1.2510	48.8850
 1.2520	48.8960
 1.2530	48.9060
 1.2540	48.9190
 1.2550	48.9300
 1.2560	48.9390
 1.2570	48.9480
 1.2580	48.9520
 1.2590	48.9560
 1.2600	48.9570
 1.2610	48.9580
 1.2620	48.9570
 1.2630	48.9560
 1.2640	48.9560
 1.2650	48.9550
 1.2660	48.9510
 1.2670	48.9470
 1.2680	48.9410
 1.2690	48.9320
 1.2700	48.9240
 1.2710	48.9170
 1.2720	48.9070
 1.2730	48.8960
 1.2740	48.8840
 1.2750	48.8700
 1.2760	48.8520
 1.2770	48.8360
 1.2780	48.8180
 1.2790	48.8000
 1.2800	48.7820
 1.2810	48.7600
 1.2820	48.7380
 1.2830	48.7140
 1.2840	48.6880
 1.2850	48.6640
 1.2860	48.6400
 1.2870	48.6120
 1.2880	48.5840
 1.2890	48.5520
 1.2900	48.5180
 1.2910	48.4790
 1.2920	48.4420
 1.2930	48.4040
 1.2940	48.3630
 1.2950	48.3230
 1.2960	48.2800
 1.2970	48.2320
 1.2980	48.1820
 1.2990	48.1300
 1.3000	48.0750
 1.3010	48.0190
 1.3020	47.9590
 1.3030	47.8970
 1.3040	47.8320
 1.3050	47.7650
 1.3060	47.6980
 1.3070	47.6270
 1.3080	47.5490
 1.3090	47.4690
 1.3100	47.3910
 1.3110	47.3060
 1.3120	47.2220
 1.3130	47.1380
 1.3140	47.0470
 1.3150	46.9490
 1.3160	46.8520
 1.3170	46.7550
 1.3180	46.6490
 1.3190	46.5400
 1.3200	46.4280
 1.3210	46.3070
 1.3220	46.1830
 1.3230	46.0600
 1.3240	45.9320
 1.3250	45.8040
 1.3260	45.6750
 1.3270	45.5430
 1.3280	45.4080
 1.3290	45.2690
 1.3300	45.1300
 1.3310	44.9860
 1.3320	44.8380
 1.3330	44.6910
 1.3340	44.5400
 1.3350	44.3880
 1.3360	44.2380
 1.3370	44.0840
 1.3380	43.9310
 1.3390	43.7780
 1.3400	43.6230
 1.3410	43.4680
 1.3420	43.3160
 1.3430	43.1650
 1.3440	43.0120
 1.3450	42.8610
 1.3460	42.7120
 1.3470	42.5590
 1.3480	42.4040
 1.3490	42.2520
 1.3500	42.1000
 1.3510	41.9490
 1.3520	41.7990
 1.3530	41.6510
 1.3540	41.4990
 1.3550	41.3440
 1.3560	41.1900
 1.3570	41.0320
 1.3580	40.8760
 1.3590	40.7190
 1.3600	40.5590
 1.3610	40.3950
 1.3620	40.2240
 1.3630	40.0490
 1.3640	39.8690
 1.3650	39.6790
 1.3660	39.4820
 1.3670	39.2770
 1.3680	39.0590
 1.3690	38.8300
 1.3700	38.5860
 1.3710	38.3290
 1.3720	38.0580
 1.3730	37.7680
 1.3740	37.4640
 1.3750	37.1400
 1.3760	36.7920
 1.3770	36.4240
 1.3780	36.0290
 1.3790	35.6110
 1.3800	35.1680
 1.3810	34.7000
 1.3820	34.2130
 1.3830	33.7050
 1.3840	33.1780
 1.3850	32.6310
 1.3860	32.0700
 1.3870	31.4870
 1.3880	30.9020
 1.3890	30.3050
 1.3900	29.6970
 1.3910	29.0910
 1.3920	28.4800
 1.3930	27.8650
 1.3940	27.2550
 1.3950	26.6430
 1.3960	26.0400
 1.3970	25.4490
 1.3980	24.8680
 1.3990	24.3110
 1.4000	23.7710
 1.4010	23.2460
 1.4020	22.7430
 1.4030	22.2570
 1.4040	21.7930
 1.4050	21.3510
 1.4060	20.9330
 1.4070	20.5420
 1.4080	20.1730
 1.4090	19.8280
 1.4100	19.5090
 1.4110	19.2090
 1.4120	18.9300
 1.4130	18.6730
 1.4140	18.4360
 1.4150	18.2220
 1.4160	18.0270
 1.4170	17.8470
 1.4180	17.6840
 1.4190	17.5350
 1.4200	17.3990
 1.4210	17.2770
 1.4220	17.1680
 1.4230	17.0720
 1.4240	16.9860
 1.4250	16.9090
 1.4260	16.8420
 1.4270	16.7820
 1.4280	16.7290
 1.4290	16.6850
 1.4300	16.6500
 1.4310	16.6200
 1.4320	16.5980
 1.4330	16.5800
 1.4340	16.5670
 1.4350	16.5590
 1.4360	16.5560
 1.4370	16.5580
 1.4380	16.5630
 1.4390	16.5720
 1.4400	16.5860
 1.4410	16.6030
 1.4420	16.6220
 1.4430	16.6430
 1.4440	16.6660
 1.4450	16.6900
 1.4460	16.7150
 1.4470	16.7430
 1.4480	16.7710
 1.4490	16.8010
 1.4500	16.8330
 1.4510	16.8640
 1.4520	16.8960
 1.4530	16.9290
 1.4540	16.9660
 1.4550	17.0050
 1.4560	17.0460
 1.4570	17.0900
 1.4580	17.1360
 1.4590	17.1850
 1.4600	17.2390
 1.4610	17.2950
 1.4620	17.3580
 1.4630	17.4270
 1.4640	17.4990
 1.4650	17.5780
 1.4660	17.6620
 1.4670	17.7480
 1.4680	17.8400
 1.4690	17.9380
 1.4700	18.0390
 1.4710	18.1460
 1.4720	18.2580
 1.4730	18.3710
 1.4740	18.4880
 1.4750	18.6090
 1.4760	18.7310
 1.4770	18.8560
 1.4780	18.9840
 1.4790	19.1150
 1.4800	19.2470
 1.4810	19.3810
 1.4820	19.5180
 1.4830	19.6530
 1.4840	19.7900
 1.4850	19.9270
 1.4860	20.0640
 1.4870	20.2030
 1.4880	20.3430
 1.4890	20.4830
 1.4900	20.6230
 1.4910	20.7620
 1.4920	20.9020
 1.4930	21.0430
 1.4940	21.1840
 1.4950	21.3260
 1.4960	21.4680
 1.4970	21.6090
 1.4980	21.7510
 1.4990	21.8910
 1.5000	22.0330
 1.5010	22.1760
 1.5020	22.3180
 1.5030	22.4610
 1.5040	22.6010
 1.5050	22.7390
 1.5060	22.8780
 1.5070	23.0160
 1.5080	23.1540
 1.5090	23.2920
 1.5100	23.4290
 1.5110	23.5650
 1.5120	23.7010
 1.5130	23.8340
 1.5140	23.9650
 1.5150	24.0960
 1.5160	24.2260
 1.5170	24.3590
 1.5180	24.4890
 1.5190	24.6190
 1.5200	24.7470
 1.5210	24.8710
 1.5220	24.9940
 1.5230	25.1180
 1.5240	25.2380
 1.5250	25.3600
 1.5260	25.4810
 1.5270	25.5990
 1.5280	25.7180
 1.5290	25.8330
 1.5300	25.9470
 1.5310	26.0610
 1.5320	26.1720
 1.5330	26.2840
 1.5340	26.3940
 1.5350	26.5030
 1.5360	26.6110
 1.5370	26.7170
 1.5380	26.8230
 1.5390	26.9300
 1.5400	27.0370
 1.5410	27.1420
 1.5420	27.2470
 1.5430	27.3460
 1.5440	27.4440
 1.5450	27.5410
 1.5460	27.6360
 1.5470	27.7350
 1.5480	27.8320
 1.5490	27.9290
 1.5500	28.0270
 1.5510	28.1200
 1.5520	28.2140
 1.5530	28.3050
 1.5540	28.3950
 1.5550	28.4880
 1.5560	28.5770
 1.5570	28.6660
 1.5580	28.7530
 1.5590	28.8380
 1.5600	28.9240
 1.5610	29.0090
 1.5620	29.0930
 1.5630	29.1790
 1.5640	29.2610
 1.5650	29.3420
 1.5660	29.4230
 1.5670	29.5010
 1.5680	29.5770
 1.5690	29.6520
 1.5700	29.7280
 1.5710	29.8030
 1.5720	29.8800
 1.5730	29.9590
 1.5740	30.0350
 1.5750	30.1120
 1.5760	30.1870
 1.5770	30.2590
 1.5780	30.3340
 1.5790	30.4070
 1.5800	30.4800
 1.5810	30.5540
 1.5820	30.6280
 1.5830	30.7010
 1.5840	30.7740
 1.5850	30.8460
 1.5860	30.9160
 1.5870	30.9870
 1.5880	31.0580
 1.5890	31.1280
 1.5900	31.1990
 1.5910	31.2690
 1.5920	31.3380
 1.5930	31.4080
 1.5940	31.4780
 1.5950	31.5460
 1.5960	31.6110
 1.5970	31.6760
 1.5980	31.7400
 1.5990	31.8030
 1.6000	31.8680
 1.6010	31.9310
 1.6020	31.9920
 1.6030	32.0530
 1.6040	32.1130
 1.6050	32.1710
 1.6060	32.2270
 1.6070	32.2820
 1.6080	32.3390
 1.6090	32.3940
 1.6100	32.4480
 1.6110	32.5030
 1.6120	32.5570
 1.6130	32.6110
 1.6140	32.6620
 1.6150	32.7100
 1.6160	32.7550
 1.6170	32.7980
 1.6180	32.8430
 1.6190	32.8860
 1.6200	32.9270
 1.6210	32.9640
 1.6220	32.9990
 1.6230	33.0310
 1.6240	33.0610
 1.6250	33.0900
 1.6260	33.1170
 1.6270	33.1440
 1.6280	33.1690
 1.6290	33.1940
 1.6300	33.2140
 1.6310	33.2360
 1.6320	33.2580
 1.6330	33.2780
 1.6340	33.2980
 1.6350	33.3200
 1.6360	33.3410
 1.6370	33.3640
 1.6380	33.3880
 1.6390	33.4120
 1.6400	33.4370
 1.6410	33.4620
 1.6420	33.4880
 1.6430	33.5130
 1.6440	33.5370
 1.6450	33.5590
 1.6460	33.5810
 1.6470	33.5970
 1.6480	33.6080
 1.6490	33.6150
 1.6500	33.6170
 1.6510	33.6160
 1.6520	33.6130
 1.6530	33.6060
 1.6540	33.5960
 1.6550	33.5830
 1.6560	33.5650
 1.6570	33.5470
 1.6580	33.5260
 1.6590	33.5010
 1.6600	33.4770
 1.6610	33.4520
 1.6620	33.4250
 1.6630	33.3990
 1.6640	33.3680
 1.6650	33.3300
 1.6660	33.2910
 1.6670	33.2480
 1.6680	33.2020
 1.6690	33.1540
 1.6700	33.1000
 1.6710	33.0390
 1.6720	32.9740
 1.6730	32.9040
 1.6740	32.8300
 1.6750	32.7530
 1.6760	32.6710
 1.6770	32.5890
 1.6780	32.5050
 1.6790	32.4170
 1.6800	32.3270
 1.6810	32.2310
 1.6820	32.1320
 1.6830	32.0300
 1.6840	31.9260
 1.6850	31.8250
 1.6860	31.7220
 1.6870	31.6180
 1.6880	31.5150
 1.6890	31.4060
 1.6900	31.3020
 1.6910	31.1990
 1.6920	31.1000
 1.6930	31.0050
 1.6940	30.9120
 1.6950	30.8210
 1.6960	30.7320
 1.6970	30.6460
 1.6980	30.5620
 1.6990	30.4790
 1.7000	30.4000
 1.7010	30.3230
 1.7020	30.2460
 1.7030	30.1700
 1.7040	30.0960
 1.7050	30.0220
 1.7060	29.9510
 1.7070	29.8840
 1.7080	29.8180
 1.7090	29.7510
 1.7100	29.6920
 1.7110	29.6380
 1.7120	29.5890
 1.7130	29.5410
 1.7140	29.4930
 1.7150	29.4460
 1.7160	29.4030
 1.7170	29.3650
 1.7180	29.3280
 1.7190	29.2940
 1.7200	29.2600
 1.7210	29.2240
 1.7220	29.1870
 1.7230	29.1500
 1.7240	29.1150
 1.7250	29.0820
 1.7260	29.0490
 1.7270	29.0210
 1.7280	28.9970
 1.7290	28.9740
 1.7300	28.9580
 1.7310	28.9410
 1.7320	28.9260
 1.7330	28.9100
 1.7340	28.8980
 1.7350	28.8820
 1.7360	28.8650
 1.7370	28.8450
 1.7380	28.8220
 1.7390	28.7950
 1.7400	28.7650
 1.7410	28.7280
 1.7420	28.6860
 1.7430	28.6390
 1.7440	28.5850
 1.7450	28.5300
 1.7460	28.4690
 1.7470	28.4080
 1.7480	28.3420
 1.7490	28.2820
 1.7500	28.2220
 1.7510	28.1640
 1.7520	28.1100
 1.7530	28.0540
 1.7540	27.9970
 1.7550	27.9440
 1.7560	27.8910
 1.7570	27.8410
 1.7580	27.7970
 1.7590	27.7560
 1.7600	27.7180
 1.7610	27.6840
 1.7620	27.6500
 1.7630	27.6150
 1.7640	27.5860
 1.7650	27.5630
 1.7660	27.5380
 1.7670	27.5180
 1.7680	27.4950
 1.7690	27.4690
 1.7700	27.4470
 1.7710	27.4270
 1.7720	27.4080
 1.7730	27.3930
 1.7740	27.3770
 1.7750	27.3610
 1.7760	27.3460
 1.7770	27.3290
 1.7780	27.3180
 1.7790	27.3100
 1.7800	27.3030
 1.7810	27.3000
 1.7820	27.2990
 1.7830	27.2990
 1.7840	27.3000
 1.7850	27.3040
 1.7860	27.3070
 1.7870	27.3110
 1.7880	27.3150
 1.7890	27.3200
 1.7900	27.3220
 1.7910	27.3270
 1.7920	27.3350
 1.7930	27.3440
 1.7940	27.3590
 1.7950	27.3700
 1.7960	27.3820
 1.7970	27.3920
 1.7980	27.3970
 1.7990	27.4070
 1.8000	27.4170
 1.8010	27.4290
 1.8020	27.4460
 1.8030	27.4580
 1.8040	27.4710
 1.8050	27.4810
 1.8060	27.4880
 1.8070	27.4960
 1.8080	27.5030
 1.8090	27.5120
 1.8100	27.5250
 1.8110	27.5350
 1.8120	27.5420
 1.8130	27.5450
 1.8140	27.5510
 1.8150	27.5570
 1.8160	27.5590
 1.8170	27.5650
 1.8180	27.5660
 1.8190	27.5640
 1.8200	27.5620
 1.8210	27.5570
 1.8220	27.5520
 1.8230	27.5500
 1.8240	27.5440
 1.8250	27.5350
 1.8260	27.5260
 1.8270	27.5510
 1.8280	27.5770
 1.8290	27.6030
 1.8300	27.6280
 1.8310	27.6540
 1.8320	27.6800
 1.8330	27.7050
 1.8340	27.7310
 1.8350	27.7310
 1.8360	27.6880
 1.8370	27.6380
 1.8380	27.5830
 1.8390	27.5230
 1.8400	27.4590
 1.8410	27.3860
 1.8420	27.3100
 1.8430	27.2270
 1.8440	27.1340
 1.8450	27.0350
 1.8460	26.9290
 1.8470	26.8080
 1.8480	26.6780
 1.8490	26.5380
 1.8500	26.3860
 1.8510	26.2240
 1.8520	26.0520
 1.8530	25.8640
 1.8540	25.6610
 1.8550	25.4450
 1.8560	25.2110
 1.8570	24.9600
 1.8580	24.6930
 1.8590	24.4140
 1.8600	24.1170
 1.8610	23.8110
 1.8620	23.4870
 1.8630	23.1450
 1.8640	22.7860
 1.8650	22.4040
 1.8660	22.0010
 1.8670	21.5760
 1.8680	21.1260
 1.8690	20.6610
 1.8700	20.1800
 1.8710	19.6810
 1.8720	19.1730
 1.8730	18.6560
 1.8740	18.1230
 1.8750	17.5840
 1.8760	17.0320
 1.8770	16.4810
 1.8780	15.9350
 1.8790	15.3870
 1.8800	14.8460
 1.8810	14.3120
 1.8820	13.7800
 1.8830	13.2500
 1.8840	12.7310
 1.8850	12.2230
 1.8860	11.7310
 1.8870	11.2570
 1.8880	10.7980
 1.8890	10.3660
 1.8900	 9.9570
 1.8910	 9.5720
 1.8920	 9.2070
 1.8930	 8.8720
 1.8940	 8.5620
 1.8950	 8.2740
 1.8960	 8.0100
 1.8970	 7.7650
 1.8980	 7.5390
 1.8990	 7.3340
 1.9000	 7.1490
 1.9010	 6.9870
 1.9020	 6.8390
 1.9030	 6.7110
 1.9040	 6.5960
 1.9050	 6.4930
 1.9060	 6.3990
 1.9070	 6.3140
 1.9080	 6.2420
 1.9090	 6.1790
 1.9100	 6.1240
 1.9110	 6.0750
 1.9120	 6.0330
 1.9130	 5.9970
 1.9140	 5.9670
 1.9150	 5.9430
 1.9160	 5.9220
 1.9170	 5.9040
 1.9180	 5.8880
 1.9190	 5.8750
 1.9200	 5.8650
 1.9210	 5.8630
 1.9220	 5.8610
 1.9230	 5.8630
 1.9240	 5.8640
 1.9250	 5.8680
 1.9260	 5.8670
 1.9270	 5.8680
 1.9280	 5.8710
 1.9290	 5.8780
 1.9300	 5.8900
 1.9310	 5.9010
 1.9320	 5.9140
 1.9330	 5.9280
 1.9340	 5.9400
 1.9350	 5.9560
 1.9360	 5.9760
 1.9370	 5.9960
 1.9380	 6.0170
 1.9390	 6.0400
 1.9400	 6.0630
 1.9410	 6.0910
 1.9420	 6.1190
 1.9430	 6.1450
 1.9440	 6.1740
 1.9450	 6.2040
 1.9460	 6.2350
 1.9470	 6.2680
 1.9480	 6.3020
 1.9490	 6.3380
 1.9500	 6.3760
 1.9510	 6.4130
 1.9520	 6.4510
 1.9530	 6.4930
 1.9540	 6.5290
 1.9550	 6.5670
 1.9560	 6.6070
 1.9570	 6.6490
 1.9580	 6.6920
 1.9590	 6.7370
 1.9600	 6.7870
 1.9610	 6.8340
 1.9620	 6.8800
 1.9630	 6.9280
 1.9640	 6.9760
 1.9650	 7.0270
 1.9660	 7.0800
 1.9670	 7.1300
 1.9680	 7.1830
 1.9690	 7.2360
 1.9700	 7.2920
 1.9710	 7.3500
 1.9720	 7.4090
 1.9730	 7.4700
 1.9740	 7.5290
 1.9750	 7.5880
 1.9760	 7.6510
 1.9770	 7.7140
 1.9780	 7.7770
 1.9790	 7.8430
 1.9800	 7.9120
 1.9810	 7.9790
 1.9820	 8.0490
 1.9830	 8.1170
 1.9840	 8.1820
 1.9850	 8.2500
 1.9860	 8.3170
 1.9870	 8.3880
 1.9880	 8.4590
 1.9890	 8.5270
 1.9900	 8.5950
 1.9910	 8.6590
 1.9920	 8.7260
 1.9930	 8.7950
 1.9940	 8.8650
 1.9950	 8.9370
 1.9960	 9.0080
 1.9970	 9.0760
 1.9980	 9.1480
 1.9990	 9.2240
 2.0000	 9.3000
 2.0010	 9.3770
 2.0020	 9.4500
 2.0030	 9.5240
 2.0040	 9.5950
 2.0050	 9.6670
 2.0060	 9.7380
 2.0070	 9.8100
 2.0080	 9.8790
 2.0090	 9.9490
 2.0100	10.0200
 2.0110	10.0900
 2.0120	10.1600
 2.0130	10.2280
 2.0140	10.2940
 2.0150	10.3630
 2.0160	10.4280
 2.0170	10.4900
 2.0180	10.5520
 2.0190	10.6130
 2.0200	10.6730
 2.0210	10.7320
 2.0220	10.7930
 2.0230	10.8560
 2.0240	10.9150
 2.0250	10.9750
 2.0260	11.0320
 2.0270	11.0860
 2.0280	11.1400
 2.0290	11.1950
 2.0300	11.2450
 2.0310	11.2970
 2.0320	11.3490
 2.0330	11.3970
 2.0340	11.4440
 2.0350	11.4900
 2.0360	11.5310
 2.0370	11.5750
 2.0380	11.6190
 2.0390	11.6620
 2.0400	11.7050
 2.0410	11.7470
 2.0420	11.7850
 2.0430	11.8230
 2.0440	11.8610
 2.0450	11.8980
 2.0460	11.9360
 2.0470	11.9730
 2.0480	12.0110
 2.0490	12.0490
 2.0500	12.0870
 2.0510	12.1300
 2.0520	12.1660
 2.0530	12.1960
 2.0540	12.2320
 2.0550	12.2680
 2.0560	12.2990
 2.0570	12.3400
 2.0580	12.3850
 2.0590	12.4260
 2.0600	12.4690
 2.0610	12.5110
 2.0620	12.5510
 2.0630	12.5920
 2.0640	12.6320
 2.0650	12.6740
 2.0660	12.7180
 2.0670	12.7620
 2.0680	12.8100
 2.0690	12.8550
 2.0700	12.9010
 2.0710	12.9440
 2.0720	12.9860
 2.0730	13.0270
 2.0740	13.0660
 2.0750	13.1030
 2.0760	13.1420
 2.0770	13.1800
 2.0780	13.2180
 2.0790	13.2590
 2.0800	13.2970
 2.0810	13.3320
 2.0820	13.3690
 2.0830	13.4030
 2.0840	13.4400
 2.0850	13.4790
 2.0860	13.5190
 2.0870	13.5610
 2.0880	13.6030
 2.0890	13.6440
 2.0900	13.6860
 2.0910	13.7260
 2.0920	13.7650
 2.0930	13.8030
 2.0940	13.8420
 2.0950	13.8800
 2.0960	13.9150
 2.0970	13.9530
 2.0980	13.9930
 2.0990	14.0330
 2.1000	14.0740
 2.1010	14.1140
 2.1020	14.1550
 2.1030	14.1930
 2.1040	14.2320
 2.1050	14.2690
 2.1060	14.3070
 2.1070	14.3430
 2.1080	14.3820
 2.1090	14.4250
 2.1100	14.4630
 2.1110	14.5010
 2.1120	14.5390
 2.1130	14.5780
 2.1140	14.6160
 2.1150	14.6560
 2.1160	14.6960
 2.1170	14.7380
 2.1180	14.7760
 2.1190	14.8150
 2.1200	14.8490
 2.1210	14.8740
 2.1220	14.9020
 2.1230	14.9330
 2.1240	14.9620
 2.1250	14.9960
 2.1260	15.0380
 2.1270	15.0720
 2.1280	15.1040
 2.1290	15.1360
 2.1300	15.1640
 2.1310	15.1930
 2.1320	15.2220
 2.1330	15.2500
 2.1340	15.2780
 2.1350	15.3010
 2.1360	15.3200
 2.1370	15.3410
 2.1380	15.3570
 2.1390	15.3770
 2.1400	15.3990
 2.1410	15.4290
 2.1420	15.4550
 2.1430	15.4790
 2.1440	15.5070
 2.1450	15.5390
 2.1460	15.5650
 2.1470	15.5940
 2.1480	15.6170
 2.1490	15.6300
 2.1500	15.6490
 2.1510	15.6670
 2.1520	15.6860
 2.1530	15.7060
 2.1540	15.7260
 2.1550	15.7470
 2.1560	15.7660
 2.1570	15.7840
 2.1580	15.8010
 2.1590	15.8120
 2.1600	15.8290
 2.1610	15.8490
 2.1620	15.8650
 2.1630	15.8830
 2.1640	15.9020
 2.1650	15.9200
 2.1660	15.9370
 2.1670	15.9550
 2.1680	15.9750
 2.1690	15.9940
 2.1700	16.0090
 2.1710	16.0310
 2.1720	16.0570
 2.1730	16.0810
 2.1740	16.1090
 2.1750	16.1360
 2.1760	16.1630
 2.1770	16.1880
 2.1780	16.2130
 2.1790	16.2380
 2.1800	16.2590
 2.1810	16.2810
 2.1820	16.3040
 2.1830	16.3260
 2.1840	16.3480
 2.1850	16.3680
 2.1860	16.3900
 2.1870	16.4140
 2.1880	16.4370
 2.1890	16.4620
 2.1900	16.4840
 2.1910	16.5030
 2.1920	16.5240
 2.1930	16.5450
 2.1940	16.5690
 2.1950	16.6000
 2.1960	16.6220
 2.1970	16.6450
 2.1980	16.6610
 2.1990	16.6670
 2.2000	16.6780
 2.2010	16.6930
 2.2020	16.7010
 2.2030	16.7050
 2.2040	16.7110
 2.2050	16.7160
 2.2060	16.7180
 2.2070	16.7230
 2.2080	16.7330
 2.2090	16.7360
 2.2100	16.7370
 2.2110	16.7330
 2.2120	16.7250
 2.2130	16.7140
 2.2140	16.6940
 2.2150	16.6810
 2.2160	16.6680
 2.2170	16.6540
 2.2180	16.6440
 2.2190	16.6270
 2.2200	16.6020
 2.2210	16.5790
 2.2220	16.5530
 2.2230	16.5270
 2.2240	16.5060
 2.2250	16.4770
 2.2260	16.4430
 2.2270	16.4100
 2.2280	16.3710
 2.2290	16.3360
 2.2300	16.3060
 2.2310	16.2710
 2.2320	16.2320
 2.2330	16.1890
 2.2340	16.1410
 2.2350	16.0830
 2.2360	16.0300
 2.2370	15.9770
 2.2380	15.9160
 2.2390	15.8540
 2.2400	15.7830
 2.2410	15.7000
 2.2420	15.6190
 2.2430	15.5290
 2.2440	15.4490
 2.2450	15.3720
 2.2460	15.2910
 2.2470	15.2170
 2.2480	15.1330
 2.2490	15.0390
 2.2500	14.9470
 2.2510	14.8510
 2.2520	14.7570
 2.2530	14.6650
 2.2540	14.5690
 2.2550	14.4730
 2.2560	14.3700
 2.2570	14.2540
 2.2580	14.1470
 2.2590	14.0350
 2.2600	13.9300
 2.2610	13.8330
 2.2620	13.7390
 2.2630	13.6450
 2.2640	13.5460
 2.2650	13.4500
 2.2660	13.3640
 2.2670	13.2790
 2.2680	13.2000
 2.2690	13.1210
 2.2700	13.0410
 2.2710	12.9680
 2.2720	12.8990
 2.2730	12.8340
 2.2740	12.7750
 2.2750	12.7180
 2.2760	12.6670
 2.2770	12.6140
 2.2780	12.5650
 2.2790	12.5150
 2.2800	12.4630
 2.2810	12.4120
 2.2820	12.3600
 2.2830	12.3100
 2.2840	12.2610
 2.2850	12.2120
 2.2860	12.1680
 2.2870	12.1150
 2.2880	12.0540
 2.2890	11.9960
 2.2900	11.9370
 2.2910	11.8720
 2.2920	11.8040
 2.2930	11.7380
 2.2940	11.6640
 2.2950	11.5970
 2.2960	11.5420
 2.2970	11.4800
 2.2980	11.4190
 2.2990	11.3540
 2.3000	11.2890
 2.3010	11.2240
 2.3020	11.1590
 2.3030	11.1040
 2.3040	11.0550
 2.3050	11.0140
 2.3060	10.9910
 2.3070	10.9650
 2.3080	10.9490
 2.3090	10.9370
 2.3100	10.9150
 2.3110	10.9100
 2.3120	10.9040
 2.3130	10.8950
 2.3140	10.8970
 2.3150	10.9100
 2.3160	10.9210
 2.3170	10.9420
 2.3180	10.9510
 2.3190	10.9600
 2.3200	10.9580
 2.3210	10.9420
 2.3220	10.9300
 2.3230	10.9140
 2.3240	10.8970
 2.3250	10.8790
 2.3260	10.8590
 2.3270	10.8360
 2.3280	10.8120
 2.3290	10.7860
 2.3300	10.7610
 2.3310	10.7370
 2.3320	10.7090
 2.3330	10.6800
 2.3340	10.6510
 2.3350	10.6180
 2.3360	10.5860
 2.3370	10.5530
 2.3380	10.5220
 2.3390	10.4930
 2.3400	10.4610
 2.3410	10.4310
 2.3420	10.3940
 2.3430	10.3470
 2.3440	10.3090
 2.3450	10.2710
 2.3460	10.2400
 2.3470	10.2170
 2.3480	10.1950
 2.3490	10.1740
 2.3500	10.1550
 2.3510	10.1400
 2.3520	10.1230
 2.3530	10.1060
 2.3540	10.0930
 2.3550	10.0650
 2.3560	10.0350
 2.3570	10.0010
 2.3580	 9.9690
 2.3590	 9.9470
 2.3600	 9.9300
 2.3610	 9.9210
 2.3620	 9.9010
 2.3630	 9.8830
 2.3640	 9.8730
 2.3650	 9.8550
 2.3660	 9.8360
 2.3670	 9.8130
 2.3680	 9.7870
 2.3690	 9.7630
 2.3700	 9.7430
 2.3710	 9.7240
 2.3720	 9.7040
 2.3730	 9.6790
 2.3740	 9.6480
 2.3750	 9.6260
 2.3760	 9.6070
 2.3770	 9.5790
 2.3780	 9.5460
 2.3790	 9.5080
 2.3800	 9.4660
 2.3810	 9.4370
 2.3820	 9.4160
 2.3830	 9.3900
 2.3840	 9.3690
 2.3850	 9.3240
 2.3860	 9.2700
 2.3870	 9.2430
 2.3880	 9.2070
 2.3890	 9.1760
 2.3900	 9.1590
 2.3910	 9.1180
 2.3920	 9.0800
 2.3930	 9.0560
 2.3940	 9.0150
 2.3950	 8.9810
 2.3960	 8.9510
 2.3970	 8.9130
 2.3980	 8.8930
 2.3990	 8.8540
 2.4000	 8.8000
 2.4010	 8.7510
 2.4020	 8.6970
 2.4030	 8.6720
 2.4040	 8.6560
 2.4050	 8.6330
 2.4060	 8.6020
 2.4070	 8.5400
 2.4080	 8.4920
 2.4090	 8.4500
 2.4100	 8.4120
 2.4110	 8.4110
 2.4120	 8.3930
 2.4130	 8.3570
 2.4140	 8.3270
 2.4150	 8.2830
 2.4160	 8.2490
 2.4170	 8.2090
 2.4180	 8.1820
 2.4190	 8.1630
 2.4200	 8.1070
 2.4210	 8.0640
 2.4220	 8.0260
 2.4230	 7.9680
 2.4240	 7.9300
 2.4250	 7.8900
 2.4260	 7.8390
 2.4270	 7.8030
 2.4280	 7.7720
 2.4290	 7.7430
 2.4300	 7.7150
 2.4310	 7.6810
 2.4320	 7.6270
 2.4330	 7.5720
 2.4340	 7.5190
 2.4350	 7.4770
 2.4360	 7.4670
 2.4370	 7.4570
 2.4380	 7.4510
 2.4390	 7.4090
 2.4400	 7.3370
 2.4410	 7.3010
 2.4420	 7.2670
 2.4430	 7.2470
 2.4440	 7.2340
 2.4450	 7.1890
 2.4460	 7.1220
 2.4470	 7.0690
 2.4480	 7.0200
 2.4490	 6.9720
 2.4500	 6.9560
 2.4510	 6.9350
 2.4520	 6.9100
 2.4530	 6.8890
 2.4540	 6.8630
 2.4550	 6.8150
 2.4560	 6.7560
 2.4570	 6.7360
 2.4580	 6.7060
 2.4590	 6.6820
 2.4600	 6.6810
 2.4610	 6.6210
 2.4620	 6.5490
 2.4630	 6.5080
 2.4640	 6.4700
 2.4650	 6.4410
 2.4660	 6.4210
 2.4670	 6.3980
 2.4680	 6.3710
 2.4690	 6.3370
 2.4700	 6.3200
 2.4710	 6.2980
 2.4720	 6.2780
 2.4730	 6.2870
 2.4740	 6.2850
 2.4750	 6.2610
 2.4760	 6.2430
 2.4770	 6.2270
 2.4780	 6.2140
 2.4790	 6.2010
 2.4800	 6.1910
 2.4810	 6.2100
 2.4820	 6.2060
 2.4830	 6.1760
 2.4840	 6.1700
 2.4850	 6.1580
 2.4860	 6.1450
 2.4870	 6.1400
 2.4880	 6.1390
 2.4890	 6.1340
 2.4900	 6.1300
 2.4910	 6.1590
 2.4920	 6.1710
 2.4930	 6.1610
 2.4940	 6.2210
 2.4950	 6.2110
 2.4960	 6.0630
 2.4970	 6.0190
 2.4980	 5.9550
 2.4990	 5.8880
 2.5000	 5.9910
