Name: Pinus ponderosa 3
Type: vegetation
Class: Tree
Genus: Pinus
Species: ponderosa
Sample No.: VH067
Owner: UCSB
Wavelength Range: VSWIR
Origin: 37.043; -119.3048; WGS84
Collection Date: 4/20/2013
Description: Samples were collected as part of the HyspIRI Airborne Campaign. 48 individual plants were sampled in three times in 2013 - spring  summer  and fall. The name of the sample includes a 1  2  or 3 which references a different individual of the species. Samples were taken to JPL and processed within 48 hours of collection. The same leaves were processed in the Nicolet and then measured using the ASD.
Measurement: Bidirectional reflectance
First Column: X
Second Column: Y
X Units: Wavelength (micrometers)
Y Units: Reflectance (percentage)
First X Value: 0.35
Last X Value: 2.5
Number of X Values: 2151
Additional Information: vegetation.tree.pinus.ponderosa.vswir.vh067.ucsb.asd.ancillary.txt

 0.3500	 5.7140
 0.3510	 5.7430
 0.3520	 5.7310
 0.3530	 5.6670
 0.3540	 5.6050
 0.3550	 5.6270
 0.3560	 5.6950
 0.3570	 5.7160
 0.3580	 5.6100
 0.3590	 5.6540
 0.3600	 5.6160
 0.3610	 5.4510
 0.3620	 5.4390
 0.3630	 5.5140
 0.3640	 5.5180
 0.3650	 5.3610
 0.3660	 5.2820
 0.3670	 5.2740
 0.3680	 5.3130
 0.3690	 5.3620
 0.3700	 5.3870
 0.3710	 5.4090
 0.3720	 5.4300
 0.3730	 5.3970
 0.3740	 5.3360
 0.3750	 5.3050
 0.3760	 5.3440
 0.3770	 5.3780
 0.3780	 5.4070
 0.3790	 5.4100
 0.3800	 5.3580
 0.3810	 5.3120
 0.3820	 5.3200
 0.3830	 5.3670
 0.3840	 5.3110
 0.3850	 5.2800
 0.3860	 5.2930
 0.3870	 5.3230
 0.3880	 5.3160
 0.3890	 5.3080
 0.3900	 5.2970
 0.3910	 5.2430
 0.3920	 5.2180
 0.3930	 5.2500
 0.3940	 5.3160
 0.3950	 5.2920
 0.3960	 5.3130
 0.3970	 5.3660
 0.3980	 5.3690
 0.3990	 5.3400
 0.4000	 5.3220
 0.4010	 5.3380
 0.4020	 5.3840
 0.4030	 5.3720
 0.4040	 5.3800
 0.4050	 5.4680
 0.4060	 5.4870
 0.4070	 5.5020
 0.4080	 5.5300
 0.4090	 5.5540
 0.4100	 5.6030
 0.4110	 5.6680
 0.4120	 5.7310
 0.4130	 5.7600
 0.4140	 5.8250
 0.4150	 5.9090
 0.4160	 5.9730
 0.4170	 6.0460
 0.4180	 6.1190
 0.4190	 6.1940
 0.4200	 6.2850
 0.4210	 6.3610
 0.4220	 6.4360
 0.4230	 6.5240
 0.4240	 6.6100
 0.4250	 6.7030
 0.4260	 6.7900
 0.4270	 6.8570
 0.4280	 6.9380
 0.4290	 7.0210
 0.4300	 7.0950
 0.4310	 7.1560
 0.4320	 7.2220
 0.4330	 7.2820
 0.4340	 7.3260
 0.4350	 7.3840
 0.4360	 7.4370
 0.4370	 7.4830
 0.4380	 7.5300
 0.4390	 7.5920
 0.4400	 7.6610
 0.4410	 7.7240
 0.4420	 7.7480
 0.4430	 7.7820
 0.4440	 7.8270
 0.4450	 7.8650
 0.4460	 7.9020
 0.4470	 7.9370
 0.4480	 7.9730
 0.4490	 8.0230
 0.4500	 8.0560
 0.4510	 8.0760
 0.4520	 8.0960
 0.4530	 8.1210
 0.4540	 8.1490
 0.4550	 8.1740
 0.4560	 8.1900
 0.4570	 8.2060
 0.4580	 8.2190
 0.4590	 8.2330
 0.4600	 8.2520
 0.4610	 8.2690
 0.4620	 8.2880
 0.4630	 8.3090
 0.4640	 8.3030
 0.4650	 8.3020
 0.4660	 8.3200
 0.4670	 8.3500
 0.4680	 8.3500
 0.4690	 8.3480
 0.4700	 8.3640
 0.4710	 8.3610
 0.4720	 8.3710
 0.4730	 8.3870
 0.4740	 8.3850
 0.4750	 8.3880
 0.4760	 8.3910
 0.4770	 8.3930
 0.4780	 8.4000
 0.4790	 8.4040
 0.4800	 8.4070
 0.4810	 8.4120
 0.4820	 8.4160
 0.4830	 8.4240
 0.4840	 8.4340
 0.4850	 8.4360
 0.4860	 8.4380
 0.4870	 8.4430
 0.4880	 8.4510
 0.4890	 8.4590
 0.4900	 8.4780
 0.4910	 8.5040
 0.4920	 8.5270
 0.4930	 8.5440
 0.4940	 8.5690
 0.4950	 8.6030
 0.4960	 8.6310
 0.4970	 8.6650
 0.4980	 8.7030
 0.4990	 8.7410
 0.5000	 8.7800
 0.5010	 8.8320
 0.5020	 8.8940
 0.5030	 8.9530
 0.5040	 9.0260
 0.5050	 9.1060
 0.5060	 9.1840
 0.5070	 9.2620
 0.5080	 9.3540
 0.5090	 9.4610
 0.5100	 9.5750
 0.5110	 9.6930
 0.5120	 9.8180
 0.5130	 9.9520
 0.5140	10.0970
 0.5150	10.2510
 0.5160	10.4110
 0.5170	10.5730
 0.5180	10.7480
 0.5190	10.9260
 0.5200	11.1050
 0.5210	11.2920
 0.5220	11.4770
 0.5230	11.6560
 0.5240	11.8280
 0.5250	11.9970
 0.5260	12.1600
 0.5270	12.3140
 0.5280	12.4550
 0.5290	12.5850
 0.5300	12.7060
 0.5310	12.8170
 0.5320	12.9160
 0.5330	13.0080
 0.5340	13.0930
 0.5350	13.1680
 0.5360	13.2340
 0.5370	13.2870
 0.5380	13.3270
 0.5390	13.3580
 0.5400	13.3910
 0.5410	13.4140
 0.5420	13.4240
 0.5430	13.4430
 0.5440	13.4680
 0.5450	13.4970
 0.5460	13.5280
 0.5470	13.5840
 0.5480	13.6390
 0.5490	13.6760
 0.5500	13.6940
 0.5510	13.7100
 0.5520	13.7190
 0.5530	13.7160
 0.5540	13.7040
 0.5550	13.6810
 0.5560	13.6470
 0.5570	13.6030
 0.5580	13.5480
 0.5590	13.4800
 0.5600	13.4040
 0.5610	13.3270
 0.5620	13.2420
 0.5630	13.1480
 0.5640	13.0500
 0.5650	12.9470
 0.5660	12.8470
 0.5670	12.7500
 0.5680	12.6460
 0.5690	12.5390
 0.5700	12.4280
 0.5710	12.3130
 0.5720	12.2000
 0.5730	12.0860
 0.5740	11.9710
 0.5750	11.8620
 0.5760	11.7740
 0.5770	11.6990
 0.5780	11.6300
 0.5790	11.5660
 0.5800	11.5050
 0.5810	11.4440
 0.5820	11.3790
 0.5830	11.3190
 0.5840	11.2650
 0.5850	11.2170
 0.5860	11.1710
 0.5870	11.1240
 0.5880	11.0800
 0.5890	11.0420
 0.5900	11.0100
 0.5910	10.9720
 0.5920	10.9290
 0.5930	10.8950
 0.5940	10.8680
 0.5950	10.8510
 0.5960	10.8430
 0.5970	10.8280
 0.5980	10.8190
 0.5990	10.8100
 0.6000	10.7900
 0.6010	10.7710
 0.6020	10.7490
 0.6030	10.7210
 0.6040	10.6870
 0.6050	10.6470
 0.6060	10.6020
 0.6070	10.5540
 0.6080	10.4980
 0.6090	10.4330
 0.6100	10.3570
 0.6110	10.2760
 0.6120	10.2200
 0.6130	10.1820
 0.6140	10.1480
 0.6150	10.1010
 0.6160	10.0560
 0.6170	10.0140
 0.6180	 9.9750
 0.6190	 9.9400
 0.6200	 9.9050
 0.6210	 9.8730
 0.6220	 9.8520
 0.6230	 9.8360
 0.6240	 9.8200
 0.6250	 9.8040
 0.6260	 9.7890
 0.6270	 9.7800
 0.6280	 9.7750
 0.6290	 9.7700
 0.6300	 9.7680
 0.6310	 9.7660
 0.6320	 9.7610
 0.6330	 9.7560
 0.6340	 9.7440
 0.6350	 9.7250
 0.6360	 9.7000
 0.6370	 9.6690
 0.6380	 9.6330
 0.6390	 9.5910
 0.6400	 9.5470
 0.6410	 9.4990
 0.6420	 9.4460
 0.6430	 9.3920
 0.6440	 9.3420
 0.6450	 9.2890
 0.6460	 9.2350
 0.6470	 9.1830
 0.6480	 9.1400
 0.6490	 9.0970
 0.6500	 9.0570
 0.6510	 9.0280
 0.6520	 8.9970
 0.6530	 8.9670
 0.6540	 8.9390
 0.6550	 8.9120
 0.6560	 8.8750
 0.6570	 8.8330
 0.6580	 8.7930
 0.6590	 8.7480
 0.6600	 8.7020
 0.6610	 8.6580
 0.6620	 8.6190
 0.6630	 8.5770
 0.6640	 8.5390
 0.6650	 8.5090
 0.6660	 8.4790
 0.6670	 8.4530
 0.6680	 8.4350
 0.6690	 8.4260
 0.6700	 8.4170
 0.6710	 8.4150
 0.6720	 8.4210
 0.6730	 8.4270
 0.6740	 8.4360
 0.6750	 8.4500
 0.6760	 8.4710
 0.6770	 8.4910
 0.6780	 8.5190
 0.6790	 8.5520
 0.6800	 8.5850
 0.6810	 8.6310
 0.6820	 8.6820
 0.6830	 8.7370
 0.6840	 8.8070
 0.6850	 8.8880
 0.6860	 8.9840
 0.6870	 9.1040
 0.6880	 9.2430
 0.6890	 9.4170
 0.6900	 9.6300
 0.6910	 9.8840
 0.6920	10.1840
 0.6930	10.5360
 0.6940	10.9400
 0.6950	11.3990
 0.6960	11.9070
 0.6970	12.4610
 0.6980	13.0580
 0.6990	13.7040
 0.7000	14.3890
 0.7010	15.1100
 0.7020	15.8690
 0.7030	16.6540
 0.7040	17.4620
 0.7050	18.2930
 0.7060	19.1460
 0.7070	20.0160
 0.7080	20.9070
 0.7090	21.8250
 0.7100	22.7660
 0.7110	23.7270
 0.7120	24.7080
 0.7130	25.7160
 0.7140	26.7490
 0.7150	27.8030
 0.7160	28.8740
 0.7170	29.9700
 0.7180	31.0800
 0.7190	32.2090
 0.7200	33.3680
 0.7210	34.5380
 0.7220	35.7160
 0.7230	36.9010
 0.7240	38.0970
 0.7250	39.2950
 0.7260	40.4840
 0.7270	41.6620
 0.7280	42.8390
 0.7290	44.0010
 0.7300	45.1420
 0.7310	46.2610
 0.7320	47.3630
 0.7330	48.4420
 0.7340	49.4900
 0.7350	50.5090
 0.7360	51.4990
 0.7370	52.4560
 0.7380	53.3760
 0.7390	54.2580
 0.7400	55.1110
 0.7410	55.9250
 0.7420	56.6920
 0.7430	57.4290
 0.7440	58.1240
 0.7450	58.7790
 0.7460	59.4010
 0.7470	59.9790
 0.7480	60.5150
 0.7490	61.0130
 0.7500	61.4820
 0.7510	61.9250
 0.7520	62.3290
 0.7530	62.6900
 0.7540	63.0340
 0.7550	63.3400
 0.7560	63.6120
 0.7570	63.8810
 0.7580	64.1240
 0.7590	64.3380
 0.7600	64.5300
 0.7610	64.7080
 0.7620	64.8800
 0.7630	65.0380
 0.7640	65.1760
 0.7650	65.3070
 0.7660	65.4220
 0.7670	65.5230
 0.7680	65.6180
 0.7690	65.7010
 0.7700	65.7820
 0.7710	65.8620
 0.7720	65.9300
 0.7730	65.9870
 0.7740	66.0460
 0.7750	66.1140
 0.7760	66.1730
 0.7770	66.2240
 0.7780	66.2690
 0.7790	66.3110
 0.7800	66.3590
 0.7810	66.4070
 0.7820	66.4500
 0.7830	66.4860
 0.7840	66.5310
 0.7850	66.5720
 0.7860	66.6010
 0.7870	66.6380
 0.7880	66.6730
 0.7890	66.7090
 0.7900	66.7470
 0.7910	66.7710
 0.7920	66.8010
 0.7930	66.8360
 0.7940	66.8660
 0.7950	66.8960
 0.7960	66.9240
 0.7970	66.9520
 0.7980	66.9890
 0.7990	67.0150
 0.8000	67.0410
 0.8010	67.0780
 0.8020	67.0940
 0.8030	67.1140
 0.8040	67.1430
 0.8050	67.1760
 0.8060	67.2120
 0.8070	67.2330
 0.8080	67.2500
 0.8090	67.2950
 0.8100	67.3200
 0.8110	67.3360
 0.8120	67.3530
 0.8130	67.3700
 0.8140	67.3970
 0.8150	67.4300
 0.8160	67.4570
 0.8170	67.4690
 0.8180	67.4940
 0.8190	67.5270
 0.8200	67.5490
 0.8210	67.5810
 0.8220	67.6110
 0.8230	67.6370
 0.8240	67.6610
 0.8250	67.6840
 0.8260	67.7000
 0.8270	67.7120
 0.8280	67.7300
 0.8290	67.7460
 0.8300	67.7620
 0.8310	67.7810
 0.8320	67.7900
 0.8330	67.7990
 0.8340	67.8140
 0.8350	67.8370
 0.8360	67.8690
 0.8370	67.8990
 0.8380	67.9250
 0.8390	67.9520
 0.8400	67.9800
 0.8410	68.0150
 0.8420	68.0530
 0.8430	68.0710
 0.8440	68.0940
 0.8450	68.1230
 0.8460	68.1560
 0.8470	68.1970
 0.8480	68.2220
 0.8490	68.2410
 0.8500	68.2700
 0.8510	68.3020
 0.8520	68.3410
 0.8530	68.3770
 0.8540	68.3980
 0.8550	68.4170
 0.8560	68.4380
 0.8570	68.4630
 0.8580	68.4910
 0.8590	68.5020
 0.8600	68.5180
 0.8610	68.5460
 0.8620	68.5660
 0.8630	68.5780
 0.8640	68.5930
 0.8650	68.6190
 0.8660	68.6420
 0.8670	68.6540
 0.8680	68.6630
 0.8690	68.6790
 0.8700	68.6880
 0.8710	68.6960
 0.8720	68.7100
 0.8730	68.7330
 0.8740	68.7430
 0.8750	68.7500
 0.8760	68.7590
 0.8770	68.7720
 0.8780	68.7930
 0.8790	68.8040
 0.8800	68.7980
 0.8810	68.7930
 0.8820	68.7950
 0.8830	68.8030
 0.8840	68.8060
 0.8850	68.7890
 0.8860	68.7930
 0.8870	68.7960
 0.8880	68.7730
 0.8890	68.7540
 0.8900	68.7630
 0.8910	68.7750
 0.8920	68.7570
 0.8930	68.7290
 0.8940	68.7200
 0.8950	68.7230
 0.8960	68.7060
 0.8970	68.6910
 0.8980	68.6860
 0.8990	68.6840
 0.9000	68.6680
 0.9010	68.6520
 0.9020	68.6330
 0.9030	68.6080
 0.9040	68.5800
 0.9050	68.5600
 0.9060	68.5430
 0.9070	68.5250
 0.9080	68.5190
 0.9090	68.5070
 0.9100	68.4820
 0.9110	68.4460
 0.9120	68.4300
 0.9130	68.4210
 0.9140	68.4040
 0.9150	68.3730
 0.9160	68.3550
 0.9170	68.3370
 0.9180	68.3210
 0.9190	68.3030
 0.9200	68.2620
 0.9210	68.2300
 0.9220	68.2050
 0.9230	68.1680
 0.9240	68.1220
 0.9250	68.0840
 0.9260	68.0470
 0.9270	67.9920
 0.9280	67.9300
 0.9290	67.8670
 0.9300	67.7970
 0.9310	67.7160
 0.9320	67.6550
 0.9330	67.5910
 0.9340	67.5130
 0.9350	67.4280
 0.9360	67.3450
 0.9370	67.2560
 0.9380	67.1620
 0.9390	67.0740
 0.9400	66.9750
 0.9410	66.8670
 0.9420	66.7490
 0.9430	66.6110
 0.9440	66.4890
 0.9450	66.3660
 0.9460	66.2250
 0.9470	66.0740
 0.9480	65.8870
 0.9490	65.6950
 0.9500	65.5130
 0.9510	65.2750
 0.9520	65.0470
 0.9530	64.8250
 0.9540	64.5970
 0.9550	64.3770
 0.9560	64.1440
 0.9570	63.9150
 0.9580	63.7120
 0.9590	63.5260
 0.9600	63.3550
 0.9610	63.1990
 0.9620	63.0580
 0.9630	62.9280
 0.9640	62.8320
 0.9650	62.7390
 0.9660	62.6190
 0.9670	62.5420
 0.9680	62.4750
 0.9690	62.4050
 0.9700	62.3370
 0.9710	62.3000
 0.9720	62.2330
 0.9730	62.1610
 0.9740	62.1310
 0.9750	62.1070
 0.9760	62.1010
 0.9770	62.0960
 0.9780	62.0640
 0.9790	62.0230
 0.9800	62.0180
 0.9810	62.0350
 0.9820	62.0380
 0.9830	62.0440
 0.9840	62.0610
 0.9850	62.0970
 0.9860	62.1480
 0.9870	62.1820
 0.9880	62.2280
 0.9890	62.2850
 0.9900	62.3410
 0.9910	62.3920
 0.9920	62.5680
 0.9930	62.7440
 0.9940	62.9200
 0.9950	63.0960
 0.9960	63.2720
 0.9970	63.4480
 0.9980	63.6240
 0.9990	63.8000
 1.0000	63.9760
 1.0010	64.1520
 1.0020	64.3280
 1.0030	64.5040
 1.0040	64.6800
 1.0050	64.8560
 1.0060	65.0320
 1.0070	65.2080
 1.0080	65.3840
 1.0090	65.5600
 1.0100	65.5600
 1.0110	65.6660
 1.0120	65.7680
 1.0130	65.8650
 1.0140	65.9640
 1.0150	66.0630
 1.0160	66.1650
 1.0170	66.2650
 1.0180	66.3700
 1.0190	66.4780
 1.0200	66.5830
 1.0210	66.6840
 1.0220	66.7870
 1.0230	66.8900
 1.0240	66.9890
 1.0250	67.0910
 1.0260	67.2000
 1.0270	67.2990
 1.0280	67.3920
 1.0290	67.4890
 1.0300	67.5830
 1.0310	67.6760
 1.0320	67.7690
 1.0330	67.8630
 1.0340	67.9520
 1.0350	68.0410
 1.0360	68.1350
 1.0370	68.2230
 1.0380	68.3110
 1.0390	68.4010
 1.0400	68.4830
 1.0410	68.5600
 1.0420	68.6400
 1.0430	68.7180
 1.0440	68.7940
 1.0450	68.8750
 1.0460	68.9490
 1.0470	69.0150
 1.0480	69.0830
 1.0490	69.1500
 1.0500	69.2130
 1.0510	69.2730
 1.0520	69.3350
 1.0530	69.3950
 1.0540	69.4550
 1.0550	69.5100
 1.0560	69.5670
 1.0570	69.6140
 1.0580	69.6520
 1.0590	69.6940
 1.0600	69.7310
 1.0610	69.7730
 1.0620	69.8220
 1.0630	69.8620
 1.0640	69.9010
 1.0650	69.9340
 1.0660	69.9550
 1.0670	69.9790
 1.0680	70.0020
 1.0690	70.0230
 1.0700	70.0430
 1.0710	70.0640
 1.0720	70.0820
 1.0730	70.0980
 1.0740	70.1110
 1.0750	70.1250
 1.0760	70.1330
 1.0770	70.1360
 1.0780	70.1380
 1.0790	70.1370
 1.0800	70.1330
 1.0810	70.1280
 1.0820	70.1190
 1.0830	70.1060
 1.0840	70.0930
 1.0850	70.0810
 1.0860	70.0640
 1.0870	70.0430
 1.0880	70.0170
 1.0890	69.9930
 1.0900	69.9670
 1.0910	69.9350
 1.0920	69.9010
 1.0930	69.8660
 1.0940	69.8260
 1.0950	69.7860
 1.0960	69.7510
 1.0970	69.7090
 1.0980	69.6580
 1.0990	69.6110
 1.1000	69.5640
 1.1010	69.5140
 1.1020	69.4630
 1.1030	69.4160
 1.1040	69.3640
 1.1050	69.3050
 1.1060	69.2460
 1.1070	69.1850
 1.1080	69.1190
 1.1090	69.0490
 1.1100	68.9780
 1.1110	68.9070
 1.1120	68.8310
 1.1130	68.7570
 1.1140	68.6690
 1.1150	68.5680
 1.1160	68.4680
 1.1170	68.3650
 1.1180	68.2510
 1.1190	68.1350
 1.1200	68.0080
 1.1210	67.8650
 1.1220	67.7100
 1.1230	67.5390
 1.1240	67.3560
 1.1250	67.1540
 1.1260	66.9410
 1.1270	66.7000
 1.1280	66.4400
 1.1290	66.1620
 1.1300	65.8650
 1.1310	65.5430
 1.1320	65.1990
 1.1330	64.8370
 1.1340	64.4510
 1.1350	64.0490
 1.1360	63.6310
 1.1370	63.1950
 1.1380	62.7440
 1.1390	62.2850
 1.1400	61.8190
 1.1410	61.3540
 1.1420	60.8890
 1.1430	60.4170
 1.1440	59.9540
 1.1450	59.4870
 1.1460	59.0430
 1.1470	58.6020
 1.1480	58.1870
 1.1490	57.7880
 1.1500	57.4110
 1.1510	57.0460
 1.1520	56.7070
 1.1530	56.3920
 1.1540	56.0970
 1.1550	55.8240
 1.1560	55.5740
 1.1570	55.3400
 1.1580	55.1250
 1.1590	54.9290
 1.1600	54.7480
 1.1610	54.5840
 1.1620	54.4350
 1.1630	54.2990
 1.1640	54.1760
 1.1650	54.0610
 1.1660	53.9610
 1.1670	53.8640
 1.1680	53.7770
 1.1690	53.6910
 1.1700	53.6130
 1.1710	53.5350
 1.1720	53.4650
 1.1730	53.3910
 1.1740	53.3200
 1.1750	53.2460
 1.1760	53.1700
 1.1770	53.0960
 1.1780	53.0170
 1.1790	52.9390
 1.1800	52.8600
 1.1810	52.7790
 1.1820	52.7010
 1.1830	52.6250
 1.1840	52.5450
 1.1850	52.4660
 1.1860	52.3890
 1.1870	52.3130
 1.1880	52.2430
 1.1890	52.1770
 1.1900	52.1180
 1.1910	52.0640
 1.1920	52.0150
 1.1930	51.9720
 1.1940	51.9340
 1.1950	51.9000
 1.1960	51.8730
 1.1970	51.8540
 1.1980	51.8380
 1.1990	51.8270
 1.2000	51.8240
 1.2010	51.8250
 1.2020	51.8320
 1.2030	51.8470
 1.2040	51.8670
 1.2050	51.8930
 1.2060	51.9240
 1.2070	51.9620
 1.2080	52.0040
 1.2090	52.0500
 1.2100	52.1040
 1.2110	52.1620
 1.2120	52.2220
 1.2130	52.2910
 1.2140	52.3640
 1.2150	52.4450
 1.2160	52.5340
 1.2170	52.6280
 1.2180	52.7230
 1.2190	52.8230
 1.2200	52.9250
 1.2210	53.0290
 1.2220	53.1350
 1.2230	53.2420
 1.2240	53.3490
 1.2250	53.4530
 1.2260	53.5600
 1.2270	53.6650
 1.2280	53.7650
 1.2290	53.8630
 1.2300	53.9610
 1.2310	54.0560
 1.2320	54.1520
 1.2330	54.2450
 1.2340	54.3340
 1.2350	54.4200
 1.2360	54.5040
 1.2370	54.5830
 1.2380	54.6620
 1.2390	54.7410
 1.2400	54.8170
 1.2410	54.8930
 1.2420	54.9670
 1.2430	55.0390
 1.2440	55.1070
 1.2450	55.1700
 1.2460	55.2310
 1.2470	55.2880
 1.2480	55.3470
 1.2490	55.4060
 1.2500	55.4600
 1.2510	55.5160
 1.2520	55.5680
 1.2530	55.6160
 1.2540	55.6640
 1.2550	55.7070
 1.2560	55.7480
 1.2570	55.7900
 1.2580	55.8280
 1.2590	55.8630
 1.2600	55.8960
 1.2610	55.9250
 1.2620	55.9500
 1.2630	55.9730
 1.2640	55.9930
 1.2650	56.0110
 1.2660	56.0240
 1.2670	56.0350
 1.2680	56.0450
 1.2690	56.0520
 1.2700	56.0560
 1.2710	56.0570
 1.2720	56.0550
 1.2730	56.0520
 1.2740	56.0490
 1.2750	56.0460
 1.2760	56.0380
 1.2770	56.0240
 1.2780	56.0070
 1.2790	55.9840
 1.2800	55.9580
 1.2810	55.9300
 1.2820	55.8970
 1.2830	55.8610
 1.2840	55.8170
 1.2850	55.7710
 1.2860	55.7230
 1.2870	55.6680
 1.2880	55.6090
 1.2890	55.5450
 1.2900	55.4730
 1.2910	55.3910
 1.2920	55.3040
 1.2930	55.2130
 1.2940	55.1170
 1.2950	55.0160
 1.2960	54.9050
 1.2970	54.7900
 1.2980	54.6670
 1.2990	54.5360
 1.3000	54.4020
 1.3010	54.2590
 1.3020	54.1080
 1.3030	53.9520
 1.3040	53.7880
 1.3050	53.6210
 1.3060	53.4450
 1.3070	53.2590
 1.3080	53.0710
 1.3090	52.8750
 1.3100	52.6700
 1.3110	52.4620
 1.3120	52.2430
 1.3130	52.0170
 1.3140	51.7860
 1.3150	51.5480
 1.3160	51.3070
 1.3170	51.0630
 1.3180	50.8120
 1.3190	50.5520
 1.3200	50.2890
 1.3210	50.0190
 1.3220	49.7430
 1.3230	49.4660
 1.3240	49.1840
 1.3250	48.8990
 1.3260	48.6150
 1.3270	48.3280
 1.3280	48.0380
 1.3290	47.7440
 1.3300	47.4490
 1.3310	47.1510
 1.3320	46.8540
 1.3330	46.5600
 1.3340	46.2640
 1.3350	45.9710
 1.3360	45.6810
 1.3370	45.3900
 1.3380	45.1020
 1.3390	44.8180
 1.3400	44.5360
 1.3410	44.2590
 1.3420	43.9880
 1.3430	43.7220
 1.3440	43.4600
 1.3450	43.2040
 1.3460	42.9540
 1.3470	42.7090
 1.3480	42.4700
 1.3490	42.2350
 1.3500	42.0070
 1.3510	41.7830
 1.3520	41.5610
 1.3530	41.3440
 1.3540	41.1280
 1.3550	40.9150
 1.3560	40.7040
 1.3570	40.4930
 1.3580	40.2810
 1.3590	40.0660
 1.3600	39.8460
 1.3610	39.6210
 1.3620	39.3910
 1.3630	39.1560
 1.3640	38.9130
 1.3650	38.6630
 1.3660	38.4070
 1.3670	38.1400
 1.3680	37.8610
 1.3690	37.5690
 1.3700	37.2590
 1.3710	36.9360
 1.3720	36.5970
 1.3730	36.2390
 1.3740	35.8670
 1.3750	35.4770
 1.3760	35.0640
 1.3770	34.6310
 1.3780	34.1720
 1.3790	33.6900
 1.3800	33.1870
 1.3810	32.6580
 1.3820	32.1160
 1.3830	31.5550
 1.3840	30.9810
 1.3850	30.3910
 1.3860	29.7950
 1.3870	29.1820
 1.3880	28.5750
 1.3890	27.9630
 1.3900	27.3500
 1.3910	26.7460
 1.3920	26.1460
 1.3930	25.5510
 1.3940	24.9700
 1.3950	24.3960
 1.3960	23.8380
 1.3970	23.2970
 1.3980	22.7720
 1.3990	22.2720
 1.4000	21.7900
 1.4010	21.3250
 1.4020	20.8850
 1.4030	20.4620
 1.4040	20.0610
 1.4050	19.6810
 1.4060	19.3210
 1.4070	18.9830
 1.4080	18.6650
 1.4090	18.3650
 1.4100	18.0850
 1.4110	17.8200
 1.4120	17.5720
 1.4130	17.3400
 1.4140	17.1230
 1.4150	16.9220
 1.4160	16.7340
 1.4170	16.5570
 1.4180	16.3930
 1.4190	16.2400
 1.4200	16.0970
 1.4210	15.9650
 1.4220	15.8410
 1.4230	15.7280
 1.4240	15.6220
 1.4250	15.5240
 1.4260	15.4340
 1.4270	15.3500
 1.4280	15.2730
 1.4290	15.2010
 1.4300	15.1340
 1.4310	15.0730
 1.4320	15.0180
 1.4330	14.9670
 1.4340	14.9230
 1.4350	14.8820
 1.4360	14.8450
 1.4370	14.8110
 1.4380	14.7810
 1.4390	14.7560
 1.4400	14.7330
 1.4410	14.7120
 1.4420	14.6940
 1.4430	14.6800
 1.4440	14.6680
 1.4450	14.6590
 1.4460	14.6520
 1.4470	14.6460
 1.4480	14.6410
 1.4490	14.6380
 1.4500	14.6370
 1.4510	14.6370
 1.4520	14.6410
 1.4530	14.6460
 1.4540	14.6520
 1.4550	14.6600
 1.4560	14.6690
 1.4570	14.6800
 1.4580	14.6940
 1.4590	14.7120
 1.4600	14.7310
 1.4610	14.7530
 1.4620	14.7770
 1.4630	14.8040
 1.4640	14.8340
 1.4650	14.8680
 1.4660	14.9060
 1.4670	14.9470
 1.4680	14.9920
 1.4690	15.0400
 1.4700	15.0900
 1.4710	15.1450
 1.4720	15.2020
 1.4730	15.2620
 1.4740	15.3260
 1.4750	15.3910
 1.4760	15.4580
 1.4770	15.5280
 1.4780	15.6000
 1.4790	15.6740
 1.4800	15.7490
 1.4810	15.8260
 1.4820	15.9040
 1.4830	15.9840
 1.4840	16.0650
 1.4850	16.1470
 1.4860	16.2300
 1.4870	16.3160
 1.4880	16.4010
 1.4890	16.4890
 1.4900	16.5770
 1.4910	16.6670
 1.4920	16.7580
 1.4930	16.8490
 1.4940	16.9400
 1.4950	17.0320
 1.4960	17.1240
 1.4970	17.2170
 1.4980	17.3100
 1.4990	17.4040
 1.5000	17.4990
 1.5010	17.5950
 1.5020	17.6900
 1.5030	17.7860
 1.5040	17.8820
 1.5050	17.9780
 1.5060	18.0740
 1.5070	18.1710
 1.5080	18.2670
 1.5090	18.3630
 1.5100	18.4590
 1.5110	18.5560
 1.5120	18.6520
 1.5130	18.7460
 1.5140	18.8430
 1.5150	18.9400
 1.5160	19.0350
 1.5170	19.1320
 1.5180	19.2270
 1.5190	19.3210
 1.5200	19.4170
 1.5210	19.5100
 1.5220	19.6020
 1.5230	19.6960
 1.5240	19.7880
 1.5250	19.8790
 1.5260	19.9700
 1.5270	20.0580
 1.5280	20.1460
 1.5290	20.2350
 1.5300	20.3240
 1.5310	20.4130
 1.5320	20.5010
 1.5330	20.5880
 1.5340	20.6740
 1.5350	20.7610
 1.5360	20.8480
 1.5370	20.9340
 1.5380	21.0190
 1.5390	21.1040
 1.5400	21.1880
 1.5410	21.2720
 1.5420	21.3560
 1.5430	21.4400
 1.5440	21.5240
 1.5450	21.6070
 1.5460	21.6910
 1.5470	21.7740
 1.5480	21.8560
 1.5490	21.9380
 1.5500	22.0190
 1.5510	22.0980
 1.5520	22.1780
 1.5530	22.2570
 1.5540	22.3350
 1.5550	22.4140
 1.5560	22.4920
 1.5570	22.5690
 1.5580	22.6440
 1.5590	22.7190
 1.5600	22.7960
 1.5610	22.8710
 1.5620	22.9460
 1.5630	23.0200
 1.5640	23.0930
 1.5650	23.1660
 1.5660	23.2390
 1.5670	23.3120
 1.5680	23.3870
 1.5690	23.4620
 1.5700	23.5360
 1.5710	23.6080
 1.5720	23.6780
 1.5730	23.7470
 1.5740	23.8190
 1.5750	23.8920
 1.5760	23.9630
 1.5770	24.0340
 1.5780	24.1050
 1.5790	24.1740
 1.5800	24.2450
 1.5810	24.3160
 1.5820	24.3860
 1.5830	24.4570
 1.5840	24.5280
 1.5850	24.5970
 1.5860	24.6660
 1.5870	24.7360
 1.5880	24.8070
 1.5890	24.8790
 1.5900	24.9510
 1.5910	25.0220
 1.5920	25.0940
 1.5930	25.1650
 1.5940	25.2380
 1.5950	25.3130
 1.5960	25.3860
 1.5970	25.4600
 1.5980	25.5340
 1.5990	25.6060
 1.6000	25.6770
 1.6010	25.7490
 1.6020	25.8210
 1.6030	25.8930
 1.6040	25.9660
 1.6050	26.0390
 1.6060	26.1110
 1.6070	26.1830
 1.6080	26.2530
 1.6090	26.3220
 1.6100	26.3920
 1.6110	26.4610
 1.6120	26.5300
 1.6130	26.5980
 1.6140	26.6660
 1.6150	26.7320
 1.6160	26.7980
 1.6170	26.8600
 1.6180	26.9200
 1.6190	26.9810
 1.6200	27.0400
 1.6210	27.1000
 1.6220	27.1570
 1.6230	27.2120
 1.6240	27.2660
 1.6250	27.3190
 1.6260	27.3730
 1.6270	27.4260
 1.6280	27.4780
 1.6290	27.5270
 1.6300	27.5730
 1.6310	27.6190
 1.6320	27.6630
 1.6330	27.7080
 1.6340	27.7540
 1.6350	27.7990
 1.6360	27.8430
 1.6370	27.8860
 1.6380	27.9290
 1.6390	27.9690
 1.6400	28.0070
 1.6410	28.0430
 1.6420	28.0790
 1.6430	28.1130
 1.6440	28.1460
 1.6450	28.1740
 1.6460	28.1970
 1.6470	28.2170
 1.6480	28.2340
 1.6490	28.2480
 1.6500	28.2600
 1.6510	28.2680
 1.6520	28.2710
 1.6530	28.2730
 1.6540	28.2710
 1.6550	28.2670
 1.6560	28.2620
 1.6570	28.2540
 1.6580	28.2460
 1.6590	28.2370
 1.6600	28.2270
 1.6610	28.2160
 1.6620	28.2040
 1.6630	28.1930
 1.6640	28.1820
 1.6650	28.1700
 1.6660	28.1590
 1.6670	28.1450
 1.6680	28.1330
 1.6690	28.1220
 1.6700	28.1130
 1.6710	28.1040
 1.6720	28.0940
 1.6730	28.0830
 1.6740	28.0720
 1.6750	28.0590
 1.6760	28.0460
 1.6770	28.0330
 1.6780	28.0190
 1.6790	28.0020
 1.6800	27.9830
 1.6810	27.9580
 1.6820	27.9300
 1.6830	27.9010
 1.6840	27.8680
 1.6850	27.8320
 1.6860	27.7940
 1.6870	27.7510
 1.6880	27.7050
 1.6890	27.6580
 1.6900	27.6080
 1.6910	27.5550
 1.6920	27.5010
 1.6930	27.4460
 1.6940	27.3910
 1.6950	27.3370
 1.6960	27.2800
 1.6970	27.2230
 1.6980	27.1640
 1.6990	27.1010
 1.7000	27.0400
 1.7010	26.9790
 1.7020	26.9190
 1.7030	26.8600
 1.7040	26.8010
 1.7050	26.7420
 1.7060	26.6830
 1.7070	26.6240
 1.7080	26.5680
 1.7090	26.5140
 1.7100	26.4610
 1.7110	26.4100
 1.7120	26.3600
 1.7130	26.3090
 1.7140	26.2580
 1.7150	26.2090
 1.7160	26.1590
 1.7170	26.1090
 1.7180	26.0600
 1.7190	26.0100
 1.7200	25.9600
 1.7210	25.9130
 1.7220	25.8630
 1.7230	25.8140
 1.7240	25.7640
 1.7250	25.7140
 1.7260	25.6670
 1.7270	25.6230
 1.7280	25.5830
 1.7290	25.5440
 1.7300	25.5070
 1.7310	25.4730
 1.7320	25.4430
 1.7330	25.4120
 1.7340	25.3870
 1.7350	25.3570
 1.7360	25.3250
 1.7370	25.2920
 1.7380	25.2580
 1.7390	25.2200
 1.7400	25.1810
 1.7410	25.1370
 1.7420	25.0880
 1.7430	25.0390
 1.7440	24.9870
 1.7450	24.9340
 1.7460	24.8770
 1.7470	24.8200
 1.7480	24.7610
 1.7490	24.7020
 1.7500	24.6430
 1.7510	24.5850
 1.7520	24.5280
 1.7530	24.4700
 1.7540	24.4140
 1.7550	24.3570
 1.7560	24.3020
 1.7570	24.2490
 1.7580	24.1950
 1.7590	24.1440
 1.7600	24.0940
 1.7610	24.0470
 1.7620	24.0030
 1.7630	23.9620
 1.7640	23.9240
 1.7650	23.8880
 1.7660	23.8540
 1.7670	23.8240
 1.7680	23.7930
 1.7690	23.7640
 1.7700	23.7360
 1.7710	23.7100
 1.7720	23.6840
 1.7730	23.6610
 1.7740	23.6390
 1.7750	23.6180
 1.7760	23.5980
 1.7770	23.5780
 1.7780	23.5620
 1.7790	23.5460
 1.7800	23.5320
 1.7810	23.5200
 1.7820	23.5100
 1.7830	23.5000
 1.7840	23.4940
 1.7850	23.4940
 1.7860	23.4910
 1.7870	23.4900
 1.7880	23.4910
 1.7890	23.4930
 1.7900	23.4960
 1.7910	23.5020
 1.7920	23.5090
 1.7930	23.5180
 1.7940	23.5310
 1.7950	23.5430
 1.7960	23.5540
 1.7970	23.5670
 1.7980	23.5820
 1.7990	23.5950
 1.8000	23.6090
 1.8010	23.6220
 1.8020	23.6350
 1.8030	23.6500
 1.8040	23.6660
 1.8050	23.6820
 1.8060	23.6990
 1.8070	23.7140
 1.8080	23.7290
 1.8090	23.7430
 1.8100	23.7580
 1.8110	23.7720
 1.8120	23.7860
 1.8130	23.7970
 1.8140	23.8090
 1.8150	23.8190
 1.8160	23.8290
 1.8170	23.8420
 1.8180	23.8520
 1.8190	23.8630
 1.8200	23.8720
 1.8210	23.8790
 1.8220	23.8860
 1.8230	23.8910
 1.8240	23.8960
 1.8250	23.8980
 1.8260	23.9010
 1.8270	23.8430
 1.8280	23.7860
 1.8290	23.7290
 1.8300	23.6710
 1.8310	23.6140
 1.8320	23.5570
 1.8330	23.4990
 1.8340	23.4420
 1.8350	23.4420
 1.8360	23.4200
 1.8370	23.3930
 1.8380	23.3640
 1.8390	23.3280
 1.8400	23.2860
 1.8410	23.2380
 1.8420	23.1860
 1.8430	23.1260
 1.8440	23.0600
 1.8450	22.9860
 1.8460	22.9020
 1.8470	22.8150
 1.8480	22.7200
 1.8490	22.6160
 1.8500	22.5050
 1.8510	22.3880
 1.8520	22.2590
 1.8530	22.1170
 1.8540	21.9680
 1.8550	21.8080
 1.8560	21.6300
 1.8570	21.4440
 1.8580	21.2510
 1.8590	21.0450
 1.8600	20.8260
 1.8610	20.5990
 1.8620	20.3610
 1.8630	20.1090
 1.8640	19.8460
 1.8650	19.5730
 1.8660	19.2860
 1.8670	18.9790
 1.8680	18.6620
 1.8690	18.3340
 1.8700	17.9930
 1.8710	17.6390
 1.8720	17.2820
 1.8730	16.9150
 1.8740	16.5400
 1.8750	16.1610
 1.8760	15.7730
 1.8770	15.3890
 1.8780	15.0040
 1.8790	14.6170
 1.8800	14.2370
 1.8810	13.8600
 1.8820	13.4860
 1.8830	13.1170
 1.8840	12.7570
 1.8850	12.4040
 1.8860	12.0580
 1.8870	11.7200
 1.8880	11.3910
 1.8890	11.0750
 1.8900	10.7730
 1.8910	10.4850
 1.8920	10.2090
 1.8930	 9.9510
 1.8940	 9.7070
 1.8950	 9.4770
 1.8960	 9.2620
 1.8970	 9.0610
 1.8980	 8.8740
 1.8990	 8.7010
 1.9000	 8.5410
 1.9010	 8.3980
 1.9020	 8.2620
 1.9030	 8.1380
 1.9040	 8.0250
 1.9050	 7.9240
 1.9060	 7.8300
 1.9070	 7.7480
 1.9080	 7.6760
 1.9090	 7.6070
 1.9100	 7.5460
 1.9110	 7.4900
 1.9120	 7.4380
 1.9130	 7.3920
 1.9140	 7.3540
 1.9150	 7.3170
 1.9160	 7.2830
 1.9170	 7.2520
 1.9180	 7.2250
 1.9190	 7.2010
 1.9200	 7.1800
 1.9210	 7.1620
 1.9220	 7.1460
 1.9230	 7.1310
 1.9240	 7.1190
 1.9250	 7.1110
 1.9260	 7.1040
 1.9270	 7.0970
 1.9280	 7.0930
 1.9290	 7.0910
 1.9300	 7.0920
 1.9310	 7.0960
 1.9320	 7.1010
 1.9330	 7.1080
 1.9340	 7.1160
 1.9350	 7.1230
 1.9360	 7.1290
 1.9370	 7.1380
 1.9380	 7.1480
 1.9390	 7.1610
 1.9400	 7.1780
 1.9410	 7.1950
 1.9420	 7.2130
 1.9430	 7.2340
 1.9440	 7.2540
 1.9450	 7.2730
 1.9460	 7.2950
 1.9470	 7.3170
 1.9480	 7.3400
 1.9490	 7.3640
 1.9500	 7.3920
 1.9510	 7.4190
 1.9520	 7.4430
 1.9530	 7.4700
 1.9540	 7.4960
 1.9550	 7.5230
 1.9560	 7.5520
 1.9570	 7.5800
 1.9580	 7.6060
 1.9590	 7.6350
 1.9600	 7.6660
 1.9610	 7.6960
 1.9620	 7.7260
 1.9630	 7.7580
 1.9640	 7.7910
 1.9650	 7.8220
 1.9660	 7.8550
 1.9670	 7.8880
 1.9680	 7.9230
 1.9690	 7.9570
 1.9700	 7.9930
 1.9710	 8.0320
 1.9720	 8.0700
 1.9730	 8.1080
 1.9740	 8.1460
 1.9750	 8.1850
 1.9760	 8.2250
 1.9770	 8.2630
 1.9780	 8.3050
 1.9790	 8.3450
 1.9800	 8.3860
 1.9810	 8.4260
 1.9820	 8.4680
 1.9830	 8.5080
 1.9840	 8.5470
 1.9850	 8.5870
 1.9860	 8.6270
 1.9870	 8.6690
 1.9880	 8.7120
 1.9890	 8.7550
 1.9900	 8.8030
 1.9910	 8.8520
 1.9920	 8.8990
 1.9930	 8.9480
 1.9940	 8.9940
 1.9950	 9.0370
 1.9960	 9.0820
 1.9970	 9.1270
 1.9980	 9.1710
 1.9990	 9.2170
 2.0000	 9.2610
 2.0010	 9.3010
 2.0020	 9.3450
 2.0030	 9.3890
 2.0040	 9.4340
 2.0050	 9.4790
 2.0060	 9.5280
 2.0070	 9.5730
 2.0080	 9.6170
 2.0090	 9.6600
 2.0100	 9.7020
 2.0110	 9.7450
 2.0120	 9.7870
 2.0130	 9.8300
 2.0140	 9.8710
 2.0150	 9.9100
 2.0160	 9.9510
 2.0170	 9.9930
 2.0180	10.0330
 2.0190	10.0740
 2.0200	10.1120
 2.0210	10.1480
 2.0220	10.1840
 2.0230	10.2210
 2.0240	10.2570
 2.0250	10.2930
 2.0260	10.3280
 2.0270	10.3640
 2.0280	10.3980
 2.0290	10.4300
 2.0300	10.4630
 2.0310	10.4940
 2.0320	10.5250
 2.0330	10.5540
 2.0340	10.5830
 2.0350	10.6100
 2.0360	10.6360
 2.0370	10.6620
 2.0380	10.6880
 2.0390	10.7140
 2.0400	10.7420
 2.0410	10.7680
 2.0420	10.7950
 2.0430	10.8200
 2.0440	10.8420
 2.0450	10.8620
 2.0460	10.8840
 2.0470	10.9050
 2.0480	10.9260
 2.0490	10.9460
 2.0500	10.9680
 2.0510	10.9890
 2.0520	11.0100
 2.0530	11.0310
 2.0540	11.0530
 2.0550	11.0740
 2.0560	11.0930
 2.0570	11.1160
 2.0580	11.1380
 2.0590	11.1600
 2.0600	11.1810
 2.0610	11.2010
 2.0620	11.2200
 2.0630	11.2390
 2.0640	11.2550
 2.0650	11.2750
 2.0660	11.2950
 2.0670	11.3150
 2.0680	11.3390
 2.0690	11.3600
 2.0700	11.3800
 2.0710	11.4000
 2.0720	11.4200
 2.0730	11.4370
 2.0740	11.4560
 2.0750	11.4740
 2.0760	11.4940
 2.0770	11.5160
 2.0780	11.5390
 2.0790	11.5640
 2.0800	11.5870
 2.0810	11.6110
 2.0820	11.6320
 2.0830	11.6490
 2.0840	11.6700
 2.0850	11.6940
 2.0860	11.7150
 2.0870	11.7400
 2.0880	11.7650
 2.0890	11.7860
 2.0900	11.8030
 2.0910	11.8230
 2.0920	11.8430
 2.0930	11.8650
 2.0940	11.8880
 2.0950	11.9110
 2.0960	11.9380
 2.0970	11.9620
 2.0980	11.9860
 2.0990	12.0080
 2.1000	12.0260
 2.1010	12.0470
 2.1020	12.0720
 2.1030	12.0940
 2.1040	12.1160
 2.1050	12.1410
 2.1060	12.1640
 2.1070	12.1860
 2.1080	12.2100
 2.1090	12.2380
 2.1100	12.2630
 2.1110	12.2880
 2.1120	12.3120
 2.1130	12.3340
 2.1140	12.3580
 2.1150	12.3810
 2.1160	12.4050
 2.1170	12.4320
 2.1180	12.4580
 2.1190	12.4850
 2.1200	12.5110
 2.1210	12.5380
 2.1220	12.5610
 2.1230	12.5850
 2.1240	12.6080
 2.1250	12.6320
 2.1260	12.6570
 2.1270	12.6790
 2.1280	12.6990
 2.1290	12.7210
 2.1300	12.7400
 2.1310	12.7630
 2.1320	12.7890
 2.1330	12.8130
 2.1340	12.8370
 2.1350	12.8590
 2.1360	12.8780
 2.1370	12.8990
 2.1380	12.9210
 2.1390	12.9440
 2.1400	12.9690
 2.1410	12.9950
 2.1420	13.0180
 2.1430	13.0400
 2.1440	13.0630
 2.1450	13.0830
 2.1460	13.1060
 2.1470	13.1310
 2.1480	13.1550
 2.1490	13.1810
 2.1500	13.2060
 2.1510	13.2310
 2.1520	13.2550
 2.1530	13.2810
 2.1540	13.3030
 2.1550	13.3230
 2.1560	13.3440
 2.1570	13.3630
 2.1580	13.3860
 2.1590	13.4120
 2.1600	13.4370
 2.1610	13.4620
 2.1620	13.4870
 2.1630	13.5090
 2.1640	13.5260
 2.1650	13.5470
 2.1660	13.5660
 2.1670	13.5880
 2.1680	13.6130
 2.1690	13.6370
 2.1700	13.6640
 2.1710	13.6870
 2.1720	13.7090
 2.1730	13.7300
 2.1740	13.7500
 2.1750	13.7710
 2.1760	13.7950
 2.1770	13.8170
 2.1780	13.8380
 2.1790	13.8590
 2.1800	13.8820
 2.1810	13.9020
 2.1820	13.9240
 2.1830	13.9420
 2.1840	13.9630
 2.1850	13.9830
 2.1860	14.0040
 2.1870	14.0290
 2.1880	14.0510
 2.1890	14.0710
 2.1900	14.0920
 2.1910	14.1150
 2.1920	14.1360
 2.1930	14.1560
 2.1940	14.1770
 2.1950	14.1960
 2.1960	14.2160
 2.1970	14.2360
 2.1980	14.2550
 2.1990	14.2750
 2.2000	14.2930
 2.2010	14.3090
 2.2020	14.3250
 2.2030	14.3360
 2.2040	14.3500
 2.2050	14.3630
 2.2060	14.3790
 2.2070	14.3900
 2.2080	14.4020
 2.2090	14.4100
 2.2100	14.4140
 2.2110	14.4230
 2.2120	14.4300
 2.2130	14.4400
 2.2140	14.4550
 2.2150	14.4610
 2.2160	14.4660
 2.2170	14.4670
 2.2180	14.4630
 2.2190	14.4590
 2.2200	14.4510
 2.2210	14.4450
 2.2220	14.4380
 2.2230	14.4310
 2.2240	14.4290
 2.2250	14.4200
 2.2260	14.4070
 2.2270	14.3910
 2.2280	14.3700
 2.2290	14.3480
 2.2300	14.3250
 2.2310	14.2970
 2.2320	14.2680
 2.2330	14.2390
 2.2340	14.2080
 2.2350	14.1770
 2.2360	14.1430
 2.2370	14.1090
 2.2380	14.0710
 2.2390	14.0290
 2.2400	13.9880
 2.2410	13.9470
 2.2420	13.9030
 2.2430	13.8600
 2.2440	13.8100
 2.2450	13.7520
 2.2460	13.6970
 2.2470	13.6380
 2.2480	13.5810
 2.2490	13.5270
 2.2500	13.4680
 2.2510	13.4050
 2.2520	13.3420
 2.2530	13.2740
 2.2540	13.2090
 2.2550	13.1440
 2.2560	13.0790
 2.2570	13.0130
 2.2580	12.9480
 2.2590	12.8830
 2.2600	12.8190
 2.2610	12.7560
 2.2620	12.6950
 2.2630	12.6310
 2.2640	12.5720
 2.2650	12.5160
 2.2660	12.4580
 2.2670	12.4050
 2.2680	12.3580
 2.2690	12.3090
 2.2700	12.2640
 2.2710	12.2180
 2.2720	12.1700
 2.2730	12.1290
 2.2740	12.0920
 2.2750	12.0570
 2.2760	12.0260
 2.2770	11.9960
 2.2780	11.9690
 2.2790	11.9410
 2.2800	11.9130
 2.2810	11.8890
 2.2820	11.8660
 2.2830	11.8430
 2.2840	11.8250
 2.2850	11.8030
 2.2860	11.7770
 2.2870	11.7550
 2.2880	11.7360
 2.2890	11.7120
 2.2900	11.6870
 2.2910	11.6590
 2.2920	11.6250
 2.2930	11.5900
 2.2940	11.5540
 2.2950	11.5180
 2.2960	11.4790
 2.2970	11.4420
 2.2980	11.4060
 2.2990	11.3680
 2.3000	11.3290
 2.3010	11.2920
 2.3020	11.2540
 2.3030	11.2150
 2.3040	11.1750
 2.3050	11.1390
 2.3060	11.1020
 2.3070	11.0630
 2.3080	11.0300
 2.3090	11.0040
 2.3100	10.9880
 2.3110	10.9820
 2.3120	10.9730
 2.3130	10.9710
 2.3140	10.9640
 2.3150	10.9520
 2.3160	10.9490
 2.3170	10.9490
 2.3180	10.9500
 2.3190	10.9580
 2.3200	10.9560
 2.3210	10.9490
 2.3220	10.9430
 2.3230	10.9300
 2.3240	10.9190
 2.3250	10.9100
 2.3260	10.8980
 2.3270	10.8850
 2.3280	10.8700
 2.3290	10.8570
 2.3300	10.8360
 2.3310	10.8050
 2.3320	10.7810
 2.3330	10.7550
 2.3340	10.7270
 2.3350	10.7000
 2.3360	10.6720
 2.3370	10.6330
 2.3380	10.6060
 2.3390	10.5880
 2.3400	10.5620
 2.3410	10.5400
 2.3420	10.5130
 2.3430	10.4730
 2.3440	10.4430
 2.3450	10.4190
 2.3460	10.3920
 2.3470	10.3660
 2.3480	10.3450
 2.3490	10.3300
 2.3500	10.3120
 2.3510	10.2990
 2.3520	10.2860
 2.3530	10.2670
 2.3540	10.2550
 2.3550	10.2490
 2.3560	10.2340
 2.3570	10.2230
 2.3580	10.2050
 2.3590	10.1880
 2.3600	10.1760
 2.3610	10.1590
 2.3620	10.1490
 2.3630	10.1340
 2.3640	10.1180
 2.3650	10.1040
 2.3660	10.0800
 2.3670	10.0580
 2.3680	10.0320
 2.3690	 9.9990
 2.3700	 9.9730
 2.3710	 9.9440
 2.3720	 9.9090
 2.3730	 9.8870
 2.3740	 9.8680
 2.3750	 9.8430
 2.3760	 9.8210
 2.3770	 9.7970
 2.3780	 9.7680
 2.3790	 9.7450
 2.3800	 9.7290
 2.3810	 9.7130
 2.3820	 9.7020
 2.3830	 9.6990
 2.3840	 9.6830
 2.3850	 9.6620
 2.3860	 9.6420
 2.3870	 9.6050
 2.3880	 9.5770
 2.3890	 9.5580
 2.3900	 9.5320
 2.3910	 9.5210
 2.3920	 9.5100
 2.3930	 9.4810
 2.3940	 9.4570
 2.3950	 9.4360
 2.3960	 9.4080
 2.3970	 9.3900
 2.3980	 9.3730
 2.3990	 9.3460
 2.4000	 9.3160
 2.4010	 9.2930
 2.4020	 9.2720
 2.4030	 9.2550
 2.4040	 9.2340
 2.4050	 9.2020
 2.4060	 9.1710
 2.4070	 9.1380
 2.4080	 9.1050
 2.4090	 9.0820
 2.4100	 9.0620
 2.4110	 9.0290
 2.4120	 8.9980
 2.4130	 8.9780
 2.4140	 8.9530
 2.4150	 8.9390
 2.4160	 8.9270
 2.4170	 8.9040
 2.4180	 8.8730
 2.4190	 8.8380
 2.4200	 8.7980
 2.4210	 8.7510
 2.4220	 8.7140
 2.4230	 8.6900
 2.4240	 8.6760
 2.4250	 8.6610
 2.4260	 8.6410
 2.4270	 8.6110
 2.4280	 8.5650
 2.4290	 8.5310
 2.4300	 8.5040
 2.4310	 8.4800
 2.4320	 8.4590
 2.4330	 8.4320
 2.4340	 8.4060
 2.4350	 8.3700
 2.4360	 8.3310
 2.4370	 8.2930
 2.4380	 8.2550
 2.4390	 8.2270
 2.4400	 8.1990
 2.4410	 8.1720
 2.4420	 8.1550
 2.4430	 8.1390
 2.4440	 8.1300
 2.4450	 8.1300
 2.4460	 8.1100
 2.4470	 8.0560
 2.4480	 8.0040
 2.4490	 7.9670
 2.4500	 7.9370
 2.4510	 7.9410
 2.4520	 7.9520
 2.4530	 7.9260
 2.4540	 7.8910
 2.4550	 7.8440
 2.4560	 7.7860
 2.4570	 7.7490
 2.4580	 7.7140
 2.4590	 7.6850
 2.4600	 7.6690
 2.4610	 7.6350
 2.4620	 7.6140
 2.4630	 7.6020
 2.4640	 7.5690
 2.4650	 7.5530
 2.4660	 7.5490
 2.4670	 7.5300
 2.4680	 7.5100
 2.4690	 7.4750
 2.4700	 7.4530
 2.4710	 7.4300
 2.4720	 7.4150
 2.4730	 7.4270
 2.4740	 7.4230
 2.4750	 7.4190
 2.4760	 7.4030
 2.4770	 7.3670
 2.4780	 7.3390
 2.4790	 7.3020
 2.4800	 7.2930
 2.4810	 7.3100
 2.4820	 7.3130
 2.4830	 7.2990
 2.4840	 7.2490
 2.4850	 7.2450
 2.4860	 7.2550
 2.4870	 7.2500
 2.4880	 7.2330
 2.4890	 7.1850
 2.4900	 7.1410
 2.4910	 7.1120
 2.4920	 7.1010
 2.4930	 7.1040
 2.4940	 7.1020
 2.4950	 7.0900
 2.4960	 7.0880
 2.4970	 7.0950
 2.4980	 7.1060
 2.4990	 7.1480
 2.5000	 7.1530
