Name: Phytolacca dioica
Type: vegetation
Class: Tree
Genus: Phytolacca
Species: dioica
Sample No.: JPL207
Owner: JPL
Wavelength Range: VSWIR
Origin: 34.12568; -118.11213; WGS84
Collection Date: 10/3/2016
Description: Samples were collected at the Huntington Garden in San Marino California as part of a JPL Subcontract studying HyTES imagery. Samples were taken to JPL and processed within 48 hours of collection. The same leaves were processed in the Nicolet and then measured using the ASD.
Measurement: Bidirectional reflectance
First Column: X
Second Column: Y
X Units: Wavelength (micrometer)
Y Units: Reflectance (percentage)
First X Value: 0.35
Last X Value: 2.5
Number of X Values: 2151
Additional Information: vegetation.tree.phytolacca.dioica.vswir.jpl207.jpl.asd.ancillary.txt

 0.3500	 3.9960
 0.3510	 3.9540
 0.3520	 3.8280
 0.3530	 3.7380
 0.3540	 3.7740
 0.3550	 3.8700
 0.3560	 3.7710
 0.3570	 3.6290
 0.3580	 3.7380
 0.3590	 3.6570
 0.3600	 3.6040
 0.3610	 3.6700
 0.3620	 3.6940
 0.3630	 3.6550
 0.3640	 3.6050
 0.3650	 3.5960
 0.3660	 3.5790
 0.3670	 3.6070
 0.3680	 3.6550
 0.3690	 3.6530
 0.3700	 3.6050
 0.3710	 3.5760
 0.3720	 3.5860
 0.3730	 3.5590
 0.3740	 3.5390
 0.3750	 3.5200
 0.3760	 3.5010
 0.3770	 3.5660
 0.3780	 3.5780
 0.3790	 3.5190
 0.3800	 3.4850
 0.3810	 3.5180
 0.3820	 3.5320
 0.3830	 3.4870
 0.3840	 3.4940
 0.3850	 3.5000
 0.3860	 3.5030
 0.3870	 3.5110
 0.3880	 3.5140
 0.3890	 3.4970
 0.3900	 3.4700
 0.3910	 3.4700
 0.3920	 3.4550
 0.3930	 3.4480
 0.3940	 3.4650
 0.3950	 3.4740
 0.3960	 3.4790
 0.3970	 3.4760
 0.3980	 3.4650
 0.3990	 3.4470
 0.4000	 3.4270
 0.4010	 3.4190
 0.4020	 3.4550
 0.4030	 3.4800
 0.4040	 3.4780
 0.4050	 3.4520
 0.4060	 3.4300
 0.4070	 3.4200
 0.4080	 3.4320
 0.4090	 3.4670
 0.4100	 3.4750
 0.4110	 3.4730
 0.4120	 3.4770
 0.4130	 3.4880
 0.4140	 3.5000
 0.4150	 3.5120
 0.4160	 3.5240
 0.4170	 3.5340
 0.4180	 3.5510
 0.4190	 3.5780
 0.4200	 3.6080
 0.4210	 3.6360
 0.4220	 3.6560
 0.4230	 3.6660
 0.4240	 3.6890
 0.4250	 3.7200
 0.4260	 3.7490
 0.4270	 3.7690
 0.4280	 3.7930
 0.4290	 3.8230
 0.4300	 3.8600
 0.4310	 3.8940
 0.4320	 3.9270
 0.4330	 3.9560
 0.4340	 3.9800
 0.4350	 4.0040
 0.4360	 4.0300
 0.4370	 4.0550
 0.4380	 4.0760
 0.4390	 4.0930
 0.4400	 4.1140
 0.4410	 4.1420
 0.4420	 4.1670
 0.4430	 4.1920
 0.4440	 4.2140
 0.4450	 4.2310
 0.4460	 4.2500
 0.4470	 4.2730
 0.4480	 4.2980
 0.4490	 4.3220
 0.4500	 4.3370
 0.4510	 4.3540
 0.4520	 4.3790
 0.4530	 4.3970
 0.4540	 4.4090
 0.4550	 4.4200
 0.4560	 4.4330
 0.4570	 4.4470
 0.4580	 4.4600
 0.4590	 4.4710
 0.4600	 4.4760
 0.4610	 4.4840
 0.4620	 4.4940
 0.4630	 4.5020
 0.4640	 4.5090
 0.4650	 4.5150
 0.4660	 4.5200
 0.4670	 4.5210
 0.4680	 4.5190
 0.4690	 4.5200
 0.4700	 4.5270
 0.4710	 4.5340
 0.4720	 4.5410
 0.4730	 4.5440
 0.4740	 4.5400
 0.4750	 4.5370
 0.4760	 4.5390
 0.4770	 4.5470
 0.4780	 4.5530
 0.4790	 4.5610
 0.4800	 4.5660
 0.4810	 4.5650
 0.4820	 4.5730
 0.4830	 4.5820
 0.4840	 4.5880
 0.4850	 4.5940
 0.4860	 4.6030
 0.4870	 4.6160
 0.4880	 4.6310
 0.4890	 4.6400
 0.4900	 4.6540
 0.4910	 4.6720
 0.4920	 4.6900
 0.4930	 4.7090
 0.4940	 4.7270
 0.4950	 4.7470
 0.4960	 4.7750
 0.4970	 4.8080
 0.4980	 4.8400
 0.4990	 4.8680
 0.5000	 4.9040
 0.5010	 4.9440
 0.5020	 4.9890
 0.5030	 5.0370
 0.5040	 5.0930
 0.5050	 5.1530
 0.5060	 5.2130
 0.5070	 5.2770
 0.5080	 5.3520
 0.5090	 5.4370
 0.5100	 5.5270
 0.5110	 5.6250
 0.5120	 5.7330
 0.5130	 5.8510
 0.5140	 5.9750
 0.5150	 6.1130
 0.5160	 6.2610
 0.5170	 6.4160
 0.5180	 6.5840
 0.5190	 6.7630
 0.5200	 6.9500
 0.5210	 7.1390
 0.5220	 7.3360
 0.5230	 7.5370
 0.5240	 7.7350
 0.5250	 7.9320
 0.5260	 8.1240
 0.5270	 8.3070
 0.5280	 8.4810
 0.5290	 8.6460
 0.5300	 8.7990
 0.5310	 8.9390
 0.5320	 9.0660
 0.5330	 9.1850
 0.5340	 9.2920
 0.5350	 9.3850
 0.5360	 9.4670
 0.5370	 9.5390
 0.5380	 9.6020
 0.5390	 9.6660
 0.5400	 9.7320
 0.5410	 9.7990
 0.5420	 9.8620
 0.5430	 9.9160
 0.5440	 9.9570
 0.5450	 9.9830
 0.5460	 9.9950
 0.5470	10.0030
 0.5480	10.0110
 0.5490	10.0210
 0.5500	10.0290
 0.5510	10.0310
 0.5520	10.0240
 0.5530	10.0080
 0.5540	 9.9740
 0.5550	 9.9290
 0.5560	 9.8750
 0.5570	 9.8130
 0.5580	 9.7380
 0.5590	 9.6560
 0.5600	 9.5680
 0.5610	 9.4740
 0.5620	 9.3740
 0.5630	 9.2690
 0.5640	 9.1600
 0.5650	 9.0480
 0.5660	 8.9320
 0.5670	 8.8100
 0.5680	 8.6840
 0.5690	 8.5570
 0.5700	 8.4290
 0.5710	 8.3010
 0.5720	 8.1770
 0.5730	 8.0580
 0.5740	 7.9470
 0.5750	 7.8460
 0.5760	 7.7560
 0.5770	 7.6730
 0.5780	 7.5960
 0.5790	 7.5280
 0.5800	 7.4590
 0.5810	 7.3910
 0.5820	 7.3300
 0.5830	 7.2720
 0.5840	 7.2160
 0.5850	 7.1590
 0.5860	 7.1040
 0.5870	 7.0550
 0.5880	 7.0070
 0.5890	 6.9580
 0.5900	 6.9220
 0.5910	 6.8910
 0.5920	 6.8640
 0.5930	 6.8420
 0.5940	 6.8200
 0.5950	 6.7990
 0.5960	 6.7800
 0.5970	 6.7600
 0.5980	 6.7440
 0.5990	 6.7270
 0.6000	 6.7080
 0.6010	 6.6830
 0.6020	 6.6560
 0.6030	 6.6270
 0.6040	 6.5960
 0.6050	 6.5610
 0.6060	 6.5210
 0.6070	 6.4760
 0.6080	 6.4290
 0.6090	 6.3870
 0.6100	 6.3530
 0.6110	 6.3230
 0.6120	 6.2750
 0.6130	 6.2160
 0.6140	 6.1530
 0.6150	 6.1000
 0.6160	 6.0530
 0.6170	 6.0110
 0.6180	 5.9750
 0.6190	 5.9410
 0.6200	 5.9100
 0.6210	 5.8840
 0.6220	 5.8600
 0.6230	 5.8380
 0.6240	 5.8200
 0.6250	 5.8050
 0.6260	 5.7920
 0.6270	 5.7820
 0.6280	 5.7750
 0.6290	 5.7700
 0.6300	 5.7650
 0.6310	 5.7580
 0.6320	 5.7480
 0.6330	 5.7360
 0.6340	 5.7220
 0.6350	 5.7030
 0.6360	 5.6760
 0.6370	 5.6460
 0.6380	 5.6110
 0.6390	 5.5740
 0.6400	 5.5360
 0.6410	 5.4960
 0.6420	 5.4550
 0.6430	 5.4130
 0.6440	 5.3700
 0.6450	 5.3300
 0.6460	 5.2930
 0.6470	 5.2570
 0.6480	 5.2220
 0.6490	 5.1940
 0.6500	 5.1730
 0.6510	 5.1540
 0.6520	 5.1390
 0.6530	 5.1250
 0.6540	 5.1070
 0.6550	 5.0920
 0.6560	 5.0750
 0.6570	 5.0540
 0.6580	 5.0320
 0.6590	 5.0080
 0.6600	 4.9850
 0.6610	 4.9630
 0.6620	 4.9370
 0.6630	 4.9110
 0.6640	 4.8910
 0.6650	 4.8780
 0.6660	 4.8680
 0.6670	 4.8620
 0.6680	 4.8620
 0.6690	 4.8670
 0.6700	 4.8770
 0.6710	 4.8930
 0.6720	 4.9140
 0.6730	 4.9370
 0.6740	 4.9660
 0.6750	 5.0010
 0.6760	 5.0430
 0.6770	 5.0900
 0.6780	 5.1400
 0.6790	 5.1950
 0.6800	 5.2580
 0.6810	 5.3270
 0.6820	 5.4020
 0.6830	 5.4800
 0.6840	 5.5600
 0.6850	 5.6470
 0.6860	 5.7390
 0.6870	 5.8340
 0.6880	 5.9400
 0.6890	 6.0650
 0.6900	 6.2150
 0.6910	 6.3940
 0.6920	 6.6130
 0.6930	 6.8780
 0.6940	 7.1950
 0.6950	 7.5710
 0.6960	 8.0060
 0.6970	 8.4960
 0.6980	 9.0410
 0.6990	 9.6360
 0.7000	10.2780
 0.7010	10.9620
 0.7020	11.6790
 0.7030	12.4280
 0.7040	13.2030
 0.7050	13.9980
 0.7060	14.8150
 0.7070	15.6480
 0.7080	16.4940
 0.7090	17.3550
 0.7100	18.2290
 0.7110	19.1190
 0.7120	20.0230
 0.7130	20.9350
 0.7140	21.8500
 0.7150	22.7710
 0.7160	23.6970
 0.7170	24.6260
 0.7180	25.5490
 0.7190	26.4660
 0.7200	27.3770
 0.7210	28.2710
 0.7220	29.1500
 0.7230	30.0110
 0.7240	30.8490
 0.7250	31.6610
 0.7260	32.4450
 0.7270	33.2000
 0.7280	33.9240
 0.7290	34.6170
 0.7300	35.2780
 0.7310	35.9020
 0.7320	36.4930
 0.7330	37.0510
 0.7340	37.5760
 0.7350	38.0670
 0.7360	38.5260
 0.7370	38.9540
 0.7380	39.3510
 0.7390	39.7200
 0.7400	40.0600
 0.7410	40.3740
 0.7420	40.6600
 0.7430	40.9200
 0.7440	41.1540
 0.7450	41.3640
 0.7460	41.5530
 0.7470	41.7190
 0.7480	41.8660
 0.7490	41.9970
 0.7500	42.1150
 0.7510	42.2180
 0.7520	42.3070
 0.7530	42.3830
 0.7540	42.4500
 0.7550	42.5080
 0.7560	42.5600
 0.7570	42.6060
 0.7580	42.6460
 0.7590	42.6800
 0.7600	42.7080
 0.7610	42.7300
 0.7620	42.7460
 0.7630	42.7590
 0.7640	42.7690
 0.7650	42.7760
 0.7660	42.7800
 0.7670	42.7830
 0.7680	42.7820
 0.7690	42.7810
 0.7700	42.7790
 0.7710	42.7760
 0.7720	42.7710
 0.7730	42.7670
 0.7740	42.7640
 0.7750	42.7590
 0.7760	42.7550
 0.7770	42.7510
 0.7780	42.7460
 0.7790	42.7450
 0.7800	42.7430
 0.7810	42.7400
 0.7820	42.7380
 0.7830	42.7350
 0.7840	42.7330
 0.7850	42.7300
 0.7860	42.7280
 0.7870	42.7250
 0.7880	42.7240
 0.7890	42.7210
 0.7900	42.7170
 0.7910	42.7110
 0.7920	42.7070
 0.7930	42.7040
 0.7940	42.7020
 0.7950	42.6960
 0.7960	42.6890
 0.7970	42.6810
 0.7980	42.6730
 0.7990	42.6660
 0.8000	42.6590
 0.8010	42.6520
 0.8020	42.6450
 0.8030	42.6350
 0.8040	42.6230
 0.8050	42.6120
 0.8060	42.6010
 0.8070	42.5910
 0.8080	42.5800
 0.8090	42.5680
 0.8100	42.5550
 0.8110	42.5410
 0.8120	42.5280
 0.8130	42.5170
 0.8140	42.4990
 0.8150	42.4800
 0.8160	42.4660
 0.8170	42.4520
 0.8180	42.4390
 0.8190	42.4260
 0.8200	42.4110
 0.8210	42.3920
 0.8220	42.3740
 0.8230	42.3590
 0.8240	42.3400
 0.8250	42.3230
 0.8260	42.3080
 0.8270	42.2910
 0.8280	42.2710
 0.8290	42.2520
 0.8300	42.2330
 0.8310	42.2110
 0.8320	42.1940
 0.8330	42.1780
 0.8340	42.1620
 0.8350	42.1450
 0.8360	42.1260
 0.8370	42.1110
 0.8380	42.0980
 0.8390	42.0870
 0.8400	42.0760
 0.8410	42.0640
 0.8420	42.0510
 0.8430	42.0420
 0.8440	42.0330
 0.8450	42.0230
 0.8460	42.0120
 0.8470	42.0010
 0.8480	41.9920
 0.8490	41.9840
 0.8500	41.9750
 0.8510	41.9660
 0.8520	41.9570
 0.8530	41.9480
 0.8540	41.9390
 0.8550	41.9320
 0.8560	41.9290
 0.8570	41.9270
 0.8580	41.9180
 0.8590	41.9120
 0.8600	41.9080
 0.8610	41.9050
 0.8620	41.9020
 0.8630	41.8980
 0.8640	41.8960
 0.8650	41.8950
 0.8660	41.8900
 0.8670	41.8860
 0.8680	41.8850
 0.8690	41.8880
 0.8700	41.8830
 0.8710	41.8800
 0.8720	41.8800
 0.8730	41.8860
 0.8740	41.8850
 0.8750	41.8830
 0.8760	41.8820
 0.8770	41.8810
 0.8780	41.8800
 0.8790	41.8790
 0.8800	41.8810
 0.8810	41.8820
 0.8820	41.8850
 0.8830	41.8860
 0.8840	41.8820
 0.8850	41.8790
 0.8860	41.8830
 0.8870	41.8870
 0.8880	41.8860
 0.8890	41.8860
 0.8900	41.8850
 0.8910	41.8850
 0.8920	41.8890
 0.8930	41.8900
 0.8940	41.8910
 0.8950	41.8910
 0.8960	41.8900
 0.8970	41.8880
 0.8980	41.8900
 0.8990	41.8940
 0.9000	41.8950
 0.9010	41.8950
 0.9020	41.8950
 0.9030	41.8930
 0.9040	41.8930
 0.9050	41.8950
 0.9060	41.8960
 0.9070	41.8970
 0.9080	41.9000
 0.9090	41.8940
 0.9100	41.8870
 0.9110	41.8880
 0.9120	41.8900
 0.9130	41.8860
 0.9140	41.8800
 0.9150	41.8770
 0.9160	41.8730
 0.9170	41.8670
 0.9180	41.8610
 0.9190	41.8520
 0.9200	41.8510
 0.9210	41.8410
 0.9220	41.8260
 0.9230	41.8150
 0.9240	41.8060
 0.9250	41.7900
 0.9260	41.7710
 0.9270	41.7590
 0.9280	41.7440
 0.9290	41.7240
 0.9300	41.7030
 0.9310	41.6860
 0.9320	41.6660
 0.9330	41.6390
 0.9340	41.6080
 0.9350	41.5850
 0.9360	41.5600
 0.9370	41.5370
 0.9380	41.5130
 0.9390	41.4870
 0.9400	41.4620
 0.9410	41.4300
 0.9420	41.3890
 0.9430	41.3540
 0.9440	41.3170
 0.9450	41.2810
 0.9460	41.2450
 0.9470	41.2030
 0.9480	41.1480
 0.9490	41.0900
 0.9500	41.0380
 0.9510	40.9750
 0.9520	40.9160
 0.9530	40.8620
 0.9540	40.8080
 0.9550	40.7500
 0.9560	40.6910
 0.9570	40.6340
 0.9580	40.5770
 0.9590	40.5230
 0.9600	40.4820
 0.9610	40.4480
 0.9620	40.4130
 0.9630	40.3780
 0.9640	40.3490
 0.9650	40.3270
 0.9660	40.3090
 0.9670	40.2730
 0.9680	40.2490
 0.9690	40.2390
 0.9700	40.2330
 0.9710	40.2160
 0.9720	40.2050
 0.9730	40.1980
 0.9740	40.1870
 0.9750	40.1760
 0.9760	40.1670
 0.9770	40.1620
 0.9780	40.1620
 0.9790	40.1540
 0.9800	40.1470
 0.9810	40.1480
 0.9820	40.1580
 0.9830	40.1490
 0.9840	40.1410
 0.9850	40.1440
 0.9860	40.1590
 0.9870	40.1650
 0.9880	40.1770
 0.9890	40.1830
 0.9900	40.1730
 0.9910	40.1760
 0.9920	40.1820
 0.9930	40.1920
 0.9940	40.2110
 0.9950	40.2380
 0.9960	40.2420
 0.9970	40.2360
 0.9980	40.2500
 0.9990	40.2730
 1.0000	40.2780
 1.0010	40.7650
 1.0020	40.7790
 1.0030	40.7920
 1.0040	40.8060
 1.0050	40.8180
 1.0060	40.8290
 1.0070	40.8420
 1.0080	40.8560
 1.0090	40.8720
 1.0100	40.8870
 1.0110	40.9020
 1.0120	40.9200
 1.0130	40.9400
 1.0140	40.9560
 1.0150	40.9740
 1.0160	40.9900
 1.0170	41.0020
 1.0180	41.0130
 1.0190	41.0270
 1.0200	41.0420
 1.0210	41.0570
 1.0220	41.0750
 1.0230	41.0930
 1.0240	41.1130
 1.0250	41.1290
 1.0260	41.1440
 1.0270	41.1600
 1.0280	41.1750
 1.0290	41.1890
 1.0300	41.2030
 1.0310	41.2170
 1.0320	41.2300
 1.0330	41.2400
 1.0340	41.2560
 1.0350	41.2720
 1.0360	41.2870
 1.0370	41.3010
 1.0380	41.3110
 1.0390	41.3180
 1.0400	41.3280
 1.0410	41.3370
 1.0420	41.3480
 1.0430	41.3620
 1.0440	41.3730
 1.0450	41.3840
 1.0460	41.3930
 1.0470	41.4010
 1.0480	41.4090
 1.0490	41.4200
 1.0500	41.4280
 1.0510	41.4350
 1.0520	41.4410
 1.0530	41.4480
 1.0540	41.4540
 1.0550	41.4600
 1.0560	41.4670
 1.0570	41.4730
 1.0580	41.4760
 1.0590	41.4810
 1.0600	41.4890
 1.0610	41.4940
 1.0620	41.4990
 1.0630	41.5020
 1.0640	41.5010
 1.0650	41.5030
 1.0660	41.5040
 1.0670	41.5050
 1.0680	41.5070
 1.0690	41.5110
 1.0700	41.5110
 1.0710	41.5110
 1.0720	41.5100
 1.0730	41.5080
 1.0740	41.5050
 1.0750	41.5020
 1.0760	41.4980
 1.0770	41.4940
 1.0780	41.4890
 1.0790	41.4860
 1.0800	41.4810
 1.0810	41.4740
 1.0820	41.4690
 1.0830	41.4640
 1.0840	41.4580
 1.0850	41.4520
 1.0860	41.4470
 1.0870	41.4390
 1.0880	41.4300
 1.0890	41.4210
 1.0900	41.4100
 1.0910	41.4000
 1.0920	41.3900
 1.0930	41.3790
 1.0940	41.3680
 1.0950	41.3570
 1.0960	41.3460
 1.0970	41.3350
 1.0980	41.3240
 1.0990	41.3120
 1.1000	41.3000
 1.1010	41.2880
 1.1020	41.2760
 1.1030	41.2620
 1.1040	41.2480
 1.1050	41.2350
 1.1060	41.2220
 1.1070	41.2090
 1.1080	41.1950
 1.1090	41.1790
 1.1100	41.1650
 1.1110	41.1490
 1.1120	41.1340
 1.1130	41.1230
 1.1140	41.1060
 1.1150	41.0860
 1.1160	41.0660
 1.1170	41.0460
 1.1180	41.0230
 1.1190	41.0000
 1.1200	40.9770
 1.1210	40.9500
 1.1220	40.9200
 1.1230	40.8850
 1.1240	40.8480
 1.1250	40.8080
 1.1260	40.7660
 1.1270	40.7170
 1.1280	40.6660
 1.1290	40.6050
 1.1300	40.5360
 1.1310	40.4620
 1.1320	40.3840
 1.1330	40.2980
 1.1340	40.2060
 1.1350	40.1080
 1.1360	40.0040
 1.1370	39.8940
 1.1380	39.7790
 1.1390	39.6590
 1.1400	39.5360
 1.1410	39.4100
 1.1420	39.2820
 1.1430	39.1530
 1.1440	39.0260
 1.1450	38.8950
 1.1460	38.7730
 1.1470	38.6530
 1.1480	38.5390
 1.1490	38.4260
 1.1500	38.3220
 1.1510	38.2230
 1.1520	38.1300
 1.1530	38.0430
 1.1540	37.9630
 1.1550	37.8900
 1.1560	37.8210
 1.1570	37.7610
 1.1580	37.7080
 1.1590	37.6580
 1.1600	37.6130
 1.1610	37.5740
 1.1620	37.5360
 1.1630	37.5050
 1.1640	37.4770
 1.1650	37.4500
 1.1660	37.4270
 1.1670	37.4050
 1.1680	37.3830
 1.1690	37.3630
 1.1700	37.3460
 1.1710	37.3280
 1.1720	37.3110
 1.1730	37.2950
 1.1740	37.2800
 1.1750	37.2660
 1.1760	37.2520
 1.1770	37.2390
 1.1780	37.2240
 1.1790	37.2080
 1.1800	37.1880
 1.1810	37.1700
 1.1820	37.1520
 1.1830	37.1350
 1.1840	37.1200
 1.1850	37.1060
 1.1860	37.0920
 1.1870	37.0770
 1.1880	37.0630
 1.1890	37.0480
 1.1900	37.0360
 1.1910	37.0240
 1.1920	37.0140
 1.1930	37.0060
 1.1940	36.9980
 1.1950	36.9920
 1.1960	36.9870
 1.1970	36.9830
 1.1980	36.9790
 1.1990	36.9760
 1.2000	36.9760
 1.2010	36.9780
 1.2020	36.9820
 1.2030	36.9860
 1.2040	36.9920
 1.2050	36.9990
 1.2060	37.0060
 1.2070	37.0180
 1.2080	37.0300
 1.2090	37.0410
 1.2100	37.0540
 1.2110	37.0670
 1.2120	37.0800
 1.2130	37.0960
 1.2140	37.1160
 1.2150	37.1340
 1.2160	37.1520
 1.2170	37.1710
 1.2180	37.1900
 1.2190	37.2100
 1.2200	37.2310
 1.2210	37.2520
 1.2220	37.2740
 1.2230	37.2960
 1.2240	37.3180
 1.2250	37.3410
 1.2260	37.3650
 1.2270	37.3870
 1.2280	37.4080
 1.2290	37.4290
 1.2300	37.4480
 1.2310	37.4660
 1.2320	37.4860
 1.2330	37.5040
 1.2340	37.5210
 1.2350	37.5380
 1.2360	37.5540
 1.2370	37.5700
 1.2380	37.5850
 1.2390	37.6000
 1.2400	37.6140
 1.2410	37.6270
 1.2420	37.6400
 1.2430	37.6530
 1.2440	37.6660
 1.2450	37.6790
 1.2460	37.6920
 1.2470	37.7040
 1.2480	37.7140
 1.2490	37.7240
 1.2500	37.7330
 1.2510	37.7410
 1.2520	37.7490
 1.2530	37.7540
 1.2540	37.7600
 1.2550	37.7660
 1.2560	37.7710
 1.2570	37.7780
 1.2580	37.7830
 1.2590	37.7860
 1.2600	37.7880
 1.2610	37.7890
 1.2620	37.7890
 1.2630	37.7880
 1.2640	37.7880
 1.2650	37.7850
 1.2660	37.7830
 1.2670	37.7810
 1.2680	37.7770
 1.2690	37.7710
 1.2700	37.7650
 1.2710	37.7560
 1.2720	37.7450
 1.2730	37.7350
 1.2740	37.7260
 1.2750	37.7140
 1.2760	37.7010
 1.2770	37.6880
 1.2780	37.6730
 1.2790	37.6570
 1.2800	37.6410
 1.2810	37.6240
 1.2820	37.6030
 1.2830	37.5820
 1.2840	37.5590
 1.2850	37.5340
 1.2860	37.5090
 1.2870	37.4810
 1.2880	37.4510
 1.2890	37.4180
 1.2900	37.3840
 1.2910	37.3490
 1.2920	37.3150
 1.2930	37.2780
 1.2940	37.2400
 1.2950	37.1990
 1.2960	37.1540
 1.2970	37.1080
 1.2980	37.0610
 1.2990	37.0100
 1.3000	36.9590
 1.3010	36.9060
 1.3020	36.8500
 1.3030	36.7920
 1.3040	36.7290
 1.3050	36.6660
 1.3060	36.6000
 1.3070	36.5310
 1.3080	36.4620
 1.3090	36.3900
 1.3100	36.3140
 1.3110	36.2360
 1.3120	36.1550
 1.3130	36.0730
 1.3140	35.9880
 1.3150	35.9020
 1.3160	35.8120
 1.3170	35.7210
 1.3180	35.6260
 1.3190	35.5300
 1.3200	35.4300
 1.3210	35.3290
 1.3220	35.2260
 1.3230	35.1210
 1.3240	35.0120
 1.3250	34.9020
 1.3260	34.7890
 1.3270	34.6750
 1.3280	34.5610
 1.3290	34.4420
 1.3300	34.3230
 1.3310	34.2020
 1.3320	34.0790
 1.3330	33.9570
 1.3340	33.8360
 1.3350	33.7130
 1.3360	33.5910
 1.3370	33.4690
 1.3380	33.3470
 1.3390	33.2250
 1.3400	33.1050
 1.3410	32.9850
 1.3420	32.8670
 1.3430	32.7500
 1.3440	32.6340
 1.3450	32.5190
 1.3460	32.4030
 1.3470	32.2900
 1.3480	32.1780
 1.3490	32.0680
 1.3500	31.9610
 1.3510	31.8530
 1.3520	31.7450
 1.3530	31.6370
 1.3540	31.5280
 1.3550	31.4180
 1.3560	31.3090
 1.3570	31.1980
 1.3580	31.0860
 1.3590	30.9720
 1.3600	30.8540
 1.3610	30.7320
 1.3620	30.6070
 1.3630	30.4770
 1.3640	30.3400
 1.3650	30.1960
 1.3660	30.0450
 1.3670	29.8850
 1.3680	29.7150
 1.3690	29.5330
 1.3700	29.3380
 1.3710	29.1300
 1.3720	28.9080
 1.3730	28.6690
 1.3740	28.4150
 1.3750	28.1420
 1.3760	27.8470
 1.3770	27.5320
 1.3780	27.1910
 1.3790	26.8300
 1.3800	26.4490
 1.3810	26.0450
 1.3820	25.6230
 1.3830	25.1830
 1.3840	24.7230
 1.3850	24.2420
 1.3860	23.7510
 1.3870	23.2380
 1.3880	22.7260
 1.3890	22.2030
 1.3900	21.6740
 1.3910	21.1470
 1.3920	20.6160
 1.3930	20.0840
 1.3940	19.5590
 1.3950	19.0360
 1.3960	18.5230
 1.3970	18.0240
 1.3980	17.5390
 1.3990	17.0750
 1.4000	16.6280
 1.4010	16.1960
 1.4020	15.7860
 1.4030	15.3920
 1.4040	15.0190
 1.4050	14.6680
 1.4060	14.3350
 1.4070	14.0230
 1.4080	13.7320
 1.4090	13.4580
 1.4100	13.2040
 1.4110	12.9650
 1.4120	12.7430
 1.4130	12.5380
 1.4140	12.3450
 1.4150	12.1690
 1.4160	12.0070
 1.4170	11.8550
 1.4180	11.7150
 1.4190	11.5840
 1.4200	11.4630
 1.4210	11.3520
 1.4220	11.2480
 1.4230	11.1540
 1.4240	11.0660
 1.4250	10.9840
 1.4260	10.9080
 1.4270	10.8380
 1.4280	10.7730
 1.4290	10.7140
 1.4300	10.6600
 1.4310	10.6110
 1.4320	10.5680
 1.4330	10.5280
 1.4340	10.4920
 1.4350	10.4590
 1.4360	10.4300
 1.4370	10.4040
 1.4380	10.3810
 1.4390	10.3620
 1.4400	10.3460
 1.4410	10.3330
 1.4420	10.3210
 1.4430	10.3130
 1.4440	10.3070
 1.4450	10.3010
 1.4460	10.2990
 1.4470	10.2990
 1.4480	10.3010
 1.4490	10.3040
 1.4500	10.3090
 1.4510	10.3150
 1.4520	10.3220
 1.4530	10.3320
 1.4540	10.3430
 1.4550	10.3570
 1.4560	10.3730
 1.4570	10.3920
 1.4580	10.4150
 1.4590	10.4410
 1.4600	10.4700
 1.4610	10.5020
 1.4620	10.5360
 1.4630	10.5750
 1.4640	10.6180
 1.4650	10.6660
 1.4660	10.7190
 1.4670	10.7750
 1.4680	10.8360
 1.4690	10.8990
 1.4700	10.9660
 1.4710	11.0370
 1.4720	11.1100
 1.4730	11.1870
 1.4740	11.2690
 1.4750	11.3520
 1.4760	11.4400
 1.4770	11.5290
 1.4780	11.6190
 1.4790	11.7130
 1.4800	11.8060
 1.4810	11.9020
 1.4820	12.0010
 1.4830	12.1010
 1.4840	12.2020
 1.4850	12.3050
 1.4860	12.4080
 1.4870	12.5140
 1.4880	12.6210
 1.4890	12.7280
 1.4900	12.8370
 1.4910	12.9470
 1.4920	13.0570
 1.4930	13.1690
 1.4940	13.2810
 1.4950	13.3960
 1.4960	13.5110
 1.4970	13.6250
 1.4980	13.7410
 1.4990	13.8570
 1.5000	13.9740
 1.5010	14.0920
 1.5020	14.2100
 1.5030	14.3280
 1.5040	14.4470
 1.5050	14.5660
 1.5060	14.6860
 1.5070	14.8080
 1.5080	14.9280
 1.5090	15.0500
 1.5100	15.1710
 1.5110	15.2910
 1.5120	15.4120
 1.5130	15.5310
 1.5140	15.6520
 1.5150	15.7730
 1.5160	15.8930
 1.5170	16.0140
 1.5180	16.1350
 1.5190	16.2560
 1.5200	16.3760
 1.5210	16.4950
 1.5220	16.6150
 1.5230	16.7350
 1.5240	16.8520
 1.5250	16.9710
 1.5260	17.0900
 1.5270	17.2070
 1.5280	17.3260
 1.5290	17.4430
 1.5300	17.5580
 1.5310	17.6730
 1.5320	17.7890
 1.5330	17.9030
 1.5340	18.0170
 1.5350	18.1300
 1.5360	18.2430
 1.5370	18.3540
 1.5380	18.4650
 1.5390	18.5750
 1.5400	18.6840
 1.5410	18.7940
 1.5420	18.9020
 1.5430	19.0090
 1.5440	19.1170
 1.5450	19.2220
 1.5460	19.3280
 1.5470	19.4330
 1.5480	19.5350
 1.5490	19.6380
 1.5500	19.7400
 1.5510	19.8420
 1.5520	19.9420
 1.5530	20.0420
 1.5540	20.1400
 1.5550	20.2360
 1.5560	20.3320
 1.5570	20.4290
 1.5580	20.5240
 1.5590	20.6180
 1.5600	20.7120
 1.5610	20.8030
 1.5620	20.8930
 1.5630	20.9830
 1.5640	21.0690
 1.5650	21.1570
 1.5660	21.2440
 1.5670	21.3300
 1.5680	21.4160
 1.5690	21.5000
 1.5700	21.5820
 1.5710	21.6640
 1.5720	21.7440
 1.5730	21.8230
 1.5740	21.9030
 1.5750	21.9810
 1.5760	22.0600
 1.5770	22.1370
 1.5780	22.2130
 1.5790	22.2880
 1.5800	22.3620
 1.5810	22.4360
 1.5820	22.5090
 1.5830	22.5820
 1.5840	22.6550
 1.5850	22.7260
 1.5860	22.7960
 1.5870	22.8650
 1.5880	22.9320
 1.5890	23.0000
 1.5900	23.0690
 1.5910	23.1360
 1.5920	23.2030
 1.5930	23.2680
 1.5940	23.3330
 1.5950	23.3970
 1.5960	23.4590
 1.5970	23.5200
 1.5980	23.5810
 1.5990	23.6420
 1.6000	23.7030
 1.6010	23.7630
 1.6020	23.8220
 1.6030	23.8800
 1.6040	23.9340
 1.6050	23.9890
 1.6060	24.0440
 1.6070	24.0970
 1.6080	24.1510
 1.6090	24.2050
 1.6100	24.2560
 1.6110	24.3050
 1.6120	24.3550
 1.6130	24.4030
 1.6140	24.4500
 1.6150	24.4970
 1.6160	24.5450
 1.6170	24.5910
 1.6180	24.6370
 1.6190	24.6840
 1.6200	24.7270
 1.6210	24.7690
 1.6220	24.8120
 1.6230	24.8530
 1.6240	24.8940
 1.6250	24.9350
 1.6260	24.9750
 1.6270	25.0130
 1.6280	25.0520
 1.6290	25.0890
 1.6300	25.1260
 1.6310	25.1620
 1.6320	25.1970
 1.6330	25.2310
 1.6340	25.2640
 1.6350	25.2970
 1.6360	25.3290
 1.6370	25.3600
 1.6380	25.3890
 1.6390	25.4180
 1.6400	25.4460
 1.6410	25.4720
 1.6420	25.4960
 1.6430	25.5210
 1.6440	25.5460
 1.6450	25.5680
 1.6460	25.5900
 1.6470	25.6100
 1.6480	25.6270
 1.6490	25.6460
 1.6500	25.6640
 1.6510	25.6800
 1.6520	25.6950
 1.6530	25.7080
 1.6540	25.7190
 1.6550	25.7280
 1.6560	25.7370
 1.6570	25.7450
 1.6580	25.7490
 1.6590	25.7540
 1.6600	25.7590
 1.6610	25.7600
 1.6620	25.7620
 1.6630	25.7630
 1.6640	25.7630
 1.6650	25.7620
 1.6660	25.7610
 1.6670	25.7590
 1.6680	25.7540
 1.6690	25.7470
 1.6700	25.7380
 1.6710	25.7290
 1.6720	25.7180
 1.6730	25.7070
 1.6740	25.6960
 1.6750	25.6800
 1.6760	25.6630
 1.6770	25.6470
 1.6780	25.6290
 1.6790	25.6100
 1.6800	25.5900
 1.6810	25.5670
 1.6820	25.5410
 1.6830	25.5160
 1.6840	25.4880
 1.6850	25.4620
 1.6860	25.4350
 1.6870	25.4030
 1.6880	25.3730
 1.6890	25.3400
 1.6900	25.3070
 1.6910	25.2720
 1.6920	25.2360
 1.6930	25.1980
 1.6940	25.1600
 1.6950	25.1220
 1.6960	25.0820
 1.6970	25.0370
 1.6980	24.9940
 1.6990	24.9510
 1.7000	24.9050
 1.7010	24.8590
 1.7020	24.8120
 1.7030	24.7610
 1.7040	24.7100
 1.7050	24.6570
 1.7060	24.6060
 1.7070	24.5530
 1.7080	24.5010
 1.7090	24.4480
 1.7100	24.3950
 1.7110	24.3410
 1.7120	24.2890
 1.7130	24.2390
 1.7140	24.1900
 1.7150	24.1410
 1.7160	24.0920
 1.7170	24.0440
 1.7180	23.9940
 1.7190	23.9460
 1.7200	23.8970
 1.7210	23.8480
 1.7220	23.8030
 1.7230	23.7570
 1.7240	23.7110
 1.7250	23.6660
 1.7260	23.6210
 1.7270	23.5770
 1.7280	23.5370
 1.7290	23.4970
 1.7300	23.4610
 1.7310	23.4260
 1.7320	23.3930
 1.7330	23.3600
 1.7340	23.3310
 1.7350	23.2990
 1.7360	23.2690
 1.7370	23.2360
 1.7380	23.2010
 1.7390	23.1630
 1.7400	23.1250
 1.7410	23.0820
 1.7420	23.0360
 1.7430	22.9860
 1.7440	22.9280
 1.7450	22.8710
 1.7460	22.8120
 1.7470	22.7520
 1.7480	22.6910
 1.7490	22.6290
 1.7500	22.5630
 1.7510	22.4990
 1.7520	22.4330
 1.7530	22.3680
 1.7540	22.3020
 1.7550	22.2370
 1.7560	22.1720
 1.7570	22.1070
 1.7580	22.0450
 1.7590	21.9850
 1.7600	21.9230
 1.7610	21.8650
 1.7620	21.8070
 1.7630	21.7510
 1.7640	21.6980
 1.7650	21.6440
 1.7660	21.5950
 1.7670	21.5510
 1.7680	21.5060
 1.7690	21.4640
 1.7700	21.4220
 1.7710	21.3810
 1.7720	21.3420
 1.7730	21.3040
 1.7740	21.2680
 1.7750	21.2320
 1.7760	21.1990
 1.7770	21.1680
 1.7780	21.1370
 1.7790	21.1060
 1.7800	21.0800
 1.7810	21.0560
 1.7820	21.0350
 1.7830	21.0200
 1.7840	21.0030
 1.7850	20.9860
 1.7860	20.9740
 1.7870	20.9630
 1.7880	20.9530
 1.7890	20.9450
 1.7900	20.9350
 1.7910	20.9280
 1.7920	20.9230
 1.7930	20.9200
 1.7940	20.9210
 1.7950	20.9210
 1.7960	20.9200
 1.7970	20.9220
 1.7980	20.9230
 1.7990	20.9260
 1.8000	20.9320
 1.8010	20.9370
 1.8020	20.9420
 1.8030	20.9480
 1.8040	20.9550
 1.8050	20.9620
 1.8060	20.9690
 1.8070	20.9740
 1.8080	20.9790
 1.8090	20.9840
 1.8100	20.9890
 1.8110	20.9920
 1.8120	20.9950
 1.8130	20.9980
 1.8140	20.9990
 1.8150	21.0010
 1.8160	21.0010
 1.8170	20.9990
 1.8180	20.9950
 1.8190	20.9920
 1.8200	20.9870
 1.8210	20.9800
 1.8220	20.9740
 1.8230	20.9660
 1.8240	20.9560
 1.8250	20.9460
 1.8260	20.9340
 1.8270	20.9180
 1.8280	20.9020
 1.8290	20.8860
 1.8300	20.8670
 1.8310	20.3700
 1.8320	20.3380
 1.8330	20.3030
 1.8340	20.2660
 1.8350	20.2250
 1.8360	20.1790
 1.8370	20.1300
 1.8380	20.0750
 1.8390	20.0140
 1.8400	19.9490
 1.8410	19.8780
 1.8420	19.8020
 1.8430	19.7200
 1.8440	19.6340
 1.8450	19.5400
 1.8460	19.4400
 1.8470	19.3320
 1.8480	19.2140
 1.8490	19.0880
 1.8500	18.9520
 1.8510	18.8060
 1.8520	18.6500
 1.8530	18.4810
 1.8540	18.3040
 1.8550	18.1140
 1.8560	17.9130
 1.8570	17.7010
 1.8580	17.4710
 1.8590	17.2310
 1.8600	16.9790
 1.8610	16.7140
 1.8620	16.4340
 1.8630	16.1460
 1.8640	15.8400
 1.8650	15.5170
 1.8660	15.1810
 1.8670	14.8270
 1.8680	14.4630
 1.8690	14.0870
 1.8700	13.6970
 1.8710	13.2940
 1.8720	12.8870
 1.8730	12.4670
 1.8740	12.0390
 1.8750	11.6150
 1.8760	11.1850
 1.8770	10.7600
 1.8780	10.3450
 1.8790	 9.9290
 1.8800	 9.5250
 1.8810	 9.1310
 1.8820	 8.7450
 1.8830	 8.3640
 1.8840	 7.9970
 1.8850	 7.6410
 1.8860	 7.2990
 1.8870	 6.9730
 1.8880	 6.6600
 1.8890	 6.3680
 1.8900	 6.0940
 1.8910	 5.8390
 1.8920	 5.6020
 1.8930	 5.3870
 1.8940	 5.1890
 1.8950	 5.0070
 1.8960	 4.8440
 1.8970	 4.7000
 1.8980	 4.5700
 1.8990	 4.4540
 1.9000	 4.3480
 1.9010	 4.2550
 1.9020	 4.1700
 1.9030	 4.0950
 1.9040	 4.0290
 1.9050	 3.9720
 1.9060	 3.9230
 1.9070	 3.8800
 1.9080	 3.8430
 1.9090	 3.8090
 1.9100	 3.7800
 1.9110	 3.7540
 1.9120	 3.7330
 1.9130	 3.7120
 1.9140	 3.6950
 1.9150	 3.6800
 1.9160	 3.6660
 1.9170	 3.6530
 1.9180	 3.6440
 1.9190	 3.6390
 1.9200	 3.6330
 1.9210	 3.6280
 1.9220	 3.6240
 1.9230	 3.6180
 1.9240	 3.6140
 1.9250	 3.6110
 1.9260	 3.6090
 1.9270	 3.6070
 1.9280	 3.6030
 1.9290	 3.6010
 1.9300	 3.6030
 1.9310	 3.6050
 1.9320	 3.6070
 1.9330	 3.6100
 1.9340	 3.6140
 1.9350	 3.6170
 1.9360	 3.6200
 1.9370	 3.6240
 1.9380	 3.6300
 1.9390	 3.6350
 1.9400	 3.6430
 1.9410	 3.6530
 1.9420	 3.6630
 1.9430	 3.6700
 1.9440	 3.6790
 1.9450	 3.6870
 1.9460	 3.6960
 1.9470	 3.7030
 1.9480	 3.7130
 1.9490	 3.7250
 1.9500	 3.7390
 1.9510	 3.7530
 1.9520	 3.7670
 1.9530	 3.7790
 1.9540	 3.7910
 1.9550	 3.8050
 1.9560	 3.8210
 1.9570	 3.8360
 1.9580	 3.8520
 1.9590	 3.8680
 1.9600	 3.8830
 1.9610	 3.9000
 1.9620	 3.9180
 1.9630	 3.9360
 1.9640	 3.9560
 1.9650	 3.9740
 1.9660	 3.9930
 1.9670	 4.0160
 1.9680	 4.0380
 1.9690	 4.0610
 1.9700	 4.0840
 1.9710	 4.1080
 1.9720	 4.1310
 1.9730	 4.1530
 1.9740	 4.1780
 1.9750	 4.2010
 1.9760	 4.2270
 1.9770	 4.2550
 1.9780	 4.2810
 1.9790	 4.3080
 1.9800	 4.3330
 1.9810	 4.3620
 1.9820	 4.3930
 1.9830	 4.4240
 1.9840	 4.4570
 1.9850	 4.4900
 1.9860	 4.5240
 1.9870	 4.5570
 1.9880	 4.5880
 1.9890	 4.6210
 1.9900	 4.6520
 1.9910	 4.6830
 1.9920	 4.7160
 1.9930	 4.7500
 1.9940	 4.7860
 1.9950	 4.8260
 1.9960	 4.8630
 1.9970	 4.9000
 1.9980	 4.9360
 1.9990	 4.9680
 2.0000	 5.0020
 2.0010	 5.0390
 2.0020	 5.0770
 2.0030	 5.1180
 2.0040	 5.1580
 2.0050	 5.1990
 2.0060	 5.2420
 2.0070	 5.2840
 2.0080	 5.3270
 2.0090	 5.3690
 2.0100	 5.4110
 2.0110	 5.4520
 2.0120	 5.4920
 2.0130	 5.5320
 2.0140	 5.5720
 2.0150	 5.6120
 2.0160	 5.6570
 2.0170	 5.7030
 2.0180	 5.7470
 2.0190	 5.7920
 2.0200	 5.8360
 2.0210	 5.8780
 2.0220	 5.9220
 2.0230	 5.9680
 2.0240	 6.0140
 2.0250	 6.0610
 2.0260	 6.1050
 2.0270	 6.1470
 2.0280	 6.1910
 2.0290	 6.2330
 2.0300	 6.2750
 2.0310	 6.3180
 2.0320	 6.3640
 2.0330	 6.4060
 2.0340	 6.4460
 2.0350	 6.4880
 2.0360	 6.5290
 2.0370	 6.5710
 2.0380	 6.6160
 2.0390	 6.6610
 2.0400	 6.7060
 2.0410	 6.7490
 2.0420	 6.7920
 2.0430	 6.8340
 2.0440	 6.8760
 2.0450	 6.9180
 2.0460	 6.9600
 2.0470	 7.0020
 2.0480	 7.0460
 2.0490	 7.0910
 2.0500	 7.1340
 2.0510	 7.1800
 2.0520	 7.2220
 2.0530	 7.2590
 2.0540	 7.3010
 2.0550	 7.3420
 2.0560	 7.3890
 2.0570	 7.4360
 2.0580	 7.4840
 2.0590	 7.5320
 2.0600	 7.5800
 2.0610	 7.6270
 2.0620	 7.6740
 2.0630	 7.7220
 2.0640	 7.7700
 2.0650	 7.8190
 2.0660	 7.8700
 2.0670	 7.9210
 2.0680	 7.9720
 2.0690	 8.0220
 2.0700	 8.0730
 2.0710	 8.1230
 2.0720	 8.1730
 2.0730	 8.2220
 2.0740	 8.2720
 2.0750	 8.3230
 2.0760	 8.3720
 2.0770	 8.4200
 2.0780	 8.4710
 2.0790	 8.5230
 2.0800	 8.5750
 2.0810	 8.6280
 2.0820	 8.6810
 2.0830	 8.7320
 2.0840	 8.7820
 2.0850	 8.8300
 2.0860	 8.8790
 2.0870	 8.9280
 2.0880	 8.9760
 2.0890	 9.0240
 2.0900	 9.0740
 2.0910	 9.1210
 2.0920	 9.1670
 2.0930	 9.2150
 2.0940	 9.2640
 2.0950	 9.3120
 2.0960	 9.3590
 2.0970	 9.4070
 2.0980	 9.4550
 2.0990	 9.5040
 2.1000	 9.5540
 2.1010	 9.6020
 2.1020	 9.6500
 2.1030	 9.6970
 2.1040	 9.7450
 2.1050	 9.7910
 2.1060	 9.8370
 2.1070	 9.8830
 2.1080	 9.9280
 2.1090	 9.9740
 2.1100	10.0190
 2.1110	10.0630
 2.1120	10.1080
 2.1130	10.1530
 2.1140	10.1970
 2.1150	10.2430
 2.1160	10.2870
 2.1170	10.3290
 2.1180	10.3720
 2.1190	10.4170
 2.1200	10.4590
 2.1210	10.5020
 2.1220	10.5440
 2.1230	10.5840
 2.1240	10.6220
 2.1250	10.6610
 2.1260	10.6990
 2.1270	10.7370
 2.1280	10.7730
 2.1290	10.8110
 2.1300	10.8480
 2.1310	10.8840
 2.1320	10.9220
 2.1330	10.9570
 2.1340	10.9910
 2.1350	11.0240
 2.1360	11.0550
 2.1370	11.0850
 2.1380	11.1140
 2.1390	11.1420
 2.1400	11.1690
 2.1410	11.1950
 2.1420	11.2210
 2.1430	11.2460
 2.1440	11.2740
 2.1450	11.3020
 2.1460	11.3300
 2.1470	11.3590
 2.1480	11.3860
 2.1490	11.4100
 2.1500	11.4360
 2.1510	11.4650
 2.1520	11.4890
 2.1530	11.5110
 2.1540	11.5320
 2.1550	11.5470
 2.1560	11.5640
 2.1570	11.5820
 2.1580	11.5990
 2.1590	11.6110
 2.1600	11.6280
 2.1610	11.6440
 2.1620	11.6610
 2.1630	11.6770
 2.1640	11.6950
 2.1650	11.7110
 2.1660	11.7250
 2.1670	11.7420
 2.1680	11.7600
 2.1690	11.7770
 2.1700	11.7920
 2.1710	11.8090
 2.1720	11.8250
 2.1730	11.8420
 2.1740	11.8600
 2.1750	11.8780
 2.1760	11.8950
 2.1770	11.9130
 2.1780	11.9340
 2.1790	11.9520
 2.1800	11.9690
 2.1810	11.9870
 2.1820	12.0040
 2.1830	12.0200
 2.1840	12.0370
 2.1850	12.0550
 2.1860	12.0700
 2.1870	12.0830
 2.1880	12.0990
 2.1890	12.1130
 2.1900	12.1300
 2.1910	12.1490
 2.1920	12.1670
 2.1930	12.1860
 2.1940	12.2030
 2.1950	12.2220
 2.1960	12.2380
 2.1970	12.2520
 2.1980	12.2660
 2.1990	12.2790
 2.2000	12.2910
 2.2010	12.3010
 2.2020	12.3130
 2.2030	12.3250
 2.2040	12.3360
 2.2050	12.3500
 2.2060	12.3610
 2.2070	12.3680
 2.2080	12.3710
 2.2090	12.3770
 2.2100	12.3820
 2.2110	12.3860
 2.2120	12.3920
 2.2130	12.3940
 2.2140	12.3920
 2.2150	12.3920
 2.2160	12.3910
 2.2170	12.3890
 2.2180	12.3870
 2.2190	12.3830
 2.2200	12.3760
 2.2210	12.3680
 2.2220	12.3570
 2.2230	12.3470
 2.2240	12.3370
 2.2250	12.3250
 2.2260	12.3110
 2.2270	12.2950
 2.2280	12.2780
 2.2290	12.2590
 2.2300	12.2410
 2.2310	12.2200
 2.2320	12.1960
 2.2330	12.1680
 2.2340	12.1390
 2.2350	12.1050
 2.2360	12.0740
 2.2370	12.0430
 2.2380	12.0080
 2.2390	11.9690
 2.2400	11.9320
 2.2410	11.8940
 2.2420	11.8550
 2.2430	11.8160
 2.2440	11.7770
 2.2450	11.7340
 2.2460	11.6940
 2.2470	11.6580
 2.2480	11.6170
 2.2490	11.5740
 2.2500	11.5280
 2.2510	11.4750
 2.2520	11.4300
 2.2530	11.3910
 2.2540	11.3460
 2.2550	11.3040
 2.2560	11.2590
 2.2570	11.2050
 2.2580	11.1560
 2.2590	11.1100
 2.2600	11.0630
 2.2610	11.0160
 2.2620	10.9710
 2.2630	10.9250
 2.2640	10.8790
 2.2650	10.8340
 2.2660	10.7890
 2.2670	10.7450
 2.2680	10.6980
 2.2690	10.6590
 2.2700	10.6250
 2.2710	10.5880
 2.2720	10.5560
 2.2730	10.5200
 2.2740	10.4790
 2.2750	10.4400
 2.2760	10.4020
 2.2770	10.3610
 2.2780	10.3180
 2.2790	10.2760
 2.2800	10.2360
 2.2810	10.1920
 2.2820	10.1460
 2.2830	10.1020
 2.2840	10.0540
 2.2850	10.0110
 2.2860	 9.9740
 2.2870	 9.9330
 2.2880	 9.8920
 2.2890	 9.8510
 2.2900	 9.8110
 2.2910	 9.7680
 2.2920	 9.7270
 2.2930	 9.6820
 2.2940	 9.6320
 2.2950	 9.5840
 2.2960	 9.5350
 2.2970	 9.4850
 2.2980	 9.4280
 2.2990	 9.3810
 2.3000	 9.3340
 2.3010	 9.2830
 2.3020	 9.2390
 2.3030	 9.1950
 2.3040	 9.1490
 2.3050	 9.1060
 2.3060	 9.0710
 2.3070	 9.0410
 2.3080	 9.0100
 2.3090	 8.9830
 2.3100	 8.9520
 2.3110	 8.9180
 2.3120	 8.8910
 2.3130	 8.8680
 2.3140	 8.8460
 2.3150	 8.8290
 2.3160	 8.8100
 2.3170	 8.7900
 2.3180	 8.7720
 2.3190	 8.7560
 2.3200	 8.7390
 2.3210	 8.7260
 2.3220	 8.7050
 2.3230	 8.6820
 2.3240	 8.6580
 2.3250	 8.6270
 2.3260	 8.6000
 2.3270	 8.5760
 2.3280	 8.5470
 2.3290	 8.5190
 2.3300	 8.4850
 2.3310	 8.4450
 2.3320	 8.4060
 2.3330	 8.3660
 2.3340	 8.3270
 2.3350	 8.2880
 2.3360	 8.2500
 2.3370	 8.2120
 2.3380	 8.1730
 2.3390	 8.1340
 2.3400	 8.0930
 2.3410	 8.0510
 2.3420	 8.0120
 2.3430	 7.9760
 2.3440	 7.9410
 2.3450	 7.9060
 2.3460	 7.8690
 2.3470	 7.8330
 2.3480	 7.7960
 2.3490	 7.7560
 2.3500	 7.7200
 2.3510	 7.6800
 2.3520	 7.6480
 2.3530	 7.6230
 2.3540	 7.5990
 2.3550	 7.5810
 2.3560	 7.5560
 2.3570	 7.5260
 2.3580	 7.4970
 2.3590	 7.4680
 2.3600	 7.4400
 2.3610	 7.4170
 2.3620	 7.3930
 2.3630	 7.3660
 2.3640	 7.3360
 2.3650	 7.3030
 2.3660	 7.2700
 2.3670	 7.2400
 2.3680	 7.2100
 2.3690	 7.1820
 2.3700	 7.1540
 2.3710	 7.1170
 2.3720	 7.0800
 2.3730	 7.0460
 2.3740	 7.0150
 2.3750	 6.9970
 2.3760	 6.9750
 2.3770	 6.9550
 2.3780	 6.9200
 2.3790	 6.8760
 2.3800	 6.8450
 2.3810	 6.8100
 2.3820	 6.7820
 2.3830	 6.7630
 2.3840	 6.7390
 2.3850	 6.7130
 2.3860	 6.6860
 2.3870	 6.6630
 2.3880	 6.6230
 2.3890	 6.5810
 2.3900	 6.5440
 2.3910	 6.5030
 2.3920	 6.4790
 2.3930	 6.4620
 2.3940	 6.4410
 2.3950	 6.4260
 2.3960	 6.3970
 2.3970	 6.3560
 2.3980	 6.3240
 2.3990	 6.2840
 2.4000	 6.2460
 2.4010	 6.2280
 2.4020	 6.2060
 2.4030	 6.1840
 2.4040	 6.1650
 2.4050	 6.1420
 2.4060	 6.1150
 2.4070	 6.0870
 2.4080	 6.0560
 2.4090	 6.0230
 2.4100	 5.9970
 2.4110	 5.9670
 2.4120	 5.9390
 2.4130	 5.9080
 2.4140	 5.8640
 2.4150	 5.8310
 2.4160	 5.8010
 2.4170	 5.7690
 2.4180	 5.7460
 2.4190	 5.7230
 2.4200	 5.6980
 2.4210	 5.6770
 2.4220	 5.6620
 2.4230	 5.6350
 2.4240	 5.6070
 2.4250	 5.5840
 2.4260	 5.5610
 2.4270	 5.5370
 2.4280	 5.5110
 2.4290	 5.4900
 2.4300	 5.4530
 2.4310	 5.4200
 2.4320	 5.3940
 2.4330	 5.3490
 2.4340	 5.3080
 2.4350	 5.2790
 2.4360	 5.2570
 2.4370	 5.2500
 2.4380	 5.2400
 2.4390	 5.2340
 2.4400	 5.2240
 2.4410	 5.1910
 2.4420	 5.1640
 2.4430	 5.1250
 2.4440	 5.0830
 2.4450	 5.0680
 2.4460	 5.0620
 2.4470	 5.0540
 2.4480	 5.0230
 2.4490	 4.9920
 2.4500	 4.9670
 2.4510	 4.9330
 2.4520	 4.9100
 2.4530	 4.8840
 2.4540	 4.8600
 2.4550	 4.8420
 2.4560	 4.8430
 2.4570	 4.8580
 2.4580	 4.8380
 2.4590	 4.8070
 2.4600	 4.7790
 2.4610	 4.7360
 2.4620	 4.7010
 2.4630	 4.6770
 2.4640	 4.6670
 2.4650	 4.6660
 2.4660	 4.6500
 2.4670	 4.6420
 2.4680	 4.6280
 2.4690	 4.5860
 2.4700	 4.5630
 2.4710	 4.5230
 2.4720	 4.5000
 2.4730	 4.4970
 2.4740	 4.4860
 2.4750	 4.4810
 2.4760	 4.4940
 2.4770	 4.5290
 2.4780	 4.5410
 2.4790	 4.5590
 2.4800	 4.5360
 2.4810	 4.4580
 2.4820	 4.4110
 2.4830	 4.3880
 2.4840	 4.4070
 2.4850	 4.4240
 2.4860	 4.4140
 2.4870	 4.4340
 2.4880	 4.4610
 2.4890	 4.4810
 2.4900	 4.4780
 2.4910	 4.4450
 2.4920	 4.4150
 2.4930	 4.4080
 2.4940	 4.4270
 2.4950	 4.4040
 2.4960	 4.3590
 2.4970	 4.2930
 2.4980	 4.1810
 2.4990	 4.1610
 2.5000	 4.2200
