Name: Umbellularia californica 1
Type: vegetation
Class: Shrub
Genus: Umbellularia
Species: californica
Sample No.: VH026
Owner: UCSB
Wavelength Range: TIR
Origin: 34.5074; -119.7634; WGS84
Collection Date: 4/1/2013
Description: Samples were collected as part of the HyspIRI Airborne Campaign. 48 individual plants were sampled in three times in 2013 - spring  summer  and fall. The name of the sample includes a 1  2  or 3 which references a different individual of the species. Samples were taken to JPL and processed within 48 hours of collection. The same leaves were processed in the Nicolet and then measured using the ASD.
Measurement: Hemispherical reflectance
First Column: X
Second Column: Y
X Units: Wavelength (micrometers)
Y Units: Reflectance (percentage)
First X Value: 2.501
Last X Value: 15.387
Number of X Values: 1737
Additional Information: vegetation.shrub.umbellularia.californica.tir.vh026.ucsb.nicolet.ancillary.txt

 2.5010	 7.4130
 2.5030	 7.5780
 2.5040	 7.6130
 2.5050	 7.3650
 2.5060	 7.2310
 2.5070	 7.3600
 2.5090	 7.4910
 2.5100	 7.3580
 2.5110	 7.2560
 2.5120	 7.1760
 2.5140	 7.2550
 2.5150	 7.3470
 2.5160	 7.4730
 2.5170	 7.3770
 2.5180	 7.4090
 2.5200	 7.2480
 2.5210	 7.2860
 2.5220	 7.2340
 2.5230	 7.1570
 2.5250	 7.2030
 2.5260	 7.3360
 2.5270	 7.2120
 2.5280	 7.2070
 2.5290	 7.3140
 2.5310	 7.3610
 2.5320	 7.3580
 2.5330	 7.3420
 2.5340	 7.2100
 2.5360	 7.1560
 2.5370	 7.0740
 2.5380	 7.1180
 2.5390	 7.1640
 2.5410	 7.1970
 2.5420	 7.0430
 2.5430	 7.0220
 2.5440	 7.0550
 2.5460	 7.1270
 2.5470	 7.2090
 2.5480	 7.2450
 2.5490	 7.1170
 2.5510	 7.1860
 2.5520	 7.2260
 2.5530	 7.1740
 2.5540	 7.1160
 2.5560	 7.2870
 2.5570	 7.4440
 2.5580	 7.4010
 2.5590	 7.1760
 2.5610	 7.2670
 2.5620	 7.3160
 2.5630	 7.3410
 2.5640	 7.3270
 2.5660	 7.2410
 2.5670	 7.1750
 2.5680	 7.2520
 2.5700	 7.2330
 2.5710	 7.3370
 2.5720	 7.3130
 2.5730	 7.2920
 2.5750	 7.2420
 2.5760	 7.3540
 2.5770	 7.5090
 2.5790	 7.4920
 2.5800	 7.5210
 2.5810	 7.5340
 2.5820	 7.3990
 2.5840	 7.4850
 2.5850	 7.4730
 2.5860	 7.4890
 2.5880	 7.3840
 2.5890	 7.2470
 2.5900	 7.0790
 2.5910	 7.0820
 2.5930	 7.2310
 2.5940	 7.4320
 2.5950	 7.3180
 2.5970	 7.1810
 2.5980	 7.1020
 2.5990	 7.0870
 2.6000	 6.9720
 2.6020	 6.8720
 2.6030	 6.8270
 2.6040	 7.0920
 2.6060	 7.0490
 2.6070	 6.9600
 2.6080	 6.9250
 2.6100	 6.9150
 2.6110	 6.9390
 2.6120	 6.9150
 2.6140	 6.7590
 2.6150	 6.8200
 2.6160	 6.8320
 2.6180	 6.6840
 2.6190	 6.5790
 2.6200	 6.6130
 2.6220	 6.5970
 2.6230	 6.5590
 2.6240	 6.5580
 2.6260	 6.6830
 2.6270	 6.6380
 2.6280	 6.6260
 2.6300	 6.6680
 2.6310	 6.5900
 2.6320	 6.4090
 2.6340	 6.3480
 2.6350	 6.2090
 2.6360	 6.3690
 2.6380	 6.5430
 2.6390	 6.4160
 2.6400	 6.1600
 2.6420	 6.1260
 2.6430	 6.1240
 2.6440	 6.0450
 2.6460	 6.0600
 2.6470	 6.2420
 2.6480	 6.1760
 2.6500	 6.0640
 2.6510	 5.9880
 2.6520	 6.0010
 2.6540	 5.9020
 2.6550	 5.8800
 2.6560	 5.8640
 2.6580	 5.9090
 2.6590	 5.8620
 2.6610	 5.7670
 2.6620	 5.6420
 2.6630	 5.6880
 2.6650	 5.5920
 2.6660	 5.6180
 2.6670	 5.5970
 2.6690	 5.5470
 2.6700	 5.4560
 2.6720	 5.5190
 2.6730	 5.5020
 2.6740	 5.4530
 2.6760	 5.4700
 2.6770	 5.5580
 2.6780	 5.5220
 2.6800	 5.4640
 2.6810	 5.3610
 2.6830	 5.3270
 2.6840	 5.3290
 2.6850	 5.3860
 2.6870	 5.3470
 2.6880	 5.1770
 2.6900	 5.0620
 2.6910	 5.0960
 2.6920	 5.0550
 2.6940	 5.0420
 2.6950	 5.0790
 2.6970	 5.0200
 2.6980	 4.9670
 2.6990	 5.1070
 2.7010	 5.1370
 2.7020	 5.1190
 2.7040	 4.9870
 2.7050	 4.9500
 2.7060	 4.8950
 2.7080	 4.8330
 2.7090	 4.7770
 2.7110	 4.7830
 2.7120	 4.6970
 2.7130	 4.7090
 2.7150	 4.7020
 2.7160	 4.7970
 2.7180	 4.7990
 2.7190	 4.8000
 2.7210	 4.7380
 2.7220	 4.7380
 2.7230	 4.6470
 2.7250	 4.6820
 2.7260	 4.7160
 2.7280	 4.7520
 2.7290	 4.7430
 2.7310	 4.6810
 2.7320	 4.6610
 2.7330	 4.7400
 2.7350	 4.6820
 2.7360	 4.6670
 2.7380	 4.7070
 2.7390	 4.7440
 2.7410	 4.7480
 2.7420	 4.7690
 2.7440	 4.6900
 2.7450	 4.6100
 2.7470	 4.5810
 2.7480	 4.7530
 2.7490	 4.7950
 2.7510	 4.8210
 2.7520	 4.6340
 2.7540	 4.4000
 2.7550	 4.5060
 2.7570	 4.7430
 2.7580	 4.6130
 2.7600	 4.6540
 2.7610	 4.5630
 2.7630	 4.3940
 2.7640	 4.3490
 2.7660	 4.4960
 2.7670	 4.3760
 2.7680	 4.3800
 2.7700	 4.5270
 2.7710	 4.5320
 2.7730	 4.4530
 2.7740	 4.6620
 2.7760	 4.7990
 2.7770	 4.7740
 2.7790	 4.5920
 2.7800	 4.7220
 2.7820	 4.7860
 2.7830	 4.8150
 2.7850	 4.7010
 2.7860	 4.6510
 2.7880	 4.5300
 2.7890	 4.6600
 2.7910	 4.7640
 2.7920	 4.6540
 2.7940	 4.5410
 2.7950	 4.6050
 2.7970	 4.5550
 2.7980	 4.5740
 2.8000	 4.5270
 2.8010	 4.5320
 2.8030	 4.4170
 2.8040	 4.4470
 2.8060	 4.5430
 2.8070	 4.3700
 2.8090	 4.2390
 2.8110	 4.3360
 2.8120	 4.3990
 2.8140	 4.4080
 2.8150	 4.3380
 2.8170	 4.4240
 2.8180	 4.2730
 2.8200	 4.2220
 2.8210	 4.3990
 2.8230	 4.5680
 2.8240	 4.5420
 2.8260	 4.5950
 2.8270	 4.5070
 2.8290	 4.3990
 2.8300	 4.4320
 2.8320	 4.5590
 2.8340	 4.6530
 2.8350	 4.5200
 2.8370	 4.2210
 2.8380	 4.2520
 2.8400	 4.2960
 2.8410	 4.4350
 2.8430	 4.4580
 2.8440	 4.5020
 2.8460	 4.4530
 2.8480	 4.5030
 2.8490	 4.4150
 2.8510	 4.4090
 2.8520	 4.4460
 2.8540	 4.3360
 2.8550	 4.2340
 2.8570	 4.3390
 2.8590	 4.4450
 2.8600	 4.6060
 2.8620	 4.4220
 2.8630	 4.3070
 2.8650	 4.4280
 2.8660	 4.5690
 2.8680	 4.5850
 2.8700	 4.4860
 2.8710	 4.3170
 2.8730	 4.5210
 2.8740	 4.5520
 2.8760	 4.4230
 2.8780	 4.4370
 2.8790	 4.5570
 2.8810	 4.4370
 2.8820	 4.3820
 2.8840	 4.5180
 2.8860	 4.6650
 2.8870	 4.5190
 2.8890	 4.4410
 2.8900	 4.2590
 2.8920	 4.2330
 2.8940	 4.3640
 2.8950	 4.5630
 2.8970	 4.4690
 2.8980	 4.4900
 2.9000	 4.5300
 2.9020	 4.5220
 2.9030	 4.5950
 2.9050	 4.6500
 2.9070	 4.5240
 2.9080	 4.4100
 2.9100	 4.2760
 2.9120	 4.3690
 2.9130	 4.5430
 2.9150	 4.7110
 2.9160	 4.5410
 2.9180	 4.4520
 2.9200	 4.4350
 2.9210	 4.5520
 2.9230	 4.5420
 2.9250	 4.4150
 2.9260	 4.4360
 2.9280	 4.4710
 2.9300	 4.2560
 2.9310	 4.2040
 2.9330	 4.4580
 2.9350	 4.6450
 2.9360	 4.5240
 2.9380	 4.4950
 2.9400	 4.4500
 2.9410	 4.5590
 2.9430	 4.6480
 2.9450	 4.5190
 2.9460	 4.4050
 2.9480	 4.2720
 2.9500	 4.1960
 2.9510	 4.3770
 2.9530	 4.3260
 2.9550	 4.2580
 2.9560	 3.9750
 2.9580	 4.2240
 2.9600	 4.4430
 2.9610	 4.3990
 2.9630	 4.8250
 2.9650	 5.6200
 2.9660	 4.7510
 2.9680	 3.9380
 2.9700	 4.4980
 2.9720	 5.0270
 2.9730	 4.9290
 2.9750	 5.0220
 2.9770	 4.7260
 2.9780	 4.1030
 2.9800	 4.2440
 2.9820	 4.9620
 2.9840	 4.1730
 2.9850	 3.7380
 2.9870	 3.7880
 2.9890	 3.8880
 2.9900	 4.6230
 2.9920	 5.1410
 2.9940	 4.7550
 2.9960	 4.8030
 2.9970	 4.1870
 2.9990	 4.0850
 3.0010	 4.2190
 3.0030	 4.4210
 3.0040	 4.5970
 3.0060	 4.6490
 3.0080	 4.4010
 3.0100	 4.8300
 3.0110	 4.6490
 3.0130	 4.5060
 3.0150	 5.1240
 3.0170	 5.4440
 3.0180	 5.1640
 3.0200	 4.2640
 3.0220	 3.9360
 3.0240	 4.4720
 3.0250	 4.1680
 3.0270	 3.9080
 3.0290	 4.3040
 3.0310	 4.2810
 3.0320	 4.3750
 3.0340	 4.8350
 3.0360	 4.6280
 3.0380	 4.4940
 3.0400	 4.1800
 3.0410	 3.9240
 3.0430	 4.2620
 3.0450	 4.7280
 3.0470	 4.6150
 3.0480	 4.5480
 3.0500	 4.7850
 3.0520	 4.7740
 3.0540	 4.3080
 3.0560	 4.1270
 3.0570	 3.9090
 3.0590	 4.4060
 3.0610	 4.2730
 3.0630	 3.7540
 3.0650	 4.0080
 3.0660	 4.4500
 3.0680	 4.7170
 3.0700	 4.6950
 3.0720	 4.4840
 3.0740	 4.2150
 3.0760	 4.3450
 3.0770	 4.6230
 3.0790	 4.5830
 3.0810	 4.5950
 3.0830	 4.5490
 3.0850	 4.7250
 3.0870	 4.6810
 3.0880	 4.5370
 3.0900	 4.4690
 3.0920	 4.5250
 3.0940	 4.6550
 3.0960	 4.9370
 3.0980	 4.8620
 3.0990	 4.6390
 3.1010	 4.5170
 3.1030	 4.7680
 3.1050	 4.6930
 3.1070	 4.6430
 3.1090	 4.5390
 3.1110	 4.4030
 3.1120	 4.3790
 3.1140	 4.3620
 3.1160	 4.3130
 3.1180	 4.4580
 3.1200	 4.5390
 3.1220	 4.3600
 3.1240	 4.1590
 3.1260	 4.2840
 3.1270	 4.3300
 3.1290	 4.3190
 3.1310	 4.2890
 3.1330	 4.5220
 3.1350	 4.6290
 3.1370	 4.5110
 3.1390	 4.4860
 3.1410	 4.4200
 3.1430	 4.2210
 3.1450	 4.4340
 3.1460	 4.4780
 3.1480	 4.5080
 3.1500	 4.5900
 3.1520	 4.8240
 3.1540	 4.6330
 3.1560	 4.7550
 3.1580	 4.7420
 3.1600	 4.4450
 3.1620	 3.9330
 3.1640	 3.6590
 3.1660	 3.8980
 3.1680	 4.3090
 3.1700	 4.4330
 3.1710	 4.2230
 3.1730	 4.3680
 3.1750	 4.9420
 3.1770	 4.7220
 3.1790	 4.3600
 3.1810	 4.6070
 3.1830	 4.8900
 3.1850	 4.5380
 3.1870	 4.1140
 3.1890	 4.1440
 3.1910	 4.2970
 3.1930	 4.4840
 3.1950	 4.7130
 3.1970	 4.7630
 3.1990	 4.6930
 3.2010	 4.5240
 3.2030	 4.5120
 3.2050	 4.7080
 3.2070	 4.7050
 3.2090	 4.5100
 3.2110	 4.5250
 3.2130	 4.5400
 3.2150	 4.5450
 3.2170	 4.4780
 3.2190	 4.4700
 3.2210	 4.6340
 3.2230	 4.7210
 3.2250	 4.5600
 3.2270	 4.4950
 3.2290	 4.5100
 3.2310	 4.4820
 3.2330	 4.4050
 3.2350	 4.3390
 3.2370	 4.3120
 3.2390	 4.4150
 3.2410	 4.3100
 3.2430	 4.2280
 3.2450	 4.3100
 3.2470	 4.4620
 3.2490	 4.6430
 3.2510	 4.5890
 3.2530	 4.3070
 3.2550	 4.1560
 3.2570	 4.2300
 3.2590	 4.3910
 3.2610	 4.4220
 3.2630	 4.3760
 3.2650	 4.2790
 3.2670	 4.3760
 3.2690	 4.3370
 3.2720	 4.3720
 3.2740	 4.3970
 3.2760	 4.4270
 3.2780	 4.4300
 3.2800	 4.3910
 3.2820	 4.3410
 3.2840	 4.4220
 3.2860	 4.4780
 3.2880	 4.4750
 3.2900	 4.3210
 3.2920	 4.2050
 3.2940	 4.3460
 3.2960	 4.4110
 3.2990	 4.2480
 3.3010	 4.3060
 3.3030	 4.3920
 3.3050	 4.3710
 3.3070	 4.3340
 3.3090	 4.4070
 3.3110	 4.3200
 3.3130	 4.2620
 3.3150	 4.1910
 3.3180	 4.2600
 3.3200	 4.3260
 3.3220	 4.2560
 3.3240	 4.0850
 3.3260	 4.1200
 3.3280	 4.1310
 3.3300	 4.2160
 3.3330	 4.2140
 3.3350	 4.2020
 3.3370	 4.0540
 3.3390	 4.0330
 3.3410	 4.0760
 3.3430	 4.1440
 3.3450	 4.1290
 3.3480	 4.0660
 3.3500	 3.8500
 3.3520	 3.8740
 3.3540	 3.9580
 3.3560	 3.9990
 3.3580	 3.9130
 3.3610	 3.9060
 3.3630	 3.8710
 3.3650	 3.7430
 3.3670	 3.7110
 3.3690	 3.9620
 3.3720	 4.0040
 3.3740	 4.0030
 3.3760	 3.9740
 3.3780	 3.8130
 3.3800	 3.8000
 3.3830	 3.9290
 3.3850	 3.9190
 3.3870	 3.8660
 3.3890	 3.7930
 3.3910	 3.8750
 3.3940	 3.8200
 3.3960	 3.6880
 3.3980	 3.7290
 3.4000	 3.8810
 3.4020	 3.8740
 3.4050	 3.8590
 3.4070	 3.9040
 3.4090	 4.2290
 3.4110	 4.5310
 3.4140	 4.7390
 3.4160	 5.2110
 3.4180	 5.9060
 3.4200	 6.8000
 3.4230	 8.0030
 3.4250	 9.3970
 3.4270	10.8860
 3.4290	11.7230
 3.4320	11.3180
 3.4340	10.0810
 3.4360	 8.9210
 3.4390	 8.1020
 3.4410	 7.5950
 3.4430	 7.2890
 3.4450	 7.1540
 3.4480	 6.8860
 3.4500	 6.7480
 3.4520	 6.7550
 3.4550	 6.6920
 3.4570	 6.6250
 3.4590	 6.4460
 3.4620	 6.1280
 3.4640	 5.9810
 3.4660	 5.9430
 3.4680	 5.9500
 3.4710	 5.7530
 3.4730	 5.5230
 3.4750	 5.3790
 3.4780	 5.4930
 3.4800	 5.5130
 3.4820	 5.3450
 3.4850	 5.1110
 3.4870	 4.9890
 3.4890	 4.9210
 3.4920	 4.9580
 3.4940	 4.9380
 3.4970	 4.9450
 3.4990	 5.0540
 3.5010	 5.2910
 3.5040	 5.6770
 3.5060	 6.7220
 3.5080	 8.6210
 3.5110	10.3800
 3.5130	10.5330
 3.5160	 9.4440
 3.5180	 8.3790
 3.5200	 7.7850
 3.5230	 7.3180
 3.5250	 7.0130
 3.5270	 6.6970
 3.5300	 6.4490
 3.5320	 6.2670
 3.5350	 6.1490
 3.5370	 6.0250
 3.5400	 5.9540
 3.5420	 5.9940
 3.5440	 6.0570
 3.5470	 6.0060
 3.5490	 6.0000
 3.5520	 5.8750
 3.5540	 5.6950
 3.5570	 5.7060
 3.5590	 5.7730
 3.5610	 5.7320
 3.5640	 5.7780
 3.5660	 5.7490
 3.5690	 5.6700
 3.5710	 5.7000
 3.5740	 5.7990
 3.5760	 5.7600
 3.5790	 5.8110
 3.5810	 5.6780
 3.5840	 5.6700
 3.5860	 5.4210
 3.5890	 5.1970
 3.5910	 5.1660
 3.5930	 5.2620
 3.5960	 5.3190
 3.5980	 5.4520
 3.6010	 5.6730
 3.6030	 5.6910
 3.6060	 5.4480
 3.6080	 5.3480
 3.6110	 5.4090
 3.6140	 5.5260
 3.6160	 5.5920
 3.6190	 5.5220
 3.6210	 5.4890
 3.6240	 5.5600
 3.6260	 5.4620
 3.6290	 5.4040
 3.6310	 5.3540
 3.6340	 5.3860
 3.6360	 5.4170
 3.6390	 5.4370
 3.6410	 5.3670
 3.6440	 5.3890
 3.6470	 5.3800
 3.6490	 5.3840
 3.6520	 5.3200
 3.6540	 5.3030
 3.6570	 5.2570
 3.6590	 5.2670
 3.6620	 5.3760
 3.6650	 5.4290
 3.6670	 5.3550
 3.6700	 5.4240
 3.6720	 5.4460
 3.6750	 5.4160
 3.6780	 5.3380
 3.6800	 5.2620
 3.6830	 5.2530
 3.6850	 5.4090
 3.6880	 5.5130
 3.6910	 5.4700
 3.6930	 5.3550
 3.6960	 5.3350
 3.6990	 5.3600
 3.7010	 5.3780
 3.7040	 5.2970
 3.7060	 5.3320
 3.7090	 5.3270
 3.7120	 5.2750
 3.7140	 5.3160
 3.7170	 5.3110
 3.7200	 5.3260
 3.7220	 5.4130
 3.7250	 5.3550
 3.7280	 5.3100
 3.7300	 5.2990
 3.7330	 5.2900
 3.7360	 5.3000
 3.7390	 5.2750
 3.7410	 5.2260
 3.7440	 5.3000
 3.7470	 5.2720
 3.7490	 5.1860
 3.7520	 5.2450
 3.7550	 5.3850
 3.7580	 5.3290
 3.7600	 5.3560
 3.7630	 5.4100
 3.7660	 5.3980
 3.7680	 5.2960
 3.7710	 5.3030
 3.7740	 5.3390
 3.7770	 5.3470
 3.7790	 5.3140
 3.7820	 5.3380
 3.7850	 5.3370
 3.7880	 5.3960
 3.7900	 5.3780
 3.7930	 5.2970
 3.7960	 5.3100
 3.7990	 5.3440
 3.8020	 5.3500
 3.8040	 5.4570
 3.8070	 5.4070
 3.8100	 5.3630
 3.8130	 5.4120
 3.8160	 5.4080
 3.8180	 5.3710
 3.8210	 5.3510
 3.8240	 5.3030
 3.8270	 5.3190
 3.8300	 5.3600
 3.8330	 5.4180
 3.8350	 5.4360
 3.8380	 5.4300
 3.8410	 5.4380
 3.8440	 5.4510
 3.8470	 5.4460
 3.8500	 5.4200
 3.8520	 5.3840
 3.8550	 5.3870
 3.8580	 5.3960
 3.8610	 5.4670
 3.8640	 5.4190
 3.8670	 5.3110
 3.8700	 5.3300
 3.8730	 5.3720
 3.8750	 5.3580
 3.8780	 5.3380
 3.8810	 5.2510
 3.8840	 5.3210
 3.8870	 5.3890
 3.8900	 5.4090
 3.8930	 5.4300
 3.8960	 5.3930
 3.8990	 5.3860
 3.9020	 5.4280
 3.9050	 5.3200
 3.9080	 5.3520
 3.9110	 5.4600
 3.9140	 5.4600
 3.9160	 5.4200
 3.9190	 5.4600
 3.9220	 5.4430
 3.9250	 5.4320
 3.9280	 5.4250
 3.9310	 5.3580
 3.9340	 5.3650
 3.9370	 5.3820
 3.9400	 5.3330
 3.9430	 5.4490
 3.9460	 5.5060
 3.9490	 5.4790
 3.9520	 5.5080
 3.9550	 5.5770
 3.9580	 5.5490
 3.9610	 5.5340
 3.9640	 5.4590
 3.9670	 5.4490
 3.9700	 5.5020
 3.9730	 5.5180
 3.9770	 5.4480
 3.9800	 5.4760
 3.9830	 5.5230
 3.9860	 5.5290
 3.9890	 5.4410
 3.9920	 5.4620
 3.9950	 5.4560
 3.9980	 5.4290
 4.0010	 5.4490
 4.0040	 5.5210
 4.0070	 5.4550
 4.0100	 5.4740
 4.0130	 5.4700
 4.0170	 5.4140
 4.0200	 5.4230
 4.0230	 5.4830
 4.0260	 5.5110
 4.0290	 5.5530
 4.0320	 5.5170
 4.0350	 5.5400
 4.0380	 5.4980
 4.0420	 5.5050
 4.0450	 5.5160
 4.0480	 5.5380
 4.0510	 5.5820
 4.0540	 5.6130
 4.0570	 5.5260
 4.0610	 5.5010
 4.0640	 5.4780
 4.0670	 5.5540
 4.0700	 5.5060
 4.0730	 5.4990
 4.0770	 5.5000
 4.0800	 5.4180
 4.0830	 5.4120
 4.0860	 5.4260
 4.0890	 5.3270
 4.0930	 5.4100
 4.0960	 5.4830
 4.0990	 5.4970
 4.1020	 5.5080
 4.1060	 5.4790
 4.1090	 5.4650
 4.1120	 5.4010
 4.1150	 5.3950
 4.1190	 5.4290
 4.1220	 5.3710
 4.1250	 5.3670
 4.1280	 5.4100
 4.1320	 5.4330
 4.1350	 5.4200
 4.1380	 5.5120
 4.1420	 5.5920
 4.1450	 5.5070
 4.1480	 5.4830
 4.1520	 5.4960
 4.1550	 5.4700
 4.1580	 5.4620
 4.1620	 5.4070
 4.1650	 5.4040
 4.1680	 5.3980
 4.1720	 5.3880
 4.1750	 5.3830
 4.1780	 5.3870
 4.1820	 5.3870
 4.1850	 5.3830
 4.1890	 5.4300
 4.1920	 5.4520
 4.1950	 5.4030
 4.1990	 5.4570
 4.2020	 5.4930
 4.2060	 5.5210
 4.2090	 5.6420
 4.2120	 5.8230
 4.2160	 5.8910
 4.2190	 5.7970
 4.2230	 5.8600
 4.2260	 6.0970
 4.2300	 6.2750
 4.2330	 6.2200
 4.2360	 6.3580
 4.2400	 6.3660
 4.2430	 6.1610
 4.2470	 5.9540
 4.2500	 5.7610
 4.2540	 5.8600
 4.2570	 6.0130
 4.2610	 6.1580
 4.2640	 6.1090
 4.2680	 6.0730
 4.2710	 6.3060
 4.2750	 6.2340
 4.2780	 6.0860
 4.2820	 6.1510
 4.2850	 6.2130
 4.2890	 6.1900
 4.2930	 5.9410
 4.2960	 6.0580
 4.3000	 6.0270
 4.3030	 5.8320
 4.3070	 5.7100
 4.3100	 5.6660
 4.3140	 5.4510
 4.3180	 5.4300
 4.3210	 5.5450
 4.3250	 5.6030
 4.3280	 5.6050
 4.3320	 5.5290
 4.3360	 5.4520
 4.3390	 5.4450
 4.3430	 5.4200
 4.3470	 5.3860
 4.3500	 5.3930
 4.3540	 5.4090
 4.3570	 5.3520
 4.3610	 5.2980
 4.3650	 5.2910
 4.3680	 5.2830
 4.3720	 5.2060
 4.3760	 5.1510
 4.3800	 5.2170
 4.3830	 5.2920
 4.3870	 5.2780
 4.3910	 5.2710
 4.3940	 5.2590
 4.3980	 5.3210
 4.4020	 5.2860
 4.4060	 5.2160
 4.4090	 5.1660
 4.4130	 5.2000
 4.4170	 5.1840
 4.4210	 5.1790
 4.4240	 5.2500
 4.4280	 5.2170
 4.4320	 5.1390
 4.4360	 5.1440
 4.4400	 5.1110
 4.4430	 5.0790
 4.4470	 5.1770
 4.4510	 5.2110
 4.4550	 5.1740
 4.4590	 5.1160
 4.4620	 5.1510
 4.4660	 5.1810
 4.4700	 5.1780
 4.4740	 5.1740
 4.4780	 5.1830
 4.4820	 5.1120
 4.4860	 5.0670
 4.4900	 5.1350
 4.4930	 5.1560
 4.4970	 5.0970
 4.5010	 5.0310
 4.5050	 5.0510
 4.5090	 5.0950
 4.5130	 5.0980
 4.5170	 5.0820
 4.5210	 5.0760
 4.5250	 5.1150
 4.5290	 5.1340
 4.5330	 5.1080
 4.5370	 5.0230
 4.5410	 4.9750
 4.5450	 4.9900
 4.5490	 5.0170
 4.5530	 5.1060
 4.5570	 5.1150
 4.5610	 5.0810
 4.5650	 5.0790
 4.5690	 5.0190
 4.5730	 4.9980
 4.5770	 5.1010
 4.5810	 5.1870
 4.5850	 5.1510
 4.5890	 5.0570
 4.5930	 5.0550
 4.5970	 5.0740
 4.6010	 5.0110
 4.6050	 5.0440
 4.6090	 5.1350
 4.6130	 5.1080
 4.6170	 5.0610
 4.6220	 4.9650
 4.6260	 4.9100
 4.6300	 4.9560
 4.6340	 5.0210
 4.6380	 5.0160
 4.6420	 4.9940
 4.6460	 5.1030
 4.6510	 5.1510
 4.6550	 5.1230
 4.6590	 5.0170
 4.6630	 4.9310
 4.6670	 4.9760
 4.6720	 5.0740
 4.6760	 5.1420
 4.6800	 5.0780
 4.6840	 4.9450
 4.6880	 5.0000
 4.6930	 5.0810
 4.6970	 5.0770
 4.7010	 5.0920
 4.7050	 4.9730
 4.7100	 4.9670
 4.7140	 5.0660
 4.7180	 5.0600
 4.7230	 4.9940
 4.7270	 4.9750
 4.7310	 4.9850
 4.7360	 5.0030
 4.7400	 5.0340
 4.7440	 5.0520
 4.7490	 4.9490
 4.7530	 4.8910
 4.7570	 4.9400
 4.7620	 4.9810
 4.7660	 4.9590
 4.7700	 4.9790
 4.7750	 5.0330
 4.7790	 5.0550
 4.7840	 5.0200
 4.7880	 5.0280
 4.7920	 5.0250
 4.7970	 5.0030
 4.8010	 4.8980
 4.8060	 4.8780
 4.8100	 4.9410
 4.8150	 4.9300
 4.8190	 4.9810
 4.8240	 5.0610
 4.8280	 5.0430
 4.8330	 5.0300
 4.8370	 4.9840
 4.8420	 4.9430
 4.8460	 4.9580
 4.8510	 5.0320
 4.8550	 5.1050
 4.8600	 5.1130
 4.8640	 5.0540
 4.8690	 5.0200
 4.8730	 5.0440
 4.8780	 5.0790
 4.8830	 5.0420
 4.8870	 5.0100
 4.8920	 5.0020
 4.8960	 5.0490
 4.9010	 5.0910
 4.9060	 5.0360
 4.9100	 5.0800
 4.9150	 5.1000
 4.9200	 5.0490
 4.9240	 4.9830
 4.9290	 4.9990
 4.9340	 5.0310
 4.9380	 5.0240
 4.9430	 5.0700
 4.9480	 5.0260
 4.9530	 4.9490
 4.9570	 4.9710
 4.9620	 5.0570
 4.9670	 5.0770
 4.9720	 5.0370
 4.9760	 4.9880
 4.9810	 4.9860
 4.9860	 5.0430
 4.9910	 4.9890
 4.9960	 4.9990
 5.0000	 5.0760
 5.0050	 5.0900
 5.0100	 5.1200
 5.0150	 5.1210
 5.0200	 5.1340
 5.0250	 5.1100
 5.0290	 5.0730
 5.0340	 5.1210
 5.0390	 5.0890
 5.0440	 5.0600
 5.0490	 5.1020
 5.0540	 5.0810
 5.0590	 5.0760
 5.0640	 5.1060
 5.0690	 5.0780
 5.0740	 5.0800
 5.0790	 5.1170
 5.0840	 5.1960
 5.0890	 5.1640
 5.0940	 5.0750
 5.0990	 5.0240
 5.1040	 5.0620
 5.1090	 5.0790
 5.1140	 5.1050
 5.1190	 5.0860
 5.1240	 5.0910
 5.1290	 5.1160
 5.1340	 5.0740
 5.1390	 5.0480
 5.1440	 5.0630
 5.1490	 5.0970
 5.1540	 5.1220
 5.1600	 5.0510
 5.1650	 5.0110
 5.1700	 5.0090
 5.1750	 5.0900
 5.1800	 5.1110
 5.1850	 5.0920
 5.1910	 5.0970
 5.1960	 5.1420
 5.2010	 5.0800
 5.2060	 5.0650
 5.2110	 5.1520
 5.2170	 5.1450
 5.2220	 5.0230
 5.2270	 5.0080
 5.2320	 5.0450
 5.2380	 5.0370
 5.2430	 4.9760
 5.2480	 4.9800
 5.2540	 4.9550
 5.2590	 4.9460
 5.2640	 4.9820
 5.2700	 5.0780
 5.2750	 5.0800
 5.2800	 5.0560
 5.2860	 5.0860
 5.2910	 5.1480
 5.2970	 5.0190
 5.3020	 4.9760
 5.3070	 4.9540
 5.3130	 4.9240
 5.3180	 4.9540
 5.3240	 4.9840
 5.3290	 4.9850
 5.3350	 5.0740
 5.3400	 5.0110
 5.3460	 4.9570
 5.3510	 4.9070
 5.3570	 4.9220
 5.3620	 4.9520
 5.3680	 4.9640
 5.3730	 4.9070
 5.3790	 4.9170
 5.3850	 4.9040
 5.3900	 4.8800
 5.3960	 4.8680
 5.4010	 4.8500
 5.4070	 4.8180
 5.4130	 4.8280
 5.4180	 4.7990
 5.4240	 4.8200
 5.4300	 4.8680
 5.4350	 4.8960
 5.4410	 4.8270
 5.4470	 4.8430
 5.4530	 4.7860
 5.4580	 4.8070
 5.4640	 4.8070
 5.4700	 4.8220
 5.4760	 4.8200
 5.4810	 4.7870
 5.4870	 4.7680
 5.4930	 4.6870
 5.4990	 4.5730
 5.5050	 4.6020
 5.5110	 4.6770
 5.5160	 4.7410
 5.5220	 4.7250
 5.5280	 4.6570
 5.5340	 4.6140
 5.5400	 4.6060
 5.5460	 4.5200
 5.5520	 4.5560
 5.5580	 4.5890
 5.5640	 4.5330
 5.5700	 4.4490
 5.5760	 4.4260
 5.5820	 4.4200
 5.5880	 4.5220
 5.5940	 4.4980
 5.6000	 4.3630
 5.6060	 4.2970
 5.6120	 4.3600
 5.6180	 4.3330
 5.6240	 4.2600
 5.6300	 4.2380
 5.6360	 4.2740
 5.6420	 4.1880
 5.6490	 4.1370
 5.6550	 4.0280
 5.6610	 4.0120
 5.6670	 4.0090
 5.6730	 4.0390
 5.6800	 3.9330
 5.6860	 3.8240
 5.6920	 3.7700
 5.6980	 3.7840
 5.7040	 3.7280
 5.7110	 3.7210
 5.7170	 3.7210
 5.7230	 3.7400
 5.7300	 3.6530
 5.7360	 3.6600
 5.7420	 3.6170
 5.7490	 3.6000
 5.7550	 3.6330
 5.7620	 3.8020
 5.7680	 3.9230
 5.7740	 4.0200
 5.7810	 4.1130
 5.7870	 4.2020
 5.7940	 4.2240
 5.8000	 4.3280
 5.8070	 4.4140
 5.8130	 4.5950
 5.8200	 4.6710
 5.8260	 4.7320
 5.8330	 4.7120
 5.8390	 4.7530
 5.8460	 4.7810
 5.8530	 4.8310
 5.8590	 4.8590
 5.8660	 4.9510
 5.8720	 5.0640
 5.8790	 5.1460
 5.8860	 5.1360
 5.8920	 5.2100
 5.8990	 5.2200
 5.9060	 5.2120
 5.9130	 5.2680
 5.9190	 5.3630
 5.9260	 5.3470
 5.9330	 5.2980
 5.9400	 5.1860
 5.9470	 5.2180
 5.9530	 5.2590
 5.9600	 5.2280
 5.9670	 5.2230
 5.9740	 5.2550
 5.9810	 5.1920
 5.9880	 5.2100
 5.9950	 5.1120
 6.0020	 5.0470
 6.0090	 4.9750
 6.0160	 4.8930
 6.0230	 4.8250
 6.0300	 4.8390
 6.0370	 4.8090
 6.0440	 4.8330
 6.0510	 4.7230
 6.0580	 4.8400
 6.0650	 5.0330
 6.0720	 5.1060
 6.0790	 4.9990
 6.0860	 5.0210
 6.0930	 5.0650
 6.1000	 5.0940
 6.1080	 5.1530
 6.1150	 5.3370
 6.1220	 5.2300
 6.1290	 5.0850
 6.1370	 5.0360
 6.1440	 5.1360
 6.1510	 5.1220
 6.1580	 5.1150
 6.1660	 5.0610
 6.1730	 4.9940
 6.1800	 4.9270
 6.1880	 4.8900
 6.1950	 4.8240
 6.2030	 4.8540
 6.2100	 4.8230
 6.2170	 4.9450
 6.2250	 4.9440
 6.2320	 4.9290
 6.2400	 4.9000
 6.2470	 4.9650
 6.2550	 5.0470
 6.2630	 4.9610
 6.2700	 4.8410
 6.2780	 5.0080
 6.2850	 5.0090
 6.2930	 4.9550
 6.3010	 4.9600
 6.3080	 5.1420
 6.3160	 5.2020
 6.3240	 5.2510
 6.3310	 5.1440
 6.3390	 5.0310
 6.3470	 4.9560
 6.3550	 5.0140
 6.3620	 5.0830
 6.3700	 5.2190
 6.3780	 5.2350
 6.3860	 5.2040
 6.3940	 5.0730
 6.4020	 5.0770
 6.4100	 5.1020
 6.4180	 5.1590
 6.4260	 5.1920
 6.4330	 5.2750
 6.4410	 5.1980
 6.4490	 5.1420
 6.4580	 5.0840
 6.4660	 5.1200
 6.4740	 5.0460
 6.4820	 5.0600
 6.4900	 4.9760
 6.4980	 5.0510
 6.5060	 5.0960
 6.5140	 5.0230
 6.5230	 4.9040
 6.5310	 4.9660
 6.5390	 4.9160
 6.5470	 4.7990
 6.5550	 4.7210
 6.5640	 4.6860
 6.5720	 4.5260
 6.5800	 4.4960
 6.5890	 4.3810
 6.5970	 4.3960
 6.6060	 4.4100
 6.6140	 4.5350
 6.6220	 4.6240
 6.6310	 4.6500
 6.6390	 4.5940
 6.6480	 4.6580
 6.6560	 4.6970
 6.6650	 4.7650
 6.6740	 4.7600
 6.6820	 4.8350
 6.6910	 4.7790
 6.6990	 4.7650
 6.7080	 4.7330
 6.7170	 4.7280
 6.7260	 4.6700
 6.7340	 4.7160
 6.7430	 4.6090
 6.7520	 4.5530
 6.7610	 4.5170
 6.7690	 4.4810
 6.7780	 4.6000
 6.7870	 5.1200
 6.7960	 5.1890
 6.8050	 4.8640
 6.8140	 4.6750
 6.8230	 4.7690
 6.8320	 5.1270
 6.8410	 5.4900
 6.8500	 5.2040
 6.8590	 4.9420
 6.8680	 4.8810
 6.8770	 4.9490
 6.8860	 4.8360
 6.8950	 4.8520
 6.9050	 4.8260
 6.9140	 4.8580
 6.9230	 4.8170
 6.9320	 4.8990
 6.9420	 4.9100
 6.9510	 4.8990
 6.9600	 4.8830
 6.9700	 4.9930
 6.9790	 4.9610
 6.9880	 4.8700
 6.9980	 4.7870
 7.0070	 4.9550
 7.0170	 4.9130
 7.0260	 4.9180
 7.0360	 4.8510
 7.0450	 4.8940
 7.0550	 4.8570
 7.0650	 4.9570
 7.0740	 4.9460
 7.0840	 4.9770
 7.0940	 4.9370
 7.1030	 5.0180
 7.1130	 5.0240
 7.1230	 4.9840
 7.1330	 4.8270
 7.1420	 4.8490
 7.1520	 4.8410
 7.1620	 4.8100
 7.1720	 4.7820
 7.1820	 4.7950
 7.1920	 4.7200
 7.2020	 4.7230
 7.2120	 4.7110
 7.2220	 4.8250
 7.2320	 4.7770
 7.2420	 4.6760
 7.2520	 4.5470
 7.2620	 4.6700
 7.2730	 4.6240
 7.2830	 4.5820
 7.2930	 4.4250
 7.3030	 4.4420
 7.3140	 4.4000
 7.3240	 4.5230
 7.3340	 4.5930
 7.3450	 4.6980
 7.3550	 4.6850
 7.3660	 4.7920
 7.3760	 4.7130
 7.3870	 4.8000
 7.3970	 4.7490
 7.4080	 4.7680
 7.4180	 4.7150
 7.4290	 4.8010
 7.4400	 4.7380
 7.4500	 4.6850
 7.4610	 4.5810
 7.4720	 4.6690
 7.4830	 4.7060
 7.4930	 4.7910
 7.5040	 4.6440
 7.5150	 4.5380
 7.5260	 4.5550
 7.5370	 4.6700
 7.5480	 4.5890
 7.5590	 4.5740
 7.5700	 4.3920
 7.5810	 4.4230
 7.5920	 4.4810
 7.6030	 4.5910
 7.6140	 4.5200
 7.6260	 4.4890
 7.6370	 4.4670
 7.6480	 4.4980
 7.6590	 4.3920
 7.6710	 4.4380
 7.6820	 4.4820
 7.6930	 4.4930
 7.7050	 4.3690
 7.7160	 4.3840
 7.7280	 4.3760
 7.7390	 4.4100
 7.7510	 4.2120
 7.7630	 4.2500
 7.7740	 4.2140
 7.7860	 4.2310
 7.7980	 4.1760
 7.8090	 4.2440
 7.8210	 4.3120
 7.8330	 4.4050
 7.8450	 4.3110
 7.8570	 4.3330
 7.8690	 4.2870
 7.8810	 4.3820
 7.8930	 4.2970
 7.9050	 4.4250
 7.9170	 4.3860
 7.9290	 4.4800
 7.9410	 4.4790
 7.9530	 4.5740
 7.9650	 4.6030
 7.9780	 4.5190
 7.9900	 4.3960
 8.0020	 4.5030
 8.0150	 4.4610
 8.0270	 4.5670
 8.0390	 4.4890
 8.0520	 4.5280
 8.0640	 4.4320
 8.0770	 4.4500
 8.0900	 4.4310
 8.1020	 4.6310
 8.1150	 4.6870
 8.1280	 4.7230
 8.1400	 4.5620
 8.1530	 4.5870
 8.1660	 4.5210
 8.1790	 4.5540
 8.1920	 4.4670
 8.2050	 4.5500
 8.2180	 4.4820
 8.2310	 4.5300
 8.2440	 4.4510
 8.2570	 4.5460
 8.2700	 4.5000
 8.2830	 4.6650
 8.2970	 4.5540
 8.3100	 4.6510
 8.3230	 4.5820
 8.3370	 4.6260
 8.3500	 4.6480
 8.3640	 4.8170
 8.3770	 4.6310
 8.3910	 4.6040
 8.4040	 4.5830
 8.4180	 4.7710
 8.4320	 4.7560
 8.4450	 4.7950
 8.4590	 4.6420
 8.4730	 4.7320
 8.4870	 4.6880
 8.5010	 4.9800
 8.5150	 5.0770
 8.5290	 5.1320
 8.5430	 5.0870
 8.5570	 5.2410
 8.5710	 5.3360
 8.5850	 5.6070
 8.5990	 5.6370
 8.6140	 5.7090
 8.6280	 5.6210
 8.6420	 5.7100
 8.6570	 5.6000
 8.6710	 5.6920
 8.6860	 5.6370
 8.7000	 5.8080
 8.7150	 5.8510
 8.7300	 5.7080
 8.7440	 5.5140
 8.7590	 5.7560
 8.7740	 5.7020
 8.7890	 5.6570
 8.8040	 5.5540
 8.8190	 5.7450
 8.8340	 5.6210
 8.8490	 5.5710
 8.8640	 5.4560
 8.8790	 5.6250
 8.8940	 5.7090
 8.9100	 5.8980
 8.9250	 5.6900
 8.9400	 5.6130
 8.9560	 5.4340
 8.9710	 5.6750
 8.9870	 5.7090
 9.0020	 5.9250
 9.0180	 5.7010
 9.0340	 5.5850
 9.0500	 5.6590
 9.0650	 5.9460
 9.0810	 5.8580
 9.0970	 5.8950
 9.1130	 5.6730
 9.1290	 5.7700
 9.1450	 5.6310
 9.1610	 5.7840
 9.1780	 5.7610
 9.1940	 5.8740
 9.2100	 5.7120
 9.2270	 5.7330
 9.2430	 5.5830
 9.2600	 5.8780
 9.2760	 5.8890
 9.2930	 5.9630
 9.3090	 5.8670
 9.3260	 6.0100
 9.3430	 5.9810
 9.3600	 6.2830
 9.3770	 6.1750
 9.3940	 6.2450
 9.4110	 6.1320
 9.4280	 6.2930
 9.4450	 6.2130
 9.4620	 6.2050
 9.4800	 6.1930
 9.4970	 6.3550
 9.5140	 6.1780
 9.5320	 6.2100
 9.5500	 6.2140
 9.5670	 6.3490
 9.5850	 6.1880
 9.6030	 6.2500
 9.6200	 6.1570
 9.6380	 6.2290
 9.6560	 6.1640
 9.6740	 6.3450
 9.6920	 6.1890
 9.7100	 6.1550
 9.7290	 6.0380
 9.7470	 6.1440
 9.7650	 6.0860
 9.7840	 6.1600
 9.8020	 5.9550
 9.8210	 6.2360
 9.8390	 6.3370
 9.8580	 6.0490
 9.8770	 5.7150
 9.8960	 5.9510
 9.9150	 5.9040
 9.9340	 5.9850
 9.9530	 5.7740
 9.9720	 5.9530
 9.9910	 5.8710
10.0100	 5.8900
10.0300	 5.7740
10.0490	 5.9380
10.0690	 5.7560
10.0880	 5.6200
10.1080	 5.5430
10.1280	 5.7700
10.1480	 5.5920
10.1670	 5.6640
10.1870	 5.5160
10.2070	 5.5660
10.2280	 5.4470
10.2480	 5.5720
10.2680	 5.3850
10.2890	 5.4410
10.3090	 5.4960
10.3300	 5.8120
10.3500	 5.7970
10.3710	 6.0310
10.3920	 5.8160
10.4120	 5.8080
10.4330	 5.7060
10.4540	 5.8440
10.4760	 5.7890
10.4970	 5.9300
10.5180	 5.8030
10.5390	 5.9320
10.5610	 5.8730
10.5820	 5.9850
10.6040	 5.9120
10.6260	 6.0090
10.6480	 5.9280
10.6700	 6.1000
10.6920	 6.0920
10.7140	 6.0920
10.7360	 5.8680
10.7580	 6.2580
10.7800	 6.3060
10.8030	 6.2830
10.8250	 5.9960
10.8480	 6.0850
10.8710	 5.9340
10.8940	 6.0340
10.9170	 6.0770
10.9400	 6.2730
10.9630	 6.1850
10.9860	 6.3590
11.0090	 6.3260
11.0330	 6.5160
11.0560	 6.2090
11.0800	 6.3260
11.1040	 6.4110
11.1270	 6.7200
11.1510	 6.4470
11.1750	 6.5170
11.2000	 6.3710
11.2240	 6.6470
11.2480	 6.5910
11.2730	 6.7600
11.2970	 6.9150
11.3220	 7.0930
11.3470	 6.6260
11.3720	 6.6750
11.3970	 6.6740
11.4220	 7.0460
11.4470	 6.9440
11.4720	 6.9180
11.4980	 6.7890
11.5230	 6.9490
11.5490	 6.8010
11.5750	 6.8910
11.6000	 6.7300
11.6260	 6.9320
11.6530	 6.8070
11.6790	 6.9210
11.7050	 6.6550
11.7320	 6.7720
11.7580	 6.7530
11.7850	 6.9540
11.8120	 6.7000
11.8390	 6.6120
11.8660	 6.4030
11.8930	 6.7420
11.9200	 6.6610
11.9480	 6.9180
11.9760	 6.8010
12.0030	 7.1840
12.0310	 7.1540
12.0590	 7.2230
12.0870	 7.0100
12.1150	 7.3570
12.1440	 7.2150
12.1720	 7.4790
12.2010	 7.3830
12.2300	 7.5790
12.2590	 7.6020
12.2880	 7.8050
12.3170	 7.4610
12.3460	 7.7640
12.3760	 7.5530
12.4050	 7.7470
12.4350	 7.6480
12.4650	 7.9280
12.4950	 7.7200
12.5250	 7.8630
12.5550	 7.4350
12.5860	 7.4780
12.6170	 7.2780
12.6470	 7.4940
12.6780	 7.4730
12.7090	 7.6030
12.7410	 7.1720
12.7720	 7.2390
12.8030	 6.9140
12.8350	 7.0870
12.8670	 7.0090
12.8990	 7.2400
12.9310	 6.9590
12.9640	 7.0340
12.9960	 6.8140
13.0290	 6.9650
13.0610	 6.6240
13.0940	 6.7520
13.1280	 6.6540
13.1610	 6.7870
13.1940	 6.4280
13.2280	 6.7140
13.2620	 6.5340
13.2960	 6.6440
13.3300	 6.2860
13.3640	 6.2300
13.3990	 5.6680
13.4340	 5.6390
13.4690	 5.5240
13.5040	 5.9400
13.5390	 5.7090
13.5740	 5.9550
13.6100	 5.5820
13.6460	 5.7120
13.6820	 5.7820
13.7180	 6.1830
13.7540	 6.1420
13.7910	 6.2660
13.8280	 5.7880
13.8650	 5.8330
13.9020	 5.8630
13.9390	 6.4040
13.9770	 5.8780
14.0150	 5.9910
14.0530	 5.4540
14.0910	 5.4160
14.1290	 5.1980
14.1680	 5.7400
14.2070	 5.4070
14.2460	 5.6440
14.2850	 5.1080
14.3240	 5.4670
14.3640	 5.1210
14.4040	 5.2500
14.4440	 4.9780
14.4840	 5.1950
14.5250	 4.5400
14.5660	 5.0520
14.6070	 4.9550
14.6480	 5.4430
14.6900	 4.7010
14.7310	 4.8440
14.7730	 4.4810
14.8150	 4.8400
14.8580	 3.9650
14.9010	 4.1610
14.9440	 4.1620
14.9870	 5.8900
15.0300	 4.6890
15.0740	 4.9570
15.1180	 4.5160
15.1620	 4.7340
15.2060	 3.9970
15.2510	 4.7880
15.2960	 4.1740
15.3410	 4.5130
15.3870	 3.9290
