Name: Salvia leucophylla 2
Type: vegetation
Class: Shrub
Genus: Salvia
Species: leucophylla
Sample No.: VH190
Owner: UCSB
Wavelength Range: VSWIR
Origin: 34.698; -120.0477; WGS84
Collection Date: 6/9/2013
Description: Samples were collected as part of the HyspIRI Airborne Campaign. 48 individual plants were sampled in three times in 2013 - spring  summer  and fall. The name of the sample includes a 1  2  or 3 which references a different individual of the species. Samples were taken to JPL and processed within 48 hours of collection. The same leaves were processed in the Nicolet and then measured using the ASD.
Measurement: Bidirectional reflectance
First Column: X
Second Column: Y
X Units: Wavelength (micrometers)
Y Units: Reflectance (percentage)
First X Value: 0.35
Last X Value: 2.5
Number of X Values: 2151
Additional Information: vegetation.shrub.salvia.leucophylla.vswir.vh190.ucsb.asd.ancillary.txt

 0.3500	 3.8520
 0.3510	 4.0250
 0.3520	 3.8780
 0.3530	 3.7350
 0.3540	 3.8520
 0.3550	 3.9230
 0.3560	 3.8420
 0.3570	 3.7760
 0.3580	 3.9660
 0.3590	 4.0450
 0.3600	 4.0870
 0.3610	 4.1420
 0.3620	 4.1720
 0.3630	 4.1280
 0.3640	 4.1190
 0.3650	 4.2400
 0.3660	 4.3620
 0.3670	 4.3880
 0.3680	 4.4020
 0.3690	 4.5640
 0.3700	 4.6570
 0.3710	 4.7470
 0.3720	 4.8680
 0.3730	 4.9140
 0.3740	 5.0160
 0.3750	 5.1280
 0.3760	 5.1790
 0.3770	 5.2810
 0.3780	 5.3860
 0.3790	 5.4870
 0.3800	 5.6080
 0.3810	 5.6910
 0.3820	 5.8100
 0.3830	 5.9770
 0.3840	 6.0560
 0.3850	 6.1840
 0.3860	 6.3350
 0.3870	 6.4370
 0.3880	 6.5600
 0.3890	 6.6940
 0.3900	 6.8200
 0.3910	 6.9150
 0.3920	 7.0720
 0.3930	 7.1990
 0.3940	 7.2500
 0.3950	 7.3840
 0.3960	 7.5250
 0.3970	 7.6310
 0.3980	 7.6890
 0.3990	 7.7720
 0.4000	 7.8590
 0.4010	 7.9470
 0.4020	 8.0820
 0.4030	 8.1800
 0.4040	 8.2560
 0.4050	 8.3400
 0.4060	 8.4020
 0.4070	 8.4490
 0.4080	 8.4980
 0.4090	 8.5800
 0.4100	 8.6940
 0.4110	 8.7750
 0.4120	 8.8060
 0.4130	 8.8920
 0.4140	 8.9610
 0.4150	 9.0350
 0.4160	 9.1370
 0.4170	 9.1950
 0.4180	 9.2640
 0.4190	 9.3580
 0.4200	 9.4350
 0.4210	 9.5010
 0.4220	 9.5750
 0.4230	 9.6630
 0.4240	 9.7060
 0.4250	 9.7780
 0.4260	 9.8610
 0.4270	 9.9110
 0.4280	 9.9850
 0.4290	10.0550
 0.4300	10.1090
 0.4310	10.1750
 0.4320	10.2520
 0.4330	10.3260
 0.4340	10.3870
 0.4350	10.4570
 0.4360	10.5220
 0.4370	10.5740
 0.4380	10.6150
 0.4390	10.6540
 0.4400	10.7030
 0.4410	10.7650
 0.4420	10.8160
 0.4430	10.8570
 0.4440	10.9010
 0.4450	10.9590
 0.4460	10.9850
 0.4470	11.0200
 0.4480	11.0700
 0.4490	11.1030
 0.4500	11.1370
 0.4510	11.1710
 0.4520	11.2080
 0.4530	11.2480
 0.4540	11.2870
 0.4550	11.3220
 0.4560	11.3500
 0.4570	11.3750
 0.4580	11.4040
 0.4590	11.4370
 0.4600	11.4580
 0.4610	11.4910
 0.4620	11.5230
 0.4630	11.5370
 0.4640	11.5600
 0.4650	11.5840
 0.4660	11.6040
 0.4670	11.6220
 0.4680	11.6450
 0.4690	11.6660
 0.4700	11.6800
 0.4710	11.6960
 0.4720	11.7140
 0.4730	11.7290
 0.4740	11.7360
 0.4750	11.7570
 0.4760	11.7800
 0.4770	11.7970
 0.4780	11.8140
 0.4790	11.8250
 0.4800	11.8400
 0.4810	11.8630
 0.4820	11.8850
 0.4830	11.8990
 0.4840	11.9100
 0.4850	11.9340
 0.4860	11.9570
 0.4870	11.9790
 0.4880	12.0000
 0.4890	12.0210
 0.4900	12.0370
 0.4910	12.0550
 0.4920	12.0800
 0.4930	12.1080
 0.4940	12.1300
 0.4950	12.1490
 0.4960	12.1820
 0.4970	12.2130
 0.4980	12.2450
 0.4990	12.2810
 0.5000	12.3170
 0.5010	12.3560
 0.5020	12.3990
 0.5030	12.4460
 0.5040	12.4920
 0.5050	12.5430
 0.5060	12.6020
 0.5070	12.6640
 0.5080	12.7280
 0.5090	12.7960
 0.5100	12.8730
 0.5110	12.9600
 0.5120	13.0470
 0.5130	13.1340
 0.5140	13.2330
 0.5150	13.3410
 0.5160	13.4520
 0.5170	13.5610
 0.5180	13.6760
 0.5190	13.8000
 0.5200	13.9260
 0.5210	14.0480
 0.5220	14.1790
 0.5230	14.3110
 0.5240	14.4370
 0.5250	14.5690
 0.5260	14.7020
 0.5270	14.8300
 0.5280	14.9470
 0.5290	15.0730
 0.5300	15.1940
 0.5310	15.3090
 0.5320	15.4270
 0.5330	15.5360
 0.5340	15.6400
 0.5350	15.7460
 0.5360	15.8470
 0.5370	15.9450
 0.5380	16.0400
 0.5390	16.1330
 0.5400	16.2360
 0.5410	16.3410
 0.5420	16.4430
 0.5430	16.5400
 0.5440	16.6280
 0.5450	16.7090
 0.5460	16.7880
 0.5470	16.8390
 0.5480	16.8850
 0.5490	16.9400
 0.5500	16.9980
 0.5510	17.0490
 0.5520	17.0920
 0.5530	17.1280
 0.5540	17.1590
 0.5550	17.1840
 0.5560	17.2020
 0.5570	17.2090
 0.5580	17.2120
 0.5590	17.2100
 0.5600	17.2010
 0.5610	17.1920
 0.5620	17.1910
 0.5630	17.1940
 0.5640	17.1940
 0.5650	17.1920
 0.5660	17.1840
 0.5670	17.1670
 0.5680	17.1360
 0.5690	17.1030
 0.5700	17.0660
 0.5710	17.0250
 0.5720	16.9930
 0.5730	16.9740
 0.5740	16.9660
 0.5750	16.9650
 0.5760	16.9630
 0.5770	16.9520
 0.5780	16.9270
 0.5790	16.8950
 0.5800	16.8680
 0.5810	16.8510
 0.5820	16.8460
 0.5830	16.8480
 0.5840	16.8460
 0.5850	16.8310
 0.5860	16.8030
 0.5870	16.7740
 0.5880	16.7440
 0.5890	16.7190
 0.5900	16.7200
 0.5910	16.7400
 0.5920	16.7730
 0.5930	16.8100
 0.5940	16.8300
 0.5950	16.8380
 0.5960	16.8380
 0.5970	16.8360
 0.5980	16.8290
 0.5990	16.8180
 0.6000	16.8080
 0.6010	16.7930
 0.6020	16.7790
 0.6030	16.7690
 0.6040	16.7550
 0.6050	16.7380
 0.6060	16.7190
 0.6070	16.6960
 0.6080	16.6690
 0.6090	16.6470
 0.6100	16.6350
 0.6110	16.6310
 0.6120	16.5870
 0.6130	16.5290
 0.6140	16.4780
 0.6150	16.4350
 0.6160	16.3970
 0.6170	16.3630
 0.6180	16.3320
 0.6190	16.3060
 0.6200	16.2870
 0.6210	16.2710
 0.6220	16.2520
 0.6230	16.2370
 0.6240	16.2280
 0.6250	16.2210
 0.6260	16.2190
 0.6270	16.2180
 0.6280	16.2190
 0.6290	16.2250
 0.6300	16.2300
 0.6310	16.2350
 0.6320	16.2390
 0.6330	16.2320
 0.6340	16.2210
 0.6350	16.2080
 0.6360	16.1920
 0.6370	16.1680
 0.6380	16.1320
 0.6390	16.0890
 0.6400	16.0480
 0.6410	15.9950
 0.6420	15.9360
 0.6430	15.8750
 0.6440	15.8150
 0.6450	15.7460
 0.6460	15.6760
 0.6470	15.6140
 0.6480	15.5530
 0.6490	15.4980
 0.6500	15.4500
 0.6510	15.4030
 0.6520	15.3630
 0.6530	15.3220
 0.6540	15.2750
 0.6550	15.2280
 0.6560	15.1750
 0.6570	15.1190
 0.6580	15.0590
 0.6590	14.9860
 0.6600	14.9120
 0.6610	14.8400
 0.6620	14.7540
 0.6630	14.6760
 0.6640	14.6060
 0.6650	14.5390
 0.6660	14.4800
 0.6670	14.4240
 0.6680	14.3750
 0.6690	14.3410
 0.6700	14.3060
 0.6710	14.2770
 0.6720	14.2600
 0.6730	14.2530
 0.6740	14.2500
 0.6750	14.2530
 0.6760	14.2620
 0.6770	14.2690
 0.6780	14.2870
 0.6790	14.3170
 0.6800	14.3520
 0.6810	14.4010
 0.6820	14.4660
 0.6830	14.5510
 0.6840	14.6600
 0.6850	14.7920
 0.6860	14.9520
 0.6870	15.1490
 0.6880	15.3740
 0.6890	15.6380
 0.6900	15.9440
 0.6910	16.2840
 0.6920	16.6520
 0.6930	17.0520
 0.6940	17.4840
 0.6950	17.9330
 0.6960	18.3980
 0.6970	18.8790
 0.6980	19.3740
 0.6990	19.8740
 0.7000	20.3790
 0.7010	20.8840
 0.7020	21.3800
 0.7030	21.8730
 0.7040	22.3560
 0.7050	22.8230
 0.7060	23.2810
 0.7070	23.7310
 0.7080	24.1640
 0.7090	24.5730
 0.7100	24.9730
 0.7110	25.3650
 0.7120	25.7460
 0.7130	26.1080
 0.7140	26.4590
 0.7150	26.7980
 0.7160	27.1240
 0.7170	27.4380
 0.7180	27.7440
 0.7190	28.0380
 0.7200	28.3110
 0.7210	28.5790
 0.7220	28.8380
 0.7230	29.0850
 0.7240	29.3200
 0.7250	29.5470
 0.7260	29.7630
 0.7270	29.9670
 0.7280	30.1610
 0.7290	30.3510
 0.7300	30.5270
 0.7310	30.6830
 0.7320	30.8450
 0.7330	30.9980
 0.7340	31.1380
 0.7350	31.2780
 0.7360	31.4040
 0.7370	31.5260
 0.7380	31.6490
 0.7390	31.7580
 0.7400	31.8630
 0.7410	31.9670
 0.7420	32.0680
 0.7430	32.1600
 0.7440	32.2470
 0.7450	32.3340
 0.7460	32.4220
 0.7470	32.5010
 0.7480	32.5750
 0.7490	32.6460
 0.7500	32.7100
 0.7510	32.7740
 0.7520	32.8410
 0.7530	32.9090
 0.7540	32.9710
 0.7550	33.0260
 0.7560	33.0760
 0.7570	33.1280
 0.7580	33.1840
 0.7590	33.2370
 0.7600	33.2840
 0.7610	33.3390
 0.7620	33.3850
 0.7630	33.4260
 0.7640	33.4720
 0.7650	33.5260
 0.7660	33.5660
 0.7670	33.6000
 0.7680	33.6520
 0.7690	33.7000
 0.7700	33.7430
 0.7710	33.7810
 0.7720	33.8190
 0.7730	33.8550
 0.7740	33.8940
 0.7750	33.9370
 0.7760	33.9750
 0.7770	34.0170
 0.7780	34.0580
 0.7790	34.0910
 0.7800	34.1270
 0.7810	34.1700
 0.7820	34.2130
 0.7830	34.2460
 0.7840	34.2800
 0.7850	34.3190
 0.7860	34.3590
 0.7870	34.3930
 0.7880	34.4280
 0.7890	34.4660
 0.7900	34.5040
 0.7910	34.5330
 0.7920	34.5590
 0.7930	34.5880
 0.7940	34.6230
 0.7950	34.6570
 0.7960	34.6850
 0.7970	34.7090
 0.7980	34.7390
 0.7990	34.7680
 0.8000	34.7980
 0.8010	34.8290
 0.8020	34.8510
 0.8030	34.8760
 0.8040	34.9040
 0.8050	34.9310
 0.8060	34.9460
 0.8070	34.9650
 0.8080	34.9890
 0.8090	35.0040
 0.8100	35.0200
 0.8110	35.0400
 0.8120	35.0640
 0.8130	35.0930
 0.8140	35.1110
 0.8150	35.1260
 0.8160	35.1440
 0.8170	35.1570
 0.8180	35.1640
 0.8190	35.1770
 0.8200	35.2050
 0.8210	35.2280
 0.8220	35.2470
 0.8230	35.2590
 0.8240	35.2580
 0.8250	35.2690
 0.8260	35.2820
 0.8270	35.2910
 0.8280	35.3020
 0.8290	35.3210
 0.8300	35.3410
 0.8310	35.3520
 0.8320	35.3520
 0.8330	35.3630
 0.8340	35.3800
 0.8350	35.3950
 0.8360	35.4110
 0.8370	35.4220
 0.8380	35.4290
 0.8390	35.4410
 0.8400	35.4510
 0.8410	35.4700
 0.8420	35.4950
 0.8430	35.5050
 0.8440	35.5140
 0.8450	35.5240
 0.8460	35.5370
 0.8470	35.5550
 0.8480	35.5780
 0.8490	35.5990
 0.8500	35.6120
 0.8510	35.6200
 0.8520	35.6340
 0.8530	35.6570
 0.8540	35.6830
 0.8550	35.7050
 0.8560	35.7170
 0.8570	35.7280
 0.8580	35.7550
 0.8590	35.7860
 0.8600	35.8060
 0.8610	35.8180
 0.8620	35.8420
 0.8630	35.8630
 0.8640	35.8810
 0.8650	35.8990
 0.8660	35.9220
 0.8670	35.9480
 0.8680	35.9770
 0.8690	36.0050
 0.8700	36.0230
 0.8710	36.0440
 0.8720	36.0690
 0.8730	36.0940
 0.8740	36.1210
 0.8750	36.1460
 0.8760	36.1730
 0.8770	36.2060
 0.8780	36.2310
 0.8790	36.2590
 0.8800	36.2940
 0.8810	36.3280
 0.8820	36.3570
 0.8830	36.3800
 0.8840	36.4020
 0.8850	36.4360
 0.8860	36.4640
 0.8870	36.4920
 0.8880	36.5250
 0.8890	36.5520
 0.8900	36.5850
 0.8910	36.6190
 0.8920	36.6450
 0.8930	36.6760
 0.8940	36.7040
 0.8950	36.7310
 0.8960	36.7640
 0.8970	36.8040
 0.8980	36.8350
 0.8990	36.8550
 0.9000	36.8790
 0.9010	36.9200
 0.9020	36.9590
 0.9030	36.9870
 0.9040	37.0100
 0.9050	37.0450
 0.9060	37.0760
 0.9070	37.0970
 0.9080	37.1310
 0.9090	37.1520
 0.9100	37.1800
 0.9110	37.2250
 0.9120	37.2490
 0.9130	37.2710
 0.9140	37.2990
 0.9150	37.3320
 0.9160	37.3650
 0.9170	37.3960
 0.9180	37.4270
 0.9190	37.4620
 0.9200	37.4880
 0.9210	37.5160
 0.9220	37.5410
 0.9230	37.5570
 0.9240	37.5860
 0.9250	37.6130
 0.9260	37.6330
 0.9270	37.6540
 0.9280	37.6680
 0.9290	37.6830
 0.9300	37.7020
 0.9310	37.7220
 0.9320	37.7310
 0.9330	37.7450
 0.9340	37.7700
 0.9350	37.7950
 0.9360	37.8140
 0.9370	37.8210
 0.9380	37.8220
 0.9390	37.8400
 0.9400	37.8480
 0.9410	37.8560
 0.9420	37.8700
 0.9430	37.8700
 0.9440	37.8800
 0.9450	37.8900
 0.9460	37.8920
 0.9470	37.9030
 0.9480	37.8850
 0.9490	37.8650
 0.9500	37.8660
 0.9510	37.8590
 0.9520	37.8570
 0.9530	37.8560
 0.9540	37.8440
 0.9550	37.8140
 0.9560	37.7980
 0.9570	37.7890
 0.9580	37.7780
 0.9590	37.7810
 0.9600	37.7660
 0.9610	37.7480
 0.9620	37.7500
 0.9630	37.7380
 0.9640	37.7280
 0.9650	37.7320
 0.9660	37.7520
 0.9670	37.7510
 0.9680	37.7540
 0.9690	37.7510
 0.9700	37.7340
 0.9710	37.7650
 0.9720	37.7750
 0.9730	37.7610
 0.9740	37.7550
 0.9750	37.7700
 0.9760	37.7810
 0.9770	37.7860
 0.9780	37.7960
 0.9790	37.8140
 0.9800	37.8360
 0.9810	37.8530
 0.9820	37.8570
 0.9830	37.8650
 0.9840	37.8780
 0.9850	37.8820
 0.9860	37.8720
 0.9870	37.8970
 0.9880	37.9230
 0.9890	37.9370
 0.9900	37.9460
 0.9910	37.9670
 0.9920	37.9950
 0.9930	38.0080
 0.9940	38.0000
 0.9950	38.0440
 0.9960	38.0730
 0.9970	38.0840
 0.9980	38.1020
 0.9990	38.1300
 1.0000	38.1770
 1.0010	38.2700
 1.0020	38.3320
 1.0030	38.3470
 1.0040	38.3620
 1.0050	38.3820
 1.0060	38.4020
 1.0070	38.4200
 1.0080	38.4380
 1.0090	38.4580
 1.0100	38.4770
 1.0110	38.4960
 1.0120	38.5150
 1.0130	38.5320
 1.0140	38.5500
 1.0150	38.5670
 1.0160	38.5850
 1.0170	38.6020
 1.0180	38.6220
 1.0190	38.6410
 1.0200	38.6590
 1.0210	38.6760
 1.0220	38.6950
 1.0230	38.7140
 1.0240	38.7310
 1.0250	38.7480
 1.0260	38.7660
 1.0270	38.7820
 1.0280	38.7980
 1.0290	38.8120
 1.0300	38.8240
 1.0310	38.8370
 1.0320	38.8490
 1.0330	38.8630
 1.0340	38.8790
 1.0350	38.8910
 1.0360	38.9030
 1.0370	38.9190
 1.0380	38.9300
 1.0390	38.9400
 1.0400	38.9510
 1.0410	38.9590
 1.0420	38.9690
 1.0430	38.9800
 1.0440	38.9900
 1.0450	39.0010
 1.0460	39.0110
 1.0470	39.0210
 1.0480	39.0320
 1.0490	39.0450
 1.0500	39.0570
 1.0510	39.0690
 1.0520	39.0820
 1.0530	39.0920
 1.0540	39.0990
 1.0550	39.1110
 1.0560	39.1210
 1.0570	39.1360
 1.0580	39.1600
 1.0590	39.1740
 1.0600	39.1840
 1.0610	39.1960
 1.0620	39.2020
 1.0630	39.2130
 1.0640	39.2300
 1.0650	39.2440
 1.0660	39.2580
 1.0670	39.2700
 1.0680	39.2810
 1.0690	39.2900
 1.0700	39.3020
 1.0710	39.3150
 1.0720	39.3270
 1.0730	39.3430
 1.0740	39.3540
 1.0750	39.3620
 1.0760	39.3730
 1.0770	39.3830
 1.0780	39.3930
 1.0790	39.4060
 1.0800	39.4170
 1.0810	39.4270
 1.0820	39.4370
 1.0830	39.4460
 1.0840	39.4560
 1.0850	39.4660
 1.0860	39.4760
 1.0870	39.4860
 1.0880	39.4990
 1.0890	39.5050
 1.0900	39.5080
 1.0910	39.5130
 1.0920	39.5160
 1.0930	39.5210
 1.0940	39.5300
 1.0950	39.5350
 1.0960	39.5370
 1.0970	39.5400
 1.0980	39.5420
 1.0990	39.5450
 1.1000	39.5520
 1.1010	39.5550
 1.1020	39.5600
 1.1030	39.5620
 1.1040	39.5620
 1.1050	39.5600
 1.1060	39.5570
 1.1070	39.5520
 1.1080	39.5490
 1.1090	39.5460
 1.1100	39.5410
 1.1110	39.5330
 1.1120	39.5280
 1.1130	39.5240
 1.1140	39.5170
 1.1150	39.5110
 1.1160	39.5030
 1.1170	39.4910
 1.1180	39.4810
 1.1190	39.4720
 1.1200	39.4630
 1.1210	39.4510
 1.1220	39.4370
 1.1230	39.4220
 1.1240	39.4030
 1.1250	39.3820
 1.1260	39.3610
 1.1270	39.3350
 1.1280	39.3070
 1.1290	39.2730
 1.1300	39.2360
 1.1310	39.1960
 1.1320	39.1500
 1.1330	39.1030
 1.1340	39.0540
 1.1350	39.0000
 1.1360	38.9420
 1.1370	38.8800
 1.1380	38.8160
 1.1390	38.7500
 1.1400	38.6800
 1.1410	38.6090
 1.1420	38.5370
 1.1430	38.4670
 1.1440	38.3960
 1.1450	38.3240
 1.1460	38.2540
 1.1470	38.1840
 1.1480	38.1170
 1.1490	38.0520
 1.1500	37.9920
 1.1510	37.9340
 1.1520	37.8800
 1.1530	37.8320
 1.1540	37.7840
 1.1550	37.7380
 1.1560	37.6950
 1.1570	37.6550
 1.1580	37.6180
 1.1590	37.5900
 1.1600	37.5660
 1.1610	37.5410
 1.1620	37.5220
 1.1630	37.5020
 1.1640	37.4810
 1.1650	37.4620
 1.1660	37.4470
 1.1670	37.4310
 1.1680	37.4150
 1.1690	37.4010
 1.1700	37.3880
 1.1710	37.3740
 1.1720	37.3630
 1.1730	37.3500
 1.1740	37.3360
 1.1750	37.3210
 1.1760	37.3060
 1.1770	37.2890
 1.1780	37.2710
 1.1790	37.2540
 1.1800	37.2380
 1.1810	37.2210
 1.1820	37.2060
 1.1830	37.1900
 1.1840	37.1710
 1.1850	37.1550
 1.1860	37.1410
 1.1870	37.1280
 1.1880	37.1190
 1.1890	37.1140
 1.1900	37.1100
 1.1910	37.1080
 1.1920	37.1080
 1.1930	37.1110
 1.1940	37.1150
 1.1950	37.1210
 1.1960	37.1260
 1.1970	37.1320
 1.1980	37.1390
 1.1990	37.1480
 1.2000	37.1590
 1.2010	37.1720
 1.2020	37.1870
 1.2030	37.2000
 1.2040	37.2150
 1.2050	37.2340
 1.2060	37.2520
 1.2070	37.2730
 1.2080	37.2950
 1.2090	37.3150
 1.2100	37.3370
 1.2110	37.3610
 1.2120	37.3840
 1.2130	37.4100
 1.2140	37.4390
 1.2150	37.4670
 1.2160	37.4970
 1.2170	37.5280
 1.2180	37.5570
 1.2190	37.5870
 1.2200	37.6160
 1.2210	37.6470
 1.2220	37.6790
 1.2230	37.7080
 1.2240	37.7380
 1.2250	37.7680
 1.2260	37.7960
 1.2270	37.8250
 1.2280	37.8530
 1.2290	37.8810
 1.2300	37.9070
 1.2310	37.9310
 1.2320	37.9550
 1.2330	37.9780
 1.2340	37.9990
 1.2350	38.0200
 1.2360	38.0410
 1.2370	38.0600
 1.2380	38.0820
 1.2390	38.1030
 1.2400	38.1230
 1.2410	38.1440
 1.2420	38.1620
 1.2430	38.1780
 1.2440	38.1950
 1.2450	38.2110
 1.2460	38.2260
 1.2470	38.2410
 1.2480	38.2550
 1.2490	38.2670
 1.2500	38.2780
 1.2510	38.2890
 1.2520	38.3000
 1.2530	38.3130
 1.2540	38.3250
 1.2550	38.3390
 1.2560	38.3510
 1.2570	38.3610
 1.2580	38.3710
 1.2590	38.3810
 1.2600	38.3890
 1.2610	38.3970
 1.2620	38.4060
 1.2630	38.4140
 1.2640	38.4170
 1.2650	38.4230
 1.2660	38.4270
 1.2670	38.4300
 1.2680	38.4360
 1.2690	38.4380
 1.2700	38.4400
 1.2710	38.4400
 1.2720	38.4360
 1.2730	38.4330
 1.2740	38.4310
 1.2750	38.4280
 1.2760	38.4230
 1.2770	38.4160
 1.2780	38.4080
 1.2790	38.3980
 1.2800	38.3900
 1.2810	38.3810
 1.2820	38.3700
 1.2830	38.3610
 1.2840	38.3490
 1.2850	38.3380
 1.2860	38.3290
 1.2870	38.3190
 1.2880	38.3090
 1.2890	38.2980
 1.2900	38.2870
 1.2910	38.2750
 1.2920	38.2650
 1.2930	38.2570
 1.2940	38.2490
 1.2950	38.2410
 1.2960	38.2310
 1.2970	38.2200
 1.2980	38.2090
 1.2990	38.1970
 1.3000	38.1830
 1.3010	38.1700
 1.3020	38.1570
 1.3030	38.1410
 1.3040	38.1240
 1.3050	38.1030
 1.3060	38.0800
 1.3070	38.0560
 1.3080	38.0290
 1.3090	38.0010
 1.3100	37.9700
 1.3110	37.9380
 1.3120	37.9020
 1.3130	37.8640
 1.3140	37.8230
 1.3150	37.7790
 1.3160	37.7330
 1.3170	37.6840
 1.3180	37.6350
 1.3190	37.5830
 1.3200	37.5290
 1.3210	37.4730
 1.3220	37.4130
 1.3230	37.3490
 1.3240	37.2820
 1.3250	37.2120
 1.3260	37.1410
 1.3270	37.0710
 1.3280	37.0000
 1.3290	36.9260
 1.3300	36.8520
 1.3310	36.7740
 1.3320	36.6920
 1.3330	36.6100
 1.3340	36.5280
 1.3350	36.4430
 1.3360	36.3610
 1.3370	36.2780
 1.3380	36.1920
 1.3390	36.1070
 1.3400	36.0210
 1.3410	35.9370
 1.3420	35.8530
 1.3430	35.7680
 1.3440	35.6840
 1.3450	35.5990
 1.3460	35.5120
 1.3470	35.4280
 1.3480	35.3440
 1.3490	35.2600
 1.3500	35.1770
 1.3510	35.0950
 1.3520	35.0120
 1.3530	34.9270
 1.3540	34.8410
 1.3550	34.7560
 1.3560	34.6730
 1.3570	34.5910
 1.3580	34.5090
 1.3590	34.4280
 1.3600	34.3430
 1.3610	34.2570
 1.3620	34.1720
 1.3630	34.0850
 1.3640	33.9940
 1.3650	33.9010
 1.3660	33.8060
 1.3670	33.7040
 1.3680	33.5980
 1.3690	33.4870
 1.3700	33.3660
 1.3710	33.2390
 1.3720	33.1050
 1.3730	32.9590
 1.3740	32.8050
 1.3750	32.6400
 1.3760	32.4630
 1.3770	32.2750
 1.3780	32.0710
 1.3790	31.8550
 1.3800	31.6260
 1.3810	31.3830
 1.3820	31.1300
 1.3830	30.8680
 1.3840	30.5940
 1.3850	30.3090
 1.3860	30.0140
 1.3870	29.7060
 1.3880	29.3940
 1.3890	29.0730
 1.3900	28.7450
 1.3910	28.4160
 1.3920	28.0840
 1.3930	27.7460
 1.3940	27.4100
 1.3950	27.0700
 1.3960	26.7320
 1.3970	26.3980
 1.3980	26.0710
 1.3990	25.7530
 1.4000	25.4420
 1.4010	25.1380
 1.4020	24.8440
 1.4030	24.5580
 1.4040	24.2830
 1.4050	24.0220
 1.4060	23.7720
 1.4070	23.5350
 1.4080	23.3110
 1.4090	23.0960
 1.4100	22.8950
 1.4110	22.7050
 1.4120	22.5260
 1.4130	22.3610
 1.4140	22.2060
 1.4150	22.0650
 1.4160	21.9340
 1.4170	21.8120
 1.4180	21.7010
 1.4190	21.5980
 1.4200	21.5020
 1.4210	21.4140
 1.4220	21.3330
 1.4230	21.2610
 1.4240	21.1970
 1.4250	21.1370
 1.4260	21.0840
 1.4270	21.0350
 1.4280	20.9910
 1.4290	20.9510
 1.4300	20.9170
 1.4310	20.8860
 1.4320	20.8590
 1.4330	20.8360
 1.4340	20.8180
 1.4350	20.8020
 1.4360	20.7910
 1.4370	20.7830
 1.4380	20.7760
 1.4390	20.7730
 1.4400	20.7710
 1.4410	20.7720
 1.4420	20.7750
 1.4430	20.7790
 1.4440	20.7840
 1.4450	20.7920
 1.4460	20.8000
 1.4470	20.8100
 1.4480	20.8210
 1.4490	20.8330
 1.4500	20.8450
 1.4510	20.8580
 1.4520	20.8710
 1.4530	20.8850
 1.4540	20.9020
 1.4550	20.9200
 1.4560	20.9400
 1.4570	20.9610
 1.4580	20.9840
 1.4590	21.0080
 1.4600	21.0360
 1.4610	21.0660
 1.4620	21.0990
 1.4630	21.1340
 1.4640	21.1720
 1.4650	21.2130
 1.4660	21.2580
 1.4670	21.3080
 1.4680	21.3590
 1.4690	21.4110
 1.4700	21.4670
 1.4710	21.5270
 1.4720	21.5880
 1.4730	21.6540
 1.4740	21.7200
 1.4750	21.7870
 1.4760	21.8570
 1.4770	21.9270
 1.4780	22.0000
 1.4790	22.0750
 1.4800	22.1500
 1.4810	22.2270
 1.4820	22.3050
 1.4830	22.3820
 1.4840	22.4600
 1.4850	22.5400
 1.4860	22.6200
 1.4870	22.7010
 1.4880	22.7820
 1.4890	22.8640
 1.4900	22.9460
 1.4910	23.0280
 1.4920	23.1100
 1.4930	23.1910
 1.4940	23.2730
 1.4950	23.3560
 1.4960	23.4380
 1.4970	23.5210
 1.4980	23.6040
 1.4990	23.6860
 1.5000	23.7680
 1.5010	23.8490
 1.5020	23.9300
 1.5030	24.0120
 1.5040	24.0930
 1.5050	24.1740
 1.5060	24.2540
 1.5070	24.3330
 1.5080	24.4120
 1.5090	24.4910
 1.5100	24.5690
 1.5110	24.6460
 1.5120	24.7240
 1.5130	24.7990
 1.5140	24.8750
 1.5150	24.9510
 1.5160	25.0270
 1.5170	25.1040
 1.5180	25.1800
 1.5190	25.2550
 1.5200	25.3280
 1.5210	25.4000
 1.5220	25.4720
 1.5230	25.5430
 1.5240	25.6140
 1.5250	25.6840
 1.5260	25.7540
 1.5270	25.8220
 1.5280	25.8880
 1.5290	25.9540
 1.5300	26.0180
 1.5310	26.0830
 1.5320	26.1490
 1.5330	26.2140
 1.5340	26.2770
 1.5350	26.3390
 1.5360	26.4000
 1.5370	26.4600
 1.5380	26.5200
 1.5390	26.5810
 1.5400	26.6390
 1.5410	26.6960
 1.5420	26.7520
 1.5430	26.8080
 1.5440	26.8650
 1.5450	26.9220
 1.5460	26.9800
 1.5470	27.0380
 1.5480	27.0930
 1.5490	27.1490
 1.5500	27.2030
 1.5510	27.2550
 1.5520	27.3080
 1.5530	27.3600
 1.5540	27.4110
 1.5550	27.4630
 1.5560	27.5140
 1.5570	27.5640
 1.5580	27.6140
 1.5590	27.6620
 1.5600	27.7100
 1.5610	27.7580
 1.5620	27.8050
 1.5630	27.8530
 1.5640	27.8990
 1.5650	27.9460
 1.5660	27.9930
 1.5670	28.0380
 1.5680	28.0830
 1.5690	28.1250
 1.5700	28.1650
 1.5710	28.2070
 1.5720	28.2490
 1.5730	28.2920
 1.5740	28.3350
 1.5750	28.3770
 1.5760	28.4180
 1.5770	28.4590
 1.5780	28.5010
 1.5790	28.5440
 1.5800	28.5890
 1.5810	28.6320
 1.5820	28.6740
 1.5830	28.7160
 1.5840	28.7570
 1.5850	28.7970
 1.5860	28.8390
 1.5870	28.8790
 1.5880	28.9200
 1.5890	28.9600
 1.5900	28.9980
 1.5910	29.0380
 1.5920	29.0760
 1.5930	29.1130
 1.5940	29.1500
 1.5950	29.1870
 1.5960	29.2240
 1.5970	29.2610
 1.5980	29.2990
 1.5990	29.3360
 1.6000	29.3730
 1.6010	29.4100
 1.6020	29.4470
 1.6030	29.4820
 1.6040	29.5150
 1.6050	29.5480
 1.6060	29.5790
 1.6070	29.6100
 1.6080	29.6420
 1.6090	29.6740
 1.6100	29.7030
 1.6110	29.7320
 1.6120	29.7600
 1.6130	29.7870
 1.6140	29.8150
 1.6150	29.8440
 1.6160	29.8710
 1.6170	29.8970
 1.6180	29.9240
 1.6190	29.9510
 1.6200	29.9780
 1.6210	30.0040
 1.6220	30.0280
 1.6230	30.0500
 1.6240	30.0710
 1.6250	30.0900
 1.6260	30.1110
 1.6270	30.1280
 1.6280	30.1450
 1.6290	30.1630
 1.6300	30.1780
 1.6310	30.1950
 1.6320	30.2140
 1.6330	30.2300
 1.6340	30.2490
 1.6350	30.2650
 1.6360	30.2800
 1.6370	30.2960
 1.6380	30.3130
 1.6390	30.3270
 1.6400	30.3390
 1.6410	30.3510
 1.6420	30.3620
 1.6430	30.3730
 1.6440	30.3850
 1.6450	30.3960
 1.6460	30.4030
 1.6470	30.4110
 1.6480	30.4170
 1.6490	30.4190
 1.6500	30.4190
 1.6510	30.4150
 1.6520	30.4100
 1.6530	30.4040
 1.6540	30.3970
 1.6550	30.3900
 1.6560	30.3830
 1.6570	30.3740
 1.6580	30.3640
 1.6590	30.3500
 1.6600	30.3360
 1.6610	30.3220
 1.6620	30.3060
 1.6630	30.2860
 1.6640	30.2650
 1.6650	30.2430
 1.6660	30.2180
 1.6670	30.1930
 1.6680	30.1650
 1.6690	30.1350
 1.6700	30.1030
 1.6710	30.0680
 1.6720	30.0300
 1.6730	29.9910
 1.6740	29.9490
 1.6750	29.9060
 1.6760	29.8610
 1.6770	29.8130
 1.6780	29.7610
 1.6790	29.7070
 1.6800	29.6510
 1.6810	29.5930
 1.6820	29.5320
 1.6830	29.4710
 1.6840	29.4090
 1.6850	29.3460
 1.6860	29.2850
 1.6870	29.2210
 1.6880	29.1570
 1.6890	29.0920
 1.6900	29.0270
 1.6910	28.9630
 1.6920	28.8990
 1.6930	28.8350
 1.6940	28.7730
 1.6950	28.7120
 1.6960	28.6530
 1.6970	28.5940
 1.6980	28.5400
 1.6990	28.4890
 1.7000	28.4390
 1.7010	28.3910
 1.7020	28.3450
 1.7030	28.3000
 1.7040	28.2550
 1.7050	28.2110
 1.7060	28.1650
 1.7070	28.1190
 1.7080	28.0750
 1.7090	28.0330
 1.7100	27.9900
 1.7110	27.9480
 1.7120	27.9050
 1.7130	27.8630
 1.7140	27.8240
 1.7150	27.7880
 1.7160	27.7540
 1.7170	27.7210
 1.7180	27.6900
 1.7190	27.6600
 1.7200	27.6310
 1.7210	27.6030
 1.7220	27.5770
 1.7230	27.5520
 1.7240	27.5280
 1.7250	27.5070
 1.7260	27.4900
 1.7270	27.4750
 1.7280	27.4660
 1.7290	27.4570
 1.7300	27.4490
 1.7310	27.4430
 1.7320	27.4380
 1.7330	27.4330
 1.7340	27.4310
 1.7350	27.4280
 1.7360	27.4270
 1.7370	27.4230
 1.7380	27.4200
 1.7390	27.4110
 1.7400	27.3980
 1.7410	27.3820
 1.7420	27.3630
 1.7430	27.3420
 1.7440	27.3180
 1.7450	27.2930
 1.7460	27.2650
 1.7470	27.2370
 1.7480	27.2060
 1.7490	27.1760
 1.7500	27.1440
 1.7510	27.1150
 1.7520	27.0870
 1.7530	27.0600
 1.7540	27.0340
 1.7550	27.0080
 1.7560	26.9850
 1.7570	26.9650
 1.7580	26.9480
 1.7590	26.9350
 1.7600	26.9210
 1.7610	26.9100
 1.7620	26.8990
 1.7630	26.8900
 1.7640	26.8820
 1.7650	26.8760
 1.7660	26.8710
 1.7670	26.8690
 1.7680	26.8660
 1.7690	26.8660
 1.7700	26.8640
 1.7710	26.8610
 1.7720	26.8590
 1.7730	26.8570
 1.7740	26.8540
 1.7750	26.8500
 1.7760	26.8470
 1.7770	26.8440
 1.7780	26.8410
 1.7790	26.8390
 1.7800	26.8380
 1.7810	26.8360
 1.7820	26.8340
 1.7830	26.8340
 1.7840	26.8320
 1.7850	26.8300
 1.7860	26.8280
 1.7870	26.8250
 1.7880	26.8240
 1.7890	26.8240
 1.7900	26.8260
 1.7910	26.8290
 1.7920	26.8320
 1.7930	26.8360
 1.7940	26.8380
 1.7950	26.8430
 1.7960	26.8500
 1.7970	26.8570
 1.7980	26.8670
 1.7990	26.8740
 1.8000	26.8800
 1.8010	26.8870
 1.8020	26.8930
 1.8030	26.9000
 1.8040	26.9080
 1.8050	26.9140
 1.8060	26.9210
 1.8070	26.9260
 1.8080	26.9310
 1.8090	26.9350
 1.8100	26.9360
 1.8110	26.9390
 1.8120	26.9430
 1.8130	26.9490
 1.8140	26.9550
 1.8150	26.9590
 1.8160	26.9630
 1.8170	26.9690
 1.8180	26.9730
 1.8190	26.9770
 1.8200	26.9800
 1.8210	26.9790
 1.8220	26.9810
 1.8230	26.9840
 1.8240	26.9840
 1.8250	26.9830
 1.8260	26.9820
 1.8270	26.9780
 1.8280	26.9750
 1.8290	26.9720
 1.8300	26.9890
 1.8310	27.0390
 1.8320	27.0530
 1.8330	27.0370
 1.8340	27.0180
 1.8350	26.9980
 1.8360	26.9770
 1.8370	26.9540
 1.8380	26.9320
 1.8390	26.9050
 1.8400	26.8740
 1.8410	26.8430
 1.8420	26.8110
 1.8430	26.7720
 1.8440	26.7310
 1.8450	26.6870
 1.8460	26.6330
 1.8470	26.5730
 1.8480	26.5070
 1.8490	26.4360
 1.8500	26.3590
 1.8510	26.2780
 1.8520	26.1910
 1.8530	26.0990
 1.8540	25.9980
 1.8550	25.8920
 1.8560	25.7800
 1.8570	25.6590
 1.8580	25.5260
 1.8590	25.3840
 1.8600	25.2300
 1.8610	25.0680
 1.8620	24.8960
 1.8630	24.7150
 1.8640	24.5220
 1.8650	24.3140
 1.8660	24.0970
 1.8670	23.8680
 1.8680	23.6270
 1.8690	23.3750
 1.8700	23.1110
 1.8710	22.8360
 1.8720	22.5520
 1.8730	22.2600
 1.8740	21.9630
 1.8750	21.6570
 1.8760	21.3410
 1.8770	21.0200
 1.8780	20.6920
 1.8790	20.3550
 1.8800	20.0190
 1.8810	19.6800
 1.8820	19.3400
 1.8830	18.9990
 1.8840	18.6590
 1.8850	18.3210
 1.8860	17.9830
 1.8870	17.6480
 1.8880	17.3180
 1.8890	16.9970
 1.8900	16.6860
 1.8910	16.3860
 1.8920	16.0950
 1.8930	15.8150
 1.8940	15.5460
 1.8950	15.2900
 1.8960	15.0470
 1.8970	14.8210
 1.8980	14.6080
 1.8990	14.4080
 1.9000	14.2180
 1.9010	14.0430
 1.9020	13.8790
 1.9030	13.7290
 1.9040	13.5910
 1.9050	13.4680
 1.9060	13.3540
 1.9070	13.2550
 1.9080	13.1660
 1.9090	13.0840
 1.9100	13.0110
 1.9110	12.9440
 1.9120	12.8830
 1.9130	12.8290
 1.9140	12.7810
 1.9150	12.7380
 1.9160	12.7010
 1.9170	12.6680
 1.9180	12.6370
 1.9190	12.6140
 1.9200	12.5930
 1.9210	12.5770
 1.9220	12.5620
 1.9230	12.5530
 1.9240	12.5480
 1.9250	12.5420
 1.9260	12.5390
 1.9270	12.5420
 1.9280	12.5480
 1.9290	12.5520
 1.9300	12.5600
 1.9310	12.5670
 1.9320	12.5790
 1.9330	12.5930
 1.9340	12.6110
 1.9350	12.6290
 1.9360	12.6530
 1.9370	12.6770
 1.9380	12.7060
 1.9390	12.7350
 1.9400	12.7630
 1.9410	12.7940
 1.9420	12.8220
 1.9430	12.8530
 1.9440	12.8880
 1.9450	12.9230
 1.9460	12.9570
 1.9470	12.9920
 1.9480	13.0280
 1.9490	13.0660
 1.9500	13.1040
 1.9510	13.1430
 1.9520	13.1840
 1.9530	13.2260
 1.9540	13.2690
 1.9550	13.3140
 1.9560	13.3610
 1.9570	13.4070
 1.9580	13.4550
 1.9590	13.5020
 1.9600	13.5480
 1.9610	13.5950
 1.9620	13.6390
 1.9630	13.6850
 1.9640	13.7340
 1.9650	13.7880
 1.9660	13.8390
 1.9670	13.8930
 1.9680	13.9460
 1.9690	13.9970
 1.9700	14.0500
 1.9710	14.1030
 1.9720	14.1570
 1.9730	14.2100
 1.9740	14.2620
 1.9750	14.3150
 1.9760	14.3700
 1.9770	14.4230
 1.9780	14.4820
 1.9790	14.5370
 1.9800	14.5940
 1.9810	14.6510
 1.9820	14.7100
 1.9830	14.7670
 1.9840	14.8260
 1.9850	14.8840
 1.9860	14.9420
 1.9870	14.9990
 1.9880	15.0570
 1.9890	15.1130
 1.9900	15.1720
 1.9910	15.2330
 1.9920	15.2920
 1.9930	15.3520
 1.9940	15.4080
 1.9950	15.4620
 1.9960	15.5170
 1.9970	15.5710
 1.9980	15.6270
 1.9990	15.6870
 2.0000	15.7440
 2.0010	15.8010
 2.0020	15.8600
 2.0030	15.9170
 2.0040	15.9730
 2.0050	16.0290
 2.0060	16.0850
 2.0070	16.1380
 2.0080	16.1890
 2.0090	16.2410
 2.0100	16.2940
 2.0110	16.3440
 2.0120	16.3940
 2.0130	16.4440
 2.0140	16.4920
 2.0150	16.5390
 2.0160	16.5870
 2.0170	16.6340
 2.0180	16.6790
 2.0190	16.7210
 2.0200	16.7640
 2.0210	16.8060
 2.0220	16.8460
 2.0230	16.8830
 2.0240	16.9220
 2.0250	16.9600
 2.0260	16.9980
 2.0270	17.0370
 2.0280	17.0760
 2.0290	17.1100
 2.0300	17.1460
 2.0310	17.1790
 2.0320	17.2100
 2.0330	17.2410
 2.0340	17.2700
 2.0350	17.2990
 2.0360	17.3270
 2.0370	17.3540
 2.0380	17.3760
 2.0390	17.4010
 2.0400	17.4280
 2.0410	17.4530
 2.0420	17.4760
 2.0430	17.5010
 2.0440	17.5230
 2.0450	17.5410
 2.0460	17.5630
 2.0470	17.5860
 2.0480	17.6070
 2.0490	17.6290
 2.0500	17.6490
 2.0510	17.6670
 2.0520	17.6870
 2.0530	17.7070
 2.0540	17.7290
 2.0550	17.7520
 2.0560	17.7750
 2.0570	17.7980
 2.0580	17.8200
 2.0590	17.8450
 2.0600	17.8700
 2.0610	17.8950
 2.0620	17.9200
 2.0630	17.9450
 2.0640	17.9670
 2.0650	17.9920
 2.0660	18.0210
 2.0670	18.0470
 2.0680	18.0730
 2.0690	18.0980
 2.0700	18.1200
 2.0710	18.1440
 2.0720	18.1680
 2.0730	18.1920
 2.0740	18.2170
 2.0750	18.2430
 2.0760	18.2680
 2.0770	18.2930
 2.0780	18.3180
 2.0790	18.3410
 2.0800	18.3680
 2.0810	18.3960
 2.0820	18.4230
 2.0830	18.4520
 2.0840	18.4790
 2.0850	18.5050
 2.0860	18.5300
 2.0870	18.5540
 2.0880	18.5770
 2.0890	18.6010
 2.0900	18.6250
 2.0910	18.6490
 2.0920	18.6730
 2.0930	18.6990
 2.0940	18.7250
 2.0950	18.7500
 2.0960	18.7750
 2.0970	18.8000
 2.0980	18.8250
 2.0990	18.8500
 2.1000	18.8760
 2.1010	18.9000
 2.1020	18.9220
 2.1030	18.9450
 2.1040	18.9710
 2.1050	18.9960
 2.1060	19.0210
 2.1070	19.0490
 2.1080	19.0740
 2.1090	19.0980
 2.1100	19.1240
 2.1110	19.1490
 2.1120	19.1740
 2.1130	19.2020
 2.1140	19.2280
 2.1150	19.2510
 2.1160	19.2780
 2.1170	19.3070
 2.1180	19.3340
 2.1190	19.3620
 2.1200	19.3880
 2.1210	19.4120
 2.1220	19.4330
 2.1230	19.4550
 2.1240	19.4780
 2.1250	19.4990
 2.1260	19.5200
 2.1270	19.5390
 2.1280	19.5550
 2.1290	19.5740
 2.1300	19.5960
 2.1310	19.6140
 2.1320	19.6300
 2.1330	19.6480
 2.1340	19.6650
 2.1350	19.6820
 2.1360	19.7030
 2.1370	19.7210
 2.1380	19.7340
 2.1390	19.7500
 2.1400	19.7660
 2.1410	19.7830
 2.1420	19.7990
 2.1430	19.8160
 2.1440	19.8330
 2.1450	19.8490
 2.1460	19.8640
 2.1470	19.8810
 2.1480	19.8940
 2.1490	19.9040
 2.1500	19.9170
 2.1510	19.9300
 2.1520	19.9440
 2.1530	19.9590
 2.1540	19.9730
 2.1550	19.9880
 2.1560	20.0030
 2.1570	20.0180
 2.1580	20.0320
 2.1590	20.0440
 2.1600	20.0580
 2.1610	20.0740
 2.1620	20.0860
 2.1630	20.0980
 2.1640	20.1100
 2.1650	20.1230
 2.1660	20.1350
 2.1670	20.1490
 2.1680	20.1660
 2.1690	20.1790
 2.1700	20.1890
 2.1710	20.2000
 2.1720	20.2090
 2.1730	20.2200
 2.1740	20.2350
 2.1750	20.2480
 2.1760	20.2630
 2.1770	20.2750
 2.1780	20.2830
 2.1790	20.2950
 2.1800	20.3080
 2.1810	20.3200
 2.1820	20.3340
 2.1830	20.3510
 2.1840	20.3630
 2.1850	20.3720
 2.1860	20.3840
 2.1870	20.3960
 2.1880	20.4080
 2.1890	20.4220
 2.1900	20.4340
 2.1910	20.4440
 2.1920	20.4560
 2.1930	20.4700
 2.1940	20.4830
 2.1950	20.4950
 2.1960	20.5070
 2.1970	20.5200
 2.1980	20.5310
 2.1990	20.5390
 2.2000	20.5480
 2.2010	20.5560
 2.2020	20.5650
 2.2030	20.5800
 2.2040	20.5890
 2.2050	20.5960
 2.2060	20.6010
 2.2070	20.6060
 2.2080	20.6070
 2.2090	20.6080
 2.2100	20.6090
 2.2110	20.6110
 2.2120	20.6130
 2.2130	20.6120
 2.2140	20.6110
 2.2150	20.6070
 2.2160	20.5950
 2.2170	20.5890
 2.2180	20.5860
 2.2190	20.5780
 2.2200	20.5710
 2.2210	20.5600
 2.2220	20.5430
 2.2230	20.5270
 2.2240	20.5110
 2.2250	20.4920
 2.2260	20.4720
 2.2270	20.4500
 2.2280	20.4240
 2.2290	20.3970
 2.2300	20.3680
 2.2310	20.3360
 2.2320	20.3040
 2.2330	20.2700
 2.2340	20.2330
 2.2350	20.1920
 2.2360	20.1500
 2.2370	20.1030
 2.2380	20.0550
 2.2390	20.0060
 2.2400	19.9520
 2.2410	19.8950
 2.2420	19.8350
 2.2430	19.7700
 2.2440	19.7060
 2.2450	19.6390
 2.2460	19.5710
 2.2470	19.5020
 2.2480	19.4300
 2.2490	19.3540
 2.2500	19.2790
 2.2510	19.2010
 2.2520	19.1230
 2.2530	19.0480
 2.2540	18.9690
 2.2550	18.8860
 2.2560	18.8050
 2.2570	18.7220
 2.2580	18.6410
 2.2590	18.5640
 2.2600	18.4860
 2.2610	18.4070
 2.2620	18.3320
 2.2630	18.2570
 2.2640	18.1810
 2.2650	18.1090
 2.2660	18.0370
 2.2670	17.9710
 2.2680	17.9080
 2.2690	17.8450
 2.2700	17.7870
 2.2710	17.7230
 2.2720	17.6540
 2.2730	17.5940
 2.2740	17.5340
 2.2750	17.4800
 2.2760	17.4380
 2.2770	17.3880
 2.2780	17.3370
 2.2790	17.2880
 2.2800	17.2380
 2.2810	17.1890
 2.2820	17.1430
 2.2830	17.0940
 2.2840	17.0450
 2.2850	16.9920
 2.2860	16.9360
 2.2870	16.8790
 2.2880	16.8170
 2.2890	16.7570
 2.2900	16.6960
 2.2910	16.6340
 2.2920	16.5710
 2.2930	16.5080
 2.2940	16.4430
 2.2950	16.3790
 2.2960	16.3130
 2.2970	16.2510
 2.2980	16.1880
 2.2990	16.1280
 2.3000	16.0780
 2.3010	16.0260
 2.3020	15.9860
 2.3030	15.9580
 2.3040	15.9340
 2.3050	15.9220
 2.3060	15.9130
 2.3070	15.9060
 2.3080	15.9000
 2.3090	15.9020
 2.3100	15.9150
 2.3110	15.9280
 2.3120	15.9430
 2.3130	15.9650
 2.3140	15.9900
 2.3150	16.0170
 2.3160	16.0470
 2.3170	16.0880
 2.3180	16.1160
 2.3190	16.1410
 2.3200	16.1610
 2.3210	16.1780
 2.3220	16.1890
 2.3230	16.1960
 2.3240	16.1950
 2.3250	16.1830
 2.3260	16.1740
 2.3270	16.1580
 2.3280	16.1420
 2.3290	16.1280
 2.3300	16.1070
 2.3310	16.0760
 2.3320	16.0510
 2.3330	16.0270
 2.3340	15.9980
 2.3350	15.9680
 2.3360	15.9410
 2.3370	15.9110
 2.3380	15.8790
 2.3390	15.8520
 2.3400	15.8190
 2.3410	15.7790
 2.3420	15.7440
 2.3430	15.7080
 2.3440	15.6770
 2.3450	15.6460
 2.3460	15.6190
 2.3470	15.5950
 2.3480	15.5770
 2.3490	15.5650
 2.3500	15.5520
 2.3510	15.5410
 2.3520	15.5340
 2.3530	15.5240
 2.3540	15.5280
 2.3550	15.5300
 2.3560	15.5290
 2.3570	15.5260
 2.3580	15.5170
 2.3590	15.5130
 2.3600	15.5090
 2.3610	15.5100
 2.3620	15.5110
 2.3630	15.4980
 2.3640	15.4900
 2.3650	15.4740
 2.3660	15.4480
 2.3670	15.4360
 2.3680	15.4210
 2.3690	15.4050
 2.3700	15.3960
 2.3710	15.3890
 2.3720	15.3840
 2.3730	15.3750
 2.3740	15.3610
 2.3750	15.3390
 2.3760	15.3200
 2.3770	15.3020
 2.3780	15.2820
 2.3790	15.2760
 2.3800	15.2620
 2.3810	15.2420
 2.3820	15.2260
 2.3830	15.2010
 2.3840	15.1760
 2.3850	15.1480
 2.3860	15.1220
 2.3870	15.1010
 2.3880	15.0700
 2.3890	15.0590
 2.3900	15.0480
 2.3910	15.0200
 2.3920	14.9940
 2.3930	14.9630
 2.3940	14.9360
 2.3950	14.9120
 2.3960	14.8930
 2.3970	14.8760
 2.3980	14.8400
 2.3990	14.8100
 2.4000	14.7850
 2.4010	14.7580
 2.4020	14.7400
 2.4030	14.7210
 2.4040	14.6900
 2.4050	14.6570
 2.4060	14.6260
 2.4070	14.5950
 2.4080	14.5820
 2.4090	14.5680
 2.4100	14.5460
 2.4110	14.5330
 2.4120	14.5090
 2.4130	14.4810
 2.4140	14.4520
 2.4150	14.4160
 2.4160	14.3960
 2.4170	14.3690
 2.4180	14.3330
 2.4190	14.3050
 2.4200	14.2600
 2.4210	14.2160
 2.4220	14.1910
 2.4230	14.1630
 2.4240	14.1320
 2.4250	14.1120
 2.4260	14.0890
 2.4270	14.0590
 2.4280	14.0360
 2.4290	13.9990
 2.4300	13.9610
 2.4310	13.9440
 2.4320	13.9120
 2.4330	13.8760
 2.4340	13.8660
 2.4350	13.8410
 2.4360	13.8160
 2.4370	13.7950
 2.4380	13.7500
 2.4390	13.6950
 2.4400	13.6570
 2.4410	13.6260
 2.4420	13.5860
 2.4430	13.5470
 2.4440	13.5010
 2.4450	13.4580
 2.4460	13.4170
 2.4470	13.3870
 2.4480	13.3640
 2.4490	13.3360
 2.4500	13.3170
 2.4510	13.2820
 2.4520	13.2510
 2.4530	13.2170
 2.4540	13.1830
 2.4550	13.1650
 2.4560	13.1340
 2.4570	13.0870
 2.4580	13.0400
 2.4590	12.9880
 2.4600	12.9450
 2.4610	12.9110
 2.4620	12.8930
 2.4630	12.8850
 2.4640	12.8670
 2.4650	12.8520
 2.4660	12.8350
 2.4670	12.7850
 2.4680	12.7470
 2.4690	12.6930
 2.4700	12.6570
 2.4710	12.6410
 2.4720	12.6150
 2.4730	12.6020
 2.4740	12.5780
 2.4750	12.5380
 2.4760	12.5000
 2.4770	12.4530
 2.4780	12.4170
 2.4790	12.3840
 2.4800	12.3730
 2.4810	12.3820
 2.4820	12.3770
 2.4830	12.3850
 2.4840	12.3560
 2.4850	12.3300
 2.4860	12.3470
 2.4870	12.3430
 2.4880	12.3310
 2.4890	12.3390
 2.4900	12.3280
 2.4910	12.2850
 2.4920	12.2800
 2.4930	12.3190
 2.4940	12.3210
 2.4950	12.3250
 2.4960	12.3190
 2.4970	12.2530
 2.4980	12.2100
 2.4990	12.2310
 2.5000	12.2510
