Name: Pinus lambertiana 2
Type: vegetation
Class: Tree
Genus: Pinus
Species: lambertiana
Sample No.: VH066
Owner: UCSB
Wavelength Range: VSWIR
Origin: 37.0422; -119.3028; WGS84
Collection Date: 4/20/2013
Description: Samples were collected as part of the HyspIRI Airborne Campaign. 48 individual plants were sampled in three times in 2013 - spring  summer  and fall. The name of the sample includes a 1  2  or 3 which references a different individual of the species. Samples were taken to JPL and processed within 48 hours of collection. The same leaves were processed in the Nicolet and then measured using the ASD.
Measurement: Bidirectional reflectance
First Column: X
Second Column: Y
X Units: Wavelength (micrometers)
Y Units: Reflectance (percentage)
First X Value: 0.35
Last X Value: 2.5
Number of X Values: 2151
Additional Information: vegetation.tree.pinus.lambertiana.vswir.vh066.ucsb.asd.ancillary.txt

 0.3500	 5.0880
 0.3510	 4.9320
 0.3520	 5.0350
 0.3530	 5.2100
 0.3540	 5.2330
 0.3550	 5.0360
 0.3560	 5.0000
 0.3570	 5.0400
 0.3580	 4.8860
 0.3590	 4.9170
 0.3600	 4.9960
 0.3610	 5.0120
 0.3620	 4.9650
 0.3630	 4.9280
 0.3640	 4.9500
 0.3650	 5.0140
 0.3660	 4.9000
 0.3670	 4.8350
 0.3680	 4.8830
 0.3690	 4.9680
 0.3700	 4.9260
 0.3710	 4.8850
 0.3720	 4.9130
 0.3730	 4.8890
 0.3740	 4.9350
 0.3750	 4.9500
 0.3760	 4.8450
 0.3770	 4.9160
 0.3780	 4.9370
 0.3790	 4.8510
 0.3800	 4.7720
 0.3810	 4.8250
 0.3820	 4.8820
 0.3830	 4.8520
 0.3840	 4.8250
 0.3850	 4.8490
 0.3860	 4.8560
 0.3870	 4.7770
 0.3880	 4.8230
 0.3890	 4.8220
 0.3900	 4.7370
 0.3910	 4.6940
 0.3920	 4.6890
 0.3930	 4.7380
 0.3940	 4.8050
 0.3950	 4.7140
 0.3960	 4.6830
 0.3970	 4.7120
 0.3980	 4.7080
 0.3990	 4.7470
 0.4000	 4.7800
 0.4010	 4.7830
 0.4020	 4.7770
 0.4030	 4.7640
 0.4040	 4.7780
 0.4050	 4.8290
 0.4060	 4.8280
 0.4070	 4.8500
 0.4080	 4.8800
 0.4090	 4.8570
 0.4100	 4.8900
 0.4110	 4.9480
 0.4120	 4.9970
 0.4130	 5.0280
 0.4140	 5.0830
 0.4150	 5.1480
 0.4160	 5.1940
 0.4170	 5.2030
 0.4180	 5.2460
 0.4190	 5.3180
 0.4200	 5.3470
 0.4210	 5.3910
 0.4220	 5.4530
 0.4230	 5.5220
 0.4240	 5.5740
 0.4250	 5.6150
 0.4260	 5.6550
 0.4270	 5.7060
 0.4280	 5.7350
 0.4290	 5.7680
 0.4300	 5.8120
 0.4310	 5.8400
 0.4320	 5.8750
 0.4330	 5.9050
 0.4340	 5.9170
 0.4350	 5.9380
 0.4360	 5.9850
 0.4370	 6.0370
 0.4380	 6.0460
 0.4390	 6.0690
 0.4400	 6.0890
 0.4410	 6.0930
 0.4420	 6.0980
 0.4430	 6.1340
 0.4440	 6.1740
 0.4450	 6.1760
 0.4460	 6.1830
 0.4470	 6.1880
 0.4480	 6.1960
 0.4490	 6.2300
 0.4500	 6.2520
 0.4510	 6.2650
 0.4520	 6.2750
 0.4530	 6.2740
 0.4540	 6.2780
 0.4550	 6.2860
 0.4560	 6.2890
 0.4570	 6.2980
 0.4580	 6.3050
 0.4590	 6.3080
 0.4600	 6.3120
 0.4610	 6.3190
 0.4620	 6.3250
 0.4630	 6.3270
 0.4640	 6.3240
 0.4650	 6.3240
 0.4660	 6.3300
 0.4670	 6.3410
 0.4680	 6.3330
 0.4690	 6.3190
 0.4700	 6.3160
 0.4710	 6.3290
 0.4720	 6.3360
 0.4730	 6.3300
 0.4740	 6.3190
 0.4750	 6.3160
 0.4760	 6.3130
 0.4770	 6.3090
 0.4780	 6.3170
 0.4790	 6.3150
 0.4800	 6.3070
 0.4810	 6.3020
 0.4820	 6.3200
 0.4830	 6.3300
 0.4840	 6.3220
 0.4850	 6.3120
 0.4860	 6.3110
 0.4870	 6.3140
 0.4880	 6.3180
 0.4890	 6.3370
 0.4900	 6.3450
 0.4910	 6.3480
 0.4920	 6.3620
 0.4930	 6.3850
 0.4940	 6.4090
 0.4950	 6.4290
 0.4960	 6.4430
 0.4970	 6.4640
 0.4980	 6.4940
 0.4990	 6.5290
 0.5000	 6.5700
 0.5010	 6.6140
 0.5020	 6.6630
 0.5030	 6.7230
 0.5040	 6.7730
 0.5050	 6.8340
 0.5060	 6.9180
 0.5070	 7.0020
 0.5080	 7.0970
 0.5090	 7.2040
 0.5100	 7.3250
 0.5110	 7.4590
 0.5120	 7.6000
 0.5130	 7.7490
 0.5140	 7.9150
 0.5150	 8.0970
 0.5160	 8.2910
 0.5170	 8.4930
 0.5180	 8.7130
 0.5190	 8.9430
 0.5200	 9.1790
 0.5210	 9.4210
 0.5220	 9.6640
 0.5230	 9.9060
 0.5240	10.1490
 0.5250	10.3870
 0.5260	10.6160
 0.5270	10.8320
 0.5280	11.0320
 0.5290	11.2250
 0.5300	11.4060
 0.5310	11.5720
 0.5320	11.7240
 0.5330	11.8650
 0.5340	11.9890
 0.5350	12.0950
 0.5360	12.2010
 0.5370	12.2910
 0.5380	12.3650
 0.5390	12.4340
 0.5400	12.4940
 0.5410	12.5480
 0.5420	12.5980
 0.5430	12.6470
 0.5440	12.6970
 0.5450	12.7480
 0.5460	12.7960
 0.5470	12.8510
 0.5480	12.9080
 0.5490	12.9560
 0.5500	12.9880
 0.5510	13.0100
 0.5520	13.0220
 0.5530	13.0180
 0.5540	13.0010
 0.5550	12.9730
 0.5560	12.9320
 0.5570	12.8700
 0.5580	12.8010
 0.5590	12.7190
 0.5600	12.6210
 0.5610	12.5220
 0.5620	12.4100
 0.5630	12.2870
 0.5640	12.1600
 0.5650	12.0210
 0.5660	11.8780
 0.5670	11.7330
 0.5680	11.5750
 0.5690	11.4080
 0.5700	11.2430
 0.5710	11.0860
 0.5720	10.9280
 0.5730	10.7700
 0.5740	10.6210
 0.5750	10.4870
 0.5760	10.3650
 0.5770	10.2550
 0.5780	10.1560
 0.5790	10.0650
 0.5800	 9.9770
 0.5810	 9.8900
 0.5820	 9.8020
 0.5830	 9.7160
 0.5840	 9.6350
 0.5850	 9.5610
 0.5860	 9.4900
 0.5870	 9.4270
 0.5880	 9.3660
 0.5890	 9.3040
 0.5900	 9.2490
 0.5910	 9.1980
 0.5920	 9.1520
 0.5930	 9.1140
 0.5940	 9.0800
 0.5950	 9.0510
 0.5960	 9.0280
 0.5970	 9.0070
 0.5980	 8.9860
 0.5990	 8.9620
 0.6000	 8.9350
 0.6010	 8.9040
 0.6020	 8.8700
 0.6030	 8.8300
 0.6040	 8.7840
 0.6050	 8.7320
 0.6060	 8.6740
 0.6070	 8.6100
 0.6080	 8.5350
 0.6090	 8.4580
 0.6100	 8.3790
 0.6110	 8.2960
 0.6120	 8.2250
 0.6130	 8.1590
 0.6140	 8.0940
 0.6150	 8.0300
 0.6160	 7.9680
 0.6170	 7.9080
 0.6180	 7.8520
 0.6190	 7.8010
 0.6200	 7.7560
 0.6210	 7.7160
 0.6220	 7.6790
 0.6230	 7.6530
 0.6240	 7.6310
 0.6250	 7.6090
 0.6260	 7.5920
 0.6270	 7.5770
 0.6280	 7.5650
 0.6290	 7.5600
 0.6300	 7.5500
 0.6310	 7.5400
 0.6320	 7.5300
 0.6330	 7.5150
 0.6340	 7.4940
 0.6350	 7.4640
 0.6360	 7.4260
 0.6370	 7.3740
 0.6380	 7.3160
 0.6390	 7.2570
 0.6400	 7.1980
 0.6410	 7.1280
 0.6420	 7.0560
 0.6430	 6.9860
 0.6440	 6.9100
 0.6450	 6.8370
 0.6460	 6.7700
 0.6470	 6.7080
 0.6480	 6.6520
 0.6490	 6.6040
 0.6500	 6.5620
 0.6510	 6.5240
 0.6520	 6.4920
 0.6530	 6.4630
 0.6540	 6.4360
 0.6550	 6.4060
 0.6560	 6.3730
 0.6570	 6.3370
 0.6580	 6.2960
 0.6590	 6.2520
 0.6600	 6.2060
 0.6610	 6.1600
 0.6620	 6.1170
 0.6630	 6.0780
 0.6640	 6.0410
 0.6650	 6.0070
 0.6660	 5.9790
 0.6670	 5.9570
 0.6680	 5.9410
 0.6690	 5.9300
 0.6700	 5.9220
 0.6710	 5.9190
 0.6720	 5.9210
 0.6730	 5.9250
 0.6740	 5.9340
 0.6750	 5.9470
 0.6760	 5.9620
 0.6770	 5.9820
 0.6780	 6.0050
 0.6790	 6.0310
 0.6800	 6.0620
 0.6810	 6.0980
 0.6820	 6.1400
 0.6830	 6.1900
 0.6840	 6.2490
 0.6850	 6.3220
 0.6860	 6.4130
 0.6870	 6.5260
 0.6880	 6.6710
 0.6890	 6.8580
 0.6900	 7.0950
 0.6910	 7.3920
 0.6920	 7.7500
 0.6930	 8.1780
 0.6940	 8.6800
 0.6950	 9.2460
 0.6960	 9.8790
 0.6970	10.5720
 0.6980	11.3180
 0.6990	12.1150
 0.7000	12.9510
 0.7010	13.8200
 0.7020	14.7200
 0.7030	15.6400
 0.7040	16.5780
 0.7050	17.5290
 0.7060	18.4930
 0.7070	19.4680
 0.7080	20.4510
 0.7090	21.4450
 0.7100	22.4570
 0.7110	23.4820
 0.7120	24.5200
 0.7130	25.5710
 0.7140	26.6350
 0.7150	27.7140
 0.7160	28.8070
 0.7170	29.9120
 0.7180	31.0310
 0.7190	32.1570
 0.7200	33.2870
 0.7210	34.4280
 0.7220	35.5720
 0.7230	36.7150
 0.7240	37.8560
 0.7250	38.9880
 0.7260	40.1090
 0.7270	41.2190
 0.7280	42.3110
 0.7290	43.3820
 0.7300	44.4280
 0.7310	45.4490
 0.7320	46.4450
 0.7330	47.4110
 0.7340	48.3460
 0.7350	49.2510
 0.7360	50.1210
 0.7370	50.9590
 0.7380	51.7650
 0.7390	52.5320
 0.7400	53.2620
 0.7410	53.9590
 0.7420	54.6270
 0.7430	55.2530
 0.7440	55.8390
 0.7450	56.3880
 0.7460	56.9090
 0.7470	57.3920
 0.7480	57.8400
 0.7490	58.2580
 0.7500	58.6450
 0.7510	59.0010
 0.7520	59.3290
 0.7530	59.6310
 0.7540	59.9040
 0.7550	60.1560
 0.7560	60.3890
 0.7570	60.6000
 0.7580	60.7900
 0.7590	60.9620
 0.7600	61.1210
 0.7610	61.2680
 0.7620	61.4020
 0.7630	61.5230
 0.7640	61.6310
 0.7650	61.7310
 0.7660	61.8220
 0.7670	61.9060
 0.7680	61.9860
 0.7690	62.0550
 0.7700	62.1140
 0.7710	62.1680
 0.7720	62.2270
 0.7730	62.2840
 0.7740	62.3300
 0.7750	62.3640
 0.7760	62.4030
 0.7770	62.4420
 0.7780	62.4800
 0.7790	62.5180
 0.7800	62.5510
 0.7810	62.5830
 0.7820	62.6160
 0.7830	62.6430
 0.7840	62.6690
 0.7850	62.6960
 0.7860	62.7250
 0.7870	62.7490
 0.7880	62.7730
 0.7890	62.7980
 0.7900	62.8220
 0.7910	62.8430
 0.7920	62.8660
 0.7930	62.8890
 0.7940	62.9090
 0.7950	62.9220
 0.7960	62.9380
 0.7970	62.9590
 0.7980	62.9760
 0.7990	62.9900
 0.8000	63.0070
 0.8010	63.0290
 0.8020	63.0390
 0.8030	63.0500
 0.8040	63.0640
 0.8050	63.0780
 0.8060	63.0920
 0.8070	63.1050
 0.8080	63.1170
 0.8090	63.1280
 0.8100	63.1410
 0.8110	63.1530
 0.8120	63.1660
 0.8130	63.1750
 0.8140	63.1800
 0.8150	63.1910
 0.8160	63.2130
 0.8170	63.2270
 0.8180	63.2400
 0.8190	63.2520
 0.8200	63.2620
 0.8210	63.2740
 0.8220	63.2860
 0.8230	63.2990
 0.8240	63.3120
 0.8250	63.3200
 0.8260	63.3280
 0.8270	63.3390
 0.8280	63.3420
 0.8290	63.3500
 0.8300	63.3580
 0.8310	63.3570
 0.8320	63.3590
 0.8330	63.3650
 0.8340	63.3760
 0.8350	63.3900
 0.8360	63.4120
 0.8370	63.4300
 0.8380	63.4450
 0.8390	63.4610
 0.8400	63.4800
 0.8410	63.4980
 0.8420	63.5160
 0.8430	63.5420
 0.8440	63.5660
 0.8450	63.5870
 0.8460	63.6070
 0.8470	63.6350
 0.8480	63.6550
 0.8490	63.6720
 0.8500	63.6950
 0.8510	63.7120
 0.8520	63.7330
 0.8530	63.7600
 0.8540	63.7830
 0.8550	63.7950
 0.8560	63.8120
 0.8570	63.8340
 0.8580	63.8440
 0.8590	63.8610
 0.8600	63.8810
 0.8610	63.8990
 0.8620	63.9130
 0.8630	63.9270
 0.8640	63.9420
 0.8650	63.9600
 0.8660	63.9720
 0.8670	63.9830
 0.8680	63.9930
 0.8690	64.0020
 0.8700	64.0150
 0.8710	64.0290
 0.8720	64.0390
 0.8730	64.0440
 0.8740	64.0500
 0.8750	64.0630
 0.8760	64.0810
 0.8770	64.0940
 0.8780	64.0900
 0.8790	64.0870
 0.8800	64.0960
 0.8810	64.0990
 0.8820	64.1030
 0.8830	64.1070
 0.8840	64.1080
 0.8850	64.1030
 0.8860	64.0990
 0.8870	64.0970
 0.8880	64.0940
 0.8890	64.0790
 0.8900	64.0640
 0.8910	64.0580
 0.8920	64.0600
 0.8930	64.0560
 0.8940	64.0420
 0.8950	64.0250
 0.8960	64.0220
 0.8970	64.0030
 0.8980	63.9910
 0.8990	63.9870
 0.9000	63.9710
 0.9010	63.9550
 0.9020	63.9450
 0.9030	63.9370
 0.9040	63.9150
 0.9050	63.9020
 0.9060	63.8950
 0.9070	63.8870
 0.9080	63.8710
 0.9090	63.8550
 0.9100	63.8390
 0.9110	63.8190
 0.9120	63.7990
 0.9130	63.7810
 0.9140	63.7650
 0.9150	63.7490
 0.9160	63.7190
 0.9170	63.6980
 0.9180	63.6830
 0.9190	63.6640
 0.9200	63.6320
 0.9210	63.6010
 0.9220	63.5720
 0.9230	63.5430
 0.9240	63.5110
 0.9250	63.4680
 0.9260	63.4140
 0.9270	63.3550
 0.9280	63.2850
 0.9290	63.2280
 0.9300	63.1810
 0.9310	63.1180
 0.9320	63.0390
 0.9330	62.9640
 0.9340	62.8930
 0.9350	62.8070
 0.9360	62.7180
 0.9370	62.6330
 0.9380	62.5480
 0.9390	62.4420
 0.9400	62.3480
 0.9410	62.2460
 0.9420	62.1270
 0.9430	62.0160
 0.9440	61.8890
 0.9450	61.7560
 0.9460	61.6210
 0.9470	61.4550
 0.9480	61.2980
 0.9490	61.1300
 0.9500	60.9340
 0.9510	60.7430
 0.9520	60.5450
 0.9530	60.3390
 0.9540	60.1220
 0.9550	59.8820
 0.9560	59.6570
 0.9570	59.4560
 0.9580	59.2760
 0.9590	59.1030
 0.9600	58.9280
 0.9610	58.7730
 0.9620	58.6500
 0.9630	58.4990
 0.9640	58.3700
 0.9650	58.2770
 0.9660	58.2080
 0.9670	58.1400
 0.9680	58.0550
 0.9690	57.9750
 0.9700	57.9240
 0.9710	57.8560
 0.9720	57.8020
 0.9730	57.7630
 0.9740	57.7200
 0.9750	57.6690
 0.9760	57.6430
 0.9770	57.6290
 0.9780	57.6020
 0.9790	57.5910
 0.9800	57.5810
 0.9810	57.5820
 0.9820	57.6080
 0.9830	57.6040
 0.9840	57.6130
 0.9850	57.6440
 0.9860	57.6820
 0.9870	57.7210
 0.9880	57.7710
 0.9890	57.8250
 0.9900	57.8720
 0.9910	57.9040
 0.9920	58.0220
 0.9930	58.1400
 0.9940	58.2570
 0.9950	58.3750
 0.9960	58.4930
 0.9970	58.6110
 0.9980	58.7280
 0.9990	58.8460
 1.0000	58.9640
 1.0010	59.0820
 1.0020	59.1990
 1.0030	59.3170
 1.0040	59.4350
 1.0050	59.5530
 1.0060	59.6700
 1.0070	59.7880
 1.0080	59.9060
 1.0090	60.0230
 1.0100	60.0230
 1.0110	60.1170
 1.0120	60.2090
 1.0130	60.2980
 1.0140	60.3890
 1.0150	60.4800
 1.0160	60.5730
 1.0170	60.6670
 1.0180	60.7570
 1.0190	60.8490
 1.0200	60.9380
 1.0210	61.0250
 1.0220	61.1110
 1.0230	61.1990
 1.0240	61.2900
 1.0250	61.3790
 1.0260	61.4720
 1.0270	61.5580
 1.0280	61.6380
 1.0290	61.7210
 1.0300	61.8020
 1.0310	61.8820
 1.0320	61.9620
 1.0330	62.0460
 1.0340	62.1220
 1.0350	62.1950
 1.0360	62.2750
 1.0370	62.3510
 1.0380	62.4230
 1.0390	62.4960
 1.0400	62.5630
 1.0410	62.6170
 1.0420	62.6820
 1.0430	62.7530
 1.0440	62.8160
 1.0450	62.8810
 1.0460	62.9430
 1.0470	62.9970
 1.0480	63.0510
 1.0490	63.1030
 1.0500	63.1560
 1.0510	63.2060
 1.0520	63.2590
 1.0530	63.3070
 1.0540	63.3570
 1.0550	63.4010
 1.0560	63.4360
 1.0570	63.4750
 1.0580	63.5170
 1.0590	63.5530
 1.0600	63.5850
 1.0610	63.6180
 1.0620	63.6470
 1.0630	63.6750
 1.0640	63.7060
 1.0650	63.7320
 1.0660	63.7530
 1.0670	63.7740
 1.0680	63.7940
 1.0690	63.8130
 1.0700	63.8270
 1.0710	63.8370
 1.0720	63.8510
 1.0730	63.8650
 1.0740	63.8750
 1.0750	63.8880
 1.0760	63.8930
 1.0770	63.8870
 1.0780	63.8850
 1.0790	63.8840
 1.0800	63.8810
 1.0810	63.8820
 1.0820	63.8740
 1.0830	63.8620
 1.0840	63.8480
 1.0850	63.8320
 1.0860	63.8100
 1.0870	63.7890
 1.0880	63.7680
 1.0890	63.7430
 1.0900	63.7120
 1.0910	63.6840
 1.0920	63.6570
 1.0930	63.6260
 1.0940	63.5930
 1.0950	63.5570
 1.0960	63.5160
 1.0970	63.4770
 1.0980	63.4380
 1.0990	63.3970
 1.1000	63.3580
 1.1010	63.3130
 1.1020	63.2650
 1.1030	63.2150
 1.1040	63.1650
 1.1050	63.1140
 1.1060	63.0650
 1.1070	63.0210
 1.1080	62.9680
 1.1090	62.9120
 1.1100	62.8530
 1.1110	62.7910
 1.1120	62.7240
 1.1130	62.6530
 1.1140	62.5790
 1.1150	62.5010
 1.1160	62.4170
 1.1170	62.3350
 1.1180	62.2410
 1.1190	62.1420
 1.1200	62.0340
 1.1210	61.9130
 1.1220	61.7820
 1.1230	61.6370
 1.1240	61.4800
 1.1250	61.3070
 1.1260	61.1240
 1.1270	60.9190
 1.1280	60.7000
 1.1290	60.4580
 1.1300	60.2010
 1.1310	59.9220
 1.1320	59.6230
 1.1330	59.3050
 1.1340	58.9630
 1.1350	58.6070
 1.1360	58.2340
 1.1370	57.8440
 1.1380	57.4430
 1.1390	57.0350
 1.1400	56.6190
 1.1410	56.2020
 1.1420	55.7830
 1.1430	55.3630
 1.1440	54.9490
 1.1450	54.5300
 1.1460	54.1270
 1.1470	53.7240
 1.1480	53.3460
 1.1490	52.9770
 1.1500	52.6330
 1.1510	52.3070
 1.1520	51.9990
 1.1530	51.7090
 1.1540	51.4420
 1.1550	51.1940
 1.1560	50.9680
 1.1570	50.7610
 1.1580	50.5730
 1.1590	50.4030
 1.1600	50.2440
 1.1610	50.1040
 1.1620	49.9760
 1.1630	49.8570
 1.1640	49.7490
 1.1650	49.6480
 1.1660	49.5590
 1.1670	49.4750
 1.1680	49.4010
 1.1690	49.3280
 1.1700	49.2610
 1.1710	49.1960
 1.1720	49.1350
 1.1730	49.0740
 1.1740	49.0160
 1.1750	48.9570
 1.1760	48.8950
 1.1770	48.8360
 1.1780	48.7750
 1.1790	48.7130
 1.1800	48.6510
 1.1810	48.5860
 1.1820	48.5190
 1.1830	48.4550
 1.1840	48.3930
 1.1850	48.3350
 1.1860	48.2770
 1.1870	48.2210
 1.1880	48.1680
 1.1890	48.1160
 1.1900	48.0710
 1.1910	48.0320
 1.1920	47.9960
 1.1930	47.9640
 1.1940	47.9360
 1.1950	47.9130
 1.1960	47.8920
 1.1970	47.8780
 1.1980	47.8690
 1.1990	47.8650
 1.2000	47.8680
 1.2010	47.8740
 1.2020	47.8840
 1.2030	47.8980
 1.2040	47.9180
 1.2050	47.9410
 1.2060	47.9690
 1.2070	48.0000
 1.2080	48.0350
 1.2090	48.0750
 1.2100	48.1180
 1.2110	48.1660
 1.2120	48.2190
 1.2130	48.2750
 1.2140	48.3370
 1.2150	48.4010
 1.2160	48.4690
 1.2170	48.5390
 1.2180	48.6120
 1.2190	48.6890
 1.2200	48.7670
 1.2210	48.8500
 1.2220	48.9310
 1.2230	49.0110
 1.2240	49.0920
 1.2250	49.1700
 1.2260	49.2480
 1.2270	49.3270
 1.2280	49.4040
 1.2290	49.4800
 1.2300	49.5570
 1.2310	49.6330
 1.2320	49.7080
 1.2330	49.7790
 1.2340	49.8470
 1.2350	49.9110
 1.2360	49.9760
 1.2370	50.0400
 1.2380	50.1020
 1.2390	50.1660
 1.2400	50.2270
 1.2410	50.2860
 1.2420	50.3410
 1.2430	50.3980
 1.2440	50.4520
 1.2450	50.5000
 1.2460	50.5510
 1.2470	50.5990
 1.2480	50.6440
 1.2490	50.6900
 1.2500	50.7350
 1.2510	50.7760
 1.2520	50.8160
 1.2530	50.8540
 1.2540	50.8890
 1.2550	50.9200
 1.2560	50.9510
 1.2570	50.9800
 1.2580	51.0060
 1.2590	51.0320
 1.2600	51.0560
 1.2610	51.0780
 1.2620	51.0980
 1.2630	51.1160
 1.2640	51.1310
 1.2650	51.1450
 1.2660	51.1560
 1.2670	51.1640
 1.2680	51.1690
 1.2690	51.1710
 1.2700	51.1710
 1.2710	51.1700
 1.2720	51.1650
 1.2730	51.1560
 1.2740	51.1460
 1.2750	51.1310
 1.2760	51.1140
 1.2770	51.0950
 1.2780	51.0730
 1.2790	51.0480
 1.2800	51.0220
 1.2810	50.9940
 1.2820	50.9610
 1.2830	50.9220
 1.2840	50.8810
 1.2850	50.8370
 1.2860	50.7870
 1.2870	50.7330
 1.2880	50.6750
 1.2890	50.6110
 1.2900	50.5430
 1.2910	50.4720
 1.2920	50.3930
 1.2930	50.3100
 1.2940	50.2230
 1.2950	50.1270
 1.2960	50.0270
 1.2970	49.9220
 1.2980	49.8070
 1.2990	49.6880
 1.3000	49.5670
 1.3010	49.4390
 1.3020	49.3050
 1.3030	49.1650
 1.3040	49.0190
 1.3050	48.8640
 1.3060	48.7050
 1.3070	48.5380
 1.3080	48.3650
 1.3090	48.1870
 1.3100	48.0040
 1.3110	47.8150
 1.3120	47.6200
 1.3130	47.4190
 1.3140	47.2120
 1.3150	46.9990
 1.3160	46.7810
 1.3170	46.5580
 1.3180	46.3300
 1.3190	46.0950
 1.3200	45.8570
 1.3210	45.6110
 1.3220	45.3590
 1.3230	45.1020
 1.3240	44.8390
 1.3250	44.5760
 1.3260	44.3100
 1.3270	44.0410
 1.3280	43.7720
 1.3290	43.4980
 1.3300	43.2220
 1.3310	42.9480
 1.3320	42.6700
 1.3330	42.3940
 1.3340	42.1210
 1.3350	41.8470
 1.3360	41.5750
 1.3370	41.3020
 1.3380	41.0320
 1.3390	40.7650
 1.3400	40.5010
 1.3410	40.2430
 1.3420	39.9880
 1.3430	39.7380
 1.3440	39.4930
 1.3450	39.2520
 1.3460	39.0170
 1.3470	38.7860
 1.3480	38.5570
 1.3490	38.3360
 1.3500	38.1200
 1.3510	37.9080
 1.3520	37.6980
 1.3530	37.4920
 1.3540	37.2850
 1.3550	37.0810
 1.3560	36.8780
 1.3570	36.6750
 1.3580	36.4730
 1.3590	36.2680
 1.3600	36.0600
 1.3610	35.8490
 1.3620	35.6320
 1.3630	35.4090
 1.3640	35.1810
 1.3650	34.9430
 1.3660	34.6980
 1.3670	34.4430
 1.3680	34.1760
 1.3690	33.8970
 1.3700	33.6010
 1.3710	33.2920
 1.3720	32.9670
 1.3730	32.6230
 1.3740	32.2660
 1.3750	31.8890
 1.3760	31.4900
 1.3770	31.0700
 1.3780	30.6230
 1.3790	30.1550
 1.3800	29.6680
 1.3810	29.1550
 1.3820	28.6290
 1.3830	28.0850
 1.3840	27.5270
 1.3850	26.9510
 1.3860	26.3700
 1.3870	25.7720
 1.3880	25.1800
 1.3890	24.5810
 1.3900	23.9820
 1.3910	23.3920
 1.3920	22.8060
 1.3930	22.2230
 1.3940	21.6540
 1.3950	21.0910
 1.3960	20.5440
 1.3970	20.0150
 1.3980	19.5030
 1.3990	19.0150
 1.4000	18.5460
 1.4010	18.0920
 1.4020	17.6630
 1.4030	17.2510
 1.4040	16.8600
 1.4050	16.4930
 1.4060	16.1450
 1.4070	15.8200
 1.4080	15.5140
 1.4090	15.2260
 1.4100	14.9560
 1.4110	14.7020
 1.4120	14.4640
 1.4130	14.2430
 1.4140	14.0370
 1.4150	13.8470
 1.4160	13.6710
 1.4170	13.5050
 1.4180	13.3510
 1.4190	13.2080
 1.4200	13.0740
 1.4210	12.9490
 1.4220	12.8340
 1.4230	12.7290
 1.4240	12.6310
 1.4250	12.5390
 1.4260	12.4560
 1.4270	12.3780
 1.4280	12.3070
 1.4290	12.2410
 1.4300	12.1820
 1.4310	12.1270
 1.4320	12.0780
 1.4330	12.0320
 1.4340	11.9920
 1.4350	11.9560
 1.4360	11.9240
 1.4370	11.8960
 1.4380	11.8710
 1.4390	11.8490
 1.4400	11.8300
 1.4410	11.8140
 1.4420	11.8010
 1.4430	11.7900
 1.4440	11.7820
 1.4450	11.7750
 1.4460	11.7700
 1.4470	11.7680
 1.4480	11.7660
 1.4490	11.7660
 1.4500	11.7680
 1.4510	11.7710
 1.4520	11.7770
 1.4530	11.7830
 1.4540	11.7910
 1.4550	11.8010
 1.4560	11.8120
 1.4570	11.8240
 1.4580	11.8390
 1.4590	11.8580
 1.4600	11.8790
 1.4610	11.9020
 1.4620	11.9280
 1.4630	11.9560
 1.4640	11.9880
 1.4650	12.0230
 1.4660	12.0620
 1.4670	12.1040
 1.4680	12.1500
 1.4690	12.1980
 1.4700	12.2490
 1.4710	12.3040
 1.4720	12.3610
 1.4730	12.4210
 1.4740	12.4830
 1.4750	12.5480
 1.4760	12.6160
 1.4770	12.6860
 1.4780	12.7570
 1.4790	12.8310
 1.4800	12.9060
 1.4810	12.9820
 1.4820	13.0600
 1.4830	13.1390
 1.4840	13.2200
 1.4850	13.3020
 1.4860	13.3850
 1.4870	13.4700
 1.4880	13.5540
 1.4890	13.6390
 1.4900	13.7270
 1.4910	13.8160
 1.4920	13.9050
 1.4930	13.9960
 1.4940	14.0880
 1.4950	14.1790
 1.4960	14.2700
 1.4970	14.3630
 1.4980	14.4550
 1.4990	14.5470
 1.5000	14.6410
 1.5010	14.7360
 1.5020	14.8300
 1.5030	14.9250
 1.5040	15.0190
 1.5050	15.1130
 1.5060	15.2080
 1.5070	15.3020
 1.5080	15.3970
 1.5090	15.4920
 1.5100	15.5870
 1.5110	15.6830
 1.5120	15.7790
 1.5130	15.8740
 1.5140	15.9680
 1.5150	16.0620
 1.5160	16.1550
 1.5170	16.2490
 1.5180	16.3430
 1.5190	16.4360
 1.5200	16.5280
 1.5210	16.6190
 1.5220	16.7090
 1.5230	16.8000
 1.5240	16.8900
 1.5250	16.9800
 1.5260	17.0690
 1.5270	17.1570
 1.5280	17.2450
 1.5290	17.3320
 1.5300	17.4200
 1.5310	17.5070
 1.5320	17.5930
 1.5330	17.6790
 1.5340	17.7640
 1.5350	17.8480
 1.5360	17.9330
 1.5370	18.0170
 1.5380	18.1010
 1.5390	18.1840
 1.5400	18.2660
 1.5410	18.3490
 1.5420	18.4290
 1.5430	18.5100
 1.5440	18.5920
 1.5450	18.6710
 1.5460	18.7500
 1.5470	18.8300
 1.5480	18.9080
 1.5490	18.9860
 1.5500	19.0650
 1.5510	19.1420
 1.5520	19.2180
 1.5530	19.2950
 1.5540	19.3700
 1.5550	19.4470
 1.5560	19.5230
 1.5570	19.5980
 1.5580	19.6720
 1.5590	19.7440
 1.5600	19.8160
 1.5610	19.8870
 1.5620	19.9600
 1.5630	20.0320
 1.5640	20.1040
 1.5650	20.1750
 1.5660	20.2470
 1.5670	20.3160
 1.5680	20.3870
 1.5690	20.4560
 1.5700	20.5250
 1.5710	20.5960
 1.5720	20.6650
 1.5730	20.7350
 1.5740	20.8030
 1.5750	20.8710
 1.5760	20.9380
 1.5770	21.0070
 1.5780	21.0750
 1.5790	21.1410
 1.5800	21.2070
 1.5810	21.2740
 1.5820	21.3400
 1.5830	21.4070
 1.5840	21.4750
 1.5850	21.5420
 1.5860	21.6090
 1.5870	21.6780
 1.5880	21.7450
 1.5890	21.8130
 1.5900	21.8830
 1.5910	21.9510
 1.5920	22.0200
 1.5930	22.0880
 1.5940	22.1560
 1.5950	22.2240
 1.5960	22.2930
 1.5970	22.3620
 1.5980	22.4310
 1.5990	22.4990
 1.6000	22.5670
 1.6010	22.6370
 1.6020	22.7050
 1.6030	22.7740
 1.6040	22.8430
 1.6050	22.9110
 1.6060	22.9780
 1.6070	23.0440
 1.6080	23.1090
 1.6090	23.1720
 1.6100	23.2350
 1.6110	23.2990
 1.6120	23.3600
 1.6130	23.4220
 1.6140	23.4840
 1.6150	23.5450
 1.6160	23.6050
 1.6170	23.6630
 1.6180	23.7200
 1.6190	23.7770
 1.6200	23.8320
 1.6210	23.8870
 1.6220	23.9420
 1.6230	23.9940
 1.6240	24.0470
 1.6250	24.0990
 1.6260	24.1490
 1.6270	24.1980
 1.6280	24.2470
 1.6290	24.2940
 1.6300	24.3410
 1.6310	24.3880
 1.6320	24.4340
 1.6330	24.4790
 1.6340	24.5230
 1.6350	24.5680
 1.6360	24.6110
 1.6370	24.6540
 1.6380	24.6960
 1.6390	24.7360
 1.6400	24.7750
 1.6410	24.8110
 1.6420	24.8470
 1.6430	24.8780
 1.6440	24.9070
 1.6450	24.9320
 1.6460	24.9540
 1.6470	24.9760
 1.6480	24.9970
 1.6490	25.0140
 1.6500	25.0300
 1.6510	25.0420
 1.6520	25.0500
 1.6530	25.0580
 1.6540	25.0650
 1.6550	25.0690
 1.6560	25.0710
 1.6570	25.0710
 1.6580	25.0720
 1.6590	25.0700
 1.6600	25.0690
 1.6610	25.0680
 1.6620	25.0640
 1.6630	25.0610
 1.6640	25.0600
 1.6650	25.0580
 1.6660	25.0570
 1.6670	25.0550
 1.6680	25.0530
 1.6690	25.0490
 1.6700	25.0460
 1.6710	25.0430
 1.6720	25.0390
 1.6730	25.0370
 1.6740	25.0320
 1.6750	25.0250
 1.6760	25.0180
 1.6770	25.0080
 1.6780	24.9970
 1.6790	24.9860
 1.6800	24.9720
 1.6810	24.9560
 1.6820	24.9360
 1.6830	24.9110
 1.6840	24.8850
 1.6850	24.8560
 1.6860	24.8230
 1.6870	24.7890
 1.6880	24.7540
 1.6890	24.7150
 1.6900	24.6740
 1.6910	24.6310
 1.6920	24.5890
 1.6930	24.5460
 1.6940	24.5030
 1.6950	24.4610
 1.6960	24.4170
 1.6970	24.3730
 1.6980	24.3270
 1.6990	24.2800
 1.7000	24.2330
 1.7010	24.1840
 1.7020	24.1390
 1.7030	24.0940
 1.7040	24.0510
 1.7050	24.0090
 1.7060	23.9660
 1.7070	23.9230
 1.7080	23.8820
 1.7090	23.8420
 1.7100	23.8000
 1.7110	23.7580
 1.7120	23.7150
 1.7130	23.6710
 1.7140	23.6290
 1.7150	23.5870
 1.7160	23.5420
 1.7170	23.4950
 1.7180	23.4450
 1.7190	23.3970
 1.7200	23.3510
 1.7210	23.3020
 1.7220	23.2520
 1.7230	23.2000
 1.7240	23.1460
 1.7250	23.0950
 1.7260	23.0450
 1.7270	22.9960
 1.7280	22.9480
 1.7290	22.8980
 1.7300	22.8480
 1.7310	22.8000
 1.7320	22.7510
 1.7330	22.7040
 1.7340	22.6610
 1.7350	22.6140
 1.7360	22.5670
 1.7370	22.5180
 1.7380	22.4660
 1.7390	22.4130
 1.7400	22.3590
 1.7410	22.3040
 1.7420	22.2490
 1.7430	22.1920
 1.7440	22.1330
 1.7450	22.0760
 1.7460	22.0180
 1.7470	21.9610
 1.7480	21.9070
 1.7490	21.8500
 1.7500	21.7930
 1.7510	21.7360
 1.7520	21.6780
 1.7530	21.6210
 1.7540	21.5640
 1.7550	21.5080
 1.7560	21.4530
 1.7570	21.4010
 1.7580	21.3500
 1.7590	21.2980
 1.7600	21.2470
 1.7610	21.1960
 1.7620	21.1470
 1.7630	21.1000
 1.7640	21.0550
 1.7650	21.0110
 1.7660	20.9690
 1.7670	20.9300
 1.7680	20.8910
 1.7690	20.8540
 1.7700	20.8180
 1.7710	20.7800
 1.7720	20.7460
 1.7730	20.7160
 1.7740	20.6850
 1.7750	20.6550
 1.7760	20.6270
 1.7770	20.5990
 1.7780	20.5750
 1.7790	20.5560
 1.7800	20.5360
 1.7810	20.5170
 1.7820	20.5000
 1.7830	20.4850
 1.7840	20.4740
 1.7850	20.4660
 1.7860	20.4590
 1.7870	20.4550
 1.7880	20.4520
 1.7890	20.4500
 1.7900	20.4500
 1.7910	20.4510
 1.7920	20.4530
 1.7930	20.4570
 1.7940	20.4630
 1.7950	20.4700
 1.7960	20.4780
 1.7970	20.4870
 1.7980	20.4970
 1.7990	20.5070
 1.8000	20.5180
 1.8010	20.5290
 1.8020	20.5420
 1.8030	20.5540
 1.8040	20.5670
 1.8050	20.5790
 1.8060	20.5910
 1.8070	20.6030
 1.8080	20.6140
 1.8090	20.6240
 1.8100	20.6340
 1.8110	20.6430
 1.8120	20.6500
 1.8130	20.6560
 1.8140	20.6640
 1.8150	20.6730
 1.8160	20.6790
 1.8170	20.6850
 1.8180	20.6910
 1.8190	20.6960
 1.8200	20.7000
 1.8210	20.7050
 1.8220	20.7080
 1.8230	20.7120
 1.8240	20.7140
 1.8250	20.7160
 1.8260	20.7160
 1.8270	20.6830
 1.8280	20.6490
 1.8290	20.6160
 1.8300	20.5820
 1.8310	20.5490
 1.8320	20.5150
 1.8330	20.4820
 1.8340	20.4480
 1.8350	20.4480
 1.8360	20.4220
 1.8370	20.3920
 1.8380	20.3530
 1.8390	20.3110
 1.8400	20.2640
 1.8410	20.2140
 1.8420	20.1600
 1.8430	20.1010
 1.8440	20.0360
 1.8450	19.9650
 1.8460	19.8840
 1.8470	19.7960
 1.8480	19.7020
 1.8490	19.5990
 1.8500	19.4850
 1.8510	19.3620
 1.8520	19.2310
 1.8530	19.0890
 1.8540	18.9390
 1.8550	18.7790
 1.8560	18.6090
 1.8570	18.4270
 1.8580	18.2320
 1.8590	18.0270
 1.8600	17.8120
 1.8610	17.5840
 1.8620	17.3470
 1.8630	17.1010
 1.8640	16.8420
 1.8650	16.5710
 1.8660	16.2870
 1.8670	15.9890
 1.8680	15.6810
 1.8690	15.3610
 1.8700	15.0290
 1.8710	14.6860
 1.8720	14.3380
 1.8730	13.9780
 1.8740	13.6130
 1.8750	13.2480
 1.8760	12.8760
 1.8770	12.5070
 1.8780	12.1380
 1.8790	11.7690
 1.8800	11.4100
 1.8810	11.0580
 1.8820	10.7050
 1.8830	10.3590
 1.8840	10.0200
 1.8850	 9.6820
 1.8860	 9.3560
 1.8870	 9.0410
 1.8880	 8.7350
 1.8890	 8.4460
 1.8900	 8.1690
 1.8910	 7.9060
 1.8920	 7.6540
 1.8930	 7.4200
 1.8940	 7.1990
 1.8950	 6.9920
 1.8960	 6.7970
 1.8970	 6.6170
 1.8980	 6.4530
 1.8990	 6.3020
 1.9000	 6.1620
 1.9010	 6.0400
 1.9020	 5.9240
 1.9030	 5.8160
 1.9040	 5.7170
 1.9050	 5.6280
 1.9060	 5.5470
 1.9070	 5.4770
 1.9080	 5.4150
 1.9090	 5.3600
 1.9100	 5.3080
 1.9110	 5.2600
 1.9120	 5.2170
 1.9130	 5.1770
 1.9140	 5.1430
 1.9150	 5.1130
 1.9160	 5.0860
 1.9170	 5.0620
 1.9180	 5.0420
 1.9190	 5.0240
 1.9200	 5.0110
 1.9210	 4.9980
 1.9220	 4.9870
 1.9230	 4.9790
 1.9240	 4.9710
 1.9250	 4.9620
 1.9260	 4.9570
 1.9270	 4.9520
 1.9280	 4.9460
 1.9290	 4.9460
 1.9300	 4.9460
 1.9310	 4.9470
 1.9320	 4.9490
 1.9330	 4.9540
 1.9340	 4.9610
 1.9350	 4.9690
 1.9360	 4.9790
 1.9370	 4.9890
 1.9380	 5.0000
 1.9390	 5.0110
 1.9400	 5.0230
 1.9410	 5.0370
 1.9420	 5.0500
 1.9430	 5.0630
 1.9440	 5.0790
 1.9450	 5.0980
 1.9460	 5.1160
 1.9470	 5.1380
 1.9480	 5.1570
 1.9490	 5.1770
 1.9500	 5.1950
 1.9510	 5.2140
 1.9520	 5.2360
 1.9530	 5.2580
 1.9540	 5.2810
 1.9550	 5.3040
 1.9560	 5.3290
 1.9570	 5.3530
 1.9580	 5.3770
 1.9590	 5.4030
 1.9600	 5.4270
 1.9610	 5.4540
 1.9620	 5.4820
 1.9630	 5.5120
 1.9640	 5.5420
 1.9650	 5.5730
 1.9660	 5.6020
 1.9670	 5.6320
 1.9680	 5.6620
 1.9690	 5.6900
 1.9700	 5.7220
 1.9710	 5.7550
 1.9720	 5.7890
 1.9730	 5.8250
 1.9740	 5.8620
 1.9750	 5.8970
 1.9760	 5.9280
 1.9770	 5.9590
 1.9780	 5.9910
 1.9790	 6.0250
 1.9800	 6.0630
 1.9810	 6.1000
 1.9820	 6.1400
 1.9830	 6.1780
 1.9840	 6.2160
 1.9850	 6.2530
 1.9860	 6.2900
 1.9870	 6.3270
 1.9880	 6.3660
 1.9890	 6.4060
 1.9900	 6.4490
 1.9910	 6.4920
 1.9920	 6.5330
 1.9930	 6.5720
 1.9940	 6.6120
 1.9950	 6.6510
 1.9960	 6.6910
 1.9970	 6.7320
 1.9980	 6.7720
 1.9990	 6.8140
 2.0000	 6.8540
 2.0010	 6.8930
 2.0020	 6.9340
 2.0030	 6.9740
 2.0040	 7.0160
 2.0050	 7.0570
 2.0060	 7.1000
 2.0070	 7.1420
 2.0080	 7.1810
 2.0090	 7.2210
 2.0100	 7.2610
 2.0110	 7.3000
 2.0120	 7.3390
 2.0130	 7.3780
 2.0140	 7.4150
 2.0150	 7.4530
 2.0160	 7.4900
 2.0170	 7.5250
 2.0180	 7.5630
 2.0190	 7.6040
 2.0200	 7.6400
 2.0210	 7.6760
 2.0220	 7.7110
 2.0230	 7.7420
 2.0240	 7.7740
 2.0250	 7.8080
 2.0260	 7.8400
 2.0270	 7.8720
 2.0280	 7.9020
 2.0290	 7.9340
 2.0300	 7.9680
 2.0310	 7.9990
 2.0320	 8.0310
 2.0330	 8.0600
 2.0340	 8.0860
 2.0350	 8.1130
 2.0360	 8.1390
 2.0370	 8.1650
 2.0380	 8.1930
 2.0390	 8.2190
 2.0400	 8.2430
 2.0410	 8.2670
 2.0420	 8.2920
 2.0430	 8.3150
 2.0440	 8.3380
 2.0450	 8.3610
 2.0460	 8.3830
 2.0470	 8.4020
 2.0480	 8.4240
 2.0490	 8.4470
 2.0500	 8.4680
 2.0510	 8.4890
 2.0520	 8.5090
 2.0530	 8.5260
 2.0540	 8.5460
 2.0550	 8.5660
 2.0560	 8.5880
 2.0570	 8.6090
 2.0580	 8.6290
 2.0590	 8.6490
 2.0600	 8.6680
 2.0610	 8.6880
 2.0620	 8.7100
 2.0630	 8.7300
 2.0640	 8.7490
 2.0650	 8.7680
 2.0660	 8.7850
 2.0670	 8.8030
 2.0680	 8.8220
 2.0690	 8.8400
 2.0700	 8.8540
 2.0710	 8.8720
 2.0720	 8.8930
 2.0730	 8.9150
 2.0740	 8.9370
 2.0750	 8.9630
 2.0760	 8.9850
 2.0770	 9.0050
 2.0780	 9.0240
 2.0790	 9.0420
 2.0800	 9.0600
 2.0810	 9.0770
 2.0820	 9.0940
 2.0830	 9.1100
 2.0840	 9.1280
 2.0850	 9.1480
 2.0860	 9.1680
 2.0870	 9.1890
 2.0880	 9.2120
 2.0890	 9.2320
 2.0900	 9.2510
 2.0910	 9.2730
 2.0920	 9.2950
 2.0930	 9.3170
 2.0940	 9.3410
 2.0950	 9.3640
 2.0960	 9.3880
 2.0970	 9.4090
 2.0980	 9.4300
 2.0990	 9.4500
 2.1000	 9.4670
 2.1010	 9.4880
 2.1020	 9.5120
 2.1030	 9.5340
 2.1040	 9.5550
 2.1050	 9.5780
 2.1060	 9.6000
 2.1070	 9.6200
 2.1080	 9.6420
 2.1090	 9.6650
 2.1100	 9.6870
 2.1110	 9.7090
 2.1120	 9.7310
 2.1130	 9.7510
 2.1140	 9.7740
 2.1150	 9.7960
 2.1160	 9.8200
 2.1170	 9.8480
 2.1180	 9.8740
 2.1190	 9.9030
 2.1200	 9.9280
 2.1210	 9.9510
 2.1220	 9.9740
 2.1230	 9.9960
 2.1240	10.0150
 2.1250	10.0380
 2.1260	10.0630
 2.1270	10.0870
 2.1280	10.1110
 2.1290	10.1360
 2.1300	10.1630
 2.1310	10.1880
 2.1320	10.2150
 2.1330	10.2390
 2.1340	10.2610
 2.1350	10.2830
 2.1360	10.3040
 2.1370	10.3260
 2.1380	10.3470
 2.1390	10.3700
 2.1400	10.3940
 2.1410	10.4200
 2.1420	10.4430
 2.1430	10.4670
 2.1440	10.4900
 2.1450	10.5100
 2.1460	10.5330
 2.1470	10.5580
 2.1480	10.5820
 2.1490	10.6070
 2.1500	10.6330
 2.1510	10.6600
 2.1520	10.6860
 2.1530	10.7120
 2.1540	10.7370
 2.1550	10.7620
 2.1560	10.7860
 2.1570	10.8070
 2.1580	10.8290
 2.1590	10.8480
 2.1600	10.8700
 2.1610	10.8940
 2.1620	10.9170
 2.1630	10.9410
 2.1640	10.9680
 2.1650	10.9910
 2.1660	11.0120
 2.1670	11.0350
 2.1680	11.0560
 2.1690	11.0780
 2.1700	11.1030
 2.1710	11.1250
 2.1720	11.1410
 2.1730	11.1620
 2.1740	11.1850
 2.1750	11.2070
 2.1760	11.2350
 2.1770	11.2580
 2.1780	11.2770
 2.1790	11.2960
 2.1800	11.3100
 2.1810	11.3280
 2.1820	11.3490
 2.1830	11.3710
 2.1840	11.3940
 2.1850	11.4210
 2.1860	11.4430
 2.1870	11.4630
 2.1880	11.4830
 2.1890	11.5010
 2.1900	11.5210
 2.1910	11.5420
 2.1920	11.5640
 2.1930	11.5900
 2.1940	11.6100
 2.1950	11.6300
 2.1960	11.6480
 2.1970	11.6610
 2.1980	11.6770
 2.1990	11.6930
 2.2000	11.7100
 2.2010	11.7280
 2.2020	11.7450
 2.2030	11.7620
 2.2040	11.7790
 2.2050	11.7960
 2.2060	11.8120
 2.2070	11.8280
 2.2080	11.8440
 2.2090	11.8580
 2.2100	11.8730
 2.2110	11.8840
 2.2120	11.8930
 2.2130	11.9000
 2.2140	11.9030
 2.2150	11.9090
 2.2160	11.9150
 2.2170	11.9200
 2.2180	11.9290
 2.2190	11.9320
 2.2200	11.9320
 2.2210	11.9310
 2.2220	11.9280
 2.2230	11.9240
 2.2240	11.9210
 2.2250	11.9130
 2.2260	11.9020
 2.2270	11.8890
 2.2280	11.8710
 2.2290	11.8530
 2.2300	11.8350
 2.2310	11.8150
 2.2320	11.7960
 2.2330	11.7720
 2.2340	11.7480
 2.2350	11.7230
 2.2360	11.6940
 2.2370	11.6630
 2.2380	11.6300
 2.2390	11.5950
 2.2400	11.5600
 2.2410	11.5250
 2.2420	11.4870
 2.2430	11.4480
 2.2440	11.4070
 2.2450	11.3640
 2.2460	11.3180
 2.2470	11.2680
 2.2480	11.2200
 2.2490	11.1680
 2.2500	11.1190
 2.2510	11.0740
 2.2520	11.0240
 2.2530	10.9720
 2.2540	10.9180
 2.2550	10.8590
 2.2560	10.8050
 2.2570	10.7510
 2.2580	10.6990
 2.2590	10.6500
 2.2600	10.5980
 2.2610	10.5440
 2.2620	10.4910
 2.2630	10.4340
 2.2640	10.3830
 2.2650	10.3300
 2.2660	10.2750
 2.2670	10.2280
 2.2680	10.1840
 2.2690	10.1400
 2.2700	10.1010
 2.2710	10.0600
 2.2720	10.0170
 2.2730	 9.9810
 2.2740	 9.9510
 2.2750	 9.9200
 2.2760	 9.8920
 2.2770	 9.8630
 2.2780	 9.8340
 2.2790	 9.8060
 2.2800	 9.7790
 2.2810	 9.7550
 2.2820	 9.7350
 2.2830	 9.7120
 2.2840	 9.6940
 2.2850	 9.6720
 2.2860	 9.6460
 2.2870	 9.6220
 2.2880	 9.5970
 2.2890	 9.5760
 2.2900	 9.5590
 2.2910	 9.5410
 2.2920	 9.5270
 2.2930	 9.5060
 2.2940	 9.4760
 2.2950	 9.4510
 2.2960	 9.4240
 2.2970	 9.3960
 2.2980	 9.3700
 2.2990	 9.3430
 2.3000	 9.3100
 2.3010	 9.2730
 2.3020	 9.2360
 2.3030	 9.2020
 2.3040	 9.1720
 2.3050	 9.1420
 2.3060	 9.1100
 2.3070	 9.0790
 2.3080	 9.0510
 2.3090	 9.0260
 2.3100	 9.0050
 2.3110	 8.9860
 2.3120	 8.9680
 2.3130	 8.9500
 2.3140	 8.9320
 2.3150	 8.9180
 2.3160	 8.9020
 2.3170	 8.8840
 2.3180	 8.8670
 2.3190	 8.8480
 2.3200	 8.8340
 2.3210	 8.8210
 2.3220	 8.8060
 2.3230	 8.7970
 2.3240	 8.7800
 2.3250	 8.7580
 2.3260	 8.7360
 2.3270	 8.7110
 2.3280	 8.6890
 2.3290	 8.6700
 2.3300	 8.6480
 2.3310	 8.6230
 2.3320	 8.6030
 2.3330	 8.5820
 2.3340	 8.5600
 2.3350	 8.5420
 2.3360	 8.5230
 2.3370	 8.5040
 2.3380	 8.4820
 2.3390	 8.4580
 2.3400	 8.4370
 2.3410	 8.4160
 2.3420	 8.3930
 2.3430	 8.3750
 2.3440	 8.3510
 2.3450	 8.3150
 2.3460	 8.2880
 2.3470	 8.2650
 2.3480	 8.2440
 2.3490	 8.2310
 2.3500	 8.2110
 2.3510	 8.1840
 2.3520	 8.1630
 2.3530	 8.1390
 2.3540	 8.1200
 2.3550	 8.1070
 2.3560	 8.0980
 2.3570	 8.0860
 2.3580	 8.0680
 2.3590	 8.0510
 2.3600	 8.0330
 2.3610	 8.0150
 2.3620	 8.0040
 2.3630	 7.9870
 2.3640	 7.9730
 2.3650	 7.9620
 2.3660	 7.9390
 2.3670	 7.9150
 2.3680	 7.8820
 2.3690	 7.8400
 2.3700	 7.8070
 2.3710	 7.7780
 2.3720	 7.7490
 2.3730	 7.7320
 2.3740	 7.7140
 2.3750	 7.6980
 2.3760	 7.6850
 2.3770	 7.6590
 2.3780	 7.6240
 2.3790	 7.5940
 2.3800	 7.5620
 2.3810	 7.5310
 2.3820	 7.5200
 2.3830	 7.5070
 2.3840	 7.4820
 2.3850	 7.4670
 2.3860	 7.4470
 2.3870	 7.4190
 2.3880	 7.4040
 2.3890	 7.3820
 2.3900	 7.3490
 2.3910	 7.3220
 2.3920	 7.2950
 2.3930	 7.2640
 2.3940	 7.2430
 2.3950	 7.2270
 2.3960	 7.2070
 2.3970	 7.1860
 2.3980	 7.1680
 2.3990	 7.1450
 2.4000	 7.1150
 2.4010	 7.0930
 2.4020	 7.0730
 2.4030	 7.0520
 2.4040	 7.0300
 2.4050	 7.0010
 2.4060	 6.9640
 2.4070	 6.9230
 2.4080	 6.8810
 2.4090	 6.8510
 2.4100	 6.8370
 2.4110	 6.8170
 2.4120	 6.7990
 2.4130	 6.7860
 2.4140	 6.7460
 2.4150	 6.7190
 2.4160	 6.6980
 2.4170	 6.6520
 2.4180	 6.6230
 2.4190	 6.5970
 2.4200	 6.5610
 2.4210	 6.5440
 2.4220	 6.5200
 2.4230	 6.4940
 2.4240	 6.4680
 2.4250	 6.4250
 2.4260	 6.3950
 2.4270	 6.3740
 2.4280	 6.3430
 2.4290	 6.3220
 2.4300	 6.3000
 2.4310	 6.2640
 2.4320	 6.2410
 2.4330	 6.2320
 2.4340	 6.2110
 2.4350	 6.1880
 2.4360	 6.1580
 2.4370	 6.1180
 2.4380	 6.0830
 2.4390	 6.0510
 2.4400	 6.0190
 2.4410	 5.9990
 2.4420	 5.9800
 2.4430	 5.9500
 2.4440	 5.9260
 2.4450	 5.8840
 2.4460	 5.8450
 2.4470	 5.8260
 2.4480	 5.8090
 2.4490	 5.8090
 2.4500	 5.8060
 2.4510	 5.7910
 2.4520	 5.7680
 2.4530	 5.7350
 2.4540	 5.7010
 2.4550	 5.6640
 2.4560	 5.6530
 2.4570	 5.6370
 2.4580	 5.5980
 2.4590	 5.5800
 2.4600	 5.5420
 2.4610	 5.4980
 2.4620	 5.4830
 2.4630	 5.4600
 2.4640	 5.4320
 2.4650	 5.4130
 2.4660	 5.4010
 2.4670	 5.3850
 2.4680	 5.3860
 2.4690	 5.3800
 2.4700	 5.3650
 2.4710	 5.3450
 2.4720	 5.3210
 2.4730	 5.2940
 2.4740	 5.2710
 2.4750	 5.2360
 2.4760	 5.2230
 2.4770	 5.2260
 2.4780	 5.2150
 2.4790	 5.2200
 2.4800	 5.2010
 2.4810	 5.1420
 2.4820	 5.1120
 2.4830	 5.0870
 2.4840	 5.0830
 2.4850	 5.1280
 2.4860	 5.1590
 2.4870	 5.1550
 2.4880	 5.1480
 2.4890	 5.1530
 2.4900	 5.1370
 2.4910	 5.1310
 2.4920	 5.1250
 2.4930	 5.0800
 2.4940	 5.0400
 2.4950	 5.0100
 2.4960	 5.0140
 2.4970	 5.0360
 2.4980	 5.0320
 2.4990	 5.0420
 2.5000	 5.0430
