Name: Bambusa beecheyana
Type: vegetation
Class: Tree
Genus: Bambusa
Species: beecheyana
Sample No.: JPL134
Owner: JPL
Wavelength Range: VSWIR
Origin: 34.12719; -118.11127;; WGS84
Collection Date: 9/7/2016
Description: Samples were collected at the Huntington Garden in San Marino California as part of a JPL Subcontract studying HyTES imagery. Samples were taken to JPL and processed within 48 hours of collection. The same leaves were processed in the Nicolet and then measured using the ASD.
Measurement: Bidirectional reflectance
First Column: X
Second Column: Y
X Units: Wavelength (micrometer)
Y Units: Reflectance (percentage)
First X Value: 0.35
Last X Value: 2.5
Number of X Values: 2151
Additional Information: vegetation.tree.bambusa.beecheyana.vswir.jpl134.jpl.asd.ancillary.txt

 0.3500	 4.6340
 0.3510	 4.6670
 0.3520	 4.5140
 0.3530	 4.3490
 0.3540	 4.3350
 0.3550	 4.4650
 0.3560	 4.4090
 0.3570	 4.2640
 0.3580	 4.3130
 0.3590	 4.3220
 0.3600	 4.3410
 0.3610	 4.3900
 0.3620	 4.4030
 0.3630	 4.3210
 0.3640	 4.2560
 0.3650	 4.3000
 0.3660	 4.2970
 0.3670	 4.3080
 0.3680	 4.3200
 0.3690	 4.2770
 0.3700	 4.2750
 0.3710	 4.2900
 0.3720	 4.2910
 0.3730	 4.2640
 0.3740	 4.2660
 0.3750	 4.2860
 0.3760	 4.2850
 0.3770	 4.2250
 0.3780	 4.2110
 0.3790	 4.2370
 0.3800	 4.2060
 0.3810	 4.1980
 0.3820	 4.2440
 0.3830	 4.3190
 0.3840	 4.2770
 0.3850	 4.2690
 0.3860	 4.2790
 0.3870	 4.2430
 0.3880	 4.2230
 0.3890	 4.2360
 0.3900	 4.2630
 0.3910	 4.2570
 0.3920	 4.2240
 0.3930	 4.2260
 0.3940	 4.2810
 0.3950	 4.2800
 0.3960	 4.2720
 0.3970	 4.2700
 0.3980	 4.2690
 0.3990	 4.2550
 0.4000	 4.2530
 0.4010	 4.2740
 0.4020	 4.3130
 0.4030	 4.3020
 0.4040	 4.2770
 0.4050	 4.2830
 0.4060	 4.3180
 0.4070	 4.3420
 0.4080	 4.3540
 0.4090	 4.3750
 0.4100	 4.3720
 0.4110	 4.3760
 0.4120	 4.4020
 0.4130	 4.4270
 0.4140	 4.4480
 0.4150	 4.4540
 0.4160	 4.4430
 0.4170	 4.4600
 0.4180	 4.4660
 0.4190	 4.4640
 0.4200	 4.4910
 0.4210	 4.5150
 0.4220	 4.5260
 0.4230	 4.5290
 0.4240	 4.5490
 0.4250	 4.5650
 0.4260	 4.5780
 0.4270	 4.5940
 0.4280	 4.6070
 0.4290	 4.6180
 0.4300	 4.6270
 0.4310	 4.6250
 0.4320	 4.6320
 0.4330	 4.6410
 0.4340	 4.6440
 0.4350	 4.6430
 0.4360	 4.6540
 0.4370	 4.6710
 0.4380	 4.6810
 0.4390	 4.6860
 0.4400	 4.6940
 0.4410	 4.7090
 0.4420	 4.7250
 0.4430	 4.7310
 0.4440	 4.7310
 0.4450	 4.7330
 0.4460	 4.7470
 0.4470	 4.7590
 0.4480	 4.7630
 0.4490	 4.7710
 0.4500	 4.7830
 0.4510	 4.7920
 0.4520	 4.7960
 0.4530	 4.8010
 0.4540	 4.8080
 0.4550	 4.8160
 0.4560	 4.8240
 0.4570	 4.8300
 0.4580	 4.8370
 0.4590	 4.8440
 0.4600	 4.8400
 0.4610	 4.8410
 0.4620	 4.8470
 0.4630	 4.8530
 0.4640	 4.8570
 0.4650	 4.8570
 0.4660	 4.8550
 0.4670	 4.8600
 0.4680	 4.8580
 0.4690	 4.8550
 0.4700	 4.8570
 0.4710	 4.8620
 0.4720	 4.8680
 0.4730	 4.8690
 0.4740	 4.8650
 0.4750	 4.8660
 0.4760	 4.8660
 0.4770	 4.8660
 0.4780	 4.8700
 0.4790	 4.8750
 0.4800	 4.8790
 0.4810	 4.8780
 0.4820	 4.8750
 0.4830	 4.8760
 0.4840	 4.8810
 0.4850	 4.8860
 0.4860	 4.8910
 0.4870	 4.8950
 0.4880	 4.8980
 0.4890	 4.9170
 0.4900	 4.9330
 0.4910	 4.9430
 0.4920	 4.9500
 0.4930	 4.9720
 0.4940	 4.9960
 0.4950	 5.0170
 0.4960	 5.0450
 0.4970	 5.0700
 0.4980	 5.0970
 0.4990	 5.1320
 0.5000	 5.1680
 0.5010	 5.2100
 0.5020	 5.2590
 0.5030	 5.3100
 0.5040	 5.3680
 0.5050	 5.4340
 0.5060	 5.5070
 0.5070	 5.5890
 0.5080	 5.6760
 0.5090	 5.7730
 0.5100	 5.8810
 0.5110	 6.0020
 0.5120	 6.1340
 0.5130	 6.2770
 0.5140	 6.4300
 0.5150	 6.6000
 0.5160	 6.7820
 0.5170	 6.9720
 0.5180	 7.1730
 0.5190	 7.3840
 0.5200	 7.6040
 0.5210	 7.8300
 0.5220	 8.0610
 0.5230	 8.2920
 0.5240	 8.5160
 0.5250	 8.7360
 0.5260	 8.9530
 0.5270	 9.1630
 0.5280	 9.3620
 0.5290	 9.5450
 0.5300	 9.7150
 0.5310	 9.8770
 0.5320	10.0270
 0.5330	10.1600
 0.5340	10.2810
 0.5350	10.3930
 0.5360	10.4940
 0.5370	10.5860
 0.5380	10.6680
 0.5390	10.7430
 0.5400	10.8140
 0.5410	10.8810
 0.5420	10.9450
 0.5430	11.0020
 0.5440	11.0520
 0.5450	11.0940
 0.5460	11.1290
 0.5470	11.1580
 0.5480	11.1840
 0.5490	11.2110
 0.5500	11.2340
 0.5510	11.2470
 0.5520	11.2490
 0.5530	11.2400
 0.5540	11.2190
 0.5550	11.1880
 0.5560	11.1460
 0.5570	11.0890
 0.5580	11.0200
 0.5590	10.9410
 0.5600	10.8510
 0.5610	10.7490
 0.5620	10.6410
 0.5630	10.5250
 0.5640	10.3950
 0.5650	10.2620
 0.5660	10.1240
 0.5670	 9.9780
 0.5680	 9.8310
 0.5690	 9.6830
 0.5700	 9.5340
 0.5710	 9.3890
 0.5720	 9.2520
 0.5730	 9.1190
 0.5740	 8.9930
 0.5750	 8.8800
 0.5760	 8.7770
 0.5770	 8.6760
 0.5780	 8.5750
 0.5790	 8.4840
 0.5800	 8.3960
 0.5810	 8.3120
 0.5820	 8.2320
 0.5830	 8.1580
 0.5840	 8.0890
 0.5850	 8.0250
 0.5860	 7.9620
 0.5870	 7.9020
 0.5880	 7.8440
 0.5890	 7.7890
 0.5900	 7.7450
 0.5910	 7.7110
 0.5920	 7.6840
 0.5930	 7.6550
 0.5940	 7.6260
 0.5950	 7.5990
 0.5960	 7.5730
 0.5970	 7.5470
 0.5980	 7.5220
 0.5990	 7.4960
 0.6000	 7.4680
 0.6010	 7.4370
 0.6020	 7.4020
 0.6030	 7.3620
 0.6040	 7.3170
 0.6050	 7.2700
 0.6060	 7.2190
 0.6070	 7.1600
 0.6080	 7.0960
 0.6090	 7.0310
 0.6100	 6.9650
 0.6110	 6.8980
 0.6120	 6.8320
 0.6130	 6.7680
 0.6140	 6.7050
 0.6150	 6.6430
 0.6160	 6.5860
 0.6170	 6.5300
 0.6180	 6.4730
 0.6190	 6.4280
 0.6200	 6.3860
 0.6210	 6.3460
 0.6220	 6.3110
 0.6230	 6.2820
 0.6240	 6.2580
 0.6250	 6.2380
 0.6260	 6.2200
 0.6270	 6.2050
 0.6280	 6.1920
 0.6290	 6.1810
 0.6300	 6.1670
 0.6310	 6.1550
 0.6320	 6.1440
 0.6330	 6.1280
 0.6340	 6.1070
 0.6350	 6.0790
 0.6360	 6.0440
 0.6370	 6.0050
 0.6380	 5.9590
 0.6390	 5.9090
 0.6400	 5.8550
 0.6410	 5.8010
 0.6420	 5.7450
 0.6430	 5.6880
 0.6440	 5.6310
 0.6450	 5.5750
 0.6460	 5.5190
 0.6470	 5.4660
 0.6480	 5.4190
 0.6490	 5.3770
 0.6500	 5.3400
 0.6510	 5.3090
 0.6520	 5.2840
 0.6530	 5.2620
 0.6540	 5.2380
 0.6550	 5.2100
 0.6560	 5.1820
 0.6570	 5.1510
 0.6580	 5.1160
 0.6590	 5.0810
 0.6600	 5.0450
 0.6610	 5.0070
 0.6620	 4.9710
 0.6630	 4.9370
 0.6640	 4.9070
 0.6650	 4.8840
 0.6660	 4.8620
 0.6670	 4.8440
 0.6680	 4.8300
 0.6690	 4.8220
 0.6700	 4.8170
 0.6710	 4.8160
 0.6720	 4.8200
 0.6730	 4.8260
 0.6740	 4.8350
 0.6750	 4.8470
 0.6760	 4.8620
 0.6770	 4.8780
 0.6780	 4.8990
 0.6790	 4.9250
 0.6800	 4.9530
 0.6810	 4.9850
 0.6820	 5.0210
 0.6830	 5.0650
 0.6840	 5.1160
 0.6850	 5.1760
 0.6860	 5.2480
 0.6870	 5.3360
 0.6880	 5.4450
 0.6890	 5.5820
 0.6900	 5.7540
 0.6910	 5.9660
 0.6920	 6.2240
 0.6930	 6.5360
 0.6940	 6.9070
 0.6950	 7.3390
 0.6960	 7.8320
 0.6970	 8.3830
 0.6980	 8.9920
 0.6990	 9.6520
 0.7000	10.3530
 0.7010	11.0870
 0.7020	11.8430
 0.7030	12.6130
 0.7040	13.3920
 0.7050	14.1730
 0.7060	14.9490
 0.7070	15.7190
 0.7080	16.4810
 0.7090	17.2330
 0.7100	17.9760
 0.7110	18.7120
 0.7120	19.4410
 0.7130	20.1580
 0.7140	20.8660
 0.7150	21.5660
 0.7160	22.2570
 0.7170	22.9390
 0.7180	23.6080
 0.7190	24.2680
 0.7200	24.9170
 0.7210	25.5550
 0.7220	26.1780
 0.7230	26.7860
 0.7240	27.3790
 0.7250	27.9550
 0.7260	28.5130
 0.7270	29.0530
 0.7280	29.5730
 0.7290	30.0750
 0.7300	30.5560
 0.7310	31.0160
 0.7320	31.4570
 0.7330	31.8790
 0.7340	32.2810
 0.7350	32.6640
 0.7360	33.0240
 0.7370	33.3650
 0.7380	33.6880
 0.7390	33.9940
 0.7400	34.2820
 0.7410	34.5520
 0.7420	34.8060
 0.7430	35.0400
 0.7440	35.2590
 0.7450	35.4630
 0.7460	35.6530
 0.7470	35.8280
 0.7480	35.9890
 0.7490	36.1380
 0.7500	36.2730
 0.7510	36.3970
 0.7520	36.5120
 0.7530	36.6200
 0.7540	36.7180
 0.7550	36.8060
 0.7560	36.8840
 0.7570	36.9550
 0.7580	37.0200
 0.7590	37.0800
 0.7600	37.1370
 0.7610	37.1890
 0.7620	37.2350
 0.7630	37.2760
 0.7640	37.3140
 0.7650	37.3480
 0.7660	37.3780
 0.7670	37.4040
 0.7680	37.4290
 0.7690	37.4510
 0.7700	37.4720
 0.7710	37.4910
 0.7720	37.5060
 0.7730	37.5170
 0.7740	37.5290
 0.7750	37.5450
 0.7760	37.5550
 0.7770	37.5650
 0.7780	37.5750
 0.7790	37.5840
 0.7800	37.5900
 0.7810	37.5960
 0.7820	37.6000
 0.7830	37.6040
 0.7840	37.6080
 0.7850	37.6110
 0.7860	37.6140
 0.7870	37.6130
 0.7880	37.6140
 0.7890	37.6150
 0.7900	37.6090
 0.7910	37.6070
 0.7920	37.6070
 0.7930	37.6040
 0.7940	37.5970
 0.7950	37.5900
 0.7960	37.5850
 0.7970	37.5820
 0.7980	37.5750
 0.7990	37.5650
 0.8000	37.5550
 0.8010	37.5470
 0.8020	37.5370
 0.8030	37.5250
 0.8040	37.5120
 0.8050	37.4990
 0.8060	37.4890
 0.8070	37.4760
 0.8080	37.4620
 0.8090	37.4470
 0.8100	37.4350
 0.8110	37.4230
 0.8120	37.4090
 0.8130	37.3910
 0.8140	37.3750
 0.8150	37.3600
 0.8160	37.3440
 0.8170	37.3310
 0.8180	37.3150
 0.8190	37.2980
 0.8200	37.2850
 0.8210	37.2680
 0.8220	37.2500
 0.8230	37.2310
 0.8240	37.2140
 0.8250	37.1990
 0.8260	37.1820
 0.8270	37.1650
 0.8280	37.1560
 0.8290	37.1430
 0.8300	37.1250
 0.8310	37.1090
 0.8320	37.0950
 0.8330	37.0820
 0.8340	37.0670
 0.8350	37.0520
 0.8360	37.0410
 0.8370	37.0290
 0.8380	37.0160
 0.8390	37.0050
 0.8400	36.9940
 0.8410	36.9840
 0.8420	36.9760
 0.8430	36.9690
 0.8440	36.9610
 0.8450	36.9530
 0.8460	36.9460
 0.8470	36.9370
 0.8480	36.9290
 0.8490	36.9230
 0.8500	36.9190
 0.8510	36.9120
 0.8520	36.9070
 0.8530	36.9040
 0.8540	36.8990
 0.8550	36.8940
 0.8560	36.8900
 0.8570	36.8890
 0.8580	36.8910
 0.8590	36.8940
 0.8600	36.8940
 0.8610	36.8920
 0.8620	36.8940
 0.8630	36.8920
 0.8640	36.8910
 0.8650	36.8940
 0.8660	36.8930
 0.8670	36.8940
 0.8680	36.8990
 0.8690	36.9030
 0.8700	36.9040
 0.8710	36.9060
 0.8720	36.9110
 0.8730	36.9170
 0.8740	36.9210
 0.8750	36.9260
 0.8760	36.9310
 0.8770	36.9370
 0.8780	36.9470
 0.8790	36.9540
 0.8800	36.9570
 0.8810	36.9640
 0.8820	36.9740
 0.8830	36.9830
 0.8840	36.9910
 0.8850	36.9980
 0.8860	37.0030
 0.8870	37.0070
 0.8880	37.0140
 0.8890	37.0200
 0.8900	37.0300
 0.8910	37.0400
 0.8920	37.0460
 0.8930	37.0560
 0.8940	37.0640
 0.8950	37.0690
 0.8960	37.0770
 0.8970	37.0870
 0.8980	37.0950
 0.8990	37.1030
 0.9000	37.1130
 0.9010	37.1180
 0.9020	37.1210
 0.9030	37.1260
 0.9040	37.1390
 0.9050	37.1500
 0.9060	37.1560
 0.9070	37.1550
 0.9080	37.1570
 0.9090	37.1640
 0.9100	37.1720
 0.9110	37.1780
 0.9120	37.1760
 0.9130	37.1800
 0.9140	37.1880
 0.9150	37.1940
 0.9160	37.1890
 0.9170	37.1870
 0.9180	37.1880
 0.9190	37.1890
 0.9200	37.1960
 0.9210	37.1990
 0.9220	37.1990
 0.9230	37.1990
 0.9240	37.2030
 0.9250	37.2010
 0.9260	37.1910
 0.9270	37.1830
 0.9280	37.1790
 0.9290	37.1730
 0.9300	37.1670
 0.9310	37.1660
 0.9320	37.1560
 0.9330	37.1410
 0.9340	37.1290
 0.9350	37.1260
 0.9360	37.1160
 0.9370	37.1080
 0.9380	37.1050
 0.9390	37.0920
 0.9400	37.0750
 0.9410	37.0630
 0.9420	37.0550
 0.9430	37.0430
 0.9440	37.0320
 0.9450	37.0180
 0.9460	36.9990
 0.9470	36.9740
 0.9480	36.9580
 0.9490	36.9440
 0.9500	36.9260
 0.9510	36.9000
 0.9520	36.8820
 0.9530	36.8630
 0.9540	36.8340
 0.9550	36.8150
 0.9560	36.7950
 0.9570	36.7750
 0.9580	36.7580
 0.9590	36.7310
 0.9600	36.7110
 0.9610	36.6940
 0.9620	36.6740
 0.9630	36.6590
 0.9640	36.6450
 0.9650	36.6300
 0.9660	36.6130
 0.9670	36.6100
 0.9680	36.6010
 0.9690	36.5850
 0.9700	36.5690
 0.9710	36.5530
 0.9720	36.5520
 0.9730	36.5500
 0.9740	36.5330
 0.9750	36.5300
 0.9760	36.5180
 0.9770	36.5050
 0.9780	36.5050
 0.9790	36.5060
 0.9800	36.4960
 0.9810	36.4800
 0.9820	36.4690
 0.9830	36.4750
 0.9840	36.4760
 0.9850	36.4690
 0.9860	36.4640
 0.9870	36.4670
 0.9880	36.4600
 0.9890	36.4470
 0.9900	36.4410
 0.9910	36.4430
 0.9920	36.4450
 0.9930	36.4400
 0.9940	36.4280
 0.9950	36.4320
 0.9960	36.4320
 0.9970	36.4300
 0.9980	36.4330
 0.9990	36.4380
 1.0000	36.4290
 1.0010	36.3450
 1.0020	36.3450
 1.0030	36.3450
 1.0040	36.3440
 1.0050	36.3440
 1.0060	36.3430
 1.0070	36.3390
 1.0080	36.3380
 1.0090	36.3370
 1.0100	36.3350
 1.0110	36.3350
 1.0120	36.3350
 1.0130	36.3340
 1.0140	36.3320
 1.0150	36.3300
 1.0160	36.3250
 1.0170	36.3220
 1.0180	36.3200
 1.0190	36.3180
 1.0200	36.3180
 1.0210	36.3140
 1.0220	36.3110
 1.0230	36.3100
 1.0240	36.3120
 1.0250	36.3110
 1.0260	36.3100
 1.0270	36.3100
 1.0280	36.3110
 1.0290	36.3100
 1.0300	36.3100
 1.0310	36.3110
 1.0320	36.3090
 1.0330	36.3090
 1.0340	36.3110
 1.0350	36.3110
 1.0360	36.3120
 1.0370	36.3120
 1.0380	36.3110
 1.0390	36.3110
 1.0400	36.3100
 1.0410	36.3080
 1.0420	36.3060
 1.0430	36.3030
 1.0440	36.3010
 1.0450	36.2970
 1.0460	36.2950
 1.0470	36.2940
 1.0480	36.2940
 1.0490	36.2960
 1.0500	36.2960
 1.0510	36.2960
 1.0520	36.2950
 1.0530	36.2940
 1.0540	36.2900
 1.0550	36.2880
 1.0560	36.2830
 1.0570	36.2810
 1.0580	36.2800
 1.0590	36.2820
 1.0600	36.2890
 1.0610	36.2910
 1.0620	36.2920
 1.0630	36.2920
 1.0640	36.2880
 1.0650	36.2870
 1.0660	36.2860
 1.0670	36.2850
 1.0680	36.2840
 1.0690	36.2840
 1.0700	36.2820
 1.0710	36.2800
 1.0720	36.2790
 1.0730	36.2790
 1.0740	36.2790
 1.0750	36.2800
 1.0760	36.2790
 1.0770	36.2780
 1.0780	36.2770
 1.0790	36.2770
 1.0800	36.2760
 1.0810	36.2740
 1.0820	36.2730
 1.0830	36.2720
 1.0840	36.2720
 1.0850	36.2710
 1.0860	36.2730
 1.0870	36.2730
 1.0880	36.2720
 1.0890	36.2710
 1.0900	36.2700
 1.0910	36.2680
 1.0920	36.2650
 1.0930	36.2640
 1.0940	36.2650
 1.0950	36.2650
 1.0960	36.2650
 1.0970	36.2650
 1.0980	36.2640
 1.0990	36.2630
 1.1000	36.2630
 1.1010	36.2620
 1.1020	36.2600
 1.1030	36.2560
 1.1040	36.2520
 1.1050	36.2480
 1.1060	36.2450
 1.1070	36.2430
 1.1080	36.2400
 1.1090	36.2370
 1.1100	36.2340
 1.1110	36.2300
 1.1120	36.2270
 1.1130	36.2250
 1.1140	36.2210
 1.1150	36.2160
 1.1160	36.2110
 1.1170	36.2060
 1.1180	36.2000
 1.1190	36.1940
 1.1200	36.1890
 1.1210	36.1830
 1.1220	36.1760
 1.1230	36.1670
 1.1240	36.1560
 1.1250	36.1440
 1.1260	36.1290
 1.1270	36.1130
 1.1280	36.0950
 1.1290	36.0760
 1.1300	36.0550
 1.1310	36.0320
 1.1320	36.0090
 1.1330	35.9830
 1.1340	35.9560
 1.1350	35.9270
 1.1360	35.8950
 1.1370	35.8600
 1.1380	35.8220
 1.1390	35.7840
 1.1400	35.7460
 1.1410	35.7060
 1.1420	35.6660
 1.1430	35.6260
 1.1440	35.5860
 1.1450	35.5460
 1.1460	35.5070
 1.1470	35.4670
 1.1480	35.4280
 1.1490	35.3880
 1.1500	35.3510
 1.1510	35.3180
 1.1520	35.2840
 1.1530	35.2510
 1.1540	35.2220
 1.1550	35.1950
 1.1560	35.1690
 1.1570	35.1480
 1.1580	35.1280
 1.1590	35.1100
 1.1600	35.0930
 1.1610	35.0790
 1.1620	35.0660
 1.1630	35.0530
 1.1640	35.0410
 1.1650	35.0300
 1.1660	35.0190
 1.1670	35.0100
 1.1680	35.0040
 1.1690	34.9970
 1.1700	34.9910
 1.1710	34.9840
 1.1720	34.9780
 1.1730	34.9710
 1.1740	34.9660
 1.1750	34.9600
 1.1760	34.9520
 1.1770	34.9440
 1.1780	34.9350
 1.1790	34.9270
 1.1800	34.9190
 1.1810	34.9110
 1.1820	34.9020
 1.1830	34.8920
 1.1840	34.8830
 1.1850	34.8740
 1.1860	34.8650
 1.1870	34.8570
 1.1880	34.8500
 1.1890	34.8430
 1.1900	34.8370
 1.1910	34.8320
 1.1920	34.8270
 1.1930	34.8220
 1.1940	34.8170
 1.1950	34.8120
 1.1960	34.8070
 1.1970	34.8020
 1.1980	34.7970
 1.1990	34.7930
 1.2000	34.7900
 1.2010	34.7880
 1.2020	34.7880
 1.2030	34.7880
 1.2040	34.7890
 1.2050	34.7890
 1.2060	34.7880
 1.2070	34.7860
 1.2080	34.7860
 1.2090	34.7850
 1.2100	34.7850
 1.2110	34.7860
 1.2120	34.7850
 1.2130	34.7860
 1.2140	34.7880
 1.2150	34.7900
 1.2160	34.7920
 1.2170	34.7960
 1.2180	34.7980
 1.2190	34.8020
 1.2200	34.8060
 1.2210	34.8090
 1.2220	34.8140
 1.2230	34.8160
 1.2240	34.8190
 1.2250	34.8220
 1.2260	34.8240
 1.2270	34.8260
 1.2280	34.8300
 1.2290	34.8330
 1.2300	34.8360
 1.2310	34.8400
 1.2320	34.8430
 1.2330	34.8470
 1.2340	34.8490
 1.2350	34.8520
 1.2360	34.8540
 1.2370	34.8540
 1.2380	34.8540
 1.2390	34.8550
 1.2400	34.8560
 1.2410	34.8570
 1.2420	34.8600
 1.2430	34.8620
 1.2440	34.8620
 1.2450	34.8640
 1.2460	34.8630
 1.2470	34.8630
 1.2480	34.8640
 1.2490	34.8640
 1.2500	34.8650
 1.2510	34.8660
 1.2520	34.8650
 1.2530	34.8630
 1.2540	34.8610
 1.2550	34.8600
 1.2560	34.8580
 1.2570	34.8570
 1.2580	34.8550
 1.2590	34.8520
 1.2600	34.8480
 1.2610	34.8450
 1.2620	34.8400
 1.2630	34.8360
 1.2640	34.8320
 1.2650	34.8270
 1.2660	34.8210
 1.2670	34.8160
 1.2680	34.8100
 1.2690	34.8030
 1.2700	34.7970
 1.2710	34.7890
 1.2720	34.7820
 1.2730	34.7770
 1.2740	34.7700
 1.2750	34.7640
 1.2760	34.7570
 1.2770	34.7480
 1.2780	34.7390
 1.2790	34.7280
 1.2800	34.7170
 1.2810	34.7070
 1.2820	34.6960
 1.2830	34.6840
 1.2840	34.6730
 1.2850	34.6610
 1.2860	34.6500
 1.2870	34.6380
 1.2880	34.6270
 1.2890	34.6140
 1.2900	34.6010
 1.2910	34.5870
 1.2920	34.5720
 1.2930	34.5560
 1.2940	34.5410
 1.2950	34.5260
 1.2960	34.5090
 1.2970	34.4940
 1.2980	34.4780
 1.2990	34.4590
 1.3000	34.4410
 1.3010	34.4210
 1.3020	34.4000
 1.3030	34.3810
 1.3040	34.3610
 1.3050	34.3400
 1.3060	34.3170
 1.3070	34.2930
 1.3080	34.2700
 1.3090	34.2450
 1.3100	34.2200
 1.3110	34.1950
 1.3120	34.1680
 1.3130	34.1400
 1.3140	34.1110
 1.3150	34.0810
 1.3160	34.0510
 1.3170	34.0200
 1.3180	33.9880
 1.3190	33.9560
 1.3200	33.9210
 1.3210	33.8850
 1.3220	33.8500
 1.3230	33.8140
 1.3240	33.7770
 1.3250	33.7390
 1.3260	33.6990
 1.3270	33.6560
 1.3280	33.6120
 1.3290	33.5700
 1.3300	33.5280
 1.3310	33.4840
 1.3320	33.4400
 1.3330	33.3950
 1.3340	33.3490
 1.3350	33.3020
 1.3360	33.2560
 1.3370	33.2070
 1.3380	33.1590
 1.3390	33.1110
 1.3400	33.0620
 1.3410	33.0120
 1.3420	32.9630
 1.3430	32.9120
 1.3440	32.8640
 1.3450	32.8150
 1.3460	32.7660
 1.3470	32.7180
 1.3480	32.6690
 1.3490	32.6210
 1.3500	32.5740
 1.3510	32.5260
 1.3520	32.4770
 1.3530	32.4290
 1.3540	32.3790
 1.3550	32.3290
 1.3560	32.2790
 1.3570	32.2280
 1.3580	32.1780
 1.3590	32.1260
 1.3600	32.0720
 1.3610	32.0180
 1.3620	31.9600
 1.3630	31.9020
 1.3640	31.8420
 1.3650	31.7800
 1.3660	31.7170
 1.3670	31.6490
 1.3680	31.5770
 1.3690	31.5010
 1.3700	31.4200
 1.3710	31.3330
 1.3720	31.2400
 1.3730	31.1380
 1.3740	31.0290
 1.3750	30.9120
 1.3760	30.7840
 1.3770	30.6450
 1.3780	30.4920
 1.3790	30.3280
 1.3800	30.1520
 1.3810	29.9620
 1.3820	29.7590
 1.3830	29.5440
 1.3840	29.3160
 1.3850	29.0760
 1.3860	28.8230
 1.3870	28.5570
 1.3880	28.2820
 1.3890	27.9960
 1.3900	27.6990
 1.3910	27.3970
 1.3920	27.0860
 1.3930	26.7650
 1.3940	26.4400
 1.3950	26.1060
 1.3960	25.7710
 1.3970	25.4380
 1.3980	25.1060
 1.3990	24.7800
 1.4000	24.4590
 1.4010	24.1400
 1.4020	23.8290
 1.4030	23.5230
 1.4040	23.2270
 1.4050	22.9450
 1.4060	22.6720
 1.4070	22.4130
 1.4080	22.1650
 1.4090	21.9280
 1.4100	21.7030
 1.4110	21.4900
 1.4120	21.2910
 1.4130	21.1040
 1.4140	20.9290
 1.4150	20.7680
 1.4160	20.6170
 1.4170	20.4770
 1.4180	20.3480
 1.4190	20.2280
 1.4200	20.1180
 1.4210	20.0170
 1.4220	19.9250
 1.4230	19.8410
 1.4240	19.7650
 1.4250	19.6950
 1.4260	19.6320
 1.4270	19.5750
 1.4280	19.5240
 1.4290	19.4790
 1.4300	19.4380
 1.4310	19.4030
 1.4320	19.3740
 1.4330	19.3480
 1.4340	19.3280
 1.4350	19.3110
 1.4360	19.2980
 1.4370	19.2890
 1.4380	19.2820
 1.4390	19.2790
 1.4400	19.2780
 1.4410	19.2790
 1.4420	19.2830
 1.4430	19.2890
 1.4440	19.2960
 1.4450	19.3040
 1.4460	19.3150
 1.4470	19.3260
 1.4480	19.3400
 1.4490	19.3540
 1.4500	19.3690
 1.4510	19.3840
 1.4520	19.4000
 1.4530	19.4190
 1.4540	19.4380
 1.4550	19.4600
 1.4560	19.4820
 1.4570	19.5060
 1.4580	19.5330
 1.4590	19.5630
 1.4600	19.5950
 1.4610	19.6300
 1.4620	19.6680
 1.4630	19.7100
 1.4640	19.7550
 1.4650	19.8040
 1.4660	19.8570
 1.4670	19.9140
 1.4680	19.9740
 1.4690	20.0390
 1.4700	20.1060
 1.4710	20.1770
 1.4720	20.2500
 1.4730	20.3260
 1.4740	20.4040
 1.4750	20.4840
 1.4760	20.5670
 1.4770	20.6510
 1.4780	20.7350
 1.4790	20.8210
 1.4800	20.9070
 1.4810	20.9940
 1.4820	21.0820
 1.4830	21.1690
 1.4840	21.2580
 1.4850	21.3470
 1.4860	21.4360
 1.4870	21.5270
 1.4880	21.6160
 1.4890	21.7050
 1.4900	21.7950
 1.4910	21.8840
 1.4920	21.9740
 1.4930	22.0630
 1.4940	22.1520
 1.4950	22.2420
 1.4960	22.3310
 1.4970	22.4190
 1.4980	22.5070
 1.4990	22.5960
 1.5000	22.6840
 1.5010	22.7720
 1.5020	22.8590
 1.5030	22.9460
 1.5040	23.0320
 1.5050	23.1180
 1.5060	23.2040
 1.5070	23.2910
 1.5080	23.3760
 1.5090	23.4600
 1.5100	23.5440
 1.5110	23.6270
 1.5120	23.7090
 1.5130	23.7890
 1.5140	23.8700
 1.5150	23.9500
 1.5160	24.0300
 1.5170	24.1110
 1.5180	24.1900
 1.5190	24.2670
 1.5200	24.3430
 1.5210	24.4180
 1.5220	24.4920
 1.5230	24.5660
 1.5240	24.6380
 1.5250	24.7110
 1.5260	24.7820
 1.5270	24.8520
 1.5280	24.9230
 1.5290	24.9910
 1.5300	25.0580
 1.5310	25.1250
 1.5320	25.1900
 1.5330	25.2550
 1.5340	25.3180
 1.5350	25.3800
 1.5360	25.4430
 1.5370	25.5030
 1.5380	25.5640
 1.5390	25.6260
 1.5400	25.6840
 1.5410	25.7420
 1.5420	25.8000
 1.5430	25.8560
 1.5440	25.9130
 1.5450	25.9690
 1.5460	26.0240
 1.5470	26.0790
 1.5480	26.1310
 1.5490	26.1840
 1.5500	26.2350
 1.5510	26.2850
 1.5520	26.3350
 1.5530	26.3850
 1.5540	26.4330
 1.5550	26.4830
 1.5560	26.5300
 1.5570	26.5770
 1.5580	26.6220
 1.5590	26.6650
 1.5600	26.7090
 1.5610	26.7520
 1.5620	26.7930
 1.5630	26.8340
 1.5640	26.8730
 1.5650	26.9120
 1.5660	26.9510
 1.5670	26.9890
 1.5680	27.0280
 1.5690	27.0660
 1.5700	27.1030
 1.5710	27.1400
 1.5720	27.1750
 1.5730	27.2110
 1.5740	27.2460
 1.5750	27.2810
 1.5760	27.3160
 1.5770	27.3490
 1.5780	27.3840
 1.5790	27.4190
 1.5800	27.4550
 1.5810	27.4890
 1.5820	27.5220
 1.5830	27.5560
 1.5840	27.5890
 1.5850	27.6210
 1.5860	27.6540
 1.5870	27.6860
 1.5880	27.7180
 1.5890	27.7500
 1.5900	27.7810
 1.5910	27.8120
 1.5920	27.8440
 1.5930	27.8750
 1.5940	27.9080
 1.5950	27.9390
 1.5960	27.9700
 1.5970	28.0010
 1.5980	28.0300
 1.5990	28.0600
 1.6000	28.0900
 1.6010	28.1180
 1.6020	28.1470
 1.6030	28.1750
 1.6040	28.2030
 1.6050	28.2310
 1.6060	28.2590
 1.6070	28.2860
 1.6080	28.3140
 1.6090	28.3390
 1.6100	28.3640
 1.6110	28.3890
 1.6120	28.4120
 1.6130	28.4350
 1.6140	28.4580
 1.6150	28.4790
 1.6160	28.5020
 1.6170	28.5240
 1.6180	28.5460
 1.6190	28.5670
 1.6200	28.5870
 1.6210	28.6080
 1.6220	28.6270
 1.6230	28.6460
 1.6240	28.6650
 1.6250	28.6830
 1.6260	28.7010
 1.6270	28.7190
 1.6280	28.7350
 1.6290	28.7510
 1.6300	28.7670
 1.6310	28.7810
 1.6320	28.7950
 1.6330	28.8070
 1.6340	28.8190
 1.6350	28.8310
 1.6360	28.8410
 1.6370	28.8510
 1.6380	28.8610
 1.6390	28.8700
 1.6400	28.8780
 1.6410	28.8860
 1.6420	28.8940
 1.6430	28.9020
 1.6440	28.9100
 1.6450	28.9160
 1.6460	28.9220
 1.6470	28.9290
 1.6480	28.9330
 1.6490	28.9370
 1.6500	28.9410
 1.6510	28.9430
 1.6520	28.9430
 1.6530	28.9420
 1.6540	28.9400
 1.6550	28.9360
 1.6560	28.9330
 1.6570	28.9300
 1.6580	28.9270
 1.6590	28.9230
 1.6600	28.9180
 1.6610	28.9130
 1.6620	28.9070
 1.6630	28.9030
 1.6640	28.8970
 1.6650	28.8920
 1.6660	28.8860
 1.6670	28.8790
 1.6680	28.8710
 1.6690	28.8620
 1.6700	28.8540
 1.6710	28.8440
 1.6720	28.8320
 1.6730	28.8190
 1.6740	28.8040
 1.6750	28.7890
 1.6760	28.7720
 1.6770	28.7540
 1.6780	28.7360
 1.6790	28.7150
 1.6800	28.6950
 1.6810	28.6740
 1.6820	28.6520
 1.6830	28.6280
 1.6840	28.6030
 1.6850	28.5780
 1.6860	28.5520
 1.6870	28.5250
 1.6880	28.4970
 1.6890	28.4690
 1.6900	28.4420
 1.6910	28.4160
 1.6920	28.3900
 1.6930	28.3640
 1.6940	28.3400
 1.6950	28.3170
 1.6960	28.2950
 1.6970	28.2740
 1.6980	28.2510
 1.6990	28.2290
 1.7000	28.2060
 1.7010	28.1820
 1.7020	28.1590
 1.7030	28.1370
 1.7040	28.1140
 1.7050	28.0920
 1.7060	28.0680
 1.7070	28.0430
 1.7080	28.0180
 1.7090	27.9930
 1.7100	27.9670
 1.7110	27.9410
 1.7120	27.9140
 1.7130	27.8870
 1.7140	27.8600
 1.7150	27.8330
 1.7160	27.8060
 1.7170	27.7810
 1.7180	27.7560
 1.7190	27.7300
 1.7200	27.7030
 1.7210	27.6770
 1.7220	27.6500
 1.7230	27.6230
 1.7240	27.5990
 1.7250	27.5740
 1.7260	27.5500
 1.7270	27.5260
 1.7280	27.5030
 1.7290	27.4800
 1.7300	27.4570
 1.7310	27.4370
 1.7320	27.4190
 1.7330	27.4010
 1.7340	27.3830
 1.7350	27.3650
 1.7360	27.3470
 1.7370	27.3280
 1.7380	27.3100
 1.7390	27.2910
 1.7400	27.2700
 1.7410	27.2480
 1.7420	27.2270
 1.7430	27.2020
 1.7440	27.1750
 1.7450	27.1480
 1.7460	27.1180
 1.7470	27.0880
 1.7480	27.0580
 1.7490	27.0270
 1.7500	26.9950
 1.7510	26.9630
 1.7520	26.9300
 1.7530	26.8980
 1.7540	26.8640
 1.7550	26.8290
 1.7560	26.7950
 1.7570	26.7620
 1.7580	26.7290
 1.7590	26.6960
 1.7600	26.6630
 1.7610	26.6290
 1.7620	26.5970
 1.7630	26.5680
 1.7640	26.5390
 1.7650	26.5140
 1.7660	26.4880
 1.7670	26.4600
 1.7680	26.4360
 1.7690	26.4120
 1.7700	26.3900
 1.7710	26.3710
 1.7720	26.3520
 1.7730	26.3310
 1.7740	26.3120
 1.7750	26.2940
 1.7760	26.2750
 1.7770	26.2570
 1.7780	26.2400
 1.7790	26.2220
 1.7800	26.2050
 1.7810	26.1900
 1.7820	26.1750
 1.7830	26.1610
 1.7840	26.1490
 1.7850	26.1370
 1.7860	26.1260
 1.7870	26.1160
 1.7880	26.1070
 1.7890	26.0990
 1.7900	26.0910
 1.7910	26.0860
 1.7920	26.0810
 1.7930	26.0790
 1.7940	26.0790
 1.7950	26.0780
 1.7960	26.0780
 1.7970	26.0770
 1.7980	26.0760
 1.7990	26.0760
 1.8000	26.0780
 1.8010	26.0780
 1.8020	26.0770
 1.8030	26.0780
 1.8040	26.0790
 1.8050	26.0800
 1.8060	26.0830
 1.8070	26.0840
 1.8080	26.0830
 1.8090	26.0850
 1.8100	26.0880
 1.8110	26.0900
 1.8120	26.0900
 1.8130	26.0880
 1.8140	26.0850
 1.8150	26.0830
 1.8160	26.0800
 1.8170	26.0770
 1.8180	26.0760
 1.8190	26.0760
 1.8200	26.0740
 1.8210	26.0740
 1.8220	26.0700
 1.8230	26.0630
 1.8240	26.0570
 1.8250	26.0490
 1.8260	26.0430
 1.8270	26.0380
 1.8280	26.0310
 1.8290	26.0230
 1.8300	26.0130
 1.8310	25.9100
 1.8320	25.8930
 1.8330	25.8750
 1.8340	25.8560
 1.8350	25.8340
 1.8360	25.8120
 1.8370	25.7880
 1.8380	25.7610
 1.8390	25.7310
 1.8400	25.7010
 1.8410	25.6650
 1.8420	25.6250
 1.8430	25.5810
 1.8440	25.5350
 1.8450	25.4850
 1.8460	25.4330
 1.8470	25.3770
 1.8480	25.3180
 1.8490	25.2510
 1.8500	25.1750
 1.8510	25.0910
 1.8520	25.0010
 1.8530	24.9010
 1.8540	24.7940
 1.8550	24.6810
 1.8560	24.5610
 1.8570	24.4300
 1.8580	24.2900
 1.8590	24.1390
 1.8600	23.9780
 1.8610	23.8050
 1.8620	23.6190
 1.8630	23.4230
 1.8640	23.2130
 1.8650	22.9880
 1.8660	22.7490
 1.8670	22.4920
 1.8680	22.2190
 1.8690	21.9320
 1.8700	21.6260
 1.8710	21.3020
 1.8720	20.9640
 1.8730	20.6090
 1.8740	20.2400
 1.8750	19.8590
 1.8760	19.4650
 1.8770	19.0640
 1.8780	18.6510
 1.8790	18.2250
 1.8800	17.7960
 1.8810	17.3610
 1.8820	16.9160
 1.8830	16.4640
 1.8840	16.0110
 1.8850	15.5500
 1.8860	15.0880
 1.8870	14.6350
 1.8880	14.1830
 1.8890	13.7430
 1.8900	13.3140
 1.8910	12.8970
 1.8920	12.4860
 1.8930	12.0960
 1.8940	11.7220
 1.8950	11.3660
 1.8960	11.0310
 1.8970	10.7140
 1.8980	10.4190
 1.8990	10.1430
 1.9000	 9.8860
 1.9010	 9.6540
 1.9020	 9.4340
 1.9030	 9.2330
 1.9040	 9.0490
 1.9050	 8.8840
 1.9060	 8.7340
 1.9070	 8.6030
 1.9080	 8.4860
 1.9090	 8.3790
 1.9100	 8.2820
 1.9110	 8.1960
 1.9120	 8.1240
 1.9130	 8.0570
 1.9140	 7.9990
 1.9150	 7.9490
 1.9160	 7.9040
 1.9170	 7.8630
 1.9180	 7.8280
 1.9190	 7.8020
 1.9200	 7.7790
 1.9210	 7.7590
 1.9220	 7.7450
 1.9230	 7.7360
 1.9240	 7.7290
 1.9250	 7.7260
 1.9260	 7.7290
 1.9270	 7.7320
 1.9280	 7.7400
 1.9290	 7.7510
 1.9300	 7.7640
 1.9310	 7.7820
 1.9320	 7.7990
 1.9330	 7.8200
 1.9340	 7.8430
 1.9350	 7.8690
 1.9360	 7.8960
 1.9370	 7.9260
 1.9380	 7.9600
 1.9390	 7.9940
 1.9400	 8.0330
 1.9410	 8.0750
 1.9420	 8.1170
 1.9430	 8.1600
 1.9440	 8.2040
 1.9450	 8.2460
 1.9460	 8.2930
 1.9470	 8.3420
 1.9480	 8.3920
 1.9490	 8.4440
 1.9500	 8.5000
 1.9510	 8.5560
 1.9520	 8.6110
 1.9530	 8.6690
 1.9540	 8.7270
 1.9550	 8.7870
 1.9560	 8.8470
 1.9570	 8.9090
 1.9580	 8.9740
 1.9590	 9.0380
 1.9600	 9.1010
 1.9610	 9.1670
 1.9620	 9.2340
 1.9630	 9.3010
 1.9640	 9.3720
 1.9650	 9.4420
 1.9660	 9.5140
 1.9670	 9.5870
 1.9680	 9.6600
 1.9690	 9.7310
 1.9700	 9.8050
 1.9710	 9.8780
 1.9720	 9.9530
 1.9730	10.0310
 1.9740	10.1090
 1.9750	10.1880
 1.9760	10.2660
 1.9770	10.3430
 1.9780	10.4210
 1.9790	10.5000
 1.9800	10.5810
 1.9810	10.6630
 1.9820	10.7480
 1.9830	10.8300
 1.9840	10.9110
 1.9850	10.9930
 1.9860	11.0770
 1.9870	11.1600
 1.9880	11.2450
 1.9890	11.3280
 1.9900	11.4140
 1.9910	11.4980
 1.9920	11.5830
 1.9930	11.6710
 1.9940	11.7570
 1.9950	11.8410
 1.9960	11.9250
 1.9970	12.0080
 1.9980	12.0900
 1.9990	12.1730
 2.0000	12.2560
 2.0010	12.3380
 2.0020	12.4200
 2.0030	12.5010
 2.0040	12.5820
 2.0050	12.6640
 2.0060	12.7460
 2.0070	12.8270
 2.0080	12.9070
 2.0090	12.9860
 2.0100	13.0640
 2.0110	13.1400
 2.0120	13.2150
 2.0130	13.2880
 2.0140	13.3620
 2.0150	13.4340
 2.0160	13.5060
 2.0170	13.5790
 2.0180	13.6500
 2.0190	13.7220
 2.0200	13.7910
 2.0210	13.8580
 2.0220	13.9240
 2.0230	13.9880
 2.0240	14.0510
 2.0250	14.1130
 2.0260	14.1750
 2.0270	14.2350
 2.0280	14.2960
 2.0290	14.3540
 2.0300	14.4100
 2.0310	14.4650
 2.0320	14.5170
 2.0330	14.5680
 2.0340	14.6180
 2.0350	14.6670
 2.0360	14.7150
 2.0370	14.7620
 2.0380	14.8080
 2.0390	14.8530
 2.0400	14.8960
 2.0410	14.9390
 2.0420	14.9810
 2.0430	15.0220
 2.0440	15.0610
 2.0450	15.0980
 2.0460	15.1350
 2.0470	15.1720
 2.0480	15.2090
 2.0490	15.2460
 2.0500	15.2840
 2.0510	15.3220
 2.0520	15.3610
 2.0530	15.4030
 2.0540	15.4440
 2.0550	15.4820
 2.0560	15.5230
 2.0570	15.5650
 2.0580	15.6050
 2.0590	15.6480
 2.0600	15.6910
 2.0610	15.7360
 2.0620	15.7810
 2.0630	15.8260
 2.0640	15.8730
 2.0650	15.9190
 2.0660	15.9630
 2.0670	16.0090
 2.0680	16.0580
 2.0690	16.1040
 2.0700	16.1490
 2.0710	16.1940
 2.0720	16.2390
 2.0730	16.2820
 2.0740	16.3270
 2.0750	16.3720
 2.0760	16.4180
 2.0770	16.4640
 2.0780	16.5090
 2.0790	16.5540
 2.0800	16.6000
 2.0810	16.6430
 2.0820	16.6880
 2.0830	16.7370
 2.0840	16.7820
 2.0850	16.8270
 2.0860	16.8700
 2.0870	16.9110
 2.0880	16.9500
 2.0890	16.9890
 2.0900	17.0270
 2.0910	17.0670
 2.0920	17.1090
 2.0930	17.1490
 2.0940	17.1900
 2.0950	17.2300
 2.0960	17.2670
 2.0970	17.3040
 2.0980	17.3420
 2.0990	17.3800
 2.1000	17.4180
 2.1010	17.4550
 2.1020	17.4930
 2.1030	17.5290
 2.1040	17.5660
 2.1050	17.6010
 2.1060	17.6350
 2.1070	17.6680
 2.1080	17.7030
 2.1090	17.7390
 2.1100	17.7750
 2.1110	17.8140
 2.1120	17.8510
 2.1130	17.8870
 2.1140	17.9220
 2.1150	17.9550
 2.1160	17.9900
 2.1170	18.0260
 2.1180	18.0600
 2.1190	18.0960
 2.1200	18.1290
 2.1210	18.1590
 2.1220	18.1890
 2.1230	18.2220
 2.1240	18.2540
 2.1250	18.2860
 2.1260	18.3210
 2.1270	18.3510
 2.1280	18.3790
 2.1290	18.4070
 2.1300	18.4340
 2.1310	18.4600
 2.1320	18.4870
 2.1330	18.5110
 2.1340	18.5340
 2.1350	18.5560
 2.1360	18.5770
 2.1370	18.5970
 2.1380	18.6170
 2.1390	18.6370
 2.1400	18.6580
 2.1410	18.6790
 2.1420	18.6970
 2.1430	18.7150
 2.1440	18.7320
 2.1450	18.7470
 2.1460	18.7620
 2.1470	18.7780
 2.1480	18.7940
 2.1490	18.8070
 2.1500	18.8220
 2.1510	18.8390
 2.1520	18.8510
 2.1530	18.8620
 2.1540	18.8700
 2.1550	18.8700
 2.1560	18.8750
 2.1570	18.8780
 2.1580	18.8830
 2.1590	18.8910
 2.1600	18.8990
 2.1610	18.9070
 2.1620	18.9150
 2.1630	18.9190
 2.1640	18.9200
 2.1650	18.9230
 2.1660	18.9220
 2.1670	18.9280
 2.1680	18.9390
 2.1690	18.9480
 2.1700	18.9590
 2.1710	18.9680
 2.1720	18.9730
 2.1730	18.9800
 2.1740	18.9870
 2.1750	18.9940
 2.1760	18.9980
 2.1770	19.0050
 2.1780	19.0140
 2.1790	19.0240
 2.1800	19.0350
 2.1810	19.0460
 2.1820	19.0600
 2.1830	19.0730
 2.1840	19.0850
 2.1850	19.0980
 2.1860	19.1080
 2.1870	19.1150
 2.1880	19.1260
 2.1890	19.1380
 2.1900	19.1490
 2.1910	19.1640
 2.1920	19.1750
 2.1930	19.1830
 2.1940	19.1930
 2.1950	19.2020
 2.1960	19.2120
 2.1970	19.2240
 2.1980	19.2330
 2.1990	19.2410
 2.2000	19.2470
 2.2010	19.2520
 2.2020	19.2540
 2.2030	19.2530
 2.2040	19.2530
 2.2050	19.2530
 2.2060	19.2500
 2.2070	19.2440
 2.2080	19.2370
 2.2090	19.2310
 2.2100	19.2240
 2.2110	19.2150
 2.2120	19.2090
 2.2130	19.1990
 2.2140	19.1840
 2.2150	19.1720
 2.2160	19.1590
 2.2170	19.1490
 2.2180	19.1410
 2.2190	19.1310
 2.2200	19.1240
 2.2210	19.1120
 2.2220	19.0960
 2.2230	19.0790
 2.2240	19.0570
 2.2250	19.0350
 2.2260	19.0120
 2.2270	18.9860
 2.2280	18.9580
 2.2290	18.9260
 2.2300	18.8920
 2.2310	18.8520
 2.2320	18.8090
 2.2330	18.7600
 2.2340	18.7060
 2.2350	18.6440
 2.2360	18.5860
 2.2370	18.5240
 2.2380	18.4630
 2.2390	18.4010
 2.2400	18.3420
 2.2410	18.2800
 2.2420	18.2250
 2.2430	18.1720
 2.2440	18.1240
 2.2450	18.0790
 2.2460	18.0380
 2.2470	18.0000
 2.2480	17.9660
 2.2490	17.9380
 2.2500	17.9110
 2.2510	17.8900
 2.2520	17.8670
 2.2530	17.8440
 2.2540	17.8220
 2.2550	17.8030
 2.2560	17.7790
 2.2570	17.7550
 2.2580	17.7270
 2.2590	17.6920
 2.2600	17.6580
 2.2610	17.6250
 2.2620	17.5860
 2.2630	17.5500
 2.2640	17.5120
 2.2650	17.4710
 2.2660	17.4310
 2.2670	17.3890
 2.2680	17.3430
 2.2690	17.3000
 2.2700	17.2540
 2.2710	17.2140
 2.2720	17.1760
 2.2730	17.1400
 2.2740	17.1090
 2.2750	17.0770
 2.2760	17.0490
 2.2770	17.0190
 2.2780	16.9900
 2.2790	16.9610
 2.2800	16.9300
 2.2810	16.9040
 2.2820	16.8810
 2.2830	16.8560
 2.2840	16.8340
 2.2850	16.8070
 2.2860	16.7750
 2.2870	16.7450
 2.2880	16.7130
 2.2890	16.6840
 2.2900	16.6590
 2.2910	16.6300
 2.2920	16.5990
 2.2930	16.5640
 2.2940	16.5250
 2.2950	16.4850
 2.2960	16.4420
 2.2970	16.4010
 2.2980	16.3600
 2.2990	16.3190
 2.3000	16.2770
 2.3010	16.2360
 2.3020	16.1890
 2.3030	16.1420
 2.3040	16.0960
 2.3050	16.0460
 2.3060	16.0000
 2.3070	15.9540
 2.3080	15.9060
 2.3090	15.8630
 2.3100	15.8200
 2.3110	15.7810
 2.3120	15.7460
 2.3130	15.7160
 2.3140	15.6860
 2.3150	15.6580
 2.3160	15.6320
 2.3170	15.6100
 2.3180	15.5890
 2.3190	15.5710
 2.3200	15.5520
 2.3210	15.5330
 2.3220	15.5130
 2.3230	15.4920
 2.3240	15.4750
 2.3250	15.4620
 2.3260	15.4430
 2.3270	15.4260
 2.3280	15.4020
 2.3290	15.3670
 2.3300	15.3370
 2.3310	15.3070
 2.3320	15.2760
 2.3330	15.2470
 2.3340	15.2150
 2.3350	15.1810
 2.3360	15.1440
 2.3370	15.1040
 2.3380	15.0680
 2.3390	15.0310
 2.3400	14.9950
 2.3410	14.9620
 2.3420	14.9300
 2.3430	14.9000
 2.3440	14.8680
 2.3450	14.8370
 2.3460	14.8030
 2.3470	14.7660
 2.3480	14.7280
 2.3490	14.6840
 2.3500	14.6490
 2.3510	14.6180
 2.3520	14.5870
 2.3530	14.5610
 2.3540	14.5410
 2.3550	14.5140
 2.3560	14.4870
 2.3570	14.4670
 2.3580	14.4490
 2.3590	14.4260
 2.3600	14.4040
 2.3610	14.3800
 2.3620	14.3510
 2.3630	14.3330
 2.3640	14.3160
 2.3650	14.2970
 2.3660	14.2800
 2.3670	14.2480
 2.3680	14.2140
 2.3690	14.1800
 2.3700	14.1410
 2.3710	14.1090
 2.3720	14.0760
 2.3730	14.0400
 2.3740	14.0050
 2.3750	13.9730
 2.3760	13.9380
 2.3770	13.8980
 2.3780	13.8600
 2.3790	13.8220
 2.3800	13.7790
 2.3810	13.7420
 2.3820	13.7040
 2.3830	13.6570
 2.3840	13.6190
 2.3850	13.5810
 2.3860	13.5430
 2.3870	13.5100
 2.3880	13.4630
 2.3890	13.4140
 2.3900	13.3690
 2.3910	13.3250
 2.3920	13.2850
 2.3930	13.2450
 2.3940	13.2040
 2.3950	13.1630
 2.3960	13.1220
 2.3970	13.0850
 2.3980	13.0480
 2.3990	13.0060
 2.4000	12.9570
 2.4010	12.9100
 2.4020	12.8680
 2.4030	12.8200
 2.4040	12.7780
 2.4050	12.7380
 2.4060	12.6900
 2.4070	12.6540
 2.4080	12.6180
 2.4090	12.5690
 2.4100	12.5310
 2.4110	12.4860
 2.4120	12.4360
 2.4130	12.3940
 2.4140	12.3430
 2.4150	12.3050
 2.4160	12.2690
 2.4170	12.2310
 2.4180	12.1950
 2.4190	12.1440
 2.4200	12.0960
 2.4210	12.0500
 2.4220	12.0050
 2.4230	11.9640
 2.4240	11.9120
 2.4250	11.8600
 2.4260	11.8140
 2.4270	11.7700
 2.4280	11.7190
 2.4290	11.6650
 2.4300	11.6080
 2.4310	11.5410
 2.4320	11.4880
 2.4330	11.4430
 2.4340	11.3910
 2.4350	11.3550
 2.4360	11.3140
 2.4370	11.2610
 2.4380	11.2100
 2.4390	11.1480
 2.4400	11.0860
 2.4410	11.0390
 2.4420	10.9950
 2.4430	10.9460
 2.4440	10.8920
 2.4450	10.8390
 2.4460	10.7880
 2.4470	10.7420
 2.4480	10.7050
 2.4490	10.6630
 2.4500	10.6130
 2.4510	10.5620
 2.4520	10.5000
 2.4530	10.4380
 2.4540	10.3840
 2.4550	10.3410
 2.4560	10.3010
 2.4570	10.2590
 2.4580	10.2120
 2.4590	10.1530
 2.4600	10.0970
 2.4610	10.0520
 2.4620	 9.9980
 2.4630	 9.9430
 2.4640	 9.9030
 2.4650	 9.8610
 2.4660	 9.8220
 2.4670	 9.7780
 2.4680	 9.7300
 2.4690	 9.6840
 2.4700	 9.6470
 2.4710	 9.6260
 2.4720	 9.6000
 2.4730	 9.5770
 2.4740	 9.5420
 2.4750	 9.4980
 2.4760	 9.4630
 2.4770	 9.4160
 2.4780	 9.3810
 2.4790	 9.3700
 2.4800	 9.3380
 2.4810	 9.2930
 2.4820	 9.2740
 2.4830	 9.2490
 2.4840	 9.2390
 2.4850	 9.2250
 2.4860	 9.1970
 2.4870	 9.1650
 2.4880	 9.1340
 2.4890	 9.1080
 2.4900	 9.0750
 2.4910	 9.0400
 2.4920	 9.0380
 2.4930	 9.0390
 2.4940	 9.0340
 2.4950	 9.0320
 2.4960	 8.9970
 2.4970	 8.9450
 2.4980	 8.8920
 2.4990	 8.8620
 2.5000	 8.8830
