Name: Baccharis pilularis 2
Type: vegetation
Class: Shrub
Genus: Baccharis
Species: pilularis
Sample No.: VH123
Owner: UCSB
Wavelength Range: VSWIR
Origin: 34.5084; -119.7683; WGS84
Collection Date: 6/3/2013
Description: Samples were collected as part of the HyspIRI Airborne Campaign. 48 individual plants were sampled in three times in 2013 - spring  summer  and fall. The name of the sample includes a 1  2  or 3 which references a different individual of the species. Samples were taken to JPL and processed within 48 hours of collection. The same leaves were processed in the Nicolet and then measured using the ASD.
Measurement: Bidirectional reflectance
First Column: X
Second Column: Y
X Units: Wavelength (micrometers)
Y Units: Reflectance (percentage)
First X Value: 0.35
Last X Value: 2.5
Number of X Values: 2151
Additional Information: vegetation.shrub.baccharis.pilularis.vswir.vh123.ucsb.asd.ancillary.txt

 0.3500	 5.7430
 0.3510	 5.9110
 0.3520	 5.9590
 0.3530	 5.9870
 0.3540	 6.0610
 0.3550	 5.9910
 0.3560	 5.9520
 0.3570	 5.9440
 0.3580	 5.8880
 0.3590	 5.8120
 0.3600	 5.8440
 0.3610	 5.9640
 0.3620	 5.9500
 0.3630	 5.8930
 0.3640	 5.8260
 0.3650	 5.7800
 0.3660	 5.8540
 0.3670	 5.8110
 0.3680	 5.7040
 0.3690	 5.7600
 0.3700	 5.7330
 0.3710	 5.7320
 0.3720	 5.8000
 0.3730	 5.7670
 0.3740	 5.7170
 0.3750	 5.7040
 0.3760	 5.7540
 0.3770	 5.7960
 0.3780	 5.8130
 0.3790	 5.8030
 0.3800	 5.7770
 0.3810	 5.7160
 0.3820	 5.6780
 0.3830	 5.6940
 0.3840	 5.6970
 0.3850	 5.6790
 0.3860	 5.6820
 0.3870	 5.7440
 0.3880	 5.7370
 0.3890	 5.7500
 0.3900	 5.7720
 0.3910	 5.6810
 0.3920	 5.6640
 0.3930	 5.6740
 0.3940	 5.6730
 0.3950	 5.7860
 0.3960	 5.8260
 0.3970	 5.7800
 0.3980	 5.7260
 0.3990	 5.7790
 0.4000	 5.8120
 0.4010	 5.7820
 0.4020	 5.7830
 0.4030	 5.7760
 0.4040	 5.7700
 0.4050	 5.7820
 0.4060	 5.8160
 0.4070	 5.8510
 0.4080	 5.8680
 0.4090	 5.8600
 0.4100	 5.8840
 0.4110	 5.9090
 0.4120	 5.9140
 0.4130	 5.9030
 0.4140	 5.9210
 0.4150	 5.9520
 0.4160	 5.9680
 0.4170	 5.9880
 0.4180	 6.0070
 0.4190	 6.0270
 0.4200	 6.0580
 0.4210	 6.0680
 0.4220	 6.0720
 0.4230	 6.0890
 0.4240	 6.1250
 0.4250	 6.1450
 0.4260	 6.1450
 0.4270	 6.1460
 0.4280	 6.1820
 0.4290	 6.2070
 0.4300	 6.2080
 0.4310	 6.2350
 0.4320	 6.2510
 0.4330	 6.2590
 0.4340	 6.2720
 0.4350	 6.2830
 0.4360	 6.3020
 0.4370	 6.3240
 0.4380	 6.3320
 0.4390	 6.3410
 0.4400	 6.3600
 0.4410	 6.3870
 0.4420	 6.3980
 0.4430	 6.4090
 0.4440	 6.4230
 0.4450	 6.4350
 0.4460	 6.4450
 0.4470	 6.4550
 0.4480	 6.4740
 0.4490	 6.5140
 0.4500	 6.5260
 0.4510	 6.5260
 0.4520	 6.5360
 0.4530	 6.5360
 0.4540	 6.5540
 0.4550	 6.5800
 0.4560	 6.5810
 0.4570	 6.5840
 0.4580	 6.5880
 0.4590	 6.5920
 0.4600	 6.6020
 0.4610	 6.6060
 0.4620	 6.6080
 0.4630	 6.6150
 0.4640	 6.6310
 0.4650	 6.6410
 0.4660	 6.6420
 0.4670	 6.6490
 0.4680	 6.6410
 0.4690	 6.6360
 0.4700	 6.6460
 0.4710	 6.6440
 0.4720	 6.6510
 0.4730	 6.6660
 0.4740	 6.6740
 0.4750	 6.6570
 0.4760	 6.6530
 0.4770	 6.6710
 0.4780	 6.6650
 0.4790	 6.6650
 0.4800	 6.6690
 0.4810	 6.6700
 0.4820	 6.6780
 0.4830	 6.6890
 0.4840	 6.6970
 0.4850	 6.6930
 0.4860	 6.7030
 0.4870	 6.7190
 0.4880	 6.7280
 0.4890	 6.7280
 0.4900	 6.7390
 0.4910	 6.7600
 0.4920	 6.7770
 0.4930	 6.7870
 0.4940	 6.8030
 0.4950	 6.8290
 0.4960	 6.8440
 0.4970	 6.8650
 0.4980	 6.8930
 0.4990	 6.9220
 0.5000	 6.9570
 0.5010	 6.9990
 0.5020	 7.0400
 0.5030	 7.0720
 0.5040	 7.1230
 0.5050	 7.1780
 0.5060	 7.2290
 0.5070	 7.2980
 0.5080	 7.3790
 0.5090	 7.4650
 0.5100	 7.5490
 0.5110	 7.6500
 0.5120	 7.7640
 0.5130	 7.8890
 0.5140	 8.0260
 0.5150	 8.1800
 0.5160	 8.3460
 0.5170	 8.5180
 0.5180	 8.7010
 0.5190	 8.8920
 0.5200	 9.0930
 0.5210	 9.3060
 0.5220	 9.5260
 0.5230	 9.7460
 0.5240	 9.9620
 0.5250	10.1740
 0.5260	10.3840
 0.5270	10.5860
 0.5280	10.7760
 0.5290	10.9600
 0.5300	11.1320
 0.5310	11.2910
 0.5320	11.4360
 0.5330	11.5650
 0.5340	11.6820
 0.5350	11.7920
 0.5360	11.8890
 0.5370	11.9750
 0.5380	12.0510
 0.5390	12.1200
 0.5400	12.1910
 0.5410	12.2600
 0.5420	12.3210
 0.5430	12.3720
 0.5440	12.4270
 0.5450	12.4820
 0.5460	12.5250
 0.5470	12.5670
 0.5480	12.6020
 0.5490	12.6310
 0.5500	12.6540
 0.5510	12.6740
 0.5520	12.6850
 0.5530	12.6810
 0.5540	12.6650
 0.5550	12.6380
 0.5560	12.5970
 0.5570	12.5430
 0.5580	12.4740
 0.5590	12.3950
 0.5600	12.3070
 0.5610	12.2050
 0.5620	12.1020
 0.5630	11.9890
 0.5640	11.8580
 0.5650	11.7300
 0.5660	11.6000
 0.5670	11.4630
 0.5680	11.3180
 0.5690	11.1660
 0.5700	11.0150
 0.5710	10.8720
 0.5720	10.7340
 0.5730	10.5980
 0.5740	10.4700
 0.5750	10.3580
 0.5760	10.2560
 0.5770	10.1610
 0.5780	10.0710
 0.5790	 9.9710
 0.5800	 9.8820
 0.5810	 9.8030
 0.5820	 9.7310
 0.5830	 9.6710
 0.5840	 9.6130
 0.5850	 9.5530
 0.5860	 9.4910
 0.5870	 9.4300
 0.5880	 9.3750
 0.5890	 9.3290
 0.5900	 9.2940
 0.5910	 9.2690
 0.5920	 9.2480
 0.5930	 9.2240
 0.5940	 9.1930
 0.5950	 9.1620
 0.5960	 9.1360
 0.5970	 9.1140
 0.5980	 9.0910
 0.5990	 9.0660
 0.6000	 9.0370
 0.6010	 9.0080
 0.6020	 8.9730
 0.6030	 8.9340
 0.6040	 8.8930
 0.6050	 8.8480
 0.6060	 8.7980
 0.6070	 8.7430
 0.6080	 8.6840
 0.6090	 8.6270
 0.6100	 8.5720
 0.6110	 8.5120
 0.6120	 8.4500
 0.6130	 8.3900
 0.6140	 8.3350
 0.6150	 8.2780
 0.6160	 8.2280
 0.6170	 8.1810
 0.6180	 8.1340
 0.6190	 8.0930
 0.6200	 8.0560
 0.6210	 8.0230
 0.6220	 7.9960
 0.6230	 7.9730
 0.6240	 7.9520
 0.6250	 7.9330
 0.6260	 7.9180
 0.6270	 7.9080
 0.6280	 7.9010
 0.6290	 7.8920
 0.6300	 7.8820
 0.6310	 7.8730
 0.6320	 7.8640
 0.6330	 7.8500
 0.6340	 7.8360
 0.6350	 7.8150
 0.6360	 7.7830
 0.6370	 7.7490
 0.6380	 7.7110
 0.6390	 7.6670
 0.6400	 7.6180
 0.6410	 7.5660
 0.6420	 7.5120
 0.6430	 7.4570
 0.6440	 7.4040
 0.6450	 7.3550
 0.6460	 7.3060
 0.6470	 7.2540
 0.6480	 7.2070
 0.6490	 7.1660
 0.6500	 7.1310
 0.6510	 7.1000
 0.6520	 7.0760
 0.6530	 7.0520
 0.6540	 7.0220
 0.6550	 7.0020
 0.6560	 6.9770
 0.6570	 6.9470
 0.6580	 6.9170
 0.6590	 6.8860
 0.6600	 6.8540
 0.6610	 6.8220
 0.6620	 6.7930
 0.6630	 6.7700
 0.6640	 6.7500
 0.6650	 6.7310
 0.6660	 6.7140
 0.6670	 6.7030
 0.6680	 6.6970
 0.6690	 6.6960
 0.6700	 6.6970
 0.6710	 6.6990
 0.6720	 6.7020
 0.6730	 6.7120
 0.6740	 6.7270
 0.6750	 6.7430
 0.6760	 6.7610
 0.6770	 6.7800
 0.6780	 6.8020
 0.6790	 6.8290
 0.6800	 6.8610
 0.6810	 6.8930
 0.6820	 6.9280
 0.6830	 6.9710
 0.6840	 7.0210
 0.6850	 7.0760
 0.6860	 7.1410
 0.6870	 7.2210
 0.6880	 7.3240
 0.6890	 7.4520
 0.6900	 7.6110
 0.6910	 7.8110
 0.6920	 8.0580
 0.6930	 8.3630
 0.6940	 8.7310
 0.6950	 9.1640
 0.6960	 9.6700
 0.6970	10.2500
 0.6980	10.9020
 0.6990	11.6280
 0.7000	12.4250
 0.7010	13.2830
 0.7020	14.1890
 0.7030	15.1410
 0.7040	16.1300
 0.7050	17.1450
 0.7060	18.1820
 0.7070	19.2350
 0.7080	20.2970
 0.7090	21.3670
 0.7100	22.4440
 0.7110	23.5220
 0.7120	24.5960
 0.7130	25.6640
 0.7140	26.7210
 0.7150	27.7710
 0.7160	28.8110
 0.7170	29.8330
 0.7180	30.8320
 0.7190	31.8100
 0.7200	32.7720
 0.7210	33.7080
 0.7220	34.6160
 0.7230	35.4930
 0.7240	36.3420
 0.7250	37.1570
 0.7260	37.9410
 0.7270	38.6940
 0.7280	39.4080
 0.7290	40.0860
 0.7300	40.7300
 0.7310	41.3430
 0.7320	41.9200
 0.7330	42.4650
 0.7340	42.9780
 0.7350	43.4620
 0.7360	43.9170
 0.7370	44.3440
 0.7380	44.7450
 0.7390	45.1230
 0.7400	45.4770
 0.7410	45.8040
 0.7420	46.1030
 0.7430	46.3830
 0.7440	46.6470
 0.7450	46.8930
 0.7460	47.1150
 0.7470	47.3260
 0.7480	47.5170
 0.7490	47.6860
 0.7500	47.8500
 0.7510	47.9950
 0.7520	48.1270
 0.7530	48.2520
 0.7540	48.3650
 0.7550	48.4670
 0.7560	48.5580
 0.7570	48.6400
 0.7580	48.7150
 0.7590	48.7860
 0.7600	48.8550
 0.7610	48.9120
 0.7620	48.9650
 0.7630	49.0160
 0.7640	49.0620
 0.7650	49.0980
 0.7660	49.1360
 0.7670	49.1760
 0.7680	49.2070
 0.7690	49.2320
 0.7700	49.2570
 0.7710	49.2840
 0.7720	49.3140
 0.7730	49.3350
 0.7740	49.3510
 0.7750	49.3680
 0.7760	49.3860
 0.7770	49.4060
 0.7780	49.4270
 0.7790	49.4490
 0.7800	49.4700
 0.7810	49.4850
 0.7820	49.4970
 0.7830	49.5120
 0.7840	49.5300
 0.7850	49.5470
 0.7860	49.5600
 0.7870	49.5750
 0.7880	49.5850
 0.7890	49.5950
 0.7900	49.6120
 0.7910	49.6260
 0.7920	49.6430
 0.7930	49.6590
 0.7940	49.6650
 0.7950	49.6680
 0.7960	49.6780
 0.7970	49.6920
 0.7980	49.6970
 0.7990	49.7040
 0.8000	49.7100
 0.8010	49.7110
 0.8020	49.7130
 0.8030	49.7160
 0.8040	49.7210
 0.8050	49.7240
 0.8060	49.7260
 0.8070	49.7300
 0.8080	49.7320
 0.8090	49.7270
 0.8100	49.7220
 0.8110	49.7240
 0.8120	49.7330
 0.8130	49.7290
 0.8140	49.7230
 0.8150	49.7200
 0.8160	49.7220
 0.8170	49.7180
 0.8180	49.7110
 0.8190	49.7070
 0.8200	49.7100
 0.8210	49.7000
 0.8220	49.6940
 0.8230	49.6920
 0.8240	49.6860
 0.8250	49.6790
 0.8260	49.6710
 0.8270	49.6650
 0.8280	49.6620
 0.8290	49.6540
 0.8300	49.6470
 0.8310	49.6450
 0.8320	49.6380
 0.8330	49.6300
 0.8340	49.6230
 0.8350	49.6180
 0.8360	49.6190
 0.8370	49.6120
 0.8380	49.6020
 0.8390	49.6070
 0.8400	49.6130
 0.8410	49.6120
 0.8420	49.6080
 0.8430	49.6130
 0.8440	49.6200
 0.8450	49.6240
 0.8460	49.6240
 0.8470	49.6190
 0.8480	49.6210
 0.8490	49.6270
 0.8500	49.6300
 0.8510	49.6380
 0.8520	49.6450
 0.8530	49.6470
 0.8540	49.6460
 0.8550	49.6550
 0.8560	49.6620
 0.8570	49.6620
 0.8580	49.6660
 0.8590	49.6730
 0.8600	49.6770
 0.8610	49.6780
 0.8620	49.6840
 0.8630	49.6880
 0.8640	49.6930
 0.8650	49.7020
 0.8660	49.7030
 0.8670	49.7060
 0.8680	49.7100
 0.8690	49.7170
 0.8700	49.7250
 0.8710	49.7320
 0.8720	49.7380
 0.8730	49.7470
 0.8740	49.7510
 0.8750	49.7590
 0.8760	49.7700
 0.8770	49.7720
 0.8780	49.7730
 0.8790	49.7860
 0.8800	49.8060
 0.8810	49.8110
 0.8820	49.8150
 0.8830	49.8200
 0.8840	49.8270
 0.8850	49.8300
 0.8860	49.8420
 0.8870	49.8520
 0.8880	49.8500
 0.8890	49.8540
 0.8900	49.8630
 0.8910	49.8720
 0.8920	49.8790
 0.8930	49.8860
 0.8940	49.8920
 0.8950	49.8950
 0.8960	49.8980
 0.8970	49.8980
 0.8980	49.8980
 0.8990	49.8990
 0.9000	49.9040
 0.9010	49.9100
 0.9020	49.9180
 0.9030	49.9270
 0.9040	49.9310
 0.9050	49.9280
 0.9060	49.9280
 0.9070	49.9360
 0.9080	49.9390
 0.9090	49.9400
 0.9100	49.9430
 0.9110	49.9490
 0.9120	49.9510
 0.9130	49.9550
 0.9140	49.9570
 0.9150	49.9540
 0.9160	49.9560
 0.9170	49.9530
 0.9180	49.9480
 0.9190	49.9510
 0.9200	49.9550
 0.9210	49.9480
 0.9220	49.9330
 0.9230	49.9220
 0.9240	49.9190
 0.9250	49.9110
 0.9260	49.8980
 0.9270	49.8920
 0.9280	49.8810
 0.9290	49.8630
 0.9300	49.8430
 0.9310	49.8270
 0.9320	49.8030
 0.9330	49.7740
 0.9340	49.7480
 0.9350	49.7300
 0.9360	49.7090
 0.9370	49.6840
 0.9380	49.6570
 0.9390	49.6300
 0.9400	49.6030
 0.9410	49.5740
 0.9420	49.5390
 0.9430	49.4990
 0.9440	49.4590
 0.9450	49.4150
 0.9460	49.3660
 0.9470	49.3200
 0.9480	49.2740
 0.9490	49.2140
 0.9500	49.1370
 0.9510	49.0810
 0.9520	49.0040
 0.9530	48.9190
 0.9540	48.8440
 0.9550	48.7750
 0.9560	48.6960
 0.9570	48.6170
 0.9580	48.5480
 0.9590	48.4730
 0.9600	48.4140
 0.9610	48.3660
 0.9620	48.3160
 0.9630	48.2730
 0.9640	48.2310
 0.9650	48.1920
 0.9660	48.1620
 0.9670	48.1350
 0.9680	48.1170
 0.9690	48.0970
 0.9700	48.0660
 0.9710	48.0430
 0.9720	48.0390
 0.9730	48.0410
 0.9740	48.0270
 0.9750	48.0180
 0.9760	48.0130
 0.9770	48.0130
 0.9780	48.0150
 0.9790	48.0140
 0.9800	48.0130
 0.9810	48.0180
 0.9820	48.0290
 0.9830	48.0430
 0.9840	48.0500
 0.9850	48.0570
 0.9860	48.0740
 0.9870	48.0910
 0.9880	48.1080
 0.9890	48.1260
 0.9900	48.1500
 0.9910	48.1890
 0.9920	48.2250
 0.9930	48.2610
 0.9940	48.2970
 0.9950	48.3330
 0.9960	48.3690
 0.9970	48.4050
 0.9980	48.4410
 0.9990	48.4770
 1.0000	48.5130
 1.0010	48.5490
 1.0020	48.5850
 1.0030	48.6210
 1.0040	48.6570
 1.0050	48.6930
 1.0060	48.7290
 1.0070	48.7650
 1.0080	48.8010
 1.0090	48.8370
 1.0100	48.8370
 1.0110	48.8680
 1.0120	48.8960
 1.0130	48.9230
 1.0140	48.9490
 1.0150	48.9720
 1.0160	48.9950
 1.0170	49.0210
 1.0180	49.0450
 1.0190	49.0690
 1.0200	49.0930
 1.0210	49.1150
 1.0220	49.1400
 1.0230	49.1620
 1.0240	49.1840
 1.0250	49.2070
 1.0260	49.2300
 1.0270	49.2520
 1.0280	49.2780
 1.0290	49.3010
 1.0300	49.3240
 1.0310	49.3430
 1.0320	49.3590
 1.0330	49.3700
 1.0340	49.3870
 1.0350	49.4020
 1.0360	49.4220
 1.0370	49.4440
 1.0380	49.4600
 1.0390	49.4700
 1.0400	49.4860
 1.0410	49.5040
 1.0420	49.5160
 1.0430	49.5260
 1.0440	49.5380
 1.0450	49.5440
 1.0460	49.5550
 1.0470	49.5710
 1.0480	49.5830
 1.0490	49.5940
 1.0500	49.6040
 1.0510	49.6150
 1.0520	49.6260
 1.0530	49.6350
 1.0540	49.6420
 1.0550	49.6510
 1.0560	49.6600
 1.0570	49.6690
 1.0580	49.6820
 1.0590	49.6900
 1.0600	49.6920
 1.0610	49.6990
 1.0620	49.7060
 1.0630	49.7130
 1.0640	49.7260
 1.0650	49.7330
 1.0660	49.7360
 1.0670	49.7400
 1.0680	49.7430
 1.0690	49.7420
 1.0700	49.7480
 1.0710	49.7590
 1.0720	49.7640
 1.0730	49.7710
 1.0740	49.7740
 1.0750	49.7720
 1.0760	49.7730
 1.0770	49.7760
 1.0780	49.7780
 1.0790	49.7780
 1.0800	49.7790
 1.0810	49.7800
 1.0820	49.7800
 1.0830	49.7800
 1.0840	49.7780
 1.0850	49.7730
 1.0860	49.7700
 1.0870	49.7670
 1.0880	49.7640
 1.0890	49.7570
 1.0900	49.7500
 1.0910	49.7440
 1.0920	49.7350
 1.0930	49.7260
 1.0940	49.7190
 1.0950	49.7110
 1.0960	49.6990
 1.0970	49.6890
 1.0980	49.6810
 1.0990	49.6690
 1.1000	49.6550
 1.1010	49.6420
 1.1020	49.6290
 1.1030	49.6130
 1.1040	49.5980
 1.1050	49.5810
 1.1060	49.5640
 1.1070	49.5460
 1.1080	49.5260
 1.1090	49.5080
 1.1100	49.4860
 1.1110	49.4610
 1.1120	49.4360
 1.1130	49.4080
 1.1140	49.3810
 1.1150	49.3550
 1.1160	49.3250
 1.1170	49.2960
 1.1180	49.2610
 1.1190	49.2240
 1.1200	49.1820
 1.1210	49.1390
 1.1220	49.0890
 1.1230	49.0360
 1.1240	48.9800
 1.1250	48.9150
 1.1260	48.8460
 1.1270	48.7700
 1.1280	48.6880
 1.1290	48.5980
 1.1300	48.5020
 1.1310	48.3970
 1.1320	48.2830
 1.1330	48.1630
 1.1340	48.0360
 1.1350	47.9030
 1.1360	47.7640
 1.1370	47.6180
 1.1380	47.4660
 1.1390	47.3090
 1.1400	47.1450
 1.1410	46.9780
 1.1420	46.8100
 1.1430	46.6380
 1.1440	46.4670
 1.1450	46.2940
 1.1460	46.1260
 1.1470	45.9570
 1.1480	45.7980
 1.1490	45.6400
 1.1500	45.4960
 1.1510	45.3590
 1.1520	45.2320
 1.1530	45.1150
 1.1540	45.0060
 1.1550	44.9030
 1.1560	44.8130
 1.1570	44.7350
 1.1580	44.6660
 1.1590	44.6060
 1.1600	44.5520
 1.1610	44.5040
 1.1620	44.4610
 1.1630	44.4260
 1.1640	44.3970
 1.1650	44.3710
 1.1660	44.3510
 1.1670	44.3330
 1.1680	44.3190
 1.1690	44.3080
 1.1700	44.3030
 1.1710	44.2940
 1.1720	44.2840
 1.1730	44.2750
 1.1740	44.2650
 1.1750	44.2530
 1.1760	44.2400
 1.1770	44.2290
 1.1780	44.2140
 1.1790	44.1970
 1.1800	44.1800
 1.1810	44.1630
 1.1820	44.1450
 1.1830	44.1270
 1.1840	44.1120
 1.1850	44.0970
 1.1860	44.0780
 1.1870	44.0620
 1.1880	44.0470
 1.1890	44.0290
 1.1900	44.0150
 1.1910	44.0070
 1.1920	43.9970
 1.1930	43.9860
 1.1940	43.9790
 1.1950	43.9750
 1.1960	43.9720
 1.1970	43.9720
 1.1980	43.9740
 1.1990	43.9760
 1.2000	43.9800
 1.2010	43.9880
 1.2020	43.9980
 1.2030	44.0100
 1.2040	44.0250
 1.2050	44.0430
 1.2060	44.0630
 1.2070	44.0840
 1.2080	44.1070
 1.2090	44.1330
 1.2100	44.1620
 1.2110	44.1920
 1.2120	44.2250
 1.2130	44.2590
 1.2140	44.2950
 1.2150	44.3310
 1.2160	44.3690
 1.2170	44.4080
 1.2180	44.4480
 1.2190	44.4870
 1.2200	44.5280
 1.2210	44.5730
 1.2220	44.6160
 1.2230	44.6560
 1.2240	44.6950
 1.2250	44.7330
 1.2260	44.7680
 1.2270	44.8050
 1.2280	44.8420
 1.2290	44.8770
 1.2300	44.9110
 1.2310	44.9430
 1.2320	44.9730
 1.2330	45.0020
 1.2340	45.0320
 1.2350	45.0620
 1.2360	45.0900
 1.2370	45.1170
 1.2380	45.1440
 1.2390	45.1710
 1.2400	45.1970
 1.2410	45.2210
 1.2420	45.2450
 1.2430	45.2650
 1.2440	45.2860
 1.2450	45.3050
 1.2460	45.3220
 1.2470	45.3380
 1.2480	45.3540
 1.2490	45.3690
 1.2500	45.3850
 1.2510	45.4010
 1.2520	45.4150
 1.2530	45.4260
 1.2540	45.4360
 1.2550	45.4430
 1.2560	45.4510
 1.2570	45.4590
 1.2580	45.4650
 1.2590	45.4710
 1.2600	45.4780
 1.2610	45.4820
 1.2620	45.4850
 1.2630	45.4860
 1.2640	45.4880
 1.2650	45.4860
 1.2660	45.4830
 1.2670	45.4800
 1.2680	45.4730
 1.2690	45.4670
 1.2700	45.4600
 1.2710	45.4530
 1.2720	45.4450
 1.2730	45.4330
 1.2740	45.4190
 1.2750	45.4040
 1.2760	45.3870
 1.2770	45.3700
 1.2780	45.3520
 1.2790	45.3310
 1.2800	45.3080
 1.2810	45.2830
 1.2820	45.2570
 1.2830	45.2320
 1.2840	45.2060
 1.2850	45.1790
 1.2860	45.1510
 1.2870	45.1200
 1.2880	45.0850
 1.2890	45.0500
 1.2900	45.0130
 1.2910	44.9740
 1.2920	44.9350
 1.2930	44.8940
 1.2940	44.8510
 1.2950	44.8060
 1.2960	44.7600
 1.2970	44.7090
 1.2980	44.6570
 1.2990	44.6050
 1.3000	44.5500
 1.3010	44.4920
 1.3020	44.4300
 1.3030	44.3610
 1.3040	44.2910
 1.3050	44.2190
 1.3060	44.1450
 1.3070	44.0690
 1.3080	43.9910
 1.3090	43.9060
 1.3100	43.8180
 1.3110	43.7250
 1.3120	43.6280
 1.3130	43.5280
 1.3140	43.4220
 1.3150	43.3100
 1.3160	43.1950
 1.3170	43.0770
 1.3180	42.9530
 1.3190	42.8260
 1.3200	42.6960
 1.3210	42.5610
 1.3220	42.4200
 1.3230	42.2760
 1.3240	42.1290
 1.3250	41.9810
 1.3260	41.8270
 1.3270	41.6690
 1.3280	41.5080
 1.3290	41.3420
 1.3300	41.1730
 1.3310	41.0030
 1.3320	40.8300
 1.3330	40.6590
 1.3340	40.4850
 1.3350	40.3110
 1.3360	40.1360
 1.3370	39.9570
 1.3380	39.7780
 1.3390	39.5990
 1.3400	39.4190
 1.3410	39.2430
 1.3420	39.0670
 1.3430	38.8910
 1.3440	38.7170
 1.3450	38.5440
 1.3460	38.3690
 1.3470	38.1990
 1.3480	38.0310
 1.3490	37.8640
 1.3500	37.7000
 1.3510	37.5370
 1.3520	37.3730
 1.3530	37.2110
 1.3540	37.0470
 1.3550	36.8850
 1.3560	36.7230
 1.3570	36.5590
 1.3580	36.3950
 1.3590	36.2290
 1.3600	36.0590
 1.3610	35.8870
 1.3620	35.7090
 1.3630	35.5260
 1.3640	35.3370
 1.3650	35.1380
 1.3660	34.9350
 1.3670	34.7210
 1.3680	34.4960
 1.3690	34.2600
 1.3700	34.0080
 1.3710	33.7440
 1.3720	33.4660
 1.3730	33.1690
 1.3740	32.8590
 1.3750	32.5290
 1.3760	32.1760
 1.3770	31.8030
 1.3780	31.4030
 1.3790	30.9810
 1.3800	30.5380
 1.3810	30.0690
 1.3820	29.5850
 1.3830	29.0820
 1.3840	28.5630
 1.3850	28.0260
 1.3860	27.4780
 1.3870	26.9090
 1.3880	26.3410
 1.3890	25.7650
 1.3900	25.1810
 1.3910	24.6020
 1.3920	24.0210
 1.3930	23.4380
 1.3940	22.8630
 1.3950	22.2900
 1.3960	21.7290
 1.3970	21.1830
 1.3980	20.6510
 1.3990	20.1410
 1.4000	19.6480
 1.4010	19.1730
 1.4020	18.7210
 1.4030	18.2860
 1.4040	17.8750
 1.4050	17.4870
 1.4060	17.1210
 1.4070	16.7810
 1.4080	16.4630
 1.4090	16.1650
 1.4100	15.8900
 1.4110	15.6340
 1.4120	15.3980
 1.4130	15.1810
 1.4140	14.9810
 1.4150	14.8000
 1.4160	14.6350
 1.4170	14.4840
 1.4180	14.3480
 1.4190	14.2230
 1.4200	14.1100
 1.4210	14.0090
 1.4220	13.9180
 1.4230	13.8370
 1.4240	13.7660
 1.4250	13.7020
 1.4260	13.6470
 1.4270	13.5980
 1.4280	13.5570
 1.4290	13.5210
 1.4300	13.4910
 1.4310	13.4670
 1.4320	13.4490
 1.4330	13.4340
 1.4340	13.4230
 1.4350	13.4160
 1.4360	13.4140
 1.4370	13.4150
 1.4380	13.4200
 1.4390	13.4290
 1.4400	13.4400
 1.4410	13.4520
 1.4420	13.4660
 1.4430	13.4830
 1.4440	13.5010
 1.4450	13.5210
 1.4460	13.5430
 1.4470	13.5630
 1.4480	13.5860
 1.4490	13.6090
 1.4500	13.6330
 1.4510	13.6600
 1.4520	13.6870
 1.4530	13.7140
 1.4540	13.7430
 1.4550	13.7720
 1.4560	13.8020
 1.4570	13.8340
 1.4580	13.8690
 1.4590	13.9050
 1.4600	13.9450
 1.4610	13.9880
 1.4620	14.0340
 1.4630	14.0830
 1.4640	14.1360
 1.4650	14.1930
 1.4660	14.2550
 1.4670	14.3200
 1.4680	14.3900
 1.4690	14.4650
 1.4700	14.5420
 1.4710	14.6240
 1.4720	14.7090
 1.4730	14.7960
 1.4740	14.8880
 1.4750	14.9820
 1.4760	15.0800
 1.4770	15.1800
 1.4780	15.2810
 1.4790	15.3850
 1.4800	15.4900
 1.4810	15.5940
 1.4820	15.7030
 1.4830	15.8120
 1.4840	15.9220
 1.4850	16.0350
 1.4860	16.1470
 1.4870	16.2590
 1.4880	16.3710
 1.4890	16.4840
 1.4900	16.5980
 1.4910	16.7130
 1.4920	16.8290
 1.4930	16.9480
 1.4940	17.0650
 1.4950	17.1830
 1.4960	17.3000
 1.4970	17.4140
 1.4980	17.5300
 1.4990	17.6470
 1.5000	17.7640
 1.5010	17.8810
 1.5020	17.9990
 1.5030	18.1170
 1.5040	18.2340
 1.5050	18.3510
 1.5060	18.4670
 1.5070	18.5830
 1.5080	18.6990
 1.5090	18.8160
 1.5100	18.9320
 1.5110	19.0470
 1.5120	19.1630
 1.5130	19.2760
 1.5140	19.3880
 1.5150	19.5010
 1.5160	19.6130
 1.5170	19.7240
 1.5180	19.8340
 1.5190	19.9450
 1.5200	20.0570
 1.5210	20.1650
 1.5220	20.2730
 1.5230	20.3820
 1.5240	20.4880
 1.5250	20.5940
 1.5260	20.7000
 1.5270	20.8030
 1.5280	20.9070
 1.5290	21.0090
 1.5300	21.1120
 1.5310	21.2140
 1.5320	21.3140
 1.5330	21.4150
 1.5340	21.5140
 1.5350	21.6120
 1.5360	21.7100
 1.5370	21.8040
 1.5380	21.8990
 1.5390	21.9950
 1.5400	22.0870
 1.5410	22.1820
 1.5420	22.2750
 1.5430	22.3660
 1.5440	22.4580
 1.5450	22.5490
 1.5460	22.6380
 1.5470	22.7270
 1.5480	22.8140
 1.5490	22.9020
 1.5500	22.9890
 1.5510	23.0750
 1.5520	23.1620
 1.5530	23.2460
 1.5540	23.3280
 1.5550	23.4110
 1.5560	23.4920
 1.5570	23.5750
 1.5580	23.6560
 1.5590	23.7350
 1.5600	23.8140
 1.5610	23.8920
 1.5620	23.9690
 1.5630	24.0460
 1.5640	24.1220
 1.5650	24.1970
 1.5660	24.2710
 1.5670	24.3430
 1.5680	24.4150
 1.5690	24.4880
 1.5700	24.5590
 1.5710	24.6300
 1.5720	24.7020
 1.5730	24.7720
 1.5740	24.8430
 1.5750	24.9130
 1.5760	24.9830
 1.5770	25.0510
 1.5780	25.1200
 1.5790	25.1880
 1.5800	25.2560
 1.5810	25.3240
 1.5820	25.3910
 1.5830	25.4570
 1.5840	25.5250
 1.5850	25.5900
 1.5860	25.6550
 1.5870	25.7210
 1.5880	25.7860
 1.5890	25.8520
 1.5900	25.9190
 1.5910	25.9820
 1.5920	26.0460
 1.5930	26.1090
 1.5940	26.1710
 1.5950	26.2340
 1.5960	26.2970
 1.5970	26.3590
 1.5980	26.4190
 1.5990	26.4790
 1.6000	26.5390
 1.6010	26.5980
 1.6020	26.6600
 1.6030	26.7190
 1.6040	26.7770
 1.6050	26.8350
 1.6060	26.8910
 1.6070	26.9480
 1.6080	27.0050
 1.6090	27.0600
 1.6100	27.1150
 1.6110	27.1700
 1.6120	27.2220
 1.6130	27.2730
 1.6140	27.3250
 1.6150	27.3750
 1.6160	27.4240
 1.6170	27.4710
 1.6180	27.5180
 1.6190	27.5620
 1.6200	27.6060
 1.6210	27.6510
 1.6220	27.6950
 1.6230	27.7370
 1.6240	27.7800
 1.6250	27.8200
 1.6260	27.8580
 1.6270	27.8970
 1.6280	27.9350
 1.6290	27.9720
 1.6300	28.0070
 1.6310	28.0420
 1.6320	28.0760
 1.6330	28.1090
 1.6340	28.1420
 1.6350	28.1730
 1.6360	28.2040
 1.6370	28.2320
 1.6380	28.2590
 1.6390	28.2820
 1.6400	28.3020
 1.6410	28.3210
 1.6420	28.3400
 1.6430	28.3550
 1.6440	28.3670
 1.6450	28.3770
 1.6460	28.3820
 1.6470	28.3850
 1.6480	28.3850
 1.6490	28.3800
 1.6500	28.3730
 1.6510	28.3610
 1.6520	28.3490
 1.6530	28.3330
 1.6540	28.3120
 1.6550	28.2900
 1.6560	28.2640
 1.6570	28.2370
 1.6580	28.2090
 1.6590	28.1810
 1.6600	28.1520
 1.6610	28.1230
 1.6620	28.0940
 1.6630	28.0660
 1.6640	28.0380
 1.6650	28.0140
 1.6660	27.9920
 1.6670	27.9730
 1.6680	27.9560
 1.6690	27.9380
 1.6700	27.9230
 1.6710	27.9080
 1.6720	27.8950
 1.6730	27.8830
 1.6740	27.8710
 1.6750	27.8600
 1.6760	27.8520
 1.6770	27.8420
 1.6780	27.8310
 1.6790	27.8190
 1.6800	27.8040
 1.6810	27.7870
 1.6820	27.7700
 1.6830	27.7490
 1.6840	27.7280
 1.6850	27.7040
 1.6860	27.6780
 1.6870	27.6520
 1.6880	27.6220
 1.6890	27.5900
 1.6900	27.5560
 1.6910	27.5190
 1.6920	27.4800
 1.6930	27.4400
 1.6940	27.3970
 1.6950	27.3530
 1.6960	27.3060
 1.6970	27.2570
 1.6980	27.2060
 1.6990	27.1520
 1.7000	27.0980
 1.7010	27.0440
 1.7020	26.9870
 1.7030	26.9280
 1.7040	26.8700
 1.7050	26.8090
 1.7060	26.7500
 1.7070	26.6920
 1.7080	26.6340
 1.7090	26.5760
 1.7100	26.5190
 1.7110	26.4620
 1.7120	26.4060
 1.7130	26.3510
 1.7140	26.2960
 1.7150	26.2410
 1.7160	26.1870
 1.7170	26.1310
 1.7180	26.0750
 1.7190	26.0220
 1.7200	25.9710
 1.7210	25.9210
 1.7220	25.8710
 1.7230	25.8230
 1.7240	25.7730
 1.7250	25.7250
 1.7260	25.6800
 1.7270	25.6360
 1.7280	25.5940
 1.7290	25.5530
 1.7300	25.5140
 1.7310	25.4750
 1.7320	25.4380
 1.7330	25.4000
 1.7340	25.3650
 1.7350	25.3250
 1.7360	25.2850
 1.7370	25.2390
 1.7380	25.1890
 1.7390	25.1380
 1.7400	25.0840
 1.7410	25.0300
 1.7420	24.9750
 1.7430	24.9180
 1.7440	24.8590
 1.7450	24.7990
 1.7460	24.7370
 1.7470	24.6750
 1.7480	24.6120
 1.7490	24.5510
 1.7500	24.4910
 1.7510	24.4310
 1.7520	24.3720
 1.7530	24.3140
 1.7540	24.2560
 1.7550	24.2000
 1.7560	24.1460
 1.7570	24.0930
 1.7580	24.0420
 1.7590	23.9920
 1.7600	23.9430
 1.7610	23.8970
 1.7620	23.8540
 1.7630	23.8140
 1.7640	23.7740
 1.7650	23.7340
 1.7660	23.6970
 1.7670	23.6610
 1.7680	23.6240
 1.7690	23.5900
 1.7700	23.5550
 1.7710	23.5170
 1.7720	23.4830
 1.7730	23.4510
 1.7740	23.4190
 1.7750	23.3880
 1.7760	23.3580
 1.7770	23.3270
 1.7780	23.2980
 1.7790	23.2690
 1.7800	23.2430
 1.7810	23.2190
 1.7820	23.1950
 1.7830	23.1710
 1.7840	23.1490
 1.7850	23.1250
 1.7860	23.1070
 1.7870	23.0900
 1.7880	23.0760
 1.7890	23.0650
 1.7900	23.0550
 1.7910	23.0460
 1.7920	23.0370
 1.7930	23.0300
 1.7940	23.0250
 1.7950	23.0220
 1.7960	23.0210
 1.7970	23.0210
 1.7980	23.0220
 1.7990	23.0220
 1.8000	23.0210
 1.8010	23.0220
 1.8020	23.0220
 1.8030	23.0230
 1.8040	23.0270
 1.8050	23.0300
 1.8060	23.0320
 1.8070	23.0330
 1.8080	23.0350
 1.8090	23.0360
 1.8100	23.0360
 1.8110	23.0370
 1.8120	23.0380
 1.8130	23.0390
 1.8140	23.0390
 1.8150	23.0370
 1.8160	23.0350
 1.8170	23.0340
 1.8180	23.0330
 1.8190	23.0310
 1.8200	23.0290
 1.8210	23.0240
 1.8220	23.0180
 1.8230	23.0130
 1.8240	23.0060
 1.8250	22.9970
 1.8260	22.9850
 1.8270	22.9760
 1.8280	22.9670
 1.8290	22.9580
 1.8300	22.9490
 1.8310	22.9390
 1.8320	22.9300
 1.8330	22.9210
 1.8340	22.9120
 1.8350	22.9120
 1.8360	22.8720
 1.8370	22.8280
 1.8380	22.7800
 1.8390	22.7250
 1.8400	22.6660
 1.8410	22.6020
 1.8420	22.5330
 1.8430	22.4610
 1.8440	22.3840
 1.8450	22.2980
 1.8460	22.2050
 1.8470	22.1020
 1.8480	21.9900
 1.8490	21.8690
 1.8500	21.7390
 1.8510	21.6000
 1.8520	21.4510
 1.8530	21.2920
 1.8540	21.1230
 1.8550	20.9430
 1.8560	20.7500
 1.8570	20.5460
 1.8580	20.3270
 1.8590	20.0950
 1.8600	19.8510
 1.8610	19.5940
 1.8620	19.3240
 1.8630	19.0440
 1.8640	18.7480
 1.8650	18.4360
 1.8660	18.1120
 1.8670	17.7690
 1.8680	17.4130
 1.8690	17.0450
 1.8700	16.6620
 1.8710	16.2640
 1.8720	15.8610
 1.8730	15.4510
 1.8740	15.0320
 1.8750	14.6130
 1.8760	14.1890
 1.8770	13.7700
 1.8780	13.3560
 1.8790	12.9440
 1.8800	12.5430
 1.8810	12.1510
 1.8820	11.7630
 1.8830	11.3810
 1.8840	11.0120
 1.8850	10.6490
 1.8860	10.3000
 1.8870	 9.9690
 1.8880	 9.6520
 1.8890	 9.3510
 1.8900	 9.0690
 1.8910	 8.8050
 1.8920	 8.5570
 1.8930	 8.3300
 1.8940	 8.1240
 1.8950	 7.9370
 1.8960	 7.7670
 1.8970	 7.6110
 1.8980	 7.4730
 1.8990	 7.3460
 1.9000	 7.2300
 1.9010	 7.1300
 1.9020	 7.0370
 1.9030	 6.9550
 1.9040	 6.8840
 1.9050	 6.8210
 1.9060	 6.7670
 1.9070	 6.7210
 1.9080	 6.6840
 1.9090	 6.6520
 1.9100	 6.6240
 1.9110	 6.5990
 1.9120	 6.5780
 1.9130	 6.5580
 1.9140	 6.5400
 1.9150	 6.5240
 1.9160	 6.5110
 1.9170	 6.5000
 1.9180	 6.4930
 1.9190	 6.4850
 1.9200	 6.4810
 1.9210	 6.4790
 1.9220	 6.4770
 1.9230	 6.4750
 1.9240	 6.4760
 1.9250	 6.4780
 1.9260	 6.4820
 1.9270	 6.4890
 1.9280	 6.4960
 1.9290	 6.5020
 1.9300	 6.5090
 1.9310	 6.5150
 1.9320	 6.5200
 1.9330	 6.5270
 1.9340	 6.5340
 1.9350	 6.5430
 1.9360	 6.5530
 1.9370	 6.5650
 1.9380	 6.5780
 1.9390	 6.5940
 1.9400	 6.6090
 1.9410	 6.6210
 1.9420	 6.6360
 1.9430	 6.6500
 1.9440	 6.6650
 1.9450	 6.6820
 1.9460	 6.6990
 1.9470	 6.7160
 1.9480	 6.7340
 1.9490	 6.7530
 1.9500	 6.7730
 1.9510	 6.7930
 1.9520	 6.8150
 1.9530	 6.8360
 1.9540	 6.8570
 1.9550	 6.8790
 1.9560	 6.9030
 1.9570	 6.9270
 1.9580	 6.9510
 1.9590	 6.9760
 1.9600	 7.0000
 1.9610	 7.0260
 1.9620	 7.0530
 1.9630	 7.0810
 1.9640	 7.1090
 1.9650	 7.1390
 1.9660	 7.1680
 1.9670	 7.1980
 1.9680	 7.2280
 1.9690	 7.2570
 1.9700	 7.2890
 1.9710	 7.3210
 1.9720	 7.3550
 1.9730	 7.3930
 1.9740	 7.4290
 1.9750	 7.4660
 1.9760	 7.5020
 1.9770	 7.5380
 1.9780	 7.5740
 1.9790	 7.6110
 1.9800	 7.6480
 1.9810	 7.6860
 1.9820	 7.7230
 1.9830	 7.7630
 1.9840	 7.8040
 1.9850	 7.8450
 1.9860	 7.8850
 1.9870	 7.9270
 1.9880	 7.9690
 1.9890	 8.0110
 1.9900	 8.0550
 1.9910	 8.1010
 1.9920	 8.1460
 1.9930	 8.1910
 1.9940	 8.2360
 1.9950	 8.2800
 1.9960	 8.3260
 1.9970	 8.3740
 1.9980	 8.4200
 1.9990	 8.4660
 2.0000	 8.5120
 2.0010	 8.5580
 2.0020	 8.6040
 2.0030	 8.6490
 2.0040	 8.6970
 2.0050	 8.7440
 2.0060	 8.7920
 2.0070	 8.8390
 2.0080	 8.8870
 2.0090	 8.9350
 2.0100	 8.9810
 2.0110	 9.0270
 2.0120	 9.0720
 2.0130	 9.1170
 2.0140	 9.1600
 2.0150	 9.2030
 2.0160	 9.2480
 2.0170	 9.2930
 2.0180	 9.3370
 2.0190	 9.3810
 2.0200	 9.4230
 2.0210	 9.4630
 2.0220	 9.5020
 2.0230	 9.5380
 2.0240	 9.5780
 2.0250	 9.6180
 2.0260	 9.6580
 2.0270	 9.7010
 2.0280	 9.7420
 2.0290	 9.7750
 2.0300	 9.8090
 2.0310	 9.8420
 2.0320	 9.8720
 2.0330	 9.9040
 2.0340	 9.9390
 2.0350	 9.9710
 2.0360	10.0010
 2.0370	10.0330
 2.0380	10.0670
 2.0390	10.0980
 2.0400	10.1310
 2.0410	10.1610
 2.0420	10.1870
 2.0430	10.2130
 2.0440	10.2390
 2.0450	10.2650
 2.0460	10.2910
 2.0470	10.3170
 2.0480	10.3440
 2.0490	10.3740
 2.0500	10.4000
 2.0510	10.4260
 2.0520	10.4510
 2.0530	10.4710
 2.0540	10.4940
 2.0550	10.5210
 2.0560	10.5450
 2.0570	10.5690
 2.0580	10.5940
 2.0590	10.6190
 2.0600	10.6430
 2.0610	10.6680
 2.0620	10.6950
 2.0630	10.7210
 2.0640	10.7470
 2.0650	10.7720
 2.0660	10.7970
 2.0670	10.8220
 2.0680	10.8470
 2.0690	10.8730
 2.0700	10.9000
 2.0710	10.9260
 2.0720	10.9530
 2.0730	10.9780
 2.0740	11.0030
 2.0750	11.0260
 2.0760	11.0490
 2.0770	11.0710
 2.0780	11.0940
 2.0790	11.1180
 2.0800	11.1430
 2.0810	11.1680
 2.0820	11.1930
 2.0830	11.2190
 2.0840	11.2440
 2.0850	11.2670
 2.0860	11.2920
 2.0870	11.3180
 2.0880	11.3430
 2.0890	11.3670
 2.0900	11.3910
 2.0910	11.4140
 2.0920	11.4340
 2.0930	11.4560
 2.0940	11.4820
 2.0950	11.5050
 2.0960	11.5260
 2.0970	11.5490
 2.0980	11.5710
 2.0990	11.5940
 2.1000	11.6210
 2.1010	11.6450
 2.1020	11.6640
 2.1030	11.6860
 2.1040	11.7080
 2.1050	11.7280
 2.1060	11.7500
 2.1070	11.7730
 2.1080	11.7970
 2.1090	11.8190
 2.1100	11.8440
 2.1110	11.8750
 2.1120	11.8980
 2.1130	11.9190
 2.1140	11.9390
 2.1150	11.9530
 2.1160	11.9700
 2.1170	11.9900
 2.1180	12.0090
 2.1190	12.0280
 2.1200	12.0480
 2.1210	12.0690
 2.1220	12.0900
 2.1230	12.1100
 2.1240	12.1310
 2.1250	12.1480
 2.1260	12.1610
 2.1270	12.1750
 2.1280	12.1860
 2.1290	12.1990
 2.1300	12.2120
 2.1310	12.2270
 2.1320	12.2450
 2.1330	12.2600
 2.1340	12.2740
 2.1350	12.2910
 2.1360	12.3090
 2.1370	12.3260
 2.1380	12.3480
 2.1390	12.3670
 2.1400	12.3840
 2.1410	12.3980
 2.1420	12.4150
 2.1430	12.4310
 2.1440	12.4510
 2.1450	12.4730
 2.1460	12.4930
 2.1470	12.5130
 2.1480	12.5340
 2.1490	12.5540
 2.1500	12.5760
 2.1510	12.6000
 2.1520	12.6230
 2.1530	12.6440
 2.1540	12.6670
 2.1550	12.6950
 2.1560	12.7190
 2.1570	12.7440
 2.1580	12.7670
 2.1590	12.7840
 2.1600	12.8030
 2.1610	12.8260
 2.1620	12.8510
 2.1630	12.8780
 2.1640	12.9110
 2.1650	12.9380
 2.1660	12.9640
 2.1670	12.9890
 2.1680	13.0120
 2.1690	13.0360
 2.1700	13.0600
 2.1710	13.0830
 2.1720	13.1060
 2.1730	13.1270
 2.1740	13.1450
 2.1750	13.1640
 2.1760	13.1800
 2.1770	13.2000
 2.1780	13.2230
 2.1790	13.2440
 2.1800	13.2640
 2.1810	13.2860
 2.1820	13.3070
 2.1830	13.3300
 2.1840	13.3540
 2.1850	13.3800
 2.1860	13.4030
 2.1870	13.4260
 2.1880	13.4480
 2.1890	13.4690
 2.1900	13.4900
 2.1910	13.5120
 2.1920	13.5340
 2.1930	13.5580
 2.1940	13.5800
 2.1950	13.6040
 2.1960	13.6260
 2.1970	13.6470
 2.1980	13.6660
 2.1990	13.6850
 2.2000	13.7030
 2.2010	13.7170
 2.2020	13.7340
 2.2030	13.7540
 2.2040	13.7730
 2.2050	13.7950
 2.2060	13.8170
 2.2070	13.8330
 2.2080	13.8460
 2.2090	13.8590
 2.2100	13.8700
 2.2110	13.8820
 2.2120	13.8970
 2.2130	13.9080
 2.2140	13.9190
 2.2150	13.9260
 2.2160	13.9310
 2.2170	13.9370
 2.2180	13.9400
 2.2190	13.9450
 2.2200	13.9510
 2.2210	13.9530
 2.2220	13.9550
 2.2230	13.9520
 2.2240	13.9410
 2.2250	13.9340
 2.2260	13.9260
 2.2270	13.9170
 2.2280	13.9100
 2.2290	13.8980
 2.2300	13.8820
 2.2310	13.8640
 2.2320	13.8410
 2.2330	13.8160
 2.2340	13.7900
 2.2350	13.7590
 2.2360	13.7300
 2.2370	13.7020
 2.2380	13.6700
 2.2390	13.6370
 2.2400	13.6030
 2.2410	13.5670
 2.2420	13.5270
 2.2430	13.4840
 2.2440	13.4410
 2.2450	13.3950
 2.2460	13.3460
 2.2470	13.2950
 2.2480	13.2450
 2.2490	13.1910
 2.2500	13.1390
 2.2510	13.0890
 2.2520	13.0360
 2.2530	12.9800
 2.2540	12.9240
 2.2550	12.8640
 2.2560	12.8080
 2.2570	12.7530
 2.2580	12.6990
 2.2590	12.6510
 2.2600	12.5990
 2.2610	12.5430
 2.2620	12.4880
 2.2630	12.4390
 2.2640	12.3820
 2.2650	12.3290
 2.2660	12.2810
 2.2670	12.2310
 2.2680	12.1760
 2.2690	12.1310
 2.2700	12.0910
 2.2710	12.0490
 2.2720	12.0120
 2.2730	11.9710
 2.2740	11.9260
 2.2750	11.8870
 2.2760	11.8500
 2.2770	11.8120
 2.2780	11.7770
 2.2790	11.7390
 2.2800	11.7000
 2.2810	11.6620
 2.2820	11.6240
 2.2830	11.5860
 2.2840	11.5470
 2.2850	11.5100
 2.2860	11.4750
 2.2870	11.4390
 2.2880	11.4050
 2.2890	11.3680
 2.2900	11.3280
 2.2910	11.2890
 2.2920	11.2490
 2.2930	11.2100
 2.2940	11.1740
 2.2950	11.1340
 2.2960	11.0900
 2.2970	11.0480
 2.2980	11.0060
 2.2990	10.9620
 2.3000	10.9250
 2.3010	10.8870
 2.3020	10.8510
 2.3030	10.8170
 2.3040	10.7840
 2.3050	10.7580
 2.3060	10.7350
 2.3070	10.7150
 2.3080	10.7010
 2.3090	10.6860
 2.3100	10.6740
 2.3110	10.6590
 2.3120	10.6410
 2.3130	10.6170
 2.3140	10.6030
 2.3150	10.5900
 2.3160	10.5780
 2.3170	10.5740
 2.3180	10.5600
 2.3190	10.5380
 2.3200	10.5220
 2.3210	10.5050
 2.3220	10.4870
 2.3230	10.4740
 2.3240	10.4530
 2.3250	10.4200
 2.3260	10.3980
 2.3270	10.3780
 2.3280	10.3560
 2.3290	10.3410
 2.3300	10.3180
 2.3310	10.2880
 2.3320	10.2600
 2.3330	10.2340
 2.3340	10.2030
 2.3350	10.1660
 2.3360	10.1340
 2.3370	10.1020
 2.3380	10.0690
 2.3390	10.0400
 2.3400	10.0080
 2.3410	 9.9690
 2.3420	 9.9390
 2.3430	 9.9130
 2.3440	 9.8850
 2.3450	 9.8590
 2.3460	 9.8330
 2.3470	 9.8030
 2.3480	 9.7790
 2.3490	 9.7620
 2.3500	 9.7420
 2.3510	 9.7220
 2.3520	 9.7050
 2.3530	 9.6910
 2.3540	 9.6740
 2.3550	 9.6540
 2.3560	 9.6370
 2.3570	 9.6150
 2.3580	 9.5940
 2.3590	 9.5760
 2.3600	 9.5560
 2.3610	 9.5370
 2.3620	 9.5090
 2.3630	 9.4850
 2.3640	 9.4660
 2.3650	 9.4420
 2.3660	 9.4240
 2.3670	 9.3960
 2.3680	 9.3700
 2.3690	 9.3530
 2.3700	 9.3300
 2.3710	 9.3150
 2.3720	 9.2930
 2.3730	 9.2640
 2.3740	 9.2400
 2.3750	 9.2150
 2.3760	 9.1920
 2.3770	 9.1680
 2.3780	 9.1380
 2.3790	 9.1110
 2.3800	 9.0890
 2.3810	 9.0690
 2.3820	 9.0530
 2.3830	 9.0330
 2.3840	 9.0060
 2.3850	 8.9730
 2.3860	 8.9420
 2.3870	 8.9140
 2.3880	 8.8910
 2.3890	 8.8690
 2.3900	 8.8420
 2.3910	 8.8110
 2.3920	 8.7770
 2.3930	 8.7520
 2.3940	 8.7320
 2.3950	 8.7090
 2.3960	 8.6880
 2.3970	 8.6700
 2.3980	 8.6430
 2.3990	 8.6140
 2.4000	 8.5800
 2.4010	 8.5360
 2.4020	 8.5010
 2.4030	 8.4750
 2.4040	 8.4560
 2.4050	 8.4320
 2.4060	 8.4100
 2.4070	 8.3820
 2.4080	 8.3480
 2.4090	 8.3260
 2.4100	 8.2930
 2.4110	 8.2610
 2.4120	 8.2310
 2.4130	 8.1890
 2.4140	 8.1600
 2.4150	 8.1440
 2.4160	 8.1370
 2.4170	 8.1280
 2.4180	 8.1100
 2.4190	 8.0760
 2.4200	 8.0330
 2.4210	 8.0060
 2.4220	 7.9840
 2.4230	 7.9630
 2.4240	 7.9440
 2.4250	 7.9160
 2.4260	 7.8900
 2.4270	 7.8570
 2.4280	 7.8210
 2.4290	 7.7930
 2.4300	 7.7610
 2.4310	 7.7460
 2.4320	 7.7340
 2.4330	 7.6990
 2.4340	 7.6750
 2.4350	 7.6470
 2.4360	 7.6010
 2.4370	 7.5800
 2.4380	 7.5610
 2.4390	 7.5320
 2.4400	 7.5150
 2.4410	 7.5020
 2.4420	 7.4810
 2.4430	 7.4540
 2.4440	 7.4340
 2.4450	 7.4020
 2.4460	 7.3680
 2.4470	 7.3490
 2.4480	 7.3240
 2.4490	 7.3040
 2.4500	 7.2860
 2.4510	 7.2560
 2.4520	 7.2280
 2.4530	 7.2040
 2.4540	 7.1840
 2.4550	 7.1750
 2.4560	 7.1660
 2.4570	 7.1470
 2.4580	 7.1290
 2.4590	 7.1100
 2.4600	 7.0810
 2.4610	 7.0500
 2.4620	 7.0210
 2.4630	 7.0010
 2.4640	 7.0000
 2.4650	 7.0120
 2.4660	 7.0310
 2.4670	 7.0230
 2.4680	 6.9820
 2.4690	 6.9410
 2.4700	 6.9090
 2.4710	 6.8640
 2.4720	 6.8430
 2.4730	 6.8330
 2.4740	 6.8360
 2.4750	 6.8850
 2.4760	 6.8880
 2.4770	 6.8740
 2.4780	 6.8610
 2.4790	 6.8100
 2.4800	 6.7830
 2.4810	 6.7850
 2.4820	 6.7520
 2.4830	 6.7240
 2.4840	 6.7480
 2.4850	 6.7500
 2.4860	 6.7530
 2.4870	 6.7710
 2.4880	 6.7250
 2.4890	 6.6800
 2.4900	 6.6690
 2.4910	 6.6520
 2.4920	 6.6270
 2.4930	 6.6350
 2.4940	 6.6300
 2.4950	 6.5990
 2.4960	 6.6660
 2.4970	 6.6800
 2.4980	 6.6470
 2.4990	 6.6840
 2.5000	 6.6860
