Name: Arctostaphylos glandulosa 2
Type: vegetation
Class: Shrub
Genus: Arctostaphylos
Species: glandulosa
Sample No.: VH037
Owner: UCSB
Wavelength Range: VSWIR
Origin: 34.5084; -119.7682; WGS84
Collection Date: 4/1/2013
Description: Samples were collected as part of the HyspIRI Airborne Campaign. 48 individual plants were sampled in three times in 2013 - spring  summer  and fall. The name of the sample includes a 1  2  or 3 which references a different individual of the species. Samples were taken to JPL and processed within 48 hours of collection. The same leaves were processed in the Nicolet and then measured using the ASD.
Measurement: Bidirectional reflectance
First Column: X
Second Column: Y
X Units: Wavelength (micrometers)
Y Units: Reflectance (percentage)
First X Value: 0.35
Last X Value: 2.5
Number of X Values: 2151
Additional Information: vegetation.shrub.arctostaphylos.glandulosa.vswir.vh037.ucsb.asd.ancillary.txt

 0.3500	 7.5840
 0.3510	 7.4490
 0.3520	 7.3390
 0.3530	 7.2190
 0.3540	 7.0970
 0.3550	 7.1420
 0.3560	 7.2240
 0.3570	 7.2880
 0.3580	 7.3190
 0.3590	 7.2750
 0.3600	 7.2760
 0.3610	 7.3310
 0.3620	 7.2750
 0.3630	 7.2710
 0.3640	 7.2620
 0.3650	 7.1880
 0.3660	 7.1630
 0.3670	 7.2630
 0.3680	 7.3420
 0.3690	 7.1550
 0.3700	 7.0760
 0.3710	 7.1000
 0.3720	 7.1530
 0.3730	 7.1390
 0.3740	 7.1460
 0.3750	 7.1250
 0.3760	 7.0380
 0.3770	 7.1030
 0.3780	 7.1110
 0.3790	 7.0400
 0.3800	 7.0400
 0.3810	 7.0600
 0.3820	 7.0730
 0.3830	 7.0730
 0.3840	 7.0910
 0.3850	 7.1170
 0.3860	 7.0820
 0.3870	 6.9550
 0.3880	 7.0230
 0.3890	 7.0710
 0.3900	 7.0400
 0.3910	 7.0580
 0.3920	 7.0320
 0.3930	 7.0100
 0.3940	 7.0300
 0.3950	 7.0150
 0.3960	 7.0120
 0.3970	 7.0220
 0.3980	 7.0230
 0.3990	 7.0070
 0.4000	 6.9620
 0.4010	 6.9130
 0.4020	 6.9310
 0.4030	 6.9640
 0.4040	 6.9830
 0.4050	 6.9760
 0.4060	 6.9480
 0.4070	 6.9320
 0.4080	 6.9430
 0.4090	 6.9800
 0.4100	 6.9770
 0.4110	 6.9650
 0.4120	 6.9600
 0.4130	 6.9350
 0.4140	 6.9480
 0.4150	 6.9670
 0.4160	 6.9520
 0.4170	 6.9670
 0.4180	 7.0030
 0.4190	 7.0370
 0.4200	 7.0390
 0.4210	 7.0470
 0.4220	 7.0770
 0.4230	 7.1200
 0.4240	 7.1220
 0.4250	 7.1510
 0.4260	 7.2030
 0.4270	 7.2430
 0.4280	 7.2840
 0.4290	 7.3370
 0.4300	 7.3940
 0.4310	 7.4260
 0.4320	 7.4880
 0.4330	 7.5500
 0.4340	 7.5810
 0.4350	 7.6290
 0.4360	 7.6840
 0.4370	 7.7400
 0.4380	 7.7960
 0.4390	 7.8580
 0.4400	 7.9180
 0.4410	 7.9760
 0.4420	 8.0540
 0.4430	 8.0990
 0.4440	 8.1280
 0.4450	 8.1780
 0.4460	 8.2370
 0.4470	 8.2920
 0.4480	 8.3420
 0.4490	 8.4000
 0.4500	 8.4430
 0.4510	 8.4840
 0.4520	 8.5310
 0.4530	 8.5620
 0.4540	 8.6010
 0.4550	 8.6430
 0.4560	 8.6650
 0.4570	 8.6780
 0.4580	 8.7000
 0.4590	 8.7320
 0.4600	 8.7390
 0.4610	 8.7570
 0.4620	 8.7810
 0.4630	 8.7990
 0.4640	 8.8190
 0.4650	 8.8210
 0.4660	 8.8130
 0.4670	 8.8280
 0.4680	 8.8380
 0.4690	 8.8470
 0.4700	 8.8610
 0.4710	 8.8730
 0.4720	 8.8730
 0.4730	 8.8730
 0.4740	 8.8890
 0.4750	 8.8970
 0.4760	 8.9010
 0.4770	 8.9060
 0.4780	 8.9070
 0.4790	 8.9120
 0.4800	 8.9200
 0.4810	 8.9310
 0.4820	 8.9400
 0.4830	 8.9450
 0.4840	 8.9470
 0.4850	 8.9500
 0.4860	 8.9600
 0.4870	 8.9750
 0.4880	 8.9900
 0.4890	 9.0020
 0.4900	 9.0170
 0.4910	 9.0390
 0.4920	 9.0680
 0.4930	 9.0910
 0.4940	 9.1190
 0.4950	 9.1560
 0.4960	 9.1890
 0.4970	 9.2240
 0.4980	 9.2660
 0.4990	 9.3180
 0.5000	 9.3740
 0.5010	 9.4290
 0.5020	 9.4880
 0.5030	 9.5600
 0.5040	 9.6410
 0.5050	 9.7230
 0.5060	 9.8050
 0.5070	 9.8990
 0.5080	10.0090
 0.5090	10.1310
 0.5100	10.2540
 0.5110	10.3910
 0.5120	10.5430
 0.5130	10.7060
 0.5140	10.8740
 0.5150	11.0500
 0.5160	11.2400
 0.5170	11.4510
 0.5180	11.6660
 0.5190	11.8940
 0.5200	12.1300
 0.5210	12.3600
 0.5220	12.5990
 0.5230	12.8420
 0.5240	13.0840
 0.5250	13.3220
 0.5260	13.5550
 0.5270	13.7800
 0.5280	13.9980
 0.5290	14.2010
 0.5300	14.3940
 0.5310	14.5790
 0.5320	14.7500
 0.5330	14.9070
 0.5340	15.0550
 0.5350	15.1920
 0.5360	15.3200
 0.5370	15.4330
 0.5380	15.5360
 0.5390	15.6380
 0.5400	15.7340
 0.5410	15.8240
 0.5420	15.9070
 0.5430	15.9910
 0.5440	16.0750
 0.5450	16.1530
 0.5460	16.2190
 0.5470	16.2800
 0.5480	16.3350
 0.5490	16.3840
 0.5500	16.4270
 0.5510	16.4610
 0.5520	16.4820
 0.5530	16.4880
 0.5540	16.4840
 0.5550	16.4630
 0.5560	16.4230
 0.5570	16.3690
 0.5580	16.3040
 0.5590	16.2280
 0.5600	16.1420
 0.5610	16.0410
 0.5620	15.9320
 0.5630	15.8160
 0.5640	15.6950
 0.5650	15.5670
 0.5660	15.4340
 0.5670	15.2950
 0.5680	15.1480
 0.5690	14.9960
 0.5700	14.8390
 0.5710	14.6820
 0.5720	14.5330
 0.5730	14.3840
 0.5740	14.2380
 0.5750	14.1040
 0.5760	13.9800
 0.5770	13.8660
 0.5780	13.7620
 0.5790	13.6600
 0.5800	13.5590
 0.5810	13.4610
 0.5820	13.3720
 0.5830	13.2970
 0.5840	13.2270
 0.5850	13.1570
 0.5860	13.0900
 0.5870	13.0290
 0.5880	12.9730
 0.5890	12.9220
 0.5900	12.8760
 0.5910	12.8320
 0.5920	12.7910
 0.5930	12.7570
 0.5940	12.7310
 0.5950	12.7080
 0.5960	12.6850
 0.5970	12.6620
 0.5980	12.6370
 0.5990	12.6110
 0.6000	12.5810
 0.6010	12.5440
 0.6020	12.4990
 0.6030	12.4490
 0.6040	12.3930
 0.6050	12.3280
 0.6060	12.2570
 0.6070	12.1810
 0.6080	12.0950
 0.6090	12.0080
 0.6100	11.9240
 0.6110	11.8400
 0.6120	11.7540
 0.6130	11.6680
 0.6140	11.5840
 0.6150	11.5030
 0.6160	11.4230
 0.6170	11.3490
 0.6180	11.2850
 0.6190	11.2240
 0.6200	11.1720
 0.6210	11.1280
 0.6220	11.0880
 0.6230	11.0520
 0.6240	11.0190
 0.6250	10.9910
 0.6260	10.9690
 0.6270	10.9470
 0.6280	10.9280
 0.6290	10.9170
 0.6300	10.9060
 0.6310	10.8950
 0.6320	10.8840
 0.6330	10.8700
 0.6340	10.8520
 0.6350	10.8290
 0.6360	10.8010
 0.6370	10.7690
 0.6380	10.7260
 0.6390	10.6730
 0.6400	10.6160
 0.6410	10.5580
 0.6420	10.4950
 0.6430	10.4230
 0.6440	10.3500
 0.6450	10.2740
 0.6460	10.1970
 0.6470	10.1240
 0.6480	10.0550
 0.6490	 9.9850
 0.6500	 9.9170
 0.6510	 9.8570
 0.6520	 9.8000
 0.6530	 9.7430
 0.6540	 9.6810
 0.6550	 9.6230
 0.6560	 9.5580
 0.6570	 9.4870
 0.6580	 9.4110
 0.6590	 9.3350
 0.6600	 9.2590
 0.6610	 9.1820
 0.6620	 9.1040
 0.6630	 9.0320
 0.6640	 8.9670
 0.6650	 8.9080
 0.6660	 8.8580
 0.6670	 8.8140
 0.6680	 8.7750
 0.6690	 8.7460
 0.6700	 8.7240
 0.6710	 8.7060
 0.6720	 8.6930
 0.6730	 8.6860
 0.6740	 8.6880
 0.6750	 8.6950
 0.6760	 8.7010
 0.6770	 8.7130
 0.6780	 8.7280
 0.6790	 8.7500
 0.6800	 8.7830
 0.6810	 8.8230
 0.6820	 8.8740
 0.6830	 8.9400
 0.6840	 9.0170
 0.6850	 9.1150
 0.6860	 9.2360
 0.6870	 9.3840
 0.6880	 9.5570
 0.6890	 9.7670
 0.6900	10.0190
 0.6910	10.3170
 0.6920	10.6660
 0.6930	11.0690
 0.6940	11.5280
 0.6950	12.0490
 0.6960	12.6320
 0.6970	13.2770
 0.6980	13.9780
 0.6990	14.7360
 0.7000	15.5450
 0.7010	16.3990
 0.7020	17.2910
 0.7030	18.2100
 0.7040	19.1510
 0.7050	20.1070
 0.7060	21.0700
 0.7070	22.0410
 0.7080	23.0090
 0.7090	23.9680
 0.7100	24.9250
 0.7110	25.8750
 0.7120	26.8140
 0.7130	27.7370
 0.7140	28.6390
 0.7150	29.5270
 0.7160	30.4020
 0.7170	31.2500
 0.7180	32.0760
 0.7190	32.8790
 0.7200	33.6550
 0.7210	34.4070
 0.7220	35.1310
 0.7230	35.8270
 0.7240	36.4960
 0.7250	37.1320
 0.7260	37.7380
 0.7270	38.3190
 0.7280	38.8630
 0.7290	39.3790
 0.7300	39.8670
 0.7310	40.3270
 0.7320	40.7590
 0.7330	41.1650
 0.7340	41.5460
 0.7350	41.9040
 0.7360	42.2400
 0.7370	42.5530
 0.7380	42.8430
 0.7390	43.1170
 0.7400	43.3720
 0.7410	43.6100
 0.7420	43.8340
 0.7430	44.0420
 0.7440	44.2350
 0.7450	44.4140
 0.7460	44.5750
 0.7470	44.7250
 0.7480	44.8640
 0.7490	44.9910
 0.7500	45.1100
 0.7510	45.2190
 0.7520	45.3200
 0.7530	45.4140
 0.7540	45.5020
 0.7550	45.5790
 0.7560	45.6470
 0.7570	45.7090
 0.7580	45.7710
 0.7590	45.8280
 0.7600	45.8760
 0.7610	45.9210
 0.7620	45.9660
 0.7630	46.0060
 0.7640	46.0360
 0.7650	46.0750
 0.7660	46.1090
 0.7670	46.1360
 0.7680	46.1620
 0.7690	46.1890
 0.7700	46.2170
 0.7710	46.2420
 0.7720	46.2600
 0.7730	46.2810
 0.7740	46.3030
 0.7750	46.3210
 0.7760	46.3390
 0.7770	46.3580
 0.7780	46.3770
 0.7790	46.3960
 0.7800	46.4090
 0.7810	46.4240
 0.7820	46.4410
 0.7830	46.4560
 0.7840	46.4730
 0.7850	46.4880
 0.7860	46.5000
 0.7870	46.5130
 0.7880	46.5250
 0.7890	46.5370
 0.7900	46.5490
 0.7910	46.5600
 0.7920	46.5700
 0.7930	46.5800
 0.7940	46.5880
 0.7950	46.5900
 0.7960	46.5960
 0.7970	46.6070
 0.7980	46.6140
 0.7990	46.6170
 0.8000	46.6210
 0.8010	46.6290
 0.8020	46.6310
 0.8030	46.6330
 0.8040	46.6340
 0.8050	46.6330
 0.8060	46.6330
 0.8070	46.6310
 0.8080	46.6260
 0.8090	46.6220
 0.8100	46.6200
 0.8110	46.6160
 0.8120	46.6120
 0.8130	46.6100
 0.8140	46.6020
 0.8150	46.5920
 0.8160	46.5820
 0.8170	46.5730
 0.8180	46.5630
 0.8190	46.5550
 0.8200	46.5510
 0.8210	46.5420
 0.8220	46.5270
 0.8230	46.5130
 0.8240	46.5030
 0.8250	46.5000
 0.8260	46.4900
 0.8270	46.4700
 0.8280	46.4540
 0.8290	46.4400
 0.8300	46.4260
 0.8310	46.4120
 0.8320	46.3990
 0.8330	46.3840
 0.8340	46.3690
 0.8350	46.3570
 0.8360	46.3460
 0.8370	46.3350
 0.8380	46.3220
 0.8390	46.3080
 0.8400	46.3080
 0.8410	46.3020
 0.8420	46.2850
 0.8430	46.2820
 0.8440	46.2730
 0.8450	46.2650
 0.8460	46.2640
 0.8470	46.2620
 0.8480	46.2580
 0.8490	46.2530
 0.8500	46.2510
 0.8510	46.2500
 0.8520	46.2450
 0.8530	46.2390
 0.8540	46.2360
 0.8550	46.2300
 0.8560	46.2260
 0.8570	46.2240
 0.8580	46.2180
 0.8590	46.2160
 0.8600	46.2170
 0.8610	46.2180
 0.8620	46.2180
 0.8630	46.2170
 0.8640	46.2150
 0.8650	46.2140
 0.8660	46.2140
 0.8670	46.2090
 0.8680	46.2120
 0.8690	46.2300
 0.8700	46.2370
 0.8710	46.2310
 0.8720	46.2260
 0.8730	46.2350
 0.8740	46.2340
 0.8750	46.2320
 0.8760	46.2360
 0.8770	46.2480
 0.8780	46.2560
 0.8790	46.2580
 0.8800	46.2550
 0.8810	46.2570
 0.8820	46.2680
 0.8830	46.2750
 0.8840	46.2720
 0.8850	46.2750
 0.8860	46.2740
 0.8870	46.2750
 0.8880	46.2810
 0.8890	46.2840
 0.8900	46.2830
 0.8910	46.2790
 0.8920	46.2770
 0.8930	46.2850
 0.8940	46.2900
 0.8950	46.2890
 0.8960	46.2870
 0.8970	46.2890
 0.8980	46.2900
 0.8990	46.2910
 0.9000	46.2980
 0.9010	46.2990
 0.9020	46.2970
 0.9030	46.3000
 0.9040	46.3100
 0.9050	46.3110
 0.9060	46.3120
 0.9070	46.3160
 0.9080	46.3050
 0.9090	46.3060
 0.9100	46.3140
 0.9110	46.3180
 0.9120	46.3050
 0.9130	46.3030
 0.9140	46.3090
 0.9150	46.3160
 0.9160	46.3200
 0.9170	46.3150
 0.9180	46.3010
 0.9190	46.2870
 0.9200	46.2820
 0.9210	46.2760
 0.9220	46.2720
 0.9230	46.2740
 0.9240	46.2550
 0.9250	46.2430
 0.9260	46.2390
 0.9270	46.2270
 0.9280	46.2130
 0.9290	46.1930
 0.9300	46.1680
 0.9310	46.1490
 0.9320	46.1300
 0.9330	46.1100
 0.9340	46.0910
 0.9350	46.0750
 0.9360	46.0450
 0.9370	46.0200
 0.9380	46.0030
 0.9390	45.9700
 0.9400	45.9450
 0.9410	45.9160
 0.9420	45.8720
 0.9430	45.8310
 0.9440	45.7970
 0.9450	45.7620
 0.9460	45.7220
 0.9470	45.6780
 0.9480	45.6300
 0.9490	45.5690
 0.9500	45.4950
 0.9510	45.4260
 0.9520	45.3530
 0.9530	45.2760
 0.9540	45.1980
 0.9550	45.1060
 0.9560	45.0250
 0.9570	44.9500
 0.9580	44.8750
 0.9590	44.8140
 0.9600	44.7450
 0.9610	44.6800
 0.9620	44.6330
 0.9630	44.5790
 0.9640	44.5380
 0.9650	44.5050
 0.9660	44.4650
 0.9670	44.4130
 0.9680	44.3920
 0.9690	44.3880
 0.9700	44.3670
 0.9710	44.3440
 0.9720	44.3160
 0.9730	44.2960
 0.9740	44.2950
 0.9750	44.2850
 0.9760	44.2790
 0.9770	44.2870
 0.9780	44.3030
 0.9790	44.2760
 0.9800	44.2710
 0.9810	44.2780
 0.9820	44.2620
 0.9830	44.2740
 0.9840	44.2920
 0.9850	44.3030
 0.9860	44.3070
 0.9870	44.3290
 0.9880	44.3520
 0.9890	44.3700
 0.9900	44.3820
 0.9910	44.4120
 0.9920	44.4750
 0.9930	44.5380
 0.9940	44.6010
 0.9950	44.6640
 0.9960	44.7270
 0.9970	44.7900
 0.9980	44.8530
 0.9990	44.9160
 1.0000	44.9790
 1.0010	45.0420
 1.0020	45.1050
 1.0030	45.1680
 1.0040	45.2310
 1.0050	45.2950
 1.0060	45.3580
 1.0070	45.4210
 1.0080	45.4840
 1.0090	45.5470
 1.0100	45.5470
 1.0110	45.5750
 1.0120	45.6020
 1.0130	45.6320
 1.0140	45.6570
 1.0150	45.6790
 1.0160	45.7000
 1.0170	45.7220
 1.0180	45.7480
 1.0190	45.7720
 1.0200	45.7990
 1.0210	45.8270
 1.0220	45.8480
 1.0230	45.8700
 1.0240	45.8930
 1.0250	45.9150
 1.0260	45.9320
 1.0270	45.9540
 1.0280	45.9790
 1.0290	46.0030
 1.0300	46.0300
 1.0310	46.0520
 1.0320	46.0710
 1.0330	46.0900
 1.0340	46.1050
 1.0350	46.1210
 1.0360	46.1410
 1.0370	46.1610
 1.0380	46.1790
 1.0390	46.1990
 1.0400	46.2160
 1.0410	46.2300
 1.0420	46.2430
 1.0430	46.2540
 1.0440	46.2660
 1.0450	46.2760
 1.0460	46.2900
 1.0470	46.3100
 1.0480	46.3240
 1.0490	46.3360
 1.0500	46.3480
 1.0510	46.3570
 1.0520	46.3650
 1.0530	46.3740
 1.0540	46.3850
 1.0550	46.3940
 1.0560	46.4020
 1.0570	46.4110
 1.0580	46.4190
 1.0590	46.4280
 1.0600	46.4360
 1.0610	46.4450
 1.0620	46.4540
 1.0630	46.4630
 1.0640	46.4750
 1.0650	46.4830
 1.0660	46.4880
 1.0670	46.4930
 1.0680	46.4950
 1.0690	46.4950
 1.0700	46.4960
 1.0710	46.4960
 1.0720	46.4980
 1.0730	46.5010
 1.0740	46.5040
 1.0750	46.5080
 1.0760	46.5100
 1.0770	46.5130
 1.0780	46.5130
 1.0790	46.5110
 1.0800	46.5080
 1.0810	46.5010
 1.0820	46.4960
 1.0830	46.4910
 1.0840	46.4880
 1.0850	46.4850
 1.0860	46.4820
 1.0870	46.4790
 1.0880	46.4760
 1.0890	46.4710
 1.0900	46.4660
 1.0910	46.4580
 1.0920	46.4490
 1.0930	46.4390
 1.0940	46.4280
 1.0950	46.4160
 1.0960	46.4050
 1.0970	46.3930
 1.0980	46.3810
 1.0990	46.3680
 1.1000	46.3570
 1.1010	46.3430
 1.1020	46.3250
 1.1030	46.3100
 1.1040	46.2950
 1.1050	46.2750
 1.1060	46.2560
 1.1070	46.2390
 1.1080	46.2200
 1.1090	46.1990
 1.1100	46.1780
 1.1110	46.1560
 1.1120	46.1330
 1.1130	46.1120
 1.1140	46.0850
 1.1150	46.0550
 1.1160	46.0230
 1.1170	45.9880
 1.1180	45.9500
 1.1190	45.9100
 1.1200	45.8680
 1.1210	45.8220
 1.1220	45.7700
 1.1230	45.7150
 1.1240	45.6590
 1.1250	45.5970
 1.1260	45.5320
 1.1270	45.4590
 1.1280	45.3820
 1.1290	45.2970
 1.1300	45.2040
 1.1310	45.1080
 1.1320	45.0060
 1.1330	44.8960
 1.1340	44.7830
 1.1350	44.6600
 1.1360	44.5290
 1.1370	44.3900
 1.1380	44.2460
 1.1390	44.0940
 1.1400	43.9360
 1.1410	43.7740
 1.1420	43.6070
 1.1430	43.4390
 1.1440	43.2690
 1.1450	43.0950
 1.1460	42.9250
 1.1470	42.7500
 1.1480	42.5850
 1.1490	42.4220
 1.1500	42.2710
 1.1510	42.1280
 1.1520	41.9920
 1.1530	41.8640
 1.1540	41.7460
 1.1550	41.6340
 1.1560	41.5350
 1.1570	41.4470
 1.1580	41.3670
 1.1590	41.2980
 1.1600	41.2360
 1.1610	41.1810
 1.1620	41.1340
 1.1630	41.0920
 1.1640	41.0570
 1.1650	41.0250
 1.1660	40.9980
 1.1670	40.9730
 1.1680	40.9520
 1.1690	40.9320
 1.1700	40.9130
 1.1710	40.8950
 1.1720	40.8820
 1.1730	40.8660
 1.1740	40.8490
 1.1750	40.8320
 1.1760	40.8120
 1.1770	40.7880
 1.1780	40.7660
 1.1790	40.7420
 1.1800	40.7170
 1.1810	40.6920
 1.1820	40.6640
 1.1830	40.6370
 1.1840	40.6110
 1.1850	40.5870
 1.1860	40.5630
 1.1870	40.5390
 1.1880	40.5170
 1.1890	40.4950
 1.1900	40.4740
 1.1910	40.4540
 1.1920	40.4360
 1.1930	40.4180
 1.1940	40.4030
 1.1950	40.3910
 1.1960	40.3810
 1.1970	40.3720
 1.1980	40.3650
 1.1990	40.3620
 1.2000	40.3620
 1.2010	40.3640
 1.2020	40.3670
 1.2030	40.3690
 1.2040	40.3730
 1.2050	40.3860
 1.2060	40.4010
 1.2070	40.4200
 1.2080	40.4430
 1.2090	40.4670
 1.2100	40.4940
 1.2110	40.5240
 1.2120	40.5590
 1.2130	40.5950
 1.2140	40.6330
 1.2150	40.6750
 1.2160	40.7200
 1.2170	40.7680
 1.2180	40.8180
 1.2190	40.8720
 1.2200	40.9280
 1.2210	40.9820
 1.2220	41.0360
 1.2230	41.0890
 1.2240	41.1420
 1.2250	41.1940
 1.2260	41.2450
 1.2270	41.2960
 1.2280	41.3460
 1.2290	41.3930
 1.2300	41.4410
 1.2310	41.4840
 1.2320	41.5240
 1.2330	41.5660
 1.2340	41.6040
 1.2350	41.6390
 1.2360	41.6740
 1.2370	41.7080
 1.2380	41.7380
 1.2390	41.7660
 1.2400	41.7950
 1.2410	41.8240
 1.2420	41.8520
 1.2430	41.8810
 1.2440	41.9090
 1.2450	41.9310
 1.2460	41.9550
 1.2470	41.9770
 1.2480	41.9980
 1.2490	42.0190
 1.2500	42.0370
 1.2510	42.0540
 1.2520	42.0710
 1.2530	42.0880
 1.2540	42.1030
 1.2550	42.1170
 1.2560	42.1300
 1.2570	42.1420
 1.2580	42.1530
 1.2590	42.1630
 1.2600	42.1710
 1.2610	42.1780
 1.2620	42.1820
 1.2630	42.1860
 1.2640	42.1860
 1.2650	42.1890
 1.2660	42.1900
 1.2670	42.1910
 1.2680	42.1930
 1.2690	42.1900
 1.2700	42.1850
 1.2710	42.1820
 1.2720	42.1760
 1.2730	42.1690
 1.2740	42.1620
 1.2750	42.1500
 1.2760	42.1370
 1.2770	42.1250
 1.2780	42.1100
 1.2790	42.0950
 1.2800	42.0790
 1.2810	42.0590
 1.2820	42.0380
 1.2830	42.0170
 1.2840	41.9950
 1.2850	41.9700
 1.2860	41.9440
 1.2870	41.9160
 1.2880	41.8850
 1.2890	41.8520
 1.2900	41.8150
 1.2910	41.7770
 1.2920	41.7360
 1.2930	41.6920
 1.2940	41.6470
 1.2950	41.6010
 1.2960	41.5500
 1.2970	41.4980
 1.2980	41.4420
 1.2990	41.3830
 1.3000	41.3200
 1.3010	41.2560
 1.3020	41.1880
 1.3030	41.1150
 1.3040	41.0390
 1.3050	40.9610
 1.3060	40.8800
 1.3070	40.7980
 1.3080	40.7130
 1.3090	40.6220
 1.3100	40.5280
 1.3110	40.4300
 1.3120	40.3280
 1.3130	40.2240
 1.3140	40.1150
 1.3150	40.0020
 1.3160	39.8860
 1.3170	39.7670
 1.3180	39.6430
 1.3190	39.5160
 1.3200	39.3860
 1.3210	39.2500
 1.3220	39.1110
 1.3230	38.9680
 1.3240	38.8210
 1.3250	38.6730
 1.3260	38.5210
 1.3270	38.3660
 1.3280	38.2100
 1.3290	38.0480
 1.3300	37.8860
 1.3310	37.7220
 1.3320	37.5540
 1.3330	37.3870
 1.3340	37.2180
 1.3350	37.0480
 1.3360	36.8760
 1.3370	36.7030
 1.3380	36.5300
 1.3390	36.3570
 1.3400	36.1870
 1.3410	36.0200
 1.3420	35.8520
 1.3430	35.6850
 1.3440	35.5200
 1.3450	35.3560
 1.3460	35.1900
 1.3470	35.0280
 1.3480	34.8670
 1.3490	34.7090
 1.3500	34.5540
 1.3510	34.4000
 1.3520	34.2460
 1.3530	34.0930
 1.3540	33.9370
 1.3550	33.7810
 1.3560	33.6270
 1.3570	33.4700
 1.3580	33.3140
 1.3590	33.1560
 1.3600	32.9930
 1.3610	32.8290
 1.3620	32.6580
 1.3630	32.4840
 1.3640	32.3040
 1.3650	32.1150
 1.3660	31.9230
 1.3670	31.7220
 1.3680	31.5090
 1.3690	31.2860
 1.3700	31.0480
 1.3710	30.7970
 1.3720	30.5340
 1.3730	30.2530
 1.3740	29.9590
 1.3750	29.6490
 1.3760	29.3180
 1.3770	28.9670
 1.3780	28.5920
 1.3790	28.1970
 1.3800	27.7840
 1.3810	27.3480
 1.3820	26.9000
 1.3830	26.4360
 1.3840	25.9570
 1.3850	25.4630
 1.3860	24.9620
 1.3870	24.4430
 1.3880	23.9250
 1.3890	23.4000
 1.3900	22.8700
 1.3910	22.3470
 1.3920	21.8220
 1.3930	21.3000
 1.3940	20.7870
 1.3950	20.2750
 1.3960	19.7760
 1.3970	19.2910
 1.3980	18.8190
 1.3990	18.3690
 1.4000	17.9360
 1.4010	17.5180
 1.4020	17.1220
 1.4030	16.7430
 1.4040	16.3840
 1.4050	16.0470
 1.4060	15.7280
 1.4070	15.4340
 1.4080	15.1590
 1.4090	14.9020
 1.4100	14.6640
 1.4110	14.4450
 1.4120	14.2430
 1.4130	14.0580
 1.4140	13.8880
 1.4150	13.7340
 1.4160	13.5930
 1.4170	13.4660
 1.4180	13.3520
 1.4190	13.2490
 1.4200	13.1560
 1.4210	13.0730
 1.4220	12.9970
 1.4230	12.9300
 1.4240	12.8700
 1.4250	12.8170
 1.4260	12.7710
 1.4270	12.7290
 1.4280	12.6940
 1.4290	12.6630
 1.4300	12.6370
 1.4310	12.6160
 1.4320	12.6000
 1.4330	12.5870
 1.4340	12.5780
 1.4350	12.5710
 1.4360	12.5670
 1.4370	12.5650
 1.4380	12.5650
 1.4390	12.5680
 1.4400	12.5740
 1.4410	12.5830
 1.4420	12.5920
 1.4430	12.6020
 1.4440	12.6140
 1.4450	12.6260
 1.4460	12.6410
 1.4470	12.6560
 1.4480	12.6730
 1.4490	12.6900
 1.4500	12.7080
 1.4510	12.7260
 1.4520	12.7460
 1.4530	12.7650
 1.4540	12.7850
 1.4550	12.8070
 1.4560	12.8290
 1.4570	12.8530
 1.4580	12.8790
 1.4590	12.9070
 1.4600	12.9370
 1.4610	12.9690
 1.4620	13.0040
 1.4630	13.0420
 1.4640	13.0830
 1.4650	13.1280
 1.4660	13.1760
 1.4670	13.2270
 1.4680	13.2820
 1.4690	13.3400
 1.4700	13.4000
 1.4710	13.4650
 1.4720	13.5320
 1.4730	13.6020
 1.4740	13.6750
 1.4750	13.7510
 1.4760	13.8300
 1.4770	13.9100
 1.4780	13.9930
 1.4790	14.0780
 1.4800	14.1630
 1.4810	14.2490
 1.4820	14.3370
 1.4830	14.4250
 1.4840	14.5160
 1.4850	14.6070
 1.4860	14.6980
 1.4870	14.7920
 1.4880	14.8860
 1.4890	14.9800
 1.4900	15.0750
 1.4910	15.1700
 1.4920	15.2650
 1.4930	15.3620
 1.4940	15.4590
 1.4950	15.5570
 1.4960	15.6540
 1.4970	15.7500
 1.4980	15.8480
 1.4990	15.9450
 1.5000	16.0430
 1.5010	16.1430
 1.5020	16.2410
 1.5030	16.3380
 1.5040	16.4360
 1.5050	16.5330
 1.5060	16.6300
 1.5070	16.7280
 1.5080	16.8250
 1.5090	16.9220
 1.5100	17.0180
 1.5110	17.1140
 1.5120	17.2110
 1.5130	17.3060
 1.5140	17.4010
 1.5150	17.4970
 1.5160	17.5920
 1.5170	17.6870
 1.5180	17.7810
 1.5190	17.8740
 1.5200	17.9670
 1.5210	18.0580
 1.5220	18.1490
 1.5230	18.2400
 1.5240	18.3300
 1.5250	18.4220
 1.5260	18.5120
 1.5270	18.5990
 1.5280	18.6860
 1.5290	18.7700
 1.5300	18.8550
 1.5310	18.9410
 1.5320	19.0260
 1.5330	19.1100
 1.5340	19.1930
 1.5350	19.2760
 1.5360	19.3580
 1.5370	19.4380
 1.5380	19.5180
 1.5390	19.6000
 1.5400	19.6800
 1.5410	19.7600
 1.5420	19.8400
 1.5430	19.9170
 1.5440	19.9950
 1.5450	20.0720
 1.5460	20.1480
 1.5470	20.2240
 1.5480	20.3000
 1.5490	20.3740
 1.5500	20.4480
 1.5510	20.5210
 1.5520	20.5950
 1.5530	20.6670
 1.5540	20.7390
 1.5550	20.8100
 1.5560	20.8780
 1.5570	20.9460
 1.5580	21.0150
 1.5590	21.0830
 1.5600	21.1520
 1.5610	21.2200
 1.5620	21.2860
 1.5630	21.3510
 1.5640	21.4150
 1.5650	21.4790
 1.5660	21.5430
 1.5670	21.6070
 1.5680	21.6700
 1.5690	21.7330
 1.5700	21.7950
 1.5710	21.8580
 1.5720	21.9200
 1.5730	21.9820
 1.5740	22.0440
 1.5750	22.1050
 1.5760	22.1670
 1.5770	22.2270
 1.5780	22.2880
 1.5790	22.3470
 1.5800	22.4060
 1.5810	22.4650
 1.5820	22.5240
 1.5830	22.5830
 1.5840	22.6410
 1.5850	22.7000
 1.5860	22.7570
 1.5870	22.8150
 1.5880	22.8730
 1.5890	22.9300
 1.5900	22.9880
 1.5910	23.0450
 1.5920	23.1010
 1.5930	23.1570
 1.5940	23.2140
 1.5950	23.2700
 1.5960	23.3260
 1.5970	23.3820
 1.5980	23.4360
 1.5990	23.4890
 1.6000	23.5430
 1.6010	23.5960
 1.6020	23.6500
 1.6030	23.7040
 1.6040	23.7550
 1.6050	23.8050
 1.6060	23.8560
 1.6070	23.9060
 1.6080	23.9550
 1.6090	24.0040
 1.6100	24.0510
 1.6110	24.0960
 1.6120	24.1420
 1.6130	24.1880
 1.6140	24.2330
 1.6150	24.2760
 1.6160	24.3210
 1.6170	24.3620
 1.6180	24.4030
 1.6190	24.4450
 1.6200	24.4860
 1.6210	24.5260
 1.6220	24.5650
 1.6230	24.6020
 1.6240	24.6370
 1.6250	24.6700
 1.6260	24.7040
 1.6270	24.7380
 1.6280	24.7700
 1.6290	24.8010
 1.6300	24.8300
 1.6310	24.8570
 1.6320	24.8830
 1.6330	24.9070
 1.6340	24.9310
 1.6350	24.9510
 1.6360	24.9690
 1.6370	24.9850
 1.6380	24.9990
 1.6390	25.0100
 1.6400	25.0200
 1.6410	25.0260
 1.6420	25.0280
 1.6430	25.0260
 1.6440	25.0200
 1.6450	25.0110
 1.6460	25.0000
 1.6470	24.9860
 1.6480	24.9690
 1.6490	24.9500
 1.6500	24.9280
 1.6510	24.9020
 1.6520	24.8740
 1.6530	24.8450
 1.6540	24.8160
 1.6550	24.7890
 1.6560	24.7640
 1.6570	24.7400
 1.6580	24.7180
 1.6590	24.6980
 1.6600	24.6810
 1.6610	24.6680
 1.6620	24.6600
 1.6630	24.6560
 1.6640	24.6560
 1.6650	24.6610
 1.6660	24.6690
 1.6670	24.6770
 1.6680	24.6890
 1.6690	24.7010
 1.6700	24.7130
 1.6710	24.7250
 1.6720	24.7330
 1.6730	24.7400
 1.6740	24.7440
 1.6750	24.7450
 1.6760	24.7410
 1.6770	24.7320
 1.6780	24.7200
 1.6790	24.7040
 1.6800	24.6820
 1.6810	24.6550
 1.6820	24.6230
 1.6830	24.5850
 1.6840	24.5450
 1.6850	24.5020
 1.6860	24.4550
 1.6870	24.4070
 1.6880	24.3560
 1.6890	24.3020
 1.6900	24.2470
 1.6910	24.1890
 1.6920	24.1300
 1.6930	24.0680
 1.6940	24.0060
 1.6950	23.9430
 1.6960	23.8800
 1.6970	23.8180
 1.6980	23.7530
 1.6990	23.6880
 1.7000	23.6220
 1.7010	23.5550
 1.7020	23.4870
 1.7030	23.4190
 1.7040	23.3510
 1.7050	23.2820
 1.7060	23.2160
 1.7070	23.1510
 1.7080	23.0870
 1.7090	23.0240
 1.7100	22.9620
 1.7110	22.8990
 1.7120	22.8380
 1.7130	22.7790
 1.7140	22.7240
 1.7150	22.6700
 1.7160	22.6170
 1.7170	22.5670
 1.7180	22.5150
 1.7190	22.4660
 1.7200	22.4190
 1.7210	22.3710
 1.7220	22.3270
 1.7230	22.2850
 1.7240	22.2440
 1.7250	22.2070
 1.7260	22.1720
 1.7270	22.1390
 1.7280	22.1090
 1.7290	22.0840
 1.7300	22.0650
 1.7310	22.0490
 1.7320	22.0400
 1.7330	22.0300
 1.7340	22.0240
 1.7350	22.0150
 1.7360	22.0060
 1.7370	21.9920
 1.7380	21.9760
 1.7390	21.9550
 1.7400	21.9320
 1.7410	21.9020
 1.7420	21.8660
 1.7430	21.8270
 1.7440	21.7810
 1.7450	21.7340
 1.7460	21.6840
 1.7470	21.6320
 1.7480	21.5750
 1.7490	21.5220
 1.7500	21.4670
 1.7510	21.4130
 1.7520	21.3620
 1.7530	21.3070
 1.7540	21.2490
 1.7550	21.1950
 1.7560	21.1420
 1.7570	21.0940
 1.7580	21.0480
 1.7590	21.0040
 1.7600	20.9610
 1.7610	20.9190
 1.7620	20.8810
 1.7630	20.8440
 1.7640	20.8110
 1.7650	20.7830
 1.7660	20.7560
 1.7670	20.7310
 1.7680	20.7080
 1.7690	20.6850
 1.7700	20.6630
 1.7710	20.6430
 1.7720	20.6240
 1.7730	20.6060
 1.7740	20.5870
 1.7750	20.5680
 1.7760	20.5490
 1.7770	20.5280
 1.7780	20.5100
 1.7790	20.4930
 1.7800	20.4770
 1.7810	20.4630
 1.7820	20.4480
 1.7830	20.4330
 1.7840	20.4210
 1.7850	20.4110
 1.7860	20.4020
 1.7870	20.3970
 1.7880	20.3890
 1.7890	20.3810
 1.7900	20.3740
 1.7910	20.3690
 1.7920	20.3660
 1.7930	20.3620
 1.7940	20.3570
 1.7950	20.3550
 1.7960	20.3530
 1.7970	20.3540
 1.7980	20.3570
 1.7990	20.3600
 1.8000	20.3620
 1.8010	20.3650
 1.8020	20.3670
 1.8030	20.3710
 1.8040	20.3760
 1.8050	20.3800
 1.8060	20.3850
 1.8070	20.3900
 1.8080	20.3940
 1.8090	20.3980
 1.8100	20.4020
 1.8110	20.4060
 1.8120	20.4100
 1.8130	20.4140
 1.8140	20.4180
 1.8150	20.4220
 1.8160	20.4250
 1.8170	20.4270
 1.8180	20.4290
 1.8190	20.4280
 1.8200	20.4280
 1.8210	20.4270
 1.8220	20.4250
 1.8230	20.4240
 1.8240	20.4220
 1.8250	20.4170
 1.8260	20.4120
 1.8270	20.3740
 1.8280	20.3350
 1.8290	20.2970
 1.8300	20.2580
 1.8310	20.2200
 1.8320	20.1810
 1.8330	20.1430
 1.8340	20.1040
 1.8350	20.1040
 1.8360	20.0760
 1.8370	20.0430
 1.8380	20.0030
 1.8390	19.9600
 1.8400	19.9130
 1.8410	19.8630
 1.8420	19.8100
 1.8430	19.7520
 1.8440	19.6880
 1.8450	19.6190
 1.8460	19.5430
 1.8470	19.4590
 1.8480	19.3700
 1.8490	19.2730
 1.8500	19.1690
 1.8510	19.0570
 1.8520	18.9370
 1.8530	18.8080
 1.8540	18.6690
 1.8550	18.5170
 1.8560	18.3570
 1.8570	18.1870
 1.8580	18.0050
 1.8590	17.8170
 1.8600	17.6210
 1.8610	17.4130
 1.8620	17.1910
 1.8630	16.9630
 1.8640	16.7180
 1.8650	16.4610
 1.8660	16.1970
 1.8670	15.9180
 1.8680	15.6310
 1.8690	15.3340
 1.8700	15.0290
 1.8710	14.7120
 1.8720	14.3950
 1.8730	14.0710
 1.8740	13.7440
 1.8750	13.4170
 1.8760	13.0870
 1.8770	12.7590
 1.8780	12.4340
 1.8790	12.1140
 1.8800	11.8020
 1.8810	11.4970
 1.8820	11.1960
 1.8830	10.9040
 1.8840	10.6220
 1.8850	10.3440
 1.8860	10.0790
 1.8870	 9.8290
 1.8880	 9.5870
 1.8890	 9.3640
 1.8900	 9.1550
 1.8910	 8.9590
 1.8920	 8.7750
 1.8930	 8.6070
 1.8940	 8.4500
 1.8950	 8.3070
 1.8960	 8.1750
 1.8970	 8.0520
 1.8980	 7.9410
 1.8990	 7.8410
 1.9000	 7.7490
 1.9010	 7.6690
 1.9020	 7.5960
 1.9030	 7.5320
 1.9040	 7.4720
 1.9050	 7.4240
 1.9060	 7.3800
 1.9070	 7.3410
 1.9080	 7.3100
 1.9090	 7.2810
 1.9100	 7.2510
 1.9110	 7.2270
 1.9120	 7.2090
 1.9130	 7.1910
 1.9140	 7.1750
 1.9150	 7.1640
 1.9160	 7.1540
 1.9170	 7.1430
 1.9180	 7.1340
 1.9190	 7.1260
 1.9200	 7.1200
 1.9210	 7.1160
 1.9220	 7.1150
 1.9230	 7.1170
 1.9240	 7.1190
 1.9250	 7.1220
 1.9260	 7.1260
 1.9270	 7.1300
 1.9280	 7.1350
 1.9290	 7.1380
 1.9300	 7.1440
 1.9310	 7.1480
 1.9320	 7.1530
 1.9330	 7.1600
 1.9340	 7.1680
 1.9350	 7.1770
 1.9360	 7.1870
 1.9370	 7.1980
 1.9380	 7.2090
 1.9390	 7.2200
 1.9400	 7.2330
 1.9410	 7.2450
 1.9420	 7.2560
 1.9430	 7.2690
 1.9440	 7.2820
 1.9450	 7.2920
 1.9460	 7.3060
 1.9470	 7.3220
 1.9480	 7.3370
 1.9490	 7.3550
 1.9500	 7.3730
 1.9510	 7.3880
 1.9520	 7.4040
 1.9530	 7.4200
 1.9540	 7.4360
 1.9550	 7.4540
 1.9560	 7.4770
 1.9570	 7.4960
 1.9580	 7.5170
 1.9590	 7.5370
 1.9600	 7.5540
 1.9610	 7.5740
 1.9620	 7.5960
 1.9630	 7.6180
 1.9640	 7.6400
 1.9650	 7.6640
 1.9660	 7.6880
 1.9670	 7.7110
 1.9680	 7.7340
 1.9690	 7.7570
 1.9700	 7.7820
 1.9710	 7.8080
 1.9720	 7.8330
 1.9730	 7.8600
 1.9740	 7.8880
 1.9750	 7.9140
 1.9760	 7.9420
 1.9770	 7.9700
 1.9780	 7.9980
 1.9790	 8.0270
 1.9800	 8.0560
 1.9810	 8.0850
 1.9820	 8.1140
 1.9830	 8.1440
 1.9840	 8.1740
 1.9850	 8.2040
 1.9860	 8.2360
 1.9870	 8.2660
 1.9880	 8.2960
 1.9890	 8.3290
 1.9900	 8.3610
 1.9910	 8.3950
 1.9920	 8.4290
 1.9930	 8.4630
 1.9940	 8.4950
 1.9950	 8.5260
 1.9960	 8.5590
 1.9970	 8.5890
 1.9980	 8.6220
 1.9990	 8.6570
 2.0000	 8.6920
 2.0010	 8.7260
 2.0020	 8.7620
 2.0030	 8.7940
 2.0040	 8.8280
 2.0050	 8.8620
 2.0060	 8.8950
 2.0070	 8.9300
 2.0080	 8.9690
 2.0090	 9.0040
 2.0100	 9.0370
 2.0110	 9.0700
 2.0120	 9.1000
 2.0130	 9.1280
 2.0140	 9.1610
 2.0150	 9.1950
 2.0160	 9.2290
 2.0170	 9.2640
 2.0180	 9.2960
 2.0190	 9.3270
 2.0200	 9.3570
 2.0210	 9.3860
 2.0220	 9.4140
 2.0230	 9.4410
 2.0240	 9.4690
 2.0250	 9.5000
 2.0260	 9.5290
 2.0270	 9.5590
 2.0280	 9.5870
 2.0290	 9.6120
 2.0300	 9.6360
 2.0310	 9.6600
 2.0320	 9.6840
 2.0330	 9.7070
 2.0340	 9.7320
 2.0350	 9.7540
 2.0360	 9.7760
 2.0370	 9.7960
 2.0380	 9.8150
 2.0390	 9.8350
 2.0400	 9.8540
 2.0410	 9.8730
 2.0420	 9.8940
 2.0430	 9.9130
 2.0440	 9.9320
 2.0450	 9.9510
 2.0460	 9.9680
 2.0470	 9.9820
 2.0480	 9.9970
 2.0490	10.0100
 2.0500	10.0250
 2.0510	10.0420
 2.0520	10.0590
 2.0530	10.0780
 2.0540	10.0950
 2.0550	10.1120
 2.0560	10.1290
 2.0570	10.1460
 2.0580	10.1620
 2.0590	10.1770
 2.0600	10.1930
 2.0610	10.2080
 2.0620	10.2230
 2.0630	10.2380
 2.0640	10.2540
 2.0650	10.2700
 2.0660	10.2860
 2.0670	10.3040
 2.0680	10.3230
 2.0690	10.3400
 2.0700	10.3590
 2.0710	10.3760
 2.0720	10.3910
 2.0730	10.4050
 2.0740	10.4200
 2.0750	10.4330
 2.0760	10.4490
 2.0770	10.4660
 2.0780	10.4820
 2.0790	10.5000
 2.0800	10.5170
 2.0810	10.5330
 2.0820	10.5490
 2.0830	10.5670
 2.0840	10.5820
 2.0850	10.5970
 2.0860	10.6120
 2.0870	10.6260
 2.0880	10.6380
 2.0890	10.6530
 2.0900	10.6700
 2.0910	10.6860
 2.0920	10.7050
 2.0930	10.7210
 2.0940	10.7360
 2.0950	10.7510
 2.0960	10.7650
 2.0970	10.7800
 2.0980	10.7970
 2.0990	10.8120
 2.1000	10.8260
 2.1010	10.8400
 2.1020	10.8500
 2.1030	10.8640
 2.1040	10.8790
 2.1050	10.8940
 2.1060	10.9100
 2.1070	10.9280
 2.1080	10.9420
 2.1090	10.9530
 2.1100	10.9660
 2.1110	10.9790
 2.1120	10.9920
 2.1130	11.0040
 2.1140	11.0150
 2.1150	11.0230
 2.1160	11.0350
 2.1170	11.0490
 2.1180	11.0620
 2.1190	11.0770
 2.1200	11.0890
 2.1210	11.0990
 2.1220	11.1070
 2.1230	11.1170
 2.1240	11.1260
 2.1250	11.1360
 2.1260	11.1480
 2.1270	11.1570
 2.1280	11.1640
 2.1290	11.1740
 2.1300	11.1850
 2.1310	11.1950
 2.1320	11.2070
 2.1330	11.2190
 2.1340	11.2280
 2.1350	11.2410
 2.1360	11.2570
 2.1370	11.2710
 2.1380	11.2870
 2.1390	11.3010
 2.1400	11.3130
 2.1410	11.3240
 2.1420	11.3400
 2.1430	11.3570
 2.1440	11.3730
 2.1450	11.3930
 2.1460	11.4100
 2.1470	11.4250
 2.1480	11.4420
 2.1490	11.4590
 2.1500	11.4760
 2.1510	11.4910
 2.1520	11.5080
 2.1530	11.5260
 2.1540	11.5450
 2.1550	11.5670
 2.1560	11.5860
 2.1570	11.6040
 2.1580	11.6220
 2.1590	11.6390
 2.1600	11.6550
 2.1610	11.6720
 2.1620	11.6900
 2.1630	11.7070
 2.1640	11.7240
 2.1650	11.7410
 2.1660	11.7570
 2.1670	11.7730
 2.1680	11.7880
 2.1690	11.8020
 2.1700	11.8150
 2.1710	11.8280
 2.1720	11.8400
 2.1730	11.8530
 2.1740	11.8680
 2.1750	11.8810
 2.1760	11.8930
 2.1770	11.9060
 2.1780	11.9200
 2.1790	11.9330
 2.1800	11.9460
 2.1810	11.9600
 2.1820	11.9740
 2.1830	11.9890
 2.1840	12.0040
 2.1850	12.0220
 2.1860	12.0370
 2.1870	12.0500
 2.1880	12.0640
 2.1890	12.0760
 2.1900	12.0900
 2.1910	12.1020
 2.1920	12.1170
 2.1930	12.1350
 2.1940	12.1510
 2.1950	12.1710
 2.1960	12.1880
 2.1970	12.2040
 2.1980	12.2200
 2.1990	12.2360
 2.2000	12.2520
 2.2010	12.2680
 2.2020	12.2820
 2.2030	12.2950
 2.2040	12.3080
 2.2050	12.3200
 2.2060	12.3320
 2.2070	12.3420
 2.2080	12.3530
 2.2090	12.3630
 2.2100	12.3690
 2.2110	12.3800
 2.2120	12.3930
 2.2130	12.4030
 2.2140	12.4150
 2.2150	12.4220
 2.2160	12.4260
 2.2170	12.4300
 2.2180	12.4310
 2.2190	12.4330
 2.2200	12.4340
 2.2210	12.4340
 2.2220	12.4330
 2.2230	12.4300
 2.2240	12.4260
 2.2250	12.4200
 2.2260	12.4120
 2.2270	12.4040
 2.2280	12.3940
 2.2290	12.3820
 2.2300	12.3670
 2.2310	12.3530
 2.2320	12.3320
 2.2330	12.3120
 2.2340	12.2900
 2.2350	12.2680
 2.2360	12.2440
 2.2370	12.2210
 2.2380	12.1940
 2.2390	12.1650
 2.2400	12.1330
 2.2410	12.0980
 2.2420	12.0630
 2.2430	12.0270
 2.2440	11.9910
 2.2450	11.9580
 2.2460	11.9170
 2.2470	11.8710
 2.2480	11.8260
 2.2490	11.7750
 2.2500	11.7270
 2.2510	11.6830
 2.2520	11.6340
 2.2530	11.5810
 2.2540	11.5320
 2.2550	11.4820
 2.2560	11.4350
 2.2570	11.3920
 2.2580	11.3480
 2.2590	11.3060
 2.2600	11.2610
 2.2610	11.2150
 2.2620	11.1690
 2.2630	11.1190
 2.2640	11.0690
 2.2650	11.0220
 2.2660	10.9750
 2.2670	10.9350
 2.2680	10.8990
 2.2690	10.8610
 2.2700	10.8280
 2.2710	10.7900
 2.2720	10.7490
 2.2730	10.7100
 2.2740	10.6680
 2.2750	10.6320
 2.2760	10.6000
 2.2770	10.5690
 2.2780	10.5420
 2.2790	10.5140
 2.2800	10.4860
 2.2810	10.4590
 2.2820	10.4380
 2.2830	10.4080
 2.2840	10.3710
 2.2850	10.3370
 2.2860	10.2960
 2.2870	10.2600
 2.2880	10.2280
 2.2890	10.1930
 2.2900	10.1550
 2.2910	10.1200
 2.2920	10.0880
 2.2930	10.0540
 2.2940	10.0230
 2.2950	 9.9880
 2.2960	 9.9460
 2.2970	 9.9090
 2.2980	 9.8750
 2.2990	 9.8370
 2.3000	 9.7980
 2.3010	 9.7620
 2.3020	 9.7260
 2.3030	 9.6930
 2.3040	 9.6630
 2.3050	 9.6410
 2.3060	 9.6170
 2.3070	 9.5940
 2.3080	 9.5770
 2.3090	 9.5600
 2.3100	 9.5500
 2.3110	 9.5440
 2.3120	 9.5370
 2.3130	 9.5310
 2.3140	 9.5320
 2.3150	 9.5350
 2.3160	 9.5400
 2.3170	 9.5540
 2.3180	 9.5610
 2.3190	 9.5650
 2.3200	 9.5690
 2.3210	 9.5740
 2.3220	 9.5760
 2.3230	 9.5790
 2.3240	 9.5730
 2.3250	 9.5600
 2.3260	 9.5500
 2.3270	 9.5370
 2.3280	 9.5230
 2.3290	 9.5130
 2.3300	 9.4990
 2.3310	 9.4790
 2.3320	 9.4610
 2.3330	 9.4410
 2.3340	 9.4230
 2.3350	 9.4060
 2.3360	 9.3870
 2.3370	 9.3700
 2.3380	 9.3530
 2.3390	 9.3370
 2.3400	 9.3180
 2.3410	 9.2990
 2.3420	 9.2790
 2.3430	 9.2570
 2.3440	 9.2350
 2.3450	 9.2090
 2.3460	 9.1900
 2.3470	 9.1700
 2.3480	 9.1560
 2.3490	 9.1560
 2.3500	 9.1460
 2.3510	 9.1330
 2.3520	 9.1230
 2.3530	 9.1060
 2.3540	 9.0940
 2.3550	 9.0930
 2.3560	 9.0900
 2.3570	 9.0900
 2.3580	 9.0910
 2.3590	 9.0820
 2.3600	 9.0740
 2.3610	 9.0690
 2.3620	 9.0630
 2.3630	 9.0570
 2.3640	 9.0440
 2.3650	 9.0260
 2.3660	 9.0080
 2.3670	 8.9980
 2.3680	 8.9940
 2.3690	 8.9880
 2.3700	 8.9750
 2.3710	 8.9520
 2.3720	 8.9280
 2.3730	 8.9030
 2.3740	 8.8850
 2.3750	 8.8750
 2.3760	 8.8550
 2.3770	 8.8360
 2.3780	 8.8160
 2.3790	 8.8000
 2.3800	 8.7910
 2.3810	 8.7780
 2.3820	 8.7620
 2.3830	 8.7380
 2.3840	 8.7140
 2.3850	 8.6920
 2.3860	 8.6680
 2.3870	 8.6450
 2.3880	 8.6280
 2.3890	 8.6170
 2.3900	 8.6200
 2.3910	 8.6200
 2.3920	 8.6100
 2.3930	 8.5910
 2.3940	 8.5610
 2.3950	 8.5330
 2.3960	 8.5150
 2.3970	 8.5000
 2.3980	 8.4930
 2.3990	 8.4900
 2.4000	 8.4700
 2.4010	 8.4500
 2.4020	 8.4330
 2.4030	 8.4070
 2.4040	 8.3930
 2.4050	 8.3870
 2.4060	 8.3720
 2.4070	 8.3470
 2.4080	 8.3260
 2.4090	 8.3000
 2.4100	 8.2730
 2.4110	 8.2610
 2.4120	 8.2410
 2.4130	 8.2170
 2.4140	 8.2000
 2.4150	 8.1850
 2.4160	 8.1730
 2.4170	 8.1670
 2.4180	 8.1590
 2.4190	 8.1400
 2.4200	 8.1240
 2.4210	 8.1100
 2.4220	 8.0890
 2.4230	 8.0710
 2.4240	 8.0510
 2.4250	 8.0390
 2.4260	 8.0440
 2.4270	 8.0420
 2.4280	 8.0250
 2.4290	 7.9920
 2.4300	 7.9440
 2.4310	 7.9130
 2.4320	 7.9060
 2.4330	 7.9000
 2.4340	 7.8880
 2.4350	 7.8690
 2.4360	 7.8490
 2.4370	 7.8260
 2.4380	 7.8040
 2.4390	 7.7840
 2.4400	 7.7610
 2.4410	 7.7410
 2.4420	 7.7290
 2.4430	 7.7160
 2.4440	 7.6950
 2.4450	 7.6830
 2.4460	 7.6750
 2.4470	 7.6610
 2.4480	 7.6510
 2.4490	 7.6440
 2.4500	 7.6430
 2.4510	 7.6370
 2.4520	 7.6290
 2.4530	 7.6150
 2.4540	 7.5880
 2.4550	 7.5750
 2.4560	 7.5750
 2.4570	 7.5680
 2.4580	 7.5610
 2.4590	 7.5490
 2.4600	 7.5160
 2.4610	 7.4870
 2.4620	 7.4780
 2.4630	 7.4720
 2.4640	 7.4750
 2.4650	 7.4720
 2.4660	 7.4540
 2.4670	 7.4320
 2.4680	 7.3950
 2.4690	 7.3930
 2.4700	 7.3740
 2.4710	 7.3340
 2.4720	 7.3210
 2.4730	 7.3180
 2.4740	 7.3120
 2.4750	 7.3410
 2.4760	 7.3400
 2.4770	 7.2970
 2.4780	 7.2770
 2.4790	 7.2590
 2.4800	 7.2470
 2.4810	 7.2480
 2.4820	 7.2540
 2.4830	 7.2450
 2.4840	 7.2370
 2.4850	 7.2720
 2.4860	 7.2980
 2.4870	 7.3070
 2.4880	 7.2840
 2.4890	 7.2460
 2.4900	 7.2450
 2.4910	 7.2590
 2.4920	 7.2850
 2.4930	 7.3080
 2.4940	 7.3150
 2.4950	 7.3180
 2.4960	 7.3260
 2.4970	 7.3730
 2.4980	 7.4040
 2.4990	 7.3780
 2.5000	 7.3090
