Name: Baccharis pilularis 3
Type: vegetation
Class: Shrub
Genus: Baccharis
Species: pilularis
Sample No.: VH005
Owner: UCSB
Wavelength Range: TIR
Origin: 34.418; -119.8456; WGS84
Collection Date: 4/1/2013
Description: Samples were collected as part of the HyspIRI Airborne Campaign. 48 individual plants were sampled in three times in 2013 - spring  summer  and fall. The name of the sample includes a 1  2  or 3 which references a different individual of the species. Samples were taken to JPL and processed within 48 hours of collection. The same leaves were processed in the Nicolet and then measured using the ASD.
Measurement: Hemispherical reflectance
First Column: X
Second Column: Y
X Units: Wavelength (micrometers)
Y Units: Reflectance (percentage)
First X Value: 2.501
Last X Value: 15.387
Number of X Values: 1737
Additional Information: vegetation.shrub.baccharis.pilularis.tir.vh005.ucsb.nicolet.ancillary.txt

 2.5010	 9.6690
 2.5030	 9.6710
 2.5040	 9.8270
 2.5050	 9.8510
 2.5060	 9.7610
 2.5070	 9.6350
 2.5090	 9.5640
 2.5100	 9.5780
 2.5110	 9.7330
 2.5120	 9.6350
 2.5140	 9.6300
 2.5150	 9.6470
 2.5160	 9.6070
 2.5170	 9.5910
 2.5180	 9.7250
 2.5200	 9.6150
 2.5210	 9.6240
 2.5220	 9.6090
 2.5230	 9.6330
 2.5250	 9.6700
 2.5260	 9.7230
 2.5270	 9.6750
 2.5280	 9.6690
 2.5290	 9.5590
 2.5310	 9.6040
 2.5320	 9.5840
 2.5330	 9.6380
 2.5340	 9.6090
 2.5360	 9.6130
 2.5370	 9.6160
 2.5380	 9.6520
 2.5390	 9.5520
 2.5410	 9.4620
 2.5420	 9.4680
 2.5430	 9.5200
 2.5440	 9.4150
 2.5460	 9.4970
 2.5470	 9.5980
 2.5480	 9.6890
 2.5490	 9.5800
 2.5510	 9.6660
 2.5520	 9.6770
 2.5530	 9.7080
 2.5540	 9.6430
 2.5560	 9.6660
 2.5570	 9.6170
 2.5580	 9.5570
 2.5590	 9.6210
 2.5610	 9.7570
 2.5620	 9.6880
 2.5630	 9.7010
 2.5640	 9.6460
 2.5660	 9.5910
 2.5670	 9.5470
 2.5680	 9.5570
 2.5700	 9.6090
 2.5710	 9.6210
 2.5720	 9.5410
 2.5730	 9.6460
 2.5750	 9.6460
 2.5760	 9.6310
 2.5770	 9.6390
 2.5790	 9.5890
 2.5800	 9.4350
 2.5810	 9.4780
 2.5820	 9.4960
 2.5840	 9.6090
 2.5850	 9.5760
 2.5860	 9.6470
 2.5880	 9.6490
 2.5890	 9.7140
 2.5900	 9.7040
 2.5910	 9.6900
 2.5930	 9.4950
 2.5940	 9.4700
 2.5950	 9.5040
 2.5970	 9.4930
 2.5980	 9.4610
 2.5990	 9.4430
 2.6000	 9.3600
 2.6020	 9.5520
 2.6030	 9.5610
 2.6040	 9.5280
 2.6060	 9.4130
 2.6070	 9.4070
 2.6080	 9.4830
 2.6100	 9.4890
 2.6110	 9.1950
 2.6120	 9.1190
 2.6140	 9.1520
 2.6150	 9.2120
 2.6160	 9.2600
 2.6180	 9.2780
 2.6190	 9.2730
 2.6200	 9.2650
 2.6220	 9.0690
 2.6230	 9.0660
 2.6240	 9.1240
 2.6260	 9.1970
 2.6270	 9.1510
 2.6280	 9.1280
 2.6300	 9.0230
 2.6310	 9.0620
 2.6320	 9.0600
 2.6340	 8.9960
 2.6350	 8.8600
 2.6360	 8.8890
 2.6380	 8.9520
 2.6390	 8.9510
 2.6400	 8.8580
 2.6420	 8.9040
 2.6430	 8.8790
 2.6440	 8.9350
 2.6460	 8.9070
 2.6470	 8.8320
 2.6480	 8.8020
 2.6500	 8.8470
 2.6510	 8.8110
 2.6520	 8.8620
 2.6540	 8.7580
 2.6550	 8.6730
 2.6560	 8.6600
 2.6580	 8.7910
 2.6590	 8.8330
 2.6610	 8.8290
 2.6620	 8.7250
 2.6630	 8.6970
 2.6650	 8.6460
 2.6660	 8.6410
 2.6670	 8.5650
 2.6690	 8.6530
 2.6700	 8.6860
 2.6720	 8.6740
 2.6730	 8.5910
 2.6740	 8.6290
 2.6760	 8.6040
 2.6770	 8.5560
 2.6780	 8.5460
 2.6800	 8.6000
 2.6810	 8.4440
 2.6830	 8.4400
 2.6840	 8.4720
 2.6850	 8.4900
 2.6870	 8.3880
 2.6880	 8.3890
 2.6900	 8.3600
 2.6910	 8.4220
 2.6920	 8.4380
 2.6940	 8.5400
 2.6950	 8.4180
 2.6970	 8.3580
 2.6980	 8.3910
 2.6990	 8.4510
 2.7010	 8.4520
 2.7020	 8.4530
 2.7040	 8.3360
 2.7050	 8.4060
 2.7060	 8.4980
 2.7080	 8.4750
 2.7090	 8.2540
 2.7110	 8.2850
 2.7120	 8.3670
 2.7130	 8.4140
 2.7150	 8.3740
 2.7160	 8.3980
 2.7180	 8.3540
 2.7190	 8.3990
 2.7210	 8.3580
 2.7220	 8.3630
 2.7230	 8.3590
 2.7250	 8.3660
 2.7260	 8.2230
 2.7280	 8.2010
 2.7290	 8.1570
 2.7310	 8.2210
 2.7320	 8.3410
 2.7330	 8.3250
 2.7350	 8.2890
 2.7360	 8.4170
 2.7380	 8.3470
 2.7390	 8.2460
 2.7410	 8.0790
 2.7420	 8.1190
 2.7440	 8.1410
 2.7450	 8.2580
 2.7470	 8.2100
 2.7480	 8.2890
 2.7490	 8.2250
 2.7510	 8.2470
 2.7520	 8.2090
 2.7540	 8.4590
 2.7550	 8.4580
 2.7570	 8.2650
 2.7580	 8.1260
 2.7600	 8.3040
 2.7610	 8.3110
 2.7630	 8.3230
 2.7640	 8.2980
 2.7660	 8.2380
 2.7670	 8.1760
 2.7680	 8.3370
 2.7700	 8.4260
 2.7710	 8.3680
 2.7730	 8.2010
 2.7740	 8.2450
 2.7760	 8.2540
 2.7770	 8.2600
 2.7790	 8.2120
 2.7800	 8.2870
 2.7820	 8.1620
 2.7830	 8.1540
 2.7850	 8.2990
 2.7860	 8.3830
 2.7880	 8.3710
 2.7890	 8.4390
 2.7910	 8.3820
 2.7920	 8.2940
 2.7940	 8.2110
 2.7950	 8.2900
 2.7970	 8.3440
 2.7980	 8.3570
 2.8000	 8.2090
 2.8010	 8.2290
 2.8030	 8.1750
 2.8040	 8.1050
 2.8060	 8.0840
 2.8070	 8.2430
 2.8090	 8.2690
 2.8110	 8.3620
 2.8120	 8.2940
 2.8140	 8.3120
 2.8150	 8.2630
 2.8170	 8.2930
 2.8180	 8.2290
 2.8200	 8.2250
 2.8210	 8.1580
 2.8230	 8.1650
 2.8240	 8.1990
 2.8260	 8.1810
 2.8270	 8.2260
 2.8290	 8.2570
 2.8300	 8.1690
 2.8320	 8.2270
 2.8340	 8.2060
 2.8350	 8.2480
 2.8370	 8.2150
 2.8380	 8.1860
 2.8400	 8.1250
 2.8410	 8.1440
 2.8430	 8.1180
 2.8440	 8.2940
 2.8460	 8.3220
 2.8480	 8.3290
 2.8490	 8.3160
 2.8510	 8.3300
 2.8520	 8.2730
 2.8540	 8.2840
 2.8550	 8.2090
 2.8570	 8.1860
 2.8590	 8.1380
 2.8600	 8.1200
 2.8620	 8.1570
 2.8630	 8.2980
 2.8650	 8.1790
 2.8660	 8.1580
 2.8680	 8.1730
 2.8700	 8.2150
 2.8710	 8.1730
 2.8730	 8.2570
 2.8740	 8.3060
 2.8760	 8.1970
 2.8780	 8.0850
 2.8790	 8.3800
 2.8810	 8.2970
 2.8820	 8.2600
 2.8840	 8.3860
 2.8860	 8.2790
 2.8870	 8.2410
 2.8890	 8.4080
 2.8900	 8.3270
 2.8920	 8.2090
 2.8940	 8.2040
 2.8950	 8.2690
 2.8970	 8.1790
 2.8980	 8.2430
 2.9000	 8.2500
 2.9020	 8.2560
 2.9030	 8.2340
 2.9050	 8.4310
 2.9070	 8.4990
 2.9080	 8.3880
 2.9100	 8.1060
 2.9120	 8.1790
 2.9130	 8.3000
 2.9150	 8.2860
 2.9160	 8.2170
 2.9180	 8.1750
 2.9200	 8.0760
 2.9210	 8.2600
 2.9230	 8.4210
 2.9250	 8.2740
 2.9260	 8.1500
 2.9280	 8.2560
 2.9300	 8.2230
 2.9310	 8.2220
 2.9330	 8.1730
 2.9350	 8.2630
 2.9360	 8.1490
 2.9380	 8.0640
 2.9400	 8.0840
 2.9410	 8.1520
 2.9430	 8.0530
 2.9450	 8.1020
 2.9460	 8.2130
 2.9480	 8.3300
 2.9500	 8.0510
 2.9510	 7.9110
 2.9530	 8.0320
 2.9550	 8.0650
 2.9560	 7.9570
 2.9580	 8.1900
 2.9600	 8.4660
 2.9610	 8.6130
 2.9630	 8.5670
 2.9650	 8.6550
 2.9660	 8.1510
 2.9680	 7.8580
 2.9700	 8.0640
 2.9720	 8.2580
 2.9730	 8.1260
 2.9750	 8.0130
 2.9770	 8.2370
 2.9780	 8.3330
 2.9800	 7.9110
 2.9820	 8.0030
 2.9840	 8.2230
 2.9850	 8.3390
 2.9870	 8.4010
 2.9890	 8.4740
 2.9900	 7.6430
 2.9920	 7.0480
 2.9940	 7.6330
 2.9960	 8.0470
 2.9970	 8.1710
 2.9990	 8.1770
 3.0010	 8.3630
 3.0030	 8.6320
 3.0040	 8.2980
 3.0060	 8.1420
 3.0080	 7.9630
 3.0100	 7.8810
 3.0110	 7.7820
 3.0130	 7.8430
 3.0150	 8.3480
 3.0170	 8.7260
 3.0180	 8.1510
 3.0200	 7.4260
 3.0220	 7.6450
 3.0240	 7.7040
 3.0250	 7.4000
 3.0270	 7.9170
 3.0290	 8.6000
 3.0310	 8.9520
 3.0320	 8.4720
 3.0340	 7.8840
 3.0360	 7.7850
 3.0380	 8.1020
 3.0400	 7.6520
 3.0410	 7.8290
 3.0430	 8.4020
 3.0450	 8.2150
 3.0470	 7.8760
 3.0480	 8.3930
 3.0500	 9.1110
 3.0520	 9.6740
 3.0540	 9.0870
 3.0560	 7.8630
 3.0570	 7.6290
 3.0590	 7.4320
 3.0610	 7.6390
 3.0630	 8.2050
 3.0650	 8.2140
 3.0660	 8.1860
 3.0680	 8.0000
 3.0700	 7.9370
 3.0720	 7.6030
 3.0740	 7.4810
 3.0760	 7.5340
 3.0770	 7.8980
 3.0790	 8.0070
 3.0810	 8.2010
 3.0830	 8.0990
 3.0850	 7.9340
 3.0870	 8.2070
 3.0880	 8.0500
 3.0900	 8.0350
 3.0920	 8.3390
 3.0940	 8.0700
 3.0960	 7.7910
 3.0980	 7.4930
 3.0990	 7.4550
 3.1010	 7.6660
 3.1030	 7.7590
 3.1050	 7.7030
 3.1070	 7.9520
 3.1090	 8.1990
 3.1110	 8.1490
 3.1120	 7.9610
 3.1140	 8.0320
 3.1160	 7.9880
 3.1180	 8.0670
 3.1200	 7.9470
 3.1220	 7.8910
 3.1240	 7.8900
 3.1260	 7.9130
 3.1270	 7.8970
 3.1290	 8.0480
 3.1310	 8.0260
 3.1330	 8.0690
 3.1350	 7.8830
 3.1370	 7.8570
 3.1390	 8.3740
 3.1410	 8.5290
 3.1430	 8.0390
 3.1450	 8.0770
 3.1460	 8.0170
 3.1480	 7.9210
 3.1500	 8.0310
 3.1520	 7.7890
 3.1540	 7.5100
 3.1560	 7.4440
 3.1580	 7.8130
 3.1600	 8.1280
 3.1620	 7.8930
 3.1640	 8.1080
 3.1660	 7.9520
 3.1680	 8.0840
 3.1700	 7.7590
 3.1710	 8.2020
 3.1730	 8.2860
 3.1750	 7.8150
 3.1770	 7.6400
 3.1790	 7.3470
 3.1810	 7.4230
 3.1830	 7.4970
 3.1850	 7.3540
 3.1870	 7.6770
 3.1890	 7.9400
 3.1910	 7.8430
 3.1930	 7.8230
 3.1950	 7.6670
 3.1970	 7.8420
 3.1990	 7.9880
 3.2010	 7.8870
 3.2030	 7.8750
 3.2050	 7.8050
 3.2070	 7.7300
 3.2090	 7.7830
 3.2110	 7.9120
 3.2130	 7.8760
 3.2150	 7.8200
 3.2170	 7.8110
 3.2190	 7.8400
 3.2210	 7.7740
 3.2230	 7.8230
 3.2250	 7.7860
 3.2270	 7.7660
 3.2290	 7.7350
 3.2310	 7.7740
 3.2330	 7.7410
 3.2350	 7.7920
 3.2370	 7.8050
 3.2390	 7.8210
 3.2410	 7.8610
 3.2430	 7.7540
 3.2450	 7.7520
 3.2470	 7.8850
 3.2490	 7.7830
 3.2510	 7.7300
 3.2530	 7.7190
 3.2550	 7.8280
 3.2570	 7.7600
 3.2590	 7.6180
 3.2610	 7.5770
 3.2630	 7.6610
 3.2650	 7.6510
 3.2670	 7.7060
 3.2690	 7.6930
 3.2720	 7.6510
 3.2740	 7.5300
 3.2760	 7.6110
 3.2780	 7.6970
 3.2800	 7.7380
 3.2820	 7.7520
 3.2840	 7.7160
 3.2860	 7.7110
 3.2880	 7.7750
 3.2900	 7.6570
 3.2920	 7.5440
 3.2940	 7.5150
 3.2960	 7.5190
 3.2990	 7.5210
 3.3010	 7.5070
 3.3030	 7.5140
 3.3050	 7.5520
 3.3070	 7.5360
 3.3090	 7.6790
 3.3110	 7.6630
 3.3130	 7.6320
 3.3150	 7.5610
 3.3180	 7.4940
 3.3200	 7.5050
 3.3220	 7.5500
 3.3240	 7.4810
 3.3260	 7.4600
 3.3280	 7.4340
 3.3300	 7.4880
 3.3330	 7.4440
 3.3350	 7.4220
 3.3370	 7.4460
 3.3390	 7.5740
 3.3410	 7.5300
 3.3430	 7.3390
 3.3450	 7.2980
 3.3480	 7.3580
 3.3500	 7.3020
 3.3520	 7.2900
 3.3540	 7.3440
 3.3560	 7.4720
 3.3580	 7.4110
 3.3610	 7.3520
 3.3630	 7.4130
 3.3650	 7.4560
 3.3670	 7.4060
 3.3690	 7.4260
 3.3720	 7.4080
 3.3740	 7.4150
 3.3760	 7.4450
 3.3780	 7.5970
 3.3800	 7.6150
 3.3830	 7.6010
 3.3850	 7.5340
 3.3870	 7.5150
 3.3890	 7.5050
 3.3910	 7.4700
 3.3940	 7.4080
 3.3960	 7.5590
 3.3980	 7.5580
 3.4000	 7.5750
 3.4020	 7.5700
 3.4050	 7.6470
 3.4070	 7.7260
 3.4090	 7.8040
 3.4110	 7.8220
 3.4140	 7.8880
 3.4160	 7.8740
 3.4180	 7.9570
 3.4200	 8.0310
 3.4230	 8.1620
 3.4250	 8.2290
 3.4270	 8.3740
 3.4290	 8.5170
 3.4320	 8.4880
 3.4340	 8.2560
 3.4360	 8.1620
 3.4390	 8.2020
 3.4410	 8.1860
 3.4430	 8.1020
 3.4450	 8.1570
 3.4480	 8.0750
 3.4500	 7.9790
 3.4520	 7.9280
 3.4550	 7.9380
 3.4570	 8.0390
 3.4590	 8.1820
 3.4620	 8.2030
 3.4640	 8.1570
 3.4660	 8.0310
 3.4680	 8.0130
 3.4710	 8.0090
 3.4730	 8.0960
 3.4750	 8.1100
 3.4780	 8.0490
 3.4800	 7.9770
 3.4820	 7.9790
 3.4850	 7.9800
 3.4870	 8.0350
 3.4890	 7.9920
 3.4920	 8.0120
 3.4940	 7.9910
 3.4970	 8.0680
 3.4990	 8.0890
 3.5010	 8.1080
 3.5040	 8.1330
 3.5060	 8.2320
 3.5080	 8.3490
 3.5110	 8.5910
 3.5130	 8.6480
 3.5160	 8.5750
 3.5180	 8.3900
 3.5200	 8.2410
 3.5230	 8.2000
 3.5250	 8.1430
 3.5270	 8.0650
 3.5300	 8.1140
 3.5320	 8.1750
 3.5350	 8.2220
 3.5370	 8.2290
 3.5400	 8.2230
 3.5420	 8.0610
 3.5440	 8.0990
 3.5470	 8.1470
 3.5490	 8.1680
 3.5520	 8.1030
 3.5540	 8.0280
 3.5570	 8.0200
 3.5590	 8.1120
 3.5610	 8.1490
 3.5640	 8.2230
 3.5660	 8.2430
 3.5690	 8.1950
 3.5710	 8.0340
 3.5740	 8.0090
 3.5760	 8.0450
 3.5790	 8.0890
 3.5810	 8.0750
 3.5840	 8.0110
 3.5860	 8.0050
 3.5890	 8.0940
 3.5910	 8.1270
 3.5930	 8.0430
 3.5960	 7.9310
 3.5980	 8.0700
 3.6010	 8.2120
 3.6030	 8.1710
 3.6060	 8.0870
 3.6080	 8.1600
 3.6110	 8.2400
 3.6140	 8.2410
 3.6160	 8.2030
 3.6190	 8.1830
 3.6210	 8.0890
 3.6240	 8.1090
 3.6260	 8.1270
 3.6290	 8.1280
 3.6310	 8.1760
 3.6340	 8.2130
 3.6360	 8.1460
 3.6390	 8.1730
 3.6410	 8.2210
 3.6440	 8.2380
 3.6470	 8.2040
 3.6490	 8.1850
 3.6520	 8.1320
 3.6540	 8.1800
 3.6570	 8.2180
 3.6590	 8.1740
 3.6620	 8.1110
 3.6650	 8.1870
 3.6670	 8.2120
 3.6700	 8.2400
 3.6720	 8.1690
 3.6750	 8.1690
 3.6780	 8.1990
 3.6800	 8.1800
 3.6830	 8.1340
 3.6850	 8.1710
 3.6880	 8.1940
 3.6910	 8.2160
 3.6930	 8.1870
 3.6960	 8.1870
 3.6990	 8.1340
 3.7010	 8.1850
 3.7040	 8.2220
 3.7060	 8.1990
 3.7090	 8.2020
 3.7120	 8.2450
 3.7140	 8.2100
 3.7170	 8.2460
 3.7200	 8.2200
 3.7220	 8.2160
 3.7250	 8.3120
 3.7280	 8.3400
 3.7300	 8.2600
 3.7330	 8.2340
 3.7360	 8.2950
 3.7390	 8.3400
 3.7410	 8.3130
 3.7440	 8.2890
 3.7470	 8.2570
 3.7490	 8.3230
 3.7520	 8.3460
 3.7550	 8.3000
 3.7580	 8.3080
 3.7600	 8.3340
 3.7630	 8.3070
 3.7660	 8.3440
 3.7680	 8.3120
 3.7710	 8.3330
 3.7740	 8.3210
 3.7770	 8.2420
 3.7790	 8.2210
 3.7820	 8.2600
 3.7850	 8.2580
 3.7880	 8.2500
 3.7900	 8.2050
 3.7930	 8.2500
 3.7960	 8.2710
 3.7990	 8.3290
 3.8020	 8.3420
 3.8040	 8.3360
 3.8070	 8.3270
 3.8100	 8.3630
 3.8130	 8.3350
 3.8160	 8.3550
 3.8180	 8.3980
 3.8210	 8.4210
 3.8240	 8.3810
 3.8270	 8.3560
 3.8300	 8.3460
 3.8330	 8.3800
 3.8350	 8.3630
 3.8380	 8.3500
 3.8410	 8.3300
 3.8440	 8.3580
 3.8470	 8.2700
 3.8500	 8.2230
 3.8520	 8.3030
 3.8550	 8.4090
 3.8580	 8.3720
 3.8610	 8.3420
 3.8640	 8.3240
 3.8670	 8.3680
 3.8700	 8.4030
 3.8730	 8.3860
 3.8750	 8.3270
 3.8780	 8.3410
 3.8810	 8.3390
 3.8840	 8.4010
 3.8870	 8.3540
 3.8900	 8.3920
 3.8930	 8.4510
 3.8960	 8.4440
 3.8990	 8.4380
 3.9020	 8.4090
 3.9050	 8.3660
 3.9080	 8.4500
 3.9110	 8.4450
 3.9140	 8.3960
 3.9160	 8.3520
 3.9190	 8.4180
 3.9220	 8.3790
 3.9250	 8.3310
 3.9280	 8.3990
 3.9310	 8.4260
 3.9340	 8.3400
 3.9370	 8.3070
 3.9400	 8.2560
 3.9430	 8.2800
 3.9460	 8.2990
 3.9490	 8.3610
 3.9520	 8.3870
 3.9550	 8.3410
 3.9580	 8.3420
 3.9610	 8.3860
 3.9640	 8.3360
 3.9670	 8.3280
 3.9700	 8.3750
 3.9730	 8.3950
 3.9770	 8.3620
 3.9800	 8.3580
 3.9830	 8.3070
 3.9860	 8.3050
 3.9890	 8.3680
 3.9920	 8.3560
 3.9950	 8.2990
 3.9980	 8.3460
 4.0010	 8.3190
 4.0040	 8.3050
 4.0070	 8.3260
 4.0100	 8.3840
 4.0130	 8.3430
 4.0170	 8.2690
 4.0200	 8.2210
 4.0230	 8.2560
 4.0260	 8.2800
 4.0290	 8.2800
 4.0320	 8.3030
 4.0350	 8.2840
 4.0380	 8.2550
 4.0420	 8.3340
 4.0450	 8.3520
 4.0480	 8.3480
 4.0510	 8.2610
 4.0540	 8.2520
 4.0570	 8.3110
 4.0610	 8.3170
 4.0640	 8.2700
 4.0670	 8.3020
 4.0700	 8.3220
 4.0730	 8.3360
 4.0770	 8.3080
 4.0800	 8.2550
 4.0830	 8.2700
 4.0860	 8.3150
 4.0890	 8.2690
 4.0930	 8.2050
 4.0960	 8.1990
 4.0990	 8.1720
 4.1020	 8.1710
 4.1060	 8.2010
 4.1090	 8.2070
 4.1120	 8.2270
 4.1150	 8.2150
 4.1190	 8.1850
 4.1220	 8.1770
 4.1250	 8.1830
 4.1280	 8.2000
 4.1320	 8.2320
 4.1350	 8.2310
 4.1380	 8.1930
 4.1420	 8.1930
 4.1450	 8.2040
 4.1480	 8.1800
 4.1520	 8.1870
 4.1550	 8.1770
 4.1580	 8.1580
 4.1620	 8.1580
 4.1650	 8.1880
 4.1680	 8.2100
 4.1720	 8.1360
 4.1750	 8.0750
 4.1780	 8.1260
 4.1820	 8.0730
 4.1850	 8.0030
 4.1890	 8.0430
 4.1920	 8.1060
 4.1950	 8.1750
 4.1990	 8.2670
 4.2020	 8.2730
 4.2060	 8.2810
 4.2090	 8.2680
 4.2120	 8.2330
 4.2160	 8.2440
 4.2190	 8.2450
 4.2230	 8.3520
 4.2260	 8.4280
 4.2300	 8.5740
 4.2330	 8.7760
 4.2360	 8.6870
 4.2400	 8.6480
 4.2430	 8.5100
 4.2470	 8.4040
 4.2500	 8.3630
 4.2540	 8.2200
 4.2570	 8.2250
 4.2610	 8.2900
 4.2640	 8.3510
 4.2680	 8.5550
 4.2710	 8.4240
 4.2750	 8.2220
 4.2780	 8.1420
 4.2820	 8.0800
 4.2850	 8.2010
 4.2890	 8.2350
 4.2930	 8.1460
 4.2960	 8.1300
 4.3000	 8.0920
 4.3030	 8.1000
 4.3070	 8.1020
 4.3100	 8.1990
 4.3140	 8.2380
 4.3180	 8.1180
 4.3210	 7.9860
 4.3250	 7.9350
 4.3280	 7.9080
 4.3320	 7.9630
 4.3360	 7.9580
 4.3390	 7.9220
 4.3430	 7.9120
 4.3470	 7.9640
 4.3500	 8.0160
 4.3540	 7.9870
 4.3570	 7.9390
 4.3610	 7.9060
 4.3650	 7.8900
 4.3680	 7.8830
 4.3720	 7.8850
 4.3760	 7.8760
 4.3800	 7.8940
 4.3830	 7.9370
 4.3870	 7.9110
 4.3910	 7.8890
 4.3940	 7.8410
 4.3980	 7.8570
 4.4020	 7.8930
 4.4060	 7.8490
 4.4090	 7.8080
 4.4130	 7.8380
 4.4170	 7.8760
 4.4210	 7.9200
 4.4240	 7.8770
 4.4280	 7.7670
 4.4320	 7.7400
 4.4360	 7.7940
 4.4400	 7.8260
 4.4430	 7.8060
 4.4470	 7.8570
 4.4510	 7.8750
 4.4550	 7.8360
 4.4590	 7.8150
 4.4620	 7.8230
 4.4660	 7.8640
 4.4700	 7.8520
 4.4740	 7.8280
 4.4780	 7.8260
 4.4820	 7.8210
 4.4860	 7.8190
 4.4900	 7.8220
 4.4930	 7.8080
 4.4970	 7.7940
 4.5010	 7.7860
 4.5050	 7.7750
 4.5090	 7.7660
 4.5130	 7.7960
 4.5170	 7.8010
 4.5210	 7.7730
 4.5250	 7.7780
 4.5290	 7.7680
 4.5330	 7.7140
 4.5370	 7.7040
 4.5410	 7.6810
 4.5450	 7.6690
 4.5490	 7.7050
 4.5530	 7.6920
 4.5570	 7.6820
 4.5610	 7.7030
 4.5650	 7.6990
 4.5690	 7.6590
 4.5730	 7.6770
 4.5770	 7.6310
 4.5810	 7.5960
 4.5850	 7.6600
 4.5890	 7.6970
 4.5930	 7.6620
 4.5970	 7.7200
 4.6010	 7.7490
 4.6050	 7.6560
 4.6090	 7.6360
 4.6130	 7.6340
 4.6170	 7.6390
 4.6220	 7.7100
 4.6260	 7.7090
 4.6300	 7.6900
 4.6340	 7.7140
 4.6380	 7.7270
 4.6420	 7.7560
 4.6460	 7.7360
 4.6510	 7.6660
 4.6550	 7.7200
 4.6590	 7.7850
 4.6630	 7.7520
 4.6670	 7.6830
 4.6720	 7.6360
 4.6760	 7.6240
 4.6800	 7.6310
 4.6840	 7.6420
 4.6880	 7.6410
 4.6930	 7.6060
 4.6970	 7.5630
 4.7010	 7.5890
 4.7050	 7.6160
 4.7100	 7.5980
 4.7140	 7.5740
 4.7180	 7.5510
 4.7230	 7.5600
 4.7270	 7.5540
 4.7310	 7.5860
 4.7360	 7.5670
 4.7400	 7.6130
 4.7440	 7.5830
 4.7490	 7.5540
 4.7530	 7.5450
 4.7570	 7.5970
 4.7620	 7.6020
 4.7660	 7.5630
 4.7700	 7.6140
 4.7750	 7.6550
 4.7790	 7.6220
 4.7840	 7.6530
 4.7880	 7.6590
 4.7920	 7.6260
 4.7970	 7.5910
 4.8010	 7.5820
 4.8060	 7.6380
 4.8100	 7.6880
 4.8150	 7.6460
 4.8190	 7.5800
 4.8240	 7.5850
 4.8280	 7.6080
 4.8330	 7.5990
 4.8370	 7.5990
 4.8420	 7.5770
 4.8460	 7.5910
 4.8510	 7.6000
 4.8550	 7.5840
 4.8600	 7.5850
 4.8640	 7.5670
 4.8690	 7.5680
 4.8730	 7.5940
 4.8780	 7.5480
 4.8830	 7.5710
 4.8870	 7.6460
 4.8920	 7.6330
 4.8960	 7.5660
 4.9010	 7.5950
 4.9060	 7.5950
 4.9100	 7.6120
 4.9150	 7.6180
 4.9200	 7.6290
 4.9240	 7.6320
 4.9290	 7.6100
 4.9340	 7.6160
 4.9380	 7.6100
 4.9430	 7.6300
 4.9480	 7.6670
 4.9530	 7.6900
 4.9570	 7.7560
 4.9620	 7.7420
 4.9670	 7.6930
 4.9720	 7.6670
 4.9760	 7.6280
 4.9810	 7.5910
 4.9860	 7.5940
 4.9910	 7.6010
 4.9960	 7.6400
 5.0000	 7.7130
 5.0050	 7.7400
 5.0100	 7.6430
 5.0150	 7.5540
 5.0200	 7.6140
 5.0250	 7.6560
 5.0290	 7.6330
 5.0340	 7.6110
 5.0390	 7.6180
 5.0440	 7.5920
 5.0490	 7.5850
 5.0540	 7.6450
 5.0590	 7.6260
 5.0640	 7.6270
 5.0690	 7.6180
 5.0740	 7.6180
 5.0790	 7.6920
 5.0840	 7.6980
 5.0890	 7.6330
 5.0940	 7.6130
 5.0990	 7.6290
 5.1040	 7.6750
 5.1090	 7.6670
 5.1140	 7.6540
 5.1190	 7.6110
 5.1240	 7.6060
 5.1290	 7.5970
 5.1340	 7.6610
 5.1390	 7.6490
 5.1440	 7.6580
 5.1490	 7.6150
 5.1540	 7.6110
 5.1600	 7.6650
 5.1650	 7.7100
 5.1700	 7.6590
 5.1750	 7.6740
 5.1800	 7.7260
 5.1850	 7.7200
 5.1910	 7.6660
 5.1960	 7.6750
 5.2010	 7.7010
 5.2060	 7.6970
 5.2110	 7.6960
 5.2170	 7.7040
 5.2220	 7.6350
 5.2270	 7.6420
 5.2320	 7.6460
 5.2380	 7.6650
 5.2430	 7.6460
 5.2480	 7.6700
 5.2540	 7.6360
 5.2590	 7.6160
 5.2640	 7.5960
 5.2700	 7.5930
 5.2750	 7.5880
 5.2800	 7.6750
 5.2860	 7.6980
 5.2910	 7.6260
 5.2970	 7.5500
 5.3020	 7.5910
 5.3070	 7.6400
 5.3130	 7.6510
 5.3180	 7.6080
 5.3240	 7.6220
 5.3290	 7.6050
 5.3350	 7.6210
 5.3400	 7.6020
 5.3460	 7.5770
 5.3510	 7.5600
 5.3570	 7.5930
 5.3620	 7.5780
 5.3680	 7.5900
 5.3730	 7.5620
 5.3790	 7.5460
 5.3850	 7.5200
 5.3900	 7.5520
 5.3960	 7.5870
 5.4010	 7.5650
 5.4070	 7.4930
 5.4130	 7.5540
 5.4180	 7.4980
 5.4240	 7.4800
 5.4300	 7.4420
 5.4350	 7.4530
 5.4410	 7.4280
 5.4470	 7.4280
 5.4530	 7.5000
 5.4580	 7.5510
 5.4640	 7.4660
 5.4700	 7.4910
 5.4760	 7.5060
 5.4810	 7.4150
 5.4870	 7.3530
 5.4930	 7.3900
 5.4990	 7.3440
 5.5050	 7.3140
 5.5110	 7.3050
 5.5160	 7.3180
 5.5220	 7.2620
 5.5280	 7.3310
 5.5340	 7.4250
 5.5400	 7.4040
 5.5460	 7.3200
 5.5520	 7.3290
 5.5580	 7.3130
 5.5640	 7.3080
 5.5700	 7.2500
 5.5760	 7.2060
 5.5820	 7.1500
 5.5880	 7.2120
 5.5940	 7.2300
 5.6000	 7.2220
 5.6060	 7.1750
 5.6120	 7.1530
 5.6180	 7.1090
 5.6240	 7.1000
 5.6300	 6.9990
 5.6360	 6.9830
 5.6420	 6.9590
 5.6490	 6.9250
 5.6550	 6.9320
 5.6610	 6.9730
 5.6670	 6.9260
 5.6730	 6.9200
 5.6800	 6.9260
 5.6860	 6.9290
 5.6920	 6.8910
 5.6980	 6.8920
 5.7040	 6.8330
 5.7110	 6.8140
 5.7170	 6.7550
 5.7230	 6.7950
 5.7300	 6.8100
 5.7360	 6.7940
 5.7420	 6.7740
 5.7490	 6.8800
 5.7550	 6.9580
 5.7620	 7.0620
 5.7680	 7.0910
 5.7740	 7.1750
 5.7810	 7.2610
 5.7870	 7.3850
 5.7940	 7.4560
 5.8000	 7.5400
 5.8070	 7.5600
 5.8130	 7.6170
 5.8200	 7.6020
 5.8260	 7.6290
 5.8330	 7.6370
 5.8390	 7.7010
 5.8460	 7.7330
 5.8530	 7.7680
 5.8590	 7.7300
 5.8660	 7.7430
 5.8720	 7.7500
 5.8790	 7.8010
 5.8860	 7.7920
 5.8920	 7.8350
 5.8990	 7.8090
 5.9060	 7.8090
 5.9130	 7.7320
 5.9190	 7.7730
 5.9260	 7.8230
 5.9330	 7.9730
 5.9400	 7.9470
 5.9470	 7.9270
 5.9530	 7.9210
 5.9600	 7.9940
 5.9670	 7.9040
 5.9740	 7.8640
 5.9810	 7.8670
 5.9880	 7.9280
 5.9950	 7.9360
 6.0020	 7.9320
 6.0090	 7.9670
 6.0160	 8.0800
 6.0230	 8.0490
 6.0300	 8.0200
 6.0370	 8.0010
 6.0440	 8.1640
 6.0510	 8.1140
 6.0580	 8.0400
 6.0650	 8.0230
 6.0720	 8.0830
 6.0790	 8.0180
 6.0860	 8.0360
 6.0930	 7.9990
 6.1000	 8.0340
 6.1080	 8.0360
 6.1150	 8.0760
 6.1220	 8.0050
 6.1290	 8.0350
 6.1370	 7.9310
 6.1440	 7.8970
 6.1510	 7.9350
 6.1580	 7.9590
 6.1660	 7.8620
 6.1730	 7.8620
 6.1800	 7.8630
 6.1880	 7.9850
 6.1950	 7.9210
 6.2030	 7.8860
 6.2100	 7.8780
 6.2170	 7.9470
 6.2250	 7.9700
 6.2320	 7.9440
 6.2400	 7.9000
 6.2470	 7.9550
 6.2550	 7.9440
 6.2630	 7.9960
 6.2700	 7.9050
 6.2780	 7.8400
 6.2850	 7.7960
 6.2930	 7.8980
 6.3010	 7.9820
 6.3080	 8.0480
 6.3160	 7.9310
 6.3240	 7.8410
 6.3310	 7.8230
 6.3390	 7.8810
 6.3470	 7.7790
 6.3550	 7.8020
 6.3620	 7.8220
 6.3700	 7.8210
 6.3780	 7.8140
 6.3860	 7.9150
 6.3940	 7.8770
 6.4020	 7.8680
 6.4100	 7.8560
 6.4180	 7.8920
 6.4260	 7.8220
 6.4330	 7.8570
 6.4410	 7.7910
 6.4490	 7.7780
 6.4580	 7.7330
 6.4660	 7.7170
 6.4740	 7.6560
 6.4820	 7.6960
 6.4900	 7.6250
 6.4980	 7.7070
 6.5060	 7.6660
 6.5140	 7.6720
 6.5230	 7.6430
 6.5310	 7.6430
 6.5390	 7.5200
 6.5470	 7.5890
 6.5550	 7.5440
 6.5640	 7.5410
 6.5720	 7.4860
 6.5800	 7.4750
 6.5890	 7.4200
 6.5970	 7.3820
 6.6060	 7.2500
 6.6140	 7.3180
 6.6220	 7.3490
 6.6310	 7.4740
 6.6390	 7.4590
 6.6480	 7.4000
 6.6560	 7.3570
 6.6650	 7.4070
 6.6740	 7.3810
 6.6820	 7.4240
 6.6910	 7.3640
 6.6990	 7.4250
 6.7080	 7.3650
 6.7170	 7.3720
 6.7260	 7.2670
 6.7340	 7.2760
 6.7430	 7.2670
 6.7520	 7.3440
 6.7610	 7.2970
 6.7690	 7.2980
 6.7780	 7.2880
 6.7870	 7.3280
 6.7960	 7.2420
 6.8050	 7.3190
 6.8140	 7.3230
 6.8230	 7.4440
 6.8320	 7.4110
 6.8410	 7.4780
 6.8500	 7.4850
 6.8590	 7.5870
 6.8680	 7.6050
 6.8770	 7.6230
 6.8860	 7.5570
 6.8950	 7.6340
 6.9050	 7.6180
 6.9140	 7.6830
 6.9230	 7.6880
 6.9320	 7.7470
 6.9420	 7.7260
 6.9510	 7.7340
 6.9600	 7.7030
 6.9700	 7.8090
 6.9790	 7.7900
 6.9880	 7.7560
 6.9980	 7.6800
 7.0070	 7.8310
 7.0170	 7.7920
 7.0260	 7.7800
 7.0360	 7.7570
 7.0450	 7.8380
 7.0550	 7.7290
 7.0650	 7.7620
 7.0740	 7.7520
 7.0840	 7.8480
 7.0940	 7.7300
 7.1030	 7.7640
 7.1130	 7.7170
 7.1230	 7.6580
 7.1330	 7.6030
 7.1420	 7.6950
 7.1520	 7.5850
 7.1620	 7.6250
 7.1720	 7.5780
 7.1820	 7.6010
 7.1920	 7.5260
 7.2020	 7.5390
 7.2120	 7.5630
 7.2220	 7.6850
 7.2320	 7.6290
 7.2420	 7.6980
 7.2520	 7.6900
 7.2620	 7.6800
 7.2730	 7.5630
 7.2830	 7.5750
 7.2930	 7.5190
 7.3030	 7.5940
 7.3140	 7.5320
 7.3240	 7.6050
 7.3340	 7.6530
 7.3450	 7.6730
 7.3550	 7.6050
 7.3660	 7.7430
 7.3760	 7.7100
 7.3870	 7.7790
 7.3970	 7.7650
 7.4080	 7.8580
 7.4180	 7.8390
 7.4290	 7.8400
 7.4400	 7.7160
 7.4500	 7.7590
 7.4610	 7.7340
 7.4720	 7.8160
 7.4830	 7.8070
 7.4930	 7.7810
 7.5040	 7.6730
 7.5150	 7.6770
 7.5260	 7.6870
 7.5370	 7.7290
 7.5480	 7.5260
 7.5590	 7.5470
 7.5700	 7.5140
 7.5810	 7.5290
 7.5920	 7.5210
 7.6030	 7.6790
 7.6140	 7.5890
 7.6260	 7.5660
 7.6370	 7.5000
 7.6480	 7.5740
 7.6590	 7.5420
 7.6710	 7.5620
 7.6820	 7.4430
 7.6930	 7.5190
 7.7050	 7.4840
 7.7160	 7.6210
 7.7280	 7.6310
 7.7390	 7.6090
 7.7510	 7.5360
 7.7630	 7.6340
 7.7740	 7.5890
 7.7860	 7.5840
 7.7980	 7.5390
 7.8090	 7.6670
 7.8210	 7.5820
 7.8330	 7.5770
 7.8450	 7.5740
 7.8570	 7.6680
 7.8690	 7.6110
 7.8810	 7.7140
 7.8930	 7.6600
 7.9050	 7.6890
 7.9170	 7.6150
 7.9290	 7.6310
 7.9410	 7.5260
 7.9530	 7.6710
 7.9650	 7.6460
 7.9780	 7.6400
 7.9900	 7.6130
 8.0020	 7.7200
 8.0150	 7.7110
 8.0270	 7.8100
 8.0390	 7.7600
 8.0520	 7.8910
 8.0640	 7.8070
 8.0770	 7.8640
 8.0900	 7.8110
 8.1020	 7.9410
 8.1150	 7.8670
 8.1280	 7.9090
 8.1400	 7.8860
 8.1530	 7.8990
 8.1660	 7.7200
 8.1790	 7.8210
 8.1920	 7.7540
 8.2050	 7.9170
 8.2180	 7.9500
 8.2310	 8.0500
 8.2440	 7.9400
 8.2570	 8.0420
 8.2700	 7.9520
 8.2830	 8.0030
 8.2970	 7.9720
 8.3100	 8.0810
 8.3230	 7.8820
 8.3370	 7.9890
 8.3500	 7.9440
 8.3640	 7.9730
 8.3770	 7.7600
 8.3910	 7.8350
 8.4040	 7.8610
 8.4180	 7.9530
 8.4320	 7.7970
 8.4450	 7.8960
 8.4590	 7.8760
 8.4730	 7.9710
 8.4870	 7.9460
 8.5010	 8.1250
 8.5150	 8.1130
 8.5290	 8.2590
 8.5430	 8.2320
 8.5570	 8.4130
 8.5710	 8.3510
 8.5850	 8.3960
 8.5990	 8.4050
 8.6140	 8.6350
 8.6280	 8.5030
 8.6420	 8.5870
 8.6570	 8.6350
 8.6710	 8.8130
 8.6860	 8.7130
 8.7000	 8.8110
 8.7150	 8.7070
 8.7300	 8.7530
 8.7440	 8.6570
 8.7590	 8.6660
 8.7740	 8.4350
 8.7890	 8.6300
 8.8040	 8.5560
 8.8190	 8.5710
 8.8340	 8.4600
 8.8490	 8.6180
 8.8640	 8.5480
 8.8790	 8.6490
 8.8940	 8.6270
 8.9100	 8.7690
 8.9250	 8.7170
 8.9400	 8.7510
 8.9560	 8.6020
 8.9710	 8.7420
 8.9870	 8.6570
 9.0020	 8.7700
 9.0180	 8.4710
 9.0340	 8.3590
 9.0500	 8.2620
 9.0650	 8.5850
 9.0810	 8.5350
 9.0970	 8.4400
 9.1130	 8.2250
 9.1290	 8.5140
 9.1450	 8.4870
 9.1610	 8.5640
 9.1780	 8.4550
 9.1940	 8.4160
 9.2100	 8.1860
 9.2270	 8.4470
 9.2430	 8.4880
 9.2600	 8.5620
 9.2760	 8.3340
 9.2930	 8.4330
 9.3090	 8.2710
 9.3260	 8.3810
 9.3430	 8.2740
 9.3600	 8.4480
 9.3770	 8.3710
 9.3940	 8.5480
 9.4110	 8.2910
 9.4280	 8.2860
 9.4450	 8.1610
 9.4620	 8.3220
 9.4800	 8.2910
 9.4970	 8.4130
 9.5140	 8.3280
 9.5320	 8.4920
 9.5500	 8.3330
 9.5670	 8.4790
 9.5850	 8.4470
 9.6030	 8.4060
 9.6200	 8.1900
 9.6380	 8.4820
 9.6560	 8.4960
 9.6740	 8.6370
 9.6920	 8.4230
 9.7100	 8.3620
 9.7290	 8.1850
 9.7470	 8.3210
 9.7650	 8.2820
 9.7840	 8.4930
 9.8020	 8.3900
 9.8210	 8.5120
 9.8390	 8.3720
 9.8580	 8.5290
 9.8770	 8.4930
 9.8960	 8.6480
 9.9150	 8.4730
 9.9340	 8.5600
 9.9530	 8.4600
 9.9720	 8.5340
 9.9910	 8.3890
10.0100	 8.5180
10.0300	 8.4260
10.0490	 8.5790
10.0690	 8.5260
10.0880	 8.5600
10.1080	 8.3610
10.1280	 8.4730
10.1480	 8.4900
10.1670	 8.6860
10.1870	 8.4680
10.2070	 8.4790
10.2280	 8.4310
10.2480	 8.6470
10.2680	 8.5820
10.2890	 8.6070
10.3090	 8.3820
10.3300	 8.5280
10.3500	 8.4970
10.3710	 8.6870
10.3920	 8.4930
10.4120	 8.4930
10.4330	 8.4220
10.4540	 8.6100
10.4760	 8.4360
10.4970	 8.5820
10.5180	 8.3830
10.5390	 8.3990
10.5610	 8.1770
10.5820	 8.2880
10.6040	 8.3250
10.6260	 8.5080
10.6480	 8.2570
10.6700	 8.3400
10.6920	 8.3520
10.7140	 8.5780
10.7360	 8.3500
10.7580	 8.5230
10.7800	 8.5290
10.8030	 8.6240
10.8250	 8.3900
10.8480	 8.4500
10.8710	 8.3520
10.8940	 8.4660
10.9170	 8.3010
10.9400	 8.4210
10.9630	 8.3800
10.9860	 8.4600
11.0090	 8.1470
11.0330	 8.3020
11.0560	 8.2740
11.0800	 8.5080
11.1040	 8.4270
11.1270	 8.4220
11.1510	 8.2540
11.1750	 8.3570
11.2000	 8.1300
11.2240	 8.2030
11.2480	 7.9520
11.2730	 7.7300
11.2970	 7.4530
11.3220	 8.2820
11.3470	 8.4500
11.3720	 8.3830
11.3970	 8.0370
11.4220	 8.2250
11.4470	 8.2790
11.4720	 8.5840
11.4980	 8.3550
11.5230	 8.4100
11.5490	 8.0860
11.5750	 8.2320
11.6000	 8.2020
11.6260	 8.3700
11.6530	 8.2060
11.6790	 8.3610
11.7050	 8.1200
11.7320	 8.2590
11.7580	 8.1500
11.7850	 8.2860
11.8120	 8.0890
11.8390	 8.2740
11.8660	 8.1520
11.8930	 8.2490
11.9200	 8.1140
11.9480	 8.3830
11.9760	 8.2080
12.0030	 8.3840
12.0310	 8.1920
12.0590	 8.2780
12.0870	 8.0840
12.1150	 8.3460
12.1440	 8.1830
12.1720	 8.3100
12.2010	 8.1840
12.2300	 8.5270
12.2590	 8.1630
12.2880	 8.2590
12.3170	 8.1450
12.3460	 8.2320
12.3760	 7.9680
12.4050	 8.2770
12.4350	 8.2210
12.4650	 8.3730
12.4950	 8.1520
12.5250	 8.3580
12.5550	 8.0350
12.5860	 8.1660
12.6170	 7.9620
12.6470	 8.1170
12.6780	 8.0580
12.7090	 8.3980
12.7410	 8.1360
12.7720	 8.1750
12.8030	 7.9360
12.8350	 8.1260
12.8670	 7.9800
12.8990	 8.3500
12.9310	 8.1330
12.9640	 8.2930
12.9960	 7.9930
13.0290	 8.1050
13.0610	 8.0320
13.0940	 8.2930
13.1280	 8.0000
13.1610	 8.1710
13.1940	 8.0550
13.2280	 8.1660
13.2620	 7.8040
13.2960	 8.1210
13.3300	 8.0730
13.3640	 8.2650
13.3990	 7.8740
13.4340	 8.0790
13.4690	 7.7940
13.5040	 8.0260
13.5390	 7.7770
13.5740	 7.9950
13.6100	 7.8370
13.6460	 8.0860
13.6820	 7.7070
13.7180	 7.9310
13.7540	 7.5310
13.7910	 7.7020
13.8280	 7.6870
13.8650	 8.1620
13.9020	 7.8980
13.9390	 8.1770
13.9770	 7.9060
14.0150	 8.0950
14.0530	 7.7530
14.0910	 8.0390
14.1290	 7.7020
14.1680	 8.1630
14.2070	 7.9530
14.2460	 8.0550
14.2850	 7.7970
14.3240	 7.9730
14.3640	 7.5220
14.4040	 7.8820
14.4440	 7.7710
14.4840	 8.4100
14.5250	 7.9200
14.5660	 8.1530
14.6070	 7.5350
14.6480	 7.4910
14.6900	 7.0300
14.7310	 7.8430
14.7730	 7.5760
14.8150	 7.7990
14.8580	 7.3970
14.9010	 8.2280
14.9440	 8.0440
14.9870	 8.6330
15.0300	 7.4370
15.0740	 7.6950
15.1180	 7.1140
15.1620	 7.6950
15.2060	 7.2600
15.2510	 7.8030
15.2960	 7.0210
15.3410	 7.7280
15.3870	 7.5460
