Name: Quercus douglasii 2
Type: vegetation
Class: Tree
Genus: Quercus
Species: douglasii
Sample No.: VH174
Owner: UCSB
Wavelength Range: VSWIR
Origin: 34.7157; -120.0601; WGS84
Collection Date: 6/9/2013
Description: Samples were collected as part of the HyspIRI Airborne Campaign. 48 individual plants were sampled in three times in 2013 - spring  summer  and fall. The name of the sample includes a 1  2  or 3 which references a different individual of the species. Samples were taken to JPL and processed within 48 hours of collection. The same leaves were processed in the Nicolet and then measured using the ASD.
Measurement: Bidirectional reflectance
First Column: X
Second Column: Y
X Units: Wavelength (micrometers)
Y Units: Reflectance (percentage)
First X Value: 0.35
Last X Value: 2.5
Number of X Values: 2151
Additional Information: vegetation.tree.quercus.douglasii.vswir.vh174.ucsb.asd.ancillary.txt

 0.3500	 5.5980
 0.3510	 5.8700
 0.3520	 5.9010
 0.3530	 5.7850
 0.3540	 5.7440
 0.3550	 5.8270
 0.3560	 5.8010
 0.3570	 5.6950
 0.3580	 5.6720
 0.3590	 5.7140
 0.3600	 5.7200
 0.3610	 5.6870
 0.3620	 5.7440
 0.3630	 5.7070
 0.3640	 5.6540
 0.3650	 5.6960
 0.3660	 5.7400
 0.3670	 5.7680
 0.3680	 5.7540
 0.3690	 5.6820
 0.3700	 5.7060
 0.3710	 5.7850
 0.3720	 5.8340
 0.3730	 5.7390
 0.3740	 5.7320
 0.3750	 5.7690
 0.3760	 5.7430
 0.3770	 5.7400
 0.3780	 5.7460
 0.3790	 5.7350
 0.3800	 5.6740
 0.3810	 5.7490
 0.3820	 5.8370
 0.3830	 5.8370
 0.3840	 5.8330
 0.3850	 5.8410
 0.3860	 5.8850
 0.3870	 5.9600
 0.3880	 6.0190
 0.3890	 5.9830
 0.3900	 5.8970
 0.3910	 5.9330
 0.3920	 5.9790
 0.3930	 6.0310
 0.3940	 6.0790
 0.3950	 6.0550
 0.3960	 6.0590
 0.3970	 6.1050
 0.3980	 6.1550
 0.3990	 6.1530
 0.4000	 6.1520
 0.4010	 6.1880
 0.4020	 6.2790
 0.4030	 6.2790
 0.4040	 6.2630
 0.4050	 6.3190
 0.4060	 6.3790
 0.4070	 6.3930
 0.4080	 6.3860
 0.4090	 6.4310
 0.4100	 6.5020
 0.4110	 6.5430
 0.4120	 6.5450
 0.4130	 6.5860
 0.4140	 6.6020
 0.4150	 6.6230
 0.4160	 6.6930
 0.4170	 6.7310
 0.4180	 6.7620
 0.4190	 6.8060
 0.4200	 6.8500
 0.4210	 6.8860
 0.4220	 6.9270
 0.4230	 6.9670
 0.4240	 6.9910
 0.4250	 7.0210
 0.4260	 7.0630
 0.4270	 7.1160
 0.4280	 7.1560
 0.4290	 7.1860
 0.4300	 7.2140
 0.4310	 7.2260
 0.4320	 7.2510
 0.4330	 7.2800
 0.4340	 7.2990
 0.4350	 7.3110
 0.4360	 7.3350
 0.4370	 7.3640
 0.4380	 7.3770
 0.4390	 7.3990
 0.4400	 7.4250
 0.4410	 7.4390
 0.4420	 7.4370
 0.4430	 7.4570
 0.4440	 7.4870
 0.4450	 7.4960
 0.4460	 7.5260
 0.4470	 7.5390
 0.4480	 7.5380
 0.4490	 7.5600
 0.4500	 7.5790
 0.4510	 7.5830
 0.4520	 7.5720
 0.4530	 7.5880
 0.4540	 7.6120
 0.4550	 7.6340
 0.4560	 7.6460
 0.4570	 7.6530
 0.4580	 7.6600
 0.4590	 7.6670
 0.4600	 7.6600
 0.4610	 7.6660
 0.4620	 7.6820
 0.4630	 7.6870
 0.4640	 7.6960
 0.4650	 7.7000
 0.4660	 7.7020
 0.4670	 7.7040
 0.4680	 7.7040
 0.4690	 7.6990
 0.4700	 7.6940
 0.4710	 7.7000
 0.4720	 7.7000
 0.4730	 7.6980
 0.4740	 7.7110
 0.4750	 7.6960
 0.4760	 7.6970
 0.4770	 7.7170
 0.4780	 7.7140
 0.4790	 7.7140
 0.4800	 7.7190
 0.4810	 7.7260
 0.4820	 7.7290
 0.4830	 7.7290
 0.4840	 7.7260
 0.4850	 7.7340
 0.4860	 7.7490
 0.4870	 7.7560
 0.4880	 7.7470
 0.4890	 7.7590
 0.4900	 7.7730
 0.4910	 7.7810
 0.4920	 7.7850
 0.4930	 7.8010
 0.4940	 7.8200
 0.4950	 7.8350
 0.4960	 7.8460
 0.4970	 7.8560
 0.4980	 7.8730
 0.4990	 7.8970
 0.5000	 7.9170
 0.5010	 7.9370
 0.5020	 7.9620
 0.5030	 7.9940
 0.5040	 8.0280
 0.5050	 8.0600
 0.5060	 8.0920
 0.5070	 8.1420
 0.5080	 8.1900
 0.5090	 8.2410
 0.5100	 8.3050
 0.5110	 8.3710
 0.5120	 8.4410
 0.5130	 8.5230
 0.5140	 8.6250
 0.5150	 8.7250
 0.5160	 8.8340
 0.5170	 8.9600
 0.5180	 9.0890
 0.5190	 9.2270
 0.5200	 9.3730
 0.5210	 9.5190
 0.5220	 9.6820
 0.5230	 9.8480
 0.5240	10.0060
 0.5250	10.1600
 0.5260	10.3110
 0.5270	10.4610
 0.5280	10.6080
 0.5290	10.7470
 0.5300	10.8720
 0.5310	10.9840
 0.5320	11.0950
 0.5330	11.1940
 0.5340	11.2810
 0.5350	11.3590
 0.5360	11.4280
 0.5370	11.4940
 0.5380	11.5550
 0.5390	11.6030
 0.5400	11.6500
 0.5410	11.6940
 0.5420	11.7320
 0.5430	11.7740
 0.5440	11.8180
 0.5450	11.8620
 0.5460	11.9040
 0.5470	11.9420
 0.5480	11.9750
 0.5490	12.0050
 0.5500	12.0300
 0.5510	12.0500
 0.5520	12.0610
 0.5530	12.0580
 0.5540	12.0420
 0.5550	12.0180
 0.5560	11.9830
 0.5570	11.9300
 0.5580	11.8620
 0.5590	11.7890
 0.5600	11.7120
 0.5610	11.6250
 0.5620	11.5360
 0.5630	11.4440
 0.5640	11.3440
 0.5650	11.2420
 0.5660	11.1370
 0.5670	11.0290
 0.5680	10.9190
 0.5690	10.8110
 0.5700	10.6990
 0.5710	10.5810
 0.5720	10.4820
 0.5730	10.3890
 0.5740	10.2990
 0.5750	10.2060
 0.5760	10.1150
 0.5770	10.0270
 0.5780	 9.9420
 0.5790	 9.8700
 0.5800	 9.8030
 0.5810	 9.7430
 0.5820	 9.6960
 0.5830	 9.6510
 0.5840	 9.6080
 0.5850	 9.5650
 0.5860	 9.5320
 0.5870	 9.5010
 0.5880	 9.4720
 0.5890	 9.4450
 0.5900	 9.4260
 0.5910	 9.4070
 0.5920	 9.3900
 0.5930	 9.3800
 0.5940	 9.3700
 0.5950	 9.3590
 0.5960	 9.3520
 0.5970	 9.3420
 0.5980	 9.3260
 0.5990	 9.3050
 0.6000	 9.2890
 0.6010	 9.2690
 0.6020	 9.2450
 0.6030	 9.2170
 0.6040	 9.1940
 0.6050	 9.1580
 0.6060	 9.1200
 0.6070	 9.0830
 0.6080	 9.0440
 0.6090	 8.9980
 0.6100	 8.9510
 0.6110	 8.9040
 0.6120	 8.8660
 0.6130	 8.8250
 0.6140	 8.7850
 0.6150	 8.7500
 0.6160	 8.7140
 0.6170	 8.6820
 0.6180	 8.6620
 0.6190	 8.6300
 0.6200	 8.6040
 0.6210	 8.5800
 0.6220	 8.5640
 0.6230	 8.5450
 0.6240	 8.5310
 0.6250	 8.5210
 0.6260	 8.5130
 0.6270	 8.5050
 0.6280	 8.4990
 0.6290	 8.4910
 0.6300	 8.4840
 0.6310	 8.4810
 0.6320	 8.4800
 0.6330	 8.4700
 0.6340	 8.4620
 0.6350	 8.4540
 0.6360	 8.4450
 0.6370	 8.4320
 0.6380	 8.4150
 0.6390	 8.3890
 0.6400	 8.3710
 0.6410	 8.3460
 0.6420	 8.3170
 0.6430	 8.2890
 0.6440	 8.2640
 0.6450	 8.2390
 0.6460	 8.2150
 0.6470	 8.1850
 0.6480	 8.1600
 0.6490	 8.1390
 0.6500	 8.1210
 0.6510	 8.1060
 0.6520	 8.0870
 0.6530	 8.0700
 0.6540	 8.0490
 0.6550	 8.0350
 0.6560	 8.0120
 0.6570	 7.9900
 0.6580	 7.9690
 0.6590	 7.9510
 0.6600	 7.9310
 0.6610	 7.9120
 0.6620	 7.8920
 0.6630	 7.8750
 0.6640	 7.8590
 0.6650	 7.8480
 0.6660	 7.8410
 0.6670	 7.8390
 0.6680	 7.8360
 0.6690	 7.8360
 0.6700	 7.8390
 0.6710	 7.8460
 0.6720	 7.8570
 0.6730	 7.8670
 0.6740	 7.8790
 0.6750	 7.8940
 0.6760	 7.9090
 0.6770	 7.9280
 0.6780	 7.9530
 0.6790	 7.9780
 0.6800	 8.0030
 0.6810	 8.0300
 0.6820	 8.0620
 0.6830	 8.0990
 0.6840	 8.1380
 0.6850	 8.1760
 0.6860	 8.2210
 0.6870	 8.2720
 0.6880	 8.3330
 0.6890	 8.4070
 0.6900	 8.4940
 0.6910	 8.6040
 0.6920	 8.7440
 0.6930	 8.9200
 0.6940	 9.1370
 0.6950	 9.4040
 0.6960	 9.7240
 0.6970	10.1050
 0.6980	10.5480
 0.6990	11.0530
 0.7000	11.6220
 0.7010	12.2510
 0.7020	12.9310
 0.7030	13.6590
 0.7040	14.4270
 0.7050	15.2270
 0.7060	16.0660
 0.7070	16.9260
 0.7080	17.8030
 0.7090	18.6990
 0.7100	19.6080
 0.7110	20.5300
 0.7120	21.4620
 0.7130	22.3990
 0.7140	23.3390
 0.7150	24.2810
 0.7160	25.2220
 0.7170	26.1600
 0.7180	27.0870
 0.7190	28.0040
 0.7200	28.9160
 0.7210	29.8120
 0.7220	30.6950
 0.7230	31.5600
 0.7240	32.3980
 0.7250	33.2160
 0.7260	34.0100
 0.7270	34.7780
 0.7280	35.5160
 0.7290	36.2280
 0.7300	36.9120
 0.7310	37.5620
 0.7320	38.1830
 0.7330	38.7710
 0.7340	39.3310
 0.7350	39.8730
 0.7360	40.3800
 0.7370	40.8600
 0.7380	41.3170
 0.7390	41.7430
 0.7400	42.1420
 0.7410	42.5180
 0.7420	42.8720
 0.7430	43.2050
 0.7440	43.5150
 0.7450	43.8010
 0.7460	44.0610
 0.7470	44.3070
 0.7480	44.5370
 0.7490	44.7480
 0.7500	44.9410
 0.7510	45.1160
 0.7520	45.2790
 0.7530	45.4320
 0.7540	45.5670
 0.7550	45.6920
 0.7560	45.8070
 0.7570	45.9060
 0.7580	46.0030
 0.7590	46.0930
 0.7600	46.1720
 0.7610	46.2470
 0.7620	46.3120
 0.7630	46.3700
 0.7640	46.4250
 0.7650	46.4740
 0.7660	46.5230
 0.7670	46.5670
 0.7680	46.6000
 0.7690	46.6390
 0.7700	46.6720
 0.7710	46.6990
 0.7720	46.7300
 0.7730	46.7560
 0.7740	46.7790
 0.7750	46.8010
 0.7760	46.8250
 0.7770	46.8440
 0.7780	46.8640
 0.7790	46.8900
 0.7800	46.9100
 0.7810	46.9290
 0.7820	46.9490
 0.7830	46.9630
 0.7840	46.9780
 0.7850	46.9930
 0.7860	47.0050
 0.7870	47.0230
 0.7880	47.0350
 0.7890	47.0450
 0.7900	47.0580
 0.7910	47.0770
 0.7920	47.0900
 0.7930	47.0950
 0.7940	47.1000
 0.7950	47.1080
 0.7960	47.1190
 0.7970	47.1300
 0.7980	47.1330
 0.7990	47.1390
 0.8000	47.1460
 0.8010	47.1480
 0.8020	47.1520
 0.8030	47.1580
 0.8040	47.1620
 0.8050	47.1620
 0.8060	47.1580
 0.8070	47.1520
 0.8080	47.1480
 0.8090	47.1470
 0.8100	47.1470
 0.8110	47.1500
 0.8120	47.1520
 0.8130	47.1420
 0.8140	47.1320
 0.8150	47.1270
 0.8160	47.1260
 0.8170	47.1230
 0.8180	47.1220
 0.8190	47.1160
 0.8200	47.1000
 0.8210	47.0870
 0.8220	47.0850
 0.8230	47.0840
 0.8240	47.0670
 0.8250	47.0570
 0.8260	47.0470
 0.8270	47.0320
 0.8280	47.0210
 0.8290	47.0080
 0.8300	47.0010
 0.8310	47.0020
 0.8320	46.9930
 0.8330	46.9850
 0.8340	46.9760
 0.8350	46.9600
 0.8360	46.9540
 0.8370	46.9540
 0.8380	46.9500
 0.8390	46.9350
 0.8400	46.9270
 0.8410	46.9260
 0.8420	46.9270
 0.8430	46.9240
 0.8440	46.9140
 0.8450	46.9090
 0.8460	46.9120
 0.8470	46.9050
 0.8480	46.9020
 0.8490	46.9000
 0.8500	46.8940
 0.8510	46.8940
 0.8520	46.8940
 0.8530	46.8940
 0.8540	46.8990
 0.8550	46.8970
 0.8560	46.8950
 0.8570	46.8960
 0.8580	46.9060
 0.8590	46.9040
 0.8600	46.8980
 0.8610	46.8940
 0.8620	46.8990
 0.8630	46.8960
 0.8640	46.8990
 0.8650	46.9140
 0.8660	46.9140
 0.8670	46.9130
 0.8680	46.9180
 0.8690	46.9270
 0.8700	46.9280
 0.8710	46.9360
 0.8720	46.9430
 0.8730	46.9400
 0.8740	46.9470
 0.8750	46.9550
 0.8760	46.9580
 0.8770	46.9650
 0.8780	46.9750
 0.8790	46.9780
 0.8800	46.9750
 0.8810	46.9810
 0.8820	46.9990
 0.8830	47.0100
 0.8840	47.0060
 0.8850	47.0080
 0.8860	47.0180
 0.8870	47.0210
 0.8880	47.0140
 0.8890	47.0270
 0.8900	47.0360
 0.8910	47.0410
 0.8920	47.0500
 0.8930	47.0550
 0.8940	47.0600
 0.8950	47.0660
 0.8960	47.0750
 0.8970	47.0860
 0.8980	47.0920
 0.8990	47.0930
 0.9000	47.0990
 0.9010	47.1070
 0.9020	47.1100
 0.9030	47.1140
 0.9040	47.1400
 0.9050	47.1440
 0.9060	47.1430
 0.9070	47.1510
 0.9080	47.1510
 0.9090	47.1530
 0.9100	47.1610
 0.9110	47.1740
 0.9120	47.1780
 0.9130	47.1800
 0.9140	47.1850
 0.9150	47.1920
 0.9160	47.1870
 0.9170	47.1990
 0.9180	47.2140
 0.9190	47.2060
 0.9200	47.2050
 0.9210	47.2100
 0.9220	47.2170
 0.9230	47.2170
 0.9240	47.2090
 0.9250	47.2050
 0.9260	47.2070
 0.9270	47.2060
 0.9280	47.2000
 0.9290	47.1930
 0.9300	47.1840
 0.9310	47.1730
 0.9320	47.1670
 0.9330	47.1570
 0.9340	47.1390
 0.9350	47.1260
 0.9360	47.1200
 0.9370	47.1160
 0.9380	47.1050
 0.9390	47.0830
 0.9400	47.0660
 0.9410	47.0430
 0.9420	47.0110
 0.9430	46.9890
 0.9440	46.9710
 0.9450	46.9550
 0.9460	46.9390
 0.9470	46.9090
 0.9480	46.8810
 0.9490	46.8470
 0.9500	46.8000
 0.9510	46.7560
 0.9520	46.7100
 0.9530	46.6690
 0.9540	46.6350
 0.9550	46.5860
 0.9560	46.5350
 0.9570	46.4940
 0.9580	46.4610
 0.9590	46.4130
 0.9600	46.3860
 0.9610	46.3550
 0.9620	46.2950
 0.9630	46.2740
 0.9640	46.2500
 0.9650	46.2280
 0.9660	46.2190
 0.9670	46.1900
 0.9680	46.1670
 0.9690	46.1520
 0.9700	46.1380
 0.9710	46.1360
 0.9720	46.1270
 0.9730	46.1150
 0.9740	46.1080
 0.9750	46.0890
 0.9760	46.0780
 0.9770	46.0810
 0.9780	46.0900
 0.9790	46.0740
 0.9800	46.0660
 0.9810	46.0710
 0.9820	46.0760
 0.9830	46.0780
 0.9840	46.0820
 0.9850	46.0820
 0.9860	46.0700
 0.9870	46.0700
 0.9880	46.0850
 0.9890	46.0940
 0.9900	46.0800
 0.9910	46.1080
 0.9920	46.1310
 0.9930	46.1300
 0.9940	46.1160
 0.9950	46.1350
 0.9960	46.1510
 0.9970	46.1640
 0.9980	46.1820
 0.9990	46.1660
 1.0000	46.1620
 1.0010	46.1550
 1.0020	46.1550
 1.0030	46.1650
 1.0040	46.1780
 1.0050	46.1880
 1.0060	46.2010
 1.0070	46.2140
 1.0080	46.2270
 1.0090	46.2360
 1.0100	46.2480
 1.0110	46.2620
 1.0120	46.2740
 1.0130	46.2850
 1.0140	46.2980
 1.0150	46.3130
 1.0160	46.3300
 1.0170	46.3460
 1.0180	46.3580
 1.0190	46.3690
 1.0200	46.3800
 1.0210	46.3880
 1.0220	46.3950
 1.0230	46.4040
 1.0240	46.4110
 1.0250	46.4210
 1.0260	46.4330
 1.0270	46.4440
 1.0280	46.4570
 1.0290	46.4670
 1.0300	46.4770
 1.0310	46.4860
 1.0320	46.4890
 1.0330	46.4980
 1.0340	46.5130
 1.0350	46.5250
 1.0360	46.5370
 1.0370	46.5520
 1.0380	46.5610
 1.0390	46.5620
 1.0400	46.5700
 1.0410	46.5800
 1.0420	46.5860
 1.0430	46.5930
 1.0440	46.6000
 1.0450	46.6080
 1.0460	46.6140
 1.0470	46.6230
 1.0480	46.6300
 1.0490	46.6320
 1.0500	46.6380
 1.0510	46.6460
 1.0520	46.6560
 1.0530	46.6620
 1.0540	46.6680
 1.0550	46.6730
 1.0560	46.6740
 1.0570	46.6780
 1.0580	46.6850
 1.0590	46.6910
 1.0600	46.6980
 1.0610	46.7020
 1.0620	46.7030
 1.0630	46.7070
 1.0640	46.7100
 1.0650	46.7130
 1.0660	46.7200
 1.0670	46.7220
 1.0680	46.7230
 1.0690	46.7210
 1.0700	46.7190
 1.0710	46.7140
 1.0720	46.7150
 1.0730	46.7190
 1.0740	46.7190
 1.0750	46.7210
 1.0760	46.7200
 1.0770	46.7160
 1.0780	46.7140
 1.0790	46.7130
 1.0800	46.7110
 1.0810	46.7080
 1.0820	46.7040
 1.0830	46.6990
 1.0840	46.6960
 1.0850	46.6930
 1.0860	46.6890
 1.0870	46.6850
 1.0880	46.6820
 1.0890	46.6780
 1.0900	46.6750
 1.0910	46.6710
 1.0920	46.6690
 1.0930	46.6630
 1.0940	46.6540
 1.0950	46.6460
 1.0960	46.6330
 1.0970	46.6250
 1.0980	46.6190
 1.0990	46.6120
 1.1000	46.6080
 1.1010	46.6020
 1.1020	46.5920
 1.1030	46.5850
 1.1040	46.5760
 1.1050	46.5670
 1.1060	46.5570
 1.1070	46.5470
 1.1080	46.5370
 1.1090	46.5260
 1.1100	46.5160
 1.1110	46.5060
 1.1120	46.4940
 1.1130	46.4830
 1.1140	46.4690
 1.1150	46.4520
 1.1160	46.4360
 1.1170	46.4200
 1.1180	46.4020
 1.1190	46.3830
 1.1200	46.3640
 1.1210	46.3440
 1.1220	46.3200
 1.1230	46.2940
 1.1240	46.2680
 1.1250	46.2360
 1.1260	46.2010
 1.1270	46.1620
 1.1280	46.1200
 1.1290	46.0730
 1.1300	46.0220
 1.1310	45.9660
 1.1320	45.9050
 1.1330	45.8400
 1.1340	45.7700
 1.1350	45.6960
 1.1360	45.6200
 1.1370	45.5360
 1.1380	45.4450
 1.1390	45.3500
 1.1400	45.2500
 1.1410	45.1470
 1.1420	45.0450
 1.1430	44.9420
 1.1440	44.8370
 1.1450	44.7280
 1.1460	44.6240
 1.1470	44.5170
 1.1480	44.4150
 1.1490	44.3160
 1.1500	44.2230
 1.1510	44.1320
 1.1520	44.0470
 1.1530	43.9640
 1.1540	43.8900
 1.1550	43.8220
 1.1560	43.7570
 1.1570	43.7000
 1.1580	43.6530
 1.1590	43.6120
 1.1600	43.5730
 1.1610	43.5390
 1.1620	43.5090
 1.1630	43.4800
 1.1640	43.4570
 1.1650	43.4350
 1.1660	43.4170
 1.1670	43.4010
 1.1680	43.3890
 1.1690	43.3770
 1.1700	43.3670
 1.1710	43.3570
 1.1720	43.3470
 1.1730	43.3370
 1.1740	43.3300
 1.1750	43.3220
 1.1760	43.3140
 1.1770	43.3060
 1.1780	43.2940
 1.1790	43.2840
 1.1800	43.2720
 1.1810	43.2580
 1.1820	43.2440
 1.1830	43.2310
 1.1840	43.2180
 1.1850	43.2070
 1.1860	43.1960
 1.1870	43.1870
 1.1880	43.1770
 1.1890	43.1640
 1.1900	43.1560
 1.1910	43.1460
 1.1920	43.1400
 1.1930	43.1380
 1.1940	43.1350
 1.1950	43.1340
 1.1960	43.1340
 1.1970	43.1340
 1.1980	43.1340
 1.1990	43.1360
 1.2000	43.1420
 1.2010	43.1480
 1.2020	43.1540
 1.2030	43.1590
 1.2040	43.1640
 1.2050	43.1720
 1.2060	43.1820
 1.2070	43.1950
 1.2080	43.2090
 1.2090	43.2200
 1.2100	43.2320
 1.2110	43.2450
 1.2120	43.2570
 1.2130	43.2710
 1.2140	43.2870
 1.2150	43.3030
 1.2160	43.3200
 1.2170	43.3370
 1.2180	43.3550
 1.2190	43.3740
 1.2200	43.3950
 1.2210	43.4160
 1.2220	43.4360
 1.2230	43.4580
 1.2240	43.4780
 1.2250	43.4970
 1.2260	43.5150
 1.2270	43.5340
 1.2280	43.5520
 1.2290	43.5700
 1.2300	43.5890
 1.2310	43.6070
 1.2320	43.6240
 1.2330	43.6380
 1.2340	43.6530
 1.2350	43.6650
 1.2360	43.6790
 1.2370	43.6920
 1.2380	43.7070
 1.2390	43.7200
 1.2400	43.7330
 1.2410	43.7470
 1.2420	43.7590
 1.2430	43.7720
 1.2440	43.7830
 1.2450	43.7940
 1.2460	43.8040
 1.2470	43.8130
 1.2480	43.8210
 1.2490	43.8300
 1.2500	43.8380
 1.2510	43.8450
 1.2520	43.8530
 1.2530	43.8590
 1.2540	43.8640
 1.2550	43.8690
 1.2560	43.8740
 1.2570	43.8780
 1.2580	43.8820
 1.2590	43.8850
 1.2600	43.8880
 1.2610	43.8890
 1.2620	43.8900
 1.2630	43.8900
 1.2640	43.8870
 1.2650	43.8830
 1.2660	43.8790
 1.2670	43.8720
 1.2680	43.8670
 1.2690	43.8630
 1.2700	43.8580
 1.2710	43.8540
 1.2720	43.8480
 1.2730	43.8390
 1.2740	43.8300
 1.2750	43.8220
 1.2760	43.8130
 1.2770	43.8030
 1.2780	43.7920
 1.2790	43.7790
 1.2800	43.7650
 1.2810	43.7520
 1.2820	43.7370
 1.2830	43.7220
 1.2840	43.7070
 1.2850	43.6900
 1.2860	43.6740
 1.2870	43.6560
 1.2880	43.6370
 1.2890	43.6150
 1.2900	43.5920
 1.2910	43.5690
 1.2920	43.5440
 1.2930	43.5190
 1.2940	43.4930
 1.2950	43.4640
 1.2960	43.4320
 1.2970	43.3980
 1.2980	43.3630
 1.2990	43.3240
 1.3000	43.2850
 1.3010	43.2450
 1.3020	43.2030
 1.3030	43.1600
 1.3040	43.1140
 1.3050	43.0660
 1.3060	43.0150
 1.3070	42.9610
 1.3080	42.9060
 1.3090	42.8490
 1.3100	42.7870
 1.3110	42.7230
 1.3120	42.6580
 1.3130	42.5890
 1.3140	42.5180
 1.3150	42.4470
 1.3160	42.3720
 1.3170	42.2940
 1.3180	42.2120
 1.3190	42.1270
 1.3200	42.0390
 1.3210	41.9460
 1.3220	41.8550
 1.3230	41.7630
 1.3240	41.6650
 1.3250	41.5690
 1.3260	41.4670
 1.3270	41.3600
 1.3280	41.2550
 1.3290	41.1490
 1.3300	41.0420
 1.3310	40.9350
 1.3320	40.8250
 1.3330	40.7110
 1.3340	40.5950
 1.3350	40.4750
 1.3360	40.3540
 1.3370	40.2350
 1.3380	40.1170
 1.3390	39.9980
 1.3400	39.8790
 1.3410	39.7600
 1.3420	39.6400
 1.3430	39.5210
 1.3440	39.4050
 1.3450	39.2880
 1.3460	39.1710
 1.3470	39.0560
 1.3480	38.9400
 1.3490	38.8260
 1.3500	38.7140
 1.3510	38.6020
 1.3520	38.4900
 1.3530	38.3790
 1.3540	38.2660
 1.3550	38.1520
 1.3560	38.0390
 1.3570	37.9240
 1.3580	37.8080
 1.3590	37.6920
 1.3600	37.5740
 1.3610	37.4520
 1.3620	37.3250
 1.3630	37.1950
 1.3640	37.0610
 1.3650	36.9200
 1.3660	36.7750
 1.3670	36.6240
 1.3680	36.4620
 1.3690	36.2920
 1.3700	36.1080
 1.3710	35.9130
 1.3720	35.7070
 1.3730	35.4870
 1.3740	35.2560
 1.3750	35.0080
 1.3760	34.7400
 1.3770	34.4540
 1.3780	34.1450
 1.3790	33.8170
 1.3800	33.4680
 1.3810	33.0930
 1.3820	32.7020
 1.3830	32.2940
 1.3840	31.8660
 1.3850	31.4190
 1.3860	30.9570
 1.3870	30.4730
 1.3880	29.9820
 1.3890	29.4770
 1.3900	28.9610
 1.3910	28.4410
 1.3920	27.9120
 1.3930	27.3780
 1.3940	26.8440
 1.3950	26.3040
 1.3960	25.7700
 1.3970	25.2430
 1.3980	24.7220
 1.3990	24.2200
 1.4000	23.7300
 1.4010	23.2500
 1.4020	22.7910
 1.4030	22.3450
 1.4040	21.9170
 1.4050	21.5110
 1.4060	21.1220
 1.4070	20.7580
 1.4080	20.4130
 1.4090	20.0870
 1.4100	19.7840
 1.4110	19.4990
 1.4120	19.2330
 1.4130	18.9870
 1.4140	18.7580
 1.4150	18.5500
 1.4160	18.3580
 1.4170	18.1790
 1.4180	18.0170
 1.4190	17.8680
 1.4200	17.7320
 1.4210	17.6090
 1.4220	17.4980
 1.4230	17.3980
 1.4240	17.3070
 1.4250	17.2250
 1.4260	17.1530
 1.4270	17.0880
 1.4280	17.0310
 1.4290	16.9800
 1.4300	16.9380
 1.4310	16.9010
 1.4320	16.8710
 1.4330	16.8460
 1.4340	16.8270
 1.4350	16.8110
 1.4360	16.8000
 1.4370	16.7920
 1.4380	16.7890
 1.4390	16.7880
 1.4400	16.7910
 1.4410	16.7960
 1.4420	16.8050
 1.4430	16.8160
 1.4440	16.8280
 1.4450	16.8420
 1.4460	16.8560
 1.4470	16.8720
 1.4480	16.8890
 1.4490	16.9070
 1.4500	16.9270
 1.4510	16.9470
 1.4520	16.9690
 1.4530	16.9930
 1.4540	17.0180
 1.4550	17.0450
 1.4560	17.0730
 1.4570	17.1040
 1.4580	17.1380
 1.4590	17.1740
 1.4600	17.2140
 1.4610	17.2570
 1.4620	17.3040
 1.4630	17.3560
 1.4640	17.4100
 1.4650	17.4700
 1.4660	17.5350
 1.4670	17.6050
 1.4680	17.6800
 1.4690	17.7600
 1.4700	17.8430
 1.4710	17.9290
 1.4720	18.0190
 1.4730	18.1130
 1.4740	18.2100
 1.4750	18.3090
 1.4760	18.4120
 1.4770	18.5180
 1.4780	18.6260
 1.4790	18.7370
 1.4800	18.8480
 1.4810	18.9580
 1.4820	19.0700
 1.4830	19.1840
 1.4840	19.3000
 1.4850	19.4180
 1.4860	19.5340
 1.4870	19.6510
 1.4880	19.7670
 1.4890	19.8830
 1.4900	20.0000
 1.4910	20.1170
 1.4920	20.2350
 1.4930	20.3540
 1.4940	20.4730
 1.4950	20.5930
 1.4960	20.7110
 1.4970	20.8290
 1.4980	20.9480
 1.4990	21.0670
 1.5000	21.1850
 1.5010	21.3040
 1.5020	21.4220
 1.5030	21.5390
 1.5040	21.6560
 1.5050	21.7720
 1.5060	21.8880
 1.5070	22.0040
 1.5080	22.1210
 1.5090	22.2380
 1.5100	22.3530
 1.5110	22.4670
 1.5120	22.5800
 1.5130	22.6920
 1.5140	22.8030
 1.5150	22.9130
 1.5160	23.0210
 1.5170	23.1310
 1.5180	23.2380
 1.5190	23.3450
 1.5200	23.4520
 1.5210	23.5570
 1.5220	23.6610
 1.5230	23.7660
 1.5240	23.8690
 1.5250	23.9720
 1.5260	24.0740
 1.5270	24.1740
 1.5280	24.2720
 1.5290	24.3670
 1.5300	24.4620
 1.5310	24.5580
 1.5320	24.6510
 1.5330	24.7450
 1.5340	24.8370
 1.5350	24.9260
 1.5360	25.0160
 1.5370	25.1040
 1.5380	25.1920
 1.5390	25.2790
 1.5400	25.3660
 1.5410	25.4550
 1.5420	25.5420
 1.5430	25.6270
 1.5440	25.7110
 1.5450	25.7920
 1.5460	25.8720
 1.5470	25.9520
 1.5480	26.0320
 1.5490	26.1110
 1.5500	26.1900
 1.5510	26.2680
 1.5520	26.3460
 1.5530	26.4220
 1.5540	26.4980
 1.5550	26.5720
 1.5560	26.6440
 1.5570	26.7170
 1.5580	26.7890
 1.5590	26.8600
 1.5600	26.9310
 1.5610	27.0010
 1.5620	27.0690
 1.5630	27.1370
 1.5640	27.2050
 1.5650	27.2700
 1.5660	27.3350
 1.5670	27.4010
 1.5680	27.4660
 1.5690	27.5290
 1.5700	27.5940
 1.5710	27.6570
 1.5720	27.7190
 1.5730	27.7820
 1.5740	27.8440
 1.5750	27.9050
 1.5760	27.9650
 1.5770	28.0240
 1.5780	28.0830
 1.5790	28.1430
 1.5800	28.2040
 1.5810	28.2640
 1.5820	28.3240
 1.5830	28.3840
 1.5840	28.4430
 1.5850	28.5010
 1.5860	28.5590
 1.5870	28.6160
 1.5880	28.6740
 1.5890	28.7320
 1.5900	28.7900
 1.5910	28.8490
 1.5920	28.9060
 1.5930	28.9620
 1.5940	29.0170
 1.5950	29.0730
 1.5960	29.1290
 1.5970	29.1850
 1.5980	29.2390
 1.5990	29.2930
 1.6000	29.3460
 1.6010	29.3980
 1.6020	29.4510
 1.6030	29.5040
 1.6040	29.5550
 1.6050	29.6060
 1.6060	29.6560
 1.6070	29.7070
 1.6080	29.7570
 1.6090	29.8050
 1.6100	29.8550
 1.6110	29.9010
 1.6120	29.9480
 1.6130	29.9950
 1.6140	30.0380
 1.6150	30.0810
 1.6160	30.1240
 1.6170	30.1640
 1.6180	30.2070
 1.6190	30.2480
 1.6200	30.2850
 1.6210	30.3240
 1.6220	30.3620
 1.6230	30.3980
 1.6240	30.4370
 1.6250	30.4740
 1.6260	30.5100
 1.6270	30.5470
 1.6280	30.5830
 1.6290	30.6160
 1.6300	30.6460
 1.6310	30.6770
 1.6320	30.7070
 1.6330	30.7360
 1.6340	30.7660
 1.6350	30.7930
 1.6360	30.8170
 1.6370	30.8410
 1.6380	30.8640
 1.6390	30.8870
 1.6400	30.9110
 1.6410	30.9320
 1.6420	30.9520
 1.6430	30.9680
 1.6440	30.9810
 1.6450	30.9940
 1.6460	31.0050
 1.6470	31.0150
 1.6480	31.0230
 1.6490	31.0290
 1.6500	31.0320
 1.6510	31.0320
 1.6520	31.0300
 1.6530	31.0270
 1.6540	31.0220
 1.6550	31.0170
 1.6560	31.0120
 1.6570	31.0050
 1.6580	30.9980
 1.6590	30.9890
 1.6600	30.9790
 1.6610	30.9700
 1.6620	30.9620
 1.6630	30.9560
 1.6640	30.9490
 1.6650	30.9430
 1.6660	30.9370
 1.6670	30.9290
 1.6680	30.9220
 1.6690	30.9150
 1.6700	30.9070
 1.6710	30.8970
 1.6720	30.8870
 1.6730	30.8780
 1.6740	30.8650
 1.6750	30.8510
 1.6760	30.8350
 1.6770	30.8140
 1.6780	30.7920
 1.6790	30.7690
 1.6800	30.7440
 1.6810	30.7150
 1.6820	30.6820
 1.6830	30.6470
 1.6840	30.6100
 1.6850	30.5710
 1.6860	30.5320
 1.6870	30.4910
 1.6880	30.4490
 1.6890	30.4060
 1.6900	30.3630
 1.6910	30.3190
 1.6920	30.2760
 1.6930	30.2310
 1.6940	30.1870
 1.6950	30.1430
 1.6960	30.1000
 1.6970	30.0590
 1.6980	30.0180
 1.6990	29.9780
 1.7000	29.9370
 1.7010	29.8960
 1.7020	29.8540
 1.7030	29.8120
 1.7040	29.7680
 1.7050	29.7220
 1.7060	29.6780
 1.7070	29.6360
 1.7080	29.5920
 1.7090	29.5480
 1.7100	29.5040
 1.7110	29.4580
 1.7120	29.4130
 1.7130	29.3690
 1.7140	29.3250
 1.7150	29.2790
 1.7160	29.2360
 1.7170	29.1960
 1.7180	29.1520
 1.7190	29.1120
 1.7200	29.0720
 1.7210	29.0310
 1.7220	28.9910
 1.7230	28.9510
 1.7240	28.9070
 1.7250	28.8650
 1.7260	28.8250
 1.7270	28.7860
 1.7280	28.7470
 1.7290	28.7100
 1.7300	28.6700
 1.7310	28.6320
 1.7320	28.5960
 1.7330	28.5580
 1.7340	28.5210
 1.7350	28.4850
 1.7360	28.4490
 1.7370	28.4110
 1.7380	28.3740
 1.7390	28.3340
 1.7400	28.2910
 1.7410	28.2470
 1.7420	28.2020
 1.7430	28.1560
 1.7440	28.1070
 1.7450	28.0600
 1.7460	28.0130
 1.7470	27.9650
 1.7480	27.9190
 1.7490	27.8690
 1.7500	27.8180
 1.7510	27.7680
 1.7520	27.7170
 1.7530	27.6660
 1.7540	27.6140
 1.7550	27.5620
 1.7560	27.5100
 1.7570	27.4580
 1.7580	27.4090
 1.7590	27.3620
 1.7600	27.3130
 1.7610	27.2660
 1.7620	27.2210
 1.7630	27.1750
 1.7640	27.1300
 1.7650	27.0900
 1.7660	27.0490
 1.7670	27.0090
 1.7680	26.9700
 1.7690	26.9310
 1.7700	26.8940
 1.7710	26.8600
 1.7720	26.8260
 1.7730	26.7940
 1.7740	26.7630
 1.7750	26.7310
 1.7760	26.7020
 1.7770	26.6730
 1.7780	26.6450
 1.7790	26.6170
 1.7800	26.5930
 1.7810	26.5710
 1.7820	26.5490
 1.7830	26.5300
 1.7840	26.5110
 1.7850	26.4910
 1.7860	26.4750
 1.7870	26.4610
 1.7880	26.4480
 1.7890	26.4350
 1.7900	26.4230
 1.7910	26.4140
 1.7920	26.4060
 1.7930	26.3990
 1.7940	26.3940
 1.7950	26.3900
 1.7960	26.3860
 1.7970	26.3850
 1.7980	26.3890
 1.7990	26.3900
 1.8000	26.3930
 1.8010	26.3960
 1.8020	26.3980
 1.8030	26.4020
 1.8040	26.4090
 1.8050	26.4140
 1.8060	26.4180
 1.8070	26.4220
 1.8080	26.4260
 1.8090	26.4280
 1.8100	26.4300
 1.8110	26.4310
 1.8120	26.4340
 1.8130	26.4360
 1.8140	26.4380
 1.8150	26.4400
 1.8160	26.4390
 1.8170	26.4390
 1.8180	26.4410
 1.8190	26.4420
 1.8200	26.4420
 1.8210	26.4410
 1.8220	26.4380
 1.8230	26.4320
 1.8240	26.4280
 1.8250	26.4240
 1.8260	26.4190
 1.8270	26.4150
 1.8280	26.4080
 1.8290	26.3970
 1.8300	26.4440
 1.8310	26.5670
 1.8320	26.6090
 1.8330	26.5840
 1.8340	26.5560
 1.8350	26.5250
 1.8360	26.4920
 1.8370	26.4560
 1.8380	26.4150
 1.8390	26.3720
 1.8400	26.3260
 1.8410	26.2730
 1.8420	26.2170
 1.8430	26.1530
 1.8440	26.0810
 1.8450	26.0010
 1.8460	25.9130
 1.8470	25.8190
 1.8480	25.7180
 1.8490	25.6090
 1.8500	25.4890
 1.8510	25.3600
 1.8520	25.2210
 1.8530	25.0720
 1.8540	24.9100
 1.8550	24.7370
 1.8560	24.5530
 1.8570	24.3570
 1.8580	24.1480
 1.8590	23.9250
 1.8600	23.6900
 1.8610	23.4400
 1.8620	23.1740
 1.8630	22.8950
 1.8640	22.5970
 1.8650	22.2830
 1.8660	21.9560
 1.8670	21.6060
 1.8680	21.2430
 1.8690	20.8620
 1.8700	20.4610
 1.8710	20.0400
 1.8720	19.6130
 1.8730	19.1710
 1.8740	18.7180
 1.8750	18.2600
 1.8760	17.7900
 1.8770	17.3200
 1.8780	16.8500
 1.8790	16.3720
 1.8800	15.9030
 1.8810	15.4370
 1.8820	14.9690
 1.8830	14.5010
 1.8840	14.0430
 1.8850	13.5870
 1.8860	13.1420
 1.8870	12.7130
 1.8880	12.2970
 1.8890	11.9030
 1.8900	11.5250
 1.8910	11.1650
 1.8920	10.8210
 1.8930	10.4990
 1.8940	10.1950
 1.8950	 9.9140
 1.8960	 9.6560
 1.8970	 9.4180
 1.8980	 9.2000
 1.8990	 8.9990
 1.9000	 8.8150
 1.9010	 8.6510
 1.9020	 8.4990
 1.9030	 8.3620
 1.9040	 8.2420
 1.9050	 8.1360
 1.9060	 8.0410
 1.9070	 7.9600
 1.9080	 7.8900
 1.9090	 7.8250
 1.9100	 7.7680
 1.9110	 7.7170
 1.9120	 7.6730
 1.9130	 7.6350
 1.9140	 7.6040
 1.9150	 7.5800
 1.9160	 7.5580
 1.9170	 7.5360
 1.9180	 7.5220
 1.9190	 7.5110
 1.9200	 7.5010
 1.9210	 7.4950
 1.9220	 7.4880
 1.9230	 7.4840
 1.9240	 7.4820
 1.9250	 7.4840
 1.9260	 7.4870
 1.9270	 7.4930
 1.9280	 7.5020
 1.9290	 7.5060
 1.9300	 7.5140
 1.9310	 7.5250
 1.9320	 7.5360
 1.9330	 7.5490
 1.9340	 7.5680
 1.9350	 7.5830
 1.9360	 7.6000
 1.9370	 7.6160
 1.9380	 7.6340
 1.9390	 7.6560
 1.9400	 7.6800
 1.9410	 7.7070
 1.9420	 7.7310
 1.9430	 7.7600
 1.9440	 7.7870
 1.9450	 7.8100
 1.9460	 7.8380
 1.9470	 7.8690
 1.9480	 7.8980
 1.9490	 7.9280
 1.9500	 7.9600
 1.9510	 7.9900
 1.9520	 8.0240
 1.9530	 8.0610
 1.9540	 8.0970
 1.9550	 8.1330
 1.9560	 8.1710
 1.9570	 8.2100
 1.9580	 8.2500
 1.9590	 8.2880
 1.9600	 8.3270
 1.9610	 8.3680
 1.9620	 8.4090
 1.9630	 8.4530
 1.9640	 8.4990
 1.9650	 8.5470
 1.9660	 8.5940
 1.9670	 8.6430
 1.9680	 8.6880
 1.9690	 8.7330
 1.9700	 8.7800
 1.9710	 8.8270
 1.9720	 8.8780
 1.9730	 8.9290
 1.9740	 8.9830
 1.9750	 9.0390
 1.9760	 9.0920
 1.9770	 9.1470
 1.9780	 9.2030
 1.9790	 9.2590
 1.9800	 9.3140
 1.9810	 9.3730
 1.9820	 9.4340
 1.9830	 9.4940
 1.9840	 9.5550
 1.9850	 9.6170
 1.9860	 9.6750
 1.9870	 9.7340
 1.9880	 9.7960
 1.9890	 9.8590
 1.9900	 9.9240
 1.9910	 9.9890
 1.9920	10.0550
 1.9930	10.1180
 1.9940	10.1800
 1.9950	10.2410
 1.9960	10.3040
 1.9970	10.3680
 1.9980	10.4310
 1.9990	10.4950
 2.0000	10.5580
 2.0010	10.6210
 2.0020	10.6870
 2.0030	10.7510
 2.0040	10.8190
 2.0050	10.8840
 2.0060	10.9500
 2.0070	11.0120
 2.0080	11.0720
 2.0090	11.1330
 2.0100	11.1920
 2.0110	11.2520
 2.0120	11.3110
 2.0130	11.3690
 2.0140	11.4280
 2.0150	11.4850
 2.0160	11.5410
 2.0170	11.5990
 2.0180	11.6530
 2.0190	11.7060
 2.0200	11.7590
 2.0210	11.8100
 2.0220	11.8610
 2.0230	11.9120
 2.0240	11.9620
 2.0250	12.0140
 2.0260	12.0610
 2.0270	12.1070
 2.0280	12.1510
 2.0290	12.1950
 2.0300	12.2340
 2.0310	12.2750
 2.0320	12.3150
 2.0330	12.3550
 2.0340	12.3950
 2.0350	12.4340
 2.0360	12.4740
 2.0370	12.5110
 2.0380	12.5460
 2.0390	12.5790
 2.0400	12.6090
 2.0410	12.6390
 2.0420	12.6690
 2.0430	12.6950
 2.0440	12.7230
 2.0450	12.7500
 2.0460	12.7780
 2.0470	12.8080
 2.0480	12.8350
 2.0490	12.8610
 2.0500	12.8880
 2.0510	12.9130
 2.0520	12.9410
 2.0530	12.9750
 2.0540	13.0040
 2.0550	13.0330
 2.0560	13.0610
 2.0570	13.0860
 2.0580	13.1100
 2.0590	13.1400
 2.0600	13.1740
 2.0610	13.2050
 2.0620	13.2400
 2.0630	13.2720
 2.0640	13.2990
 2.0650	13.3290
 2.0660	13.3590
 2.0670	13.3890
 2.0680	13.4200
 2.0690	13.4520
 2.0700	13.4850
 2.0710	13.5180
 2.0720	13.5510
 2.0730	13.5850
 2.0740	13.6150
 2.0750	13.6440
 2.0760	13.6730
 2.0770	13.7000
 2.0780	13.7300
 2.0790	13.7620
 2.0800	13.7920
 2.0810	13.8240
 2.0820	13.8530
 2.0830	13.8800
 2.0840	13.9080
 2.0850	13.9370
 2.0860	13.9650
 2.0870	13.9940
 2.0880	14.0220
 2.0890	14.0500
 2.0900	14.0760
 2.0910	14.1030
 2.0920	14.1310
 2.0930	14.1580
 2.0940	14.1850
 2.0950	14.2110
 2.0960	14.2390
 2.0970	14.2660
 2.0980	14.2900
 2.0990	14.3170
 2.1000	14.3460
 2.1010	14.3730
 2.1020	14.4010
 2.1030	14.4290
 2.1040	14.4580
 2.1050	14.4820
 2.1060	14.5080
 2.1070	14.5330
 2.1080	14.5590
 2.1090	14.5820
 2.1100	14.6080
 2.1110	14.6350
 2.1120	14.6610
 2.1130	14.6870
 2.1140	14.7130
 2.1150	14.7390
 2.1160	14.7650
 2.1170	14.7920
 2.1180	14.8170
 2.1190	14.8430
 2.1200	14.8660
 2.1210	14.8870
 2.1220	14.9080
 2.1230	14.9310
 2.1240	14.9530
 2.1250	14.9750
 2.1260	14.9980
 2.1270	15.0200
 2.1280	15.0410
 2.1290	15.0610
 2.1300	15.0800
 2.1310	15.1000
 2.1320	15.1170
 2.1330	15.1360
 2.1340	15.1600
 2.1350	15.1800
 2.1360	15.2010
 2.1370	15.2190
 2.1380	15.2330
 2.1390	15.2500
 2.1400	15.2670
 2.1410	15.2820
 2.1420	15.3000
 2.1430	15.3190
 2.1440	15.3360
 2.1450	15.3510
 2.1460	15.3690
 2.1470	15.3870
 2.1480	15.4020
 2.1490	15.4180
 2.1500	15.4340
 2.1510	15.4480
 2.1520	15.4640
 2.1530	15.4850
 2.1540	15.5000
 2.1550	15.5100
 2.1560	15.5250
 2.1570	15.5400
 2.1580	15.5550
 2.1590	15.5760
 2.1600	15.5930
 2.1610	15.6030
 2.1620	15.6160
 2.1630	15.6280
 2.1640	15.6370
 2.1650	15.6490
 2.1660	15.6640
 2.1670	15.6770
 2.1680	15.6910
 2.1690	15.7070
 2.1700	15.7250
 2.1710	15.7400
 2.1720	15.7540
 2.1730	15.7690
 2.1740	15.7800
 2.1750	15.7970
 2.1760	15.8190
 2.1770	15.8400
 2.1780	15.8620
 2.1790	15.8830
 2.1800	15.9020
 2.1810	15.9220
 2.1820	15.9410
 2.1830	15.9610
 2.1840	15.9810
 2.1850	16.0010
 2.1860	16.0240
 2.1870	16.0500
 2.1880	16.0740
 2.1890	16.1010
 2.1900	16.1250
 2.1910	16.1470
 2.1920	16.1700
 2.1930	16.1910
 2.1940	16.2140
 2.1950	16.2390
 2.1960	16.2630
 2.1970	16.2870
 2.1980	16.3100
 2.1990	16.3310
 2.2000	16.3540
 2.2010	16.3770
 2.2020	16.3990
 2.2030	16.4190
 2.2040	16.4400
 2.2050	16.4610
 2.2060	16.4790
 2.2070	16.4960
 2.2080	16.5110
 2.2090	16.5280
 2.2100	16.5440
 2.2110	16.5590
 2.2120	16.5740
 2.2130	16.5870
 2.2140	16.5940
 2.2150	16.6050
 2.2160	16.6190
 2.2170	16.6270
 2.2180	16.6350
 2.2190	16.6400
 2.2200	16.6410
 2.2210	16.6430
 2.2220	16.6440
 2.2230	16.6440
 2.2240	16.6430
 2.2250	16.6400
 2.2260	16.6360
 2.2270	16.6270
 2.2280	16.6120
 2.2290	16.5970
 2.2300	16.5810
 2.2310	16.5600
 2.2320	16.5410
 2.2330	16.5180
 2.2340	16.4900
 2.2350	16.4600
 2.2360	16.4270
 2.2370	16.3910
 2.2380	16.3520
 2.2390	16.3110
 2.2400	16.2690
 2.2410	16.2230
 2.2420	16.1750
 2.2430	16.1250
 2.2440	16.0740
 2.2450	16.0180
 2.2460	15.9650
 2.2470	15.9130
 2.2480	15.8610
 2.2490	15.8100
 2.2500	15.7560
 2.2510	15.7010
 2.2520	15.6450
 2.2530	15.5870
 2.2540	15.5300
 2.2550	15.4710
 2.2560	15.4140
 2.2570	15.3590
 2.2580	15.3010
 2.2590	15.2400
 2.2600	15.1820
 2.2610	15.1240
 2.2620	15.0630
 2.2630	15.0080
 2.2640	14.9590
 2.2650	14.9090
 2.2660	14.8610
 2.2670	14.8130
 2.2680	14.7670
 2.2690	14.7200
 2.2700	14.6720
 2.2710	14.6230
 2.2720	14.5710
 2.2730	14.5240
 2.2740	14.4770
 2.2750	14.4340
 2.2760	14.3970
 2.2770	14.3580
 2.2780	14.3220
 2.2790	14.2840
 2.2800	14.2470
 2.2810	14.2110
 2.2820	14.1760
 2.2830	14.1390
 2.2840	14.1010
 2.2850	14.0640
 2.2860	14.0250
 2.2870	13.9880
 2.2880	13.9540
 2.2890	13.9190
 2.2900	13.8850
 2.2910	13.8490
 2.2920	13.8130
 2.2930	13.7770
 2.2940	13.7410
 2.2950	13.7050
 2.2960	13.6720
 2.2970	13.6350
 2.2980	13.5960
 2.2990	13.5560
 2.3000	13.5140
 2.3010	13.4770
 2.3020	13.4440
 2.3030	13.4110
 2.3040	13.3760
 2.3050	13.3400
 2.3060	13.3050
 2.3070	13.2690
 2.3080	13.2340
 2.3090	13.2080
 2.3100	13.1820
 2.3110	13.1530
 2.3120	13.1280
 2.3130	13.1050
 2.3140	13.0840
 2.3150	13.0660
 2.3160	13.0460
 2.3170	13.0260
 2.3180	13.0070
 2.3190	12.9870
 2.3200	12.9680
 2.3210	12.9530
 2.3220	12.9330
 2.3230	12.9100
 2.3240	12.8850
 2.3250	12.8570
 2.3260	12.8290
 2.3270	12.7970
 2.3280	12.7670
 2.3290	12.7370
 2.3300	12.7080
 2.3310	12.6790
 2.3320	12.6510
 2.3330	12.6250
 2.3340	12.5960
 2.3350	12.5670
 2.3360	12.5380
 2.3370	12.5060
 2.3380	12.4720
 2.3390	12.4370
 2.3400	12.4040
 2.3410	12.3700
 2.3420	12.3400
 2.3430	12.3120
 2.3440	12.2870
 2.3450	12.2660
 2.3460	12.2420
 2.3470	12.2180
 2.3480	12.1930
 2.3490	12.1640
 2.3500	12.1350
 2.3510	12.1040
 2.3520	12.0760
 2.3530	12.0510
 2.3540	12.0240
 2.3550	12.0000
 2.3560	11.9790
 2.3570	11.9520
 2.3580	11.9300
 2.3590	11.9120
 2.3600	11.8860
 2.3610	11.8670
 2.3620	11.8460
 2.3630	11.8200
 2.3640	11.8050
 2.3650	11.7800
 2.3660	11.7480
 2.3670	11.7220
 2.3680	11.6850
 2.3690	11.6550
 2.3700	11.6350
 2.3710	11.6060
 2.3720	11.5760
 2.3730	11.5500
 2.3740	11.5170
 2.3750	11.4860
 2.3760	11.4610
 2.3770	11.4290
 2.3780	11.3920
 2.3790	11.3600
 2.3800	11.3300
 2.3810	11.2950
 2.3820	11.2540
 2.3830	11.2220
 2.3840	11.1900
 2.3850	11.1530
 2.3860	11.1310
 2.3870	11.1040
 2.3880	11.0620
 2.3890	11.0280
 2.3900	10.9820
 2.3910	10.9330
 2.3920	10.8960
 2.3930	10.8490
 2.3940	10.8130
 2.3950	10.7900
 2.3960	10.7540
 2.3970	10.7270
 2.3980	10.7050
 2.3990	10.6670
 2.4000	10.6320
 2.4010	10.5870
 2.4020	10.5330
 2.4030	10.4850
 2.4040	10.4430
 2.4050	10.4020
 2.4060	10.3720
 2.4070	10.3480
 2.4080	10.3010
 2.4090	10.2530
 2.4100	10.2210
 2.4110	10.1840
 2.4120	10.1470
 2.4130	10.1220
 2.4140	10.0950
 2.4150	10.0570
 2.4160	10.0150
 2.4170	 9.9710
 2.4180	 9.9120
 2.4190	 9.8520
 2.4200	 9.8070
 2.4210	 9.7670
 2.4220	 9.7250
 2.4230	 9.6830
 2.4240	 9.6410
 2.4250	 9.6000
 2.4260	 9.5720
 2.4270	 9.5530
 2.4280	 9.5280
 2.4290	 9.4940
 2.4300	 9.4490
 2.4310	 9.4000
 2.4320	 9.3480
 2.4330	 9.3030
 2.4340	 9.2640
 2.4350	 9.2210
 2.4360	 9.1900
 2.4370	 9.1570
 2.4380	 9.1180
 2.4390	 9.0770
 2.4400	 9.0370
 2.4410	 9.0060
 2.4420	 8.9660
 2.4430	 8.9310
 2.4440	 8.8990
 2.4450	 8.8700
 2.4460	 8.8550
 2.4470	 8.8220
 2.4480	 8.7790
 2.4490	 8.7260
 2.4500	 8.6640
 2.4510	 8.6260
 2.4520	 8.5990
 2.4530	 8.5770
 2.4540	 8.5700
 2.4550	 8.5600
 2.4560	 8.5410
 2.4570	 8.5060
 2.4580	 8.4590
 2.4590	 8.4080
 2.4600	 8.3680
 2.4610	 8.3440
 2.4620	 8.3170
 2.4630	 8.2700
 2.4640	 8.2380
 2.4650	 8.2030
 2.4660	 8.1460
 2.4670	 8.1220
 2.4680	 8.0790
 2.4690	 8.0390
 2.4700	 8.0250
 2.4710	 8.0360
 2.4720	 8.0220
 2.4730	 8.0050
 2.4740	 8.0000
 2.4750	 7.9880
 2.4760	 7.9710
 2.4770	 7.9760
 2.4780	 7.9460
 2.4790	 7.8760
 2.4800	 7.8410
 2.4810	 7.8110
 2.4820	 7.8110
 2.4830	 7.8090
 2.4840	 7.7900
 2.4850	 7.7830
 2.4860	 7.7440
 2.4870	 7.7130
 2.4880	 7.7190
 2.4890	 7.6990
 2.4900	 7.6800
 2.4910	 7.6640
 2.4920	 7.6360
 2.4930	 7.6270
 2.4940	 7.6110
 2.4950	 7.5480
 2.4960	 7.4990
 2.4970	 7.4520
 2.4980	 7.4320
 2.4990	 7.5240
 2.5000	 7.5420
