Name: Ceanothus spinosus 1
Type: vegetation
Class: Shrub
Genus: Ceanothus
Species: spinosus
Sample No.: VH128
Owner: UCSB
Wavelength Range: VSWIR
Origin: 34.4906; -119.7908; WGS84
Collection Date: 6/3/2013
Description: Samples were collected as part of the HyspIRI Airborne Campaign. 48 individual plants were sampled in three times in 2013 - spring  summer  and fall. The name of the sample includes a 1  2  or 3 which references a different individual of the species. Samples were taken to JPL and processed within 48 hours of collection. The same leaves were processed in the Nicolet and then measured using the ASD.
Measurement: Bidirectional reflectance
First Column: X
Second Column: Y
X Units: Wavelength (micrometers)
Y Units: Reflectance (percentage)
First X Value: 0.35
Last X Value: 2.5
Number of X Values: 2151
Additional Information: vegetation.shrub.ceanothus.spinosus.vswir.vh128.ucsb.asd.ancillary.txt

 0.3500	 6.4430
 0.3510	 6.2670
 0.3520	 6.2390
 0.3530	 6.2550
 0.3540	 6.2100
 0.3550	 6.2840
 0.3560	 6.2960
 0.3570	 6.2530
 0.3580	 6.2430
 0.3590	 6.1640
 0.3600	 6.0660
 0.3610	 6.0250
 0.3620	 6.1350
 0.3630	 6.1450
 0.3640	 6.0480
 0.3650	 5.9240
 0.3660	 5.8850
 0.3670	 5.9230
 0.3680	 5.9880
 0.3690	 6.0080
 0.3700	 6.0340
 0.3710	 6.0280
 0.3720	 5.9920
 0.3730	 6.0130
 0.3740	 6.0700
 0.3750	 6.1110
 0.3760	 6.0820
 0.3770	 5.9410
 0.3780	 5.9030
 0.3790	 5.9440
 0.3800	 5.8540
 0.3810	 5.9010
 0.3820	 5.9530
 0.3830	 5.9080
 0.3840	 5.8740
 0.3850	 5.8110
 0.3860	 5.7910
 0.3870	 5.8790
 0.3880	 5.9030
 0.3890	 5.8570
 0.3900	 5.8090
 0.3910	 5.8750
 0.3920	 5.9370
 0.3930	 5.9400
 0.3940	 5.8810
 0.3950	 5.8460
 0.3960	 5.8220
 0.3970	 5.7920
 0.3980	 5.7510
 0.3990	 5.7910
 0.4000	 5.8560
 0.4010	 5.8810
 0.4020	 5.8070
 0.4030	 5.8000
 0.4040	 5.8340
 0.4050	 5.8470
 0.4060	 5.8300
 0.4070	 5.8260
 0.4080	 5.8480
 0.4090	 5.8820
 0.4100	 5.8660
 0.4110	 5.8490
 0.4120	 5.8640
 0.4130	 5.8930
 0.4140	 5.9100
 0.4150	 5.9240
 0.4160	 5.9510
 0.4170	 5.9660
 0.4180	 5.9800
 0.4190	 5.9990
 0.4200	 6.0230
 0.4210	 6.0480
 0.4220	 6.0680
 0.4230	 6.0840
 0.4240	 6.1140
 0.4250	 6.1400
 0.4260	 6.1580
 0.4270	 6.1720
 0.4280	 6.1810
 0.4290	 6.2020
 0.4300	 6.2310
 0.4310	 6.2360
 0.4320	 6.2480
 0.4330	 6.2690
 0.4340	 6.2900
 0.4350	 6.2920
 0.4360	 6.3060
 0.4370	 6.3320
 0.4380	 6.3400
 0.4390	 6.3410
 0.4400	 6.3470
 0.4410	 6.3610
 0.4420	 6.3750
 0.4430	 6.3830
 0.4440	 6.3930
 0.4450	 6.4170
 0.4460	 6.4310
 0.4470	 6.4310
 0.4480	 6.4310
 0.4490	 6.4650
 0.4500	 6.4880
 0.4510	 6.4910
 0.4520	 6.4820
 0.4530	 6.4900
 0.4540	 6.5070
 0.4550	 6.5230
 0.4560	 6.5280
 0.4570	 6.5370
 0.4580	 6.5520
 0.4590	 6.5640
 0.4600	 6.5590
 0.4610	 6.5620
 0.4620	 6.5680
 0.4630	 6.5660
 0.4640	 6.5670
 0.4650	 6.5780
 0.4660	 6.5910
 0.4670	 6.5890
 0.4680	 6.5840
 0.4690	 6.5820
 0.4700	 6.5850
 0.4710	 6.5850
 0.4720	 6.5810
 0.4730	 6.5770
 0.4740	 6.5780
 0.4750	 6.5810
 0.4760	 6.5830
 0.4770	 6.5830
 0.4780	 6.5860
 0.4790	 6.5860
 0.4800	 6.5870
 0.4810	 6.5930
 0.4820	 6.5960
 0.4830	 6.6050
 0.4840	 6.6180
 0.4850	 6.6240
 0.4860	 6.6300
 0.4870	 6.6360
 0.4880	 6.6470
 0.4890	 6.6680
 0.4900	 6.6860
 0.4910	 6.7050
 0.4920	 6.7310
 0.4930	 6.7570
 0.4940	 6.7730
 0.4950	 6.7870
 0.4960	 6.8260
 0.4970	 6.8650
 0.4980	 6.9000
 0.4990	 6.9360
 0.5000	 6.9760
 0.5010	 7.0210
 0.5020	 7.0700
 0.5030	 7.1220
 0.5040	 7.1810
 0.5050	 7.2510
 0.5060	 7.3320
 0.5070	 7.4080
 0.5080	 7.4920
 0.5090	 7.5890
 0.5100	 7.6970
 0.5110	 7.8090
 0.5120	 7.9290
 0.5130	 8.0610
 0.5140	 8.2030
 0.5150	 8.3550
 0.5160	 8.5170
 0.5170	 8.6890
 0.5180	 8.8790
 0.5190	 9.0720
 0.5200	 9.2640
 0.5210	 9.4680
 0.5220	 9.6730
 0.5230	 9.8780
 0.5240	10.0810
 0.5250	10.2810
 0.5260	10.4750
 0.5270	10.6620
 0.5280	10.8410
 0.5290	11.0030
 0.5300	11.1540
 0.5310	11.2980
 0.5320	11.4280
 0.5330	11.5460
 0.5340	11.6570
 0.5350	11.7580
 0.5360	11.8370
 0.5370	11.9110
 0.5380	11.9830
 0.5390	12.0450
 0.5400	12.1020
 0.5410	12.1570
 0.5420	12.2110
 0.5430	12.2630
 0.5440	12.3130
 0.5450	12.3570
 0.5460	12.3910
 0.5470	12.4230
 0.5480	12.4490
 0.5490	12.4700
 0.5500	12.4920
 0.5510	12.5050
 0.5520	12.5070
 0.5530	12.4980
 0.5540	12.4770
 0.5550	12.4410
 0.5560	12.3920
 0.5570	12.3360
 0.5580	12.2650
 0.5590	12.1830
 0.5600	12.0930
 0.5610	11.9950
 0.5620	11.8920
 0.5630	11.7840
 0.5640	11.6690
 0.5650	11.5480
 0.5660	11.4230
 0.5670	11.2940
 0.5680	11.1640
 0.5690	11.0270
 0.5700	10.8890
 0.5710	10.7550
 0.5720	10.6250
 0.5730	10.5010
 0.5740	10.3880
 0.5750	10.2910
 0.5760	10.2010
 0.5770	10.1170
 0.5780	10.0410
 0.5790	 9.9680
 0.5800	 9.8920
 0.5810	 9.8190
 0.5820	 9.7560
 0.5830	 9.6980
 0.5840	 9.6400
 0.5850	 9.5790
 0.5860	 9.5160
 0.5870	 9.4520
 0.5880	 9.3980
 0.5890	 9.3590
 0.5900	 9.3240
 0.5910	 9.2990
 0.5920	 9.2810
 0.5930	 9.2580
 0.5940	 9.2370
 0.5950	 9.2160
 0.5960	 9.1920
 0.5970	 9.1680
 0.5980	 9.1430
 0.5990	 9.1180
 0.6000	 9.0940
 0.6010	 9.0640
 0.6020	 9.0310
 0.6030	 8.9980
 0.6040	 8.9610
 0.6050	 8.9220
 0.6060	 8.8790
 0.6070	 8.8320
 0.6080	 8.7800
 0.6090	 8.7260
 0.6100	 8.6710
 0.6110	 8.6160
 0.6120	 8.5630
 0.6130	 8.5080
 0.6140	 8.4490
 0.6150	 8.3960
 0.6160	 8.3500
 0.6170	 8.3050
 0.6180	 8.2580
 0.6190	 8.2180
 0.6200	 8.1830
 0.6210	 8.1520
 0.6220	 8.1270
 0.6230	 8.1040
 0.6240	 8.0840
 0.6250	 8.0680
 0.6260	 8.0550
 0.6270	 8.0420
 0.6280	 8.0310
 0.6290	 8.0280
 0.6300	 8.0220
 0.6310	 8.0110
 0.6320	 7.9980
 0.6330	 7.9840
 0.6340	 7.9710
 0.6350	 7.9510
 0.6360	 7.9200
 0.6370	 7.8840
 0.6380	 7.8440
 0.6390	 7.8000
 0.6400	 7.7510
 0.6410	 7.6970
 0.6420	 7.6420
 0.6430	 7.5890
 0.6440	 7.5350
 0.6450	 7.4810
 0.6460	 7.4280
 0.6470	 7.3770
 0.6480	 7.3330
 0.6490	 7.2940
 0.6500	 7.2600
 0.6510	 7.2300
 0.6520	 7.2050
 0.6530	 7.1800
 0.6540	 7.1540
 0.6550	 7.1310
 0.6560	 7.1040
 0.6570	 7.0730
 0.6580	 7.0390
 0.6590	 7.0050
 0.6600	 6.9720
 0.6610	 6.9380
 0.6620	 6.9030
 0.6630	 6.8710
 0.6640	 6.8430
 0.6650	 6.8190
 0.6660	 6.8000
 0.6670	 6.7850
 0.6680	 6.7740
 0.6690	 6.7680
 0.6700	 6.7690
 0.6710	 6.7730
 0.6720	 6.7790
 0.6730	 6.7920
 0.6740	 6.8070
 0.6750	 6.8260
 0.6760	 6.8490
 0.6770	 6.8780
 0.6780	 6.9090
 0.6790	 6.9440
 0.6800	 6.9820
 0.6810	 7.0280
 0.6820	 7.0790
 0.6830	 7.1340
 0.6840	 7.1980
 0.6850	 7.2720
 0.6860	 7.3560
 0.6870	 7.4530
 0.6880	 7.5750
 0.6890	 7.7200
 0.6900	 7.8940
 0.6910	 8.1070
 0.6920	 8.3640
 0.6930	 8.6730
 0.6940	 9.0400
 0.6950	 9.4690
 0.6960	 9.9600
 0.6970	10.5170
 0.6980	11.1430
 0.6990	11.8290
 0.7000	12.5720
 0.7010	13.3670
 0.7020	14.2100
 0.7030	15.0930
 0.7040	16.0100
 0.7050	16.9540
 0.7060	17.9170
 0.7070	18.9000
 0.7080	19.8990
 0.7090	20.9080
 0.7100	21.9270
 0.7110	22.9540
 0.7120	23.9850
 0.7130	25.0190
 0.7140	26.0550
 0.7150	27.0930
 0.7160	28.1270
 0.7170	29.1530
 0.7180	30.1720
 0.7190	31.1820
 0.7200	32.1790
 0.7210	33.1610
 0.7220	34.1290
 0.7230	35.0810
 0.7240	36.0030
 0.7250	36.9020
 0.7260	37.7770
 0.7270	38.6220
 0.7280	39.4340
 0.7290	40.2180
 0.7300	40.9700
 0.7310	41.6870
 0.7320	42.3750
 0.7330	43.0320
 0.7340	43.6580
 0.7350	44.2470
 0.7360	44.8050
 0.7370	45.3340
 0.7380	45.8370
 0.7390	46.3080
 0.7400	46.7500
 0.7410	47.1660
 0.7420	47.5560
 0.7430	47.9160
 0.7440	48.2500
 0.7450	48.5600
 0.7460	48.8510
 0.7470	49.1190
 0.7480	49.3670
 0.7490	49.5950
 0.7500	49.8030
 0.7510	49.9910
 0.7520	50.1630
 0.7530	50.3240
 0.7540	50.4700
 0.7550	50.6010
 0.7560	50.7190
 0.7570	50.8310
 0.7580	50.9350
 0.7590	51.0280
 0.7600	51.1120
 0.7610	51.1920
 0.7620	51.2610
 0.7630	51.3230
 0.7640	51.3810
 0.7650	51.4350
 0.7660	51.4800
 0.7670	51.5220
 0.7680	51.5650
 0.7690	51.6010
 0.7700	51.6350
 0.7710	51.6700
 0.7720	51.7010
 0.7730	51.7310
 0.7740	51.7570
 0.7750	51.7780
 0.7760	51.8100
 0.7770	51.8350
 0.7780	51.8540
 0.7790	51.8760
 0.7800	51.8980
 0.7810	51.9230
 0.7820	51.9500
 0.7830	51.9700
 0.7840	51.9910
 0.7850	52.0120
 0.7860	52.0330
 0.7870	52.0510
 0.7880	52.0670
 0.7890	52.0840
 0.7900	52.1030
 0.7910	52.1230
 0.7920	52.1380
 0.7930	52.1500
 0.7940	52.1650
 0.7950	52.1780
 0.7960	52.1910
 0.7970	52.2030
 0.7980	52.2150
 0.7990	52.2250
 0.8000	52.2330
 0.8010	52.2400
 0.8020	52.2460
 0.8030	52.2510
 0.8040	52.2600
 0.8050	52.2730
 0.8060	52.2750
 0.8070	52.2750
 0.8080	52.2770
 0.8090	52.2810
 0.8100	52.2820
 0.8110	52.2820
 0.8120	52.2810
 0.8130	52.2820
 0.8140	52.2810
 0.8150	52.2810
 0.8160	52.2800
 0.8170	52.2740
 0.8180	52.2660
 0.8190	52.2600
 0.8200	52.2580
 0.8210	52.2560
 0.8220	52.2500
 0.8230	52.2430
 0.8240	52.2400
 0.8250	52.2360
 0.8260	52.2290
 0.8270	52.2210
 0.8280	52.2130
 0.8290	52.2070
 0.8300	52.1990
 0.8310	52.1880
 0.8320	52.1820
 0.8330	52.1720
 0.8340	52.1620
 0.8350	52.1570
 0.8360	52.1520
 0.8370	52.1510
 0.8380	52.1500
 0.8390	52.1410
 0.8400	52.1370
 0.8410	52.1340
 0.8420	52.1330
 0.8430	52.1330
 0.8440	52.1340
 0.8450	52.1360
 0.8460	52.1390
 0.8470	52.1360
 0.8480	52.1370
 0.8490	52.1400
 0.8500	52.1400
 0.8510	52.1420
 0.8520	52.1450
 0.8530	52.1490
 0.8540	52.1560
 0.8550	52.1560
 0.8560	52.1550
 0.8570	52.1550
 0.8580	52.1610
 0.8590	52.1670
 0.8600	52.1730
 0.8610	52.1770
 0.8620	52.1790
 0.8630	52.1870
 0.8640	52.1910
 0.8650	52.1870
 0.8660	52.1970
 0.8670	52.2070
 0.8680	52.2150
 0.8690	52.2200
 0.8700	52.2290
 0.8710	52.2350
 0.8720	52.2390
 0.8730	52.2450
 0.8740	52.2580
 0.8750	52.2680
 0.8760	52.2740
 0.8770	52.2820
 0.8780	52.2900
 0.8790	52.2970
 0.8800	52.3050
 0.8810	52.3120
 0.8820	52.3210
 0.8830	52.3320
 0.8840	52.3420
 0.8850	52.3450
 0.8860	52.3510
 0.8870	52.3610
 0.8880	52.3720
 0.8890	52.3810
 0.8900	52.3860
 0.8910	52.3890
 0.8920	52.3930
 0.8930	52.3990
 0.8940	52.4050
 0.8950	52.4100
 0.8960	52.4210
 0.8970	52.4310
 0.8980	52.4370
 0.8990	52.4400
 0.9000	52.4480
 0.9010	52.4670
 0.9020	52.4720
 0.9030	52.4640
 0.9040	52.4730
 0.9050	52.4770
 0.9060	52.4810
 0.9070	52.4900
 0.9080	52.4910
 0.9090	52.4930
 0.9100	52.5010
 0.9110	52.5130
 0.9120	52.5220
 0.9130	52.5270
 0.9140	52.5310
 0.9150	52.5370
 0.9160	52.5380
 0.9170	52.5400
 0.9180	52.5430
 0.9190	52.5480
 0.9200	52.5440
 0.9210	52.5470
 0.9220	52.5530
 0.9230	52.5470
 0.9240	52.5370
 0.9250	52.5230
 0.9260	52.5120
 0.9270	52.5070
 0.9280	52.4900
 0.9290	52.4790
 0.9300	52.4710
 0.9310	52.4510
 0.9320	52.4340
 0.9330	52.4170
 0.9340	52.3960
 0.9350	52.3670
 0.9360	52.3440
 0.9370	52.3230
 0.9380	52.3010
 0.9390	52.2800
 0.9400	52.2540
 0.9410	52.2240
 0.9420	52.1890
 0.9430	52.1380
 0.9440	52.1060
 0.9450	52.0720
 0.9460	52.0190
 0.9470	51.9760
 0.9480	51.9300
 0.9490	51.8740
 0.9500	51.8070
 0.9510	51.7440
 0.9520	51.6900
 0.9530	51.6270
 0.9540	51.5430
 0.9550	51.4580
 0.9560	51.3770
 0.9570	51.3040
 0.9580	51.2380
 0.9590	51.1710
 0.9600	51.1060
 0.9610	51.0460
 0.9620	50.9960
 0.9630	50.9480
 0.9640	50.9020
 0.9650	50.8610
 0.9660	50.8290
 0.9670	50.8010
 0.9680	50.7780
 0.9690	50.7570
 0.9700	50.7320
 0.9710	50.7040
 0.9720	50.6770
 0.9730	50.6530
 0.9740	50.6330
 0.9750	50.6230
 0.9760	50.6250
 0.9770	50.6330
 0.9780	50.6350
 0.9790	50.6050
 0.9800	50.5810
 0.9810	50.5750
 0.9820	50.5850
 0.9830	50.6070
 0.9840	50.6170
 0.9850	50.6230
 0.9860	50.6400
 0.9870	50.6580
 0.9880	50.6770
 0.9890	50.6870
 0.9900	50.6840
 0.9910	50.6990
 0.9920	50.7570
 0.9930	50.8150
 0.9940	50.8720
 0.9950	50.9300
 0.9960	50.9880
 0.9970	51.0460
 0.9980	51.1030
 0.9990	51.1610
 1.0000	51.2190
 1.0010	51.2760
 1.0020	51.3340
 1.0030	51.3920
 1.0040	51.4500
 1.0050	51.5070
 1.0060	51.5650
 1.0070	51.6230
 1.0080	51.6800
 1.0090	51.7380
 1.0100	51.7380
 1.0110	51.7650
 1.0120	51.7910
 1.0130	51.8100
 1.0140	51.8360
 1.0150	51.8680
 1.0160	51.8930
 1.0170	51.9170
 1.0180	51.9460
 1.0190	51.9730
 1.0200	52.0000
 1.0210	52.0280
 1.0220	52.0500
 1.0230	52.0720
 1.0240	52.0880
 1.0250	52.1110
 1.0260	52.1390
 1.0270	52.1620
 1.0280	52.1870
 1.0290	52.2080
 1.0300	52.2180
 1.0310	52.2380
 1.0320	52.2640
 1.0330	52.2890
 1.0340	52.3060
 1.0350	52.3290
 1.0360	52.3460
 1.0370	52.3570
 1.0380	52.3740
 1.0390	52.3970
 1.0400	52.4160
 1.0410	52.4350
 1.0420	52.4510
 1.0430	52.4650
 1.0440	52.4820
 1.0450	52.5000
 1.0460	52.5130
 1.0470	52.5220
 1.0480	52.5350
 1.0490	52.5450
 1.0500	52.5560
 1.0510	52.5690
 1.0520	52.5840
 1.0530	52.5970
 1.0540	52.6080
 1.0550	52.6190
 1.0560	52.6330
 1.0570	52.6430
 1.0580	52.6490
 1.0590	52.6590
 1.0600	52.6710
 1.0610	52.6800
 1.0620	52.6920
 1.0630	52.6990
 1.0640	52.7000
 1.0650	52.7030
 1.0660	52.7060
 1.0670	52.7090
 1.0680	52.7130
 1.0690	52.7170
 1.0700	52.7220
 1.0710	52.7250
 1.0720	52.7300
 1.0730	52.7390
 1.0740	52.7430
 1.0750	52.7460
 1.0760	52.7460
 1.0770	52.7420
 1.0780	52.7390
 1.0790	52.7330
 1.0800	52.7300
 1.0810	52.7240
 1.0820	52.7220
 1.0830	52.7270
 1.0840	52.7250
 1.0850	52.7180
 1.0860	52.7150
 1.0870	52.7080
 1.0880	52.6930
 1.0890	52.6870
 1.0900	52.6870
 1.0910	52.6810
 1.0920	52.6770
 1.0930	52.6700
 1.0940	52.6580
 1.0950	52.6470
 1.0960	52.6370
 1.0970	52.6260
 1.0980	52.6160
 1.0990	52.6050
 1.1000	52.5930
 1.1010	52.5810
 1.1020	52.5690
 1.1030	52.5540
 1.1040	52.5390
 1.1050	52.5230
 1.1060	52.5070
 1.1070	52.4900
 1.1080	52.4740
 1.1090	52.4620
 1.1100	52.4430
 1.1110	52.4210
 1.1120	52.3980
 1.1130	52.3680
 1.1140	52.3420
 1.1150	52.3180
 1.1160	52.2880
 1.1170	52.2560
 1.1180	52.2230
 1.1190	52.1870
 1.1200	52.1450
 1.1210	52.1090
 1.1220	52.0670
 1.1230	52.0180
 1.1240	51.9690
 1.1250	51.9130
 1.1260	51.8520
 1.1270	51.7840
 1.1280	51.7100
 1.1290	51.6300
 1.1300	51.5440
 1.1310	51.4510
 1.1320	51.3530
 1.1330	51.2480
 1.1340	51.1380
 1.1350	51.0190
 1.1360	50.8950
 1.1370	50.7610
 1.1380	50.6200
 1.1390	50.4750
 1.1400	50.3220
 1.1410	50.1660
 1.1420	50.0080
 1.1430	49.8460
 1.1440	49.6830
 1.1450	49.5170
 1.1460	49.3550
 1.1470	49.1910
 1.1480	49.0340
 1.1490	48.8780
 1.1500	48.7330
 1.1510	48.5900
 1.1520	48.4590
 1.1530	48.3380
 1.1540	48.2240
 1.1550	48.1170
 1.1560	48.0210
 1.1570	47.9290
 1.1580	47.8470
 1.1590	47.7750
 1.1600	47.7080
 1.1610	47.6520
 1.1620	47.6050
 1.1630	47.5640
 1.1640	47.5280
 1.1650	47.4970
 1.1660	47.4740
 1.1670	47.4530
 1.1680	47.4370
 1.1690	47.4230
 1.1700	47.4130
 1.1710	47.4030
 1.1720	47.3940
 1.1730	47.3840
 1.1740	47.3760
 1.1750	47.3660
 1.1760	47.3560
 1.1770	47.3440
 1.1780	47.3290
 1.1790	47.3170
 1.1800	47.3060
 1.1810	47.2940
 1.1820	47.2810
 1.1830	47.2680
 1.1840	47.2550
 1.1850	47.2420
 1.1860	47.2290
 1.1870	47.2170
 1.1880	47.2070
 1.1890	47.1960
 1.1900	47.1880
 1.1910	47.1840
 1.1920	47.1810
 1.1930	47.1790
 1.1940	47.1790
 1.1950	47.1810
 1.1960	47.1840
 1.1970	47.1860
 1.1980	47.1900
 1.1990	47.1970
 1.2000	47.2050
 1.2010	47.2150
 1.2020	47.2310
 1.2030	47.2460
 1.2040	47.2610
 1.2050	47.2760
 1.2060	47.2900
 1.2070	47.3060
 1.2080	47.3220
 1.2090	47.3440
 1.2100	47.3690
 1.2110	47.3930
 1.2120	47.4210
 1.2130	47.4470
 1.2140	47.4740
 1.2150	47.5010
 1.2160	47.5290
 1.2170	47.5570
 1.2180	47.5880
 1.2190	47.6200
 1.2200	47.6510
 1.2210	47.6800
 1.2220	47.7080
 1.2230	47.7350
 1.2240	47.7620
 1.2250	47.7920
 1.2260	47.8200
 1.2270	47.8450
 1.2280	47.8710
 1.2290	47.8990
 1.2300	47.9250
 1.2310	47.9520
 1.2320	47.9740
 1.2330	47.9950
 1.2340	48.0160
 1.2350	48.0370
 1.2360	48.0570
 1.2370	48.0780
 1.2380	48.1010
 1.2390	48.1200
 1.2400	48.1390
 1.2410	48.1590
 1.2420	48.1770
 1.2430	48.1920
 1.2440	48.2090
 1.2450	48.2280
 1.2460	48.2430
 1.2470	48.2570
 1.2480	48.2720
 1.2490	48.2830
 1.2500	48.2930
 1.2510	48.3050
 1.2520	48.3150
 1.2530	48.3250
 1.2540	48.3330
 1.2550	48.3380
 1.2560	48.3450
 1.2570	48.3510
 1.2580	48.3560
 1.2590	48.3600
 1.2600	48.3640
 1.2610	48.3650
 1.2620	48.3650
 1.2630	48.3650
 1.2640	48.3630
 1.2650	48.3610
 1.2660	48.3590
 1.2670	48.3540
 1.2680	48.3490
 1.2690	48.3470
 1.2700	48.3400
 1.2710	48.3340
 1.2720	48.3270
 1.2730	48.3140
 1.2740	48.3010
 1.2750	48.2880
 1.2760	48.2720
 1.2770	48.2560
 1.2780	48.2390
 1.2790	48.2190
 1.2800	48.2000
 1.2810	48.1810
 1.2820	48.1580
 1.2830	48.1360
 1.2840	48.1150
 1.2850	48.0890
 1.2860	48.0610
 1.2870	48.0310
 1.2880	47.9980
 1.2890	47.9620
 1.2900	47.9240
 1.2910	47.8870
 1.2920	47.8490
 1.2930	47.8070
 1.2940	47.7630
 1.2950	47.7170
 1.2960	47.6680
 1.2970	47.6150
 1.2980	47.5600
 1.2990	47.5010
 1.3000	47.4400
 1.3010	47.3770
 1.3020	47.3120
 1.3030	47.2430
 1.3040	47.1710
 1.3050	47.0980
 1.3060	47.0200
 1.3070	46.9380
 1.3080	46.8550
 1.3090	46.7670
 1.3100	46.6740
 1.3110	46.5830
 1.3120	46.4840
 1.3130	46.3800
 1.3140	46.2740
 1.3150	46.1640
 1.3160	46.0510
 1.3170	45.9350
 1.3180	45.8170
 1.3190	45.6940
 1.3200	45.5680
 1.3210	45.4380
 1.3220	45.3030
 1.3230	45.1680
 1.3240	45.0240
 1.3250	44.8790
 1.3260	44.7320
 1.3270	44.5800
 1.3280	44.4290
 1.3290	44.2730
 1.3300	44.1130
 1.3310	43.9500
 1.3320	43.7840
 1.3330	43.6190
 1.3340	43.4500
 1.3350	43.2810
 1.3360	43.1120
 1.3370	42.9390
 1.3380	42.7680
 1.3390	42.5970
 1.3400	42.4260
 1.3410	42.2580
 1.3420	42.0900
 1.3430	41.9230
 1.3440	41.7570
 1.3450	41.5920
 1.3460	41.4250
 1.3470	41.2610
 1.3480	41.0990
 1.3490	40.9390
 1.3500	40.7810
 1.3510	40.6240
 1.3520	40.4660
 1.3530	40.3100
 1.3540	40.1540
 1.3550	40.0000
 1.3560	39.8460
 1.3570	39.6910
 1.3580	39.5360
 1.3590	39.3790
 1.3600	39.2200
 1.3610	39.0570
 1.3620	38.8890
 1.3630	38.7190
 1.3640	38.5450
 1.3650	38.3640
 1.3660	38.1770
 1.3670	37.9800
 1.3680	37.7710
 1.3690	37.5520
 1.3700	37.3180
 1.3710	37.0730
 1.3720	36.8160
 1.3730	36.5400
 1.3740	36.2480
 1.3750	35.9360
 1.3760	35.6020
 1.3770	35.2480
 1.3780	34.8670
 1.3790	34.4640
 1.3800	34.0410
 1.3810	33.5920
 1.3820	33.1260
 1.3830	32.6410
 1.3840	32.1380
 1.3850	31.6140
 1.3860	31.0770
 1.3870	30.5190
 1.3880	29.9570
 1.3890	29.3820
 1.3900	28.7980
 1.3910	28.2130
 1.3920	27.6230
 1.3930	27.0290
 1.3940	26.4380
 1.3950	25.8450
 1.3960	25.2600
 1.3970	24.6860
 1.3980	24.1230
 1.3990	23.5800
 1.4000	23.0510
 1.4010	22.5360
 1.4020	22.0410
 1.4030	21.5620
 1.4040	21.1050
 1.4050	20.6710
 1.4060	20.2580
 1.4070	19.8700
 1.4080	19.5030
 1.4090	19.1570
 1.4100	18.8340
 1.4110	18.5300
 1.4120	18.2470
 1.4130	17.9840
 1.4140	17.7390
 1.4150	17.5160
 1.4160	17.3100
 1.4170	17.1180
 1.4180	16.9440
 1.4190	16.7830
 1.4200	16.6370
 1.4210	16.5040
 1.4220	16.3840
 1.4230	16.2750
 1.4240	16.1780
 1.4250	16.0880
 1.4260	16.0090
 1.4270	15.9370
 1.4280	15.8750
 1.4290	15.8200
 1.4300	15.7730
 1.4310	15.7320
 1.4320	15.6990
 1.4330	15.6700
 1.4340	15.6470
 1.4350	15.6280
 1.4360	15.6150
 1.4370	15.6050
 1.4380	15.5990
 1.4390	15.5980
 1.4400	15.5990
 1.4410	15.6040
 1.4420	15.6110
 1.4430	15.6220
 1.4440	15.6340
 1.4450	15.6490
 1.4460	15.6650
 1.4470	15.6830
 1.4480	15.7020
 1.4490	15.7240
 1.4500	15.7460
 1.4510	15.7700
 1.4520	15.7940
 1.4530	15.8180
 1.4540	15.8440
 1.4550	15.8710
 1.4560	15.9010
 1.4570	15.9340
 1.4580	15.9680
 1.4590	16.0040
 1.4600	16.0430
 1.4610	16.0850
 1.4620	16.1300
 1.4630	16.1790
 1.4640	16.2320
 1.4650	16.2900
 1.4660	16.3530
 1.4670	16.4180
 1.4680	16.4880
 1.4690	16.5630
 1.4700	16.6410
 1.4710	16.7250
 1.4720	16.8120
 1.4730	16.9010
 1.4740	16.9940
 1.4750	17.0890
 1.4760	17.1890
 1.4770	17.2920
 1.4780	17.3980
 1.4790	17.5060
 1.4800	17.6140
 1.4810	17.7230
 1.4820	17.8350
 1.4830	17.9460
 1.4840	18.0600
 1.4850	18.1750
 1.4860	18.2890
 1.4870	18.4060
 1.4880	18.5210
 1.4890	18.6360
 1.4900	18.7530
 1.4910	18.8690
 1.4920	18.9870
 1.4930	19.1060
 1.4940	19.2240
 1.4950	19.3410
 1.4960	19.4590
 1.4970	19.5760
 1.4980	19.6940
 1.4990	19.8120
 1.5000	19.9290
 1.5010	20.0460
 1.5020	20.1620
 1.5030	20.2780
 1.5040	20.3930
 1.5050	20.5060
 1.5060	20.6200
 1.5070	20.7350
 1.5080	20.8490
 1.5090	20.9630
 1.5100	21.0770
 1.5110	21.1880
 1.5120	21.2990
 1.5130	21.4090
 1.5140	21.5190
 1.5150	21.6290
 1.5160	21.7390
 1.5170	21.8480
 1.5180	21.9560
 1.5190	22.0630
 1.5200	22.1690
 1.5210	22.2730
 1.5220	22.3760
 1.5230	22.4800
 1.5240	22.5830
 1.5250	22.6870
 1.5260	22.7890
 1.5270	22.8890
 1.5280	22.9880
 1.5290	23.0840
 1.5300	23.1800
 1.5310	23.2760
 1.5320	23.3720
 1.5330	23.4670
 1.5340	23.5600
 1.5350	23.6530
 1.5360	23.7440
 1.5370	23.8320
 1.5380	23.9230
 1.5390	24.0120
 1.5400	24.0990
 1.5410	24.1900
 1.5420	24.2780
 1.5430	24.3650
 1.5440	24.4520
 1.5450	24.5350
 1.5460	24.6180
 1.5470	24.7000
 1.5480	24.7820
 1.5490	24.8640
 1.5500	24.9440
 1.5510	25.0230
 1.5520	25.1020
 1.5530	25.1790
 1.5540	25.2560
 1.5550	25.3330
 1.5560	25.4100
 1.5570	25.4870
 1.5580	25.5630
 1.5590	25.6380
 1.5600	25.7130
 1.5610	25.7850
 1.5620	25.8540
 1.5630	25.9250
 1.5640	25.9930
 1.5650	26.0620
 1.5660	26.1310
 1.5670	26.1970
 1.5680	26.2630
 1.5690	26.3280
 1.5700	26.3930
 1.5710	26.4590
 1.5720	26.5240
 1.5730	26.5900
 1.5740	26.6560
 1.5750	26.7200
 1.5760	26.7860
 1.5770	26.8490
 1.5780	26.9120
 1.5790	26.9750
 1.5800	27.0360
 1.5810	27.0980
 1.5820	27.1620
 1.5830	27.2220
 1.5840	27.2840
 1.5850	27.3440
 1.5860	27.4030
 1.5870	27.4640
 1.5880	27.5240
 1.5890	27.5840
 1.5900	27.6430
 1.5910	27.7010
 1.5920	27.7600
 1.5930	27.8170
 1.5940	27.8750
 1.5950	27.9330
 1.5960	27.9870
 1.5970	28.0420
 1.5980	28.0970
 1.5990	28.1500
 1.6000	28.2040
 1.6010	28.2580
 1.6020	28.3100
 1.6030	28.3620
 1.6040	28.4140
 1.6050	28.4640
 1.6060	28.5140
 1.6070	28.5640
 1.6080	28.6130
 1.6090	28.6610
 1.6100	28.7090
 1.6110	28.7570
 1.6120	28.8030
 1.6130	28.8500
 1.6140	28.8950
 1.6150	28.9390
 1.6160	28.9820
 1.6170	29.0270
 1.6180	29.0690
 1.6190	29.1110
 1.6200	29.1510
 1.6210	29.1890
 1.6220	29.2280
 1.6230	29.2660
 1.6240	29.3040
 1.6250	29.3420
 1.6260	29.3780
 1.6270	29.4140
 1.6280	29.4480
 1.6290	29.4830
 1.6300	29.5180
 1.6310	29.5510
 1.6320	29.5830
 1.6330	29.6120
 1.6340	29.6370
 1.6350	29.6620
 1.6360	29.6860
 1.6370	29.7060
 1.6380	29.7250
 1.6390	29.7430
 1.6400	29.7580
 1.6410	29.7700
 1.6420	29.7810
 1.6430	29.7890
 1.6440	29.7940
 1.6450	29.7960
 1.6460	29.7950
 1.6470	29.7920
 1.6480	29.7850
 1.6490	29.7760
 1.6500	29.7640
 1.6510	29.7490
 1.6520	29.7340
 1.6530	29.7180
 1.6540	29.7020
 1.6550	29.6840
 1.6560	29.6660
 1.6570	29.6470
 1.6580	29.6270
 1.6590	29.6070
 1.6600	29.5880
 1.6610	29.5710
 1.6620	29.5560
 1.6630	29.5430
 1.6640	29.5320
 1.6650	29.5240
 1.6660	29.5170
 1.6670	29.5150
 1.6680	29.5150
 1.6690	29.5140
 1.6700	29.5140
 1.6710	29.5130
 1.6720	29.5120
 1.6730	29.5140
 1.6740	29.5150
 1.6750	29.5150
 1.6760	29.5160
 1.6770	29.5130
 1.6780	29.5090
 1.6790	29.5040
 1.6800	29.4970
 1.6810	29.4900
 1.6820	29.4790
 1.6830	29.4670
 1.6840	29.4520
 1.6850	29.4330
 1.6860	29.4130
 1.6870	29.3910
 1.6880	29.3660
 1.6890	29.3400
 1.6900	29.3120
 1.6910	29.2810
 1.6920	29.2510
 1.6930	29.2210
 1.6940	29.1900
 1.6950	29.1610
 1.6960	29.1290
 1.6970	29.0940
 1.6980	29.0590
 1.6990	29.0230
 1.7000	28.9860
 1.7010	28.9490
 1.7020	28.9110
 1.7030	28.8720
 1.7040	28.8310
 1.7050	28.7890
 1.7060	28.7460
 1.7070	28.7040
 1.7080	28.6600
 1.7090	28.6150
 1.7100	28.5710
 1.7110	28.5260
 1.7120	28.4790
 1.7130	28.4320
 1.7140	28.3810
 1.7150	28.3290
 1.7160	28.2790
 1.7170	28.2280
 1.7180	28.1770
 1.7190	28.1250
 1.7200	28.0730
 1.7210	28.0210
 1.7220	27.9660
 1.7230	27.9120
 1.7240	27.8590
 1.7250	27.8050
 1.7260	27.7510
 1.7270	27.6990
 1.7280	27.6470
 1.7290	27.5940
 1.7300	27.5440
 1.7310	27.4950
 1.7320	27.4470
 1.7330	27.3990
 1.7340	27.3530
 1.7350	27.3080
 1.7360	27.2640
 1.7370	27.2190
 1.7380	27.1760
 1.7390	27.1310
 1.7400	27.0840
 1.7410	27.0370
 1.7420	26.9890
 1.7430	26.9420
 1.7440	26.8950
 1.7450	26.8470
 1.7460	26.8010
 1.7470	26.7520
 1.7480	26.7020
 1.7490	26.6540
 1.7500	26.6080
 1.7510	26.5620
 1.7520	26.5190
 1.7530	26.4730
 1.7540	26.4260
 1.7550	26.3770
 1.7560	26.3300
 1.7570	26.2850
 1.7580	26.2390
 1.7590	26.1960
 1.7600	26.1530
 1.7610	26.1090
 1.7620	26.0660
 1.7630	26.0230
 1.7640	25.9820
 1.7650	25.9420
 1.7660	25.9010
 1.7670	25.8620
 1.7680	25.8240
 1.7690	25.7850
 1.7700	25.7470
 1.7710	25.7120
 1.7720	25.6750
 1.7730	25.6360
 1.7740	25.6010
 1.7750	25.5680
 1.7760	25.5360
 1.7770	25.5050
 1.7780	25.4740
 1.7790	25.4390
 1.7800	25.4100
 1.7810	25.3850
 1.7820	25.3590
 1.7830	25.3370
 1.7840	25.3140
 1.7850	25.2890
 1.7860	25.2700
 1.7870	25.2520
 1.7880	25.2380
 1.7890	25.2270
 1.7900	25.2150
 1.7910	25.2040
 1.7920	25.1920
 1.7930	25.1830
 1.7940	25.1770
 1.7950	25.1710
 1.7960	25.1660
 1.7970	25.1620
 1.7980	25.1560
 1.7990	25.1530
 1.8000	25.1550
 1.8010	25.1550
 1.8020	25.1580
 1.8030	25.1600
 1.8040	25.1600
 1.8050	25.1620
 1.8060	25.1650
 1.8070	25.1670
 1.8080	25.1700
 1.8090	25.1720
 1.8100	25.1710
 1.8110	25.1700
 1.8120	25.1700
 1.8130	25.1700
 1.8140	25.1690
 1.8150	25.1670
 1.8160	25.1630
 1.8170	25.1600
 1.8180	25.1600
 1.8190	25.1630
 1.8200	25.1620
 1.8210	25.1590
 1.8220	25.1540
 1.8230	25.1460
 1.8240	25.1380
 1.8250	25.1280
 1.8260	25.1180
 1.8270	25.0740
 1.8280	25.0300
 1.8290	24.9850
 1.8300	24.9410
 1.8310	24.8970
 1.8320	24.8530
 1.8330	24.8090
 1.8340	24.7650
 1.8350	24.7650
 1.8360	24.7300
 1.8370	24.6940
 1.8380	24.6510
 1.8390	24.6040
 1.8400	24.5530
 1.8410	24.4990
 1.8420	24.4410
 1.8430	24.3750
 1.8440	24.3080
 1.8450	24.2330
 1.8460	24.1470
 1.8470	24.0570
 1.8480	23.9580
 1.8490	23.8460
 1.8500	23.7270
 1.8510	23.6020
 1.8520	23.4680
 1.8530	23.3170
 1.8540	23.1610
 1.8550	22.9960
 1.8560	22.8160
 1.8570	22.6250
 1.8580	22.4190
 1.8590	22.2020
 1.8600	21.9720
 1.8610	21.7290
 1.8620	21.4720
 1.8630	21.2020
 1.8640	20.9130
 1.8650	20.6060
 1.8660	20.2860
 1.8670	19.9450
 1.8680	19.5870
 1.8690	19.2150
 1.8700	18.8250
 1.8710	18.4170
 1.8720	18.0010
 1.8730	17.5740
 1.8740	17.1330
 1.8750	16.6890
 1.8760	16.2340
 1.8770	15.7750
 1.8780	15.3140
 1.8790	14.8510
 1.8800	14.3940
 1.8810	13.9380
 1.8820	13.4840
 1.8830	13.0310
 1.8840	12.5820
 1.8850	12.1360
 1.8860	11.6990
 1.8870	11.2770
 1.8880	10.8640
 1.8890	10.4670
 1.8900	10.0890
 1.8910	 9.7290
 1.8920	 9.3830
 1.8930	 9.0610
 1.8940	 8.7570
 1.8950	 8.4710
 1.8960	 8.2060
 1.8970	 7.9600
 1.8980	 7.7360
 1.8990	 7.5320
 1.9000	 7.3430
 1.9010	 7.1760
 1.9020	 7.0200
 1.9030	 6.8800
 1.9040	 6.7530
 1.9050	 6.6380
 1.9060	 6.5370
 1.9070	 6.4490
 1.9080	 6.3730
 1.9090	 6.3070
 1.9100	 6.2470
 1.9110	 6.1930
 1.9120	 6.1490
 1.9130	 6.1070
 1.9140	 6.0700
 1.9150	 6.0410
 1.9160	 6.0170
 1.9170	 5.9940
 1.9180	 5.9760
 1.9190	 5.9620
 1.9200	 5.9510
 1.9210	 5.9440
 1.9220	 5.9380
 1.9230	 5.9350
 1.9240	 5.9330
 1.9250	 5.9310
 1.9260	 5.9320
 1.9270	 5.9370
 1.9280	 5.9450
 1.9290	 5.9560
 1.9300	 5.9660
 1.9310	 5.9770
 1.9320	 5.9910
 1.9330	 6.0060
 1.9340	 6.0230
 1.9350	 6.0400
 1.9360	 6.0570
 1.9370	 6.0750
 1.9380	 6.0940
 1.9390	 6.1130
 1.9400	 6.1350
 1.9410	 6.1600
 1.9420	 6.1850
 1.9430	 6.2130
 1.9440	 6.2400
 1.9450	 6.2690
 1.9460	 6.2980
 1.9470	 6.3250
 1.9480	 6.3540
 1.9490	 6.3850
 1.9500	 6.4170
 1.9510	 6.4480
 1.9520	 6.4790
 1.9530	 6.5140
 1.9540	 6.5480
 1.9550	 6.5840
 1.9560	 6.6260
 1.9570	 6.6630
 1.9580	 6.6990
 1.9590	 6.7380
 1.9600	 6.7770
 1.9610	 6.8170
 1.9620	 6.8580
 1.9630	 6.9000
 1.9640	 6.9420
 1.9650	 6.9850
 1.9660	 7.0300
 1.9670	 7.0760
 1.9680	 7.1220
 1.9690	 7.1680
 1.9700	 7.2150
 1.9710	 7.2610
 1.9720	 7.3090
 1.9730	 7.3590
 1.9740	 7.4090
 1.9750	 7.4610
 1.9760	 7.5160
 1.9770	 7.5690
 1.9780	 7.6210
 1.9790	 7.6730
 1.9800	 7.7240
 1.9810	 7.7770
 1.9820	 7.8320
 1.9830	 7.8880
 1.9840	 7.9450
 1.9850	 8.0030
 1.9860	 8.0600
 1.9870	 8.1200
 1.9880	 8.1830
 1.9890	 8.2420
 1.9900	 8.3030
 1.9910	 8.3640
 1.9920	 8.4240
 1.9930	 8.4820
 1.9940	 8.5410
 1.9950	 8.6000
 1.9960	 8.6590
 1.9970	 8.7190
 1.9980	 8.7800
 1.9990	 8.8440
 2.0000	 8.9070
 2.0010	 8.9700
 2.0020	 9.0330
 2.0030	 9.0920
 2.0040	 9.1530
 2.0050	 9.2140
 2.0060	 9.2740
 2.0070	 9.3340
 2.0080	 9.3960
 2.0090	 9.4540
 2.0100	 9.5090
 2.0110	 9.5670
 2.0120	 9.6230
 2.0130	 9.6800
 2.0140	 9.7380
 2.0150	 9.7970
 2.0160	 9.8550
 2.0170	 9.9100
 2.0180	 9.9630
 2.0190	10.0140
 2.0200	10.0640
 2.0210	10.1120
 2.0220	10.1610
 2.0230	10.2100
 2.0240	10.2580
 2.0250	10.3050
 2.0260	10.3520
 2.0270	10.3970
 2.0280	10.4430
 2.0290	10.4850
 2.0300	10.5260
 2.0310	10.5670
 2.0320	10.6070
 2.0330	10.6440
 2.0340	10.6810
 2.0350	10.7160
 2.0360	10.7460
 2.0370	10.7790
 2.0380	10.8120
 2.0390	10.8450
 2.0400	10.8790
 2.0410	10.9100
 2.0420	10.9410
 2.0430	10.9700
 2.0440	10.9990
 2.0450	11.0270
 2.0460	11.0530
 2.0470	11.0780
 2.0480	11.1020
 2.0490	11.1230
 2.0500	11.1480
 2.0510	11.1760
 2.0520	11.2010
 2.0530	11.2300
 2.0540	11.2550
 2.0550	11.2760
 2.0560	11.2980
 2.0570	11.3210
 2.0580	11.3400
 2.0590	11.3630
 2.0600	11.3880
 2.0610	11.4130
 2.0620	11.4400
 2.0630	11.4650
 2.0640	11.4890
 2.0650	11.5140
 2.0660	11.5390
 2.0670	11.5640
 2.0680	11.5890
 2.0690	11.6140
 2.0700	11.6420
 2.0710	11.6670
 2.0720	11.6910
 2.0730	11.7140
 2.0740	11.7360
 2.0750	11.7540
 2.0760	11.7770
 2.0770	11.8030
 2.0780	11.8270
 2.0790	11.8530
 2.0800	11.8750
 2.0810	11.8920
 2.0820	11.9120
 2.0830	11.9330
 2.0840	11.9520
 2.0850	11.9730
 2.0860	11.9930
 2.0870	12.0120
 2.0880	12.0300
 2.0890	12.0500
 2.0900	12.0710
 2.0910	12.0910
 2.0920	12.1100
 2.0930	12.1290
 2.0940	12.1450
 2.0950	12.1630
 2.0960	12.1810
 2.0970	12.1970
 2.0980	12.2140
 2.0990	12.2300
 2.1000	12.2440
 2.1010	12.2610
 2.1020	12.2800
 2.1030	12.2990
 2.1040	12.3190
 2.1050	12.3370
 2.1060	12.3520
 2.1070	12.3630
 2.1080	12.3790
 2.1090	12.3940
 2.1100	12.4110
 2.1110	12.4330
 2.1120	12.4500
 2.1130	12.4640
 2.1140	12.4790
 2.1150	12.4920
 2.1160	12.5060
 2.1170	12.5210
 2.1180	12.5350
 2.1190	12.5480
 2.1200	12.5600
 2.1210	12.5720
 2.1220	12.5860
 2.1230	12.5970
 2.1240	12.6060
 2.1250	12.6190
 2.1260	12.6320
 2.1270	12.6450
 2.1280	12.6630
 2.1290	12.6760
 2.1300	12.6850
 2.1310	12.6960
 2.1320	12.7060
 2.1330	12.7170
 2.1340	12.7300
 2.1350	12.7430
 2.1360	12.7560
 2.1370	12.7690
 2.1380	12.7820
 2.1390	12.7960
 2.1400	12.8130
 2.1410	12.8290
 2.1420	12.8470
 2.1430	12.8670
 2.1440	12.8880
 2.1450	12.9110
 2.1460	12.9320
 2.1470	12.9540
 2.1480	12.9760
 2.1490	12.9970
 2.1500	13.0190
 2.1510	13.0420
 2.1520	13.0650
 2.1530	13.0890
 2.1540	13.1120
 2.1550	13.1360
 2.1560	13.1580
 2.1570	13.1810
 2.1580	13.2020
 2.1590	13.2220
 2.1600	13.2410
 2.1610	13.2630
 2.1620	13.2850
 2.1630	13.3060
 2.1640	13.3280
 2.1650	13.3490
 2.1660	13.3670
 2.1670	13.3890
 2.1680	13.4150
 2.1690	13.4360
 2.1700	13.4560
 2.1710	13.4760
 2.1720	13.4920
 2.1730	13.5150
 2.1740	13.5430
 2.1750	13.5680
 2.1760	13.5940
 2.1770	13.6180
 2.1780	13.6400
 2.1790	13.6620
 2.1800	13.6840
 2.1810	13.7080
 2.1820	13.7310
 2.1830	13.7560
 2.1840	13.7790
 2.1850	13.8020
 2.1860	13.8270
 2.1870	13.8510
 2.1880	13.8780
 2.1890	13.9090
 2.1900	13.9360
 2.1910	13.9610
 2.1920	13.9880
 2.1930	14.0140
 2.1940	14.0410
 2.1950	14.0700
 2.1960	14.0960
 2.1970	14.1210
 2.1980	14.1450
 2.1990	14.1670
 2.2000	14.1910
 2.2010	14.2160
 2.2020	14.2400
 2.2030	14.2660
 2.2040	14.2900
 2.2050	14.3140
 2.2060	14.3370
 2.2070	14.3610
 2.2080	14.3850
 2.2090	14.4060
 2.2100	14.4250
 2.2110	14.4430
 2.2120	14.4590
 2.2130	14.4740
 2.2140	14.4890
 2.2150	14.5020
 2.2160	14.5150
 2.2170	14.5260
 2.2180	14.5330
 2.2190	14.5420
 2.2200	14.5510
 2.2210	14.5570
 2.2220	14.5670
 2.2230	14.5700
 2.2240	14.5680
 2.2250	14.5670
 2.2260	14.5630
 2.2270	14.5570
 2.2280	14.5500
 2.2290	14.5420
 2.2300	14.5310
 2.2310	14.5180
 2.2320	14.5060
 2.2330	14.4890
 2.2340	14.4680
 2.2350	14.4420
 2.2360	14.4160
 2.2370	14.3850
 2.2380	14.3530
 2.2390	14.3190
 2.2400	14.2840
 2.2410	14.2470
 2.2420	14.2110
 2.2430	14.1770
 2.2440	14.1380
 2.2450	14.0960
 2.2460	14.0520
 2.2470	14.0040
 2.2480	13.9580
 2.2490	13.9080
 2.2500	13.8630
 2.2510	13.8200
 2.2520	13.7740
 2.2530	13.7290
 2.2540	13.6810
 2.2550	13.6280
 2.2560	13.5770
 2.2570	13.5240
 2.2580	13.4750
 2.2590	13.4280
 2.2600	13.3820
 2.2610	13.3410
 2.2620	13.2970
 2.2630	13.2500
 2.2640	13.2050
 2.2650	13.1580
 2.2660	13.1130
 2.2670	13.0710
 2.2680	13.0320
 2.2690	12.9920
 2.2700	12.9530
 2.2710	12.9130
 2.2720	12.8710
 2.2730	12.8330
 2.2740	12.7970
 2.2750	12.7610
 2.2760	12.7260
 2.2770	12.6940
 2.2780	12.6660
 2.2790	12.6330
 2.2800	12.6010
 2.2810	12.5700
 2.2820	12.5350
 2.2830	12.5000
 2.2840	12.4680
 2.2850	12.4350
 2.2860	12.3990
 2.2870	12.3660
 2.2880	12.3360
 2.2890	12.3040
 2.2900	12.2730
 2.2910	12.2390
 2.2920	12.2020
 2.2930	12.1660
 2.2940	12.1290
 2.2950	12.0920
 2.2960	12.0550
 2.2970	12.0210
 2.2980	11.9890
 2.2990	11.9550
 2.3000	11.9200
 2.3010	11.8870
 2.3020	11.8510
 2.3030	11.8160
 2.3040	11.7830
 2.3050	11.7520
 2.3060	11.7190
 2.3070	11.6810
 2.3080	11.6460
 2.3090	11.6180
 2.3100	11.5860
 2.3110	11.5590
 2.3120	11.5330
 2.3130	11.5060
 2.3140	11.4800
 2.3150	11.4580
 2.3160	11.4330
 2.3170	11.4070
 2.3180	11.3810
 2.3190	11.3550
 2.3200	11.3300
 2.3210	11.3060
 2.3220	11.2830
 2.3230	11.2630
 2.3240	11.2380
 2.3250	11.2110
 2.3260	11.1790
 2.3270	11.1380
 2.3280	11.1040
 2.3290	11.0700
 2.3300	11.0380
 2.3310	11.0110
 2.3320	10.9790
 2.3330	10.9440
 2.3340	10.9100
 2.3350	10.8790
 2.3360	10.8410
 2.3370	10.7970
 2.3380	10.7600
 2.3390	10.7210
 2.3400	10.6820
 2.3410	10.6490
 2.3420	10.6150
 2.3430	10.5750
 2.3440	10.5410
 2.3450	10.5110
 2.3460	10.4820
 2.3470	10.4540
 2.3480	10.4290
 2.3490	10.4100
 2.3500	10.3820
 2.3510	10.3470
 2.3520	10.3170
 2.3530	10.2820
 2.3540	10.2530
 2.3550	10.2400
 2.3560	10.2240
 2.3570	10.2000
 2.3580	10.1730
 2.3590	10.1420
 2.3600	10.1090
 2.3610	10.0810
 2.3620	10.0590
 2.3630	10.0330
 2.3640	10.0070
 2.3650	 9.9860
 2.3660	 9.9520
 2.3670	 9.9110
 2.3680	 9.8750
 2.3690	 9.8360
 2.3700	 9.8020
 2.3710	 9.7770
 2.3720	 9.7470
 2.3730	 9.7120
 2.3740	 9.6860
 2.3750	 9.6600
 2.3760	 9.6320
 2.3770	 9.6080
 2.3780	 9.5760
 2.3790	 9.5400
 2.3800	 9.5060
 2.3810	 9.4710
 2.3820	 9.4420
 2.3830	 9.4080
 2.3840	 9.3730
 2.3850	 9.3490
 2.3860	 9.3130
 2.3870	 9.2760
 2.3880	 9.2460
 2.3890	 9.2050
 2.3900	 9.1610
 2.3910	 9.1220
 2.3920	 9.0800
 2.3930	 9.0420
 2.3940	 9.0090
 2.3950	 8.9730
 2.3960	 8.9310
 2.3970	 8.8900
 2.3980	 8.8580
 2.3990	 8.8280
 2.4000	 8.7970
 2.4010	 8.7670
 2.4020	 8.7290
 2.4030	 8.6790
 2.4040	 8.6360
 2.4050	 8.5940
 2.4060	 8.5470
 2.4070	 8.5160
 2.4080	 8.4880
 2.4090	 8.4550
 2.4100	 8.4180
 2.4110	 8.3810
 2.4120	 8.3390
 2.4130	 8.2930
 2.4140	 8.2550
 2.4150	 8.2090
 2.4160	 8.1700
 2.4170	 8.1400
 2.4180	 8.1000
 2.4190	 8.0500
 2.4200	 8.0000
 2.4210	 7.9690
 2.4220	 7.9340
 2.4230	 7.9160
 2.4240	 7.9030
 2.4250	 7.8570
 2.4260	 7.8130
 2.4270	 7.7830
 2.4280	 7.7430
 2.4290	 7.7000
 2.4300	 7.6550
 2.4310	 7.6020
 2.4320	 7.5530
 2.4330	 7.5230
 2.4340	 7.5020
 2.4350	 7.4760
 2.4360	 7.4490
 2.4370	 7.4210
 2.4380	 7.3700
 2.4390	 7.3160
 2.4400	 7.2630
 2.4410	 7.2010
 2.4420	 7.1650
 2.4430	 7.1420
 2.4440	 7.1190
 2.4450	 7.0910
 2.4460	 7.0570
 2.4470	 7.0230
 2.4480	 6.9700
 2.4490	 6.9270
 2.4500	 6.9000
 2.4510	 6.8530
 2.4520	 6.8150
 2.4530	 6.7980
 2.4540	 6.7650
 2.4550	 6.7280
 2.4560	 6.7070
 2.4570	 6.6730
 2.4580	 6.6320
 2.4590	 6.6240
 2.4600	 6.6100
 2.4610	 6.5960
 2.4620	 6.5710
 2.4630	 6.5180
 2.4640	 6.4890
 2.4650	 6.4540
 2.4660	 6.4340
 2.4670	 6.4350
 2.4680	 6.4050
 2.4690	 6.3960
 2.4700	 6.3840
 2.4710	 6.3930
 2.4720	 6.3730
 2.4730	 6.3160
 2.4740	 6.2750
 2.4750	 6.2230
 2.4760	 6.2040
 2.4770	 6.2170
 2.4780	 6.2120
 2.4790	 6.2080
 2.4800	 6.1830
 2.4810	 6.1360
 2.4820	 6.1080
 2.4830	 6.0870
 2.4840	 6.0700
 2.4850	 6.0670
 2.4860	 6.0600
 2.4870	 6.0840
 2.4880	 6.0750
 2.4890	 6.0190
 2.4900	 6.0040
 2.4910	 5.9550
 2.4920	 5.9150
 2.4930	 5.9110
 2.4940	 5.8680
 2.4950	 5.8550
 2.4960	 5.8620
 2.4970	 5.8760
 2.4980	 5.8990
 2.4990	 5.8900
 2.5000	 5.8760
