Name: Quercus agrifolia
Type: vegetation
Class: Tree
Genus: Quercus
Species: agrifolia
Sample No.: JPL181
Owner: JPL
Wavelength Range: VSWIR
Origin: 34.12859; -118.11386; WGS84
Collection Date: 10/3/2016
Description: Samples were collected at the Huntington Garden in San Marino California as part of a JPL Subcontract studying HyTES imagery. Samples were taken to JPL and processed within 48 hours of collection. The same leaves were processed in the Nicolet and then measured using the ASD.
Measurement: Bidirectional reflectance
First Column: X
Second Column: Y
X Units: Wavelength (micrometer)
Y Units: Reflectance (percentage)
First X Value: 0.35
Last X Value: 2.5
Number of X Values: 2151
Additional Information: vegetation.tree.quercus.agrifolia.vswir.jpl181.jpl.asd.ancillary.txt

 0.3500	 5.7040
 0.3510	 5.6120
 0.3520	 5.6310
 0.3530	 5.6460
 0.3540	 5.5730
 0.3550	 5.5720
 0.3560	 5.5670
 0.3570	 5.5450
 0.3580	 5.5240
 0.3590	 5.4920
 0.3600	 5.4620
 0.3610	 5.4550
 0.3620	 5.5010
 0.3630	 5.4730
 0.3640	 5.4550
 0.3650	 5.5200
 0.3660	 5.4760
 0.3670	 5.4440
 0.3680	 5.4480
 0.3690	 5.4410
 0.3700	 5.3950
 0.3710	 5.3740
 0.3720	 5.3960
 0.3730	 5.3790
 0.3740	 5.3740
 0.3750	 5.3780
 0.3760	 5.3730
 0.3770	 5.3500
 0.3780	 5.3360
 0.3790	 5.3340
 0.3800	 5.3280
 0.3810	 5.3640
 0.3820	 5.3820
 0.3830	 5.3470
 0.3840	 5.3220
 0.3850	 5.3160
 0.3860	 5.3300
 0.3870	 5.3500
 0.3880	 5.3140
 0.3890	 5.2870
 0.3900	 5.2940
 0.3910	 5.3040
 0.3920	 5.3320
 0.3930	 5.3600
 0.3940	 5.3660
 0.3950	 5.3080
 0.3960	 5.2960
 0.3970	 5.3270
 0.3980	 5.3410
 0.3990	 5.3520
 0.4000	 5.3510
 0.4010	 5.3420
 0.4020	 5.3410
 0.4030	 5.3840
 0.4040	 5.4110
 0.4050	 5.3830
 0.4060	 5.4090
 0.4070	 5.4210
 0.4080	 5.4120
 0.4090	 5.4150
 0.4100	 5.4560
 0.4110	 5.4770
 0.4120	 5.4610
 0.4130	 5.4720
 0.4140	 5.4990
 0.4150	 5.5210
 0.4160	 5.5230
 0.4170	 5.5200
 0.4180	 5.5320
 0.4190	 5.5560
 0.4200	 5.5750
 0.4210	 5.5740
 0.4220	 5.5710
 0.4230	 5.5840
 0.4240	 5.6050
 0.4250	 5.6290
 0.4260	 5.6400
 0.4270	 5.6260
 0.4280	 5.6300
 0.4290	 5.6320
 0.4300	 5.6240
 0.4310	 5.6280
 0.4320	 5.6320
 0.4330	 5.6290
 0.4340	 5.6150
 0.4350	 5.6120
 0.4360	 5.6190
 0.4370	 5.6330
 0.4380	 5.6470
 0.4390	 5.6570
 0.4400	 5.6640
 0.4410	 5.6720
 0.4420	 5.6940
 0.4430	 5.7030
 0.4440	 5.7040
 0.4450	 5.7080
 0.4460	 5.7110
 0.4470	 5.7180
 0.4480	 5.7270
 0.4490	 5.7350
 0.4500	 5.7410
 0.4510	 5.7460
 0.4520	 5.7510
 0.4530	 5.7590
 0.4540	 5.7620
 0.4550	 5.7610
 0.4560	 5.7610
 0.4570	 5.7730
 0.4580	 5.7820
 0.4590	 5.7810
 0.4600	 5.7790
 0.4610	 5.7790
 0.4620	 5.7800
 0.4630	 5.7810
 0.4640	 5.7890
 0.4650	 5.7960
 0.4660	 5.8000
 0.4670	 5.8000
 0.4680	 5.7910
 0.4690	 5.7840
 0.4700	 5.7850
 0.4710	 5.7920
 0.4720	 5.7940
 0.4730	 5.7910
 0.4740	 5.7930
 0.4750	 5.8000
 0.4760	 5.8040
 0.4770	 5.8000
 0.4780	 5.7960
 0.4790	 5.8050
 0.4800	 5.8110
 0.4810	 5.8020
 0.4820	 5.8040
 0.4830	 5.8050
 0.4840	 5.8000
 0.4850	 5.7970
 0.4860	 5.7940
 0.4870	 5.7970
 0.4880	 5.8040
 0.4890	 5.8150
 0.4900	 5.8190
 0.4910	 5.8210
 0.4920	 5.8290
 0.4930	 5.8420
 0.4940	 5.8560
 0.4950	 5.8700
 0.4960	 5.8860
 0.4970	 5.9020
 0.4980	 5.9190
 0.4990	 5.9400
 0.5000	 5.9590
 0.5010	 5.9790
 0.5020	 6.0030
 0.5030	 6.0310
 0.5040	 6.0660
 0.5050	 6.1020
 0.5060	 6.1340
 0.5070	 6.1700
 0.5080	 6.2160
 0.5090	 6.2670
 0.5100	 6.3190
 0.5110	 6.3790
 0.5120	 6.4460
 0.5130	 6.5190
 0.5140	 6.6020
 0.5150	 6.6860
 0.5160	 6.7790
 0.5170	 6.8850
 0.5180	 6.9920
 0.5190	 7.1100
 0.5200	 7.2340
 0.5210	 7.3540
 0.5220	 7.4850
 0.5230	 7.6210
 0.5240	 7.7550
 0.5250	 7.8840
 0.5260	 8.0130
 0.5270	 8.1360
 0.5280	 8.2490
 0.5290	 8.3610
 0.5300	 8.4680
 0.5310	 8.5660
 0.5320	 8.6550
 0.5330	 8.7360
 0.5340	 8.8070
 0.5350	 8.8670
 0.5360	 8.9200
 0.5370	 8.9680
 0.5380	 9.0070
 0.5390	 9.0350
 0.5400	 9.0590
 0.5410	 9.0720
 0.5420	 9.0750
 0.5430	 9.0880
 0.5440	 9.1090
 0.5450	 9.1370
 0.5460	 9.1690
 0.5470	 9.2070
 0.5480	 9.2420
 0.5490	 9.2680
 0.5500	 9.2830
 0.5510	 9.2980
 0.5520	 9.3090
 0.5530	 9.3100
 0.5540	 9.2980
 0.5550	 9.2780
 0.5560	 9.2500
 0.5570	 9.2080
 0.5580	 9.1560
 0.5590	 9.0940
 0.5600	 9.0240
 0.5610	 8.9470
 0.5620	 8.8640
 0.5630	 8.7800
 0.5640	 8.7000
 0.5650	 8.6220
 0.5660	 8.5430
 0.5670	 8.4590
 0.5680	 8.3660
 0.5690	 8.2740
 0.5700	 8.1830
 0.5710	 8.0920
 0.5720	 8.0030
 0.5730	 7.9200
 0.5740	 7.8430
 0.5750	 7.7660
 0.5760	 7.6940
 0.5770	 7.6290
 0.5780	 7.5700
 0.5790	 7.5120
 0.5800	 7.4580
 0.5810	 7.4090
 0.5820	 7.3700
 0.5830	 7.3370
 0.5840	 7.3080
 0.5850	 7.2830
 0.5860	 7.2580
 0.5870	 7.2330
 0.5880	 7.2040
 0.5890	 7.1710
 0.5900	 7.1340
 0.5910	 7.0990
 0.5920	 7.0720
 0.5930	 7.0570
 0.5940	 7.0500
 0.5950	 7.0420
 0.5960	 7.0290
 0.5970	 7.0170
 0.5980	 7.0070
 0.5990	 6.9970
 0.6000	 6.9850
 0.6010	 6.9760
 0.6020	 6.9660
 0.6030	 6.9510
 0.6040	 6.9290
 0.6050	 6.9020
 0.6060	 6.8750
 0.6070	 6.8460
 0.6080	 6.8150
 0.6090	 6.7750
 0.6100	 6.7250
 0.6110	 6.6680
 0.6120	 6.6390
 0.6130	 6.6260
 0.6140	 6.6140
 0.6150	 6.5900
 0.6160	 6.5660
 0.6170	 6.5420
 0.6180	 6.5180
 0.6190	 6.4970
 0.6200	 6.4790
 0.6210	 6.4620
 0.6220	 6.4490
 0.6230	 6.4380
 0.6240	 6.4280
 0.6250	 6.4200
 0.6260	 6.4140
 0.6270	 6.4100
 0.6280	 6.4050
 0.6290	 6.3990
 0.6300	 6.3970
 0.6310	 6.3920
 0.6320	 6.3850
 0.6330	 6.3810
 0.6340	 6.3760
 0.6350	 6.3660
 0.6360	 6.3500
 0.6370	 6.3310
 0.6380	 6.3120
 0.6390	 6.2910
 0.6400	 6.2640
 0.6410	 6.2380
 0.6420	 6.2140
 0.6430	 6.1930
 0.6440	 6.1670
 0.6450	 6.1420
 0.6460	 6.1200
 0.6470	 6.1010
 0.6480	 6.0810
 0.6490	 6.0670
 0.6500	 6.0570
 0.6510	 6.0470
 0.6520	 6.0400
 0.6530	 6.0350
 0.6540	 6.0290
 0.6550	 6.0190
 0.6560	 6.0110
 0.6570	 6.0050
 0.6580	 5.9960
 0.6590	 5.9870
 0.6600	 5.9770
 0.6610	 5.9670
 0.6620	 5.9550
 0.6630	 5.9460
 0.6640	 5.9400
 0.6650	 5.9380
 0.6660	 5.9400
 0.6670	 5.9440
 0.6680	 5.9510
 0.6690	 5.9620
 0.6700	 5.9730
 0.6710	 5.9860
 0.6720	 6.0030
 0.6730	 6.0240
 0.6740	 6.0490
 0.6750	 6.0730
 0.6760	 6.0980
 0.6770	 6.1310
 0.6780	 6.1660
 0.6790	 6.2040
 0.6800	 6.2430
 0.6810	 6.2850
 0.6820	 6.3290
 0.6830	 6.3750
 0.6840	 6.4220
 0.6850	 6.4670
 0.6860	 6.5120
 0.6870	 6.5590
 0.6880	 6.6140
 0.6890	 6.6810
 0.6900	 6.7620
 0.6910	 6.8620
 0.6920	 6.9870
 0.6930	 7.1450
 0.6940	 7.3420
 0.6950	 7.5820
 0.6960	 7.8690
 0.6970	 8.2040
 0.6980	 8.5890
 0.6990	 9.0230
 0.7000	 9.5030
 0.7010	10.0230
 0.7020	10.5800
 0.7030	11.1710
 0.7040	11.7900
 0.7050	12.4340
 0.7060	13.1010
 0.7070	13.7870
 0.7080	14.4910
 0.7090	15.2160
 0.7100	15.9650
 0.7110	16.7330
 0.7120	17.5160
 0.7130	18.3180
 0.7140	19.1410
 0.7150	19.9820
 0.7160	20.8360
 0.7170	21.7070
 0.7180	22.5900
 0.7190	23.4810
 0.7200	24.3780
 0.7210	25.2820
 0.7220	26.1870
 0.7230	27.0910
 0.7240	27.9890
 0.7250	28.8810
 0.7260	29.7610
 0.7270	30.6260
 0.7280	31.4740
 0.7290	32.3000
 0.7300	33.1010
 0.7310	33.8770
 0.7320	34.6300
 0.7330	35.3570
 0.7340	36.0530
 0.7350	36.7180
 0.7360	37.3530
 0.7370	37.9570
 0.7380	38.5300
 0.7390	39.0670
 0.7400	39.5730
 0.7410	40.0480
 0.7420	40.4900
 0.7430	40.9050
 0.7440	41.2890
 0.7450	41.6430
 0.7460	41.9710
 0.7470	42.2700
 0.7480	42.5410
 0.7490	42.7880
 0.7500	43.0130
 0.7510	43.2190
 0.7520	43.4070
 0.7530	43.5750
 0.7540	43.7280
 0.7550	43.8660
 0.7560	43.9890
 0.7570	44.0970
 0.7580	44.1970
 0.7590	44.2860
 0.7600	44.3640
 0.7610	44.4370
 0.7620	44.4980
 0.7630	44.5520
 0.7640	44.6040
 0.7650	44.6460
 0.7660	44.6790
 0.7670	44.7070
 0.7680	44.7340
 0.7690	44.7580
 0.7700	44.7790
 0.7710	44.7980
 0.7720	44.8190
 0.7730	44.8340
 0.7740	44.8470
 0.7750	44.8600
 0.7760	44.8710
 0.7770	44.8820
 0.7780	44.8930
 0.7790	44.9020
 0.7800	44.9090
 0.7810	44.9170
 0.7820	44.9260
 0.7830	44.9320
 0.7840	44.9400
 0.7850	44.9470
 0.7860	44.9520
 0.7870	44.9590
 0.7880	44.9690
 0.7890	44.9780
 0.7900	44.9820
 0.7910	44.9870
 0.7920	44.9910
 0.7930	44.9960
 0.7940	45.0010
 0.7950	45.0040
 0.7960	45.0060
 0.7970	45.0060
 0.7980	45.0090
 0.7990	45.0110
 0.8000	45.0130
 0.8010	45.0150
 0.8020	45.0190
 0.8030	45.0180
 0.8040	45.0160
 0.8050	45.0190
 0.8060	45.0200
 0.8070	45.0200
 0.8080	45.0160
 0.8090	45.0120
 0.8100	45.0100
 0.8110	45.0070
 0.8120	45.0040
 0.8130	45.0040
 0.8140	45.0010
 0.8150	44.9970
 0.8160	44.9950
 0.8170	44.9930
 0.8180	44.9950
 0.8190	44.9960
 0.8200	44.9910
 0.8210	44.9850
 0.8220	44.9830
 0.8230	44.9820
 0.8240	44.9740
 0.8250	44.9730
 0.8260	44.9750
 0.8270	44.9740
 0.8280	44.9720
 0.8290	44.9660
 0.8300	44.9610
 0.8310	44.9580
 0.8320	44.9580
 0.8330	44.9580
 0.8340	44.9550
 0.8350	44.9510
 0.8360	44.9490
 0.8370	44.9470
 0.8380	44.9470
 0.8390	44.9500
 0.8400	44.9510
 0.8410	44.9520
 0.8420	44.9540
 0.8430	44.9570
 0.8440	44.9580
 0.8450	44.9600
 0.8460	44.9630
 0.8470	44.9640
 0.8480	44.9660
 0.8490	44.9700
 0.8500	44.9750
 0.8510	44.9760
 0.8520	44.9780
 0.8530	44.9820
 0.8540	44.9870
 0.8550	44.9900
 0.8560	44.9950
 0.8570	45.0000
 0.8580	45.0020
 0.8590	45.0080
 0.8600	45.0170
 0.8610	45.0250
 0.8620	45.0250
 0.8630	45.0290
 0.8640	45.0360
 0.8650	45.0430
 0.8660	45.0470
 0.8670	45.0520
 0.8680	45.0590
 0.8690	45.0630
 0.8700	45.0670
 0.8710	45.0710
 0.8720	45.0770
 0.8730	45.0860
 0.8740	45.0950
 0.8750	45.0990
 0.8760	45.1010
 0.8770	45.1120
 0.8780	45.1190
 0.8790	45.1250
 0.8800	45.1310
 0.8810	45.1350
 0.8820	45.1420
 0.8830	45.1490
 0.8840	45.1550
 0.8850	45.1620
 0.8860	45.1660
 0.8870	45.1710
 0.8880	45.1800
 0.8890	45.1820
 0.8900	45.1850
 0.8910	45.1890
 0.8920	45.1930
 0.8930	45.2030
 0.8940	45.2110
 0.8950	45.2140
 0.8960	45.2160
 0.8970	45.2170
 0.8980	45.2220
 0.8990	45.2300
 0.9000	45.2350
 0.9010	45.2400
 0.9020	45.2430
 0.9030	45.2430
 0.9040	45.2440
 0.9050	45.2510
 0.9060	45.2560
 0.9070	45.2570
 0.9080	45.2600
 0.9090	45.2640
 0.9100	45.2670
 0.9110	45.2690
 0.9120	45.2750
 0.9130	45.2810
 0.9140	45.2830
 0.9150	45.2780
 0.9160	45.2830
 0.9170	45.2900
 0.9180	45.2920
 0.9190	45.2880
 0.9200	45.2850
 0.9210	45.2870
 0.9220	45.2900
 0.9230	45.2850
 0.9240	45.2740
 0.9250	45.2690
 0.9260	45.2680
 0.9270	45.2600
 0.9280	45.2520
 0.9290	45.2420
 0.9300	45.2350
 0.9310	45.2360
 0.9320	45.2290
 0.9330	45.2180
 0.9340	45.2050
 0.9350	45.1870
 0.9360	45.1730
 0.9370	45.1640
 0.9380	45.1580
 0.9390	45.1450
 0.9400	45.1280
 0.9410	45.1110
 0.9420	45.0950
 0.9430	45.0730
 0.9440	45.0600
 0.9450	45.0440
 0.9460	45.0180
 0.9470	44.9880
 0.9480	44.9590
 0.9490	44.9290
 0.9500	44.8990
 0.9510	44.8770
 0.9520	44.8440
 0.9530	44.8000
 0.9540	44.7530
 0.9550	44.7250
 0.9560	44.6860
 0.9570	44.6430
 0.9580	44.6090
 0.9590	44.5810
 0.9600	44.5470
 0.9610	44.5120
 0.9620	44.4880
 0.9630	44.4640
 0.9640	44.4420
 0.9650	44.4230
 0.9660	44.4090
 0.9670	44.3920
 0.9680	44.3770
 0.9690	44.3660
 0.9700	44.3570
 0.9710	44.3400
 0.9720	44.3340
 0.9730	44.3300
 0.9740	44.3120
 0.9750	44.2890
 0.9760	44.2980
 0.9770	44.3160
 0.9780	44.3010
 0.9790	44.2890
 0.9800	44.2870
 0.9810	44.2880
 0.9820	44.2830
 0.9830	44.2810
 0.9840	44.2890
 0.9850	44.3010
 0.9860	44.3090
 0.9870	44.2990
 0.9880	44.3030
 0.9890	44.3070
 0.9900	44.2900
 0.9910	44.3180
 0.9920	44.3400
 0.9930	44.3510
 0.9940	44.3610
 0.9950	44.3580
 0.9960	44.3660
 0.9970	44.3880
 0.9980	44.4110
 0.9990	44.4230
 1.0000	44.4250
 1.0010	45.4220
 1.0020	45.4310
 1.0030	45.4400
 1.0040	45.4530
 1.0050	45.4670
 1.0060	45.4820
 1.0070	45.4980
 1.0080	45.5150
 1.0090	45.5310
 1.0100	45.5470
 1.0110	45.5650
 1.0120	45.5820
 1.0130	45.5970
 1.0140	45.6120
 1.0150	45.6260
 1.0160	45.6410
 1.0170	45.6570
 1.0180	45.6730
 1.0190	45.6890
 1.0200	45.7040
 1.0210	45.7160
 1.0220	45.7250
 1.0230	45.7370
 1.0240	45.7490
 1.0250	45.7640
 1.0260	45.7850
 1.0270	45.8010
 1.0280	45.8180
 1.0290	45.8320
 1.0300	45.8420
 1.0310	45.8560
 1.0320	45.8710
 1.0330	45.8840
 1.0340	45.8970
 1.0350	45.9110
 1.0360	45.9250
 1.0370	45.9370
 1.0380	45.9480
 1.0390	45.9580
 1.0400	45.9690
 1.0410	45.9790
 1.0420	45.9900
 1.0430	46.0030
 1.0440	46.0140
 1.0450	46.0240
 1.0460	46.0350
 1.0470	46.0500
 1.0480	46.0610
 1.0490	46.0710
 1.0500	46.0810
 1.0510	46.0880
 1.0520	46.0940
 1.0530	46.0990
 1.0540	46.1040
 1.0550	46.1080
 1.0560	46.1100
 1.0570	46.1150
 1.0580	46.1190
 1.0590	46.1250
 1.0600	46.1340
 1.0610	46.1400
 1.0620	46.1460
 1.0630	46.1520
 1.0640	46.1590
 1.0650	46.1640
 1.0660	46.1720
 1.0670	46.1760
 1.0680	46.1780
 1.0690	46.1760
 1.0700	46.1770
 1.0710	46.1770
 1.0720	46.1760
 1.0730	46.1760
 1.0740	46.1760
 1.0750	46.1740
 1.0760	46.1740
 1.0770	46.1760
 1.0780	46.1750
 1.0790	46.1710
 1.0800	46.1690
 1.0810	46.1680
 1.0820	46.1670
 1.0830	46.1700
 1.0840	46.1690
 1.0850	46.1670
 1.0860	46.1640
 1.0870	46.1600
 1.0880	46.1560
 1.0890	46.1510
 1.0900	46.1440
 1.0910	46.1380
 1.0920	46.1290
 1.0930	46.1240
 1.0940	46.1210
 1.0950	46.1180
 1.0960	46.1180
 1.0970	46.1160
 1.0980	46.1150
 1.0990	46.1100
 1.1000	46.1010
 1.1010	46.0940
 1.1020	46.0840
 1.1030	46.0750
 1.1040	46.0690
 1.1050	46.0630
 1.1060	46.0570
 1.1070	46.0530
 1.1080	46.0460
 1.1090	46.0390
 1.1100	46.0300
 1.1110	46.0200
 1.1120	46.0100
 1.1130	46.0000
 1.1140	45.9890
 1.1150	45.9780
 1.1160	45.9650
 1.1170	45.9530
 1.1180	45.9380
 1.1190	45.9240
 1.1200	45.9060
 1.1210	45.8870
 1.1220	45.8670
 1.1230	45.8420
 1.1240	45.8170
 1.1250	45.7890
 1.1260	45.7570
 1.1270	45.7240
 1.1280	45.6920
 1.1290	45.6520
 1.1300	45.6080
 1.1310	45.5600
 1.1320	45.5050
 1.1330	45.4470
 1.1340	45.3860
 1.1350	45.3190
 1.1360	45.2480
 1.1370	45.1720
 1.1380	45.0910
 1.1390	45.0060
 1.1400	44.9150
 1.1410	44.8230
 1.1420	44.7300
 1.1430	44.6320
 1.1440	44.5330
 1.1450	44.4330
 1.1460	44.3340
 1.1470	44.2320
 1.1480	44.1360
 1.1490	44.0430
 1.1500	43.9530
 1.1510	43.8660
 1.1520	43.7830
 1.1530	43.7020
 1.1540	43.6280
 1.1550	43.5570
 1.1560	43.4930
 1.1570	43.4350
 1.1580	43.3810
 1.1590	43.3290
 1.1600	43.2820
 1.1610	43.2400
 1.1620	43.2020
 1.1630	43.1690
 1.1640	43.1390
 1.1650	43.1090
 1.1660	43.0780
 1.1670	43.0530
 1.1680	43.0320
 1.1690	43.0120
 1.1700	42.9980
 1.1710	42.9800
 1.1720	42.9620
 1.1730	42.9450
 1.1740	42.9290
 1.1750	42.9120
 1.1760	42.8970
 1.1770	42.8820
 1.1780	42.8660
 1.1790	42.8490
 1.1800	42.8310
 1.1810	42.8110
 1.1820	42.7920
 1.1830	42.7730
 1.1840	42.7540
 1.1850	42.7350
 1.1860	42.7160
 1.1870	42.6990
 1.1880	42.6840
 1.1890	42.6700
 1.1900	42.6570
 1.1910	42.6460
 1.1920	42.6350
 1.1930	42.6240
 1.1940	42.6140
 1.1950	42.6060
 1.1960	42.5960
 1.1970	42.5890
 1.1980	42.5840
 1.1990	42.5800
 1.2000	42.5770
 1.2010	42.5730
 1.2020	42.5720
 1.2030	42.5700
 1.2040	42.5710
 1.2050	42.5750
 1.2060	42.5780
 1.2070	42.5820
 1.2080	42.5870
 1.2090	42.5930
 1.2100	42.6010
 1.2110	42.6120
 1.2120	42.6250
 1.2130	42.6420
 1.2140	42.6620
 1.2150	42.6820
 1.2160	42.7040
 1.2170	42.7270
 1.2180	42.7520
 1.2190	42.7790
 1.2200	42.8110
 1.2210	42.8440
 1.2220	42.8780
 1.2230	42.9130
 1.2240	42.9470
 1.2250	42.9790
 1.2260	43.0100
 1.2270	43.0400
 1.2280	43.0700
 1.2290	43.1010
 1.2300	43.1300
 1.2310	43.1570
 1.2320	43.1840
 1.2330	43.2090
 1.2340	43.2330
 1.2350	43.2550
 1.2360	43.2780
 1.2370	43.3000
 1.2380	43.3220
 1.2390	43.3420
 1.2400	43.3610
 1.2410	43.3790
 1.2420	43.3960
 1.2430	43.4130
 1.2440	43.4310
 1.2450	43.4490
 1.2460	43.4650
 1.2470	43.4810
 1.2480	43.4970
 1.2490	43.5090
 1.2500	43.5210
 1.2510	43.5320
 1.2520	43.5430
 1.2530	43.5550
 1.2540	43.5660
 1.2550	43.5750
 1.2560	43.5840
 1.2570	43.5930
 1.2580	43.6010
 1.2590	43.6080
 1.2600	43.6160
 1.2610	43.6220
 1.2620	43.6260
 1.2630	43.6270
 1.2640	43.6290
 1.2650	43.6310
 1.2660	43.6330
 1.2670	43.6360
 1.2680	43.6360
 1.2690	43.6350
 1.2700	43.6320
 1.2710	43.6270
 1.2720	43.6230
 1.2730	43.6190
 1.2740	43.6160
 1.2750	43.6130
 1.2760	43.6090
 1.2770	43.6060
 1.2780	43.5990
 1.2790	43.5920
 1.2800	43.5860
 1.2810	43.5770
 1.2820	43.5680
 1.2830	43.5570
 1.2840	43.5420
 1.2850	43.5300
 1.2860	43.5160
 1.2870	43.4990
 1.2880	43.4800
 1.2890	43.4600
 1.2900	43.4330
 1.2910	43.4050
 1.2920	43.3750
 1.2930	43.3460
 1.2940	43.3170
 1.2950	43.2880
 1.2960	43.2560
 1.2970	43.2190
 1.2980	43.1800
 1.2990	43.1400
 1.3000	43.0990
 1.3010	43.0570
 1.3020	43.0120
 1.3030	42.9630
 1.3040	42.9130
 1.3050	42.8630
 1.3060	42.8140
 1.3070	42.7600
 1.3080	42.7050
 1.3090	42.6480
 1.3100	42.5870
 1.3110	42.5250
 1.3120	42.4620
 1.3130	42.3940
 1.3140	42.3260
 1.3150	42.2570
 1.3160	42.1870
 1.3170	42.1160
 1.3180	42.0430
 1.3190	41.9670
 1.3200	41.8860
 1.3210	41.8020
 1.3220	41.7180
 1.3230	41.6330
 1.3240	41.5450
 1.3250	41.4560
 1.3260	41.3650
 1.3270	41.2700
 1.3280	41.1730
 1.3290	41.0740
 1.3300	40.9730
 1.3310	40.8710
 1.3320	40.7680
 1.3330	40.6640
 1.3340	40.5590
 1.3350	40.4530
 1.3360	40.3460
 1.3370	40.2370
 1.3380	40.1310
 1.3390	40.0240
 1.3400	39.9150
 1.3410	39.8080
 1.3420	39.6980
 1.3430	39.5910
 1.3440	39.4870
 1.3450	39.3820
 1.3460	39.2800
 1.3470	39.1780
 1.3480	39.0760
 1.3490	38.9770
 1.3500	38.8810
 1.3510	38.7840
 1.3520	38.6880
 1.3530	38.5920
 1.3540	38.4940
 1.3550	38.3970
 1.3560	38.2990
 1.3570	38.2000
 1.3580	38.1020
 1.3590	38.0000
 1.3600	37.8940
 1.3610	37.7870
 1.3620	37.6750
 1.3630	37.5600
 1.3640	37.4410
 1.3650	37.3150
 1.3660	37.1840
 1.3670	37.0470
 1.3680	36.9010
 1.3690	36.7450
 1.3700	36.5780
 1.3710	36.4010
 1.3720	36.2110
 1.3730	36.0070
 1.3740	35.7920
 1.3750	35.5600
 1.3760	35.3100
 1.3770	35.0430
 1.3780	34.7530
 1.3790	34.4440
 1.3800	34.1150
 1.3810	33.7590
 1.3820	33.3850
 1.3830	32.9920
 1.3840	32.5760
 1.3850	32.1390
 1.3860	31.6860
 1.3870	31.2090
 1.3880	30.7240
 1.3890	30.2240
 1.3900	29.7100
 1.3910	29.1930
 1.3920	28.6660
 1.3930	28.1320
 1.3940	27.6000
 1.3950	27.0600
 1.3960	26.5250
 1.3970	25.9970
 1.3980	25.4740
 1.3990	24.9670
 1.4000	24.4700
 1.4010	23.9830
 1.4020	23.5130
 1.4030	23.0550
 1.4040	22.6140
 1.4050	22.1930
 1.4060	21.7870
 1.4070	21.4050
 1.4080	21.0420
 1.4090	20.6950
 1.4100	20.3710
 1.4110	20.0620
 1.4120	19.7710
 1.4130	19.5010
 1.4140	19.2480
 1.4150	19.0140
 1.4160	18.7960
 1.4170	18.5910
 1.4180	18.4020
 1.4190	18.2250
 1.4200	18.0620
 1.4210	17.9110
 1.4220	17.7700
 1.4230	17.6410
 1.4240	17.5220
 1.4250	17.4110
 1.4260	17.3100
 1.4270	17.2150
 1.4280	17.1290
 1.4290	17.0500
 1.4300	16.9800
 1.4310	16.9150
 1.4320	16.8570
 1.4330	16.8040
 1.4340	16.7580
 1.4350	16.7150
 1.4360	16.6770
 1.4370	16.6440
 1.4380	16.6150
 1.4390	16.5910
 1.4400	16.5710
 1.4410	16.5540
 1.4420	16.5400
 1.4430	16.5290
 1.4440	16.5220
 1.4450	16.5160
 1.4460	16.5130
 1.4470	16.5130
 1.4480	16.5150
 1.4490	16.5180
 1.4500	16.5230
 1.4510	16.5300
 1.4520	16.5380
 1.4530	16.5490
 1.4540	16.5610
 1.4550	16.5750
 1.4560	16.5910
 1.4570	16.6100
 1.4580	16.6330
 1.4590	16.6580
 1.4600	16.6870
 1.4610	16.7190
 1.4620	16.7540
 1.4630	16.7940
 1.4640	16.8380
 1.4650	16.8870
 1.4660	16.9400
 1.4670	17.0000
 1.4680	17.0650
 1.4690	17.1340
 1.4700	17.2060
 1.4710	17.2820
 1.4720	17.3610
 1.4730	17.4430
 1.4740	17.5300
 1.4750	17.6180
 1.4760	17.7100
 1.4770	17.8060
 1.4780	17.9020
 1.4790	18.0030
 1.4800	18.1050
 1.4810	18.2070
 1.4820	18.3120
 1.4830	18.4190
 1.4840	18.5280
 1.4850	18.6380
 1.4860	18.7490
 1.4870	18.8620
 1.4880	18.9740
 1.4890	19.0880
 1.4900	19.2030
 1.4910	19.3180
 1.4920	19.4340
 1.4930	19.5510
 1.4940	19.6680
 1.4950	19.7850
 1.4960	19.9020
 1.4970	20.0170
 1.4980	20.1340
 1.4990	20.2520
 1.5000	20.3700
 1.5010	20.4910
 1.5020	20.6100
 1.5030	20.7280
 1.5040	20.8460
 1.5050	20.9620
 1.5060	21.0800
 1.5070	21.1990
 1.5080	21.3160
 1.5090	21.4330
 1.5100	21.5500
 1.5110	21.6670
 1.5120	21.7850
 1.5130	21.9010
 1.5140	22.0180
 1.5150	22.1330
 1.5160	22.2460
 1.5170	22.3600
 1.5180	22.4740
 1.5190	22.5860
 1.5200	22.6970
 1.5210	22.8050
 1.5220	22.9140
 1.5230	23.0220
 1.5240	23.1280
 1.5250	23.2360
 1.5260	23.3410
 1.5270	23.4460
 1.5280	23.5510
 1.5290	23.6540
 1.5300	23.7550
 1.5310	23.8550
 1.5320	23.9540
 1.5330	24.0530
 1.5340	24.1510
 1.5350	24.2490
 1.5360	24.3450
 1.5370	24.4400
 1.5380	24.5350
 1.5390	24.6290
 1.5400	24.7210
 1.5410	24.8130
 1.5420	24.9040
 1.5430	24.9960
 1.5440	25.0880
 1.5450	25.1770
 1.5460	25.2660
 1.5470	25.3530
 1.5480	25.4400
 1.5490	25.5260
 1.5500	25.6110
 1.5510	25.6960
 1.5520	25.7800
 1.5530	25.8630
 1.5540	25.9450
 1.5550	26.0270
 1.5560	26.1090
 1.5570	26.1890
 1.5580	26.2680
 1.5590	26.3460
 1.5600	26.4220
 1.5610	26.4950
 1.5620	26.5690
 1.5630	26.6440
 1.5640	26.7170
 1.5650	26.7900
 1.5660	26.8640
 1.5670	26.9340
 1.5680	27.0040
 1.5690	27.0730
 1.5700	27.1410
 1.5710	27.2100
 1.5720	27.2780
 1.5730	27.3450
 1.5740	27.4120
 1.5750	27.4790
 1.5760	27.5450
 1.5770	27.6120
 1.5780	27.6790
 1.5790	27.7440
 1.5800	27.8090
 1.5810	27.8730
 1.5820	27.9350
 1.5830	27.9990
 1.5840	28.0620
 1.5850	28.1250
 1.5860	28.1880
 1.5870	28.2520
 1.5880	28.3160
 1.5890	28.3790
 1.5900	28.4420
 1.5910	28.5030
 1.5920	28.5640
 1.5930	28.6240
 1.5940	28.6840
 1.5950	28.7450
 1.5960	28.8060
 1.5970	28.8660
 1.5980	28.9270
 1.5990	28.9870
 1.6000	29.0460
 1.6010	29.1040
 1.6020	29.1620
 1.6030	29.2190
 1.6040	29.2760
 1.6050	29.3330
 1.6060	29.3900
 1.6070	29.4440
 1.6080	29.4990
 1.6090	29.5530
 1.6100	29.6060
 1.6110	29.6590
 1.6120	29.7090
 1.6130	29.7590
 1.6140	29.8070
 1.6150	29.8540
 1.6160	29.9010
 1.6170	29.9460
 1.6180	29.9930
 1.6190	30.0390
 1.6200	30.0830
 1.6210	30.1270
 1.6220	30.1690
 1.6230	30.2080
 1.6240	30.2500
 1.6250	30.2900
 1.6260	30.3280
 1.6270	30.3670
 1.6280	30.4040
 1.6290	30.4390
 1.6300	30.4740
 1.6310	30.5070
 1.6320	30.5390
 1.6330	30.5690
 1.6340	30.5990
 1.6350	30.6270
 1.6360	30.6530
 1.6370	30.6770
 1.6380	30.6990
 1.6390	30.7190
 1.6400	30.7390
 1.6410	30.7560
 1.6420	30.7710
 1.6430	30.7820
 1.6440	30.7900
 1.6450	30.7970
 1.6460	30.8010
 1.6470	30.8030
 1.6480	30.8050
 1.6490	30.8040
 1.6500	30.8020
 1.6510	30.7980
 1.6520	30.7930
 1.6530	30.7860
 1.6540	30.7780
 1.6550	30.7710
 1.6560	30.7610
 1.6570	30.7530
 1.6580	30.7460
 1.6590	30.7390
 1.6600	30.7330
 1.6610	30.7260
 1.6620	30.7200
 1.6630	30.7170
 1.6640	30.7130
 1.6650	30.7120
 1.6660	30.7120
 1.6670	30.7110
 1.6680	30.7100
 1.6690	30.7080
 1.6700	30.7040
 1.6710	30.7000
 1.6720	30.6950
 1.6730	30.6880
 1.6740	30.6810
 1.6750	30.6700
 1.6760	30.6550
 1.6770	30.6380
 1.6780	30.6190
 1.6790	30.5990
 1.6800	30.5790
 1.6810	30.5550
 1.6820	30.5270
 1.6830	30.4980
 1.6840	30.4640
 1.6850	30.4260
 1.6860	30.3870
 1.6870	30.3450
 1.6880	30.3020
 1.6890	30.2580
 1.6900	30.2150
 1.6910	30.1710
 1.6920	30.1270
 1.6930	30.0850
 1.6940	30.0400
 1.6950	29.9930
 1.6960	29.9470
 1.6970	29.9010
 1.6980	29.8550
 1.6990	29.8090
 1.7000	29.7610
 1.7010	29.7090
 1.7020	29.6580
 1.7030	29.6080
 1.7040	29.5550
 1.7050	29.5030
 1.7060	29.4470
 1.7070	29.3870
 1.7080	29.3290
 1.7090	29.2710
 1.7100	29.2120
 1.7110	29.1550
 1.7120	29.0960
 1.7130	29.0350
 1.7140	28.9760
 1.7150	28.9150
 1.7160	28.8570
 1.7170	28.8000
 1.7180	28.7410
 1.7190	28.6840
 1.7200	28.6250
 1.7210	28.5650
 1.7220	28.5080
 1.7230	28.4520
 1.7240	28.3960
 1.7250	28.3430
 1.7260	28.2940
 1.7270	28.2480
 1.7280	28.2060
 1.7290	28.1710
 1.7300	28.1440
 1.7310	28.1230
 1.7320	28.1100
 1.7330	28.1010
 1.7340	28.0980
 1.7350	28.0940
 1.7360	28.0950
 1.7370	28.0920
 1.7380	28.0890
 1.7390	28.0820
 1.7400	28.0750
 1.7410	28.0620
 1.7420	28.0440
 1.7430	28.0220
 1.7440	27.9940
 1.7450	27.9630
 1.7460	27.9270
 1.7470	27.8890
 1.7480	27.8470
 1.7490	27.8030
 1.7500	27.7560
 1.7510	27.7090
 1.7520	27.6590
 1.7530	27.6080
 1.7540	27.5540
 1.7550	27.5000
 1.7560	27.4440
 1.7570	27.3890
 1.7580	27.3360
 1.7590	27.2830
 1.7600	27.2320
 1.7610	27.1810
 1.7620	27.1340
 1.7630	27.0890
 1.7640	27.0490
 1.7650	27.0130
 1.7660	26.9790
 1.7670	26.9490
 1.7680	26.9220
 1.7690	26.8990
 1.7700	26.8770
 1.7710	26.8580
 1.7720	26.8390
 1.7730	26.8230
 1.7740	26.8050
 1.7750	26.7860
 1.7760	26.7680
 1.7770	26.7500
 1.7780	26.7330
 1.7790	26.7180
 1.7800	26.7030
 1.7810	26.6910
 1.7820	26.6780
 1.7830	26.6670
 1.7840	26.6550
 1.7850	26.6420
 1.7860	26.6320
 1.7870	26.6240
 1.7880	26.6200
 1.7890	26.6170
 1.7900	26.6140
 1.7910	26.6130
 1.7920	26.6130
 1.7930	26.6140
 1.7940	26.6170
 1.7950	26.6210
 1.7960	26.6280
 1.7970	26.6330
 1.7980	26.6400
 1.7990	26.6460
 1.8000	26.6510
 1.8010	26.6580
 1.8020	26.6670
 1.8030	26.6760
 1.8040	26.6850
 1.8050	26.6960
 1.8060	26.7090
 1.8070	26.7200
 1.8080	26.7310
 1.8090	26.7420
 1.8100	26.7530
 1.8110	26.7650
 1.8120	26.7770
 1.8130	26.7890
 1.8140	26.7970
 1.8150	26.8030
 1.8160	26.8120
 1.8170	26.8210
 1.8180	26.8300
 1.8190	26.8440
 1.8200	26.8530
 1.8210	26.8580
 1.8220	26.8640
 1.8230	26.8660
 1.8240	26.8680
 1.8250	26.8700
 1.8260	26.8700
 1.8270	26.8700
 1.8280	26.8690
 1.8290	26.8670
 1.8300	26.8620
 1.8310	25.7370
 1.8320	25.7300
 1.8330	25.7200
 1.8340	25.7050
 1.8350	25.6860
 1.8360	25.6580
 1.8370	25.6290
 1.8380	25.5970
 1.8390	25.5590
 1.8400	25.5190
 1.8410	25.4750
 1.8420	25.4270
 1.8430	25.3710
 1.8440	25.3110
 1.8450	25.2490
 1.8460	25.1750
 1.8470	25.0930
 1.8480	25.0050
 1.8490	24.9040
 1.8500	24.7950
 1.8510	24.6800
 1.8520	24.5550
 1.8530	24.4150
 1.8540	24.2690
 1.8550	24.1100
 1.8560	23.9350
 1.8570	23.7520
 1.8580	23.5580
 1.8590	23.3520
 1.8600	23.1330
 1.8610	22.9020
 1.8620	22.6580
 1.8630	22.4000
 1.8640	22.1270
 1.8650	21.8370
 1.8660	21.5310
 1.8670	21.1980
 1.8680	20.8470
 1.8690	20.4830
 1.8700	20.1010
 1.8710	19.7010
 1.8720	19.2940
 1.8730	18.8730
 1.8740	18.4330
 1.8750	17.9870
 1.8760	17.5270
 1.8770	17.0630
 1.8780	16.5980
 1.8790	16.1240
 1.8800	15.6570
 1.8810	15.1920
 1.8820	14.7290
 1.8830	14.2670
 1.8840	13.8120
 1.8850	13.3610
 1.8860	12.9160
 1.8870	12.4820
 1.8880	12.0630
 1.8890	11.6580
 1.8900	11.2710
 1.8910	10.9030
 1.8920	10.5520
 1.8930	10.2190
 1.8940	 9.9060
 1.8950	 9.6160
 1.8960	 9.3450
 1.8970	 9.0940
 1.8980	 8.8680
 1.8990	 8.6580
 1.9000	 8.4630
 1.9010	 8.2890
 1.9020	 8.1270
 1.9030	 7.9800
 1.9040	 7.8480
 1.9050	 7.7320
 1.9060	 7.6280
 1.9070	 7.5370
 1.9080	 7.4580
 1.9090	 7.3870
 1.9100	 7.3240
 1.9110	 7.2660
 1.9120	 7.2160
 1.9130	 7.1700
 1.9140	 7.1320
 1.9150	 7.0970
 1.9160	 7.0650
 1.9170	 7.0370
 1.9180	 7.0110
 1.9190	 6.9880
 1.9200	 6.9690
 1.9210	 6.9540
 1.9220	 6.9410
 1.9230	 6.9300
 1.9240	 6.9230
 1.9250	 6.9190
 1.9260	 6.9160
 1.9270	 6.9160
 1.9280	 6.9170
 1.9290	 6.9200
 1.9300	 6.9210
 1.9310	 6.9260
 1.9320	 6.9320
 1.9330	 6.9380
 1.9340	 6.9470
 1.9350	 6.9560
 1.9360	 6.9650
 1.9370	 6.9770
 1.9380	 6.9910
 1.9390	 7.0040
 1.9400	 7.0200
 1.9410	 7.0380
 1.9420	 7.0560
 1.9430	 7.0760
 1.9440	 7.0980
 1.9450	 7.1210
 1.9460	 7.1450
 1.9470	 7.1730
 1.9480	 7.1980
 1.9490	 7.2240
 1.9500	 7.2500
 1.9510	 7.2760
 1.9520	 7.3040
 1.9530	 7.3320
 1.9540	 7.3610
 1.9550	 7.3920
 1.9560	 7.4270
 1.9570	 7.4590
 1.9580	 7.4940
 1.9590	 7.5280
 1.9600	 7.5610
 1.9610	 7.5940
 1.9620	 7.6290
 1.9630	 7.6640
 1.9640	 7.7020
 1.9650	 7.7430
 1.9660	 7.7860
 1.9670	 7.8300
 1.9680	 7.8730
 1.9690	 7.9150
 1.9700	 7.9570
 1.9710	 7.9950
 1.9720	 8.0380
 1.9730	 8.0820
 1.9740	 8.1280
 1.9750	 8.1740
 1.9760	 8.2240
 1.9770	 8.2700
 1.9780	 8.3180
 1.9790	 8.3670
 1.9800	 8.4170
 1.9810	 8.4680
 1.9820	 8.5220
 1.9830	 8.5750
 1.9840	 8.6270
 1.9850	 8.6800
 1.9860	 8.7350
 1.9870	 8.7890
 1.9880	 8.8440
 1.9890	 8.9000
 1.9900	 8.9540
 1.9910	 9.0070
 1.9920	 9.0640
 1.9930	 9.1210
 1.9940	 9.1790
 1.9950	 9.2410
 1.9960	 9.2990
 1.9970	 9.3550
 1.9980	 9.4130
 1.9990	 9.4700
 2.0000	 9.5270
 2.0010	 9.5880
 2.0020	 9.6460
 2.0030	 9.7030
 2.0040	 9.7590
 2.0050	 9.8170
 2.0060	 9.8740
 2.0070	 9.9320
 2.0080	 9.9930
 2.0090	10.0500
 2.0100	10.1040
 2.0110	10.1600
 2.0120	10.2160
 2.0130	10.2720
 2.0140	10.3300
 2.0150	10.3880
 2.0160	10.4460
 2.0170	10.5030
 2.0180	10.5590
 2.0190	10.6120
 2.0200	10.6670
 2.0210	10.7220
 2.0220	10.7750
 2.0230	10.8300
 2.0240	10.8820
 2.0250	10.9320
 2.0260	10.9830
 2.0270	11.0350
 2.0280	11.0850
 2.0290	11.1320
 2.0300	11.1770
 2.0310	11.2220
 2.0320	11.2640
 2.0330	11.3090
 2.0340	11.3560
 2.0350	11.3990
 2.0360	11.4410
 2.0370	11.4810
 2.0380	11.5190
 2.0390	11.5580
 2.0400	11.5980
 2.0410	11.6370
 2.0420	11.6740
 2.0430	11.7130
 2.0440	11.7480
 2.0450	11.7820
 2.0460	11.8130
 2.0470	11.8390
 2.0480	11.8710
 2.0490	11.9030
 2.0500	11.9350
 2.0510	11.9710
 2.0520	12.0040
 2.0530	12.0340
 2.0540	12.0660
 2.0550	12.0980
 2.0560	12.1300
 2.0570	12.1630
 2.0580	12.1960
 2.0590	12.2290
 2.0600	12.2630
 2.0610	12.2980
 2.0620	12.3360
 2.0630	12.3710
 2.0640	12.4090
 2.0650	12.4430
 2.0660	12.4740
 2.0670	12.5080
 2.0680	12.5420
 2.0690	12.5750
 2.0700	12.6100
 2.0710	12.6440
 2.0720	12.6770
 2.0730	12.7100
 2.0740	12.7450
 2.0750	12.7790
 2.0760	12.8150
 2.0770	12.8540
 2.0780	12.8870
 2.0790	12.9180
 2.0800	12.9510
 2.0810	12.9810
 2.0820	13.0140
 2.0830	13.0520
 2.0840	13.0850
 2.0850	13.1170
 2.0860	13.1490
 2.0870	13.1810
 2.0880	13.2110
 2.0890	13.2440
 2.0900	13.2790
 2.0910	13.3110
 2.0920	13.3440
 2.0930	13.3750
 2.0940	13.4050
 2.0950	13.4350
 2.0960	13.4650
 2.0970	13.4960
 2.0980	13.5270
 2.0990	13.5580
 2.1000	13.5890
 2.1010	13.6200
 2.1020	13.6510
 2.1030	13.6810
 2.1040	13.7130
 2.1050	13.7440
 2.1060	13.7750
 2.1070	13.8070
 2.1080	13.8350
 2.1090	13.8610
 2.1100	13.8880
 2.1110	13.9120
 2.1120	13.9390
 2.1130	13.9700
 2.1140	13.9980
 2.1150	14.0290
 2.1160	14.0560
 2.1170	14.0790
 2.1180	14.1050
 2.1190	14.1360
 2.1200	14.1610
 2.1210	14.1870
 2.1220	14.2120
 2.1230	14.2340
 2.1240	14.2500
 2.1250	14.2730
 2.1260	14.2960
 2.1270	14.3220
 2.1280	14.3530
 2.1290	14.3790
 2.1300	14.4030
 2.1310	14.4280
 2.1320	14.4510
 2.1330	14.4760
 2.1340	14.5050
 2.1350	14.5300
 2.1360	14.5480
 2.1370	14.5710
 2.1380	14.5940
 2.1390	14.6190
 2.1400	14.6470
 2.1410	14.6800
 2.1420	14.7070
 2.1430	14.7320
 2.1440	14.7590
 2.1450	14.7860
 2.1460	14.8110
 2.1470	14.8370
 2.1480	14.8620
 2.1490	14.8850
 2.1500	14.9090
 2.1510	14.9310
 2.1520	14.9570
 2.1530	14.9840
 2.1540	15.0100
 2.1550	15.0400
 2.1560	15.0660
 2.1570	15.0890
 2.1580	15.1120
 2.1590	15.1340
 2.1600	15.1580
 2.1610	15.1760
 2.1620	15.1970
 2.1630	15.2160
 2.1640	15.2300
 2.1650	15.2480
 2.1660	15.2680
 2.1670	15.2890
 2.1680	15.3150
 2.1690	15.3360
 2.1700	15.3570
 2.1710	15.3770
 2.1720	15.3940
 2.1730	15.4140
 2.1740	15.4370
 2.1750	15.4570
 2.1760	15.4790
 2.1770	15.5000
 2.1780	15.5170
 2.1790	15.5390
 2.1800	15.5640
 2.1810	15.5880
 2.1820	15.6140
 2.1830	15.6380
 2.1840	15.6600
 2.1850	15.6780
 2.1860	15.6990
 2.1870	15.7200
 2.1880	15.7420
 2.1890	15.7650
 2.1900	15.7880
 2.1910	15.8120
 2.1920	15.8340
 2.1930	15.8570
 2.1940	15.8790
 2.1950	15.8990
 2.1960	15.9210
 2.1970	15.9420
 2.1980	15.9660
 2.1990	15.9950
 2.2000	16.0200
 2.2010	16.0490
 2.2020	16.0720
 2.2030	16.0900
 2.2040	16.1100
 2.2050	16.1270
 2.2060	16.1460
 2.2070	16.1630
 2.2080	16.1800
 2.2090	16.1940
 2.2100	16.2060
 2.2110	16.2180
 2.2120	16.2310
 2.2130	16.2400
 2.2140	16.2460
 2.2150	16.2540
 2.2160	16.2610
 2.2170	16.2650
 2.2180	16.2690
 2.2190	16.2690
 2.2200	16.2620
 2.2210	16.2560
 2.2220	16.2480
 2.2230	16.2400
 2.2240	16.2340
 2.2250	16.2220
 2.2260	16.2060
 2.2270	16.1870
 2.2280	16.1620
 2.2290	16.1370
 2.2300	16.1110
 2.2310	16.0850
 2.2320	16.0530
 2.2330	16.0180
 2.2340	15.9800
 2.2350	15.9370
 2.2360	15.8910
 2.2370	15.8410
 2.2380	15.7910
 2.2390	15.7350
 2.2400	15.6820
 2.2410	15.6320
 2.2420	15.5760
 2.2430	15.5170
 2.2440	15.4570
 2.2450	15.3910
 2.2460	15.3300
 2.2470	15.2730
 2.2480	15.2130
 2.2490	15.1550
 2.2500	15.0940
 2.2510	15.0270
 2.2520	14.9680
 2.2530	14.9100
 2.2540	14.8530
 2.2550	14.8030
 2.2560	14.7480
 2.2570	14.6910
 2.2580	14.6330
 2.2590	14.5670
 2.2600	14.5070
 2.2610	14.4490
 2.2620	14.3930
 2.2630	14.3440
 2.2640	14.2960
 2.2650	14.2500
 2.2660	14.2030
 2.2670	14.1560
 2.2680	14.1110
 2.2690	14.0630
 2.2700	14.0090
 2.2710	13.9660
 2.2720	13.9260
 2.2730	13.8860
 2.2740	13.8550
 2.2750	13.8160
 2.2760	13.7730
 2.2770	13.7340
 2.2780	13.6930
 2.2790	13.6590
 2.2800	13.6290
 2.2810	13.6010
 2.2820	13.5810
 2.2830	13.5530
 2.2840	13.5220
 2.2850	13.4910
 2.2860	13.4570
 2.2870	13.4210
 2.2880	13.3860
 2.2890	13.3470
 2.2900	13.3030
 2.2910	13.2600
 2.2920	13.2150
 2.2930	13.1710
 2.2940	13.1290
 2.2950	13.0820
 2.2960	13.0330
 2.2970	12.9830
 2.2980	12.9270
 2.2990	12.8730
 2.3000	12.8250
 2.3010	12.7750
 2.3020	12.7260
 2.3030	12.6720
 2.3040	12.6110
 2.3050	12.5520
 2.3060	12.4990
 2.3070	12.4500
 2.3080	12.4070
 2.3090	12.3690
 2.3100	12.3390
 2.3110	12.3090
 2.3120	12.2840
 2.3130	12.2630
 2.3140	12.2500
 2.3150	12.2400
 2.3160	12.2380
 2.3170	12.2510
 2.3180	12.2520
 2.3190	12.2500
 2.3200	12.2570
 2.3210	12.2660
 2.3220	12.2740
 2.3230	12.2970
 2.3240	12.2960
 2.3250	12.2790
 2.3260	12.2640
 2.3270	12.2360
 2.3280	12.2120
 2.3290	12.1860
 2.3300	12.1600
 2.3310	12.1290
 2.3320	12.1040
 2.3330	12.0850
 2.3340	12.0590
 2.3350	12.0310
 2.3360	11.9990
 2.3370	11.9600
 2.3380	11.9240
 2.3390	11.8890
 2.3400	11.8550
 2.3410	11.8220
 2.3420	11.7880
 2.3430	11.7530
 2.3440	11.7200
 2.3450	11.6870
 2.3460	11.6560
 2.3470	11.6270
 2.3480	11.5980
 2.3490	11.5700
 2.3500	11.5420
 2.3510	11.5140
 2.3520	11.4900
 2.3530	11.4700
 2.3540	11.4450
 2.3550	11.4300
 2.3560	11.4210
 2.3570	11.4120
 2.3580	11.4020
 2.3590	11.3960
 2.3600	11.3790
 2.3610	11.3500
 2.3620	11.3330
 2.3630	11.3120
 2.3640	11.2850
 2.3650	11.2690
 2.3660	11.2530
 2.3670	11.2300
 2.3680	11.2080
 2.3690	11.1870
 2.3700	11.1580
 2.3710	11.1260
 2.3720	11.0920
 2.3730	11.0530
 2.3740	11.0210
 2.3750	10.9910
 2.3760	10.9650
 2.3770	10.9360
 2.3780	10.9090
 2.3790	10.8850
 2.3800	10.8460
 2.3810	10.8170
 2.3820	10.7910
 2.3830	10.7560
 2.3840	10.7310
 2.3850	10.7000
 2.3860	10.6640
 2.3870	10.6300
 2.3880	10.5930
 2.3890	10.5660
 2.3900	10.5410
 2.3910	10.5130
 2.3920	10.4910
 2.3930	10.4690
 2.3940	10.4420
 2.3950	10.4130
 2.3960	10.3880
 2.3970	10.3650
 2.3980	10.3370
 2.3990	10.3100
 2.4000	10.2910
 2.4010	10.2620
 2.4020	10.2310
 2.4030	10.2040
 2.4040	10.1560
 2.4050	10.1100
 2.4060	10.0780
 2.4070	10.0520
 2.4080	10.0390
 2.4090	10.0200
 2.4100	 9.9880
 2.4110	 9.9490
 2.4120	 9.9040
 2.4130	 9.8710
 2.4140	 9.8440
 2.4150	 9.8040
 2.4160	 9.7710
 2.4170	 9.7400
 2.4180	 9.7050
 2.4190	 9.6820
 2.4200	 9.6530
 2.4210	 9.6100
 2.4220	 9.5750
 2.4230	 9.5330
 2.4240	 9.5070
 2.4250	 9.4910
 2.4260	 9.4580
 2.4270	 9.4300
 2.4280	 9.3860
 2.4290	 9.3230
 2.4300	 9.2730
 2.4310	 9.2370
 2.4320	 9.2030
 2.4330	 9.1720
 2.4340	 9.1580
 2.4350	 9.1290
 2.4360	 9.0890
 2.4370	 9.0590
 2.4380	 9.0180
 2.4390	 8.9790
 2.4400	 8.9400
 2.4410	 8.8990
 2.4420	 8.8680
 2.4430	 8.8310
 2.4440	 8.8140
 2.4450	 8.8030
 2.4460	 8.7760
 2.4470	 8.7410
 2.4480	 8.6890
 2.4490	 8.6330
 2.4500	 8.5970
 2.4510	 8.5770
 2.4520	 8.5620
 2.4530	 8.5550
 2.4540	 8.5350
 2.4550	 8.5180
 2.4560	 8.5080
 2.4570	 8.4810
 2.4580	 8.4580
 2.4590	 8.4320
 2.4600	 8.3890
 2.4610	 8.3560
 2.4620	 8.3290
 2.4630	 8.3020
 2.4640	 8.2840
 2.4650	 8.2690
 2.4660	 8.2500
 2.4670	 8.2390
 2.4680	 8.2260
 2.4690	 8.2060
 2.4700	 8.1930
 2.4710	 8.1810
 2.4720	 8.1560
 2.4730	 8.1140
 2.4740	 8.0940
 2.4750	 8.0900
 2.4760	 8.0610
 2.4770	 8.0340
 2.4780	 8.0180
 2.4790	 7.9750
 2.4800	 7.9440
 2.4810	 7.9470
 2.4820	 7.9330
 2.4830	 7.8860
 2.4840	 7.8380
 2.4850	 7.8120
 2.4860	 7.7880
 2.4870	 7.7550
 2.4880	 7.7710
 2.4890	 7.7950
 2.4900	 7.7990
 2.4910	 7.8510
 2.4920	 7.8810
 2.4930	 7.8550
 2.4940	 7.8340
 2.4950	 7.7920
 2.4960	 7.7670
 2.4970	 7.7690
 2.4980	 7.7390
 2.4990	 7.7660
 2.5000	 7.8030
