Name: Baccharis pilularis 1
Type: vegetation
Class: Shrub
Genus: Baccharis
Species: pilularis
Sample No.: VH002
Owner: UCSB
Wavelength Range: VSWIR
Origin: 34.418; -119.8455; WGS84
Collection Date: 4/1/2013
Description: Samples were collected as part of the HyspIRI Airborne Campaign. 48 individual plants were sampled in three times in 2013 - spring  summer  and fall. The name of the sample includes a 1  2  or 3 which references a different individual of the species. Samples were taken to JPL and processed within 48 hours of collection. The same leaves were processed in the Nicolet and then measured using the ASD.
Measurement: Bidirectional reflectance
First Column: X
Second Column: Y
X Units: Wavelength (micrometers)
Y Units: Reflectance (percentage)
First X Value: 0.35
Last X Value: 2.5
Number of X Values: 2151
Additional Information: vegetation.shrub.baccharis.pilularis.vswir.vh002.ucsb.asd.ancillary.txt

 0.3500	 2.9640
 0.3510	 3.0180
 0.3520	 3.1330
 0.3530	 3.2410
 0.3540	 3.2980
 0.3550	 3.2050
 0.3560	 3.1620
 0.3570	 3.1520
 0.3580	 3.0660
 0.3590	 3.0570
 0.3600	 3.0590
 0.3610	 3.0300
 0.3620	 2.9890
 0.3630	 3.0110
 0.3640	 3.0790
 0.3650	 3.1340
 0.3660	 3.0950
 0.3670	 3.0320
 0.3680	 2.9910
 0.3690	 2.9970
 0.3700	 3.0680
 0.3710	 3.1020
 0.3720	 3.0560
 0.3730	 3.0000
 0.3740	 3.0330
 0.3750	 3.0820
 0.3760	 3.0540
 0.3770	 3.0370
 0.3780	 3.0350
 0.3790	 3.0440
 0.3800	 3.0570
 0.3810	 3.0280
 0.3820	 3.0150
 0.3830	 3.0450
 0.3840	 3.0330
 0.3850	 3.0740
 0.3860	 3.1110
 0.3870	 3.0710
 0.3880	 3.1420
 0.3890	 3.1410
 0.3900	 3.0740
 0.3910	 3.1430
 0.3920	 3.1530
 0.3930	 3.1390
 0.3940	 3.1440
 0.3950	 3.1120
 0.3960	 3.1310
 0.3970	 3.1870
 0.3980	 3.2230
 0.3990	 3.2240
 0.4000	 3.2330
 0.4010	 3.2730
 0.4020	 3.3300
 0.4030	 3.3770
 0.4040	 3.3950
 0.4050	 3.3920
 0.4060	 3.4540
 0.4070	 3.4880
 0.4080	 3.5020
 0.4090	 3.5630
 0.4100	 3.5920
 0.4110	 3.6180
 0.4120	 3.6660
 0.4130	 3.7340
 0.4140	 3.7700
 0.4150	 3.7890
 0.4160	 3.8270
 0.4170	 3.9160
 0.4180	 3.9800
 0.4190	 4.0120
 0.4200	 4.0720
 0.4210	 4.1320
 0.4220	 4.1760
 0.4230	 4.2060
 0.4240	 4.2650
 0.4250	 4.3250
 0.4260	 4.3720
 0.4270	 4.4050
 0.4280	 4.4540
 0.4290	 4.4980
 0.4300	 4.5310
 0.4310	 4.5720
 0.4320	 4.6140
 0.4330	 4.6570
 0.4340	 4.7000
 0.4350	 4.7300
 0.4360	 4.7600
 0.4370	 4.7930
 0.4380	 4.8220
 0.4390	 4.8490
 0.4400	 4.8810
 0.4410	 4.9160
 0.4420	 4.9360
 0.4430	 4.9570
 0.4440	 4.9900
 0.4450	 5.0380
 0.4460	 5.0770
 0.4470	 5.1070
 0.4480	 5.1360
 0.4490	 5.1750
 0.4500	 5.2100
 0.4510	 5.2370
 0.4520	 5.2610
 0.4530	 5.2900
 0.4540	 5.3210
 0.4550	 5.3530
 0.4560	 5.3830
 0.4570	 5.4080
 0.4580	 5.4230
 0.4590	 5.4330
 0.4600	 5.4600
 0.4610	 5.4730
 0.4620	 5.4790
 0.4630	 5.4990
 0.4640	 5.5210
 0.4650	 5.5340
 0.4660	 5.5370
 0.4670	 5.5390
 0.4680	 5.5500
 0.4690	 5.5550
 0.4700	 5.5480
 0.4710	 5.5590
 0.4720	 5.5780
 0.4730	 5.5920
 0.4740	 5.5870
 0.4750	 5.5900
 0.4760	 5.6000
 0.4770	 5.6100
 0.4780	 5.6050
 0.4790	 5.6140
 0.4800	 5.6320
 0.4810	 5.6470
 0.4820	 5.6570
 0.4830	 5.6770
 0.4840	 5.7020
 0.4850	 5.7110
 0.4860	 5.7320
 0.4870	 5.7560
 0.4880	 5.7760
 0.4890	 5.8100
 0.4900	 5.8510
 0.4910	 5.8940
 0.4920	 5.9350
 0.4930	 5.9890
 0.4940	 6.0480
 0.4950	 6.1070
 0.4960	 6.1740
 0.4970	 6.2440
 0.4980	 6.3180
 0.4990	 6.3970
 0.5000	 6.4870
 0.5010	 6.5910
 0.5020	 6.7040
 0.5030	 6.8200
 0.5040	 6.9520
 0.5050	 7.0980
 0.5060	 7.2540
 0.5070	 7.4230
 0.5080	 7.5970
 0.5090	 7.7810
 0.5100	 7.9880
 0.5110	 8.2040
 0.5120	 8.4300
 0.5130	 8.6670
 0.5140	 8.9120
 0.5150	 9.1790
 0.5160	 9.4590
 0.5170	 9.7390
 0.5180	10.0340
 0.5190	10.3310
 0.5200	10.6260
 0.5210	10.9230
 0.5220	11.2180
 0.5230	11.5080
 0.5240	11.7940
 0.5250	12.0770
 0.5260	12.3440
 0.5270	12.5950
 0.5280	12.8360
 0.5290	13.0560
 0.5300	13.2670
 0.5310	13.4710
 0.5320	13.6560
 0.5330	13.8240
 0.5340	13.9790
 0.5350	14.1230
 0.5360	14.2500
 0.5370	14.3740
 0.5380	14.4930
 0.5390	14.5970
 0.5400	14.7010
 0.5410	14.8080
 0.5420	14.9110
 0.5430	15.0050
 0.5440	15.0860
 0.5450	15.1570
 0.5460	15.2180
 0.5470	15.2540
 0.5480	15.2860
 0.5490	15.3220
 0.5500	15.3540
 0.5510	15.3860
 0.5520	15.4090
 0.5530	15.4120
 0.5540	15.4020
 0.5550	15.3830
 0.5560	15.3520
 0.5570	15.3080
 0.5580	15.2550
 0.5590	15.1940
 0.5600	15.1210
 0.5610	15.0300
 0.5620	14.9270
 0.5630	14.8130
 0.5640	14.6870
 0.5650	14.5520
 0.5660	14.4160
 0.5670	14.2810
 0.5680	14.1350
 0.5690	13.9840
 0.5700	13.8320
 0.5710	13.6810
 0.5720	13.5230
 0.5730	13.3650
 0.5740	13.2100
 0.5750	13.0600
 0.5760	12.9250
 0.5770	12.7980
 0.5780	12.6790
 0.5790	12.5740
 0.5800	12.4710
 0.5810	12.3690
 0.5820	12.2730
 0.5830	12.1840
 0.5840	12.1030
 0.5850	12.0310
 0.5860	11.9670
 0.5870	11.9060
 0.5880	11.8440
 0.5890	11.7810
 0.5900	11.7230
 0.5910	11.6730
 0.5920	11.6250
 0.5930	11.5750
 0.5940	11.5330
 0.5950	11.4980
 0.5960	11.4690
 0.5970	11.4490
 0.5980	11.4320
 0.5990	11.4100
 0.6000	11.3750
 0.6010	11.3350
 0.6020	11.2890
 0.6030	11.2370
 0.6040	11.1740
 0.6050	11.0990
 0.6060	11.0150
 0.6070	10.9270
 0.6080	10.8350
 0.6090	10.7430
 0.6100	10.6550
 0.6110	10.5670
 0.6120	10.4640
 0.6130	10.3490
 0.6140	10.2310
 0.6150	10.1260
 0.6160	10.0220
 0.6170	 9.9250
 0.6180	 9.8440
 0.6190	 9.7680
 0.6200	 9.6990
 0.6210	 9.6360
 0.6220	 9.5810
 0.6230	 9.5340
 0.6240	 9.4950
 0.6250	 9.4610
 0.6260	 9.4330
 0.6270	 9.4110
 0.6280	 9.3940
 0.6290	 9.3830
 0.6300	 9.3730
 0.6310	 9.3610
 0.6320	 9.3440
 0.6330	 9.3220
 0.6340	 9.2890
 0.6350	 9.2470
 0.6360	 9.1960
 0.6370	 9.1320
 0.6380	 9.0570
 0.6390	 8.9720
 0.6400	 8.8750
 0.6410	 8.7690
 0.6420	 8.6590
 0.6430	 8.5450
 0.6440	 8.4260
 0.6450	 8.2990
 0.6460	 8.1740
 0.6470	 8.0600
 0.6480	 7.9500
 0.6490	 7.8490
 0.6500	 7.7580
 0.6510	 7.6770
 0.6520	 7.5980
 0.6530	 7.5200
 0.6540	 7.4430
 0.6550	 7.3620
 0.6560	 7.2710
 0.6570	 7.1710
 0.6580	 7.0660
 0.6590	 6.9530
 0.6600	 6.8360
 0.6610	 6.7160
 0.6620	 6.5960
 0.6630	 6.4790
 0.6640	 6.3700
 0.6650	 6.2690
 0.6660	 6.1820
 0.6670	 6.1030
 0.6680	 6.0330
 0.6690	 5.9780
 0.6700	 5.9310
 0.6710	 5.8930
 0.6720	 5.8640
 0.6730	 5.8470
 0.6740	 5.8360
 0.6750	 5.8300
 0.6760	 5.8310
 0.6770	 5.8380
 0.6780	 5.8540
 0.6790	 5.8810
 0.6800	 5.9190
 0.6810	 5.9740
 0.6820	 6.0440
 0.6830	 6.1330
 0.6840	 6.2610
 0.6850	 6.4220
 0.6860	 6.6200
 0.6870	 6.8660
 0.6880	 7.1700
 0.6890	 7.5300
 0.6900	 7.9500
 0.6910	 8.4410
 0.6920	 9.0000
 0.6930	 9.6200
 0.6940	10.2970
 0.6950	11.0310
 0.6960	11.8070
 0.6970	12.6160
 0.6980	13.4520
 0.6990	14.3130
 0.7000	15.1900
 0.7010	16.0710
 0.7020	16.9430
 0.7030	17.8060
 0.7040	18.6540
 0.7050	19.4810
 0.7060	20.2830
 0.7070	21.0600
 0.7080	21.8150
 0.7090	22.5530
 0.7100	23.2530
 0.7110	23.9330
 0.7120	24.5960
 0.7130	25.2330
 0.7140	25.8400
 0.7150	26.4230
 0.7160	26.9880
 0.7170	27.5300
 0.7180	28.0490
 0.7190	28.5450
 0.7200	29.0190
 0.7210	29.4760
 0.7220	29.9050
 0.7230	30.3070
 0.7240	30.6950
 0.7250	31.0620
 0.7260	31.4050
 0.7270	31.7220
 0.7280	32.0190
 0.7290	32.3020
 0.7300	32.5670
 0.7310	32.8090
 0.7320	33.0370
 0.7330	33.2510
 0.7340	33.4490
 0.7350	33.6300
 0.7360	33.8010
 0.7370	33.9620
 0.7380	34.1140
 0.7390	34.2560
 0.7400	34.3850
 0.7410	34.5010
 0.7420	34.6070
 0.7430	34.7100
 0.7440	34.8070
 0.7450	34.8950
 0.7460	34.9710
 0.7470	35.0450
 0.7480	35.1140
 0.7490	35.1750
 0.7500	35.2350
 0.7510	35.2900
 0.7520	35.3400
 0.7530	35.3840
 0.7540	35.4210
 0.7550	35.4560
 0.7560	35.4910
 0.7570	35.5270
 0.7580	35.5600
 0.7590	35.5860
 0.7600	35.6070
 0.7610	35.6340
 0.7620	35.6630
 0.7630	35.6910
 0.7640	35.7150
 0.7650	35.7340
 0.7660	35.7500
 0.7670	35.7660
 0.7680	35.7840
 0.7690	35.8000
 0.7700	35.8120
 0.7710	35.8230
 0.7720	35.8430
 0.7730	35.8590
 0.7740	35.8720
 0.7750	35.8870
 0.7760	35.9000
 0.7770	35.9140
 0.7780	35.9320
 0.7790	35.9500
 0.7800	35.9590
 0.7810	35.9710
 0.7820	35.9880
 0.7830	36.0010
 0.7840	36.0130
 0.7850	36.0240
 0.7860	36.0340
 0.7870	36.0510
 0.7880	36.0590
 0.7890	36.0650
 0.7900	36.0810
 0.7910	36.0950
 0.7920	36.1070
 0.7930	36.1170
 0.7940	36.1250
 0.7950	36.1300
 0.7960	36.1350
 0.7970	36.1430
 0.7980	36.1480
 0.7990	36.1500
 0.8000	36.1520
 0.8010	36.1610
 0.8020	36.1720
 0.8030	36.1790
 0.8040	36.1790
 0.8050	36.1740
 0.8060	36.1750
 0.8070	36.1740
 0.8080	36.1700
 0.8090	36.1660
 0.8100	36.1700
 0.8110	36.1720
 0.8120	36.1660
 0.8130	36.1580
 0.8140	36.1560
 0.8150	36.1520
 0.8160	36.1400
 0.8170	36.1340
 0.8180	36.1280
 0.8190	36.1210
 0.8200	36.1140
 0.8210	36.1030
 0.8220	36.0950
 0.8230	36.0920
 0.8240	36.0870
 0.8250	36.0740
 0.8260	36.0630
 0.8270	36.0530
 0.8280	36.0370
 0.8290	36.0280
 0.8300	36.0190
 0.8310	36.0030
 0.8320	35.9810
 0.8330	35.9700
 0.8340	35.9690
 0.8350	35.9610
 0.8360	35.9470
 0.8370	35.9390
 0.8380	35.9350
 0.8390	35.9260
 0.8400	35.9180
 0.8410	35.9140
 0.8420	35.9120
 0.8430	35.9060
 0.8440	35.8970
 0.8450	35.8950
 0.8460	35.9020
 0.8470	35.8910
 0.8480	35.8820
 0.8490	35.8800
 0.8500	35.8860
 0.8510	35.8860
 0.8520	35.8800
 0.8530	35.8750
 0.8540	35.8800
 0.8550	35.8780
 0.8560	35.8750
 0.8570	35.8720
 0.8580	35.8680
 0.8590	35.8750
 0.8600	35.8810
 0.8610	35.8790
 0.8620	35.8840
 0.8630	35.8880
 0.8640	35.8890
 0.8650	35.8900
 0.8660	35.8980
 0.8670	35.9050
 0.8680	35.9090
 0.8690	35.9110
 0.8700	35.9270
 0.8710	35.9340
 0.8720	35.9310
 0.8730	35.9330
 0.8740	35.9430
 0.8750	35.9540
 0.8760	35.9620
 0.8770	35.9660
 0.8780	35.9810
 0.8790	35.9930
 0.8800	35.9990
 0.8810	36.0120
 0.8820	36.0290
 0.8830	36.0370
 0.8840	36.0340
 0.8850	36.0470
 0.8860	36.0670
 0.8870	36.0830
 0.8880	36.0920
 0.8890	36.1030
 0.8900	36.1160
 0.8910	36.1260
 0.8920	36.1330
 0.8930	36.1470
 0.8940	36.1680
 0.8950	36.1870
 0.8960	36.1980
 0.8970	36.2130
 0.8980	36.2250
 0.8990	36.2300
 0.9000	36.2360
 0.9010	36.2540
 0.9020	36.2730
 0.9030	36.2850
 0.9040	36.2930
 0.9050	36.3060
 0.9060	36.3210
 0.9070	36.3360
 0.9080	36.3560
 0.9090	36.3680
 0.9100	36.3780
 0.9110	36.3910
 0.9120	36.4030
 0.9130	36.4190
 0.9140	36.4320
 0.9150	36.4340
 0.9160	36.4480
 0.9170	36.4580
 0.9180	36.4610
 0.9190	36.4580
 0.9200	36.4730
 0.9210	36.4840
 0.9220	36.4870
 0.9230	36.4850
 0.9240	36.4870
 0.9250	36.4860
 0.9260	36.4810
 0.9270	36.4780
 0.9280	36.4800
 0.9290	36.4750
 0.9300	36.4630
 0.9310	36.4520
 0.9320	36.4410
 0.9330	36.4240
 0.9340	36.4050
 0.9350	36.3960
 0.9360	36.3950
 0.9370	36.3810
 0.9380	36.3510
 0.9390	36.3270
 0.9400	36.3160
 0.9410	36.2960
 0.9420	36.2580
 0.9430	36.2300
 0.9440	36.1960
 0.9450	36.1610
 0.9460	36.1280
 0.9470	36.0760
 0.9480	36.0320
 0.9490	35.9870
 0.9500	35.9330
 0.9510	35.8880
 0.9520	35.8370
 0.9530	35.7740
 0.9540	35.7050
 0.9550	35.6550
 0.9560	35.6000
 0.9570	35.5360
 0.9580	35.4740
 0.9590	35.4450
 0.9600	35.4000
 0.9610	35.3560
 0.9620	35.3360
 0.9630	35.3110
 0.9640	35.2870
 0.9650	35.2680
 0.9660	35.2580
 0.9670	35.2440
 0.9680	35.2430
 0.9690	35.2410
 0.9700	35.2200
 0.9710	35.2200
 0.9720	35.2140
 0.9730	35.2010
 0.9740	35.1930
 0.9750	35.1890
 0.9760	35.1990
 0.9770	35.2080
 0.9780	35.2020
 0.9790	35.2090
 0.9800	35.2320
 0.9810	35.2530
 0.9820	35.2520
 0.9830	35.2570
 0.9840	35.2770
 0.9850	35.2920
 0.9860	35.2780
 0.9870	35.2880
 0.9880	35.3270
 0.9890	35.3660
 0.9900	35.3750
 0.9910	35.4000
 0.9920	35.4540
 0.9930	35.5070
 0.9940	35.5610
 0.9950	35.6150
 0.9960	35.6680
 0.9970	35.7220
 0.9980	35.7750
 0.9990	35.8290
 1.0000	35.8820
 1.0010	35.9360
 1.0020	35.9890
 1.0030	36.0430
 1.0040	36.0960
 1.0050	36.1500
 1.0060	36.2030
 1.0070	36.2570
 1.0080	36.3100
 1.0090	36.3640
 1.0100	36.3640
 1.0110	36.3870
 1.0120	36.4080
 1.0130	36.4300
 1.0140	36.4520
 1.0150	36.4710
 1.0160	36.4910
 1.0170	36.5140
 1.0180	36.5300
 1.0190	36.5460
 1.0200	36.5690
 1.0210	36.5890
 1.0220	36.6080
 1.0230	36.6250
 1.0240	36.6380
 1.0250	36.6550
 1.0260	36.6740
 1.0270	36.6920
 1.0280	36.7130
 1.0290	36.7320
 1.0300	36.7490
 1.0310	36.7650
 1.0320	36.7800
 1.0330	36.7970
 1.0340	36.8160
 1.0350	36.8340
 1.0360	36.8530
 1.0370	36.8720
 1.0380	36.8910
 1.0390	36.9100
 1.0400	36.9250
 1.0410	36.9390
 1.0420	36.9530
 1.0430	36.9620
 1.0440	36.9740
 1.0450	36.9900
 1.0460	37.0030
 1.0470	37.0130
 1.0480	37.0240
 1.0490	37.0360
 1.0500	37.0460
 1.0510	37.0570
 1.0520	37.0680
 1.0530	37.0740
 1.0540	37.0770
 1.0550	37.0830
 1.0560	37.0860
 1.0570	37.0930
 1.0580	37.1050
 1.0590	37.1110
 1.0600	37.1170
 1.0610	37.1210
 1.0620	37.1200
 1.0630	37.1220
 1.0640	37.1270
 1.0650	37.1280
 1.0660	37.1270
 1.0670	37.1260
 1.0680	37.1240
 1.0690	37.1180
 1.0700	37.1150
 1.0710	37.1130
 1.0720	37.1100
 1.0730	37.1080
 1.0740	37.1030
 1.0750	37.0970
 1.0760	37.0920
 1.0770	37.0850
 1.0780	37.0780
 1.0790	37.0710
 1.0800	37.0630
 1.0810	37.0540
 1.0820	37.0460
 1.0830	37.0400
 1.0840	37.0320
 1.0850	37.0240
 1.0860	37.0140
 1.0870	37.0040
 1.0880	36.9920
 1.0890	36.9810
 1.0900	36.9700
 1.0910	36.9600
 1.0920	36.9500
 1.0930	36.9390
 1.0940	36.9310
 1.0950	36.9180
 1.0960	36.8980
 1.0970	36.8830
 1.0980	36.8650
 1.0990	36.8500
 1.1000	36.8410
 1.1010	36.8280
 1.1020	36.8130
 1.1030	36.7990
 1.1040	36.7900
 1.1050	36.7770
 1.1060	36.7660
 1.1070	36.7580
 1.1080	36.7450
 1.1090	36.7280
 1.1100	36.7120
 1.1110	36.6960
 1.1120	36.6800
 1.1130	36.6650
 1.1140	36.6490
 1.1150	36.6330
 1.1160	36.6140
 1.1170	36.5950
 1.1180	36.5730
 1.1190	36.5470
 1.1200	36.5210
 1.1210	36.4930
 1.1220	36.4600
 1.1230	36.4270
 1.1240	36.3880
 1.1250	36.3430
 1.1260	36.2940
 1.1270	36.2370
 1.1280	36.1740
 1.1290	36.1040
 1.1300	36.0300
 1.1310	35.9460
 1.1320	35.8530
 1.1330	35.7550
 1.1340	35.6500
 1.1350	35.5370
 1.1360	35.4180
 1.1370	35.2910
 1.1380	35.1590
 1.1390	35.0220
 1.1400	34.8790
 1.1410	34.7360
 1.1420	34.5930
 1.1430	34.4480
 1.1440	34.3070
 1.1450	34.1680
 1.1460	34.0320
 1.1470	33.8940
 1.1480	33.7670
 1.1490	33.6410
 1.1500	33.5290
 1.1510	33.4260
 1.1520	33.3310
 1.1530	33.2460
 1.1540	33.1680
 1.1550	33.0980
 1.1560	33.0350
 1.1570	32.9820
 1.1580	32.9380
 1.1590	32.8970
 1.1600	32.8610
 1.1610	32.8300
 1.1620	32.8030
 1.1630	32.7800
 1.1640	32.7620
 1.1650	32.7450
 1.1660	32.7310
 1.1670	32.7180
 1.1680	32.7060
 1.1690	32.6950
 1.1700	32.6860
 1.1710	32.6770
 1.1720	32.6680
 1.1730	32.6600
 1.1740	32.6540
 1.1750	32.6440
 1.1760	32.6330
 1.1770	32.6230
 1.1780	32.6110
 1.1790	32.5980
 1.1800	32.5870
 1.1810	32.5750
 1.1820	32.5630
 1.1830	32.5500
 1.1840	32.5360
 1.1850	32.5240
 1.1860	32.5120
 1.1870	32.5010
 1.1880	32.4920
 1.1890	32.4840
 1.1900	32.4770
 1.1910	32.4710
 1.1920	32.4670
 1.1930	32.4640
 1.1940	32.4640
 1.1950	32.4670
 1.1960	32.4710
 1.1970	32.4760
 1.1980	32.4820
 1.1990	32.4890
 1.2000	32.4980
 1.2010	32.5110
 1.2020	32.5220
 1.2030	32.5350
 1.2040	32.5500
 1.2050	32.5640
 1.2060	32.5800
 1.2070	32.5980
 1.2080	32.6150
 1.2090	32.6360
 1.2100	32.6560
 1.2110	32.6770
 1.2120	32.6990
 1.2130	32.7210
 1.2140	32.7420
 1.2150	32.7640
 1.2160	32.7870
 1.2170	32.8110
 1.2180	32.8360
 1.2190	32.8610
 1.2200	32.8850
 1.2210	32.9120
 1.2220	32.9380
 1.2230	32.9620
 1.2240	32.9870
 1.2250	33.0110
 1.2260	33.0340
 1.2270	33.0570
 1.2280	33.0790
 1.2290	33.1010
 1.2300	33.1210
 1.2310	33.1400
 1.2320	33.1610
 1.2330	33.1810
 1.2340	33.2000
 1.2350	33.2180
 1.2360	33.2360
 1.2370	33.2520
 1.2380	33.2680
 1.2390	33.2870
 1.2400	33.3040
 1.2410	33.3200
 1.2420	33.3340
 1.2430	33.3470
 1.2440	33.3590
 1.2450	33.3710
 1.2460	33.3840
 1.2470	33.3960
 1.2480	33.4080
 1.2490	33.4200
 1.2500	33.4310
 1.2510	33.4400
 1.2520	33.4480
 1.2530	33.4540
 1.2540	33.4590
 1.2550	33.4650
 1.2560	33.4700
 1.2570	33.4760
 1.2580	33.4830
 1.2590	33.4860
 1.2600	33.4860
 1.2610	33.4870
 1.2620	33.4860
 1.2630	33.4830
 1.2640	33.4810
 1.2650	33.4790
 1.2660	33.4750
 1.2670	33.4700
 1.2680	33.4650
 1.2690	33.4600
 1.2700	33.4520
 1.2710	33.4440
 1.2720	33.4360
 1.2730	33.4250
 1.2740	33.4120
 1.2750	33.3990
 1.2760	33.3830
 1.2770	33.3700
 1.2780	33.3570
 1.2790	33.3420
 1.2800	33.3240
 1.2810	33.3040
 1.2820	33.2820
 1.2830	33.2600
 1.2840	33.2390
 1.2850	33.2130
 1.2860	33.1850
 1.2870	33.1550
 1.2880	33.1210
 1.2890	33.0830
 1.2900	33.0440
 1.2910	33.0020
 1.2920	32.9560
 1.2930	32.9110
 1.2940	32.8630
 1.2950	32.8130
 1.2960	32.7620
 1.2970	32.7080
 1.2980	32.6510
 1.2990	32.5900
 1.3000	32.5260
 1.3010	32.4590
 1.3020	32.3910
 1.3030	32.3210
 1.3040	32.2500
 1.3050	32.1750
 1.3060	32.0980
 1.3070	32.0190
 1.3080	31.9360
 1.3090	31.8500
 1.3100	31.7630
 1.3110	31.6720
 1.3120	31.5790
 1.3130	31.4860
 1.3140	31.3890
 1.3150	31.2870
 1.3160	31.1870
 1.3170	31.0850
 1.3180	30.9810
 1.3190	30.8730
 1.3200	30.7640
 1.3210	30.6500
 1.3220	30.5330
 1.3230	30.4170
 1.3240	30.2980
 1.3250	30.1800
 1.3260	30.0590
 1.3270	29.9360
 1.3280	29.8130
 1.3290	29.6880
 1.3300	29.5610
 1.3310	29.4340
 1.3320	29.3070
 1.3330	29.1790
 1.3340	29.0520
 1.3350	28.9220
 1.3360	28.7920
 1.3370	28.6630
 1.3380	28.5350
 1.3390	28.4070
 1.3400	28.2810
 1.3410	28.1560
 1.3420	28.0320
 1.3430	27.9070
 1.3440	27.7850
 1.3450	27.6630
 1.3460	27.5420
 1.3470	27.4230
 1.3480	27.3050
 1.3490	27.1880
 1.3500	27.0720
 1.3510	26.9580
 1.3520	26.8430
 1.3530	26.7270
 1.3540	26.6110
 1.3550	26.4930
 1.3560	26.3730
 1.3570	26.2530
 1.3580	26.1320
 1.3590	26.0090
 1.3600	25.8820
 1.3610	25.7500
 1.3620	25.6130
 1.3630	25.4720
 1.3640	25.3250
 1.3650	25.1700
 1.3660	25.0070
 1.3670	24.8340
 1.3680	24.6500
 1.3690	24.4560
 1.3700	24.2500
 1.3710	24.0330
 1.3720	23.8030
 1.3730	23.5570
 1.3740	23.2980
 1.3750	23.0240
 1.3760	22.7310
 1.3770	22.4190
 1.3780	22.0870
 1.3790	21.7390
 1.3800	21.3730
 1.3810	20.9900
 1.3820	20.5960
 1.3830	20.1870
 1.3840	19.7680
 1.3850	19.3370
 1.3860	18.9020
 1.3870	18.4530
 1.3880	18.0100
 1.3890	17.5620
 1.3900	17.1140
 1.3910	16.6750
 1.3920	16.2370
 1.3930	15.8040
 1.3940	15.3810
 1.3950	14.9620
 1.3960	14.5590
 1.3970	14.1710
 1.3980	13.7990
 1.3990	13.4470
 1.4000	13.1110
 1.4010	12.7910
 1.4020	12.4900
 1.4030	12.2050
 1.4040	11.9390
 1.4050	11.6900
 1.4060	11.4590
 1.4070	11.2470
 1.4080	11.0500
 1.4090	10.8660
 1.4100	10.6990
 1.4110	10.5440
 1.4120	10.4010
 1.4130	10.2720
 1.4140	10.1540
 1.4150	10.0480
 1.4160	 9.9510
 1.4170	 9.8620
 1.4180	 9.7820
 1.4190	 9.7090
 1.4200	 9.6420
 1.4210	 9.5810
 1.4220	 9.5270
 1.4230	 9.4790
 1.4240	 9.4360
 1.4250	 9.3970
 1.4260	 9.3640
 1.4270	 9.3330
 1.4280	 9.3060
 1.4290	 9.2810
 1.4300	 9.2600
 1.4310	 9.2420
 1.4320	 9.2270
 1.4330	 9.2140
 1.4340	 9.2040
 1.4350	 9.1950
 1.4360	 9.1890
 1.4370	 9.1850
 1.4380	 9.1830
 1.4390	 9.1820
 1.4400	 9.1840
 1.4410	 9.1870
 1.4420	 9.1910
 1.4430	 9.1970
 1.4440	 9.2030
 1.4450	 9.2100
 1.4460	 9.2190
 1.4470	 9.2290
 1.4480	 9.2380
 1.4490	 9.2500
 1.4500	 9.2620
 1.4510	 9.2750
 1.4520	 9.2890
 1.4530	 9.3030
 1.4540	 9.3190
 1.4550	 9.3360
 1.4560	 9.3540
 1.4570	 9.3740
 1.4580	 9.3970
 1.4590	 9.4220
 1.4600	 9.4500
 1.4610	 9.4790
 1.4620	 9.5120
 1.4630	 9.5480
 1.4640	 9.5870
 1.4650	 9.6290
 1.4660	 9.6740
 1.4670	 9.7210
 1.4680	 9.7720
 1.4690	 9.8260
 1.4700	 9.8820
 1.4710	 9.9420
 1.4720	10.0030
 1.4730	10.0670
 1.4740	10.1340
 1.4750	10.2020
 1.4760	10.2730
 1.4770	10.3450
 1.4780	10.4180
 1.4790	10.4940
 1.4800	10.5700
 1.4810	10.6480
 1.4820	10.7270
 1.4830	10.8070
 1.4840	10.8890
 1.4850	10.9720
 1.4860	11.0550
 1.4870	11.1400
 1.4880	11.2250
 1.4890	11.3110
 1.4900	11.3980
 1.4910	11.4850
 1.4920	11.5730
 1.4930	11.6620
 1.4940	11.7520
 1.4950	11.8440
 1.4960	11.9340
 1.4970	12.0240
 1.4980	12.1160
 1.4990	12.2080
 1.5000	12.3020
 1.5010	12.3970
 1.5020	12.4910
 1.5030	12.5860
 1.5040	12.6810
 1.5050	12.7750
 1.5060	12.8700
 1.5070	12.9650
 1.5080	13.0610
 1.5090	13.1580
 1.5100	13.2550
 1.5110	13.3500
 1.5120	13.4470
 1.5130	13.5430
 1.5140	13.6380
 1.5150	13.7350
 1.5160	13.8320
 1.5170	13.9280
 1.5180	14.0250
 1.5190	14.1210
 1.5200	14.2160
 1.5210	14.3100
 1.5220	14.4040
 1.5230	14.4980
 1.5240	14.5930
 1.5250	14.6880
 1.5260	14.7820
 1.5270	14.8760
 1.5280	14.9690
 1.5290	15.0610
 1.5300	15.1540
 1.5310	15.2450
 1.5320	15.3360
 1.5330	15.4270
 1.5340	15.5180
 1.5350	15.6090
 1.5360	15.7000
 1.5370	15.7890
 1.5380	15.8770
 1.5390	15.9660
 1.5400	16.0520
 1.5410	16.1390
 1.5420	16.2260
 1.5430	16.3130
 1.5440	16.4000
 1.5450	16.4850
 1.5460	16.5700
 1.5470	16.6540
 1.5480	16.7370
 1.5490	16.8200
 1.5500	16.9010
 1.5510	16.9830
 1.5520	17.0650
 1.5530	17.1460
 1.5540	17.2260
 1.5550	17.3070
 1.5560	17.3850
 1.5570	17.4630
 1.5580	17.5420
 1.5590	17.6180
 1.5600	17.6940
 1.5610	17.7690
 1.5620	17.8420
 1.5630	17.9160
 1.5640	17.9880
 1.5650	18.0600
 1.5660	18.1310
 1.5670	18.2010
 1.5680	18.2730
 1.5690	18.3400
 1.5700	18.4080
 1.5710	18.4750
 1.5720	18.5410
 1.5730	18.6080
 1.5740	18.6740
 1.5750	18.7390
 1.5760	18.8040
 1.5770	18.8660
 1.5780	18.9270
 1.5790	18.9900
 1.5800	19.0520
 1.5810	19.1150
 1.5820	19.1770
 1.5830	19.2360
 1.5840	19.2950
 1.5850	19.3530
 1.5860	19.4120
 1.5870	19.4690
 1.5880	19.5260
 1.5890	19.5810
 1.5900	19.6350
 1.5910	19.6890
 1.5920	19.7430
 1.5930	19.7970
 1.5940	19.8490
 1.5950	19.9020
 1.5960	19.9530
 1.5970	20.0020
 1.5980	20.0510
 1.5990	20.0980
 1.6000	20.1450
 1.6010	20.1920
 1.6020	20.2370
 1.6030	20.2810
 1.6040	20.3260
 1.6050	20.3680
 1.6060	20.4100
 1.6070	20.4510
 1.6080	20.4920
 1.6090	20.5300
 1.6100	20.5680
 1.6110	20.6040
 1.6120	20.6390
 1.6130	20.6740
 1.6140	20.7090
 1.6150	20.7420
 1.6160	20.7750
 1.6170	20.8060
 1.6180	20.8370
 1.6190	20.8690
 1.6200	20.8990
 1.6210	20.9290
 1.6220	20.9590
 1.6230	20.9870
 1.6240	21.0160
 1.6250	21.0440
 1.6260	21.0710
 1.6270	21.0970
 1.6280	21.1220
 1.6290	21.1480
 1.6300	21.1740
 1.6310	21.2000
 1.6320	21.2260
 1.6330	21.2520
 1.6340	21.2770
 1.6350	21.3040
 1.6360	21.3310
 1.6370	21.3590
 1.6380	21.3870
 1.6390	21.4130
 1.6400	21.4390
 1.6410	21.4640
 1.6420	21.4880
 1.6430	21.5100
 1.6440	21.5320
 1.6450	21.5510
 1.6460	21.5680
 1.6470	21.5850
 1.6480	21.6000
 1.6490	21.6130
 1.6500	21.6250
 1.6510	21.6350
 1.6520	21.6420
 1.6530	21.6460
 1.6540	21.6490
 1.6550	21.6500
 1.6560	21.6500
 1.6570	21.6470
 1.6580	21.6440
 1.6590	21.6400
 1.6600	21.6340
 1.6610	21.6290
 1.6620	21.6220
 1.6630	21.6150
 1.6640	21.6080
 1.6650	21.6000
 1.6660	21.5910
 1.6670	21.5820
 1.6680	21.5720
 1.6690	21.5610
 1.6700	21.5490
 1.6710	21.5340
 1.6720	21.5200
 1.6730	21.5040
 1.6740	21.4860
 1.6750	21.4660
 1.6760	21.4420
 1.6770	21.4170
 1.6780	21.3890
 1.6790	21.3600
 1.6800	21.3290
 1.6810	21.2950
 1.6820	21.2610
 1.6830	21.2260
 1.6840	21.1880
 1.6850	21.1490
 1.6860	21.1090
 1.6870	21.0670
 1.6880	21.0260
 1.6890	20.9840
 1.6900	20.9430
 1.6910	20.9040
 1.6920	20.8640
 1.6930	20.8240
 1.6940	20.7840
 1.6950	20.7430
 1.6960	20.7040
 1.6970	20.6650
 1.6980	20.6260
 1.6990	20.5870
 1.7000	20.5480
 1.7010	20.5080
 1.7020	20.4690
 1.7030	20.4310
 1.7040	20.3910
 1.7050	20.3520
 1.7060	20.3120
 1.7070	20.2700
 1.7080	20.2300
 1.7090	20.1910
 1.7100	20.1520
 1.7110	20.1140
 1.7120	20.0770
 1.7130	20.0390
 1.7140	20.0010
 1.7150	19.9650
 1.7160	19.9290
 1.7170	19.8930
 1.7180	19.8560
 1.7190	19.8180
 1.7200	19.7830
 1.7210	19.7480
 1.7220	19.7140
 1.7230	19.6790
 1.7240	19.6430
 1.7250	19.6070
 1.7260	19.5730
 1.7270	19.5390
 1.7280	19.5080
 1.7290	19.4760
 1.7300	19.4420
 1.7310	19.4090
 1.7320	19.3760
 1.7330	19.3420
 1.7340	19.3090
 1.7350	19.2740
 1.7360	19.2360
 1.7370	19.1990
 1.7380	19.1610
 1.7390	19.1200
 1.7400	19.0770
 1.7410	19.0330
 1.7420	18.9870
 1.7430	18.9390
 1.7440	18.8920
 1.7450	18.8400
 1.7460	18.7850
 1.7470	18.7310
 1.7480	18.6750
 1.7490	18.6190
 1.7500	18.5650
 1.7510	18.5090
 1.7520	18.4530
 1.7530	18.3950
 1.7540	18.3350
 1.7550	18.2770
 1.7560	18.2190
 1.7570	18.1610
 1.7580	18.1050
 1.7590	18.0500
 1.7600	17.9960
 1.7610	17.9450
 1.7620	17.8950
 1.7630	17.8460
 1.7640	17.7990
 1.7650	17.7530
 1.7660	17.7090
 1.7670	17.6680
 1.7680	17.6280
 1.7690	17.5880
 1.7700	17.5500
 1.7710	17.5160
 1.7720	17.4810
 1.7730	17.4480
 1.7740	17.4150
 1.7750	17.3830
 1.7760	17.3530
 1.7770	17.3240
 1.7780	17.2970
 1.7790	17.2710
 1.7800	17.2460
 1.7810	17.2230
 1.7820	17.2010
 1.7830	17.1790
 1.7840	17.1590
 1.7850	17.1390
 1.7860	17.1220
 1.7870	17.1070
 1.7880	17.0930
 1.7890	17.0800
 1.7900	17.0690
 1.7910	17.0590
 1.7920	17.0480
 1.7930	17.0400
 1.7940	17.0330
 1.7950	17.0280
 1.7960	17.0280
 1.7970	17.0250
 1.7980	17.0220
 1.7990	17.0200
 1.8000	17.0190
 1.8010	17.0180
 1.8020	17.0190
 1.8030	17.0190
 1.8040	17.0210
 1.8050	17.0200
 1.8060	17.0200
 1.8070	17.0200
 1.8080	17.0170
 1.8090	17.0160
 1.8100	17.0170
 1.8110	17.0150
 1.8120	17.0130
 1.8130	17.0130
 1.8140	17.0100
 1.8150	17.0070
 1.8160	17.0030
 1.8170	16.9980
 1.8180	16.9920
 1.8190	16.9850
 1.8200	16.9790
 1.8210	16.9720
 1.8220	16.9630
 1.8230	16.9530
 1.8240	16.9410
 1.8250	16.9280
 1.8260	16.9130
 1.8270	16.9230
 1.8280	16.9330
 1.8290	16.9430
 1.8300	16.9530
 1.8310	16.9640
 1.8320	16.9740
 1.8330	16.9840
 1.8340	16.9940
 1.8350	16.9940
 1.8360	16.9440
 1.8370	16.8940
 1.8380	16.8420
 1.8390	16.7840
 1.8400	16.7240
 1.8410	16.6560
 1.8420	16.5830
 1.8430	16.5040
 1.8440	16.4190
 1.8450	16.3280
 1.8460	16.2320
 1.8470	16.1290
 1.8480	16.0180
 1.8490	15.8990
 1.8500	15.7710
 1.8510	15.6360
 1.8520	15.4930
 1.8530	15.3400
 1.8540	15.1800
 1.8550	15.0110
 1.8560	14.8330
 1.8570	14.6450
 1.8580	14.4470
 1.8590	14.2400
 1.8600	14.0230
 1.8610	13.7940
 1.8620	13.5550
 1.8630	13.3080
 1.8640	13.0520
 1.8650	12.7840
 1.8660	12.5090
 1.8670	12.2240
 1.8680	11.9340
 1.8690	11.6340
 1.8700	11.3250
 1.8710	11.0070
 1.8720	10.6910
 1.8730	10.3690
 1.8740	10.0510
 1.8750	 9.7410
 1.8760	 9.4290
 1.8770	 9.1210
 1.8780	 8.8200
 1.8790	 8.5250
 1.8800	 8.2420
 1.8810	 7.9690
 1.8820	 7.7020
 1.8830	 7.4460
 1.8840	 7.1990
 1.8850	 6.9590
 1.8860	 6.7330
 1.8870	 6.5190
 1.8880	 6.3170
 1.8890	 6.1310
 1.8900	 5.9570
 1.8910	 5.7930
 1.8920	 5.6400
 1.8930	 5.5010
 1.8940	 5.3710
 1.8950	 5.2530
 1.8960	 5.1470
 1.8970	 5.0510
 1.8980	 4.9630
 1.8990	 4.8860
 1.9000	 4.8140
 1.9010	 4.7530
 1.9020	 4.6960
 1.9030	 4.6470
 1.9040	 4.6000
 1.9050	 4.5570
 1.9060	 4.5210
 1.9070	 4.4890
 1.9080	 4.4640
 1.9090	 4.4430
 1.9100	 4.4210
 1.9110	 4.4010
 1.9120	 4.3820
 1.9130	 4.3670
 1.9140	 4.3550
 1.9150	 4.3460
 1.9160	 4.3370
 1.9170	 4.3300
 1.9180	 4.3220
 1.9190	 4.3140
 1.9200	 4.3080
 1.9210	 4.3040
 1.9220	 4.3000
 1.9230	 4.2970
 1.9240	 4.2960
 1.9250	 4.2960
 1.9260	 4.2970
 1.9270	 4.2980
 1.9280	 4.3000
 1.9290	 4.3030
 1.9300	 4.3070
 1.9310	 4.3130
 1.9320	 4.3180
 1.9330	 4.3240
 1.9340	 4.3300
 1.9350	 4.3360
 1.9360	 4.3400
 1.9370	 4.3460
 1.9380	 4.3530
 1.9390	 4.3590
 1.9400	 4.3690
 1.9410	 4.3810
 1.9420	 4.3920
 1.9430	 4.4030
 1.9440	 4.4150
 1.9450	 4.4260
 1.9460	 4.4380
 1.9470	 4.4500
 1.9480	 4.4630
 1.9490	 4.4740
 1.9500	 4.4860
 1.9510	 4.4990
 1.9520	 4.5140
 1.9530	 4.5290
 1.9540	 4.5430
 1.9550	 4.5580
 1.9560	 4.5720
 1.9570	 4.5870
 1.9580	 4.6020
 1.9590	 4.6190
 1.9600	 4.6370
 1.9610	 4.6540
 1.9620	 4.6710
 1.9630	 4.6870
 1.9640	 4.7050
 1.9650	 4.7220
 1.9660	 4.7420
 1.9670	 4.7640
 1.9680	 4.7840
 1.9690	 4.8030
 1.9700	 4.8240
 1.9710	 4.8450
 1.9720	 4.8670
 1.9730	 4.8890
 1.9740	 4.9130
 1.9750	 4.9350
 1.9760	 4.9570
 1.9770	 4.9780
 1.9780	 4.9990
 1.9790	 5.0230
 1.9800	 5.0480
 1.9810	 5.0740
 1.9820	 5.1030
 1.9830	 5.1280
 1.9840	 5.1500
 1.9850	 5.1750
 1.9860	 5.1980
 1.9870	 5.2240
 1.9880	 5.2520
 1.9890	 5.2800
 1.9900	 5.3080
 1.9910	 5.3370
 1.9920	 5.3660
 1.9930	 5.3950
 1.9940	 5.4240
 1.9950	 5.4520
 1.9960	 5.4800
 1.9970	 5.5090
 1.9980	 5.5380
 1.9990	 5.5670
 2.0000	 5.5970
 2.0010	 5.6270
 2.0020	 5.6610
 2.0030	 5.6950
 2.0040	 5.7280
 2.0050	 5.7610
 2.0060	 5.7930
 2.0070	 5.8250
 2.0080	 5.8570
 2.0090	 5.8880
 2.0100	 5.9190
 2.0110	 5.9500
 2.0120	 5.9790
 2.0130	 6.0080
 2.0140	 6.0400
 2.0150	 6.0720
 2.0160	 6.1040
 2.0170	 6.1380
 2.0180	 6.1710
 2.0190	 6.2020
 2.0200	 6.2350
 2.0210	 6.2680
 2.0220	 6.3000
 2.0230	 6.3310
 2.0240	 6.3630
 2.0250	 6.3950
 2.0260	 6.4270
 2.0270	 6.4590
 2.0280	 6.4940
 2.0290	 6.5260
 2.0300	 6.5580
 2.0310	 6.5890
 2.0320	 6.6180
 2.0330	 6.6490
 2.0340	 6.6800
 2.0350	 6.7110
 2.0360	 6.7440
 2.0370	 6.7760
 2.0380	 6.8090
 2.0390	 6.8400
 2.0400	 6.8680
 2.0410	 6.8990
 2.0420	 6.9290
 2.0430	 6.9590
 2.0440	 6.9910
 2.0450	 7.0270
 2.0460	 7.0590
 2.0470	 7.0900
 2.0480	 7.1210
 2.0490	 7.1500
 2.0500	 7.1800
 2.0510	 7.2130
 2.0520	 7.2450
 2.0530	 7.2760
 2.0540	 7.3070
 2.0550	 7.3360
 2.0560	 7.3670
 2.0570	 7.3990
 2.0580	 7.4330
 2.0590	 7.4680
 2.0600	 7.5050
 2.0610	 7.5380
 2.0620	 7.5700
 2.0630	 7.6040
 2.0640	 7.6360
 2.0650	 7.6700
 2.0660	 7.7060
 2.0670	 7.7410
 2.0680	 7.7760
 2.0690	 7.8100
 2.0700	 7.8430
 2.0710	 7.8770
 2.0720	 7.9100
 2.0730	 7.9440
 2.0740	 7.9770
 2.0750	 8.0120
 2.0760	 8.0450
 2.0770	 8.0760
 2.0780	 8.1080
 2.0790	 8.1400
 2.0800	 8.1730
 2.0810	 8.2080
 2.0820	 8.2420
 2.0830	 8.2770
 2.0840	 8.3120
 2.0850	 8.3460
 2.0860	 8.3800
 2.0870	 8.4130
 2.0880	 8.4470
 2.0890	 8.4810
 2.0900	 8.5150
 2.0910	 8.5490
 2.0920	 8.5830
 2.0930	 8.6160
 2.0940	 8.6480
 2.0950	 8.6810
 2.0960	 8.7140
 2.0970	 8.7460
 2.0980	 8.7780
 2.0990	 8.8100
 2.1000	 8.8410
 2.1010	 8.8720
 2.1020	 8.9040
 2.1030	 8.9350
 2.1040	 8.9640
 2.1050	 8.9940
 2.1060	 9.0250
 2.1070	 9.0580
 2.1080	 9.0890
 2.1090	 9.1220
 2.1100	 9.1530
 2.1110	 9.1820
 2.1120	 9.2110
 2.1130	 9.2420
 2.1140	 9.2720
 2.1150	 9.3030
 2.1160	 9.3310
 2.1170	 9.3570
 2.1180	 9.3830
 2.1190	 9.4060
 2.1200	 9.4310
 2.1210	 9.4580
 2.1220	 9.4850
 2.1230	 9.5110
 2.1240	 9.5370
 2.1250	 9.5620
 2.1260	 9.5860
 2.1270	 9.6100
 2.1280	 9.6350
 2.1290	 9.6600
 2.1300	 9.6860
 2.1310	 9.7090
 2.1320	 9.7300
 2.1330	 9.7520
 2.1340	 9.7690
 2.1350	 9.7880
 2.1360	 9.8100
 2.1370	 9.8300
 2.1380	 9.8500
 2.1390	 9.8680
 2.1400	 9.8840
 2.1410	 9.8970
 2.1420	 9.9130
 2.1430	 9.9280
 2.1440	 9.9440
 2.1450	 9.9640
 2.1460	 9.9810
 2.1470	 9.9980
 2.1480	10.0130
 2.1490	10.0260
 2.1500	10.0430
 2.1510	10.0640
 2.1520	10.0800
 2.1530	10.0980
 2.1540	10.1130
 2.1550	10.1240
 2.1560	10.1360
 2.1570	10.1490
 2.1580	10.1630
 2.1590	10.1780
 2.1600	10.1920
 2.1610	10.2050
 2.1620	10.2190
 2.1630	10.2290
 2.1640	10.2350
 2.1650	10.2440
 2.1660	10.2490
 2.1670	10.2600
 2.1680	10.2760
 2.1690	10.2880
 2.1700	10.3030
 2.1710	10.3150
 2.1720	10.3250
 2.1730	10.3360
 2.1740	10.3470
 2.1750	10.3570
 2.1760	10.3650
 2.1770	10.3740
 2.1780	10.3820
 2.1790	10.3920
 2.1800	10.4040
 2.1810	10.4150
 2.1820	10.4270
 2.1830	10.4350
 2.1840	10.4420
 2.1850	10.4440
 2.1860	10.4510
 2.1870	10.4580
 2.1880	10.4660
 2.1890	10.4780
 2.1900	10.4860
 2.1910	10.4920
 2.1920	10.4980
 2.1930	10.5030
 2.1940	10.5080
 2.1950	10.5150
 2.1960	10.5180
 2.1970	10.5160
 2.1980	10.5170
 2.1990	10.5160
 2.2000	10.5160
 2.2010	10.5200
 2.2020	10.5210
 2.2030	10.5160
 2.2040	10.5160
 2.2050	10.5190
 2.2060	10.5200
 2.2070	10.5180
 2.2080	10.5160
 2.2090	10.5110
 2.2100	10.4980
 2.2110	10.4910
 2.2120	10.4840
 2.2130	10.4780
 2.2140	10.4750
 2.2150	10.4700
 2.2160	10.4640
 2.2170	10.4590
 2.2180	10.4520
 2.2190	10.4430
 2.2200	10.4350
 2.2210	10.4240
 2.2220	10.4080
 2.2230	10.3950
 2.2240	10.3830
 2.2250	10.3680
 2.2260	10.3530
 2.2270	10.3360
 2.2280	10.3150
 2.2290	10.2940
 2.2300	10.2720
 2.2310	10.2490
 2.2320	10.2270
 2.2330	10.2030
 2.2340	10.1790
 2.2350	10.1550
 2.2360	10.1290
 2.2370	10.1020
 2.2380	10.0720
 2.2390	10.0400
 2.2400	10.0060
 2.2410	 9.9680
 2.2420	 9.9330
 2.2430	 9.8960
 2.2440	 9.8640
 2.2450	 9.8330
 2.2460	 9.8040
 2.2470	 9.7810
 2.2480	 9.7520
 2.2490	 9.7200
 2.2500	 9.6890
 2.2510	 9.6550
 2.2520	 9.6210
 2.2530	 9.5840
 2.2540	 9.5480
 2.2550	 9.5110
 2.2560	 9.4740
 2.2570	 9.4370
 2.2580	 9.4000
 2.2590	 9.3670
 2.2600	 9.3290
 2.2610	 9.2880
 2.2620	 9.2490
 2.2630	 9.2010
 2.2640	 9.1500
 2.2650	 9.1030
 2.2660	 9.0560
 2.2670	 9.0160
 2.2680	 8.9810
 2.2690	 8.9440
 2.2700	 8.9120
 2.2710	 8.8740
 2.2720	 8.8320
 2.2730	 8.7950
 2.2740	 8.7590
 2.2750	 8.7250
 2.2760	 8.6960
 2.2770	 8.6630
 2.2780	 8.6290
 2.2790	 8.5960
 2.2800	 8.5630
 2.2810	 8.5320
 2.2820	 8.5000
 2.2830	 8.4700
 2.2840	 8.4420
 2.2850	 8.4140
 2.2860	 8.3880
 2.2870	 8.3610
 2.2880	 8.3320
 2.2890	 8.3030
 2.2900	 8.2740
 2.2910	 8.2420
 2.2920	 8.2030
 2.2930	 8.1710
 2.2940	 8.1380
 2.2950	 8.1060
 2.2960	 8.0810
 2.2970	 8.0520
 2.2980	 8.0190
 2.2990	 7.9880
 2.3000	 7.9640
 2.3010	 7.9350
 2.3020	 7.9090
 2.3030	 7.8890
 2.3040	 7.8660
 2.3050	 7.8400
 2.3060	 7.8140
 2.3070	 7.7910
 2.3080	 7.7700
 2.3090	 7.7520
 2.3100	 7.7340
 2.3110	 7.7170
 2.3120	 7.7040
 2.3130	 7.6910
 2.3140	 7.6810
 2.3150	 7.6790
 2.3160	 7.6710
 2.3170	 7.6590
 2.3180	 7.6490
 2.3190	 7.6400
 2.3200	 7.6260
 2.3210	 7.6110
 2.3220	 7.5920
 2.3230	 7.5660
 2.3240	 7.5430
 2.3250	 7.5200
 2.3260	 7.4980
 2.3270	 7.4810
 2.3280	 7.4580
 2.3290	 7.4300
 2.3300	 7.4070
 2.3310	 7.3800
 2.3320	 7.3560
 2.3330	 7.3390
 2.3340	 7.3160
 2.3350	 7.2900
 2.3360	 7.2660
 2.3370	 7.2380
 2.3380	 7.2150
 2.3390	 7.2000
 2.3400	 7.1760
 2.3410	 7.1470
 2.3420	 7.1220
 2.3430	 7.0930
 2.3440	 7.0660
 2.3450	 7.0440
 2.3460	 7.0200
 2.3470	 6.9910
 2.3480	 6.9660
 2.3490	 6.9410
 2.3500	 6.9220
 2.3510	 6.9100
 2.3520	 6.8940
 2.3530	 6.8780
 2.3540	 6.8660
 2.3550	 6.8430
 2.3560	 6.8180
 2.3570	 6.8010
 2.3580	 6.7800
 2.3590	 6.7650
 2.3600	 6.7540
 2.3610	 6.7300
 2.3620	 6.7070
 2.3630	 6.6790
 2.3640	 6.6510
 2.3650	 6.6380
 2.3660	 6.6220
 2.3670	 6.6040
 2.3680	 6.5870
 2.3690	 6.5660
 2.3700	 6.5450
 2.3710	 6.5200
 2.3720	 6.5000
 2.3730	 6.4760
 2.3740	 6.4520
 2.3750	 6.4270
 2.3760	 6.4020
 2.3770	 6.3820
 2.3780	 6.3550
 2.3790	 6.3370
 2.3800	 6.3210
 2.3810	 6.2910
 2.3820	 6.2700
 2.3830	 6.2490
 2.3840	 6.2200
 2.3850	 6.2000
 2.3860	 6.1780
 2.3870	 6.1570
 2.3880	 6.1470
 2.3890	 6.1340
 2.3900	 6.1140
 2.3910	 6.0960
 2.3920	 6.0760
 2.3930	 6.0540
 2.3940	 6.0410
 2.3950	 6.0170
 2.3960	 5.9930
 2.3970	 5.9770
 2.3980	 5.9570
 2.3990	 5.9350
 2.4000	 5.9160
 2.4010	 5.8850
 2.4020	 5.8500
 2.4030	 5.8270
 2.4040	 5.8030
 2.4050	 5.7930
 2.4060	 5.7880
 2.4070	 5.7700
 2.4080	 5.7590
 2.4090	 5.7330
 2.4100	 5.6970
 2.4110	 5.6720
 2.4120	 5.6540
 2.4130	 5.6330
 2.4140	 5.6170
 2.4150	 5.6030
 2.4160	 5.5710
 2.4170	 5.5410
 2.4180	 5.5160
 2.4190	 5.4810
 2.4200	 5.4510
 2.4210	 5.4380
 2.4220	 5.4270
 2.4230	 5.4050
 2.4240	 5.3880
 2.4250	 5.3650
 2.4260	 5.3340
 2.4270	 5.3280
 2.4280	 5.3220
 2.4290	 5.3070
 2.4300	 5.2890
 2.4310	 5.2750
 2.4320	 5.2740
 2.4330	 5.2520
 2.4340	 5.2340
 2.4350	 5.2110
 2.4360	 5.1670
 2.4370	 5.1380
 2.4380	 5.1170
 2.4390	 5.0950
 2.4400	 5.0710
 2.4410	 5.0650
 2.4420	 5.0750
 2.4430	 5.0660
 2.4440	 5.0510
 2.4450	 5.0250
 2.4460	 4.9810
 2.4470	 4.9420
 2.4480	 4.9250
 2.4490	 4.9160
 2.4500	 4.9130
 2.4510	 4.9060
 2.4520	 4.8880
 2.4530	 4.8760
 2.4540	 4.8600
 2.4550	 4.8500
 2.4560	 4.8500
 2.4570	 4.8310
 2.4580	 4.8150
 2.4590	 4.8070
 2.4600	 4.7820
 2.4610	 4.7730
 2.4620	 4.7540
 2.4630	 4.7200
 2.4640	 4.7110
 2.4650	 4.6960
 2.4660	 4.6900
 2.4670	 4.6980
 2.4680	 4.6970
 2.4690	 4.7000
 2.4700	 4.6880
 2.4710	 4.6570
 2.4720	 4.6330
 2.4730	 4.5990
 2.4740	 4.5780
 2.4750	 4.5710
 2.4760	 4.5570
 2.4770	 4.5460
 2.4780	 4.5420
 2.4790	 4.5360
 2.4800	 4.5390
 2.4810	 4.5490
 2.4820	 4.5610
 2.4830	 4.5730
 2.4840	 4.5470
 2.4850	 4.5290
 2.4860	 4.4980
 2.4870	 4.4570
 2.4880	 4.4420
 2.4890	 4.4520
 2.4900	 4.4890
 2.4910	 4.4800
 2.4920	 4.4650
 2.4930	 4.4470
 2.4940	 4.3670
 2.4950	 4.3490
 2.4960	 4.3750
 2.4970	 4.3830
 2.4980	 4.4100
 2.4990	 4.4200
 2.5000	 4.4090
