Name: Heteromeles arbutifolia 2
Type: vegetation
Class: Shrub
Genus: Heteromeles
Species: arbutifolia
Sample No.: VH015
Owner: UCSB
Wavelength Range: TIR
Origin: 34.4907; -119.7912; WGS84
Collection Date: 4/1/2013
Description: Samples were collected as part of the HyspIRI Airborne Campaign. 48 individual plants were sampled in three times in 2013 - spring  summer  and fall. The name of the sample includes a 1  2  or 3 which references a different individual of the species. Samples were taken to JPL and processed within 48 hours of collection. The same leaves were processed in the Nicolet and then measured using the ASD.
Measurement: Hemispherical reflectance
First Column: X
Second Column: Y
X Units: Wavelength (micrometers)
Y Units: Reflectance (percentage)
First X Value: 2.501
Last X Value: 15.387
Number of X Values: 1737
Additional Information: vegetation.shrub.heteromeles.arbutifolia.tir.vh015.ucsb.nicolet.ancillary.txt

 2.5010	 6.3950
 2.5030	 6.5130
 2.5040	 6.5370
 2.5050	 6.4220
 2.5060	 6.2570
 2.5070	 6.2700
 2.5090	 6.4400
 2.5100	 6.5030
 2.5110	 6.5640
 2.5120	 6.4680
 2.5140	 6.4200
 2.5150	 6.3740
 2.5160	 6.4720
 2.5170	 6.4490
 2.5180	 6.4570
 2.5200	 6.4700
 2.5210	 6.4890
 2.5220	 6.5140
 2.5230	 6.4520
 2.5250	 6.3770
 2.5260	 6.4570
 2.5270	 6.3540
 2.5280	 6.1560
 2.5290	 6.0800
 2.5310	 6.2020
 2.5320	 6.3280
 2.5330	 6.3860
 2.5340	 6.3080
 2.5360	 6.4060
 2.5370	 6.3270
 2.5380	 6.1720
 2.5390	 6.2870
 2.5410	 6.5590
 2.5420	 6.4910
 2.5430	 6.3470
 2.5440	 6.3650
 2.5460	 6.4960
 2.5470	 6.3850
 2.5480	 6.3680
 2.5490	 6.3560
 2.5510	 6.3060
 2.5520	 6.4990
 2.5530	 6.5530
 2.5540	 6.4570
 2.5560	 6.4000
 2.5570	 6.3440
 2.5580	 6.4790
 2.5590	 6.4930
 2.5610	 6.4540
 2.5620	 6.3710
 2.5630	 6.3320
 2.5640	 6.3060
 2.5660	 6.3260
 2.5670	 6.3640
 2.5680	 6.3650
 2.5700	 6.2650
 2.5710	 6.3560
 2.5720	 6.5240
 2.5730	 6.5320
 2.5750	 6.3660
 2.5760	 6.4400
 2.5770	 6.5340
 2.5790	 6.5490
 2.5800	 6.4400
 2.5810	 6.3620
 2.5820	 6.2770
 2.5840	 6.2670
 2.5850	 6.3000
 2.5860	 6.3410
 2.5880	 6.2890
 2.5890	 6.2250
 2.5900	 6.0710
 2.5910	 6.2070
 2.5930	 6.2960
 2.5940	 6.3830
 2.5950	 6.3030
 2.5970	 6.2120
 2.5980	 6.1360
 2.5990	 6.1600
 2.6000	 6.1190
 2.6020	 6.0380
 2.6030	 6.0000
 2.6040	 6.0400
 2.6060	 6.0750
 2.6070	 6.2150
 2.6080	 6.2320
 2.6100	 6.1380
 2.6110	 6.0610
 2.6120	 6.0900
 2.6140	 6.0120
 2.6150	 5.8820
 2.6160	 5.7970
 2.6180	 5.8600
 2.6190	 5.8270
 2.6200	 5.8520
 2.6220	 5.7260
 2.6230	 5.6890
 2.6240	 5.8180
 2.6260	 5.8770
 2.6270	 5.7780
 2.6280	 5.8060
 2.6300	 5.8920
 2.6310	 5.9120
 2.6320	 5.7880
 2.6340	 5.6550
 2.6350	 5.5670
 2.6360	 5.5770
 2.6380	 5.5640
 2.6390	 5.6520
 2.6400	 5.5870
 2.6420	 5.5180
 2.6430	 5.3780
 2.6440	 5.4450
 2.6460	 5.4340
 2.6470	 5.3650
 2.6480	 5.3410
 2.6500	 5.3360
 2.6510	 5.2560
 2.6520	 5.2970
 2.6540	 5.2390
 2.6550	 5.2930
 2.6560	 5.1860
 2.6580	 5.2440
 2.6590	 5.2710
 2.6610	 5.2690
 2.6620	 5.1860
 2.6630	 5.1130
 2.6650	 5.1210
 2.6660	 5.1530
 2.6670	 4.9480
 2.6690	 4.8020
 2.6700	 4.9000
 2.6720	 5.0960
 2.6730	 5.1440
 2.6740	 5.1140
 2.6760	 5.0160
 2.6770	 4.9320
 2.6780	 4.7550
 2.6800	 4.8390
 2.6810	 4.9130
 2.6830	 4.9700
 2.6840	 4.9710
 2.6850	 5.0180
 2.6870	 4.9180
 2.6880	 4.8070
 2.6900	 4.8550
 2.6910	 5.0470
 2.6920	 5.0530
 2.6940	 4.9900
 2.6950	 4.9150
 2.6970	 4.9270
 2.6980	 4.7530
 2.6990	 4.8170
 2.7010	 4.8560
 2.7020	 4.8880
 2.7040	 4.9640
 2.7050	 5.0660
 2.7060	 4.9150
 2.7080	 4.8500
 2.7090	 4.7260
 2.7110	 4.7180
 2.7120	 4.8790
 2.7130	 4.9450
 2.7150	 4.8510
 2.7160	 4.7260
 2.7180	 4.5800
 2.7190	 4.6310
 2.7210	 4.7250
 2.7220	 4.8280
 2.7230	 4.7850
 2.7250	 4.6940
 2.7260	 4.6470
 2.7280	 4.7400
 2.7290	 4.7260
 2.7310	 4.7920
 2.7320	 4.8640
 2.7330	 4.8100
 2.7350	 4.6820
 2.7360	 4.8020
 2.7380	 4.8570
 2.7390	 4.8200
 2.7410	 4.7870
 2.7420	 4.8980
 2.7440	 4.8820
 2.7450	 4.9460
 2.7470	 4.9540
 2.7480	 4.8630
 2.7490	 4.6740
 2.7510	 4.6220
 2.7520	 4.6400
 2.7540	 4.7680
 2.7550	 4.6520
 2.7570	 4.6040
 2.7580	 4.5060
 2.7600	 4.4580
 2.7610	 4.6210
 2.7630	 4.7270
 2.7640	 4.7660
 2.7660	 4.7710
 2.7670	 4.6340
 2.7680	 4.6260
 2.7700	 4.5750
 2.7710	 4.5740
 2.7730	 4.5810
 2.7740	 4.7020
 2.7760	 4.6940
 2.7770	 4.7110
 2.7790	 4.7440
 2.7800	 4.8020
 2.7820	 4.8420
 2.7830	 4.8760
 2.7850	 4.6340
 2.7860	 4.4860
 2.7880	 4.4920
 2.7890	 4.7400
 2.7910	 4.7910
 2.7920	 4.8630
 2.7940	 4.8970
 2.7950	 4.8490
 2.7970	 4.7010
 2.7980	 4.7510
 2.8000	 4.7840
 2.8010	 4.8690
 2.8030	 4.7340
 2.8040	 4.8290
 2.8060	 4.8340
 2.8070	 4.7600
 2.8090	 4.7520
 2.8110	 4.8890
 2.8120	 4.8130
 2.8140	 4.7250
 2.8150	 4.7710
 2.8170	 4.8030
 2.8180	 4.7240
 2.8200	 4.6810
 2.8210	 4.7090
 2.8230	 4.8470
 2.8240	 4.6510
 2.8260	 4.5580
 2.8270	 4.5910
 2.8290	 4.6360
 2.8300	 4.6560
 2.8320	 4.6130
 2.8340	 4.6020
 2.8350	 4.7860
 2.8370	 4.9260
 2.8380	 4.9470
 2.8400	 4.7820
 2.8410	 4.9400
 2.8430	 4.8660
 2.8440	 4.6360
 2.8460	 4.6790
 2.8480	 4.7670
 2.8490	 4.7570
 2.8510	 4.8320
 2.8520	 4.7860
 2.8540	 4.8770
 2.8550	 4.7660
 2.8570	 4.7590
 2.8590	 4.7370
 2.8600	 4.7620
 2.8620	 4.6840
 2.8630	 4.6950
 2.8650	 4.6420
 2.8660	 4.8030
 2.8680	 4.8310
 2.8700	 4.8060
 2.8710	 4.7690
 2.8730	 4.8590
 2.8740	 4.8220
 2.8760	 4.7900
 2.8780	 4.7300
 2.8790	 4.6300
 2.8810	 4.6320
 2.8820	 4.7920
 2.8840	 4.8160
 2.8860	 4.9610
 2.8870	 4.8790
 2.8890	 4.7180
 2.8900	 4.6750
 2.8920	 4.8940
 2.8940	 4.8380
 2.8950	 4.7350
 2.8970	 4.7180
 2.8980	 4.6720
 2.9000	 4.6530
 2.9020	 4.8670
 2.9030	 5.0100
 2.9050	 5.0700
 2.9070	 5.0350
 2.9080	 4.9790
 2.9100	 5.0110
 2.9120	 5.0790
 2.9130	 4.7490
 2.9150	 4.7800
 2.9160	 4.8030
 2.9180	 4.8840
 2.9200	 5.0300
 2.9210	 5.1330
 2.9230	 4.9210
 2.9250	 4.6940
 2.9260	 4.6600
 2.9280	 4.8160
 2.9300	 4.8610
 2.9310	 4.8090
 2.9330	 4.7350
 2.9350	 4.9060
 2.9360	 5.0630
 2.9380	 5.0630
 2.9400	 4.8670
 2.9410	 4.8650
 2.9430	 4.9280
 2.9450	 4.8560
 2.9460	 4.9790
 2.9480	 5.2440
 2.9500	 4.9450
 2.9510	 4.6550
 2.9530	 4.9030
 2.9550	 5.1490
 2.9560	 5.0760
 2.9580	 4.8390
 2.9600	 4.7980
 2.9610	 4.9690
 2.9630	 5.0720
 2.9650	 5.1100
 2.9660	 4.6670
 2.9680	 4.0990
 2.9700	 4.2490
 2.9720	 4.2880
 2.9730	 3.9500
 2.9750	 4.2000
 2.9770	 4.3040
 2.9780	 4.4520
 2.9800	 4.7500
 2.9820	 4.5020
 2.9840	 4.0050
 2.9850	 3.4150
 2.9870	 4.1700
 2.9890	 4.5600
 2.9900	 5.1660
 2.9920	 5.6890
 2.9940	 5.1050
 2.9960	 5.6790
 2.9970	 5.6620
 2.9990	 4.1200
 3.0010	 4.0980
 3.0030	 4.8130
 3.0040	 4.9650
 3.0060	 5.0460
 3.0080	 4.9460
 3.0100	 4.8160
 3.0110	 4.7520
 3.0130	 5.6180
 3.0150	 5.3540
 3.0170	 4.1570
 3.0180	 4.6250
 3.0200	 5.2000
 3.0220	 5.6680
 3.0240	 5.7920
 3.0250	 4.6420
 3.0270	 3.9160
 3.0290	 4.1320
 3.0310	 5.0180
 3.0320	 5.1670
 3.0340	 5.4420
 3.0360	 5.6560
 3.0380	 4.9200
 3.0400	 4.1600
 3.0410	 4.1970
 3.0430	 4.2190
 3.0450	 4.1560
 3.0470	 4.9730
 3.0480	 6.1580
 3.0500	 6.3740
 3.0520	 4.9820
 3.0540	 4.2350
 3.0560	 4.0810
 3.0570	 3.9630
 3.0590	 3.9920
 3.0610	 4.7140
 3.0630	 5.1220
 3.0650	 4.8680
 3.0660	 4.8950
 3.0680	 4.6200
 3.0700	 4.5080
 3.0720	 4.7240
 3.0740	 4.8550
 3.0760	 4.7830
 3.0770	 5.0580
 3.0790	 5.0190
 3.0810	 4.8830
 3.0830	 4.8160
 3.0850	 4.8720
 3.0870	 5.0560
 3.0880	 5.4620
 3.0900	 5.7520
 3.0920	 5.4280
 3.0940	 5.3850
 3.0960	 5.4530
 3.0980	 5.0870
 3.0990	 5.1820
 3.1010	 5.0270
 3.1030	 4.9840
 3.1050	 4.9250
 3.1070	 4.9520
 3.1090	 4.9050
 3.1110	 4.8380
 3.1120	 4.7950
 3.1140	 4.7050
 3.1160	 4.6710
 3.1180	 4.7160
 3.1200	 4.7860
 3.1220	 4.9580
 3.1240	 4.9070
 3.1260	 4.9320
 3.1270	 4.8680
 3.1290	 4.8590
 3.1310	 4.8040
 3.1330	 4.8220
 3.1350	 5.1410
 3.1370	 5.2960
 3.1390	 4.7100
 3.1410	 4.6080
 3.1430	 4.7100
 3.1450	 4.9650
 3.1460	 4.5420
 3.1480	 4.4860
 3.1500	 4.5090
 3.1520	 4.5940
 3.1540	 4.9550
 3.1560	 4.8000
 3.1580	 4.7700
 3.1600	 4.8310
 3.1620	 4.3520
 3.1640	 4.6100
 3.1660	 5.0010
 3.1680	 5.1400
 3.1700	 4.7490
 3.1710	 4.8060
 3.1730	 4.2610
 3.1750	 4.1610
 3.1770	 4.6470
 3.1790	 4.0690
 3.1810	 4.3670
 3.1830	 4.7090
 3.1850	 4.3620
 3.1870	 4.4140
 3.1890	 4.7540
 3.1910	 5.4290
 3.1930	 5.0960
 3.1950	 4.7480
 3.1970	 4.7900
 3.1990	 4.7970
 3.2010	 5.0700
 3.2030	 5.0640
 3.2050	 4.5910
 3.2070	 4.5050
 3.2090	 4.6450
 3.2110	 4.6830
 3.2130	 4.8680
 3.2150	 4.9660
 3.2170	 4.7900
 3.2190	 4.7950
 3.2210	 4.8070
 3.2230	 4.7980
 3.2250	 4.7550
 3.2270	 4.7970
 3.2290	 4.6940
 3.2310	 4.7620
 3.2330	 4.8980
 3.2350	 4.9130
 3.2370	 4.9380
 3.2390	 4.8710
 3.2410	 4.6890
 3.2430	 4.6610
 3.2450	 4.7500
 3.2470	 4.9420
 3.2490	 4.8340
 3.2510	 4.7080
 3.2530	 4.6360
 3.2550	 4.7880
 3.2570	 4.7450
 3.2590	 4.6510
 3.2610	 4.5790
 3.2630	 4.6110
 3.2650	 4.5380
 3.2670	 4.6780
 3.2690	 4.7900
 3.2720	 4.8290
 3.2740	 4.7190
 3.2760	 4.7110
 3.2780	 4.6590
 3.2800	 4.6510
 3.2820	 4.5330
 3.2840	 4.5310
 3.2860	 4.6060
 3.2880	 4.6920
 3.2900	 4.6160
 3.2920	 4.5510
 3.2940	 4.4730
 3.2960	 4.5390
 3.2990	 4.5230
 3.3010	 4.3850
 3.3030	 4.4360
 3.3050	 4.5700
 3.3070	 4.5480
 3.3090	 4.4640
 3.3110	 4.3400
 3.3130	 4.4180
 3.3150	 4.4530
 3.3180	 4.3570
 3.3200	 4.2270
 3.3220	 4.2200
 3.3240	 4.2690
 3.3260	 4.2720
 3.3280	 4.2270
 3.3300	 4.2930
 3.3330	 4.3180
 3.3350	 4.4210
 3.3370	 4.4010
 3.3390	 4.4080
 3.3410	 4.3020
 3.3430	 4.3380
 3.3450	 4.3790
 3.3480	 4.3220
 3.3500	 4.2660
 3.3520	 4.2280
 3.3540	 4.1940
 3.3560	 4.2650
 3.3580	 4.3610
 3.3610	 4.3350
 3.3630	 4.2690
 3.3650	 4.2080
 3.3670	 4.2200
 3.3690	 4.2760
 3.3720	 4.0920
 3.3740	 4.0810
 3.3760	 4.1830
 3.3780	 4.3240
 3.3800	 4.3420
 3.3830	 4.3070
 3.3850	 4.1290
 3.3870	 4.0550
 3.3890	 4.0620
 3.3910	 4.0350
 3.3940	 4.0780
 3.3960	 4.3060
 3.3980	 4.4580
 3.4000	 4.4480
 3.4020	 4.4420
 3.4050	 4.6260
 3.4070	 4.9060
 3.4090	 5.1470
 3.4110	 5.1990
 3.4140	 5.4790
 3.4160	 5.7330
 3.4180	 6.0640
 3.4200	 6.5830
 3.4230	 7.2810
 3.4250	 7.9980
 3.4270	 8.6630
 3.4290	 9.0240
 3.4320	 8.6840
 3.4340	 7.8310
 3.4360	 7.1320
 3.4390	 6.6410
 3.4410	 6.4080
 3.4430	 6.1640
 3.4450	 6.0990
 3.4480	 6.1820
 3.4500	 6.2160
 3.4520	 5.9880
 3.4550	 5.7750
 3.4570	 5.6080
 3.4590	 5.6050
 3.4620	 5.6640
 3.4640	 5.7370
 3.4660	 5.7110
 3.4680	 5.6070
 3.4710	 5.3920
 3.4730	 5.3280
 3.4750	 5.2910
 3.4780	 5.3600
 3.4800	 5.2150
 3.4820	 5.1770
 3.4850	 5.2380
 3.4870	 5.1770
 3.4890	 5.1140
 3.4920	 5.2850
 3.4940	 5.3550
 3.4970	 5.3510
 3.4990	 5.3960
 3.5010	 5.6290
 3.5040	 5.9790
 3.5060	 6.6760
 3.5080	 7.6410
 3.5110	 8.4880
 3.5130	 8.2260
 3.5160	 7.3640
 3.5180	 6.7810
 3.5200	 6.4210
 3.5230	 6.0350
 3.5250	 5.9100
 3.5270	 5.9000
 3.5300	 5.8370
 3.5320	 5.7890
 3.5350	 5.7280
 3.5370	 5.6220
 3.5400	 5.5980
 3.5420	 5.4850
 3.5440	 5.4740
 3.5470	 5.4750
 3.5490	 5.4400
 3.5520	 5.3040
 3.5540	 5.2980
 3.5570	 5.3230
 3.5590	 5.2650
 3.5610	 5.2220
 3.5640	 5.4410
 3.5660	 5.4800
 3.5690	 5.4970
 3.5710	 5.4550
 3.5740	 5.3230
 3.5760	 5.1750
 3.5790	 5.2070
 3.5810	 5.2930
 3.5840	 5.2220
 3.5860	 5.2310
 3.5890	 5.3240
 3.5910	 5.1910
 3.5930	 5.1960
 3.5960	 5.1620
 3.5980	 5.1670
 3.6010	 5.2230
 3.6030	 5.4050
 3.6060	 5.3600
 3.6080	 5.1140
 3.6110	 5.0290
 3.6140	 5.0680
 3.6160	 5.1200
 3.6190	 5.1160
 3.6210	 5.1710
 3.6240	 5.2150
 3.6260	 5.1830
 3.6290	 5.2440
 3.6310	 5.2310
 3.6340	 5.2220
 3.6360	 5.2490
 3.6390	 5.2610
 3.6410	 5.2760
 3.6440	 5.2430
 3.6470	 5.1940
 3.6490	 5.2390
 3.6520	 5.2320
 3.6540	 5.2000
 3.6570	 5.0980
 3.6590	 5.0430
 3.6620	 5.0700
 3.6650	 5.1700
 3.6670	 5.1610
 3.6700	 5.0840
 3.6720	 5.1340
 3.6750	 5.2220
 3.6780	 5.1910
 3.6800	 5.1400
 3.6830	 5.1730
 3.6850	 5.1960
 3.6880	 5.1960
 3.6910	 5.1830
 3.6930	 5.0700
 3.6960	 5.0490
 3.6990	 5.0760
 3.7010	 5.1770
 3.7040	 5.0980
 3.7060	 5.0440
 3.7090	 5.0570
 3.7120	 5.0530
 3.7140	 5.0490
 3.7170	 5.0550
 3.7200	 5.0300
 3.7220	 5.1300
 3.7250	 5.0130
 3.7280	 4.8790
 3.7300	 4.8970
 3.7330	 5.0330
 3.7360	 5.1620
 3.7390	 5.1770
 3.7410	 5.1470
 3.7440	 5.1520
 3.7470	 5.1880
 3.7490	 5.1460
 3.7520	 5.1210
 3.7550	 5.1870
 3.7580	 5.1920
 3.7600	 5.2300
 3.7630	 5.2090
 3.7660	 5.2530
 3.7680	 5.2710
 3.7710	 5.1390
 3.7740	 5.0590
 3.7770	 5.0770
 3.7790	 5.0220
 3.7820	 5.1020
 3.7850	 5.1740
 3.7880	 5.1260
 3.7900	 5.0700
 3.7930	 5.1150
 3.7960	 5.1290
 3.7990	 5.0890
 3.8020	 5.0890
 3.8040	 5.1760
 3.8070	 5.2120
 3.8100	 5.1860
 3.8130	 5.1170
 3.8160	 5.1390
 3.8180	 5.0830
 3.8210	 5.0630
 3.8240	 5.0630
 3.8270	 5.0860
 3.8300	 5.1020
 3.8330	 5.1620
 3.8350	 5.0900
 3.8380	 5.1250
 3.8410	 5.1950
 3.8440	 5.1870
 3.8470	 5.1790
 3.8500	 5.1490
 3.8520	 5.0770
 3.8550	 5.0560
 3.8580	 5.0490
 3.8610	 5.0430
 3.8640	 5.0600
 3.8670	 5.1000
 3.8700	 5.1530
 3.8730	 5.1560
 3.8750	 5.1100
 3.8780	 5.1700
 3.8810	 5.1460
 3.8840	 5.1370
 3.8870	 5.1030
 3.8900	 5.1540
 3.8930	 5.1910
 3.8960	 5.3010
 3.8990	 5.2300
 3.9020	 5.1690
 3.9050	 5.2670
 3.9080	 5.2580
 3.9110	 5.2060
 3.9140	 5.1830
 3.9160	 5.2090
 3.9190	 5.2210
 3.9220	 5.1720
 3.9250	 5.2230
 3.9280	 5.2610
 3.9310	 5.2320
 3.9340	 5.1780
 3.9370	 5.1380
 3.9400	 5.1160
 3.9430	 5.1700
 3.9460	 5.2030
 3.9490	 5.2460
 3.9520	 5.2460
 3.9550	 5.2190
 3.9580	 5.1590
 3.9610	 5.2030
 3.9640	 5.1860
 3.9670	 5.1450
 3.9700	 5.2030
 3.9730	 5.2490
 3.9770	 5.1690
 3.9800	 5.1870
 3.9830	 5.2420
 3.9860	 5.2310
 3.9890	 5.1520
 3.9920	 5.1740
 3.9950	 5.1770
 3.9980	 5.2140
 4.0010	 5.1370
 4.0040	 5.1360
 4.0070	 5.2110
 4.0100	 5.2530
 4.0130	 5.2050
 4.0170	 5.1740
 4.0200	 5.1380
 4.0230	 5.1880
 4.0260	 5.2410
 4.0290	 5.2550
 4.0320	 5.2120
 4.0350	 5.1890
 4.0380	 5.1900
 4.0420	 5.2330
 4.0450	 5.1790
 4.0480	 5.0860
 4.0510	 5.1210
 4.0540	 5.1270
 4.0570	 5.0920
 4.0610	 5.2210
 4.0640	 5.2660
 4.0670	 5.2260
 4.0700	 5.1120
 4.0730	 5.1240
 4.0770	 5.1740
 4.0800	 5.1610
 4.0830	 5.1200
 4.0860	 5.1300
 4.0890	 5.0870
 4.0930	 5.0850
 4.0960	 5.0990
 4.0990	 5.1320
 4.1020	 5.1420
 4.1060	 5.1710
 4.1090	 5.1270
 4.1120	 5.1260
 4.1150	 5.1930
 4.1190	 5.2160
 4.1220	 5.1200
 4.1250	 5.0430
 4.1280	 5.0400
 4.1320	 5.0930
 4.1350	 5.1290
 4.1380	 5.1790
 4.1420	 5.1910
 4.1450	 5.1490
 4.1480	 5.0860
 4.1520	 5.0950
 4.1550	 5.0980
 4.1580	 5.0740
 4.1620	 5.0590
 4.1650	 5.1370
 4.1680	 5.1800
 4.1720	 5.1680
 4.1750	 5.0890
 4.1780	 5.0380
 4.1820	 5.1130
 4.1850	 5.1410
 4.1890	 5.1250
 4.1920	 5.1290
 4.1950	 5.0680
 4.1990	 5.0500
 4.2020	 4.9620
 4.2060	 4.8760
 4.2090	 4.8890
 4.2120	 4.9580
 4.2160	 4.8460
 4.2190	 4.8490
 4.2230	 4.7970
 4.2260	 4.7070
 4.2300	 4.7190
 4.2330	 4.6960
 4.2360	 4.7310
 4.2400	 4.6410
 4.2430	 4.6040
 4.2470	 4.5350
 4.2500	 4.7420
 4.2540	 5.0460
 4.2570	 5.0020
 4.2610	 4.9720
 4.2640	 4.9730
 4.2680	 4.8780
 4.2710	 4.7240
 4.2750	 4.9660
 4.2780	 5.0410
 4.2820	 4.9060
 4.2850	 4.8360
 4.2890	 4.7060
 4.2930	 4.7030
 4.2960	 4.6720
 4.3000	 4.6920
 4.3030	 4.8040
 4.3070	 4.8610
 4.3100	 4.8810
 4.3140	 4.8940
 4.3180	 5.0330
 4.3210	 5.0410
 4.3250	 4.9550
 4.3280	 4.8460
 4.3320	 4.8790
 4.3360	 4.9850
 4.3390	 5.0790
 4.3430	 4.9950
 4.3470	 4.9680
 4.3500	 4.9360
 4.3540	 4.9340
 4.3570	 4.9650
 4.3610	 5.0060
 4.3650	 5.0230
 4.3680	 5.0770
 4.3720	 5.0530
 4.3760	 5.0140
 4.3800	 4.9660
 4.3830	 4.9780
 4.3870	 5.0060
 4.3910	 4.9910
 4.3940	 5.0500
 4.3980	 5.1030
 4.4020	 4.9870
 4.4060	 4.8880
 4.4090	 4.9670
 4.4130	 5.0760
 4.4170	 5.1240
 4.4210	 5.1130
 4.4240	 5.0620
 4.4280	 5.0720
 4.4320	 5.0590
 4.4360	 4.9960
 4.4400	 5.0490
 4.4430	 5.1140
 4.4470	 5.1110
 4.4510	 5.0930
 4.4550	 5.0670
 4.4590	 5.0410
 4.4620	 5.0590
 4.4660	 5.0310
 4.4700	 4.9430
 4.4740	 4.9100
 4.4780	 4.9040
 4.4820	 4.9410
 4.4860	 4.9820
 4.4900	 5.0050
 4.4930	 4.9760
 4.4970	 4.9940
 4.5010	 5.0820
 4.5050	 5.0520
 4.5090	 4.9720
 4.5130	 4.9470
 4.5170	 4.9370
 4.5210	 4.9490
 4.5250	 4.9470
 4.5290	 4.9300
 4.5330	 4.9370
 4.5370	 4.9430
 4.5410	 5.0180
 4.5450	 5.0510
 4.5490	 4.9390
 4.5530	 4.9970
 4.5570	 5.1090
 4.5610	 5.0260
 4.5650	 4.9110
 4.5690	 4.9040
 4.5730	 4.9440
 4.5770	 4.8940
 4.5810	 4.8680
 4.5850	 4.9390
 4.5890	 4.9510
 4.5930	 4.9930
 4.5970	 5.0200
 4.6010	 4.9820
 4.6050	 4.9860
 4.6090	 5.0010
 4.6130	 5.0720
 4.6170	 5.0330
 4.6220	 4.9240
 4.6260	 4.8690
 4.6300	 4.8080
 4.6340	 4.8240
 4.6380	 4.9430
 4.6420	 4.9290
 4.6460	 4.8520
 4.6510	 4.8850
 4.6550	 5.0060
 4.6590	 5.0290
 4.6630	 4.9330
 4.6670	 4.9120
 4.6720	 4.9190
 4.6760	 4.9570
 4.6800	 4.9950
 4.6840	 4.9290
 4.6880	 4.9730
 4.6930	 4.9560
 4.6970	 4.9600
 4.7010	 4.9970
 4.7050	 4.9980
 4.7100	 4.9570
 4.7140	 4.9750
 4.7180	 4.9560
 4.7230	 4.9990
 4.7270	 5.0340
 4.7310	 4.9760
 4.7360	 4.9570
 4.7400	 4.9500
 4.7440	 4.9480
 4.7490	 4.9060
 4.7530	 4.9020
 4.7570	 4.9150
 4.7620	 4.9530
 4.7660	 5.0010
 4.7700	 4.9750
 4.7750	 4.9800
 4.7790	 5.0010
 4.7840	 4.8960
 4.7880	 4.8350
 4.7920	 4.8090
 4.7970	 4.8990
 4.8010	 4.9790
 4.8060	 4.9260
 4.8100	 4.9190
 4.8150	 4.9770
 4.8190	 4.9350
 4.8240	 4.8980
 4.8280	 4.9650
 4.8330	 5.0010
 4.8370	 5.0230
 4.8420	 4.9770
 4.8460	 4.9410
 4.8510	 4.9150
 4.8550	 4.8540
 4.8600	 4.8470
 4.8640	 4.9550
 4.8690	 4.9700
 4.8730	 4.8940
 4.8780	 4.8380
 4.8830	 4.9100
 4.8870	 4.9730
 4.8920	 4.9650
 4.8960	 4.8960
 4.9010	 4.8750
 4.9060	 4.9180
 4.9100	 4.8790
 4.9150	 4.8580
 4.9200	 4.9260
 4.9240	 4.9140
 4.9290	 4.9480
 4.9340	 4.9720
 4.9380	 4.9110
 4.9430	 4.8440
 4.9480	 4.8320
 4.9530	 4.8680
 4.9570	 4.9220
 4.9620	 5.0040
 4.9670	 4.9820
 4.9720	 4.9280
 4.9760	 4.9150
 4.9810	 4.8640
 4.9860	 4.8950
 4.9910	 4.9350
 4.9960	 4.8740
 5.0000	 4.7820
 5.0050	 4.8210
 5.0100	 4.8330
 5.0150	 4.9070
 5.0200	 4.9430
 5.0250	 4.9740
 5.0290	 4.9650
 5.0340	 4.9080
 5.0390	 4.8710
 5.0440	 4.8930
 5.0490	 4.9600
 5.0540	 4.8950
 5.0590	 4.9260
 5.0640	 5.0270
 5.0690	 4.8950
 5.0740	 4.8430
 5.0790	 4.8570
 5.0840	 4.8850
 5.0890	 4.9340
 5.0940	 4.9780
 5.0990	 4.9390
 5.1040	 4.9350
 5.1090	 4.9680
 5.1140	 4.9400
 5.1190	 4.8940
 5.1240	 4.8390
 5.1290	 4.8190
 5.1340	 4.8470
 5.1390	 4.8370
 5.1440	 4.8470
 5.1490	 4.8820
 5.1540	 4.8120
 5.1600	 4.7170
 5.1650	 4.8390
 5.1700	 4.9590
 5.1750	 4.9240
 5.1800	 4.8530
 5.1850	 4.8320
 5.1910	 4.8500
 5.1960	 4.9440
 5.2010	 4.8440
 5.2060	 4.7910
 5.2110	 4.8430
 5.2170	 4.9110
 5.2220	 4.9330
 5.2270	 4.8600
 5.2320	 4.8190
 5.2380	 4.9170
 5.2430	 4.9300
 5.2480	 4.9000
 5.2540	 4.8180
 5.2590	 4.7660
 5.2640	 4.8320
 5.2700	 4.8750
 5.2750	 4.8280
 5.2800	 4.8880
 5.2860	 4.9300
 5.2910	 4.9660
 5.2970	 4.9090
 5.3020	 4.8380
 5.3070	 4.8350
 5.3130	 4.8960
 5.3180	 4.9220
 5.3240	 4.8960
 5.3290	 4.8260
 5.3350	 4.7750
 5.3400	 4.7200
 5.3460	 4.7620
 5.3510	 4.7430
 5.3570	 4.7150
 5.3620	 4.7340
 5.3680	 4.8150
 5.3730	 4.8050
 5.3790	 4.8200
 5.3850	 4.7860
 5.3900	 4.6600
 5.3960	 4.6510
 5.4010	 4.7480
 5.4070	 4.7110
 5.4130	 4.6760
 5.4180	 4.6670
 5.4240	 4.6690
 5.4300	 4.6230
 5.4350	 4.7230
 5.4410	 4.7860
 5.4470	 4.7540
 5.4530	 4.7520
 5.4580	 4.8350
 5.4640	 4.7880
 5.4700	 4.6990
 5.4760	 4.6500
 5.4810	 4.7280
 5.4870	 4.7130
 5.4930	 4.7260
 5.4990	 4.7400
 5.5050	 4.6470
 5.5110	 4.5620
 5.5160	 4.5890
 5.5220	 4.5690
 5.5280	 4.6060
 5.5340	 4.6120
 5.5400	 4.7210
 5.5460	 4.7630
 5.5520	 4.6810
 5.5580	 4.5810
 5.5640	 4.5510
 5.5700	 4.5580
 5.5760	 4.6020
 5.5820	 4.5870
 5.5880	 4.5400
 5.5940	 4.4790
 5.6000	 4.5130
 5.6060	 4.5130
 5.6120	 4.5740
 5.6180	 4.4570
 5.6240	 4.3810
 5.6300	 4.4450
 5.6360	 4.4890
 5.6420	 4.4620
 5.6490	 4.4940
 5.6550	 4.3930
 5.6610	 4.3220
 5.6670	 4.3480
 5.6730	 4.3630
 5.6800	 4.2800
 5.6860	 4.2340
 5.6920	 4.2460
 5.6980	 4.3110
 5.7040	 4.2580
 5.7110	 4.1830
 5.7170	 4.0990
 5.7230	 4.0750
 5.7300	 4.0140
 5.7360	 3.9690
 5.7420	 3.9300
 5.7490	 3.9170
 5.7550	 3.8270
 5.7620	 3.8670
 5.7680	 3.9940
 5.7740	 4.0340
 5.7810	 4.1020
 5.7870	 4.3760
 5.7940	 4.5710
 5.8000	 4.6840
 5.8070	 4.7110
 5.8130	 4.8240
 5.8200	 4.9070
 5.8260	 5.0390
 5.8330	 5.0600
 5.8390	 5.1830
 5.8460	 5.2030
 5.8530	 5.2300
 5.8590	 5.1850
 5.8660	 5.1700
 5.8720	 5.1800
 5.8790	 5.2070
 5.8860	 5.1230
 5.8920	 5.2080
 5.8990	 5.1630
 5.9060	 5.1200
 5.9130	 5.1250
 5.9190	 5.1910
 5.9260	 5.2750
 5.9330	 5.4560
 5.9400	 5.5450
 5.9470	 5.6560
 5.9530	 5.6880
 5.9600	 5.6850
 5.9670	 5.6980
 5.9740	 5.6880
 5.9810	 5.5510
 5.9880	 5.5830
 5.9950	 5.5150
 6.0020	 5.4660
 6.0090	 5.4550
 6.0160	 5.4550
 6.0230	 5.3640
 6.0300	 5.3320
 6.0370	 5.2760
 6.0440	 5.4080
 6.0510	 5.3880
 6.0580	 5.4140
 6.0650	 5.4310
 6.0720	 5.4170
 6.0790	 5.3730
 6.0860	 5.3380
 6.0930	 5.3470
 6.1000	 5.3600
 6.1080	 5.3430
 6.1150	 5.4460
 6.1220	 5.3700
 6.1290	 5.3410
 6.1370	 5.3030
 6.1440	 5.3420
 6.1510	 5.3530
 6.1580	 5.3660
 6.1660	 5.2610
 6.1730	 5.1900
 6.1800	 5.2020
 6.1880	 5.2960
 6.1950	 5.2460
 6.2030	 5.3420
 6.2100	 5.3280
 6.2170	 5.3360
 6.2250	 5.3330
 6.2320	 5.3280
 6.2400	 5.2130
 6.2470	 5.2120
 6.2550	 5.2560
 6.2630	 5.3100
 6.2700	 5.3090
 6.2780	 5.3420
 6.2850	 5.2270
 6.2930	 5.1920
 6.3010	 5.2010
 6.3080	 5.3080
 6.3160	 5.3050
 6.3240	 5.2960
 6.3310	 5.1600
 6.3390	 5.1790
 6.3470	 5.1800
 6.3550	 5.1510
 6.3620	 5.1050
 6.3700	 5.2190
 6.3780	 5.1810
 6.3860	 5.1660
 6.3940	 5.1620
 6.4020	 5.1770
 6.4100	 5.1560
 6.4180	 5.1280
 6.4260	 5.0730
 6.4330	 5.0880
 6.4410	 5.0010
 6.4490	 5.0230
 6.4580	 4.9130
 6.4660	 4.9220
 6.4740	 4.9130
 6.4820	 4.9950
 6.4900	 4.9600
 6.4980	 4.9830
 6.5060	 4.9300
 6.5140	 4.8950
 6.5230	 4.8710
 6.5310	 4.8150
 6.5390	 4.7610
 6.5470	 4.7350
 6.5550	 4.6840
 6.5640	 4.8020
 6.5720	 4.7660
 6.5800	 4.7450
 6.5890	 4.7820
 6.5970	 4.8820
 6.6060	 4.8270
 6.6140	 4.7750
 6.6220	 4.7900
 6.6310	 4.9280
 6.6390	 4.9160
 6.6480	 4.9140
 6.6560	 4.7200
 6.6650	 4.6250
 6.6740	 4.6140
 6.6820	 4.6250
 6.6910	 4.5980
 6.6990	 4.6670
 6.7080	 4.5840
 6.7170	 4.6010
 6.7260	 4.5080
 6.7340	 4.4540
 6.7430	 4.4350
 6.7520	 4.4500
 6.7610	 4.3250
 6.7690	 4.3930
 6.7780	 4.4940
 6.7870	 4.7030
 6.7960	 4.5930
 6.8050	 4.4450
 6.8140	 4.3760
 6.8230	 4.6070
 6.8320	 4.8380
 6.8410	 4.9210
 6.8500	 4.7500
 6.8590	 4.7470
 6.8680	 4.7160
 6.8770	 4.8300
 6.8860	 4.8290
 6.8950	 4.9200
 6.9050	 4.9020
 6.9140	 4.8850
 6.9230	 4.8010
 6.9320	 4.8020
 6.9420	 4.7770
 6.9510	 4.9110
 6.9600	 4.8900
 6.9700	 4.9320
 6.9790	 4.9100
 6.9880	 4.9840
 6.9980	 4.9420
 7.0070	 4.9150
 7.0170	 4.7740
 7.0260	 4.8510
 7.0360	 4.8760
 7.0450	 4.9620
 7.0550	 4.9740
 7.0650	 4.9820
 7.0740	 4.8650
 7.0840	 4.8100
 7.0940	 4.7400
 7.1030	 4.7700
 7.1130	 4.7420
 7.1230	 4.7740
 7.1330	 4.6470
 7.1420	 4.7040
 7.1520	 4.6910
 7.1620	 4.5650
 7.1720	 4.5010
 7.1820	 4.5610
 7.1920	 4.5380
 7.2020	 4.6850
 7.2120	 4.7130
 7.2220	 4.7430
 7.2320	 4.6760
 7.2420	 4.7320
 7.2520	 4.6930
 7.2620	 4.7840
 7.2730	 4.8190
 7.2830	 4.8600
 7.2930	 4.8080
 7.3030	 4.8510
 7.3140	 4.7550
 7.3240	 4.8030
 7.3340	 4.7200
 7.3450	 4.8440
 7.3550	 4.8630
 7.3660	 4.7930
 7.3760	 4.6540
 7.3870	 4.7330
 7.3970	 4.7510
 7.4080	 4.7940
 7.4180	 4.7070
 7.4290	 4.7230
 7.4400	 4.6330
 7.4500	 4.6900
 7.4610	 4.6800
 7.4720	 4.7430
 7.4830	 4.6150
 7.4930	 4.6480
 7.5040	 4.6340
 7.5150	 4.7400
 7.5260	 4.7570
 7.5370	 4.7820
 7.5480	 4.6250
 7.5590	 4.6500
 7.5700	 4.6350
 7.5810	 4.7110
 7.5920	 4.7210
 7.6030	 4.7330
 7.6140	 4.5790
 7.6260	 4.5530
 7.6370	 4.4350
 7.6480	 4.5590
 7.6590	 4.6170
 7.6710	 4.7470
 7.6820	 4.7340
 7.6930	 4.6500
 7.7050	 4.4320
 7.7160	 4.3730
 7.7280	 4.4640
 7.7390	 4.6010
 7.7510	 4.5300
 7.7630	 4.5320
 7.7740	 4.4260
 7.7860	 4.4720
 7.7980	 4.3580
 7.8090	 4.4170
 7.8210	 4.3720
 7.8330	 4.4700
 7.8450	 4.5190
 7.8570	 4.6740
 7.8690	 4.6480
 7.8810	 4.7330
 7.8930	 4.6040
 7.9050	 4.5760
 7.9170	 4.5310
 7.9290	 4.6780
 7.9410	 4.6070
 7.9530	 4.5380
 7.9650	 4.4410
 7.9780	 4.6380
 7.9900	 4.6920
 8.0020	 4.7260
 8.0150	 4.5760
 8.0270	 4.5330
 8.0390	 4.4830
 8.0520	 4.6730
 8.0640	 4.7570
 8.0770	 4.8820
 8.0900	 4.7830
 8.1020	 4.8070
 8.1150	 4.7490
 8.1280	 4.7260
 8.1400	 4.5910
 8.1530	 4.7420
 8.1660	 4.7430
 8.1790	 4.7650
 8.1920	 4.7430
 8.2050	 4.8220
 8.2180	 4.6080
 8.2310	 4.7390
 8.2440	 4.7690
 8.2570	 4.7170
 8.2700	 4.5540
 8.2830	 4.6550
 8.2970	 4.7550
 8.3100	 4.9620
 8.3230	 4.7260
 8.3370	 4.6980
 8.3500	 4.5860
 8.3640	 4.6710
 8.3770	 4.5730
 8.3910	 4.6690
 8.4040	 4.5420
 8.4180	 4.7000
 8.4320	 4.7170
 8.4450	 4.8460
 8.4590	 4.7580
 8.4730	 4.8640
 8.4870	 4.8400
 8.5010	 4.9380
 8.5150	 4.7830
 8.5290	 4.8650
 8.5430	 4.8910
 8.5570	 5.0410
 8.5710	 4.8980
 8.5850	 5.2180
 8.5990	 5.1270
 8.6140	 5.0770
 8.6280	 4.9560
 8.6420	 5.0740
 8.6570	 5.0400
 8.6710	 5.1460
 8.6860	 5.2250
 8.7000	 5.3070
 8.7150	 5.1820
 8.7300	 5.3050
 8.7440	 5.3240
 8.7590	 5.4330
 8.7740	 5.3190
 8.7890	 5.4880
 8.8040	 5.3400
 8.8190	 5.4340
 8.8340	 5.3890
 8.8490	 5.3820
 8.8640	 5.2260
 8.8790	 5.5000
 8.8940	 5.4530
 8.9100	 5.5260
 8.9250	 5.4340
 8.9400	 5.4990
 8.9560	 5.3440
 8.9710	 5.4360
 8.9870	 5.3630
 9.0020	 5.5940
 9.0180	 5.5410
 9.0340	 5.5100
 9.0500	 5.4440
 9.0650	 5.8030
 9.0810	 5.8820
 9.0970	 5.9340
 9.1130	 5.7560
 9.1290	 5.8470
 9.1450	 5.5980
 9.1610	 5.6350
 9.1780	 5.5450
 9.1940	 5.6690
 9.2100	 5.5280
 9.2270	 5.5680
 9.2430	 5.6320
 9.2600	 5.8070
 9.2760	 5.6390
 9.2930	 5.7110
 9.3090	 5.6890
 9.3260	 5.8900
 9.3430	 5.7300
 9.3600	 5.9070
 9.3770	 5.9870
 9.3940	 6.0730
 9.4110	 5.8400
 9.4280	 5.7910
 9.4450	 5.6800
 9.4620	 5.8650
 9.4800	 5.7420
 9.4970	 5.9210
 9.5140	 5.8210
 9.5320	 5.8330
 9.5500	 5.8180
 9.5670	 6.0090
 9.5850	 5.7450
 9.6030	 5.9350
 9.6200	 5.9850
 9.6380	 6.0780
 9.6560	 5.9680
 9.6740	 6.0460
 9.6920	 5.9520
 9.7100	 6.1290
 9.7290	 6.1020
 9.7470	 6.2440
 9.7650	 6.1220
 9.7840	 6.2330
 9.8020	 6.0850
 9.8210	 6.2680
 9.8390	 6.1470
 9.8580	 6.1450
 9.8770	 5.9130
 9.8960	 5.8890
 9.9150	 5.8440
 9.9340	 6.1270
 9.9530	 6.0350
 9.9720	 5.8310
 9.9910	 5.6130
10.0100	 5.8960
10.0300	 5.8820
10.0490	 6.0020
10.0690	 5.8520
10.0880	 5.7830
10.1080	 5.5120
10.1280	 5.7080
10.1480	 5.7350
10.1670	 5.8800
10.1870	 5.8690
10.2070	 5.8970
10.2280	 5.6610
10.2480	 5.8210
10.2680	 5.7980
10.2890	 5.8780
10.3090	 5.8100
10.3300	 5.9860
10.3500	 5.8520
10.3710	 5.9740
10.3920	 5.8080
10.4120	 5.8360
10.4330	 5.7230
10.4540	 5.8110
10.4760	 5.7230
10.4970	 5.8210
10.5180	 5.8030
10.5390	 5.9560
10.5610	 5.9010
10.5820	 6.0960
10.6040	 5.8410
10.6260	 5.9870
10.6480	 6.0100
10.6700	 6.0430
10.6920	 5.8460
10.7140	 6.0260
10.7360	 6.0200
10.7580	 6.2120
10.7800	 6.0370
10.8030	 6.0260
10.8250	 5.9130
10.8480	 5.9940
10.8710	 5.8580
10.8940	 5.9110
10.9170	 5.7790
10.9400	 6.1440
10.9630	 6.0210
10.9860	 5.9130
11.0090	 5.7670
11.0330	 6.0300
11.0560	 5.9370
11.0800	 5.9390
11.1040	 5.7810
11.1270	 5.8720
11.1510	 5.8340
11.1750	 6.1520
11.2000	 5.9400
11.2240	 5.9360
11.2480	 5.8540
11.2730	 6.6390
11.2970	 8.1320
11.3220	 7.6030
11.3470	 6.1300
11.3720	 6.2100
11.3970	 6.0050
11.4220	 6.1700
11.4470	 6.0930
11.4720	 6.3730
11.4980	 6.1630
11.5230	 6.1730
11.5490	 5.7970
11.5750	 5.9300
11.6000	 5.8820
11.6260	 5.9160
11.6530	 5.5860
11.6790	 5.7750
11.7050	 5.8040
11.7320	 5.9640
11.7580	 5.5800
11.7850	 5.6580
11.8120	 5.5860
11.8390	 5.7720
11.8660	 5.5300
11.8930	 5.6040
11.9200	 5.4660
11.9480	 5.7760
11.9760	 5.4900
12.0030	 5.6080
12.0310	 5.4440
12.0590	 5.5250
12.0870	 5.3160
12.1150	 5.3750
12.1440	 5.2190
12.1720	 5.5200
12.2010	 5.3810
12.2300	 5.4800
12.2590	 5.1750
12.2880	 5.4320
12.3170	 5.3670
12.3460	 5.5370
12.3760	 5.4510
12.4050	 5.6560
12.4350	 5.3980
12.4650	 5.6450
12.4950	 5.5040
12.5250	 5.4690
12.5550	 5.1160
12.5860	 5.4370
12.6170	 5.3890
12.6470	 5.5410
12.6780	 5.3800
12.7090	 5.6650
12.7410	 5.4010
12.7720	 5.6450
12.8030	 5.3990
12.8350	 5.4030
12.8670	 5.1070
12.8990	 5.4190
12.9310	 5.4000
12.9640	 5.6330
12.9960	 5.3960
13.0290	 5.5250
13.0610	 5.2290
13.0940	 5.3290
13.1280	 5.1760
13.1610	 5.4770
13.1940	 5.2070
13.2280	 5.2800
13.2620	 5.2690
13.2960	 5.4610
13.3300	 5.0210
13.3640	 5.3770
13.3990	 5.1070
13.4340	 5.3080
13.4690	 5.2920
13.5040	 5.6310
13.5390	 5.4070
13.5740	 5.4980
13.6100	 4.9740
13.6460	 5.2800
13.6820	 5.1700
13.7180	 5.3230
13.7540	 5.2250
13.7910	 5.6440
13.8280	 5.3740
13.8650	 5.7150
13.9020	 5.5310
13.9390	 5.7790
13.9770	 5.4490
14.0150	 5.8310
14.0530	 5.3060
14.0910	 5.6940
14.1290	 5.6270
14.1680	 5.8550
14.2070	 5.4190
14.2460	 5.9020
14.2850	 5.6340
14.3240	 5.6420
14.3640	 5.0860
14.4040	 5.4610
14.4440	 5.0570
14.4840	 5.3280
14.5250	 5.2150
14.5660	 5.7990
14.6070	 4.7910
14.6480	 5.2220
14.6900	 5.4230
14.7310	 5.9140
14.7730	 5.3960
14.8150	 5.8650
14.8580	 5.3160
14.9010	 5.3990
14.9440	 4.1870
14.9870	 5.0920
15.0300	 4.9710
15.0740	 5.8050
15.1180	 5.7920
15.1620	 6.2380
15.2060	 5.5110
15.2510	 5.2720
15.2960	 4.5870
15.3410	 5.5330
15.3870	 5.6090
