Name: Quercus douglasii 2
Type: vegetation
Class: Tree
Genus: Quercus
Species: douglasii
Sample No.: VH173
Owner: UCSB
Wavelength Range: TIR
Origin: 34.7157; -120.0601; WGS84
Collection Date: 6/9/2013
Description: Samples were collected as part of the HyspIRI Airborne Campaign. 48 individual plants were sampled in three times in 2013 - spring  summer  and fall. The name of the sample includes a 1  2  or 3 which references a different individual of the species. Samples were taken to JPL and processed within 48 hours of collection. The same leaves were processed in the Nicolet and then measured using the ASD.
Measurement: Hemispherical reflectance
First Column: X
Second Column: Y
X Units: Wavelength (micrometers)
Y Units: Reflectance (percentage)
First X Value: 2.501
Last X Value: 15.387
Number of X Values: 1737
Additional Information: vegetation.tree.quercus.douglasii.tir.vh173.ucsb.nicolet.ancillary.txt

 2.5010	 6.8940
 2.5030	 7.0160
 2.5040	 6.9400
 2.5050	 6.7850
 2.5060	 6.9050
 2.5070	 6.9510
 2.5090	 6.8840
 2.5100	 6.6160
 2.5110	 6.5280
 2.5120	 6.5960
 2.5140	 6.6580
 2.5150	 6.5030
 2.5160	 6.5820
 2.5170	 6.5770
 2.5180	 6.5320
 2.5200	 6.4280
 2.5210	 6.4790
 2.5220	 6.5870
 2.5230	 6.6270
 2.5250	 6.6520
 2.5260	 6.5530
 2.5270	 6.4650
 2.5280	 6.6890
 2.5290	 6.8710
 2.5310	 6.7820
 2.5320	 6.6700
 2.5330	 6.7810
 2.5340	 6.6100
 2.5360	 6.4740
 2.5370	 6.5690
 2.5380	 6.6240
 2.5390	 6.4010
 2.5410	 6.4030
 2.5420	 6.4170
 2.5430	 6.4680
 2.5440	 6.5110
 2.5460	 6.6140
 2.5470	 6.5320
 2.5480	 6.6940
 2.5490	 6.6470
 2.5510	 6.5540
 2.5520	 6.4940
 2.5530	 6.4990
 2.5540	 6.5580
 2.5560	 6.7470
 2.5570	 6.7440
 2.5580	 6.7080
 2.5590	 6.7250
 2.5610	 6.7530
 2.5620	 6.7000
 2.5630	 6.7670
 2.5640	 6.7800
 2.5660	 6.7700
 2.5670	 6.6810
 2.5680	 6.5550
 2.5700	 6.6420
 2.5710	 6.8130
 2.5720	 6.7640
 2.5730	 6.7460
 2.5750	 6.6400
 2.5760	 6.6730
 2.5770	 6.5280
 2.5790	 6.6140
 2.5800	 6.7080
 2.5810	 6.7320
 2.5820	 6.6490
 2.5840	 6.6090
 2.5850	 6.6740
 2.5860	 6.6340
 2.5880	 6.5780
 2.5890	 6.6210
 2.5900	 6.4600
 2.5910	 6.3820
 2.5930	 6.4960
 2.5940	 6.4530
 2.5950	 6.4700
 2.5970	 6.5840
 2.5980	 6.4700
 2.5990	 6.4370
 2.6000	 6.4740
 2.6020	 6.5270
 2.6030	 6.5660
 2.6040	 6.6790
 2.6060	 6.6310
 2.6070	 6.5700
 2.6080	 6.6120
 2.6100	 6.5980
 2.6110	 6.4420
 2.6120	 6.2770
 2.6140	 6.0810
 2.6150	 6.1470
 2.6160	 6.2220
 2.6180	 6.3240
 2.6190	 6.2770
 2.6200	 6.2590
 2.6220	 6.2960
 2.6230	 6.4270
 2.6240	 6.3310
 2.6260	 6.2280
 2.6270	 6.1770
 2.6280	 6.1790
 2.6300	 6.0800
 2.6310	 6.0270
 2.6320	 6.0010
 2.6340	 6.0520
 2.6350	 6.0140
 2.6360	 6.1220
 2.6380	 6.0510
 2.6390	 5.9960
 2.6400	 5.8910
 2.6420	 5.8020
 2.6430	 5.6910
 2.6440	 5.7400
 2.6460	 5.6350
 2.6470	 5.5500
 2.6480	 5.6420
 2.6500	 5.6960
 2.6510	 5.6470
 2.6520	 5.5940
 2.6540	 5.4690
 2.6550	 5.5560
 2.6560	 5.5850
 2.6580	 5.6460
 2.6590	 5.6400
 2.6610	 5.5410
 2.6620	 5.4070
 2.6630	 5.4720
 2.6650	 5.4700
 2.6660	 5.5610
 2.6670	 5.5710
 2.6690	 5.5790
 2.6700	 5.4950
 2.6720	 5.5290
 2.6730	 5.4680
 2.6740	 5.3040
 2.6760	 5.1030
 2.6770	 5.1460
 2.6780	 5.2050
 2.6800	 5.3930
 2.6810	 5.4810
 2.6830	 5.3950
 2.6840	 5.1770
 2.6850	 5.1960
 2.6870	 5.1910
 2.6880	 5.1420
 2.6900	 5.1300
 2.6910	 5.1650
 2.6920	 5.0350
 2.6940	 4.9730
 2.6950	 4.9680
 2.6970	 4.9730
 2.6980	 4.9470
 2.6990	 4.9520
 2.7010	 4.8970
 2.7020	 4.9670
 2.7040	 4.9370
 2.7050	 4.9470
 2.7060	 4.7950
 2.7080	 4.8250
 2.7090	 4.7990
 2.7110	 4.7570
 2.7120	 4.7510
 2.7130	 4.7920
 2.7150	 4.8080
 2.7160	 4.8560
 2.7180	 4.7820
 2.7190	 4.7850
 2.7210	 4.6240
 2.7220	 4.7270
 2.7230	 4.7150
 2.7250	 4.6300
 2.7260	 4.5970
 2.7280	 4.5310
 2.7290	 4.2830
 2.7310	 4.3980
 2.7320	 4.4060
 2.7330	 4.3770
 2.7350	 4.3300
 2.7360	 4.4600
 2.7380	 4.5490
 2.7390	 4.4940
 2.7410	 4.4740
 2.7420	 4.4850
 2.7440	 4.3360
 2.7450	 4.5500
 2.7470	 4.5870
 2.7480	 4.5150
 2.7490	 4.4230
 2.7510	 4.5740
 2.7520	 4.3950
 2.7540	 4.2160
 2.7550	 4.2420
 2.7570	 4.3710
 2.7580	 4.3660
 2.7600	 4.3090
 2.7610	 4.3870
 2.7630	 4.5890
 2.7640	 4.4010
 2.7660	 4.4220
 2.7670	 4.3320
 2.7680	 4.1660
 2.7700	 4.3030
 2.7710	 4.4300
 2.7730	 4.3280
 2.7740	 4.3750
 2.7760	 4.3480
 2.7770	 4.2250
 2.7790	 3.9010
 2.7800	 4.0370
 2.7820	 4.2860
 2.7830	 4.3360
 2.7850	 4.1490
 2.7860	 4.0590
 2.7880	 4.1120
 2.7890	 4.2730
 2.7910	 4.3010
 2.7920	 4.2560
 2.7940	 4.1210
 2.7950	 4.0070
 2.7970	 3.9930
 2.7980	 4.1320
 2.8000	 4.2820
 2.8010	 4.2850
 2.8030	 4.1800
 2.8040	 4.1710
 2.8060	 4.1490
 2.8070	 4.1460
 2.8090	 4.1200
 2.8110	 4.0940
 2.8120	 3.9820
 2.8140	 3.9440
 2.8150	 3.8180
 2.8170	 3.8580
 2.8180	 4.0110
 2.8200	 4.1230
 2.8210	 4.0450
 2.8230	 4.1710
 2.8240	 4.0530
 2.8260	 3.9210
 2.8270	 3.9230
 2.8290	 4.0710
 2.8300	 4.0230
 2.8320	 4.0750
 2.8340	 4.0270
 2.8350	 4.0130
 2.8370	 3.9540
 2.8380	 3.8520
 2.8400	 3.9140
 2.8410	 4.0050
 2.8430	 3.9310
 2.8440	 4.1280
 2.8460	 4.0630
 2.8480	 3.8510
 2.8490	 3.8330
 2.8510	 3.9620
 2.8520	 4.0130
 2.8540	 4.1110
 2.8550	 3.9510
 2.8570	 3.9290
 2.8590	 3.9370
 2.8600	 3.9690
 2.8620	 3.8810
 2.8630	 3.9720
 2.8650	 3.9310
 2.8660	 3.8400
 2.8680	 3.7250
 2.8700	 3.8340
 2.8710	 3.8240
 2.8730	 3.8850
 2.8740	 4.0220
 2.8760	 4.3010
 2.8780	 4.2170
 2.8790	 4.1300
 2.8810	 4.0270
 2.8820	 4.0600
 2.8840	 3.9210
 2.8860	 3.7590
 2.8870	 3.7380
 2.8890	 3.9100
 2.8900	 4.0130
 2.8920	 3.7990
 2.8940	 3.8120
 2.8950	 4.0130
 2.8970	 4.0380
 2.8980	 4.0390
 2.9000	 3.9520
 2.9020	 3.9120
 2.9030	 3.8690
 2.9050	 3.8600
 2.9070	 3.7940
 2.9080	 3.8390
 2.9100	 3.8340
 2.9120	 3.9270
 2.9130	 3.9350
 2.9150	 4.0270
 2.9160	 4.0500
 2.9180	 4.1260
 2.9200	 4.1250
 2.9210	 4.0410
 2.9230	 3.9670
 2.9250	 3.9450
 2.9260	 3.8270
 2.9280	 3.8400
 2.9300	 3.8100
 2.9310	 3.8960
 2.9330	 3.9010
 2.9350	 3.9830
 2.9360	 3.9910
 2.9380	 4.1110
 2.9400	 4.1240
 2.9410	 3.9950
 2.9430	 4.0590
 2.9450	 4.1260
 2.9460	 4.1400
 2.9480	 4.2070
 2.9500	 4.0530
 2.9510	 3.9000
 2.9530	 3.8240
 2.9550	 4.2410
 2.9560	 4.2200
 2.9580	 4.4190
 2.9600	 4.5520
 2.9610	 4.2050
 2.9630	 3.7670
 2.9650	 4.2570
 2.9660	 4.6330
 2.9680	 4.2630
 2.9700	 3.6730
 2.9720	 3.3680
 2.9730	 3.4520
 2.9750	 5.0460
 2.9770	 6.7820
 2.9780	 6.9240
 2.9800	 5.6890
 2.9820	 3.9230
 2.9840	 3.0920
 2.9850	 3.4220
 2.9870	 3.8770
 2.9890	 3.8900
 2.9900	 3.9580
 2.9920	 4.0560
 2.9940	 3.8120
 2.9960	 3.3290
 2.9970	 3.9420
 2.9990	 4.3890
 3.0010	 3.9210
 3.0030	 3.6210
 3.0040	 4.0080
 3.0060	 4.6310
 3.0080	 4.0440
 3.0100	 3.8410
 3.0110	 4.3380
 3.0130	 4.6940
 3.0150	 4.5370
 3.0170	 3.7940
 3.0180	 3.8700
 3.0200	 4.8700
 3.0220	 4.4960
 3.0240	 4.1070
 3.0250	 4.1290
 3.0270	 4.1780
 3.0290	 4.1800
 3.0310	 4.0420
 3.0320	 3.6740
 3.0340	 3.8910
 3.0360	 4.7560
 3.0380	 5.1470
 3.0400	 4.1310
 3.0410	 3.2330
 3.0430	 2.8270
 3.0450	 3.5470
 3.0470	 3.2220
 3.0480	 4.3980
 3.0500	 4.0600
 3.0520	 2.5350
 3.0540	 2.0700
 3.0560	 2.3020
 3.0570	 1.9440
 3.0590	 2.4090
 3.0610	 3.4360
 3.0630	 2.6830
 3.0650	 2.6930
 3.0660	 2.8900
 3.0680	 3.7160
 3.0700	 4.3670
 3.0720	 4.7210
 3.0740	 4.6420
 3.0760	 4.2890
 3.0770	 4.4090
 3.0790	 4.3620
 3.0810	 4.2000
 3.0830	 4.0590
 3.0850	 4.0540
 3.0870	 4.0230
 3.0880	 4.0220
 3.0900	 3.9150
 3.0920	 4.1360
 3.0940	 4.3480
 3.0960	 4.3660
 3.0980	 4.4110
 3.0990	 4.3380
 3.1010	 4.0560
 3.1030	 4.2390
 3.1050	 4.4240
 3.1070	 4.0680
 3.1090	 3.8230
 3.1110	 3.8420
 3.1120	 3.9920
 3.1140	 4.2400
 3.1160	 4.1870
 3.1180	 4.3980
 3.1200	 4.4220
 3.1220	 4.0880
 3.1240	 4.0710
 3.1260	 4.2240
 3.1270	 4.3080
 3.1290	 4.2150
 3.1310	 3.6220
 3.1330	 3.4820
 3.1350	 3.5570
 3.1370	 3.9030
 3.1390	 4.0150
 3.1410	 4.1960
 3.1430	 4.5360
 3.1450	 5.1660
 3.1460	 5.0430
 3.1480	 4.6940
 3.1500	 4.2980
 3.1520	 4.4710
 3.1540	 4.1190
 3.1560	 3.4760
 3.1580	 3.8270
 3.1600	 4.6770
 3.1620	 5.2010
 3.1640	 4.8860
 3.1660	 3.5610
 3.1680	 4.1790
 3.1700	 4.7340
 3.1710	 4.4480
 3.1730	 3.7980
 3.1750	 3.7230
 3.1770	 3.7950
 3.1790	 3.6300
 3.1810	 4.1220
 3.1830	 4.4080
 3.1850	 4.2530
 3.1870	 4.4220
 3.1890	 4.3680
 3.1910	 4.3430
 3.1930	 4.3730
 3.1950	 4.4150
 3.1970	 4.3110
 3.1990	 4.2540
 3.2010	 4.2970
 3.2030	 4.3890
 3.2050	 4.3730
 3.2070	 4.4150
 3.2090	 4.3980
 3.2110	 4.2940
 3.2130	 4.2300
 3.2150	 4.4560
 3.2170	 4.4440
 3.2190	 4.2780
 3.2210	 4.1650
 3.2230	 4.4000
 3.2250	 4.4370
 3.2270	 4.2700
 3.2290	 4.0090
 3.2310	 4.1310
 3.2330	 4.3990
 3.2350	 4.5050
 3.2370	 4.4540
 3.2390	 4.3800
 3.2410	 4.3660
 3.2430	 4.4470
 3.2450	 4.3010
 3.2470	 4.0970
 3.2490	 4.1280
 3.2510	 4.2720
 3.2530	 4.3390
 3.2550	 4.5280
 3.2570	 4.5610
 3.2590	 4.3690
 3.2610	 4.2560
 3.2630	 4.0690
 3.2650	 3.8450
 3.2670	 3.8580
 3.2690	 4.0180
 3.2720	 4.2990
 3.2740	 4.3720
 3.2760	 4.4620
 3.2780	 4.4260
 3.2800	 4.3500
 3.2820	 4.3540
 3.2840	 4.5090
 3.2860	 4.5250
 3.2880	 4.4090
 3.2900	 4.2380
 3.2920	 4.3360
 3.2940	 4.3490
 3.2960	 4.3950
 3.2990	 4.4150
 3.3010	 4.3010
 3.3030	 4.1410
 3.3050	 4.1920
 3.3070	 4.2570
 3.3090	 4.4760
 3.3110	 4.5130
 3.3130	 4.3170
 3.3150	 4.2060
 3.3180	 4.3080
 3.3200	 4.2920
 3.3220	 4.3150
 3.3240	 4.3610
 3.3260	 4.3260
 3.3280	 4.0910
 3.3300	 4.0480
 3.3330	 4.0630
 3.3350	 4.3140
 3.3370	 4.3300
 3.3390	 4.1450
 3.3410	 4.0300
 3.3430	 4.1430
 3.3450	 4.0860
 3.3480	 4.0910
 3.3500	 4.0400
 3.3520	 4.0960
 3.3540	 4.2240
 3.3560	 4.2800
 3.3580	 4.1700
 3.3610	 4.1560
 3.3630	 4.1670
 3.3650	 4.1280
 3.3670	 3.8840
 3.3690	 3.9440
 3.3720	 4.1590
 3.3740	 4.1240
 3.3760	 4.0760
 3.3780	 4.0310
 3.3800	 3.9830
 3.3830	 4.0830
 3.3850	 4.0670
 3.3870	 4.0580
 3.3890	 3.9530
 3.3910	 3.6410
 3.3940	 3.5770
 3.3960	 3.7090
 3.3980	 3.7520
 3.4000	 3.9570
 3.4020	 4.0030
 3.4050	 4.0520
 3.4070	 4.1660
 3.4090	 4.4150
 3.4110	 4.6220
 3.4140	 4.7210
 3.4160	 4.8170
 3.4180	 5.1550
 3.4200	 5.5510
 3.4230	 5.9240
 3.4250	 6.3050
 3.4270	 6.8080
 3.4290	 6.8630
 3.4320	 6.5360
 3.4340	 5.9600
 3.4360	 5.5420
 3.4390	 5.2560
 3.4410	 5.0240
 3.4430	 5.0330
 3.4450	 5.2430
 3.4480	 5.2390
 3.4500	 4.9900
 3.4520	 4.7520
 3.4550	 4.8720
 3.4570	 4.8940
 3.4590	 4.9790
 3.4620	 4.9310
 3.4640	 4.8330
 3.4660	 4.7160
 3.4680	 4.6380
 3.4710	 4.6190
 3.4730	 4.6360
 3.4750	 4.5570
 3.4780	 4.5190
 3.4800	 4.5710
 3.4820	 4.5770
 3.4850	 4.4920
 3.4870	 4.4980
 3.4890	 4.4460
 3.4920	 4.5180
 3.4940	 4.5830
 3.4970	 4.6100
 3.4990	 4.6400
 3.5010	 4.7680
 3.5040	 4.9970
 3.5060	 5.5360
 3.5080	 6.0890
 3.5110	 6.4750
 3.5130	 6.2950
 3.5160	 5.8830
 3.5180	 5.4650
 3.5200	 5.1990
 3.5230	 5.0010
 3.5250	 4.9010
 3.5270	 4.9450
 3.5300	 5.0090
 3.5320	 4.9820
 3.5350	 5.0740
 3.5370	 5.0710
 3.5400	 5.0350
 3.5420	 5.0080
 3.5440	 4.9080
 3.5470	 4.7470
 3.5490	 4.8450
 3.5520	 4.9100
 3.5540	 4.9250
 3.5570	 4.9290
 3.5590	 4.9680
 3.5610	 4.8730
 3.5640	 4.9290
 3.5660	 4.9970
 3.5690	 4.9910
 3.5710	 4.8600
 3.5740	 4.8740
 3.5760	 4.9050
 3.5790	 4.9760
 3.5810	 4.9570
 3.5840	 4.9390
 3.5860	 4.9260
 3.5890	 4.9860
 3.5910	 4.9920
 3.5930	 4.9450
 3.5960	 4.9350
 3.5980	 4.9290
 3.6010	 4.9380
 3.6030	 4.9890
 3.6060	 4.9420
 3.6080	 4.8860
 3.6110	 4.7160
 3.6140	 4.8240
 3.6160	 4.8500
 3.6190	 4.7920
 3.6210	 4.8470
 3.6240	 4.9790
 3.6260	 4.9410
 3.6290	 4.7690
 3.6310	 4.6210
 3.6340	 4.7620
 3.6360	 4.8450
 3.6390	 4.8930
 3.6410	 4.9030
 3.6440	 4.8640
 3.6470	 4.7990
 3.6490	 4.8190
 3.6520	 4.8500
 3.6540	 4.8890
 3.6570	 4.8390
 3.6590	 4.9150
 3.6620	 4.9330
 3.6650	 4.8220
 3.6670	 4.7980
 3.6700	 4.8180
 3.6720	 4.7350
 3.6750	 4.7040
 3.6780	 4.7000
 3.6800	 4.7720
 3.6830	 4.8040
 3.6850	 4.8110
 3.6880	 4.8120
 3.6910	 4.8790
 3.6930	 4.8870
 3.6960	 4.8420
 3.6990	 4.8030
 3.7010	 4.9210
 3.7040	 4.9410
 3.7060	 4.8990
 3.7090	 4.8630
 3.7120	 4.9300
 3.7140	 4.9200
 3.7170	 4.8260
 3.7200	 4.7640
 3.7220	 4.8510
 3.7250	 4.7840
 3.7280	 4.7630
 3.7300	 4.7810
 3.7330	 4.7430
 3.7360	 4.6690
 3.7390	 4.7340
 3.7410	 4.8230
 3.7440	 4.8770
 3.7470	 5.0490
 3.7490	 5.0410
 3.7520	 4.8910
 3.7550	 4.8740
 3.7580	 4.8460
 3.7600	 4.7980
 3.7630	 4.8100
 3.7660	 4.8560
 3.7680	 4.8900
 3.7710	 4.8950
 3.7740	 4.7720
 3.7770	 4.7810
 3.7790	 4.8910
 3.7820	 4.9820
 3.7850	 4.8900
 3.7880	 4.8320
 3.7900	 4.8190
 3.7930	 4.8220
 3.7960	 4.7890
 3.7990	 4.8680
 3.8020	 4.8790
 3.8040	 4.9450
 3.8070	 4.9650
 3.8100	 5.0510
 3.8130	 5.1250
 3.8160	 5.1400
 3.8180	 5.0750
 3.8210	 5.0040
 3.8240	 4.9770
 3.8270	 5.0050
 3.8300	 4.9760
 3.8330	 4.9820
 3.8350	 4.7750
 3.8380	 4.6470
 3.8410	 4.7180
 3.8440	 4.8270
 3.8470	 4.7670
 3.8500	 4.7980
 3.8520	 4.9260
 3.8550	 5.0270
 3.8580	 5.0030
 3.8610	 4.9510
 3.8640	 4.8760
 3.8670	 4.9070
 3.8700	 4.9210
 3.8730	 4.9360
 3.8750	 4.9100
 3.8780	 4.9560
 3.8810	 4.9590
 3.8840	 4.9420
 3.8870	 4.9000
 3.8900	 4.8730
 3.8930	 4.8750
 3.8960	 4.9070
 3.8990	 4.9020
 3.9020	 4.8850
 3.9050	 4.8830
 3.9080	 4.9540
 3.9110	 5.0130
 3.9140	 5.0330
 3.9160	 4.9610
 3.9190	 5.0000
 3.9220	 5.0480
 3.9250	 4.9670
 3.9280	 4.9050
 3.9310	 4.9790
 3.9340	 4.9680
 3.9370	 5.0170
 3.9400	 5.0120
 3.9430	 4.9860
 3.9460	 4.9630
 3.9490	 4.9220
 3.9520	 4.9320
 3.9550	 5.0120
 3.9580	 4.9340
 3.9610	 4.8910
 3.9640	 4.9540
 3.9670	 4.9740
 3.9700	 4.9830
 3.9730	 5.0450
 3.9770	 5.0110
 3.9800	 4.9600
 3.9830	 5.0140
 3.9860	 5.1110
 3.9890	 5.1570
 3.9920	 5.0940
 3.9950	 5.0170
 3.9980	 5.0160
 4.0010	 5.0050
 4.0040	 4.9770
 4.0070	 4.9990
 4.0100	 5.0200
 4.0130	 4.9880
 4.0170	 5.0620
 4.0200	 5.0940
 4.0230	 5.1010
 4.0260	 5.0380
 4.0290	 4.9810
 4.0320	 5.0110
 4.0350	 5.0190
 4.0380	 5.0030
 4.0420	 5.0390
 4.0450	 5.0840
 4.0480	 5.1720
 4.0510	 5.1590
 4.0540	 5.0910
 4.0570	 5.0240
 4.0610	 5.1150
 4.0640	 5.1040
 4.0670	 4.9690
 4.0700	 4.8430
 4.0730	 4.8460
 4.0770	 4.9320
 4.0800	 5.0080
 4.0830	 5.0680
 4.0860	 5.0370
 4.0890	 5.0080
 4.0930	 5.0200
 4.0960	 5.1170
 4.0990	 5.1100
 4.1020	 5.0320
 4.1060	 5.1010
 4.1090	 5.1870
 4.1120	 5.1940
 4.1150	 5.1830
 4.1190	 5.2180
 4.1220	 5.0940
 4.1250	 5.0730
 4.1280	 5.0860
 4.1320	 5.0470
 4.1350	 5.0140
 4.1380	 5.0820
 4.1420	 5.1430
 4.1450	 5.0790
 4.1480	 4.9520
 4.1520	 5.0570
 4.1550	 5.1260
 4.1580	 5.0310
 4.1620	 5.0410
 4.1650	 5.1410
 4.1680	 5.1620
 4.1720	 5.0890
 4.1750	 5.0630
 4.1780	 5.0940
 4.1820	 5.0370
 4.1850	 4.9700
 4.1890	 5.0420
 4.1920	 5.1720
 4.1950	 5.1350
 4.1990	 5.1060
 4.2020	 5.2020
 4.2060	 5.3280
 4.2090	 5.4300
 4.2120	 5.6080
 4.2160	 5.7240
 4.2190	 5.6730
 4.2230	 5.5090
 4.2260	 5.4290
 4.2300	 5.6870
 4.2330	 5.8430
 4.2360	 5.7040
 4.2400	 5.9620
 4.2430	 5.9580
 4.2470	 5.8380
 4.2500	 5.7040
 4.2540	 5.6780
 4.2570	 5.3720
 4.2610	 5.3090
 4.2640	 5.3120
 4.2680	 5.5030
 4.2710	 5.4540
 4.2750	 5.3030
 4.2780	 5.4990
 4.2820	 5.6920
 4.2850	 5.6950
 4.2890	 5.8360
 4.2930	 5.8240
 4.2960	 5.6090
 4.3000	 5.4760
 4.3030	 5.4650
 4.3070	 5.4560
 4.3100	 5.3800
 4.3140	 5.3240
 4.3180	 5.2900
 4.3210	 5.2090
 4.3250	 5.2210
 4.3280	 5.2490
 4.3320	 5.2740
 4.3360	 5.2120
 4.3390	 5.0910
 4.3430	 5.0010
 4.3470	 5.0100
 4.3500	 4.9790
 4.3540	 5.0150
 4.3570	 5.0800
 4.3610	 5.1410
 4.3650	 5.0970
 4.3680	 5.0080
 4.3720	 5.0220
 4.3760	 5.0820
 4.3800	 5.0670
 4.3830	 5.0000
 4.3870	 4.9460
 4.3910	 4.9060
 4.3940	 4.8670
 4.3980	 4.9330
 4.4020	 4.9940
 4.4060	 5.0130
 4.4090	 4.9770
 4.4130	 5.0120
 4.4170	 5.0330
 4.4210	 5.0020
 4.4240	 4.9210
 4.4280	 4.8650
 4.4320	 4.9060
 4.4360	 4.9670
 4.4400	 5.0130
 4.4430	 5.0510
 4.4470	 5.0870
 4.4510	 5.0440
 4.4550	 4.9760
 4.4590	 4.9370
 4.4620	 4.9560
 4.4660	 4.9780
 4.4700	 4.9750
 4.4740	 4.9360
 4.4780	 4.8410
 4.4820	 4.8330
 4.4860	 4.8820
 4.4900	 4.8820
 4.4930	 4.8770
 4.4970	 4.9060
 4.5010	 4.9490
 4.5050	 5.0060
 4.5090	 4.9830
 4.5130	 4.9630
 4.5170	 5.0300
 4.5210	 5.0290
 4.5250	 4.8930
 4.5290	 4.8200
 4.5330	 4.8360
 4.5370	 4.8580
 4.5410	 4.8920
 4.5450	 4.9080
 4.5490	 4.9350
 4.5530	 4.9070
 4.5570	 4.9500
 4.5610	 4.9520
 4.5650	 4.9240
 4.5690	 4.9150
 4.5730	 4.9020
 4.5770	 4.8420
 4.5810	 4.8060
 4.5850	 4.8350
 4.5890	 4.8560
 4.5930	 4.8170
 4.5970	 4.8030
 4.6010	 4.8250
 4.6050	 4.9220
 4.6090	 4.8900
 4.6130	 4.8450
 4.6170	 5.0720
 4.6220	 5.0850
 4.6260	 4.8860
 4.6300	 4.7450
 4.6340	 4.7440
 4.6380	 4.7750
 4.6420	 4.7480
 4.6460	 4.7710
 4.6510	 4.7650
 4.6550	 4.7450
 4.6590	 4.7360
 4.6630	 4.6960
 4.6670	 4.7380
 4.6720	 4.8640
 4.6760	 4.8600
 4.6800	 4.8410
 4.6840	 4.8510
 4.6880	 4.8160
 4.6930	 4.7770
 4.6970	 4.8290
 4.7010	 4.8010
 4.7050	 4.7160
 4.7100	 4.6860
 4.7140	 4.7290
 4.7180	 4.7540
 4.7230	 4.7170
 4.7270	 4.7370
 4.7310	 4.8110
 4.7360	 4.8720
 4.7400	 4.8590
 4.7440	 4.8510
 4.7490	 4.8590
 4.7530	 4.8300
 4.7570	 4.7830
 4.7620	 4.7830
 4.7660	 4.7700
 4.7700	 4.7940
 4.7750	 4.8640
 4.7790	 4.9060
 4.7840	 4.8760
 4.7880	 5.0360
 4.7920	 5.0760
 4.7970	 4.8560
 4.8010	 4.8690
 4.8060	 4.8280
 4.8100	 4.7610
 4.8150	 4.7830
 4.8190	 4.8280
 4.8240	 4.8560
 4.8280	 4.8220
 4.8330	 4.7740
 4.8370	 4.7800
 4.8420	 4.7880
 4.8460	 4.8270
 4.8510	 4.8390
 4.8550	 4.8220
 4.8600	 4.7910
 4.8640	 4.8660
 4.8690	 4.8870
 4.8730	 4.8230
 4.8780	 4.7700
 4.8830	 4.7990
 4.8870	 4.7860
 4.8920	 4.8330
 4.8960	 4.8350
 4.9010	 4.8120
 4.9060	 4.7760
 4.9100	 4.8260
 4.9150	 4.8550
 4.9200	 4.8050
 4.9240	 4.7120
 4.9290	 4.7160
 4.9340	 4.7680
 4.9380	 4.8210
 4.9430	 4.8140
 4.9480	 4.8730
 4.9530	 4.8700
 4.9570	 4.8560
 4.9620	 4.8630
 4.9670	 4.8800
 4.9720	 4.8440
 4.9760	 4.8210
 4.9810	 4.8040
 4.9860	 4.8170
 4.9910	 4.7700
 4.9960	 4.7610
 5.0000	 4.7650
 5.0050	 4.8050
 5.0100	 4.8390
 5.0150	 4.8340
 5.0200	 4.8190
 5.0250	 4.8460
 5.0290	 4.8320
 5.0340	 4.7790
 5.0390	 4.7190
 5.0440	 4.7620
 5.0490	 4.8120
 5.0540	 4.7880
 5.0590	 4.8260
 5.0640	 4.9220
 5.0690	 4.8680
 5.0740	 4.8510
 5.0790	 4.8690
 5.0840	 4.8540
 5.0890	 4.8120
 5.0940	 4.8510
 5.0990	 4.8120
 5.1040	 4.7460
 5.1090	 4.7470
 5.1140	 4.8190
 5.1190	 4.8170
 5.1240	 4.8310
 5.1290	 4.7760
 5.1340	 4.7930
 5.1390	 4.7800
 5.1440	 4.7930
 5.1490	 4.7920
 5.1540	 4.7780
 5.1600	 4.7700
 5.1650	 4.8050
 5.1700	 4.8640
 5.1750	 4.8820
 5.1800	 4.8330
 5.1850	 4.8310
 5.1910	 4.7960
 5.1960	 4.8320
 5.2010	 4.7750
 5.2060	 4.7530
 5.2110	 4.7300
 5.2170	 4.7700
 5.2220	 4.7910
 5.2270	 4.8180
 5.2320	 4.8250
 5.2380	 4.8020
 5.2430	 4.7870
 5.2480	 4.8630
 5.2540	 4.8010
 5.2590	 4.7790
 5.2640	 4.8030
 5.2700	 4.8570
 5.2750	 4.8140
 5.2800	 4.7780
 5.2860	 4.6900
 5.2910	 4.6700
 5.2970	 4.7300
 5.3020	 4.7450
 5.3070	 4.7350
 5.3130	 4.7630
 5.3180	 4.6990
 5.3240	 4.6560
 5.3290	 4.6970
 5.3350	 4.7590
 5.3400	 4.6910
 5.3460	 4.6660
 5.3510	 4.6940
 5.3570	 4.7680
 5.3620	 4.7810
 5.3680	 4.7550
 5.3730	 4.7610
 5.3790	 4.7880
 5.3850	 4.7040
 5.3900	 4.7170
 5.3960	 4.7620
 5.4010	 4.7190
 5.4070	 4.6110
 5.4130	 4.6240
 5.4180	 4.6240
 5.4240	 4.6760
 5.4300	 4.7290
 5.4350	 4.7210
 5.4410	 4.6470
 5.4470	 4.6560
 5.4530	 4.6770
 5.4580	 4.6470
 5.4640	 4.5810
 5.4700	 4.5560
 5.4760	 4.5450
 5.4810	 4.5870
 5.4870	 4.5520
 5.4930	 4.5410
 5.4990	 4.5220
 5.5050	 4.5350
 5.5110	 4.4700
 5.5160	 4.4130
 5.5220	 4.3260
 5.5280	 4.3540
 5.5340	 4.3710
 5.5400	 4.3310
 5.5460	 4.2530
 5.5520	 4.2340
 5.5580	 4.2970
 5.5640	 4.4050
 5.5700	 4.4070
 5.5760	 4.3890
 5.5820	 4.3110
 5.5880	 4.3040
 5.5940	 4.2470
 5.6000	 4.1580
 5.6060	 4.1100
 5.6120	 4.0650
 5.6180	 3.9780
 5.6240	 3.9810
 5.6300	 3.8780
 5.6360	 3.9060
 5.6420	 3.9050
 5.6490	 3.8670
 5.6550	 3.7760
 5.6610	 3.7230
 5.6670	 3.6360
 5.6730	 3.4730
 5.6800	 3.3490
 5.6860	 3.4430
 5.6920	 3.4530
 5.6980	 3.4150
 5.7040	 3.3850
 5.7110	 3.3880
 5.7170	 3.3330
 5.7230	 3.2760
 5.7300	 3.1500
 5.7360	 3.0840
 5.7420	 3.0870
 5.7490	 3.2400
 5.7550	 3.3410
 5.7620	 3.4330
 5.7680	 3.4550
 5.7740	 3.6320
 5.7810	 3.8170
 5.7870	 4.0550
 5.7940	 4.1310
 5.8000	 4.1840
 5.8070	 4.2590
 5.8130	 4.3660
 5.8200	 4.3660
 5.8260	 4.3990
 5.8330	 4.4170
 5.8390	 4.5390
 5.8460	 4.6680
 5.8530	 4.7410
 5.8590	 4.7280
 5.8660	 4.8410
 5.8720	 4.8750
 5.8790	 4.9120
 5.8860	 4.8810
 5.8920	 4.9240
 5.8990	 4.9420
 5.9060	 4.9410
 5.9130	 4.8700
 5.9190	 4.9070
 5.9260	 4.8770
 5.9330	 4.8650
 5.9400	 4.8810
 5.9470	 5.0270
 5.9530	 4.9480
 5.9600	 4.8170
 5.9670	 4.7460
 5.9740	 4.7740
 5.9810	 4.6890
 5.9880	 4.6800
 5.9950	 4.6640
 6.0020	 4.6450
 6.0090	 4.4930
 6.0160	 4.5140
 6.0230	 4.5240
 6.0300	 4.4850
 6.0370	 4.3410
 6.0440	 4.4380
 6.0510	 4.6490
 6.0580	 4.6350
 6.0650	 4.5220
 6.0720	 4.6280
 6.0790	 4.6230
 6.0860	 4.6910
 6.0930	 4.6060
 6.1000	 4.6550
 6.1080	 4.6790
 6.1150	 4.6990
 6.1220	 4.5980
 6.1290	 4.6460
 6.1370	 4.5910
 6.1440	 4.5770
 6.1510	 4.4990
 6.1580	 4.4420
 6.1660	 4.4130
 6.1730	 4.4170
 6.1800	 4.4110
 6.1880	 4.5540
 6.1950	 4.5250
 6.2030	 4.5540
 6.2100	 4.5590
 6.2170	 4.5950
 6.2250	 4.5320
 6.2320	 4.5360
 6.2400	 4.5900
 6.2470	 4.7950
 6.2550	 4.7220
 6.2630	 4.7450
 6.2700	 4.7870
 6.2780	 4.8110
 6.2850	 4.7040
 6.2930	 4.7550
 6.3010	 4.7870
 6.3080	 4.8740
 6.3160	 4.7810
 6.3240	 4.7570
 6.3310	 4.8520
 6.3390	 4.9030
 6.3470	 4.8290
 6.3550	 4.9740
 6.3620	 4.8850
 6.3700	 4.8410
 6.3780	 4.8470
 6.3860	 4.9700
 6.3940	 4.9840
 6.4020	 4.9700
 6.4100	 4.8760
 6.4180	 4.8650
 6.4260	 4.7950
 6.4330	 4.8320
 6.4410	 4.8860
 6.4490	 4.9280
 6.4580	 4.7420
 6.4660	 4.7310
 6.4740	 4.7630
 6.4820	 4.8200
 6.4900	 4.7850
 6.4980	 4.8400
 6.5060	 4.7320
 6.5140	 4.6380
 6.5230	 4.5370
 6.5310	 4.5740
 6.5390	 4.5590
 6.5470	 4.5520
 6.5550	 4.4810
 6.5640	 4.4710
 6.5720	 4.2920
 6.5800	 4.2860
 6.5890	 4.3190
 6.5970	 4.4090
 6.6060	 4.4340
 6.6140	 4.5430
 6.6220	 4.6160
 6.6310	 4.7060
 6.6390	 4.6760
 6.6480	 4.6640
 6.6560	 4.6660
 6.6650	 4.7520
 6.6740	 4.6320
 6.6820	 4.5870
 6.6910	 4.6300
 6.6990	 4.7100
 6.7080	 4.5570
 6.7170	 4.5750
 6.7260	 4.5660
 6.7340	 4.5410
 6.7430	 4.5080
 6.7520	 4.5930
 6.7610	 4.4880
 6.7690	 4.4370
 6.7780	 4.3850
 6.7870	 4.5630
 6.7960	 4.4650
 6.8050	 4.3130
 6.8140	 4.2840
 6.8230	 4.4920
 6.8320	 4.6970
 6.8410	 4.8640
 6.8500	 4.6760
 6.8590	 4.7190
 6.8680	 4.7040
 6.8770	 4.7400
 6.8860	 4.6180
 6.8950	 4.5860
 6.9050	 4.6320
 6.9140	 4.7330
 6.9230	 4.6100
 6.9320	 4.6150
 6.9420	 4.5220
 6.9510	 4.5420
 6.9600	 4.6460
 6.9700	 4.7350
 6.9790	 4.5960
 6.9880	 4.6360
 6.9980	 4.5110
 7.0070	 4.4590
 7.0170	 4.4970
 7.0260	 4.5980
 7.0360	 4.5860
 7.0450	 4.6110
 7.0550	 4.5640
 7.0650	 4.6960
 7.0740	 4.6350
 7.0840	 4.7130
 7.0940	 4.7340
 7.1030	 4.7310
 7.1130	 4.5530
 7.1230	 4.5230
 7.1330	 4.4370
 7.1420	 4.4660
 7.1520	 4.3590
 7.1620	 4.3880
 7.1720	 4.3820
 7.1820	 4.4050
 7.1920	 4.2750
 7.2020	 4.4200
 7.2120	 4.4170
 7.2220	 4.3490
 7.2320	 4.2050
 7.2420	 4.2920
 7.2520	 4.2010
 7.2620	 4.2290
 7.2730	 4.2010
 7.2830	 4.2930
 7.2930	 4.1760
 7.3030	 4.1860
 7.3140	 4.2410
 7.3240	 4.4340
 7.3340	 4.3660
 7.3450	 4.3870
 7.3550	 4.4030
 7.3660	 4.5650
 7.3760	 4.5060
 7.3870	 4.5620
 7.3970	 4.5860
 7.4080	 4.7230
 7.4180	 4.6850
 7.4290	 4.7280
 7.4400	 4.6280
 7.4500	 4.5860
 7.4610	 4.5070
 7.4720	 4.5700
 7.4830	 4.5420
 7.4930	 4.5280
 7.5040	 4.4340
 7.5150	 4.4610
 7.5260	 4.4160
 7.5370	 4.4910
 7.5480	 4.3890
 7.5590	 4.3610
 7.5700	 4.2650
 7.5810	 4.2930
 7.5920	 4.1580
 7.6030	 4.1120
 7.6140	 4.0320
 7.6260	 4.1690
 7.6370	 4.1910
 7.6480	 4.2710
 7.6590	 4.2130
 7.6710	 4.2810
 7.6820	 4.2660
 7.6930	 4.3960
 7.7050	 4.3070
 7.7160	 4.3830
 7.7280	 4.3260
 7.7390	 4.3110
 7.7510	 4.0870
 7.7630	 4.0770
 7.7740	 4.0810
 7.7860	 4.1520
 7.7980	 4.0800
 7.8090	 4.1220
 7.8210	 4.0600
 7.8330	 4.1510
 7.8450	 4.0220
 7.8570	 4.1230
 7.8690	 4.0880
 7.8810	 4.0060
 7.8930	 3.8840
 7.9050	 4.0790
 7.9170	 4.1040
 7.9290	 4.0890
 7.9410	 4.0550
 7.9530	 4.2160
 7.9650	 4.1210
 7.9780	 4.1750
 7.9900	 4.1200
 8.0020	 4.1100
 8.0150	 3.8970
 8.0270	 3.8920
 8.0390	 3.8040
 8.0520	 3.8600
 8.0640	 3.7750
 8.0770	 3.9750
 8.0900	 3.9990
 8.1020	 4.0430
 8.1150	 3.8570
 8.1280	 3.9490
 8.1400	 3.8640
 8.1530	 3.9270
 8.1660	 3.7500
 8.1790	 3.9160
 8.1920	 3.8450
 8.2050	 3.8740
 8.2180	 3.8750
 8.2310	 4.0980
 8.2440	 3.8960
 8.2570	 3.9150
 8.2700	 4.0610
 8.2830	 4.2330
 8.2970	 4.1510
 8.3100	 4.1800
 8.3230	 4.0510
 8.3370	 4.1960
 8.3500	 4.2150
 8.3640	 4.2540
 8.3770	 4.0550
 8.3910	 4.0750
 8.4040	 3.8590
 8.4180	 3.9280
 8.4320	 3.9810
 8.4450	 4.1120
 8.4590	 3.8720
 8.4730	 3.9470
 8.4870	 4.0210
 8.5010	 4.2800
 8.5150	 4.1900
 8.5290	 4.3040
 8.5430	 4.2710
 8.5570	 4.2560
 8.5710	 4.1390
 8.5850	 4.4020
 8.5990	 4.5000
 8.6140	 4.5580
 8.6280	 4.2910
 8.6420	 4.3100
 8.6570	 4.2630
 8.6710	 4.3300
 8.6860	 4.1440
 8.7000	 4.3780
 8.7150	 4.3020
 8.7300	 4.3770
 8.7440	 4.3580
 8.7590	 4.5550
 8.7740	 4.3770
 8.7890	 4.2720
 8.8040	 4.0700
 8.8190	 4.0780
 8.8340	 3.8940
 8.8490	 4.0690
 8.8640	 4.0080
 8.8790	 4.0120
 8.8940	 3.7930
 8.9100	 3.8970
 8.9250	 3.7530
 8.9400	 3.7770
 8.9560	 3.6040
 8.9710	 3.8290
 8.9870	 3.6660
 9.0020	 3.6040
 9.0180	 3.5740
 9.0340	 3.7880
 9.0500	 3.6020
 9.0650	 3.7320
 9.0810	 3.6580
 9.0970	 3.8420
 9.1130	 3.8500
 9.1290	 3.8500
 9.1450	 3.7160
 9.1610	 3.8460
 9.1780	 3.6850
 9.1940	 3.8040
 9.2100	 3.6400
 9.2270	 3.8390
 9.2430	 3.8680
 9.2600	 4.1740
 9.2760	 4.1820
 9.2930	 4.2680
 9.3090	 4.1390
 9.3260	 4.4050
 9.3430	 4.3120
 9.3600	 4.3060
 9.3770	 4.1330
 9.3940	 4.3700
 9.4110	 4.3590
 9.4280	 4.6300
 9.4450	 4.6040
 9.4620	 4.8220
 9.4800	 4.7250
 9.4970	 4.7900
 9.5140	 4.7390
 9.5320	 4.9230
 9.5500	 4.8130
 9.5670	 4.9080
 9.5850	 4.7580
 9.6030	 4.9710
 9.6200	 4.8450
 9.6380	 5.0370
 9.6560	 5.2340
 9.6740	 5.5710
 9.6920	 5.3860
 9.7100	 5.4940
 9.7290	 5.2730
 9.7470	 5.4470
 9.7650	 5.2730
 9.7840	 5.3200
 9.8020	 5.2300
 9.8210	 5.2970
 9.8390	 5.1250
 9.8580	 5.4260
 9.8770	 5.4180
 9.8960	 5.5810
 9.9150	 5.5030
 9.9340	 5.7150
 9.9530	 5.6050
 9.9720	 5.5510
 9.9910	 5.2710
10.0100	 5.5740
10.0300	 5.4550
10.0490	 5.4470
10.0690	 5.2330
10.0880	 5.3000
10.1080	 5.1850
10.1280	 5.3530
10.1480	 5.2790
10.1670	 5.4500
10.1870	 5.1930
10.2070	 5.2430
10.2280	 5.0630
10.2480	 5.0990
10.2680	 4.9240
10.2890	 5.0830
10.3090	 4.9930
10.3300	 5.2120
10.3500	 5.1400
10.3710	 5.3600
10.3920	 5.2930
10.4120	 5.3410
10.4330	 5.2420
10.4540	 5.4680
10.4760	 5.3940
10.4970	 5.4450
10.5180	 5.2320
10.5390	 5.2980
10.5610	 5.2810
10.5820	 5.5390
10.6040	 5.3820
10.6260	 5.4560
10.6480	 5.3350
10.6700	 5.4150
10.6920	 5.2850
10.7140	 5.4670
10.7360	 5.2850
10.7580	 5.3600
10.7800	 5.2910
10.8030	 5.5270
10.8250	 5.3520
10.8480	 5.4350
10.8710	 5.3640
10.8940	 5.4840
10.9170	 5.2540
10.9400	 5.4560
10.9630	 5.5120
10.9860	 5.5690
11.0090	 5.2000
11.0330	 5.2620
11.0560	 5.0270
11.0800	 5.1300
11.1040	 5.2180
11.1270	 5.2920
11.1510	 4.8940
11.1750	 5.0770
11.2000	 4.9390
11.2240	 5.1930
11.2480	 4.9780
11.2730	 4.5750
11.2970	 4.0220
11.3220	 4.8790
11.3470	 5.0910
11.3720	 5.2680
11.3970	 5.2580
11.4220	 5.4180
11.4470	 5.1230
11.4720	 5.2560
11.4980	 5.0220
11.5230	 5.0870
11.5490	 4.7450
11.5750	 4.8620
11.6000	 4.7930
11.6260	 4.8040
11.6530	 4.5020
11.6790	 4.7570
11.7050	 4.7880
11.7320	 4.9190
11.7580	 4.7860
11.7850	 5.1060
11.8120	 4.8550
11.8390	 4.9310
11.8660	 4.5960
11.8930	 4.8310
11.9200	 4.6500
11.9480	 4.8380
11.9760	 4.7530
12.0030	 5.0430
12.0310	 4.8020
12.0590	 4.9310
12.0870	 4.8070
12.1150	 4.9600
12.1440	 4.6680
12.1720	 4.8860
12.2010	 4.7640
12.2300	 4.8330
12.2590	 4.4660
12.2880	 4.7360
12.3170	 4.6670
12.3460	 5.0180
12.3760	 4.7990
12.4050	 5.0380
12.4350	 4.8410
12.4650	 4.9240
12.4950	 4.6100
12.5250	 4.9350
12.5550	 4.6220
12.5860	 4.7410
12.6170	 4.6280
12.6470	 5.0460
12.6780	 4.7940
12.7090	 4.9540
12.7410	 4.8130
12.7720	 5.0960
12.8030	 4.6910
12.8350	 4.8080
12.8670	 4.7430
12.8990	 5.0820
12.9310	 4.8400
12.9640	 5.0300
12.9960	 4.7310
13.0290	 4.8790
13.0610	 4.7200
13.0940	 5.0510
13.1280	 4.8690
13.1610	 5.0040
13.1940	 4.6450
13.2280	 4.8990
13.2620	 4.6200
13.2960	 4.9220
13.3300	 4.6530
13.3640	 4.7410
13.3990	 4.4100
13.4340	 4.6860
13.4690	 4.4090
13.5040	 4.8220
13.5390	 4.5150
13.5740	 4.7050
13.6100	 4.5220
13.6460	 5.0020
13.6820	 4.6170
13.7180	 4.7870
13.7540	 4.6340
13.7910	 5.0370
13.8280	 4.7230
13.8650	 5.0310
13.9020	 4.8530
13.9390	 5.0580
13.9770	 4.5880
14.0150	 4.9760
14.0530	 4.5980
14.0910	 4.5650
14.1290	 4.0340
14.1680	 4.4770
14.2070	 4.3300
14.2460	 4.6160
14.2850	 4.0710
14.3240	 4.7490
14.3640	 4.6250
14.4040	 4.8910
14.4440	 4.3820
14.4840	 4.9400
14.5250	 4.6770
14.5660	 4.7870
14.6070	 3.9100
14.6480	 4.5280
14.6900	 4.4290
14.7310	 4.8490
14.7730	 4.0480
14.8150	 4.7240
14.8580	 4.2170
14.9010	 4.6140
14.9440	 4.0360
14.9870	 4.3490
15.0300	 3.2840
15.0740	 3.7890
15.1180	 3.8180
15.1620	 4.6720
15.2060	 4.0280
15.2510	 4.6860
15.2960	 4.0240
15.3410	 4.7360
15.3870	 4.5430
