Name: Arctostaphylos glandulosa 1
Type: vegetation
Class: Shrub
Genus: Arctostaphylos
Species: glandulosa
Sample No.: VH036
Owner: UCSB
Wavelength Range: TIR
Origin: 34.5084; -119.7682; WGS84
Collection Date: 4/1/2013
Description: Samples were collected as part of the HyspIRI Airborne Campaign. 48 individual plants were sampled in three times in 2013 - spring  summer  and fall. The name of the sample includes a 1  2  or 3 which references a different individual of the species. Samples were taken to JPL and processed within 48 hours of collection. The same leaves were processed in the Nicolet and then measured using the ASD.
Measurement: Hemispherical reflectance
First Column: X
Second Column: Y
X Units: Wavelength (micrometers)
Y Units: Reflectance (percentage)
First X Value: 2.501
Last X Value: 15.387
Number of X Values: 1737
Additional Information: vegetation.shrub.arctostaphylos.glandulosa.tir.vh036.ucsb.nicolet.ancillary.txt

 2.5010	15.1220
 2.5030	15.1420
 2.5040	15.0950
 2.5050	15.0300
 2.5060	15.1750
 2.5070	15.2090
 2.5090	15.1610
 2.5100	15.0830
 2.5110	15.1490
 2.5120	15.1260
 2.5140	15.1390
 2.5150	15.1100
 2.5160	15.1810
 2.5170	15.2260
 2.5180	15.1910
 2.5200	15.1430
 2.5210	15.1360
 2.5220	15.0330
 2.5230	15.0810
 2.5250	15.2240
 2.5260	15.3290
 2.5270	15.2170
 2.5280	15.2180
 2.5290	15.1480
 2.5310	15.1020
 2.5320	15.1410
 2.5330	15.1810
 2.5340	15.1130
 2.5360	15.1490
 2.5370	15.1950
 2.5380	15.2550
 2.5390	15.1870
 2.5410	15.1930
 2.5420	15.2430
 2.5430	15.3340
 2.5440	15.2730
 2.5460	15.2030
 2.5470	15.1640
 2.5480	15.1810
 2.5490	15.2020
 2.5510	15.2490
 2.5520	15.2130
 2.5530	15.1860
 2.5540	15.1270
 2.5560	15.1430
 2.5570	15.0780
 2.5580	15.1410
 2.5590	15.1820
 2.5610	15.2680
 2.5620	15.2590
 2.5630	15.2430
 2.5640	15.1890
 2.5660	15.1820
 2.5670	15.2910
 2.5680	15.3520
 2.5700	15.1550
 2.5710	15.1410
 2.5720	15.1310
 2.5730	15.1410
 2.5750	15.0520
 2.5760	15.1750
 2.5770	15.2460
 2.5790	15.2210
 2.5800	15.2410
 2.5810	15.3800
 2.5820	15.3020
 2.5840	15.2730
 2.5850	15.1470
 2.5860	15.1700
 2.5880	15.1270
 2.5890	15.0620
 2.5900	15.1410
 2.5910	15.2420
 2.5930	15.1370
 2.5940	15.1300
 2.5950	15.1590
 2.5970	15.1800
 2.5980	15.0950
 2.5990	15.0680
 2.6000	15.1080
 2.6020	15.1550
 2.6030	15.0590
 2.6040	15.1470
 2.6060	15.2570
 2.6070	15.2940
 2.6080	15.3040
 2.6100	15.1460
 2.6110	15.0120
 2.6120	15.1480
 2.6140	15.1430
 2.6150	15.2100
 2.6160	15.2950
 2.6180	15.2910
 2.6190	15.1580
 2.6200	15.1150
 2.6220	15.0180
 2.6230	14.9660
 2.6240	14.9200
 2.6260	15.0370
 2.6270	14.9980
 2.6280	15.0450
 2.6300	15.0850
 2.6310	14.9850
 2.6320	14.9180
 2.6340	14.9960
 2.6350	14.9090
 2.6360	14.9190
 2.6380	14.9140
 2.6390	14.8480
 2.6400	14.7850
 2.6420	14.8880
 2.6430	14.9480
 2.6440	14.9890
 2.6460	14.9330
 2.6470	14.8550
 2.6480	14.8140
 2.6500	14.8720
 2.6510	14.8210
 2.6520	14.8380
 2.6540	14.7750
 2.6550	14.8120
 2.6560	14.8840
 2.6580	14.8960
 2.6590	14.8120
 2.6610	14.7800
 2.6620	14.7850
 2.6630	14.9040
 2.6650	14.8840
 2.6660	14.8610
 2.6670	14.9040
 2.6690	14.9570
 2.6700	14.9310
 2.6720	14.8760
 2.6730	14.9210
 2.6740	14.9570
 2.6760	14.9100
 2.6770	14.9150
 2.6780	14.8880
 2.6800	14.9000
 2.6810	14.9340
 2.6830	14.9280
 2.6840	14.7500
 2.6850	14.7480
 2.6870	14.7590
 2.6880	14.7450
 2.6900	14.7030
 2.6910	14.7250
 2.6920	14.6860
 2.6940	14.7340
 2.6950	14.7220
 2.6970	14.7440
 2.6980	14.7240
 2.6990	14.7120
 2.7010	14.6960
 2.7020	14.7260
 2.7040	14.6900
 2.7050	14.7010
 2.7060	14.6880
 2.7080	14.7770
 2.7090	14.7440
 2.7110	14.7660
 2.7120	14.6730
 2.7130	14.5830
 2.7150	14.5980
 2.7160	14.5910
 2.7180	14.6150
 2.7190	14.7890
 2.7210	14.7390
 2.7220	14.5970
 2.7230	14.5980
 2.7250	14.5710
 2.7260	14.4430
 2.7280	14.4980
 2.7290	14.4950
 2.7310	14.5350
 2.7320	14.6400
 2.7330	14.6400
 2.7350	14.4950
 2.7360	14.5160
 2.7380	14.5120
 2.7390	14.5430
 2.7410	14.4800
 2.7420	14.4240
 2.7440	14.4060
 2.7450	14.3880
 2.7470	14.3630
 2.7480	14.4410
 2.7490	14.4190
 2.7510	14.4740
 2.7520	14.4270
 2.7540	14.4460
 2.7550	14.3690
 2.7570	14.3070
 2.7580	14.3300
 2.7600	14.4890
 2.7610	14.4070
 2.7630	14.3150
 2.7640	14.2860
 2.7660	14.3760
 2.7670	14.2740
 2.7680	14.1650
 2.7700	14.2380
 2.7710	14.2670
 2.7730	14.1910
 2.7740	14.3010
 2.7760	14.3220
 2.7770	14.2630
 2.7790	14.2420
 2.7800	14.3170
 2.7820	14.3430
 2.7830	14.4390
 2.7850	14.3610
 2.7860	14.3130
 2.7880	14.1780
 2.7890	14.1210
 2.7910	14.0910
 2.7920	14.1660
 2.7940	14.0750
 2.7950	13.9990
 2.7970	13.9820
 2.7980	13.9630
 2.8000	13.8630
 2.8010	13.9170
 2.8030	13.9220
 2.8040	13.9150
 2.8060	13.8430
 2.8070	13.8370
 2.8090	13.8520
 2.8110	13.8590
 2.8120	13.7660
 2.8140	13.7700
 2.8150	13.7300
 2.8170	13.7900
 2.8180	13.8020
 2.8200	13.8610
 2.8210	13.8130
 2.8230	13.8060
 2.8240	13.7570
 2.8260	13.6910
 2.8270	13.6880
 2.8290	13.6230
 2.8300	13.5900
 2.8320	13.8210
 2.8340	13.8370
 2.8350	13.8450
 2.8370	13.8130
 2.8380	13.7770
 2.8400	13.6570
 2.8410	13.6590
 2.8430	13.7080
 2.8440	13.6160
 2.8460	13.4960
 2.8480	13.6310
 2.8490	13.6060
 2.8510	13.5780
 2.8520	13.6100
 2.8540	13.6550
 2.8550	13.5900
 2.8570	13.5570
 2.8590	13.5260
 2.8600	13.5970
 2.8620	13.5430
 2.8630	13.4850
 2.8650	13.4560
 2.8660	13.4090
 2.8680	13.3960
 2.8700	13.5140
 2.8710	13.5280
 2.8730	13.4620
 2.8740	13.3540
 2.8760	13.4460
 2.8780	13.5400
 2.8790	13.5340
 2.8810	13.4200
 2.8820	13.5010
 2.8840	13.4590
 2.8860	13.5120
 2.8870	13.4850
 2.8890	13.4910
 2.8900	13.4730
 2.8920	13.5550
 2.8940	13.6050
 2.8950	13.6010
 2.8970	13.4370
 2.8980	13.4310
 2.9000	13.3880
 2.9020	13.3680
 2.9030	13.3360
 2.9050	13.3460
 2.9070	13.3110
 2.9080	13.3420
 2.9100	13.3760
 2.9120	13.4590
 2.9130	13.4520
 2.9150	13.4590
 2.9160	13.4560
 2.9180	13.4780
 2.9200	13.4290
 2.9210	13.4480
 2.9230	13.3820
 2.9250	13.4450
 2.9260	13.4470
 2.9280	13.4340
 2.9300	13.3420
 2.9310	13.3000
 2.9330	13.2780
 2.9350	13.2780
 2.9360	13.3220
 2.9380	13.4440
 2.9400	13.4650
 2.9410	13.4180
 2.9430	13.2180
 2.9450	13.2650
 2.9460	13.2630
 2.9480	13.2310
 2.9500	13.0840
 2.9510	13.2410
 2.9530	13.3710
 2.9550	13.4870
 2.9560	13.6580
 2.9580	13.5030
 2.9600	13.1190
 2.9610	13.0930
 2.9630	13.1740
 2.9650	13.5500
 2.9660	13.5710
 2.9680	13.3760
 2.9700	13.4190
 2.9720	13.1020
 2.9730	12.6920
 2.9750	13.2500
 2.9770	13.5750
 2.9780	13.7100
 2.9800	13.7580
 2.9820	13.8250
 2.9840	13.6920
 2.9850	13.4280
 2.9870	12.9930
 2.9890	13.0900
 2.9900	13.1520
 2.9920	13.0480
 2.9940	13.1640
 2.9960	13.4620
 2.9970	13.5750
 2.9990	13.4750
 3.0010	13.6110
 3.0030	13.5620
 3.0040	13.3770
 3.0060	13.4690
 3.0080	13.5420
 3.0100	13.0060
 3.0110	12.4840
 3.0130	12.8170
 3.0150	13.4060
 3.0170	13.4550
 3.0180	13.2820
 3.0200	13.4430
 3.0220	13.4510
 3.0240	13.3510
 3.0250	12.8320
 3.0270	12.7430
 3.0290	12.6090
 3.0310	12.9030
 3.0320	13.2160
 3.0340	13.2200
 3.0360	13.2450
 3.0380	13.4660
 3.0400	13.3790
 3.0410	13.4830
 3.0430	13.5830
 3.0450	13.3100
 3.0470	13.3870
 3.0480	13.1850
 3.0500	12.6920
 3.0520	13.0620
 3.0540	13.1940
 3.0560	13.4360
 3.0570	13.4990
 3.0590	13.3870
 3.0610	13.5940
 3.0630	13.5930
 3.0650	13.4060
 3.0660	13.2960
 3.0680	13.1980
 3.0700	13.1040
 3.0720	13.2270
 3.0740	13.3440
 3.0760	13.3050
 3.0770	13.2310
 3.0790	13.2750
 3.0810	13.5160
 3.0830	13.4580
 3.0850	13.2540
 3.0870	13.2360
 3.0880	13.3280
 3.0900	13.3020
 3.0920	13.3430
 3.0940	13.4110
 3.0960	13.3630
 3.0980	13.3160
 3.0990	13.3030
 3.1010	13.3890
 3.1030	13.4990
 3.1050	13.2500
 3.1070	13.1240
 3.1090	13.2860
 3.1110	13.2710
 3.1120	13.2190
 3.1140	13.3440
 3.1160	13.2820
 3.1180	13.3480
 3.1200	13.4530
 3.1220	13.3710
 3.1240	13.2930
 3.1260	13.3550
 3.1270	13.3990
 3.1290	13.3890
 3.1310	13.1420
 3.1330	13.1490
 3.1350	13.3210
 3.1370	13.3070
 3.1390	13.1800
 3.1410	13.3470
 3.1430	13.4850
 3.1450	13.4640
 3.1460	13.4370
 3.1480	13.5090
 3.1500	13.4840
 3.1520	13.5630
 3.1540	13.4690
 3.1560	13.3720
 3.1580	13.1870
 3.1600	13.2430
 3.1620	13.3090
 3.1640	13.5220
 3.1660	13.5140
 3.1680	13.2530
 3.1700	12.9420
 3.1710	13.0770
 3.1730	13.6790
 3.1750	13.9580
 3.1770	13.8190
 3.1790	13.6910
 3.1810	13.3110
 3.1830	13.2070
 3.1850	13.1640
 3.1870	13.2740
 3.1890	13.4090
 3.1910	13.4410
 3.1930	13.3460
 3.1950	13.4280
 3.1970	13.4020
 3.1990	13.3930
 3.2010	13.3320
 3.2030	13.3080
 3.2050	13.2420
 3.2070	13.3590
 3.2090	13.4930
 3.2110	13.5300
 3.2130	13.4190
 3.2150	13.4240
 3.2170	13.4060
 3.2190	13.4330
 3.2210	13.4340
 3.2230	13.4780
 3.2250	13.3890
 3.2270	13.3510
 3.2290	13.3320
 3.2310	13.3150
 3.2330	13.3710
 3.2350	13.4900
 3.2370	13.4570
 3.2390	13.5150
 3.2410	13.4990
 3.2430	13.4190
 3.2450	13.2440
 3.2470	13.2700
 3.2490	13.3300
 3.2510	13.2920
 3.2530	13.2550
 3.2550	13.4120
 3.2570	13.3350
 3.2590	13.3130
 3.2610	13.3650
 3.2630	13.3870
 3.2650	13.3370
 3.2670	13.3420
 3.2690	13.3040
 3.2720	13.3210
 3.2740	13.3090
 3.2760	13.3220
 3.2780	13.3480
 3.2800	13.3560
 3.2820	13.2500
 3.2840	13.2410
 3.2860	13.2810
 3.2880	13.2790
 3.2900	13.2490
 3.2920	13.2860
 3.2940	13.2950
 3.2960	13.3310
 3.2990	13.3000
 3.3010	13.2770
 3.3030	13.3110
 3.3050	13.3570
 3.3070	13.3020
 3.3090	13.2580
 3.3110	13.2020
 3.3130	13.2030
 3.3150	13.1840
 3.3180	13.0570
 3.3200	12.9930
 3.3220	12.9810
 3.3240	12.9650
 3.3260	13.0560
 3.3280	13.0170
 3.3300	13.0490
 3.3330	13.0290
 3.3350	13.0090
 3.3370	12.9580
 3.3390	12.9500
 3.3410	12.8980
 3.3430	12.9480
 3.3450	12.9140
 3.3480	12.8310
 3.3500	12.7500
 3.3520	12.7020
 3.3540	12.7170
 3.3560	12.7300
 3.3580	12.6310
 3.3610	12.5940
 3.3630	12.5540
 3.3650	12.6140
 3.3670	12.5490
 3.3690	12.4310
 3.3720	12.3200
 3.3740	12.3010
 3.3760	12.3230
 3.3780	12.3570
 3.3800	12.3970
 3.3830	12.3610
 3.3850	12.2950
 3.3870	12.3730
 3.3890	12.3550
 3.3910	12.2800
 3.3940	12.1710
 3.3960	12.1720
 3.3980	12.0990
 3.4000	12.0230
 3.4020	11.8930
 3.4050	11.8050
 3.4070	11.7730
 3.4090	11.8440
 3.4110	11.8390
 3.4140	11.9170
 3.4160	12.1190
 3.4180	12.5260
 3.4200	13.1180
 3.4230	14.0460
 3.4250	15.1340
 3.4270	16.1490
 3.4290	16.7070
 3.4320	16.4590
 3.4340	15.7480
 3.4360	15.2300
 3.4390	14.8020
 3.4410	14.4390
 3.4430	14.1980
 3.4450	14.0980
 3.4480	13.9080
 3.4500	13.7790
 3.4520	13.8310
 3.4550	13.9270
 3.4570	13.8500
 3.4590	13.7980
 3.4620	13.7610
 3.4640	13.7550
 3.4660	13.6420
 3.4680	13.6280
 3.4710	13.5350
 3.4730	13.4110
 3.4750	13.3540
 3.4780	13.3160
 3.4800	13.1690
 3.4820	13.1740
 3.4850	13.1180
 3.4870	13.0390
 3.4890	12.9400
 3.4920	12.8860
 3.4940	12.8060
 3.4970	12.7260
 3.4990	12.6170
 3.5010	12.5520
 3.5040	12.6080
 3.5060	13.1630
 3.5080	14.4510
 3.5110	15.8300
 3.5130	16.1960
 3.5160	15.8200
 3.5180	15.3190
 3.5200	14.9510
 3.5230	14.6930
 3.5250	14.5840
 3.5270	14.4370
 3.5300	14.3670
 3.5320	14.2530
 3.5350	14.1560
 3.5370	14.0540
 3.5400	14.1140
 3.5420	14.1990
 3.5440	14.2380
 3.5470	14.1580
 3.5490	14.1090
 3.5520	14.0260
 3.5540	13.9790
 3.5570	13.9170
 3.5590	13.9740
 3.5610	13.9520
 3.5640	13.9280
 3.5660	13.9460
 3.5690	13.9410
 3.5710	13.8480
 3.5740	13.8640
 3.5760	13.9370
 3.5790	13.8890
 3.5810	13.8480
 3.5840	13.9380
 3.5860	13.8450
 3.5890	13.8430
 3.5910	13.8420
 3.5930	13.8150
 3.5960	13.8300
 3.5980	13.9710
 3.6010	13.9030
 3.6030	13.8080
 3.6060	13.7310
 3.6080	13.8000
 3.6110	13.8630
 3.6140	13.9000
 3.6160	13.8400
 3.6190	13.7860
 3.6210	13.7660
 3.6240	13.7830
 3.6260	13.7990
 3.6290	13.8340
 3.6310	13.8000
 3.6340	13.8100
 3.6360	13.8190
 3.6390	13.8450
 3.6410	13.8110
 3.6440	13.7940
 3.6470	13.7680
 3.6490	13.8140
 3.6520	13.8360
 3.6540	13.8560
 3.6570	13.8140
 3.6590	13.7960
 3.6620	13.7530
 3.6650	13.7840
 3.6670	13.8310
 3.6700	13.8290
 3.6720	13.7670
 3.6750	13.7040
 3.6780	13.6720
 3.6800	13.7140
 3.6830	13.7880
 3.6850	13.7810
 3.6880	13.7210
 3.6910	13.7270
 3.6930	13.7430
 3.6960	13.7870
 3.6990	13.7440
 3.7010	13.7380
 3.7040	13.6870
 3.7060	13.7370
 3.7090	13.7720
 3.7120	13.7600
 3.7140	13.7380
 3.7170	13.7480
 3.7200	13.7710
 3.7220	13.7640
 3.7250	13.7270
 3.7280	13.7330
 3.7300	13.7360
 3.7330	13.7330
 3.7360	13.6860
 3.7390	13.6800
 3.7410	13.6430
 3.7440	13.6330
 3.7470	13.6330
 3.7490	13.6770
 3.7520	13.6960
 3.7550	13.7790
 3.7580	13.7370
 3.7600	13.7130
 3.7630	13.7170
 3.7660	13.7180
 3.7680	13.7440
 3.7710	13.7600
 3.7740	13.6950
 3.7770	13.7360
 3.7790	13.8230
 3.7820	13.7940
 3.7850	13.7380
 3.7880	13.7950
 3.7900	13.8190
 3.7930	13.7920
 3.7960	13.7540
 3.7990	13.6700
 3.8020	13.6210
 3.8040	13.6940
 3.8070	13.7670
 3.8100	13.8110
 3.8130	13.7630
 3.8160	13.7920
 3.8180	13.8100
 3.8210	13.7740
 3.8240	13.7050
 3.8270	13.6950
 3.8300	13.6830
 3.8330	13.6970
 3.8350	13.6640
 3.8380	13.7060
 3.8410	13.7280
 3.8440	13.7380
 3.8470	13.7230
 3.8500	13.7500
 3.8520	13.7230
 3.8550	13.7170
 3.8580	13.6820
 3.8610	13.7270
 3.8640	13.7690
 3.8670	13.7770
 3.8700	13.7180
 3.8730	13.6540
 3.8750	13.7100
 3.8780	13.7560
 3.8810	13.6820
 3.8840	13.6830
 3.8870	13.6970
 3.8900	13.7190
 3.8930	13.6870
 3.8960	13.6850
 3.8990	13.6710
 3.9020	13.7230
 3.9050	13.7440
 3.9080	13.7400
 3.9110	13.7230
 3.9140	13.7040
 3.9160	13.7010
 3.9190	13.7320
 3.9220	13.7480
 3.9250	13.7400
 3.9280	13.7010
 3.9310	13.6790
 3.9340	13.6490
 3.9370	13.7120
 3.9400	13.7480
 3.9430	13.7790
 3.9460	13.7730
 3.9490	13.7520
 3.9520	13.7300
 3.9550	13.7420
 3.9580	13.7690
 3.9610	13.7870
 3.9640	13.7400
 3.9670	13.7240
 3.9700	13.7300
 3.9730	13.7260
 3.9770	13.6960
 3.9800	13.7630
 3.9830	13.8320
 3.9860	13.8250
 3.9890	13.7770
 3.9920	13.7830
 3.9950	13.7370
 3.9980	13.7520
 4.0010	13.7950
 4.0040	13.8220
 4.0070	13.7840
 4.0100	13.8130
 4.0130	13.7830
 4.0170	13.7590
 4.0200	13.7930
 4.0230	13.7950
 4.0260	13.7420
 4.0290	13.7610
 4.0320	13.7810
 4.0350	13.7690
 4.0380	13.7390
 4.0420	13.7830
 4.0450	13.7390
 4.0480	13.7500
 4.0510	13.8060
 4.0540	13.8910
 4.0570	13.8960
 4.0610	13.9270
 4.0640	13.9060
 4.0670	13.8720
 4.0700	13.7610
 4.0730	13.7120
 4.0770	13.8200
 4.0800	13.8630
 4.0830	13.8130
 4.0860	13.8570
 4.0890	13.8370
 4.0930	13.8000
 4.0960	13.8170
 4.0990	13.8350
 4.1020	13.7700
 4.1060	13.7650
 4.1090	13.7480
 4.1120	13.7650
 4.1150	13.7870
 4.1190	13.8330
 4.1220	13.8190
 4.1250	13.8300
 4.1280	13.8260
 4.1320	13.8340
 4.1350	13.8450
 4.1380	13.8080
 4.1420	13.7450
 4.1450	13.7570
 4.1480	13.8290
 4.1520	13.8410
 4.1550	13.8240
 4.1580	13.8630
 4.1620	13.8230
 4.1650	13.7910
 4.1680	13.7880
 4.1720	13.8380
 4.1750	13.8430
 4.1780	13.8510
 4.1820	13.8490
 4.1850	13.8590
 4.1890	13.8680
 4.1920	13.8990
 4.1950	13.9810
 4.1990	14.0670
 4.2020	14.1770
 4.2060	14.3230
 4.2090	14.4210
 4.2120	14.5380
 4.2160	14.6440
 4.2190	14.7570
 4.2230	14.8790
 4.2260	15.0280
 4.2300	15.1310
 4.2330	15.2980
 4.2360	15.2330
 4.2400	15.1930
 4.2430	15.0780
 4.2470	14.8220
 4.2500	14.7230
 4.2540	14.4690
 4.2570	14.3670
 4.2610	14.7430
 4.2640	14.9610
 4.2680	14.8400
 4.2710	14.8720
 4.2750	14.9690
 4.2780	14.9180
 4.2820	15.0010
 4.2850	15.0140
 4.2890	14.8400
 4.2930	14.6560
 4.2960	14.7220
 4.3000	14.6620
 4.3030	14.5760
 4.3070	14.4930
 4.3100	14.4020
 4.3140	14.3270
 4.3180	14.2900
 4.3210	14.1850
 4.3250	14.1670
 4.3280	14.1600
 4.3320	14.1370
 4.3360	14.0770
 4.3390	14.0580
 4.3430	14.0780
 4.3470	14.0300
 4.3500	14.0160
 4.3540	14.0450
 4.3570	14.0120
 4.3610	14.0120
 4.3650	14.0230
 4.3680	14.0030
 4.3720	13.9540
 4.3760	13.9260
 4.3800	13.9340
 4.3830	13.9650
 4.3870	14.0170
 4.3910	14.0090
 4.3940	13.9240
 4.3980	13.9100
 4.4020	13.9200
 4.4060	13.8810
 4.4090	13.8840
 4.4130	13.9330
 4.4170	13.9290
 4.4210	13.9370
 4.4240	13.9580
 4.4280	13.9400
 4.4320	13.9090
 4.4360	13.9180
 4.4400	13.8830
 4.4430	13.8540
 4.4470	13.8790
 4.4510	13.8850
 4.4550	13.9370
 4.4590	13.9870
 4.4620	13.9470
 4.4660	13.8890
 4.4700	13.8190
 4.4740	13.8040
 4.4780	13.8610
 4.4820	13.9150
 4.4860	13.9030
 4.4900	13.8950
 4.4930	13.8860
 4.4970	13.8680
 4.5010	13.8720
 4.5050	13.8810
 4.5090	13.8680
 4.5130	13.8990
 4.5170	13.8700
 4.5210	13.8160
 4.5250	13.7800
 4.5290	13.7580
 4.5330	13.7470
 4.5370	13.7480
 4.5410	13.7930
 4.5450	13.7800
 4.5490	13.7590
 4.5530	13.8360
 4.5570	13.8820
 4.5610	13.8420
 4.5650	13.7350
 4.5690	13.7330
 4.5730	13.7430
 4.5770	13.7600
 4.5810	13.7990
 4.5850	13.8650
 4.5890	13.8520
 4.5930	13.7580
 4.5970	13.7340
 4.6010	13.7000
 4.6050	13.6990
 4.6090	13.7550
 4.6130	13.7510
 4.6170	13.7770
 4.6220	13.7650
 4.6260	13.7340
 4.6300	13.7540
 4.6340	13.7770
 4.6380	13.7960
 4.6420	13.8390
 4.6460	13.8470
 4.6510	13.7780
 4.6550	13.7420
 4.6590	13.7380
 4.6630	13.7430
 4.6670	13.6970
 4.6720	13.6900
 4.6760	13.7360
 4.6800	13.7600
 4.6840	13.7510
 4.6880	13.7610
 4.6930	13.7970
 4.6970	13.7920
 4.7010	13.7700
 4.7050	13.7860
 4.7100	13.7750
 4.7140	13.7320
 4.7180	13.7610
 4.7230	13.7740
 4.7270	13.7760
 4.7310	13.7880
 4.7360	13.7500
 4.7400	13.7260
 4.7440	13.7240
 4.7490	13.7370
 4.7530	13.7650
 4.7570	13.7600
 4.7620	13.7650
 4.7660	13.7770
 4.7700	13.7640
 4.7750	13.7800
 4.7790	13.7480
 4.7840	13.7370
 4.7880	13.7460
 4.7920	13.7400
 4.7970	13.7640
 4.8010	13.7750
 4.8060	13.7580
 4.8100	13.8080
 4.8150	13.8040
 4.8190	13.7270
 4.8240	13.6810
 4.8280	13.7170
 4.8330	13.7340
 4.8370	13.7470
 4.8420	13.7220
 4.8460	13.7230
 4.8510	13.7070
 4.8550	13.7240
 4.8600	13.7690
 4.8640	13.7730
 4.8690	13.7590
 4.8730	13.7430
 4.8780	13.7560
 4.8830	13.8290
 4.8870	13.8620
 4.8920	13.8350
 4.8960	13.7770
 4.9010	13.7790
 4.9060	13.7840
 4.9100	13.8070
 4.9150	13.8220
 4.9200	13.8000
 4.9240	13.7300
 4.9290	13.7530
 4.9340	13.7920
 4.9380	13.8410
 4.9430	13.8700
 4.9480	13.8620
 4.9530	13.8370
 4.9570	13.8380
 4.9620	13.8500
 4.9670	13.8290
 4.9720	13.8090
 4.9760	13.8140
 4.9810	13.8170
 4.9860	13.8540
 4.9910	13.8870
 4.9960	13.8580
 5.0000	13.8620
 5.0050	13.9000
 5.0100	13.8910
 5.0150	13.8510
 5.0200	13.8030
 5.0250	13.8130
 5.0290	13.8730
 5.0340	13.9270
 5.0390	13.9030
 5.0440	13.8690
 5.0490	13.8470
 5.0540	13.8530
 5.0590	13.8710
 5.0640	13.8540
 5.0690	13.8280
 5.0740	13.8770
 5.0790	13.8530
 5.0840	13.8230
 5.0890	13.8550
 5.0940	13.8840
 5.0990	13.8950
 5.1040	13.9360
 5.1090	13.9490
 5.1140	13.9420
 5.1190	13.8530
 5.1240	13.8240
 5.1290	13.8580
 5.1340	13.8280
 5.1390	13.7780
 5.1440	13.7960
 5.1490	13.8450
 5.1540	13.8900
 5.1600	13.9020
 5.1650	13.9100
 5.1700	13.8840
 5.1750	13.8370
 5.1800	13.7790
 5.1850	13.8310
 5.1910	13.8820
 5.1960	13.9110
 5.2010	13.9350
 5.2060	13.9350
 5.2110	13.8930
 5.2170	13.8710
 5.2220	13.8690
 5.2270	13.9050
 5.2320	13.8840
 5.2380	13.9130
 5.2430	13.9090
 5.2480	13.8690
 5.2540	13.8540
 5.2590	13.8230
 5.2640	13.7420
 5.2700	13.7690
 5.2750	13.7990
 5.2800	13.8200
 5.2860	13.8690
 5.2910	13.9130
 5.2970	13.8180
 5.3020	13.7950
 5.3070	13.8460
 5.3130	13.8500
 5.3180	13.8130
 5.3240	13.8350
 5.3290	13.8730
 5.3350	13.8920
 5.3400	13.8870
 5.3460	13.8770
 5.3510	13.8040
 5.3570	13.7230
 5.3620	13.7350
 5.3680	13.8800
 5.3730	13.9020
 5.3790	13.8190
 5.3850	13.7580
 5.3900	13.7920
 5.3960	13.7610
 5.4010	13.7030
 5.4070	13.6820
 5.4130	13.7360
 5.4180	13.7360
 5.4240	13.7300
 5.4300	13.7590
 5.4350	13.8230
 5.4410	13.7890
 5.4470	13.7700
 5.4530	13.7240
 5.4580	13.7260
 5.4640	13.7090
 5.4700	13.7280
 5.4760	13.6680
 5.4810	13.6230
 5.4870	13.6770
 5.4930	13.7040
 5.4990	13.6650
 5.5050	13.6990
 5.5110	13.6750
 5.5160	13.6400
 5.5220	13.6200
 5.5280	13.6370
 5.5340	13.5860
 5.5400	13.5830
 5.5460	13.5860
 5.5520	13.6750
 5.5580	13.6610
 5.5640	13.5710
 5.5700	13.4860
 5.5760	13.4970
 5.5820	13.5250
 5.5880	13.5380
 5.5940	13.4950
 5.6000	13.4730
 5.6060	13.4290
 5.6120	13.4450
 5.6180	13.4290
 5.6240	13.4150
 5.6300	13.3700
 5.6360	13.3130
 5.6420	13.2980
 5.6490	13.3490
 5.6550	13.2750
 5.6610	13.2410
 5.6670	13.2540
 5.6730	13.2790
 5.6800	13.2280
 5.6860	13.1910
 5.6920	13.1490
 5.6980	13.1470
 5.7040	13.1090
 5.7110	13.1010
 5.7170	13.0320
 5.7230	12.9990
 5.7300	12.9230
 5.7360	12.8400
 5.7420	12.7830
 5.7490	12.7850
 5.7550	12.7470
 5.7620	12.8160
 5.7680	12.8320
 5.7740	12.8900
 5.7810	13.0160
 5.7870	13.0800
 5.7940	13.0710
 5.8000	13.1130
 5.8070	13.1000
 5.8130	13.1170
 5.8200	13.1310
 5.8260	13.1430
 5.8330	13.1040
 5.8390	13.1350
 5.8460	13.0970
 5.8530	13.1110
 5.8590	13.1190
 5.8660	13.1600
 5.8720	13.2100
 5.8790	13.2690
 5.8860	13.2270
 5.8920	13.2710
 5.8990	13.2550
 5.9060	13.2490
 5.9130	13.2030
 5.9190	13.2290
 5.9260	13.2520
 5.9330	13.3020
 5.9400	13.2920
 5.9470	13.2940
 5.9530	13.3210
 5.9600	13.4490
 5.9670	13.5110
 5.9740	13.5510
 5.9810	13.5750
 5.9880	13.5770
 5.9950	13.5490
 6.0020	13.5970
 6.0090	13.5740
 6.0160	13.5910
 6.0230	13.5750
 6.0300	13.6120
 6.0370	13.6160
 6.0440	13.7710
 6.0510	13.8040
 6.0580	13.7600
 6.0650	13.6990
 6.0720	13.7730
 6.0790	13.7770
 6.0860	13.7740
 6.0930	13.7000
 6.1000	13.7040
 6.1080	13.6960
 6.1150	13.6610
 6.1220	13.6320
 6.1290	13.7150
 6.1370	13.6870
 6.1440	13.6880
 6.1510	13.7360
 6.1580	13.8510
 6.1660	13.7610
 6.1730	13.7730
 6.1800	13.8130
 6.1880	13.7770
 6.1950	13.6810
 6.2030	13.6900
 6.2100	13.6400
 6.2170	13.6270
 6.2250	13.6310
 6.2320	13.7030
 6.2400	13.7400
 6.2470	13.7710
 6.2550	13.6830
 6.2630	13.6890
 6.2700	13.7170
 6.2780	13.7480
 6.2850	13.6940
 6.2930	13.6930
 6.3010	13.7090
 6.3080	13.7420
 6.3160	13.6540
 6.3240	13.6900
 6.3310	13.7110
 6.3390	13.7740
 6.3470	13.6950
 6.3550	13.6410
 6.3620	13.6310
 6.3700	13.6390
 6.3780	13.5780
 6.3860	13.6330
 6.3940	13.6250
 6.4020	13.7210
 6.4100	13.6920
 6.4180	13.6400
 6.4260	13.5810
 6.4330	13.5980
 6.4410	13.5570
 6.4490	13.5790
 6.4580	13.5790
 6.4660	13.5720
 6.4740	13.4570
 6.4820	13.4660
 6.4900	13.5100
 6.4980	13.6480
 6.5060	13.5690
 6.5140	13.5040
 6.5230	13.3890
 6.5310	13.4160
 6.5390	13.4300
 6.5470	13.4910
 6.5550	13.4410
 6.5640	13.4350
 6.5720	13.3340
 6.5800	13.3500
 6.5890	13.3350
 6.5970	13.3400
 6.6060	13.2860
 6.6140	13.3380
 6.6220	13.2720
 6.6310	13.3250
 6.6390	13.3280
 6.6480	13.3030
 6.6560	13.2500
 6.6650	13.2760
 6.6740	13.2400
 6.6820	13.2360
 6.6910	13.1450
 6.6990	13.1500
 6.7080	13.1010
 6.7170	13.1070
 6.7260	13.0270
 6.7340	12.9900
 6.7430	12.8400
 6.7520	12.8110
 6.7610	12.6860
 6.7690	12.5610
 6.7780	12.6560
 6.7870	13.4290
 6.7960	13.8840
 6.8050	13.6180
 6.8140	13.2200
 6.8230	13.1250
 6.8320	13.4370
 6.8410	14.0420
 6.8500	14.0190
 6.8590	13.7700
 6.8680	13.5840
 6.8770	13.5790
 6.8860	13.4850
 6.8950	13.4170
 6.9050	13.3530
 6.9140	13.4270
 6.9230	13.3900
 6.9320	13.3120
 6.9420	13.1990
 6.9510	13.2280
 6.9600	13.2280
 6.9700	13.2490
 6.9790	13.1790
 6.9880	13.1650
 6.9980	13.1740
 7.0070	13.2620
 7.0170	13.2260
 7.0260	13.2900
 7.0360	13.2550
 7.0450	13.2980
 7.0550	13.2340
 7.0650	13.1990
 7.0740	13.2540
 7.0840	13.3930
 7.0940	13.2890
 7.1030	13.3150
 7.1130	13.3090
 7.1230	13.2720
 7.1330	13.1960
 7.1420	13.2950
 7.1520	13.2090
 7.1620	13.1640
 7.1720	13.1630
 7.1820	13.1900
 7.1920	13.1410
 7.2020	13.1390
 7.2120	13.0030
 7.2220	12.9710
 7.2320	12.9490
 7.2420	13.0510
 7.2520	13.0160
 7.2620	13.0250
 7.2730	12.9440
 7.2830	13.0050
 7.2930	13.0040
 7.3030	13.0130
 7.3140	12.9520
 7.3240	12.9940
 7.3340	12.9720
 7.3450	13.0080
 7.3550	12.9580
 7.3660	12.9640
 7.3760	12.9470
 7.3870	12.9720
 7.3970	12.9580
 7.4080	13.0050
 7.4180	12.9100
 7.4290	12.8710
 7.4400	12.8250
 7.4500	12.8600
 7.4610	12.8820
 7.4720	12.9200
 7.4830	12.8440
 7.4930	12.9210
 7.5040	12.9230
 7.5150	12.9550
 7.5260	12.8620
 7.5370	12.9090
 7.5480	12.8600
 7.5590	12.8730
 7.5700	12.8070
 7.5810	12.8850
 7.5920	12.8640
 7.6030	12.9060
 7.6140	12.8850
 7.6260	12.9320
 7.6370	12.8600
 7.6480	12.8090
 7.6590	12.8130
 7.6710	12.8770
 7.6820	12.8220
 7.6930	12.9150
 7.7050	12.8540
 7.7160	12.9040
 7.7280	12.8240
 7.7390	12.7810
 7.7510	12.7330
 7.7630	12.8120
 7.7740	12.7870
 7.7860	12.7550
 7.7980	12.6850
 7.8090	12.6820
 7.8210	12.6250
 7.8330	12.6880
 7.8450	12.5980
 7.8570	12.6640
 7.8690	12.6110
 7.8810	12.6200
 7.8930	12.6280
 7.9050	12.6320
 7.9170	12.5580
 7.9290	12.6700
 7.9410	12.6250
 7.9530	12.6380
 7.9650	12.5680
 7.9780	12.5980
 7.9900	12.5370
 8.0020	12.6000
 8.0150	12.5440
 8.0270	12.5700
 8.0390	12.5010
 8.0520	12.5350
 8.0640	12.4970
 8.0770	12.5650
 8.0900	12.4990
 8.1020	12.5990
 8.1150	12.5840
 8.1280	12.6700
 8.1400	12.6070
 8.1530	12.6040
 8.1660	12.4130
 8.1790	12.4980
 8.1920	12.5110
 8.2050	12.5590
 8.2180	12.5570
 8.2310	12.6210
 8.2440	12.4960
 8.2570	12.6680
 8.2700	12.5800
 8.2830	12.5030
 8.2970	12.4600
 8.3100	12.5740
 8.3230	12.4770
 8.3370	12.4410
 8.3500	12.4520
 8.3640	12.6370
 8.3770	12.5490
 8.3910	12.5430
 8.4040	12.4290
 8.4180	12.5330
 8.4320	12.4640
 8.4450	12.5030
 8.4590	12.3440
 8.4730	12.3540
 8.4870	12.3270
 8.5010	12.3240
 8.5150	12.1360
 8.5290	12.2510
 8.5430	12.1870
 8.5570	12.3490
 8.5710	12.3120
 8.5850	12.3760
 8.5990	12.3320
 8.6140	12.4450
 8.6280	12.4360
 8.6420	12.4580
 8.6570	12.2360
 8.6710	12.3660
 8.6860	12.3640
 8.7000	12.4610
 8.7150	12.3960
 8.7300	12.4450
 8.7440	12.4290
 8.7590	12.5490
 8.7740	12.5020
 8.7890	12.5670
 8.8040	12.4820
 8.8190	12.5170
 8.8340	12.4470
 8.8490	12.5630
 8.8640	12.5260
 8.8790	12.6690
 8.8940	12.5660
 8.9100	12.5870
 8.9250	12.4670
 8.9400	12.5180
 8.9560	12.3810
 8.9710	12.4470
 8.9870	12.4280
 9.0020	12.5070
 9.0180	12.4360
 9.0340	12.6270
 9.0500	12.6090
 9.0650	12.6360
 9.0810	12.4060
 9.0970	12.4600
 9.1130	12.4710
 9.1290	12.6380
 9.1450	12.5920
 9.1610	12.6530
 9.1780	12.5450
 9.1940	12.6220
 9.2100	12.4520
 9.2270	12.5600
 9.2430	12.5830
 9.2600	12.7520
 9.2760	12.5850
 9.2930	12.5840
 9.3090	12.4120
 9.3260	12.5200
 9.3430	12.4570
 9.3600	12.6670
 9.3770	12.5570
 9.3940	12.5980
 9.4110	12.6100
 9.4280	12.7210
 9.4450	12.6030
 9.4620	12.6500
 9.4800	12.6060
 9.4970	12.7480
 9.5140	12.5280
 9.5320	12.5680
 9.5500	12.3940
 9.5670	12.5110
 9.5850	12.4590
 9.6030	12.5830
 9.6200	12.5060
 9.6380	12.7070
 9.6560	12.7280
 9.6740	12.8020
 9.6920	12.5770
 9.7100	12.5490
 9.7290	12.4320
 9.7470	12.6160
 9.7650	12.5870
 9.7840	12.6850
 9.8020	12.5630
 9.8210	12.6830
 9.8390	12.6650
 9.8580	12.6900
 9.8770	12.6000
 9.8960	12.7750
 9.9150	12.7250
 9.9340	12.8210
 9.9530	12.7770
 9.9720	12.8190
 9.9910	12.6160
10.0100	12.7330
10.0300	12.7020
10.0490	12.8370
10.0690	12.7580
10.0880	12.7910
10.1080	12.7560
10.1280	12.8850
10.1480	12.7610
10.1670	12.9160
10.1870	12.8800
10.2070	13.0180
10.2280	12.9940
10.2480	13.0800
10.2680	13.0080
10.2890	13.0820
10.3090	12.9940
10.3300	13.1950
10.3500	13.0670
10.3710	13.1500
10.3920	13.0070
10.4120	13.0120
10.4330	12.9590
10.4540	13.2180
10.4760	13.1260
10.4970	13.1970
10.5180	13.2060
10.5390	13.3670
10.5610	13.2180
10.5820	13.3050
10.6040	13.2660
10.6260	13.4550
10.6480	13.4020
10.6700	13.4100
10.6920	13.1910
10.7140	13.2540
10.7360	13.1410
10.7580	13.3030
10.7800	13.1910
10.8030	13.3000
10.8250	13.1850
10.8480	13.2140
10.8710	13.0650
10.8940	13.2300
10.9170	13.1860
10.9400	13.3490
10.9630	13.2500
10.9860	13.2470
11.0090	13.0010
11.0330	13.1280
11.0560	13.0220
11.0800	13.0980
11.1040	12.9100
11.1270	13.0540
11.1510	13.0490
11.1750	13.2220
11.2000	13.2090
11.2240	13.3100
11.2480	13.2110
11.2730	13.3760
11.2970	12.9380
11.3220	12.9760
11.3470	13.1980
11.3720	13.4560
11.3970	13.2730
11.4220	13.3610
11.4470	13.3540
11.4720	13.4340
11.4980	13.1620
11.5230	13.1950
11.5490	13.1040
11.5750	13.2460
11.6000	13.0600
11.6260	13.2720
11.6530	13.2370
11.6790	13.3440
11.7050	13.1110
11.7320	13.1620
11.7580	13.0980
11.7850	13.3540
11.8120	13.1890
11.8390	13.2330
11.8660	13.0630
11.8930	13.1730
11.9200	13.0760
11.9480	13.3060
11.9760	13.1950
12.0030	13.2480
12.0310	12.9720
12.0590	13.0720
12.0870	13.0340
12.1150	13.1580
12.1440	12.9670
12.1720	13.1690
12.2010	13.1590
12.2300	13.2620
12.2590	12.8810
12.2880	13.1100
12.3170	13.1340
12.3460	13.2320
12.3760	12.9520
12.4050	13.1390
12.4350	13.2180
12.4650	13.3910
12.4950	13.1630
12.5250	13.2460
12.5550	13.0890
12.5860	13.2710
12.6170	13.0820
12.6470	13.2450
12.6780	13.1690
12.7090	13.4620
12.7410	13.2160
12.7720	13.2700
12.8030	13.1150
12.8350	13.3430
12.8670	13.2870
12.8990	13.5500
12.9310	13.1350
12.9640	13.0480
12.9960	12.9410
13.0290	13.1890
13.0610	13.0850
13.0940	13.2840
13.1280	13.0910
13.1610	13.2160
13.1940	13.0780
13.2280	13.4120
13.2620	13.1930
13.2960	13.3260
13.3300	13.1210
13.3640	13.1810
13.3990	12.9650
13.4340	13.1240
13.4690	12.9540
13.5040	13.1440
13.5390	12.9300
13.5740	12.9510
13.6100	12.6190
13.6460	13.0400
13.6820	13.4480
13.7180	13.9160
13.7540	13.6480
13.7910	13.4840
13.8280	12.9310
13.8650	13.6570
13.9020	14.0940
13.9390	14.3050
13.9770	13.7050
14.0150	13.5800
14.0530	13.2080
14.0910	13.6270
14.1290	13.2610
14.1680	13.2250
14.2070	12.9170
14.2460	13.2330
14.2850	12.9680
14.3240	13.2140
14.3640	12.8350
14.4040	13.0820
14.4440	13.0410
14.4840	13.4500
14.5250	12.9130
14.5660	13.0770
14.6070	12.7180
14.6480	12.8710
14.6900	12.6310
14.7310	13.1820
14.7730	12.9280
14.8150	13.5040
14.8580	13.0700
14.9010	13.1910
14.9440	12.3350
14.9870	12.5910
15.0300	12.4280
15.0740	12.9040
15.1180	12.5720
15.1620	13.1660
15.2060	12.6630
15.2510	13.0800
15.2960	12.5950
15.3410	12.9800
15.3870	12.5180
