Name: Adenostoma fasciculatum 3
Type: vegetation
Class: Shrub
Genus: Adenostoma
Species: fasciculatum
Sample No.: VH043
Owner: UCSB
Wavelength Range: VSWIR
Origin: 34.5084; -119.7686; WGS84
Collection Date: 4/1/2013
Description: Samples were collected as part of the HyspIRI Airborne Campaign. 48 individual plants were sampled in three times in 2013 - spring  summer  and fall. The name of the sample includes a 1  2  or 3 which references a different individual of the species. Samples were taken to JPL and processed within 48 hours of collection. The same leaves were processed in the Nicolet and then measured using the ASD.
Measurement: Bidirectional reflectance
First Column: X
Second Column: Y
X Units: Wavelength (micrometers)
Y Units: Reflectance (percentage)
First X Value: 0.35
Last X Value: 2.5
Number of X Values: 2151
Additional Information: vegetation.shrub.adenostoma.fasciculatum.vswir.vh043.ucsb.asd.ancillary.txt

 0.3500	 1.4520
 0.3510	 1.2950
 0.3520	 1.0930
 0.3530	 0.8880
 0.3540	 0.7190
 0.3550	 0.8320
 0.3560	 0.9370
 0.3570	 0.8990
 0.3580	 0.7200
 0.3590	 0.7710
 0.3600	 0.9420
 0.3610	 1.0490
 0.3620	 0.8750
 0.3630	 0.8350
 0.3640	 0.8870
 0.3650	 0.9010
 0.3660	 0.9330
 0.3670	 0.8900
 0.3680	 0.8220
 0.3690	 0.8630
 0.3700	 0.8790
 0.3710	 0.8490
 0.3720	 0.7860
 0.3730	 0.7410
 0.3740	 0.7640
 0.3750	 0.8180
 0.3760	 0.8620
 0.3770	 1.0170
 0.3780	 1.0470
 0.3790	 0.9580
 0.3800	 0.9630
 0.3810	 0.9640
 0.3820	 0.8870
 0.3830	 0.7650
 0.3840	 0.8610
 0.3850	 0.9510
 0.3860	 0.9540
 0.3870	 0.8800
 0.3880	 0.8930
 0.3890	 0.9420
 0.3900	 0.9910
 0.3910	 1.0350
 0.3920	 0.9680
 0.3930	 0.8890
 0.3940	 0.8870
 0.3950	 0.9100
 0.3960	 0.9420
 0.3970	 0.9510
 0.3980	 0.9100
 0.3990	 0.9070
 0.4000	 0.9180
 0.4010	 0.9220
 0.4020	 0.9130
 0.4030	 0.9390
 0.4040	 0.9660
 0.4050	 0.9660
 0.4060	 0.9750
 0.4070	 0.9950
 0.4080	 1.0160
 0.4090	 1.0240
 0.4100	 1.0370
 0.4110	 1.0620
 0.4120	 1.0920
 0.4130	 1.0950
 0.4140	 1.0930
 0.4150	 1.0940
 0.4160	 1.1040
 0.4170	 1.1320
 0.4180	 1.1630
 0.4190	 1.1860
 0.4200	 1.1930
 0.4210	 1.1840
 0.4220	 1.1940
 0.4230	 1.2350
 0.4240	 1.2520
 0.4250	 1.2470
 0.4260	 1.2400
 0.4270	 1.2580
 0.4280	 1.2880
 0.4290	 1.3090
 0.4300	 1.3150
 0.4310	 1.3230
 0.4320	 1.3390
 0.4330	 1.3510
 0.4340	 1.3500
 0.4350	 1.3540
 0.4360	 1.3630
 0.4370	 1.3780
 0.4380	 1.4020
 0.4390	 1.4170
 0.4400	 1.4260
 0.4410	 1.4340
 0.4420	 1.4440
 0.4430	 1.4530
 0.4440	 1.4530
 0.4450	 1.4430
 0.4460	 1.4550
 0.4470	 1.4660
 0.4480	 1.4720
 0.4490	 1.4910
 0.4500	 1.4810
 0.4510	 1.4750
 0.4520	 1.5010
 0.4530	 1.5210
 0.4540	 1.5350
 0.4550	 1.5390
 0.4560	 1.5280
 0.4570	 1.5440
 0.4580	 1.5560
 0.4590	 1.5500
 0.4600	 1.5540
 0.4610	 1.5630
 0.4620	 1.5710
 0.4630	 1.5740
 0.4640	 1.5800
 0.4650	 1.5850
 0.4660	 1.5900
 0.4670	 1.6020
 0.4680	 1.6110
 0.4690	 1.6110
 0.4700	 1.6040
 0.4710	 1.6080
 0.4720	 1.6090
 0.4730	 1.6100
 0.4740	 1.6200
 0.4750	 1.6200
 0.4760	 1.6220
 0.4770	 1.6310
 0.4780	 1.6350
 0.4790	 1.6340
 0.4800	 1.6330
 0.4810	 1.6350
 0.4820	 1.6410
 0.4830	 1.6430
 0.4840	 1.6440
 0.4850	 1.6640
 0.4860	 1.6750
 0.4870	 1.6810
 0.4880	 1.6880
 0.4890	 1.6930
 0.4900	 1.6940
 0.4910	 1.6960
 0.4920	 1.7090
 0.4930	 1.7230
 0.4940	 1.7350
 0.4950	 1.7460
 0.4960	 1.7600
 0.4970	 1.7790
 0.4980	 1.7980
 0.4990	 1.8140
 0.5000	 1.8390
 0.5010	 1.8620
 0.5020	 1.8840
 0.5030	 1.9180
 0.5040	 1.9530
 0.5050	 1.9890
 0.5060	 2.0270
 0.5070	 2.0830
 0.5080	 2.1370
 0.5090	 2.1930
 0.5100	 2.2600
 0.5110	 2.3310
 0.5120	 2.4070
 0.5130	 2.4870
 0.5140	 2.5650
 0.5150	 2.6550
 0.5160	 2.7560
 0.5170	 2.8640
 0.5180	 2.9730
 0.5190	 3.0850
 0.5200	 3.2040
 0.5210	 3.3240
 0.5220	 3.4470
 0.5230	 3.5680
 0.5240	 3.6850
 0.5250	 3.8040
 0.5260	 3.9210
 0.5270	 4.0330
 0.5280	 4.1400
 0.5290	 4.2420
 0.5300	 4.3400
 0.5310	 4.4320
 0.5320	 4.5200
 0.5330	 4.5920
 0.5340	 4.6590
 0.5350	 4.7320
 0.5360	 4.7900
 0.5370	 4.8440
 0.5380	 4.8980
 0.5390	 4.9500
 0.5400	 5.0020
 0.5410	 5.0550
 0.5420	 5.1080
 0.5430	 5.1600
 0.5440	 5.2010
 0.5450	 5.2370
 0.5460	 5.2730
 0.5470	 5.3010
 0.5480	 5.3230
 0.5490	 5.3440
 0.5500	 5.3660
 0.5510	 5.3850
 0.5520	 5.3990
 0.5530	 5.4060
 0.5540	 5.4040
 0.5550	 5.3940
 0.5560	 5.3780
 0.5570	 5.3550
 0.5580	 5.3250
 0.5590	 5.2860
 0.5600	 5.2380
 0.5610	 5.1960
 0.5620	 5.1450
 0.5630	 5.0890
 0.5640	 5.0360
 0.5650	 4.9760
 0.5660	 4.9120
 0.5670	 4.8470
 0.5680	 4.7790
 0.5690	 4.7050
 0.5700	 4.6280
 0.5710	 4.5500
 0.5720	 4.4760
 0.5730	 4.4040
 0.5740	 4.3340
 0.5750	 4.2690
 0.5760	 4.2110
 0.5770	 4.1580
 0.5780	 4.1100
 0.5790	 4.0640
 0.5800	 4.0180
 0.5810	 3.9740
 0.5820	 3.9330
 0.5830	 3.8980
 0.5840	 3.8600
 0.5850	 3.8210
 0.5860	 3.7890
 0.5870	 3.7560
 0.5880	 3.7280
 0.5890	 3.7060
 0.5900	 3.6790
 0.5910	 3.6560
 0.5920	 3.6380
 0.5930	 3.6210
 0.5940	 3.6120
 0.5950	 3.6040
 0.5960	 3.5930
 0.5970	 3.5810
 0.5980	 3.5710
 0.5990	 3.5620
 0.6000	 3.5490
 0.6010	 3.5380
 0.6020	 3.5200
 0.6030	 3.4970
 0.6040	 3.4760
 0.6050	 3.4480
 0.6060	 3.4160
 0.6070	 3.3820
 0.6080	 3.3440
 0.6090	 3.3100
 0.6100	 3.2790
 0.6110	 3.2470
 0.6120	 3.2100
 0.6130	 3.1660
 0.6140	 3.1170
 0.6150	 3.0790
 0.6160	 3.0440
 0.6170	 3.0090
 0.6180	 2.9750
 0.6190	 2.9470
 0.6200	 2.9240
 0.6210	 2.9040
 0.6220	 2.8870
 0.6230	 2.8730
 0.6240	 2.8600
 0.6250	 2.8480
 0.6260	 2.8420
 0.6270	 2.8390
 0.6280	 2.8350
 0.6290	 2.8320
 0.6300	 2.8300
 0.6310	 2.8290
 0.6320	 2.8270
 0.6330	 2.8180
 0.6340	 2.8110
 0.6350	 2.7990
 0.6360	 2.7790
 0.6370	 2.7630
 0.6380	 2.7430
 0.6390	 2.7160
 0.6400	 2.6850
 0.6410	 2.6540
 0.6420	 2.6240
 0.6430	 2.5900
 0.6440	 2.5510
 0.6450	 2.5130
 0.6460	 2.4760
 0.6470	 2.4400
 0.6480	 2.4040
 0.6490	 2.3730
 0.6500	 2.3460
 0.6510	 2.3200
 0.6520	 2.3000
 0.6530	 2.2800
 0.6540	 2.2550
 0.6550	 2.2340
 0.6560	 2.2090
 0.6570	 2.1790
 0.6580	 2.1460
 0.6590	 2.1170
 0.6600	 2.0870
 0.6610	 2.0550
 0.6620	 2.0230
 0.6630	 1.9940
 0.6640	 1.9680
 0.6650	 1.9440
 0.6660	 1.9200
 0.6670	 1.9020
 0.6680	 1.8910
 0.6690	 1.8840
 0.6700	 1.8710
 0.6710	 1.8630
 0.6720	 1.8640
 0.6730	 1.8630
 0.6740	 1.8650
 0.6750	 1.8690
 0.6760	 1.8750
 0.6770	 1.8790
 0.6780	 1.8870
 0.6790	 1.9000
 0.6800	 1.9160
 0.6810	 1.9340
 0.6820	 1.9570
 0.6830	 1.9870
 0.6840	 2.0220
 0.6850	 2.0660
 0.6860	 2.1210
 0.6870	 2.1910
 0.6880	 2.2780
 0.6890	 2.3890
 0.6900	 2.5250
 0.6910	 2.6860
 0.6920	 2.8830
 0.6930	 3.1200
 0.6940	 3.3960
 0.6950	 3.7080
 0.6960	 4.0590
 0.6970	 4.4480
 0.6980	 4.8690
 0.6990	 5.3250
 0.7000	 5.8110
 0.7010	 6.3240
 0.7020	 6.8610
 0.7030	 7.4190
 0.7040	 7.9940
 0.7050	 8.5810
 0.7060	 9.1760
 0.7070	 9.7860
 0.7080	10.4070
 0.7090	11.0360
 0.7100	11.6760
 0.7110	12.3260
 0.7120	12.9860
 0.7130	13.6490
 0.7140	14.3210
 0.7150	15.0030
 0.7160	15.6920
 0.7170	16.3840
 0.7180	17.0790
 0.7190	17.7740
 0.7200	18.4710
 0.7210	19.1720
 0.7220	19.8680
 0.7230	20.5580
 0.7240	21.2420
 0.7250	21.9120
 0.7260	22.5700
 0.7270	23.2170
 0.7280	23.8470
 0.7290	24.4550
 0.7300	25.0420
 0.7310	25.6110
 0.7320	26.1600
 0.7330	26.6860
 0.7340	27.1910
 0.7350	27.6770
 0.7360	28.1380
 0.7370	28.5750
 0.7380	28.9920
 0.7390	29.3870
 0.7400	29.7620
 0.7410	30.1180
 0.7420	30.4540
 0.7430	30.7660
 0.7440	31.0580
 0.7450	31.3360
 0.7460	31.6020
 0.7470	31.8440
 0.7480	32.0690
 0.7490	32.2810
 0.7500	32.4760
 0.7510	32.6560
 0.7520	32.8250
 0.7530	32.9860
 0.7540	33.1330
 0.7550	33.2650
 0.7560	33.3850
 0.7570	33.4990
 0.7580	33.6060
 0.7590	33.7040
 0.7600	33.7950
 0.7610	33.8820
 0.7620	33.9620
 0.7630	34.0380
 0.7640	34.1090
 0.7650	34.1690
 0.7660	34.2280
 0.7670	34.2880
 0.7680	34.3470
 0.7690	34.3960
 0.7700	34.4430
 0.7710	34.4910
 0.7720	34.5320
 0.7730	34.5740
 0.7740	34.6140
 0.7750	34.6470
 0.7760	34.6870
 0.7770	34.7290
 0.7780	34.7670
 0.7790	34.8020
 0.7800	34.8320
 0.7810	34.8640
 0.7820	34.9000
 0.7830	34.9320
 0.7840	34.9650
 0.7850	34.9970
 0.7860	35.0240
 0.7870	35.0510
 0.7880	35.0800
 0.7890	35.1090
 0.7900	35.1350
 0.7910	35.1620
 0.7920	35.1900
 0.7930	35.2180
 0.7940	35.2450
 0.7950	35.2680
 0.7960	35.2870
 0.7970	35.3080
 0.7980	35.3360
 0.7990	35.3580
 0.8000	35.3780
 0.8010	35.4010
 0.8020	35.4260
 0.8030	35.4500
 0.8040	35.4670
 0.8050	35.4780
 0.8060	35.5000
 0.8070	35.5200
 0.8080	35.5360
 0.8090	35.5560
 0.8100	35.5670
 0.8110	35.5800
 0.8120	35.6020
 0.8130	35.6210
 0.8140	35.6350
 0.8150	35.6450
 0.8160	35.6570
 0.8170	35.6740
 0.8180	35.6890
 0.8190	35.7020
 0.8200	35.7160
 0.8210	35.7260
 0.8220	35.7390
 0.8230	35.7530
 0.8240	35.7600
 0.8250	35.7670
 0.8260	35.7790
 0.8270	35.7940
 0.8280	35.7970
 0.8290	35.7970
 0.8300	35.8010
 0.8310	35.8110
 0.8320	35.8130
 0.8330	35.8200
 0.8340	35.8290
 0.8350	35.8380
 0.8360	35.8480
 0.8370	35.8580
 0.8380	35.8690
 0.8390	35.8800
 0.8400	35.8960
 0.8410	35.9090
 0.8420	35.9160
 0.8430	35.9280
 0.8440	35.9480
 0.8450	35.9660
 0.8460	35.9760
 0.8470	35.9850
 0.8480	35.9980
 0.8490	36.0160
 0.8500	36.0340
 0.8510	36.0530
 0.8520	36.0660
 0.8530	36.0770
 0.8540	36.0930
 0.8550	36.1040
 0.8560	36.1190
 0.8570	36.1370
 0.8580	36.1460
 0.8590	36.1530
 0.8600	36.1660
 0.8610	36.1850
 0.8620	36.2000
 0.8630	36.2120
 0.8640	36.2250
 0.8650	36.2400
 0.8660	36.2540
 0.8670	36.2650
 0.8680	36.2740
 0.8690	36.2840
 0.8700	36.3020
 0.8710	36.3120
 0.8720	36.3190
 0.8730	36.3340
 0.8740	36.3470
 0.8750	36.3630
 0.8760	36.3800
 0.8770	36.3870
 0.8780	36.4000
 0.8790	36.4150
 0.8800	36.4270
 0.8810	36.4280
 0.8820	36.4460
 0.8830	36.4590
 0.8840	36.4550
 0.8850	36.4660
 0.8860	36.4840
 0.8870	36.4960
 0.8880	36.4960
 0.8890	36.5060
 0.8900	36.5080
 0.8910	36.5100
 0.8920	36.5250
 0.8930	36.5320
 0.8940	36.5350
 0.8950	36.5390
 0.8960	36.5470
 0.8970	36.5480
 0.8980	36.5540
 0.8990	36.5620
 0.9000	36.5580
 0.9010	36.5630
 0.9020	36.5700
 0.9030	36.5760
 0.9040	36.5790
 0.9050	36.5820
 0.9060	36.5840
 0.9070	36.5860
 0.9080	36.5810
 0.9090	36.5900
 0.9100	36.6010
 0.9110	36.6010
 0.9120	36.6050
 0.9130	36.6060
 0.9140	36.6060
 0.9150	36.6060
 0.9160	36.6100
 0.9170	36.6010
 0.9180	36.5930
 0.9190	36.6040
 0.9200	36.6080
 0.9210	36.6020
 0.9220	36.5900
 0.9230	36.5810
 0.9240	36.5780
 0.9250	36.5720
 0.9260	36.5610
 0.9270	36.5510
 0.9280	36.5330
 0.9290	36.5120
 0.9300	36.4940
 0.9310	36.4810
 0.9320	36.4520
 0.9330	36.4180
 0.9340	36.3920
 0.9350	36.3740
 0.9360	36.3540
 0.9370	36.3290
 0.9380	36.2950
 0.9390	36.2480
 0.9400	36.2050
 0.9410	36.1610
 0.9420	36.1140
 0.9430	36.0790
 0.9440	36.0430
 0.9450	35.9930
 0.9460	35.9240
 0.9470	35.8460
 0.9480	35.7810
 0.9490	35.7080
 0.9500	35.6140
 0.9510	35.5340
 0.9520	35.4460
 0.9530	35.3510
 0.9540	35.2560
 0.9550	35.1680
 0.9560	35.0680
 0.9570	34.9660
 0.9580	34.8750
 0.9590	34.7910
 0.9600	34.7100
 0.9610	34.6400
 0.9620	34.5860
 0.9630	34.5120
 0.9640	34.4700
 0.9650	34.4350
 0.9660	34.3740
 0.9670	34.3520
 0.9680	34.3240
 0.9690	34.2900
 0.9700	34.2660
 0.9710	34.2520
 0.9720	34.2400
 0.9730	34.2300
 0.9740	34.2260
 0.9750	34.2230
 0.9760	34.2290
 0.9770	34.2300
 0.9780	34.2140
 0.9790	34.2030
 0.9800	34.2210
 0.9810	34.2440
 0.9820	34.2390
 0.9830	34.2470
 0.9840	34.2680
 0.9850	34.3030
 0.9860	34.3480
 0.9870	34.3630
 0.9880	34.3940
 0.9890	34.4350
 0.9900	34.4580
 0.9910	34.5240
 0.9920	34.6380
 0.9930	34.7530
 0.9940	34.8670
 0.9950	34.9820
 0.9960	35.0960
 0.9970	35.2110
 0.9980	35.3260
 0.9990	35.4400
 1.0000	35.5550
 1.0010	35.6690
 1.0020	35.7840
 1.0030	35.8980
 1.0040	36.0130
 1.0050	36.1280
 1.0060	36.2420
 1.0070	36.3570
 1.0080	36.4710
 1.0090	36.5860
 1.0100	36.5860
 1.0110	36.6350
 1.0120	36.6840
 1.0130	36.7360
 1.0140	36.7860
 1.0150	36.8350
 1.0160	36.8800
 1.0170	36.9310
 1.0180	36.9800
 1.0190	37.0250
 1.0200	37.0740
 1.0210	37.1220
 1.0220	37.1680
 1.0230	37.2180
 1.0240	37.2730
 1.0250	37.3200
 1.0260	37.3640
 1.0270	37.4100
 1.0280	37.4530
 1.0290	37.4970
 1.0300	37.5450
 1.0310	37.5910
 1.0320	37.6340
 1.0330	37.6750
 1.0340	37.7170
 1.0350	37.7560
 1.0360	37.7970
 1.0370	37.8380
 1.0380	37.8770
 1.0390	37.9170
 1.0400	37.9560
 1.0410	37.9920
 1.0420	38.0280
 1.0430	38.0640
 1.0440	38.0980
 1.0450	38.1310
 1.0460	38.1610
 1.0470	38.1870
 1.0480	38.2150
 1.0490	38.2410
 1.0500	38.2690
 1.0510	38.3010
 1.0520	38.3280
 1.0530	38.3530
 1.0540	38.3770
 1.0550	38.4000
 1.0560	38.4190
 1.0570	38.4410
 1.0580	38.4630
 1.0590	38.4820
 1.0600	38.4990
 1.0610	38.5180
 1.0620	38.5380
 1.0630	38.5550
 1.0640	38.5750
 1.0650	38.5900
 1.0660	38.5960
 1.0670	38.6070
 1.0680	38.6200
 1.0690	38.6340
 1.0700	38.6450
 1.0710	38.6600
 1.0720	38.6700
 1.0730	38.6760
 1.0740	38.6830
 1.0750	38.6900
 1.0760	38.6950
 1.0770	38.7010
 1.0780	38.7050
 1.0790	38.7070
 1.0800	38.7090
 1.0810	38.7080
 1.0820	38.7070
 1.0830	38.7040
 1.0840	38.7010
 1.0850	38.6970
 1.0860	38.6930
 1.0870	38.6900
 1.0880	38.6880
 1.0890	38.6810
 1.0900	38.6730
 1.0910	38.6640
 1.0920	38.6530
 1.0930	38.6400
 1.0940	38.6270
 1.0950	38.6130
 1.0960	38.5970
 1.0970	38.5810
 1.0980	38.5650
 1.0990	38.5480
 1.1000	38.5300
 1.1010	38.5110
 1.1020	38.4920
 1.1030	38.4700
 1.1040	38.4480
 1.1050	38.4270
 1.1060	38.4040
 1.1070	38.3810
 1.1080	38.3570
 1.1090	38.3330
 1.1100	38.3060
 1.1110	38.2780
 1.1120	38.2480
 1.1130	38.2150
 1.1140	38.1800
 1.1150	38.1440
 1.1160	38.1040
 1.1170	38.0640
 1.1180	38.0160
 1.1190	37.9620
 1.1200	37.9040
 1.1210	37.8400
 1.1220	37.7710
 1.1230	37.6960
 1.1240	37.6140
 1.1250	37.5240
 1.1260	37.4270
 1.1270	37.3200
 1.1280	37.2070
 1.1290	37.0800
 1.1300	36.9440
 1.1310	36.7950
 1.1320	36.6340
 1.1330	36.4640
 1.1340	36.2840
 1.1350	36.0920
 1.1360	35.8910
 1.1370	35.6790
 1.1380	35.4610
 1.1390	35.2350
 1.1400	35.0000
 1.1410	34.7640
 1.1420	34.5250
 1.1430	34.2840
 1.1440	34.0480
 1.1450	33.8110
 1.1460	33.5800
 1.1470	33.3470
 1.1480	33.1270
 1.1490	32.9110
 1.1500	32.7100
 1.1510	32.5180
 1.1520	32.3370
 1.1530	32.1660
 1.1540	32.0090
 1.1550	31.8630
 1.1560	31.7300
 1.1570	31.6110
 1.1580	31.5040
 1.1590	31.4060
 1.1600	31.3170
 1.1610	31.2370
 1.1620	31.1650
 1.1630	31.1000
 1.1640	31.0440
 1.1650	30.9920
 1.1660	30.9490
 1.1670	30.9070
 1.1680	30.8700
 1.1690	30.8350
 1.1700	30.8040
 1.1710	30.7730
 1.1720	30.7460
 1.1730	30.7170
 1.1740	30.6870
 1.1750	30.6560
 1.1760	30.6250
 1.1770	30.5930
 1.1780	30.5600
 1.1790	30.5270
 1.1800	30.4920
 1.1810	30.4580
 1.1820	30.4240
 1.1830	30.3900
 1.1840	30.3570
 1.1850	30.3250
 1.1860	30.2930
 1.1870	30.2650
 1.1880	30.2380
 1.1890	30.2130
 1.1900	30.1900
 1.1910	30.1710
 1.1920	30.1540
 1.1930	30.1400
 1.1940	30.1260
 1.1950	30.1140
 1.1960	30.1040
 1.1970	30.0980
 1.1980	30.0960
 1.1990	30.0980
 1.2000	30.1050
 1.2010	30.1140
 1.2020	30.1270
 1.2030	30.1460
 1.2040	30.1700
 1.2050	30.1970
 1.2060	30.2290
 1.2070	30.2630
 1.2080	30.2990
 1.2090	30.3400
 1.2100	30.3850
 1.2110	30.4330
 1.2120	30.4850
 1.2130	30.5400
 1.2140	30.5970
 1.2150	30.6570
 1.2160	30.7200
 1.2170	30.7860
 1.2180	30.8530
 1.2190	30.9200
 1.2200	30.9890
 1.2210	31.0580
 1.2220	31.1260
 1.2230	31.1940
 1.2240	31.2590
 1.2250	31.3250
 1.2260	31.3910
 1.2270	31.4550
 1.2280	31.5170
 1.2290	31.5780
 1.2300	31.6360
 1.2310	31.6900
 1.2320	31.7460
 1.2330	31.8000
 1.2340	31.8510
 1.2350	31.9020
 1.2360	31.9510
 1.2370	31.9990
 1.2380	32.0440
 1.2390	32.0900
 1.2400	32.1350
 1.2410	32.1800
 1.2420	32.2220
 1.2430	32.2630
 1.2440	32.3030
 1.2450	32.3410
 1.2460	32.3770
 1.2470	32.4130
 1.2480	32.4480
 1.2490	32.4830
 1.2500	32.5170
 1.2510	32.5490
 1.2520	32.5800
 1.2530	32.6080
 1.2540	32.6340
 1.2550	32.6600
 1.2560	32.6820
 1.2570	32.7030
 1.2580	32.7220
 1.2590	32.7400
 1.2600	32.7550
 1.2610	32.7700
 1.2620	32.7840
 1.2630	32.7970
 1.2640	32.8090
 1.2650	32.8210
 1.2660	32.8320
 1.2670	32.8420
 1.2680	32.8490
 1.2690	32.8540
 1.2700	32.8550
 1.2710	32.8540
 1.2720	32.8510
 1.2730	32.8470
 1.2740	32.8420
 1.2750	32.8360
 1.2760	32.8290
 1.2770	32.8200
 1.2780	32.8070
 1.2790	32.7920
 1.2800	32.7760
 1.2810	32.7570
 1.2820	32.7370
 1.2830	32.7140
 1.2840	32.6900
 1.2850	32.6620
 1.2860	32.6310
 1.2870	32.5960
 1.2880	32.5580
 1.2890	32.5160
 1.2900	32.4710
 1.2910	32.4220
 1.2920	32.3700
 1.2930	32.3140
 1.2940	32.2550
 1.2950	32.1920
 1.2960	32.1270
 1.2970	32.0590
 1.2980	31.9860
 1.2990	31.9100
 1.3000	31.8300
 1.3010	31.7480
 1.3020	31.6630
 1.3030	31.5710
 1.3040	31.4740
 1.3050	31.3730
 1.3060	31.2700
 1.3070	31.1640
 1.3080	31.0570
 1.3090	30.9460
 1.3100	30.8270
 1.3110	30.7060
 1.3120	30.5790
 1.3130	30.4490
 1.3140	30.3160
 1.3150	30.1790
 1.3160	30.0390
 1.3170	29.8950
 1.3180	29.7490
 1.3190	29.5980
 1.3200	29.4430
 1.3210	29.2830
 1.3220	29.1180
 1.3230	28.9500
 1.3240	28.7800
 1.3250	28.6110
 1.3260	28.4400
 1.3270	28.2640
 1.3280	28.0860
 1.3290	27.9040
 1.3300	27.7220
 1.3310	27.5400
 1.3320	27.3560
 1.3330	27.1730
 1.3340	26.9890
 1.3350	26.8060
 1.3360	26.6230
 1.3370	26.4390
 1.3380	26.2570
 1.3390	26.0770
 1.3400	25.8980
 1.3410	25.7230
 1.3420	25.5510
 1.3430	25.3780
 1.3440	25.2080
 1.3450	25.0410
 1.3460	24.8750
 1.3470	24.7130
 1.3480	24.5550
 1.3490	24.3990
 1.3500	24.2450
 1.3510	24.0930
 1.3520	23.9420
 1.3530	23.7920
 1.3540	23.6440
 1.3550	23.4990
 1.3560	23.3540
 1.3570	23.2090
 1.3580	23.0640
 1.3590	22.9160
 1.3600	22.7660
 1.3610	22.6150
 1.3620	22.4590
 1.3630	22.2990
 1.3640	22.1350
 1.3650	21.9660
 1.3660	21.7930
 1.3670	21.6130
 1.3680	21.4240
 1.3690	21.2260
 1.3700	21.0160
 1.3710	20.7980
 1.3720	20.5670
 1.3730	20.3240
 1.3740	20.0700
 1.3750	19.8010
 1.3760	19.5160
 1.3770	19.2160
 1.3780	18.8970
 1.3790	18.5650
 1.3800	18.2180
 1.3810	17.8550
 1.3820	17.4850
 1.3830	17.1040
 1.3840	16.7150
 1.3850	16.3160
 1.3860	15.9130
 1.3870	15.5010
 1.3880	15.0910
 1.3890	14.6780
 1.3900	14.2650
 1.3910	13.8590
 1.3920	13.4550
 1.3930	13.0560
 1.3940	12.6650
 1.3950	12.2790
 1.3960	11.9030
 1.3970	11.5400
 1.3980	11.1880
 1.3990	10.8540
 1.4000	10.5330
 1.4010	10.2230
 1.4020	 9.9310
 1.4030	 9.6510
 1.4040	 9.3840
 1.4050	 9.1350
 1.4060	 8.8990
 1.4070	 8.6790
 1.4080	 8.4730
 1.4090	 8.2800
 1.4100	 8.1010
 1.4110	 7.9330
 1.4120	 7.7770
 1.4130	 7.6330
 1.4140	 7.4990
 1.4150	 7.3760
 1.4160	 7.2630
 1.4170	 7.1570
 1.4180	 7.0610
 1.4190	 6.9730
 1.4200	 6.8910
 1.4210	 6.8160
 1.4220	 6.7470
 1.4230	 6.6840
 1.4240	 6.6270
 1.4250	 6.5750
 1.4260	 6.5280
 1.4270	 6.4850
 1.4280	 6.4460
 1.4290	 6.4110
 1.4300	 6.3800
 1.4310	 6.3520
 1.4320	 6.3290
 1.4330	 6.3070
 1.4340	 6.2890
 1.4350	 6.2730
 1.4360	 6.2590
 1.4370	 6.2480
 1.4380	 6.2390
 1.4390	 6.2320
 1.4400	 6.2270
 1.4410	 6.2250
 1.4420	 6.2240
 1.4430	 6.2250
 1.4440	 6.2280
 1.4450	 6.2310
 1.4460	 6.2360
 1.4470	 6.2410
 1.4480	 6.2480
 1.4490	 6.2560
 1.4500	 6.2630
 1.4510	 6.2720
 1.4520	 6.2820
 1.4530	 6.2920
 1.4540	 6.3040
 1.4550	 6.3160
 1.4560	 6.3290
 1.4570	 6.3430
 1.4580	 6.3590
 1.4590	 6.3770
 1.4600	 6.3970
 1.4610	 6.4190
 1.4620	 6.4420
 1.4630	 6.4680
 1.4640	 6.4960
 1.4650	 6.5260
 1.4660	 6.5590
 1.4670	 6.5940
 1.4680	 6.6320
 1.4690	 6.6730
 1.4700	 6.7150
 1.4710	 6.7590
 1.4720	 6.8050
 1.4730	 6.8530
 1.4740	 6.9040
 1.4750	 6.9550
 1.4760	 7.0100
 1.4770	 7.0640
 1.4780	 7.1210
 1.4790	 7.1800
 1.4800	 7.2390
 1.4810	 7.2990
 1.4820	 7.3590
 1.4830	 7.4200
 1.4840	 7.4830
 1.4850	 7.5460
 1.4860	 7.6110
 1.4870	 7.6770
 1.4880	 7.7430
 1.4890	 7.8090
 1.4900	 7.8750
 1.4910	 7.9410
 1.4920	 8.0090
 1.4930	 8.0770
 1.4940	 8.1460
 1.4950	 8.2160
 1.4960	 8.2860
 1.4970	 8.3560
 1.4980	 8.4260
 1.4990	 8.4960
 1.5000	 8.5670
 1.5010	 8.6390
 1.5020	 8.7100
 1.5030	 8.7810
 1.5040	 8.8530
 1.5050	 8.9240
 1.5060	 8.9950
 1.5070	 9.0680
 1.5080	 9.1390
 1.5090	 9.2100
 1.5100	 9.2820
 1.5110	 9.3530
 1.5120	 9.4250
 1.5130	 9.4960
 1.5140	 9.5670
 1.5150	 9.6390
 1.5160	 9.7100
 1.5170	 9.7810
 1.5180	 9.8510
 1.5190	 9.9200
 1.5200	 9.9900
 1.5210	10.0590
 1.5220	10.1280
 1.5230	10.1980
 1.5240	10.2670
 1.5250	10.3360
 1.5260	10.4040
 1.5270	10.4690
 1.5280	10.5350
 1.5290	10.6010
 1.5300	10.6660
 1.5310	10.7330
 1.5320	10.7990
 1.5330	10.8640
 1.5340	10.9280
 1.5350	10.9910
 1.5360	11.0540
 1.5370	11.1160
 1.5380	11.1790
 1.5390	11.2410
 1.5400	11.3020
 1.5410	11.3630
 1.5420	11.4250
 1.5430	11.4860
 1.5440	11.5470
 1.5450	11.6090
 1.5460	11.6700
 1.5470	11.7300
 1.5480	11.7880
 1.5490	11.8460
 1.5500	11.9040
 1.5510	11.9610
 1.5520	12.0190
 1.5530	12.0760
 1.5540	12.1340
 1.5550	12.1910
 1.5560	12.2480
 1.5570	12.3040
 1.5580	12.3600
 1.5590	12.4150
 1.5600	12.4700
 1.5610	12.5230
 1.5620	12.5770
 1.5630	12.6310
 1.5640	12.6830
 1.5650	12.7370
 1.5660	12.7890
 1.5670	12.8400
 1.5680	12.8930
 1.5690	12.9450
 1.5700	12.9970
 1.5710	13.0480
 1.5720	13.1000
 1.5730	13.1510
 1.5740	13.2030
 1.5750	13.2540
 1.5760	13.3060
 1.5770	13.3570
 1.5780	13.4080
 1.5790	13.4590
 1.5800	13.5100
 1.5810	13.5610
 1.5820	13.6120
 1.5830	13.6610
 1.5840	13.7110
 1.5850	13.7610
 1.5860	13.8110
 1.5870	13.8620
 1.5880	13.9120
 1.5890	13.9630
 1.5900	14.0130
 1.5910	14.0620
 1.5920	14.1110
 1.5930	14.1600
 1.5940	14.2090
 1.5950	14.2580
 1.5960	14.3070
 1.5970	14.3550
 1.5980	14.4040
 1.5990	14.4520
 1.6000	14.5000
 1.6010	14.5470
 1.6020	14.5930
 1.6030	14.6400
 1.6040	14.6870
 1.6050	14.7340
 1.6060	14.7810
 1.6070	14.8270
 1.6080	14.8710
 1.6090	14.9150
 1.6100	14.9590
 1.6110	15.0010
 1.6120	15.0440
 1.6130	15.0870
 1.6140	15.1290
 1.6150	15.1710
 1.6160	15.2130
 1.6170	15.2520
 1.6180	15.2920
 1.6190	15.3320
 1.6200	15.3700
 1.6210	15.4090
 1.6220	15.4450
 1.6230	15.4800
 1.6240	15.5160
 1.6250	15.5500
 1.6260	15.5840
 1.6270	15.6190
 1.6280	15.6520
 1.6290	15.6840
 1.6300	15.7150
 1.6310	15.7460
 1.6320	15.7770
 1.6330	15.8060
 1.6340	15.8350
 1.6350	15.8630
 1.6360	15.8900
 1.6370	15.9150
 1.6380	15.9400
 1.6390	15.9620
 1.6400	15.9830
 1.6410	16.0010
 1.6420	16.0180
 1.6430	16.0330
 1.6440	16.0450
 1.6450	16.0560
 1.6460	16.0670
 1.6470	16.0750
 1.6480	16.0800
 1.6490	16.0840
 1.6500	16.0860
 1.6510	16.0850
 1.6520	16.0830
 1.6530	16.0790
 1.6540	16.0700
 1.6550	16.0600
 1.6560	16.0480
 1.6570	16.0350
 1.6580	16.0220
 1.6590	16.0090
 1.6600	15.9950
 1.6610	15.9800
 1.6620	15.9650
 1.6630	15.9510
 1.6640	15.9380
 1.6650	15.9250
 1.6660	15.9130
 1.6670	15.9010
 1.6680	15.8890
 1.6690	15.8770
 1.6700	15.8660
 1.6710	15.8540
 1.6720	15.8420
 1.6730	15.8290
 1.6740	15.8150
 1.6750	15.7970
 1.6760	15.7780
 1.6770	15.7560
 1.6780	15.7320
 1.6790	15.7070
 1.6800	15.6800
 1.6810	15.6480
 1.6820	15.6160
 1.6830	15.5810
 1.6840	15.5430
 1.6850	15.5030
 1.6860	15.4600
 1.6870	15.4160
 1.6880	15.3690
 1.6890	15.3200
 1.6900	15.2700
 1.6910	15.2160
 1.6920	15.1620
 1.6930	15.1070
 1.6940	15.0520
 1.6950	14.9970
 1.6960	14.9430
 1.6970	14.8880
 1.6980	14.8330
 1.6990	14.7790
 1.7000	14.7250
 1.7010	14.6700
 1.7020	14.6170
 1.7030	14.5630
 1.7040	14.5090
 1.7050	14.4560
 1.7060	14.4010
 1.7070	14.3440
 1.7080	14.2910
 1.7090	14.2390
 1.7100	14.1890
 1.7110	14.1420
 1.7120	14.0940
 1.7130	14.0490
 1.7140	14.0060
 1.7150	13.9670
 1.7160	13.9310
 1.7170	13.8970
 1.7180	13.8650
 1.7190	13.8370
 1.7200	13.8100
 1.7210	13.7840
 1.7220	13.7600
 1.7230	13.7370
 1.7240	13.7150
 1.7250	13.6940
 1.7260	13.6770
 1.7270	13.6630
 1.7280	13.6500
 1.7290	13.6380
 1.7300	13.6260
 1.7310	13.6140
 1.7320	13.6050
 1.7330	13.5930
 1.7340	13.5820
 1.7350	13.5680
 1.7360	13.5500
 1.7370	13.5300
 1.7380	13.5070
 1.7390	13.4820
 1.7400	13.4540
 1.7410	13.4240
 1.7420	13.3910
 1.7430	13.3580
 1.7440	13.3230
 1.7450	13.2860
 1.7460	13.2470
 1.7470	13.2070
 1.7480	13.1630
 1.7490	13.1220
 1.7500	13.0800
 1.7510	13.0400
 1.7520	13.0020
 1.7530	12.9640
 1.7540	12.9270
 1.7550	12.8920
 1.7560	12.8570
 1.7570	12.8260
 1.7580	12.7960
 1.7590	12.7660
 1.7600	12.7380
 1.7610	12.7120
 1.7620	12.6880
 1.7630	12.6690
 1.7640	12.6490
 1.7650	12.6290
 1.7660	12.6100
 1.7670	12.5930
 1.7680	12.5760
 1.7690	12.5580
 1.7700	12.5420
 1.7710	12.5250
 1.7720	12.5100
 1.7730	12.4950
 1.7740	12.4810
 1.7750	12.4680
 1.7760	12.4550
 1.7770	12.4410
 1.7780	12.4300
 1.7790	12.4190
 1.7800	12.4090
 1.7810	12.4010
 1.7820	12.3950
 1.7830	12.3890
 1.7840	12.3850
 1.7850	12.3840
 1.7860	12.3820
 1.7870	12.3800
 1.7880	12.3800
 1.7890	12.3830
 1.7900	12.3870
 1.7910	12.3920
 1.7920	12.3970
 1.7930	12.4010
 1.7940	12.4050
 1.7950	12.4100
 1.7960	12.4160
 1.7970	12.4220
 1.7980	12.4300
 1.7990	12.4370
 1.8000	12.4430
 1.8010	12.4510
 1.8020	12.4610
 1.8030	12.4700
 1.8040	12.4790
 1.8050	12.4880
 1.8060	12.4970
 1.8070	12.5050
 1.8080	12.5130
 1.8090	12.5200
 1.8100	12.5260
 1.8110	12.5320
 1.8120	12.5370
 1.8130	12.5430
 1.8140	12.5490
 1.8150	12.5560
 1.8160	12.5630
 1.8170	12.5670
 1.8180	12.5710
 1.8190	12.5740
 1.8200	12.5750
 1.8210	12.5740
 1.8220	12.5750
 1.8230	12.5750
 1.8240	12.5750
 1.8250	12.5750
 1.8260	12.5730
 1.8270	12.5290
 1.8280	12.4850
 1.8290	12.4400
 1.8300	12.3960
 1.8310	12.3510
 1.8320	12.3070
 1.8330	12.2630
 1.8340	12.2180
 1.8350	12.2180
 1.8360	12.1950
 1.8370	12.1720
 1.8380	12.1500
 1.8390	12.1220
 1.8400	12.0910
 1.8410	12.0570
 1.8420	12.0220
 1.8430	11.9760
 1.8440	11.9270
 1.8450	11.8760
 1.8460	11.8170
 1.8470	11.7560
 1.8480	11.6910
 1.8490	11.6180
 1.8500	11.5380
 1.8510	11.4520
 1.8520	11.3590
 1.8530	11.2610
 1.8540	11.1570
 1.8550	11.0450
 1.8560	10.9240
 1.8570	10.7940
 1.8580	10.6550
 1.8590	10.5120
 1.8600	10.3620
 1.8610	10.2040
 1.8620	10.0390
 1.8630	 9.8680
 1.8640	 9.6870
 1.8650	 9.4940
 1.8660	 9.2920
 1.8670	 9.0800
 1.8680	 8.8610
 1.8690	 8.6340
 1.8700	 8.4010
 1.8710	 8.1610
 1.8720	 7.9180
 1.8730	 7.6660
 1.8740	 7.4130
 1.8750	 7.1580
 1.8760	 6.8960
 1.8770	 6.6390
 1.8780	 6.3860
 1.8790	 6.1300
 1.8800	 5.8810
 1.8810	 5.6380
 1.8820	 5.3960
 1.8830	 5.1550
 1.8840	 4.9200
 1.8850	 4.6890
 1.8860	 4.4620
 1.8870	 4.2450
 1.8880	 4.0380
 1.8890	 3.8400
 1.8900	 3.6530
 1.8910	 3.4760
 1.8920	 3.3070
 1.8930	 3.1490
 1.8940	 2.9990
 1.8950	 2.8600
 1.8960	 2.7320
 1.8970	 2.6130
 1.8980	 2.5050
 1.8990	 2.4070
 1.9000	 2.3160
 1.9010	 2.2330
 1.9020	 2.1570
 1.9030	 2.0880
 1.9040	 2.0260
 1.9050	 1.9710
 1.9060	 1.9210
 1.9070	 1.8760
 1.9080	 1.8360
 1.9090	 1.8000
 1.9100	 1.7700
 1.9110	 1.7420
 1.9120	 1.7190
 1.9130	 1.6970
 1.9140	 1.6790
 1.9150	 1.6600
 1.9160	 1.6440
 1.9170	 1.6330
 1.9180	 1.6210
 1.9190	 1.6100
 1.9200	 1.6020
 1.9210	 1.5950
 1.9220	 1.5890
 1.9230	 1.5850
 1.9240	 1.5820
 1.9250	 1.5820
 1.9260	 1.5800
 1.9270	 1.5780
 1.9280	 1.5790
 1.9290	 1.5800
 1.9300	 1.5820
 1.9310	 1.5860
 1.9320	 1.5900
 1.9330	 1.5950
 1.9340	 1.6010
 1.9350	 1.6070
 1.9360	 1.6120
 1.9370	 1.6200
 1.9380	 1.6280
 1.9390	 1.6380
 1.9400	 1.6500
 1.9410	 1.6620
 1.9420	 1.6740
 1.9430	 1.6840
 1.9440	 1.6960
 1.9450	 1.7100
 1.9460	 1.7230
 1.9470	 1.7370
 1.9480	 1.7510
 1.9490	 1.7660
 1.9500	 1.7790
 1.9510	 1.7920
 1.9520	 1.8080
 1.9530	 1.8240
 1.9540	 1.8400
 1.9550	 1.8570
 1.9560	 1.8750
 1.9570	 1.8920
 1.9580	 1.9090
 1.9590	 1.9270
 1.9600	 1.9450
 1.9610	 1.9640
 1.9620	 1.9850
 1.9630	 2.0070
 1.9640	 2.0300
 1.9650	 2.0520
 1.9660	 2.0720
 1.9670	 2.0920
 1.9680	 2.1130
 1.9690	 2.1350
 1.9700	 2.1570
 1.9710	 2.1810
 1.9720	 2.2030
 1.9730	 2.2220
 1.9740	 2.2430
 1.9750	 2.2670
 1.9760	 2.2910
 1.9770	 2.3160
 1.9780	 2.3440
 1.9790	 2.3700
 1.9800	 2.3960
 1.9810	 2.4220
 1.9820	 2.4490
 1.9830	 2.4750
 1.9840	 2.5030
 1.9850	 2.5300
 1.9860	 2.5560
 1.9870	 2.5830
 1.9880	 2.6120
 1.9890	 2.6390
 1.9900	 2.6680
 1.9910	 2.6980
 1.9920	 2.7260
 1.9930	 2.7530
 1.9940	 2.7820
 1.9950	 2.8110
 1.9960	 2.8400
 1.9970	 2.8690
 1.9980	 2.8970
 1.9990	 2.9250
 2.0000	 2.9510
 2.0010	 2.9780
 2.0020	 3.0060
 2.0030	 3.0350
 2.0040	 3.0650
 2.0050	 3.0940
 2.0060	 3.1240
 2.0070	 3.1530
 2.0080	 3.1820
 2.0090	 3.2100
 2.0100	 3.2380
 2.0110	 3.2660
 2.0120	 3.2950
 2.0130	 3.3220
 2.0140	 3.3490
 2.0150	 3.3760
 2.0160	 3.4000
 2.0170	 3.4250
 2.0180	 3.4500
 2.0190	 3.4760
 2.0200	 3.5000
 2.0210	 3.5240
 2.0220	 3.5470
 2.0230	 3.5680
 2.0240	 3.5900
 2.0250	 3.6120
 2.0260	 3.6340
 2.0270	 3.6590
 2.0280	 3.6800
 2.0290	 3.7010
 2.0300	 3.7220
 2.0310	 3.7440
 2.0320	 3.7650
 2.0330	 3.7870
 2.0340	 3.8100
 2.0350	 3.8300
 2.0360	 3.8490
 2.0370	 3.8660
 2.0380	 3.8800
 2.0390	 3.8960
 2.0400	 3.9110
 2.0410	 3.9260
 2.0420	 3.9420
 2.0430	 3.9590
 2.0440	 3.9750
 2.0450	 3.9900
 2.0460	 4.0060
 2.0470	 4.0230
 2.0480	 4.0380
 2.0490	 4.0530
 2.0500	 4.0680
 2.0510	 4.0810
 2.0520	 4.0960
 2.0530	 4.1120
 2.0540	 4.1270
 2.0550	 4.1420
 2.0560	 4.1580
 2.0570	 4.1720
 2.0580	 4.1850
 2.0590	 4.2000
 2.0600	 4.2180
 2.0610	 4.2340
 2.0620	 4.2520
 2.0630	 4.2680
 2.0640	 4.2820
 2.0650	 4.2970
 2.0660	 4.3120
 2.0670	 4.3270
 2.0680	 4.3440
 2.0690	 4.3600
 2.0700	 4.3760
 2.0710	 4.3920
 2.0720	 4.4070
 2.0730	 4.4210
 2.0740	 4.4370
 2.0750	 4.4530
 2.0760	 4.4700
 2.0770	 4.4890
 2.0780	 4.5060
 2.0790	 4.5240
 2.0800	 4.5410
 2.0810	 4.5570
 2.0820	 4.5710
 2.0830	 4.5830
 2.0840	 4.5970
 2.0850	 4.6110
 2.0860	 4.6260
 2.0870	 4.6400
 2.0880	 4.6570
 2.0890	 4.6720
 2.0900	 4.6860
 2.0910	 4.7020
 2.0920	 4.7180
 2.0930	 4.7340
 2.0940	 4.7500
 2.0950	 4.7650
 2.0960	 4.7780
 2.0970	 4.7920
 2.0980	 4.8040
 2.0990	 4.8200
 2.1000	 4.8390
 2.1010	 4.8560
 2.1020	 4.8740
 2.1030	 4.8920
 2.1040	 4.9080
 2.1050	 4.9240
 2.1060	 4.9400
 2.1070	 4.9560
 2.1080	 4.9700
 2.1090	 4.9830
 2.1100	 4.9980
 2.1110	 5.0150
 2.1120	 5.0310
 2.1130	 5.0460
 2.1140	 5.0620
 2.1150	 5.0760
 2.1160	 5.0910
 2.1170	 5.1060
 2.1180	 5.1210
 2.1190	 5.1370
 2.1200	 5.1510
 2.1210	 5.1640
 2.1220	 5.1760
 2.1230	 5.1880
 2.1240	 5.1990
 2.1250	 5.2110
 2.1260	 5.2240
 2.1270	 5.2370
 2.1280	 5.2490
 2.1290	 5.2620
 2.1300	 5.2770
 2.1310	 5.2910
 2.1320	 5.3040
 2.1330	 5.3180
 2.1340	 5.3330
 2.1350	 5.3470
 2.1360	 5.3620
 2.1370	 5.3760
 2.1380	 5.3870
 2.1390	 5.4000
 2.1400	 5.4120
 2.1410	 5.4260
 2.1420	 5.4390
 2.1430	 5.4540
 2.1440	 5.4690
 2.1450	 5.4860
 2.1460	 5.5010
 2.1470	 5.5170
 2.1480	 5.5320
 2.1490	 5.5460
 2.1500	 5.5620
 2.1510	 5.5800
 2.1520	 5.5960
 2.1530	 5.6100
 2.1540	 5.6270
 2.1550	 5.6450
 2.1560	 5.6610
 2.1570	 5.6790
 2.1580	 5.6970
 2.1590	 5.7120
 2.1600	 5.7280
 2.1610	 5.7440
 2.1620	 5.7600
 2.1630	 5.7770
 2.1640	 5.7920
 2.1650	 5.8070
 2.1660	 5.8220
 2.1670	 5.8360
 2.1680	 5.8460
 2.1690	 5.8610
 2.1700	 5.8760
 2.1710	 5.8940
 2.1720	 5.9150
 2.1730	 5.9320
 2.1740	 5.9510
 2.1750	 5.9670
 2.1760	 5.9800
 2.1770	 5.9940
 2.1780	 6.0070
 2.1790	 6.0220
 2.1800	 6.0370
 2.1810	 6.0520
 2.1820	 6.0660
 2.1830	 6.0830
 2.1840	 6.0990
 2.1850	 6.1160
 2.1860	 6.1320
 2.1870	 6.1480
 2.1880	 6.1630
 2.1890	 6.1770
 2.1900	 6.1920
 2.1910	 6.2080
 2.1920	 6.2230
 2.1930	 6.2390
 2.1940	 6.2550
 2.1950	 6.2720
 2.1960	 6.2860
 2.1970	 6.2980
 2.1980	 6.3100
 2.1990	 6.3160
 2.2000	 6.3270
 2.2010	 6.3420
 2.2020	 6.3540
 2.2030	 6.3680
 2.2040	 6.3790
 2.2050	 6.3860
 2.2060	 6.3940
 2.2070	 6.4030
 2.2080	 6.4130
 2.2090	 6.4240
 2.2100	 6.4390
 2.2110	 6.4490
 2.2120	 6.4580
 2.2130	 6.4640
 2.2140	 6.4660
 2.2150	 6.4690
 2.2160	 6.4720
 2.2170	 6.4740
 2.2180	 6.4740
 2.2190	 6.4750
 2.2200	 6.4770
 2.2210	 6.4770
 2.2220	 6.4780
 2.2230	 6.4750
 2.2240	 6.4710
 2.2250	 6.4640
 2.2260	 6.4540
 2.2270	 6.4440
 2.2280	 6.4330
 2.2290	 6.4200
 2.2300	 6.4040
 2.2310	 6.3930
 2.2320	 6.3740
 2.2330	 6.3530
 2.2340	 6.3330
 2.2350	 6.3090
 2.2360	 6.2850
 2.2370	 6.2600
 2.2380	 6.2310
 2.2390	 6.1980
 2.2400	 6.1650
 2.2410	 6.1290
 2.2420	 6.0950
 2.2430	 6.0600
 2.2440	 6.0230
 2.2450	 5.9860
 2.2460	 5.9460
 2.2470	 5.9020
 2.2480	 5.8610
 2.2490	 5.8200
 2.2500	 5.7780
 2.2510	 5.7400
 2.2520	 5.6980
 2.2530	 5.6520
 2.2540	 5.6070
 2.2550	 5.5590
 2.2560	 5.5160
 2.2570	 5.4740
 2.2580	 5.4340
 2.2590	 5.3960
 2.2600	 5.3580
 2.2610	 5.3210
 2.2620	 5.2820
 2.2630	 5.2420
 2.2640	 5.2020
 2.2650	 5.1570
 2.2660	 5.1140
 2.2670	 5.0750
 2.2680	 5.0370
 2.2690	 5.0030
 2.2700	 4.9750
 2.2710	 4.9450
 2.2720	 4.9150
 2.2730	 4.8870
 2.2740	 4.8600
 2.2750	 4.8320
 2.2760	 4.8060
 2.2770	 4.7780
 2.2780	 4.7480
 2.2790	 4.7210
 2.2800	 4.6910
 2.2810	 4.6670
 2.2820	 4.6490
 2.2830	 4.6260
 2.2840	 4.6080
 2.2850	 4.5820
 2.2860	 4.5460
 2.2870	 4.5150
 2.2880	 4.4810
 2.2890	 4.4490
 2.2900	 4.4230
 2.2910	 4.3940
 2.2920	 4.3610
 2.2930	 4.3320
 2.2940	 4.3030
 2.2950	 4.2760
 2.2960	 4.2530
 2.2970	 4.2280
 2.2980	 4.2020
 2.2990	 4.1760
 2.3000	 4.1500
 2.3010	 4.1270
 2.3020	 4.1040
 2.3030	 4.0810
 2.3040	 4.0600
 2.3050	 4.0410
 2.3060	 4.0250
 2.3070	 4.0140
 2.3080	 4.0050
 2.3090	 3.9960
 2.3100	 3.9900
 2.3110	 3.9870
 2.3120	 3.9830
 2.3130	 3.9820
 2.3140	 3.9810
 2.3150	 3.9810
 2.3160	 3.9790
 2.3170	 3.9770
 2.3180	 3.9750
 2.3190	 3.9730
 2.3200	 3.9690
 2.3210	 3.9670
 2.3220	 3.9620
 2.3230	 3.9550
 2.3240	 3.9450
 2.3250	 3.9360
 2.3260	 3.9230
 2.3270	 3.9000
 2.3280	 3.8850
 2.3290	 3.8720
 2.3300	 3.8570
 2.3310	 3.8440
 2.3320	 3.8280
 2.3330	 3.8050
 2.3340	 3.7890
 2.3350	 3.7760
 2.3360	 3.7610
 2.3370	 3.7510
 2.3380	 3.7340
 2.3390	 3.7120
 2.3400	 3.6930
 2.3410	 3.6700
 2.3420	 3.6530
 2.3430	 3.6440
 2.3440	 3.6300
 2.3450	 3.6180
 2.3460	 3.6040
 2.3470	 3.5810
 2.3480	 3.5680
 2.3490	 3.5610
 2.3500	 3.5520
 2.3510	 3.5510
 2.3520	 3.5440
 2.3530	 3.5310
 2.3540	 3.5180
 2.3550	 3.5090
 2.3560	 3.5020
 2.3570	 3.4930
 2.3580	 3.4860
 2.3590	 3.4780
 2.3600	 3.4640
 2.3610	 3.4550
 2.3620	 3.4470
 2.3630	 3.4360
 2.3640	 3.4280
 2.3650	 3.4220
 2.3660	 3.4100
 2.3670	 3.3940
 2.3680	 3.3810
 2.3690	 3.3600
 2.3700	 3.3430
 2.3710	 3.3250
 2.3720	 3.3070
 2.3730	 3.3020
 2.3740	 3.2940
 2.3750	 3.2870
 2.3760	 3.2800
 2.3770	 3.2610
 2.3780	 3.2490
 2.3790	 3.2330
 2.3800	 3.2090
 2.3810	 3.1910
 2.3820	 3.1710
 2.3830	 3.1490
 2.3840	 3.1470
 2.3850	 3.1410
 2.3860	 3.1230
 2.3870	 3.1140
 2.3880	 3.1050
 2.3890	 3.0930
 2.3900	 3.0780
 2.3910	 3.0630
 2.3920	 3.0430
 2.3930	 3.0140
 2.3940	 2.9960
 2.3950	 2.9820
 2.3960	 2.9590
 2.3970	 2.9390
 2.3980	 2.9170
 2.3990	 2.8970
 2.4000	 2.8830
 2.4010	 2.8700
 2.4020	 2.8630
 2.4030	 2.8530
 2.4040	 2.8410
 2.4050	 2.8340
 2.4060	 2.8250
 2.4070	 2.8100
 2.4080	 2.7910
 2.4090	 2.7660
 2.4100	 2.7370
 2.4110	 2.7200
 2.4120	 2.7090
 2.4130	 2.6970
 2.4140	 2.6910
 2.4150	 2.6750
 2.4160	 2.6500
 2.4170	 2.6300
 2.4180	 2.6160
 2.4190	 2.6010
 2.4200	 2.5870
 2.4210	 2.5750
 2.4220	 2.5620
 2.4230	 2.5480
 2.4240	 2.5260
 2.4250	 2.5070
 2.4260	 2.4960
 2.4270	 2.4740
 2.4280	 2.4600
 2.4290	 2.4540
 2.4300	 2.4270
 2.4310	 2.4040
 2.4320	 2.3980
 2.4330	 2.3770
 2.4340	 2.3560
 2.4350	 2.3520
 2.4360	 2.3420
 2.4370	 2.3360
 2.4380	 2.3360
 2.4390	 2.3090
 2.4400	 2.2810
 2.4410	 2.2560
 2.4420	 2.2320
 2.4430	 2.2160
 2.4440	 2.2040
 2.4450	 2.1850
 2.4460	 2.1540
 2.4470	 2.1440
 2.4480	 2.1340
 2.4490	 2.1190
 2.4500	 2.1050
 2.4510	 2.0730
 2.4520	 2.0470
 2.4530	 2.0290
 2.4540	 2.0260
 2.4550	 2.0270
 2.4560	 2.0180
 2.4570	 2.0110
 2.4580	 1.9930
 2.4590	 1.9720
 2.4600	 1.9490
 2.4610	 1.9110
 2.4620	 1.8840
 2.4630	 1.8600
 2.4640	 1.8350
 2.4650	 1.8270
 2.4660	 1.8190
 2.4670	 1.8260
 2.4680	 1.8430
 2.4690	 1.8290
 2.4700	 1.8220
 2.4710	 1.7970
 2.4720	 1.7870
 2.4730	 1.8180
 2.4740	 1.8210
 2.4750	 1.7990
 2.4760	 1.7930
 2.4770	 1.7740
 2.4780	 1.7600
 2.4790	 1.7670
 2.4800	 1.7590
 2.4810	 1.7390
 2.4820	 1.7350
 2.4830	 1.7280
 2.4840	 1.7190
 2.4850	 1.7250
 2.4860	 1.7290
 2.4870	 1.7220
 2.4880	 1.7290
 2.4890	 1.7360
 2.4900	 1.7210
 2.4910	 1.7230
 2.4920	 1.7250
 2.4930	 1.7390
 2.4940	 1.7650
 2.4950	 1.7500
 2.4960	 1.7250
 2.4970	 1.6680
 2.4980	 1.5630
 2.4990	 1.5180
 2.5000	 1.5340
