Name: Puya venusta
Type: vegetation
Class: Shrub
Genus: Puya
Species: venusta
Sample No.: JPL080
Owner: JPL
Wavelength Range: VSWIR
Origin: 34.12562; - 118.1098; WGS84
Collection Date: 2/2/2016
Description: Samples were collected at the Huntington Garden in San Marino California as part of a JPL Subcontract studying HyTES imagery. Samples were taken to JPL and processed within 48 hours of collection. The same leaves were processed in the Nicolet and then measured using the ASD.
Measurement: Bidirectional reflectance
First Column: X
Second Column: Y
X Units: Wavelength (micrometer)
Y Units: Reflectance (percentage)
First X Value: 0.35
Last X Value: 2.5
Number of X Values: 2151
Additional Information: 

 0.3500	 7.3970
 0.3510	 5.8390
 0.3520	 5.8190
 0.3530	 6.5430
 0.3540	 6.9110
 0.3550	 6.8710
 0.3560	 7.4420
 0.3570	 7.8140
 0.3580	 6.6410
 0.3590	 6.5760
 0.3600	 7.2710
 0.3610	 7.9170
 0.3620	 7.3940
 0.3630	 7.2450
 0.3640	 7.5330
 0.3650	 7.8480
 0.3660	 7.5780
 0.3670	 7.7730
 0.3680	 8.0750
 0.3690	 7.3480
 0.3700	 7.2340
 0.3710	 7.7480
 0.3720	 8.5070
 0.3730	 8.9340
 0.3740	 8.9160
 0.3750	 8.6620
 0.3760	 8.4690
 0.3770	 8.4000
 0.3780	 8.4070
 0.3790	 8.4460
 0.3800	 8.4810
 0.3810	 8.3450
 0.3820	 8.0370
 0.3830	 7.8010
 0.3840	 8.3520
 0.3850	 8.9080
 0.3860	 9.0830
 0.3870	 8.8400
 0.3880	 9.2190
 0.3890	 9.1210
 0.3900	 8.4650
 0.3910	 8.3160
 0.3920	 8.8330
 0.3930	 9.2350
 0.3940	 9.0960
 0.3950	 9.3820
 0.3960	 9.5130
 0.3970	 9.3590
 0.3980	 9.0800
 0.3990	 9.2240
 0.4000	 9.5080
 0.4010	 9.6930
 0.4020	 9.7110
 0.4030	 9.7600
 0.4040	 9.8040
 0.4050	 9.8020
 0.4060	 9.8550
 0.4070	10.0960
 0.4080	10.4300
 0.4090	10.6220
 0.4100	10.5150
 0.4110	10.5770
 0.4120	10.9040
 0.4130	10.7680
 0.4140	10.9040
 0.4150	11.2260
 0.4160	11.4100
 0.4170	11.3390
 0.4180	11.4110
 0.4190	11.6580
 0.4200	11.7690
 0.4210	11.8600
 0.4220	12.0620
 0.4230	12.3580
 0.4240	12.3480
 0.4250	12.3120
 0.4260	12.4170
 0.4270	12.7160
 0.4280	12.8940
 0.4290	12.9310
 0.4300	12.9570
 0.4310	13.2490
 0.4320	13.5080
 0.4330	13.6310
 0.4340	13.6260
 0.4350	13.6600
 0.4360	13.7940
 0.4370	13.9370
 0.4380	13.9120
 0.4390	13.9580
 0.4400	14.0270
 0.4410	14.0750
 0.4420	14.1820
 0.4430	14.2130
 0.4440	14.1770
 0.4450	14.1630
 0.4460	14.3790
 0.4470	14.5050
 0.4480	14.4680
 0.4490	14.5200
 0.4500	14.6250
 0.4510	14.7390
 0.4520	14.8170
 0.4530	14.8300
 0.4540	14.7740
 0.4550	14.7370
 0.4560	14.8460
 0.4570	14.9650
 0.4580	15.0220
 0.4590	15.0020
 0.4600	14.9720
 0.4610	15.0190
 0.4620	15.0440
 0.4630	14.9490
 0.4640	15.0290
 0.4650	15.1230
 0.4660	15.1430
 0.4670	15.1030
 0.4680	15.1270
 0.4690	15.1770
 0.4700	15.1930
 0.4710	15.1530
 0.4720	15.1670
 0.4730	15.2150
 0.4740	15.2160
 0.4750	15.1910
 0.4760	15.2160
 0.4770	15.3070
 0.4780	15.3880
 0.4790	15.3460
 0.4800	15.2680
 0.4810	15.2740
 0.4820	15.2800
 0.4830	15.3520
 0.4840	15.4580
 0.4850	15.4890
 0.4860	15.5170
 0.4870	15.5270
 0.4880	15.5040
 0.4890	15.4730
 0.4900	15.4840
 0.4910	15.5140
 0.4920	15.5130
 0.4930	15.5540
 0.4940	15.6060
 0.4950	15.6410
 0.4960	15.6430
 0.4970	15.6710
 0.4980	15.7350
 0.4990	15.8160
 0.5000	15.8360
 0.5010	15.9190
 0.5020	16.0350
 0.5030	16.0410
 0.5040	16.0970
 0.5050	16.1710
 0.5060	16.2390
 0.5070	16.3780
 0.5080	16.5000
 0.5090	16.6010
 0.5100	16.7120
 0.5110	16.8640
 0.5120	17.0230
 0.5130	17.1660
 0.5140	17.2850
 0.5150	17.4500
 0.5160	17.6400
 0.5170	17.8110
 0.5180	17.9360
 0.5190	18.1000
 0.5200	18.3000
 0.5210	18.4650
 0.5220	18.6620
 0.5230	18.8460
 0.5240	18.9910
 0.5250	19.1470
 0.5260	19.3110
 0.5270	19.4660
 0.5280	19.6030
 0.5290	19.7580
 0.5300	19.8850
 0.5310	19.9750
 0.5320	20.0680
 0.5330	20.1720
 0.5340	20.2630
 0.5350	20.3270
 0.5360	20.4120
 0.5370	20.5030
 0.5380	20.5770
 0.5390	20.6110
 0.5400	20.7120
 0.5410	20.8670
 0.5420	21.0300
 0.5430	21.1390
 0.5440	21.1870
 0.5450	21.1820
 0.5460	21.1350
 0.5470	21.0350
 0.5480	20.9630
 0.5490	20.9450
 0.5500	20.9280
 0.5510	20.9050
 0.5520	20.8850
 0.5530	20.8760
 0.5540	20.8590
 0.5550	20.8220
 0.5560	20.7650
 0.5570	20.7010
 0.5580	20.6480
 0.5590	20.5990
 0.5600	20.5460
 0.5610	20.4850
 0.5620	20.4220
 0.5630	20.3500
 0.5640	20.2590
 0.5650	20.1810
 0.5660	20.1000
 0.5670	20.0120
 0.5680	19.9280
 0.5690	19.8260
 0.5700	19.7220
 0.5710	19.6310
 0.5720	19.5380
 0.5730	19.4410
 0.5740	19.3430
 0.5750	19.2470
 0.5760	19.1820
 0.5770	19.1260
 0.5780	19.0610
 0.5790	18.9960
 0.5800	18.9290
 0.5810	18.8720
 0.5820	18.8400
 0.5830	18.8030
 0.5840	18.7580
 0.5850	18.7120
 0.5860	18.6770
 0.5870	18.6650
 0.5880	18.6360
 0.5890	18.5680
 0.5900	18.5210
 0.5910	18.4910
 0.5920	18.4650
 0.5930	18.4280
 0.5940	18.3920
 0.5950	18.3740
 0.5960	18.3640
 0.5970	18.3050
 0.5980	18.2790
 0.5990	18.2740
 0.6000	18.2550
 0.6010	18.2360
 0.6020	18.1940
 0.6030	18.1390
 0.6040	18.1080
 0.6050	18.0850
 0.6060	18.0550
 0.6070	18.0110
 0.6080	17.9460
 0.6090	17.9060
 0.6100	17.9210
 0.6110	17.9860
 0.6120	17.9450
 0.6130	17.8260
 0.6140	17.6820
 0.6150	17.5740
 0.6160	17.5060
 0.6170	17.4440
 0.6180	17.3650
 0.6190	17.3460
 0.6200	17.3130
 0.6210	17.2550
 0.6220	17.2150
 0.6230	17.2080
 0.6240	17.1900
 0.6250	17.1380
 0.6260	17.0950
 0.6270	17.0780
 0.6280	17.0890
 0.6290	17.1120
 0.6300	17.0740
 0.6310	17.0610
 0.6320	17.0800
 0.6330	17.0440
 0.6340	17.0150
 0.6350	16.9930
 0.6360	16.9630
 0.6370	16.9180
 0.6380	16.8650
 0.6390	16.8140
 0.6400	16.7750
 0.6410	16.7280
 0.6420	16.6580
 0.6430	16.5750
 0.6440	16.5290
 0.6450	16.4890
 0.6460	16.4310
 0.6470	16.3510
 0.6480	16.3050
 0.6490	16.2690
 0.6500	16.2290
 0.6510	16.1820
 0.6520	16.1510
 0.6530	16.1280
 0.6540	16.0940
 0.6550	16.0130
 0.6560	15.9890
 0.6570	15.9840
 0.6580	15.9220
 0.6590	15.8730
 0.6600	15.8150
 0.6610	15.7430
 0.6620	15.6730
 0.6630	15.6100
 0.6640	15.5520
 0.6650	15.4960
 0.6660	15.4430
 0.6670	15.3990
 0.6680	15.3570
 0.6690	15.3100
 0.6700	15.2930
 0.6710	15.2770
 0.6720	15.2540
 0.6730	15.2580
 0.6740	15.2480
 0.6750	15.2350
 0.6760	15.2420
 0.6770	15.2660
 0.6780	15.2880
 0.6790	15.3130
 0.6800	15.3620
 0.6810	15.4230
 0.6820	15.4880
 0.6830	15.5550
 0.6840	15.6320
 0.6850	15.7330
 0.6860	15.8610
 0.6870	16.0160
 0.6880	16.1950
 0.6890	16.4000
 0.6900	16.6300
 0.6910	16.8900
 0.6920	17.2070
 0.6930	17.5420
 0.6940	17.8800
 0.6950	18.2770
 0.6960	18.6980
 0.6970	19.1420
 0.6980	19.6170
 0.6990	20.1120
 0.7000	20.6180
 0.7010	21.1320
 0.7020	21.6510
 0.7030	22.1900
 0.7040	22.7420
 0.7050	23.2970
 0.7060	23.8460
 0.7070	24.3930
 0.7080	24.9360
 0.7090	25.4770
 0.7100	26.0350
 0.7110	26.6130
 0.7120	27.1930
 0.7130	27.7440
 0.7140	28.3070
 0.7150	28.8740
 0.7160	29.4370
 0.7170	30.0250
 0.7180	30.6150
 0.7190	31.1890
 0.7200	31.7410
 0.7210	32.3120
 0.7220	32.8840
 0.7230	33.4410
 0.7240	33.9710
 0.7250	34.4980
 0.7260	35.0060
 0.7270	35.4840
 0.7280	35.9550
 0.7290	36.4030
 0.7300	36.8240
 0.7310	37.2180
 0.7320	37.5900
 0.7330	37.9520
 0.7340	38.3040
 0.7350	38.6330
 0.7360	38.9220
 0.7370	39.1960
 0.7380	39.4730
 0.7390	39.7350
 0.7400	39.9710
 0.7410	40.1770
 0.7420	40.3610
 0.7430	40.5570
 0.7440	40.7350
 0.7450	40.8840
 0.7460	41.0230
 0.7470	41.1490
 0.7480	41.2630
 0.7490	41.3620
 0.7500	41.4450
 0.7510	41.5270
 0.7520	41.6060
 0.7530	41.6740
 0.7540	41.7340
 0.7550	41.7860
 0.7560	41.8330
 0.7570	41.8780
 0.7580	41.9060
 0.7590	41.9330
 0.7600	41.9710
 0.7610	42.0210
 0.7620	42.0420
 0.7630	42.0440
 0.7640	42.0480
 0.7650	42.0680
 0.7660	42.0810
 0.7670	42.0820
 0.7680	42.0820
 0.7690	42.1030
 0.7700	42.1250
 0.7710	42.1340
 0.7720	42.1370
 0.7730	42.1470
 0.7740	42.1440
 0.7750	42.1180
 0.7760	42.1350
 0.7770	42.1450
 0.7780	42.1430
 0.7790	42.1420
 0.7800	42.1400
 0.7810	42.1420
 0.7820	42.1470
 0.7830	42.1530
 0.7840	42.1610
 0.7850	42.1660
 0.7860	42.1630
 0.7870	42.1590
 0.7880	42.1720
 0.7890	42.1780
 0.7900	42.1580
 0.7910	42.1600
 0.7920	42.1640
 0.7930	42.1640
 0.7940	42.1700
 0.7950	42.1750
 0.7960	42.1820
 0.7970	42.1830
 0.7980	42.1590
 0.7990	42.1290
 0.8000	42.1220
 0.8010	42.1460
 0.8020	42.1510
 0.8030	42.1560
 0.8040	42.1430
 0.8050	42.0990
 0.8060	42.1030
 0.8070	42.1090
 0.8080	42.1070
 0.8090	42.1120
 0.8100	42.0960
 0.8110	42.0760
 0.8120	42.0610
 0.8130	42.0410
 0.8140	42.0440
 0.8150	42.0440
 0.8160	42.0190
 0.8170	42.0120
 0.8180	41.9770
 0.8190	41.9390
 0.8200	41.9420
 0.8210	41.9380
 0.8220	41.9390
 0.8230	41.9260
 0.8240	41.8590
 0.8250	41.8360
 0.8260	41.8310
 0.8270	41.8110
 0.8280	41.7560
 0.8290	41.7100
 0.8300	41.6890
 0.8310	41.6840
 0.8320	41.6430
 0.8330	41.6300
 0.8340	41.6190
 0.8350	41.5620
 0.8360	41.5500
 0.8370	41.5420
 0.8380	41.5290
 0.8390	41.5280
 0.8400	41.5080
 0.8410	41.4820
 0.8420	41.4660
 0.8430	41.4680
 0.8440	41.4750
 0.8450	41.4710
 0.8460	41.4590
 0.8470	41.4680
 0.8480	41.4730
 0.8490	41.4680
 0.8500	41.4580
 0.8510	41.4590
 0.8520	41.4670
 0.8530	41.4700
 0.8540	41.4580
 0.8550	41.4430
 0.8560	41.4310
 0.8570	41.4330
 0.8580	41.4580
 0.8590	41.4310
 0.8600	41.4340
 0.8610	41.4870
 0.8620	41.4750
 0.8630	41.4580
 0.8640	41.4470
 0.8650	41.4430
 0.8660	41.4580
 0.8670	41.4770
 0.8680	41.4840
 0.8690	41.4720
 0.8700	41.4730
 0.8710	41.4460
 0.8720	41.4240
 0.8730	41.4600
 0.8740	41.4520
 0.8750	41.4400
 0.8760	41.4370
 0.8770	41.4230
 0.8780	41.4220
 0.8790	41.4330
 0.8800	41.4410
 0.8810	41.4210
 0.8820	41.4300
 0.8830	41.4190
 0.8840	41.3730
 0.8850	41.3930
 0.8860	41.3780
 0.8870	41.3500
 0.8880	41.3500
 0.8890	41.3550
 0.8900	41.3670
 0.8910	41.3580
 0.8920	41.3080
 0.8930	41.2760
 0.8940	41.2950
 0.8950	41.3270
 0.8960	41.3080
 0.8970	41.3230
 0.8980	41.3180
 0.8990	41.2700
 0.9000	41.2060
 0.9010	41.2330
 0.9020	41.2390
 0.9030	41.1930
 0.9040	41.2080
 0.9050	41.1960
 0.9060	41.1710
 0.9070	41.1520
 0.9080	41.1420
 0.9090	41.0790
 0.9100	41.0460
 0.9110	41.0910
 0.9120	41.0680
 0.9130	41.0490
 0.9140	41.0100
 0.9150	40.9260
 0.9160	40.8810
 0.9170	40.8680
 0.9180	40.8550
 0.9190	40.8170
 0.9200	40.8080
 0.9210	40.7490
 0.9220	40.6620
 0.9230	40.6100
 0.9240	40.4980
 0.9250	40.4000
 0.9260	40.3190
 0.9270	40.2040
 0.9280	40.0850
 0.9290	39.9810
 0.9300	39.8930
 0.9310	39.8140
 0.9320	39.7340
 0.9330	39.6090
 0.9340	39.4420
 0.9350	39.2910
 0.9360	39.1140
 0.9370	38.9620
 0.9380	38.8520
 0.9390	38.7370
 0.9400	38.5980
 0.9410	38.4360
 0.9420	38.2770
 0.9430	38.1800
 0.9440	38.0260
 0.9450	37.8220
 0.9460	37.5970
 0.9470	37.3520
 0.9480	37.1870
 0.9490	37.0020
 0.9500	36.7140
 0.9510	36.4100
 0.9520	36.1770
 0.9530	35.9710
 0.9540	35.7250
 0.9550	35.4570
 0.9560	35.1490
 0.9570	34.9010
 0.9580	34.7890
 0.9590	34.7100
 0.9600	34.5450
 0.9610	34.3730
 0.9620	34.2820
 0.9630	34.1010
 0.9640	33.9830
 0.9650	33.9280
 0.9660	33.8850
 0.9670	33.9030
 0.9680	33.8660
 0.9690	33.8210
 0.9700	33.8420
 0.9710	33.7770
 0.9720	33.6960
 0.9730	33.6710
 0.9740	33.7230
 0.9750	33.6410
 0.9760	33.6430
 0.9770	33.6760
 0.9780	33.6150
 0.9790	33.7010
 0.9800	33.7180
 0.9810	33.6950
 0.9820	33.7520
 0.9830	33.8000
 0.9840	33.7660
 0.9850	33.7470
 0.9860	33.8570
 0.9870	33.8840
 0.9880	33.8830
 0.9890	33.9060
 0.9900	33.9830
 0.9910	34.0680
 0.9920	34.1900
 0.9930	34.2720
 0.9940	34.2400
 0.9950	34.2660
 0.9960	34.3530
 0.9970	34.4480
 0.9980	34.5050
 0.9990	34.6340
 1.0000	34.6430
 1.0010	35.6990
 1.0020	35.7880
 1.0030	35.9060
 1.0040	35.9820
 1.0050	36.0570
 1.0060	36.1140
 1.0070	36.1610
 1.0080	36.2250
 1.0090	36.3060
 1.0100	36.3880
 1.0110	36.4700
 1.0120	36.5560
 1.0130	36.6620
 1.0140	36.7600
 1.0150	36.8520
 1.0160	36.9420
 1.0170	37.0630
 1.0180	37.1620
 1.0190	37.2440
 1.0200	37.3260
 1.0210	37.4290
 1.0220	37.5400
 1.0230	37.6350
 1.0240	37.7600
 1.0250	37.8510
 1.0260	37.8840
 1.0270	37.9630
 1.0280	38.0670
 1.0290	38.1550
 1.0300	38.2600
 1.0310	38.3480
 1.0320	38.4110
 1.0330	38.4870
 1.0340	38.5870
 1.0350	38.6520
 1.0360	38.7400
 1.0370	38.8340
 1.0380	38.9150
 1.0390	38.9890
 1.0400	39.0590
 1.0410	39.1180
 1.0420	39.1840
 1.0430	39.2640
 1.0440	39.3140
 1.0450	39.3380
 1.0460	39.3890
 1.0470	39.4230
 1.0480	39.4760
 1.0490	39.5690
 1.0500	39.6430
 1.0510	39.7090
 1.0520	39.7840
 1.0530	39.8410
 1.0540	39.8970
 1.0550	39.9310
 1.0560	39.9420
 1.0570	39.9650
 1.0580	39.9740
 1.0590	39.9970
 1.0600	40.0360
 1.0610	40.0610
 1.0620	40.0760
 1.0630	40.1050
 1.0640	40.1370
 1.0650	40.1700
 1.0660	40.2380
 1.0670	40.2650
 1.0680	40.2720
 1.0690	40.2570
 1.0700	40.2530
 1.0710	40.2230
 1.0720	40.2170
 1.0730	40.2380
 1.0740	40.2260
 1.0750	40.1900
 1.0760	40.1780
 1.0770	40.1730
 1.0780	40.1490
 1.0790	40.1240
 1.0800	40.1050
 1.0810	40.0700
 1.0820	40.0400
 1.0830	40.0400
 1.0840	40.0150
 1.0850	39.9570
 1.0860	39.9140
 1.0870	39.8780
 1.0880	39.8390
 1.0890	39.8000
 1.0900	39.7720
 1.0910	39.7330
 1.0920	39.6900
 1.0930	39.6350
 1.0940	39.5700
 1.0950	39.5110
 1.0960	39.4350
 1.0970	39.3750
 1.0980	39.3260
 1.0990	39.2810
 1.1000	39.2600
 1.1010	39.2130
 1.1020	39.1630
 1.1030	39.1050
 1.1040	39.0200
 1.1050	38.9300
 1.1060	38.8580
 1.1070	38.7900
 1.1080	38.7260
 1.1090	38.6760
 1.1100	38.6140
 1.1110	38.5520
 1.1120	38.4810
 1.1130	38.3970
 1.1140	38.3220
 1.1150	38.2540
 1.1160	38.1720
 1.1170	38.0910
 1.1180	38.0020
 1.1190	37.9100
 1.1200	37.7940
 1.1210	37.6730
 1.1220	37.5360
 1.1230	37.3780
 1.1240	37.2160
 1.1250	37.0420
 1.1260	36.8700
 1.1270	36.6600
 1.1280	36.4310
 1.1290	36.1820
 1.1300	35.9140
 1.1310	35.6190
 1.1320	35.3020
 1.1330	34.9710
 1.1340	34.6160
 1.1350	34.2420
 1.1360	33.8510
 1.1370	33.4450
 1.1380	33.0320
 1.1390	32.6210
 1.1400	32.2190
 1.1410	31.8240
 1.1420	31.4280
 1.1430	31.0480
 1.1440	30.6710
 1.1450	30.2940
 1.1460	29.9470
 1.1470	29.6090
 1.1480	29.2920
 1.1490	28.9970
 1.1500	28.7270
 1.1510	28.4700
 1.1520	28.2400
 1.1530	28.0390
 1.1540	27.8560
 1.1550	27.6930
 1.1560	27.5470
 1.1570	27.4230
 1.1580	27.3210
 1.1590	27.2200
 1.1600	27.1340
 1.1610	27.0560
 1.1620	26.9830
 1.1630	26.9320
 1.1640	26.8840
 1.1650	26.8390
 1.1660	26.8060
 1.1670	26.7690
 1.1680	26.7310
 1.1690	26.6980
 1.1700	26.6700
 1.1710	26.6390
 1.1720	26.6050
 1.1730	26.5800
 1.1740	26.5570
 1.1750	26.5410
 1.1760	26.5270
 1.1770	26.5150
 1.1780	26.4990
 1.1790	26.4710
 1.1800	26.4350
 1.1810	26.4010
 1.1820	26.3770
 1.1830	26.3500
 1.1840	26.3410
 1.1850	26.3390
 1.1860	26.3210
 1.1870	26.3030
 1.1880	26.2780
 1.1890	26.2350
 1.1900	26.2160
 1.1910	26.2030
 1.1920	26.1930
 1.1930	26.2040
 1.1940	26.2010
 1.1950	26.1900
 1.1960	26.1850
 1.1970	26.1720
 1.1980	26.1540
 1.1990	26.1560
 1.2000	26.1570
 1.2010	26.1620
 1.2020	26.1780
 1.2030	26.1840
 1.2040	26.1820
 1.2050	26.1860
 1.2060	26.1940
 1.2070	26.2000
 1.2080	26.2200
 1.2090	26.2570
 1.2100	26.2870
 1.2110	26.3150
 1.2120	26.3480
 1.2130	26.3750
 1.2140	26.3850
 1.2150	26.4120
 1.2160	26.4480
 1.2170	26.4750
 1.2180	26.5040
 1.2190	26.5390
 1.2200	26.5670
 1.2210	26.5980
 1.2220	26.6360
 1.2230	26.6710
 1.2240	26.7030
 1.2250	26.7420
 1.2260	26.7830
 1.2270	26.8200
 1.2280	26.8530
 1.2290	26.8850
 1.2300	26.9170
 1.2310	26.9520
 1.2320	26.9910
 1.2330	27.0290
 1.2340	27.0670
 1.2350	27.1100
 1.2360	27.1400
 1.2370	27.1620
 1.2380	27.1900
 1.2390	27.2210
 1.2400	27.2590
 1.2410	27.3100
 1.2420	27.3570
 1.2430	27.3900
 1.2440	27.4110
 1.2450	27.4310
 1.2460	27.4490
 1.2470	27.4720
 1.2480	27.5030
 1.2490	27.5400
 1.2500	27.5820
 1.2510	27.6190
 1.2520	27.6470
 1.2530	27.6640
 1.2540	27.6830
 1.2550	27.7020
 1.2560	27.7150
 1.2570	27.7310
 1.2580	27.7460
 1.2590	27.7570
 1.2600	27.7650
 1.2610	27.7760
 1.2620	27.7860
 1.2630	27.7950
 1.2640	27.7990
 1.2650	27.8000
 1.2660	27.7990
 1.2670	27.7890
 1.2680	27.7860
 1.2690	27.7830
 1.2700	27.7780
 1.2710	27.7810
 1.2720	27.7690
 1.2730	27.7540
 1.2740	27.7290
 1.2750	27.6950
 1.2760	27.6670
 1.2770	27.6310
 1.2780	27.5950
 1.2790	27.5510
 1.2800	27.5000
 1.2810	27.4540
 1.2820	27.4080
 1.2830	27.3620
 1.2840	27.3180
 1.2850	27.2700
 1.2860	27.2100
 1.2870	27.1500
 1.2880	27.0870
 1.2890	27.0170
 1.2900	26.9350
 1.2910	26.8620
 1.2920	26.7760
 1.2930	26.6880
 1.2940	26.6030
 1.2950	26.4980
 1.2960	26.3950
 1.2970	26.2870
 1.2980	26.1650
 1.2990	26.0490
 1.3000	25.9340
 1.3010	25.8150
 1.3020	25.6960
 1.3030	25.5800
 1.3040	25.4540
 1.3050	25.3180
 1.3060	25.1850
 1.3070	25.0480
 1.3080	24.9060
 1.3090	24.7690
 1.3100	24.6240
 1.3110	24.4640
 1.3120	24.2990
 1.3130	24.1350
 1.3140	23.9770
 1.3150	23.8280
 1.3160	23.6710
 1.3170	23.5170
 1.3180	23.3550
 1.3190	23.1890
 1.3200	23.0190
 1.3210	22.8460
 1.3220	22.6730
 1.3230	22.4900
 1.3240	22.3040
 1.3250	22.1240
 1.3260	21.9420
 1.3270	21.7680
 1.3280	21.5980
 1.3290	21.4260
 1.3300	21.2570
 1.3310	21.0790
 1.3320	20.8990
 1.3330	20.7330
 1.3340	20.5720
 1.3350	20.4170
 1.3360	20.2700
 1.3370	20.1150
 1.3380	19.9580
 1.3390	19.8100
 1.3400	19.6640
 1.3410	19.5230
 1.3420	19.3880
 1.3430	19.2540
 1.3440	19.1190
 1.3450	18.9900
 1.3460	18.8640
 1.3470	18.7420
 1.3480	18.6230
 1.3490	18.5100
 1.3500	18.4030
 1.3510	18.2990
 1.3520	18.1980
 1.3530	18.0930
 1.3540	17.9910
 1.3550	17.8870
 1.3560	17.7830
 1.3570	17.6770
 1.3580	17.5720
 1.3590	17.4660
 1.3600	17.3540
 1.3610	17.2450
 1.3620	17.1350
 1.3630	17.0240
 1.3640	16.9120
 1.3650	16.7960
 1.3660	16.6740
 1.3670	16.5420
 1.3680	16.4080
 1.3690	16.2640
 1.3700	16.1120
 1.3710	15.9590
 1.3720	15.7960
 1.3730	15.6320
 1.3740	15.4610
 1.3750	15.2810
 1.3760	15.1010
 1.3770	14.9100
 1.3780	14.7110
 1.3790	14.5110
 1.3800	14.3000
 1.3810	14.0880
 1.3820	13.8800
 1.3830	13.6700
 1.3840	13.4660
 1.3850	13.2660
 1.3860	13.0660
 1.3870	12.8680
 1.3880	12.6750
 1.3890	12.4810
 1.3900	12.2960
 1.3910	12.1260
 1.3920	11.9600
 1.3930	11.8070
 1.3940	11.6610
 1.3950	11.5210
 1.3960	11.3910
 1.3970	11.2670
 1.3980	11.1590
 1.3990	11.0590
 1.4000	10.9610
 1.4010	10.8700
 1.4020	10.7790
 1.4030	10.6930
 1.4040	10.6180
 1.4050	10.5530
 1.4060	10.5010
 1.4070	10.4510
 1.4080	10.4020
 1.4090	10.3550
 1.4100	10.3060
 1.4110	10.2600
 1.4120	10.2190
 1.4130	10.1810
 1.4140	10.1510
 1.4150	10.1220
 1.4160	10.0930
 1.4170	10.0710
 1.4180	10.0470
 1.4190	10.0280
 1.4200	10.0120
 1.4210	 9.9920
 1.4220	 9.9750
 1.4230	 9.9560
 1.4240	 9.9400
 1.4250	 9.9230
 1.4260	 9.9040
 1.4270	 9.8880
 1.4280	 9.8730
 1.4290	 9.8600
 1.4300	 9.8510
 1.4310	 9.8430
 1.4320	 9.8350
 1.4330	 9.8300
 1.4340	 9.8280
 1.4350	 9.8240
 1.4360	 9.8210
 1.4370	 9.8190
 1.4380	 9.8140
 1.4390	 9.8090
 1.4400	 9.8040
 1.4410	 9.8000
 1.4420	 9.7980
 1.4430	 9.7910
 1.4440	 9.7820
 1.4450	 9.7770
 1.4460	 9.7660
 1.4470	 9.7640
 1.4480	 9.7700
 1.4490	 9.7700
 1.4500	 9.7720
 1.4510	 9.7710
 1.4520	 9.7640
 1.4530	 9.7580
 1.4540	 9.7560
 1.4550	 9.7620
 1.4560	 9.7660
 1.4570	 9.7680
 1.4580	 9.7740
 1.4590	 9.7700
 1.4600	 9.7660
 1.4610	 9.7640
 1.4620	 9.7620
 1.4630	 9.7660
 1.4640	 9.7770
 1.4650	 9.7900
 1.4660	 9.8040
 1.4670	 9.8160
 1.4680	 9.8210
 1.4690	 9.8250
 1.4700	 9.8260
 1.4710	 9.8280
 1.4720	 9.8370
 1.4730	 9.8450
 1.4740	 9.8550
 1.4750	 9.8640
 1.4760	 9.8720
 1.4770	 9.8850
 1.4780	 9.9000
 1.4790	 9.9180
 1.4800	 9.9350
 1.4810	 9.9460
 1.4820	 9.9590
 1.4830	 9.9660
 1.4840	 9.9720
 1.4850	 9.9820
 1.4860	 9.9910
 1.4870	10.0070
 1.4880	10.0270
 1.4890	10.0420
 1.4900	10.0600
 1.4910	10.0800
 1.4920	10.0970
 1.4930	10.1110
 1.4940	10.1270
 1.4950	10.1450
 1.4960	10.1610
 1.4970	10.1750
 1.4980	10.1920
 1.4990	10.2080
 1.5000	10.2250
 1.5010	10.2460
 1.5020	10.2630
 1.5030	10.2750
 1.5040	10.2940
 1.5050	10.3150
 1.5060	10.3370
 1.5070	10.3670
 1.5080	10.3880
 1.5090	10.4050
 1.5100	10.4210
 1.5110	10.4370
 1.5120	10.4540
 1.5130	10.4760
 1.5140	10.5010
 1.5150	10.5250
 1.5160	10.5450
 1.5170	10.5670
 1.5180	10.5890
 1.5190	10.6110
 1.5200	10.6370
 1.5210	10.6630
 1.5220	10.6850
 1.5230	10.7070
 1.5240	10.7310
 1.5250	10.7530
 1.5260	10.7800
 1.5270	10.8070
 1.5280	10.8320
 1.5290	10.8580
 1.5300	10.8830
 1.5310	10.9090
 1.5320	10.9310
 1.5330	10.9530
 1.5340	10.9740
 1.5350	10.9970
 1.5360	11.0300
 1.5370	11.0590
 1.5380	11.0860
 1.5390	11.1120
 1.5400	11.1290
 1.5410	11.1530
 1.5420	11.1780
 1.5430	11.2050
 1.5440	11.2380
 1.5450	11.2670
 1.5460	11.2980
 1.5470	11.3270
 1.5480	11.3480
 1.5490	11.3730
 1.5500	11.3950
 1.5510	11.4170
 1.5520	11.4520
 1.5530	11.4850
 1.5540	11.5150
 1.5550	11.5450
 1.5560	11.5660
 1.5570	11.5860
 1.5580	11.6110
 1.5590	11.6380
 1.5600	11.6710
 1.5610	11.7030
 1.5620	11.7360
 1.5630	11.7720
 1.5640	11.7980
 1.5650	11.8230
 1.5660	11.8460
 1.5670	11.8700
 1.5680	11.9030
 1.5690	11.9320
 1.5700	11.9560
 1.5710	11.9820
 1.5720	12.0020
 1.5730	12.0260
 1.5740	12.0570
 1.5750	12.0860
 1.5760	12.1130
 1.5770	12.1440
 1.5780	12.1760
 1.5790	12.2040
 1.5800	12.2330
 1.5810	12.2550
 1.5820	12.2780
 1.5830	12.3040
 1.5840	12.3320
 1.5850	12.3640
 1.5860	12.3930
 1.5870	12.4200
 1.5880	12.4430
 1.5890	12.4630
 1.5900	12.4850
 1.5910	12.5110
 1.5920	12.5430
 1.5930	12.5820
 1.5940	12.6190
 1.5950	12.6510
 1.5960	12.6770
 1.5970	12.6980
 1.5980	12.7230
 1.5990	12.7490
 1.6000	12.7770
 1.6010	12.8080
 1.6020	12.8400
 1.6030	12.8660
 1.6040	12.8910
 1.6050	12.9150
 1.6060	12.9350
 1.6070	12.9550
 1.6080	12.9810
 1.6090	13.0070
 1.6100	13.0330
 1.6110	13.0590
 1.6120	13.0800
 1.6130	13.1020
 1.6140	13.1270
 1.6150	13.1490
 1.6160	13.1760
 1.6170	13.2050
 1.6180	13.2320
 1.6190	13.2560
 1.6200	13.2790
 1.6210	13.2990
 1.6220	13.3160
 1.6230	13.3360
 1.6240	13.3590
 1.6250	13.3820
 1.6260	13.4080
 1.6270	13.4340
 1.6280	13.4530
 1.6290	13.4710
 1.6300	13.4830
 1.6310	13.5000
 1.6320	13.5190
 1.6330	13.5350
 1.6340	13.5510
 1.6350	13.5670
 1.6360	13.5800
 1.6370	13.5970
 1.6380	13.6140
 1.6390	13.6360
 1.6400	13.6640
 1.6410	13.6840
 1.6420	13.7050
 1.6430	13.7170
 1.6440	13.7180
 1.6450	13.7270
 1.6460	13.7400
 1.6470	13.7540
 1.6480	13.7690
 1.6490	13.7820
 1.6500	13.7970
 1.6510	13.8080
 1.6520	13.8100
 1.6530	13.8140
 1.6540	13.8150
 1.6550	13.8200
 1.6560	13.8310
 1.6570	13.8400
 1.6580	13.8520
 1.6590	13.8570
 1.6600	13.8610
 1.6610	13.8690
 1.6620	13.8660
 1.6630	13.8640
 1.6640	13.8650
 1.6650	13.8650
 1.6660	13.8690
 1.6670	13.8720
 1.6680	13.8750
 1.6690	13.8780
 1.6700	13.8730
 1.6710	13.8700
 1.6720	13.8700
 1.6730	13.8710
 1.6740	13.8730
 1.6750	13.8780
 1.6760	13.8780
 1.6770	13.8660
 1.6780	13.8620
 1.6790	13.8670
 1.6800	13.8720
 1.6810	13.8780
 1.6820	13.8790
 1.6830	13.8670
 1.6840	13.8500
 1.6850	13.8400
 1.6860	13.8290
 1.6870	13.8260
 1.6880	13.8300
 1.6890	13.8420
 1.6900	13.8380
 1.6910	13.8210
 1.6920	13.8090
 1.6930	13.7860
 1.6940	13.7740
 1.6950	13.7730
 1.6960	13.7660
 1.6970	13.7640
 1.6980	13.7520
 1.6990	13.7330
 1.7000	13.7120
 1.7010	13.6780
 1.7020	13.6590
 1.7030	13.6480
 1.7040	13.6320
 1.7050	13.6250
 1.7060	13.6060
 1.7070	13.5780
 1.7080	13.5540
 1.7090	13.5290
 1.7100	13.5060
 1.7110	13.4860
 1.7120	13.4630
 1.7130	13.4390
 1.7140	13.4130
 1.7150	13.3890
 1.7160	13.3660
 1.7170	13.3360
 1.7180	13.3050
 1.7190	13.2710
 1.7200	13.2410
 1.7210	13.2160
 1.7220	13.1860
 1.7230	13.1610
 1.7240	13.1380
 1.7250	13.1150
 1.7260	13.1020
 1.7270	13.0830
 1.7280	13.0610
 1.7290	13.0390
 1.7300	13.0070
 1.7310	12.9820
 1.7320	12.9550
 1.7330	12.9370
 1.7340	12.9280
 1.7350	12.9180
 1.7360	12.9140
 1.7370	12.9010
 1.7380	12.8840
 1.7390	12.8670
 1.7400	12.8410
 1.7410	12.8220
 1.7420	12.8120
 1.7430	12.7880
 1.7440	12.7620
 1.7450	12.7330
 1.7460	12.6890
 1.7470	12.6560
 1.7480	12.6260
 1.7490	12.5990
 1.7500	12.5750
 1.7510	12.5490
 1.7520	12.5260
 1.7530	12.5000
 1.7540	12.4700
 1.7550	12.4480
 1.7560	12.4130
 1.7570	12.3790
 1.7580	12.3510
 1.7590	12.3250
 1.7600	12.3030
 1.7610	12.2690
 1.7620	12.2400
 1.7630	12.1980
 1.7640	12.1700
 1.7650	12.1630
 1.7660	12.1420
 1.7670	12.1150
 1.7680	12.0970
 1.7690	12.0750
 1.7700	12.0560
 1.7710	12.0470
 1.7720	12.0350
 1.7730	12.0170
 1.7740	12.0060
 1.7750	12.0010
 1.7760	11.9910
 1.7770	11.9820
 1.7780	11.9670
 1.7790	11.9430
 1.7800	11.9290
 1.7810	11.9130
 1.7820	11.9050
 1.7830	11.9070
 1.7840	11.9010
 1.7850	11.8920
 1.7860	11.8880
 1.7870	11.8830
 1.7880	11.8810
 1.7890	11.8840
 1.7900	11.8850
 1.7910	11.8810
 1.7920	11.8670
 1.7930	11.8610
 1.7940	11.8530
 1.7950	11.8490
 1.7960	11.8540
 1.7970	11.8550
 1.7980	11.8540
 1.7990	11.8540
 1.8000	11.8540
 1.8010	11.8580
 1.8020	11.8650
 1.8030	11.8750
 1.8040	11.8950
 1.8050	11.9030
 1.8060	11.9110
 1.8070	11.9090
 1.8080	11.8920
 1.8090	11.8830
 1.8100	11.8690
 1.8110	11.8730
 1.8120	11.8820
 1.8130	11.8890
 1.8140	11.9070
 1.8150	11.9100
 1.8160	11.9020
 1.8170	11.9010
 1.8180	11.8940
 1.8190	11.8980
 1.8200	11.9000
 1.8210	11.9000
 1.8220	11.8980
 1.8230	11.8940
 1.8240	11.8890
 1.8250	11.8830
 1.8260	11.8750
 1.8270	11.8590
 1.8280	11.8630
 1.8290	11.8870
 1.8300	11.8910
 1.8310	12.1390
 1.8320	12.1460
 1.8330	12.1490
 1.8340	12.1320
 1.8350	12.1210
 1.8360	12.1150
 1.8370	12.0810
 1.8380	12.0620
 1.8390	12.0470
 1.8400	12.0310
 1.8410	12.0140
 1.8420	12.0120
 1.8430	11.9930
 1.8440	11.9490
 1.8450	11.9160
 1.8460	11.8710
 1.8470	11.8240
 1.8480	11.8000
 1.8490	11.7590
 1.8500	11.7180
 1.8510	11.6720
 1.8520	11.6410
 1.8530	11.5910
 1.8540	11.5490
 1.8550	11.5220
 1.8560	11.4600
 1.8570	11.3960
 1.8580	11.3540
 1.8590	11.2910
 1.8600	11.2080
 1.8610	11.1380
 1.8620	11.0790
 1.8630	11.0050
 1.8640	10.9620
 1.8650	10.9050
 1.8660	10.8340
 1.8670	10.7600
 1.8680	10.6590
 1.8690	10.5740
 1.8700	10.5080
 1.8710	10.4600
 1.8720	10.4040
 1.8730	10.3580
 1.8740	10.3120
 1.8750	10.2440
 1.8760	10.1760
 1.8770	10.1090
 1.8780	10.0320
 1.8790	 9.9540
 1.8800	 9.8860
 1.8810	 9.8190
 1.8820	 9.7580
 1.8830	 9.7150
 1.8840	 9.6750
 1.8850	 9.6190
 1.8860	 9.5660
 1.8870	 9.5060
 1.8880	 9.4390
 1.8890	 9.3860
 1.8900	 9.3330
 1.8910	 9.2960
 1.8920	 9.2720
 1.8930	 9.2500
 1.8940	 9.2270
 1.8950	 9.2150
 1.8960	 9.1840
 1.8970	 9.1560
 1.8980	 9.1260
 1.8990	 9.0980
 1.9000	 9.0660
 1.9010	 9.0170
 1.9020	 8.9810
 1.9030	 8.9500
 1.9040	 8.9250
 1.9050	 8.8920
 1.9060	 8.8870
 1.9070	 8.8740
 1.9080	 8.8520
 1.9090	 8.8520
 1.9100	 8.8370
 1.9110	 8.8270
 1.9120	 8.8310
 1.9130	 8.8130
 1.9140	 8.7710
 1.9150	 8.7560
 1.9160	 8.7500
 1.9170	 8.7460
 1.9180	 8.7640
 1.9190	 8.7840
 1.9200	 8.7940
 1.9210	 8.7850
 1.9220	 8.7760
 1.9230	 8.7510
 1.9240	 8.7500
 1.9250	 8.7550
 1.9260	 8.7610
 1.9270	 8.7720
 1.9280	 8.7760
 1.9290	 8.7550
 1.9300	 8.7400
 1.9310	 8.7610
 1.9320	 8.7670
 1.9330	 8.7630
 1.9340	 8.7580
 1.9350	 8.7590
 1.9360	 8.7410
 1.9370	 8.7440
 1.9380	 8.7740
 1.9390	 8.7780
 1.9400	 8.7810
 1.9410	 8.7830
 1.9420	 8.7700
 1.9430	 8.7780
 1.9440	 8.7870
 1.9450	 8.7990
 1.9460	 8.8120
 1.9470	 8.8340
 1.9480	 8.8470
 1.9490	 8.8490
 1.9500	 8.8760
 1.9510	 8.8970
 1.9520	 8.9040
 1.9530	 8.9010
 1.9540	 8.8890
 1.9550	 8.8790
 1.9560	 8.8520
 1.9570	 8.8490
 1.9580	 8.8590
 1.9590	 8.8680
 1.9600	 8.8960
 1.9610	 8.9080
 1.9620	 8.9140
 1.9630	 8.9190
 1.9640	 8.9310
 1.9650	 8.9390
 1.9660	 8.9440
 1.9670	 8.9530
 1.9680	 8.9580
 1.9690	 8.9530
 1.9700	 8.9550
 1.9710	 8.9590
 1.9720	 8.9660
 1.9730	 8.9780
 1.9740	 8.9770
 1.9750	 8.9820
 1.9760	 8.9910
 1.9770	 9.0020
 1.9780	 9.0170
 1.9790	 9.0240
 1.9800	 9.0290
 1.9810	 9.0380
 1.9820	 9.0470
 1.9830	 9.0530
 1.9840	 9.0630
 1.9850	 9.0760
 1.9860	 9.0900
 1.9870	 9.0900
 1.9880	 9.1080
 1.9890	 9.1300
 1.9900	 9.1490
 1.9910	 9.1630
 1.9920	 9.1750
 1.9930	 9.1810
 1.9940	 9.1920
 1.9950	 9.2040
 1.9960	 9.2190
 1.9970	 9.2380
 1.9980	 9.2550
 1.9990	 9.2770
 2.0000	 9.2920
 2.0010	 9.2870
 2.0020	 9.2780
 2.0030	 9.2840
 2.0040	 9.2910
 2.0050	 9.3000
 2.0060	 9.3410
 2.0070	 9.3480
 2.0080	 9.3330
 2.0090	 9.3230
 2.0100	 9.2880
 2.0110	 9.2840
 2.0120	 9.2860
 2.0130	 9.3100
 2.0140	 9.3550
 2.0150	 9.4000
 2.0160	 9.4250
 2.0170	 9.4360
 2.0180	 9.4460
 2.0190	 9.4410
 2.0200	 9.4380
 2.0210	 9.4330
 2.0220	 9.4320
 2.0230	 9.4240
 2.0240	 9.4230
 2.0250	 9.4340
 2.0260	 9.4400
 2.0270	 9.4370
 2.0280	 9.4500
 2.0290	 9.4680
 2.0300	 9.4790
 2.0310	 9.4950
 2.0320	 9.5200
 2.0330	 9.5340
 2.0340	 9.5390
 2.0350	 9.5500
 2.0360	 9.5590
 2.0370	 9.5670
 2.0380	 9.5780
 2.0390	 9.5830
 2.0400	 9.5750
 2.0410	 9.5800
 2.0420	 9.5810
 2.0430	 9.6000
 2.0440	 9.6110
 2.0450	 9.6340
 2.0460	 9.6390
 2.0470	 9.6340
 2.0480	 9.6360
 2.0490	 9.6200
 2.0500	 9.6350
 2.0510	 9.6800
 2.0520	 9.6960
 2.0530	 9.7310
 2.0540	 9.7360
 2.0550	 9.7030
 2.0560	 9.6760
 2.0570	 9.6470
 2.0580	 9.6360
 2.0590	 9.6350
 2.0600	 9.6510
 2.0610	 9.6590
 2.0620	 9.6770
 2.0630	 9.6820
 2.0640	 9.6800
 2.0650	 9.6840
 2.0660	 9.6760
 2.0670	 9.6890
 2.0680	 9.7250
 2.0690	 9.7440
 2.0700	 9.7790
 2.0710	 9.7920
 2.0720	 9.7820
 2.0730	 9.7690
 2.0740	 9.7600
 2.0750	 9.7330
 2.0760	 9.7350
 2.0770	 9.7540
 2.0780	 9.7660
 2.0790	 9.7940
 2.0800	 9.8090
 2.0810	 9.8150
 2.0820	 9.8240
 2.0830	 9.8310
 2.0840	 9.8380
 2.0850	 9.8400
 2.0860	 9.8460
 2.0870	 9.8460
 2.0880	 9.8630
 2.0890	 9.8720
 2.0900	 9.8790
 2.0910	 9.9000
 2.0920	 9.9300
 2.0930	 9.9470
 2.0940	 9.9710
 2.0950	 9.9850
 2.0960	 9.9880
 2.0970	 9.9860
 2.0980	 9.9810
 2.0990	 9.9750
 2.1000	 9.9400
 2.1010	 9.9380
 2.1020	 9.9640
 2.1030	 9.9760
 2.1040	10.0070
 2.1050	10.0230
 2.1060	10.0270
 2.1070	10.0010
 2.1080	10.0100
 2.1090	10.0290
 2.1100	10.0430
 2.1110	10.0710
 2.1120	10.0940
 2.1130	10.1140
 2.1140	10.1260
 2.1150	10.1460
 2.1160	10.1510
 2.1170	10.1300
 2.1180	10.1240
 2.1190	10.1140
 2.1200	10.1150
 2.1210	10.1220
 2.1220	10.1390
 2.1230	10.1570
 2.1240	10.1830
 2.1250	10.2100
 2.1260	10.2450
 2.1270	10.2650
 2.1280	10.2850
 2.1290	10.2930
 2.1300	10.2780
 2.1310	10.2850
 2.1320	10.3010
 2.1330	10.3110
 2.1340	10.3340
 2.1350	10.3420
 2.1360	10.3270
 2.1370	10.3270
 2.1380	10.3250
 2.1390	10.3350
 2.1400	10.3710
 2.1410	10.3930
 2.1420	10.3980
 2.1430	10.4000
 2.1440	10.3860
 2.1450	10.3320
 2.1460	10.3300
 2.1470	10.3420
 2.1480	10.3650
 2.1490	10.4390
 2.1500	10.4610
 2.1510	10.4660
 2.1520	10.4700
 2.1530	10.4470
 2.1540	10.4360
 2.1550	10.4340
 2.1560	10.4280
 2.1570	10.4100
 2.1580	10.4020
 2.1590	10.4040
 2.1600	10.3930
 2.1610	10.4030
 2.1620	10.4260
 2.1630	10.4420
 2.1640	10.4690
 2.1650	10.4790
 2.1660	10.4780
 2.1670	10.4780
 2.1680	10.4720
 2.1690	10.4660
 2.1700	10.4620
 2.1710	10.4510
 2.1720	10.4290
 2.1730	10.4160
 2.1740	10.3990
 2.1750	10.3910
 2.1760	10.3910
 2.1770	10.3910
 2.1780	10.3920
 2.1790	10.3980
 2.1800	10.4070
 2.1810	10.4160
 2.1820	10.4530
 2.1830	10.4450
 2.1840	10.4440
 2.1850	10.4260
 2.1860	10.4390
 2.1870	10.4620
 2.1880	10.4730
 2.1890	10.5070
 2.1900	10.5070
 2.1910	10.4720
 2.1920	10.4550
 2.1930	10.4370
 2.1940	10.4190
 2.1950	10.3880
 2.1960	10.3870
 2.1970	10.4090
 2.1980	10.4240
 2.1990	10.4670
 2.2000	10.4890
 2.2010	10.4960
 2.2020	10.4990
 2.2030	10.4900
 2.2040	10.4880
 2.2050	10.4890
 2.2060	10.4770
 2.2070	10.4760
 2.2080	10.4830
 2.2090	10.4820
 2.2100	10.4810
 2.2110	10.4750
 2.2120	10.4600
 2.2130	10.4590
 2.2140	10.4610
 2.2150	10.4630
 2.2160	10.4760
 2.2170	10.4800
 2.2180	10.4700
 2.2190	10.4760
 2.2200	10.5060
 2.2210	10.5010
 2.2220	10.4790
 2.2230	10.4670
 2.2240	10.4240
 2.2250	10.4090
 2.2260	10.4250
 2.2270	10.4260
 2.2280	10.4300
 2.2290	10.4250
 2.2300	10.4050
 2.2310	10.3940
 2.2320	10.3720
 2.2330	10.3740
 2.2340	10.3780
 2.2350	10.3950
 2.2360	10.3980
 2.2370	10.4000
 2.2380	10.4000
 2.2390	10.3910
 2.2400	10.3890
 2.2410	10.3990
 2.2420	10.3880
 2.2430	10.3720
 2.2440	10.3430
 2.2450	10.2910
 2.2460	10.2520
 2.2470	10.1990
 2.2480	10.1700
 2.2490	10.1520
 2.2500	10.1370
 2.2510	10.1340
 2.2520	10.1310
 2.2530	10.1390
 2.2540	10.1390
 2.2550	10.1470
 2.2560	10.1390
 2.2570	10.0960
 2.2580	10.0800
 2.2590	10.0780
 2.2600	10.0680
 2.2610	10.0570
 2.2620	10.0790
 2.2630	10.0800
 2.2640	10.0730
 2.2650	10.0800
 2.2660	10.0650
 2.2670	10.0480
 2.2680	10.0140
 2.2690	 9.9930
 2.2700	 9.9720
 2.2710	 9.9600
 2.2720	 9.9490
 2.2730	 9.9550
 2.2740	 9.9840
 2.2750	 9.9820
 2.2760	 9.9730
 2.2770	 9.9630
 2.2780	 9.9130
 2.2790	 9.9180
 2.2800	 9.9790
 2.2810	 9.9950
 2.2820	10.0260
 2.2830	10.0320
 2.2840	 9.9830
 2.2850	 9.9700
 2.2860	 9.9830
 2.2870	 9.9670
 2.2880	 9.9500
 2.2890	 9.9290
 2.2900	 9.8660
 2.2910	 9.8420
 2.2920	 9.8610
 2.2930	 9.8420
 2.2940	 9.8110
 2.2950	 9.7980
 2.2960	 9.7560
 2.2970	 9.7430
 2.2980	 9.7790
 2.2990	 9.7900
 2.3000	 9.7940
 2.3010	 9.7960
 2.3020	 9.7660
 2.3030	 9.7440
 2.3040	 9.7160
 2.3050	 9.6450
 2.3060	 9.6120
 2.3070	 9.6210
 2.3080	 9.6460
 2.3090	 9.6980
 2.3100	 9.7240
 2.3110	 9.7230
 2.3120	 9.7160
 2.3130	 9.6790
 2.3140	 9.6770
 2.3150	 9.6800
 2.3160	 9.6840
 2.3170	 9.7040
 2.3180	 9.7090
 2.3190	 9.7070
 2.3200	 9.7030
 2.3210	 9.6820
 2.3220	 9.7030
 2.3230	 9.7390
 2.3240	 9.7710
 2.3250	 9.8530
 2.3260	 9.8690
 2.3270	 9.8420
 2.3280	 9.8350
 2.3290	 9.7960
 2.3300	 9.7910
 2.3310	 9.8250
 2.3320	 9.8160
 2.3330	 9.7940
 2.3340	 9.7670
 2.3350	 9.6870
 2.3360	 9.6570
 2.3370	 9.6530
 2.3380	 9.6620
 2.3390	 9.7260
 2.3400	 9.7550
 2.3410	 9.7830
 2.3420	 9.7790
 2.3430	 9.7240
 2.3440	 9.6980
 2.3450	 9.6710
 2.3460	 9.6440
 2.3470	 9.6190
 2.3480	 9.6110
 2.3490	 9.6160
 2.3500	 9.6150
 2.3510	 9.6270
 2.3520	 9.6300
 2.3530	 9.6260
 2.3540	 9.6060
 2.3550	 9.5690
 2.3560	 9.5800
 2.3570	 9.6050
 2.3580	 9.6180
 2.3590	 9.6610
 2.3600	 9.7050
 2.3610	 9.7020
 2.3620	 9.6880
 2.3630	 9.6850
 2.3640	 9.6590
 2.3650	 9.6100
 2.3660	 9.5940
 2.3670	 9.5590
 2.3680	 9.5090
 2.3690	 9.4920
 2.3700	 9.4980
 2.3710	 9.5530
 2.3720	 9.6680
 2.3730	 9.7840
 2.3740	 9.8240
 2.3750	 9.8580
 2.3760	 9.8250
 2.3770	 9.7720
 2.3780	 9.7700
 2.3790	 9.6700
 2.3800	 9.6060
 2.3810	 9.5610
 2.3820	 9.4750
 2.3830	 9.4640
 2.3840	 9.4740
 2.3850	 9.5090
 2.3860	 9.5560
 2.3870	 9.6290
 2.3880	 9.6700
 2.3890	 9.6310
 2.3900	 9.6480
 2.3910	 9.6430
 2.3920	 9.5870
 2.3930	 9.6280
 2.3940	 9.6200
 2.3950	 9.5540
 2.3960	 9.5860
 2.3970	 9.5350
 2.3980	 9.4940
 2.3990	 9.5610
 2.4000	 9.5700
 2.4010	 9.5510
 2.4020	 9.5660
 2.4030	 9.5470
 2.4040	 9.5270
 2.4050	 9.6310
 2.4060	 9.6870
 2.4070	 9.6950
 2.4080	 9.7170
 2.4090	 9.6500
 2.4100	 9.5930
 2.4110	 9.5420
 2.4120	 9.5070
 2.4130	 9.5340
 2.4140	 9.5110
 2.4150	 9.5110
 2.4160	 9.4980
 2.4170	 9.4230
 2.4180	 9.4740
 2.4190	 9.5390
 2.4200	 9.5240
 2.4210	 9.5410
 2.4220	 9.4290
 2.4230	 9.2670
 2.4240	 9.2280
 2.4250	 9.2280
 2.4260	 9.3550
 2.4270	 9.4730
 2.4280	 9.5320
 2.4290	 9.4850
 2.4300	 9.3410
 2.4310	 9.3010
 2.4320	 9.2470
 2.4330	 9.2550
 2.4340	 9.3020
 2.4350	 9.3250
 2.4360	 9.4150
 2.4370	 9.4670
 2.4380	 9.5030
 2.4390	 9.5240
 2.4400	 9.4240
 2.4410	 9.3500
 2.4420	 9.4260
 2.4430	 9.4940
 2.4440	 9.5150
 2.4450	 9.5490
 2.4460	 9.4330
 2.4470	 9.3600
 2.4480	 9.4350
 2.4490	 9.4870
 2.4500	 9.5990
 2.4510	 9.5110
 2.4520	 9.3770
 2.4530	 9.3580
 2.4540	 9.3900
 2.4550	 9.6390
 2.4560	 9.7590
 2.4570	 9.7660
 2.4580	 9.5550
 2.4590	 9.1270
 2.4600	 8.8710
 2.4610	 8.6910
 2.4620	 8.7190
 2.4630	 9.0420
 2.4640	 9.2980
 2.4650	 9.3870
 2.4660	 9.4750
 2.4670	 9.2940
 2.4680	 9.0720
 2.4690	 9.1210
 2.4700	 9.0730
 2.4710	 9.0890
 2.4720	 9.0930
 2.4730	 9.0420
 2.4740	 9.1100
 2.4750	 9.2970
 2.4760	 9.3780
 2.4770	 9.4750
 2.4780	 9.4820
 2.4790	 9.1800
 2.4800	 9.2540
 2.4810	 9.6590
 2.4820	 9.6660
 2.4830	 9.8340
 2.4840	 9.7930
 2.4850	 9.6330
 2.4860	 9.6960
 2.4870	 9.7090
 2.4880	 9.5900
 2.4890	 9.4600
 2.4900	 9.4470
 2.4910	 9.2560
 2.4920	 9.1340
 2.4930	 9.1920
 2.4940	 9.0520
 2.4950	 9.3400
 2.4960	 9.5790
 2.4970	 9.5870
 2.4980	 9.7740
 2.4990	 9.7650
 2.5000	 9.8840
