Name: Umbellularia californica 3
Type: vegetation
Class: Shrub
Genus: Umbellularia
Species: californica
Sample No.: VH029
Owner: UCSB
Wavelength Range: VSWIR
Origin: 34.5075; -119.763; WGS84
Collection Date: 4/1/2013
Description: Samples were collected as part of the HyspIRI Airborne Campaign. 48 individual plants were sampled in three times in 2013 - spring  summer  and fall. The name of the sample includes a 1  2  or 3 which references a different individual of the species. Samples were taken to JPL and processed within 48 hours of collection. The same leaves were processed in the Nicolet and then measured using the ASD.
Measurement: Bidirectional reflectance
First Column: X
Second Column: Y
X Units: Wavelength (micrometers)
Y Units: Reflectance (percentage)
First X Value: 0.35
Last X Value: 2.5
Number of X Values: 2151
Additional Information: vegetation.shrub.umbellularia.californica.vswir.vh029.ucsb.asd.ancillary.txt

 0.3500	 8.5880
 0.3510	 9.0620
 0.3520	 9.1480
 0.3530	 8.9720
 0.3540	 8.8270
 0.3550	 8.8180
 0.3560	 8.8520
 0.3570	 8.8530
 0.3580	 8.7840
 0.3590	 8.7950
 0.3600	 8.8040
 0.3610	 8.7870
 0.3620	 8.8340
 0.3630	 8.7860
 0.3640	 8.7510
 0.3650	 8.8270
 0.3660	 8.7980
 0.3670	 8.8160
 0.3680	 8.8210
 0.3690	 8.6500
 0.3700	 8.6640
 0.3710	 8.8010
 0.3720	 8.9110
 0.3730	 8.7880
 0.3740	 8.7190
 0.3750	 8.7410
 0.3760	 8.7870
 0.3770	 8.7130
 0.3780	 8.6650
 0.3790	 8.6710
 0.3800	 8.6510
 0.3810	 8.6150
 0.3820	 8.5970
 0.3830	 8.6140
 0.3840	 8.6550
 0.3850	 8.6530
 0.3860	 8.6230
 0.3870	 8.6110
 0.3880	 8.6340
 0.3890	 8.6520
 0.3900	 8.6390
 0.3910	 8.5950
 0.3920	 8.6360
 0.3930	 8.6610
 0.3940	 8.6070
 0.3950	 8.6430
 0.3960	 8.6970
 0.3970	 8.7200
 0.3980	 8.6840
 0.3990	 8.6220
 0.4000	 8.6100
 0.4010	 8.6470
 0.4020	 8.6310
 0.4030	 8.6050
 0.4040	 8.6120
 0.4050	 8.6640
 0.4060	 8.6770
 0.4070	 8.6730
 0.4080	 8.6610
 0.4090	 8.6430
 0.4100	 8.6780
 0.4110	 8.7020
 0.4120	 8.6870
 0.4130	 8.6930
 0.4140	 8.7330
 0.4150	 8.7620
 0.4160	 8.7430
 0.4170	 8.7870
 0.4180	 8.8230
 0.4190	 8.8260
 0.4200	 8.8170
 0.4210	 8.8420
 0.4220	 8.8720
 0.4230	 8.8860
 0.4240	 8.9050
 0.4250	 8.9260
 0.4260	 8.9450
 0.4270	 8.9600
 0.4280	 8.9620
 0.4290	 8.9730
 0.4300	 8.9990
 0.4310	 9.0160
 0.4320	 9.0160
 0.4330	 9.0130
 0.4340	 9.0210
 0.4350	 9.0350
 0.4360	 9.0430
 0.4370	 9.0530
 0.4380	 9.0850
 0.4390	 9.1060
 0.4400	 9.1180
 0.4410	 9.1250
 0.4420	 9.1300
 0.4430	 9.1390
 0.4440	 9.1520
 0.4450	 9.1660
 0.4460	 9.1780
 0.4470	 9.1880
 0.4480	 9.1970
 0.4490	 9.2050
 0.4500	 9.2120
 0.4510	 9.2190
 0.4520	 9.2300
 0.4530	 9.2510
 0.4540	 9.2620
 0.4550	 9.2620
 0.4560	 9.2630
 0.4570	 9.2710
 0.4580	 9.2790
 0.4590	 9.2840
 0.4600	 9.2810
 0.4610	 9.2860
 0.4620	 9.2910
 0.4630	 9.2870
 0.4640	 9.2790
 0.4650	 9.2880
 0.4660	 9.3080
 0.4670	 9.3000
 0.4680	 9.3020
 0.4690	 9.3000
 0.4700	 9.2860
 0.4710	 9.2980
 0.4720	 9.3030
 0.4730	 9.2960
 0.4740	 9.2890
 0.4750	 9.2900
 0.4760	 9.2940
 0.4770	 9.2950
 0.4780	 9.2910
 0.4790	 9.3000
 0.4800	 9.3130
 0.4810	 9.3110
 0.4820	 9.3070
 0.4830	 9.3050
 0.4840	 9.3060
 0.4850	 9.3080
 0.4860	 9.3120
 0.4870	 9.3210
 0.4880	 9.3360
 0.4890	 9.3530
 0.4900	 9.3640
 0.4910	 9.3710
 0.4920	 9.3800
 0.4930	 9.3930
 0.4940	 9.4130
 0.4950	 9.4390
 0.4960	 9.4590
 0.4970	 9.4780
 0.4980	 9.5020
 0.4990	 9.5360
 0.5000	 9.5720
 0.5010	 9.6070
 0.5020	 9.6420
 0.5030	 9.6810
 0.5040	 9.7270
 0.5050	 9.7860
 0.5060	 9.8560
 0.5070	 9.9170
 0.5080	 9.9820
 0.5090	10.0580
 0.5100	10.1470
 0.5110	10.2540
 0.5120	10.3660
 0.5130	10.4780
 0.5140	10.6020
 0.5150	10.7420
 0.5160	10.8920
 0.5170	11.0480
 0.5180	11.2190
 0.5190	11.3950
 0.5200	11.5780
 0.5210	11.7760
 0.5220	11.9750
 0.5230	12.1700
 0.5240	12.3620
 0.5250	12.5580
 0.5260	12.7520
 0.5270	12.9420
 0.5280	13.1260
 0.5290	13.3060
 0.5300	13.4780
 0.5310	13.6400
 0.5320	13.7960
 0.5330	13.9400
 0.5340	14.0770
 0.5350	14.2090
 0.5360	14.3280
 0.5370	14.4420
 0.5380	14.5490
 0.5390	14.6460
 0.5400	14.7430
 0.5410	14.8340
 0.5420	14.9140
 0.5430	14.9930
 0.5440	15.0740
 0.5450	15.1510
 0.5460	15.2200
 0.5470	15.2950
 0.5480	15.3680
 0.5490	15.4340
 0.5500	15.4850
 0.5510	15.5230
 0.5520	15.5490
 0.5530	15.5630
 0.5540	15.5650
 0.5550	15.5520
 0.5560	15.5230
 0.5570	15.4780
 0.5580	15.4180
 0.5590	15.3450
 0.5600	15.2600
 0.5610	15.1590
 0.5620	15.0550
 0.5630	14.9480
 0.5640	14.8340
 0.5650	14.7090
 0.5660	14.5740
 0.5670	14.4360
 0.5680	14.3000
 0.5690	14.1510
 0.5700	14.0010
 0.5710	13.8610
 0.5720	13.7180
 0.5730	13.5860
 0.5740	13.4660
 0.5750	13.3490
 0.5760	13.2400
 0.5770	13.1350
 0.5780	13.0330
 0.5790	12.9330
 0.5800	12.8380
 0.5810	12.7510
 0.5820	12.6730
 0.5830	12.6070
 0.5840	12.5460
 0.5850	12.4850
 0.5860	12.4260
 0.5870	12.3690
 0.5880	12.3170
 0.5890	12.2730
 0.5900	12.2430
 0.5910	12.2170
 0.5920	12.1910
 0.5930	12.1660
 0.5940	12.1340
 0.5950	12.1020
 0.5960	12.0730
 0.5970	12.0430
 0.5980	12.0160
 0.5990	11.9890
 0.6000	11.9590
 0.6010	11.9230
 0.6020	11.8860
 0.6030	11.8480
 0.6040	11.8000
 0.6050	11.7520
 0.6060	11.7010
 0.6070	11.6430
 0.6080	11.5810
 0.6090	11.5190
 0.6100	11.4510
 0.6110	11.3710
 0.6120	11.3060
 0.6130	11.2490
 0.6140	11.1930
 0.6150	11.1360
 0.6160	11.0790
 0.6170	11.0230
 0.6180	10.9710
 0.6190	10.9280
 0.6200	10.8890
 0.6210	10.8520
 0.6220	10.8230
 0.6230	10.7970
 0.6240	10.7700
 0.6250	10.7460
 0.6260	10.7350
 0.6270	10.7250
 0.6280	10.7130
 0.6290	10.7000
 0.6300	10.6900
 0.6310	10.6810
 0.6320	10.6710
 0.6330	10.6590
 0.6340	10.6420
 0.6350	10.6180
 0.6360	10.5840
 0.6370	10.5450
 0.6380	10.5020
 0.6390	10.4530
 0.6400	10.3960
 0.6410	10.3390
 0.6420	10.2820
 0.6430	10.2240
 0.6440	10.1610
 0.6450	10.1010
 0.6460	10.0460
 0.6470	 9.9950
 0.6480	 9.9430
 0.6490	 9.9000
 0.6500	 9.8660
 0.6510	 9.8350
 0.6520	 9.8050
 0.6530	 9.7760
 0.6540	 9.7490
 0.6550	 9.7240
 0.6560	 9.6950
 0.6570	 9.6630
 0.6580	 9.6280
 0.6590	 9.5910
 0.6600	 9.5540
 0.6610	 9.5180
 0.6620	 9.4800
 0.6630	 9.4470
 0.6640	 9.4160
 0.6650	 9.3880
 0.6660	 9.3640
 0.6670	 9.3440
 0.6680	 9.3280
 0.6690	 9.3170
 0.6700	 9.3100
 0.6710	 9.3050
 0.6720	 9.3020
 0.6730	 9.3020
 0.6740	 9.3060
 0.6750	 9.3130
 0.6760	 9.3230
 0.6770	 9.3360
 0.6780	 9.3510
 0.6790	 9.3680
 0.6800	 9.3880
 0.6810	 9.4130
 0.6820	 9.4440
 0.6830	 9.4820
 0.6840	 9.5280
 0.6850	 9.5860
 0.6860	 9.6590
 0.6870	 9.7520
 0.6880	 9.8660
 0.6890	10.0100
 0.6900	10.1940
 0.6910	10.4280
 0.6920	10.7140
 0.6930	11.0610
 0.6940	11.4770
 0.6950	11.9660
 0.6960	12.5330
 0.6970	13.1750
 0.6980	13.8860
 0.6990	14.6650
 0.7000	15.5080
 0.7010	16.4040
 0.7020	17.3380
 0.7030	18.3060
 0.7040	19.2970
 0.7050	20.3030
 0.7060	21.3150
 0.7070	22.3350
 0.7080	23.3560
 0.7090	24.3750
 0.7100	25.3940
 0.7110	26.4070
 0.7120	27.4110
 0.7130	28.4140
 0.7140	29.4100
 0.7150	30.3950
 0.7160	31.3660
 0.7170	32.3230
 0.7180	33.2740
 0.7190	34.2150
 0.7200	35.1330
 0.7210	36.0400
 0.7220	36.9290
 0.7230	37.7970
 0.7240	38.6450
 0.7250	39.4690
 0.7260	40.2690
 0.7270	41.0440
 0.7280	41.7880
 0.7290	42.5000
 0.7300	43.1900
 0.7310	43.8610
 0.7320	44.4960
 0.7330	45.0950
 0.7340	45.6640
 0.7350	46.2160
 0.7360	46.7400
 0.7370	47.2360
 0.7380	47.7080
 0.7390	48.1450
 0.7400	48.5640
 0.7410	48.9610
 0.7420	49.3270
 0.7430	49.6810
 0.7440	50.0070
 0.7450	50.3080
 0.7460	50.5960
 0.7470	50.8580
 0.7480	51.1000
 0.7490	51.3290
 0.7500	51.5410
 0.7510	51.7350
 0.7520	51.9130
 0.7530	52.0790
 0.7540	52.2310
 0.7550	52.3670
 0.7560	52.4910
 0.7570	52.6080
 0.7580	52.7130
 0.7590	52.8120
 0.7600	52.9030
 0.7610	52.9840
 0.7620	53.0550
 0.7630	53.1230
 0.7640	53.1900
 0.7650	53.2490
 0.7660	53.2980
 0.7670	53.3420
 0.7680	53.3820
 0.7690	53.4230
 0.7700	53.4640
 0.7710	53.5010
 0.7720	53.5310
 0.7730	53.5580
 0.7740	53.5830
 0.7750	53.6080
 0.7760	53.6420
 0.7770	53.6690
 0.7780	53.6860
 0.7790	53.7020
 0.7800	53.7150
 0.7810	53.7330
 0.7820	53.7560
 0.7830	53.7720
 0.7840	53.7850
 0.7850	53.7970
 0.7860	53.8110
 0.7870	53.8270
 0.7880	53.8300
 0.7890	53.8340
 0.7900	53.8560
 0.7910	53.8630
 0.7920	53.8700
 0.7930	53.8780
 0.7940	53.8800
 0.7950	53.8860
 0.7960	53.8920
 0.7970	53.8930
 0.7980	53.8940
 0.7990	53.8960
 0.8000	53.8960
 0.8010	53.8940
 0.8020	53.8970
 0.8030	53.8990
 0.8040	53.8960
 0.8050	53.8880
 0.8060	53.8850
 0.8070	53.8820
 0.8080	53.8740
 0.8090	53.8600
 0.8100	53.8610
 0.8110	53.8580
 0.8120	53.8460
 0.8130	53.8430
 0.8140	53.8370
 0.8150	53.8250
 0.8160	53.8080
 0.8170	53.7990
 0.8180	53.7880
 0.8190	53.7790
 0.8200	53.7750
 0.8210	53.7540
 0.8220	53.7400
 0.8230	53.7390
 0.8240	53.7350
 0.8250	53.7230
 0.8260	53.7060
 0.8270	53.6880
 0.8280	53.6720
 0.8290	53.6640
 0.8300	53.6550
 0.8310	53.6380
 0.8320	53.6210
 0.8330	53.6160
 0.8340	53.6160
 0.8350	53.6020
 0.8360	53.5950
 0.8370	53.5870
 0.8380	53.5770
 0.8390	53.5680
 0.8400	53.5610
 0.8410	53.5520
 0.8420	53.5420
 0.8430	53.5410
 0.8440	53.5390
 0.8450	53.5350
 0.8460	53.5300
 0.8470	53.5190
 0.8480	53.5190
 0.8490	53.5280
 0.8500	53.5350
 0.8510	53.5250
 0.8520	53.5190
 0.8530	53.5200
 0.8540	53.5190
 0.8550	53.5130
 0.8560	53.5200
 0.8570	53.5320
 0.8580	53.5220
 0.8590	53.5160
 0.8600	53.5160
 0.8610	53.5180
 0.8620	53.5210
 0.8630	53.5210
 0.8640	53.5190
 0.8650	53.5180
 0.8660	53.5230
 0.8670	53.5320
 0.8680	53.5370
 0.8690	53.5360
 0.8700	53.5430
 0.8710	53.5430
 0.8720	53.5390
 0.8730	53.5410
 0.8740	53.5520
 0.8750	53.5590
 0.8760	53.5620
 0.8770	53.5670
 0.8780	53.5710
 0.8790	53.5690
 0.8800	53.5660
 0.8810	53.5770
 0.8820	53.5900
 0.8830	53.5970
 0.8840	53.5950
 0.8850	53.6010
 0.8860	53.6060
 0.8870	53.6140
 0.8880	53.6260
 0.8890	53.6230
 0.8900	53.6200
 0.8910	53.6240
 0.8920	53.6310
 0.8930	53.6340
 0.8940	53.6390
 0.8950	53.6430
 0.8960	53.6450
 0.8970	53.6480
 0.8980	53.6520
 0.8990	53.6550
 0.9000	53.6570
 0.9010	53.6560
 0.9020	53.6620
 0.9030	53.6750
 0.9040	53.6810
 0.9050	53.6820
 0.9060	53.6850
 0.9070	53.6890
 0.9080	53.6850
 0.9090	53.6900
 0.9100	53.6980
 0.9110	53.7010
 0.9120	53.6970
 0.9130	53.6890
 0.9140	53.6880
 0.9150	53.6970
 0.9160	53.6970
 0.9170	53.6980
 0.9180	53.7010
 0.9190	53.7050
 0.9200	53.7040
 0.9210	53.6980
 0.9220	53.6920
 0.9230	53.6950
 0.9240	53.6820
 0.9250	53.6750
 0.9260	53.6760
 0.9270	53.6730
 0.9280	53.6770
 0.9290	53.6650
 0.9300	53.6430
 0.9310	53.6380
 0.9320	53.6220
 0.9330	53.6060
 0.9340	53.5930
 0.9350	53.5750
 0.9360	53.5560
 0.9370	53.5400
 0.9380	53.5250
 0.9390	53.4990
 0.9400	53.4920
 0.9410	53.4840
 0.9420	53.4630
 0.9430	53.4400
 0.9440	53.3990
 0.9450	53.3600
 0.9460	53.3350
 0.9470	53.2970
 0.9480	53.2480
 0.9490	53.2020
 0.9500	53.1660
 0.9510	53.1270
 0.9520	53.0750
 0.9530	53.0130
 0.9540	52.9490
 0.9550	52.9030
 0.9560	52.8500
 0.9570	52.7980
 0.9580	52.7560
 0.9590	52.7070
 0.9600	52.6630
 0.9610	52.6240
 0.9620	52.5870
 0.9630	52.5470
 0.9640	52.5170
 0.9650	52.4930
 0.9660	52.4690
 0.9670	52.4580
 0.9680	52.4410
 0.9690	52.4190
 0.9700	52.4010
 0.9710	52.3860
 0.9720	52.3650
 0.9730	52.3520
 0.9740	52.3600
 0.9750	52.3500
 0.9760	52.3330
 0.9770	52.3220
 0.9780	52.3190
 0.9790	52.2980
 0.9800	52.2990
 0.9810	52.3100
 0.9820	52.3040
 0.9830	52.3170
 0.9840	52.3150
 0.9850	52.3020
 0.9860	52.3040
 0.9870	52.3150
 0.9880	52.3300
 0.9890	52.3460
 0.9900	52.3570
 0.9910	52.3520
 0.9920	52.3700
 0.9930	52.3870
 0.9940	52.4040
 0.9950	52.4220
 0.9960	52.4390
 0.9970	52.4560
 0.9980	52.4740
 0.9990	52.4910
 1.0000	52.5080
 1.0010	52.5260
 1.0020	52.5430
 1.0030	52.5610
 1.0040	52.5780
 1.0050	52.5950
 1.0060	52.6130
 1.0070	52.6300
 1.0080	52.6470
 1.0090	52.6650
 1.0100	52.6650
 1.0110	52.6760
 1.0120	52.6890
 1.0130	52.6980
 1.0140	52.7110
 1.0150	52.7250
 1.0160	52.7430
 1.0170	52.7610
 1.0180	52.7740
 1.0190	52.7860
 1.0200	52.7980
 1.0210	52.8040
 1.0220	52.8130
 1.0230	52.8240
 1.0240	52.8360
 1.0250	52.8480
 1.0260	52.8630
 1.0270	52.8750
 1.0280	52.8850
 1.0290	52.8960
 1.0300	52.9060
 1.0310	52.9170
 1.0320	52.9340
 1.0330	52.9430
 1.0340	52.9520
 1.0350	52.9610
 1.0360	52.9680
 1.0370	52.9720
 1.0380	52.9800
 1.0390	52.9900
 1.0400	53.0010
 1.0410	53.0150
 1.0420	53.0250
 1.0430	53.0350
 1.0440	53.0440
 1.0450	53.0500
 1.0460	53.0560
 1.0470	53.0600
 1.0480	53.0650
 1.0490	53.0690
 1.0500	53.0730
 1.0510	53.0760
 1.0520	53.0820
 1.0530	53.0860
 1.0540	53.0870
 1.0550	53.0920
 1.0560	53.0980
 1.0570	53.1060
 1.0580	53.1190
 1.0590	53.1260
 1.0600	53.1330
 1.0610	53.1370
 1.0620	53.1390
 1.0630	53.1400
 1.0640	53.1360
 1.0650	53.1360
 1.0660	53.1310
 1.0670	53.1320
 1.0680	53.1350
 1.0690	53.1440
 1.0700	53.1460
 1.0710	53.1470
 1.0720	53.1500
 1.0730	53.1500
 1.0740	53.1510
 1.0750	53.1570
 1.0760	53.1580
 1.0770	53.1560
 1.0780	53.1550
 1.0790	53.1520
 1.0800	53.1510
 1.0810	53.1490
 1.0820	53.1460
 1.0830	53.1400
 1.0840	53.1360
 1.0850	53.1320
 1.0860	53.1280
 1.0870	53.1250
 1.0880	53.1240
 1.0890	53.1190
 1.0900	53.1090
 1.0910	53.1030
 1.0920	53.0980
 1.0930	53.0920
 1.0940	53.0890
 1.0950	53.0810
 1.0960	53.0680
 1.0970	53.0570
 1.0980	53.0440
 1.0990	53.0330
 1.1000	53.0250
 1.1010	53.0150
 1.1020	53.0040
 1.1030	52.9960
 1.1040	52.9850
 1.1050	52.9730
 1.1060	52.9600
 1.1070	52.9470
 1.1080	52.9330
 1.1090	52.9180
 1.1100	52.9030
 1.1110	52.8870
 1.1120	52.8710
 1.1130	52.8580
 1.1140	52.8410
 1.1150	52.8250
 1.1160	52.8030
 1.1170	52.7780
 1.1180	52.7520
 1.1190	52.7250
 1.1200	52.6950
 1.1210	52.6670
 1.1220	52.6360
 1.1230	52.5990
 1.1240	52.5600
 1.1250	52.5160
 1.1260	52.4670
 1.1270	52.4140
 1.1280	52.3590
 1.1290	52.2970
 1.1300	52.2300
 1.1310	52.1570
 1.1320	52.0790
 1.1330	51.9930
 1.1340	51.8990
 1.1350	51.8000
 1.1360	51.6930
 1.1370	51.5820
 1.1380	51.4650
 1.1390	51.3430
 1.1400	51.2160
 1.1410	51.0870
 1.1420	50.9550
 1.1430	50.8240
 1.1440	50.6940
 1.1450	50.5630
 1.1460	50.4360
 1.1470	50.3110
 1.1480	50.1910
 1.1490	50.0730
 1.1500	49.9620
 1.1510	49.8550
 1.1520	49.7550
 1.1530	49.6610
 1.1540	49.5740
 1.1550	49.4920
 1.1560	49.4170
 1.1570	49.3490
 1.1580	49.2870
 1.1590	49.2310
 1.1600	49.1800
 1.1610	49.1340
 1.1620	49.0940
 1.1630	49.0560
 1.1640	49.0230
 1.1650	48.9900
 1.1660	48.9590
 1.1670	48.9300
 1.1680	48.9040
 1.1690	48.8770
 1.1700	48.8540
 1.1710	48.8300
 1.1720	48.8060
 1.1730	48.7830
 1.1740	48.7630
 1.1750	48.7400
 1.1760	48.7160
 1.1770	48.6910
 1.1780	48.6620
 1.1790	48.6330
 1.1800	48.6020
 1.1810	48.5710
 1.1820	48.5420
 1.1830	48.5140
 1.1840	48.4850
 1.1850	48.4570
 1.1860	48.4280
 1.1870	48.4020
 1.1880	48.3780
 1.1890	48.3570
 1.1900	48.3380
 1.1910	48.3230
 1.1920	48.3080
 1.1930	48.2950
 1.1940	48.2840
 1.1950	48.2740
 1.1960	48.2670
 1.1970	48.2640
 1.1980	48.2630
 1.1990	48.2630
 1.2000	48.2670
 1.2010	48.2740
 1.2020	48.2810
 1.2030	48.2920
 1.2040	48.3060
 1.2050	48.3180
 1.2060	48.3360
 1.2070	48.3570
 1.2080	48.3790
 1.2090	48.4050
 1.2100	48.4310
 1.2110	48.4590
 1.2120	48.4890
 1.2130	48.5210
 1.2140	48.5550
 1.2150	48.5900
 1.2160	48.6270
 1.2170	48.6630
 1.2180	48.7030
 1.2190	48.7440
 1.2200	48.7840
 1.2210	48.8260
 1.2220	48.8670
 1.2230	48.9060
 1.2240	48.9460
 1.2250	48.9840
 1.2260	49.0230
 1.2270	49.0590
 1.2280	49.0910
 1.2290	49.1270
 1.2300	49.1610
 1.2310	49.1930
 1.2320	49.2240
 1.2330	49.2520
 1.2340	49.2800
 1.2350	49.3050
 1.2360	49.3290
 1.2370	49.3510
 1.2380	49.3750
 1.2390	49.3960
 1.2400	49.4170
 1.2410	49.4420
 1.2420	49.4640
 1.2430	49.4840
 1.2440	49.5050
 1.2450	49.5210
 1.2460	49.5370
 1.2470	49.5530
 1.2480	49.5640
 1.2490	49.5770
 1.2500	49.5870
 1.2510	49.5970
 1.2520	49.6070
 1.2530	49.6180
 1.2540	49.6290
 1.2550	49.6390
 1.2560	49.6500
 1.2570	49.6580
 1.2580	49.6630
 1.2590	49.6680
 1.2600	49.6710
 1.2610	49.6730
 1.2620	49.6750
 1.2630	49.6770
 1.2640	49.6780
 1.2650	49.6790
 1.2660	49.6790
 1.2670	49.6760
 1.2680	49.6720
 1.2690	49.6660
 1.2700	49.6610
 1.2710	49.6550
 1.2720	49.6480
 1.2730	49.6420
 1.2740	49.6320
 1.2750	49.6220
 1.2760	49.6140
 1.2770	49.6030
 1.2780	49.5900
 1.2790	49.5770
 1.2800	49.5610
 1.2810	49.5430
 1.2820	49.5250
 1.2830	49.5080
 1.2840	49.4880
 1.2850	49.4690
 1.2860	49.4510
 1.2870	49.4290
 1.2880	49.4060
 1.2890	49.3800
 1.2900	49.3510
 1.2910	49.3190
 1.2920	49.2890
 1.2930	49.2580
 1.2940	49.2270
 1.2950	49.1960
 1.2960	49.1620
 1.2970	49.1260
 1.2980	49.0880
 1.2990	49.0480
 1.3000	49.0050
 1.3010	48.9580
 1.3020	48.9080
 1.3030	48.8580
 1.3040	48.8030
 1.3050	48.7470
 1.3060	48.6910
 1.3070	48.6310
 1.3080	48.5670
 1.3090	48.5020
 1.3100	48.4340
 1.3110	48.3610
 1.3120	48.2860
 1.3130	48.2090
 1.3140	48.1280
 1.3150	48.0440
 1.3160	47.9580
 1.3170	47.8720
 1.3180	47.7780
 1.3190	47.6830
 1.3200	47.5820
 1.3210	47.4760
 1.3220	47.3680
 1.3230	47.2570
 1.3240	47.1420
 1.3250	47.0260
 1.3260	46.9090
 1.3270	46.7920
 1.3280	46.6720
 1.3290	46.5480
 1.3300	46.4220
 1.3310	46.2920
 1.3320	46.1600
 1.3330	46.0280
 1.3340	45.8920
 1.3350	45.7560
 1.3360	45.6210
 1.3370	45.4830
 1.3380	45.3440
 1.3390	45.2050
 1.3400	45.0640
 1.3410	44.9240
 1.3420	44.7880
 1.3430	44.6520
 1.3440	44.5170
 1.3450	44.3820
 1.3460	44.2480
 1.3470	44.1120
 1.3480	43.9740
 1.3490	43.8390
 1.3500	43.7070
 1.3510	43.5740
 1.3520	43.4410
 1.3530	43.3100
 1.3540	43.1750
 1.3550	43.0380
 1.3560	42.9030
 1.3570	42.7650
 1.3580	42.6280
 1.3590	42.4890
 1.3600	42.3480
 1.3610	42.2030
 1.3620	42.0530
 1.3630	41.8970
 1.3640	41.7350
 1.3650	41.5650
 1.3660	41.3890
 1.3670	41.2060
 1.3680	41.0120
 1.3690	40.8080
 1.3700	40.5900
 1.3710	40.3610
 1.3720	40.1170
 1.3730	39.8570
 1.3740	39.5820
 1.3750	39.2880
 1.3760	38.9730
 1.3770	38.6370
 1.3780	38.2770
 1.3790	37.8960
 1.3800	37.4910
 1.3810	37.0600
 1.3820	36.6120
 1.3830	36.1410
 1.3840	35.6540
 1.3850	35.1480
 1.3860	34.6270
 1.3870	34.0860
 1.3880	33.5400
 1.3890	32.9800
 1.3900	32.4100
 1.3910	31.8410
 1.3920	31.2650
 1.3930	30.6850
 1.3940	30.1090
 1.3950	29.5300
 1.3960	28.9590
 1.3970	28.4000
 1.3980	27.8500
 1.3990	27.3210
 1.4000	26.8060
 1.4010	26.3040
 1.4020	25.8230
 1.4030	25.3570
 1.4040	24.9120
 1.4050	24.4910
 1.4060	24.0910
 1.4070	23.7150
 1.4080	23.3610
 1.4090	23.0270
 1.4100	22.7150
 1.4110	22.4220
 1.4120	22.1500
 1.4130	21.8990
 1.4140	21.6650
 1.4150	21.4520
 1.4160	21.2570
 1.4170	21.0750
 1.4180	20.9110
 1.4190	20.7580
 1.4200	20.6180
 1.4210	20.4920
 1.4220	20.3780
 1.4230	20.2760
 1.4240	20.1840
 1.4250	20.0990
 1.4260	20.0230
 1.4270	19.9550
 1.4280	19.8950
 1.4290	19.8420
 1.4300	19.7970
 1.4310	19.7570
 1.4320	19.7250
 1.4330	19.6960
 1.4340	19.6730
 1.4350	19.6550
 1.4360	19.6430
 1.4370	19.6340
 1.4380	19.6290
 1.4390	19.6300
 1.4400	19.6340
 1.4410	19.6400
 1.4420	19.6490
 1.4430	19.6600
 1.4440	19.6730
 1.4450	19.6880
 1.4460	19.7050
 1.4470	19.7260
 1.4480	19.7460
 1.4490	19.7690
 1.4500	19.7930
 1.4510	19.8170
 1.4520	19.8440
 1.4530	19.8710
 1.4540	19.9000
 1.4550	19.9320
 1.4560	19.9660
 1.4570	20.0030
 1.4580	20.0430
 1.4590	20.0850
 1.4600	20.1310
 1.4610	20.1810
 1.4620	20.2360
 1.4630	20.2960
 1.4640	20.3580
 1.4650	20.4270
 1.4660	20.5000
 1.4670	20.5770
 1.4680	20.6610
 1.4690	20.7500
 1.4700	20.8430
 1.4710	20.9420
 1.4720	21.0430
 1.4730	21.1470
 1.4740	21.2550
 1.4750	21.3640
 1.4760	21.4770
 1.4770	21.5930
 1.4780	21.7090
 1.4790	21.8290
 1.4800	21.9500
 1.4810	22.0740
 1.4820	22.2010
 1.4830	22.3290
 1.4840	22.4570
 1.4850	22.5850
 1.4860	22.7120
 1.4870	22.8420
 1.4880	22.9720
 1.4890	23.1020
 1.4900	23.2330
 1.4910	23.3650
 1.4920	23.4970
 1.4930	23.6300
 1.4940	23.7630
 1.4950	23.8950
 1.4960	24.0290
 1.4970	24.1620
 1.4980	24.2960
 1.4990	24.4310
 1.5000	24.5650
 1.5010	24.6990
 1.5020	24.8320
 1.5030	24.9650
 1.5040	25.0980
 1.5050	25.2300
 1.5060	25.3640
 1.5070	25.4970
 1.5080	25.6290
 1.5090	25.7620
 1.5100	25.8920
 1.5110	26.0210
 1.5120	26.1500
 1.5130	26.2770
 1.5140	26.4020
 1.5150	26.5270
 1.5160	26.6510
 1.5170	26.7760
 1.5180	26.9000
 1.5190	27.0240
 1.5200	27.1470
 1.5210	27.2670
 1.5220	27.3870
 1.5230	27.5070
 1.5240	27.6220
 1.5250	27.7370
 1.5260	27.8520
 1.5270	27.9660
 1.5280	28.0790
 1.5290	28.1900
 1.5300	28.2990
 1.5310	28.4080
 1.5320	28.5160
 1.5330	28.6240
 1.5340	28.7300
 1.5350	28.8340
 1.5360	28.9380
 1.5370	29.0390
 1.5380	29.1410
 1.5390	29.2440
 1.5400	29.3460
 1.5410	29.4470
 1.5420	29.5470
 1.5430	29.6440
 1.5440	29.7410
 1.5450	29.8350
 1.5460	29.9290
 1.5470	30.0240
 1.5480	30.1160
 1.5490	30.2080
 1.5500	30.3010
 1.5510	30.3920
 1.5520	30.4830
 1.5530	30.5740
 1.5540	30.6630
 1.5550	30.7510
 1.5560	30.8370
 1.5570	30.9220
 1.5580	31.0050
 1.5590	31.0860
 1.5600	31.1710
 1.5610	31.2540
 1.5620	31.3350
 1.5630	31.4160
 1.5640	31.4940
 1.5650	31.5700
 1.5660	31.6470
 1.5670	31.7240
 1.5680	31.7990
 1.5690	31.8730
 1.5700	31.9480
 1.5710	32.0230
 1.5720	32.0970
 1.5730	32.1730
 1.5740	32.2480
 1.5750	32.3220
 1.5760	32.3960
 1.5770	32.4680
 1.5780	32.5390
 1.5790	32.6090
 1.5800	32.6780
 1.5810	32.7490
 1.5820	32.8190
 1.5830	32.8890
 1.5840	32.9590
 1.5850	33.0280
 1.5860	33.0970
 1.5870	33.1650
 1.5880	33.2340
 1.5890	33.3030
 1.5900	33.3720
 1.5910	33.4390
 1.5920	33.5070
 1.5930	33.5740
 1.5940	33.6420
 1.5950	33.7080
 1.5960	33.7730
 1.5970	33.8360
 1.5980	33.8990
 1.5990	33.9610
 1.6000	34.0230
 1.6010	34.0860
 1.6020	34.1480
 1.6030	34.2080
 1.6040	34.2670
 1.6050	34.3240
 1.6060	34.3800
 1.6070	34.4340
 1.6080	34.4900
 1.6090	34.5460
 1.6100	34.6000
 1.6110	34.6540
 1.6120	34.7060
 1.6130	34.7570
 1.6140	34.8070
 1.6150	34.8570
 1.6160	34.9060
 1.6170	34.9540
 1.6180	35.0010
 1.6190	35.0460
 1.6200	35.0880
 1.6210	35.1290
 1.6220	35.1690
 1.6230	35.2080
 1.6240	35.2470
 1.6250	35.2840
 1.6260	35.3190
 1.6270	35.3530
 1.6280	35.3850
 1.6290	35.4170
 1.6300	35.4480
 1.6310	35.4790
 1.6320	35.5100
 1.6330	35.5390
 1.6340	35.5680
 1.6350	35.5970
 1.6360	35.6240
 1.6370	35.6530
 1.6380	35.6830
 1.6390	35.7100
 1.6400	35.7360
 1.6410	35.7620
 1.6420	35.7850
 1.6430	35.8090
 1.6440	35.8340
 1.6450	35.8560
 1.6460	35.8750
 1.6470	35.8920
 1.6480	35.9050
 1.6490	35.9150
 1.6500	35.9210
 1.6510	35.9230
 1.6520	35.9240
 1.6530	35.9220
 1.6540	35.9190
 1.6550	35.9140
 1.6560	35.9040
 1.6570	35.8950
 1.6580	35.8830
 1.6590	35.8690
 1.6600	35.8540
 1.6610	35.8360
 1.6620	35.8170
 1.6630	35.7980
 1.6640	35.7770
 1.6650	35.7530
 1.6660	35.7270
 1.6670	35.7000
 1.6680	35.6700
 1.6690	35.6370
 1.6700	35.6020
 1.6710	35.5590
 1.6720	35.5140
 1.6730	35.4660
 1.6740	35.4140
 1.6750	35.3600
 1.6760	35.3020
 1.6770	35.2430
 1.6780	35.1810
 1.6790	35.1150
 1.6800	35.0470
 1.6810	34.9750
 1.6820	34.8990
 1.6830	34.8190
 1.6840	34.7380
 1.6850	34.6530
 1.6860	34.5650
 1.6870	34.4770
 1.6880	34.3880
 1.6890	34.2970
 1.6900	34.2080
 1.6910	34.1180
 1.6920	34.0320
 1.6930	33.9490
 1.6940	33.8670
 1.6950	33.7860
 1.6960	33.7060
 1.6970	33.6260
 1.6980	33.5480
 1.6990	33.4700
 1.7000	33.3950
 1.7010	33.3220
 1.7020	33.2480
 1.7030	33.1740
 1.7040	33.1010
 1.7050	33.0270
 1.7060	32.9550
 1.7070	32.8840
 1.7080	32.8150
 1.7090	32.7460
 1.7100	32.6830
 1.7110	32.6240
 1.7120	32.5680
 1.7130	32.5140
 1.7140	32.4640
 1.7150	32.4160
 1.7160	32.3740
 1.7170	32.3350
 1.7180	32.2950
 1.7190	32.2570
 1.7200	32.2210
 1.7210	32.1840
 1.7220	32.1480
 1.7230	32.1150
 1.7240	32.0840
 1.7250	32.0540
 1.7260	32.0270
 1.7270	32.0030
 1.7280	31.9820
 1.7290	31.9610
 1.7300	31.9470
 1.7310	31.9320
 1.7320	31.9200
 1.7330	31.9070
 1.7340	31.8940
 1.7350	31.8790
 1.7360	31.8670
 1.7370	31.8470
 1.7380	31.8240
 1.7390	31.7960
 1.7400	31.7610
 1.7410	31.7220
 1.7420	31.6800
 1.7430	31.6330
 1.7440	31.5790
 1.7450	31.5250
 1.7460	31.4660
 1.7470	31.4080
 1.7480	31.3480
 1.7490	31.2890
 1.7500	31.2290
 1.7510	31.1700
 1.7520	31.1100
 1.7530	31.0530
 1.7540	30.9960
 1.7550	30.9410
 1.7560	30.8860
 1.7570	30.8350
 1.7580	30.7860
 1.7590	30.7430
 1.7600	30.7030
 1.7610	30.6640
 1.7620	30.6270
 1.7630	30.5900
 1.7640	30.5570
 1.7650	30.5300
 1.7660	30.5020
 1.7670	30.4780
 1.7680	30.4510
 1.7690	30.4220
 1.7700	30.3960
 1.7710	30.3700
 1.7720	30.3460
 1.7730	30.3260
 1.7740	30.3060
 1.7750	30.2870
 1.7760	30.2690
 1.7770	30.2500
 1.7780	30.2350
 1.7790	30.2220
 1.7800	30.2130
 1.7810	30.2090
 1.7820	30.2060
 1.7830	30.2070
 1.7840	30.2070
 1.7850	30.2070
 1.7860	30.2110
 1.7870	30.2150
 1.7880	30.2230
 1.7890	30.2330
 1.7900	30.2410
 1.7910	30.2490
 1.7920	30.2550
 1.7930	30.2640
 1.7940	30.2790
 1.7950	30.2920
 1.7960	30.3070
 1.7970	30.3200
 1.7980	30.3290
 1.7990	30.3410
 1.8000	30.3530
 1.8010	30.3660
 1.8020	30.3830
 1.8030	30.3980
 1.8040	30.4130
 1.8050	30.4250
 1.8060	30.4330
 1.8070	30.4430
 1.8080	30.4510
 1.8090	30.4620
 1.8100	30.4760
 1.8110	30.4850
 1.8120	30.4930
 1.8130	30.4970
 1.8140	30.5030
 1.8150	30.5090
 1.8160	30.5160
 1.8170	30.5250
 1.8180	30.5310
 1.8190	30.5370
 1.8200	30.5400
 1.8210	30.5380
 1.8220	30.5370
 1.8230	30.5350
 1.8240	30.5340
 1.8250	30.5360
 1.8260	30.5310
 1.8270	30.5620
 1.8280	30.5940
 1.8290	30.6250
 1.8300	30.6570
 1.8310	30.6880
 1.8320	30.7190
 1.8330	30.7510
 1.8340	30.7820
 1.8350	30.7820
 1.8360	30.7430
 1.8370	30.7000
 1.8380	30.6500
 1.8390	30.5940
 1.8400	30.5320
 1.8410	30.4660
 1.8420	30.3960
 1.8430	30.3190
 1.8440	30.2370
 1.8450	30.1480
 1.8460	30.0460
 1.8470	29.9370
 1.8480	29.8200
 1.8490	29.6870
 1.8500	29.5440
 1.8510	29.3890
 1.8520	29.2250
 1.8530	29.0450
 1.8540	28.8570
 1.8550	28.6580
 1.8560	28.4390
 1.8570	28.2080
 1.8580	27.9630
 1.8590	27.7030
 1.8600	27.4270
 1.8610	27.1380
 1.8620	26.8290
 1.8630	26.5030
 1.8640	26.1610
 1.8650	25.7970
 1.8660	25.4130
 1.8670	25.0080
 1.8680	24.5830
 1.8690	24.1400
 1.8700	23.6800
 1.8710	23.2020
 1.8720	22.7170
 1.8730	22.2220
 1.8740	21.7140
 1.8750	21.2020
 1.8760	20.6780
 1.8770	20.1520
 1.8780	19.6280
 1.8790	19.1030
 1.8800	18.5850
 1.8810	18.0720
 1.8820	17.5600
 1.8830	17.0540
 1.8840	16.5590
 1.8850	16.0690
 1.8860	15.5970
 1.8870	15.1420
 1.8880	14.7000
 1.8890	14.2830
 1.8900	13.8870
 1.8910	13.5140
 1.8920	13.1590
 1.8930	12.8320
 1.8940	12.5270
 1.8950	12.2450
 1.8960	11.9870
 1.8970	11.7480
 1.8980	11.5340
 1.8990	11.3380
 1.9000	11.1570
 1.9010	10.9970
 1.9020	10.8500
 1.9030	10.7190
 1.9040	10.6030
 1.9050	10.5030
 1.9060	10.4120
 1.9070	10.3340
 1.9080	10.2650
 1.9090	10.2050
 1.9100	10.1530
 1.9110	10.1060
 1.9120	10.0680
 1.9130	10.0310
 1.9140	 9.9990
 1.9150	 9.9700
 1.9160	 9.9440
 1.9170	 9.9220
 1.9180	 9.9040
 1.9190	 9.8910
 1.9200	 9.8810
 1.9210	 9.8730
 1.9220	 9.8660
 1.9230	 9.8620
 1.9240	 9.8590
 1.9250	 9.8580
 1.9260	 9.8580
 1.9270	 9.8580
 1.9280	 9.8620
 1.9290	 9.8680
 1.9300	 9.8750
 1.9310	 9.8820
 1.9320	 9.8920
 1.9330	 9.9030
 1.9340	 9.9160
 1.9350	 9.9300
 1.9360	 9.9480
 1.9370	 9.9650
 1.9380	 9.9840
 1.9390	10.0060
 1.9400	10.0260
 1.9410	10.0490
 1.9420	10.0720
 1.9430	10.0940
 1.9440	10.1190
 1.9450	10.1440
 1.9460	10.1710
 1.9470	10.2000
 1.9480	10.2310
 1.9490	10.2630
 1.9500	10.2970
 1.9510	10.3300
 1.9520	10.3630
 1.9530	10.3960
 1.9540	10.4300
 1.9550	10.4660
 1.9560	10.5040
 1.9570	10.5430
 1.9580	10.5830
 1.9590	10.6240
 1.9600	10.6650
 1.9610	10.7090
 1.9620	10.7540
 1.9630	10.8020
 1.9640	10.8520
 1.9650	10.9000
 1.9660	10.9490
 1.9670	10.9980
 1.9680	11.0480
 1.9690	11.0990
 1.9700	11.1510
 1.9710	11.2040
 1.9720	11.2580
 1.9730	11.3120
 1.9740	11.3650
 1.9750	11.4180
 1.9760	11.4750
 1.9770	11.5330
 1.9780	11.5920
 1.9790	11.6520
 1.9800	11.7130
 1.9810	11.7750
 1.9820	11.8370
 1.9830	11.8990
 1.9840	11.9610
 1.9850	12.0250
 1.9860	12.0890
 1.9870	12.1530
 1.9880	12.2170
 1.9890	12.2830
 1.9900	12.3500
 1.9910	12.4150
 1.9920	12.4820
 1.9930	12.5510
 1.9940	12.6210
 1.9950	12.6920
 1.9960	12.7610
 1.9970	12.8300
 1.9980	12.8990
 1.9990	12.9660
 2.0000	13.0370
 2.0010	13.1050
 2.0020	13.1750
 2.0030	13.2440
 2.0040	13.3120
 2.0050	13.3810
 2.0060	13.4510
 2.0070	13.5200
 2.0080	13.5900
 2.0090	13.6580
 2.0100	13.7240
 2.0110	13.7910
 2.0120	13.8590
 2.0130	13.9240
 2.0140	13.9900
 2.0150	14.0570
 2.0160	14.1240
 2.0170	14.1900
 2.0180	14.2540
 2.0190	14.3160
 2.0200	14.3770
 2.0210	14.4340
 2.0220	14.4920
 2.0230	14.5490
 2.0240	14.6080
 2.0250	14.6720
 2.0260	14.7300
 2.0270	14.7860
 2.0280	14.8410
 2.0290	14.8940
 2.0300	14.9460
 2.0310	14.9970
 2.0320	15.0490
 2.0330	15.0990
 2.0340	15.1450
 2.0350	15.1920
 2.0360	15.2400
 2.0370	15.2860
 2.0380	15.3300
 2.0390	15.3750
 2.0400	15.4180
 2.0410	15.4620
 2.0420	15.5070
 2.0430	15.5490
 2.0440	15.5900
 2.0450	15.6310
 2.0460	15.6700
 2.0470	15.7070
 2.0480	15.7450
 2.0490	15.7810
 2.0500	15.8190
 2.0510	15.8570
 2.0520	15.8950
 2.0530	15.9380
 2.0540	15.9780
 2.0550	16.0160
 2.0560	16.0560
 2.0570	16.0980
 2.0580	16.1360
 2.0590	16.1780
 2.0600	16.2240
 2.0610	16.2650
 2.0620	16.3040
 2.0630	16.3460
 2.0640	16.3860
 2.0650	16.4290
 2.0660	16.4770
 2.0670	16.5210
 2.0680	16.5620
 2.0690	16.6050
 2.0700	16.6490
 2.0710	16.6910
 2.0720	16.7320
 2.0730	16.7760
 2.0740	16.8170
 2.0750	16.8550
 2.0760	16.8950
 2.0770	16.9350
 2.0780	16.9770
 2.0790	17.0190
 2.0800	17.0620
 2.0810	17.1080
 2.0820	17.1520
 2.0830	17.1940
 2.0840	17.2370
 2.0850	17.2760
 2.0860	17.3180
 2.0870	17.3630
 2.0880	17.4040
 2.0890	17.4450
 2.0900	17.4860
 2.0910	17.5270
 2.0920	17.5660
 2.0930	17.6060
 2.0940	17.6480
 2.0950	17.6900
 2.0960	17.7320
 2.0970	17.7730
 2.0980	17.8150
 2.0990	17.8560
 2.1000	17.8980
 2.1010	17.9400
 2.1020	17.9810
 2.1030	18.0230
 2.1040	18.0670
 2.1050	18.1100
 2.1060	18.1520
 2.1070	18.1940
 2.1080	18.2360
 2.1090	18.2760
 2.1100	18.3160
 2.1110	18.3570
 2.1120	18.3980
 2.1130	18.4410
 2.1140	18.4830
 2.1150	18.5270
 2.1160	18.5680
 2.1170	18.6070
 2.1180	18.6470
 2.1190	18.6880
 2.1200	18.7280
 2.1210	18.7680
 2.1220	18.8070
 2.1230	18.8440
 2.1240	18.8790
 2.1250	18.9160
 2.1260	18.9520
 2.1270	18.9890
 2.1280	19.0290
 2.1290	19.0650
 2.1300	19.1000
 2.1310	19.1300
 2.1320	19.1550
 2.1330	19.1840
 2.1340	19.2110
 2.1350	19.2390
 2.1360	19.2680
 2.1370	19.2970
 2.1380	19.3280
 2.1390	19.3560
 2.1400	19.3830
 2.1410	19.4100
 2.1420	19.4350
 2.1430	19.4560
 2.1440	19.4800
 2.1450	19.5060
 2.1460	19.5300
 2.1470	19.5530
 2.1480	19.5760
 2.1490	19.5990
 2.1500	19.6230
 2.1510	19.6500
 2.1520	19.6730
 2.1530	19.6920
 2.1540	19.7140
 2.1550	19.7350
 2.1560	19.7550
 2.1570	19.7750
 2.1580	19.7940
 2.1590	19.8090
 2.1600	19.8230
 2.1610	19.8420
 2.1620	19.8590
 2.1630	19.8770
 2.1640	19.8920
 2.1650	19.9110
 2.1660	19.9310
 2.1670	19.9510
 2.1680	19.9740
 2.1690	19.9940
 2.1700	20.0130
 2.1710	20.0330
 2.1720	20.0520
 2.1730	20.0750
 2.1740	20.1030
 2.1750	20.1270
 2.1760	20.1520
 2.1770	20.1750
 2.1780	20.1920
 2.1790	20.2130
 2.1800	20.2360
 2.1810	20.2590
 2.1820	20.2820
 2.1830	20.3070
 2.1840	20.3290
 2.1850	20.3500
 2.1860	20.3720
 2.1870	20.3940
 2.1880	20.4140
 2.1890	20.4340
 2.1900	20.4530
 2.1910	20.4700
 2.1920	20.4910
 2.1930	20.5130
 2.1940	20.5370
 2.1950	20.5660
 2.1960	20.5890
 2.1970	20.6120
 2.1980	20.6310
 2.1990	20.6460
 2.2000	20.6620
 2.2010	20.6760
 2.2020	20.6880
 2.2030	20.6980
 2.2040	20.7070
 2.2050	20.7120
 2.2060	20.7220
 2.2070	20.7310
 2.2080	20.7430
 2.2090	20.7480
 2.2100	20.7510
 2.2110	20.7500
 2.2120	20.7430
 2.2130	20.7380
 2.2140	20.7310
 2.2150	20.7260
 2.2160	20.7220
 2.2170	20.7140
 2.2180	20.7090
 2.2190	20.6970
 2.2200	20.6810
 2.2210	20.6640
 2.2220	20.6450
 2.2230	20.6220
 2.2240	20.5960
 2.2250	20.5700
 2.2260	20.5390
 2.2270	20.5120
 2.2280	20.4920
 2.2290	20.4640
 2.2300	20.4310
 2.2310	20.3980
 2.2320	20.3580
 2.2330	20.3130
 2.2340	20.2680
 2.2350	20.2230
 2.2360	20.1720
 2.2370	20.1180
 2.2380	20.0600
 2.2390	19.9960
 2.2400	19.9320
 2.2410	19.8640
 2.2420	19.7940
 2.2430	19.7220
 2.2440	19.6480
 2.2450	19.5670
 2.2460	19.4900
 2.2470	19.4120
 2.2480	19.3330
 2.2490	19.2560
 2.2500	19.1740
 2.2510	19.0900
 2.2520	19.0040
 2.2530	18.9170
 2.2540	18.8280
 2.2550	18.7390
 2.2560	18.6470
 2.2570	18.5540
 2.2580	18.4600
 2.2590	18.3610
 2.2600	18.2660
 2.2610	18.1770
 2.2620	18.0840
 2.2630	17.9930
 2.2640	17.9070
 2.2650	17.8200
 2.2660	17.7330
 2.2670	17.6500
 2.2680	17.5700
 2.2690	17.4960
 2.2700	17.4250
 2.2710	17.3590
 2.2720	17.3010
 2.2730	17.2400
 2.2740	17.1820
 2.2750	17.1260
 2.2760	17.0710
 2.2770	17.0200
 2.2780	16.9750
 2.2790	16.9280
 2.2800	16.8830
 2.2810	16.8360
 2.2820	16.7860
 2.2830	16.7370
 2.2840	16.6880
 2.2850	16.6360
 2.2860	16.5820
 2.2870	16.5290
 2.2880	16.4740
 2.2890	16.4200
 2.2900	16.3670
 2.2910	16.3110
 2.2920	16.2520
 2.2930	16.1940
 2.2940	16.1330
 2.2950	16.0750
 2.2960	16.0200
 2.2970	15.9620
 2.2980	15.9050
 2.2990	15.8460
 2.3000	15.7830
 2.3010	15.7210
 2.3020	15.6660
 2.3030	15.6150
 2.3040	15.5750
 2.3050	15.5430
 2.3060	15.5120
 2.3070	15.4860
 2.3080	15.4640
 2.3090	15.4420
 2.3100	15.4220
 2.3110	15.4060
 2.3120	15.3970
 2.3130	15.3940
 2.3140	15.3910
 2.3150	15.3970
 2.3160	15.3990
 2.3170	15.4010
 2.3180	15.4000
 2.3190	15.4020
 2.3200	15.3990
 2.3210	15.3920
 2.3220	15.3850
 2.3230	15.3800
 2.3240	15.3680
 2.3250	15.3520
 2.3260	15.3340
 2.3270	15.3120
 2.3280	15.2870
 2.3290	15.2590
 2.3300	15.2290
 2.3310	15.1920
 2.3320	15.1610
 2.3330	15.1340
 2.3340	15.1040
 2.3350	15.0760
 2.3360	15.0430
 2.3370	15.0070
 2.3380	14.9720
 2.3390	14.9370
 2.3400	14.9040
 2.3410	14.8740
 2.3420	14.8430
 2.3430	14.8120
 2.3440	14.7810
 2.3450	14.7490
 2.3460	14.7200
 2.3470	14.6920
 2.3480	14.6660
 2.3490	14.6400
 2.3500	14.6160
 2.3510	14.5950
 2.3520	14.5730
 2.3530	14.5490
 2.3540	14.5320
 2.3550	14.5130
 2.3560	14.4930
 2.3570	14.4740
 2.3580	14.4510
 2.3590	14.4330
 2.3600	14.4170
 2.3610	14.4010
 2.3620	14.3850
 2.3630	14.3690
 2.3640	14.3440
 2.3650	14.3210
 2.3660	14.3000
 2.3670	14.2690
 2.3680	14.2400
 2.3690	14.2170
 2.3700	14.1930
 2.3710	14.1710
 2.3720	14.1470
 2.3730	14.1200
 2.3740	14.0860
 2.3750	14.0570
 2.3760	14.0330
 2.3770	14.0020
 2.3780	13.9810
 2.3790	13.9610
 2.3800	13.9350
 2.3810	13.9090
 2.3820	13.8760
 2.3830	13.8410
 2.3840	13.8110
 2.3850	13.7760
 2.3860	13.7410
 2.3870	13.7060
 2.3880	13.6680
 2.3890	13.6360
 2.3900	13.6090
 2.3910	13.5780
 2.3920	13.5420
 2.3930	13.5100
 2.3940	13.4840
 2.3950	13.4530
 2.3960	13.4180
 2.3970	13.3880
 2.3980	13.3490
 2.3990	13.3140
 2.4000	13.2830
 2.4010	13.2450
 2.4020	13.2130
 2.4030	13.1830
 2.4040	13.1480
 2.4050	13.1130
 2.4060	13.0860
 2.4070	13.0550
 2.4080	13.0200
 2.4090	12.9910
 2.4100	12.9470
 2.4110	12.8950
 2.4120	12.8600
 2.4130	12.8150
 2.4140	12.7700
 2.4150	12.7440
 2.4160	12.7100
 2.4170	12.6790
 2.4180	12.6530
 2.4190	12.6220
 2.4200	12.5870
 2.4210	12.5510
 2.4220	12.5210
 2.4230	12.4860
 2.4240	12.4580
 2.4250	12.4310
 2.4260	12.3870
 2.4270	12.3420
 2.4280	12.3030
 2.4290	12.2680
 2.4300	12.2420
 2.4310	12.2100
 2.4320	12.1620
 2.4330	12.1000
 2.4340	12.0410
 2.4350	12.0050
 2.4360	11.9730
 2.4370	11.9470
 2.4380	11.9240
 2.4390	11.8820
 2.4400	11.8450
 2.4410	11.8290
 2.4420	11.8020
 2.4430	11.7630
 2.4440	11.7220
 2.4450	11.6720
 2.4460	11.6200
 2.4470	11.5830
 2.4480	11.5600
 2.4490	11.5260
 2.4500	11.4930
 2.4510	11.4620
 2.4520	11.4160
 2.4530	11.3790
 2.4540	11.3490
 2.4550	11.3300
 2.4560	11.3140
 2.4570	11.2830
 2.4580	11.2510
 2.4590	11.2060
 2.4600	11.1530
 2.4610	11.1130
 2.4620	11.0800
 2.4630	11.0560
 2.4640	11.0400
 2.4650	11.0040
 2.4660	10.9600
 2.4670	10.9220
 2.4680	10.8940
 2.4690	10.9190
 2.4700	10.9120
 2.4710	10.8970
 2.4720	10.8700
 2.4730	10.8070
 2.4740	10.7740
 2.4750	10.7570
 2.4760	10.7380
 2.4770	10.7350
 2.4780	10.7230
 2.4790	10.6940
 2.4800	10.6720
 2.4810	10.6640
 2.4820	10.6110
 2.4830	10.6080
 2.4840	10.5910
 2.4850	10.5400
 2.4860	10.5490
 2.4870	10.5450
 2.4880	10.5490
 2.4890	10.5830
 2.4900	10.5900
 2.4910	10.5980
 2.4920	10.5690
 2.4930	10.5410
 2.4940	10.5550
 2.4950	10.5310
 2.4960	10.5370
 2.4970	10.5870
 2.4980	10.5810
 2.4990	10.5620
 2.5000	10.5410
