Name: Pinus strobus
Type: Vegetation
Class: Tree
Genus: Pinus
Species: strobus
Sample No.: PIST-2-27
Owner: UCSB
Wavelength Range: TIR
Origin: USA; Massachusetts; Harvard Forest
Collection Date: 7/8/2013
Description: Samples were collected as part of NSF Macrosystem Biology proposal titled: Collaborative Research: Thermal controls on ecosystem metabolism and function: scaling from leaves to canopies to regions. Samples were collected and overnighted to JPL facilities for processing. The same leaves were processed in the Nicolet and then measured using the ASD.
Measurement: Hemispherical reflectance
First Column: X
Second Column: Y
X Units: Wavelength (micrometers)
Y Units: Reflectance (percentage)
First X Value: 2.501
Last X Value: 15.387
Number of X Values: 1737
Additional Information: vegetation.tree.pinus.strobus.tir.pist-2-27.ucsb.nicolet.ancillary.txt

 2.5010	 4.8030
 2.5030	 4.4970
 2.5040	 4.1370
 2.5050	 4.0230
 2.5060	 4.4480
 2.5070	 4.6950
 2.5090	 4.6550
 2.5100	 4.3670
 2.5110	 4.2890
 2.5120	 4.1810
 2.5140	 4.2920
 2.5150	 4.3360
 2.5160	 4.3180
 2.5170	 4.4430
 2.5180	 4.5830
 2.5200	 4.5760
 2.5210	 4.5280
 2.5220	 4.2990
 2.5230	 4.2830
 2.5250	 4.3610
 2.5260	 4.2400
 2.5270	 4.1830
 2.5280	 4.2860
 2.5290	 4.3140
 2.5310	 4.4880
 2.5320	 4.5690
 2.5330	 4.4600
 2.5340	 4.1690
 2.5360	 4.0600
 2.5370	 4.2000
 2.5380	 4.4580
 2.5390	 4.2220
 2.5410	 4.1040
 2.5420	 4.1840
 2.5430	 4.5920
 2.5440	 4.6800
 2.5460	 4.4370
 2.5470	 4.3080
 2.5480	 4.4330
 2.5490	 4.2400
 2.5510	 4.4300
 2.5520	 4.5620
 2.5530	 4.4160
 2.5540	 4.2870
 2.5560	 4.4250
 2.5570	 4.2990
 2.5580	 4.0820
 2.5590	 4.1630
 2.5610	 4.6060
 2.5620	 4.7350
 2.5630	 4.6910
 2.5640	 4.4510
 2.5660	 4.4040
 2.5670	 4.2920
 2.5680	 4.1640
 2.5700	 4.0250
 2.5710	 3.9820
 2.5720	 4.0070
 2.5730	 4.2630
 2.5750	 4.1230
 2.5760	 4.2680
 2.5770	 4.3610
 2.5790	 4.2800
 2.5800	 4.1280
 2.5810	 4.3380
 2.5820	 4.3120
 2.5840	 3.8460
 2.5850	 3.7430
 2.5860	 4.1650
 2.5880	 4.4350
 2.5890	 4.2900
 2.5900	 4.2400
 2.5910	 4.4890
 2.5930	 4.3580
 2.5940	 4.6140
 2.5950	 4.9260
 2.5970	 4.8150
 2.5980	 4.4760
 2.5990	 4.1210
 2.6000	 4.1970
 2.6020	 4.2810
 2.6030	 4.1040
 2.6040	 4.2950
 2.6060	 4.2360
 2.6070	 4.1620
 2.6080	 4.0220
 2.6100	 4.0110
 2.6110	 4.2600
 2.6120	 4.5730
 2.6140	 4.1850
 2.6150	 3.6690
 2.6160	 3.6120
 2.6180	 3.8380
 2.6190	 4.0740
 2.6200	 4.1160
 2.6220	 3.9900
 2.6230	 3.9770
 2.6240	 3.8370
 2.6260	 3.6680
 2.6270	 3.7530
 2.6280	 3.8170
 2.6300	 3.5910
 2.6310	 3.3340
 2.6320	 3.3030
 2.6340	 3.5660
 2.6350	 3.6720
 2.6360	 3.7790
 2.6380	 3.7770
 2.6390	 3.8250
 2.6400	 3.4510
 2.6420	 3.2620
 2.6430	 3.5060
 2.6440	 3.7220
 2.6460	 3.4370
 2.6470	 3.4230
 2.6480	 3.3590
 2.6500	 3.2810
 2.6510	 3.4520
 2.6520	 3.6510
 2.6540	 3.4230
 2.6550	 3.1760
 2.6560	 3.4960
 2.6580	 3.6540
 2.6590	 3.1850
 2.6610	 3.0040
 2.6620	 3.3830
 2.6630	 3.3520
 2.6650	 3.0780
 2.6660	 3.0950
 2.6670	 3.0620
 2.6690	 3.3060
 2.6700	 3.2700
 2.6720	 3.2480
 2.6730	 3.2680
 2.6740	 3.2480
 2.6760	 3.1250
 2.6770	 3.3100
 2.6780	 3.3720
 2.6800	 3.2880
 2.6810	 3.1580
 2.6830	 2.9340
 2.6840	 2.8160
 2.6850	 2.9710
 2.6870	 3.0600
 2.6880	 3.1630
 2.6900	 3.1840
 2.6910	 3.1980
 2.6920	 3.2260
 2.6940	 3.1550
 2.6950	 2.9500
 2.6970	 3.0600
 2.6980	 3.0300
 2.6990	 3.1180
 2.7010	 2.8110
 2.7020	 2.5790
 2.7040	 2.6600
 2.7050	 2.5440
 2.7060	 2.5260
 2.7080	 2.6050
 2.7090	 2.7350
 2.7110	 2.9310
 2.7120	 3.0210
 2.7130	 2.9510
 2.7150	 2.9380
 2.7160	 2.6870
 2.7180	 2.4940
 2.7190	 2.8180
 2.7210	 2.6990
 2.7220	 2.6530
 2.7230	 2.3430
 2.7250	 2.0120
 2.7260	 2.1230
 2.7280	 2.7520
 2.7290	 2.7120
 2.7310	 2.7030
 2.7320	 2.3810
 2.7330	 2.4000
 2.7350	 2.3720
 2.7360	 2.5810
 2.7380	 2.6920
 2.7390	 2.4170
 2.7410	 2.4290
 2.7420	 2.7730
 2.7440	 2.7940
 2.7450	 2.5560
 2.7470	 2.2090
 2.7480	 2.5370
 2.7490	 2.7400
 2.7510	 2.8540
 2.7520	 2.1710
 2.7540	 1.5200
 2.7550	 1.0560
 2.7570	 1.3340
 2.7580	 2.4120
 2.7600	 3.2060
 2.7610	 2.6710
 2.7630	 2.0900
 2.7640	 2.3440
 2.7660	 2.6110
 2.7670	 1.6940
 2.7680	 1.7360
 2.7700	 2.6420
 2.7710	 2.7690
 2.7730	 2.3010
 2.7740	 2.2880
 2.7760	 2.4380
 2.7770	 2.4420
 2.7790	 2.4830
 2.7800	 2.7110
 2.7820	 2.8960
 2.7830	 2.6220
 2.7850	 2.4370
 2.7860	 2.7750
 2.7880	 2.5210
 2.7890	 2.4250
 2.7910	 2.2190
 2.7920	 2.0600
 2.7940	 2.5290
 2.7950	 2.6700
 2.7970	 2.1320
 2.7980	 1.9690
 2.8000	 2.0830
 2.8010	 2.6200
 2.8030	 2.6540
 2.8040	 2.3030
 2.8060	 2.0470
 2.8070	 2.3480
 2.8090	 2.6470
 2.8110	 2.7200
 2.8120	 2.6120
 2.8140	 2.7130
 2.8150	 2.5130
 2.8170	 2.4670
 2.8180	 2.5810
 2.8200	 2.9000
 2.8210	 2.9520
 2.8230	 2.9240
 2.8240	 2.5480
 2.8260	 2.7950
 2.8270	 2.8540
 2.8290	 2.7720
 2.8300	 2.9840
 2.8320	 2.6540
 2.8340	 2.1760
 2.8350	 2.2920
 2.8370	 2.4630
 2.8380	 2.7480
 2.8400	 2.5790
 2.8410	 2.3880
 2.8430	 2.4420
 2.8440	 2.6970
 2.8460	 2.7610
 2.8480	 2.8300
 2.8490	 2.7650
 2.8510	 2.6950
 2.8520	 2.5140
 2.8540	 2.4760
 2.8550	 2.5050
 2.8570	 2.5710
 2.8590	 2.7250
 2.8600	 2.9970
 2.8620	 2.7990
 2.8630	 2.7240
 2.8650	 2.5280
 2.8660	 2.6270
 2.8680	 2.5410
 2.8700	 2.6010
 2.8710	 2.7480
 2.8730	 2.9230
 2.8740	 3.1250
 2.8760	 3.1880
 2.8780	 2.5010
 2.8790	 2.4440
 2.8810	 2.2520
 2.8820	 2.2720
 2.8840	 2.6110
 2.8860	 3.1560
 2.8870	 2.8170
 2.8890	 2.2000
 2.8900	 2.4710
 2.8920	 2.9230
 2.8940	 2.7640
 2.8950	 2.7320
 2.8970	 2.7090
 2.8980	 2.7890
 2.9000	 2.8330
 2.9020	 2.7850
 2.9030	 2.5130
 2.9050	 2.6300
 2.9070	 2.7110
 2.9080	 2.4590
 2.9100	 2.2310
 2.9120	 2.7810
 2.9130	 2.8820
 2.9150	 2.4020
 2.9160	 2.4230
 2.9180	 2.4900
 2.9200	 2.4460
 2.9210	 2.5670
 2.9230	 2.4750
 2.9250	 2.6220
 2.9260	 2.8520
 2.9280	 2.9810
 2.9300	 2.9590
 2.9310	 2.8010
 2.9330	 2.7290
 2.9350	 2.5780
 2.9360	 2.3680
 2.9380	 2.2920
 2.9400	 2.3310
 2.9410	 2.6700
 2.9430	 2.8250
 2.9450	 2.8690
 2.9460	 2.6440
 2.9480	 2.3470
 2.9500	 2.1880
 2.9510	 2.5760
 2.9530	 3.2800
 2.9550	 3.1300
 2.9560	 2.6400
 2.9580	 2.3520
 2.9600	 1.5070
 2.9610	 1.6040
 2.9630	 2.0360
 2.9650	 1.3330
 2.9660	 1.4970
 2.9680	 3.2210
 2.9700	 4.2160
 2.9720	 4.2050
 2.9730	 4.3960
 2.9750	 4.4650
 2.9770	 4.6670
 2.9780	 4.6280
 2.9800	 3.2010
 2.9820	 1.9300
 2.9840	 1.2440
 2.9850	 0.7960
 2.9870	 0.4490
 2.9890	 3.0490
 2.9900	 5.2330
 2.9920	 6.0800
 2.9940	 6.6550
 2.9960	 4.7620
 2.9970	 1.6830
 2.9990	 1.9070
 3.0010	 3.6270
 3.0030	 5.5550
 3.0040	 4.3190
 3.0060	 2.4220
 3.0080	 2.3900
 3.0100	 2.3460
 3.0110	 2.8530
 3.0130	 4.2470
 3.0150	 4.2590
 3.0170	 3.9690
 3.0180	 4.1750
 3.0200	 4.2470
 3.0220	 3.5530
 3.0240	 3.3070
 3.0250	 2.9530
 3.0270	 2.7080
 3.0290	 2.3330
 3.0310	 2.2750
 3.0320	 2.1250
 3.0340	 2.5170
 3.0360	 2.3680
 3.0380	 1.4330
 3.0400	 2.1570
 3.0410	 1.4160
 3.0430	 0.7830
 3.0450	 2.2200
 3.0470	 1.3030
 3.0480	 0.3990
 3.0500	 1.5350
 3.0520	 1.2100
 3.0540	 4.3760
 3.0560	 2.3240
 3.0570	 -3.144
 3.0590	 0.3030
 3.0610	 5.2090
 3.0630	 5.1950
 3.0650	 1.8720
 3.0660	 2.1960
 3.0680	 3.5870
 3.0700	 3.2720
 3.0720	 2.2460
 3.0740	 2.2240
 3.0760	 2.1640
 3.0770	 2.9260
 3.0790	 3.0950
 3.0810	 2.6390
 3.0830	 2.4100
 3.0850	 2.4890
 3.0870	 2.5120
 3.0880	 2.9480
 3.0900	 3.1570
 3.0920	 2.7910
 3.0940	 2.8390
 3.0960	 3.0920
 3.0980	 2.5330
 3.0990	 2.0790
 3.1010	 2.1330
 3.1030	 2.3010
 3.1050	 1.9640
 3.1070	 2.4490
 3.1090	 2.1200
 3.1110	 2.2900
 3.1120	 3.1900
 3.1140	 2.8110
 3.1160	 1.9790
 3.1180	 2.5140
 3.1200	 2.6850
 3.1220	 2.7960
 3.1240	 2.9780
 3.1260	 3.0950
 3.1270	 2.6340
 3.1290	 2.6520
 3.1310	 2.5350
 3.1330	 2.9990
 3.1350	 2.7320
 3.1370	 1.3480
 3.1390	 0.5860
 3.1410	 2.9200
 3.1430	 3.4790
 3.1450	 0.2190
 3.1460	 1.0670
 3.1480	 3.3860
 3.1500	 2.9660
 3.1520	 1.8240
 3.1540	 2.2950
 3.1560	 4.4560
 3.1580	 3.7630
 3.1600	 3.5280
 3.1620	 4.6220
 3.1640	 4.9180
 3.1660	 1.6030
 3.1680	 0.5750
 3.1700	 1.5940
 3.1710	 1.7150
 3.1730	 4.8520
 3.1750	 7.0360
 3.1770	 4.3380
 3.1790	 2.8500
 3.1810	 2.1740
 3.1830	 1.7430
 3.1850	 4.2480
 3.1870	 3.9200
 3.1890	 2.5190
 3.1910	 2.7430
 3.1930	 2.5990
 3.1950	 2.0600
 3.1970	 2.0150
 3.1990	 2.2410
 3.2010	 2.4850
 3.2030	 2.4890
 3.2050	 2.3950
 3.2070	 2.5820
 3.2090	 2.2280
 3.2110	 1.8730
 3.2130	 2.0760
 3.2150	 2.2520
 3.2170	 2.4890
 3.2190	 2.5960
 3.2210	 2.2880
 3.2230	 2.3270
 3.2250	 2.5280
 3.2270	 2.6310
 3.2290	 2.5580
 3.2310	 2.6130
 3.2330	 2.5500
 3.2350	 2.3170
 3.2370	 2.6410
 3.2390	 3.0460
 3.2410	 2.9410
 3.2430	 2.7830
 3.2450	 2.3300
 3.2470	 2.3860
 3.2490	 2.4210
 3.2510	 2.3210
 3.2530	 2.2790
 3.2550	 2.4190
 3.2570	 2.3150
 3.2590	 2.6590
 3.2610	 2.5770
 3.2630	 2.4280
 3.2650	 2.5510
 3.2670	 2.2430
 3.2690	 2.3670
 3.2720	 2.5900
 3.2740	 2.5190
 3.2760	 2.7590
 3.2780	 2.7240
 3.2800	 2.5600
 3.2820	 2.7560
 3.2840	 2.8210
 3.2860	 2.4340
 3.2880	 2.6770
 3.2900	 2.8080
 3.2920	 2.4900
 3.2940	 2.3560
 3.2960	 2.3980
 3.2990	 2.2000
 3.3010	 2.6020
 3.3030	 2.6510
 3.3050	 2.2060
 3.3070	 2.4830
 3.3090	 2.5390
 3.3110	 2.2350
 3.3130	 2.2400
 3.3150	 2.2680
 3.3180	 2.4310
 3.3200	 2.4920
 3.3220	 2.2940
 3.3240	 1.8650
 3.3260	 1.8180
 3.3280	 2.1910
 3.3300	 2.4630
 3.3330	 2.2120
 3.3350	 1.9130
 3.3370	 2.0490
 3.3390	 2.2070
 3.3410	 2.3080
 3.3430	 2.5910
 3.3450	 2.4660
 3.3480	 2.5790
 3.3500	 2.4860
 3.3520	 2.3470
 3.3540	 2.4420
 3.3560	 2.3920
 3.3580	 2.3050
 3.3610	 2.6310
 3.3630	 2.6680
 3.3650	 2.6260
 3.3670	 2.4760
 3.3690	 2.3560
 3.3720	 2.3150
 3.3740	 2.3750
 3.3760	 2.4670
 3.3780	 2.4990
 3.3800	 2.2060
 3.3830	 2.0060
 3.3850	 2.1660
 3.3870	 2.6330
 3.3890	 2.6130
 3.3910	 2.3070
 3.3940	 2.1280
 3.3960	 2.6490
 3.3980	 2.9360
 3.4000	 2.5460
 3.4020	 2.2500
 3.4050	 2.5260
 3.4070	 2.7650
 3.4090	 2.5280
 3.4110	 2.0710
 3.4140	 2.1080
 3.4160	 2.2900
 3.4180	 2.6200
 3.4200	 2.7450
 3.4230	 2.9250
 3.4250	 3.0960
 3.4270	 3.2970
 3.4290	 3.3130
 3.4320	 3.6670
 3.4340	 3.6520
 3.4360	 3.2650
 3.4390	 3.2570
 3.4410	 3.4540
 3.4430	 3.3500
 3.4450	 3.5490
 3.4480	 3.2390
 3.4500	 2.9100
 3.4520	 2.7700
 3.4550	 3.1000
 3.4570	 2.8870
 3.4590	 2.5930
 3.4620	 2.7580
 3.4640	 2.5420
 3.4660	 2.5350
 3.4680	 2.7970
 3.4710	 2.5210
 3.4730	 2.6780
 3.4750	 2.9940
 3.4780	 3.1630
 3.4800	 2.9880
 3.4820	 2.9280
 3.4850	 2.9120
 3.4870	 2.9780
 3.4890	 2.9100
 3.4920	 2.8780
 3.4940	 2.8950
 3.4970	 2.7810
 3.4990	 2.5720
 3.5010	 2.7020
 3.5040	 2.8470
 3.5060	 3.1280
 3.5080	 3.3010
 3.5110	 3.5100
 3.5130	 3.6340
 3.5160	 3.7180
 3.5180	 3.5900
 3.5200	 3.3100
 3.5230	 2.9830
 3.5250	 2.9390
 3.5270	 2.7820
 3.5300	 2.6980
 3.5320	 2.8260
 3.5350	 3.0030
 3.5370	 3.0990
 3.5400	 3.3050
 3.5420	 3.2600
 3.5440	 3.1780
 3.5470	 3.0440
 3.5490	 3.0430
 3.5520	 3.1840
 3.5540	 3.1280
 3.5570	 2.8960
 3.5590	 2.8820
 3.5610	 2.7660
 3.5640	 2.7790
 3.5660	 2.8170
 3.5690	 2.8190
 3.5710	 2.8140
 3.5740	 3.0740
 3.5760	 3.1120
 3.5790	 2.9950
 3.5810	 2.7750
 3.5840	 2.5880
 3.5860	 2.6040
 3.5890	 2.7220
 3.5910	 2.9910
 3.5930	 3.7310
 3.5960	 3.8480
 3.5980	 3.4150
 3.6010	 3.2020
 3.6030	 3.3610
 3.6060	 3.1150
 3.6080	 3.2860
 3.6110	 3.4510
 3.6140	 2.9460
 3.6160	 2.7520
 3.6190	 2.8910
 3.6210	 2.8800
 3.6240	 2.8580
 3.6260	 2.7430
 3.6290	 2.8330
 3.6310	 2.8350
 3.6340	 2.8110
 3.6360	 2.8750
 3.6390	 2.8850
 3.6410	 2.7410
 3.6440	 2.6830
 3.6470	 2.6580
 3.6490	 2.8620
 3.6520	 2.9850
 3.6540	 3.0190
 3.6570	 2.9380
 3.6590	 2.8110
 3.6620	 2.8070
 3.6650	 2.9320
 3.6670	 2.8550
 3.6700	 2.7210
 3.6720	 2.9010
 3.6750	 3.1700
 3.6780	 3.1510
 3.6800	 2.9550
 3.6830	 2.6750
 3.6850	 2.5880
 3.6880	 2.6150
 3.6910	 2.7640
 3.6930	 2.8920
 3.6960	 3.0090
 3.6990	 2.9870
 3.7010	 2.9490
 3.7040	 2.8240
 3.7060	 2.8200
 3.7090	 2.8170
 3.7120	 2.9630
 3.7140	 3.0260
 3.7170	 3.0520
 3.7200	 2.9830
 3.7220	 3.0820
 3.7250	 3.0520
 3.7280	 2.6850
 3.7300	 2.1800
 3.7330	 2.3220
 3.7360	 2.8180
 3.7390	 2.8530
 3.7410	 2.8020
 3.7440	 2.9350
 3.7470	 3.2170
 3.7490	 3.4090
 3.7520	 3.0950
 3.7550	 2.7870
 3.7580	 2.8700
 3.7600	 2.7910
 3.7630	 2.8480
 3.7660	 3.1620
 3.7680	 3.1440
 3.7710	 3.0540
 3.7740	 2.9580
 3.7770	 2.8890
 3.7790	 2.8070
 3.7820	 2.6600
 3.7850	 2.7250
 3.7880	 2.9630
 3.7900	 2.9070
 3.7930	 2.8390
 3.7960	 2.9540
 3.7990	 2.9960
 3.8020	 2.8400
 3.8040	 2.9280
 3.8070	 2.9120
 3.8100	 2.9180
 3.8130	 3.0790
 3.8160	 3.2460
 3.8180	 3.1020
 3.8210	 3.0020
 3.8240	 2.7770
 3.8270	 2.8400
 3.8300	 3.0730
 3.8330	 3.2200
 3.8350	 3.1860
 3.8380	 2.9400
 3.8410	 2.5180
 3.8440	 2.5400
 3.8470	 2.8340
 3.8500	 3.0640
 3.8520	 2.8480
 3.8550	 2.8340
 3.8580	 3.0350
 3.8610	 3.0680
 3.8640	 3.0530
 3.8670	 2.9480
 3.8700	 2.8630
 3.8730	 2.8720
 3.8750	 2.8700
 3.8780	 2.8550
 3.8810	 2.8050
 3.8840	 2.9900
 3.8870	 3.0620
 3.8900	 3.0580
 3.8930	 3.0820
 3.8960	 3.2570
 3.8990	 3.1310
 3.9020	 3.1500
 3.9050	 3.1050
 3.9080	 3.0820
 3.9110	 3.0710
 3.9140	 2.9490
 3.9160	 3.0070
 3.9190	 3.1260
 3.9220	 3.0930
 3.9250	 2.9200
 3.9280	 2.7910
 3.9310	 2.8580
 3.9340	 3.0010
 3.9370	 3.0090
 3.9400	 2.9410
 3.9430	 2.9850
 3.9460	 3.0860
 3.9490	 3.2300
 3.9520	 3.1100
 3.9550	 2.9960
 3.9580	 3.0270
 3.9610	 3.0360
 3.9640	 2.9560
 3.9670	 3.0070
 3.9700	 3.0190
 3.9730	 3.0490
 3.9770	 3.0890
 3.9800	 3.0260
 3.9830	 3.0100
 3.9860	 3.0410
 3.9890	 3.0100
 3.9920	 3.0530
 3.9950	 3.1330
 3.9980	 3.1620
 4.0010	 3.0450
 4.0040	 2.9740
 4.0070	 2.9830
 4.0100	 3.0340
 4.0130	 3.0930
 4.0170	 3.2070
 4.0200	 3.0300
 4.0230	 2.9440
 4.0260	 3.0120
 4.0290	 3.0560
 4.0320	 2.9660
 4.0350	 2.9880
 4.0380	 3.0330
 4.0420	 3.0910
 4.0450	 3.0730
 4.0480	 2.9970
 4.0510	 2.9970
 4.0540	 3.1240
 4.0570	 3.0780
 4.0610	 2.9440
 4.0640	 2.8820
 4.0670	 2.8300
 4.0700	 2.8750
 4.0730	 3.1080
 4.0770	 3.1870
 4.0800	 3.1420
 4.0830	 3.0770
 4.0860	 3.0400
 4.0890	 2.9930
 4.0930	 2.9260
 4.0960	 2.9160
 4.0990	 3.1170
 4.1020	 3.2020
 4.1060	 3.2260
 4.1090	 3.1670
 4.1120	 3.1480
 4.1150	 3.0430
 4.1190	 2.9890
 4.1220	 3.0610
 4.1250	 2.9510
 4.1280	 2.9000
 4.1320	 2.9150
 4.1350	 2.9050
 4.1380	 2.8730
 4.1420	 2.9540
 4.1450	 3.0180
 4.1480	 2.9230
 4.1520	 2.8660
 4.1550	 2.8290
 4.1580	 2.8730
 4.1620	 2.9080
 4.1650	 2.9420
 4.1680	 3.0220
 4.1720	 3.0530
 4.1750	 2.9620
 4.1780	 2.8210
 4.1820	 2.8150
 4.1850	 2.9050
 4.1890	 3.0380
 4.1920	 3.1460
 4.1950	 3.1960
 4.1990	 3.1090
 4.2020	 3.0400
 4.2060	 3.0830
 4.2090	 3.2370
 4.2120	 3.4340
 4.2160	 3.4780
 4.2190	 3.4430
 4.2230	 2.8980
 4.2260	 2.7290
 4.2300	 3.5140
 4.2330	 3.6100
 4.2360	 3.5510
 4.2400	 3.3920
 4.2430	 2.6530
 4.2470	 3.0040
 4.2500	 3.6820
 4.2540	 3.6920
 4.2570	 3.2230
 4.2610	 3.2380
 4.2640	 3.5830
 4.2680	 2.6590
 4.2710	 1.2240
 4.2750	 2.3840
 4.2780	 3.5300
 4.2820	 3.5770
 4.2850	 3.2550
 4.2890	 3.1800
 4.2930	 3.2080
 4.2960	 3.1510
 4.3000	 3.1560
 4.3030	 3.2450
 4.3070	 3.1850
 4.3100	 3.2500
 4.3140	 3.0650
 4.3180	 2.8370
 4.3210	 2.9630
 4.3250	 3.1520
 4.3280	 3.1770
 4.3320	 3.0930
 4.3360	 2.9790
 4.3390	 2.7780
 4.3430	 2.7940
 4.3470	 2.9530
 4.3500	 3.0010
 4.3540	 2.9850
 4.3570	 3.0330
 4.3610	 2.9450
 4.3650	 2.8770
 4.3680	 2.8200
 4.3720	 2.7290
 4.3760	 2.7150
 4.3800	 2.7050
 4.3830	 2.7310
 4.3870	 2.8760
 4.3910	 2.8820
 4.3940	 2.8720
 4.3980	 2.9370
 4.4020	 2.9450
 4.4060	 2.8580
 4.4090	 2.7310
 4.4130	 2.7420
 4.4170	 2.8750
 4.4210	 2.8830
 4.4240	 2.9070
 4.4280	 2.9740
 4.4320	 2.8310
 4.4360	 2.7240
 4.4400	 2.7490
 4.4430	 2.7600
 4.4470	 2.8170
 4.4510	 2.7670
 4.4550	 2.7560
 4.4590	 2.8470
 4.4620	 2.8120
 4.4660	 2.8890
 4.4700	 2.9750
 4.4740	 2.7860
 4.4780	 2.6080
 4.4820	 2.6000
 4.4860	 2.7780
 4.4900	 2.8670
 4.4930	 2.7400
 4.4970	 2.6450
 4.5010	 2.7940
 4.5050	 2.9580
 4.5090	 3.0300
 4.5130	 2.9790
 4.5170	 2.8130
 4.5210	 2.7290
 4.5250	 2.8190
 4.5290	 2.9110
 4.5330	 2.8700
 4.5370	 2.7780
 4.5410	 2.8340
 4.5450	 2.8840
 4.5490	 2.7630
 4.5530	 2.6800
 4.5570	 2.6340
 4.5610	 2.7690
 4.5650	 2.9050
 4.5690	 2.7740
 4.5730	 2.7480
 4.5770	 2.7520
 4.5810	 2.7300
 4.5850	 2.6750
 4.5890	 2.7190
 4.5930	 2.7690
 4.5970	 2.6730
 4.6010	 2.6330
 4.6050	 2.7730
 4.6090	 2.6970
 4.6130	 2.5100
 4.6170	 2.5100
 4.6220	 2.7470
 4.6260	 2.7760
 4.6300	 2.8150
 4.6340	 2.7160
 4.6380	 2.7060
 4.6420	 2.7530
 4.6460	 2.7470
 4.6510	 2.7180
 4.6550	 2.6080
 4.6590	 2.6360
 4.6630	 2.8640
 4.6670	 2.8160
 4.6720	 2.6570
 4.6760	 2.5310
 4.6800	 2.6540
 4.6840	 2.7250
 4.6880	 2.5940
 4.6930	 2.6310
 4.6970	 2.7150
 4.7010	 2.7900
 4.7050	 2.8420
 4.7100	 2.7260
 4.7140	 2.7410
 4.7180	 2.8230
 4.7230	 2.7310
 4.7270	 2.7570
 4.7310	 2.7670
 4.7360	 2.6650
 4.7400	 2.6690
 4.7440	 2.6590
 4.7490	 2.5490
 4.7530	 2.4890
 4.7570	 2.6270
 4.7620	 2.9520
 4.7660	 3.0210
 4.7700	 2.7240
 4.7750	 2.6150
 4.7790	 2.6870
 4.7840	 2.8390
 4.7880	 2.8640
 4.7920	 2.7750
 4.7970	 2.7700
 4.8010	 2.7710
 4.8060	 2.6880
 4.8100	 2.7170
 4.8150	 2.7300
 4.8190	 2.6460
 4.8240	 2.5880
 4.8280	 2.6270
 4.8330	 2.5940
 4.8370	 2.5280
 4.8420	 2.5030
 4.8460	 2.6890
 4.8510	 2.7980
 4.8550	 2.7550
 4.8600	 2.6550
 4.8640	 2.5740
 4.8690	 2.5220
 4.8730	 2.6900
 4.8780	 2.8260
 4.8830	 2.8170
 4.8870	 2.7810
 4.8920	 2.8320
 4.8960	 2.8250
 4.9010	 2.8300
 4.9060	 2.7780
 4.9100	 2.7310
 4.9150	 2.7280
 4.9200	 2.7340
 4.9240	 2.7260
 4.9290	 2.8230
 4.9340	 2.7720
 4.9380	 2.6470
 4.9430	 2.7160
 4.9480	 2.8130
 4.9530	 2.8570
 4.9570	 2.8380
 4.9620	 2.7550
 4.9670	 2.6590
 4.9720	 2.6030
 4.9760	 2.7320
 4.9810	 2.8440
 4.9860	 2.8420
 4.9910	 2.7850
 4.9960	 2.7590
 5.0000	 2.6250
 5.0050	 2.6430
 5.0100	 2.7590
 5.0150	 2.7210
 5.0200	 2.6450
 5.0250	 2.6120
 5.0290	 2.7170
 5.0340	 2.8660
 5.0390	 2.8720
 5.0440	 2.8550
 5.0490	 2.7780
 5.0540	 2.6790
 5.0590	 2.5970
 5.0640	 2.7220
 5.0690	 2.8400
 5.0740	 2.7920
 5.0790	 2.7200
 5.0840	 2.6630
 5.0890	 2.6010
 5.0940	 2.6760
 5.0990	 2.8010
 5.1040	 2.9240
 5.1090	 2.8560
 5.1140	 2.8610
 5.1190	 2.9200
 5.1240	 2.8800
 5.1290	 2.8380
 5.1340	 2.7940
 5.1390	 2.6540
 5.1440	 2.7800
 5.1490	 2.8800
 5.1540	 2.8380
 5.1600	 2.8310
 5.1650	 2.8340
 5.1700	 2.8590
 5.1750	 2.9530
 5.1800	 2.8990
 5.1850	 2.9830
 5.1910	 2.9870
 5.1960	 2.9040
 5.2010	 2.8270
 5.2060	 2.8520
 5.2110	 2.8500
 5.2170	 2.8060
 5.2220	 2.7590
 5.2270	 2.8190
 5.2320	 2.7810
 5.2380	 2.7430
 5.2430	 2.7460
 5.2480	 2.8280
 5.2540	 2.8810
 5.2590	 2.8160
 5.2640	 2.6760
 5.2700	 2.7370
 5.2750	 2.9220
 5.2800	 2.9080
 5.2860	 2.8220
 5.2910	 2.7890
 5.2970	 2.7320
 5.3020	 2.7440
 5.3070	 2.8330
 5.3130	 3.0720
 5.3180	 3.0850
 5.3240	 2.9210
 5.3290	 2.8190
 5.3350	 2.9620
 5.3400	 3.1090
 5.3460	 3.1040
 5.3510	 3.0340
 5.3570	 2.9560
 5.3620	 2.7790
 5.3680	 2.7770
 5.3730	 2.8250
 5.3790	 2.8220
 5.3850	 2.8080
 5.3900	 2.7840
 5.3960	 2.6460
 5.4010	 2.6710
 5.4070	 2.7290
 5.4130	 2.7740
 5.4180	 2.7720
 5.4240	 2.7600
 5.4300	 2.7490
 5.4350	 2.7300
 5.4410	 2.6950
 5.4470	 2.7660
 5.4530	 2.7570
 5.4580	 2.6840
 5.4640	 2.5280
 5.4700	 2.5600
 5.4760	 2.6320
 5.4810	 2.7160
 5.4870	 2.6650
 5.4930	 2.6630
 5.4990	 2.6130
 5.5050	 2.6170
 5.5110	 2.5410
 5.5160	 2.6480
 5.5220	 2.6560
 5.5280	 2.6520
 5.5340	 2.5690
 5.5400	 2.5570
 5.5460	 2.6280
 5.5520	 2.7040
 5.5580	 2.7010
 5.5640	 2.6770
 5.5700	 2.5520
 5.5760	 2.5430
 5.5820	 2.5050
 5.5880	 2.4520
 5.5940	 2.4580
 5.6000	 2.5880
 5.6060	 2.5320
 5.6120	 2.5280
 5.6180	 2.5220
 5.6240	 2.4240
 5.6300	 2.4090
 5.6360	 2.4100
 5.6420	 2.5070
 5.6490	 2.5000
 5.6550	 2.3220
 5.6610	 2.3830
 5.6670	 2.3870
 5.6730	 2.4270
 5.6800	 2.3800
 5.6860	 2.3770
 5.6920	 2.4280
 5.6980	 2.4800
 5.7040	 2.3010
 5.7110	 2.1430
 5.7170	 2.0350
 5.7230	 2.1120
 5.7300	 2.1070
 5.7360	 2.1370
 5.7420	 2.1610
 5.7490	 2.3550
 5.7550	 2.3340
 5.7620	 2.3530
 5.7680	 2.5080
 5.7740	 2.5940
 5.7810	 2.5620
 5.7870	 2.7770
 5.7940	 2.7370
 5.8000	 2.7290
 5.8070	 2.8140
 5.8130	 2.7860
 5.8200	 2.6720
 5.8260	 2.7680
 5.8330	 2.7840
 5.8390	 2.9720
 5.8460	 3.1530
 5.8530	 3.2030
 5.8590	 3.0550
 5.8660	 3.0450
 5.8720	 3.0690
 5.8790	 3.0780
 5.8860	 2.9520
 5.8920	 3.0130
 5.8990	 3.1420
 5.9060	 3.2360
 5.9130	 3.1470
 5.9190	 3.0630
 5.9260	 3.1320
 5.9330	 3.2940
 5.9400	 3.2310
 5.9470	 3.2250
 5.9530	 3.1290
 5.9600	 3.0490
 5.9670	 3.0630
 5.9740	 3.0300
 5.9810	 2.9970
 5.9880	 3.0140
 5.9950	 2.8540
 6.0020	 2.8660
 6.0090	 3.0900
 6.0160	 3.3310
 6.0230	 3.2650
 6.0300	 3.2080
 6.0370	 3.0900
 6.0440	 3.1610
 6.0510	 3.1600
 6.0580	 3.0830
 6.0650	 3.0520
 6.0720	 3.1240
 6.0790	 2.9700
 6.0860	 2.9360
 6.0930	 2.8870
 6.1000	 2.8110
 6.1080	 2.7910
 6.1150	 3.1040
 6.1220	 3.0240
 6.1290	 2.8460
 6.1370	 2.8360
 6.1440	 2.9320
 6.1510	 2.8950
 6.1580	 2.9350
 6.1660	 2.9940
 6.1730	 3.0930
 6.1800	 2.9790
 6.1880	 2.8150
 6.1950	 2.7990
 6.2030	 3.0420
 6.2100	 3.0940
 6.2170	 3.1210
 6.2250	 3.0790
 6.2320	 3.1190
 6.2400	 3.1180
 6.2470	 2.9780
 6.2550	 2.8330
 6.2630	 2.9320
 6.2700	 2.8490
 6.2780	 2.7990
 6.2850	 2.7590
 6.2930	 2.9080
 6.3010	 2.9530
 6.3080	 2.9310
 6.3160	 2.9120
 6.3240	 3.0780
 6.3310	 2.8610
 6.3390	 2.8050
 6.3470	 2.8480
 6.3550	 2.9050
 6.3620	 2.8480
 6.3700	 2.8990
 6.3780	 2.8340
 6.3860	 2.8740
 6.3940	 2.8150
 6.4020	 2.9120
 6.4100	 2.9670
 6.4180	 2.9530
 6.4260	 2.7160
 6.4330	 2.7100
 6.4410	 2.6460
 6.4490	 2.8770
 6.4580	 2.9120
 6.4660	 2.8190
 6.4740	 2.7540
 6.4820	 2.9130
 6.4900	 2.7710
 6.4980	 2.7260
 6.5060	 2.7310
 6.5140	 2.9770
 6.5230	 2.8590
 6.5310	 2.6870
 6.5390	 2.5230
 6.5470	 2.6130
 6.5550	 2.4780
 6.5640	 2.5370
 6.5720	 2.6250
 6.5800	 2.6940
 6.5890	 2.6280
 6.5970	 2.6610
 6.6060	 2.4950
 6.6140	 2.5600
 6.6220	 2.7760
 6.6310	 2.8220
 6.6390	 2.4620
 6.6480	 2.4610
 6.6560	 2.5180
 6.6650	 2.5690
 6.6740	 2.5920
 6.6820	 2.7390
 6.6910	 2.6020
 6.6990	 2.4100
 6.7080	 2.4890
 6.7170	 2.4240
 6.7260	 2.1980
 6.7340	 2.4700
 6.7430	 2.5270
 6.7520	 2.6930
 6.7610	 2.6990
 6.7690	 2.6400
 6.7780	 2.5500
 6.7870	 2.7340
 6.7960	 2.7630
 6.8050	 2.6490
 6.8140	 2.6610
 6.8230	 2.7720
 6.8320	 2.8180
 6.8410	 2.9510
 6.8500	 2.7710
 6.8590	 2.7640
 6.8680	 2.6640
 6.8770	 2.6700
 6.8860	 2.5830
 6.8950	 2.7190
 6.9050	 2.7310
 6.9140	 2.6380
 6.9230	 2.6080
 6.9320	 2.8030
 6.9420	 2.8460
 6.9510	 2.9090
 6.9600	 2.8310
 6.9700	 2.7780
 6.9790	 2.6040
 6.9880	 2.6310
 6.9980	 2.7130
 7.0070	 2.9200
 7.0170	 2.7810
 7.0260	 2.5970
 7.0360	 2.5830
 7.0450	 2.7370
 7.0550	 2.6860
 7.0650	 2.7240
 7.0740	 2.5620
 7.0840	 2.5670
 7.0940	 2.6090
 7.1030	 2.9310
 7.1130	 2.9890
 7.1230	 3.0930
 7.1330	 2.8990
 7.1420	 2.9660
 7.1520	 2.8580
 7.1620	 2.8070
 7.1720	 2.7230
 7.1820	 2.9090
 7.1920	 2.8480
 7.2020	 2.9340
 7.2120	 2.8660
 7.2220	 2.9510
 7.2320	 2.9000
 7.2420	 2.8430
 7.2520	 2.7560
 7.2620	 2.8440
 7.2730	 2.7640
 7.2830	 2.8380
 7.2930	 2.7660
 7.3030	 2.8870
 7.3140	 2.7670
 7.3240	 2.9440
 7.3340	 2.7970
 7.3450	 2.7150
 7.3550	 2.6190
 7.3660	 2.6520
 7.3760	 2.5910
 7.3870	 2.8090
 7.3970	 2.7770
 7.4080	 2.7170
 7.4180	 2.5860
 7.4290	 2.7820
 7.4400	 2.7310
 7.4500	 2.8190
 7.4610	 2.9180
 7.4720	 2.9240
 7.4830	 2.6740
 7.4930	 2.8030
 7.5040	 2.7520
 7.5150	 2.7510
 7.5260	 2.6730
 7.5370	 2.7440
 7.5480	 2.7230
 7.5590	 2.8970
 7.5700	 2.8540
 7.5810	 2.8380
 7.5920	 2.6780
 7.6030	 2.8020
 7.6140	 2.7700
 7.6260	 2.7020
 7.6370	 2.5670
 7.6480	 2.7410
 7.6590	 2.9300
 7.6710	 3.0610
 7.6820	 2.6780
 7.6930	 2.5990
 7.7050	 2.5490
 7.7160	 2.7090
 7.7280	 2.5410
 7.7390	 2.6320
 7.7510	 2.5770
 7.7630	 2.6290
 7.7740	 2.6270
 7.7860	 2.8550
 7.7980	 2.7090
 7.8090	 2.5570
 7.8210	 2.2890
 7.8330	 2.4160
 7.8450	 2.3910
 7.8570	 2.5590
 7.8690	 2.5470
 7.8810	 2.6610
 7.8930	 2.6100
 7.9050	 2.8030
 7.9170	 2.7760
 7.9290	 2.8480
 7.9410	 2.6320
 7.9530	 2.6130
 7.9650	 2.5440
 7.9780	 2.7550
 7.9900	 2.5740
 8.0020	 2.5640
 8.0150	 2.5680
 8.0270	 2.8490
 8.0390	 2.7580
 8.0520	 2.8060
 8.0640	 2.5780
 8.0770	 2.9270
 8.0900	 3.0520
 8.1020	 3.0630
 8.1150	 2.7360
 8.1280	 2.6930
 8.1400	 2.4050
 8.1530	 2.3800
 8.1660	 2.2610
 8.1790	 2.5460
 8.1920	 2.5510
 8.2050	 2.7310
 8.2180	 2.6210
 8.2310	 2.7210
 8.2440	 2.5280
 8.2570	 2.7250
 8.2700	 2.8480
 8.2830	 3.0420
 8.2970	 2.7640
 8.3100	 2.6620
 8.3230	 2.4980
 8.3370	 2.8580
 8.3500	 2.6110
 8.3640	 2.4530
 8.3770	 2.3700
 8.3910	 2.7420
 8.4040	 2.5870
 8.4180	 2.7280
 8.4320	 2.6210
 8.4450	 2.8060
 8.4590	 2.6510
 8.4730	 2.8420
 8.4870	 2.6060
 8.5010	 2.7190
 8.5150	 2.7410
 8.5290	 2.9290
 8.5430	 2.8850
 8.5570	 2.9420
 8.5710	 2.7630
 8.5850	 3.0850
 8.5990	 3.1390
 8.6140	 3.0890
 8.6280	 2.8270
 8.6420	 3.0970
 8.6570	 2.9150
 8.6710	 2.9590
 8.6860	 3.0560
 8.7000	 3.3490
 8.7150	 3.0020
 8.7300	 3.1430
 8.7440	 3.1250
 8.7590	 3.1360
 8.7740	 3.0060
 8.7890	 3.2020
 8.8040	 3.0910
 8.8190	 3.2490
 8.8340	 2.9890
 8.8490	 3.1040
 8.8640	 3.0820
 8.8790	 3.0810
 8.8940	 2.9540
 8.9100	 3.2940
 8.9250	 3.3210
 8.9400	 3.5540
 8.9560	 3.3330
 8.9710	 3.3510
 8.9870	 2.9600
 9.0020	 2.9190
 9.0180	 2.5520
 9.0340	 2.8820
 9.0500	 2.9660
 9.0650	 3.4040
 9.0810	 3.2820
 9.0970	 3.2980
 9.1130	 2.9380
 9.1290	 3.0230
 9.1450	 3.0050
 9.1610	 3.3330
 9.1780	 2.9070
 9.1940	 2.7830
 9.2100	 2.4340
 9.2270	 2.6410
 9.2430	 2.6500
 9.2600	 3.1310
 9.2760	 3.1140
 9.2930	 3.0410
 9.3090	 2.7490
 9.3260	 3.0300
 9.3430	 3.0690
 9.3600	 3.1290
 9.3770	 2.8290
 9.3940	 3.1180
 9.4110	 3.0520
 9.4280	 3.1440
 9.4450	 2.8710
 9.4620	 3.1220
 9.4800	 2.9300
 9.4970	 3.1470
 9.5140	 2.8670
 9.5320	 2.8680
 9.5500	 2.6360
 9.5670	 2.8960
 9.5850	 3.1460
 9.6030	 3.4410
 9.6200	 3.1060
 9.6380	 3.2690
 9.6560	 2.9640
 9.6740	 3.1810
 9.6920	 3.2520
 9.7100	 3.2940
 9.7290	 2.5670
 9.7470	 2.9200
 9.7650	 3.1910
 9.7840	 3.3080
 9.8020	 3.0030
 9.8210	 3.2030
 9.8390	 2.8710
 9.8580	 2.6850
 9.8770	 2.4410
 9.8960	 2.8320
 9.9150	 2.8380
 9.9340	 2.9620
 9.9530	 2.7870
 9.9720	 3.2010
 9.9910	 3.1310
10.0100	 3.2850
10.0300	 2.7860
10.0490	 2.7450
10.0690	 2.9980
10.0880	 3.2210
10.1080	 2.8390
10.1280	 2.9720
10.1480	 2.9230
10.1670	 3.1870
10.1870	 3.1950
10.2070	 3.3420
10.2280	 3.2290
10.2480	 3.3050
10.2680	 3.0590
10.2890	 3.0060
10.3090	 2.8870
10.3300	 3.1520
10.3500	 2.8730
10.3710	 3.2570
10.3920	 3.1450
10.4120	 3.0950
10.4330	 2.8820
10.4540	 3.2420
10.4760	 3.1090
10.4970	 3.2210
10.5180	 3.1210
10.5390	 3.2620
10.5610	 2.8860
10.5820	 3.2050
10.6040	 3.5610
10.6260	 3.7170
10.6480	 3.3630
10.6700	 3.4220
10.6920	 3.2520
10.7140	 3.5710
10.7360	 3.2970
10.7580	 3.1950
10.7800	 2.6070
10.8030	 2.7730
10.8250	 2.8050
10.8480	 3.1990
10.8710	 3.2330
10.8940	 3.5300
10.9170	 3.3010
10.9400	 3.2350
10.9630	 2.7670
10.9860	 3.0700
11.0090	 3.0470
11.0330	 3.4500
11.0560	 3.2220
11.0800	 2.9460
11.1040	 1.1900
11.1270	 1.3750
11.1510	 2.8900
11.1750	 3.3850
11.2000	 3.1420
11.2240	 3.4810
11.2480	 3.4360
11.2730	 3.3480
11.2970	 2.4600
11.3220	 2.5970
11.3470	 2.6660
11.3720	 2.9830
11.3970	 2.9540
11.4220	 3.0270
11.4470	 3.0280
11.4720	 3.3950
11.4980	 2.9870
11.5230	 3.2660
11.5490	 3.1330
11.5750	 3.3990
11.6000	 2.8110
11.6260	 2.7810
11.6530	 2.8860
11.6790	 3.2190
11.7050	 2.9290
11.7320	 3.4110
11.7580	 3.4380
11.7850	 3.4900
11.8120	 2.8480
11.8390	 2.4510
11.8660	 2.1840
11.8930	 2.8580
11.9200	 2.9480
11.9480	 3.2820
11.9760	 2.8160
12.0030	 3.1570
12.0310	 3.0880
12.0590	 3.5910
12.0870	 3.2350
12.1150	 3.2950
12.1440	 3.1160
12.1720	 3.2590
12.2010	 2.8410
12.2300	 3.1030
12.2590	 2.9550
12.2880	 3.2220
12.3170	 2.9770
12.3460	 2.9940
12.3760	 2.4440
12.4050	 2.8610
12.4350	 2.8120
12.4650	 3.1490
12.4950	 2.5980
12.5250	 2.8490
12.5550	 2.6380
12.5860	 3.0370
12.6170	 3.0290
12.6470	 3.2010
12.6780	 2.9610
12.7090	 3.3280
12.7410	 3.2640
12.7720	 3.5510
12.8030	 2.7660
12.8350	 3.1870
12.8670	 3.2650
12.8990	 3.1550
12.9310	 2.6700
12.9640	 3.0910
12.9960	 2.7590
13.0290	 3.0610
13.0610	 2.8930
13.0940	 3.2840
13.1280	 2.9150
13.1610	 3.0360
13.1940	 2.9270
13.2280	 2.9300
13.2620	 2.7420
13.2960	 3.0570
13.3300	 2.4040
13.3640	 2.9160
13.3990	 2.3900
13.4340	 2.3840
13.4690	 2.4050
13.5040	 3.4390
13.5390	 3.2290
13.5740	 3.2550
13.6100	 2.5700
13.6460	 2.7140
13.6820	 2.5230
13.7180	 2.9090
13.7540	 2.6080
13.7910	 2.9230
13.8280	 2.6970
13.8650	 3.3560
13.9020	 2.5640
13.9390	 2.4990
13.9770	 2.3470
14.0150	 2.8610
14.0530	 2.3560
14.0910	 2.8880
14.1290	 2.5790
14.1680	 2.8870
14.2070	 2.0740
14.2460	 2.4620
14.2850	 2.1610
14.3240	 2.9110
14.3640	 2.9730
14.4040	 3.6290
14.4440	 2.8490
14.4840	 3.3020
14.5250	 3.0730
14.5660	 3.3440
14.6070	 2.7220
14.6480	 3.1580
14.6900	 2.1460
14.7310	 2.5300
14.7730	 2.1410
14.8150	 2.6320
14.8580	 1.9420
14.9010	 2.6470
14.9440	 0.1260
14.9870	 1.2730
15.0300	 1.5290
15.0740	 2.3710
15.1180	 2.2770
15.1620	 3.2650
15.2060	 2.4380
15.2510	 3.3390
15.2960	 2.6390
15.3410	 3.1730
15.3870	 2.0460
