Name: Melaleuca linariifolia
Type: vegetation
Class: Tree
Genus: Melaleuca
Species: linariifolia
Sample No.: JPL164
Owner: JPL
Wavelength Range: VSWIR
Origin: 34.12579; -118.11322; WGS84
Collection Date: 9/14/2016
Description: Samples were collected at the Huntington Garden in San Marino California as part of a JPL Subcontract studying HyTES imagery. Samples were taken to JPL and processed within 48 hours of collection. The same leaves were processed in the Nicolet and then measured using the ASD.
Measurement: Bidirectional reflectance
First Column: X
Second Column: Y
X Units: Wavelength (micrometer)
Y Units: Reflectance (percentage)
First X Value: 0.35
Last X Value: 2.5
Number of X Values: 2151
Additional Information: vegetation.tree.melaleuca.linariifolia.vswir.jpl164.jpl.asd.ancillary.txt

 0.3500	 4.1230
 0.3510	 4.0950
 0.3520	 4.1290
 0.3530	 4.1460
 0.3540	 4.0800
 0.3550	 3.9740
 0.3560	 3.9290
 0.3570	 3.9280
 0.3580	 3.9040
 0.3590	 3.9360
 0.3600	 3.9690
 0.3610	 3.9850
 0.3620	 4.0350
 0.3630	 3.9400
 0.3640	 3.8750
 0.3650	 3.9820
 0.3660	 3.9410
 0.3670	 3.8640
 0.3680	 3.8260
 0.3690	 3.8590
 0.3700	 3.8360
 0.3710	 3.8340
 0.3720	 3.8870
 0.3730	 3.8910
 0.3740	 3.9040
 0.3750	 3.8770
 0.3760	 3.7830
 0.3770	 3.8290
 0.3780	 3.8890
 0.3790	 3.8870
 0.3800	 3.8140
 0.3810	 3.8230
 0.3820	 3.8670
 0.3830	 3.8840
 0.3840	 3.8540
 0.3850	 3.8750
 0.3860	 3.8970
 0.3870	 3.8400
 0.3880	 3.8140
 0.3890	 3.8510
 0.3900	 3.9150
 0.3910	 3.9040
 0.3920	 3.8790
 0.3930	 3.8910
 0.3940	 3.9420
 0.3950	 3.9310
 0.3960	 3.9090
 0.3970	 3.9050
 0.3980	 3.9260
 0.3990	 3.9540
 0.4000	 3.9620
 0.4010	 3.9540
 0.4020	 3.9700
 0.4030	 3.9840
 0.4040	 3.9870
 0.4050	 3.9820
 0.4060	 3.9980
 0.4070	 4.0030
 0.4080	 4.0070
 0.4090	 4.0420
 0.4100	 4.0560
 0.4110	 4.0670
 0.4120	 4.0900
 0.4130	 4.1190
 0.4140	 4.1390
 0.4150	 4.1490
 0.4160	 4.1570
 0.4170	 4.1710
 0.4180	 4.1900
 0.4190	 4.2070
 0.4200	 4.2140
 0.4210	 4.2420
 0.4220	 4.2720
 0.4230	 4.2910
 0.4240	 4.3150
 0.4250	 4.3290
 0.4260	 4.3390
 0.4270	 4.3530
 0.4280	 4.3660
 0.4290	 4.3840
 0.4300	 4.4070
 0.4310	 4.4280
 0.4320	 4.4530
 0.4330	 4.4750
 0.4340	 4.4890
 0.4350	 4.5080
 0.4360	 4.5180
 0.4370	 4.5220
 0.4380	 4.5310
 0.4390	 4.5360
 0.4400	 4.5390
 0.4410	 4.5430
 0.4420	 4.5380
 0.4430	 4.5530
 0.4440	 4.5770
 0.4450	 4.5860
 0.4460	 4.6010
 0.4470	 4.6070
 0.4480	 4.6090
 0.4490	 4.6290
 0.4500	 4.6480
 0.4510	 4.6640
 0.4520	 4.6770
 0.4530	 4.6880
 0.4540	 4.6970
 0.4550	 4.7030
 0.4560	 4.7010
 0.4570	 4.7040
 0.4580	 4.7120
 0.4590	 4.7210
 0.4600	 4.7130
 0.4610	 4.7050
 0.4620	 4.7050
 0.4630	 4.7130
 0.4640	 4.7140
 0.4650	 4.7080
 0.4660	 4.7010
 0.4670	 4.7050
 0.4680	 4.7050
 0.4690	 4.7030
 0.4700	 4.7020
 0.4710	 4.7020
 0.4720	 4.6970
 0.4730	 4.6930
 0.4740	 4.6980
 0.4750	 4.7020
 0.4760	 4.7050
 0.4770	 4.7060
 0.4780	 4.7100
 0.4790	 4.7080
 0.4800	 4.7060
 0.4810	 4.7100
 0.4820	 4.7130
 0.4830	 4.7200
 0.4840	 4.7290
 0.4850	 4.7340
 0.4860	 4.7460
 0.4870	 4.7570
 0.4880	 4.7620
 0.4890	 4.7610
 0.4900	 4.7670
 0.4910	 4.7760
 0.4920	 4.7810
 0.4930	 4.7890
 0.4940	 4.8050
 0.4950	 4.8260
 0.4960	 4.8420
 0.4970	 4.8600
 0.4980	 4.8820
 0.4990	 4.9030
 0.5000	 4.9290
 0.5010	 4.9580
 0.5020	 4.9930
 0.5030	 5.0360
 0.5040	 5.0790
 0.5050	 5.1240
 0.5060	 5.1750
 0.5070	 5.2230
 0.5080	 5.2760
 0.5090	 5.3380
 0.5100	 5.4060
 0.5110	 5.4680
 0.5120	 5.5340
 0.5130	 5.6110
 0.5140	 5.6900
 0.5150	 5.7740
 0.5160	 5.8590
 0.5170	 5.9430
 0.5180	 6.0330
 0.5190	 6.1250
 0.5200	 6.2190
 0.5210	 6.3190
 0.5220	 6.4130
 0.5230	 6.5020
 0.5240	 6.5900
 0.5250	 6.6790
 0.5260	 6.7670
 0.5270	 6.8510
 0.5280	 6.9240
 0.5290	 6.9940
 0.5300	 7.0590
 0.5310	 7.1190
 0.5320	 7.1730
 0.5330	 7.2230
 0.5340	 7.2690
 0.5350	 7.3100
 0.5360	 7.3450
 0.5370	 7.3770
 0.5380	 7.4120
 0.5390	 7.4540
 0.5400	 7.5030
 0.5410	 7.5590
 0.5420	 7.6190
 0.5430	 7.6630
 0.5440	 7.6890
 0.5450	 7.6940
 0.5460	 7.6770
 0.5470	 7.6520
 0.5480	 7.6270
 0.5490	 7.6110
 0.5500	 7.6080
 0.5510	 7.6090
 0.5520	 7.6070
 0.5530	 7.5970
 0.5540	 7.5770
 0.5550	 7.5540
 0.5560	 7.5290
 0.5570	 7.4970
 0.5580	 7.4620
 0.5590	 7.4250
 0.5600	 7.3860
 0.5610	 7.3410
 0.5620	 7.2930
 0.5630	 7.2450
 0.5640	 7.1980
 0.5650	 7.1450
 0.5660	 7.0910
 0.5670	 7.0370
 0.5680	 6.9850
 0.5690	 6.9320
 0.5700	 6.8780
 0.5710	 6.8230
 0.5720	 6.7630
 0.5730	 6.7050
 0.5740	 6.6510
 0.5750	 6.5990
 0.5760	 6.5490
 0.5770	 6.5000
 0.5780	 6.4520
 0.5790	 6.4140
 0.5800	 6.3770
 0.5810	 6.3450
 0.5820	 6.3190
 0.5830	 6.2990
 0.5840	 6.2750
 0.5850	 6.2460
 0.5860	 6.2140
 0.5870	 6.1920
 0.5880	 6.1720
 0.5890	 6.1490
 0.5900	 6.1240
 0.5910	 6.1040
 0.5920	 6.0870
 0.5930	 6.0670
 0.5940	 6.0500
 0.5950	 6.0310
 0.5960	 6.0120
 0.5970	 6.0000
 0.5980	 5.9900
 0.5990	 5.9780
 0.6000	 5.9610
 0.6010	 5.9400
 0.6020	 5.9210
 0.6030	 5.9030
 0.6040	 5.8820
 0.6050	 5.8600
 0.6060	 5.8350
 0.6070	 5.8070
 0.6080	 5.7820
 0.6090	 5.7670
 0.6100	 5.7670
 0.6110	 5.7760
 0.6120	 5.7450
 0.6130	 5.6890
 0.6140	 5.6300
 0.6150	 5.5870
 0.6160	 5.5470
 0.6170	 5.5090
 0.6180	 5.4800
 0.6190	 5.4570
 0.6200	 5.4370
 0.6210	 5.4180
 0.6220	 5.3970
 0.6230	 5.3770
 0.6240	 5.3590
 0.6250	 5.3430
 0.6260	 5.3310
 0.6270	 5.3230
 0.6280	 5.3180
 0.6290	 5.3120
 0.6300	 5.3050
 0.6310	 5.2980
 0.6320	 5.2900
 0.6330	 5.2740
 0.6340	 5.2540
 0.6350	 5.2320
 0.6360	 5.2100
 0.6370	 5.1830
 0.6380	 5.1490
 0.6390	 5.1120
 0.6400	 5.0730
 0.6410	 5.0310
 0.6420	 4.9890
 0.6430	 4.9480
 0.6440	 4.9050
 0.6450	 4.8630
 0.6460	 4.8230
 0.6470	 4.7870
 0.6480	 4.7570
 0.6490	 4.7300
 0.6500	 4.7070
 0.6510	 4.6880
 0.6520	 4.6730
 0.6530	 4.6580
 0.6540	 4.6410
 0.6550	 4.6270
 0.6560	 4.6130
 0.6570	 4.5970
 0.6580	 4.5750
 0.6590	 4.5520
 0.6600	 4.5280
 0.6610	 4.5030
 0.6620	 4.4760
 0.6630	 4.4510
 0.6640	 4.4280
 0.6650	 4.4070
 0.6660	 4.3890
 0.6670	 4.3750
 0.6680	 4.3640
 0.6690	 4.3580
 0.6700	 4.3570
 0.6710	 4.3600
 0.6720	 4.3660
 0.6730	 4.3820
 0.6740	 4.3980
 0.6750	 4.4160
 0.6760	 4.4400
 0.6770	 4.4670
 0.6780	 4.4990
 0.6790	 4.5340
 0.6800	 4.5770
 0.6810	 4.6240
 0.6820	 4.6760
 0.6830	 4.7350
 0.6840	 4.7970
 0.6850	 4.8660
 0.6860	 4.9460
 0.6870	 5.0350
 0.6880	 5.1330
 0.6890	 5.2480
 0.6900	 5.3840
 0.6910	 5.5430
 0.6920	 5.7310
 0.6930	 5.9470
 0.6940	 6.1950
 0.6950	 6.4730
 0.6960	 6.7810
 0.6970	 7.1160
 0.6980	 7.4770
 0.6990	 7.8640
 0.7000	 8.2750
 0.7010	 8.7090
 0.7020	 9.1580
 0.7030	 9.6200
 0.7040	10.0950
 0.7050	10.5860
 0.7060	11.0860
 0.7070	11.5950
 0.7080	12.1120
 0.7090	12.6380
 0.7100	13.1700
 0.7110	13.7150
 0.7120	14.2700
 0.7130	14.8280
 0.7140	15.3920
 0.7150	15.9660
 0.7160	16.5490
 0.7170	17.1350
 0.7180	17.7240
 0.7190	18.3150
 0.7200	18.9110
 0.7210	19.5060
 0.7220	20.0960
 0.7230	20.6800
 0.7240	21.2570
 0.7250	21.8240
 0.7260	22.3800
 0.7270	22.9220
 0.7280	23.4490
 0.7290	23.9600
 0.7300	24.4550
 0.7310	24.9310
 0.7320	25.3860
 0.7330	25.8220
 0.7340	26.2400
 0.7350	26.6390
 0.7360	27.0150
 0.7370	27.3720
 0.7380	27.7090
 0.7390	28.0270
 0.7400	28.3250
 0.7410	28.6040
 0.7420	28.8660
 0.7430	29.1100
 0.7440	29.3360
 0.7450	29.5430
 0.7460	29.7320
 0.7470	29.9100
 0.7480	30.0720
 0.7490	30.2150
 0.7500	30.3500
 0.7510	30.4730
 0.7520	30.5850
 0.7530	30.6890
 0.7540	30.7820
 0.7550	30.8670
 0.7560	30.9470
 0.7570	31.0190
 0.7580	31.0870
 0.7590	31.1490
 0.7600	31.2040
 0.7610	31.2540
 0.7620	31.2980
 0.7630	31.3410
 0.7640	31.3830
 0.7650	31.4130
 0.7660	31.4440
 0.7670	31.4750
 0.7680	31.5030
 0.7690	31.5290
 0.7700	31.5540
 0.7710	31.5770
 0.7720	31.5970
 0.7730	31.6150
 0.7740	31.6320
 0.7750	31.6490
 0.7760	31.6670
 0.7770	31.6850
 0.7780	31.7020
 0.7790	31.7180
 0.7800	31.7350
 0.7810	31.7500
 0.7820	31.7610
 0.7830	31.7750
 0.7840	31.7900
 0.7850	31.8040
 0.7860	31.8160
 0.7870	31.8290
 0.7880	31.8400
 0.7890	31.8510
 0.7900	31.8620
 0.7910	31.8720
 0.7920	31.8790
 0.7930	31.8860
 0.7940	31.8920
 0.7950	31.8990
 0.7960	31.9030
 0.7970	31.9050
 0.7980	31.9090
 0.7990	31.9160
 0.8000	31.9190
 0.8010	31.9160
 0.8020	31.9180
 0.8030	31.9230
 0.8040	31.9260
 0.8050	31.9240
 0.8060	31.9210
 0.8070	31.9200
 0.8080	31.9200
 0.8090	31.9190
 0.8100	31.9190
 0.8110	31.9160
 0.8120	31.9090
 0.8130	31.9010
 0.8140	31.8960
 0.8150	31.8930
 0.8160	31.8910
 0.8170	31.8890
 0.8180	31.8830
 0.8190	31.8760
 0.8200	31.8710
 0.8210	31.8650
 0.8220	31.8610
 0.8230	31.8580
 0.8240	31.8490
 0.8250	31.8400
 0.8260	31.8340
 0.8270	31.8320
 0.8280	31.8270
 0.8290	31.8190
 0.8300	31.8120
 0.8310	31.8070
 0.8320	31.8050
 0.8330	31.7970
 0.8340	31.7870
 0.8350	31.7800
 0.8360	31.7810
 0.8370	31.7810
 0.8380	31.7780
 0.8390	31.7760
 0.8400	31.7730
 0.8410	31.7720
 0.8420	31.7760
 0.8430	31.7770
 0.8440	31.7760
 0.8450	31.7760
 0.8460	31.7770
 0.8470	31.7810
 0.8480	31.7830
 0.8490	31.7850
 0.8500	31.7860
 0.8510	31.7900
 0.8520	31.7950
 0.8530	31.8000
 0.8540	31.8050
 0.8550	31.8070
 0.8560	31.8110
 0.8570	31.8190
 0.8580	31.8210
 0.8590	31.8280
 0.8600	31.8370
 0.8610	31.8470
 0.8620	31.8600
 0.8630	31.8700
 0.8640	31.8780
 0.8650	31.8860
 0.8660	31.8940
 0.8670	31.9030
 0.8680	31.9130
 0.8690	31.9230
 0.8700	31.9310
 0.8710	31.9430
 0.8720	31.9580
 0.8730	31.9740
 0.8740	31.9810
 0.8750	31.9900
 0.8760	32.0030
 0.8770	32.0140
 0.8780	32.0270
 0.8790	32.0380
 0.8800	32.0480
 0.8810	32.0650
 0.8820	32.0760
 0.8830	32.0850
 0.8840	32.0960
 0.8850	32.1060
 0.8860	32.1180
 0.8870	32.1290
 0.8880	32.1370
 0.8890	32.1490
 0.8900	32.1610
 0.8910	32.1740
 0.8920	32.1860
 0.8930	32.1910
 0.8940	32.1970
 0.8950	32.2070
 0.8960	32.2180
 0.8970	32.2290
 0.8980	32.2390
 0.8990	32.2460
 0.9000	32.2550
 0.9010	32.2610
 0.9020	32.2660
 0.9030	32.2700
 0.9040	32.2760
 0.9050	32.2900
 0.9060	32.3000
 0.9070	32.3000
 0.9080	32.3020
 0.9090	32.3100
 0.9100	32.3170
 0.9110	32.3210
 0.9120	32.3350
 0.9130	32.3370
 0.9140	32.3360
 0.9150	32.3420
 0.9160	32.3480
 0.9170	32.3500
 0.9180	32.3480
 0.9190	32.3490
 0.9200	32.3510
 0.9210	32.3510
 0.9220	32.3500
 0.9230	32.3500
 0.9240	32.3460
 0.9250	32.3440
 0.9260	32.3390
 0.9270	32.3260
 0.9280	32.3200
 0.9290	32.3090
 0.9300	32.2950
 0.9310	32.2880
 0.9320	32.2810
 0.9330	32.2650
 0.9340	32.2430
 0.9350	32.2280
 0.9360	32.2170
 0.9370	32.2060
 0.9380	32.1900
 0.9390	32.1680
 0.9400	32.1430
 0.9410	32.1240
 0.9420	32.1090
 0.9430	32.0850
 0.9440	32.0570
 0.9450	32.0270
 0.9460	31.9960
 0.9470	31.9640
 0.9480	31.9330
 0.9490	31.8960
 0.9500	31.8520
 0.9510	31.8160
 0.9520	31.7740
 0.9530	31.7270
 0.9540	31.6820
 0.9550	31.6380
 0.9560	31.5880
 0.9570	31.5410
 0.9580	31.5030
 0.9590	31.4670
 0.9600	31.4310
 0.9610	31.3940
 0.9620	31.3560
 0.9630	31.3280
 0.9640	31.3040
 0.9650	31.2820
 0.9660	31.2610
 0.9670	31.2460
 0.9680	31.2180
 0.9690	31.1940
 0.9700	31.1930
 0.9710	31.1760
 0.9720	31.1520
 0.9730	31.1340
 0.9740	31.1300
 0.9750	31.1180
 0.9760	31.1130
 0.9770	31.1110
 0.9780	31.1050
 0.9790	31.0950
 0.9800	31.0670
 0.9810	31.0460
 0.9820	31.0620
 0.9830	31.0720
 0.9840	31.0720
 0.9850	31.0740
 0.9860	31.0900
 0.9870	31.0860
 0.9880	31.0810
 0.9890	31.0830
 0.9900	31.0940
 0.9910	31.1010
 0.9920	31.1010
 0.9930	31.1020
 0.9940	31.1120
 0.9950	31.1110
 0.9960	31.1210
 0.9970	31.1340
 0.9980	31.1360
 0.9990	31.1570
 1.0000	31.1630
 1.0010	31.0370
 1.0020	31.0510
 1.0030	31.0670
 1.0040	31.0800
 1.0050	31.0950
 1.0060	31.1070
 1.0070	31.1180
 1.0080	31.1320
 1.0090	31.1460
 1.0100	31.1600
 1.0110	31.1760
 1.0120	31.1920
 1.0130	31.2080
 1.0140	31.2220
 1.0150	31.2360
 1.0160	31.2450
 1.0170	31.2550
 1.0180	31.2660
 1.0190	31.2830
 1.0200	31.3000
 1.0210	31.3120
 1.0220	31.3280
 1.0230	31.3410
 1.0240	31.3500
 1.0250	31.3650
 1.0260	31.3820
 1.0270	31.3960
 1.0280	31.4130
 1.0290	31.4250
 1.0300	31.4300
 1.0310	31.4390
 1.0320	31.4480
 1.0330	31.4590
 1.0340	31.4740
 1.0350	31.4880
 1.0360	31.4980
 1.0370	31.5090
 1.0380	31.5200
 1.0390	31.5310
 1.0400	31.5410
 1.0410	31.5500
 1.0420	31.5620
 1.0430	31.5790
 1.0440	31.5900
 1.0450	31.6010
 1.0460	31.6110
 1.0470	31.6130
 1.0480	31.6210
 1.0490	31.6370
 1.0500	31.6460
 1.0510	31.6510
 1.0520	31.6560
 1.0530	31.6640
 1.0540	31.6720
 1.0550	31.6790
 1.0560	31.6910
 1.0570	31.6980
 1.0580	31.6980
 1.0590	31.7030
 1.0600	31.7110
 1.0610	31.7170
 1.0620	31.7240
 1.0630	31.7310
 1.0640	31.7390
 1.0650	31.7450
 1.0660	31.7500
 1.0670	31.7560
 1.0680	31.7620
 1.0690	31.7680
 1.0700	31.7720
 1.0710	31.7780
 1.0720	31.7820
 1.0730	31.7830
 1.0740	31.7870
 1.0750	31.7910
 1.0760	31.7950
 1.0770	31.8020
 1.0780	31.8060
 1.0790	31.8090
 1.0800	31.8120
 1.0810	31.8120
 1.0820	31.8120
 1.0830	31.8110
 1.0840	31.8100
 1.0850	31.8090
 1.0860	31.8080
 1.0870	31.8070
 1.0880	31.8050
 1.0890	31.8040
 1.0900	31.8020
 1.0910	31.7990
 1.0920	31.7970
 1.0930	31.7930
 1.0940	31.7870
 1.0950	31.7820
 1.0960	31.7770
 1.0970	31.7730
 1.0980	31.7700
 1.0990	31.7650
 1.1000	31.7590
 1.1010	31.7520
 1.1020	31.7430
 1.1030	31.7340
 1.1040	31.7280
 1.1050	31.7210
 1.1060	31.7110
 1.1070	31.7020
 1.1080	31.6910
 1.1090	31.6760
 1.1100	31.6630
 1.1110	31.6520
 1.1120	31.6390
 1.1130	31.6250
 1.1140	31.6110
 1.1150	31.5950
 1.1160	31.5790
 1.1170	31.5620
 1.1180	31.5430
 1.1190	31.5210
 1.1200	31.5010
 1.1210	31.4760
 1.1220	31.4490
 1.1230	31.4220
 1.1240	31.3910
 1.1250	31.3560
 1.1260	31.3190
 1.1270	31.2760
 1.1280	31.2290
 1.1290	31.1770
 1.1300	31.1220
 1.1310	31.0610
 1.1320	30.9950
 1.1330	30.9240
 1.1340	30.8480
 1.1350	30.7660
 1.1360	30.6780
 1.1370	30.5840
 1.1380	30.4860
 1.1390	30.3850
 1.1400	30.2810
 1.1410	30.1770
 1.1420	30.0700
 1.1430	29.9630
 1.1440	29.8540
 1.1450	29.7410
 1.1460	29.6320
 1.1470	29.5220
 1.1480	29.4180
 1.1490	29.3160
 1.1500	29.2200
 1.1510	29.1260
 1.1520	29.0390
 1.1530	28.9560
 1.1540	28.8770
 1.1550	28.8030
 1.1560	28.7340
 1.1570	28.6690
 1.1580	28.6080
 1.1590	28.5510
 1.1600	28.4990
 1.1610	28.4510
 1.1620	28.4040
 1.1630	28.3630
 1.1640	28.3220
 1.1650	28.2840
 1.1660	28.2480
 1.1670	28.2130
 1.1680	28.1780
 1.1690	28.1440
 1.1700	28.1100
 1.1710	28.0780
 1.1720	28.0480
 1.1730	28.0170
 1.1740	27.9880
 1.1750	27.9570
 1.1760	27.9240
 1.1770	27.8920
 1.1780	27.8570
 1.1790	27.8230
 1.1800	27.7920
 1.1810	27.7580
 1.1820	27.7260
 1.1830	27.6960
 1.1840	27.6680
 1.1850	27.6420
 1.1860	27.6180
 1.1870	27.5970
 1.1880	27.5790
 1.1890	27.5620
 1.1900	27.5480
 1.1910	27.5360
 1.1920	27.5260
 1.1930	27.5190
 1.1940	27.5140
 1.1950	27.5110
 1.1960	27.5110
 1.1970	27.5130
 1.1980	27.5170
 1.1990	27.5220
 1.2000	27.5310
 1.2010	27.5410
 1.2020	27.5520
 1.2030	27.5630
 1.2040	27.5740
 1.2050	27.5860
 1.2060	27.6010
 1.2070	27.6200
 1.2080	27.6370
 1.2090	27.6550
 1.2100	27.6760
 1.2110	27.6970
 1.2120	27.7170
 1.2130	27.7410
 1.2140	27.7680
 1.2150	27.7940
 1.2160	27.8220
 1.2170	27.8500
 1.2180	27.8780
 1.2190	27.9080
 1.2200	27.9350
 1.2210	27.9620
 1.2220	27.9910
 1.2230	28.0180
 1.2240	28.0470
 1.2250	28.0760
 1.2260	28.1030
 1.2270	28.1280
 1.2280	28.1520
 1.2290	28.1780
 1.2300	28.2030
 1.2310	28.2270
 1.2320	28.2500
 1.2330	28.2710
 1.2340	28.2910
 1.2350	28.3110
 1.2360	28.3310
 1.2370	28.3500
 1.2380	28.3690
 1.2390	28.3880
 1.2400	28.4050
 1.2410	28.4220
 1.2420	28.4370
 1.2430	28.4510
 1.2440	28.4650
 1.2450	28.4770
 1.2460	28.4890
 1.2470	28.5050
 1.2480	28.5180
 1.2490	28.5300
 1.2500	28.5420
 1.2510	28.5510
 1.2520	28.5610
 1.2530	28.5740
 1.2540	28.5820
 1.2550	28.5880
 1.2560	28.5950
 1.2570	28.6010
 1.2580	28.6070
 1.2590	28.6120
 1.2600	28.6180
 1.2610	28.6220
 1.2620	28.6250
 1.2630	28.6270
 1.2640	28.6270
 1.2650	28.6270
 1.2660	28.6250
 1.2670	28.6240
 1.2680	28.6240
 1.2690	28.6230
 1.2700	28.6190
 1.2710	28.6140
 1.2720	28.6090
 1.2730	28.6040
 1.2740	28.5990
 1.2750	28.5920
 1.2760	28.5830
 1.2770	28.5730
 1.2780	28.5600
 1.2790	28.5490
 1.2800	28.5370
 1.2810	28.5230
 1.2820	28.5080
 1.2830	28.4930
 1.2840	28.4750
 1.2850	28.4570
 1.2860	28.4390
 1.2870	28.4200
 1.2880	28.3980
 1.2890	28.3750
 1.2900	28.3530
 1.2910	28.3300
 1.2920	28.3060
 1.2930	28.2820
 1.2940	28.2550
 1.2950	28.2260
 1.2960	28.1950
 1.2970	28.1630
 1.2980	28.1310
 1.2990	28.0970
 1.3000	28.0600
 1.3010	28.0220
 1.3020	27.9800
 1.3030	27.9360
 1.3040	27.8910
 1.3050	27.8460
 1.3060	27.7980
 1.3070	27.7500
 1.3080	27.7000
 1.3090	27.6460
 1.3100	27.5900
 1.3110	27.5340
 1.3120	27.4730
 1.3130	27.4110
 1.3140	27.3470
 1.3150	27.2790
 1.3160	27.2080
 1.3170	27.1370
 1.3180	27.0610
 1.3190	26.9810
 1.3200	26.9020
 1.3210	26.8190
 1.3220	26.7330
 1.3230	26.6470
 1.3240	26.5580
 1.3250	26.4670
 1.3260	26.3750
 1.3270	26.2810
 1.3280	26.1840
 1.3290	26.0860
 1.3300	25.9870
 1.3310	25.8850
 1.3320	25.7830
 1.3330	25.6780
 1.3340	25.5730
 1.3350	25.4670
 1.3360	25.3600
 1.3370	25.2530
 1.3380	25.1470
 1.3390	25.0400
 1.3400	24.9320
 1.3410	24.8250
 1.3420	24.7190
 1.3430	24.6130
 1.3440	24.5080
 1.3450	24.4050
 1.3460	24.3010
 1.3470	24.1990
 1.3480	24.0970
 1.3490	23.9970
 1.3500	23.8970
 1.3510	23.7980
 1.3520	23.6980
 1.3530	23.6010
 1.3540	23.5040
 1.3550	23.4070
 1.3560	23.3130
 1.3570	23.2180
 1.3580	23.1210
 1.3590	23.0240
 1.3600	22.9240
 1.3610	22.8220
 1.3620	22.7170
 1.3630	22.6120
 1.3640	22.5020
 1.3650	22.3880
 1.3660	22.2700
 1.3670	22.1450
 1.3680	22.0130
 1.3690	21.8750
 1.3700	21.7280
 1.3710	21.5740
 1.3720	21.4100
 1.3730	21.2350
 1.3740	21.0530
 1.3750	20.8590
 1.3760	20.6510
 1.3770	20.4290
 1.3780	20.1910
 1.3790	19.9390
 1.3800	19.6720
 1.3810	19.3890
 1.3820	19.0960
 1.3830	18.7890
 1.3840	18.4710
 1.3850	18.1410
 1.3860	17.8010
 1.3870	17.4470
 1.3880	17.0920
 1.3890	16.7280
 1.3900	16.3600
 1.3910	15.9950
 1.3920	15.6260
 1.3930	15.2560
 1.3940	14.8920
 1.3950	14.5280
 1.3960	14.1700
 1.3970	13.8220
 1.3980	13.4820
 1.3990	13.1550
 1.4000	12.8380
 1.4010	12.5300
 1.4020	12.2350
 1.4030	11.9510
 1.4040	11.6810
 1.4050	11.4250
 1.4060	11.1820
 1.4070	10.9530
 1.4080	10.7370
 1.4090	10.5320
 1.4100	10.3400
 1.4110	10.1590
 1.4120	 9.9890
 1.4130	 9.8320
 1.4140	 9.6840
 1.4150	 9.5480
 1.4160	 9.4220
 1.4170	 9.3040
 1.4180	 9.1940
 1.4190	 9.0920
 1.4200	 8.9970
 1.4210	 8.9080
 1.4220	 8.8260
 1.4230	 8.7490
 1.4240	 8.6780
 1.4250	 8.6120
 1.4260	 8.5510
 1.4270	 8.4940
 1.4280	 8.4420
 1.4290	 8.3940
 1.4300	 8.3500
 1.4310	 8.3090
 1.4320	 8.2720
 1.4330	 8.2380
 1.4340	 8.2060
 1.4350	 8.1780
 1.4360	 8.1520
 1.4370	 8.1300
 1.4380	 8.1100
 1.4390	 8.0910
 1.4400	 8.0760
 1.4410	 8.0630
 1.4420	 8.0510
 1.4430	 8.0410
 1.4440	 8.0320
 1.4450	 8.0230
 1.4460	 8.0160
 1.4470	 8.0120
 1.4480	 8.0090
 1.4490	 8.0090
 1.4500	 8.0090
 1.4510	 8.0080
 1.4520	 8.0090
 1.4530	 8.0110
 1.4540	 8.0140
 1.4550	 8.0200
 1.4560	 8.0270
 1.4570	 8.0340
 1.4580	 8.0430
 1.4590	 8.0540
 1.4600	 8.0660
 1.4610	 8.0810
 1.4620	 8.0980
 1.4630	 8.1160
 1.4640	 8.1370
 1.4650	 8.1610
 1.4660	 8.1870
 1.4670	 8.2160
 1.4680	 8.2470
 1.4690	 8.2820
 1.4700	 8.3170
 1.4710	 8.3550
 1.4720	 8.3950
 1.4730	 8.4370
 1.4740	 8.4810
 1.4750	 8.5270
 1.4760	 8.5750
 1.4770	 8.6230
 1.4780	 8.6740
 1.4790	 8.7280
 1.4800	 8.7820
 1.4810	 8.8370
 1.4820	 8.8930
 1.4830	 8.9480
 1.4840	 9.0040
 1.4850	 9.0630
 1.4860	 9.1230
 1.4870	 9.1830
 1.4880	 9.2450
 1.4890	 9.3080
 1.4900	 9.3710
 1.4910	 9.4340
 1.4920	 9.4980
 1.4930	 9.5630
 1.4940	 9.6280
 1.4950	 9.6920
 1.4960	 9.7580
 1.4970	 9.8240
 1.4980	 9.8910
 1.4990	 9.9590
 1.5000	10.0260
 1.5010	10.0950
 1.5020	10.1620
 1.5030	10.2300
 1.5040	10.2970
 1.5050	10.3640
 1.5060	10.4320
 1.5070	10.5010
 1.5080	10.5690
 1.5090	10.6390
 1.5100	10.7080
 1.5110	10.7770
 1.5120	10.8460
 1.5130	10.9140
 1.5140	10.9820
 1.5150	11.0510
 1.5160	11.1200
 1.5170	11.1890
 1.5180	11.2580
 1.5190	11.3280
 1.5200	11.3960
 1.5210	11.4630
 1.5220	11.5300
 1.5230	11.5970
 1.5240	11.6630
 1.5250	11.7310
 1.5260	11.7970
 1.5270	11.8620
 1.5280	11.9270
 1.5290	11.9910
 1.5300	12.0550
 1.5310	12.1180
 1.5320	12.1800
 1.5330	12.2420
 1.5340	12.3030
 1.5350	12.3640
 1.5360	12.4250
 1.5370	12.4860
 1.5380	12.5470
 1.5390	12.6060
 1.5400	12.6640
 1.5410	12.7230
 1.5420	12.7800
 1.5430	12.8380
 1.5440	12.8980
 1.5450	12.9570
 1.5460	13.0160
 1.5470	13.0750
 1.5480	13.1300
 1.5490	13.1870
 1.5500	13.2410
 1.5510	13.2950
 1.5520	13.3500
 1.5530	13.4040
 1.5540	13.4570
 1.5550	13.5110
 1.5560	13.5630
 1.5570	13.6160
 1.5580	13.6690
 1.5590	13.7200
 1.5600	13.7710
 1.5610	13.8220
 1.5620	13.8700
 1.5630	13.9210
 1.5640	13.9710
 1.5650	14.0190
 1.5660	14.0670
 1.5670	14.1140
 1.5680	14.1620
 1.5690	14.2090
 1.5700	14.2560
 1.5710	14.3030
 1.5720	14.3480
 1.5730	14.3940
 1.5740	14.4400
 1.5750	14.4850
 1.5760	14.5300
 1.5770	14.5760
 1.5780	14.6210
 1.5790	14.6650
 1.5800	14.7090
 1.5810	14.7530
 1.5820	14.7960
 1.5830	14.8400
 1.5840	14.8860
 1.5850	14.9300
 1.5860	14.9730
 1.5870	15.0150
 1.5880	15.0550
 1.5890	15.0960
 1.5900	15.1380
 1.5910	15.1790
 1.5920	15.2210
 1.5930	15.2630
 1.5940	15.3050
 1.5950	15.3490
 1.5960	15.3930
 1.5970	15.4340
 1.5980	15.4740
 1.5990	15.5140
 1.6000	15.5520
 1.6010	15.5910
 1.6020	15.6290
 1.6030	15.6660
 1.6040	15.7050
 1.6050	15.7440
 1.6060	15.7820
 1.6070	15.8200
 1.6080	15.8580
 1.6090	15.8930
 1.6100	15.9280
 1.6110	15.9630
 1.6120	15.9980
 1.6130	16.0330
 1.6140	16.0680
 1.6150	16.1010
 1.6160	16.1330
 1.6170	16.1640
 1.6180	16.1940
 1.6190	16.2240
 1.6200	16.2520
 1.6210	16.2790
 1.6220	16.3070
 1.6230	16.3330
 1.6240	16.3570
 1.6250	16.3800
 1.6260	16.4020
 1.6270	16.4230
 1.6280	16.4460
 1.6290	16.4680
 1.6300	16.4890
 1.6310	16.5100
 1.6320	16.5310
 1.6330	16.5510
 1.6340	16.5720
 1.6350	16.5920
 1.6360	16.6120
 1.6370	16.6330
 1.6380	16.6530
 1.6390	16.6730
 1.6400	16.6920
 1.6410	16.7110
 1.6420	16.7300
 1.6430	16.7470
 1.6440	16.7630
 1.6450	16.7760
 1.6460	16.7880
 1.6470	16.7990
 1.6480	16.8090
 1.6490	16.8180
 1.6500	16.8240
 1.6510	16.8280
 1.6520	16.8290
 1.6530	16.8280
 1.6540	16.8260
 1.6550	16.8230
 1.6560	16.8180
 1.6570	16.8120
 1.6580	16.8060
 1.6590	16.7980
 1.6600	16.7910
 1.6610	16.7820
 1.6620	16.7710
 1.6630	16.7610
 1.6640	16.7480
 1.6650	16.7340
 1.6660	16.7190
 1.6670	16.7030
 1.6680	16.6850
 1.6690	16.6650
 1.6700	16.6420
 1.6710	16.6170
 1.6720	16.5890
 1.6730	16.5600
 1.6740	16.5260
 1.6750	16.4880
 1.6760	16.4480
 1.6770	16.4050
 1.6780	16.3590
 1.6790	16.3120
 1.6800	16.2630
 1.6810	16.2120
 1.6820	16.1590
 1.6830	16.1070
 1.6840	16.0540
 1.6850	16.0010
 1.6860	15.9490
 1.6870	15.8960
 1.6880	15.8410
 1.6890	15.7850
 1.6900	15.7300
 1.6910	15.6750
 1.6920	15.6200
 1.6930	15.5660
 1.6940	15.5130
 1.6950	15.4610
 1.6960	15.4120
 1.6970	15.3650
 1.6980	15.3200
 1.6990	15.2790
 1.7000	15.2390
 1.7010	15.2000
 1.7020	15.1640
 1.7030	15.1300
 1.7040	15.0960
 1.7050	15.0640
 1.7060	15.0320
 1.7070	15.0000
 1.7080	14.9710
 1.7090	14.9440
 1.7100	14.9180
 1.7110	14.8940
 1.7120	14.8690
 1.7130	14.8440
 1.7140	14.8200
 1.7150	14.7970
 1.7160	14.7770
 1.7170	14.7570
 1.7180	14.7360
 1.7190	14.7160
 1.7200	14.6940
 1.7210	14.6720
 1.7220	14.6480
 1.7230	14.6230
 1.7240	14.5980
 1.7250	14.5740
 1.7260	14.5500
 1.7270	14.5260
 1.7280	14.5050
 1.7290	14.4840
 1.7300	14.4610
 1.7310	14.4400
 1.7320	14.4150
 1.7330	14.3940
 1.7340	14.3770
 1.7350	14.3590
 1.7360	14.3430
 1.7370	14.3230
 1.7380	14.3020
 1.7390	14.2790
 1.7400	14.2560
 1.7410	14.2300
 1.7420	14.2020
 1.7430	14.1730
 1.7440	14.1420
 1.7450	14.1090
 1.7460	14.0760
 1.7470	14.0420
 1.7480	14.0070
 1.7490	13.9740
 1.7500	13.9390
 1.7510	13.9080
 1.7520	13.8770
 1.7530	13.8490
 1.7540	13.8230
 1.7550	13.7970
 1.7560	13.7720
 1.7570	13.7520
 1.7580	13.7310
 1.7590	13.7130
 1.7600	13.6960
 1.7610	13.6780
 1.7620	13.6610
 1.7630	13.6450
 1.7640	13.6300
 1.7650	13.6160
 1.7660	13.6040
 1.7670	13.5950
 1.7680	13.5840
 1.7690	13.5740
 1.7700	13.5630
 1.7710	13.5500
 1.7720	13.5390
 1.7730	13.5280
 1.7740	13.5170
 1.7750	13.5060
 1.7760	13.4960
 1.7770	13.4860
 1.7780	13.4760
 1.7790	13.4690
 1.7800	13.4620
 1.7810	13.4560
 1.7820	13.4510
 1.7830	13.4470
 1.7840	13.4430
 1.7850	13.4390
 1.7860	13.4360
 1.7870	13.4340
 1.7880	13.4340
 1.7890	13.4350
 1.7900	13.4390
 1.7910	13.4410
 1.7920	13.4410
 1.7930	13.4440
 1.7940	13.4470
 1.7950	13.4520
 1.7960	13.4600
 1.7970	13.4660
 1.7980	13.4700
 1.7990	13.4760
 1.8000	13.4830
 1.8010	13.4890
 1.8020	13.4980
 1.8030	13.5050
 1.8040	13.5120
 1.8050	13.5190
 1.8060	13.5260
 1.8070	13.5330
 1.8080	13.5410
 1.8090	13.5490
 1.8100	13.5570
 1.8110	13.5650
 1.8120	13.5720
 1.8130	13.5790
 1.8140	13.5860
 1.8150	13.5890
 1.8160	13.5930
 1.8170	13.5960
 1.8180	13.5990
 1.8190	13.6040
 1.8200	13.6070
 1.8210	13.6110
 1.8220	13.6110
 1.8230	13.6060
 1.8240	13.6050
 1.8250	13.6040
 1.8260	13.6020
 1.8270	13.6010
 1.8280	13.5970
 1.8290	13.5890
 1.8300	13.5800
 1.8310	13.9540
 1.8320	13.9420
 1.8330	13.9290
 1.8340	13.9160
 1.8350	13.9000
 1.8360	13.8820
 1.8370	13.8610
 1.8380	13.8360
 1.8390	13.8070
 1.8400	13.7710
 1.8410	13.7360
 1.8420	13.6980
 1.8430	13.6580
 1.8440	13.6110
 1.8450	13.5640
 1.8460	13.5140
 1.8470	13.4530
 1.8480	13.3860
 1.8490	13.3140
 1.8500	13.2360
 1.8510	13.1490
 1.8520	13.0580
 1.8530	12.9630
 1.8540	12.8580
 1.8550	12.7440
 1.8560	12.6230
 1.8570	12.4950
 1.8580	12.3610
 1.8590	12.2200
 1.8600	12.0720
 1.8610	11.9140
 1.8620	11.7460
 1.8630	11.5690
 1.8640	11.3850
 1.8650	11.1910
 1.8660	10.9920
 1.8670	10.7830
 1.8680	10.5590
 1.8690	10.3280
 1.8700	10.0900
 1.8710	 9.8440
 1.8720	 9.5910
 1.8730	 9.3340
 1.8740	 9.0750
 1.8750	 8.8100
 1.8760	 8.5440
 1.8770	 8.2800
 1.8780	 8.0140
 1.8790	 7.7500
 1.8800	 7.4920
 1.8810	 7.2370
 1.8820	 6.9830
 1.8830	 6.7360
 1.8840	 6.4960
 1.8850	 6.2580
 1.8860	 6.0280
 1.8870	 5.8040
 1.8880	 5.5810
 1.8890	 5.3740
 1.8900	 5.1800
 1.8910	 4.9950
 1.8920	 4.8180
 1.8930	 4.6560
 1.8940	 4.5020
 1.8950	 4.3540
 1.8960	 4.2210
 1.8970	 4.0990
 1.8980	 3.9870
 1.8990	 3.8860
 1.9000	 3.7900
 1.9010	 3.7020
 1.9020	 3.6200
 1.9030	 3.5460
 1.9040	 3.4770
 1.9050	 3.4140
 1.9060	 3.3580
 1.9070	 3.3080
 1.9080	 3.2630
 1.9090	 3.2200
 1.9100	 3.1830
 1.9110	 3.1490
 1.9120	 3.1190
 1.9130	 3.0900
 1.9140	 3.0630
 1.9150	 3.0400
 1.9160	 3.0170
 1.9170	 2.9990
 1.9180	 2.9850
 1.9190	 2.9730
 1.9200	 2.9610
 1.9210	 2.9470
 1.9220	 2.9370
 1.9230	 2.9290
 1.9240	 2.9230
 1.9250	 2.9190
 1.9260	 2.9160
 1.9270	 2.9140
 1.9280	 2.9120
 1.9290	 2.9080
 1.9300	 2.9050
 1.9310	 2.9040
 1.9320	 2.9040
 1.9330	 2.9060
 1.9340	 2.9100
 1.9350	 2.9140
 1.9360	 2.9200
 1.9370	 2.9250
 1.9380	 2.9300
 1.9390	 2.9380
 1.9400	 2.9460
 1.9410	 2.9530
 1.9420	 2.9610
 1.9430	 2.9690
 1.9440	 2.9790
 1.9450	 2.9900
 1.9460	 3.0010
 1.9470	 3.0140
 1.9480	 3.0260
 1.9490	 3.0370
 1.9500	 3.0510
 1.9510	 3.0650
 1.9520	 3.0780
 1.9530	 3.0930
 1.9540	 3.1050
 1.9550	 3.1180
 1.9560	 3.1300
 1.9570	 3.1440
 1.9580	 3.1560
 1.9590	 3.1710
 1.9600	 3.1900
 1.9610	 3.2090
 1.9620	 3.2300
 1.9630	 3.2510
 1.9640	 3.2690
 1.9650	 3.2860
 1.9660	 3.3060
 1.9670	 3.3270
 1.9680	 3.3470
 1.9690	 3.3700
 1.9700	 3.3900
 1.9710	 3.4090
 1.9720	 3.4290
 1.9730	 3.4500
 1.9740	 3.4720
 1.9750	 3.4930
 1.9760	 3.5130
 1.9770	 3.5320
 1.9780	 3.5510
 1.9790	 3.5700
 1.9800	 3.5900
 1.9810	 3.6130
 1.9820	 3.6380
 1.9830	 3.6620
 1.9840	 3.6860
 1.9850	 3.7100
 1.9860	 3.7330
 1.9870	 3.7560
 1.9880	 3.7830
 1.9890	 3.8120
 1.9900	 3.8380
 1.9910	 3.8640
 1.9920	 3.8890
 1.9930	 3.9130
 1.9940	 3.9370
 1.9950	 3.9600
 1.9960	 3.9850
 1.9970	 4.0090
 1.9980	 4.0350
 1.9990	 4.0660
 2.0000	 4.0950
 2.0010	 4.1210
 2.0020	 4.1450
 2.0030	 4.1690
 2.0040	 4.1910
 2.0050	 4.2170
 2.0060	 4.2440
 2.0070	 4.2720
 2.0080	 4.3030
 2.0090	 4.3310
 2.0100	 4.3580
 2.0110	 4.3840
 2.0120	 4.4080
 2.0130	 4.4330
 2.0140	 4.4570
 2.0150	 4.4810
 2.0160	 4.5070
 2.0170	 4.5350
 2.0180	 4.5610
 2.0190	 4.5910
 2.0200	 4.6160
 2.0210	 4.6380
 2.0220	 4.6620
 2.0230	 4.6870
 2.0240	 4.7110
 2.0250	 4.7340
 2.0260	 4.7580
 2.0270	 4.7790
 2.0280	 4.8010
 2.0290	 4.8240
 2.0300	 4.8510
 2.0310	 4.8740
 2.0320	 4.8960
 2.0330	 4.9170
 2.0340	 4.9370
 2.0350	 4.9570
 2.0360	 4.9780
 2.0370	 4.9990
 2.0380	 5.0180
 2.0390	 5.0380
 2.0400	 5.0580
 2.0410	 5.0770
 2.0420	 5.0940
 2.0430	 5.1100
 2.0440	 5.1270
 2.0450	 5.1410
 2.0460	 5.1570
 2.0470	 5.1740
 2.0480	 5.1900
 2.0490	 5.2050
 2.0500	 5.2220
 2.0510	 5.2400
 2.0520	 5.2580
 2.0530	 5.2790
 2.0540	 5.2980
 2.0550	 5.3150
 2.0560	 5.3340
 2.0570	 5.3510
 2.0580	 5.3660
 2.0590	 5.3840
 2.0600	 5.4030
 2.0610	 5.4210
 2.0620	 5.4410
 2.0630	 5.4600
 2.0640	 5.4790
 2.0650	 5.4970
 2.0660	 5.5160
 2.0670	 5.5340
 2.0680	 5.5500
 2.0690	 5.5690
 2.0700	 5.5880
 2.0710	 5.6070
 2.0720	 5.6300
 2.0730	 5.6480
 2.0740	 5.6670
 2.0750	 5.6860
 2.0760	 5.7040
 2.0770	 5.7180
 2.0780	 5.7370
 2.0790	 5.7570
 2.0800	 5.7770
 2.0810	 5.8020
 2.0820	 5.8240
 2.0830	 5.8460
 2.0840	 5.8660
 2.0850	 5.8830
 2.0860	 5.9020
 2.0870	 5.9200
 2.0880	 5.9350
 2.0890	 5.9510
 2.0900	 5.9660
 2.0910	 5.9820
 2.0920	 5.9980
 2.0930	 6.0160
 2.0940	 6.0370
 2.0950	 6.0560
 2.0960	 6.0730
 2.0970	 6.0920
 2.0980	 6.1120
 2.0990	 6.1310
 2.1000	 6.1520
 2.1010	 6.1700
 2.1020	 6.1850
 2.1030	 6.2030
 2.1040	 6.2220
 2.1050	 6.2390
 2.1060	 6.2580
 2.1070	 6.2790
 2.1080	 6.2970
 2.1090	 6.3130
 2.1100	 6.3310
 2.1110	 6.3480
 2.1120	 6.3660
 2.1130	 6.3840
 2.1140	 6.4030
 2.1150	 6.4260
 2.1160	 6.4430
 2.1170	 6.4570
 2.1180	 6.4730
 2.1190	 6.4850
 2.1200	 6.5000
 2.1210	 6.5160
 2.1220	 6.5360
 2.1230	 6.5540
 2.1240	 6.5720
 2.1250	 6.5880
 2.1260	 6.6040
 2.1270	 6.6210
 2.1280	 6.6400
 2.1290	 6.6550
 2.1300	 6.6690
 2.1310	 6.6830
 2.1320	 6.6920
 2.1330	 6.7060
 2.1340	 6.7260
 2.1350	 6.7420
 2.1360	 6.7580
 2.1370	 6.7740
 2.1380	 6.7890
 2.1390	 6.8040
 2.1400	 6.8220
 2.1410	 6.8390
 2.1420	 6.8550
 2.1430	 6.8690
 2.1440	 6.8860
 2.1450	 6.9030
 2.1460	 6.9180
 2.1470	 6.9330
 2.1480	 6.9480
 2.1490	 6.9620
 2.1500	 6.9780
 2.1510	 6.9990
 2.1520	 7.0150
 2.1530	 7.0310
 2.1540	 7.0450
 2.1550	 7.0540
 2.1560	 7.0660
 2.1570	 7.0790
 2.1580	 7.0910
 2.1590	 7.1060
 2.1600	 7.1210
 2.1610	 7.1310
 2.1620	 7.1400
 2.1630	 7.1510
 2.1640	 7.1600
 2.1650	 7.1700
 2.1660	 7.1820
 2.1670	 7.1940
 2.1680	 7.2060
 2.1690	 7.2180
 2.1700	 7.2330
 2.1710	 7.2450
 2.1720	 7.2550
 2.1730	 7.2670
 2.1740	 7.2790
 2.1750	 7.2930
 2.1760	 7.3080
 2.1770	 7.3230
 2.1780	 7.3390
 2.1790	 7.3530
 2.1800	 7.3660
 2.1810	 7.3790
 2.1820	 7.3890
 2.1830	 7.4040
 2.1840	 7.4170
 2.1850	 7.4300
 2.1860	 7.4430
 2.1870	 7.4550
 2.1880	 7.4670
 2.1890	 7.4790
 2.1900	 7.4890
 2.1910	 7.4960
 2.1920	 7.5070
 2.1930	 7.5200
 2.1940	 7.5310
 2.1950	 7.5450
 2.1960	 7.5560
 2.1970	 7.5620
 2.1980	 7.5700
 2.1990	 7.5770
 2.2000	 7.5860
 2.2010	 7.5980
 2.2020	 7.6090
 2.2030	 7.6220
 2.2040	 7.6320
 2.2050	 7.6430
 2.2060	 7.6480
 2.2070	 7.6550
 2.2080	 7.6600
 2.2090	 7.6640
 2.2100	 7.6640
 2.2110	 7.6690
 2.2120	 7.6760
 2.2130	 7.6790
 2.2140	 7.6830
 2.2150	 7.6850
 2.2160	 7.6820
 2.2170	 7.6790
 2.2180	 7.6760
 2.2190	 7.6720
 2.2200	 7.6650
 2.2210	 7.6590
 2.2220	 7.6560
 2.2230	 7.6500
 2.2240	 7.6420
 2.2250	 7.6320
 2.2260	 7.6190
 2.2270	 7.6040
 2.2280	 7.5860
 2.2290	 7.5650
 2.2300	 7.5390
 2.2310	 7.5120
 2.2320	 7.4880
 2.2330	 7.4640
 2.2340	 7.4360
 2.2350	 7.4080
 2.2360	 7.3760
 2.2370	 7.3360
 2.2380	 7.2990
 2.2390	 7.2630
 2.2400	 7.2250
 2.2410	 7.1870
 2.2420	 7.1430
 2.2430	 7.0960
 2.2440	 7.0480
 2.2450	 6.9930
 2.2460	 6.9430
 2.2470	 6.8950
 2.2480	 6.8460
 2.2490	 6.7970
 2.2500	 6.7480
 2.2510	 6.6970
 2.2520	 6.6470
 2.2530	 6.5990
 2.2540	 6.5500
 2.2550	 6.5000
 2.2560	 6.4520
 2.2570	 6.4030
 2.2580	 6.3570
 2.2590	 6.3130
 2.2600	 6.2700
 2.2610	 6.2300
 2.2620	 6.1870
 2.2630	 6.1490
 2.2640	 6.1010
 2.2650	 6.0560
 2.2660	 6.0220
 2.2670	 5.9870
 2.2680	 5.9560
 2.2690	 5.9240
 2.2700	 5.8930
 2.2710	 5.8630
 2.2720	 5.8330
 2.2730	 5.8060
 2.2740	 5.7810
 2.2750	 5.7590
 2.2760	 5.7390
 2.2770	 5.7200
 2.2780	 5.7070
 2.2790	 5.6870
 2.2800	 5.6620
 2.2810	 5.6400
 2.2820	 5.6150
 2.2830	 5.5930
 2.2840	 5.5770
 2.2850	 5.5550
 2.2860	 5.5320
 2.2870	 5.5080
 2.2880	 5.4780
 2.2890	 5.4530
 2.2900	 5.4290
 2.2910	 5.4050
 2.2920	 5.3860
 2.2930	 5.3600
 2.2940	 5.3270
 2.2950	 5.2970
 2.2960	 5.2630
 2.2970	 5.2330
 2.2980	 5.2030
 2.2990	 5.1810
 2.3000	 5.1540
 2.3010	 5.1290
 2.3020	 5.1110
 2.3030	 5.0900
 2.3040	 5.0740
 2.3050	 5.0610
 2.3060	 5.0430
 2.3070	 5.0290
 2.3080	 5.0160
 2.3090	 5.0070
 2.3100	 5.0030
 2.3110	 4.9950
 2.3120	 4.9930
 2.3130	 4.9940
 2.3140	 4.9950
 2.3150	 5.0010
 2.3160	 5.0050
 2.3170	 5.0070
 2.3180	 5.0110
 2.3190	 5.0170
 2.3200	 5.0170
 2.3210	 5.0140
 2.3220	 5.0100
 2.3230	 5.0000
 2.3240	 4.9940
 2.3250	 4.9890
 2.3260	 4.9790
 2.3270	 4.9630
 2.3280	 4.9540
 2.3290	 4.9450
 2.3300	 4.9340
 2.3310	 4.9320
 2.3320	 4.9190
 2.3330	 4.8960
 2.3340	 4.8750
 2.3350	 4.8480
 2.3360	 4.8280
 2.3370	 4.8090
 2.3380	 4.7920
 2.3390	 4.7780
 2.3400	 4.7640
 2.3410	 4.7530
 2.3420	 4.7370
 2.3430	 4.7230
 2.3440	 4.7040
 2.3450	 4.6690
 2.3460	 4.6510
 2.3470	 4.6350
 2.3480	 4.6260
 2.3490	 4.6410
 2.3500	 4.6380
 2.3510	 4.6330
 2.3520	 4.6260
 2.3530	 4.6100
 2.3540	 4.5920
 2.3550	 4.5810
 2.3560	 4.5710
 2.3570	 4.5670
 2.3580	 4.5610
 2.3590	 4.5580
 2.3600	 4.5490
 2.3610	 4.5300
 2.3620	 4.5160
 2.3630	 4.4980
 2.3640	 4.4880
 2.3650	 4.4880
 2.3660	 4.4830
 2.3670	 4.4750
 2.3680	 4.4640
 2.3690	 4.4410
 2.3700	 4.4200
 2.3710	 4.4170
 2.3720	 4.4110
 2.3730	 4.4090
 2.3740	 4.4120
 2.3750	 4.3980
 2.3760	 4.3780
 2.3770	 4.3630
 2.3780	 4.3440
 2.3790	 4.3290
 2.3800	 4.3240
 2.3810	 4.3170
 2.3820	 4.3030
 2.3830	 4.2860
 2.3840	 4.2630
 2.3850	 4.2480
 2.3860	 4.2440
 2.3870	 4.2350
 2.3880	 4.2310
 2.3890	 4.2220
 2.3900	 4.1890
 2.3910	 4.1590
 2.3920	 4.1360
 2.3930	 4.1090
 2.3940	 4.0970
 2.3950	 4.0930
 2.3960	 4.0800
 2.3970	 4.0770
 2.3980	 4.0700
 2.3990	 4.0640
 2.4000	 4.0640
 2.4010	 4.0420
 2.4020	 4.0140
 2.4030	 3.9880
 2.4040	 3.9650
 2.4050	 3.9600
 2.4060	 3.9590
 2.4070	 3.9500
 2.4080	 3.9260
 2.4090	 3.8960
 2.4100	 3.8690
 2.4110	 3.8510
 2.4120	 3.8450
 2.4130	 3.8360
 2.4140	 3.8250
 2.4150	 3.8160
 2.4160	 3.8060
 2.4170	 3.7950
 2.4180	 3.7790
 2.4190	 3.7540
 2.4200	 3.7220
 2.4210	 3.7030
 2.4220	 3.6900
 2.4230	 3.6760
 2.4240	 3.6780
 2.4250	 3.6700
 2.4260	 3.6490
 2.4270	 3.6350
 2.4280	 3.6230
 2.4290	 3.6060
 2.4300	 3.5870
 2.4310	 3.5800
 2.4320	 3.5710
 2.4330	 3.5530
 2.4340	 3.5390
 2.4350	 3.5230
 2.4360	 3.5000
 2.4370	 3.4830
 2.4380	 3.4670
 2.4390	 3.4510
 2.4400	 3.4410
 2.4410	 3.4240
 2.4420	 3.4070
 2.4430	 3.4030
 2.4440	 3.3940
 2.4450	 3.3780
 2.4460	 3.3780
 2.4470	 3.3800
 2.4480	 3.3620
 2.4490	 3.3500
 2.4500	 3.3300
 2.4510	 3.2880
 2.4520	 3.2440
 2.4530	 3.2210
 2.4540	 3.2160
 2.4550	 3.2150
 2.4560	 3.2270
 2.4570	 3.2150
 2.4580	 3.1910
 2.4590	 3.1750
 2.4600	 3.1660
 2.4610	 3.1760
 2.4620	 3.1650
 2.4630	 3.1560
 2.4640	 3.1360
 2.4650	 3.0970
 2.4660	 3.0950
 2.4670	 3.0830
 2.4680	 3.0630
 2.4690	 3.0780
 2.4700	 3.0670
 2.4710	 3.0600
 2.4720	 3.0570
 2.4730	 3.0240
 2.4740	 3.0200
 2.4750	 3.0470
 2.4760	 3.0500
 2.4770	 3.0660
 2.4780	 3.0550
 2.4790	 3.0070
 2.4800	 2.9800
 2.4810	 2.9400
 2.4820	 2.9520
 2.4830	 2.9320
 2.4840	 2.9050
 2.4850	 2.9240
 2.4860	 2.9220
 2.4870	 2.9280
 2.4880	 2.9570
 2.4890	 2.9720
 2.4900	 2.9580
 2.4910	 2.9670
 2.4920	 2.9670
 2.4930	 2.9280
 2.4940	 2.9500
 2.4950	 2.9450
 2.4960	 2.9410
 2.4970	 2.9850
 2.4980	 2.9060
 2.4990	 2.8450
 2.5000	 2.8710
