Name: Peltophorum dubium
Type: vegetation
Class: Tree
Genus: Peltophorum
Species: dubium
Sample No.: JPL206
Owner: JPL
Wavelength Range: VSWIR
Origin: 34.12584; -118.11246; WGS84
Collection Date: 10/3/2016
Description: Samples were collected at the Huntington Garden in San Marino California as part of a JPL Subcontract studying HyTES imagery. Samples were taken to JPL and processed within 48 hours of collection. The same leaves were processed in the Nicolet and then measured using the ASD.
Measurement: Bidirectional reflectance
First Column: X
Second Column: Y
X Units: Wavelength (micrometer)
Y Units: Reflectance (percentage)
First X Value: 0.35
Last X Value: 2.5
Number of X Values: 2151
Additional Information: vegetation.tree.peltophorum.dubium.vswir.jpl206.jpl.asd.ancillary.txt

 0.3500	 4.7950
 0.3510	 4.7740
 0.3520	 4.8050
 0.3530	 4.8390
 0.3540	 4.8240
 0.3550	 4.7310
 0.3560	 4.6140
 0.3570	 4.5380
 0.3580	 4.5660
 0.3590	 4.6820
 0.3600	 4.7160
 0.3610	 4.6290
 0.3620	 4.5730
 0.3630	 4.5320
 0.3640	 4.5410
 0.3650	 4.6100
 0.3660	 4.6290
 0.3670	 4.5700
 0.3680	 4.5000
 0.3690	 4.5350
 0.3700	 4.6120
 0.3710	 4.6280
 0.3720	 4.5630
 0.3730	 4.5460
 0.3740	 4.5280
 0.3750	 4.5150
 0.3760	 4.5210
 0.3770	 4.5550
 0.3780	 4.5460
 0.3790	 4.5050
 0.3800	 4.5110
 0.3810	 4.4530
 0.3820	 4.4470
 0.3830	 4.5270
 0.3840	 4.4700
 0.3850	 4.4470
 0.3860	 4.4620
 0.3870	 4.4600
 0.3880	 4.4630
 0.3890	 4.4680
 0.3900	 4.4730
 0.3910	 4.4840
 0.3920	 4.4560
 0.3930	 4.4260
 0.3940	 4.4290
 0.3950	 4.4410
 0.3960	 4.4490
 0.3970	 4.4470
 0.3980	 4.4370
 0.3990	 4.4160
 0.4000	 4.4070
 0.4010	 4.4090
 0.4020	 4.3850
 0.4030	 4.3890
 0.4040	 4.4040
 0.4050	 4.4040
 0.4060	 4.3710
 0.4070	 4.3710
 0.4080	 4.3960
 0.4090	 4.3960
 0.4100	 4.4100
 0.4110	 4.4110
 0.4120	 4.3950
 0.4130	 4.4070
 0.4140	 4.4040
 0.4150	 4.3970
 0.4160	 4.4050
 0.4170	 4.4150
 0.4180	 4.4230
 0.4190	 4.4290
 0.4200	 4.4380
 0.4210	 4.4480
 0.4220	 4.4530
 0.4230	 4.4490
 0.4240	 4.4410
 0.4250	 4.4410
 0.4260	 4.4460
 0.4270	 4.4480
 0.4280	 4.4490
 0.4290	 4.4500
 0.4300	 4.4490
 0.4310	 4.4440
 0.4320	 4.4220
 0.4330	 4.4030
 0.4340	 4.4070
 0.4350	 4.4110
 0.4360	 4.4140
 0.4370	 4.4170
 0.4380	 4.4180
 0.4390	 4.4250
 0.4400	 4.4320
 0.4410	 4.4360
 0.4420	 4.4510
 0.4430	 4.4540
 0.4440	 4.4550
 0.4450	 4.4680
 0.4460	 4.4780
 0.4470	 4.4750
 0.4480	 4.4690
 0.4490	 4.4890
 0.4500	 4.4940
 0.4510	 4.4960
 0.4520	 4.5110
 0.4530	 4.5160
 0.4540	 4.5160
 0.4550	 4.5170
 0.4560	 4.5280
 0.4570	 4.5380
 0.4580	 4.5380
 0.4590	 4.5310
 0.4600	 4.5350
 0.4610	 4.5360
 0.4620	 4.5360
 0.4630	 4.5390
 0.4640	 4.5410
 0.4650	 4.5410
 0.4660	 4.5400
 0.4670	 4.5400
 0.4680	 4.5380
 0.4690	 4.5390
 0.4700	 4.5440
 0.4710	 4.5490
 0.4720	 4.5490
 0.4730	 4.5450
 0.4740	 4.5490
 0.4750	 4.5570
 0.4760	 4.5620
 0.4770	 4.5620
 0.4780	 4.5670
 0.4790	 4.5710
 0.4800	 4.5740
 0.4810	 4.5740
 0.4820	 4.5690
 0.4830	 4.5710
 0.4840	 4.5770
 0.4850	 4.5750
 0.4860	 4.5770
 0.4870	 4.5810
 0.4880	 4.5850
 0.4890	 4.5930
 0.4900	 4.6020
 0.4910	 4.6120
 0.4920	 4.6280
 0.4930	 4.6420
 0.4940	 4.6560
 0.4950	 4.6720
 0.4960	 4.6930
 0.4970	 4.7230
 0.4980	 4.7540
 0.4990	 4.7800
 0.5000	 4.8140
 0.5010	 4.8510
 0.5020	 4.8920
 0.5030	 4.9420
 0.5040	 4.9960
 0.5050	 5.0560
 0.5060	 5.1260
 0.5070	 5.2050
 0.5080	 5.2890
 0.5090	 5.3800
 0.5100	 5.4840
 0.5110	 5.5990
 0.5120	 5.7230
 0.5130	 5.8600
 0.5140	 6.0130
 0.5150	 6.1740
 0.5160	 6.3470
 0.5170	 6.5340
 0.5180	 6.7320
 0.5190	 6.9330
 0.5200	 7.1410
 0.5210	 7.3590
 0.5220	 7.5770
 0.5230	 7.7970
 0.5240	 8.0160
 0.5250	 8.2280
 0.5260	 8.4310
 0.5270	 8.6260
 0.5280	 8.8140
 0.5290	 8.9880
 0.5300	 9.1480
 0.5310	 9.2930
 0.5320	 9.4260
 0.5330	 9.5470
 0.5340	 9.6580
 0.5350	 9.7550
 0.5360	 9.8370
 0.5370	 9.9090
 0.5380	 9.9720
 0.5390	10.0250
 0.5400	10.0730
 0.5410	10.1170
 0.5420	10.1600
 0.5430	10.1960
 0.5440	10.2290
 0.5450	10.2610
 0.5460	10.2940
 0.5470	10.3260
 0.5480	10.3550
 0.5490	10.3790
 0.5500	10.3980
 0.5510	10.4090
 0.5520	10.4110
 0.5530	10.4010
 0.5540	10.3820
 0.5550	10.3470
 0.5560	10.2970
 0.5570	10.2330
 0.5580	10.1570
 0.5590	10.0720
 0.5600	 9.9790
 0.5610	 9.8740
 0.5620	 9.7630
 0.5630	 9.6500
 0.5640	 9.5330
 0.5650	 9.4150
 0.5660	 9.2920
 0.5670	 9.1640
 0.5680	 9.0340
 0.5690	 8.8990
 0.5700	 8.7610
 0.5710	 8.6260
 0.5720	 8.4930
 0.5730	 8.3630
 0.5740	 8.2370
 0.5750	 8.1190
 0.5760	 8.0140
 0.5770	 7.9150
 0.5780	 7.8190
 0.5790	 7.7310
 0.5800	 7.6460
 0.5810	 7.5650
 0.5820	 7.4930
 0.5830	 7.4300
 0.5840	 7.3730
 0.5850	 7.3190
 0.5860	 7.2650
 0.5870	 7.2120
 0.5880	 7.1620
 0.5890	 7.1190
 0.5900	 7.0810
 0.5910	 7.0430
 0.5920	 7.0070
 0.5930	 6.9780
 0.5940	 6.9540
 0.5950	 6.9330
 0.5960	 6.9130
 0.5970	 6.8860
 0.5980	 6.8600
 0.5990	 6.8380
 0.6000	 6.8190
 0.6010	 6.7980
 0.6020	 6.7720
 0.6030	 6.7400
 0.6040	 6.7050
 0.6050	 6.6640
 0.6060	 6.6170
 0.6070	 6.5660
 0.6080	 6.5130
 0.6090	 6.4550
 0.6100	 6.3900
 0.6110	 6.3200
 0.6120	 6.2660
 0.6130	 6.2200
 0.6140	 6.1710
 0.6150	 6.1210
 0.6160	 6.0740
 0.6170	 6.0290
 0.6180	 5.9860
 0.6190	 5.9460
 0.6200	 5.9100
 0.6210	 5.8790
 0.6220	 5.8520
 0.6230	 5.8280
 0.6240	 5.8090
 0.6250	 5.7960
 0.6260	 5.7840
 0.6270	 5.7750
 0.6280	 5.7680
 0.6290	 5.7630
 0.6300	 5.7560
 0.6310	 5.7500
 0.6320	 5.7430
 0.6330	 5.7320
 0.6340	 5.7160
 0.6350	 5.6940
 0.6360	 5.6640
 0.6370	 5.6260
 0.6380	 5.5820
 0.6390	 5.5360
 0.6400	 5.4890
 0.6410	 5.4360
 0.6420	 5.3830
 0.6430	 5.3310
 0.6440	 5.2790
 0.6450	 5.2270
 0.6460	 5.1800
 0.6470	 5.1420
 0.6480	 5.1070
 0.6490	 5.0770
 0.6500	 5.0520
 0.6510	 5.0300
 0.6520	 5.0160
 0.6530	 5.0050
 0.6540	 4.9930
 0.6550	 4.9790
 0.6560	 4.9650
 0.6570	 4.9470
 0.6580	 4.9260
 0.6590	 4.9070
 0.6600	 4.8860
 0.6610	 4.8640
 0.6620	 4.8450
 0.6630	 4.8290
 0.6640	 4.8160
 0.6650	 4.8060
 0.6660	 4.8030
 0.6670	 4.8000
 0.6680	 4.8010
 0.6690	 4.8070
 0.6700	 4.8180
 0.6710	 4.8320
 0.6720	 4.8500
 0.6730	 4.8740
 0.6740	 4.8960
 0.6750	 4.9200
 0.6760	 4.9490
 0.6770	 4.9830
 0.6780	 5.0210
 0.6790	 5.0620
 0.6800	 5.1010
 0.6810	 5.1470
 0.6820	 5.1970
 0.6830	 5.2500
 0.6840	 5.3050
 0.6850	 5.3660
 0.6860	 5.4360
 0.6870	 5.5170
 0.6880	 5.6180
 0.6890	 5.7450
 0.6900	 5.9080
 0.6910	 6.1190
 0.6920	 6.3860
 0.6930	 6.7120
 0.6940	 7.1020
 0.6950	 7.5600
 0.6960	 8.0820
 0.6970	 8.6650
 0.6980	 9.3020
 0.6990	 9.9910
 0.7000	10.7240
 0.7010	11.4920
 0.7020	12.2870
 0.7030	13.1010
 0.7040	13.9280
 0.7050	14.7640
 0.7060	15.6080
 0.7070	16.4550
 0.7080	17.3020
 0.7090	18.1530
 0.7100	19.0030
 0.7110	19.8570
 0.7120	20.7120
 0.7130	21.5630
 0.7140	22.4120
 0.7150	23.2580
 0.7160	24.0990
 0.7170	24.9360
 0.7180	25.7630
 0.7190	26.5770
 0.7200	27.3780
 0.7210	28.1640
 0.7220	28.9340
 0.7230	29.6840
 0.7240	30.4120
 0.7250	31.1160
 0.7260	31.7970
 0.7270	32.4520
 0.7280	33.0760
 0.7290	33.6750
 0.7300	34.2470
 0.7310	34.7860
 0.7320	35.3020
 0.7330	35.7880
 0.7340	36.2440
 0.7350	36.6750
 0.7360	37.0780
 0.7370	37.4550
 0.7380	37.8070
 0.7390	38.1340
 0.7400	38.4400
 0.7410	38.7210
 0.7420	38.9760
 0.7430	39.2120
 0.7440	39.4310
 0.7450	39.6290
 0.7460	39.8030
 0.7470	39.9620
 0.7480	40.1060
 0.7490	40.2350
 0.7500	40.3520
 0.7510	40.4540
 0.7520	40.5450
 0.7530	40.6270
 0.7540	40.7020
 0.7550	40.7670
 0.7560	40.8240
 0.7570	40.8760
 0.7580	40.9210
 0.7590	40.9620
 0.7600	41.0000
 0.7610	41.0300
 0.7620	41.0570
 0.7630	41.0800
 0.7640	41.1000
 0.7650	41.1140
 0.7660	41.1260
 0.7670	41.1390
 0.7680	41.1500
 0.7690	41.1570
 0.7700	41.1610
 0.7710	41.1650
 0.7720	41.1710
 0.7730	41.1770
 0.7740	41.1820
 0.7750	41.1840
 0.7760	41.1900
 0.7770	41.1940
 0.7780	41.1960
 0.7790	41.1970
 0.7800	41.1970
 0.7810	41.2010
 0.7820	41.2060
 0.7830	41.2070
 0.7840	41.2110
 0.7850	41.2140
 0.7860	41.2120
 0.7870	41.2120
 0.7880	41.2120
 0.7890	41.2120
 0.7900	41.2120
 0.7910	41.2110
 0.7920	41.2080
 0.7930	41.2040
 0.7940	41.2020
 0.7950	41.1990
 0.7960	41.1950
 0.7970	41.1910
 0.7980	41.1840
 0.7990	41.1790
 0.8000	41.1730
 0.8010	41.1640
 0.8020	41.1580
 0.8030	41.1480
 0.8040	41.1350
 0.8050	41.1270
 0.8060	41.1140
 0.8070	41.1040
 0.8080	41.0960
 0.8090	41.0830
 0.8100	41.0720
 0.8110	41.0600
 0.8120	41.0470
 0.8130	41.0310
 0.8140	41.0180
 0.8150	41.0070
 0.8160	40.9930
 0.8170	40.9800
 0.8180	40.9680
 0.8190	40.9550
 0.8200	40.9390
 0.8210	40.9230
 0.8220	40.9110
 0.8230	40.8990
 0.8240	40.8860
 0.8250	40.8730
 0.8260	40.8590
 0.8270	40.8450
 0.8280	40.8330
 0.8290	40.8180
 0.8300	40.8050
 0.8310	40.7970
 0.8320	40.7850
 0.8330	40.7730
 0.8340	40.7610
 0.8350	40.7520
 0.8360	40.7420
 0.8370	40.7320
 0.8380	40.7230
 0.8390	40.7180
 0.8400	40.7120
 0.8410	40.7050
 0.8420	40.7000
 0.8430	40.6970
 0.8440	40.6920
 0.8450	40.6870
 0.8460	40.6860
 0.8470	40.6820
 0.8480	40.6780
 0.8490	40.6750
 0.8500	40.6730
 0.8510	40.6740
 0.8520	40.6730
 0.8530	40.6710
 0.8540	40.6690
 0.8550	40.6690
 0.8560	40.6700
 0.8570	40.6720
 0.8580	40.6740
 0.8590	40.6790
 0.8600	40.6820
 0.8610	40.6820
 0.8620	40.6820
 0.8630	40.6860
 0.8640	40.6920
 0.8650	40.6950
 0.8660	40.6980
 0.8670	40.7040
 0.8680	40.7090
 0.8690	40.7090
 0.8700	40.7100
 0.8710	40.7160
 0.8720	40.7280
 0.8730	40.7390
 0.8740	40.7440
 0.8750	40.7490
 0.8760	40.7560
 0.8770	40.7600
 0.8780	40.7690
 0.8790	40.7780
 0.8800	40.7840
 0.8810	40.7890
 0.8820	40.7940
 0.8830	40.8030
 0.8840	40.8130
 0.8850	40.8150
 0.8860	40.8230
 0.8870	40.8340
 0.8880	40.8430
 0.8890	40.8500
 0.8900	40.8540
 0.8910	40.8570
 0.8920	40.8620
 0.8930	40.8690
 0.8940	40.8770
 0.8950	40.8830
 0.8960	40.8820
 0.8970	40.8940
 0.8980	40.9020
 0.8990	40.9020
 0.9000	40.9020
 0.9010	40.9090
 0.9020	40.9170
 0.9030	40.9220
 0.9040	40.9260
 0.9050	40.9320
 0.9060	40.9390
 0.9070	40.9450
 0.9080	40.9490
 0.9090	40.9520
 0.9100	40.9520
 0.9110	40.9500
 0.9120	40.9530
 0.9130	40.9570
 0.9140	40.9600
 0.9150	40.9620
 0.9160	40.9570
 0.9170	40.9550
 0.9180	40.9550
 0.9190	40.9530
 0.9200	40.9540
 0.9210	40.9480
 0.9220	40.9400
 0.9230	40.9390
 0.9240	40.9330
 0.9250	40.9240
 0.9260	40.9170
 0.9270	40.9100
 0.9280	40.9010
 0.9290	40.8880
 0.9300	40.8720
 0.9310	40.8590
 0.9320	40.8490
 0.9330	40.8370
 0.9340	40.8240
 0.9350	40.8080
 0.9360	40.7890
 0.9370	40.7740
 0.9380	40.7620
 0.9390	40.7410
 0.9400	40.7220
 0.9410	40.7030
 0.9420	40.6800
 0.9430	40.6550
 0.9440	40.6320
 0.9450	40.6100
 0.9460	40.5850
 0.9470	40.5580
 0.9480	40.5190
 0.9490	40.4820
 0.9500	40.4550
 0.9510	40.4170
 0.9520	40.3740
 0.9530	40.3320
 0.9540	40.2960
 0.9550	40.2580
 0.9560	40.2160
 0.9570	40.1750
 0.9580	40.1390
 0.9590	40.1030
 0.9600	40.0690
 0.9610	40.0340
 0.9620	39.9980
 0.9630	39.9710
 0.9640	39.9460
 0.9650	39.9260
 0.9660	39.9110
 0.9670	39.8900
 0.9680	39.8630
 0.9690	39.8410
 0.9700	39.8320
 0.9710	39.8300
 0.9720	39.8190
 0.9730	39.8020
 0.9740	39.7880
 0.9750	39.7820
 0.9760	39.7810
 0.9770	39.7720
 0.9780	39.7470
 0.9790	39.7320
 0.9800	39.7290
 0.9810	39.7280
 0.9820	39.7160
 0.9830	39.7130
 0.9840	39.7150
 0.9850	39.7180
 0.9860	39.7150
 0.9870	39.7200
 0.9880	39.7120
 0.9890	39.7050
 0.9900	39.7160
 0.9910	39.7030
 0.9920	39.7140
 0.9930	39.7350
 0.9940	39.7300
 0.9950	39.7350
 0.9960	39.7440
 0.9970	39.7450
 0.9980	39.7320
 0.9990	39.7320
 1.0000	39.7320
 1.0010	40.3750
 1.0020	40.3820
 1.0030	40.3920
 1.0040	40.3990
 1.0050	40.4070
 1.0060	40.4170
 1.0070	40.4220
 1.0080	40.4290
 1.0090	40.4370
 1.0100	40.4450
 1.0110	40.4520
 1.0120	40.4610
 1.0130	40.4710
 1.0140	40.4800
 1.0150	40.4910
 1.0160	40.4980
 1.0170	40.5030
 1.0180	40.5080
 1.0190	40.5150
 1.0200	40.5230
 1.0210	40.5340
 1.0220	40.5460
 1.0230	40.5560
 1.0240	40.5660
 1.0250	40.5760
 1.0260	40.5860
 1.0270	40.5950
 1.0280	40.6020
 1.0290	40.6100
 1.0300	40.6190
 1.0310	40.6260
 1.0320	40.6340
 1.0330	40.6400
 1.0340	40.6470
 1.0350	40.6540
 1.0360	40.6640
 1.0370	40.6770
 1.0380	40.6860
 1.0390	40.6940
 1.0400	40.7030
 1.0410	40.7110
 1.0420	40.7190
 1.0430	40.7270
 1.0440	40.7360
 1.0450	40.7450
 1.0460	40.7520
 1.0470	40.7610
 1.0480	40.7690
 1.0490	40.7770
 1.0500	40.7830
 1.0510	40.7860
 1.0520	40.7890
 1.0530	40.7920
 1.0540	40.7910
 1.0550	40.7950
 1.0560	40.8030
 1.0570	40.8080
 1.0580	40.8140
 1.0590	40.8180
 1.0600	40.8210
 1.0610	40.8230
 1.0620	40.8240
 1.0630	40.8240
 1.0640	40.8200
 1.0650	40.8200
 1.0660	40.8250
 1.0670	40.8250
 1.0680	40.8240
 1.0690	40.8250
 1.0700	40.8220
 1.0710	40.8130
 1.0720	40.8100
 1.0730	40.8100
 1.0740	40.8080
 1.0750	40.8080
 1.0760	40.8060
 1.0770	40.8020
 1.0780	40.7980
 1.0790	40.7940
 1.0800	40.7900
 1.0810	40.7850
 1.0820	40.7810
 1.0830	40.7790
 1.0840	40.7750
 1.0850	40.7680
 1.0860	40.7620
 1.0870	40.7560
 1.0880	40.7480
 1.0890	40.7420
 1.0900	40.7380
 1.0910	40.7320
 1.0920	40.7250
 1.0930	40.7180
 1.0940	40.7100
 1.0950	40.7030
 1.0960	40.6950
 1.0970	40.6880
 1.0980	40.6820
 1.0990	40.6750
 1.1000	40.6710
 1.1010	40.6650
 1.1020	40.6570
 1.1030	40.6500
 1.1040	40.6430
 1.1050	40.6350
 1.1060	40.6270
 1.1070	40.6200
 1.1080	40.6130
 1.1090	40.6060
 1.1100	40.5960
 1.1110	40.5850
 1.1120	40.5740
 1.1130	40.5610
 1.1140	40.5470
 1.1150	40.5350
 1.1160	40.5200
 1.1170	40.5060
 1.1180	40.4900
 1.1190	40.4710
 1.1200	40.4520
 1.1210	40.4330
 1.1220	40.4110
 1.1230	40.3870
 1.1240	40.3620
 1.1250	40.3350
 1.1260	40.3060
 1.1270	40.2740
 1.1280	40.2420
 1.1290	40.2040
 1.1300	40.1620
 1.1310	40.1160
 1.1320	40.0660
 1.1330	40.0120
 1.1340	39.9560
 1.1350	39.8950
 1.1360	39.8320
 1.1370	39.7650
 1.1380	39.6950
 1.1390	39.6220
 1.1400	39.5450
 1.1410	39.4660
 1.1420	39.3840
 1.1430	39.2990
 1.1440	39.2150
 1.1450	39.1300
 1.1460	39.0470
 1.1470	38.9620
 1.1480	38.8820
 1.1490	38.8030
 1.1500	38.7280
 1.1510	38.6560
 1.1520	38.5880
 1.1530	38.5210
 1.1540	38.4590
 1.1550	38.4020
 1.1560	38.3480
 1.1570	38.3000
 1.1580	38.2570
 1.1590	38.2180
 1.1600	38.1830
 1.1610	38.1520
 1.1620	38.1230
 1.1630	38.0980
 1.1640	38.0760
 1.1650	38.0550
 1.1660	38.0370
 1.1670	38.0200
 1.1680	38.0060
 1.1690	37.9920
 1.1700	37.9800
 1.1710	37.9670
 1.1720	37.9550
 1.1730	37.9440
 1.1740	37.9330
 1.1750	37.9240
 1.1760	37.9130
 1.1770	37.9010
 1.1780	37.8890
 1.1790	37.8750
 1.1800	37.8620
 1.1810	37.8500
 1.1820	37.8370
 1.1830	37.8250
 1.1840	37.8100
 1.1850	37.7960
 1.1860	37.7830
 1.1870	37.7700
 1.1880	37.7570
 1.1890	37.7430
 1.1900	37.7310
 1.1910	37.7180
 1.1920	37.7070
 1.1930	37.6980
 1.1940	37.6910
 1.1950	37.6840
 1.1960	37.6790
 1.1970	37.6730
 1.1980	37.6680
 1.1990	37.6630
 1.2000	37.6580
 1.2010	37.6560
 1.2020	37.6570
 1.2030	37.6590
 1.2040	37.6630
 1.2050	37.6650
 1.2060	37.6670
 1.2070	37.6710
 1.2080	37.6750
 1.2090	37.6840
 1.2100	37.6950
 1.2110	37.7050
 1.2120	37.7160
 1.2130	37.7280
 1.2140	37.7370
 1.2150	37.7500
 1.2160	37.7640
 1.2170	37.7790
 1.2180	37.7940
 1.2190	37.8120
 1.2200	37.8290
 1.2210	37.8450
 1.2220	37.8630
 1.2230	37.8800
 1.2240	37.8970
 1.2250	37.9170
 1.2260	37.9350
 1.2270	37.9520
 1.2280	37.9690
 1.2290	37.9840
 1.2300	37.9950
 1.2310	38.0070
 1.2320	38.0190
 1.2330	38.0290
 1.2340	38.0400
 1.2350	38.0530
 1.2360	38.0630
 1.2370	38.0700
 1.2380	38.0780
 1.2390	38.0860
 1.2400	38.0920
 1.2410	38.1000
 1.2420	38.1080
 1.2430	38.1140
 1.2440	38.1220
 1.2450	38.1300
 1.2460	38.1380
 1.2470	38.1460
 1.2480	38.1540
 1.2490	38.1600
 1.2500	38.1630
 1.2510	38.1680
 1.2520	38.1710
 1.2530	38.1720
 1.2540	38.1750
 1.2550	38.1780
 1.2560	38.1790
 1.2570	38.1800
 1.2580	38.1800
 1.2590	38.1790
 1.2600	38.1760
 1.2610	38.1730
 1.2620	38.1700
 1.2630	38.1660
 1.2640	38.1640
 1.2650	38.1620
 1.2660	38.1590
 1.2670	38.1550
 1.2680	38.1490
 1.2690	38.1430
 1.2700	38.1380
 1.2710	38.1340
 1.2720	38.1290
 1.2730	38.1220
 1.2740	38.1170
 1.2750	38.1090
 1.2760	38.1030
 1.2770	38.0960
 1.2780	38.0860
 1.2790	38.0770
 1.2800	38.0670
 1.2810	38.0540
 1.2820	38.0400
 1.2830	38.0250
 1.2840	38.0090
 1.2850	37.9930
 1.2860	37.9750
 1.2870	37.9550
 1.2880	37.9330
 1.2890	37.9100
 1.2900	37.8880
 1.2910	37.8640
 1.2920	37.8390
 1.2930	37.8120
 1.2940	37.7820
 1.2950	37.7490
 1.2960	37.7160
 1.2970	37.6810
 1.2980	37.6440
 1.2990	37.6060
 1.3000	37.5650
 1.3010	37.5220
 1.3020	37.4770
 1.3030	37.4330
 1.3040	37.3880
 1.3050	37.3420
 1.3060	37.2930
 1.3070	37.2440
 1.3080	37.1920
 1.3090	37.1390
 1.3100	37.0860
 1.3110	37.0310
 1.3120	36.9730
 1.3130	36.9150
 1.3140	36.8550
 1.3150	36.7940
 1.3160	36.7310
 1.3170	36.6680
 1.3180	36.6040
 1.3190	36.5360
 1.3200	36.4650
 1.3210	36.3930
 1.3220	36.3190
 1.3230	36.2450
 1.3240	36.1700
 1.3250	36.0930
 1.3260	36.0130
 1.3270	35.9320
 1.3280	35.8480
 1.3290	35.7630
 1.3300	35.6780
 1.3310	35.5930
 1.3320	35.5070
 1.3330	35.4230
 1.3340	35.3370
 1.3350	35.2470
 1.3360	35.1560
 1.3370	35.0640
 1.3380	34.9730
 1.3390	34.8830
 1.3400	34.7930
 1.3410	34.7050
 1.3420	34.6160
 1.3430	34.5270
 1.3440	34.4390
 1.3450	34.3520
 1.3460	34.2650
 1.3470	34.1780
 1.3480	34.0910
 1.3490	34.0040
 1.3500	33.9170
 1.3510	33.8310
 1.3520	33.7450
 1.3530	33.6590
 1.3540	33.5730
 1.3550	33.4880
 1.3560	33.4020
 1.3570	33.3150
 1.3580	33.2270
 1.3590	33.1370
 1.3600	33.0450
 1.3610	32.9520
 1.3620	32.8560
 1.3630	32.7570
 1.3640	32.6550
 1.3650	32.5470
 1.3660	32.4330
 1.3670	32.3140
 1.3680	32.1870
 1.3690	32.0530
 1.3700	31.9090
 1.3710	31.7550
 1.3720	31.5900
 1.3730	31.4110
 1.3740	31.2210
 1.3750	31.0170
 1.3760	30.7970
 1.3770	30.5610
 1.3780	30.3050
 1.3790	30.0330
 1.3800	29.7420
 1.3810	29.4310
 1.3820	29.1050
 1.3830	28.7630
 1.3840	28.4030
 1.3850	28.0260
 1.3860	27.6360
 1.3870	27.2270
 1.3880	26.8110
 1.3890	26.3830
 1.3900	25.9440
 1.3910	25.5010
 1.3920	25.0510
 1.3930	24.5940
 1.3940	24.1350
 1.3950	23.6730
 1.3960	23.2120
 1.3970	22.7570
 1.3980	22.3090
 1.3990	21.8730
 1.4000	21.4450
 1.4010	21.0270
 1.4020	20.6230
 1.4030	20.2280
 1.4040	19.8490
 1.4050	19.4860
 1.4060	19.1390
 1.4070	18.8120
 1.4080	18.5030
 1.4090	18.2070
 1.4100	17.9310
 1.4110	17.6690
 1.4120	17.4230
 1.4130	17.1950
 1.4140	16.9820
 1.4150	16.7870
 1.4160	16.6060
 1.4170	16.4380
 1.4180	16.2830
 1.4190	16.1380
 1.4200	16.0030
 1.4210	15.8810
 1.4220	15.7690
 1.4230	15.6660
 1.4240	15.5730
 1.4250	15.4860
 1.4260	15.4070
 1.4270	15.3340
 1.4280	15.2690
 1.4290	15.2090
 1.4300	15.1550
 1.4310	15.1060
 1.4320	15.0640
 1.4330	15.0260
 1.4340	14.9920
 1.4350	14.9610
 1.4360	14.9350
 1.4370	14.9110
 1.4380	14.8910
 1.4390	14.8750
 1.4400	14.8610
 1.4410	14.8490
 1.4420	14.8400
 1.4430	14.8340
 1.4440	14.8310
 1.4450	14.8290
 1.4460	14.8290
 1.4470	14.8300
 1.4480	14.8320
 1.4490	14.8380
 1.4500	14.8460
 1.4510	14.8550
 1.4520	14.8670
 1.4530	14.8790
 1.4540	14.8930
 1.4550	14.9080
 1.4560	14.9250
 1.4570	14.9440
 1.4580	14.9660
 1.4590	14.9910
 1.4600	15.0190
 1.4610	15.0510
 1.4620	15.0860
 1.4630	15.1250
 1.4640	15.1680
 1.4650	15.2150
 1.4660	15.2660
 1.4670	15.3210
 1.4680	15.3820
 1.4690	15.4450
 1.4700	15.5120
 1.4710	15.5830
 1.4720	15.6560
 1.4730	15.7330
 1.4740	15.8140
 1.4750	15.8970
 1.4760	15.9830
 1.4770	16.0710
 1.4780	16.1620
 1.4790	16.2560
 1.4800	16.3510
 1.4810	16.4470
 1.4820	16.5440
 1.4830	16.6420
 1.4840	16.7400
 1.4850	16.8410
 1.4860	16.9420
 1.4870	17.0440
 1.4880	17.1460
 1.4890	17.2470
 1.4900	17.3500
 1.4910	17.4530
 1.4920	17.5560
 1.4930	17.6600
 1.4940	17.7640
 1.4950	17.8690
 1.4960	17.9730
 1.4970	18.0770
 1.4980	18.1820
 1.4990	18.2850
 1.5000	18.3890
 1.5010	18.4930
 1.5020	18.5970
 1.5030	18.7020
 1.5040	18.8070
 1.5050	18.9110
 1.5060	19.0140
 1.5070	19.1160
 1.5080	19.2190
 1.5090	19.3210
 1.5100	19.4220
 1.5110	19.5240
 1.5120	19.6250
 1.5130	19.7240
 1.5140	19.8230
 1.5150	19.9230
 1.5160	20.0230
 1.5170	20.1230
 1.5180	20.2200
 1.5190	20.3170
 1.5200	20.4130
 1.5210	20.5070
 1.5220	20.6030
 1.5230	20.6980
 1.5240	20.7920
 1.5250	20.8860
 1.5260	20.9790
 1.5270	21.0710
 1.5280	21.1610
 1.5290	21.2500
 1.5300	21.3380
 1.5310	21.4260
 1.5320	21.5130
 1.5330	21.6010
 1.5340	21.6880
 1.5350	21.7740
 1.5360	21.8590
 1.5370	21.9430
 1.5380	22.0260
 1.5390	22.1080
 1.5400	22.1890
 1.5410	22.2700
 1.5420	22.3500
 1.5430	22.4290
 1.5440	22.5090
 1.5450	22.5860
 1.5460	22.6630
 1.5470	22.7410
 1.5480	22.8160
 1.5490	22.8920
 1.5500	22.9650
 1.5510	23.0360
 1.5520	23.1080
 1.5530	23.1780
 1.5540	23.2490
 1.5550	23.3210
 1.5560	23.3890
 1.5570	23.4570
 1.5580	23.5240
 1.5590	23.5880
 1.5600	23.6530
 1.5610	23.7170
 1.5620	23.7790
 1.5630	23.8420
 1.5640	23.9030
 1.5650	23.9640
 1.5660	24.0230
 1.5670	24.0800
 1.5680	24.1370
 1.5690	24.1940
 1.5700	24.2500
 1.5710	24.3080
 1.5720	24.3630
 1.5730	24.4190
 1.5740	24.4740
 1.5750	24.5280
 1.5760	24.5830
 1.5770	24.6360
 1.5780	24.6890
 1.5790	24.7410
 1.5800	24.7930
 1.5810	24.8450
 1.5820	24.8950
 1.5830	24.9450
 1.5840	24.9940
 1.5850	25.0430
 1.5860	25.0920
 1.5870	25.1410
 1.5880	25.1880
 1.5890	25.2350
 1.5900	25.2820
 1.5910	25.3290
 1.5920	25.3780
 1.5930	25.4240
 1.5940	25.4700
 1.5950	25.5150
 1.5960	25.5580
 1.5970	25.6030
 1.5980	25.6480
 1.5990	25.6920
 1.6000	25.7360
 1.6010	25.7770
 1.6020	25.8190
 1.6030	25.8600
 1.6040	25.8990
 1.6050	25.9380
 1.6060	25.9780
 1.6070	26.0150
 1.6080	26.0550
 1.6090	26.0930
 1.6100	26.1290
 1.6110	26.1670
 1.6120	26.2040
 1.6130	26.2390
 1.6140	26.2740
 1.6150	26.3070
 1.6160	26.3390
 1.6170	26.3710
 1.6180	26.4030
 1.6190	26.4350
 1.6200	26.4650
 1.6210	26.4960
 1.6220	26.5270
 1.6230	26.5570
 1.6240	26.5860
 1.6250	26.6140
 1.6260	26.6400
 1.6270	26.6660
 1.6280	26.6890
 1.6290	26.7120
 1.6300	26.7340
 1.6310	26.7550
 1.6320	26.7760
 1.6330	26.7960
 1.6340	26.8170
 1.6350	26.8350
 1.6360	26.8510
 1.6370	26.8640
 1.6380	26.8750
 1.6390	26.8840
 1.6400	26.8920
 1.6410	26.8990
 1.6420	26.9040
 1.6430	26.9070
 1.6440	26.9070
 1.6450	26.9050
 1.6460	26.9000
 1.6470	26.8940
 1.6480	26.8870
 1.6490	26.8770
 1.6500	26.8670
 1.6510	26.8550
 1.6520	26.8440
 1.6530	26.8310
 1.6540	26.8170
 1.6550	26.8050
 1.6560	26.7930
 1.6570	26.7820
 1.6580	26.7720
 1.6590	26.7620
 1.6600	26.7530
 1.6610	26.7460
 1.6620	26.7410
 1.6630	26.7380
 1.6640	26.7360
 1.6650	26.7350
 1.6660	26.7360
 1.6670	26.7400
 1.6680	26.7440
 1.6690	26.7500
 1.6700	26.7560
 1.6710	26.7620
 1.6720	26.7670
 1.6730	26.7710
 1.6740	26.7750
 1.6750	26.7780
 1.6760	26.7810
 1.6770	26.7840
 1.6780	26.7840
 1.6790	26.7830
 1.6800	26.7780
 1.6810	26.7720
 1.6820	26.7650
 1.6830	26.7540
 1.6840	26.7420
 1.6850	26.7260
 1.6860	26.7060
 1.6870	26.6870
 1.6880	26.6650
 1.6890	26.6440
 1.6900	26.6210
 1.6910	26.5960
 1.6920	26.5710
 1.6930	26.5430
 1.6940	26.5160
 1.6950	26.4890
 1.6960	26.4610
 1.6970	26.4340
 1.6980	26.4020
 1.6990	26.3680
 1.7000	26.3340
 1.7010	26.2990
 1.7020	26.2650
 1.7030	26.2340
 1.7040	26.2010
 1.7050	26.1680
 1.7060	26.1340
 1.7070	26.0970
 1.7080	26.0620
 1.7090	26.0240
 1.7100	25.9890
 1.7110	25.9550
 1.7120	25.9200
 1.7130	25.8860
 1.7140	25.8500
 1.7150	25.8130
 1.7160	25.7760
 1.7170	25.7400
 1.7180	25.7050
 1.7190	25.6690
 1.7200	25.6330
 1.7210	25.5950
 1.7220	25.5560
 1.7230	25.5200
 1.7240	25.4850
 1.7250	25.4500
 1.7260	25.4150
 1.7270	25.3820
 1.7280	25.3500
 1.7290	25.3210
 1.7300	25.2940
 1.7310	25.2690
 1.7320	25.2480
 1.7330	25.2260
 1.7340	25.2060
 1.7350	25.1840
 1.7360	25.1630
 1.7370	25.1390
 1.7380	25.1150
 1.7390	25.0880
 1.7400	25.0570
 1.7410	25.0260
 1.7420	24.9920
 1.7430	24.9560
 1.7440	24.9190
 1.7450	24.8800
 1.7460	24.8400
 1.7470	24.7990
 1.7480	24.7550
 1.7490	24.7130
 1.7500	24.6710
 1.7510	24.6280
 1.7520	24.5840
 1.7530	24.5400
 1.7540	24.4930
 1.7550	24.4530
 1.7560	24.4130
 1.7570	24.3730
 1.7580	24.3340
 1.7590	24.2970
 1.7600	24.2600
 1.7610	24.2240
 1.7620	24.1900
 1.7630	24.1560
 1.7640	24.1240
 1.7650	24.0960
 1.7660	24.0680
 1.7670	24.0430
 1.7680	24.0170
 1.7690	23.9930
 1.7700	23.9700
 1.7710	23.9460
 1.7720	23.9230
 1.7730	23.9030
 1.7740	23.8810
 1.7750	23.8580
 1.7760	23.8370
 1.7770	23.8150
 1.7780	23.7940
 1.7790	23.7740
 1.7800	23.7550
 1.7810	23.7360
 1.7820	23.7190
 1.7830	23.7040
 1.7840	23.6890
 1.7850	23.6750
 1.7860	23.6620
 1.7870	23.6520
 1.7880	23.6410
 1.7890	23.6310
 1.7900	23.6240
 1.7910	23.6170
 1.7920	23.6110
 1.7930	23.6070
 1.7940	23.6020
 1.7950	23.5990
 1.7960	23.5970
 1.7970	23.5970
 1.7980	23.5990
 1.7990	23.6000
 1.8000	23.6040
 1.8010	23.6070
 1.8020	23.6100
 1.8030	23.6130
 1.8040	23.6170
 1.8050	23.6200
 1.8060	23.6250
 1.8070	23.6280
 1.8080	23.6320
 1.8090	23.6360
 1.8100	23.6380
 1.8110	23.6410
 1.8120	23.6430
 1.8130	23.6440
 1.8140	23.6460
 1.8150	23.6490
 1.8160	23.6490
 1.8170	23.6510
 1.8180	23.6510
 1.8190	23.6480
 1.8200	23.6480
 1.8210	23.6490
 1.8220	23.6490
 1.8230	23.6490
 1.8240	23.6470
 1.8250	23.6420
 1.8260	23.6360
 1.8270	23.6290
 1.8280	23.6200
 1.8290	23.6090
 1.8300	23.5980
 1.8310	23.7260
 1.8320	23.7050
 1.8330	23.6860
 1.8340	23.6650
 1.8350	23.6360
 1.8360	23.6080
 1.8370	23.5750
 1.8380	23.5400
 1.8390	23.5010
 1.8400	23.4590
 1.8410	23.4140
 1.8420	23.3680
 1.8430	23.3160
 1.8440	23.2570
 1.8450	23.1940
 1.8460	23.1220
 1.8470	23.0440
 1.8480	22.9620
 1.8490	22.8710
 1.8500	22.7730
 1.8510	22.6690
 1.8520	22.5530
 1.8530	22.4260
 1.8540	22.2950
 1.8550	22.1530
 1.8560	22.0040
 1.8570	21.8450
 1.8580	21.6700
 1.8590	21.4840
 1.8600	21.2860
 1.8610	21.0740
 1.8620	20.8480
 1.8630	20.6130
 1.8640	20.3620
 1.8650	20.0970
 1.8660	19.8170
 1.8670	19.5170
 1.8680	19.2050
 1.8690	18.8760
 1.8700	18.5300
 1.8710	18.1680
 1.8720	17.7940
 1.8730	17.4050
 1.8740	17.0060
 1.8750	16.6000
 1.8760	16.1830
 1.8770	15.7610
 1.8780	15.3340
 1.8790	14.9010
 1.8800	14.4720
 1.8810	14.0460
 1.8820	13.6140
 1.8830	13.1770
 1.8840	12.7450
 1.8850	12.3120
 1.8860	11.8840
 1.8870	11.4710
 1.8880	11.0660
 1.8890	10.6720
 1.8900	10.2940
 1.8910	 9.9320
 1.8920	 9.5800
 1.8930	 9.2490
 1.8940	 8.9380
 1.8950	 8.6470
 1.8960	 8.3760
 1.8970	 8.1220
 1.8980	 7.8880
 1.8990	 7.6700
 1.9000	 7.4700
 1.9010	 7.2900
 1.9020	 7.1240
 1.9030	 6.9750
 1.9040	 6.8440
 1.9050	 6.7230
 1.9060	 6.6130
 1.9070	 6.5180
 1.9080	 6.4310
 1.9090	 6.3550
 1.9100	 6.2910
 1.9110	 6.2310
 1.9120	 6.1810
 1.9130	 6.1360
 1.9140	 6.0970
 1.9150	 6.0600
 1.9160	 6.0330
 1.9170	 6.0080
 1.9180	 5.9880
 1.9190	 5.9760
 1.9200	 5.9600
 1.9210	 5.9440
 1.9220	 5.9330
 1.9230	 5.9210
 1.9240	 5.9140
 1.9250	 5.9120
 1.9260	 5.9150
 1.9270	 5.9170
 1.9280	 5.9240
 1.9290	 5.9330
 1.9300	 5.9410
 1.9310	 5.9510
 1.9320	 5.9610
 1.9330	 5.9720
 1.9340	 5.9830
 1.9350	 5.9970
 1.9360	 6.0120
 1.9370	 6.0270
 1.9380	 6.0450
 1.9390	 6.0630
 1.9400	 6.0800
 1.9410	 6.1020
 1.9420	 6.1250
 1.9430	 6.1500
 1.9440	 6.1740
 1.9450	 6.1970
 1.9460	 6.2220
 1.9470	 6.2490
 1.9480	 6.2770
 1.9490	 6.3080
 1.9500	 6.3400
 1.9510	 6.3710
 1.9520	 6.4040
 1.9530	 6.4370
 1.9540	 6.4720
 1.9550	 6.5080
 1.9560	 6.5450
 1.9570	 6.5810
 1.9580	 6.6180
 1.9590	 6.6540
 1.9600	 6.6910
 1.9610	 6.7290
 1.9620	 6.7660
 1.9630	 6.8070
 1.9640	 6.8500
 1.9650	 6.8910
 1.9660	 6.9350
 1.9670	 6.9830
 1.9680	 7.0280
 1.9690	 7.0740
 1.9700	 7.1200
 1.9710	 7.1650
 1.9720	 7.2120
 1.9730	 7.2610
 1.9740	 7.3120
 1.9750	 7.3630
 1.9760	 7.4130
 1.9770	 7.4620
 1.9780	 7.5110
 1.9790	 7.5610
 1.9800	 7.6100
 1.9810	 7.6640
 1.9820	 7.7230
 1.9830	 7.7800
 1.9840	 7.8400
 1.9850	 7.8980
 1.9860	 7.9540
 1.9870	 8.0100
 1.9880	 8.0680
 1.9890	 8.1290
 1.9900	 8.1900
 1.9910	 8.2510
 1.9920	 8.3110
 1.9930	 8.3700
 1.9940	 8.4290
 1.9950	 8.4860
 1.9960	 8.5460
 1.9970	 8.6050
 1.9980	 8.6670
 1.9990	 8.7300
 2.0000	 8.7970
 2.0010	 8.8640
 2.0020	 8.9280
 2.0030	 8.9910
 2.0040	 9.0520
 2.0050	 9.1130
 2.0060	 9.1720
 2.0070	 9.2320
 2.0080	 9.2930
 2.0090	 9.3530
 2.0100	 9.4130
 2.0110	 9.4740
 2.0120	 9.5370
 2.0130	 9.5980
 2.0140	 9.6610
 2.0150	 9.7210
 2.0160	 9.7810
 2.0170	 9.8400
 2.0180	 9.8980
 2.0190	 9.9540
 2.0200	10.0100
 2.0210	10.0640
 2.0220	10.1200
 2.0230	10.1780
 2.0240	10.2330
 2.0250	10.2880
 2.0260	10.3420
 2.0270	10.3960
 2.0280	10.4490
 2.0290	10.5020
 2.0300	10.5570
 2.0310	10.6080
 2.0320	10.6600
 2.0330	10.7070
 2.0340	10.7510
 2.0350	10.7970
 2.0360	10.8410
 2.0370	10.8860
 2.0380	10.9310
 2.0390	10.9740
 2.0400	11.0140
 2.0410	11.0550
 2.0420	11.0950
 2.0430	11.1380
 2.0440	11.1790
 2.0450	11.2210
 2.0460	11.2600
 2.0470	11.2930
 2.0480	11.3310
 2.0490	11.3690
 2.0500	11.4080
 2.0510	11.4520
 2.0520	11.4920
 2.0530	11.5320
 2.0540	11.5690
 2.0550	11.6020
 2.0560	11.6370
 2.0570	11.6750
 2.0580	11.7120
 2.0590	11.7510
 2.0600	11.7940
 2.0610	11.8340
 2.0620	11.8730
 2.0630	11.9130
 2.0640	11.9540
 2.0650	11.9930
 2.0660	12.0320
 2.0670	12.0710
 2.0680	12.1080
 2.0690	12.1450
 2.0700	12.1820
 2.0710	12.2200
 2.0720	12.2590
 2.0730	12.3010
 2.0740	12.3410
 2.0750	12.3840
 2.0760	12.4230
 2.0770	12.4610
 2.0780	12.4980
 2.0790	12.5340
 2.0800	12.5690
 2.0810	12.6030
 2.0820	12.6370
 2.0830	12.6690
 2.0840	12.7030
 2.0850	12.7430
 2.0860	12.7780
 2.0870	12.8150
 2.0880	12.8490
 2.0890	12.8790
 2.0900	12.9020
 2.0910	12.9290
 2.0920	12.9540
 2.0930	12.9820
 2.0940	13.0140
 2.0950	13.0420
 2.0960	13.0700
 2.0970	13.0950
 2.0980	13.1190
 2.0990	13.1430
 2.1000	13.1640
 2.1010	13.1890
 2.1020	13.2170
 2.1030	13.2410
 2.1040	13.2650
 2.1050	13.2900
 2.1060	13.3120
 2.1070	13.3310
 2.1080	13.3520
 2.1090	13.3750
 2.1100	13.3940
 2.1110	13.4140
 2.1120	13.4300
 2.1130	13.4430
 2.1140	13.4570
 2.1150	13.4700
 2.1160	13.4850
 2.1170	13.5010
 2.1180	13.5170
 2.1190	13.5350
 2.1200	13.5480
 2.1210	13.5580
 2.1220	13.5690
 2.1230	13.5800
 2.1240	13.5900
 2.1250	13.6000
 2.1260	13.6130
 2.1270	13.6230
 2.1280	13.6290
 2.1290	13.6380
 2.1300	13.6490
 2.1310	13.6590
 2.1320	13.6680
 2.1330	13.6810
 2.1340	13.6960
 2.1350	13.7090
 2.1360	13.7240
 2.1370	13.7390
 2.1380	13.7530
 2.1390	13.7670
 2.1400	13.7830
 2.1410	13.7980
 2.1420	13.8160
 2.1430	13.8340
 2.1440	13.8540
 2.1450	13.8800
 2.1460	13.9000
 2.1470	13.9190
 2.1480	13.9390
 2.1490	13.9560
 2.1500	13.9780
 2.1510	14.0030
 2.1520	14.0270
 2.1530	14.0550
 2.1540	14.0800
 2.1550	14.1050
 2.1560	14.1270
 2.1570	14.1470
 2.1580	14.1670
 2.1590	14.1850
 2.1600	14.2040
 2.1610	14.2240
 2.1620	14.2420
 2.1630	14.2610
 2.1640	14.2790
 2.1650	14.2950
 2.1660	14.3080
 2.1670	14.3230
 2.1680	14.3360
 2.1690	14.3530
 2.1700	14.3720
 2.1710	14.3900
 2.1720	14.4090
 2.1730	14.4270
 2.1740	14.4440
 2.1750	14.4620
 2.1760	14.4810
 2.1770	14.5000
 2.1780	14.5210
 2.1790	14.5410
 2.1800	14.5620
 2.1810	14.5830
 2.1820	14.6020
 2.1830	14.6230
 2.1840	14.6460
 2.1850	14.6700
 2.1860	14.6950
 2.1870	14.7210
 2.1880	14.7470
 2.1890	14.7760
 2.1900	14.8000
 2.1910	14.8250
 2.1920	14.8490
 2.1930	14.8660
 2.1940	14.8880
 2.1950	14.9140
 2.1960	14.9390
 2.1970	14.9670
 2.1980	14.9910
 2.1990	15.0140
 2.2000	15.0370
 2.2010	15.0620
 2.2020	15.0820
 2.2030	15.0990
 2.2040	15.1180
 2.2050	15.1340
 2.2060	15.1530
 2.2070	15.1740
 2.2080	15.2010
 2.2090	15.2240
 2.2100	15.2480
 2.2110	15.2670
 2.2120	15.2830
 2.2130	15.3020
 2.2140	15.3190
 2.2150	15.3350
 2.2160	15.3530
 2.2170	15.3680
 2.2180	15.3790
 2.2190	15.3920
 2.2200	15.4030
 2.2210	15.4150
 2.2220	15.4280
 2.2230	15.4380
 2.2240	15.4490
 2.2250	15.4550
 2.2260	15.4580
 2.2270	15.4580
 2.2280	15.4550
 2.2290	15.4510
 2.2300	15.4410
 2.2310	15.4360
 2.2320	15.4330
 2.2330	15.4240
 2.2340	15.4120
 2.2350	15.4000
 2.2360	15.3810
 2.2370	15.3540
 2.2380	15.3300
 2.2390	15.3020
 2.2400	15.2730
 2.2410	15.2430
 2.2420	15.2100
 2.2430	15.1760
 2.2440	15.1370
 2.2450	15.0930
 2.2460	15.0520
 2.2470	15.0100
 2.2480	14.9680
 2.2490	14.9310
 2.2500	14.8900
 2.2510	14.8480
 2.2520	14.8040
 2.2530	14.7610
 2.2540	14.7150
 2.2550	14.6650
 2.2560	14.6170
 2.2570	14.5710
 2.2580	14.5230
 2.2590	14.4760
 2.2600	14.4260
 2.2610	14.3680
 2.2620	14.3180
 2.2630	14.2740
 2.2640	14.2340
 2.2650	14.1960
 2.2660	14.1560
 2.2670	14.1170
 2.2680	14.0730
 2.2690	14.0330
 2.2700	13.9980
 2.2710	13.9610
 2.2720	13.9220
 2.2730	13.8830
 2.2740	13.8450
 2.2750	13.8050
 2.2760	13.7600
 2.2770	13.7250
 2.2780	13.6960
 2.2790	13.6620
 2.2800	13.6320
 2.2810	13.5990
 2.2820	13.5600
 2.2830	13.5210
 2.2840	13.4810
 2.2850	13.4410
 2.2860	13.3950
 2.2870	13.3540
 2.2880	13.3190
 2.2890	13.2770
 2.2900	13.2350
 2.2910	13.1900
 2.2920	13.1380
 2.2930	13.0880
 2.2940	13.0340
 2.2950	12.9860
 2.2960	12.9420
 2.2970	12.8980
 2.2980	12.8560
 2.2990	12.8180
 2.3000	12.7790
 2.3010	12.7380
 2.3020	12.6980
 2.3030	12.6570
 2.3040	12.6150
 2.3050	12.5740
 2.3060	12.5370
 2.3070	12.5060
 2.3080	12.4740
 2.3090	12.4450
 2.3100	12.4200
 2.3110	12.3920
 2.3120	12.3680
 2.3130	12.3460
 2.3140	12.3270
 2.3150	12.3120
 2.3160	12.3020
 2.3170	12.2990
 2.3180	12.2940
 2.3190	12.3000
 2.3200	12.2890
 2.3210	12.2720
 2.3220	12.2540
 2.3230	12.2270
 2.3240	12.2050
 2.3250	12.1870
 2.3260	12.1630
 2.3270	12.1400
 2.3280	12.1080
 2.3290	12.0640
 2.3300	12.0330
 2.3310	12.0040
 2.3320	11.9700
 2.3330	11.9390
 2.3340	11.9030
 2.3350	11.8570
 2.3360	11.8180
 2.3370	11.7850
 2.3380	11.7490
 2.3390	11.7100
 2.3400	11.6720
 2.3410	11.6350
 2.3420	11.5970
 2.3430	11.5620
 2.3440	11.5260
 2.3450	11.4890
 2.3460	11.4560
 2.3470	11.4210
 2.3480	11.3930
 2.3490	11.3770
 2.3500	11.3520
 2.3510	11.3220
 2.3520	11.2990
 2.3530	11.2730
 2.3540	11.2470
 2.3550	11.2290
 2.3560	11.2140
 2.3570	11.1910
 2.3580	11.1640
 2.3590	11.1430
 2.3600	11.1210
 2.3610	11.1020
 2.3620	11.0870
 2.3630	11.0610
 2.3640	11.0350
 2.3650	11.0130
 2.3660	10.9800
 2.3670	10.9550
 2.3680	10.9290
 2.3690	10.8930
 2.3700	10.8630
 2.3710	10.8330
 2.3720	10.7980
 2.3730	10.7620
 2.3740	10.7200
 2.3750	10.6750
 2.3760	10.6340
 2.3770	10.5870
 2.3780	10.5480
 2.3790	10.5190
 2.3800	10.4870
 2.3810	10.4630
 2.3820	10.4390
 2.3830	10.4030
 2.3840	10.3600
 2.3850	10.3200
 2.3860	10.2780
 2.3870	10.2460
 2.3880	10.2210
 2.3890	10.1890
 2.3900	10.1540
 2.3910	10.1140
 2.3920	10.0790
 2.3930	10.0440
 2.3940	10.0080
 2.3950	 9.9780
 2.3960	 9.9370
 2.3970	 9.8970
 2.3980	 9.8630
 2.3990	 9.8410
 2.4000	 9.8200
 2.4010	 9.7950
 2.4020	 9.7660
 2.4030	 9.7190
 2.4040	 9.6750
 2.4050	 9.6400
 2.4060	 9.6040
 2.4070	 9.5660
 2.4080	 9.5230
 2.4090	 9.4770
 2.4100	 9.4330
 2.4110	 9.4010
 2.4120	 9.3610
 2.4130	 9.3110
 2.4140	 9.2710
 2.4150	 9.2270
 2.4160	 9.1820
 2.4170	 9.1510
 2.4180	 9.1070
 2.4190	 9.0640
 2.4200	 9.0350
 2.4210	 9.0040
 2.4220	 8.9850
 2.4230	 8.9630
 2.4240	 8.9240
 2.4250	 8.8900
 2.4260	 8.8460
 2.4270	 8.7940
 2.4280	 8.7610
 2.4290	 8.7280
 2.4300	 8.6900
 2.4310	 8.6590
 2.4320	 8.6050
 2.4330	 8.5320
 2.4340	 8.4700
 2.4350	 8.4230
 2.4360	 8.3860
 2.4370	 8.3750
 2.4380	 8.3590
 2.4390	 8.3260
 2.4400	 8.2950
 2.4410	 8.2450
 2.4420	 8.2020
 2.4430	 8.1680
 2.4440	 8.1380
 2.4450	 8.1080
 2.4460	 8.0720
 2.4470	 8.0320
 2.4480	 7.9780
 2.4490	 7.9430
 2.4500	 7.9160
 2.4510	 7.8980
 2.4520	 7.8690
 2.4530	 7.8160
 2.4540	 7.7650
 2.4550	 7.7140
 2.4560	 7.6880
 2.4570	 7.6840
 2.4580	 7.6710
 2.4590	 7.6580
 2.4600	 7.6330
 2.4610	 7.5860
 2.4620	 7.5440
 2.4630	 7.5140
 2.4640	 7.4780
 2.4650	 7.4630
 2.4660	 7.4620
 2.4670	 7.4320
 2.4680	 7.4020
 2.4690	 7.3730
 2.4700	 7.3470
 2.4710	 7.3110
 2.4720	 7.2890
 2.4730	 7.2840
 2.4740	 7.2600
 2.4750	 7.2410
 2.4760	 7.2250
 2.4770	 7.1920
 2.4780	 7.1800
 2.4790	 7.1960
 2.4800	 7.1760
 2.4810	 7.1310
 2.4820	 7.1010
 2.4830	 7.0720
 2.4840	 7.0530
 2.4850	 7.0520
 2.4860	 7.0270
 2.4870	 6.9910
 2.4880	 6.9870
 2.4890	 6.9480
 2.4900	 6.9040
 2.4910	 6.8920
 2.4920	 6.8690
 2.4930	 6.8870
 2.4940	 6.9490
 2.4950	 6.9660
 2.4960	 6.9510
 2.4970	 6.9340
 2.4980	 6.8190
 2.4990	 6.7140
 2.5000	 6.6960
