Name: Bambusa beecheyana
Type: vegetation
Class: Tree
Genus: Bambusa
Species: beecheyana
Sample No.: JPL135
Owner: JPL
Wavelength Range: VSWIR
Origin: 34.12719; -118.11127;; WGS84
Collection Date: 9/7/2016
Description: Samples were collected at the Huntington Garden in San Marino California as part of a JPL Subcontract studying HyTES imagery. Samples were taken to JPL and processed within 48 hours of collection. The same leaves were processed in the Nicolet and then measured using the ASD.
Measurement: Bidirectional reflectance
First Column: X
Second Column: Y
X Units: Wavelength (micrometer)
Y Units: Reflectance (percentage)
First X Value: 0.35
Last X Value: 2.5
Number of X Values: 2151
Additional Information: vegetation.tree.bambusa.beecheyana.vswir.jpl135.jpl.asd.ancillary.txt

 0.3500	 5.6090
 0.3510	 5.5790
 0.3520	 5.5450
 0.3530	 5.5080
 0.3540	 5.4880
 0.3550	 5.4910
 0.3560	 5.4940
 0.3570	 5.4780
 0.3580	 5.4350
 0.3590	 5.4390
 0.3600	 5.4600
 0.3610	 5.4600
 0.3620	 5.4070
 0.3630	 5.3640
 0.3640	 5.3520
 0.3650	 5.3680
 0.3660	 5.3910
 0.3670	 5.4000
 0.3680	 5.3810
 0.3690	 5.3300
 0.3700	 5.3050
 0.3710	 5.3170
 0.3720	 5.3480
 0.3730	 5.3420
 0.3740	 5.3340
 0.3750	 5.3360
 0.3760	 5.3470
 0.3770	 5.3630
 0.3780	 5.3640
 0.3790	 5.3540
 0.3800	 5.3600
 0.3810	 5.3270
 0.3820	 5.3130
 0.3830	 5.3360
 0.3840	 5.2730
 0.3850	 5.3100
 0.3860	 5.3840
 0.3870	 5.3700
 0.3880	 5.3450
 0.3890	 5.3340
 0.3900	 5.3370
 0.3910	 5.3400
 0.3920	 5.3510
 0.3930	 5.3610
 0.3940	 5.3680
 0.3950	 5.3970
 0.3960	 5.4060
 0.3970	 5.3950
 0.3980	 5.3870
 0.3990	 5.4050
 0.4000	 5.4250
 0.4010	 5.4400
 0.4020	 5.4620
 0.4030	 5.4750
 0.4040	 5.4730
 0.4050	 5.4670
 0.4060	 5.5040
 0.4070	 5.5370
 0.4080	 5.5530
 0.4090	 5.5640
 0.4100	 5.5720
 0.4110	 5.5910
 0.4120	 5.6180
 0.4130	 5.6180
 0.4140	 5.6290
 0.4150	 5.6490
 0.4160	 5.6640
 0.4170	 5.6750
 0.4180	 5.6880
 0.4190	 5.7070
 0.4200	 5.7330
 0.4210	 5.7250
 0.4220	 5.7280
 0.4230	 5.7670
 0.4240	 5.7830
 0.4250	 5.7880
 0.4260	 5.7890
 0.4270	 5.7900
 0.4280	 5.8020
 0.4290	 5.8090
 0.4300	 5.8080
 0.4310	 5.8140
 0.4320	 5.8170
 0.4330	 5.8180
 0.4340	 5.8190
 0.4350	 5.8150
 0.4360	 5.8200
 0.4370	 5.8320
 0.4380	 5.8410
 0.4390	 5.8500
 0.4400	 5.8580
 0.4410	 5.8660
 0.4420	 5.8820
 0.4430	 5.8950
 0.4440	 5.9000
 0.4450	 5.9020
 0.4460	 5.9050
 0.4470	 5.9120
 0.4480	 5.9220
 0.4490	 5.9340
 0.4500	 5.9370
 0.4510	 5.9380
 0.4520	 5.9480
 0.4530	 5.9570
 0.4540	 5.9650
 0.4550	 5.9710
 0.4560	 5.9800
 0.4570	 5.9840
 0.4580	 5.9840
 0.4590	 5.9820
 0.4600	 5.9820
 0.4610	 5.9830
 0.4620	 5.9850
 0.4630	 5.9880
 0.4640	 5.9890
 0.4650	 5.9840
 0.4660	 5.9780
 0.4670	 5.9800
 0.4680	 5.9910
 0.4690	 5.9940
 0.4700	 5.9810
 0.4710	 5.9810
 0.4720	 5.9890
 0.4730	 5.9950
 0.4740	 5.9910
 0.4750	 5.9910
 0.4760	 5.9970
 0.4770	 6.0030
 0.4780	 6.0000
 0.4790	 6.0020
 0.4800	 6.0090
 0.4810	 6.0140
 0.4820	 6.0090
 0.4830	 6.0080
 0.4840	 6.0110
 0.4850	 6.0140
 0.4860	 6.0190
 0.4870	 6.0240
 0.4880	 6.0290
 0.4890	 6.0340
 0.4900	 6.0440
 0.4910	 6.0570
 0.4920	 6.0690
 0.4930	 6.0850
 0.4940	 6.0980
 0.4950	 6.1110
 0.4960	 6.1350
 0.4970	 6.1570
 0.4980	 6.1770
 0.4990	 6.1990
 0.5000	 6.2280
 0.5010	 6.2620
 0.5020	 6.2990
 0.5030	 6.3340
 0.5040	 6.3770
 0.5050	 6.4280
 0.5060	 6.4860
 0.5070	 6.5490
 0.5080	 6.6180
 0.5090	 6.6920
 0.5100	 6.7740
 0.5110	 6.8660
 0.5120	 6.9690
 0.5130	 7.0800
 0.5140	 7.1960
 0.5150	 7.3250
 0.5160	 7.4690
 0.5170	 7.6250
 0.5180	 7.7810
 0.5190	 7.9450
 0.5200	 8.1200
 0.5210	 8.3000
 0.5220	 8.4810
 0.5230	 8.6620
 0.5240	 8.8440
 0.5250	 9.0220
 0.5260	 9.1950
 0.5270	 9.3600
 0.5280	 9.5170
 0.5290	 9.6630
 0.5300	 9.8000
 0.5310	 9.9260
 0.5320	10.0410
 0.5330	10.1450
 0.5340	10.2380
 0.5350	10.3200
 0.5360	10.3980
 0.5370	10.4650
 0.5380	10.5240
 0.5390	10.5790
 0.5400	10.6270
 0.5410	10.6710
 0.5420	10.7130
 0.5430	10.7560
 0.5440	10.7960
 0.5450	10.8300
 0.5460	10.8560
 0.5470	10.8830
 0.5480	10.9090
 0.5490	10.9290
 0.5500	10.9450
 0.5510	10.9550
 0.5520	10.9570
 0.5530	10.9500
 0.5540	10.9330
 0.5550	10.9040
 0.5560	10.8610
 0.5570	10.8100
 0.5580	10.7440
 0.5590	10.6660
 0.5600	10.5820
 0.5610	10.4900
 0.5620	10.3920
 0.5630	10.2900
 0.5640	10.1820
 0.5650	10.0670
 0.5660	 9.9490
 0.5670	 9.8300
 0.5680	 9.7060
 0.5690	 9.5820
 0.5700	 9.4600
 0.5710	 9.3420
 0.5720	 9.2240
 0.5730	 9.1120
 0.5740	 9.0070
 0.5750	 8.9060
 0.5760	 8.8160
 0.5770	 8.7290
 0.5780	 8.6420
 0.5790	 8.5630
 0.5800	 8.4870
 0.5810	 8.4160
 0.5820	 8.3540
 0.5830	 8.2980
 0.5840	 8.2470
 0.5850	 8.1980
 0.5860	 8.1540
 0.5870	 8.1090
 0.5880	 8.0650
 0.5890	 8.0240
 0.5900	 7.9910
 0.5910	 7.9620
 0.5920	 7.9370
 0.5930	 7.9140
 0.5940	 7.8900
 0.5950	 7.8670
 0.5960	 7.8480
 0.5970	 7.8300
 0.5980	 7.8080
 0.5990	 7.7850
 0.6000	 7.7630
 0.6010	 7.7400
 0.6020	 7.7120
 0.6030	 7.6790
 0.6040	 7.6430
 0.6050	 7.6070
 0.6060	 7.5670
 0.6070	 7.5200
 0.6080	 7.4700
 0.6090	 7.4170
 0.6100	 7.3610
 0.6110	 7.3040
 0.6120	 7.2550
 0.6130	 7.2070
 0.6140	 7.1600
 0.6150	 7.1160
 0.6160	 7.0710
 0.6170	 7.0280
 0.6180	 6.9870
 0.6190	 6.9460
 0.6200	 6.9110
 0.6210	 6.8830
 0.6220	 6.8590
 0.6230	 6.8360
 0.6240	 6.8150
 0.6250	 6.7990
 0.6260	 6.7830
 0.6270	 6.7700
 0.6280	 6.7590
 0.6290	 6.7480
 0.6300	 6.7400
 0.6310	 6.7320
 0.6320	 6.7220
 0.6330	 6.7100
 0.6340	 6.6940
 0.6350	 6.6750
 0.6360	 6.6540
 0.6370	 6.6250
 0.6380	 6.5920
 0.6390	 6.5590
 0.6400	 6.5260
 0.6410	 6.4900
 0.6420	 6.4520
 0.6430	 6.4120
 0.6440	 6.3720
 0.6450	 6.3340
 0.6460	 6.2990
 0.6470	 6.2650
 0.6480	 6.2350
 0.6490	 6.2050
 0.6500	 6.1780
 0.6510	 6.1550
 0.6520	 6.1350
 0.6530	 6.1170
 0.6540	 6.0980
 0.6550	 6.0780
 0.6560	 6.0560
 0.6570	 6.0330
 0.6580	 6.0090
 0.6590	 5.9830
 0.6600	 5.9560
 0.6610	 5.9290
 0.6620	 5.9020
 0.6630	 5.8790
 0.6640	 5.8610
 0.6650	 5.8450
 0.6660	 5.8300
 0.6670	 5.8190
 0.6680	 5.8110
 0.6690	 5.8040
 0.6700	 5.8020
 0.6710	 5.8050
 0.6720	 5.8100
 0.6730	 5.8140
 0.6740	 5.8240
 0.6750	 5.8380
 0.6760	 5.8530
 0.6770	 5.8680
 0.6780	 5.8870
 0.6790	 5.9090
 0.6800	 5.9320
 0.6810	 5.9580
 0.6820	 5.9880
 0.6830	 6.0230
 0.6840	 6.0610
 0.6850	 6.1060
 0.6860	 6.1570
 0.6870	 6.2170
 0.6880	 6.2910
 0.6890	 6.3820
 0.6900	 6.4960
 0.6910	 6.6360
 0.6920	 6.8090
 0.6930	 7.0200
 0.6940	 7.2760
 0.6950	 7.5820
 0.6960	 7.9400
 0.6970	 8.3510
 0.6980	 8.8170
 0.6990	 9.3360
 0.7000	 9.8990
 0.7010	10.5010
 0.7020	11.1410
 0.7030	11.8060
 0.7040	12.4920
 0.7050	13.1960
 0.7060	13.9120
 0.7070	14.6370
 0.7080	15.3680
 0.7090	16.1040
 0.7100	16.8450
 0.7110	17.5960
 0.7120	18.3540
 0.7130	19.1110
 0.7140	19.8750
 0.7150	20.6430
 0.7160	21.4140
 0.7170	22.1870
 0.7180	22.9620
 0.7190	23.7370
 0.7200	24.5120
 0.7210	25.2860
 0.7220	26.0570
 0.7230	26.8200
 0.7240	27.5770
 0.7250	28.3210
 0.7260	29.0510
 0.7270	29.7690
 0.7280	30.4710
 0.7290	31.1540
 0.7300	31.8180
 0.7310	32.4630
 0.7320	33.0880
 0.7330	33.6900
 0.7340	34.2700
 0.7350	34.8280
 0.7360	35.3610
 0.7370	35.8710
 0.7380	36.3560
 0.7390	36.8190
 0.7400	37.2570
 0.7410	37.6720
 0.7420	38.0640
 0.7430	38.4280
 0.7440	38.7720
 0.7450	39.0960
 0.7460	39.3940
 0.7470	39.6750
 0.7480	39.9380
 0.7490	40.1790
 0.7500	40.4010
 0.7510	40.6060
 0.7520	40.7960
 0.7530	40.9720
 0.7540	41.1320
 0.7550	41.2780
 0.7560	41.4120
 0.7570	41.5330
 0.7580	41.6430
 0.7590	41.7460
 0.7600	41.8420
 0.7610	41.9280
 0.7620	42.0050
 0.7630	42.0750
 0.7640	42.1380
 0.7650	42.1970
 0.7660	42.2500
 0.7670	42.2960
 0.7680	42.3370
 0.7690	42.3760
 0.7700	42.4120
 0.7710	42.4450
 0.7720	42.4700
 0.7730	42.4940
 0.7740	42.5180
 0.7750	42.5420
 0.7760	42.5620
 0.7770	42.5800
 0.7780	42.5970
 0.7790	42.6130
 0.7800	42.6250
 0.7810	42.6360
 0.7820	42.6480
 0.7830	42.6600
 0.7840	42.6690
 0.7850	42.6760
 0.7860	42.6800
 0.7870	42.6810
 0.7880	42.6860
 0.7890	42.6920
 0.7900	42.6940
 0.7910	42.6930
 0.7920	42.6940
 0.7930	42.6950
 0.7940	42.6920
 0.7950	42.6890
 0.7960	42.6840
 0.7970	42.6790
 0.7980	42.6760
 0.7990	42.6680
 0.8000	42.6590
 0.8010	42.6520
 0.8020	42.6470
 0.8030	42.6380
 0.8040	42.6280
 0.8050	42.6210
 0.8060	42.6110
 0.8070	42.5990
 0.8080	42.5850
 0.8090	42.5730
 0.8100	42.5630
 0.8110	42.5530
 0.8120	42.5410
 0.8130	42.5240
 0.8140	42.5090
 0.8150	42.4960
 0.8160	42.4820
 0.8170	42.4700
 0.8180	42.4590
 0.8190	42.4480
 0.8200	42.4370
 0.8210	42.4190
 0.8220	42.4040
 0.8230	42.3920
 0.8240	42.3810
 0.8250	42.3660
 0.8260	42.3500
 0.8270	42.3380
 0.8280	42.3280
 0.8290	42.3170
 0.8300	42.3060
 0.8310	42.2960
 0.8320	42.2830
 0.8330	42.2720
 0.8340	42.2630
 0.8350	42.2510
 0.8360	42.2430
 0.8370	42.2340
 0.8380	42.2240
 0.8390	42.2160
 0.8400	42.2110
 0.8410	42.2050
 0.8420	42.2010
 0.8430	42.1950
 0.8440	42.1910
 0.8450	42.1860
 0.8460	42.1810
 0.8470	42.1790
 0.8480	42.1770
 0.8490	42.1730
 0.8500	42.1680
 0.8510	42.1690
 0.8520	42.1660
 0.8530	42.1610
 0.8540	42.1610
 0.8550	42.1630
 0.8560	42.1630
 0.8570	42.1620
 0.8580	42.1650
 0.8590	42.1700
 0.8600	42.1730
 0.8610	42.1740
 0.8620	42.1780
 0.8630	42.1830
 0.8640	42.1860
 0.8650	42.1890
 0.8660	42.1920
 0.8670	42.1960
 0.8680	42.2020
 0.8690	42.2110
 0.8700	42.2150
 0.8710	42.2190
 0.8720	42.2250
 0.8730	42.2300
 0.8740	42.2360
 0.8750	42.2460
 0.8760	42.2550
 0.8770	42.2610
 0.8780	42.2730
 0.8790	42.2830
 0.8800	42.2880
 0.8810	42.2950
 0.8820	42.3020
 0.8830	42.3110
 0.8840	42.3230
 0.8850	42.3320
 0.8860	42.3400
 0.8870	42.3500
 0.8880	42.3620
 0.8890	42.3680
 0.8900	42.3790
 0.8910	42.3920
 0.8920	42.3980
 0.8930	42.4090
 0.8940	42.4170
 0.8950	42.4250
 0.8960	42.4370
 0.8970	42.4470
 0.8980	42.4560
 0.8990	42.4640
 0.9000	42.4660
 0.9010	42.4760
 0.9020	42.4870
 0.9030	42.4950
 0.9040	42.5000
 0.9050	42.5130
 0.9060	42.5250
 0.9070	42.5300
 0.9080	42.5300
 0.9090	42.5380
 0.9100	42.5490
 0.9110	42.5560
 0.9120	42.5590
 0.9130	42.5640
 0.9140	42.5720
 0.9150	42.5790
 0.9160	42.5790
 0.9170	42.5790
 0.9180	42.5790
 0.9190	42.5820
 0.9200	42.5870
 0.9210	42.5890
 0.9220	42.5880
 0.9230	42.5840
 0.9240	42.5830
 0.9250	42.5810
 0.9260	42.5790
 0.9270	42.5790
 0.9280	42.5720
 0.9290	42.5650
 0.9300	42.5600
 0.9310	42.5530
 0.9320	42.5440
 0.9330	42.5340
 0.9340	42.5240
 0.9350	42.5160
 0.9360	42.5070
 0.9370	42.4950
 0.9380	42.4810
 0.9390	42.4720
 0.9400	42.4640
 0.9410	42.4530
 0.9420	42.4340
 0.9430	42.4100
 0.9440	42.3990
 0.9450	42.3900
 0.9460	42.3710
 0.9470	42.3460
 0.9480	42.3300
 0.9490	42.3110
 0.9500	42.2810
 0.9510	42.2480
 0.9520	42.2260
 0.9530	42.2040
 0.9540	42.1740
 0.9550	42.1540
 0.9560	42.1340
 0.9570	42.1060
 0.9580	42.0710
 0.9590	42.0520
 0.9600	42.0340
 0.9610	42.0140
 0.9620	41.9940
 0.9630	41.9740
 0.9640	41.9570
 0.9650	41.9450
 0.9660	41.9380
 0.9670	41.9160
 0.9680	41.9010
 0.9690	41.8930
 0.9700	41.8840
 0.9710	41.8710
 0.9720	41.8530
 0.9730	41.8410
 0.9740	41.8460
 0.9750	41.8420
 0.9760	41.8310
 0.9770	41.8220
 0.9780	41.8220
 0.9790	41.8100
 0.9800	41.8050
 0.9810	41.8060
 0.9820	41.8030
 0.9830	41.8010
 0.9840	41.8000
 0.9850	41.7960
 0.9860	41.7840
 0.9870	41.7830
 0.9880	41.7800
 0.9890	41.7790
 0.9900	41.7840
 0.9910	41.7890
 0.9920	41.7870
 0.9930	41.7860
 0.9940	41.7930
 0.9950	41.7770
 0.9960	41.7800
 0.9970	41.7930
 0.9980	41.7850
 0.9990	41.7620
 1.0000	41.7700
 1.0010	42.1230
 1.0020	42.1260
 1.0030	42.1270
 1.0040	42.1250
 1.0050	42.1270
 1.0060	42.1300
 1.0070	42.1310
 1.0080	42.1320
 1.0090	42.1370
 1.0100	42.1390
 1.0110	42.1370
 1.0120	42.1380
 1.0130	42.1430
 1.0140	42.1450
 1.0150	42.1460
 1.0160	42.1470
 1.0170	42.1480
 1.0180	42.1510
 1.0190	42.1540
 1.0200	42.1560
 1.0210	42.1580
 1.0220	42.1590
 1.0230	42.1610
 1.0240	42.1660
 1.0250	42.1680
 1.0260	42.1710
 1.0270	42.1710
 1.0280	42.1690
 1.0290	42.1700
 1.0300	42.1720
 1.0310	42.1730
 1.0320	42.1740
 1.0330	42.1770
 1.0340	42.1810
 1.0350	42.1820
 1.0360	42.1860
 1.0370	42.1910
 1.0380	42.1930
 1.0390	42.1920
 1.0400	42.1940
 1.0410	42.1950
 1.0420	42.1970
 1.0430	42.2020
 1.0440	42.2030
 1.0450	42.2010
 1.0460	42.2010
 1.0470	42.2030
 1.0480	42.2040
 1.0490	42.2080
 1.0500	42.2110
 1.0510	42.2120
 1.0520	42.2130
 1.0530	42.2140
 1.0540	42.2150
 1.0550	42.2150
 1.0560	42.2150
 1.0570	42.2150
 1.0580	42.2140
 1.0590	42.2140
 1.0600	42.2150
 1.0610	42.2150
 1.0620	42.2140
 1.0630	42.2130
 1.0640	42.2110
 1.0650	42.2100
 1.0660	42.2070
 1.0670	42.2060
 1.0680	42.2050
 1.0690	42.2040
 1.0700	42.2020
 1.0710	42.2000
 1.0720	42.1990
 1.0730	42.1970
 1.0740	42.1960
 1.0750	42.2000
 1.0760	42.2000
 1.0770	42.1970
 1.0780	42.1960
 1.0790	42.1940
 1.0800	42.1940
 1.0810	42.1970
 1.0820	42.1960
 1.0830	42.1910
 1.0840	42.1880
 1.0850	42.1830
 1.0860	42.1780
 1.0870	42.1750
 1.0880	42.1760
 1.0890	42.1740
 1.0900	42.1730
 1.0910	42.1710
 1.0920	42.1660
 1.0930	42.1630
 1.0940	42.1590
 1.0950	42.1570
 1.0960	42.1550
 1.0970	42.1530
 1.0980	42.1510
 1.0990	42.1490
 1.1000	42.1450
 1.1010	42.1420
 1.1020	42.1380
 1.1030	42.1340
 1.1040	42.1310
 1.1050	42.1280
 1.1060	42.1240
 1.1070	42.1210
 1.1080	42.1160
 1.1090	42.1100
 1.1100	42.1050
 1.1110	42.0990
 1.1120	42.0950
 1.1130	42.0920
 1.1140	42.0870
 1.1150	42.0830
 1.1160	42.0770
 1.1170	42.0680
 1.1180	42.0600
 1.1190	42.0510
 1.1200	42.0400
 1.1210	42.0290
 1.1220	42.0190
 1.1230	42.0070
 1.1240	41.9930
 1.1250	41.9770
 1.1260	41.9610
 1.1270	41.9400
 1.1280	41.9150
 1.1290	41.8900
 1.1300	41.8620
 1.1310	41.8320
 1.1320	41.8020
 1.1330	41.7670
 1.1340	41.7260
 1.1350	41.6850
 1.1360	41.6420
 1.1370	41.5960
 1.1380	41.5500
 1.1390	41.5020
 1.1400	41.4490
 1.1410	41.3950
 1.1420	41.3400
 1.1430	41.2840
 1.1440	41.2280
 1.1450	41.1710
 1.1460	41.1150
 1.1470	41.0540
 1.1480	41.0010
 1.1490	40.9510
 1.1500	40.9030
 1.1510	40.8600
 1.1520	40.8170
 1.1530	40.7740
 1.1540	40.7350
 1.1550	40.6990
 1.1560	40.6660
 1.1570	40.6370
 1.1580	40.6110
 1.1590	40.5870
 1.1600	40.5650
 1.1610	40.5440
 1.1620	40.5250
 1.1630	40.5090
 1.1640	40.4960
 1.1650	40.4830
 1.1660	40.4740
 1.1670	40.4640
 1.1680	40.4550
 1.1690	40.4460
 1.1700	40.4380
 1.1710	40.4290
 1.1720	40.4210
 1.1730	40.4130
 1.1740	40.4060
 1.1750	40.3990
 1.1760	40.3930
 1.1770	40.3850
 1.1780	40.3780
 1.1790	40.3700
 1.1800	40.3610
 1.1810	40.3520
 1.1820	40.3440
 1.1830	40.3320
 1.1840	40.3220
 1.1850	40.3140
 1.1860	40.3040
 1.1870	40.2970
 1.1880	40.2890
 1.1890	40.2810
 1.1900	40.2730
 1.1910	40.2660
 1.1920	40.2590
 1.1930	40.2520
 1.1940	40.2470
 1.1950	40.2420
 1.1960	40.2370
 1.1970	40.2340
 1.1980	40.2320
 1.1990	40.2320
 1.2000	40.2300
 1.2010	40.2300
 1.2020	40.2300
 1.2030	40.2300
 1.2040	40.2310
 1.2050	40.2330
 1.2060	40.2350
 1.2070	40.2360
 1.2080	40.2380
 1.2090	40.2410
 1.2100	40.2440
 1.2110	40.2470
 1.2120	40.2500
 1.2130	40.2550
 1.2140	40.2600
 1.2150	40.2650
 1.2160	40.2710
 1.2170	40.2770
 1.2180	40.2810
 1.2190	40.2850
 1.2200	40.2900
 1.2210	40.2960
 1.2220	40.3010
 1.2230	40.3070
 1.2240	40.3140
 1.2250	40.3190
 1.2260	40.3250
 1.2270	40.3310
 1.2280	40.3360
 1.2290	40.3430
 1.2300	40.3510
 1.2310	40.3570
 1.2320	40.3630
 1.2330	40.3670
 1.2340	40.3710
 1.2350	40.3740
 1.2360	40.3780
 1.2370	40.3820
 1.2380	40.3870
 1.2390	40.3910
 1.2400	40.3940
 1.2410	40.3970
 1.2420	40.4010
 1.2430	40.4040
 1.2440	40.4060
 1.2450	40.4080
 1.2460	40.4090
 1.2470	40.4100
 1.2480	40.4130
 1.2490	40.4160
 1.2500	40.4200
 1.2510	40.4220
 1.2520	40.4220
 1.2530	40.4220
 1.2540	40.4220
 1.2550	40.4220
 1.2560	40.4210
 1.2570	40.4200
 1.2580	40.4200
 1.2590	40.4180
 1.2600	40.4150
 1.2610	40.4110
 1.2620	40.4080
 1.2630	40.4040
 1.2640	40.4010
 1.2650	40.3980
 1.2660	40.3940
 1.2670	40.3890
 1.2680	40.3830
 1.2690	40.3780
 1.2700	40.3730
 1.2710	40.3680
 1.2720	40.3610
 1.2730	40.3540
 1.2740	40.3470
 1.2750	40.3390
 1.2760	40.3310
 1.2770	40.3230
 1.2780	40.3140
 1.2790	40.3050
 1.2800	40.2940
 1.2810	40.2830
 1.2820	40.2730
 1.2830	40.2610
 1.2840	40.2500
 1.2850	40.2390
 1.2860	40.2260
 1.2870	40.2120
 1.2880	40.1970
 1.2890	40.1800
 1.2900	40.1620
 1.2910	40.1440
 1.2920	40.1240
 1.2930	40.1070
 1.2940	40.0890
 1.2950	40.0690
 1.2960	40.0480
 1.2970	40.0240
 1.2980	39.9990
 1.2990	39.9730
 1.3000	39.9470
 1.3010	39.9210
 1.3020	39.8940
 1.3030	39.8660
 1.3040	39.8360
 1.3050	39.8070
 1.3060	39.7760
 1.3070	39.7440
 1.3080	39.7120
 1.3090	39.6780
 1.3100	39.6410
 1.3110	39.6040
 1.3120	39.5670
 1.3130	39.5290
 1.3140	39.4900
 1.3150	39.4510
 1.3160	39.4100
 1.3170	39.3670
 1.3180	39.3230
 1.3190	39.2770
 1.3200	39.2300
 1.3210	39.1830
 1.3220	39.1360
 1.3230	39.0870
 1.3240	39.0370
 1.3250	38.9860
 1.3260	38.9330
 1.3270	38.8790
 1.3280	38.8240
 1.3290	38.7670
 1.3300	38.7080
 1.3310	38.6470
 1.3320	38.5860
 1.3330	38.5240
 1.3340	38.4630
 1.3350	38.4010
 1.3360	38.3380
 1.3370	38.2750
 1.3380	38.2100
 1.3390	38.1440
 1.3400	38.0800
 1.3410	38.0160
 1.3420	37.9530
 1.3430	37.8900
 1.3440	37.8270
 1.3450	37.7640
 1.3460	37.7000
 1.3470	37.6370
 1.3480	37.5740
 1.3490	37.5120
 1.3500	37.4490
 1.3510	37.3860
 1.3520	37.3220
 1.3530	37.2590
 1.3540	37.1960
 1.3550	37.1320
 1.3560	37.0680
 1.3570	37.0020
 1.3580	36.9350
 1.3590	36.8660
 1.3600	36.7940
 1.3610	36.7230
 1.3620	36.6490
 1.3630	36.5730
 1.3640	36.4930
 1.3650	36.4090
 1.3660	36.3230
 1.3670	36.2320
 1.3680	36.1380
 1.3690	36.0360
 1.3700	35.9260
 1.3710	35.8080
 1.3720	35.6820
 1.3730	35.5450
 1.3740	35.4000
 1.3750	35.2420
 1.3760	35.0720
 1.3770	34.8880
 1.3780	34.6870
 1.3790	34.4690
 1.3800	34.2360
 1.3810	33.9830
 1.3820	33.7160
 1.3830	33.4360
 1.3840	33.1380
 1.3850	32.8230
 1.3860	32.4940
 1.3870	32.1450
 1.3880	31.7880
 1.3890	31.4170
 1.3900	31.0340
 1.3910	30.6460
 1.3920	30.2460
 1.3930	29.8360
 1.3940	29.4230
 1.3950	29.0010
 1.3960	28.5790
 1.3970	28.1610
 1.3980	27.7420
 1.3990	27.3330
 1.4000	26.9300
 1.4010	26.5320
 1.4020	26.1470
 1.4030	25.7700
 1.4040	25.4060
 1.4050	25.0570
 1.4060	24.7200
 1.4070	24.4040
 1.4080	24.1030
 1.4090	23.8140
 1.4100	23.5440
 1.4110	23.2880
 1.4120	23.0480
 1.4130	22.8260
 1.4140	22.6170
 1.4150	22.4240
 1.4160	22.2460
 1.4170	22.0800
 1.4180	21.9270
 1.4190	21.7860
 1.4200	21.6550
 1.4210	21.5360
 1.4220	21.4270
 1.4230	21.3290
 1.4240	21.2390
 1.4250	21.1560
 1.4260	21.0830
 1.4270	21.0160
 1.4280	20.9580
 1.4290	20.9050
 1.4300	20.8600
 1.4310	20.8200
 1.4320	20.7860
 1.4330	20.7570
 1.4340	20.7330
 1.4350	20.7140
 1.4360	20.6990
 1.4370	20.6880
 1.4380	20.6820
 1.4390	20.6780
 1.4400	20.6780
 1.4410	20.6800
 1.4420	20.6850
 1.4430	20.6910
 1.4440	20.7000
 1.4450	20.7110
 1.4460	20.7240
 1.4470	20.7390
 1.4480	20.7550
 1.4490	20.7720
 1.4500	20.7900
 1.4510	20.8090
 1.4520	20.8300
 1.4530	20.8510
 1.4540	20.8740
 1.4550	20.9000
 1.4560	20.9270
 1.4570	20.9560
 1.4580	20.9890
 1.4590	21.0240
 1.4600	21.0630
 1.4610	21.1060
 1.4620	21.1540
 1.4630	21.2060
 1.4640	21.2620
 1.4650	21.3220
 1.4660	21.3860
 1.4670	21.4550
 1.4680	21.5290
 1.4690	21.6070
 1.4700	21.6880
 1.4710	21.7730
 1.4720	21.8610
 1.4730	21.9520
 1.4740	22.0460
 1.4750	22.1430
 1.4760	22.2420
 1.4770	22.3430
 1.4780	22.4460
 1.4790	22.5510
 1.4800	22.6550
 1.4810	22.7610
 1.4820	22.8670
 1.4830	22.9740
 1.4840	23.0830
 1.4850	23.1920
 1.4860	23.3020
 1.4870	23.4110
 1.4880	23.5190
 1.4890	23.6280
 1.4900	23.7370
 1.4910	23.8470
 1.4920	23.9570
 1.4930	24.0680
 1.4940	24.1770
 1.4950	24.2870
 1.4960	24.3960
 1.4970	24.5040
 1.4980	24.6120
 1.4990	24.7210
 1.5000	24.8300
 1.5010	24.9390
 1.5020	25.0480
 1.5030	25.1570
 1.5040	25.2650
 1.5050	25.3710
 1.5060	25.4780
 1.5070	25.5840
 1.5080	25.6910
 1.5090	25.7970
 1.5100	25.9030
 1.5110	26.0080
 1.5120	26.1120
 1.5130	26.2150
 1.5140	26.3180
 1.5150	26.4200
 1.5160	26.5200
 1.5170	26.6200
 1.5180	26.7190
 1.5190	26.8180
 1.5200	26.9160
 1.5210	27.0120
 1.5220	27.1070
 1.5230	27.2010
 1.5240	27.2940
 1.5250	27.3870
 1.5260	27.4770
 1.5270	27.5650
 1.5280	27.6540
 1.5290	27.7420
 1.5300	27.8270
 1.5310	27.9140
 1.5320	27.9980
 1.5330	28.0810
 1.5340	28.1640
 1.5350	28.2460
 1.5360	28.3260
 1.5370	28.4050
 1.5380	28.4840
 1.5390	28.5630
 1.5400	28.6390
 1.5410	28.7150
 1.5420	28.7890
 1.5430	28.8620
 1.5440	28.9350
 1.5450	29.0080
 1.5460	29.0800
 1.5470	29.1500
 1.5480	29.2200
 1.5490	29.2890
 1.5500	29.3560
 1.5510	29.4230
 1.5520	29.4900
 1.5530	29.5540
 1.5540	29.6180
 1.5550	29.6800
 1.5560	29.7420
 1.5570	29.8020
 1.5580	29.8610
 1.5590	29.9200
 1.5600	29.9770
 1.5610	30.0330
 1.5620	30.0890
 1.5630	30.1430
 1.5640	30.1950
 1.5650	30.2480
 1.5660	30.3000
 1.5670	30.3520
 1.5680	30.4020
 1.5690	30.4520
 1.5700	30.5000
 1.5710	30.5490
 1.5720	30.5950
 1.5730	30.6420
 1.5740	30.6900
 1.5750	30.7370
 1.5760	30.7850
 1.5770	30.8310
 1.5780	30.8770
 1.5790	30.9230
 1.5800	30.9680
 1.5810	31.0150
 1.5820	31.0610
 1.5830	31.1060
 1.5840	31.1510
 1.5850	31.1940
 1.5860	31.2380
 1.5870	31.2820
 1.5880	31.3260
 1.5890	31.3700
 1.5900	31.4130
 1.5910	31.4570
 1.5920	31.5000
 1.5930	31.5420
 1.5940	31.5840
 1.5950	31.6260
 1.5960	31.6680
 1.5970	31.7090
 1.5980	31.7490
 1.5990	31.7890
 1.6000	31.8290
 1.6010	31.8690
 1.6020	31.9080
 1.6030	31.9470
 1.6040	31.9850
 1.6050	32.0220
 1.6060	32.0600
 1.6070	32.0970
 1.6080	32.1340
 1.6090	32.1700
 1.6100	32.2040
 1.6110	32.2390
 1.6120	32.2720
 1.6130	32.3050
 1.6140	32.3380
 1.6150	32.3700
 1.6160	32.4000
 1.6170	32.4310
 1.6180	32.4610
 1.6190	32.4910
 1.6200	32.5200
 1.6210	32.5490
 1.6220	32.5770
 1.6230	32.6030
 1.6240	32.6290
 1.6250	32.6550
 1.6260	32.6800
 1.6270	32.7060
 1.6280	32.7300
 1.6290	32.7530
 1.6300	32.7750
 1.6310	32.7960
 1.6320	32.8180
 1.6330	32.8380
 1.6340	32.8580
 1.6350	32.8760
 1.6360	32.8920
 1.6370	32.9090
 1.6380	32.9240
 1.6390	32.9380
 1.6400	32.9530
 1.6410	32.9660
 1.6420	32.9780
 1.6430	32.9890
 1.6440	32.9990
 1.6450	33.0090
 1.6460	33.0200
 1.6470	33.0300
 1.6480	33.0380
 1.6490	33.0450
 1.6500	33.0510
 1.6510	33.0550
 1.6520	33.0590
 1.6530	33.0610
 1.6540	33.0610
 1.6550	33.0600
 1.6560	33.0580
 1.6570	33.0540
 1.6580	33.0480
 1.6590	33.0420
 1.6600	33.0350
 1.6610	33.0300
 1.6620	33.0240
 1.6630	33.0180
 1.6640	33.0130
 1.6650	33.0060
 1.6660	33.0000
 1.6670	32.9950
 1.6680	32.9880
 1.6690	32.9790
 1.6700	32.9690
 1.6710	32.9570
 1.6720	32.9430
 1.6730	32.9280
 1.6740	32.9100
 1.6750	32.8900
 1.6760	32.8680
 1.6770	32.8450
 1.6780	32.8210
 1.6790	32.7950
 1.6800	32.7690
 1.6810	32.7420
 1.6820	32.7120
 1.6830	32.6800
 1.6840	32.6470
 1.6850	32.6130
 1.6860	32.5800
 1.6870	32.5480
 1.6880	32.5140
 1.6890	32.4790
 1.6900	32.4450
 1.6910	32.4110
 1.6920	32.3790
 1.6930	32.3470
 1.6940	32.3170
 1.6950	32.2880
 1.6960	32.2580
 1.6970	32.2290
 1.6980	32.1990
 1.6990	32.1690
 1.7000	32.1390
 1.7010	32.1090
 1.7020	32.0810
 1.7030	32.0530
 1.7040	32.0250
 1.7050	31.9980
 1.7060	31.9690
 1.7070	31.9380
 1.7080	31.9080
 1.7090	31.8760
 1.7100	31.8460
 1.7110	31.8170
 1.7120	31.7870
 1.7130	31.7550
 1.7140	31.7220
 1.7150	31.6890
 1.7160	31.6560
 1.7170	31.6240
 1.7180	31.5920
 1.7190	31.5610
 1.7200	31.5290
 1.7210	31.4970
 1.7220	31.4640
 1.7230	31.4340
 1.7240	31.4030
 1.7250	31.3720
 1.7260	31.3410
 1.7270	31.3100
 1.7280	31.2800
 1.7290	31.2520
 1.7300	31.2230
 1.7310	31.1960
 1.7320	31.1690
 1.7330	31.1430
 1.7340	31.1190
 1.7350	31.0940
 1.7360	31.0720
 1.7370	31.0470
 1.7380	31.0210
 1.7390	30.9930
 1.7400	30.9610
 1.7410	30.9310
 1.7420	30.9000
 1.7430	30.8680
 1.7440	30.8350
 1.7450	30.7990
 1.7460	30.7610
 1.7470	30.7220
 1.7480	30.6830
 1.7490	30.6430
 1.7500	30.6020
 1.7510	30.5610
 1.7520	30.5190
 1.7530	30.4770
 1.7540	30.4350
 1.7550	30.3930
 1.7560	30.3510
 1.7570	30.3080
 1.7580	30.2660
 1.7590	30.2250
 1.7600	30.1830
 1.7610	30.1400
 1.7620	30.0990
 1.7630	30.0580
 1.7640	30.0190
 1.7650	29.9850
 1.7660	29.9500
 1.7670	29.9160
 1.7680	29.8850
 1.7690	29.8550
 1.7700	29.8270
 1.7710	29.8010
 1.7720	29.7740
 1.7730	29.7470
 1.7740	29.7210
 1.7750	29.6940
 1.7760	29.6690
 1.7770	29.6450
 1.7780	29.6210
 1.7790	29.5980
 1.7800	29.5760
 1.7810	29.5560
 1.7820	29.5380
 1.7830	29.5230
 1.7840	29.5080
 1.7850	29.4930
 1.7860	29.4800
 1.7870	29.4690
 1.7880	29.4600
 1.7890	29.4520
 1.7900	29.4450
 1.7910	29.4390
 1.7920	29.4340
 1.7930	29.4290
 1.7940	29.4220
 1.7950	29.4190
 1.7960	29.4180
 1.7970	29.4180
 1.7980	29.4210
 1.7990	29.4230
 1.8000	29.4210
 1.8010	29.4220
 1.8020	29.4220
 1.8030	29.4240
 1.8040	29.4260
 1.8050	29.4280
 1.8060	29.4320
 1.8070	29.4350
 1.8080	29.4380
 1.8090	29.4390
 1.8100	29.4390
 1.8110	29.4390
 1.8120	29.4390
 1.8130	29.4410
 1.8140	29.4430
 1.8150	29.4440
 1.8160	29.4440
 1.8170	29.4440
 1.8180	29.4420
 1.8190	29.4420
 1.8200	29.4400
 1.8210	29.4350
 1.8220	29.4310
 1.8230	29.4240
 1.8240	29.4190
 1.8250	29.4170
 1.8260	29.4110
 1.8270	29.4030
 1.8280	29.3940
 1.8290	29.3790
 1.8300	29.3650
 1.8310	29.0810
 1.8320	29.0600
 1.8330	29.0400
 1.8340	29.0170
 1.8350	28.9900
 1.8360	28.9590
 1.8370	28.9260
 1.8380	28.8920
 1.8390	28.8530
 1.8400	28.8140
 1.8410	28.7670
 1.8420	28.7160
 1.8430	28.6590
 1.8440	28.5980
 1.8450	28.5310
 1.8460	28.4600
 1.8470	28.3820
 1.8480	28.2960
 1.8490	28.2040
 1.8500	28.1040
 1.8510	27.9960
 1.8520	27.8790
 1.8530	27.7530
 1.8540	27.6180
 1.8550	27.4700
 1.8560	27.3130
 1.8570	27.1440
 1.8580	26.9600
 1.8590	26.7660
 1.8600	26.5610
 1.8610	26.3410
 1.8620	26.1040
 1.8630	25.8550
 1.8640	25.5880
 1.8650	25.3050
 1.8660	25.0030
 1.8670	24.6800
 1.8680	24.3410
 1.8690	23.9800
 1.8700	23.5970
 1.8710	23.1940
 1.8720	22.7770
 1.8730	22.3390
 1.8740	21.8820
 1.8750	21.4140
 1.8760	20.9270
 1.8770	20.4320
 1.8780	19.9300
 1.8790	19.4160
 1.8800	18.9010
 1.8810	18.3840
 1.8820	17.8570
 1.8830	17.3240
 1.8840	16.7910
 1.8850	16.2530
 1.8860	15.7200
 1.8870	15.1960
 1.8880	14.6760
 1.8890	14.1740
 1.8900	13.6880
 1.8910	13.2190
 1.8920	12.7620
 1.8930	12.3320
 1.8940	11.9190
 1.8950	11.5260
 1.8960	11.1590
 1.8970	10.8130
 1.8980	10.4950
 1.8990	10.2010
 1.9000	 9.9260
 1.9010	 9.6760
 1.9020	 9.4440
 1.9030	 9.2330
 1.9040	 9.0400
 1.9050	 8.8690
 1.9060	 8.7130
 1.9070	 8.5760
 1.9080	 8.4530
 1.9090	 8.3430
 1.9100	 8.2470
 1.9110	 8.1580
 1.9120	 8.0820
 1.9130	 8.0120
 1.9140	 7.9520
 1.9150	 7.8990
 1.9160	 7.8530
 1.9170	 7.8150
 1.9180	 7.7810
 1.9190	 7.7520
 1.9200	 7.7300
 1.9210	 7.7100
 1.9220	 7.6950
 1.9230	 7.6840
 1.9240	 7.6770
 1.9250	 7.6730
 1.9260	 7.6740
 1.9270	 7.6770
 1.9280	 7.6820
 1.9290	 7.6920
 1.9300	 7.7040
 1.9310	 7.7190
 1.9320	 7.7370
 1.9330	 7.7570
 1.9340	 7.7800
 1.9350	 7.8050
 1.9360	 7.8340
 1.9370	 7.8650
 1.9380	 7.8980
 1.9390	 7.9320
 1.9400	 7.9680
 1.9410	 8.0070
 1.9420	 8.0480
 1.9430	 8.0920
 1.9440	 8.1360
 1.9450	 8.1830
 1.9460	 8.2310
 1.9470	 8.2830
 1.9480	 8.3350
 1.9490	 8.3900
 1.9500	 8.4460
 1.9510	 8.5020
 1.9520	 8.5590
 1.9530	 8.6180
 1.9540	 8.6790
 1.9550	 8.7400
 1.9560	 8.8040
 1.9570	 8.8680
 1.9580	 8.9310
 1.9590	 8.9960
 1.9600	 9.0620
 1.9610	 9.1310
 1.9620	 9.2010
 1.9630	 9.2730
 1.9640	 9.3460
 1.9650	 9.4210
 1.9660	 9.4960
 1.9670	 9.5710
 1.9680	 9.6480
 1.9690	 9.7250
 1.9700	 9.8030
 1.9710	 9.8830
 1.9720	 9.9630
 1.9730	10.0430
 1.9740	10.1230
 1.9750	10.2050
 1.9760	10.2880
 1.9770	10.3720
 1.9780	10.4570
 1.9790	10.5420
 1.9800	10.6300
 1.9810	10.7170
 1.9820	10.8050
 1.9830	10.8940
 1.9840	10.9830
 1.9850	11.0730
 1.9860	11.1640
 1.9870	11.2560
 1.9880	11.3490
 1.9890	11.4410
 1.9900	11.5340
 1.9910	11.6250
 1.9920	11.7180
 1.9930	11.8090
 1.9940	11.9010
 1.9950	11.9960
 1.9960	12.0890
 1.9970	12.1830
 1.9980	12.2760
 1.9990	12.3700
 2.0000	12.4620
 2.0010	12.5540
 2.0020	12.6460
 2.0030	12.7340
 2.0040	12.8240
 2.0050	12.9130
 2.0060	13.0020
 2.0070	13.0900
 2.0080	13.1790
 2.0090	13.2670
 2.0100	13.3560
 2.0110	13.4430
 2.0120	13.5280
 2.0130	13.6150
 2.0140	13.7000
 2.0150	13.7820
 2.0160	13.8650
 2.0170	13.9470
 2.0180	14.0270
 2.0190	14.1060
 2.0200	14.1840
 2.0210	14.2590
 2.0220	14.3340
 2.0230	14.4080
 2.0240	14.4800
 2.0250	14.5520
 2.0260	14.6210
 2.0270	14.6890
 2.0280	14.7560
 2.0290	14.8220
 2.0300	14.8850
 2.0310	14.9470
 2.0320	15.0070
 2.0330	15.0660
 2.0340	15.1250
 2.0350	15.1820
 2.0360	15.2380
 2.0370	15.2910
 2.0380	15.3410
 2.0390	15.3920
 2.0400	15.4420
 2.0410	15.4910
 2.0420	15.5400
 2.0430	15.5890
 2.0440	15.6360
 2.0450	15.6790
 2.0460	15.7240
 2.0470	15.7670
 2.0480	15.8110
 2.0490	15.8550
 2.0500	15.8990
 2.0510	15.9420
 2.0520	15.9870
 2.0530	16.0310
 2.0540	16.0770
 2.0550	16.1230
 2.0560	16.1700
 2.0570	16.2180
 2.0580	16.2670
 2.0590	16.3170
 2.0600	16.3680
 2.0610	16.4200
 2.0620	16.4720
 2.0630	16.5250
 2.0640	16.5780
 2.0650	16.6310
 2.0660	16.6850
 2.0670	16.7390
 2.0680	16.7920
 2.0690	16.8460
 2.0700	16.8990
 2.0710	16.9530
 2.0720	17.0090
 2.0730	17.0640
 2.0740	17.1180
 2.0750	17.1720
 2.0760	17.2260
 2.0770	17.2790
 2.0780	17.3330
 2.0790	17.3880
 2.0800	17.4410
 2.0810	17.4950
 2.0820	17.5470
 2.0830	17.5970
 2.0840	17.6480
 2.0850	17.7000
 2.0860	17.7510
 2.0870	17.8010
 2.0880	17.8520
 2.0890	17.9010
 2.0900	17.9490
 2.0910	17.9970
 2.0920	18.0440
 2.0930	18.0920
 2.0940	18.1400
 2.0950	18.1880
 2.0960	18.2380
 2.0970	18.2860
 2.0980	18.3320
 2.0990	18.3790
 2.1000	18.4230
 2.1010	18.4680
 2.1020	18.5110
 2.1030	18.5550
 2.1040	18.5990
 2.1050	18.6440
 2.1060	18.6890
 2.1070	18.7350
 2.1080	18.7790
 2.1090	18.8220
 2.1100	18.8650
 2.1110	18.9070
 2.1120	18.9490
 2.1130	18.9880
 2.1140	19.0300
 2.1150	19.0720
 2.1160	19.1140
 2.1170	19.1590
 2.1180	19.2010
 2.1190	19.2420
 2.1200	19.2830
 2.1210	19.3200
 2.1220	19.3590
 2.1230	19.3980
 2.1240	19.4360
 2.1250	19.4740
 2.1260	19.5110
 2.1270	19.5460
 2.1280	19.5800
 2.1290	19.6140
 2.1300	19.6490
 2.1310	19.6820
 2.1320	19.7140
 2.1330	19.7440
 2.1340	19.7730
 2.1350	19.8000
 2.1360	19.8240
 2.1370	19.8480
 2.1380	19.8710
 2.1390	19.8940
 2.1400	19.9160
 2.1410	19.9380
 2.1420	19.9590
 2.1430	19.9800
 2.1440	19.9990
 2.1450	20.0170
 2.1460	20.0350
 2.1470	20.0510
 2.1480	20.0680
 2.1490	20.0860
 2.1500	20.1020
 2.1510	20.1180
 2.1520	20.1320
 2.1530	20.1440
 2.1540	20.1550
 2.1550	20.1650
 2.1560	20.1730
 2.1570	20.1760
 2.1580	20.1820
 2.1590	20.1910
 2.1600	20.1970
 2.1610	20.2060
 2.1620	20.2140
 2.1630	20.2200
 2.1640	20.2240
 2.1650	20.2300
 2.1660	20.2360
 2.1670	20.2430
 2.1680	20.2500
 2.1690	20.2590
 2.1700	20.2690
 2.1710	20.2800
 2.1720	20.2950
 2.1730	20.3080
 2.1740	20.3200
 2.1750	20.3330
 2.1760	20.3460
 2.1770	20.3580
 2.1780	20.3670
 2.1790	20.3790
 2.1800	20.3910
 2.1810	20.4040
 2.1820	20.4180
 2.1830	20.4350
 2.1840	20.4510
 2.1850	20.4680
 2.1860	20.4850
 2.1870	20.5050
 2.1880	20.5220
 2.1890	20.5400
 2.1900	20.5570
 2.1910	20.5740
 2.1920	20.5890
 2.1930	20.6010
 2.1940	20.6130
 2.1950	20.6250
 2.1960	20.6380
 2.1970	20.6540
 2.1980	20.6650
 2.1990	20.6740
 2.2000	20.6820
 2.2010	20.6860
 2.2020	20.6900
 2.2030	20.6950
 2.2040	20.6970
 2.2050	20.6970
 2.2060	20.6950
 2.2070	20.6910
 2.2080	20.6850
 2.2090	20.6810
 2.2100	20.6770
 2.2110	20.6710
 2.2120	20.6650
 2.2130	20.6560
 2.2140	20.6430
 2.2150	20.6310
 2.2160	20.6180
 2.2170	20.6060
 2.2180	20.5950
 2.2190	20.5810
 2.2200	20.5680
 2.2210	20.5520
 2.2220	20.5350
 2.2230	20.5160
 2.2240	20.4960
 2.2250	20.4720
 2.2260	20.4450
 2.2270	20.4150
 2.2280	20.3830
 2.2290	20.3450
 2.2300	20.3010
 2.2310	20.2540
 2.2320	20.2040
 2.2330	20.1460
 2.2340	20.0860
 2.2350	20.0220
 2.2360	19.9570
 2.2370	19.8860
 2.2380	19.8180
 2.2390	19.7490
 2.2400	19.6810
 2.2410	19.6110
 2.2420	19.5450
 2.2430	19.4790
 2.2440	19.4170
 2.2450	19.3570
 2.2460	19.3050
 2.2470	19.2590
 2.2480	19.2160
 2.2490	19.1800
 2.2500	19.1430
 2.2510	19.1090
 2.2520	19.0750
 2.2530	19.0440
 2.2540	19.0110
 2.2550	18.9800
 2.2560	18.9450
 2.2570	18.9070
 2.2580	18.8700
 2.2590	18.8330
 2.2600	18.7900
 2.2610	18.7440
 2.2620	18.6990
 2.2630	18.6500
 2.2640	18.5960
 2.2650	18.5460
 2.2660	18.4950
 2.2670	18.4440
 2.2680	18.3930
 2.2690	18.3430
 2.2700	18.2940
 2.2710	18.2470
 2.2720	18.2030
 2.2730	18.1590
 2.2740	18.1170
 2.2750	18.0760
 2.2760	18.0350
 2.2770	17.9980
 2.2780	17.9610
 2.2790	17.9290
 2.2800	17.9020
 2.2810	17.8720
 2.2820	17.8450
 2.2830	17.8140
 2.2840	17.7790
 2.2850	17.7470
 2.2860	17.7170
 2.2870	17.6860
 2.2880	17.6560
 2.2890	17.6230
 2.2900	17.5890
 2.2910	17.5540
 2.2920	17.5200
 2.2930	17.4830
 2.2940	17.4450
 2.2950	17.4040
 2.2960	17.3610
 2.2970	17.3150
 2.2980	17.2650
 2.2990	17.2150
 2.3000	17.1630
 2.3010	17.1080
 2.3020	17.0520
 2.3030	16.9970
 2.3040	16.9420
 2.3050	16.8880
 2.3060	16.8370
 2.3070	16.7860
 2.3080	16.7340
 2.3090	16.6820
 2.3100	16.6310
 2.3110	16.5840
 2.3120	16.5410
 2.3130	16.5010
 2.3140	16.4640
 2.3150	16.4300
 2.3160	16.4010
 2.3170	16.3790
 2.3180	16.3530
 2.3190	16.3300
 2.3200	16.3030
 2.3210	16.2730
 2.3220	16.2470
 2.3230	16.2240
 2.3240	16.1970
 2.3250	16.1720
 2.3260	16.1440
 2.3270	16.1120
 2.3280	16.0820
 2.3290	16.0520
 2.3300	16.0200
 2.3310	15.9890
 2.3320	15.9540
 2.3330	15.9160
 2.3340	15.8760
 2.3350	15.8300
 2.3360	15.7880
 2.3370	15.7440
 2.3380	15.7050
 2.3390	15.6740
 2.3400	15.6360
 2.3410	15.5990
 2.3420	15.5600
 2.3430	15.5170
 2.3440	15.4740
 2.3450	15.4280
 2.3460	15.3860
 2.3470	15.3440
 2.3480	15.3040
 2.3490	15.2650
 2.3500	15.2310
 2.3510	15.1980
 2.3520	15.1660
 2.3530	15.1390
 2.3540	15.1130
 2.3550	15.0800
 2.3560	15.0570
 2.3570	15.0330
 2.3580	15.0050
 2.3590	14.9790
 2.3600	14.9470
 2.3610	14.9140
 2.3620	14.8860
 2.3630	14.8590
 2.3640	14.8320
 2.3650	14.7980
 2.3660	14.7640
 2.3670	14.7300
 2.3680	14.6980
 2.3690	14.6640
 2.3700	14.6280
 2.3710	14.5930
 2.3720	14.5530
 2.3730	14.5150
 2.3740	14.4760
 2.3750	14.4320
 2.3760	14.3860
 2.3770	14.3410
 2.3780	14.2980
 2.3790	14.2610
 2.3800	14.2260
 2.3810	14.1860
 2.3820	14.1420
 2.3830	14.0890
 2.3840	14.0350
 2.3850	13.9860
 2.3860	13.9370
 2.3870	13.8910
 2.3880	13.8460
 2.3890	13.7950
 2.3900	13.7410
 2.3910	13.6930
 2.3920	13.6430
 2.3930	13.5950
 2.3940	13.5540
 2.3950	13.5130
 2.3960	13.4680
 2.3970	13.4220
 2.3980	13.3730
 2.3990	13.3230
 2.4000	13.2690
 2.4010	13.2180
 2.4020	13.1710
 2.4030	13.1190
 2.4040	13.0670
 2.4050	13.0190
 2.4060	12.9650
 2.4070	12.9100
 2.4080	12.8670
 2.4090	12.8200
 2.4100	12.7660
 2.4110	12.7240
 2.4120	12.6730
 2.4130	12.6240
 2.4140	12.5820
 2.4150	12.5270
 2.4160	12.4720
 2.4170	12.4170
 2.4180	12.3640
 2.4190	12.3200
 2.4200	12.2760
 2.4210	12.2300
 2.4220	12.1800
 2.4230	12.1190
 2.4240	12.0570
 2.4250	11.9950
 2.4260	11.9370
 2.4270	11.8820
 2.4280	11.8250
 2.4290	11.7670
 2.4300	11.7030
 2.4310	11.6430
 2.4320	11.5880
 2.4330	11.5300
 2.4340	11.4750
 2.4350	11.4210
 2.4360	11.3660
 2.4370	11.3090
 2.4380	11.2550
 2.4390	11.2000
 2.4400	11.1390
 2.4410	11.0850
 2.4420	11.0250
 2.4430	10.9660
 2.4440	10.9120
 2.4450	10.8510
 2.4460	10.7910
 2.4470	10.7370
 2.4480	10.6780
 2.4490	10.6170
 2.4500	10.5670
 2.4510	10.5050
 2.4520	10.4430
 2.4530	10.3950
 2.4540	10.3410
 2.4550	10.2920
 2.4560	10.2370
 2.4570	10.1740
 2.4580	10.1160
 2.4590	10.0550
 2.4600	10.0080
 2.4610	 9.9710
 2.4620	 9.9280
 2.4630	 9.8870
 2.4640	 9.8460
 2.4650	 9.7950
 2.4660	 9.7530
 2.4670	 9.7140
 2.4680	 9.6710
 2.4690	 9.6340
 2.4700	 9.5870
 2.4710	 9.5290
 2.4720	 9.4840
 2.4730	 9.4400
 2.4740	 9.4070
 2.4750	 9.3980
 2.4760	 9.3680
 2.4770	 9.3200
 2.4780	 9.2830
 2.4790	 9.2370
 2.4800	 9.1960
 2.4810	 9.1750
 2.4820	 9.1420
 2.4830	 9.0960
 2.4840	 9.0590
 2.4850	 9.0320
 2.4860	 9.0030
 2.4870	 8.9840
 2.4880	 8.9670
 2.4890	 8.9460
 2.4900	 8.9280
 2.4910	 8.9090
 2.4920	 8.9010
 2.4930	 8.8720
 2.4940	 8.8300
 2.4950	 8.8040
 2.4960	 8.7590
 2.4970	 8.7250
 2.4980	 8.7200
 2.4990	 8.7170
 2.5000	 8.7200
